'sample interval','ECG0','ECG1'
'0.0078125 sec','mV','mV'
0,-0.795,0.115
1,0.350,0.015
2,-0.730,0.085
3,0.275,0.065
4,-0.695,0.090
5,0.190,0.080
6,-0.540,0.035
7,0.020,0.110
8,-0.435,0.010
9,-0.135,0.095
10,-0.260,-0.030
11,-0.270,0.100
12,-0.145,-0.050
13,-0.420,0.095
14,-0.055,-0.035
15,-0.430,0.090
16,0.015,-0.070
17,-0.550,0.075
18,0.035,-0.100
19,-0.670,0.075
20,0.150,-0.110
21,-0.730,0.085
22,0.185,-0.115
23,-0.750,0.055
24,0.275,-0.130
25,-0.745,0.015
26,0.265,-0.085
27,-0.725,0.010
28,0.215,-0.035
29,-0.615,0.015
30,0.270,0.090
31,-0.490,0.170
32,0.255,0.230
33,-0.410,0.170
34,0.130,0.115
35,-0.460,-0.070
36,0.025,-0.045
37,-0.450,-0.135
38,-0.055,-0.055
39,-0.450,-0.140
40,-0.215,0.005
41,-0.265,-0.180
42,-0.465,-0.005
43,-0.120,-0.235
44,-0.555,0.000
45,0.050,-0.210
46,-0.600,0.000
47,0.040,-0.135
48,-0.775,0.345
49,0.405,0.350
50,0.255,0.655
51,1.680,-0.050
52,0.390,-1.045
53,0.205,-1.830
54,-1.195,-2.295
55,0.000,-2.105
56,-0.675,-1.120
57,0.075,-0.330
58,-0.555,-0.055
59,-0.120,0.115
60,-0.285,0.010
61,-0.270,0.195
62,-0.130,0.025
63,-0.415,0.240
64,-0.045,0.025
65,-0.355,0.260
66,-0.045,0.060
67,-0.350,0.260
68,0.060,0.120
69,-0.435,0.310
70,0.200,0.175
71,-0.480,0.375
72,0.280,0.260
73,-0.545,0.440
74,0.425,0.390
75,-0.445,0.505
76,0.420,0.570
77,-0.330,0.625
78,0.400,0.710
79,-0.230,0.725
80,0.465,0.810
81,-0.190,0.770
82,0.445,0.835
83,-0.265,0.740
84,0.355,0.755
85,-0.385,0.645
86,0.215,0.645
87,-0.445,0.435
88,0.010,0.450
89,-0.295,0.200
90,-0.145,0.275
91,-0.155,0.075
92,-0.305,0.230
93,-0.075,0.000
94,-0.410,0.165
95,0.085,-0.020
96,-0.510,0.115
97,0.145,-0.015
98,-0.565,0.110
99,0.225,0.005
100,-0.635,0.130
101,0.315,0.000
102,-0.730,0.125
103,0.330,0.045
104,-0.705,0.105
105,0.325,0.045
106,-0.615,0.055
107,0.170,0.165
108,-0.505,0.025
109,-0.015,0.145
110,-0.250,-0.020
111,-0.220,0.110
112,-0.095,-0.050
113,-0.395,0.100
114,0.030,-0.075
115,-0.495,0.070
116,0.090,-0.080
117,-0.565,0.045
118,0.165,-0.090
119,-0.610,0.020
120,0.210,-0.100
121,-0.690,0.015
122,0.240,-0.065
123,-0.725,-0.050
124,0.220,-0.030
125,-0.650,-0.040
126,0.125,0.020
127,-0.515,-0.055
128,-0.015,0.050
129,-0.430,-0.115
130,-0.105,0.070
131,-0.290,-0.100
132,-0.165,0.060
133,-0.075,0.010
134,-0.230,0.240
135,0.045,0.120
136,-0.240,0.240
137,0.050,-0.035
138,-0.495,-0.010
139,0.150,-0.225
140,-0.645,-0.055
141,0.175,-0.220
142,-0.805,-0.080
143,0.110,-0.140
144,-0.820,-0.120
145,0.130,-0.170
146,-0.760,-0.165
147,0.165,-0.180
148,-0.785,-0.195
149,0.185,-0.160
150,-0.890,-0.140
151,0.045,0.250
152,-0.385,0.340
153,1.005,0.620
154,1.095,-0.190
155,0.895,-1.150
156,-0.280,-1.990
157,-0.925,-2.310
158,-0.345,-2.270
159,-0.605,-1.135
160,0.030,-0.515
161,-0.675,-0.040
162,0.085,-0.105
163,-0.720,0.045
164,0.140,-0.035
165,-0.785,0.110
166,0.210,0.000
167,-0.785,0.115
168,0.260,0.050
169,-0.735,0.085
170,0.195,0.165
171,-0.615,0.110
172,0.030,0.180
173,-0.350,0.125
174,-0.180,0.305
175,-0.055,0.150
176,-0.345,0.430
177,0.110,0.290
178,-0.405,0.495
179,0.300,0.405
180,-0.450,0.610
181,0.425,0.525
182,-0.410,0.710
183,0.550,0.660
184,-0.360,0.725
185,0.470,0.715
186,-0.385,0.720
187,0.290,0.705
188,-0.320,0.575
189,0.015,0.630
190,-0.205,0.370
191,-0.335,0.435
192,0.020,0.165
193,-0.550,0.300
194,0.115,0.030
195,-0.695,0.165
196,0.205,-0.040
197,-0.745,0.105
198,0.270,-0.030
199,-0.685,0.055
200,0.215,-0.030
201,-0.650,0.025
202,0.110,0.000
203,-0.535,-0.020
204,0.015,0.055
205,-0.310,-0.045
206,-0.205,0.095
207,-0.110,-0.050
208,-0.380,0.095
209,0.065,-0.070
210,-0.550,0.100
211,0.200,-0.095
212,-0.740,0.090
213,0.345,-0.090
214,-0.755,0.025
215,0.285,-0.100
216,-0.755,0.030
217,0.270,-0.105
218,-0.720,-0.010
219,0.260,-0.100
220,-0.685,-0.050
221,0.200,-0.090
222,-0.645,-0.055
223,0.130,-0.060
224,-0.495,-0.115
225,-0.070,-0.035
226,-0.320,-0.140
227,-0.285,0.005
228,-0.135,-0.155
229,-0.375,0.025
230,-0.035,-0.155
231,-0.510,0.015
232,0.025,-0.165
233,-0.570,0.040
234,0.260,-0.175
235,-0.670,0.035
236,0.355,-0.045
237,-0.690,0.195
238,0.450,0.085
239,-0.615,0.135
240,0.355,-0.025
241,-0.570,-0.125
242,0.145,-0.185
243,-0.460,-0.205
244,-0.030,-0.135
245,-0.455,-0.250
246,-0.260,-0.115
247,-0.385,-0.290
248,-0.370,-0.150
249,-0.165,-0.315
250,-0.470,-0.150
251,-0.025,-0.320
252,-0.670,-0.135
253,0.105,-0.320
254,-0.895,0.095
255,0.440,0.215
256,-0.185,0.420
257,1.740,0.265
258,0.680,-0.945
259,0.545,-1.770
260,-1.205,-2.395
261,-0.210,-2.480
262,-0.730,-1.635
263,0.030,-0.685
264,-0.505,-0.285
265,-0.090,-0.110
266,-0.465,-0.165
267,-0.200,-0.040
268,-0.310,-0.135
269,-0.345,-0.005
270,-0.150,-0.120
271,-0.445,0.030
272,-0.025,-0.095
273,-0.560,0.085
274,0.145,-0.080
275,-0.675,0.145
276,0.280,-0.005
277,-0.750,0.180
278,0.365,0.065
279,-0.645,0.250
280,0.410,0.190
281,-0.600,0.350
282,0.385,0.315
283,-0.510,0.460
284,0.490,0.445
285,-0.375,0.530
286,0.440,0.555
287,-0.335,0.580
288,0.370,0.620
289,-0.270,0.540
290,0.130,0.565
291,-0.205,0.410
292,-0.190,0.450
293,-0.085,0.195
294,-0.430,0.265
295,0.000,0.025
296,-0.610,0.150
297,0.030,-0.130
298,-0.725,0.010
299,0.135,-0.210
300,-0.695,-0.090
301,0.180,-0.270
302,-0.775,-0.105
303,0.195,-0.230
304,-0.770,-0.110
305,0.240,-0.225
306,-0.745,-0.140
307,0.125,-0.165
308,-0.560,-0.180
309,-0.040,-0.130
310,-0.405,-0.230
311,-0.220,-0.135
312,-0.260,-0.245
313,-0.345,-0.100
314,-0.100,-0.280
315,-0.405,-0.110
316,-0.025,-0.265
317,-0.540,-0.115
318,0.055,-0.285
319,-0.715,-0.085
320,0.230,-0.345
321,-0.825,-0.110
322,0.250,-0.315
323,-0.820,-0.175
324,0.240,-0.290
325,-0.750,-0.185
326,0.165,-0.260
327,-0.655,-0.220
328,0.085,-0.195
329,-0.585,-0.225
330,0.070,-0.215
331,-0.525,-0.230
332,-0.015,-0.165
333,-0.505,-0.240
334,-0.100,-0.135
335,-0.330,-0.265
336,-0.195,-0.110
337,-0.145,-0.255
338,-0.200,-0.030
339,0.020,-0.140
340,-0.300,0.125
341,0.255,-0.095
342,-0.500,0.000
343,0.215,-0.325
344,-0.610,-0.240
345,0.215,-0.380
346,-0.695,-0.235
347,0.130,-0.375
348,-0.795,-0.205
349,0.075,-0.355
350,-0.770,-0.310
351,0.110,-0.390
352,-0.735,-0.325
353,0.100,-0.370
354,-0.685,-0.335
355,-0.025,-0.280
356,-0.660,-0.055
357,0.155,0.230
358,0.505,0.200
359,1.210,0.080
360,1.205,-1.320
361,-0.280,-1.850
362,-0.490,-2.570
363,-0.990,-2.580
364,0.080,-1.695
365,-0.605,-0.630
366,0.105,-0.410
367,-0.655,-0.170
368,0.145,-0.290
369,-0.710,-0.110
370,0.160,-0.230
371,-0.725,-0.095
372,0.215,-0.180
373,-0.615,-0.120
374,0.095,-0.125
375,-0.455,-0.135
376,-0.070,-0.015
377,-0.235,-0.115
378,-0.265,0.085
379,-0.020,-0.080
380,-0.395,0.150
381,0.130,-0.015
382,-0.415,0.215
383,0.260,0.105
384,-0.450,0.375
385,0.375,0.250
386,-0.355,0.470
387,0.465,0.350
388,-0.375,0.535
389,0.550,0.425
390,-0.455,0.550
391,0.460,0.450
392,-0.470,0.470
393,0.310,0.390
394,-0.520,0.280
395,0.115,0.200
396,-0.500,0.065
397,-0.005,0.015
398,-0.520,-0.125
399,-0.120,-0.075
400,-0.465,-0.250
401,-0.165,-0.150
402,-0.300,-0.330
403,-0.285,-0.165
404,-0.190,-0.360
405,-0.520,-0.160
406,0.005,-0.405
407,-0.615,-0.165
408,0.115,-0.335
409,-0.715,-0.165
410,0.180,-0.320
411,-0.700,-0.165
412,0.205,-0.285
413,-0.710,-0.200
414,0.135,-0.265
415,-0.685,-0.215
416,0.120,-0.265
417,-0.655,-0.240
418,0.090,-0.220
419,-0.630,-0.275
420,-0.005,-0.215
421,-0.565,-0.285
422,-0.065,-0.170
423,-0.435,-0.290
424,-0.245,-0.180
425,-0.295,-0.325
426,-0.420,-0.125
427,-0.075,-0.330
428,-0.570,-0.140
429,-0.005,-0.370
430,-0.695,-0.195
431,0.130,-0.345
432,-0.715,-0.205
433,0.175,-0.325
434,-0.745,-0.175
435,0.140,-0.285
436,-0.715,-0.225
437,0.120,-0.280
438,-0.645,-0.240
439,0.060,-0.190
440,-0.510,-0.225
441,-0.065,-0.120
442,-0.215,-0.135
443,-0.235,0.090
444,0.060,-0.070
445,-0.405,0.050
446,0.115,-0.275
447,-0.590,-0.215
448,0.165,-0.440
449,-0.695,-0.225
450,0.065,-0.410
451,-0.825,-0.175
452,0.095,-0.385
453,-0.800,-0.275
454,0.150,-0.410
455,-0.845,-0.325
456,0.100,-0.385
457,-0.730,-0.350
458,0.040,-0.340
459,-0.650,-0.295
460,-0.195,0.110
461,-0.065,0.115
462,0.720,0.415
463,1.350,-0.405
464,0.550,-1.350
465,-0.335,-2.220
466,-1.030,-2.540
467,-0.195,-2.320
468,-0.585,-1.120
469,0.125,-0.555
470,-0.845,-0.105
471,0.185,-0.240
472,-0.830,-0.060
473,0.255,-0.160
474,-0.830,-0.080
475,0.185,-0.100
476,-0.700,-0.080
477,0.055,-0.050
478,-0.550,-0.070
479,-0.040,-0.020
480,-0.435,-0.065
481,-0.110,0.045
482,-0.230,-0.030
483,-0.225,0.125
484,-0.050,0.015
485,-0.350,0.215
486,0.185,0.080
487,-0.445,0.315
488,0.445,0.185
489,-0.595,0.450
490,0.640,0.320
491,-0.575,0.500
492,0.590,0.475
493,-0.410,0.535
494,0.465,0.525
495,-0.270,0.480
496,0.145,0.550
497,-0.140,0.350
498,-0.175,0.410
499,-0.055,0.150
500,-0.510,0.240
501,0.010,-0.030
502,-0.680,0.020
503,0.170,-0.180
504,-0.775,-0.110
505,0.175,-0.215
506,-0.720,-0.235
507,0.100,-0.245
508,-0.580,-0.275
509,-0.055,-0.200
510,-0.415,-0.330
511,-0.325,-0.185
512,-0.175,-0.375
513,-0.485,-0.145
514,-0.010,-0.350
515,-0.610,-0.160
516,0.005,-0.340
517,-0.665,-0.175
518,0.095,-0.325
519,-0.695,-0.175
520,0.135,-0.295
521,-0.755,-0.200
522,0.120,-0.310
523,-0.790,-0.190
524,0.110,-0.275
525,-0.720,-0.260
526,0.035,-0.235
527,-0.605,-0.310
528,-0.160,-0.245
529,-0.465,-0.360
530,-0.295,-0.225
531,-0.360,-0.390
532,-0.405,-0.205
533,-0.260,-0.415
534,-0.510,-0.180
535,-0.145,-0.410
536,-0.530,-0.240
537,-0.125,-0.390
538,-0.640,-0.230
539,-0.075,-0.395
540,-0.710,-0.250
541,0.045,-0.345
542,-0.770,-0.245
543,0.100,-0.335
544,-0.740,-0.230
545,0.080,-0.335
546,-0.665,-0.205
547,0.130,-0.125
548,-0.520,-0.090
549,0.165,-0.100
550,-0.575,-0.255
551,0.015,-0.300
552,-0.590,-0.445
553,-0.140,-0.330
554,-0.515,-0.470
555,-0.380,-0.290
556,-0.315,-0.470
557,-0.640,-0.320
558,-0.180,-0.470
559,-0.800,-0.300
560,-0.010,-0.505
561,-0.835,-0.320
562,0.055,-0.440
563,-0.830,-0.330
564,-0.100,-0.325
565,-0.845,0.100
566,0.465,0.170
567,0.440,0.495
568,1.600,-0.380
569,-0.115,-1.350
570,-0.400,-1.895
571,-1.235,-2.560
572,-0.470,-2.045
573,-0.575,-1.220
574,-0.360,-0.345
575,-0.320,-0.320
576,-0.565,-0.035
577,-0.165,-0.255
578,-0.640,-0.015
579,-0.085,-0.200
580,-0.675,0.000
581,-0.030,-0.140
582,-0.680,0.025
583,-0.020,-0.100
584,-0.750,0.050
585,0.115,-0.045
586,-0.675,0.085
587,0.170,0.005
588,-0.715,0.145
589,0.175,0.115
590,-0.655,0.220
591,0.250,0.255
592,-0.480,0.290
593,0.255,0.405
594,-0.345,0.400
595,0.140,0.555
596,-0.165,0.465
597,0.065,0.665
598,-0.010,0.505
599,-0.060,0.715
600,-0.085,0.515
601,-0.260,0.560
602,-0.130,0.355
603,-0.445,0.405
604,-0.160,0.135
605,-0.590,0.190
606,-0.050,-0.005
607,-0.715,0.080
608,0.020,-0.100
609,-0.845,0.010
610,0.070,-0.115
611,-0.785,-0.030
612,0.100,-0.050
613,-0.725,-0.070
614,0.010,-0.035
615,-0.725,-0.070
616,-0.015,-0.010
617,-0.705,-0.055
618,-0.025,0.040
619,-0.715,-0.060
620,-0.080,0.070
621,-0.515,-0.070
622,-0.235,0.080
623,-0.395,-0.060
624,-0.450,0.085
625,-0.175,-0.060
626,-0.595,0.125
627,0.000,-0.050
628,-0.730,0.070
629,0.000,-0.055
630,-0.765,0.065
631,0.065,-0.040
632,-0.795,0.035
633,0.060,-0.035
634,-0.850,0.035
635,0.105,-0.010
636,-0.845,0.005
637,0.085,-0.010
638,-0.890,0.015
639,0.000,-0.020
640,-0.755,-0.035
641,-0.125,0.045
642,-0.525,-0.115
643,-0.330,0.055
644,-0.435,-0.110
645,-0.430,0.050
646,-0.340,-0.100
647,-0.485,0.080
648,-0.200,-0.055
649,-0.565,0.130
650,-0.100,0.005
651,-0.500,0.255
652,0.080,0.185
653,-0.585,0.390
654,0.160,0.145
655,-0.785,0.165
656,0.185,-0.065
657,-0.835,0.000
658,0.145,0.005
659,-0.890,0.000
660,-0.015,0.070
661,-0.900,-0.020
662,-0.110,0.065
663,-0.725,-0.045
664,-0.190,0.115
665,-0.630,-0.010
666,-0.195,0.105
667,-0.570,-0.005
668,-0.375,0.145
669,-0.560,0.335
670,-0.115,0.645
671,0.650,0.705
672,1.100,0.200
673,0.810,-1.100
674,-0.745,-1.575
675,-0.645,-2.150
676,-1.085,-2.020
677,0.050,-1.080
678,-0.825,-0.105
679,0.085,0.110
680,-0.915,0.315
681,0.160,0.245
682,-0.915,0.335
683,0.210,0.305
684,-0.900,0.385
685,0.150,0.350
686,-0.795,0.395
687,0.150,0.375
688,-0.740,0.420
689,0.015,0.455
690,-0.565,0.440
691,-0.160,0.575
692,-0.275,0.470
693,-0.305,0.670
694,-0.005,0.565
695,-0.445,0.795
696,0.205,0.715
697,-0.500,0.955
698,0.315,0.865
699,-0.490,1.050
700,0.470,1.030
701,-0.505,1.195
702,0.590,1.120
703,-0.570,1.250
704,0.510,1.140
705,-0.660,1.140
706,0.320,1.040
707,-0.550,0.895
708,0.035,0.880
709,-0.455,0.670
710,-0.175,0.685
711,-0.310,0.485
712,-0.365,0.580
713,-0.190,0.380
714,-0.425,0.510
715,-0.135,0.350
716,-0.445,0.455
717,-0.035,0.305
718,-0.550,0.450
719,0.060,0.295
720,-0.675,0.470
721,0.225,0.320
722,-0.740,0.445
723,0.300,0.350
724,-0.825,0.445
725,0.315,0.360
726,-0.840,0.410
727,0.290,0.425
728,-0.710,0.410
729,0.205,0.445
730,-0.625,0.390
731,0.105,0.445
732,-0.550,0.370
733,0.000,0.445
734,-0.440,0.370
735,-0.115,0.435
736,-0.295,0.305
737,-0.245,0.440
738,-0.195,0.290
739,-0.400,0.440
740,-0.030,0.260
741,-0.560,0.455
742,0.155,0.260
743,-0.705,0.425
744,0.270,0.270
745,-0.820,0.410
746,0.350,0.310
747,-0.835,0.400
748,0.320,0.330
749,-0.745,0.355
750,0.235,0.375
751,-0.640,0.330
752,0.125,0.370
753,-0.470,0.360
754,0.030,0.465
755,-0.255,0.370
756,-0.105,0.595
757,0.035,0.505
758,-0.275,0.705
759,0.310,0.490
760,-0.550,0.550
761,0.310,0.290
762,-0.695,0.310
763,0.295,0.275
764,-0.720,0.320
765,0.165,0.280
766,-0.755,0.305
767,0.100,0.290
768,-0.655,0.220
769,0.005,0.300
770,-0.445,0.180
771,-0.185,0.315
772,-0.260,0.155
773,-0.395,0.370
774,-0.180,0.310
775,-0.525,0.800
776,0.670,0.720
777,0.535,0.925
778,1.705,-0.480
779,-0.025,-1.290
780,-0.125,-1.980
781,-1.095,-2.270
782,0.010,-1.435
783,-0.640,-0.405
784,0.060,0.175
785,-0.640,0.285
786,0.015,0.415
787,-0.520,0.330
788,-0.065,0.475
789,-0.220,0.310
790,-0.345,0.535
791,0.075,0.315
792,-0.615,0.545
793,0.190,0.365
794,-0.615,0.575
795,0.280,0.430
796,-0.625,0.580
797,0.305,0.525
798,-0.570,0.660
799,0.295,0.675
800,-0.440,0.720
801,0.325,0.810
802,-0.265,0.780
803,0.210,0.950
804,0.020,0.895
805,0.035,1.050
806,0.310,0.920
807,-0.175,1.160
808,0.555,0.980
809,-0.355,1.185
810,0.635,0.975
811,-0.555,1.065
812,0.545,0.855
813,-0.685,0.865
814,0.310,0.690
815,-0.650,0.575
816,0.200,0.495
817,-0.600,0.395
818,0.115,0.365
819,-0.465,0.250
820,-0.010,0.290
821,-0.320,0.155
822,-0.210,0.285
823,-0.145,0.110
824,-0.340,0.260
825,0.045,0.075
826,-0.535,0.270
827,0.235,0.095
828,-0.670,0.245
829,0.310,0.110
830,-0.730,0.260
831,0.395,0.165
832,-0.770,0.215
833,0.315,0.145
834,-0.710,0.170
835,0.235,0.130
836,-0.555,0.100
837,0.210,0.160
838,-0.450,0.055
839,0.030,0.155
840,-0.340,0.030
841,-0.085,0.135
842,-0.210,0.015
843,-0.325,0.135
844,-0.025,-0.015
845,-0.355,0.135
846,0.150,-0.025
847,-0.495,0.120
848,0.240,-0.025
849,-0.590,0.125
850,0.270,-0.015
851,-0.630,0.115
852,0.355,-0.050
853,-0.730,0.120
854,0.385,-0.065
855,-0.770,0.075
856,0.370,-0.055
857,-0.685,-0.010
858,0.280,0.000
859,-0.525,0.000
860,0.160,0.060
861,-0.285,-0.005
862,0.080,0.195
863,-0.085,0.140
864,-0.010,0.270
865,-0.055,0.020
866,-0.095,0.045
867,-0.010,-0.235
868,-0.230,-0.085
869,0.025,-0.200
870,-0.485,-0.040
871,0.090,-0.200
872,-0.690,-0.100
873,0.240,-0.285
874,-0.775,-0.100
875,0.385,-0.295
876,-0.760,-0.170
877,0.335,-0.250
878,-0.715,-0.185
879,0.175,-0.170
880,-0.665,0.115
881,0.505,0.355
882,0.495,0.545
883,1.685,0.010
884,0.600,-1.210
885,-0.155,-1.740
886,-0.805,-2.425
887,-0.410,-2.185
888,-0.165,-1.400
889,-0.300,-0.455
890,0.025,-0.275
891,-0.535,-0.050
892,0.200,-0.210
893,-0.680,-0.025
894,0.340,-0.145
895,-0.725,0.005
896,0.475,-0.135
897,-0.715,-0.025
898,0.365,-0.055
899,-0.625,-0.005
900,0.365,-0.020
901,-0.520,0.010
902,0.245,0.045
903,-0.415,0.045
904,0.215,0.110
905,-0.245,0.095
906,0.170,0.230
907,-0.010,0.205
908,0.025,0.395
909,0.190,0.295
910,-0.055,0.505
911,0.430,0.385
912,-0.135,0.600
913,0.585,0.485
914,-0.290,0.655
915,0.550,0.450
916,-0.490,0.545
917,0.415,0.275
918,-0.625,0.305
919,0.350,0.030
920,-0.630,0.095
921,0.270,-0.115
922,-0.720,-0.075
923,0.230,-0.205
924,-0.690,-0.200
925,0.180,-0.225
926,-0.530,-0.260
927,0.090,-0.250
928,-0.435,-0.325
929,-0.100,-0.230
930,-0.305,-0.315
931,-0.210,-0.175
932,-0.230,-0.350
933,-0.215,-0.215
934,-0.165,-0.350
935,-0.335,-0.180
936,-0.075,-0.320
937,-0.435,-0.175
938,0.065,-0.355
939,-0.615,-0.160
940,0.205,-0.335
941,-0.685,-0.165
942,0.270,-0.315
943,-0.760,-0.165
944,0.220,-0.260
945,-0.710,-0.195
946,0.145,-0.220
947,-0.645,-0.255
948,0.110,-0.230
949,-0.595,-0.260
950,0.055,-0.235
951,-0.545,-0.260
952,-0.085,-0.210
953,-0.465,-0.315
954,-0.225,-0.200
955,-0.280,-0.370
956,-0.395,-0.195
957,-0.060,-0.375
958,-0.620,-0.185
959,0.170,-0.365
960,-0.795,-0.165
961,0.220,-0.365
962,-0.810,-0.210
963,0.255,-0.335
964,-0.750,-0.200
965,0.230,-0.285
966,-0.685,-0.150
967,0.275,-0.155
968,-0.605,0.005
969,0.330,0.030
970,-0.440,0.015
971,0.165,-0.075
972,-0.490,-0.255
973,0.015,-0.285
974,-0.385,-0.325
975,-0.185,-0.215
976,-0.340,-0.375
977,-0.390,-0.185
978,-0.205,-0.365
979,-0.520,-0.210
980,-0.065,-0.415
981,-0.625,-0.190
982,-0.015,-0.390
983,-0.605,-0.200
984,0.025,-0.385
985,-0.740,-0.075
986,0.100,0.150
987,-0.045,0.370
988,1.385,0.315
989,0.860,-0.920
990,0.520,-1.830
991,-1.260,-2.370
992,-0.265,-2.580
993,-0.865,-1.920
994,0.145,-0.880
995,-0.710,-0.245
996,-0.040,-0.100
997,-0.620,-0.100
998,-0.075,0.010
999,-0.495,-0.085
1000,-0.140,0.040
1001,-0.435,-0.090
1002,-0.200,0.110
1003,-0.305,-0.035
1004,-0.265,0.145
1005,-0.110,-0.005
1006,-0.535,0.215
1007,0.060,0.045
1008,-0.610,0.240
1009,0.215,0.140
1010,-0.650,0.340
1011,0.280,0.265
1012,-0.600,0.425
1013,0.325,0.490
1014,-0.435,0.545
1015,0.340,0.630
1016,-0.365,0.660
1017,0.325,0.760
1018,-0.280,0.755
1019,0.295,0.845
1020,-0.275,0.745
1021,0.100,0.775
1022,-0.230,0.540
1023,-0.195,0.625
1024,-0.085,0.310
1025,-0.530,0.370
1026,0.005,0.075
1027,-0.680,0.190
1028,0.095,-0.055
1029,-0.695,0.040
1030,0.085,-0.105
1031,-0.775,-0.005
1032,0.060,-0.160
1033,-0.795,-0.035
1034,0.100,-0.120
1035,-0.780,-0.070
1036,0.055,-0.130
1037,-0.800,-0.085
1038,0.055,-0.075
1039,-0.695,-0.095
1040,-0.105,-0.030
1041,-0.540,-0.150
1042,-0.275,0.010
1043,-0.345,-0.135
1044,-0.385,0.050
1045,-0.235,-0.180
1046,-0.520,0.035
1047,-0.185,-0.145
1048,-0.590,0.055
1049,-0.070,-0.130
1050,-0.640,0.020
1051,-0.070,-0.150
1052,-0.760,-0.005
1053,0.025,-0.140
1054,-0.820,0.005
1055,0.110,-0.110
1056,-0.830,-0.035
1057,0.045,-0.080
1058,-0.780,-0.065
1059,-0.015,-0.055
1060,-0.685,-0.090
1061,-0.175,-0.015
1062,-0.530,-0.095
1063,-0.310,0.015
1064,-0.350,-0.190
1065,-0.465,0.000
1066,-0.315,-0.200
1067,-0.665,0.000
1068,-0.175,-0.165
1069,-0.725,0.000
1070,-0.020,-0.160
1071,-0.830,0.040
1072,0.100,-0.080
1073,-0.775,0.065
1074,0.230,0.075
1075,-0.685,0.180
1076,0.200,0.180
1077,-0.600,0.065
1078,-0.045,0.000
1079,-0.495,-0.215
1080,-0.225,-0.120
1081,-0.395,-0.270
1082,-0.470,-0.135
1083,-0.340,-0.245
1084,-0.705,-0.070
1085,-0.175,-0.275
1086,-0.810,-0.100
1087,0.025,-0.255
1088,-1.005,-0.090
1089,0.125,-0.295
1090,-1.020,-0.120
1091,0.130,-0.195
1092,-1.040,0.160
1093,0.205,0.405
1094,0.130,0.465
1095,1.415,0.060
1096,0.760,-1.260
1097,-0.170,-1.825
1098,-0.970,-2.525
1099,-0.775,-2.355
1100,-0.290,-1.470
1101,-0.485,-0.475
1102,-0.210,-0.200
1103,-0.755,0.030
1104,0.010,-0.100
1105,-0.900,0.120
1106,0.210,0.000
1107,-0.890,0.085
1108,0.215,0.065
1109,-0.870,0.070
1110,0.155,0.085
1111,-0.720,0.065
1112,0.030,0.130
1113,-0.525,0.075
1114,-0.020,0.190
1115,-0.415,0.115
1116,-0.040,0.265
1117,-0.275,0.180
1118,-0.040,0.340
1119,-0.090,0.255
1120,-0.085,0.490
1121,0.100,0.415
1122,-0.135,0.625
1123,0.300,0.520
1124,-0.185,0.720
1125,0.510,0.575
1126,-0.350,0.780
1127,0.510,0.595
1128,-0.580,0.710
1129,0.465,0.505
1130,-0.745,0.500
1131,0.360,0.315
1132,-0.830,0.265
1133,0.205,0.120
1134,-0.820,0.080
1135,0.145,-0.005
1136,-0.645,-0.065
1137,0.070,-0.085
1138,-0.545,-0.140
1139,-0.105,-0.080
1140,-0.430,-0.210
1141,-0.240,-0.100
1142,-0.200,-0.225
1143,-0.390,-0.070
1144,-0.010,-0.240
1145,-0.570,-0.080
1146,0.090,-0.245
1147,-0.715,-0.095
1148,0.165,-0.285
1149,-0.785,-0.095
1150,0.280,-0.245
1151,-0.815,-0.120
1152,0.330,-0.270
1153,-0.840,-0.145
1154,0.315,-0.270
1155,-0.790,-0.200
1156,0.195,-0.255
1157,-0.670,-0.280
1158,0.000,-0.225
1159,-0.510,-0.330
1160,-0.130,-0.230
1161,-0.340,-0.380
1162,-0.345,-0.270
1163,-0.200,-0.420
1164,-0.445,-0.275
1165,-0.185,-0.435
1166,-0.445,-0.295
1167,-0.130,-0.465
1168,-0.525,-0.295
1169,0.000,-0.475
1170,-0.630,-0.300
1171,0.095,-0.510
1172,-0.740,-0.320
1173,0.210,-0.470
1174,-0.840,-0.345
1175,0.295,-0.455
1176,-0.830,-0.305
1177,0.340,-0.390
1178,-0.610,-0.220
1179,0.255,-0.180
1180,-0.500,-0.120
1181,0.255,-0.215
1182,-0.500,-0.310
1183,0.185,-0.435
1184,-0.545,-0.490
1185,0.005,-0.445
1186,-0.610,-0.525
1187,-0.090,-0.425
1188,-0.455,-0.525
1189,-0.255,-0.445
1190,-0.325,-0.565
1191,-0.505,-0.410
1192,-0.035,-0.585
1193,-0.670,-0.420
1194,0.125,-0.645
1195,-0.790,-0.360
1196,0.085,-0.285
1197,-0.410,0.100
1198,1.095,0.100
1199,0.865,-0.005
1200,1.095,-1.365
1201,-0.875,-1.835
1202,-0.350,-2.455
1203,-1.040,-2.640
1204,0.115,-1.675
1205,-0.600,-0.865
1206,0.020,-0.440
1207,-0.455,-0.435
1208,-0.125,-0.330
1209,-0.305,-0.425
1210,-0.275,-0.265
1211,-0.110,-0.395
1212,-0.455,-0.230
1213,0.095,-0.425
1214,-0.580,-0.200
1215,0.165,-0.375
1216,-0.675,-0.145
1217,0.295,-0.325
1218,-0.590,-0.115
1219,0.360,-0.250
1220,-0.595,-0.105
1221,0.375,-0.125
1222,-0.500,0.020
1223,0.465,0.020
1224,-0.385,0.140
1225,0.450,0.220
1226,-0.265,0.305
1227,0.380,0.400
1228,-0.065,0.365
1229,0.285,0.520
1230,-0.040,0.410
1231,0.125,0.515
1232,-0.005,0.285
1233,0.010,0.335
1234,-0.070,0.080
1235,-0.245,0.090
1236,-0.110,-0.175
1237,-0.260,-0.100
1238,-0.020,-0.375
1239,-0.410,-0.220
1240,0.095,-0.430
1241,-0.580,-0.275
1242,0.220,-0.470
1243,-0.570,-0.290
1244,0.245,-0.450
1245,-0.595,-0.330
1246,0.255,-0.440
1247,-0.565,-0.360
1248,0.265,-0.430
1249,-0.540,-0.385
1250,0.260,-0.415
1251,-0.590,-0.385
1252,0.280,-0.380
1253,-0.535,-0.400
1254,0.260,-0.415
1255,-0.520,-0.425
1256,0.125,-0.315
1257,-0.315,-0.470
1258,-0.015,-0.270
1259,-0.085,-0.465
1260,-0.260,-0.265
1261,0.020,-0.485
1262,-0.385,-0.335
1263,0.170,-0.495
1264,-0.460,-0.320
1265,0.135,-0.500
1266,-0.465,-0.305
1267,0.240,-0.440
1268,-0.525,-0.320
1269,0.285,-0.440
1270,-0.600,-0.325
1271,0.290,-0.410
1272,-0.560,-0.355
1273,0.270,-0.365
1274,-0.430,-0.405
1275,0.070,-0.350
1276,-0.255,-0.435
1277,-0.085,-0.320
1278,-0.050,-0.490
1279,-0.280,-0.290
1280,0.060,-0.475
1281,-0.360,-0.305
1282,0.215,-0.410
1283,-0.335,-0.250
1284,0.315,-0.360
1285,-0.340,-0.105
1286,0.405,-0.140
1287,-0.270,-0.090
1288,0.420,-0.365
1289,-0.505,-0.385
1290,0.385,-0.565
1291,-0.550,-0.470
1292,0.290,-0.505
1293,-0.575,-0.505
1294,0.200,-0.475
1295,-0.585,-0.500
1296,0.080,-0.455
1297,-0.420,-0.530
1298,0.055,-0.475
1299,-0.330,-0.545
1300,-0.040,-0.400
1301,-0.365,-0.490
1302,-0.095,0.020
1303,0.225,-0.050
1304,0.900,0.345
1305,1.635,-1.040
1306,0.610,-1.795
1307,0.050,-2.660
1308,-0.985,-2.910
1309,0.070,-2.450
1310,-0.540,-1.220
1311,0.285,-0.650
1312,-0.615,-0.360
1313,0.300,-0.345
1314,-0.535,-0.265
1315,0.260,-0.240
1316,-0.510,-0.240
1317,0.285,-0.180
1318,-0.445,-0.205
1319,0.290,-0.165
1320,-0.395,-0.165
1321,0.200,-0.090
1322,-0.250,-0.175
1323,0.025,0.010
1324,0.035,-0.175
1325,-0.200,0.080
1326,0.350,-0.050
1327,-0.305,0.150
1328,0.490,0.075
1329,-0.300,0.255
1330,0.595,0.215
1331,-0.245,0.415
1332,0.720,0.405
1333,-0.065,0.540
1334,0.735,0.550
1335,-0.105,0.595
1336,0.665,0.590
1337,-0.115,0.580
1338,0.440,0.540
1339,-0.085,0.350
1340,0.085,0.405
1341,0.140,0.095
1342,-0.235,0.170
1343,0.270,-0.085
1344,-0.485,0.015
1345,0.350,-0.230
1346,-0.535,-0.090
1347,0.405,-0.285
1348,-0.520,-0.170
1349,0.400,-0.310
1350,-0.495,-0.220
1351,0.400,-0.300
1352,-0.495,-0.225
1353,0.395,-0.285
1354,-0.465,-0.240
1355,0.320,-0.215
1356,-0.280,-0.230
1357,0.145,-0.150
1358,-0.160,-0.225
1359,-0.050,-0.100
1360,0.025,-0.265
1361,-0.215,-0.085
1362,0.190,-0.245
1363,-0.340,-0.050
1364,0.355,-0.260
1365,-0.435,-0.085
1366,0.390,-0.265
1367,-0.500,-0.090
1368,0.420,-0.285
1369,-0.545,-0.125
1370,0.455,-0.305
1371,-0.520,-0.170
1372,0.420,-0.235
1373,-0.500,-0.195
1374,0.325,-0.245
1375,-0.395,-0.250
1376,0.215,-0.205
1377,-0.250,-0.285
1378,0.065,-0.200
1379,-0.085,-0.310
1380,-0.105,-0.195
1381,0.040,-0.360
1382,-0.250,-0.220
1383,0.105,-0.360
1384,-0.380,-0.175
1385,0.285,-0.320
1386,-0.430,-0.115
1387,0.460,-0.250
1388,-0.590,0.005
1389,0.640,-0.100
1390,-0.420,0.010
1391,0.640,-0.160
1392,-0.410,-0.235
1393,0.280,-0.325
1394,-0.320,-0.390
1395,0.045,-0.305
1396,-0.095,-0.400
1397,-0.190,-0.230
1398,0.005,-0.435
1399,-0.450,-0.305
1400,0.170,-0.460
1401,-0.520,-0.310
1402,0.350,-0.460
1403,-0.590,-0.325
1404,0.415,-0.405
1405,-0.795,-0.240
1406,0.355,0.135
1407,0.020,0.110
1408,1.310,0.625
1409,1.465,-0.445
1410,0.670,-1.220
1411,-0.180,-1.985
1412,-0.930,-2.360
1413,-0.075,-2.335
1414,-0.440,-1.290
1415,0.210,-0.670
1416,-0.480,-0.260
1417,0.270,-0.345
1418,-0.440,-0.155
1419,0.325,-0.255
1420,-0.545,-0.155
1421,0.345,-0.235
1422,-0.540,-0.190
1423,0.370,-0.170
1424,-0.455,-0.140
1425,0.175,-0.135
1426,-0.155,-0.185
1427,0.065,-0.035
1428,0.015,-0.200
1429,-0.065,0.040
1430,0.185,-0.125
1431,-0.100,0.135
1432,0.340,-0.015
1433,-0.090,0.270
1434,0.490,0.130
1435,-0.055,0.355
1436,0.615,0.240
1437,-0.055,0.445
1438,0.680,0.360
1439,-0.170,0.500
1440,0.655,0.395
1441,-0.265,0.445
1442,0.540,0.350
1443,-0.300,0.240
1444,0.285,0.175
1445,-0.355,0.010
1446,0.210,-0.020
1447,-0.295,-0.200
1448,0.080,-0.125
1449,-0.260,-0.345
1450,-0.045,-0.170
1451,-0.050,-0.380
1452,-0.185,-0.195
1453,0.075,-0.420
1454,-0.370,-0.185
1455,0.245,-0.395
1456,-0.500,-0.180
1457,0.325,-0.360
1458,-0.535,-0.210
1459,0.365,-0.340
1460,-0.510,-0.230
1461,0.320,-0.260
1462,-0.460,-0.240
1463,0.225,-0.200
1464,-0.325,-0.265
1465,0.120,-0.190
1466,-0.255,-0.310
1467,0.060,-0.195
1468,-0.115,-0.325
1469,-0.115,-0.170
1470,-0.010,-0.380
1471,-0.270,-0.160
1472,0.170,-0.375
1473,-0.345,-0.150
1474,0.305,-0.360
1475,-0.585,-0.195
1476,0.375,-0.325
1477,-0.575,-0.150
1478,0.395,-0.290
1479,-0.575,-0.235
1480,0.280,-0.275
1481,-0.465,-0.235
1482,0.255,-0.265
1483,-0.465,-0.235
1484,0.200,-0.260
1485,-0.390,-0.265
1486,0.145,-0.220
1487,-0.290,-0.280
1488,0.235,-0.140
1489,-0.180,-0.180
1490,0.080,-0.010
1491,0.075,-0.080
1492,-0.065,0.110
1493,0.325,-0.160
1494,-0.240,-0.090
1495,0.270,-0.425
1496,-0.445,-0.220
1497,0.285,-0.395
1498,-0.540,-0.235
1499,0.125,-0.365
1500,-0.575,-0.250
1501,0.175,-0.395
1502,-0.550,-0.270
1503,0.250,-0.385
1504,-0.605,-0.285
1505,0.295,-0.360
1506,-0.690,-0.205
1507,0.230,0.020
1508,-0.245,0.190
1509,1.245,0.400
1510,1.080,-0.345
1511,1.105,-1.445
1512,-0.525,-2.175
1513,-0.585,-2.430
1514,-0.510,-2.415
1515,0.000,-1.165
1516,-0.205,-0.525
1517,-0.065,-0.165
1518,-0.160,-0.230
1519,-0.190,-0.060
1520,-0.010,-0.210
1521,-0.300,0.000
1522,0.110,-0.150
1523,-0.390,0.035
1524,0.255,-0.085
1525,-0.530,0.040
1526,0.330,-0.050
1527,-0.535,0.060
1528,0.395,-0.015
1529,-0.490,0.105
1530,0.420,0.090
1531,-0.455,0.135
1532,0.430,0.200
1533,-0.365,0.260
1534,0.430,0.360
1535,-0.160,0.360
1536,0.390,0.530
1537,0.050,0.480
1538,0.330,0.670
1539,0.160,0.575
1540,0.180,0.750
1541,0.310,0.600
1542,-0.065,0.755
1543,0.315,0.500
1544,-0.305,0.545
1545,0.335,0.250
1546,-0.460,0.270
1547,0.275,0.055
1548,-0.575,0.100
1549,0.265,-0.090
1550,-0.580,-0.035
1551,0.275,-0.170
1552,-0.610,-0.120
1553,0.330,-0.220
1554,-0.640,-0.165
1555,0.370,-0.205
1556,-0.640,-0.170
1557,0.350,-0.220
1558,-0.590,-0.220
1559,0.200,-0.165
1560,-0.340,-0.235
1561,-0.005,-0.090
1562,-0.180,-0.225
1563,-0.220,-0.120
1564,-0.040,-0.235
1565,-0.220,-0.080
1566,-0.050,-0.260
1567,-0.245,-0.080
1568,0.005,-0.210
1569,-0.335,-0.080
1570,0.080,-0.255
1571,-0.450,-0.120
1572,0.210,-0.290
1573,-0.590,-0.115
1574,0.355,-0.275
1575,-0.705,-0.135
1576,0.395,-0.260
1577,-0.765,-0.175
1578,0.355,-0.285
1579,-0.715,-0.195
1580,0.330,-0.215
1581,-0.640,-0.235
1582,0.235,-0.210
1583,-0.550,-0.220
1584,0.255,-0.150
1585,-0.370,-0.120
1586,0.160,0.030
1587,-0.250,0.000
1588,0.125,0.110
1589,0.010,-0.065
1590,-0.145,-0.015
1591,0.120,-0.290
1592,-0.450,-0.185
1593,0.140,-0.315
1594,-0.640,-0.170
1595,0.205,-0.285
1596,-0.765,-0.180
1597,0.260,-0.345
1598,-0.830,-0.185
1599,0.330,-0.305
1600,-0.795,-0.185
1601,0.365,-0.325
1602,-0.765,-0.200
1603,0.180,-0.055
1604,-0.545,0.310
1605,0.830,0.395
1606,0.895,0.115
1607,1.535,-1.115
1608,0.075,-1.925
1609,-0.540,-2.345
1610,-0.500,-2.665
1611,-0.415,-1.550
1612,0.000,-0.760
1613,-0.445,-0.120
1614,0.035,-0.205
1615,-0.510,0.015
1616,0.135,-0.150
1617,-0.590,0.025
1618,0.250,-0.110
1619,-0.640,0.060
1620,0.365,-0.075
1621,-0.680,0.075
1622,0.435,-0.045
1623,-0.725,0.150
1624,0.430,0.035
1625,-0.585,0.175
1626,0.435,0.115
1627,-0.500,0.225
1628,0.325,0.265
1629,-0.285,0.310
1630,0.365,0.400
1631,-0.125,0.410
1632,0.315,0.570
1633,0.020,0.550
1634,0.305,0.715
1635,0.195,0.615
1636,0.225,0.785
1637,0.210,0.640
1638,-0.025,0.770
1639,0.300,0.510
1640,-0.280,0.630
1641,0.400,0.320
1642,-0.660,0.410
1643,0.385,0.105
1644,-0.770,0.215
1645,0.390,0.000
1646,-0.670,0.015
1647,0.265,-0.100
1648,-0.640,-0.025
1649,0.265,-0.070
1650,-0.550,-0.065
1651,0.170,-0.100
1652,-0.505,-0.130
1653,0.080,-0.060
1654,-0.320,-0.135
1655,-0.075,-0.060
1656,-0.150,-0.160
1657,-0.370,0.025
1658,0.100,-0.140
1659,-0.570,0.015
1660,0.255,-0.155
1661,-0.680,0.005
1662,0.345,-0.130
1663,-0.780,-0.025
1664,0.390,-0.130
1665,-0.755,-0.075
1666,0.335,-0.125
1667,-0.745,-0.090
1668,0.240,-0.110
1669,-0.610,-0.125
1670,0.135,-0.110
1671,-0.410,-0.160
1672,-0.080,-0.090
1673,-0.305,-0.185
1674,-0.270,-0.055
1675,-0.060,-0.220
1676,-0.435,-0.070
1677,0.035,-0.210
1678,-0.620,-0.055
1679,0.140,-0.210
1680,-0.615,-0.055
1681,0.225,-0.235
1682,-0.740,-0.085
1683,0.370,-0.185
1684,-0.770,0.010
1685,0.410,-0.060
1686,-0.690,0.095
1687,0.490,0.060
1688,-0.530,0.000
1689,0.245,-0.075
1690,-0.460,-0.270
1691,-0.015,-0.170
1692,-0.335,-0.265
1693,-0.315,-0.190
1694,-0.355,-0.290
1695,-0.475,-0.160
1696,-0.125,-0.360
1697,-0.640,-0.200
1698,0.020,-0.350
1699,-0.775,-0.210
1700,0.135,-0.350
1701,-0.825,-0.205
1702,0.030,-0.165
1703,-0.795,0.310
1704,0.745,0.250
1705,0.480,0.635
1706,1.765,-0.475
1707,-0.100,-1.345
1708,-0.475,-1.860
1709,-1.000,-2.580
1710,-0.535,-1.985
1711,-0.190,-1.190
1712,-0.480,-0.305
1713,-0.040,-0.255
1714,-0.685,-0.045
1715,0.010,-0.190
1716,-0.710,-0.010
1717,0.095,-0.115
1718,-0.715,0.020
1719,0.140,-0.060
1720,-0.740,0.035
1721,0.160,-0.015
1722,-0.740,0.075
1723,0.135,0.060
1724,-0.600,0.055
1725,0.005,0.185
1726,-0.340,0.075
1727,-0.160,0.310
1728,-0.055,0.150
1729,-0.285,0.445
1730,0.160,0.295
1731,-0.360,0.605
1732,0.290,0.460
1733,-0.295,0.730
1734,0.405,0.615
1735,-0.335,0.800
1736,0.455,0.700
1737,-0.425,0.820
1738,0.410,0.640
1739,-0.555,0.710
1740,0.320,0.495
1741,-0.630,0.405
1742,0.050,0.335
1743,-0.485,0.180
1744,-0.055,0.155
1745,-0.450,0.020
1746,-0.190,0.095
1747,-0.315,-0.065
1748,-0.275,0.055
1749,-0.215,-0.090
1750,-0.335,0.065
1751,-0.170,-0.115
1752,-0.475,0.045
1753,-0.040,-0.140
1754,-0.580,0.010
1755,0.125,-0.160
1756,-0.695,0.015
1757,0.215,-0.115
1758,-0.685,0.000
1759,0.205,-0.110
1760,-0.650,-0.045
1761,0.160,-0.065
1762,-0.595,-0.065
1763,0.115,-0.040
1764,-0.495,-0.075
1765,0.025,-0.035
1766,-0.475,-0.100
1767,-0.055,-0.030
1768,-0.415,-0.095
1769,-0.145,-0.010
1770,-0.195,-0.125
1771,-0.315,0.005
1772,-0.115,-0.155
1773,-0.520,0.000
1774,0.045,-0.175
1775,-0.650,0.000
1776,0.135,-0.190
1777,-0.705,-0.020
1778,0.215,-0.145
1779,-0.670,-0.010
1780,0.265,-0.080
1781,-0.600,0.050
1782,0.295,0.055
1783,-0.510,0.145
1784,0.380,0.150
1785,-0.380,0.050
1786,0.200,0.020
1787,-0.450,-0.160
1788,0.020,-0.160
1789,-0.360,-0.230
1790,-0.265,-0.145
1791,-0.270,-0.245
1792,-0.590,-0.105
1793,0.030,-0.330
1794,-0.685,-0.150
1795,0.165,-0.320
1796,-0.805,-0.150
1797,0.160,-0.315
1798,-0.780,-0.150
1799,0.055,-0.180
1800,-0.695,0.275
1801,0.625,0.290
1802,0.515,0.370
1803,1.645,-0.955
1804,-0.040,-1.795
1805,-0.245,-2.460
1806,-1.020,-2.790
1807,-0.255,-1.785
1808,-0.360,-0.865
1809,-0.245,-0.210
1810,-0.230,-0.215
1811,-0.500,0.000
1812,-0.035,-0.190
1813,-0.655,0.060
1814,0.105,-0.145
1815,-0.635,0.090
1816,0.085,-0.040
1817,-0.665,0.130
1818,0.110,-0.015
1819,-0.645,0.155
1820,0.215,0.020
1821,-0.655,0.165
1822,0.265,0.095
1823,-0.630,0.225
1824,0.315,0.205
1825,-0.535,0.325
1826,0.275,0.350
1827,-0.375,0.440
1828,0.275,0.565
1829,-0.165,0.535
1830,0.290,0.670
1831,-0.070,0.635
1832,0.225,0.750
1833,-0.015,0.645
1834,0.085,0.810
1835,0.025,0.525
1836,-0.230,0.670
1837,0.015,0.355
1838,-0.445,0.415
1839,0.065,0.135
1840,-0.615,0.255
1841,0.120,-0.010
1842,-0.750,0.090
1843,0.165,-0.100
1844,-0.715,-0.020
1845,0.195,-0.145
1846,-0.715,-0.085
1847,0.100,-0.155
1848,-0.670,-0.120
1849,0.080,-0.110
1850,-0.565,-0.150
1851,0.025,-0.085
1852,-0.520,-0.145
1853,-0.130,-0.040
1854,-0.335,-0.115
1855,-0.265,0.035
1856,-0.155,-0.160
1857,-0.435,0.025
1858,0.035,-0.145
1859,-0.635,0.015
1860,0.180,-0.165
1861,-0.710,0.010
1862,0.200,-0.150
1863,-0.740,0.000
1864,0.205,-0.105
1865,-0.685,-0.065
1866,0.140,-0.120
1867,-0.695,-0.060
1868,0.120,-0.115
1869,-0.645,-0.080
1870,0.030,-0.105
1871,-0.560,-0.110
1872,-0.015,-0.085
1873,-0.450,-0.145
1874,-0.160,-0.045
1875,-0.230,-0.195
1876,-0.445,-0.005
1877,0.095,-0.185
1878,-0.620,0.085
1879,0.320,-0.030
1880,-0.605,0.185
1881,0.385,0.060
1882,-0.575,0.125
1883,0.275,-0.050
1884,-0.720,-0.060
1885,0.200,-0.215
1886,-0.700,-0.125
1887,0.070,-0.225
1888,-0.830,-0.115
1889,0.060,-0.215
1890,-0.785,-0.180
1891,0.050,-0.220
1892,-0.665,-0.235
1893,-0.115,-0.215
1894,-0.435,-0.280
1895,-0.235,-0.140
1896,-0.365,-0.190
1897,-0.390,0.375
1898,0.300,0.205
1899,0.750,0.735
1900,1.555,-0.760
1901,0.085,-1.340
1902,-0.330,-2.205
1903,-1.190,-2.480
1904,-0.080,-1.940
1905,-0.725,-0.820
1906,0.160,-0.325
1907,-0.805,-0.065
1908,0.125,-0.065
1909,-0.660,-0.025
1910,0.015,0.000
1911,-0.480,-0.010
1912,-0.150,0.040
1913,-0.295,-0.020
1914,-0.310,0.100
1915,-0.095,-0.020
1916,-0.425,0.150
1917,0.050,0.000
1918,-0.575,0.200
1919,0.245,0.020
1920,-0.740,0.275
1921,0.385,0.085
1922,-0.650,0.335
1923,0.490,0.245
1924,-0.555,0.425
1925,0.495,0.375
1926,-0.405,0.475
1927,0.450,0.525
1928,-0.150,0.600
1929,0.310,0.665
1930,0.000,0.575
1931,0.145,0.695
1932,0.025,0.540
1933,-0.135,0.635
1934,0.045,0.395
1935,-0.415,0.435
1936,0.075,0.165
1937,-0.575,0.250
1938,0.095,-0.025
1939,-0.710,0.070
1940,0.240,-0.135
1941,-0.890,-0.035
1942,0.300,-0.205
1943,-0.870,-0.080
1944,0.240,-0.170
1945,-0.790,-0.135
1946,0.160,-0.185
1947,-0.675,-0.160
1948,0.030,-0.180
1949,-0.565,-0.195
1950,-0.065,-0.170
1951,-0.490,-0.185
1952,-0.095,-0.125
1953,-0.330,-0.170
1954,-0.240,-0.110
1955,-0.250,-0.225
1956,-0.455,-0.050
1957,-0.055,-0.200
1958,-0.630,-0.040
1959,0.175,-0.230
1960,-0.815,-0.070
1961,0.285,-0.260
1962,-0.880,-0.080
1963,0.330,-0.240
1964,-0.850,-0.165
1965,0.185,-0.215
1966,-0.705,-0.185
1967,0.120,-0.170
1968,-0.630,-0.215
1969,-0.020,-0.170
1970,-0.510,-0.225
1971,-0.205,-0.145
1972,-0.325,-0.260
1973,-0.345,-0.140
1974,-0.055,-0.305
1975,-0.620,-0.110
1976,0.215,-0.230
1977,-0.675,-0.040
1978,0.330,-0.095
1979,-0.685,0.070
1980,0.405,0.015
1981,-0.610,-0.020
1982,0.305,-0.075
1983,-0.650,-0.245
1984,0.195,-0.280
1985,-0.605,-0.310
1986,-0.155,-0.295
1987,-0.490,-0.355
1988,-0.305,-0.195
1989,-0.255,-0.390
1990,-0.560,-0.240
1991,-0.015,-0.400
1992,-0.765,-0.250
1993,0.105,-0.400
1994,-0.765,-0.235
1995,0.035,-0.290
1996,-0.840,0.120
1997,0.405,0.215
1998,0.290,0.430
1999,1.640,-0.110
2000,0.600,-1.290
2001,-0.175,-1.835
2002,-1.010,-2.495
2003,-0.530,-2.305
2004,-0.240,-1.395
2005,-0.385,-0.440
2006,-0.015,-0.275
2007,-0.665,0.000
2008,0.120,-0.175
2009,-0.725,0.030
2010,0.250,-0.100
2011,-0.710,0.075
2012,0.220,-0.050
2013,-0.685,0.055
2014,0.235,-0.005
2015,-0.575,0.065
2016,0.135,0.055
2017,-0.510,0.070
2018,0.110,0.135
2019,-0.370,0.115
2020,0.095,0.210
2021,-0.250,0.200
2022,0.015,0.345
2023,-0.060,0.290
2024,-0.010,0.500
2025,0.145,0.405
2026,-0.150,0.685
2027,0.425,0.505
2028,-0.320,0.770
2029,0.575,0.605
2030,-0.400,0.805
2031,0.505,0.605
2032,-0.475,0.645
2033,0.415,0.460
2034,-0.550,0.450
2035,0.305,0.235
2036,-0.640,0.215
2037,0.145,0.080
2038,-0.595,0.035
2039,0.130,0.010
2040,-0.485,-0.045
2041,-0.030,-0.030
2042,-0.265,-0.135
2043,-0.240,-0.010
2044,-0.035,-0.195
2045,-0.475,-0.025
2046,0.110,-0.225
2047,-0.630,0.015
2048,0.270,-0.215
2049,-0.680,-0.005
2050,0.275,-0.205
2051,-0.670,0.010
2052,0.240,-0.140
2053,-0.710,0.000
2054,0.325,-0.140
2055,-0.640,-0.040
2056,0.270,-0.135
2057,-0.595,-0.070
2058,0.125,-0.065
2059,-0.435,-0.110
2060,-0.065,-0.055
2061,-0.300,-0.155
2062,-0.235,-0.045
2063,-0.150,-0.205
2064,-0.345,-0.065
2065,-0.045,-0.200
2066,-0.435,-0.040
2067,-0.030,-0.260
2068,-0.465,-0.030
2069,0.070,-0.280
2070,-0.585,-0.085
2071,0.185,-0.270
2072,-0.665,-0.090
2073,0.250,-0.250
2074,-0.630,-0.010
2075,0.340,-0.110
2076,-0.645,0.080
2077,0.380,0.030
2078,-0.490,0.060
2079,0.295,-0.060
2080,-0.565,-0.150
2081,0.160,-0.240
2082,-0.610,-0.215
2083,0.065,-0.265
2084,-0.665,-0.245
2085,0.000,-0.235
2086,-0.645,-0.280
2087,-0.070,-0.265
2088,-0.570,-0.315
2089,-0.100,-0.225
2090,-0.465,-0.345
2091,-0.240,-0.190
2092,-0.340,-0.255
2093,-0.500,0.270
2094,0.240,0.170
2095,0.505,0.625
2096,1.640,-0.645
2097,0.385,-1.495
2098,0.000,-2.400
2099,-1.225,-2.665
2100,-0.085,-2.190
2101,-0.710,-1.005
2102,0.110,-0.400
2103,-0.805,-0.115
2104,0.140,-0.150
2105,-0.770,-0.060
2106,0.180,-0.060
2107,-0.680,0.000
2108,0.115,-0.025
2109,-0.600,0.000
2110,-0.015,0.080
2111,-0.450,0.000
2112,-0.120,0.165
2113,-0.210,0.000
2114,-0.350,0.210
2115,-0.015,0.040
2116,-0.420,0.290
2117,0.090,0.125
2118,-0.390,0.360
2119,0.195,0.260
2120,-0.350,0.490
2121,0.360,0.415
2122,-0.360,0.615
2123,0.480,0.575
2124,-0.370,0.765
2125,0.540,0.650
2126,-0.390,0.785
2127,0.510,0.700
2128,-0.430,0.690
2129,0.355,0.590
2130,-0.565,0.525
2131,0.250,0.405
2132,-0.660,0.315
2133,0.195,0.240
2134,-0.660,0.125
2135,0.100,0.110
2136,-0.575,0.030
2137,-0.015,0.030
2138,-0.525,-0.035
2139,-0.065,-0.005
2140,-0.380,-0.085
2141,-0.155,0.005
2142,-0.185,-0.125
2143,-0.310,0.030
2144,-0.100,-0.120
2145,-0.405,0.030
2146,-0.035,-0.070
2147,-0.475,0.095
2148,0.035,-0.060
2149,-0.545,0.090
2150,0.105,-0.035
2151,-0.625,0.105
2152,0.210,-0.085
2153,-0.735,0.090
2154,0.345,-0.070
2155,-0.860,0.045
2156,0.345,-0.075
2157,-0.815,0.000
2158,0.250,-0.050
2159,-0.710,-0.035
2160,0.075,-0.030
2161,-0.525,-0.050
2162,-0.045,-0.010
2163,-0.370,-0.090
2164,-0.250,0.000
2165,-0.260,-0.090
2166,-0.305,0.000
2167,-0.145,-0.140
2168,-0.440,0.000
2169,-0.045,-0.145
2170,-0.605,0.030
2171,0.135,-0.120
2172,-0.685,0.060
2173,0.295,-0.090
2174,-0.760,0.135
2175,0.425,0.060
2176,-0.735,0.230
2177,0.510,0.140
2178,-0.590,0.105
2179,0.185,0.010
2180,-0.540,-0.160
2181,0.000,-0.090
2182,-0.430,-0.160
2183,-0.240,-0.065
2184,-0.430,-0.135
2185,-0.350,-0.035
2186,-0.295,-0.190
2187,-0.415,-0.070
2188,-0.225,-0.190
2189,-0.540,-0.070
2190,-0.115,-0.180
2191,-0.670,-0.015
2192,0.000,-0.085
2193,-0.770,0.485
2194,0.705,0.360
2195,0.320,0.690
2196,1.910,-0.840
2197,-0.185,-1.540
2198,-0.060,-2.280
2199,-1.265,-2.620
2200,-0.040,-1.710
2201,-0.725,-0.670
2202,0.070,-0.145
2203,-0.760,-0.020
2204,-0.040,0.045
2205,-0.680,0.025
2206,-0.120,0.115
2207,-0.475,0.045
2208,-0.285,0.185
2209,-0.330,0.070
2210,-0.450,0.240
2211,-0.125,0.100
2212,-0.570,0.275
2213,0.060,0.120
2214,-0.635,0.330
2215,0.170,0.200
2216,-0.630,0.415
2217,0.265,0.285
2218,-0.705,0.535
2219,0.385,0.385
2220,-0.680,0.645
2221,0.485,0.560
2222,-0.560,0.775
2223,0.485,0.740
2224,-0.475,0.885
2225,0.400,0.875
2226,-0.315,0.860
2227,0.215,0.875
2228,-0.245,0.775
2229,-0.080,0.830
2230,-0.210,0.630
2231,-0.345,0.660
2232,-0.160,0.385
2233,-0.560,0.435
2234,-0.115,0.185
2235,-0.715,0.305
2236,0.075,0.070
2237,-0.835,0.220
2238,0.190,0.045
2239,-0.950,0.155
2240,0.225,0.020
2241,-0.955,0.125
2242,0.150,0.080
2243,-0.760,0.070
2244,-0.020,0.095
2245,-0.585,0.070
2246,-0.205,0.155
2247,-0.415,0.070
2248,-0.305,0.170
2249,-0.290,0.070
2250,-0.440,0.205
2251,-0.125,0.070
2252,-0.520,0.220
2253,-0.015,0.065
2254,-0.700,0.225
2255,0.100,0.080
2256,-0.825,0.235
2257,0.180,0.095
2258,-0.865,0.190
2259,0.200,0.065
2260,-0.890,0.175
2261,0.165,0.115
2262,-0.765,0.110
2263,-0.015,0.160
2264,-0.545,0.065
2265,-0.215,0.160
2266,-0.445,0.070
2267,-0.280,0.195
2268,-0.320,0.085
2269,-0.445,0.215
2270,-0.215,0.070
2271,-0.570,0.240
2272,-0.080,0.070
2273,-0.630,0.235
2274,0.115,0.100
2275,-0.720,0.305
2276,0.245,0.270
2277,-0.755,0.470
2278,0.340,0.390
2279,-0.655,0.330
2280,0.150,0.250
2281,-0.675,0.040
2282,0.045,0.130
2283,-0.620,0.055
2284,-0.195,0.110
2285,-0.625,0.050
2286,-0.385,0.150
2287,-0.455,-0.015
2288,-0.535,0.120
2289,-0.200,-0.035
2290,-0.785,0.160
2291,-0.035,-0.025
2292,-0.930,0.155
2293,-0.005,0.060
2294,-0.975,0.400
2295,0.130,0.620
2296,0.060,0.790
2297,1.305,0.305
2298,0.895,-1.000
2299,-0.090,-1.615
2300,-0.870,-2.325
2301,-0.955,-2.215
2302,-0.240,-1.275
2303,-0.760,-0.205
2304,0.045,0.005
2305,-1.080,0.315
2306,0.110,0.165
2307,-1.060,0.345
2308,0.020,0.270
2309,-0.875,0.285
2310,-0.160,0.315
2311,-0.645,0.315
2312,-0.385,0.395
2313,-0.450,0.295
2314,-0.555,0.470
2315,-0.270,0.330
2316,-0.660,0.525
2317,-0.135,0.400
2318,-0.720,0.625
2319,-0.015,0.520
2320,-0.815,0.730
2321,0.150,0.635
2322,-0.835,0.850
2323,0.270,0.795
2324,-0.835,0.990
2325,0.345,0.940
2326,-0.730,1.065
2327,0.245,1.075
2328,-0.590,1.105
2329,0.010,1.130
2330,-0.500,1.030
2331,-0.215,1.055
2332,-0.480,0.845
2333,-0.470,0.880
2334,-0.490,0.650
2335,-0.700,0.660
2336,-0.385,0.445
2337,-0.860,0.530
2338,-0.295,0.300
2339,-0.955,0.415
2340,-0.200,0.210
2341,-1.075,0.375
2342,-0.105,0.195
2343,-1.170,0.360
2344,-0.090,0.215
2345,-1.160,0.340
2346,-0.085,0.230
2347,-1.065,0.305
2348,-0.220,0.295
2349,-0.950,0.280
2350,-0.405,0.370
2351,-0.825,0.290
2352,-0.520,0.415
2353,-0.715,0.270
2354,-0.650,0.395
2355,-0.560,0.255
2356,-0.840,0.400
2357,-0.400,0.235
2358,-1.080,0.390
2359,-0.285,0.235
2360,-1.175,0.390
2361,-0.205,0.215
2362,-1.190,0.330
2363,-0.255,0.245
2364,-1.190,0.300
2365,-0.385,0.290
2366,-1.105,0.245
2367,-0.415,0.300
2368,-1.080,0.230
2369,-0.510,0.355
2370,-0.940,0.240
2371,-0.660,0.365
2372,-0.745,0.230
2373,-0.845,0.370
2374,-0.560,0.240
2375,-1.050,0.435
2376,-0.340,0.255
2377,-1.090,0.445
2378,-0.220,0.370
2379,-1.130,0.595
2380,-0.175,0.555
2381,-0.980,0.615
2382,-0.205,0.440
2383,-1.120,0.350
2384,-0.300,0.185
2385,-1.200,0.265
2386,-0.350,0.250
2387,-1.230,0.240
2388,-0.480,0.270
2389,-1.265,0.190
2390,-0.565,0.265
2391,-0.990,0.160
2392,-0.790,0.290
2393,-0.790,0.155
2394,-1.000,0.305
2395,-0.680,0.180
2396,-1.210,0.560
2397,-0.345,0.715
2398,-0.400,0.990
2399,0.935,0.510
2400,0.280,-0.610
2401,-0.080,-1.515
2402,-1.795,-2.085
2403,-0.665,-2.055
2404,-1.420,-0.975
2405,-0.320,-0.120
2406,-1.360,0.315
2407,-0.330,0.315
2408,-1.280,0.415
2409,-0.455,0.450
2410,-1.215,0.445
2411,-0.540,0.535
2412,-1.000,0.455
2413,-0.720,0.575
2414,-0.820,0.450
2415,-0.895,0.620
2416,-0.640,0.475
2417,-0.950,0.680
2418,-0.485,0.535
2419,-0.975,0.760
2420,-0.410,0.640
2421,-1.020,0.830
2422,-0.250,0.745
2423,-1.050,0.945
2424,-0.155,0.885
2425,-1.035,1.090
2426,-0.020,1.060
2427,-0.900,1.165
2428,0.025,1.165
2429,-0.805,1.225
2430,-0.140,1.260
2431,-0.760,1.190
2432,-0.360,1.225
2433,-0.680,1.015
2434,-0.565,1.050
2435,-0.700,0.795
2436,-0.770,0.810
2437,-0.595,0.575
2438,-0.955,0.655
2439,-0.560,0.405
2440,-1.050,0.505
2441,-0.360,0.325
2442,-1.140,0.455
2443,-0.270,0.290
2444,-1.220,0.425
2445,-0.290,0.295
2446,-1.145,0.370
2447,-0.275,0.320
2448,-1.105,0.320
2449,-0.315,0.330
2450,-1.050,0.350
2451,-0.350,0.355
2452,-1.050,0.335
2453,-0.335,0.330
2454,-1.015,0.305
2455,-0.440,0.375
2456,-0.895,0.295
2457,-0.620,0.375
2458,-0.640,0.260
2459,-0.870,0.415
2460,-0.525,0.235
2461,-1.015,0.370
2462,-0.375,0.205
2463,-1.045,0.370
2464,-0.300,0.210
2465,-1.115,0.350
2466,-0.315,0.225
2467,-1.105,0.355
2468,-0.275,0.225
2469,-1.165,0.325
2470,-0.215,0.220
2471,-1.230,0.340
2472,-0.125,0.215
2473,-1.260,0.295
2474,-0.180,0.230
2475,-1.235,0.285
2476,-0.310,0.270
2477,-0.955,0.265
2478,-0.400,0.340
2479,-0.720,0.300
2480,-0.570,0.515
2481,-0.525,0.465
2482,-0.590,0.605
2483,-0.390,0.360
2484,-0.745,0.410
2485,-0.380,0.080
2486,-0.925,0.275
2487,-0.335,0.115
2488,-1.110,0.250
2489,-0.375,0.135
2490,-1.240,0.240
2491,-0.260,0.065
2492,-1.275,0.190
2493,-0.180,0.075
2494,-1.260,0.180
2495,-0.220,0.130
2496,-1.180,0.165
2497,-0.435,0.285
2498,-1.025,0.580
2499,-0.110,0.770
2500,0.360,0.905
2501,1.020,-0.185
2502,0.215,-1.210
2503,-0.935,-1.805
2504,-0.965,-2.325
2505,-1.125,-1.595
2506,-0.380,-0.655
2507,-0.995,0.160
2508,-0.270,0.160
2509,-1.120,0.415
2510,-0.215,0.285
2511,-1.145,0.440
2512,-0.155,0.360
2513,-1.110,0.450
2514,-0.185,0.445
2515,-1.005,0.485
2516,-0.205,0.565
2517,-0.980,0.525
2518,-0.230,0.575
2519,-0.915,0.580
2520,-0.220,0.635
2521,-0.770,0.635
2522,-0.200,0.740
2523,-0.620,0.755
2524,-0.285,0.885
2525,-0.380,0.895
2526,-0.400,1.070
2527,-0.105,0.975
2528,-0.490,1.185
2529,0.115,1.100
2530,-0.520,1.290
2531,0.185,1.155
2532,-0.635,1.335
2533,0.190,1.135
2534,-0.770,1.195
2535,0.140,0.975
2536,-0.915,1.005
2537,0.125,0.740
2538,-1.030,0.785
2539,0.115,0.540
2540,-1.070,0.635
2541,-0.005,0.480
2542,-0.875,0.430
2543,-0.165,0.460
2544,-0.705,0.390
2545,-0.345,0.430
2546,-0.550,0.345
2547,-0.495,0.450
2548,-0.405,0.315
2549,-0.535,0.450
2550,-0.270,0.315
2551,-0.665,0.485
2552,-0.175,0.320
2553,-0.760,0.500
2554,-0.055,0.305
2555,-0.870,0.510
2556,0.055,0.325
2557,-0.970,0.470
2558,0.150,0.330
2559,-1.005,0.480
2560,0.145,0.345
2561,-0.925,0.425
2562,-0.060,0.410
2563,-0.755,0.385
2564,-0.210,0.470
2565,-0.535,0.350
2566,-0.345,0.450
2567,-0.435,0.325
2568,-0.485,0.455
2569,-0.255,0.315
2570,-0.605,0.460
2571,-0.100,0.280
2572,-0.745,0.430
2573,0.005,0.275
2574,-0.800,0.415
2575,0.095,0.275
2576,-0.860,0.410
2577,0.115,0.280
2578,-0.865,0.365
2579,0.140,0.320
2580,-0.690,0.350
2581,0.125,0.475
2582,-0.605,0.495
2583,0.070,0.620
2584,-0.345,0.495
2585,-0.080,0.480
2586,-0.330,0.220
2587,-0.225,0.240
2588,-0.330,0.135
2589,-0.430,0.245
2590,-0.240,0.125
2591,-0.690,0.270
2592,-0.090,0.075
2593,-0.815,0.215
2594,0.045,0.050
2595,-0.830,0.150
2596,0.100,0.060
2597,-0.865,0.180
2598,0.065,0.095
2599,-0.950,0.365
2600,0.200,0.660
2601,0.015,0.700
2602,1.400,0.590
2603,0.915,-0.830
2604,0.200,-1.480
2605,-0.855,-2.170
2606,-0.695,-2.140
2607,-0.240,-1.325
2608,-0.580,-0.270
2609,0.020,0.060
2610,-0.735,0.315
2611,0.120,0.210
2612,-0.770,0.360
2613,0.110,0.275
2614,-0.735,0.415
2615,0.125,0.350
2616,-0.605,0.360
2617,0.100,0.360
2618,-0.595,0.395
2619,0.080,0.405
2620,-0.500,0.440
2621,0.065,0.475
2622,-0.375,0.445
2623,-0.055,0.595
2624,-0.105,0.495
2625,-0.230,0.700
2626,0.205,0.550
2627,-0.340,0.820
2628,0.390,0.730
2629,-0.375,0.975
2630,0.535,0.825
2631,-0.305,1.010
2632,0.565,0.935
2633,-0.315,1.065
2634,0.500,0.965
2635,-0.355,1.010
2636,0.415,0.850
2637,-0.440,0.810
2638,0.280,0.670
2639,-0.495,0.525
2640,0.195,0.440
2641,-0.475,0.305
2642,0.045,0.275
2643,-0.365,0.150
2644,-0.075,0.235
2645,-0.190,0.070
2646,-0.140,0.185
2647,-0.115,0.075
2648,-0.205,0.160
2649,-0.030,0.025
2650,-0.290,0.195
2651,0.090,0.010
2652,-0.355,0.200
2653,0.145,0.055
2654,-0.390,0.195
2655,0.225,0.050
2656,-0.475,0.200
2657,0.315,0.065
2658,-0.560,0.175
2659,0.355,0.080
2660,-0.540,0.170
2661,0.375,0.080
2662,-0.560,0.160
2663,0.365,0.085
2664,-0.515,0.120
2665,0.290,0.080
2666,-0.430,0.030
2667,0.305,0.060
2668,-0.455,0.015
2669,0.215,0.055
2670,-0.385,0.030
2671,0.140,0.045
2672,-0.245,-0.015
2673,0.015,0.070
2674,-0.090,-0.050
2675,-0.165,0.060
2676,0.090,-0.070
2677,-0.335,0.050
2678,0.255,-0.095
2679,-0.395,0.070
2680,0.455,-0.050
2681,-0.360,0.175
2682,0.510,0.110
2683,-0.375,0.295
2684,0.605,0.105
2685,-0.430,0.120
2686,0.575,-0.135
2687,-0.580,-0.115
2688,0.580,-0.165
2689,-0.615,-0.160
2690,0.350,-0.170
2691,-0.515,-0.180
2692,0.145,-0.180
2693,-0.290,-0.265
2694,-0.075,-0.150
2695,-0.065,-0.295
2696,-0.195,-0.160
2697,0.090,-0.295
2698,-0.350,-0.100
2699,0.060,0.075
2700,-0.085,0.390
2701,1.165,0.465
2702,1.210,-0.190
2703,1.450,-1.440
2704,-0.450,-2.010
2705,-0.045,-2.540
2706,-0.805,-2.150
2707,0.505,-1.215
2708,-0.645,-0.315
2709,0.455,-0.190
2710,-0.615,-0.025
2711,0.375,-0.035
2712,-0.480,-0.040
2713,0.310,-0.005
2714,-0.315,-0.005
2715,0.220,0.045
2716,-0.285,-0.010
2717,0.170,0.045
2718,-0.195,0.020
2719,0.145,0.085
2720,-0.130,0.055
2721,0.075,0.145
2722,0.025,0.075
2723,0.040,0.265
2724,0.175,0.170
2725,-0.030,0.395
2726,0.390,0.290
2727,-0.095,0.550
2728,0.600,0.435
2729,-0.185,0.705
2730,0.780,0.515
2731,-0.175,0.740
2732,0.805,0.570
2733,-0.215,0.765
2734,0.720,0.565
2735,-0.305,0.665
2736,0.580,0.425
2737,-0.405,0.435
2738,0.485,0.205
2739,-0.445,0.155
2740,0.420,0.010
2741,-0.435,0.030
2742,0.275,-0.060
2743,-0.275,-0.080
2744,0.170,-0.060
2745,-0.105,-0.200
2746,0.000,-0.075
2747,0.090,-0.210
2748,-0.145,-0.055
2749,0.220,-0.215
2750,-0.230,-0.015
2751,0.310,-0.220
2752,-0.330,-0.005
2753,0.405,-0.205
2754,-0.390,-0.025
2755,0.470,-0.220
2756,-0.490,-0.025
2757,0.500,-0.195
2758,-0.485,-0.060
2759,0.470,-0.160
2760,-0.385,-0.125
2761,0.330,-0.140
2762,-0.210,-0.170
2763,0.165,-0.120
2764,-0.085,-0.205
2765,0.050,-0.085
2766,-0.010,-0.220
2767,0.010,-0.115
2768,0.030,-0.230
2769,-0.040,-0.100
2770,0.130,-0.260
2771,-0.240,-0.070
2772,0.250,-0.265
2773,-0.370,-0.035
2774,0.440,-0.305
2775,-0.465,-0.045
2776,0.495,-0.250
2777,-0.485,-0.045
2778,0.565,-0.150
2779,-0.345,0.015
2780,0.555,0.000
2781,-0.275,0.150
2782,0.610,0.055
2783,-0.185,0.020
2784,0.505,-0.130
2785,-0.320,-0.180
2786,0.390,-0.210
2787,-0.335,-0.215
2788,0.300,-0.185
2789,-0.375,-0.220
2790,0.200,-0.225
2791,-0.315,-0.255
2792,0.045,-0.175
2793,-0.070,-0.280
2794,-0.050,-0.110
2795,0.080,-0.300
2796,-0.245,-0.100
2797,0.110,0.035
2798,-0.080,0.415
2799,1.120,0.455
2800,1.195,0.065
2801,1.590,-1.285
2802,-0.280,-1.860
2803,-0.055,-2.475
2804,-0.695,-2.290
2805,0.370,-1.320
2806,-0.475,-0.405
2807,0.360,-0.140
2808,-0.370,-0.025
2809,0.300,-0.015
2810,-0.255,-0.035
2811,0.120,0.045
2812,-0.070,-0.020
2813,0.000,0.095
2814,0.115,-0.010
2815,-0.185,0.190
2816,0.235,0.020
2817,-0.225,0.235
2818,0.340,0.055
2819,-0.245,0.245
2820,0.420,0.135
2821,-0.285,0.310
2822,0.520,0.185
2823,-0.270,0.420
2824,0.670,0.300
2825,-0.255,0.500
2826,0.665,0.500
2827,-0.105,0.615
2828,0.630,0.635
2829,0.095,0.650
2830,0.500,0.740
2831,0.175,0.690
2832,0.335,0.800
2833,0.255,0.650
2834,0.175,0.670
2835,0.220,0.440
2836,-0.120,0.475
2837,0.180,0.155
2838,-0.230,0.300
2839,0.300,0.010
2840,-0.375,0.155
2841,0.385,-0.035
2842,-0.520,0.090
2843,0.475,-0.125
2844,-0.505,0.020
2845,0.405,-0.090
2846,-0.450,-0.015
2847,0.360,-0.065
2848,-0.380,-0.035
2849,0.340,-0.075
2850,-0.310,-0.030
2851,0.350,-0.020
2852,-0.285,0.040
2853,0.260,0.485
2854,-0.270,0.740
2855,-0.055,-0.140
2856,-0.655,-2.510
2857,-0.650,-3.590
2858,0.010,-4.430
2859,-0.215,-4.640
2860,0.580,-4.470
2861,-0.405,-3.280
2862,0.125,-2.765
2863,-0.990,-2.165
2864,0.035,-1.815
2865,-0.750,-1.130
2866,0.310,-0.815
2867,-0.450,-0.180
2868,0.460,0.090
2869,-0.315,0.375
2870,0.430,0.490
2871,-0.195,0.585
2872,0.235,0.695
2873,-0.030,0.670
2874,0.100,0.860
2875,0.315,0.780
2876,-0.070,1.105
2877,0.610,1.130
2878,-0.130,1.480
2879,0.940,1.480
2880,-0.115,1.715
2881,1.005,1.660
2882,-0.080,1.880
2883,1.035,1.920
2884,0.005,2.215
2885,0.930,2.240
2886,0.005,2.470
2887,0.650,2.410
2888,0.020,2.305
2889,0.440,2.110
2890,0.130,1.815
2891,0.035,1.660
2892,0.315,1.280
2893,-0.245,1.175
2894,0.335,0.780
2895,-0.495,0.700
2896,0.350,0.375
2897,-0.670,0.415
2898,0.395,0.170
2899,-0.685,0.200
2900,0.345,0.065
2901,-0.660,0.050
2902,0.265,-0.010
2903,-0.550,0.000
2904,0.090,-0.015
2905,-0.370,-0.060
2906,-0.075,-0.020
2907,-0.110,-0.125
2908,-0.315,0.000
2909,0.045,-0.190
2910,-0.475,-0.010
2911,0.140,-0.185
2912,-0.620,-0.045
2913,0.245,-0.180
2914,-0.615,-0.060
2915,0.255,-0.185
2916,-0.615,-0.095
2917,0.260,-0.185
2918,-0.655,-0.120
2919,0.260,-0.185
2920,-0.690,-0.110
2921,0.300,-0.165
2922,-0.640,-0.120
2923,0.265,-0.150
2924,-0.545,-0.145
2925,0.080,-0.110
2926,-0.295,-0.185
2927,-0.150,-0.120
2928,-0.120,-0.215
2929,-0.295,-0.065
2930,0.005,-0.220
2931,-0.395,-0.050
2932,0.115,-0.205
2933,-0.485,-0.045
2934,0.175,-0.220
2935,-0.570,-0.075
2936,0.250,-0.230
2937,-0.645,-0.095
2938,0.305,-0.195
2939,-0.700,-0.080
2940,0.290,-0.205
2941,-0.675,-0.120
2942,0.265,-0.155
2943,-0.480,-0.150
2944,0.100,-0.120
2945,-0.365,-0.160
2946,-0.120,-0.085
2947,-0.260,-0.205
2948,-0.185,-0.090
2949,-0.105,-0.210
2950,-0.305,-0.100
2951,0.010,-0.205
2952,-0.410,-0.070
2953,0.115,-0.225
2954,-0.580,-0.075
2955,0.165,-0.235
2956,-0.660,-0.045
2957,0.280,-0.210
2958,-0.615,-0.090
2959,0.260,-0.175
2960,-0.630,-0.090
2961,0.185,-0.155
2962,-0.565,-0.125
2963,0.135,-0.140
2964,-0.500,-0.190
2965,0.030,-0.110
2966,-0.475,-0.135
2967,0.005,-0.135
2968,-0.370,-0.210
2969,-0.140,-0.085
2970,-0.255,-0.205
2971,-0.240,-0.055
2972,-0.025,-0.195
2973,-0.280,-0.040
2974,0.045,-0.080
2975,-0.430,0.100
2976,0.235,0.000
2977,-0.380,0.100
2978,0.345,-0.085
2979,-0.550,-0.045
2980,0.270,-0.225
2981,-0.685,-0.080
2982,0.195,-0.245
2983,-0.840,-0.105
2984,0.130,-0.260
2985,-0.860,-0.160
2986,0.210,-0.295
2987,-0.860,-0.170
2988,0.210,-0.305
2989,-0.835,-0.155
2990,0.110,-0.230
2991,-0.875,0.105
2992,0.285,0.270
2993,0.330,0.450
2994,1.520,0.280
2995,0.775,-0.875
2996,-0.160,-1.420
2997,-0.835,-2.135
2998,-0.635,-2.145
2999,-0.325,-1.395
3000,-0.390,-0.505
3001,-0.215,-0.225
3002,-0.520,-0.060
3003,-0.065,-0.165
3004,-0.615,0.005
3005,0.075,-0.170
3006,-0.810,0.065
3007,0.260,-0.130
3008,-0.900,0.085
3009,0.285,-0.055
3010,-0.870,0.090
3011,0.165,0.040
3012,-0.730,0.110
3013,0.115,0.105
3014,-0.535,0.125
3015,0.005,0.215
3016,-0.420,0.205
3017,-0.020,0.305
3018,-0.360,0.290
3019,-0.085,0.440
3020,-0.200,0.425
3021,-0.095,0.600
3022,-0.025,0.565
3023,-0.185,0.755
3024,0.145,0.630
3025,-0.315,0.835
3026,0.355,0.680
3027,-0.390,0.850
3028,0.480,0.635
3029,-0.485,0.770
3030,0.440,0.485
3031,-0.605,0.600
3032,0.320,0.320
3033,-0.680,0.400
3034,0.185,0.185
3035,-0.725,0.275
3036,0.200,0.080
3037,-0.685,0.150
3038,0.150,0.015
3039,-0.735,0.095
3040,0.090,-0.035
3041,-0.690,0.030
3042,0.055,-0.015
3043,-0.575,0.020
3044,0.000,0.025
3045,-0.535,0.015
3046,-0.040,0.050
3047,-0.445,0.015
3048,-0.045,0.070
3049,-0.440,-0.005
3050,-0.105,0.090
3051,-0.395,-0.010
3052,-0.080,0.100
3053,-0.360,0.000
3054,-0.255,0.105
3055,-0.300,-0.035
3056,-0.305,0.085
3057,-0.175,-0.090
3058,-0.490,0.055
3059,-0.020,-0.085
3060,-0.650,0.050
3061,0.075,-0.100
3062,-0.730,0.030
3063,0.140,-0.100
3064,-0.755,0.000
3065,0.155,-0.075
3066,-0.765,0.015
3067,0.150,-0.090
3068,-0.790,0.050
3069,0.255,-0.010
3070,-0.710,0.100
3071,0.310,0.130
3072,-0.640,0.240
3073,0.310,0.255
3074,-0.400,0.155
3075,-0.035,0.150
3076,-0.290,-0.070
3077,-0.330,-0.020
3078,-0.160,-0.135
3079,-0.570,-0.010
3080,-0.170,-0.125
3081,-0.660,-0.025
3082,-0.110,-0.170
3083,-0.665,-0.060
3084,-0.100,-0.185
3085,-0.725,-0.040
3086,0.000,-0.210
3087,-0.790,-0.005
3088,-0.025,0.095
3089,-0.725,0.500
3090,0.920,0.405
3091,0.560,0.410
3092,1.635,-1.025
3093,-0.720,-1.520
3094,-0.345,-2.105
3095,-1.210,-2.385
3096,0.000,-1.360
3097,-0.710,-0.435
3098,-0.045,-0.060
3099,-0.735,0.000
3100,-0.090,0.060
3101,-0.620,0.040
3102,-0.130,0.115
3103,-0.470,0.050
3104,-0.280,0.160
3105,-0.360,0.090
3106,-0.435,0.205
3107,-0.185,0.070
3108,-0.535,0.270
3109,0.015,0.120
3110,-0.665,0.340
3111,0.175,0.185
3112,-0.765,0.435
3113,0.285,0.295
3114,-0.805,0.555
3115,0.370,0.425
3116,-0.725,0.670
3117,0.390,0.630
3118,-0.635,0.815
3119,0.385,0.725
3120,-0.535,0.895
3121,0.335,0.785
3122,-0.465,0.875
3123,0.235,0.800
3124,-0.415,0.775
3125,0.000,0.695
3126,-0.345,0.540
3127,-0.280,0.510
3128,-0.235,0.285
3129,-0.450,0.320
3130,-0.135,0.100
3131,-0.640,0.220
3132,-0.020,0.025
3133,-0.770,0.165
3134,0.100,-0.025
3135,-0.880,0.160
3136,0.200,-0.090
3137,-0.900,0.120
3138,0.200,-0.035
3139,-0.890,0.130
3140,0.180,-0.030
3141,-0.820,0.075
3142,0.050,0.020
3143,-0.620,0.020
3144,-0.115,0.030
3145,-0.465,-0.015
3146,-0.295,0.045
3147,-0.335,-0.040
3148,-0.435,0.065
3149,-0.220,-0.040
3150,-0.515,0.080
3151,-0.135,-0.070
3152,-0.625,0.075
3153,-0.035,-0.090
3154,-0.735,0.100
3155,0.160,-0.100
3156,-0.965,0.080
3157,0.260,-0.100
3158,-0.990,0.065
3159,0.215,-0.070
3160,-0.825,0.035
3161,0.055,0.000
3162,-0.690,-0.005
3163,-0.090,0.030
3164,-0.495,0.045
3165,-0.060,0.170
3166,-0.385,0.185
3167,-0.120,0.335
3168,-0.185,0.200
3169,-0.240,0.255
3170,-0.110,0.035
3171,-0.525,0.040
3172,0.000,-0.125
3173,-0.740,0.060
3174,0.095,-0.115
3175,-0.935,0.055
3176,0.080,-0.140
3177,-1.025,0.000
3178,0.115,-0.120
3179,-0.985,-0.020
3180,0.155,-0.110
3181,-0.890,-0.020
3182,-0.010,-0.060
3183,-0.915,0.220
3184,0.080,0.470
3185,0.085,0.560
3186,1.220,0.305
3187,0.915,-1.000
3188,-0.105,-1.635
3189,-0.715,-2.375
3190,-1.050,-2.350
3191,-0.150,-1.490
3192,-0.780,-0.440
3193,0.005,-0.135
3194,-0.845,0.105
3195,0.095,0.000
3196,-0.915,0.130
3197,0.085,0.095
3198,-0.850,0.125
3199,-0.005,0.130
3200,-0.645,0.130
3201,-0.160,0.225
3202,-0.400,0.125
3203,-0.410,0.290
3204,-0.145,0.185
3205,-0.575,0.370
3206,0.070,0.220
3207,-0.710,0.440
3208,0.155,0.315
3209,-0.720,0.510
3210,0.255,0.460
3211,-0.575,0.625
3212,0.245,0.635
3213,-0.455,0.715
3214,0.130,0.780
3215,-0.255,0.790
3216,0.105,0.870
3217,-0.165,0.810
3218,0.030,0.895
3219,-0.085,0.765
3220,-0.180,0.820
3221,-0.070,0.585
3222,-0.400,0.640
3223,-0.110,0.365
3224,-0.600,0.445
3225,0.065,0.130
3226,-0.770,0.240
3227,0.070,0.025
3228,-0.830,0.120
3229,0.060,-0.035
3230,-0.805,0.065
3231,0.055,-0.060
3232,-0.755,0.010
3233,0.030,-0.065
3234,-0.745,-0.015
3235,-0.020,-0.060
3236,-0.700,-0.035
3237,-0.060,-0.035
3238,-0.675,-0.075
3239,-0.125,0.020
3240,-0.495,-0.065
3241,-0.265,0.020
3242,-0.345,-0.115
3243,-0.530,0.035
3244,-0.225,-0.140
3245,-0.585,0.025
3246,-0.095,-0.155
3247,-0.675,0.005
3248,-0.045,-0.170
3249,-0.745,0.000
3250,-0.010,-0.170
3251,-0.800,-0.005
3252,0.015,-0.165
3253,-0.885,0.005
3254,0.025,-0.100
3255,-0.840,-0.030
3256,0.030,-0.100
3257,-0.785,-0.055
3258,-0.150,-0.050
3259,-0.625,-0.140
3260,-0.265,-0.030
3261,-0.320,-0.090
3262,-0.390,0.080
3263,-0.115,-0.020
3264,-0.525,0.200
3265,0.065,0.050
3266,-0.585,0.145
3267,0.025,-0.100
3268,-0.785,-0.050
3269,0.055,-0.210
3270,-0.875,-0.060
3271,-0.005,-0.240
3272,-1.025,-0.075
3273,-0.150,-0.220
3274,-0.940,-0.165
3275,-0.210,-0.230
3276,-0.715,-0.235
3277,-0.300,-0.200
3278,-0.535,-0.250
3279,-0.520,-0.145
3280,-0.575,-0.140
3281,-0.620,0.345
3282,0.215,0.225
3283,0.590,0.705
3284,1.435,-0.650
3285,-0.350,-1.210
3286,-0.400,-2.070
3287,-1.440,-2.375
3288,-0.245,-1.785
3289,-0.905,-0.735
3290,0.025,-0.290
3291,-0.955,-0.015
3292,-0.010,-0.090
3293,-0.945,0.005
3294,-0.085,-0.025
3295,-0.840,0.040
3296,-0.165,0.045
3297,-0.705,0.050
3298,-0.205,0.105
3299,-0.535,0.085
3300,-0.285,0.185
3301,-0.490,0.120
3302,-0.300,0.210
3303,-0.355,0.135
3304,-0.365,0.295
3305,-0.180,0.185
3306,-0.455,0.380
3307,0.125,0.290
3308,-0.625,0.555
3309,0.255,0.415
3310,-0.640,0.665
3311,0.400,0.520
3312,-0.565,0.715
3313,0.385,0.615
3314,-0.515,0.780
3315,0.305,0.665
3316,-0.525,0.700
3317,0.160,0.555
3318,-0.590,0.510
3319,0.035,0.370
3320,-0.655,0.275
3321,-0.135,0.195
3322,-0.570,0.100
3323,-0.335,0.120
3324,-0.375,0.000
3325,-0.540,0.070
3326,-0.125,-0.150
3327,-0.790,0.050
3328,0.120,-0.145
3329,-0.845,0.065
3330,0.095,-0.130
3331,-0.930,0.045
3332,0.080,-0.130
3333,-0.865,0.030
3334,0.095,-0.100
3335,-0.820,0.000
3336,0.070,-0.070
3337,-0.770,-0.015
3338,-0.045,-0.050
3339,-0.655,-0.030
3340,-0.160,-0.040
3341,-0.500,-0.080
3342,-0.365,0.000
3343,-0.310,-0.080
3344,-0.555,0.030
3345,-0.200,-0.125
3346,-0.655,0.045
3347,-0.160,-0.145
3348,-0.745,0.025
3349,-0.040,-0.135
3350,-0.840,0.055
3351,-0.025,-0.150
3352,-0.840,0.040
3353,0.000,-0.150
3354,-0.875,0.010
3355,0.045,-0.145
3356,-0.940,-0.020
3357,0.035,-0.110
3358,-0.820,0.010
3359,0.070,-0.025
3360,-0.720,0.100
3361,-0.035,0.125
3362,-0.545,0.195
3363,-0.005,0.095
3364,-0.475,-0.005
3365,-0.180,-0.070
3366,-0.530,-0.165
3367,-0.305,-0.070
3368,-0.575,-0.195
3369,-0.465,-0.090
3370,-0.500,-0.245
3371,-0.645,-0.120
3372,-0.405,-0.280
3373,-0.740,-0.120
3374,-0.210,-0.270
3375,-0.880,-0.105
3376,-0.115,-0.270
3377,-1.095,0.010
3378,-0.035,0.200
3379,-0.510,0.380
3380,1.035,0.595
3381,0.715,-0.170
3382,0.590,-1.180
3383,-1.165,-1.815
3384,-0.700,-2.240
3385,-1.020,-1.980
3386,-0.240,-0.950
3387,-0.740,-0.235
3388,-0.300,-0.055
3389,-0.680,-0.045
3390,-0.440,0.055
3391,-0.515,-0.045
3392,-0.650,0.105
3393,-0.210,-0.045
3394,-0.820,0.170
3395,-0.055,-0.005
3396,-0.935,0.175
3397,-0.020,0.000
3398,-0.910,0.225
3399,0.015,0.075
3400,-0.875,0.235
3401,0.010,0.145
3402,-0.860,0.300
3403,0.005,0.245
3404,-0.720,0.395
3405,0.015,0.435
3406,-0.555,0.485
3407,-0.095,0.605
3408,-0.285,0.590
3409,-0.240,0.710
3410,-0.055,0.645
3411,-0.450,0.790
3412,0.105,0.620
3413,-0.655,0.800
3414,0.140,0.485
3415,-0.770,0.570
3416,-0.020,0.310
3417,-0.885,0.365
3418,-0.065,0.065
3419,-0.915,0.180
3420,-0.045,-0.060
3421,-0.955,0.045
3422,-0.065,-0.095
3423,-0.955,-0.015
3424,-0.110,-0.095
3425,-0.895,-0.045
3426,-0.195,-0.110
3427,-0.815,-0.060
3428,-0.305,-0.070
3429,-0.665,-0.115
3430,-0.335,-0.045
3431,-0.590,-0.085
3432,-0.480,0.010
3433,-0.485,-0.110
3434,-0.545,0.040
3435,-0.305,-0.120
3436,-0.685,0.050
3437,-0.250,-0.120
3438,-0.760,0.045
3439,-0.125,-0.140
3440,-0.925,0.020
3441,-0.060,-0.130
3442,-1.005,-0.010
3443,-0.055,-0.125
3444,-0.920,-0.010
3445,-0.085,-0.120
3446,-0.955,-0.045
3447,-0.235,-0.090
3448,-0.850,-0.075
3449,-0.340,-0.095
3450,-0.705,-0.120
3451,-0.425,-0.065
3452,-0.635,-0.140
3453,-0.550,-0.080
3454,-0.435,-0.175
3455,-0.650,0.010
3456,-0.150,-0.110
3457,-0.860,0.180
3458,0.045,0.040
3459,-0.860,0.245
3460,0.150,-0.005
3461,-0.995,0.085
3462,-0.050,-0.220
3463,-1.005,-0.160
3464,-0.185,-0.220
3465,-0.900,-0.255
3466,-0.415,-0.195
3467,-0.905,-0.230
3468,-0.585,-0.230
3469,-0.715,-0.290
3470,-0.695,-0.230
3471,-0.535,-0.325
3472,-0.875,-0.165
3473,-0.395,-0.310
3474,-1.050,-0.070
3475,-0.270,0.110
3476,-0.910,0.380
3477,0.900,0.505
3478,0.385,-0.400
3479,0.950,-1.565
3480,-1.300,-2.275
3481,-0.705,-2.605
3482,-1.450,-2.245
3483,-0.285,-1.070
3484,-1.050,-0.255
3485,-0.385,-0.115
3486,-0.970,-0.045
3487,-0.495,0.020
3488,-0.850,-0.025
3489,-0.635,0.070
3490,-0.605,-0.015
3491,-0.890,0.115
3492,-0.360,-0.030
3493,-1.050,0.170
3494,-0.235,0.010
3495,-1.125,0.170
3496,-0.115,0.045
3497,-1.215,0.290
3498,-0.005,0.155
3499,-1.240,0.345
3500,-0.025,0.270
3501,-1.055,0.450
3502,-0.085,0.435
3503,-0.850,0.555
3504,-0.165,0.600
3505,-0.590,0.660
3506,-0.370,0.785
3507,-0.285,0.725
3508,-0.545,0.855
3509,-0.095,0.750
3510,-0.720,0.885
3511,-0.045,0.705
3512,-0.970,0.780
3513,-0.090,0.510
3514,-1.130,0.515
3515,-0.165,0.275
3516,-1.175,0.275
3517,-0.200,0.080
3518,-1.190,0.135
3519,-0.225,0.030
3520,-1.215,0.070
3521,-0.355,0.025
3522,-1.055,-0.005
3523,-0.490,0.030
3524,-0.825,-0.025
3525,-0.690,0.060
3526,-0.620,0.000
3527,-0.870,0.125
3528,-0.445,-0.020
3529,-1.030,0.130
3530,-0.385,0.000
3531,-1.125,0.120
3532,-0.290,0.000
3533,-1.155,0.160
3534,-0.255,0.000
3535,-1.240,0.135
3536,-0.245,0.000
3537,-1.165,0.095
3538,-0.220,0.000
3539,-1.185,0.075
3540,-0.230,0.000
3541,-1.245,0.050
3542,-0.365,0.000
3543,-1.005,0.005
3544,-0.520,0.055
3545,-0.865,-0.015
3546,-0.640,0.045
3547,-0.670,-0.045
3548,-0.725,0.065
3549,-0.610,-0.025
3550,-0.880,0.080
3551,-0.565,-0.040
3552,-0.875,0.100
3553,-0.360,-0.005
3554,-0.905,0.195
3555,-0.265,0.115
3556,-1.025,0.320
3557,-0.030,0.140
3558,-1.045,0.240
3559,-0.030,-0.015
3560,-1.185,-0.015
3561,-0.130,-0.095
3562,-1.175,-0.015
3563,-0.225,-0.055
3564,-1.195,-0.065
3565,-0.390,-0.100
3566,-1.150,-0.115
3567,-0.430,-0.115
3568,-1.020,-0.095
3569,-0.480,-0.105
3570,-0.885,-0.105
3571,-0.705,-0.020
3572,-0.855,0.165
3573,-0.585,0.485
3574,0.240,0.480
3575,0.550,0.405
3576,0.970,-0.945
3577,-0.865,-1.465
3578,-0.765,-2.220
3579,-1.605,-2.355
3580,-0.305,-1.420
3581,-1.185,-0.415
3582,-0.100,-0.130
3583,-1.270,0.065
3584,-0.085,-0.070
3585,-1.250,0.105
3586,-0.145,0.010
3587,-1.165,0.100
3588,-0.195,0.060
3589,-1.000,0.120
3590,-0.330,0.120
3591,-0.835,0.130
3592,-0.510,0.160
3593,-0.550,0.120
3594,-0.690,0.265
3595,-0.390,0.160
3596,-0.760,0.320
3597,-0.160,0.230
3598,-0.750,0.400
3599,-0.015,0.310
3600,-0.835,0.560
3601,0.070,0.420
3602,-0.845,0.720
3603,0.260,0.555
3604,-0.805,0.745
3605,0.345,0.600
3606,-0.875,0.790
3607,0.205,0.635
3608,-0.820,0.695
3609,-0.005,0.510
3610,-0.890,0.500
3611,-0.210,0.350
3612,-0.780,0.245
3613,-0.370,0.220
3614,-0.660,0.110
3615,-0.570,0.110
3616,-0.660,0.000
3617,-0.630,0.045
3618,-0.565,-0.045
3619,-0.630,0.030
3620,-0.540,-0.060
3621,-0.735,0.035
3622,-0.395,-0.105
3623,-0.775,0.030
3624,-0.275,-0.130
3625,-1.005,0.050
3626,-0.175,-0.155
3627,-1.075,0.030
3628,-0.050,-0.130
3629,-1.075,0.060
3630,-0.135,-0.135
3631,-1.065,0.055
3632,-0.085,-0.140
3633,-0.980,0.000
3634,-0.135,-0.125
3635,-1.015,0.000
3636,-0.165,-0.115
3637,-1.015,-0.035
3638,-0.155,-0.105
3639,-0.965,-0.040
3640,-0.175,-0.145
3641,-0.885,-0.080
3642,-0.325,-0.110
3643,-0.700,-0.165
3644,-0.475,-0.075
3645,-0.555,-0.150
3646,-0.645,-0.015
3647,-0.430,-0.175
3648,-0.700,-0.055
3649,-0.370,-0.190
3650,-0.780,-0.035
3651,-0.340,-0.175
3652,-0.745,-0.005
3653,-0.125,-0.115
3654,-0.810,0.130
3655,0.000,0.040
3656,-0.830,0.190
3657,0.095,-0.020
3658,-0.895,0.000
3659,-0.055,-0.240
3660,-0.860,-0.145
3661,-0.190,-0.115
3662,-0.820,-0.165
3663,-0.340,-0.140
3664,-0.805,-0.180
3665,-0.460,-0.175
3666,-0.775,-0.220
3667,-0.420,-0.175
3668,-0.670,-0.245
3669,-0.485,-0.125
3670,-0.535,-0.220
3671,-0.730,0.010
3672,-0.360,0.250
3673,-0.145,0.405
3674,0.975,0.570
3675,0.780,-0.450
3676,0.335,-1.340
3677,-1.315,-1.870
3678,-0.550,-2.390
3679,-1.190,-1.790
3680,-0.005,-0.945
3681,-0.880,-0.140
3682,-0.045,-0.150
3683,-0.900,0.015
3684,-0.055,-0.045
3685,-0.910,0.030
3686,-0.030,-0.015
3687,-0.915,0.070
3688,0.050,-0.005
3689,-0.875,0.080
3690,0.055,0.050
3691,-0.765,0.075
3692,-0.075,0.120
3693,-0.535,0.115
3694,-0.245,0.225
3695,-0.345,0.165
3696,-0.355,0.345
3697,-0.135,0.225
3698,-0.365,0.425
3699,0.005,0.380
3700,-0.360,0.590
3701,0.120,0.515
3702,-0.365,0.745
3703,0.265,0.615
3704,-0.435,0.840
3705,0.405,0.675
3706,-0.565,0.845
3707,0.395,0.625
3708,-0.715,0.680
3709,0.210,0.435
3710,-0.705,0.410
3711,0.020,0.290
3712,-0.570,0.150
3713,-0.155,0.135
3714,-0.445,0.015
3715,-0.250,0.085
3716,-0.365,-0.055
3717,-0.340,0.045
3718,-0.270,-0.090
3719,-0.410,0.005
3720,-0.115,-0.110
3721,-0.555,0.040
3722,0.000,-0.110
3723,-0.705,0.055
3724,0.150,-0.105
3725,-0.760,0.045
3726,0.190,-0.080
3727,-0.715,0.000
3728,0.165,-0.060
3729,-0.660,-0.005
3730,0.125,-0.050
3731,-0.620,-0.030
3732,0.120,0.005
3733,-0.615,-0.050
3734,0.005,-0.040
3735,-0.475,-0.065
3736,-0.060,-0.005
3737,-0.375,-0.055
3738,-0.265,0.000
3739,-0.190,-0.155
3740,-0.440,0.000
3741,0.020,-0.175
3742,-0.565,-0.020
3743,0.085,-0.155
3744,-0.635,-0.025
3745,0.155,-0.150
3746,-0.695,-0.010
3747,0.145,-0.165
3748,-0.710,-0.040
3749,0.175,-0.180
3750,-0.710,-0.035
3751,0.315,-0.100
3752,-0.660,0.050
3753,0.335,0.050
3754,-0.620,0.165
3755,0.385,0.140
3756,-0.370,0.080
3757,0.100,0.035
3758,-0.365,-0.195
3759,-0.205,-0.115
3760,-0.195,-0.215
3761,-0.465,-0.125
3762,-0.095,-0.230
3763,-0.650,-0.095
3764,-0.035,-0.290
3765,-0.700,-0.135
3766,0.090,-0.285
3767,-0.775,-0.130
3768,0.120,-0.280
3769,-0.805,-0.135
3770,0.070,-0.145
3771,-0.760,0.310
3772,0.495,0.305
3773,0.445,0.595
3774,1.580,-0.630
3775,0.620,-1.610
3776,-0.315,-2.200
3777,-0.685,-2.700
3778,-0.775,-2.045
3779,0.020,-1.140
3780,-0.605,-0.220
3781,0.070,-0.225
3782,-0.700,0.005
3783,0.140,-0.130
3784,-0.720,0.065
3785,0.165,-0.065
3786,-0.680,0.035
3787,0.195,0.000
3788,-0.680,0.085
3789,0.095,0.065
3790,-0.450,0.090
3791,-0.075,0.180
3792,-0.150,0.085
3793,-0.300,0.240
3794,0.075,0.125
3795,-0.460,0.370
3796,0.335,0.225
3797,-0.555,0.515
3798,0.520,0.350
3799,-0.575,0.630
3800,0.570,0.550
3801,-0.400,0.720
3802,0.630,0.660
3803,-0.330,0.790
3804,0.530,0.760
3805,-0.165,0.820
3806,0.285,0.815
3807,-0.005,0.710
3808,-0.020,0.730
3809,0.035,0.500
3810,-0.310,0.535
3811,0.145,0.280
3812,-0.485,0.350
3813,0.220,0.080
3814,-0.605,0.175
3815,0.225,-0.065
3816,-0.615,0.070
3817,0.345,-0.115
3818,-0.730,0.030
3819,0.390,-0.160
3820,-0.725,0.025
3821,0.440,-0.090
3822,-0.625,-0.010
3823,0.335,-0.080
3824,-0.555,0.020
3825,0.215,-0.015
3826,-0.385,0.010
3827,0.080,0.020
3828,-0.230,-0.015
3829,-0.115,0.040
3830,-0.100,-0.065
3831,-0.210,0.040
3832,0.055,-0.095
3833,-0.370,0.015
3834,0.175,-0.145
3835,-0.520,0.035
3836,0.335,-0.170
3837,-0.610,-0.010
3838,0.365,-0.190
3839,-0.780,0.000
3840,0.455,-0.180
3841,-0.715,-0.015
3842,0.385,-0.155
3843,-0.575,-0.090
3844,0.250,-0.125
3845,-0.435,-0.120
3846,0.125,-0.105
3847,-0.290,-0.120
3848,-0.045,-0.085
3849,-0.135,-0.180
3850,-0.145,-0.060
3851,0.040,-0.180
3852,-0.230,-0.045
3853,0.240,-0.155
3854,-0.325,0.105
3855,0.415,0.010
3856,-0.385,0.190
3857,0.585,-0.060
3858,-0.575,-0.030
3859,0.495,-0.300
3860,-0.585,-0.240
3861,0.430,-0.275
3862,-0.590,-0.230
3863,0.125,-0.245
3864,-0.500,-0.250
3865,0.025,-0.275
3866,-0.430,-0.315
3867,0.035,-0.265
3868,-0.355,-0.335
3869,-0.085,-0.280
3870,-0.205,-0.355
3871,-0.305,-0.140
3872,-0.060,0.080
3873,0.025,0.285
3874,1.225,0.345
3875,1.095,-0.450
3876,1.185,-1.500
3877,-0.750,-2.025
3878,-0.185,-2.540
3879,-0.930,-2.270
3880,0.375,-1.265
3881,-0.695,-0.410
3882,0.340,-0.320
3883,-0.760,-0.155
3884,0.310,-0.260
3885,-0.665,-0.125
3886,0.260,-0.205
3887,-0.505,-0.115
3888,0.200,-0.135
3889,-0.410,-0.100
3890,0.025,-0.040
3891,-0.185,-0.135
3892,-0.175,0.015
3893,-0.010,-0.090
3894,-0.240,0.050
3895,0.165,-0.030
3896,-0.335,0.135
3897,0.320,0.040
3898,-0.350,0.255
3899,0.490,0.145
3900,-0.370,0.375
3901,0.620,0.260
3902,-0.380,0.475
3903,0.755,0.335
3904,-0.395,0.570
3905,0.755,0.430
3906,-0.335,0.575
3907,0.550,0.450
3908,-0.265,0.405
3909,0.280,0.325
3910,-0.175,0.205
3911,0.020,0.155
3912,-0.100,-0.005
3913,-0.290,0.000
3914,0.000,-0.185
3915,-0.385,-0.095
3916,0.120,-0.280
3917,-0.480,-0.165
3918,0.205,-0.335
3919,-0.550,-0.180
3920,0.280,-0.335
3921,-0.660,-0.180
3922,0.370,-0.360
3923,-0.645,-0.215
3924,0.425,-0.355
3925,-0.710,-0.215
3926,0.430,-0.325
3927,-0.690,-0.235
3928,0.255,-0.295
3929,-0.550,-0.260
3930,0.175,-0.280
3931,-0.405,-0.290
3932,0.050,-0.210
3933,-0.325,-0.255
3934,-0.020,-0.235
3935,-0.235,-0.295
3936,-0.135,-0.220
3937,-0.165,-0.305
3938,-0.175,-0.200
3939,-0.040,-0.305
3940,-0.295,-0.175
3941,0.115,-0.360
3942,-0.560,-0.185
3943,0.250,-0.385
3944,-0.620,-0.175
3945,0.385,-0.375
3946,-0.680,-0.165
3947,0.415,-0.355
3948,-0.740,-0.200
3949,0.335,-0.365
3950,-0.635,-0.210
3951,0.315,-0.350
3952,-0.630,-0.230
3953,0.310,-0.335
3954,-0.495,-0.205
3955,0.365,-0.205
3956,-0.345,-0.080
3957,0.245,-0.040
3958,-0.160,-0.050
3959,0.095,-0.095
3960,-0.020,-0.325
3961,-0.185,-0.300
3962,0.055,-0.425
3963,-0.410,-0.260
3964,0.105,-0.455
3965,-0.580,-0.260
3966,0.170,-0.480
3967,-0.695,-0.305
3968,0.295,-0.550
3969,-0.760,-0.310
3970,0.355,-0.525
3971,-0.740,-0.315
3972,0.330,-0.485
3973,-0.805,-0.240
3974,0.200,0.050
3975,-0.080,0.115
3976,1.190,0.455
3977,1.320,-0.490
3978,0.710,-1.315
3979,-0.345,-2.095
3980,-0.890,-2.455
3981,-0.215,-2.285
3982,-0.395,-1.170
3983,0.100,-0.595
3984,-0.535,-0.180
3985,0.205,-0.305
3986,-0.600,-0.110
3987,0.265,-0.280
3988,-0.705,-0.085
3989,0.450,-0.235
3990,-0.770,-0.075
3991,0.450,-0.180
3992,-0.680,-0.055
3993,0.315,-0.140
3994,-0.560,-0.055
3995,0.260,-0.065
3996,-0.375,-0.050
3997,0.105,0.010
3998,-0.200,0.000
3999,0.050,0.115
4000,-0.015,0.075
4001,0.010,0.225
4002,0.140,0.210
4003,-0.030,0.405
4004,0.385,0.315
4005,-0.130,0.525
4006,0.570,0.400
4007,-0.335,0.610
4008,0.585,0.430
4009,-0.495,0.600
4010,0.615,0.340
4011,-0.645,0.380
4012,0.450,0.130
4013,-0.645,0.140
4014,0.240,-0.025
4015,-0.580,-0.060
4016,0.145,-0.150
4017,-0.535,-0.210
4018,0.040,-0.190
4019,-0.435,-0.250
4020,-0.025,-0.255
4021,-0.360,-0.295
4022,-0.160,-0.230
4023,-0.165,-0.305
4024,-0.385,-0.170
4025,0.085,-0.330
4026,-0.555,-0.160
4027,0.255,-0.350
4028,-0.740,-0.145
4029,0.350,-0.300
4030,-0.725,-0.140
4031,0.415,-0.285
4032,-0.765,-0.175
4033,0.350,-0.230
4034,-0.660,-0.195
4035,0.260,-0.230
4036,-0.530,-0.195
4037,0.095,-0.225
4038,-0.420,-0.250
4039,-0.085,-0.190
4040,-0.160,-0.285
4041,-0.330,-0.175
4042,0.055,-0.320
4043,-0.575,-0.165
4044,0.185,-0.325
4045,-0.665,-0.175
4046,0.255,-0.325
4047,-0.680,-0.180
4048,0.240,-0.290
4049,-0.685,-0.220
4050,0.240,-0.275
4051,-0.685,-0.215
4052,0.220,-0.280
4053,-0.705,-0.235
4054,0.140,-0.270
4055,-0.455,-0.265
4056,-0.055,-0.170
4057,-0.100,-0.235
4058,-0.210,-0.005
4059,0.070,-0.100
4060,-0.285,0.100
4061,0.295,-0.165
4062,-0.480,-0.100
4063,0.245,-0.420
4064,-0.590,-0.300
4065,0.245,-0.400
4066,-0.650,-0.270
4067,0.115,-0.360
4068,-0.720,-0.280
4069,0.090,-0.355
4070,-0.615,-0.350
4071,0.015,-0.340
4072,-0.490,-0.365
4073,-0.090,-0.265
4074,-0.335,-0.365
4075,-0.355,-0.155
4076,-0.160,-0.010
4077,-0.185,0.320
4078,1.000,0.410
4079,0.950,-0.375
4080,1.330,-1.620
4081,-0.565,-2.170
4082,-0.285,-2.650
4083,-0.945,-2.285
4084,0.155,-1.265
4085,-0.615,-0.410
4086,0.135,-0.260
4087,-0.635,-0.105
4088,0.075,-0.120
4089,-0.525,-0.105
4090,-0.005,-0.070
4091,-0.270,-0.135
4092,-0.290,0.010
4093,0.035,-0.130
4094,-0.560,0.075
4095,0.250,-0.095
4096,-0.745,0.150
4097,0.410,-0.045
4098,-0.745,0.190
4099,0.390,0.085
4100,-0.590,0.180
4101,0.325,0.195
4102,-0.400,0.245
4103,0.190,0.340
4104,-0.125,0.360
4105,0.055,0.540
4106,0.195,0.465
4107,-0.145,0.660
4108,0.515,0.540
4109,-0.300,0.745
4110,0.615,0.620
4111,-0.370,0.735
4112,0.535,0.595
4113,-0.445,0.605
4114,0.320,0.480
4115,-0.430,0.350
4116,0.105,0.300
4117,-0.490,0.115
4118,0.020,0.105
4119,-0.450,-0.050
4120,-0.045,-0.015
4121,-0.280,-0.160
4122,-0.245,-0.065
4123,-0.135,-0.225
4124,-0.435,-0.080
4125,0.060,-0.240
4126,-0.625,-0.095
4127,0.185,-0.260
4128,-0.675,-0.115
4129,0.240,-0.215
4130,-0.630,-0.090
4131,0.180,-0.175
4132,-0.640,-0.140
4133,0.130,-0.170
4134,-0.635,-0.150
4135,0.160,-0.170
4136,-0.635,-0.200
4137,0.075,-0.190
4138,-0.610,-0.195
4139,-0.040,-0.150
4140,-0.390,-0.260
4141,-0.320,-0.130
4142,-0.180,-0.270
4143,-0.530,-0.120
4144,0.025,-0.325
4145,-0.620,-0.150
4146,0.080,-0.330
4147,-0.695,-0.175
4148,0.100,-0.335
4149,-0.755,-0.200
4150,0.140,-0.300
4151,-0.720,-0.220
4152,0.115,-0.335
4153,-0.735,-0.250
4154,0.045,-0.335
4155,-0.630,-0.300
4156,-0.070,-0.275
4157,-0.475,-0.340
4158,-0.320,-0.215
4159,-0.135,-0.340
4160,-0.450,-0.150
4161,0.130,-0.225
4162,-0.655,0.040
4163,0.295,-0.135
4164,-0.690,-0.040
4165,0.240,-0.270
4166,-0.725,-0.305
4167,0.160,-0.435
4168,-0.770,-0.340
4169,0.025,-0.420
4170,-0.810,-0.335
4171,-0.120,-0.365
4172,-0.700,-0.395
4173,-0.230,-0.365
4174,-0.525,-0.440
4175,-0.410,-0.360
4176,-0.315,-0.485
4177,-0.660,-0.300
4178,-0.160,-0.445
4179,-0.950,0.055
4180,0.295,0.040
4181,-0.055,0.465
4182,1.650,-0.540
4183,0.315,-1.530
4184,0.105,-2.440
4185,-1.505,-2.835
4186,-0.160,-2.440
4187,-0.890,-1.205
4188,-0.015,-0.580
4189,-0.935,-0.300
4190,-0.030,-0.290
4191,-0.855,-0.225
4192,-0.145,-0.235
4193,-0.675,-0.225
4194,-0.335,-0.135
4195,-0.465,-0.225
4196,-0.440,-0.130
4197,-0.290,-0.230
4198,-0.620,-0.045
4199,-0.175,-0.195
4200,-0.675,0.000
4201,-0.065,-0.175
4202,-0.705,0.060
4203,0.005,-0.035
4204,-0.730,0.220
4205,0.150,0.070
4206,-0.685,0.320
4207,0.275,0.215
4208,-0.705,0.465
4209,0.320,0.390
4210,-0.560,0.580
4211,0.295,0.540
4212,-0.445,0.580
4213,0.115,0.640
4214,-0.440,0.565
4215,-0.060,0.580
4216,-0.415,0.400
4217,-0.255,0.385
4218,-0.480,0.180
4219,-0.445,0.160
4220,-0.440,-0.035
4221,-0.620,0.040
4222,-0.270,-0.200
4223,-0.845,-0.015
4224,-0.120,-0.305
4225,-0.955,-0.095
4226,0.005,-0.330
4227,-1.020,-0.115
4228,-0.030,-0.310
4229,-1.025,-0.165
4230,-0.030,-0.275
4231,-0.920,-0.170
4232,-0.125,-0.215
4233,-0.880,-0.200
4234,-0.250,-0.165
4235,-0.755,-0.200
4236,-0.345,-0.135
4237,-0.635,-0.235
4238,-0.550,-0.135
4239,-0.510,-0.260
4240,-0.665,-0.120
4241,-0.325,-0.295
4242,-0.840,-0.085
4243,-0.200,-0.320
4244,-1.075,-0.150
4245,-0.035,-0.315
4246,-1.115,-0.150
4247,-0.005,-0.320
4248,-1.130,-0.170
4249,-0.095,-0.310
4250,-1.095,-0.205
4251,-0.145,-0.320
4252,-1.000,-0.245
4253,-0.220,-0.275
4254,-0.990,-0.240
4255,-0.280,-0.250
4256,-0.890,-0.230
4257,-0.400,-0.210
4258,-0.785,-0.245
4259,-0.610,-0.190
4260,-0.570,-0.280
4261,-0.780,-0.140
4262,-0.365,-0.310
4263,-0.900,-0.110
4264,-0.130,-0.225
4265,-1.020,0.090
4266,-0.010,-0.055
4267,-0.950,0.095
4268,-0.020,-0.180
4269,-1.070,-0.100
4270,-0.120,-0.370
4271,-1.130,-0.205
4272,-0.220,-0.360
4273,-1.220,-0.260
4274,-0.330,-0.295
4275,-1.175,-0.275
4276,-0.405,-0.360
4277,-0.995,-0.335
4278,-0.600,-0.295
4279,-0.840,-0.310
4280,-0.795,-0.240
4281,-0.635,-0.350
4282,-1.015,-0.120
4283,-0.530,0.090
4284,-0.565,0.335
4285,0.785,0.500
4286,0.570,-0.475
4287,0.340,-1.495
4288,-1.665,-2.045
4289,-0.725,-2.565
4290,-1.580,-1.940
4291,-0.175,-1.050
4292,-1.295,-0.275
4293,-0.300,-0.205
4294,-1.225,-0.075
4295,-0.435,-0.075
4296,-1.025,-0.090
4297,-0.585,-0.020
4298,-0.825,-0.060
4299,-0.720,0.045
4300,-0.675,-0.040
4301,-0.845,0.100
4302,-0.530,-0.035
4303,-0.955,0.165
4304,-0.355,0.030
4305,-1.120,0.225
4306,-0.180,0.095
4307,-1.155,0.305
4308,-0.055,0.175
4309,-1.175,0.370
4310,0.010,0.365
4311,-0.980,0.460
4312,-0.050,0.515
4313,-0.800,0.585
4314,-0.110,0.650
4315,-0.530,0.650
4316,-0.300,0.725
4317,-0.450,0.630
4318,-0.400,0.720
4319,-0.440,0.555
4320,-0.660,0.615
4321,-0.460,0.390
4322,-0.885,0.420
4323,-0.430,0.130
4324,-1.010,0.255
4325,-0.345,0.000
4326,-1.150,0.135
4327,-0.245,-0.040
4328,-1.225,0.065
4329,-0.105,-0.080
4330,-1.280,0.045
4331,-0.125,-0.105
4332,-1.230,0.015
4333,-0.195,-0.060
4334,-1.100,-0.010
4335,-0.275,0.005
4336,-1.015,0.010
4337,-0.375,0.005
4338,-0.920,-0.005
4339,-0.410,0.030
4340,-0.790,-0.020
4341,-0.520,0.060
4342,-0.670,-0.030
4343,-0.720,0.090
4344,-0.420,-0.025
4345,-0.925,0.115
4346,-0.270,-0.035
4347,-1.065,0.120
4348,-0.170,-0.035
4349,-1.105,0.080
4350,-0.095,-0.040
4351,-1.225,0.120
4352,-0.040,-0.070
4353,-1.195,0.095
4354,-0.075,0.000
4355,-1.120,0.050
4356,-0.190,0.015
4357,-1.045,0.020
4358,-0.335,0.000
4359,-0.820,-0.025
4360,-0.535,0.075
4361,-0.585,-0.035
4362,-0.770,0.090
4363,-0.365,-0.050
4364,-0.930,0.100
4365,-0.250,-0.060
4366,-1.040,0.100
4367,-0.170,-0.015
4368,-1.030,0.140
4369,0.000,0.025
4370,-1.000,0.275
4371,0.030,0.195
4372,-0.945,0.380
4373,0.055,0.235
4374,-0.915,0.190
4375,-0.155,0.030
4376,-0.795,-0.045
4377,-0.395,0.065
4378,-0.620,-0.065
4379,-0.700,0.090
4380,-0.490,-0.065
4381,-0.855,0.055
4382,-0.420,-0.115
4383,-0.935,0.050
4384,-0.285,-0.085
4385,-0.970,0.040
4386,-0.165,-0.080
4387,-1.100,0.090
4388,-0.265,0.150
4389,-0.915,0.590
4390,0.630,0.590
4391,0.390,0.415
4392,1.370,-0.965
4393,-0.610,-1.580
4394,-0.800,-2.060
4395,-1.185,-2.460
4396,-0.570,-1.285
4397,-0.625,-0.455
4398,-0.670,0.155
4399,-0.455,0.100
4400,-0.780,0.315
4401,-0.275,0.180
4402,-0.950,0.335
4403,-0.195,0.205
4404,-0.995,0.390
4405,-0.095,0.260
4406,-0.985,0.400
4407,-0.075,0.305
4408,-0.955,0.430
4409,-0.155,0.400
4410,-0.710,0.430
4411,-0.295,0.505
4412,-0.495,0.435
4413,-0.440,0.625
4414,-0.235,0.515
4415,-0.585,0.740
4416,0.040,0.580
4417,-0.685,0.915
4418,0.110,0.760
4419,-0.590,1.040
4420,0.240,0.895
4421,-0.575,1.080
4422,0.245,0.965
4423,-0.690,1.100
4424,0.210,0.935
4425,-0.770,0.985
4426,0.055,0.805
4427,-0.780,0.735
4428,-0.175,0.615
4429,-0.695,0.495
4430,-0.395,0.455
4431,-0.515,0.320
4432,-0.580,0.370
4433,-0.420,0.195
4434,-0.670,0.330
4435,-0.260,0.115
4436,-0.710,0.295
4437,-0.155,0.095
4438,-0.855,0.305
4439,-0.120,0.100
4440,-0.865,0.300
4441,-0.015,0.110
4442,-0.935,0.315
4443,0.070,0.180
4444,-0.910,0.320
4445,0.000,0.215
4446,-0.820,0.255
4447,-0.015,0.210
4448,-0.770,0.270
4449,-0.065,0.260
4450,-0.710,0.250
4451,-0.100,0.240
4452,-0.695,0.220
4453,-0.155,0.260
4454,-0.645,0.195
4455,-0.215,0.255
4456,-0.565,0.165
4457,-0.315,0.285
4458,-0.355,0.150
4459,-0.505,0.285
4460,-0.185,0.085
4461,-0.635,0.280
4462,-0.095,0.085
4463,-0.715,0.315
4464,-0.045,0.105
4465,-0.740,0.265
4466,0.025,0.110
4467,-0.755,0.245
4468,0.010,0.125
4469,-0.780,0.265
4470,0.055,0.120
4471,-0.775,0.230
4472,0.135,0.165
4473,-0.690,0.250
4474,0.200,0.300
4475,-0.635,0.400
4476,0.190,0.410
4477,-0.480,0.360
4478,0.040,0.285
4479,-0.405,0.060
4480,-0.170,0.115
4481,-0.295,-0.005
4482,-0.365,0.140
4483,-0.315,0.000
4484,-0.535,0.160
4485,-0.240,-0.055
4486,-0.590,0.110
4487,-0.165,-0.060
4488,-0.655,0.080
4489,-0.070,-0.055
4490,-0.705,0.120
4491,-0.015,-0.005
4492,-0.895,0.400
4493,0.265,0.535
4494,-0.055,0.755
4495,1.535,0.225
4496,0.740,-0.980
4497,0.380,-1.695
4498,-1.100,-2.245
4499,-0.355,-2.200
4500,-0.650,-1.195
4501,-0.060,-0.260
4502,-0.565,0.025
4503,-0.190,0.210
4504,-0.490,0.140
4505,-0.085,0.270
4506,-0.375,0.145
4507,-0.335,0.310
4508,-0.140,0.175
4509,-0.455,0.350
4510,-0.005,0.215
4511,-0.625,0.390
4512,0.120,0.250
4513,-0.660,0.430
4514,0.210,0.290
4515,-0.645,0.465
4516,0.240,0.400
4517,-0.605,0.530
4518,0.335,0.490
4519,-0.590,0.675
4520,0.425,0.595
4521,-0.570,0.780
4522,0.555,0.730
4523,-0.500,0.875
4524,0.555,0.830
4525,-0.410,0.890
4526,0.410,0.880
4527,-0.295,0.845
4528,0.195,0.845
4529,-0.255,0.680
4530,-0.065,0.660
4531,-0.295,0.455
4532,-0.215,0.470
4533,-0.285,0.235
4534,-0.335,0.295
4535,-0.210,0.100
4536,-0.415,0.210
4537,-0.060,0.035
4538,-0.550,0.190
4539,0.050,0.000
4540,-0.665,0.170
4541,0.185,-0.025
4542,-0.775,0.155
4543,0.305,-0.045
4544,-0.855,0.130
4545,0.295,-0.020
4546,-0.790,0.125
4547,0.220,0.025
4548,-0.705,0.125
4549,0.145,0.085
4550,-0.615,0.070
4551,0.045,0.090
4552,-0.525,0.060
4553,-0.030,0.065
4554,-0.430,0.005
4555,-0.215,0.085
4556,-0.275,-0.010
4557,-0.335,0.070
4558,-0.095,-0.065
4559,-0.540,0.065
4560,0.070,-0.100
4561,-0.730,0.060
4562,0.195,-0.130
4563,-0.795,0.055
4564,0.315,-0.100
4565,-0.865,0.050
4566,0.300,-0.105
4567,-0.800,0.010
4568,0.240,-0.105
4569,-0.780,-0.005
4570,0.165,-0.120
4571,-0.710,-0.045
4572,0.130,-0.095
4573,-0.625,-0.065
4574,0.075,-0.080
4575,-0.570,-0.055
4576,-0.025,-0.045
4577,-0.360,-0.075
4578,-0.070,0.050
4579,-0.110,0.050
4580,-0.235,0.235
4581,0.105,0.080
4582,-0.340,0.155
4583,0.055,-0.130
4584,-0.505,-0.080
4585,0.055,-0.250
4586,-0.605,-0.030
4587,0.065,-0.255
4588,-0.645,-0.005
4589,0.000,-0.220
4590,-0.740,-0.095
4591,0.090,-0.255
4592,-0.770,-0.075
4593,0.200,-0.225
4594,-0.735,-0.110
4595,0.120,-0.175
4596,-0.815,0.020
4597,0.150,0.325
4598,-0.015,0.445
4599,1.315,0.365
4600,1.035,-0.950
4601,0.555,-1.720
4602,-0.830,-2.410
4603,-0.370,-2.405
4604,-0.495,-1.550
4605,-0.205,-0.580
4606,-0.270,-0.255
4607,-0.435,0.025
4608,0.050,-0.120
4609,-0.595,0.095
4610,0.140,-0.105
4611,-0.735,0.120
4612,0.215,-0.040
4613,-0.730,0.120
4614,0.240,0.000
4615,-0.665,0.105
4616,0.215,0.040
4617,-0.575,0.110
4618,0.200,0.080
4619,-0.535,0.145
4620,0.150,0.170
4621,-0.430,0.205
4622,0.145,0.300
4623,-0.225,0.330
4624,0.110,0.450
4625,-0.035,0.430
4626,0.000,0.625
4627,0.190,0.520
4628,-0.095,0.770
4629,0.360,0.585
4630,-0.170,0.840
4631,0.395,0.600
4632,-0.310,0.760
4633,0.340,0.540
4634,-0.470,0.600
4635,0.240,0.310
4636,-0.605,0.340
4637,0.210,0.110
4638,-0.600,0.155
4639,0.180,-0.025
4640,-0.665,0.020
4641,0.140,-0.095
4642,-0.655,-0.045
4643,0.125,-0.130
4644,-0.565,-0.115
4645,0.015,-0.115
4646,-0.435,-0.180
4647,-0.070,-0.125
4648,-0.325,-0.205
4649,-0.205,-0.075
4650,-0.230,-0.215
4651,-0.295,-0.060
4652,-0.140,-0.215
4653,-0.310,-0.030
4654,-0.085,-0.180
4655,-0.445,-0.045
4656,-0.060,-0.205
4657,-0.560,-0.045
4658,0.105,-0.245
4659,-0.655,-0.080
4660,0.160,-0.240
4661,-0.715,-0.120
4662,0.170,-0.245
4663,-0.670,-0.145
4664,0.105,-0.250
4665,-0.635,-0.215
4666,0.050,-0.235
4667,-0.560,-0.265
4668,0.020,-0.230
4669,-0.505,-0.260
4670,-0.125,-0.205
4671,-0.415,-0.330
4672,-0.305,-0.200
4673,-0.195,-0.365
4674,-0.505,-0.180
4675,0.005,-0.345
4676,-0.720,-0.170
4677,0.125,-0.360
4678,-0.785,-0.175
4679,0.135,-0.325
4680,-0.745,-0.180
4681,0.150,-0.295
4682,-0.645,-0.195
4683,0.185,-0.130
4684,-0.550,-0.025
4685,0.205,-0.005
4686,-0.460,-0.100
4687,-0.030,-0.180
4688,-0.335,-0.410
4689,-0.300,-0.320
4690,-0.110,-0.435
4691,-0.665,-0.265
4692,0.070,-0.455
4693,-0.985,-0.220
4694,0.140,-0.490
4695,-0.950,-0.325
4696,0.145,-0.500
4697,-0.885,-0.370
4698,0.055,-0.460
4699,-0.800,-0.365
4700,-0.090,-0.370
4701,-0.725,-0.235
4702,-0.175,0.165
4703,0.150,0.135
4704,0.855,0.135
4705,1.390,-1.240
4706,0.010,-1.865
4707,-0.310,-2.640
4708,-1.300,-2.800
4709,-0.065,-2.100
4710,-0.830,-0.985
4711,0.130,-0.520
4712,-0.910,-0.295
4713,0.125,-0.325
4714,-0.920,-0.240
4715,0.025,-0.260
4716,-0.725,-0.265
4717,-0.070,-0.180
4718,-0.620,-0.240
4719,-0.165,-0.155
4720,-0.485,-0.220
4721,-0.235,-0.100
4722,-0.315,-0.185
4723,-0.400,-0.025
4724,-0.180,-0.145
4725,-0.490,0.035
4726,0.040,-0.055
4727,-0.590,0.150
4728,0.220,0.040
4729,-0.665,0.285
4730,0.340,0.195
4731,-0.585,0.355
4732,0.405,0.315
4733,-0.490,0.420
4734,0.360,0.430
4735,-0.450,0.465
4736,0.275,0.485
4737,-0.360,0.450
4738,0.070,0.425
4739,-0.380,0.245
4740,-0.170,0.225
4741,-0.355,0.025
4742,-0.445,0.050
4743,-0.170,-0.195
4744,-0.735,-0.085
4745,-0.035,-0.320
4746,-0.835,-0.215
4747,0.055,-0.390
4748,-0.850,-0.295
4749,0.025,-0.390
4750,-0.860,-0.305
4751,0.005,-0.380
4752,-0.795,-0.330
4753,0.000,-0.365
4754,-0.795,-0.330
4755,-0.035,-0.350
4756,-0.690,-0.355
4757,-0.145,-0.305
4758,-0.490,-0.395
4759,-0.435,-0.260
4760,-0.280,-0.400
4761,-0.605,-0.235
4762,-0.155,-0.415
4763,-0.690,-0.245
4764,-0.065,-0.425
4765,-0.825,-0.270
4766,-0.060,-0.425
4767,-0.785,-0.285
4768,-0.040,-0.425
4769,-0.865,-0.290
4770,0.000,-0.410
4771,-0.895,-0.305
4772,0.005,-0.385
4773,-0.905,-0.305
4774,-0.045,-0.370
4775,-0.935,-0.345
4776,-0.075,-0.340
4777,-0.740,-0.380
4778,-0.210,-0.315
4779,-0.695,-0.385
4780,-0.390,-0.300
4781,-0.550,-0.375
4782,-0.410,-0.270
4783,-0.495,-0.405
4784,-0.510,-0.300
4785,-0.445,-0.395
4786,-0.565,-0.265
4787,-0.250,-0.380
4788,-0.615,-0.140
4789,-0.170,-0.195
4790,-0.600,0.010
4791,0.025,-0.225
4792,-0.785,-0.180
4793,0.030,-0.485
4794,-0.945,-0.370
4795,-0.020,-0.480
4796,-1.005,-0.380
4797,-0.065,-0.455
4798,-1.040,-0.430
4799,-0.195,-0.435
4800,-0.995,-0.460
4801,-0.275,-0.445
4802,-0.850,-0.490
4803,-0.385,-0.430
4804,-0.725,-0.510
4805,-0.545,-0.370
4806,-0.695,-0.225
4807,-0.410,0.165
4808,0.305,0.190
4809,0.650,-0.105
4810,1.165,-1.475
4811,-0.560,-2.035
4812,-0.515,-2.720
4813,-1.430,-2.800
4814,-0.195,-1.805
4815,-0.985,-0.815
4816,-0.205,-0.450
4817,-0.975,-0.300
4818,-0.210,-0.275
4819,-0.925,-0.255
4820,-0.220,-0.170
4821,-0.875,-0.210
4822,-0.290,-0.105
4823,-0.730,-0.155
4824,-0.460,-0.080
4825,-0.555,-0.160
4826,-0.590,0.005
4827,-0.295,-0.150
4828,-0.725,0.030
4829,-0.130,-0.070
4830,-0.820,0.125
4831,-0.060,0.010
4832,-0.805,0.200
4833,0.045,0.125
4834,-0.745,0.320
4835,0.120,0.290
4836,-0.695,0.450
4837,0.235,0.430
4838,-0.695,0.555
4839,0.275,0.515
4840,-0.690,0.605
4841,0.260,0.515
4842,-0.715,0.560
4843,0.055,0.475
4844,-0.650,0.375
4845,-0.240,0.300
4846,-0.620,0.130
4847,-0.395,0.120
4848,-0.565,-0.055
4849,-0.480,-0.035
4850,-0.495,-0.160
4851,-0.560,-0.090
4852,-0.405,-0.240
4853,-0.635,-0.120
4854,-0.320,-0.275
4855,-0.785,-0.110
4856,-0.125,-0.285
4857,-0.845,-0.105
4858,-0.030,-0.245
4859,-0.995,-0.090
4860,0.025,-0.205
4861,-0.985,-0.085
4862,0.015,-0.170
4863,-0.960,-0.125
4864,-0.005,-0.110
4865,-0.840,-0.105
4866,-0.195,-0.075
4867,-0.730,-0.110
4868,-0.310,-0.075
4869,-0.660,-0.165
4870,-0.410,-0.050
4871,-0.495,-0.180
4872,-0.595,-0.095
4873,-0.340,-0.210
4874,-0.725,-0.085
4875,-0.220,-0.245
4876,-0.875,-0.095
4877,-0.095,-0.240
4878,-0.940,-0.115
4879,-0.005,-0.235
4880,-0.975,-0.135
4881,-0.040,-0.225
4882,-0.955,-0.170
4883,-0.090,-0.240
4884,-0.920,-0.200
4885,-0.120,-0.170
4886,-0.780,-0.230
4887,-0.220,-0.175
4888,-0.720,-0.240
4889,-0.290,-0.170
4890,-0.615,-0.235
4891,-0.365,-0.125
4892,-0.400,-0.205
4893,-0.515,0.040
4894,-0.140,-0.055
4895,-0.575,0.110
4896,-0.025,-0.160
4897,-0.825,-0.100
4898,-0.025,-0.385
4899,-0.890,-0.235
4900,-0.020,-0.345
4901,-0.985,-0.260
4902,-0.110,-0.345
4903,-1.080,-0.265
4904,-0.090,-0.375
4905,-1.090,-0.290
4906,-0.075,-0.370
4907,-1.055,-0.320
4908,-0.175,-0.365
4909,-0.815,-0.355
4910,-0.470,-0.210
4911,-0.690,0.075
4912,-0.280,0.290
4913,0.575,0.380
4914,0.860,-0.455
4915,0.800,-1.620
4916,-0.835,-2.170
4917,-0.680,-2.695
4918,-1.175,-2.215
4919,-0.165,-1.200
4920,-0.930,-0.320
4921,-0.135,-0.310
4922,-1.030,-0.075
4923,-0.060,-0.180
4924,-1.025,-0.045
4925,-0.045,-0.120
4926,-0.975,-0.050
4927,-0.145,-0.045
4928,-0.830,-0.065
4929,-0.315,0.010
4930,-0.565,-0.060
4931,-0.440,0.075
4932,-0.440,-0.030
4933,-0.565,0.140
4934,-0.275,0.020
4935,-0.610,0.210
4936,-0.065,0.105
4937,-0.665,0.310
4938,0.080,0.190
4939,-0.690,0.430
4940,0.195,0.375
4941,-0.655,0.525
4942,0.250,0.470
4943,-0.585,0.570
4944,0.225,0.610
4945,-0.415,0.635
4946,0.020,0.620
4947,-0.330,0.550
4948,-0.255,0.565
4949,-0.300,0.355
4950,-0.510,0.405
4951,-0.240,0.140
4952,-0.710,0.205
4953,-0.180,-0.020
4954,-0.865,0.075
4955,-0.095,-0.135
4956,-0.915,0.010
4957,-0.015,-0.175
4958,-0.945,-0.045
4959,-0.030,-0.145
4960,-0.865,-0.080
4961,-0.065,-0.115
4962,-0.755,-0.105
4963,-0.305,-0.090
4964,-0.580,-0.150
4965,-0.460,-0.050
4966,-0.345,-0.180
4967,-0.590,-0.025
4968,-0.225,-0.175
4969,-0.755,0.025
4970,-0.060,-0.180
4971,-0.870,0.040
4972,0.050,-0.185
4973,-0.965,0.015
4974,0.055,-0.180
4975,-0.930,-0.020
4976,0.055,-0.165
4977,-0.905,-0.055
4978,-0.080,-0.150
4979,-0.750,-0.120
4980,-0.270,-0.085
4981,-0.545,-0.165
4982,-0.460,-0.095
4983,-0.375,-0.205
4984,-0.630,-0.065
4985,-0.195,-0.230
4986,-0.705,-0.050
4987,-0.080,-0.255
4988,-0.880,-0.075
4989,0.010,-0.260
4990,-1.005,-0.070
4991,0.165,-0.265
4992,-1.075,-0.100
4993,0.055,-0.200
4994,-0.845,-0.150
4995,-0.165,-0.120
4996,-0.460,-0.210
4997,-0.365,-0.045
4998,-0.220,-0.080
4999,-0.590,0.150
5000,0.030,-0.015
5001,-0.700,0.045
5002,0.050,-0.205
5003,-0.825,-0.190
5004,0.050,-0.325
5005,-0.860,-0.185
5006,-0.085,-0.255
5007,-0.825,-0.230
5008,-0.350,-0.200
5009,-0.525,-0.330
5010,-0.660,-0.215
5011,-0.255,-0.395
5012,-0.880,-0.230
5013,0.000,-0.370
5014,-1.030,-0.205
5015,-0.015,-0.380
5016,-1.195,0.010
5017,0.080,0.160
5018,-0.315,0.340
5019,1.340,0.280
5020,0.565,-0.820
5021,0.225,-1.580
5022,-1.300,-2.200
5023,-0.595,-2.425
5024,-0.835,-1.720
5025,-0.305,-0.815
5026,-0.595,-0.330
5027,-0.480,-0.155
5028,-0.380,-0.230
5029,-0.690,-0.065
5030,-0.215,-0.200
5031,-0.865,-0.005
5032,-0.030,-0.175
5033,-0.920,0.015
5034,0.095,-0.155
5035,-0.980,-0.010
5036,0.110,-0.150
5037,-0.975,0.025
5038,0.125,-0.110
5039,-0.850,0.025
5040,0.080,-0.015
5041,-0.780,0.110
5042,0.100,0.075
5043,-0.625,0.190
5044,0.040,0.200
5045,-0.475,0.285
5046,-0.070,0.395
5047,-0.220,0.360
5048,-0.155,0.495
5049,-0.055,0.435
5050,-0.310,0.575
5051,0.060,0.440
5052,-0.545,0.570
5053,0.060,0.350
5054,-0.760,0.450
5055,0.035,0.135
5056,-0.965,0.240
5057,0.060,-0.045
5058,-1.045,0.055
5059,0.035,-0.150
5060,-1.025,-0.070
5061,-0.065,-0.200
5062,-0.905,-0.165
5063,-0.205,-0.180
5064,-0.700,-0.220
5065,-0.430,-0.160
5066,-0.530,-0.250
5067,-0.575,-0.135
5068,-0.385,-0.270
5069,-0.655,-0.110
5070,-0.290,-0.285
5071,-0.725,-0.150
5072,-0.190,-0.260
5073,-0.900,-0.100
5074,-0.045,-0.300
5075,-1.000,-0.100
5076,0.110,-0.275
5077,-1.095,-0.095
5078,0.125,-0.255
5079,-1.015,-0.145
5080,-0.035,-0.225
5081,-0.855,-0.180
5082,-0.180,-0.195
5083,-0.730,-0.220
5084,-0.285,-0.215
5085,-0.640,-0.245
5086,-0.345,-0.210
5087,-0.600,-0.265
5088,-0.470,-0.215
5089,-0.490,-0.295
5090,-0.550,-0.160
5091,-0.350,-0.305
5092,-0.730,-0.155
5093,-0.170,-0.320
5094,-0.905,-0.135
5095,0.000,-0.315
5096,-1.015,-0.135
5097,0.030,-0.320
5098,-1.030,-0.165
5099,0.185,-0.250
5100,-0.950,-0.040
5101,0.125,-0.085
5102,-0.800,0.065
5103,0.170,-0.015
5104,-0.715,-0.030
5105,0.030,-0.165
5106,-0.700,-0.240
5107,-0.120,-0.250
5108,-0.675,-0.265
5109,-0.380,-0.250
5110,-0.570,-0.290
5111,-0.570,-0.220
5112,-0.410,-0.385
5113,-0.690,-0.230
5114,-0.210,-0.385
5115,-0.835,-0.220
5116,-0.075,-0.385
5117,-0.970,-0.145
5118,-0.110,-0.080
5119,-0.815,0.320
5120,0.860,0.245
5121,0.495,0.070
5122,1.320,-1.355
5123,-0.855,-1.880
5124,-0.495,-2.405
5125,-1.280,-2.515
5126,-0.120,-1.470
5127,-0.775,-0.565
5128,-0.195,-0.230
5129,-0.675,-0.200
5130,-0.390,-0.095
5131,-0.450,-0.170
5132,-0.550,-0.005
5133,-0.285,-0.165
5134,-0.670,0.020
5135,-0.115,-0.145
5136,-0.745,0.055
5137,-0.045,-0.105
5138,-0.855,0.105
5139,0.055,-0.080
5140,-1.635,0.175
5141,1.450,-0.180
5142,-2.135,0.410
5143,1.230,-0.015
5144,-1.850,0.430
5145,0.810,0.220
5146,-1.285,0.420
5147,0.355,0.470
5148,-0.910,0.460
5149,-0.015,0.685
5150,-0.440,0.495
5151,-0.265,0.800
5152,-0.225,0.510
5153,-0.570,0.810
5154,-0.105,0.395
5155,-0.675,0.710
5156,0.195,0.140
5157,-1.150,0.535
5158,0.475,-0.110
5159,-1.690,0.385
5160,1.000,-0.325
5161,-2.065,0.270
5162,1.295,-0.450
5163,-2.265,0.160
5164,1.260,-0.430
5165,-1.960,-0.005
5166,1.070,-0.365
5167,-1.720,-0.075
5168,0.670,-0.320
5169,-1.635,-0.095
5170,0.670,-0.325
5171,-1.365,-0.130
5172,0.465,-0.220
5173,-1.195,-0.135
5174,0.050,-0.120
5175,-0.750,-0.250
5176,-0.330,-0.040
5177,-0.235,-0.375
5178,-1.060,0.070
5179,0.330,-0.425
5180,-1.410,0.095
5181,0.800,-0.540
5182,-1.910,0.150
5183,1.005,-0.545
5184,-2.175,0.125
5185,1.220,-0.570
5186,-1.975,0.030
5187,1.130,-0.520
5188,-1.990,-0.015
5189,0.930,-0.440
5190,-1.785,-0.040
5191,0.885,-0.450
5192,-1.720,-0.135
5193,0.650,-0.385
5194,-1.425,-0.225
5195,0.255,-0.265
5196,-0.945,-0.320
5197,-0.265,-0.140
5198,-0.470,-0.335
5199,-0.765,0.085
5200,0.220,-0.330
5201,-1.110,0.255
5202,0.580,-0.305
5203,-1.655,0.240
5204,0.835,-0.535
5205,-1.950,0.045
5206,1.180,-0.675
5207,-2.050,-0.005
5208,1.150,-0.600
5209,-2.100,-0.020
5210,1.045,-0.600
5211,-1.815,-0.195
5212,0.700,-0.485
5213,-1.505,-0.305
5214,0.315,-0.355
5215,-0.930,-0.420
5216,-0.215,-0.230
5217,-0.535,-0.215
5218,-0.525,0.330
5219,-0.090,0.145
5220,-0.115,-0.065
5221,0.265,-1.710
5222,-0.915,-2.010
5223,-0.095,-2.865
5224,-1.445,-2.245
5225,0.480,-1.640
5226,-1.745,-0.210
5227,0.950,-0.670
5228,-2.080,0.115
5229,1.105,-0.500
5230,-2.025,0.145
5231,1.040,-0.390
5232,-1.860,0.105
5233,0.800,-0.245
5234,-1.725,0.095
5235,0.740,-0.190
5236,-1.485,0.055
5237,0.650,-0.110
5238,-1.325,0.035
5239,0.395,0.020
5240,-1.125,0.055
5241,0.195,0.150
5242,-0.725,0.045
5243,-0.430,0.425
5244,0.085,0.025
5245,-1.110,0.645
5246,0.670,0.040
5247,-1.595,0.835
5248,1.120,0.140
5249,-1.815,0.895
5250,1.210,0.255
5251,-1.765,0.840
5252,1.180,0.245
5253,-1.810,0.745
5254,1.015,0.205
5255,-1.795,0.510
5256,0.860,0.090
5257,-1.515,0.190
5258,0.475,-0.005
5259,-0.845,-0.100
5260,-0.210,0.020
5261,-0.245,-0.295
5262,-0.885,0.065
5263,0.320,-0.450
5264,-1.420,0.100
5265,0.805,-0.535
5266,-1.815,0.085
5267,1.195,-0.570
5268,-2.055,0.075
5269,1.400,-0.520
5270,-2.165,0.075
5271,1.280,-0.435
5272,-1.860,-0.010
5273,0.925,-0.350
5274,-1.500,-0.160
5275,0.430,-0.205
5276,-1.020,-0.280
5277,-0.120,-0.110
5278,-0.470,-0.375
5279,-0.605,-0.045
5280,0.175,-0.475
5281,-1.155,-0.040
5282,0.500,-0.530
5283,-1.455,-0.040
5284,0.750,-0.610
5285,-1.775,-0.035
5286,1.015,-0.575
5287,-1.885,-0.075
5288,1.190,-0.590
5289,-2.000,-0.040
5290,1.330,-0.570
5291,-2.230,-0.030
5292,1.170,-0.545
5293,-1.870,-0.150
5294,0.810,-0.420
5295,-1.245,-0.290
5296,0.200,-0.285
5297,-0.750,-0.415
5298,-0.330,-0.200
5299,-0.155,-0.490
5300,-0.890,-0.080
5301,0.200,-0.465
5302,-1.265,0.075
5303,0.655,-0.425
5304,-1.445,0.085
5305,0.820,-0.555
5306,-1.865,-0.115
5307,1.005,-0.740
5308,-2.030,-0.175
5309,1.200,-0.650
5310,-1.860,-0.295
5311,0.760,-0.525
5312,-1.520,-0.480
5313,0.060,-0.435
5314,-0.845,-0.610
5315,-0.450,-0.340
5316,-0.250,-0.695
5317,-0.945,-0.260
5318,0.110,-0.720
5319,-1.120,-0.040
5320,0.345,-0.200
5321,-1.075,0.360
5322,1.035,-0.115
5323,-1.120,-0.790
5324,1.005,-2.005
5325,-2.025,-2.205
5326,0.785,-2.750
5327,-2.085,-1.810
5328,0.765,-1.155
5329,-1.630,-0.365
5330,0.535,-0.385
5331,-1.200,-0.365
5332,0.095,-0.215
5333,-0.840,-0.410
5334,-0.240,-0.110
5335,-0.495,-0.420
5336,-0.655,-0.010
5337,-0.325,-0.395
5338,-0.960,0.020
5339,0.240,-0.435
5340,-1.185,0.055
5341,0.420,-0.415
5342,-1.530,0.110
5343,0.665,-0.385
5344,-1.705,0.200
5345,0.955,-0.255
5346,-1.710,0.225
5347,0.890,-0.070
5348,-1.700,0.345
5349,0.930,0.080
5350,-1.620,0.425
5351,0.860,0.245
5352,-1.560,0.450
5353,0.840,0.335
5354,-1.415,0.470
5355,0.865,0.315
5356,-1.300,0.290
5357,0.295,0.250
5358,-1.015,0.060
5359,0.000,0.105
5360,-0.430,-0.235
5361,-0.540,0.055
5362,-0.160,-0.385
5363,-1.005,-0.010
5364,0.325,-0.520
5365,-1.265,-0.035
5366,0.620,-0.575
5367,-1.550,-0.050
5368,0.770,-0.555
5369,-1.590,-0.085
5370,0.935,-0.540
5371,-1.845,-0.035
5372,1.040,-0.545
5373,-2.020,-0.030
5374,1.245,-0.530
5375,-2.035,-0.070
5376,1.315,-0.480
5377,-1.875,-0.125
5378,0.785,-0.335
5379,-1.350,-0.220
5380,0.330,-0.240
5381,-0.740,-0.350
5382,-0.255,-0.130
5383,-0.385,-0.420
5384,-0.435,-0.105
5385,-0.075,-0.450
5386,-0.760,-0.055
5387,0.085,-0.490
5388,-1.060,-0.035
5389,0.480,-0.540
5390,-1.325,-0.050
5391,0.805,-0.585
5392,-1.860,0.010
5393,1.165,-0.590
5394,-2.025,-0.065
5395,1.210,-0.560
5396,-1.905,-0.190
5397,0.980,-0.425
5398,-1.685,-0.240
5399,0.605,-0.330
5400,-1.180,-0.325
5401,0.280,-0.240
5402,-0.950,-0.340
5403,0.030,-0.095
5404,-0.565,-0.270
5405,-0.155,0.020
5406,-0.270,-0.220
5407,-0.630,0.010
5408,0.120,-0.455
5409,-1.275,-0.105
5410,0.700,-0.650
5411,-1.555,-0.055
5412,0.895,-0.635
5413,-1.780,-0.030
5414,1.055,-0.635
5415,-1.970,-0.110
5416,1.105,-0.620
5417,-2.025,-0.170
5418,1.200,-0.590
5419,-2.025,-0.135
5420,1.165,-0.570
5421,-1.905,0.005
5422,0.970,0.005
5423,-1.475,0.330
5424,1.165,0.130
5425,-0.915,-1.025
5426,0.600,-1.775
5427,-1.270,-2.400
5428,-0.095,-2.465
5429,-0.860,-1.880
5430,-0.325,-0.755
5431,-0.380,-0.495
5432,-0.665,-0.050
5433,-0.050,-0.440
5434,-0.915,0.005
5435,0.305,-0.440
5436,-1.275,0.095
5437,0.510,-0.440
5438,-1.525,0.205
5439,0.930,-0.470
5440,-1.795,0.280
5441,1.125,-0.385
5442,-1.930,0.305
5443,1.160,-0.285
5444,-1.975,0.310
5445,1.170,-0.170
5446,-1.715,0.300
5447,0.910,0.040
5448,-1.370,0.310
5449,0.575,0.255
5450,-1.005,0.375
5451,0.270,0.475
5452,-0.700,0.420
5453,0.065,0.675
5454,-0.405,0.420
5455,-0.165,0.730
5456,-0.200,0.420
5457,-0.575,0.755
5458,0.160,0.215
5459,-1.235,0.640
5460,0.850,-0.100
5461,-1.780,0.485
5462,1.205,-0.320
5463,-2.020,0.265
5464,1.205,-0.385
5465,-1.985,0.120
5466,1.015,-0.360
5467,-1.735,0.015
5468,0.855,-0.295
5469,-1.600,0.005
5470,0.765,-0.300
5471,-1.560,-0.005
5472,0.770,-0.255
5473,-1.420,-0.030
5474,0.475,-0.160
5475,-1.130,-0.125
5476,0.215,-0.065
5477,-0.560,-0.210
5478,-0.380,0.065
5479,-0.055,-0.380
5480,-1.040,0.140
5481,0.425,-0.435
5482,-1.280,0.205
5483,0.710,-0.460
5484,-1.390,0.190
5485,0.685,-0.440
5486,-1.395,0.160
5487,0.745,-0.435
5488,-1.545,0.140
5489,0.730,-0.440
5490,-1.550,0.095
5491,0.940,-0.390
5492,-1.655,0.080
5493,0.930,-0.380
5494,-1.795,0.050
5495,0.780,-0.310
5496,-1.560,-0.040
5497,0.690,-0.225
5498,-1.240,-0.105
5499,0.475,-0.115
5500,-1.050,-0.120
5501,0.250,-0.005
5502,-0.815,-0.090
5503,0.060,0.195
5504,-0.630,-0.015
5505,-0.180,0.300
5506,-0.090,-0.180
5507,-0.490,0.170
5508,0.315,-0.445
5509,-1.205,0.100
5510,0.650,-0.490
5511,-1.525,0.115
5512,0.980,-0.470
5513,-1.715,0.050
5514,0.995,-0.430
5515,-1.745,-0.060
5516,0.750,-0.360
5517,-1.475,-0.130
5518,0.610,-0.270
5519,-1.265,-0.200
5520,0.395,-0.030
5521,-1.005,0.275
5522,0.505,0.475
5523,-0.245,-0.005
5524,0.555,-1.120
5525,-0.300,-2.230
5526,-0.990,-2.255
5527,0.305,-2.890
5528,-1.440,-1.355
5529,0.765,-0.920
5530,-1.730,0.135
5531,0.930,-0.365
5532,-1.680,0.245
5533,0.990,-0.245
5534,-1.615,0.215
5535,0.950,-0.185
5536,-1.535,0.240
5537,0.910,-0.095
5538,-1.520,0.235
5539,0.790,-0.035
5540,-1.610,0.210
5541,0.845,0.040
5542,-1.185,0.175
5543,0.440,0.220
5544,-0.770,0.110
5545,-0.320,0.455
5546,-0.060,0.070
5547,-0.675,0.695
5548,0.455,0.135
5549,-0.975,0.760
5550,0.510,0.270
5551,-1.090,0.905
5552,0.695,0.410
5553,-1.075,0.970
5554,0.650,0.445
5555,-1.315,0.975
5556,0.950,0.405
5557,-1.460,0.830
5558,1.155,0.235
5559,-1.745,0.630
5560,0.895,0.135
5561,-1.480,0.285
5562,0.645,0.050
5563,-1.010,0.015
5564,0.150,0.080
5565,-0.680,-0.180
5566,-0.285,0.125
5567,-0.235,-0.310
5568,-0.565,0.150
5569,0.070,-0.405
5570,-1.055,0.160
5571,0.500,-0.475
5572,-1.350,0.190
5573,0.935,-0.440
5574,-1.705,0.185
5575,1.000,-0.390
5576,-1.830,0.125
5577,1.030,-0.285
5578,-1.490,0.010
5579,0.715,-0.170
5580,-1.180,-0.100
5581,0.240,-0.065
5582,-0.730,-0.220
5583,-0.225,0.000
5584,-0.260,-0.360
5585,-0.765,0.055
5586,0.255,-0.380
5587,-1.250,0.175
5588,0.770,-0.475
5589,-1.825,0.245
5590,1.125,-0.500
5591,-2.045,0.170
5592,1.375,-0.475
5593,-1.905,0.075
5594,1.160,-0.355
5595,-1.550,-0.020
5596,0.550,-0.200
5597,-1.070,-0.170
5598,0.070,-0.050
5599,-0.475,-0.285
5600,-0.520,-0.005
5601,0.150,-0.390
5602,-1.080,0.120
5603,0.675,-0.400
5604,-1.420,0.150
5605,0.960,-0.340
5606,-1.775,0.325
5607,1.260,-0.205
5608,-1.910,0.240
5609,1.390,-0.330
5610,-1.900,-0.055
5611,1.035,-0.390
5612,-1.585,-0.190
5613,0.455,-0.225
5614,-0.945,-0.360
5615,-0.090,-0.160
5616,-0.365,-0.460
5617,-0.620,-0.115
5618,-0.065,-0.455
5619,-0.815,-0.100
5620,0.040,-0.465
5621,-1.010,-0.025
5622,0.325,-0.450
5623,-1.240,0.245
5624,0.820,-0.035
5625,-1.305,0.630
5626,1.480,-0.005
5627,-1.390,-0.660
5628,1.400,-1.805
5629,-1.935,-2.135
5630,0.925,-2.510
5631,-1.675,-1.695
5632,0.815,-0.855
5633,-1.235,-0.255
5634,0.320,-0.100
5635,-0.885,-0.200
5636,0.000,0.005
5637,-0.540,-0.215
5638,-0.380,0.075
5639,-0.095,-0.245
5640,-0.800,0.135
5641,0.265,-0.250
5642,-1.215,0.200
5643,0.800,-0.320
5644,-1.595,0.210
5645,1.065,-0.240
5646,-1.720,0.265
5647,1.030,-0.080
5648,-1.655,0.285
5649,0.950,0.035
5650,-1.495,0.325
5651,0.845,0.235
5652,-1.160,0.345
5653,0.615,0.460
5654,-0.745,0.380
5655,0.095,0.635
5656,-0.165,0.360
5657,-0.475,0.800
5658,0.365,0.300
5659,-1.035,0.815
5660,0.875,0.170
5661,-1.460,0.695
5662,1.025,0.045
5663,-1.615,0.445
5664,1.005,-0.110
5665,-1.610,0.170
5666,0.960,-0.205
5667,-1.375,-0.005
5668,0.730,-0.190
5669,-1.320,-0.130
5670,0.545,-0.190
5671,-1.090,-0.215
5672,0.320,-0.100
5673,-0.665,-0.325
5674,-0.155,-0.030
5675,-0.255,-0.390
5676,-0.665,0.050
5677,0.345,-0.415
5678,-1.215,0.145
5679,0.750,-0.425
5680,-1.585,0.150
5681,1.035,-0.380
5682,-1.610,0.100
5683,0.955,-0.350
5684,-1.660,0.080
5685,0.885,-0.305
5686,-1.500,0.010
5687,0.890,-0.270
5688,-1.395,-0.070
5689,0.710,-0.235
5690,-1.265,-0.145
5691,0.545,-0.185
5692,-1.020,-0.230
5693,0.095,-0.110
5694,-0.365,-0.380
5695,-0.780,-0.005
5696,0.480,-0.540
5697,-1.385,0.070
5698,0.920,-0.540
5699,-1.745,0.040
5700,1.010,-0.530
5701,-1.695,0.005
5702,1.110,-0.475
5703,-1.610,-0.045
5704,0.945,-0.400
5705,-1.605,-0.085
5706,0.875,-0.395
5707,-1.490,-0.085
5708,0.685,-0.240
5709,-1.110,-0.115
5710,0.145,0.015
5711,-0.350,-0.105
5712,-0.460,0.265
5713,0.400,-0.295
5714,-1.280,0.175
5715,0.805,-0.595
5716,-1.725,0.060
5717,1.250,-0.605
5718,-1.860,0.060
5719,1.125,-0.545
5720,-1.920,0.000
5721,1.120,-0.575
5722,-1.880,-0.060
5723,1.065,-0.515
5724,-1.675,-0.150
5725,0.745,-0.400
5726,-1.285,-0.225
5727,0.450,-0.225
5728,-0.895,0.040
5729,0.040,0.320
5730,-0.055,0.240
5731,-0.005,0.100
5732,0.485,-1.435
5733,-0.885,-1.540
5734,0.010,-2.585
5735,-1.485,-2.060
5736,0.535,-1.575
5737,-1.420,-0.160
5738,1.010,-0.500
5739,-1.795,0.245
5740,1.155,-0.400
5741,-1.805,0.300
5742,1.125,-0.275
5743,-1.830,0.290
5744,1.035,-0.220
5745,-1.785,0.265
5746,1.010,-0.115
5747,-1.425,0.180
5748,0.820,0.000
5749,-1.280,0.200
5750,0.400,0.155
5751,-0.930,0.130
5752,0.300,0.290
5753,-0.590,0.160
5754,0.015,0.455
5755,-0.365,0.240
5756,-0.270,0.635
5757,0.150,0.305
5758,-0.710,0.855
5759,0.630,0.315
5760,-1.310,1.065
5761,1.270,0.345
5762,-1.580,1.050
5763,1.455,0.410
5764,-1.755,0.930
5765,1.180,0.350
5766,-1.680,0.700
5767,0.975,0.285
5768,-1.195,0.375
5769,0.590,0.180
5770,-1.070,0.165
5771,0.345,0.140
5772,-0.715,0.005
5773,0.045,0.125
5774,-0.290,-0.155
5775,-0.470,0.215
5776,0.275,-0.225
5777,-1.025,0.290
5778,0.925,-0.310
5779,-1.805,0.335
5780,1.375,-0.345
5781,-2.160,0.340
5782,1.535,-0.230
5783,-1.760,0.205
5784,1.205,-0.145
5785,-1.545,0.115
5786,0.820,-0.045
5787,-1.255,0.040
5788,0.600,0.005
5789,-0.985,-0.010
5790,0.255,0.085
5791,-0.635,-0.085
5792,-0.015,0.115
5793,-0.200,-0.165
5794,-0.640,0.210
5795,0.410,-0.245
5796,-1.275,0.295
5797,0.995,-0.280
5798,-1.475,0.300
5799,1.280,-0.300
5800,-1.830,0.315
5801,1.355,-0.265
5802,-1.945,0.285
5803,1.485,-0.275
5804,-1.870,0.225
5805,1.300,-0.170
5806,-1.700,0.235
5807,1.115,-0.130
5808,-1.395,0.110
5809,0.775,-0.030
5810,-0.920,-0.030
5811,0.170,0.185
5812,-0.280,0.015
5813,-0.280,0.405
5814,0.265,0.000
5815,-0.910,0.430
5816,0.380,-0.195
5817,-1.305,0.200
5818,0.930,-0.395
5819,-1.540,0.165
5820,1.090,-0.390
5821,-1.785,0.190
5822,1.320,-0.400
5823,-1.980,0.170
5824,1.470,-0.440
5825,-2.015,0.115
5826,1.270,-0.310
5827,-1.635,0.025
5828,0.955,-0.180
5829,-1.140,-0.015
5830,0.230,0.430
5831,-0.455,0.315
5832,-0.005,0.815
5833,0.650,-0.725
5834,-0.425,-1.280
5835,0.550,-2.495
5836,-1.450,-2.270
5837,0.765,-2.315
5838,-1.635,-0.720
5839,0.995,-0.500
5840,-1.805,0.220
5841,1.115,-0.185
5842,-1.830,0.260
5843,1.290,-0.080
5844,-1.760,0.195
5845,0.965,0.060
5846,-1.330,0.100
5847,0.270,0.225
5848,-0.470,-0.025
5849,-0.355,0.350
5850,0.120,-0.060
5851,-0.930,0.475
5852,0.460,-0.035
5853,-1.175,0.550
5854,0.725,0.035
5855,-1.290,0.660
5856,0.905,0.185
5857,-1.375,0.790
5858,1.100,0.365
5859,-1.605,0.905
5860,1.210,0.530
5861,-1.515,0.920
5862,1.065,0.740
5863,-1.095,0.845
5864,0.600,0.905
5865,-0.525,0.695
5866,-0.130,1.030
5867,-0.010,0.460
5868,-0.670,0.895
5869,0.185,0.180
5870,-0.760,0.645
5871,0.400,-0.005
5872,-1.120,0.480
5873,0.665,-0.145
5874,-1.545,0.360
5875,0.920,-0.225
5876,-1.615,0.250
5877,1.045,-0.200
5878,-1.655,0.130
5879,0.880,-0.120
5880,-1.285,0.020
5881,0.535,0.020
5882,-0.800,-0.080
5883,0.010,0.170
5884,-0.420,-0.185
5885,-0.360,0.270
5886,0.040,-0.205
5887,-0.740,0.370
5888,0.440,-0.260
5889,-1.260,0.435
5890,0.830,-0.285
5891,-1.565,0.415
5892,1.240,-0.285
5893,-1.745,0.315
5894,1.250,-0.225
5895,-1.630,0.170
5896,0.840,-0.080
5897,-1.080,0.000
5898,0.245,0.075
5899,-0.595,-0.165
5900,-0.305,0.125
5901,0.125,-0.275
5902,-0.970,0.205
5903,0.745,-0.330
5904,-1.570,0.240
5905,1.145,-0.375
5906,-1.905,0.195
5907,1.430,-0.365
5908,-1.895,0.110
5909,1.270,-0.235
5910,-1.580,-0.050
5911,0.540,-0.035
5912,-0.715,-0.170
5913,-0.205,0.155
5914,0.015,-0.260
5915,-0.790,0.330
5916,0.700,-0.120
5917,-1.190,0.445
5918,1.120,-0.200
5919,-1.540,0.280
5920,1.035,-0.350
5921,-1.485,0.030
5922,1.080,-0.295
5923,-1.435,-0.045
5924,0.955,-0.245
5925,-1.390,-0.100
5926,0.630,-0.200
5927,-1.105,-0.225
5928,0.480,-0.110
5929,-0.745,-0.330
5930,-0.165,-0.010
5931,0.005,-0.495
5932,-0.830,0.075
5933,0.510,-0.245
5934,-1.190,0.635
5935,0.990,0.140
5936,-0.860,0.370
5937,1.235,-1.325
5938,-1.430,-1.510
5939,0.770,-2.450
5940,-1.860,-2.215
5941,0.880,-1.590
5942,-1.510,-0.430
5943,1.055,-0.360
5944,-1.565,0.000
5945,0.920,-0.195
5946,-1.335,-0.035
5947,0.470,-0.035
5948,-0.675,-0.155
5949,-0.095,0.125
5950,-0.260,-0.245
5951,-0.455,0.270
5952,0.310,-0.320
5953,-0.770,0.310
5954,0.470,-0.280
5955,-1.120,0.325
5956,0.630,-0.245
5957,-1.295,0.405
5958,1.075,-0.190
5959,-1.505,0.425
5960,1.160,-0.030
5961,-1.685,0.485
5962,1.105,0.185
5963,-1.155,0.440
5964,0.550,0.465
5965,-0.575,0.380
5966,-0.055,0.640
5967,0.005,0.335
5968,-0.535,0.715
5969,0.460,0.195
5970,-1.045,0.675
5971,0.660,0.000
5972,-1.390,0.540
5973,1.145,-0.250
5974,-1.795,0.355
5975,1.320,-0.395
5976,-1.930,0.145
5977,1.295,-0.410
5978,-1.735,0.025
5979,1.065,-0.365
5980,-1.450,-0.125
5981,0.640,-0.275
5982,-0.995,-0.265
5983,0.195,-0.170
5984,-0.455,-0.380
5985,-0.320,-0.095
5986,-0.220,-0.465
5987,-0.580,-0.035
5988,0.170,-0.515
5989,-0.860,-0.055
5990,0.555,-0.545
5991,-1.350,0.015
5992,0.815,-0.570
5993,-1.570,0.015
5994,1.195,-0.645
5995,-1.965,0.020
5996,1.390,-0.595
5997,-1.945,-0.050
5998,1.275,-0.555
5999,-1.770,-0.145
6000,1.030,-0.485
6001,-1.535,-0.210
6002,0.755,-0.415
6003,-1.150,-0.280
6004,0.550,-0.345
6005,-0.900,-0.355
6006,0.160,-0.250
6007,-0.730,-0.395
6008,-0.010,-0.200
6009,-0.380,-0.460
6010,-0.260,-0.135
6011,-0.060,-0.515
6012,-0.805,-0.055
6013,0.545,-0.620
6014,-1.325,-0.005
6015,1.010,-0.665
6016,-1.830,0.085
6017,1.430,-0.520
6018,-1.790,0.165
6019,1.415,-0.335
6020,-1.710,0.120
6021,1.105,-0.390
6022,-1.615,-0.125
6023,1.045,-0.540
6024,-1.445,-0.235
6025,0.945,-0.500
6026,-1.340,-0.280
6027,0.640,-0.420
6028,-1.105,-0.400
6029,0.260,-0.375
6030,-0.620,-0.550
6031,-0.310,-0.240
6032,-0.005,-0.630
6033,-0.870,-0.120
6034,0.535,-0.660
6035,-1.395,0.135
6036,0.895,-0.145
6037,-1.330,0.525
6038,1.600,0.005
6039,-1.025,-0.695
6040,1.315,-1.985
6041,-1.970,-2.040
6042,1.010,-2.720
6043,-1.875,-1.605
6044,1.135,-1.060
6045,-1.630,-0.195
6046,0.955,-0.340
6047,-1.305,-0.095
6048,0.640,-0.175
6049,-0.920,-0.145
6050,0.245,-0.030
6051,-0.690,-0.160
6052,0.080,0.035
6053,-0.535,-0.205
6054,-0.130,0.105
6055,-0.265,-0.205
6056,-0.320,0.230
6057,-0.095,-0.190
6058,-0.695,0.365
6059,0.435,-0.210
6060,-0.985,0.465
6061,0.795,-0.080
6062,-1.295,0.600
6063,1.015,0.065
6064,-1.500,0.775
6065,1.225,0.235
6066,-1.505,0.835
6067,1.225,0.430
6068,-1.430,0.850
6069,1.065,0.560
6070,-1.275,0.820
6071,0.855,0.585
6072,-1.295,0.635
6073,0.755,0.405
6074,-1.130,0.335
6075,0.545,0.240
6076,-0.785,0.015
6077,0.215,0.165
6078,-0.525,-0.155
6079,-0.330,0.195
6080,0.075,-0.360
6081,-0.965,0.250
6082,0.695,-0.410
6083,-1.440,0.245
6084,1.055,-0.395
6085,-1.645,0.190
6086,1.145,-0.310
6087,-1.635,0.155
6088,0.955,-0.245
6089,-1.625,0.095
6090,0.935,-0.180
6091,-1.405,0.075
6092,0.800,-0.080
6093,-1.325,0.065
6094,0.590,-0.010
6095,-0.945,-0.020
6096,0.130,0.135
6097,-0.145,-0.220
6098,-0.725,0.260
6099,0.575,-0.290
6100,-1.460,0.365
6101,1.190,-0.350
6102,-1.830,0.355
6103,1.260,-0.330
6104,-1.835,0.260
6105,1.255,-0.270
6106,-1.685,0.200
6107,1.160,-0.210
6108,-1.650,0.135
6109,0.930,-0.150
6110,-1.455,0.050
6111,0.665,-0.040
6112,-0.835,-0.090
6113,0.025,0.095
6114,-0.285,-0.165
6115,-0.615,0.230
6116,0.270,-0.160
6117,-0.985,0.400
6118,0.760,-0.095
6119,-1.405,0.595
6120,1.065,-0.100
6121,-1.470,0.495
6122,1.215,-0.305
6123,-1.800,0.325
6124,1.170,-0.340
6125,-1.835,0.280
6126,1.255,-0.335
6127,-1.770,0.210
6128,1.155,-0.255
6129,-1.745,0.130
6130,0.895,-0.200
6131,-1.345,0.025
6132,0.625,-0.080
6133,-0.920,-0.110
6134,0.125,0.075
6135,-0.605,0.150
6136,0.025,0.630
6137,0.145,0.530
6138,0.040,0.005
6139,0.315,-1.620
6140,-0.950,-1.810
6141,0.350,-2.680
6142,-1.400,-1.860
6143,0.830,-1.225
6144,-1.685,0.195
6145,1.065,-0.285
6146,-1.660,0.505
6147,1.350,-0.130
6148,-1.765,0.490
6149,1.220,-0.005
6150,-1.685,0.465
6151,1.120,0.130
6152,-1.440,0.445
6153,0.855,0.235
6154,-1.305,0.425
6155,0.665,0.360
6156,-0.985,0.385
6157,0.575,0.460
6158,-0.815,0.395
6159,0.140,0.640
6160,-0.475,0.405
6161,-0.195,0.850
6162,0.255,0.385
6163,-0.855,1.050
6164,0.940,0.475
6165,-1.545,1.285
6166,1.510,0.575
6167,-1.765,1.315
6168,1.555,0.705
6169,-1.680,1.205
6170,1.365,0.770
6171,-1.380,1.050
6172,1.165,0.750
6173,-1.240,0.820
6174,0.695,0.625
6175,-0.975,0.540
6176,0.380,0.515
6177,-0.490,0.250
6178,-0.155,0.450
6179,0.000,0.065
6180,-0.825,0.520
6181,0.730,-0.065
6182,-1.375,0.530
6183,1.275,-0.145
6184,-1.785,0.490
6185,1.400,-0.120
6186,-1.925,0.480
6187,1.585,-0.080
6188,-1.870,0.465
6189,1.320,0.030
6190,-1.685,0.420
6191,1.190,0.105
6192,-1.345,0.315
6193,0.945,0.180
6194,-1.170,0.235
6195,0.360,0.290
6196,-0.575,0.105
6197,-0.290,0.370
6198,0.210,-0.045
6199,-0.800,0.410
6200,0.550,-0.090
6201,-1.195,0.400
6202,1.005,-0.160
6203,-1.550,0.370
6204,1.195,-0.160
6205,-1.855,0.400
6206,1.465,-0.140
6207,-1.875,0.370
6208,1.590,-0.100
6209,-1.860,0.330
6210,1.095,0.050
6211,-1.370,0.170
6212,0.570,0.175
6213,-0.745,0.035
6214,-0.115,0.300
6215,-0.085,-0.050
6216,-0.570,0.395
6217,0.440,-0.060
6218,-0.985,0.505
6219,0.810,0.015
6220,-1.335,0.655
6221,1.020,0.065
6222,-1.420,0.475
6223,1.200,-0.110
6224,-1.730,0.235
6225,1.195,-0.135
6226,-1.780,0.230
6227,1.230,-0.095
6228,-1.670,0.120
6229,1.090,-0.015
6230,-1.405,0.025
6231,0.575,0.040
6232,-0.865,-0.080
6233,-0.030,0.130
6234,-0.255,-0.195
6235,-0.580,0.235
6236,0.175,-0.050
6237,-0.810,0.755
6238,0.830,0.295
6239,-0.615,0.945
6240,1.230,-0.745
6241,-1.220,-0.960
6242,0.820,-2.055
6243,-1.650,-1.945
6244,1.065,-1.620
6245,-1.725,-0.260
6246,1.235,-0.180
6247,-1.850,0.345
6248,1.215,0.010
6249,-1.755,0.330
6250,1.235,0.110
6251,-1.680,0.295
6252,1.010,0.180
6253,-1.400,0.255
6254,0.685,0.270
6255,-1.105,0.275
6256,0.495,0.345
6257,-0.855,0.250
6258,0.265,0.390
6259,-0.580,0.260
6260,-0.015,0.505
6261,-0.215,0.295
6262,-0.555,0.685
6263,0.410,0.305
6264,-0.870,0.855
6265,0.905,0.420
6266,-1.240,1.015
6267,1.200,0.515
6268,-1.535,1.120
6269,1.385,0.590
6270,-1.605,1.190
6271,1.540,0.625
6272,-1.755,1.200
6273,1.520,0.495
6274,-1.770,0.975
6275,1.415,0.335
6276,-1.705,0.685
6277,1.225,0.215
6278,-1.540,0.440
6279,0.915,0.175
6280,-1.110,0.265
6281,0.525,0.235
6282,-0.820,0.150
6283,-0.035,0.295
6284,-0.305,0.010
6285,-0.320,0.355
6286,-0.030,-0.030
6287,-0.450,0.360
6288,0.195,-0.070
6289,-0.785,0.435
6290,0.520,-0.115
6291,-1.140,0.475
6292,0.880,-0.185
6293,-1.495,0.515
6294,1.280,-0.165
6295,-1.675,0.550
6296,1.410,-0.120
6297,-1.795,0.430
6298,1.220,-0.045
6299,-1.600,0.385
6300,1.160,0.015
6301,-1.375,0.280
6302,0.920,0.085
6303,-1.210,0.245
6304,0.690,0.145
6305,-1.015,0.145
6306,0.450,0.225
6307,-0.855,0.080
6308,0.210,0.260
6309,-0.530,0.000
6310,-0.060,0.315
6311,-0.095,-0.070
6312,-0.730,0.440
6313,0.360,-0.165
6314,-1.080,0.460
6315,0.890,-0.235
6316,-1.430,0.490
6317,1.110,-0.185
6318,-1.690,0.495
6319,1.130,-0.010
6320,-1.515,0.585
6321,1.130,0.150
6322,-1.420,0.520
6323,1.065,0.035
6324,-1.410,0.300
6325,1.130,-0.125
6326,-1.430,0.275
6327,0.900,-0.050
6328,-1.530,0.190
6329,0.955,-0.010
6330,-1.240,0.115
6331,0.655,0.040
6332,-1.110,0.000
6333,0.175,0.165
6334,-0.665,-0.085
6335,0.090,0.245
6336,-0.540,-0.110
6337,-0.120,0.595
6338,-0.290,0.340
6339,0.215,0.965
6340,0.355,-0.285
6341,-0.110,-0.865
6342,-0.095,-1.975
6343,-1.010,-1.905
6344,0.295,-2.145
6345,-1.050,-0.685
6346,0.770,-0.415
6347,-1.580,0.375
6348,0.955,-0.070
6349,-1.615,0.435
6350,1.145,0.005
6351,-1.590,0.405
6352,1.035,0.105
6353,-1.665,0.405
6354,1.055,0.175
6355,-1.635,0.405
6356,1.060,0.250
6357,-1.635,0.415
6358,0.845,0.365
6359,-1.060,0.345
6360,0.430,0.535
6361,-0.425,0.325
6362,-0.395,0.755
6363,0.145,0.325
6364,-0.855,0.935
6365,0.740,0.425
6366,-1.160,1.055
6367,0.910,0.605
6368,-1.370,1.180
6369,1.080,0.720
6370,-1.340,1.205
6371,1.080,0.765
6372,-1.555,1.195
6373,1.175,0.695
6374,-1.680,1.015
6375,1.225,0.530
6376,-1.645,0.725
6377,1.020,0.415
6378,-1.660,0.450
6379,0.880,0.355
6380,-1.115,0.220
6381,0.355,0.325
6382,-0.675,0.080
6383,-0.220,0.395
6384,-0.100,-0.005
6385,-0.540,0.420
6386,0.200,-0.045
6387,-0.880,0.485
6388,0.405,-0.025
6389,-1.060,0.465
6390,0.655,-0.035
6391,-1.190,0.465
6392,0.700,-0.020
6393,-1.440,0.520
6394,1.055,-0.035
6395,-1.615,0.500
6396,1.335,-0.030
6397,-1.935,0.490
6398,1.340,0.090
6399,-1.850,0.395
6400,1.290,0.105
6401,-1.535,0.265
6402,0.780,0.205
6403,-1.165,0.185
6404,0.495,0.285
6405,-0.820,0.110
6406,0.105,0.320
6407,-0.600,0.065
6408,-0.240,0.355
6409,-0.070,-0.015
6410,-0.600,0.375
6411,0.535,-0.085
6412,-1.355,0.445
6413,0.885,-0.115
6414,-1.650,0.450
6415,1.255,-0.085
6416,-1.690,0.370
6417,1.175,0.060
6418,-1.435,0.315
6419,1.040,0.275
6420,-1.300,0.395
6421,0.935,0.405
6422,-1.200,0.355
6423,0.660,0.350
6424,-0.880,0.020
6425,0.315,0.180
6426,-0.455,-0.085
6427,-0.335,0.250
6428,-0.020,-0.135
6429,-0.965,0.360
6430,0.680,-0.235
6431,-1.330,0.290
6432,0.960,-0.230
6433,-1.545,0.285
6434,1.015,-0.170
6435,-1.535,0.170
6436,0.995,-0.105
6437,-1.585,0.485
6438,1.185,0.440
6439,-1.245,0.900
6440,1.520,-0.130
6441,-0.970,-1.230
6442,0.930,-1.975
6443,-1.515,-2.515
6444,0.325,-2.025
6445,-0.525,-1.130
6446,-0.215,0.000
6447,0.100,-0.190
6448,-0.800,0.440
6449,0.360,-0.075
6450,-1.090,0.500
6451,0.635,-0.055
6452,-1.260,0.535
6453,0.880,0.015
6454,-1.360,0.540
6455,0.945,0.070
6456,-1.535,0.545
6457,1.090,0.110
6458,-1.680,0.595
6459,1.175,0.195
6460,-1.655,0.555
6461,1.125,0.335
6462,-1.425,0.515
6463,0.735,0.625
6464,-0.995,0.535
6465,0.190,0.830
6466,-0.245,0.535
6467,-0.335,1.035
6468,0.405,0.590
6469,-0.770,1.145
6470,0.745,0.595
6471,-1.150,1.220
6472,0.955,0.610
6473,-1.400,1.150
6474,1.105,0.525
6475,-1.590,0.890
6476,1.060,0.400
6477,-1.525,0.625
6478,0.905,0.315
6479,-1.340,0.365
6480,0.455,0.290
6481,-0.715,0.025
6482,-0.210,0.370
6483,0.095,-0.155
6484,-0.915,0.465
6485,0.695,-0.255
6486,-1.490,0.485
6487,0.970,-0.260
6488,-1.640,0.455
6489,1.150,-0.200
6490,-1.660,0.350
6491,1.170,-0.135
6492,-1.650,0.335
6493,1.020,-0.030
6494,-1.565,0.250
6495,0.600,0.085
6496,-0.990,0.035
6497,-0.100,0.245
6498,-0.060,-0.070
6499,-0.785,0.380
6500,0.415,-0.185
6501,-1.375,0.375
6502,0.820,-0.230
6503,-1.695,0.385
6504,1.200,-0.250
6505,-1.845,0.345
6506,1.240,-0.175
6507,-1.945,0.290
6508,1.175,-0.125
6509,-1.615,0.175
6510,0.690,0.000
6511,-1.035,-0.005
6512,-0.035,0.150
6513,-0.280,-0.160
6514,-0.550,0.270
6515,0.260,-0.250
6516,-1.075,0.310
6517,0.535,-0.270
6518,-1.285,0.290
6519,0.815,-0.225
6520,-1.305,0.265
6521,0.825,-0.070
6522,-1.505,0.435
6523,0.995,0.075
6524,-1.505,0.430
6525,1.090,-0.020
6526,-1.600,0.135
6527,0.975,-0.150
6528,-1.370,-0.010
6529,0.660,0.005
6530,-0.940,-0.115
6531,-0.100,0.140
6532,-0.415,-0.280
6533,-0.525,0.145
6534,0.210,-0.380
6535,-0.885,0.165
6536,0.425,-0.380
6537,-1.290,0.225
6538,0.655,-0.315
6539,-1.385,0.420
6540,1.105,0.180
6541,-1.325,0.765
6542,1.500,0.210
6543,-1.055,-0.735
6544,1.255,-1.820
6545,-1.545,-2.385
6546,0.485,-2.365
6547,-1.140,-1.735
6548,0.115,-0.455
6549,-0.350,-0.290
6550,-0.400,0.300
6551,0.135,-0.245
6552,-1.080,0.430
6553,0.560,-0.180
6554,-1.320,0.460
6555,0.920,-0.150
6556,-1.505,0.405
6557,0.905,-0.090
6558,-1.615,0.415
6559,1.040,-0.030
6560,-1.550,0.400
6561,0.980,0.105
6562,-1.505,0.380
6563,0.775,0.265
6564,-1.010,0.330
6565,0.355,0.465
6566,-0.470,0.265
6567,-0.220,0.735
6568,0.055,0.310
6569,-0.815,1.010
6570,0.790,0.330
6571,-1.060,1.110
6572,0.785,0.435
6573,-1.190,1.145
6574,0.970,0.460
6575,-1.340,1.120
6576,1.085,0.410
6577,-1.550,0.905
6578,1.100,0.270
6579,-1.630,0.615
6580,1.055,0.155
6581,-1.495,0.335
6582,0.685,0.135
6583,-1.220,0.110
6584,0.280,0.130
6585,-0.625,-0.125
6586,0.015,0.145
6587,-0.470,-0.200
6588,-0.260,0.170
6589,-0.285,-0.265
6590,-0.285,0.175
6591,-0.085,-0.320
6592,-0.700,0.220
6593,0.185,-0.355
6594,-0.900,0.260
6595,0.735,-0.370
6596,-1.550,0.310
6597,1.005,-0.345
6598,-1.795,0.275
6599,1.145,-0.295
6600,-1.600,0.130
6601,0.940,-0.145
6602,-1.405,0.040
6603,0.550,-0.055
6604,-1.165,-0.075
6605,0.330,-0.025
6606,-0.785,-0.190
6607,-0.030,0.065
6608,-0.460,-0.290
6609,-0.510,0.140
6610,0.170,-0.390
6611,-1.150,0.170
6612,0.795,-0.480
6613,-1.810,0.225
6614,1.350,-0.525
6615,-1.915,0.130
6616,1.330,-0.425
6617,-1.930,0.080
6618,1.050,-0.315
6619,-1.615,-0.030
6620,0.690,-0.205
6621,-1.120,-0.175
6622,0.370,-0.115
6623,-0.785,-0.205
6624,0.060,0.015
6625,-0.400,-0.170
6626,-0.415,0.280
6627,0.000,-0.135
6628,-0.850,0.280
6629,0.495,-0.355
6630,-1.300,0.090
6631,0.920,-0.575
6632,-1.775,0.115
6633,1.255,-0.550
6634,-2.140,0.110
6635,1.380,-0.505
6636,-2.000,-0.035
6637,1.210,-0.480
6638,-1.790,-0.150
6639,0.895,-0.365
6640,-1.525,-0.215
6641,0.655,-0.290
6642,-1.220,-0.225
6643,0.390,0.150
6644,-0.815,0.215
6645,0.525,0.600
6646,0.005,-0.365
6647,0.080,-1.090
6648,0.070,-2.215
6649,-1.320,-2.165
6650,0.550,-2.640
6651,-1.530,-1.150
6652,1.035,-0.835
6653,-1.795,0.055
6654,1.145,-0.430
6655,-2.035,0.195
6656,1.325,-0.390
6657,-1.990,0.205
