'sample interval','ECG0','ECG1'
'0.0078125 sec','mV','mV'
0,0.015,-0.305
1,0.010,-0.305
2,0.000,-0.305
3,0.000,-0.270
4,0.000,-0.275
5,0.015,-0.270
6,0.000,-0.265
7,0.000,-0.280
8,0.000,-0.285
9,0.005,-0.285
10,0.000,-0.275
11,0.010,-0.295
12,-0.005,-0.300
13,0.000,-0.295
14,0.000,-0.280
15,-0.005,-0.280
16,0.000,-0.295
17,0.005,-0.280
18,-0.005,-0.280
19,0.000,-0.300
20,0.000,-0.310
21,0.000,-0.325
22,-0.010,-0.310
23,0.000,-0.310
24,0.000,-0.310
25,-0.005,-0.320
26,-0.030,-0.315
27,-0.010,-0.310
28,0.000,-0.315
29,0.000,-0.300
30,-0.005,-0.305
31,0.000,-0.310
32,-0.005,-0.315
33,-0.005,-0.315
34,-0.005,-0.315
35,0.000,-0.315
36,-0.005,-0.305
37,0.000,-0.305
38,-0.005,-0.305
39,-0.005,-0.295
40,-0.005,-0.295
41,0.000,-0.305
42,-0.020,-0.310
43,-0.020,-0.300
44,-0.025,-0.310
45,0.000,-0.325
46,0.000,-0.305
47,0.025,-0.280
48,0.040,-0.260
49,0.040,-0.250
50,0.030,-0.245
51,0.050,-0.275
52,0.045,-0.305
53,0.000,-0.315
54,0.000,-0.310
55,-0.005,-0.325
56,-0.005,-0.320
57,-0.010,-0.340
58,0.000,-0.345
59,0.000,-0.350
60,-0.010,-0.350
61,-0.030,-0.375
62,-0.020,-0.375
63,-0.005,-0.270
64,0.015,-0.015
65,0.075,0.410
66,0.175,0.670
67,0.175,0.550
68,0.200,-0.075
69,-0.095,-0.450
70,-0.565,-0.410
71,-0.585,-0.350
72,-0.400,-0.360
73,-0.165,-0.365
74,-0.055,-0.355
75,-0.025,-0.360
76,-0.025,-0.365
77,-0.030,-0.370
78,-0.015,-0.345
79,-0.015,-0.350
80,0.015,-0.335
81,0.000,-0.350
82,-0.005,-0.350
83,0.020,-0.350
84,0.000,-0.350
85,0.000,-0.340
86,0.000,-0.355
87,0.005,-0.355
88,0.005,-0.335
89,0.000,-0.335
90,0.005,-0.330
91,0.000,-0.325
92,0.000,-0.350
93,0.015,-0.340
94,0.000,-0.345
95,0.000,-0.350
96,0.005,-0.365
97,-0.005,-0.360
98,0.000,-0.380
99,0.000,-0.380
100,0.000,-0.385
101,0.015,-0.380
102,0.015,-0.360
103,0.005,-0.385
104,0.000,-0.355
105,0.005,-0.335
106,0.020,-0.330
107,0.025,-0.300
108,0.045,-0.290
109,0.055,-0.290
110,0.045,-0.285
111,0.030,-0.275
112,0.025,-0.275
113,0.060,-0.275
114,0.045,-0.290
115,0.035,-0.305
116,0.045,-0.290
117,0.030,-0.295
118,0.030,-0.290
119,0.035,-0.300
120,0.035,-0.290
121,0.025,-0.300
122,0.030,-0.295
123,0.025,-0.315
124,0.025,-0.295
125,0.020,-0.280
126,0.010,-0.300
127,0.000,-0.310
128,0.015,-0.320
129,0.015,-0.315
130,0.015,-0.315
131,0.020,-0.310
132,0.000,-0.315
133,0.015,-0.310
134,0.010,-0.295
135,0.005,-0.300
136,0.020,-0.290
137,0.005,-0.290
138,0.005,-0.295
139,0.005,-0.280
140,0.000,-0.305
141,0.005,-0.295
142,0.015,-0.300
143,0.005,-0.300
144,0.005,-0.310
145,0.000,-0.300
146,-0.005,-0.295
147,0.000,-0.300
148,0.000,-0.305
149,-0.010,-0.310
150,-0.005,-0.315
151,-0.010,-0.310
152,0.000,-0.320
153,0.000,-0.310
154,-0.020,-0.315
155,-0.005,-0.300
156,-0.020,-0.300
157,-0.010,-0.310
158,0.000,-0.305
159,0.000,-0.300
160,-0.005,-0.305
161,-0.005,-0.310
162,-0.010,-0.295
163,-0.025,-0.320
164,-0.025,-0.310
165,0.000,-0.310
166,-0.005,-0.300
167,0.000,-0.295
168,0.000,-0.290
169,0.010,-0.285
170,0.050,-0.245
171,0.050,-0.235
172,0.065,-0.220
173,0.055,-0.240
174,0.060,-0.265
175,0.010,-0.265
176,-0.010,-0.280
177,-0.015,-0.280
178,0.005,-0.300
179,-0.020,-0.305
180,-0.025,-0.325
181,-0.020,-0.340
182,-0.045,-0.340
183,-0.055,-0.355
184,-0.055,-0.360
185,-0.060,-0.260
186,-0.005,0.030
187,0.050,0.430
188,0.125,0.655
189,0.110,0.445
190,0.110,-0.160
191,-0.275,-0.445
192,-0.680,-0.390
193,-0.590,-0.355
194,-0.345,-0.360
195,-0.165,-0.365
196,-0.070,-0.360
197,-0.070,-0.355
198,-0.045,-0.345
199,-0.050,-0.345
200,-0.035,-0.350
201,-0.025,-0.355
202,-0.035,-0.340
203,-0.035,-0.350
204,-0.020,-0.340
205,-0.035,-0.335
206,-0.020,-0.330
207,-0.030,-0.335
208,-0.045,-0.335
209,-0.025,-0.340
210,-0.015,-0.335
211,-0.020,-0.325
212,-0.015,-0.335
213,-0.040,-0.335
214,-0.020,-0.345
215,-0.025,-0.355
216,-0.020,-0.355
217,-0.045,-0.365
218,-0.045,-0.360
219,-0.050,-0.365
220,-0.055,-0.385
221,-0.065,-0.385
222,-0.030,-0.395
223,-0.035,-0.385
224,-0.055,-0.380
225,-0.045,-0.375
226,-0.055,-0.360
227,-0.035,-0.325
228,-0.020,-0.315
229,-0.010,-0.310
230,-0.005,-0.285
231,-0.015,-0.275
232,0.000,-0.290
233,-0.020,-0.290
234,-0.005,-0.280
235,-0.005,-0.275
236,0.000,-0.295
237,0.000,-0.290
238,0.000,-0.290
239,0.000,-0.290
240,0.000,-0.285
241,-0.005,-0.270
242,0.005,-0.270
243,0.010,-0.270
244,0.015,-0.305
245,0.010,-0.300
246,0.015,-0.305
247,0.015,-0.305
248,0.005,-0.310
249,0.000,-0.300
250,0.000,-0.285
251,0.005,-0.315
252,0.000,-0.305
253,0.000,-0.305
254,0.005,-0.310
255,0.000,-0.310
256,-0.015,-0.315
257,0.000,-0.315
258,-0.005,-0.330
259,-0.010,-0.320
260,0.000,-0.330
261,-0.010,-0.300
262,0.005,-0.315
263,-0.010,-0.305
264,-0.025,-0.295
265,-0.005,-0.310
266,0.000,-0.295
267,0.000,-0.285
268,-0.005,-0.290
269,0.000,-0.285
270,0.000,-0.275
271,0.005,-0.295
272,-0.005,-0.270
273,-0.025,-0.280
274,-0.020,-0.270
275,-0.015,-0.285
276,-0.020,-0.270
277,-0.020,-0.300
278,-0.015,-0.290
279,-0.030,-0.285
280,-0.030,-0.285
281,-0.030,-0.290
282,-0.020,-0.290
283,-0.035,-0.290
284,-0.010,-0.290
285,-0.025,-0.285
286,-0.015,-0.255
287,0.025,-0.260
288,0.030,-0.245
289,0.025,-0.220
290,0.045,-0.230
291,0.055,-0.240
292,0.020,-0.260
293,0.000,-0.240
294,-0.015,-0.250
295,0.000,-0.260
296,-0.005,-0.270
297,-0.005,-0.285
298,-0.035,-0.305
299,-0.055,-0.310
300,-0.045,-0.330
301,-0.050,-0.320
302,-0.040,-0.185
303,0.000,0.145
304,0.045,0.545
305,0.130,0.705
306,0.150,0.315
307,0.150,-0.285
308,-0.350,-0.430
309,-0.665,-0.355
310,-0.555,-0.345
311,-0.315,-0.355
312,-0.145,-0.340
313,-0.105,-0.325
314,-0.070,-0.335
315,-0.070,-0.320
316,-0.055,-0.325
317,-0.055,-0.330
318,-0.045,-0.330
319,-0.040,-0.340
320,-0.040,-0.330
321,-0.045,-0.325
322,-0.065,-0.330
323,-0.040,-0.315
324,-0.020,-0.325
325,-0.030,-0.300
326,-0.015,-0.290
327,-0.020,-0.295
328,-0.005,-0.295
329,-0.010,-0.305
330,-0.010,-0.305
331,-0.020,-0.285
332,-0.010,-0.300
333,-0.005,-0.310
334,-0.025,-0.325
335,-0.030,-0.320
336,-0.020,-0.355
337,-0.030,-0.370
338,-0.040,-0.370
339,-0.020,-0.380
340,-0.035,-0.380
341,-0.035,-0.365
342,-0.030,-0.330
343,-0.020,-0.350
344,-0.025,-0.295
345,-0.030,-0.285
346,-0.015,-0.280
347,-0.010,-0.270
348,-0.015,-0.275
349,-0.010,-0.275
350,-0.010,-0.280
351,-0.005,-0.270
352,0.000,-0.290
353,0.000,-0.280
354,-0.010,-0.270
355,-0.005,-0.255
356,0.000,-0.250
357,0.005,-0.250
358,0.000,-0.245
359,0.000,-0.250
360,0.000,-0.245
361,0.015,-0.245
362,0.005,-0.235
363,-0.010,-0.265
364,0.000,-0.240
365,0.000,-0.225
366,0.015,-0.225
367,0.000,-0.230
368,0.000,-0.255
369,-0.005,-0.245
370,0.000,-0.250
371,0.015,-0.245
372,0.010,-0.250
373,0.000,-0.240
374,0.000,-0.255
375,0.000,-0.250
376,-0.010,-0.255
377,-0.005,-0.260
378,0.000,-0.240
379,0.015,-0.230
380,0.005,-0.255
381,0.005,-0.235
382,0.010,-0.260
383,0.000,-0.230
384,-0.010,-0.280
385,-0.010,-0.255
386,0.000,-0.260
387,-0.010,-0.245
388,-0.005,-0.235
389,-0.010,-0.215
390,-0.025,-0.220
391,-0.010,-0.225
392,-0.015,-0.230
393,-0.025,-0.235
394,-0.005,-0.225
395,0.000,-0.205
396,-0.020,-0.230
397,-0.010,-0.225
398,-0.015,-0.220
399,-0.005,-0.230
400,-0.015,-0.235
401,-0.010,-0.230
402,-0.015,-0.215
403,0.030,-0.195
404,0.040,-0.180
405,0.030,-0.150
406,0.020,-0.150
407,0.050,-0.185
408,0.010,-0.180
409,-0.010,-0.190
410,-0.025,-0.200
411,-0.020,-0.190
412,-0.035,-0.230
413,-0.005,-0.225
414,-0.020,-0.230
415,-0.035,-0.235
416,-0.060,-0.240
417,-0.055,-0.255
418,-0.030,-0.180
419,0.000,0.105
420,0.035,0.585
421,0.110,0.875
422,0.200,0.765
423,0.300,0.125
424,0.155,-0.370
425,-0.465,-0.320
426,-0.605,-0.260
427,-0.495,-0.260
428,-0.260,-0.260
429,-0.125,-0.260
430,-0.095,-0.265
431,-0.075,-0.270
432,-0.065,-0.280
433,-0.070,-0.275
434,-0.070,-0.275
435,-0.070,-0.280
436,-0.060,-0.275
437,-0.065,-0.275
438,-0.075,-0.265
439,-0.070,-0.280
440,-0.080,-0.250
441,-0.080,-0.270
442,-0.080,-0.265
443,-0.055,-0.265
444,-0.065,-0.250
445,-0.055,-0.265
446,-0.060,-0.275
447,-0.040,-0.245
448,-0.045,-0.275
449,-0.045,-0.280
450,-0.020,-0.290
451,-0.045,-0.275
452,-0.040,-0.280
453,-0.045,-0.290
454,-0.050,-0.310
455,-0.050,-0.300
456,-0.065,-0.315
457,-0.065,-0.325
458,-0.065,-0.310
459,-0.055,-0.295
460,-0.050,-0.270
461,-0.050,-0.250
462,-0.050,-0.235
463,-0.035,-0.220
464,-0.035,-0.210
465,-0.020,-0.205
466,-0.020,-0.230
467,-0.025,-0.210
468,-0.025,-0.220
469,-0.010,-0.215
470,-0.035,-0.220
471,-0.025,-0.220
472,-0.035,-0.195
473,-0.040,-0.205
474,-0.030,-0.205
475,-0.020,-0.205
476,-0.040,-0.205
477,-0.035,-0.195
478,-0.020,-0.210
479,-0.025,-0.200
480,-0.025,-0.205
481,-0.035,-0.220
482,-0.025,-0.205
483,-0.040,-0.190
484,-0.030,-0.190
485,-0.045,-0.180
486,-0.035,-0.185
487,-0.030,-0.195
488,-0.010,-0.180
489,-0.020,-0.190
490,0.000,-0.180
491,-0.015,-0.200
492,-0.015,-0.190
493,-0.005,-0.205
494,-0.020,-0.190
495,-0.020,-0.190
496,-0.010,-0.180
497,-0.030,-0.165
498,-0.010,-0.165
499,0.000,-0.200
500,-0.010,-0.190
501,-0.005,-0.165
502,-0.010,-0.180
503,-0.020,-0.170
504,-0.015,-0.175
505,-0.015,-0.180
506,-0.020,-0.185
507,-0.020,-0.190
508,-0.015,-0.205
509,-0.020,-0.200
510,-0.005,-0.185
511,-0.010,-0.170
512,-0.010,-0.195
513,-0.030,-0.180
514,-0.005,-0.175
515,-0.005,-0.180
516,-0.015,-0.180
517,-0.010,-0.185
518,0.000,-0.165
519,-0.005,-0.155
520,0.000,-0.170
521,0.000,-0.155
522,0.000,-0.145
523,0.005,-0.145
524,0.050,-0.145
525,0.050,-0.135
526,0.080,-0.115
527,0.085,-0.105
528,0.075,-0.125
529,0.070,-0.150
530,0.050,-0.130
531,0.015,-0.155
532,0.035,-0.160
533,0.015,-0.160
534,0.010,-0.155
535,0.025,-0.190
536,0.010,-0.180
537,-0.020,-0.205
538,-0.020,-0.215
539,-0.030,-0.205
540,-0.005,-0.135
541,0.020,0.145
542,0.065,0.555
543,0.150,0.815
544,0.180,0.730
545,0.190,0.175
546,-0.060,-0.255
547,-0.520,-0.285
548,-0.570,-0.210
549,-0.400,-0.205
550,-0.180,-0.210
551,-0.045,-0.220
552,-0.020,-0.195
553,-0.015,-0.210
554,-0.010,-0.185
555,-0.010,-0.210
556,0.000,-0.180
557,0.000,-0.180
558,0.000,-0.180
559,0.000,-0.185
560,0.010,-0.200
561,-0.005,-0.195
562,0.000,-0.180
563,0.030,-0.170
564,0.000,-0.180
565,0.005,-0.180
566,0.010,-0.180
567,0.010,-0.200
568,0.000,-0.195
569,0.000,-0.195
570,0.005,-0.170
571,0.000,-0.190
572,0.000,-0.205
573,0.010,-0.225
574,0.000,-0.225
575,0.000,-0.220
576,0.000,-0.225
577,0.000,-0.240
578,0.000,-0.255
579,-0.010,-0.235
580,0.000,-0.225
581,0.000,-0.205
582,-0.010,-0.195
583,-0.015,-0.185
584,0.000,-0.170
585,0.030,-0.160
586,0.025,-0.165
587,0.010,-0.135
588,0.015,-0.135
589,0.010,-0.160
590,0.020,-0.190
591,0.030,-0.180
592,0.030,-0.185
593,0.015,-0.160
594,0.035,-0.185
595,0.030,-0.185
596,0.040,-0.195
597,0.015,-0.180
598,0.045,-0.190
599,0.025,-0.175
600,0.030,-0.160
601,0.025,-0.140
602,0.020,-0.140
603,0.015,-0.155
604,0.015,-0.150
605,0.015,-0.155
606,0.035,-0.180
607,0.030,-0.150
608,0.015,-0.155
609,0.020,-0.190
610,0.015,-0.195
611,0.015,-0.215
612,0.025,-0.220
613,0.005,-0.190
614,0.020,-0.190
615,0.055,-0.220
616,0.040,-0.195
617,0.030,-0.210
618,0.035,-0.195
619,0.025,-0.195
620,0.015,-0.190
621,0.000,-0.190
622,0.000,-0.190
623,0.010,-0.160
624,0.010,-0.125
625,0.000,-0.115
626,0.020,-0.130
627,0.000,-0.135
628,0.000,-0.140
629,0.005,-0.175
630,0.020,-0.175
631,0.025,-0.140
632,0.020,-0.105
633,0.020,-0.055
634,0.015,-0.020
635,0.020,0.015
636,-0.005,0.070
637,-0.025,0.125
638,-0.030,0.150
639,-0.010,0.110
640,-0.035,0.075
641,-0.005,0.040
642,-0.020,0.030
643,-0.035,0.000
644,-0.040,-0.025
645,-0.040,-0.025
646,-0.050,0.010
647,-0.015,0.070
648,-0.010,0.090
649,0.010,0.070
650,0.000,0.040
651,0.015,0.000
652,0.000,-0.020
653,-0.010,-0.065
654,-0.025,-0.085
655,-0.015,-0.070
656,-0.055,-0.085
657,-0.040,-0.095
658,-0.080,-0.115
659,-0.105,-0.135
660,-0.100,-0.140
661,-0.075,-0.160
662,-0.055,-0.110
663,-0.010,0.165
664,0.020,0.570
665,0.080,0.810
666,0.125,0.745
667,0.200,0.180
668,-0.010,-0.230
669,-0.540,-0.225
670,-0.595,-0.170
671,-0.450,-0.180
672,-0.230,-0.180
673,-0.115,-0.170
674,-0.075,-0.175
675,-0.060,-0.165
676,-0.050,-0.145
677,-0.030,-0.150
678,-0.030,-0.135
679,-0.020,-0.140
680,-0.035,-0.150
681,-0.025,-0.145
682,-0.035,-0.145
683,-0.005,-0.165
684,-0.060,-0.150
685,-0.060,-0.160
686,-0.045,-0.110
687,-0.040,-0.120
688,-0.060,-0.145
689,-0.055,-0.130
690,-0.050,-0.140
691,-0.080,-0.165
692,-0.050,-0.220
693,-0.035,-0.250
694,-0.005,-0.280
695,0.020,-0.280
696,0.030,-0.295
697,0.030,-0.320
698,0.000,-0.335
699,0.005,-0.335
700,0.000,-0.350
701,-0.010,-0.375
702,-0.015,-0.365
703,-0.005,-0.335
704,0.000,-0.320
705,-0.010,-0.315
706,-0.010,-0.275
707,-0.025,-0.250
708,-0.035,-0.255
709,-0.025,-0.235
710,-0.020,-0.215
711,-0.020,-0.210
712,-0.010,-0.245
713,-0.020,-0.260
714,-0.025,-0.230
715,-0.045,-0.205
716,-0.015,-0.210
717,-0.005,-0.235
718,-0.025,-0.225
719,-0.005,-0.240
720,-0.005,-0.270
721,0.015,-0.235
722,0.005,-0.240
723,0.000,-0.255
724,0.000,-0.230
725,0.000,-0.275
726,0.000,-0.285
727,-0.025,-0.235
728,-0.020,-0.190
729,-0.020,-0.225
730,-0.025,-0.230
731,-0.040,-0.230
732,-0.030,-0.210
733,-0.035,-0.205
734,-0.040,-0.175
735,-0.040,-0.170
736,-0.030,-0.195
737,-0.035,-0.205
738,-0.015,-0.215
739,-0.015,-0.230
740,-0.015,-0.205
741,-0.010,-0.225
742,0.000,-0.185
743,-0.015,-0.175
744,-0.010,-0.190
745,0.000,-0.160
746,-0.015,-0.140
747,-0.015,-0.140
748,-0.015,-0.155
749,-0.020,-0.165
750,-0.015,-0.180
751,-0.015,-0.190
752,-0.005,-0.185
753,-0.010,-0.180
754,0.000,-0.185
755,0.000,-0.185
756,0.010,-0.175
757,0.005,-0.190
758,-0.010,-0.215
759,-0.010,-0.190
760,0.000,-0.150
761,0.010,-0.145
762,0.030,-0.115
763,0.050,-0.100
764,0.065,-0.070
765,0.065,-0.055
766,0.075,-0.095
767,0.095,-0.120
768,0.055,-0.150
769,0.045,-0.150
770,0.010,-0.145
771,0.045,-0.155
772,-0.005,-0.120
773,0.000,-0.120
774,0.000,-0.120
775,-0.025,-0.105
776,0.000,-0.115
777,-0.010,-0.050
778,0.020,0.255
779,0.080,0.735
780,0.175,0.975
781,0.255,0.750
782,0.370,0.035
783,0.105,-0.315
784,-0.460,-0.175
785,-0.540,-0.170
786,-0.370,-0.190
787,-0.130,-0.205
788,-0.035,-0.155
789,-0.030,-0.155
790,-0.025,-0.170
791,-0.020,-0.175
792,-0.020,-0.170
793,-0.020,-0.165
794,-0.015,-0.135
795,-0.020,-0.115
796,-0.030,-0.145
797,-0.015,-0.130
798,-0.020,-0.110
799,-0.010,-0.120
800,-0.010,-0.140
801,0.000,-0.145
802,-0.005,-0.145
803,-0.010,-0.140
804,-0.005,-0.165
805,0.000,-0.165
806,-0.010,-0.180
807,0.005,-0.185
808,0.030,-0.205
809,0.010,-0.195
810,-0.005,-0.185
811,0.000,-0.220
812,0.010,-0.205
813,-0.030,-0.210
814,-0.020,-0.230
815,-0.015,-0.220
816,-0.010,-0.245
817,-0.020,-0.225
818,-0.025,-0.210
819,0.015,-0.185
820,0.010,-0.155
821,-0.005,-0.150
822,0.000,-0.145
823,0.000,-0.130
824,0.000,-0.160
825,0.010,-0.160
826,0.025,-0.135
827,0.015,-0.120
828,0.015,-0.120
829,0.020,-0.130
830,0.020,-0.130
831,0.020,-0.150
832,0.025,-0.115
833,0.000,-0.125
834,-0.005,-0.140
835,-0.010,-0.130
836,0.005,-0.145
837,0.000,-0.135
838,-0.010,-0.145
839,-0.005,-0.150
840,-0.020,-0.160
841,-0.010,-0.150
842,-0.010,-0.170
843,-0.015,-0.170
844,-0.010,-0.170
845,-0.010,-0.160
846,-0.025,-0.175
847,-0.010,-0.185
848,-0.005,-0.180
849,-0.010,-0.170
850,-0.025,-0.165
851,-0.040,-0.170
852,-0.035,-0.170
853,-0.050,-0.155
854,-0.040,-0.155
855,-0.030,-0.115
856,-0.030,-0.125
857,-0.025,-0.150
858,-0.035,-0.140
859,-0.065,-0.160
860,-0.045,-0.150
861,-0.055,-0.140
862,-0.060,-0.160
863,-0.055,-0.150
864,-0.065,-0.140
865,-0.055,-0.130
866,-0.080,-0.130
867,-0.050,-0.180
868,-0.095,-0.165
869,-0.120,-0.155
870,-0.075,-0.150
871,-0.075,-0.150
872,-0.090,-0.150
873,-0.065,-0.170
874,-0.055,-0.160
875,-0.055,-0.140
876,-0.035,-0.150
877,-0.015,-0.085
878,-0.040,-0.055
879,-0.005,-0.100
880,-0.035,-0.115
881,-0.085,-0.100
882,-0.090,-0.090
883,-0.045,-0.125
884,-0.090,-0.140
885,-0.045,-0.145
886,-0.055,-0.155
887,-0.060,-0.170
888,-0.060,-0.170
889,-0.080,-0.185
890,-0.050,-0.130
891,-0.015,0.070
892,0.050,0.510
893,0.150,0.850
894,0.170,0.825
895,0.235,0.215
896,-0.035,-0.210
897,-0.515,-0.180
898,-0.560,-0.060
899,-0.325,-0.085
900,-0.120,-0.120
901,-0.045,-0.080
902,0.010,-0.085
903,-0.030,-0.085
904,-0.030,-0.110
905,0.015,-0.100
906,0.025,-0.120
907,0.055,-0.155
908,0.085,-0.145
909,0.060,-0.145
910,0.060,-0.165
911,0.065,-0.170
912,0.060,-0.125
913,0.030,-0.125
914,0.035,-0.130
915,0.000,-0.130
916,-0.015,-0.105
917,0.000,-0.090
918,-0.020,-0.110
919,-0.075,-0.120
920,-0.070,-0.115
921,-0.080,-0.130
922,-0.080,-0.120
923,-0.060,-0.115
924,-0.065,-0.130
925,-0.060,-0.140
926,-0.065,-0.140
927,-0.050,-0.170
928,-0.035,-0.135
929,-0.035,-0.120
930,-0.030,-0.110
931,-0.020,-0.125
932,-0.030,-0.120
933,0.000,-0.100
934,-0.010,-0.100
935,0.000,-0.095
936,-0.005,-0.080
937,-0.025,-0.110
938,-0.010,-0.135
939,-0.070,-0.125
940,-0.075,-0.135
941,-0.050,-0.165
942,-0.075,-0.155
943,-0.065,-0.125
944,-0.060,-0.160
945,-0.090,-0.175
946,-0.075,-0.160
947,-0.070,-0.175
948,-0.080,-0.195
949,-0.080,-0.210
950,-0.090,-0.180
951,-0.090,-0.185
952,-0.100,-0.170
953,-0.105,-0.205
954,-0.080,-0.185
955,-0.090,-0.205
956,-0.090,-0.180
957,-0.095,-0.150
958,-0.090,-0.145
959,-0.105,-0.135
960,-0.100,-0.150
961,-0.095,-0.170
962,-0.100,-0.160
963,-0.095,-0.190
964,-0.080,-0.215
965,-0.075,-0.180
966,-0.080,-0.140
967,-0.100,-0.215
968,-0.095,-0.270
969,-0.090,-0.220
970,-0.110,-0.185
971,-0.085,-0.210
972,-0.090,-0.235
973,-0.120,-0.175
974,-0.130,-0.145
975,-0.155,-0.180
976,-0.150,-0.215
977,-0.140,-0.260
978,-0.135,-0.285
979,-0.150,-0.300
980,-0.140,-0.310
981,-0.150,-0.290
982,-0.130,-0.265
983,-0.145,-0.260
984,-0.130,-0.275
985,-0.120,-0.300
986,-0.125,-0.235
987,-0.135,-0.240
988,-0.120,-0.265
989,-0.105,-0.245
990,-0.085,-0.235
991,-0.095,-0.145
992,-0.090,-0.165
993,-0.060,-0.175
994,-0.085,-0.195
995,-0.095,-0.285
996,-0.130,-0.335
997,-0.105,-0.310
998,-0.135,-0.345
999,-0.135,-0.330
1000,-0.115,-0.330
1001,-0.135,-0.340
1002,-0.150,-0.310
1003,-0.140,-0.280
1004,-0.150,-0.230
1005,-0.125,-0.140
1006,-0.100,0.260
1007,-0.035,0.695
1008,0.025,0.795
1009,0.120,0.430
1010,0.245,-0.170
1011,-0.075,-0.435
1012,-0.620,-0.365
1013,-0.695,-0.340
1014,-0.530,-0.315
1015,-0.315,-0.215
1016,-0.205,-0.210
1017,-0.145,-0.225
1018,-0.130,-0.270
1019,-0.130,-0.225
1020,-0.115,-0.145
1021,-0.120,-0.200
1022,-0.125,-0.180
1023,-0.115,-0.130
1024,-0.130,-0.190
1025,-0.125,-0.185
1026,-0.120,-0.170
1027,-0.145,-0.140
1028,-0.145,-0.075
1029,-0.155,0.115
1030,-0.155,-0.070
1031,-0.160,-0.260
1032,-0.150,-0.175
1033,-0.140,-0.195
1034,-0.140,-0.220
1035,-0.145,-0.200
1036,-0.135,-0.155
1037,-0.150,-0.135
1038,-0.155,-0.125
1039,-0.155,-0.185
1040,-0.160,-0.200
1041,-0.170,-0.190
1042,-0.170,-0.105
1043,-0.185,-0.150
1044,-0.175,-0.145
1045,-0.190,-0.095
1046,-0.190,-0.110
1047,-0.180,-0.145
1048,-0.180,-0.160
1049,-0.165,-0.180
1050,-0.125,-0.125
1051,-0.140,-0.035
1052,-0.135,-0.020
1053,-0.145,-0.055
1054,-0.135,-0.040
1055,-0.135,-0.075
1056,-0.155,-0.135
1057,-0.160,-0.095
1058,-0.145,0.030
1059,-0.155,0.080
1060,-0.140,-0.060
1061,-0.130,-0.185
1062,-0.150,-0.165
1063,-0.145,-0.080
1064,-0.155,-0.065
1065,-0.160,-0.060
1066,-0.160,-0.055
1067,-0.175,-0.090
1068,-0.160,-0.095
1069,-0.180,-0.010
1070,-0.200,-0.150
1071,-0.200,-0.100
1072,-0.220,-0.040
1073,-0.225,0.035
1074,-0.240,-0.025
1075,-0.220,-0.145
1076,-0.275,-0.135
1077,-0.235,-0.150
1078,-0.235,-0.175
1079,-0.215,-0.140
1080,-0.240,-0.125
1081,-0.235,-0.110
1082,-0.240,-0.105
1083,-0.215,-0.110
1084,-0.220,-0.085
1085,-0.240,-0.055
1086,-0.250,-0.075
1087,-0.250,-0.025
1088,-0.240,-0.015
1089,-0.225,-0.020
1090,-0.250,-0.180
1091,-0.245,0.005
1092,-0.245,-0.055
1093,-0.235,-0.155
1094,-0.225,-0.135
1095,-0.200,-0.125
1096,-0.205,-0.080
1097,-0.215,-0.035
1098,-0.210,-0.070
1099,-0.220,-0.115
1100,-0.210,-0.055
1101,-0.240,-0.075
1102,-0.235,-0.085
1103,-0.245,-0.065
1104,-0.225,0.000
1105,-0.170,0.015
1106,-0.200,-0.020
1107,-0.175,0.000
1108,-0.155,0.005
1109,-0.140,0.005
1110,-0.170,-0.005
1111,-0.165,-0.025
1112,-0.180,-0.015
1113,-0.185,0.000
1114,-0.170,0.000
1115,-0.160,-0.080
1116,-0.195,-0.075
1117,-0.165,-0.080
1118,-0.195,-0.090
1119,-0.210,-0.075
1120,-0.200,0.075
1121,-0.155,0.450
1122,-0.085,0.985
1123,0.095,1.325
1124,0.255,1.270
1125,0.385,0.495
1126,0.195,-0.215
1127,-0.480,-0.150
1128,-0.795,-0.025
1129,-0.695,-0.015
1130,-0.450,-0.060
1131,-0.300,-0.070
1132,-0.225,-0.075
1133,-0.200,-0.070
1134,-0.185,-0.035
1135,-0.170,-0.020
1136,-0.165,-0.025
1137,-0.160,-0.030
1138,-0.185,-0.015
1139,-0.155,-0.010
1140,-0.165,0.000
1141,-0.155,-0.040
1142,-0.170,-0.015
1143,-0.130,0.000
1144,-0.135,-0.030
1145,-0.115,-0.040
1146,-0.120,-0.035
1147,-0.100,-0.020
1148,-0.090,-0.045
1149,-0.080,-0.070
1150,-0.080,-0.080
1151,-0.070,-0.075
1152,-0.075,-0.040
1153,-0.060,-0.065
1154,-0.070,-0.100
1155,-0.070,-0.140
1156,-0.075,-0.135
1157,-0.070,-0.080
1158,-0.095,-0.115
1159,-0.095,-0.165
1160,-0.075,-0.125
1161,-0.075,-0.080
1162,-0.080,-0.090
1163,-0.070,-0.085
1164,-0.055,-0.045
1165,-0.040,-0.025
1166,-0.060,0.000
1167,-0.045,0.000
1168,-0.035,-0.005
1169,-0.010,-0.020
1170,-0.030,-0.030
1171,-0.050,-0.005
1172,-0.050,-0.040
1173,-0.050,-0.050
1174,-0.055,-0.020
1175,-0.035,0.005
1176,-0.010,0.005
1177,0.000,0.050
1178,0.020,0.080
1179,0.045,0.075
1180,0.075,0.000
1181,0.090,-0.070
1182,0.055,-0.065
1183,0.000,-0.085
1184,-0.005,-0.085
1185,-0.005,-0.090
1186,0.000,-0.060
1187,0.000,-0.035
1188,-0.020,-0.020
1189,-0.050,-0.015
1190,-0.075,-0.020
1191,-0.085,-0.085
1192,-0.080,-0.120
1193,-0.095,-0.050
1194,-0.045,0.295
1195,0.000,0.915
1196,0.170,1.435
1197,0.310,1.400
1198,0.340,0.510
1199,0.010,-0.170
1200,-0.555,-0.115
1201,-0.705,-0.060
1202,-0.505,-0.060
1203,-0.250,-0.070
1204,-0.130,-0.060
1205,-0.100,-0.065
1206,-0.100,-0.060
1207,-0.075,-0.050
1208,-0.090,-0.050
1209,-0.080,-0.040
1210,-0.075,-0.030
1211,-0.085,-0.035
1212,-0.065,-0.045
1213,-0.065,-0.075
1214,-0.075,-0.060
1215,-0.080,-0.060
1216,-0.090,-0.045
1217,-0.050,-0.045
1218,-0.070,-0.040
1219,-0.055,-0.030
1220,-0.045,-0.055
1221,-0.050,-0.065
1222,-0.025,-0.080
1223,-0.025,-0.090
1224,-0.035,-0.100
1225,-0.035,-0.110
1226,-0.040,-0.130
1227,-0.015,-0.130
1228,-0.030,-0.120
1229,-0.040,-0.115
1230,-0.040,-0.115
1231,-0.030,-0.095
1232,-0.030,-0.070
1233,-0.015,-0.070
1234,-0.010,-0.055
1235,0.000,-0.065
1236,-0.020,-0.040
1237,-0.015,-0.065
1238,-0.010,-0.060
1239,-0.035,-0.060
1240,-0.045,-0.080
1241,-0.035,-0.095
1242,-0.060,-0.090
1243,-0.045,-0.110
1244,-0.050,-0.080
1245,-0.035,-0.095
1246,-0.035,-0.100
1247,-0.015,-0.100
1248,-0.025,-0.100
1249,-0.020,-0.090
1250,-0.020,-0.100
1251,-0.015,-0.110
1252,-0.025,-0.110
1253,-0.020,-0.110
1254,-0.035,-0.110
1255,-0.025,-0.085
1256,-0.020,-0.105
1257,-0.030,-0.130
1258,-0.020,-0.125
1259,-0.035,-0.120
1260,-0.015,-0.135
1261,-0.030,-0.140
1262,-0.030,-0.135
1263,-0.030,-0.130
1264,-0.010,-0.105
1265,-0.020,-0.135
1266,-0.020,-0.145
1267,-0.015,-0.145
1268,-0.005,-0.145
1269,-0.020,-0.140
1270,-0.010,-0.125
1271,-0.020,-0.115
1272,-0.015,-0.120
1273,-0.010,-0.125
1274,-0.010,-0.140
1275,-0.005,-0.140
1276,0.000,-0.140
1277,-0.010,-0.155
1278,-0.015,-0.135
1279,-0.005,-0.125
1280,-0.005,-0.135
1281,0.000,-0.110
1282,-0.005,-0.115
1283,-0.015,-0.135
1284,-0.010,-0.105
1285,-0.010,-0.130
1286,0.000,-0.130
1287,-0.020,-0.130
1288,-0.010,-0.120
1289,-0.030,-0.140
1290,-0.020,-0.130
1291,-0.015,-0.125
1292,-0.020,-0.120
1293,-0.020,-0.135
1294,-0.035,-0.140
1295,-0.045,-0.155
1296,-0.045,-0.140
1297,-0.045,-0.150
1298,-0.035,-0.155
1299,-0.020,-0.150
1300,-0.050,-0.155
1301,-0.045,-0.155
1302,-0.040,-0.145
1303,-0.045,-0.145
1304,-0.045,-0.160
1305,-0.015,-0.175
1306,0.000,-0.155
1307,0.010,-0.145
1308,0.020,-0.175
1309,0.030,-0.080
1310,0.055,0.235
1311,0.095,0.700
1312,0.180,1.065
1313,0.295,0.950
1314,0.330,0.160
1315,0.010,-0.310
1316,-0.575,-0.255
1317,-0.655,-0.180
1318,-0.435,-0.195
1319,-0.180,-0.205
1320,-0.095,-0.195
1321,-0.060,-0.210
1322,-0.070,-0.205
1323,-0.065,-0.210
1324,-0.055,-0.215
1325,-0.075,-0.220
1326,-0.075,-0.240
1327,-0.060,-0.250
1328,-0.050,-0.250
1329,-0.045,-0.245
1330,-0.025,-0.260
1331,-0.040,-0.255
1332,-0.050,-0.260
1333,-0.045,-0.265
1334,-0.045,-0.285
1335,-0.055,-0.275
1336,-0.055,-0.280
1337,-0.050,-0.295
1338,-0.060,-0.285
1339,-0.065,-0.300
1340,-0.065,-0.315
1341,-0.050,-0.320
1342,-0.080,-0.335
1343,-0.070,-0.340
1344,-0.075,-0.345
1345,-0.050,-0.355
1346,-0.040,-0.355
1347,-0.060,-0.355
1348,-0.055,-0.350
1349,-0.050,-0.335
1350,-0.035,-0.290
1351,-0.040,-0.265
1352,-0.045,-0.250
1353,-0.050,-0.220
1354,-0.025,-0.205
1355,-0.025,-0.200
1356,-0.035,-0.205
1357,-0.035,-0.200
1358,-0.030,-0.190
1359,-0.035,-0.205
1360,-0.035,-0.230
1361,-0.025,-0.215
1362,-0.030,-0.230
1363,-0.045,-0.235
1364,-0.055,-0.240
1365,-0.040,-0.230
1366,-0.050,-0.230
1367,-0.050,-0.250
1368,-0.050,-0.250
1369,-0.060,-0.265
1370,-0.085,-0.260
1371,-0.075,-0.250
1372,-0.070,-0.275
1373,-0.065,-0.285
1374,-0.070,-0.270
1375,-0.070,-0.260
1376,-0.070,-0.265
1377,-0.075,-0.260
1378,-0.075,-0.270
1379,-0.080,-0.270
1380,-0.070,-0.260
1381,-0.055,-0.265
1382,-0.060,-0.270
1383,-0.070,-0.275
1384,-0.090,-0.260
1385,-0.065,-0.275
1386,-0.050,-0.285
1387,-0.065,-0.285
1388,-0.075,-0.285
1389,-0.070,-0.285
1390,-0.055,-0.305
1391,-0.055,-0.290
1392,-0.065,-0.290
1393,-0.080,-0.285
1394,-0.070,-0.290
1395,-0.060,-0.290
1396,-0.065,-0.285
1397,-0.070,-0.285
1398,-0.070,-0.295
1399,-0.050,-0.290
1400,-0.075,-0.275
1401,-0.075,-0.280
1402,-0.060,-0.290
1403,-0.055,-0.290
1404,-0.045,-0.280
1405,-0.040,-0.285
1406,-0.055,-0.275
1407,-0.035,-0.245
1408,-0.045,-0.225
1409,-0.035,-0.240
1410,-0.025,-0.250
1411,-0.025,-0.255
1412,-0.025,-0.260
1413,-0.035,-0.245
1414,-0.025,-0.240
1415,-0.030,-0.235
1416,-0.055,-0.245
1417,-0.040,-0.240
1418,-0.060,-0.255
1419,-0.050,-0.270
1420,-0.040,-0.265
1421,-0.035,-0.280
1422,-0.040,-0.280
1423,-0.055,-0.285
1424,-0.060,-0.275
1425,-0.070,-0.280
1426,-0.055,-0.260
1427,-0.070,-0.285
1428,-0.040,-0.290
1429,-0.025,-0.200
1430,0.000,0.030
1431,0.040,0.435
1432,0.140,0.720
1433,0.230,0.615
1434,0.175,0.025
1435,-0.130,-0.385
1436,-0.640,-0.355
1437,-0.690,-0.275
1438,-0.490,-0.285
1439,-0.230,-0.295
1440,-0.115,-0.290
1441,-0.070,-0.295
1442,-0.080,-0.300
1443,-0.070,-0.300
1444,-0.080,-0.295
1445,-0.075,-0.310
1446,-0.065,-0.305
1447,-0.085,-0.310
1448,-0.060,-0.310
1449,-0.075,-0.310
1450,-0.075,-0.315
1451,-0.070,-0.335
1452,-0.055,-0.325
1453,-0.085,-0.330
1454,-0.065,-0.330
1455,-0.065,-0.340
1456,-0.080,-0.360
1457,-0.080,-0.355
1458,-0.080,-0.360
1459,-0.090,-0.365
1460,-0.085,-0.380
1461,-0.090,-0.385
1462,-0.080,-0.400
1463,-0.100,-0.405
1464,-0.085,-0.415
1465,-0.110,-0.430
1466,-0.120,-0.450
1467,-0.115,-0.450
1468,-0.115,-0.440
1469,-0.125,-0.430
1470,-0.115,-0.405
1471,-0.095,-0.370
1472,-0.095,-0.355
1473,-0.090,-0.330
1474,-0.085,-0.310
1475,-0.085,-0.280
1476,-0.075,-0.260
1477,-0.080,-0.265
1478,-0.080,-0.265
1479,-0.080,-0.260
1480,-0.085,-0.280
1481,-0.065,-0.295
1482,-0.085,-0.305
1483,-0.100,-0.305
1484,-0.095,-0.305
1485,-0.100,-0.310
1486,-0.100,-0.305
1487,-0.100,-0.310
1488,-0.100,-0.315
1489,-0.115,-0.300
1490,-0.120,-0.340
1491,-0.120,-0.310
1492,-0.120,-0.310
1493,-0.135,-0.330
1494,-0.125,-0.335
1495,-0.110,-0.335
1496,-0.135,-0.335
1497,-0.135,-0.325
1498,-0.125,-0.330
1499,-0.110,-0.305
1500,-0.145,-0.305
1501,-0.120,-0.305
1502,-0.140,-0.300
1503,-0.145,-0.315
1504,-0.125,-0.315
1505,-0.125,-0.315
1506,-0.130,-0.315
1507,-0.125,-0.310
1508,-0.115,-0.310
1509,-0.130,-0.315
1510,-0.140,-0.310
1511,-0.135,-0.330
1512,-0.120,-0.320
1513,-0.125,-0.320
1514,-0.115,-0.340
1515,-0.130,-0.340
1516,-0.135,-0.325
1517,-0.135,-0.325
1518,-0.150,-0.325
1519,-0.140,-0.345
1520,-0.150,-0.335
1521,-0.140,-0.340
1522,-0.140,-0.340
1523,-0.150,-0.330
1524,-0.130,-0.320
1525,-0.140,-0.320
1526,-0.130,-0.320
1527,-0.125,-0.330
1528,-0.135,-0.315
1529,-0.135,-0.315
1530,-0.130,-0.305
1531,-0.120,-0.310
1532,-0.115,-0.295
1533,-0.120,-0.285
1534,-0.110,-0.300
1535,-0.125,-0.305
1536,-0.120,-0.285
1537,-0.115,-0.295
1538,-0.135,-0.295
1539,-0.150,-0.285
1540,-0.145,-0.305
1541,-0.160,-0.305
1542,-0.160,-0.290
1543,-0.150,-0.290
1544,-0.135,-0.260
1545,-0.115,-0.225
1546,-0.110,-0.210
1547,-0.095,-0.225
1548,-0.110,-0.280
1549,-0.115,-0.275
1550,-0.165,-0.265
1551,-0.185,-0.285
1552,-0.180,-0.295
1553,-0.160,-0.115
1554,-0.115,0.260
1555,-0.045,0.670
1556,0.075,0.785
1557,0.140,0.395
1558,0.175,-0.300
1559,-0.295,-0.485
1560,-0.825,-0.380
1561,-0.780,-0.335
1562,-0.560,-0.350
1563,-0.330,-0.345
1564,-0.235,-0.350
1565,-0.200,-0.345
1566,-0.195,-0.350
1567,-0.185,-0.335
1568,-0.180,-0.325
1569,-0.190,-0.335
1570,-0.185,-0.355
1571,-0.180,-0.345
1572,-0.190,-0.360
1573,-0.190,-0.335
1574,-0.175,-0.350
1575,-0.165,-0.345
1576,-0.170,-0.320
1577,-0.160,-0.370
1578,-0.180,-0.370
1579,-0.160,-0.360
1580,-0.170,-0.385
1581,-0.185,-0.375
1582,-0.165,-0.380
1583,-0.185,-0.370
1584,-0.170,-0.380
1585,-0.190,-0.400
1586,-0.195,-0.425
1587,-0.185,-0.400
1588,-0.200,-0.430
1589,-0.195,-0.450
1590,-0.205,-0.460
1591,-0.195,-0.460
1592,-0.205,-0.460
1593,-0.215,-0.470
1594,-0.190,-0.465
1595,-0.215,-0.420
1596,-0.205,-0.395
1597,-0.205,-0.345
1598,-0.210,-0.335
1599,-0.200,-0.325
1600,-0.215,-0.295
1601,-0.195,-0.295
1602,-0.185,-0.300
1603,-0.190,-0.300
1604,-0.220,-0.290
1605,-0.205,-0.310
1606,-0.225,-0.290
1607,-0.210,-0.285
1608,-0.215,-0.275
1609,-0.220,-0.290
1610,-0.220,-0.320
1611,-0.210,-0.325
1612,-0.220,-0.310
1613,-0.205,-0.320
1614,-0.230,-0.325
1615,-0.220,-0.320
1616,-0.210,-0.310
1617,-0.210,-0.300
1618,-0.215,-0.315
1619,-0.230,-0.315
1620,-0.210,-0.325
1621,-0.225,-0.325
1622,-0.220,-0.300
1623,-0.230,-0.320
1624,-0.220,-0.350
1625,-0.220,-0.330
1626,-0.220,-0.335
1627,-0.220,-0.325
1628,-0.205,-0.300
1629,-0.210,-0.290
1630,-0.200,-0.305
1631,-0.200,-0.320
1632,-0.205,-0.310
1633,-0.205,-0.325
1634,-0.210,-0.330
1635,-0.195,-0.320
1636,-0.210,-0.330
1637,-0.220,-0.315
1638,-0.235,-0.285
1639,-0.220,-0.290
1640,-0.205,-0.325
1641,-0.200,-0.340
1642,-0.200,-0.375
1643,-0.140,-0.385
1644,-0.135,-0.385
1645,-0.130,-0.345
1646,-0.170,-0.225
1647,-0.160,0.050
1648,-0.095,0.515
1649,-0.010,0.805
1650,0.145,0.740
1651,0.205,0.095
1652,0.035,-0.445
1653,-0.635,-0.445
1654,-0.855,-0.315
1655,-0.680,-0.320
1656,-0.410,-0.320
1657,-0.245,-0.315
1658,-0.190,-0.325
1659,-0.190,-0.310
1660,-0.170,-0.290
1661,-0.160,-0.290
1662,-0.165,-0.300
1663,-0.150,-0.280
1664,-0.140,-0.280
1665,-0.145,-0.265
1666,-0.140,-0.270
1667,-0.135,-0.270
1668,-0.125,-0.265
1669,-0.135,-0.270
1670,-0.115,-0.280
1671,-0.120,-0.270
1672,-0.120,-0.280
1673,-0.100,-0.275
1674,-0.115,-0.275
1675,-0.105,-0.290
1676,-0.115,-0.305
1677,-0.135,-0.315
1678,-0.115,-0.330
1679,-0.130,-0.310
1680,-0.120,-0.335
1681,-0.145,-0.350
1682,-0.140,-0.345
1683,-0.155,-0.330
1684,-0.150,-0.350
1685,-0.140,-0.350
1686,-0.150,-0.330
1687,-0.145,-0.290
1688,-0.125,-0.290
1689,-0.130,-0.290
1690,-0.110,-0.255
1691,-0.100,-0.255
1692,-0.110,-0.255
1693,-0.110,-0.245
1694,-0.120,-0.255
1695,-0.120,-0.265
1696,-0.115,-0.265
1697,-0.145,-0.265
1698,-0.140,-0.260
1699,-0.140,-0.260
1700,-0.130,-0.260
1701,-0.140,-0.265
1702,-0.130,-0.270
1703,-0.140,-0.260
1704,-0.155,-0.275
1705,-0.140,-0.300
1706,-0.130,-0.300
1707,-0.155,-0.305
1708,-0.150,-0.305
1709,-0.150,-0.295
1710,-0.170,-0.290
1711,-0.180,-0.290
1712,-0.180,-0.305
1713,-0.180,-0.300
1714,-0.200,-0.310
1715,-0.180,-0.310
1716,-0.180,-0.310
1717,-0.185,-0.325
1718,-0.180,-0.315
1719,-0.185,-0.320
1720,-0.215,-0.315
1721,-0.185,-0.300
1722,-0.205,-0.315
1723,-0.190,-0.300
1724,-0.185,-0.305
1725,-0.200,-0.285
1726,-0.195,-0.285
1727,-0.190,-0.285
1728,-0.225,-0.285
1729,-0.210,-0.295
1730,-0.215,-0.285
1731,-0.210,-0.295
1732,-0.190,-0.295
1733,-0.220,-0.295
1734,-0.225,-0.315
1735,-0.225,-0.315
1736,-0.225,-0.315
1737,-0.230,-0.325
1738,-0.225,-0.315
1739,-0.240,-0.330
1740,-0.220,-0.325
1741,-0.225,-0.315
1742,-0.230,-0.315
1743,-0.235,-0.315
1744,-0.225,-0.315
1745,-0.225,-0.320
1746,-0.225,-0.320
1747,-0.215,-0.320
1748,-0.225,-0.330
1749,-0.230,-0.315
1750,-0.215,-0.315
1751,-0.210,-0.310
1752,-0.215,-0.310
1753,-0.230,-0.310
1754,-0.240,-0.300
1755,-0.215,-0.310
1756,-0.230,-0.315
1757,-0.240,-0.295
1758,-0.240,-0.305
1759,-0.225,-0.310
1760,-0.230,-0.300
1761,-0.235,-0.305
1762,-0.235,-0.310
1763,-0.240,-0.325
1764,-0.245,-0.345
1765,-0.220,-0.335
1766,-0.195,-0.125
1767,-0.150,0.295
1768,-0.045,0.670
1769,0.055,0.610
1770,0.055,-0.005
1771,-0.225,-0.440
1772,-0.820,-0.420
1773,-0.905,-0.325
1774,-0.680,-0.315
1775,-0.400,-0.340
1776,-0.285,-0.350
1777,-0.255,-0.335
1778,-0.260,-0.340
1779,-0.260,-0.330
1780,-0.230,-0.345
1781,-0.235,-0.340
1782,-0.230,-0.350
1783,-0.210,-0.340
1784,-0.225,-0.325
1785,-0.205,-0.325
1786,-0.220,-0.330
1787,-0.205,-0.315
1788,-0.205,-0.330
1789,-0.195,-0.320
1790,-0.190,-0.325
1791,-0.190,-0.340
1792,-0.205,-0.330
1793,-0.185,-0.340
1794,-0.190,-0.335
1795,-0.205,-0.360
1796,-0.190,-0.375
1797,-0.195,-0.380
1798,-0.190,-0.380
1799,-0.200,-0.400
1800,-0.205,-0.405
1801,-0.205,-0.425
1802,-0.205,-0.415
1803,-0.200,-0.410
1804,-0.210,-0.400
1805,-0.220,-0.405
1806,-0.205,-0.370
1807,-0.205,-0.350
1808,-0.195,-0.310
1809,-0.195,-0.305
1810,-0.160,-0.270
1811,-0.175,-0.275
1812,-0.170,-0.265
1813,-0.160,-0.285
1814,-0.155,-0.265
1815,-0.175,-0.260
1816,-0.175,-0.255
1817,-0.160,-0.260
1818,-0.165,-0.265
1819,-0.165,-0.275
1820,-0.160,-0.280
1821,-0.170,-0.275
1822,-0.200,-0.285
1823,-0.175,-0.280
1824,-0.190,-0.295
1825,-0.195,-0.285
1826,-0.210,-0.290
1827,-0.200,-0.310
1828,-0.210,-0.305
1829,-0.225,-0.310
1830,-0.230,-0.315
1831,-0.230,-0.315
1832,-0.245,-0.305
1833,-0.230,-0.320
1834,-0.255,-0.325
1835,-0.260,-0.315
1836,-0.260,-0.320
1837,-0.245,-0.315
1838,-0.260,-0.305
1839,-0.255,-0.320
1840,-0.260,-0.330
1841,-0.255,-0.325
1842,-0.245,-0.320
1843,-0.255,-0.325
1844,-0.260,-0.315
1845,-0.265,-0.325
1846,-0.255,-0.315
1847,-0.260,-0.320
1848,-0.250,-0.325
1849,-0.265,-0.330
1850,-0.250,-0.325
1851,-0.260,-0.335
1852,-0.265,-0.330
1853,-0.265,-0.340
1854,-0.275,-0.350
1855,-0.280,-0.335
1856,-0.265,-0.350
1857,-0.280,-0.340
1858,-0.290,-0.345
1859,-0.280,-0.360
1860,-0.295,-0.370
1861,-0.285,-0.365
1862,-0.300,-0.370
1863,-0.290,-0.375
1864,-0.315,-0.360
1865,-0.310,-0.350
1866,-0.300,-0.355
1867,-0.305,-0.370
1868,-0.305,-0.355
1869,-0.300,-0.355
1870,-0.325,-0.365
1871,-0.315,-0.365
1872,-0.300,-0.375
1873,-0.310,-0.375
1874,-0.320,-0.365
1875,-0.305,-0.365
1876,-0.305,-0.340
1877,-0.300,-0.345
1878,-0.300,-0.335
1879,-0.265,-0.305
1880,-0.260,-0.295
1881,-0.250,-0.295
1882,-0.210,-0.305
1883,-0.230,-0.325
1884,-0.225,-0.215
1885,-0.265,0.090
1886,-0.220,0.475
1887,-0.090,0.595
1888,-0.010,0.215
1889,-0.045,-0.365
1890,-0.520,-0.525
1891,-0.990,-0.415
1892,-0.905,-0.380
1893,-0.650,-0.380
1894,-0.440,-0.385
1895,-0.375,-0.365
1896,-0.350,-0.385
1897,-0.365,-0.390
1898,-0.340,-0.390
1899,-0.340,-0.365
1900,-0.340,-0.375
1901,-0.345,-0.365
1902,-0.335,-0.360
1903,-0.335,-0.380
1904,-0.335,-0.385
1905,-0.335,-0.375
1906,-0.325,-0.370
1907,-0.325,-0.365
1908,-0.340,-0.345
1909,-0.310,-0.355
1910,-0.315,-0.365
1911,-0.310,-0.350
1912,-0.300,-0.345
1913,-0.310,-0.385
1914,-0.295,-0.370
1915,-0.295,-0.390
1916,-0.300,-0.410
1917,-0.310,-0.420
1918,-0.305,-0.415
1919,-0.305,-0.440
1920,-0.310,-0.465
1921,-0.330,-0.465
1922,-0.320,-0.475
1923,-0.315,-0.455
1924,-0.300,-0.440
1925,-0.305,-0.420
1926,-0.310,-0.380
1927,-0.310,-0.365
1928,-0.295,-0.335
1929,-0.285,-0.310
1930,-0.270,-0.270
1931,-0.295,-0.290
1932,-0.285,-0.285
1933,-0.285,-0.290
1934,-0.290,-0.285
1935,-0.295,-0.270
1936,-0.275,-0.250
1937,-0.300,-0.265
1938,-0.280,-0.270
1939,-0.300,-0.255
1940,-0.295,-0.260
1941,-0.285,-0.260
1942,-0.305,-0.260
1943,-0.290,-0.300
1944,-0.310,-0.265
1945,-0.295,-0.265
1946,-0.305,-0.260
1947,-0.290,-0.260
1948,-0.320,-0.270
1949,-0.305,-0.280
1950,-0.320,-0.275
1951,-0.310,-0.285
1952,-0.305,-0.295
1953,-0.295,-0.285
1954,-0.295,-0.290
1955,-0.325,-0.285
1956,-0.315,-0.290
1957,-0.315,-0.280
1958,-0.300,-0.270
1959,-0.315,-0.270
1960,-0.335,-0.285
1961,-0.310,-0.285
1962,-0.335,-0.280
1963,-0.310,-0.265
1964,-0.320,-0.290
1965,-0.300,-0.280
1966,-0.310,-0.295
1967,-0.295,-0.290
1968,-0.310,-0.260
1969,-0.300,-0.265
1970,-0.305,-0.260
1971,-0.305,-0.275
1972,-0.300,-0.260
1973,-0.320,-0.260
1974,-0.285,-0.265
1975,-0.305,-0.270
1976,-0.305,-0.255
1977,-0.295,-0.275
1978,-0.310,-0.280
1979,-0.310,-0.280
1980,-0.315,-0.295
1981,-0.335,-0.290
1982,-0.310,-0.290
1983,-0.325,-0.290
1984,-0.325,-0.315
1985,-0.330,-0.300
1986,-0.320,-0.295
1987,-0.310,-0.295
1988,-0.305,-0.305
1989,-0.320,-0.300
1990,-0.305,-0.300
1991,-0.290,-0.285
1992,-0.270,-0.265
1993,-0.250,-0.235
1994,-0.230,-0.220
1995,-0.225,-0.240
1996,-0.220,-0.285
1997,-0.240,-0.270
1998,-0.285,-0.275
1999,-0.285,-0.290
2000,-0.280,-0.290
2001,-0.280,-0.225
2002,-0.225,0.055
2003,-0.190,0.530
2004,-0.125,0.805
2005,0.050,0.775
2006,0.140,0.170
2007,0.110,-0.460
2008,-0.495,-0.480
2009,-0.915,-0.365
2010,-0.835,-0.345
2011,-0.585,-0.350
2012,-0.390,-0.350
2013,-0.325,-0.340
2014,-0.310,-0.350
2015,-0.295,-0.335
2016,-0.290,-0.350
2017,-0.275,-0.350
2018,-0.285,-0.340
2019,-0.280,-0.350
2020,-0.280,-0.350
2021,-0.275,-0.350
2022,-0.275,-0.340
2023,-0.285,-0.350
2024,-0.255,-0.345
2025,-0.280,-0.345
2026,-0.275,-0.345
2027,-0.260,-0.335
2028,-0.255,-0.365
2029,-0.250,-0.360
2030,-0.240,-0.360
2031,-0.240,-0.360
2032,-0.230,-0.355
2033,-0.235,-0.375
2034,-0.240,-0.385
2035,-0.225,-0.405
2036,-0.240,-0.415
2037,-0.235,-0.430
2038,-0.245,-0.435
2039,-0.245,-0.445
2040,-0.225,-0.440
2041,-0.230,-0.445
2042,-0.230,-0.440
2043,-0.215,-0.425
2044,-0.235,-0.385
2045,-0.225,-0.355
2046,-0.225,-0.350
2047,-0.205,-0.320
2048,-0.190,-0.315
2049,-0.205,-0.295
2050,-0.210,-0.290
2051,-0.200,-0.275
2052,-0.225,-0.275
2053,-0.215,-0.285
2054,-0.215,-0.295
2055,-0.215,-0.285
2056,-0.210,-0.280
2057,-0.210,-0.285
2058,-0.220,-0.270
2059,-0.215,-0.285
2060,-0.235,-0.275
2061,-0.210,-0.265
2062,-0.215,-0.285
2063,-0.220,-0.280
2064,-0.215,-0.260
2065,-0.230,-0.260
2066,-0.235,-0.265
2067,-0.230,-0.270
2068,-0.245,-0.280
2069,-0.235,-0.270
2070,-0.250,-0.280
2071,-0.230,-0.280
2072,-0.235,-0.265
2073,-0.255,-0.275
2074,-0.270,-0.285
2075,-0.250,-0.280
2076,-0.240,-0.270
2077,-0.255,-0.285
2078,-0.255,-0.290
2079,-0.245,-0.275
2080,-0.245,-0.285
2081,-0.250,-0.285
2082,-0.260,-0.280
2083,-0.240,-0.290
2084,-0.250,-0.285
2085,-0.260,-0.275
2086,-0.255,-0.290
2087,-0.265,-0.285
2088,-0.245,-0.280
2089,-0.260,-0.265
2090,-0.270,-0.270
2091,-0.255,-0.285
2092,-0.255,-0.290
2093,-0.250,-0.280
2094,-0.250,-0.290
2095,-0.245,-0.270
2096,-0.245,-0.265
2097,-0.245,-0.260
2098,-0.245,-0.255
2099,-0.245,-0.255
2100,-0.245,-0.275
2101,-0.245,-0.265
2102,-0.250,-0.285
2103,-0.225,-0.280
2104,-0.255,-0.275
2105,-0.240,-0.275
2106,-0.255,-0.275
2107,-0.225,-0.260
2108,-0.200,-0.230
2109,-0.195,-0.215
2110,-0.175,-0.200
2111,-0.160,-0.225
2112,-0.185,-0.270
2113,-0.180,-0.265
2114,-0.250,-0.260
2115,-0.275,-0.280
2116,-0.250,-0.290
2117,-0.245,-0.290
2118,-0.260,-0.305
2119,-0.260,-0.315
2120,-0.270,-0.295
2121,-0.295,-0.170
2122,-0.255,0.105
2123,-0.180,0.465
2124,-0.065,0.640
2125,-0.010,0.460
2126,0.005,-0.120
2127,-0.290,-0.465
2128,-0.825,-0.390
2129,-0.900,-0.315
2130,-0.710,-0.315
2131,-0.450,-0.340
2132,-0.345,-0.340
2133,-0.320,-0.330
2134,-0.310,-0.345
2135,-0.285,-0.325
2136,-0.305,-0.340
2137,-0.295,-0.330
2138,-0.280,-0.335
2139,-0.305,-0.330
2140,-0.285,-0.305
2141,-0.290,-0.335
2142,-0.270,-0.330
2143,-0.285,-0.345
2144,-0.300,-0.345
2145,-0.295,-0.350
2146,-0.280,-0.340
2147,-0.285,-0.350
2148,-0.295,-0.350
2149,-0.285,-0.365
2150,-0.295,-0.350
2151,-0.300,-0.360
2152,-0.295,-0.385
2153,-0.305,-0.390
2154,-0.290,-0.385
2155,-0.290,-0.400
2156,-0.285,-0.410
2157,-0.305,-0.415
2158,-0.315,-0.425
2159,-0.300,-0.420
2160,-0.305,-0.410
2161,-0.310,-0.390
2162,-0.300,-0.395
2163,-0.285,-0.370
2164,-0.270,-0.345
2165,-0.270,-0.335
2166,-0.265,-0.310
2167,-0.275,-0.310
2168,-0.275,-0.305
2169,-0.280,-0.295
2170,-0.255,-0.300
2171,-0.275,-0.310
2172,-0.275,-0.310
2173,-0.315,-0.305
2174,-0.285,-0.305
2175,-0.270,-0.300
2176,-0.295,-0.340
2177,-0.250,-0.305
2178,-0.280,-0.300
2179,-0.290,-0.295
2180,-0.280,-0.295
2181,-0.285,-0.300
2182,-0.285,-0.290
2183,-0.275,-0.290
2184,-0.280,-0.295
2185,-0.275,-0.300
2186,-0.275,-0.300
2187,-0.255,-0.305
2188,-0.260,-0.310
2189,-0.265,-0.300
2190,-0.255,-0.315
2191,-0.265,-0.290
2192,-0.285,-0.285
2193,-0.285,-0.280
2194,-0.285,-0.275
2195,-0.285,-0.300
2196,-0.285,-0.285
2197,-0.280,-0.290
2198,-0.295,-0.285
2199,-0.285,-0.290
2200,-0.280,-0.290
2201,-0.305,-0.295
2202,-0.300,-0.280
2203,-0.310,-0.275
2204,-0.310,-0.295
2205,-0.300,-0.300
2206,-0.295,-0.290
2207,-0.295,-0.295
2208,-0.300,-0.295
2209,-0.280,-0.295
2210,-0.305,-0.300
2211,-0.320,-0.320
2212,-0.305,-0.295
2213,-0.310,-0.310
2214,-0.285,-0.315
2215,-0.290,-0.305
2216,-0.305,-0.320
2217,-0.310,-0.305
2218,-0.295,-0.315
2219,-0.285,-0.300
2220,-0.295,-0.310
2221,-0.280,-0.280
2222,-0.255,-0.260
2223,-0.225,-0.205
2224,-0.200,-0.185
2225,-0.195,-0.215
2226,-0.200,-0.235
2227,-0.220,-0.245
2228,-0.260,-0.250
2229,-0.260,-0.255
2230,-0.265,-0.250
2231,-0.275,-0.270
2232,-0.275,-0.290
2233,-0.285,-0.295
2234,-0.280,-0.300
2235,-0.295,-0.305
2236,-0.305,-0.310
2237,-0.305,-0.265
2238,-0.260,-0.080
2239,-0.220,0.290
2240,-0.130,0.515
2241,-0.075,0.540
2242,-0.045,0.030
2243,-0.170,-0.415
2244,-0.770,-0.415
2245,-0.930,-0.345
2246,-0.780,-0.330
2247,-0.490,-0.335
2248,-0.360,-0.340
2249,-0.325,-0.320
2250,-0.305,-0.345
2251,-0.310,-0.325
2252,-0.320,-0.320
2253,-0.305,-0.320
2254,-0.290,-0.300
2255,-0.290,-0.290
2256,-0.275,-0.300
2257,-0.285,-0.300
2258,-0.265,-0.295
2259,-0.275,-0.280
2260,-0.265,-0.285
2261,-0.265,-0.300
2262,-0.255,-0.295
2263,-0.265,-0.290
2264,-0.255,-0.285
2265,-0.240,-0.295
2266,-0.255,-0.290
2267,-0.255,-0.320
2268,-0.255,-0.320
2269,-0.260,-0.345
2270,-0.265,-0.345
2271,-0.270,-0.345
2272,-0.285,-0.350
2273,-0.285,-0.350
2274,-0.295,-0.360
2275,-0.285,-0.355
2276,-0.310,-0.350
2277,-0.290,-0.340
2278,-0.275,-0.330
2279,-0.290,-0.310
2280,-0.275,-0.295
2281,-0.270,-0.265
2282,-0.260,-0.280
2283,-0.260,-0.280
2284,-0.260,-0.280
2285,-0.260,-0.250
2286,-0.275,-0.275
2287,-0.275,-0.265
2288,-0.290,-0.260
2289,-0.275,-0.290
2290,-0.265,-0.295
2291,-0.285,-0.290
2292,-0.280,-0.280
2293,-0.275,-0.260
2294,-0.280,-0.280
2295,-0.285,-0.285
2296,-0.295,-0.270
2297,-0.280,-0.275
2298,-0.290,-0.285
2299,-0.275,-0.280
2300,-0.290,-0.275
2301,-0.280,-0.280
2302,-0.295,-0.285
2303,-0.285,-0.270
2304,-0.290,-0.260
2305,-0.285,-0.260
2306,-0.290,-0.265
2307,-0.305,-0.270
2308,-0.290,-0.260
2309,-0.300,-0.255
2310,-0.300,-0.270
2311,-0.305,-0.255
2312,-0.285,-0.250
2313,-0.290,-0.250
2314,-0.275,-0.240
2315,-0.295,-0.230
2316,-0.280,-0.240
2317,-0.270,-0.230
2318,-0.285,-0.235
2319,-0.275,-0.230
2320,-0.275,-0.220
2321,-0.280,-0.235
2322,-0.285,-0.220
2323,-0.280,-0.220
2324,-0.280,-0.225
2325,-0.305,-0.225
2326,-0.295,-0.225
2327,-0.285,-0.225
2328,-0.290,-0.245
2329,-0.300,-0.235
2330,-0.285,-0.230
2331,-0.240,-0.195
2332,-0.240,-0.180
2333,-0.225,-0.150
2334,-0.225,-0.145
2335,-0.205,-0.175
2336,-0.245,-0.180
2337,-0.275,-0.175
2338,-0.285,-0.190
2339,-0.275,-0.200
2340,-0.280,-0.230
2341,-0.280,-0.230
2342,-0.315,-0.215
2343,-0.325,-0.245
2344,-0.320,-0.240
2345,-0.305,-0.210
2346,-0.300,-0.030
2347,-0.245,0.395
2348,-0.160,0.745
2349,-0.030,0.830
2350,0.050,0.370
2351,0.070,-0.300
2352,-0.505,-0.375
2353,-0.915,-0.260
2354,-0.840,-0.245
2355,-0.575,-0.245
2356,-0.395,-0.255
2357,-0.350,-0.265
2358,-0.325,-0.250
2359,-0.310,-0.275
2360,-0.305,-0.245
2361,-0.305,-0.245
2362,-0.310,-0.235
2363,-0.320,-0.250
2364,-0.320,-0.250
2365,-0.320,-0.240
2366,-0.315,-0.250
2367,-0.300,-0.260
2368,-0.300,-0.245
2369,-0.285,-0.260
2370,-0.285,-0.245
2371,-0.315,-0.265
2372,-0.295,-0.270
2373,-0.310,-0.275
2374,-0.280,-0.255
2375,-0.280,-0.255
2376,-0.280,-0.250
2377,-0.280,-0.255
2378,-0.285,-0.270
2379,-0.310,-0.290
2380,-0.310,-0.300
2381,-0.310,-0.320
2382,-0.315,-0.320
2383,-0.315,-0.315
2384,-0.315,-0.300
2385,-0.295,-0.275
2386,-0.300,-0.270
2387,-0.305,-0.235
2388,-0.285,-0.255
2389,-0.280,-0.235
2390,-0.285,-0.230
2391,-0.285,-0.225
2392,-0.295,-0.230
2393,-0.305,-0.230
2394,-0.295,-0.240
2395,-0.290,-0.225
2396,-0.280,-0.225
2397,-0.285,-0.235
2398,-0.275,-0.240
2399,-0.280,-0.245
2400,-0.280,-0.240
2401,-0.285,-0.220
2402,-0.280,-0.240
2403,-0.275,-0.230
2404,-0.275,-0.240
2405,-0.280,-0.215
2406,-0.270,-0.225
2407,-0.275,-0.225
2408,-0.255,-0.220
2409,-0.245,-0.220
2410,-0.245,-0.235
2411,-0.260,-0.250
2412,-0.260,-0.260
2413,-0.255,-0.240
2414,-0.260,-0.240
2415,-0.285,-0.245
2416,-0.250,-0.250
2417,-0.260,-0.250
2418,-0.265,-0.245
2419,-0.255,-0.260
2420,-0.245,-0.255
2421,-0.265,-0.255
2422,-0.255,-0.240
2423,-0.260,-0.240
2424,-0.280,-0.250
2425,-0.270,-0.250
2426,-0.230,-0.235
2427,-0.245,-0.230
2428,-0.250,-0.235
2429,-0.255,-0.235
2430,-0.235,-0.230
2431,-0.230,-0.235
2432,-0.250,-0.240
2433,-0.220,-0.250
2434,-0.210,-0.225
2435,-0.235,-0.205
2436,-0.235,-0.240
2437,-0.215,-0.210
2438,-0.175,-0.190
2439,-0.170,-0.150
2440,-0.160,-0.145
2441,-0.130,-0.120
2442,-0.135,-0.145
2443,-0.130,-0.145
2444,-0.165,-0.150
2445,-0.195,-0.175
2446,-0.185,-0.170
2447,-0.195,-0.190
2448,-0.190,-0.205
2449,-0.185,-0.215
2450,-0.185,-0.225
2451,-0.230,-0.235
2452,-0.235,-0.235
2453,-0.235,-0.225
2454,-0.185,-0.025
2455,-0.155,0.330
2456,-0.080,0.645
2457,0.015,0.770
2458,0.050,0.310
2459,0.010,-0.280
2460,-0.530,-0.365
2461,-0.820,-0.280
2462,-0.740,-0.250
2463,-0.485,-0.250
2464,-0.295,-0.250
2465,-0.245,-0.260
2466,-0.220,-0.250
2467,-0.205,-0.230
2468,-0.190,-0.225
2469,-0.215,-0.210
2470,-0.190,-0.230
2471,-0.195,-0.210
2472,-0.200,-0.235
2473,-0.190,-0.210
2474,-0.185,-0.210
2475,-0.175,-0.215
2476,-0.195,-0.220
2477,-0.185,-0.210
2478,-0.185,-0.210
2479,-0.190,-0.215
2480,-0.180,-0.220
2481,-0.180,-0.215
2482,-0.170,-0.215
2483,-0.180,-0.230
2484,-0.195,-0.240
2485,-0.185,-0.240
2486,-0.195,-0.235
2487,-0.185,-0.230
2488,-0.210,-0.260
2489,-0.200,-0.265
2490,-0.205,-0.265
2491,-0.215,-0.270
2492,-0.210,-0.265
2493,-0.220,-0.255
2494,-0.220,-0.250
2495,-0.210,-0.220
2496,-0.200,-0.215
2497,-0.200,-0.215
2498,-0.180,-0.175
2499,-0.190,-0.195
2500,-0.200,-0.200
2501,-0.200,-0.200
2502,-0.220,-0.200
2503,-0.210,-0.205
2504,-0.220,-0.200
2505,-0.235,-0.215
2506,-0.210,-0.210
2507,-0.225,-0.200
2508,-0.235,-0.215
2509,-0.225,-0.230
2510,-0.225,-0.225
2511,-0.225,-0.220
2512,-0.215,-0.240
2513,-0.210,-0.235
2514,-0.230,-0.235
2515,-0.220,-0.235
2516,-0.225,-0.230
2517,-0.245,-0.230
2518,-0.240,-0.240
2519,-0.215,-0.240
2520,-0.240,-0.240
2521,-0.215,-0.250
2522,-0.210,-0.255
2523,-0.235,-0.245
2524,-0.225,-0.250
2525,-0.220,-0.245
2526,-0.210,-0.245
2527,-0.225,-0.255
2528,-0.230,-0.255
2529,-0.225,-0.245
2530,-0.220,-0.240
2531,-0.215,-0.240
2532,-0.210,-0.235
2533,-0.230,-0.240
2534,-0.235,-0.240
2535,-0.230,-0.245
2536,-0.225,-0.250
2537,-0.225,-0.245
2538,-0.220,-0.250
2539,-0.215,-0.255
2540,-0.240,-0.250
2541,-0.220,-0.250
2542,-0.225,-0.265
2543,-0.210,-0.235
2544,-0.215,-0.265
2545,-0.205,-0.260
2546,-0.215,-0.260
2547,-0.230,-0.250
2548,-0.230,-0.235
2549,-0.220,-0.240
2550,-0.225,-0.235
2551,-0.210,-0.215
2552,-0.165,-0.200
2553,-0.175,-0.190
2554,-0.135,-0.175
2555,-0.145,-0.210
2556,-0.155,-0.220
2557,-0.170,-0.210
2558,-0.210,-0.200
2559,-0.225,-0.210
2560,-0.205,-0.215
2561,-0.210,-0.240
2562,-0.230,-0.255
2563,-0.195,-0.255
2564,-0.240,-0.250
2565,-0.240,-0.250
2566,-0.270,-0.245
2567,-0.255,-0.215
2568,-0.225,-0.050
2569,-0.165,0.260
2570,-0.110,0.545
2571,-0.010,0.670
2572,0.000,0.340
2573,-0.010,-0.185
2574,-0.450,-0.380
2575,-0.830,-0.290
2576,-0.815,-0.265
2577,-0.595,-0.275
2578,-0.370,-0.260
2579,-0.265,-0.265
2580,-0.260,-0.260
2581,-0.255,-0.230
2582,-0.235,-0.250
2583,-0.255,-0.250
2584,-0.265,-0.230
2585,-0.245,-0.250
2586,-0.225,-0.235
2587,-0.230,-0.240
2588,-0.220,-0.230
2589,-0.230,-0.235
2590,-0.230,-0.230
2591,-0.215,-0.240
2592,-0.210,-0.240
2593,-0.200,-0.225
2594,-0.205,-0.215
2595,-0.200,-0.210
2596,-0.190,-0.210
2597,-0.200,-0.215
2598,-0.180,-0.230
2599,-0.170,-0.220
2600,-0.185,-0.230
2601,-0.190,-0.235
2602,-0.195,-0.240
2603,-0.215,-0.240
2604,-0.205,-0.245
2605,-0.215,-0.255
2606,-0.210,-0.245
2607,-0.220,-0.235
2608,-0.220,-0.235
2609,-0.220,-0.225
2610,-0.215,-0.210
2611,-0.220,-0.195
2612,-0.200,-0.175
2613,-0.200,-0.185
2614,-0.215,-0.175
2615,-0.210,-0.175
2616,-0.195,-0.200
2617,-0.210,-0.205
2618,-0.200,-0.195
2619,-0.205,-0.190
2620,-0.220,-0.190
2621,-0.230,-0.200
2622,-0.240,-0.200
2623,-0.240,-0.210
2624,-0.230,-0.205
2625,-0.240,-0.195
2626,-0.225,-0.215
2627,-0.240,-0.190
2628,-0.235,-0.195
2629,-0.240,-0.200
2630,-0.235,-0.220
2631,-0.240,-0.210
2632,-0.230,-0.205
2633,-0.250,-0.230
2634,-0.235,-0.225
2635,-0.235,-0.220
2636,-0.240,-0.240
2637,-0.230,-0.225
2638,-0.260,-0.230
2639,-0.270,-0.230
2640,-0.270,-0.235
2641,-0.255,-0.255
2642,-0.260,-0.245
2643,-0.265,-0.250
2644,-0.265,-0.245
2645,-0.265,-0.235
2646,-0.270,-0.230
2647,-0.250,-0.250
2648,-0.275,-0.245
2649,-0.260,-0.245
2650,-0.280,-0.245
2651,-0.270,-0.245
2652,-0.260,-0.245
2653,-0.265,-0.245
2654,-0.260,-0.260
2655,-0.265,-0.245
2656,-0.270,-0.250
2657,-0.265,-0.245
2658,-0.270,-0.235
2659,-0.270,-0.215
2660,-0.260,-0.235
2661,-0.265,-0.215
2662,-0.265,-0.235
2663,-0.270,-0.225
2664,-0.275,-0.240
2665,-0.255,-0.250
2666,-0.275,-0.235
2667,-0.255,-0.210
2668,-0.205,-0.180
2669,-0.210,-0.180
2670,-0.190,-0.175
2671,-0.180,-0.185
2672,-0.195,-0.205
2673,-0.215,-0.215
2674,-0.240,-0.215
2675,-0.255,-0.235
2676,-0.240,-0.235
2677,-0.255,-0.235
2678,-0.270,-0.250
2679,-0.265,-0.265
2680,-0.280,-0.265
2681,-0.275,-0.255
2682,-0.290,-0.260
2683,-0.290,-0.255
2684,-0.270,-0.100
2685,-0.220,0.190
2686,-0.160,0.510
2687,-0.060,0.675
2688,-0.050,0.470
2689,0.000,-0.105
2690,-0.295,-0.375
2691,-0.845,-0.285
2692,-0.870,-0.215
2693,-0.695,-0.230
2694,-0.430,-0.225
2695,-0.305,-0.225
2696,-0.260,-0.215
2697,-0.240,-0.225
2698,-0.230,-0.225
2699,-0.225,-0.230
2700,-0.240,-0.220
2701,-0.240,-0.230
2702,-0.220,-0.230
2703,-0.220,-0.220
2704,-0.225,-0.220
2705,-0.190,-0.230
2706,-0.230,-0.245
2707,-0.220,-0.230
2708,-0.215,-0.220
2709,-0.225,-0.220
2710,-0.225,-0.220
2711,-0.240,-0.240
2712,-0.220,-0.220
2713,-0.205,-0.245
2714,-0.225,-0.230
2715,-0.225,-0.230
2716,-0.235,-0.245
2717,-0.230,-0.245
2718,-0.235,-0.255
2719,-0.220,-0.260
2720,-0.235,-0.265
2721,-0.230,-0.270
2722,-0.225,-0.255
2723,-0.220,-0.245
2724,-0.235,-0.240
2725,-0.235,-0.220
2726,-0.225,-0.195
2727,-0.210,-0.190
2728,-0.210,-0.175
2729,-0.215,-0.170
2730,-0.205,-0.185
2731,-0.210,-0.185
2732,-0.200,-0.195
2733,-0.205,-0.205
2734,-0.215,-0.220
2735,-0.240,-0.205
2736,-0.225,-0.220
2737,-0.230,-0.225
2738,-0.230,-0.240
2739,-0.215,-0.245
2740,-0.240,-0.240
2741,-0.255,-0.230
2742,-0.250,-0.240
2743,-0.240,-0.235
2744,-0.225,-0.240
2745,-0.235,-0.240
2746,-0.235,-0.245
2747,-0.255,-0.255
2748,-0.245,-0.245
2749,-0.235,-0.265
2750,-0.235,-0.255
2751,-0.255,-0.250
2752,-0.245,-0.240
2753,-0.245,-0.245
2754,-0.260,-0.240
2755,-0.260,-0.240
2756,-0.260,-0.220
2757,-0.255,-0.230
2758,-0.265,-0.250
2759,-0.260,-0.220
2760,-0.265,-0.250
2761,-0.260,-0.235
2762,-0.255,-0.230
2763,-0.245,-0.250
2764,-0.245,-0.240
2765,-0.255,-0.225
2766,-0.255,-0.225
2767,-0.250,-0.245
2768,-0.245,-0.255
2769,-0.245,-0.265
2770,-0.270,-0.260
2771,-0.270,-0.255
2772,-0.240,-0.250
2773,-0.245,-0.255
2774,-0.255,-0.255
2775,-0.280,-0.255
2776,-0.275,-0.245
2777,-0.260,-0.250
2778,-0.275,-0.260
2779,-0.270,-0.270
2780,-0.285,-0.260
2781,-0.255,-0.245
2782,-0.215,-0.215
2783,-0.205,-0.195
2784,-0.180,-0.165
2785,-0.170,-0.170
2786,-0.170,-0.195
2787,-0.205,-0.190
2788,-0.225,-0.200
2789,-0.225,-0.200
2790,-0.250,-0.215
2791,-0.235,-0.245
2792,-0.220,-0.250
2793,-0.245,-0.255
2794,-0.285,-0.270
2795,-0.275,-0.275
2796,-0.255,-0.275
2797,-0.265,-0.145
2798,-0.210,0.175
2799,-0.130,0.550
2800,-0.050,0.700
2801,0.010,0.395
2802,0.065,-0.240
2803,-0.360,-0.425
2804,-0.840,-0.315
2805,-0.835,-0.295
2806,-0.590,-0.290
2807,-0.375,-0.300
2808,-0.305,-0.275
2809,-0.270,-0.300
2810,-0.265,-0.290
2811,-0.250,-0.275
2812,-0.240,-0.280
2813,-0.245,-0.275
2814,-0.220,-0.280
2815,-0.235,-0.270
2816,-0.230,-0.255
2817,-0.220,-0.245
2818,-0.215,-0.240
2819,-0.200,-0.240
2820,-0.205,-0.240
2821,-0.190,-0.240
2822,-0.190,-0.245
2823,-0.190,-0.230
2824,-0.190,-0.245
2825,-0.185,-0.235
2826,-0.175,-0.240
2827,-0.185,-0.255
2828,-0.180,-0.260
2829,-0.170,-0.260
2830,-0.180,-0.265
2831,-0.195,-0.290
2832,-0.195,-0.290
2833,-0.220,-0.295
2834,-0.210,-0.285
2835,-0.195,-0.280
2836,-0.200,-0.265
2837,-0.210,-0.245
2838,-0.185,-0.240
2839,-0.175,-0.200
2840,-0.175,-0.210
2841,-0.180,-0.215
2842,-0.185,-0.220
2843,-0.185,-0.220
2844,-0.180,-0.230
2845,-0.185,-0.215
2846,-0.195,-0.220
2847,-0.195,-0.220
2848,-0.200,-0.225
2849,-0.185,-0.215
2850,-0.185,-0.210
2851,-0.175,-0.215
2852,-0.180,-0.205
2853,-0.180,-0.210
2854,-0.190,-0.200
2855,-0.185,-0.205
2856,-0.170,-0.170
2857,-0.155,-0.175
2858,-0.175,-0.140
2859,-0.160,-0.095
2860,-0.130,-0.110
2861,-0.115,-0.185
2862,-0.085,-0.250
2863,-0.095,-0.275
2864,-0.165,-0.290
2865,-0.160,-0.295
2866,-0.175,-0.290
2867,-0.165,-0.255
2868,-0.185,-0.245
2869,-0.190,-0.230
2870,-0.230,-0.240
2871,-0.250,-0.245
2872,-0.235,-0.280
2873,-0.240,-0.250
2874,-0.205,-0.055
2875,-0.165,0.320
2876,-0.090,0.630
2877,0.005,0.675
2878,0.015,0.100
2879,-0.170,-0.340
2880,-0.760,-0.340
2881,-0.875,-0.260
2882,-0.660,-0.265
2883,-0.420,-0.270
2884,-0.305,-0.265
2885,-0.255,-0.275
2886,-0.240,-0.280
2887,-0.250,-0.280
2888,-0.235,-0.275
2889,-0.220,-0.275
2890,-0.230,-0.270
2891,-0.225,-0.280
2892,-0.220,-0.260
2893,-0.210,-0.265
2894,-0.235,-0.275
2895,-0.205,-0.270
2896,-0.200,-0.270
2897,-0.170,-0.280
2898,-0.210,-0.270
2899,-0.220,-0.275
2900,-0.195,-0.265
2901,-0.200,-0.270
2902,-0.180,-0.280
2903,-0.155,-0.290
2904,-0.195,-0.280
2905,-0.195,-0.280
2906,-0.180,-0.300
2907,-0.185,-0.305
2908,-0.180,-0.300
2909,-0.180,-0.310
2910,-0.190,-0.295
2911,-0.200,-0.260
2912,-0.180,-0.230
2913,-0.170,-0.225
2914,-0.160,-0.220
2915,-0.155,-0.235
2916,-0.165,-0.230
2917,-0.150,-0.245
2918,-0.170,-0.245
2919,-0.175,-0.265
2920,-0.180,-0.275
2921,-0.180,-0.270
2922,-0.180,-0.270
2923,-0.220,-0.260
2924,-0.205,-0.265
2925,-0.200,-0.270
2926,-0.185,-0.280
2927,-0.225,-0.290
2928,-0.205,-0.280
2929,-0.200,-0.295
2930,-0.210,-0.275
2931,-0.200,-0.280
2932,-0.205,-0.280
2933,-0.205,-0.275
2934,-0.220,-0.290
2935,-0.215,-0.290
2936,-0.210,-0.280
2937,-0.215,-0.290
2938,-0.210,-0.280
2939,-0.200,-0.285
2940,-0.205,-0.290
2941,-0.205,-0.290
2942,-0.195,-0.290
2943,-0.210,-0.245
2944,-0.200,-0.250
2945,-0.200,-0.255
2946,-0.205,-0.250
2947,-0.215,-0.255
2948,-0.185,-0.260
2949,-0.185,-0.255
2950,-0.185,-0.255
2951,-0.190,-0.275
2952,-0.195,-0.255
2953,-0.175,-0.250
2954,-0.195,-0.280
2955,-0.180,-0.265
2956,-0.190,-0.270
2957,-0.185,-0.270
2958,-0.180,-0.275
2959,-0.185,-0.270
2960,-0.180,-0.275
2961,-0.180,-0.275
2962,-0.180,-0.270
2963,-0.190,-0.275
2964,-0.180,-0.260
2965,-0.195,-0.260
2966,-0.190,-0.260
2967,-0.185,-0.265
2968,-0.185,-0.280
2969,-0.205,-0.270
2970,-0.200,-0.265
2971,-0.210,-0.255
2972,-0.185,-0.260
2973,-0.195,-0.250
2974,-0.205,-0.245
2975,-0.185,-0.240
2976,-0.190,-0.240
2977,-0.200,-0.235
2978,-0.190,-0.230
2979,-0.190,-0.250
2980,-0.185,-0.250
2981,-0.180,-0.255
2982,-0.200,-0.255
2983,-0.180,-0.230
2984,-0.180,-0.240
2985,-0.180,-0.235
2986,-0.185,-0.250
2987,-0.175,-0.250
2988,-0.155,-0.225
2989,-0.120,-0.210
2990,-0.125,-0.190
2991,-0.100,-0.180
2992,-0.095,-0.185
2993,-0.110,-0.185
2994,-0.135,-0.195
2995,-0.145,-0.215
2996,-0.150,-0.225
2997,-0.180,-0.240
2998,-0.190,-0.240
2999,-0.170,-0.250
3000,-0.195,-0.260
3001,-0.210,-0.260
3002,-0.220,-0.265
3003,-0.205,-0.195
3004,-0.170,-0.015
3005,-0.110,0.310
3006,-0.025,0.610
3007,0.015,0.660
3008,0.040,0.160
3009,-0.090,-0.330
3010,-0.660,-0.355
3011,-0.800,-0.265
3012,-0.665,-0.285
3013,-0.420,-0.285
3014,-0.265,-0.285
3015,-0.240,-0.290
3016,-0.240,-0.295
3017,-0.200,-0.285
3018,-0.205,-0.300
3019,-0.215,-0.300
3020,-0.215,-0.295
3021,-0.190,-0.295
3022,-0.200,-0.285
3023,-0.190,-0.300
3024,-0.185,-0.295
3025,-0.180,-0.290
3026,-0.190,-0.285
3027,-0.190,-0.280
3028,-0.195,-0.290
3029,-0.170,-0.280
3030,-0.195,-0.280
3031,-0.175,-0.290
3032,-0.165,-0.300
3033,-0.185,-0.290
3034,-0.180,-0.280
3035,-0.165,-0.275
3036,-0.175,-0.295
3037,-0.175,-0.295
3038,-0.160,-0.295
3039,-0.185,-0.290
3040,-0.165,-0.290
3041,-0.165,-0.300
3042,-0.160,-0.315
3043,-0.175,-0.300
3044,-0.165,-0.290
3045,-0.140,-0.270
3046,-0.160,-0.265
3047,-0.150,-0.265
3048,-0.155,-0.245
3049,-0.155,-0.260
3050,-0.160,-0.255
3051,-0.180,-0.255
3052,-0.160,-0.265
3053,-0.150,-0.265
3054,-0.145,-0.260
3055,-0.165,-0.265
3056,-0.175,-0.250
3057,-0.150,-0.280
3058,-0.175,-0.255
3059,-0.155,-0.255
3060,-0.165,-0.255
3061,-0.160,-0.260
3062,-0.155,-0.275
3063,-0.150,-0.260
3064,-0.165,-0.255
3065,-0.155,-0.270
3066,-0.155,-0.255
3067,-0.150,-0.240
3068,-0.155,-0.245
3069,-0.165,-0.245
3070,-0.165,-0.245
3071,-0.165,-0.235
3072,-0.150,-0.270
3073,-0.160,-0.230
3074,-0.175,-0.245
3075,-0.165,-0.265
3076,-0.185,-0.250
3077,-0.175,-0.250
3078,-0.185,-0.245
3079,-0.170,-0.250
3080,-0.175,-0.240
3081,-0.155,-0.245
3082,-0.180,-0.250
3083,-0.175,-0.250
3084,-0.185,-0.250
3085,-0.165,-0.240
3086,-0.180,-0.240
3087,-0.170,-0.235
3088,-0.185,-0.240
3089,-0.180,-0.250
3090,-0.170,-0.240
3091,-0.195,-0.240
3092,-0.180,-0.235
3093,-0.185,-0.225
3094,-0.185,-0.220
3095,-0.180,-0.240
3096,-0.165,-0.240
3097,-0.175,-0.225
3098,-0.190,-0.230
3099,-0.180,-0.225
3100,-0.180,-0.220
3101,-0.170,-0.230
3102,-0.170,-0.210
3103,-0.170,-0.220
3104,-0.180,-0.215
3105,-0.160,-0.205
3106,-0.180,-0.200
3107,-0.185,-0.210
3108,-0.185,-0.210
3109,-0.180,-0.210
3110,-0.185,-0.200
3111,-0.175,-0.205
3112,-0.170,-0.215
3113,-0.165,-0.225
3114,-0.205,-0.205
3115,-0.180,-0.180
3116,-0.125,-0.160
3117,-0.105,-0.145
3118,-0.100,-0.120
3119,-0.105,-0.150
3120,-0.100,-0.180
3121,-0.125,-0.170
3122,-0.160,-0.170
3123,-0.170,-0.175
3124,-0.165,-0.185
3125,-0.145,-0.195
3126,-0.170,-0.200
3127,-0.170,-0.210
3128,-0.180,-0.225
3129,-0.180,-0.225
3130,-0.180,-0.225
3131,-0.190,-0.175
3132,-0.175,-0.010
3133,-0.105,0.335
3134,-0.050,0.640
3135,0.055,0.805
3136,0.095,0.460
3137,0.140,-0.155
3138,-0.245,-0.360
3139,-0.755,-0.265
3140,-0.765,-0.210
3141,-0.580,-0.225
3142,-0.350,-0.225
3143,-0.235,-0.230
3144,-0.200,-0.225
3145,-0.200,-0.230
3146,-0.190,-0.240
3147,-0.175,-0.240
3148,-0.185,-0.230
3149,-0.190,-0.235
3150,-0.190,-0.235
3151,-0.170,-0.240
3152,-0.185,-0.210
3153,-0.165,-0.220
3154,-0.165,-0.235
3155,-0.175,-0.215
3156,-0.190,-0.245
3157,-0.165,-0.235
3158,-0.150,-0.220
3159,-0.155,-0.245
3160,-0.160,-0.250
3161,-0.160,-0.240
3162,-0.165,-0.240
3163,-0.160,-0.250
3164,-0.150,-0.255
3165,-0.150,-0.260
3166,-0.160,-0.265
3167,-0.165,-0.285
3168,-0.170,-0.290
3169,-0.170,-0.270
3170,-0.175,-0.285
3171,-0.170,-0.290
3172,-0.180,-0.280
3173,-0.185,-0.290
3174,-0.160,-0.260
3175,-0.165,-0.245
3176,-0.160,-0.230
3177,-0.140,-0.235
3178,-0.140,-0.215
3179,-0.145,-0.220
3180,-0.160,-0.215
3181,-0.155,-0.200
3182,-0.140,-0.210
3183,-0.150,-0.215
3184,-0.140,-0.220
3185,-0.150,-0.225
3186,-0.160,-0.215
3187,-0.150,-0.215
3188,-0.155,-0.210
3189,-0.140,-0.215
3190,-0.140,-0.225
3191,-0.150,-0.225
3192,-0.165,-0.225
3193,-0.155,-0.210
3194,-0.165,-0.210
3195,-0.145,-0.215
3196,-0.130,-0.190
3197,-0.140,-0.210
3198,-0.145,-0.215
3199,-0.155,-0.195
3200,-0.175,-0.230
3201,-0.170,-0.215
3202,-0.145,-0.220
3203,-0.125,-0.225
3204,-0.145,-0.235
3205,-0.145,-0.225
3206,-0.145,-0.205
3207,-0.150,-0.210
3208,-0.140,-0.195
3209,-0.155,-0.215
3210,-0.150,-0.210
3211,-0.145,-0.215
3212,-0.155,-0.215
3213,-0.155,-0.215
3214,-0.155,-0.220
3215,-0.135,-0.210
3216,-0.150,-0.200
3217,-0.140,-0.205
3218,-0.150,-0.185
3219,-0.145,-0.205
3220,-0.150,-0.210
3221,-0.150,-0.225
3222,-0.150,-0.200
3223,-0.125,-0.215
3224,-0.135,-0.210
3225,-0.140,-0.215
3226,-0.135,-0.200
3227,-0.120,-0.180
3228,-0.125,-0.190
3229,-0.130,-0.180
3230,-0.125,-0.185
3231,-0.110,-0.185
3232,-0.120,-0.190
3233,-0.135,-0.180
3234,-0.110,-0.190
3235,-0.090,-0.150
3236,-0.060,-0.130
3237,-0.040,-0.115
3238,-0.025,-0.090
3239,-0.020,-0.145
3240,-0.020,-0.175
3241,-0.065,-0.150
3242,-0.090,-0.160
3243,-0.085,-0.180
3244,-0.090,-0.185
3245,-0.115,-0.200
3246,-0.100,-0.205
3247,-0.125,-0.225
3248,-0.125,-0.210
3249,-0.120,-0.195
3250,-0.145,-0.185
3251,-0.095,0.000
3252,-0.045,0.330
3253,0.035,0.625
3254,0.105,0.710
3255,0.130,0.285
3256,0.080,-0.250
3257,-0.420,-0.335
3258,-0.730,-0.225
3259,-0.645,-0.210
3260,-0.405,-0.215
3261,-0.195,-0.195
3262,-0.140,-0.205
3263,-0.120,-0.190
3264,-0.135,-0.225
3265,-0.125,-0.200
3266,-0.115,-0.200
3267,-0.100,-0.200
3268,-0.100,-0.205
3269,-0.100,-0.205
3270,-0.115,-0.200
3271,-0.120,-0.205
3272,-0.105,-0.205
3273,-0.100,-0.210
3274,-0.110,-0.215
3275,-0.115,-0.200
3276,-0.110,-0.205
3277,-0.120,-0.195
3278,-0.115,-0.190
3279,-0.130,-0.200
3280,-0.130,-0.195
3281,-0.120,-0.195
3282,-0.125,-0.205
3283,-0.125,-0.215
3284,-0.130,-0.245
3285,-0.125,-0.235
3286,-0.125,-0.255
3287,-0.125,-0.255
3288,-0.145,-0.220
3289,-0.155,-0.240
3290,-0.155,-0.235
3291,-0.145,-0.225
3292,-0.135,-0.210
3293,-0.115,-0.190
3294,-0.105,-0.155
3295,-0.105,-0.165
3296,-0.095,-0.160
3297,-0.090,-0.160
3298,-0.100,-0.165
3299,-0.100,-0.165
3300,-0.110,-0.175
3301,-0.105,-0.185
3302,-0.100,-0.200
3303,-0.115,-0.165
3304,-0.115,-0.195
3305,-0.105,-0.195
3306,-0.120,-0.205
3307,-0.115,-0.200
3308,-0.130,-0.210
3309,-0.120,-0.175
3310,-0.125,-0.210
3311,-0.125,-0.195
3312,-0.140,-0.200
3313,-0.130,-0.185
3314,-0.115,-0.195
3315,-0.125,-0.180
3316,-0.115,-0.195
3317,-0.115,-0.200
3318,-0.135,-0.210
3319,-0.135,-0.175
3320,-0.135,-0.180
3321,-0.130,-0.185
3322,-0.125,-0.185
3323,-0.105,-0.190
3324,-0.130,-0.205
3325,-0.115,-0.195
3326,-0.135,-0.190
3327,-0.095,-0.180
3328,-0.115,-0.175
3329,-0.100,-0.190
3330,-0.125,-0.170
3331,-0.130,-0.195
3332,-0.120,-0.190
3333,-0.125,-0.190
3334,-0.115,-0.210
3335,-0.100,-0.205
3336,-0.115,-0.210
3337,-0.125,-0.195
3338,-0.125,-0.165
3339,-0.115,-0.175
3340,-0.120,-0.170
3341,-0.135,-0.190
3342,-0.115,-0.195
3343,-0.120,-0.180
3344,-0.115,-0.170
3345,-0.090,-0.200
3346,-0.095,-0.210
3347,-0.105,-0.200
3348,-0.080,-0.200
3349,-0.110,-0.240
3350,-0.100,-0.220
3351,-0.090,-0.190
3352,-0.100,-0.190
3353,-0.080,-0.225
3354,-0.100,-0.190
3355,-0.045,-0.190
3356,-0.015,-0.155
3357,-0.010,-0.135
3358,-0.005,-0.145
3359,0.000,-0.210
3360,-0.010,-0.200
3361,-0.055,-0.195
3362,-0.060,-0.220
3363,-0.070,-0.230
3364,-0.060,-0.240
3365,-0.085,-0.230
3366,-0.075,-0.240
3367,-0.120,-0.235
3368,-0.115,-0.220
3369,-0.110,-0.235
3370,-0.090,-0.140
3371,-0.050,0.070
3372,0.015,0.420
3373,0.080,0.665
3374,0.070,0.485
3375,0.090,-0.055
3376,-0.305,-0.280
3377,-0.695,-0.200
3378,-0.630,-0.150
3379,-0.440,-0.135
3380,-0.245,-0.130
3381,-0.180,-0.170
3382,-0.160,-0.175
3383,-0.170,-0.175
3384,-0.140,-0.175
3385,-0.125,-0.165
3386,-0.125,-0.150
3387,-0.110,-0.170
3388,-0.115,-0.185
3389,-0.105,-0.195
3390,-0.100,-0.195
3391,-0.120,-0.205
3392,-0.115,-0.205
3393,-0.110,-0.160
3394,-0.095,-0.195
3395,-0.090,-0.200
3396,-0.100,-0.190
3397,-0.095,-0.200
3398,-0.110,-0.230
3399,-0.100,-0.200
3400,-0.105,-0.205
3401,-0.105,-0.250
3402,-0.115,-0.255
3403,-0.130,-0.255
3404,-0.140,-0.270
3405,-0.140,-0.250
3406,-0.145,-0.270
3407,-0.160,-0.275
3408,-0.145,-0.275
3409,-0.150,-0.235
3410,-0.145,-0.235
3411,-0.125,-0.250
3412,-0.125,-0.220
3413,-0.135,-0.185
3414,-0.160,-0.190
3415,-0.165,-0.195
3416,-0.165,-0.205
3417,-0.160,-0.215
3418,-0.170,-0.235
3419,-0.170,-0.245
3420,-0.160,-0.225
3421,-0.180,-0.220
3422,-0.165,-0.240
3423,-0.160,-0.235
3424,-0.160,-0.235
3425,-0.160,-0.255
3426,-0.155,-0.255
3427,-0.150,-0.260
3428,-0.180,-0.240
3429,-0.185,-0.260
3430,-0.180,-0.255
3431,-0.170,-0.250
3432,-0.180,-0.265
3433,-0.180,-0.290
3434,-0.180,-0.275
3435,-0.180,-0.255
3436,-0.200,-0.270
3437,-0.180,-0.285
3438,-0.170,-0.265
3439,-0.185,-0.250
3440,-0.185,-0.245
3441,-0.190,-0.230
3442,-0.175,-0.230
3443,-0.180,-0.240
3444,-0.190,-0.250
3445,-0.175,-0.255
3446,-0.185,-0.245
3447,-0.185,-0.255
3448,-0.180,-0.255
3449,-0.190,-0.240
3450,-0.180,-0.230
3451,-0.175,-0.240
3452,-0.205,-0.220
3453,-0.200,-0.245
3454,-0.185,-0.250
3455,-0.195,-0.280
3456,-0.160,-0.265
3457,-0.195,-0.255
3458,-0.190,-0.260
3459,-0.190,-0.245
3460,-0.200,-0.255
3461,-0.190,-0.260
3462,-0.180,-0.260
3463,-0.155,-0.260
3464,-0.180,-0.255
3465,-0.170,-0.245
3466,-0.170,-0.240
3467,-0.160,-0.235
3468,-0.150,-0.235
3469,-0.150,-0.250
3470,-0.140,-0.240
3471,-0.105,-0.210
3472,-0.105,-0.180
3473,-0.075,-0.145
3474,-0.060,-0.140
3475,-0.025,-0.190
3476,-0.045,-0.175
3477,-0.110,-0.180
3478,-0.125,-0.200
3479,-0.115,-0.200
3480,-0.115,-0.190
3481,-0.115,-0.225
3482,-0.125,-0.230
3483,-0.155,-0.245
3484,-0.160,-0.240
3485,-0.140,-0.260
3486,-0.140,-0.210
3487,-0.110,-0.065
3488,-0.095,0.220
3489,-0.050,0.480
3490,-0.015,0.555
3491,0.000,0.215
3492,-0.045,-0.265
3493,-0.550,-0.345
3494,-0.755,-0.290
3495,-0.635,-0.285
3496,-0.395,-0.285
3497,-0.230,-0.280
3498,-0.185,-0.265
3499,-0.170,-0.280
3500,-0.195,-0.290
3501,-0.155,-0.250
3502,-0.130,-0.235
3503,-0.135,-0.220
3504,-0.130,-0.240
3505,-0.135,-0.255
3506,-0.145,-0.230
3507,-0.130,-0.215
3508,-0.130,-0.220
3509,-0.125,-0.200
3510,-0.135,-0.225
3511,-0.140,-0.235
3512,-0.130,-0.235
3513,-0.125,-0.235
3514,-0.130,-0.235
3515,-0.145,-0.240
3516,-0.140,-0.255
3517,-0.155,-0.255
3518,-0.140,-0.255
3519,-0.120,-0.280
3520,-0.155,-0.280
3521,-0.175,-0.285
3522,-0.175,-0.305
3523,-0.200,-0.305
3524,-0.175,-0.300
3525,-0.185,-0.305
3526,-0.170,-0.310
3527,-0.170,-0.270
3528,-0.180,-0.240
3529,-0.160,-0.230
3530,-0.160,-0.225
3531,-0.155,-0.235
3532,-0.175,-0.245
3533,-0.180,-0.215
3534,-0.150,-0.200
3535,-0.160,-0.240
3536,-0.170,-0.205
3537,-0.190,-0.205
3538,-0.160,-0.220
3539,-0.160,-0.240
3540,-0.150,-0.200
3541,-0.160,-0.210
3542,-0.195,-0.200
3543,-0.185,-0.215
3544,-0.180,-0.225
3545,-0.185,-0.225
3546,-0.205,-0.200
3547,-0.200,-0.205
3548,-0.195,-0.280
3549,-0.180,-0.285
3550,-0.155,-0.310
3551,-0.170,-0.350
3552,-0.180,-0.395
3553,-0.190,-0.410
3554,-0.220,-0.365
3555,-0.220,-0.335
3556,-0.230,-0.305
3557,-0.265,-0.260
3558,-0.265,-0.275
3559,-0.270,-0.310
3560,-0.250,-0.305
3561,-0.280,-0.265
3562,-0.260,-0.295
3563,-0.265,-0.290
3564,-0.275,-0.270
3565,-0.300,-0.235
3566,-0.315,-0.285
3567,-0.290,-0.320
3568,-0.275,-0.405
3569,-0.255,-0.440
3570,-0.255,-0.350
3571,-0.225,-0.305
3572,-0.240,-0.295
3573,-0.215,-0.280
3574,-0.220,-0.280
3575,-0.230,-0.260
3576,-0.215,-0.280
3577,-0.215,-0.280
3578,-0.210,-0.270
3579,-0.200,-0.280
3580,-0.210,-0.290
3581,-0.235,-0.330
3582,-0.215,-0.310
3583,-0.200,-0.320
3584,-0.195,-0.330
3585,-0.200,-0.330
3586,-0.200,-0.270
3587,-0.195,-0.230
3588,-0.195,-0.250
3589,-0.215,-0.265
3590,-0.205,-0.270
3591,-0.175,-0.240
3592,-0.145,-0.210
3593,-0.130,-0.190
3594,-0.100,-0.145
3595,-0.105,-0.160
3596,-0.090,-0.170
3597,-0.160,-0.190
3598,-0.160,-0.225
3599,-0.205,-0.270
3600,-0.160,-0.300
3601,-0.080,-0.290
3602,-0.055,-0.305
3603,-0.110,-0.290
3604,-0.165,-0.225
3605,-0.165,-0.180
3606,-0.155,-0.190
3607,-0.165,-0.135
3608,-0.125,0.065
3609,-0.090,0.395
3610,-0.050,0.570
3611,0.015,0.540
3612,0.090,0.075
3613,0.090,-0.395
3614,-0.445,-0.410
3615,-0.755,-0.285
3616,-0.705,-0.235
3617,-0.485,-0.195
3618,-0.355,-0.155
3619,-0.310,-0.125
3620,-0.310,-0.145
3621,-0.295,-0.165
3622,-0.280,-0.195
3623,-0.285,-0.185
3624,-0.275,-0.220
3625,-0.285,-0.185
3626,-0.280,-0.205
3627,-0.270,-0.205
3628,-0.260,-0.195
3629,-0.275,-0.220
3630,-0.210,-0.250
3631,-0.210,-0.270
3632,-0.160,-0.295
3633,-0.125,-0.290
3634,-0.120,-0.275
3635,-0.115,-0.270
3636,-0.125,-0.270
3637,-0.130,-0.285
3638,-0.130,-0.285
3639,-0.145,-0.300
3640,-0.150,-0.315
3641,-0.170,-0.340
3642,-0.175,-0.410
3643,-0.175,-0.455
3644,-0.165,-0.460
3645,-0.185,-0.450
3646,-0.180,-0.440
3647,-0.170,-0.425
3648,-0.190,-0.395
3649,-0.150,-0.355
3650,-0.150,-0.310
3651,-0.155,-0.285
3652,-0.140,-0.270
3653,-0.130,-0.225
3654,-0.140,-0.205
3655,-0.125,-0.210
3656,-0.120,-0.220
3657,-0.110,-0.225
3658,-0.110,-0.205
3659,-0.130,-0.170
3660,-0.125,-0.185
3661,-0.115,-0.175
3662,-0.125,-0.165
3663,-0.135,-0.170
3664,-0.115,-0.190
3665,-0.120,-0.175
3666,-0.130,-0.195
3667,-0.130,-0.215
3668,-0.120,-0.230
3669,-0.120,-0.265
3670,-0.145,-0.305
3671,-0.160,-0.370
3672,-0.145,-0.380
3673,-0.135,-0.390
3674,-0.150,-0.410
3675,-0.155,-0.420
3676,-0.145,-0.425
3677,-0.160,-0.360
3678,-0.175,-0.320
3679,-0.160,-0.290
3680,-0.170,-0.280
3681,-0.160,-0.300
3682,-0.175,-0.320
3683,-0.175,-0.310
3684,-0.190,-0.265
3685,-0.200,-0.280
3686,-0.225,-0.295
3687,-0.245,-0.315
3688,-0.270,-0.375
3689,-0.290,-0.385
3690,-0.275,-0.355
3691,-0.235,-0.335
3692,-0.225,-0.250
3693,-0.170,-0.205
3694,-0.140,-0.170
3695,-0.115,-0.130
3696,-0.090,-0.065
3697,-0.095,-0.005
3698,-0.115,0.035
3699,-0.145,0.070
3700,-0.135,0.135
3701,-0.165,0.185
3702,-0.165,0.145
3703,-0.185,0.055
3704,-0.180,-0.055
3705,-0.180,-0.190
3706,-0.155,-0.280
3707,-0.155,-0.315
3708,-0.150,-0.315
3709,-0.155,-0.365
3710,-0.155,-0.335
3711,-0.135,-0.290
3712,-0.115,-0.245
3713,-0.095,-0.185
3714,-0.070,-0.190
3715,-0.065,-0.210
3716,-0.085,-0.170
3717,-0.110,-0.195
3718,-0.140,-0.215
3719,-0.120,-0.225
3720,-0.120,-0.250
3721,-0.120,-0.245
3722,-0.120,-0.240
3723,-0.115,-0.240
3724,-0.135,-0.250
3725,-0.140,-0.245
3726,-0.140,-0.185
3727,-0.090,-0.060
3728,-0.060,0.265
3729,0.010,0.550
3730,0.055,0.635
3731,0.050,0.230
3732,0.005,-0.235
3733,-0.530,-0.305
3734,-0.715,-0.265
3735,-0.595,-0.255
3736,-0.345,-0.250
3737,-0.180,-0.245
3738,-0.130,-0.260
3739,-0.115,-0.225
3740,-0.105,-0.215
3741,-0.110,-0.245
3742,-0.095,-0.190
3743,-0.105,-0.200
3744,-0.110,-0.225
3745,-0.110,-0.215
3746,-0.120,-0.175
3747,-0.100,-0.190
3748,-0.090,-0.220
3749,-0.095,-0.235
3750,-0.080,-0.235
3751,-0.080,-0.195
3752,-0.070,-0.205
3753,-0.065,-0.210
3754,-0.070,-0.190
3755,-0.070,-0.180
3756,-0.080,-0.175
3757,-0.060,-0.180
3758,-0.075,-0.190
3759,-0.075,-0.215
3760,-0.065,-0.235
3761,-0.080,-0.285
3762,-0.070,-0.325
3763,-0.080,-0.305
3764,-0.095,-0.295
3765,-0.090,-0.325
3766,-0.090,-0.290
3767,-0.100,-0.260
3768,-0.085,-0.220
3769,-0.105,-0.215
3770,-0.100,-0.200
3771,-0.080,-0.190
3772,-0.070,-0.130
3773,-0.090,-0.135
3774,-0.100,-0.145
3775,-0.095,-0.175
3776,-0.100,-0.175
3777,-0.090,-0.160
3778,-0.095,-0.160
3779,-0.120,-0.175
3780,-0.100,-0.150
3781,-0.090,-0.170
3782,-0.100,-0.155
3783,-0.095,-0.160
3784,-0.090,-0.150
3785,-0.090,-0.175
3786,-0.105,-0.175
3787,-0.105,-0.160
3788,-0.105,-0.135
3789,-0.100,-0.140
3790,-0.100,-0.155
3791,-0.125,-0.155
3792,-0.100,-0.150
3793,-0.105,-0.145
3794,-0.115,-0.145
3795,-0.130,-0.150
3796,-0.135,-0.150
3797,-0.145,-0.160
3798,-0.145,-0.130
3799,-0.155,-0.155
3800,-0.155,-0.155
3801,-0.145,-0.145
3802,-0.155,-0.155
3803,-0.150,-0.160
3804,-0.165,-0.160
3805,-0.155,-0.155
3806,-0.160,-0.160
3807,-0.170,-0.140
3808,-0.165,-0.155
3809,-0.165,-0.160
3810,-0.185,-0.145
3811,-0.185,-0.155
3812,-0.165,-0.165
3813,-0.180,-0.180
3814,-0.170,-0.160
3815,-0.190,-0.170
3816,-0.170,-0.155
3817,-0.145,-0.165
3818,-0.175,-0.155
3819,-0.150,-0.140
3820,-0.190,-0.150
3821,-0.170,-0.150
3822,-0.170,-0.125
3823,-0.160,-0.145
3824,-0.160,-0.150
3825,-0.175,-0.155
3826,-0.150,-0.150
3827,-0.155,-0.140
3828,-0.130,-0.130
3829,-0.085,-0.105
3830,-0.110,-0.090
3831,-0.080,-0.115
3832,-0.090,-0.140
3833,-0.110,-0.140
3834,-0.155,-0.130
3835,-0.165,-0.155
3836,-0.155,-0.175
3837,-0.150,-0.175
3838,-0.150,-0.185
3839,-0.160,-0.195
3840,-0.170,-0.200
3841,-0.190,-0.195
3842,-0.175,-0.170
3843,-0.165,-0.015
3844,-0.110,0.275
3845,-0.040,0.570
3846,0.025,0.655
3847,0.035,0.270
3848,0.015,-0.235
3849,-0.500,-0.285
3850,-0.790,-0.185
3851,-0.665,-0.175
3852,-0.385,-0.195
3853,-0.215,-0.165
3854,-0.160,-0.175
3855,-0.150,-0.185
3856,-0.140,-0.180
3857,-0.125,-0.165
3858,-0.135,-0.180
3859,-0.110,-0.175
3860,-0.105,-0.165
3861,-0.105,-0.160
3862,-0.095,-0.160
3863,-0.105,-0.155
3864,-0.085,-0.160
3865,-0.105,-0.175
3866,-0.095,-0.175
3867,-0.105,-0.160
3868,-0.110,-0.175
3869,-0.095,-0.170
3870,-0.095,-0.170
3871,-0.105,-0.180
3872,-0.110,-0.185
3873,-0.115,-0.175
3874,-0.105,-0.200
3875,-0.115,-0.205
3876,-0.110,-0.200
3877,-0.105,-0.210
3878,-0.110,-0.210
3879,-0.115,-0.205
3880,-0.125,-0.220
3881,-0.095,-0.210
3882,-0.110,-0.190
3883,-0.110,-0.175
3884,-0.110,-0.160
3885,-0.120,-0.130
3886,-0.095,-0.135
3887,-0.090,-0.120
3888,-0.080,-0.120
3889,-0.110,-0.125
3890,-0.080,-0.120
3891,-0.075,-0.125
3892,-0.095,-0.125
3893,-0.090,-0.130
3894,-0.100,-0.145
3895,-0.100,-0.140
3896,-0.110,-0.145
3897,-0.100,-0.125
3898,-0.105,-0.145
3899,-0.105,-0.155
3900,-0.120,-0.135
3901,-0.110,-0.135
3902,-0.115,-0.145
3903,-0.120,-0.135
3904,-0.110,-0.155
3905,-0.105,-0.145
3906,-0.120,-0.150
3907,-0.115,-0.150
3908,-0.120,-0.150
3909,-0.115,-0.125
3910,-0.125,-0.140
3911,-0.125,-0.140
3912,-0.135,-0.140
3913,-0.110,-0.140
3914,-0.105,-0.140
3915,-0.115,-0.150
3916,-0.125,-0.140
3917,-0.120,-0.135
3918,-0.120,-0.135
3919,-0.120,-0.145
3920,-0.135,-0.135
3921,-0.125,-0.140
3922,-0.140,-0.160
3923,-0.130,-0.175
3924,-0.125,-0.170
3925,-0.150,-0.180
3926,-0.130,-0.180
3927,-0.120,-0.170
3928,-0.125,-0.170
3929,-0.125,-0.175
3930,-0.155,-0.165
3931,-0.140,-0.170
3932,-0.130,-0.180
3933,-0.125,-0.185
3934,-0.135,-0.180
3935,-0.140,-0.180
3936,-0.120,-0.195
3937,-0.115,-0.185
3938,-0.110,-0.180
3939,-0.115,-0.180
3940,-0.100,-0.160
3941,-0.075,-0.115
3942,-0.040,-0.090
3943,-0.030,-0.070
3944,-0.020,-0.085
3945,-0.025,-0.115
3946,-0.030,-0.115
3947,-0.095,-0.130
3948,-0.055,-0.135
3949,-0.075,-0.155
3950,-0.070,-0.160
3951,-0.075,-0.160
3952,-0.105,-0.180
3953,-0.115,-0.195
3954,-0.105,-0.215
3955,-0.110,-0.170
3956,-0.105,-0.030
3957,-0.055,0.285
3958,0.010,0.570
3959,0.065,0.680
3960,0.105,0.320
3961,0.130,-0.195
3962,-0.340,-0.325
3963,-0.720,-0.215
3964,-0.620,-0.200
3965,-0.385,-0.190
3966,-0.195,-0.200
3967,-0.140,-0.210
3968,-0.140,-0.215
3969,-0.100,-0.205
3970,-0.110,-0.180
3971,-0.105,-0.170
3972,-0.090,-0.170
3973,-0.085,-0.175
3974,-0.065,-0.150
3975,-0.060,-0.165
3976,-0.065,-0.145
3977,-0.065,-0.145
3978,-0.050,-0.160
3979,-0.065,-0.145
3980,-0.055,-0.150
3981,-0.045,-0.145
3982,-0.035,-0.155
3983,-0.035,-0.145
3984,-0.025,-0.160
3985,-0.040,-0.180
3986,-0.065,-0.200
3987,-0.055,-0.185
3988,-0.035,-0.195
3989,-0.040,-0.185
3990,-0.040,-0.195
3991,-0.060,-0.200
3992,-0.045,-0.210
3993,-0.065,-0.215
3994,-0.075,-0.220
3995,-0.065,-0.215
3996,-0.065,-0.195
3997,-0.045,-0.180
3998,-0.040,-0.175
3999,-0.040,-0.155
4000,-0.050,-0.140
4001,-0.045,-0.130
4002,-0.040,-0.120
4003,-0.035,-0.110
4004,-0.025,-0.125
4005,-0.040,-0.120
4006,-0.010,-0.130
4007,-0.030,-0.135
4008,-0.035,-0.135
4009,-0.035,-0.135
4010,-0.045,-0.145
4011,-0.060,-0.150
4012,-0.050,-0.145
4013,-0.050,-0.140
4014,-0.055,-0.165
4015,-0.045,-0.155
4016,-0.040,-0.155
4017,-0.055,-0.160
4018,-0.050,-0.155
4019,-0.055,-0.155
4020,-0.055,-0.155
4021,-0.070,-0.170
4022,-0.065,-0.155
4023,-0.060,-0.165
4024,-0.060,-0.170
4025,-0.075,-0.160
4026,-0.060,-0.160
4027,-0.065,-0.175
4028,-0.060,-0.155
4029,-0.070,-0.155
4030,-0.070,-0.165
4031,-0.070,-0.160
4032,-0.080,-0.170
4033,-0.080,-0.145
4034,-0.070,-0.140
4035,-0.055,-0.140
4036,-0.060,-0.145
4037,-0.055,-0.130
4038,-0.055,-0.120
4039,-0.060,-0.135
4040,-0.060,-0.140
4041,-0.060,-0.125
4042,-0.055,-0.130
4043,-0.065,-0.140
4044,-0.055,-0.135
4045,-0.070,-0.140
4046,-0.050,-0.140
4047,-0.060,-0.130
4048,-0.060,-0.150
4049,-0.060,-0.160
4050,-0.060,-0.170
4051,-0.070,-0.175
4052,-0.070,-0.170
4053,-0.075,-0.175
4054,-0.090,-0.175
4055,-0.080,-0.155
4056,-0.055,-0.140
4057,-0.020,-0.125
4058,-0.030,-0.105
4059,-0.005,-0.100
4060,-0.010,-0.125
4061,-0.005,-0.140
4062,-0.040,-0.140
4063,-0.060,-0.160
4064,-0.070,-0.170
4065,-0.050,-0.160
4066,-0.075,-0.155
4067,-0.050,-0.180
4068,-0.070,-0.165
4069,-0.070,-0.185
4070,-0.080,-0.195
4071,-0.085,-0.185
4072,-0.070,-0.100
4073,-0.010,0.110
4074,0.005,0.415
4075,0.080,0.590
4076,0.110,0.540
4077,0.165,0.040
4078,-0.020,-0.315
4079,-0.575,-0.280
4080,-0.670,-0.195
4081,-0.525,-0.200
4082,-0.290,-0.220
4083,-0.145,-0.245
4084,-0.095,-0.235
4085,-0.095,-0.205
4086,-0.085,-0.215
4087,-0.075,-0.210
4088,-0.070,-0.220
4089,-0.070,-0.215
4090,-0.080,-0.210
4091,-0.060,-0.245
4092,-0.040,-0.270
4093,-0.040,-0.240
4094,-0.040,-0.200
4095,-0.055,-0.210
4096,-0.050,-0.190
4097,-0.045,-0.195
4098,-0.020,-0.205
4099,-0.030,-0.205
4100,0.000,-0.230
4101,-0.030,-0.225
4102,-0.030,-0.225
4103,-0.015,-0.275
4104,-0.035,-0.290
4105,-0.025,-0.270
4106,-0.005,-0.260
4107,-0.020,-0.255
4108,-0.035,-0.280
4109,-0.050,-0.265
4110,-0.060,-0.270
4111,-0.050,-0.305
4112,-0.075,-0.265
4113,-0.060,-0.240
4114,-0.045,-0.240
4115,-0.060,-0.225
4116,-0.040,-0.200
4117,-0.045,-0.155
4118,-0.040,-0.170
4119,-0.055,-0.175
4120,-0.070,-0.180
4121,-0.055,-0.185
4122,-0.020,-0.165
4123,-0.035,-0.185
4124,-0.025,-0.185
4125,-0.025,-0.140
4126,-0.040,-0.135
4127,-0.025,-0.155
4128,-0.025,-0.090
4129,-0.010,-0.065
4130,-0.005,-0.040
4131,-0.025,-0.010
4132,-0.020,0.005
4133,-0.015,-0.030
4134,-0.025,-0.065
4135,-0.035,-0.080
4136,-0.020,-0.130
4137,-0.035,-0.150
4138,-0.005,-0.130
4139,-0.025,-0.075
4140,-0.035,-0.130
4141,-0.015,-0.125
4142,-0.010,-0.125
4143,-0.015,-0.150
4144,-0.015,-0.190
4145,-0.010,-0.205
4146,-0.010,-0.130
4147,0.000,-0.075
4148,-0.010,-0.070
4149,-0.005,-0.050
4150,-0.005,0.000
4151,-0.015,0.000
4152,-0.020,-0.025
4153,-0.030,-0.020
4154,-0.010,-0.025
4155,-0.020,-0.035
4156,-0.010,-0.075
4157,-0.025,-0.110
4158,-0.010,-0.115
4159,-0.025,-0.135
4160,-0.025,-0.170
4161,-0.020,-0.170
4162,0.000,-0.170
4163,-0.025,-0.130
4164,-0.035,-0.135
4165,-0.010,-0.140
4166,-0.045,-0.135
4167,-0.050,-0.150
4168,-0.025,-0.205
4169,-0.050,-0.230
4170,-0.045,-0.225
4171,-0.040,-0.220
4172,-0.045,-0.165
4173,-0.035,-0.125
4174,-0.025,-0.180
4175,-0.010,-0.170
4176,0.005,-0.210
4177,0.015,-0.210
4178,0.020,-0.180
4179,0.040,-0.205
4180,0.025,-0.220
4181,0.000,-0.185
4182,-0.005,-0.210
4183,-0.020,-0.245
4184,-0.015,-0.250
4185,-0.005,-0.250
4186,-0.025,-0.250
4187,-0.025,-0.250
4188,-0.050,-0.245
4189,-0.060,-0.225
4190,-0.065,-0.215
4191,-0.055,-0.135
4192,-0.015,0.095
4193,0.000,0.420
4194,0.080,0.580
4195,0.100,0.515
4196,0.140,0.025
4197,-0.025,-0.275
4198,-0.530,-0.260
4199,-0.640,-0.240
4200,-0.490,-0.255
4201,-0.260,-0.260
4202,-0.110,-0.270
4203,-0.090,-0.270
4204,-0.080,-0.275
4205,-0.060,-0.270
4206,-0.060,-0.265
4207,-0.055,-0.295
4208,-0.030,-0.290
4209,-0.035,-0.275
4210,-0.050,-0.275
4211,-0.045,-0.250
4212,-0.025,-0.260
4213,-0.035,-0.295
4214,-0.045,-0.295
4215,-0.065,-0.320
4216,-0.065,-0.330
4217,-0.060,-0.330
4218,-0.050,-0.330
4219,-0.020,-0.340
4220,-0.040,-0.340
4221,-0.020,-0.350
4222,-0.035,-0.375
4223,-0.020,-0.355
4224,-0.020,-0.365
4225,-0.045,-0.380
4226,-0.055,-0.405
4227,-0.055,-0.410
4228,-0.075,-0.450
4229,-0.065,-0.425
4230,-0.065,-0.400
4231,-0.060,-0.405
4232,-0.070,-0.380
4233,-0.060,-0.340
4234,-0.060,-0.350
4235,-0.060,-0.355
4236,-0.050,-0.275
4237,-0.050,-0.250
4238,-0.060,-0.255
4239,-0.040,-0.260
4240,-0.035,-0.295
4241,-0.030,-0.305
4242,-0.060,-0.280
4243,-0.010,-0.255
4244,-0.020,-0.280
4245,-0.030,-0.275
4246,-0.030,-0.250
4247,-0.040,-0.225
4248,-0.055,-0.220
4249,-0.055,-0.235
4250,-0.030,-0.220
4251,-0.040,-0.215
4252,-0.030,-0.155
4253,0.000,-0.155
4254,0.000,-0.170
4255,0.000,-0.205
4256,-0.005,-0.220
4257,0.000,-0.240
4258,-0.005,-0.235
4259,0.000,-0.255
4260,-0.020,-0.250
4261,0.005,-0.205
4262,-0.020,-0.220
4263,-0.040,-0.230
4264,-0.045,-0.245
4265,-0.025,-0.250
4266,-0.025,-0.245
4267,-0.030,-0.265
4268,-0.010,-0.285
4269,-0.030,-0.235
4270,-0.020,-0.250
4271,-0.010,-0.250
4272,-0.020,-0.240
4273,-0.015,-0.250
4274,-0.010,-0.295
4275,-0.025,-0.305
4276,-0.040,-0.295
4277,-0.050,-0.270
4278,-0.065,-0.250
4279,-0.055,-0.265
4280,-0.075,-0.270
4281,-0.065,-0.230
4282,-0.075,-0.240
4283,-0.085,-0.240
4284,-0.050,-0.260
4285,-0.065,-0.275
4286,-0.090,-0.260
4287,-0.065,-0.285
4288,-0.065,-0.265
4289,-0.060,-0.235
4290,-0.055,-0.210
4291,-0.015,-0.225
4292,0.010,-0.165
4293,0.000,-0.165
4294,0.030,-0.185
4295,0.045,-0.225
4296,0.025,-0.185
4297,0.000,-0.185
4298,-0.025,-0.235
4299,-0.030,-0.270
4300,-0.045,-0.260
4301,-0.040,-0.245
4302,-0.035,-0.250
4303,-0.080,-0.260
4304,-0.100,-0.275
4305,-0.105,-0.280
4306,-0.135,-0.210
4307,-0.095,-0.060
4308,-0.040,0.280
4309,0.000,0.475
4310,0.020,0.425
4311,0.060,-0.100
4312,-0.110,-0.450
4313,-0.665,-0.445
4314,-0.725,-0.410
4315,-0.560,-0.465
4316,-0.325,-0.510
4317,-0.205,-0.460
4318,-0.160,-0.420
4319,-0.145,-0.385
4320,-0.155,-0.340
4321,-0.130,-0.290
4322,-0.125,-0.275
4323,-0.120,-0.290
4324,-0.120,-0.290
4325,-0.125,-0.275
4326,-0.120,-0.275
4327,-0.110,-0.260
4328,-0.110,-0.260
4329,-0.115,-0.245
4330,-0.125,-0.250
4331,-0.105,-0.255
4332,-0.110,-0.250
4333,-0.120,-0.245
4334,-0.100,-0.240
4335,-0.105,-0.260
4336,-0.125,-0.280
4337,-0.100,-0.280
4338,-0.115,-0.300
4339,-0.120,-0.310
4340,-0.120,-0.290
4341,-0.140,-0.315
4342,-0.130,-0.315
4343,-0.120,-0.300
4344,-0.125,-0.310
4345,-0.120,-0.315
4346,-0.130,-0.290
4347,-0.105,-0.255
4348,-0.130,-0.260
4349,-0.100,-0.245
4350,-0.090,-0.205
4351,-0.095,-0.205
4352,-0.105,-0.215
4353,-0.100,-0.210
4354,-0.085,-0.190
4355,-0.085,-0.200
4356,-0.075,-0.210
4357,-0.085,-0.230
4358,-0.090,-0.230
4359,-0.095,-0.240
4360,-0.100,-0.225
4361,-0.090,-0.230
4362,-0.090,-0.230
4363,-0.080,-0.235
4364,-0.085,-0.240
4365,-0.080,-0.240
4366,-0.105,-0.245
4367,-0.100,-0.240
4368,-0.100,-0.245
4369,-0.100,-0.250
4370,-0.110,-0.265
4371,-0.120,-0.245
4372,-0.110,-0.240
4373,-0.105,-0.235
4374,-0.105,-0.235
4375,-0.105,-0.240
4376,-0.115,-0.230
4377,-0.095,-0.230
4378,-0.105,-0.220
4379,-0.095,-0.225
4380,-0.100,-0.200
4381,-0.095,-0.200
4382,-0.100,-0.215
4383,-0.085,-0.215
4384,-0.095,-0.215
4385,-0.100,-0.200
4386,-0.090,-0.205
4387,-0.105,-0.215
4388,-0.095,-0.210
4389,-0.090,-0.200
4390,-0.085,-0.220
4391,-0.085,-0.200
4392,-0.095,-0.230
4393,-0.110,-0.225
4394,-0.105,-0.225
4395,-0.090,-0.225
4396,-0.115,-0.230
4397,-0.100,-0.210
4398,-0.135,-0.225
4399,-0.125,-0.210
4400,-0.120,-0.205
4401,-0.110,-0.195
4402,-0.080,-0.175
4403,-0.045,-0.140
4404,-0.030,-0.135
4405,-0.025,-0.175
4406,-0.035,-0.180
4407,-0.090,-0.180
4408,-0.105,-0.190
4409,-0.075,-0.185
4410,-0.090,-0.195
4411,-0.100,-0.200
4412,-0.085,-0.205
4413,-0.110,-0.200
4414,-0.130,-0.225
4415,-0.130,-0.220
4416,-0.115,-0.140
4417,-0.085,0.120
4418,-0.035,0.500
4419,0.040,0.680
4420,0.120,0.520
4421,0.205,-0.085
4422,-0.045,-0.380
4423,-0.625,-0.270
4424,-0.705,-0.255
4425,-0.525,-0.275
4426,-0.280,-0.260
4427,-0.170,-0.255
4428,-0.150,-0.270
4429,-0.135,-0.255
4430,-0.140,-0.255
4431,-0.120,-0.245
4432,-0.125,-0.230
4433,-0.120,-0.255
4434,-0.125,-0.250
4435,-0.110,-0.240
4436,-0.120,-0.235
4437,-0.115,-0.245
4438,-0.120,-0.250
4439,-0.145,-0.235
4440,-0.125,-0.240
4441,-0.105,-0.245
4442,-0.110,-0.240
4443,-0.110,-0.240
4444,-0.120,-0.265
4445,-0.110,-0.265
4446,-0.110,-0.265
4447,-0.120,-0.275
4448,-0.135,-0.290
4449,-0.130,-0.295
4450,-0.150,-0.315
4451,-0.140,-0.315
4452,-0.145,-0.325
4453,-0.135,-0.340
4454,-0.140,-0.320
4455,-0.135,-0.315
4456,-0.150,-0.295
4457,-0.140,-0.275
4458,-0.130,-0.250
4459,-0.135,-0.240
4460,-0.140,-0.240
4461,-0.140,-0.220
4462,-0.135,-0.220
4463,-0.125,-0.235
4464,-0.130,-0.240
4465,-0.150,-0.250
4466,-0.135,-0.245
4467,-0.145,-0.255
4468,-0.160,-0.255
4469,-0.135,-0.255
4470,-0.140,-0.230
4471,-0.125,-0.220
4472,-0.130,-0.225
4473,-0.155,-0.240
4474,-0.155,-0.230
4475,-0.150,-0.235
4476,-0.145,-0.240
4477,-0.145,-0.255
4478,-0.150,-0.250
4479,-0.155,-0.250
4480,-0.160,-0.250
4481,-0.165,-0.265
4482,-0.150,-0.250
4483,-0.175,-0.280
4484,-0.170,-0.265
4485,-0.180,-0.270
4486,-0.160,-0.270
4487,-0.170,-0.270
4488,-0.160,-0.265
4489,-0.165,-0.275
4490,-0.170,-0.280
4491,-0.170,-0.275
4492,-0.180,-0.270
4493,-0.180,-0.280
4494,-0.155,-0.280
4495,-0.170,-0.280
4496,-0.165,-0.280
4497,-0.155,-0.270
4498,-0.180,-0.270
4499,-0.160,-0.260
4500,-0.155,-0.255
4501,-0.155,-0.250
4502,-0.155,-0.260
4503,-0.145,-0.230
4504,-0.140,-0.235
4505,-0.155,-0.235
4506,-0.140,-0.230
4507,-0.135,-0.245
4508,-0.135,-0.240
4509,-0.135,-0.240
4510,-0.120,-0.220
4511,-0.090,-0.185
4512,-0.080,-0.175
4513,-0.065,-0.165
4514,-0.060,-0.160
4515,-0.050,-0.200
4516,-0.075,-0.185
4517,-0.110,-0.205
4518,-0.140,-0.230
4519,-0.120,-0.240
4520,-0.140,-0.245
4521,-0.130,-0.240
4522,-0.145,-0.250
4523,-0.130,-0.255
4524,-0.160,-0.265
4525,-0.165,-0.275
4526,-0.150,-0.185
4527,-0.110,0.060
4528,-0.070,0.395
4529,0.010,0.580
4530,0.035,0.420
4531,0.030,-0.085
4532,-0.270,-0.350
4533,-0.710,-0.295
4534,-0.725,-0.260
4535,-0.495,-0.270
4536,-0.280,-0.275
4537,-0.185,-0.255
4538,-0.155,-0.270
4539,-0.160,-0.280
4540,-0.145,-0.260
4541,-0.135,-0.275
4542,-0.145,-0.265
4543,-0.125,-0.275
4544,-0.145,-0.265
4545,-0.125,-0.270
4546,-0.135,-0.260
4547,-0.115,-0.265
4548,-0.150,-0.265
4549,-0.135,-0.260
4550,-0.135,-0.255
4551,-0.130,-0.245
4552,-0.125,-0.245
4553,-0.120,-0.240
4554,-0.125,-0.255
4555,-0.110,-0.265
4556,-0.110,-0.265
4557,-0.120,-0.265
4558,-0.120,-0.270
4559,-0.130,-0.285
4560,-0.135,-0.290
4561,-0.135,-0.295
4562,-0.130,-0.295
4563,-0.135,-0.295
4564,-0.140,-0.285
4565,-0.160,-0.290
4566,-0.160,-0.295
4567,-0.150,-0.275
4568,-0.160,-0.260
4569,-0.140,-0.245
4570,-0.140,-0.220
4571,-0.135,-0.240
4572,-0.130,-0.230
4573,-0.120,-0.235
4574,-0.135,-0.230
4575,-0.140,-0.245
4576,-0.135,-0.245
4577,-0.135,-0.240
4578,-0.160,-0.250
4579,-0.175,-0.265
4580,-0.160,-0.250
4581,-0.160,-0.250
4582,-0.150,-0.255
4583,-0.140,-0.255
4584,-0.145,-0.260
4585,-0.140,-0.265
4586,-0.145,-0.260
4587,-0.135,-0.265
4588,-0.130,-0.265
4589,-0.140,-0.270
4590,-0.120,-0.275
4591,-0.145,-0.255
4592,-0.130,-0.255
4593,-0.140,-0.260
4594,-0.115,-0.255
4595,-0.130,-0.265
4596,-0.120,-0.250
4597,-0.150,-0.260
4598,-0.150,-0.255
4599,-0.130,-0.255
4600,-0.145,-0.260
4601,-0.145,-0.255
4602,-0.145,-0.275
4603,-0.145,-0.260
4604,-0.140,-0.255
4605,-0.155,-0.275
4606,-0.130,-0.275
4607,-0.140,-0.275
4608,-0.135,-0.275
4609,-0.140,-0.275
4610,-0.160,-0.255
4611,-0.155,-0.270
4612,-0.135,-0.285
4613,-0.150,-0.275
4614,-0.140,-0.275
4615,-0.150,-0.270
4616,-0.140,-0.265
4617,-0.135,-0.265
4618,-0.155,-0.255
4619,-0.160,-0.270
4620,-0.125,-0.260
4621,-0.155,-0.265
4622,-0.125,-0.265
4623,-0.140,-0.260
4624,-0.130,-0.235
4625,-0.090,-0.210
4626,-0.055,-0.180
4627,-0.050,-0.165
4628,-0.060,-0.155
4629,-0.040,-0.195
4630,-0.040,-0.195
4631,-0.080,-0.170
4632,-0.090,-0.210
4633,-0.080,-0.220
4634,-0.095,-0.220
4635,-0.095,-0.235
4636,-0.085,-0.255
4637,-0.100,-0.255
4638,-0.115,-0.270
4639,-0.120,-0.270
4640,-0.120,-0.235
4641,-0.100,-0.135
4642,-0.045,0.115
4643,0.000,0.415
4644,0.060,0.555
4645,0.080,0.375
4646,0.070,-0.115
4647,-0.210,-0.350
4648,-0.700,-0.310
4649,-0.705,-0.260
4650,-0.495,-0.275
4651,-0.275,-0.275
4652,-0.180,-0.260
4653,-0.155,-0.255
4654,-0.130,-0.230
4655,-0.110,-0.235
4656,-0.100,-0.250
4657,-0.110,-0.230
4658,-0.100,-0.235
4659,-0.090,-0.220
4660,-0.095,-0.220
4661,-0.090,-0.220
4662,-0.090,-0.215
4663,-0.080,-0.215
4664,-0.080,-0.210
4665,-0.085,-0.215
4666,-0.100,-0.220
4667,-0.090,-0.220
4668,-0.075,-0.220
4669,-0.085,-0.225
4670,-0.085,-0.235
4671,-0.095,-0.220
4672,-0.075,-0.250
4673,-0.070,-0.230
4674,-0.095,-0.265
4675,-0.100,-0.260
4676,-0.095,-0.270
4677,-0.110,-0.265
4678,-0.115,-0.270
4679,-0.100,-0.275
4680,-0.100,-0.275
4681,-0.095,-0.260
4682,-0.095,-0.265
4683,-0.105,-0.240
4684,-0.085,-0.230
4685,-0.085,-0.195
4686,-0.055,-0.180
4687,-0.055,-0.190
4688,-0.070,-0.195
4689,-0.070,-0.205
4690,-0.065,-0.190
4691,-0.065,-0.200
4692,-0.070,-0.210
4693,-0.080,-0.210
4694,-0.085,-0.200
4695,-0.095,-0.205
4696,-0.085,-0.215
4697,-0.075,-0.205
4698,-0.100,-0.220
4699,-0.090,-0.225
4700,-0.100,-0.230
4701,-0.105,-0.220
4702,-0.090,-0.230
4703,-0.095,-0.225
4704,-0.100,-0.220
4705,-0.110,-0.230
4706,-0.105,-0.220
4707,-0.125,-0.220
4708,-0.110,-0.245
4709,-0.125,-0.240
4710,-0.120,-0.240
4711,-0.120,-0.220
4712,-0.110,-0.235
4713,-0.125,-0.225
4714,-0.120,-0.240
4715,-0.115,-0.235
4716,-0.085,-0.230
4717,-0.080,-0.205
4718,-0.085,-0.200
4719,-0.085,-0.200
4720,-0.085,-0.195
4721,-0.095,-0.190
4722,-0.090,-0.210
4723,-0.080,-0.200
4724,-0.085,-0.205
4725,-0.080,-0.205
4726,-0.080,-0.210
4727,-0.080,-0.215
4728,-0.085,-0.220
4729,-0.090,-0.210
4730,-0.070,-0.195
4731,-0.085,-0.195
4732,-0.095,-0.200
4733,-0.075,-0.205
4734,-0.080,-0.210
4735,-0.080,-0.230
4736,-0.080,-0.210
4737,-0.090,-0.210
4738,-0.100,-0.220
4739,-0.080,-0.225
4740,-0.075,-0.210
4741,-0.060,-0.180
4742,-0.035,-0.150
4743,-0.020,-0.135
4744,0.000,-0.130
4745,0.000,-0.165
4746,-0.020,-0.165
4747,-0.045,-0.160
4748,-0.060,-0.195
4749,-0.050,-0.175
4750,-0.060,-0.185
4751,-0.055,-0.205
4752,-0.065,-0.210
4753,-0.055,-0.225
4754,-0.085,-0.225
4755,-0.080,-0.235
4756,-0.090,-0.200
4757,-0.065,-0.030
4758,-0.020,0.320
4759,0.020,0.650
4760,0.135,0.755
4761,0.215,0.465
4762,0.310,-0.140
4763,0.000,-0.380
4764,-0.565,-0.270
4765,-0.675,-0.210
4766,-0.480,-0.215
4767,-0.245,-0.225
4768,-0.145,-0.225
4769,-0.100,-0.215
4770,-0.080,-0.225
4771,-0.065,-0.235
4772,-0.060,-0.225
4773,-0.050,-0.225
4774,-0.045,-0.225
4775,-0.050,-0.225
4776,-0.050,-0.220
4777,-0.070,-0.220
4778,-0.035,-0.205
4779,-0.040,-0.195
4780,-0.040,-0.185
4781,-0.030,-0.200
4782,-0.030,-0.180
4783,-0.015,-0.190
4784,-0.005,-0.185
4785,-0.015,-0.185
4786,-0.015,-0.175
4787,-0.020,-0.200
4788,0.000,-0.205
4789,-0.020,-0.230
4790,-0.015,-0.225
4791,-0.015,-0.235
4792,-0.015,-0.235
4793,-0.020,-0.255
4794,-0.015,-0.235
4795,-0.025,-0.275
4796,-0.020,-0.265
4797,-0.010,-0.260
4798,-0.015,-0.255
4799,-0.015,-0.225
4800,-0.015,-0.210
4801,-0.025,-0.205
4802,0.005,-0.190
4803,0.005,-0.160
4804,-0.025,-0.145
4805,-0.010,-0.155
4806,-0.005,-0.155
4807,-0.005,-0.160
4808,0.000,-0.155
4809,0.000,-0.160
4810,0.005,-0.180
4811,-0.005,-0.175
4812,0.000,-0.165
4813,0.000,-0.175
4814,0.000,-0.180
4815,-0.005,-0.180
4816,0.000,-0.165
4817,0.000,-0.155
4818,0.000,-0.155
4819,-0.005,-0.180
4820,-0.040,-0.165
4821,-0.015,-0.165
4822,-0.005,-0.195
4823,-0.010,-0.190
4824,-0.020,-0.200
4825,-0.015,-0.205
4826,-0.030,-0.215
4827,0.000,-0.190
4828,-0.015,-0.195
4829,-0.020,-0.190
4830,-0.025,-0.205
4831,-0.035,-0.195
4832,-0.030,-0.220
4833,-0.025,-0.225
4834,-0.010,-0.220
4835,-0.030,-0.225
4836,-0.040,-0.230
4837,-0.050,-0.230
4838,-0.050,-0.240
4839,-0.065,-0.225
4840,-0.035,-0.250
4841,-0.040,-0.235
4842,-0.045,-0.250
4843,-0.055,-0.245
4844,-0.030,-0.255
4845,-0.025,-0.250
4846,-0.035,-0.260
4847,-0.050,-0.250
4848,-0.040,-0.220
4849,-0.030,-0.240
4850,-0.035,-0.230
4851,-0.035,-0.230
4852,-0.020,-0.220
4853,-0.025,-0.235
4854,-0.020,-0.230
4855,-0.030,-0.235
4856,-0.005,-0.205
4857,0.000,-0.185
4858,0.020,-0.165
4859,0.035,-0.140
4860,0.040,-0.180
4861,0.010,-0.190
4862,0.000,-0.195
4863,-0.020,-0.205
4864,-0.045,-0.250
4865,-0.020,-0.245
4866,-0.030,-0.265
4867,-0.010,-0.250
4868,-0.045,-0.260
4869,-0.045,-0.265
4870,-0.060,-0.270
4871,-0.055,-0.260
4872,-0.030,-0.140
4873,0.000,0.145
4874,0.055,0.460
4875,0.155,0.625
4876,0.175,0.355
4877,0.150,-0.175
4878,-0.235,-0.390
4879,-0.635,-0.305
4880,-0.595,-0.280
4881,-0.375,-0.270
4882,-0.150,-0.265
4883,-0.070,-0.285
4884,-0.060,-0.285
4885,-0.025,-0.280
4886,-0.020,-0.285
4887,-0.010,-0.270
4888,-0.015,-0.260
4889,-0.010,-0.265
4890,0.000,-0.260
4891,0.000,-0.260
4892,0.000,-0.255
4893,0.020,-0.260
4894,0.015,-0.265
4895,0.005,-0.270
4896,0.020,-0.250
4897,0.005,-0.260
4898,0.010,-0.260
4899,0.015,-0.250
4900,0.030,-0.255
4901,0.010,-0.255
4902,0.015,-0.250
4903,0.025,-0.275
4904,0.010,-0.280
4905,0.000,-0.290
4906,0.010,-0.300
4907,0.010,-0.305
4908,0.020,-0.310
4909,0.005,-0.325
4910,0.010,-0.310
4911,0.015,-0.290
4912,0.000,-0.285
4913,0.005,-0.250
4914,0.025,-0.240
4915,0.025,-0.235
4916,0.010,-0.235
4917,0.015,-0.235
4918,0.035,-0.225
4919,0.020,-0.250
4920,0.010,-0.265
4921,0.025,-0.260
4922,0.010,-0.265
4923,0.025,-0.265
4924,0.000,-0.265
4925,0.005,-0.270
4926,0.000,-0.270
4927,0.000,-0.260
4928,0.005,-0.265
4929,0.005,-0.270
4930,-0.015,-0.265
4931,0.000,-0.275
4932,0.000,-0.270
4933,-0.005,-0.265
4934,0.000,-0.280
4935,-0.020,-0.285
4936,-0.010,-0.275
4937,-0.015,-0.295
4938,-0.010,-0.280
4939,-0.005,-0.270
4940,-0.010,-0.280
4941,-0.010,-0.260
4942,0.000,-0.265
4943,-0.005,-0.270
4944,0.000,-0.275
4945,-0.010,-0.280
4946,-0.010,-0.300
4947,-0.005,-0.275
4948,-0.015,-0.290
4949,0.000,-0.295
4950,-0.010,-0.290
4951,-0.020,-0.290
4952,-0.010,-0.315
4953,-0.025,-0.295
4954,-0.015,-0.295
4955,-0.020,-0.310
4956,-0.030,-0.320
4957,-0.035,-0.335
4958,-0.035,-0.345
4959,-0.040,-0.335
4960,-0.045,-0.335
4961,-0.040,-0.335
4962,-0.045,-0.330
4963,-0.050,-0.330
4964,-0.035,-0.325
4965,-0.050,-0.325
4966,-0.055,-0.330
4967,-0.050,-0.345
4968,-0.050,-0.320
4969,-0.025,-0.320
4970,-0.020,-0.305
4971,0.005,-0.280
4972,0.015,-0.260
4973,0.045,-0.250
4974,0.025,-0.270
4975,0.005,-0.270
4976,-0.020,-0.270
4977,-0.035,-0.305
4978,-0.035,-0.320
4979,-0.015,-0.325
4980,-0.015,-0.335
4981,-0.015,-0.350
4982,-0.040,-0.350
4983,-0.050,-0.365
4984,-0.050,-0.350
4985,-0.050,-0.290
4986,-0.030,-0.110
4987,0.025,0.235
4988,0.110,0.455
4989,0.130,0.420
4990,0.140,-0.110
4991,-0.060,-0.480
4992,-0.600,-0.430
4993,-0.650,-0.385
4994,-0.465,-0.395
4995,-0.210,-0.410
4996,-0.100,-0.390
4997,-0.070,-0.390
4998,-0.050,-0.395
4999,-0.050,-0.390
5000,-0.060,-0.395
5001,-0.025,-0.400
5002,-0.035,-0.395
5003,-0.040,-0.390
5004,-0.020,-0.380
5005,-0.025,-0.365
5006,-0.010,-0.370
5007,-0.020,-0.370
5008,-0.005,-0.360
5009,-0.005,-0.370
5010,0.000,-0.375
5011,-0.020,-0.360
5012,-0.010,-0.380
5013,-0.010,-0.375
5014,0.000,-0.365
5015,0.000,-0.385
5016,0.000,-0.370
5017,-0.005,-0.380
5018,-0.005,-0.400
5019,-0.010,-0.410
5020,0.000,-0.425
5021,-0.005,-0.425
5022,-0.020,-0.455
5023,-0.035,-0.460
5024,-0.030,-0.440
5025,-0.025,-0.425
5026,-0.025,-0.400
5027,-0.020,-0.385
5028,-0.015,-0.355
5029,-0.010,-0.360
5030,0.000,-0.340
5031,0.010,-0.355
5032,0.005,-0.355
5033,-0.005,-0.375
5034,0.000,-0.365
5035,-0.010,-0.375
5036,0.000,-0.360
5037,0.000,-0.380
5038,0.000,-0.370
5039,0.000,-0.370
5040,-0.015,-0.365
5041,-0.020,-0.360
5042,-0.020,-0.370
5043,-0.020,-0.365
5044,-0.020,-0.360
5045,-0.015,-0.370
5046,-0.020,-0.385
5047,-0.020,-0.375
5048,-0.030,-0.375
5049,0.000,-0.385
5050,-0.020,-0.385
5051,-0.020,-0.370
5052,-0.015,-0.390
5053,-0.010,-0.380
5054,-0.030,-0.390
5055,-0.040,-0.365
5056,-0.065,-0.370
5057,-0.040,-0.385
5058,-0.025,-0.385
5059,-0.055,-0.365
5060,-0.055,-0.380
5061,-0.050,-0.375
5062,-0.045,-0.350
5063,-0.035,-0.390
5064,-0.040,-0.385
5065,-0.030,-0.380
5066,-0.025,-0.380
5067,-0.035,-0.385
5068,-0.030,-0.365
5069,-0.030,-0.365
5070,-0.025,-0.355
5071,-0.045,-0.345
5072,-0.040,-0.360
5073,-0.045,-0.365
5074,-0.025,-0.370
5075,-0.020,-0.360
5076,-0.055,-0.365
5077,-0.060,-0.375
5078,-0.040,-0.370
5079,-0.045,-0.370
5080,-0.055,-0.360
5081,-0.050,-0.370
5082,-0.045,-0.385
5083,-0.045,-0.390
5084,-0.050,-0.375
5085,-0.015,-0.365
5086,0.000,-0.350
5087,-0.005,-0.315
5088,0.000,-0.315
5089,0.000,-0.350
5090,0.005,-0.370
5091,-0.040,-0.350
5092,-0.040,-0.370
5093,-0.030,-0.385
5094,-0.040,-0.385
5095,-0.050,-0.395
5096,-0.055,-0.395
5097,-0.055,-0.410
5098,-0.070,-0.420
5099,-0.065,-0.435
5100,-0.075,-0.405
5101,-0.055,-0.210
5102,0.010,0.190
5103,0.065,0.510
5104,0.190,0.595
5105,0.260,0.160
5106,0.310,-0.440
5107,-0.200,-0.535
5108,-0.640,-0.430
5109,-0.600,-0.410
5110,-0.365,-0.420
5111,-0.155,-0.415
5112,-0.105,-0.415
5113,-0.065,-0.420
5114,-0.070,-0.435
5115,-0.060,-0.430
5116,-0.035,-0.440
5117,-0.020,-0.440
5118,-0.040,-0.430
5119,-0.050,-0.440
5120,-0.060,-0.425
5121,-0.050,-0.435
5122,-0.030,-0.410
5123,-0.050,-0.405
5124,-0.055,-0.410
5125,-0.035,-0.425
5126,-0.030,-0.430
5127,-0.030,-0.420
5128,-0.030,-0.420
5129,-0.030,-0.430
5130,-0.015,-0.435
5131,-0.035,-0.435
5132,-0.025,-0.425
5133,-0.035,-0.450
5134,-0.030,-0.445
5135,-0.030,-0.455
5136,-0.040,-0.475
5137,-0.025,-0.480
5138,-0.050,-0.490
5139,-0.040,-0.480
5140,-0.045,-0.465
5141,-0.045,-0.460
5142,-0.040,-0.420
5143,-0.030,-0.385
5144,0.010,-0.385
5145,-0.020,-0.360
5146,-0.015,-0.375
5147,-0.005,-0.365
5148,0.000,-0.370
5149,-0.005,-0.370
5150,-0.005,-0.380
5151,-0.005,-0.380
5152,0.000,-0.370
5153,-0.005,-0.365
5154,0.000,-0.350
5155,0.005,-0.355
5156,-0.005,-0.340
5157,-0.020,-0.345
5158,-0.020,-0.360
5159,-0.015,-0.370
5160,0.000,-0.370
5161,-0.005,-0.370
5162,-0.010,-0.350
5163,0.000,-0.350
5164,0.000,-0.350
5165,0.000,-0.320
5166,-0.005,-0.340
5167,0.000,-0.345
5168,-0.015,-0.345
5169,0.000,-0.360
5170,0.005,-0.355
5171,0.000,-0.360
5172,0.000,-0.355
5173,0.000,-0.365
5174,-0.005,-0.355
5175,-0.005,-0.345
5176,0.010,-0.345
5177,-0.010,-0.355
5178,0.000,-0.360
5179,0.000,-0.365
5180,0.005,-0.360
5181,-0.005,-0.360
5182,0.000,-0.355
5183,-0.010,-0.350
5184,0.005,-0.350
5185,-0.005,-0.350
5186,0.010,-0.345
5187,0.000,-0.360
5188,0.000,-0.360
5189,-0.015,-0.370
5190,0.005,-0.355
5191,-0.005,-0.365
5192,0.000,-0.370
5193,0.000,-0.355
5194,0.020,-0.345
5195,0.010,-0.355
5196,0.000,-0.335
5197,0.000,-0.355
5198,0.015,-0.370
5199,0.010,-0.355
5200,0.025,-0.340
5201,0.055,-0.320
5202,0.065,-0.315
5203,0.095,-0.310
5204,0.080,-0.265
5205,0.085,-0.315
5206,0.085,-0.315
5207,0.035,-0.325
5208,0.025,-0.345
5209,0.025,-0.350
5210,0.020,-0.385
5211,0.025,-0.390
5212,0.030,-0.400
5213,0.020,-0.395
5214,-0.005,-0.410
5215,-0.015,-0.415
5216,-0.020,-0.405
5217,0.010,-0.240
5218,0.065,0.065
5219,0.115,0.390
5220,0.225,0.520
5221,0.265,0.215
5222,0.300,-0.350
5223,-0.095,-0.525
5224,-0.555,-0.445
5225,-0.545,-0.410
5226,-0.345,-0.425
5227,-0.120,-0.425
5228,-0.020,-0.440
5229,0.010,-0.440
5230,0.010,-0.440
5231,0.010,-0.440
5232,0.015,-0.440
5233,0.030,-0.435
5234,0.020,-0.425
5235,0.025,-0.435
5236,0.040,-0.425
5237,0.025,-0.430
5238,0.040,-0.425
5239,0.040,-0.430
5240,0.045,-0.430
5241,0.035,-0.425
5242,0.040,-0.420
5243,0.035,-0.435
5244,0.035,-0.435
5245,0.040,-0.420
5246,0.030,-0.440
5247,0.040,-0.430
5248,0.050,-0.440
5249,0.035,-0.455
5250,0.010,-0.465
5251,0.035,-0.470
5252,0.050,-0.465
5253,0.015,-0.480
5254,0.020,-0.485
5255,0.015,-0.500
5256,0.020,-0.480
5257,0.035,-0.455
5258,0.030,-0.445
5259,0.055,-0.420
5260,0.055,-0.410
5261,0.055,-0.410
5262,0.050,-0.385
5263,0.045,-0.380
5264,0.060,-0.385
5265,0.070,-0.370
5266,0.055,-0.390
5267,0.070,-0.380
5268,0.055,-0.400
5269,0.055,-0.390
5270,0.045,-0.410
5271,0.050,-0.380
5272,0.065,-0.395
5273,0.070,-0.390
5274,0.045,-0.395
5275,0.050,-0.400
5276,0.045,-0.390
5277,0.055,-0.390
5278,0.065,-0.380
5279,0.070,-0.385
5280,0.070,-0.385
5281,0.090,-0.395
5282,0.080,-0.395
5283,0.080,-0.390
5284,0.085,-0.380
5285,0.090,-0.375
5286,0.080,-0.360
5287,0.090,-0.375
5288,0.085,-0.380
5289,0.080,-0.375
5290,0.075,-0.375
5291,0.085,-0.360
5292,0.095,-0.365
5293,0.095,-0.380
5294,0.070,-0.375
5295,0.085,-0.365
5296,0.075,-0.380
5297,0.075,-0.375
5298,0.075,-0.390
5299,0.080,-0.385
5300,0.060,-0.395
5301,0.075,-0.395
5302,0.060,-0.380
5303,0.045,-0.375
5304,0.075,-0.375
5305,0.060,-0.390
5306,0.060,-0.370
5307,0.040,-0.370
5308,0.070,-0.360
5309,0.060,-0.385
5310,0.055,-0.355
5311,0.075,-0.370
5312,0.050,-0.375
5313,0.080,-0.370
5314,0.080,-0.375
5315,0.065,-0.355
5316,0.090,-0.340
5317,0.060,-0.320
5318,0.065,-0.345
5319,0.095,-0.345
5320,0.105,-0.315
5321,0.135,-0.290
5322,0.140,-0.285
5323,0.165,-0.270
5324,0.150,-0.310
5325,0.165,-0.320
5326,0.125,-0.315
5327,0.100,-0.320
5328,0.095,-0.340
5329,0.090,-0.345
5330,0.095,-0.375
5331,0.090,-0.365
5332,0.080,-0.375
5333,0.065,-0.365
5334,0.070,-0.385
5335,0.040,-0.370
5336,0.065,-0.270
5337,0.120,-0.015
5338,0.155,0.305
5339,0.255,0.490
5340,0.270,0.285
5341,0.240,-0.235
5342,-0.150,-0.470
5343,-0.530,-0.415
5344,-0.485,-0.395
5345,-0.270,-0.400
5346,-0.045,-0.395
5347,0.030,-0.395
5348,0.035,-0.405
5349,0.045,-0.400
5350,0.055,-0.415
5351,0.075,-0.410
5352,0.060,-0.395
5353,0.060,-0.400
5354,0.055,-0.390
5355,0.075,-0.375
5356,0.070,-0.375
5357,0.085,-0.380
5358,0.080,-0.380
5359,0.085,-0.380
5360,0.080,-0.380
5361,0.075,-0.380
5362,0.085,-0.380
5363,0.075,-0.390
5364,0.070,-0.390
5365,0.070,-0.380
5366,0.075,-0.395
5367,0.095,-0.390
5368,0.080,-0.405
5369,0.085,-0.400
5370,0.085,-0.410
5371,0.080,-0.420
5372,0.070,-0.440
5373,0.060,-0.450
5374,0.080,-0.410
5375,0.075,-0.395
5376,0.085,-0.375
5377,0.085,-0.360
5378,0.090,-0.360
5379,0.100,-0.340
5380,0.110,-0.350
5381,0.100,-0.330
5382,0.105,-0.310
5383,0.105,-0.340
5384,0.075,-0.330
5385,0.105,-0.355
5386,0.095,-0.350
5387,0.100,-0.340
5388,0.085,-0.355
5389,0.085,-0.340
5390,0.090,-0.355
5391,0.085,-0.355
5392,0.080,-0.355
5393,0.085,-0.355
5394,0.075,-0.355
5395,0.065,-0.355
5396,0.070,-0.345
5397,0.095,-0.345
5398,0.070,-0.340
5399,0.085,-0.360
5400,0.065,-0.345
5401,0.080,-0.345
5402,0.070,-0.360
5403,0.075,-0.360
5404,0.065,-0.340
5405,0.075,-0.345
5406,0.075,-0.325
5407,0.065,-0.330
5408,0.080,-0.300
5409,0.070,-0.315
5410,0.085,-0.310
5411,0.070,-0.325
5412,0.085,-0.320
5413,0.085,-0.325
5414,0.070,-0.315
5415,0.095,-0.320
5416,0.065,-0.305
5417,0.075,-0.315
5418,0.090,-0.320
5419,0.075,-0.335
5420,0.085,-0.305
5421,0.075,-0.315
5422,0.060,-0.295
5423,0.055,-0.310
5424,0.050,-0.310
5425,0.075,-0.300
5426,0.060,-0.320
5427,0.075,-0.300
5428,0.065,-0.305
5429,0.050,-0.300
5430,0.055,-0.295
5431,0.065,-0.295
5432,0.055,-0.305
5433,0.065,-0.290
5434,0.070,-0.275
5435,0.100,-0.245
5436,0.100,-0.215
5437,0.130,-0.205
5438,0.155,-0.200
5439,0.175,-0.230
5440,0.155,-0.225
5441,0.100,-0.225
5442,0.070,-0.250
5443,0.095,-0.260
5444,0.095,-0.275
5445,0.085,-0.285
5446,0.095,-0.285
5447,0.070,-0.290
5448,0.065,-0.310
5449,0.050,-0.305
5450,0.050,-0.240
5451,0.085,-0.035
5452,0.140,0.350
5453,0.215,0.590
5454,0.285,0.575
5455,0.355,0.025
5456,0.250,-0.420
5457,-0.355,-0.380
5458,-0.540,-0.320
5459,-0.410,-0.295
5460,-0.145,-0.320
5461,-0.005,-0.305
5462,0.025,-0.315
5463,0.040,-0.295
5464,0.040,-0.285
5465,0.060,-0.290
5466,0.080,-0.280
5467,0.085,-0.295
5468,0.090,-0.300
5469,0.075,-0.275
5470,0.080,-0.280
5471,0.080,-0.270
5472,0.085,-0.275
5473,0.075,-0.270
5474,0.075,-0.280
5475,0.075,-0.275
5476,0.075,-0.280
5477,0.080,-0.280
5478,0.065,-0.295
5479,0.070,-0.300
5480,0.075,-0.315
5481,0.050,-0.315
5482,0.060,-0.320
5483,0.045,-0.340
5484,0.050,-0.355
5485,0.060,-0.350
5486,0.045,-0.340
5487,0.040,-0.355
5488,0.060,-0.360
5489,0.050,-0.345
5490,0.040,-0.330
5491,0.050,-0.305
5492,0.065,-0.285
5493,0.080,-0.270
5494,0.075,-0.255
5495,0.080,-0.255
5496,0.085,-0.235
5497,0.095,-0.245
5498,0.080,-0.260
5499,0.090,-0.245
5500,0.075,-0.260
5501,0.075,-0.245
5502,0.095,-0.265
5503,0.080,-0.255
5504,0.085,-0.265
5505,0.065,-0.260
5506,0.070,-0.275
5507,0.090,-0.265
5508,0.090,-0.265
5509,0.080,-0.270
5510,0.085,-0.265
5511,0.060,-0.255
5512,0.055,-0.250
5513,0.050,-0.255
5514,0.075,-0.250
5515,0.060,-0.250
5516,0.075,-0.260
5517,0.065,-0.280
5518,0.065,-0.270
5519,0.065,-0.255
5520,0.060,-0.245
5521,0.055,-0.255
5522,0.050,-0.275
5523,0.070,-0.250
5524,0.060,-0.240
5525,0.065,-0.215
5526,0.050,-0.215
5527,0.080,-0.215
5528,0.070,-0.215
5529,0.060,-0.240
5530,0.080,-0.230
5531,0.070,-0.235
5532,0.090,-0.225
5533,0.085,-0.230
5534,0.090,-0.210
5535,0.095,-0.220
5536,0.085,-0.210
5537,0.090,-0.230
5538,0.090,-0.215
5539,0.105,-0.220
5540,0.105,-0.225
5541,0.105,-0.225
5542,0.095,-0.205
5543,0.100,-0.220
5544,0.105,-0.200
5545,0.110,-0.205
5546,0.070,-0.190
5547,0.110,-0.210
5548,0.110,-0.200
5549,0.155,-0.175
5550,0.185,-0.140
5551,0.180,-0.120
5552,0.180,-0.130
5553,0.185,-0.140
5554,0.170,-0.135
5555,0.145,-0.125
5556,0.115,-0.150
5557,0.140,-0.155
5558,0.120,-0.170
5559,0.140,-0.165
5560,0.120,-0.185
5561,0.110,-0.185
5562,0.095,-0.200
5563,0.090,-0.195
5564,0.095,-0.120
5565,0.145,0.155
5566,0.170,0.590
5567,0.290,0.820
5568,0.375,0.755
5569,0.475,0.105
5570,0.370,-0.325
5571,-0.260,-0.260
5572,-0.485,-0.200
5573,-0.380,-0.200
5574,-0.125,-0.200
5575,0.020,-0.175
5576,0.060,-0.195
5577,0.085,-0.190
5578,0.095,-0.190
5579,0.100,-0.190
5580,0.105,-0.185
5581,0.110,-0.190
5582,0.120,-0.190
5583,0.115,-0.185
5584,0.140,-0.175
5585,0.125,-0.140
5586,0.125,-0.135
5587,0.135,-0.145
5588,0.140,-0.150
5589,0.140,-0.135
5590,0.140,-0.135
5591,0.175,-0.150
5592,0.155,-0.160
5593,0.150,-0.150
5594,0.170,-0.170
5595,0.145,-0.175
5596,0.150,-0.185
5597,0.150,-0.200
5598,0.155,-0.215
5599,0.145,-0.230
5600,0.120,-0.235
5601,0.120,-0.240
5602,0.115,-0.230
5603,0.125,-0.225
5604,0.115,-0.220
5605,0.115,-0.190
5606,0.135,-0.180
5607,0.140,-0.165
5608,0.155,-0.160
5609,0.140,-0.135
5610,0.160,-0.120
5611,0.150,-0.120
5612,0.135,-0.130
5613,0.175,-0.145
5614,0.155,-0.115
5615,0.150,-0.115
5616,0.155,-0.140
5617,0.170,-0.125
5618,0.170,-0.140
5619,0.165,-0.130
5620,0.165,-0.130
5621,0.170,-0.125
5622,0.175,-0.130
5623,0.170,-0.120
5624,0.170,-0.125
5625,0.155,-0.105
5626,0.155,-0.130
5627,0.150,-0.120
5628,0.155,-0.130
5629,0.150,-0.130
5630,0.155,-0.125
5631,0.145,-0.130
5632,0.155,-0.135
5633,0.135,-0.130
5634,0.150,-0.135
5635,0.150,-0.135
5636,0.135,-0.140
5637,0.125,-0.145
5638,0.130,-0.130
5639,0.125,-0.130
5640,0.145,-0.130
5641,0.150,-0.130
5642,0.150,-0.130
5643,0.140,-0.145
5644,0.150,-0.115
5645,0.145,-0.120
5646,0.150,-0.105
5647,0.155,-0.100
5648,0.165,-0.105
5649,0.165,-0.115
5650,0.155,-0.105
5651,0.165,-0.105
5652,0.180,-0.100
5653,0.175,-0.115
5654,0.175,-0.085
5655,0.170,-0.100
5656,0.165,-0.135
5657,0.165,-0.180
5658,0.175,-0.135
5659,0.170,-0.115
5660,0.180,-0.115
5661,0.185,-0.120
5662,0.175,-0.110
5663,0.165,-0.080
5664,0.170,-0.095
5665,0.165,-0.100
5666,0.175,-0.130
5667,0.170,-0.140
5668,0.205,-0.125
5669,0.225,-0.085
5670,0.250,-0.040
5671,0.265,-0.035
5672,0.280,-0.070
5673,0.255,-0.055
5674,0.220,-0.055
5675,0.200,-0.065
5676,0.220,-0.070
5677,0.230,-0.105
5678,0.220,-0.105
5679,0.235,-0.075
5680,0.205,-0.075
5681,0.190,-0.105
5682,0.165,-0.090
5683,0.170,-0.090
5684,0.200,0.010
5685,0.240,0.280
5686,0.310,0.630
5687,0.385,0.820
5688,0.395,0.580
5689,0.380,0.095
5690,0.000,-0.165
5691,-0.375,-0.165
5692,-0.350,-0.115
5693,-0.145,-0.120
5694,0.050,-0.115
5695,0.135,-0.110
5696,0.135,-0.125
5697,0.170,-0.105
5698,0.165,-0.080
5699,0.180,-0.105
5700,0.215,-0.080
5701,0.200,-0.050
5702,0.200,-0.070
5703,0.215,-0.065
5704,0.215,-0.045
5705,0.200,-0.015
5706,0.225,-0.020
5707,0.215,-0.010
5708,0.245,0.005
5709,0.235,-0.020
5710,0.235,0.000
5711,0.250,0.010
5712,0.260,-0.005
5713,0.225,0.005
5714,0.195,0.025
5715,0.215,0.000
5716,0.230,-0.040
5717,0.220,-0.085
5718,0.210,-0.095
5719,0.210,-0.115
5720,0.225,-0.120
5721,0.215,-0.150
5722,0.215,-0.175
5723,0.220,-0.170
5724,0.180,-0.215
5725,0.180,-0.195
5726,0.200,-0.190
5727,0.205,-0.165
5728,0.195,-0.100
5729,0.185,-0.075
5730,0.200,-0.105
5731,0.195,-0.095
5732,0.215,-0.090
5733,0.185,-0.025
5734,0.185,0.005
5735,0.160,0.065
5736,0.170,0.165
5737,0.155,0.225
5738,0.165,0.225
5739,0.200,0.235
5740,0.195,0.225
5741,0.240,0.205
5742,0.215,0.180
5743,0.225,0.070
5744,0.200,-0.030
5745,0.210,-0.045
5746,0.205,0.000
5747,0.205,0.020
5748,0.215,0.020
5749,0.215,0.000
5750,0.205,-0.025
5751,0.195,-0.080
5752,0.195,-0.110
5753,0.205,-0.110
5754,0.195,-0.155
5755,0.170,-0.165
5756,0.155,-0.140
5757,0.165,-0.140
5758,0.220,-0.125
5759,0.250,-0.085
5760,0.300,-0.120
5761,0.340,-0.140
5762,0.275,-0.145
5763,0.225,-0.090
5764,0.210,-0.120
5765,0.200,-0.165
5766,0.195,-0.145
5767,0.175,-0.140
5768,0.180,-0.155
5769,0.175,-0.150
5770,0.210,-0.140
5771,0.210,-0.135
5772,0.175,-0.135
5773,0.170,-0.155
5774,0.185,-0.145
5775,0.180,-0.145
5776,0.175,-0.120
5777,0.170,-0.145
5778,0.170,-0.165
5779,0.155,-0.140
5780,0.160,-0.155
5781,0.170,-0.160
5782,0.175,-0.170
5783,0.180,-0.170
5784,0.200,-0.160
5785,0.175,-0.155
5786,0.175,-0.145
5787,0.180,-0.145
5788,0.220,-0.120
5789,0.225,-0.115
5790,0.235,-0.110
5791,0.225,-0.150
5792,0.220,-0.135
5793,0.190,-0.135
5794,0.190,-0.165
5795,0.170,-0.175
5796,0.145,-0.165
5797,0.160,-0.165
5798,0.195,-0.160
5799,0.175,-0.175
5800,0.140,-0.175
5801,0.135,-0.160
5802,0.150,-0.150
5803,0.185,0.000
5804,0.225,0.290
5805,0.260,0.610
5806,0.300,0.765
5807,0.325,0.440
5808,0.385,-0.130
5809,-0.060,-0.240
5810,-0.380,-0.185
5811,-0.335,-0.155
5812,-0.155,-0.135
5813,0.020,-0.150
5814,0.090,-0.155
5815,0.100,-0.135
5816,0.100,-0.130
5817,0.105,-0.145
5818,0.110,-0.155
5819,0.115,-0.150
5820,0.125,-0.150
5821,0.130,-0.180
5822,0.140,-0.185
5823,0.170,-0.225
5824,0.170,-0.235
5825,0.195,-0.225
5826,0.205,-0.220
5827,0.215,-0.170
5828,0.215,-0.170
5829,0.220,-0.135
5830,0.205,-0.145
5831,0.180,-0.145
5832,0.190,-0.135
5833,0.190,-0.140
5834,0.185,-0.160
5835,0.165,-0.170
5836,0.160,-0.185
5837,0.155,-0.215
5838,0.145,-0.215
5839,0.145,-0.230
5840,0.165,-0.250
5841,0.180,-0.250
5842,0.170,-0.245
5843,0.170,-0.240
5844,0.160,-0.240
5845,0.210,-0.245
5846,0.195,-0.255
5847,0.170,-0.250
5848,0.180,-0.240
5849,0.190,-0.230
5850,0.170,-0.245
5851,0.180,-0.205
5852,0.180,-0.175
5853,0.160,-0.130
5854,0.165,-0.090
5855,0.160,-0.100
5856,0.165,-0.095
5857,0.165,-0.085
5858,0.170,-0.090
5859,0.145,-0.095
5860,0.190,-0.095
5861,0.170,-0.135
5862,0.160,-0.105
5863,0.175,-0.120
5864,0.175,-0.135
5865,0.165,-0.115
5866,0.165,-0.125
5867,0.155,-0.100
5868,0.175,-0.115
5869,0.150,-0.115
5870,0.170,-0.125
5871,0.155,-0.155
5872,0.155,-0.170
5873,0.145,-0.180
5874,0.155,-0.165
5875,0.155,-0.185
5876,0.155,-0.160
5877,0.120,-0.155
5878,0.145,-0.140
5879,0.135,-0.160
5880,0.130,-0.205
5881,0.130,-0.180
5882,0.135,-0.190
5883,0.155,-0.205
5884,0.140,-0.180
5885,0.115,-0.220
5886,0.120,-0.240
5887,0.130,-0.235
5888,0.135,-0.240
5889,0.100,-0.235
5890,0.105,-0.185
5891,0.095,-0.190
5892,0.075,-0.170
5893,0.065,-0.145
5894,0.085,-0.150
5895,0.090,-0.160
5896,0.085,-0.155
5897,0.080,-0.170
5898,0.055,-0.175
5899,0.070,-0.170
5900,0.100,-0.140
5901,0.145,-0.110
5902,0.145,-0.065
5903,0.165,-0.050
5904,0.150,-0.070
5905,0.155,-0.080
5906,0.130,-0.065
5907,0.100,-0.100
5908,0.095,-0.110
5909,0.110,-0.120
5910,0.100,-0.135
5911,0.110,-0.180
5912,0.100,-0.125
5913,0.070,-0.165
5914,0.085,-0.175
5915,0.085,-0.090
5916,0.105,0.195
5917,0.180,0.595
5918,0.280,0.840
5919,0.370,0.775
5920,0.485,0.190
5921,0.350,-0.235
5922,-0.250,-0.185
5923,-0.440,-0.145
5924,-0.305,-0.150
5925,-0.050,-0.125
5926,0.065,-0.140
5927,0.090,-0.130
5928,0.095,-0.105
5929,0.090,-0.115
5930,0.135,-0.115
5931,0.140,-0.105
5932,0.145,-0.090
5933,0.145,-0.135
5934,0.155,-0.140
5935,0.150,-0.075
5936,0.135,-0.080
5937,0.155,-0.060
5938,0.135,-0.050
5939,0.140,-0.060
5940,0.145,-0.055
5941,0.130,-0.040
5942,0.145,-0.045
5943,0.150,-0.045
5944,0.150,-0.070
5945,0.150,-0.070
5946,0.150,-0.080
5947,0.130,-0.090
5948,0.140,-0.085
5949,0.145,-0.085
5950,0.120,-0.090
5951,0.110,-0.080
5952,0.145,-0.115
5953,0.155,-0.110
5954,0.135,-0.085
5955,0.160,-0.040
5956,0.140,0.000
5957,0.155,0.025
5958,0.195,0.050
5959,0.185,0.045
5960,0.175,0.030
5961,0.180,-0.020
5962,0.155,-0.010
5963,0.165,-0.015
5964,0.160,-0.040
5965,0.175,-0.010
5966,0.155,-0.030
5967,0.155,-0.055
5968,0.140,-0.055
5969,0.150,-0.025
5970,0.140,-0.045
5971,0.145,-0.085
5972,0.150,-0.090
5973,0.135,-0.070
5974,0.135,-0.085
5975,0.180,-0.115
5976,0.130,-0.105
5977,0.120,-0.095
5978,0.120,-0.085
5979,0.130,-0.085
5980,0.125,-0.085
5981,0.120,-0.070
5982,0.135,-0.100
5983,0.145,-0.095
5984,0.150,-0.095
5985,0.155,-0.115
5986,0.125,-0.120
5987,0.100,-0.140
5988,0.135,-0.135
5989,0.115,-0.135
5990,0.100,-0.115
5991,0.145,-0.100
5992,0.145,-0.115
5993,0.085,-0.135
5994,0.110,-0.140
5995,0.120,-0.140
5996,0.075,-0.150
5997,0.085,-0.130
5998,0.085,-0.140
5999,0.075,-0.125
6000,0.070,-0.085
6001,0.135,-0.095
6002,0.085,-0.125
6003,0.050,-0.105
6004,0.090,-0.155
6005,0.090,-0.140
6006,0.115,-0.105
6007,0.090,-0.135
6008,0.065,-0.135
6009,0.055,-0.130
6010,0.115,-0.120
6011,0.130,-0.130
6012,0.150,-0.105
6013,0.085,-0.045
6014,0.135,-0.045
6015,0.135,-0.005
6016,0.150,-0.035
6017,0.125,-0.095
6018,0.085,-0.080
6019,0.030,-0.075
6020,0.065,-0.080
6021,0.035,-0.095
6022,0.000,-0.100
6023,-0.025,-0.070
6024,-0.055,-0.055
6025,-0.105,-0.065
6026,-0.115,-0.060
6027,-0.070,-0.075
6028,-0.040,0.050
6029,0.040,0.370
6030,0.210,0.625
6031,0.315,0.590
6032,0.300,0.035
6033,0.055,-0.340
6034,-0.385,-0.310
6035,-0.430,-0.250
6036,-0.430,-0.145
6037,-0.135,-0.105
6038,-0.015,-0.065
6039,-0.110,-0.010
6040,-0.140,-0.010
6041,0.000,-0.015
6042,0.045,0.000
6043,0.135,-0.020
6044,0.160,0.000
6045,0.020,0.000
6046,-0.045,-0.015
6047,0.010,-0.085
6048,-0.050,-0.055
6049,-0.005,0.040
6050,0.030,0.005
6051,-0.070,-0.150
6052,0.065,-0.180
6053,0.115,-0.140
6054,0.090,-0.165
6055,0.165,-0.160
6056,0.205,-0.085
6057,0.210,-0.075
6058,0.175,-0.060
6059,0.155,-0.080
6060,0.080,-0.095
6061,0.100,-0.065
6062,0.070,-0.060
6063,-0.035,-0.035
6064,0.025,-0.025
6065,0.000,-0.015
6066,0.000,-0.010
6067,0.000,-0.015
6068,0.060,-0.035
6069,0.040,-0.025
6070,0.055,-0.045
6071,0.090,-0.040
6072,0.080,-0.050
6073,0.125,-0.060
6074,0.070,-0.095
6075,0.090,-0.075
6076,0.125,-0.080
6077,0.065,-0.115
6078,0.000,-0.135
6079,0.015,-0.150
6080,-0.005,-0.185
6081,0.040,-0.165
6082,0.065,-0.155
6083,0.115,-0.185
6084,0.130,-0.165
6085,0.130,-0.130
6086,0.155,-0.115
6087,0.105,-0.100
6088,0.130,-0.100
6089,0.060,-0.090
6090,0.050,-0.065
6091,0.140,-0.070
6092,0.135,-0.095
6093,0.115,-0.105
6094,0.205,-0.125
6095,0.075,-0.160
6096,0.020,-0.150
6097,0.165,-0.155
6098,0.015,-0.150
6099,0.060,-0.140
6100,0.130,-0.130
6101,0.130,-0.155
6102,0.095,-0.150
6103,0.075,-0.160
6104,0.090,-0.140
6105,0.120,-0.120
6106,0.145,-0.140
6107,0.180,-0.130
6108,0.180,-0.120
6109,0.175,-0.130
6110,0.165,-0.125
6111,0.145,-0.145
6112,0.135,-0.130
6113,0.130,-0.170
6114,0.105,-0.195
6115,0.100,-0.155
6116,0.175,-0.120
6117,0.160,-0.115
6118,0.060,-0.090
6119,0.025,-0.105
6120,-0.090,-0.150
6121,-0.145,-0.215
6122,-0.115,-0.235
6123,-0.075,-0.255
6124,-0.025,-0.250
6125,0.035,-0.185
6126,0.095,-0.150
6127,0.040,-0.100
6128,0.080,-0.075
6129,0.210,-0.120
6130,0.265,-0.155
6131,0.185,-0.175
6132,0.150,-0.165
6133,0.215,-0.180
6134,0.210,-0.200
6135,0.205,-0.220
6136,0.305,-0.220
6137,0.255,-0.195
6138,0.265,-0.150
6139,0.230,-0.180
6140,0.175,-0.225
6141,0.270,-0.185
6142,0.190,0.130
6143,0.225,0.545
6144,0.370,0.725
6145,0.435,0.455
6146,0.510,-0.225
6147,0.310,-0.470
6148,-0.170,-0.310
6149,-0.370,-0.240
6150,-0.180,-0.225
6151,0.095,-0.235
6152,0.145,-0.190
6153,0.065,-0.175
6154,0.145,-0.200
6155,0.155,-0.205
6156,0.155,-0.205
6157,0.150,-0.190
6158,0.090,-0.205
6159,0.060,-0.170
6160,0.120,-0.160
6161,0.090,-0.130
6162,-0.020,-0.150
6163,0.025,-0.195
6164,0.045,-0.185
6165,0.070,-0.210
6166,0.095,-0.265
6167,0.115,-0.270
6168,0.175,-0.205
6169,0.185,-0.195
6170,0.160,-0.235
6171,0.105,-0.255
6172,0.065,-0.270
6173,0.100,-0.275
6174,0.130,-0.235
6175,0.090,-0.235
6176,0.125,-0.290
6177,0.090,-0.345
6178,0.070,-0.450
6179,0.075,-0.440
6180,0.115,-0.415
6181,0.015,-0.340
6182,0.070,-0.310
6183,0.065,-0.240
6184,0.060,-0.225
6185,0.145,-0.165
6186,0.160,-0.260
6187,0.165,-0.400
6188,0.205,-0.390
6189,0.255,-0.375
6190,0.295,-0.330
6191,0.325,-0.255
6192,0.185,-0.290
6193,0.205,-0.275
6194,0.205,-0.305
6195,0.145,-0.280
6196,0.185,-0.190
6197,0.210,-0.185
6198,0.210,-0.245
6199,0.185,-0.265
6200,0.180,-0.235
6201,0.190,-0.185
6202,0.235,-0.370
6203,0.170,-0.400
6204,0.145,-0.320
6205,0.220,-0.265
6206,0.175,-0.310
6207,0.130,-0.335
6208,0.125,-0.305
6209,0.110,-0.270
6210,0.085,-0.310
6211,0.065,-0.365
6212,0.080,-0.235
6213,0.085,-0.205
6214,0.085,-0.215
6215,0.045,-0.180
6216,0.045,-0.130
6217,0.035,-0.170
6218,0.025,-0.175
6219,0.030,-0.155
6220,0.035,-0.065
6221,0.040,-0.135
6222,0.045,-0.225
6223,0.050,-0.145
6224,0.035,-0.165
6225,0.020,-0.165
6226,0.020,-0.205
6227,0.000,-0.185
6228,0.010,-0.245
6229,0.010,-0.120
6230,0.040,-0.145
6231,0.050,-0.225
6232,0.070,-0.300
6233,0.035,-0.325
6234,0.040,-0.270
6235,0.060,-0.365
6236,0.050,-0.210
6237,0.060,-0.215
6238,0.055,-0.345
6239,0.100,-0.290
6240,0.110,-0.255
6241,0.130,-0.160
6242,0.185,-0.005
6243,0.130,-0.035
6244,0.125,0.135
6245,0.080,0.120
6246,0.000,0.065
6247,-0.015,0.195
6248,-0.035,0.115
6249,-0.035,-0.055
6250,0.005,-0.235
6251,0.090,-0.380
6252,0.055,-0.380
6253,-0.080,-0.355
6254,-0.155,-0.320
6255,-0.135,-0.310
6256,-0.065,-0.175
6257,0.000,0.120
6258,0.030,0.325
6259,0.125,0.470
6260,0.190,0.065
6261,0.300,-0.440
6262,-0.010,-0.540
6263,-0.415,-0.445
6264,-0.435,-0.405
6265,-0.290,-0.310
6266,-0.095,-0.355
6267,0.000,-0.420
6268,0.010,-0.430
6269,0.025,-0.295
6270,0.040,-0.315
6271,0.040,-0.390
6272,0.025,-0.295
6273,0.030,-0.135
6274,0.065,-0.105
6275,0.055,-0.295
6276,0.085,-0.295
6277,0.090,-0.310
6278,0.070,-0.300
6279,0.115,-0.270
6280,0.100,-0.290
6281,0.095,-0.280
6282,0.100,-0.375
6283,0.120,-0.405
6284,0.105,-0.450
6285,0.100,-0.435
6286,0.095,-0.520
6287,0.110,-0.515
6288,0.120,-0.555
6289,0.125,-0.580
6290,0.110,-0.590
6291,0.080,-0.555
6292,0.090,-0.485
6293,0.095,-0.510
6294,0.100,-0.480
6295,0.060,-0.530
6296,0.070,-0.580
6297,0.105,-0.525
6298,0.110,-0.540
6299,0.095,-0.530
6300,0.105,-0.485
6301,0.105,-0.380
6302,0.100,-0.400
6303,0.085,-0.405
6304,0.100,-0.320
6305,0.105,-0.250
6306,0.095,-0.300
6307,0.105,-0.430
6308,0.120,-0.400
6309,0.095,-0.405
6310,0.100,-0.510
6311,0.080,-0.370
6312,0.105,-0.295
6313,0.090,-0.335
6314,0.080,-0.385
6315,0.085,-0.365
6316,0.105,-0.395
6317,0.125,-0.360
6318,0.100,-0.275
6319,0.105,-0.360
6320,0.095,-0.430
6321,0.080,-0.370
6322,0.110,-0.290
6323,0.090,-0.360
6324,0.110,-0.385
6325,0.100,-0.355
6326,0.070,-0.335
6327,0.060,-0.360
6328,0.065,-0.405
6329,0.065,-0.330
6330,0.070,-0.325
6331,0.055,-0.330
6332,0.065,-0.370
6333,0.070,-0.415
6334,0.065,-0.365
6335,0.050,-0.345
6336,0.065,-0.345
6337,0.060,-0.445
6338,0.035,-0.480
6339,0.055,-0.350
6340,0.055,-0.335
6341,0.055,-0.420
6342,0.055,-0.385
6343,0.040,-0.345
6344,0.030,-0.420
6345,0.030,-0.380
6346,0.070,-0.275
6347,0.055,-0.290
6348,0.045,-0.410
6349,0.040,-0.430
6350,0.035,-0.415
6351,0.070,-0.365
6352,0.040,-0.305
6353,0.045,-0.435
6354,0.045,-0.490
6355,0.015,-0.480
6356,0.075,-0.450
6357,0.095,-0.500
6358,0.100,-0.540
6359,0.110,-0.520
6360,0.115,-0.485
6361,0.120,-0.505
6362,0.075,-0.495
6363,0.065,-0.450
6364,0.075,-0.435
6365,0.085,-0.505
6366,0.075,-0.540
6367,0.070,-0.465
6368,0.080,-0.440
6369,0.065,-0.440
6370,0.040,-0.445
6371,0.055,-0.465
6372,0.055,-0.410
6373,0.090,-0.165
6374,0.125,0.215
6375,0.180,0.450
6376,0.145,0.210
6377,0.175,-0.375
6378,-0.165,-0.605
6379,-0.520,-0.550
6380,-0.475,-0.510
6381,-0.320,-0.520
6382,-0.115,-0.520
6383,-0.045,-0.550
6384,-0.005,-0.505
6385,0.000,-0.470
6386,-0.005,-0.455
6387,0.015,-0.480
6388,0.030,-0.480
6389,0.020,-0.450
6390,0.005,-0.430
6391,0.015,-0.440
6392,0.040,-0.430
6393,0.045,-0.410
6394,0.075,-0.405
6395,0.070,-0.360
6396,0.060,-0.420
6397,0.080,-0.425
6398,0.080,-0.415
6399,0.075,-0.470
6400,0.125,-0.475
6401,0.105,-0.460
6402,0.120,-0.450
6403,0.125,-0.475
6404,0.105,-0.445
6405,0.100,-0.430
6406,0.105,-0.575
6407,0.105,-0.545
6408,0.095,-0.450
6409,0.100,-0.420
6410,0.115,-0.425
6411,0.100,-0.415
6412,0.135,-0.390
6413,0.140,-0.340
6414,0.145,-0.385
6415,0.145,-0.395
6416,0.140,-0.340
6417,0.180,-0.330
6418,0.175,-0.385
6419,0.160,-0.375
6420,0.175,-0.400
6421,0.170,-0.450
6422,0.175,-0.505
6423,0.190,-0.565
6424,0.165,-0.545
6425,0.190,-0.620
6426,0.170,-0.670
6427,0.165,-0.590
6428,0.190,-0.530
6429,0.205,-0.560
6430,0.185,-0.510
6431,0.175,-0.465
6432,0.150,-0.435
6433,0.145,-0.420
6434,0.145,-0.325
6435,0.120,-0.220
6436,0.135,-0.370
6437,0.115,-0.495
6438,0.125,-0.435
6439,0.125,-0.365
6440,0.145,-0.305
6441,0.190,-0.320
6442,0.170,-0.195
6443,0.170,-0.090
6444,0.195,-0.065
6445,0.185,0.050
6446,0.180,0.075
6447,0.220,0.060
6448,0.215,0.015
6449,0.190,-0.005
6450,0.165,0.040
6451,0.155,-0.005
6452,0.180,-0.055
6453,0.240,-0.065
6454,0.270,-0.145
6455,0.280,-0.055
6456,0.225,0.115
6457,0.205,0.215
6458,0.220,0.135
6459,0.165,0.045
6460,0.155,-0.045
6461,0.145,-0.210
6462,0.160,-0.255
6463,0.155,-0.265
6464,0.200,-0.345
6465,0.195,-0.415
6466,0.185,-0.430
6467,0.225,-0.415
6468,0.245,-0.415
6469,0.225,-0.400
6470,0.255,-0.455
6471,0.290,-0.435
6472,0.290,-0.390
6473,0.285,-0.345
6474,0.240,-0.350
6475,0.215,-0.370
6476,0.190,-0.420
6477,0.180,-0.440
6478,0.130,-0.465
6479,0.105,-0.415
6480,0.105,-0.410
6481,0.100,-0.450
6482,0.100,-0.380
6483,0.095,-0.120
6484,0.170,0.275
6485,0.205,0.555
6486,0.245,0.535
