'sample interval','ECG0','ECG1'
'0.0078125 sec','mV','mV'
0,0.070,-0.150
1,0.050,-0.160
2,0.040,-0.135
3,0.055,-0.125
4,0.055,-0.115
5,0.045,-0.105
6,0.040,-0.105
7,0.045,-0.120
8,0.040,-0.125
9,0.025,-0.150
10,0.010,-0.135
11,0.020,-0.180
12,0.020,-0.160
13,0.005,-0.155
14,0.000,-0.185
15,-0.025,-0.170
16,-0.030,-0.175
17,-0.025,-0.200
18,-0.020,-0.200
19,-0.035,-0.200
20,-0.020,-0.195
21,-0.010,-0.160
22,0.000,-0.165
23,0.000,-0.185
24,-0.035,-0.175
25,-0.025,-0.180
26,0.000,-0.160
27,-0.015,-0.185
28,-0.015,-0.195
29,-0.020,-0.190
30,-0.030,-0.190
31,-0.015,-0.195
32,-0.010,-0.185
33,-0.005,-0.180
34,-0.005,-0.165
35,-0.015,-0.150
36,-0.015,-0.180
37,-0.030,-0.200
38,-0.020,-0.200
39,-0.040,-0.195
40,-0.040,-0.215
41,-0.035,-0.195
42,-0.040,-0.205
43,-0.050,-0.225
44,-0.070,-0.210
45,-0.055,-0.190
46,-0.045,-0.195
47,-0.045,-0.220
48,-0.015,-0.240
49,-0.045,-0.220
50,-0.040,-0.230
51,-0.065,-0.225
52,-0.065,-0.210
53,-0.075,-0.200
54,-0.070,-0.195
55,-0.070,-0.160
56,-0.075,-0.160
57,-0.075,-0.165
58,-0.055,-0.120
59,-0.055,-0.135
60,-0.060,-0.140
61,-0.045,-0.150
62,-0.050,-0.125
63,-0.040,-0.135
64,-0.050,-0.140
65,-0.030,-0.115
66,-0.050,-0.125
67,-0.040,-0.110
68,-0.040,-0.110
69,-0.040,-0.105
70,-0.050,-0.110
71,-0.050,-0.115
72,-0.070,-0.115
73,-0.075,-0.110
74,-0.075,-0.100
75,-0.070,-0.110
76,-0.075,-0.125
77,-0.070,-0.135
78,-0.050,-0.140
79,-0.030,-0.115
80,-0.005,-0.080
81,0.020,-0.050
82,0.030,-0.070
83,0.020,-0.115
84,0.010,-0.095
85,-0.005,-0.095
86,-0.010,-0.085
87,0.000,-0.115
88,-0.005,-0.135
89,-0.025,-0.140
90,-0.015,-0.145
91,-0.040,-0.145
92,-0.050,-0.165
93,-0.045,-0.180
94,-0.055,-0.185
95,-0.055,-0.135
96,-0.025,0.040
97,0.020,0.385
98,0.125,0.660
99,0.200,0.730
100,0.165,0.245
101,-0.040,-0.215
102,-0.555,-0.230
103,-0.685,-0.170
104,-0.520,-0.145
105,-0.255,-0.155
106,-0.100,-0.185
107,-0.055,-0.160
108,-0.055,-0.145
109,-0.040,-0.190
110,-0.015,-0.160
111,-0.035,-0.155
112,-0.015,-0.145
113,0.010,-0.145
114,0.000,-0.125
115,0.005,-0.125
116,0.005,-0.105
117,0.020,-0.105
118,0.025,-0.125
119,0.025,-0.115
120,0.040,-0.115
121,0.030,-0.110
122,0.025,-0.105
123,0.040,-0.105
124,0.055,-0.095
125,0.055,-0.095
126,0.060,-0.105
127,0.060,-0.115
128,0.045,-0.120
129,0.045,-0.125
130,0.045,-0.110
131,0.045,-0.095
132,0.055,-0.095
133,0.035,-0.115
134,0.025,-0.090
135,0.015,-0.115
136,0.020,-0.090
137,0.025,-0.075
138,0.030,-0.070
139,0.035,-0.055
140,0.045,-0.045
141,0.030,-0.070
142,0.025,-0.080
143,0.035,-0.085
144,0.025,-0.075
145,0.015,-0.090
146,0.035,-0.090
147,0.025,-0.095
148,0.005,-0.105
149,-0.005,-0.130
150,0.000,-0.120
151,0.010,-0.120
152,0.005,-0.095
153,0.000,-0.090
154,-0.010,-0.100
155,0.000,-0.115
156,-0.015,-0.125
157,-0.010,-0.130
158,-0.025,-0.125
159,-0.015,-0.135
160,-0.015,-0.135
161,-0.025,-0.125
162,-0.045,-0.135
163,-0.030,-0.150
164,-0.030,-0.145
165,-0.030,-0.150
166,-0.035,-0.145
167,-0.020,-0.155
168,-0.025,-0.160
169,-0.035,-0.135
170,-0.020,-0.140
171,-0.030,-0.145
172,-0.040,-0.155
173,-0.050,-0.155
174,-0.040,-0.145
175,-0.050,-0.150
176,-0.045,-0.145
177,-0.055,-0.140
178,-0.045,-0.145
179,-0.040,-0.145
180,-0.055,-0.155
181,-0.035,-0.150
182,-0.035,-0.160
183,-0.050,-0.155
184,-0.045,-0.155
185,-0.030,-0.165
186,-0.045,-0.165
187,-0.050,-0.140
188,-0.055,-0.180
189,-0.045,-0.185
190,-0.050,-0.170
191,-0.040,-0.175
192,-0.030,-0.155
193,-0.045,-0.160
194,-0.055,-0.150
195,-0.055,-0.170
196,-0.030,-0.165
197,-0.045,-0.155
198,-0.050,-0.160
199,-0.035,-0.165
200,-0.035,-0.160
201,-0.045,-0.140
202,-0.040,-0.150
203,-0.050,-0.140
204,-0.040,-0.140
205,-0.030,-0.155
206,-0.025,-0.130
207,-0.005,-0.120
208,0.025,-0.095
209,0.035,-0.095
210,0.050,-0.095
211,0.030,-0.130
212,0.010,-0.110
213,0.000,-0.125
214,-0.020,-0.125
215,0.000,-0.165
216,0.000,-0.180
217,-0.010,-0.165
218,-0.030,-0.175
219,-0.035,-0.170
220,-0.055,-0.180
221,-0.055,-0.200
222,-0.060,-0.180
223,-0.050,-0.085
224,0.025,0.195
225,0.105,0.555
226,0.180,0.740
227,0.145,0.410
228,-0.015,-0.135
229,-0.465,-0.260
230,-0.660,-0.175
231,-0.505,-0.145
232,-0.255,-0.165
233,-0.100,-0.155
234,-0.055,-0.160
235,-0.025,-0.150
236,-0.020,-0.140
237,-0.015,-0.130
238,0.000,-0.140
239,-0.010,-0.150
240,-0.010,-0.140
241,-0.005,-0.130
242,0.020,-0.120
243,0.010,-0.145
244,0.020,-0.135
245,0.020,-0.135
246,0.015,-0.115
247,0.030,-0.120
248,0.035,-0.120
249,0.020,-0.100
250,0.050,-0.110
251,0.055,-0.100
252,0.030,-0.095
253,0.045,-0.105
254,0.060,-0.095
255,0.070,-0.090
256,0.055,-0.105
257,0.060,-0.115
258,0.045,-0.100
259,0.050,-0.095
260,0.050,-0.095
261,0.040,-0.080
262,0.065,-0.085
263,0.080,-0.060
264,0.080,-0.065
265,0.080,-0.050
266,0.060,-0.055
267,0.075,-0.040
268,0.050,-0.055
269,0.045,-0.060
270,0.055,-0.080
271,0.045,-0.100
272,0.025,-0.100
273,0.005,-0.095
274,0.015,-0.120
275,0.000,-0.120
276,0.000,-0.120
277,0.000,-0.120
278,-0.025,-0.120
279,-0.010,-0.140
280,-0.005,-0.130
281,0.000,-0.125
282,0.000,-0.135
283,-0.010,-0.135
284,-0.010,-0.130
285,-0.010,-0.155
286,0.000,-0.145
287,0.000,-0.150
288,0.005,-0.145
289,0.005,-0.135
290,-0.005,-0.140
291,0.000,-0.140
292,0.010,-0.125
293,-0.005,-0.130
294,0.000,-0.135
295,-0.005,-0.135
296,0.000,-0.145
297,-0.030,-0.170
298,-0.005,-0.155
299,-0.010,-0.150
300,-0.010,-0.130
301,-0.030,-0.145
302,-0.010,-0.155
303,-0.045,-0.165
304,-0.040,-0.180
305,-0.050,-0.180
306,-0.065,-0.175
307,-0.055,-0.180
308,-0.045,-0.160
309,-0.050,-0.150
310,-0.050,-0.155
311,-0.055,-0.155
312,-0.040,-0.190
313,-0.060,-0.170
314,-0.060,-0.160
315,-0.045,-0.175
316,-0.055,-0.180
317,-0.055,-0.160
318,-0.050,-0.170
319,-0.060,-0.155
320,-0.060,-0.160
321,-0.045,-0.150
322,-0.035,-0.160
323,-0.050,-0.150
324,-0.045,-0.170
325,-0.065,-0.160
326,-0.055,-0.175
327,-0.065,-0.175
328,-0.060,-0.195
329,-0.055,-0.185
330,-0.075,-0.145
331,-0.030,-0.145
332,-0.010,-0.125
333,0.000,-0.120
334,0.015,-0.125
335,0.005,-0.150
336,-0.020,-0.140
337,-0.055,-0.145
338,-0.060,-0.170
339,-0.045,-0.160
340,-0.035,-0.185
341,-0.060,-0.210
342,-0.080,-0.210
343,-0.090,-0.210
344,-0.075,-0.205
345,-0.080,-0.215
346,-0.090,-0.195
347,-0.045,-0.020
348,0.000,0.330
349,0.100,0.655
350,0.155,0.695
351,0.120,0.145
352,-0.180,-0.250
353,-0.635,-0.235
354,-0.680,-0.210
355,-0.465,-0.190
356,-0.225,-0.195
357,-0.095,-0.190
358,-0.080,-0.195
359,-0.070,-0.195
360,-0.070,-0.210
361,-0.050,-0.200
362,-0.045,-0.190
363,-0.050,-0.185
364,-0.050,-0.200
365,-0.040,-0.210
366,-0.020,-0.190
367,-0.005,-0.180
368,-0.025,-0.170
369,-0.015,-0.175
370,-0.010,-0.160
371,-0.010,-0.135
372,0.000,-0.155
373,0.000,-0.160
374,0.005,-0.145
375,0.010,-0.120
376,0.025,-0.130
377,0.035,-0.125
378,0.040,-0.115
379,0.045,-0.125
380,0.070,-0.115
381,0.055,-0.095
382,0.040,-0.110
383,0.025,-0.095
384,0.040,-0.105
385,0.035,-0.105
386,0.035,-0.105
387,0.040,-0.075
388,0.030,-0.070
389,0.060,-0.065
390,0.045,-0.080
391,0.030,-0.090
392,0.040,-0.115
393,0.020,-0.095
394,0.000,-0.095
395,-0.015,-0.100
396,-0.005,-0.110
397,-0.010,-0.110
398,-0.010,-0.125
399,-0.015,-0.110
400,-0.010,-0.130
401,-0.015,-0.130
402,-0.010,-0.140
403,-0.035,-0.135
404,-0.040,-0.120
405,-0.025,-0.140
406,-0.050,-0.125
407,-0.030,-0.110
408,-0.045,-0.135
409,-0.030,-0.130
410,-0.035,-0.120
411,-0.040,-0.135
412,-0.015,-0.125
413,-0.025,-0.130
414,-0.050,-0.140
415,-0.040,-0.135
416,-0.040,-0.145
417,-0.055,-0.165
418,-0.050,-0.175
419,-0.050,-0.150
420,-0.040,-0.155
421,-0.050,-0.145
422,-0.055,-0.150
423,-0.045,-0.175
424,-0.020,-0.165
425,-0.050,-0.165
426,-0.045,-0.175
427,-0.060,-0.170
428,-0.060,-0.165
429,-0.070,-0.170
430,-0.055,-0.175
431,-0.055,-0.165
432,-0.065,-0.150
433,-0.055,-0.150
434,-0.055,-0.145
435,-0.060,-0.155
436,-0.060,-0.160
437,-0.045,-0.145
438,-0.055,-0.155
439,-0.045,-0.160
440,-0.060,-0.170
441,-0.045,-0.165
442,-0.035,-0.170
443,-0.055,-0.160
444,-0.045,-0.155
445,0.000,-0.175
446,0.000,-0.125
447,0.005,-0.150
448,0.035,-0.235
449,0.035,-0.245
450,0.015,-0.200
451,-0.020,-0.160
452,-0.010,-0.205
453,0.000,-0.220
454,-0.030,-0.190
455,-0.030,-0.190
456,-0.030,-0.200
457,-0.070,-0.200
458,-0.050,-0.225
459,-0.025,-0.230
460,-0.005,-0.140
461,0.025,0.080
462,0.105,0.440
463,0.200,0.715
464,0.245,0.615
465,0.175,0.010
466,-0.205,-0.325
467,-0.615,-0.265
468,-0.590,-0.240
469,-0.360,-0.235
470,-0.105,-0.255
471,-0.025,-0.265
472,-0.005,-0.255
473,-0.015,-0.240
474,0.000,-0.230
475,0.000,-0.245
476,0.000,-0.265
477,0.000,-0.220
478,0.005,-0.200
479,-0.005,-0.220
480,0.005,-0.200
481,0.025,-0.195
482,0.020,-0.170
483,0.030,-0.170
484,0.035,-0.205
485,0.030,-0.210
486,0.030,-0.175
487,0.040,-0.150
488,0.040,-0.190
489,0.065,-0.140
490,0.045,-0.120
491,0.060,-0.110
492,0.045,-0.080
493,0.060,-0.075
494,0.060,-0.055
495,0.050,-0.010
496,0.045,0.000
497,0.060,0.005
498,0.060,0.010
499,0.030,-0.025
500,0.040,-0.025
501,0.025,-0.040
502,0.040,-0.035
503,0.060,-0.020
504,0.055,-0.020
505,0.050,-0.050
506,0.015,-0.070
507,-0.005,-0.080
508,-0.010,-0.095
509,-0.015,-0.090
510,-0.015,-0.100
511,-0.025,-0.110
512,-0.060,-0.105
513,-0.050,-0.110
514,-0.055,-0.145
515,-0.040,-0.175
516,-0.050,-0.200
517,-0.055,-0.200
518,-0.060,-0.160
519,-0.070,-0.140
520,-0.080,-0.125
521,-0.095,-0.120
522,-0.115,-0.140
523,-0.105,-0.170
524,-0.125,-0.145
525,-0.145,-0.110
526,-0.155,-0.165
527,-0.115,-0.175
528,-0.110,-0.155
529,-0.100,-0.150
530,-0.120,-0.160
531,-0.120,-0.170
532,-0.125,-0.215
533,-0.125,-0.165
534,-0.120,-0.200
535,-0.115,-0.205
536,-0.130,-0.220
537,-0.155,-0.205
538,-0.150,-0.215
539,-0.120,-0.210
540,-0.110,-0.195
541,-0.095,-0.200
542,-0.090,-0.215
543,-0.085,-0.175
544,-0.110,-0.205
545,-0.080,-0.210
546,-0.075,-0.195
547,-0.070,-0.175
548,-0.070,-0.175
549,-0.065,-0.170
550,-0.060,-0.145
551,-0.050,-0.150
552,-0.035,-0.145
553,-0.025,-0.130
554,-0.020,-0.160
555,-0.015,-0.165
556,-0.020,-0.130
557,-0.045,-0.125
558,-0.035,-0.145
559,-0.045,-0.165
560,-0.025,-0.150
561,-0.030,-0.130
562,-0.025,-0.120
563,-0.030,-0.165
564,-0.030,-0.180
565,-0.040,-0.155
566,-0.030,-0.165
567,-0.045,-0.150
568,-0.055,-0.170
569,-0.040,-0.165
570,-0.040,-0.140
571,-0.035,-0.145
572,-0.035,-0.150
573,0.005,-0.125
574,0.035,-0.080
575,0.040,-0.080
576,0.065,-0.085
577,0.075,-0.125
578,0.055,-0.130
579,0.005,-0.130
580,0.015,-0.105
581,0.035,-0.115
582,0.025,-0.145
583,0.015,-0.180
584,0.015,-0.155
585,0.010,-0.160
586,-0.010,-0.175
587,0.005,-0.190
588,0.005,-0.170
589,0.020,-0.070
590,0.070,0.170
591,0.135,0.460
592,0.220,0.615
593,0.160,0.320
594,-0.005,-0.145
595,-0.455,-0.260
596,-0.675,-0.215
597,-0.560,-0.220
598,-0.300,-0.240
599,-0.095,-0.210
600,-0.035,-0.230
601,-0.045,-0.230
602,-0.010,-0.250
603,0.000,-0.260
604,-0.015,-0.250
605,-0.025,-0.260
606,-0.010,-0.260
607,-0.005,-0.270
608,0.000,-0.240
609,0.010,-0.240
610,0.000,-0.245
611,0.000,-0.240
612,-0.010,-0.225
613,0.000,-0.240
614,0.005,-0.245
615,0.000,-0.245
616,0.000,-0.240
617,0.010,-0.255
618,0.010,-0.255
619,0.020,-0.240
620,0.010,-0.250
621,0.015,-0.270
622,0.010,-0.255
623,0.000,-0.275
624,-0.010,-0.275
625,-0.015,-0.275
626,-0.020,-0.265
627,-0.030,-0.255
628,-0.025,-0.255
629,-0.005,-0.225
630,-0.010,-0.195
631,-0.010,-0.215
632,-0.010,-0.180
633,0.005,-0.185
634,0.000,-0.185
635,-0.015,-0.190
636,-0.020,-0.195
637,-0.010,-0.175
638,-0.030,-0.155
639,-0.045,-0.170
640,-0.050,-0.175
641,0.000,-0.175
642,-0.010,-0.210
643,-0.030,-0.190
644,-0.030,-0.215
645,-0.015,-0.220
646,-0.015,-0.225
647,-0.035,-0.240
648,-0.030,-0.250
649,-0.025,-0.275
650,-0.040,-0.280
651,-0.030,-0.295
652,-0.040,-0.290
653,-0.060,-0.275
654,-0.065,-0.265
655,-0.070,-0.255
656,-0.065,-0.265
657,-0.070,-0.265
658,-0.065,-0.255
659,-0.065,-0.255
660,-0.080,-0.255
661,-0.080,-0.285
662,-0.085,-0.260
663,-0.080,-0.260
664,-0.065,-0.260
665,-0.070,-0.265
666,-0.095,-0.240
667,-0.080,-0.240
668,-0.075,-0.225
669,-0.085,-0.215
670,-0.095,-0.220
671,-0.085,-0.220
672,-0.075,-0.215
673,-0.095,-0.195
674,-0.095,-0.225
675,-0.095,-0.235
676,-0.085,-0.225
677,-0.080,-0.215
678,-0.055,-0.200
679,-0.055,-0.180
680,-0.035,-0.180
681,-0.045,-0.160
682,-0.045,-0.220
683,-0.075,-0.235
684,-0.090,-0.210
685,-0.100,-0.240
686,-0.105,-0.260
687,-0.120,-0.270
688,-0.125,-0.295
689,-0.135,-0.315
690,-0.140,-0.305
691,-0.175,-0.325
692,-0.160,-0.340
693,-0.165,-0.270
694,-0.125,-0.045
695,-0.045,0.290
696,0.040,0.535
697,0.065,0.410
698,-0.005,-0.150
699,-0.355,-0.435
700,-0.825,-0.385
701,-0.820,-0.340
702,-0.585,-0.335
703,-0.310,-0.345
704,-0.200,-0.350
705,-0.170,-0.330
706,-0.160,-0.330
707,-0.150,-0.340
708,-0.150,-0.350
709,-0.150,-0.320
710,-0.145,-0.335
711,-0.160,-0.325
712,-0.155,-0.310
713,-0.150,-0.315
714,-0.140,-0.325
715,-0.145,-0.330
716,-0.145,-0.305
717,-0.145,-0.315
718,-0.135,-0.305
719,-0.140,-0.320
720,-0.135,-0.310
721,-0.125,-0.285
722,-0.115,-0.305
723,-0.130,-0.290
724,-0.110,-0.295
725,-0.105,-0.305
726,-0.090,-0.295
727,-0.100,-0.295
728,-0.090,-0.270
729,-0.095,-0.270
730,-0.090,-0.270
731,-0.090,-0.280
732,-0.080,-0.290
733,-0.090,-0.270
734,-0.095,-0.265
735,-0.085,-0.240
736,-0.085,-0.240
737,-0.070,-0.245
738,-0.075,-0.255
739,-0.075,-0.265
740,-0.095,-0.275
741,-0.100,-0.320
742,-0.140,-0.295
743,-0.140,-0.295
744,-0.135,-0.310
745,-0.145,-0.300
746,-0.135,-0.305
747,-0.160,-0.320
748,-0.110,-0.320
749,-0.135,-0.315
750,-0.115,-0.310
751,-0.135,-0.305
752,-0.140,-0.315
753,-0.130,-0.315
754,-0.115,-0.300
755,-0.115,-0.300
756,-0.115,-0.285
757,-0.110,-0.280
758,-0.100,-0.290
759,-0.105,-0.300
760,-0.110,-0.295
761,-0.115,-0.285
762,-0.105,-0.300
763,-0.100,-0.295
764,-0.115,-0.290
765,-0.125,-0.280
766,-0.110,-0.290
767,-0.115,-0.315
768,-0.105,-0.305
769,-0.120,-0.310
770,-0.130,-0.285
771,-0.125,-0.310
772,-0.125,-0.315
773,-0.135,-0.310
774,-0.135,-0.305
775,-0.135,-0.305
776,-0.135,-0.295
777,-0.150,-0.285
778,-0.145,-0.310
779,-0.150,-0.315
780,-0.150,-0.305
781,-0.150,-0.305
782,-0.130,-0.305
783,-0.140,-0.300
784,-0.135,-0.290
785,-0.135,-0.270
786,-0.135,-0.270
787,-0.140,-0.270
788,-0.130,-0.270
789,-0.140,-0.280
790,-0.130,-0.280
791,-0.130,-0.260
792,-0.135,-0.260
793,-0.150,-0.255
794,-0.150,-0.265
795,-0.150,-0.260
796,-0.150,-0.260
797,-0.145,-0.275
798,-0.160,-0.280
799,-0.145,-0.280
800,-0.150,-0.270
801,-0.150,-0.280
802,-0.155,-0.290
803,-0.155,-0.270
804,-0.160,-0.265
805,-0.155,-0.270
806,-0.145,-0.275
807,-0.155,-0.275
808,-0.145,-0.280
809,-0.160,-0.260
810,-0.150,-0.255
811,-0.140,-0.230
812,-0.130,-0.190
813,-0.085,-0.195
814,-0.080,-0.210
815,-0.095,-0.235
816,-0.095,-0.245
817,-0.140,-0.245
818,-0.145,-0.250
819,-0.145,-0.250
820,-0.145,-0.270
821,-0.150,-0.280
822,-0.155,-0.290
823,-0.170,-0.305
824,-0.185,-0.315
825,-0.200,-0.335
826,-0.190,-0.310
827,-0.180,-0.175
828,-0.095,0.165
829,-0.015,0.560
830,0.060,0.705
831,-0.005,0.175
832,-0.265,-0.350
833,-0.760,-0.375
834,-0.775,-0.325
835,-0.565,-0.330
836,-0.320,-0.330
837,-0.215,-0.330
838,-0.175,-0.315
839,-0.190,-0.320
840,-0.160,-0.335
841,-0.160,-0.310
842,-0.165,-0.315
843,-0.145,-0.315
844,-0.150,-0.310
845,-0.140,-0.310
846,-0.135,-0.300
847,-0.145,-0.285
848,-0.140,-0.300
849,-0.125,-0.280
850,-0.140,-0.285
851,-0.125,-0.280
852,-0.130,-0.275
853,-0.120,-0.275
854,-0.105,-0.295
855,-0.120,-0.285
856,-0.115,-0.285
857,-0.105,-0.285
858,-0.120,-0.265
859,-0.115,-0.270
860,-0.105,-0.260
861,-0.100,-0.260
862,-0.105,-0.265
863,-0.110,-0.255
864,-0.105,-0.265
865,-0.090,-0.265
866,-0.095,-0.245
867,-0.110,-0.235
868,-0.090,-0.220
869,-0.090,-0.205
870,-0.070,-0.190
871,-0.080,-0.195
872,-0.080,-0.230
873,-0.090,-0.240
874,-0.100,-0.235
875,-0.100,-0.260
876,-0.115,-0.270
877,-0.100,-0.260
878,-0.130,-0.255
879,-0.145,-0.270
880,-0.140,-0.270
881,-0.105,-0.265
882,-0.130,-0.275
883,-0.115,-0.275
884,-0.115,-0.290
885,-0.120,-0.260
886,-0.115,-0.275
887,-0.125,-0.285
888,-0.115,-0.275
889,-0.115,-0.255
890,-0.115,-0.265
891,-0.115,-0.260
892,-0.105,-0.265
893,-0.090,-0.265
894,-0.115,-0.275
895,-0.110,-0.275
896,-0.105,-0.265
897,-0.130,-0.260
898,-0.110,-0.250
899,-0.110,-0.270
900,-0.125,-0.255
901,-0.130,-0.255
902,-0.145,-0.265
903,-0.130,-0.260
904,-0.140,-0.265
905,-0.135,-0.275
906,-0.130,-0.260
907,-0.130,-0.265
908,-0.140,-0.270
909,-0.145,-0.270
910,-0.160,-0.265
911,-0.140,-0.265
912,-0.140,-0.290
913,-0.150,-0.285
914,-0.135,-0.290
915,-0.120,-0.280
916,-0.130,-0.255
917,-0.140,-0.265
918,-0.145,-0.270
919,-0.140,-0.265
920,-0.150,-0.275
921,-0.160,-0.265
922,-0.150,-0.285
923,-0.145,-0.285
924,-0.145,-0.280
925,-0.135,-0.270
926,-0.140,-0.280
927,-0.145,-0.275
928,-0.135,-0.265
929,-0.125,-0.270
930,-0.125,-0.260
931,-0.135,-0.270
932,-0.135,-0.260
933,-0.120,-0.260
934,-0.150,-0.245
935,-0.115,-0.250
936,-0.090,-0.225
937,-0.070,-0.195
938,-0.075,-0.185
939,-0.050,-0.230
940,-0.050,-0.245
941,-0.085,-0.250
942,-0.105,-0.235
943,-0.125,-0.230
944,-0.115,-0.255
945,-0.125,-0.265
946,-0.145,-0.260
947,-0.135,-0.290
948,-0.145,-0.295
949,-0.160,-0.300
950,-0.170,-0.315
951,-0.170,-0.270
952,-0.145,-0.135
953,-0.065,0.215
954,0.030,0.575
955,0.060,0.615
956,0.000,0.080
957,-0.285,-0.320
958,-0.735,-0.330
959,-0.745,-0.320
960,-0.525,-0.315
961,-0.280,-0.310
962,-0.185,-0.315
963,-0.150,-0.310
964,-0.140,-0.315
965,-0.135,-0.320
966,-0.120,-0.315
967,-0.120,-0.335
968,-0.115,-0.340
969,-0.095,-0.350
970,-0.105,-0.320
971,-0.075,-0.315
972,-0.095,-0.310
973,-0.070,-0.315
974,-0.060,-0.335
975,-0.065,-0.320
976,-0.070,-0.345
977,-0.045,-0.325
978,-0.030,-0.330
979,-0.040,-0.345
980,-0.010,-0.320
981,-0.020,-0.320
982,-0.020,-0.315
983,-0.025,-0.300
984,-0.010,-0.295
985,-0.010,-0.315
986,-0.010,-0.310
987,0.000,-0.285
988,0.010,-0.285
989,0.000,-0.280
990,0.000,-0.275
991,-0.025,-0.270
992,-0.030,-0.260
993,-0.015,-0.240
994,-0.020,-0.230
995,-0.005,-0.215
996,-0.010,-0.230
997,-0.005,-0.260
998,-0.025,-0.230
999,-0.035,-0.250
1000,-0.035,-0.250
1001,-0.050,-0.270
1002,-0.065,-0.270
1003,-0.090,-0.250
1004,-0.080,-0.240
1005,-0.075,-0.235
1006,-0.060,-0.255
1007,-0.050,-0.250
1008,-0.065,-0.270
1009,-0.065,-0.265
1010,-0.070,-0.240
1011,-0.065,-0.215
1012,-0.055,-0.205
1013,-0.080,-0.225
1014,-0.060,-0.205
1015,-0.055,-0.195
1016,-0.070,-0.190
1017,-0.055,-0.190
1018,-0.070,-0.200
1019,-0.065,-0.180
1020,-0.065,-0.185
1021,-0.065,-0.180
1022,-0.090,-0.175
1023,-0.070,-0.180
1024,-0.075,-0.185
1025,-0.055,-0.205
1026,-0.070,-0.220
1027,-0.085,-0.210
1028,-0.090,-0.230
1029,-0.100,-0.240
1030,-0.085,-0.245
1031,-0.065,-0.230
1032,-0.090,-0.250
1033,-0.100,-0.245
1034,-0.090,-0.250
1035,-0.080,-0.250
1036,-0.080,-0.235
1037,-0.075,-0.250
1038,-0.075,-0.245
1039,-0.075,-0.245
1040,-0.075,-0.240
1041,-0.065,-0.235
1042,-0.075,-0.230
1043,-0.060,-0.245
1044,-0.060,-0.250
1045,-0.065,-0.235
1046,-0.065,-0.235
1047,-0.090,-0.245
1048,-0.080,-0.240
1049,-0.105,-0.225
1050,-0.085,-0.225
1051,-0.085,-0.240
1052,-0.085,-0.220
1053,-0.080,-0.225
1054,-0.080,-0.235
1055,-0.090,-0.265
1056,-0.090,-0.260
1057,-0.080,-0.265
1058,-0.090,-0.270
1059,-0.085,-0.250
1060,-0.095,-0.270
1061,-0.085,-0.240
1062,-0.070,-0.220
1063,-0.070,-0.190
1064,-0.025,-0.200
1065,-0.015,-0.220
1066,-0.030,-0.250
1067,-0.020,-0.240
1068,-0.070,-0.220
1069,-0.070,-0.250
1070,-0.040,-0.245
1071,-0.070,-0.255
1072,-0.060,-0.255
1073,-0.070,-0.275
1074,-0.090,-0.265
1075,-0.120,-0.275
1076,-0.125,-0.260
1077,-0.115,-0.250
1078,-0.105,-0.170
1079,-0.055,0.050
1080,0.010,0.375
1081,0.065,0.560
1082,0.020,0.235
1083,-0.150,-0.230
1084,-0.610,-0.350
1085,-0.780,-0.310
1086,-0.630,-0.310
1087,-0.365,-0.305
1088,-0.200,-0.295
1089,-0.145,-0.315
1090,-0.150,-0.310
1091,-0.120,-0.305
1092,-0.135,-0.305
1093,-0.120,-0.325
1094,-0.115,-0.320
1095,-0.090,-0.310
1096,-0.115,-0.330
1097,-0.115,-0.330
1098,-0.110,-0.295
1099,-0.090,-0.305
1100,-0.075,-0.325
1101,-0.100,-0.290
1102,-0.095,-0.285
1103,-0.075,-0.285
1104,-0.070,-0.300
1105,-0.065,-0.265
1106,-0.090,-0.275
1107,-0.055,-0.295
1108,-0.060,-0.290
1109,-0.070,-0.270
1110,-0.075,-0.290
1111,-0.065,-0.305
1112,-0.080,-0.300
1113,-0.050,-0.300
1114,-0.060,-0.285
1115,-0.085,-0.305
1116,-0.075,-0.290
1117,-0.070,-0.290
1118,-0.080,-0.300
1119,-0.080,-0.265
1120,-0.075,-0.280
1121,-0.070,-0.275
1122,-0.055,-0.260
1123,-0.070,-0.245
1124,-0.080,-0.255
1125,-0.060,-0.270
1126,-0.080,-0.280
1127,-0.080,-0.255
1128,-0.075,-0.245
1129,-0.090,-0.255
1130,-0.080,-0.290
1131,-0.085,-0.310
1132,-0.105,-0.285
1133,-0.095,-0.300
1134,-0.095,-0.305
1135,-0.085,-0.295
1136,-0.080,-0.305
1137,-0.110,-0.320
1138,-0.090,-0.305
1139,-0.110,-0.290
1140,-0.105,-0.290
1141,-0.100,-0.275
1142,-0.095,-0.275
1143,-0.115,-0.270
1144,-0.100,-0.265
1145,-0.110,-0.250
1146,-0.110,-0.235
1147,-0.120,-0.215
1148,-0.130,-0.195
1149,-0.145,-0.195
1150,-0.140,-0.210
1151,-0.130,-0.230
1152,-0.120,-0.260
1153,-0.105,-0.250
1154,-0.130,-0.260
1155,-0.130,-0.230
1156,-0.120,-0.220
1157,-0.135,-0.220
1158,-0.135,-0.235
1159,-0.135,-0.250
1160,-0.125,-0.240
1161,-0.085,-0.230
1162,-0.075,-0.205
1163,-0.090,-0.190
1164,-0.075,-0.175
1165,-0.075,-0.200
1166,-0.090,-0.205
1167,-0.110,-0.220
1168,-0.145,-0.250
1169,-0.115,-0.260
1170,-0.155,-0.270
1171,-0.185,-0.285
1172,-0.175,-0.295
1173,-0.195,-0.320
1174,-0.205,-0.300
1175,-0.205,-0.315
1176,-0.205,-0.325
1177,-0.190,-0.255
1178,-0.125,-0.020
1179,-0.060,0.280
1180,0.025,0.480
1181,0.025,0.290
1182,-0.125,-0.205
1183,-0.570,-0.385
1184,-0.875,-0.325
1185,-0.785,-0.310
1186,-0.500,-0.290
1187,-0.280,-0.300
1188,-0.230,-0.305
1189,-0.200,-0.280
1190,-0.195,-0.295
1191,-0.180,-0.290
1192,-0.175,-0.290
1193,-0.180,-0.280
1194,-0.170,-0.300
1195,-0.140,-0.300
1196,-0.145,-0.325
1197,-0.100,-0.340
1198,-0.100,-0.335
1199,-0.090,-0.335
1200,-0.075,-0.325
1201,-0.090,-0.300
1202,-0.100,-0.315
1203,-0.095,-0.300
1204,-0.085,-0.305
1205,-0.085,-0.290
1206,-0.110,-0.310
1207,-0.080,-0.300
1208,-0.075,-0.320
1209,-0.070,-0.310
1210,-0.075,-0.315
1211,-0.050,-0.330
1212,-0.080,-0.315
1213,-0.075,-0.335
1214,-0.065,-0.305
1215,-0.080,-0.325
1216,-0.095,-0.300
1217,-0.110,-0.305
1218,-0.055,-0.275
1219,-0.080,-0.270
1220,-0.075,-0.290
1221,-0.065,-0.280
1222,-0.070,-0.290
1223,-0.070,-0.285
1224,-0.070,-0.305
1225,-0.085,-0.310
1226,-0.095,-0.325
1227,-0.105,-0.325
1228,-0.105,-0.355
1229,-0.130,-0.335
1230,-0.120,-0.335
1231,-0.130,-0.355
1232,-0.130,-0.345
1233,-0.130,-0.355
1234,-0.150,-0.345
1235,-0.140,-0.345
1236,-0.155,-0.350
1237,-0.135,-0.335
1238,-0.135,-0.350
1239,-0.150,-0.370
1240,-0.140,-0.360
1241,-0.135,-0.350
1242,-0.120,-0.340
1243,-0.135,-0.345
1244,-0.145,-0.345
1245,-0.150,-0.340
1246,-0.150,-0.360
1247,-0.150,-0.350
1248,-0.150,-0.335
1249,-0.140,-0.360
1250,-0.145,-0.345
1251,-0.145,-0.330
1252,-0.160,-0.345
1253,-0.160,-0.345
1254,-0.160,-0.330
1255,-0.165,-0.320
1256,-0.175,-0.350
1257,-0.170,-0.340
1258,-0.195,-0.365
1259,-0.185,-0.345
1260,-0.180,-0.345
1261,-0.195,-0.350
1262,-0.185,-0.335
1263,-0.185,-0.330
1264,-0.190,-0.320
1265,-0.195,-0.325
1266,-0.185,-0.330
1267,-0.180,-0.315
1268,-0.180,-0.315
1269,-0.170,-0.325
1270,-0.165,-0.315
1271,-0.155,-0.315
1272,-0.160,-0.300
1273,-0.170,-0.290
1274,-0.170,-0.295
1275,-0.175,-0.310
1276,-0.160,-0.305
1277,-0.160,-0.295
1278,-0.155,-0.305
1279,-0.160,-0.295
1280,-0.155,-0.315
1281,-0.150,-0.295
1282,-0.155,-0.300
1283,-0.145,-0.320
1284,-0.145,-0.305
1285,-0.145,-0.325
1286,-0.155,-0.305
1287,-0.155,-0.295
1288,-0.155,-0.315
1289,-0.175,-0.315
1290,-0.180,-0.325
1291,-0.170,-0.315
1292,-0.180,-0.310
1293,-0.170,-0.310
1294,-0.175,-0.310
1295,-0.175,-0.330
1296,-0.150,-0.295
1297,-0.130,-0.275
1298,-0.115,-0.250
1299,-0.105,-0.240
1300,-0.090,-0.250
1301,-0.095,-0.210
1302,-0.100,-0.230
1303,-0.135,-0.260
1304,-0.115,-0.275
1305,-0.150,-0.280
1306,-0.145,-0.285
1307,-0.170,-0.300
1308,-0.175,-0.300
1309,-0.190,-0.290
1310,-0.175,-0.320
1311,-0.190,-0.305
1312,-0.200,-0.210
1313,-0.130,0.085
1314,-0.055,0.480
1315,0.025,0.690
1316,0.005,0.300
1317,-0.125,-0.250
1318,-0.590,-0.405
1319,-0.805,-0.345
1320,-0.680,-0.310
1321,-0.400,-0.340
1322,-0.235,-0.320
1323,-0.210,-0.320
1324,-0.200,-0.320
1325,-0.190,-0.330
1326,-0.165,-0.310
1327,-0.160,-0.310
1328,-0.155,-0.315
1329,-0.145,-0.310
1330,-0.145,-0.300
1331,-0.150,-0.310
1332,-0.150,-0.320
1333,-0.155,-0.305
1334,-0.135,-0.290
1335,-0.150,-0.305
1336,-0.145,-0.310
1337,-0.145,-0.290
1338,-0.130,-0.290
1339,-0.130,-0.320
1340,-0.120,-0.340
1341,-0.110,-0.335
1342,-0.110,-0.350
1343,-0.080,-0.335
1344,-0.095,-0.330
1345,-0.110,-0.330
1346,-0.100,-0.330
1347,-0.130,-0.320
1348,-0.115,-0.315
1349,-0.120,-0.320
1350,-0.120,-0.330
1351,-0.100,-0.340
1352,-0.110,-0.305
1353,-0.110,-0.300
1354,-0.110,-0.335
1355,-0.080,-0.310
1356,-0.070,-0.280
1357,-0.090,-0.290
1358,-0.100,-0.285
1359,-0.075,-0.295
1360,-0.075,-0.300
1361,-0.085,-0.310
1362,-0.105,-0.315
1363,-0.120,-0.315
1364,-0.110,-0.320
1365,-0.110,-0.340
1366,-0.125,-0.300
1367,-0.145,-0.325
1368,-0.115,-0.330
1369,-0.125,-0.350
1370,-0.135,-0.340
1371,-0.140,-0.320
1372,-0.145,-0.330
1373,-0.130,-0.340
1374,-0.135,-0.345
1375,-0.145,-0.325
1376,-0.140,-0.360
1377,-0.140,-0.355
1378,-0.145,-0.345
1379,-0.145,-0.355
1380,-0.150,-0.370
1381,-0.150,-0.370
1382,-0.150,-0.375
1383,-0.150,-0.380
1384,-0.145,-0.350
1385,-0.140,-0.340
1386,-0.140,-0.350
1387,-0.140,-0.350
1388,-0.130,-0.330
1389,-0.150,-0.360
1390,-0.135,-0.340
1391,-0.135,-0.365
1392,-0.125,-0.365
1393,-0.155,-0.355
1394,-0.145,-0.365
1395,-0.130,-0.355
1396,-0.110,-0.360
1397,-0.110,-0.365
1398,-0.115,-0.375
1399,-0.120,-0.365
1400,-0.105,-0.390
1401,-0.125,-0.395
1402,-0.110,-0.370
1403,-0.120,-0.365
1404,-0.110,-0.365
1405,-0.120,-0.350
1406,-0.120,-0.355
1407,-0.115,-0.345
1408,-0.095,-0.385
1409,-0.110,-0.390
1410,-0.115,-0.365
1411,-0.100,-0.350
1412,-0.110,-0.335
1413,-0.100,-0.320
1414,-0.105,-0.305
1415,-0.115,-0.300
1416,-0.105,-0.305
1417,-0.125,-0.285
1418,-0.110,-0.315
1419,-0.110,-0.310
1420,-0.115,-0.310
1421,-0.115,-0.305
1422,-0.120,-0.340
1423,-0.110,-0.330
1424,-0.120,-0.320
1425,-0.105,-0.295
1426,-0.075,-0.295
1427,-0.065,-0.275
1428,-0.055,-0.265
1429,-0.050,-0.300
1430,-0.075,-0.305
1431,-0.095,-0.285
1432,-0.090,-0.285
1433,-0.115,-0.305
1434,-0.110,-0.310
1435,-0.110,-0.335
1436,-0.125,-0.345
1437,-0.130,-0.335
1438,-0.165,-0.335
1439,-0.165,-0.330
1440,-0.160,-0.290
1441,-0.120,-0.140
1442,-0.055,0.195
1443,0.025,0.505
1444,0.055,0.495
1445,-0.025,0.020
1446,-0.360,-0.305
1447,-0.745,-0.330
1448,-0.725,-0.300
1449,-0.510,-0.295
1450,-0.275,-0.305
1451,-0.200,-0.305
1452,-0.150,-0.325
1453,-0.155,-0.335
1454,-0.140,-0.350
1455,-0.140,-0.340
1456,-0.135,-0.335
1457,-0.135,-0.325
1458,-0.135,-0.335
1459,-0.140,-0.320
1460,-0.135,-0.300
1461,-0.130,-0.315
1462,-0.135,-0.320
1463,-0.135,-0.315
1464,-0.150,-0.300
1465,-0.135,-0.325
1466,-0.130,-0.335
1467,-0.130,-0.305
1468,-0.120,-0.315
1469,-0.120,-0.305
1470,-0.125,-0.300
1471,-0.105,-0.310
1472,-0.100,-0.325
1473,-0.100,-0.330
1474,-0.100,-0.320
1475,-0.105,-0.300
1476,-0.115,-0.315
1477,-0.125,-0.295
1478,-0.115,-0.325
1479,-0.135,-0.320
1480,-0.105,-0.315
1481,-0.110,-0.310
1482,-0.135,-0.305
1483,-0.125,-0.295
1484,-0.115,-0.295
1485,-0.120,-0.280
1486,-0.120,-0.295
1487,-0.130,-0.305
1488,-0.115,-0.305
1489,-0.145,-0.305
1490,-0.125,-0.315
1491,-0.145,-0.340
1492,-0.155,-0.330
1493,-0.130,-0.335
1494,-0.120,-0.365
1495,-0.130,-0.390
1496,-0.130,-0.350
1497,-0.115,-0.320
1498,-0.125,-0.320
1499,-0.145,-0.340
1500,-0.130,-0.340
1501,-0.130,-0.340
1502,-0.150,-0.335
1503,-0.135,-0.350
1504,-0.120,-0.335
1505,-0.125,-0.335
1506,-0.120,-0.340
1507,-0.130,-0.370
1508,-0.115,-0.350
1509,-0.140,-0.365
1510,-0.140,-0.385
1511,-0.175,-0.375
1512,-0.130,-0.365
1513,-0.135,-0.365
1514,-0.155,-0.365
1515,-0.145,-0.380
1516,-0.125,-0.370
1517,-0.155,-0.365
1518,-0.140,-0.390
1519,-0.165,-0.380
1520,-0.165,-0.370
1521,-0.165,-0.375
1522,-0.160,-0.370
1523,-0.160,-0.390
1524,-0.145,-0.385
1525,-0.150,-0.370
1526,-0.135,-0.355
1527,-0.140,-0.380
1528,-0.145,-0.360
1529,-0.140,-0.385
1530,-0.135,-0.380
1531,-0.130,-0.395
1532,-0.125,-0.380
1533,-0.155,-0.390
1534,-0.125,-0.360
1535,-0.130,-0.385
1536,-0.115,-0.360
1537,-0.100,-0.355
1538,-0.130,-0.350
1539,-0.135,-0.370
1540,-0.150,-0.355
1541,-0.135,-0.345
1542,-0.120,-0.335
1543,-0.140,-0.330
1544,-0.135,-0.320
1545,-0.120,-0.320
1546,-0.135,-0.320
1547,-0.130,-0.320
1548,-0.120,-0.310
1549,-0.115,-0.315
1550,-0.120,-0.325
1551,-0.120,-0.295
1552,-0.095,-0.245
1553,-0.085,-0.215
1554,-0.060,-0.160
1555,-0.060,-0.110
1556,-0.040,-0.140
1557,-0.060,-0.160
1558,-0.105,-0.185
1559,-0.110,-0.235
1560,-0.095,-0.260
1561,-0.105,-0.280
1562,-0.100,-0.295
1563,-0.120,-0.325
1564,-0.155,-0.320
1565,-0.160,-0.315
1566,-0.155,-0.310
1567,-0.155,-0.250
1568,-0.115,-0.095
1569,-0.045,0.150
1570,0.020,0.425
1571,0.060,0.525
1572,-0.030,0.150
1573,-0.230,-0.275
1574,-0.680,-0.365
1575,-0.775,-0.325
1576,-0.610,-0.300
1577,-0.355,-0.300
1578,-0.190,-0.260
1579,-0.170,-0.295
1580,-0.160,-0.360
1581,-0.150,-0.350
1582,-0.140,-0.330
1583,-0.145,-0.315
1584,-0.150,-0.300
1585,-0.135,-0.280
1586,-0.145,-0.275
1587,-0.135,-0.285
1588,-0.115,-0.295
1589,-0.135,-0.330
1590,-0.110,-0.305
1591,-0.110,-0.300
1592,-0.125,-0.310
1593,-0.115,-0.310
1594,-0.105,-0.325
1595,-0.095,-0.315
1596,-0.115,-0.340
1597,-0.120,-0.320
1598,-0.130,-0.355
1599,-0.095,-0.360
1600,-0.085,-0.330
1601,-0.075,-0.325
1602,-0.105,-0.360
1603,-0.100,-0.380
1604,-0.105,-0.370
1605,-0.120,-0.380
1606,-0.125,-0.380
1607,-0.125,-0.355
1608,-0.105,-0.365
1609,-0.125,-0.350
1610,-0.100,-0.350
1611,-0.110,-0.320
1612,-0.085,-0.295
1613,-0.095,-0.315
1614,-0.095,-0.310
1615,-0.095,-0.305
1616,-0.100,-0.315
1617,-0.105,-0.335
1618,-0.110,-0.335
1619,-0.105,-0.340
1620,-0.125,-0.340
1621,-0.120,-0.345
1622,-0.120,-0.330
1623,-0.105,-0.360
1624,-0.145,-0.400
1625,-0.135,-0.380
1626,-0.145,-0.385
1627,-0.145,-0.415
1628,-0.145,-0.385
1629,-0.140,-0.385
1630,-0.165,-0.390
1631,-0.135,-0.405
1632,-0.135,-0.385
1633,-0.150,-0.370
1634,-0.145,-0.370
1635,-0.140,-0.375
1636,-0.140,-0.380
1637,-0.155,-0.365
1638,-0.150,-0.390
1639,-0.150,-0.410
1640,-0.120,-0.410
1641,-0.135,-0.385
1642,-0.135,-0.375
1643,-0.140,-0.375
1644,-0.140,-0.375
1645,-0.125,-0.380
1646,-0.120,-0.385
1647,-0.145,-0.405
1648,-0.145,-0.380
1649,-0.145,-0.390
1650,-0.145,-0.395
1651,-0.135,-0.395
1652,-0.135,-0.380
1653,-0.140,-0.375
1654,-0.135,-0.370
1655,-0.130,-0.390
1656,-0.135,-0.420
1657,-0.135,-0.410
1658,-0.125,-0.400
1659,-0.135,-0.405
1660,-0.110,-0.410
1661,-0.115,-0.405
1662,-0.120,-0.400
1663,-0.115,-0.395
1664,-0.115,-0.405
1665,-0.100,-0.400
1666,-0.100,-0.385
1667,-0.105,-0.380
1668,-0.115,-0.375
1669,-0.120,-0.385
1670,-0.115,-0.410
1671,-0.110,-0.380
1672,-0.110,-0.350
1673,-0.090,-0.350
1674,-0.100,-0.350
1675,-0.085,-0.335
1676,-0.100,-0.350
1677,-0.095,-0.370
1678,-0.100,-0.385
1679,-0.105,-0.370
1680,-0.120,-0.370
1681,-0.110,-0.370
1682,-0.115,-0.365
1683,-0.080,-0.330
1684,-0.070,-0.315
1685,-0.040,-0.300
1686,-0.050,-0.325
1687,-0.045,-0.355
1688,-0.065,-0.335
1689,-0.110,-0.330
1690,-0.105,-0.320
1691,-0.095,-0.325
1692,-0.100,-0.360
1693,-0.100,-0.380
1694,-0.110,-0.375
1695,-0.120,-0.370
1696,-0.150,-0.370
1697,-0.130,-0.400
1698,-0.150,-0.390
1699,-0.130,-0.230
1700,-0.080,0.100
1701,0.010,0.440
1702,0.080,0.570
1703,0.100,0.240
1704,0.000,-0.345
1705,-0.455,-0.465
1706,-0.790,-0.375
1707,-0.715,-0.365
1708,-0.430,-0.410
1709,-0.220,-0.380
1710,-0.135,-0.380
1711,-0.130,-0.385
1712,-0.100,-0.390
1713,-0.125,-0.400
1714,-0.125,-0.405
1715,-0.105,-0.390
1716,-0.110,-0.375
1717,-0.120,-0.395
1718,-0.095,-0.400
1719,-0.095,-0.380
1720,-0.080,-0.350
1721,-0.095,-0.365
1722,-0.100,-0.380
1723,-0.090,-0.365
1724,-0.100,-0.360
1725,-0.110,-0.385
1726,-0.095,-0.355
1727,-0.100,-0.340
1728,-0.125,-0.330
1729,-0.080,-0.315
1730,-0.070,-0.320
1731,-0.055,-0.325
1732,-0.075,-0.320
1733,-0.060,-0.365
1734,-0.060,-0.350
1735,-0.090,-0.325
1736,-0.080,-0.345
1737,-0.080,-0.345
1738,-0.070,-0.345
1739,-0.080,-0.335
1740,-0.085,-0.335
1741,-0.065,-0.345
1742,-0.065,-0.290
1743,-0.060,-0.305
1744,-0.050,-0.330
1745,-0.065,-0.300
1746,-0.055,-0.315
1747,-0.070,-0.300
1748,-0.055,-0.320
1749,-0.070,-0.320
1750,-0.090,-0.360
1751,-0.100,-0.320
1752,-0.070,-0.360
1753,-0.095,-0.385
1754,-0.085,-0.360
1755,-0.120,-0.360
1756,-0.100,-0.370
1757,-0.080,-0.365
1758,-0.070,-0.360
1759,-0.080,-0.330
1760,-0.095,-0.355
1761,-0.110,-0.355
1762,-0.100,-0.335
1763,-0.115,-0.335
1764,-0.125,-0.335
1765,-0.115,-0.325
1766,-0.115,-0.320
1767,-0.120,-0.355
1768,-0.125,-0.335
1769,-0.140,-0.320
1770,-0.140,-0.320
1771,-0.165,-0.320
1772,-0.155,-0.345
1773,-0.155,-0.355
1774,-0.155,-0.320
1775,-0.170,-0.340
1776,-0.175,-0.320
1777,-0.170,-0.315
1778,-0.155,-0.320
1779,-0.160,-0.300
1780,-0.160,-0.300
1781,-0.160,-0.325
1782,-0.135,-0.340
1783,-0.145,-0.350
1784,-0.145,-0.340
1785,-0.115,-0.375
1786,-0.100,-0.370
1787,-0.080,-0.330
1788,-0.105,-0.340
1789,-0.110,-0.355
1790,-0.090,-0.375
1791,-0.100,-0.390
1792,-0.110,-0.380
1793,-0.120,-0.385
1794,-0.115,-0.435
1795,-0.115,-0.455
1796,-0.135,-0.465
1797,-0.135,-0.410
1798,-0.120,-0.400
1799,-0.105,-0.440
1800,-0.085,-0.460
1801,-0.090,-0.445
1802,-0.080,-0.430
1803,-0.065,-0.440
1804,-0.090,-0.425
1805,-0.080,-0.420
1806,-0.105,-0.400
1807,-0.090,-0.415
1808,-0.065,-0.405
1809,-0.015,-0.390
1810,-0.025,-0.365
1811,0.005,-0.365
1812,0.025,-0.405
1813,0.000,-0.445
1814,-0.010,-0.445
1815,-0.035,-0.400
1816,-0.040,-0.355
1817,-0.040,-0.390
1818,-0.045,-0.370
1819,-0.055,-0.365
1820,-0.060,-0.365
1821,-0.055,-0.365
1822,-0.080,-0.385
1823,-0.075,-0.395
1824,-0.080,-0.325
1825,-0.020,-0.070
1826,0.045,0.225
1827,0.125,0.445
1828,0.095,0.175
1829,-0.045,-0.345
1830,-0.460,-0.520
1831,-0.760,-0.480
1832,-0.615,-0.455
1833,-0.375,-0.390
1834,-0.160,-0.355
1835,-0.100,-0.320
1836,-0.080,-0.325
1837,-0.070,-0.310
1838,-0.060,-0.310
1839,-0.055,-0.305
1840,-0.050,-0.310
1841,-0.045,-0.310
1842,-0.065,-0.295
1843,-0.040,-0.290
1844,-0.030,-0.295
1845,-0.040,-0.265
1846,-0.045,-0.280
1847,-0.035,-0.300
1848,-0.030,-0.310
1849,0.000,-0.315
1850,-0.020,-0.315
1851,-0.005,-0.320
1852,-0.020,-0.300
1853,-0.025,-0.290
1854,-0.020,-0.295
1855,-0.035,-0.290
1856,-0.020,-0.300
1857,0.000,-0.300
1858,-0.015,-0.295
1859,-0.050,-0.315
1860,-0.015,-0.320
1861,-0.045,-0.305
1862,-0.060,-0.305
1863,-0.035,-0.305
1864,-0.040,-0.300
1865,-0.030,-0.305
1866,-0.030,-0.295
1867,-0.035,-0.295
1868,-0.030,-0.295
1869,-0.045,-0.310
1870,-0.045,-0.300
1871,-0.040,-0.290
1872,-0.045,-0.300
1873,-0.045,-0.280
1874,-0.045,-0.275
1875,-0.040,-0.265
1876,-0.025,-0.270
1877,-0.050,-0.310
1878,-0.060,-0.300
1879,-0.065,-0.300
1880,-0.070,-0.295
1881,-0.040,-0.275
1882,-0.045,-0.290
1883,-0.055,-0.280
1884,-0.060,-0.260
1885,-0.060,-0.280
1886,-0.060,-0.270
1887,-0.085,-0.255
1888,-0.080,-0.240
1889,-0.085,-0.275
1890,-0.080,-0.280
1891,-0.075,-0.250
1892,-0.070,-0.255
1893,-0.080,-0.260
1894,-0.100,-0.270
1895,-0.065,-0.270
1896,-0.090,-0.290
1897,-0.085,-0.315
1898,-0.095,-0.310
1899,-0.080,-0.290
1900,-0.090,-0.305
1901,-0.080,-0.290
1902,-0.095,-0.275
1903,-0.085,-0.300
1904,-0.090,-0.300
1905,-0.095,-0.295
1906,-0.085,-0.295
1907,-0.095,-0.275
1908,-0.100,-0.275
1909,-0.095,-0.270
1910,-0.100,-0.270
1911,-0.110,-0.310
1912,-0.085,-0.325
1913,-0.075,-0.320
1914,-0.100,-0.325
1915,-0.110,-0.305
1916,-0.085,-0.320
1917,-0.075,-0.315
1918,-0.100,-0.305
1919,-0.095,-0.340
1920,-0.095,-0.325
1921,-0.090,-0.305
1922,-0.100,-0.320
1923,-0.090,-0.310
1924,-0.090,-0.290
1925,-0.085,-0.310
1926,-0.075,-0.290
1927,-0.070,-0.315
1928,-0.075,-0.295
1929,-0.080,-0.295
1930,-0.080,-0.310
1931,-0.075,-0.300
1932,-0.085,-0.290
1933,-0.070,-0.310
1934,-0.070,-0.280
1935,-0.045,-0.235
1936,-0.025,-0.245
1937,0.000,-0.240
1938,0.000,-0.250
1939,0.005,-0.280
1940,-0.035,-0.280
1941,-0.045,-0.280
1942,-0.075,-0.315
1943,-0.065,-0.335
1944,-0.075,-0.335
1945,-0.100,-0.330
1946,-0.090,-0.340
1947,-0.110,-0.330
1948,-0.125,-0.340
1949,-0.135,-0.370
1950,-0.120,-0.325
1951,-0.085,-0.050
1952,-0.010,0.330
1953,0.090,0.605
1954,0.130,0.450
1955,0.035,-0.145
1956,-0.300,-0.420
1957,-0.750,-0.345
1958,-0.725,-0.300
1959,-0.490,-0.350
1960,-0.230,-0.370
1961,-0.140,-0.345
1962,-0.115,-0.365
1963,-0.105,-0.360
1964,-0.090,-0.365
1965,-0.095,-0.345
1966,-0.100,-0.335
1967,-0.080,-0.335
1968,-0.070,-0.350
1969,-0.070,-0.355
1970,-0.080,-0.340
1971,-0.100,-0.345
1972,-0.090,-0.345
1973,-0.090,-0.340
1974,-0.095,-0.340
1975,-0.080,-0.335
1976,-0.070,-0.330
1977,-0.070,-0.310
1978,-0.060,-0.340
1979,-0.070,-0.340
1980,-0.075,-0.320
1981,-0.085,-0.310
1982,-0.060,-0.310
1983,-0.055,-0.310
1984,-0.045,-0.345
1985,-0.065,-0.320
1986,-0.045,-0.335
1987,-0.065,-0.320
1988,-0.070,-0.320
1989,-0.070,-0.330
1990,-0.085,-0.315
1991,-0.075,-0.320
1992,-0.055,-0.305
1993,-0.045,-0.315
1994,-0.075,-0.305
1995,-0.085,-0.320
1996,-0.080,-0.320
1997,-0.085,-0.325
1998,-0.090,-0.320
1999,-0.115,-0.340
2000,-0.090,-0.345
2001,-0.095,-0.340
2002,-0.100,-0.345
2003,-0.110,-0.345
2004,-0.140,-0.340
2005,-0.120,-0.340
2006,-0.120,-0.345
2007,-0.090,-0.335
2008,-0.130,-0.340
2009,-0.130,-0.335
2010,-0.120,-0.345
2011,-0.125,-0.360
2012,-0.130,-0.360
2013,-0.140,-0.330
2014,-0.135,-0.330
2015,-0.140,-0.320
2016,-0.160,-0.340
2017,-0.150,-0.320
2018,-0.130,-0.325
2019,-0.150,-0.335
2020,-0.150,-0.340
2021,-0.145,-0.340
2022,-0.135,-0.325
2023,-0.160,-0.350
2024,-0.155,-0.350
2025,-0.155,-0.350
2026,-0.150,-0.360
2027,-0.170,-0.365
2028,-0.170,-0.360
2029,-0.145,-0.365
2030,-0.150,-0.370
2031,-0.130,-0.340
2032,-0.095,-0.320
2033,-0.120,-0.315
2034,-0.090,-0.305
2035,-0.070,-0.340
2036,-0.105,-0.305
2037,-0.125,-0.320
2038,-0.125,-0.330
2039,-0.130,-0.340
2040,-0.140,-0.355
2041,-0.130,-0.350
2042,-0.150,-0.350
2043,-0.155,-0.355
2044,-0.180,-0.355
2045,-0.180,-0.370
2046,-0.155,-0.325
2047,-0.120,-0.110
2048,-0.060,0.285
2049,0.070,0.620
2050,0.120,0.610
2051,0.060,0.010
2052,-0.220,-0.390
2053,-0.715,-0.360
2054,-0.770,-0.325
2055,-0.550,-0.355
2056,-0.295,-0.360
2057,-0.170,-0.350
2058,-0.135,-0.350
2059,-0.145,-0.335
2060,-0.130,-0.330
2061,-0.120,-0.345
2062,-0.110,-0.330
2063,-0.115,-0.340
2064,-0.115,-0.325
2065,-0.100,-0.315
2066,-0.100,-0.320
2067,-0.100,-0.310
2068,-0.105,-0.305
2069,-0.095,-0.330
2070,-0.095,-0.315
2071,-0.105,-0.310
2072,-0.070,-0.305
2073,-0.065,-0.320
2074,-0.080,-0.300
2075,-0.055,-0.295
2076,-0.055,-0.285
2077,-0.055,-0.300
2078,-0.040,-0.295
2079,-0.040,-0.300
2080,-0.065,-0.295
2081,-0.070,-0.290
2082,-0.065,-0.285
2083,-0.050,-0.300
2084,-0.045,-0.315
2085,-0.040,-0.295
2086,-0.040,-0.280
2087,-0.070,-0.275
2088,-0.075,-0.275
2089,-0.070,-0.255
2090,-0.065,-0.255
2091,-0.070,-0.265
2092,-0.060,-0.275
2093,-0.075,-0.245
2094,-0.090,-0.300
2095,-0.085,-0.310
2096,-0.090,-0.295
2097,-0.100,-0.315
2098,-0.120,-0.305
2099,-0.110,-0.320
2100,-0.100,-0.300
2101,-0.115,-0.305
2102,-0.095,-0.295
2103,-0.130,-0.300
2104,-0.125,-0.310
2105,-0.130,-0.310
2106,-0.130,-0.300
2107,-0.120,-0.305
2108,-0.095,-0.285
2109,-0.125,-0.305
2110,-0.110,-0.305
2111,-0.130,-0.305
2112,-0.150,-0.320
2113,-0.140,-0.325
2114,-0.135,-0.345
2115,-0.150,-0.325
2116,-0.170,-0.340
2117,-0.175,-0.335
2118,-0.190,-0.345
2119,-0.195,-0.365
2120,-0.175,-0.350
2121,-0.185,-0.355
2122,-0.180,-0.360
2123,-0.170,-0.350
2124,-0.165,-0.345
2125,-0.170,-0.355
2126,-0.165,-0.355
2127,-0.155,-0.345
2128,-0.160,-0.330
2129,-0.150,-0.335
2130,-0.170,-0.350
2131,-0.150,-0.330
2132,-0.165,-0.335
2133,-0.180,-0.350
2134,-0.170,-0.340
2135,-0.150,-0.325
2136,-0.140,-0.355
2137,-0.145,-0.320
2138,-0.150,-0.345
2139,-0.160,-0.365
2140,-0.165,-0.360
2141,-0.155,-0.360
2142,-0.155,-0.350
2143,-0.160,-0.355
2144,-0.175,-0.370
2145,-0.185,-0.375
2146,-0.180,-0.345
2147,-0.185,-0.370
2148,-0.185,-0.360
2149,-0.190,-0.355
2150,-0.180,-0.355
2151,-0.195,-0.340
2152,-0.185,-0.350
2153,-0.175,-0.350
2154,-0.190,-0.330
2155,-0.210,-0.300
2156,-0.170,-0.300
2157,-0.185,-0.280
2158,-0.160,-0.300
2159,-0.160,-0.305
2160,-0.170,-0.310
2161,-0.160,-0.315
2162,-0.145,-0.305
2163,-0.170,-0.285
2164,-0.145,-0.310
2165,-0.145,-0.280
2166,-0.115,-0.245
2167,-0.110,-0.240
2168,-0.095,-0.225
2169,-0.080,-0.225
2170,-0.085,-0.210
2171,-0.120,-0.235
2172,-0.140,-0.290
2173,-0.135,-0.305
2174,-0.130,-0.295
2175,-0.150,-0.310
2176,-0.165,-0.320
2177,-0.195,-0.305
2178,-0.195,-0.300
2179,-0.200,-0.335
2180,-0.175,-0.340
2181,-0.190,-0.245
2182,-0.100,0.070
2183,-0.040,0.485
2184,0.055,0.805
2185,0.070,0.530
2186,-0.035,-0.105
2187,-0.470,-0.355
2188,-0.800,-0.320
2189,-0.730,-0.315
2190,-0.500,-0.325
2191,-0.255,-0.325
2192,-0.195,-0.310
2193,-0.185,-0.305
2194,-0.175,-0.310
2195,-0.170,-0.320
2196,-0.180,-0.305
2197,-0.160,-0.305
2198,-0.150,-0.305
2199,-0.150,-0.310
2200,-0.160,-0.325
2201,-0.155,-0.320
2202,-0.140,-0.360
2203,-0.170,-0.330
2204,-0.165,-0.345
2205,-0.150,-0.340
2206,-0.145,-0.345
2207,-0.150,-0.315
2208,-0.130,-0.285
2209,-0.130,-0.305
2210,-0.150,-0.300
2211,-0.150,-0.285
2212,-0.115,-0.285
2213,-0.115,-0.270
2214,-0.130,-0.290
2215,-0.105,-0.285
2216,-0.120,-0.285
2217,-0.105,-0.280
2218,-0.100,-0.285
2219,-0.125,-0.250
2220,-0.130,-0.270
2221,-0.100,-0.270
2222,-0.095,-0.245
2223,-0.095,-0.245
2224,-0.085,-0.250
2225,-0.090,-0.230
2226,-0.090,-0.240
2227,-0.100,-0.215
2228,-0.105,-0.220
2229,-0.120,-0.260
2230,-0.140,-0.270
2231,-0.105,-0.270
2232,-0.120,-0.260
2233,-0.150,-0.265
2234,-0.150,-0.275
2235,-0.160,-0.275
2236,-0.175,-0.280
2237,-0.170,-0.270
2238,-0.155,-0.260
2239,-0.155,-0.275
2240,-0.165,-0.290
2241,-0.155,-0.275
2242,-0.175,-0.305
2243,-0.170,-0.295
2244,-0.185,-0.290
2245,-0.190,-0.295
2246,-0.200,-0.285
2247,-0.200,-0.260
2248,-0.185,-0.285
2249,-0.180,-0.280
2250,-0.190,-0.280
2251,-0.175,-0.300
2252,-0.195,-0.280
2253,-0.205,-0.280
2254,-0.195,-0.290
2255,-0.190,-0.305
2256,-0.195,-0.320
2257,-0.210,-0.325
2258,-0.195,-0.295
2259,-0.180,-0.295
2260,-0.195,-0.235
2261,-0.190,-0.220
2262,-0.205,-0.235
2263,-0.190,-0.230
2264,-0.180,-0.230
2265,-0.160,-0.245
2266,-0.165,-0.240
2267,-0.170,-0.275
2268,-0.165,-0.290
2269,-0.185,-0.290
2270,-0.195,-0.290
2271,-0.195,-0.295
2272,-0.175,-0.300
2273,-0.185,-0.285
2274,-0.175,-0.250
2275,-0.170,-0.265
2276,-0.175,-0.285
2277,-0.175,-0.300
2278,-0.150,-0.305
2279,-0.155,-0.305
2280,-0.145,-0.290
2281,-0.165,-0.295
2282,-0.150,-0.290
2283,-0.145,-0.275
2284,-0.185,-0.265
2285,-0.175,-0.255
2286,-0.160,-0.250
2287,-0.145,-0.260
2288,-0.160,-0.245
2289,-0.140,-0.270
2290,-0.105,-0.280
2291,-0.135,-0.265
2292,-0.110,-0.255
2293,-0.070,-0.235
2294,-0.040,-0.210
2295,-0.025,-0.215
2296,-0.040,-0.230
2297,-0.045,-0.210
2298,-0.075,-0.220
2299,-0.095,-0.210
2300,-0.050,-0.215
2301,-0.075,-0.220
2302,-0.040,-0.205
2303,-0.050,-0.220
2304,-0.080,-0.230
2305,-0.105,-0.215
2306,-0.090,-0.230
2307,-0.085,-0.220
2308,-0.045,-0.090
2309,0.030,0.275
2310,0.100,0.720
2311,0.180,0.890
2312,0.175,0.410
2313,-0.040,-0.130
2314,-0.510,-0.235
2315,-0.610,-0.200
2316,-0.435,-0.200
2317,-0.200,-0.230
2318,-0.070,-0.180
2319,-0.070,-0.170
2320,-0.045,-0.190
2321,-0.020,-0.230
2322,-0.015,-0.200
2323,0.000,-0.205
2324,-0.010,-0.205
2325,-0.005,-0.205
2326,0.015,-0.225
2327,0.015,-0.255
2328,0.060,-0.240
2329,0.050,-0.240
2330,0.055,-0.225
2331,0.080,-0.210
2332,0.050,-0.200
2333,0.055,-0.175
2334,0.045,-0.175
2335,0.030,-0.155
2336,0.040,-0.145
2337,0.035,-0.160
2338,0.040,-0.190
2339,0.030,-0.215
2340,0.030,-0.235
2341,0.025,-0.250
2342,0.030,-0.285
2343,0.045,-0.325
2344,0.045,-0.340
2345,0.030,-0.315
2346,0.010,-0.285
2347,0.000,-0.245
2348,0.010,-0.245
2349,-0.005,-0.245
2350,0.000,-0.220
2351,0.010,-0.205
2352,0.010,-0.185
2353,0.030,-0.185
2354,0.020,-0.200
2355,0.000,-0.175
2356,-0.010,-0.145
2357,-0.035,-0.150
2358,-0.050,-0.145
2359,-0.035,-0.150
2360,-0.050,-0.170
2361,-0.030,-0.175
2362,-0.025,-0.180
2363,-0.030,-0.195
2364,-0.040,-0.225
2365,-0.045,-0.240
2366,-0.060,-0.235
2367,-0.075,-0.210
2368,-0.085,-0.225
2369,-0.090,-0.225
2370,-0.090,-0.180
2371,-0.095,-0.160
2372,-0.075,-0.140
2373,-0.090,-0.110
2374,-0.075,-0.130
2375,-0.070,-0.145
2376,-0.055,-0.135
2377,-0.065,-0.120
2378,-0.065,-0.150
2379,-0.055,-0.155
2380,-0.045,-0.180
2381,-0.050,-0.200
2382,-0.035,-0.175
2383,-0.050,-0.175
2384,-0.025,-0.195
2385,-0.035,-0.200
2386,-0.070,-0.160
2387,-0.045,-0.150
2388,-0.040,-0.150
2389,-0.040,-0.170
2390,-0.035,-0.185
2391,-0.025,-0.190
2392,-0.010,-0.155
2393,-0.015,-0.185
2394,-0.015,-0.175
2395,-0.020,-0.180
2396,-0.025,-0.200
2397,0.005,-0.205
2398,0.000,-0.195
2399,0.000,-0.185
2400,-0.005,-0.230
2401,-0.010,-0.230
2402,-0.015,-0.225
2403,-0.035,-0.225
2404,-0.045,-0.190
2405,-0.055,-0.200
2406,-0.055,-0.205
2407,-0.060,-0.200
2408,-0.060,-0.185
2409,-0.055,-0.155
2410,-0.055,-0.190
2411,-0.065,-0.180
2412,-0.080,-0.185
2413,-0.060,-0.165
2414,-0.040,-0.140
2415,-0.010,-0.095
2416,0.005,-0.065
2417,0.015,-0.075
2418,0.035,-0.105
2419,0.025,-0.105
2420,0.000,-0.155
2421,-0.030,-0.160
2422,-0.025,-0.165
2423,-0.015,-0.170
2424,-0.025,-0.170
2425,-0.025,-0.155
2426,-0.040,-0.150
2427,-0.065,-0.160
2428,-0.055,-0.185
2429,-0.055,-0.205
2430,-0.015,-0.095
2431,0.015,0.150
2432,0.080,0.515
2433,0.160,0.710
2434,0.115,0.360
2435,-0.030,-0.110
2436,-0.475,-0.235
2437,-0.675,-0.195
2438,-0.500,-0.220
2439,-0.235,-0.240
2440,-0.090,-0.235
2441,-0.040,-0.235
2442,-0.030,-0.215
2443,-0.015,-0.200
2444,0.000,-0.180
2445,0.000,-0.150
2446,0.010,-0.160
2447,0.005,-0.160
2448,0.000,-0.150
2449,0.005,-0.175
2450,-0.005,-0.170
2451,0.010,-0.175
2452,0.000,-0.180
2453,0.010,-0.165
2454,0.035,-0.170
2455,0.030,-0.120
2456,0.030,-0.145
2457,0.035,-0.145
2458,0.025,-0.135
2459,0.030,-0.120
2460,0.025,-0.130
2461,0.030,-0.130
2462,0.035,-0.135
2463,0.045,-0.120
2464,0.035,-0.135
2465,0.030,-0.120
2466,0.055,-0.095
2467,0.045,-0.090
2468,0.030,-0.085
2469,0.035,-0.085
2470,0.035,-0.075
2471,0.035,-0.060
2472,0.030,-0.060
2473,0.035,-0.055
2474,0.035,-0.040
2475,0.035,-0.040
2476,0.005,-0.060
2477,0.035,-0.090
2478,0.005,-0.090
2479,0.005,-0.100
2480,0.010,-0.120
2481,-0.010,-0.110
2482,-0.025,-0.115
2483,-0.025,-0.120
2484,-0.020,-0.120
2485,-0.015,-0.145
2486,-0.040,-0.140
2487,-0.050,-0.155
2488,-0.025,-0.180
2489,-0.040,-0.200
2490,-0.040,-0.200
2491,-0.035,-0.235
2492,-0.025,-0.235
2493,-0.030,-0.215
2494,-0.035,-0.225
2495,-0.035,-0.210
2496,-0.050,-0.215
2497,-0.050,-0.210
2498,-0.055,-0.220
2499,-0.065,-0.220
2500,-0.035,-0.225
2501,-0.015,-0.250
2502,-0.055,-0.260
2503,-0.050,-0.275
2504,-0.055,-0.265
2505,-0.035,-0.250
2506,-0.055,-0.255
2507,-0.045,-0.255
2508,-0.040,-0.245
2509,-0.075,-0.260
2510,-0.045,-0.260
2511,-0.030,-0.280
2512,-0.055,-0.295
2513,-0.065,-0.305
2514,-0.050,-0.310
2515,-0.050,-0.320
2516,-0.070,-0.290
2517,-0.055,-0.275
2518,-0.055,-0.270
2519,-0.040,-0.260
2520,-0.055,-0.250
2521,-0.040,-0.260
2522,-0.045,-0.265
2523,-0.040,-0.260
2524,-0.045,-0.280
2525,-0.035,-0.285
2526,-0.035,-0.305
2527,-0.040,-0.310
2528,-0.055,-0.285
2529,-0.035,-0.305
2530,-0.030,-0.290
2531,-0.030,-0.265
2532,-0.035,-0.255
2533,-0.015,-0.265
2534,-0.030,-0.255
2535,-0.010,-0.230
2536,0.015,-0.245
2537,-0.005,-0.240
2538,0.030,-0.245
2539,0.040,-0.285
2540,0.045,-0.325
2541,0.000,-0.335
2542,-0.010,-0.370
2543,-0.005,-0.380
2544,-0.030,-0.340
2545,-0.050,-0.340
2546,-0.060,-0.370
2547,-0.065,-0.375
2548,-0.080,-0.350
2549,-0.085,-0.325
2550,-0.075,-0.270
2551,-0.040,-0.080
2552,0.010,0.300
2553,0.090,0.600
2554,0.175,0.590
2555,0.135,0.025
2556,0.005,-0.340
2557,-0.555,-0.315
2558,-0.710,-0.290
2559,-0.495,-0.310
2560,-0.235,-0.310
2561,-0.085,-0.285
2562,-0.025,-0.300
2563,0.000,-0.315
2564,0.010,-0.295
2565,0.010,-0.315
2566,0.000,-0.360
2567,0.000,-0.345
2568,0.000,-0.320
2569,0.020,-0.280
2570,0.020,-0.270
2571,0.025,-0.250
2572,0.010,-0.250
2573,0.015,-0.250
2574,0.000,-0.225
2575,0.000,-0.205
2576,0.005,-0.210
2577,-0.010,-0.200
2578,-0.005,-0.180
2579,-0.020,-0.170
2580,0.000,-0.145
2581,0.020,-0.155
2582,0.000,-0.145
2583,0.000,-0.140
2584,0.000,-0.135
2585,0.010,-0.130
2586,0.005,-0.140
2587,-0.020,-0.135
2588,-0.035,-0.115
2589,-0.015,-0.115
2590,-0.015,-0.125
2591,0.000,-0.120
2592,0.000,-0.105
2593,-0.005,-0.100
2594,-0.035,-0.100
2595,-0.025,-0.100
2596,-0.025,-0.090
2597,-0.045,-0.110
2598,-0.030,-0.130
2599,-0.025,-0.120
2600,-0.030,-0.140
2601,-0.030,-0.145
2602,-0.050,-0.155
2603,-0.055,-0.155
2604,-0.090,-0.150
2605,-0.070,-0.140
2606,-0.085,-0.145
2607,-0.100,-0.155
2608,-0.070,-0.150
2609,-0.080,-0.155
2610,-0.055,-0.155
2611,-0.085,-0.180
2612,-0.065,-0.180
2613,-0.080,-0.185
2614,-0.080,-0.185
2615,-0.075,-0.145
2616,-0.075,-0.150
2617,-0.065,-0.150
2618,-0.060,-0.150
2619,-0.085,-0.155
2620,-0.065,-0.160
2621,-0.060,-0.155
2622,-0.070,-0.160
2623,-0.065,-0.175
2624,-0.110,-0.170
2625,-0.065,-0.160
2626,-0.095,-0.180
2627,-0.085,-0.165
2628,-0.085,-0.180
2629,-0.110,-0.190
2630,-0.100,-0.195
2631,-0.100,-0.195
2632,-0.115,-0.210
2633,-0.100,-0.180
2634,-0.110,-0.195
2635,-0.115,-0.215
2636,-0.095,-0.205
2637,-0.080,-0.190
2638,-0.105,-0.200
2639,-0.125,-0.205
2640,-0.085,-0.190
2641,-0.080,-0.175
2642,-0.070,-0.150
2643,-0.030,-0.150
2644,-0.020,-0.115
2645,-0.025,-0.155
2646,-0.025,-0.150
2647,-0.050,-0.155
2648,-0.060,-0.175
2649,-0.075,-0.205
2650,-0.085,-0.190
2651,-0.080,-0.200
2652,-0.095,-0.210
2653,-0.110,-0.235
2654,-0.125,-0.240
2655,-0.130,-0.250
2656,-0.125,-0.220
2657,-0.085,-0.055
2658,-0.035,0.310
2659,0.040,0.665
2660,0.120,0.685
2661,0.030,0.175
2662,-0.200,-0.255
2663,-0.670,-0.265
2664,-0.725,-0.240
2665,-0.545,-0.250
2666,-0.305,-0.255
2667,-0.155,-0.255
2668,-0.145,-0.230
2669,-0.130,-0.260
2670,-0.120,-0.260
2671,-0.140,-0.245
2672,-0.105,-0.240
2673,-0.105,-0.250
2674,-0.080,-0.220
2675,-0.080,-0.215
2676,-0.080,-0.205
2677,-0.055,-0.220
2678,-0.070,-0.230
2679,-0.075,-0.220
2680,-0.080,-0.225
2681,-0.060,-0.215
2682,-0.060,-0.230
2683,-0.060,-0.220
2684,-0.065,-0.225
2685,-0.050,-0.215
2686,-0.040,-0.205
2687,-0.030,-0.210
2688,-0.050,-0.230
2689,-0.020,-0.220
2690,-0.040,-0.210
2691,-0.050,-0.210
2692,-0.060,-0.195
2693,-0.030,-0.205
2694,-0.025,-0.195
2695,-0.030,-0.190
2696,-0.005,-0.190
2697,-0.010,-0.180
2698,-0.005,-0.170
2699,-0.015,-0.170
2700,0.000,-0.155
2701,0.000,-0.145
2702,-0.015,-0.140
2703,-0.025,-0.135
2704,-0.015,-0.145
2705,-0.020,-0.170
2706,-0.030,-0.155
2707,-0.040,-0.165
2708,-0.015,-0.175
2709,-0.030,-0.175
2710,-0.050,-0.185
2711,-0.065,-0.185
2712,-0.055,-0.170
2713,-0.060,-0.180
2714,-0.055,-0.195
2715,-0.040,-0.210
2716,-0.045,-0.200
2717,-0.040,-0.220
2718,-0.050,-0.230
2719,-0.045,-0.205
2720,-0.045,-0.205
2721,-0.085,-0.215
2722,-0.080,-0.210
2723,-0.090,-0.200
2724,-0.080,-0.200
2725,-0.090,-0.195
2726,-0.055,-0.225
2727,-0.050,-0.220
2728,-0.085,-0.205
2729,-0.050,-0.235
2730,-0.065,-0.210
2731,-0.070,-0.220
2732,-0.075,-0.205
2733,-0.075,-0.210
2734,-0.075,-0.205
2735,-0.065,-0.195
2736,-0.075,-0.195
2737,-0.090,-0.200
2738,-0.075,-0.205
2739,-0.085,-0.205
2740,-0.080,-0.210
2741,-0.075,-0.195
2742,-0.060,-0.190
2743,-0.065,-0.205
2744,-0.085,-0.205
2745,-0.090,-0.190
2746,-0.080,-0.190
2747,-0.100,-0.215
2748,-0.100,-0.215
2749,-0.100,-0.225
2750,-0.090,-0.220
2751,-0.090,-0.205
2752,-0.100,-0.225
2753,-0.090,-0.225
2754,-0.070,-0.225
2755,-0.100,-0.210
2756,-0.090,-0.215
2757,-0.115,-0.225
2758,-0.110,-0.220
2759,-0.095,-0.215
2760,-0.090,-0.230
2761,-0.100,-0.220
2762,-0.105,-0.220
2763,-0.090,-0.210
2764,-0.115,-0.210
2765,-0.110,-0.195
2766,-0.090,-0.235
2767,-0.090,-0.235
2768,-0.115,-0.210
2769,-0.100,-0.205
2770,-0.065,-0.200
2771,-0.040,-0.160
2772,-0.045,-0.170
2773,-0.025,-0.200
2774,-0.035,-0.210
2775,-0.050,-0.210
2776,-0.110,-0.205
2777,-0.085,-0.220
2778,-0.065,-0.225
2779,-0.090,-0.240
2780,-0.105,-0.250
2781,-0.100,-0.245
2782,-0.105,-0.250
2783,-0.135,-0.250
2784,-0.130,-0.285
2785,-0.105,-0.245
2786,-0.060,-0.045
2787,0.000,0.295
2788,0.065,0.630
2789,0.110,0.640
2790,0.030,0.115
2791,-0.245,-0.275
2792,-0.695,-0.275
2793,-0.710,-0.255
2794,-0.505,-0.235
2795,-0.260,-0.245
2796,-0.160,-0.245
2797,-0.150,-0.240
2798,-0.145,-0.235
2799,-0.145,-0.250
2800,-0.140,-0.270
2801,-0.135,-0.245
2802,-0.090,-0.245
2803,-0.100,-0.230
2804,-0.085,-0.230
2805,-0.075,-0.240
2806,-0.070,-0.235
2807,-0.090,-0.250
2808,-0.100,-0.245
2809,-0.110,-0.250
2810,-0.110,-0.265
2811,-0.095,-0.235
2812,-0.100,-0.230
2813,-0.075,-0.245
2814,-0.055,-0.205
2815,-0.060,-0.220
2816,-0.060,-0.245
2817,-0.060,-0.230
2818,-0.030,-0.210
2819,-0.065,-0.230
2820,-0.030,-0.220
2821,-0.015,-0.205
2822,-0.030,-0.210
2823,-0.020,-0.225
2824,-0.025,-0.205
2825,-0.030,-0.190
2826,-0.045,-0.190
2827,-0.020,-0.160
2828,-0.035,-0.160
2829,-0.020,-0.145
2830,0.000,-0.160
2831,0.000,-0.170
2832,0.000,-0.200
2833,-0.010,-0.195
2834,-0.020,-0.185
2835,0.000,-0.205
2836,-0.030,-0.195
2837,-0.050,-0.200
2838,-0.080,-0.195
2839,-0.080,-0.205
2840,-0.115,-0.185
2841,-0.105,-0.195
2842,-0.095,-0.190
2843,-0.080,-0.195
2844,-0.065,-0.200
2845,-0.065,-0.210
2846,-0.075,-0.210
2847,-0.085,-0.225
2848,-0.060,-0.200
2849,-0.080,-0.210
2850,-0.075,-0.195
2851,-0.100,-0.185
2852,-0.095,-0.210
2853,-0.085,-0.215
2854,-0.075,-0.220
2855,-0.055,-0.210
2856,-0.075,-0.230
2857,-0.085,-0.215
2858,-0.080,-0.235
2859,-0.065,-0.230
2860,-0.060,-0.250
2861,-0.075,-0.250
2862,-0.100,-0.255
2863,-0.095,-0.240
2864,-0.080,-0.250
2865,-0.105,-0.250
2866,-0.120,-0.250
2867,-0.120,-0.255
2868,-0.125,-0.265
2869,-0.120,-0.245
2870,-0.110,-0.250
2871,-0.125,-0.290
2872,-0.125,-0.285
2873,-0.130,-0.250
2874,-0.080,-0.240
2875,-0.115,-0.255
2876,-0.115,-0.265
2877,-0.105,-0.300
2878,-0.130,-0.275
2879,-0.160,-0.255
2880,-0.170,-0.260
2881,-0.180,-0.260
2882,-0.175,-0.270
2883,-0.160,-0.280
2884,-0.140,-0.250
2885,-0.125,-0.230
2886,-0.110,-0.245
2887,-0.110,-0.230
2888,-0.085,-0.250
2889,-0.090,-0.290
2890,-0.100,-0.265
2891,-0.115,-0.275
2892,-0.110,-0.315
2893,-0.145,-0.335
2894,-0.110,-0.325
2895,-0.095,-0.315
2896,-0.145,-0.330
2897,-0.150,-0.350
2898,-0.160,-0.360
2899,-0.195,-0.345
2900,-0.165,-0.230
2901,-0.100,0.125
2902,-0.025,0.475
2903,0.075,0.560
2904,0.080,0.125
2905,-0.060,-0.335
2906,-0.590,-0.370
2907,-0.790,-0.350
2908,-0.625,-0.380
2909,-0.360,-0.385
2910,-0.170,-0.345
2911,-0.120,-0.335
2912,-0.115,-0.360
2913,-0.130,-0.355
2914,-0.145,-0.360
2915,-0.135,-0.370
2916,-0.125,-0.385
2917,-0.130,-0.375
2918,-0.080,-0.365
2919,-0.095,-0.365
2920,-0.080,-0.335
2921,-0.060,-0.330
2922,-0.075,-0.360
2923,-0.070,-0.360
2924,-0.075,-0.330
2925,-0.050,-0.335
2926,-0.035,-0.315
2927,-0.025,-0.335
2928,-0.020,-0.320
2929,-0.035,-0.320
2930,0.000,-0.310
2931,0.000,-0.315
2932,0.000,-0.330
2933,-0.010,-0.285
2934,-0.005,-0.285
2935,-0.010,-0.325
2936,-0.015,-0.305
2937,-0.050,-0.275
2938,-0.035,-0.310
2939,-0.025,-0.305
2940,-0.030,-0.280
2941,-0.020,-0.295
2942,0.000,-0.260
2943,0.000,-0.230
2944,-0.010,-0.275
2945,-0.010,-0.290
2946,-0.010,-0.280
2947,-0.035,-0.315
2948,-0.040,-0.290
2949,-0.065,-0.320
2950,-0.050,-0.330
2951,-0.060,-0.330
2952,-0.075,-0.315
2953,-0.080,-0.295
2954,-0.075,-0.270
2955,-0.055,-0.280
2956,-0.055,-0.285
2957,-0.040,-0.260
2958,-0.055,-0.235
2959,-0.045,-0.230
2960,-0.045,-0.250
2961,-0.040,-0.245
2962,-0.040,-0.245
2963,-0.050,-0.235
2964,-0.040,-0.250
2965,-0.040,-0.270
2966,-0.055,-0.315
2967,-0.050,-0.305
2968,-0.050,-0.275
2969,-0.045,-0.255
2970,-0.050,-0.240
2971,-0.050,-0.255
2972,-0.110,-0.210
2973,-0.090,-0.195
2974,-0.100,-0.210
2975,-0.115,-0.165
2976,-0.130,-0.155
2977,-0.125,-0.150
2978,-0.125,-0.150
2979,-0.120,-0.220
2980,-0.085,-0.245
2981,-0.050,-0.205
2982,-0.020,-0.235
2983,0.025,-0.265
2984,0.020,-0.295
2985,0.030,-0.290
2986,0.025,-0.305
2987,0.070,-0.235
2988,0.075,-0.210
2989,0.075,-0.200
2990,0.025,-0.190
2991,-0.015,-0.190
2992,-0.010,-0.210
2993,-0.015,-0.230
2994,0.000,-0.165
2995,-0.035,-0.160
2996,-0.050,-0.170
2997,-0.060,-0.170
2998,-0.060,-0.230
2999,-0.060,-0.230
3000,-0.050,-0.265
3001,-0.030,-0.310
3002,-0.065,-0.225
3003,-0.075,-0.290
3004,-0.035,-0.345
3005,-0.045,-0.375
3006,-0.005,-0.375
3007,0.000,-0.370
3008,-0.025,-0.285
3009,0.000,-0.255
3010,0.020,-0.335
3011,0.020,-0.275
3012,0.000,-0.290
3013,-0.030,-0.320
3014,-0.050,-0.330
3015,-0.050,-0.350
3016,-0.055,-0.380
3017,-0.100,-0.370
3018,-0.105,-0.325
3019,-0.105,-0.330
3020,-0.145,-0.335
3021,-0.125,-0.330
3022,-0.130,-0.235
3023,-0.085,0.025
3024,0.005,0.475
3025,0.105,0.715
3026,0.110,0.505
3027,0.040,-0.075
3028,-0.380,-0.360
3029,-0.750,-0.250
3030,-0.680,-0.295
3031,-0.390,-0.330
3032,-0.255,-0.330
3033,-0.180,-0.330
3034,-0.180,-0.320
3035,-0.155,-0.285
3036,-0.170,-0.260
3037,-0.175,-0.260
3038,-0.130,-0.270
3039,-0.140,-0.295
3040,-0.145,-0.310
3041,-0.135,-0.310
3042,-0.160,-0.295
3043,-0.145,-0.275
3044,-0.115,-0.290
3045,-0.140,-0.340
3046,-0.145,-0.335
3047,-0.110,-0.335
3048,-0.105,-0.315
3049,-0.115,-0.340
3050,-0.105,-0.295
3051,-0.095,-0.305
3052,-0.115,-0.280
3053,-0.100,-0.315
3054,-0.090,-0.325
3055,-0.105,-0.345
3056,-0.075,-0.380
3057,-0.080,-0.420
3058,-0.095,-0.465
3059,-0.090,-0.490
3060,-0.105,-0.450
3061,-0.115,-0.455
3062,-0.095,-0.430
3063,-0.090,-0.395
3064,-0.100,-0.400
3065,-0.120,-0.400
3066,-0.110,-0.360
3067,-0.105,-0.335
3068,-0.115,-0.390
3069,-0.120,-0.385
3070,-0.115,-0.375
3071,-0.115,-0.405
3072,-0.100,-0.400
3073,-0.080,-0.395
3074,-0.055,-0.350
3075,-0.070,-0.340
3076,-0.045,-0.335
3077,-0.065,-0.320
3078,-0.045,-0.350
3079,-0.090,-0.345
3080,-0.075,-0.360
3081,-0.055,-0.375
3082,-0.055,-0.360
3083,-0.055,-0.395
3084,-0.025,-0.400
3085,-0.030,-0.410
3086,-0.025,-0.390
3087,-0.040,-0.380
3088,-0.045,-0.370
3089,-0.050,-0.365
3090,-0.055,-0.350
3091,-0.055,-0.335
3092,-0.060,-0.320
3093,-0.085,-0.350
3094,-0.085,-0.350
3095,-0.050,-0.380
3096,-0.020,-0.395
3097,0.040,-0.400
3098,0.080,-0.410
3099,0.065,-0.380
3100,0.105,-0.360
3101,0.115,-0.365
3102,0.110,-0.370
3103,0.110,-0.330
3104,0.110,-0.315
3105,0.090,-0.275
3106,0.075,-0.275
3107,0.090,-0.275
3108,0.110,-0.285
3109,0.125,-0.285
3110,0.125,-0.285
3111,0.155,-0.295
3112,0.105,-0.285
3113,0.095,-0.285
3114,0.075,-0.290
3115,0.070,-0.280
3116,0.060,-0.240
3117,0.025,-0.230
3118,0.045,-0.210
3119,0.005,-0.215
3120,0.000,-0.220
3121,-0.010,-0.235
3122,0.010,-0.230
3123,0.005,-0.235
3124,-0.020,-0.225
3125,-0.015,-0.230
3126,-0.035,-0.235
3127,-0.030,-0.240
3128,-0.020,-0.235
3129,-0.010,-0.225
3130,0.000,-0.215
3131,0.015,-0.185
3132,0.030,-0.160
3133,0.055,-0.165
3134,0.045,-0.180
3135,0.040,-0.180
3136,-0.015,-0.175
3137,-0.045,-0.180
3138,-0.015,-0.175
3139,0.000,-0.210
3140,-0.040,-0.225
3141,-0.040,-0.245
3142,-0.020,-0.245
3143,-0.055,-0.265
3144,-0.080,-0.270
3145,-0.080,-0.290
3146,-0.070,-0.265
3147,-0.025,-0.075
3148,0.015,0.275
3149,0.075,0.580
3150,0.145,0.555
3151,0.090,0.055
3152,-0.165,-0.310
3153,-0.645,-0.325
3154,-0.685,-0.275
3155,-0.490,-0.305
3156,-0.205,-0.290
3157,-0.075,-0.280
3158,-0.075,-0.270
3159,-0.080,-0.260
3160,-0.090,-0.265
3161,-0.080,-0.240
3162,-0.085,-0.255
3163,-0.090,-0.245
3164,-0.060,-0.255
3165,-0.040,-0.270
3166,-0.025,-0.265
3167,-0.020,-0.260
3168,-0.005,-0.240
3169,-0.010,-0.235
3170,-0.020,-0.250
3171,-0.035,-0.245
3172,-0.025,-0.240
3173,-0.015,-0.250
3174,-0.010,-0.250
3175,-0.010,-0.265
3176,0.000,-0.245
3177,0.005,-0.230
3178,0.000,-0.225
3179,0.000,-0.235
3180,-0.010,-0.225
3181,-0.020,-0.245
3182,-0.020,-0.225
3183,0.000,-0.250
3184,0.000,-0.240
3185,0.010,-0.225
3186,0.000,-0.220
3187,0.000,-0.220
3188,0.005,-0.190
3189,-0.010,-0.170
3190,0.000,-0.175
3191,0.000,-0.195
3192,0.000,-0.190
3193,0.005,-0.200
3194,0.000,-0.205
3195,-0.005,-0.215
3196,-0.040,-0.215
3197,-0.045,-0.215
3198,-0.065,-0.190
3199,-0.060,-0.220
3200,-0.065,-0.225
3201,-0.060,-0.230
3202,-0.045,-0.240
3203,-0.040,-0.240
3204,-0.035,-0.235
3205,-0.035,-0.230
3206,-0.065,-0.235
3207,-0.060,-0.245
3208,-0.070,-0.240
3209,-0.060,-0.240
3210,-0.050,-0.230
3211,-0.040,-0.250
3212,-0.035,-0.240
3213,-0.020,-0.240
3214,0.000,-0.230
3215,-0.040,-0.250
3216,-0.055,-0.245
3217,-0.040,-0.230
3218,-0.040,-0.225
3219,-0.060,-0.225
3220,-0.030,-0.220
3221,-0.025,-0.220
3222,-0.050,-0.215
3223,-0.025,-0.225
3224,-0.065,-0.225
3225,-0.080,-0.235
3226,-0.060,-0.220
3227,-0.060,-0.230
3228,-0.055,-0.235
3229,-0.055,-0.255
3230,-0.040,-0.245
3231,-0.040,-0.235
3232,-0.030,-0.240
3233,-0.075,-0.255
3234,-0.075,-0.265
3235,-0.050,-0.250
3236,-0.075,-0.225
3237,-0.075,-0.265
3238,-0.060,-0.240
3239,-0.065,-0.230
3240,-0.065,-0.240
3241,-0.065,-0.240
3242,-0.050,-0.240
3243,-0.055,-0.230
3244,-0.070,-0.255
3245,-0.040,-0.230
3246,-0.065,-0.215
3247,-0.045,-0.205
3248,-0.050,-0.210
3249,-0.040,-0.215
3250,-0.045,-0.220
3251,-0.035,-0.215
3252,-0.020,-0.205
3253,0.010,-0.175
3254,0.005,-0.160
3255,0.015,-0.145
3256,0.055,-0.160
3257,0.050,-0.190
3258,0.005,-0.175
3259,0.020,-0.165
3260,-0.015,-0.205
3261,-0.030,-0.200
3262,-0.035,-0.230
3263,-0.020,-0.230
3264,-0.060,-0.255
3265,-0.075,-0.215
3266,-0.085,-0.255
3267,-0.055,-0.275
3268,-0.070,-0.200
3269,-0.020,0.055
3270,0.030,0.465
3271,0.140,0.705
3272,0.235,0.605
3273,0.230,0.025
3274,-0.005,-0.340
3275,-0.500,-0.275
3276,-0.660,-0.235
3277,-0.465,-0.230
3278,-0.235,-0.245
3279,-0.080,-0.235
3280,-0.020,-0.220
3281,-0.015,-0.225
3282,-0.005,-0.245
3283,-0.015,-0.265
3284,0.015,-0.260
3285,0.000,-0.270
3286,-0.005,-0.270
3287,-0.035,-0.260
3288,-0.045,-0.250
3289,-0.025,-0.275
3290,0.000,-0.240
3291,-0.015,-0.250
3292,0.000,-0.245
3293,-0.010,-0.245
3294,0.015,-0.255
3295,0.000,-0.235
3296,0.000,-0.230
3297,-0.015,-0.225
3298,0.010,-0.220
3299,0.020,-0.220
3300,0.015,-0.225
3301,0.010,-0.235
3302,0.025,-0.245
3303,0.055,-0.225
3304,0.065,-0.200
3305,0.040,-0.210
3306,0.015,-0.195
3307,0.030,-0.210
3308,0.030,-0.185
3309,0.020,-0.180
3310,0.020,-0.190
3311,0.050,-0.195
3312,0.030,-0.150
3313,0.010,-0.175
3314,0.050,-0.165
3315,0.045,-0.160
3316,0.010,-0.155
3317,0.010,-0.180
3318,0.025,-0.215
3319,0.020,-0.205
3320,0.010,-0.210
3321,-0.005,-0.225
3322,0.000,-0.220
3323,-0.025,-0.205
3324,0.000,-0.210
3325,-0.020,-0.200
3326,0.000,-0.230
3327,-0.005,-0.220
3328,0.000,-0.235
3329,0.000,-0.260
3330,0.005,-0.225
3331,-0.020,-0.200
3332,0.000,-0.200
3333,-0.015,-0.210
3334,-0.020,-0.210
3335,-0.005,-0.195
3336,0.000,-0.215
3337,0.005,-0.215
3338,0.010,-0.225
3339,0.010,-0.225
3340,-0.015,-0.200
3341,-0.030,-0.225
3342,-0.005,-0.225
3343,0.000,-0.210
3344,-0.015,-0.200
3345,0.000,-0.215
3346,0.000,-0.230
3347,0.000,-0.200
3348,-0.030,-0.225
3349,-0.035,-0.220
3350,-0.045,-0.220
3351,-0.035,-0.200
3352,-0.025,-0.205
3353,-0.015,-0.190
3354,-0.010,-0.185
3355,-0.015,-0.175
3356,-0.035,-0.185
3357,-0.030,-0.200
3358,-0.020,-0.195
3359,-0.030,-0.180
3360,-0.040,-0.180
3361,-0.020,-0.185
3362,-0.020,-0.170
3363,-0.030,-0.175
3364,-0.010,-0.155
3365,-0.010,-0.140
3366,-0.020,-0.170
3367,-0.010,-0.185
3368,-0.015,-0.175
3369,-0.010,-0.185
3370,-0.010,-0.185
3371,0.020,-0.210
3372,0.015,-0.175
3373,0.000,-0.170
3374,0.015,-0.170
3375,0.045,-0.180
3376,0.065,-0.150
3377,0.080,-0.120
3378,0.080,-0.140
3379,0.085,-0.155
3380,0.090,-0.150
3381,0.075,-0.165
3382,0.040,-0.160
3383,0.060,-0.185
3384,0.035,-0.265
3385,0.035,-0.275
3386,0.040,-0.240
3387,0.000,-0.235
3388,0.000,-0.235
3389,0.020,-0.285
3390,-0.005,-0.255
3391,0.010,-0.090
3392,0.095,0.220
3393,0.150,0.500
3394,0.215,0.565
3395,0.205,0.105
3396,-0.010,-0.295
3397,-0.510,-0.295
3398,-0.630,-0.275
3399,-0.450,-0.270
3400,-0.190,-0.255
3401,-0.060,-0.245
3402,-0.015,-0.245
3403,0.000,-0.210
3404,-0.005,-0.195
3405,0.000,-0.215
3406,0.010,-0.195
3407,0.015,-0.195
3408,0.005,-0.190
3409,0.015,-0.210
3410,0.030,-0.235
3411,0.010,-0.245
3412,0.000,-0.230
3413,-0.005,-0.210
3414,-0.015,-0.235
3415,0.000,-0.230
3416,0.005,-0.190
3417,0.000,-0.195
3418,0.000,-0.195
3419,0.000,-0.210
3420,0.000,-0.185
3421,-0.005,-0.260
3422,-0.020,-0.310
3423,-0.015,-0.310
3424,-0.035,-0.290
3425,-0.040,-0.300
3426,-0.060,-0.305
3427,-0.060,-0.260
3428,-0.055,-0.265
3429,-0.045,-0.230
3430,-0.025,-0.235
3431,-0.035,-0.220
3432,-0.070,-0.235
3433,-0.070,-0.210
3434,-0.120,-0.220
3435,-0.130,-0.210
3436,-0.155,-0.230
3437,-0.155,-0.215
3438,-0.155,-0.265
3439,-0.155,-0.305
3440,-0.165,-0.315
3441,-0.145,-0.305
3442,-0.170,-0.325
3443,-0.185,-0.310
3444,-0.225,-0.270
3445,-0.260,-0.260
3446,-0.280,-0.270
3447,-0.295,-0.270
3448,-0.305,-0.280
3449,-0.290,-0.250
3450,-0.330,-0.265
3451,-0.335,-0.275
3452,-0.325,-0.295
3453,-0.305,-0.300
3454,-0.285,-0.305
3455,-0.245,-0.300
3456,-0.245,-0.295
3457,-0.235,-0.295
3458,-0.210,-0.320
3459,-0.190,-0.315
3460,-0.175,-0.300
3461,-0.160,-0.315
3462,-0.165,-0.355
3463,-0.160,-0.350
3464,-0.125,-0.350
3465,-0.115,-0.370
3466,-0.085,-0.355
3467,-0.095,-0.340
3468,-0.095,-0.320
3469,-0.065,-0.330
3470,-0.100,-0.315
3471,-0.115,-0.300
3472,-0.120,-0.300
3473,-0.120,-0.295
3474,-0.065,-0.250
3475,-0.010,-0.260
3476,0.000,-0.235
3477,0.005,-0.245
3478,0.035,-0.280
3479,0.030,-0.255
3480,0.040,-0.245
3481,0.040,-0.225
3482,0.035,-0.250
3483,0.045,-0.240
3484,0.030,-0.255
3485,0.025,-0.255
3486,0.025,-0.230
3487,0.040,-0.275
3488,0.010,-0.275
3489,0.005,-0.255
3490,0.020,-0.240
3491,0.015,-0.260
3492,0.015,-0.245
3493,0.005,-0.215
3494,0.050,-0.190
3495,0.080,-0.185
3496,0.150,-0.135
3497,0.165,-0.115
3498,0.150,-0.150
3499,0.140,-0.150
3500,0.130,-0.150
3501,0.130,-0.145
3502,0.150,-0.160
3503,0.135,-0.180
3504,0.115,-0.210
3505,0.095,-0.235
3506,0.090,-0.285
3507,0.095,-0.295
3508,0.085,-0.320
3509,0.080,-0.295
3510,0.095,-0.140
3511,0.150,0.165
3512,0.230,0.460
3513,0.265,0.490
3514,0.190,0.050
3515,0.000,-0.365
3516,-0.485,-0.385
3517,-0.580,-0.335
3518,-0.405,-0.330
3519,-0.130,-0.320
3520,0.000,-0.325
3521,0.045,-0.340
3522,0.035,-0.320
3523,0.040,-0.315
3524,0.065,-0.325
3525,0.080,-0.335
3526,0.090,-0.300
3527,0.080,-0.290
3528,0.065,-0.290
3529,0.080,-0.290
3530,0.060,-0.295
3531,0.065,-0.285
3532,0.065,-0.300
3533,0.050,-0.300
3534,0.070,-0.280
3535,0.080,-0.270
3536,0.060,-0.240
3537,0.060,-0.225
3538,0.070,-0.265
3539,0.045,-0.245
3540,0.060,-0.230
3541,0.040,-0.310
3542,0.040,-0.295
3543,0.040,-0.270
3544,0.045,-0.280
3545,0.020,-0.275
3546,0.015,-0.235
3547,0.010,-0.285
3548,0.000,-0.265
3549,0.005,-0.255
3550,0.000,-0.275
3551,0.005,-0.250
3552,0.000,-0.275
3553,0.015,-0.270
3554,0.015,-0.280
3555,0.005,-0.290
3556,0.000,-0.280
3557,0.000,-0.275
3558,0.000,-0.285
3559,0.000,-0.295
3560,0.000,-0.305
3561,0.000,-0.305
3562,0.005,-0.295
3563,0.000,-0.275
3564,-0.010,-0.285
3565,0.005,-0.305
3566,0.000,-0.315
3567,0.005,-0.315
3568,0.000,-0.295
3569,-0.010,-0.310
3570,-0.005,-0.325
3571,0.000,-0.325
3572,0.000,-0.310
3573,-0.020,-0.330
3574,0.000,-0.340
3575,0.000,-0.335
3576,-0.015,-0.345
3577,-0.015,-0.330
3578,-0.015,-0.315
3579,0.000,-0.315
3580,-0.030,-0.355
3581,0.000,-0.330
3582,-0.010,-0.320
3583,-0.025,-0.340
3584,-0.035,-0.340
3585,-0.015,-0.325
3586,-0.010,-0.305
3587,-0.020,-0.320
3588,-0.025,-0.310
3589,-0.025,-0.335
3590,0.000,-0.315
3591,0.020,-0.295
3592,0.040,-0.280
3593,0.040,-0.275
3594,0.040,-0.265
3595,0.050,-0.285
3596,0.065,-0.275
3597,0.020,-0.270
3598,0.005,-0.290
3599,0.010,-0.305
3600,0.015,-0.350
3601,-0.005,-0.360
3602,-0.010,-0.355
3603,-0.010,-0.360
3604,-0.050,-0.355
3605,-0.035,-0.350
3606,-0.035,-0.355
3607,-0.035,-0.250
3608,0.050,0.075
3609,0.130,0.315
3610,0.190,0.385
3611,0.115,0.010
3612,-0.080,-0.385
3613,-0.560,-0.405
3614,-0.710,-0.340
3615,-0.525,-0.360
3616,-0.245,-0.365
3617,-0.055,-0.350
3618,-0.020,-0.340
3619,-0.015,-0.355
3620,-0.005,-0.345
3621,0.000,-0.325
3622,0.000,-0.335
3623,0.005,-0.355
3624,0.010,-0.330
3625,0.010,-0.315
3626,0.025,-0.320
3627,0.040,-0.320
3628,0.025,-0.355
3629,0.010,-0.350
3630,0.015,-0.315
3631,0.005,-0.320
3632,0.005,-0.315
3633,0.025,-0.325
3634,0.005,-0.335
3635,0.040,-0.320
3636,0.035,-0.310
3637,0.045,-0.305
3638,0.055,-0.305
3639,0.070,-0.315
3640,0.045,-0.285
3641,0.060,-0.305
3642,0.055,-0.330
3643,0.050,-0.320
3644,0.065,-0.315
3645,0.050,-0.310
3646,0.045,-0.325
3647,0.050,-0.310
3648,0.055,-0.305
3649,0.070,-0.280
3650,0.065,-0.285
3651,0.065,-0.305
3652,0.060,-0.290
3653,0.045,-0.310
3654,0.045,-0.320
3655,0.055,-0.335
3656,0.035,-0.335
3657,0.005,-0.355
3658,0.025,-0.355
3659,0.005,-0.340
3660,0.005,-0.340
3661,0.000,-0.360
3662,-0.010,-0.365
3663,-0.030,-0.360
3664,-0.040,-0.370
3665,-0.040,-0.355
3666,-0.020,-0.365
3667,-0.035,-0.345
3668,-0.010,-0.315
3669,-0.015,-0.350
3670,-0.035,-0.355
3671,-0.030,-0.370
3672,-0.015,-0.365
3673,-0.015,-0.360
3674,-0.035,-0.365
3675,-0.040,-0.365
3676,-0.035,-0.400
3677,-0.035,-0.385
3678,-0.025,-0.370
3679,-0.020,-0.350
3680,-0.030,-0.355
3681,-0.035,-0.375
3682,-0.040,-0.375
3683,-0.030,-0.380
3684,-0.025,-0.390
3685,-0.035,-0.390
3686,-0.025,-0.390
3687,-0.030,-0.395
3688,-0.050,-0.405
3689,-0.035,-0.405
3690,-0.025,-0.380
3691,-0.040,-0.415
3692,-0.030,-0.385
3693,-0.045,-0.380
3694,-0.040,-0.400
3695,-0.030,-0.395
3696,-0.030,-0.390
3697,-0.030,-0.370
3698,-0.050,-0.370
3699,-0.060,-0.385
3700,-0.055,-0.390
3701,-0.055,-0.390
3702,-0.040,-0.370
3703,-0.035,-0.365
3704,-0.040,-0.355
3705,-0.020,-0.345
3706,-0.040,-0.365
3707,-0.025,-0.355
3708,-0.025,-0.350
3709,-0.040,-0.335
3710,-0.040,-0.360
3711,-0.025,-0.375
3712,-0.040,-0.360
3713,-0.040,-0.370
3714,-0.015,-0.365
3715,-0.045,-0.365
3716,-0.060,-0.360
3717,-0.060,-0.380
3718,-0.050,-0.380
3719,-0.065,-0.360
3720,-0.055,-0.395
3721,-0.050,-0.360
3722,-0.020,-0.325
3723,-0.010,-0.330
3724,0.000,-0.285
3725,0.000,-0.285
3726,0.045,-0.320
3727,0.015,-0.315
3728,-0.010,-0.315
3729,-0.030,-0.330
3730,-0.030,-0.330
3731,-0.020,-0.325
3732,-0.025,-0.320
3733,-0.060,-0.320
3734,-0.060,-0.350
3735,-0.080,-0.330
3736,-0.075,-0.340
3737,-0.060,-0.335
3738,-0.035,-0.155
3739,0.010,0.135
3740,0.110,0.425
3741,0.140,0.500
3742,0.105,0.100
3743,-0.065,-0.350
3744,-0.540,-0.400
3745,-0.730,-0.360
3746,-0.560,-0.370
3747,-0.290,-0.365
3748,-0.105,-0.335
3749,-0.065,-0.365
3750,-0.040,-0.330
3751,-0.060,-0.340
3752,-0.040,-0.345
3753,-0.045,-0.330
3754,-0.030,-0.325
3755,-0.020,-0.300
3756,-0.025,-0.295
3757,-0.005,-0.325
3758,-0.005,-0.340
3759,-0.005,-0.325
3760,-0.015,-0.315
3761,-0.010,-0.315
3762,0.000,-0.285
3763,0.005,-0.285
3764,0.000,-0.305
3765,0.015,-0.300
3766,0.010,-0.275
3767,0.010,-0.285
3768,0.020,-0.260
3769,0.005,-0.250
3770,0.000,-0.270
3771,0.020,-0.240
3772,0.015,-0.270
3773,0.010,-0.280
3774,-0.005,-0.310
3775,-0.025,-0.280
3776,-0.015,-0.280
3777,-0.015,-0.285
3778,-0.010,-0.290
3779,-0.015,-0.255
3780,-0.010,-0.280
3781,-0.010,-0.260
3782,-0.030,-0.255
3783,-0.040,-0.255
3784,-0.040,-0.250
3785,-0.050,-0.220
3786,-0.045,-0.250
3787,-0.055,-0.245
3788,-0.045,-0.225
3789,-0.020,-0.220
3790,-0.035,-0.265
3791,-0.030,-0.245
3792,-0.025,-0.205
3793,-0.015,-0.175
3794,-0.030,-0.165
3795,-0.020,-0.205
3796,-0.010,-0.200
3797,-0.020,-0.205
3798,-0.025,-0.215
3799,-0.030,-0.195
3800,-0.030,-0.190
3801,-0.030,-0.200
3802,-0.055,-0.235
3803,-0.065,-0.245
3804,-0.075,-0.215
3805,-0.095,-0.240
3806,-0.135,-0.280
3807,-0.155,-0.310
3808,-0.165,-0.275
3809,-0.200,-0.280
3810,-0.200,-0.315
3811,-0.210,-0.310
3812,-0.225,-0.295
3813,-0.220,-0.300
3814,-0.255,-0.350
3815,-0.250,-0.335
3816,-0.285,-0.320
3817,-0.330,-0.305
3818,-0.340,-0.340
3819,-0.335,-0.350
3820,-0.330,-0.320
3821,-0.295,-0.350
3822,-0.290,-0.320
3823,-0.290,-0.330
3824,-0.260,-0.320
3825,-0.240,-0.350
3826,-0.255,-0.345
3827,-0.295,-0.330
3828,-0.325,-0.355
3829,-0.330,-0.360
3830,-0.330,-0.365
3831,-0.345,-0.325
3832,-0.325,-0.320
3833,-0.335,-0.360
3834,-0.325,-0.365
3835,-0.330,-0.345
3836,-0.320,-0.350
3837,-0.300,-0.350
3838,-0.300,-0.355
3839,-0.320,-0.330
3840,-0.330,-0.315
3841,-0.360,-0.330
3842,-0.340,-0.335
3843,-0.330,-0.330
3844,-0.300,-0.285
3845,-0.280,-0.290
3846,-0.220,-0.290
3847,-0.165,-0.265
3848,-0.130,-0.225
3849,-0.065,-0.250
3850,0.000,-0.265
3851,0.035,-0.285
3852,0.055,-0.260
3853,0.070,-0.270
3854,0.085,-0.275
3855,0.085,-0.300
3856,0.080,-0.305
3857,0.045,-0.300
3858,0.010,-0.280
3859,-0.005,-0.275
3860,-0.045,-0.320
3861,-0.040,-0.315
3862,-0.040,-0.245
3863,0.000,-0.005
3864,0.070,0.335
3865,0.150,0.585
3866,0.130,0.495
3867,0.015,-0.035
3868,-0.340,-0.295
3869,-0.730,-0.310
3870,-0.680,-0.265
3871,-0.415,-0.260
3872,-0.170,-0.240
3873,-0.055,-0.230
3874,0.005,-0.240
3875,0.035,-0.255
3876,0.075,-0.250
3877,0.105,-0.260
3878,0.160,-0.335
3879,0.190,-0.320
3880,0.225,-0.320
3881,0.285,-0.320
3882,0.300,-0.305
3883,0.345,-0.320
3884,0.355,-0.335
3885,0.350,-0.315
3886,0.360,-0.300
3887,0.315,-0.280
3888,0.300,-0.285
3889,0.255,-0.275
3890,0.235,-0.265
3891,0.235,-0.245
3892,0.255,-0.225
3893,0.280,-0.195
3894,0.305,-0.195
3895,0.330,-0.190
3896,0.330,-0.175
3897,0.295,-0.195
3898,0.250,-0.210
3899,0.225,-0.195
3900,0.190,-0.200
3901,0.185,-0.225
3902,0.175,-0.240
3903,0.085,-0.240
3904,0.035,-0.255
3905,0.035,-0.260
3906,0.015,-0.255
3907,0.045,-0.250
3908,0.045,-0.225
3909,0.010,-0.235
3910,0.000,-0.245
3911,-0.005,-0.220
3912,-0.015,-0.210
3913,0.000,-0.235
3914,-0.025,-0.280
3915,-0.045,-0.300
3916,-0.055,-0.305
3917,-0.085,-0.285
3918,-0.095,-0.275
3919,-0.090,-0.295
3920,-0.065,-0.285
3921,-0.070,-0.285
3922,-0.065,-0.265
3923,-0.050,-0.270
3924,-0.045,-0.240
3925,-0.050,-0.270
3926,-0.040,-0.260
3927,-0.060,-0.280
3928,-0.075,-0.280
3929,-0.065,-0.280
3930,-0.085,-0.275
3931,-0.075,-0.320
3932,-0.070,-0.320
3933,-0.080,-0.320
3934,-0.100,-0.320
3935,-0.090,-0.325
3936,-0.090,-0.330
3937,-0.100,-0.330
3938,-0.105,-0.330
3939,-0.080,-0.300
3940,-0.100,-0.300
3941,-0.090,-0.300
3942,-0.115,-0.280
3943,-0.135,-0.260
3944,-0.140,-0.265
3945,-0.130,-0.255
3946,-0.140,-0.250
3947,-0.140,-0.250
3948,-0.125,-0.260
3949,-0.145,-0.245
3950,-0.135,-0.250
3951,-0.125,-0.280
3952,-0.125,-0.275
3953,-0.080,-0.250
3954,-0.095,-0.260
3955,-0.090,-0.270
3956,-0.090,-0.235
3957,-0.065,-0.240
3958,-0.070,-0.240
3959,-0.075,-0.270
3960,-0.075,-0.280
3961,-0.070,-0.275
3962,-0.065,-0.285
3963,-0.065,-0.285
3964,-0.045,-0.280
3965,-0.025,-0.270
3966,-0.040,-0.305
3967,-0.025,-0.315
3968,-0.050,-0.300
3969,-0.015,-0.275
3970,-0.015,-0.260
3971,0.000,-0.230
3972,0.005,-0.220
3973,0.000,-0.235
3974,0.000,-0.260
3975,-0.035,-0.255
3976,-0.060,-0.240
3977,-0.070,-0.265
3978,-0.065,-0.270
3979,-0.080,-0.290
3980,-0.085,-0.280
3981,-0.070,-0.270
3982,-0.080,-0.290
3983,-0.105,-0.290
3984,-0.115,-0.295
3985,-0.085,-0.225
3986,-0.060,-0.020
3987,0.035,0.310
3988,0.085,0.535
3989,0.065,0.390
3990,-0.020,-0.130
3991,-0.440,-0.350
3992,-0.780,-0.305
3993,-0.680,-0.265
3994,-0.425,-0.270
3995,-0.175,-0.275
3996,-0.090,-0.280
3997,-0.080,-0.270
3998,-0.055,-0.275
3999,-0.045,-0.270
4000,-0.035,-0.265
4001,-0.035,-0.260
4002,-0.045,-0.265
4003,-0.040,-0.245
4004,-0.040,-0.265
4005,-0.035,-0.255
4006,-0.045,-0.250
4007,-0.020,-0.250
4008,-0.035,-0.265
4009,-0.025,-0.235
4010,-0.020,-0.235
4011,-0.025,-0.240
4012,-0.040,-0.230
4013,-0.030,-0.205
4014,-0.030,-0.210
4015,-0.030,-0.210
4016,-0.015,-0.210
4017,-0.010,-0.205
4018,0.000,-0.210
4019,0.000,-0.190
4020,-0.005,-0.180
4021,0.000,-0.185
4022,-0.005,-0.185
4023,-0.005,-0.185
4024,0.000,-0.190
4025,0.000,-0.185
4026,0.000,-0.160
4027,0.000,-0.155
4028,-0.005,-0.135
4029,-0.015,-0.150
4030,0.000,-0.140
4031,-0.015,-0.165
4032,-0.030,-0.175
4033,-0.020,-0.200
4034,-0.030,-0.215
4035,-0.025,-0.205
4036,-0.040,-0.210
4037,-0.050,-0.200
4038,-0.050,-0.180
4039,-0.065,-0.220
4040,-0.065,-0.195
4041,-0.080,-0.180
4042,-0.085,-0.180
4043,-0.085,-0.180
4044,-0.075,-0.200
4045,-0.080,-0.185
4046,-0.065,-0.200
4047,-0.060,-0.240
4048,-0.065,-0.230
4049,-0.065,-0.200
4050,-0.065,-0.205
4051,-0.055,-0.215
4052,-0.075,-0.215
4053,-0.090,-0.200
4054,-0.090,-0.180
4055,-0.095,-0.200
4056,-0.085,-0.195
4057,-0.090,-0.195
4058,-0.095,-0.205
4059,-0.090,-0.190
4060,-0.095,-0.195
4061,-0.105,-0.190
4062,-0.110,-0.210
4063,-0.120,-0.210
4064,-0.115,-0.230
4065,-0.120,-0.220
4066,-0.125,-0.215
4067,-0.115,-0.210
4068,-0.115,-0.210
4069,-0.125,-0.205
4070,-0.125,-0.215
4071,-0.135,-0.200
4072,-0.105,-0.200
4073,-0.110,-0.200
4074,-0.105,-0.220
4075,-0.100,-0.215
4076,-0.100,-0.200
4077,-0.110,-0.215
4078,-0.100,-0.215
4079,-0.085,-0.185
4080,-0.100,-0.180
4081,-0.100,-0.190
4082,-0.100,-0.180
4083,-0.095,-0.170
4084,-0.090,-0.165
4085,-0.090,-0.180
4086,-0.105,-0.160
4087,-0.080,-0.195
4088,-0.095,-0.195
4089,-0.070,-0.170
4090,-0.040,-0.135
4091,-0.030,-0.125
4092,-0.005,-0.125
4093,0.000,-0.170
4094,0.000,-0.180
4095,-0.045,-0.180
4096,-0.050,-0.190
4097,-0.040,-0.195
4098,-0.045,-0.190
4099,-0.050,-0.215
4100,-0.050,-0.215
4101,-0.055,-0.220
4102,-0.090,-0.240
4103,-0.085,-0.225
4104,-0.085,-0.230
4105,-0.070,-0.140
4106,-0.025,0.070
4107,0.015,0.460
4108,0.115,0.745
4109,0.160,0.635
4110,0.110,0.025
4111,-0.210,-0.270
4112,-0.660,-0.225
4113,-0.635,-0.185
4114,-0.425,-0.190
4115,-0.150,-0.175
4116,-0.045,-0.160
4117,-0.035,-0.180
4118,-0.025,-0.160
4119,-0.035,-0.180
4120,-0.035,-0.195
4121,-0.015,-0.180
4122,-0.015,-0.155
4123,-0.005,-0.125
4124,0.000,-0.165
4125,0.005,-0.175
4126,0.020,-0.135
4127,0.010,-0.150
4128,0.000,-0.160
4129,0.000,-0.170
4130,0.000,-0.140
4131,0.005,-0.125
4132,0.000,-0.130
4133,0.020,-0.130
4134,0.015,-0.155
4135,0.035,-0.145
4136,0.035,-0.100
4137,0.025,-0.120
4138,0.040,-0.115
4139,0.040,-0.130
4140,0.025,-0.115
4141,0.025,-0.110
4142,0.050,-0.115
4143,0.040,-0.150
4144,0.045,-0.160
4145,0.040,-0.130
4146,0.035,-0.125
4147,0.035,-0.135
4148,0.055,-0.125
4149,0.065,-0.105
4150,0.060,-0.175
4151,0.070,-0.235
4152,0.055,-0.205
4153,0.050,-0.130
4154,0.055,-0.130
4155,0.030,-0.130
4156,0.010,-0.115
4157,0.000,-0.105
4158,-0.010,-0.120
4159,0.020,-0.130
4160,0.000,-0.120
4161,0.000,-0.100
4162,0.000,-0.080
4163,0.005,-0.100
4164,0.000,-0.095
4165,0.000,-0.075
4166,0.000,-0.075
4167,-0.010,-0.075
4168,-0.005,-0.060
4169,-0.010,-0.075
4170,-0.025,-0.090
4171,-0.010,-0.100
4172,-0.015,-0.090
4173,-0.020,-0.090
4174,-0.025,-0.100
4175,-0.010,-0.110
4176,-0.030,-0.110
4177,-0.045,-0.120
4178,-0.030,-0.110
4179,-0.055,-0.125
4180,-0.045,-0.135
4181,-0.050,-0.135
4182,-0.060,-0.130
4183,-0.050,-0.120
4184,-0.045,-0.125
4185,-0.030,-0.140
4186,-0.050,-0.135
4187,-0.055,-0.140
4188,-0.065,-0.135
4189,-0.050,-0.145
4190,-0.055,-0.135
4191,-0.060,-0.140
4192,-0.040,-0.150
4193,-0.035,-0.115
4194,-0.040,-0.115
4195,-0.030,-0.120
4196,-0.025,-0.110
4197,-0.055,-0.125
4198,-0.055,-0.100
4199,-0.055,-0.115
4200,-0.050,-0.100
4201,-0.050,-0.085
4202,-0.065,-0.095
4203,-0.040,-0.120
4204,-0.055,-0.085
4205,-0.030,-0.085
4206,-0.050,-0.120
4207,-0.040,-0.125
4208,-0.055,-0.125
4209,-0.055,-0.110
4210,-0.070,-0.110
4211,-0.080,-0.110
4212,-0.075,-0.105
4213,-0.080,-0.110
4214,-0.085,-0.110
4215,-0.070,-0.080
4216,-0.055,-0.050
4217,-0.040,-0.040
4218,-0.010,-0.020
4219,-0.010,-0.055
4220,-0.035,-0.090
4221,-0.070,-0.095
4222,-0.070,-0.080
4223,-0.060,-0.095
4224,-0.060,-0.100
4225,-0.060,-0.090
4226,-0.075,-0.100
4227,-0.095,-0.095
4228,-0.100,-0.075
4229,-0.135,-0.045
4230,-0.145,-0.060
4231,-0.140,0.005
4232,-0.090,0.195
4233,-0.010,0.505
4234,0.055,0.755
4235,0.060,0.695
4236,-0.040,0.170
4237,-0.375,-0.120
4238,-0.740,-0.085
4239,-0.710,-0.060
4240,-0.505,-0.050
4241,-0.295,-0.055
4242,-0.200,-0.040
4243,-0.160,-0.045
4244,-0.180,-0.045
4245,-0.195,-0.040
4246,-0.145,-0.045
4247,-0.170,-0.065
4248,-0.160,-0.065
4249,-0.145,-0.070
4250,-0.150,-0.100
4251,-0.125,-0.080
4252,-0.110,-0.080
4253,-0.095,-0.075
4254,-0.090,-0.075
4255,-0.085,-0.070
4256,-0.080,-0.065
4257,-0.065,-0.060
4258,-0.060,-0.040
4259,-0.050,-0.030
4260,-0.035,-0.055
4261,-0.010,-0.070
4262,-0.015,-0.050
4263,0.000,-0.055
4264,0.005,-0.040
4265,0.005,-0.040
4266,-0.020,-0.075
4267,-0.015,-0.075
4268,-0.015,-0.060
4269,-0.015,-0.065
4270,-0.010,-0.070
4271,-0.015,-0.045
4272,-0.025,-0.040
4273,-0.010,-0.045
4274,-0.010,-0.035
4275,-0.010,-0.035
4276,0.000,-0.035
4277,0.000,-0.035
4278,0.005,-0.025
4279,0.000,-0.060
4280,0.010,-0.035
4281,0.000,-0.025
4282,0.000,-0.015
4283,-0.005,-0.030
4284,0.005,-0.045
4285,0.010,-0.060
4286,0.030,-0.065
4287,0.020,-0.065
4288,0.025,-0.080
4289,0.005,-0.085
4290,-0.010,-0.075
4291,-0.020,-0.080
4292,-0.005,-0.085
4293,-0.010,-0.080
4294,0.000,-0.080
4295,-0.020,-0.060
4296,-0.025,-0.090
4297,-0.030,-0.080
4298,-0.030,-0.090
4299,-0.030,-0.090
4300,-0.025,-0.090
4301,-0.050,-0.075
4302,-0.040,-0.115
4303,-0.035,-0.090
4304,-0.045,-0.090
4305,-0.060,-0.105
4306,-0.065,-0.095
4307,-0.065,-0.100
4308,-0.080,-0.120
4309,-0.080,-0.090
4310,-0.080,-0.085
4311,-0.080,-0.075
4312,-0.075,-0.085
4313,-0.065,-0.100
4314,-0.080,-0.095
4315,-0.075,-0.100
4316,-0.075,-0.095
4317,-0.090,-0.085
4318,-0.100,-0.090
4319,-0.095,-0.100
4320,-0.110,-0.105
4321,-0.105,-0.120
4322,-0.090,-0.120
4323,-0.090,-0.100
4324,-0.095,-0.110
4325,-0.080,-0.120
4326,-0.090,-0.130
4327,-0.085,-0.130
4328,-0.100,-0.115
4329,-0.095,-0.120
4330,-0.100,-0.125
4331,-0.080,-0.115
4332,-0.095,-0.130
4333,-0.095,-0.135
4334,-0.080,-0.140
4335,-0.090,-0.125
4336,-0.085,-0.125
4337,-0.095,-0.135
4338,-0.090,-0.125
4339,-0.065,-0.080
4340,-0.065,-0.050
4341,-0.040,-0.035
4342,-0.050,-0.055
4343,-0.055,-0.075
4344,-0.070,-0.085
4345,-0.105,-0.060
4346,-0.125,-0.080
4347,-0.090,-0.090
4348,-0.115,-0.120
4349,-0.110,-0.125
4350,-0.115,-0.120
4351,-0.135,-0.130
4352,-0.145,-0.120
4353,-0.150,-0.150
4354,-0.125,-0.155
4355,-0.110,-0.015
4356,-0.040,0.245
4357,0.025,0.560
4358,0.075,0.690
4359,0.010,0.300
4360,-0.195,-0.110
4361,-0.630,-0.180
4362,-0.725,-0.145
4363,-0.565,-0.150
4364,-0.310,-0.140
4365,-0.175,-0.125
4366,-0.150,-0.100
4367,-0.155,-0.125
4368,-0.150,-0.125
4369,-0.125,-0.125
4370,-0.120,-0.100
4371,-0.120,-0.115
4372,-0.080,-0.110
4373,-0.065,-0.120
4374,-0.020,-0.090
4375,-0.020,-0.105
4376,-0.005,-0.100
4377,0.005,-0.100
4378,0.010,-0.105
4379,0.015,-0.075
4380,0.010,-0.080
4381,0.030,-0.100
4382,0.045,-0.100
4383,0.055,-0.090
4384,0.055,-0.080
4385,0.060,-0.090
4386,0.075,-0.100
4387,0.065,-0.100
4388,0.060,-0.110
4389,0.055,-0.110
4390,0.025,-0.125
4391,0.030,-0.110
4392,0.040,-0.095
4393,0.020,-0.115
4394,0.040,-0.090
4395,0.035,-0.100
4396,0.045,-0.065
4397,0.055,-0.050
4398,0.070,-0.045
4399,0.070,-0.040
4400,0.080,-0.050
4401,0.095,-0.070
4402,0.060,-0.075
4403,0.055,-0.065
4404,0.045,-0.100
4405,0.060,-0.090
4406,0.055,-0.085
4407,0.050,-0.075
4408,0.045,-0.085
4409,0.025,-0.110
4410,0.025,-0.120
4411,0.030,-0.105
4412,0.020,-0.110
4413,0.015,-0.130
4414,0.010,-0.115
4415,0.005,-0.120
4416,0.020,-0.130
4417,0.000,-0.120
4418,0.010,-0.130
4419,0.015,-0.095
4420,0.025,-0.110
4421,0.035,-0.130
4422,0.050,-0.140
4423,0.035,-0.120
4424,0.020,-0.115
4425,0.030,-0.115
4426,0.025,-0.125
4427,0.020,-0.110
4428,0.035,-0.110
4429,0.015,-0.125
4430,0.020,-0.120
4431,0.000,-0.130
4432,0.000,-0.125
4433,0.015,-0.105
4434,0.010,-0.110
4435,0.015,-0.125
4436,0.000,-0.120
4437,0.000,-0.155
4438,0.000,-0.150
4439,0.025,-0.145
4440,0.050,-0.115
4441,0.035,-0.095
4442,0.050,-0.090
4443,0.050,-0.075
4444,0.055,-0.105
4445,0.050,-0.105
4446,0.030,-0.095
4447,0.005,-0.120
4448,0.005,-0.115
4449,-0.010,-0.145
4450,-0.005,-0.160
4451,-0.010,-0.175
4452,-0.010,-0.190
4453,-0.035,-0.165
4454,-0.045,-0.180
4455,-0.030,-0.125
4456,0.000,0.095
4457,0.055,0.440
4458,0.170,0.655
4459,0.205,0.595
4460,0.130,0.060
4461,-0.100,-0.270
4462,-0.640,-0.215
4463,-0.710,-0.170
4464,-0.455,-0.180
4465,-0.210,-0.165
4466,-0.070,-0.160
4467,-0.040,-0.175
4468,-0.030,-0.175
4469,-0.030,-0.155
4470,-0.025,-0.175
4471,-0.015,-0.165
4472,-0.005,-0.175
4473,-0.025,-0.170
4474,0.000,-0.165
4475,0.030,-0.160
4476,0.015,-0.155
4477,0.000,-0.150
4478,0.005,-0.140
4479,0.005,-0.140
4480,0.015,-0.160
4481,0.000,-0.150
4482,0.015,-0.140
4483,0.020,-0.145
4484,0.010,-0.110
4485,0.025,-0.125
4486,0.030,-0.115
4487,0.045,-0.100
4488,0.040,-0.130
4489,0.030,-0.125
4490,0.025,-0.130
4491,0.025,-0.135
4492,0.015,-0.135
4493,0.015,-0.125
4494,0.015,-0.145
4495,0.025,-0.115
4496,0.045,-0.115
4497,0.030,-0.100
4498,0.035,-0.090
4499,0.020,-0.100
4500,0.030,-0.080
4501,0.035,-0.085
4502,0.035,-0.080
4503,0.045,-0.105
4504,0.040,-0.100
4505,0.035,-0.100
4506,0.025,-0.125
4507,0.040,-0.105
4508,0.050,-0.130
4509,0.050,-0.125
4510,0.045,-0.110
4511,0.040,-0.100
4512,0.045,-0.115
4513,0.045,-0.110
4514,0.025,-0.100
4515,0.020,-0.090
4516,0.045,-0.100
4517,0.045,-0.075
4518,0.045,-0.120
4519,0.045,-0.125
4520,0.045,-0.110
4521,0.040,-0.115
4522,0.045,-0.140
4523,0.050,-0.145
4524,0.045,-0.145
4525,0.055,-0.150
4526,0.055,-0.160
4527,0.035,-0.155
4528,0.030,-0.145
4529,0.040,-0.145
4530,0.030,-0.135
4531,0.035,-0.150
4532,0.040,-0.135
4533,0.045,-0.135
4534,0.045,-0.140
4535,0.065,-0.145
4536,0.050,-0.130
4537,0.050,-0.135
4538,0.055,-0.125
4539,0.060,-0.105
4540,0.065,-0.090
4541,0.055,-0.090
4542,0.065,-0.115
4543,0.075,-0.110
4544,0.075,-0.120
4545,0.075,-0.095
4546,0.090,-0.100
4547,0.065,-0.095
4548,0.085,-0.115
4549,0.070,-0.145
4550,0.075,-0.125
4551,0.085,-0.130
4552,0.070,-0.145
4553,0.065,-0.140
4554,0.075,-0.140
4555,0.070,-0.145
4556,0.070,-0.145
4557,0.070,-0.145
4558,0.085,-0.135
4559,0.075,-0.135
4560,0.080,-0.145
4561,0.095,-0.185
4562,0.085,-0.155
4563,0.075,-0.150
4564,0.085,-0.150
4565,0.085,-0.135
4566,0.080,-0.135
4567,0.065,-0.135
4568,0.060,-0.130
4569,0.035,-0.100
4570,0.060,-0.110
4571,0.080,-0.085
4572,0.100,-0.055
4573,0.090,-0.065
4574,0.095,-0.090
4575,0.110,-0.125
4576,0.085,-0.135
4577,0.070,-0.135
4578,0.065,-0.160
4579,0.065,-0.170
4580,0.025,-0.195
4581,0.030,-0.170
4582,0.015,-0.150
4583,0.000,-0.170
4584,0.005,-0.170
4585,0.000,-0.190
4586,0.015,-0.140
4587,0.065,0.015
4588,0.125,0.395
4589,0.225,0.720
4590,0.235,0.640
4591,0.130,0.070
4592,-0.205,-0.200
4593,-0.580,-0.175
4594,-0.540,-0.145
4595,-0.315,-0.150
4596,-0.085,-0.160
4597,0.000,-0.145
4598,0.005,-0.130
4599,0.005,-0.135
4600,0.015,-0.150
4601,0.025,-0.135
4602,0.035,-0.140
4603,0.030,-0.120
4604,0.050,-0.150
4605,0.060,-0.145
4606,0.070,-0.125
4607,0.055,-0.140
4608,0.055,-0.140
4609,0.025,-0.120
4610,0.000,-0.125
4611,0.000,-0.135
4612,0.015,-0.150
4613,0.035,-0.140
4614,0.010,-0.135
4615,0.040,-0.125
4616,0.065,-0.120
4617,0.080,-0.140
4618,0.080,-0.145
4619,0.100,-0.155
4620,0.105,-0.135
4621,0.105,-0.155
4622,0.070,-0.170
4623,0.080,-0.180
4624,0.065,-0.160
4625,0.030,-0.175
4626,0.060,-0.185
4627,0.035,-0.180
4628,0.080,-0.185
4629,0.095,-0.195
4630,0.120,-0.160
4631,0.140,-0.165
4632,0.155,-0.145
4633,0.165,-0.155
4634,0.165,-0.145
4635,0.145,-0.175
4636,0.155,-0.205
4637,0.150,-0.210
4638,0.115,-0.205
4639,0.095,-0.225
4640,0.065,-0.210
4641,0.040,-0.185
4642,0.040,-0.200
4643,0.055,-0.235
4644,0.010,-0.255
4645,0.020,-0.240
4646,0.035,-0.260
4647,0.015,-0.270
4648,0.000,-0.250
4649,0.005,-0.205
4650,0.010,-0.205
4651,0.015,-0.230
4652,0.020,-0.210
4653,0.040,-0.190
4654,0.065,-0.180
4655,0.035,-0.165
4656,0.040,-0.090
4657,0.075,-0.010
4658,0.050,-0.055
4659,0.050,-0.100
4660,0.020,-0.140
4661,0.005,-0.130
4662,0.020,-0.105
4663,0.015,-0.140
4664,0.045,-0.155
4665,0.040,-0.125
4666,0.005,-0.150
4667,0.040,-0.145
4668,0.015,-0.130
4669,0.000,-0.135
4670,0.000,-0.135
4671,0.000,-0.150
4672,0.000,-0.120
4673,-0.025,-0.105
4674,-0.045,-0.105
4675,-0.010,-0.140
4676,-0.030,-0.145
4677,-0.070,-0.115
4678,-0.045,-0.105
4679,-0.010,-0.095
4680,-0.010,-0.105
4681,-0.030,-0.100
4682,-0.065,-0.130
4683,-0.045,-0.120
4684,-0.045,-0.145
4685,-0.035,-0.155
4686,-0.025,-0.160
4687,0.000,-0.150
4688,0.010,-0.135
4689,0.000,-0.155
4690,0.000,-0.135
4691,-0.060,-0.140
4692,-0.040,-0.135
4693,-0.020,-0.110
4694,-0.010,-0.135
4695,0.000,-0.145
4696,-0.005,-0.120
4697,-0.040,-0.110
4698,-0.015,-0.080
4699,-0.050,-0.070
4700,-0.045,-0.100
4701,-0.035,-0.060
4702,-0.030,-0.065
4703,-0.020,-0.055
4704,-0.040,-0.045
4705,-0.065,-0.070
4706,-0.070,-0.095
4707,-0.090,-0.060
4708,-0.045,0.060
4709,0.010,0.360
4710,0.065,0.640
4711,0.095,0.660
4712,0.005,0.185
4713,-0.230,-0.210
4714,-0.720,-0.230
4715,-0.715,-0.195
4716,-0.485,-0.215
4717,-0.305,-0.230
4718,-0.140,-0.230
4719,-0.105,-0.265
4720,-0.105,-0.265
4721,-0.080,-0.250
4722,-0.110,-0.295
4723,-0.075,-0.270
4724,-0.095,-0.290
4725,-0.085,-0.310
4726,-0.080,-0.310
4727,-0.105,-0.285
4728,-0.095,-0.280
4729,-0.095,-0.305
4730,-0.105,-0.320
4731,-0.100,-0.330
4732,-0.090,-0.325
4733,-0.080,-0.330
4734,-0.100,-0.345
4735,-0.075,-0.360
4736,-0.075,-0.340
4737,-0.100,-0.295
4738,-0.080,-0.280
4739,-0.060,-0.285
4740,-0.045,-0.260
4741,-0.030,-0.250
4742,-0.025,-0.235
4743,-0.035,-0.240
4744,-0.010,-0.225
4745,-0.045,-0.245
4746,-0.015,-0.245
4747,-0.020,-0.225
4748,-0.030,-0.205
4749,-0.015,-0.200
4750,-0.005,-0.200
4751,-0.015,-0.190
4752,-0.005,-0.170
4753,-0.015,-0.160
4754,0.000,-0.130
4755,0.000,-0.125
4756,0.000,-0.160
4757,-0.010,-0.165
4758,-0.055,-0.155
4759,-0.055,-0.155
4760,-0.045,-0.170
4761,-0.025,-0.190
4762,-0.055,-0.225
4763,-0.060,-0.210
4764,-0.030,-0.215
4765,-0.025,-0.205
4766,-0.040,-0.230
4767,-0.060,-0.240
4768,-0.045,-0.260
4769,-0.020,-0.250
4770,-0.040,-0.245
4771,-0.030,-0.250
4772,-0.035,-0.240
4773,-0.015,-0.250
4774,-0.050,-0.255
4775,-0.030,-0.270
4776,-0.035,-0.290
4777,-0.040,-0.230
4778,-0.030,-0.260
4779,-0.035,-0.255
4780,-0.060,-0.250
4781,-0.025,-0.260
4782,-0.070,-0.260
4783,-0.070,-0.270
4784,-0.060,-0.265
4785,-0.070,-0.250
4786,-0.085,-0.235
4787,-0.080,-0.225
4788,-0.080,-0.230
4789,-0.090,-0.235
4790,-0.070,-0.250
4791,-0.110,-0.240
4792,-0.100,-0.240
4793,-0.095,-0.270
4794,-0.095,-0.255
4795,-0.110,-0.260
4796,-0.105,-0.235
4797,-0.125,-0.230
4798,-0.120,-0.245
4799,-0.125,-0.250
4800,-0.125,-0.260
4801,-0.120,-0.260
4802,-0.130,-0.275
4803,-0.145,-0.270
4804,-0.115,-0.290
4805,-0.130,-0.290
4806,-0.130,-0.285
4807,-0.130,-0.280
4808,-0.145,-0.280
4809,-0.160,-0.290
4810,-0.160,-0.285
4811,-0.170,-0.275
4812,-0.175,-0.275
4813,-0.185,-0.295
4814,-0.160,-0.310
4815,-0.140,-0.270
4816,-0.150,-0.235
4817,-0.105,-0.235
4818,-0.130,-0.200
4819,-0.100,-0.205
4820,-0.095,-0.225
4821,-0.130,-0.245
4822,-0.140,-0.235
4823,-0.150,-0.230
4824,-0.170,-0.240
4825,-0.180,-0.235
4826,-0.175,-0.250
4827,-0.175,-0.255
4828,-0.210,-0.270
4829,-0.210,-0.275
4830,-0.210,-0.280
4831,-0.200,-0.300
4832,-0.195,-0.200
4833,-0.165,0.100
4834,-0.100,0.510
4835,0.025,0.745
4836,0.005,0.535
4837,-0.050,-0.085
4838,-0.405,-0.385
4839,-0.855,-0.310
4840,-0.810,-0.285
4841,-0.535,-0.295
4842,-0.340,-0.290
4843,-0.225,-0.285
4844,-0.230,-0.290
4845,-0.215,-0.275
4846,-0.210,-0.285
4847,-0.210,-0.270
4848,-0.190,-0.285
4849,-0.185,-0.290
4850,-0.190,-0.280
4851,-0.205,-0.250
4852,-0.185,-0.260
4853,-0.185,-0.255
4854,-0.190,-0.240
4855,-0.180,-0.245
4856,-0.155,-0.245
4857,-0.185,-0.245
4858,-0.175,-0.260
4859,-0.165,-0.240
4860,-0.135,-0.245
4861,-0.140,-0.215
4862,-0.125,-0.225
4863,-0.135,-0.225
4864,-0.135,-0.215
4865,-0.135,-0.225
4866,-0.150,-0.225
4867,-0.130,-0.250
4868,-0.130,-0.265
4869,-0.155,-0.235
4870,-0.135,-0.240
4871,-0.125,-0.255
4872,-0.130,-0.240
4873,-0.115,-0.230
4874,-0.120,-0.205
4875,-0.135,-0.210
4876,-0.110,-0.205
4877,-0.135,-0.200
4878,-0.125,-0.205
4879,-0.095,-0.200
4880,-0.125,-0.195
4881,-0.130,-0.215
4882,-0.135,-0.215
4883,-0.120,-0.215
4884,-0.155,-0.210
4885,-0.135,-0.200
4886,-0.150,-0.205
4887,-0.130,-0.185
4888,-0.125,-0.200
4889,-0.120,-0.190
4890,-0.140,-0.205
4891,-0.120,-0.205
4892,-0.145,-0.200
4893,-0.125,-0.215
4894,-0.135,-0.210
4895,-0.135,-0.210
4896,-0.145,-0.200
4897,-0.170,-0.220
4898,-0.170,-0.230
4899,-0.150,-0.205
4900,-0.155,-0.205
4901,-0.160,-0.205
4902,-0.170,-0.200
4903,-0.150,-0.190
4904,-0.160,-0.200
4905,-0.155,-0.190
4906,-0.175,-0.205
4907,-0.175,-0.205
4908,-0.140,-0.190
4909,-0.155,-0.180
4910,-0.160,-0.185
4911,-0.145,-0.175
4912,-0.155,-0.200
4913,-0.170,-0.190
4914,-0.145,-0.195
4915,-0.160,-0.195
4916,-0.165,-0.200
4917,-0.165,-0.200
4918,-0.175,-0.215
4919,-0.165,-0.220
4920,-0.160,-0.210
4921,-0.170,-0.210
4922,-0.155,-0.195
4923,-0.145,-0.220
4924,-0.155,-0.195
4925,-0.170,-0.210
4926,-0.145,-0.185
4927,-0.180,-0.210
4928,-0.175,-0.190
4929,-0.170,-0.190
4930,-0.150,-0.210
4931,-0.170,-0.210
4932,-0.175,-0.195
4933,-0.155,-0.205
4934,-0.150,-0.205
4935,-0.140,-0.185
4936,-0.150,-0.200
4937,-0.165,-0.185
4938,-0.175,-0.200
4939,-0.160,-0.205
4940,-0.165,-0.205
4941,-0.145,-0.185
4942,-0.145,-0.140
4943,-0.115,-0.130
4944,-0.095,-0.105
4945,-0.100,-0.105
4946,-0.075,-0.135
4947,-0.105,-0.155
4948,-0.120,-0.130
4949,-0.155,-0.145
4950,-0.145,-0.170
4951,-0.160,-0.175
4952,-0.135,-0.195
4953,-0.140,-0.185
4954,-0.185,-0.195
4955,-0.200,-0.190
4956,-0.180,-0.230
4957,-0.200,-0.225
4958,-0.170,-0.105
4959,-0.110,0.210
4960,-0.050,0.640
4961,0.070,0.870
4962,0.015,0.455
4963,-0.190,-0.130
4964,-0.645,-0.250
4965,-0.775,-0.215
4966,-0.605,-0.200
4967,-0.350,-0.210
4968,-0.215,-0.190
4969,-0.205,-0.190
4970,-0.200,-0.195
4971,-0.175,-0.205
4972,-0.165,-0.180
4973,-0.145,-0.200
4974,-0.150,-0.215
4975,-0.140,-0.180
4976,-0.135,-0.170
4977,-0.150,-0.180
4978,-0.145,-0.180
4979,-0.125,-0.190
4980,-0.135,-0.185
4981,-0.120,-0.190
4982,-0.130,-0.200
4983,-0.110,-0.205
4984,-0.125,-0.170
4985,-0.095,-0.185
4986,-0.085,-0.170
4987,-0.080,-0.175
4988,-0.090,-0.160
4989,-0.090,-0.165
4990,-0.090,-0.155
4991,-0.075,-0.160
4992,-0.085,-0.175
4993,-0.065,-0.150
4994,-0.080,-0.125
4995,-0.050,-0.130
4996,-0.070,-0.155
4997,-0.080,-0.135
4998,-0.060,-0.145
4999,-0.055,-0.150
5000,-0.050,-0.120
5001,-0.030,-0.110
5002,-0.045,-0.105
5003,-0.060,-0.120
5004,-0.060,-0.120
5005,-0.030,-0.135
5006,-0.080,-0.155
5007,-0.080,-0.180
5008,-0.055,-0.160
5009,-0.070,-0.140
5010,-0.065,-0.170
5011,-0.090,-0.170
5012,-0.080,-0.150
5013,-0.085,-0.175
5014,-0.045,-0.170
5015,-0.080,-0.205
5016,-0.050,-0.190
5017,-0.045,-0.175
5018,-0.035,-0.215
5019,-0.050,-0.220
5020,-0.080,-0.220
5021,-0.075,-0.170
5022,-0.075,-0.195
5023,-0.060,-0.170
5024,-0.070,-0.190
5025,-0.115,-0.200
5026,-0.080,-0.185
5027,-0.075,-0.155
5028,-0.065,-0.180
5029,-0.070,-0.185
5030,-0.065,-0.150
5031,-0.080,-0.140
5032,-0.095,-0.155
5033,-0.085,-0.170
5034,-0.070,-0.185
5035,-0.125,-0.160
5036,-0.120,-0.135
5037,-0.130,-0.140
5038,-0.105,-0.180
5039,-0.135,-0.175
5040,-0.085,-0.150
5041,-0.120,-0.155
5042,-0.190,-0.185
5043,-0.185,-0.175
5044,-0.135,-0.195
5045,-0.155,-0.190
5046,-0.160,-0.185
5047,-0.205,-0.160
5048,-0.150,-0.205
5049,-0.130,-0.200
5050,-0.175,-0.150
5051,-0.255,-0.165
5052,-0.200,-0.155
5053,-0.185,-0.150
5054,-0.265,-0.155
5055,-0.220,-0.090
5056,-0.215,-0.120
5057,-0.180,-0.145
5058,-0.185,-0.125
5059,-0.230,-0.150
5060,-0.170,-0.125
5061,-0.255,-0.115
5062,-0.260,-0.105
5063,-0.215,-0.125
5064,-0.200,-0.095
5065,-0.145,-0.085
5066,-0.100,0.000
5067,-0.155,-0.030
5068,-0.140,-0.090
5069,-0.200,-0.115
5070,-0.225,-0.080
5071,-0.205,-0.090
5072,-0.180,-0.115
5073,-0.225,-0.090
5074,-0.165,-0.110
5075,-0.260,-0.120
5076,-0.195,-0.120
5077,-0.220,-0.115
5078,-0.190,-0.095
5079,-0.175,-0.055
5080,-0.175,0.215
5081,-0.020,0.550
5082,0.060,0.825
5083,-0.045,0.620
5084,-0.115,0.015
5085,-0.655,-0.160
5086,-0.895,-0.130
5087,-0.725,-0.100
5088,-0.470,-0.085
5089,-0.300,-0.105
5090,-0.270,-0.120
5091,-0.250,-0.095
5092,-0.245,-0.095
5093,-0.220,-0.095
5094,-0.250,-0.110
5095,-0.285,-0.110
5096,-0.250,-0.085
5097,-0.265,-0.090
5098,-0.260,-0.130
5099,-0.230,-0.125
5100,-0.225,-0.080
5101,-0.250,-0.105
5102,-0.245,-0.080
5103,-0.195,-0.095
5104,-0.210,-0.105
5105,-0.220,-0.060
5106,-0.170,-0.050
5107,-0.230,-0.050
5108,-0.220,-0.050
5109,-0.195,-0.060
5110,-0.155,-0.065
5111,-0.160,-0.025
5112,-0.185,-0.035
5113,-0.155,-0.035
5114,-0.180,-0.040
5115,-0.175,-0.075
5116,-0.200,-0.045
5117,-0.190,-0.060
5118,-0.180,-0.065
5119,-0.165,-0.050
5120,-0.150,-0.065
5121,-0.150,-0.040
5122,-0.125,-0.045
5123,-0.180,-0.035
5124,-0.170,-0.045
5125,-0.095,-0.025
5126,-0.200,-0.055
5127,-0.235,-0.070
5128,-0.215,-0.025
5129,-0.200,-0.065
5130,-0.180,-0.100
5131,-0.190,-0.070
5132,-0.190,-0.055
5133,-0.185,-0.060
5134,-0.215,-0.085
5135,-0.220,-0.105
5136,-0.235,-0.050
5137,-0.215,-0.065
5138,-0.205,-0.085
5139,-0.240,-0.080
5140,-0.215,-0.075
5141,-0.205,-0.105
5142,-0.245,-0.085
5143,-0.195,-0.070
5144,-0.210,-0.065
5145,-0.250,-0.090
5146,-0.240,-0.105
5147,-0.240,-0.085
5148,-0.250,-0.095
5149,-0.215,-0.105
5150,-0.240,-0.105
5151,-0.245,-0.070
5152,-0.260,-0.080
5153,-0.245,-0.105
5154,-0.255,-0.100
5155,-0.260,-0.085
5156,-0.205,-0.080
5157,-0.175,-0.050
5158,-0.165,-0.025
5159,-0.145,-0.015
5160,-0.195,-0.055
5161,-0.160,-0.045
5162,-0.170,-0.010
5163,-0.190,-0.030
5164,-0.210,-0.040
5165,-0.195,-0.050
5166,-0.185,-0.050
5167,-0.220,-0.075
5168,-0.225,-0.085
5169,-0.240,-0.085
5170,-0.280,-0.120
5171,-0.245,-0.070
5172,-0.195,0.140
5173,-0.150,0.580
5174,-0.040,0.905
5175,0.040,0.895
5176,0.005,0.285
5177,-0.235,-0.180
5178,-0.775,-0.155
5179,-0.845,-0.095
5180,-0.640,-0.105
5181,-0.380,-0.090
5182,-0.275,-0.055
5183,-0.250,-0.080
5184,-0.230,-0.075
5185,-0.220,-0.070
5186,-0.225,-0.035
5187,-0.165,-0.080
5188,-0.235,-0.065
5189,-0.220,-0.075
5190,-0.215,-0.075
5191,-0.240,-0.065
5192,-0.220,-0.035
5193,-0.215,-0.035
5194,-0.200,-0.060
5195,-0.180,-0.065
5196,-0.210,-0.065
5197,-0.230,-0.055
5198,-0.195,-0.085
5199,-0.180,-0.055
5200,-0.195,-0.085
5201,-0.165,-0.060
5202,-0.125,-0.060
5203,-0.160,-0.080
5204,-0.165,-0.040
5205,-0.150,-0.035
5206,-0.160,-0.055
5207,-0.150,-0.070
5208,-0.160,-0.080
5209,-0.180,-0.045
5210,-0.170,-0.060
5211,-0.175,-0.045
5212,-0.180,-0.020
5213,-0.165,0.000
5214,-0.135,0.020
5215,-0.140,-0.010
5216,-0.145,0.000
5217,-0.130,0.000
5218,-0.125,-0.015
5219,-0.130,0.005
5220,-0.135,0.005
5221,-0.090,0.000
5222,-0.150,-0.010
5223,-0.135,0.010
5224,-0.105,-0.010
5225,-0.095,0.000
5226,-0.100,0.020
5227,-0.075,0.070
5228,-0.040,0.030
5229,-0.030,0.045
5230,-0.010,0.095
5231,0.000,0.080
5232,0.010,0.075
5233,0.020,0.095
5234,0.020,0.060
5235,0.015,0.010
5236,0.030,0.015
5237,0.045,0.035
5238,0.055,0.040
5239,0.035,0.110
5240,0.055,0.125
5241,0.055,0.130
5242,0.010,0.125
5243,-0.005,0.140
5244,0.000,0.120
5245,-0.060,0.125
5246,-0.060,0.085
5247,-0.035,0.095
5248,-0.070,0.100
5249,-0.080,0.120
5250,-0.040,0.085
5251,-0.030,0.065
5252,-0.030,0.070
5253,-0.035,0.075
5254,-0.025,0.045
5255,-0.075,0.020
5256,-0.070,0.015
5257,-0.125,0.035
5258,-0.190,-0.010
5259,-0.160,-0.030
5260,-0.210,-0.030
5261,-0.235,-0.065
5262,-0.250,-0.085
5263,-0.250,-0.125
5264,-0.275,-0.130
5265,-0.275,-0.145
5266,-0.255,-0.160
5267,-0.205,-0.165
5268,-0.195,-0.185
5269,-0.175,-0.175
5270,-0.155,-0.175
5271,-0.120,-0.180
5272,-0.070,-0.160
5273,-0.025,-0.155
5274,-0.005,-0.140
5275,0.010,-0.130
5276,0.005,-0.125
5277,-0.005,-0.165
5278,-0.020,-0.165
5279,-0.010,-0.185
5280,-0.040,-0.125
5281,0.000,-0.095
5282,-0.010,-0.055
5283,-0.005,-0.035
5284,0.000,-0.035
5285,0.025,-0.030
5286,0.025,-0.020
5287,0.025,0.010
5288,0.020,0.015
5289,0.055,-0.005
5290,0.045,-0.020
5291,0.010,-0.005
5292,0.015,-0.025
5293,0.020,-0.040
5294,-0.005,-0.040
5295,0.005,-0.045
5296,0.005,-0.045
5297,-0.015,-0.035
5298,-0.020,-0.035
5299,0.010,-0.045
5300,0.010,-0.045
5301,0.020,0.020
5302,0.090,0.275
5303,0.150,0.665
5304,0.245,0.955
5305,0.235,0.800
5306,0.155,0.230
5307,-0.235,-0.055
5308,-0.550,-0.025
5309,-0.480,0.000
5310,-0.235,-0.045
5311,-0.020,-0.010
5312,0.070,-0.025
5313,0.070,0.000
5314,0.075,0.000
5315,0.085,-0.005
5316,0.095,-0.030
5317,0.100,-0.010
5318,0.095,-0.020
5319,0.090,-0.025
5320,0.085,-0.010
5321,0.090,-0.015
5322,0.085,-0.005
5323,0.085,-0.005
5324,0.095,-0.015
5325,0.080,-0.040
5326,0.075,-0.015
5327,0.090,-0.015
5328,0.090,-0.015
5329,0.080,-0.005
5330,0.065,0.015
5331,0.095,0.000
5332,0.095,0.020
5333,0.100,0.020
5334,0.105,0.000
5335,0.115,0.005
5336,0.125,0.000
5337,0.110,0.000
5338,0.145,0.010
5339,0.125,0.030
5340,0.130,0.020
5341,0.135,0.025
5342,0.105,0.030
5343,0.105,0.040
5344,0.135,0.065
5345,0.130,0.055
5346,0.135,0.070
5347,0.125,0.050
5348,0.130,0.060
5349,0.105,0.050
5350,0.105,0.045
5351,0.100,0.030
5352,0.090,0.020
5353,0.075,0.000
5354,0.060,-0.010
5355,0.045,-0.015
5356,0.070,-0.030
5357,0.075,-0.020
5358,0.055,-0.025
5359,0.075,-0.020
5360,0.065,-0.035
5361,0.075,-0.045
5362,0.065,-0.060
5363,0.065,-0.045
5364,0.080,-0.065
5365,0.070,-0.070
5366,0.065,-0.040
5367,0.070,-0.040
5368,0.060,-0.060
5369,0.060,-0.055
5370,0.080,-0.065
5371,0.075,-0.070
5372,0.040,-0.070
5373,0.060,-0.070
5374,0.065,-0.065
5375,0.040,-0.085
5376,0.045,-0.090
5377,0.070,-0.075
5378,0.045,-0.065
5379,0.055,-0.075
5380,0.035,-0.090
5381,0.050,-0.100
5382,0.050,-0.080
5383,0.035,-0.075
5384,0.050,-0.095
5385,0.045,-0.075
5386,0.040,-0.095
5387,0.035,-0.090
5388,0.040,-0.080
5389,0.030,-0.075
5390,0.045,-0.065
5391,0.030,-0.065
5392,0.055,-0.055
5393,0.030,-0.055
5394,0.055,-0.055
5395,0.045,-0.040
5396,0.055,-0.025
5397,0.060,-0.045
5398,0.045,-0.035
5399,0.055,-0.035
5400,0.055,-0.025
5401,0.050,-0.040
5402,0.065,-0.045
5403,0.045,-0.030
5404,0.060,-0.025
5405,0.060,-0.030
5406,0.065,-0.020
5407,0.050,-0.020
5408,0.060,-0.025
5409,0.060,-0.030
5410,0.075,-0.035
5411,0.065,-0.010
5412,0.095,0.005
5413,0.100,0.010
5414,0.120,0.040
5415,0.145,0.035
5416,0.130,0.025
5417,0.135,0.000
5418,0.095,0.000
5419,0.085,-0.030
5420,0.085,-0.030
5421,0.085,-0.040
5422,0.095,-0.025
5423,0.065,-0.015
5424,0.040,-0.020
5425,0.015,-0.020
5426,0.040,-0.040
5427,0.020,-0.045
5428,0.050,0.055
5429,0.105,0.325
5430,0.195,0.690
5431,0.235,0.870
5432,0.210,0.555
5433,0.055,0.035
5434,-0.380,-0.050
5435,-0.565,0.010
5436,-0.425,0.005
5437,-0.170,-0.010
5438,-0.005,0.010
5439,0.020,-0.005
5440,0.030,-0.020
5441,0.015,-0.010
5442,0.015,0.000
5443,0.020,-0.020
5444,0.025,-0.040
5445,0.015,0.000
5446,0.030,-0.020
5447,0.070,-0.040
5448,0.090,-0.040
5449,0.075,-0.045
5450,0.065,-0.045
5451,0.065,-0.065
5452,0.050,-0.030
5453,0.035,-0.020
5454,0.065,-0.010
5455,0.100,0.000
5456,0.135,0.000
5457,0.120,-0.010
5458,0.145,-0.015
5459,0.145,0.000
5460,0.115,-0.005
5461,0.090,-0.020
5462,0.095,-0.040
5463,0.080,-0.040
5464,0.050,-0.060
5465,0.045,-0.045
5466,0.010,-0.045
5467,0.000,-0.010
5468,0.005,0.020
5469,0.010,0.030
5470,0.000,0.070
5471,0.005,0.070
5472,0.020,0.080
5473,0.035,0.065
5474,0.045,0.065
5475,0.050,0.075
5476,0.005,0.045
5477,0.000,0.020
5478,-0.015,0.010
5479,-0.025,-0.010
5480,-0.010,-0.010
5481,0.005,0.000
5482,0.035,-0.010
5483,0.025,-0.010
5484,0.040,-0.005
5485,0.050,0.000
5486,0.065,0.010
5487,0.055,0.020
5488,0.050,0.025
5489,0.020,0.030
5490,-0.005,0.010
5491,-0.015,0.005
5492,-0.020,0.000
5493,-0.020,-0.010
5494,-0.010,-0.040
5495,0.020,-0.025
5496,0.030,-0.035
5497,0.045,-0.030
5498,0.050,-0.015
5499,0.055,-0.015
5500,0.070,-0.030
5501,0.050,-0.035
5502,0.085,-0.040
5503,0.080,-0.045
5504,0.080,-0.055
5505,0.060,-0.035
5506,0.035,-0.045
5507,0.040,-0.035
5508,0.040,-0.045
5509,0.025,-0.050
5510,0.015,-0.040
5511,0.000,-0.040
5512,0.000,-0.025
5513,-0.005,-0.055
5514,0.000,-0.075
5515,0.000,-0.085
5516,0.015,-0.085
5517,-0.010,-0.095
5518,-0.005,-0.110
5519,-0.015,-0.095
5520,-0.005,-0.110
5521,0.000,-0.130
5522,0.015,-0.085
5523,0.055,-0.070
5524,0.085,-0.035
5525,0.105,-0.030
5526,0.105,-0.015
5527,0.135,-0.055
5528,0.115,-0.015
5529,0.115,-0.045
5530,0.095,-0.090
5531,0.100,-0.085
5532,0.085,-0.125
5533,0.090,-0.120
5534,0.070,-0.115
5535,0.060,-0.120
5536,0.050,-0.165
5537,0.050,-0.155
5538,0.045,-0.105
5539,0.080,0.050
5540,0.140,0.375
5541,0.210,0.690
5542,0.265,0.760
5543,0.190,0.305
5544,-0.040,-0.120
5545,-0.525,-0.115
5546,-0.605,-0.095
5547,-0.390,-0.100
5548,-0.155,-0.065
5549,-0.030,-0.065
5550,-0.035,-0.055
5551,-0.040,-0.040
5552,-0.025,-0.065
5553,0.000,-0.050
5554,0.025,-0.055
5555,0.050,-0.065
5556,0.065,-0.025
5557,0.110,-0.045
5558,0.125,-0.045
5559,0.130,-0.015
5560,0.100,-0.030
5561,0.070,-0.035
5562,0.040,-0.040
5563,0.015,-0.050
5564,0.020,-0.040
5565,0.035,0.000
5566,0.045,0.000
5567,0.065,0.000
5568,0.085,-0.015
5569,0.140,0.000
5570,0.125,0.000
5571,0.135,-0.015
5572,0.135,-0.005
5573,0.135,0.005
5574,0.125,0.010
5575,0.115,0.015
5576,0.130,0.000
5577,0.140,0.005
5578,0.145,0.025
5579,0.185,0.035
5580,0.185,0.030
5581,0.185,0.025
5582,0.190,0.040
5583,0.170,0.040
5584,0.140,0.010
5585,0.110,0.015
5586,0.105,0.005
5587,0.090,0.005
5588,0.070,-0.020
5589,0.090,0.030
5590,0.065,0.020
5591,0.070,0.015
5592,0.055,0.025
5593,0.060,0.055
5594,0.045,0.040
5595,0.045,0.040
5596,0.035,0.020
5597,0.040,0.015
5598,0.050,0.050
5599,0.055,0.040
5600,0.030,0.025
5601,0.030,0.050
5602,0.005,0.040
5603,0.010,0.035
5604,0.000,0.030
5605,0.000,0.005
5606,-0.020,0.005
5607,-0.005,-0.010
5608,-0.010,-0.025
5609,0.005,0.005
5610,0.025,0.010
5611,0.030,0.005
5612,0.035,-0.020
5613,0.045,-0.025
5614,0.080,-0.030
5615,0.125,-0.045
5616,0.155,-0.040
5617,0.190,-0.010
5618,0.175,0.025
5619,0.185,0.000
5620,0.170,0.015
5621,0.160,0.010
5622,0.145,0.000
5623,0.130,-0.005
5624,0.110,-0.005
5625,0.115,-0.005
5626,0.090,0.005
5627,0.050,-0.010
5628,0.050,0.000
5629,0.010,0.000
5630,0.000,0.095
5631,0.055,0.425
5632,0.115,0.790
5633,0.215,0.975
5634,0.230,0.705
5635,0.145,0.090
5636,-0.315,-0.095
5637,-0.675,-0.015
5638,-0.630,0.010
5639,-0.350,0.000
5640,-0.140,0.010
5641,-0.070,0.025
5642,-0.070,0.020
5643,-0.055,0.025
5644,-0.035,0.040
5645,-0.035,0.030
5646,-0.035,0.005
5647,-0.010,-0.010
5648,0.000,0.005
5649,0.000,0.005
5650,0.005,0.020
5651,0.030,0.020
5652,0.045,0.045
5653,0.050,0.050
5654,0.070,0.060
5655,0.060,0.070
5656,0.055,0.085
5657,0.060,0.065
5658,0.100,0.070
5659,0.105,0.065
5660,0.085,0.065
5661,0.090,0.080
5662,0.125,0.055
5663,0.115,0.025
5664,0.135,0.030
5665,0.135,0.050
5666,0.120,0.055
5667,0.125,0.075
5668,0.110,0.065
5669,0.105,0.040
5670,0.125,0.060
5671,0.145,0.045
5672,0.130,0.050
5673,0.130,0.030
5674,0.125,0.030
5675,0.125,0.030
5676,0.115,0.085
5677,0.090,0.075
5678,0.095,0.050
5679,0.115,0.035
5680,0.105,0.060
5681,0.120,0.045
5682,0.115,0.035
5683,0.125,0.015
5684,0.110,0.005
5685,0.100,-0.015
5686,0.085,-0.035
5687,0.075,-0.080
5688,0.075,-0.055
5689,0.075,-0.050
5690,0.060,-0.115
5691,0.060,-0.115
5692,0.045,-0.125
5693,0.040,-0.130
5694,0.050,-0.085
5695,0.045,-0.045
5696,0.035,0.000
5697,0.050,0.000
5698,0.060,-0.015
5699,0.070,-0.035
5700,0.075,-0.030
5701,0.040,-0.010
5702,0.040,0.005
5703,0.055,0.000
5704,0.040,0.005
5705,0.025,0.015
5706,0.040,0.030
5707,0.030,0.030
5708,0.030,0.050
5709,0.045,0.035
5710,0.055,0.050
5711,0.050,0.055
5712,0.055,0.040
5713,0.025,0.005
5714,0.010,0.025
5715,0.015,0.065
5716,0.025,0.020
5717,0.035,0.055
5718,0.045,0.055
5719,0.020,0.025
5720,0.055,0.005
5721,0.035,0.005
5722,0.025,0.055
5723,0.015,0.030
5724,0.030,0.035
5725,0.030,0.040
5726,0.035,0.060
5727,0.000,0.045
5728,0.010,0.025
5729,0.025,0.010
5730,0.030,0.000
5731,0.020,0.020
5732,0.000,0.030
5733,0.005,0.045
5734,0.020,0.055
5735,0.015,0.050
5736,-0.010,0.045
5737,0.025,0.040
5738,0.040,0.030
5739,0.030,0.045
5740,0.050,0.090
5741,0.060,0.115
5742,0.060,0.140
5743,0.065,0.100
5744,0.075,0.090
5745,0.045,0.085
5746,0.030,0.065
5747,0.045,0.060
5748,0.035,0.045
5749,0.025,0.040
5750,0.025,0.045
5751,0.010,0.170
5752,0.065,0.425
5753,0.130,0.765
5754,0.200,0.930
5755,0.155,0.585
5756,-0.035,0.070
5757,-0.520,-0.035
5758,-0.650,0.040
5759,-0.495,0.040
5760,-0.220,0.025
5761,-0.050,0.035
5762,-0.035,0.045
5763,-0.035,0.065
5764,-0.020,0.070
5765,-0.025,0.070
5766,-0.010,0.065
5767,0.000,0.080
5768,0.010,0.095
5769,0.020,0.085
5770,0.015,0.045
5771,0.025,0.060
5772,0.025,0.080
5773,0.020,0.050
5774,0.010,0.060
5775,0.040,0.060
5776,0.010,0.080
5777,0.030,0.060
5778,0.035,0.075
5779,0.020,0.060
5780,0.040,0.060
5781,0.035,0.080
5782,0.025,0.075
5783,0.050,0.070
5784,0.035,0.070
5785,0.050,0.075
5786,0.045,0.070
5787,0.065,0.075
5788,0.050,0.060
5789,0.045,0.050
5790,0.055,0.070
5791,0.055,0.100
5792,0.055,0.110
5793,0.060,0.095
5794,0.080,0.115
5795,0.070,0.115
5796,0.075,0.110
5797,0.060,0.095
5798,0.085,0.105
5799,0.070,0.095
5800,0.055,0.090
5801,0.055,0.080
5802,0.050,0.070
5803,0.035,0.080
5804,0.035,0.060
5805,0.035,0.045
5806,0.050,0.040
5807,0.025,0.065
5808,0.040,0.025
5809,0.020,0.050
5810,0.035,0.035
5811,0.035,0.040
5812,0.035,0.040
5813,0.045,0.050
5814,0.045,0.035
5815,0.055,0.025
5816,0.060,0.000
5817,0.030,0.015
5818,0.055,0.010
5819,0.025,0.025
5820,0.035,0.035
5821,0.055,0.035
5822,0.020,0.035
5823,0.030,0.020
5824,0.030,0.025
5825,0.035,0.050
5826,0.010,0.040
5827,0.030,0.050
5828,0.035,0.040
5829,0.020,0.040
5830,0.000,0.040
5831,0.020,0.030
5832,0.015,0.040
5833,0.030,0.030
5834,0.030,0.005
5835,0.010,0.020
5836,0.030,0.025
5837,0.010,0.020
5838,0.035,0.040
5839,0.020,0.050
5840,0.025,0.050
5841,0.000,0.055
5842,0.015,0.075
5843,0.025,0.010
5844,0.030,0.025
5845,0.015,0.020
5846,0.015,0.010
5847,0.010,0.035
5848,0.005,0.035
5849,0.010,0.065
5850,0.005,0.095
5851,0.010,0.030
5852,0.020,0.050
5853,0.020,0.065
5854,0.010,0.045
5855,0.000,0.040
5856,0.015,0.040
5857,0.015,0.040
5858,0.000,0.040
5859,0.000,0.065
5860,0.005,0.065
5861,-0.010,0.065
5862,0.020,0.095
5863,0.040,0.095
5864,0.040,0.065
5865,0.020,0.045
5866,0.000,0.070
5867,-0.005,0.070
5868,-0.025,0.040
5869,-0.010,0.025
5870,-0.015,0.035
5871,-0.030,0.040
5872,-0.025,0.020
5873,-0.055,0.040
5874,-0.060,0.035
5875,-0.045,0.185
5876,0.005,0.460
5877,0.090,0.715
5878,0.140,0.820
5879,0.075,0.465
5880,-0.125,0.055
5881,-0.580,-0.025
5882,-0.680,0.015
5883,-0.495,0.000
5884,-0.235,0.015
5885,-0.100,0.010
5886,-0.060,0.005
5887,-0.045,0.025
5888,-0.080,0.000
5889,-0.055,-0.010
5890,-0.060,0.000
5891,-0.055,0.000
5892,-0.065,0.020
5893,-0.070,0.020
5894,-0.075,0.015
5895,-0.070,0.015
5896,-0.075,0.010
5897,-0.060,0.005
5898,-0.080,0.005
5899,-0.100,-0.035
5900,-0.085,-0.055
5901,-0.105,-0.015
5902,-0.105,0.015
5903,-0.070,0.005
5904,-0.035,0.030
5905,-0.060,0.040
5906,-0.015,0.030
5907,0.020,0.025
5908,0.020,0.010
5909,0.005,0.010
5910,0.010,0.015
5911,0.005,0.000
5912,0.010,0.010
5913,0.015,0.000
5914,0.025,0.005
5915,0.030,0.005
5916,0.040,0.020
5917,0.035,0.030
5918,0.070,0.030
5919,0.070,0.015
5920,0.075,0.020
5921,0.070,0.010
5922,0.060,0.005
5923,0.055,0.020
5924,0.035,0.025
5925,0.025,0.010
5926,0.030,0.000
5927,0.005,-0.005
5928,0.010,-0.005
5929,0.015,0.000
5930,0.020,0.015
5931,0.035,0.015
5932,0.025,0.005
5933,0.025,0.025
5934,0.005,0.035
5935,0.020,0.025
5936,0.025,0.015
5937,0.015,0.000
5938,0.020,-0.005
5939,0.000,-0.030
5940,0.000,-0.005
5941,-0.005,0.000
5942,0.015,-0.015
5943,0.010,-0.005
5944,-0.005,-0.005
5945,0.000,-0.010
5946,-0.005,-0.015
5947,-0.020,-0.040
5948,-0.025,-0.030
5949,-0.010,-0.035
5950,-0.015,-0.025
5951,-0.035,-0.025
5952,-0.025,-0.015
5953,-0.055,-0.020
5954,-0.015,-0.015
5955,-0.020,-0.025
5956,-0.025,-0.030
5957,-0.025,-0.010
5958,-0.030,-0.030
5959,-0.035,-0.025
5960,-0.045,-0.030
5961,-0.040,0.000
5962,-0.055,-0.025
5963,-0.040,-0.025
5964,-0.040,-0.010
5965,-0.055,-0.020
5966,-0.055,-0.015
5967,-0.055,-0.020
5968,-0.050,-0.025
5969,-0.045,-0.015
5970,-0.075,-0.015
5971,-0.055,-0.020
5972,-0.085,0.000
5973,-0.070,-0.020
5974,-0.040,-0.025
5975,-0.060,0.000
5976,-0.050,0.000
5977,-0.025,0.000
5978,-0.025,0.020
5979,-0.025,0.010
5980,-0.005,0.005
5981,-0.010,0.000
5982,-0.045,-0.005
5983,-0.065,-0.005
5984,-0.050,-0.020
5985,-0.050,-0.040
5986,-0.070,-0.045
5987,-0.055,-0.065
5988,-0.075,-0.080
5989,-0.085,-0.050
5990,-0.095,-0.080
5991,-0.080,-0.070
5992,-0.090,-0.045
5993,-0.030,0.110
5994,0.020,0.435
5995,0.080,0.710
5996,0.085,0.625
5997,-0.020,0.110
5998,-0.400,-0.165
5999,-0.735,-0.090
6000,-0.660,-0.105
6001,-0.405,-0.105
6002,-0.210,-0.110
6003,-0.125,-0.115
6004,-0.125,-0.125
6005,-0.110,-0.130
6006,-0.110,-0.120
6007,-0.100,-0.095
6008,-0.070,-0.095
6009,-0.080,-0.110
6010,-0.055,-0.125
6011,-0.050,-0.115
6012,-0.045,-0.115
6013,-0.060,-0.120
6014,-0.055,-0.110
6015,-0.050,-0.105
6016,-0.040,-0.085
6017,-0.055,-0.080
6018,-0.040,-0.090
6019,-0.035,-0.070
6020,-0.020,-0.070
6021,-0.030,-0.060
6022,-0.025,-0.065
6023,-0.040,-0.065
6024,-0.025,-0.075
6025,-0.020,-0.095
6026,-0.030,-0.080
6027,-0.020,-0.070
6028,-0.030,-0.065
6029,-0.030,-0.080
6030,-0.035,-0.075
6031,-0.055,-0.075
6032,-0.040,-0.070
6033,-0.035,-0.055
6034,-0.040,-0.035
6035,-0.045,-0.065
6036,-0.030,-0.055
6037,-0.025,-0.050
6038,-0.040,-0.075
6039,-0.040,-0.055
6040,-0.060,-0.100
6041,-0.050,-0.095
6042,-0.050,-0.105
6043,-0.065,-0.110
6044,-0.065,-0.120
6045,-0.075,-0.115
6046,-0.065,-0.100
6047,-0.055,-0.080
6048,-0.080,-0.085
6049,-0.065,-0.095
6050,-0.060,-0.095
6051,-0.060,-0.095
6052,-0.055,-0.105
6053,-0.060,-0.100
6054,-0.045,-0.095
6055,-0.035,-0.095
6056,-0.045,-0.105
6057,-0.030,-0.100
6058,-0.030,-0.115
6059,-0.025,-0.120
6060,-0.025,-0.130
6061,-0.045,-0.115
6062,-0.050,-0.120
6063,-0.040,-0.130
6064,-0.035,-0.130
6065,-0.045,-0.120
6066,-0.055,-0.135
6067,-0.035,-0.130
6068,-0.030,-0.140
6069,-0.050,-0.130
6070,-0.040,-0.125
6071,-0.040,-0.135
6072,-0.025,-0.125
6073,-0.045,-0.120
6074,-0.040,-0.110
6075,-0.035,-0.115
6076,-0.040,-0.115
6077,-0.040,-0.100
6078,-0.040,-0.110
6079,-0.045,-0.105
6080,-0.040,-0.100
6081,-0.060,-0.090
6082,-0.060,-0.120
6083,-0.040,-0.115
6084,-0.060,-0.105
6085,-0.050,-0.115
6086,-0.060,-0.115
6087,-0.060,-0.135
6088,-0.070,-0.130
6089,-0.075,-0.125
6090,-0.040,-0.110
6091,-0.020,-0.075
6092,0.000,-0.060
6093,-0.005,-0.075
6094,0.000,-0.090
6095,0.000,-0.105
6096,-0.030,-0.100
6097,-0.045,-0.130
6098,-0.035,-0.135
6099,-0.030,-0.140
6100,-0.025,-0.145
6101,-0.030,-0.145
6102,-0.065,-0.145
6103,-0.075,-0.160
6104,-0.060,-0.165
6105,-0.080,-0.180
6106,-0.045,-0.075
6107,0.005,0.185
6108,0.075,0.505
6109,0.150,0.650
6110,0.110,0.310
6111,-0.055,-0.165
6112,-0.525,-0.260
6113,-0.715,-0.180
6114,-0.575,-0.190
6115,-0.290,-0.210
6116,-0.110,-0.205
6117,-0.085,-0.195
6118,-0.080,-0.195
6119,-0.070,-0.180
6120,-0.065,-0.175
6121,-0.075,-0.190
6122,-0.075,-0.200
6123,-0.055,-0.205
6124,-0.065,-0.180
6125,-0.035,-0.195
6126,-0.020,-0.195
6127,-0.035,-0.190
6128,-0.030,-0.160
6129,-0.020,-0.160
6130,-0.035,-0.135
6131,-0.020,-0.140
6132,0.000,-0.135
6133,0.000,-0.155
6134,-0.005,-0.170
6135,-0.015,-0.160
6136,0.000,-0.170
6137,-0.005,-0.160
6138,-0.015,-0.165
6139,-0.020,-0.165
6140,-0.020,-0.180
6141,0.005,-0.190
6142,0.000,-0.185
6143,-0.010,-0.185
6144,0.010,-0.175
6145,0.005,-0.155
6146,0.000,-0.150
6147,0.015,-0.145
6148,0.005,-0.140
6149,0.020,-0.135
6150,0.005,-0.140
6151,0.015,-0.155
6152,0.000,-0.165
6153,0.005,-0.155
6154,0.000,-0.200
6155,-0.005,-0.190
6156,0.000,-0.160
6157,-0.025,-0.175
6158,-0.010,-0.175
6159,0.000,-0.165
6160,0.000,-0.220
6161,-0.005,-0.195
6162,0.000,-0.190
6163,-0.005,-0.180
6164,-0.015,-0.180
6165,0.000,-0.200
6166,-0.005,-0.170
6167,-0.010,-0.200
6168,-0.035,-0.190
6169,-0.015,-0.225
6170,-0.015,-0.235
6171,-0.025,-0.225
6172,-0.030,-0.245
6173,-0.020,-0.245
6174,-0.035,-0.240
6175,-0.040,-0.235
6176,-0.040,-0.255
6177,-0.035,-0.260
6178,-0.040,-0.270
6179,-0.010,-0.280
6180,-0.015,-0.285
6181,-0.025,-0.275
6182,-0.010,-0.285
6183,-0.030,-0.280
6184,-0.030,-0.265
6185,-0.030,-0.270
6186,-0.045,-0.265
6187,-0.035,-0.255
6188,-0.045,-0.255
6189,-0.060,-0.280
6190,-0.040,-0.265
6191,-0.035,-0.270
6192,-0.035,-0.265
6193,-0.040,-0.255
6194,-0.050,-0.275
6195,-0.035,-0.285
6196,-0.035,-0.260
6197,-0.060,-0.265
6198,-0.050,-0.285
6199,-0.040,-0.290
6200,-0.045,-0.275
6201,-0.060,-0.280
6202,-0.055,-0.270
6203,-0.015,-0.260
6204,0.000,-0.230
6205,-0.020,-0.205
6206,0.005,-0.220
6207,0.025,-0.235
6208,0.025,-0.230
6209,-0.010,-0.235
6210,-0.015,-0.260
6211,-0.005,-0.265
6212,-0.015,-0.225
6213,-0.035,-0.235
6214,-0.020,-0.245
6215,-0.055,-0.220
6216,-0.045,-0.245
6217,-0.075,-0.255
6218,-0.050,-0.245
6219,-0.055,-0.100
6220,0.000,0.195
6221,0.070,0.560
6222,0.170,0.755
6223,0.170,0.465
6224,0.090,-0.175
6225,-0.370,-0.355
6226,-0.760,-0.260
6227,-0.670,-0.240
6228,-0.410,-0.245
6229,-0.180,-0.240
6230,-0.110,-0.250
6231,-0.090,-0.245
6232,-0.100,-0.255
6233,-0.085,-0.260
6234,-0.095,-0.275
6235,-0.070,-0.255
6236,-0.070,-0.285
6237,-0.060,-0.265
6238,-0.065,-0.265
6239,-0.065,-0.245
6240,-0.045,-0.235
6241,-0.045,-0.235
6242,-0.040,-0.230
6243,-0.030,-0.235
6244,-0.040,-0.230
6245,-0.035,-0.215
6246,-0.040,-0.215
6247,-0.030,-0.190
6248,-0.010,-0.190
6249,-0.020,-0.215
6250,-0.025,-0.205
6251,-0.035,-0.195
6252,-0.015,-0.180
6253,-0.030,-0.190
6254,-0.030,-0.195
6255,-0.015,-0.195
6256,-0.035,-0.215
6257,-0.065,-0.215
6258,-0.080,-0.205
6259,-0.075,-0.175
6260,-0.080,-0.185
6261,-0.085,-0.200
6262,-0.080,-0.205
6263,-0.080,-0.210
6264,-0.070,-0.205
6265,-0.065,-0.220
6266,-0.070,-0.240
6267,-0.060,-0.240
6268,-0.075,-0.225
6269,-0.095,-0.225
6270,-0.065,-0.240
6271,-0.100,-0.235
6272,-0.080,-0.255
6273,-0.080,-0.230
6274,-0.095,-0.235
6275,-0.080,-0.230
6276,-0.110,-0.235
6277,-0.100,-0.250
6278,-0.105,-0.230
6279,-0.110,-0.250
6280,-0.105,-0.245
6281,-0.110,-0.235
6282,-0.105,-0.250
6283,-0.105,-0.265
6284,-0.115,-0.260
6285,-0.095,-0.265
6286,-0.125,-0.280
6287,-0.100,-0.275
6288,-0.095,-0.270
6289,-0.115,-0.270
6290,-0.125,-0.275
6291,-0.120,-0.295
6292,-0.110,-0.260
6293,-0.100,-0.280
6294,-0.115,-0.285
6295,-0.100,-0.295
6296,-0.110,-0.280
6297,-0.095,-0.285
6298,-0.105,-0.300
6299,-0.110,-0.290
6300,-0.100,-0.275
6301,-0.060,-0.245
6302,-0.040,-0.225
6303,-0.040,-0.210
6304,-0.045,-0.210
6305,-0.040,-0.220
6306,-0.050,-0.230
6307,-0.060,-0.235
6308,-0.055,-0.220
6309,-0.070,-0.245
6310,-0.065,-0.280
6311,-0.085,-0.245
6312,-0.105,-0.260
6313,-0.085,-0.285
6314,-0.120,-0.280
6315,-0.130,-0.290
6316,-0.140,-0.320
6317,-0.140,-0.210
6318,-0.090,0.050
6319,0.000,0.450
6320,0.095,0.775
6321,0.120,0.525
6322,-0.005,-0.080
6323,-0.455,-0.310
6324,-0.730,-0.285
6325,-0.630,-0.270
6326,-0.375,-0.285
6327,-0.180,-0.280
6328,-0.125,-0.275
6329,-0.115,-0.270
6330,-0.095,-0.275
6331,-0.090,-0.265
6332,-0.105,-0.290
6333,-0.085,-0.265
6334,-0.090,-0.275
6335,-0.080,-0.285
6336,-0.090,-0.270
6337,-0.090,-0.275
6338,-0.100,-0.270
6339,-0.060,-0.245
6340,-0.095,-0.255
6341,-0.090,-0.255
6342,-0.080,-0.255
6343,-0.080,-0.230
6344,-0.070,-0.240
6345,-0.075,-0.240
6346,-0.085,-0.230
6347,-0.060,-0.220
6348,-0.055,-0.215
6349,-0.060,-0.215
6350,-0.055,-0.220
6351,-0.055,-0.230
6352,-0.040,-0.230
6353,-0.040,-0.215
6354,-0.055,-0.215
6355,-0.060,-0.205
6356,-0.035,-0.190
6357,-0.030,-0.185
6358,-0.040,-0.180
6359,-0.035,-0.175
6360,-0.025,-0.155
6361,-0.010,-0.175
6362,-0.015,-0.175
6363,-0.035,-0.185
6364,-0.055,-0.210
6365,-0.075,-0.215
6366,-0.080,-0.200
6367,-0.075,-0.235
6368,-0.100,-0.230
6369,-0.090,-0.230
6370,-0.115,-0.245
6371,-0.130,-0.260
6372,-0.095,-0.265
6373,-0.100,-0.255
6374,-0.105,-0.255
6375,-0.145,-0.240
6376,-0.130,-0.260
6377,-0.150,-0.265
6378,-0.140,-0.260
6379,-0.145,-0.250
6380,-0.135,-0.245
6381,-0.160,-0.265
6382,-0.150,-0.270
6383,-0.145,-0.270
6384,-0.135,-0.265
6385,-0.135,-0.290
6386,-0.130,-0.280
6387,-0.120,-0.280
6388,-0.140,-0.280
6389,-0.130,-0.275
6390,-0.130,-0.275
6391,-0.130,-0.280
6392,-0.135,-0.280
6393,-0.135,-0.285
6394,-0.140,-0.285
6395,-0.135,-0.255
6396,-0.150,-0.260
6397,-0.145,-0.285
6398,-0.140,-0.295
6399,-0.145,-0.290
6400,-0.160,-0.305
6401,-0.150,-0.300
6402,-0.160,-0.295
6403,-0.170,-0.305
6404,-0.160,-0.295
6405,-0.155,-0.280
6406,-0.150,-0.305
6407,-0.145,-0.285
6408,-0.155,-0.300
6409,-0.150,-0.310
6410,-0.135,-0.300
6411,-0.145,-0.305
6412,-0.145,-0.295
6413,-0.145,-0.300
6414,-0.140,-0.300
6415,-0.150,-0.275
6416,-0.135,-0.270
6417,-0.145,-0.270
6418,-0.135,-0.285
6419,-0.140,-0.285
6420,-0.145,-0.265
6421,-0.135,-0.295
6422,-0.135,-0.300
6423,-0.140,-0.290
6424,-0.140,-0.285
6425,-0.130,-0.280
6426,-0.115,-0.260
6427,-0.105,-0.235
6428,-0.080,-0.225
6429,-0.070,-0.240
6430,-0.075,-0.265
6431,-0.070,-0.265
6432,-0.120,-0.255
6433,-0.140,-0.260
6434,-0.130,-0.285
6435,-0.135,-0.290
6436,-0.140,-0.290
6437,-0.135,-0.305
6438,-0.125,-0.300
6439,-0.145,-0.310
6440,-0.145,-0.335
6441,-0.145,-0.330
6442,-0.145,-0.260
6443,-0.070,0.015
6444,-0.010,0.430
6445,0.060,0.705
6446,0.045,0.395
6447,-0.080,-0.160
6448,-0.560,-0.340
6449,-0.720,-0.300
6450,-0.595,-0.285
6451,-0.325,-0.290
6452,-0.185,-0.315
6453,-0.130,-0.300
6454,-0.140,-0.295
6455,-0.115,-0.315
6456,-0.120,-0.315
6457,-0.115,-0.325
6458,-0.115,-0.325
6459,-0.115,-0.310
6460,-0.100,-0.310
6461,-0.110,-0.295
6462,-0.095,-0.310
6463,-0.085,-0.270
6464,-0.090,-0.305
6465,-0.090,-0.280
6466,-0.105,-0.285
6467,-0.100,-0.270
6468,-0.110,-0.275
6469,-0.105,-0.275
6470,-0.105,-0.265
6471,-0.085,-0.260
6472,-0.070,-0.250
6473,-0.070,-0.245
6474,-0.055,-0.245
6475,-0.055,-0.260
6476,-0.045,-0.255
6477,-0.045,-0.245
6478,-0.060,-0.265
6479,-0.065,-0.240
6480,-0.055,-0.250
6481,-0.060,-0.240
6482,-0.040,-0.240
6483,-0.040,-0.230
6484,-0.030,-0.235
6485,-0.020,-0.250
6486,-0.025,-0.235
6487,-0.035,-0.230
6488,-0.050,-0.265
6489,-0.075,-0.235
6490,-0.075,-0.230
6491,-0.090,-0.265
6492,-0.095,-0.250
6493,-0.110,-0.270
6494,-0.105,-0.265
6495,-0.115,-0.270
6496,-0.120,-0.250
6497,-0.115,-0.260
6498,-0.095,-0.285
6499,-0.095,-0.275
6500,-0.100,-0.275
