'sample interval','ECG0','ECG1'
'0.0078125 sec','mV','mV'
0,-0.055,-0.595
1,-0.075,-0.650
2,-0.075,-0.675
3,-0.050,-0.650
4,-0.030,-0.660
5,-0.020,-0.670
6,-0.030,-0.635
7,-0.005,-0.625
8,-0.025,-0.610
9,-0.020,-0.600
10,-0.010,-0.605
11,0.000,-0.605
12,0.010,-0.560
13,0.025,-0.590
14,0.020,-0.585
15,0.015,-0.560
16,0.030,-0.530
17,0.065,-0.535
18,0.065,-0.540
19,0.075,-0.480
20,0.100,-0.465
21,0.105,-0.465
22,0.130,-0.425
23,0.150,-0.400
24,0.175,-0.400
25,0.185,-0.395
26,0.210,-0.365
27,0.205,-0.335
28,0.215,-0.330
29,0.225,-0.315
30,0.200,-0.285
31,0.185,-0.295
32,0.150,-0.265
33,0.105,-0.295
34,0.075,-0.310
35,0.045,-0.315
36,0.005,-0.350
37,-0.020,-0.375
38,-0.010,-0.420
39,-0.015,-0.455
40,-0.045,-0.470
41,-0.010,-0.500
42,0.005,-0.525
43,-0.030,-0.470
44,-0.085,-0.445
45,-0.050,-0.475
46,-0.070,-0.475
47,-0.050,-0.475
48,-0.050,-0.480
49,-0.065,-0.455
50,-0.075,-0.495
51,-0.050,-0.505
52,-0.035,-0.480
53,-0.055,-0.455
54,-0.040,-0.470
55,-0.045,-0.485
56,-0.045,-0.480
57,-0.050,-0.475
58,-0.040,-0.480
59,-0.060,-0.490
60,-0.050,-0.485
61,-0.075,-0.480
62,-0.050,-0.500
63,-0.060,-0.510
64,-0.075,-0.495
65,-0.065,-0.480
66,-0.070,-0.495
67,-0.055,-0.510
68,-0.060,-0.505
69,-0.090,-0.495
70,-0.085,-0.515
71,-0.060,-0.510
72,-0.075,-0.485
73,-0.105,-0.470
74,-0.075,-0.480
75,-0.065,-0.445
76,-0.045,-0.445
77,-0.030,-0.415
78,-0.015,-0.350
79,-0.030,-0.365
80,-0.065,-0.390
81,-0.085,-0.465
82,-0.115,-0.465
83,-0.135,-0.425
84,-0.090,-0.445
85,-0.095,-0.470
86,-0.085,-0.530
87,-0.085,-0.565
88,-0.115,-0.570
89,-0.115,-0.565
90,-0.120,-0.545
91,-0.095,-0.560
92,-0.105,-0.570
93,-0.100,-0.565
94,-0.090,-0.675
95,-0.100,-0.685
96,-0.065,-0.180
97,0.035,0.885
98,0.175,1.985
99,0.170,2.170
100,0.040,0.915
101,-0.230,-0.095
102,-0.415,-0.375
103,-0.330,-0.435
104,-0.155,-0.525
105,-0.090,-0.590
106,-0.075,-0.605
107,-0.065,-0.615
108,-0.060,-0.665
109,-0.065,-0.630
110,-0.050,-0.635
111,-0.075,-0.670
112,-0.050,-0.650
113,-0.030,-0.620
114,-0.045,-0.615
115,-0.035,-0.620
116,-0.025,-0.605
117,-0.035,-0.575
118,-0.045,-0.595
119,-0.015,-0.600
120,-0.025,-0.605
121,-0.015,-0.580
122,0.000,-0.545
123,0.010,-0.515
124,0.015,-0.520
125,0.020,-0.500
126,0.040,-0.510
127,0.045,-0.470
128,0.085,-0.455
129,0.120,-0.460
130,0.140,-0.435
131,0.155,-0.400
132,0.170,-0.390
133,0.200,-0.360
134,0.185,-0.360
135,0.200,-0.340
136,0.180,-0.320
137,0.175,-0.300
138,0.135,-0.280
139,0.120,-0.265
140,0.070,-0.290
141,0.055,-0.300
142,0.020,-0.320
143,0.010,-0.350
144,-0.045,-0.385
145,-0.035,-0.410
146,-0.030,-0.415
147,-0.060,-0.430
148,-0.070,-0.410
149,-0.085,-0.435
150,-0.075,-0.505
151,-0.090,-0.515
152,-0.085,-0.490
153,-0.075,-0.475
154,-0.075,-0.465
155,-0.065,-0.490
156,-0.065,-0.510
157,-0.070,-0.510
158,-0.085,-0.525
159,-0.065,-0.485
160,-0.075,-0.450
161,-0.095,-0.455
162,-0.060,-0.455
163,-0.065,-0.440
164,-0.075,-0.465
165,-0.060,-0.435
166,-0.075,-0.460
167,-0.095,-0.450
168,-0.100,-0.440
169,-0.075,-0.430
170,-0.085,-0.475
171,-0.105,-0.475
172,-0.095,-0.475
173,-0.095,-0.480
174,-0.080,-0.480
175,-0.070,-0.465
176,-0.100,-0.495
177,-0.105,-0.480
178,-0.110,-0.460
179,-0.100,-0.440
180,-0.075,-0.420
181,-0.060,-0.365
182,-0.055,-0.385
183,-0.035,-0.365
184,-0.035,-0.325
185,-0.040,-0.295
186,-0.065,-0.310
187,-0.105,-0.380
188,-0.105,-0.370
189,-0.125,-0.355
190,-0.115,-0.390
191,-0.115,-0.415
192,-0.110,-0.460
193,-0.130,-0.500
194,-0.115,-0.515
195,-0.125,-0.485
196,-0.115,-0.505
197,-0.150,-0.510
198,-0.145,-0.500
199,-0.130,-0.480
200,-0.135,-0.545
201,-0.125,-0.610
202,-0.095,-0.150
203,-0.010,0.730
204,0.135,1.770
205,0.140,2.115
206,0.015,1.025
207,-0.230,0.035
208,-0.445,-0.310
209,-0.410,-0.400
210,-0.220,-0.450
211,-0.130,-0.495
212,-0.125,-0.530
213,-0.135,-0.535
214,-0.095,-0.580
215,-0.085,-0.565
216,-0.110,-0.570
217,-0.095,-0.555
218,-0.085,-0.535
219,-0.105,-0.540
220,-0.105,-0.565
221,-0.080,-0.550
222,-0.080,-0.560
223,-0.065,-0.550
224,-0.060,-0.535
225,-0.060,-0.540
226,-0.045,-0.515
227,-0.030,-0.475
228,-0.025,-0.490
229,-0.010,-0.485
230,-0.005,-0.460
231,0.010,-0.430
232,0.030,-0.440
233,0.040,-0.435
234,0.075,-0.390
235,0.080,-0.390
236,0.110,-0.360
237,0.125,-0.360
238,0.140,-0.355
239,0.140,-0.335
240,0.155,-0.310
241,0.165,-0.300
242,0.150,-0.270
243,0.120,-0.250
244,0.090,-0.250
245,0.080,-0.245
246,0.040,-0.230
247,-0.005,-0.255
248,-0.030,-0.275
249,-0.045,-0.325
250,-0.060,-0.340
251,-0.070,-0.380
252,-0.075,-0.410
253,-0.085,-0.400
254,-0.070,-0.405
255,-0.095,-0.400
256,-0.065,-0.415
257,-0.075,-0.445
258,-0.090,-0.430
259,-0.060,-0.420
260,-0.060,-0.420
261,-0.080,-0.405
262,-0.080,-0.425
263,-0.075,-0.405
264,-0.070,-0.420
265,-0.070,-0.435
266,-0.060,-0.415
267,-0.070,-0.410
268,-0.085,-0.430
269,-0.080,-0.430
270,-0.065,-0.405
271,-0.075,-0.405
272,-0.085,-0.405
273,-0.085,-0.405
274,-0.075,-0.400
275,-0.090,-0.435
276,-0.090,-0.455
277,-0.060,-0.440
278,-0.070,-0.460
279,-0.070,-0.465
280,-0.065,-0.440
281,-0.085,-0.440
282,-0.075,-0.460
283,-0.085,-0.450
284,-0.085,-0.420
285,-0.085,-0.410
286,-0.055,-0.405
287,-0.060,-0.370
288,-0.030,-0.350
289,0.000,-0.320
290,-0.005,-0.290
291,-0.025,-0.285
292,-0.045,-0.345
293,-0.080,-0.365
294,-0.100,-0.340
295,-0.105,-0.355
296,-0.110,-0.395
297,-0.080,-0.480
298,-0.100,-0.500
299,-0.080,-0.510
300,-0.105,-0.500
301,-0.115,-0.500
302,-0.105,-0.500
303,-0.115,-0.505
304,-0.100,-0.490
305,-0.100,-0.545
306,-0.105,-0.645
307,-0.070,-0.320
308,-0.005,0.510
309,0.160,1.540
310,0.215,2.110
311,0.070,1.175
312,-0.130,0.070
313,-0.385,-0.300
314,-0.365,-0.395
315,-0.180,-0.450
316,-0.080,-0.525
317,-0.070,-0.575
318,-0.040,-0.600
319,-0.065,-0.610
320,-0.060,-0.605
321,-0.030,-0.585
322,-0.060,-0.610
323,-0.055,-0.625
324,-0.050,-0.590
325,-0.025,-0.590
326,-0.035,-0.575
327,-0.035,-0.580
328,-0.030,-0.575
329,-0.010,-0.560
330,-0.005,-0.565
331,0.000,-0.590
332,-0.010,-0.565
333,0.000,-0.550
334,0.020,-0.540
335,0.020,-0.510
336,0.035,-0.485
337,0.065,-0.500
338,0.075,-0.455
339,0.085,-0.470
340,0.105,-0.415
341,0.100,-0.430
342,0.135,-0.400
343,0.170,-0.380
344,0.165,-0.365
345,0.170,-0.385
346,0.185,-0.370
347,0.185,-0.335
348,0.160,-0.325
349,0.125,-0.300
350,0.095,-0.300
351,0.080,-0.285
352,0.020,-0.345
353,0.015,-0.360
354,-0.010,-0.350
355,-0.045,-0.395
356,-0.075,-0.435
357,-0.045,-0.450
358,-0.065,-0.475
359,-0.070,-0.505
360,-0.055,-0.485
361,-0.060,-0.480
362,-0.060,-0.515
363,-0.050,-0.480
364,-0.055,-0.510
365,-0.085,-0.475
366,-0.090,-0.490
367,-0.060,-0.475
368,-0.065,-0.485
369,-0.065,-0.470
370,-0.045,-0.470
371,-0.065,-0.490
372,-0.055,-0.490
373,-0.075,-0.495
374,-0.080,-0.485
375,-0.080,-0.480
376,-0.085,-0.495
377,-0.075,-0.485
378,-0.075,-0.490
379,-0.085,-0.490
380,-0.090,-0.490
381,-0.085,-0.470
382,-0.075,-0.500
383,-0.080,-0.495
384,-0.075,-0.500
385,-0.085,-0.510
386,-0.070,-0.495
387,-0.095,-0.500
388,-0.075,-0.505
389,-0.060,-0.465
390,-0.065,-0.435
391,-0.050,-0.415
392,-0.025,-0.385
393,0.000,-0.380
394,0.000,-0.365
395,-0.010,-0.330
396,-0.020,-0.365
397,-0.045,-0.390
398,-0.065,-0.395
399,-0.095,-0.405
400,-0.100,-0.410
401,-0.075,-0.435
402,-0.050,-0.505
403,-0.085,-0.510
404,-0.065,-0.515
405,-0.070,-0.500
406,-0.075,-0.550
407,-0.090,-0.525
408,-0.105,-0.525
409,-0.070,-0.535
410,-0.060,-0.620
411,-0.070,-0.390
412,0.000,0.335
413,0.125,1.290
414,0.190,1.900
415,0.115,1.140
416,-0.090,0.010
417,-0.325,-0.325
418,-0.355,-0.395
419,-0.190,-0.475
420,-0.090,-0.515
421,-0.075,-0.545
422,-0.065,-0.575
423,-0.060,-0.580
424,-0.065,-0.590
425,-0.060,-0.590
426,-0.060,-0.600
427,-0.040,-0.595
428,-0.050,-0.570
429,-0.035,-0.550
430,-0.030,-0.565
431,-0.045,-0.565
432,-0.050,-0.575
433,-0.020,-0.560
434,-0.010,-0.555
435,-0.020,-0.555
436,-0.005,-0.535
437,-0.025,-0.520
438,-0.005,-0.525
439,0.010,-0.520
440,0.015,-0.515
441,0.030,-0.465
442,0.060,-0.475
443,0.065,-0.505
444,0.075,-0.460
445,0.095,-0.405
446,0.125,-0.365
447,0.145,-0.360
448,0.165,-0.345
449,0.155,-0.350
450,0.145,-0.325
451,0.135,-0.310
452,0.110,-0.265
453,0.075,-0.275
454,0.055,-0.315
455,0.020,-0.310
456,0.000,-0.340
457,-0.030,-0.360
458,-0.035,-0.385
459,-0.045,-0.430
460,-0.065,-0.485
461,-0.080,-0.480
462,-0.090,-0.480
463,-0.070,-0.480
464,-0.085,-0.530
465,-0.095,-0.475
466,-0.075,-0.485
467,-0.080,-0.470
468,-0.075,-0.485
469,-0.085,-0.495
470,-0.100,-0.490
471,-0.095,-0.490
472,-0.105,-0.455
473,-0.075,-0.495
474,-0.080,-0.495
475,-0.095,-0.490
476,-0.090,-0.490
477,-0.095,-0.495
478,-0.100,-0.490
479,-0.075,-0.515
480,-0.105,-0.510
481,-0.095,-0.485
482,-0.075,-0.510
483,-0.065,-0.540
484,-0.095,-0.555
485,-0.140,-0.550
486,-0.095,-0.500
487,-0.095,-0.495
488,-0.085,-0.525
489,-0.100,-0.455
490,-0.100,-0.475
491,-0.095,-0.445
492,-0.070,-0.410
493,-0.035,-0.430
494,-0.035,-0.420
495,-0.025,-0.375
496,-0.025,-0.370
497,-0.040,-0.405
498,-0.095,-0.440
499,-0.100,-0.460
500,-0.100,-0.480
501,-0.125,-0.465
502,-0.095,-0.480
503,-0.090,-0.570
504,-0.105,-0.585
505,-0.135,-0.585
506,-0.115,-0.590
507,-0.120,-0.610
508,-0.120,-0.600
509,-0.100,-0.615
510,-0.110,-0.640
511,-0.100,-0.770
512,-0.090,-0.680
513,-0.100,0.040
514,0.055,1.130
515,0.150,2.065
516,0.080,1.650
517,-0.070,0.310
518,-0.325,-0.405
519,-0.430,-0.490
520,-0.270,-0.540
521,-0.125,-0.595
522,-0.070,-0.610
523,-0.065,-0.670
524,-0.085,-0.675
525,-0.075,-0.685
526,-0.065,-0.665
527,-0.060,-0.670
528,-0.045,-0.655
529,-0.055,-0.640
530,-0.035,-0.630
531,-0.025,-0.635
532,-0.040,-0.650
533,-0.030,-0.625
534,-0.015,-0.605
535,-0.015,-0.590
536,-0.010,-0.570
537,0.000,-0.575
538,0.015,-0.570
539,0.005,-0.565
540,0.030,-0.530
541,0.040,-0.520
542,0.055,-0.480
543,0.085,-0.460
544,0.100,-0.430
545,0.115,-0.420
546,0.125,-0.400
547,0.165,-0.390
548,0.180,-0.360
549,0.175,-0.325
550,0.205,-0.305
551,0.180,-0.290
552,0.175,-0.285
553,0.175,-0.255
554,0.125,-0.205
555,0.095,-0.245
556,0.075,-0.290
557,0.015,-0.290
558,0.005,-0.340
559,-0.020,-0.370
560,-0.025,-0.385
561,-0.040,-0.420
562,-0.055,-0.455
563,-0.065,-0.450
564,-0.060,-0.460
565,-0.075,-0.470
566,-0.065,-0.490
567,-0.060,-0.440
568,-0.055,-0.450
569,-0.050,-0.445
570,-0.060,-0.450
571,-0.050,-0.440
572,-0.060,-0.410
573,-0.075,-0.430
574,-0.090,-0.460
575,-0.075,-0.425
576,-0.065,-0.455
577,-0.080,-0.465
578,-0.065,-0.450
579,-0.070,-0.455
580,-0.075,-0.440
581,-0.080,-0.445
582,-0.085,-0.460
583,-0.090,-0.460
584,-0.085,-0.485
585,-0.090,-0.480
586,-0.100,-0.470
587,-0.095,-0.465
588,-0.100,-0.460
589,-0.100,-0.470
590,-0.095,-0.475
591,-0.100,-0.460
592,-0.095,-0.465
593,-0.110,-0.470
594,-0.095,-0.455
595,-0.100,-0.450
596,-0.115,-0.400
597,-0.100,-0.385
598,-0.055,-0.370
599,-0.050,-0.345
600,-0.040,-0.330
601,-0.055,-0.320
602,-0.070,-0.345
603,-0.115,-0.350
604,-0.120,-0.370
605,-0.125,-0.370
606,-0.135,-0.365
607,-0.115,-0.415
608,-0.095,-0.505
609,-0.130,-0.500
610,-0.135,-0.515
611,-0.130,-0.520
612,-0.105,-0.515
613,-0.120,-0.510
614,-0.130,-0.510
615,-0.135,-0.525
616,-0.115,-0.620
617,-0.120,-0.635
618,-0.095,-0.010
619,0.000,1.035
620,0.150,2.120
621,0.120,2.065
622,0.000,0.760
623,-0.280,-0.140
624,-0.455,-0.345
625,-0.350,-0.380
626,-0.175,-0.465
627,-0.115,-0.515
628,-0.100,-0.545
629,-0.105,-0.565
630,-0.085,-0.590
631,-0.095,-0.595
632,-0.080,-0.570
633,-0.075,-0.590
634,-0.070,-0.595
635,-0.060,-0.570
636,-0.075,-0.570
637,-0.080,-0.570
638,-0.040,-0.560
639,-0.065,-0.565
640,-0.015,-0.560
641,-0.025,-0.550
642,-0.020,-0.540
643,-0.005,-0.520
644,0.000,-0.505
645,0.010,-0.495
646,0.025,-0.465
647,0.025,-0.430
648,0.060,-0.420
649,0.085,-0.420
650,0.085,-0.395
651,0.120,-0.375
652,0.145,-0.335
653,0.160,-0.295
654,0.170,-0.280
655,0.195,-0.275
656,0.210,-0.260
657,0.200,-0.240
658,0.215,-0.215
659,0.180,-0.195
660,0.155,-0.170
661,0.125,-0.170
662,0.110,-0.200
663,0.050,-0.220
664,0.030,-0.230
665,0.005,-0.255
666,-0.020,-0.275
667,-0.035,-0.300
668,-0.045,-0.320
669,-0.055,-0.345
670,-0.065,-0.335
671,-0.065,-0.340
672,-0.060,-0.365
673,-0.060,-0.370
674,-0.080,-0.355
675,-0.050,-0.365
676,-0.070,-0.385
677,-0.070,-0.385
678,-0.075,-0.360
679,-0.075,-0.380
680,-0.075,-0.400
681,-0.050,-0.370
682,-0.055,-0.385
683,-0.070,-0.385
684,-0.060,-0.370
685,-0.070,-0.370
686,-0.075,-0.375
687,-0.080,-0.390
688,-0.080,-0.360
689,-0.065,-0.360
690,-0.070,-0.355
691,-0.075,-0.365
692,-0.090,-0.385
693,-0.070,-0.385
694,-0.085,-0.375
695,-0.085,-0.365
696,-0.070,-0.360
697,-0.105,-0.375
698,-0.080,-0.395
699,-0.095,-0.375
700,-0.090,-0.380
701,-0.105,-0.360
702,-0.080,-0.370
703,-0.090,-0.375
704,-0.090,-0.365
705,-0.085,-0.320
706,-0.080,-0.285
707,-0.055,-0.265
708,-0.020,-0.245
709,-0.020,-0.230
710,-0.040,-0.235
711,-0.070,-0.240
712,-0.105,-0.265
713,-0.115,-0.270
714,-0.125,-0.265
715,-0.135,-0.285
716,-0.115,-0.345
717,-0.095,-0.385
718,-0.125,-0.410
719,-0.105,-0.440
720,-0.135,-0.420
721,-0.125,-0.410
722,-0.115,-0.400
723,-0.130,-0.410
724,-0.130,-0.445
725,-0.125,-0.495
726,-0.120,-0.595
727,-0.100,-0.180
728,-0.045,0.730
729,0.120,1.855
730,0.165,2.330
731,0.065,1.305
732,-0.145,0.210
733,-0.410,-0.195
734,-0.400,-0.295
735,-0.220,-0.375
736,-0.115,-0.430
737,-0.085,-0.480
738,-0.085,-0.520
739,-0.075,-0.510
740,-0.075,-0.500
741,-0.075,-0.505
742,-0.060,-0.515
743,-0.110,-0.500
744,-0.060,-0.485
745,-0.060,-0.475
746,-0.060,-0.490
747,-0.060,-0.460
748,-0.060,-0.480
749,-0.045,-0.490
750,-0.050,-0.480
751,-0.020,-0.485
752,-0.015,-0.465
753,0.000,-0.435
754,-0.010,-0.440
755,0.015,-0.425
756,0.015,-0.405
757,0.035,-0.390
758,0.070,-0.375
759,0.075,-0.365
760,0.085,-0.355
761,0.120,-0.310
762,0.135,-0.275
763,0.150,-0.265
764,0.155,-0.230
765,0.180,-0.260
766,0.180,-0.240
767,0.170,-0.195
768,0.190,-0.175
769,0.135,-0.150
770,0.115,-0.160
771,0.105,-0.155
772,0.075,-0.160
773,0.035,-0.165
774,0.005,-0.200
775,-0.015,-0.250
776,-0.030,-0.250
777,-0.055,-0.275
778,-0.060,-0.290
779,-0.060,-0.330
780,-0.065,-0.345
781,-0.065,-0.350
782,-0.075,-0.360
783,-0.065,-0.340
784,-0.070,-0.340
785,-0.045,-0.330
786,-0.065,-0.335
787,-0.060,-0.320
788,-0.050,-0.320
789,-0.055,-0.335
790,-0.055,-0.325
791,-0.050,-0.350
792,-0.055,-0.320
793,-0.050,-0.335
794,-0.045,-0.330
795,-0.055,-0.325
796,-0.065,-0.335
797,-0.070,-0.350
798,-0.055,-0.340
799,-0.075,-0.320
800,-0.085,-0.330
801,-0.065,-0.335
802,-0.070,-0.330
803,-0.085,-0.335
804,-0.105,-0.330
805,-0.065,-0.320
806,-0.090,-0.330
807,-0.105,-0.345
808,-0.080,-0.330
809,-0.080,-0.320
810,-0.065,-0.325
811,-0.085,-0.340
812,-0.070,-0.320
813,-0.075,-0.305
814,-0.080,-0.250
815,-0.050,-0.240
816,-0.035,-0.225
817,-0.010,-0.200
818,-0.010,-0.180
819,-0.025,-0.155
820,-0.030,-0.175
821,-0.080,-0.235
822,-0.095,-0.240
823,-0.125,-0.240
824,-0.110,-0.250
825,-0.090,-0.285
826,-0.105,-0.355
827,-0.105,-0.365
828,-0.125,-0.375
829,-0.105,-0.380
830,-0.120,-0.360
831,-0.110,-0.390
832,-0.115,-0.390
833,-0.100,-0.390
834,-0.120,-0.505
835,-0.090,-0.335
836,-0.055,0.410
837,0.080,1.520
838,0.170,2.310
839,0.090,1.550
840,-0.105,0.360
841,-0.380,-0.155
842,-0.430,-0.235
843,-0.250,-0.315
844,-0.125,-0.395
845,-0.085,-0.440
846,-0.115,-0.465
847,-0.105,-0.485
848,-0.120,-0.485
849,-0.095,-0.475
850,-0.095,-0.475
851,-0.065,-0.470
852,-0.080,-0.480
853,-0.070,-0.480
854,-0.085,-0.470
855,-0.080,-0.485
856,-0.060,-0.450
857,-0.070,-0.435
858,-0.040,-0.430
859,-0.045,-0.430
860,-0.025,-0.405
861,-0.015,-0.400
862,-0.005,-0.375
863,0.005,-0.375
864,0.015,-0.345
865,0.030,-0.335
866,0.070,-0.325
867,0.075,-0.310
868,0.085,-0.280
869,0.105,-0.260
870,0.145,-0.245
871,0.155,-0.240
872,0.160,-0.215
873,0.155,-0.200
874,0.155,-0.170
875,0.150,-0.175
876,0.140,-0.145
877,0.135,-0.155
878,0.110,-0.120
879,0.065,-0.155
880,0.010,-0.150
881,-0.010,-0.190
882,-0.020,-0.260
883,-0.040,-0.280
884,-0.050,-0.280
885,-0.060,-0.285
886,-0.085,-0.310
887,-0.070,-0.325
888,-0.085,-0.330
889,-0.075,-0.325
890,-0.065,-0.360
891,-0.080,-0.335
892,-0.085,-0.360
893,-0.075,-0.355
894,-0.070,-0.355
895,-0.050,-0.345
896,-0.070,-0.370
897,-0.060,-0.365
898,-0.065,-0.355
899,-0.045,-0.345
900,-0.070,-0.355
901,-0.060,-0.330
902,-0.060,-0.335
903,-0.065,-0.365
904,-0.065,-0.350
905,-0.040,-0.350
906,-0.050,-0.365
907,-0.070,-0.365
908,-0.065,-0.350
909,-0.065,-0.340
910,-0.055,-0.340
911,-0.050,-0.360
912,-0.050,-0.340
913,-0.065,-0.340
914,-0.070,-0.335
915,-0.040,-0.325
916,-0.035,-0.340
917,-0.040,-0.330
918,-0.045,-0.345
919,-0.035,-0.325
920,-0.050,-0.265
921,-0.020,-0.265
922,-0.020,-0.260
923,0.010,-0.200
924,0.010,-0.170
925,0.025,-0.175
926,-0.025,-0.205
927,-0.040,-0.275
928,-0.095,-0.255
929,-0.100,-0.250
930,-0.090,-0.260
931,-0.075,-0.305
932,-0.050,-0.360
933,-0.075,-0.400
934,-0.100,-0.395
935,-0.070,-0.410
936,-0.065,-0.370
937,-0.065,-0.400
938,-0.085,-0.420
939,-0.065,-0.425
940,-0.085,-0.545
941,-0.080,-0.360
942,-0.025,0.445
943,0.125,1.470
944,0.205,2.035
945,0.120,1.135
946,-0.110,0.050
947,-0.350,-0.240
948,-0.365,-0.300
949,-0.185,-0.355
950,-0.055,-0.425
951,-0.055,-0.455
952,-0.055,-0.475
953,-0.050,-0.485
954,-0.035,-0.500
955,-0.020,-0.490
956,-0.020,-0.485
957,-0.010,-0.510
958,-0.005,-0.480
959,-0.020,-0.465
960,0.000,-0.475
961,-0.010,-0.495
962,0.015,-0.460
963,0.000,-0.435
964,0.010,-0.450
965,0.015,-0.445
966,0.020,-0.445
967,0.035,-0.435
968,0.030,-0.430
969,0.040,-0.415
970,0.065,-0.390
971,0.080,-0.380
972,0.100,-0.350
973,0.090,-0.340
974,0.140,-0.345
975,0.135,-0.340
976,0.145,-0.295
977,0.135,-0.280
978,0.170,-0.275
979,0.175,-0.265
980,0.155,-0.245
981,0.165,-0.210
982,0.120,-0.215
983,0.125,-0.200
984,0.090,-0.200
985,0.045,-0.200
986,0.035,-0.265
987,0.005,-0.290
988,-0.005,-0.325
989,-0.025,-0.350
990,-0.050,-0.360
991,-0.040,-0.375
992,-0.055,-0.380
993,-0.035,-0.410
994,-0.035,-0.430
995,-0.050,-0.420
996,-0.045,-0.420
997,-0.035,-0.435
998,-0.040,-0.425
999,-0.035,-0.425
1000,-0.055,-0.410
1001,-0.035,-0.440
1002,-0.050,-0.450
1003,-0.030,-0.420
1004,-0.055,-0.395
1005,-0.045,-0.420
1006,-0.045,-0.425
1007,-0.060,-0.425
1008,-0.045,-0.450
1009,-0.055,-0.455
1010,-0.055,-0.455
1011,-0.075,-0.465
1012,-0.070,-0.480
1013,-0.060,-0.480
1014,-0.055,-0.485
1015,-0.050,-0.495
1016,-0.065,-0.445
1017,-0.045,-0.465
1018,-0.065,-0.505
1019,-0.065,-0.485
1020,-0.075,-0.455
1021,-0.055,-0.455
1022,-0.080,-0.470
1023,-0.070,-0.470
1024,-0.065,-0.425
1025,-0.050,-0.400
1026,-0.035,-0.375
1027,-0.010,-0.335
1028,-0.005,-0.310
1029,0.005,-0.300
1030,-0.020,-0.310
1031,-0.055,-0.355
1032,-0.070,-0.370
1033,-0.075,-0.370
1034,-0.065,-0.370
1035,-0.070,-0.390
1036,-0.055,-0.465
1037,-0.060,-0.480
1038,-0.095,-0.485
1039,-0.065,-0.490
1040,-0.075,-0.500
1041,-0.060,-0.465
1042,-0.060,-0.505
1043,-0.065,-0.465
1044,-0.055,-0.540
1045,-0.035,-0.545
1046,0.000,0.105
1047,0.105,1.040
1048,0.235,1.890
1049,0.205,1.690
1050,0.040,0.450
1051,-0.220,-0.255
1052,-0.370,-0.345
1053,-0.275,-0.380
1054,-0.110,-0.460
1055,-0.040,-0.535
1056,-0.055,-0.555
1057,-0.050,-0.550
1058,-0.040,-0.560
1059,-0.045,-0.545
1060,-0.025,-0.555
1061,-0.035,-0.570
1062,-0.035,-0.560
1063,-0.040,-0.570
1064,-0.025,-0.560
1065,-0.040,-0.535
1066,-0.015,-0.515
1067,0.000,-0.505
1068,0.000,-0.500
1069,0.000,-0.505
1070,0.020,-0.505
1071,0.030,-0.475
1072,0.025,-0.480
1073,0.035,-0.460
1074,0.025,-0.430
1075,0.050,-0.425
1076,0.080,-0.405
1077,0.090,-0.395
1078,0.115,-0.350
1079,0.115,-0.335
1080,0.150,-0.325
1081,0.170,-0.315
1082,0.160,-0.310
1083,0.165,-0.305
1084,0.180,-0.295
1085,0.150,-0.280
1086,0.165,-0.200
1087,0.130,-0.210
1088,0.110,-0.215
1089,0.060,-0.255
1090,0.045,-0.250
1091,0.035,-0.280
1092,-0.005,-0.315
1093,-0.025,-0.350
1094,-0.030,-0.390
1095,-0.035,-0.405
1096,-0.045,-0.425
1097,-0.050,-0.405
1098,-0.055,-0.450
1099,-0.065,-0.435
1100,-0.080,-0.435
1101,-0.060,-0.430
1102,-0.060,-0.435
1103,-0.075,-0.415
1104,-0.080,-0.425
1105,-0.080,-0.410
1106,-0.085,-0.430
1107,-0.080,-0.410
1108,-0.080,-0.420
1109,-0.075,-0.435
1110,-0.080,-0.435
1111,-0.070,-0.455
1112,-0.085,-0.450
1113,-0.085,-0.430
1114,-0.080,-0.445
1115,-0.100,-0.455
1116,-0.085,-0.440
1117,-0.085,-0.470
1118,-0.090,-0.460
1119,-0.080,-0.470
1120,-0.080,-0.465
1121,-0.095,-0.470
1122,-0.095,-0.455
1123,-0.085,-0.445
1124,-0.105,-0.460
1125,-0.080,-0.500
1126,-0.095,-0.490
1127,-0.085,-0.475
1128,-0.090,-0.470
1129,-0.095,-0.465
1130,-0.085,-0.455
1131,-0.095,-0.430
1132,-0.080,-0.375
1133,-0.035,-0.340
1134,-0.030,-0.325
1135,0.000,-0.305
1136,-0.020,-0.300
1137,-0.045,-0.325
1138,-0.095,-0.365
1139,-0.115,-0.375
1140,-0.115,-0.360
1141,-0.105,-0.365
1142,-0.090,-0.405
1143,-0.070,-0.455
1144,-0.090,-0.505
1145,-0.100,-0.510
1146,-0.115,-0.470
1147,-0.100,-0.495
1148,-0.095,-0.480
1149,-0.110,-0.475
1150,-0.115,-0.540
1151,-0.100,-0.665
1152,-0.070,-0.430
1153,-0.025,0.425
1154,0.125,1.555
1155,0.185,2.275
1156,0.085,1.415
1157,-0.110,0.190
1158,-0.395,-0.300
1159,-0.440,-0.385
1160,-0.260,-0.430
1161,-0.130,-0.505
1162,-0.070,-0.545
1163,-0.085,-0.550
1164,-0.085,-0.570
1165,-0.080,-0.565
1166,-0.060,-0.555
1167,-0.060,-0.550
1168,-0.060,-0.555
1169,-0.050,-0.540
1170,-0.050,-0.535
1171,-0.040,-0.535
1172,-0.025,-0.525
1173,-0.010,-0.525
1174,-0.010,-0.520
1175,-0.015,-0.490
1176,-0.020,-0.480
1177,0.000,-0.475
1178,0.005,-0.480
1179,0.000,-0.450
1180,0.025,-0.445
1181,0.025,-0.435
1182,0.035,-0.390
1183,0.080,-0.380
1184,0.080,-0.365
1185,0.095,-0.340
1186,0.125,-0.315
1187,0.135,-0.300
1188,0.150,-0.295
1189,0.160,-0.265
1190,0.175,-0.235
1191,0.175,-0.225
1192,0.160,-0.230
1193,0.145,-0.210
1194,0.120,-0.185
1195,0.070,-0.210
1196,0.040,-0.185
1197,0.040,-0.205
1198,0.000,-0.245
1199,-0.015,-0.275
1200,-0.045,-0.320
1201,-0.060,-0.340
1202,-0.075,-0.330
1203,-0.070,-0.350
1204,-0.080,-0.370
1205,-0.085,-0.365
1206,-0.085,-0.395
1207,-0.090,-0.385
1208,-0.085,-0.385
1209,-0.085,-0.410
1210,-0.095,-0.445
1211,-0.090,-0.440
1212,-0.070,-0.380
1213,-0.040,-0.425
1214,-0.025,-0.455
1215,-0.055,-0.485
1216,-0.070,-0.450
1217,-0.040,-0.370
1218,-0.025,-0.360
1219,-0.025,-0.390
1220,-0.075,-0.405
1221,-0.085,-0.400
1222,-0.090,-0.390
1223,-0.105,-0.460
1224,-0.085,-0.435
1225,-0.070,0.155
1226,0.020,1.175
1227,0.185,2.160
1228,0.210,2.140
1229,0.055,0.780
1230,-0.215,-0.120
1231,-0.485,-0.295
1232,-0.400,-0.340
1233,-0.220,-0.395
1234,-0.140,-0.440
1235,-0.135,-0.475
1236,-0.130,-0.490
1237,-0.110,-0.490
1238,-0.115,-0.480
1239,-0.125,-0.490
1240,-0.125,-0.500
1241,-0.130,-0.510
1242,-0.135,-0.505
1243,-0.120,-0.490
1244,-0.110,-0.495
1245,-0.125,-0.510
1246,-0.105,-0.475
1247,-0.110,-0.485
1248,-0.110,-0.475
1249,-0.095,-0.455
1250,-0.110,-0.435
1251,-0.085,-0.435
1252,-0.050,-0.395
1253,-0.055,-0.405
1254,-0.050,-0.395
1255,-0.035,-0.360
1256,0.000,-0.345
1257,0.005,-0.300
1258,0.015,-0.270
1259,0.040,-0.225
1260,0.040,-0.205
1261,0.055,-0.165
1262,0.060,-0.175
1263,0.070,-0.130
1264,0.060,-0.095
1265,0.050,-0.095
1266,0.045,-0.110
1267,0.025,-0.130
1268,-0.010,-0.200
1269,-0.040,-0.235
1270,-0.070,-0.270
1271,-0.090,-0.315
1272,-0.110,-0.360
1273,-0.130,-0.405
1274,-0.150,-0.410
1275,-0.145,-0.425
1276,-0.155,-0.445
1277,-0.155,-0.430
1278,-0.140,-0.460
1279,-0.145,-0.450
1280,-0.155,-0.460
1281,-0.155,-0.450
1282,-0.155,-0.470
1283,-0.175,-0.460
1284,-0.150,-0.455
1285,-0.160,-0.460
1286,-0.160,-0.440
1287,-0.150,-0.465
1288,-0.165,-0.465
1289,-0.155,-0.455
1290,-0.150,-0.455
1291,-0.155,-0.435
1292,-0.155,-0.440
1293,-0.145,-0.420
1294,-0.130,-0.420
1295,-0.145,-0.410
1296,-0.145,-0.445
1297,-0.135,-0.445
1298,-0.135,-0.450
1299,-0.145,-0.440
1300,-0.145,-0.440
1301,-0.150,-0.430
1302,-0.125,-0.420
1303,-0.120,-0.425
1304,-0.125,-0.410
1305,-0.130,-0.415
1306,-0.150,-0.410
1307,-0.140,-0.415
1308,-0.145,-0.415
1309,-0.150,-0.420
1310,-0.140,-0.435
1311,-0.125,-0.405
1312,-0.150,-0.400
1313,-0.135,-0.415
1314,-0.145,-0.410
1315,-0.135,-0.415
1316,-0.130,-0.400
1317,-0.145,-0.405
1318,-0.140,-0.405
1319,-0.150,-0.415
1320,-0.140,-0.405
1321,-0.155,-0.390
1322,-0.155,-0.380
1323,-0.130,-0.390
1324,-0.150,-0.415
1325,-0.130,-0.390
1326,-0.140,-0.400
1327,-0.135,-0.385
1328,-0.150,-0.370
1329,-0.130,-0.385
1330,-0.145,-0.380
1331,-0.145,-0.400
1332,-0.135,-0.405
1333,-0.150,-0.390
1334,-0.145,-0.370
1335,-0.145,-0.330
1336,-0.130,-0.325
1337,-0.110,-0.295
1338,-0.100,-0.280
1339,-0.085,-0.245
1340,-0.080,-0.230
1341,-0.080,-0.215
1342,-0.090,-0.255
1343,-0.150,-0.295
1344,-0.165,-0.290
1345,-0.165,-0.310
1346,-0.175,-0.315
1347,-0.170,-0.350
1348,-0.150,-0.405
1349,-0.155,-0.405
1350,-0.185,-0.430
1351,-0.165,-0.420
1352,-0.175,-0.405
1353,-0.150,-0.430
1354,-0.165,-0.415
1355,-0.170,-0.495
1356,-0.155,-0.565
1357,-0.145,-0.200
1358,-0.075,0.670
1359,0.040,1.675
1360,0.070,2.045
1361,-0.010,0.990
1362,-0.165,0.010
1363,-0.390,-0.275
1364,-0.415,-0.305
1365,-0.240,-0.395
1366,-0.155,-0.475
1367,-0.165,-0.500
1368,-0.160,-0.540
1369,-0.160,-0.535
1370,-0.160,-0.555
1371,-0.145,-0.555
1372,-0.155,-0.570
1373,-0.130,-0.565
1374,-0.135,-0.555
1375,-0.130,-0.545
1376,-0.135,-0.545
1377,-0.130,-0.540
1378,-0.105,-0.540
1379,-0.105,-0.535
1380,-0.120,-0.515
1381,-0.105,-0.510
1382,-0.090,-0.510
1383,-0.080,-0.510
1384,-0.065,-0.470
1385,-0.065,-0.455
1386,-0.050,-0.455
1387,-0.025,-0.455
1388,0.000,-0.425
1389,-0.005,-0.435
1390,0.010,-0.425
1391,0.015,-0.420
1392,0.045,-0.410
1393,0.055,-0.405
1394,0.075,-0.400
1395,0.060,-0.355
1396,0.060,-0.375
1397,0.060,-0.340
1398,0.035,-0.315
1399,0.030,-0.310
1400,0.010,-0.275
1401,-0.020,-0.270
1402,-0.050,-0.265
1403,-0.060,-0.250
1404,-0.080,-0.250
1405,-0.100,-0.260
1406,-0.110,-0.305
1407,-0.120,-0.300
1408,-0.125,-0.325
1409,-0.120,-0.320
1410,-0.135,-0.350
1411,-0.140,-0.345
1412,-0.140,-0.360
1413,-0.135,-0.355
1414,-0.145,-0.370
1415,-0.135,-0.345
1416,-0.140,-0.345
1417,-0.145,-0.355
1418,-0.140,-0.320
1419,-0.140,-0.320
1420,-0.135,-0.340
1421,-0.145,-0.340
1422,-0.150,-0.345
1423,-0.130,-0.350
1424,-0.145,-0.350
1425,-0.120,-0.365
1426,-0.135,-0.355
1427,-0.150,-0.335
1428,-0.120,-0.360
1429,-0.145,-0.340
1430,-0.140,-0.350
1431,-0.135,-0.370
1432,-0.180,-0.360
1433,-0.145,-0.355
1434,-0.145,-0.360
1435,-0.145,-0.385
1436,-0.150,-0.385
1437,-0.145,-0.370
1438,-0.145,-0.345
1439,-0.115,-0.280
1440,-0.120,-0.280
1441,-0.100,-0.260
1442,-0.080,-0.230
1443,-0.085,-0.210
1444,-0.105,-0.220
1445,-0.135,-0.265
1446,-0.185,-0.300
1447,-0.200,-0.275
1448,-0.185,-0.290
1449,-0.170,-0.315
1450,-0.155,-0.400
1451,-0.175,-0.390
1452,-0.185,-0.400
1453,-0.180,-0.415
1454,-0.185,-0.405
1455,-0.185,-0.380
1456,-0.175,-0.400
1457,-0.175,-0.425
1458,-0.185,-0.510
1459,-0.175,-0.500
1460,-0.135,0.075
1461,-0.050,1.085
1462,0.070,2.020
1463,0.035,1.760
1464,-0.085,0.495
1465,-0.335,-0.160
1466,-0.480,-0.250
1467,-0.360,-0.290
1468,-0.190,-0.385
1469,-0.165,-0.410
1470,-0.145,-0.455
1471,-0.155,-0.470
1472,-0.130,-0.470
1473,-0.155,-0.465
1474,-0.130,-0.460
1475,-0.130,-0.445
1476,-0.140,-0.460
1477,-0.130,-0.450
1478,-0.120,-0.440
1479,-0.110,-0.435
1480,-0.120,-0.410
1481,-0.100,-0.420
1482,-0.110,-0.435
1483,-0.085,-0.405
1484,-0.095,-0.390
1485,-0.080,-0.375
1486,-0.070,-0.375
1487,-0.060,-0.355
1488,-0.040,-0.335
1489,-0.025,-0.320
1490,-0.010,-0.310
1491,-0.010,-0.280
1492,0.030,-0.240
1493,0.030,-0.225
1494,0.030,-0.235
1495,0.045,-0.205
1496,0.065,-0.200
1497,0.070,-0.200
1498,0.050,-0.170
1499,0.040,-0.140
1500,0.010,-0.130
1501,0.000,-0.150
1502,-0.045,-0.165
1503,-0.070,-0.180
1504,-0.115,-0.195
1505,-0.115,-0.235
1506,-0.125,-0.285
1507,-0.155,-0.330
1508,-0.160,-0.315
1509,-0.170,-0.340
1510,-0.165,-0.340
1511,-0.180,-0.340
1512,-0.180,-0.350
1513,-0.175,-0.325
1514,-0.165,-0.345
1515,-0.190,-0.355
1516,-0.185,-0.380
1517,-0.165,-0.365
1518,-0.165,-0.380
1519,-0.165,-0.355
1520,-0.185,-0.355
1521,-0.190,-0.340
1522,-0.195,-0.360
1523,-0.190,-0.350
1524,-0.170,-0.355
1525,-0.170,-0.355
1526,-0.200,-0.375
1527,-0.195,-0.370
1528,-0.185,-0.360
1529,-0.200,-0.360
1530,-0.195,-0.390
1531,-0.200,-0.390
1532,-0.195,-0.370
1533,-0.200,-0.345
1534,-0.205,-0.365
1535,-0.200,-0.370
1536,-0.195,-0.370
1537,-0.200,-0.365
1538,-0.230,-0.360
1539,-0.205,-0.380
1540,-0.205,-0.325
1541,-0.190,-0.305
1542,-0.185,-0.275
1543,-0.155,-0.260
1544,-0.135,-0.225
1545,-0.110,-0.205
1546,-0.115,-0.205
1547,-0.155,-0.240
1548,-0.205,-0.290
1549,-0.220,-0.275
1550,-0.225,-0.240
1551,-0.225,-0.265
1552,-0.205,-0.310
1553,-0.190,-0.395
1554,-0.175,-0.390
1555,-0.195,-0.385
1556,-0.190,-0.390
1557,-0.195,-0.400
1558,-0.195,-0.385
1559,-0.195,-0.415
1560,-0.195,-0.440
1561,-0.185,-0.560
1562,-0.155,-0.250
1563,-0.105,0.700
1564,0.035,1.850
1565,0.065,2.250
1566,-0.005,1.070
1567,-0.250,0.110
1568,-0.480,-0.200
1569,-0.420,-0.290
1570,-0.260,-0.370
1571,-0.155,-0.435
1572,-0.145,-0.440
1573,-0.150,-0.475
1574,-0.135,-0.475
1575,-0.150,-0.475
1576,-0.135,-0.450
1577,-0.120,-0.430
1578,-0.130,-0.455
1579,-0.135,-0.455
1580,-0.115,-0.455
1581,-0.115,-0.520
1582,-0.100,-0.455
1583,-0.100,-0.420
1584,-0.085,-0.410
1585,-0.085,-0.410
1586,-0.075,-0.395
1587,-0.065,-0.395
1588,-0.045,-0.380
1589,-0.035,-0.350
1590,-0.025,-0.315
1591,-0.020,-0.305
1592,0.005,-0.265
1593,0.030,-0.265
1594,0.050,-0.265
1595,0.045,-0.225
1596,0.070,-0.205
1597,0.085,-0.190
1598,0.120,-0.175
1599,0.120,-0.135
1600,0.100,-0.115
1601,0.135,-0.110
1602,0.095,-0.060
1603,0.080,-0.060
1604,0.065,-0.105
1605,0.025,-0.080
1606,0.000,-0.090
1607,-0.030,-0.135
1608,-0.050,-0.155
1609,-0.070,-0.165
1610,-0.090,-0.200
1611,-0.100,-0.225
1612,-0.105,-0.235
1613,-0.115,-0.245
1614,-0.125,-0.280
1615,-0.135,-0.305
1616,-0.120,-0.320
1617,-0.130,-0.335
1618,-0.105,-0.290
1619,-0.100,-0.315
1620,-0.070,-0.390
1621,-0.110,-0.400
1622,-0.100,-0.335
1623,-0.060,-0.305
1624,-0.065,-0.285
1625,-0.090,-0.300
1626,-0.130,-0.325
1627,-0.145,-0.305
1628,-0.140,-0.335
1629,-0.140,-0.370
1630,-0.150,-0.255
1631,-0.115,0.450
1632,0.015,1.590
1633,0.205,2.515
1634,0.210,2.030
1635,0.020,0.620
1636,-0.280,-0.060
1637,-0.485,-0.160
1638,-0.360,-0.210
1639,-0.205,-0.295
1640,-0.155,-0.330
1641,-0.145,-0.355
1642,-0.150,-0.365
1643,-0.150,-0.380
1644,-0.125,-0.370
1645,-0.140,-0.395
1646,-0.110,-0.390
1647,-0.140,-0.390
1648,-0.120,-0.400
1649,-0.125,-0.405
1650,-0.130,-0.390
1651,-0.115,-0.395
1652,-0.125,-0.385
1653,-0.100,-0.380
1654,-0.100,-0.365
1655,-0.110,-0.375
1656,-0.095,-0.335
1657,-0.095,-0.355
1658,-0.075,-0.325
1659,-0.055,-0.305
1660,-0.050,-0.295
1661,-0.025,-0.270
1662,-0.005,-0.235
1663,-0.015,-0.190
1664,0.020,-0.150
1665,0.005,-0.150
1666,0.030,-0.110
1667,0.035,-0.090
1668,0.045,-0.055
1669,0.055,-0.025
1670,0.050,0.005
1671,0.025,-0.010
1672,0.010,-0.090
1673,-0.005,-0.125
1674,-0.040,-0.155
1675,-0.060,-0.210
1676,-0.080,-0.225
1677,-0.105,-0.265
1678,-0.105,-0.305
1679,-0.130,-0.295
1680,-0.135,-0.315
1681,-0.115,-0.325
1682,-0.135,-0.365
1683,-0.120,-0.320
1684,-0.120,-0.335
1685,-0.120,-0.330
1686,-0.150,-0.340
1687,-0.110,-0.325
1688,-0.135,-0.345
1689,-0.115,-0.340
1690,-0.125,-0.310
1691,-0.135,-0.360
1692,-0.130,-0.345
1693,-0.130,-0.340
1694,-0.135,-0.325
1695,-0.125,-0.335
1696,-0.145,-0.315
1697,-0.135,-0.325
1698,-0.135,-0.345
1699,-0.135,-0.365
1700,-0.130,-0.345
1701,-0.135,-0.350
1702,-0.145,-0.350
1703,-0.140,-0.340
1704,-0.130,-0.340
1705,-0.160,-0.355
1706,-0.165,-0.365
1707,-0.145,-0.340
1708,-0.140,-0.360
1709,-0.140,-0.360
1710,-0.165,-0.360
1711,-0.150,-0.340
1712,-0.165,-0.335
1713,-0.140,-0.360
1714,-0.155,-0.360
1715,-0.155,-0.350
1716,-0.145,-0.355
1717,-0.145,-0.360
1718,-0.160,-0.350
1719,-0.155,-0.345
1720,-0.160,-0.350
1721,-0.140,-0.340
1722,-0.140,-0.355
1723,-0.145,-0.350
1724,-0.130,-0.365
1725,-0.140,-0.365
1726,-0.160,-0.370
1727,-0.160,-0.345
1728,-0.160,-0.375
1729,-0.150,-0.360
1730,-0.160,-0.355
1731,-0.140,-0.350
1732,-0.155,-0.380
1733,-0.165,-0.375
1734,-0.155,-0.375
1735,-0.140,-0.365
1736,-0.140,-0.355
1737,-0.155,-0.360
1738,-0.155,-0.330
1739,-0.130,-0.295
1740,-0.110,-0.295
1741,-0.105,-0.295
1742,-0.080,-0.230
1743,-0.075,-0.225
1744,-0.085,-0.260
1745,-0.110,-0.265
1746,-0.150,-0.300
1747,-0.160,-0.270
1748,-0.185,-0.275
1749,-0.180,-0.290
1750,-0.165,-0.355
1751,-0.170,-0.415
1752,-0.170,-0.420
1753,-0.170,-0.420
1754,-0.175,-0.415
1755,-0.190,-0.425
1756,-0.180,-0.440
1757,-0.165,-0.470
1758,-0.175,-0.575
1759,-0.165,-0.555
1760,-0.160,0.010
1761,-0.075,0.940
1762,0.045,1.940
1763,0.055,1.945
1764,0.000,0.780
1765,-0.210,-0.025
1766,-0.390,-0.270
1767,-0.370,-0.345
1768,-0.215,-0.440
1769,-0.155,-0.515
1770,-0.155,-0.545
1771,-0.130,-0.560
1772,-0.145,-0.565
1773,-0.120,-0.580
1774,-0.110,-0.575
1775,-0.120,-0.580
1776,-0.125,-0.575
1777,-0.110,-0.590
1778,-0.110,-0.585
1779,-0.100,-0.600
1780,-0.105,-0.585
1781,-0.090,-0.560
1782,-0.090,-0.595
1783,-0.065,-0.580
1784,-0.080,-0.545
1785,-0.060,-0.540
1786,-0.060,-0.540
1787,-0.035,-0.505
1788,-0.030,-0.535
1789,-0.005,-0.510
1790,0.000,-0.495
1791,0.020,-0.455
1792,0.045,-0.455
1793,0.055,-0.470
1794,0.085,-0.445
1795,0.110,-0.440
1796,0.105,-0.420
1797,0.135,-0.430
1798,0.130,-0.430
1799,0.115,-0.400
1800,0.105,-0.415
1801,0.105,-0.400
1802,0.085,-0.370
1803,0.060,-0.325
1804,0.035,-0.315
1805,0.030,-0.320
1806,-0.015,-0.315
1807,-0.035,-0.345
1808,-0.035,-0.335
1809,-0.055,-0.360
1810,-0.075,-0.365
1811,-0.060,-0.380
1812,-0.055,-0.390
1813,-0.055,-0.420
1814,-0.065,-0.425
1815,-0.080,-0.420
1816,-0.050,-0.420
1817,-0.065,-0.400
1818,-0.050,-0.390
1819,-0.050,-0.385
1820,-0.045,-0.420
1821,-0.040,-0.405
1822,-0.045,-0.390
1823,-0.040,-0.395
1824,-0.045,-0.405
1825,-0.045,-0.410
1826,-0.045,-0.410
1827,-0.050,-0.385
1828,-0.050,-0.405
1829,-0.055,-0.415
1830,-0.060,-0.435
1831,-0.050,-0.435
1832,-0.075,-0.440
1833,-0.065,-0.425
1834,-0.080,-0.435
1835,-0.070,-0.455
1836,-0.070,-0.455
1837,-0.085,-0.450
1838,-0.065,-0.450
1839,-0.070,-0.430
1840,-0.090,-0.460
1841,-0.095,-0.435
1842,-0.095,-0.465
1843,-0.065,-0.450
1844,-0.085,-0.440
1845,-0.060,-0.405
1846,-0.035,-0.375
1847,-0.010,-0.345
1848,0.000,-0.330
1849,0.000,-0.325
1850,-0.005,-0.325
1851,-0.035,-0.330
1852,-0.080,-0.390
1853,-0.080,-0.360
1854,-0.095,-0.370
1855,-0.090,-0.390
1856,-0.075,-0.465
1857,-0.065,-0.505
1858,-0.075,-0.515
1859,-0.075,-0.505
1860,-0.070,-0.505
1861,-0.085,-0.500
1862,-0.090,-0.505
1863,-0.075,-0.500
1864,-0.085,-0.565
1865,-0.080,-0.680
1866,-0.060,-0.425
1867,-0.025,0.385
1868,0.120,1.500
1869,0.200,2.150
1870,0.135,1.350
1871,-0.040,0.195
1872,-0.300,-0.300
1873,-0.365,-0.385
1874,-0.220,-0.460
1875,-0.095,-0.515
1876,-0.060,-0.570
1877,-0.065,-0.590
1878,-0.040,-0.620
1879,-0.045,-0.610
1880,-0.040,-0.610
1881,-0.045,-0.590
1882,-0.020,-0.600
1883,-0.045,-0.590
1884,-0.045,-0.620
1885,-0.025,-0.590
1886,-0.040,-0.585
1887,-0.020,-0.590
1888,-0.025,-0.585
1889,-0.010,-0.565
1890,0.000,-0.560
1891,0.015,-0.540
1892,0.035,-0.540
1893,0.035,-0.525
1894,0.050,-0.515
1895,0.070,-0.480
1896,0.080,-0.455
1897,0.095,-0.440
1898,0.115,-0.430
1899,0.135,-0.390
1900,0.155,-0.390
1901,0.180,-0.340
1902,0.215,-0.330
1903,0.215,-0.320
1904,0.235,-0.300
1905,0.245,-0.280
1906,0.220,-0.275
1907,0.195,-0.255
1908,0.175,-0.250
1909,0.135,-0.255
1910,0.105,-0.270
1911,0.060,-0.310
1912,0.040,-0.340
1913,0.020,-0.370
1914,0.010,-0.400
1915,-0.020,-0.430
1916,-0.030,-0.435
1917,-0.035,-0.435
1918,-0.015,-0.475
1919,-0.020,-0.470
1920,-0.020,-0.485
1921,-0.015,-0.470
1922,-0.030,-0.485
1923,-0.010,-0.470
1924,-0.010,-0.470
1925,-0.020,-0.465
1926,-0.010,-0.470
1927,0.000,-0.480
1928,-0.010,-0.480
1929,-0.040,-0.480
1930,-0.020,-0.475
1931,-0.015,-0.480
1932,-0.015,-0.470
1933,-0.010,-0.480
1934,-0.035,-0.475
1935,-0.010,-0.470
1936,-0.015,-0.455
1937,-0.015,-0.465
1938,-0.015,-0.480
1939,-0.015,-0.480
1940,-0.005,-0.450
1941,-0.030,-0.445
1942,-0.020,-0.455
1943,-0.010,-0.445
1944,-0.015,-0.440
1945,-0.015,-0.465
1946,-0.020,-0.450
1947,-0.020,-0.430
1948,-0.020,-0.430
1949,0.000,-0.425
1950,-0.005,-0.410
1951,-0.020,-0.435
1952,-0.010,-0.435
1953,0.000,-0.380
1954,0.000,-0.370
1955,0.035,-0.360
1956,0.045,-0.330
1957,0.075,-0.290
1958,0.090,-0.280
1959,0.060,-0.275
1960,0.030,-0.330
1961,-0.005,-0.350
1962,-0.020,-0.315
1963,-0.020,-0.335
1964,-0.020,-0.340
1965,0.000,-0.430
1966,0.000,-0.480
1967,0.000,-0.465
1968,-0.005,-0.460
1969,-0.005,-0.450
1970,-0.005,-0.465
1971,-0.010,-0.460
1972,-0.020,-0.465
1973,-0.015,-0.560
1974,0.010,-0.640
1975,0.000,-0.130
1976,0.090,0.860
1977,0.250,1.910
1978,0.225,1.965
1979,0.155,0.715
1980,-0.090,-0.050
1981,-0.275,-0.245
1982,-0.190,-0.345
1983,-0.020,-0.420
1984,0.000,-0.490
1985,0.020,-0.535
1986,0.045,-0.510
1987,0.030,-0.500
1988,0.060,-0.545
1989,0.035,-0.525
1990,0.035,-0.545
1991,0.040,-0.525
1992,0.045,-0.515
1993,0.055,-0.530
1994,0.045,-0.510
1995,0.070,-0.525
1996,0.070,-0.515
1997,0.085,-0.505
1998,0.075,-0.485
1999,0.100,-0.455
2000,0.080,-0.450
2001,0.105,-0.460
2002,0.115,-0.425
2003,0.120,-0.435
2004,0.135,-0.390
2005,0.155,-0.375
2006,0.155,-0.360
2007,0.180,-0.340
2008,0.215,-0.305
2009,0.220,-0.300
2010,0.225,-0.270
2011,0.240,-0.275
2012,0.235,-0.225
2013,0.270,-0.205
2014,0.250,-0.175
2015,0.245,-0.175
2016,0.215,-0.160
2017,0.185,-0.170
2018,0.140,-0.220
2019,0.100,-0.220
2020,0.075,-0.265
2021,0.050,-0.295
2022,0.030,-0.315
2023,0.020,-0.350
2024,0.005,-0.365
2025,0.015,-0.380
2026,-0.005,-0.405
2027,0.000,-0.375
2028,0.005,-0.390
2029,0.010,-0.405
2030,0.020,-0.405
2031,0.010,-0.395
2032,0.000,-0.400
2033,0.015,-0.395
2034,0.015,-0.405
2035,0.020,-0.400
2036,0.005,-0.415
2037,0.000,-0.400
2038,0.010,-0.400
2039,0.010,-0.410
2040,0.015,-0.405
2041,0.000,-0.390
2042,0.010,-0.400
2043,0.010,-0.420
2044,0.000,-0.400
2045,0.005,-0.400
2046,0.010,-0.410
2047,0.010,-0.395
2048,0.005,-0.405
2049,-0.010,-0.420
2050,0.000,-0.400
2051,0.010,-0.395
2052,0.005,-0.420
2053,0.000,-0.450
2054,0.005,-0.410
2055,0.000,-0.375
2056,-0.010,-0.405
2057,-0.005,-0.390
2058,-0.005,-0.405
2059,0.010,-0.380
2060,0.005,-0.320
2061,0.030,-0.325
2062,0.070,-0.290
2063,0.075,-0.235
2064,0.065,-0.235
2065,0.045,-0.275
2066,0.030,-0.315
2067,0.000,-0.315
2068,0.000,-0.290
2069,-0.020,-0.275
2070,0.020,-0.340
2071,0.015,-0.400
2072,0.020,-0.405
2073,0.000,-0.400
2074,-0.010,-0.405
2075,0.010,-0.435
2076,0.015,-0.425
2077,0.015,-0.410
2078,0.025,-0.430
2079,0.015,-0.560
2080,0.040,-0.490
2081,0.055,0.185
2082,0.155,1.275
2083,0.290,2.140
2084,0.260,1.500
2085,0.105,0.285
2086,-0.175,-0.190
2087,-0.250,-0.270
2088,-0.075,-0.320
2089,0.015,-0.405
2090,0.015,-0.460
2091,0.035,-0.460
2092,0.035,-0.475
2093,0.045,-0.470
2094,0.030,-0.495
2095,0.035,-0.485
2096,0.035,-0.485
2097,0.045,-0.495
2098,0.045,-0.475
2099,0.065,-0.465
2100,0.070,-0.460
2101,0.075,-0.465
2102,0.090,-0.430
2103,0.090,-0.435
2104,0.100,-0.425
2105,0.110,-0.405
2106,0.135,-0.385
2107,0.130,-0.380
2108,0.125,-0.355
2109,0.140,-0.325
2110,0.170,-0.315
2111,0.185,-0.280
2112,0.205,-0.265
2113,0.235,-0.240
2114,0.240,-0.230
2115,0.260,-0.200
2116,0.275,-0.160
2117,0.280,-0.155
2118,0.285,-0.120
2119,0.285,-0.090
2120,0.260,-0.070
2121,0.235,-0.075
2122,0.210,-0.100
2123,0.185,-0.130
2124,0.170,-0.170
2125,0.145,-0.185
2126,0.110,-0.215
2127,0.080,-0.245
2128,0.080,-0.280
2129,0.090,-0.290
2130,0.060,-0.295
2131,0.050,-0.315
2132,0.050,-0.315
2133,0.050,-0.340
2134,0.065,-0.330
2135,0.055,-0.325
2136,0.050,-0.300
2137,0.055,-0.350
2138,0.045,-0.345
2139,0.050,-0.360
2140,0.050,-0.345
2141,0.035,-0.370
2142,0.045,-0.360
2143,0.050,-0.340
2144,0.040,-0.345
2145,0.045,-0.350
2146,0.030,-0.335
2147,0.045,-0.330
2148,0.030,-0.330
2149,0.030,-0.340
2150,0.020,-0.345
2151,0.020,-0.355
2152,0.015,-0.355
2153,0.010,-0.370
2154,0.020,-0.370
2155,0.025,-0.360
2156,0.015,-0.350
2157,0.005,-0.355
2158,0.040,-0.365
2159,0.025,-0.375
2160,0.030,-0.380
2161,0.010,-0.385
2162,0.035,-0.370
2163,0.030,-0.355
2164,0.025,-0.360
2165,0.030,-0.370
2166,0.010,-0.380
2167,0.025,-0.330
2168,0.040,-0.305
2169,0.060,-0.280
2170,0.085,-0.265
2171,0.110,-0.230
2172,0.120,-0.210
2173,0.100,-0.250
2174,0.065,-0.270
2175,0.030,-0.295
2176,0.010,-0.275
2177,0.000,-0.275
2178,0.000,-0.280
2179,0.005,-0.330
2180,0.005,-0.390
2181,0.030,-0.390
2182,0.020,-0.380
2183,0.020,-0.395
2184,0.025,-0.385
2185,0.010,-0.395
2186,0.015,-0.410
2187,0.010,-0.465
2188,0.035,-0.610
2189,0.040,-0.310
2190,0.075,0.545
2191,0.210,1.680
2192,0.265,2.355
2193,0.205,1.440
2194,0.025,0.275
2195,-0.230,-0.170
2196,-0.265,-0.250
2197,-0.045,-0.315
2198,0.020,-0.380
2199,0.055,-0.430
2200,0.060,-0.440
2201,0.060,-0.455
2202,0.070,-0.465
2203,0.070,-0.455
2204,0.065,-0.435
2205,0.095,-0.450
2206,0.095,-0.425
2207,0.095,-0.440
2208,0.090,-0.420
2209,0.110,-0.420
2210,0.110,-0.410
2211,0.120,-0.400
2212,0.135,-0.395
2213,0.160,-0.385
2214,0.150,-0.370
2215,0.140,-0.360
2216,0.175,-0.355
2217,0.170,-0.320
2218,0.200,-0.315
2219,0.200,-0.305
2220,0.235,-0.260
2221,0.255,-0.245
2222,0.275,-0.235
2223,0.305,-0.215
2224,0.300,-0.155
2225,0.325,-0.135
2226,0.350,-0.125
2227,0.335,-0.100
2228,0.345,-0.100
2229,0.340,-0.075
2230,0.325,-0.035
2231,0.320,-0.015
2232,0.285,-0.050
2233,0.245,-0.060
2234,0.200,-0.110
2235,0.185,-0.140
2236,0.155,-0.160
2237,0.130,-0.200
2238,0.120,-0.240
2239,0.115,-0.260
2240,0.080,-0.260
2241,0.095,-0.285
2242,0.085,-0.285
2243,0.080,-0.295
2244,0.090,-0.285
2245,0.065,-0.300
2246,0.070,-0.290
2247,0.075,-0.310
2248,0.080,-0.295
2249,0.090,-0.315
2250,0.070,-0.310
2251,0.105,-0.300
2252,0.090,-0.290
2253,0.090,-0.310
2254,0.085,-0.275
2255,0.060,-0.300
2256,0.080,-0.295
2257,0.085,-0.310
2258,0.060,-0.305
2259,0.060,-0.315
2260,0.070,-0.320
2261,0.070,-0.320
2262,0.070,-0.305
2263,0.065,-0.315
2264,0.050,-0.305
2265,0.070,-0.295
2266,0.055,-0.300
2267,0.035,-0.295
2268,0.035,-0.305
2269,0.040,-0.300
2270,0.035,-0.310
2271,0.035,-0.295
2272,0.040,-0.310
2273,0.035,-0.315
2274,0.040,-0.320
2275,0.035,-0.310
2276,0.015,-0.305
2277,0.015,-0.310
2278,0.015,-0.295
2279,0.030,-0.270
2280,0.020,-0.230
2281,0.050,-0.225
2282,0.090,-0.205
2283,0.095,-0.170
2284,0.110,-0.170
2285,0.100,-0.140
2286,0.065,-0.205
2287,0.055,-0.230
2288,0.030,-0.245
2289,0.035,-0.255
2290,0.030,-0.245
2291,0.025,-0.275
2292,0.045,-0.335
2293,0.035,-0.365
2294,0.035,-0.365
2295,0.015,-0.370
2296,0.005,-0.350
2297,0.010,-0.365
2298,0.015,-0.370
2299,0.030,-0.375
2300,0.010,-0.495
2301,0.040,-0.500
2302,0.060,0.110
2303,0.145,1.200
2304,0.300,2.305
2305,0.275,2.245
2306,0.140,0.890
2307,-0.075,0.030
2308,-0.255,-0.190
2309,-0.155,-0.255
2310,-0.005,-0.335
2311,0.050,-0.370
2312,0.055,-0.380
2313,0.050,-0.405
2314,0.065,-0.410
2315,0.095,-0.405
2316,0.060,-0.395
2317,0.055,-0.380
2318,0.060,-0.435
2319,0.085,-0.430
2320,0.080,-0.410
2321,0.055,-0.385
2322,0.080,-0.400
2323,0.125,-0.390
2324,0.095,-0.405
2325,0.085,-0.370
2326,0.110,-0.400
2327,0.125,-0.390
2328,0.140,-0.370
2329,0.155,-0.365
2330,0.180,-0.310
2331,0.185,-0.290
2332,0.220,-0.245
2333,0.235,-0.265
2334,0.240,-0.200
2335,0.270,-0.150
2336,0.305,-0.105
2337,0.330,-0.085
2338,0.350,-0.035
2339,0.375,-0.045
2340,0.345,-0.030
2341,0.360,0.005
2342,0.340,0.005
2343,0.340,0.030
2344,0.295,0.060
2345,0.260,0.020
2346,0.240,-0.090
2347,0.190,-0.115
2348,0.200,-0.145
2349,0.155,-0.100
2350,0.080,-0.120
2351,0.080,-0.195
2352,0.090,-0.250
2353,0.080,-0.285
2354,0.075,-0.270
2355,0.080,-0.315
2356,0.075,-0.305
2357,0.080,-0.295
2358,0.060,-0.300
2359,0.080,-0.280
2360,0.065,-0.290
2361,0.070,-0.325
2362,0.070,-0.325
2363,0.090,-0.325
2364,0.085,-0.280
2365,0.095,-0.270
2366,0.065,-0.340
2367,0.060,-0.350
2368,0.070,-0.315
2369,0.060,-0.295
2370,0.080,-0.305
2371,0.040,-0.330
2372,0.040,-0.340
2373,0.045,-0.315
2374,0.035,-0.310
2375,0.055,-0.310
2376,0.040,-0.310
2377,0.050,-0.325
2378,0.050,-0.325
2379,0.040,-0.310
2380,0.045,-0.315
2381,0.045,-0.360
2382,0.045,-0.325
2383,0.030,-0.290
2384,0.035,-0.295
2385,0.045,-0.305
2386,0.070,-0.330
2387,0.035,-0.330
2388,0.030,-0.300
2389,0.025,-0.320
2390,0.025,-0.355
2391,0.030,-0.375
2392,0.040,-0.350
2393,0.025,-0.290
2394,0.025,-0.215
2395,0.035,-0.280
2396,0.050,-0.285
2397,0.085,-0.160
2398,0.075,-0.165
2399,0.080,-0.245
2400,0.045,-0.290
2401,0.015,-0.285
2402,-0.005,-0.275
2403,0.000,-0.245
2404,0.000,-0.250
2405,0.015,-0.325
2406,0.025,-0.380
2407,0.000,-0.375
2408,-0.010,-0.380
2409,-0.010,-0.385
2410,-0.005,-0.390
2411,0.010,-0.390
2412,-0.010,-0.375
2413,-0.020,-0.455
2414,-0.005,-0.545
2415,0.000,-0.175
2416,0.075,0.845
2417,0.220,2.060
2418,0.245,2.515
2419,0.155,1.355
2420,-0.085,0.230
2421,-0.300,-0.145
2422,-0.255,-0.255
2423,-0.085,-0.360
2424,0.005,-0.405
2425,0.030,-0.450
2426,0.025,-0.430
2427,0.030,-0.450
2428,0.055,-0.460
2429,0.060,-0.445
2430,0.060,-0.455
2431,0.050,-0.435
2432,0.085,-0.460
2433,0.070,-0.455
2434,0.060,-0.430
2435,0.095,-0.440
2436,0.090,-0.435
2437,0.105,-0.395
2438,0.095,-0.380
2439,0.105,-0.395
2440,0.130,-0.415
2441,0.120,-0.410
2442,0.140,-0.375
2443,0.140,-0.325
2444,0.165,-0.330
2445,0.185,-0.305
2446,0.200,-0.275
2447,0.250,-0.200
2448,0.255,-0.190
2449,0.275,-0.205
2450,0.290,-0.155
2451,0.330,-0.110
2452,0.330,-0.090
2453,0.340,-0.075
2454,0.340,-0.010
2455,0.315,-0.030
2456,0.300,0.000
2457,0.265,-0.015
2458,0.240,-0.065
2459,0.215,-0.060
2460,0.165,-0.085
2461,0.140,-0.120
2462,0.115,-0.180
2463,0.105,-0.200
2464,0.110,-0.210
2465,0.095,-0.225
2466,0.085,-0.255
2467,0.085,-0.285
2468,0.090,-0.280
2469,0.080,-0.280
2470,0.075,-0.270
2471,0.090,-0.290
2472,0.085,-0.270
2473,0.080,-0.275
2474,0.060,-0.305
2475,0.065,-0.285
2476,0.050,-0.285
2477,0.060,-0.285
2478,0.065,-0.260
2479,0.080,-0.250
2480,0.070,-0.285
2481,0.070,-0.280
2482,0.070,-0.250
2483,0.065,-0.255
2484,0.075,-0.275
2485,0.065,-0.260
2486,0.060,-0.260
2487,0.070,-0.275
2488,0.045,-0.275
2489,0.040,-0.270
2490,0.050,-0.260
2491,0.050,-0.280
2492,0.045,-0.275
2493,0.035,-0.265
2494,0.050,-0.270
2495,0.055,-0.280
2496,0.070,-0.290
2497,0.035,-0.245
2498,0.025,-0.240
2499,0.045,-0.225
2500,0.040,-0.270
2501,0.035,-0.240
2502,0.040,-0.265
2503,0.045,-0.255
2504,0.035,-0.260
2505,0.035,-0.225
2506,0.060,-0.170
2507,0.070,-0.170
2508,0.115,-0.165
2509,0.130,-0.100
2510,0.145,-0.085
2511,0.125,-0.100
2512,0.090,-0.160
2513,0.050,-0.170
2514,0.040,-0.150
2515,0.020,-0.150
2516,0.015,-0.155
2517,0.050,-0.255
2518,0.065,-0.290
2519,0.025,-0.285
2520,0.040,-0.320
2521,0.045,-0.310
2522,0.020,-0.310
2523,0.030,-0.295
2524,0.035,-0.295
2525,0.020,-0.335
2526,0.020,-0.445
2527,0.050,-0.195
2528,0.075,0.660
2529,0.220,1.775
2530,0.300,2.440
2531,0.190,1.485
2532,0.000,0.330
2533,-0.250,-0.120
2534,-0.270,-0.200
2535,-0.090,-0.260
2536,0.030,-0.335
2537,0.035,-0.355
2538,0.065,-0.400
2539,0.050,-0.380
2540,0.075,-0.390
2541,0.050,-0.380
2542,0.070,-0.405
2543,0.080,-0.385
2544,0.075,-0.355
2545,0.075,-0.365
2546,0.080,-0.405
2547,0.095,-0.410
2548,0.100,-0.375
2549,0.090,-0.365
2550,0.115,-0.355
2551,0.105,-0.325
2552,0.130,-0.305
2553,0.140,-0.315
2554,0.155,-0.310
2555,0.155,-0.270
2556,0.185,-0.270
2557,0.180,-0.230
2558,0.205,-0.230
2559,0.225,-0.210
2560,0.260,-0.175
2561,0.245,-0.175
2562,0.290,-0.140
2563,0.305,-0.125
2564,0.310,-0.130
2565,0.320,-0.085
2566,0.325,-0.055
2567,0.315,-0.035
2568,0.300,-0.025
2569,0.285,-0.005
2570,0.215,-0.030
2571,0.205,-0.035
2572,0.185,-0.075
2573,0.165,-0.090
2574,0.135,-0.145
2575,0.105,-0.170
2576,0.115,-0.195
2577,0.075,-0.215
2578,0.065,-0.220
2579,0.050,-0.220
2580,0.085,-0.255
2581,0.075,-0.225
2582,0.080,-0.205
2583,0.085,-0.255
2584,0.085,-0.245
2585,0.080,-0.215
2586,0.085,-0.240
2587,0.090,-0.240
2588,0.080,-0.255
2589,0.090,-0.240
2590,0.080,-0.230
2591,0.080,-0.240
2592,0.085,-0.235
2593,0.095,-0.225
2594,0.085,-0.200
2595,0.090,-0.210
2596,0.090,-0.215
2597,0.075,-0.260
2598,0.090,-0.255
2599,0.085,-0.210
2600,0.075,-0.210
2601,0.080,-0.250
2602,0.065,-0.215
2603,0.080,-0.225
2604,0.065,-0.255
2605,0.080,-0.240
2606,0.065,-0.240
2607,0.060,-0.235
2608,0.070,-0.240
2609,0.045,-0.235
2610,0.060,-0.220
2611,0.070,-0.240
2612,0.050,-0.275
2613,0.050,-0.260
2614,0.070,-0.280
2615,0.045,-0.255
2616,0.050,-0.215
2617,0.055,-0.180
2618,0.055,-0.200
2619,0.085,-0.160
2620,0.120,-0.120
2621,0.125,-0.105
2622,0.140,-0.080
2623,0.095,-0.110
2624,0.070,-0.150
2625,0.035,-0.185
2626,0.015,-0.140
2627,0.030,-0.150
2628,0.050,-0.225
2629,0.055,-0.300
2630,0.035,-0.335
2631,0.035,-0.310
2632,0.055,-0.295
2633,0.035,-0.320
2634,0.025,-0.300
2635,0.030,-0.305
2636,0.035,-0.360
2637,0.050,-0.400
2638,0.055,-0.190
2639,0.100,0.550
2640,0.240,1.530
2641,0.350,2.250
2642,0.285,1.535
2643,0.145,0.365
2644,-0.115,-0.105
2645,-0.235,-0.140
2646,-0.100,-0.200
2647,0.020,-0.290
2648,0.055,-0.295
2649,0.050,-0.335
2650,0.050,-0.370
2651,0.050,-0.375
2652,0.060,-0.365
2653,0.055,-0.355
2654,0.060,-0.365
2655,0.065,-0.360
2656,0.060,-0.370
2657,0.070,-0.370
2658,0.085,-0.345
2659,0.070,-0.325
2660,0.095,-0.315
2661,0.080,-0.300
2662,0.100,-0.305
2663,0.085,-0.310
2664,0.100,-0.290
2665,0.115,-0.240
2666,0.110,-0.225
2667,0.125,-0.215
2668,0.150,-0.160
2669,0.175,-0.175
2670,0.185,-0.170
2671,0.200,-0.165
2672,0.210,-0.115
2673,0.230,-0.070
2674,0.255,-0.085
2675,0.265,-0.055
2676,0.260,-0.060
2677,0.270,-0.070
2678,0.250,-0.020
2679,0.250,-0.005
2680,0.240,-0.025
2681,0.190,0.000
2682,0.170,-0.030
2683,0.140,-0.065
2684,0.130,-0.125
2685,0.080,-0.135
2686,0.095,-0.145
2687,0.085,-0.145
2688,0.060,-0.165
2689,0.040,-0.225
2690,0.035,-0.225
2691,0.045,-0.195
2692,0.030,-0.195
2693,0.035,-0.190
2694,0.050,-0.210
2695,0.055,-0.205
2696,0.035,-0.210
2697,0.065,-0.215
2698,0.050,-0.140
2699,0.050,-0.150
2700,0.055,-0.185
2701,0.050,-0.175
2702,0.055,-0.170
2703,0.050,-0.195
2704,0.035,-0.200
2705,0.030,-0.200
2706,0.040,-0.200
2707,0.045,-0.170
2708,0.030,-0.185
2709,0.035,-0.195
2710,0.035,-0.200
2711,0.030,-0.205
2712,0.035,-0.220
2713,0.025,-0.175
2714,0.045,-0.195
2715,0.020,-0.160
2716,0.025,-0.165
2717,0.030,-0.170
2718,0.040,-0.185
2719,0.045,-0.165
2720,0.040,-0.160
2721,0.040,-0.165
2722,0.040,-0.170
2723,0.050,-0.190
2724,0.070,-0.190
2725,0.060,-0.175
2726,0.035,-0.165
2727,0.065,-0.170
2728,0.070,-0.145
2729,0.055,-0.140
2730,0.070,-0.080
2731,0.085,-0.055
2732,0.100,-0.045
2733,0.110,-0.015
2734,0.145,-0.020
2735,0.110,-0.050
2736,0.070,-0.070
2737,0.030,-0.060
2738,0.025,-0.045
2739,0.055,-0.015
2740,0.030,-0.050
2741,0.060,-0.165
2742,0.055,-0.200
2743,0.040,-0.190
2744,0.045,-0.165
2745,0.050,-0.180
2746,0.045,-0.180
2747,0.045,-0.175
2748,0.060,-0.155
2749,0.045,-0.245
2750,0.050,-0.355
2751,0.085,0.045
2752,0.125,1.060
2753,0.285,2.250
2754,0.310,2.755
2755,0.235,1.575
2756,0.010,0.470
2757,-0.240,0.020
2758,-0.205,-0.055
2759,-0.040,-0.115
2760,0.045,-0.175
2761,0.070,-0.230
2762,0.060,-0.245
2763,0.080,-0.275
2764,0.075,-0.255
2765,0.100,-0.280
2766,0.095,-0.270
2767,0.080,-0.270
2768,0.095,-0.260
2769,0.100,-0.250
2770,0.105,-0.265
2771,0.090,-0.295
2772,0.100,-0.240
2773,0.115,-0.220
2774,0.120,-0.215
2775,0.135,-0.180
2776,0.130,-0.225
2777,0.155,-0.195
2778,0.165,-0.160
2779,0.180,-0.170
2780,0.185,-0.130
2781,0.205,-0.120
2782,0.210,-0.140
2783,0.230,-0.145
2784,0.270,-0.095
2785,0.270,-0.085
2786,0.280,-0.050
2787,0.305,-0.040
2788,0.315,-0.025
2789,0.325,-0.010
2790,0.300,0.005
2791,0.310,0.055
2792,0.290,0.065
2793,0.265,0.035
2794,0.255,0.015
2795,0.220,0.010
2796,0.190,0.005
2797,0.155,0.000
2798,0.125,-0.055
2799,0.095,-0.090
2800,0.085,-0.090
2801,0.075,-0.115
2802,0.070,-0.140
2803,0.060,-0.140
2804,0.060,-0.135
2805,0.050,-0.150
2806,0.055,-0.155
2807,0.045,-0.180
2808,0.050,-0.175
2809,0.060,-0.160
2810,0.070,-0.185
2811,0.060,-0.205
2812,0.055,-0.200
2813,0.060,-0.200
2814,0.045,-0.175
2815,0.055,-0.165
2816,0.060,-0.170
2817,0.075,-0.155
2818,0.055,-0.170
2819,0.060,-0.170
2820,0.045,-0.180
2821,0.060,-0.185
2822,0.070,-0.165
2823,0.065,-0.165
2824,0.070,-0.180
2825,0.055,-0.185
2826,0.065,-0.150
2827,0.045,-0.185
2828,0.045,-0.180
2829,0.060,-0.175
2830,0.050,-0.155
2831,0.045,-0.165
2832,0.020,-0.165
2833,0.050,-0.205
2834,0.045,-0.190
2835,0.055,-0.170
2836,0.035,-0.180
2837,0.040,-0.185
2838,0.040,-0.185
2839,0.045,-0.175
2840,0.045,-0.165
2841,0.075,-0.150
2842,0.050,-0.135
2843,0.050,-0.145
2844,0.080,-0.115
2845,0.085,-0.080
2846,0.100,-0.040
2847,0.100,-0.025
2848,0.125,0.000
2849,0.145,0.000
2850,0.120,-0.025
2851,0.090,-0.045
2852,0.055,-0.060
2853,0.050,-0.060
2854,0.055,-0.035
2855,0.060,-0.045
2856,0.100,-0.120
2857,0.085,-0.155
2858,0.070,-0.180
2859,0.070,-0.220
2860,0.060,-0.210
2861,0.070,-0.200
2862,0.070,-0.200
2863,0.065,-0.190
2864,0.055,-0.235
2865,0.065,-0.340
2866,0.075,-0.225
2867,0.100,0.520
2868,0.230,1.645
2869,0.340,2.610
2870,0.285,2.210
2871,0.150,0.865
2872,-0.135,0.120
2873,-0.260,-0.060
2874,-0.130,-0.120
2875,0.020,-0.145
2876,0.060,-0.220
2877,0.095,-0.260
2878,0.105,-0.275
2879,0.115,-0.285
2880,0.110,-0.270
2881,0.095,-0.290
2882,0.095,-0.290
2883,0.120,-0.270
2884,0.110,-0.280
2885,0.120,-0.300
2886,0.110,-0.275
2887,0.120,-0.265
2888,0.140,-0.260
2889,0.145,-0.250
2890,0.155,-0.220
2891,0.130,-0.235
2892,0.155,-0.235
2893,0.170,-0.230
2894,0.180,-0.190
2895,0.190,-0.165
2896,0.205,-0.165
2897,0.225,-0.155
2898,0.225,-0.115
2899,0.270,-0.120
2900,0.295,-0.095
2901,0.295,-0.060
2902,0.310,-0.035
2903,0.335,-0.005
2904,0.345,-0.020
2905,0.355,-0.020
2906,0.355,0.015
2907,0.350,0.025
2908,0.320,0.070
2909,0.290,0.060
2910,0.265,0.055
2911,0.230,0.020
2912,0.210,0.015
2913,0.165,-0.005
2914,0.135,-0.035
2915,0.130,-0.060
2916,0.100,-0.120
2917,0.075,-0.145
2918,0.095,-0.125
2919,0.090,-0.140
2920,0.070,-0.175
2921,0.085,-0.160
2922,0.070,-0.155
2923,0.075,-0.175
2924,0.065,-0.205
2925,0.065,-0.195
2926,0.075,-0.190
2927,0.075,-0.180
2928,0.065,-0.160
2929,0.080,-0.180
2930,0.060,-0.185
2931,0.065,-0.150
2932,0.080,-0.175
2933,0.060,-0.175
2934,0.060,-0.170
2935,0.045,-0.165
2936,0.060,-0.175
2937,0.050,-0.200
2938,0.035,-0.185
2939,0.065,-0.165
2940,0.055,-0.155
2941,0.040,-0.180
2942,0.040,-0.200
2943,0.055,-0.195
2944,0.060,-0.180
2945,0.030,-0.180
2946,0.030,-0.195
2947,0.035,-0.185
2948,0.040,-0.195
2949,0.030,-0.210
2950,0.015,-0.200
2951,0.045,-0.220
2952,0.035,-0.180
2953,0.050,-0.190
2954,0.030,-0.210
2955,0.025,-0.230
2956,0.035,-0.210
2957,0.040,-0.200
2958,0.020,-0.205
2959,0.015,-0.215
2960,0.035,-0.175
2961,0.035,-0.135
2962,0.050,-0.125
2963,0.090,-0.100
2964,0.110,-0.055
2965,0.125,-0.065
2966,0.090,-0.070
2967,0.055,-0.105
2968,0.015,-0.110
2969,0.000,-0.120
2970,-0.005,-0.145
2971,0.035,-0.170
2972,0.035,-0.230
2973,0.025,-0.255
2974,0.025,-0.280
2975,0.035,-0.270
2976,0.025,-0.270
2977,0.010,-0.260
2978,0.025,-0.265
2979,0.030,-0.280
2980,0.035,-0.380
2981,0.045,-0.280
2982,0.080,0.380
2983,0.200,1.435
2984,0.325,2.340
2985,0.280,1.920
2986,0.115,0.620
2987,-0.140,0.000
2988,-0.275,-0.110
2989,-0.125,-0.180
2990,0.005,-0.255
2991,0.070,-0.275
2992,0.075,-0.315
2993,0.070,-0.330
2994,0.080,-0.345
2995,0.075,-0.345
2996,0.090,-0.360
2997,0.085,-0.340
2998,0.100,-0.335
2999,0.085,-0.320
3000,0.105,-0.345
3001,0.105,-0.320
3002,0.100,-0.305
3003,0.125,-0.295
3004,0.125,-0.265
3005,0.135,-0.275
3006,0.135,-0.275
3007,0.155,-0.285
3008,0.165,-0.270
3009,0.180,-0.235
3010,0.180,-0.240
3011,0.210,-0.235
3012,0.200,-0.190
3013,0.230,-0.185
3014,0.235,-0.155
3015,0.275,-0.130
3016,0.275,-0.150
3017,0.305,-0.140
3018,0.315,-0.120
3019,0.320,-0.085
3020,0.315,-0.055
3021,0.315,-0.065
3022,0.300,-0.030
3023,0.270,-0.010
3024,0.235,-0.015
3025,0.225,-0.040
3026,0.170,-0.065
3027,0.135,-0.100
3028,0.135,-0.110
3029,0.115,-0.145
3030,0.095,-0.170
3031,0.100,-0.200
3032,0.090,-0.225
3033,0.075,-0.225
3034,0.080,-0.230
3035,0.080,-0.250
3036,0.090,-0.250
3037,0.070,-0.260
3038,0.060,-0.230
3039,0.070,-0.240
3040,0.070,-0.250
3041,0.060,-0.245
3042,0.085,-0.260
3043,0.060,-0.250
3044,0.080,-0.260
3045,0.065,-0.280
3046,0.070,-0.260
3047,0.060,-0.265
3048,0.075,-0.260
3049,0.050,-0.235
3050,0.030,-0.300
3051,0.045,-0.290
3052,0.050,-0.240
3053,0.045,-0.305
3054,0.035,-0.330
3055,0.035,-0.310
3056,0.050,-0.295
3057,0.035,-0.290
3058,0.030,-0.295
3059,0.040,-0.285
3060,0.035,-0.305
3061,0.025,-0.310
3062,0.040,-0.285
3063,0.025,-0.315
3064,0.040,-0.320
3065,0.050,-0.300
3066,0.050,-0.295
3067,0.030,-0.310
3068,0.025,-0.280
3069,0.045,-0.235
3070,0.075,-0.225
3071,0.115,-0.225
3072,0.110,-0.200
3073,0.120,-0.185
3074,0.110,-0.160
3075,0.050,-0.240
3076,0.040,-0.240
3077,0.015,-0.225
3078,0.005,-0.250
3079,0.000,-0.280
3080,0.015,-0.320
3081,0.020,-0.355
3082,0.015,-0.395
3083,0.015,-0.395
3084,0.025,-0.390
3085,0.020,-0.355
3086,0.000,-0.360
3087,0.010,-0.375
3088,0.015,-0.455
3089,0.030,-0.395
3090,0.040,0.245
3091,0.160,1.215
3092,0.310,2.040
3093,0.295,1.660
3094,0.140,0.355
3095,-0.115,-0.210
3096,-0.285,-0.255
3097,-0.155,-0.340
3098,-0.010,-0.390
3099,0.035,-0.420
3100,0.035,-0.440
3101,0.040,-0.480
3102,0.040,-0.495
3103,0.055,-0.455
3104,0.060,-0.465
3105,0.065,-0.470
3106,0.060,-0.470
3107,0.080,-0.460
3108,0.075,-0.460
3109,0.085,-0.420
3110,0.095,-0.430
3111,0.105,-0.425
3112,0.105,-0.405
3113,0.115,-0.410
3114,0.115,-0.340
3115,0.135,-0.380
3116,0.130,-0.370
3117,0.160,-0.375
3118,0.170,-0.355
3119,0.165,-0.350
3120,0.180,-0.315
3121,0.210,-0.300
3122,0.220,-0.285
3123,0.235,-0.225
3124,0.240,-0.250
3125,0.250,-0.265
3126,0.265,-0.240
3127,0.260,-0.225
3128,0.270,-0.205
3129,0.245,-0.150
3130,0.245,-0.140
3131,0.225,-0.155
3132,0.190,-0.135
3133,0.180,-0.160
3134,0.160,-0.195
3135,0.115,-0.205
3136,0.115,-0.255
3137,0.100,-0.300
3138,0.100,-0.315
3139,0.085,-0.330
3140,0.065,-0.320
3141,0.050,-0.345
3142,0.060,-0.360
3143,0.070,-0.350
3144,0.060,-0.360
3145,0.070,-0.335
3146,0.060,-0.345
3147,0.060,-0.360
3148,0.065,-0.345
3149,0.055,-0.335
3150,0.055,-0.325
3151,0.045,-0.315
3152,0.040,-0.315
3153,0.045,-0.310
3154,0.045,-0.310
3155,0.045,-0.340
3156,0.035,-0.360
3157,0.035,-0.340
3158,0.055,-0.355
3159,0.035,-0.350
3160,0.060,-0.355
3161,0.045,-0.355
3162,0.045,-0.340
3163,0.030,-0.365
3164,0.020,-0.375
3165,0.035,-0.370
3166,0.025,-0.360
3167,0.030,-0.385
3168,0.025,-0.375
3169,0.015,-0.380
3170,0.025,-0.375
3171,0.000,-0.395
3172,0.005,-0.395
3173,0.020,-0.400
3174,0.015,-0.395
3175,0.005,-0.390
3176,0.020,-0.360
3177,0.040,-0.300
3178,0.040,-0.300
3179,0.065,-0.235
3180,0.085,-0.285
3181,0.070,-0.295
3182,0.035,-0.315
3183,0.015,-0.305
3184,0.000,-0.315
3185,-0.005,-0.310
3186,-0.010,-0.320
3187,0.000,-0.370
3188,0.015,-0.435
3189,0.010,-0.440
3190,0.000,-0.445
3191,0.010,-0.475
3192,0.000,-0.460
3193,0.005,-0.465
3194,0.000,-0.445
3195,0.010,-0.495
3196,0.000,-0.595
3197,0.030,-0.475
3198,0.055,0.240
3199,0.160,1.240
3200,0.310,2.130
3201,0.235,1.680
3202,0.095,0.390
3203,-0.160,-0.225
3204,-0.300,-0.315
3205,-0.175,-0.410
3206,-0.020,-0.475
3207,0.020,-0.520
3208,0.020,-0.530
3209,0.030,-0.550
3210,0.045,-0.545
3211,0.045,-0.560
3212,0.055,-0.530
3213,0.055,-0.540
3214,0.050,-0.535
3215,0.060,-0.560
3216,0.070,-0.535
3217,0.075,-0.510
3218,0.080,-0.510
3219,0.090,-0.510
3220,0.095,-0.500
3221,0.110,-0.490
3222,0.115,-0.465
3223,0.110,-0.475
3224,0.120,-0.490
3225,0.135,-0.445
3226,0.140,-0.445
3227,0.170,-0.400
3228,0.185,-0.380
3229,0.195,-0.385
3230,0.210,-0.350
3231,0.250,-0.325
3232,0.265,-0.320
3233,0.270,-0.295
3234,0.290,-0.290
3235,0.295,-0.290
3236,0.310,-0.260
3237,0.300,-0.220
3238,0.305,-0.220
3239,0.275,-0.205
3240,0.250,-0.235
3241,0.220,-0.215
3242,0.185,-0.220
3243,0.150,-0.230
3244,0.120,-0.255
3245,0.125,-0.280
3246,0.085,-0.310
3247,0.095,-0.320
3248,0.085,-0.345
3249,0.085,-0.380
3250,0.075,-0.380
3251,0.080,-0.365
3252,0.075,-0.380
3253,0.080,-0.380
3254,0.080,-0.370
3255,0.075,-0.380
3256,0.080,-0.360
3257,0.085,-0.380
3258,0.075,-0.355
3259,0.085,-0.345
3260,0.080,-0.375
3261,0.085,-0.345
3262,0.080,-0.350
3263,0.075,-0.350
3264,0.075,-0.360
3265,0.075,-0.365
3266,0.055,-0.385
3267,0.055,-0.365
3268,0.065,-0.370
3269,0.075,-0.375
3270,0.070,-0.350
3271,0.070,-0.380
3272,0.050,-0.395
3273,0.055,-0.390
3274,0.050,-0.380
3275,0.060,-0.390
3276,0.060,-0.380
3277,0.055,-0.380
3278,0.050,-0.385
3279,0.045,-0.380
3280,0.040,-0.390
3281,0.040,-0.400
3282,0.050,-0.375
3283,0.050,-0.385
3284,0.040,-0.410
3285,0.055,-0.375
3286,0.040,-0.365
3287,0.060,-0.300
3288,0.080,-0.295
3289,0.115,-0.270
3290,0.130,-0.260
3291,0.135,-0.245
3292,0.100,-0.260
3293,0.070,-0.280
3294,0.035,-0.315
3295,0.020,-0.315
3296,0.035,-0.305
3297,0.020,-0.330
3298,0.020,-0.400
3299,0.025,-0.440
3300,0.020,-0.430
3301,0.035,-0.440
3302,0.020,-0.445
3303,0.005,-0.435
3304,0.020,-0.450
3305,0.005,-0.455
3306,0.015,-0.520
3307,0.015,-0.595
3308,0.035,-0.145
3309,0.100,0.835
3310,0.260,1.945
3311,0.265,2.215
3312,0.165,0.980
3313,-0.050,0.030
3314,-0.275,-0.250
3315,-0.230,-0.355
3316,-0.060,-0.420
3317,0.030,-0.475
3318,0.035,-0.500
3319,0.030,-0.525
3320,0.040,-0.520
3321,0.040,-0.525
3322,0.045,-0.525
3323,0.060,-0.525
3324,0.070,-0.505
3325,0.065,-0.505
3326,0.065,-0.485
3327,0.075,-0.480
3328,0.085,-0.535
3329,0.075,-0.515
3330,0.085,-0.495
3331,0.090,-0.480
3332,0.115,-0.475
3333,0.105,-0.470
3334,0.120,-0.440
3335,0.125,-0.420
3336,0.140,-0.405
3337,0.160,-0.400
3338,0.175,-0.370
3339,0.175,-0.360
3340,0.190,-0.320
3341,0.240,-0.335
3342,0.245,-0.310
3343,0.285,-0.300
3344,0.295,-0.250
3345,0.295,-0.240
3346,0.310,-0.250
3347,0.305,-0.195
3348,0.290,-0.200
3349,0.280,-0.180
3350,0.245,-0.180
3351,0.225,-0.165
3352,0.175,-0.200
3353,0.145,-0.205
3354,0.125,-0.215
3355,0.105,-0.245
3356,0.095,-0.275
3357,0.070,-0.300
3358,0.045,-0.325
3359,0.040,-0.350
3360,0.050,-0.350
3361,0.035,-0.350
3362,0.025,-0.350
3363,0.045,-0.355
3364,0.055,-0.365
3365,0.050,-0.345
3366,0.055,-0.350
3367,0.050,-0.345
3368,0.045,-0.375
3369,0.055,-0.370
3370,0.060,-0.360
3371,0.070,-0.355
3372,0.050,-0.350
3373,0.050,-0.355
3374,0.050,-0.360
3375,0.030,-0.350
3376,0.055,-0.380
3377,0.065,-0.340
3378,0.045,-0.345
3379,0.045,-0.375
3380,0.040,-0.385
3381,0.030,-0.390
3382,0.025,-0.375
3383,0.040,-0.375
3384,0.045,-0.385
3385,0.035,-0.415
3386,0.020,-0.390
3387,0.045,-0.395
3388,0.005,-0.370
3389,0.020,-0.385
3390,0.040,-0.420
3391,0.040,-0.400
3392,0.025,-0.410
3393,0.015,-0.415
3394,0.020,-0.380
3395,0.060,-0.395
3396,0.040,-0.380
3397,0.050,-0.360
3398,0.050,-0.330
3399,0.060,-0.295
3400,0.085,-0.260
3401,0.085,-0.270
3402,0.105,-0.250
3403,0.055,-0.260
3404,0.025,-0.310
3405,0.005,-0.320
3406,0.005,-0.295
3407,0.000,-0.305
3408,0.015,-0.320
3409,0.020,-0.410
3410,0.010,-0.425
3411,0.000,-0.425
3412,0.000,-0.440
3413,0.000,-0.430
3414,-0.010,-0.390
3415,-0.025,-0.430
3416,-0.005,-0.455
3417,0.015,-0.545
3418,0.010,-0.575
3419,0.030,-0.095
3420,0.080,0.845
3421,0.230,1.830
3422,0.275,2.020
3423,0.165,0.845
3424,-0.040,-0.120
3425,-0.250,-0.375
3426,-0.235,-0.380
3427,-0.080,-0.425
3428,-0.010,-0.485
3429,-0.010,-0.520
3430,0.000,-0.540
3431,0.015,-0.550
3432,0.000,-0.550
3433,0.000,-0.550
3434,0.000,-0.560
3435,0.005,-0.560
3436,0.000,-0.555
3437,0.005,-0.545
3438,0.010,-0.540
3439,0.010,-0.520
3440,0.010,-0.515
3441,0.035,-0.510
3442,0.040,-0.490
3443,0.025,-0.485
3444,0.045,-0.470
3445,0.055,-0.465
3446,0.070,-0.460
3447,0.075,-0.430
3448,0.095,-0.420
3449,0.110,-0.410
3450,0.130,-0.395
3451,0.125,-0.365
3452,0.155,-0.360
3453,0.175,-0.350
3454,0.210,-0.330
3455,0.205,-0.305
3456,0.210,-0.275
3457,0.195,-0.295
3458,0.195,-0.255
3459,0.210,-0.270
3460,0.185,-0.225
3461,0.180,-0.210
3462,0.145,-0.230
3463,0.130,-0.250
3464,0.085,-0.260
3465,0.060,-0.280
3466,0.040,-0.315
3467,0.025,-0.350
3468,0.020,-0.350
3469,0.000,-0.395
3470,0.000,-0.435
3471,0.000,-0.435
3472,0.015,-0.430
3473,-0.005,-0.440
3474,-0.010,-0.410
3475,0.005,-0.410
3476,0.000,-0.425
3477,0.005,-0.420
3478,-0.005,-0.400
3479,0.005,-0.410
3480,-0.020,-0.415
3481,-0.020,-0.415
3482,0.000,-0.400
3483,0.000,-0.405
3484,-0.005,-0.395
3485,0.000,-0.395
3486,0.000,-0.420
3487,0.000,-0.420
3488,0.000,-0.395
3489,0.000,-0.410
3490,0.000,-0.420
3491,-0.010,-0.410
3492,0.000,-0.400
3493,0.000,-0.390
3494,0.000,-0.420
3495,-0.015,-0.385
3496,-0.010,-0.395
3497,-0.030,-0.395
3498,-0.010,-0.400
3499,-0.015,-0.415
3500,-0.020,-0.405
3501,-0.005,-0.440
3502,0.000,-0.430
3503,-0.010,-0.410
3504,-0.020,-0.380
3505,-0.010,-0.385
3506,-0.035,-0.380
3507,-0.010,-0.335
3508,0.000,-0.305
3509,0.015,-0.300
3510,0.045,-0.255
3511,0.030,-0.270
3512,0.020,-0.260
3513,-0.005,-0.315
3514,-0.050,-0.320
3515,-0.050,-0.295
3516,-0.065,-0.295
3517,-0.045,-0.310
3518,-0.035,-0.400
3519,-0.040,-0.415
3520,-0.050,-0.455
3521,-0.055,-0.420
3522,-0.060,-0.425
3523,-0.075,-0.455
3524,-0.070,-0.435
3525,-0.055,-0.475
3526,-0.070,-0.510
3527,-0.055,-0.625
3528,-0.045,-0.450
3529,-0.030,0.325
3530,0.095,1.390
3531,0.205,2.215
3532,0.155,1.585
3533,0.025,0.315
3534,-0.235,-0.220
3535,-0.380,-0.285
3536,-0.210,-0.395
3537,-0.075,-0.480
3538,-0.040,-0.510
3539,-0.035,-0.525
3540,-0.045,-0.505
3541,-0.045,-0.535
3542,-0.045,-0.540
3543,-0.025,-0.520
3544,-0.020,-0.535
3545,-0.040,-0.525
3546,-0.025,-0.505
3547,-0.005,-0.515
3548,0.005,-0.520
3549,0.025,-0.490
3550,-0.010,-0.500
3551,0.005,-0.490
3552,0.025,-0.495
3553,0.015,-0.475
3554,0.025,-0.465
3555,0.035,-0.465
3556,0.070,-0.440
3557,0.065,-0.435
3558,0.095,-0.415
3559,0.110,-0.385
3560,0.130,-0.345
3561,0.135,-0.320
3562,0.170,-0.300
3563,0.165,-0.300
3564,0.195,-0.290
3565,0.215,-0.265
3566,0.215,-0.255
3567,0.205,-0.235
3568,0.205,-0.190
3569,0.180,-0.195
3570,0.160,-0.195
3571,0.125,-0.205
3572,0.075,-0.235
3573,0.060,-0.275
3574,0.025,-0.305
3575,0.005,-0.335
3576,0.000,-0.355
3577,-0.005,-0.365
3578,-0.015,-0.385
3579,-0.025,-0.415
3580,-0.020,-0.420
3581,-0.015,-0.400
3582,-0.010,-0.415
3583,-0.030,-0.420
3584,0.010,-0.415
3585,-0.025,-0.440
3586,0.000,-0.425
3587,-0.020,-0.420
3588,-0.010,-0.425
3589,-0.020,-0.410
3590,-0.010,-0.415
3591,-0.010,-0.430
3592,-0.010,-0.420
3593,-0.010,-0.405
3594,-0.010,-0.425
3595,-0.020,-0.425
3596,-0.035,-0.420
3597,-0.015,-0.405
3598,-0.005,-0.410
3599,-0.030,-0.430
3600,-0.030,-0.440
3601,-0.025,-0.455
3602,-0.025,-0.440
3603,-0.020,-0.440
3604,-0.030,-0.415
3605,-0.020,-0.415
3606,0.000,-0.445
3607,-0.015,-0.435
3608,-0.040,-0.485
3609,-0.025,-0.445
3610,-0.010,-0.385
3611,-0.015,-0.410
3612,-0.030,-0.390
3613,-0.020,-0.360
3614,0.000,-0.345
3615,0.025,-0.320
3616,0.040,-0.295
3617,0.045,-0.255
3618,0.040,-0.260
3619,0.025,-0.305
3620,0.000,-0.310
3621,-0.025,-0.300
3622,-0.005,-0.325
3623,-0.015,-0.355
3624,0.005,-0.405
3625,0.010,-0.430
3626,-0.015,-0.425
3627,-0.020,-0.465
3628,-0.030,-0.440
3629,-0.015,-0.455
3630,0.000,-0.445
3631,-0.030,-0.460
3632,-0.020,-0.505
3633,0.000,-0.620
3634,0.000,-0.265
3635,0.045,0.700
3636,0.195,1.820
3637,0.240,2.230
3638,0.140,1.080
3639,-0.070,0.035
3640,-0.290,-0.250
3641,-0.260,-0.295
3642,-0.060,-0.390
3643,-0.010,-0.450
3644,0.005,-0.490
3645,0.005,-0.485
3646,0.010,-0.490
3647,0.025,-0.490
3648,0.040,-0.480
3649,0.020,-0.495
3650,0.025,-0.500
3651,0.030,-0.465
3652,0.050,-0.460
3653,0.045,-0.455
3654,0.035,-0.470
3655,0.065,-0.440
3656,0.070,-0.430
3657,0.070,-0.410
3658,0.085,-0.420
3659,0.060,-0.400
3660,0.105,-0.380
3661,0.100,-0.350
3662,0.120,-0.360
3663,0.140,-0.305
3664,0.150,-0.285
3665,0.180,-0.250
3666,0.200,-0.235
3667,0.220,-0.190
3668,0.230,-0.170
3669,0.230,-0.165
3670,0.245,-0.160
3671,0.265,-0.130
3672,0.255,-0.115
3673,0.255,-0.090
3674,0.245,-0.065
3675,0.205,-0.040
3676,0.180,-0.065
3677,0.165,-0.085
3678,0.115,-0.115
3679,0.090,-0.165
3680,0.065,-0.205
3681,0.045,-0.220
3682,0.025,-0.240
3683,0.015,-0.245
3684,0.010,-0.275
3685,-0.005,-0.300
3686,0.000,-0.305
3687,0.000,-0.305
3688,0.000,-0.305
3689,0.000,-0.340
3690,-0.005,-0.320
3691,0.000,-0.320
3692,0.000,-0.300
3693,-0.025,-0.290
3694,0.000,-0.315
3695,-0.005,-0.305
3696,-0.005,-0.310
3697,-0.005,-0.315
3698,-0.020,-0.300
3699,-0.015,-0.295
3700,-0.010,-0.310
3701,0.000,-0.305
3702,0.000,-0.295
3703,-0.040,-0.285
3704,-0.035,-0.295
3705,-0.020,-0.310
3706,-0.020,-0.300
3707,-0.030,-0.315
3708,-0.040,-0.315
3709,-0.025,-0.315
3710,-0.025,-0.305
3711,-0.025,-0.310
3712,-0.010,-0.335
3713,-0.015,-0.325
3714,-0.015,-0.290
3715,-0.015,-0.300
3716,-0.020,-0.270
3717,0.000,-0.230
3718,0.005,-0.220
3719,0.030,-0.180
3720,0.060,-0.155
3721,0.025,-0.160
3722,0.020,-0.195
3723,0.000,-0.220
3724,-0.030,-0.225
3725,-0.020,-0.235
3726,-0.035,-0.240
3727,-0.020,-0.275
3728,0.000,-0.365
3729,0.000,-0.375
3730,-0.020,-0.350
3731,-0.035,-0.370
3732,-0.040,-0.335
3733,-0.045,-0.330
3734,-0.030,-0.350
3735,-0.020,-0.355
3736,-0.030,-0.440
3737,-0.020,-0.520
3738,-0.010,-0.075
3739,0.050,0.855
3740,0.190,1.965
3741,0.215,2.415
3742,0.125,1.320
3743,-0.050,0.195
3744,-0.290,-0.160
3745,-0.280,-0.220
3746,-0.105,-0.285
3747,-0.015,-0.335
3748,0.000,-0.385
3749,0.010,-0.385
3750,0.010,-0.390
3751,0.000,-0.420
3752,0.000,-0.435
3753,0.025,-0.425
3754,0.030,-0.375
3755,0.040,-0.385
3756,0.040,-0.385
3757,0.040,-0.365
3758,0.045,-0.375
3759,0.050,-0.370
3760,0.055,-0.365
3761,0.065,-0.355
3762,0.085,-0.340
3763,0.110,-0.340
3764,0.115,-0.295
3765,0.120,-0.270
3766,0.110,-0.255
3767,0.135,-0.255
3768,0.140,-0.240
3769,0.165,-0.195
3770,0.160,-0.180
3771,0.195,-0.135
3772,0.235,-0.120
3773,0.225,-0.085
3774,0.265,-0.065
3775,0.270,-0.045
3776,0.275,-0.035
3777,0.270,-0.025
3778,0.255,-0.005
3779,0.235,0.000
3780,0.225,0.005
3781,0.195,0.000
3782,0.150,-0.035
3783,0.140,-0.050
3784,0.085,-0.080
3785,0.065,-0.100
3786,0.070,-0.170
3787,0.055,-0.155
3788,0.020,-0.195
3789,0.035,-0.210
3790,0.020,-0.215
3791,0.000,-0.225
3792,0.010,-0.235
3793,-0.015,-0.220
3794,0.010,-0.230
3795,0.015,-0.225
3796,0.015,-0.245
3797,0.005,-0.265
3798,0.020,-0.270
3799,0.000,-0.240
3800,0.040,-0.250
3801,0.020,-0.245
3802,0.005,-0.245
3803,0.030,-0.275
3804,0.035,-0.235
3805,0.020,-0.225
3806,0.015,-0.235
3807,0.005,-0.255
3808,0.005,-0.250
3809,0.005,-0.240
3810,0.000,-0.235
3811,0.020,-0.230
3812,0.010,-0.250
3813,0.000,-0.265
3814,0.000,-0.265
3815,0.010,-0.260
3816,0.020,-0.265
3817,-0.010,-0.275
3818,-0.010,-0.280
3819,0.010,-0.280
3820,0.000,-0.280
3821,-0.010,-0.270
3822,0.000,-0.260
3823,-0.005,-0.260
3824,0.000,-0.250
3825,0.010,-0.215
3826,0.020,-0.180
3827,0.025,-0.185
3828,0.055,-0.185
3829,0.090,-0.120
3830,0.080,-0.110
3831,0.065,-0.115
3832,0.030,-0.160
3833,0.000,-0.190
3834,-0.005,-0.140
3835,-0.025,-0.165
3836,-0.010,-0.180
3837,0.005,-0.270
3838,0.000,-0.320
3839,-0.005,-0.315
3840,-0.010,-0.320
3841,-0.015,-0.280
3842,-0.020,-0.315
3843,-0.015,-0.310
3844,0.000,-0.290
3845,-0.010,-0.325
3846,-0.010,-0.465
3847,0.010,-0.405
3848,0.010,0.280
3849,0.135,1.415
3850,0.265,2.430
3851,0.235,2.080
3852,0.100,0.740
3853,-0.185,0.015
3854,-0.335,-0.120
3855,-0.185,-0.190
3856,-0.040,-0.270
3857,0.010,-0.330
3858,0.010,-0.360
3859,0.015,-0.360
3860,0.035,-0.390
3861,0.035,-0.355
3862,0.035,-0.350
3863,0.050,-0.375
3864,0.030,-0.400
3865,0.045,-0.380
3866,0.070,-0.360
3867,0.070,-0.350
3868,0.050,-0.370
3869,0.075,-0.355
3870,0.090,-0.335
3871,0.100,-0.325
3872,0.110,-0.305
3873,0.125,-0.300
3874,0.135,-0.285
3875,0.140,-0.250
3876,0.150,-0.270
3877,0.185,-0.235
3878,0.175,-0.245
3879,0.180,-0.195
3880,0.230,-0.165
3881,0.230,-0.170
3882,0.265,-0.155
3883,0.270,-0.115
3884,0.305,-0.090
3885,0.320,-0.075
3886,0.335,-0.095
3887,0.335,-0.020
3888,0.335,-0.005
3889,0.315,-0.010
3890,0.300,0.005
3891,0.255,0.000
3892,0.230,-0.010
3893,0.200,-0.025
3894,0.165,-0.055
3895,0.130,-0.090
3896,0.110,-0.100
3897,0.085,-0.155
3898,0.085,-0.175
3899,0.090,-0.205
3900,0.090,-0.185
3901,0.070,-0.190
3902,0.060,-0.215
3903,0.080,-0.200
3904,0.090,-0.220
3905,0.090,-0.200
3906,0.075,-0.210
3907,0.080,-0.200
3908,0.080,-0.220
3909,0.075,-0.220
3910,0.060,-0.215
3911,0.065,-0.215
3912,0.065,-0.215
3913,0.080,-0.210
3914,0.060,-0.220
3915,0.060,-0.220
3916,0.080,-0.215
3917,0.070,-0.230
3918,0.070,-0.210
3919,0.050,-0.220
3920,0.030,-0.215
3921,0.035,-0.220
3922,0.035,-0.220
3923,0.035,-0.205
3924,0.045,-0.215
3925,0.045,-0.200
3926,0.050,-0.195
3927,0.035,-0.220
3928,0.030,-0.215
3929,0.020,-0.205
3930,0.035,-0.200
3931,0.030,-0.205
3932,0.020,-0.200
3933,0.025,-0.220
3934,0.040,-0.215
3935,0.025,-0.225
3936,0.025,-0.205
3937,0.045,-0.160
3938,0.045,-0.115
3939,0.065,-0.100
3940,0.075,-0.100
3941,0.105,-0.050
3942,0.125,-0.035
3943,0.070,-0.045
3944,0.055,-0.110
3945,0.025,-0.120
3946,0.025,-0.130
3947,0.000,-0.130
3948,0.000,-0.135
3949,0.025,-0.195
3950,0.015,-0.265
3951,0.000,-0.265
3952,-0.010,-0.265
3953,0.005,-0.250
3954,0.000,-0.235
3955,-0.005,-0.240
3956,0.000,-0.270
3957,0.005,-0.305
3958,0.000,-0.425
3959,0.005,-0.155
3960,0.050,0.700
3961,0.215,1.815
3962,0.275,2.500
3963,0.180,1.600
3964,0.000,0.420
3965,-0.285,-0.045
3966,-0.320,-0.145
3967,-0.145,-0.205
3968,0.010,-0.275
3969,0.015,-0.315
3970,0.000,-0.320
3971,0.030,-0.320
3972,0.015,-0.340
3973,0.045,-0.345
3974,0.040,-0.335
3975,0.050,-0.350
3976,0.060,-0.360
3977,0.050,-0.335
3978,0.050,-0.305
3979,0.040,-0.305
3980,0.055,-0.310
3981,0.075,-0.290
3982,0.075,-0.305
3983,0.085,-0.310
3984,0.085,-0.305
3985,0.105,-0.255
3986,0.120,-0.225
3987,0.125,-0.215
3988,0.145,-0.235
3989,0.175,-0.215
3990,0.160,-0.185
3991,0.200,-0.160
3992,0.230,-0.120
3993,0.245,-0.100
3994,0.265,-0.100
3995,0.285,-0.055
3996,0.295,-0.040
3997,0.300,-0.025
3998,0.310,-0.030
3999,0.295,-0.005
4000,0.290,0.000
4001,0.255,0.015
4002,0.240,0.010
4003,0.195,0.015
4004,0.180,-0.015
4005,0.120,-0.025
4006,0.115,-0.045
4007,0.080,-0.075
4008,0.060,-0.135
4009,0.060,-0.145
4010,0.065,-0.150
4011,0.075,-0.145
4012,0.055,-0.155
4013,0.035,-0.140
4014,0.050,-0.185
4015,0.060,-0.165
4016,0.075,-0.140
4017,0.070,-0.150
4018,0.065,-0.190
4019,0.055,-0.170
4020,0.065,-0.140
4021,0.060,-0.180
4022,0.055,-0.175
4023,0.065,-0.155
4024,0.045,-0.175
4025,0.055,-0.150
4026,0.060,-0.150
4027,0.055,-0.175
4028,0.055,-0.170
4029,0.045,-0.165
4030,0.055,-0.150
4031,0.025,-0.160
4032,0.040,-0.170
4033,0.035,-0.170
4034,0.035,-0.195
4035,0.030,-0.175
4036,0.030,-0.155
4037,0.035,-0.155
4038,0.025,-0.155
4039,0.040,-0.155
4040,0.035,-0.185
4041,0.040,-0.140
4042,0.020,-0.155
4043,0.020,-0.160
4044,0.015,-0.150
4045,0.025,-0.140
4046,0.025,-0.140
4047,0.005,-0.140
4048,0.025,-0.115
4049,0.035,-0.075
4050,0.060,-0.065
4051,0.085,-0.050
4052,0.070,-0.010
4053,0.115,0.000
4054,0.085,0.000
4055,0.045,-0.055
4056,0.005,-0.070
4057,0.000,-0.055
4058,0.000,-0.050
4059,0.005,-0.080
4060,0.015,-0.155
4061,0.030,-0.215
4062,0.010,-0.220
4063,0.010,-0.225
4064,0.000,-0.210
4065,0.000,-0.215
4066,0.005,-0.210
4067,0.000,-0.235
4068,0.005,-0.290
4069,0.000,-0.385
4070,0.010,-0.060
4071,0.075,0.805
4072,0.235,1.930
4073,0.300,2.535
4074,0.225,1.425
4075,-0.015,0.350
4076,-0.325,-0.030
4077,-0.285,-0.160
4078,-0.100,-0.190
4079,0.000,-0.295
4080,0.010,-0.300
4081,0.015,-0.295
4082,0.040,-0.310
4083,0.030,-0.335
4084,0.040,-0.335
4085,0.030,-0.310
4086,0.035,-0.330
4087,0.045,-0.330
4088,0.050,-0.315
4089,0.040,-0.325
4090,0.070,-0.315
4091,0.060,-0.300
4092,0.060,-0.290
4093,0.065,-0.300
4094,0.085,-0.300
4095,0.095,-0.280
4096,0.135,-0.270
4097,0.090,-0.235
4098,0.125,-0.245
4099,0.180,-0.230
4100,0.170,-0.185
4101,0.195,-0.190
4102,0.230,-0.170
4103,0.235,-0.140
4104,0.240,-0.145
4105,0.260,-0.145
4106,0.275,-0.125
4107,0.300,-0.095
4108,0.305,-0.085
4109,0.295,-0.075
4110,0.310,-0.065
4111,0.275,-0.035
4112,0.250,-0.035
4113,0.215,-0.020
4114,0.190,-0.050
4115,0.155,-0.065
4116,0.135,-0.080
4117,0.090,-0.140
4118,0.090,-0.165
4119,0.065,-0.185
4120,0.035,-0.190
4121,0.055,-0.205
4122,0.040,-0.220
4123,0.045,-0.215
4124,0.055,-0.240
4125,0.045,-0.235
4126,0.045,-0.235
4127,0.045,-0.225
4128,0.025,-0.260
4129,0.035,-0.250
4130,0.030,-0.270
4131,0.040,-0.255
4132,0.025,-0.230
4133,0.025,-0.250
4134,0.070,-0.245
4135,0.040,-0.230
4136,0.035,-0.245
4137,0.035,-0.230
4138,0.015,-0.230
4139,0.055,-0.245
4140,0.050,-0.225
4141,0.040,-0.245
4142,0.040,-0.265
4143,0.045,-0.250
4144,0.045,-0.210
4145,0.025,-0.235
4146,0.030,-0.225
4147,0.040,-0.240
4148,0.045,-0.230
4149,0.060,-0.250
4150,0.045,-0.240
4151,0.050,-0.245
4152,0.060,-0.265
4153,0.055,-0.270
4154,0.035,-0.265
4155,0.045,-0.275
4156,0.030,-0.235
4157,0.040,-0.210
4158,0.035,-0.240
4159,0.050,-0.235
4160,0.035,-0.210
4161,0.050,-0.160
4162,0.070,-0.140
4163,0.075,-0.135
4164,0.080,-0.095
4165,0.125,-0.080
4166,0.125,-0.050
4167,0.075,-0.095
4168,0.030,-0.145
4169,0.010,-0.130
4170,0.010,-0.120
4171,0.015,-0.155
4172,0.015,-0.190
4173,0.035,-0.265
4174,0.035,-0.280
4175,0.015,-0.285
4176,0.010,-0.270
4177,0.015,-0.280
4178,0.025,-0.285
4179,0.025,-0.295
4180,0.025,-0.310
4181,0.010,-0.435
4182,0.015,-0.250
4183,0.065,0.525
4184,0.215,1.630
4185,0.330,2.445
4186,0.270,1.680
4187,0.080,0.465
4188,-0.210,-0.065
4189,-0.285,-0.150
4190,-0.170,-0.255
4191,-0.045,-0.330
4192,0.010,-0.375
4193,0.010,-0.385
4194,0.040,-0.405
4195,0.035,-0.405
4196,0.040,-0.380
4197,0.040,-0.385
4198,0.055,-0.390
4199,0.050,-0.375
4200,0.050,-0.355
4201,0.065,-0.370
4202,0.070,-0.385
4203,0.075,-0.370
4204,0.080,-0.385
4205,0.095,-0.375
4206,0.080,-0.360
4207,0.110,-0.360
4208,0.105,-0.365
4209,0.120,-0.325
4210,0.125,-0.315
4211,0.140,-0.305
4212,0.150,-0.315
4213,0.155,-0.295
4214,0.185,-0.270
4215,0.200,-0.275
4216,0.225,-0.245
4217,0.230,-0.240
4218,0.260,-0.235
4219,0.270,-0.220
4220,0.285,-0.190
4221,0.265,-0.190
4222,0.270,-0.175
4223,0.255,-0.150
4224,0.230,-0.105
4225,0.210,-0.125
4226,0.170,-0.115
4227,0.160,-0.110
4228,0.110,-0.155
4229,0.085,-0.165
4230,0.075,-0.175
4231,0.055,-0.230
4232,0.045,-0.245
4233,0.055,-0.270
4234,0.040,-0.295
4235,0.030,-0.290
4236,0.035,-0.295
4237,0.000,-0.310
4238,0.005,-0.295
4239,0.025,-0.300
4240,0.020,-0.305
4241,0.025,-0.320
4242,0.000,-0.300
4243,0.025,-0.315
4244,0.030,-0.315
4245,0.020,-0.290
4246,0.030,-0.295
4247,0.030,-0.300
4248,0.020,-0.295
4249,0.025,-0.305
4250,0.010,-0.305
4251,0.040,-0.315
4252,0.045,-0.310
4253,0.020,-0.300
4254,0.020,-0.310
4255,0.020,-0.320
4256,0.015,-0.315
4257,0.010,-0.325
4258,0.005,-0.330
4259,0.020,-0.325
4260,0.020,-0.320
4261,0.010,-0.335
4262,0.005,-0.335
4263,0.020,-0.335
4264,0.020,-0.340
4265,0.010,-0.320
4266,0.015,-0.350
4267,0.030,-0.355
4268,0.005,-0.345
4269,0.005,-0.330
4270,0.040,-0.330
4271,0.025,-0.315
4272,0.015,-0.305
4273,0.020,-0.305
4274,0.030,-0.275
4275,0.045,-0.215
4276,0.055,-0.210
4277,0.105,-0.170
4278,0.125,-0.165
4279,0.110,-0.145
4280,0.105,-0.170
4281,0.040,-0.240
4282,0.015,-0.255
4283,0.020,-0.225
4284,0.020,-0.240
4285,0.000,-0.275
4286,0.020,-0.345
4287,0.040,-0.380
4288,0.045,-0.390
4289,0.030,-0.405
4290,0.010,-0.390
4291,0.025,-0.405
4292,0.025,-0.405
4293,0.030,-0.405
4294,0.005,-0.470
4295,0.040,-0.515
4296,0.055,-0.025
4297,0.140,0.890
4298,0.305,1.845
4299,0.295,1.870
4300,0.160,0.695
4301,-0.090,-0.095
4302,-0.295,-0.245
4303,-0.225,-0.305
4304,-0.015,-0.380
4305,0.035,-0.445
4306,0.045,-0.485
4307,0.035,-0.490
4308,0.070,-0.485
4309,0.060,-0.515
4310,0.060,-0.505
4311,0.070,-0.510
4312,0.070,-0.480
4313,0.090,-0.485
4314,0.090,-0.495
4315,0.075,-0.480
4316,0.100,-0.480
4317,0.105,-0.485
4318,0.110,-0.475
4319,0.130,-0.475
4320,0.140,-0.465
4321,0.130,-0.430
4322,0.140,-0.435
4323,0.165,-0.420
4324,0.175,-0.390
4325,0.190,-0.375
4326,0.180,-0.350
4327,0.215,-0.340
4328,0.220,-0.340
4329,0.245,-0.335
4330,0.265,-0.310
4331,0.275,-0.300
4332,0.285,-0.295
4333,0.290,-0.285
4334,0.290,-0.275
4335,0.295,-0.275
4336,0.305,-0.260
4337,0.280,-0.240
4338,0.255,-0.195
4339,0.225,-0.205
4340,0.200,-0.215
4341,0.175,-0.250
4342,0.155,-0.260
4343,0.120,-0.260
4344,0.110,-0.310
4345,0.090,-0.345
4346,0.085,-0.355
4347,0.080,-0.370
4348,0.080,-0.390
4349,0.075,-0.400
4350,0.075,-0.400
4351,0.060,-0.420
4352,0.050,-0.415
4353,0.065,-0.395
4354,0.065,-0.385
4355,0.075,-0.405
4356,0.075,-0.380
4357,0.055,-0.370
4358,0.050,-0.395
4359,0.060,-0.370
4360,0.070,-0.385
4361,0.080,-0.400
4362,0.060,-0.400
4363,0.065,-0.380
4364,0.050,-0.400
4365,0.055,-0.390
4366,0.045,-0.395
4367,0.045,-0.425
4368,0.045,-0.430
4369,0.055,-0.440
4370,0.040,-0.425
4371,0.050,-0.440
4372,0.025,-0.435
4373,0.050,-0.445
4374,0.040,-0.410
4375,0.015,-0.400
4376,0.045,-0.415
4377,0.045,-0.435
4378,0.050,-0.435
4379,0.035,-0.420
4380,0.050,-0.430
4381,0.035,-0.430
4382,0.050,-0.420
4383,0.025,-0.430
4384,0.020,-0.425
4385,0.035,-0.415
4386,0.045,-0.415
4387,0.060,-0.355
4388,0.080,-0.320
4389,0.110,-0.330
4390,0.125,-0.295
4391,0.130,-0.280
4392,0.120,-0.250
4393,0.105,-0.290
4394,0.045,-0.320
4395,0.040,-0.325
4396,0.035,-0.330
4397,0.050,-0.360
4398,0.070,-0.405
4399,0.065,-0.450
4400,0.040,-0.495
4401,0.055,-0.500
4402,0.050,-0.465
4403,0.050,-0.470
4404,0.055,-0.435
4405,0.080,-0.450
4406,0.065,-0.455
4407,0.065,-0.545
4408,0.080,-0.465
4409,0.125,0.115
4410,0.245,1.075
4411,0.380,1.940
4412,0.325,1.805
4413,0.160,0.595
4414,-0.065,-0.200
4415,-0.265,-0.340
4416,-0.175,-0.385
4417,0.005,-0.425
4418,0.075,-0.490
4419,0.060,-0.510
4420,0.080,-0.520
4421,0.095,-0.520
4422,0.080,-0.520
4423,0.105,-0.510
4424,0.100,-0.525
4425,0.100,-0.515
4426,0.105,-0.515
4427,0.085,-0.515
4428,0.145,-0.490
4429,0.135,-0.495
4430,0.145,-0.490
4431,0.130,-0.485
4432,0.155,-0.455
4433,0.150,-0.460
4434,0.155,-0.435
4435,0.165,-0.415
4436,0.190,-0.425
4437,0.205,-0.385
4438,0.200,-0.380
4439,0.235,-0.365
4440,0.230,-0.335
4441,0.235,-0.345
4442,0.280,-0.320
4443,0.280,-0.315
4444,0.310,-0.300
4445,0.330,-0.300
4446,0.340,-0.290
4447,0.340,-0.255
4448,0.345,-0.255
4449,0.315,-0.265
4450,0.305,-0.220
4451,0.295,-0.180
4452,0.280,-0.160
4453,0.240,-0.165
4454,0.225,-0.185
4455,0.170,-0.210
4456,0.145,-0.275
4457,0.140,-0.285
4458,0.115,-0.305
4459,0.095,-0.355
4460,0.070,-0.345
4461,0.085,-0.365
4462,0.085,-0.370
4463,0.070,-0.380
4464,0.065,-0.385
4465,0.085,-0.365
4466,0.065,-0.380
4467,0.075,-0.360
4468,0.060,-0.375
4469,0.070,-0.360
4470,0.065,-0.360
4471,0.055,-0.340
4472,0.070,-0.350
4473,0.040,-0.340
4474,0.050,-0.365
4475,0.055,-0.350
4476,0.060,-0.350
4477,0.045,-0.390
4478,0.030,-0.375
4479,0.040,-0.365
4480,0.045,-0.380
4481,0.045,-0.380
4482,0.055,-0.380
4483,0.045,-0.380
4484,0.030,-0.375
4485,0.030,-0.385
4486,0.040,-0.390
4487,0.045,-0.400
4488,0.035,-0.400
4489,0.045,-0.395
4490,0.035,-0.375
4491,0.020,-0.395
4492,0.025,-0.400
4493,0.050,-0.400
4494,0.030,-0.390
4495,0.025,-0.370
4496,0.030,-0.385
4497,0.030,-0.390
4498,0.025,-0.370
4499,0.030,-0.375
4500,0.030,-0.365
4501,0.050,-0.310
4502,0.070,-0.305
4503,0.095,-0.260
4504,0.115,-0.230
4505,0.105,-0.205
4506,0.105,-0.185
4507,0.080,-0.235
4508,0.040,-0.265
4509,0.025,-0.270
4510,0.025,-0.290
4511,0.010,-0.285
4512,0.030,-0.325
4513,0.040,-0.410
4514,0.030,-0.420
4515,0.025,-0.420
4516,0.015,-0.410
4517,0.010,-0.420
4518,0.020,-0.400
4519,0.035,-0.410
4520,0.040,-0.440
4521,0.025,-0.540
4522,0.050,-0.250
4523,0.095,0.610
4524,0.280,1.735
4525,0.315,2.265
4526,0.205,1.185
4527,-0.025,0.115
4528,-0.275,-0.240
4529,-0.235,-0.295
4530,-0.060,-0.360
4531,0.045,-0.430
4532,0.065,-0.430
4533,0.075,-0.445
4534,0.075,-0.445
4535,0.100,-0.455
4536,0.090,-0.455
4537,0.085,-0.425
4538,0.095,-0.430
4539,0.095,-0.435
4540,0.120,-0.440
4541,0.135,-0.410
4542,0.130,-0.425
4543,0.130,-0.410
4544,0.145,-0.395
4545,0.150,-0.385
4546,0.165,-0.380
4547,0.155,-0.355
4548,0.175,-0.340
4549,0.185,-0.335
4550,0.195,-0.325
4551,0.215,-0.320
4552,0.220,-0.280
4553,0.245,-0.275
4554,0.265,-0.270
4555,0.285,-0.245
4556,0.305,-0.215
4557,0.310,-0.200
4558,0.340,-0.200
4559,0.345,-0.165
4560,0.335,-0.175
4561,0.320,-0.175
4562,0.340,-0.130
4563,0.335,-0.105
4564,0.260,-0.105
4565,0.250,-0.130
4566,0.215,-0.130
4567,0.190,-0.120
4568,0.170,-0.160
4569,0.130,-0.195
4570,0.125,-0.205
4571,0.090,-0.250
4572,0.095,-0.260
4573,0.090,-0.260
4574,0.080,-0.255
4575,0.080,-0.280
4576,0.065,-0.295
4577,0.075,-0.280
4578,0.075,-0.285
4579,0.075,-0.300
4580,0.075,-0.300
4581,0.070,-0.265
4582,0.055,-0.280
4583,0.085,-0.280
4584,0.075,-0.300
4585,0.060,-0.310
4586,0.070,-0.290
4587,0.080,-0.270
4588,0.070,-0.290
4589,0.080,-0.285
4590,0.055,-0.295
4591,0.055,-0.300
4592,0.055,-0.290
4593,0.040,-0.290
4594,0.025,-0.285
4595,0.045,-0.300
4596,0.040,-0.295
4597,0.030,-0.295
4598,0.020,-0.310
4599,0.030,-0.295
4600,0.020,-0.315
4601,0.035,-0.295
4602,0.015,-0.315
4603,0.040,-0.305
4604,0.015,-0.305
4605,0.010,-0.300
4606,0.025,-0.310
4607,0.000,-0.305
4608,0.030,-0.315
4609,0.035,-0.315
4610,0.025,-0.290
4611,0.035,-0.285
4612,0.045,-0.240
4613,0.055,-0.215
4614,0.080,-0.195
4615,0.090,-0.185
4616,0.095,-0.155
4617,0.085,-0.130
4618,0.080,-0.185
4619,0.035,-0.230
4620,0.010,-0.210
4621,0.005,-0.190
4622,0.015,-0.230
4623,0.000,-0.260
4624,0.030,-0.335
4625,0.030,-0.360
4626,0.040,-0.360
4627,0.000,-0.365
4628,0.020,-0.360
4629,0.010,-0.350
4630,0.000,-0.350
4631,0.010,-0.395
4632,0.020,-0.520
4633,0.050,-0.160
4634,0.120,0.780
4635,0.275,1.805
4636,0.285,1.965
4637,0.155,0.760
4638,-0.090,-0.040
4639,-0.295,-0.200
4640,-0.185,-0.265
4641,-0.020,-0.345
4642,0.045,-0.385
4643,0.060,-0.435
4644,0.065,-0.435
4645,0.050,-0.440
4646,0.065,-0.455
4647,0.085,-0.450
4648,0.080,-0.455
4649,0.075,-0.425
4650,0.085,-0.430
4651,0.075,-0.420
4652,0.080,-0.415
4653,0.100,-0.415
4654,0.110,-0.410
4655,0.105,-0.385
4656,0.125,-0.400
4657,0.125,-0.365
4658,0.155,-0.360
4659,0.165,-0.355
4660,0.150,-0.340
4661,0.195,-0.335
4662,0.190,-0.340
4663,0.235,-0.300
4664,0.230,-0.305
4665,0.255,-0.295
4666,0.275,-0.275
4667,0.290,-0.285
4668,0.290,-0.265
4669,0.295,-0.230
4670,0.310,-0.210
4671,0.315,-0.185
4672,0.320,-0.160
4673,0.295,-0.140
4674,0.290,-0.145
4675,0.245,-0.145
4676,0.210,-0.155
4677,0.180,-0.145
4678,0.155,-0.185
4679,0.120,-0.220
4680,0.105,-0.230
4681,0.110,-0.240
4682,0.085,-0.280
4683,0.070,-0.320
4684,0.075,-0.310
4685,0.080,-0.305
4686,0.075,-0.310
4687,0.090,-0.325
4688,0.100,-0.305
4689,0.110,-0.305
4690,0.085,-0.335
4691,0.080,-0.320
4692,0.070,-0.295
4693,0.075,-0.320
4694,0.070,-0.320
4695,0.070,-0.295
4696,0.080,-0.300
4697,0.085,-0.315
4698,0.080,-0.320
4699,0.075,-0.330
4700,0.085,-0.325
4701,0.075,-0.325
4702,0.055,-0.360
4703,0.055,-0.345
4704,0.065,-0.305
4705,0.045,-0.310
4706,0.045,-0.345
4707,0.055,-0.355
4708,0.060,-0.330
4709,0.045,-0.330
4710,0.045,-0.335
4711,0.030,-0.350
4712,0.045,-0.335
4713,0.055,-0.355
4714,0.045,-0.330
4715,0.050,-0.355
4716,0.045,-0.350
4717,0.040,-0.340
4718,0.035,-0.350
4719,0.010,-0.345
4720,0.025,-0.340
4721,0.045,-0.305
4722,0.050,-0.280
4723,0.070,-0.280
4724,0.085,-0.255
4725,0.100,-0.225
4726,0.100,-0.195
4727,0.065,-0.205
4728,0.040,-0.250
4729,0.005,-0.315
4730,0.000,-0.285
4731,-0.010,-0.255
4732,0.000,-0.315
4733,0.010,-0.370
4734,0.000,-0.420
4735,-0.020,-0.425
4736,-0.010,-0.450
4737,-0.005,-0.390
4738,-0.005,-0.405
4739,-0.005,-0.415
4740,0.000,-0.430
4741,0.005,-0.485
4742,0.020,-0.535
4743,0.035,-0.145
4744,0.120,0.725
4745,0.260,1.730
4746,0.280,2.035
4747,0.165,1.010
4748,-0.055,0.040
4749,-0.285,-0.280
4750,-0.250,-0.360
4751,-0.085,-0.425
4752,0.015,-0.465
4753,0.040,-0.505
4754,0.045,-0.525
4755,0.045,-0.515
4756,0.050,-0.520
4757,0.065,-0.505
4758,0.050,-0.535
4759,0.055,-0.515
4760,0.060,-0.500
4761,0.075,-0.490
4762,0.065,-0.500
4763,0.100,-0.490
4764,0.085,-0.465
4765,0.105,-0.465
4766,0.115,-0.445
4767,0.130,-0.445
4768,0.130,-0.435
4769,0.125,-0.425
4770,0.160,-0.380
4771,0.185,-0.380
4772,0.190,-0.380
4773,0.195,-0.325
4774,0.225,-0.320
4775,0.225,-0.310
4776,0.245,-0.315
4777,0.270,-0.250
4778,0.315,-0.270
4779,0.310,-0.245
4780,0.330,-0.250
4781,0.320,-0.230
4782,0.330,-0.230
4783,0.285,-0.180
4784,0.305,-0.175
4785,0.275,-0.160
4786,0.240,-0.160
4787,0.215,-0.175
4788,0.180,-0.175
4789,0.165,-0.205
4790,0.135,-0.230
4791,0.105,-0.265
4792,0.120,-0.280
4793,0.110,-0.310
4794,0.070,-0.300
4795,0.095,-0.320
4796,0.100,-0.320
4797,0.095,-0.310
4798,0.075,-0.320
4799,0.090,-0.330
4800,0.080,-0.305
4801,0.070,-0.325
4802,0.085,-0.320
4803,0.085,-0.330
4804,0.090,-0.320
4805,0.085,-0.340
4806,0.100,-0.335
4807,0.090,-0.325
4808,0.080,-0.325
4809,0.080,-0.315
4810,0.065,-0.315
4811,0.065,-0.335
4812,0.080,-0.320
4813,0.075,-0.300
4814,0.070,-0.305
4815,0.075,-0.330
4816,0.065,-0.350
4817,0.070,-0.340
4818,0.085,-0.335
4819,0.070,-0.340
4820,0.070,-0.335
4821,0.080,-0.340
4822,0.035,-0.350
4823,0.050,-0.350
4824,0.080,-0.320
4825,0.065,-0.325
4826,0.045,-0.320
4827,0.055,-0.330
4828,0.060,-0.335
4829,0.060,-0.360
4830,0.050,-0.360
4831,0.065,-0.340
4832,0.060,-0.335
4833,0.060,-0.325
4834,0.055,-0.285
4835,0.075,-0.250
4836,0.095,-0.245
4837,0.125,-0.200
4838,0.120,-0.190
4839,0.155,-0.155
4840,0.120,-0.180
4841,0.065,-0.230
4842,0.035,-0.245
4843,0.025,-0.220
4844,0.025,-0.240
4845,0.035,-0.265
4846,0.050,-0.350
4847,0.050,-0.390
4848,0.050,-0.405
4849,0.030,-0.400
4850,0.025,-0.390
4851,0.015,-0.385
4852,0.020,-0.375
4853,0.035,-0.395
4854,0.040,-0.520
4855,0.045,-0.480
4856,0.075,0.130
4857,0.175,1.195
4858,0.320,2.165
4859,0.260,1.910
4860,0.110,0.645
4861,-0.150,-0.045
4862,-0.295,-0.210
4863,-0.150,-0.295
4864,0.010,-0.380
4865,0.055,-0.400
4866,0.065,-0.465
4867,0.055,-0.465
4868,0.065,-0.465
4869,0.065,-0.490
4870,0.075,-0.465
4871,0.080,-0.470
4872,0.075,-0.470
4873,0.085,-0.470
4874,0.100,-0.465
4875,0.090,-0.450
4876,0.100,-0.455
4877,0.120,-0.460
4878,0.125,-0.435
4879,0.120,-0.445
4880,0.115,-0.420
4881,0.145,-0.405
4882,0.130,-0.395
4883,0.150,-0.405
4884,0.180,-0.380
4885,0.185,-0.340
4886,0.190,-0.330
4887,0.205,-0.305
4888,0.205,-0.305
4889,0.255,-0.300
4890,0.270,-0.270
4891,0.280,-0.260
4892,0.280,-0.250
4893,0.305,-0.265
4894,0.325,-0.225
4895,0.335,-0.205
4896,0.330,-0.185
4897,0.310,-0.165
4898,0.290,-0.140
4899,0.240,-0.150
4900,0.230,-0.165
4901,0.180,-0.175
4902,0.150,-0.165
4903,0.135,-0.185
4904,0.095,-0.235
4905,0.095,-0.240
4906,0.080,-0.270
4907,0.095,-0.315
4908,0.060,-0.320
4909,0.065,-0.325
4910,0.070,-0.350
4911,0.095,-0.325
4912,0.060,-0.320
4913,0.085,-0.320
4914,0.060,-0.310
4915,0.075,-0.320
4916,0.085,-0.340
4917,0.080,-0.335
4918,0.085,-0.315
4919,0.085,-0.280
4920,0.085,-0.310
4921,0.080,-0.300
4922,0.065,-0.310
4923,0.085,-0.315
4924,0.075,-0.300
4925,0.105,-0.310
4926,0.080,-0.315
4927,0.070,-0.310
4928,0.090,-0.320
4929,0.070,-0.300
4930,0.070,-0.295
4931,0.085,-0.330
4932,0.090,-0.325
4933,0.090,-0.320
4934,0.065,-0.310
4935,0.070,-0.305
4936,0.060,-0.325
4937,0.060,-0.315
4938,0.060,-0.315
4939,0.065,-0.345
4940,0.050,-0.325
4941,0.050,-0.325
4942,0.055,-0.325
4943,0.045,-0.325
4944,0.050,-0.325
4945,0.050,-0.310
4946,0.045,-0.315
4947,0.075,-0.290
4948,0.060,-0.255
4949,0.065,-0.235
4950,0.100,-0.225
4951,0.115,-0.170
4952,0.125,-0.145
4953,0.125,-0.125
4954,0.115,-0.140
4955,0.070,-0.215
4956,0.035,-0.210
4957,0.035,-0.190
4958,0.020,-0.180
4959,0.035,-0.220
4960,0.045,-0.310
4961,0.045,-0.335
4962,0.025,-0.310
4963,0.020,-0.340
4964,0.035,-0.340
4965,0.015,-0.345
4966,0.025,-0.350
4967,0.020,-0.350
4968,0.035,-0.355
4969,0.010,-0.465
4970,0.045,-0.130
4971,0.130,0.780
4972,0.270,1.855
4973,0.320,2.295
4974,0.205,1.220
4975,-0.010,0.195
4976,-0.285,-0.145
4977,-0.245,-0.240
4978,-0.065,-0.305
4979,0.015,-0.375
4980,0.035,-0.395
4981,0.050,-0.430
4982,0.040,-0.435
4983,0.055,-0.455
4984,0.055,-0.450
4985,0.040,-0.455
4986,0.045,-0.445
4987,0.035,-0.440
4988,0.045,-0.450
4989,0.080,-0.455
4990,0.060,-0.470
4991,0.065,-0.395
4992,0.085,-0.390
4993,0.140,-0.425
4994,0.085,-0.435
4995,0.105,-0.410
4996,0.115,-0.405
4997,0.100,-0.395
4998,0.140,-0.415
4999,0.160,-0.390
5000,0.160,-0.310
5001,0.190,-0.315
5002,0.205,-0.335
5003,0.230,-0.230
5004,0.235,-0.245
5005,0.280,-0.255
5006,0.285,-0.265
5007,0.285,-0.310
5008,0.300,-0.230
5009,0.300,-0.180
5010,0.300,-0.195
5011,0.280,-0.160
5012,0.265,-0.210
5013,0.215,-0.125
5014,0.235,-0.115
5015,0.175,-0.145
5016,0.150,-0.190
5017,0.150,-0.135
5018,0.115,-0.120
5019,0.065,-0.165
5020,0.070,-0.260
5021,0.080,-0.300
5022,0.085,-0.310
5023,0.055,-0.275
5024,0.025,-0.350
5025,0.065,-0.310
5026,0.075,-0.320
5027,0.055,-0.340
5028,0.040,-0.310
5029,0.060,-0.320
5030,0.030,-0.320
5031,0.015,-0.330
5032,0.030,-0.315
5033,0.025,-0.315
5034,0.025,-0.305
5035,0.015,-0.345
5036,0.015,-0.325
5037,0.055,-0.290
5038,0.010,-0.315
5039,0.020,-0.325
5040,0.010,-0.385
5041,0.020,-0.340
5042,0.020,-0.345
5043,0.020,-0.330
5044,0.015,-0.320
5045,0.025,-0.330
5046,0.010,-0.340
5047,0.015,-0.320
5048,0.000,-0.325
5049,0.000,-0.290
5050,0.015,-0.280
5051,0.000,-0.270
5052,0.010,-0.330
5053,0.000,-0.370
5054,0.010,-0.335
5055,0.015,-0.360
5056,0.000,-0.320
5057,-0.015,-0.355
5058,0.000,-0.375
5059,0.015,-0.335
5060,0.015,-0.320
5061,0.005,-0.270
5062,0.035,-0.265
5063,0.030,-0.190
5064,0.025,-0.190
5065,0.065,-0.190
5066,0.070,-0.190
5067,0.065,-0.165
5068,0.030,-0.195
5069,-0.020,-0.215
5070,-0.040,-0.195
5071,-0.045,-0.180
5072,-0.025,-0.220
5073,-0.040,-0.335
5074,-0.020,-0.360
5075,-0.020,-0.405
5076,-0.025,-0.385
5077,-0.035,-0.355
5078,-0.045,-0.335
5079,-0.055,-0.355
5080,-0.045,-0.365
5081,-0.025,-0.395
5082,-0.050,-0.465
5083,-0.040,-0.190
5084,0.045,0.765
5085,0.195,1.835
5086,0.210,2.180
5087,0.100,1.030
5088,-0.145,0.070
5089,-0.370,-0.185
5090,-0.320,-0.270
5091,-0.145,-0.315
5092,-0.050,-0.395
5093,-0.050,-0.470
5094,-0.035,-0.470
5095,-0.045,-0.530
5096,-0.035,-0.500
5097,-0.030,-0.465
5098,-0.020,-0.490
5099,-0.005,-0.485
5100,-0.010,-0.485
5101,-0.020,-0.450
5102,-0.005,-0.445
5103,-0.005,-0.435
5104,-0.010,-0.505
5105,0.000,-0.460
5106,0.005,-0.450
5107,-0.005,-0.415
5108,0.005,-0.420
5109,0.020,-0.410
5110,0.025,-0.415
5111,0.045,-0.425
5112,0.060,-0.385
5113,0.080,-0.330
5114,0.080,-0.345
5115,0.115,-0.365
5116,0.115,-0.375
5117,0.140,-0.385
5118,0.175,-0.255
5119,0.180,-0.295
5120,0.190,-0.310
5121,0.190,-0.285
5122,0.175,-0.285
5123,0.170,-0.310
5124,0.160,-0.240
5125,0.120,-0.190
5126,0.075,-0.185
5127,0.045,-0.210
5128,0.010,-0.205
5129,-0.010,-0.210
5130,-0.045,-0.275
5131,-0.070,-0.305
5132,-0.090,-0.400
5133,-0.115,-0.460
5134,-0.100,-0.425
5135,-0.135,-0.400
5136,-0.125,-0.410
5137,-0.140,-0.400
5138,-0.135,-0.410
5139,-0.120,-0.430
5140,-0.130,-0.410
5141,-0.125,-0.440
5142,-0.145,-0.415
5143,-0.130,-0.390
5144,-0.140,-0.400
5145,-0.140,-0.375
5146,-0.125,-0.395
5147,-0.145,-0.385
5148,-0.150,-0.400
5149,-0.125,-0.445
5150,-0.155,-0.410
5151,-0.150,-0.400
5152,-0.145,-0.395
5153,-0.160,-0.405
5154,-0.145,-0.390
5155,-0.155,-0.395
5156,-0.160,-0.400
5157,-0.170,-0.375
5158,-0.140,-0.415
5159,-0.140,-0.400
5160,-0.140,-0.425
5161,-0.165,-0.385
5162,-0.140,-0.360
5163,-0.165,-0.400
5164,-0.170,-0.365
5165,-0.170,-0.345
5166,-0.170,-0.355
5167,-0.180,-0.395
5168,-0.175,-0.425
5169,-0.165,-0.315
5170,-0.155,-0.340
5171,-0.155,-0.320
5172,-0.150,-0.280
5173,-0.120,-0.235
5174,-0.080,-0.165
5175,-0.070,-0.060
5176,-0.085,-0.210
5177,-0.070,-0.170
5178,-0.105,-0.230
5179,-0.145,-0.220
5180,-0.160,-0.270
5181,-0.150,-0.280
5182,-0.160,-0.255
5183,-0.140,-0.285
5184,-0.140,-0.330
5185,-0.155,-0.260
5186,-0.160,-0.415
5187,-0.170,-0.440
5188,-0.150,-0.355
5189,-0.140,-0.335
5190,-0.145,-0.340
5191,-0.135,-0.470
5192,-0.140,-0.455
5193,-0.105,0.130
5194,0.050,1.070
5195,0.230,1.995
5196,0.235,1.950
5197,0.055,0.785
5198,-0.265,0.030
5199,-0.505,-0.245
5200,-0.385,-0.265
5201,-0.195,-0.370
5202,-0.110,-0.445
5203,-0.095,-0.385
5204,-0.115,-0.415
5205,-0.095,-0.520
5206,-0.090,-0.505
5207,-0.085,-0.500
5208,-0.100,-0.425
5209,-0.085,-0.370
5210,-0.075,-0.460
5211,-0.080,-0.445
5212,-0.065,-0.420
5213,-0.055,-0.415
5214,-0.055,-0.410
5215,-0.035,-0.455
5216,-0.025,-0.400
5217,-0.035,-0.325
5218,-0.020,-0.325
5219,0.000,-0.300
5220,0.000,-0.370
5221,0.005,-0.385
5222,0.035,-0.320
5223,0.055,-0.290
5224,0.085,-0.270
5225,0.095,-0.255
5226,0.130,-0.195
5227,0.130,-0.055
5228,0.155,-0.080
5229,0.150,-0.255
5230,0.190,-0.145
5231,0.190,-0.140
5232,0.195,-0.105
5233,0.165,-0.100
5234,0.145,-0.080
5235,0.105,-0.115
5236,0.085,-0.145
5237,0.055,-0.075
5238,0.020,-0.030
5239,0.000,-0.135
5240,-0.015,-0.205
5241,-0.060,-0.295
5242,-0.070,-0.260
5243,-0.080,-0.215
5244,-0.075,-0.245
5245,-0.065,-0.255
5246,-0.090,-0.225
5247,-0.085,-0.295
5248,-0.075,-0.315
5249,-0.080,-0.285
5250,-0.075,-0.270
5251,-0.095,-0.235
5252,-0.095,-0.215
5253,-0.090,-0.185
5254,-0.100,-0.310
5255,-0.090,-0.300
5256,-0.110,-0.275
5257,-0.110,-0.250
5258,-0.100,-0.230
5259,-0.115,-0.215
5260,-0.110,-0.285
5261,-0.115,-0.260
5262,-0.100,-0.230
5263,-0.120,-0.075
5264,-0.110,-0.170
5265,-0.120,-0.285
5266,-0.085,-0.235
5267,-0.110,-0.335
5268,-0.080,-0.375
5269,-0.090,-0.320
5270,-0.120,-0.305
5271,-0.115,-0.275
5272,-0.100,-0.210
5273,-0.095,-0.225
5274,-0.100,-0.205
5275,-0.100,-0.230
5276,-0.115,-0.305
5277,-0.110,-0.275
5278,-0.105,-0.295
5279,-0.105,-0.160
5280,-0.125,-0.080
5281,-0.125,-0.175
5282,-0.065,-0.045
5283,-0.070,-0.150
5284,-0.085,-0.130
5285,-0.100,-0.160
5286,-0.125,-0.160
5287,-0.155,-0.120
5288,-0.180,-0.205
5289,-0.180,-0.180
5290,-0.150,-0.175
5291,-0.130,-0.255
5292,-0.135,-0.210
5293,-0.150,-0.280
5294,-0.145,-0.275
5295,-0.125,-0.275
5296,-0.150,-0.265
5297,-0.140,-0.250
5298,-0.145,-0.200
5299,-0.130,-0.265
5300,-0.130,-0.450
5301,-0.085,-0.180
5302,0.000,0.575
5303,0.180,1.515
5304,0.300,2.220
5305,0.240,1.735
5306,0.045,0.565
5307,-0.285,0.075
5308,-0.420,-0.025
5309,-0.225,-0.115
5310,-0.100,-0.240
5311,-0.070,-0.270
5312,-0.075,-0.250
5313,-0.055,-0.300
5314,-0.055,-0.385
5315,-0.045,-0.265
5316,-0.055,-0.270
5317,-0.060,-0.315
5318,-0.070,-0.295
5319,-0.065,-0.370
5320,-0.020,-0.320
5321,-0.040,-0.305
5322,-0.025,-0.270
5323,-0.010,-0.235
5324,-0.010,-0.325
5325,-0.010,-0.325
5326,0.010,-0.275
5327,0.005,-0.275
5328,0.025,-0.240
5329,0.035,-0.230
5330,0.050,-0.200
5331,0.055,-0.175
5332,0.070,-0.115
5333,0.080,-0.110
5334,0.105,-0.100
5335,0.125,-0.125
5336,0.155,-0.080
5337,0.175,-0.065
5338,0.185,-0.085
5339,0.190,-0.020
5340,0.215,-0.035
5341,0.195,-0.115
5342,0.210,-0.030
5343,0.175,0.050
5344,0.170,0.115
5345,0.145,0.130
5346,0.095,0.060
5347,0.040,0.095
5348,0.035,0.020
5349,0.010,-0.030
5350,0.000,0.040
5351,-0.015,-0.030
5352,-0.050,-0.170
5353,-0.030,-0.140
5354,-0.045,-0.140
5355,-0.045,-0.130
5356,-0.065,-0.055
5357,-0.080,0.005
5358,-0.055,0.005
5359,-0.070,-0.035
5360,-0.040,0.000
5361,-0.075,-0.130
5362,-0.045,-0.210
5363,-0.035,-0.205
5364,-0.060,-0.150
5365,-0.045,-0.115
5366,-0.050,-0.095
5367,-0.065,0.000
5368,-0.065,-0.070
5369,-0.070,-0.160
5370,-0.075,-0.115
5371,-0.085,-0.070
5372,-0.085,-0.015
5373,-0.090,-0.190
5374,-0.090,-0.230
5375,-0.065,-0.140
5376,-0.100,-0.035
5377,-0.085,-0.030
5378,-0.105,-0.160
5379,-0.115,-0.195
5380,-0.105,-0.180
5381,-0.100,-0.180
5382,-0.115,-0.140
5383,-0.110,-0.125
5384,-0.110,-0.200
5385,-0.095,-0.185
5386,-0.095,-0.160
5387,-0.100,-0.140
5388,-0.095,-0.145
5389,-0.095,-0.100
5390,-0.095,-0.050
5391,-0.095,-0.055
5392,-0.070,-0.155
5393,-0.010,-0.055
5394,-0.005,0.090
5395,-0.010,-0.040
5396,-0.015,0.010
5397,-0.055,-0.030
5398,-0.120,-0.110
5399,-0.085,-0.075
5400,-0.105,-0.005
5401,-0.125,-0.055
5402,-0.100,-0.100
5403,-0.085,-0.120
5404,-0.095,-0.225
5405,-0.085,-0.215
5406,-0.120,-0.215
5407,-0.100,-0.160
5408,-0.110,-0.165
5409,-0.115,-0.195
5410,-0.105,-0.145
5411,-0.110,-0.290
5412,-0.105,-0.400
5413,-0.075,0.010
5414,0.035,0.935
5415,0.205,2.045
5416,0.250,2.585
5417,0.170,1.395
5418,-0.095,0.425
5419,-0.420,0.055
5420,-0.395,-0.080
5421,-0.165,-0.115
5422,-0.080,-0.155
5423,-0.065,-0.085
5424,-0.075,-0.220
5425,-0.065,-0.340
5426,-0.040,-0.380
5427,-0.040,-0.325
5428,-0.050,-0.215
5429,-0.045,-0.180
5430,-0.035,-0.275
5431,-0.030,-0.180
5432,-0.035,-0.375
5433,-0.010,-0.335
5434,0.000,-0.235
5435,0.005,-0.165
5436,0.010,-0.275
5437,0.030,-0.270
5438,0.030,-0.160
5439,0.065,-0.195
5440,0.065,-0.250
5441,0.085,-0.190
5442,0.110,-0.140
5443,0.105,-0.205
5444,0.150,-0.145
5445,0.180,-0.085
5446,0.205,-0.075
5447,0.210,-0.095
5448,0.230,-0.095
5449,0.265,-0.065
5450,0.285,0.115
5451,0.275,0.010
5452,0.285,-0.105
5453,0.310,-0.045
5454,0.290,-0.055
5455,0.245,-0.020
5456,0.225,0.030
5457,0.180,0.050
5458,0.160,0.060
5459,0.115,0.020
5460,0.060,0.020
5461,0.050,0.105
5462,0.010,0.030
5463,0.000,-0.035
5464,0.015,0.000
5465,-0.010,-0.110
5466,-0.025,-0.075
5467,-0.020,-0.005
5468,-0.025,-0.110
5469,-0.025,-0.090
5470,-0.025,-0.105
5471,-0.010,-0.065
5472,-0.020,-0.040
5473,-0.035,-0.045
5474,-0.025,0.025
5475,-0.025,0.010
5476,-0.030,-0.140
5477,-0.020,-0.125
5478,-0.020,-0.015
5479,-0.040,0.000
5480,-0.050,-0.045
5481,-0.040,-0.090
5482,-0.045,-0.085
5483,-0.025,-0.105
5484,-0.035,0.000
5485,-0.060,-0.085
5486,-0.045,-0.195
5487,-0.020,-0.020
5488,-0.045,0.060
5489,-0.065,-0.275
5490,-0.050,-0.195
5491,-0.030,-0.100
5492,-0.050,-0.060
5493,-0.050,-0.005
5494,-0.080,-0.165
5495,-0.065,-0.190
5496,-0.055,-0.060
5497,-0.060,0.065
5498,-0.080,-0.280
5499,-0.080,-0.120
5500,-0.055,0.005
5501,-0.085,0.035
5502,-0.070,-0.120
5503,-0.040,-0.130
5504,0.005,0.060
5505,-0.010,0.280
5506,-0.035,0.110
5507,-0.070,-0.015
5508,-0.100,-0.095
5509,-0.100,-0.115
5510,-0.100,-0.015
5511,-0.105,0.015
5512,-0.090,-0.040
5513,-0.080,-0.110
5514,-0.090,-0.050
5515,-0.110,0.000
5516,-0.150,-0.260
5517,-0.100,-0.125
5518,-0.100,-0.095
5519,-0.090,-0.165
5520,-0.095,-0.210
5521,-0.085,-0.295
5522,-0.075,-0.155
5523,-0.030,0.655
5524,0.155,1.890
5525,0.300,2.960
5526,0.285,2.350
5527,0.020,0.895
5528,-0.380,0.210
5529,-0.435,0.005
5530,-0.200,0.010
5531,-0.090,-0.205
5532,-0.055,-0.220
5533,-0.040,-0.185
5534,-0.045,-0.245
5535,-0.045,-0.255
5536,-0.015,-0.270
5537,-0.015,-0.275
5538,-0.020,-0.250
5539,-0.020,-0.235
5540,-0.005,-0.225
5541,0.000,-0.225
5542,0.000,-0.220
5543,0.010,-0.180
5544,0.020,-0.285
5545,0.015,-0.270
5546,0.030,-0.230
5547,0.045,-0.150
5548,0.090,-0.195
5549,0.090,-0.165
5550,0.105,-0.225
5551,0.120,-0.155
5552,0.130,-0.125
5553,0.165,-0.190
5554,0.180,-0.185
5555,0.240,-0.185
5556,0.255,-0.135
5557,0.275,-0.080
5558,0.300,-0.040
5559,0.300,0.000
5560,0.330,0.010
5561,0.310,-0.015
5562,0.315,-0.020
5563,0.305,0.025
5564,0.285,-0.010
5565,0.235,0.030
5566,0.215,0.115
5567,0.160,0.045
5568,0.130,0.075
5569,0.105,0.065
5570,0.070,-0.200
5571,0.075,-0.095
5572,0.065,-0.065
5573,0.030,-0.190
5574,0.045,-0.175
5575,0.045,-0.070
5576,0.020,-0.020
5577,0.025,-0.025
5578,0.020,-0.220
5579,0.020,-0.215
5580,0.045,-0.210
5581,0.050,-0.200
5582,0.035,-0.120
5583,0.045,-0.035
5584,0.035,-0.150
5585,0.035,-0.140
5586,0.035,-0.040
5587,0.035,-0.180
5588,0.035,-0.310
5589,0.030,-0.200
5590,0.010,-0.185
5591,0.010,-0.160
5592,0.015,-0.150
5593,0.005,-0.155
5594,0.010,-0.135
5595,0.010,-0.125
5596,0.025,-0.115
5597,0.005,-0.145
5598,0.030,-0.190
5599,0.005,-0.180
5600,0.005,-0.140
5601,0.000,-0.140
5602,0.000,-0.125
5603,0.000,-0.170
5604,0.000,-0.210
5605,0.000,-0.170
5606,0.005,-0.050
5607,0.000,-0.145
5608,0.020,-0.190
5609,0.040,-0.100
5610,0.035,-0.070
5611,0.085,-0.085
5612,0.075,-0.045
5613,0.055,-0.025
5614,0.050,-0.060
5615,0.000,-0.075
5616,-0.005,-0.070
5617,-0.005,-0.045
5618,0.010,-0.020
5619,0.005,-0.180
5620,0.015,-0.205
5621,0.000,-0.190
5622,-0.015,-0.270
5623,-0.005,-0.260
5624,-0.005,-0.200
5625,-0.035,-0.265
5626,-0.020,-0.295
5627,-0.020,-0.355
5628,0.000,-0.350
5629,0.000,0.010
5630,0.105,0.875
5631,0.330,2.135
5632,0.435,2.935
5633,0.330,1.495
5634,-0.025,0.350
5635,-0.350,-0.015
5636,-0.260,-0.065
5637,-0.080,-0.215
5638,-0.010,-0.315
5639,-0.015,-0.305
5640,-0.005,-0.265
5641,0.000,-0.315
5642,0.000,-0.405
5643,0.015,-0.360
5644,0.020,-0.345
5645,0.005,-0.390
5646,0.000,-0.365
5647,0.030,-0.415
5648,0.035,-0.390
5649,0.025,-0.270
5650,0.035,-0.175
5651,0.030,-0.425
5652,0.060,-0.425
5653,0.070,-0.310
5654,0.085,-0.270
5655,0.075,-0.260
5656,0.090,-0.255
5657,0.115,-0.395
5658,0.155,-0.365
5659,0.190,-0.280
5660,0.185,-0.235
5661,0.210,-0.240
5662,0.240,-0.250
5663,0.270,-0.220
5664,0.280,-0.200
5665,0.280,-0.180
5666,0.305,-0.165
5667,0.325,-0.145
5668,0.305,-0.100
5669,0.295,-0.075
5670,0.265,-0.065
5671,0.240,-0.045
5672,0.190,-0.070
5673,0.160,-0.105
5674,0.105,-0.145
5675,0.080,-0.175
5676,0.050,-0.190
5677,0.035,-0.225
5678,0.035,-0.260
5679,0.035,-0.265
5680,0.015,-0.295
5681,0.010,-0.295
5682,0.035,-0.315
5683,0.025,-0.290
5684,0.015,-0.280
5685,0.025,-0.305
5686,0.030,-0.270
5687,0.020,-0.275
5688,0.030,-0.310
5689,0.020,-0.325
5690,0.030,-0.305
5691,0.010,-0.295
5692,0.040,-0.305
5693,0.040,-0.260
5694,0.035,-0.235
5695,0.045,-0.260
5696,0.045,-0.320
5697,0.035,-0.280
5698,0.025,-0.285
5699,0.040,-0.265
5700,0.025,-0.300
5701,0.060,-0.315
5702,0.035,-0.280
5703,0.050,-0.315
5704,0.030,-0.330
5705,0.040,-0.290
5706,0.025,-0.290
5707,0.015,-0.300
5708,0.030,-0.330
5709,0.025,-0.335
5710,0.035,-0.340
5711,0.050,-0.310
5712,0.025,-0.290
5713,0.035,-0.305
5714,0.050,-0.265
5715,0.035,-0.225
5716,0.100,-0.250
5717,0.090,-0.215
5718,0.135,-0.165
5719,0.120,-0.185
5720,0.075,-0.190
5721,0.020,-0.150
5722,0.060,-0.195
5723,0.040,-0.300
5724,0.015,-0.310
5725,0.025,-0.365
5726,0.000,-0.400
5727,0.020,-0.445
5728,0.025,-0.470
5729,0.025,-0.435
5730,0.015,-0.370
5731,0.000,-0.365
5732,0.000,-0.435
5733,0.000,-0.540
5734,0.010,-0.530
5735,0.025,-0.080
5736,0.170,0.790
5737,0.390,1.880
5738,0.395,2.335
5739,0.320,1.150
5740,0.020,0.110
5741,-0.315,-0.230
5742,-0.220,-0.315
5743,-0.040,-0.435
5744,0.030,-0.490
5745,0.050,-0.520
5746,0.055,-0.575
5747,0.075,-0.540
5748,0.070,-0.550
5749,0.040,-0.600
5750,0.065,-0.590
5751,0.070,-0.560
5752,0.055,-0.570
5753,0.035,-0.545
5754,0.045,-0.570
5755,0.065,-0.590
5756,0.100,-0.590
5757,0.120,-0.540
5758,0.100,-0.595
5759,0.090,-0.565
5760,0.130,-0.520
5761,0.155,-0.550
5762,0.105,-0.535
5763,0.145,-0.505
5764,0.175,-0.500
5765,0.235,-0.475
5766,0.250,-0.465
5767,0.215,-0.450
5768,0.215,-0.495
5769,0.270,-0.515
5770,0.325,-0.495
5771,0.295,-0.460
5772,0.300,-0.455
5773,0.285,-0.430
5774,0.320,-0.460
5775,0.290,-0.395
5776,0.275,-0.330
5777,0.280,-0.350
5778,0.240,-0.395
5779,0.200,-0.385
5780,0.140,-0.410
5781,0.055,-0.455
5782,0.140,-0.500
5783,0.125,-0.520
5784,0.000,-0.520
5785,0.025,-0.550
5786,0.035,-0.545
5787,0.050,-0.530
5788,0.060,-0.550
5789,0.065,-0.565
5790,0.020,-0.585
5791,0.030,-0.545
5792,0.060,-0.515
5793,0.040,-0.575
5794,0.025,-0.570
5795,0.035,-0.535
5796,0.085,-0.520
5797,0.050,-0.515
5798,0.050,-0.535
5799,0.025,-0.525
5800,0.025,-0.505
5801,0.060,-0.585
5802,0.015,-0.620
5803,0.050,-0.545
5804,0.120,-0.555
5805,0.030,-0.580
5806,-0.030,-0.565
5807,0.015,-0.560
5808,0.025,-0.570
5809,0.025,-0.570
5810,0.045,-0.505
5811,0.050,-0.555
5812,0.025,-0.600
5813,0.000,-0.600
5814,0.010,-0.525
5815,0.030,-0.600
5816,0.035,-0.660
5817,0.030,-0.700
5818,0.035,-0.580
5819,0.035,-0.530
5820,0.010,-0.450
5821,0.085,-0.450
5822,0.115,-0.395
5823,0.115,-0.355
5824,0.115,-0.370
5825,0.070,-0.455
5826,0.040,-0.485
5827,0.000,-0.425
5828,0.000,-0.445
5829,0.030,-0.455
5830,0.030,-0.510
5831,0.055,-0.625
5832,0.025,-0.600
5833,0.025,-0.585
5834,0.015,-0.575
5835,0.015,-0.580
5836,0.020,-0.550
5837,0.015,-0.595
5838,0.025,-0.675
5839,0.025,-0.705
5840,0.070,-0.275
5841,0.155,0.605
5842,0.320,1.640
5843,0.355,2.005
5844,0.185,0.850
5845,-0.095,-0.220
5846,-0.350,-0.435
5847,-0.230,-0.505
5848,-0.055,-0.550
5849,0.035,-0.595
5850,0.050,-0.640
5851,0.050,-0.660
5852,0.050,-0.655
5853,0.065,-0.650
5854,0.070,-0.670
5855,0.075,-0.690
5856,0.070,-0.665
5857,0.085,-0.655
5858,0.075,-0.665
5859,0.080,-0.650
5860,0.090,-0.635
5861,0.105,-0.630
5862,0.110,-0.620
5863,0.115,-0.625
5864,0.115,-0.610
5865,0.115,-0.570
5866,0.150,-0.555
5867,0.135,-0.560
5868,0.175,-0.560
5869,0.180,-0.520
5870,0.175,-0.495
5871,0.210,-0.490
5872,0.230,-0.465
5873,0.255,-0.445
5874,0.270,-0.430
5875,0.275,-0.420
5876,0.280,-0.425
5877,0.300,-0.410
5878,0.290,-0.365
5879,0.290,-0.370
5880,0.275,-0.340
5881,0.260,-0.335
5882,0.240,-0.305
5883,0.205,-0.295
5884,0.155,-0.310
5885,0.135,-0.340
5886,0.085,-0.360
5887,0.070,-0.440
5888,0.055,-0.460
5889,0.040,-0.470
5890,0.005,-0.505
5891,0.005,-0.515
5892,0.025,-0.520
5893,0.000,-0.510
5894,0.000,-0.505
5895,0.000,-0.530
5896,-0.015,-0.555
5897,0.000,-0.550
5898,-0.010,-0.535
5899,0.000,-0.510
5900,0.000,-0.495
5901,-0.005,-0.515
5902,0.005,-0.530
5903,-0.015,-0.510
5904,-0.005,-0.505
5905,0.020,-0.520
5906,-0.015,-0.510
5907,-0.035,-0.530
5908,-0.010,-0.505
5909,-0.015,-0.520
5910,-0.020,-0.525
5911,0.000,-0.520
5912,-0.010,-0.520
5913,-0.010,-0.515
5914,0.005,-0.550
5915,0.000,-0.520
5916,-0.040,-0.535
5917,-0.045,-0.535
5918,-0.045,-0.570
5919,-0.040,-0.550
5920,-0.045,-0.535
5921,-0.040,-0.505
5922,-0.010,-0.500
5923,-0.025,-0.490
5924,-0.035,-0.460
5925,-0.025,-0.400
5926,0.005,-0.395
5927,0.040,-0.385
5928,0.050,-0.365
5929,0.020,-0.345
5930,-0.015,-0.405
5931,-0.025,-0.450
5932,-0.020,-0.450
5933,-0.085,-0.440
5934,-0.095,-0.410
5935,-0.085,-0.440
5936,-0.045,-0.515
5937,-0.070,-0.555
5938,-0.065,-0.560
5939,-0.075,-0.560
5940,-0.075,-0.550
5941,-0.045,-0.545
5942,-0.060,-0.535
5943,-0.070,-0.550
5944,-0.055,-0.625
5945,-0.040,-0.610
5946,-0.005,-0.060
5947,0.115,0.860
5948,0.265,1.760
5949,0.200,1.830
5950,0.070,0.560
5951,-0.235,-0.240
5952,-0.430,-0.390
5953,-0.265,-0.435
5954,-0.105,-0.485
5955,-0.020,-0.550
5956,-0.025,-0.560
5957,-0.010,-0.580
5958,-0.005,-0.600
5959,-0.010,-0.560
5960,0.005,-0.565
5961,0.010,-0.565
5962,0.020,-0.600
5963,0.030,-0.565
5964,0.020,-0.525
5965,0.035,-0.560
5966,0.010,-0.550
5967,0.020,-0.515
5968,0.040,-0.510
5969,0.045,-0.500
5970,0.060,-0.505
5971,0.070,-0.500
5972,0.065,-0.490
5973,0.100,-0.475
5974,0.095,-0.480
5975,0.120,-0.450
5976,0.135,-0.450
5977,0.160,-0.435
5978,0.185,-0.410
5979,0.195,-0.380
5980,0.230,-0.385
5981,0.230,-0.335
5982,0.240,-0.335
5983,0.240,-0.320
5984,0.260,-0.320
5985,0.275,-0.295
5986,0.270,-0.265
5987,0.245,-0.225
5988,0.225,-0.220
5989,0.200,-0.230
5990,0.160,-0.245
5991,0.130,-0.255
5992,0.125,-0.295
5993,0.085,-0.345
5994,0.060,-0.365
5995,0.000,-0.345
5996,-0.010,-0.340
5997,0.000,-0.370
5998,0.000,-0.395
5999,-0.005,-0.385
6000,-0.020,-0.405
6001,0.000,-0.425
6002,0.005,-0.415
6003,0.000,-0.425
6004,-0.020,-0.405
6005,-0.015,-0.390
6006,-0.015,-0.405
6007,-0.015,-0.415
6008,-0.025,-0.410
6009,-0.035,-0.415
6010,-0.030,-0.410
6011,-0.025,-0.415
6012,-0.010,-0.440
6013,-0.035,-0.425
6014,-0.035,-0.415
6015,-0.060,-0.425
6016,-0.030,-0.415
6017,-0.045,-0.435
6018,-0.040,-0.450
6019,-0.065,-0.450
6020,-0.045,-0.425
6021,-0.050,-0.445
6022,-0.055,-0.430
6023,-0.055,-0.425
6024,-0.065,-0.435
6025,-0.070,-0.445
6026,-0.060,-0.440
6027,-0.050,-0.445
6028,-0.065,-0.425
6029,-0.080,-0.410
6030,-0.060,-0.390
6031,-0.030,-0.360
6032,-0.005,-0.365
6033,0.000,-0.325
6034,0.010,-0.290
6035,0.010,-0.295
6036,-0.015,-0.310
6037,-0.045,-0.360
6038,-0.070,-0.360
6039,-0.075,-0.345
6040,-0.075,-0.380
6041,-0.085,-0.405
6042,-0.065,-0.465
6043,-0.050,-0.510
6044,-0.075,-0.500
6045,-0.075,-0.500
6046,-0.085,-0.490
6047,-0.090,-0.495
6048,-0.090,-0.505
6049,-0.085,-0.525
6050,-0.075,-0.580
6051,-0.060,-0.580
6052,-0.035,-0.040
6053,0.110,0.820
6054,0.230,1.695
6055,0.175,1.600
6056,0.000,0.390
6057,-0.250,-0.220
6058,-0.395,-0.320
6059,-0.270,-0.390
6060,-0.110,-0.480
6061,-0.065,-0.540
6062,-0.060,-0.580
6063,-0.050,-0.585
6064,-0.060,-0.565
6065,-0.045,-0.585
6066,-0.040,-0.575
6067,-0.040,-0.590
6068,-0.035,-0.600
6069,-0.035,-0.595
6070,-0.030,-0.580
6071,-0.025,-0.580
6072,-0.030,-0.570
6073,-0.015,-0.570
6074,-0.010,-0.560
6075,0.000,-0.555
6076,0.015,-0.545
6077,0.030,-0.505
6078,0.010,-0.520
6079,0.040,-0.500
6080,0.040,-0.495
6081,0.050,-0.455
6082,0.085,-0.460
6083,0.115,-0.450
6084,0.125,-0.415
6085,0.130,-0.415
6086,0.170,-0.395
6087,0.170,-0.370
6088,0.190,-0.360
6089,0.205,-0.350
6090,0.200,-0.300
6091,0.185,-0.270
6092,0.175,-0.280
6093,0.150,-0.265
6094,0.140,-0.240
6095,0.095,-0.280
6096,0.055,-0.285
6097,0.025,-0.315
6098,-0.005,-0.355
6099,-0.025,-0.370
6100,-0.050,-0.410
6101,-0.025,-0.440
6102,-0.055,-0.445
6103,-0.070,-0.470
6104,-0.065,-0.445
6105,-0.065,-0.455
6106,-0.055,-0.465
6107,-0.055,-0.465
6108,-0.060,-0.480
6109,-0.065,-0.475
6110,-0.065,-0.465
6111,-0.060,-0.500
6112,-0.070,-0.510
6113,-0.080,-0.485
6114,-0.085,-0.485
6115,-0.075,-0.490
6116,-0.075,-0.490
6117,-0.085,-0.505
6118,-0.070,-0.515
6119,-0.085,-0.510
6120,-0.095,-0.490
6121,-0.075,-0.500
6122,-0.105,-0.505
6123,-0.105,-0.535
6124,-0.115,-0.495
6125,-0.100,-0.480
6126,-0.105,-0.515
6127,-0.115,-0.515
6128,-0.110,-0.480
6129,-0.100,-0.490
6130,-0.115,-0.485
6131,-0.110,-0.465
6132,-0.115,-0.450
6133,-0.055,-0.420
6134,-0.050,-0.420
6135,-0.015,-0.405
6136,-0.025,-0.375
6137,-0.040,-0.340
6138,-0.085,-0.390
6139,-0.110,-0.425
6140,-0.120,-0.410
6141,-0.135,-0.400
6142,-0.115,-0.415
6143,-0.110,-0.505
6144,-0.115,-0.520
6145,-0.135,-0.525
6146,-0.130,-0.530
6147,-0.130,-0.550
6148,-0.160,-0.540
6149,-0.150,-0.540
6150,-0.145,-0.555
6151,-0.135,-0.640
6152,-0.120,-0.625
6153,-0.080,-0.035
6154,0.025,0.940
6155,0.150,1.930
6156,0.115,1.930
6157,-0.030,0.640
6158,-0.300,-0.270
6159,-0.445,-0.430
6160,-0.325,-0.460
6161,-0.165,-0.545
6162,-0.120,-0.610
6163,-0.125,-0.615
6164,-0.115,-0.615
6165,-0.125,-0.635
6166,-0.130,-0.615
6167,-0.085,-0.615
6168,-0.075,-0.595
6169,-0.095,-0.605
6170,-0.080,-0.605
6171,-0.095,-0.620
6172,-0.080,-0.600
6173,-0.070,-0.575
6174,-0.070,-0.570
6175,-0.050,-0.555
6176,-0.045,-0.525
6177,-0.045,-0.515
6178,-0.050,-0.510
6179,-0.030,-0.510
6180,-0.025,-0.480
6181,0.020,-0.445
6182,0.030,-0.415
6183,0.060,-0.420
6184,0.050,-0.390
6185,0.100,-0.365
6186,0.100,-0.345
6187,0.130,-0.320
6188,0.145,-0.330
6189,0.140,-0.300
6190,0.130,-0.270
6191,0.125,-0.240
6192,0.110,-0.220
6193,0.100,-0.205
6194,0.055,-0.225
6195,0.000,-0.220
6196,-0.020,-0.260
6197,-0.045,-0.300
6198,-0.070,-0.320
6199,-0.070,-0.375
6200,-0.105,-0.405
6201,-0.095,-0.415
6202,-0.115,-0.430
6203,-0.110,-0.445
6204,-0.120,-0.440
6205,-0.115,-0.450
6206,-0.120,-0.435
6207,-0.120,-0.430
6208,-0.110,-0.420
6209,-0.105,-0.425
6210,-0.115,-0.425
6211,-0.110,-0.445
6212,-0.125,-0.445
6213,-0.105,-0.415
6214,-0.115,-0.385
6215,-0.110,-0.400
6216,-0.110,-0.410
6217,-0.105,-0.410
6218,-0.120,-0.400
6219,-0.110,-0.405
6220,-0.115,-0.385
6221,-0.135,-0.390
6222,-0.135,-0.405
6223,-0.120,-0.420
6224,-0.120,-0.395
6225,-0.125,-0.400
6226,-0.130,-0.415
6227,-0.135,-0.385
6228,-0.155,-0.405
6229,-0.120,-0.410
6230,-0.150,-0.420
6231,-0.150,-0.390
6232,-0.145,-0.360
6233,-0.120,-0.325
6234,-0.080,-0.345
6235,-0.060,-0.290
6236,-0.050,-0.275
6237,-0.095,-0.275
6238,-0.110,-0.285
6239,-0.150,-0.295
6240,-0.165,-0.330
6241,-0.160,-0.300
6242,-0.145,-0.335
6243,-0.130,-0.395
6244,-0.140,-0.450
6245,-0.150,-0.440
6246,-0.140,-0.440
6247,-0.165,-0.445
6248,-0.155,-0.430
6249,-0.165,-0.405
6250,-0.160,-0.415
6251,-0.150,-0.480
6252,-0.140,-0.600
6253,-0.140,-0.240
6254,-0.040,0.740
6255,0.115,1.955
6256,0.140,2.595
6257,0.040,1.465
6258,-0.235,0.245
6259,-0.480,-0.210
6260,-0.400,-0.290
6261,-0.235,-0.370
6262,-0.150,-0.420
6263,-0.150,-0.465
6264,-0.155,-0.495
6265,-0.130,-0.530
6266,-0.120,-0.500
6267,-0.125,-0.530
6268,-0.105,-0.520
6269,-0.120,-0.480
6270,-0.115,-0.490
6271,-0.135,-0.490
6272,-0.120,-0.490
6273,-0.130,-0.495
6274,-0.100,-0.510
6275,-0.085,-0.485
6276,-0.115,-0.450
6277,-0.080,-0.455
6278,-0.065,-0.445
6279,-0.075,-0.425
6280,-0.055,-0.410
6281,-0.035,-0.400
6282,-0.035,-0.385
6283,-0.010,-0.350
6284,0.005,-0.330
6285,0.020,-0.330
6286,0.035,-0.310
6287,0.060,-0.270
6288,0.090,-0.260
6289,0.110,-0.240
6290,0.120,-0.235
6291,0.125,-0.210
6292,0.110,-0.150
6293,0.105,-0.165
6294,0.100,-0.180
6295,0.040,-0.145
6296,0.015,-0.150
6297,-0.015,-0.185
6298,-0.070,-0.215
6299,-0.095,-0.240
6300,-0.100,-0.280
6301,-0.130,-0.310
6302,-0.150,-0.355
6303,-0.145,-0.365
6304,-0.140,-0.355
6305,-0.150,-0.360
6306,-0.150,-0.380
6307,-0.140,-0.415
6308,-0.150,-0.405
6309,-0.150,-0.390
6310,-0.165,-0.380
6311,-0.165,-0.390
6312,-0.150,-0.405
6313,-0.145,-0.405
6314,-0.155,-0.405
6315,-0.130,-0.405
6316,-0.155,-0.390
6317,-0.175,-0.405
6318,-0.150,-0.400
6319,-0.160,-0.400
6320,-0.155,-0.395
6321,-0.160,-0.415
6322,-0.165,-0.410
6323,-0.160,-0.400
6324,-0.160,-0.380
6325,-0.150,-0.390
6326,-0.145,-0.390
6327,-0.150,-0.380
6328,-0.185,-0.410
6329,-0.160,-0.405
6330,-0.165,-0.395
6331,-0.155,-0.380
6332,-0.165,-0.395
6333,-0.160,-0.380
6334,-0.175,-0.370
6335,-0.170,-0.335
6336,-0.160,-0.325
6337,-0.125,-0.315
6338,-0.105,-0.275
6339,-0.065,-0.245
6340,-0.085,-0.225
6341,-0.105,-0.230
6342,-0.135,-0.270
6343,-0.170,-0.285
6344,-0.170,-0.280
6345,-0.165,-0.265
6346,-0.165,-0.270
6347,-0.160,-0.335
6348,-0.155,-0.400
6349,-0.170,-0.420
6350,-0.170,-0.435
6351,-0.165,-0.425
6352,-0.160,-0.400
6353,-0.165,-0.390
6354,-0.170,-0.400
6355,-0.170,-0.425
6356,-0.165,-0.545
6357,-0.135,-0.455
6358,-0.100,0.290
6359,0.035,1.405
6360,0.150,2.480
6361,0.085,2.140
6362,-0.105,0.710
6363,-0.410,-0.125
6364,-0.515,-0.285
6365,-0.350,-0.310
6366,-0.220,-0.385
6367,-0.145,-0.450
6368,-0.160,-0.485
6369,-0.140,-0.490
6370,-0.145,-0.495
6371,-0.140,-0.495
6372,-0.130,-0.470
6373,-0.135,-0.485
6374,-0.135,-0.465
6375,-0.140,-0.485
6376,-0.125,-0.460
6377,-0.125,-0.455
6378,-0.120,-0.455
6379,-0.115,-0.460
6380,-0.095,-0.460
6381,-0.095,-0.445
6382,-0.065,-0.425
6383,-0.065,-0.395
6384,-0.065,-0.390
6385,-0.055,-0.390
6386,-0.035,-0.345
6387,-0.010,-0.340
6388,0.005,-0.305
6389,0.025,-0.290
6390,0.025,-0.280
6391,0.060,-0.255
6392,0.100,-0.225
6393,0.080,-0.210
6394,0.110,-0.185
6395,0.120,-0.165
6396,0.130,-0.155
6397,0.110,-0.125
6398,0.100,-0.115
6399,0.090,-0.120
6400,0.040,-0.095
6401,0.005,-0.100
6402,-0.045,-0.140
6403,-0.065,-0.160
6404,-0.085,-0.185
6405,-0.100,-0.215
6406,-0.140,-0.260
6407,-0.160,-0.305
6408,-0.185,-0.305
6409,-0.175,-0.320
6410,-0.190,-0.335
6411,-0.175,-0.345
6412,-0.185,-0.325
6413,-0.170,-0.345
6414,-0.180,-0.345
6415,-0.195,-0.355
6416,-0.195,-0.360
6417,-0.175,-0.370
6418,-0.175,-0.360
6419,-0.175,-0.345
6420,-0.170,-0.350
6421,-0.185,-0.365
6422,-0.190,-0.370
6423,-0.160,-0.350
6424,-0.175,-0.350
6425,-0.195,-0.335
6426,-0.175,-0.350
6427,-0.185,-0.345
6428,-0.175,-0.350
6429,-0.185,-0.350
6430,-0.195,-0.340
6431,-0.185,-0.350
6432,-0.190,-0.345
6433,-0.190,-0.345
6434,-0.190,-0.345
6435,-0.190,-0.330
6436,-0.180,-0.355
6437,-0.190,-0.360
6438,-0.190,-0.350
6439,-0.215,-0.355
6440,-0.190,-0.350
6441,-0.205,-0.330
6442,-0.195,-0.300
6443,-0.175,-0.275
6444,-0.155,-0.270
6445,-0.110,-0.230
6446,-0.095,-0.225
6447,-0.115,-0.200
6448,-0.155,-0.215
6449,-0.175,-0.250
6450,-0.195,-0.260
6451,-0.215,-0.265
6452,-0.205,-0.260
6453,-0.195,-0.280
6454,-0.190,-0.365
6455,-0.190,-0.415
6456,-0.210,-0.395
6457,-0.200,-0.405
6458,-0.200,-0.405
6459,-0.195,-0.420
6460,-0.210,-0.415
6461,-0.195,-0.400
6462,-0.190,-0.485
6463,-0.200,-0.600
6464,-0.160,-0.255
6465,-0.070,0.630
6466,0.085,1.700
6467,0.110,2.315
6468,0.010,1.400
6469,-0.210,0.265
6470,-0.455,-0.170
6471,-0.465,-0.275
6472,-0.260,-0.330
6473,-0.165,-0.395
6474,-0.125,-0.445
6475,-0.135,-0.475
6476,-0.125,-0.475
6477,-0.110,-0.480
6478,-0.100,-0.495
6479,-0.110,-0.495
6480,-0.100,-0.495
6481,-0.090,-0.490
6482,-0.090,-0.485
6483,-0.110,-0.470
6484,-0.115,-0.495
6485,-0.085,-0.480
6486,-0.080,-0.470
6487,-0.075,-0.460
6488,-0.070,-0.450
6489,-0.045,-0.465
6490,-0.045,-0.415
6491,-0.020,-0.415
6492,-0.025,-0.420
6493,-0.020,-0.400
6494,-0.020,-0.355
6495,0.010,-0.350
6496,0.030,-0.330
6497,0.050,-0.325
6498,0.070,-0.285
6499,0.085,-0.275
6500,0.095,-0.270
6501,0.130,-0.240
6502,0.130,-0.240
6503,0.120,-0.195
6504,0.130,-0.195
6505,0.105,-0.175
6506,0.075,-0.160
6507,0.075,-0.170
6508,0.045,-0.195
6509,0.000,-0.210
6510,-0.025,-0.215
6511,-0.065,-0.265
6512,-0.100,-0.310
6513,-0.105,-0.345
6514,-0.105,-0.360
6515,-0.115,-0.375
6516,-0.130,-0.385
6517,-0.130,-0.385
6518,-0.100,-0.405
6519,-0.090,-0.400
6520,-0.120,-0.410
6521,-0.155,-0.395
6522,-0.140,-0.430
6523,-0.150,-0.435
6524,-0.150,-0.445
6525,-0.155,-0.435
6526,-0.135,-0.440
6527,-0.155,-0.420
6528,-0.140,-0.445
6529,-0.180,-0.440
6530,-0.170,-0.450
6531,-0.160,-0.425
6532,-0.180,-0.445
6533,-0.175,-0.445
6534,-0.160,-0.450
6535,-0.170,-0.450
6536,-0.195,-0.460
6537,-0.185,-0.465
6538,-0.190,-0.440
6539,-0.195,-0.440
6540,-0.205,-0.455
6541,-0.180,-0.445
6542,-0.200,-0.470
6543,-0.200,-0.465
6544,-0.195,-0.465
6545,-0.205,-0.490
6546,-0.195,-0.490
6547,-0.200,-0.500
6548,-0.185,-0.480
6549,-0.180,-0.465
6550,-0.180,-0.445
6551,-0.155,-0.410
6552,-0.155,-0.415
6553,-0.130,-0.375
6554,-0.110,-0.370
6555,-0.140,-0.355
6556,-0.150,-0.395
6557,-0.145,-0.435
6558,-0.165,-0.415
6559,-0.260,-0.410
6560,-0.225,-0.405
6561,-0.205,-0.470
6562,-0.190,-0.535
6563,-0.215,-0.540
6564,-0.225,-0.550
6565,-0.220,-0.550
6566,-0.220,-0.535
6567,-0.215,-0.550
6568,-0.205,-0.540
6569,-0.205,-0.560
6570,-0.220,-0.670
6571,-0.175,-0.605
6572,-0.140,0.040
6573,0.000,1.000
6574,0.125,1.920
6575,0.085,1.910
6576,-0.065,0.620
6577,-0.320,-0.235
6578,-0.490,-0.415
6579,-0.375,-0.460
6580,-0.225,-0.550
6581,-0.195,-0.570
6582,-0.190,-0.600
6583,-0.200,-0.615
6584,-0.180,-0.630
6585,-0.180,-0.625
6586,-0.180,-0.625
6587,-0.150,-0.640
6588,-0.180,-0.650
6589,-0.185,-0.650
6590,-0.155,-0.620
6591,-0.160,-0.610
6592,-0.140,-0.605
6593,-0.115,-0.595
6594,-0.120,-0.590
