'sample interval','ECG0','ECG1'
'0.0078125 sec','mV','mV'
0,-2.465,-0.750
1,-2.045,-0.835
2,-0.805,-0.900
3,-0.060,-0.750
4,0.260,-0.530
5,0.325,-0.290
6,0.375,-0.160
7,0.500,-0.080
8,0.390,-0.015
9,0.405,0.000
10,0.375,0.000
11,0.365,0.000
12,0.410,0.070
13,0.365,0.010
14,0.415,0.030
15,0.455,0.070
16,0.485,0.065
17,0.510,0.100
18,0.540,0.070
19,0.540,-0.005
20,0.570,0.005
21,0.595,0.040
22,0.630,0.005
23,0.650,0.050
24,0.600,0.015
25,0.575,0.105
26,0.580,0.145
27,0.550,0.140
28,0.465,0.200
29,0.445,0.235
30,0.385,0.185
31,0.325,0.210
32,0.355,0.220
33,0.350,0.275
34,0.315,0.215
35,0.365,0.165
36,0.320,0.190
37,0.310,0.235
38,0.295,0.100
39,0.235,0.015
40,0.210,-0.025
41,0.230,0.015
42,0.245,0.055
43,0.225,0.030
44,0.220,0.070
45,0.225,-0.050
46,0.205,-0.010
47,0.205,0.035
48,0.240,0.065
49,0.220,0.045
50,0.185,0.100
51,0.245,0.220
52,0.310,0.350
53,0.350,0.375
54,0.260,0.520
55,0.215,0.525
56,0.195,0.630
57,0.160,0.450
58,0.075,0.255
59,0.075,0.080
60,0.095,0.055
61,0.135,0.010
62,0.160,-0.070
63,0.120,-0.075
64,0.080,-0.165
65,0.100,-0.075
66,0.115,-0.100
67,0.105,-0.125
68,0.110,-0.180
69,0.130,-0.140
70,0.125,-0.080
71,0.065,-0.110
72,0.075,-0.110
73,0.190,-0.105
74,-0.045,-0.005
75,-1.335,0.000
76,-2.190,0.795
77,-2.465,0.695
78,-2.475,-0.725
79,-2.115,-0.710
80,-0.910,-0.670
81,-0.095,-0.625
82,0.250,-0.365
83,0.295,-0.125
84,0.325,-0.040
85,0.355,0.035
86,0.380,0.000
87,0.395,0.100
88,0.435,0.160
89,0.425,0.015
90,0.425,0.120
91,0.435,0.170
92,0.455,0.145
93,0.435,0.160
94,0.475,0.150
95,0.495,0.130
96,0.515,0.105
97,0.560,0.175
98,0.580,0.205
99,0.585,0.115
100,0.560,0.000
101,0.600,0.085
102,0.595,0.120
103,0.565,0.115
104,0.550,0.175
105,0.515,0.180
106,0.465,0.260
107,0.450,0.305
108,0.365,0.275
109,0.345,0.245
110,0.330,0.255
111,0.260,0.230
112,0.310,0.235
113,0.295,0.275
114,0.265,0.275
115,0.255,0.110
116,0.260,0.085
117,0.290,0.100
118,0.255,0.075
119,0.250,0.105
120,0.250,0.155
121,0.225,0.080
122,0.200,0.025
123,0.210,0.105
124,0.210,0.145
125,0.190,0.110
126,0.195,0.105
127,0.220,0.070
128,0.265,0.300
129,0.375,0.440
130,0.350,0.380
131,0.310,0.520
132,0.230,0.670
133,0.225,0.605
134,0.175,0.460
135,0.110,0.295
136,0.060,0.205
137,0.085,0.140
138,0.145,0.055
139,0.165,-0.005
140,0.130,-0.060
141,0.090,-0.085
142,0.140,-0.135
143,0.125,-0.060
144,0.100,0.000
145,0.115,-0.025
146,0.130,-0.035
147,0.110,-0.135
148,0.105,-0.020
149,0.120,-0.025
150,0.305,0.240
151,-0.305,0.195
152,-1.615,0.175
153,-2.255,1.125
154,-2.465,0.340
155,-2.310,-0.605
156,-1.260,-0.425
157,-0.355,-0.625
158,0.145,-0.350
159,0.280,-0.100
160,0.325,0.020
161,0.350,0.015
162,0.350,0.105
163,0.360,0.160
164,0.385,0.125
165,0.400,0.140
166,0.430,0.260
167,0.445,0.265
168,0.455,0.195
169,0.445,0.050
170,0.470,0.075
171,0.485,0.000
172,0.490,0.000
173,0.510,-0.005
174,0.500,0.020
175,0.525,0.025
176,0.520,0.010
177,0.525,-0.025
178,0.515,0.060
179,0.495,0.045
180,0.445,-0.085
181,0.445,0.000
182,0.385,0.040
183,0.315,0.065
184,0.275,0.130
185,0.275,0.075
186,0.235,0.110
187,0.205,0.105
188,0.180,-0.030
189,0.175,-0.110
190,0.185,-0.015
191,0.140,-0.100
192,0.155,0.010
193,0.130,-0.050
194,0.110,-0.170
195,0.075,-0.040
196,0.085,-0.070
197,0.065,-0.085
198,0.050,-0.095
199,0.040,-0.070
200,0.050,-0.085
201,0.030,-0.080
202,0.035,-0.090
203,0.075,0.035
204,0.165,0.160
205,0.125,0.065
206,0.070,0.170
207,0.015,0.310
208,0.000,0.385
209,-0.025,0.260
210,-0.090,0.015
211,-0.090,-0.040
212,-0.075,-0.190
213,-0.085,-0.260
214,-0.060,-0.250
215,-0.090,-0.350
216,-0.090,-0.285
217,-0.110,-0.325
218,-0.105,-0.280
219,-0.120,-0.340
220,-0.100,-0.305
221,-0.115,-0.315
222,-0.100,-0.340
223,-0.085,-0.355
224,-0.055,-0.260
225,0.005,-0.095
226,-1.045,0.015
227,-1.980,0.940
228,-2.240,1.820
229,-2.290,0.540
230,-1.835,0.065
231,-0.790,-0.490
232,-0.235,-0.700
233,0.110,-0.555
234,0.140,-0.295
235,0.175,-0.140
236,0.195,-0.075
237,0.195,-0.175
238,0.195,-0.130
239,0.250,-0.055
240,0.255,-0.040
241,0.260,-0.015
242,0.260,-0.040
243,0.250,-0.070
244,0.305,-0.045
245,0.305,-0.010
246,0.315,-0.095
247,0.350,-0.145
248,0.355,-0.145
249,0.370,-0.125
250,0.420,-0.115
251,0.395,-0.130
252,0.360,-0.295
253,0.355,-0.220
254,0.365,-0.105
255,0.325,-0.070
256,0.295,-0.090
257,0.235,0.010
258,0.220,0.025
259,0.180,0.065
260,0.190,0.020
261,0.180,0.045
262,0.165,0.070
263,0.170,0.050
264,0.160,0.000
265,0.155,0.100
266,0.155,0.040
267,0.145,0.000
268,0.135,-0.010
269,0.145,0.020
270,0.135,0.020
271,0.130,0.005
272,0.125,-0.015
273,0.105,-0.005
274,0.090,-0.020
275,0.090,0.030
276,0.105,-0.015
277,0.140,-0.020
278,0.180,0.150
279,0.255,0.275
280,0.220,0.260
281,0.160,0.330
282,0.140,0.445
283,0.090,0.400
284,0.030,0.255
285,-0.020,0.090
286,0.000,0.025
287,0.065,-0.055
288,0.055,-0.135
289,0.015,-0.230
290,0.000,-0.275
291,0.000,-0.280
292,0.010,-0.160
293,0.010,-0.140
294,-0.005,-0.205
295,0.000,-0.220
296,0.000,-0.195
297,-0.020,-0.160
298,0.005,-0.095
299,0.205,0.100
300,-0.710,-0.065
301,-2.005,0.540
302,-2.370,1.310
303,-2.530,-0.145
304,-2.185,-0.355
305,-1.210,-0.395
306,-0.330,-0.735
307,0.150,-0.460
308,0.220,-0.150
309,0.260,-0.050
310,0.275,0.020
311,0.300,0.010
312,0.315,-0.045
313,0.345,0.035
314,0.340,0.090
315,0.360,0.135
316,0.395,0.200
317,0.390,0.180
318,0.415,0.115
319,0.440,0.195
320,0.470,0.190
321,0.490,0.095
322,0.495,0.055
323,0.510,0.000
324,0.515,0.095
325,0.515,0.040
326,0.525,0.155
327,0.485,0.100
328,0.495,0.135
329,0.440,0.115
330,0.410,0.195
331,0.360,0.170
332,0.320,0.245
333,0.290,0.195
334,0.280,0.195
335,0.255,0.230
336,0.225,0.185
337,0.200,0.155
338,0.210,0.095
339,0.185,0.000
340,0.175,0.085
341,0.165,0.030
342,0.165,-0.020
343,0.170,0.030
344,0.160,0.075
345,0.175,0.060
346,0.140,-0.025
347,0.135,0.035
348,0.130,-0.015
349,0.095,0.000
350,0.110,0.000
351,0.125,-0.010
352,0.195,0.100
353,0.275,0.355
354,0.260,0.360
355,0.195,0.430
356,0.160,0.305
357,0.105,0.510
358,0.070,0.380
359,0.015,0.195
360,0.010,0.130
361,0.015,0.050
362,0.065,-0.195
363,0.055,-0.175
364,0.055,-0.200
365,0.040,-0.170
366,0.035,-0.230
367,0.030,-0.255
368,0.030,-0.235
369,0.035,-0.305
370,0.030,-0.260
371,0.015,-0.230
372,0.025,-0.215
373,0.030,-0.150
374,0.135,-0.095
375,-0.610,-0.260
376,-1.900,0.010
377,-2.400,0.870
378,-2.560,0.280
379,-2.505,-1.200
380,-1.635,-0.855
381,-0.475,-0.905
382,0.130,-0.560
383,0.270,-0.380
384,0.270,-0.090
385,0.310,0.000
386,0.330,-0.115
387,0.340,-0.080
388,0.345,-0.105
389,0.345,-0.010
390,0.390,0.030
391,0.375,0.015
392,0.410,0.035
393,0.430,0.015
394,0.450,0.050
395,0.455,0.030
396,0.465,-0.005
397,0.505,0.005
398,0.505,0.025
399,0.530,0.060
400,0.560,0.120
401,0.545,0.030
402,0.510,-0.140
403,0.505,-0.085
404,0.485,-0.035
405,0.450,0.025
406,0.395,0.115
407,0.340,0.130
408,0.300,0.100
409,0.280,0.115
410,0.265,0.130
411,0.250,0.100
412,0.225,0.020
413,0.205,0.005
414,0.195,-0.025
415,0.155,-0.105
416,0.170,-0.130
417,0.160,-0.085
418,0.155,-0.160
419,0.145,-0.170
420,0.140,-0.105
421,0.130,-0.040
422,0.115,-0.115
423,0.105,-0.155
424,0.070,-0.125
425,0.085,-0.165
426,0.080,-0.255
427,0.080,-0.175
428,0.105,0.060
429,0.200,0.110
430,0.210,0.105
431,0.145,0.195
432,0.075,0.280
433,0.050,0.300
434,0.035,0.245
435,-0.010,0.120
436,-0.070,0.000
437,-0.055,0.040
438,-0.025,-0.160
439,-0.025,-0.365
440,-0.040,-0.455
441,-0.060,-0.440
442,-0.050,-0.375
443,-0.065,-0.330
444,-0.070,-0.400
445,-0.060,-0.365
446,-0.065,-0.360
447,-0.080,-0.405
448,-0.090,-0.360
449,-0.090,-0.340
450,-0.010,-0.305
451,0.070,-0.160
452,-0.990,-0.145
453,-2.055,0.505
454,-2.445,1.120
455,-2.530,-0.140
456,-2.145,-0.120
457,-1.160,-0.395
458,-0.440,-0.800
459,-0.025,-0.635
460,0.075,-0.430
461,0.090,-0.330
462,0.105,-0.265
463,0.140,-0.260
464,0.125,-0.345
465,0.155,-0.285
466,0.150,-0.250
467,0.145,-0.285
468,0.155,-0.220
469,0.150,-0.305
470,0.185,-0.160
471,0.190,-0.255
472,0.215,-0.315
473,0.205,-0.315
474,0.230,-0.360
475,0.240,-0.330
476,0.245,-0.370
477,0.260,-0.450
478,0.245,-0.410
479,0.245,-0.420
480,0.205,-0.515
481,0.200,-0.450
482,0.180,-0.340
483,0.105,-0.465
484,0.070,-0.375
485,0.040,-0.280
486,0.030,-0.345
487,0.010,-0.300
488,-0.005,-0.260
489,-0.030,-0.305
490,-0.020,-0.320
491,-0.020,-0.370
492,-0.035,-0.400
493,-0.070,-0.405
494,-0.075,-0.410
495,-0.095,-0.350
496,-0.070,-0.285
497,-0.075,-0.310
498,-0.080,-0.370
499,-0.090,-0.370
500,-0.115,-0.415
501,-0.135,-0.400
502,-0.125,-0.400
503,-0.125,-0.400
504,-0.115,-0.335
505,-0.120,-0.300
506,-0.055,-0.215
507,0.005,-0.065
508,-0.030,-0.090
509,-0.050,-0.020
510,-0.105,0.030
511,-0.100,0.160
512,-0.170,0.025
513,-0.210,-0.145
514,-0.235,-0.290
515,-0.160,-0.305
516,-0.185,-0.415
517,-0.190,-0.505
518,-0.190,-0.555
519,-0.200,-0.565
520,-0.215,-0.545
521,-0.195,-0.550
522,-0.185,-0.510
523,-0.165,-0.510
524,-0.190,-0.495
525,-0.175,-0.475
526,-0.185,-0.530
527,-0.190,-0.495
528,-0.125,-0.395
529,-0.045,-0.265
530,-1.090,-0.155
531,-2.065,0.680
532,-2.310,1.695
533,-2.400,0.730
534,-2.170,-0.115
535,-1.120,-0.300
536,-0.465,-0.880
537,-0.040,-0.790
538,0.065,-0.570
539,0.080,-0.420
540,0.105,-0.325
541,0.130,-0.355
542,0.165,-0.345
543,0.170,-0.305
544,0.150,-0.290
545,0.155,-0.265
546,0.190,-0.280
547,0.205,-0.245
548,0.215,-0.250
549,0.220,-0.230
550,0.235,-0.270
551,0.250,-0.250
552,0.270,-0.230
553,0.310,-0.230
554,0.305,-0.255
555,0.330,-0.285
556,0.325,-0.305
557,0.290,-0.315
558,0.280,-0.390
559,0.265,-0.340
560,0.195,-0.340
561,0.175,-0.375
562,0.135,-0.350
563,0.115,-0.315
564,0.085,-0.240
565,0.060,-0.175
566,0.055,-0.220
567,0.075,-0.265
568,0.045,-0.300
569,0.045,-0.300
570,0.020,-0.385
571,-0.010,-0.375
572,0.030,-0.325
573,-0.005,-0.305
574,-0.030,-0.390
575,-0.015,-0.310
576,-0.040,-0.285
577,-0.030,-0.405
578,-0.025,-0.465
579,-0.085,-0.470
580,-0.050,-0.425
581,-0.030,-0.290
582,-0.050,-0.305
583,-0.065,-0.305
584,-0.035,-0.270
585,0.020,-0.225
586,0.080,-0.170
587,0.025,-0.175
588,-0.015,-0.075
589,-0.060,0.065
590,-0.105,0.070
591,-0.105,-0.075
592,-0.170,-0.235
593,-0.165,-0.335
594,-0.115,-0.355
595,-0.135,-0.505
596,-0.115,-0.645
597,-0.130,-0.700
598,-0.145,-0.570
599,-0.150,-0.615
600,-0.135,-0.545
601,-0.130,-0.555
602,-0.125,-0.485
603,-0.125,-0.510
604,-0.115,-0.525
605,-0.130,-0.545
606,-0.105,-0.500
607,0.040,-0.390
608,-0.660,-0.530
609,-1.850,-0.300
610,-2.400,0.490
611,-2.575,-0.165
612,-2.470,-1.040
613,-1.610,-0.835
614,-0.675,-1.255
615,-0.120,-1.020
616,0.095,-0.780
617,0.095,-0.550
618,0.145,-0.580
619,0.130,-0.515
620,0.185,-0.430
621,0.195,-0.460
622,0.205,-0.475
623,0.225,-0.410
624,0.210,-0.390
625,0.255,-0.365
626,0.260,-0.370
627,0.270,-0.345
628,0.300,-0.350
629,0.315,-0.355
630,0.350,-0.375
631,0.355,-0.370
632,0.370,-0.430
633,0.365,-0.425
634,0.390,-0.340
635,0.390,-0.325
636,0.375,-0.405
637,0.350,-0.330
638,0.315,-0.340
639,0.300,-0.310
640,0.230,-0.265
641,0.210,-0.145
642,0.190,-0.230
643,0.160,-0.175
644,0.140,-0.240
645,0.120,-0.295
646,0.085,-0.305
647,0.125,-0.270
648,0.110,-0.380
649,0.095,-0.420
650,0.105,-0.360
651,0.100,-0.355
652,0.080,-0.300
653,0.100,-0.360
654,0.070,-0.380
655,0.060,-0.435
656,0.055,-0.440
657,0.065,-0.470
658,0.055,-0.450
659,0.070,-0.475
660,0.050,-0.495
661,0.090,-0.340
662,0.185,-0.125
663,0.230,-0.170
664,0.170,-0.095
665,0.130,-0.010
666,0.090,0.075
667,0.020,0.025
668,-0.005,-0.110
669,-0.070,-0.300
670,-0.045,-0.440
671,0.000,-0.445
672,0.010,-0.555
673,-0.015,-0.580
674,-0.025,-0.610
675,-0.040,-0.625
676,-0.030,-0.590
677,-0.010,-0.590
678,-0.025,-0.620
679,-0.025,-0.615
680,-0.035,-0.555
681,-0.030,-0.545
682,-0.025,-0.505
683,0.030,-0.505
684,-0.015,-0.340
685,-1.445,-0.495
686,-2.335,0.220
687,-2.605,0.015
688,-2.740,-1.605
689,-2.300,-1.520
690,-0.925,-1.265
691,-0.100,-1.060
692,0.200,-0.720
693,0.235,-0.490
694,0.255,-0.455
695,0.280,-0.400
696,0.275,-0.385
697,0.280,-0.325
698,0.295,-0.320
699,0.300,-0.340
700,0.295,-0.310
701,0.320,-0.310
702,0.330,-0.305
703,0.340,-0.250
704,0.350,-0.335
705,0.370,-0.450
706,0.390,-0.440
707,0.435,-0.385
708,0.430,-0.440
709,0.430,-0.465
710,0.440,-0.425
711,0.435,-0.435
712,0.405,-0.400
713,0.385,-0.405
714,0.320,-0.425
715,0.260,-0.315
716,0.215,-0.290
717,0.180,-0.260
718,0.150,-0.280
719,0.115,-0.300
720,0.095,-0.400
721,0.080,-0.410
722,0.050,-0.405
723,0.055,-0.465
724,0.060,-0.480
725,0.025,-0.500
726,0.045,-0.410
727,0.045,-0.420
728,0.020,-0.550
729,0.000,-0.555
730,-0.005,-0.490
731,-0.025,-0.565
732,-0.030,-0.530
733,-0.020,-0.545
734,-0.035,-0.540
735,-0.040,-0.505
736,-0.010,-0.465
737,0.085,-0.335
738,0.105,-0.295
739,0.045,-0.255
740,-0.015,-0.195
741,-0.030,-0.090
742,-0.100,-0.085
743,-0.105,-0.235
744,-0.175,-0.365
745,-0.130,-0.515
746,-0.095,-0.595
747,-0.115,-0.675
748,-0.160,-0.760
749,-0.135,-0.730
750,-0.155,-0.755
751,-0.160,-0.700
752,-0.165,-0.700
753,-0.150,-0.695
754,-0.145,-0.625
755,-0.175,-0.685
756,-0.185,-0.730
757,-0.170,-0.705
758,-0.025,-0.505
759,-0.820,-0.505
760,-2.005,0.140
761,-2.385,1.105
762,-2.525,0.275
763,-2.260,-0.420
764,-1.185,-0.660
765,-0.400,-1.165
766,-0.005,-1.000
767,0.040,-0.775
768,0.045,-0.610
769,0.085,-0.605
770,0.125,-0.575
771,0.125,-0.610
772,0.145,-0.545
773,0.150,-0.540
774,0.140,-0.545
775,0.115,-0.540
776,0.180,-0.485
777,0.185,-0.485
778,0.180,-0.590
779,0.210,-0.550
780,0.215,-0.595
781,0.245,-0.675
782,0.280,-0.660
783,0.255,-0.575
784,0.280,-0.620
785,0.290,-0.660
786,0.260,-0.745
787,0.365,-0.615
788,0.265,-0.505
789,0.190,-0.595
790,0.090,-0.620
791,-0.080,-0.590
792,-0.050,-0.615
793,-0.045,-0.555
794,0.025,-0.455
795,0.010,-0.420
796,0.000,-0.505
797,0.015,-0.555
798,0.005,-0.570
799,0.005,-0.550
800,0.005,-0.740
801,0.020,-0.635
802,0.000,-0.560
803,0.000,-0.590
804,-0.040,-0.565
805,-0.040,-0.495
806,-0.015,-0.465
807,0.020,-0.560
808,0.015,-0.450
809,0.100,-0.520
810,-0.165,-0.555
811,0.020,-0.435
812,0.010,-0.365
813,0.060,-0.240
814,0.000,-0.100
815,0.070,-0.045
816,-0.030,-0.205
817,-0.070,-0.310
818,-0.050,-0.430
819,-0.160,-0.490
820,-0.120,-0.565
821,-0.140,-0.635
822,-0.165,-0.645
823,-0.190,-0.705
824,-0.155,-0.680
825,-0.105,-0.705
826,0.025,-0.670
827,-0.045,-0.625
828,-0.160,-0.685
829,-0.095,-0.760
830,-0.075,-0.635
831,-0.155,-0.605
832,0.090,-0.460
833,-0.020,-0.440
834,-1.380,-0.220
835,-2.090,0.940
836,-2.415,0.750
837,-2.295,-0.335
838,-1.345,-0.290
839,-0.555,-1.055
840,-0.100,-0.995
841,0.075,-0.660
842,0.185,-0.430
843,0.195,-0.430
844,0.155,-0.595
845,0.215,-0.540
846,0.270,-0.430
847,0.280,-0.395
848,0.325,-0.415
849,0.375,-0.385
850,0.355,-0.350
851,0.395,-0.290
852,0.540,-0.305
853,0.545,-0.270
854,0.505,-0.515
855,0.275,-0.370
856,0.140,-0.370
857,0.250,-0.530
858,0.320,-0.520
859,0.385,-0.535
860,0.360,-0.515
861,0.375,-0.490
862,0.465,-0.385
863,0.325,-0.405
864,0.290,-0.435
865,0.220,-0.270
866,0.250,-0.395
867,0.200,-0.310
868,0.210,-0.245
869,0.255,-0.265
870,0.155,-0.360
871,0.005,-0.270
872,0.085,-0.235
873,0.165,-0.300
874,0.205,-0.380
875,0.130,-0.370
876,0.220,-0.370
877,0.200,-0.305
878,0.285,-0.420
879,0.120,-0.425
880,0.150,-0.340
881,0.080,-0.305
882,0.080,-0.290
883,0.095,-0.410
884,0.145,-0.395
885,0.115,-0.270
886,0.125,-0.220
887,0.205,-0.170
888,0.250,-0.125
889,0.280,-0.040
890,0.170,-0.050
891,0.165,0.105
892,0.035,0.055
893,0.040,-0.165
894,0.050,-0.255
895,0.260,-0.190
896,0.300,-0.370
897,-0.060,-0.535
898,-0.050,-0.625
899,-0.010,-0.535
900,0.085,-0.470
901,0.115,-0.425
902,0.115,-0.475
903,0.050,-0.475
904,0.050,-0.440
905,0.155,-0.400
906,0.090,-0.355
907,0.005,-0.425
908,0.130,-0.290
909,-0.625,-0.380
910,-1.845,-0.025
911,-2.330,0.670
912,-2.405,-0.495
913,-2.365,-1.080
914,-1.410,-0.570
915,-0.405,-0.890
916,-0.030,-0.715
917,0.280,-0.475
918,0.310,-0.280
919,0.250,-0.220
920,0.310,-0.300
921,0.410,-0.185
922,0.445,-0.065
923,0.475,-0.080
924,0.515,-0.080
925,0.500,-0.040
926,0.500,-0.130
927,0.560,-0.100
928,0.620,-0.060
929,0.660,-0.100
930,0.580,-0.065
931,0.505,-0.055
932,0.545,-0.120
933,0.600,-0.100
934,0.570,-0.065
935,0.630,-0.100
936,0.640,-0.100
937,0.625,-0.095
938,0.670,-0.060
939,0.685,-0.030
940,0.495,0.040
941,0.445,0.200
942,0.520,0.260
943,0.405,0.190
944,0.335,0.085
945,0.415,0.005
946,0.320,-0.030
947,0.340,0.000
948,0.370,-0.015
949,0.395,-0.050
950,0.380,-0.005
951,0.300,0.000
952,0.365,-0.005
953,0.385,-0.010
954,0.320,-0.040
955,0.335,0.020
956,0.365,-0.030
957,0.220,-0.200
958,0.270,-0.080
959,0.255,-0.145
960,0.260,-0.140
961,0.295,-0.055
962,0.350,0.030
963,0.375,0.195
964,0.410,0.180
965,0.405,0.275
966,0.370,0.410
967,0.275,0.445
968,0.255,0.375
969,0.220,0.160
970,0.145,0.085
971,0.140,0.000
972,0.180,-0.035
973,0.225,-0.230
974,0.200,-0.300
975,0.200,-0.285
976,0.205,-0.355
977,0.170,-0.330
978,0.180,-0.280
979,0.185,-0.255
980,0.145,-0.285
981,0.135,-0.235
982,0.130,-0.285
983,0.115,-0.390
984,0.095,-0.395
985,0.215,-0.220
986,-0.045,-0.130
987,-1.330,-0.160
988,-2.125,0.690
989,-2.420,0.715
990,-2.440,-0.650
991,-1.945,-0.690
992,-0.790,-0.815
993,-0.025,-0.715
994,0.265,-0.510
995,0.315,-0.360
996,0.345,-0.290
997,0.380,-0.195
998,0.380,-0.250
999,0.370,-0.250
1000,0.390,-0.215
1001,0.410,-0.220
1002,0.425,-0.130
1003,0.415,-0.155
1004,0.435,-0.070
1005,0.445,-0.130
1006,0.455,-0.155
1007,0.475,-0.185
1008,0.470,-0.220
1009,0.510,-0.265
1010,0.510,-0.320
1011,0.520,-0.220
1012,0.530,-0.240
1013,0.535,-0.280
1014,0.500,-0.285
1015,0.505,-0.225
1016,0.470,-0.320
1017,0.425,-0.400
1018,0.385,-0.310
1019,0.365,-0.195
1020,0.310,-0.120
1021,0.250,-0.180
1022,0.225,-0.250
1023,0.235,-0.100
1024,0.220,-0.215
1025,0.200,-0.250
1026,0.210,-0.195
1027,0.175,-0.190
1028,0.180,-0.255
1029,0.180,-0.355
1030,0.190,-0.310
1031,0.170,-0.350
1032,0.155,-0.275
1033,0.155,-0.295
1034,0.145,-0.325
1035,0.130,-0.220
1036,0.130,-0.285
1037,0.105,-0.410
1038,0.110,-0.285
1039,0.120,-0.280
1040,0.130,-0.320
1041,0.215,-0.080
1042,0.230,-0.090
1043,0.230,-0.145
1044,0.200,0.070
1045,0.130,0.200
1046,0.120,0.195
1047,0.090,0.070
1048,0.010,-0.020
1049,0.000,-0.185
1050,0.030,-0.345
1051,0.050,-0.340
1052,0.055,-0.365
1053,0.035,-0.380
1054,0.015,-0.360
1055,0.000,-0.420
1056,0.015,-0.545
1057,0.030,-0.565
1058,0.025,-0.525
1059,0.030,-0.600
1060,0.015,-0.510
1061,0.015,-0.400
1062,0.040,-0.445
1063,0.105,-0.345
1064,0.250,-0.120
1065,-0.645,-0.120
1066,-1.780,0.465
1067,-2.185,1.685
1068,-2.280,0.480
1069,-1.985,-0.145
1070,-1.010,-0.315
1071,-0.370,-0.975
1072,0.060,-0.735
1073,0.210,-0.480
1074,0.245,-0.350
1075,0.245,-0.410
1076,0.270,-0.450
1077,0.295,-0.375
1078,0.295,-0.395
1079,0.300,-0.340
1080,0.310,-0.210
1081,0.330,-0.210
1082,0.315,-0.265
1083,0.360,-0.180
1084,0.360,-0.195
1085,0.380,-0.425
1086,0.385,-0.400
1087,0.420,-0.415
1088,0.435,-0.330
1089,0.435,-0.435
1090,0.445,-0.430
1091,0.430,-0.445
1092,0.410,-0.480
1093,0.400,-0.465
1094,0.375,-0.350
1095,0.350,-0.305
1096,0.305,-0.440
1097,0.290,-0.315
1098,0.255,-0.330
1099,0.225,-0.355
1100,0.215,-0.290
1101,0.220,-0.305
1102,0.215,-0.245
1103,0.195,-0.210
1104,0.215,-0.275
1105,0.185,-0.290
1106,0.190,-0.285
1107,0.165,-0.320
1108,0.140,-0.315
1109,0.165,-0.325
1110,0.165,-0.280
1111,0.155,-0.200
1112,0.150,-0.190
1113,0.110,-0.355
1114,0.115,-0.330
1115,0.105,-0.315
1116,0.105,-0.310
1117,0.105,-0.320
1118,0.130,-0.265
1119,0.195,-0.180
1120,0.260,-0.085
1121,0.250,0.030
1122,0.220,0.180
1123,0.155,0.160
1124,0.120,0.145
1125,0.100,0.025
1126,0.025,-0.095
1127,-0.005,-0.215
1128,0.020,-0.200
1129,0.100,-0.285
1130,0.115,-0.290
1131,0.070,-0.480
1132,0.090,-0.510
1133,0.125,-0.430
1134,0.080,-0.460
1135,0.075,-0.420
1136,0.055,-0.420
1137,0.050,-0.435
1138,0.010,-0.445
1139,0.040,-0.475
1140,0.045,-0.490
1141,0.140,-0.330
1142,-0.060,-0.200
1143,-1.400,-0.155
1144,-2.150,0.715
1145,-2.355,1.125
1146,-2.350,-0.095
1147,-1.720,0.000
1148,-0.630,-0.705
1149,0.000,-0.920
1150,0.265,-0.675
1151,0.300,-0.525
1152,0.315,-0.425
1153,0.340,-0.290
1154,0.395,-0.275
1155,0.390,-0.195
1156,0.405,-0.105
1157,0.435,-0.165
1158,0.450,-0.125
1159,0.465,-0.155
1160,0.465,-0.210
1161,0.485,-0.080
1162,0.470,-0.140
1163,0.495,-0.190
1164,0.510,-0.165
1165,0.555,-0.125
1166,0.565,-0.215
1167,0.580,-0.240
1168,0.575,-0.185
1169,0.585,-0.240
1170,0.585,-0.185
1171,0.560,-0.195
1172,0.565,-0.225
1173,0.515,-0.060
1174,0.470,-0.035
1175,0.430,0.015
1176,0.400,0.070
1177,0.390,0.115
1178,0.410,0.125
1179,0.375,0.000
1180,0.360,-0.030
1181,0.355,-0.005
1182,0.355,0.015
1183,0.360,-0.045
1184,0.365,-0.045
1185,0.340,-0.010
1186,0.335,-0.035
1187,0.335,0.000
1188,0.305,0.020
1189,0.310,-0.055
1190,0.310,-0.075
1191,0.275,-0.055
1192,0.280,-0.060
1193,0.250,-0.140
1194,0.290,-0.110
1195,0.340,-0.005
1196,0.430,0.075
1197,0.385,0.075
1198,0.355,0.280
1199,0.310,0.315
1200,0.255,0.400
1201,0.215,0.300
1202,0.190,0.160
1203,0.145,0.030
1204,0.195,-0.130
1205,0.225,-0.150
1206,0.220,-0.275
1207,0.215,-0.335
1208,0.200,-0.285
1209,0.215,-0.345
1210,0.185,-0.300
1211,0.175,-0.310
1212,0.165,-0.340
1213,0.195,-0.300
1214,0.195,-0.260
1215,0.190,-0.230
1216,0.195,-0.285
1217,0.270,-0.265
1218,-0.060,-0.120
1219,-1.545,-0.145
1220,-2.220,0.615
1221,-2.430,-0.055
1222,-2.500,-1.355
1223,-1.775,-0.930
1224,-0.475,-0.975
1225,0.200,-0.740
1226,0.355,-0.540
1227,0.405,-0.220
1228,0.440,-0.120
1229,0.425,-0.160
1230,0.460,-0.175
1231,0.450,-0.125
1232,0.465,-0.050
1233,0.450,-0.040
1234,0.470,0.000
1235,0.480,-0.065
1236,0.485,0.000
1237,0.495,-0.015
1238,0.530,0.005
1239,0.540,-0.050
1240,0.565,-0.040
1241,0.575,-0.155
1242,0.615,-0.075
1243,0.610,-0.045
1244,0.590,0.000
1245,0.575,-0.075
1246,0.555,-0.040
1247,0.530,-0.010
1248,0.485,0.005
1249,0.465,-0.005
1250,0.410,0.070
1251,0.390,0.150
1252,0.330,0.090
1253,0.325,0.075
1254,0.305,0.030
1255,0.315,0.110
1256,0.285,-0.055
1257,0.285,-0.100
1258,0.270,-0.165
1259,0.260,-0.185
1260,0.255,-0.300
1261,0.255,-0.205
1262,0.235,-0.195
1263,0.225,-0.220
1264,0.200,-0.205
1265,0.220,-0.265
1266,0.205,-0.225
1267,0.170,-0.205
1268,0.190,-0.285
1269,0.210,-0.170
1270,0.255,0.020
1271,0.325,0.095
1272,0.250,-0.015
1273,0.200,0.150
1274,0.155,0.255
1275,0.110,0.190
1276,0.050,0.010
1277,0.030,-0.120
1278,0.030,-0.195
1279,0.085,-0.315
1280,0.075,-0.420
1281,0.030,-0.495
1282,0.060,-0.495
1283,0.040,-0.485
1284,0.050,-0.395
1285,0.055,-0.460
1286,0.060,-0.395
1287,0.040,-0.485
1288,0.045,-0.500
1289,0.020,-0.555
1290,0.025,-0.510
1291,0.155,-0.340
1292,-0.085,-0.260
1293,-1.370,-0.275
1294,-2.160,0.650
1295,-2.425,0.390
1296,-2.325,-0.740
1297,-1.430,-0.255
1298,-0.510,-1.080
1299,0.025,-0.980
1300,0.205,-0.640
1301,0.235,-0.465
1302,0.240,-0.405
1303,0.285,-0.365
1304,0.285,-0.340
1305,0.280,-0.260
1306,0.290,-0.250
1307,0.315,-0.370
1308,0.305,-0.315
1309,0.340,-0.275
1310,0.335,-0.375
1311,0.355,-0.445
1312,0.375,-0.415
1313,0.375,-0.440
1314,0.405,-0.420
1315,0.415,-0.400
1316,0.425,-0.390
1317,0.440,-0.465
1318,0.415,-0.510
1319,0.365,-0.565
1320,0.350,-0.565
1321,0.315,-0.480
1322,0.255,-0.515
1323,0.205,-0.465
1324,0.160,-0.450
1325,0.140,-0.360
1326,0.115,-0.360
1327,0.095,-0.385
1328,0.080,-0.435
1329,0.065,-0.475
1330,0.065,-0.435
1331,0.065,-0.460
1332,0.045,-0.505
1333,0.040,-0.465
1334,0.100,-0.485
1335,0.075,-0.465
1336,0.025,-0.470
1337,0.035,-0.515
1338,0.015,-0.495
1339,-0.015,-0.355
1340,-0.040,-0.430
1341,-0.035,-0.520
1342,-0.040,-0.395
1343,0.030,-0.290
1344,0.095,-0.265
1345,0.135,-0.175
1346,0.065,-0.175
1347,0.015,-0.130
1348,0.000,-0.020
1349,-0.040,-0.085
1350,-0.090,-0.205
1351,-0.130,-0.345
1352,-0.075,-0.370
1353,-0.060,-0.460
1354,-0.075,-0.600
1355,-0.085,-0.540
1356,-0.100,-0.540
1357,-0.110,-0.545
1358,-0.075,-0.620
1359,-0.090,-0.630
1360,-0.090,-0.600
1361,-0.075,-0.570
1362,-0.080,-0.585
1363,-0.090,-0.540
1364,-0.070,-0.465
1365,0.055,-0.375
1366,-0.400,-0.415
1367,-1.745,0.095
1368,-2.250,1.240
1369,-2.430,0.950
1370,-2.260,-0.295
1371,-1.265,-0.400
1372,-0.445,-1.015
1373,0.010,-0.885
1374,0.135,-0.625
1375,0.155,-0.425
1376,0.185,-0.405
1377,0.190,-0.365
1378,0.220,-0.365
1379,0.210,-0.470
1380,0.235,-0.425
1381,0.260,-0.520
1382,0.280,-0.435
1383,0.290,-0.390
1384,0.295,-0.365
1385,0.290,-0.385
1386,0.320,-0.405
1387,0.345,-0.375
1388,0.355,-0.420
1389,0.365,-0.435
1390,0.385,-0.490
1391,0.405,-0.430
1392,0.385,-0.495
1393,0.365,-0.420
1394,0.340,-0.475
1395,0.315,-0.410
1396,0.285,-0.475
1397,0.235,-0.435
1398,0.210,-0.425
1399,0.175,-0.330
1400,0.170,-0.325
1401,0.160,-0.290
1402,0.150,-0.245
1403,0.140,-0.295
1404,0.150,-0.325
1405,0.130,-0.290
1406,0.160,-0.320
1407,0.135,-0.430
1408,0.145,-0.275
1409,0.110,-0.315
1410,0.115,-0.190
1411,0.080,-0.340
1412,0.085,-0.470
1413,0.080,-0.395
1414,0.080,-0.375
1415,0.065,-0.330
1416,0.055,-0.310
1417,0.060,-0.240
1418,0.090,-0.155
1419,0.160,-0.190
1420,0.215,-0.215
1421,0.175,-0.070
1422,0.130,0.055
1423,0.115,0.165
1424,0.065,0.090
1425,0.000,0.160
1426,-0.005,0.005
1427,0.000,-0.135
1428,0.060,-0.110
1429,0.085,-0.315
1430,0.025,-0.270
1431,0.045,-0.625
1432,0.030,-0.520
1433,0.025,-0.455
1434,0.015,-0.450
1435,0.010,-0.375
1436,0.030,-0.310
1437,0.025,-0.195
1438,0.010,-0.370
1439,0.025,-0.225
1440,0.055,-0.040
1441,0.080,-0.175
1442,-1.075,-0.350
1443,-2.070,0.305
1444,-2.420,0.650
1445,-2.535,-0.705
1446,-2.350,-0.935
1447,-1.200,-0.555
1448,-0.240,-0.745
1449,0.170,-0.560
1450,0.225,-0.260
1451,0.265,-0.155
1452,0.295,-0.175
1453,0.290,-0.215
1454,0.325,-0.160
1455,0.325,-0.060
1456,0.330,0.040
1457,0.365,0.130
1458,0.370,-0.135
1459,0.385,0.020
1460,0.420,0.165
1461,0.435,0.005
1462,0.445,-0.150
1463,0.480,-0.025
1464,0.485,0.060
1465,0.540,0.005
1466,0.535,-0.055
1467,0.550,-0.025
1468,0.545,-0.015
1469,0.540,0.070
1470,0.520,0.155
1471,0.495,0.115
1472,0.460,0.100
1473,0.420,0.140
1474,0.375,0.265
1475,0.335,0.310
1476,0.305,0.280
1477,0.260,0.245
1478,0.265,0.265
1479,0.245,0.320
1480,0.255,0.260
1481,0.270,0.080
1482,0.230,0.090
1483,0.230,0.160
1484,0.230,0.145
1485,0.225,0.000
1486,0.220,0.035
1487,0.205,0.010
1488,0.175,0.060
1489,0.175,0.055
1490,0.190,0.115
1491,0.190,0.095
1492,0.180,0.000
1493,0.180,0.035
1494,0.185,0.055
1495,0.260,0.280
1496,0.315,0.405
1497,0.270,0.310
1498,0.215,0.430
1499,0.165,0.470
1500,0.145,0.585
1501,0.105,0.470
1502,0.065,0.375
1503,0.025,0.185
1504,0.075,0.145
1505,0.115,0.025
1506,0.105,0.005
1507,0.090,-0.070
1508,0.075,-0.115
1509,0.085,-0.150
1510,0.090,-0.090
1511,0.075,-0.030
1512,0.080,-0.025
1513,0.080,-0.055
1514,0.070,-0.030
1515,0.070,0.000
1516,0.080,0.045
1517,0.160,0.130
1518,0.115,0.095
1519,-1.035,-0.125
1520,-2.075,0.365
1521,-2.475,0.760
1522,-2.575,-0.605
1523,-2.240,-0.930
1524,-1.065,-0.725
1525,-0.270,-0.690
1526,0.160,-0.480
1527,0.245,-0.190
1528,0.285,-0.010
1529,0.280,-0.040
1530,0.315,-0.050
1531,0.330,-0.025
1532,0.340,0.045
1533,0.330,0.055
1534,0.335,0.070
1535,0.355,0.135
1536,0.370,0.150
1537,0.360,-0.035
1538,0.365,-0.055
1539,0.400,0.015
1540,0.400,0.005
1541,0.410,-0.100
1542,0.420,-0.105
1543,0.415,-0.095
1544,0.465,-0.085
1545,0.435,-0.095
1546,0.440,-0.070
1547,0.435,-0.070
1548,0.415,-0.080
1549,0.360,-0.065
1550,0.325,-0.055
1551,0.270,0.000
1552,0.215,0.015
1553,0.195,0.070
1554,0.175,0.015
1555,0.165,-0.025
1556,0.125,-0.025
1557,0.135,-0.045
1558,0.135,-0.040
1559,0.115,-0.090
1560,0.115,-0.095
1561,0.100,-0.085
1562,0.105,-0.115
1563,0.085,-0.125
1564,0.075,-0.085
1565,0.070,-0.155
1566,0.055,-0.170
1567,0.035,-0.150
1568,0.030,-0.125
1569,0.025,-0.185
1570,0.010,-0.160
1571,0.015,-0.140
1572,0.040,-0.090
1573,0.165,0.055
1574,0.155,0.105
1575,0.110,0.180
1576,0.060,0.315
1577,0.045,0.340
1578,-0.010,0.260
1579,-0.045,0.170
1580,-0.065,0.060
1581,-0.090,-0.050
1582,-0.050,-0.155
1583,-0.040,-0.215
1584,-0.055,-0.310
1585,-0.070,-0.370
1586,-0.080,-0.395
1587,-0.070,-0.320
1588,-0.085,-0.410
1589,-0.085,-0.430
1590,-0.060,-0.375
1591,-0.070,-0.330
1592,-0.095,-0.305
1593,-0.080,-0.285
1594,-0.110,-0.295
1595,-0.025,-0.340
1596,-0.130,-0.105
1597,-1.435,-0.065
1598,-2.160,1.080
1599,-2.395,1.465
1600,-2.395,0.025
1601,-1.840,0.000
1602,-0.800,-0.560
1603,-0.215,-0.775
1604,0.070,-0.615
1605,0.090,-0.375
1606,0.120,-0.285
1607,0.150,-0.255
1608,0.170,-0.260
1609,0.170,-0.255
1610,0.185,-0.195
1611,0.200,-0.165
1612,0.205,-0.150
1613,0.210,-0.175
1614,0.210,-0.235
1615,0.220,-0.230
1616,0.240,-0.220
1617,0.265,-0.250
1618,0.270,-0.240
1619,0.285,-0.335
1620,0.285,-0.320
1621,0.305,-0.350
1622,0.305,-0.315
1623,0.305,-0.380
1624,0.290,-0.385
1625,0.270,-0.385
1626,0.250,-0.385
1627,0.195,-0.395
1628,0.170,-0.340
1629,0.130,-0.290
1630,0.080,-0.220
1631,0.085,-0.245
1632,0.045,-0.310
1633,0.030,-0.280
1634,0.000,-0.265
1635,0.000,-0.285
1636,0.010,-0.315
1637,0.000,-0.290
1638,0.000,-0.305
1639,0.025,-0.285
1640,0.015,-0.240
1641,0.000,-0.280
1642,-0.005,-0.255
1643,-0.015,-0.250
1644,-0.020,-0.325
1645,-0.030,-0.335
1646,-0.055,-0.315
1647,-0.020,-0.275
1648,-0.045,-0.240
1649,0.000,-0.235
1650,0.085,-0.090
1651,0.125,-0.030
1652,0.075,-0.075
1653,0.035,0.015
1654,0.000,0.130
1655,-0.015,0.115
1656,-0.020,0.045
1657,-0.075,-0.030
1658,-0.065,-0.075
1659,-0.030,-0.190
1660,-0.005,-0.315
1661,-0.045,-0.380
1662,-0.030,-0.340
1663,-0.015,-0.330
1664,-0.010,-0.365
1665,0.000,-0.380
1666,0.000,-0.330
1667,0.025,-0.330
1668,0.025,-0.335
1669,0.005,-0.325
1670,0.025,-0.265
1671,0.015,-0.270
1672,0.180,-0.115
1673,-0.420,-0.055
1674,-1.695,0.180
1675,-2.225,1.135
1676,-2.440,0.980
1677,-2.285,-0.090
1678,-1.345,0.010
1679,-0.455,-0.775
1680,0.065,-0.690
1681,0.260,-0.415
1682,0.260,-0.225
1683,0.280,-0.175
1684,0.320,-0.105
1685,0.340,-0.090
1686,0.360,-0.050
1687,0.365,-0.015
1688,0.355,0.030
1689,0.380,0.070
1690,0.380,0.030
1691,0.400,-0.075
1692,0.430,0.000
1693,0.440,-0.010
1694,0.460,0.000
1695,0.465,-0.055
1696,0.495,-0.055
1697,0.495,-0.065
1698,0.505,-0.050
1699,0.495,-0.065
1700,0.470,-0.035
1701,0.460,-0.010
1702,0.415,0.000
1703,0.410,0.030
1704,0.360,0.080
1705,0.325,0.150
1706,0.295,0.230
1707,0.280,0.180
1708,0.275,0.155
1709,0.260,0.195
1710,0.260,0.150
1711,0.260,0.125
1712,0.245,0.120
1713,0.230,0.070
1714,0.245,0.055
1715,0.235,0.070
1716,0.220,0.055
1717,0.200,0.080
1718,0.200,0.065
1719,0.190,0.055
1720,0.175,0.055
1721,0.195,0.060
1722,0.200,0.090
1723,0.180,0.130
1724,0.185,0.030
1725,0.195,0.130
1726,0.300,0.350
1727,0.275,0.240
1728,0.255,0.400
1729,0.215,0.440
1730,0.190,0.550
1731,0.150,0.470
1732,0.095,0.335
1733,0.035,0.160
1734,0.100,0.135
1735,0.150,0.075
1736,0.140,-0.055
1737,0.125,-0.090
1738,0.125,-0.125
1739,0.115,-0.075
1740,0.120,-0.070
1741,0.140,-0.050
1742,0.140,-0.025
1743,0.135,0.005
1744,0.130,-0.020
1745,0.120,0.010
1746,0.115,0.065
1747,0.235,0.190
1748,-0.360,0.045
1749,-1.840,0.265
1750,-2.350,1.150
1751,-2.510,0.200
1752,-2.395,-0.825
1753,-1.360,-0.435
1754,-0.300,-0.605
1755,0.240,-0.345
1756,0.330,-0.050
1757,0.335,0.120
1758,0.365,0.110
1759,0.405,0.130
1760,0.420,0.145
1761,0.425,0.205
1762,0.430,0.225
1763,0.460,0.290
1764,0.455,0.350
1765,0.470,0.355
1766,0.490,0.195
1767,0.510,0.160
1768,0.525,0.190
1769,0.560,0.185
1770,0.565,0.160
1771,0.585,0.145
1772,0.595,0.200
1773,0.625,0.190
1774,0.610,0.195
1775,0.610,0.205
1776,0.565,0.265
1777,0.530,0.320
1778,0.500,0.330
1779,0.460,0.370
1780,0.425,0.395
1781,0.385,0.405
1782,0.365,0.420
1783,0.355,0.380
1784,0.340,0.325
1785,0.320,0.295
1786,0.310,0.225
1787,0.295,0.195
1788,0.300,0.200
1789,0.315,0.230
1790,0.300,0.165
1791,0.285,0.150
1792,0.290,0.155
1793,0.280,0.055
1794,0.255,0.080
1795,0.250,0.075
1796,0.220,0.050
1797,0.220,0.060
1798,0.235,0.110
1799,0.285,0.260
1800,0.370,0.375
1801,0.350,0.360
1802,0.280,0.500
1803,0.240,0.605
1804,0.225,0.650
1805,0.170,0.435
1806,0.110,0.310
1807,0.100,0.165
1808,0.160,0.090
1809,0.175,-0.055
1810,0.170,-0.140
1811,0.165,-0.150
1812,0.135,-0.120
1813,0.145,-0.125
1814,0.140,-0.120
1815,0.150,-0.035
1816,0.125,-0.095
1817,0.135,-0.145
1818,0.155,-0.145
1819,0.135,-0.125
1820,0.170,-0.025
1821,0.185,0.055
1822,-1.110,-0.040
1823,-2.145,0.750
1824,-2.470,0.895
1825,-2.490,-0.540
1826,-1.910,-0.460
1827,-0.680,-0.640
1828,0.080,-0.590
1829,0.345,-0.355
1830,0.350,-0.120
1831,0.370,-0.145
1832,0.380,-0.115
1833,0.425,-0.075
1834,0.405,-0.035
1835,0.420,-0.015
1836,0.430,0.005
1837,0.440,-0.025
1838,0.445,-0.020
1839,0.480,0.000
1840,0.460,-0.045
1841,0.515,-0.070
1842,0.510,-0.110
1843,0.510,-0.120
1844,0.520,-0.165
1845,0.540,-0.160
1846,0.530,-0.150
1847,0.525,-0.145
1848,0.530,-0.130
1849,0.510,-0.145
1850,0.455,-0.130
1851,0.400,-0.140
1852,0.350,-0.050
1853,0.340,-0.025
1854,0.295,0.035
1855,0.265,-0.045
1856,0.265,-0.010
1857,0.230,-0.045
1858,0.230,-0.020
1859,0.215,-0.005
1860,0.185,-0.180
1861,0.165,-0.200
1862,0.165,-0.180
1863,0.180,-0.120
1864,0.170,-0.130
1865,0.150,-0.120
1866,0.165,-0.135
1867,0.160,-0.190
1868,0.145,-0.185
1869,0.120,-0.170
1870,0.125,-0.160
1871,0.105,-0.145
1872,0.175,-0.015
1873,0.255,0.050
1874,0.245,0.045
1875,0.200,0.230
1876,0.135,0.240
1877,0.120,0.285
1878,0.080,0.265
1879,0.035,0.110
1880,0.020,-0.005
1881,0.045,-0.135
1882,0.050,-0.225
1883,0.040,-0.375
1884,0.000,-0.390
1885,0.000,-0.360
1886,0.000,-0.355
1887,0.000,-0.345
1888,0.000,-0.375
1889,0.005,-0.335
1890,0.000,-0.365
1891,0.000,-0.335
1892,0.005,-0.315
1893,0.010,-0.290
1894,0.120,-0.160
1895,-0.085,-0.090
1896,-1.535,0.085
1897,-2.180,1.355
1898,-2.390,1.050
1899,-2.295,-0.205
1900,-1.385,0.035
1901,-0.545,-0.785
1902,0.000,-0.740
1903,0.175,-0.495
1904,0.205,-0.380
1905,0.220,-0.315
1906,0.245,-0.260
1907,0.265,-0.230
1908,0.270,-0.220
1909,0.285,-0.180
1910,0.280,-0.165
1911,0.290,-0.155
1912,0.285,-0.240
1913,0.320,-0.290
1914,0.325,-0.220
1915,0.345,-0.220
1916,0.365,-0.280
1917,0.370,-0.290
1918,0.395,-0.310
1919,0.400,-0.330
1920,0.395,-0.375
1921,0.395,-0.385
1922,0.390,-0.375
1923,0.375,-0.395
1924,0.365,-0.340
1925,0.315,-0.315
1926,0.290,-0.310
1927,0.230,-0.285
1928,0.225,-0.270
1929,0.215,-0.220
1930,0.205,-0.170
1931,0.185,-0.165
1932,0.210,-0.200
1933,0.200,-0.195
1934,0.185,-0.220
1935,0.180,-0.225
1936,0.190,-0.230
1937,0.195,-0.250
1938,0.185,-0.225
1939,0.190,-0.200
1940,0.185,-0.185
1941,0.165,-0.185
1942,0.165,-0.175
1943,0.170,-0.165
1944,0.170,-0.140
1945,0.165,-0.185
1946,0.180,-0.205
1947,0.245,-0.070
1948,0.315,-0.005
1949,0.305,0.015
1950,0.270,0.145
1951,0.225,0.265
1952,0.160,0.315
1953,0.150,0.210
1954,0.110,0.100
1955,0.090,-0.005
1956,0.140,-0.095
1957,0.150,-0.185
1958,0.140,-0.265
1959,0.125,-0.340
1960,0.130,-0.305
1961,0.130,-0.315
1962,0.120,-0.300
1963,0.130,-0.310
1964,0.125,-0.265
1965,0.140,-0.245
1966,0.125,-0.250
1967,0.115,-0.240
1968,0.125,-0.210
1969,0.230,-0.075
1970,-0.065,-0.025
1971,-1.360,-0.085
1972,-2.165,0.705
1973,-2.430,0.925
1974,-2.420,-0.345
1975,-1.775,-0.245
1976,-0.750,-0.735
1977,-0.105,-0.795
1978,0.270,-0.550
1979,0.340,-0.260
1980,0.350,-0.125
1981,0.375,-0.125
1982,0.395,-0.090
1983,0.395,-0.075
1984,0.425,-0.045
1985,0.440,-0.030
1986,0.410,-0.035
1987,0.440,0.000
1988,0.445,0.010
1989,0.460,-0.015
1990,0.485,-0.005
1991,0.525,-0.015
1992,0.520,-0.040
1993,0.535,-0.035
1994,0.530,-0.015
1995,0.530,-0.030
1996,0.535,-0.025
1997,0.520,-0.025
1998,0.510,-0.020
1999,0.490,-0.055
2000,0.465,0.000
2001,0.435,0.050
2002,0.365,0.125
2003,0.370,0.155
2004,0.340,0.215
2005,0.310,0.225
2006,0.290,0.190
2007,0.280,0.155
2008,0.265,0.140
2009,0.285,0.155
2010,0.280,0.115
2011,0.260,0.095
2012,0.235,0.060
2013,0.235,0.045
2014,0.215,0.025
2015,0.210,0.045
2016,0.205,-0.020
2017,0.195,-0.020
2018,0.200,0.005
2019,0.180,-0.025
2020,0.170,-0.020
2021,0.150,0.005
2022,0.145,0.000
2023,0.200,0.080
2024,0.275,0.225
2025,0.270,0.235
2026,0.265,0.300
2027,0.205,0.430
2028,0.170,0.485
2029,0.105,0.465
2030,0.060,0.290
2031,0.035,0.170
2032,0.020,0.080
2033,0.110,0.020
2034,0.095,-0.075
2035,0.105,-0.215
2036,0.085,-0.190
2037,0.090,-0.155
2038,0.105,-0.130
2039,0.090,-0.135
2040,0.075,-0.145
2041,0.095,-0.155
2042,0.075,-0.160
2043,0.055,-0.110
2044,0.070,-0.120
2045,0.070,-0.135
2046,0.205,-0.050
2047,-0.275,-0.050
2048,-1.670,-0.070
2049,-2.335,0.685
2050,-2.555,0.630
2051,-2.565,-0.910
2052,-1.990,-0.825
2053,-0.750,-0.885
2054,-0.040,-0.685
2055,0.260,-0.450
2056,0.310,-0.180
2057,0.335,-0.105
2058,0.360,-0.030
2059,0.365,-0.020
2060,0.370,-0.005
2061,0.375,-0.045
2062,0.385,0.000
2063,0.410,0.070
2064,0.420,0.100
2065,0.450,0.070
2066,0.440,0.070
2067,0.470,0.050
2068,0.480,0.000
2069,0.500,0.020
2070,0.515,0.005
2071,0.535,-0.010
2072,0.520,-0.020
2073,0.535,-0.015
2074,0.515,0.010
2075,0.515,0.000
2076,0.525,0.020
2077,0.490,0.040
2078,0.440,0.080
2079,0.400,0.115
2080,0.380,0.160
2081,0.310,0.185
2082,0.290,0.225
2083,0.280,0.190
2084,0.250,0.165
2085,0.230,0.100
2086,0.220,0.045
2087,0.220,0.025
2088,0.205,0.015
2089,0.220,-0.015
2090,0.195,-0.010
2091,0.185,-0.075
2092,0.185,-0.125
2093,0.155,-0.115
2094,0.175,-0.100
2095,0.145,-0.145
2096,0.115,-0.175
2097,0.105,-0.195
2098,0.090,-0.205
2099,0.075,-0.230
2100,0.100,-0.165
2101,0.185,0.020
2102,0.235,0.080
2103,0.190,0.045
2104,0.140,0.205
2105,0.100,0.270
2106,0.065,0.355
2107,0.010,0.190
2108,-0.025,0.055
2109,-0.020,-0.040
2110,0.010,-0.075
2111,0.060,-0.175
2112,0.030,-0.420
2113,0.000,-0.410
2114,0.000,-0.365
2115,0.005,-0.350
2116,0.015,-0.370
2117,0.000,-0.360
2118,0.000,-0.380
2119,0.000,-0.345
2120,0.000,-0.365
2121,-0.005,-0.360
2122,-0.005,-0.300
2123,0.080,-0.210
2124,-0.010,-0.140
2125,-1.320,-0.225
2126,-2.220,0.630
2127,-2.515,1.190
2128,-2.575,-0.205
2129,-2.095,-0.400
2130,-0.930,-0.625
2131,-0.175,-0.905
2132,0.170,-0.700
2133,0.200,-0.440
2134,0.240,-0.340
2135,0.255,-0.320
2136,0.265,-0.265
2137,0.255,-0.310
2138,0.260,-0.290
2139,0.275,-0.265
2140,0.260,-0.270
2141,0.260,-0.245
2142,0.265,-0.255
2143,0.280,-0.255
2144,0.300,-0.295
2145,0.325,-0.320
2146,0.335,-0.310
2147,0.355,-0.360
2148,0.375,-0.350
2149,0.350,-0.340
2150,0.370,-0.460
2151,0.360,-0.455
2152,0.345,-0.435
2153,0.320,-0.415
2154,0.295,-0.505
2155,0.275,-0.420
2156,0.220,-0.350
2157,0.180,-0.260
2158,0.175,-0.295
2159,0.100,-0.305
2160,0.115,-0.330
2161,0.090,-0.305
2162,0.090,-0.285
2163,0.075,-0.310
2164,0.070,-0.405
2165,0.050,-0.405
2166,0.055,-0.390
2167,0.050,-0.425
2168,0.030,-0.365
2169,0.035,-0.365
2170,0.030,-0.370
2171,0.025,-0.330
2172,0.000,-0.390
2173,0.000,-0.375
2174,-0.010,-0.355
2175,-0.025,-0.355
2176,0.010,-0.350
2177,0.010,-0.300
2178,0.100,-0.165
2179,0.125,-0.150
2180,0.085,-0.080
2181,0.015,0.000
2182,0.005,0.090
2183,-0.025,0.070
2184,-0.070,-0.075
2185,-0.100,-0.170
2186,-0.080,-0.305
2187,-0.030,-0.410
2188,-0.040,-0.455
2189,-0.085,-0.570
2190,-0.090,-0.575
2191,-0.095,-0.555
2192,-0.085,-0.525
2193,-0.080,-0.515
2194,-0.090,-0.490
2195,-0.100,-0.510
2196,-0.100,-0.520
2197,-0.070,-0.585
2198,-0.100,-0.550
2199,-0.070,-0.500
2200,0.080,-0.315
2201,-0.605,-0.300
2202,-1.895,0.220
2203,-2.345,1.450
2204,-2.460,0.970
2205,-2.260,-0.215
2206,-1.260,-0.360
2207,-0.460,-0.975
2208,0.000,-0.850
2209,0.135,-0.605
2210,0.150,-0.465
2211,0.160,-0.440
2212,0.180,-0.420
2213,0.220,-0.380
2214,0.225,-0.315
2215,0.250,-0.310
2216,0.230,-0.345
2217,0.285,-0.320
2218,0.265,-0.270
2219,0.260,-0.275
2220,0.290,-0.300
2221,0.295,-0.330
2222,0.345,-0.380
2223,0.345,-0.390
2224,0.335,-0.395
2225,0.375,-0.405
2226,0.375,-0.395
2227,0.350,-0.425
2228,0.340,-0.455
2229,0.335,-0.435
2230,0.310,-0.395
2231,0.265,-0.390
2232,0.220,-0.330
2233,0.185,-0.285
2234,0.165,-0.230
2235,0.165,-0.220
2236,0.160,-0.180
2237,0.155,-0.225
2238,0.150,-0.215
2239,0.135,-0.185
2240,0.150,-0.215
2241,0.130,-0.240
2242,0.120,-0.235
2243,0.110,-0.210
2244,0.095,-0.225
2245,0.090,-0.240
2246,0.100,-0.260
2247,0.090,-0.275
2248,0.055,-0.265
2249,0.065,-0.250
2250,0.050,-0.275
2251,0.050,-0.265
2252,0.085,-0.255
2253,0.145,-0.115
2254,0.200,-0.005
2255,0.170,-0.030
2256,0.125,0.105
2257,0.080,0.185
2258,0.045,0.235
2259,0.005,0.100
2260,-0.040,0.000
2261,-0.010,-0.120
2262,0.030,-0.210
2263,0.010,-0.355
2264,0.000,-0.380
2265,0.000,-0.440
2266,0.005,-0.410
2267,-0.005,-0.365
2268,-0.010,-0.335
2269,0.000,-0.340
2270,-0.015,-0.350
2271,0.000,-0.350
2272,-0.015,-0.325
2273,-0.030,-0.315
2274,0.070,-0.225
2275,0.000,-0.140
2276,-1.275,-0.260
2277,-2.235,0.480
2278,-2.545,0.695
2279,-2.595,-0.750
2280,-1.960,-0.520
2281,-0.785,-0.980
2282,-0.100,-0.840
2283,0.170,-0.515
2284,0.230,-0.270
2285,0.250,-0.185
2286,0.290,-0.170
2287,0.275,-0.145
2288,0.290,-0.075
2289,0.285,-0.085
2290,0.320,-0.110
2291,0.325,-0.050
2292,0.340,-0.040
2293,0.365,-0.005
2294,0.355,-0.025
2295,0.390,-0.050
2296,0.415,-0.065
2297,0.430,-0.095
2298,0.445,-0.085
2299,0.495,-0.040
2300,0.475,-0.070
2301,0.490,-0.050
2302,0.465,-0.060
2303,0.465,0.005
2304,0.430,-0.025
2305,0.420,0.010
2306,0.370,0.095
2307,0.310,0.145
2308,0.295,0.185
2309,0.250,0.210
2310,0.240,0.180
2311,0.240,0.125
2312,0.220,0.125
2313,0.215,0.110
2314,0.215,0.040
2315,0.215,0.020
2316,0.180,0.000
2317,0.195,-0.010
2318,0.190,-0.030
2319,0.165,-0.010
2320,0.150,-0.040
2321,0.140,-0.020
2322,0.135,-0.050
2323,0.110,-0.040
2324,0.120,-0.095
2325,0.135,-0.070
2326,0.170,0.065
2327,0.285,0.230
2328,0.250,0.180
2329,0.240,0.275
2330,0.155,0.365
2331,0.140,0.495
2332,0.075,0.305
2333,0.030,0.185
2334,0.020,0.095
2335,0.075,0.050
2336,0.110,-0.065
2337,0.105,-0.255
2338,0.065,-0.255
2339,0.090,-0.235
2340,0.090,-0.190
2341,0.090,-0.200
2342,0.080,-0.190
2343,0.085,-0.200
2344,0.095,-0.135
2345,0.080,-0.145
2346,0.060,-0.205
2347,0.095,-0.140
2348,0.260,0.015
2349,-0.780,-0.200
2350,-2.030,0.225
2351,-2.480,0.970
2352,-2.610,-0.245
2353,-2.350,-0.990
2354,-1.050,-0.820
2355,-0.165,-0.750
2356,0.220,-0.520
2357,0.290,-0.240
2358,0.345,-0.110
2359,0.350,-0.120
2360,0.365,-0.055
2361,0.360,-0.040
2362,0.330,-0.015
2363,0.385,0.020
2364,0.390,0.085
2365,0.395,0.060
2366,0.385,0.030
2367,0.400,0.050
2368,0.440,0.070
2369,0.465,0.000
2370,0.460,-0.020
2371,0.495,-0.065
2372,0.535,-0.040
2373,0.520,-0.055
2374,0.495,-0.095
2375,0.505,-0.065
2376,0.540,-0.015
2377,0.465,0.015
2378,0.375,0.000
2379,0.325,0.005
2380,0.285,0.090
2381,0.275,0.125
2382,0.225,0.090
2383,0.215,0.120
2384,0.200,-0.020
2385,0.200,-0.025
2386,0.220,-0.040
2387,0.135,-0.060
2388,0.120,-0.110
2389,0.140,-0.105
2390,0.180,-0.185
2391,0.065,-0.190
2392,0.045,-0.250
2393,0.060,-0.150
2394,0.050,-0.135
2395,0.065,-0.195
2396,0.065,-0.290
2397,0.075,-0.305
2398,0.075,-0.285
2399,0.155,-0.175
2400,0.130,0.000
2401,0.090,0.020
2402,0.110,0.005
2403,0.070,0.110
2404,0.000,0.305
2405,-0.070,0.290
2406,-0.065,0.015
2407,-0.065,-0.190
2408,0.025,-0.240
2409,0.010,-0.375
2410,-0.070,-0.435
2411,-0.070,-0.475
2412,-0.065,-0.490
2413,-0.105,-0.490
2414,-0.090,-0.480
2415,-0.060,-0.435
2416,-0.030,-0.380
2417,0.000,-0.445
2418,-0.055,-0.395
2419,-0.035,-0.435
2420,-0.035,-0.475
2421,-0.050,-0.340
2422,-0.310,-0.285
2423,-1.645,-0.220
2424,-2.315,0.835
2425,-2.550,0.795
2426,-2.515,-0.485
2427,-1.760,-0.230
2428,-0.685,-0.840
2429,-0.030,-0.865
2430,0.090,-0.625
2431,0.195,-0.525
2432,0.170,-0.395
2433,0.105,-0.310
2434,0.140,-0.390
2435,0.140,-0.335
2436,0.135,-0.310
2437,0.160,-0.290
2438,0.205,-0.260
2439,0.215,-0.205
2440,0.240,-0.295
2441,0.210,-0.315
2442,0.200,-0.275
2443,0.225,-0.280
2444,0.255,-0.355
2445,0.280,-0.430
2446,0.300,-0.460
2447,0.285,-0.450
2448,0.280,-0.515
2449,0.280,-0.525
2450,0.320,-0.485
2451,0.280,-0.440
2452,0.245,-0.365
2453,0.130,-0.355
2454,0.060,-0.300
2455,0.060,-0.325
2456,0.005,-0.305
2457,-0.030,-0.265
2458,-0.035,-0.310
2459,-0.040,-0.400
2460,-0.020,-0.395
2461,-0.030,-0.370
2462,-0.030,-0.370
2463,-0.015,-0.350
2464,-0.025,-0.370
2465,-0.030,-0.305
2466,-0.025,-0.315
2467,-0.050,-0.355
2468,-0.055,-0.340
2469,-0.050,-0.305
2470,-0.045,-0.335
2471,-0.040,-0.325
2472,-0.060,-0.305
2473,-0.030,-0.320
2474,0.000,-0.170
2475,0.060,-0.075
2476,-0.020,-0.175
2477,-0.010,-0.100
2478,-0.075,0.035
2479,-0.085,0.160
2480,-0.100,0.045
2481,-0.160,-0.090
2482,-0.155,-0.215
2483,-0.105,-0.240
2484,-0.100,-0.320
2485,-0.090,-0.415
2486,-0.045,-0.515
2487,-0.130,-0.550
2488,-0.225,-0.510
2489,-0.205,-0.510
2490,-0.170,-0.490
2491,-0.150,-0.475
2492,-0.160,-0.460
2493,-0.140,-0.445
2494,-0.110,-0.465
2495,-0.125,-0.475
2496,-0.060,-0.410
2497,0.105,-0.230
2498,-0.880,-0.290
2499,-2.035,0.295
2500,-2.385,1.280
2501,-2.485,0.255
2502,-2.125,-0.085
2503,-1.105,-0.335
2504,-0.430,-0.935
2505,0.040,-0.760
2506,0.130,-0.480
2507,0.180,-0.350
2508,0.200,-0.295
2509,0.200,-0.275
2510,0.205,-0.250
2511,0.235,-0.195
2512,0.260,-0.190
2513,0.250,-0.190
2514,0.270,-0.160
2515,0.295,-0.155
2516,0.315,-0.145
2517,0.305,-0.150
2518,0.355,-0.190
2519,0.360,-0.150
2520,0.350,-0.200
2521,0.360,-0.250
2522,0.360,-0.220
2523,0.395,-0.225
2524,0.405,-0.260
2525,0.395,-0.240
2526,0.380,-0.230
2527,0.365,-0.210
2528,0.325,-0.180
2529,0.275,-0.185
2530,0.215,-0.090
2531,0.185,-0.015
2532,0.165,0.010
2533,0.160,0.000
2534,0.145,-0.020
2535,0.150,-0.010
2536,0.125,-0.055
2537,0.140,-0.035
2538,0.140,-0.040
2539,0.125,-0.075
2540,0.120,-0.035
2541,0.120,-0.090
2542,0.110,-0.095
2543,0.125,-0.080
2544,0.090,-0.085
2545,0.095,-0.080
2546,0.075,-0.090
2547,0.090,-0.090
2548,0.080,-0.105
2549,0.075,-0.090
2550,0.090,-0.050
2551,0.165,0.050
2552,0.230,0.165
2553,0.225,0.115
2554,0.215,0.210
2555,0.125,0.320
2556,0.090,0.390
2557,0.065,0.285
2558,0.005,0.150
2559,-0.030,0.040
2560,0.055,0.005
2561,0.070,-0.130
2562,0.080,-0.215
2563,0.065,-0.265
2564,0.050,-0.250
2565,0.050,-0.230
2566,0.065,-0.235
2567,0.050,-0.205
2568,0.045,-0.225
2569,0.040,-0.215
2570,0.050,-0.185
2571,0.060,-0.200
2572,0.050,-0.205
2573,0.095,-0.115
2574,0.015,-0.020
2575,-1.210,-0.240
2576,-2.135,0.240
2577,-2.515,0.815
2578,-2.605,-0.395
2579,-2.340,-0.890
2580,-1.090,-0.725
2581,-0.280,-0.835
2582,0.160,-0.590
2583,0.295,-0.265
2584,0.325,-0.065
2585,0.330,0.010
2586,0.360,0.055
2587,0.355,0.055
2588,0.365,0.000
2589,0.385,0.070
2590,0.405,0.115
2591,0.415,0.120
2592,0.460,0.130
2593,0.480,0.150
2594,0.490,0.125
2595,0.495,0.160
2596,0.530,0.140
2597,0.510,0.150
2598,0.550,0.135
2599,0.580,0.145
2600,0.590,0.125
2601,0.615,0.120
2602,0.595,0.170
2603,0.610,0.220
2604,0.575,0.165
2605,0.575,0.230
2606,0.540,0.285
2607,0.465,0.350
2608,0.425,0.360
2609,0.390,0.395
2610,0.365,0.390
2611,0.340,0.370
2612,0.325,0.350
2613,0.310,0.310
2614,0.300,0.260
2615,0.290,0.230
2616,0.280,0.220
2617,0.265,0.160
2618,0.270,0.170
2619,0.265,0.145
2620,0.250,0.150
2621,0.220,0.150
2622,0.220,0.070
2623,0.225,0.075
2624,0.185,0.090
2625,0.195,0.080
2626,0.200,0.065
2627,0.205,0.115
2628,0.285,0.260
2629,0.345,0.370
2630,0.345,0.365
2631,0.265,0.495
2632,0.220,0.515
2633,0.180,0.585
2634,0.140,0.485
2635,0.080,0.295
2636,0.080,0.230
2637,0.140,0.170
2638,0.170,0.000
2639,0.150,-0.150
2640,0.125,-0.170
2641,0.145,-0.155
2642,0.130,-0.140
2643,0.125,-0.130
2644,0.130,-0.105
2645,0.140,-0.135
2646,0.130,-0.130
2647,0.135,-0.135
2648,0.105,-0.100
2649,0.095,-0.120
2650,0.175,0.010
2651,0.195,0.120
2652,-1.055,-0.075
2653,-2.170,0.470
2654,-2.555,0.760
2655,-2.605,-0.645
2656,-2.215,-0.785
2657,-1.015,-0.735
2658,-0.175,-0.835
2659,0.205,-0.575
2660,0.260,-0.285
2661,0.290,-0.160
2662,0.310,-0.125
2663,0.320,-0.110
2664,0.335,-0.095
2665,0.330,-0.060
2666,0.335,-0.060
2667,0.340,-0.015
2668,0.365,0.005
2669,0.365,-0.020
2670,0.390,-0.055
2671,0.390,-0.085
2672,0.410,-0.130
2673,0.410,-0.100
2674,0.425,-0.160
2675,0.445,-0.185
2676,0.445,-0.190
2677,0.445,-0.215
2678,0.475,-0.175
2679,0.455,-0.150
2680,0.435,-0.180
2681,0.415,-0.130
2682,0.385,-0.060
2683,0.360,-0.010
2684,0.310,-0.035
2685,0.290,0.000
2686,0.250,-0.005
2687,0.215,-0.035
2688,0.190,-0.035
2689,0.180,-0.130
2690,0.160,-0.075
2691,0.145,-0.135
2692,0.150,-0.155
2693,0.135,-0.180
2694,0.120,-0.145
2695,0.110,-0.155
2696,0.125,-0.170
2697,0.125,-0.210
2698,0.085,-0.210
2699,0.080,-0.190
2700,0.070,-0.190
2701,0.055,-0.305
2702,0.045,-0.285
2703,0.105,-0.160
2704,0.190,0.000
2705,0.210,0.015
2706,0.185,0.050
2707,0.105,0.055
2708,0.070,0.160
2709,0.010,0.195
2710,-0.020,-0.035
2711,-0.060,-0.110
2712,-0.020,-0.190
2713,0.000,-0.240
2714,-0.020,-0.385
2715,-0.060,-0.480
2716,-0.020,-0.475
2717,-0.055,-0.480
2718,-0.065,-0.500
2719,-0.035,-0.485
2720,-0.045,-0.515
2721,-0.040,-0.460
2722,-0.035,-0.450
2723,-0.040,-0.515
2724,-0.050,-0.495
2725,-0.030,-0.360
2726,0.045,-0.165
2727,-1.180,-0.255
2728,-2.175,0.660
2729,-2.445,1.540
2730,-2.490,0.085
2731,-2.030,-0.295
2732,-0.820,-0.685
2733,-0.170,-0.985
2734,0.155,-0.775
2735,0.175,-0.535
2736,0.195,-0.400
2737,0.215,-0.385
2738,0.225,-0.375
2739,0.225,-0.395
2740,0.240,-0.400
2741,0.275,-0.340
2742,0.265,-0.310
2743,0.255,-0.300
2744,0.280,-0.360
2745,0.310,-0.360
2746,0.330,-0.330
2747,0.325,-0.405
2748,0.330,-0.420
2749,0.375,-0.440
2750,0.350,-0.515
2751,0.385,-0.595
2752,0.375,-0.580
2753,0.365,-0.560
2754,0.355,-0.525
2755,0.315,-0.490
2756,0.290,-0.500
2757,0.250,-0.545
2758,0.225,-0.410
2759,0.200,-0.380
2760,0.185,-0.360
2761,0.170,-0.355
2762,0.155,-0.340
2763,0.155,-0.335
2764,0.135,-0.385
2765,0.140,-0.420
2766,0.120,-0.375
2767,0.110,-0.410
2768,0.130,-0.415
2769,0.085,-0.390
2770,0.085,-0.425
2771,0.090,-0.490
2772,0.095,-0.430
2773,0.055,-0.430
2774,0.065,-0.400
2775,0.060,-0.430
2776,0.080,-0.415
2777,0.095,-0.415
2778,0.170,-0.305
2779,0.220,-0.235
2780,0.195,-0.250
2781,0.140,-0.130
2782,0.095,-0.030
2783,0.080,0.030
2784,0.025,-0.055
2785,0.000,-0.195
2786,0.000,-0.245
2787,0.085,-0.360
2788,0.045,-0.485
2789,0.040,-0.630
2790,0.045,-0.575
2791,0.030,-0.550
2792,0.055,-0.540
2793,0.050,-0.510
2794,0.060,-0.485
2795,0.065,-0.525
2796,0.055,-0.495
2797,0.045,-0.465
2798,0.055,-0.440
2799,0.175,-0.365
2800,0.035,-0.260
2801,-1.325,-0.280
2802,-2.190,0.620
2803,-2.415,0.995
2804,-2.380,-0.265
2805,-1.560,-0.125
2806,-0.575,-0.960
2807,0.020,-0.950
2808,0.275,-0.685
2809,0.315,-0.540
2810,0.330,-0.465
2811,0.360,-0.385
2812,0.385,-0.340
2813,0.400,-0.310
2814,0.410,-0.215
2815,0.400,-0.285
2816,0.405,-0.415
2817,0.430,-0.330
2818,0.455,-0.320
2819,0.455,-0.265
2820,0.480,-0.265
2821,0.500,-0.270
2822,0.515,-0.325
2823,0.515,-0.360
2824,0.540,-0.440
2825,0.550,-0.445
2826,0.540,-0.465
2827,0.525,-0.465
2828,0.515,-0.535
2829,0.515,-0.435
2830,0.470,-0.305
2831,0.415,-0.215
2832,0.415,-0.230
2833,0.370,-0.205
2834,0.355,-0.165
2835,0.330,-0.120
2836,0.340,-0.135
2837,0.325,-0.125
2838,0.330,-0.165
2839,0.295,-0.240
2840,0.305,-0.275
2841,0.280,-0.345
2842,0.285,-0.335
2843,0.280,-0.340
2844,0.245,-0.280
2845,0.265,-0.285
2846,0.265,-0.305
2847,0.255,-0.205
2848,0.250,-0.140
2849,0.250,-0.270
2850,0.305,-0.315
2851,0.395,-0.115
2852,0.385,-0.205
2853,0.340,-0.065
2854,0.265,0.010
2855,0.235,0.115
2856,0.195,0.015
2857,0.135,-0.135
2858,0.140,-0.250
2859,0.200,-0.330
2860,0.210,-0.435
2861,0.200,-0.520
2862,0.180,-0.530
2863,0.180,-0.495
2864,0.185,-0.395
2865,0.185,-0.370
2866,0.180,-0.560
2867,0.165,-0.535
2868,0.165,-0.535
2869,0.170,-0.505
2870,0.185,-0.465
2871,0.215,-0.400
2872,0.260,-0.260
2873,-0.910,-0.355
2874,-2.060,0.455
2875,-2.355,1.095
2876,-2.415,-0.360
2877,-2.070,-0.560
2878,-0.820,-0.710
2879,-0.030,-1.000
2880,0.340,-0.790
2881,0.375,-0.435
2882,0.410,-0.385
2883,0.445,-0.305
2884,0.475,-0.310
2885,0.470,-0.325
2886,0.475,-0.290
2887,0.470,-0.315
2888,0.480,-0.285
2889,0.525,-0.230
2890,0.530,-0.190
2891,0.530,-0.190
2892,0.560,-0.260
2893,0.560,-0.335
2894,0.570,-0.425
2895,0.615,-0.385
2896,0.625,-0.320
2897,0.620,-0.335
2898,0.600,-0.340
2899,0.595,-0.340
2900,0.590,-0.315
2901,0.550,-0.280
2902,0.540,-0.230
2903,0.480,-0.285
2904,0.445,-0.270
2905,0.415,-0.150
2906,0.390,-0.140
2907,0.360,-0.105
2908,0.375,-0.135
2909,0.325,-0.235
2910,0.330,-0.190
2911,0.300,-0.095
2912,0.310,-0.120
2913,0.290,-0.275
2914,0.280,-0.265
2915,0.275,-0.305
2916,0.270,-0.305
2917,0.250,-0.270
2918,0.250,-0.335
2919,0.230,-0.345
2920,0.215,-0.275
2921,0.215,-0.290
2922,0.230,-0.235
2923,0.335,-0.065
2924,0.360,-0.080
2925,0.340,-0.075
2926,0.285,0.000
2927,0.215,0.020
2928,0.160,0.125
2929,0.105,-0.005
2930,0.055,-0.270
2931,0.080,-0.285
2932,0.145,-0.380
2933,0.140,-0.460
2934,0.115,-0.530
2935,0.120,-0.570
2936,0.120,-0.540
2937,0.125,-0.495
2938,0.110,-0.500
2939,0.120,-0.540
2940,0.120,-0.600
2941,0.120,-0.585
2942,0.125,-0.505
2943,0.130,-0.480
2944,0.195,-0.415
2945,0.080,-0.280
2946,-1.440,-0.360
2947,-2.265,0.500
2948,-2.530,0.980
2949,-2.515,-0.720
2950,-1.985,-0.865
2951,-0.715,-1.145
2952,0.030,-1.080
2953,0.315,-0.845
2954,0.350,-0.530
2955,0.365,-0.435
2956,0.400,-0.335
2957,0.400,-0.295
2958,0.420,-0.310
2959,0.450,-0.255
2960,0.450,-0.235
2961,0.465,-0.260
2962,0.480,-0.170
2963,0.480,-0.225
2964,0.500,-0.295
2965,0.510,-0.235
2966,0.525,-0.175
2967,0.525,-0.235
2968,0.550,-0.250
2969,0.580,-0.270
2970,0.570,-0.225
2971,0.575,-0.245
2972,0.555,-0.330
2973,0.560,-0.355
2974,0.520,-0.290
2975,0.485,-0.205
2976,0.440,-0.185
2977,0.405,-0.165
2978,0.375,0.010
2979,0.330,-0.050
2980,0.330,-0.195
2981,0.295,-0.080
2982,0.305,-0.125
2983,0.270,-0.275
2984,0.275,-0.250
2985,0.255,-0.245
2986,0.265,-0.090
2987,0.265,-0.110
2988,0.245,-0.295
2989,0.255,-0.240
2990,0.240,-0.215
2991,0.215,-0.395
2992,0.210,-0.465
2993,0.200,-0.455
2994,0.180,-0.435
2995,0.180,-0.380
2996,0.215,-0.305
2997,0.345,-0.210
2998,0.315,-0.195
2999,0.280,-0.200
3000,0.220,-0.085
3001,0.170,0.060
3002,0.105,0.120
3003,0.040,-0.110
3004,0.005,-0.480
3005,0.005,-0.415
3006,0.070,-0.465
3007,0.080,-0.570
3008,0.060,-0.700
3009,0.030,-0.735
3010,0.050,-0.670
3011,0.045,-0.635
3012,0.050,-0.585
3013,0.025,-0.670
3014,0.030,-0.650
3015,0.050,-0.540
3016,0.025,-0.575
3017,0.015,-0.605
3018,0.050,-0.570
3019,0.155,-0.385
3020,-0.910,-0.485
3021,-2.060,-0.015
3022,-2.420,0.865
3023,-2.540,0.000
3024,-2.260,-1.040
3025,-1.110,-0.865
3026,-0.335,-1.240
3027,0.150,-0.960
3028,0.240,-0.690
3029,0.235,-0.615
3030,0.280,-0.545
3031,0.315,-0.495
3032,0.325,-0.425
3033,0.355,-0.345
3034,0.355,-0.350
3035,0.320,-0.480
3036,0.340,-0.525
3037,0.350,-0.500
3038,0.355,-0.445
3039,0.375,-0.445
3040,0.380,-0.515
3041,0.400,-0.550
3042,0.400,-0.500
3043,0.455,-0.535
3044,0.440,-0.555
3045,0.435,-0.585
3046,0.445,-0.500
3047,0.445,-0.455
3048,0.425,-0.585
3049,0.410,-0.725
3050,0.360,-0.685
3051,0.315,-0.600
3052,0.300,-0.485
3053,0.265,-0.400
3054,0.225,-0.410
3055,0.205,-0.410
3056,0.185,-0.365
3057,0.190,-0.355
3058,0.155,-0.430
3059,0.140,-0.500
3060,0.130,-0.625
3061,0.120,-0.565
3062,0.140,-0.505
3063,0.110,-0.495
3064,0.120,-0.500
3065,0.105,-0.515
3066,0.095,-0.510
3067,0.070,-0.475
3068,0.075,-0.465
3069,0.070,-0.445
3070,0.060,-0.490
3071,0.105,-0.455
3072,0.160,-0.325
3073,0.205,-0.225
3074,0.190,-0.350
3075,0.140,-0.285
3076,0.070,-0.160
3077,0.045,-0.025
3078,0.010,-0.180
3079,-0.045,-0.275
3080,-0.060,-0.390
3081,-0.010,-0.430
3082,-0.005,-0.555
3083,0.015,-0.635
3084,-0.010,-0.630
3085,0.000,-0.650
3086,-0.030,-0.695
3087,-0.030,-0.735
3088,-0.040,-0.685
3089,-0.030,-0.680
3090,-0.010,-0.640
3091,-0.030,-0.665
3092,-0.025,-0.620
3093,-0.025,-0.590
3094,0.030,-0.490
3095,0.145,-0.340
3096,-1.000,-0.390
3097,-2.095,0.255
3098,-2.440,1.010
3099,-2.485,-0.290
3100,-2.200,-0.760
3101,-1.115,-0.660
3102,-0.370,-1.115
3103,0.080,-0.915
3104,0.200,-0.605
3105,0.220,-0.515
3106,0.255,-0.475
3107,0.270,-0.395
3108,0.285,-0.460
3109,0.300,-0.435
3110,0.280,-0.455
3111,0.325,-0.380
3112,0.315,-0.330
3113,0.355,-0.245
3114,0.370,-0.195
3115,0.385,-0.265
3116,0.395,-0.315
3117,0.405,-0.380
3118,0.415,-0.380
3119,0.440,-0.370
3120,0.455,-0.360
3121,0.450,-0.345
3122,0.460,-0.325
3123,0.445,-0.335
3124,0.425,-0.355
3125,0.420,-0.315
3126,0.390,-0.305
3127,0.330,-0.330
3128,0.305,-0.190
3129,0.285,-0.170
3130,0.240,-0.215
3131,0.215,-0.100
3132,0.190,-0.135
3133,0.205,-0.140
3134,0.210,-0.080
3135,0.165,-0.105
3136,0.205,-0.110
3137,0.185,0.000
3138,0.175,-0.055
3139,0.140,-0.245
3140,0.155,-0.305
3141,0.130,-0.225
3142,0.130,-0.195
3143,0.105,-0.225
3144,0.125,-0.225
3145,0.105,-0.215
3146,0.100,-0.195
3147,0.105,-0.230
3148,0.130,-0.215
3149,0.205,-0.100
3150,0.255,0.090
3151,0.230,0.105
3152,0.155,-0.005
3153,0.110,0.135
3154,0.040,0.250
3155,0.000,0.100
3156,-0.040,-0.080
3157,-0.010,-0.125
3158,0.040,-0.220
3159,0.025,-0.325
3160,0.005,-0.335
3161,0.030,-0.290
3162,0.030,-0.340
3163,0.010,-0.390
3164,0.020,-0.440
3165,0.015,-0.390
3166,0.005,-0.420
3167,0.000,-0.450
3168,0.010,-0.470
3169,0.035,-0.290
3170,0.035,-0.150
3171,0.130,-0.020
3172,-0.835,-0.215
3173,-2.090,-0.010
3174,-2.520,0.705
3175,-2.665,0.090
3176,-2.495,-1.055
3177,-1.435,-0.550
3178,-0.490,-0.980
3179,0.050,-0.675
3180,0.240,-0.395
3181,0.225,-0.385
3182,0.275,-0.265
3183,0.240,-0.280
3184,0.285,-0.180
3185,0.300,-0.145
3186,0.315,-0.120
3187,0.325,-0.005
3188,0.320,0.050
3189,0.335,-0.010
3190,0.360,0.000
3191,0.360,-0.050
3192,0.375,-0.110
3193,0.405,-0.110
3194,0.420,-0.085
3195,0.430,-0.075
3196,0.420,-0.120
3197,0.440,-0.065
3198,0.460,-0.150
3199,0.440,-0.150
3200,0.450,-0.100
3201,0.400,-0.050
3202,0.400,0.015
3203,0.365,0.075
3204,0.310,0.145
3205,0.250,0.155
3206,0.220,0.115
3207,0.200,0.065
3208,0.170,-0.015
3209,0.165,0.030
3210,0.135,0.035
3211,0.135,0.030
3212,0.130,0.050
3213,0.115,0.040
3214,0.070,-0.005
3215,0.100,0.025
3216,0.080,-0.090
3217,0.070,-0.225
3218,0.060,-0.130
3219,0.050,-0.220
3220,0.085,-0.165
3221,0.055,-0.130
3222,0.045,-0.200
3223,0.060,-0.160
3224,0.160,0.155
3225,0.200,0.080
3226,0.195,0.115
3227,0.135,0.265
3228,0.045,0.255
3229,0.000,0.375
3230,-0.025,0.200
3231,-0.075,0.110
3232,-0.085,0.010
3233,-0.025,-0.135
3234,-0.010,-0.350
3235,-0.015,-0.390
3236,-0.020,-0.390
3237,-0.010,-0.360
3238,-0.020,-0.325
3239,0.000,-0.235
3240,-0.020,-0.255
3241,-0.005,-0.255
3242,-0.005,-0.215
3243,-0.005,-0.315
3244,0.000,-0.375
3245,0.015,-0.275
3246,0.205,-0.010
3247,-0.570,-0.135
3248,-1.905,0.025
3249,-2.520,0.945
3250,-2.680,0.035
3251,-2.445,-0.870
3252,-1.290,-0.745
3253,-0.415,-0.935
3254,0.115,-0.660
3255,0.235,-0.360
3256,0.255,-0.160
3257,0.265,-0.135
3258,0.270,-0.085
3259,0.305,-0.065
3260,0.290,0.000
3261,0.305,0.015
3262,0.315,0.015
3263,0.350,0.135
3264,0.375,0.200
3265,0.380,0.005
3266,0.370,-0.060
3267,0.380,-0.035
3268,0.415,-0.015
3269,0.425,0.010
3270,0.445,-0.025
3271,0.460,-0.025
3272,0.455,-0.045
3273,0.450,0.000
3274,0.420,0.020
3275,0.400,0.060
3276,0.370,0.115
3277,0.320,0.040
3278,0.260,0.000
3279,0.225,0.100
3280,0.195,0.150
3281,0.165,0.120
3282,0.135,0.090
3283,0.140,0.160
3284,0.125,0.065
3285,0.140,0.085
3286,0.120,0.030
3287,0.110,0.025
3288,0.125,0.160
3289,0.110,0.090
3290,0.085,-0.120
3291,0.070,-0.105
3292,0.060,-0.105
3293,0.065,-0.095
3294,0.060,-0.050
3295,0.060,-0.090
3296,0.050,-0.100
3297,0.075,-0.020
3298,0.155,0.165
3299,0.185,0.150
3300,0.165,0.085
3301,0.115,0.290
3302,0.045,0.360
3303,0.000,0.295
3304,-0.050,0.165
3305,-0.110,0.075
3306,-0.080,0.015
3307,-0.005,-0.090
3308,-0.020,-0.225
3309,-0.045,-0.385
3310,-0.040,-0.400
3311,-0.040,-0.315
3312,-0.045,-0.360
3313,-0.045,-0.255
3314,-0.040,-0.255
3315,-0.050,-0.245
3316,-0.060,-0.345
3317,-0.060,-0.295
3318,-0.065,-0.270
3319,0.045,-0.145
3320,-0.245,-0.065
3321,-1.745,-0.065
3322,-2.505,0.835
3323,-2.710,0.235
3324,-2.700,-1.140
3325,-1.935,-0.610
3326,-0.705,-0.950
3327,0.000,-0.790
3328,0.180,-0.515
3329,0.220,-0.220
3330,0.240,-0.175
3331,0.260,-0.125
3332,0.280,-0.085
3333,0.280,-0.040
3334,0.270,-0.050
3335,0.290,0.015
3336,0.310,0.030
3337,0.310,-0.045
3338,0.320,-0.015
3339,0.340,-0.060
3340,0.360,-0.080
3341,0.375,-0.105
3342,0.420,-0.055
3343,0.405,-0.100
3344,0.440,-0.115
3345,0.425,-0.110
3346,0.405,-0.150
3347,0.405,-0.110
3348,0.390,-0.035
3349,0.360,0.055
3350,0.315,0.090
3351,0.225,0.030
3352,0.205,0.090
3353,0.200,0.190
3354,0.170,0.165
3355,0.140,-0.010
3356,0.130,0.010
3357,0.135,0.060
3358,0.115,0.005
3359,0.115,-0.010
3360,0.125,0.015
3361,0.110,-0.015
3362,0.115,-0.025
3363,0.100,-0.035
3364,0.115,-0.060
3365,0.110,-0.035
3366,0.095,-0.145
3367,0.095,-0.150
3368,0.100,-0.155
3369,0.090,-0.090
3370,0.170,0.055
3371,0.265,0.235
3372,0.255,0.210
3373,0.185,0.275
3374,0.130,0.420
3375,0.110,0.550
3376,0.055,0.220
3377,-0.020,0.050
3378,-0.030,0.000
3379,0.035,-0.020
3380,0.065,-0.150
3381,0.030,-0.255
3382,0.005,-0.245
3383,0.015,-0.230
3384,0.015,-0.245
3385,0.005,-0.205
3386,0.020,-0.185
3387,0.005,-0.285
3388,0.030,-0.315
3389,0.010,-0.290
3390,0.010,-0.270
3391,0.010,-0.175
3392,0.175,-0.020
3393,-1.000,-0.125
3394,-2.195,0.620
3395,-2.545,1.220
3396,-2.600,-0.305
3397,-2.135,-0.260
3398,-0.955,-0.640
3399,-0.140,-0.730
3400,0.210,-0.495
3401,0.260,-0.295
3402,0.270,-0.230
3403,0.295,-0.195
3404,0.295,-0.125
3405,0.315,-0.070
3406,0.330,-0.115
3407,0.335,-0.115
3408,0.325,-0.055
3409,0.355,-0.025
3410,0.370,0.010
3411,0.385,-0.070
3412,0.355,-0.190
3413,0.410,-0.160
3414,0.410,-0.160
3415,0.440,-0.085
3416,0.430,-0.075
3417,0.455,-0.125
3418,0.455,-0.155
3419,0.460,-0.125
3420,0.430,-0.140
3421,0.400,-0.275
3422,0.370,-0.205
3423,0.340,-0.140
3424,0.320,-0.070
3425,0.265,0.000
3426,0.240,0.110
3427,0.235,0.110
3428,0.215,-0.025
3429,0.205,-0.085
3430,0.175,-0.110
3431,0.180,-0.060
3432,0.165,-0.110
3433,0.155,-0.115
3434,0.130,-0.070
3435,0.105,-0.085
3436,0.105,-0.105
3437,0.085,-0.045
3438,0.095,-0.020
3439,0.090,0.055
3440,0.080,0.070
3441,0.055,-0.285
3442,0.080,-0.220
3443,0.160,-0.020
3444,0.215,0.110
3445,0.185,0.055
3446,0.150,0.160
3447,0.080,0.285
3448,0.050,0.345
3449,0.000,0.225
3450,-0.065,0.040
3451,-0.070,-0.070
3452,-0.015,-0.115
3453,0.000,-0.205
3454,-0.040,-0.430
3455,-0.055,-0.480
3456,-0.070,-0.425
3457,-0.050,-0.405
3458,-0.060,-0.370
3459,-0.055,-0.425
3460,-0.065,-0.380
3461,-0.060,-0.355
3462,-0.070,-0.390
3463,-0.075,-0.435
3464,-0.020,-0.340
3465,0.105,-0.145
3466,-0.815,-0.230
3467,-1.990,0.280
3468,-2.370,1.245
3469,-2.470,0.435
3470,-2.115,-0.340
3471,-1.010,-0.625
3472,-0.355,-0.990
3473,0.060,-0.805
3474,0.185,-0.450
3475,0.200,-0.360
3476,0.220,-0.330
3477,0.255,-0.240
3478,0.265,-0.190
3479,0.285,-0.120
3480,0.280,-0.085
3481,0.275,-0.140
3482,0.290,-0.145
3483,0.325,-0.105
3484,0.320,-0.140
3485,0.350,-0.245
3486,0.390,-0.175
3487,0.390,-0.135
3488,0.390,-0.200
3489,0.400,-0.240
3490,0.400,-0.325
3491,0.400,-0.260
3492,0.385,-0.290
3493,0.380,-0.320
3494,0.365,-0.360
3495,0.340,-0.290
3496,0.300,-0.205
3497,0.240,-0.185
3498,0.220,-0.155
3499,0.205,-0.080
3500,0.165,-0.060
3501,0.155,-0.060
3502,0.150,-0.020
3503,0.175,0.020
3504,0.175,-0.005
3505,0.160,-0.090
3506,0.135,-0.130
3507,0.150,-0.175
3508,0.185,-0.160
3509,0.150,-0.130
3510,0.140,-0.155
3511,0.130,-0.130
3512,0.075,-0.075
3513,0.075,-0.070
3514,0.025,-0.225
3515,0.040,-0.205
3516,0.100,-0.245
3517,0.080,-0.220
3518,0.140,-0.160
3519,0.170,0.005
3520,0.145,-0.040
3521,0.130,0.045
3522,0.095,0.030
3523,0.095,0.195
3524,0.075,0.205
3525,0.000,0.080
3526,-0.005,-0.050
3527,0.120,-0.185
3528,0.070,-0.190
3529,-0.040,-0.310
3530,-0.120,-0.475
3531,-0.130,-0.560
3532,-0.065,-0.510
3533,-0.055,-0.465
3534,-0.015,-0.365
3535,0.045,-0.325
3536,-0.035,-0.380
3537,-0.005,-0.385
3538,0.015,-0.370
3539,0.035,-0.335
3540,0.020,-0.270
3541,0.090,-0.205
3542,-1.215,-0.470
3543,-2.290,0.450
3544,-2.565,0.905
3545,-2.625,-0.610
3546,-2.365,-0.650
3547,-1.135,-0.705
3548,-0.245,-0.950
3549,0.245,-0.775
3550,0.305,-0.465
3551,0.245,-0.370
3552,0.265,-0.220
3553,0.265,-0.215
3554,0.255,-0.240
3555,0.315,-0.145
3556,0.375,-0.090
3557,0.350,-0.135
3558,0.445,-0.080
3559,0.465,-0.170
3560,0.375,-0.155
3561,0.365,-0.150
3562,0.395,-0.170
3563,0.365,-0.305
3564,0.465,-0.260
3565,0.655,-0.320
3566,0.640,-0.155
3567,0.660,-0.160
3568,0.710,-0.200
3569,0.570,-0.340
3570,0.300,-0.215
3571,0.290,-0.220
3572,0.290,-0.345
3573,0.335,-0.165
3574,0.385,0.005
3575,0.465,-0.015
3576,0.485,-0.005
3577,0.330,-0.070
3578,0.350,-0.025
3579,0.345,-0.010
3580,0.075,-0.110
3581,0.170,-0.095
3582,0.345,-0.100
3583,0.315,-0.300
3584,0.055,-0.310
3585,0.235,-0.170
3586,0.225,-0.175
3587,0.110,-0.040
3588,0.230,-0.225
3589,0.235,-0.190
3590,0.145,-0.250
3591,0.275,-0.280
3592,0.265,-0.335
3593,0.215,-0.205
3594,0.225,-0.210
3595,0.180,-0.170
3596,0.150,0.140
3597,0.355,0.130
3598,0.430,0.120
3599,0.165,0.005
3600,0.290,0.130
3601,0.135,0.170
3602,0.000,0.045
3603,0.125,-0.115
3604,0.130,-0.290
3605,0.190,-0.160
3606,0.330,-0.250
3607,0.090,-0.435
3608,-0.020,-0.450
3609,-0.030,-0.535
3610,0.145,-0.685
3611,0.215,-0.550
3612,0.325,-0.450
3613,0.415,-0.355
3614,0.225,-0.235
3615,-0.095,-0.165
3616,-0.135,-0.135
3617,0.060,-0.250
3618,0.105,-0.400
3619,-0.955,-0.635
3620,-2.020,0.145
3621,-2.410,0.775
3622,-2.380,-0.190
3623,-2.085,-0.840
3624,-1.115,-0.660
3625,-0.165,-0.940
3626,0.025,-0.840
3627,0.070,-0.545
3628,0.225,-0.375
3629,0.385,-0.310
3630,0.490,-0.235
3631,0.765,-0.150
3632,0.805,-0.170
3633,0.500,-0.285
3634,0.615,-0.290
3635,0.575,-0.415
3636,0.355,-0.285
3637,0.260,-0.275
3638,0.325,-0.225
3639,0.480,-0.045
3640,0.640,-0.025
3641,0.640,-0.120
3642,0.620,-0.250
3643,0.725,-0.315
3644,0.835,-0.390
3645,0.730,-0.355
3646,0.795,-0.385
3647,0.985,-0.370
3648,0.885,-0.360
3649,0.300,-0.260
3650,0.030,-0.010
3651,0.185,0.000
3652,0.280,-0.100
3653,0.345,-0.050
3654,0.380,-0.160
3655,0.440,-0.065
3656,0.465,-0.030
3657,0.355,-0.105
3658,0.350,-0.190
3659,0.420,-0.155
3660,0.720,-0.115
3661,0.675,-0.025
3662,0.050,-0.275
3663,0.010,-0.300
3664,-0.040,-0.305
3665,0.070,-0.270
3666,0.150,-0.215
3667,0.235,-0.235
3668,0.250,-0.170
3669,0.350,-0.130
3670,0.480,-0.130
3671,0.725,-0.200
3672,0.700,-0.230
3673,0.085,-0.025
3674,-0.050,-0.025
3675,0.105,0.160
3676,0.105,0.255
3677,0.160,0.320
3678,0.205,0.145
3679,0.355,0.115
3680,0.270,-0.030
3681,0.030,-0.290
3682,0.060,-0.485
3683,0.145,-0.560
3684,0.075,-0.420
3685,0.060,-0.395
3686,0.130,-0.380
3687,0.285,-0.440
3688,0.930,-0.490
3689,0.695,-0.585
3690,0.440,-0.415
3691,0.175,-0.465
3692,-0.465,-0.750
3693,-0.370,-0.575
3694,-0.030,-0.035
3695,-0.095,0.155
3696,-1.465,-0.060
3697,-2.270,0.630
3698,-2.515,0.445
3699,-2.545,-0.910
3700,-1.895,-0.580
3701,-0.705,-0.855
3702,0.100,-0.935
3703,0.895,-0.745
3704,0.800,-0.285
3705,0.220,-0.305
3706,0.175,-0.290
3707,0.290,-0.065
3708,0.695,-0.185
3709,0.615,-0.260
3710,0.045,-0.105
3711,0.185,0.000
3712,0.420,0.155
3713,0.555,-0.010
3714,0.810,-0.200
3715,1.135,-0.195
3716,0.780,-0.070
3717,1.375,-0.105
3718,1.155,-0.425
3719,0.290,-0.355
3720,0.185,-0.335
3721,0.320,-0.125
3722,0.530,-0.010
3723,0.610,0.025
3724,0.665,-0.100
3725,0.685,-0.045
3726,0.730,-0.005
3727,0.725,0.055
3728,0.720,0.000
3729,0.880,-0.045
3730,0.610,-0.005
3731,0.285,-0.260
3732,0.150,-0.085
3733,0.120,-0.230
3734,0.145,-0.095
3735,0.215,-0.145
3736,0.285,-0.215
3737,0.425,-0.085
3738,0.665,-0.125
3739,0.560,-0.185
3740,0.505,-0.170
3741,0.405,-0.155
3742,0.055,-0.175
3743,0.155,-0.245
3744,0.040,-0.350
3745,0.100,-0.300
3746,0.220,-0.235
3747,0.370,-0.285
3748,0.730,0.000
3749,0.175,0.095
3750,0.130,0.265
3751,0.330,0.430
3752,0.295,0.355
3753,0.335,0.375
3754,0.685,0.180
3755,0.180,-0.090
3756,0.225,-0.290
3757,-0.025,-0.335
3758,-0.130,-0.390
3759,0.185,-0.370
3760,0.135,-0.415
3761,0.060,-0.295
3762,0.175,-0.310
3763,0.495,-0.365
3764,0.470,-0.370
3765,0.275,-0.300
3766,0.500,-0.270
3767,0.260,-0.345
3768,0.190,-0.295
3769,-0.020,-0.175
3770,-0.060,-0.220
3771,-1.270,-0.445
3772,-2.290,0.275
3773,-2.620,0.500
3774,-2.580,-1.010
3775,-2.120,-0.795
3776,-0.715,-0.895
3777,0.260,-0.890
3778,0.385,-0.580
3779,0.450,-0.245
3780,0.225,-0.215
3781,0.305,-0.215
3782,0.475,-0.175
3783,0.375,-0.175
3784,0.365,-0.160
3785,0.395,-0.145
3786,0.360,-0.085
3787,0.405,-0.070
3788,0.560,-0.135
3789,0.255,-0.085
3790,0.235,-0.060
3791,0.420,-0.140
3792,0.615,-0.145
3793,0.615,-0.155
3794,0.495,-0.170
3795,0.585,-0.200
3796,0.430,-0.160
3797,0.575,-0.100
3798,0.530,-0.125
3799,0.515,-0.070
3800,0.490,-0.220
3801,0.415,-0.260
3802,0.280,-0.265
3803,-0.055,-0.190
3804,-0.045,-0.045
3805,0.080,-0.005
3806,0.125,-0.045
3807,0.190,0.040
3808,0.305,0.045
3809,0.320,0.015
3810,0.075,0.065
3811,0.000,-0.010
3812,0.235,-0.035
3813,0.320,-0.190
3814,0.290,-0.205
3815,0.065,-0.250
3816,-0.040,-0.220
3817,-0.235,-0.185
3818,-0.100,-0.185
3819,0.055,-0.190
3820,0.040,-0.115
3821,-0.090,-0.215
3822,0.030,-0.030
3823,0.215,0.125
3824,0.055,0.135
3825,0.060,0.375
3826,0.345,0.335
3827,0.270,0.205
3828,0.040,0.225
3829,-0.240,0.070
3830,-0.375,-0.095
3831,-0.095,-0.100
3832,-0.205,-0.155
3833,-0.235,-0.355
3834,-0.145,-0.315
3835,-0.150,-0.225
3836,-0.070,-0.110
3837,-0.075,-0.135
3838,-0.080,-0.285
3839,-0.035,-0.255
3840,0.075,-0.220
3841,0.465,-0.215
3842,0.075,-0.215
3843,-0.220,-0.205
3844,-0.275,-0.030
3845,-1.515,-0.070
3846,-2.365,0.930
3847,-2.610,1.660
3848,-2.620,0.165
3849,-2.040,-0.175
3850,-0.905,-0.660
3851,-0.230,-0.745
3852,0.060,-0.525
3853,0.260,-0.255
3854,0.505,-0.200
3855,0.045,-0.115
3856,-0.125,-0.185
3857,0.030,-0.200
3858,0.000,-0.155
3859,0.095,-0.135
3860,0.105,-0.105
3861,0.110,-0.175
3862,0.160,-0.155
3863,0.205,0.015
3864,0.250,0.065
3865,0.235,-0.180
3866,0.245,-0.350
3867,0.385,-0.305
3868,0.580,-0.315
3869,0.280,-0.290
3870,-0.090,-0.275
3871,0.020,-0.305
3872,0.130,-0.270
3873,0.170,-0.225
3874,0.130,-0.110
3875,0.075,-0.070
3876,0.030,-0.240
3877,0.015,-0.240
3878,-0.010,-0.145
3879,-0.005,-0.080
3880,-0.090,-0.095
3881,-0.095,-0.160
3882,-0.025,-0.205
3883,-0.040,-0.110
3884,-0.060,-0.145
3885,-0.130,-0.155
3886,-0.165,-0.185
3887,-0.065,-0.175
3888,-0.115,-0.015
3889,-0.175,-0.040
3890,-0.150,-0.295
3891,-0.125,-0.165
3892,-0.125,-0.180
3893,-0.140,-0.160
3894,-0.135,-0.205
3895,-0.095,-0.150
3896,-0.025,-0.005
3897,0.045,0.070
3898,0.020,0.070
3899,-0.005,0.250
3900,-0.100,0.330
3901,-0.170,0.250
3902,-0.185,0.160
3903,-0.220,-0.075
3904,-0.220,0.030
3905,-0.140,-0.095
3906,-0.130,-0.270
3907,-0.155,-0.285
3908,-0.175,-0.295
3909,-0.160,-0.300
3910,-0.140,-0.380
3911,-0.125,-0.290
3912,-0.160,-0.265
3913,-0.225,-0.325
3914,-0.225,-0.260
3915,-0.215,-0.215
3916,-0.230,-0.295
3917,-0.075,-0.170
3918,-0.390,-0.085
3919,-1.825,-0.060
3920,-2.540,0.730
3921,-2.715,0.070
3922,-2.600,-0.845
3923,-1.655,-0.455
3924,-0.725,-1.040
3925,-0.120,-0.680
3926,0.005,-0.375
3927,0.020,-0.150
3928,0.050,-0.060
3929,0.095,0.015
3930,0.090,-0.060
3931,0.100,-0.140
3932,0.110,-0.060
3933,0.100,-0.095
3934,0.130,-0.065
3935,0.150,-0.025
3936,0.150,-0.075
3937,0.170,-0.060
3938,0.205,-0.080
3939,0.205,-0.125
3940,0.235,-0.120
3941,0.250,-0.110
3942,0.255,-0.115
3943,0.260,-0.115
3944,0.215,-0.240
3945,0.250,-0.165
3946,0.210,-0.045
3947,0.170,0.015
3948,0.130,-0.025
3949,0.080,-0.105
3950,0.050,-0.005
3951,0.000,0.035
3952,-0.025,-0.005
3953,-0.030,0.000
3954,-0.040,0.000
3955,-0.060,-0.020
3956,-0.060,-0.065
3957,-0.065,-0.090
3958,-0.085,-0.110
3959,-0.090,-0.025
3960,-0.085,-0.105
3961,-0.090,-0.040
3962,-0.115,-0.010
3963,-0.090,-0.065
3964,-0.105,-0.025
3965,-0.115,-0.075
3966,-0.125,-0.115
3967,-0.140,-0.075
3968,-0.145,-0.240
3969,-0.110,-0.135
3970,-0.060,0.005
3971,0.000,0.000
3972,-0.040,0.000
3973,-0.065,0.115
3974,-0.095,0.225
3975,-0.135,0.225
3976,-0.210,0.125
3977,-0.265,-0.020
3978,-0.260,-0.155
3979,-0.210,-0.320
3980,-0.175,-0.360
3981,-0.190,-0.415
3982,-0.245,-0.540
3983,-0.225,-0.435
3984,-0.205,-0.360
3985,-0.220,-0.330
3986,-0.230,-0.220
3987,-0.170,-0.150
3988,-0.175,-0.275
3989,-0.165,-0.390
3990,-0.275,-0.375
3991,-0.190,-0.245
3992,-0.400,-0.185
3993,-1.780,-0.350
3994,-2.515,0.320
3995,-2.735,0.500
3996,-2.755,-1.170
3997,-2.190,-1.045
3998,-0.970,-1.025
3999,-0.350,-0.885
4000,-0.040,-0.585
4001,0.090,-0.270
4002,0.165,-0.255
4003,0.045,-0.220
4004,0.035,-0.285
4005,0.010,-0.080
4006,0.070,-0.075
4007,0.155,0.005
4008,0.225,0.035
4009,0.415,-0.135
4010,0.190,-0.070
4011,-0.035,-0.100
4012,0.075,-0.045
4013,0.185,-0.100
4014,0.210,-0.135
4015,0.270,-0.040
4016,0.340,-0.050
4017,0.405,-0.055
4018,0.290,-0.020
4019,0.275,0.000
4020,0.285,-0.070
4021,0.285,-0.080
4022,0.275,-0.080
4023,0.255,0.035
4024,0.300,0.060
4025,0.160,-0.015
4026,0.055,0.010
4027,0.035,0.090
4028,0.090,0.115
4029,0.115,0.190
4030,0.085,0.105
4031,0.070,-0.030
4032,0.075,0.025
4033,0.070,-0.095
4034,0.120,-0.265
4035,0.180,-0.265
4036,0.290,-0.350
4037,0.005,-0.335
4038,-0.230,-0.345
4039,-0.225,-0.325
4040,-0.135,-0.365
4041,-0.090,-0.295
4042,-0.070,-0.270
4043,-0.020,-0.260
4044,-0.035,-0.215
4045,0.015,-0.205
4046,0.140,0.095
4047,0.140,0.090
4048,0.095,0.205
4049,0.025,0.175
4050,0.125,0.380
4051,0.370,0.035
4052,-0.115,-0.160
4053,0.025,-0.155
4054,-0.165,-0.215
4055,-0.345,-0.320
4056,-0.235,-0.320
4057,-0.150,-0.375
4058,-0.115,-0.375
4059,-0.075,-0.405
4060,-0.045,-0.385
4061,-0.040,-0.415
4062,-0.055,-0.445
4063,-0.050,-0.370
4064,-0.055,-0.425
4065,-0.065,-0.415
4066,-0.035,-0.330
4067,0.015,-0.265
4068,-0.500,-0.275
4069,-1.895,-0.220
4070,-2.500,0.640
4071,-2.710,0.175
4072,-2.660,-1.065
4073,-1.820,-0.480
4074,-0.675,-0.955
4075,-0.015,-0.875
4076,0.180,-0.710
4077,0.170,-0.445
4078,0.220,-0.330
4079,0.100,-0.300
4080,0.050,-0.285
4081,0.055,-0.135
4082,0.105,-0.145
4083,0.145,-0.150
4084,0.145,-0.135
4085,0.135,-0.125
4086,0.150,-0.145
4087,0.175,-0.130
4088,0.190,-0.160
4089,0.190,-0.165
4090,0.195,-0.185
4091,0.200,-0.240
4092,0.205,-0.405
4093,0.190,-0.460
4094,0.200,-0.365
4095,0.190,-0.360
4096,0.190,-0.380
4097,0.150,-0.325
4098,0.115,-0.285
4099,0.095,-0.270
4100,0.030,-0.265
4101,-0.005,-0.165
4102,-0.035,-0.090
4103,-0.100,-0.215
4104,-0.115,-0.225
4105,-0.125,-0.295
4106,-0.120,-0.340
4107,-0.140,-0.275
4108,-0.130,-0.285
4109,-0.160,-0.330
4110,-0.165,-0.360
4111,-0.160,-0.280
4112,-0.185,-0.350
4113,-0.195,-0.375
4114,-0.210,-0.330
4115,-0.180,-0.300
4116,-0.195,-0.285
4117,-0.195,-0.250
4118,-0.200,-0.305
4119,-0.205,-0.230
4120,-0.195,-0.170
4121,-0.185,-0.160
4122,-0.145,-0.205
4123,-0.070,-0.130
4124,-0.105,-0.075
4125,-0.125,-0.095
4126,-0.160,0.015
4127,-0.205,0.110
4128,-0.215,0.000
4129,-0.230,-0.145
4130,-0.265,-0.415
4131,-0.255,-0.305
4132,-0.265,-0.360
4133,-0.250,-0.355
4134,-0.275,-0.310
4135,-0.290,-0.420
4136,-0.295,-0.445
4137,-0.295,-0.405
4138,-0.270,-0.460
4139,-0.250,-0.400
4140,-0.270,-0.465
4141,-0.245,-0.490
4142,-0.230,-0.405
4143,-0.205,-0.465
4144,-0.005,-0.310
4145,-0.115,-0.290
4146,-1.650,-0.305
4147,-2.430,0.600
4148,-2.650,0.850
4149,-2.605,-0.520
4150,-2.090,-0.380
4151,-1.000,-0.680
4152,-0.315,-0.725
4153,0.010,-0.405
4154,0.075,-0.035
4155,0.120,0.060
4156,0.120,-0.090
4157,0.140,-0.185
4158,0.180,-0.210
4159,0.190,-0.175
4160,0.195,-0.125
4161,0.195,-0.090
4162,0.215,-0.100
4163,0.215,-0.085
4164,0.245,-0.105
4165,0.280,-0.060
4166,0.295,-0.045
4167,0.285,-0.045
4168,0.310,-0.050
4169,0.335,-0.035
4170,0.325,-0.150
4171,0.345,-0.160
4172,0.325,-0.180
4173,0.305,-0.285
4174,0.270,-0.310
4175,0.235,-0.300
4176,0.215,-0.200
4177,0.170,-0.120
4178,0.130,-0.030
4179,0.075,0.020
4180,0.065,0.030
4181,0.030,0.030
4182,0.005,-0.005
4183,0.010,0.000
4184,0.005,-0.130
4185,-0.020,-0.190
4186,-0.020,-0.175
4187,-0.020,-0.100
4188,-0.020,0.055
4189,-0.020,0.010
4190,-0.045,0.000
4191,-0.060,-0.065
4192,-0.080,-0.135
4193,-0.070,-0.195
4194,-0.105,-0.300
4195,-0.105,-0.295
4196,-0.105,-0.365
4197,-0.130,-0.400
4198,-0.120,-0.405
4199,-0.070,-0.310
4200,0.040,-0.160
4201,0.015,-0.170
4202,-0.020,-0.040
4203,-0.045,-0.055
4204,-0.095,0.060
4205,-0.135,0.030
4206,-0.175,-0.075
4207,-0.220,-0.130
4208,-0.200,-0.235
4209,-0.130,-0.345
4210,-0.120,-0.390
4211,-0.135,-0.420
4212,-0.115,-0.410
4213,-0.140,-0.410
4214,-0.140,-0.350
4215,-0.120,-0.395
4216,-0.120,-0.375
4217,-0.125,-0.340
4218,-0.140,-0.355
4219,-0.150,-0.420
4220,-0.150,-0.430
4221,-0.030,-0.280
4222,-0.095,-0.040
4223,-1.460,-0.420
4224,-2.355,0.265
4225,-2.635,0.540
4226,-2.675,-1.095
4227,-2.285,-0.785
4228,-1.075,-0.895
4229,-0.310,-0.925
4230,0.060,-0.645
4231,0.105,-0.355
4232,0.150,-0.230
4233,0.135,-0.275
4234,0.160,-0.265
4235,0.185,-0.165
4236,0.185,-0.195
4237,0.200,-0.260
4238,0.185,-0.215
4239,0.215,-0.180
4240,0.240,-0.085
4241,0.235,-0.130
4242,0.260,-0.125
4243,0.280,-0.230
4244,0.275,-0.245
4245,0.300,-0.300
4246,0.335,-0.235
4247,0.360,-0.235
4248,0.365,-0.205
4249,0.345,-0.290
4250,0.345,-0.245
4251,0.340,-0.220
4252,0.305,-0.255
4253,0.265,-0.130
4254,0.195,-0.160
4255,0.155,-0.145
4256,0.130,-0.125
4257,0.105,-0.045
4258,0.105,-0.085
4259,0.080,-0.095
4260,0.070,-0.105
4261,0.050,-0.150
4262,0.045,-0.190
4263,0.015,-0.235
4264,0.045,-0.250
4265,0.000,-0.220
4266,0.005,-0.255
4267,0.005,-0.270
4268,0.000,-0.360
4269,-0.005,-0.340
4270,-0.025,-0.405
4271,-0.010,-0.375
4272,-0.020,-0.400
4273,-0.030,-0.400
4274,-0.030,-0.370
4275,0.025,-0.235
4276,0.115,-0.120
4277,0.080,-0.110
4278,0.040,-0.005
4279,0.000,0.040
4280,-0.015,0.100
4281,-0.060,0.000
4282,-0.135,-0.110
4283,-0.155,-0.155
4284,-0.105,-0.080
4285,-0.060,-0.370
4286,-0.050,-0.440
4287,-0.065,-0.410
4288,-0.085,-0.395
4289,-0.085,-0.465
4290,-0.075,-0.480
4291,-0.125,-0.505
4292,-0.130,-0.455
4293,-0.105,-0.525
4294,-0.110,-0.490
4295,-0.115,-0.490
4296,-0.070,-0.420
4297,-0.045,-0.240
4298,-1.170,-0.350
4299,-2.195,0.070
4300,-2.590,0.470
4301,-2.685,-1.010
4302,-2.400,-1.300
4303,-1.055,-1.075
4304,-0.285,-1.005
4305,0.075,-0.710
4306,0.120,-0.425
4307,0.160,-0.345
4308,0.170,-0.300
4309,0.210,-0.140
4310,0.215,-0.115
4311,0.195,-0.280
4312,0.230,-0.240
4313,0.210,-0.265
4314,0.235,-0.215
4315,0.235,-0.145
4316,0.240,-0.195
4317,0.250,-0.185
4318,0.260,-0.150
4319,0.295,-0.120
4320,0.290,-0.240
4321,0.300,-0.265
4322,0.315,-0.240
4323,0.315,-0.290
4324,0.300,-0.305
4325,0.270,-0.365
4326,0.250,-0.310
4327,0.225,-0.185
4328,0.175,-0.145
4329,0.095,-0.185
4330,0.070,-0.065
4331,0.015,-0.040
4332,-0.015,-0.145
4333,-0.035,-0.310
4334,-0.050,-0.320
4335,-0.055,-0.330
4336,-0.055,-0.270
4337,-0.075,-0.330
4338,-0.070,-0.345
4339,-0.115,-0.450
4340,-0.135,-0.330
4341,-0.125,-0.295
4342,-0.125,-0.270
4343,-0.130,-0.335
4344,-0.145,-0.460
4345,-0.180,-0.505
4346,-0.165,-0.475
4347,-0.140,-0.330
4348,-0.140,-0.265
4349,-0.130,-0.395
4350,-0.030,-0.200
4351,-0.055,-0.190
4352,-0.080,-0.025
4353,-0.125,0.100
4354,-0.150,0.165
4355,-0.185,0.060
4356,-0.245,-0.120
4357,-0.230,-0.230
4358,-0.195,-0.280
4359,-0.175,-0.390
4360,-0.195,-0.470
4361,-0.190,-0.375
4362,-0.200,-0.445
4363,-0.220,-0.810
4364,-0.195,-0.625
4365,-0.235,-0.515
4366,-0.230,-0.475
4367,-0.230,-0.515
4368,-0.220,-0.440
4369,-0.215,-0.225
4370,-0.105,-0.170
4371,-0.425,-0.125
4372,-1.860,0.030
4373,-2.395,1.105
4374,-2.545,0.460
4375,-2.515,-0.750
4376,-1.540,-0.465
4377,-0.665,-0.950
4378,-0.205,-0.755
4379,-0.050,-0.415
4380,0.020,-0.320
4381,0.045,-0.295
4382,0.060,-0.340
4383,0.090,-0.215
4384,0.105,-0.215
4385,0.090,-0.260
4386,0.115,-0.210
4387,0.165,-0.135
4388,0.185,-0.175
4389,0.200,-0.230
4390,0.220,-0.160
4391,0.295,-0.205
4392,0.290,-0.275
4393,0.220,-0.350
4394,0.260,-0.310
4395,0.290,-0.360
4396,0.235,-0.355
4397,0.210,-0.315
4398,0.215,-0.310
4399,0.250,-0.295
4400,0.205,-0.300
4401,0.195,-0.345
4402,0.190,-0.320
4403,0.145,-0.340
4404,0.220,-0.205
4405,0.210,-0.205
4406,0.200,-0.235
4407,0.030,-0.335
4408,-0.050,-0.275
4409,-0.035,-0.050
4410,-0.015,-0.145
4411,0.010,-0.305
4412,0.015,-0.275
4413,0.030,-0.245
4414,0.000,-0.290
4415,0.000,-0.265
4416,0.015,-0.335
4417,0.000,-0.335
4418,0.035,-0.295
4419,-0.010,-0.380
4420,0.000,-0.325
4421,0.000,-0.360
4422,0.025,-0.250
4423,0.115,-0.090
4424,0.130,-0.080
4425,0.085,0.040
4426,0.070,0.115
4427,0.015,0.070
4428,0.055,0.015
4429,0.160,0.015
4430,-0.025,-0.180
4431,-0.170,-0.290
4432,-0.190,-0.370
4433,-0.125,-0.450
4434,-0.115,-0.445
4435,-0.100,-0.400
4436,-0.085,-0.410
4437,-0.065,-0.390
4438,-0.075,-0.440
4439,-0.040,-0.355
4440,-0.035,-0.320
4441,-0.030,-0.355
4442,-0.030,-0.305
4443,0.085,-0.170
4444,0.215,-0.100
4445,-0.930,-0.320
4446,-2.180,0.295
4447,-2.570,0.750
4448,-2.570,-0.605
4449,-1.980,-0.445
4450,-0.860,-0.850
4451,-0.210,-0.855
4452,0.145,-0.490
4453,0.185,-0.210
4454,0.190,-0.265
4455,0.220,-0.210
4456,0.225,-0.140
4457,0.255,-0.165
4458,0.250,-0.030
4459,0.250,-0.020
4460,0.265,-0.160
4461,0.250,-0.185
4462,0.290,-0.135
4463,0.290,-0.215
4464,0.270,-0.225
4465,0.290,-0.190
4466,0.305,-0.215
4467,0.310,-0.260
4468,0.315,-0.245
4469,0.310,-0.310
4470,0.300,-0.265
4471,0.305,-0.260
4472,0.270,-0.245
4473,0.230,-0.230
4474,0.195,-0.325
4475,0.155,-0.150
4476,0.100,-0.085
4477,0.100,-0.045
4478,0.060,0.020
4479,0.040,-0.155
4480,0.030,-0.165
4481,0.025,-0.235
4482,0.030,-0.195
4483,0.015,-0.220
4484,0.010,-0.180
4485,0.000,-0.240
4486,-0.010,-0.285
4487,-0.010,-0.300
4488,0.000,-0.250
4489,-0.020,-0.325
4490,-0.030,-0.305
4491,-0.035,-0.320
4492,-0.010,-0.275
4493,-0.045,-0.350
4494,-0.050,-0.430
4495,-0.035,-0.340
4496,0.010,-0.200
4497,0.105,-0.095
4498,0.090,0.000
4499,0.040,0.140
4500,-0.005,0.105
4501,-0.030,0.130
4502,-0.085,0.015
4503,-0.145,-0.175
4504,-0.145,-0.205
4505,-0.110,-0.275
4506,-0.040,-0.425
4507,-0.055,-0.410
4508,-0.040,-0.325
4509,-0.075,-0.400
4510,-0.060,-0.435
4511,-0.045,-0.370
4512,-0.040,-0.400
4513,-0.050,-0.420
4514,-0.060,-0.395
4515,-0.050,-0.360
4516,-0.065,-0.350
4517,-0.045,-0.380
4518,0.010,-0.225
4519,-1.165,-0.430
4520,-2.170,-0.020
4521,-2.545,0.530
4522,-2.645,-1.010
4523,-2.395,-1.365
4524,-1.035,-1.155
4525,-0.240,-1.045
4526,0.110,-0.750
4527,0.170,-0.460
4528,0.215,-0.325
4529,0.225,-0.265
4530,0.245,-0.255
4531,0.255,-0.225
4532,0.270,-0.210
4533,0.290,-0.190
4534,0.285,-0.135
4535,0.295,-0.100
4536,0.325,-0.080
4537,0.315,-0.190
4538,0.335,-0.200
4539,0.355,-0.125
4540,0.375,-0.265
4541,0.385,-0.210
4542,0.415,-0.155
4543,0.395,-0.305
4544,0.405,-0.320
4545,0.400,-0.300
4546,0.385,-0.270
4547,0.375,-0.215
4548,0.360,-0.205
4549,0.310,-0.220
4550,0.240,-0.235
4551,0.195,-0.175
4552,0.170,-0.220
4553,0.115,-0.225
4554,0.105,-0.215
4555,0.075,-0.200
4556,0.080,-0.280
4557,0.070,-0.270
4558,0.045,-0.290
4559,0.035,-0.360
4560,0.025,-0.415
4561,0.005,-0.440
4562,0.025,-0.355
4563,0.005,-0.390
4564,0.015,-0.415
4565,-0.015,-0.360
4566,-0.010,-0.370
4567,-0.005,-0.430
4568,-0.035,-0.500
4569,-0.030,-0.505
4570,-0.005,-0.400
4571,0.010,-0.325
4572,0.150,-0.210
4573,0.120,-0.170
4574,0.060,-0.030
4575,0.025,0.015
4576,-0.020,0.065
4577,-0.035,0.005
4578,-0.080,-0.010
4579,-0.120,-0.035
4580,-0.095,-0.140
4581,-0.095,-0.375
4582,-0.060,-0.555
4583,-0.080,-0.500
4584,-0.075,-0.555
4585,-0.075,-0.535
4586,-0.105,-0.485
4587,-0.080,-0.455
4588,-0.105,-0.475
4589,-0.095,-0.425
4590,-0.115,-0.420
4591,-0.125,-0.410
4592,-0.140,-0.480
4593,-0.060,-0.275
4594,0.015,-0.105
4595,-1.105,-0.425
4596,-2.095,0.290
4597,-2.465,1.275
4598,-2.555,0.240
4599,-2.185,-0.370
4600,-1.115,-0.605
4601,-0.445,-1.035
4602,-0.080,-0.725
4603,0.045,-0.420
4604,0.055,-0.310
4605,0.065,-0.455
4606,0.100,-0.415
4607,0.110,-0.395
4608,0.285,-0.280
4609,0.365,-0.375
4610,0.310,-0.315
4611,0.145,-0.385
4612,-0.075,-0.295
4613,-0.050,-0.220
4614,0.000,-0.235
4615,0.085,-0.350
4616,0.165,-0.325
4617,0.155,-0.445
4618,0.220,-0.440
4619,0.285,-0.430
4620,0.260,-0.420
4621,0.285,-0.365
4622,0.290,-0.495
4623,0.335,-0.480
4624,0.470,-0.465
4625,0.555,-0.490
4626,0.055,-0.485
4627,-0.190,-0.355
4628,-0.175,-0.340
4629,-0.115,-0.295
4630,-0.075,-0.235
4631,-0.030,-0.235
4632,-0.035,-0.390
4633,-0.035,-0.335
4634,-0.025,-0.295
4635,-0.030,-0.370
4636,-0.030,-0.435
4637,-0.030,-0.465
4638,-0.025,-0.440
4639,-0.005,-0.420
4640,0.065,-0.390
4641,-0.050,-0.425
4642,-0.155,-0.455
4643,-0.130,-0.420
4644,-0.130,-0.345
4645,-0.115,-0.360
4646,-0.070,-0.400
4647,-0.005,-0.355
4648,0.145,-0.240
4649,0.240,-0.090
4650,0.140,-0.035
4651,-0.030,0.055
4652,-0.110,-0.095
4653,-0.270,0.030
4654,-0.260,0.000
4655,-0.240,-0.115
4656,-0.180,-0.170
4657,-0.135,-0.195
4658,-0.080,-0.275
4659,-0.060,-0.410
4660,-0.090,-0.455
4661,-0.100,-0.475
4662,-0.025,-0.365
4663,0.060,-0.310
4664,0.115,-0.320
4665,0.285,-0.415
4666,0.145,-0.555
4667,-0.345,-0.420
4668,-0.305,-0.320
4669,-0.295,-0.345
4670,-0.165,-0.235
4671,-0.075,-0.090
4672,-1.295,-0.255
4673,-2.170,0.495
4674,-2.420,1.080
4675,-2.490,-0.205
4676,-2.115,-0.430
4677,-0.975,-0.640
4678,0.010,-0.930
4679,0.575,-0.635
4680,0.620,-0.325
4681,0.240,-0.305
4682,0.085,-0.300
4683,-0.050,-0.230
4684,-0.015,-0.180
4685,0.135,-0.105
4686,0.255,-0.145
4687,0.295,-0.070
4688,0.350,-0.060
4689,0.380,-0.070
4690,0.400,-0.090
4691,0.400,-0.140
4692,0.420,-0.150
4693,0.495,-0.120
4694,0.855,-0.070
4695,0.855,-0.170
4696,0.335,-0.355
4697,0.240,-0.320
4698,0.180,-0.285
4699,0.265,-0.195
4700,0.360,-0.115
4701,0.405,-0.095
4702,0.375,-0.050
4703,0.355,-0.070
4704,0.320,-0.030
4705,0.305,-0.005
4706,0.430,0.075
4707,0.520,0.150
4708,0.290,0.105
4709,0.490,-0.055
4710,0.380,-0.115
4711,-0.120,-0.130
4712,-0.060,-0.095
4713,0.005,-0.155
4714,0.080,-0.095
4715,0.125,-0.055
4716,0.150,-0.115
4717,0.155,-0.100
4718,0.170,-0.155
4719,0.155,-0.140
4720,0.165,-0.200
4721,0.240,-0.235
4722,0.260,-0.210
4723,0.355,-0.125
4724,0.225,-0.020
4725,0.075,0.055
4726,0.100,0.030
4727,0.040,0.000
4728,0.000,0.255
4729,0.010,0.335
4730,0.060,0.365
4731,0.045,0.215
4732,0.000,0.085
4733,0.000,-0.050
4734,0.045,-0.125
4735,0.100,-0.290
4736,0.115,-0.335
4737,0.095,-0.300
4738,0.085,-0.360
4739,-0.020,-0.360
4740,-0.055,-0.250
4741,0.045,-0.195
4742,-0.040,-0.195
4743,-0.065,-0.305
4744,-0.010,-0.255
4745,0.020,-0.205
4746,0.030,-0.200
4747,0.265,-0.010
4748,-0.430,-0.130
4749,-1.705,-0.195
4750,-2.325,0.565
4751,-2.555,-0.170
4752,-2.595,-1.120
4753,-1.720,-0.645
4754,-0.685,-1.065
4755,-0.005,-0.660
4756,0.210,-0.315
4757,0.290,-0.210
4758,0.405,-0.070
4759,0.625,0.020
4760,0.255,-0.065
4761,0.415,-0.115
4762,0.155,0.080
4763,0.000,0.070
4764,0.125,0.035
4765,0.265,0.135
4766,0.365,0.125
4767,0.660,0.010
4768,1.035,0.040
4769,0.220,0.015
4770,-0.070,0.025
4771,0.220,-0.030
4772,0.345,-0.095
4773,0.365,-0.030
4774,0.365,-0.055
4775,0.450,-0.080
4776,0.415,-0.070
4777,0.440,-0.035
4778,0.510,-0.020
4779,0.525,0.065
4780,0.400,0.245
4781,0.435,0.105
4782,0.065,0.120
4783,0.200,-0.050
4784,0.020,-0.180
4785,-0.040,-0.125
4786,-0.005,-0.125
4787,0.030,-0.085
4788,0.105,-0.085
4789,0.145,-0.100
4790,0.205,-0.155
4791,0.185,-0.200
4792,0.135,-0.165
4793,0.150,-0.160
4794,0.040,-0.195
4795,0.025,-0.130
4796,0.060,-0.175
4797,0.025,-0.015
4798,-0.005,-0.075
4799,-0.090,-0.275
4800,-0.020,-0.220
4801,0.080,-0.100
4802,0.090,-0.050
4803,0.115,0.255
4804,0.085,0.305
4805,0.105,0.350
4806,0.155,0.340
4807,0.250,0.320
4808,0.145,0.050
4809,-0.220,-0.105
4810,-0.235,-0.135
4811,-0.165,-0.180
4812,-0.160,-0.230
4813,-0.115,-0.420
4814,-0.110,-0.305
4815,-0.095,-0.305
4816,-0.065,-0.330
4817,0.050,-0.245
4818,0.150,-0.155
4819,-0.200,-0.310
4820,-0.310,-0.235
4821,-0.170,-0.220
4822,0.060,-0.075
4823,-0.370,0.035
4824,-1.725,0.120
4825,-2.340,1.090
4826,-2.515,0.995
4827,-2.350,-0.240
4828,-1.220,-0.165
4829,-0.590,-0.750
4830,-0.290,-0.650
4831,-0.050,-0.415
4832,0.020,-0.235
4833,0.130,-0.160
4834,0.145,-0.225
4835,0.165,-0.240
4836,0.155,-0.235
4837,0.155,-0.310
4838,0.195,-0.235
4839,0.155,-0.175
4840,0.200,-0.150
4841,0.230,-0.205
4842,0.180,-0.290
4843,0.315,-0.300
4844,0.475,-0.315
4845,0.300,-0.345
4846,0.110,-0.365
4847,0.045,-0.420
4848,0.110,-0.480
4849,0.175,-0.535
4850,0.215,-0.440
4851,0.175,-0.495
4852,0.125,-0.495
4853,0.130,-0.490
4854,0.080,-0.440
4855,0.035,-0.430
4856,-0.010,-0.465
4857,-0.055,-0.405
4858,-0.055,-0.460
4859,-0.090,-0.500
4860,-0.170,-0.525
4861,-0.135,-0.555
4862,-0.150,-0.555
4863,-0.185,-0.585
4864,-0.195,-0.515
4865,-0.200,-0.525
4866,-0.160,-0.545
4867,-0.140,-0.530
4868,-0.160,-0.565
4869,-0.125,-0.525
4870,-0.295,-0.545
4871,-0.275,-0.545
4872,-0.280,-0.545
4873,-0.280,-0.510
4874,-0.170,-0.470
4875,-0.120,-0.330
4876,-0.095,-0.295
4877,-0.090,-0.145
4878,-0.100,-0.020
4879,-0.135,0.000
4880,-0.185,-0.085
4881,-0.220,-0.145
4882,-0.250,-0.360
4883,-0.255,-0.435
4884,-0.215,-0.545
4885,-0.185,-0.625
4886,-0.210,-0.620
4887,-0.225,-0.695
4888,-0.215,-0.650
4889,-0.200,-0.605
4890,-0.235,-0.595
4891,-0.225,-0.570
4892,-0.215,-0.570
4893,-0.225,-0.655
4894,-0.210,-0.590
4895,-0.165,-0.470
4896,-0.025,-0.325
4897,-0.860,-0.340
4898,-2.030,0.310
4899,-2.355,1.260
4900,-2.440,0.220
4901,-2.080,-0.425
4902,-0.980,-0.860
4903,-0.390,-1.100
4904,-0.045,-0.825
4905,-0.010,-0.600
4906,0.040,-0.485
4907,0.055,-0.455
4908,0.080,-0.410
4909,0.070,-0.410
4910,0.085,-0.380
4911,0.095,-0.385
4912,0.115,-0.350
4913,0.095,-0.425
4914,0.125,-0.370
4915,0.170,-0.310
4916,0.175,-0.365
4917,0.170,-0.430
4918,0.185,-0.430
4919,0.210,-0.480
4920,0.220,-0.450
4921,0.235,-0.460
4922,0.205,-0.475
4923,0.130,-0.545
4924,0.170,-0.500
4925,0.155,-0.440
4926,0.105,-0.430
4927,0.045,-0.405
4928,0.000,-0.405
4929,0.000,-0.350
4930,0.025,-0.255
4931,0.000,-0.260
4932,0.020,-0.295
4933,-0.010,-0.335
4934,0.005,-0.260
4935,0.000,-0.300
4936,-0.005,-0.340
4937,0.030,-0.315
4938,-0.050,-0.330
4939,-0.015,-0.355
4940,0.005,-0.370
4941,-0.060,-0.315
4942,-0.090,-0.360
4943,-0.060,-0.345
4944,0.020,-0.365
4945,-0.035,-0.390
4946,-0.090,-0.290
4947,-0.015,-0.255
4948,0.245,-0.120
4949,0.335,-0.025
4950,0.325,-0.005
4951,-0.315,0.085
4952,-0.330,0.085
4953,-0.220,0.015
4954,-0.185,-0.010
4955,-0.190,-0.180
4956,-0.105,-0.270
4957,-0.055,-0.385
4958,-0.025,-0.450
4959,0.140,-0.540
4960,0.100,-0.475
4961,-0.135,-0.505
4962,-0.090,-0.465
4963,-0.195,-0.510
4964,-0.095,-0.505
4965,-0.250,-0.470
4966,-0.245,-0.390
4967,-0.190,-0.460
4968,-0.075,-0.410
4969,0.100,-0.290
4970,-0.980,-0.335
4971,-2.020,0.300
4972,-2.230,1.155
4973,-2.375,-0.420
4974,-2.075,-0.960
4975,-1.065,-1.095
4976,-0.285,-1.070
4977,0.060,-0.760
4978,0.135,-0.485
4979,0.235,-0.410
4980,0.245,-0.410
4981,0.310,-0.360
4982,0.345,-0.345
4983,0.330,-0.305
4984,0.350,-0.320
4985,0.440,-0.225
4986,0.465,-0.225
4987,0.395,-0.185
4988,0.450,-0.240
4989,0.625,-0.065
4990,0.375,-0.155
4991,0.310,-0.440
4992,0.340,-0.495
4993,0.435,-0.475
4994,0.475,-0.450
4995,0.505,-0.385
4996,0.485,-0.290
4997,0.450,-0.370
4998,0.495,-0.330
4999,0.455,-0.325
5000,0.345,-0.190
5001,0.415,-0.150
5002,0.335,-0.125
5003,0.300,-0.160
5004,0.285,-0.220
5005,0.085,-0.180
5006,0.105,-0.190
5007,0.215,-0.285
5008,0.210,-0.320
5009,0.205,-0.310
5010,0.240,-0.335
5011,0.230,-0.310
5012,0.325,-0.280
5013,0.280,-0.095
5014,0.135,-0.145
5015,0.060,-0.120
5016,0.125,-0.390
5017,0.155,-0.455
5018,0.145,-0.425
5019,0.145,-0.545
5020,0.125,-0.500
5021,0.195,-0.150
5022,0.280,0.015
5023,0.240,0.030
5024,0.205,0.090
5025,0.165,0.210
5026,0.135,0.260
5027,0.070,0.090
5028,0.050,0.000
5029,0.055,-0.145
5030,0.080,-0.230
5031,0.080,-0.335
5032,0.065,-0.395
5033,0.015,-0.450
5034,0.060,-0.425
5035,0.035,-0.335
5036,0.070,-0.245
5037,0.040,-0.255
5038,0.040,-0.235
5039,0.035,-0.320
5040,0.060,-0.395
5041,0.055,-0.415
5042,0.070,-0.395
5043,0.165,-0.280
5044,-0.695,-0.315
5045,-1.875,0.230
5046,-2.275,1.190
5047,-2.355,-0.015
5048,-2.115,-0.545
5049,-1.040,-0.560
5050,-0.285,-1.075
5051,0.175,-0.770
5052,0.255,-0.455
5053,0.265,-0.380
5054,0.310,-0.350
5055,0.305,-0.365
5056,0.300,-0.365
5057,0.310,-0.280
5058,0.325,-0.355
5059,0.305,-0.320
5060,0.295,-0.340
5061,0.295,-0.355
5062,0.285,-0.455
5063,0.300,-0.410
5064,0.335,-0.350
5065,0.325,-0.375
5066,0.325,-0.560
5067,0.345,-0.660
5068,0.330,-0.700
5069,0.350,-0.520
5070,0.350,-0.550
5071,0.320,-0.655
5072,0.265,-0.640
5073,0.210,-0.630
5074,0.145,-0.665
5075,0.130,-0.660
5076,0.130,-0.540
5077,0.100,-0.480
5078,0.105,-0.480
5079,0.080,-0.455
5080,0.095,-0.460
5081,0.095,-0.435
5082,0.095,-0.415
5083,0.075,-0.520
5084,0.085,-0.510
5085,0.060,-0.520
5086,0.060,-0.570
5087,0.050,-0.505
5088,0.040,-0.515
5089,0.065,-0.445
5090,0.065,-0.455
5091,0.085,-0.480
5092,0.030,-0.445
5093,0.010,-0.480
5094,0.010,-0.445
5095,0.050,-0.360
5096,0.100,-0.310
5097,0.185,-0.200
5098,0.125,-0.165
5099,0.095,-0.135
5100,0.065,0.040
5101,0.035,-0.065
5102,0.000,-0.085
5103,-0.020,-0.190
5104,-0.025,-0.330
5105,0.000,-0.420
5106,-0.015,-0.575
5107,-0.020,-0.645
5108,-0.030,-0.660
5109,-0.040,-0.690
5110,-0.045,-0.735
5111,-0.035,-0.695
5112,0.005,-0.730
5113,-0.010,-0.680
5114,-0.010,-0.640
5115,-0.015,-0.610
5116,-0.025,-0.630
5117,0.010,-0.565
5118,0.175,-0.335
5119,-0.140,-0.245
5120,-1.490,-0.080
5121,-2.050,1.070
5122,-2.235,0.735
5123,-2.150,-0.460
5124,-1.325,-0.300
5125,-0.485,-1.095
5126,-0.005,-1.095
5127,0.215,-0.795
5128,0.250,-0.650
5129,0.320,-0.650
5130,0.315,-0.590
5131,0.335,-0.550
5132,0.365,-0.495
5133,0.390,-0.525
5134,0.380,-0.530
5135,0.400,-0.495
5136,0.405,-0.495
5137,0.455,-0.465
5138,0.435,-0.495
5139,0.465,-0.505
5140,0.495,-0.480
5141,0.510,-0.570
5142,0.515,-0.575
5143,0.555,-0.585
5144,0.535,-0.615
5145,0.530,-0.560
5146,0.535,-0.570
5147,0.525,-0.630
5148,0.485,-0.615
5149,0.455,-0.600
5150,0.410,-0.565
5151,0.365,-0.540
5152,0.330,-0.505
5153,0.310,-0.520
5154,0.295,-0.465
5155,0.290,-0.440
5156,0.305,-0.430
5157,0.320,-0.340
5158,0.315,-0.315
5159,0.315,-0.360
5160,0.295,-0.410
5161,0.325,-0.390
5162,0.310,-0.395
5163,0.305,-0.385
5164,0.330,-0.355
5165,0.315,-0.385
5166,0.325,-0.375
5167,0.310,-0.425
5168,0.315,-0.405
5169,0.275,-0.410
5170,0.280,-0.385
5171,0.275,-0.425
5172,0.360,-0.295
5173,0.425,-0.025
5174,0.465,-0.035
5175,0.400,0.010
5176,0.385,0.085
5177,0.325,0.135
5178,0.290,0.065
5179,0.260,-0.035
5180,0.200,-0.160
5181,0.205,-0.175
5182,0.245,-0.300
5183,0.270,-0.420
5184,0.245,-0.460
5185,0.245,-0.490
5186,0.225,-0.440
5187,0.240,-0.450
5188,0.220,-0.470
5189,0.235,-0.415
5190,0.265,-0.375
5191,0.240,-0.345
5192,0.225,-0.350
5193,0.230,-0.365
5194,0.215,-0.300
5195,0.335,-0.215
5196,-0.355,-0.195
5197,-1.640,0.115
5198,-2.150,0.905
5199,-2.305,-0.135
5200,-2.185,-1.025
5201,-1.420,-0.645
5202,-0.420,-1.015
5203,0.160,-0.840
5204,0.400,-0.505
5205,0.405,-0.230
5206,0.420,-0.255
5207,0.455,-0.190
5208,0.460,-0.170
5209,0.470,-0.210
5210,0.490,-0.115
5211,0.510,-0.080
5212,0.500,-0.110
5213,0.520,-0.100
5214,0.530,-0.095
5215,0.515,-0.120
5216,0.520,-0.160
5217,0.535,-0.140
5218,0.570,-0.155
5219,0.580,-0.185
5220,0.585,-0.150
5221,0.590,-0.160
5222,0.570,-0.180
5223,0.565,-0.190
5224,0.565,-0.155
5225,0.525,-0.195
5226,0.500,-0.155
5227,0.460,-0.090
5228,0.400,-0.120
5229,0.380,-0.035
5230,0.370,-0.045
5231,0.355,0.000
5232,0.320,-0.005
5233,0.345,-0.010
5234,0.335,-0.045
5235,0.335,-0.045
5236,0.330,-0.045
5237,0.310,-0.095
5238,0.315,-0.110
5239,0.340,-0.105
5240,0.320,-0.065
5241,0.320,-0.090
5242,0.325,-0.085
5243,0.300,-0.105
5244,0.285,-0.110
5245,0.285,-0.165
5246,0.275,-0.195
5247,0.255,-0.175
5248,0.255,-0.125
5249,0.290,0.010
5250,0.370,0.155
5251,0.370,0.135
5252,0.340,0.340
5253,0.300,0.305
5254,0.295,0.400
5255,0.235,0.260
5256,0.195,0.085
5257,0.155,-0.025
5258,0.175,-0.155
5259,0.205,-0.315
5260,0.225,-0.375
5261,0.225,-0.355
5262,0.175,-0.345
5263,0.180,-0.400
5264,0.185,-0.305
5265,0.205,-0.295
5266,0.210,-0.380
5267,0.205,-0.350
5268,0.220,-0.365
5269,0.240,-0.290
5270,0.225,-0.310
5271,0.450,-0.085
5272,-0.285,-0.075
5273,-1.520,0.035
5274,-2.060,0.970
5275,-2.275,0.570
5276,-2.130,-0.540
5277,-1.200,-0.470
5278,-0.300,-0.950
5279,0.285,-0.730
5280,0.425,-0.565
5281,0.455,-0.290
5282,0.455,-0.265
5283,0.485,-0.235
5284,0.530,-0.180
5285,0.510,-0.140
5286,0.535,-0.160
5287,0.535,-0.105
5288,0.530,-0.150
5289,0.540,-0.215
5290,0.555,-0.185
5291,0.595,-0.150
5292,0.585,-0.320
5293,0.590,-0.245
5294,0.580,-0.345
5295,0.600,-0.440
5296,0.595,-0.410
5297,0.625,-0.445
5298,0.650,-0.390
5299,0.660,-0.390
5300,0.550,-0.465
5301,0.550,-0.505
5302,0.550,-0.385
5303,0.445,-0.295
5304,0.335,-0.300
5305,0.375,-0.260
5306,0.395,-0.245
5307,0.350,-0.250
5308,0.330,-0.345
5309,0.350,-0.310
5310,0.355,-0.295
5311,0.365,-0.315
5312,0.365,-0.325
5313,0.385,-0.280
5314,0.365,-0.290
5315,0.390,-0.160
5316,0.355,-0.215
5317,0.355,-0.290
5318,0.315,-0.270
5319,0.360,-0.250
5320,0.310,-0.290
5321,0.295,-0.260
5322,0.300,-0.275
5323,0.325,-0.190
5324,0.365,-0.105
5325,0.420,0.075
5326,0.460,0.115
5327,0.390,0.255
5328,0.325,0.270
5329,0.310,0.220
5330,0.280,0.125
5331,0.180,0.010
5332,0.155,-0.135
5333,0.175,-0.300
5334,0.205,-0.310
5335,0.210,-0.370
5336,0.165,-0.440
5337,0.175,-0.440
5338,0.150,-0.400
5339,0.170,-0.460
5340,0.170,-0.450
5341,0.195,-0.390
5342,0.220,-0.350
5343,0.220,-0.295
5344,0.160,-0.315
5345,0.225,-0.220
5346,0.385,-0.005
5347,-0.235,-0.020
5348,-1.660,0.445
5349,-2.120,1.460
5350,-2.220,0.435
5351,-1.870,-0.260
5352,-0.700,-0.615
5353,-0.220,-0.985
5354,0.235,-0.750
5355,0.350,-0.395
5356,0.370,-0.330
5357,0.405,-0.225
5358,0.435,-0.195
5359,0.455,-0.155
5360,0.455,-0.170
5361,0.455,-0.155
5362,0.460,-0.200
5363,0.465,-0.165
5364,0.485,-0.160
5365,0.465,-0.250
5366,0.495,-0.230
5367,0.515,-0.210
5368,0.525,-0.135
5369,0.530,-0.215
5370,0.525,-0.225
5371,0.550,-0.255
5372,0.530,-0.285
5373,0.540,-0.235
5374,0.535,-0.240
5375,0.485,-0.290
5376,0.455,-0.320
5377,0.415,-0.190
5378,0.370,-0.115
5379,0.315,-0.235
5380,0.310,-0.085
5381,0.275,-0.070
5382,0.275,-0.035
5383,0.265,-0.135
5384,0.260,-0.080
5385,0.270,-0.140
5386,0.255,-0.115
5387,0.290,-0.015
5388,0.260,-0.070
5389,0.255,-0.035
5390,0.255,-0.070
5391,0.215,-0.020
5392,0.255,-0.100
5393,0.250,-0.165
5394,0.205,-0.180
5395,0.220,-0.125
5396,0.220,-0.060
5397,0.225,-0.085
5398,0.265,0.075
5399,0.340,0.165
5400,0.290,0.255
5401,0.250,0.265
5402,0.190,0.385
5403,0.160,0.295
5404,0.155,0.245
5405,0.080,0.145
5406,0.065,-0.040
5407,0.110,-0.210
5408,0.105,-0.345
5409,0.115,-0.365
5410,0.070,-0.395
5411,0.095,-0.275
5412,0.110,-0.250
5413,0.085,-0.320
5414,0.095,-0.295
5415,0.070,-0.295
5416,0.115,-0.325
5417,0.085,-0.300
5418,0.105,-0.195
5419,0.260,0.015
5420,-0.185,0.000
5421,-1.630,-0.065
5422,-2.245,0.835
5423,-2.450,0.480
5424,-2.385,-0.930
5425,-1.560,-0.730
5426,-0.520,-1.005
5427,0.080,-0.695
5428,0.325,-0.360
5429,0.355,-0.060
5430,0.405,-0.020
5431,0.425,-0.045
5432,0.420,-0.100
5433,0.410,-0.100
5434,0.430,-0.025
5435,0.470,0.070
5436,0.490,0.045
5437,0.510,0.065
5438,0.515,0.100
5439,0.535,0.100
5440,0.540,0.075
5441,0.560,0.040
5442,0.555,0.045
5443,0.580,0.060
5444,0.580,0.030
5445,0.585,0.000
5446,0.585,-0.060
5447,0.540,-0.120
5448,0.530,-0.060
5449,0.510,-0.080
5450,0.465,-0.025
5451,0.400,0.010
5452,0.360,0.115
5453,0.325,0.140
5454,0.300,0.120
5455,0.315,0.145
5456,0.270,0.095
5457,0.285,0.010
5458,0.280,0.040
5459,0.270,0.045
5460,0.275,0.115
5461,0.265,0.070
5462,0.260,0.030
5463,0.295,-0.020
5464,0.280,0.000
5465,0.245,-0.170
5466,0.245,-0.145
5467,0.210,-0.065
5468,0.215,-0.085
5469,0.220,-0.030
5470,0.250,0.040
5471,0.320,0.205
5472,0.380,0.300
5473,0.330,0.475
5474,0.265,0.440
5475,0.225,0.345
5476,0.175,0.325
5477,0.115,0.130
5478,0.080,0.070
5479,0.080,0.050
5480,0.135,-0.125
5481,0.130,-0.255
5482,0.105,-0.280
5483,0.110,-0.230
5484,0.120,-0.220
5485,0.110,-0.210
5486,0.110,-0.235
5487,0.105,-0.235
5488,0.105,-0.145
5489,0.110,-0.140
5490,0.080,-0.240
5491,0.085,-0.220
5492,0.265,0.000
5493,-0.525,-0.105
5494,-1.905,0.155
5495,-2.410,0.905
5496,-2.525,-0.365
5497,-2.230,-0.790
5498,-1.120,-0.615
5499,-0.345,-0.925
5500,0.155,-0.605
5501,0.265,-0.335
5502,0.265,-0.170
5503,0.300,-0.150
5504,0.300,-0.170
5505,0.305,-0.155
5506,0.335,-0.150
5507,0.340,-0.045
5508,0.325,-0.110
5509,0.365,-0.040
5510,0.380,-0.045
5511,0.385,-0.075
5512,0.400,-0.105
5513,0.410,-0.105
5514,0.425,-0.170
5515,0.440,-0.160
5516,0.445,-0.220
5517,0.430,-0.275
5518,0.425,-0.330
5519,0.415,-0.350
5520,0.405,-0.290
5521,0.410,-0.260
5522,0.380,-0.225
5523,0.305,-0.155
5524,0.270,-0.150
5525,0.230,-0.085
5526,0.190,-0.040
5527,0.150,-0.205
5528,0.120,-0.220
5529,0.130,-0.140
5530,0.115,-0.145
5531,0.085,-0.330
5532,0.085,-0.250
5533,0.080,-0.215
5534,0.095,-0.275
5535,0.080,-0.150
5536,0.080,-0.195
5537,0.075,-0.285
5538,0.035,-0.185
5539,0.030,-0.100
5540,0.010,-0.285
5541,0.030,-0.320
5542,0.035,-0.190
5543,0.055,-0.100
5544,0.135,-0.005
5545,0.150,-0.080
5546,0.095,0.120
5547,0.055,0.170
5548,0.025,0.285
5549,-0.005,0.195
5550,-0.070,0.020
5551,-0.100,-0.040
5552,-0.090,-0.095
5553,-0.045,-0.235
5554,-0.035,-0.405
5555,-0.050,-0.510
5556,-0.055,-0.495
5557,-0.050,-0.470
5558,-0.065,-0.385
5559,-0.070,-0.365
5560,-0.075,-0.380
5561,-0.065,-0.410
5562,-0.060,-0.335
5563,-0.090,-0.370
5564,-0.085,-0.280
5565,0.050,-0.125
5566,-0.160,-0.030
5567,-1.445,-0.045
5568,-2.155,0.965
5569,-2.380,1.200
5570,-2.325,-0.345
5571,-1.480,-0.225
5572,-0.630,-0.975
5573,-0.140,-0.885
5574,0.110,-0.550
5575,0.145,-0.340
5576,0.165,-0.305
5577,0.200,-0.245
5578,0.215,-0.210
5579,0.235,-0.175
5580,0.240,-0.190
5581,0.260,-0.145
5582,0.270,-0.145
5583,0.265,-0.220
5584,0.250,-0.195
5585,0.260,-0.300
5586,0.295,-0.280
5587,0.290,-0.250
5588,0.305,-0.315
5589,0.350,-0.280
5590,0.355,-0.275
5591,0.340,-0.295
5592,0.320,-0.400
5593,0.315,-0.390
5594,0.330,-0.290
5595,0.290,-0.285
5596,0.250,-0.430
5597,0.200,-0.380
5598,0.200,-0.305
5599,0.165,-0.265
5600,0.150,-0.290
5601,0.110,-0.225
5602,0.100,-0.185
5603,0.095,-0.150
5604,0.085,-0.170
5605,0.075,-0.240
5606,0.090,-0.235
5607,0.110,-0.205
5608,0.130,-0.155
5609,0.100,-0.190
5610,0.095,-0.190
5611,0.100,-0.120
5612,0.125,-0.145
5613,0.150,-0.220
5614,0.085,-0.200
5615,0.110,-0.255
5616,0.060,-0.225
5617,0.070,-0.230
5618,0.140,-0.060
5619,0.215,0.030
5620,0.260,0.055
5621,0.180,0.185
5622,0.105,0.255
5623,0.075,0.300
5624,0.030,0.205
5625,0.015,0.110
5626,-0.025,-0.130
5627,0.005,-0.155
5628,0.030,-0.245
5629,0.070,-0.320
5630,0.085,-0.370
5631,0.055,-0.350
5632,0.000,-0.385
5633,-0.070,-0.345
5634,-0.035,-0.285
5635,-0.025,-0.185
5636,-0.010,-0.300
5637,-0.010,-0.350
5638,-0.020,-0.315
5639,0.000,-0.285
5640,0.105,-0.190
5641,-0.155,-0.105
5642,-1.460,-0.155
5643,-2.235,0.600
5644,-2.450,0.655
5645,-2.490,-0.755
5646,-2.195,-0.745
5647,-1.040,-0.805
5648,-0.210,-0.930
5649,0.175,-0.590
5650,0.220,-0.245
5651,0.245,-0.210
5652,0.255,-0.215
5653,0.305,-0.135
5654,0.330,-0.175
5655,0.330,-0.090
5656,0.340,-0.110
5657,0.380,-0.015
5658,0.415,0.005
5659,0.440,0.025
5660,0.465,-0.025
5661,0.460,-0.060
5662,0.505,-0.105
5663,0.525,-0.075
5664,0.470,-0.050
5665,0.470,-0.110
5666,0.550,-0.070
5667,0.535,-0.040
5668,0.560,-0.050
5669,0.525,-0.080
5670,0.490,-0.155
5671,0.440,-0.160
5672,0.440,-0.025
5673,0.435,-0.040
5674,0.405,0.065
5675,0.415,0.065
5676,0.510,0.075
5677,0.435,0.055
5678,0.400,0.095
5679,0.055,0.070
5680,0.045,0.120
5681,0.115,0.035
5682,0.135,-0.045
5683,0.160,-0.015
5684,0.160,-0.015
5685,0.215,-0.095
5686,0.200,-0.075
5687,0.190,-0.100
5688,0.230,-0.060
5689,0.240,0.010
5690,0.260,-0.045
5691,0.180,-0.070
5692,0.230,-0.050
5693,0.160,-0.075
5694,0.135,0.030
5695,0.240,0.210
5696,0.225,0.125
5697,0.235,0.325
5698,0.290,0.380
5699,0.155,0.395
5700,0.030,0.275
5701,0.000,0.145
5702,0.005,0.010
5703,0.065,-0.005
5704,0.095,-0.095
5705,0.185,-0.205
5706,0.215,-0.260
5707,0.040,-0.185
5708,-0.055,-0.365
5709,-0.010,-0.265
5710,0.065,-0.235
5711,0.085,-0.190
5712,0.130,-0.200
5713,0.160,-0.120
5714,-0.020,-0.095
5715,-0.085,-0.075
5716,0.080,0.215
5717,-0.125,-0.040
5718,-1.490,-0.310
5719,-2.285,0.445
5720,-2.505,0.095
5721,-2.585,-1.340
5722,-2.135,-1.095
5723,-0.840,-0.930
5724,-0.055,-0.710
5725,0.205,-0.355
5726,0.240,-0.200
5727,0.260,-0.045
5728,0.325,0.080
5729,0.335,0.140
5730,0.325,0.155
5731,0.340,0.095
5732,0.355,0.215
5733,0.445,0.230
5734,0.515,0.135
5735,0.375,0.080
5736,0.315,0.215
5737,0.305,0.035
5738,0.315,-0.020
5739,0.415,-0.015
5740,0.435,-0.010
5741,0.420,-0.055
5742,0.455,-0.030
5743,0.485,-0.025
5744,0.465,-0.025
5745,0.430,-0.065
5746,0.430,-0.065
5747,0.410,-0.050
5748,0.410,0.015
5749,0.345,-0.005
5750,0.235,0.100
5751,0.220,0.180
5752,0.270,0.085
5753,0.280,0.000
5754,0.185,0.075
5755,0.215,-0.080
5756,0.155,-0.070
5757,-0.005,0.000
5758,0.000,-0.050
5759,0.030,-0.140
5760,0.085,-0.135
5761,0.105,-0.190
5762,0.075,-0.095
5763,0.100,-0.140
5764,0.075,-0.195
5765,0.065,-0.155
5766,0.135,-0.175
5767,0.140,-0.260
5768,0.030,-0.210
5769,0.055,-0.200
5770,0.100,-0.035
5771,0.165,0.045
5772,0.155,0.070
5773,0.125,0.295
5774,0.045,0.340
5775,0.025,0.275
5776,0.015,0.070
5777,-0.025,0.025
5778,-0.055,-0.080
5779,-0.020,-0.150
5780,0.000,-0.260
5781,0.010,-0.400
5782,-0.015,-0.430
5783,-0.030,-0.460
5784,-0.020,-0.455
5785,-0.005,-0.440
5786,0.000,-0.415
5787,0.010,-0.455
5788,0.000,-0.475
5789,-0.035,-0.540
5790,-0.035,-0.470
5791,0.035,-0.375
5792,0.155,-0.220
5793,-0.580,-0.300
5794,-1.780,0.080
5795,-2.205,1.105
5796,-2.390,0.060
5797,-2.185,-0.580
5798,-1.240,-0.510
5799,-0.490,-1.125
5800,0.030,-0.870
5801,0.170,-0.660
5802,0.010,-0.410
5803,0.080,-0.435
5804,0.115,-0.440
5805,0.215,-0.390
5806,0.165,-0.345
5807,0.200,-0.350
5808,0.235,-0.285
5809,0.325,-0.260
5810,0.245,-0.265
5811,0.240,-0.245
5812,0.345,-0.235
5813,0.325,-0.325
5814,0.225,-0.370
5815,0.215,-0.465
5816,0.215,-0.430
5817,0.235,-0.460
5818,0.305,-0.500
5819,0.335,-0.530
5820,0.385,-0.505
5821,0.405,-0.625
5822,0.395,-0.675
5823,0.285,-0.535
5824,0.150,-0.485
5825,0.125,-0.455
5826,0.065,-0.500
5827,0.065,-0.460
5828,0.110,-0.385
5829,0.145,-0.360
5830,0.050,-0.380
5831,0.115,-0.395
5832,0.210,-0.500
5833,0.275,-0.455
5834,0.070,-0.360
5835,-0.040,-0.365
5836,-0.055,-0.535
5837,-0.030,-0.545
5838,0.005,-0.465
5839,0.010,-0.425
5840,0.050,-0.445
5841,0.030,-0.475
5842,0.045,-0.510
5843,0.110,-0.435
5844,0.095,-0.345
5845,0.185,-0.275
5846,0.360,-0.300
5847,0.115,-0.050
5848,-0.075,0.080
5849,-0.115,0.010
5850,-0.080,-0.290
5851,-0.005,-0.400
5852,0.020,-0.370
5853,-0.120,-0.420
5854,-0.160,-0.530
5855,0.020,-0.650
5856,0.050,-0.700
5857,-0.065,-0.715
5858,-0.225,-0.675
5859,-0.185,-0.665
5860,-0.055,-0.710
5861,-0.125,-0.705
5862,-0.155,-0.550
5863,-0.110,-0.490
5864,-0.045,-0.580
5865,-0.055,-0.690
5866,0.130,-0.420
5867,-0.640,-0.515
5868,-1.850,0.070
5869,-2.250,0.910
5870,-2.400,-0.475
5871,-2.160,-0.820
5872,-1.185,-0.810
5873,-0.445,-1.045
5874,0.035,-0.825
5875,0.230,-0.605
5876,0.275,-0.515
5877,0.240,-0.365
5878,0.285,-0.275
5879,0.300,-0.270
5880,0.395,-0.350
5881,0.540,-0.305
5882,0.460,-0.250
5883,0.355,-0.210
5884,0.495,-0.265
5885,0.325,-0.270
5886,0.295,-0.300
5887,0.380,-0.300
5888,0.430,-0.295
5889,0.540,-0.340
5890,0.470,-0.420
5891,0.420,-0.380
5892,0.540,-0.355
5893,0.600,-0.425
5894,0.510,-0.380
5895,0.475,-0.345
5896,0.430,-0.360
5897,0.235,-0.240
5898,0.280,-0.260
5899,0.265,-0.285
5900,0.280,-0.215
5901,0.295,-0.205
5902,0.205,-0.160
5903,0.295,-0.240
5904,0.260,-0.260
5905,0.080,-0.180
5906,0.240,-0.220
5907,0.120,-0.370
5908,0.080,-0.280
5909,0.165,-0.355
5910,0.240,-0.350
5911,0.410,-0.390
5912,0.180,-0.365
5913,0.160,-0.380
5914,0.275,-0.270
5915,0.040,-0.420
5916,0.095,-0.400
5917,0.200,-0.205
5918,0.320,-0.080
5919,0.300,-0.070
5920,0.245,0.095
5921,0.205,0.185
5922,0.195,0.130
5923,0.090,0.000
5924,0.065,-0.160
5925,0.035,-0.290
5926,0.095,-0.395
5927,0.260,-0.480
5928,0.425,-0.500
5929,0.145,-0.540
5930,0.240,-0.540
5931,0.015,-0.500
5932,-0.020,-0.430
5933,-0.050,-0.495
5934,0.125,-0.460
5935,0.110,-0.430
5936,0.005,-0.500
5937,0.030,-0.480
5938,0.250,-0.360
5939,-0.310,-0.415
5940,-1.625,-0.425
5941,-2.170,0.340
5942,-2.455,-0.490
5943,-2.475,-1.575
5944,-1.425,-1.185
5945,-0.335,-1.220
5946,0.180,-0.935
5947,0.240,-0.610
5948,0.280,-0.505
5949,0.410,-0.405
5950,0.510,-0.385
5951,0.385,-0.370
5952,0.395,-0.255
5953,0.550,-0.205
5954,0.500,-0.165
5955,0.320,-0.165
5956,0.360,-0.205
5957,0.435,-0.280
5958,0.510,-0.225
5959,0.525,-0.255
5960,0.555,-0.270
5961,0.570,-0.330
5962,0.585,-0.295
5963,0.605,-0.260
5964,0.605,-0.305
5965,0.575,-0.220
5966,0.585,-0.050
5967,0.560,-0.275
5968,0.595,-0.305
5969,0.550,-0.230
5970,0.470,-0.165
5971,0.355,-0.070
5972,0.325,-0.055
5973,0.310,-0.175
5974,0.290,-0.130
5975,0.275,-0.185
5976,0.270,-0.260
5977,0.255,-0.180
5978,0.265,-0.190
5979,0.240,-0.285
5980,0.240,-0.370
5981,0.215,-0.405
5982,0.220,-0.510
5983,0.235,-0.475
5984,0.225,-0.405
5985,0.220,-0.410
5986,0.235,-0.430
5987,0.165,-0.375
5988,0.165,-0.305
5989,0.265,-0.185
5990,0.285,-0.085
5991,0.260,-0.060
5992,0.220,0.185
5993,0.175,0.130
5994,0.115,-0.170
5995,0.065,-0.180
5996,0.025,-0.375
5997,0.045,-0.410
5998,0.095,-0.500
5999,0.090,-0.605
6000,0.080,-0.505
6001,0.065,-0.500
6002,0.045,-0.615
6003,0.070,-0.555
6004,0.050,-0.515
6005,0.070,-0.550
6006,0.050,-0.485
6007,0.070,-0.340
6008,0.070,-0.420
6009,0.080,-0.445
6010,0.145,-0.345
6011,-0.870,-0.460
6012,-1.910,0.185
6013,-2.240,1.005
6014,-2.335,-0.480
6015,-1.915,-0.545
6016,-0.790,-0.960
6017,-0.145,-0.955
6018,0.170,-0.550
6019,0.225,-0.550
6020,0.250,-0.705
6021,0.255,-0.725
6022,0.240,-0.620
6023,0.275,-0.535
6024,0.285,-0.435
6025,0.290,-0.410
6026,0.290,-0.435
6027,0.300,-0.375
6028,0.285,-0.450
6029,0.280,-0.520
6030,0.315,-0.480
6031,0.340,-0.535
6032,0.345,-0.490
6033,0.370,-0.450
6034,0.380,-0.455
6035,0.360,-0.690
6036,0.385,-0.740
6037,0.360,-0.600
6038,0.335,-0.670
6039,0.330,-0.705
6040,0.310,-0.780
6041,0.250,-0.750
6042,0.215,-0.605
6043,0.180,-0.540
6044,0.140,-0.515
6045,0.120,-0.475
6046,0.135,-0.425
6047,0.105,-0.490
6048,0.100,-0.465
6049,0.075,-0.535
6050,0.065,-0.515
6051,0.085,-0.465
6052,0.120,-0.695
6053,0.100,-0.620
6054,0.080,-0.490
6055,0.080,-0.480
6056,0.060,-0.545
6057,0.065,-0.510
6058,0.060,-0.495
6059,0.085,-0.420
6060,0.070,-0.430
6061,0.175,-0.275
6062,0.200,-0.230
6063,0.170,-0.330
6064,0.140,-0.100
6065,0.130,-0.095
6066,0.090,-0.230
6067,0.045,-0.275
6068,0.005,-0.275
6069,0.010,-0.345
6070,0.030,-0.475
6071,0.030,-0.580
6072,0.010,-0.630
6073,0.005,-0.650
6074,0.015,-0.670
6075,0.025,-0.710
6076,0.000,-0.770
6077,0.020,-0.670
6078,0.025,-0.585
6079,0.025,-0.635
6080,0.025,-0.545
6081,0.025,-0.675
6082,0.105,-0.580
6083,-0.110,-0.485
6084,-1.345,-0.280
6085,-1.975,0.840
6086,-2.170,0.890
6087,-2.120,-0.610
6088,-1.405,-0.615
6089,-0.500,-1.020
6090,0.025,-1.000
6091,0.250,-0.765
6092,0.265,-0.510
6093,0.280,-0.485
6094,0.340,-0.340
6095,0.350,-0.250
6096,0.355,-0.350
6097,0.400,-0.415
6098,0.395,-0.365
6099,0.380,-0.545
6100,0.380,-0.520
6101,0.410,-0.360
6102,0.445,-0.340
6103,0.430,-0.375
6104,0.450,-0.385
6105,0.480,-0.365
6106,0.510,-0.375
6107,0.480,-0.390
6108,0.495,-0.400
6109,0.505,-0.410
6110,0.520,-0.305
6111,0.500,-0.255
6112,0.450,-0.375
6113,0.420,-0.425
6114,0.385,-0.365
6115,0.365,-0.280
6116,0.355,-0.175
6117,0.315,-0.205
6118,0.305,-0.135
6119,0.290,-0.105
6120,0.265,-0.100
6121,0.245,-0.125
6122,0.255,-0.105
6123,0.275,-0.120
6124,0.250,-0.020
6125,0.260,-0.150
6126,0.245,-0.140
6127,0.220,-0.200
6128,0.230,-0.190
6129,0.220,-0.280
6130,0.215,-0.240
6131,0.215,-0.160
6132,0.210,-0.115
6133,0.220,-0.175
6134,0.225,-0.160
6135,0.280,-0.055
6136,0.330,0.000
6137,0.285,0.115
6138,0.230,0.210
6139,0.190,0.335
6140,0.175,0.205
6141,0.125,0.140
6142,0.070,0.070
6143,0.075,-0.130
6144,0.130,-0.180
6145,0.120,-0.375
6146,0.085,-0.420
6147,0.100,-0.345
6148,0.080,-0.390
6149,0.080,-0.350
6150,0.110,-0.385
6151,0.100,-0.320
6152,0.080,-0.285
6153,0.100,-0.285
6154,0.080,-0.325
6155,0.070,-0.275
6156,0.100,-0.225
6157,0.015,-0.185
6158,-1.090,-0.310
6159,-1.955,0.390
6160,-2.250,0.395
6161,-2.310,-1.070
6162,-1.985,-1.000
6163,-0.825,-0.970
6164,-0.105,-0.905
6165,0.230,-0.520
6166,0.280,-0.280
6167,0.270,-0.175
6168,0.305,-0.195
6169,0.330,-0.115
6170,0.345,-0.035
6171,0.330,-0.070
6172,0.355,-0.025
6173,0.355,0.020
6174,0.380,0.075
6175,0.400,0.040
6176,0.420,0.055
6177,0.425,-0.020
6178,0.405,-0.030
6179,0.425,0.005
6180,0.460,-0.090
6181,0.470,-0.080
6182,0.470,-0.085
6183,0.500,-0.095
6184,0.495,-0.030
6185,0.515,0.055
6186,0.465,-0.055
6187,0.465,0.005
6188,0.435,0.045
6189,0.395,0.110
6190,0.350,0.130
6191,0.330,0.150
6192,0.270,0.145
6193,0.250,0.125
6194,0.240,0.135
6195,0.230,0.140
6196,0.205,0.110
6197,0.185,0.010
6198,0.170,-0.015
6199,0.190,0.000
6200,0.180,-0.035
6201,0.190,-0.035
6202,0.175,-0.025
6203,0.175,-0.015
6204,0.165,0.025
6205,0.175,-0.010
6206,0.170,-0.055
6207,0.150,-0.095
6208,0.140,-0.055
6209,0.210,0.125
6210,0.285,0.145
6211,0.265,0.085
6212,0.245,0.245
6213,0.200,0.315
6214,0.155,0.390
6215,0.115,0.370
6216,0.070,0.250
6217,0.020,0.140
6218,0.040,0.000
6219,0.085,-0.160
6220,0.110,-0.180
6221,0.120,-0.210
6222,0.115,-0.285
6223,0.100,-0.295
6224,0.105,-0.240
6225,0.105,-0.205
6226,0.095,-0.190
6227,0.095,-0.215
6228,0.105,-0.235
6229,0.100,-0.135
6230,0.085,-0.125
6231,0.110,-0.125
6232,0.245,-0.025
6233,-0.655,-0.240
6234,-1.735,0.195
6235,-2.175,0.860
6236,-2.310,-0.415
6237,-2.060,-0.585
6238,-1.120,-0.480
6239,-0.335,-0.810
6240,0.110,-0.545
6241,0.250,-0.305
6242,0.245,-0.110
6243,0.260,-0.030
6244,0.275,-0.025
6245,0.295,-0.050
6246,0.305,-0.145
6247,0.300,-0.120
6248,0.325,-0.030
6249,0.305,-0.005
6250,0.305,0.015
6251,0.325,0.065
6252,0.355,0.050
6253,0.380,-0.015
6254,0.415,-0.010
6255,0.430,-0.005
6256,0.460,-0.065
6257,0.455,-0.035
6258,0.480,-0.065
6259,0.475,-0.080
6260,0.465,-0.060
6261,0.450,-0.055
6262,0.410,-0.080
6263,0.390,-0.060
6264,0.355,-0.040
6265,0.300,-0.045
6266,0.255,-0.045
6267,0.225,0.015
6268,0.220,0.030
6269,0.170,0.045
6270,0.150,-0.050
6271,0.135,0.005
6272,0.135,-0.020
6273,0.145,-0.050
6274,0.120,-0.100
6275,0.100,-0.110
6276,0.110,-0.115
6277,0.090,-0.135
6278,0.065,-0.105
6279,0.075,-0.145
6280,0.055,-0.115
6281,0.040,-0.120
6282,0.035,-0.105
6283,0.020,-0.095
6284,0.030,-0.095
6285,0.110,-0.035
6286,0.175,0.085
6287,0.120,0.155
6288,0.060,0.290
6289,0.040,0.370
6290,0.015,0.300
6291,-0.015,0.200
6292,-0.085,0.075
6293,-0.115,-0.010
6294,-0.065,-0.120
6295,-0.040,-0.250
6296,-0.055,-0.290
6297,-0.050,-0.320
6298,-0.075,-0.365
6299,-0.065,-0.350
6300,-0.070,-0.270
6301,-0.055,-0.285
6302,-0.065,-0.305
6303,-0.060,-0.330
6304,-0.075,-0.285
6305,-0.060,-0.205
6306,-0.005,-0.090
6307,0.020,0.030
6308,-1.095,-0.025
6309,-1.975,0.730
6310,-2.250,1.465
6311,-2.320,0.285
6312,-2.035,-0.255
6313,-0.930,-0.575
6314,-0.310,-0.745
6315,0.115,-0.500
6316,0.170,-0.220
6317,0.180,-0.100
6318,0.185,-0.075
6319,0.210,-0.065
6320,0.215,-0.040
6321,0.245,-0.005
6322,0.245,0.015
6323,0.235,0.055
6324,0.310,0.090
6325,0.300,0.100
6326,0.330,0.050
6327,0.335,0.105
6328,0.340,0.080
6329,0.360,0.050
6330,0.390,0.020
6331,0.405,0.020
6332,0.430,0.040
6333,0.440,0.050
6334,0.435,-0.010
6335,0.440,0.000
6336,0.445,0.015
6337,0.425,0.065
6338,0.380,0.260
6339,0.330,0.145
6340,0.310,0.115
6341,0.275,0.140
6342,0.250,0.145
6343,0.240,0.170
6344,0.190,0.170
6345,0.160,0.175
6346,0.175,0.125
6347,0.150,0.225
6348,0.185,0.310
6349,0.205,0.160
6350,0.180,0.060
6351,0.190,0.065
6352,0.180,0.105
6353,0.160,0.105
6354,0.165,0.075
6355,0.170,0.075
6356,0.225,0.015
6357,0.345,0.040
6358,0.070,0.140
6359,0.120,0.230
6360,0.210,0.345
6361,0.220,0.385
6362,0.175,0.515
6363,0.120,0.560
6364,0.120,0.500
6365,0.065,0.380
6366,0.005,0.235
6367,0.020,0.140
6368,0.085,0.080
6369,0.095,-0.045
6370,0.060,-0.170
6371,0.075,-0.185
6372,0.070,-0.050
6373,0.080,0.165
6374,0.080,0.025
6375,0.075,-0.065
6376,0.080,-0.070
6377,0.075,-0.185
6378,0.140,-0.245
6379,0.190,-0.120
6380,0.220,0.050
6381,-0.085,0.035
6382,-1.510,0.025
6383,-2.245,0.915
6384,-2.480,0.070
6385,-2.390,-0.790
6386,-1.540,-0.405
6387,-0.520,-0.715
6388,0.075,-0.440
6389,0.320,-0.125
6390,0.430,0.105
6391,0.425,0.055
6392,0.400,0.045
6393,0.310,0.135
6394,0.295,0.100
6395,0.305,0.120
6396,0.340,0.165
6397,0.385,0.175
6398,0.425,0.210
6399,0.480,0.290
6400,0.565,0.175
6401,0.705,0.195
6402,0.585,0.200
6403,0.470,0.225
6404,0.800,0.190
6405,0.645,0.050
6406,0.360,0.035
6407,0.450,0.120
6408,0.555,0.140
6409,0.590,0.190
6410,0.605,0.255
6411,0.510,0.305
6412,0.410,0.350
6413,0.430,0.295
6414,0.480,0.240
6415,0.645,0.165
6416,0.500,0.230
6417,0.385,0.275
6418,0.215,0.225
6419,0.150,0.110
6420,0.220,0.155
6421,0.240,0.150
6422,0.210,0.205
6423,0.290,0.310
6424,0.385,0.065
6425,0.575,-0.040
6426,0.410,-0.040
6427,0.295,-0.010
6428,0.215,0.050
6429,0.105,0.080
6430,0.165,0.055
6431,0.335,0.305
6432,0.425,0.270
6433,0.410,0.360
6434,0.530,0.635
6435,0.725,0.670
6436,0.580,0.535
6437,0.510,0.340
6438,0.110,0.250
6439,-0.280,0.115
6440,-0.170,0.130
6441,0.075,-0.015
6442,0.190,-0.045
6443,0.275,-0.135
6444,0.445,-0.150
6445,0.780,-0.055
6446,0.600,-0.055
6447,0.000,0.055
6448,0.000,0.065
6449,0.180,0.010
6450,0.215,0.000
6451,0.260,0.090
6452,0.510,0.150
6453,-0.090,-0.180
6454,-1.625,0.350
6455,-2.320,0.490
6456,-2.410,-1.190
6457,-2.365,-1.030
6458,-1.150,-0.845
6459,-0.200,-0.570
6460,0.380,-0.250
6461,0.495,0.065
6462,0.685,0.210
6463,0.955,0.080
6464,1.215,0.075
6465,0.640,0.145
6466,0.520,0.130
6467,0.285,0.140
6468,0.250,0.275
6469,0.445,0.235
6470,0.600,0.205
6471,0.680,0.160
6472,0.775,0.150
6473,1.190,0.065
6474,1.500,0.080
6475,0.935,0.100
6476,0.825,0.005
6477,0.465,-0.035
6478,0.240,-0.255
6479,0.440,-0.190
6480,0.570,-0.020
6481,0.700,0.135
6482,0.935,0.140
6483,1.175,0.195
6484,0.660,0.280
6485,0.295,0.145
6486,0.300,0.160
6487,0.655,0.160
6488,0.670,-0.010
6489,0.000,-0.025
6490,0.125,0.125
6491,0.495,0.020
6492,0.495,-0.085
6493,0.870,-0.260
6494,0.200,-0.235
6495,-0.085,-0.115
6496,0.070,-0.080
6497,0.180,-0.090
6498,0.385,-0.205
6499,0.505,-0.200
6500,0.810,-0.230
6501,0.960,-0.125
6502,0.810,0.115
6503,-0.040,0.295
6504,-0.205,0.255
6505,-0.070,0.110
6506,0.150,0.370
6507,0.220,0.205
6508,0.550,0.150
6509,0.680,0.050
6510,0.830,-0.020
6511,0.410,-0.155
6512,-0.160,-0.285
6513,-0.070,-0.295
6514,0.000,-0.475
6515,0.255,-0.500
6516,0.450,-0.495
6517,0.635,-0.320
6518,0.750,-0.240
6519,-0.120,-0.180
6520,-0.050,-0.170
6521,0.370,-0.280
6522,-0.185,-0.215
6523,0.040,-0.030
6524,-0.665,-0.270
6525,-1.820,0.265
6526,-2.200,1.050
6527,-2.120,-0.475
6528,-1.560,-0.385
6529,-0.645,-1.215
6530,-0.145,-1.070
6531,0.130,-0.695
6532,0.530,-0.320
6533,0.380,-0.255
6534,0.690,-0.185
6535,0.740,-0.245
6536,1.355,-0.230
6537,0.700,-0.150
6538,-0.305,0.055
6539,0.300,-0.060
6540,0.265,-0.145
6541,0.170,-0.165
6542,0.365,-0.165
6543,0.535,-0.225
6544,0.985,-0.160
6545,1.705,-0.150
6546,0.990,-0.160
6547,0.135,-0.175
6548,0.160,-0.210
6549,0.220,-0.235
6550,0.395,-0.235
6551,0.540,-0.230
6552,0.615,-0.265
6553,0.590,-0.245
6554,0.520,-0.175
6555,0.490,-0.085
6556,0.435,-0.010
6557,0.510,-0.030
6558,0.650,-0.190
6559,0.240,-0.320
6560,0.220,-0.395
6561,0.035,-0.400
6562,0.010,-0.420
6563,0.075,-0.480
6564,0.125,-0.405
6565,0.150,-0.455
6566,0.265,-0.465
6567,0.615,-0.280
6568,0.405,-0.230
6569,-0.480,-0.575
6570,-0.505,-0.435
6571,-0.220,-0.430
6572,-0.125,-0.510
6573,0.020,-0.315
6574,0.080,-0.320
6575,0.045,-0.430
6576,0.015,-0.255
6577,-0.025,-0.045
6578,-0.025,0.045
6579,-0.015,0.225
6580,-0.020,0.095
6581,-0.180,-0.115
6582,-0.165,-0.280
6583,-0.150,-0.525
6584,-0.185,-0.590
6585,-0.115,-0.615
6586,-0.030,-0.625
6587,-0.065,-0.695
6588,-0.210,-0.595
6589,-0.190,-0.500
6590,-0.205,-0.350
6591,-0.190,-0.545
6592,-0.195,-0.670
6593,-0.195,-0.600
6594,-0.140,-0.540
6595,-0.240,-0.230
6596,-1.540,-0.380
6597,-2.290,0.360
6598,-2.320,0.310
6599,-2.575,-1.130
6600,-2.235,-0.965
6601,-1.005,-1.260
6602,-0.425,-1.170
6603,-0.115,-0.740
6604,-0.035,-0.380
6605,0.065,-0.160
6606,0.165,-0.155
6607,0.310,-0.185
6608,0.360,-0.145
6609,0.105,-0.085
6610,0.170,-0.055
6611,0.220,0.010
6612,0.220,0.200
6613,0.280,-0.030
6614,0.170,-0.225
6615,0.245,-0.420
6616,0.500,-0.080
6617,0.580,-0.145
6618,0.485,-0.045
6619,0.390,-0.070
6620,0.305,-0.070
6621,0.260,0.120
6622,0.130,0.095
6623,0.160,0.100
6624,0.240,-0.045
6625,0.270,-0.090
6626,0.315,0.210
6627,0.315,0.155
6628,0.420,0.000
6629,0.595,-0.100
6630,0.460,0.140
6631,0.495,-0.020
6632,-0.040,0.030
6633,-0.505,0.080
6634,-0.315,0.090
6635,-0.070,0.060
6636,0.020,-0.065
6637,0.065,-0.100
6638,0.055,-0.155
6639,0.095,-0.100
6640,0.105,-0.055
6641,0.105,-0.300
6642,0.095,-0.170
6643,0.040,-0.140
6644,-0.045,-0.095
6645,0.000,0.030
6646,0.040,0.215
6647,0.140,0.195
6648,0.160,0.205
6649,0.165,0.205
6650,-0.010,0.280
6651,-0.285,0.320
6652,-0.210,0.105
6653,-0.120,0.125
6654,-0.275,0.045
6655,-0.155,-0.115
6656,-0.080,-0.285
6657,-0.055,-0.265
6658,-0.030,-0.295
6659,0.095,-0.285
6660,0.080,-0.255
6661,0.075,-0.240
6662,-0.150,-0.345
6663,-0.335,-0.215
6664,-0.280,-0.170
6665,-0.185,-0.220
6666,-0.165,-0.205
6667,-0.075,-0.090
6668,-0.090,-0.185
6669,-1.130,-0.460
6670,-1.995,0.010
6671,-2.480,-0.055
6672,-2.880,-1.660
6673,-2.540,-1.630
6674,-1.390,-1.190
6675,-0.520,-0.915
6676,-0.060,-0.505
6677,0.055,-0.155
6678,0.175,-0.050
6679,0.255,0.000
6680,0.165,0.060
6681,0.115,0.090
6682,0.065,0.145
6683,0.190,0.120
6684,0.345,0.150
6685,0.195,0.135
6686,0.040,0.030
6687,0.155,0.000
6688,0.230,0.015
6689,0.105,0.060
6690,0.210,0.175
6691,0.285,0.415
6692,0.330,0.130
6693,0.340,0.075
6694,0.375,-0.170
6695,0.470,-0.170
6696,0.240,-0.010
6697,0.210,-0.110
6698,0.195,-0.130
6699,0.095,-0.135
6700,0.095,-0.140
6701,0.100,-0.020
6702,0.000,0.095
6703,-0.020,0.010
6704,0.035,0.165
6705,0.035,-0.105
6706,-0.140,-0.265
6707,-0.105,-0.405
6708,-0.110,-0.340
6709,-0.120,-0.230
6710,-0.130,-0.440
6711,-0.155,-0.520
6712,-0.015,-0.555
6713,-0.035,-0.275
6714,-0.395,0.090
6715,-0.340,-0.130
6716,-0.230,-0.885
