'sample interval','ECG0','ECG1'
'0.0078125 sec','mV','mV'
0,0.125,-1.005
1,0.115,-0.955
2,0.170,-0.910
3,0.175,-0.890
4,0.210,-0.840
5,0.150,-0.835
6,0.105,-0.800
7,0.185,-0.760
8,0.215,-0.730
9,0.165,-0.715
10,0.255,-0.685
11,0.250,-0.670
12,0.175,-0.650
13,0.110,-0.600
14,0.105,-0.605
15,0.105,-0.545
16,0.130,-0.510
17,0.205,-0.570
18,0.255,-0.560
19,0.345,-0.580
20,0.305,-0.670
21,0.300,-0.680
22,0.280,-0.690
23,0.255,-0.690
24,0.215,-0.720
25,0.135,-0.720
26,0.030,-0.750
27,0.010,-0.770
28,0.050,-0.705
29,0.020,-0.655
30,-0.010,-0.710
31,-0.005,-0.840
32,0.070,-0.800
33,0.075,-0.770
34,0.055,-0.790
35,0.035,-0.765
36,0.040,-0.715
37,0.070,-0.675
38,0.035,-0.665
39,0.020,-0.690
40,-0.005,-0.680
41,0.050,-0.655
42,-0.015,-0.715
43,0.020,-0.725
44,0.005,-0.685
45,0.005,-0.725
46,0.000,-0.695
47,0.055,-0.690
48,0.060,-0.695
49,0.000,-0.715
50,0.000,-0.750
51,0.015,-0.730
52,0.080,-0.730
53,0.110,-0.750
54,0.075,-0.735
55,0.040,-0.705
56,0.020,-0.690
57,0.045,-0.720
58,0.075,-0.755
59,0.100,-0.735
60,0.070,-0.730
61,0.135,-0.710
62,0.080,-0.725
63,0.085,-0.735
64,0.045,-0.680
65,-0.005,-0.670
66,0.025,-0.740
67,0.110,-0.615
68,0.080,-0.680
69,0.065,-0.755
70,0.105,-0.750
71,0.070,-0.720
72,0.095,-0.715
73,0.105,-0.715
74,0.140,-0.725
75,0.070,-0.695
76,0.095,-0.680
77,0.090,-0.645
78,0.135,-0.635
79,0.195,-0.630
80,0.260,-0.615
81,0.250,-0.545
82,0.165,-0.525
83,0.200,-0.485
84,0.165,-0.525
85,0.105,-0.545
86,0.095,-0.575
87,0.105,-0.610
88,0.135,-0.680
89,0.120,-0.705
90,0.100,-0.720
91,0.110,-0.715
92,0.115,-0.700
93,0.110,-0.640
94,0.110,-0.560
95,0.065,-0.640
96,0.075,-0.775
97,0.140,-0.810
98,0.240,-0.745
99,0.470,-0.605
100,0.700,-0.155
101,0.380,0.400
102,-0.665,0.235
103,-1.300,-0.430
104,-1.665,-0.615
105,-1.225,-0.545
106,-0.660,-0.605
107,-0.190,-0.660
108,0.005,-0.710
109,0.165,-0.705
110,0.030,-0.715
111,0.035,-0.705
112,0.085,-0.680
113,0.105,-0.710
114,0.130,-0.705
115,0.095,-0.700
116,0.165,-0.685
117,0.180,-0.670
118,0.165,-0.670
119,0.210,-0.650
120,0.180,-0.650
121,0.170,-0.645
122,0.180,-0.630
123,0.215,-0.620
124,0.235,-0.570
125,0.205,-0.595
126,0.225,-0.620
127,0.260,-0.560
128,0.315,-0.615
129,0.370,-0.585
130,0.365,-0.535
131,0.395,-0.480
132,0.375,-0.460
133,0.275,-0.425
134,0.210,-0.420
135,0.230,-0.375
136,0.285,-0.355
137,0.285,-0.315
138,0.300,-0.290
139,0.290,-0.290
140,0.255,-0.285
141,0.250,-0.235
142,0.240,-0.250
143,0.245,-0.320
144,0.280,-0.375
145,0.270,-0.375
146,0.250,-0.375
147,0.310,-0.435
148,0.275,-0.470
149,0.215,-0.490
150,0.220,-0.485
151,0.240,-0.465
152,0.270,-0.485
153,0.230,-0.440
154,0.200,-0.475
155,0.140,-0.505
156,0.165,-0.450
157,0.175,-0.350
158,0.170,-0.440
159,0.190,-0.505
160,0.225,-0.455
161,0.210,-0.445
162,0.255,-0.435
163,0.235,-0.435
164,0.195,-0.410
165,0.230,-0.405
166,0.230,-0.300
167,0.170,-0.360
168,0.170,-0.420
169,0.190,-0.395
170,0.170,-0.365
171,0.165,-0.330
172,0.215,-0.355
173,0.185,-0.330
174,0.215,-0.330
175,0.190,-0.335
176,0.220,-0.335
177,0.190,-0.325
178,0.175,-0.340
179,0.090,-0.325
180,0.060,-0.335
181,0.110,-0.320
182,0.120,-0.310
183,0.135,-0.330
184,0.120,-0.335
185,0.155,-0.310
186,0.070,-0.265
187,0.165,-0.280
188,0.145,-0.300
189,0.115,-0.305
190,0.075,-0.275
191,0.160,-0.265
192,0.130,-0.250
193,0.090,-0.250
194,0.075,-0.210
195,0.035,-0.190
196,0.130,-0.235
197,0.145,-0.240
198,0.060,-0.240
199,0.160,-0.225
200,0.130,-0.180
201,0.050,-0.160
202,0.105,-0.165
203,0.215,-0.155
204,0.160,-0.090
205,0.210,-0.020
206,0.255,-0.075
207,0.260,-0.080
208,0.290,-0.070
209,0.255,-0.035
210,0.130,-0.055
211,0.140,-0.070
212,0.115,-0.095
213,0.180,-0.160
214,0.220,-0.185
215,0.225,-0.180
216,0.100,-0.190
217,0.060,-0.190
218,0.010,-0.175
219,0.025,-0.180
220,0.120,-0.150
221,0.130,-0.125
222,0.140,-0.135
223,0.275,-0.105
224,0.530,0.200
225,0.545,0.690
226,-0.465,0.860
227,-1.360,0.325
228,-1.770,-0.100
229,-1.715,0.040
230,-0.925,0.000
231,-0.455,-0.080
232,-0.165,-0.130
233,-0.085,-0.180
234,-0.095,-0.155
235,-0.050,-0.175
236,-0.060,-0.145
237,-0.030,-0.140
238,0.000,-0.175
239,0.000,-0.180
240,-0.030,-0.135
241,0.110,-0.135
242,0.050,-0.140
243,-0.095,-0.145
244,-0.105,-0.130
245,-0.030,-0.105
246,0.080,-0.085
247,0.065,-0.030
248,0.035,-0.055
249,0.080,-0.090
250,0.090,-0.080
251,0.050,-0.040
252,0.020,-0.010
253,0.065,0.000
254,0.000,0.005
255,0.075,0.055
256,0.200,0.080
257,0.125,0.150
258,0.120,0.140
259,0.100,0.155
260,0.020,0.185
261,0.060,0.210
262,0.105,0.200
263,0.115,0.240
264,0.085,0.250
265,0.100,0.270
266,0.075,0.265
267,0.100,0.245
268,0.060,0.225
269,0.065,0.175
270,0.105,0.165
271,0.085,0.155
272,0.085,0.095
273,0.045,0.055
274,-0.090,0.070
275,-0.125,0.095
276,-0.095,0.055
277,-0.075,0.050
278,-0.035,0.075
279,-0.140,0.075
280,-0.130,0.105
281,-0.075,0.095
282,-0.085,0.090
283,-0.080,0.100
284,-0.055,0.105
285,-0.010,0.120
286,-0.020,0.110
287,-0.105,0.095
288,-0.190,0.115
289,-0.220,0.130
290,-0.245,0.145
291,-0.270,0.145
292,-0.285,0.175
293,-0.310,0.175
294,-0.340,0.160
295,-0.305,0.155
296,-0.355,0.150
297,-0.390,0.140
298,-0.380,0.160
299,-0.335,0.125
300,-0.250,0.160
301,-0.370,0.120
302,-0.355,0.095
303,-0.355,0.130
304,-0.335,0.110
305,-0.265,0.105
306,-0.310,0.105
307,-0.465,0.130
308,-0.410,0.105
309,-0.355,0.090
310,-0.350,0.100
311,-0.330,0.100
312,-0.300,0.105
313,-0.370,0.085
314,-0.200,0.110
315,-0.250,0.110
316,-0.365,0.080
317,-0.280,0.085
318,-0.295,0.115
319,-0.240,0.095
320,-0.320,0.090
321,-0.325,0.085
322,-0.260,0.085
323,-0.175,0.145
324,-0.255,0.200
325,-0.215,0.215
326,-0.205,0.220
327,-0.135,0.235
328,-0.145,0.300
329,-0.185,0.280
330,-0.225,0.210
331,-0.300,0.145
332,-0.345,0.195
333,-0.295,0.160
334,-0.300,0.085
335,-0.380,0.035
336,-0.395,0.025
337,-0.380,0.040
338,-0.315,0.035
339,-0.330,0.035
340,-0.345,0.050
341,-0.355,0.070
342,-0.300,0.085
343,-0.260,0.080
344,-0.115,0.090
345,0.140,0.325
346,0.360,0.760
347,-0.530,1.015
348,-1.625,0.510
349,-2.075,0.020
350,-2.030,0.185
351,-1.235,0.210
352,-0.715,0.075
353,-0.380,0.005
354,-0.285,0.000
355,-0.275,0.000
356,-0.235,-0.010
357,-0.260,0.025
358,-0.295,0.010
359,-0.285,-0.020
360,-0.280,-0.015
361,-0.265,0.015
362,-0.225,0.035
363,-0.205,0.020
364,-0.215,0.045
365,-0.205,0.090
366,-0.120,0.145
367,-0.070,0.135
368,-0.105,0.145
369,-0.085,0.260
370,-0.150,0.330
371,-0.110,0.320
372,-0.100,0.300
373,-0.220,0.280
374,-0.225,0.220
375,-0.220,0.235
376,-0.155,0.260
377,-0.140,0.265
378,-0.150,0.270
379,-0.160,0.295
380,-0.250,0.315
381,-0.200,0.345
382,-0.100,0.335
383,-0.225,0.385
384,-0.285,0.395
385,-0.370,0.410
386,-0.390,0.420
387,-0.390,0.375
388,-0.435,0.340
389,-0.430,0.275
390,-0.345,0.270
391,-0.315,0.335
392,-0.365,0.345
393,-0.425,0.195
394,-0.415,0.080
395,-0.385,0.080
396,-0.360,0.120
397,-0.435,0.085
398,-0.475,0.045
399,-0.460,0.065
400,-0.390,0.120
401,-0.355,0.150
402,-0.450,0.190
403,-0.455,0.090
404,-0.305,0.035
405,-0.385,0.070
406,-0.415,0.100
407,-0.440,0.110
408,-0.400,0.095
409,-0.545,0.095
410,-0.560,0.105
411,-0.470,0.125
412,-0.475,0.115
413,-0.535,0.100
414,-0.520,0.150
415,-0.480,0.175
416,-0.460,0.060
417,-0.470,0.050
418,-0.490,0.075
419,-0.400,0.110
420,-0.475,0.125
421,-0.550,0.070
422,-0.480,0.075
423,-0.470,0.125
424,-0.490,0.090
425,-0.440,0.065
426,-0.430,0.065
427,-0.530,0.070
428,-0.520,0.080
429,-0.485,0.065
430,-0.515,0.065
431,-0.500,0.070
432,-0.510,0.070
433,-0.510,0.080
434,-0.490,0.110
435,-0.475,0.140
436,-0.465,0.135
437,-0.500,0.060
438,-0.425,0.035
439,-0.345,0.090
440,-0.470,0.060
441,-0.480,0.070
442,-0.430,0.105
443,-0.375,0.155
444,-0.250,0.165
445,-0.225,0.120
446,-0.320,0.125
447,-0.370,0.205
448,-0.290,0.265
449,-0.295,0.295
450,-0.330,0.250
451,-0.375,0.175
452,-0.400,0.150
453,-0.380,0.130
454,-0.370,0.070
455,-0.385,0.070
456,-0.405,0.035
457,-0.425,0.015
458,-0.425,0.050
459,-0.350,0.070
460,-0.320,0.055
461,-0.310,0.040
462,-0.460,0.045
463,-0.320,0.020
464,-0.170,0.070
465,0.040,0.410
466,0.160,0.895
467,-0.640,1.035
468,-1.505,0.450
469,-1.970,-0.005
470,-1.870,0.100
471,-1.280,0.065
472,-0.830,0.010
473,-0.530,0.015
474,-0.405,-0.010
475,-0.360,-0.050
476,-0.310,-0.050
477,-0.265,-0.070
478,-0.390,-0.025
479,-0.320,-0.005
480,-0.330,-0.040
481,-0.375,-0.050
482,-0.325,-0.065
483,-0.310,-0.085
484,-0.270,-0.085
485,-0.235,-0.065
486,-0.265,-0.070
487,-0.260,-0.025
488,-0.265,-0.035
489,-0.190,-0.030
490,-0.220,-0.070
491,-0.145,-0.055
492,-0.060,-0.040
493,-0.195,0.010
494,-0.185,0.000
495,-0.160,-0.010
496,-0.225,0.005
497,-0.195,0.040
498,-0.155,0.080
499,-0.140,0.075
500,-0.165,0.095
501,-0.165,0.105
502,-0.210,0.125
503,-0.185,0.140
504,-0.185,0.185
505,-0.200,0.175
506,-0.240,0.195
507,-0.220,0.145
508,-0.220,0.195
509,-0.220,0.155
510,-0.200,0.065
511,-0.180,0.020
512,-0.195,0.000
513,-0.200,0.015
514,-0.205,0.055
515,-0.255,-0.055
516,-0.225,-0.120
517,-0.245,-0.095
518,-0.265,-0.115
519,-0.230,-0.170
520,-0.200,-0.170
521,-0.220,-0.115
522,-0.240,-0.075
523,-0.215,-0.105
524,-0.210,-0.145
525,-0.200,-0.125
526,-0.180,-0.130
527,-0.225,-0.070
528,-0.220,-0.075
529,-0.125,-0.075
530,-0.070,-0.100
531,-0.190,-0.095
532,-0.255,-0.060
533,-0.265,-0.040
534,-0.215,-0.080
535,-0.180,-0.105
536,-0.195,-0.115
537,-0.140,-0.070
538,-0.200,-0.040
539,-0.150,-0.095
540,-0.120,-0.130
541,-0.090,-0.135
542,-0.210,-0.120
543,-0.115,-0.100
544,-0.115,-0.110
545,-0.170,-0.105
546,-0.090,-0.095
547,0.000,-0.085
548,-0.085,-0.060
549,-0.155,-0.065
550,-0.065,-0.085
551,-0.015,-0.100
552,-0.105,-0.070
553,-0.135,-0.045
554,-0.040,-0.070
555,0.040,-0.060
556,0.065,-0.100
557,0.120,-0.075
558,0.090,-0.080
559,0.090,-0.060
560,0.050,-0.065
561,0.000,-0.100
562,-0.035,-0.085
563,-0.035,-0.050
564,-0.010,-0.055
565,-0.005,-0.090
566,0.005,-0.080
567,-0.025,-0.055
568,-0.035,-0.005
569,-0.070,0.010
570,-0.045,0.005
571,-0.025,0.010
572,0.005,0.060
573,0.015,0.135
574,0.020,0.150
575,0.000,0.110
576,-0.040,0.105
577,-0.105,0.055
578,-0.130,0.065
579,-0.040,0.000
580,0.000,-0.065
581,-0.060,-0.100
582,-0.065,-0.095
583,-0.080,-0.040
584,-0.085,-0.035
585,-0.080,-0.060
586,-0.055,-0.055
587,-0.080,-0.065
588,-0.080,-0.045
589,-0.020,-0.040
590,0.135,-0.030
591,0.405,0.165
592,0.665,0.555
593,0.025,0.920
594,-1.015,0.640
595,-1.500,0.120
596,-1.790,0.110
597,-1.205,0.035
598,-0.570,-0.035
599,-0.320,-0.050
600,-0.160,-0.050
601,-0.150,-0.075
602,-0.115,-0.080
603,-0.045,-0.095
604,0.025,-0.050
605,0.070,-0.070
606,0.080,-0.065
607,0.045,-0.095
608,0.025,-0.090
609,0.035,-0.090
610,0.055,-0.085
611,0.045,-0.085
612,0.025,-0.080
613,0.050,-0.070
614,0.085,-0.065
615,0.105,-0.045
616,0.090,-0.045
617,0.040,-0.065
618,0.070,-0.015
619,0.105,-0.005
620,0.135,0.000
621,0.100,0.020
622,0.075,0.030
623,0.100,0.075
624,0.115,0.105
625,0.135,0.100
626,0.130,0.110
627,0.125,0.115
628,0.085,0.170
629,0.055,0.165
630,0.050,0.180
631,0.070,0.185
632,0.060,0.215
633,0.130,0.230
634,0.190,0.200
635,0.095,0.165
636,0.075,0.145
637,0.075,0.095
638,0.125,0.075
639,0.140,0.045
640,0.060,0.025
641,0.050,0.000
642,0.005,-0.030
643,0.000,-0.030
644,-0.010,-0.040
645,-0.015,-0.045
646,-0.015,-0.140
647,-0.010,-0.145
648,0.000,-0.115
649,0.035,-0.130
650,0.105,-0.130
651,0.105,-0.115
652,0.085,-0.130
653,0.170,-0.105
654,0.185,-0.100
655,0.200,-0.115
656,0.265,-0.130
657,0.245,-0.150
658,0.235,-0.140
659,0.275,-0.115
660,0.255,-0.120
661,0.240,-0.120
662,0.245,-0.120
663,0.285,-0.075
664,0.290,-0.130
665,0.300,-0.180
666,0.240,-0.200
667,0.225,-0.175
668,0.235,-0.150
669,0.265,-0.115
670,0.290,-0.115
671,0.260,-0.130
672,0.250,-0.165
673,0.230,-0.170
674,0.305,-0.150
675,0.315,-0.155
676,0.290,-0.170
677,0.285,-0.160
678,0.265,-0.120
679,0.315,-0.115
680,0.325,-0.130
681,0.300,-0.145
682,0.300,-0.130
683,0.320,-0.095
684,0.345,-0.090
685,0.370,-0.110
686,0.345,-0.125
687,0.345,-0.120
688,0.360,-0.105
689,0.435,-0.100
690,0.390,-0.100
691,0.355,-0.120
692,0.345,-0.115
693,0.400,-0.075
694,0.440,-0.075
695,0.480,-0.065
696,0.455,-0.035
697,0.460,0.010
698,0.505,0.040
699,0.525,0.010
700,0.495,-0.040
701,0.450,-0.105
702,0.430,-0.155
703,0.490,-0.190
704,0.565,-0.235
705,0.480,-0.280
706,0.475,-0.275
707,0.510,-0.300
708,0.520,-0.280
709,0.560,-0.300
710,0.535,-0.285
711,0.555,-0.300
712,0.555,-0.290
713,0.655,-0.285
714,0.925,-0.200
715,1.225,0.125
716,1.095,0.665
717,0.065,0.605
718,-0.695,-0.065
719,-1.095,-0.345
720,-0.795,-0.155
721,-0.170,-0.145
722,0.205,-0.250
723,0.480,-0.300
724,0.580,-0.275
725,0.575,-0.400
726,0.600,-0.465
727,0.600,-0.445
728,0.635,-0.395
729,0.665,-0.390
730,0.645,-0.395
731,0.595,-0.415
732,0.585,-0.380
733,0.615,-0.360
734,0.620,-0.385
735,0.620,-0.425
736,0.590,-0.425
737,0.615,-0.390
738,0.620,-0.360
739,0.645,-0.370
740,0.620,-0.400
741,0.580,-0.370
742,0.600,-0.335
743,0.590,-0.310
744,0.570,-0.295
745,0.540,-0.280
746,0.520,-0.270
747,0.495,-0.245
748,0.530,-0.190
749,0.525,-0.185
750,0.500,-0.175
751,0.470,-0.150
752,0.480,-0.120
753,0.495,-0.085
754,0.470,-0.095
755,0.425,-0.110
756,0.465,-0.115
757,0.485,-0.095
758,0.505,-0.155
759,0.500,-0.190
760,0.505,-0.200
761,0.525,-0.195
762,0.530,-0.195
763,0.535,-0.235
764,0.500,-0.350
765,0.440,-0.425
766,0.485,-0.390
767,0.525,-0.375
768,0.565,-0.380
769,0.555,-0.445
770,0.605,-0.460
771,0.685,-0.385
772,0.680,-0.375
773,0.710,-0.410
774,0.710,-0.415
775,0.675,-0.425
776,0.720,-0.415
777,0.765,-0.375
778,0.795,-0.340
779,0.755,-0.395
780,0.745,-0.450
781,0.755,-0.420
782,0.740,-0.395
783,0.725,-0.440
784,0.680,-0.445
785,0.645,-0.425
786,0.665,-0.435
787,0.665,-0.460
788,0.635,-0.415
789,0.595,-0.420
790,0.580,-0.465
791,0.590,-0.455
792,0.630,-0.415
793,0.610,-0.490
794,0.590,-0.515
795,0.580,-0.495
796,0.600,-0.465
797,0.615,-0.495
798,0.585,-0.500
799,0.580,-0.465
800,0.565,-0.470
801,0.615,-0.495
802,0.625,-0.510
803,0.605,-0.535
804,0.590,-0.530
805,0.600,-0.520
806,0.635,-0.520
807,0.610,-0.540
808,0.595,-0.545
809,0.595,-0.555
810,0.610,-0.540
811,0.620,-0.550
812,0.660,-0.505
813,0.580,-0.475
814,0.580,-0.530
815,0.640,-0.480
816,0.680,-0.415
817,0.705,-0.520
818,0.720,-0.510
819,0.730,-0.375
820,0.720,-0.295
821,0.720,-0.370
822,0.670,-0.475
823,0.600,-0.520
824,0.615,-0.485
825,0.655,-0.575
826,0.615,-0.660
827,0.605,-0.675
828,0.560,-0.630
829,0.590,-0.620
830,0.605,-0.625
831,0.610,-0.605
832,0.570,-0.620
833,0.565,-0.615
834,0.590,-0.585
835,0.800,-0.590
836,1.105,-0.340
837,1.250,0.190
838,0.285,0.460
839,-0.760,-0.110
840,-1.290,-0.595
841,-1.215,-0.495
842,-0.485,-0.515
843,0.055,-0.575
844,0.385,-0.595
845,0.530,-0.600
846,0.565,-0.605
847,0.550,-0.620
848,0.575,-0.650
849,0.605,-0.655
850,0.600,-0.665
851,0.620,-0.655
852,0.600,-0.640
853,0.610,-0.640
854,0.645,-0.625
855,0.640,-0.645
856,0.610,-0.615
857,0.620,-0.635
858,0.630,-0.605
859,0.640,-0.590
860,0.645,-0.595
861,0.645,-0.615
862,0.620,-0.615
863,0.660,-0.570
864,0.670,-0.505
865,0.675,-0.495
866,0.625,-0.485
867,0.630,-0.470
868,0.625,-0.415
869,0.650,-0.395
870,0.625,-0.420
871,0.600,-0.375
872,0.600,-0.345
873,0.570,-0.305
874,0.580,-0.310
875,0.590,-0.310
876,0.520,-0.295
877,0.530,-0.280
878,0.545,-0.325
879,0.580,-0.345
880,0.560,-0.365
881,0.565,-0.395
882,0.575,-0.450
883,0.620,-0.480
884,0.590,-0.525
885,0.540,-0.530
886,0.470,-0.510
887,0.455,-0.520
888,0.435,-0.540
889,0.425,-0.555
890,0.410,-0.565
891,0.400,-0.550
892,0.420,-0.550
893,0.445,-0.555
894,0.435,-0.555
895,0.430,-0.555
896,0.425,-0.515
897,0.430,-0.540
898,0.465,-0.525
899,0.440,-0.535
900,0.390,-0.530
901,0.405,-0.515
902,0.410,-0.490
903,0.410,-0.510
904,0.395,-0.515
905,0.365,-0.515
906,0.375,-0.485
907,0.370,-0.490
908,0.400,-0.505
909,0.345,-0.525
910,0.320,-0.545
911,0.315,-0.505
912,0.345,-0.500
913,0.335,-0.530
914,0.315,-0.530
915,0.285,-0.535
916,0.325,-0.520
917,0.355,-0.505
918,0.325,-0.520
919,0.280,-0.535
920,0.285,-0.515
921,0.295,-0.530
922,0.295,-0.520
923,0.285,-0.520
924,0.280,-0.520
925,0.270,-0.530
926,0.310,-0.530
927,0.300,-0.510
928,0.280,-0.505
929,0.270,-0.500
930,0.280,-0.490
931,0.305,-0.480
932,0.310,-0.490
933,0.285,-0.510
934,0.265,-0.475
935,0.295,-0.465
936,0.325,-0.405
937,0.340,-0.420
938,0.345,-0.395
939,0.355,-0.370
940,0.400,-0.300
941,0.390,-0.280
942,0.365,-0.260
943,0.310,-0.305
944,0.245,-0.350
945,0.240,-0.360
946,0.270,-0.415
947,0.255,-0.465
948,0.235,-0.485
949,0.215,-0.450
950,0.235,-0.450
951,0.240,-0.455
952,0.210,-0.475
953,0.210,-0.465
954,0.210,-0.455
955,0.230,-0.425
956,0.265,-0.440
957,0.540,-0.345
958,0.825,0.005
959,0.560,0.500
960,-0.605,0.355
961,-1.345,-0.245
962,-1.755,-0.410
963,-1.255,-0.280
964,-0.560,-0.350
965,-0.110,-0.415
966,0.085,-0.450
967,0.145,-0.475
968,0.165,-0.500
969,0.210,-0.465
970,0.215,-0.460
971,0.240,-0.485
972,0.225,-0.500
973,0.205,-0.500
974,0.220,-0.485
975,0.245,-0.495
976,0.230,-0.505
977,0.215,-0.520
978,0.225,-0.495
979,0.225,-0.455
980,0.250,-0.465
981,0.235,-0.465
982,0.230,-0.450
983,0.235,-0.440
984,0.250,-0.405
985,0.250,-0.395
986,0.265,-0.410
987,0.245,-0.380
988,0.240,-0.325
989,0.240,-0.325
990,0.260,-0.295
991,0.220,-0.260
992,0.200,-0.260
993,0.195,-0.210
994,0.190,-0.190
995,0.190,-0.180
996,0.170,-0.175
997,0.140,-0.180
998,0.150,-0.150
999,0.180,-0.145
1000,0.170,-0.190
1001,0.175,-0.230
1002,0.165,-0.270
1003,0.190,-0.330
1004,0.210,-0.310
1005,0.215,-0.355
1006,0.165,-0.400
1007,0.140,-0.430
1008,0.105,-0.435
1009,0.110,-0.445
1010,0.090,-0.460
1011,0.030,-0.490
1012,0.015,-0.485
1013,0.035,-0.480
1014,0.060,-0.470
1015,0.065,-0.510
1016,0.040,-0.485
1017,0.040,-0.470
1018,0.050,-0.470
1019,0.050,-0.470
1020,0.065,-0.480
1021,0.035,-0.485
1022,0.030,-0.475
1023,0.055,-0.425
1024,0.045,-0.445
1025,0.025,-0.455
1026,0.000,-0.480
1027,0.015,-0.455
1028,0.025,-0.470
1029,0.000,-0.465
1030,0.000,-0.480
1031,-0.030,-0.495
1032,-0.015,-0.465
1033,0.000,-0.465
1034,-0.010,-0.470
1035,-0.015,-0.475
1036,-0.035,-0.495
1037,-0.045,-0.470
1038,-0.025,-0.470
1039,-0.020,-0.475
1040,-0.065,-0.515
1041,-0.055,-0.480
1042,-0.075,-0.465
1043,-0.050,-0.465
1044,-0.050,-0.455
1045,-0.065,-0.490
1046,-0.080,-0.485
1047,-0.070,-0.430
1048,-0.050,-0.465
1049,-0.055,-0.480
1050,-0.070,-0.495
1051,-0.080,-0.465
1052,-0.090,-0.465
1053,-0.065,-0.435
1054,-0.065,-0.440
1055,-0.075,-0.470
1056,-0.100,-0.440
1057,-0.080,-0.400
1058,-0.030,-0.395
1059,0.000,-0.375
1060,0.040,-0.360
1061,0.005,-0.315
1062,0.010,-0.245
1063,0.025,-0.200
1064,0.020,-0.240
1065,-0.040,-0.300
1066,-0.095,-0.300
1067,-0.095,-0.325
1068,-0.050,-0.370
1069,-0.060,-0.420
1070,-0.115,-0.425
1071,-0.100,-0.440
1072,-0.115,-0.445
1073,-0.095,-0.425
1074,-0.095,-0.440
1075,-0.095,-0.440
1076,-0.110,-0.415
1077,-0.100,-0.410
1078,-0.030,-0.420
1079,0.210,-0.335
1080,0.430,0.000
1081,0.450,0.470
1082,-0.395,0.530
1083,-1.220,-0.040
1084,-1.620,-0.465
1085,-1.565,-0.355
1086,-0.960,-0.345
1087,-0.545,-0.420
1088,-0.270,-0.430
1089,-0.135,-0.420
1090,-0.120,-0.450
1091,-0.120,-0.445
1092,-0.105,-0.445
1093,-0.070,-0.430
1094,-0.035,-0.415
1095,-0.035,-0.450
1096,-0.045,-0.440
1097,-0.070,-0.420
1098,-0.055,-0.420
1099,-0.055,-0.410
1100,-0.040,-0.395
1101,-0.065,-0.385
1102,-0.060,-0.340
1103,-0.030,-0.275
1104,-0.040,-0.250
1105,-0.020,-0.420
1106,0.000,-0.470
1107,0.015,-0.410
1108,0.010,-0.350
1109,0.030,-0.300
1110,0.040,-0.275
1111,0.000,-0.250
1112,-0.010,-0.205
1113,0.000,-0.150
1114,0.020,-0.130
1115,-0.005,-0.100
1116,-0.015,-0.115
1117,-0.030,-0.080
1118,-0.035,-0.045
1119,-0.035,-0.055
1120,-0.045,-0.035
1121,-0.080,-0.015
1122,-0.095,0.015
1123,-0.080,-0.015
1124,-0.040,-0.095
1125,-0.030,-0.140
1126,-0.035,-0.120
1127,-0.060,-0.160
1128,-0.035,-0.210
1129,-0.015,-0.255
1130,-0.010,-0.200
1131,-0.070,-0.250
1132,-0.060,-0.360
1133,-0.065,-0.340
1134,-0.045,-0.290
1135,-0.060,-0.280
1136,-0.085,-0.345
1137,-0.095,-0.380
1138,-0.075,-0.335
1139,-0.050,-0.285
1140,-0.070,-0.280
1141,-0.075,-0.335
1142,-0.040,-0.275
1143,-0.060,-0.245
1144,-0.040,-0.230
1145,-0.060,-0.295
1146,-0.050,-0.365
1147,-0.060,-0.370
1148,-0.070,-0.350
1149,-0.055,-0.325
1150,-0.055,-0.275
1151,-0.095,-0.350
1152,-0.100,-0.405
1153,-0.100,-0.400
1154,-0.075,-0.345
1155,-0.080,-0.340
1156,-0.120,-0.365
1157,-0.115,-0.350
1158,-0.100,-0.345
1159,-0.100,-0.295
1160,-0.120,-0.330
1161,-0.100,-0.440
1162,-0.100,-0.410
1163,-0.100,-0.370
1164,-0.085,-0.355
1165,-0.110,-0.335
1166,-0.100,-0.350
1167,-0.100,-0.295
1168,-0.125,-0.420
1169,-0.095,-0.410
1170,-0.080,-0.355
1171,-0.095,-0.375
1172,-0.135,-0.400
1173,-0.100,-0.410
1174,-0.085,-0.395
1175,-0.085,-0.320
1176,-0.090,-0.365
1177,-0.125,-0.460
1178,-0.070,-0.420
1179,-0.095,-0.390
1180,-0.090,-0.365
1181,-0.090,-0.375
1182,-0.105,-0.330
1183,-0.125,-0.210
1184,-0.115,-0.230
1185,-0.060,-0.380
1186,0.005,-0.380
1187,0.010,-0.300
1188,0.030,-0.230
1189,0.030,-0.140
1190,0.060,-0.105
1191,0.020,-0.025
1192,-0.020,-0.045
1193,-0.060,-0.015
1194,-0.035,-0.205
1195,0.000,-0.245
1196,0.000,-0.245
1197,-0.040,-0.250
1198,-0.055,-0.180
1199,-0.030,-0.160
1200,-0.015,-0.100
1201,-0.040,-0.160
1202,-0.030,-0.200
1203,0.000,-0.130
1204,0.030,-0.095
1205,0.105,-0.105
1206,0.345,0.015
1207,0.635,0.445
1208,0.450,1.015
1209,-0.585,0.925
1210,-1.320,0.260
1211,-1.705,0.085
1212,-1.415,0.175
1213,-0.715,0.050
1214,-0.255,0.035
1215,-0.045,0.040
1216,0.010,-0.020
1217,0.075,-0.020
1218,0.085,0.035
1219,0.125,0.185
1220,0.075,-0.020
1221,0.115,-0.135
1222,0.150,-0.075
1223,0.155,0.015
1224,0.155,0.010
1225,0.195,0.000
1226,0.195,-0.025
1227,0.200,0.040
1228,0.230,0.070
1229,0.245,0.055
1230,0.265,0.050
1231,0.250,0.045
1232,0.240,0.095
1233,0.295,0.170
1234,0.270,0.170
1235,0.285,0.130
1236,0.285,0.145
1237,0.285,0.175
1238,0.275,0.235
1239,0.310,0.275
1240,0.295,0.270
1241,0.265,0.295
1242,0.275,0.320
1243,0.295,0.355
1244,0.295,0.365
1245,0.255,0.350
1246,0.230,0.400
1247,0.235,0.410
1248,0.265,0.450
1249,0.265,0.380
1250,0.255,0.290
1251,0.265,0.265
1252,0.285,0.275
1253,0.310,0.240
1254,0.270,0.160
1255,0.260,0.145
1256,0.215,0.150
1257,0.180,0.105
1258,0.200,0.090
1259,0.175,0.080
1260,0.140,0.030
1261,0.125,0.035
1262,0.165,0.075
1263,0.165,0.085
1264,0.180,0.050
1265,0.185,0.035
1266,0.155,0.105
1267,0.160,0.140
1268,0.180,0.030
1269,0.200,0.020
1270,0.175,0.040
1271,0.155,0.060
1272,0.210,0.050
1273,0.200,0.090
1274,0.170,0.085
1275,0.125,0.065
1276,0.130,0.075
1277,0.140,0.150
1278,0.120,0.055
1279,0.120,0.005
1280,0.085,-0.040
1281,0.085,-0.045
1282,0.135,0.035
1283,0.125,0.000
1284,0.120,0.000
1285,0.095,0.000
1286,0.080,0.015
1287,0.120,0.045
1288,0.115,0.015
1289,0.100,0.015
1290,0.080,0.030
1291,0.105,0.030
1292,0.105,0.030
1293,0.080,0.020
1294,0.090,0.015
1295,0.065,0.005
1296,0.065,0.020
1297,0.130,0.025
1298,0.105,0.020
1299,0.090,0.000
1300,0.080,0.020
1301,0.100,0.095
1302,0.090,0.130
1303,0.070,0.020
1304,0.075,0.000
1305,0.080,0.055
1306,0.070,0.085
1307,0.070,-0.040
1308,0.120,-0.065
1309,0.135,-0.015
1310,0.155,0.055
1311,0.200,0.095
1312,0.210,0.145
1313,0.220,0.190
1314,0.185,0.200
1315,0.150,0.180
1316,0.115,0.145
1317,0.115,0.105
1318,0.110,0.055
1319,0.080,0.010
1320,0.075,0.035
1321,0.075,0.035
1322,0.070,0.000
1323,0.065,-0.045
1324,0.065,-0.015
1325,0.065,0.015
1326,0.090,0.010
1327,0.085,0.035
1328,0.155,0.020
1329,0.445,0.145
1330,0.820,0.595
1331,0.315,1.095
1332,-0.900,0.795
1333,-1.630,0.170
1334,-1.910,0.210
1335,-1.200,0.235
1336,-0.515,0.090
1337,-0.145,0.030
1338,0.000,-0.030
1339,0.050,-0.030
1340,0.110,0.030
1341,0.100,0.015
1342,0.120,-0.010
1343,0.095,-0.005
1344,0.110,0.005
1345,0.150,0.025
1346,0.170,0.000
1347,0.145,-0.005
1348,0.115,0.005
1349,0.140,0.000
1350,0.200,0.025
1351,0.200,0.020
1352,0.195,0.015
1353,0.205,0.040
1354,0.210,0.130
1355,0.235,0.140
1356,0.210,0.060
1357,0.240,0.115
1358,0.225,0.180
1359,0.230,0.160
1360,0.270,0.075
1361,0.260,0.180
1362,0.205,0.275
1363,0.185,0.270
1364,0.225,0.330
1365,0.205,0.370
1366,0.175,0.340
1367,0.185,0.300
1368,0.155,0.280
1369,0.200,0.310
1370,0.210,0.380
1371,0.175,0.355
1372,0.175,0.260
1373,0.220,0.270
1374,0.225,0.265
1375,0.225,0.225
1376,0.190,0.175
1377,0.140,0.210
1378,0.115,0.215
1379,0.100,0.130
1380,0.110,0.045
1381,0.065,0.075
1382,0.030,0.160
1383,0.015,0.095
1384,0.030,0.120
1385,0.025,0.120
1386,-0.005,0.080
1387,0.005,0.025
1388,0.035,0.135
1389,0.020,0.160
1390,0.030,0.050
1391,0.020,0.095
1392,0.020,0.185
1393,0.030,0.135
1394,0.030,0.125
1395,-0.010,0.160
1396,-0.025,0.155
1397,-0.045,0.195
1398,-0.025,0.155
1399,-0.010,0.125
1400,-0.025,0.180
1401,-0.070,0.160
1402,-0.080,0.150
1403,-0.065,0.190
1404,-0.060,0.195
1405,-0.090,0.210
1406,-0.100,0.270
1407,-0.125,0.135
1408,-0.040,0.200
1409,-0.075,0.220
1410,-0.105,0.155
1411,-0.080,0.175
1412,-0.090,0.215
1413,-0.080,0.270
1414,-0.110,0.210
1415,-0.150,0.220
1416,-0.125,0.270
1417,-0.150,0.295
1418,-0.120,0.225
1419,-0.110,0.295
1420,-0.150,0.175
1421,-0.140,0.255
1422,-0.125,0.180
1423,-0.070,0.090
1424,-0.050,0.145
1425,-0.110,0.180
1426,-0.115,0.285
1427,-0.110,0.220
1428,-0.075,0.245
1429,-0.055,0.285
1430,-0.030,0.290
1431,0.010,0.385
1432,0.025,0.455
1433,0.045,0.340
1434,0.045,0.370
1435,0.035,0.465
1436,-0.015,0.505
1437,-0.055,0.470
1438,-0.055,0.390
1439,-0.025,0.290
1440,-0.025,0.290
1441,-0.065,0.360
1442,-0.065,0.295
1443,-0.050,0.160
1444,-0.035,0.200
1445,-0.065,0.320
1446,-0.095,0.340
1447,-0.035,0.245
1448,0.000,0.255
1449,0.025,0.365
1450,0.220,0.280
1451,0.555,0.640
1452,0.670,1.190
1453,-0.400,1.335
1454,-1.345,0.535
1455,-1.740,0.245
1456,-1.450,0.405
1457,-0.800,0.470
1458,-0.405,0.330
1459,-0.130,0.230
1460,-0.035,0.265
1461,-0.005,0.310
1462,0.030,0.305
1463,0.040,0.305
1464,0.030,0.250
1465,0.040,0.235
1466,0.060,0.255
1467,0.080,0.360
1468,0.085,0.215
1469,0.085,0.220
1470,0.065,0.285
1471,0.080,0.285
1472,0.090,0.295
1473,0.120,0.290
1474,0.060,0.285
1475,0.095,0.370
1476,0.120,0.325
1477,0.145,0.345
1478,0.140,0.245
1479,0.135,0.295
1480,0.140,0.355
1481,0.165,0.390
1482,0.180,0.420
1483,0.145,0.460
1484,0.120,0.445
1485,0.100,0.485
1486,0.110,0.445
1487,0.140,0.535
1488,0.120,0.500
1489,0.110,0.550
1490,0.065,0.470
1491,0.120,0.520
1492,0.125,0.525
1493,0.105,0.475
1494,0.110,0.490
1495,0.100,0.500
1496,0.140,0.370
1497,0.155,0.350
1498,0.135,0.305
1499,0.125,0.295
1500,0.110,0.295
1501,0.090,0.290
1502,0.085,0.265
1503,0.050,0.235
1504,0.035,0.225
1505,0.035,0.195
1506,0.075,0.195
1507,0.090,0.285
1508,0.035,0.235
1509,0.050,0.190
1510,0.065,0.215
1511,0.080,0.180
1512,0.100,0.140
1513,0.085,0.180
1514,0.075,0.180
1515,0.055,0.210
1516,0.100,0.220
1517,0.080,0.200
1518,0.035,0.180
1519,0.020,0.200
1520,0.030,0.210
1521,0.045,0.165
1522,0.025,0.190
1523,0.010,0.170
1524,-0.005,0.190
1525,0.010,0.160
1526,-0.005,0.100
1527,0.015,0.075
1528,0.005,0.105
1529,-0.010,0.115
1530,0.010,0.125
1531,0.015,0.145
1532,0.000,0.110
1533,0.000,0.100
1534,-0.030,0.145
1535,0.005,0.115
1536,-0.005,0.150
1537,-0.010,0.140
1538,-0.030,0.120
1539,0.000,0.030
1540,0.025,0.080
1541,0.030,0.105
1542,0.025,0.075
1543,0.000,0.100
1544,-0.005,0.095
1545,0.020,0.115
1546,0.015,0.070
1547,0.020,0.050
1548,-0.005,0.090
1549,0.005,0.095
1550,0.035,0.065
1551,0.030,0.075
1552,0.010,0.075
1553,0.010,0.120
1554,0.000,0.135
1555,0.060,0.170
1556,0.085,0.120
1557,0.165,0.085
1558,0.105,0.205
1559,0.050,0.290
1560,0.075,0.230
1561,0.090,0.185
1562,0.035,0.150
1563,-0.020,0.150
1564,-0.005,0.120
1565,0.025,0.105
1566,0.045,0.025
1567,0.000,-0.030
1568,-0.040,0.000
1569,-0.030,0.075
1570,-0.010,0.015
1571,0.025,-0.030
1572,-0.005,-0.010
1573,-0.025,0.000
1574,-0.005,0.025
1575,0.165,0.045
1576,0.440,0.270
1577,0.730,0.670
1578,0.170,1.110
1579,-0.890,0.820
1580,-1.430,0.220
1581,-1.805,0.200
1582,-1.230,0.170
1583,-0.625,0.120
1584,-0.275,0.050
1585,-0.095,-0.010
1586,0.000,-0.030
1587,0.015,-0.020
1588,0.010,-0.025
1589,0.030,-0.040
1590,0.065,-0.015
1591,0.070,0.005
1592,0.050,-0.040
1593,0.105,-0.055
1594,0.085,-0.030
1595,0.115,-0.015
1596,0.095,0.015
1597,0.090,-0.045
1598,0.070,-0.020
1599,0.080,-0.005
1600,0.135,0.025
1601,0.165,-0.025
1602,0.180,0.020
1603,0.145,-0.035
1604,0.155,0.000
1605,0.195,0.010
1606,0.175,0.025
1607,0.160,0.070
1608,0.225,0.090
1609,0.235,0.135
1610,0.180,0.165
1611,0.210,0.160
1612,0.165,0.180
1613,0.115,0.180
1614,0.115,0.200
1615,0.185,0.225
1616,0.150,0.265
1617,0.105,0.250
1618,0.120,0.275
1619,0.115,0.265
1620,0.110,0.245
1621,0.170,0.210
1622,0.190,0.190
1623,0.145,0.130
1624,0.110,0.080
1625,0.160,0.070
1626,0.140,0.035
1627,0.140,0.000
1628,0.080,-0.010
1629,0.035,-0.020
1630,0.070,-0.020
1631,0.090,-0.040
1632,0.030,-0.060
1633,0.005,-0.045
1634,-0.015,-0.015
1635,0.015,-0.045
1636,0.055,-0.045
1637,0.075,-0.070
1638,0.035,-0.080
1639,0.060,-0.050
1640,0.055,-0.080
1641,0.050,-0.090
1642,0.070,-0.110
1643,0.065,-0.125
1644,0.040,-0.060
1645,0.015,-0.070
1646,0.090,-0.030
1647,0.090,-0.085
1648,0.015,-0.170
1649,-0.030,-0.080
1650,0.005,-0.090
1651,0.080,-0.135
1652,0.045,-0.170
1653,0.025,-0.130
1654,0.020,-0.155
1655,0.050,-0.175
1656,0.045,-0.130
1657,0.000,-0.220
1658,0.025,-0.225
1659,0.045,-0.200
1660,0.020,-0.140
1661,0.030,-0.110
1662,0.020,-0.225
1663,0.045,-0.215
1664,0.070,-0.210
1665,0.030,-0.185
1666,0.000,-0.155
1667,0.020,-0.250
1668,0.070,-0.285
1669,0.040,-0.265
1670,0.065,-0.210
1671,0.020,-0.210
1672,0.045,-0.215
1673,-0.010,-0.245
1674,0.005,-0.195
1675,-0.015,-0.105
1676,-0.030,-0.210
1677,0.040,-0.325
1678,0.070,-0.345
1679,0.025,-0.310
1680,0.115,-0.265
1681,0.080,-0.265
1682,0.010,-0.235
1683,0.005,-0.145
1684,0.100,-0.135
1685,0.100,-0.175
1686,0.095,-0.150
1687,0.150,-0.100
1688,0.140,-0.105
1689,0.150,-0.110
1690,0.080,-0.140
1691,0.010,-0.145
1692,-0.005,-0.150
1693,0.000,-0.215
1694,0.080,-0.280
1695,0.030,-0.285
1696,0.030,-0.265
1697,0.035,-0.270
1698,0.010,-0.325
1699,-0.025,-0.405
1700,-0.040,-0.350
1701,0.005,-0.305
1702,0.070,-0.295
1703,0.035,-0.280
1704,0.090,-0.315
1705,0.400,-0.150
1706,0.815,0.325
1707,0.185,0.825
1708,-1.035,0.450
1709,-1.660,-0.150
1710,-1.895,-0.155
1711,-1.280,-0.095
1712,-0.705,-0.180
1713,-0.315,-0.210
1714,-0.085,-0.335
1715,0.035,-0.350
1716,0.090,-0.305
1717,0.050,-0.330
1718,0.065,-0.350
1719,0.060,-0.330
1720,0.140,-0.325
1721,0.165,-0.320
1722,0.145,-0.320
1723,0.120,-0.325
1724,0.150,-0.290
1725,0.145,-0.315
1726,0.170,-0.320
1727,0.220,-0.300
1728,0.220,-0.360
1729,0.215,-0.275
1730,0.270,-0.275
1731,0.260,-0.300
1732,0.210,-0.300
1733,0.180,-0.300
1734,0.195,-0.240
1735,0.235,-0.215
1736,0.250,-0.170
1737,0.265,-0.180
1738,0.285,-0.155
1739,0.225,-0.105
1740,0.240,-0.085
1741,0.250,-0.070
1742,0.265,-0.045
1743,0.205,-0.060
1744,0.210,-0.045
1745,0.220,-0.010
1746,0.245,0.015
1747,0.210,0.000
1748,0.170,-0.065
1749,0.260,-0.055
1750,0.270,-0.020
1751,0.315,-0.090
1752,0.255,-0.135
1753,0.150,-0.130
1754,0.145,-0.180
1755,0.195,-0.235
1756,0.170,-0.235
1757,0.185,-0.275
1758,0.190,-0.270
1759,0.095,-0.300
1760,0.080,-0.305
1761,0.140,-0.345
1762,0.175,-0.315
1763,0.085,-0.265
1764,0.085,-0.295
1765,0.130,-0.290
1766,0.100,-0.275
1767,0.145,-0.295
1768,0.150,-0.335
1769,0.160,-0.375
1770,0.085,-0.310
1771,0.115,-0.295
1772,0.100,-0.290
1773,0.080,-0.325
1774,0.080,-0.310
1775,0.085,-0.260
1776,0.150,-0.270
1777,0.075,-0.245
1778,0.000,-0.330
1779,0.025,-0.400
1780,0.060,-0.365
1781,0.040,-0.405
1782,0.030,-0.400
1783,-0.030,-0.365
1784,-0.025,-0.355
1785,-0.005,-0.360
1786,0.010,-0.355
1787,-0.005,-0.355
1788,-0.025,-0.375
1789,-0.020,-0.305
1790,0.015,-0.375
1791,0.005,-0.355
1792,-0.030,-0.370
1793,-0.020,-0.380
1794,-0.020,-0.425
1795,0.000,-0.415
1796,0.015,-0.360
1797,-0.050,-0.400
1798,-0.050,-0.380
1799,-0.035,-0.375
1800,0.010,-0.380
1801,0.000,-0.355
1802,-0.040,-0.420
1803,-0.025,-0.405
1804,0.015,-0.385
1805,0.000,-0.340
1806,-0.030,-0.315
1807,-0.090,-0.390
1808,-0.095,-0.390
1809,-0.060,-0.375
1810,0.000,-0.410
1811,0.000,-0.410
1812,0.000,-0.330
1813,0.025,-0.325
1814,0.065,-0.290
1815,0.100,-0.280
1816,0.075,-0.195
1817,0.000,-0.175
1818,0.000,-0.165
1819,-0.050,-0.225
1820,-0.070,-0.375
1821,-0.025,-0.420
1822,-0.040,-0.395
1823,-0.045,-0.390
1824,-0.025,-0.390
1825,0.015,-0.390
1826,0.005,-0.435
1827,-0.105,-0.495
1828,-0.080,-0.445
1829,-0.080,-0.460
1830,-0.090,-0.480
1831,-0.055,-0.475
1832,0.175,-0.440
1833,0.530,-0.120
1834,0.665,0.440
1835,-0.485,0.530
1836,-1.435,-0.110
1837,-1.855,-0.435
1838,-1.675,-0.285
1839,-0.975,-0.325
1840,-0.465,-0.400
1841,-0.165,-0.465
1842,-0.110,-0.435
1843,-0.085,-0.420
1844,-0.055,-0.435
1845,-0.015,-0.445
1846,0.010,-0.445
1847,0.025,-0.435
1848,0.015,-0.415
1849,0.000,-0.400
1850,-0.015,-0.405
1851,0.000,-0.370
1852,0.020,-0.405
1853,0.020,-0.470
1854,0.045,-0.445
1855,0.030,-0.395
1856,0.065,-0.455
1857,0.045,-0.440
1858,0.055,-0.380
1859,0.030,-0.385
1860,0.075,-0.375
1861,0.040,-0.300
1862,0.045,-0.265
1863,0.060,-0.215
1864,0.030,-0.275
1865,0.045,-0.315
1866,0.060,-0.235
1867,0.035,-0.185
1868,0.065,-0.165
1869,0.045,-0.135
1870,-0.015,-0.165
1871,0.035,-0.115
1872,0.075,-0.050
1873,-0.030,-0.150
1874,-0.005,-0.165
1875,-0.020,-0.120
1876,0.010,-0.025
1877,0.050,-0.270
1878,0.120,-0.305
1879,0.055,-0.295
1880,0.025,-0.315
1881,0.070,-0.315
1882,0.035,-0.365
1883,0.000,-0.375
1884,-0.075,-0.395
1885,-0.040,-0.415
1886,-0.030,-0.400
1887,-0.050,-0.370
1888,-0.050,-0.350
1889,-0.010,-0.445
1890,-0.035,-0.425
1891,-0.045,-0.390
1892,-0.045,-0.365
1893,0.000,-0.355
1894,-0.015,-0.430
1895,-0.060,-0.375
1896,-0.050,-0.295
1897,-0.030,-0.425
1898,-0.005,-0.435
1899,-0.085,-0.430
1900,-0.100,-0.410
1901,-0.055,-0.405
1902,-0.020,-0.460
1903,-0.075,-0.455
1904,-0.125,-0.465
1905,-0.080,-0.415
1906,-0.070,-0.410
1907,-0.115,-0.380
1908,-0.130,-0.435
1909,-0.120,-0.475
1910,-0.070,-0.470
1911,-0.110,-0.460
1912,-0.070,-0.455
1913,-0.175,-0.505
1914,-0.100,-0.475
1915,-0.075,-0.470
1916,-0.140,-0.500
1917,-0.130,-0.470
1918,-0.165,-0.385
1919,-0.115,-0.500
1920,-0.080,-0.430
1921,-0.160,-0.425
1922,-0.135,-0.530
1923,-0.080,-0.530
1924,-0.120,-0.485
1925,-0.110,-0.400
1926,-0.160,-0.505
1927,-0.065,-0.510
1928,-0.085,-0.445
1929,-0.155,-0.420
1930,-0.095,-0.485
1931,-0.110,-0.560
1932,-0.065,-0.530
1933,-0.120,-0.470
1934,-0.095,-0.385
1935,-0.055,-0.380
1936,-0.005,-0.430
1937,0.000,-0.395
1938,-0.035,-0.345
1939,-0.055,-0.230
1940,-0.030,-0.205
1941,0.000,-0.345
1942,-0.080,-0.395
1943,-0.140,-0.375
1944,-0.075,-0.380
1945,-0.090,-0.430
1946,-0.170,-0.470
1947,-0.165,-0.495
1948,-0.155,-0.450
1949,-0.130,-0.455
1950,-0.155,-0.490
1951,-0.170,-0.455
1952,-0.180,-0.525
1953,-0.150,-0.500
1954,-0.105,-0.455
1955,0.040,-0.470
1956,0.325,-0.260
1957,0.595,0.220
1958,-0.125,0.565
1959,-1.195,0.145
1960,-1.815,-0.395
1961,-1.980,-0.275
1962,-1.270,-0.290
1963,-0.675,-0.425
1964,-0.325,-0.425
1965,-0.120,-0.430
1966,-0.150,-0.435
1967,-0.170,-0.410
1968,-0.135,-0.475
1969,-0.030,-0.475
1970,0.055,-0.470
1971,-0.020,-0.460
1972,-0.100,-0.420
1973,-0.080,-0.440
1974,-0.035,-0.440
1975,-0.035,-0.415
1976,-0.065,-0.380
1977,-0.070,-0.365
1978,0.035,-0.380
1979,0.045,-0.405
1980,0.090,-0.415
1981,-0.005,-0.395
1982,-0.010,-0.325
1983,0.035,-0.310
1984,0.030,-0.315
1985,0.040,-0.310
1986,0.060,-0.225
1987,0.000,-0.215
1988,0.040,-0.210
1989,0.115,-0.150
1990,0.085,-0.155
1991,0.030,-0.145
1992,0.005,-0.120
1993,0.010,-0.065
1994,0.025,-0.090
1995,0.000,-0.065
1996,-0.050,-0.060
1997,-0.030,-0.050
1998,0.000,-0.035
1999,0.060,-0.080
2000,0.045,-0.105
2001,0.015,-0.120
2002,0.030,-0.085
2003,0.000,-0.195
2004,0.035,-0.240
2005,0.050,-0.230
2006,0.005,-0.255
2007,-0.070,-0.275
2008,-0.070,-0.230
2009,-0.060,-0.245
2010,-0.070,-0.335
2011,-0.060,-0.305
2012,-0.085,-0.255
2013,-0.065,-0.275
2014,-0.055,-0.265
2015,0.000,-0.295
2016,-0.020,-0.285
2017,-0.015,-0.270
2018,0.015,-0.265
2019,0.005,-0.255
2020,-0.020,-0.200
2021,-0.075,-0.240
2022,-0.045,-0.260
2023,-0.015,-0.225
2024,-0.010,-0.195
2025,-0.045,-0.295
2026,-0.055,-0.300
2027,-0.090,-0.270
2028,-0.080,-0.270
2029,-0.100,-0.210
2030,-0.130,-0.250
2031,-0.125,-0.265
2032,-0.140,-0.295
2033,-0.115,-0.280
2034,-0.115,-0.225
2035,-0.130,-0.270
2036,-0.160,-0.285
2037,-0.145,-0.275
2038,-0.105,-0.275
2039,-0.125,-0.275
2040,-0.150,-0.285
2041,-0.160,-0.245
2042,-0.180,-0.265
2043,-0.140,-0.290
2044,-0.140,-0.280
2045,-0.140,-0.330
2046,-0.155,-0.265
2047,-0.160,-0.280
2048,-0.150,-0.290
2049,-0.130,-0.275
2050,-0.130,-0.245
2051,-0.175,-0.310
2052,-0.175,-0.300
2053,-0.120,-0.265
2054,-0.125,-0.245
2055,-0.130,-0.240
2056,-0.140,-0.205
2057,-0.145,-0.215
2058,-0.125,-0.275
2059,-0.055,-0.295
2060,-0.060,-0.235
2061,-0.150,-0.255
2062,-0.135,-0.265
2063,-0.135,-0.225
2064,-0.110,-0.255
2065,-0.115,-0.230
2066,-0.110,-0.175
2067,-0.115,-0.160
2068,-0.025,-0.175
2069,-0.005,-0.170
2070,0.000,-0.115
2071,-0.035,-0.030
2072,-0.045,-0.040
2073,-0.070,-0.130
2074,-0.070,-0.130
2075,-0.100,-0.110
2076,-0.115,-0.175
2077,-0.085,-0.245
2078,-0.100,-0.245
2079,-0.100,-0.225
2080,-0.150,-0.235
2081,-0.135,-0.255
2082,-0.170,-0.255
2083,-0.110,-0.245
2084,-0.115,-0.250
2085,-0.145,-0.195
2086,-0.130,-0.200
2087,0.025,-0.200
2088,0.315,-0.070
2089,0.690,0.355
2090,-0.025,0.775
2091,-1.160,0.385
2092,-1.685,-0.100
2093,-1.965,-0.025
2094,-1.280,-0.020
2095,-0.720,-0.130
2096,-0.365,-0.200
2097,-0.180,-0.165
2098,-0.140,-0.180
2099,-0.050,-0.190
2100,-0.040,-0.195
2101,-0.065,-0.265
2102,-0.045,-0.245
2103,0.020,-0.170
2104,0.025,-0.195
2105,0.000,-0.155
2106,-0.015,-0.245
2107,0.010,-0.235
2108,0.045,-0.185
2109,0.045,-0.175
2110,0.030,-0.180
2111,0.025,-0.200
2112,0.045,-0.190
2113,0.110,-0.110
2114,0.110,-0.135
2115,0.105,-0.145
2116,0.050,-0.145
2117,0.055,-0.070
2118,0.095,-0.055
2119,0.115,-0.060
2120,0.120,-0.055
2121,0.090,0.000
2122,0.105,0.020
2123,0.120,0.055
2124,0.125,0.100
2125,0.105,0.070
2126,0.080,0.055
2127,0.085,0.095
2128,0.105,0.125
2129,0.075,0.140
2130,0.085,0.150
2131,0.055,0.165
2132,0.045,0.110
2133,0.085,0.090
2134,0.120,0.090
2135,0.120,0.000
2136,0.090,0.020
2137,0.055,0.000
2138,0.070,-0.015
2139,0.050,-0.005
2140,0.025,0.005
2141,-0.015,-0.070
2142,-0.015,-0.110
2143,0.005,-0.130
2144,0.005,-0.105
2145,0.000,-0.115
2146,-0.030,-0.070
2147,-0.010,-0.060
2148,-0.005,-0.080
2149,0.055,-0.040
2150,0.050,0.015
2151,-0.010,-0.110
2152,0.000,-0.110
2153,0.030,-0.025
2154,0.035,-0.105
2155,0.035,-0.090
2156,-0.015,-0.060
2157,-0.005,-0.045
2158,-0.020,-0.025
2159,0.005,0.015
2160,-0.035,-0.095
2161,-0.025,-0.090
2162,-0.040,-0.085
2163,-0.030,-0.005
2164,-0.080,-0.045
2165,-0.090,-0.185
2166,-0.070,-0.140
2167,-0.085,-0.020
2168,-0.075,-0.065
2169,-0.075,-0.110
2170,-0.075,-0.125
2171,-0.090,-0.105
2172,-0.110,-0.075
2173,-0.095,-0.090
2174,-0.040,-0.060
2175,-0.075,0.025
2176,-0.155,-0.185
2177,-0.080,-0.140
2178,-0.070,-0.035
2179,-0.070,-0.065
2180,-0.075,-0.110
2181,-0.080,-0.100
2182,-0.100,-0.045
2183,-0.100,-0.040
2184,-0.095,-0.095
2185,-0.080,-0.085
2186,-0.090,-0.070
2187,-0.090,-0.105
2188,-0.060,-0.050
2189,-0.050,-0.025
2190,-0.090,-0.060
2191,-0.095,-0.090
2192,-0.075,-0.055
2193,-0.060,-0.035
2194,-0.030,-0.010
2195,-0.045,-0.060
2196,-0.095,-0.105
2197,-0.010,0.000
2198,-0.020,0.045
2199,0.000,0.005
2200,0.030,0.025
2201,0.030,0.050
2202,0.005,0.140
2203,0.000,0.100
2204,-0.020,0.060
2205,-0.050,0.080
2206,-0.075,0.045
2207,-0.035,-0.020
2208,-0.050,-0.070
2209,-0.080,-0.105
2210,-0.085,-0.055
2211,-0.125,-0.055
2212,-0.115,-0.110
2213,-0.065,-0.010
2214,-0.055,-0.100
2215,-0.040,-0.110
2216,-0.090,-0.020
2217,0.005,-0.025
2218,0.335,0.020
2219,0.695,0.455
2220,0.285,0.945
2221,-0.785,0.790
2222,-1.455,0.145
2223,-1.835,0.060
2224,-1.435,0.175
2225,-0.790,0.050
2226,-0.370,-0.010
2227,-0.130,-0.005
2228,-0.065,-0.010
2229,-0.010,-0.025
2230,0.015,0.015
2231,0.010,-0.005
2232,0.020,-0.015
2233,0.065,-0.030
2234,0.100,0.045
2235,0.035,0.005
2236,0.025,-0.095
2237,0.055,-0.060
2238,0.100,0.025
2239,0.135,0.110
2240,0.060,-0.005
2241,0.075,-0.005
2242,0.110,0.035
2243,0.140,0.085
2244,0.180,0.005
2245,0.145,0.015
2246,0.110,0.030
2247,0.145,0.110
2248,0.185,0.240
2249,0.170,0.140
2250,0.170,0.095
2251,0.165,0.230
2252,0.120,0.215
2253,0.155,0.315
2254,0.170,0.275
2255,0.170,0.220
2256,0.150,0.275
2257,0.115,0.370
2258,0.145,0.365
2259,0.190,0.295
2260,0.190,0.420
2261,0.110,0.350
2262,0.145,0.315
2263,0.175,0.270
2264,0.230,0.300
2265,0.220,0.210
2266,0.175,0.185
2267,0.175,0.160
2268,0.200,0.215
2269,0.170,0.240
2270,0.110,0.095
2271,0.090,0.015
2272,0.110,0.085
2273,0.085,0.115
2274,0.090,0.120
2275,0.070,0.095
2276,0.070,0.080
2277,0.100,0.160
2278,0.085,0.205
2279,0.100,0.060
2280,0.140,0.065
2281,0.110,0.100
2282,0.140,0.065
2283,0.150,0.135
2284,0.135,0.125
2285,0.135,0.105
2286,0.070,0.125
2287,0.060,0.130
2288,0.100,0.095
2289,0.110,0.100
2290,0.060,0.130
2291,0.045,0.070
2292,0.055,0.080
2293,0.070,0.095
2294,0.080,0.040
2295,0.045,0.055
2296,0.030,0.040
2297,0.025,0.030
2298,0.045,0.060
2299,0.070,0.005
2300,0.050,0.035
2301,0.015,0.000
2302,0.015,0.120
2303,0.055,0.045
2304,0.040,0.040
2305,-0.005,0.040
2306,0.000,0.010
2307,0.025,0.000
2308,0.045,0.065
2309,0.000,-0.025
2310,0.040,0.055
2311,0.000,0.060
2312,0.015,0.020
2313,0.050,-0.010
2314,0.035,0.005
2315,0.035,0.100
2316,-0.010,-0.010
2317,0.030,-0.005
2318,0.040,0.130
2319,0.015,-0.020
2320,0.030,0.055
2321,0.000,0.005
2322,0.040,-0.030
2323,0.035,-0.005
2324,0.035,0.080
2325,0.020,0.070
2326,0.050,0.030
2327,0.110,0.035
2328,0.150,0.110
2329,0.155,0.180
2330,0.090,0.160
2331,0.080,0.200
2332,0.100,0.180
2333,0.065,0.095
2334,0.035,0.130
2335,0.045,0.075
2336,0.005,0.015
2337,0.020,0.060
2338,0.025,0.040
2339,0.000,-0.060
2340,0.010,-0.105
2341,0.000,-0.020
2342,0.010,-0.025
2343,0.055,-0.045
2344,0.050,-0.045
2345,0.050,-0.020
2346,0.205,0.020
2347,0.505,0.240
2348,0.765,0.785
2349,-0.185,1.020
2350,-1.090,0.370
2351,-1.545,-0.035
2352,-1.480,0.160
2353,-0.830,0.055
2354,-0.345,-0.015
2355,-0.125,-0.035
2356,-0.025,-0.035
2357,0.045,-0.050
2358,0.075,0.000
2359,0.055,0.050
2360,0.050,0.035
2361,0.045,-0.100
2362,0.145,-0.020
2363,0.130,-0.085
2364,0.135,-0.125
2365,0.100,-0.070
2366,0.145,-0.040
2367,0.165,-0.045
2368,0.190,-0.040
2369,0.150,-0.035
2370,0.145,-0.015
2371,0.170,0.010
2372,0.170,0.020
2373,0.170,0.015
2374,0.155,0.035
2375,0.175,0.050
2376,0.200,0.085
2377,0.205,0.110
2378,0.195,0.120
2379,0.160,0.135
2380,0.155,0.165
2381,0.165,0.195
2382,0.185,0.210
2383,0.185,0.220
2384,0.140,0.235
2385,0.140,0.260
2386,0.155,0.270
2387,0.160,0.260
2388,0.160,0.250
2389,0.100,0.225
2390,0.110,0.235
2391,0.155,0.195
2392,0.170,0.140
2393,0.185,0.095
2394,0.155,0.080
2395,0.145,0.055
2396,0.150,0.025
2397,0.130,0.000
2398,0.105,-0.020
2399,0.080,-0.060
2400,0.050,-0.060
2401,0.110,-0.115
2402,0.135,-0.155
2403,0.095,-0.155
2404,0.085,-0.150
2405,0.095,-0.140
2406,0.130,-0.140
2407,0.120,-0.160
2408,0.110,-0.155
2409,0.125,-0.130
2410,0.110,-0.075
2411,0.140,-0.015
2412,0.070,-0.275
2413,0.105,-0.260
2414,0.095,-0.210
2415,0.105,-0.275
2416,0.105,-0.305
2417,0.080,-0.330
2418,0.045,-0.310
2419,0.040,-0.300
2420,0.085,-0.285
2421,0.075,-0.340
2422,0.035,-0.345
2423,0.020,-0.320
2424,0.010,-0.270
2425,0.020,-0.310
2426,0.010,-0.460
2427,0.000,-0.515
2428,0.010,-0.465
2429,0.035,-0.460
2430,0.015,-0.495
2431,0.000,-0.515
2432,-0.010,-0.525
2433,-0.005,-0.535
2434,0.015,-0.515
2435,0.030,-0.525
2436,0.020,-0.575
2437,0.000,-0.560
2438,-0.005,-0.555
2439,0.015,-0.555
2440,0.020,-0.605
2441,0.010,-0.605
2442,-0.010,-0.565
2443,-0.015,-0.615
2444,0.010,-0.690
2445,0.000,-0.680
2446,-0.005,-0.680
2447,-0.015,-0.665
2448,0.005,-0.620
2449,-0.005,-0.605
2450,-0.010,-0.695
2451,-0.015,-0.710
2452,0.000,-0.715
2453,-0.005,-0.660
2454,0.040,-0.635
2455,0.075,-0.655
2456,0.060,-0.625
2457,0.065,-0.605
2458,0.095,-0.550
2459,0.070,-0.530
2460,0.060,-0.580
2461,0.015,-0.630
2462,-0.025,-0.590
2463,0.000,-0.630
2464,0.040,-0.680
2465,0.000,-0.660
2466,-0.040,-0.705
2467,-0.065,-0.765
2468,-0.015,-0.785
2469,-0.005,-0.785
2470,-0.025,-0.770
2471,-0.050,-0.750
2472,-0.030,-0.710
2473,-0.020,-0.710
2474,0.125,-0.745
2475,0.375,-0.560
2476,0.655,-0.025
2477,0.055,0.355
2478,-0.875,-0.135
2479,-1.415,-0.685
2480,-1.580,-0.555
2481,-1.025,-0.540
2482,-0.515,-0.690
2483,-0.170,-0.775
2484,-0.035,-0.780
2485,-0.025,-0.750
2486,-0.015,-0.755
2487,0.025,-0.760
2488,0.050,-0.720
2489,0.055,-0.690
2490,0.020,-0.725
2491,0.030,-0.785
2492,0.065,-0.770
2493,0.100,-0.720
2494,0.085,-0.710
2495,0.070,-0.720
2496,0.100,-0.690
2497,0.100,-0.680
2498,0.125,-0.710
2499,0.145,-0.700
2500,0.120,-0.705
2501,0.105,-0.650
2502,0.155,-0.605
2503,0.145,-0.635
2504,0.140,-0.635
2505,0.125,-0.595
2506,0.135,-0.525
2507,0.140,-0.505
2508,0.140,-0.520
2509,0.110,-0.485
2510,0.100,-0.430
2511,0.105,-0.365
2512,0.100,-0.440
2513,0.125,-0.450
2514,0.080,-0.415
2515,0.070,-0.380
2516,0.090,-0.380
2517,0.110,-0.395
2518,0.135,-0.420
2519,0.095,-0.435
2520,0.115,-0.445
2521,0.115,-0.455
2522,0.160,-0.490
2523,0.135,-0.535
2524,0.100,-0.530
2525,0.080,-0.560
2526,0.065,-0.565
2527,0.080,-0.590
2528,0.055,-0.605
2529,0.030,-0.600
2530,0.030,-0.600
2531,0.060,-0.585
2532,0.075,-0.580
2533,0.065,-0.580
2534,0.070,-0.575
2535,0.050,-0.545
2536,0.070,-0.530
2537,0.095,-0.605
2538,0.100,-0.615
2539,0.090,-0.630
2540,0.075,-0.565
2541,0.085,-0.535
2542,0.105,-0.565
2543,0.075,-0.590
2544,0.070,-0.595
2545,0.075,-0.555
2546,0.060,-0.520
2547,0.065,-0.565
2548,0.025,-0.630
2549,0.035,-0.625
2550,0.035,-0.580
2551,0.035,-0.530
2552,0.015,-0.560
2553,0.020,-0.600
2554,0.000,-0.580
2555,-0.010,-0.585
2556,0.025,-0.580
2557,0.015,-0.650
2558,0.010,-0.630
2559,0.015,-0.555
2560,-0.005,-0.565
2561,0.015,-0.590
2562,0.025,-0.605
2563,0.000,-0.550
2564,-0.010,-0.555
2565,0.015,-0.550
2566,0.005,-0.540
2567,0.015,-0.555
2568,0.000,-0.575
2569,0.000,-0.565
2570,-0.005,-0.550
2571,0.010,-0.560
2572,0.000,-0.575
2573,-0.005,-0.560
2574,-0.010,-0.565
2575,-0.005,-0.565
2576,0.010,-0.545
2577,0.000,-0.550
2578,-0.010,-0.555
2579,-0.015,-0.530
2580,0.000,-0.550
2581,-0.020,-0.505
2582,0.005,-0.460
2583,-0.020,-0.400
2584,-0.005,-0.355
2585,0.040,-0.385
2586,0.105,-0.310
2587,0.090,-0.365
2588,0.075,-0.590
2589,0.110,-0.555
2590,0.090,-0.470
2591,0.070,-0.450
2592,0.005,-0.445
2593,0.005,-0.480
2594,0.005,-0.520
2595,0.010,-0.535
2596,0.005,-0.525
2597,0.000,-0.535
2598,-0.030,-0.555
2599,-0.010,-0.530
2600,0.010,-0.515
2601,0.010,-0.495
2602,0.010,-0.480
2603,0.000,-0.510
2604,0.035,-0.520
2605,0.290,-0.435
2606,0.610,-0.100
2607,0.585,0.365
2608,-0.430,0.415
2609,-1.235,-0.110
2610,-1.675,-0.365
2611,-1.465,-0.270
2612,-0.790,-0.330
2613,-0.370,-0.395
2614,-0.120,-0.350
2615,-0.005,-0.405
2616,0.040,-0.415
2617,0.060,-0.485
2618,0.080,-0.545
2619,0.105,-0.550
2620,0.125,-0.475
2621,0.135,-0.490
2622,0.140,-0.485
2623,0.130,-0.490
2624,0.135,-0.485
2625,0.105,-0.430
2626,0.155,-0.430
2627,0.170,-0.480
2628,0.150,-0.450
2629,0.145,-0.405
2630,0.175,-0.250
2631,0.165,-0.200
2632,0.165,-0.355
2633,0.175,-0.520
2634,0.235,-0.405
2635,0.215,-0.300
2636,0.230,-0.365
2637,0.250,-0.390
2638,0.235,-0.325
2639,0.230,-0.300
2640,0.235,-0.250
2641,0.240,-0.220
2642,0.210,-0.200
2643,0.195,-0.175
2644,0.200,-0.135
2645,0.195,-0.120
2646,0.210,-0.110
2647,0.215,-0.105
2648,0.195,-0.105
2649,0.200,-0.115
2650,0.215,-0.135
2651,0.245,-0.135
2652,0.245,-0.165
2653,0.235,-0.190
2654,0.265,-0.235
2655,0.250,-0.235
2656,0.265,-0.270
2657,0.245,-0.305
2658,0.160,-0.280
2659,0.115,-0.300
2660,0.090,-0.345
2661,0.110,-0.325
2662,0.105,-0.225
2663,0.055,-0.320
2664,0.080,-0.430
2665,0.105,-0.365
2666,0.145,-0.305
2667,0.190,-0.325
2668,0.170,-0.375
2669,0.135,-0.350
2670,0.120,-0.320
2671,0.150,-0.315
2672,0.175,-0.305
2673,0.130,-0.340
2674,0.075,-0.325
2675,0.080,-0.335
2676,0.100,-0.340
2677,0.110,-0.340
2678,0.080,-0.330
2679,0.055,-0.340
2680,0.050,-0.340
2681,0.065,-0.380
2682,0.070,-0.385
2683,0.045,-0.380
2684,0.020,-0.375
2685,0.020,-0.355
2686,0.075,-0.360
2687,0.045,-0.385
2688,0.015,-0.390
2689,0.010,-0.400
2690,0.010,-0.390
2691,0.055,-0.385
2692,0.060,-0.410
2693,0.010,-0.395
2694,0.015,-0.400
2695,0.005,-0.400
2696,0.010,-0.385
2697,0.050,-0.400
2698,0.005,-0.420
2699,0.000,-0.400
2700,0.010,-0.395
2701,0.000,-0.380
2702,0.040,-0.385
2703,0.000,-0.415
2704,0.000,-0.430
2705,0.000,-0.415
2706,0.035,-0.395
2707,0.030,-0.415
2708,0.000,-0.450
2709,0.000,-0.390
2710,-0.010,-0.410
2711,0.010,-0.410
2712,0.025,-0.410
2713,0.005,-0.410
2714,0.000,-0.375
2715,0.030,-0.340
2716,0.070,-0.310
2717,0.075,-0.355
2718,0.080,-0.355
2719,0.085,-0.270
2720,0.100,-0.225
2721,0.110,-0.285
2722,0.055,-0.330
2723,-0.065,-0.345
2724,-0.130,-0.400
2725,-0.105,-0.430
2726,-0.105,-0.470
2727,-0.115,-0.505
2728,-0.175,-0.505
2729,-0.150,-0.465
2730,-0.130,-0.480
2731,-0.145,-0.460
2732,-0.140,-0.480
2733,-0.180,-0.475
2734,-0.165,-0.480
2735,-0.020,-0.470
2736,0.240,-0.310
2737,0.550,0.115
2738,0.015,0.560
2739,-1.075,0.195
2740,-1.655,-0.250
2741,-1.865,-0.340
2742,-1.220,-0.405
2743,-0.685,-0.480
2744,-0.340,-0.480
2745,-0.185,-0.470
2746,-0.135,-0.495
2747,-0.110,-0.510
2748,-0.105,-0.510
2749,-0.100,-0.505
2750,-0.065,-0.480
2751,-0.070,-0.495
2752,-0.070,-0.490
2753,-0.085,-0.530
2754,-0.090,-0.555
2755,-0.045,-0.540
2756,-0.010,-0.530
2757,-0.035,-0.540
2758,-0.050,-0.560
2759,-0.065,-0.525
2760,-0.015,-0.495
2761,-0.005,-0.515
2762,-0.035,-0.515
2763,-0.035,-0.510
2764,-0.035,-0.470
2765,0.000,-0.460
2766,-0.010,-0.470
2767,-0.015,-0.460
2768,-0.060,-0.455
2769,-0.020,-0.405
2770,-0.020,-0.380
2771,-0.010,-0.380
2772,-0.060,-0.380
2773,-0.035,-0.335
2774,-0.075,-0.265
2775,-0.080,-0.255
2776,-0.060,-0.305
2777,-0.075,-0.315
2778,-0.100,-0.255
2779,-0.085,-0.210
2780,-0.070,-0.255
2781,-0.040,-0.325
2782,-0.055,-0.315
2783,-0.050,-0.325
2784,-0.050,-0.360
2785,-0.020,-0.375
2786,-0.055,-0.380
2787,-0.100,-0.370
2788,-0.135,-0.385
2789,-0.150,-0.410
2790,-0.135,-0.400
2791,-0.105,-0.440
2792,-0.155,-0.465
2793,-0.170,-0.400
2794,-0.135,-0.385
2795,-0.120,-0.375
2796,-0.110,-0.415
2797,-0.140,-0.390
2798,-0.140,-0.360
2799,-0.110,-0.315
2800,-0.110,-0.310
2801,-0.105,-0.350
2802,-0.130,-0.350
2803,-0.125,-0.340
2804,-0.130,-0.310
2805,-0.115,-0.310
2806,-0.165,-0.320
2807,-0.190,-0.330
2808,-0.190,-0.345
2809,-0.160,-0.305
2810,-0.175,-0.305
2811,-0.190,-0.350
2812,-0.215,-0.365
2813,-0.215,-0.320
2814,-0.190,-0.315
2815,-0.180,-0.325
2816,-0.195,-0.305
2817,-0.210,-0.350
2818,-0.230,-0.310
2819,-0.195,-0.335
2820,-0.235,-0.325
2821,-0.230,-0.290
2822,-0.255,-0.330
2823,-0.215,-0.340
2824,-0.205,-0.325
2825,-0.195,-0.305
2826,-0.230,-0.330
2827,-0.205,-0.315
2828,-0.205,-0.320
2829,-0.185,-0.310
2830,-0.185,-0.305
2831,-0.225,-0.310
2832,-0.220,-0.300
2833,-0.220,-0.310
2834,-0.190,-0.305
2835,-0.200,-0.310
2836,-0.200,-0.330
2837,-0.235,-0.320
2838,-0.215,-0.295
2839,-0.205,-0.300
2840,-0.195,-0.295
2841,-0.225,-0.280
2842,-0.215,-0.315
2843,-0.170,-0.255
2844,-0.130,-0.235
2845,-0.125,-0.225
2846,-0.135,-0.245
2847,-0.105,-0.200
2848,-0.080,-0.135
2849,-0.100,-0.130
2850,-0.110,-0.160
2851,-0.170,-0.185
2852,-0.200,-0.210
2853,-0.150,-0.245
2854,-0.160,-0.305
2855,-0.205,-0.320
2856,-0.190,-0.355
2857,-0.210,-0.385
2858,-0.210,-0.335
2859,-0.190,-0.350
2860,-0.210,-0.360
2861,-0.215,-0.380
2862,-0.175,-0.365
2863,-0.105,-0.390
2864,0.080,-0.300
2865,0.350,0.080
2866,0.360,0.635
2867,-0.620,0.590
2868,-1.390,-0.095
2869,-1.755,-0.300
2870,-1.390,-0.210
2871,-0.815,-0.295
2872,-0.395,-0.350
2873,-0.220,-0.405
2874,-0.180,-0.400
2875,-0.165,-0.390
2876,-0.135,-0.375
2877,-0.110,-0.360
2878,-0.105,-0.370
2879,-0.115,-0.390
2880,-0.110,-0.385
2881,-0.085,-0.370
2882,-0.025,-0.365
2883,-0.060,-0.365
2884,-0.065,-0.385
2885,-0.080,-0.370
2886,-0.045,-0.320
2887,-0.020,-0.340
2888,-0.020,-0.340
2889,-0.035,-0.340
2890,-0.030,-0.320
2891,-0.005,-0.300
2892,0.020,-0.260
2893,0.010,-0.250
2894,-0.025,-0.245
2895,-0.030,-0.190
2896,-0.010,-0.080
2897,-0.025,-0.115
2898,-0.055,-0.190
2899,-0.010,-0.175
2900,-0.015,-0.085
2901,-0.030,-0.085
2902,-0.020,-0.060
2903,-0.045,-0.030
2904,-0.070,0.000
2905,-0.060,0.090
2906,-0.060,0.055
2907,-0.015,-0.035
2908,0.005,-0.120
2909,0.000,-0.140
2910,0.020,-0.110
2911,0.025,-0.090
2912,0.010,-0.180
2913,-0.015,-0.200
2914,-0.040,-0.200
2915,-0.055,-0.190
2916,-0.050,-0.210
2917,-0.065,-0.220
2918,-0.095,-0.220
2919,-0.095,-0.220
2920,-0.070,-0.230
2921,-0.060,-0.245
2922,-0.045,-0.230
2923,-0.055,-0.245
2924,-0.080,-0.200
2925,-0.080,-0.215
2926,-0.020,-0.215
2927,-0.025,-0.185
2928,-0.045,-0.205
2929,-0.065,-0.170
2930,-0.050,-0.175
2931,-0.065,-0.190
2932,-0.060,-0.195
2933,-0.070,-0.200
2934,-0.085,-0.205
2935,-0.075,-0.145
2936,-0.085,-0.215
2937,-0.085,-0.235
2938,-0.130,-0.210
2939,-0.115,-0.185
2940,-0.120,-0.180
2941,-0.115,-0.220
2942,-0.110,-0.205
2943,-0.155,-0.175
2944,-0.125,-0.110
2945,-0.110,-0.190
2946,-0.085,-0.245
2947,-0.105,-0.200
2948,-0.130,-0.195
2949,-0.145,-0.140
2950,-0.130,-0.155
2951,-0.130,-0.120
2952,-0.135,-0.105
2953,-0.150,-0.100
2954,-0.145,-0.035
2955,-0.110,-0.085
2956,-0.115,-0.125
2957,-0.115,-0.090
2958,-0.115,-0.025
2959,-0.135,-0.015
2960,-0.105,-0.040
2961,-0.095,-0.050
2962,-0.135,-0.015
2963,-0.125,0.000
2964,-0.110,0.015
2965,-0.090,0.045
2966,-0.105,0.020
2967,-0.130,0.045
2968,-0.125,0.075
2969,-0.080,0.135
2970,-0.050,0.150
2971,-0.055,0.110
2972,-0.040,0.190
2973,-0.030,0.270
2974,0.000,0.305
2975,-0.035,0.270
2976,-0.065,0.235
2977,-0.135,0.235
2978,-0.095,0.215
2979,-0.085,0.200
2980,-0.090,0.140
2981,-0.125,0.135
2982,-0.165,0.140
2983,-0.130,0.160
2984,-0.140,0.140
2985,-0.130,0.135
2986,-0.160,0.150
2987,-0.180,0.155
2988,-0.080,0.160
2989,-0.045,0.160
2990,0.190,0.230
2991,0.525,0.610
2992,0.325,1.110
2993,-0.765,0.970
2994,-1.450,0.390
2995,-1.855,0.285
2996,-1.315,0.355
2997,-0.740,0.250
2998,-0.370,0.200
2999,-0.185,0.180
3000,-0.125,0.165
3001,-0.105,0.155
3002,-0.075,0.160
3003,-0.055,0.190
3004,-0.065,0.175
3005,-0.060,0.140
3006,-0.070,0.135
3007,-0.040,0.160
3008,-0.005,0.145
3009,0.000,0.145
3010,-0.030,0.140
3011,0.000,0.140
3012,0.005,0.215
3013,-0.005,0.260
3014,-0.020,0.155
3015,0.000,0.095
3016,0.025,0.135
3017,0.035,0.185
3018,0.050,0.205
3019,0.045,0.220
3020,0.025,0.245
3021,0.030,0.265
3022,0.050,0.325
3023,0.055,0.330
3024,0.055,0.350
3025,0.035,0.370
3026,0.035,0.400
3027,0.045,0.435
3028,0.040,0.440
3029,0.055,0.430
3030,0.035,0.460
3031,0.000,0.465
3032,0.040,0.455
3033,0.060,0.410
3034,0.000,0.390
3035,0.000,0.315
3036,0.070,0.325
3037,0.060,0.290
3038,0.045,0.210
3039,0.005,0.170
3040,0.000,0.140
3041,0.005,0.120
3042,0.005,0.130
3043,-0.020,0.120
3044,-0.050,0.080
3045,-0.085,0.075
3046,-0.010,0.105
3047,-0.010,0.100
3048,0.005,0.075
3049,-0.020,0.070
3050,-0.045,0.090
3051,-0.030,0.090
3052,0.015,0.070
3053,-0.010,0.065
3054,-0.015,0.040
3055,-0.045,-0.010
3056,-0.030,0.000
3057,-0.015,0.055
3058,0.000,0.125
3059,-0.015,0.220
3060,-0.020,0.270
3061,0.000,0.300
3062,-0.045,0.370
3063,-0.085,0.320
3064,-0.130,0.335
3065,-0.100,0.420
3066,-0.105,0.430
3067,-0.095,0.310
3068,-0.055,0.215
3069,-0.075,0.195
3070,-0.060,0.280
3071,-0.050,0.320
3072,-0.070,0.275
3073,-0.060,0.215
3074,-0.055,0.225
3075,0.000,0.280
3076,-0.050,0.295
3077,-0.090,0.240
3078,-0.070,0.205
3079,-0.125,0.225
3080,-0.100,0.220
3081,-0.025,0.265
3082,-0.030,0.255
3083,-0.100,0.200
3084,-0.085,0.095
3085,-0.070,-0.020
3086,-0.065,-0.055
3087,-0.065,-0.055
3088,-0.085,-0.090
3089,-0.115,-0.095
3090,-0.110,-0.090
3091,0.000,-0.090
3092,-0.045,-0.080
3093,-0.145,-0.095
3094,-0.130,-0.100
3095,-0.125,-0.115
3096,-0.105,-0.115
3097,-0.075,-0.050
3098,-0.025,-0.090
3099,-0.130,-0.095
3100,-0.175,-0.020
3101,-0.090,-0.020
3102,0.025,-0.050
3103,0.085,-0.010
3104,-0.030,0.010
3105,-0.080,0.070
3106,-0.055,0.105
3107,-0.050,0.060
3108,-0.105,0.060
3109,-0.145,0.035
3110,-0.125,-0.115
3111,-0.055,-0.175
3112,-0.090,-0.130
3113,-0.080,-0.130
3114,-0.090,-0.140
3115,-0.105,-0.095
3116,-0.140,-0.060
3117,-0.145,-0.025
3118,-0.095,-0.050
3119,-0.115,-0.130
3120,-0.060,-0.130
3121,0.200,-0.005
3122,0.520,0.330
3123,0.415,0.800
3124,-0.680,0.770
3125,-1.495,0.235
3126,-1.930,0.000
3127,-1.620,0.165
3128,-0.960,0.090
3129,-0.515,0.025
3130,-0.230,0.085
3131,-0.005,0.015
3132,0.025,-0.040
3133,-0.160,-0.085
3134,-0.105,-0.050
3135,-0.055,-0.025
3136,0.005,0.000
3137,0.010,0.010
3138,-0.005,0.020
3139,0.005,0.035
3140,0.005,0.030
3141,0.095,0.050
3142,0.175,0.095
3143,0.000,0.085
3144,0.000,0.085
3145,0.095,0.110
3146,0.055,0.140
3147,0.060,0.180
3148,0.090,0.150
3149,0.085,0.160
3150,0.060,0.215
3151,0.110,0.245
3152,0.215,0.280
3153,0.110,0.250
3154,0.055,0.245
3155,0.110,0.360
3156,0.095,0.335
3157,0.150,0.270
3158,0.070,0.310
3159,0.035,0.340
3160,0.035,0.360
3161,0.080,0.400
3162,0.055,0.395
3163,0.090,0.405
3164,0.080,0.405
3165,0.105,0.395
3166,0.075,0.420
3167,0.085,0.420
3168,0.110,0.385
3169,0.115,0.285
3170,0.145,0.230
3171,0.160,0.235
3172,0.125,0.160
3173,0.065,0.125
3174,0.020,0.120
3175,0.040,0.120
3176,0.045,0.155
3177,0.030,0.155
3178,0.055,0.140
3179,-0.015,0.100
3180,-0.030,0.155
3181,0.020,0.200
3182,0.050,0.160
3183,0.035,0.055
3184,0.055,0.130
3185,0.035,0.110
3186,0.025,0.085
3187,0.085,0.100
3188,0.080,0.135
3189,0.040,0.120
3190,0.010,0.130
3191,0.030,0.165
3192,0.075,0.070
3193,0.065,0.070
3194,-0.010,0.070
3195,-0.025,0.115
3196,0.000,0.070
3197,0.015,0.050
3198,0.050,0.035
3199,-0.055,0.065
3200,-0.030,0.055
3201,-0.040,0.035
3202,-0.035,0.065
3203,0.000,0.060
3204,0.000,0.035
3205,-0.020,0.050
3206,-0.060,0.015
3207,0.000,0.020
3208,0.010,0.015
3209,-0.020,0.020
3210,-0.045,0.025
3211,-0.080,0.000
3212,-0.005,0.020
3213,0.005,0.045
3214,0.010,0.030
3215,-0.025,0.000
3216,-0.030,-0.010
3217,-0.055,0.075
3218,-0.035,0.045
3219,-0.025,-0.045
3220,-0.015,0.020
3221,-0.050,0.025
3222,-0.065,-0.030
3223,-0.025,0.015
3224,-0.050,-0.005
3225,-0.030,-0.020
3226,-0.050,0.000
3227,-0.035,0.030
3228,-0.015,0.010
3229,-0.015,0.000
3230,-0.015,0.045
3231,-0.010,0.105
3232,0.040,0.145
3233,0.105,0.075
3234,0.090,0.135
3235,0.070,0.225
3236,0.030,0.200
3237,0.045,0.155
3238,0.055,0.125
3239,-0.005,0.110
3240,0.000,0.055
3241,0.050,0.020
3242,-0.020,0.000
3243,-0.025,0.000
3244,-0.035,-0.045
3245,-0.040,-0.035
3246,-0.060,0.000
3247,-0.050,-0.040
3248,-0.005,-0.035
3249,-0.005,0.000
3250,-0.040,-0.015
3251,0.025,-0.030
3252,0.260,0.020
3253,0.555,0.325
3254,0.630,0.780
3255,-0.350,0.865
3256,-1.305,0.305
3257,-1.745,0.005
3258,-1.665,0.155
3259,-0.865,0.060
3260,-0.370,0.000
3261,-0.160,-0.025
3262,-0.050,-0.015
3263,-0.030,-0.040
3264,0.035,-0.085
3265,0.025,-0.120
3266,0.035,-0.060
3267,0.060,-0.025
3268,0.120,-0.040
3269,0.090,-0.070
3270,0.055,-0.030
3271,0.055,-0.045
3272,0.090,0.020
3273,0.125,-0.020
3274,0.130,-0.055
3275,0.125,-0.040
3276,0.090,-0.020
3277,0.100,-0.025
3278,0.140,0.000
3279,0.155,0.000
3280,0.125,0.005
3281,0.120,0.030
3282,0.120,0.025
3283,0.155,0.080
3284,0.135,0.130
3285,0.120,0.085
3286,0.100,0.130
3287,0.095,0.115
3288,0.130,0.160
3289,0.140,0.180
3290,0.070,0.210
3291,0.085,0.220
3292,0.070,0.240
3293,0.105,0.275
3294,0.090,0.275
3295,0.070,0.280
3296,0.070,0.280
3297,0.115,0.255
3298,0.120,0.230
3299,0.135,0.215
3300,0.130,0.090
3301,0.130,0.080
3302,0.095,0.055
3303,0.130,0.005
3304,0.050,0.000
3305,0.015,-0.020
3306,0.015,0.000
3307,0.000,-0.025
3308,0.015,0.010
3309,0.015,0.030
3310,0.000,-0.050
3311,0.020,-0.065
3312,0.050,-0.005
3313,0.080,-0.025
3314,0.045,-0.030
3315,0.030,-0.035
3316,0.025,-0.030
3317,0.050,0.000
3318,0.045,-0.010
3319,0.030,-0.035
3320,0.015,-0.050
3321,0.000,-0.015
3322,0.000,0.020
3323,0.000,-0.065
3324,-0.010,-0.070
3325,0.000,-0.060
3326,-0.010,-0.055
3327,-0.025,-0.055
3328,-0.005,-0.070
3329,-0.025,-0.075
3330,-0.060,-0.070
3331,-0.030,-0.120
3332,-0.015,-0.095
3333,-0.010,-0.105
3334,-0.030,-0.095
3335,-0.065,-0.085
3336,-0.070,-0.045
3337,-0.050,-0.115
3338,-0.040,-0.100
3339,-0.050,-0.055
3340,-0.065,-0.105
3341,-0.050,-0.175
3342,-0.010,-0.160
3343,-0.015,-0.135
3344,-0.055,-0.145
3345,-0.045,-0.115
3346,-0.050,-0.080
3347,-0.040,-0.100
3348,-0.030,-0.110
3349,-0.080,-0.120
3350,-0.065,-0.110
3351,-0.020,-0.140
3352,-0.005,-0.150
3353,-0.035,-0.130
3354,-0.080,-0.120
3355,-0.075,-0.145
3356,-0.030,-0.110
3357,-0.045,-0.110
3358,-0.025,-0.070
3359,-0.015,-0.060
3360,0.005,-0.060
3361,0.065,-0.020
3362,0.070,0.010
3363,0.050,0.040
3364,0.020,0.040
3365,0.000,0.025
3366,-0.010,-0.020
3367,-0.015,-0.070
3368,-0.005,-0.105
3369,-0.020,-0.145
3370,-0.045,-0.155
3371,-0.015,-0.135
3372,-0.025,-0.110
3373,-0.080,-0.225
3374,-0.060,-0.210
3375,-0.025,-0.190
3376,-0.010,-0.155
3377,-0.030,-0.150
3378,0.060,-0.170
3379,0.320,-0.005
3380,0.635,0.430
3381,0.285,0.865
3382,-0.785,0.470
3383,-1.425,-0.085
3384,-1.645,-0.060
3385,-1.025,-0.035
3386,-0.515,-0.125
3387,-0.210,-0.170
3388,-0.090,-0.210
3389,-0.020,-0.205
3390,-0.005,-0.195
3391,0.025,-0.140
3392,0.010,-0.200
3393,0.000,-0.245
3394,0.020,-0.215
3395,0.050,-0.195
3396,0.075,-0.225
3397,0.050,-0.220
3398,0.055,-0.215
3399,0.070,-0.180
3400,0.100,-0.175
3401,0.090,-0.165
3402,0.105,-0.180
3403,0.085,-0.175
3404,0.110,-0.120
3405,0.125,-0.085
3406,0.135,-0.140
3407,0.120,-0.145
3408,0.125,-0.115
3409,0.155,-0.085
3410,0.170,-0.030
3411,0.165,-0.020
3412,0.155,-0.005
3413,0.150,-0.010
3414,0.175,0.055
3415,0.175,0.050
3416,0.120,0.040
3417,0.110,0.050
3418,0.145,0.070
3419,0.125,0.080
3420,0.140,0.075
3421,0.130,0.075
3422,0.125,0.065
3423,0.165,0.060
3424,0.185,0.045
3425,0.185,-0.030
3426,0.170,-0.095
3427,0.140,-0.115
3428,0.150,-0.105
3429,0.155,-0.135
3430,0.115,-0.165
3431,0.090,-0.170
3432,0.095,-0.175
3433,0.080,-0.160
3434,0.105,-0.190
3435,0.120,-0.200
3436,0.110,-0.165
3437,0.095,-0.205
3438,0.115,-0.205
3439,0.125,-0.185
3440,0.130,-0.180
3441,0.120,-0.145
3442,0.110,-0.110
3443,0.100,-0.135
3444,0.130,-0.175
3445,0.095,-0.205
3446,0.090,-0.205
3447,0.075,-0.170
3448,0.100,-0.180
3449,0.100,-0.165
3450,0.070,-0.160
3451,0.060,-0.150
3452,0.030,-0.175
3453,0.050,-0.240
3454,0.075,-0.235
3455,0.060,-0.210
3456,0.025,-0.220
3457,0.025,-0.225
3458,0.040,-0.215
3459,0.045,-0.235
3460,0.000,-0.235
3461,0.010,-0.210
3462,0.010,-0.190
3463,0.065,-0.215
3464,0.035,-0.235
3465,0.010,-0.255
3466,-0.005,-0.235
3467,0.005,-0.235
3468,0.035,-0.205
3469,0.035,-0.230
3470,0.010,-0.210
3471,0.005,-0.220
3472,0.020,-0.220
3473,0.030,-0.225
3474,0.015,-0.235
3475,0.015,-0.235
3476,0.010,-0.230
3477,0.035,-0.210
3478,0.050,-0.175
3479,0.050,-0.230
3480,0.040,-0.240
3481,0.025,-0.155
3482,0.005,-0.195
3483,0.050,-0.285
3484,0.080,-0.235
3485,0.055,-0.170
3486,0.080,-0.140
3487,0.120,-0.185
3488,0.155,-0.145
3489,0.145,-0.080
3490,0.115,-0.060
3491,0.120,-0.030
3492,0.120,-0.065
3493,0.050,-0.095
3494,0.020,-0.110
3495,0.060,-0.205
3496,0.075,-0.220
3497,0.055,-0.225
3498,0.030,-0.290
3499,0.010,-0.245
3500,-0.020,-0.195
3501,-0.010,-0.265
3502,0.025,-0.265
3503,0.055,-0.250
3504,0.035,-0.250
3505,0.085,-0.255
3506,0.325,-0.150
3507,0.675,0.250
3508,0.510,0.720
3509,-0.575,0.580
3510,-1.345,-0.005
3511,-1.700,-0.140
3512,-1.265,-0.035
3513,-0.650,-0.115
3514,-0.230,-0.215
3515,-0.035,-0.225
3516,0.000,-0.235
3517,0.070,-0.260
3518,0.095,-0.260
3519,0.075,-0.245
3520,0.095,-0.230
3521,0.095,-0.240
3522,0.130,-0.230
3523,0.140,-0.235
3524,0.115,-0.225
3525,0.105,-0.220
3526,0.145,-0.210
3527,0.170,-0.225
3528,0.180,-0.225
3529,0.185,-0.205
3530,0.165,-0.180
3531,0.175,-0.190
3532,0.195,-0.190
3533,0.205,-0.165
3534,0.190,-0.160
3535,0.190,-0.135
3536,0.205,-0.090
3537,0.230,-0.075
3538,0.235,-0.080
3539,0.190,-0.040
3540,0.200,-0.030
3541,0.220,0.000
3542,0.245,0.020
3543,0.205,0.020
3544,0.180,0.005
3545,0.180,0.050
3546,0.200,0.070
3547,0.210,0.100
3548,0.190,0.100
3549,0.155,0.075
3550,0.185,0.045
3551,0.220,0.030
3552,0.245,-0.005
3553,0.230,-0.030
3554,0.215,-0.070
3555,0.210,-0.090
3556,0.245,-0.075
3557,0.230,-0.160
3558,0.180,-0.200
3559,0.135,-0.170
3560,0.090,-0.180
3561,0.115,-0.175
3562,0.135,-0.195
3563,0.075,-0.195
3564,0.085,-0.225
3565,0.115,-0.200
3566,0.130,-0.205
3567,0.140,-0.205
3568,0.135,-0.180
3569,0.105,-0.190
3570,0.115,-0.165
3571,0.135,-0.165
3572,0.155,-0.140
3573,0.110,-0.190
3574,0.095,-0.180
3575,0.075,-0.150
3576,0.110,-0.190
3577,0.090,-0.220
3578,0.055,-0.245
3579,0.055,-0.235
3580,0.070,-0.195
3581,0.075,-0.215
3582,0.070,-0.245
3583,0.030,-0.210
3584,0.035,-0.190
3585,0.055,-0.245
3586,0.070,-0.235
3587,0.055,-0.265
3588,0.005,-0.260
3589,0.005,-0.250
3590,0.015,-0.210
3591,0.040,-0.240
3592,0.030,-0.250
3593,0.010,-0.260
3594,-0.015,-0.265
3595,-0.005,-0.250
3596,0.015,-0.245
3597,0.020,-0.250
3598,0.000,-0.250
3599,0.000,-0.230
3600,0.000,-0.250
3601,0.035,-0.265
3602,0.010,-0.245
3603,0.000,-0.220
3604,0.015,-0.265
3605,0.050,-0.265
3606,0.005,-0.260
3607,0.015,-0.285
3608,0.000,-0.250
3609,-0.005,-0.235
3610,0.015,-0.260
3611,0.045,-0.255
3612,0.030,-0.205
3613,0.020,-0.160
3614,0.050,-0.145
3615,0.100,-0.140
3616,0.135,-0.125
3617,0.125,-0.040
3618,0.085,-0.050
3619,0.070,-0.105
3620,0.070,-0.135
3621,0.020,-0.130
3622,0.035,-0.180
3623,0.030,-0.250
3624,0.005,-0.270
3625,0.025,-0.280
3626,0.010,-0.285
3627,0.000,-0.300
3628,-0.015,-0.300
3629,0.000,-0.255
3630,-0.010,-0.265
3631,0.000,-0.255
3632,0.000,-0.205
3633,0.100,-0.295
3634,0.385,-0.185
3635,0.725,0.240
3636,0.385,0.650
3637,-0.710,0.465
3638,-1.430,-0.085
3639,-1.805,-0.170
3640,-1.335,-0.075
3641,-0.655,-0.175
3642,-0.290,-0.230
3643,-0.110,-0.290
3644,-0.025,-0.270
3645,0.015,-0.275
3646,0.025,-0.280
3647,0.045,-0.300
3648,0.050,-0.290
3649,0.060,-0.280
3650,0.105,-0.285
3651,0.105,-0.250
3652,0.075,-0.295
3653,0.110,-0.315
3654,0.155,-0.255
3655,0.150,-0.230
3656,0.200,-0.250
3657,0.190,-0.230
3658,0.125,-0.255
3659,0.155,-0.225
3660,0.175,-0.205
3661,0.170,-0.200
3662,0.165,-0.185
3663,0.160,-0.140
3664,0.195,-0.110
3665,0.210,-0.110
3666,0.205,-0.110
3667,0.185,-0.080
3668,0.170,-0.035
3669,0.185,-0.020
3670,0.210,-0.020
3671,0.195,-0.020
3672,0.170,-0.010
3673,0.165,0.065
3674,0.180,0.085
3675,0.145,0.065
3676,0.210,0.070
3677,0.185,0.075
3678,0.145,0.065
3679,0.170,0.060
3680,0.200,0.060
3681,0.215,-0.020
3682,0.250,-0.090
3683,0.190,-0.080
3684,0.180,-0.060
3685,0.170,-0.100
3686,0.170,-0.095
3687,0.170,-0.140
3688,0.120,-0.155
3689,0.050,-0.145
3690,0.095,-0.145
3691,0.110,-0.140
3692,0.080,-0.175
3693,0.115,-0.175
3694,0.105,-0.170
3695,0.145,-0.145
3696,0.125,-0.150
3697,0.110,-0.155
3698,0.100,-0.140
3699,0.120,-0.125
3700,0.165,-0.105
3701,0.190,-0.155
3702,0.165,-0.145
3703,0.085,-0.130
3704,0.040,-0.090
3705,0.075,-0.135
3706,0.085,-0.175
3707,0.045,-0.185
3708,0.030,-0.190
3709,0.045,-0.155
3710,0.060,-0.150
3711,0.050,-0.180
3712,0.010,-0.185
3713,0.000,-0.195
3714,0.055,-0.170
3715,0.040,-0.175
3716,0.015,-0.195
3717,-0.005,-0.150
3718,0.000,-0.190
3719,0.000,-0.180
3720,0.010,-0.185
3721,0.000,-0.205
3722,-0.020,-0.160
3723,-0.010,-0.160
3724,0.005,-0.205
3725,0.045,-0.185
3726,0.030,-0.145
3727,-0.010,-0.200
3728,0.010,-0.240
3729,0.015,-0.210
3730,0.035,-0.195
3731,0.035,-0.200
3732,0.000,-0.210
3733,-0.010,-0.200
3734,0.015,-0.170
3735,0.020,-0.195
3736,0.045,-0.190
3737,0.010,-0.175
3738,-0.005,-0.195
3739,0.005,-0.200
3740,0.020,-0.170
3741,0.010,-0.145
3742,0.025,-0.145
3743,0.065,-0.140
3744,0.120,-0.110
3745,0.140,-0.070
3746,0.120,-0.045
3747,0.095,-0.015
3748,0.080,0.000
3749,0.040,-0.030
3750,0.000,-0.070
3751,0.000,-0.125
3752,0.005,-0.165
3753,0.025,-0.185
3754,-0.005,-0.230
3755,0.000,-0.230
3756,-0.005,-0.240
3757,0.000,-0.255
3758,-0.010,-0.265
3759,-0.010,-0.205
3760,0.045,-0.195
3761,0.010,-0.245
3762,0.020,-0.270
3763,0.220,-0.205
3764,0.500,0.045
3765,0.700,0.490
3766,-0.135,0.685
3767,-1.110,0.230
3768,-1.630,-0.150
3769,-1.670,-0.020
3770,-0.995,-0.040
3771,-0.515,-0.175
3772,-0.215,-0.225
3773,-0.080,-0.225
3774,-0.005,-0.230
3775,0.060,-0.220
3776,0.070,-0.240
3777,0.000,-0.245
3778,-0.005,-0.225
3779,0.050,-0.210
3780,0.070,-0.210
3781,0.070,-0.200
3782,0.075,-0.215
3783,0.100,-0.170
3784,0.110,-0.160
3785,0.150,-0.170
3786,0.130,-0.200
3787,0.125,-0.215
3788,0.140,-0.185
3789,0.165,-0.155
3790,0.155,-0.145
3791,0.150,-0.140
3792,0.140,-0.130
3793,0.140,-0.070
3794,0.185,-0.040
3795,0.160,-0.025
3796,0.190,-0.035
3797,0.140,-0.005
3798,0.130,0.010
3799,0.145,0.045
3800,0.180,0.050
3801,0.160,0.055
3802,0.125,0.090
3803,0.110,0.120
3804,0.140,0.135
3805,0.140,0.150
3806,0.085,0.155
3807,0.065,0.170
3808,0.080,0.090
3809,0.160,0.060
3810,0.130,0.050
3811,0.140,0.030
3812,0.110,-0.025
3813,0.120,-0.050
3814,0.145,-0.075
3815,0.135,-0.070
3816,0.070,-0.090
3817,0.015,-0.095
3818,0.010,-0.095
3819,0.010,-0.105
3820,0.050,-0.125
3821,0.050,-0.160
3822,0.005,-0.165
3823,0.010,-0.135
3824,0.060,-0.130
3825,0.095,-0.125
3826,0.080,-0.140
3827,0.010,-0.125
3828,0.020,-0.120
3829,0.035,-0.090
3830,0.050,-0.105
3831,0.045,-0.115
3832,0.035,-0.130
3833,0.025,-0.120
3834,0.010,-0.120
3835,0.015,-0.115
3836,0.015,-0.135
3837,0.015,-0.145
3838,-0.005,-0.140
3839,-0.015,-0.185
3840,-0.010,-0.180
3841,-0.005,-0.170
3842,-0.065,-0.180
3843,-0.055,-0.160
3844,-0.030,-0.155
3845,-0.030,-0.185
3846,-0.025,-0.185
3847,-0.080,-0.190
3848,-0.080,-0.160
3849,-0.055,-0.145
3850,-0.050,-0.140
3851,-0.060,-0.185
3852,-0.050,-0.195
3853,-0.075,-0.170
3854,-0.035,-0.165
3855,-0.020,-0.160
3856,-0.050,-0.170
3857,-0.075,-0.195
3858,-0.060,-0.170
3859,-0.045,-0.185
3860,-0.055,-0.205
3861,-0.065,-0.175
3862,-0.075,-0.170
3863,-0.075,-0.180
3864,-0.050,-0.195
3865,-0.035,-0.150
3866,-0.065,-0.200
3867,-0.075,-0.225
3868,-0.045,-0.185
3869,-0.040,-0.135
3870,0.000,-0.115
3871,0.000,-0.105
3872,0.020,-0.150
3873,0.040,-0.090
3874,0.070,-0.010
3875,0.075,0.010
3876,0.015,-0.020
3877,-0.020,-0.085
3878,-0.070,-0.060
3879,-0.055,-0.095
3880,-0.005,-0.205
3881,-0.035,-0.230
3882,-0.070,-0.225
3883,-0.080,-0.235
3884,-0.050,-0.240
3885,-0.055,-0.240
3886,-0.040,-0.235
3887,-0.055,-0.225
3888,-0.065,-0.200
3889,-0.020,-0.205
3890,0.045,-0.230
3891,0.310,-0.085
3892,0.620,0.340
3893,0.340,0.760
3894,-0.785,0.425
3895,-1.535,-0.170
3896,-1.770,-0.160
3897,-1.180,-0.095
3898,-0.605,-0.145
3899,-0.230,-0.175
3900,-0.070,-0.225
3901,-0.065,-0.215
3902,-0.050,-0.220
3903,-0.005,-0.285
3904,0.030,-0.280
3905,0.030,-0.235
3906,0.010,-0.255
3907,0.015,-0.235
3908,0.100,-0.240
3909,0.085,-0.225
3910,0.025,-0.235
3911,0.040,-0.225
3912,0.070,-0.150
3913,0.100,-0.185
3914,0.075,-0.230
3915,0.045,-0.215
3916,0.060,-0.200
3917,0.105,-0.145
3918,0.140,-0.150
3919,0.120,-0.120
3920,0.080,-0.120
3921,0.100,-0.085
3922,0.100,-0.040
3923,0.115,-0.020
3924,0.095,-0.020
3925,0.110,-0.005
3926,0.070,0.045
3927,0.095,0.060
3928,0.115,0.030
3929,0.070,0.030
3930,0.075,0.060
3931,0.070,0.095
3932,0.100,0.120
3933,0.090,0.095
3934,0.070,0.055
3935,0.095,0.030
3936,0.110,0.015
3937,0.160,-0.015
3938,0.155,-0.050
3939,0.105,-0.060
3940,0.085,-0.105
3941,0.075,-0.135
3942,0.110,-0.115
3943,0.070,-0.155
3944,0.020,-0.195
3945,0.070,-0.185
3946,0.060,-0.170
3947,0.065,-0.180
3948,0.070,-0.190
3949,0.065,-0.200
3950,0.075,-0.145
3951,0.070,-0.115
3952,0.095,-0.130
3953,0.085,-0.110
3954,0.085,-0.120
3955,0.075,-0.135
3956,0.075,-0.115
3957,0.085,-0.130
3958,0.040,-0.120
3959,0.050,-0.160
3960,0.060,-0.155
3961,0.080,-0.160
3962,0.060,-0.165
3963,0.020,-0.155
3964,0.005,-0.160
3965,0.030,-0.155
3966,0.075,-0.155
3967,0.045,-0.135
3968,-0.015,-0.130
3969,-0.015,-0.170
3970,0.015,-0.205
3971,0.045,-0.205
3972,0.020,-0.220
3973,0.000,-0.225
3974,0.000,-0.195
3975,0.005,-0.185
3976,0.005,-0.210
3977,0.000,-0.210
3978,-0.015,-0.205
3979,-0.015,-0.185
3980,0.020,-0.180
3981,0.000,-0.210
3982,0.000,-0.205
3983,-0.025,-0.210
3984,0.010,-0.190
3985,0.020,-0.195
3986,0.025,-0.205
3987,-0.010,-0.200
3988,0.000,-0.165
3989,0.015,-0.175
3990,0.010,-0.190
3991,0.020,-0.220
3992,-0.005,-0.220
3993,0.000,-0.210
3994,0.000,-0.190
3995,0.015,-0.165
3996,0.030,-0.165
3997,0.075,-0.160
3998,0.085,-0.110
3999,0.105,-0.055
4000,0.145,-0.015
4001,0.125,-0.015
4002,0.060,-0.040
4003,0.030,-0.045
4004,0.005,-0.055
4005,0.035,-0.110
4006,0.055,-0.205
4007,0.010,-0.220
4008,-0.005,-0.170
4009,-0.005,-0.195
4010,0.005,-0.255
4011,0.000,-0.255
4012,0.000,-0.265
4013,0.020,-0.215
4014,0.015,-0.215
4015,0.080,-0.230
4016,0.235,-0.190
4017,0.495,0.125
4018,0.640,0.605
4019,-0.245,0.720
4020,-1.170,0.170
4021,-1.650,-0.165
4022,-1.535,-0.030
4023,-0.815,-0.060
4024,-0.350,-0.175
4025,-0.110,-0.240
4026,-0.050,-0.245
4027,-0.005,-0.250
4028,0.005,-0.205
4029,0.035,-0.220
4030,0.040,-0.215
4031,0.050,-0.235
4032,0.065,-0.260
4033,0.095,-0.250
4034,0.095,-0.240
4035,0.115,-0.255
4036,0.105,-0.215
4037,0.125,-0.200
4038,0.130,-0.200
4039,0.140,-0.215
4040,0.120,-0.190
4041,0.170,-0.135
4042,0.185,-0.150
4043,0.190,-0.145
4044,0.220,-0.125
4045,0.200,-0.105
4046,0.190,-0.110
4047,0.220,-0.060
4048,0.220,-0.060
4049,0.225,-0.015
4050,0.190,0.000
4051,0.175,0.040
4052,0.210,0.060
4053,0.200,0.075
4054,0.185,0.060
4055,0.145,0.060
4056,0.190,0.100
4057,0.205,0.110
4058,0.195,0.125
4059,0.180,0.100
4060,0.175,0.095
4061,0.200,0.060
4062,0.240,0.025
4063,0.255,0.000
4064,0.190,-0.020
4065,0.165,-0.060
4066,0.165,-0.100
4067,0.155,-0.110
4068,0.130,-0.125
4069,0.105,-0.130
4070,0.070,-0.125
4071,0.030,-0.130
4072,0.050,-0.150
4073,0.105,-0.140
4074,0.115,-0.160
4075,0.085,-0.175
4076,0.105,-0.150
4077,0.130,-0.125
4078,0.145,-0.070
4079,0.125,-0.120
4080,0.060,-0.165
4081,0.085,-0.100
4082,0.115,-0.135
4083,0.135,-0.160
4084,0.095,-0.160
4085,0.095,-0.135
4086,0.090,-0.095
4087,0.070,-0.125
4088,0.085,-0.135
4089,0.070,-0.130
4090,0.050,-0.190
4091,0.065,-0.165
4092,0.075,-0.165
4093,0.045,-0.180
4094,0.045,-0.155
4095,0.035,-0.170
4096,0.060,-0.140
4097,0.080,-0.150
4098,0.065,-0.130
4099,0.030,-0.210
4100,0.030,-0.180
4101,0.040,-0.200
4102,0.080,-0.195
4103,0.070,-0.210
4104,0.030,-0.190
4105,0.005,-0.200
4106,0.045,-0.195
4107,0.055,-0.180
4108,0.065,-0.135
4109,0.030,-0.160
4110,0.055,-0.165
4111,0.080,-0.175
4112,0.065,-0.180
4113,0.035,-0.215
4114,0.040,-0.210
4115,0.030,-0.170
4116,0.025,-0.170
4117,0.070,-0.180
4118,0.050,-0.185
4119,0.050,-0.190
4120,0.000,-0.160
4121,0.055,-0.180
4122,0.060,-0.100
4123,0.075,-0.095
4124,0.140,-0.110
4125,0.150,-0.085
4126,0.155,0.015
4127,0.185,0.090
4128,0.175,0.110
4129,0.180,0.070
4130,0.125,0.065
4131,0.035,0.065
4132,0.065,0.075
4133,0.090,0.010
4134,0.110,-0.065
4135,0.025,-0.110
4136,0.015,-0.070
4137,0.040,-0.065
4138,0.055,-0.105
4139,0.040,-0.130
4140,0.035,-0.075
4141,0.065,-0.040
4142,0.055,-0.040
4143,0.115,-0.045
4144,0.270,-0.030
4145,0.550,0.160
4146,0.805,0.605
4147,0.060,0.875
4148,-0.935,0.515
4149,-1.475,0.065
4150,-1.715,0.115
4151,-1.065,0.120
4152,-0.500,0.050
4153,-0.120,-0.030
4154,0.010,-0.045
4155,0.020,-0.070
4156,0.075,-0.045
4157,0.115,-0.025
4158,0.190,-0.055
4159,0.150,-0.070
4160,0.120,-0.095
4161,0.120,-0.055
4162,0.160,-0.010
4163,0.200,-0.050
4164,0.215,-0.060
4165,0.165,-0.040
4166,0.200,-0.030
4167,0.240,-0.015
4168,0.315,-0.005
4169,0.240,0.000
4170,0.225,0.000
4171,0.260,0.000
4172,0.260,0.040
4173,0.285,0.070
4174,0.305,0.060
4175,0.290,0.070
4176,0.290,0.100
4177,0.300,0.125
4178,0.285,0.165
4179,0.300,0.150
4180,0.250,0.180
4181,0.280,0.220
4182,0.305,0.235
4183,0.270,0.255
4184,0.250,0.250
4185,0.225,0.285
4186,0.215,0.285
4187,0.210,0.275
4188,0.255,0.215
4189,0.255,0.230
4190,0.250,0.220
4191,0.245,0.135
4192,0.280,0.135
4193,0.290,0.120
4194,0.280,0.055
4195,0.240,0.065
4196,0.215,0.075
4197,0.205,0.030
4198,0.225,0.005
4199,0.205,0.070
4200,0.140,0.075
4201,0.125,-0.095
4202,0.210,-0.070
4203,0.210,-0.040
4204,0.200,0.000
4205,0.185,-0.020
4206,0.215,-0.035
4207,0.230,0.015
4208,0.200,0.080
4209,0.205,-0.070
4210,0.205,-0.090
4211,0.195,-0.035
4212,0.200,0.030
4213,0.225,0.045
4214,0.245,-0.065
4215,0.190,-0.040
4216,0.165,-0.050
4217,0.160,-0.025
4218,0.165,-0.050
4219,0.160,-0.070
4220,0.135,-0.040
4221,0.155,-0.075
4222,0.160,-0.060
4223,0.140,-0.055
4224,0.130,-0.105
4225,0.100,-0.140
4226,0.135,-0.075
4227,0.165,-0.065
4228,0.130,-0.095
4229,0.110,-0.100
4230,0.085,-0.100
4231,0.090,-0.090
4232,0.110,-0.095
4233,0.125,-0.135
4234,0.100,-0.135
4235,0.090,-0.110
4236,0.085,-0.140
4237,0.115,-0.165
4238,0.120,-0.165
4239,0.075,-0.165
4240,0.080,-0.175
4241,0.085,-0.145
4242,0.100,-0.150
4243,0.120,-0.160
4244,0.105,-0.200
4245,0.085,-0.175
4246,0.085,-0.140
4247,0.115,-0.065
4248,0.085,-0.065
4249,0.075,-0.255
4250,0.110,-0.210
4251,0.090,-0.145
4252,0.150,-0.130
4253,0.175,-0.115
4254,0.170,-0.085
4255,0.145,0.040
4256,0.150,0.125
4257,0.145,-0.045
4258,0.180,-0.090
4259,0.110,-0.070
4260,0.045,-0.045
4261,0.050,-0.150
4262,0.110,-0.210
4263,0.100,-0.240
4264,0.050,-0.230
4265,0.040,-0.200
4266,0.010,-0.225
4267,0.050,-0.230
4268,0.055,-0.200
4269,0.055,-0.190
4270,0.045,-0.240
4271,0.060,-0.220
4272,0.150,-0.215
4273,0.435,-0.090
4274,0.695,0.235
4275,0.475,0.660
4276,-0.615,0.530
4277,-1.340,-0.030
4278,-1.650,-0.165
4279,-1.270,-0.025
4280,-0.660,-0.100
4281,-0.245,-0.185
4282,-0.020,-0.180
4283,0.065,-0.220
4284,0.065,-0.235
4285,0.060,-0.190
4286,0.070,-0.225
4287,0.125,-0.215
4288,0.135,-0.200
4289,0.120,-0.235
4290,0.115,-0.210
4291,0.125,-0.190
4292,0.155,-0.195
4293,0.135,-0.240
4294,0.155,-0.245
4295,0.140,-0.215
4296,0.135,-0.185
4297,0.160,-0.155
4298,0.180,-0.155
4299,0.180,-0.135
4300,0.175,-0.130
4301,0.170,-0.085
4302,0.215,-0.025
4303,0.205,-0.040
4304,0.205,-0.090
4305,0.175,-0.060
4306,0.160,0.000
4307,0.215,0.040
4308,0.210,0.060
4309,0.150,0.060
4310,0.165,0.090
4311,0.185,0.110
4312,0.170,0.130
4313,0.165,0.140
4314,0.145,0.130
4315,0.145,0.135
4316,0.140,0.135
4317,0.180,0.125
4318,0.200,0.105
4319,0.180,0.020
4320,0.150,-0.015
4321,0.185,-0.035
4322,0.185,-0.040
4323,0.165,-0.090
4324,0.170,-0.090
4325,0.115,-0.150
4326,0.090,-0.100
4327,0.115,-0.085
4328,0.090,-0.130
4329,0.080,-0.230
4330,0.065,-0.210
4331,0.105,-0.170
4332,0.105,-0.170
4333,0.130,-0.195
4334,0.090,-0.170
4335,0.110,-0.175
4336,0.110,-0.125
4337,0.120,-0.135
4338,0.120,-0.150
4339,0.080,-0.175
4340,0.095,-0.160
4341,0.090,-0.165
4342,0.105,-0.160
4343,0.095,-0.165
4344,0.055,-0.180
4345,0.045,-0.190
4346,0.065,-0.180
4347,0.045,-0.220
4348,0.065,-0.190
4349,0.060,-0.150
4350,0.030,-0.190
4351,0.025,-0.200
4352,0.045,-0.225
4353,0.030,-0.220
4354,0.035,-0.225
4355,0.000,-0.195
4356,0.035,-0.220
4357,0.040,-0.240
4358,0.030,-0.230
4359,-0.015,-0.235
4360,-0.005,-0.235
4361,0.000,-0.245
4362,0.020,-0.250
4363,0.000,-0.255
4364,-0.010,-0.230
4365,-0.015,-0.230
4366,0.010,-0.225
4367,0.020,-0.275
4368,0.015,-0.270
4369,-0.025,-0.240
4370,-0.040,-0.250
4371,-0.015,-0.290
4372,0.000,-0.265
4373,-0.015,-0.265
4374,-0.030,-0.280
4375,-0.025,-0.265
4376,0.000,-0.255
4377,0.000,-0.210
4378,0.015,-0.225
4379,0.035,-0.205
4380,0.070,-0.185
4381,0.095,-0.125
4382,0.120,-0.115
4383,0.130,-0.115
4384,0.090,-0.100
4385,0.070,-0.115
4386,0.035,-0.135
4387,0.005,-0.190
4388,0.010,-0.280
4389,0.010,-0.315
4390,0.000,-0.320
4391,0.000,-0.310
4392,-0.005,-0.320
4393,0.000,-0.330
4394,-0.030,-0.320
4395,-0.030,-0.285
4396,0.000,-0.270
4397,0.010,-0.325
4398,0.030,-0.330
4399,0.245,-0.240
4400,0.515,0.070
4401,0.685,0.585
4402,-0.260,0.625
4403,-1.175,-0.045
4404,-1.660,-0.345
4405,-1.430,-0.190
4406,-0.765,-0.250
4407,-0.360,-0.320
4408,-0.115,-0.360
4409,-0.040,-0.390
4410,0.000,-0.380
4411,0.040,-0.375
4412,0.050,-0.360
4413,0.040,-0.375
4414,0.040,-0.410
4415,0.095,-0.390
4416,0.085,-0.370
4417,0.080,-0.395
4418,0.055,-0.335
4419,0.060,-0.355
4420,0.110,-0.385
4421,0.115,-0.360
4422,0.105,-0.365
4423,0.080,-0.340
4424,0.085,-0.325
4425,0.125,-0.320
4426,0.155,-0.280
4427,0.125,-0.270
4428,0.125,-0.250
4429,0.120,-0.215
4430,0.170,-0.190
4431,0.150,-0.185
4432,0.140,-0.160
4433,0.125,-0.125
4434,0.150,-0.070
4435,0.145,-0.055
4436,0.150,-0.065
4437,0.110,-0.040
4438,0.080,-0.025
4439,0.085,0.000
4440,0.130,0.005
4441,0.105,0.000
4442,0.090,-0.015
4443,0.100,-0.045
4444,0.140,-0.070
4445,0.165,-0.110
4446,0.190,-0.160
4447,0.140,-0.195
4448,0.115,-0.210
4449,0.090,-0.235
4450,0.115,-0.235
4451,0.090,-0.255
4452,0.045,-0.315
4453,0.005,-0.325
4454,0.020,-0.295
4455,0.045,-0.300
4456,0.020,-0.315
4457,0.030,-0.305
4458,0.020,-0.305
4459,0.030,-0.290
4460,0.060,-0.285
4461,0.065,-0.265
4462,0.030,-0.285
4463,0.045,-0.275
4464,0.065,-0.255
4465,0.070,-0.265
4466,0.040,-0.275
4467,0.005,-0.285
4468,0.000,-0.290
4469,0.030,-0.280
4470,0.025,-0.285
4471,0.000,-0.300
4472,-0.020,-0.310
4473,-0.010,-0.305
4474,0.000,-0.310
4475,0.010,-0.320
4476,-0.010,-0.340
4477,-0.025,-0.325
4478,-0.005,-0.305
4479,-0.010,-0.300
4480,-0.025,-0.365
4481,-0.005,-0.350
4482,-0.020,-0.320
4483,-0.015,-0.315
4484,-0.010,-0.315
4485,-0.015,-0.350
4486,-0.060,-0.365
4487,-0.040,-0.345
4488,-0.035,-0.325
4489,-0.020,-0.355
4490,-0.045,-0.360
4491,-0.065,-0.380
4492,-0.060,-0.365
4493,-0.060,-0.345
4494,-0.015,-0.365
4495,-0.055,-0.345
4496,-0.075,-0.355
4497,-0.065,-0.365
4498,-0.040,-0.355
4499,-0.050,-0.345
4500,-0.055,-0.360
4501,-0.090,-0.375
4502,-0.070,-0.335
4503,-0.065,-0.355
4504,-0.050,-0.350
4505,-0.025,-0.305
4506,0.005,-0.290
4507,0.030,-0.260
4508,0.060,-0.225
4509,0.060,-0.175
4510,0.020,-0.180
4511,0.000,-0.200
4512,-0.020,-0.225
4513,-0.040,-0.240
4514,-0.045,-0.320
4515,-0.045,-0.360
4516,-0.065,-0.380
4517,-0.070,-0.385
4518,-0.080,-0.395
4519,-0.090,-0.425
4520,-0.085,-0.405
4521,-0.100,-0.375
4522,-0.075,-0.375
4523,-0.070,-0.370
4524,-0.055,-0.395
4525,0.140,-0.340
4526,0.450,0.000
4527,0.585,0.545
4528,-0.455,0.565
4529,-1.415,-0.045
4530,-1.870,-0.365
4531,-1.645,-0.190
4532,-0.910,-0.260
4533,-0.445,-0.355
4534,-0.210,-0.410
4535,-0.135,-0.410
4536,-0.075,-0.405
4537,-0.015,-0.395
4538,-0.010,-0.415
4539,-0.045,-0.415
4540,-0.030,-0.400
4541,0.000,-0.385
4542,0.000,-0.380
4543,0.025,-0.415
4544,0.015,-0.410
4545,0.020,-0.385
4546,0.020,-0.385
4547,0.060,-0.385
4548,0.055,-0.365
4549,0.030,-0.345
4550,0.060,-0.330
4551,0.085,-0.310
4552,0.100,-0.310
4553,0.075,-0.270
4554,0.080,-0.255
4555,0.095,-0.235
4556,0.105,-0.180
4557,0.105,-0.160
4558,0.090,-0.150
4559,0.075,-0.120
4560,0.080,-0.070
4561,0.100,-0.050
4562,0.110,-0.030
4563,0.055,-0.015
4564,0.055,0.000
4565,0.080,0.025
4566,0.085,0.020
4567,0.095,0.030
4568,0.070,0.020
4569,0.070,0.000
4570,0.125,-0.055
4571,0.145,-0.100
4572,0.135,-0.120
4573,0.125,-0.145
4574,0.095,-0.185
4575,0.090,-0.185
4576,0.070,-0.210
4577,0.040,-0.225
4578,0.005,-0.245
4579,-0.005,-0.255
4580,0.010,-0.250
4581,0.000,-0.255
4582,0.000,-0.255
4583,-0.005,-0.265
4584,-0.005,-0.255
4585,0.030,-0.250
4586,0.010,-0.245
4587,0.020,-0.265
4588,-0.015,-0.255
4589,-0.005,-0.245
4590,0.020,-0.220
4591,0.025,-0.230
4592,-0.010,-0.230
4593,-0.010,-0.235
4594,-0.030,-0.220
4595,-0.035,-0.230
4596,-0.015,-0.260
4597,-0.040,-0.255
4598,-0.065,-0.250
4599,-0.065,-0.250
4600,-0.045,-0.255
4601,-0.055,-0.265
4602,-0.090,-0.285
4603,-0.090,-0.250
4604,-0.080,-0.260
4605,-0.080,-0.270
4606,-0.070,-0.265
4607,-0.080,-0.275
4608,-0.095,-0.320
4609,-0.080,-0.305
4610,-0.080,-0.280
4611,-0.090,-0.290
4612,-0.105,-0.305
4613,-0.115,-0.300
4614,-0.085,-0.295
4615,-0.100,-0.285
4616,-0.115,-0.300
4617,-0.135,-0.325
4618,-0.135,-0.315
4619,-0.140,-0.280
4620,-0.125,-0.280
4621,-0.105,-0.300
4622,-0.145,-0.320
4623,-0.160,-0.310
4624,-0.140,-0.285
4625,-0.135,-0.285
4626,-0.135,-0.320
4627,-0.155,-0.295
4628,-0.185,-0.290
4629,-0.160,-0.240
4630,-0.095,-0.215
4631,-0.090,-0.220
4632,-0.070,-0.215
4633,-0.085,-0.190
4634,-0.035,-0.135
4635,-0.040,-0.090
4636,-0.080,-0.155
4637,-0.130,-0.200
4638,-0.180,-0.175
4639,-0.155,-0.225
4640,-0.105,-0.290
4641,-0.155,-0.330
4642,-0.185,-0.350
4643,-0.185,-0.350
4644,-0.180,-0.360
4645,-0.155,-0.355
4646,-0.160,-0.365
4647,-0.190,-0.360
4648,-0.165,-0.330
4649,-0.140,-0.335
4650,-0.080,-0.345
4651,0.180,-0.230
4652,0.445,0.150
4653,0.350,0.630
4654,-0.700,0.525
4655,-1.480,-0.105
4656,-1.880,-0.380
4657,-1.605,-0.220
4658,-0.955,-0.285
4659,-0.505,-0.340
4660,-0.280,-0.365
4661,-0.210,-0.385
4662,-0.180,-0.385
4663,-0.165,-0.355
4664,-0.125,-0.365
4665,-0.110,-0.370
4666,-0.110,-0.390
4667,-0.105,-0.395
4668,-0.120,-0.370
4669,-0.085,-0.370
4670,-0.060,-0.385
4671,-0.075,-0.395
4672,-0.090,-0.375
4673,-0.080,-0.360
4674,-0.070,-0.350
4675,-0.035,-0.330
4676,-0.045,-0.340
4677,-0.050,-0.330
4678,-0.060,-0.270
4679,-0.020,-0.240
4680,0.000,-0.280
4681,0.000,-0.260
4682,-0.020,-0.215
4683,-0.020,-0.180
4684,-0.020,-0.130
4685,-0.015,-0.110
4686,-0.010,-0.125
4687,-0.035,-0.085
4688,-0.030,-0.045
4689,-0.020,-0.005
4690,-0.020,-0.015
4691,-0.020,-0.030
4692,-0.065,0.000
4693,-0.060,0.005
4694,-0.050,0.000
4695,-0.030,0.010
4696,-0.040,-0.040
4697,-0.035,-0.050
4698,-0.035,-0.075
4699,0.000,-0.110
4700,0.000,-0.170
4701,-0.005,-0.200
4702,-0.025,-0.225
4703,-0.050,-0.250
4704,-0.050,-0.235
4705,-0.065,-0.245
4706,-0.060,-0.280
4707,-0.105,-0.285
4708,-0.120,-0.300
4709,-0.110,-0.290
4710,-0.070,-0.275
4711,-0.040,-0.275
4712,-0.080,-0.280
4713,-0.045,-0.285
4714,-0.050,-0.265
4715,-0.020,-0.245
4716,-0.010,-0.240
4717,-0.040,-0.270
4718,-0.055,-0.250
4719,-0.035,-0.230
4720,0.000,-0.240
4721,-0.035,-0.250
4722,-0.055,-0.245
4723,-0.085,-0.235
4724,-0.070,-0.240
4725,-0.035,-0.270
4726,-0.055,-0.285
4727,-0.075,-0.305
4728,-0.105,-0.290
4729,-0.090,-0.280
4730,-0.080,-0.280
4731,-0.065,-0.295
4732,-0.100,-0.310
4733,-0.105,-0.310
4734,-0.120,-0.290
4735,-0.070,-0.275
4736,-0.050,-0.310
4737,-0.090,-0.315
4738,-0.095,-0.295
4739,-0.095,-0.315
4740,-0.065,-0.320
4741,-0.075,-0.315
4742,-0.075,-0.325
4743,-0.090,-0.325
4744,-0.100,-0.330
4745,-0.075,-0.315
4746,-0.070,-0.310
4747,-0.090,-0.315
4748,-0.110,-0.340
4749,-0.110,-0.335
4750,-0.080,-0.310
4751,-0.070,-0.275
4752,-0.105,-0.325
4753,-0.120,-0.335
4754,-0.105,-0.330
4755,-0.085,-0.330
4756,-0.070,-0.345
4757,-0.075,-0.355
4758,-0.100,-0.340
4759,-0.100,-0.310
4760,-0.085,-0.285
4761,-0.030,-0.255
4762,-0.010,-0.240
4763,-0.020,-0.235
4764,0.000,-0.230
4765,0.020,-0.180
4766,0.040,-0.115
4767,0.005,-0.145
4768,-0.035,-0.200
4769,-0.080,-0.165
4770,-0.075,-0.215
4771,-0.015,-0.320
4772,-0.020,-0.375
4773,-0.090,-0.390
4774,-0.095,-0.405
4775,-0.095,-0.360
4776,-0.070,-0.375
4777,-0.080,-0.405
4778,-0.120,-0.375
4779,-0.110,-0.375
4780,-0.055,-0.350
4781,-0.020,-0.375
4782,0.185,-0.325
4783,0.445,-0.030
4784,0.620,0.530
4785,-0.215,0.745
4786,-1.185,0.155
4787,-1.660,-0.335
4788,-1.715,-0.230
4789,-1.090,-0.255
4790,-0.565,-0.320
4791,-0.235,-0.370
4792,-0.085,-0.395
4793,-0.075,-0.405
4794,-0.055,-0.395
4795,-0.015,-0.385
4796,0.000,-0.370
4797,0.000,-0.380
4798,-0.025,-0.360
4799,-0.025,-0.385
4800,0.040,-0.395
4801,0.050,-0.400
4802,0.045,-0.410
4803,0.025,-0.380
4804,0.025,-0.375
4805,0.055,-0.350
4806,0.075,-0.340
4807,0.095,-0.330
4808,0.075,-0.335
4809,0.090,-0.285
4810,0.130,-0.260
4811,0.150,-0.230
4812,0.115,-0.245
4813,0.115,-0.245
4814,0.140,-0.185
4815,0.145,-0.120
4816,0.160,-0.135
4817,0.165,-0.100
4818,0.110,-0.085
4819,0.155,-0.025
4820,0.180,-0.020
4821,0.155,0.000
4822,0.135,-0.005
4823,0.105,0.035
4824,0.110,0.035
4825,0.135,0.025
4826,0.155,0.015
4827,0.160,0.000
4828,0.155,-0.050
4829,0.165,-0.060
4830,0.195,-0.065
4831,0.160,-0.165
4832,0.145,-0.230
4833,0.145,-0.250
4834,0.100,-0.240
4835,0.125,-0.225
4836,0.115,-0.260
4837,0.050,-0.265
4838,0.045,-0.290
4839,0.045,-0.305
4840,0.085,-0.240
4841,0.090,-0.290
4842,0.085,-0.270
4843,0.090,-0.265
4844,0.105,-0.240
4845,0.150,-0.215
4846,0.125,-0.240
4847,0.105,-0.260
4848,0.100,-0.230
4849,0.115,-0.215
4850,0.140,-0.255
4851,0.120,-0.240
4852,0.105,-0.275
4853,0.080,-0.255
4854,0.085,-0.245
4855,0.110,-0.230
4856,0.085,-0.260
4857,0.070,-0.275
4858,0.070,-0.275
4859,0.075,-0.240
4860,0.085,-0.225
4861,0.085,-0.270
4862,0.065,-0.265
4863,0.080,-0.285
4864,0.075,-0.255
4865,0.075,-0.255
4866,0.075,-0.265
4867,0.030,-0.275
4868,0.030,-0.280
4869,0.035,-0.255
4870,0.060,-0.265
4871,0.025,-0.280
4872,0.025,-0.265
4873,0.010,-0.265
4874,0.045,-0.260
4875,0.030,-0.285
4876,0.035,-0.290
4877,0.030,-0.270
4878,0.020,-0.245
4879,0.040,-0.255
4880,0.030,-0.260
4881,0.025,-0.300
4882,0.000,-0.285
4883,0.015,-0.245
4884,0.030,-0.235
4885,0.030,-0.265
4886,0.015,-0.285
4887,0.020,-0.220
4888,0.075,-0.215
4889,0.100,-0.175
4890,0.135,-0.180
4891,0.125,-0.140
4892,0.105,-0.085
4893,0.110,-0.055
4894,0.125,-0.105
4895,0.080,-0.145
4896,0.020,-0.170
4897,0.025,-0.235
4898,0.050,-0.255
4899,0.040,-0.300
4900,0.020,-0.310
4901,0.000,-0.350
4902,-0.015,-0.320
4903,-0.005,-0.285
4904,0.000,-0.330
4905,0.020,-0.355
4906,0.000,-0.330
4907,0.025,-0.360
4908,0.250,-0.290
4909,0.595,0.075
4910,0.695,0.680
4911,-0.395,0.710
4912,-1.325,0.025
4913,-1.765,-0.270
4914,-1.475,-0.115
4915,-0.775,-0.230
4916,-0.325,-0.305
4917,-0.085,-0.325
4918,0.000,-0.340
4919,0.055,-0.365
4920,0.060,-0.355
4921,0.065,-0.370
4922,0.100,-0.330
4923,0.135,-0.340
4924,0.135,-0.365
4925,0.115,-0.385
4926,0.125,-0.355
4927,0.115,-0.330
4928,0.180,-0.310
4929,0.150,-0.330
4930,0.165,-0.355
4931,0.170,-0.330
4932,0.200,-0.305
4933,0.225,-0.285
4934,0.210,-0.285
4935,0.175,-0.285
4936,0.195,-0.220
4937,0.235,-0.205
4938,0.230,-0.165
4939,0.230,-0.150
4940,0.215,-0.130
4941,0.210,-0.080
4942,0.205,-0.060
4943,0.235,-0.040
4944,0.220,-0.020
4945,0.205,0.005
4946,0.190,0.030
4947,0.200,0.045
4948,0.230,0.065
4949,0.210,0.065
4950,0.180,0.075
4951,0.190,0.065
4952,0.240,0.035
4953,0.255,-0.025
4954,0.230,-0.060
4955,0.205,-0.085
4956,0.190,-0.120
4957,0.225,-0.135
4958,0.195,-0.170
4959,0.160,-0.200
4960,0.110,-0.220
4961,0.095,-0.210
4962,0.105,-0.225
4963,0.120,-0.235
4964,0.090,-0.265
4965,0.080,-0.265
4966,0.105,-0.250
4967,0.110,-0.240
4968,0.120,-0.255
4969,0.085,-0.240
4970,0.100,-0.235
4971,0.100,-0.195
4972,0.125,-0.200
4973,0.135,-0.215
4974,0.100,-0.230
4975,0.125,-0.215
4976,0.110,-0.205
4977,0.125,-0.200
4978,0.105,-0.225
4979,0.080,-0.215
4980,0.060,-0.210
4981,0.090,-0.220
4982,0.080,-0.220
4983,0.075,-0.225
4984,0.045,-0.245
4985,0.030,-0.225
4986,0.055,-0.235
4987,0.075,-0.230
4988,0.060,-0.230
4989,0.020,-0.255
4990,0.045,-0.240
4991,0.070,-0.235
4992,0.055,-0.225
4993,0.030,-0.250
4994,0.025,-0.220
4995,0.030,-0.235
4996,0.045,-0.205
4997,0.060,-0.240
4998,0.020,-0.260
4999,0.030,-0.255
5000,0.035,-0.245
5001,0.055,-0.245
5002,0.060,-0.260
5003,0.020,-0.245
5004,0.020,-0.270
5005,0.015,-0.230
5006,0.025,-0.245
5007,0.025,-0.260
5008,0.000,-0.280
5009,0.000,-0.260
5010,0.005,-0.240
5011,0.035,-0.225
5012,0.060,-0.210
5013,0.065,-0.200
5014,0.105,-0.160
5015,0.130,-0.095
5016,0.140,-0.075
5017,0.105,-0.100
5018,0.060,-0.125
5019,0.010,-0.115
5020,0.010,-0.125
5021,0.025,-0.210
5022,0.030,-0.275
5023,0.000,-0.315
5024,-0.040,-0.310
5025,-0.030,-0.285
5026,0.000,-0.285
5027,-0.020,-0.305
5028,-0.030,-0.310
5029,-0.035,-0.300
5030,0.005,-0.275
5031,0.030,-0.280
5032,0.210,-0.265
5033,0.500,0.070
5034,0.690,0.695
5035,-0.360,0.845
5036,-1.355,0.155
5037,-1.805,-0.265
5038,-1.710,-0.100
5039,-0.955,-0.165
5040,-0.430,-0.235
5041,-0.170,-0.295
5042,-0.075,-0.305
5043,-0.035,-0.320
5044,0.000,-0.305
5045,0.025,-0.315
5046,0.030,-0.320
5047,0.005,-0.330
5048,0.025,-0.330
5049,0.065,-0.330
5050,0.080,-0.310
5051,0.075,-0.320
5052,0.060,-0.305
5053,0.070,-0.290
5054,0.105,-0.290
5055,0.120,-0.305
5056,0.105,-0.300
5057,0.105,-0.285
5058,0.110,-0.270
5059,0.135,-0.195
5060,0.160,-0.185
5061,0.155,-0.225
5062,0.160,-0.165
5063,0.170,-0.120
5064,0.195,-0.075
5065,0.200,-0.055
5066,0.160,-0.055
5067,0.135,-0.020
5068,0.145,0.020
5069,0.175,0.035
5070,0.175,0.050
5071,0.140,0.050
5072,0.130,0.065
5073,0.110,0.135
5074,0.150,0.120
5075,0.170,0.090
5076,0.155,0.055
5077,0.155,0.050
5078,0.170,0.000
5079,0.215,-0.010
5080,0.195,-0.055
5081,0.135,-0.080
5082,0.110,-0.115
5083,0.095,-0.130
5084,0.105,-0.150
5085,0.095,-0.175
5086,0.050,-0.185
5087,0.040,-0.180
5088,0.035,-0.180
5089,0.050,-0.170
5090,0.030,-0.195
5091,0.025,-0.185
5092,0.045,-0.170
5093,0.050,-0.175
5094,0.085,-0.195
5095,0.075,-0.205
5096,0.035,-0.190
5097,0.045,-0.190
5098,0.060,-0.175
5099,0.070,-0.165
5100,0.040,-0.185
5101,0.020,-0.170
5102,0.025,-0.170
5103,0.020,-0.160
5104,0.040,-0.160
5105,0.010,-0.175
5106,0.000,-0.175
5107,-0.020,-0.180
5108,0.010,-0.185
5109,0.000,-0.185
5110,-0.020,-0.180
5111,-0.060,-0.205
5112,-0.060,-0.200
5113,-0.040,-0.175
5114,-0.025,-0.185
5115,-0.055,-0.205
5116,-0.075,-0.205
5117,-0.085,-0.195
5118,-0.055,-0.205
5119,-0.030,-0.195
5120,-0.080,-0.210
5121,-0.095,-0.205
5122,-0.060,-0.210
5123,-0.060,-0.225
5124,-0.065,-0.205
5125,-0.100,-0.205
5126,-0.105,-0.230
5127,-0.060,-0.205
5128,-0.075,-0.225
5129,-0.065,-0.220
5130,-0.110,-0.210
5131,-0.080,-0.210
5132,-0.085,-0.210
5133,-0.075,-0.205
5134,-0.080,-0.215
5135,-0.110,-0.200
5136,-0.075,-0.140
5137,-0.035,-0.105
5138,0.000,-0.100
5139,0.010,-0.090
5140,0.000,-0.050
5141,-0.005,0.000
5142,-0.005,-0.010
5143,-0.030,-0.060
5144,-0.125,-0.105
5145,-0.130,-0.130
5146,-0.075,-0.180
5147,-0.095,-0.245
5148,-0.110,-0.245
5149,-0.130,-0.260
5150,-0.160,-0.265
5151,-0.155,-0.250
5152,-0.120,-0.260
5153,-0.115,-0.255
5154,-0.110,-0.245
5155,-0.135,-0.260
5156,-0.050,-0.210
5157,0.250,-0.090
5158,0.545,0.295
5159,0.295,0.805
5160,-0.815,0.625
5161,-1.580,-0.015
5162,-1.945,-0.250
5163,-1.535,-0.070
5164,-0.885,-0.160
5165,-0.465,-0.255
5166,-0.255,-0.250
5167,-0.155,-0.235
5168,-0.100,-0.270
5169,-0.115,-0.260
5170,-0.115,-0.255
5171,-0.075,-0.255
5172,-0.055,-0.240
5173,-0.040,-0.245
5174,-0.055,-0.240
5175,-0.070,-0.225
5176,-0.060,-0.250
5177,-0.025,-0.255
5178,-0.010,-0.225
5179,-0.045,-0.255
5180,-0.020,-0.245
5181,0.000,-0.200
5182,0.000,-0.180
5183,0.000,-0.175
5184,-0.010,-0.195
5185,-0.015,-0.170
5186,0.010,-0.140
5187,0.040,-0.110
5188,0.030,-0.080
5189,-0.010,-0.050
5190,-0.015,-0.040
5191,0.000,-0.005
5192,0.020,0.015
5193,0.010,0.025
5194,-0.010,0.025
5195,-0.020,0.040
5196,-0.010,0.080
5197,0.000,0.100
5198,-0.025,0.095
5199,-0.050,0.110
5200,-0.020,0.125
5201,0.005,0.120
5202,0.020,0.060
5203,0.015,0.010
5204,0.010,-0.005
5205,0.025,-0.030
5206,0.060,-0.060
5207,0.050,-0.085
5208,0.020,-0.120
5209,-0.015,-0.115
5210,-0.035,-0.115
5211,-0.015,-0.145
5212,-0.020,-0.150
5213,-0.020,-0.155
5214,-0.050,-0.160
5215,-0.055,-0.165
5216,-0.035,-0.165
5217,-0.015,-0.155
5218,-0.015,-0.175
5219,-0.025,-0.180
5220,-0.030,-0.145
5221,-0.010,-0.140
5222,-0.005,-0.140
5223,0.005,-0.145
5224,-0.040,-0.160
5225,-0.025,-0.160
5226,-0.030,-0.140
5227,-0.025,-0.165
5228,-0.035,-0.125
5229,-0.075,-0.160
5230,-0.075,-0.195
5231,-0.050,-0.180
5232,-0.035,-0.195
5233,-0.060,-0.170
5234,-0.090,-0.185
5235,-0.065,-0.180
5236,-0.070,-0.185
5237,-0.055,-0.180
5238,-0.070,-0.200
5239,-0.085,-0.200
5240,-0.080,-0.155
5241,-0.065,-0.160
5242,-0.060,-0.215
5243,-0.065,-0.215
5244,-0.100,-0.220
5245,-0.080,-0.195
5246,-0.065,-0.190
5247,-0.050,-0.195
5248,-0.060,-0.200
5249,-0.095,-0.180
5250,-0.070,-0.200
5251,-0.080,-0.180
5252,-0.060,-0.215
5253,-0.075,-0.210
5254,-0.095,-0.200
5255,-0.090,-0.210
5256,-0.055,-0.200
5257,-0.065,-0.210
5258,-0.065,-0.215
5259,-0.085,-0.225
5260,-0.080,-0.200
5261,-0.075,-0.210
5262,-0.065,-0.200
5263,-0.080,-0.195
5264,-0.085,-0.215
5265,-0.055,-0.175
5266,0.000,-0.140
5267,0.030,-0.140
5268,0.040,-0.125
5269,0.000,-0.060
5270,0.000,-0.060
5271,0.020,-0.055
5272,-0.010,-0.095
5273,-0.045,-0.100
5274,-0.090,-0.165
5275,-0.085,-0.215
5276,-0.075,-0.255
5277,-0.055,-0.290
5278,-0.085,-0.285
5279,-0.120,-0.285
5280,-0.135,-0.285
5281,-0.115,-0.255
5282,-0.070,-0.255
5283,-0.075,-0.250
5284,-0.090,-0.265
5285,-0.045,-0.275
5286,0.185,-0.220
5287,0.505,0.105
5288,0.660,0.580
5289,-0.325,0.780
5290,-1.320,0.215
5291,-1.830,-0.270
5292,-1.820,-0.155
5293,-1.080,-0.165
5294,-0.620,-0.230
5295,-0.290,-0.275
5296,-0.130,-0.290
5297,-0.070,-0.300
5298,-0.020,-0.275
5299,-0.015,-0.300
5300,-0.040,-0.310
5301,-0.005,-0.300
5302,0.005,-0.300
5303,0.035,-0.295
5304,0.025,-0.275
5305,0.015,-0.325
5306,0.005,-0.320
5307,0.060,-0.285
5308,0.065,-0.285
5309,0.065,-0.290
5310,0.045,-0.265
5311,0.070,-0.235
5312,0.090,-0.240
5313,0.105,-0.230
5314,0.120,-0.210
5315,0.080,-0.190
5316,0.110,-0.185
5317,0.135,-0.175
5318,0.160,-0.145
5319,0.125,-0.110
5320,0.115,-0.095
5321,0.125,-0.050
5322,0.155,-0.045
5323,0.150,-0.020
5324,0.110,-0.010
5325,0.110,0.010
5326,0.120,0.045
5327,0.140,0.060
5328,0.150,0.065
5329,0.110,0.080
5330,0.100,0.065
5331,0.110,0.070
5332,0.135,0.040
5333,0.175,-0.005
5334,0.160,-0.040
5335,0.145,-0.050
5336,0.145,-0.065
5337,0.160,-0.105
5338,0.140,-0.150
5339,0.100,-0.140
5340,0.090,-0.165
5341,0.070,-0.175
5342,0.075,-0.175
5343,0.100,-0.170
5344,0.090,-0.180
5345,0.070,-0.190
5346,0.080,-0.160
5347,0.115,-0.155
5348,0.135,-0.140
5349,0.100,-0.185
5350,0.105,-0.190
5351,0.080,-0.145
5352,0.145,-0.160
5353,0.150,-0.155
5354,0.125,-0.170
5355,0.115,-0.160
5356,0.075,-0.155
5357,0.110,-0.140
5358,0.095,-0.150
5359,0.095,-0.160
5360,0.060,-0.170
5361,0.060,-0.175
5362,0.095,-0.155
5363,0.090,-0.165
5364,0.065,-0.195
5365,0.040,-0.170
5366,0.025,-0.155
5367,0.055,-0.180
5368,0.065,-0.165
5369,0.065,-0.170
5370,0.040,-0.210
5371,0.020,-0.190
5372,0.065,-0.190
5373,0.040,-0.200
5374,0.030,-0.200
5375,-0.015,-0.215
5376,0.015,-0.170
5377,0.035,-0.155
5378,0.065,-0.190
5379,0.050,-0.225
5380,0.040,-0.235
5381,0.015,-0.200
5382,0.040,-0.200
5383,0.070,-0.210
5384,0.060,-0.230
5385,0.020,-0.225
5386,0.025,-0.180
5387,0.050,-0.195
5388,0.065,-0.210
5389,0.055,-0.215
5390,0.035,-0.215
5391,0.045,-0.210
5392,0.055,-0.210
5393,0.075,-0.190
5394,0.070,-0.180
5395,0.110,-0.175
5396,0.145,-0.135
5397,0.160,-0.065
5398,0.160,-0.040
5399,0.110,-0.055
5400,0.070,-0.095
5401,0.020,-0.105
5402,0.035,-0.140
5403,0.060,-0.185
5404,0.030,-0.220
5405,0.000,-0.265
5406,0.000,-0.290
5407,0.035,-0.290
5408,0.015,-0.310
5409,-0.005,-0.300
5410,0.005,-0.295
5411,0.015,-0.280
5412,0.050,-0.270
5413,0.095,-0.285
5414,0.310,-0.230
5415,0.670,0.170
5416,0.595,0.805
5417,-0.550,0.750
5418,-1.410,0.010
5419,-1.885,-0.270
5420,-1.560,-0.100
5421,-0.785,-0.170
5422,-0.330,-0.275
5423,-0.085,-0.310
5424,0.000,-0.305
5425,0.040,-0.315
5426,0.085,-0.325
5427,0.125,-0.325
5428,0.090,-0.330
5429,0.095,-0.315
5430,0.105,-0.300
5431,0.140,-0.305
5432,0.145,-0.325
5433,0.125,-0.325
5434,0.135,-0.300
5435,0.150,-0.285
5436,0.190,-0.275
5437,0.205,-0.295
5438,0.190,-0.295
5439,0.175,-0.255
5440,0.235,-0.215
5441,0.260,-0.230
5442,0.240,-0.210
5443,0.200,-0.185
5444,0.215,-0.170
5445,0.255,-0.145
5446,0.255,-0.135
5447,0.205,-0.130
5448,0.205,-0.085
5449,0.230,-0.040
5450,0.235,-0.005
5451,0.230,-0.005
5452,0.205,-0.015
5453,0.195,0.010
5454,0.220,0.050
5455,0.215,0.050
5456,0.220,0.000
5457,0.200,0.000
5458,0.210,-0.010
5459,0.235,-0.035
5460,0.255,-0.080
5461,0.240,-0.115
5462,0.190,-0.185
5463,0.190,-0.150
5464,0.195,-0.200
5465,0.165,-0.215
5466,0.125,-0.225
5467,0.090,-0.235
5468,0.075,-0.220
5469,0.130,-0.220
5470,0.115,-0.240
5471,0.080,-0.235
5472,0.120,-0.240
5473,0.120,-0.265
5474,0.160,-0.255
5475,0.160,-0.235
5476,0.130,-0.270
5477,0.135,-0.255
5478,0.120,-0.210
5479,0.170,-0.210
5480,0.140,-0.205
5481,0.105,-0.260
5482,0.100,-0.250
5483,0.105,-0.225
5484,0.095,-0.225
5485,0.140,-0.245
5486,0.080,-0.280
5487,0.075,-0.265
5488,0.100,-0.220
5489,0.100,-0.225
5490,0.065,-0.250
5491,0.075,-0.280
5492,0.085,-0.265
5493,0.100,-0.280
5494,0.105,-0.275
5495,0.060,-0.250
5496,0.040,-0.280
5497,0.070,-0.280
5498,0.100,-0.270
5499,0.085,-0.265
5500,0.070,-0.285
5501,0.060,-0.275
5502,0.055,-0.270
5503,0.070,-0.235
5504,0.080,-0.285
5505,0.040,-0.280
5506,0.045,-0.260
5507,0.065,-0.290
5508,0.080,-0.295
5509,0.070,-0.305
5510,0.035,-0.305
5511,0.040,-0.280
5512,0.060,-0.280
5513,0.085,-0.290
5514,0.050,-0.275
5515,0.050,-0.250
5516,0.095,-0.200
5517,0.140,-0.190
5518,0.155,-0.220
5519,0.140,-0.175
5520,0.135,-0.095
5521,0.135,-0.085
5522,0.125,-0.125
5523,0.045,-0.160
5524,0.000,-0.190
5525,0.025,-0.270
5526,0.065,-0.305
5527,0.045,-0.330
5528,0.005,-0.350
5529,-0.035,-0.345
5530,-0.005,-0.350
5531,0.010,-0.325
5532,0.000,-0.350
5533,0.010,-0.360
5534,-0.005,-0.345
5535,0.040,-0.310
5536,0.295,-0.265
5537,0.605,0.105
5538,0.520,0.725
5539,-0.560,0.735
5540,-1.340,0.020
5541,-1.725,-0.275
5542,-1.410,-0.185
5543,-0.755,-0.245
5544,-0.330,-0.325
5545,-0.060,-0.325
5546,0.020,-0.385
5547,0.050,-0.405
5548,0.030,-0.410
5549,0.055,-0.380
5550,0.075,-0.380
5551,0.095,-0.385
5552,0.085,-0.410
5553,0.055,-0.405
5554,0.095,-0.365
5555,0.105,-0.390
5556,0.125,-0.395
5557,0.105,-0.370
5558,0.115,-0.375
5559,0.115,-0.370
5560,0.165,-0.375
5561,0.180,-0.375
5562,0.140,-0.350
5563,0.165,-0.305
5564,0.165,-0.280
5565,0.195,-0.260
5566,0.180,-0.250
5567,0.145,-0.235
5568,0.170,-0.205
5569,0.180,-0.140
5570,0.175,-0.130
5571,0.155,-0.100
5572,0.125,-0.080
5573,0.125,-0.070
5574,0.130,-0.060
5575,0.130,-0.045
5576,0.100,-0.030
5577,0.095,0.000
5578,0.090,-0.025
5579,0.150,-0.040
5580,0.165,-0.065
5581,0.155,-0.105
5582,0.135,-0.155
5583,0.135,-0.190
5584,0.170,-0.205
5585,0.140,-0.230
5586,0.070,-0.270
5587,0.060,-0.310
5588,0.075,-0.280
5589,0.080,-0.305
5590,0.070,-0.325
5591,0.035,-0.325
5592,0.055,-0.330
5593,0.070,-0.300
5594,0.085,-0.285
5595,0.105,-0.310
5596,0.070,-0.305
5597,0.085,-0.285
5598,0.090,-0.270
5599,0.115,-0.270
5600,0.100,-0.295
5601,0.070,-0.300
5602,0.045,-0.270
5603,0.060,-0.250
5604,0.050,-0.265
5605,0.060,-0.300
5606,0.035,-0.295
5607,0.000,-0.305
5608,0.025,-0.275
5609,0.040,-0.300
5610,0.005,-0.340
5611,-0.010,-0.310
5612,0.000,-0.305
5613,0.000,-0.305
5614,0.005,-0.315
5615,-0.010,-0.310
5616,-0.020,-0.310
5617,-0.025,-0.340
5618,0.005,-0.310
5619,0.020,-0.305
5620,-0.005,-0.305
5621,-0.030,-0.300
5622,-0.030,-0.290
5623,0.000,-0.320
5624,0.000,-0.325
5625,-0.020,-0.320
5626,-0.020,-0.320
5627,-0.015,-0.280
5628,-0.005,-0.320
5629,-0.005,-0.330
5630,-0.025,-0.305
5631,-0.040,-0.305
5632,-0.025,-0.295
5633,0.000,-0.325
5634,-0.005,-0.310
5635,-0.020,-0.295
5636,-0.035,-0.325
5637,-0.025,-0.295
5638,0.010,-0.275
5639,0.000,-0.240
5640,0.045,-0.225
5641,0.050,-0.230
5642,0.075,-0.195
5643,0.085,-0.110
5644,0.065,-0.085
5645,0.050,-0.105
5646,0.010,-0.155
5647,-0.040,-0.160
5648,-0.015,-0.195
5649,0.015,-0.260
5650,0.000,-0.320
5651,-0.060,-0.350
5652,-0.065,-0.305
5653,-0.045,-0.305
5654,-0.040,-0.340
5655,-0.055,-0.340
5656,-0.080,-0.320
5657,-0.060,-0.305
5658,-0.025,-0.305
5659,0.000,-0.325
5660,0.170,-0.260
5661,0.430,0.090
5662,0.590,0.670
5663,-0.180,0.825
5664,-1.090,0.180
5665,-1.570,-0.385
5666,-1.555,-0.275
5667,-0.960,-0.215
5668,-0.465,-0.280
5669,-0.185,-0.340
5670,-0.100,-0.360
5671,-0.050,-0.350
5672,-0.025,-0.350
5673,0.005,-0.345
5674,-0.010,-0.370
5675,-0.015,-0.350
5676,-0.015,-0.350
5677,0.015,-0.330
5678,0.040,-0.340
5679,0.035,-0.345
5680,0.025,-0.360
5681,0.010,-0.335
5682,0.045,-0.330
5683,0.070,-0.320
5684,0.055,-0.335
5685,0.055,-0.325
5686,0.040,-0.285
5687,0.080,-0.260
5688,0.120,-0.255
5689,0.115,-0.240
5690,0.075,-0.220
5691,0.070,-0.220
5692,0.090,-0.190
5693,0.120,-0.120
5694,0.100,-0.125
5695,0.075,-0.110
5696,0.095,-0.075
5697,0.115,-0.065
5698,0.110,-0.030
5699,0.080,-0.020
5700,0.070,0.000
5701,0.080,0.010
5702,0.085,0.030
5703,0.090,0.020
5704,0.085,-0.030
5705,0.100,-0.045
5706,0.105,-0.055
5707,0.125,-0.085
5708,0.155,-0.135
5709,0.125,-0.175
5710,0.100,-0.195
5711,0.070,-0.220
5712,0.090,-0.225
5713,0.065,-0.255
5714,0.045,-0.285
5715,0.035,-0.275
5716,0.050,-0.245
5717,0.070,-0.240
5718,0.065,-0.265
5719,0.045,-0.255
5720,0.060,-0.225
5721,0.070,-0.230
5722,0.105,-0.230
5723,0.115,-0.250
5724,0.080,-0.240
5725,0.070,-0.225
5726,0.070,-0.205
5727,0.085,-0.190
5728,0.085,-0.215
5729,0.055,-0.210
5730,0.055,-0.225
5731,0.045,-0.225
5732,0.080,-0.225
5733,0.050,-0.205
5734,0.030,-0.255
5735,0.020,-0.265
5736,0.045,-0.260
5737,0.045,-0.240
5738,0.025,-0.290
5739,0.010,-0.280
5740,0.000,-0.290
5741,0.005,-0.260
5742,0.030,-0.270
5743,0.025,-0.290
5744,-0.005,-0.280
5745,0.000,-0.275
5746,0.020,-0.280
5747,0.020,-0.265
5748,0.020,-0.270
5749,0.005,-0.285
5750,0.015,-0.265
5751,0.030,-0.255
5752,0.020,-0.280
5753,0.030,-0.290
5754,0.000,-0.290
5755,0.010,-0.285
5756,0.040,-0.270
5757,0.055,-0.270
5758,0.040,-0.275
5759,0.025,-0.310
5760,-0.005,-0.300
5761,0.040,-0.295
5762,0.080,-0.280
5763,0.015,-0.285
5764,0.010,-0.300
5765,0.030,-0.230
5766,0.065,-0.205
5767,0.090,-0.210
5768,0.090,-0.180
5769,0.120,-0.175
5770,0.110,-0.150
5771,0.155,-0.095
5772,0.155,-0.075
5773,0.110,-0.125
5774,0.065,-0.165
5775,0.040,-0.150
5776,0.075,-0.185
5777,0.080,-0.275
5778,0.050,-0.320
5779,0.005,-0.320
5780,-0.005,-0.325
5781,0.035,-0.295
5782,0.030,-0.265
5783,0.000,-0.335
5784,-0.025,-0.305
5785,-0.010,-0.300
5786,0.015,-0.320
5787,0.135,-0.330
5788,0.380,-0.140
5789,0.655,0.390
5790,0.270,0.925
5791,-0.740,0.645
5792,-1.355,-0.080
5793,-1.680,-0.250
5794,-1.325,-0.135
5795,-0.715,-0.210
5796,-0.300,-0.295
5797,-0.080,-0.315
5798,-0.035,-0.350
5799,-0.010,-0.375
5800,0.010,-0.335
5801,0.080,-0.320
5802,0.095,-0.350
5803,0.080,-0.390
5804,0.045,-0.380
5805,0.055,-0.350
5806,0.085,-0.335
5807,0.140,-0.355
5808,0.120,-0.365
5809,0.100,-0.350
5810,0.115,-0.325
5811,0.145,-0.325
5812,0.145,-0.305
5813,0.155,-0.315
5814,0.135,-0.280
5815,0.150,-0.235
5816,0.170,-0.230
5817,0.185,-0.245
5818,0.175,-0.210
5819,0.180,-0.200
5820,0.185,-0.155
5821,0.185,-0.115
5822,0.205,-0.090
5823,0.170,-0.085
5824,0.175,-0.085
5825,0.170,-0.020
5826,0.205,-0.025
5827,0.215,-0.030
5828,0.175,0.005
5829,0.135,0.025
5830,0.165,0.045
5831,0.160,0.020
5832,0.190,0.020
5833,0.175,-0.030
5834,0.185,-0.075
5835,0.185,-0.090
5836,0.195,-0.105
5837,0.185,-0.170
5838,0.140,-0.200
5839,0.115,-0.225
5840,0.115,-0.220
5841,0.125,-0.225
5842,0.085,-0.260
5843,0.085,-0.255
5844,0.060,-0.220
5845,0.075,-0.225
5846,0.105,-0.270
5847,0.130,-0.250
5848,0.090,-0.220
5849,0.105,-0.240
5850,0.110,-0.240
5851,0.130,-0.220
5852,0.150,-0.235
5853,0.095,-0.230
5854,0.110,-0.200
5855,0.125,-0.185
5856,0.140,-0.200
5857,0.125,-0.215
5858,0.090,-0.200
5859,0.065,-0.200
5860,0.085,-0.230
5861,0.105,-0.225
5862,0.100,-0.220
5863,0.075,-0.250
5864,0.055,-0.240
5865,0.055,-0.220
5866,0.075,-0.225
5867,0.080,-0.245
5868,0.040,-0.250
5869,0.015,-0.270
5870,0.025,-0.230
5871,0.070,-0.245
5872,0.045,-0.270
5873,0.020,-0.265
5874,0.020,-0.245
5875,0.040,-0.220
5876,0.045,-0.210
5877,0.050,-0.255
5878,0.010,-0.265
5879,0.025,-0.250
5880,0.035,-0.210
5881,0.050,-0.220
5882,0.050,-0.265
5883,0.010,-0.255
5884,0.005,-0.225
5885,0.005,-0.215
5886,0.035,-0.215
5887,0.035,-0.245
5888,0.025,-0.235
5889,0.010,-0.225
5890,0.040,-0.220
5891,0.065,-0.215
5892,0.045,-0.255
5893,0.015,-0.230
5894,0.055,-0.170
5895,0.090,-0.120
5896,0.130,-0.140
5897,0.135,-0.140
5898,0.110,-0.070
5899,0.100,-0.050
5900,0.125,-0.040
5901,0.090,-0.085
5902,0.045,-0.105
5903,0.020,-0.130
5904,0.030,-0.165
5905,0.045,-0.210
5906,0.035,-0.260
5907,0.005,-0.280
5908,-0.020,-0.305
5909,0.005,-0.300
5910,0.005,-0.265
5911,0.030,-0.260
5912,0.010,-0.275
5913,-0.005,-0.250
5914,0.015,-0.265
5915,0.215,-0.240
5916,0.555,0.060
5917,0.720,0.705
5918,-0.195,0.970
5919,-1.155,0.300
5920,-1.655,-0.205
5921,-1.670,-0.075
5922,-1.000,-0.140
5923,-0.500,-0.235
5924,-0.170,-0.265
5925,-0.030,-0.280
5926,0.015,-0.305
5927,0.020,-0.320
5928,0.020,-0.315
5929,0.015,-0.290
5930,0.065,-0.285
5931,0.095,-0.330
5932,0.090,-0.320
5933,0.065,-0.305
5934,0.065,-0.275
5935,0.100,-0.295
5936,0.130,-0.295
5937,0.090,-0.265
5938,0.130,-0.275
5939,0.120,-0.240
5940,0.145,-0.245
5941,0.170,-0.270
5942,0.165,-0.265
5943,0.165,-0.240
5944,0.170,-0.175
5945,0.200,-0.170
5946,0.220,-0.155
5947,0.185,-0.155
5948,0.185,-0.120
5949,0.185,-0.075
5950,0.215,-0.045
5951,0.220,-0.040
5952,0.175,-0.030
5953,0.155,0.000
5954,0.165,0.040
5955,0.185,0.070
5956,0.165,0.050
5957,0.170,0.055
5958,0.155,0.065
5959,0.175,0.040
5960,0.210,-0.010
5961,0.210,-0.045
5962,0.195,-0.075
5963,0.190,-0.110
5964,0.200,-0.120
5965,0.195,-0.145
5966,0.150,-0.185
5967,0.095,-0.170
5968,0.085,-0.215
5969,0.100,-0.225
5970,0.075,-0.220
5971,0.090,-0.215
5972,0.075,-0.215
5973,0.085,-0.230
5974,0.110,-0.220
5975,0.120,-0.210
5976,0.110,-0.185
5977,0.105,-0.180
5978,0.125,-0.175
5979,0.150,-0.170
5980,0.140,-0.175
5981,0.110,-0.185
5982,0.105,-0.180
5983,0.110,-0.150
5984,0.130,-0.165
5985,0.120,-0.200
5986,0.085,-0.200
5987,0.070,-0.180
5988,0.095,-0.155
5989,0.085,-0.150
5990,0.090,-0.185
5991,0.025,-0.210
5992,0.050,-0.185
5993,0.065,-0.180
5994,0.065,-0.240
5995,0.045,-0.210
5996,0.060,-0.165
5997,0.030,-0.190
5998,0.035,-0.220
5999,0.050,-0.200
6000,0.020,-0.215
6001,0.000,-0.210
6002,0.020,-0.205
6003,0.045,-0.165
6004,0.055,-0.235
6005,0.030,-0.215
6006,0.020,-0.195
6007,0.020,-0.200
6008,0.035,-0.240
6009,0.040,-0.235
6010,0.040,-0.220
6011,0.020,-0.200
6012,0.040,-0.225
6013,0.060,-0.205
6014,0.055,-0.215
6015,0.025,-0.215
6016,0.050,-0.195
6017,0.070,-0.190
6018,0.075,-0.155
6019,0.090,-0.140
6020,0.115,-0.120
6021,0.130,-0.085
6022,0.165,-0.030
6023,0.140,0.000
6024,0.115,-0.025
6025,0.070,-0.085
6026,0.015,-0.085
6027,0.050,-0.135
6028,0.050,-0.200
6029,0.015,-0.240
6030,-0.005,-0.250
6031,0.005,-0.275
6032,0.015,-0.250
6033,0.000,-0.255
6034,0.000,-0.260
6035,0.005,-0.210
6036,0.030,-0.260
6037,0.065,-0.280
6038,0.215,-0.240
6039,0.530,0.115
6040,0.720,0.780
6041,-0.355,0.855
6042,-1.345,0.150
6043,-1.865,-0.235
6044,-1.695,-0.050
6045,-0.920,-0.120
6046,-0.400,-0.225
6047,-0.095,-0.285
6048,-0.045,-0.300
6049,0.000,-0.290
6050,0.025,-0.290
6051,0.055,-0.290
6052,0.055,-0.295
6053,0.045,-0.295
6054,0.050,-0.290
6055,0.080,-0.300
6056,0.085,-0.275
6057,0.080,-0.290
6058,0.045,-0.280
6059,0.060,-0.275
6060,0.120,-0.250
6061,0.120,-0.270
6062,0.130,-0.270
6063,0.125,-0.225
6064,0.135,-0.220
6065,0.155,-0.200
6066,0.160,-0.160
6067,0.130,-0.175
6068,0.150,-0.175
6069,0.170,-0.110
6070,0.185,-0.090
6071,0.195,-0.070
6072,0.155,-0.055
6073,0.150,-0.030
6074,0.180,0.010
6075,0.175,0.015
6076,0.195,0.005
6077,0.140,0.015
6078,0.145,0.030
6079,0.185,0.035
6080,0.195,0.025
6081,0.180,-0.035
6082,0.175,-0.070
6083,0.170,-0.100
6084,0.230,-0.125
6085,0.195,-0.180
6086,0.175,-0.235
6087,0.105,-0.235
6088,0.115,-0.235
6089,0.105,-0.245
6090,0.100,-0.255
6091,0.045,-0.255
6092,0.030,-0.270
6093,0.035,-0.265
6094,0.055,-0.275
6095,0.055,-0.285
6096,0.060,-0.245
6097,0.035,-0.265
6098,0.085,-0.240
6099,0.105,-0.245
6100,0.080,-0.240
6101,0.060,-0.230
6102,0.065,-0.240
6103,0.090,-0.205
6104,0.080,-0.220
6105,0.040,-0.245
6106,0.055,-0.270
6107,0.055,-0.255
6108,0.065,-0.205
6109,0.045,-0.225
6110,0.045,-0.245
6111,0.025,-0.265
6112,0.035,-0.235
6113,0.045,-0.255
6114,0.055,-0.285
6115,0.030,-0.280
6116,0.000,-0.275
6117,0.000,-0.255
6118,0.020,-0.270
6119,0.020,-0.295
6120,-0.010,-0.285
6121,-0.020,-0.270
6122,0.000,-0.220
6123,0.005,-0.260
6124,0.000,-0.255
6125,-0.020,-0.235
6126,-0.020,-0.265
6127,0.000,-0.225
6128,0.000,-0.245
6129,0.000,-0.275
6130,-0.015,-0.260
6131,-0.025,-0.275
6132,0.000,-0.240
6133,-0.005,-0.225
6134,0.000,-0.260
6135,-0.025,-0.285
6136,-0.005,-0.250
6137,0.010,-0.230
6138,0.015,-0.230
6139,0.030,-0.225
6140,0.020,-0.210
6141,0.045,-0.170
6142,0.135,-0.140
6143,0.105,-0.120
6144,0.080,-0.045
6145,0.095,-0.040
6146,0.070,-0.055
6147,0.035,-0.125
6148,0.000,-0.160
6149,0.000,-0.210
6150,0.000,-0.250
6151,-0.015,-0.270
6152,0.000,-0.275
6153,-0.005,-0.295
6154,-0.025,-0.295
6155,-0.045,-0.310
6156,-0.030,-0.295
6157,-0.020,-0.285
6158,-0.015,-0.295
6159,-0.020,-0.285
6160,0.120,-0.255
6161,0.460,-0.005
6162,0.735,0.470
6163,-0.070,0.785
6164,-1.230,0.315
6165,-1.785,-0.225
6166,-1.975,-0.130
6167,-1.205,-0.095
6168,-0.635,-0.190
6169,-0.300,-0.280
6170,-0.145,-0.315
6171,-0.085,-0.315
6172,-0.035,-0.325
6173,0.000,-0.340
6174,-0.035,-0.330
6175,-0.030,-0.310
6176,-0.010,-0.305
6177,0.005,-0.320
6178,0.010,-0.320
6179,0.000,-0.320
6180,0.000,-0.285
6181,0.035,-0.300
6182,0.060,-0.300
6183,0.035,-0.280
6184,0.015,-0.305
6185,0.055,-0.310
6186,0.070,-0.280
6187,0.075,-0.240
6188,0.065,-0.250
6189,0.055,-0.230
6190,0.055,-0.200
6191,0.080,-0.160
6192,0.085,-0.105
6193,0.075,-0.115
6194,0.050,-0.125
6195,0.035,-0.090
6196,0.050,-0.040
6197,0.065,-0.015
6198,0.055,-0.015
6199,0.010,-0.025
6200,0.015,-0.010
6201,0.030,0.015
6202,0.030,0.030
6203,0.025,0.035
6204,-0.005,0.005
6205,-0.005,-0.005
6206,0.015,-0.015
6207,0.050,-0.020
6208,0.035,-0.085
6209,0.005,-0.140
6210,0.000,-0.165
6211,0.005,-0.165
6212,-0.015,-0.190
6213,-0.045,-0.225
6214,-0.105,-0.225
6215,-0.105,-0.260
6216,-0.090,-0.225
6217,-0.075,-0.255
6218,-0.075,-0.245
6219,-0.105,-0.240
6220,-0.105,-0.270
6221,-0.075,-0.245
6222,-0.075,-0.250
6223,-0.075,-0.250
6224,-0.090,-0.250
6225,-0.080,-0.235
6226,-0.080,-0.210
6227,-0.070,-0.230
6228,-0.060,-0.250
6229,-0.085,-0.245
6230,-0.090,-0.240
6231,-0.065,-0.210
6232,-0.070,-0.235
6233,-0.055,-0.230
6234,-0.110,-0.245
6235,-0.110,-0.260
6236,-0.100,-0.230
6237,-0.100,-0.235
6238,-0.110,-0.250
6239,-0.125,-0.240
6240,-0.135,-0.250
6241,-0.105,-0.230
6242,-0.090,-0.235
6243,-0.110,-0.255
6244,-0.115,-0.255
6245,-0.135,-0.255
6246,-0.110,-0.220
6247,-0.105,-0.245
6248,-0.090,-0.220
6249,-0.130,-0.275
6250,-0.140,-0.265
6251,-0.120,-0.235
6252,-0.105,-0.215
6253,-0.110,-0.250
6254,-0.135,-0.275
6255,-0.140,-0.260
6256,-0.130,-0.230
6257,-0.125,-0.220
6258,-0.125,-0.220
6259,-0.145,-0.265
6260,-0.140,-0.290
6261,-0.145,-0.255
6262,-0.130,-0.225
6263,-0.140,-0.245
6264,-0.130,-0.225
6265,-0.125,-0.185
6266,-0.075,-0.170
6267,-0.035,-0.145
6268,-0.015,-0.145
6269,-0.045,-0.075
6270,-0.060,-0.045
6271,-0.080,-0.050
6272,-0.090,-0.070
6273,-0.150,-0.100
6274,-0.190,-0.175
6275,-0.140,-0.235
6276,-0.145,-0.240
6277,-0.150,-0.265
6278,-0.175,-0.280
6279,-0.195,-0.280
6280,-0.215,-0.255
6281,-0.190,-0.235
6282,-0.175,-0.260
6283,-0.160,-0.265
6284,-0.175,-0.280
6285,-0.120,-0.265
6286,0.115,-0.135
6287,0.425,0.200
6288,0.505,0.730
6289,-0.545,0.690
6290,-1.485,0.035
6291,-1.940,-0.310
6292,-1.735,-0.160
6293,-1.070,-0.180
6294,-0.610,-0.250
6295,-0.355,-0.260
6296,-0.245,-0.265
6297,-0.165,-0.270
6298,-0.155,-0.290
6299,-0.160,-0.285
6300,-0.160,-0.315
6301,-0.125,-0.275
6302,-0.105,-0.270
6303,-0.115,-0.285
6304,-0.120,-0.295
6305,-0.120,-0.280
6306,-0.105,-0.285
6307,-0.070,-0.270
6308,-0.090,-0.270
6309,-0.105,-0.265
6310,-0.095,-0.265
6311,-0.065,-0.240
6312,-0.025,-0.215
6313,-0.030,-0.210
6314,-0.055,-0.200
6315,-0.080,-0.200
6316,-0.035,-0.150
6317,-0.010,-0.105
6318,-0.030,-0.090
6319,-0.035,-0.085
6320,-0.050,-0.055
6321,-0.040,-0.050
6322,0.000,-0.040
6323,-0.005,-0.005
6324,-0.035,0.000
6325,-0.060,0.020
6326,-0.055,0.055
6327,-0.030,0.075
6328,-0.045,0.045
6329,-0.055,0.055
6330,-0.065,0.070
6331,-0.055,0.045
6332,-0.005,-0.015
6333,0.000,-0.045
6334,-0.025,-0.090
6335,-0.025,-0.085
6336,-0.045,-0.120
6337,-0.010,-0.160
6338,-0.020,-0.200
6339,-0.095,-0.215
6340,-0.095,-0.225
6341,-0.080,-0.220
6342,-0.075,-0.230
6343,-0.075,-0.255
6344,-0.090,-0.230
6345,-0.095,-0.230
6346,-0.050,-0.235
6347,-0.020,-0.195
6348,-0.030,-0.230
6349,-0.050,-0.225
6350,-0.040,-0.225
6351,-0.030,-0.215
6352,-0.005,-0.185
6353,-0.020,-0.230
6354,-0.060,-0.215
6355,-0.055,-0.230
6356,-0.055,-0.200
6357,-0.030,-0.195
6358,-0.050,-0.185
6359,-0.070,-0.210
6360,-0.055,-0.240
6361,-0.060,-0.235
6362,-0.020,-0.215
6363,-0.035,-0.255
6364,-0.065,-0.245
6365,-0.070,-0.230
6366,-0.065,-0.210
6367,-0.040,-0.210
6368,-0.055,-0.245
6369,-0.080,-0.245
6370,-0.065,-0.255
6371,-0.035,-0.230
6372,-0.035,-0.235
6373,-0.055,-0.245
6374,-0.080,-0.250
6375,-0.080,-0.240
6376,-0.035,-0.240
6377,-0.025,-0.235
6378,-0.035,-0.225
6379,-0.075,-0.220
6380,-0.080,-0.260
6381,-0.030,-0.230
6382,-0.020,-0.255
6383,-0.020,-0.275
6384,-0.055,-0.265
6385,-0.060,-0.235
6386,-0.035,-0.220
6387,-0.025,-0.235
6388,-0.035,-0.260
6389,-0.065,-0.250
6390,-0.060,-0.255
6391,-0.030,-0.255
6392,-0.005,-0.230
6393,0.010,-0.210
6394,0.000,-0.160
6395,0.045,-0.160
6396,0.075,-0.140
6397,0.090,-0.055
6398,0.080,-0.075
6399,0.040,-0.065
6400,0.000,-0.110
6401,-0.025,-0.115
6402,-0.005,-0.185
6403,0.000,-0.250
6404,-0.045,-0.270
6405,-0.080,-0.300
6406,-0.030,-0.285
6407,-0.040,-0.280
6408,-0.060,-0.315
6409,-0.075,-0.285
6410,-0.065,-0.275
6411,-0.015,-0.275
6412,0.005,-0.285
6413,0.175,-0.265
6414,0.465,0.080
6415,0.690,0.720
6416,-0.155,0.960
6417,-1.190,0.310
6418,-1.690,-0.260
6419,-1.780,-0.115
6420,-1.055,-0.140
6421,-0.525,-0.220
6422,-0.190,-0.250
6423,-0.085,-0.300
6424,-0.040,-0.330
6425,0.000,-0.305
6426,0.030,-0.305
6427,0.045,-0.310
6428,0.005,-0.310
6429,0.025,-0.325
6430,0.065,-0.310
6431,0.060,-0.285
6432,0.035,-0.320
6433,0.040,-0.320
6434,0.050,-0.310
6435,0.070,-0.260
6436,0.075,-0.285
6437,0.060,-0.295
6438,0.060,-0.275
6439,0.075,-0.250
6440,0.110,-0.250
6441,0.130,-0.220
6442,0.115,-0.200
6443,0.100,-0.170
6444,0.125,-0.180
6445,0.135,-0.130
6446,0.175,-0.085
6447,0.165,-0.095
6448,0.130,-0.055
6449,0.130,-0.015
6450,0.130,-0.030
6451,0.170,0.000
6452,0.130,-0.015
6453,0.115,0.000
6454,0.135,0.050
6455,0.155,0.060
6456,0.145,0.040
6457,0.115,0.025
6458,0.115,-0.010
6459,0.130,-0.035
6460,0.185,-0.020
6461,0.160,-0.050
6462,0.130,-0.170
6463,0.105,-0.210
6464,0.120,-0.215
6465,0.095,-0.215
6466,0.075,-0.225
6467,0.020,-0.240
6468,0.055,-0.260
6469,0.050,-0.230
6470,0.075,-0.225
6471,0.065,-0.265
6472,0.060,-0.280
6473,0.050,-0.245
6474,0.080,-0.255
6475,0.095,-0.235
6476,0.110,-0.245
6477,0.065,-0.265
6478,0.075,-0.230
6479,0.065,-0.205
6480,0.085,-0.210
6481,0.050,-0.235
6482,0.040,-0.260
6483,0.035,-0.220
6484,0.050,-0.235
6485,0.080,-0.245
6486,0.050,-0.270
6487,0.020,-0.260
6488,0.005,-0.215
6489,0.045,-0.230
6490,0.040,-0.295
6491,0.045,-0.285
6492,0.000,-0.255
6493,0.030,-0.250
6494,0.045,-0.240
6495,0.050,-0.255
6496,0.015,-0.260
6497,0.015,-0.270
6498,0.030,-0.265
6499,0.055,-0.240
6500,0.040,-0.240
6501,0.025,-0.240
6502,0.010,-0.240
6503,0.010,-0.225
6504,0.040,-0.265
6505,0.050,-0.290
6506,0.020,-0.260
6507,0.000,-0.245
6508,0.010,-0.280
6509,0.030,-0.250
6510,0.030,-0.290
6511,0.000,-0.290
6512,-0.015,-0.260
6513,0.015,-0.225
6514,0.015,-0.255
6515,0.025,-0.275
6516,0.000,-0.260
6517,0.010,-0.215
6518,0.045,-0.215
6519,0.095,-0.215
6520,0.115,-0.190
6521,0.085,-0.130
6522,0.100,-0.070
6523,0.115,-0.050
6524,0.095,-0.120
6525,0.045,-0.155
6526,0.020,-0.145
6527,0.025,-0.160
6528,0.050,-0.280
6529,0.035,-0.285
6530,0.000,-0.280
6531,-0.025,-0.290
6532,0.005,-0.290
6533,0.020,-0.260
6534,0.005,-0.305
6535,-0.005,-0.305
6536,0.000,-0.275
6537,0.055,-0.275
6538,0.310,-0.170
6539,0.610,0.275
6540,0.430,0.870
6541,-0.570,0.775
6542,-1.255,0.040
6543,-1.640,-0.190
6544,-1.365,-0.040
6545,-0.750,-0.200
6546,-0.320,-0.290
6547,-0.090,-0.310
6548,-0.025,-0.310
6549,0.000,-0.335
6550,0.000,-0.305
6551,-0.015,-0.290
6552,0.035,-0.330
6553,0.045,-0.325
6554,0.020,-0.345
6555,0.010,-0.335
6556,0.025,-0.310
6557,0.045,-0.315
6558,0.040,-0.340
6559,0.030,-0.350
6560,0.035,-0.330
6561,0.060,-0.305
6562,0.060,-0.290
6563,0.075,-0.290
6564,0.055,-0.285
6565,0.050,-0.280
6566,0.060,-0.230
6567,0.090,-0.220
6568,0.095,-0.180
6569,0.065,-0.180
6570,0.050,-0.175
6571,0.060,-0.145
6572,0.105,-0.095
6573,0.085,-0.090
6574,0.040,-0.065
6575,0.020,-0.035
6576,0.015,-0.030
6577,0.040,-0.020
6578,0.020,0.005
6579,-0.005,0.005
6580,-0.005,0.020
6581,0.015,0.010
6582,0.045,-0.030
6583,0.020,-0.080
6584,0.010,-0.120
6585,0.025,-0.115
6586,0.050,-0.145
6587,0.020,-0.235
6588,-0.015,-0.260
6589,-0.045,-0.255
6590,-0.040,-0.260
6591,-0.020,-0.260
6592,-0.050,-0.280
6593,-0.090,-0.280
6594,-0.055,-0.270
6595,-0.035,-0.270
6596,-0.035,-0.240
6597,-0.020,-0.275
6598,-0.030,-0.295
6599,-0.045,-0.295
6600,-0.005,-0.260
6601,-0.025,-0.255
6602,-0.025,-0.275
6603,-0.045,-0.285
6604,-0.060,-0.260
6605,-0.040,-0.240
6606,-0.045,-0.255
6607,-0.055,-0.255
6608,-0.105,-0.280
6609,-0.090,-0.255
6610,-0.065,-0.260
6611,-0.085,-0.300
6612,-0.065,-0.280
6613,-0.105,-0.290
6614,-0.130,-0.285
6615,-0.080,-0.285
6616,-0.085,-0.295
6617,-0.115,-0.310
6618,-0.120,-0.265
6619,-0.120,-0.250
6620,-0.090,-0.255
6621,-0.080,-0.275
6622,-0.115,-0.275
6623,-0.110,-0.260
6624,-0.080,-0.280
6625,-0.070,-0.285
6626,-0.080,-0.280
6627,-0.100,-0.275
6628,-0.100,-0.235
6629,-0.090,-0.250
6630,-0.105,-0.255
6631,-0.085,-0.250
6632,-0.115,-0.260
6633,-0.105,-0.255
6634,-0.090,-0.220
6635,-0.090,-0.235
6636,-0.120,-0.270
6637,-0.110,-0.280
6638,-0.125,-0.220
6639,-0.075,-0.210
6640,-0.050,-0.220
6641,-0.035,-0.205
6642,-0.040,-0.185
6643,-0.010,-0.105
6644,-0.005,-0.045
6645,-0.010,-0.045
6646,-0.085,-0.105
6647,-0.130,-0.120
6648,-0.125,-0.155
6649,-0.085,-0.215
6650,-0.080,-0.270
6651,-0.140,-0.265
6652,-0.170,-0.265
6653,-0.155,-0.260
6654,-0.120,-0.240
6655,-0.140,-0.270
6656,-0.165,-0.270
6657,-0.150,-0.220
6658,-0.140,-0.240
6659,-0.050,-0.245
6660,0.185,-0.130
6661,0.460,0.265
6662,0.375,0.810
6663,-0.605,0.670
6664,-1.360,-0.040
6665,-1.735,-0.290
6666,-1.450,-0.180
6667,-0.870,-0.180
6668,-0.450,-0.205
6669,-0.215,-0.230
6670,-0.165,-0.265
6671,-0.145,-0.285
6672,-0.125,-0.260
6673,-0.095,-0.240
