'sample interval','ECG0','ECG1'
'0.0078125 sec','mV','mV'
0,0.110,-0.195
1,0.125,-0.115
2,0.145,-0.075
3,0.165,-0.075
4,0.140,-0.120
5,0.100,-0.155
6,0.075,-0.145
7,0.115,-0.200
8,0.115,-0.275
9,0.095,-0.320
10,0.085,-0.335
11,0.070,-0.330
12,0.085,-0.325
13,0.110,-0.325
14,0.090,-0.330
15,0.085,-0.315
16,0.095,-0.300
17,0.115,-0.285
18,0.150,-0.320
19,0.125,-0.345
20,0.165,-0.145
21,0.235,0.315
22,0.270,0.815
23,0.145,0.470
24,-0.015,-0.245
25,-0.160,-0.340
26,-0.065,-0.175
27,0.035,-0.210
28,0.105,-0.260
29,0.105,-0.305
30,0.095,-0.300
31,0.120,-0.285
32,0.130,-0.310
33,0.115,-0.315
34,0.095,-0.315
35,0.095,-0.305
36,0.120,-0.310
37,0.135,-0.305
38,0.130,-0.315
39,0.080,-0.315
40,0.085,-0.290
41,0.115,-0.285
42,0.115,-0.290
43,0.110,-0.295
44,0.080,-0.300
45,0.090,-0.260
46,0.120,-0.270
47,0.115,-0.265
48,0.100,-0.260
49,0.080,-0.225
50,0.100,-0.185
51,0.115,-0.180
52,0.130,-0.160
53,0.110,-0.170
54,0.090,-0.150
55,0.105,-0.120
56,0.120,-0.100
57,0.105,-0.115
58,0.090,-0.095
59,0.095,-0.065
60,0.115,-0.065
61,0.110,-0.070
62,0.120,-0.080
63,0.065,-0.095
64,0.090,-0.095
65,0.110,-0.125
66,0.110,-0.165
67,0.095,-0.180
68,0.065,-0.200
69,0.095,-0.225
70,0.095,-0.255
71,0.115,-0.270
72,0.075,-0.260
73,0.070,-0.265
74,0.105,-0.240
75,0.095,-0.255
76,0.095,-0.255
77,0.085,-0.260
78,0.090,-0.240
79,0.110,-0.230
80,0.110,-0.255
81,0.105,-0.260
82,0.075,-0.255
83,0.080,-0.225
84,0.095,-0.225
85,0.110,-0.245
86,0.095,-0.255
87,0.080,-0.260
88,0.095,-0.255
89,0.100,-0.245
90,0.100,-0.255
91,0.075,-0.275
92,0.070,-0.260
93,0.085,-0.255
94,0.100,-0.250
95,0.090,-0.285
96,0.065,-0.280
97,0.075,-0.265
98,0.095,-0.250
99,0.095,-0.275
100,0.085,-0.275
101,0.085,-0.275
102,0.115,-0.285
103,0.120,-0.285
104,0.110,-0.295
105,0.075,-0.295
106,0.070,-0.275
107,0.085,-0.270
108,0.130,-0.280
109,0.110,-0.300
110,0.075,-0.275
111,0.105,-0.275
112,0.105,-0.260
113,0.105,-0.275
114,0.085,-0.280
115,0.085,-0.255
116,0.105,-0.245
117,0.125,-0.260
118,0.130,-0.260
119,0.105,-0.245
120,0.105,-0.205
121,0.135,-0.190
122,0.150,-0.180
123,0.160,-0.175
124,0.140,-0.120
125,0.135,-0.060
126,0.165,-0.075
127,0.160,-0.085
128,0.115,-0.130
129,0.105,-0.125
130,0.090,-0.195
131,0.125,-0.260
132,0.135,-0.295
133,0.095,-0.305
134,0.085,-0.300
135,0.095,-0.315
136,0.110,-0.300
137,0.125,-0.300
138,0.105,-0.310
139,0.115,-0.305
140,0.105,-0.280
141,0.135,-0.315
142,0.170,-0.295
143,0.160,0.065
144,0.240,0.695
145,0.200,0.815
146,0.075,0.115
147,-0.075,-0.315
148,-0.105,-0.155
149,0.025,-0.190
150,0.090,-0.245
151,0.115,-0.285
152,0.110,-0.285
153,0.095,-0.305
154,0.110,-0.290
155,0.120,-0.295
156,0.125,-0.295
157,0.105,-0.310
158,0.110,-0.300
159,0.130,-0.305
160,0.150,-0.315
161,0.130,-0.300
162,0.120,-0.315
163,0.115,-0.295
164,0.140,-0.290
165,0.130,-0.295
166,0.120,-0.295
167,0.095,-0.285
168,0.105,-0.265
169,0.135,-0.250
170,0.125,-0.250
171,0.130,-0.225
172,0.110,-0.195
173,0.135,-0.180
174,0.160,-0.165
175,0.155,-0.155
176,0.145,-0.145
177,0.130,-0.115
178,0.130,-0.110
179,0.145,-0.100
180,0.125,-0.110
181,0.100,-0.095
182,0.095,-0.065
183,0.115,-0.070
184,0.140,-0.075
185,0.125,-0.110
186,0.095,-0.135
187,0.090,-0.150
188,0.130,-0.170
189,0.125,-0.200
190,0.100,-0.230
191,0.100,-0.260
192,0.100,-0.260
193,0.110,-0.270
194,0.110,-0.280
195,0.095,-0.285
196,0.085,-0.280
197,0.095,-0.270
198,0.105,-0.265
199,0.120,-0.285
200,0.105,-0.290
201,0.085,-0.275
202,0.110,-0.255
203,0.140,-0.265
204,0.125,-0.275
205,0.100,-0.280
206,0.090,-0.265
207,0.115,-0.275
208,0.140,-0.270
209,0.130,-0.280
210,0.090,-0.285
211,0.085,-0.270
212,0.130,-0.285
213,0.135,-0.280
214,0.120,-0.295
215,0.100,-0.300
216,0.100,-0.285
217,0.130,-0.285
218,0.125,-0.305
219,0.100,-0.315
220,0.100,-0.305
221,0.100,-0.295
222,0.115,-0.305
223,0.105,-0.295
224,0.100,-0.310
225,0.090,-0.320
226,0.105,-0.285
227,0.125,-0.290
228,0.110,-0.310
229,0.095,-0.320
230,0.085,-0.300
231,0.110,-0.310
232,0.115,-0.295
233,0.105,-0.325
234,0.120,-0.300
235,0.095,-0.300
236,0.115,-0.290
237,0.130,-0.290
238,0.120,-0.310
239,0.090,-0.315
240,0.090,-0.285
241,0.120,-0.300
242,0.130,-0.285
243,0.130,-0.260
244,0.110,-0.250
245,0.130,-0.215
246,0.160,-0.210
247,0.185,-0.200
248,0.160,-0.135
249,0.170,-0.110
250,0.180,-0.095
251,0.185,-0.115
252,0.180,-0.150
253,0.140,-0.150
254,0.130,-0.220
255,0.140,-0.275
256,0.150,-0.295
257,0.155,-0.335
258,0.135,-0.350
259,0.110,-0.340
260,0.115,-0.315
261,0.140,-0.325
262,0.135,-0.325
263,0.135,-0.305
264,0.120,-0.315
265,0.125,-0.310
266,0.145,-0.335
267,0.185,-0.255
268,0.205,0.100
269,0.250,0.690
270,0.190,0.675
271,0.060,0.065
272,-0.075,-0.295
273,-0.075,-0.180
274,0.025,-0.230
275,0.070,-0.255
276,0.125,-0.310
277,0.130,-0.355
278,0.125,-0.335
279,0.110,-0.355
280,0.125,-0.325
281,0.145,-0.330
282,0.135,-0.335
283,0.125,-0.350
284,0.120,-0.355
285,0.120,-0.340
286,0.135,-0.340
287,0.130,-0.350
288,0.120,-0.350
289,0.115,-0.355
290,0.130,-0.350
291,0.155,-0.345
292,0.150,-0.345
293,0.135,-0.330
294,0.110,-0.330
295,0.130,-0.295
296,0.140,-0.280
297,0.135,-0.295
298,0.135,-0.280
299,0.140,-0.260
300,0.145,-0.230
301,0.175,-0.205
302,0.165,-0.200
303,0.125,-0.195
304,0.115,-0.185
305,0.115,-0.155
306,0.160,-0.165
307,0.135,-0.155
308,0.115,-0.135
309,0.120,-0.125
310,0.115,-0.120
311,0.130,-0.120
312,0.125,-0.160
313,0.100,-0.175
314,0.110,-0.215
315,0.120,-0.220
316,0.125,-0.260
317,0.105,-0.290
318,0.100,-0.305
319,0.105,-0.325
320,0.115,-0.315
321,0.130,-0.320
322,0.110,-0.375
323,0.090,-0.380
324,0.085,-0.355
325,0.110,-0.340
326,0.100,-0.330
327,0.115,-0.350
328,0.080,-0.350
329,0.075,-0.340
330,0.095,-0.330
331,0.105,-0.335
332,0.115,-0.345
333,0.105,-0.335
334,0.105,-0.320
335,0.115,-0.300
336,0.125,-0.320
337,0.110,-0.350
338,0.095,-0.360
339,0.095,-0.355
340,0.110,-0.350
341,0.125,-0.315
342,0.095,-0.350
343,0.080,-0.360
344,0.105,-0.350
345,0.100,-0.365
346,0.115,-0.365
347,0.105,-0.360
348,0.085,-0.375
349,0.100,-0.355
350,0.110,-0.350
351,0.130,-0.355
352,0.100,-0.375
353,0.095,-0.360
354,0.085,-0.350
355,0.120,-0.340
356,0.120,-0.360
357,0.100,-0.370
358,0.095,-0.355
359,0.080,-0.340
360,0.130,-0.340
361,0.115,-0.350
362,0.090,-0.380
363,0.090,-0.375
364,0.090,-0.340
365,0.105,-0.340
366,0.110,-0.330
367,0.085,-0.360
368,0.050,-0.365
369,0.080,-0.330
370,0.110,-0.325
371,0.125,-0.300
372,0.125,-0.280
373,0.120,-0.280
374,0.145,-0.255
375,0.150,-0.225
376,0.180,-0.195
377,0.145,-0.180
378,0.135,-0.175
379,0.130,-0.190
380,0.135,-0.200
381,0.145,-0.235
382,0.130,-0.315
383,0.105,-0.355
384,0.120,-0.355
385,0.125,-0.355
386,0.135,-0.385
387,0.100,-0.380
388,0.095,-0.395
389,0.090,-0.365
390,0.110,-0.370
391,0.130,-0.375
392,0.115,-0.380
393,0.095,-0.365
394,0.140,-0.380
395,0.175,-0.265
396,0.225,0.080
397,0.235,0.505
398,0.135,0.405
399,0.010,-0.195
400,-0.090,-0.470
401,-0.070,-0.310
402,0.015,-0.295
403,0.070,-0.360
404,0.075,-0.360
405,0.125,-0.380
406,0.120,-0.380
407,0.115,-0.405
408,0.110,-0.395
409,0.100,-0.385
410,0.120,-0.375
411,0.120,-0.375
412,0.115,-0.395
413,0.095,-0.385
414,0.100,-0.385
415,0.120,-0.375
416,0.130,-0.370
417,0.105,-0.395
418,0.100,-0.390
419,0.100,-0.355
420,0.130,-0.360
421,0.135,-0.365
422,0.120,-0.355
423,0.110,-0.360
424,0.120,-0.305
425,0.140,-0.310
426,0.125,-0.310
427,0.120,-0.310
428,0.105,-0.265
429,0.110,-0.250
430,0.135,-0.205
431,0.120,-0.220
432,0.115,-0.200
433,0.085,-0.190
434,0.085,-0.180
435,0.125,-0.155
436,0.120,-0.155
437,0.110,-0.160
438,0.105,-0.150
439,0.105,-0.165
440,0.115,-0.140
441,0.110,-0.180
442,0.100,-0.230
443,0.085,-0.245
444,0.100,-0.235
445,0.115,-0.275
446,0.120,-0.285
447,0.090,-0.320
448,0.085,-0.325
449,0.090,-0.310
450,0.120,-0.315
451,0.105,-0.345
452,0.075,-0.350
453,0.090,-0.350
454,0.080,-0.335
455,0.110,-0.325
456,0.120,-0.325
457,0.100,-0.340
458,0.095,-0.300
459,0.100,-0.300
460,0.120,-0.300
461,0.130,-0.320
462,0.105,-0.335
463,0.105,-0.330
464,0.105,-0.315
465,0.140,-0.300
466,0.120,-0.330
467,0.090,-0.350
468,0.055,-0.345
469,0.090,-0.325
470,0.110,-0.330
471,0.105,-0.345
472,0.085,-0.355
473,0.080,-0.355
474,0.100,-0.330
475,0.120,-0.335
476,0.115,-0.360
477,0.105,-0.360
478,0.090,-0.340
479,0.100,-0.340
480,0.120,-0.335
481,0.115,-0.340
482,0.100,-0.355
483,0.095,-0.335
484,0.115,-0.325
485,0.145,-0.320
486,0.110,-0.340
487,0.115,-0.345
488,0.105,-0.330
489,0.100,-0.330
490,0.115,-0.330
491,0.110,-0.345
492,0.090,-0.355
493,0.090,-0.340
494,0.115,-0.325
495,0.105,-0.320
496,0.115,-0.325
497,0.090,-0.335
498,0.105,-0.300
499,0.135,-0.275
500,0.170,-0.255
501,0.145,-0.255
502,0.140,-0.230
503,0.140,-0.190
504,0.185,-0.145
505,0.195,-0.140
506,0.160,-0.145
507,0.130,-0.185
508,0.110,-0.165
509,0.140,-0.200
510,0.155,-0.290
511,0.130,-0.320
512,0.100,-0.330
513,0.105,-0.350
514,0.120,-0.330
515,0.125,-0.335
516,0.105,-0.340
517,0.115,-0.350
518,0.120,-0.310
519,0.135,-0.305
520,0.145,-0.310
521,0.140,-0.340
522,0.150,-0.320
523,0.185,-0.045
524,0.260,0.390
525,0.225,0.665
526,0.075,0.145
527,-0.070,-0.405
528,-0.110,-0.300
529,0.040,-0.210
530,0.110,-0.270
531,0.095,-0.310
532,0.110,-0.330
533,0.110,-0.310
534,0.150,-0.310
535,0.130,-0.320
536,0.130,-0.325
537,0.105,-0.335
538,0.110,-0.310
539,0.140,-0.325
540,0.150,-0.320
541,0.125,-0.340
542,0.115,-0.315
543,0.135,-0.315
544,0.155,-0.305
545,0.145,-0.305
546,0.125,-0.285
547,0.135,-0.260
548,0.140,-0.255
549,0.155,-0.250
550,0.150,-0.235
551,0.120,-0.245
552,0.130,-0.225
553,0.140,-0.205
554,0.150,-0.160
555,0.140,-0.160
556,0.140,-0.160
557,0.140,-0.115
558,0.145,-0.095
559,0.155,-0.105
560,0.135,-0.110
561,0.125,-0.070
562,0.140,-0.050
563,0.160,-0.030
564,0.150,-0.025
565,0.135,-0.040
566,0.120,-0.060
567,0.140,-0.055
568,0.150,-0.100
569,0.160,-0.150
570,0.115,-0.165
571,0.110,-0.185
572,0.115,-0.190
573,0.145,-0.220
574,0.125,-0.235
575,0.100,-0.235
576,0.100,-0.230
577,0.100,-0.210
578,0.135,-0.245
579,0.120,-0.225
580,0.115,-0.240
581,0.090,-0.225
582,0.120,-0.195
583,0.145,-0.215
584,0.130,-0.220
585,0.115,-0.220
586,0.115,-0.205
587,0.120,-0.200
588,0.145,-0.205
589,0.125,-0.220
590,0.100,-0.230
591,0.115,-0.225
592,0.130,-0.225
593,0.140,-0.225
594,0.105,-0.240
595,0.110,-0.245
596,0.115,-0.235
597,0.145,-0.225
598,0.125,-0.240
599,0.120,-0.260
600,0.105,-0.260
601,0.125,-0.230
602,0.150,-0.245
603,0.155,-0.265
604,0.125,-0.255
605,0.120,-0.260
606,0.145,-0.240
607,0.140,-0.245
608,0.150,-0.270
609,0.105,-0.275
610,0.115,-0.255
611,0.135,-0.240
612,0.140,-0.265
613,0.120,-0.280
614,0.115,-0.265
615,0.120,-0.250
616,0.155,-0.240
617,0.150,-0.265
618,0.100,-0.275
619,0.100,-0.270
620,0.130,-0.255
621,0.170,-0.250
622,0.130,-0.260
623,0.115,-0.255
624,0.115,-0.225
625,0.145,-0.195
626,0.160,-0.180
627,0.160,-0.170
628,0.150,-0.140
629,0.155,-0.065
630,0.185,-0.060
631,0.180,-0.070
632,0.160,-0.115
633,0.120,-0.120
634,0.140,-0.145
635,0.180,-0.235
636,0.150,-0.280
637,0.135,-0.290
638,0.130,-0.290
639,0.125,-0.270
640,0.170,-0.270
641,0.145,-0.285
642,0.125,-0.280
643,0.140,-0.250
644,0.155,-0.265
645,0.190,-0.285
646,0.175,-0.290
647,0.205,-0.035
648,0.280,0.555
649,0.255,0.815
650,0.100,0.210
651,-0.070,-0.275
652,-0.090,-0.155
653,0.055,-0.165
654,0.125,-0.215
655,0.135,-0.270
656,0.125,-0.290
657,0.140,-0.280
658,0.160,-0.270
659,0.160,-0.275
660,0.140,-0.305
661,0.150,-0.295
662,0.150,-0.280
663,0.175,-0.285
664,0.165,-0.275
665,0.160,-0.295
666,0.140,-0.300
667,0.150,-0.270
668,0.170,-0.265
669,0.170,-0.265
670,0.155,-0.280
671,0.140,-0.260
672,0.150,-0.235
673,0.175,-0.245
674,0.140,-0.235
675,0.130,-0.220
676,0.150,-0.200
677,0.175,-0.170
678,0.175,-0.170
679,0.175,-0.150
680,0.145,-0.135
681,0.155,-0.100
682,0.170,-0.065
683,0.195,-0.055
684,0.150,-0.065
685,0.140,-0.050
686,0.160,-0.025
687,0.175,-0.035
688,0.185,-0.040
689,0.155,-0.065
690,0.155,-0.090
691,0.175,-0.105
692,0.165,-0.140
693,0.155,-0.175
694,0.120,-0.195
695,0.120,-0.220
696,0.155,-0.225
697,0.165,-0.250
698,0.120,-0.265
699,0.105,-0.250
700,0.150,-0.235
701,0.155,-0.235
702,0.150,-0.260
703,0.140,-0.260
704,0.130,-0.240
705,0.150,-0.230
706,0.160,-0.230
707,0.160,-0.255
708,0.125,-0.245
709,0.120,-0.255
710,0.145,-0.245
711,0.140,-0.240
712,0.130,-0.255
713,0.100,-0.265
714,0.120,-0.245
715,0.140,-0.265
716,0.150,-0.265
717,0.145,-0.275
718,0.105,-0.270
719,0.120,-0.250
720,0.135,-0.250
721,0.135,-0.275
722,0.130,-0.275
723,0.105,-0.275
724,0.145,-0.265
725,0.150,-0.265
726,0.150,-0.285
727,0.115,-0.275
728,0.135,-0.295
729,0.150,-0.265
730,0.155,-0.280
731,0.160,-0.295
732,0.115,-0.295
733,0.130,-0.295
734,0.140,-0.270
735,0.175,-0.275
736,0.135,-0.310
737,0.130,-0.275
738,0.150,-0.270
739,0.155,-0.275
740,0.165,-0.290
741,0.150,-0.285
742,0.140,-0.295
743,0.155,-0.270
744,0.180,-0.260
745,0.165,-0.245
746,0.155,-0.225
747,0.160,-0.225
748,0.195,-0.185
749,0.225,-0.170
750,0.205,-0.150
751,0.190,-0.120
752,0.190,-0.105
753,0.190,-0.115
754,0.190,-0.140
755,0.145,-0.165
756,0.145,-0.230
757,0.145,-0.270
758,0.165,-0.290
759,0.170,-0.315
760,0.160,-0.315
761,0.160,-0.310
762,0.175,-0.295
763,0.180,-0.290
764,0.180,-0.295
765,0.160,-0.285
766,0.165,-0.280
767,0.170,-0.275
768,0.230,-0.315
769,0.275,-0.110
770,0.285,0.375
771,0.265,0.850
772,0.170,0.435
773,0.045,-0.170
774,-0.035,-0.205
775,0.045,-0.145
776,0.105,-0.210
777,0.170,-0.250
778,0.205,-0.265
779,0.195,-0.270
780,0.165,-0.295
781,0.165,-0.295
782,0.195,-0.280
783,0.210,-0.275
784,0.195,-0.295
785,0.160,-0.295
786,0.185,-0.280
787,0.200,-0.280
788,0.220,-0.285
789,0.180,-0.295
790,0.175,-0.305
791,0.185,-0.285
792,0.220,-0.265
793,0.215,-0.270
794,0.200,-0.270
795,0.165,-0.270
796,0.180,-0.235
797,0.180,-0.210
798,0.205,-0.205
799,0.185,-0.200
800,0.170,-0.180
801,0.185,-0.160
802,0.205,-0.135
803,0.210,-0.135
804,0.195,-0.110
805,0.190,-0.095
806,0.170,-0.075
807,0.195,-0.055
808,0.195,-0.050
809,0.185,-0.055
810,0.175,-0.040
811,0.185,-0.020
812,0.200,-0.035
813,0.190,-0.040
814,0.190,-0.095
815,0.180,-0.110
816,0.180,-0.110
817,0.205,-0.150
818,0.205,-0.165
819,0.185,-0.195
820,0.175,-0.220
821,0.155,-0.205
822,0.195,-0.210
823,0.190,-0.215
824,0.165,-0.230
825,0.150,-0.240
826,0.165,-0.220
827,0.170,-0.200
828,0.185,-0.225
829,0.175,-0.240
830,0.150,-0.235
831,0.165,-0.240
832,0.160,-0.215
833,0.170,-0.235
834,0.140,-0.235
835,0.115,-0.235
836,0.140,-0.215
837,0.150,-0.220
838,0.165,-0.245
839,0.135,-0.240
840,0.125,-0.245
841,0.150,-0.250
842,0.170,-0.240
843,0.165,-0.245
844,0.160,-0.245
845,0.140,-0.280
846,0.150,-0.285
847,0.180,-0.260
848,0.165,-0.275
849,0.165,-0.290
850,0.160,-0.275
851,0.155,-0.260
852,0.180,-0.255
853,0.190,-0.295
854,0.145,-0.285
855,0.145,-0.285
856,0.145,-0.275
857,0.165,-0.280
858,0.190,-0.285
859,0.160,-0.285
860,0.145,-0.280
861,0.150,-0.275
862,0.170,-0.265
863,0.175,-0.280
864,0.180,-0.290
865,0.165,-0.295
866,0.130,-0.295
867,0.170,-0.260
868,0.170,-0.295
869,0.155,-0.290
870,0.155,-0.270
871,0.175,-0.255
872,0.185,-0.235
873,0.205,-0.225
874,0.200,-0.225
875,0.190,-0.195
876,0.200,-0.140
877,0.255,-0.120
878,0.205,-0.145
879,0.180,-0.160
880,0.170,-0.195
881,0.160,-0.210
882,0.195,-0.270
883,0.195,-0.315
884,0.170,-0.345
885,0.130,-0.350
886,0.155,-0.340
887,0.170,-0.330
888,0.185,-0.345
889,0.185,-0.355
890,0.160,-0.340
891,0.140,-0.325
892,0.185,-0.300
893,0.210,-0.310
894,0.210,-0.330
895,0.220,-0.250
896,0.265,0.015
897,0.335,0.450
898,0.265,0.575
899,0.125,-0.005
900,-0.005,-0.425
901,-0.020,-0.285
902,0.110,-0.215
903,0.170,-0.235
904,0.195,-0.290
905,0.190,-0.305
906,0.175,-0.310
907,0.205,-0.300
908,0.210,-0.320
909,0.215,-0.305
910,0.185,-0.305
911,0.180,-0.325
912,0.185,-0.310
913,0.205,-0.305
914,0.185,-0.325
915,0.170,-0.340
916,0.165,-0.295
917,0.185,-0.295
918,0.170,-0.305
919,0.190,-0.315
920,0.170,-0.310
921,0.155,-0.290
922,0.190,-0.285
923,0.195,-0.250
924,0.190,-0.270
925,0.175,-0.245
926,0.180,-0.230
927,0.170,-0.190
928,0.205,-0.180
929,0.190,-0.195
930,0.155,-0.150
931,0.180,-0.110
932,0.180,-0.115
933,0.180,-0.085
934,0.165,-0.115
935,0.165,-0.085
936,0.140,-0.070
937,0.155,-0.040
938,0.185,-0.055
939,0.165,-0.055
940,0.135,-0.080
941,0.150,-0.105
942,0.155,-0.095
943,0.175,-0.135
944,0.170,-0.185
945,0.140,-0.215
946,0.145,-0.205
947,0.160,-0.210
948,0.175,-0.220
949,0.150,-0.245
950,0.140,-0.245
951,0.130,-0.240
952,0.170,-0.250
953,0.170,-0.250
954,0.155,-0.245
955,0.135,-0.240
956,0.125,-0.255
957,0.145,-0.270
958,0.170,-0.260
959,0.135,-0.275
960,0.115,-0.270
961,0.110,-0.245
962,0.130,-0.245
963,0.130,-0.255
964,0.125,-0.270
965,0.115,-0.285
966,0.130,-0.290
967,0.150,-0.285
968,0.155,-0.315
969,0.140,-0.320
970,0.130,-0.330
971,0.145,-0.335
972,0.170,-0.340
973,0.170,-0.330
974,0.160,-0.365
975,0.160,-0.370
976,0.195,-0.355
977,0.205,-0.345
978,0.190,-0.380
979,0.185,-0.370
980,0.165,-0.360
981,0.180,-0.340
982,0.225,-0.360
983,0.195,-0.370
984,0.190,-0.365
985,0.190,-0.370
986,0.200,-0.355
987,0.220,-0.350
988,0.215,-0.330
989,0.210,-0.365
990,0.195,-0.360
991,0.210,-0.340
992,0.230,-0.335
993,0.215,-0.335
994,0.205,-0.360
995,0.200,-0.315
996,0.230,-0.285
997,0.245,-0.255
998,0.260,-0.255
999,0.230,-0.245
1000,0.255,-0.195
1001,0.250,-0.135
1002,0.270,-0.145
1003,0.225,-0.155
1004,0.210,-0.180
1005,0.200,-0.190
1006,0.235,-0.235
1007,0.235,-0.305
1008,0.200,-0.345
1009,0.195,-0.350
1010,0.190,-0.355
1011,0.205,-0.345
1012,0.225,-0.330
1013,0.210,-0.315
1014,0.200,-0.310
1015,0.195,-0.305
1016,0.220,-0.280
1017,0.225,-0.305
1018,0.230,-0.335
1019,0.255,-0.110
1020,0.310,0.370
1021,0.330,0.805
1022,0.220,0.390
1023,0.055,-0.290
1024,-0.015,-0.305
1025,0.085,-0.175
1026,0.170,-0.205
1027,0.230,-0.265
1028,0.210,-0.280
1029,0.210,-0.280
1030,0.215,-0.275
1031,0.245,-0.275
1032,0.230,-0.300
1033,0.215,-0.300
1034,0.225,-0.310
1035,0.230,-0.285
1036,0.260,-0.285
1037,0.255,-0.305
1038,0.210,-0.310
1039,0.220,-0.290
1040,0.235,-0.290
1041,0.265,-0.275
1042,0.260,-0.275
1043,0.220,-0.305
1044,0.220,-0.260
1045,0.255,-0.255
1046,0.255,-0.250
1047,0.245,-0.230
1048,0.230,-0.220
1049,0.225,-0.195
1050,0.250,-0.190
1051,0.285,-0.150
1052,0.255,-0.140
1053,0.230,-0.115
1054,0.240,-0.110
1055,0.270,-0.070
1056,0.255,-0.080
1057,0.260,-0.065
1058,0.220,-0.025
1059,0.245,-0.015
1060,0.265,-0.035
1061,0.240,-0.050
1062,0.240,-0.070
1063,0.230,-0.060
1064,0.260,-0.080
1065,0.265,-0.135
1066,0.265,-0.170
1067,0.235,-0.185
1068,0.225,-0.210
1069,0.245,-0.200
1070,0.255,-0.210
1071,0.230,-0.240
1072,0.210,-0.250
1073,0.220,-0.230
1074,0.235,-0.225
1075,0.230,-0.235
1076,0.225,-0.230
1077,0.210,-0.235
1078,0.225,-0.205
1079,0.240,-0.210
1080,0.225,-0.210
1081,0.215,-0.230
1082,0.210,-0.215
1083,0.210,-0.215
1084,0.220,-0.210
1085,0.235,-0.230
1086,0.195,-0.250
1087,0.185,-0.240
1088,0.215,-0.230
1089,0.190,-0.245
1090,0.185,-0.260
1091,0.195,-0.275
1092,0.175,-0.255
1093,0.185,-0.245
1094,0.185,-0.255
1095,0.170,-0.280
1096,0.150,-0.275
1097,0.155,-0.260
1098,0.155,-0.260
1099,0.155,-0.275
1100,0.145,-0.285
1101,0.145,-0.285
1102,0.145,-0.260
1103,0.175,-0.265
1104,0.160,-0.255
1105,0.180,-0.290
1106,0.150,-0.275
1107,0.160,-0.270
1108,0.190,-0.280
1109,0.185,-0.285
1110,0.175,-0.290
1111,0.185,-0.285
1112,0.160,-0.260
1113,0.195,-0.265
1114,0.185,-0.280
1115,0.150,-0.265
1116,0.135,-0.240
1117,0.190,-0.205
1118,0.190,-0.200
1119,0.205,-0.210
1120,0.175,-0.160
1121,0.170,-0.095
1122,0.210,-0.095
1123,0.200,-0.110
1124,0.175,-0.145
1125,0.135,-0.150
1126,0.140,-0.195
1127,0.160,-0.280
1128,0.165,-0.320
1129,0.135,-0.340
1130,0.120,-0.330
1131,0.145,-0.295
1132,0.170,-0.300
1133,0.145,-0.330
1134,0.130,-0.335
1135,0.135,-0.320
1136,0.130,-0.305
1137,0.170,-0.325
1138,0.190,-0.335
1139,0.205,-0.070
1140,0.260,0.505
1141,0.260,0.790
1142,0.130,0.230
1143,-0.015,-0.295
1144,-0.095,-0.190
1145,0.020,-0.170
1146,0.130,-0.240
1147,0.160,-0.315
1148,0.165,-0.330
1149,0.145,-0.325
1150,0.160,-0.300
1151,0.190,-0.320
1152,0.180,-0.325
1153,0.150,-0.335
1154,0.145,-0.330
1155,0.150,-0.310
1156,0.175,-0.300
1157,0.180,-0.320
1158,0.120,-0.315
1159,0.100,-0.315
1160,0.125,-0.310
1161,0.140,-0.295
1162,0.120,-0.320
1163,0.085,-0.315
1164,-0.135,-0.270
1165,-0.205,-0.270
1166,-0.180,-0.270
1167,-0.185,-0.270
1168,-0.185,-0.245
1169,-0.195,-0.215
1170,-0.190,-0.190
1171,-0.155,-0.180
1172,-0.180,-0.155
1173,-0.215,-0.135
1174,-0.195,-0.115
1175,-0.190,-0.105
1176,-0.185,-0.105
1177,-0.205,-0.070
1178,-0.220,-0.065
1179,-0.200,-0.055
1180,-0.170,-0.070
1181,-0.185,-0.075
1182,-0.220,-0.110
1183,-0.210,-0.120
1184,-0.205,-0.145
1185,-0.185,-0.185
1186,-0.185,-0.210
1187,-0.220,-0.225
1188,-0.240,-0.235
1189,-0.205,-0.230
1190,-0.190,-0.245
1191,-0.215,-0.265
1192,-0.235,-0.270
1193,-0.245,-0.240
1194,-0.315,-0.250
1195,-0.320,-0.255
1196,-0.330,-0.260
1197,-0.360,-0.250
1198,-0.315,-0.225
1199,-0.310,-0.220
1200,-0.320,-0.250
1201,-0.350,-0.245
1202,-0.375,-0.250
1203,-0.385,-0.220
1204,-0.415,-0.230
1205,-0.445,-0.250
1206,-0.470,-0.250
1207,-0.445,-0.260
1208,-0.440,-0.235
1209,-0.425,-0.260
1210,-0.455,-0.265
1211,-0.460,-0.270
1212,-0.460,-0.265
1213,-0.445,-0.250
1214,-0.450,-0.280
1215,-0.460,-0.320
1216,-0.460,-0.300
1217,-0.455,-0.285
1218,-0.450,-0.280
1219,-0.445,-0.285
1220,-0.480,-0.295
1221,-0.455,-0.285
1222,-0.455,-0.270
1223,-0.435,-0.290
1224,-0.435,-0.290
1225,-0.460,-0.295
1226,-0.480,-0.295
1227,-0.460,-0.295
1228,-0.450,-0.280
1229,-0.425,-0.295
1230,-0.455,-0.310
1231,-0.465,-0.300
1232,-0.440,-0.275
1233,-0.415,-0.285
1234,-0.455,-0.290
1235,-0.455,-0.305
1236,-0.435,-0.255
1237,-0.435,-0.225
1238,-0.405,-0.225
1239,-0.400,-0.220
1240,-0.400,-0.185
1241,-0.390,-0.110
1242,-0.355,-0.090
1243,-0.365,-0.125
1244,-0.400,-0.155
1245,-0.425,-0.160
1246,-0.405,-0.190
1247,-0.385,-0.260
1248,-0.400,-0.330
1249,-0.415,-0.330
1250,-0.415,-0.315
1251,-0.415,-0.320
1252,-0.385,-0.320
1253,-0.390,-0.330
1254,-0.395,-0.340
1255,-0.395,-0.305
1256,-0.390,-0.300
1257,-0.360,-0.330
1258,-0.365,-0.365
1259,-0.320,-0.165
1260,-0.360,0.310
1261,-0.240,0.790
1262,-0.355,0.365
1263,-0.515,-0.245
1264,-0.600,-0.275
1265,-0.470,-0.180
1266,-0.335,-0.230
1267,-0.285,-0.290
1268,-0.270,-0.310
1269,-0.240,-0.320
1270,-0.205,-0.290
1271,-0.195,-0.305
1272,-0.175,-0.300
1273,-0.195,-0.310
1274,-0.175,-0.310
1275,-0.135,-0.320
1276,-0.090,-0.315
1277,-0.080,-0.305
1278,-0.085,-0.335
1279,-0.075,-0.310
1280,-0.065,-0.280
1281,-0.055,-0.295
1282,-0.040,-0.285
1283,-0.070,-0.290
1284,-0.035,-0.280
1285,-0.020,-0.265
1286,-0.005,-0.250
1287,-0.005,-0.235
1288,-0.025,-0.220
1289,-0.025,-0.200
1290,0.005,-0.175
1291,0.015,-0.160
1292,0.000,-0.160
1293,0.000,-0.130
1294,0.000,-0.070
1295,0.000,-0.090
1296,0.000,-0.080
1297,0.000,-0.070
1298,0.000,-0.035
1299,0.020,-0.025
1300,0.030,-0.010
1301,0.040,-0.050
1302,0.030,-0.070
1303,0.015,-0.070
1304,0.040,-0.080
1305,0.055,-0.120
1306,0.050,-0.175
1307,0.035,-0.175
1308,0.050,-0.220
1309,0.060,-0.200
1310,0.080,-0.220
1311,0.090,-0.230
1312,0.090,-0.250
1313,0.110,-0.255
1314,0.205,-0.225
1315,0.310,-0.215
1316,0.330,-0.215
1317,0.295,-0.245
1318,0.295,-0.225
1319,0.325,-0.220
1320,0.350,-0.190
1321,0.340,-0.210
1322,0.295,-0.210
1323,0.315,-0.225
1324,0.310,-0.200
1325,0.335,-0.200
1326,0.335,-0.225
1327,0.300,-0.230
1328,0.300,-0.215
1329,0.305,-0.215
1330,0.335,-0.230
1331,0.315,-0.240
1332,0.305,-0.235
1333,0.315,-0.225
1334,0.315,-0.225
1335,0.330,-0.235
1336,0.325,-0.260
1337,0.300,-0.250
1338,0.285,-0.240
1339,0.325,-0.240
1340,0.310,-0.215
1341,0.325,-0.240
1342,0.300,-0.240
1343,0.290,-0.230
1344,0.335,-0.245
1345,0.330,-0.255
1346,0.315,-0.255
1347,0.305,-0.280
1348,0.295,-0.230
1349,0.335,-0.250
1350,0.330,-0.260
1351,0.305,-0.255
1352,0.300,-0.255
1353,0.290,-0.250
1354,0.310,-0.245
1355,0.310,-0.260
1356,0.315,-0.275
1357,0.285,-0.250
1358,0.295,-0.220
1359,0.325,-0.190
1360,0.320,-0.180
1361,0.325,-0.170
1362,0.325,-0.150
1363,0.340,-0.080
1364,0.355,-0.040
1365,0.370,-0.060
1366,0.350,-0.095
1367,0.305,-0.115
1368,0.305,-0.105
1369,0.315,-0.145
1370,0.340,-0.235
1371,0.315,-0.280
1372,0.265,-0.300
1373,0.275,-0.270
1374,0.300,-0.295
1375,0.310,-0.295
1376,0.305,-0.310
1377,0.275,-0.300
1378,0.275,-0.285
1379,0.295,-0.255
1380,0.310,-0.270
1381,0.300,-0.290
1382,0.330,-0.190
1383,0.365,0.150
1384,0.440,0.670
1385,0.355,0.670
1386,0.215,0.000
1387,0.090,-0.435
1388,0.070,-0.270
1389,0.185,-0.190
1390,0.275,-0.230
1391,0.280,-0.290
1392,0.280,-0.315
1393,0.280,-0.295
1394,0.290,-0.285
1395,0.300,-0.305
1396,0.300,-0.285
1397,0.285,-0.295
1398,0.280,-0.280
1399,0.295,-0.275
1400,0.300,-0.290
1401,0.300,-0.305
1402,0.260,-0.295
1403,0.275,-0.280
1404,0.295,-0.295
1405,0.310,-0.285
1406,0.290,-0.290
1407,0.265,-0.270
1408,0.295,-0.245
1409,0.300,-0.220
1410,0.310,-0.225
1411,0.290,-0.225
1412,0.295,-0.215
1413,0.290,-0.175
1414,0.290,-0.160
1415,0.300,-0.125
1416,0.305,-0.110
1417,0.280,-0.100
1418,0.280,-0.065
1419,0.285,-0.050
1420,0.315,-0.030
1421,0.300,-0.050
1422,0.275,-0.030
1423,0.280,0.000
1424,0.295,0.010
1425,0.315,0.025
1426,0.305,0.000
1427,0.265,-0.005
1428,0.290,-0.035
1429,0.290,-0.050
1430,0.310,-0.060
1431,0.310,-0.095
1432,0.280,-0.115
1433,0.255,-0.150
1434,0.280,-0.145
1435,0.300,-0.160
1436,0.280,-0.180
1437,0.260,-0.205
1438,0.250,-0.180
1439,0.265,-0.170
1440,0.285,-0.170
1441,0.300,-0.175
1442,0.275,-0.165
1443,0.250,-0.155
1444,0.290,-0.140
1445,0.295,-0.125
1446,0.300,-0.150
1447,0.285,-0.140
1448,0.280,-0.130
1449,0.270,-0.115
1450,0.320,-0.120
1451,0.315,-0.125
1452,0.260,-0.135
1453,0.250,-0.140
1454,0.250,-0.135
1455,0.265,-0.150
1456,0.275,-0.150
1457,0.260,-0.155
1458,0.245,-0.150
1459,0.255,-0.145
1460,0.285,-0.150
1461,0.280,-0.160
1462,0.250,-0.165
1463,0.245,-0.160
1464,0.250,-0.145
1465,0.275,-0.145
1466,0.255,-0.170
1467,0.255,-0.165
1468,0.235,-0.170
1469,0.255,-0.150
1470,0.275,-0.145
1471,0.270,-0.175
1472,0.265,-0.200
1473,0.225,-0.200
1474,0.220,-0.180
1475,0.270,-0.160
1476,0.260,-0.175
1477,0.225,-0.195
1478,0.230,-0.180
1479,0.245,-0.170
1480,0.240,-0.170
1481,0.265,-0.185
1482,0.230,-0.190
1483,0.215,-0.195
1484,0.210,-0.170
1485,0.225,-0.150
1486,0.245,-0.150
1487,0.240,-0.140
1488,0.235,-0.115
1489,0.245,-0.100
1490,0.280,-0.070
1491,0.305,-0.050
1492,0.280,-0.005
1493,0.260,-0.010
1494,0.255,-0.005
1495,0.250,-0.035
1496,0.265,-0.040
1497,0.250,-0.080
1498,0.215,-0.195
1499,0.205,-0.200
1500,0.220,-0.220
1501,0.220,-0.235
1502,0.225,-0.250
1503,0.200,-0.245
1504,0.190,-0.225
1505,0.215,-0.220
1506,0.210,-0.230
1507,0.210,-0.235
1508,0.180,-0.235
1509,0.205,-0.240
1510,0.270,-0.205
1511,0.320,0.110
1512,0.360,0.670
1513,0.275,0.915
1514,0.135,0.265
1515,0.020,-0.250
1516,-0.005,-0.110
1517,0.095,-0.095
1518,0.115,-0.180
1519,0.180,-0.220
1520,0.215,-0.240
1521,0.210,-0.240
1522,0.160,-0.255
1523,0.120,-0.250
1524,0.135,-0.245
1525,0.150,-0.245
1526,0.125,-0.260
1527,0.095,-0.265
1528,0.100,-0.250
1529,0.095,-0.245
1530,0.130,-0.245
1531,0.140,-0.240
1532,0.125,-0.260
1533,0.110,-0.260
1534,0.130,-0.225
1535,0.160,-0.225
1536,0.160,-0.235
1537,0.130,-0.215
1538,0.120,-0.210
1539,0.150,-0.165
1540,0.160,-0.150
1541,0.155,-0.150
1542,0.130,-0.120
1543,0.105,-0.100
1544,0.140,-0.070
1545,0.155,-0.065
1546,0.135,-0.070
1547,0.125,-0.050
1548,0.130,-0.010
1549,0.160,0.005
1550,0.160,0.015
1551,0.140,0.005
1552,0.130,0.010
1553,0.130,0.015
1554,0.145,0.025
1555,0.140,-0.020
1556,0.135,-0.050
1557,0.115,-0.080
1558,0.120,-0.095
1559,0.145,-0.115
1560,0.165,-0.145
1561,0.120,-0.170
1562,0.120,-0.175
1563,0.135,-0.165
1564,0.130,-0.165
1565,0.145,-0.175
1566,0.125,-0.170
1567,0.120,-0.165
1568,0.150,-0.145
1569,0.180,-0.160
1570,0.195,-0.165
1571,0.165,-0.155
1572,0.170,-0.155
1573,0.225,-0.130
1574,0.230,-0.135
1575,0.210,-0.170
1576,0.170,-0.165
1577,0.170,-0.155
1578,0.200,-0.145
1579,0.200,-0.160
1580,0.170,-0.160
1581,0.175,-0.180
1582,0.185,-0.160
1583,0.180,-0.150
1584,0.185,-0.180
1585,0.150,-0.195
1586,0.135,-0.190
1587,0.060,-0.180
1588,0.075,-0.180
1589,0.065,-0.195
1590,-0.020,-0.210
1591,-0.195,-0.210
1592,-0.165,-0.175
1593,-0.135,-0.195
1594,-0.130,-0.195
1595,-0.160,-0.215
1596,-0.170,-0.195
1597,-0.140,-0.185
1598,-0.145,-0.185
1599,-0.135,-0.230
1600,-0.175,-0.210
1601,-0.165,-0.190
1602,-0.150,-0.185
1603,-0.120,-0.200
1604,-0.175,-0.220
1605,-0.165,-0.205
1606,-0.170,-0.195
1607,-0.150,-0.210
1608,-0.150,-0.210
1609,-0.155,-0.215
1610,-0.160,-0.220
1611,-0.150,-0.185
1612,-0.120,-0.155
1613,-0.115,-0.150
1614,-0.145,-0.165
1615,-0.130,-0.120
1616,-0.110,-0.065
1617,-0.090,-0.020
1618,-0.100,-0.050
1619,-0.130,-0.055
1620,-0.160,-0.085
1621,-0.130,-0.085
1622,-0.120,-0.160
1623,-0.145,-0.235
1624,-0.170,-0.270
1625,-0.170,-0.265
1626,-0.165,-0.245
1627,-0.145,-0.265
1628,-0.150,-0.270
1629,-0.185,-0.290
1630,-0.170,-0.270
1631,-0.125,-0.255
1632,-0.150,-0.275
1633,-0.140,-0.275
1634,-0.135,-0.305
1635,-0.080,-0.160
1636,-0.010,0.300
1637,0.010,0.830
1638,-0.130,0.490
1639,-0.300,-0.120
1640,-0.410,-0.130
1641,-0.265,-0.105
1642,-0.185,-0.200
1643,-0.180,-0.270
1644,-0.145,-0.300
1645,-0.125,-0.270
1646,-0.150,-0.270
1647,-0.180,-0.285
1648,-0.170,-0.300
1649,-0.170,-0.280
1650,-0.130,-0.290
1651,-0.125,-0.285
1652,-0.135,-0.280
1653,-0.150,-0.290
1654,-0.150,-0.290
1655,-0.130,-0.280
1656,-0.145,-0.295
1657,-0.165,-0.295
1658,-0.160,-0.285
1659,-0.140,-0.265
1660,-0.130,-0.255
1661,-0.145,-0.255
1662,-0.150,-0.255
1663,-0.155,-0.205
1664,-0.145,-0.200
1665,-0.135,-0.195
1666,-0.120,-0.175
1667,-0.120,-0.155
1668,-0.125,-0.120
1669,-0.100,-0.105
1670,-0.105,-0.095
1671,-0.115,-0.080
1672,-0.130,-0.085
1673,-0.120,-0.055
1674,-0.100,-0.025
1675,-0.095,-0.030
1676,-0.110,-0.050
1677,-0.145,-0.055
1678,-0.280,-0.070
1679,-0.405,-0.090
1680,-0.405,-0.140
1681,-0.405,-0.175
1682,-0.420,-0.185
1683,-0.395,-0.190
1684,-0.385,-0.210
1685,-0.365,-0.230
1686,-0.410,-0.230
1687,-0.395,-0.230
1688,-0.405,-0.245
1689,-0.365,-0.225
1690,-0.385,-0.235
1691,-0.380,-0.230
1692,-0.375,-0.225
1693,-0.365,-0.225
1694,-0.360,-0.225
1695,-0.360,-0.235
1696,-0.360,-0.235
1697,-0.360,-0.200
1698,-0.320,-0.215
1699,-0.340,-0.230
1700,-0.375,-0.225
1701,-0.365,-0.240
1702,-0.360,-0.220
1703,-0.345,-0.240
1704,-0.355,-0.255
1705,-0.355,-0.265
1706,-0.375,-0.250
1707,-0.345,-0.240
1708,-0.335,-0.255
1709,-0.365,-0.265
1710,-0.345,-0.290
1711,-0.360,-0.260
1712,-0.335,-0.275
1713,-0.305,-0.290
1714,-0.330,-0.315
1715,-0.350,-0.310
1716,-0.330,-0.280
1717,-0.295,-0.270
1718,-0.300,-0.290
1719,-0.295,-0.295
1720,-0.325,-0.290
1721,-0.310,-0.270
1722,-0.295,-0.280
1723,-0.285,-0.305
1724,-0.300,-0.315
1725,-0.265,-0.285
1726,-0.225,-0.295
1727,-0.150,-0.275
1728,-0.125,-0.315
1729,-0.075,-0.310
1730,0.010,-0.310
1731,0.080,-0.285
1732,0.105,-0.280
1733,0.130,-0.290
1734,0.135,-0.250
1735,0.165,-0.230
1736,0.205,-0.225
1737,0.235,-0.170
1738,0.235,-0.135
1739,0.215,-0.135
1740,0.235,-0.120
1741,0.245,-0.155
1742,0.255,-0.170
1743,0.265,-0.240
1744,0.250,-0.320
1745,0.240,-0.330
1746,0.265,-0.335
1747,0.265,-0.360
1748,0.250,-0.365
1749,0.230,-0.345
1750,0.240,-0.350
1751,0.275,-0.335
1752,0.285,-0.340
1753,0.270,-0.360
1754,0.285,-0.345
1755,0.305,-0.365
1756,0.365,-0.270
1757,0.425,0.060
1758,0.430,0.590
1759,0.340,0.510
1760,0.220,-0.125
1761,0.085,-0.410
1762,0.120,-0.230
1763,0.215,-0.275
1764,0.270,-0.310
1765,0.325,-0.335
1766,0.325,-0.355
1767,0.295,-0.370
1768,0.300,-0.360
1769,0.320,-0.360
1770,0.340,-0.350
1771,0.340,-0.355
1772,0.350,-0.375
1773,0.315,-0.360
1774,0.305,-0.345
1775,0.340,-0.360
1776,0.345,-0.360
1777,0.325,-0.360
1778,0.320,-0.365
1779,0.310,-0.335
1780,0.335,-0.355
1781,0.340,-0.345
1782,0.320,-0.340
1783,0.305,-0.325
1784,0.325,-0.290
1785,0.340,-0.280
1786,0.340,-0.280
1787,0.320,-0.260
1788,0.310,-0.260
1789,0.335,-0.200
1790,0.355,-0.180
1791,0.315,-0.195
1792,0.320,-0.165
1793,0.310,-0.135
1794,0.335,-0.095
1795,0.360,-0.110
1796,0.350,-0.105
1797,0.330,-0.075
1798,0.325,-0.070
1799,0.355,-0.070
1800,0.365,-0.095
1801,0.370,-0.135
1802,0.330,-0.150
1803,0.340,-0.160
1804,0.360,-0.185
1805,0.360,-0.215
1806,0.335,-0.240
1807,0.315,-0.260
1808,0.305,-0.245
1809,0.340,-0.260
1810,0.345,-0.275
1811,0.345,-0.295
1812,0.335,-0.270
1813,0.335,-0.265
1814,0.355,-0.275
1815,0.350,-0.255
1816,0.340,-0.260
1817,0.325,-0.245
1818,0.330,-0.235
1819,0.330,-0.245
1820,0.335,-0.250
1821,0.325,-0.240
1822,0.305,-0.250
1823,0.315,-0.240
1824,0.340,-0.235
1825,0.345,-0.245
1826,0.305,-0.270
1827,0.295,-0.265
1828,0.315,-0.240
1829,0.315,-0.255
1830,0.315,-0.265
1831,0.290,-0.275
1832,0.290,-0.270
1833,0.315,-0.245
1834,0.310,-0.255
1835,0.315,-0.255
1836,0.305,-0.280
1837,0.300,-0.260
1838,0.310,-0.255
1839,0.315,-0.260
1840,0.325,-0.285
1841,0.275,-0.290
1842,0.280,-0.250
1843,0.295,-0.240
1844,0.320,-0.240
1845,0.270,-0.275
1846,0.265,-0.275
1847,0.265,-0.270
1848,0.280,-0.260
1849,0.315,-0.285
1850,0.280,-0.270
1851,0.270,-0.250
1852,0.270,-0.250
1853,0.300,-0.270
1854,0.315,-0.260
1855,0.285,-0.270
1856,0.250,-0.255
1857,0.275,-0.255
1858,0.295,-0.230
1859,0.305,-0.225
1860,0.305,-0.195
1861,0.290,-0.195
1862,0.310,-0.160
1863,0.320,-0.110
1864,0.315,-0.095
1865,0.280,-0.105
1866,0.275,-0.125
1867,0.250,-0.120
1868,0.265,-0.150
1869,0.270,-0.245
1870,0.250,-0.300
1871,0.210,-0.315
1872,0.200,-0.335
1873,0.225,-0.340
1874,0.230,-0.340
1875,0.215,-0.350
1876,0.210,-0.350
1877,0.205,-0.330
1878,0.220,-0.320
1879,0.245,-0.320
1880,0.220,-0.330
1881,0.230,-0.345
1882,0.280,-0.210
1883,0.330,0.145
1884,0.370,0.615
1885,0.275,0.545
1886,0.155,-0.080
1887,0.030,-0.440
1888,0.040,-0.280
1889,0.155,-0.245
1890,0.210,-0.300
1891,0.200,-0.335
1892,0.205,-0.335
1893,0.225,-0.335
1894,0.255,-0.355
1895,0.230,-0.370
1896,0.220,-0.345
1897,0.210,-0.360
1898,0.245,-0.335
1899,0.240,-0.355
1900,0.245,-0.375
1901,0.190,-0.355
1902,0.225,-0.335
1903,0.240,-0.340
1904,0.245,-0.355
1905,0.220,-0.355
1906,0.205,-0.330
1907,0.210,-0.335
1908,0.215,-0.315
1909,0.230,-0.310
1910,0.220,-0.320
1911,0.195,-0.310
1912,0.205,-0.275
1913,0.230,-0.260
1914,0.235,-0.240
1915,0.235,-0.220
1916,0.205,-0.205
1917,0.200,-0.180
1918,0.210,-0.155
1919,0.240,-0.145
1920,0.230,-0.155
1921,0.205,-0.130
1922,0.215,-0.120
1923,0.215,-0.080
1924,0.235,-0.085
1925,0.240,-0.065
1926,0.220,-0.085
1927,0.220,-0.090
1928,0.240,-0.085
1929,0.260,-0.110
1930,0.240,-0.130
1931,0.220,-0.160
1932,0.225,-0.190
1933,0.225,-0.170
1934,0.250,-0.175
1935,0.250,-0.210
1936,0.210,-0.215
1937,0.210,-0.210
1938,0.215,-0.225
1939,0.235,-0.205
1940,0.235,-0.230
1941,0.220,-0.220
1942,0.210,-0.190
1943,0.220,-0.185
1944,0.230,-0.190
1945,0.240,-0.190
1946,0.220,-0.200
1947,0.205,-0.195
1948,0.235,-0.170
1949,0.255,-0.185
1950,0.215,-0.200
1951,0.200,-0.215
1952,0.200,-0.205
1953,0.205,-0.200
1954,0.220,-0.200
1955,0.215,-0.215
1956,0.205,-0.210
1957,0.185,-0.220
1958,0.205,-0.210
1959,0.215,-0.195
1960,0.205,-0.210
1961,0.180,-0.220
1962,0.195,-0.230
1963,0.190,-0.215
1964,0.210,-0.220
1965,0.200,-0.240
1966,0.180,-0.235
1967,0.180,-0.240
1968,0.185,-0.235
1969,0.185,-0.230
1970,0.205,-0.250
1971,0.170,-0.260
1972,0.160,-0.240
1973,0.160,-0.235
1974,0.185,-0.235
1975,0.165,-0.235
1976,0.170,-0.250
1977,0.140,-0.230
1978,0.180,-0.235
1979,0.195,-0.230
1980,0.200,-0.240
1981,0.180,-0.260
1982,0.155,-0.265
1983,0.175,-0.255
1984,0.175,-0.250
1985,0.190,-0.260
1986,0.165,-0.260
1987,0.150,-0.250
1988,0.155,-0.215
1989,0.170,-0.190
1990,0.180,-0.190
1991,0.140,-0.215
1992,0.155,-0.195
1993,0.165,-0.115
1994,0.215,-0.080
1995,0.200,-0.100
1996,0.140,-0.105
1997,0.155,-0.160
1998,0.120,-0.125
1999,0.165,-0.185
2000,0.155,-0.290
2001,0.135,-0.305
2002,0.095,-0.345
2003,0.110,-0.335
2004,0.115,-0.320
2005,0.135,-0.350
2006,0.115,-0.365
2007,0.105,-0.350
2008,0.115,-0.345
2009,0.130,-0.330
2010,0.140,-0.335
2011,0.105,-0.365
2012,0.140,-0.335
2013,0.175,-0.010
2014,0.255,0.565
2015,0.215,0.770
2016,0.055,0.225
2017,-0.080,-0.290
2018,-0.125,-0.220
2019,0.010,-0.185
2020,0.075,-0.275
2021,0.105,-0.335
2022,0.095,-0.340
2023,0.100,-0.340
2024,0.120,-0.350
2025,0.120,-0.350
2026,0.100,-0.370
2027,0.105,-0.380
2028,0.090,-0.360
2029,0.120,-0.355
2030,0.120,-0.380
2031,0.115,-0.380
2032,0.090,-0.370
2033,0.100,-0.355
2034,0.125,-0.345
2035,0.125,-0.385
2036,0.105,-0.385
2037,0.095,-0.370
2038,0.090,-0.355
2039,0.115,-0.335
2040,0.035,-0.345
2041,-0.230,-0.325
2042,-0.220,-0.315
2043,-0.185,-0.290
2044,-0.190,-0.280
2045,-0.180,-0.255
2046,-0.200,-0.250
2047,-0.205,-0.220
2048,-0.210,-0.200
2049,-0.180,-0.170
2050,-0.175,-0.180
2051,-0.185,-0.160
2052,-0.200,-0.160
2053,-0.205,-0.115
2054,-0.165,-0.130
2055,-0.185,-0.125
2056,-0.170,-0.130
2057,-0.185,-0.125
2058,-0.180,-0.145
2059,-0.150,-0.175
2060,-0.140,-0.210
2061,-0.170,-0.245
2062,-0.180,-0.245
2063,-0.170,-0.250
2064,-0.155,-0.270
2065,-0.160,-0.280
2066,-0.175,-0.290
2067,-0.205,-0.300
2068,-0.210,-0.295
2069,-0.160,-0.280
2070,-0.175,-0.300
2071,-0.190,-0.295
2072,-0.195,-0.275
2073,-0.195,-0.280
2074,-0.160,-0.290
2075,-0.165,-0.280
2076,-0.185,-0.290
2077,-0.190,-0.275
2078,-0.180,-0.270
2079,-0.150,-0.275
2080,-0.160,-0.290
2081,-0.190,-0.300
2082,-0.185,-0.295
2083,-0.160,-0.290
2084,-0.160,-0.300
2085,-0.180,-0.315
2086,-0.180,-0.310
2087,-0.195,-0.300
2088,-0.160,-0.295
2089,-0.160,-0.315
2090,-0.190,-0.315
2091,-0.185,-0.315
2092,-0.210,-0.300
2093,-0.185,-0.305
2094,-0.170,-0.305
2095,-0.185,-0.315
2096,-0.210,-0.330
2097,-0.195,-0.320
2098,-0.170,-0.310
2099,-0.185,-0.315
2100,-0.185,-0.320
2101,-0.215,-0.325
2102,-0.215,-0.295
2103,-0.195,-0.295
2104,-0.180,-0.310
2105,-0.195,-0.325
2106,-0.230,-0.315
2107,-0.205,-0.310
2108,-0.210,-0.315
2109,-0.205,-0.320
2110,-0.215,-0.320
2111,-0.220,-0.325
2112,-0.225,-0.305
2113,-0.190,-0.320
2114,-0.195,-0.325
2115,-0.230,-0.330
2116,-0.225,-0.280
2117,-0.190,-0.250
2118,-0.160,-0.245
2119,-0.175,-0.260
2120,-0.185,-0.225
2121,-0.190,-0.155
2122,-0.175,-0.135
2123,-0.180,-0.145
2124,-0.205,-0.185
2125,-0.240,-0.205
2126,-0.240,-0.230
2127,-0.230,-0.305
2128,-0.235,-0.365
2129,-0.255,-0.395
2130,-0.270,-0.375
2131,-0.280,-0.370
2132,-0.240,-0.365
2133,-0.250,-0.385
2134,-0.270,-0.395
2135,-0.270,-0.385
2136,-0.265,-0.370
2137,-0.210,-0.380
2138,-0.195,-0.425
2139,-0.170,-0.315
2140,-0.155,0.160
2141,-0.090,0.715
2142,-0.160,0.500
2143,-0.345,-0.150
2144,-0.495,-0.290
2145,-0.405,-0.205
2146,-0.295,-0.270
2147,-0.235,-0.355
2148,-0.245,-0.395
2149,-0.250,-0.395
2150,-0.390,-0.380
2151,-0.480,-0.385
2152,-0.485,-0.385
2153,-0.510,-0.395
2154,-0.500,-0.390
2155,-0.455,-0.395
2156,-0.460,-0.390
2157,-0.485,-0.405
2158,-0.470,-0.415
2159,-0.470,-0.400
2160,-0.445,-0.390
2161,-0.440,-0.400
2162,-0.455,-0.395
2163,-0.475,-0.390
2164,-0.460,-0.365
2165,-0.450,-0.360
2166,-0.440,-0.360
2167,-0.460,-0.375
2168,-0.465,-0.350
2169,-0.435,-0.325
2170,-0.425,-0.305
2171,-0.440,-0.315
2172,-0.450,-0.280
2173,-0.455,-0.285
2174,-0.420,-0.230
2175,-0.405,-0.240
2176,-0.440,-0.235
2177,-0.410,-0.215
2178,-0.430,-0.185
2179,-0.405,-0.170
2180,-0.400,-0.190
2181,-0.410,-0.205
2182,-0.410,-0.225
2183,-0.410,-0.220
2184,-0.390,-0.255
2185,-0.385,-0.290
2186,-0.415,-0.305
2187,-0.415,-0.320
2188,-0.410,-0.315
2189,-0.380,-0.335
2190,-0.365,-0.355
2191,-0.390,-0.345
2192,-0.385,-0.345
2193,-0.370,-0.330
2194,-0.325,-0.335
2195,-0.345,-0.325
2196,-0.380,-0.320
2197,-0.380,-0.315
2198,-0.375,-0.315
2199,-0.350,-0.310
2200,-0.345,-0.320
2201,-0.345,-0.320
2202,-0.355,-0.300
2203,-0.320,-0.295
2204,-0.290,-0.310
2205,-0.300,-0.335
2206,-0.275,-0.325
2207,-0.215,-0.315
2208,-0.125,-0.340
2209,-0.110,-0.320
2210,-0.130,-0.315
2211,-0.125,-0.325
2212,-0.105,-0.305
2213,-0.080,-0.330
2214,-0.090,-0.315
2215,-0.115,-0.315
2216,-0.100,-0.315
2217,-0.075,-0.285
2218,-0.080,-0.330
2219,-0.090,-0.325
2220,-0.085,-0.320
2221,-0.085,-0.315
2222,-0.065,-0.315
2223,-0.065,-0.325
2224,-0.090,-0.325
2225,-0.085,-0.320
2226,-0.070,-0.310
2227,-0.030,-0.285
2228,-0.025,-0.300
2229,-0.025,-0.305
2230,-0.050,-0.305
2231,-0.030,-0.310
2232,-0.030,-0.280
2233,-0.010,-0.300
2234,-0.055,-0.315
2235,-0.035,-0.300
2236,-0.025,-0.290
2237,0.000,-0.290
2238,-0.025,-0.265
2239,-0.045,-0.240
2240,0.005,-0.245
2241,0.020,-0.205
2242,0.055,-0.180
2243,0.015,-0.145
2244,0.025,-0.120
2245,0.020,-0.115
2246,0.025,-0.155
2247,0.010,-0.180
2248,0.015,-0.230
2249,0.015,-0.310
2250,0.045,-0.335
2251,0.070,-0.325
2252,0.055,-0.360
2253,0.020,-0.380
2254,0.060,-0.355
2255,0.070,-0.350
2256,0.085,-0.355
2257,0.095,-0.355
2258,0.115,-0.345
2259,0.140,-0.340
2260,0.245,-0.340
2261,0.335,-0.170
2262,0.385,0.315
2263,0.320,0.650
2264,0.205,0.205
2265,0.100,-0.360
2266,0.035,-0.325
2267,0.125,-0.260
2268,0.210,-0.305
2269,0.240,-0.340
2270,0.270,-0.335
2271,0.290,-0.355
2272,0.245,-0.390
2273,0.235,-0.370
2274,0.255,-0.340
2275,0.275,-0.355
2276,0.275,-0.350
2277,0.260,-0.365
2278,0.250,-0.375
2279,0.275,-0.350
2280,0.275,-0.365
2281,0.280,-0.375
2282,0.260,-0.375
2283,0.260,-0.350
2284,0.265,-0.340
2285,0.300,-0.335
2286,0.275,-0.350
2287,0.250,-0.340
2288,0.250,-0.320
2289,0.270,-0.275
2290,0.295,-0.275
2291,0.285,-0.270
2292,0.260,-0.265
2293,0.275,-0.215
2294,0.290,-0.195
2295,0.290,-0.195
2296,0.280,-0.185
2297,0.250,-0.175
2298,0.255,-0.140
2299,0.295,-0.125
2300,0.270,-0.125
2301,0.275,-0.125
2302,0.240,-0.125
2303,0.275,-0.110
2304,0.305,-0.110
2305,0.295,-0.130
2306,0.260,-0.155
2307,0.275,-0.185
2308,0.275,-0.200
2309,0.285,-0.215
2310,0.290,-0.240
2311,0.265,-0.265
2312,0.265,-0.265
2313,0.280,-0.235
2314,0.280,-0.260
2315,0.290,-0.270
2316,0.300,-0.265
2317,0.260,-0.240
2318,0.290,-0.235
2319,0.300,-0.250
2320,0.320,-0.245
2321,0.290,-0.240
2322,0.280,-0.250
2323,0.290,-0.215
2324,0.300,-0.205
2325,0.295,-0.240
2326,0.285,-0.235
2327,0.270,-0.230
2328,0.300,-0.210
2329,0.325,-0.205
2330,0.305,-0.245
2331,0.295,-0.260
2332,0.265,-0.250
2333,0.270,-0.220
2334,0.295,-0.240
2335,0.310,-0.265
2336,0.275,-0.240
2337,0.250,-0.260
2338,0.270,-0.225
2339,0.290,-0.245
2340,0.275,-0.255
2341,0.265,-0.250
2342,0.265,-0.250
2343,0.265,-0.240
2344,0.305,-0.240
2345,0.300,-0.235
2346,0.265,-0.235
2347,0.285,-0.230
2348,0.290,-0.235
2349,0.310,-0.250
2350,0.295,-0.250
2351,0.280,-0.255
2352,0.270,-0.230
2353,0.300,-0.225
2354,0.300,-0.235
2355,0.280,-0.250
2356,0.255,-0.245
2357,0.275,-0.250
2358,0.300,-0.235
2359,0.315,-0.225
2360,0.275,-0.250
2361,0.255,-0.240
2362,0.275,-0.225
2363,0.295,-0.210
2364,0.295,-0.220
2365,0.310,-0.195
2366,0.295,-0.190
2367,0.320,-0.145
2368,0.340,-0.140
2369,0.335,-0.145
2370,0.325,-0.090
2371,0.320,-0.050
2372,0.320,-0.060
2373,0.315,-0.070
2374,0.325,-0.100
2375,0.295,-0.125
2376,0.275,-0.190
2377,0.285,-0.240
2378,0.265,-0.255
2379,0.290,-0.275
2380,0.270,-0.290
2381,0.240,-0.280
2382,0.235,-0.280
2383,0.260,-0.285
2384,0.270,-0.255
2385,0.275,-0.290
2386,0.280,-0.280
2387,0.265,-0.265
2388,0.310,-0.285
2389,0.345,-0.160
2390,0.370,0.185
2391,0.375,0.700
2392,0.305,0.630
2393,0.195,-0.020
2394,0.075,-0.300
2395,0.095,-0.150
2396,0.180,-0.150
2397,0.225,-0.200
2398,0.265,-0.235
2399,0.285,-0.230
2400,0.270,-0.240
2401,0.275,-0.240
2402,0.260,-0.250
2403,0.260,-0.240
2404,0.290,-0.230
2405,0.285,-0.235
2406,0.270,-0.255
2407,0.260,-0.245
2408,0.270,-0.235
2409,0.275,-0.235
2410,0.275,-0.240
2411,0.255,-0.260
2412,0.265,-0.240
2413,0.270,-0.220
2414,0.280,-0.220
2415,0.265,-0.220
2416,0.250,-0.220
2417,0.255,-0.190
2418,0.270,-0.175
2419,0.300,-0.170
2420,0.295,-0.150
2421,0.250,-0.150
2422,0.255,-0.120
2423,0.285,-0.120
2424,0.280,-0.090
2425,0.275,-0.080
2426,0.260,-0.085
2427,0.240,-0.065
2428,0.260,-0.035
2429,0.305,-0.025
2430,0.285,-0.010
2431,0.265,-0.030
2432,0.260,-0.010
2433,0.255,-0.005
2434,0.275,-0.025
2435,0.295,-0.060
2436,0.280,-0.080
2437,0.270,-0.095
2438,0.280,-0.115
2439,0.285,-0.130
2440,0.275,-0.160
2441,0.250,-0.185
2442,0.235,-0.180
2443,0.260,-0.165
2444,0.290,-0.155
2445,0.285,-0.180
2446,0.260,-0.180
2447,0.270,-0.165
2448,0.275,-0.170
2449,0.315,-0.150
2450,0.325,-0.160
2451,0.285,-0.180
2452,0.295,-0.155
2453,0.290,-0.140
2454,0.300,-0.145
2455,0.300,-0.170
2456,0.285,-0.155
2457,0.265,-0.155
2458,0.265,-0.150
2459,0.280,-0.165
2460,0.270,-0.165
2461,0.270,-0.170
2462,0.235,-0.180
2463,0.240,-0.175
2464,0.255,-0.170
2465,0.250,-0.185
2466,0.225,-0.180
2467,0.230,-0.200
2468,0.240,-0.200
2469,0.260,-0.185
2470,0.250,-0.180
2471,0.240,-0.210
2472,0.200,-0.195
2473,0.155,-0.190
2474,-0.085,-0.180
2475,-0.050,-0.185
2476,-0.065,-0.210
2477,-0.075,-0.195
2478,-0.075,-0.195
2479,-0.070,-0.195
2480,-0.055,-0.190
2481,-0.065,-0.190
2482,-0.085,-0.205
2483,-0.070,-0.170
2484,-0.065,-0.195
2485,-0.040,-0.195
2486,-0.070,-0.210
2487,-0.080,-0.200
2488,-0.065,-0.195
2489,-0.055,-0.165
2490,-0.050,-0.185
2491,-0.075,-0.205
2492,-0.075,-0.195
2493,-0.070,-0.160
2494,-0.025,-0.110
2495,-0.005,-0.140
2496,-0.015,-0.145
2497,-0.035,-0.115
2498,-0.020,-0.060
2499,0.000,-0.030
2500,0.000,-0.045
2501,-0.010,-0.065
2502,-0.055,-0.080
2503,-0.050,-0.075
2504,-0.035,-0.145
2505,-0.025,-0.215
2506,-0.040,-0.250
2507,-0.075,-0.265
2508,-0.075,-0.255
2509,-0.050,-0.250
2510,-0.040,-0.270
2511,-0.055,-0.270
2512,-0.085,-0.270
2513,-0.055,-0.255
2514,-0.040,-0.250
2515,-0.040,-0.250
2516,-0.020,-0.295
2517,0.000,-0.270
2518,0.005,0.100
2519,0.105,0.655
2520,0.035,0.740
2521,-0.130,0.160
2522,-0.285,-0.245
2523,-0.300,-0.105
2524,-0.155,-0.120
2525,-0.085,-0.200
2526,-0.060,-0.260
2527,-0.070,-0.285
2528,-0.045,-0.270
2529,-0.040,-0.250
2530,-0.045,-0.270
2531,-0.050,-0.300
2532,-0.080,-0.275
2533,-0.060,-0.280
2534,-0.050,-0.270
2535,-0.040,-0.280
2536,-0.040,-0.285
2537,-0.070,-0.290
2538,-0.070,-0.265
2539,-0.045,-0.280
2540,-0.035,-0.305
2541,-0.045,-0.280
2542,-0.055,-0.275
2543,-0.065,-0.260
2544,-0.030,-0.250
2545,-0.060,-0.245
2546,-0.065,-0.235
2547,-0.075,-0.225
2548,-0.045,-0.185
2549,-0.030,-0.160
2550,-0.030,-0.160
2551,-0.040,-0.160
2552,-0.050,-0.145
2553,-0.050,-0.120
2554,-0.025,-0.110
2555,-0.030,-0.095
2556,-0.045,-0.085
2557,-0.065,-0.080
2558,-0.055,-0.060
2559,-0.035,-0.050
2560,-0.045,-0.075
2561,-0.070,-0.070
2562,-0.060,-0.090
2563,-0.025,-0.075
2564,-0.030,-0.140
2565,-0.025,-0.160
2566,-0.070,-0.185
2567,-0.060,-0.185
2568,-0.050,-0.185
2569,-0.055,-0.215
2570,-0.055,-0.225
2571,-0.050,-0.215
2572,-0.080,-0.215
2573,-0.235,-0.215
2574,-0.275,-0.210
2575,-0.280,-0.205
2576,-0.300,-0.230
2577,-0.300,-0.215
2578,-0.265,-0.190
2579,-0.245,-0.195
2580,-0.260,-0.205
2581,-0.270,-0.215
2582,-0.260,-0.195
2583,-0.255,-0.210
2584,-0.250,-0.190
2585,-0.250,-0.205
2586,-0.250,-0.210
2587,-0.235,-0.210
2588,-0.235,-0.190
2589,-0.230,-0.220
2590,-0.240,-0.260
2591,-0.255,-0.265
2592,-0.260,-0.260
2593,-0.235,-0.265
2594,-0.240,-0.265
2595,-0.255,-0.260
2596,-0.265,-0.270
2597,-0.255,-0.275
2598,-0.265,-0.260
2599,-0.230,-0.285
2600,-0.260,-0.285
2601,-0.270,-0.285
2602,-0.265,-0.245
2603,-0.240,-0.265
2604,-0.225,-0.265
2605,-0.260,-0.270
2606,-0.250,-0.260
2607,-0.235,-0.255
2608,-0.225,-0.270
2609,-0.235,-0.280
2610,-0.230,-0.270
2611,-0.225,-0.260
2612,-0.225,-0.245
2613,-0.220,-0.255
2614,-0.190,-0.255
2615,-0.235,-0.275
2616,-0.215,-0.250
2617,-0.205,-0.240
2618,-0.190,-0.240
2619,-0.200,-0.270
2620,-0.210,-0.220
2621,-0.180,-0.190
2622,-0.135,-0.180
2623,-0.115,-0.180
2624,-0.095,-0.160
2625,-0.090,-0.120
2626,-0.030,-0.065
2627,0.090,-0.065
2628,0.155,-0.090
2629,0.175,-0.125
2630,0.185,-0.140
2631,0.190,-0.195
2632,0.250,-0.240
2633,0.255,-0.295
2634,0.235,-0.300
2635,0.230,-0.315
2636,0.235,-0.295
2637,0.280,-0.290
2638,0.275,-0.305
2639,0.260,-0.300
2640,0.235,-0.295
2641,0.260,-0.280
2642,0.275,-0.295
2643,0.295,-0.320
2644,0.335,-0.160
2645,0.385,0.295
2646,0.425,0.755
2647,0.300,0.260
2648,0.145,-0.320
2649,0.030,-0.255
2650,0.145,-0.190
2651,0.255,-0.225
2652,0.275,-0.280
2653,0.290,-0.305
2654,0.275,-0.305
2655,0.275,-0.305
2656,0.310,-0.310
2657,0.300,-0.305
2658,0.270,-0.315
2659,0.275,-0.325
2660,0.285,-0.305
2661,0.305,-0.300
2662,0.310,-0.335
2663,0.285,-0.330
2664,0.280,-0.320
2665,0.275,-0.315
2666,0.310,-0.300
2667,0.310,-0.310
2668,0.285,-0.315
2669,0.275,-0.310
2670,0.270,-0.265
2671,0.295,-0.275
2672,0.295,-0.270
2673,0.290,-0.245
2674,0.280,-0.230
2675,0.295,-0.215
2676,0.300,-0.205
2677,0.275,-0.180
2678,0.260,-0.180
2679,0.280,-0.135
2680,0.290,-0.130
2681,0.300,-0.120
2682,0.270,-0.100
2683,0.275,-0.090
2684,0.265,-0.080
2685,0.305,-0.075
2686,0.315,-0.085
2687,0.285,-0.085
2688,0.295,-0.125
2689,0.295,-0.105
2690,0.300,-0.180
2691,0.295,-0.180
2692,0.260,-0.235
2693,0.250,-0.235
2694,0.265,-0.235
2695,0.285,-0.250
2696,0.260,-0.255
2697,0.250,-0.245
2698,0.245,-0.235
2699,0.285,-0.250
2700,0.315,-0.250
2701,0.290,-0.240
2702,0.270,-0.245
2703,0.280,-0.205
2704,0.315,-0.215
2705,0.285,-0.220
2706,0.275,-0.215
2707,0.245,-0.225
2708,0.270,-0.210
2709,0.300,-0.195
2710,0.295,-0.215
2711,0.290,-0.215
2712,0.265,-0.215
2713,0.285,-0.225
2714,0.305,-0.225
2715,0.285,-0.230
2716,0.280,-0.235
2717,0.260,-0.235
2718,0.285,-0.210
2719,0.290,-0.220
2720,0.285,-0.240
2721,0.270,-0.230
2722,0.265,-0.215
2723,0.290,-0.230
2724,0.295,-0.250
2725,0.280,-0.245
2726,0.260,-0.240
2727,0.270,-0.230
2728,0.305,-0.235
2729,0.280,-0.235
2730,0.270,-0.235
2731,0.245,-0.210
2732,0.285,-0.215
2733,0.285,-0.215
2734,0.270,-0.200
2735,0.245,-0.215
2736,0.275,-0.210
2737,0.275,-0.180
2738,0.270,-0.215
2739,0.255,-0.230
2740,0.240,-0.205
2741,0.255,-0.190
2742,0.285,-0.190
2743,0.270,-0.195
2744,0.260,-0.160
2745,0.260,-0.135
2746,0.265,-0.110
2747,0.295,-0.095
2748,0.280,-0.080
2749,0.290,-0.020
2750,0.280,-0.005
2751,0.290,-0.005
2752,0.300,-0.040
2753,0.245,-0.050
2754,0.235,-0.120
2755,0.250,-0.190
2756,0.255,-0.210
2757,0.255,-0.235
2758,0.240,-0.250
2759,0.210,-0.235
2760,0.215,-0.225
2761,0.250,-0.235
2762,0.250,-0.230
2763,0.230,-0.225
2764,0.220,-0.215
2765,0.220,-0.210
2766,0.250,-0.235
2767,0.285,-0.075
2768,0.295,0.380
2769,0.305,0.825
2770,0.215,0.450
2771,0.095,-0.190
2772,-0.020,-0.260
2773,0.070,-0.135
2774,0.140,-0.160
2775,0.175,-0.220
2776,0.210,-0.235
2777,0.210,-0.250
2778,0.185,-0.250
2779,0.195,-0.250
2780,0.210,-0.240
2781,0.235,-0.250
2782,0.205,-0.245
2783,0.200,-0.260
2784,0.200,-0.235
2785,0.240,-0.215
2786,0.220,-0.205
2787,0.215,-0.210
2788,0.200,-0.215
2789,0.185,-0.210
2790,0.220,-0.210
2791,0.195,-0.200
2792,0.190,-0.205
2793,0.190,-0.195
2794,0.205,-0.160
2795,0.220,-0.160
2796,0.195,-0.155
2797,0.170,-0.135
2798,0.195,-0.105
2799,0.205,-0.090
2800,0.215,-0.065
2801,0.200,-0.080
2802,0.185,-0.045
2803,0.175,-0.020
2804,0.235,-0.025
2805,0.215,0.000
2806,0.205,-0.010
2807,0.175,0.005
2808,0.190,0.020
2809,0.200,0.020
2810,0.205,-0.005
2811,0.185,-0.025
2812,0.185,-0.060
2813,0.185,-0.075
2814,0.215,-0.090
2815,0.200,-0.120
2816,0.190,-0.145
2817,0.175,-0.160
2818,0.185,-0.145
2819,0.190,-0.145
2820,0.195,-0.170
2821,0.185,-0.165
2822,0.175,-0.150
2823,0.195,-0.130
2824,0.210,-0.140
2825,0.205,-0.145
2826,0.205,-0.140
2827,0.175,-0.130
2828,0.190,-0.115
2829,0.215,-0.110
2830,0.220,-0.140
2831,0.185,-0.135
2832,0.190,-0.135
2833,0.185,-0.115
2834,0.200,-0.130
2835,0.205,-0.135
2836,0.205,-0.145
2837,0.175,-0.135
2838,0.205,-0.135
2839,0.200,-0.135
2840,0.210,-0.160
2841,0.170,-0.155
2842,0.175,-0.140
2843,0.165,-0.135
2844,0.010,-0.155
2845,-0.080,-0.155
2846,-0.095,-0.165
2847,-0.090,-0.150
2848,-0.075,-0.135
2849,-0.075,-0.165
2850,-0.090,-0.170
2851,-0.100,-0.165
2852,-0.080,-0.145
2853,-0.070,-0.165
2854,-0.065,-0.160
2855,-0.075,-0.175
2856,-0.100,-0.190
2857,-0.090,-0.170
2858,-0.070,-0.180
2859,-0.065,-0.175
2860,-0.085,-0.190
2861,-0.085,-0.185
2862,-0.100,-0.155
2863,-0.060,-0.145
2864,-0.070,-0.160
2865,-0.055,-0.175
2866,-0.075,-0.170
2867,-0.070,-0.160
2868,-0.050,-0.130
2869,-0.030,-0.110
2870,-0.040,-0.115
2871,-0.060,-0.105
2872,-0.045,-0.065
2873,-0.005,-0.020
2874,-0.015,0.010
2875,-0.035,-0.010
2876,-0.060,-0.010
2877,-0.050,-0.030
2878,-0.045,-0.020
2879,-0.055,-0.105
2880,-0.060,-0.200
2881,-0.095,-0.235
2882,-0.105,-0.215
2883,-0.085,-0.230
2884,-0.120,-0.230
2885,-0.105,-0.245
2886,-0.120,-0.235
2887,-0.110,-0.220
2888,-0.090,-0.210
2889,-0.095,-0.225
2890,-0.100,-0.220
2891,-0.095,-0.245
2892,-0.075,-0.220
2893,-0.020,0.055
2894,0.020,0.590
2895,-0.015,0.870
2896,-0.135,0.385
2897,-0.250,-0.120
2898,-0.365,-0.130
2899,-0.245,-0.085
2900,-0.175,-0.180
2901,-0.155,-0.220
2902,-0.135,-0.230
2903,-0.120,-0.250
2904,-0.105,-0.235
2905,-0.125,-0.245
2906,-0.245,-0.260
2907,-0.305,-0.235
2908,-0.310,-0.250
2909,-0.315,-0.260
2910,-0.325,-0.270
2911,-0.350,-0.275
2912,-0.335,-0.275
2913,-0.340,-0.260
2914,-0.320,-0.250
2915,-0.310,-0.265
2916,-0.330,-0.275
2917,-0.330,-0.265
2918,-0.330,-0.240
2919,-0.310,-0.240
2920,-0.310,-0.265
2921,-0.320,-0.245
2922,-0.335,-0.220
2923,-0.315,-0.200
2924,-0.290,-0.180
2925,-0.310,-0.180
2926,-0.315,-0.150
2927,-0.310,-0.140
2928,-0.320,-0.100
2929,-0.295,-0.090
2930,-0.305,-0.115
2931,-0.320,-0.080
2932,-0.315,-0.080
2933,-0.300,-0.055
2934,-0.315,-0.045
2935,-0.305,-0.045
2936,-0.320,-0.055
2937,-0.320,-0.055
2938,-0.300,-0.055
2939,-0.290,-0.075
2940,-0.280,-0.110
2941,-0.290,-0.130
2942,-0.315,-0.170
2943,-0.290,-0.170
2944,-0.280,-0.195
2945,-0.290,-0.220
2946,-0.305,-0.220
2947,-0.305,-0.240
2948,-0.295,-0.220
2949,-0.280,-0.225
2950,-0.245,-0.230
2951,-0.275,-0.245
2952,-0.290,-0.230
2953,-0.280,-0.210
2954,-0.270,-0.220
2955,-0.245,-0.205
2956,-0.270,-0.215
2957,-0.285,-0.220
2958,-0.275,-0.205
2959,-0.245,-0.200
2960,-0.240,-0.205
2961,-0.240,-0.220
2962,-0.240,-0.215
2963,-0.265,-0.200
2964,-0.235,-0.195
2965,-0.230,-0.230
2966,-0.215,-0.200
2967,-0.250,-0.235
2968,-0.250,-0.210
2969,-0.235,-0.215
2970,-0.210,-0.230
2971,-0.235,-0.235
2972,-0.240,-0.245
2973,-0.260,-0.225
2974,-0.245,-0.215
2975,-0.210,-0.230
2976,-0.220,-0.235
2977,-0.230,-0.250
2978,-0.245,-0.230
2979,-0.230,-0.220
2980,-0.220,-0.215
2981,-0.215,-0.230
2982,-0.230,-0.230
2983,-0.245,-0.235
2984,-0.220,-0.225
2985,-0.215,-0.230
2986,-0.215,-0.240
2987,-0.235,-0.250
2988,-0.235,-0.235
2989,-0.240,-0.220
2990,-0.210,-0.215
2991,-0.215,-0.220
2992,-0.235,-0.235
2993,-0.225,-0.245
2994,-0.220,-0.225
2995,-0.210,-0.220
2996,-0.225,-0.245
2997,-0.235,-0.235
2998,-0.250,-0.215
2999,-0.215,-0.190
3000,-0.175,-0.185
3001,-0.190,-0.190
3002,-0.185,-0.170
3003,-0.210,-0.120
3004,-0.190,-0.070
3005,-0.155,-0.075
3006,-0.190,-0.120
3007,-0.225,-0.140
3008,-0.200,-0.160
3009,-0.215,-0.240
3010,-0.215,-0.275
3011,-0.210,-0.310
3012,-0.225,-0.325
3013,-0.240,-0.330
3014,-0.235,-0.320
3015,-0.210,-0.295
3016,-0.195,-0.305
3017,-0.200,-0.330
3018,-0.200,-0.305
3019,-0.220,-0.290
3020,-0.190,-0.280
3021,-0.180,-0.335
3022,-0.160,-0.230
3023,-0.130,0.165
3024,-0.070,0.710
3025,-0.135,0.640
3026,-0.275,0.025
3027,-0.425,-0.340
3028,-0.455,-0.180
3029,-0.335,-0.170
3030,-0.235,-0.255
3031,-0.220,-0.310
3032,-0.260,-0.325
3033,-0.245,-0.320
3034,-0.240,-0.310
3035,-0.230,-0.315
3036,-0.230,-0.315
3037,-0.240,-0.340
3038,-0.245,-0.325
3039,-0.235,-0.310
3040,-0.235,-0.305
3041,-0.220,-0.320
3042,-0.210,-0.325
3043,-0.230,-0.320
3044,-0.220,-0.320
3045,-0.210,-0.305
3046,-0.200,-0.305
3047,-0.215,-0.320
3048,-0.230,-0.300
3049,-0.200,-0.270
3050,-0.120,-0.275
3051,-0.085,-0.260
3052,-0.045,-0.250
3053,-0.020,-0.210
3054,-0.020,-0.195
3055,0.000,-0.165
3056,0.005,-0.165
3057,-0.005,-0.145
3058,-0.005,-0.125
3059,0.045,-0.115
3060,0.080,-0.100
3061,0.120,-0.100
3062,0.140,-0.095
3063,0.175,-0.050
3064,0.215,-0.045
3065,0.250,-0.070
3066,0.240,-0.080
3067,0.225,-0.085
3068,0.250,-0.095
3069,0.285,-0.125
3070,0.285,-0.180
3071,0.280,-0.175
3072,0.270,-0.210
3073,0.280,-0.210
3074,0.285,-0.225
3075,0.300,-0.240
3076,0.295,-0.240
3077,0.290,-0.235
3078,0.315,-0.230
3079,0.345,-0.225
3080,0.350,-0.230
3081,0.315,-0.235
3082,0.305,-0.225
3083,0.330,-0.210
3084,0.355,-0.195
3085,0.360,-0.215
3086,0.350,-0.210
3087,0.325,-0.200
3088,0.325,-0.180
3089,0.360,-0.195
3090,0.355,-0.195
3091,0.330,-0.210
3092,0.330,-0.200
3093,0.340,-0.190
3094,0.375,-0.190
3095,0.355,-0.220
3096,0.325,-0.200
3097,0.315,-0.170
3098,0.340,-0.185
3099,0.360,-0.200
3100,0.375,-0.215
3101,0.330,-0.205
3102,0.335,-0.185
3103,0.370,-0.180
3104,0.380,-0.190
3105,0.365,-0.205
3106,0.340,-0.220
3107,0.345,-0.205
3108,0.355,-0.170
3109,0.355,-0.185
3110,0.350,-0.195
3111,0.325,-0.195
3112,0.320,-0.185
3113,0.335,-0.185
3114,0.350,-0.210
3115,0.305,-0.210
3116,0.325,-0.205
3117,0.325,-0.185
3118,0.345,-0.170
3119,0.335,-0.200
3120,0.340,-0.210
3121,0.335,-0.165
3122,0.340,-0.165
3123,0.360,-0.145
3124,0.355,-0.125
3125,0.365,-0.125
3126,0.350,-0.105
3127,0.390,-0.075
3128,0.395,-0.035
3129,0.405,0.000
3130,0.390,0.000
3131,0.375,0.000
3132,0.360,-0.030
3133,0.360,-0.040
3134,0.340,-0.110
3135,0.330,-0.195
3136,0.315,-0.190
3137,0.335,-0.235
3138,0.315,-0.210
3139,0.325,-0.225
3140,0.345,-0.235
3141,0.325,-0.235
3142,0.350,-0.210
3143,0.355,-0.200
3144,0.335,-0.210
3145,0.325,-0.225
3146,0.365,-0.195
3147,0.420,0.085
3148,0.450,0.580
3149,0.405,0.790
3150,0.265,0.175
3151,0.155,-0.305
3152,0.125,-0.175
3153,0.250,-0.145
3154,0.275,-0.200
3155,0.320,-0.220
3156,0.350,-0.215
3157,0.375,-0.240
3158,0.365,-0.250
3159,0.345,-0.260
3160,0.330,-0.245
3161,0.365,-0.240
3162,0.380,-0.245
3163,0.365,-0.260
3164,0.330,-0.255
3165,0.340,-0.245
3166,0.355,-0.250
3167,0.365,-0.260
3168,0.350,-0.260
3169,0.320,-0.250
3170,0.325,-0.230
3171,0.355,-0.220
3172,0.350,-0.235
3173,0.310,-0.215
3174,0.315,-0.200
3175,0.305,-0.175
3176,0.355,-0.155
3177,0.345,-0.150
3178,0.325,-0.130
3179,0.320,-0.100
3180,0.350,-0.075
3181,0.350,-0.065
3182,0.360,-0.065
3183,0.320,-0.050
3184,0.325,-0.025
3185,0.330,-0.010
3186,0.320,0.000
3187,0.305,-0.005
3188,0.310,0.000
3189,0.305,0.000
3190,0.350,-0.015
3191,0.325,-0.035
3192,0.310,-0.060
3193,0.315,-0.100
3194,0.315,-0.115
3195,0.335,-0.140
3196,0.325,-0.170
3197,0.315,-0.195
3198,0.305,-0.180
3199,0.330,-0.170
3200,0.345,-0.160
3201,0.315,-0.190
3202,0.315,-0.185
3203,0.310,-0.170
3204,0.345,-0.160
3205,0.340,-0.165
3206,0.310,-0.165
3207,0.285,-0.155
3208,0.315,-0.150
3209,0.315,-0.160
3210,0.310,-0.150
3211,0.295,-0.165
3212,0.285,-0.150
3213,0.290,-0.145
3214,0.315,-0.150
3215,0.320,-0.155
3216,0.295,-0.155
3217,0.290,-0.175
3218,0.310,-0.135
3219,0.325,-0.155
3220,0.315,-0.170
3221,0.300,-0.165
3222,0.285,-0.175
3223,0.305,-0.140
3224,0.330,-0.165
3225,0.295,-0.165
3226,0.285,-0.170
3227,0.290,-0.140
3228,0.320,-0.135
3229,0.340,-0.140
3230,0.305,-0.145
3231,0.300,-0.115
3232,0.310,-0.105
3233,0.315,-0.100
3234,0.340,-0.115
3235,0.310,-0.100
3236,0.275,-0.115
3237,0.285,-0.105
3238,0.305,-0.085
3239,0.300,-0.100
3240,0.295,-0.110
3241,0.270,-0.090
3242,0.290,-0.080
3243,0.305,-0.095
3244,0.310,-0.110
3245,0.255,-0.125
3246,0.260,-0.085
3247,0.280,-0.070
3248,0.320,-0.040
3249,0.315,-0.040
3250,0.305,-0.025
3251,0.310,0.000
3252,0.345,0.050
3253,0.330,0.100
3254,0.315,0.100
3255,0.300,0.080
3256,0.275,0.055
3257,0.290,0.045
3258,0.285,-0.015
3259,0.255,-0.100
3260,0.245,-0.135
3261,0.260,-0.130
3262,0.270,-0.145
3263,0.270,-0.160
3264,0.255,-0.150
3265,0.225,-0.145
3266,0.240,-0.130
3267,0.265,-0.120
3268,0.260,-0.130
3269,0.225,-0.140
3270,0.250,-0.150
3271,0.300,0.010
3272,0.375,0.505
3273,0.385,1.015
3274,0.275,0.705
3275,0.115,0.020
3276,0.005,-0.110
3277,0.105,0.000
3278,0.180,-0.080
3279,0.205,-0.125
3280,0.215,-0.140
3281,0.245,-0.135
3282,0.260,-0.155
3283,0.240,-0.180
3284,0.220,-0.185
3285,0.205,-0.170
3286,0.220,-0.165
3287,0.245,-0.155
3288,0.215,-0.190
3289,0.205,-0.190
3290,0.190,-0.180
3291,0.225,-0.170
3292,0.240,-0.175
3293,0.215,-0.205
3294,0.210,-0.200
3295,0.195,-0.175
3296,0.215,-0.175
3297,0.220,-0.170
3298,0.220,-0.165
3299,0.200,-0.155
3300,0.220,-0.130
3301,0.245,-0.105
3302,0.240,-0.080
3303,0.220,-0.085
3304,0.205,-0.065
3305,0.215,-0.030
3306,0.230,-0.015
3307,0.230,-0.015
3308,0.205,-0.015
3309,0.200,0.000
3310,0.210,0.015
3311,0.225,0.035
3312,0.200,0.035
3313,0.180,0.010
3314,0.170,0.030
3315,0.175,0.000
3316,0.020,-0.020
3317,-0.100,-0.070
3318,-0.100,-0.080
3319,-0.130,-0.095
3320,-0.100,-0.115
3321,-0.120,-0.155
3322,-0.140,-0.170
3323,-0.155,-0.170
3324,-0.135,-0.150
3325,-0.110,-0.140
3326,-0.115,-0.170
3327,-0.150,-0.175
3328,-0.140,-0.175
3329,-0.140,-0.140
3330,-0.120,-0.140
3331,-0.110,-0.160
3332,-0.125,-0.145
3333,-0.120,-0.135
3334,-0.115,-0.145
3335,-0.100,-0.140
3336,-0.125,-0.170
3337,-0.145,-0.155
3338,-0.160,-0.155
3339,-0.140,-0.160
3340,-0.130,-0.160
3341,-0.140,-0.170
3342,-0.160,-0.165
3343,-0.160,-0.170
3344,-0.135,-0.170
3345,-0.120,-0.175
3346,-0.160,-0.180
3347,-0.160,-0.180
3348,-0.150,-0.175
3349,-0.155,-0.165
3350,-0.135,-0.185
3351,-0.145,-0.205
3352,-0.155,-0.180
3353,-0.145,-0.180
3354,-0.130,-0.170
3355,-0.130,-0.185
3356,-0.145,-0.190
3357,-0.160,-0.175
3358,-0.145,-0.170
3359,-0.120,-0.165
3360,-0.120,-0.190
3361,-0.140,-0.185
3362,-0.130,-0.175
3363,-0.120,-0.160
3364,-0.115,-0.160
3365,-0.115,-0.190
3366,-0.150,-0.180
3367,-0.150,-0.190
3368,-0.145,-0.170
3369,-0.135,-0.180
3370,-0.140,-0.175
3371,-0.165,-0.120
3372,-0.150,-0.115
3373,-0.135,-0.105
3374,-0.080,-0.105
3375,-0.100,-0.070
3376,-0.100,-0.020
3377,-0.105,0.000
3378,-0.095,0.000
3379,-0.095,-0.040
3380,-0.115,-0.065
3381,-0.125,-0.105
3382,-0.145,-0.170
3383,-0.120,-0.205
3384,-0.135,-0.225
3385,-0.130,-0.245
3386,-0.155,-0.250
3387,-0.155,-0.250
3388,-0.165,-0.230
3389,-0.140,-0.225
3390,-0.140,-0.240
3391,-0.165,-0.225
3392,-0.185,-0.215
3393,-0.155,-0.205
3394,-0.105,-0.250
3395,-0.080,-0.065
3396,-0.020,0.440
3397,-0.015,0.915
3398,-0.110,0.545
3399,-0.265,-0.045
3400,-0.395,-0.120
3401,-0.295,-0.065
3402,-0.225,-0.145
3403,-0.145,-0.200
3404,-0.125,-0.225
3405,-0.145,-0.250
3406,-0.140,-0.245
3407,-0.140,-0.240
3408,-0.145,-0.240
3409,-0.120,-0.250
3410,-0.135,-0.250
3411,-0.165,-0.250
3412,-0.165,-0.255
3413,-0.165,-0.245
3414,-0.135,-0.245
3415,-0.165,-0.265
3416,-0.165,-0.285
3417,-0.190,-0.265
3418,-0.170,-0.250
3419,-0.145,-0.255
3420,-0.155,-0.265
3421,-0.185,-0.265
3422,-0.165,-0.245
3423,-0.175,-0.215
3424,-0.155,-0.205
3425,-0.155,-0.225
3426,-0.180,-0.210
3427,-0.190,-0.180
3428,-0.175,-0.130
3429,-0.150,-0.135
3430,-0.165,-0.130
3431,-0.170,-0.110
3432,-0.185,-0.095
3433,-0.160,-0.070
3434,-0.160,-0.060
3435,-0.170,-0.050
3436,-0.195,-0.040
3437,-0.170,-0.015
3438,-0.165,-0.025
3439,-0.150,-0.040
3440,-0.245,-0.065
3441,-0.285,-0.090
3442,-0.305,-0.135
3443,-0.280,-0.140
3444,-0.265,-0.165
3445,-0.285,-0.205
3446,-0.285,-0.225
3447,-0.295,-0.210
3448,-0.270,-0.220
3449,-0.275,-0.230
3450,-0.280,-0.230
3451,-0.315,-0.240
3452,-0.360,-0.225
3453,-0.365,-0.210
3454,-0.320,-0.225
3455,-0.340,-0.245
3456,-0.360,-0.220
3457,-0.350,-0.195
3458,-0.310,-0.195
3459,-0.315,-0.220
3460,-0.320,-0.225
3461,-0.335,-0.230
3462,-0.345,-0.205
3463,-0.305,-0.210
3464,-0.300,-0.215
3465,-0.335,-0.240
3466,-0.345,-0.250
3467,-0.330,-0.240
3468,-0.305,-0.240
3469,-0.315,-0.250
3470,-0.315,-0.250
3471,-0.345,-0.260
3472,-0.345,-0.260
3473,-0.330,-0.250
3474,-0.340,-0.240
3475,-0.420,-0.250
3476,-0.405,-0.255
3477,-0.410,-0.250
3478,-0.370,-0.245
3479,-0.390,-0.250
3480,-0.405,-0.260
3481,-0.415,-0.255
3482,-0.400,-0.240
3483,-0.375,-0.225
3484,-0.375,-0.250
3485,-0.365,-0.265
3486,-0.385,-0.260
3487,-0.385,-0.245
3488,-0.380,-0.245
3489,-0.365,-0.245
3490,-0.385,-0.240
3491,-0.385,-0.255
3492,-0.405,-0.260
3493,-0.385,-0.235
3494,-0.370,-0.255
3495,-0.375,-0.265
3496,-0.380,-0.260
3497,-0.395,-0.240
3498,-0.365,-0.230
3499,-0.345,-0.200
3500,-0.360,-0.220
3501,-0.375,-0.230
3502,-0.375,-0.195
3503,-0.320,-0.160
3504,-0.325,-0.115
3505,-0.355,-0.115
3506,-0.385,-0.125
3507,-0.385,-0.145
3508,-0.390,-0.135
3509,-0.380,-0.175
3510,-0.395,-0.250
3511,-0.425,-0.295
3512,-0.455,-0.310
3513,-0.420,-0.325
3514,-0.405,-0.325
3515,-0.420,-0.335
3516,-0.430,-0.330
3517,-0.400,-0.325
3518,-0.380,-0.310
3519,-0.380,-0.310
3520,-0.375,-0.325
3521,-0.375,-0.320
3522,-0.355,-0.355
3523,-0.280,-0.230
3524,-0.220,0.160
3525,-0.185,0.660
3526,-0.290,0.570
3527,-0.445,-0.005
3528,-0.595,-0.325
3529,-0.560,-0.180
3530,-0.440,-0.220
3531,-0.390,-0.265
3532,-0.375,-0.315
3533,-0.345,-0.315
3534,-0.325,-0.320
3535,-0.325,-0.330
3536,-0.360,-0.345
3537,-0.345,-0.330
3538,-0.320,-0.310
3539,-0.330,-0.325
3540,-0.320,-0.340
3541,-0.340,-0.355
3542,-0.350,-0.345
3543,-0.325,-0.330
3544,-0.320,-0.360
3545,-0.320,-0.355
3546,-0.340,-0.335
3547,-0.340,-0.350
3548,-0.300,-0.310
3549,-0.310,-0.330
3550,-0.305,-0.330
3551,-0.320,-0.315
3552,-0.280,-0.290
3553,-0.170,-0.275
3554,-0.120,-0.265
3555,-0.120,-0.240
3556,-0.115,-0.240
3557,-0.110,-0.225
3558,-0.085,-0.190
3559,-0.075,-0.180
3560,-0.065,-0.190
3561,-0.080,-0.155
3562,-0.055,-0.150
3563,-0.035,-0.135
3564,-0.010,-0.130
3565,-0.010,-0.115
3566,-0.020,-0.110
3567,-0.010,-0.105
3568,0.000,-0.090
3569,0.040,-0.135
3570,0.025,-0.170
3571,0.005,-0.215
3572,0.000,-0.205
3573,0.020,-0.225
3574,0.040,-0.265
3575,0.030,-0.260
3576,0.005,-0.265
3577,0.025,-0.280
3578,0.060,-0.280
3579,0.090,-0.285
3580,0.080,-0.290
3581,0.065,-0.270
3582,0.105,-0.275
3583,0.135,-0.270
3584,0.150,-0.270
3585,0.140,-0.260
3586,0.145,-0.280
3587,0.160,-0.260
3588,0.170,-0.235
3589,0.160,-0.260
3590,0.150,-0.270
3591,0.120,-0.275
3592,0.145,-0.250
3593,0.170,-0.260
3594,0.175,-0.255
3595,0.155,-0.260
3596,0.115,-0.290
3597,0.155,-0.260
3598,0.170,-0.255
3599,0.185,-0.265
3600,0.165,-0.280
3601,0.145,-0.260
3602,0.150,-0.240
3603,0.210,-0.250
3604,0.205,-0.255
3605,0.185,-0.275
3606,0.205,-0.260
3607,0.190,-0.275
3608,0.230,-0.245
3609,0.245,-0.265
3610,0.205,-0.255
3611,0.235,-0.245
3612,0.240,-0.240
3613,0.275,-0.250
3614,0.280,-0.265
3615,0.255,-0.270
3616,0.270,-0.250
3617,0.290,-0.240
3618,0.305,-0.230
3619,0.315,-0.245
3620,0.295,-0.240
3621,0.335,-0.230
3622,0.385,-0.240
3623,0.410,-0.245
3624,0.390,-0.240
3625,0.360,-0.245
3626,0.390,-0.200
3627,0.435,-0.165
3628,0.420,-0.160
3629,0.415,-0.155
3630,0.425,-0.140
3631,0.415,-0.075
3632,0.430,-0.045
3633,0.430,-0.080
3634,0.385,-0.095
3635,0.380,-0.100
3636,0.385,-0.130
3637,0.410,-0.205
3638,0.385,-0.245
3639,0.330,-0.295
3640,0.330,-0.285
3641,0.360,-0.270
3642,0.365,-0.290
3643,0.350,-0.270
3644,0.340,-0.250
3645,0.335,-0.235
3646,0.380,-0.260
3647,0.370,-0.235
3648,0.385,-0.260
3649,0.425,-0.065
3650,0.475,0.425
3651,0.475,0.780
3652,0.355,0.225
3653,0.180,-0.355
3654,0.100,-0.245
3655,0.245,-0.160
3656,0.310,-0.210
3657,0.345,-0.255
3658,0.330,-0.285
3659,0.340,-0.265
3660,0.365,-0.260
3661,0.360,-0.290
3662,0.350,-0.290
3663,0.315,-0.285
3664,0.345,-0.285
3665,0.360,-0.255
3666,0.350,-0.290
3667,0.350,-0.280
3668,0.325,-0.280
3669,0.345,-0.280
3670,0.360,-0.270
3671,0.330,-0.300
3672,0.325,-0.290
3673,0.305,-0.280
3674,0.325,-0.250
3675,0.335,-0.250
3676,0.345,-0.250
3677,0.305,-0.230
3678,0.315,-0.195
3679,0.315,-0.175
3680,0.345,-0.180
3681,0.320,-0.175
3682,0.295,-0.130
3683,0.295,-0.115
3684,0.340,-0.115
3685,0.340,-0.090
3686,0.310,-0.090
3687,0.295,-0.070
3688,0.315,-0.040
3689,0.350,-0.035
3690,0.350,-0.055
3691,0.310,-0.055
3692,0.320,-0.065
3693,0.325,-0.085
3694,0.335,-0.130
3695,0.340,-0.150
3696,0.310,-0.185
3697,0.325,-0.170
3698,0.340,-0.195
3699,0.330,-0.235
3700,0.300,-0.250
3701,0.280,-0.265
3702,0.295,-0.235
3703,0.330,-0.240
3704,0.335,-0.235
3705,0.295,-0.240
3706,0.300,-0.245
3707,0.315,-0.215
3708,0.335,-0.215
3709,0.330,-0.240
3710,0.305,-0.230
3711,0.305,-0.215
3712,0.340,-0.220
3713,0.330,-0.235
3714,0.320,-0.240
3715,0.295,-0.230
3716,0.290,-0.205
3717,0.315,-0.215
3718,0.325,-0.250
3719,0.285,-0.250
3720,0.265,-0.235
3721,0.285,-0.235
3722,0.310,-0.235
3723,0.305,-0.225
3724,0.275,-0.210
3725,0.280,-0.165
3726,0.280,-0.165
3727,0.300,-0.200
3728,0.295,-0.205
3729,0.265,-0.205
3730,0.285,-0.195
3731,0.305,-0.175
3732,0.305,-0.200
3733,0.280,-0.195
3734,0.285,-0.175
3735,0.280,-0.165
3736,0.325,-0.170
3737,0.300,-0.185
3738,0.290,-0.185
3739,0.270,-0.155
3740,0.295,-0.155
3741,0.295,-0.170
3742,0.280,-0.180
3743,0.270,-0.175
3744,0.295,-0.160
3745,0.305,-0.160
3746,0.305,-0.165
3747,0.260,-0.180
3748,0.280,-0.160
3749,0.290,-0.135
3750,0.300,-0.115
3751,0.305,-0.100
3752,0.320,-0.105
3753,0.325,-0.085
3754,0.315,-0.010
3755,0.355,0.020
3756,0.320,0.000
3757,0.330,-0.020
3758,0.300,-0.025
3759,0.300,-0.025
3760,0.300,-0.135
3761,0.265,-0.190
3762,0.230,-0.210
3763,0.235,-0.200
3764,0.250,-0.200
3765,0.230,-0.205
3766,0.210,-0.215
3767,0.220,-0.205
3768,0.255,-0.200
3769,0.245,-0.180
3770,0.245,-0.185
3771,0.235,-0.205
3772,0.290,-0.160
3773,0.370,0.190
3774,0.430,0.775
3775,0.345,0.860
3776,0.155,0.200
3777,0.035,-0.205
3778,0.095,-0.065
3779,0.195,-0.085
3780,0.235,-0.160
3781,0.250,-0.195
3782,0.255,-0.180
3783,0.300,-0.195
3784,0.280,-0.210
3785,0.260,-0.205
3786,0.260,-0.215
3787,0.270,-0.205
3788,0.285,-0.225
3789,0.285,-0.220
3790,0.230,-0.220
3791,0.270,-0.210
3792,0.255,-0.205
3793,0.175,-0.200
3794,-0.060,-0.230
3795,-0.060,-0.220
3796,-0.030,-0.200
3797,-0.015,-0.185
3798,-0.015,-0.195
3799,-0.030,-0.190
3800,-0.050,-0.175
3801,-0.030,-0.150
3802,-0.035,-0.140
3803,-0.035,-0.140
3804,-0.045,-0.115
3805,-0.040,-0.095
3806,-0.040,-0.075
3807,-0.020,-0.075
3808,-0.030,-0.060
3809,-0.075,-0.050
3810,-0.095,-0.030
3811,-0.065,-0.005
3812,-0.060,-0.015
3813,-0.065,-0.020
3814,-0.085,-0.015
3815,-0.080,-0.010
3816,-0.050,-0.015
3817,-0.025,-0.040
3818,-0.055,-0.090
3819,-0.045,-0.125
3820,-0.055,-0.120
3821,-0.040,-0.155
3822,-0.025,-0.185
3823,-0.045,-0.210
3824,-0.075,-0.215
3825,-0.070,-0.220
3826,-0.035,-0.210
3827,-0.065,-0.210
3828,-0.065,-0.215
3829,-0.050,-0.205
3830,-0.065,-0.190
3831,-0.060,-0.190
3832,-0.060,-0.190
3833,-0.065,-0.205
3834,-0.050,-0.205
3835,-0.055,-0.190
3836,-0.030,-0.180
3837,-0.045,-0.200
3838,-0.045,-0.195
3839,-0.055,-0.200
3840,-0.065,-0.195
3841,-0.055,-0.200
3842,-0.030,-0.200
3843,-0.040,-0.230
3844,-0.060,-0.220
3845,-0.035,-0.200
3846,-0.040,-0.225
3847,-0.045,-0.235
3848,-0.050,-0.240
3849,-0.040,-0.225
3850,-0.035,-0.205
3851,-0.025,-0.225
3852,-0.050,-0.245
3853,-0.055,-0.240
3854,-0.060,-0.215
3855,-0.035,-0.225
3856,-0.040,-0.230
3857,-0.040,-0.235
3858,-0.045,-0.220
3859,-0.060,-0.230
3860,-0.025,-0.205
3861,-0.035,-0.200
3862,-0.035,-0.235
3863,-0.065,-0.205
3864,-0.035,-0.205
3865,-0.025,-0.205
3866,-0.045,-0.200
3867,-0.045,-0.220
3868,-0.045,-0.215
3869,-0.045,-0.205
3870,-0.035,-0.200
3871,0.000,-0.205
3872,-0.020,-0.180
3873,-0.025,-0.145
3874,-0.005,-0.120
3875,0.025,-0.105
3876,0.020,-0.120
3877,0.005,-0.090
3878,0.005,-0.020
3879,0.005,-0.010
3880,0.025,-0.025
3881,0.025,-0.060
3882,0.000,-0.060
3883,-0.010,-0.110
3884,-0.015,-0.190
3885,0.000,-0.210
3886,-0.015,-0.230
3887,-0.040,-0.245
3888,-0.030,-0.245
3889,-0.025,-0.235
3890,-0.015,-0.245
3891,-0.025,-0.255
3892,-0.040,-0.245
3893,-0.040,-0.235
3894,-0.015,-0.215
3895,0.000,-0.240
3896,0.020,-0.220
3897,-0.035,0.080
3898,-0.040,0.620
3899,-0.080,0.850
3900,-0.200,0.325
3901,-0.385,-0.160
3902,-0.440,-0.080
3903,-0.315,-0.070
3904,-0.260,-0.140
3905,-0.195,-0.205
3906,-0.205,-0.245
3907,-0.220,-0.245
3908,-0.240,-0.245
3909,-0.225,-0.245
3910,-0.225,-0.245
3911,-0.230,-0.245
3912,-0.255,-0.255
3913,-0.255,-0.250
3914,-0.225,-0.240
3915,-0.200,-0.250
3916,-0.210,-0.260
3917,-0.230,-0.260
3918,-0.240,-0.265
3919,-0.225,-0.230
3920,-0.210,-0.240
3921,-0.215,-0.250
3922,-0.230,-0.245
3923,-0.220,-0.235
3924,-0.225,-0.205
3925,-0.205,-0.210
3926,-0.215,-0.200
3927,-0.205,-0.175
3928,-0.220,-0.160
3929,-0.205,-0.150
3930,-0.205,-0.140
3931,-0.195,-0.130
3932,-0.235,-0.125
3933,-0.225,-0.100
3934,-0.220,-0.080
3935,-0.190,-0.065
3936,-0.220,-0.030
3937,-0.225,-0.055
3938,-0.240,-0.045
3939,-0.235,-0.025
3940,-0.225,-0.040
3941,-0.235,-0.075
3942,-0.250,-0.095
3943,-0.245,-0.115
3944,-0.235,-0.140
3945,-0.230,-0.180
3946,-0.245,-0.190
3947,-0.260,-0.215
3948,-0.270,-0.220
3949,-0.265,-0.220
3950,-0.260,-0.265
3951,-0.280,-0.270
3952,-0.285,-0.275
3953,-0.290,-0.265
3954,-0.260,-0.265
3955,-0.250,-0.265
3956,-0.265,-0.275
3957,-0.280,-0.270
3958,-0.270,-0.250
3959,-0.245,-0.235
3960,-0.230,-0.245
3961,-0.245,-0.250
3962,-0.275,-0.265
3963,-0.270,-0.245
3964,-0.250,-0.240
3965,-0.230,-0.255
3966,-0.260,-0.255
3967,-0.270,-0.250
3968,-0.260,-0.240
3969,-0.235,-0.250
3970,-0.235,-0.280
3971,-0.250,-0.270
3972,-0.245,-0.270
3973,-0.245,-0.240
3974,-0.225,-0.260
3975,-0.215,-0.275
3976,-0.235,-0.275
3977,-0.225,-0.280
3978,-0.230,-0.250
3979,-0.210,-0.265
3980,-0.215,-0.255
3981,-0.230,-0.250
3982,-0.240,-0.285
3983,-0.220,-0.285
3984,-0.205,-0.255
3985,-0.195,-0.265
3986,-0.175,-0.260
3987,-0.220,-0.265
3988,-0.210,-0.250
3989,-0.175,-0.255
3990,-0.160,-0.265
3991,-0.155,-0.260
3992,-0.130,-0.240
3993,-0.015,-0.260
3994,0.015,-0.245
3995,0.025,-0.250
3996,0.025,-0.265
3997,0.010,-0.250
3998,0.030,-0.230
3999,0.060,-0.240
4000,0.060,-0.235
4001,0.065,-0.230
4002,0.075,-0.180
4003,0.115,-0.140
4004,0.140,-0.110
4005,0.175,-0.145
4006,0.175,-0.100
4007,0.155,-0.050
4008,0.175,-0.040
4009,0.195,-0.040
4010,0.175,-0.065
4011,0.165,-0.090
4012,0.170,-0.135
4013,0.170,-0.190
4014,0.180,-0.245
4015,0.180,-0.275
4016,0.150,-0.275
4017,0.150,-0.285
4018,0.180,-0.260
4019,0.180,-0.240
4020,0.185,-0.250
4021,0.175,-0.255
4022,0.165,-0.240
4023,0.180,-0.210
4024,0.200,-0.215
4025,0.275,-0.220
4026,0.275,0.030
4027,0.325,0.500
4028,0.320,0.810
4029,0.195,0.320
4030,0.055,-0.235
4031,-0.020,-0.215
4032,0.080,-0.120
4033,0.180,-0.150
4034,0.240,-0.200
4035,0.270,-0.230
4036,0.235,-0.260
4037,0.220,-0.255
4038,0.260,-0.225
4039,0.285,-0.235
4040,0.295,-0.240
4041,0.310,-0.265
4042,0.305,-0.270
4043,0.340,-0.230
4044,0.340,-0.270
4045,0.340,-0.260
4046,0.330,-0.280
4047,0.330,-0.255
4048,0.355,-0.225
4049,0.365,-0.245
4050,0.360,-0.250
4051,0.360,-0.260
4052,0.350,-0.230
4053,0.385,-0.195
4054,0.420,-0.205
4055,0.430,-0.210
4056,0.400,-0.195
4057,0.415,-0.155
4058,0.430,-0.145
4059,0.465,-0.125
4060,0.430,-0.115
4061,0.400,-0.110
4062,0.405,-0.080
4063,0.430,-0.070
4064,0.450,-0.065
4065,0.460,-0.055
4066,0.410,-0.025
4067,0.415,-0.025
4068,0.440,-0.025
4069,0.470,-0.045
4070,0.445,-0.060
4071,0.405,-0.075
4072,0.410,-0.080
4073,0.450,-0.095
4074,0.435,-0.155
4075,0.445,-0.180
4076,0.420,-0.180
4077,0.440,-0.180
4078,0.450,-0.195
4079,0.460,-0.205
4080,0.440,-0.220
4081,0.435,-0.210
4082,0.450,-0.200
4083,0.465,-0.195
4084,0.500,-0.200
4085,0.460,-0.205
4086,0.450,-0.190
4087,0.450,-0.185
4088,0.480,-0.165
4089,0.490,-0.185
4090,0.465,-0.185
4091,0.440,-0.180
4092,0.485,-0.160
4093,0.475,-0.170
4094,0.480,-0.195
4095,0.460,-0.180
4096,0.460,-0.220
4097,0.475,-0.175
4098,0.495,-0.200
4099,0.470,-0.220
4100,0.475,-0.215
4101,0.465,-0.215
4102,0.460,-0.205
4103,0.490,-0.195
4104,0.470,-0.215
4105,0.455,-0.235
4106,0.440,-0.220
4107,0.460,-0.195
4108,0.480,-0.205
4109,0.485,-0.245
4110,0.455,-0.210
4111,0.445,-0.215
4112,0.450,-0.210
4113,0.475,-0.210
4114,0.460,-0.220
4115,0.460,-0.210
4116,0.455,-0.185
4117,0.455,-0.190
4118,0.500,-0.190
4119,0.495,-0.205
4120,0.445,-0.200
4121,0.445,-0.200
4122,0.460,-0.170
4123,0.490,-0.170
4124,0.495,-0.195
4125,0.465,-0.200
4126,0.455,-0.170
4127,0.470,-0.170
4128,0.485,-0.145
4129,0.470,-0.125
4130,0.490,-0.110
4131,0.495,-0.075
4132,0.535,-0.055
4133,0.545,-0.005
4134,0.525,0.015
4135,0.495,0.015
4136,0.490,0.010
4137,0.495,0.000
4138,0.495,-0.035
4139,0.485,-0.115
4140,0.460,-0.170
4141,0.470,-0.185
4142,0.495,-0.205
4143,0.490,-0.215
4144,0.460,-0.220
4145,0.440,-0.220
4146,0.460,-0.195
4147,0.485,-0.210
4148,0.465,-0.205
4149,0.445,-0.190
4150,0.450,-0.205
4151,0.480,-0.185
4152,0.535,0.055
4153,0.565,0.515
4154,0.560,0.910
4155,0.425,0.415
4156,0.320,-0.200
4157,0.245,-0.170
4158,0.350,-0.100
4159,0.390,-0.130
4160,0.420,-0.180
4161,0.455,-0.195
4162,0.480,-0.205
4163,0.460,-0.245
4164,0.430,-0.210
4165,0.435,-0.205
4166,0.475,-0.195
4167,0.465,-0.205
4168,0.455,-0.215
4169,0.415,-0.215
4170,0.450,-0.190
4171,0.460,-0.205
4172,0.460,-0.205
4173,0.425,-0.215
4174,0.415,-0.195
4175,0.435,-0.175
4176,0.465,-0.170
4177,0.460,-0.185
4178,0.420,-0.185
4179,0.430,-0.170
4180,0.445,-0.135
4181,0.460,-0.120
4182,0.465,-0.105
4183,0.445,-0.100
4184,0.440,-0.070
4185,0.425,-0.040
4186,0.455,-0.040
4187,0.435,-0.035
4188,0.420,-0.040
4189,0.395,-0.010
4190,0.425,0.010
4191,0.430,0.015
4192,0.395,0.025
4193,0.385,0.030
4194,0.385,0.030
4195,0.415,0.020
4196,0.400,0.000
4197,0.400,-0.035
4198,0.380,-0.060
4199,0.365,-0.070
4200,0.410,-0.080
4201,0.410,-0.125
4202,0.395,-0.150
4203,0.360,-0.155
4204,0.360,-0.145
4205,0.375,-0.165
4206,0.375,-0.165
4207,0.360,-0.165
4208,0.350,-0.155
4209,0.385,-0.140
4210,0.385,-0.140
4211,0.350,-0.145
4212,0.350,-0.140
4213,0.360,-0.110
4214,0.360,-0.080
4215,0.385,-0.110
4216,0.355,-0.115
4217,0.350,-0.110
4218,0.360,-0.110
4219,0.365,-0.095
4220,0.370,-0.115
4221,0.355,-0.130
4222,0.350,-0.130
4223,0.355,-0.125
4224,0.360,-0.135
4225,0.335,-0.130
4226,0.325,-0.120
4227,0.340,-0.135
4228,0.350,-0.125
4229,0.355,-0.135
4230,0.345,-0.140
4231,0.320,-0.155
4232,0.315,-0.140
4233,0.330,-0.140
4234,0.340,-0.135
4235,0.330,-0.150
4236,0.315,-0.155
4237,0.315,-0.150
4238,0.350,-0.140
4239,0.350,-0.145
4240,0.320,-0.165
4241,0.315,-0.145
4242,0.315,-0.150
4243,0.330,-0.175
4244,0.315,-0.150
4245,0.305,-0.145
4246,0.315,-0.140
4247,0.335,-0.135
4248,0.350,-0.155
4249,0.320,-0.150
4250,0.305,-0.155
4251,0.300,-0.140
4252,0.325,-0.135
4253,0.325,-0.115
4254,0.185,-0.080
4255,0.000,-0.075
4256,0.010,-0.065
4257,0.050,-0.020
4258,0.065,0.010
4259,0.045,0.040
4260,0.060,0.050
4261,0.060,0.040
4262,0.060,0.025
4263,0.055,-0.005
4264,0.030,-0.095
4265,0.035,-0.135
4266,0.045,-0.160
4267,0.045,-0.160
4268,0.025,-0.190
4269,0.005,-0.195
4270,0.005,-0.170
4271,0.035,-0.175
4272,0.025,-0.175
4273,0.000,-0.180
4274,0.005,-0.155
4275,0.020,-0.185
4276,0.055,-0.160
4277,0.110,0.135
4278,0.150,0.720
4279,0.100,0.925
4280,-0.015,0.310
4281,-0.165,-0.130
4282,-0.155,-0.025
4283,-0.070,-0.075
4284,-0.005,-0.115
4285,0.025,-0.145
4286,0.045,-0.175
4287,0.030,-0.185
4288,0.015,-0.190
4289,0.015,-0.185
4290,0.040,-0.170
4291,0.045,-0.185
4292,0.030,-0.195
4293,0.005,-0.190
4294,0.025,-0.195
4295,0.045,-0.190
4296,0.050,-0.185
4297,0.030,-0.205
4298,0.020,-0.205
4299,0.035,-0.180
4300,0.055,-0.175
4301,0.045,-0.185
4302,0.025,-0.180
4303,0.025,-0.150
4304,0.045,-0.125
4305,0.065,-0.130
4306,0.050,-0.130
4307,0.020,-0.105
4308,0.035,-0.060
4309,0.050,-0.050
4310,0.000,-0.040
4311,-0.200,-0.040
4312,-0.195,-0.035
4313,-0.200,0.000
4314,-0.175,0.010
4315,-0.175,0.005
4316,-0.195,0.000
4317,-0.215,0.015
4318,-0.205,0.020
4319,-0.175,0.015
4320,-0.175,-0.010
4321,-0.200,-0.040
4322,-0.190,-0.070
4323,-0.190,-0.080
4324,-0.185,-0.115
4325,-0.190,-0.140
4326,-0.225,-0.170
4327,-0.225,-0.170
4328,-0.215,-0.170
4329,-0.190,-0.170
4330,-0.235,-0.170
4331,-0.245,-0.190
4332,-0.250,-0.170
4333,-0.235,-0.165
4334,-0.235,-0.160
4335,-0.220,-0.160
4336,-0.245,-0.175
4337,-0.230,-0.175
4338,-0.200,-0.150
4339,-0.185,-0.175
4340,-0.210,-0.175
4341,-0.210,-0.170
4342,-0.205,-0.165
4343,-0.190,-0.180
4344,-0.210,-0.195
4345,-0.220,-0.190
4346,-0.220,-0.185
4347,-0.190,-0.160
4348,-0.210,-0.190
4349,-0.200,-0.200
4350,-0.225,-0.195
4351,-0.225,-0.190
4352,-0.210,-0.205
4353,-0.200,-0.195
4354,-0.195,-0.210
4355,-0.230,-0.220
4356,-0.235,-0.210
4357,-0.200,-0.190
4358,-0.170,-0.210
4359,-0.195,-0.210
4360,-0.215,-0.215
4361,-0.205,-0.200
4362,-0.185,-0.190
4363,-0.185,-0.205
4364,-0.205,-0.205
4365,-0.210,-0.210
4366,-0.220,-0.210
4367,-0.170,-0.210
4368,-0.180,-0.225
4369,-0.205,-0.225
4370,-0.200,-0.225
4371,-0.200,-0.215
4372,-0.210,-0.220
4373,-0.195,-0.225
4374,-0.190,-0.230
4375,-0.210,-0.220
4376,-0.210,-0.195
4377,-0.180,-0.160
4378,-0.180,-0.150
4379,-0.180,-0.140
4380,-0.160,-0.120
4381,-0.155,-0.090
4382,-0.130,-0.030
4383,-0.115,-0.020
4384,-0.150,-0.020
4385,-0.150,-0.035
4386,-0.150,-0.055
4387,-0.165,-0.070
4388,-0.135,-0.155
4389,-0.165,-0.225
4390,-0.195,-0.235
4391,-0.175,-0.225
4392,-0.150,-0.240
4393,-0.170,-0.245
4394,-0.200,-0.245
4395,-0.200,-0.230
4396,-0.185,-0.220
4397,-0.140,-0.215
4398,-0.165,-0.230
4399,-0.195,-0.245
4400,-0.165,-0.255
4401,-0.115,-0.115
4402,-0.040,0.310
4403,-0.045,0.855
4404,-0.160,0.645
4405,-0.320,0.045
4406,-0.455,-0.160
4407,-0.355,-0.060
4408,-0.265,-0.130
4409,-0.235,-0.190
4410,-0.205,-0.225
4411,-0.185,-0.220
4412,-0.175,-0.225
4413,-0.155,-0.235
4414,-0.195,-0.230
4415,-0.180,-0.220
4416,-0.185,-0.240
4417,-0.175,-0.225
4418,-0.155,-0.240
4419,-0.195,-0.250
4420,-0.185,-0.225
4421,-0.180,-0.240
4422,-0.160,-0.240
4423,-0.185,-0.255
4424,-0.180,-0.245
4425,-0.185,-0.230
4426,-0.165,-0.220
4427,-0.150,-0.230
4428,-0.165,-0.220
4429,-0.180,-0.220
4430,-0.175,-0.190
4431,-0.185,-0.175
4432,-0.180,-0.170
4433,-0.220,-0.150
4434,-0.270,-0.145
4435,-0.255,-0.120
4436,-0.205,-0.085
4437,-0.200,-0.065
4438,-0.260,-0.075
4439,-0.245,-0.055
4440,-0.235,-0.050
4441,-0.215,-0.035
4442,-0.220,-0.025
4443,-0.220,-0.025
4444,-0.240,-0.035
4445,-0.215,-0.045
4446,-0.200,-0.080
4447,-0.205,-0.110
4448,-0.220,-0.155
4449,-0.245,-0.170
4450,-0.235,-0.180
4451,-0.220,-0.205
4452,-0.240,-0.215
4453,-0.260,-0.245
4454,-0.245,-0.260
4455,-0.265,-0.245
4456,-0.250,-0.230
4457,-0.245,-0.240
4458,-0.235,-0.280
4459,-0.260,-0.275
4460,-0.250,-0.225
4461,-0.210,-0.240
4462,-0.205,-0.235
4463,-0.200,-0.255
4464,-0.215,-0.230
4465,-0.225,-0.240
4466,-0.185,-0.220
4467,-0.170,-0.220
4468,-0.175,-0.240
4469,-0.200,-0.255
4470,-0.185,-0.255
4471,-0.160,-0.240
4472,-0.125,-0.245
4473,-0.150,-0.260
4474,-0.170,-0.245
4475,-0.170,-0.245
4476,-0.155,-0.240
4477,-0.185,-0.240
4478,-0.190,-0.270
4479,-0.200,-0.290
4480,-0.225,-0.250
4481,-0.175,-0.245
4482,-0.175,-0.250
4483,-0.170,-0.270
4484,-0.195,-0.290
4485,-0.170,-0.265
4486,-0.150,-0.265
4487,-0.130,-0.265
4488,-0.140,-0.265
4489,-0.145,-0.265
4490,-0.140,-0.265
4491,-0.115,-0.245
4492,-0.105,-0.260
4493,-0.120,-0.285
4494,-0.145,-0.260
4495,-0.130,-0.270
4496,-0.115,-0.245
4497,-0.085,-0.250
4498,-0.100,-0.265
4499,-0.105,-0.265
4500,-0.115,-0.240
4501,-0.080,-0.240
4502,-0.070,-0.220
4503,-0.080,-0.260
4504,-0.080,-0.245
4505,-0.070,-0.195
4506,-0.030,-0.185
4507,-0.015,-0.175
4508,0.015,-0.170
4509,0.025,-0.140
4510,0.025,-0.075
4511,0.055,-0.010
4512,0.070,-0.030
4513,0.050,-0.065
4514,0.015,-0.110
4515,0.025,-0.075
4516,0.015,-0.145
4517,0.055,-0.205
4518,0.010,-0.240
4519,0.005,-0.265
4520,0.010,-0.250
4521,0.035,-0.245
4522,0.020,-0.235
4523,0.005,-0.235
4524,0.015,-0.250
4525,0.015,-0.255
4526,0.040,-0.220
4527,0.085,-0.220
4528,0.070,-0.275
4529,0.095,-0.140
4530,0.150,0.285
4531,0.180,0.765
4532,0.090,0.560
4533,-0.075,-0.070
4534,-0.180,-0.290
4535,-0.115,-0.135
4536,0.000,-0.120
4537,0.055,-0.195
4538,0.055,-0.250
4539,0.050,-0.250
4540,0.070,-0.230
4541,0.095,-0.255
4542,0.085,-0.230
4543,0.070,-0.255
4544,0.050,-0.255
4545,0.090,-0.240
4546,0.100,-0.250
4547,0.105,-0.240
4548,0.075,-0.240
4549,0.095,-0.255
4550,0.110,-0.250
4551,0.110,-0.230
4552,0.110,-0.250
4553,0.075,-0.225
4554,0.090,-0.205
4555,0.090,-0.200
4556,0.110,-0.205
4557,0.125,-0.200
4558,0.105,-0.195
4559,0.120,-0.185
4560,0.140,-0.135
4561,0.145,-0.105
4562,0.145,-0.100
4563,0.135,-0.090
4564,0.155,-0.070
4565,0.170,-0.045
4566,0.185,-0.020
4567,0.180,-0.040
4568,0.170,-0.040
4569,0.145,0.005
4570,0.185,0.010
4571,0.195,0.005
4572,0.210,0.010
4573,0.185,0.005
4574,0.195,-0.005
4575,0.195,-0.030
4576,0.200,-0.055
4577,0.190,-0.100
4578,0.160,-0.120
4579,0.160,-0.140
4580,0.190,-0.140
4581,0.195,-0.165
4582,0.200,-0.175
4583,0.175,-0.185
4584,0.190,-0.180
4585,0.220,-0.160
4586,0.235,-0.175
4587,0.235,-0.195
4588,0.205,-0.190
4589,0.210,-0.180
4590,0.250,-0.160
4591,0.255,-0.160
4592,0.260,-0.170
4593,0.235,-0.165
4594,0.230,-0.170
4595,0.240,-0.140
4596,0.260,-0.165
4597,0.260,-0.180
4598,0.240,-0.180
4599,0.245,-0.160
4600,0.245,-0.155
4601,0.250,-0.160
4602,0.245,-0.185
4603,0.225,-0.185
4604,0.240,-0.190
4605,0.270,-0.180
4606,0.275,-0.165
4607,0.230,-0.200
4608,0.245,-0.200
4609,0.255,-0.195
4610,0.280,-0.190
4611,0.290,-0.190
4612,0.265,-0.190
4613,0.280,-0.205
4614,0.295,-0.175
4615,0.300,-0.210
4616,0.305,-0.200
4617,0.290,-0.205
4618,0.275,-0.185
4619,0.305,-0.170
4620,0.330,-0.190
4621,0.325,-0.195
4622,0.305,-0.190
4623,0.310,-0.185
4624,0.325,-0.190
4625,0.325,-0.185
4626,0.335,-0.200
4627,0.305,-0.195
4628,0.305,-0.190
4629,0.330,-0.180
4630,0.360,-0.180
4631,0.340,-0.185
4632,0.340,-0.160
4633,0.345,-0.105
4634,0.355,-0.080
4635,0.395,-0.090
4636,0.395,-0.080
4637,0.375,-0.015
4638,0.390,0.030
4639,0.410,0.030
4640,0.395,-0.005
4641,0.365,-0.040
4642,0.340,-0.050
4643,0.365,-0.120
4644,0.380,-0.180
4645,0.365,-0.205
4646,0.365,-0.210
4647,0.340,-0.205
4648,0.355,-0.200
4649,0.370,-0.200
4650,0.385,-0.205
4651,0.335,-0.180
4652,0.335,-0.200
4653,0.340,-0.170
4654,0.375,-0.190
4655,0.420,-0.135
4656,0.410,0.205
4657,0.460,0.780
4658,0.395,0.785
4659,0.260,0.095
4660,0.105,-0.270
4661,0.115,-0.100
4662,0.210,-0.080
4663,0.285,-0.135
4664,0.315,-0.180
4665,0.290,-0.200
4666,0.280,-0.205
4667,0.275,-0.180
4668,0.255,-0.185
4669,0.275,-0.200
4670,0.205,-0.205
4671,0.215,-0.195
4672,0.235,-0.190
4673,0.270,-0.185
4674,0.255,-0.205
4675,0.240,-0.210
4676,0.235,-0.190
4677,0.240,-0.160
4678,0.260,-0.180
4679,0.245,-0.175
4680,0.210,-0.175
4681,0.225,-0.155
4682,0.250,-0.145
4683,0.250,-0.125
4684,0.260,-0.125
4685,0.230,-0.085
4686,0.220,-0.050
4687,0.255,-0.015
4688,0.250,-0.020
4689,0.220,-0.005
4690,0.225,0.000
4691,0.205,0.025
4692,0.225,0.055
4693,0.245,0.050
4694,0.200,0.030
4695,0.215,0.080
4696,0.225,0.090
4697,0.220,0.090
4698,0.230,0.070
4699,0.200,0.035
4700,0.180,0.030
4701,0.180,0.020
4702,0.195,-0.005
4703,0.160,-0.040
4704,0.105,-0.065
4705,0.095,-0.100
4706,0.105,-0.085
4707,0.125,-0.110
4708,0.105,-0.120
4709,0.065,-0.125
4710,0.075,-0.115
4711,0.075,-0.120
4712,0.050,-0.130
4713,0.020,-0.115
4714,-0.025,-0.130
4715,-0.025,-0.100
4716,-0.005,-0.100
4717,-0.015,-0.100
4718,-0.090,-0.115
4719,-0.135,-0.140
4720,-0.145,-0.110
4721,-0.125,-0.095
4722,-0.120,-0.115
4723,-0.140,-0.130
4724,-0.160,-0.130
4725,-0.150,-0.115
4726,-0.130,-0.120
4727,-0.135,-0.145
4728,-0.150,-0.160
4729,-0.155,-0.145
4730,-0.140,-0.140
4731,-0.140,-0.140
4732,-0.150,-0.150
4733,-0.170,-0.160
4734,-0.165,-0.155
4735,-0.140,-0.155
4736,-0.135,-0.140
4737,-0.150,-0.165
4738,-0.145,-0.160
4739,-0.160,-0.155
4740,-0.145,-0.155
4741,-0.135,-0.170
4742,-0.165,-0.160
4743,-0.165,-0.150
4744,-0.155,-0.155
4745,-0.140,-0.170
4746,-0.135,-0.150
4747,-0.160,-0.185
4748,-0.155,-0.155
4749,-0.155,-0.165
4750,-0.140,-0.160
4751,-0.155,-0.165
4752,-0.170,-0.180
4753,-0.165,-0.185
4754,-0.145,-0.170
4755,-0.125,-0.150
4756,-0.145,-0.180
4757,-0.175,-0.155
4758,-0.140,-0.120
4759,-0.115,-0.105
4760,-0.085,-0.100
4761,-0.115,-0.090
4762,-0.120,-0.055
4763,-0.090,0.015
4764,-0.095,0.015
4765,-0.110,-0.005
4766,-0.140,-0.030
4767,-0.155,-0.045
4768,-0.125,-0.110
4769,-0.105,-0.165
4770,-0.120,-0.190
4771,-0.160,-0.230
4772,-0.160,-0.215
4773,-0.135,-0.205
4774,-0.115,-0.200
4775,-0.130,-0.225
4776,-0.135,-0.210
4777,-0.140,-0.190
4778,-0.145,-0.180
4779,-0.100,-0.205
4780,-0.105,-0.230
4781,-0.055,0.025
4782,0.000,0.630
4783,0.000,0.970
4784,-0.155,0.425
4785,-0.330,-0.130
4786,-0.370,-0.065
4787,-0.240,-0.055
4788,-0.140,-0.145
4789,-0.105,-0.205
4790,-0.130,-0.225
4791,-0.135,-0.215
4792,-0.120,-0.205
4793,-0.120,-0.210
4794,-0.140,-0.240
4795,-0.170,-0.225
4796,-0.155,-0.225
4797,-0.135,-0.210
4798,-0.100,-0.230
4799,-0.140,-0.245
4800,-0.155,-0.240
4801,-0.145,-0.210
4802,-0.110,-0.215
4803,-0.110,-0.235
4804,-0.135,-0.240
4805,-0.140,-0.220
4806,-0.140,-0.200
4807,-0.125,-0.175
4808,-0.135,-0.185
4809,-0.155,-0.175
4810,-0.150,-0.150
4811,-0.130,-0.130
4812,-0.115,-0.115
4813,-0.145,-0.100
4814,-0.160,-0.085
4815,-0.150,-0.070
4816,-0.140,-0.050
4817,-0.130,-0.045
4818,-0.150,-0.045
4819,-0.145,-0.015
4820,-0.150,0.005
4821,-0.140,0.000
4822,-0.135,-0.005
4823,-0.150,-0.015
4824,-0.155,-0.040
4825,-0.160,-0.055
4826,-0.145,-0.080
4827,-0.140,-0.125
4828,-0.145,-0.150
4829,-0.170,-0.175
4830,-0.175,-0.155
4831,-0.170,-0.185
4832,-0.155,-0.205
4833,-0.205,-0.205
4834,-0.215,-0.190
4835,-0.175,-0.190
4836,-0.175,-0.205
4837,-0.190,-0.215
4838,-0.210,-0.220
4839,-0.215,-0.210
4840,-0.160,-0.210
4841,-0.160,-0.200
4842,-0.175,-0.200
4843,-0.190,-0.205
4844,-0.185,-0.190
4845,-0.190,-0.195
4846,-0.165,-0.200
4847,-0.190,-0.225
4848,-0.190,-0.220
4849,-0.180,-0.190
4850,-0.180,-0.210
4851,-0.190,-0.250
4852,-0.200,-0.235
4853,-0.210,-0.235
4854,-0.180,-0.235
4855,-0.170,-0.235
4856,-0.185,-0.240
4857,-0.190,-0.235
4858,-0.175,-0.240
4859,-0.145,-0.225
4860,-0.155,-0.230
4861,-0.160,-0.245
4862,-0.185,-0.245
4863,-0.180,-0.235
4864,-0.145,-0.255
4865,-0.150,-0.255
4866,-0.165,-0.265
4867,-0.180,-0.245
4868,-0.160,-0.240
4869,-0.160,-0.240
4870,-0.180,-0.250
4871,-0.175,-0.255
4872,-0.175,-0.250
4873,-0.170,-0.245
4874,-0.160,-0.245
4875,-0.160,-0.255
4876,-0.190,-0.245
4877,-0.190,-0.245
4878,-0.170,-0.240
4879,-0.130,-0.240
4880,-0.155,-0.255
4881,-0.180,-0.235
4882,-0.190,-0.195
4883,-0.155,-0.170
4884,-0.110,-0.160
4885,-0.090,-0.170
4886,-0.130,-0.100
4887,-0.135,-0.050
4888,-0.100,-0.040
4889,-0.105,-0.080
4890,-0.145,-0.115
4891,-0.165,-0.115
4892,-0.175,-0.180
4893,-0.140,-0.240
4894,-0.175,-0.270
4895,-0.185,-0.300
4896,-0.180,-0.290
4897,-0.170,-0.280
4898,-0.145,-0.260
4899,-0.155,-0.270
4900,-0.155,-0.280
4901,-0.160,-0.270
4902,-0.150,-0.250
4903,-0.115,-0.270
4904,-0.100,-0.305
4905,-0.070,-0.155
4906,-0.015,0.350
4907,-0.005,0.865
4908,-0.115,0.530
4909,-0.275,-0.070
4910,-0.430,-0.170
4911,-0.285,-0.105
4912,-0.200,-0.170
4913,-0.150,-0.240
4914,-0.150,-0.275
4915,-0.175,-0.290
4916,-0.145,-0.280
4917,-0.125,-0.265
4918,-0.120,-0.275
4919,-0.135,-0.290
4920,-0.145,-0.285
4921,-0.145,-0.280
4922,-0.130,-0.280
4923,-0.145,-0.280
4924,-0.140,-0.290
4925,-0.155,-0.295
4926,-0.155,-0.275
4927,-0.115,-0.260
4928,-0.115,-0.275
4929,-0.135,-0.285
4930,-0.155,-0.285
4931,-0.125,-0.240
4932,-0.130,-0.255
4933,-0.135,-0.235
4934,-0.145,-0.235
4935,-0.135,-0.200
4936,-0.130,-0.190
4937,-0.105,-0.155
4938,-0.110,-0.165
4939,-0.135,-0.140
4940,-0.160,-0.135
4941,-0.140,-0.105
4942,-0.125,-0.090
4943,-0.115,-0.090
4944,-0.145,-0.090
4945,-0.140,-0.050
4946,-0.125,-0.030
4947,-0.105,-0.040
4948,-0.120,-0.075
4949,-0.150,-0.070
4950,-0.135,-0.090
4951,-0.140,-0.105
4952,-0.125,-0.155
4953,-0.145,-0.180
4954,-0.145,-0.190
4955,-0.145,-0.205
4956,-0.145,-0.215
4957,-0.125,-0.215
4958,-0.120,-0.225
4959,-0.135,-0.240
4960,-0.155,-0.235
4961,-0.135,-0.225
4962,-0.145,-0.225
4963,-0.125,-0.250
4964,-0.130,-0.230
4965,-0.150,-0.235
4966,-0.140,-0.215
4967,-0.115,-0.225
4968,-0.125,-0.240
4969,-0.145,-0.220
4970,-0.130,-0.215
4971,-0.120,-0.215
4972,-0.110,-0.220
4973,-0.135,-0.240
4974,-0.195,-0.240
4975,-0.180,-0.225
4976,-0.160,-0.245
4977,-0.140,-0.240
4978,-0.125,-0.245
4979,-0.160,-0.240
4980,-0.180,-0.250
4981,-0.145,-0.245
4982,-0.115,-0.260
4983,-0.130,-0.260
4984,-0.135,-0.290
4985,-0.155,-0.270
4986,-0.130,-0.275
4987,-0.125,-0.260
4988,-0.155,-0.270
4989,-0.220,-0.285
4990,-0.570,-0.265
4991,-0.915,-0.240
4992,-1.040,-0.265
4993,-1.050,-0.290
4994,-1.095,-0.285
4995,-1.125,-0.285
4996,-1.085,-0.270
4997,-1.060,-0.260
4998,-1.075,-0.290
4999,-1.070,-0.280
5000,-1.055,-0.290
5001,-1.025,-0.270
5002,-0.990,-0.295
5003,-0.980,-0.310
5004,-0.975,-0.305
5005,-0.940,-0.300
5006,-0.870,-0.280
5007,-0.600,-0.290
5008,-0.215,-0.295
5009,-0.095,-0.280
5010,-0.075,-0.230
5011,-0.015,-0.215
5012,0.000,-0.210
5013,0.000,-0.190
5014,-0.030,-0.145
5015,0.000,-0.105
5016,0.005,-0.100
5017,0.000,-0.135
5018,-0.025,-0.155
5019,-0.045,-0.190
5020,-0.050,-0.245
5021,-0.015,-0.290
5022,-0.020,-0.305
5023,-0.010,-0.330
5024,-0.045,-0.330
5025,-0.035,-0.335
5026,-0.020,-0.315
5027,-0.015,-0.315
5028,-0.010,-0.315
5029,-0.010,-0.315
5030,-0.010,-0.310
5031,0.000,-0.280
5032,0.015,-0.320
5033,0.060,-0.255
5034,0.105,0.085
5035,0.155,0.635
5036,0.080,0.605
5037,-0.050,0.020
5038,-0.210,-0.340
5039,-0.160,-0.185
5040,-0.070,-0.195
5041,0.020,-0.245
5042,0.065,-0.270
5043,0.045,-0.295
5044,0.050,-0.310
5045,0.055,-0.310
5046,0.075,-0.300
5047,0.095,-0.300
5048,0.070,-0.305
5049,0.040,-0.300
5050,0.070,-0.300
5051,0.095,-0.295
5052,0.095,-0.305
5053,0.060,-0.310
5054,0.065,-0.320
5055,0.045,-0.305
5056,0.080,-0.295
5057,0.080,-0.305
5058,0.065,-0.295
5059,0.060,-0.295
5060,0.075,-0.270
5061,0.075,-0.240
5062,0.085,-0.240
5063,0.090,-0.255
5064,0.080,-0.230
5065,0.090,-0.195
5066,0.125,-0.200
5067,0.130,-0.175
5068,0.110,-0.160
5069,0.105,-0.140
5070,0.095,-0.100
5071,0.130,-0.105
5072,0.130,-0.105
5073,0.120,-0.115
5074,0.110,-0.090
5075,0.080,-0.055
5076,0.130,-0.070
5077,0.140,-0.070
5078,0.115,-0.095
5079,0.090,-0.095
5080,0.100,-0.115
5081,0.135,-0.140
5082,0.145,-0.155
5083,0.130,-0.200
5084,0.115,-0.215
5085,0.120,-0.225
5086,0.130,-0.230
5087,0.115,-0.245
5088,0.135,-0.250
5089,0.105,-0.240
5090,0.120,-0.250
5091,0.160,-0.240
5092,0.170,-0.235
5093,0.165,-0.235
5094,0.140,-0.240
5095,0.140,-0.210
5096,0.165,-0.205
5097,0.145,-0.220
5098,0.135,-0.240
5099,0.110,-0.235
5100,0.125,-0.215
5101,0.135,-0.200
5102,0.145,-0.235
5103,0.145,-0.240
5104,0.135,-0.245
5105,0.105,-0.240
5106,0.130,-0.220
5107,0.160,-0.245
5108,0.140,-0.240
5109,0.120,-0.250
5110,0.130,-0.230
5111,0.175,-0.235
5112,0.175,-0.235
5113,0.150,-0.235
5114,0.130,-0.250
5115,0.145,-0.225
5116,0.185,-0.250
5117,0.185,-0.255
5118,0.135,-0.250
5119,0.140,-0.245
5120,0.155,-0.240
5121,0.190,-0.220
5122,0.185,-0.230
5123,0.170,-0.240
5124,0.160,-0.225
5125,0.185,-0.220
5126,0.215,-0.225
5127,0.220,-0.245
5128,0.225,-0.255
5129,0.250,-0.215
5130,0.285,-0.220
5131,0.295,-0.210
5132,0.275,-0.235
5133,0.265,-0.230
5134,0.260,-0.225
5135,0.285,-0.195
5136,0.295,-0.210
5137,0.285,-0.210
5138,0.275,-0.185
5139,0.280,-0.150
5140,0.315,-0.135
5141,0.350,-0.120
5142,0.335,-0.075
5143,0.310,-0.025
5144,0.305,-0.020
5145,0.315,-0.050
5146,0.310,-0.080
5147,0.310,-0.095
5148,0.285,-0.170
5149,0.280,-0.200
5150,0.300,-0.230
5151,0.300,-0.240
5152,0.280,-0.250
5153,0.280,-0.245
5154,0.295,-0.235
5155,0.305,-0.240
5156,0.300,-0.240
5157,0.280,-0.230
5158,0.285,-0.230
5159,0.305,-0.215
5160,0.360,-0.220
5161,0.390,-0.060
5162,0.450,0.370
5163,0.390,0.770
5164,0.295,0.330
5165,0.170,-0.260
5166,0.105,-0.230
5167,0.210,-0.120
5168,0.280,-0.170
5169,0.320,-0.185
5170,0.335,-0.225
5171,0.345,-0.220
5172,0.310,-0.230
5173,0.305,-0.215
5174,0.340,-0.200
5175,0.340,-0.210
5176,0.320,-0.235
5177,0.315,-0.225
5178,0.305,-0.215
5179,0.345,-0.200
5180,0.335,-0.215
5181,0.315,-0.220
5182,0.315,-0.215
5183,0.335,-0.195
5184,0.335,-0.185
5185,0.345,-0.220
5186,0.315,-0.210
5187,0.300,-0.200
5188,0.330,-0.170
5189,0.350,-0.155
5190,0.340,-0.160
5191,0.310,-0.135
5192,0.315,-0.110
5193,0.340,-0.080
5194,0.340,-0.075
5195,0.335,-0.075
5196,0.315,-0.065
5197,0.310,-0.025
5198,0.330,0.000
5199,0.340,0.005
5200,0.300,0.020
5201,0.290,0.025
5202,0.295,0.025
5203,0.320,0.030
5204,0.330,0.005
5205,0.305,-0.010
5206,0.295,-0.035
5207,0.310,-0.045
5208,0.325,-0.085
5209,0.325,-0.095
5210,0.290,-0.115
5211,0.280,-0.140
5212,0.305,-0.125
5213,0.310,-0.140
5214,0.310,-0.140
5215,0.295,-0.145
5216,0.290,-0.145
5217,0.300,-0.130
5218,0.325,-0.135
5219,0.305,-0.170
5220,0.295,-0.165
5221,0.280,-0.130
5222,0.295,-0.120
5223,0.295,-0.110
5224,0.270,-0.120
5225,0.265,-0.095
5226,0.260,-0.100
5227,0.215,-0.110
5228,0.180,-0.105
5229,0.140,-0.135
5230,0.120,-0.145
5231,0.150,-0.115
5232,0.160,-0.135
5233,0.160,-0.145
5234,0.135,-0.145
5235,0.130,-0.150
5236,0.130,-0.130
5237,0.115,-0.140
5238,0.110,-0.170
5239,0.090,-0.165
5240,0.095,-0.140
5241,0.110,-0.145
5242,0.115,-0.150
5243,0.090,-0.170
5244,0.075,-0.160
5245,0.125,-0.155
5246,0.155,-0.155
5247,0.140,-0.160
5248,0.120,-0.160
5249,0.105,-0.170
5250,0.120,-0.145
5251,0.145,-0.150
5252,0.130,-0.165
5253,0.110,-0.160
5254,0.115,-0.170
5255,0.130,-0.140
5256,0.120,-0.160
5257,0.120,-0.155
5258,0.100,-0.165
5259,0.095,-0.165
5260,0.110,-0.155
5261,0.135,-0.150
5262,0.110,-0.135
5263,0.110,-0.090
5264,0.125,-0.085
5265,0.145,-0.060
5266,0.140,-0.030
5267,0.135,0.005
5268,0.145,0.025
5269,0.145,0.020
5270,0.160,-0.010
5271,0.140,-0.035
5272,0.110,-0.095
5273,0.085,-0.150
5274,0.090,-0.180
5275,0.105,-0.200
5276,0.095,-0.215
5277,0.090,-0.215
5278,0.075,-0.200
5279,0.100,-0.185
5280,0.105,-0.195
5281,0.075,-0.200
5282,0.065,-0.190
5283,0.080,-0.190
5284,0.130,-0.205
5285,0.195,-0.085
5286,0.225,0.320
5287,0.225,0.840
5288,0.110,0.590
5289,-0.015,-0.015
5290,-0.135,-0.125
5291,-0.020,-0.060
5292,0.035,-0.110
5293,0.110,-0.170
5294,0.135,-0.165
5295,0.115,-0.195
5296,0.100,-0.200
5297,0.120,-0.210
5298,0.115,-0.180
5299,0.135,-0.205
5300,0.100,-0.205
5301,0.090,-0.205
5302,0.100,-0.190
5303,0.125,-0.200
5304,0.120,-0.210
5305,0.095,-0.225
5306,0.100,-0.220
5307,0.115,-0.190
5308,0.140,-0.205
5309,0.120,-0.205
5310,0.090,-0.210
5311,0.095,-0.180
5312,0.125,-0.175
5313,0.115,-0.155
5314,0.115,-0.140
5315,0.100,-0.125
5316,0.090,-0.095
5317,0.100,-0.065
5318,0.125,-0.065
5319,0.105,-0.060
5320,0.085,-0.045
5321,0.110,-0.010
5322,0.120,-0.005
5323,0.115,-0.010
5324,0.105,0.000
5325,0.105,0.000
5326,0.105,0.020
5327,0.115,0.010
5328,0.100,0.000
5329,0.105,-0.040
5330,0.095,-0.045
5331,0.095,-0.070
5332,0.130,-0.090
5333,0.110,-0.095
5334,0.090,-0.155
5335,0.090,-0.160
5336,0.100,-0.130
5337,0.100,-0.150
5338,0.105,-0.165
5339,0.070,-0.170
5340,0.075,-0.165
5341,0.105,-0.165
5342,0.115,-0.170
5343,0.100,-0.170
5344,0.095,-0.160
5345,0.095,-0.150
5346,0.110,-0.125
5347,0.110,-0.150
5348,0.105,-0.155
5349,0.095,-0.160
5350,0.095,-0.145
5351,0.125,-0.160
5352,0.115,-0.180
5353,0.105,-0.195
5354,0.090,-0.180
5355,0.090,-0.170
5356,0.095,-0.180
5357,0.085,-0.185
5358,0.085,-0.190
5359,0.095,-0.200
5360,0.105,-0.180
5361,0.105,-0.200
5362,0.095,-0.215
5363,0.075,-0.215
5364,0.075,-0.205
5365,0.090,-0.225
5366,0.095,-0.215
5367,0.095,-0.230
5368,0.080,-0.230
5369,0.095,-0.230
5370,0.120,-0.210
5371,0.110,-0.215
5372,0.080,-0.230
5373,0.100,-0.235
5374,0.095,-0.205
5375,0.115,-0.215
5376,0.105,-0.225
5377,0.110,-0.225
5378,0.090,-0.215
5379,0.105,-0.215
5380,0.110,-0.200
5381,0.130,-0.220
5382,0.090,-0.235
5383,0.075,-0.220
5384,0.105,-0.205
5385,0.115,-0.180
5386,0.110,-0.175
5387,0.110,-0.165
5388,0.110,-0.145
5389,0.140,-0.115
5390,0.160,-0.085
5391,0.170,-0.050
5392,0.145,-0.050
5393,0.120,-0.065
5394,0.150,-0.075
5395,0.120,-0.085
5396,0.125,-0.180
5397,0.100,-0.225
5398,0.095,-0.250
5399,0.115,-0.235
5400,0.120,-0.260
5401,0.095,-0.265
5402,0.060,-0.285
5403,0.085,-0.270
5404,0.095,-0.240
5405,0.115,-0.240
5406,0.095,-0.265
5407,0.085,-0.270
5408,0.115,-0.285
5409,0.185,-0.170
5410,0.230,0.210
5411,0.235,0.725
5412,0.130,0.630
5413,-0.015,0.060
5414,-0.105,-0.210
5415,-0.035,-0.085
5416,0.050,-0.145
5417,0.085,-0.215
5418,0.110,-0.225
5419,0.160,-0.250
5420,0.155,-0.260
5421,0.125,-0.260
5422,0.130,-0.240
5423,0.135,-0.230
5424,0.135,-0.245
5425,0.090,-0.255
5426,0.065,-0.250
5427,0.055,-0.250
5428,0.035,-0.240
5429,0.025,-0.255
5430,0.020,-0.255
5431,-0.005,-0.260
5432,0.005,-0.250
5433,0.015,-0.240
5434,0.035,-0.240
5435,0.020,-0.245
5436,0.005,-0.205
5437,0.015,-0.180
5438,0.040,-0.180
5439,0.035,-0.170
5440,0.035,-0.170
5441,0.020,-0.155
5442,0.025,-0.120
5443,0.040,-0.105
5444,0.045,-0.090
5445,0.045,-0.095
5446,0.060,-0.080
5447,0.045,-0.045
5448,0.065,-0.030
5449,0.085,-0.020
5450,0.070,-0.040
5451,0.050,-0.025
5452,0.055,-0.035
5453,0.085,-0.035
5454,0.075,-0.075
5455,0.055,-0.105
5456,0.060,-0.120
5457,0.060,-0.135
5458,0.065,-0.140
5459,0.085,-0.175
5460,0.035,-0.190
5461,0.040,-0.210
5462,0.045,-0.190
5463,0.040,-0.200
5464,0.035,-0.210
5465,0.050,-0.210
5466,0.060,-0.220
5467,0.050,-0.205
5468,0.085,-0.185
5469,0.060,-0.190
5470,0.055,-0.200
5471,0.050,-0.205
5472,0.065,-0.170
5473,0.080,-0.190
5474,0.055,-0.200
5475,0.060,-0.190
5476,0.025,-0.200
5477,0.035,-0.195
5478,-0.175,-0.200
5479,-0.615,-0.225
5480,-0.655,-0.240
5481,-0.635,-0.215
5482,-0.660,-0.210
5483,-0.620,-0.220
5484,-0.620,-0.245
5485,-0.635,-0.255
5486,-0.665,-0.240
5487,-0.660,-0.230
5488,-0.645,-0.240
5489,-0.640,-0.260
5490,-0.655,-0.285
5491,-0.640,-0.265
5492,-0.620,-0.275
5493,-0.605,-0.280
5494,-0.590,-0.300
5495,-0.585,-0.295
5496,-0.590,-0.275
5497,-0.545,-0.270
5498,-0.500,-0.280
5499,-0.485,-0.280
5500,-0.455,-0.300
5501,-0.430,-0.260
5502,-0.350,-0.265
5503,-0.310,-0.270
5504,-0.260,-0.285
5505,-0.120,-0.290
5506,0.125,-0.270
5507,0.160,-0.255
5508,0.170,-0.275
5509,0.175,-0.280
5510,0.145,-0.265
5511,0.185,-0.260
5512,0.195,-0.230
5513,0.205,-0.205
5514,0.200,-0.205
5515,0.210,-0.195
5516,0.220,-0.135
5517,0.235,-0.095
5518,0.255,-0.095
5519,0.250,-0.100
5520,0.215,-0.145
5521,0.210,-0.140
5522,0.220,-0.150
5523,0.225,-0.230
5524,0.195,-0.295
5525,0.170,-0.310
5526,0.185,-0.310
5527,0.200,-0.275
5528,0.250,-0.295
5529,0.240,-0.310
5530,0.230,-0.305
5531,0.265,-0.295
5532,0.300,-0.280
5533,0.305,-0.290
5534,0.310,-0.295
5535,0.305,-0.330
5536,0.345,-0.160
5537,0.425,0.260
5538,0.420,0.710
5539,0.295,0.455
5540,0.155,-0.120
5541,0.065,-0.285
5542,0.180,-0.145
5543,0.255,-0.200
5544,0.280,-0.255
5545,0.280,-0.275
5546,0.295,-0.260
5547,0.325,-0.280
5548,0.345,-0.280
5549,0.315,-0.305
5550,0.305,-0.290
5551,0.340,-0.245
5552,0.350,-0.270
5553,0.355,-0.280
5554,0.365,-0.295
5555,0.350,-0.275
5556,0.355,-0.275
5557,0.385,-0.270
5558,0.390,-0.280
5559,0.355,-0.280
5560,0.360,-0.285
5561,0.375,-0.260
5562,0.380,-0.260
5563,0.400,-0.255
5564,0.375,-0.240
5565,0.360,-0.220
5566,0.405,-0.200
5567,0.400,-0.175
5568,0.400,-0.190
5569,0.390,-0.185
5570,0.370,-0.120
5571,0.410,-0.105
5572,0.420,-0.100
5573,0.405,-0.095
5574,0.370,-0.095
5575,0.380,-0.055
5576,0.385,-0.020
5577,0.420,-0.030
5578,0.410,-0.060
5579,0.405,-0.045
5580,0.395,-0.025
5581,0.420,-0.055
5582,0.430,-0.060
5583,0.415,-0.105
5584,0.395,-0.125
5585,0.395,-0.150
5586,0.395,-0.170
5587,0.415,-0.165
5588,0.390,-0.190
5589,0.365,-0.215
5590,0.360,-0.205
5591,0.385,-0.175
5592,0.415,-0.190
5593,0.395,-0.190
5594,0.380,-0.195
5595,0.370,-0.190
5596,0.415,-0.185
5597,0.430,-0.160
5598,0.430,-0.180
5599,0.395,-0.195
5600,0.405,-0.185
5601,0.420,-0.165
5602,0.420,-0.170
5603,0.410,-0.170
5604,0.390,-0.190
5605,0.400,-0.180
5606,0.410,-0.170
5607,0.435,-0.160
5608,0.415,-0.180
5609,0.395,-0.200
5610,0.390,-0.215
5611,0.385,-0.175
5612,0.430,-0.180
5613,0.430,-0.210
5614,0.400,-0.215
5615,0.415,-0.205
5616,0.445,-0.180
5617,0.455,-0.195
5618,0.475,-0.215
5619,0.450,-0.205
5620,0.475,-0.205
5621,0.490,-0.200
5622,0.495,-0.200
5623,0.495,-0.215
5624,0.475,-0.205
5625,0.465,-0.210
5626,0.490,-0.200
5627,0.495,-0.210
5628,0.500,-0.230
5629,0.475,-0.205
5630,0.490,-0.215
5631,0.500,-0.195
5632,0.520,-0.195
5633,0.495,-0.225
5634,0.475,-0.215
5635,0.475,-0.215
5636,0.510,-0.190
5637,0.530,-0.205
5638,0.515,-0.210
5639,0.480,-0.205
5640,0.485,-0.185
5641,0.520,-0.130
5642,0.545,-0.135
5643,0.530,-0.135
5644,0.525,-0.125
5645,0.525,-0.060
5646,0.550,-0.015
5647,0.555,-0.035
5648,0.520,-0.060
5649,0.495,-0.080
5650,0.480,-0.085
5651,0.495,-0.150
5652,0.490,-0.205
5653,0.470,-0.240
5654,0.470,-0.260
5655,0.475,-0.245
5656,0.475,-0.250
5657,0.510,-0.240
5658,0.475,-0.260
5659,0.475,-0.250
5660,0.475,-0.240
5661,0.480,-0.230
5662,0.495,-0.245
5663,0.505,-0.260
5664,0.530,-0.100
5665,0.590,0.295
5666,0.605,0.745
5667,0.500,0.485
5668,0.335,-0.135
5669,0.230,-0.305
5670,0.325,-0.140
5671,0.430,-0.150
5672,0.480,-0.205
5673,0.460,-0.245
5674,0.455,-0.230
5675,0.485,-0.220
5676,0.510,-0.215
5677,0.510,-0.240
5678,0.465,-0.230
5679,0.475,-0.235
5680,0.495,-0.215
5681,0.505,-0.225
5682,0.510,-0.235
5683,0.490,-0.225
5684,0.490,-0.210
5685,0.500,-0.205
5686,0.515,-0.205
5687,0.510,-0.210
5688,0.495,-0.210
5689,0.490,-0.185
5690,0.510,-0.170
5691,0.500,-0.170
5692,0.490,-0.175
5693,0.475,-0.145
5694,0.460,-0.120
5695,0.480,-0.125
5696,0.485,-0.105
5697,0.460,-0.090
5698,0.460,-0.080
5699,0.365,-0.055
5700,0.370,-0.045
5701,0.380,-0.035
5702,0.350,-0.040
5703,0.340,-0.025
5704,0.360,0.010
5705,0.370,0.015
5706,0.380,0.010
5707,0.350,-0.005
5708,0.340,-0.005
5709,0.355,-0.010
5710,0.370,-0.035
5711,0.360,-0.080
5712,0.315,-0.090
5713,0.315,-0.100
5714,0.335,-0.100
5715,0.350,-0.130
5716,0.315,-0.160
5717,0.315,-0.135
5718,0.300,-0.095
5719,0.325,-0.095
5720,0.310,-0.095
5721,0.310,-0.115
5722,0.310,-0.110
5723,0.310,-0.085
5724,0.310,-0.090
5725,0.315,-0.095
5726,0.300,-0.095
5727,0.295,-0.105
5728,0.300,-0.095
5729,0.320,-0.085
5730,0.300,-0.100
5731,0.290,-0.115
5732,0.255,-0.110
5733,0.305,-0.095
5734,0.285,-0.115
5735,0.280,-0.120
5736,0.290,-0.130
5737,0.260,-0.130
5738,0.280,-0.125
5739,0.280,-0.125
5740,0.255,-0.145
5741,0.225,-0.160
5742,0.245,-0.135
5743,0.270,-0.145
5744,0.265,-0.145
5745,0.240,-0.150
5746,0.220,-0.135
5747,0.250,-0.135
5748,0.265,-0.120
5749,0.255,-0.140
5750,0.230,-0.150
5751,0.225,-0.140
5752,0.235,-0.140
5753,0.235,-0.135
5754,0.225,-0.150
5755,0.205,-0.155
5756,0.215,-0.140
5757,0.230,-0.140
5758,0.240,-0.140
5759,0.240,-0.150
5760,0.225,-0.160
5761,0.210,-0.145
5762,0.245,-0.125
5763,0.235,-0.145
5764,0.230,-0.155
5765,0.215,-0.145
5766,0.220,-0.130
5767,0.255,-0.120
5768,0.260,-0.105
5769,0.255,-0.095
5770,0.260,-0.080
5771,0.270,-0.050
5772,0.280,-0.010
5773,0.280,-0.005
5774,0.245,-0.005
5775,0.245,-0.025
5776,0.255,-0.030
5777,0.235,-0.070
5778,0.205,-0.150
5779,0.185,-0.190
5780,0.215,-0.200
5781,0.240,-0.210
5782,0.215,-0.215
5783,0.200,-0.210
5784,0.185,-0.215
5785,0.215,-0.195
5786,0.230,-0.200
5787,0.220,-0.195
5788,0.200,-0.200
5789,0.215,-0.220
5790,0.285,-0.145
5791,0.335,0.205
5792,0.375,0.760
5793,0.235,0.685
5794,0.080,0.095
5795,-0.025,-0.130
5796,0.045,-0.050
5797,0.130,-0.105
5798,0.180,-0.175
5799,0.215,-0.180
5800,0.225,-0.180
5801,0.220,-0.200
5802,0.185,-0.200
5803,0.190,-0.200
5804,0.205,-0.200
5805,0.220,-0.195
5806,0.235,-0.210
5807,0.205,-0.210
5808,0.210,-0.185
5809,0.230,-0.175
5810,0.240,-0.195
5811,0.235,-0.215
5812,0.195,-0.200
5813,0.210,-0.175
5814,0.250,-0.175
5815,0.255,-0.175
5816,0.225,-0.185
5817,0.220,-0.165
5818,0.230,-0.125
5819,0.280,-0.125
5820,0.240,-0.135
5821,0.245,-0.110
5822,0.225,-0.085
5823,0.250,-0.045
5824,0.255,-0.045
5825,0.255,-0.040
5826,0.245,-0.035
5827,0.240,-0.010
5828,0.260,0.005
5829,0.275,0.005
5830,0.255,0.015
5831,0.220,0.015
5832,0.240,0.015
5833,0.275,0.010
5834,0.285,-0.010
5835,0.240,-0.045
5836,0.225,-0.065
5837,0.240,-0.080
5838,0.265,-0.095
5839,0.265,-0.120
5840,0.230,-0.160
5841,0.225,-0.140
5842,0.220,-0.140
5843,0.250,-0.140
5844,0.235,-0.145
5845,0.220,-0.155
5846,0.225,-0.155
5847,0.260,-0.145
5848,0.245,-0.130
5849,0.250,-0.145
5850,0.235,-0.125
5851,0.225,-0.135
5852,0.195,-0.115
5853,0.185,-0.125
5854,0.165,-0.150
5855,0.155,-0.145
5856,0.165,-0.145
5857,0.195,-0.140
5858,0.180,-0.150
5859,0.165,-0.170
5860,0.130,-0.155
5861,0.130,-0.170
5862,0.165,-0.170
5863,0.155,-0.170
5864,0.120,-0.195
5865,0.130,-0.170
5866,0.155,-0.160
5867,0.160,-0.155
5868,0.165,-0.180
5869,0.125,-0.180
5870,0.155,-0.185
5871,0.140,-0.170
5872,0.155,-0.180
5873,0.130,-0.200
5874,0.130,-0.210
5875,0.120,-0.195
5876,0.130,-0.180
5877,0.135,-0.195
5878,0.130,-0.200
5879,0.100,-0.195
5880,0.120,-0.195
5881,0.115,-0.195
5882,0.115,-0.195
5883,0.120,-0.225
5884,0.100,-0.210
5885,0.095,-0.195
5886,0.135,-0.190
5887,0.135,-0.205
5888,0.135,-0.210
5889,0.090,-0.190
5890,0.110,-0.145
5891,0.150,-0.140
5892,0.160,-0.150
5893,0.120,-0.120
5894,0.110,-0.070
5895,0.135,0.000
5896,0.150,-0.005
5897,0.135,-0.030
5898,0.085,-0.080
5899,0.050,-0.075
5900,0.070,-0.095
5901,0.070,-0.180
5902,0.065,-0.230
5903,0.040,-0.260
5904,0.005,-0.245
5905,0.020,-0.235
5906,0.040,-0.240
5907,0.020,-0.255
5908,0.000,-0.240
5909,0.015,-0.225
5910,0.015,-0.235
5911,0.015,-0.230
5912,0.020,-0.265
5913,0.045,-0.265
5914,0.075,0.000
5915,0.160,0.530
5916,0.115,0.845
5917,-0.030,0.355
5918,-0.190,-0.155
5919,-0.230,-0.095
5920,-0.085,-0.090
5921,-0.020,-0.175
5922,-0.020,-0.235
5923,-0.015,-0.245
5924,0.010,-0.245
5925,0.025,-0.220
5926,-0.045,-0.255
5927,-0.100,-0.255
5928,-0.135,-0.255
5929,-0.125,-0.260
5930,-0.085,-0.250
5931,-0.110,-0.250
5932,-0.125,-0.240
5933,-0.155,-0.235
5934,-0.120,-0.230
5935,-0.125,-0.225
5936,-0.120,-0.245
5937,-0.175,-0.245
5938,-0.170,-0.255
5939,-0.155,-0.220
5940,-0.145,-0.205
5941,-0.170,-0.195
5942,-0.210,-0.200
5943,-0.285,-0.180
5944,-0.340,-0.145
5945,-0.315,-0.125
5946,-0.315,-0.115
5947,-0.370,-0.105
5948,-0.470,-0.100
5949,-0.520,-0.065
5950,-0.570,-0.060
5951,-0.585,-0.055
5952,-0.640,-0.060
5953,-0.690,-0.045
5954,-0.665,-0.020
5955,-0.685,-0.015
5956,-0.685,-0.015
5957,-0.710,-0.040
5958,-0.730,-0.050
5959,-0.735,-0.080
5960,-0.730,-0.135
5961,-0.710,-0.160
5962,-0.755,-0.175
5963,-0.750,-0.185
5964,-0.735,-0.200
5965,-0.715,-0.225
5966,-0.720,-0.235
5967,-0.745,-0.240
5968,-0.755,-0.220
5969,-0.735,-0.220
5970,-0.730,-0.220
5971,-0.725,-0.225
5972,-0.705,-0.230
5973,-0.755,-0.205
5974,-0.730,-0.205
5975,-0.700,-0.220
5976,-0.715,-0.230
5977,-0.725,-0.210
5978,-0.720,-0.205
5979,-0.710,-0.210
5980,-0.710,-0.205
5981,-0.695,-0.210
5982,-0.740,-0.225
5983,-0.725,-0.220
5984,-0.710,-0.210
5985,-0.700,-0.205
5986,-0.710,-0.215
5987,-0.735,-0.215
5988,-0.730,-0.220
5989,-0.700,-0.235
5990,-0.655,-0.215
5991,-0.670,-0.230
5992,-0.680,-0.255
5993,-0.690,-0.230
5994,-0.660,-0.220
5995,-0.665,-0.220
5996,-0.665,-0.240
5997,-0.665,-0.255
5998,-0.665,-0.255
5999,-0.640,-0.245
6000,-0.635,-0.225
6001,-0.645,-0.245
6002,-0.640,-0.255
6003,-0.640,-0.255
6004,-0.630,-0.230
6005,-0.615,-0.245
6006,-0.625,-0.245
6007,-0.630,-0.245
6008,-0.630,-0.240
6009,-0.590,-0.220
6010,-0.585,-0.210
6011,-0.565,-0.230
6012,-0.580,-0.245
6013,-0.580,-0.240
6014,-0.555,-0.210
6015,-0.525,-0.240
6016,-0.525,-0.240
6017,-0.510,-0.215
6018,-0.500,-0.180
6019,-0.460,-0.155
6020,-0.440,-0.155
6021,-0.450,-0.130
6022,-0.435,-0.080
6023,-0.440,-0.050
6024,-0.425,-0.040
6025,-0.415,-0.075
6026,-0.435,-0.125
6027,-0.470,-0.125
6028,-0.445,-0.205
6029,-0.435,-0.240
6030,-0.420,-0.265
6031,-0.420,-0.280
6032,-0.440,-0.285
6033,-0.420,-0.285
6034,-0.420,-0.270
6035,-0.395,-0.285
6036,-0.395,-0.285
6037,-0.430,-0.285
6038,-0.410,-0.265
6039,-0.360,-0.255
6040,-0.325,-0.275
6041,-0.285,-0.065
6042,-0.220,0.420
6043,-0.240,0.745
6044,-0.360,0.275
6045,-0.500,-0.255
6046,-0.545,-0.245
6047,-0.420,-0.175
6048,-0.355,-0.190
6049,-0.305,-0.240
6050,-0.285,-0.275
6051,-0.300,-0.280
6052,-0.295,-0.285
6053,-0.280,-0.265
6054,-0.295,-0.250
6055,-0.290,-0.275
6056,-0.270,-0.295
6057,-0.295,-0.290
6058,-0.255,-0.270
6059,-0.240,-0.260
6060,-0.265,-0.275
6061,-0.250,-0.265
6062,-0.255,-0.265
6063,-0.270,-0.260
6064,-0.260,-0.260
6065,-0.210,-0.250
6066,-0.225,-0.270
6067,-0.215,-0.255
6068,-0.225,-0.230
6069,-0.180,-0.195
6070,-0.180,-0.170
6071,-0.165,-0.190
6072,-0.170,-0.180
6073,-0.180,-0.150
6074,-0.145,-0.100
6075,-0.140,-0.105
6076,-0.145,-0.095
6077,-0.150,-0.095
6078,-0.150,-0.060
6079,-0.125,-0.030
6080,-0.115,-0.020
6081,-0.135,-0.010
6082,-0.140,0.000
6083,-0.140,0.005
6084,-0.110,0.000
6085,-0.120,0.000
6086,-0.105,-0.035
6087,-0.095,-0.040
6088,-0.090,-0.065
6089,-0.065,-0.060
6090,-0.055,-0.100
6091,-0.055,-0.130
6092,-0.055,-0.165
6093,-0.050,-0.165
6094,-0.025,-0.150
6095,-0.005,-0.155
6096,0.030,-0.185
6097,0.040,-0.190
6098,0.105,-0.160
6099,0.310,-0.155
6100,0.485,-0.155
6101,0.560,-0.180
6102,0.565,-0.160
6103,0.595,-0.155
6104,0.635,-0.155
6105,0.660,-0.125
6106,0.655,-0.160
6107,0.625,-0.150
6108,0.630,-0.155
6109,0.655,-0.155
6110,0.675,-0.160
6111,0.660,-0.160
6112,0.645,-0.180
6113,0.650,-0.170
6114,0.665,-0.165
6115,0.685,-0.155
6116,0.665,-0.165
6117,0.655,-0.185
6118,0.650,-0.160
6119,0.655,-0.165
6120,0.670,-0.170
6121,0.660,-0.175
6122,0.655,-0.185
6123,0.655,-0.190
6124,0.635,-0.150
6125,0.680,-0.165
6126,0.655,-0.185
6127,0.635,-0.180
6128,0.645,-0.170
6129,0.670,-0.175
6130,0.680,-0.170
6131,0.675,-0.190
6132,0.655,-0.190
6133,0.660,-0.185
6134,0.670,-0.175
6135,0.680,-0.180
6136,0.655,-0.180
6137,0.650,-0.180
6138,0.650,-0.170
6139,0.670,-0.155
6140,0.675,-0.185
6141,0.645,-0.175
6142,0.630,-0.185
6143,0.625,-0.165
6144,0.650,-0.140
6145,0.685,-0.125
6146,0.655,-0.115
6147,0.650,-0.110
6148,0.655,-0.045
6149,0.695,0.000
6150,0.690,0.005
6151,0.665,0.000
6152,0.620,-0.030
6153,0.630,-0.050
6154,0.650,-0.050
6155,0.655,-0.145
6156,0.620,-0.195
6157,0.610,-0.215
6158,0.615,-0.215
6159,0.630,-0.220
6160,0.630,-0.230
6161,0.620,-0.240
6162,0.595,-0.215
6163,0.620,-0.210
6164,0.630,-0.210
6165,0.605,-0.200
6166,0.590,-0.220
6167,0.655,-0.190
6168,0.695,0.080
6169,0.735,0.560
6170,0.680,0.825
6171,0.520,0.290
6172,0.400,-0.250
6173,0.385,-0.150
6174,0.510,-0.090
6175,0.570,-0.145
6176,0.565,-0.195
6177,0.580,-0.210
6178,0.605,-0.200
6179,0.595,-0.205
6180,0.575,-0.210
6181,0.560,-0.225
6182,0.545,-0.205
6183,0.565,-0.205
6184,0.570,-0.205
6185,0.550,-0.205
6186,0.530,-0.230
6187,0.535,-0.200
6188,0.560,-0.185
6189,0.550,-0.155
6190,0.545,-0.170
6191,0.505,-0.160
6192,0.515,-0.155
6193,0.550,-0.125
6194,0.535,-0.135
6195,0.525,-0.120
6196,0.515,-0.085
6197,0.545,-0.070
6198,0.530,-0.050
6199,0.530,-0.050
6200,0.520,-0.035
6201,0.520,-0.010
6202,0.525,0.015
6203,0.550,0.030
6204,0.530,0.015
6205,0.515,0.020
6206,0.500,0.050
6207,0.530,0.070
6208,0.520,0.095
6209,0.495,0.050
6210,0.480,0.065
6211,0.475,0.070
6212,0.510,0.050
6213,0.500,0.030
6214,0.495,0.000
6215,0.465,-0.025
6216,0.475,-0.045
6217,0.495,-0.060
6218,0.465,-0.080
6219,0.465,-0.095
6220,0.450,-0.095
6221,0.445,-0.095
6222,0.455,-0.085
6223,0.465,-0.095
6224,0.445,-0.085
6225,0.440,-0.100
6226,0.455,-0.060
6227,0.495,-0.065
6228,0.475,-0.080
6229,0.455,-0.085
6230,0.435,-0.085
6231,0.440,-0.065
6232,0.455,-0.070
6233,0.430,-0.080
6234,0.410,-0.090
6235,0.405,-0.100
6236,0.390,-0.080
6237,0.400,-0.085
6238,0.395,-0.095
6239,0.370,-0.105
6240,0.390,-0.095
6241,0.425,-0.100
6242,0.425,-0.100
6243,0.405,-0.120
6244,0.390,-0.125
6245,0.395,-0.110
6246,0.405,-0.115
6247,0.395,-0.105
6248,0.380,-0.150
6249,0.365,-0.145
6250,0.375,-0.110
6251,0.390,-0.135
6252,0.385,-0.140
6253,0.385,-0.135
6254,0.375,-0.135
6255,0.365,-0.115
6256,0.370,-0.125
6257,0.380,-0.160
6258,0.345,-0.155
6259,0.350,-0.155
6260,0.355,-0.120
6261,0.375,-0.135
6262,0.350,-0.155
6263,0.335,-0.155
6264,0.335,-0.145
6265,0.355,-0.135
6266,0.370,-0.135
6267,0.330,-0.150
6268,0.320,-0.155
6269,0.315,-0.160
6270,0.345,-0.105
6271,0.375,-0.100
6272,0.350,-0.095
6273,0.345,-0.090
6274,0.355,-0.030
6275,0.405,0.015
6276,0.405,0.015
6277,0.355,0.005
6278,0.355,-0.015
6279,0.340,-0.015
6280,0.365,-0.060
6281,0.350,-0.150
6282,0.315,-0.190
6283,0.320,-0.210
6284,0.335,-0.205
6285,0.350,-0.210
6286,0.345,-0.220
6287,0.325,-0.225
6288,0.325,-0.200
6289,0.360,-0.200
6290,0.345,-0.210
6291,0.320,-0.210
6292,0.345,-0.235
6293,0.385,-0.145
6294,0.465,0.300
6295,0.485,0.860
6296,0.335,0.640
6297,0.155,0.040
6298,0.025,-0.135
6299,0.160,-0.050
6300,0.255,-0.105
6301,0.290,-0.195
6302,0.305,-0.230
6303,0.295,-0.220
6304,0.150,-0.225
6305,-0.225,-0.240
6306,-0.325,-0.235
6307,-0.415,-0.220
6308,-0.540,-0.215
6309,-0.530,-0.235
6310,-0.540,-0.240
6311,-0.550,-0.250
6312,-0.555,-0.225
6313,-0.525,-0.235
6314,-0.525,-0.250
6315,-0.535,-0.240
6316,-0.545,-0.235
6317,-0.525,-0.220
6318,-0.495,-0.200
6319,-0.490,-0.195
6320,-0.510,-0.190
6321,-0.505,-0.175
6322,-0.480,-0.145
6323,-0.470,-0.120
6324,-0.465,-0.105
6325,-0.490,-0.105
6326,-0.500,-0.070
6327,-0.475,-0.055
6328,-0.470,-0.050
6329,-0.500,-0.045
6330,-0.485,-0.035
6331,-0.505,0.000
6332,-0.470,0.000
6333,-0.480,0.000
6334,-0.490,-0.010
6335,-0.490,0.000
6336,-0.455,-0.015
6337,-0.465,-0.015
6338,-0.495,-0.075
6339,-0.505,-0.095
6340,-0.495,-0.115
6341,-0.460,-0.130
6342,-0.480,-0.150
6343,-0.475,-0.165
6344,-0.485,-0.190
6345,-0.480,-0.180
6346,-0.455,-0.165
6347,-0.465,-0.170
6348,-0.465,-0.185
6349,-0.465,-0.165
6350,-0.455,-0.150
6351,-0.440,-0.150
6352,-0.435,-0.155
6353,-0.430,-0.160
6354,-0.440,-0.155
6355,-0.425,-0.145
6356,-0.390,-0.155
6357,-0.390,-0.170
6358,-0.405,-0.170
6359,-0.425,-0.170
6360,-0.390,-0.145
6361,-0.390,-0.165
6362,-0.395,-0.185
6363,-0.400,-0.170
6364,-0.370,-0.170
6365,-0.390,-0.175
6366,-0.365,-0.195
6367,-0.385,-0.200
6368,-0.415,-0.190
6369,-0.380,-0.180
6370,-0.370,-0.185
6371,-0.390,-0.190
6372,-0.395,-0.185
6373,-0.395,-0.185
6374,-0.395,-0.190
6375,-0.385,-0.190
6376,-0.375,-0.210
6377,-0.405,-0.200
6378,-0.380,-0.165
6379,-0.365,-0.190
6380,-0.360,-0.210
6381,-0.355,-0.205
6382,-0.370,-0.210
6383,-0.360,-0.205
6384,-0.330,-0.180
6385,-0.330,-0.215
6386,-0.345,-0.215
6387,-0.365,-0.210
6388,-0.350,-0.195
6389,-0.340,-0.210
6390,-0.330,-0.210
6391,-0.340,-0.225
6392,-0.350,-0.190
6393,-0.325,-0.155
6394,-0.310,-0.125
6395,-0.300,-0.135
6396,-0.320,-0.135
6397,-0.310,-0.050
6398,-0.295,-0.020
6399,-0.300,-0.040
6400,-0.305,-0.065
6401,-0.335,-0.080
6402,-0.325,-0.120
6403,-0.310,-0.175
6404,-0.300,-0.245
6405,-0.330,-0.270
6406,-0.325,-0.275
6407,-0.330,-0.260
6408,-0.310,-0.275
6409,-0.310,-0.275
6410,-0.325,-0.285
6411,-0.320,-0.290
6412,-0.325,-0.260
6413,-0.315,-0.250
6414,-0.325,-0.285
6415,-0.295,-0.290
6416,-0.265,0.010
6417,-0.200,0.550
6418,-0.240,0.815
6419,-0.410,0.275
6420,-0.585,-0.220
6421,-0.660,-0.130
6422,-0.460,-0.125
6423,-0.425,-0.215
6424,-0.405,-0.275
6425,-0.400,-0.300
6426,-0.395,-0.295
6427,-0.385,-0.295
6428,-0.360,-0.295
6429,-0.375,-0.295
6430,-0.380,-0.295
6431,-0.365,-0.305
6432,-0.370,-0.310
6433,-0.355,-0.310
6434,-0.365,-0.320
6435,-0.365,-0.335
6436,-0.340,-0.315
6437,-0.320,-0.320
6438,-0.335,-0.340
6439,-0.355,-0.340
6440,-0.345,-0.335
6441,-0.315,-0.310
6442,-0.300,-0.305
6443,-0.325,-0.295
6444,-0.320,-0.290
6445,-0.320,-0.265
6446,-0.305,-0.235
6447,-0.290,-0.215
6448,-0.305,-0.225
6449,-0.310,-0.215
6450,-0.295,-0.185
6451,-0.295,-0.160
6452,-0.280,-0.140
6453,-0.290,-0.160
6454,-0.300,-0.120
6455,-0.280,-0.100
6456,-0.270,-0.080
6457,-0.240,-0.075
6458,-0.255,-0.095
6459,-0.270,-0.110
6460,-0.245,-0.135
6461,-0.240,-0.130
6462,-0.235,-0.185
6463,-0.255,-0.220
6464,-0.290,-0.235
6465,-0.295,-0.235
6466,-0.255,-0.235
6467,-0.265,-0.250
6468,-0.285,-0.280
6469,-0.265,-0.255
6470,-0.260,-0.255
6471,-0.210,-0.275
6472,-0.220,-0.260
6473,-0.225,-0.275
6474,-0.215,-0.265
6475,-0.210,-0.255
6476,-0.190,-0.250
6477,-0.190,-0.255
6478,-0.205,-0.255
6479,-0.190,-0.250
6480,-0.180,-0.235
6481,-0.175,-0.220
6482,-0.165,-0.250
6483,-0.180,-0.255
6484,-0.180,-0.240
6485,-0.145,-0.250
6486,-0.140,-0.225
6487,-0.140,-0.255
6488,-0.170,-0.260
6489,-0.150,-0.245
6490,-0.135,-0.245
6491,-0.145,-0.235
6492,-0.115,-0.255
6493,-0.115,-0.265
6494,-0.130,-0.255
6495,-0.120,-0.240
6496,-0.120,-0.250
6497,-0.120,-0.260
6498,-0.090,-0.270
6499,-0.085,-0.265
6500,-0.075,-0.255
6501,-0.035,-0.260
6502,-0.020,-0.270
6503,-0.040,-0.280
6504,-0.060,-0.285
6505,-0.020,-0.255
6506,0.000,-0.240
6507,-0.015,-0.260
6508,-0.020,-0.265
6509,-0.020,-0.265
6510,-0.020,-0.265
6511,0.005,-0.260
6512,0.015,-0.275
6513,0.000,-0.275
6514,0.015,-0.265
6515,0.015,-0.255
6516,0.035,-0.250
6517,0.055,-0.250
6518,0.045,-0.215
6519,0.065,-0.185
6520,0.080,-0.180
6521,0.120,-0.175
6522,0.120,-0.145
6523,0.110,-0.100
6524,0.100,-0.085
6525,0.130,-0.110
6526,0.125,-0.130
6527,0.115,-0.155
6528,0.100,-0.240
6529,0.095,-0.275
6530,0.100,-0.310
6531,0.125,-0.310
6532,0.095,-0.285
6533,0.095,-0.315
6534,0.105,-0.295
6535,0.115,-0.295
6536,0.145,-0.285
6537,0.140,-0.295
6538,0.150,-0.270
6539,0.145,-0.280
6540,0.180,-0.290
6541,0.260,-0.155
6542,0.305,0.195
6543,0.320,0.670
6544,0.225,0.520
6545,0.085,-0.050
6546,0.000,-0.335
6547,0.030,-0.185
6548,0.125,-0.215
6549,0.180,-0.245
6550,0.230,-0.280
6551,0.245,-0.285
6552,0.235,-0.335
6553,0.215,-0.330
6554,0.235,-0.300
6555,0.255,-0.290
6556,0.265,-0.295
6557,0.240,-0.310
6558,0.235,-0.310
6559,0.250,-0.295
6560,0.250,-0.310
6561,0.270,-0.290
6562,0.275,-0.315
6563,0.250,-0.310
6564,0.230,-0.315
6565,0.260,-0.320
6566,0.290,-0.290
6567,0.275,-0.300
6568,0.265,-0.300
6569,0.270,-0.285
6570,0.310,-0.265
6571,0.305,-0.245
6572,0.300,-0.245
6573,0.300,-0.235
6574,0.290,-0.205
6575,0.320,-0.175
6576,0.320,-0.150
6577,0.345,-0.155
6578,0.350,-0.150
6579,0.330,-0.125
6580,0.355,-0.105
6581,0.385,-0.080
6582,0.395,-0.080
6583,0.395,-0.080
6584,0.385,-0.050
6585,0.405,-0.055
6586,0.435,-0.070
6587,0.470,-0.080
6588,0.470,-0.095
6589,0.540,-0.140
6590,0.670,-0.145
6591,0.845,-0.150
6592,0.995,-0.190
6593,0.990,-0.215
6594,0.995,-0.235
6595,0.990,-0.215
6596,0.995,-0.215
6597,1.010,-0.235
6598,1.005,-0.225
6599,0.980,-0.230
6600,1.005,-0.215
6601,1.040,-0.200
6602,1.035,-0.225
6603,1.015,-0.220
6604,0.990,-0.200
6605,1.025,-0.190
6606,1.040,-0.190
6607,1.030,-0.200
6608,1.005,-0.210
6609,1.010,-0.205
6610,1.025,-0.200
6611,1.035,-0.195
6612,1.020,-0.210
6613,1.005,-0.225
6614,1.000,-0.220
6615,1.010,-0.205
6616,1.045,-0.205
6617,1.005,-0.230
6618,1.005,-0.210
