'sample interval','ECG0','ECG1'
'0.0078125 sec','mV','mV'
0,-0.115,-0.380
1,-0.095,-0.370
2,-0.115,-0.380
3,-0.135,-0.375
4,-0.145,-0.385
5,-0.140,-0.350
6,-0.155,-0.350
7,-0.160,-0.380
8,-0.150,-0.365
9,-0.140,-0.370
10,-0.160,-0.340
11,-0.165,-0.310
12,-0.165,-0.250
13,-0.145,-0.210
14,-0.080,-0.170
15,-0.030,-0.160
16,-0.005,-0.145
17,-0.010,-0.220
18,-0.055,-0.225
19,-0.130,-0.285
20,-0.130,-0.310
21,-0.210,-0.345
22,-0.215,-0.385
23,-0.220,-0.400
24,-0.210,-0.430
25,-0.215,-0.420
26,-0.215,-0.420
27,-0.220,-0.420
28,-0.225,-0.415
29,-0.215,-0.385
30,-0.220,-0.430
31,-0.195,-0.420
32,-0.200,-0.395
33,-0.195,-0.390
34,-0.195,-0.300
35,-0.180,0.025
36,-0.095,0.690
37,-0.120,1.440
38,-0.865,1.980
39,-2.175,2.390
40,-2.980,2.305
41,-2.920,2.055
42,-2.550,1.740
43,-2.245,1.555
44,-1.965,1.835
45,-1.780,2.270
46,-1.550,1.730
47,-1.290,0.470
48,-1.025,-0.290
49,-0.725,-0.580
50,-0.365,-0.645
51,-0.045,-0.615
52,0.190,-0.640
53,0.335,-0.670
54,0.390,-0.640
55,0.405,-0.630
56,0.460,-0.600
57,0.475,-0.580
58,0.510,-0.585
59,0.540,-0.570
60,0.555,-0.520
61,0.600,-0.520
62,0.665,-0.510
63,0.715,-0.540
64,0.750,-0.555
65,0.800,-0.575
66,0.845,-0.620
67,0.865,-0.625
68,0.895,-0.640
69,0.940,-0.685
70,0.970,-0.675
71,0.965,-0.625
72,0.930,-0.560
73,0.880,-0.485
74,0.820,-0.405
75,0.740,-0.320
76,0.640,-0.275
77,0.535,-0.255
78,0.435,-0.235
79,0.345,-0.250
80,0.275,-0.265
81,0.200,-0.255
82,0.150,-0.285
83,0.100,-0.290
84,0.075,-0.320
85,0.030,-0.295
86,0.025,-0.310
87,0.040,-0.335
88,0.025,-0.340
89,0.040,-0.345
90,0.025,-0.350
91,0.040,-0.365
92,0.030,-0.370
93,0.030,-0.390
94,0.010,-0.390
95,0.020,-0.395
96,0.025,-0.405
97,0.015,-0.395
98,0.035,-0.385
99,0.020,-0.390
100,0.005,-0.420
101,0.010,-0.410
102,-0.005,-0.400
103,0.000,-0.400
104,-0.020,-0.395
105,-0.025,-0.375
106,-0.035,-0.390
107,-0.050,-0.395
108,-0.060,-0.380
109,-0.075,-0.380
110,-0.075,-0.365
111,-0.065,-0.365
112,-0.065,-0.385
113,-0.080,-0.380
114,-0.100,-0.390
115,-0.100,-0.380
116,-0.100,-0.385
117,-0.095,-0.380
118,-0.080,-0.330
119,-0.105,-0.255
120,-0.085,-0.220
121,-0.025,-0.175
122,0.015,-0.150
123,0.035,-0.165
124,0.065,-0.215
125,0.025,-0.240
126,-0.050,-0.255
127,-0.060,-0.300
128,-0.110,-0.355
129,-0.100,-0.390
130,-0.110,-0.410
131,-0.110,-0.415
132,-0.105,-0.410
133,-0.135,-0.415
134,-0.125,-0.415
135,-0.115,-0.400
136,-0.120,-0.400
137,-0.140,-0.410
138,-0.120,-0.375
139,-0.125,-0.360
140,-0.130,-0.385
141,-0.115,-0.330
142,-0.135,-0.120
143,-0.095,0.270
144,-0.005,0.840
145,-0.365,1.255
146,-1.440,1.680
147,-2.645,1.820
148,-3.055,1.690
149,-2.800,1.390
150,-2.485,1.075
151,-2.230,0.955
152,-1.965,1.350
153,-1.700,1.375
154,-1.455,0.330
155,-1.195,-0.465
156,-0.915,-0.605
157,-0.590,-0.620
158,-0.235,-0.585
159,0.070,-0.525
160,0.260,-0.520
161,0.340,-0.515
162,0.370,-0.495
163,0.430,-0.480
164,0.440,-0.475
165,0.445,-0.460
166,0.480,-0.420
167,0.510,-0.400
168,0.530,-0.450
169,0.555,-0.445
170,0.580,-0.430
171,0.635,-0.470
172,0.670,-0.475
173,0.710,-0.495
174,0.740,-0.520
175,0.815,-0.525
176,0.850,-0.540
177,0.880,-0.585
178,0.915,-0.565
179,0.895,-0.560
180,0.850,-0.515
181,0.810,-0.430
182,0.725,-0.370
183,0.640,-0.290
184,0.550,-0.255
185,0.435,-0.205
186,0.325,-0.215
187,0.230,-0.205
188,0.150,-0.200
189,0.085,-0.245
190,0.015,-0.270
191,0.000,-0.255
192,-0.055,-0.310
193,-0.050,-0.335
194,-0.070,-0.330
195,-0.050,-0.320
196,-0.075,-0.335
197,-0.085,-0.335
198,-0.080,-0.330
199,-0.080,-0.340
200,-0.115,-0.360
201,-0.110,-0.380
202,-0.110,-0.360
203,-0.125,-0.350
204,-0.090,-0.340
205,-0.100,-0.360
206,-0.105,-0.375
207,-0.125,-0.355
208,-0.130,-0.370
209,-0.140,-0.345
210,-0.125,-0.360
211,-0.150,-0.340
212,-0.140,-0.375
213,-0.180,-0.360
214,-0.160,-0.350
215,-0.230,-0.355
216,-0.200,-0.345
217,-0.185,-0.320
218,-0.175,-0.345
219,-0.220,-0.340
220,-0.230,-0.315
221,-0.235,-0.335
222,-0.245,-0.340
223,-0.210,-0.325
224,-0.250,-0.315
225,-0.255,-0.330
226,-0.265,-0.295
227,-0.285,-0.260
228,-0.315,-0.190
229,-0.280,-0.145
230,-0.200,-0.105
231,-0.165,-0.075
232,-0.215,-0.175
233,-0.240,-0.205
234,-0.395,-0.235
235,-0.510,-0.260
236,-0.570,-0.285
237,-0.630,-0.350
238,-0.665,-0.400
239,-0.690,-0.390
240,-0.715,-0.400
241,-0.760,-0.400
242,-0.765,-0.390
243,-0.795,-0.400
244,-0.820,-0.390
245,-0.870,-0.400
246,-0.935,-0.405
247,-0.990,-0.385
248,-1.025,-0.370
249,-1.020,-0.355
250,-1.050,-0.220
251,-1.045,0.110
252,-0.945,0.625
253,-1.065,0.980
254,-1.895,1.355
255,-3.130,1.570
256,-3.665,1.435
257,-3.585,1.155
258,-3.375,0.815
259,-3.190,0.600
260,-2.920,0.925
261,-2.685,1.095
262,-2.425,0.295
263,-2.145,-0.475
264,-1.855,-0.620
265,-1.550,-0.565
266,-1.215,-0.500
267,-0.880,-0.465
268,-0.665,-0.445
269,-0.570,-0.450
270,-0.495,-0.420
271,-0.440,-0.420
272,-0.415,-0.400
273,-0.370,-0.385
274,-0.365,-0.385
275,-0.310,-0.375
276,-0.200,-0.380
277,-0.160,-0.355
278,-0.100,-0.375
279,-0.050,-0.370
280,0.055,-0.410
281,0.100,-0.420
282,0.190,-0.440
283,0.235,-0.485
284,0.285,-0.505
285,0.340,-0.495
286,0.370,-0.485
287,0.380,-0.485
288,0.330,-0.425
289,0.270,-0.365
290,0.185,-0.310
291,0.105,-0.250
292,0.005,-0.205
293,-0.080,-0.185
294,-0.190,-0.200
295,-0.295,-0.205
296,-0.380,-0.230
297,-0.440,-0.235
298,-0.515,-0.250
299,-0.565,-0.260
300,-0.555,-0.285
301,-0.555,-0.310
302,-0.600,-0.320
303,-0.610,-0.295
304,-0.595,-0.305
305,-0.600,-0.350
306,-0.585,-0.335
307,-0.590,-0.340
308,-0.585,-0.330
309,-0.580,-0.345
310,-0.575,-0.350
311,-0.590,-0.340
312,-0.585,-0.355
313,-0.595,-0.345
314,-0.570,-0.345
315,-0.570,-0.345
316,-0.580,-0.330
317,-0.580,-0.355
318,-0.575,-0.360
319,-0.580,-0.355
320,-0.590,-0.370
321,-0.565,-0.335
322,-0.570,-0.330
323,-0.580,-0.320
324,-0.590,-0.325
325,-0.575,-0.315
326,-0.575,-0.315
327,-0.585,-0.305
328,-0.580,-0.305
329,-0.580,-0.300
330,-0.590,-0.310
331,-0.600,-0.305
332,-0.600,-0.315
333,-0.605,-0.300
334,-0.585,-0.290
335,-0.580,-0.240
336,-0.580,-0.175
337,-0.555,-0.170
338,-0.505,-0.130
339,-0.475,-0.110
340,-0.435,-0.140
341,-0.440,-0.195
342,-0.535,-0.210
343,-0.590,-0.240
344,-0.655,-0.265
345,-0.700,-0.330
346,-0.700,-0.365
347,-0.685,-0.365
348,-0.695,-0.345
349,-0.705,-0.370
350,-0.705,-0.360
351,-0.705,-0.365
352,-0.700,-0.345
353,-0.705,-0.355
354,-0.685,-0.365
355,-0.680,-0.360
356,-0.680,-0.320
357,-0.705,-0.295
358,-0.695,-0.105
359,-0.655,0.340
360,-0.520,0.965
361,-0.970,1.400
362,-2.140,1.895
363,-3.235,1.930
364,-3.410,1.675
365,-3.150,1.295
366,-2.945,1.005
367,-2.690,1.055
368,-2.475,1.525
369,-2.230,1.310
370,-1.955,0.255
371,-1.665,-0.365
372,-1.335,-0.540
373,-0.995,-0.545
374,-0.635,-0.530
375,-0.380,-0.535
376,-0.260,-0.510
377,-0.190,-0.460
378,-0.150,-0.460
379,-0.110,-0.440
380,-0.090,-0.435
381,-0.065,-0.410
382,-0.060,-0.390
383,-0.040,-0.375
384,-0.045,-0.365
385,0.035,-0.375
386,0.045,-0.395
387,0.115,-0.395
388,0.150,-0.435
389,0.210,-0.465
390,0.230,-0.495
391,0.290,-0.510
392,0.325,-0.540
393,0.355,-0.535
394,0.350,-0.480
395,0.305,-0.420
396,0.230,-0.365
397,0.195,-0.320
398,0.075,-0.245
399,-0.015,-0.205
400,-0.110,-0.215
401,-0.230,-0.230
402,-0.300,-0.260
403,-0.410,-0.275
404,-0.450,-0.260
405,-0.485,-0.295
406,-0.525,-0.315
407,-0.545,-0.300
408,-0.550,-0.315
409,-0.525,-0.330
410,-0.495,-0.325
411,-0.500,-0.345
412,-0.525,-0.355
413,-0.500,-0.370
414,-0.485,-0.380
415,-0.475,-0.385
416,-0.485,-0.375
417,-0.480,-0.370
418,-0.475,-0.395
419,-0.460,-0.380
420,-0.455,-0.410
421,-0.435,-0.395
422,-0.430,-0.405
423,-0.420,-0.400
424,-0.415,-0.395
425,-0.400,-0.405
426,-0.395,-0.400
427,-0.395,-0.365
428,-0.395,-0.390
429,-0.395,-0.365
430,-0.390,-0.365
431,-0.385,-0.345
432,-0.380,-0.350
433,-0.395,-0.355
434,-0.360,-0.340
435,-0.340,-0.325
436,-0.295,-0.320
437,-0.270,-0.340
438,-0.250,-0.320
439,-0.235,-0.310
440,-0.210,-0.300
441,-0.190,-0.220
442,-0.155,-0.185
443,-0.095,-0.145
444,0.000,-0.095
445,0.035,-0.105
446,0.050,-0.170
447,0.005,-0.160
448,-0.040,-0.245
449,-0.060,-0.260
450,-0.125,-0.310
451,-0.125,-0.345
452,-0.105,-0.360
453,-0.080,-0.360
454,-0.085,-0.350
455,-0.070,-0.350
456,-0.065,-0.360
457,-0.050,-0.355
458,-0.025,-0.370
459,-0.020,-0.365
460,-0.025,-0.340
461,-0.025,-0.340
462,-0.040,-0.295
463,-0.040,-0.090
464,0.015,0.420
465,0.115,1.170
466,-0.340,1.790
467,-1.555,2.295
468,-2.695,2.235
469,-2.755,1.995
470,-2.335,1.625
471,-2.070,1.390
472,-1.755,1.680
473,-1.585,2.160
474,-1.340,1.455
475,-1.065,0.245
476,-0.775,-0.375
477,-0.465,-0.580
478,-0.100,-0.600
479,0.180,-0.590
480,0.390,-0.585
481,0.470,-0.605
482,0.525,-0.565
483,0.555,-0.565
484,0.595,-0.545
485,0.610,-0.545
486,0.625,-0.525
487,0.640,-0.525
488,0.685,-0.500
489,0.700,-0.505
490,0.720,-0.475
491,0.740,-0.495
492,0.815,-0.525
493,0.850,-0.550
494,0.905,-0.570
495,0.975,-0.610
496,1.010,-0.620
497,1.060,-0.635
498,1.050,-0.585
499,1.035,-0.540
500,0.975,-0.470
501,0.915,-0.390
502,0.840,-0.310
503,0.740,-0.270
504,0.670,-0.235
505,0.580,-0.235
506,0.460,-0.235
507,0.380,-0.280
508,0.340,-0.260
509,0.275,-0.285
510,0.255,-0.295
511,0.240,-0.320
512,0.240,-0.330
513,0.210,-0.310
514,0.220,-0.310
515,0.205,-0.350
516,0.220,-0.345
517,0.215,-0.350
518,0.225,-0.345
519,0.235,-0.375
520,0.230,-0.375
521,0.255,-0.390
522,0.265,-0.390
523,0.255,-0.385
524,0.275,-0.380
525,0.275,-0.395
526,0.275,-0.400
527,0.265,-0.405
528,0.280,-0.395
529,0.295,-0.395
530,0.315,-0.385
531,0.295,-0.385
532,0.285,-0.390
533,0.270,-0.370
534,0.280,-0.385
535,0.305,-0.360
536,0.305,-0.370
537,0.300,-0.365
538,0.300,-0.365
539,0.295,-0.355
540,0.310,-0.350
541,0.285,-0.350
542,0.295,-0.345
543,0.290,-0.270
544,0.310,-0.235
545,0.340,-0.165
546,0.415,-0.130
547,0.460,-0.135
548,0.475,-0.175
549,0.475,-0.200
550,0.415,-0.220
551,0.370,-0.240
552,0.345,-0.285
553,0.310,-0.375
554,0.285,-0.365
555,0.285,-0.365
556,0.270,-0.370
557,0.295,-0.395
558,0.290,-0.390
559,0.275,-0.345
560,0.280,-0.395
561,0.290,-0.385
562,0.280,-0.365
563,0.310,-0.370
564,0.280,-0.330
565,0.300,-0.280
566,0.300,-0.060
567,0.330,0.375
568,0.440,0.895
569,-0.025,1.335
570,-1.270,1.730
571,-2.410,1.730
572,-2.640,1.505
573,-2.380,1.175
574,-2.125,0.905
575,-1.820,1.050
576,-1.595,1.495
577,-1.310,0.955
578,-1.030,-0.160
579,-0.735,-0.535
580,-0.430,-0.565
581,-0.040,-0.560
582,0.330,-0.500
583,0.585,-0.485
584,0.725,-0.480
585,0.810,-0.455
586,0.850,-0.425
587,0.870,-0.445
588,0.900,-0.415
589,0.920,-0.395
590,0.970,-0.395
591,0.975,-0.410
592,1.005,-0.400
593,1.040,-0.390
594,1.065,-0.395
595,1.125,-0.415
596,1.150,-0.445
597,1.215,-0.485
598,1.245,-0.505
599,1.295,-0.520
600,1.340,-0.530
601,1.345,-0.525
602,1.350,-0.505
603,1.340,-0.485
604,1.305,-0.405
605,1.240,-0.340
606,1.165,-0.295
607,1.055,-0.240
608,0.955,-0.215
609,0.870,-0.205
610,0.770,-0.210
611,0.680,-0.230
612,0.595,-0.260
613,0.520,-0.255
614,0.490,-0.290
615,0.455,-0.290
616,0.425,-0.310
617,0.400,-0.320
618,0.400,-0.310
619,0.390,-0.335
620,0.385,-0.330
621,0.380,-0.345
622,0.360,-0.350
623,0.380,-0.375
624,0.370,-0.370
625,0.395,-0.385
626,0.370,-0.380
627,0.365,-0.385
628,0.355,-0.375
629,0.350,-0.380
630,0.355,-0.385
631,0.340,-0.400
632,0.350,-0.390
633,0.340,-0.375
634,0.325,-0.370
635,0.325,-0.350
636,0.315,-0.380
637,0.315,-0.365
638,0.290,-0.370
639,0.300,-0.360
640,0.300,-0.365
641,0.290,-0.330
642,0.295,-0.380
643,0.295,-0.365
644,0.290,-0.370
645,0.270,-0.340
646,0.255,-0.345
647,0.250,-0.330
648,0.245,-0.335
649,0.235,-0.320
650,0.255,-0.280
651,0.265,-0.225
652,0.310,-0.185
653,0.365,-0.140
654,0.385,-0.140
655,0.435,-0.170
656,0.435,-0.200
657,0.380,-0.245
658,0.375,-0.285
659,0.340,-0.295
660,0.350,-0.350
661,0.470,-0.395
662,0.645,-0.400
663,0.700,-0.410
664,0.735,-0.390
665,0.755,-0.395
666,0.750,-0.385
667,0.765,-0.405
668,0.755,-0.380
669,0.755,-0.390
670,0.760,-0.380
671,0.750,-0.365
672,0.745,-0.340
673,0.730,-0.195
674,0.745,0.145
675,0.845,0.645
676,0.690,0.995
677,-0.155,1.410
678,-1.485,1.620
679,-2.225,1.475
680,-2.150,1.175
681,-1.845,0.845
682,-1.655,0.670
683,-1.375,0.935
684,-1.120,1.100
685,-0.835,0.255
686,-0.555,-0.525
687,-0.250,-0.615
688,0.095,-0.560
689,0.465,-0.515
690,0.795,-0.475
691,0.995,-0.455
692,1.100,-0.420
693,1.160,-0.415
694,1.175,-0.380
695,1.180,-0.370
696,1.195,-0.375
697,1.205,-0.365
698,1.240,-0.335
699,1.255,-0.345
700,1.275,-0.330
701,1.295,-0.355
702,1.360,-0.340
703,1.390,-0.390
704,1.445,-0.390
705,1.455,-0.410
706,1.500,-0.455
707,1.545,-0.470
708,1.575,-0.475
709,1.605,-0.470
710,1.570,-0.440
711,1.530,-0.410
712,1.470,-0.345
713,1.380,-0.275
714,1.285,-0.235
715,1.190,-0.220
716,1.100,-0.185
717,1.005,-0.195
718,0.895,-0.230
719,0.830,-0.265
720,0.760,-0.275
721,0.705,-0.300
722,0.640,-0.305
723,0.610,-0.290
724,0.600,-0.300
725,0.580,-0.320
726,0.580,-0.335
727,0.545,-0.340
728,0.530,-0.365
729,0.535,-0.375
730,0.520,-0.385
731,0.505,-0.370
732,0.515,-0.385
733,0.495,-0.385
734,0.505,-0.380
735,0.485,-0.400
736,0.475,-0.420
737,0.470,-0.385
738,0.460,-0.365
739,0.435,-0.380
740,0.385,-0.385
741,0.400,-0.390
742,0.400,-0.400
743,0.370,-0.380
744,0.320,-0.385
745,0.325,-0.390
746,0.310,-0.375
747,0.275,-0.385
748,0.245,-0.385
749,0.225,-0.400
750,0.215,-0.385
751,0.175,-0.370
752,0.140,-0.385
753,0.140,-0.390
754,0.120,-0.370
755,0.100,-0.370
756,0.085,-0.380
757,0.080,-0.365
758,0.070,-0.345
759,0.075,-0.290
760,0.075,-0.255
761,0.115,-0.195
762,0.155,-0.160
763,0.195,-0.150
764,0.190,-0.205
765,0.145,-0.245
766,0.070,-0.300
767,0.040,-0.300
768,-0.035,-0.335
769,-0.065,-0.400
770,-0.040,-0.415
771,-0.045,-0.420
772,-0.060,-0.400
773,-0.060,-0.410
774,-0.085,-0.410
775,-0.080,-0.405
776,-0.085,-0.385
777,-0.080,-0.400
778,-0.095,-0.395
779,-0.075,-0.395
780,-0.120,-0.390
781,-0.090,-0.305
782,-0.095,-0.015
783,-0.055,0.535
784,-0.020,1.100
785,-0.605,1.570
786,-1.885,1.920
787,-2.885,1.840
788,-2.925,1.485
789,-2.585,1.120
790,-2.350,0.890
791,-2.080,1.110
792,-1.900,1.540
793,-1.635,1.120
794,-1.390,0.070
795,-1.125,-0.460
796,-0.835,-0.585
797,-0.515,-0.605
798,-0.210,-0.560
799,0.015,-0.530
800,0.125,-0.525
801,0.195,-0.520
802,0.235,-0.485
803,0.280,-0.460
804,0.280,-0.435
805,0.305,-0.410
806,0.310,-0.395
807,0.345,-0.385
808,0.355,-0.375
809,0.380,-0.365
810,0.395,-0.380
811,0.475,-0.385
812,0.500,-0.415
813,0.560,-0.440
814,0.610,-0.455
815,0.650,-0.485
816,0.675,-0.485
817,0.705,-0.500
818,0.725,-0.505
819,0.715,-0.450
820,0.660,-0.385
821,0.610,-0.310
822,0.525,-0.265
823,0.445,-0.195
824,0.335,-0.195
825,0.235,-0.195
826,0.140,-0.200
827,0.030,-0.235
828,-0.030,-0.265
829,-0.110,-0.260
830,-0.140,-0.280
831,-0.175,-0.270
832,-0.190,-0.270
833,-0.205,-0.310
834,-0.220,-0.310
835,-0.230,-0.315
836,-0.230,-0.335
837,-0.240,-0.325
838,-0.250,-0.340
839,-0.240,-0.330
840,-0.240,-0.350
841,-0.245,-0.350
842,-0.245,-0.350
843,-0.250,-0.355
844,-0.260,-0.345
845,-0.270,-0.360
846,-0.265,-0.340
847,-0.270,-0.360
848,-0.290,-0.345
849,-0.295,-0.375
850,-0.290,-0.350
851,-0.310,-0.350
852,-0.320,-0.345
853,-0.335,-0.335
854,-0.330,-0.335
855,-0.370,-0.320
856,-0.370,-0.315
857,-0.400,-0.300
858,-0.405,-0.310
859,-0.420,-0.320
860,-0.415,-0.315
861,-0.430,-0.315
862,-0.450,-0.320
863,-0.485,-0.290
864,-0.510,-0.305
865,-0.530,-0.305
866,-0.590,-0.305
867,-0.690,-0.235
868,-0.880,-0.200
869,-0.905,-0.150
870,-0.855,-0.080
871,-0.820,-0.105
872,-0.810,-0.160
873,-0.830,-0.155
874,-0.890,-0.225
875,-0.930,-0.255
876,-0.965,-0.285
877,-1.005,-0.340
878,-1.020,-0.380
879,-1.010,-0.355
880,-1.045,-0.375
881,-1.030,-0.345
882,-1.035,-0.370
883,-1.050,-0.355
884,-1.020,-0.375
885,-1.030,-0.350
886,-1.015,-0.340
887,-1.020,-0.355
888,-1.010,-0.325
889,-1.000,-0.260
890,-1.010,0.020
891,-0.940,0.645
892,-0.895,1.310
893,-1.500,1.840
894,-2.760,2.235
895,-3.465,2.115
896,-3.470,1.810
897,-3.170,1.445
898,-2.955,1.265
899,-2.700,1.615
900,-2.515,2.030
901,-2.270,1.220
902,-2.055,0.105
903,-1.755,-0.445
904,-1.460,-0.585
905,-1.120,-0.570
906,-0.860,-0.565
907,-0.675,-0.585
908,-0.600,-0.555
909,-0.535,-0.545
910,-0.510,-0.530
911,-0.475,-0.530
912,-0.450,-0.505
913,-0.465,-0.470
914,-0.450,-0.460
915,-0.405,-0.445
916,-0.360,-0.460
917,-0.320,-0.465
918,-0.275,-0.470
919,-0.225,-0.505
920,-0.170,-0.525
921,-0.120,-0.540
922,-0.060,-0.580
923,-0.010,-0.605
924,0.015,-0.615
925,0.020,-0.580
926,0.030,-0.545
927,-0.015,-0.470
928,-0.065,-0.410
929,-0.120,-0.330
930,-0.205,-0.255
931,-0.320,-0.205
932,-0.420,-0.220
933,-0.510,-0.215
934,-0.610,-0.210
935,-0.710,-0.240
936,-0.755,-0.250
937,-0.810,-0.280
938,-0.830,-0.290
939,-0.835,-0.295
940,-0.850,-0.295
941,-0.805,-0.295
942,-0.850,-0.315
943,-0.840,-0.325
944,-0.815,-0.335
945,-0.825,-0.330
946,-0.830,-0.340
947,-0.805,-0.350
948,-0.815,-0.340
949,-0.785,-0.340
950,-0.790,-0.350
951,-0.780,-0.360
952,-0.760,-0.365
953,-0.770,-0.385
954,-0.780,-0.355
955,-0.770,-0.370
956,-0.770,-0.360
957,-0.795,-0.360
958,-0.800,-0.335
959,-0.795,-0.355
960,-0.790,-0.320
961,-0.800,-0.330
962,-0.815,-0.320
963,-0.800,-0.320
964,-0.800,-0.310
965,-0.810,-0.325
966,-0.790,-0.310
967,-0.805,-0.310
968,-0.805,-0.305
969,-0.815,-0.325
970,-0.820,-0.305
971,-0.800,-0.280
972,-0.790,-0.215
973,-0.775,-0.155
974,-0.705,-0.110
975,-0.670,-0.075
976,-0.625,-0.055
977,-0.615,-0.140
978,-0.660,-0.145
979,-0.715,-0.190
980,-0.760,-0.205
981,-0.795,-0.280
982,-0.805,-0.325
983,-0.790,-0.325
984,-0.820,-0.330
985,-0.805,-0.315
986,-0.800,-0.310
987,-0.810,-0.325
988,-0.790,-0.300
989,-0.810,-0.315
990,-0.785,-0.300
991,-0.775,-0.305
992,-0.780,-0.310
993,-0.790,-0.275
994,-0.775,-0.170
995,-0.760,0.110
996,-0.675,0.705
997,-0.685,1.260
998,-1.355,1.725
999,-2.560,2.050
1000,-3.240,1.940
1001,-3.170,1.695
1002,-2.880,1.405
1003,-2.690,1.285
1004,-2.405,1.715
1005,-2.230,1.750
1006,-1.945,0.565
1007,-1.710,-0.255
1008,-1.420,-0.455
1009,-1.090,-0.535
1010,-0.770,-0.515
1011,-0.460,-0.490
1012,-0.295,-0.495
1013,-0.195,-0.460
1014,-0.175,-0.445
1015,-0.115,-0.445
1016,-0.060,-0.425
1017,0.140,-0.400
1018,0.370,-0.420
1019,0.470,-0.415
1020,0.525,-0.405
1021,0.560,-0.410
1022,0.605,-0.410
1023,0.635,-0.440
1024,0.690,-0.470
1025,0.735,-0.490
1026,0.770,-0.510
1027,0.820,-0.540
1028,0.850,-0.555
1029,0.895,-0.580
1030,0.895,-0.520
1031,0.870,-0.455
1032,0.815,-0.395
1033,0.750,-0.325
1034,0.665,-0.250
1035,0.555,-0.200
1036,0.455,-0.190
1037,0.360,-0.175
1038,0.275,-0.180
1039,0.180,-0.210
1040,0.120,-0.220
1041,0.060,-0.225
1042,0.030,-0.215
1043,0.000,-0.245
1044,-0.010,-0.255
1045,-0.020,-0.280
1046,-0.025,-0.255
1047,-0.050,-0.305
1048,-0.055,-0.275
1049,-0.040,-0.285
1050,-0.025,-0.305
1051,-0.025,-0.305
1052,-0.045,-0.305
1053,-0.045,-0.315
1054,-0.005,-0.305
1055,-0.010,-0.315
1056,-0.025,-0.315
1057,-0.020,-0.310
1058,-0.035,-0.310
1059,-0.030,-0.315
1060,-0.025,-0.315
1061,-0.040,-0.310
1062,-0.055,-0.290
1063,-0.040,-0.315
1064,-0.070,-0.300
1065,-0.050,-0.290
1066,-0.065,-0.280
1067,-0.065,-0.270
1068,-0.065,-0.280
1069,-0.060,-0.250
1070,-0.075,-0.265
1071,-0.090,-0.250
1072,-0.090,-0.260
1073,-0.090,-0.250
1074,-0.075,-0.265
1075,-0.085,-0.205
1076,-0.065,-0.140
1077,-0.045,-0.100
1078,0.005,-0.070
1079,0.065,-0.030
1080,0.095,-0.055
1081,0.110,-0.100
1082,0.040,-0.110
1083,-0.025,-0.150
1084,-0.040,-0.190
1085,-0.115,-0.255
1086,-0.085,-0.300
1087,-0.090,-0.285
1088,-0.095,-0.305
1089,-0.105,-0.290
1090,-0.100,-0.290
1091,-0.095,-0.290
1092,-0.080,-0.280
1093,-0.085,-0.290
1094,-0.100,-0.295
1095,-0.100,-0.290
1096,-0.095,-0.275
1097,-0.105,-0.235
1098,-0.090,-0.115
1099,-0.085,0.215
1100,0.005,0.750
1101,-0.055,1.125
1102,-0.840,1.550
1103,-2.115,1.755
1104,-2.830,1.640
1105,-2.705,1.345
1106,-2.415,1.065
1107,-2.170,0.875
1108,-1.895,1.165
1109,-1.670,1.380
1110,-1.385,0.545
1111,-1.155,-0.335
1112,-0.890,-0.505
1113,-0.585,-0.485
1114,-0.240,-0.425
1115,0.110,-0.395
1116,0.325,-0.390
1117,0.410,-0.365
1118,0.445,-0.355
1119,0.480,-0.335
1120,0.510,-0.325
1121,0.525,-0.300
1122,0.565,-0.300
1123,0.555,-0.285
1124,0.605,-0.290
1125,0.630,-0.280
1126,0.680,-0.300
1127,0.720,-0.295
1128,0.750,-0.360
1129,0.790,-0.355
1130,0.845,-0.370
1131,0.905,-0.380
1132,0.940,-0.425
1133,0.975,-0.455
1134,1.010,-0.445
1135,1.005,-0.420
1136,0.965,-0.365
1137,0.920,-0.305
1138,0.855,-0.240
1139,0.755,-0.195
1140,0.680,-0.170
1141,0.575,-0.125
1142,0.455,-0.140
1143,0.360,-0.170
1144,0.270,-0.170
1145,0.220,-0.200
1146,0.170,-0.200
1147,0.140,-0.225
1148,0.095,-0.240
1149,0.090,-0.250
1150,0.080,-0.250
1151,0.070,-0.260
1152,0.075,-0.265
1153,0.055,-0.280
1154,0.065,-0.280
1155,0.080,-0.295
1156,0.080,-0.295
1157,0.075,-0.295
1158,0.085,-0.295
1159,0.075,-0.290
1160,0.085,-0.325
1161,0.080,-0.300
1162,0.085,-0.315
1163,0.075,-0.310
1164,0.085,-0.335
1165,0.090,-0.310
1166,0.095,-0.315
1167,0.085,-0.300
1168,0.075,-0.320
1169,0.070,-0.310
1170,0.075,-0.300
1171,0.055,-0.290
1172,0.075,-0.295
1173,0.070,-0.275
1174,0.045,-0.295
1175,0.065,-0.285
1176,0.060,-0.280
1177,0.055,-0.270
1178,0.050,-0.270
1179,0.060,-0.265
1180,0.060,-0.250
1181,0.055,-0.265
1182,0.035,-0.250
1183,0.040,-0.180
1184,0.045,-0.135
1185,0.105,-0.090
1186,0.150,-0.060
1187,0.195,-0.060
1188,0.255,-0.090
1189,0.215,-0.150
1190,0.135,-0.170
1191,0.115,-0.205
1192,0.075,-0.230
1193,0.195,-0.295
1194,0.360,-0.310
1195,0.365,-0.325
1196,0.360,-0.315
1197,0.360,-0.315
1198,0.370,-0.300
1199,0.370,-0.305
1200,0.370,-0.305
1201,0.365,-0.300
1202,0.365,-0.310
1203,0.365,-0.280
1204,0.355,-0.285
1205,0.340,-0.215
1206,0.350,-0.010
1207,0.380,0.370
1208,0.470,0.885
1209,0.185,1.240
1210,-0.795,1.625
1211,-2.005,1.715
1212,-2.500,1.485
1213,-2.250,1.165
1214,-1.970,0.850
1215,-1.685,0.785
1216,-1.455,1.170
1217,-1.195,1.040
1218,-0.945,0.000
1219,-0.660,-0.515
1220,-0.390,-0.515
1221,-0.030,-0.475
1222,0.295,-0.405
1223,0.605,-0.375
1224,0.785,-0.365
1225,0.855,-0.375
1226,0.890,-0.335
1227,0.930,-0.325
1228,0.940,-0.300
1229,0.965,-0.305
1230,0.985,-0.285
1231,0.980,-0.285
1232,1.020,-0.280
1233,1.040,-0.290
1234,1.070,-0.300
1235,1.115,-0.310
1236,1.160,-0.330
1237,1.200,-0.360
1238,1.235,-0.375
1239,1.290,-0.385
1240,1.335,-0.425
1241,1.360,-0.445
1242,1.375,-0.415
1243,1.375,-0.385
1244,1.340,-0.350
1245,1.280,-0.275
1246,1.210,-0.215
1247,1.150,-0.175
1248,1.055,-0.140
1249,0.945,-0.120
1250,0.845,-0.140
1251,0.790,-0.150
1252,0.670,-0.170
1253,0.610,-0.180
1254,0.555,-0.215
1255,0.520,-0.215
1256,0.505,-0.215
1257,0.485,-0.250
1258,0.480,-0.240
1259,0.450,-0.255
1260,0.465,-0.270
1261,0.455,-0.280
1262,0.435,-0.290
1263,0.440,-0.280
1264,0.445,-0.295
1265,0.460,-0.305
1266,0.465,-0.310
1267,0.465,-0.310
1268,0.445,-0.325
1269,0.465,-0.330
1270,0.440,-0.315
1271,0.440,-0.330
1272,0.455,-0.325
1273,0.425,-0.340
1274,0.435,-0.320
1275,0.440,-0.305
1276,0.425,-0.315
1277,0.415,-0.315
1278,0.415,-0.310
1279,0.405,-0.315
1280,0.410,-0.300
1281,0.405,-0.310
1282,0.385,-0.280
1283,0.370,-0.305
1284,0.375,-0.285
1285,0.360,-0.285
1286,0.360,-0.295
1287,0.345,-0.280
1288,0.370,-0.270
1289,0.365,-0.275
1290,0.375,-0.280
1291,0.355,-0.265
1292,0.335,-0.210
1293,0.360,-0.155
1294,0.395,-0.115
1295,0.430,-0.085
1296,0.485,-0.080
1297,0.510,-0.145
1298,0.490,-0.160
1299,0.420,-0.180
1300,0.385,-0.235
1301,0.320,-0.265
1302,0.270,-0.300
1303,0.280,-0.335
1304,0.285,-0.355
1305,0.280,-0.335
1306,0.270,-0.340
1307,0.275,-0.335
1308,0.280,-0.345
1309,0.265,-0.335
1310,0.265,-0.320
1311,0.255,-0.325
1312,0.265,-0.350
1313,0.270,-0.310
1314,0.270,-0.270
1315,0.255,-0.030
1316,0.315,0.450
1317,0.405,1.085
1318,0.045,1.505
1319,-1.055,1.910
1320,-2.250,1.915
1321,-2.530,1.625
1322,-2.185,1.250
1323,-1.950,1.005
1324,-1.655,1.215
1325,-1.460,1.675
1326,-1.215,1.200
1327,-0.925,0.125
1328,-0.645,-0.390
1329,-0.340,-0.530
1330,0.005,-0.495
1331,0.335,-0.490
1332,0.570,-0.475
1333,0.695,-0.475
1334,0.750,-0.420
1335,0.785,-0.430
1336,0.835,-0.405
1337,0.855,-0.385
1338,0.860,-0.350
1339,0.870,-0.330
1340,0.880,-0.335
1341,0.900,-0.325
1342,0.930,-0.305
1343,0.980,-0.335
1344,1.030,-0.350
1345,1.065,-0.375
1346,1.105,-0.405
1347,1.150,-0.450
1348,1.195,-0.475
1349,1.230,-0.490
1350,1.240,-0.470
1351,1.200,-0.420
1352,1.165,-0.350
1353,1.080,-0.280
1354,1.020,-0.195
1355,0.935,-0.165
1356,0.830,-0.130
1357,0.730,-0.160
1358,0.645,-0.175
1359,0.580,-0.175
1360,0.485,-0.190
1361,0.395,-0.205
1362,0.370,-0.220
1363,0.350,-0.240
1364,0.295,-0.240
1365,0.285,-0.235
1366,0.285,-0.240
1367,0.295,-0.255
1368,0.270,-0.265
1369,0.265,-0.265
1370,0.290,-0.280
1371,0.290,-0.295
1372,0.285,-0.305
1373,0.285,-0.300
1374,0.270,-0.310
1375,0.285,-0.335
1376,0.275,-0.350
1377,0.265,-0.310
1378,0.245,-0.335
1379,0.245,-0.320
1380,0.245,-0.320
1381,0.230,-0.330
1382,0.250,-0.320
1383,0.225,-0.320
1384,0.240,-0.305
1385,0.235,-0.310
1386,0.230,-0.330
1387,0.205,-0.310
1388,0.190,-0.305
1389,0.185,-0.280
1390,0.185,-0.290
1391,0.180,-0.295
1392,0.170,-0.265
1393,0.165,-0.285
1394,0.165,-0.290
1395,0.155,-0.270
1396,0.135,-0.290
1397,0.155,-0.285
1398,0.125,-0.250
1399,0.125,-0.205
1400,0.145,-0.155
1401,0.190,-0.095
1402,0.230,-0.065
1403,0.295,-0.085
1404,0.290,-0.145
1405,0.210,-0.160
1406,0.150,-0.210
1407,0.150,-0.245
1408,0.075,-0.310
1409,0.075,-0.345
1410,0.090,-0.385
1411,0.080,-0.345
1412,0.050,-0.340
1413,0.035,-0.355
1414,0.040,-0.365
1415,0.045,-0.340
1416,0.035,-0.355
1417,0.075,-0.335
1418,0.060,-0.335
1419,0.065,-0.325
1420,0.065,-0.260
1421,0.080,-0.020
1422,0.155,0.550
1423,0.220,1.295
1424,-0.280,1.855
1425,-1.495,2.320
1426,-2.515,2.295
1427,-2.605,2.045
1428,-2.260,1.670
1429,-1.990,1.450
1430,-1.700,1.765
1431,-1.500,2.270
1432,-1.250,1.525
1433,-0.995,0.300
1434,-0.715,-0.370
1435,-0.430,-0.630
1436,-0.075,-0.630
1437,0.230,-0.615
1438,0.415,-0.615
1439,0.525,-0.615
1440,0.570,-0.615
1441,0.615,-0.610
1442,0.635,-0.575
1443,0.665,-0.575
1444,0.685,-0.555
1445,0.675,-0.535
1446,0.710,-0.505
1447,0.735,-0.510
1448,0.770,-0.520
1449,0.805,-0.540
1450,0.845,-0.565
1451,0.875,-0.590
1452,0.925,-0.600
1453,0.960,-0.635
1454,1.010,-0.650
1455,1.055,-0.640
1456,1.050,-0.620
1457,1.040,-0.585
1458,1.020,-0.495
1459,0.950,-0.415
1460,0.880,-0.335
1461,0.785,-0.260
1462,0.685,-0.225
1463,0.605,-0.220
1464,0.520,-0.220
1465,0.420,-0.255
1466,0.350,-0.265
1467,0.285,-0.265
1468,0.265,-0.275
1469,0.225,-0.280
1470,0.200,-0.295
1471,0.195,-0.305
1472,0.215,-0.315
1473,0.190,-0.320
1474,0.185,-0.330
1475,0.180,-0.360
1476,0.200,-0.345
1477,0.180,-0.345
1478,0.195,-0.365
1479,0.190,-0.375
1480,0.210,-0.370
1481,0.195,-0.370
1482,0.195,-0.375
1483,0.185,-0.375
1484,0.185,-0.380
1485,0.175,-0.375
1486,0.165,-0.380
1487,0.170,-0.350
1488,0.170,-0.355
1489,0.155,-0.350
1490,0.155,-0.355
1491,0.160,-0.340
1492,0.155,-0.320
1493,0.160,-0.330
1494,0.165,-0.320
1495,0.155,-0.315
1496,0.175,-0.330
1497,0.165,-0.295
1498,0.160,-0.310
1499,0.145,-0.305
1500,0.160,-0.300
1501,0.135,-0.300
1502,0.140,-0.275
1503,0.145,-0.225
1504,0.170,-0.185
1505,0.200,-0.125
1506,0.260,-0.085
1507,0.275,-0.090
1508,0.310,-0.105
1509,0.295,-0.165
1510,0.240,-0.180
1511,0.190,-0.225
1512,0.145,-0.250
1513,0.105,-0.345
1514,0.135,-0.355
1515,0.115,-0.375
1516,0.130,-0.365
1517,0.125,-0.355
1518,0.120,-0.365
1519,0.115,-0.365
1520,0.115,-0.350
1521,0.135,-0.370
1522,0.125,-0.345
1523,0.115,-0.340
1524,0.125,-0.335
1525,0.120,-0.275
1526,0.115,-0.070
1527,0.150,0.405
1528,0.255,1.005
1529,-0.130,1.465
1530,-1.280,1.900
1531,-2.380,1.895
1532,-2.610,1.715
1533,-2.350,1.410
1534,-2.080,1.185
1535,-1.840,1.345
1536,-1.595,1.825
1537,-1.350,1.120
1538,-1.080,-0.050
1539,-0.830,-0.470
1540,-0.505,-0.550
1541,-0.130,-0.545
1542,0.205,-0.525
1543,0.480,-0.520
1544,0.620,-0.515
1545,0.695,-0.495
1546,0.735,-0.485
1547,0.780,-0.465
1548,0.785,-0.450
1549,0.825,-0.445
1550,0.835,-0.430
1551,0.855,-0.420
1552,0.895,-0.440
1553,0.930,-0.435
1554,0.975,-0.455
1555,0.995,-0.480
1556,1.035,-0.515
1557,1.095,-0.535
1558,1.130,-0.545
1559,1.210,-0.580
1560,1.245,-0.600
1561,1.265,-0.610
1562,1.285,-0.585
1563,1.265,-0.520
1564,1.215,-0.455
1565,1.150,-0.390
1566,1.075,-0.310
1567,0.975,-0.245
1568,0.850,-0.215
1569,0.765,-0.210
1570,0.655,-0.215
1571,0.555,-0.240
1572,0.505,-0.230
1573,0.455,-0.280
1574,0.395,-0.280
1575,0.380,-0.285
1576,0.365,-0.300
1577,0.335,-0.305
1578,0.320,-0.305
1579,0.345,-0.305
1580,0.370,-0.325
1581,0.355,-0.340
1582,0.335,-0.340
1583,0.340,-0.340
1584,0.340,-0.355
1585,0.340,-0.355
1586,0.330,-0.370
1587,0.345,-0.355
1588,0.345,-0.355
1589,0.340,-0.355
1590,0.335,-0.365
1591,0.340,-0.345
1592,0.325,-0.350
1593,0.330,-0.330
1594,0.320,-0.330
1595,0.330,-0.335
1596,0.305,-0.325
1597,0.315,-0.320
1598,0.300,-0.320
1599,0.300,-0.315
1600,0.305,-0.330
1601,0.295,-0.315
1602,0.305,-0.305
1603,0.290,-0.295
1604,0.285,-0.295
1605,0.280,-0.300
1606,0.290,-0.300
1607,0.300,-0.290
1608,0.285,-0.235
1609,0.285,-0.180
1610,0.315,-0.130
1611,0.380,-0.080
1612,0.420,-0.065
1613,0.470,-0.115
1614,0.430,-0.155
1615,0.395,-0.195
1616,0.340,-0.215
1617,0.295,-0.255
1618,0.275,-0.335
1619,0.270,-0.360
1620,0.250,-0.355
1621,0.255,-0.340
1622,0.250,-0.335
1623,0.240,-0.345
1624,0.215,-0.360
1625,0.235,-0.350
1626,0.215,-0.345
1627,0.215,-0.335
1628,0.225,-0.335
1629,0.215,-0.320
1630,0.230,-0.300
1631,0.230,-0.165
1632,0.240,0.135
1633,0.325,0.675
1634,0.290,1.095
1635,-0.425,1.530
1636,-1.745,1.765
1637,-2.570,1.630
1638,-2.525,1.330
1639,-2.290,1.055
1640,-2.060,0.870
1641,-1.800,1.155
1642,-1.580,1.355
1643,-1.290,0.485
1644,-1.045,-0.400
1645,-0.750,-0.570
1646,-0.425,-0.540
1647,-0.025,-0.530
1648,0.320,-0.470
1649,0.585,-0.460
1650,0.720,-0.445
1651,0.775,-0.440
1652,0.810,-0.410
1653,0.840,-0.395
1654,0.865,-0.385
1655,0.885,-0.380
1656,0.895,-0.365
1657,0.945,-0.360
1658,0.965,-0.380
1659,0.980,-0.375
1660,1.060,-0.385
1661,1.105,-0.405
1662,1.160,-0.425
1663,1.220,-0.455
1664,1.265,-0.490
1665,1.275,-0.515
1666,1.315,-0.515
1667,1.355,-0.535
1668,1.345,-0.510
1669,1.340,-0.455
1670,1.290,-0.380
1671,1.200,-0.325
1672,1.120,-0.290
1673,1.015,-0.215
1674,0.910,-0.210
1675,0.810,-0.200
1676,0.715,-0.220
1677,0.610,-0.230
1678,0.545,-0.265
1679,0.465,-0.260
1680,0.405,-0.290
1681,0.340,-0.290
1682,0.360,-0.285
1683,0.350,-0.330
1684,0.325,-0.320
1685,0.325,-0.330
1686,0.330,-0.340
1687,0.310,-0.365
1688,0.320,-0.355
1689,0.330,-0.365
1690,0.325,-0.370
1691,0.320,-0.405
1692,0.315,-0.365
1693,0.310,-0.370
1694,0.315,-0.370
1695,0.300,-0.365
1696,0.310,-0.390
1697,0.300,-0.385
1698,0.300,-0.370
1699,0.295,-0.380
1700,0.310,-0.370
1701,0.300,-0.375
1702,0.280,-0.360
1703,0.300,-0.380
1704,0.290,-0.360
1705,0.290,-0.365
1706,0.290,-0.375
1707,0.325,-0.355
1708,0.300,-0.345
1709,0.300,-0.350
1710,0.295,-0.350
1711,0.275,-0.325
1712,0.300,-0.335
1713,0.285,-0.320
1714,0.255,-0.305
1715,0.270,-0.315
1716,0.275,-0.305
1717,0.290,-0.230
1718,0.300,-0.195
1719,0.345,-0.145
1720,0.390,-0.095
1721,0.435,-0.105
1722,0.460,-0.165
1723,0.435,-0.185
1724,0.365,-0.220
1725,0.335,-0.245
1726,0.275,-0.275
1727,0.275,-0.350
1728,0.300,-0.365
1729,0.300,-0.365
1730,0.260,-0.365
1731,0.260,-0.365
1732,0.265,-0.375
1733,0.250,-0.360
1734,0.250,-0.350
1735,0.260,-0.360
1736,0.250,-0.360
1737,0.270,-0.335
1738,0.260,-0.320
1739,0.265,-0.280
1740,0.255,-0.040
1741,0.300,0.390
1742,0.395,0.915
1743,0.080,1.270
1744,-0.870,1.680
1745,-2.075,1.790
1746,-2.570,1.560
1747,-2.355,1.205
1748,-2.055,0.885
1749,-1.825,0.825
1750,-1.590,1.265
1751,-1.360,1.175
1752,-1.075,0.120
1753,-0.810,-0.520
1754,-0.515,-0.595
1755,-0.220,-0.580
1756,0.120,-0.515
1757,0.420,-0.495
1758,0.605,-0.485
1759,0.675,-0.475
1760,0.710,-0.445
1761,0.740,-0.415
1762,0.750,-0.410
1763,0.790,-0.390
1764,0.800,-0.375
1765,0.800,-0.345
1766,0.830,-0.355
1767,0.875,-0.355
1768,0.885,-0.345
1769,0.940,-0.360
1770,1.005,-0.400
1771,1.035,-0.415
1772,1.080,-0.450
1773,1.105,-0.475
1774,1.150,-0.510
1775,1.200,-0.535
1776,1.210,-0.555
1777,1.185,-0.510
1778,1.155,-0.465
1779,1.100,-0.400
1780,1.020,-0.335
1781,0.955,-0.280
1782,0.860,-0.225
1783,0.760,-0.220
1784,0.680,-0.225
1785,0.585,-0.240
1786,0.495,-0.265
1787,0.435,-0.265
1788,0.375,-0.295
1789,0.325,-0.300
1790,0.315,-0.295
1791,0.290,-0.330
1792,0.275,-0.330
1793,0.270,-0.350
1794,0.265,-0.335
1795,0.250,-0.360
1796,0.250,-0.375
1797,0.255,-0.385
1798,0.245,-0.385
1799,0.265,-0.420
1800,0.260,-0.420
1801,0.245,-0.425
1802,0.235,-0.420
1803,0.245,-0.430
1804,0.250,-0.435
1805,0.245,-0.425
1806,0.230,-0.440
1807,0.215,-0.425
1808,0.225,-0.435
1809,0.215,-0.410
1810,0.200,-0.420
1811,0.205,-0.420
1812,0.200,-0.405
1813,0.180,-0.405
1814,0.190,-0.420
1815,0.175,-0.395
1816,0.175,-0.400
1817,0.150,-0.385
1818,0.150,-0.400
1819,0.170,-0.375
1820,0.170,-0.395
1821,0.140,-0.380
1822,0.160,-0.370
1823,0.130,-0.350
1824,0.140,-0.365
1825,0.145,-0.360
1826,0.155,-0.365
1827,0.150,-0.335
1828,0.140,-0.290
1829,0.165,-0.240
1830,0.210,-0.210
1831,0.240,-0.155
1832,0.290,-0.150
1833,0.305,-0.200
1834,0.300,-0.245
1835,0.240,-0.280
1836,0.195,-0.310
1837,0.135,-0.345
1838,0.100,-0.395
1839,0.120,-0.400
1840,0.110,-0.410
1841,0.100,-0.435
1842,0.100,-0.420
1843,0.095,-0.415
1844,0.090,-0.435
1845,0.110,-0.415
1846,0.120,-0.405
1847,0.090,-0.405
1848,0.110,-0.390
1849,0.120,-0.370
1850,0.140,-0.320
1851,0.115,-0.055
1852,0.170,0.515
1853,0.280,1.220
1854,-0.185,1.705
1855,-1.330,2.205
1856,-2.425,2.155
1857,-2.535,1.855
1858,-2.180,1.490
1859,-1.950,1.290
1860,-1.675,1.530
1861,-1.455,1.945
1862,-1.210,1.235
1863,-0.945,0.150
1864,-0.690,-0.420
1865,-0.375,-0.630
1866,-0.070,-0.645
1867,0.220,-0.610
1868,0.455,-0.630
1869,0.560,-0.610
1870,0.605,-0.600
1871,0.625,-0.580
1872,0.660,-0.570
1873,0.675,-0.535
1874,0.700,-0.520
1875,0.725,-0.510
1876,0.735,-0.485
1877,0.770,-0.485
1878,0.815,-0.485
1879,0.820,-0.490
1880,0.880,-0.510
1881,0.915,-0.555
1882,0.950,-0.580
1883,1.005,-0.615
1884,1.030,-0.635
1885,1.080,-0.635
1886,1.075,-0.610
1887,1.070,-0.575
1888,1.030,-0.510
1889,0.990,-0.425
1890,0.895,-0.345
1891,0.800,-0.305
1892,0.715,-0.265
1893,0.610,-0.265
1894,0.500,-0.245
1895,0.425,-0.280
1896,0.330,-0.275
1897,0.285,-0.305
1898,0.225,-0.320
1899,0.220,-0.325
1900,0.180,-0.345
1901,0.180,-0.340
1902,0.180,-0.340
1903,0.175,-0.355
1904,0.180,-0.375
1905,0.170,-0.395
1906,0.170,-0.380
1907,0.165,-0.395
1908,0.165,-0.400
1909,0.160,-0.410
1910,0.175,-0.435
1911,0.175,-0.430
1912,0.180,-0.420
1913,0.155,-0.445
1914,0.165,-0.435
1915,0.155,-0.445
1916,0.145,-0.440
1917,0.155,-0.445
1918,0.160,-0.440
1919,0.145,-0.430
1920,0.160,-0.430
1921,0.165,-0.435
1922,0.145,-0.410
1923,0.140,-0.420
1924,0.125,-0.390
1925,0.130,-0.420
1926,0.115,-0.415
1927,0.130,-0.420
1928,0.120,-0.390
1929,0.115,-0.395
1930,0.120,-0.370
1931,0.120,-0.380
1932,0.110,-0.385
1933,0.120,-0.385
1934,0.125,-0.330
1935,0.110,-0.275
1936,0.120,-0.220
1937,0.185,-0.165
1938,0.235,-0.155
1939,0.275,-0.180
1940,0.280,-0.230
1941,0.225,-0.250
1942,0.185,-0.280
1943,0.130,-0.320
1944,0.095,-0.405
1945,0.085,-0.440
1946,0.090,-0.430
1947,0.080,-0.430
1948,0.075,-0.425
1949,0.075,-0.420
1950,0.065,-0.425
1951,0.070,-0.420
1952,0.070,-0.410
1953,0.065,-0.410
1954,0.065,-0.410
1955,0.060,-0.385
1956,0.070,-0.320
1957,0.070,-0.060
1958,0.150,0.425
1959,0.210,1.010
1960,-0.270,1.445
1961,-1.480,1.860
1962,-2.500,1.810
1963,-2.595,1.590
1964,-2.335,1.270
1965,-2.070,1.085
1966,-1.790,1.430
1967,-1.565,1.670
1968,-1.305,0.585
1969,-1.020,-0.350
1970,-0.730,-0.575
1971,-0.370,-0.605
1972,-0.010,-0.585
1973,0.300,-0.545
1974,0.525,-0.555
1975,0.600,-0.515
1976,0.670,-0.510
1977,0.685,-0.500
1978,0.730,-0.480
1979,0.730,-0.470
1980,0.745,-0.450
1981,0.790,-0.450
1982,0.815,-0.440
1983,0.850,-0.470
1984,0.875,-0.460
1985,0.940,-0.485
1986,0.970,-0.535
1987,1.035,-0.550
1988,1.075,-0.585
1989,1.130,-0.590
1990,1.145,-0.620
1991,1.165,-0.595
1992,1.160,-0.585
1993,1.160,-0.500
1994,1.100,-0.445
1995,1.015,-0.350
1996,0.910,-0.300
1997,0.800,-0.255
1998,0.680,-0.240
1999,0.615,-0.245
2000,0.510,-0.255
2001,0.425,-0.265
2002,0.340,-0.275
2003,0.290,-0.260
2004,0.245,-0.310
2005,0.225,-0.300
2006,0.210,-0.315
2007,0.210,-0.320
2008,0.180,-0.325
2009,0.200,-0.325
2010,0.190,-0.370
2011,0.180,-0.365
2012,0.190,-0.365
2013,0.180,-0.365
2014,0.180,-0.385
2015,0.195,-0.370
2016,0.195,-0.380
2017,0.195,-0.380
2018,0.165,-0.395
2019,0.190,-0.385
2020,0.165,-0.370
2021,0.150,-0.385
2022,0.150,-0.385
2023,0.160,-0.380
2024,0.150,-0.360
2025,0.120,-0.375
2026,0.135,-0.385
2027,0.125,-0.365
2028,0.110,-0.350
2029,0.125,-0.355
2030,0.115,-0.345
2031,0.115,-0.370
2032,0.135,-0.355
2033,0.115,-0.345
2034,0.130,-0.335
2035,0.120,-0.340
2036,0.140,-0.340
2037,0.115,-0.340
2038,0.115,-0.320
2039,0.110,-0.280
2040,0.125,-0.220
2041,0.160,-0.190
2042,0.205,-0.120
2043,0.250,-0.150
2044,0.270,-0.190
2045,0.235,-0.215
2046,0.170,-0.270
2047,0.145,-0.300
2048,0.115,-0.335
2049,0.085,-0.410
2050,0.060,-0.410
2051,0.060,-0.420
2052,0.070,-0.415
2053,0.055,-0.405
2054,0.060,-0.410
2055,0.065,-0.405
2056,0.040,-0.405
2057,0.050,-0.415
2058,0.045,-0.400
2059,0.035,-0.405
2060,0.035,-0.370
2061,0.040,-0.235
2062,0.030,0.095
2063,0.065,0.635
2064,-0.090,1.095
2065,-0.930,1.540
2066,-2.180,1.760
2067,-2.755,1.615
2068,-2.690,1.305
2069,-2.465,0.985
2070,-2.290,0.875
2071,-2.055,1.240
2072,-1.865,1.300
2073,-1.630,0.185
2074,-1.395,-0.555
2075,-1.130,-0.645
2076,-0.845,-0.625
2077,-0.515,-0.575
2078,-0.235,-0.545
2079,-0.090,-0.525
2080,-0.030,-0.520
2081,-0.015,-0.495
2082,-0.015,-0.485
2083,-0.005,-0.475
2084,0.000,-0.460
2085,0.010,-0.435
2086,0.030,-0.430
2087,0.055,-0.425
2088,0.100,-0.440
2089,0.135,-0.430
2090,0.160,-0.455
2091,0.195,-0.465
2092,0.250,-0.500
2093,0.300,-0.535
2094,0.340,-0.560
2095,0.395,-0.585
2096,0.445,-0.575
2097,0.430,-0.585
2098,0.420,-0.545
2099,0.375,-0.490
2100,0.315,-0.435
2101,0.215,-0.360
2102,0.125,-0.295
2103,0.020,-0.280
2104,-0.060,-0.250
2105,-0.180,-0.255
2106,-0.255,-0.265
2107,-0.340,-0.295
2108,-0.405,-0.275
2109,-0.430,-0.305
2110,-0.455,-0.305
2111,-0.475,-0.320
2112,-0.475,-0.320
2113,-0.470,-0.330
2114,-0.455,-0.330
2115,-0.470,-0.355
2116,-0.480,-0.360
2117,-0.450,-0.365
2118,-0.465,-0.365
2119,-0.470,-0.385
2120,-0.460,-0.380
2121,-0.440,-0.400
2122,-0.440,-0.410
2123,-0.430,-0.380
2124,-0.425,-0.390
2125,-0.450,-0.400
2126,-0.445,-0.405
2127,-0.440,-0.380
2128,-0.455,-0.400
2129,-0.470,-0.395
2130,-0.445,-0.390
2131,-0.470,-0.390
2132,-0.460,-0.380
2133,-0.450,-0.380
2134,-0.445,-0.375
2135,-0.455,-0.375
2136,-0.450,-0.365
2137,-0.455,-0.375
2138,-0.430,-0.355
2139,-0.425,-0.365
2140,-0.435,-0.350
2141,-0.440,-0.360
2142,-0.420,-0.355
2143,-0.435,-0.365
2144,-0.440,-0.340
2145,-0.430,-0.350
2146,-0.415,-0.340
2147,-0.395,-0.255
2148,-0.405,-0.205
2149,-0.355,-0.175
2150,-0.330,-0.135
2151,-0.270,-0.130
2152,-0.250,-0.195
2153,-0.265,-0.245
2154,-0.335,-0.275
2155,-0.365,-0.285
2156,-0.425,-0.320
2157,-0.440,-0.390
2158,-0.430,-0.425
2159,-0.430,-0.435
2160,-0.435,-0.420
2161,-0.425,-0.425
2162,-0.440,-0.410
2163,-0.415,-0.405
2164,-0.430,-0.425
2165,-0.420,-0.405
2166,-0.445,-0.410
2167,-0.425,-0.400
2168,-0.435,-0.390
2169,-0.445,-0.320
2170,-0.420,-0.095
2171,-0.395,0.345
2172,-0.310,0.835
2173,-0.730,1.240
2174,-1.845,1.640
2175,-2.785,1.645
2176,-2.945,1.435
2177,-2.705,1.075
2178,-2.520,0.815
2179,-2.255,0.865
2180,-2.025,1.255
2181,-1.810,0.875
2182,-1.525,-0.190
2183,-1.280,-0.670
2184,-1.015,-0.665
2185,-0.690,-0.620
2186,-0.365,-0.565
2187,-0.115,-0.545
2188,0.000,-0.515
2189,0.050,-0.515
2190,0.095,-0.500
2191,0.130,-0.490
2192,0.135,-0.465
2193,0.165,-0.455
2194,0.190,-0.475
2195,0.205,-0.450
2196,0.235,-0.435
2197,0.275,-0.455
2198,0.310,-0.470
2199,0.365,-0.495
2200,0.390,-0.495
2201,0.440,-0.515
2202,0.505,-0.550
2203,0.560,-0.550
2204,0.595,-0.570
2205,0.645,-0.610
2206,0.650,-0.590
2207,0.645,-0.550
2208,0.610,-0.505
2209,0.540,-0.465
2210,0.470,-0.385
2211,0.390,-0.345
2212,0.300,-0.290
2213,0.205,-0.290
2214,0.090,-0.280
2215,0.000,-0.305
2216,-0.065,-0.320
2217,-0.120,-0.350
2218,-0.180,-0.345
2219,-0.195,-0.370
2220,-0.220,-0.380
2221,-0.240,-0.385
2222,-0.245,-0.400
2223,-0.250,-0.385
2224,-0.260,-0.405
2225,-0.260,-0.410
2226,-0.265,-0.415
2227,-0.250,-0.430
2228,-0.250,-0.425
2229,-0.230,-0.435
2230,-0.230,-0.450
2231,-0.220,-0.445
2232,-0.215,-0.445
2233,-0.210,-0.435
2234,-0.215,-0.440
2235,-0.215,-0.435
2236,-0.185,-0.440
2237,-0.215,-0.430
2238,-0.200,-0.430
2239,-0.205,-0.415
2240,-0.180,-0.410
2241,-0.190,-0.425
2242,-0.195,-0.395
2243,-0.195,-0.410
2244,-0.215,-0.385
2245,-0.215,-0.405
2246,-0.210,-0.370
2247,-0.205,-0.375
2248,-0.215,-0.390
2249,-0.195,-0.375
2250,-0.205,-0.375
2251,-0.210,-0.365
2252,-0.210,-0.375
2253,-0.225,-0.365
2254,-0.225,-0.355
2255,-0.225,-0.320
2256,-0.210,-0.280
2257,-0.210,-0.230
2258,-0.180,-0.190
2259,-0.115,-0.140
2260,-0.075,-0.155
2261,-0.060,-0.220
2262,-0.080,-0.250
2263,-0.155,-0.285
2264,-0.195,-0.330
2265,-0.255,-0.350
2266,-0.265,-0.405
2267,-0.260,-0.420
2268,-0.250,-0.420
2269,-0.265,-0.405
2270,-0.250,-0.415
2271,-0.260,-0.435
2272,-0.250,-0.410
2273,-0.225,-0.425
2274,-0.250,-0.415
2275,-0.245,-0.430
2276,-0.250,-0.410
2277,-0.250,-0.395
2278,-0.255,-0.380
2279,-0.235,-0.190
2280,-0.215,0.180
2281,-0.110,0.795
2282,-0.325,1.190
2283,-1.215,1.650
2284,-2.400,1.730
2285,-2.760,1.490
2286,-2.580,1.115
2287,-2.365,0.805
2288,-2.145,0.800
2289,-1.925,1.220
2290,-1.735,1.155
2291,-1.455,0.180
2292,-1.225,-0.515
2293,-0.950,-0.610
2294,-0.635,-0.630
2295,-0.335,-0.570
2296,-0.045,-0.540
2297,0.095,-0.550
2298,0.190,-0.525
2299,0.230,-0.500
2300,0.280,-0.480
2301,0.290,-0.460
2302,0.300,-0.435
2303,0.295,-0.430
2304,0.345,-0.415
2305,0.365,-0.430
2306,0.390,-0.410
2307,0.430,-0.435
2308,0.465,-0.420
2309,0.525,-0.460
2310,0.560,-0.515
2311,0.610,-0.520
2312,0.650,-0.535
2313,0.705,-0.595
2314,0.720,-0.600
2315,0.745,-0.580
2316,0.735,-0.555
2317,0.695,-0.500
2318,0.655,-0.440
2319,0.575,-0.370
2320,0.485,-0.290
2321,0.395,-0.265
2322,0.250,-0.280
2323,0.150,-0.275
2324,0.065,-0.305
2325,-0.015,-0.305
2326,-0.080,-0.345
2327,-0.120,-0.365
2328,-0.150,-0.355
2329,-0.180,-0.375
2330,-0.195,-0.395
2331,-0.220,-0.400
2332,-0.215,-0.405
2333,-0.205,-0.410
2334,-0.205,-0.415
2335,-0.205,-0.425
2336,-0.200,-0.435
2337,-0.195,-0.435
2338,-0.190,-0.430
2339,-0.185,-0.450
2340,-0.170,-0.455
2341,-0.165,-0.475
2342,-0.175,-0.455
2343,-0.170,-0.465
2344,-0.175,-0.465
2345,-0.160,-0.475
2346,-0.175,-0.465
2347,-0.175,-0.465
2348,-0.195,-0.445
2349,-0.185,-0.455
2350,-0.215,-0.450
2351,-0.185,-0.450
2352,-0.220,-0.460
2353,-0.190,-0.445
2354,-0.200,-0.425
2355,-0.200,-0.425
2356,-0.210,-0.430
2357,-0.200,-0.435
2358,-0.185,-0.430
2359,-0.190,-0.415
2360,-0.195,-0.405
2361,-0.185,-0.410
2362,-0.175,-0.420
2363,-0.175,-0.390
2364,-0.155,-0.330
2365,-0.155,-0.295
2366,-0.095,-0.245
2367,-0.070,-0.195
2368,-0.005,-0.230
2369,0.015,-0.260
2370,0.000,-0.290
2371,-0.080,-0.335
2372,-0.120,-0.350
2373,-0.145,-0.365
2374,-0.160,-0.455
2375,-0.125,-0.470
2376,-0.130,-0.470
2377,-0.150,-0.460
2378,-0.145,-0.455
2379,-0.165,-0.450
2380,-0.160,-0.455
2381,-0.145,-0.455
2382,-0.165,-0.440
2383,-0.145,-0.445
2384,-0.140,-0.430
2385,-0.145,-0.415
2386,-0.140,-0.330
2387,-0.130,-0.090
2388,-0.040,0.440
2389,0.035,1.110
2390,-0.465,1.590
2391,-1.575,2.025
2392,-2.465,1.980
2393,-2.595,1.650
2394,-2.340,1.310
2395,-2.120,1.090
2396,-1.870,1.265
2397,-1.665,1.735
2398,-1.415,1.360
2399,-1.175,0.250
2400,-0.910,-0.430
2401,-0.635,-0.655
2402,-0.320,-0.690
2403,0.000,-0.650
2404,0.245,-0.675
2405,0.375,-0.670
2406,0.455,-0.645
2407,0.480,-0.615
2408,0.510,-0.600
2409,0.530,-0.585
2410,0.555,-0.585
2411,0.575,-0.530
2412,0.600,-0.535
2413,0.635,-0.515
2414,0.650,-0.525
2415,0.680,-0.530
2416,0.730,-0.550
2417,0.790,-0.580
2418,0.830,-0.610
2419,0.870,-0.620
2420,0.935,-0.660
2421,0.975,-0.695
2422,0.990,-0.685
2423,1.005,-0.635
2424,0.970,-0.585
2425,0.930,-0.505
2426,0.830,-0.445
2427,0.750,-0.405
2428,0.655,-0.345
2429,0.560,-0.315
2430,0.470,-0.330
2431,0.355,-0.365
2432,0.295,-0.375
2433,0.225,-0.375
2434,0.160,-0.390
2435,0.110,-0.415
2436,0.100,-0.415
2437,0.090,-0.430
2438,0.090,-0.430
2439,0.080,-0.435
2440,0.070,-0.445
2441,0.100,-0.460
2442,0.095,-0.475
2443,0.105,-0.485
2444,0.095,-0.480
2445,0.120,-0.495
2446,0.095,-0.490
2447,0.110,-0.520
2448,0.085,-0.495
2449,0.115,-0.520
2450,0.115,-0.510
2451,0.135,-0.525
2452,0.120,-0.505
2453,0.095,-0.520
2454,0.105,-0.505
2455,0.090,-0.480
2456,0.105,-0.480
2457,0.075,-0.510
2458,0.090,-0.490
2459,0.080,-0.480
2460,0.085,-0.485
2461,0.080,-0.485
2462,0.070,-0.465
2463,0.085,-0.470
2464,0.075,-0.465
2465,0.080,-0.475
2466,0.085,-0.475
2467,0.085,-0.455
2468,0.070,-0.460
2469,0.085,-0.390
2470,0.090,-0.335
2471,0.125,-0.265
2472,0.175,-0.255
2473,0.195,-0.250
2474,0.260,-0.300
2475,0.235,-0.325
2476,0.175,-0.370
2477,0.150,-0.400
2478,0.110,-0.430
2479,0.070,-0.475
2480,0.055,-0.525
2481,0.065,-0.485
2482,0.065,-0.515
2483,0.065,-0.490
2484,0.065,-0.505
2485,0.080,-0.485
2486,0.055,-0.500
2487,0.065,-0.465
2488,0.070,-0.485
2489,0.085,-0.465
2490,0.080,-0.455
2491,0.095,-0.350
2492,0.105,-0.065
2493,0.210,0.575
2494,0.220,1.185
2495,-0.430,1.675
2496,-1.715,2.045
2497,-2.435,1.970
2498,-2.325,1.690
2499,-1.995,1.370
2500,-1.780,1.250
2501,-1.525,1.625
2502,-1.305,1.745
2503,-1.045,0.630
2504,-0.810,-0.265
2505,-0.530,-0.570
2506,-0.220,-0.670
2507,0.115,-0.660
2508,0.395,-0.625
2509,0.560,-0.630
2510,0.625,-0.615
2511,0.670,-0.605
2512,0.685,-0.600
2513,0.720,-0.580
2514,0.755,-0.560
2515,0.775,-0.570
2516,0.795,-0.530
2517,0.780,-0.545
2518,0.825,-0.535
2519,0.855,-0.540
2520,0.905,-0.555
2521,0.960,-0.580
2522,1.000,-0.615
2523,1.060,-0.655
2524,1.085,-0.655
2525,1.125,-0.700
2526,1.150,-0.695
2527,1.140,-0.655
2528,1.120,-0.610
2529,1.045,-0.525
2530,0.980,-0.445
2531,0.895,-0.375
2532,0.790,-0.325
2533,0.670,-0.285
2534,0.600,-0.295
2535,0.470,-0.295
2536,0.400,-0.310
2537,0.335,-0.305
2538,0.265,-0.330
2539,0.250,-0.330
2540,0.220,-0.340
2541,0.200,-0.340
2542,0.200,-0.355
2543,0.205,-0.360
2544,0.195,-0.370
2545,0.185,-0.370
2546,0.200,-0.380
2547,0.185,-0.385
2548,0.205,-0.395
2549,0.210,-0.410
2550,0.210,-0.410
2551,0.205,-0.410
2552,0.220,-0.440
2553,0.215,-0.405
2554,0.180,-0.430
2555,0.190,-0.425
2556,0.170,-0.420
2557,0.170,-0.415
2558,0.180,-0.420
2559,0.165,-0.405
2560,0.170,-0.435
2561,0.165,-0.420
2562,0.160,-0.415
2563,0.145,-0.390
2564,0.160,-0.395
2565,0.145,-0.385
2566,0.150,-0.380
2567,0.160,-0.395
2568,0.150,-0.385
2569,0.160,-0.385
2570,0.135,-0.410
2571,0.140,-0.390
2572,0.140,-0.340
2573,0.140,-0.285
2574,0.155,-0.250
2575,0.225,-0.195
2576,0.265,-0.170
2577,0.285,-0.170
2578,0.285,-0.235
2579,0.230,-0.240
2580,0.155,-0.295
2581,0.155,-0.310
2582,0.095,-0.390
2583,0.090,-0.425
2584,0.125,-0.440
2585,0.095,-0.440
2586,0.115,-0.410
2587,0.095,-0.435
2588,0.090,-0.440
2589,0.100,-0.435
2590,0.110,-0.405
2591,0.110,-0.425
2592,0.100,-0.410
2593,0.100,-0.420
2594,0.115,-0.390
2595,0.105,-0.290
2596,0.130,0.010
2597,0.190,0.535
2598,0.170,1.020
2599,-0.535,1.470
2600,-1.780,1.735
2601,-2.445,1.600
2602,-2.295,1.340
2603,-2.010,1.015
2604,-1.810,0.845
2605,-1.525,1.165
2606,-1.320,1.410
2607,-1.075,0.475
2608,-0.850,-0.460
2609,-0.570,-0.640
2610,-0.315,-0.620
2611,0.015,-0.590
2612,0.310,-0.555
2613,0.500,-0.540
2614,0.595,-0.520
2615,0.630,-0.495
2616,0.650,-0.475
2617,0.670,-0.450
2618,0.720,-0.435
2619,0.735,-0.450
2620,0.750,-0.430
2621,0.790,-0.410
2622,0.800,-0.430
2623,0.850,-0.435
2624,0.890,-0.460
2625,0.930,-0.465
2626,1.010,-0.510
2627,1.075,-0.530
2628,1.115,-0.575
2629,1.140,-0.590
2630,1.170,-0.590
2631,1.175,-0.560
2632,1.115,-0.490
2633,1.080,-0.420
2634,1.010,-0.370
2635,0.920,-0.320
2636,0.810,-0.255
2637,0.710,-0.240
2638,0.625,-0.235
2639,0.510,-0.255
2640,0.440,-0.280
2641,0.370,-0.275
2642,0.300,-0.305
2643,0.290,-0.300
2644,0.255,-0.310
2645,0.220,-0.330
2646,0.220,-0.325
2647,0.220,-0.345
2648,0.200,-0.320
2649,0.205,-0.350
2650,0.200,-0.375
2651,0.215,-0.370
2652,0.220,-0.385
2653,0.220,-0.390
2654,0.235,-0.370
2655,0.235,-0.375
2656,0.230,-0.380
2657,0.245,-0.380
2658,0.230,-0.360
2659,0.225,-0.385
2660,0.225,-0.335
2661,0.220,-0.370
2662,0.225,-0.340
2663,0.210,-0.370
2664,0.190,-0.345
2665,0.195,-0.355
2666,0.205,-0.350
2667,0.185,-0.355
2668,0.190,-0.330
2669,0.165,-0.350
2670,0.160,-0.335
2671,0.175,-0.340
2672,0.145,-0.320
2673,0.175,-0.330
2674,0.170,-0.305
2675,0.170,-0.315
2676,0.175,-0.325
2677,0.160,-0.310
2678,0.160,-0.270
2679,0.170,-0.195
2680,0.195,-0.180
2681,0.235,-0.130
2682,0.300,-0.110
2683,0.330,-0.145
2684,0.290,-0.190
2685,0.200,-0.210
2686,0.200,-0.270
2687,0.155,-0.275
2688,0.085,-0.360
2689,0.100,-0.375
2690,0.105,-0.400
2691,0.105,-0.375
2692,0.090,-0.400
2693,0.085,-0.390
2694,0.090,-0.390
2695,0.090,-0.385
2696,0.075,-0.390
2697,0.090,-0.385
2698,0.085,-0.365
2699,0.070,-0.360
2700,0.065,-0.330
2701,0.080,-0.210
2702,0.105,0.090
2703,0.195,0.605
2704,0.105,1.015
2705,-0.665,1.395
2706,-1.910,1.695
2707,-2.520,1.565
2708,-2.405,1.255
2709,-2.090,0.915
2710,-1.855,0.745
2711,-1.575,1.065
2712,-1.370,1.190
2713,-1.110,0.220
2714,-0.860,-0.540
2715,-0.610,-0.650
2716,-0.325,-0.585
2717,0.000,-0.545
2718,0.285,-0.500
2719,0.460,-0.500
2720,0.540,-0.470
2721,0.570,-0.450
2722,0.600,-0.435
2723,0.635,-0.425
2724,0.645,-0.415
2725,0.670,-0.385
2726,0.675,-0.390
2727,0.710,-0.400
2728,0.770,-0.390
2729,0.780,-0.420
2730,0.850,-0.405
2731,0.855,-0.420
2732,0.920,-0.460
2733,0.965,-0.480
2734,1.045,-0.500
2735,1.080,-0.540
2736,1.120,-0.540
2737,1.145,-0.535
2738,1.105,-0.515
2739,1.085,-0.450
2740,1.025,-0.395
2741,0.975,-0.310
2742,0.870,-0.280
2743,0.790,-0.235
2744,0.685,-0.215
2745,0.590,-0.235
2746,0.485,-0.235
2747,0.435,-0.255
2748,0.360,-0.270
2749,0.325,-0.280
2750,0.275,-0.295
2751,0.250,-0.290
2752,0.245,-0.310
2753,0.235,-0.315
2754,0.225,-0.330
2755,0.230,-0.335
2756,0.225,-0.345
2757,0.235,-0.340
2758,0.250,-0.350
2759,0.230,-0.350
2760,0.245,-0.385
2761,0.255,-0.360
2762,0.245,-0.375
2763,0.240,-0.360
2764,0.230,-0.365
2765,0.240,-0.360
2766,0.260,-0.370
2767,0.250,-0.355
2768,0.255,-0.355
2769,0.235,-0.365
2770,0.260,-0.350
2771,0.255,-0.350
2772,0.230,-0.350
2773,0.255,-0.360
2774,0.230,-0.355
2775,0.225,-0.350
2776,0.225,-0.345
2777,0.225,-0.335
2778,0.210,-0.325
2779,0.190,-0.320
2780,0.185,-0.315
2781,0.195,-0.330
2782,0.190,-0.325
2783,0.195,-0.330
2784,0.185,-0.320
2785,0.180,-0.305
2786,0.185,-0.310
2787,0.180,-0.300
2788,0.175,-0.290
2789,0.170,-0.220
2790,0.180,-0.180
2791,0.220,-0.130
2792,0.285,-0.120
2793,0.320,-0.110
2794,0.325,-0.185
2795,0.280,-0.205
2796,0.205,-0.225
2797,0.170,-0.265
2798,0.130,-0.300
2799,0.135,-0.360
2800,0.125,-0.370
2801,0.120,-0.370
2802,0.145,-0.365
2803,0.140,-0.360
2804,0.130,-0.365
2805,0.130,-0.355
2806,0.125,-0.355
2807,0.145,-0.375
2808,0.140,-0.370
2809,0.145,-0.355
2810,0.170,-0.340
2811,0.150,-0.275
2812,0.150,-0.005
2813,0.210,0.495
2814,0.300,1.130
2815,-0.250,1.620
2816,-1.470,2.030
2817,-2.400,1.945
2818,-2.405,1.635
2819,-2.035,1.260
2820,-1.835,1.050
2821,-1.590,1.325
2822,-1.385,1.655
2823,-1.135,0.935
2824,-0.855,-0.070
2825,-0.605,-0.490
2826,-0.310,-0.610
2827,-0.005,-0.605
2828,0.270,-0.555
2829,0.460,-0.540
2830,0.545,-0.545
2831,0.600,-0.510
2832,0.630,-0.490
2833,0.665,-0.480
2834,0.670,-0.480
2835,0.675,-0.435
2836,0.705,-0.425
2837,0.695,-0.425
2838,0.740,-0.415
2839,0.770,-0.395
2840,0.800,-0.420
2841,0.855,-0.445
2842,0.895,-0.460
2843,0.955,-0.510
2844,0.995,-0.530
2845,1.045,-0.545
2846,1.085,-0.590
2847,1.095,-0.560
2848,1.090,-0.535
2849,1.035,-0.470
2850,0.985,-0.415
2851,0.905,-0.345
2852,0.810,-0.275
2853,0.710,-0.235
2854,0.615,-0.230
2855,0.520,-0.230
2856,0.420,-0.240
2857,0.325,-0.260
2858,0.275,-0.295
2859,0.245,-0.300
2860,0.220,-0.285
2861,0.195,-0.295
2862,0.195,-0.315
2863,0.210,-0.340
2864,0.210,-0.335
2865,0.210,-0.350
2866,0.205,-0.350
2867,0.210,-0.375
2868,0.220,-0.355
2869,0.225,-0.385
2870,0.235,-0.390
2871,0.210,-0.375
2872,0.205,-0.400
2873,0.210,-0.400
2874,0.215,-0.400
2875,0.220,-0.390
2876,0.215,-0.390
2877,0.195,-0.390
2878,0.200,-0.390
2879,0.220,-0.400
2880,0.205,-0.415
2881,0.210,-0.380
2882,0.205,-0.365
2883,0.205,-0.350
2884,0.190,-0.360
2885,0.185,-0.360
2886,0.205,-0.355
2887,0.185,-0.325
2888,0.170,-0.345
2889,0.185,-0.330
2890,0.195,-0.310
2891,0.190,-0.315
2892,0.175,-0.325
2893,0.170,-0.300
2894,0.185,-0.330
2895,0.170,-0.310
2896,0.180,-0.290
2897,0.180,-0.290
2898,0.165,-0.205
2899,0.200,-0.175
2900,0.230,-0.130
2901,0.265,-0.100
2902,0.320,-0.085
2903,0.325,-0.160
2904,0.290,-0.190
2905,0.215,-0.215
2906,0.185,-0.250
2907,0.135,-0.290
2908,0.110,-0.340
2909,0.120,-0.355
2910,0.105,-0.365
2911,0.100,-0.365
2912,0.095,-0.375
2913,0.120,-0.365
2914,0.105,-0.360
2915,0.100,-0.325
2916,0.090,-0.355
2917,0.110,-0.360
2918,0.110,-0.350
2919,0.110,-0.320
2920,0.110,-0.210
2921,0.110,0.070
2922,0.240,0.720
2923,0.155,1.385
2924,-0.555,1.940
2925,-1.825,2.325
2926,-2.470,2.220
2927,-2.315,1.880
2928,-1.945,1.585
2929,-1.705,1.470
2930,-1.465,1.885
2931,-1.260,2.065
2932,-1.015,1.015
2933,-0.775,-0.030
2934,-0.520,-0.475
2935,-0.215,-0.615
2936,0.090,-0.615
2937,0.350,-0.580
2938,0.495,-0.590
2939,0.560,-0.590
2940,0.575,-0.580
2941,0.630,-0.545
2942,0.630,-0.540
2943,0.635,-0.520
2944,0.650,-0.535
2945,0.670,-0.480
2946,0.700,-0.500
2947,0.735,-0.495
2948,0.780,-0.505
2949,0.815,-0.515
2950,0.850,-0.540
2951,0.895,-0.570
2952,0.950,-0.610
2953,0.995,-0.635
2954,1.025,-0.645
2955,1.050,-0.660
2956,1.025,-0.615
2957,1.000,-0.575
2958,0.960,-0.500
2959,0.885,-0.415
2960,0.810,-0.345
2961,0.710,-0.295
2962,0.625,-0.250
2963,0.515,-0.260
2964,0.440,-0.245
2965,0.360,-0.270
2966,0.285,-0.255
2967,0.250,-0.290
2968,0.205,-0.280
2969,0.200,-0.310
2970,0.190,-0.315
2971,0.185,-0.330
2972,0.185,-0.320
2973,0.170,-0.335
2974,0.160,-0.325
2975,0.205,-0.345
2976,0.200,-0.370
2977,0.190,-0.385
2978,0.205,-0.370
2979,0.225,-0.390
2980,0.210,-0.395
2981,0.215,-0.390
2982,0.205,-0.400
2983,0.220,-0.410
2984,0.215,-0.395
2985,0.195,-0.400
2986,0.175,-0.380
2987,0.175,-0.400
2988,0.165,-0.395
2989,0.155,-0.395
2990,0.160,-0.385
2991,0.150,-0.385
2992,0.170,-0.375
2993,0.180,-0.360
2994,0.170,-0.385
2995,0.160,-0.360
2996,0.150,-0.345
2997,0.125,-0.350
2998,0.140,-0.355
2999,0.140,-0.350
3000,0.145,-0.350
3001,0.155,-0.335
3002,0.160,-0.330
3003,0.160,-0.320
3004,0.155,-0.295
3005,0.135,-0.205
3006,0.175,-0.170
3007,0.220,-0.130
3008,0.255,-0.080
3009,0.295,-0.110
3010,0.280,-0.165
3011,0.255,-0.185
3012,0.200,-0.220
3013,0.140,-0.240
3014,0.100,-0.325
3015,0.105,-0.340
3016,0.110,-0.355
3017,0.105,-0.355
3018,0.095,-0.350
3019,0.085,-0.320
3020,0.080,-0.350
3021,0.080,-0.350
3022,0.085,-0.325
3023,0.095,-0.340
3024,0.090,-0.320
3025,0.095,-0.310
3026,0.100,-0.290
3027,0.100,-0.125
3028,0.120,0.235
3029,0.230,0.870
3030,-0.060,1.305
3031,-0.955,1.775
3032,-2.065,1.965
3033,-2.390,1.840
3034,-2.185,1.540
3035,-1.920,1.275
3036,-1.670,1.210
3037,-1.435,1.630
3038,-1.210,1.545
3039,-0.965,0.415
3040,-0.745,-0.330
3041,-0.475,-0.475
3042,-0.195,-0.520
3043,0.115,-0.490
3044,0.380,-0.470
3045,0.540,-0.460
3046,0.590,-0.435
3047,0.590,-0.405
3048,0.650,-0.405
3049,0.675,-0.385
3050,0.675,-0.385
3051,0.710,-0.360
3052,0.730,-0.360
3053,0.740,-0.355
3054,0.780,-0.375
3055,0.825,-0.355
3056,0.850,-0.335
3057,0.890,-0.310
3058,0.930,-0.370
3059,0.980,-0.395
3060,1.030,-0.440
3061,1.060,-0.490
3062,1.085,-0.520
3063,1.070,-0.500
3064,1.065,-0.460
3065,1.015,-0.395
3066,0.930,-0.335
3067,0.875,-0.250
3068,0.770,-0.200
3069,0.655,-0.175
3070,0.565,-0.170
3071,0.480,-0.165
3072,0.395,-0.185
3073,0.335,-0.190
3074,0.260,-0.215
3075,0.200,-0.225
3076,0.180,-0.240
3077,0.150,-0.245
3078,0.150,-0.260
3079,0.105,-0.260
3080,0.125,-0.280
3081,0.130,-0.295
3082,0.115,-0.300
3083,0.135,-0.300
3084,0.120,-0.310
3085,0.130,-0.310
3086,0.135,-0.310
3087,0.115,-0.325
3088,0.115,-0.330
3089,0.110,-0.335
3090,0.125,-0.305
3091,0.115,-0.310
3092,0.110,-0.300
3093,0.110,-0.315
3094,0.090,-0.320
3095,0.120,-0.320
3096,0.090,-0.315
3097,0.080,-0.315
3098,0.090,-0.295
3099,0.075,-0.305
3100,0.070,-0.285
3101,0.060,-0.300
3102,0.085,-0.300
3103,0.085,-0.295
3104,0.085,-0.270
3105,0.070,-0.285
3106,0.045,-0.290
3107,0.050,-0.295
3108,0.055,-0.290
3109,0.055,-0.280
3110,0.050,-0.290
3111,0.055,-0.290
3112,0.030,-0.290
3113,0.040,-0.265
3114,0.045,-0.190
3115,0.070,-0.140
3116,0.115,-0.115
3117,0.165,-0.065
3118,0.180,-0.065
3119,0.195,-0.120
3120,0.160,-0.140
3121,0.095,-0.175
3122,0.070,-0.195
3123,0.025,-0.245
3124,0.015,-0.340
3125,0.020,-0.335
3126,0.020,-0.330
3127,0.025,-0.325
3128,0.020,-0.320
3129,0.000,-0.320
3130,0.010,-0.325
3131,0.015,-0.310
3132,0.000,-0.325
3133,0.015,-0.310
3134,0.030,-0.305
3135,0.010,-0.285
3136,0.020,-0.220
3137,0.025,0.045
3138,0.070,0.515
3139,0.105,0.990
3140,-0.450,1.405
3141,-1.570,1.760
3142,-2.380,1.740
3143,-2.410,1.500
3144,-2.180,1.195
3145,-1.960,0.945
3146,-1.700,1.120
3147,-1.485,1.380
3148,-1.215,0.680
3149,-0.965,-0.270
3150,-0.710,-0.530
3151,-0.455,-0.505
3152,-0.115,-0.475
3153,0.170,-0.435
3154,0.365,-0.430
3155,0.470,-0.390
3156,0.525,-0.395
3157,0.570,-0.370
3158,0.575,-0.340
3159,0.600,-0.335
3160,0.625,-0.340
3161,0.655,-0.315
3162,0.675,-0.300
3163,0.705,-0.300
3164,0.735,-0.320
3165,0.760,-0.330
3166,0.800,-0.350
3167,0.860,-0.365
3168,0.895,-0.390
3169,0.935,-0.410
3170,0.990,-0.425
3171,1.020,-0.450
3172,1.055,-0.455
3173,1.050,-0.455
3174,1.030,-0.410
3175,0.990,-0.340
3176,0.925,-0.300
3177,0.845,-0.230
3178,0.735,-0.175
3179,0.645,-0.155
3180,0.545,-0.140
3181,0.460,-0.150
3182,0.375,-0.165
3183,0.280,-0.180
3184,0.245,-0.200
3185,0.180,-0.230
3186,0.150,-0.225
3187,0.130,-0.250
3188,0.110,-0.250
3189,0.120,-0.240
3190,0.115,-0.265
3191,0.110,-0.265
3192,0.100,-0.270
3193,0.095,-0.285
3194,0.110,-0.310
3195,0.110,-0.290
3196,0.095,-0.315
3197,0.095,-0.310
3198,0.100,-0.320
3199,0.090,-0.315
3200,0.095,-0.320
3201,0.100,-0.320
3202,0.090,-0.320
3203,0.095,-0.320
3204,0.075,-0.315
3205,0.075,-0.305
3206,0.075,-0.315
3207,0.060,-0.310
3208,0.050,-0.300
3209,0.055,-0.285
3210,0.055,-0.290
3211,0.030,-0.305
3212,0.050,-0.305
3213,0.045,-0.295
3214,0.060,-0.290
3215,0.050,-0.300
3216,0.045,-0.305
3217,0.040,-0.305
3218,0.025,-0.290
3219,0.040,-0.285
3220,0.025,-0.285
3221,0.045,-0.290
3222,0.045,-0.280
3223,0.030,-0.270
3224,0.050,-0.280
3225,0.040,-0.280
3226,0.025,-0.240
3227,0.055,-0.175
3228,0.075,-0.145
3229,0.120,-0.095
3230,0.155,-0.080
3231,0.180,-0.105
3232,0.190,-0.160
3233,0.130,-0.180
3234,0.075,-0.230
3235,0.035,-0.235
3236,0.010,-0.310
3237,0.015,-0.345
3238,0.015,-0.365
3239,0.005,-0.355
3240,0.015,-0.345
3241,0.000,-0.365
3242,0.000,-0.335
3243,0.000,-0.345
3244,0.005,-0.345
3245,0.000,-0.355
3246,0.000,-0.350
3247,0.000,-0.340
3248,0.010,-0.310
3249,-0.005,-0.235
3250,0.005,0.045
3251,0.095,0.530
3252,0.110,0.980
3253,-0.485,1.335
3254,-1.640,1.700
3255,-2.430,1.650
3256,-2.490,1.380
3257,-2.205,1.030
3258,-1.995,0.770
3259,-1.730,0.930
3260,-1.545,1.280
3261,-1.305,0.765
3262,-1.040,-0.265
3263,-0.820,-0.565
3264,-0.550,-0.560
3265,-0.240,-0.540
3266,0.055,-0.455
3267,0.300,-0.430
3268,0.430,-0.445
3269,0.460,-0.405
3270,0.485,-0.390
3271,0.515,-0.350
3272,0.545,-0.350
3273,0.555,-0.340
3274,0.585,-0.305
3275,0.595,-0.320
3276,0.645,-0.295
3277,0.670,-0.305
3278,0.705,-0.310
3279,0.760,-0.335
3280,0.800,-0.350
3281,0.860,-0.380
3282,0.885,-0.400
3283,0.935,-0.430
3284,0.980,-0.470
3285,1.040,-0.470
3286,1.040,-0.480
3287,1.035,-0.450
3288,0.985,-0.375
3289,0.925,-0.325
3290,0.850,-0.270
3291,0.765,-0.215
3292,0.670,-0.180
3293,0.580,-0.160
3294,0.470,-0.165
3295,0.380,-0.185
3296,0.320,-0.210
3297,0.260,-0.220
3298,0.210,-0.240
3299,0.180,-0.255
3300,0.175,-0.245
3301,0.180,-0.260
3302,0.160,-0.270
3303,0.150,-0.295
3304,0.175,-0.285
3305,0.165,-0.295
3306,0.160,-0.310
3307,0.145,-0.340
3308,0.155,-0.315
3309,0.180,-0.320
3310,0.165,-0.320
3311,0.185,-0.350
3312,0.170,-0.340
3313,0.150,-0.350
3314,0.155,-0.345
3315,0.135,-0.355
3316,0.135,-0.360
3317,0.140,-0.350
3318,0.135,-0.345
3319,0.145,-0.365
3320,0.135,-0.360
3321,0.135,-0.345
3322,0.130,-0.340
3323,0.105,-0.355
3324,0.140,-0.370
3325,0.135,-0.350
3326,0.125,-0.335
3327,0.120,-0.335
3328,0.135,-0.315
3329,0.085,-0.320
3330,0.100,-0.325
3331,0.110,-0.345
3332,0.085,-0.335
3333,0.090,-0.320
3334,0.095,-0.340
3335,0.080,-0.325
3336,0.090,-0.325
3337,0.115,-0.325
3338,0.085,-0.270
3339,0.075,-0.215
3340,0.120,-0.160
3341,0.180,-0.130
3342,0.220,-0.110
3343,0.270,-0.135
3344,0.260,-0.180
3345,0.210,-0.235
3346,0.165,-0.255
3347,0.125,-0.290
3348,0.070,-0.380
3349,0.060,-0.410
3350,0.090,-0.385
3351,0.055,-0.395
3352,0.055,-0.395
3353,0.070,-0.405
3354,0.075,-0.395
3355,0.075,-0.385
3356,0.060,-0.395
3357,0.045,-0.385
3358,0.055,-0.370
3359,0.050,-0.355
3360,0.055,-0.320
3361,0.070,-0.175
3362,0.100,0.210
3363,0.225,0.925
3364,-0.025,1.480
3365,-0.940,2.020
3366,-2.145,2.245
3367,-2.640,2.045
3368,-2.410,1.645
3369,-2.100,1.320
3370,-1.855,1.330
3371,-1.650,1.845
3372,-1.400,1.775
3373,-1.155,0.615
3374,-0.895,-0.225
3375,-0.580,-0.530
3376,-0.255,-0.615
3377,0.070,-0.595
3378,0.340,-0.570
3379,0.485,-0.580
3380,0.545,-0.570
3381,0.570,-0.550
3382,0.615,-0.525
3383,0.615,-0.500
3384,0.645,-0.475
3385,0.670,-0.470
3386,0.675,-0.445
3387,0.700,-0.455
3388,0.695,-0.455
3389,0.760,-0.450
3390,0.825,-0.480
3391,0.850,-0.485
3392,0.885,-0.520
3393,0.935,-0.560
3394,0.965,-0.585
3395,1.030,-0.620
3396,1.065,-0.605
3397,1.065,-0.570
3398,1.025,-0.515
3399,0.985,-0.430
3400,0.905,-0.360
3401,0.815,-0.285
3402,0.715,-0.225
3403,0.615,-0.205
3404,0.495,-0.205
3405,0.410,-0.230
3406,0.320,-0.235
3407,0.255,-0.245
3408,0.220,-0.270
3409,0.205,-0.285
3410,0.170,-0.280
3411,0.155,-0.285
3412,0.145,-0.290
3413,0.150,-0.305
3414,0.145,-0.305
3415,0.140,-0.310
3416,0.120,-0.325
3417,0.145,-0.345
3418,0.165,-0.340
3419,0.155,-0.355
3420,0.160,-0.355
3421,0.145,-0.375
3422,0.140,-0.375
3423,0.135,-0.370
3424,0.140,-0.385
3425,0.135,-0.385
3426,0.125,-0.370
3427,0.130,-0.385
3428,0.130,-0.370
3429,0.120,-0.355
3430,0.120,-0.355
3431,0.115,-0.350
3432,0.100,-0.345
3433,0.075,-0.345
3434,0.085,-0.335
3435,0.100,-0.335
3436,0.090,-0.345
3437,0.095,-0.335
3438,0.090,-0.310
3439,0.080,-0.325
3440,0.100,-0.310
3441,0.085,-0.310
3442,0.075,-0.320
3443,0.095,-0.315
3444,0.090,-0.280
3445,0.095,-0.210
3446,0.090,-0.170
3447,0.155,-0.120
3448,0.180,-0.080
3449,0.230,-0.090
3450,0.215,-0.150
3451,0.175,-0.165
3452,0.125,-0.230
3453,0.070,-0.250
3454,0.030,-0.305
3455,0.025,-0.345
3456,0.020,-0.365
3457,0.020,-0.340
3458,0.000,-0.355
3459,0.005,-0.340
3460,0.005,-0.330
3461,0.000,-0.365
3462,0.010,-0.335
3463,0.020,-0.330
3464,0.000,-0.325
3465,-0.005,-0.325
3466,0.010,-0.235
3467,0.025,0.080
3468,0.135,0.735
3469,0.035,1.365
3470,-0.780,1.880
3471,-2.020,2.200
3472,-2.660,2.105
3473,-2.485,1.835
3474,-2.160,1.535
3475,-1.965,1.425
3476,-1.730,1.820
3477,-1.490,1.990
3478,-1.220,0.835
3479,-0.980,-0.145
3480,-0.695,-0.455
3481,-0.330,-0.560
3482,0.020,-0.560
3483,0.305,-0.545
3484,0.465,-0.555
3485,0.530,-0.525
3486,0.570,-0.530
3487,0.605,-0.480
3488,0.635,-0.485
3489,0.680,-0.480
3490,0.690,-0.455
3491,0.700,-0.440
3492,0.740,-0.440
3493,0.775,-0.430
3494,0.825,-0.465
3495,0.860,-0.455
3496,0.885,-0.485
3497,0.935,-0.550
3498,0.985,-0.585
3499,1.020,-0.595
3500,1.085,-0.610
3501,1.090,-0.620
3502,1.090,-0.605
3503,1.060,-0.520
3504,1.000,-0.450
3505,0.925,-0.375
3506,0.815,-0.285
3507,0.690,-0.230
3508,0.595,-0.195
3509,0.495,-0.175
3510,0.370,-0.215
3511,0.305,-0.220
3512,0.215,-0.235
3513,0.165,-0.240
3514,0.110,-0.250
3515,0.105,-0.275
3516,0.080,-0.270
3517,0.085,-0.300
3518,0.080,-0.310
3519,0.085,-0.295
3520,0.060,-0.320
3521,0.070,-0.325
3522,0.085,-0.315
3523,0.070,-0.325
3524,0.100,-0.340
3525,0.085,-0.320
3526,0.085,-0.330
3527,0.080,-0.340
3528,0.080,-0.335
3529,0.085,-0.320
3530,0.065,-0.345
3531,0.085,-0.315
3532,0.075,-0.335
3533,0.095,-0.330
3534,0.090,-0.320
3535,0.070,-0.300
3536,0.085,-0.295
3537,0.095,-0.275
3538,0.085,-0.275
3539,0.090,-0.280
3540,0.100,-0.320
3541,0.075,-0.280
3542,0.095,-0.280
3543,0.075,-0.280
3544,0.070,-0.275
3545,0.075,-0.285
3546,0.065,-0.235
3547,0.055,-0.165
3548,0.080,-0.125
3549,0.120,-0.080
3550,0.160,-0.045
3551,0.190,-0.050
3552,0.210,-0.125
3553,0.130,-0.160
3554,0.070,-0.190
3555,0.040,-0.205
3556,0.010,-0.285
3557,0.005,-0.335
3558,0.015,-0.330
3559,0.010,-0.325
3560,-0.010,-0.330
3561,0.010,-0.320
3562,0.000,-0.315
3563,0.000,-0.315
3564,0.005,-0.280
3565,0.000,-0.300
3566,0.000,-0.310
3567,0.010,-0.285
3568,0.005,-0.245
3569,0.000,-0.095
3570,0.030,0.315
3571,0.145,0.910
3572,-0.230,1.390
3573,-1.375,1.840
3574,-2.425,1.950
3575,-2.610,1.735
3576,-2.395,1.390
3577,-2.165,1.100
3578,-1.870,1.185
3579,-1.675,1.580
3580,-1.390,1.115
3581,-1.130,-0.055
3582,-0.885,-0.520
3583,-0.560,-0.545
3584,-0.225,-0.500
3585,0.100,-0.445
3586,0.350,-0.450
3587,0.460,-0.440
3588,0.510,-0.410
3589,0.560,-0.390
3590,0.565,-0.375
3591,0.605,-0.365
3592,0.615,-0.350
3593,0.625,-0.345
3594,0.665,-0.340
3595,0.695,-0.340
3596,0.710,-0.350
3597,0.770,-0.360
3598,0.805,-0.390
3599,0.845,-0.420
3600,0.890,-0.435
3601,0.945,-0.455
3602,0.980,-0.500
3603,1.015,-0.520
3604,1.015,-0.525
3605,1.005,-0.485
3606,0.985,-0.430
3607,0.930,-0.370
3608,0.845,-0.305
3609,0.735,-0.225
3610,0.650,-0.215
3611,0.530,-0.170
3612,0.420,-0.185
3613,0.315,-0.185
3614,0.215,-0.225
3615,0.145,-0.225
3616,0.095,-0.260
3617,0.065,-0.260
3618,0.030,-0.280
3619,0.020,-0.290
3620,0.040,-0.300
3621,0.015,-0.295
3622,0.025,-0.300
3623,0.020,-0.320
3624,0.025,-0.335
3625,0.015,-0.350
3626,0.005,-0.340
3627,0.020,-0.350
3628,0.025,-0.345
3629,0.015,-0.365
3630,0.010,-0.360
3631,0.035,-0.365
3632,0.030,-0.365
3633,0.030,-0.360
3634,0.025,-0.370
3635,0.015,-0.375
3636,0.015,-0.360
3637,0.030,-0.360
3638,0.015,-0.345
3639,0.015,-0.340
3640,0.005,-0.325
3641,0.005,-0.345
3642,0.005,-0.340
3643,0.010,-0.330
3644,-0.010,-0.315
3645,0.000,-0.320
3646,0.000,-0.315
3647,0.000,-0.325
3648,0.000,-0.290
3649,-0.005,-0.310
3650,0.010,-0.275
3651,-0.005,-0.180
3652,0.020,-0.165
3653,0.070,-0.125
3654,0.125,-0.075
3655,0.175,-0.075
3656,0.175,-0.140
3657,0.120,-0.160
3658,0.070,-0.210
3659,0.020,-0.205
3660,0.000,-0.270
3661,0.000,-0.340
3662,0.000,-0.340
3663,-0.025,-0.340
3664,-0.015,-0.350
3665,0.000,-0.345
3666,0.000,-0.335
3667,0.005,-0.335
3668,0.000,-0.340
3669,-0.015,-0.315
3670,-0.005,-0.320
3671,0.000,-0.330
3672,0.000,-0.285
3673,0.020,-0.195
3674,0.000,0.085
3675,0.105,0.600
3676,0.025,1.065
3677,-0.730,1.485
3678,-1.940,1.835
3679,-2.625,1.775
3680,-2.555,1.510
3681,-2.285,1.140
3682,-2.075,0.915
3683,-1.790,1.100
3684,-1.580,1.365
3685,-1.330,0.700
3686,-1.060,-0.285
3687,-0.780,-0.600
3688,-0.505,-0.595
3689,-0.170,-0.550
3690,0.110,-0.520
3691,0.335,-0.505
3692,0.465,-0.465
3693,0.475,-0.440
3694,0.520,-0.405
3695,0.535,-0.375
3696,0.555,-0.395
3697,0.580,-0.365
3698,0.600,-0.365
3699,0.620,-0.350
3700,0.645,-0.350
3701,0.690,-0.355
3702,0.730,-0.375
3703,0.760,-0.375
3704,0.805,-0.410
3705,0.855,-0.430
3706,0.920,-0.465
3707,0.985,-0.500
3708,1.015,-0.550
3709,1.035,-0.560
3710,1.030,-0.510
3711,1.005,-0.480
3712,0.930,-0.435
3713,0.870,-0.340
3714,0.775,-0.290
3715,0.675,-0.205
3716,0.575,-0.195
3717,0.505,-0.220
3718,0.385,-0.225
3719,0.315,-0.240
3720,0.225,-0.260
3721,0.190,-0.300
3722,0.150,-0.310
3723,0.120,-0.320
3724,0.105,-0.335
3725,0.105,-0.345
3726,0.080,-0.370
3727,0.105,-0.365
3728,0.090,-0.375
3729,0.080,-0.395
3730,0.100,-0.395
3731,0.115,-0.390
3732,0.120,-0.405
3733,0.125,-0.430
3734,0.140,-0.425
3735,0.120,-0.430
3736,0.125,-0.435
3737,0.125,-0.415
3738,0.145,-0.415
3739,0.115,-0.420
3740,0.125,-0.415
3741,0.110,-0.400
3742,0.100,-0.415
3743,0.105,-0.420
3744,0.100,-0.410
3745,0.105,-0.410
3746,0.095,-0.395
3747,0.090,-0.395
3748,0.080,-0.380
3749,0.095,-0.400
3750,0.080,-0.390
3751,0.085,-0.375
3752,0.075,-0.390
3753,0.090,-0.380
3754,0.065,-0.380
3755,0.055,-0.365
3756,0.065,-0.365
3757,0.075,-0.350
3758,0.065,-0.325
3759,0.070,-0.265
3760,0.070,-0.235
3761,0.140,-0.185
3762,0.180,-0.130
3763,0.240,-0.140
3764,0.265,-0.210
3765,0.210,-0.235
3766,0.145,-0.285
3767,0.135,-0.315
3768,0.060,-0.330
3769,0.050,-0.415
3770,0.050,-0.425
3771,0.055,-0.415
3772,0.055,-0.440
3773,0.045,-0.430
3774,0.050,-0.445
3775,0.035,-0.420
3776,0.045,-0.415
3777,0.055,-0.400
3778,0.050,-0.410
3779,0.060,-0.400
3780,0.045,-0.390
3781,0.065,-0.290
3782,0.060,-0.010
3783,0.170,0.595
3784,0.155,1.255
3785,-0.465,1.760
3786,-1.690,2.225
3787,-2.535,2.215
3788,-2.585,1.980
3789,-2.265,1.635
3790,-2.045,1.365
3791,-1.770,1.440
3792,-1.600,1.950
3793,-1.360,1.705
3794,-1.095,0.515
3795,-0.820,-0.270
3796,-0.480,-0.540
3797,-0.135,-0.645
3798,0.185,-0.610
3799,0.440,-0.605
3800,0.560,-0.610
3801,0.625,-0.580
3802,0.685,-0.575
3803,0.700,-0.530
3804,0.720,-0.540
3805,0.725,-0.500
3806,0.760,-0.455
3807,0.750,-0.465
3808,0.770,-0.455
3809,0.795,-0.435
3810,0.820,-0.445
3811,0.875,-0.475
3812,0.910,-0.475
3813,0.940,-0.510
3814,0.985,-0.545
3815,1.040,-0.570
3816,1.090,-0.595
3817,1.115,-0.620
3818,1.135,-0.625
3819,1.120,-0.580
3820,1.055,-0.530
3821,1.035,-0.450
3822,0.950,-0.375
3823,0.860,-0.295
3824,0.750,-0.250
3825,0.665,-0.235
3826,0.555,-0.230
3827,0.470,-0.245
3828,0.400,-0.265
3829,0.330,-0.280
3830,0.260,-0.280
3831,0.230,-0.290
3832,0.215,-0.305
3833,0.200,-0.325
3834,0.195,-0.325
3835,0.195,-0.340
3836,0.180,-0.345
3837,0.195,-0.335
3838,0.180,-0.365
3839,0.200,-0.355
3840,0.195,-0.390
3841,0.200,-0.390
3842,0.210,-0.395
3843,0.215,-0.395
3844,0.205,-0.420
3845,0.215,-0.410
3846,0.195,-0.405
3847,0.190,-0.410
3848,0.215,-0.425
3849,0.205,-0.410
3850,0.185,-0.415
3851,0.170,-0.400
3852,0.150,-0.420
3853,0.145,-0.400
3854,0.145,-0.400
3855,0.150,-0.405
3856,0.130,-0.395
3857,0.135,-0.385
3858,0.150,-0.385
3859,0.150,-0.385
3860,0.150,-0.365
3861,0.145,-0.375
3862,0.130,-0.355
3863,0.135,-0.345
3864,0.135,-0.350
3865,0.105,-0.340
3866,0.140,-0.290
3867,0.125,-0.235
3868,0.140,-0.205
3869,0.215,-0.150
3870,0.245,-0.105
3871,0.280,-0.115
3872,0.270,-0.170
3873,0.215,-0.185
3874,0.155,-0.250
3875,0.155,-0.255
3876,0.100,-0.325
3877,0.095,-0.405
3878,0.115,-0.410
3879,0.095,-0.400
3880,0.085,-0.425
3881,0.115,-0.410
3882,0.100,-0.430
3883,0.075,-0.390
3884,0.100,-0.405
3885,0.070,-0.395
3886,0.100,-0.415
3887,0.095,-0.380
3888,0.090,-0.355
3889,0.095,-0.285
3890,0.105,-0.070
3891,0.190,0.415
3892,0.215,1.070
3893,-0.365,1.560
3894,-1.540,2.015
3895,-2.455,2.035
3896,-2.485,1.825
3897,-2.210,1.480
3898,-1.970,1.235
3899,-1.710,1.335
3900,-1.530,1.845
3901,-1.300,1.505
3902,-1.020,0.285
3903,-0.775,-0.410
3904,-0.470,-0.625
3905,-0.130,-0.640
3906,0.200,-0.605
3907,0.430,-0.580
3908,0.565,-0.580
3909,0.615,-0.560
3910,0.660,-0.535
3911,0.690,-0.500
3912,0.710,-0.500
3913,0.745,-0.465
3914,0.765,-0.450
3915,0.795,-0.430
3916,0.840,-0.435
3917,0.840,-0.425
3918,0.905,-0.435
3919,0.940,-0.450
3920,1.005,-0.485
3921,1.055,-0.515
3922,1.110,-0.555
3923,1.145,-0.585
3924,1.185,-0.625
3925,1.180,-0.620
3926,1.180,-0.600
3927,1.140,-0.545
3928,1.085,-0.465
3929,1.000,-0.375
3930,0.925,-0.320
3931,0.805,-0.265
3932,0.700,-0.235
3933,0.590,-0.205
3934,0.500,-0.230
3935,0.440,-0.240
3936,0.370,-0.250
3937,0.290,-0.260
3938,0.285,-0.255
3939,0.270,-0.295
3940,0.240,-0.290
3941,0.230,-0.290
3942,0.225,-0.300
3943,0.215,-0.300
3944,0.220,-0.310
3945,0.205,-0.345
3946,0.230,-0.345
3947,0.240,-0.345
3948,0.245,-0.325
3949,0.240,-0.345
3950,0.215,-0.350
3951,0.215,-0.375
3952,0.230,-0.360
3953,0.230,-0.370
3954,0.205,-0.340
3955,0.200,-0.360
3956,0.175,-0.345
3957,0.170,-0.355
3958,0.175,-0.335
3959,0.165,-0.345
3960,0.155,-0.335
3961,0.155,-0.335
3962,0.160,-0.325
3963,0.135,-0.325
3964,0.165,-0.310
3965,0.140,-0.295
3966,0.125,-0.295
3967,0.130,-0.295
3968,0.150,-0.300
3969,0.140,-0.290
3970,0.130,-0.305
3971,0.150,-0.245
3972,0.150,-0.190
3973,0.175,-0.130
3974,0.240,-0.080
3975,0.280,-0.060
3976,0.305,-0.090
3977,0.300,-0.145
3978,0.230,-0.160
3979,0.170,-0.205
3980,0.125,-0.220
3981,0.090,-0.305
3982,0.075,-0.355
3983,0.075,-0.365
3984,0.065,-0.365
3985,0.045,-0.335
3986,0.065,-0.360
3987,0.070,-0.360
3988,0.060,-0.335
3989,0.055,-0.330
3990,0.070,-0.365
3991,0.095,-0.345
3992,0.080,-0.345
3993,0.090,-0.290
3994,0.095,-0.090
3995,0.140,0.365
3996,0.205,0.990
3997,-0.345,1.510
3998,-1.595,1.950
3999,-2.480,1.985
4000,-2.485,1.750
4001,-2.200,1.400
4002,-1.975,1.135
4003,-1.695,1.345
4004,-1.495,1.755
4005,-1.240,1.050
4006,-0.990,-0.130
4007,-0.705,-0.515
4008,-0.415,-0.555
4009,-0.070,-0.550
4010,0.265,-0.510
4011,0.470,-0.510
4012,0.545,-0.480
4013,0.620,-0.440
4014,0.645,-0.430
4015,0.665,-0.430
4016,0.675,-0.400
4017,0.685,-0.390
4018,0.720,-0.395
4019,0.740,-0.385
4020,0.800,-0.380
4021,0.815,-0.410
4022,0.845,-0.405
4023,0.870,-0.440
4024,0.935,-0.460
4025,0.995,-0.505
4026,1.035,-0.535
4027,1.100,-0.545
4028,1.095,-0.555
4029,1.100,-0.545
4030,1.065,-0.470
4031,1.010,-0.410
4032,0.945,-0.320
4033,0.835,-0.270
4034,0.740,-0.205
4035,0.625,-0.185
4036,0.520,-0.185
4037,0.430,-0.200
4038,0.345,-0.220
4039,0.275,-0.240
4040,0.220,-0.245
4041,0.190,-0.265
4042,0.170,-0.260
4043,0.160,-0.285
4044,0.175,-0.270
4045,0.170,-0.295
4046,0.150,-0.295
4047,0.150,-0.300
4048,0.150,-0.315
4049,0.175,-0.310
4050,0.170,-0.300
4051,0.175,-0.335
4052,0.165,-0.320
4053,0.170,-0.350
4054,0.150,-0.320
4055,0.170,-0.325
4056,0.170,-0.315
4057,0.145,-0.310
4058,0.165,-0.305
4059,0.155,-0.310
4060,0.150,-0.315
4061,0.130,-0.300
4062,0.115,-0.305
4063,0.125,-0.315
4064,0.115,-0.295
4065,0.120,-0.305
4066,0.090,-0.290
4067,0.090,-0.280
4068,0.085,-0.280
4069,0.085,-0.285
4070,0.080,-0.275
4071,0.075,-0.265
4072,0.090,-0.255
4073,0.085,-0.240
4074,0.090,-0.140
4075,0.110,-0.120
4076,0.155,-0.060
4077,0.215,-0.035
4078,0.230,-0.075
4079,0.205,-0.130
4080,0.125,-0.150
4081,0.075,-0.180
4082,0.045,-0.230
4083,-0.005,-0.305
4084,-0.005,-0.315
4085,-0.010,-0.310
4086,-0.010,-0.315
4087,-0.010,-0.310
4088,-0.005,-0.310
4089,-0.020,-0.300
4090,0.000,-0.295
4091,-0.005,-0.310
4092,-0.005,-0.295
4093,0.005,-0.290
4094,0.020,-0.245
4095,0.020,-0.085
4096,0.020,0.305
4097,0.160,0.870
4098,-0.270,1.275
4099,-1.440,1.735
4100,-2.450,1.815
4101,-2.590,1.565
4102,-2.320,1.195
4103,-2.100,0.890
4104,-1.835,0.995
4105,-1.595,1.360
4106,-1.340,0.725
4107,-1.080,-0.310
4108,-0.805,-0.545
4109,-0.490,-0.510
4110,-0.150,-0.460
4111,0.160,-0.430
4112,0.360,-0.405
4113,0.430,-0.395
4114,0.470,-0.375
4115,0.510,-0.360
4116,0.510,-0.345
4117,0.550,-0.330
4118,0.560,-0.310
4119,0.580,-0.320
4120,0.615,-0.315
4121,0.645,-0.320
4122,0.675,-0.340
4123,0.715,-0.350
4124,0.770,-0.335
4125,0.840,-0.375
4126,0.880,-0.400
4127,0.955,-0.445
4128,0.985,-0.450
4129,1.020,-0.440
4130,1.025,-0.420
4131,0.990,-0.390
4132,0.930,-0.325
4133,0.870,-0.250
4134,0.775,-0.195
4135,0.670,-0.145
4136,0.555,-0.125
4137,0.435,-0.150
4138,0.345,-0.160
4139,0.235,-0.195
4140,0.150,-0.195
4141,0.110,-0.230
4142,0.060,-0.220
4143,0.030,-0.240
4144,0.015,-0.245
4145,0.000,-0.265
4146,0.000,-0.280
4147,0.000,-0.285
4148,0.000,-0.275
4149,0.000,-0.290
4150,0.005,-0.285
4151,0.010,-0.295
4152,0.000,-0.310
4153,0.000,-0.300
4154,0.000,-0.315
4155,0.000,-0.295
4156,0.025,-0.300
4157,0.020,-0.290
4158,0.045,-0.305
4159,0.020,-0.325
4160,0.010,-0.315
4161,0.020,-0.295
4162,0.005,-0.290
4163,0.005,-0.290
4164,0.005,-0.295
4165,0.000,-0.280
4166,0.010,-0.275
4167,-0.005,-0.275
4168,-0.010,-0.270
4169,-0.010,-0.250
4170,-0.020,-0.250
4171,-0.020,-0.255
4172,0.000,-0.255
4173,-0.015,-0.245
4174,0.000,-0.215
4175,0.000,-0.115
4176,0.020,-0.085
4177,0.065,-0.020
4178,0.145,-0.020
4179,0.180,-0.040
4180,0.160,-0.115
4181,0.085,-0.120
4182,0.010,-0.165
4183,-0.015,-0.155
4184,-0.045,-0.250
4185,-0.065,-0.285
4186,-0.070,-0.310
4187,-0.080,-0.300
4188,-0.070,-0.300
4189,-0.085,-0.290
4190,-0.090,-0.285
4191,-0.085,-0.270
4192,-0.095,-0.285
4193,-0.095,-0.260
4194,-0.090,-0.275
4195,-0.095,-0.255
4196,-0.095,-0.225
4197,-0.075,-0.085
4198,-0.070,0.210
4199,0.035,0.725
4200,-0.125,1.150
4201,-1.030,1.550
4202,-2.235,1.800
4203,-2.695,1.615
4204,-2.600,1.250
4205,-2.420,0.895
4206,-2.245,0.755
4207,-2.010,1.090
4208,-1.800,1.175
4209,-1.535,0.210
4210,-1.255,-0.465
4211,-0.950,-0.535
4212,-0.595,-0.455
4213,-0.205,-0.405
4214,0.150,-0.350
4215,0.335,-0.350
4216,0.450,-0.325
4217,0.515,-0.305
4218,0.560,-0.285
4219,0.585,-0.280
4220,0.615,-0.270
4221,0.630,-0.260
4222,0.645,-0.250
4223,0.715,-0.265
4224,0.730,-0.260
4225,0.750,-0.275
4226,0.800,-0.280
4227,0.840,-0.300
4228,0.930,-0.330
4229,0.970,-0.345
4230,1.015,-0.380
4231,1.075,-0.380
4232,1.085,-0.385
4233,1.100,-0.380
4234,1.100,-0.365
4235,1.050,-0.300
4236,0.995,-0.240
4237,0.890,-0.170
4238,0.795,-0.145
4239,0.700,-0.100
4240,0.575,-0.085
4241,0.455,-0.120
4242,0.360,-0.120
4243,0.255,-0.165
4244,0.160,-0.180
4245,0.125,-0.200
4246,0.085,-0.205
4247,0.050,-0.220
4248,0.020,-0.215
4249,0.030,-0.235
4250,0.020,-0.240
4251,0.015,-0.260
4252,0.020,-0.255
4253,0.035,-0.270
4254,0.015,-0.260
4255,0.015,-0.290
4256,0.010,-0.295
4257,0.015,-0.285
4258,0.010,-0.295
4259,0.030,-0.300
4260,0.005,-0.300
4261,0.020,-0.305
4262,0.000,-0.315
4263,0.015,-0.305
4264,0.025,-0.305
4265,-0.005,-0.260
4266,0.020,-0.285
4267,0.000,-0.300
4268,0.000,-0.290
4269,-0.015,-0.290
4270,-0.025,-0.290
4271,-0.010,-0.260
4272,-0.020,-0.280
4273,-0.040,-0.265
4274,-0.025,-0.290
4275,-0.035,-0.280
4276,-0.025,-0.255
4277,-0.040,-0.260
4278,-0.025,-0.260
4279,-0.025,-0.245
4280,-0.015,-0.255
4281,-0.020,-0.235
4282,-0.020,-0.175
4283,-0.020,-0.140
4284,0.020,-0.090
4285,0.065,-0.055
4286,0.115,-0.035
4287,0.125,-0.110
4288,0.090,-0.125
4289,0.025,-0.190
4290,-0.010,-0.215
4291,-0.075,-0.235
4292,-0.095,-0.280
4293,-0.080,-0.310
4294,-0.110,-0.315
4295,-0.090,-0.305
4296,-0.105,-0.300
4297,-0.095,-0.315
4298,-0.075,-0.300
4299,-0.085,-0.295
4300,-0.090,-0.305
4301,-0.115,-0.285
4302,-0.100,-0.285
4303,-0.110,-0.260
4304,-0.090,-0.225
4305,-0.095,-0.025
4306,-0.055,0.375
4307,0.055,1.020
4308,-0.375,1.420
4309,-1.465,1.870
4310,-2.485,1.940
4311,-2.695,1.700
4312,-2.465,1.295
4313,-2.285,0.960
4314,-2.085,0.965
4315,-1.880,1.430
4316,-1.630,1.390
4317,-1.370,0.360
4318,-1.090,-0.305
4319,-0.775,-0.470
4320,-0.465,-0.500
4321,-0.100,-0.455
4322,0.170,-0.420
4323,0.350,-0.410
4324,0.430,-0.370
4325,0.490,-0.375
4326,0.550,-0.370
4327,0.550,-0.340
4328,0.565,-0.330
4329,0.615,-0.295
4330,0.625,-0.310
4331,0.675,-0.290
4332,0.685,-0.315
4333,0.710,-0.310
4334,0.755,-0.325
4335,0.805,-0.335
4336,0.870,-0.375
4337,0.910,-0.375
4338,0.960,-0.415
4339,0.990,-0.450
4340,1.010,-0.460
4341,1.030,-0.445
4342,1.035,-0.410
4343,0.970,-0.345
4344,0.925,-0.280
4345,0.870,-0.210
4346,0.760,-0.135
4347,0.650,-0.120
4348,0.545,-0.110
4349,0.445,-0.120
4350,0.345,-0.155
4351,0.270,-0.175
4352,0.210,-0.190
4353,0.170,-0.185
4354,0.120,-0.210
4355,0.100,-0.215
4356,0.115,-0.225
4357,0.110,-0.245
4358,0.090,-0.260
4359,0.095,-0.250
4360,0.075,-0.255
4361,0.075,-0.295
4362,0.085,-0.290
4363,0.090,-0.295
4364,0.095,-0.300
4365,0.105,-0.320
4366,0.095,-0.325
4367,0.110,-0.340
4368,0.105,-0.325
4369,0.090,-0.330
4370,0.100,-0.330
4371,0.095,-0.330
4372,0.075,-0.350
4373,0.085,-0.310
4374,0.065,-0.340
4375,0.055,-0.325
4376,0.055,-0.335
4377,0.060,-0.295
4378,0.010,-0.335
4379,0.035,-0.315
4380,0.035,-0.325
4381,0.025,-0.310
4382,0.015,-0.300
4383,0.030,-0.305
4384,0.035,-0.310
4385,0.025,-0.310
4386,0.015,-0.295
4387,0.050,-0.305
4388,0.030,-0.295
4389,0.025,-0.255
4390,0.030,-0.185
4391,0.060,-0.130
4392,0.120,-0.090
4393,0.195,-0.080
4394,0.215,-0.115
4395,0.205,-0.195
4396,0.120,-0.165
4397,0.085,-0.240
4398,0.050,-0.260
4399,0.005,-0.310
4400,0.000,-0.355
4401,0.025,-0.330
4402,0.005,-0.340
4403,0.005,-0.340
4404,0.000,-0.340
4405,-0.005,-0.350
4406,0.005,-0.355
4407,0.005,-0.340
4408,-0.005,-0.350
4409,-0.010,-0.335
4410,-0.010,-0.335
4411,0.000,-0.295
4412,0.000,-0.115
4413,0.045,0.310
4414,0.175,1.030
4415,-0.230,1.550
4416,-1.335,2.060
4417,-2.490,2.195
4418,-2.755,2.025
4419,-2.410,1.655
4420,-2.140,1.370
4421,-1.910,1.345
4422,-1.670,1.800
4423,-1.435,1.820
4424,-1.155,0.685
4425,-0.890,-0.165
4426,-0.595,-0.455
4427,-0.260,-0.555
4428,0.065,-0.550
4429,0.365,-0.535
4430,0.495,-0.540
4431,0.550,-0.530
4432,0.585,-0.510
4433,0.645,-0.490
4434,0.660,-0.470
4435,0.675,-0.465
4436,0.700,-0.430
4437,0.725,-0.425
4438,0.755,-0.405
4439,0.775,-0.400
4440,0.815,-0.410
4441,0.850,-0.420
4442,0.885,-0.455
4443,0.925,-0.470
4444,0.970,-0.505
4445,1.010,-0.540
4446,1.070,-0.550
4447,1.105,-0.570
4448,1.110,-0.580
4449,1.105,-0.550
4450,1.060,-0.485
4451,1.005,-0.410
4452,0.925,-0.340
4453,0.830,-0.245
4454,0.720,-0.210
4455,0.630,-0.180
4456,0.540,-0.155
4457,0.450,-0.165
4458,0.375,-0.205
4459,0.300,-0.210
4460,0.240,-0.235
4461,0.225,-0.275
4462,0.180,-0.250
4463,0.145,-0.270
4464,0.150,-0.280
4465,0.155,-0.285
4466,0.105,-0.280
4467,0.130,-0.290
4468,0.130,-0.300
4469,0.125,-0.325
4470,0.140,-0.325
4471,0.145,-0.340
4472,0.115,-0.330
4473,0.125,-0.355
4474,0.135,-0.345
4475,0.135,-0.375
4476,0.145,-0.330
4477,0.125,-0.340
4478,0.125,-0.340
4479,0.110,-0.350
4480,0.110,-0.340
4481,0.110,-0.330
4482,0.110,-0.315
4483,0.095,-0.320
4484,0.110,-0.310
4485,0.100,-0.300
4486,0.115,-0.295
4487,0.115,-0.310
4488,0.110,-0.320
4489,0.115,-0.285
4490,0.110,-0.300
4491,0.115,-0.275
4492,0.125,-0.290
4493,0.105,-0.290
4494,0.120,-0.245
4495,0.115,-0.175
4496,0.170,-0.130
4497,0.190,-0.065
4498,0.250,-0.040
4499,0.275,-0.060
4500,0.270,-0.155
4501,0.195,-0.150
4502,0.120,-0.205
4503,0.115,-0.225
4504,0.040,-0.300
4505,0.040,-0.355
4506,0.065,-0.375
4507,0.055,-0.370
4508,0.035,-0.390
4509,0.035,-0.370
4510,0.045,-0.375
4511,0.060,-0.385
4512,0.045,-0.390
4513,0.035,-0.380
4514,0.065,-0.355
4515,0.055,-0.350
4516,0.045,-0.325
4517,0.045,-0.230
4518,0.075,0.080
4519,0.215,0.655
4520,0.065,1.205
4521,-0.790,1.670
4522,-2.070,2.005
4523,-2.665,1.910
4524,-2.490,1.625
4525,-2.185,1.280
4526,-1.950,1.025
4527,-1.680,1.335
4528,-1.465,1.580
4529,-1.185,0.670
4530,-0.940,-0.350
4531,-0.660,-0.620
4532,-0.335,-0.625
4533,0.010,-0.570
4534,0.340,-0.515
4535,0.500,-0.525
4536,0.580,-0.500
4537,0.630,-0.465
4538,0.660,-0.440
4539,0.680,-0.435
4540,0.680,-0.425
4541,0.710,-0.395
4542,0.725,-0.400
4543,0.750,-0.395
4544,0.790,-0.400
4545,0.835,-0.415
4546,0.875,-0.445
4547,0.935,-0.485
4548,0.980,-0.490
4549,1.040,-0.530
4550,1.070,-0.570
4551,1.095,-0.575
4552,1.120,-0.595
4553,1.125,-0.565
4554,1.110,-0.525
4555,1.070,-0.455
4556,0.995,-0.370
4557,0.890,-0.285
4558,0.810,-0.235
4559,0.700,-0.210
4560,0.610,-0.205
4561,0.490,-0.210
4562,0.400,-0.240
4563,0.325,-0.240
4564,0.280,-0.240
4565,0.230,-0.280
4566,0.220,-0.275
4567,0.215,-0.285
4568,0.190,-0.280
4569,0.180,-0.305
4570,0.195,-0.320
4571,0.170,-0.320
4572,0.210,-0.320
4573,0.185,-0.345
4574,0.190,-0.345
4575,0.190,-0.360
4576,0.195,-0.355
4577,0.190,-0.365
4578,0.200,-0.350
4579,0.215,-0.385
4580,0.200,-0.355
4581,0.190,-0.370
4582,0.190,-0.370
4583,0.205,-0.375
4584,0.200,-0.370
4585,0.190,-0.370
4586,0.180,-0.350
4587,0.180,-0.375
4588,0.180,-0.350
4589,0.175,-0.345
4590,0.165,-0.345
4591,0.180,-0.340
4592,0.175,-0.340
4593,0.155,-0.315
4594,0.160,-0.325
4595,0.165,-0.320
4596,0.170,-0.330
4597,0.165,-0.310
4598,0.145,-0.250
4599,0.165,-0.185
4600,0.215,-0.145
4601,0.255,-0.085
4602,0.300,-0.070
4603,0.340,-0.120
4604,0.305,-0.185
4605,0.200,-0.205
4606,0.175,-0.255
4607,0.120,-0.275
4608,0.105,-0.365
4609,0.100,-0.380
4610,0.105,-0.390
4611,0.085,-0.380
4612,0.105,-0.380
4613,0.095,-0.370
4614,0.115,-0.390
4615,0.095,-0.375
4616,0.090,-0.380
4617,0.090,-0.375
4618,0.110,-0.360
4619,0.115,-0.320
4620,0.105,-0.195
4621,0.135,0.145
4622,0.270,0.695
4623,0.005,1.175
4624,-0.960,1.670
4625,-2.205,1.910
4626,-2.635,1.770
4627,-2.415,1.385
4628,-2.145,1.015
4629,-1.880,0.880
4630,-1.650,1.305
4631,-1.395,1.190
4632,-1.140,0.025
4633,-0.845,-0.575
4634,-0.545,-0.620
4635,-0.220,-0.575
4636,0.145,-0.505
4637,0.405,-0.515
4638,0.535,-0.495
4639,0.600,-0.480
4640,0.635,-0.450
4641,0.660,-0.420
4642,0.685,-0.400
4643,0.705,-0.400
4644,0.725,-0.390
4645,0.765,-0.380
4646,0.760,-0.380
4647,0.805,-0.395
4648,0.845,-0.405
4649,0.885,-0.440
4650,0.945,-0.435
4651,1.020,-0.475
4652,1.035,-0.505
4653,1.090,-0.520
4654,1.125,-0.525
4655,1.140,-0.540
4656,1.145,-0.535
4657,1.085,-0.465
4658,1.045,-0.380
4659,0.965,-0.315
4660,0.860,-0.240
4661,0.755,-0.215
4662,0.650,-0.200
4663,0.515,-0.205
4664,0.420,-0.220
4665,0.345,-0.245
4666,0.285,-0.265
4667,0.240,-0.245
4668,0.215,-0.275
4669,0.220,-0.285
4670,0.205,-0.300
4671,0.185,-0.305
4672,0.180,-0.315
4673,0.195,-0.315
4674,0.180,-0.330
4675,0.185,-0.355
4676,0.180,-0.360
4677,0.195,-0.355
4678,0.205,-0.350
4679,0.185,-0.350
4680,0.195,-0.365
4681,0.175,-0.360
4682,0.180,-0.380
4683,0.175,-0.380
4684,0.165,-0.380
4685,0.180,-0.365
4686,0.170,-0.350
4687,0.165,-0.350
4688,0.155,-0.360
4689,0.140,-0.350
4690,0.140,-0.340
4691,0.120,-0.360
4692,0.135,-0.330
4693,0.130,-0.315
4694,0.140,-0.300
4695,0.135,-0.315
4696,0.125,-0.325
4697,0.125,-0.305
4698,0.125,-0.305
4699,0.120,-0.310
4700,0.095,-0.285
4701,0.110,-0.290
4702,0.110,-0.240
4703,0.110,-0.180
4704,0.120,-0.150
4705,0.200,-0.110
4706,0.255,-0.070
4707,0.285,-0.080
4708,0.290,-0.155
4709,0.225,-0.185
4710,0.125,-0.215
4711,0.120,-0.235
4712,0.060,-0.280
4713,0.050,-0.360
4714,0.065,-0.355
4715,0.045,-0.330
4716,0.060,-0.350
4717,0.040,-0.345
4718,0.055,-0.340
4719,0.030,-0.315
4720,0.045,-0.350
4721,0.030,-0.330
4722,0.045,-0.320
4723,0.065,-0.325
4724,0.050,-0.300
4725,0.040,-0.160
4726,0.080,0.220
4727,0.200,0.920
4728,-0.110,1.430
4729,-1.170,1.945
4730,-2.320,2.120
4731,-2.650,1.935
4732,-2.330,1.600
4733,-2.040,1.290
4734,-1.790,1.190
4735,-1.610,1.615
4736,-1.360,1.810
4737,-1.115,0.740
4738,-0.840,-0.145
4739,-0.550,-0.450
4740,-0.240,-0.545
4741,0.095,-0.540
4742,0.325,-0.510
4743,0.480,-0.510
4744,0.555,-0.490
4745,0.595,-0.500
4746,0.635,-0.460
4747,0.660,-0.450
4748,0.685,-0.430
4749,0.685,-0.425
4750,0.705,-0.400
4751,0.730,-0.415
4752,0.755,-0.395
4753,0.790,-0.395
4754,0.830,-0.415
4755,0.880,-0.435
4756,0.915,-0.445
4757,0.970,-0.495
4758,1.005,-0.515
4759,1.050,-0.525
4760,1.065,-0.555
4761,1.065,-0.545
4762,1.040,-0.510
4763,0.985,-0.435
4764,0.920,-0.375
4765,0.835,-0.300
4766,0.750,-0.245
4767,0.660,-0.215
4768,0.570,-0.205
4769,0.475,-0.205
4770,0.375,-0.235
4771,0.295,-0.255
4772,0.235,-0.265
4773,0.185,-0.270
4774,0.155,-0.280
4775,0.140,-0.285
4776,0.130,-0.280
4777,0.125,-0.310
4778,0.115,-0.315
4779,0.140,-0.305
4780,0.130,-0.315
4781,0.135,-0.345
4782,0.125,-0.335
4783,0.150,-0.350
4784,0.135,-0.350
4785,0.145,-0.355
4786,0.135,-0.360
4787,0.125,-0.355
4788,0.130,-0.375
4789,0.135,-0.385
4790,0.135,-0.385
4791,0.125,-0.370
4792,0.125,-0.375
4793,0.130,-0.365
4794,0.115,-0.360
4795,0.110,-0.350
4796,0.110,-0.375
4797,0.115,-0.345
4798,0.105,-0.345
4799,0.105,-0.320
4800,0.110,-0.335
4801,0.100,-0.335
4802,0.105,-0.350
4803,0.095,-0.345
4804,0.080,-0.335
4805,0.070,-0.335
4806,0.085,-0.305
4807,0.085,-0.275
4808,0.100,-0.220
4809,0.115,-0.170
4810,0.150,-0.115
4811,0.205,-0.095
4812,0.235,-0.130
4813,0.215,-0.185
4814,0.140,-0.215
4815,0.105,-0.215
4816,0.055,-0.255
4817,0.030,-0.310
4818,0.020,-0.350
4819,0.025,-0.335
4820,0.020,-0.365
4821,0.020,-0.340
4822,0.010,-0.355
4823,0.030,-0.335
4824,0.020,-0.340
4825,0.030,-0.345
4826,0.040,-0.340
4827,0.045,-0.315
4828,0.025,-0.305
4829,0.035,-0.270
4830,0.045,-0.035
4831,0.125,0.370
4832,0.170,0.900
4833,-0.370,1.310
4834,-1.515,1.735
4835,-2.455,1.775
4836,-2.530,1.585
4837,-2.265,1.255
4838,-2.040,0.970
4839,-1.770,1.040
4840,-1.560,1.510
4841,-1.285,1.065
4842,-1.055,-0.085
4843,-0.815,-0.540
4844,-0.500,-0.535
4845,-0.175,-0.515
4846,0.135,-0.450
4847,0.360,-0.455
4848,0.495,-0.445
4849,0.525,-0.430
4850,0.595,-0.395
4851,0.615,-0.395
4852,0.620,-0.375
4853,0.645,-0.365
4854,0.675,-0.365
4855,0.690,-0.360
4856,0.710,-0.365
4857,0.755,-0.365
4858,0.785,-0.400
4859,0.860,-0.395
4860,0.880,-0.440
4861,0.945,-0.460
4862,0.985,-0.500
4863,1.015,-0.510
4864,1.025,-0.520
4865,1.035,-0.510
4866,1.030,-0.485
4867,0.990,-0.415
4868,0.915,-0.375
4869,0.825,-0.290
4870,0.745,-0.235
4871,0.660,-0.200
4872,0.555,-0.190
4873,0.425,-0.190
4874,0.345,-0.200
4875,0.250,-0.210
4876,0.180,-0.225
4877,0.165,-0.235
4878,0.115,-0.245
4879,0.100,-0.265
4880,0.090,-0.290
4881,0.090,-0.285
4882,0.070,-0.300
4883,0.080,-0.305
4884,0.070,-0.320
4885,0.055,-0.330
4886,0.060,-0.345
4887,0.050,-0.335
4888,0.045,-0.330
4889,0.040,-0.355
4890,0.055,-0.370
4891,0.040,-0.375
4892,0.035,-0.370
4893,0.035,-0.350
4894,0.045,-0.345
4895,0.035,-0.350
4896,0.045,-0.340
4897,0.035,-0.350
4898,0.020,-0.350
4899,0.020,-0.335
4900,0.010,-0.320
4901,0.020,-0.345
4902,0.000,-0.310
4903,0.000,-0.325
4904,0.000,-0.350
4905,0.000,-0.320
4906,0.000,-0.315
4907,-0.015,-0.315
4908,-0.010,-0.305
4909,0.000,-0.310
4910,-0.020,-0.290
4911,0.000,-0.220
4912,0.000,-0.165
4913,0.040,-0.120
4914,0.095,-0.095
4915,0.155,-0.090
4916,0.135,-0.165
4917,0.090,-0.195
4918,0.015,-0.240
4919,-0.025,-0.240
4920,-0.060,-0.295
4921,-0.070,-0.350
4922,-0.060,-0.380
4923,-0.060,-0.370
4924,-0.080,-0.365
4925,-0.075,-0.370
4926,-0.075,-0.365
4927,-0.065,-0.375
4928,-0.065,-0.370
4929,-0.060,-0.355
4930,-0.060,-0.355
4931,-0.085,-0.340
4932,-0.100,-0.285
4933,-0.095,-0.055
4934,-0.015,0.365
4935,0.025,0.885
4936,-0.570,1.260
4937,-1.815,1.670
4938,-2.685,1.670
4939,-2.685,1.420
4940,-2.395,1.055
4941,-2.170,0.760
4942,-1.880,0.910
4943,-1.705,1.285
4944,-1.435,0.605
4945,-1.185,-0.375
4946,-0.885,-0.600
4947,-0.565,-0.530
4948,-0.225,-0.505
4949,0.110,-0.445
4950,0.300,-0.445
4951,0.380,-0.415
4952,0.410,-0.395
4953,0.455,-0.385
4954,0.490,-0.360
4955,0.505,-0.355
4956,0.520,-0.350
4957,0.540,-0.340
4958,0.565,-0.330
4959,0.590,-0.325
4960,0.660,-0.335
4961,0.705,-0.355
4962,0.740,-0.375
4963,0.790,-0.395
4964,0.845,-0.420
4965,0.895,-0.450
4966,0.915,-0.470
4967,0.960,-0.490
4968,0.935,-0.450
4969,0.905,-0.435
4970,0.890,-0.365
4971,0.785,-0.305
4972,0.685,-0.225
4973,0.585,-0.165
4974,0.465,-0.155
4975,0.345,-0.160
4976,0.255,-0.170
4977,0.150,-0.210
4978,0.080,-0.215
4979,0.015,-0.215
4980,-0.025,-0.230
4981,-0.055,-0.260
4982,-0.060,-0.260
4983,-0.080,-0.265
4984,-0.090,-0.250
4985,-0.105,-0.270
4986,-0.100,-0.275
4987,-0.105,-0.300
4988,-0.115,-0.315
4989,-0.115,-0.325
4990,-0.130,-0.310
4991,-0.130,-0.325
4992,-0.105,-0.320
4993,-0.100,-0.340
4994,-0.145,-0.325
4995,-0.120,-0.325
4996,-0.130,-0.340
4997,-0.140,-0.320
4998,-0.150,-0.295
4999,-0.160,-0.315
5000,-0.155,-0.315
5001,-0.170,-0.330
5002,-0.185,-0.310
5003,-0.190,-0.310
5004,-0.200,-0.305
5005,-0.195,-0.315
5006,-0.200,-0.295
5007,-0.205,-0.290
5008,-0.215,-0.295
5009,-0.230,-0.295
5010,-0.230,-0.270
5011,-0.230,-0.290
5012,-0.250,-0.275
5013,-0.260,-0.265
5014,-0.260,-0.200
5015,-0.260,-0.180
5016,-0.210,-0.120
5017,-0.170,-0.090
5018,-0.125,-0.070
5019,-0.125,-0.155
5020,-0.185,-0.190
5021,-0.230,-0.220
5022,-0.290,-0.255
5023,-0.355,-0.270
5024,-0.355,-0.345
5025,-0.350,-0.355
5026,-0.355,-0.350
5027,-0.355,-0.365
5028,-0.370,-0.360
5029,-0.365,-0.360
5030,-0.355,-0.350
5031,-0.360,-0.355
5032,-0.365,-0.350
5033,-0.350,-0.350
5034,-0.360,-0.355
5035,-0.350,-0.320
5036,-0.360,-0.200
5037,-0.345,0.195
5038,-0.200,0.845
5039,-0.575,1.305
5040,-1.730,1.780
5041,-2.800,1.850
5042,-2.960,1.590
5043,-2.695,1.185
5044,-2.480,0.895
5045,-2.220,1.010
5046,-2.030,1.460
5047,-1.775,1.050
5048,-1.490,-0.070
5049,-1.220,-0.515
5050,-0.905,-0.570
5051,-0.580,-0.550
5052,-0.220,-0.485
5053,-0.035,-0.490
5054,0.065,-0.465
5055,0.095,-0.445
5056,0.165,-0.420
5057,0.175,-0.410
5058,0.175,-0.410
5059,0.210,-0.380
5060,0.210,-0.350
5061,0.235,-0.360
5062,0.270,-0.355
5063,0.325,-0.365
5064,0.350,-0.400
5065,0.395,-0.415
5066,0.455,-0.445
5067,0.475,-0.465
5068,0.545,-0.510
5069,0.575,-0.535
5070,0.585,-0.530
5071,0.585,-0.515
5072,0.560,-0.470
5073,0.475,-0.390
5074,0.390,-0.330
5075,0.310,-0.255
5076,0.215,-0.210
5077,0.110,-0.175
5078,0.040,-0.185
5079,-0.080,-0.215
5080,-0.145,-0.220
5081,-0.210,-0.245
5082,-0.275,-0.260
5083,-0.295,-0.250
5084,-0.315,-0.270
5085,-0.320,-0.285
5086,-0.340,-0.285
5087,-0.340,-0.280
5088,-0.365,-0.310
5089,-0.330,-0.280
5090,-0.350,-0.300
5091,-0.355,-0.335
5092,-0.345,-0.340
5093,-0.325,-0.310
5094,-0.315,-0.330
5095,-0.335,-0.360
5096,-0.330,-0.345
5097,-0.315,-0.365
5098,-0.330,-0.340
5099,-0.330,-0.345
5100,-0.325,-0.370
5101,-0.360,-0.360
5102,-0.365,-0.360
5103,-0.355,-0.355
5104,-0.360,-0.335
5105,-0.385,-0.360
5106,-0.375,-0.325
5107,-0.380,-0.335
5108,-0.385,-0.320
5109,-0.385,-0.335
5110,-0.390,-0.310
5111,-0.390,-0.320
5112,-0.395,-0.305
5113,-0.405,-0.310
5114,-0.395,-0.305
5115,-0.395,-0.295
5116,-0.410,-0.295
5117,-0.420,-0.290
5118,-0.415,-0.290
5119,-0.415,-0.175
5120,-0.380,-0.165
5121,-0.340,-0.105
5122,-0.280,-0.080
5123,-0.245,-0.105
5124,-0.265,-0.155
5125,-0.365,-0.205
5126,-0.390,-0.240
5127,-0.460,-0.250
5128,-0.490,-0.300
5129,-0.480,-0.340
5130,-0.490,-0.335
5131,-0.480,-0.350
5132,-0.480,-0.365
5133,-0.480,-0.370
5134,-0.480,-0.360
5135,-0.485,-0.345
5136,-0.490,-0.345
5137,-0.495,-0.340
5138,-0.500,-0.350
5139,-0.505,-0.345
5140,-0.505,-0.275
5141,-0.495,-0.035
5142,-0.395,0.495
5143,-0.425,1.215
5144,-1.125,1.765
5145,-2.415,2.260
5146,-3.120,2.255
5147,-3.000,2.000
5148,-2.665,1.620
5149,-2.415,1.385
5150,-2.165,1.580
5151,-1.975,2.030
5152,-1.735,1.440
5153,-1.490,0.265
5154,-1.220,-0.375
5155,-0.925,-0.575
5156,-0.605,-0.595
5157,-0.335,-0.580
5158,-0.155,-0.595
5159,-0.070,-0.590
5160,-0.035,-0.560
5161,0.000,-0.560
5162,0.035,-0.520
5163,0.045,-0.505
5164,0.050,-0.470
5165,0.070,-0.470
5166,0.105,-0.465
5167,0.130,-0.465
5168,0.165,-0.440
5169,0.190,-0.475
5170,0.250,-0.485
5171,0.275,-0.510
5172,0.315,-0.540
5173,0.385,-0.565
5174,0.420,-0.600
5175,0.420,-0.605
5176,0.440,-0.600
5177,0.415,-0.565
5178,0.365,-0.505
5179,0.315,-0.425
5180,0.240,-0.355
5181,0.155,-0.285
5182,0.040,-0.235
5183,-0.030,-0.230
5184,-0.120,-0.235
5185,-0.200,-0.255
5186,-0.265,-0.260
5187,-0.285,-0.265
5188,-0.355,-0.280
5189,-0.385,-0.290
5190,-0.405,-0.285
5191,-0.400,-0.330
5192,-0.385,-0.315
5193,-0.405,-0.325
5194,-0.410,-0.330
5195,-0.415,-0.335
5196,-0.390,-0.330
5197,-0.410,-0.340
5198,-0.405,-0.365
5199,-0.410,-0.350
5200,-0.415,-0.375
5201,-0.400,-0.360
5202,-0.410,-0.370
5203,-0.410,-0.375
5204,-0.395,-0.375
5205,-0.395,-0.370
5206,-0.410,-0.385
5207,-0.395,-0.370
5208,-0.425,-0.370
5209,-0.400,-0.345
5210,-0.400,-0.350
5211,-0.410,-0.330
5212,-0.445,-0.330
5213,-0.435,-0.325
5214,-0.415,-0.330
5215,-0.440,-0.320
5216,-0.445,-0.305
5217,-0.435,-0.285
5218,-0.430,-0.290
5219,-0.440,-0.285
5220,-0.430,-0.290
5221,-0.445,-0.285
5222,-0.450,-0.270
5223,-0.440,-0.245
5224,-0.445,-0.170
5225,-0.395,-0.115
5226,-0.355,-0.065
5227,-0.330,-0.065
5228,-0.280,-0.075
5229,-0.290,-0.150
5230,-0.370,-0.140
5231,-0.410,-0.215
5232,-0.440,-0.210
5233,-0.480,-0.290
5234,-0.465,-0.325
5235,-0.470,-0.335
5236,-0.490,-0.330
5237,-0.475,-0.335
5238,-0.515,-0.330
5239,-0.495,-0.320
5240,-0.515,-0.320
5241,-0.495,-0.315
5242,-0.500,-0.325
5243,-0.505,-0.315
5244,-0.495,-0.295
5245,-0.505,-0.280
5246,-0.495,-0.095
5247,-0.445,0.250
5248,-0.320,0.850
5249,-0.710,1.295
5250,-1.790,1.750
5251,-2.855,1.960
5252,-3.075,1.815
5253,-2.820,1.515
5254,-2.555,1.200
5255,-2.290,1.110
5256,-2.075,1.490
5257,-1.825,1.490
5258,-1.615,0.415
5259,-1.380,-0.360
5260,-1.095,-0.520
5261,-0.800,-0.530
5262,-0.485,-0.490
5263,-0.215,-0.460
5264,-0.080,-0.445
5265,-0.010,-0.425
5266,0.010,-0.395
5267,0.060,-0.415
5268,0.070,-0.415
5269,0.075,-0.390
5270,0.115,-0.340
5271,0.140,-0.375
5272,0.140,-0.370
5273,0.170,-0.405
5274,0.230,-0.400
5275,0.245,-0.415
5276,0.285,-0.435
5277,0.330,-0.470
5278,0.365,-0.495
5279,0.420,-0.525
5280,0.475,-0.550
5281,0.490,-0.560
5282,0.535,-0.570
5283,0.500,-0.565
5284,0.520,-0.485
5285,0.450,-0.395
5286,0.365,-0.345
5287,0.200,-0.255
5288,0.165,-0.210
5289,0.040,-0.180
5290,-0.125,-0.220
5291,-0.370,-0.190
5292,-0.510,-0.220
5293,-0.630,-0.275
5294,-0.815,-0.280
5295,-0.935,-0.295
5296,-1.025,-0.305
5297,-1.200,-0.310
5298,-1.295,-0.305
5299,-1.355,-0.305
5300,-1.405,-0.290
5301,-1.430,-0.290
5302,-1.450,-0.300
5303,-1.450,-0.405
5304,-1.485,-0.375
5305,-1.460,-0.380
5306,-1.435,-0.370
5307,-1.410,-0.395
5308,-1.390,-0.370
5309,-1.375,-0.400
5310,-1.410,-0.395
5311,-1.370,-0.385
5312,-1.405,-0.365
5313,-1.400,-0.370
5314,-1.440,-0.370
5315,-1.465,-0.310
5316,-1.445,-0.385
5317,-1.405,-0.380
5318,-1.435,-0.375
5319,-1.460,-0.350
5320,-1.445,-0.345
5321,-1.445,-0.330
5322,-1.420,-0.350
5323,-1.435,-0.335
5324,-1.515,-0.345
5325,-1.500,-0.330
5326,-1.475,-0.310
5327,-1.475,-0.315
5328,-1.455,-0.330
5329,-1.470,-0.320
5330,-1.465,-0.310
5331,-1.480,-0.235
5332,-1.465,-0.200
5333,-1.410,-0.170
5334,-1.370,-0.100
5335,-1.335,-0.080
5336,-1.320,-0.135
5337,-1.345,-0.175
5338,-1.415,-0.195
5339,-1.385,-0.235
5340,-1.435,-0.240
5341,-1.485,-0.325
5342,-1.480,-0.355
5343,-1.455,-0.340
5344,-1.485,-0.330
5345,-1.460,-0.340
5346,-1.445,-0.330
5347,-1.445,-0.325
5348,-1.425,-0.340
5349,-1.440,-0.320
5350,-1.395,-0.335
5351,-1.405,-0.310
5352,-1.385,-0.320
5353,-1.375,-0.275
5354,-1.370,-0.145
5355,-1.330,0.175
5356,-1.210,0.685
5357,-1.455,1.070
5358,-2.355,1.480
5359,-3.180,1.710
5360,-3.365,1.555
5361,-3.275,1.245
5362,-3.175,0.915
5363,-3.005,0.705
5364,-2.835,0.970
5365,-2.660,1.260
5366,-2.445,0.590
5367,-2.230,-0.315
5368,-1.995,-0.565
5369,-1.710,-0.505
5370,-1.395,-0.455
5371,-1.125,-0.410
5372,-0.975,-0.410
5373,-0.890,-0.370
5374,-0.865,-0.365
5375,-0.785,-0.340
5376,-0.775,-0.330
5377,-0.770,-0.315
5378,-0.700,-0.305
5379,-0.705,-0.290
5380,-0.675,-0.305
5381,-0.645,-0.295
5382,-0.585,-0.290
5383,-0.525,-0.330
5384,-0.450,-0.335
5385,-0.390,-0.350
5386,-0.270,-0.380
5387,0.640,-0.400
5388,2.035,-0.415
5389,2.170,-0.430
5390,2.230,-0.445
5391,2.260,-0.425
5392,2.225,-0.395
5393,2.185,-0.350
5394,2.105,-0.300
5395,2.045,-0.240
5396,1.980,-0.185
5397,1.915,-0.165
5398,1.805,-0.170
5399,1.765,-0.185
5400,1.695,-0.190
5401,1.615,-0.225
5402,1.600,-0.240
5403,1.530,-0.245
5404,1.515,-0.275
5405,1.490,-0.290
5406,1.500,-0.275
5407,1.475,-0.285
5408,1.455,-0.290
5409,1.460,-0.305
5410,1.450,-0.300
5411,1.440,-0.340
5412,1.445,-0.325
5413,1.445,-0.335
5414,1.440,-0.370
5415,1.415,-0.375
5416,1.420,-0.340
5417,1.440,-0.335
5418,1.455,-0.360
5419,1.440,-0.365
5420,1.455,-0.375
5421,1.440,-0.365
5422,1.435,-0.365
5423,1.450,-0.365
5424,1.440,-0.365
5425,1.425,-0.340
5426,1.410,-0.330
5427,1.415,-0.315
5428,1.390,-0.355
5429,1.400,-0.340
5430,1.395,-0.350
5431,1.395,-0.325
5432,1.395,-0.330
5433,1.405,-0.330
5434,1.400,-0.330
5435,1.420,-0.305
5436,1.415,-0.320
5437,1.425,-0.335
5438,1.435,-0.300
5439,1.415,-0.295
5440,1.435,-0.250
5441,1.435,-0.175
5442,1.495,-0.175
5443,1.505,-0.080
5444,1.550,-0.105
5445,1.560,-0.185
5446,1.490,-0.215
5447,1.475,-0.245
5448,1.510,-0.260
5449,1.495,-0.300
5450,1.500,-0.340
5451,1.535,-0.375
5452,1.490,-0.370
5453,1.485,-0.380
5454,1.500,-0.360
5455,1.500,-0.350
5456,1.515,-0.370
5457,1.515,-0.360
5458,1.530,-0.365
5459,1.510,-0.360
5460,1.525,-0.330
5461,1.540,-0.330
5462,1.530,-0.175
5463,1.570,0.180
5464,1.685,0.800
5465,1.365,1.255
5466,0.430,1.755
5467,-0.660,2.000
5468,-0.980,1.785
5469,-0.735,1.405
5470,-0.510,1.095
5471,-0.270,0.985
5472,-0.090,1.370
5473,0.145,1.510
5474,0.410,0.540
5475,0.670,-0.280
5476,0.935,-0.530
5477,1.210,-0.560
5478,1.500,-0.525
5479,1.715,-0.475
5480,1.820,-0.475
5481,1.820,-0.440
5482,1.890,-0.435
5483,1.885,-0.405
5484,1.915,-0.420
5485,1.920,-0.340
5486,1.915,-0.340
5487,1.930,-0.315
5488,1.970,-0.325
5489,1.985,-0.320
5490,1.980,-0.330
5491,2.020,-0.340
5492,2.065,-0.380
5493,2.085,-0.410
5494,2.125,-0.445
5495,2.195,-0.465
5496,2.215,-0.495
5497,2.240,-0.485
5498,2.225,-0.520
5499,2.220,-0.455
5500,2.170,-0.390
5501,2.120,-0.315
5502,2.045,-0.250
5503,2.005,-0.175
5504,1.900,-0.175
5505,1.820,-0.160
5506,1.760,-0.195
5507,1.695,-0.195
5508,1.640,-0.215
5509,1.605,-0.255
5510,1.575,-0.285
5511,1.565,-0.260
5512,1.550,-0.280
5513,1.560,-0.295
5514,1.585,-0.290
5515,1.570,-0.285
5516,1.560,-0.320
5517,1.570,-0.305
5518,1.590,-0.310
5519,1.590,-0.310
5520,1.590,-0.340
5521,1.595,-0.315
5522,1.585,-0.340
5523,1.600,-0.355
5524,1.595,-0.360
5525,1.605,-0.350
5526,1.590,-0.360
5527,1.600,-0.375
5528,1.590,-0.355
5529,1.605,-0.380
5530,1.585,-0.365
5531,1.590,-0.370
5532,1.560,-0.370
5533,1.555,-0.370
5534,1.575,-0.335
5535,1.580,-0.330
5536,1.540,-0.345
5537,1.550,-0.345
5538,1.550,-0.340
5539,1.560,-0.335
5540,1.550,-0.335
5541,1.555,-0.330
5542,1.545,-0.355
5543,1.550,-0.325
5544,1.540,-0.320
5545,1.565,-0.315
5546,1.575,-0.250
5547,1.585,-0.195
5548,1.630,-0.160
5549,1.640,-0.115
5550,1.675,-0.130
5551,1.695,-0.195
5552,1.610,-0.220
5553,1.565,-0.265
5554,1.530,-0.285
5555,1.495,-0.350
5556,1.475,-0.390
5557,1.465,-0.375
5558,1.470,-0.385
5559,1.465,-0.385
5560,1.450,-0.385
5561,1.470,-0.375
5562,1.460,-0.380
5563,1.460,-0.390
5564,1.455,-0.385
5565,1.440,-0.350
5566,1.435,-0.340
5567,1.430,-0.260
5568,1.450,0.035
5569,1.585,0.750
5570,1.340,1.355
5571,0.435,1.935
5572,-0.695,2.230
5573,-1.010,2.115
5574,-0.730,1.750
5575,-0.445,1.425
5576,-0.210,1.425
5577,0.000,1.905
5578,0.225,1.745
5579,0.460,0.525
5580,0.715,-0.250
5581,0.955,-0.550
5582,1.250,-0.615
5583,1.505,-0.600
5584,1.655,-0.600
5585,1.715,-0.570
5586,1.725,-0.555
5587,1.770,-0.535
5588,1.790,-0.525
5589,1.795,-0.490
5590,1.795,-0.495
5591,1.840,-0.475
5592,1.840,-0.455
5593,1.870,-0.445
5594,1.880,-0.445
5595,1.885,-0.460
5596,1.950,-0.495
5597,1.985,-0.520
5598,1.995,-0.535
5599,2.055,-0.580
5600,2.070,-0.595
5601,2.100,-0.600
5602,2.070,-0.580
5603,2.030,-0.550
5604,1.990,-0.460
5605,1.925,-0.370
5606,1.870,-0.305
5607,1.780,-0.240
5608,1.700,-0.220
5609,1.585,-0.210
5610,1.530,-0.225
5611,1.460,-0.230
5612,1.425,-0.255
5613,1.385,-0.260
5614,1.325,-0.260
5615,1.325,-0.285
5616,1.305,-0.295
5617,1.305,-0.300
5618,1.300,-0.305
5619,1.290,-0.315
5620,1.295,-0.325
5621,1.290,-0.310
5622,1.280,-0.340
5623,1.280,-0.345
5624,1.270,-0.360
5625,1.285,-0.345
5626,1.260,-0.365
5627,1.265,-0.360
5628,1.245,-0.360
5629,1.240,-0.365
5630,1.240,-0.355
5631,1.235,-0.355
5632,1.245,-0.330
5633,1.235,-0.345
5634,1.220,-0.335
5635,1.200,-0.325
5636,1.200,-0.325
5637,1.185,-0.330
5638,1.180,-0.330
5639,1.175,-0.300
5640,1.195,-0.300
5641,1.190,-0.295
5642,1.210,-0.310
5643,1.200,-0.315
5644,1.195,-0.295
5645,1.180,-0.285
5646,1.170,-0.290
5647,1.175,-0.255
5648,1.175,-0.200
5649,1.200,-0.155
5650,1.250,-0.095
5651,1.275,-0.045
5652,1.285,-0.080
5653,1.275,-0.145
5654,1.205,-0.170
5655,1.175,-0.215
5656,1.135,-0.210
5657,1.085,-0.315
5658,1.105,-0.350
5659,1.085,-0.350
5660,1.075,-0.340
5661,1.065,-0.350
5662,1.055,-0.355
5663,1.065,-0.335
5664,1.065,-0.345
5665,1.055,-0.350
5666,1.035,-0.340
5667,1.035,-0.330
5668,1.025,-0.335
5669,1.015,-0.255
5670,1.005,-0.020
5671,1.085,0.405
5672,1.060,0.980
5673,0.425,1.395
5674,-0.745,1.825
5675,-1.460,1.875
5676,-1.395,1.655
5677,-1.070,1.330
5678,-0.895,1.065
5679,-0.625,1.155
5680,-0.430,1.595
5681,-0.190,1.060
5682,0.035,-0.075
5683,0.290,-0.470
5684,0.570,-0.510
5685,0.890,-0.510
5686,1.135,-0.470
5687,1.290,-0.470
5688,1.335,-0.455
5689,1.365,-0.435
5690,1.355,-0.425
5691,1.390,-0.400
5692,1.390,-0.375
5693,1.390,-0.380
5694,1.395,-0.365
5695,1.400,-0.380
5696,1.430,-0.385
5697,1.430,-0.385
5698,1.490,-0.390
5699,1.505,-0.410
5700,1.555,-0.445
5701,1.580,-0.465
5702,1.605,-0.500
5703,1.640,-0.510
5704,1.670,-0.530
5705,1.665,-0.530
5706,1.635,-0.500
5707,1.615,-0.445
5708,1.525,-0.365
5709,1.465,-0.315
5710,1.380,-0.250
5711,1.295,-0.220
5712,1.230,-0.180
5713,1.130,-0.195
5714,1.055,-0.180
5715,0.995,-0.245
5716,0.930,-0.220
5717,0.895,-0.255
5718,0.865,-0.260
5719,0.855,-0.260
5720,0.845,-0.255
5721,0.850,-0.295
5722,0.830,-0.275
5723,0.850,-0.290
5724,0.835,-0.305
5725,0.815,-0.320
5726,0.815,-0.330
5727,0.805,-0.320
5728,0.790,-0.315
5729,0.795,-0.315
5730,0.790,-0.315
5731,0.785,-0.305
5732,0.765,-0.320
5733,0.770,-0.320
5734,0.765,-0.320
5735,0.750,-0.315
5736,0.760,-0.305
5737,0.740,-0.310
5738,0.745,-0.315
5739,0.735,-0.285
5740,0.730,-0.300
5741,0.740,-0.305
5742,0.705,-0.305
5743,0.700,-0.265
5744,0.680,-0.285
5745,0.685,-0.275
5746,0.665,-0.285
5747,0.655,-0.270
5748,0.650,-0.285
5749,0.650,-0.265
5750,0.630,-0.270
5751,0.640,-0.260
5752,0.630,-0.255
5753,0.625,-0.190
5754,0.620,-0.135
5755,0.645,-0.085
5756,0.670,-0.070
5757,0.700,-0.030
5758,0.715,-0.095
5759,0.665,-0.130
5760,0.585,-0.155
5761,0.560,-0.190
5762,0.495,-0.225
5763,0.475,-0.310
5764,0.475,-0.315
5765,0.465,-0.310
5766,0.450,-0.315
5767,0.435,-0.305
5768,0.430,-0.290
5769,0.420,-0.300
5770,0.415,-0.285
5771,0.410,-0.300
5772,0.410,-0.285
5773,0.390,-0.290
5774,0.415,-0.275
5775,0.390,-0.235
5776,0.390,-0.020
5777,0.430,0.335
5778,0.485,0.890
5779,0.010,1.250
5780,-1.125,1.695
5781,-2.035,1.775
5782,-2.100,1.590
5783,-1.835,1.230
5784,-1.650,0.910
5785,-1.395,0.880
5786,-1.195,1.255
5787,-0.970,1.095
5788,-0.745,0.075
5789,-0.510,-0.500
5790,-0.265,-0.540
5791,0.005,-0.500
5792,0.280,-0.445
5793,0.495,-0.420
5794,0.575,-0.400
5795,0.625,-0.380
5796,0.625,-0.370
5797,0.640,-0.350
5798,0.655,-0.335
5799,0.655,-0.325
5800,0.645,-0.340
5801,0.675,-0.320
5802,0.675,-0.310
5803,0.690,-0.330
5804,0.710,-0.330
5805,0.745,-0.355
5806,0.780,-0.360
5807,0.805,-0.390
5808,0.840,-0.415
5809,0.865,-0.430
5810,0.905,-0.455
5811,0.930,-0.470
5812,0.935,-0.475
5813,0.890,-0.450
5814,0.865,-0.385
5815,0.815,-0.320
5816,0.745,-0.260
5817,0.685,-0.220
5818,0.590,-0.175
5819,0.515,-0.165
5820,0.420,-0.175
5821,0.345,-0.190
5822,0.265,-0.220
5823,0.220,-0.235
5824,0.180,-0.265
5825,0.185,-0.250
5826,0.145,-0.255
5827,0.135,-0.280
5828,0.135,-0.285
5829,0.130,-0.295
5830,0.120,-0.310
5831,0.120,-0.295
5832,0.115,-0.320
5833,0.110,-0.330
5834,0.115,-0.335
5835,0.095,-0.335
5836,0.090,-0.330
5837,0.095,-0.330
5838,0.095,-0.340
5839,0.080,-0.330
5840,0.070,-0.335
5841,0.095,-0.335
5842,0.065,-0.340
5843,0.055,-0.335
5844,0.060,-0.340
5845,0.060,-0.315
5846,0.050,-0.325
5847,0.035,-0.315
5848,0.030,-0.310
5849,0.030,-0.325
5850,0.000,-0.295
5851,0.000,-0.315
5852,0.015,-0.310
5853,0.000,-0.315
5854,0.000,-0.300
5855,0.000,-0.290
5856,-0.005,-0.285
5857,-0.030,-0.290
5858,-0.005,-0.290
5859,0.000,-0.280
5860,-0.020,-0.290
5861,-0.010,-0.280
5862,-0.010,-0.260
5863,-0.015,-0.235
5864,-0.010,-0.160
5865,0.000,-0.125
5866,0.050,-0.075
5867,0.050,-0.060
5868,0.110,-0.060
5869,0.080,-0.135
5870,0.005,-0.145
5871,-0.025,-0.195
5872,-0.025,-0.210
5873,-0.085,-0.275
5874,-0.065,-0.325
5875,-0.085,-0.315
5876,-0.070,-0.340
5877,-0.100,-0.330
5878,-0.120,-0.335
5879,-0.090,-0.320
5880,-0.100,-0.330
5881,-0.090,-0.315
5882,-0.090,-0.330
5883,-0.120,-0.310
5884,-0.145,-0.330
5885,-0.110,-0.295
5886,-0.130,-0.190
5887,-0.120,0.150
5888,-0.025,0.675
5889,-0.215,1.115
5890,-1.065,1.505
5891,-2.190,1.795
5892,-2.700,1.675
5893,-2.520,1.370
5894,-2.270,1.015
5895,-2.060,0.785
5896,-1.850,0.995
5897,-1.660,1.345
5898,-1.430,0.785
5899,-1.185,-0.195
5900,-0.910,-0.550
5901,-0.625,-0.565
5902,-0.330,-0.540
5903,-0.085,-0.445
5904,0.095,-0.425
5905,0.170,-0.430
5906,0.220,-0.410
5907,0.235,-0.380
5908,0.255,-0.355
5909,0.250,-0.335
5910,0.285,-0.335
5911,0.265,-0.350
5912,0.270,-0.325
5913,0.305,-0.330
5914,0.345,-0.335
5915,0.350,-0.310
5916,0.405,-0.350
5917,0.435,-0.365
5918,0.445,-0.410
5919,0.520,-0.435
5920,0.540,-0.455
5921,0.555,-0.475
5922,0.580,-0.505
5923,0.565,-0.490
5924,0.565,-0.460
5925,0.530,-0.425
5926,0.465,-0.355
5927,0.390,-0.300
5928,0.330,-0.225
5929,0.255,-0.205
5930,0.160,-0.185
5931,0.085,-0.200
5932,0.030,-0.200
5933,-0.035,-0.235
5934,-0.105,-0.240
5935,-0.155,-0.260
5936,-0.165,-0.270
5937,-0.195,-0.295
5938,-0.200,-0.310
5939,-0.200,-0.310
5940,-0.190,-0.330
5941,-0.175,-0.320
5942,-0.210,-0.340
5943,-0.215,-0.335
5944,-0.200,-0.325
5945,-0.205,-0.355
5946,-0.180,-0.390
5947,-0.205,-0.365
5948,-0.200,-0.375
5949,-0.225,-0.360
5950,-0.220,-0.365
5951,-0.195,-0.355
5952,-0.205,-0.400
5953,-0.220,-0.375
5954,-0.230,-0.385
5955,-0.230,-0.380
5956,-0.245,-0.365
5957,-0.240,-0.380
5958,-0.260,-0.375
5959,-0.270,-0.370
5960,-0.255,-0.370
5961,-0.265,-0.370
5962,-0.275,-0.375
5963,-0.275,-0.360
5964,-0.290,-0.355
5965,-0.280,-0.380
5966,-0.290,-0.360
5967,-0.285,-0.350
5968,-0.290,-0.335
5969,-0.280,-0.350
5970,-0.290,-0.340
5971,-0.290,-0.370
5972,-0.305,-0.340
5973,-0.335,-0.345
5974,-0.310,-0.330
5975,-0.295,-0.330
5976,-0.315,-0.290
5977,-0.300,-0.215
5978,-0.255,-0.175
5979,-0.225,-0.135
5980,-0.210,-0.130
5981,-0.160,-0.165
5982,-0.180,-0.225
5983,-0.240,-0.210
5984,-0.290,-0.280
5985,-0.320,-0.280
5986,-0.355,-0.330
5987,-0.325,-0.390
5988,-0.335,-0.380
5989,-0.345,-0.380
5990,-0.340,-0.370
5991,-0.345,-0.385
5992,-0.345,-0.400
5993,-0.355,-0.380
5994,-0.350,-0.335
5995,-0.365,-0.375
5996,-0.340,-0.365
5997,-0.335,-0.355
5998,-0.340,-0.340
5999,-0.355,-0.250
6000,-0.330,0.005
6001,-0.210,0.610
6002,-0.360,1.240
6003,-1.150,1.750
6004,-2.325,2.130
6005,-2.925,2.045
6006,-2.710,1.715
6007,-2.400,1.360
6008,-2.175,1.200
6009,-1.965,1.530
6010,-1.790,1.865
6011,-1.560,1.130
6012,-1.300,0.045
6013,-1.030,-0.425
6014,-0.715,-0.615
6015,-0.410,-0.620
6016,-0.200,-0.590
6017,-0.035,-0.570
6018,0.015,-0.565
6019,0.055,-0.535
6020,0.080,-0.540
6021,0.095,-0.505
6022,0.095,-0.505
6023,0.110,-0.470
6024,0.125,-0.450
6025,0.150,-0.450
6026,0.160,-0.430
6027,0.175,-0.430
6028,0.210,-0.430
6029,0.240,-0.465
6030,0.270,-0.500
6031,0.305,-0.520
6032,0.355,-0.535
6033,0.425,-0.575
6034,0.440,-0.595
6035,0.465,-0.600
6036,0.445,-0.565
6037,0.425,-0.535
6038,0.370,-0.460
6039,0.295,-0.415
6040,0.235,-0.320
6041,0.165,-0.295
6042,0.080,-0.245
6043,0.010,-0.240
6044,-0.050,-0.260
6045,-0.120,-0.290
6046,-0.185,-0.320
6047,-0.225,-0.330
6048,-0.245,-0.325
6049,-0.270,-0.345
6050,-0.285,-0.345
6051,-0.295,-0.345
6052,-0.285,-0.360
6053,-0.315,-0.375
6054,-0.295,-0.390
6055,-0.320,-0.395
6056,-0.330,-0.435
6057,-0.310,-0.430
6058,-0.280,-0.425
6059,-0.290,-0.450
6060,-0.300,-0.440
6061,-0.310,-0.455
6062,-0.295,-0.465
6063,-0.305,-0.475
6064,-0.315,-0.470
6065,-0.320,-0.450
6066,-0.340,-0.455
6067,-0.310,-0.455
6068,-0.320,-0.460
6069,-0.310,-0.455
6070,-0.325,-0.450
6071,-0.315,-0.435
6072,-0.335,-0.420
6073,-0.330,-0.435
6074,-0.330,-0.420
6075,-0.315,-0.425
6076,-0.300,-0.410
6077,-0.295,-0.405
6078,-0.295,-0.410
6079,-0.295,-0.410
6080,-0.295,-0.410
6081,-0.275,-0.380
6082,-0.315,-0.400
6083,-0.300,-0.405
6084,-0.320,-0.375
6085,-0.305,-0.375
6086,-0.285,-0.300
6087,-0.275,-0.240
6088,-0.215,-0.190
6089,-0.160,-0.190
6090,-0.130,-0.205
6091,-0.135,-0.245
6092,-0.190,-0.280
6093,-0.235,-0.325
6094,-0.260,-0.325
6095,-0.295,-0.405
6096,-0.285,-0.450
6097,-0.310,-0.435
6098,-0.315,-0.440
6099,-0.320,-0.440
6100,-0.305,-0.440
6101,-0.335,-0.430
6102,-0.325,-0.430
6103,-0.315,-0.420
6104,-0.305,-0.415
6105,-0.315,-0.400
6106,-0.315,-0.395
6107,-0.330,-0.345
6108,-0.330,-0.120
6109,-0.240,0.345
6110,-0.295,0.915
6111,-0.950,1.380
6112,-2.120,1.795
6113,-2.840,1.785
6114,-2.725,1.545
6115,-2.420,1.190
6116,-2.165,0.970
6117,-1.945,1.200
6118,-1.705,1.555
6119,-1.475,0.660
6120,-1.245,-0.345
6121,-0.940,-0.600
6122,-0.630,-0.605
6123,-0.285,-0.565
6124,-0.020,-0.535
6125,0.085,-0.530
6126,0.140,-0.515
6127,0.150,-0.495
6128,0.180,-0.480
6129,0.195,-0.475
6130,0.200,-0.445
6131,0.210,-0.445
6132,0.210,-0.450
6133,0.245,-0.440
6134,0.265,-0.430
6135,0.295,-0.455
6136,0.320,-0.475
6137,0.355,-0.490
6138,0.400,-0.550
6139,0.450,-0.585
6140,0.510,-0.590
6141,0.540,-0.630
6142,0.565,-0.625
6143,0.520,-0.615
6144,0.500,-0.555
6145,0.440,-0.475
6146,0.410,-0.385
6147,0.330,-0.345
6148,0.255,-0.280
6149,0.160,-0.255
6150,0.075,-0.255
6151,0.010,-0.265
6152,-0.045,-0.285
6153,-0.070,-0.300
6154,-0.100,-0.290
6155,-0.125,-0.310
6156,-0.155,-0.320
6157,-0.170,-0.350
6158,-0.175,-0.355
6159,-0.180,-0.370
6160,-0.185,-0.375
6161,-0.160,-0.375
6162,-0.160,-0.380
6163,-0.180,-0.370
6164,-0.185,-0.385
6165,-0.195,-0.400
6166,-0.190,-0.405
6167,-0.185,-0.405
6168,-0.195,-0.400
6169,-0.200,-0.400
6170,-0.180,-0.410
6171,-0.195,-0.380
6172,-0.195,-0.390
6173,-0.210,-0.390
6174,-0.205,-0.385
6175,-0.225,-0.385
6176,-0.230,-0.390
6177,-0.220,-0.370
6178,-0.230,-0.390
6179,-0.235,-0.370
6180,-0.260,-0.375
6181,-0.230,-0.380
6182,-0.250,-0.390
6183,-0.265,-0.370
6184,-0.270,-0.375
6185,-0.275,-0.365
6186,-0.310,-0.395
6187,-0.275,-0.385
6188,-0.290,-0.365
6189,-0.270,-0.355
6190,-0.285,-0.370
6191,-0.260,-0.310
6192,-0.255,-0.255
6193,-0.230,-0.220
6194,-0.205,-0.170
6195,-0.165,-0.145
6196,-0.125,-0.185
6197,-0.145,-0.225
6198,-0.205,-0.260
6199,-0.235,-0.310
6200,-0.280,-0.315
6201,-0.330,-0.390
6202,-0.290,-0.430
6203,-0.300,-0.420
6204,-0.290,-0.430
6205,-0.305,-0.430
6206,-0.315,-0.450
6207,-0.330,-0.415
6208,-0.330,-0.420
6209,-0.320,-0.415
6210,-0.315,-0.405
6211,-0.330,-0.410
6212,-0.315,-0.400
6213,-0.330,-0.300
6214,-0.285,-0.050
6215,-0.205,0.445
6216,-0.335,0.920
6217,-1.090,1.355
6218,-2.275,1.725
6219,-2.875,1.645
6220,-2.675,1.345
6221,-2.430,0.980
6222,-2.210,0.750
6223,-1.990,1.050
6224,-1.765,1.215
6225,-1.510,0.275
6226,-1.280,-0.560
6227,-1.000,-0.680
6228,-0.685,-0.630
6229,-0.325,-0.605
6230,-0.090,-0.545
6231,0.015,-0.545
6232,0.070,-0.520
6233,0.115,-0.495
6234,0.125,-0.465
6235,0.140,-0.455
6236,0.165,-0.435
6237,0.205,-0.430
6238,0.200,-0.420
6239,0.245,-0.425
6240,0.270,-0.415
6241,0.300,-0.420
6242,0.340,-0.440
6243,0.370,-0.465
6244,0.435,-0.475
6245,0.480,-0.510
6246,0.525,-0.505
6247,0.565,-0.555
6248,0.590,-0.570
6249,0.560,-0.565
6250,0.555,-0.495
6251,0.515,-0.455
6252,0.465,-0.390
6253,0.380,-0.325
6254,0.300,-0.270
6255,0.220,-0.245
6256,0.145,-0.235
6257,0.060,-0.235
6258,0.000,-0.290
6259,-0.065,-0.310
6260,-0.125,-0.310
6261,-0.165,-0.300
6262,-0.175,-0.330
6263,-0.180,-0.345
6264,-0.180,-0.360
6265,-0.210,-0.360
6266,-0.200,-0.380
6267,-0.210,-0.370
6268,-0.230,-0.395
6269,-0.220,-0.400
6270,-0.235,-0.410
6271,-0.220,-0.390
6272,-0.220,-0.440
6273,-0.230,-0.390
6274,-0.225,-0.405
6275,-0.210,-0.410
6276,-0.230,-0.415
6277,-0.250,-0.390
6278,-0.240,-0.395
6279,-0.255,-0.390
6280,-0.250,-0.410
6281,-0.260,-0.400
6282,-0.245,-0.400
6283,-0.265,-0.395
6284,-0.270,-0.400
6285,-0.245,-0.385
6286,-0.255,-0.385
6287,-0.260,-0.370
6288,-0.255,-0.390
6289,-0.240,-0.360
6290,-0.260,-0.370
6291,-0.275,-0.370
6292,-0.265,-0.370
6293,-0.255,-0.375
6294,-0.255,-0.370
6295,-0.275,-0.360
6296,-0.270,-0.345
6297,-0.260,-0.345
6298,-0.270,-0.300
6299,-0.270,-0.240
6300,-0.230,-0.215
6301,-0.190,-0.165
6302,-0.165,-0.145
6303,-0.150,-0.175
6304,-0.175,-0.230
6305,-0.245,-0.280
6306,-0.275,-0.295
6307,-0.325,-0.325
6308,-0.345,-0.385
6309,-0.360,-0.410
6310,-0.345,-0.425
6311,-0.350,-0.430
6312,-0.340,-0.440
6313,-0.350,-0.435
6314,-0.360,-0.425
6315,-0.360,-0.420
6316,-0.355,-0.430
6317,-0.370,-0.430
6318,-0.340,-0.400
6319,-0.355,-0.400
6320,-0.355,-0.345
6321,-0.345,-0.100
6322,-0.255,0.350
6323,-0.315,0.855
6324,-0.975,1.225
6325,-2.115,1.635
6326,-2.855,1.640
6327,-2.755,1.365
6328,-2.470,0.950
6329,-2.265,0.640
6330,-2.015,0.760
6331,-1.840,1.145
6332,-1.600,0.540
6333,-1.340,-0.475
6334,-1.075,-0.735
6335,-0.780,-0.650
6336,-0.440,-0.610
6337,-0.150,-0.520
6338,-0.005,-0.550
6339,0.080,-0.510
6340,0.110,-0.495
6341,0.125,-0.490
6342,0.125,-0.460
6343,0.160,-0.440
6344,0.150,-0.435
6345,0.160,-0.425
6346,0.185,-0.430
6347,0.215,-0.415
6348,0.245,-0.435
6349,0.275,-0.430
6350,0.295,-0.455
6351,0.350,-0.485
6352,0.400,-0.515
6353,0.435,-0.530
6354,0.485,-0.565
6355,0.510,-0.585
6356,0.510,-0.595
6357,0.515,-0.540
6358,0.490,-0.490
6359,0.425,-0.425
6360,0.340,-0.355
6361,0.280,-0.305
6362,0.195,-0.290
6363,0.110,-0.270
6364,0.030,-0.265
6365,-0.025,-0.300
6366,-0.105,-0.295
6367,-0.160,-0.340
6368,-0.195,-0.345
6369,-0.215,-0.350
6370,-0.220,-0.350
6371,-0.220,-0.365
6372,-0.225,-0.385
6373,-0.235,-0.370
6374,-0.225,-0.375
6375,-0.230,-0.400
6376,-0.215,-0.400
6377,-0.200,-0.390
6378,-0.200,-0.400
6379,-0.200,-0.390
6380,-0.215,-0.410
6381,-0.190,-0.420
6382,-0.185,-0.395
6383,-0.200,-0.405
6384,-0.205,-0.415
6385,-0.200,-0.405
6386,-0.185,-0.420
6387,-0.190,-0.430
6388,-0.190,-0.405
6389,-0.205,-0.395
6390,-0.230,-0.400
6391,-0.220,-0.405
6392,-0.220,-0.405
6393,-0.205,-0.385
6394,-0.235,-0.400
6395,-0.240,-0.400
6396,-0.240,-0.380
6397,-0.240,-0.370
6398,-0.265,-0.380
6399,-0.260,-0.380
6400,-0.265,-0.395
6401,-0.265,-0.375
6402,-0.240,-0.360
6403,-0.245,-0.355
6404,-0.255,-0.360
6405,-0.235,-0.370
6406,-0.250,-0.355
6407,-0.240,-0.310
6408,-0.240,-0.255
6409,-0.190,-0.205
6410,-0.125,-0.150
6411,-0.090,-0.140
6412,-0.090,-0.190
6413,-0.115,-0.245
6414,-0.190,-0.285
6415,-0.200,-0.330
6416,-0.265,-0.330
6417,-0.290,-0.385
6418,-0.285,-0.405
6419,-0.305,-0.405
6420,-0.305,-0.405
6421,-0.295,-0.420
6422,-0.305,-0.405
6423,-0.295,-0.410
6424,-0.285,-0.400
6425,-0.300,-0.400
6426,-0.310,-0.395
6427,-0.305,-0.400
6428,-0.330,-0.385
6429,-0.325,-0.330
6430,-0.315,-0.110
6431,-0.235,0.375
6432,-0.265,1.020
6433,-0.855,1.495
6434,-2.000,1.945
6435,-2.840,1.980
6436,-2.800,1.690
6437,-2.450,1.290
6438,-2.250,0.975
6439,-2.010,1.070
6440,-1.870,1.580
6441,-1.610,1.225
6442,-1.360,0.090
6443,-1.110,-0.475
6444,-0.805,-0.650
6445,-0.465,-0.660
6446,-0.185,-0.590
6447,-0.025,-0.605
6448,0.065,-0.600
6449,0.110,-0.590
6450,0.130,-0.575
6451,0.135,-0.540
6452,0.165,-0.525
6453,0.190,-0.500
6454,0.190,-0.505
6455,0.210,-0.465
6456,0.225,-0.480
6457,0.265,-0.485
6458,0.290,-0.485
6459,0.325,-0.520
6460,0.365,-0.550
6461,0.410,-0.575
6462,0.460,-0.595
6463,0.500,-0.655
6464,0.530,-0.675
6465,0.540,-0.665
6466,0.525,-0.640
6467,0.500,-0.600
6468,0.450,-0.515
6469,0.380,-0.425
6470,0.315,-0.365
6471,0.210,-0.335
6472,0.120,-0.305
6473,0.045,-0.325
6474,-0.020,-0.320
6475,-0.110,-0.330
6476,-0.160,-0.345
6477,-0.185,-0.375
6478,-0.215,-0.380
6479,-0.220,-0.380
6480,-0.240,-0.400
6481,-0.240,-0.400
6482,-0.230,-0.405
6483,-0.205,-0.425
6484,-0.235,-0.420
6485,-0.215,-0.450
6486,-0.225,-0.440
6487,-0.230,-0.490
6488,-0.225,-0.485
6489,-0.210,-0.470
6490,-0.255,-0.485
6491,-0.235,-0.490
6492,-0.230,-0.495
6493,-0.240,-0.495
6494,-0.215,-0.485
6495,-0.240,-0.510
6496,-0.240,-0.505
6497,-0.250,-0.485
6498,-0.240,-0.485
6499,-0.260,-0.455
6500,-0.240,-0.460
6501,-0.235,-0.450
6502,-0.225,-0.460
6503,-0.245,-0.450
6504,-0.235,-0.440
6505,-0.225,-0.430
6506,-0.215,-0.445
6507,-0.235,-0.430
6508,-0.250,-0.425
6509,-0.255,-0.430
6510,-0.235,-0.400
6511,-0.245,-0.405
6512,-0.220,-0.400
6513,-0.225,-0.375
6514,-0.230,-0.330
6515,-0.230,-0.260
6516,-0.160,-0.235
6517,-0.130,-0.180
6518,-0.100,-0.160
6519,-0.085,-0.210
6520,-0.130,-0.250
6521,-0.195,-0.275
6522,-0.225,-0.325
6523,-0.280,-0.345
6524,-0.295,-0.430
6525,-0.295,-0.440
6526,-0.285,-0.450
6527,-0.290,-0.420
6528,-0.310,-0.430
6529,-0.310,-0.420
6530,-0.290,-0.425
6531,-0.305,-0.410
6532,-0.305,-0.415
6533,-0.290,-0.405
6534,-0.295,-0.380
6535,-0.295,-0.365
6536,-0.300,-0.250
6537,-0.265,0.115
6538,-0.175,0.725
6539,-0.520,1.240
6540,-1.495,1.730
6541,-2.540,1.970
6542,-2.765,1.820
6543,-2.460,1.490
6544,-2.225,1.155
6545,-1.980,1.040
6546,-1.795,1.465
6547,-1.585,1.565
6548,-1.355,0.405
6549,-1.130,-0.390
6550,-0.860,-0.540
6551,-0.505,-0.595
6552,-0.195,-0.555
6553,0.015,-0.550
6554,0.085,-0.530
6555,0.160,-0.530
6556,0.150,-0.530
6557,0.180,-0.495
6558,0.220,-0.485
6559,0.225,-0.465
6560,0.255,-0.455
6561,0.275,-0.450
6562,0.300,-0.460
6563,0.310,-0.465
6564,0.340,-0.480
6565,0.385,-0.500
6566,0.420,-0.525
6567,0.465,-0.565
6568,0.490,-0.605
6569,0.515,-0.640
6570,0.570,-0.640
6571,0.580,-0.665
6572,0.560,-0.630
6573,0.535,-0.590
6574,0.495,-0.525
6575,0.420,-0.455
6576,0.370,-0.370
6577,0.275,-0.305
6578,0.185,-0.270
6579,0.095,-0.275
6580,0.010,-0.280
6581,-0.075,-0.295
6582,-0.110,-0.310
6583,-0.155,-0.330
6584,-0.185,-0.340
6585,-0.195,-0.345
6586,-0.210,-0.355
6587,-0.225,-0.345
6588,-0.255,-0.370
6589,-0.235,-0.370
6590,-0.245,-0.390
6591,-0.215,-0.380
6592,-0.245,-0.415
6593,-0.225,-0.395
6594,-0.235,-0.420
6595,-0.250,-0.415
6596,-0.240,-0.435
6597,-0.220,-0.410
6598,-0.240,-0.425
6599,-0.240,-0.430
6600,-0.245,-0.430
6601,-0.245,-0.405
6602,-0.260,-0.420
6603,-0.260,-0.410
6604,-0.270,-0.405
6605,-0.270,-0.405
6606,-0.280,-0.410
6607,-0.280,-0.395
6608,-0.270,-0.390
6609,-0.290,-0.375
6610,-0.295,-0.385
6611,-0.280,-0.385
6612,-0.270,-0.385
6613,-0.280,-0.375
6614,-0.290,-0.385
6615,-0.285,-0.360
6616,-0.275,-0.375
6617,-0.265,-0.320
6618,-0.275,-0.245
6619,-0.245,-0.225
6620,-0.205,-0.175
6621,-0.165,-0.135
6622,-0.130,-0.170
6623,-0.145,-0.235
6624,-0.195,-0.255
6625,-0.250,-0.305
6626,-0.280,-0.305
6627,-0.310,-0.385
6628,-0.320,-0.430
6629,-0.295,-0.440
6630,-0.290,-0.425
6631,-0.300,-0.435
6632,-0.290,-0.415
