'sample interval','ECG0','ECG1'
'0.0078125 sec','mV','mV'
0,-0.435,-0.075
1,-0.505,-0.040
2,-0.450,-0.105
3,-0.455,-0.025
4,-0.460,-0.075
5,-0.440,0.000
6,-0.460,-0.035
7,-0.450,-0.005
8,-0.490,-0.030
9,-0.445,0.005
10,-0.530,-0.035
11,-0.420,-0.005
12,-0.510,-0.030
13,-0.435,-0.005
14,-0.530,-0.045
15,-0.455,-0.050
16,-0.540,-0.080
17,-0.445,-0.080
18,-0.570,-0.070
19,-0.415,-0.090
20,-0.570,-0.065
21,-0.460,-0.095
22,-0.595,-0.105
23,-0.470,-0.140
24,-0.600,-0.080
25,-0.465,-0.125
26,-0.535,-0.080
27,-0.445,-0.105
28,-0.455,-0.040
29,-0.370,-0.015
30,-0.395,0.115
31,-0.350,0.115
32,-0.305,0.185
33,-0.335,0.035
34,-0.405,-0.010
35,-0.490,-0.190
36,-0.450,-0.155
37,-0.545,-0.215
38,-0.535,-0.205
39,-0.685,-0.210
40,-0.565,-0.210
41,-0.725,-0.240
42,-0.520,-0.235
43,-0.645,-0.235
44,-0.525,-0.210
45,-0.615,-0.225
46,-0.570,-0.210
47,-0.780,0.095
48,-0.250,0.330
49,0.325,0.540
50,1.060,0.065
51,0.825,-1.300
52,-0.350,-2.085
53,-1.185,-2.730
54,-1.065,-2.885
55,-0.675,-1.660
56,-0.555,-0.710
57,-0.550,-0.170
58,-0.660,-0.135
59,-0.570,-0.025
60,-0.670,-0.040
61,-0.550,0.000
62,-0.610,-0.010
63,-0.495,0.005
64,-0.680,0.000
65,-0.505,0.090
66,-0.620,0.070
67,-0.465,0.085
68,-0.585,0.120
69,-0.460,0.135
70,-0.510,0.180
71,-0.360,0.230
72,-0.425,0.310
73,-0.345,0.345
74,-0.350,0.440
75,-0.250,0.455
76,-0.230,0.580
77,-0.150,0.605
78,-0.170,0.670
79,-0.160,0.630
80,-0.170,0.725
81,-0.200,0.670
82,-0.190,0.720
83,-0.275,0.635
84,-0.245,0.615
85,-0.450,0.470
86,-0.360,0.420
87,-0.540,0.310
88,-0.410,0.185
89,-0.560,0.110
90,-0.425,0.060
91,-0.570,0.005
92,-0.440,-0.010
93,-0.560,-0.025
94,-0.465,-0.055
95,-0.540,-0.030
96,-0.435,-0.040
97,-0.520,-0.015
98,-0.445,-0.030
99,-0.505,0.000
100,-0.425,-0.010
101,-0.470,0.020
102,-0.485,-0.045
103,-0.460,0.030
104,-0.515,0.000
105,-0.490,0.010
106,-0.570,-0.030
107,-0.455,-0.010
108,-0.550,-0.065
109,-0.440,-0.025
110,-0.535,-0.055
111,-0.460,-0.040
112,-0.610,-0.070
113,-0.445,-0.085
114,-0.545,-0.055
115,-0.465,-0.075
116,-0.585,-0.070
117,-0.460,-0.085
118,-0.560,-0.060
119,-0.515,-0.105
120,-0.505,-0.045
121,-0.520,-0.165
122,-0.405,-0.055
123,-0.425,-0.030
124,-0.395,0.075
125,-0.470,0.045
126,-0.265,0.160
127,-0.335,0.140
128,-0.280,0.100
129,-0.485,-0.045
130,-0.395,-0.130
131,-0.530,-0.165
132,-0.470,-0.145
133,-0.665,-0.135
134,-0.565,-0.160
135,-0.690,-0.170
136,-0.540,-0.235
137,-0.620,-0.205
138,-0.540,-0.260
139,-0.590,-0.205
140,-0.620,-0.230
141,-0.660,-0.170
142,-0.650,0.080
143,-0.195,0.370
144,0.490,0.495
145,1.175,0.225
146,0.510,-1.220
147,-0.610,-1.775
148,-1.345,-2.465
149,-0.845,-2.505
150,-0.710,-1.455
151,-0.490,-0.585
152,-0.660,-0.130
153,-0.520,-0.090
154,-0.655,-0.030
155,-0.565,-0.035
156,-0.645,0.000
157,-0.550,0.005
158,-0.585,0.045
159,-0.535,0.000
160,-0.535,0.050
161,-0.505,0.005
162,-0.480,0.090
163,-0.480,0.075
164,-0.450,0.135
165,-0.510,0.130
166,-0.405,0.235
167,-0.505,0.230
168,-0.340,0.330
169,-0.415,0.360
170,-0.240,0.410
171,-0.345,0.490
172,-0.225,0.565
173,-0.310,0.615
174,-0.160,0.620
175,-0.225,0.700
176,-0.195,0.655
177,-0.285,0.705
178,-0.335,0.590
179,-0.355,0.570
180,-0.415,0.445
181,-0.385,0.425
182,-0.525,0.255
183,-0.465,0.205
184,-0.590,0.100
185,-0.525,0.030
186,-0.615,0.030
187,-0.520,-0.015
188,-0.595,-0.005
189,-0.490,-0.055
190,-0.605,-0.005
191,-0.530,-0.050
192,-0.575,0.020
193,-0.485,-0.060
194,-0.535,0.005
195,-0.485,-0.025
196,-0.515,0.010
197,-0.500,-0.025
198,-0.490,0.020
199,-0.515,-0.020
200,-0.490,0.025
201,-0.535,-0.010
202,-0.465,0.010
203,-0.550,-0.005
204,-0.460,0.020
205,-0.540,0.005
206,-0.445,0.000
207,-0.570,0.005
208,-0.450,0.000
209,-0.560,0.000
210,-0.450,0.005
211,-0.605,-0.030
212,-0.425,-0.035
213,-0.555,-0.005
214,-0.425,-0.065
215,-0.535,-0.005
216,-0.460,-0.025
217,-0.450,0.045
218,-0.360,0.045
219,-0.385,0.175
220,-0.400,0.180
221,-0.275,0.280
222,-0.290,0.180
223,-0.330,0.125
224,-0.450,-0.010
225,-0.385,-0.045
226,-0.500,-0.075
227,-0.500,-0.080
228,-0.660,-0.055
229,-0.565,-0.120
230,-0.685,-0.130
231,-0.540,-0.150
232,-0.655,-0.160
233,-0.525,-0.140
234,-0.615,-0.085
235,-0.490,-0.155
236,-0.655,-0.040
237,-0.595,0.280
238,-0.110,0.455
239,0.585,0.680
240,1.180,-0.130
241,0.375,-1.415
242,-0.725,-2.055
243,-1.210,-2.620
244,-0.765,-2.230
245,-0.575,-1.115
246,-0.465,-0.290
247,-0.625,-0.015
248,-0.505,0.030
249,-0.610,0.050
250,-0.490,0.045
251,-0.590,0.100
252,-0.460,0.040
253,-0.520,0.125
254,-0.455,0.095
255,-0.480,0.140
256,-0.465,0.145
257,-0.475,0.230
258,-0.455,0.175
259,-0.445,0.255
260,-0.395,0.275
261,-0.390,0.345
262,-0.380,0.370
263,-0.310,0.485
264,-0.315,0.495
265,-0.235,0.610
266,-0.280,0.620
267,-0.170,0.725
268,-0.250,0.740
269,-0.120,0.790
270,-0.210,0.790
271,-0.145,0.760
272,-0.290,0.765
273,-0.235,0.685
274,-0.415,0.585
275,-0.320,0.470
276,-0.505,0.375
277,-0.450,0.235
278,-0.565,0.200
279,-0.495,0.070
280,-0.570,0.050
281,-0.495,0.000
282,-0.540,0.000
283,-0.500,-0.060
284,-0.520,0.000
285,-0.510,-0.050
286,-0.505,-0.005
287,-0.525,-0.025
288,-0.455,-0.010
289,-0.525,-0.015
290,-0.450,0.035
291,-0.540,0.000
292,-0.415,0.025
293,-0.535,0.050
294,-0.410,0.050
295,-0.540,0.035
296,-0.410,0.035
297,-0.555,0.025
298,-0.425,0.030
299,-0.520,0.015
300,-0.430,-0.015
301,-0.540,0.025
302,-0.465,-0.050
303,-0.535,0.005
304,-0.465,-0.025
305,-0.475,0.010
306,-0.515,-0.055
307,-0.490,0.000
308,-0.510,-0.040
309,-0.450,-0.020
310,-0.410,-0.025
311,-0.335,0.100
312,-0.385,0.140
313,-0.305,0.225
314,-0.360,0.235
315,-0.240,0.185
316,-0.420,0.075
317,-0.365,-0.035
318,-0.515,-0.100
319,-0.380,-0.100
320,-0.615,-0.100
321,-0.540,-0.120
322,-0.650,-0.100
323,-0.565,-0.150
324,-0.580,-0.100
325,-0.545,-0.155
326,-0.575,-0.110
327,-0.545,-0.155
328,-0.595,-0.090
329,-0.665,-0.065
330,-0.495,0.395
331,0.040,0.440
332,0.795,0.620
333,1.095,-0.755
334,0.230,-1.755
335,-0.935,-2.540
336,-1.040,-2.810
337,-0.840,-2.045
338,-0.455,-0.820
339,-0.625,-0.100
340,-0.470,0.035
341,-0.570,0.065
342,-0.460,0.065
343,-0.605,0.115
344,-0.450,0.095
345,-0.540,0.170
346,-0.440,0.155
347,-0.455,0.210
348,-0.395,0.145
349,-0.450,0.230
350,-0.425,0.215
351,-0.405,0.310
352,-0.385,0.280
353,-0.315,0.360
354,-0.370,0.410
355,-0.235,0.485
356,-0.280,0.480
357,-0.150,0.610
358,-0.260,0.660
359,-0.100,0.710
360,-0.180,0.770
361,-0.080,0.810
362,-0.155,0.830
363,-0.015,0.810
364,-0.150,0.820
365,-0.105,0.765
366,-0.290,0.800
367,-0.235,0.595
368,-0.345,0.575
369,-0.350,0.420
370,-0.400,0.415
371,-0.465,0.230
372,-0.410,0.220
373,-0.505,0.110
374,-0.425,0.055
375,-0.510,0.015
376,-0.385,0.000
377,-0.480,-0.015
378,-0.385,0.000
379,-0.490,0.000
380,-0.375,0.015
381,-0.520,0.035
382,-0.420,0.030
383,-0.505,0.080
384,-0.395,0.000
385,-0.450,0.100
386,-0.455,0.050
387,-0.470,0.100
388,-0.450,0.030
389,-0.435,0.045
390,-0.495,0.015
391,-0.470,0.040
392,-0.525,-0.025
393,-0.450,0.005
394,-0.520,-0.030
395,-0.430,0.005
396,-0.515,-0.045
397,-0.440,-0.015
398,-0.555,-0.050
399,-0.430,-0.050
400,-0.545,-0.045
401,-0.485,-0.060
402,-0.600,-0.015
403,-0.450,-0.075
404,-0.460,0.000
405,-0.390,-0.005
406,-0.425,0.085
407,-0.400,0.085
408,-0.295,0.215
409,-0.305,0.120
410,-0.360,0.060
411,-0.430,-0.095
412,-0.445,-0.135
413,-0.505,-0.175
414,-0.525,-0.120
415,-0.655,-0.150
416,-0.580,-0.125
417,-0.640,-0.185
418,-0.535,-0.220
419,-0.640,-0.215
420,-0.530,-0.220
421,-0.645,-0.170
422,-0.505,-0.205
423,-0.635,-0.140
424,-0.600,0.095
425,-0.195,0.405
426,0.515,0.495
427,1.165,0.260
428,0.595,-1.200
429,-0.585,-1.790
430,-1.240,-2.445
431,-0.855,-2.420
432,-0.635,-1.425
433,-0.440,-0.555
434,-0.620,-0.125
435,-0.505,-0.050
436,-0.635,-0.040
437,-0.505,-0.010
438,-0.540,-0.010
439,-0.480,-0.030
440,-0.545,0.045
441,-0.505,-0.010
442,-0.535,0.040
443,-0.470,-0.015
444,-0.440,0.110
445,-0.460,0.055
446,-0.395,0.160
447,-0.460,0.120
448,-0.340,0.200
449,-0.440,0.240
450,-0.305,0.375
451,-0.380,0.350
452,-0.165,0.425
453,-0.280,0.500
454,-0.160,0.545
455,-0.230,0.635
456,-0.145,0.640
457,-0.175,0.670
458,-0.130,0.635
459,-0.190,0.675
460,-0.210,0.585
461,-0.305,0.605
462,-0.355,0.460
463,-0.355,0.435
464,-0.455,0.300
465,-0.415,0.265
466,-0.525,0.100
467,-0.450,0.140
468,-0.550,0.015
469,-0.375,0.015
470,-0.545,-0.010
471,-0.425,-0.015
472,-0.525,0.030
473,-0.415,-0.030
474,-0.500,0.010
475,-0.450,-0.020
476,-0.490,0.040
477,-0.440,0.000
478,-0.435,0.055
479,-0.435,0.010
480,-0.405,0.060
481,-0.495,0.020
482,-0.415,0.080
483,-0.490,0.035
484,-0.390,0.050
485,-0.540,0.040
486,-0.385,0.010
487,-0.525,0.025
488,-0.400,0.000
489,-0.515,0.010
490,-0.465,-0.030
491,-0.510,0.025
492,-0.460,-0.040
493,-0.500,0.040
494,-0.480,-0.025
495,-0.505,0.000
496,-0.535,-0.065
497,-0.455,-0.005
498,-0.505,-0.030
499,-0.390,0.000
500,-0.430,0.005
501,-0.305,0.085
502,-0.380,0.145
503,-0.285,0.235
504,-0.335,0.255
505,-0.220,0.125
506,-0.395,0.090
507,-0.390,-0.065
508,-0.500,-0.080
509,-0.480,-0.120
510,-0.590,-0.095
511,-0.570,-0.135
512,-0.605,-0.120
513,-0.605,-0.190
514,-0.565,-0.170
515,-0.600,-0.190
516,-0.540,-0.135
517,-0.610,-0.145
518,-0.565,-0.110
519,-0.745,-0.025
520,-0.420,0.360
521,0.050,0.410
522,0.875,0.665
523,1.045,-0.585
524,0.025,-1.545
525,-1.005,-2.195
526,-1.025,-2.615
527,-0.815,-1.880
528,-0.495,-0.860
529,-0.620,-0.115
530,-0.550,-0.045
531,-0.620,0.005
532,-0.510,-0.025
533,-0.615,0.075
534,-0.545,0.010
535,-0.535,0.080
536,-0.550,0.035
537,-0.485,0.140
538,-0.545,0.115
539,-0.435,0.150
540,-0.545,0.140
541,-0.410,0.205
542,-0.500,0.205
543,-0.380,0.255
544,-0.445,0.320
545,-0.305,0.390
546,-0.375,0.450
547,-0.265,0.510
548,-0.325,0.585
549,-0.210,0.635
550,-0.305,0.720
551,-0.190,0.745
552,-0.235,0.795
553,-0.170,0.755
554,-0.250,0.805
555,-0.290,0.700
556,-0.310,0.715
557,-0.420,0.515
558,-0.425,0.485
559,-0.490,0.325
560,-0.470,0.265
561,-0.540,0.135
562,-0.480,0.120
563,-0.580,0.035
564,-0.500,0.030
565,-0.585,0.010
566,-0.500,0.000
567,-0.600,-0.010
568,-0.460,0.015
569,-0.590,0.025
570,-0.465,0.005
571,-0.550,0.035
572,-0.485,0.010
573,-0.540,0.040
574,-0.485,0.005
575,-0.505,0.080
576,-0.455,0.015
577,-0.475,0.065
578,-0.445,0.005
579,-0.485,0.075
580,-0.525,0.005
581,-0.505,0.065
582,-0.515,0.015
583,-0.465,0.075
584,-0.560,0.035
585,-0.470,0.030
586,-0.570,-0.010
587,-0.450,0.000
588,-0.550,-0.010
589,-0.415,0.015
590,-0.550,0.005
591,-0.440,-0.010
592,-0.555,0.020
593,-0.410,-0.030
594,-0.450,0.090
595,-0.335,0.105
596,-0.370,0.205
597,-0.260,0.180
598,-0.280,0.275
599,-0.270,0.145
600,-0.400,0.100
601,-0.370,-0.110
602,-0.465,-0.055
603,-0.490,-0.100
604,-0.550,-0.050
605,-0.600,-0.110
606,-0.530,-0.060
607,-0.585,-0.165
608,-0.535,-0.110
609,-0.565,-0.145
610,-0.485,-0.080
611,-0.575,-0.145
612,-0.540,-0.025
613,-0.615,0.295
614,-0.035,0.470
615,0.565,0.720
616,1.225,-0.320
617,0.355,-1.560
618,-0.655,-2.245
619,-1.250,-2.725
620,-0.730,-2.335
621,-0.520,-1.060
622,-0.445,-0.280
623,-0.625,0.010
624,-0.500,0.000
625,-0.535,0.070
626,-0.475,0.045
627,-0.520,0.110
628,-0.480,0.070
629,-0.475,0.140
630,-0.445,0.120
631,-0.445,0.170
632,-0.480,0.120
633,-0.390,0.225
634,-0.435,0.205
635,-0.365,0.265
636,-0.415,0.310
637,-0.280,0.335
638,-0.395,0.400
639,-0.195,0.455
640,-0.280,0.530
641,-0.115,0.590
642,-0.245,0.680
643,-0.075,0.720
644,-0.155,0.825
645,-0.065,0.800
646,-0.170,0.835
647,-0.120,0.805
648,-0.205,0.820
649,-0.195,0.715
650,-0.295,0.675
651,-0.350,0.525
652,-0.370,0.415
653,-0.450,0.290
654,-0.415,0.245
655,-0.490,0.115
656,-0.405,0.090
657,-0.480,0.005
658,-0.420,0.025
659,-0.530,-0.020
660,-0.400,0.000
661,-0.525,-0.015
662,-0.395,0.000
663,-0.515,-0.005
664,-0.410,0.025
665,-0.495,0.005
666,-0.385,0.035
667,-0.505,0.035
668,-0.375,0.045
669,-0.490,0.055
670,-0.400,0.025
671,-0.500,0.080
672,-0.440,0.020
673,-0.510,0.050
674,-0.445,-0.005
675,-0.465,0.055
676,-0.455,0.020
677,-0.450,0.035
678,-0.495,-0.025
679,-0.475,0.035
680,-0.515,-0.050
681,-0.425,0.000
682,-0.495,-0.065
683,-0.410,0.020
684,-0.575,-0.060
685,-0.445,-0.035
686,-0.540,-0.035
687,-0.335,0.010
688,-0.410,0.080
689,-0.250,0.125
690,-0.375,0.195
691,-0.235,0.185
692,-0.350,0.130
693,-0.330,0.005
694,-0.430,-0.065
695,-0.390,-0.140
696,-0.475,-0.095
697,-0.540,-0.170
698,-0.570,-0.075
699,-0.625,-0.210
700,-0.585,-0.145
701,-0.640,-0.215
702,-0.505,-0.160
703,-0.585,-0.210
704,-0.435,-0.195
705,-0.615,-0.160
706,-0.625,0.050
707,-0.480,0.375
708,0.340,0.465
709,0.990,0.380
710,1.025,-1.120
711,-0.340,-1.910
712,-1.085,-2.595
713,-0.985,-2.685
714,-0.585,-1.530
715,-0.545,-0.565
716,-0.540,-0.135
717,-0.580,0.000
718,-0.525,-0.010
719,-0.550,0.030
720,-0.520,0.010
721,-0.465,0.080
722,-0.505,0.015
723,-0.435,0.080
724,-0.510,0.075
725,-0.425,0.175
726,-0.465,0.125
727,-0.345,0.195
728,-0.420,0.210
729,-0.295,0.280
730,-0.395,0.305
731,-0.230,0.385
732,-0.330,0.380
733,-0.185,0.490
734,-0.215,0.565
735,-0.125,0.605
736,-0.190,0.700
737,-0.065,0.695
738,-0.075,0.795
739,-0.050,0.725
740,-0.110,0.800
741,-0.185,0.735
742,-0.160,0.750
743,-0.225,0.580
744,-0.250,0.585
745,-0.375,0.390
746,-0.340,0.365
747,-0.455,0.240
748,-0.380,0.180
749,-0.535,0.060
750,-0.385,0.025
751,-0.475,0.010
752,-0.385,-0.005
753,-0.490,-0.035
754,-0.365,-0.005
755,-0.455,0.000
756,-0.405,-0.020
757,-0.425,0.015
758,-0.390,-0.010
759,-0.400,0.025
760,-0.400,-0.005
761,-0.370,0.020
762,-0.440,0.030
763,-0.385,0.085
764,-0.430,0.000
765,-0.300,0.035
766,-0.455,0.000
767,-0.325,0.010
768,-0.475,0.000
769,-0.320,-0.030
770,-0.480,-0.020
771,-0.405,-0.025
772,-0.485,-0.010
773,-0.365,-0.090
774,-0.430,-0.010
775,-0.435,-0.090
776,-0.435,-0.065
777,-0.475,-0.080
778,-0.460,-0.040
779,-0.455,-0.105
780,-0.375,-0.080
781,-0.455,-0.120
782,-0.355,-0.070
783,-0.445,-0.035
784,-0.290,-0.010
785,-0.365,0.090
786,-0.255,0.085
787,-0.290,0.150
788,-0.210,0.030
789,-0.370,0.030
790,-0.340,-0.165
791,-0.425,-0.180
792,-0.455,-0.220
793,-0.550,-0.155
794,-0.570,-0.200
795,-0.560,-0.180
796,-0.575,-0.270
797,-0.550,-0.225
798,-0.570,-0.245
799,-0.510,-0.190
800,-0.575,-0.255
801,-0.495,-0.185
802,-0.690,-0.050
803,-0.345,0.305
804,0.120,0.355
805,0.960,0.630
806,1.050,-0.750
807,-0.020,-1.620
808,-1.015,-2.300
809,-0.995,-2.735
810,-0.775,-1.895
811,-0.430,-0.915
812,-0.555,-0.215
813,-0.530,-0.080
814,-0.555,0.005
815,-0.525,-0.055
816,-0.505,0.045
817,-0.530,-0.020
818,-0.485,0.065
819,-0.520,0.010
820,-0.400,0.075
821,-0.500,0.055
822,-0.400,0.100
823,-0.530,0.105
824,-0.365,0.130
825,-0.445,0.180
826,-0.320,0.220
827,-0.405,0.285
828,-0.295,0.330
829,-0.350,0.425
830,-0.230,0.435
831,-0.210,0.615
832,-0.190,0.555
833,-0.165,0.700
834,-0.120,0.675
835,-0.120,0.750
836,-0.145,0.695
837,-0.100,0.755
838,-0.230,0.640
839,-0.190,0.660
840,-0.335,0.540
841,-0.285,0.480
842,-0.455,0.345
843,-0.380,0.255
844,-0.490,0.190
845,-0.390,0.130
846,-0.525,0.040
847,-0.400,0.000
848,-0.500,0.005
849,-0.380,-0.010
850,-0.480,-0.010
851,-0.400,-0.040
852,-0.460,0.010
853,-0.400,-0.045
854,-0.460,0.020
855,-0.450,-0.035
856,-0.415,0.065
857,-0.415,0.030
858,-0.345,0.070
859,-0.390,0.025
860,-0.350,0.095
861,-0.435,0.015
862,-0.385,0.050
863,-0.405,0.040
864,-0.355,0.050
865,-0.490,0.035
866,-0.370,0.055
867,-0.485,0.005
868,-0.350,-0.005
869,-0.450,0.030
870,-0.340,-0.025
871,-0.470,0.010
872,-0.375,0.000
873,-0.460,0.045
874,-0.355,-0.040
875,-0.445,-0.015
876,-0.385,-0.080
877,-0.435,0.000
878,-0.370,-0.035
879,-0.340,0.070
880,-0.335,0.055
881,-0.270,0.215
882,-0.260,0.225
883,-0.140,0.250
884,-0.285,0.120
885,-0.245,0.040
886,-0.385,-0.075
887,-0.305,-0.100
888,-0.470,-0.070
889,-0.420,-0.140
890,-0.535,-0.080
891,-0.480,-0.150
892,-0.535,-0.135
893,-0.465,-0.175
894,-0.530,-0.120
895,-0.450,-0.170
896,-0.475,-0.115
897,-0.465,-0.145
898,-0.585,0.105
899,-0.275,0.390
900,0.385,0.515
901,1.075,0.360
902,1.095,-1.000
903,-0.230,-1.845
904,-0.975,-2.395
905,-0.960,-2.630
906,-0.535,-1.630
907,-0.465,-0.660
908,-0.410,-0.100
909,-0.525,0.000
910,-0.410,0.040
911,-0.490,0.065
912,-0.365,0.050
913,-0.455,0.095
914,-0.370,0.085
915,-0.450,0.105
916,-0.385,0.060
917,-0.445,0.140
918,-0.360,0.110
919,-0.385,0.245
920,-0.380,0.180
921,-0.360,0.295
922,-0.330,0.275
923,-0.270,0.385
924,-0.295,0.385
925,-0.185,0.495
926,-0.200,0.545
927,-0.080,0.650
928,-0.135,0.705
929,-0.060,0.720
930,-0.125,0.750
931,-0.030,0.825
932,-0.145,0.765
933,-0.055,0.770
934,-0.230,0.720
935,-0.180,0.630
936,-0.345,0.615
937,-0.290,0.440
938,-0.415,0.380
939,-0.365,0.195
940,-0.415,0.225
941,-0.420,0.080
942,-0.390,0.070
943,-0.435,0.015
944,-0.410,0.030
945,-0.470,-0.025
946,-0.365,0.035
947,-0.475,-0.015
948,-0.360,0.035
949,-0.490,-0.005
950,-0.360,0.020
951,-0.455,0.035
952,-0.350,0.030
953,-0.480,0.070
954,-0.395,0.020
955,-0.435,0.090
956,-0.365,0.000
957,-0.395,0.075
958,-0.375,0.030
959,-0.380,0.080
960,-0.465,0.000
961,-0.415,0.070
962,-0.430,0.000
963,-0.420,0.065
964,-0.470,0.025
965,-0.370,0.045
966,-0.480,0.010
967,-0.375,0.010
968,-0.505,-0.030
969,-0.395,-0.010
970,-0.475,-0.025
971,-0.380,0.000
972,-0.470,-0.005
973,-0.375,-0.010
974,-0.420,0.005
975,-0.295,0.045
976,-0.370,0.140
977,-0.250,0.200
978,-0.250,0.285
979,-0.175,0.205
980,-0.275,0.220
981,-0.275,0.030
982,-0.375,-0.010
983,-0.350,-0.110
984,-0.425,-0.020
985,-0.495,-0.080
986,-0.475,-0.030
987,-0.525,-0.095
988,-0.445,-0.055
989,-0.520,-0.135
990,-0.375,-0.075
991,-0.495,-0.130
992,-0.395,-0.085
993,-0.570,-0.030
994,-0.500,0.280
995,-0.140,0.475
996,0.690,0.680
997,1.215,-0.130
998,0.720,-1.460
999,-0.600,-2.175
1000,-1.040,-2.655
1001,-0.785,-2.265
1002,-0.375,-1.100
1003,-0.445,-0.210
1004,-0.460,-0.020
1005,-0.470,0.110
1006,-0.480,0.055
1007,-0.405,0.160
1008,-0.430,0.120
1009,-0.345,0.175
1010,-0.430,0.180
1011,-0.335,0.240
1012,-0.405,0.190
1013,-0.315,0.265
1014,-0.405,0.275
1015,-0.270,0.305
1016,-0.360,0.325
1017,-0.195,0.365
1018,-0.300,0.435
1019,-0.190,0.460
1020,-0.215,0.555
1021,-0.120,0.575
1022,-0.120,0.715
1023,-0.075,0.695
1024,-0.015,0.825
1025,-0.040,0.835
1026,0.020,0.940
1027,-0.025,0.880
1028,0.005,0.925
1029,-0.090,0.855
1030,-0.085,0.850
1031,-0.225,0.710
1032,-0.140,0.670
1033,-0.305,0.545
1034,-0.250,0.475
1035,-0.390,0.375
1036,-0.300,0.250
1037,-0.420,0.225
1038,-0.320,0.135
1039,-0.410,0.110
1040,-0.335,0.065
1041,-0.400,0.110
1042,-0.330,0.030
1043,-0.335,0.090
1044,-0.335,0.020
1045,-0.340,0.130
1046,-0.370,0.060
1047,-0.305,0.150
1048,-0.380,0.085
1049,-0.310,0.145
1050,-0.425,0.120
1051,-0.300,0.135
1052,-0.400,0.080
1053,-0.275,0.110
1054,-0.435,0.105
1055,-0.325,0.075
1056,-0.415,0.095
1057,-0.340,0.065
1058,-0.435,0.095
1059,-0.370,0.025
1060,-0.395,0.040
1061,-0.360,0.015
1062,-0.395,0.075
1063,-0.415,0.000
1064,-0.385,0.075
1065,-0.395,0.005
1066,-0.360,0.060
1067,-0.450,-0.020
1068,-0.320,0.060
1069,-0.465,-0.005
1070,-0.310,0.060
1071,-0.345,0.075
1072,-0.230,0.095
1073,-0.330,0.195
1074,-0.250,0.205
1075,-0.215,0.330
1076,-0.155,0.195
1077,-0.230,0.175
1078,-0.300,0.030
1079,-0.340,0.000
1080,-0.410,-0.050
1081,-0.390,-0.010
1082,-0.535,-0.070
1083,-0.445,-0.045
1084,-0.590,-0.095
1085,-0.415,-0.085
1086,-0.510,-0.065
1087,-0.420,-0.115
1088,-0.535,-0.075
1089,-0.410,-0.100
1090,-0.530,0.005
1091,-0.640,0.215
1092,-0.255,0.555
1093,0.450,0.590
1094,1.235,0.385
1095,0.800,-1.035
1096,-0.390,-1.700
1097,-1.100,-2.390
1098,-0.775,-2.275
1099,-0.520,-1.310
1100,-0.355,-0.390
1101,-0.555,0.020
1102,-0.420,0.080
1103,-0.535,0.130
1104,-0.405,0.135
1105,-0.500,0.200
1106,-0.375,0.125
1107,-0.440,0.165
1108,-0.345,0.175
1109,-0.445,0.230
1110,-0.345,0.235
1111,-0.445,0.270
1112,-0.305,0.260
1113,-0.305,0.355
1114,-0.290,0.305
1115,-0.305,0.470
1116,-0.275,0.440
1117,-0.190,0.565
1118,-0.210,0.585
1119,-0.120,0.695
1120,-0.135,0.715
1121,-0.020,0.810
1122,-0.090,0.805
1123,0.020,0.895
1124,-0.115,0.890
1125,0.000,0.895
1126,-0.120,0.865
1127,-0.050,0.835
1128,-0.280,0.770
1129,-0.205,0.655
1130,-0.360,0.550
1131,-0.255,0.435
1132,-0.415,0.375
1133,-0.335,0.245
1134,-0.430,0.255
1135,-0.400,0.170
1136,-0.430,0.150
1137,-0.375,0.070
1138,-0.335,0.145
1139,-0.370,0.115
1140,-0.315,0.155
1141,-0.395,0.110
1142,-0.345,0.150
1143,-0.395,0.120
1144,-0.245,0.160
1145,-0.410,0.175
1146,-0.290,0.195
1147,-0.410,0.200
1148,-0.290,0.165
1149,-0.410,0.190
1150,-0.315,0.160
1151,-0.405,0.185
1152,-0.300,0.120
1153,-0.420,0.160
1154,-0.380,0.110
1155,-0.400,0.170
1156,-0.355,0.100
1157,-0.355,0.130
1158,-0.420,0.085
1159,-0.350,0.150
1160,-0.420,0.105
1161,-0.340,0.100
1162,-0.440,0.090
1163,-0.345,0.125
1164,-0.465,0.075
1165,-0.340,0.105
1166,-0.335,0.110
1167,-0.215,0.195
1168,-0.335,0.245
1169,-0.200,0.290
1170,-0.250,0.330
1171,-0.110,0.300
1172,-0.240,0.260
1173,-0.255,0.085
1174,-0.395,0.075
1175,-0.325,-0.010
1176,-0.430,0.015
1177,-0.490,-0.005
1178,-0.510,0.030
1179,-0.490,-0.025
1180,-0.490,-0.015
1181,-0.480,-0.070
1182,-0.435,-0.005
1183,-0.475,-0.050
1184,-0.455,-0.005
1185,-0.650,0.015
1186,-0.475,0.425
1187,-0.060,0.520
1188,0.815,0.835
1189,1.240,-0.055
1190,0.540,-1.245
1191,-0.725,-1.825
1192,-1.050,-2.340
1193,-0.830,-2.090
1194,-0.425,-0.960
1195,-0.525,-0.085
1196,-0.420,0.065
1197,-0.515,0.150
1198,-0.435,0.130
1199,-0.510,0.205
1200,-0.470,0.180
1201,-0.445,0.245
1202,-0.435,0.190
1203,-0.380,0.270
1204,-0.450,0.240
1205,-0.365,0.330
1206,-0.455,0.270
1207,-0.320,0.350
1208,-0.425,0.375
1209,-0.295,0.410
1210,-0.375,0.450
1211,-0.210,0.510
1212,-0.310,0.585
1213,-0.150,0.630
1214,-0.240,0.715
1215,-0.075,0.765
1216,-0.155,0.865
1217,-0.025,0.880
1218,-0.100,0.955
1219,-0.075,0.920
1220,-0.115,0.985
1221,-0.195,0.840
1222,-0.160,0.865
1223,-0.250,0.740
1224,-0.240,0.720
1225,-0.385,0.545
1226,-0.355,0.475
1227,-0.490,0.365
1228,-0.370,0.290
1229,-0.485,0.230
1230,-0.360,0.200
1231,-0.490,0.160
1232,-0.335,0.155
1233,-0.455,0.160
1234,-0.340,0.160
1235,-0.460,0.155
1236,-0.360,0.170
1237,-0.455,0.160
1238,-0.345,0.135
1239,-0.420,0.210
1240,-0.360,0.175
1241,-0.345,0.250
1242,-0.370,0.205
1243,-0.355,0.245
1244,-0.350,0.200
1245,-0.330,0.260
1246,-0.385,0.180
1247,-0.335,0.235
1248,-0.395,0.200
1249,-0.320,0.220
1250,-0.380,0.165
1251,-0.315,0.215
1252,-0.445,0.150
1253,-0.300,0.200
1254,-0.415,0.210
1255,-0.305,0.185
1256,-0.465,0.190
1257,-0.305,0.145
1258,-0.410,0.190
1259,-0.310,0.160
1260,-0.380,0.205
1261,-0.245,0.195
1262,-0.250,0.345
1263,-0.195,0.330
1264,-0.200,0.455
1265,-0.145,0.395
1266,-0.205,0.340
1267,-0.285,0.170
1268,-0.315,0.130
1269,-0.350,0.080
1270,-0.340,0.105
1271,-0.505,0.060
1272,-0.425,0.115
1273,-0.540,0.075
1274,-0.380,0.060
1275,-0.515,0.060
1276,-0.355,0.030
1277,-0.500,0.080
1278,-0.385,0.025
1279,-0.555,0.090
1280,-0.475,0.430
1281,-0.125,0.650
1282,0.700,0.890
1283,1.265,0.185
1284,0.790,-1.240
1285,-0.475,-1.830
1286,-1.065,-2.345
1287,-0.730,-2.125
1288,-0.460,-1.100
1289,-0.360,-0.175
1290,-0.485,0.100
1291,-0.395,0.210
1292,-0.480,0.225
1293,-0.380,0.265
1294,-0.465,0.245
1295,-0.365,0.310
1296,-0.475,0.285
1297,-0.350,0.305
1298,-0.465,0.340
1299,-0.340,0.365
1300,-0.445,0.410
1301,-0.285,0.430
1302,-0.435,0.455
1303,-0.290,0.470
1304,-0.395,0.535
1305,-0.250,0.555
1306,-0.260,0.665
1307,-0.200,0.695
1308,-0.170,0.825
1309,-0.140,0.845
1310,-0.115,0.955
1311,-0.100,0.955
1312,-0.075,1.010
1313,-0.120,0.965
1314,-0.100,1.000
1315,-0.190,0.945
1316,-0.160,0.930
1317,-0.305,0.765
1318,-0.240,0.740
1319,-0.440,0.570
1320,-0.350,0.475
1321,-0.505,0.370
1322,-0.355,0.340
1323,-0.510,0.305
1324,-0.340,0.270
1325,-0.485,0.265
1326,-0.375,0.150
1327,-0.465,0.190
1328,-0.385,0.150
1329,-0.440,0.190
1330,-0.390,0.165
1331,-0.435,0.225
1332,-0.390,0.180
1333,-0.415,0.270
1334,-0.435,0.200
1335,-0.390,0.240
1336,-0.445,0.205
1337,-0.320,0.230
1338,-0.465,0.255
1339,-0.365,0.265
1340,-0.505,0.220
1341,-0.380,0.205
1342,-0.490,0.220
1343,-0.390,0.175
1344,-0.455,0.205
1345,-0.350,0.140
1346,-0.475,0.235
1347,-0.420,0.185
1348,-0.455,0.230
1349,-0.470,0.115
1350,-0.450,0.225
1351,-0.475,0.145
1352,-0.405,0.185
1353,-0.460,0.155
1354,-0.315,0.235
1355,-0.400,0.215
1356,-0.235,0.335
1357,-0.320,0.380
1358,-0.155,0.420
1359,-0.225,0.400
1360,-0.180,0.300
1361,-0.370,0.195
1362,-0.285,0.045
1363,-0.425,0.130
1364,-0.470,0.055
1365,-0.545,0.120
1366,-0.490,0.035
1367,-0.500,0.115
1368,-0.515,0.030
1369,-0.470,0.075
1370,-0.520,0.020
1371,-0.410,0.070
1372,-0.485,0.065
1373,-0.485,0.175
1374,-0.590,0.520
1375,0.050,0.660
1376,0.710,0.915
1377,1.390,-0.215
1378,0.610,-1.370
1379,-0.475,-2.040
1380,-1.065,-2.455
1381,-0.670,-2.015
1382,-0.495,-0.780
1383,-0.410,-0.075
1384,-0.475,0.190
1385,-0.465,0.210
1386,-0.415,0.290
1387,-0.475,0.225
1388,-0.370,0.300
1389,-0.495,0.310
1390,-0.335,0.385
1391,-0.475,0.335
1392,-0.365,0.370
1393,-0.430,0.365
1394,-0.290,0.410
1395,-0.365,0.415
1396,-0.265,0.440
1397,-0.375,0.510
1398,-0.270,0.540
1399,-0.295,0.620
1400,-0.160,0.655
1401,-0.190,0.775
1402,-0.110,0.785
1403,-0.085,0.875
1404,-0.090,0.865
1405,-0.005,0.970
1406,-0.055,0.960
1407,0.030,1.065
1408,-0.075,0.980
1409,0.000,1.020
1410,-0.155,0.935
1411,-0.100,0.875
1412,-0.320,0.760
1413,-0.255,0.670
1414,-0.415,0.545
1415,-0.345,0.460
1416,-0.465,0.335
1417,-0.325,0.295
1418,-0.415,0.235
1419,-0.355,0.210
1420,-0.440,0.205
1421,-0.385,0.140
1422,-0.385,0.195
1423,-0.390,0.155
1424,-0.405,0.200
1425,-0.380,0.180
1426,-0.350,0.255
1427,-0.415,0.195
1428,-0.375,0.275
1429,-0.425,0.185
1430,-0.355,0.265
1431,-0.475,0.215
1432,-0.350,0.220
1433,-0.470,0.170
1434,-0.350,0.195
1435,-0.490,0.145
1436,-0.355,0.155
1437,-0.490,0.165
1438,-0.385,0.155
1439,-0.515,0.145
1440,-0.380,0.115
1441,-0.470,0.110
1442,-0.405,0.110
1443,-0.495,0.140
1444,-0.420,0.100
1445,-0.515,0.085
1446,-0.410,0.055
1447,-0.465,0.125
1448,-0.435,0.085
1449,-0.385,0.175
1450,-0.375,0.140
1451,-0.345,0.330
1452,-0.345,0.310
1453,-0.190,0.400
1454,-0.255,0.265
1455,-0.280,0.220
1456,-0.410,0.030
1457,-0.385,0.030
1458,-0.500,0.005
1459,-0.455,-0.010
1460,-0.610,0.015
1461,-0.515,0.000
1462,-0.600,-0.055
1463,-0.500,-0.015
1464,-0.600,-0.025
1465,-0.510,-0.050
1466,-0.570,-0.020
1467,-0.485,-0.025
1468,-0.715,0.150
1469,-0.365,0.500
1470,0.125,0.575
1471,0.925,0.860
1472,1.265,-0.530
1473,0.005,-1.385
1474,-0.915,-1.930
1475,-1.140,-2.490
1476,-0.690,-1.705
1477,-0.475,-0.770
1478,-0.475,-0.005
1479,-0.595,0.085
1480,-0.500,0.145
1481,-0.560,0.150
1482,-0.440,0.185
1483,-0.555,0.145
1484,-0.405,0.215
1485,-0.550,0.185
1486,-0.430,0.220
1487,-0.525,0.260
1488,-0.420,0.220
1489,-0.465,0.295
1490,-0.365,0.260
1491,-0.415,0.345
1492,-0.350,0.345
1493,-0.365,0.495
1494,-0.305,0.470
1495,-0.295,0.550
1496,-0.195,0.610
1497,-0.215,0.720
1498,-0.135,0.765
1499,-0.130,0.875
1500,-0.090,0.835
1501,-0.105,0.905
1502,-0.170,0.880
1503,-0.115,0.865
1504,-0.205,0.785
1505,-0.170,0.790
1506,-0.340,0.655
1507,-0.280,0.590
1508,-0.400,0.450
1509,-0.380,0.345
1510,-0.520,0.270
1511,-0.345,0.205
1512,-0.485,0.140
1513,-0.355,0.155
1514,-0.505,0.135
1515,-0.380,0.120
1516,-0.490,0.155
1517,-0.365,0.120
1518,-0.490,0.145
1519,-0.370,0.155
1520,-0.475,0.200
1521,-0.420,0.160
1522,-0.445,0.185
1523,-0.410,0.140
1524,-0.395,0.205
1525,-0.390,0.155
1526,-0.395,0.200
1527,-0.440,0.150
1528,-0.365,0.200
1529,-0.425,0.140
1530,-0.365,0.220
1531,-0.475,0.125
1532,-0.375,0.165
1533,-0.470,0.120
1534,-0.345,0.140
1535,-0.520,0.100
1536,-0.365,0.145
1537,-0.490,0.105
1538,-0.360,0.085
1539,-0.475,0.125
1540,-0.360,0.085
1541,-0.455,0.080
1542,-0.330,0.090
1543,-0.320,0.225
1544,-0.270,0.240
1545,-0.310,0.335
1546,-0.225,0.340
1547,-0.190,0.290
1548,-0.275,0.165
1549,-0.350,0.100
1550,-0.400,-0.025
1551,-0.370,0.035
1552,-0.515,-0.035
1553,-0.470,0.035
1554,-0.575,0.000
1555,-0.455,0.000
1556,-0.620,-0.040
1557,-0.495,-0.015
1558,-0.570,-0.045
1559,-0.375,-0.015
1560,-0.595,-0.030
1561,-0.575,0.155
1562,-0.400,0.520
1563,0.390,0.595
1564,1.065,0.450
1565,0.985,-1.005
1566,-0.410,-1.720
1567,-1.060,-2.275
1568,-0.970,-2.390
1569,-0.515,-1.275
1570,-0.445,-0.415
1571,-0.480,0.015
1572,-0.550,0.125
1573,-0.525,0.105
1574,-0.530,0.185
1575,-0.495,0.130
1576,-0.495,0.180
1577,-0.470,0.140
1578,-0.475,0.260
1579,-0.500,0.195
1580,-0.440,0.300
1581,-0.445,0.225
1582,-0.375,0.305
1583,-0.430,0.315
1584,-0.325,0.425
1585,-0.435,0.395
1586,-0.250,0.485
1587,-0.355,0.525
1588,-0.205,0.600
1589,-0.280,0.690
1590,-0.145,0.750
1591,-0.180,0.830
1592,-0.100,0.840
1593,-0.160,0.915
1594,-0.065,0.855
1595,-0.185,0.920
1596,-0.170,0.860
1597,-0.230,0.855
1598,-0.265,0.730
1599,-0.330,0.695
1600,-0.390,0.490
1601,-0.385,0.480
1602,-0.480,0.305
1603,-0.430,0.305
1604,-0.525,0.185
1605,-0.410,0.205
1606,-0.530,0.125
1607,-0.420,0.165
1608,-0.540,0.130
1609,-0.415,0.155
1610,-0.485,0.145
1611,-0.370,0.150
1612,-0.490,0.150
1613,-0.370,0.150
1614,-0.485,0.140
1615,-0.390,0.145
1616,-0.445,0.205
1617,-0.375,0.150
1618,-0.445,0.190
1619,-0.390,0.150
1620,-0.430,0.180
1621,-0.355,0.135
1622,-0.420,0.200
1623,-0.420,0.185
1624,-0.430,0.195
1625,-0.435,0.130
1626,-0.385,0.165
1627,-0.445,0.105
1628,-0.375,0.165
1629,-0.455,0.135
1630,-0.390,0.165
1631,-0.470,0.115
1632,-0.380,0.150
1633,-0.460,0.135
1634,-0.320,0.155
1635,-0.395,0.180
1636,-0.245,0.250
1637,-0.330,0.320
1638,-0.225,0.350
1639,-0.250,0.435
1640,-0.150,0.335
1641,-0.255,0.335
1642,-0.295,0.090
1643,-0.365,0.090
1644,-0.380,0.045
1645,-0.435,0.090
1646,-0.495,0.045
1647,-0.500,0.105
1648,-0.540,0.000
1649,-0.460,0.040
1650,-0.515,-0.030
1651,-0.405,0.040
1652,-0.510,0.000
1653,-0.400,0.045
1654,-0.595,0.110
1655,-0.450,0.470
1656,-0.060,0.585
1657,0.755,0.830
1658,1.245,-0.305
1659,0.590,-1.460
1660,-0.645,-2.095
1661,-1.030,-2.495
1662,-0.690,-1.835
1663,-0.380,-0.750
1664,-0.455,-0.005
1665,-0.485,0.090
1666,-0.430,0.230
1667,-0.495,0.170
1668,-0.390,0.285
1669,-0.475,0.245
1670,-0.365,0.300
1671,-0.495,0.285
1672,-0.380,0.305
1673,-0.480,0.275
1674,-0.320,0.330
1675,-0.415,0.365
1676,-0.305,0.380
1677,-0.380,0.420
1678,-0.290,0.435
1679,-0.335,0.520
1680,-0.245,0.515
1681,-0.225,0.685
1682,-0.195,0.670
1683,-0.130,0.780
1684,-0.190,0.780
1685,-0.040,0.930
1686,-0.135,0.905
1687,0.000,0.990
1688,-0.105,0.960
1689,0.000,0.990
1690,-0.135,0.940
1691,-0.085,0.915
1692,-0.275,0.765
1693,-0.230,0.705
1694,-0.390,0.580
1695,-0.310,0.460
1696,-0.435,0.380
1697,-0.330,0.310
1698,-0.465,0.245
1699,-0.390,0.190
1700,-0.445,0.175
1701,-0.390,0.110
1702,-0.425,0.125
1703,-0.345,0.060
1704,-0.385,0.160
1705,-0.380,0.085
1706,-0.335,0.140
1707,-0.415,0.110
1708,-0.360,0.175
1709,-0.460,0.110
1710,-0.330,0.210
1711,-0.420,0.150
1712,-0.280,0.160
1713,-0.430,0.145
1714,-0.335,0.210
1715,-0.475,0.135
1716,-0.345,0.175
1717,-0.480,0.100
1718,-0.330,0.115
1719,-0.400,0.105
1720,-0.355,0.085
1721,-0.415,0.110
1722,-0.365,0.045
1723,-0.380,0.100
1724,-0.385,0.055
1725,-0.410,0.110
1726,-0.435,0.040
1727,-0.385,0.105
1728,-0.410,0.045
1729,-0.260,0.135
1730,-0.330,0.105
1731,-0.230,0.230
1732,-0.340,0.220
1733,-0.120,0.320
1734,-0.220,0.265
1735,-0.155,0.180
1736,-0.330,0.100
1737,-0.270,0.005
1738,-0.365,0.005
1739,-0.385,-0.020
1740,-0.500,0.005
1741,-0.510,-0.020
1742,-0.505,0.005
1743,-0.480,-0.020
1744,-0.485,-0.025
1745,-0.455,-0.090
1746,-0.450,-0.015
1747,-0.470,-0.075
1748,-0.500,0.025
1749,-0.605,0.315
1750,-0.065,0.560
1751,0.615,0.795
1752,1.400,0.035
1753,0.710,-1.235
1754,-0.405,-1.805
1755,-1.125,-2.320
1756,-0.725,-2.120
1757,-0.495,-1.075
1758,-0.320,-0.250
1759,-0.500,0.065
1760,-0.410,0.125
1761,-0.500,0.175
1762,-0.400,0.165
1763,-0.430,0.185
1764,-0.355,0.155
1765,-0.420,0.200
1766,-0.315,0.205
1767,-0.385,0.250
1768,-0.335,0.190
1769,-0.300,0.310
1770,-0.345,0.225
1771,-0.270,0.335
1772,-0.310,0.330
1773,-0.205,0.420
1774,-0.270,0.435
1775,-0.130,0.530
1776,-0.210,0.570
1777,-0.080,0.675
1778,-0.155,0.695
1779,0.010,0.785
1780,-0.060,0.800
1781,0.030,0.850
1782,-0.075,0.825
1783,-0.005,0.805
1784,-0.080,0.820
1785,-0.095,0.735
1786,-0.165,0.705
1787,-0.245,0.545
1788,-0.275,0.505
1789,-0.345,0.360
1790,-0.300,0.340
1791,-0.445,0.220
1792,-0.355,0.200
1793,-0.410,0.095
1794,-0.305,0.135
1795,-0.415,0.085
1796,-0.285,0.100
1797,-0.395,0.050
1798,-0.290,0.100
1799,-0.410,0.080
1800,-0.300,0.055
1801,-0.380,0.075
1802,-0.245,0.080
1803,-0.355,0.130
1804,-0.325,0.105
1805,-0.340,0.155
1806,-0.365,0.095
1807,-0.365,0.140
1808,-0.315,0.100
1809,-0.290,0.145
1810,-0.365,0.065
1811,-0.315,0.155
1812,-0.425,0.055
1813,-0.290,0.120
1814,-0.350,0.060
1815,-0.290,0.100
1816,-0.380,0.005
1817,-0.355,0.080
1818,-0.450,0.020
1819,-0.300,0.050
1820,-0.425,0.020
1821,-0.320,0.015
1822,-0.450,0.045
1823,-0.255,0.080
1824,-0.310,0.110
1825,-0.160,0.195
1826,-0.285,0.255
1827,-0.135,0.255
1828,-0.205,0.215
1829,-0.215,0.095
1830,-0.335,0.005
1831,-0.300,-0.075
1832,-0.370,-0.030
1833,-0.470,-0.135
1834,-0.430,0.000
1835,-0.515,-0.100
1836,-0.460,-0.090
1837,-0.540,-0.165
1838,-0.400,-0.085
1839,-0.485,-0.155
1840,-0.360,-0.070
1841,-0.525,-0.115
1842,-0.505,0.045
1843,-0.440,0.415
1844,0.225,0.475
1845,0.935,0.685
1846,1.325,-0.615
1847,0.130,-1.445
1848,-0.835,-2.055
1849,-1.020,-2.425
1850,-0.560,-1.785
1851,-0.385,-0.770
1852,-0.445,-0.150
1853,-0.460,0.055
1854,-0.470,0.035
1855,-0.405,0.165
1856,-0.470,0.105
1857,-0.310,0.130
1858,-0.460,0.110
1859,-0.335,0.165
1860,-0.455,0.150
1861,-0.340,0.185
1862,-0.440,0.190
1863,-0.280,0.215
1864,-0.365,0.235
1865,-0.260,0.285
1866,-0.340,0.340
1867,-0.165,0.365
1868,-0.240,0.465
1869,-0.205,0.485
1870,-0.215,0.585
1871,-0.130,0.620
1872,-0.075,0.720
1873,-0.090,0.710
1874,-0.010,0.815
1875,-0.055,0.790
1876,0.000,0.870
1877,-0.115,0.790
1878,-0.025,0.825
1879,-0.240,0.705
1880,-0.195,0.655
1881,-0.330,0.540
1882,-0.235,0.420
1883,-0.380,0.300
1884,-0.290,0.280
1885,-0.425,0.190
1886,-0.320,0.145
1887,-0.425,0.125
1888,-0.320,0.100
1889,-0.390,0.100
1890,-0.295,0.100
1891,-0.340,0.145
1892,-0.355,0.095
1893,-0.340,0.160
1894,-0.355,0.090
1895,-0.300,0.165
1896,-0.335,0.135
1897,-0.290,0.220
1898,-0.355,0.125
1899,-0.230,0.170
1900,-0.370,0.120
1901,-0.230,0.160
1902,-0.350,0.135
1903,-0.200,0.175
1904,-0.345,0.155
1905,-0.240,0.135
1906,-0.380,0.145
1907,-0.265,0.110
1908,-0.325,0.160
1909,-0.300,0.090
1910,-0.355,0.135
1911,-0.295,0.085
1912,-0.310,0.110
1913,-0.330,0.060
1914,-0.275,0.115
1915,-0.360,0.045
1916,-0.250,0.070
1917,-0.325,0.055
1918,-0.155,0.165
1919,-0.260,0.210
1920,-0.110,0.340
1921,-0.170,0.325
1922,-0.050,0.270
1923,-0.230,0.195
1924,-0.200,0.060
1925,-0.280,0.000
1926,-0.260,0.010
1927,-0.335,0.040
1928,-0.375,-0.010
1929,-0.405,0.030
1930,-0.445,-0.070
1931,-0.375,-0.050
1932,-0.425,-0.100
1933,-0.345,-0.035
1934,-0.415,-0.095
1935,-0.285,-0.025
1936,-0.515,-0.005
1937,-0.360,0.385
1938,-0.025,0.505
1939,0.805,0.810
1940,1.310,-0.100
1941,0.855,-1.355
1942,-0.470,-1.930
1943,-0.980,-2.415
1944,-0.670,-2.105
1945,-0.365,-1.090
1946,-0.340,-0.190
1947,-0.390,0.015
1948,-0.375,0.125
1949,-0.410,0.080
1950,-0.360,0.160
1951,-0.405,0.110
1952,-0.300,0.185
1953,-0.375,0.165
1954,-0.280,0.170
1955,-0.410,0.170
1956,-0.255,0.235
1957,-0.370,0.240
1958,-0.235,0.275
1959,-0.340,0.320
1960,-0.215,0.345
1961,-0.250,0.385
1962,-0.195,0.415
1963,-0.215,0.535
1964,-0.160,0.555
1965,-0.115,0.700
1966,-0.060,0.685
1967,-0.010,0.810
1968,-0.030,0.775
1969,0.050,0.850
1970,-0.070,0.800
1971,0.060,0.890
1972,-0.105,0.865
1973,-0.015,0.825
1974,-0.170,0.735
1975,-0.140,0.610
1976,-0.260,0.540
1977,-0.265,0.390
1978,-0.310,0.345
1979,-0.335,0.230
1980,-0.320,0.245
1981,-0.370,0.115
1982,-0.295,0.125
1983,-0.390,0.040
1984,-0.285,0.100
1985,-0.420,0.000
1986,-0.245,0.050
1987,-0.385,0.070
1988,-0.305,0.065
1989,-0.375,0.065
1990,-0.290,0.065
1991,-0.340,0.105
1992,-0.310,0.070
1993,-0.290,0.095
1994,-0.295,0.070
1995,-0.295,0.145
1996,-0.315,0.085
1997,-0.275,0.125
1998,-0.355,0.080
1999,-0.270,0.095
2000,-0.385,0.045
2001,-0.260,0.090
2002,-0.390,0.035
2003,-0.275,0.065
2004,-0.415,0.060
2005,-0.280,0.040
2006,-0.420,0.045
2007,-0.270,0.020
2008,-0.385,0.030
2009,-0.300,0.020
2010,-0.355,0.035
2011,-0.280,0.020
2012,-0.260,0.110
2013,-0.200,0.150
2014,-0.195,0.265
2015,-0.170,0.225
2016,-0.080,0.330
2017,-0.130,0.175
2018,-0.170,0.150
2019,-0.290,-0.010
2020,-0.235,0.000
2021,-0.355,-0.045
2022,-0.320,-0.015
2023,-0.475,-0.045
2024,-0.340,0.000
2025,-0.465,-0.060
2026,-0.315,-0.030
2027,-0.470,-0.085
2028,-0.315,-0.070
2029,-0.450,-0.055
2030,-0.360,-0.085
2031,-0.545,0.150
2032,-0.210,0.500
2033,0.320,0.610
2034,1.090,0.420
2035,1.370,-0.995
2036,0.280,-1.860
2037,-0.675,-2.330
2038,-0.830,-2.590
2039,-0.425,-1.640
2040,-0.335,-0.665
2041,-0.320,-0.050
2042,-0.460,0.040
2043,-0.300,0.075
2044,-0.430,0.110
2045,-0.320,0.135
2046,-0.360,0.160
2047,-0.235,0.140
2048,-0.335,0.195
2049,-0.260,0.205
2050,-0.335,0.250
2051,-0.270,0.205
2052,-0.295,0.290
2053,-0.220,0.260
2054,-0.210,0.375
2055,-0.220,0.315
2056,-0.115,0.415
2057,-0.170,0.450
2058,-0.065,0.560
2059,-0.125,0.585
2060,0.040,0.670
2061,-0.005,0.730
2062,0.070,0.815
2063,-0.020,0.825
2064,0.135,0.880
2065,0.010,0.845
2066,0.100,0.845
2067,-0.045,0.825
2068,-0.015,0.725
2069,-0.175,0.665
2070,-0.120,0.560
2071,-0.230,0.490
2072,-0.240,0.315
2073,-0.275,0.280
2074,-0.280,0.145
2075,-0.265,0.170
2076,-0.305,0.065
2077,-0.235,0.080
2078,-0.315,0.005
2079,-0.300,0.050
2080,-0.355,0.010
2081,-0.245,0.070
2082,-0.290,0.005
2083,-0.210,0.055
2084,-0.340,0.025
2085,-0.215,0.095
2086,-0.325,0.095
2087,-0.240,0.075
2088,-0.375,0.080
2089,-0.260,0.095
2090,-0.340,0.060
2091,-0.260,0.060
2092,-0.320,0.060
2093,-0.285,-0.010
2094,-0.320,0.025
2095,-0.310,0.010
2096,-0.330,0.055
2097,-0.325,-0.015
2098,-0.290,0.020
2099,-0.315,-0.020
2100,-0.310,0.000
2101,-0.365,-0.050
2102,-0.265,0.005
2103,-0.340,-0.010
2104,-0.285,-0.005
2105,-0.390,-0.025
2106,-0.155,0.010
2107,-0.290,0.075
2108,-0.105,0.170
2109,-0.235,0.175
2110,-0.035,0.205
2111,-0.150,0.160
2112,-0.155,0.105
2113,-0.290,0.000
2114,-0.220,-0.115
2115,-0.290,-0.055
2116,-0.315,-0.105
2117,-0.415,-0.030
2118,-0.475,-0.170
2119,-0.420,-0.105
2120,-0.415,-0.170
2121,-0.315,-0.135
2122,-0.420,-0.170
2123,-0.305,-0.120
2124,-0.445,-0.135
2125,-0.455,-0.010
2126,-0.430,0.355
2127,0.220,0.485
2128,0.880,0.770
2129,1.405,-0.450
2130,0.220,-1.395
2131,-0.665,-1.995
2132,-1.000,-2.475
2133,-0.505,-1.755
2134,-0.355,-0.820
2135,-0.315,-0.155
2136,-0.410,0.000
2137,-0.380,0.000
2138,-0.410,0.095
2139,-0.365,0.045
2140,-0.290,0.120
2141,-0.360,0.075
2142,-0.315,0.130
2143,-0.345,0.125
2144,-0.290,0.165
2145,-0.320,0.145
2146,-0.225,0.235
2147,-0.260,0.220
2148,-0.130,0.285
2149,-0.255,0.290
2150,-0.120,0.385
2151,-0.210,0.420
2152,-0.025,0.490
2153,-0.130,0.585
2154,0.035,0.625
2155,-0.050,0.705
2156,0.080,0.740
2157,0.015,0.815
2158,0.060,0.770
2159,-0.005,0.815
2160,0.045,0.755
2161,0.010,0.785
2162,-0.035,0.680
2163,-0.110,0.610
2164,-0.230,0.460
2165,-0.185,0.405
2166,-0.255,0.265
2167,-0.210,0.230
2168,-0.325,0.125
2169,-0.250,0.140
2170,-0.390,0.005
2171,-0.255,0.060
2172,-0.380,0.040
2173,-0.240,0.025
2174,-0.370,0.050
2175,-0.205,0.015
2176,-0.310,0.050
2177,-0.250,0.070
2178,-0.320,0.085
2179,-0.215,0.070
2180,-0.280,0.095
2181,-0.320,0.055
2182,-0.275,0.115
2183,-0.230,0.040
2184,-0.265,0.095
2185,-0.310,0.020
2186,-0.235,0.065
2187,-0.300,0.030
2188,-0.220,0.045
2189,-0.330,0.005
2190,-0.225,0.035
2191,-0.350,0.000
2192,-0.270,0.010
2193,-0.280,-0.005
2194,-0.200,-0.040
2195,-0.350,-0.010
2196,-0.245,0.000
2197,-0.345,-0.020
2198,-0.240,-0.070
2199,-0.225,0.005
2200,-0.115,0.005
2201,-0.185,0.145
2202,-0.130,0.130
2203,-0.065,0.220
2204,-0.045,0.140
2205,-0.050,0.115
2206,-0.265,-0.065
2207,-0.220,-0.110
2208,-0.325,-0.180
2209,-0.295,-0.135
2210,-0.455,-0.160
2211,-0.365,-0.145
2212,-0.475,-0.200
2213,-0.335,-0.200
2214,-0.445,-0.225
2215,-0.350,-0.215
2216,-0.435,-0.225
2217,-0.300,-0.170
2218,-0.545,-0.125
2219,-0.415,0.275
2220,-0.010,0.375
2221,0.795,0.660
2222,1.360,-0.290
2223,0.695,-1.460
2224,-0.475,-1.945
2225,-1.040,-2.485
2226,-0.635,-2.170
2227,-0.415,-1.190
2228,-0.295,-0.310
2229,-0.470,-0.085
2230,-0.350,0.005
2231,-0.420,-0.040
2232,-0.320,0.010
2233,-0.410,0.025
2234,-0.270,0.030
2235,-0.420,0.040
2236,-0.285,0.025
2237,-0.370,0.115
2238,-0.260,0.110
2239,-0.300,0.145
2240,-0.260,0.115
2241,-0.260,0.215
2242,-0.240,0.175
2243,-0.190,0.285
2244,-0.255,0.275
2245,-0.105,0.415
2246,-0.140,0.445
2247,-0.035,0.520
2248,-0.095,0.550
2249,0.000,0.675
2250,-0.100,0.660
2251,0.050,0.725
2252,-0.055,0.740
2253,0.055,0.720
2254,-0.085,0.700
2255,-0.030,0.640
2256,-0.160,0.585
2257,-0.150,0.455
2258,-0.240,0.395
2259,-0.275,0.215
2260,-0.320,0.190
2261,-0.345,0.065
2262,-0.310,0.065
2263,-0.335,-0.010
2264,-0.305,0.015
2265,-0.370,-0.055
2266,-0.280,0.010
2267,-0.345,-0.050
2268,-0.235,0.000
2269,-0.360,-0.055
2270,-0.250,0.000
2271,-0.360,0.000
2272,-0.225,0.010
2273,-0.310,0.010
2274,-0.205,-0.025
2275,-0.300,0.000
2276,-0.235,0.010
2277,-0.275,0.055
2278,-0.210,0.015
2279,-0.220,0.095
2280,-0.295,0.020
2281,-0.295,0.065
2282,-0.275,0.025
2283,-0.205,0.080
2284,-0.315,-0.035
2285,-0.155,0.055
2286,-0.305,-0.025
2287,-0.190,0.030
2288,-0.335,0.035
2289,-0.215,-0.005
2290,-0.325,-0.005
2291,-0.230,-0.010
2292,-0.310,0.005
2293,-0.205,-0.010
2294,-0.170,0.090
2295,-0.155,0.120
2296,-0.135,0.220
2297,-0.105,0.210
2298,-0.035,0.270
2299,-0.125,0.145
2300,-0.105,0.080
2301,-0.255,-0.095
2302,-0.175,-0.070
2303,-0.345,-0.110
2304,-0.325,-0.115
2305,-0.465,-0.100
2306,-0.295,-0.070
2307,-0.415,-0.135
2308,-0.315,-0.145
2309,-0.415,-0.135
2310,-0.290,-0.135
2311,-0.360,-0.110
2312,-0.305,-0.090
2313,-0.430,0.235
2314,-0.010,0.400
2315,0.660,0.695
2316,1.305,-0.005
2317,1.025,-1.320
2318,-0.245,-1.985
2319,-0.890,-2.375
2320,-0.695,-2.370
2321,-0.320,-1.165
2322,-0.330,-0.415
2323,-0.305,0.030
2324,-0.410,0.070
2325,-0.275,0.105
2326,-0.410,0.085
2327,-0.230,0.125
2328,-0.355,0.115
2329,-0.220,0.125
2330,-0.340,0.125
2331,-0.235,0.185
2332,-0.325,0.190
2333,-0.195,0.220
2334,-0.280,0.255
2335,-0.185,0.270
2336,-0.230,0.340
2337,-0.195,0.335
2338,-0.160,0.475
2339,-0.145,0.435
2340,-0.080,0.575
2341,-0.080,0.590
2342,0.025,0.705
2343,-0.050,0.705
2344,0.085,0.810
2345,-0.025,0.790
2346,0.105,0.845
2347,-0.040,0.805
2348,0.050,0.810
2349,-0.125,0.695
2350,-0.060,0.670
2351,-0.245,0.520
2352,-0.160,0.435
2353,-0.335,0.325
2354,-0.230,0.235
2355,-0.365,0.190
2356,-0.310,0.120
2357,-0.350,0.090
2358,-0.300,0.005
2359,-0.320,0.050
2360,-0.295,-0.015
2361,-0.300,0.025
2362,-0.305,-0.020
2363,-0.300,0.035
2364,-0.335,-0.025
2365,-0.260,0.055
2366,-0.325,-0.005
2367,-0.240,0.080
2368,-0.365,0.040
2369,-0.250,0.100
2370,-0.365,0.055
2371,-0.240,0.110
2372,-0.385,0.060
2373,-0.275,0.065
2374,-0.410,0.055
2375,-0.285,0.050
2376,-0.385,0.060
2377,-0.320,0.005
2378,-0.400,0.030
2379,-0.280,0.010
2380,-0.335,0.005
2381,-0.270,-0.015
2382,-0.315,0.035
2383,-0.320,0.000
2384,-0.360,0.045
2385,-0.360,0.010
2386,-0.235,0.060
2387,-0.230,0.045
2388,-0.135,0.215
2389,-0.240,0.175
2390,-0.060,0.295
2391,-0.110,0.180
2392,-0.045,0.190
2393,-0.290,0.000
2394,-0.230,-0.055
2395,-0.320,-0.090
2396,-0.295,-0.065
2397,-0.470,-0.110
2398,-0.415,-0.075
2399,-0.500,-0.140
2400,-0.345,-0.110
2401,-0.450,-0.135
2402,-0.340,-0.115
2403,-0.405,-0.115
2404,-0.330,-0.110
2405,-0.520,0.025
2406,-0.310,0.405
2407,0.155,0.460
2408,1.025,0.685
2409,1.400,-0.840
2410,0.350,-1.755
2411,-0.730,-2.305
2412,-0.855,-2.675
2413,-0.565,-1.635
2414,-0.335,-0.640
2415,-0.355,-0.050
2416,-0.390,0.025
2417,-0.410,0.095
2418,-0.420,0.055
2419,-0.375,0.125
2420,-0.385,0.095
2421,-0.275,0.170
2422,-0.385,0.105
2423,-0.280,0.160
2424,-0.370,0.140
2425,-0.225,0.210
2426,-0.350,0.195
2427,-0.205,0.255
2428,-0.300,0.295
2429,-0.115,0.320
2430,-0.210,0.360
2431,-0.090,0.435
2432,-0.170,0.490
2433,-0.025,0.535
2434,-0.110,0.650
2435,0.050,0.670
2436,0.070,0.745
2437,0.095,0.740
2438,0.085,0.825
2439,0.060,0.750
2440,0.110,0.805
2441,-0.045,0.715
2442,-0.015,0.670
2443,-0.175,0.525
2444,-0.100,0.515
2445,-0.245,0.325
2446,-0.195,0.280
2447,-0.330,0.140
2448,-0.235,0.095
2449,-0.365,0.015
2450,-0.215,0.050
2451,-0.300,0.000
2452,-0.160,0.005
2453,-0.385,-0.035
2454,-0.225,-0.025
2455,-0.330,0.020
2456,-0.205,-0.005
2457,-0.265,0.020
2458,-0.245,0.015
2459,-0.290,0.055
2460,-0.225,0.010
2461,-0.255,0.055
2462,-0.245,0.010
2463,-0.255,0.030
2464,-0.285,-0.010
2465,-0.265,0.055
2466,-0.295,-0.040
2467,-0.275,0.015
2468,-0.320,-0.035
2469,-0.270,0.000
2470,-0.340,-0.070
2471,-0.230,-0.020
2472,-0.375,-0.080
2473,-0.250,-0.015
2474,-0.365,-0.075
2475,-0.250,-0.010
2476,-0.415,-0.055
2477,-0.195,-0.040
2478,-0.360,-0.090
2479,-0.260,-0.080
2480,-0.330,-0.060
2481,-0.160,-0.005
2482,-0.215,0.045
2483,-0.190,0.105
2484,-0.190,0.200
2485,-0.030,0.155
2486,-0.075,0.105
2487,-0.205,-0.035
2488,-0.255,-0.095
2489,-0.320,-0.165
2490,-0.285,-0.090
2491,-0.480,-0.155
2492,-0.360,-0.095
2493,-0.475,-0.195
2494,-0.325,-0.120
2495,-0.505,-0.220
2496,-0.350,-0.190
2497,-0.435,-0.200
2498,-0.300,-0.160
2499,-0.480,-0.165
2500,-0.380,0.230
2501,-0.090,0.380
2502,0.675,0.635
2503,1.250,0.095
2504,1.010,-1.230
2505,-0.300,-1.755
2506,-1.035,-2.305
2507,-0.780,-2.325
2508,-0.475,-1.425
2509,-0.250,-0.505
2510,-0.455,-0.100
2511,-0.380,0.015
2512,-0.415,-0.020
2513,-0.325,0.060
2514,-0.445,0.040
2515,-0.260,0.095
2516,-0.380,0.055
2517,-0.280,0.120
2518,-0.370,0.040
2519,-0.225,0.140
2520,-0.380,0.155
2521,-0.210,0.200
2522,-0.265,0.240
2523,-0.205,0.245
2524,-0.240,0.300
2525,-0.115,0.335
2526,-0.105,0.415
2527,-0.035,0.445
2528,-0.070,0.560
2529,0.000,0.605
2530,0.000,0.705
2531,0.030,0.705
2532,0.070,0.800
2533,0.035,0.730
2534,0.065,0.805
2535,-0.015,0.715
2536,0.045,0.730
2537,-0.210,0.570
2538,-0.090,0.560
2539,-0.260,0.425
2540,-0.185,0.340
2541,-0.380,0.245
2542,-0.225,0.175
2543,-0.335,0.115
2544,-0.220,0.075
2545,-0.295,0.070
2546,-0.210,0.050
2547,-0.310,0.045
2548,-0.260,0.015
2549,-0.295,0.080
2550,-0.255,0.030
2551,-0.255,0.080
2552,-0.305,0.045
2553,-0.200,0.125
2554,-0.280,0.045
2555,-0.170,0.135
2556,-0.335,0.070
2557,-0.180,0.115
2558,-0.350,0.080
2559,-0.200,0.125
2560,-0.335,0.100
2561,-0.190,0.105
2562,-0.330,0.085
2563,-0.180,0.035
2564,-0.270,0.080
2565,-0.220,0.035
2566,-0.250,0.090
2567,-0.250,0.055
2568,-0.275,0.075
2569,-0.320,0.010
2570,-0.245,0.070
2571,-0.325,0.025
2572,-0.255,0.070
2573,-0.330,0.030
2574,-0.120,0.075
2575,-0.210,0.100
2576,-0.050,0.195
2577,-0.165,0.235
2578,-0.030,0.290
2579,-0.065,0.295
2580,-0.045,0.160
2581,-0.190,0.080
2582,-0.210,-0.080
2583,-0.240,-0.005
2584,-0.315,-0.070
2585,-0.370,-0.020
2586,-0.435,-0.100
2587,-0.350,-0.080
2588,-0.440,-0.160
2589,-0.285,-0.100
2590,-0.365,-0.140
2591,-0.245,-0.080
2592,-0.390,-0.090
2593,-0.370,-0.065
2594,-0.495,0.230
2595,0.035,0.425
2596,0.700,0.665
2597,1.415,-0.155
2598,0.805,-1.415
2599,-0.455,-2.010
2600,-1.030,-2.465
2601,-0.605,-2.255
2602,-0.360,-1.060
2603,-0.295,-0.315
2604,-0.380,0.030
2605,-0.385,0.000
2606,-0.300,0.085
2607,-0.390,0.020
2608,-0.280,0.110
2609,-0.370,0.070
2610,-0.235,0.130
2611,-0.330,0.095
2612,-0.235,0.160
2613,-0.345,0.170
2614,-0.230,0.185
2615,-0.315,0.230
2616,-0.190,0.250
2617,-0.275,0.275
2618,-0.130,0.370
2619,-0.195,0.430
2620,-0.095,0.445
2621,-0.075,0.555
2622,-0.035,0.570
2623,0.005,0.710
2624,-0.010,0.660
2625,0.025,0.810
2626,0.000,0.780
2627,0.080,0.855
2628,-0.030,0.825
2629,0.040,0.825
2630,-0.095,0.725
2631,-0.065,0.640
2632,-0.210,0.505
2633,-0.120,0.425
2634,-0.270,0.285
2635,-0.200,0.225
2636,-0.320,0.175
2637,-0.260,0.085
2638,-0.320,0.065
2639,-0.290,0.000
2640,-0.275,0.030
2641,-0.255,-0.005
2642,-0.220,0.030
2643,-0.270,-0.020
2644,-0.255,0.030
2645,-0.300,0.005
2646,-0.230,0.100
2647,-0.280,0.010
2648,-0.195,0.100
2649,-0.295,0.035
2650,-0.170,0.120
2651,-0.290,0.025
2652,-0.215,0.080
2653,-0.280,0.050
2654,-0.155,0.085
2655,-0.305,0.055
2656,-0.195,0.060
2657,-0.295,0.070
2658,-0.205,0.060
2659,-0.275,0.060
2660,-0.210,0.060
2661,-0.295,0.080
2662,-0.215,0.040
2663,-0.300,0.025
2664,-0.230,0.020
2665,-0.280,0.065
2666,-0.230,0.000
2667,-0.205,0.065
2668,-0.140,0.075
2669,-0.135,0.230
2670,-0.130,0.210
2671,-0.040,0.355
2672,-0.060,0.250
2673,0.000,0.235
2674,-0.190,0.070
2675,-0.140,0.010
2676,-0.275,-0.050
2677,-0.220,0.010
2678,-0.390,-0.040
2679,-0.290,-0.035
2680,-0.390,-0.065
2681,-0.285,-0.070
2682,-0.355,-0.080
2683,-0.260,-0.080
2684,-0.340,-0.060
2685,-0.245,-0.095
2686,-0.325,0.000
2687,-0.415,0.255
2688,-0.050,0.550
2689,0.565,0.650
2690,1.345,0.145
2691,1.210,-1.390
2692,0.015,-1.935
2693,-0.865,-2.440
2694,-0.570,-2.345
2695,-0.380,-1.215
2696,-0.170,-0.305
2697,-0.370,0.010
2698,-0.235,0.105
2699,-0.335,0.100
2700,-0.210,0.120
2701,-0.280,0.140
2702,-0.220,0.145
2703,-0.305,0.190
2704,-0.215,0.215
2705,-0.245,0.250
2706,-0.210,0.180
2707,-0.215,0.270
2708,-0.210,0.235
2709,-0.160,0.340
2710,-0.170,0.320
2711,-0.135,0.455
2712,-0.125,0.445
2713,-0.020,0.585
2714,-0.070,0.595
2715,0.025,0.705
2716,0.000,0.730
2717,0.080,0.825
2718,0.035,0.820
2719,0.150,0.920
2720,0.035,0.890
2721,0.130,0.910
2722,-0.030,0.875
2723,0.005,0.805
2724,-0.150,0.700
2725,-0.080,0.605
2726,-0.205,0.500
2727,-0.160,0.375
2728,-0.275,0.285
2729,-0.235,0.185
2730,-0.290,0.155
2731,-0.230,0.060
2732,-0.245,0.080
2733,-0.190,0.000
2734,-0.210,0.050
2735,-0.230,-0.005
2736,-0.220,0.045
2737,-0.290,-0.025
2738,-0.175,0.075
2739,-0.280,0.035
2740,-0.140,0.080
2741,-0.265,0.060
2742,-0.145,0.120
2743,-0.270,0.065
2744,-0.185,0.115
2745,-0.285,0.095
2746,-0.170,0.070
2747,-0.250,0.060
2748,-0.175,0.065
2749,-0.295,0.065
2750,-0.265,0.020
2751,-0.265,0.065
2752,-0.220,0.010
2753,-0.220,0.065
2754,-0.305,-0.025
2755,-0.220,0.045
2756,-0.310,-0.025
2757,-0.180,0.030
2758,-0.290,-0.030
2759,-0.200,-0.005
2760,-0.280,-0.005
2761,-0.080,0.025
2762,-0.185,0.090
2763,-0.085,0.145
2764,-0.190,0.220
2765,0.010,0.240
2766,-0.075,0.165
2767,-0.085,0.055
2768,-0.215,-0.035
2769,-0.180,-0.115
2770,-0.250,-0.055
2771,-0.360,-0.140
2772,-0.320,-0.055
2773,-0.380,-0.125
2774,-0.330,-0.085
2775,-0.400,-0.180
2776,-0.265,-0.090
2777,-0.385,-0.190
2778,-0.285,-0.100
2779,-0.360,-0.125
2780,-0.370,0.150
2781,-0.245,0.400
2782,0.470,0.560
2783,1.145,0.450
2784,1.405,-0.995
2785,0.100,-1.700
2786,-0.680,-2.230
2787,-0.790,-2.425
2788,-0.445,-1.620
2789,-0.265,-0.645
2790,-0.275,-0.090
2791,-0.330,0.040
2792,-0.340,0.025
2793,-0.280,0.125
2794,-0.330,0.055
2795,-0.235,0.150
2796,-0.300,0.090
2797,-0.200,0.165
2798,-0.265,0.120
2799,-0.150,0.210
2800,-0.280,0.185
2801,-0.165,0.255
2802,-0.255,0.215
2803,-0.080,0.305
2804,-0.205,0.340
2805,-0.055,0.405
2806,-0.120,0.420
2807,-0.035,0.495
2808,-0.035,0.565
2809,0.020,0.615
2810,0.050,0.720
2811,0.050,0.690
2812,0.110,0.815
2813,0.105,0.795
2814,0.175,0.810
2815,0.035,0.750
2816,0.080,0.760
2817,-0.115,0.655
2818,-0.005,0.630
2819,-0.200,0.475
2820,-0.085,0.410
2821,-0.245,0.280
2822,-0.165,0.220
2823,-0.315,0.150
2824,-0.205,0.095
2825,-0.260,0.085
2826,-0.235,0.050
2827,-0.245,0.075
2828,-0.200,0.020
2829,-0.190,0.075
2830,-0.270,0.020
2831,-0.200,0.070
2832,-0.230,0.010
2833,-0.160,0.105
2834,-0.215,0.060
2835,-0.130,0.115
2836,-0.275,0.040
2837,-0.115,0.145
2838,-0.265,0.065
2839,-0.085,0.125
2840,-0.235,0.085
2841,-0.140,0.075
2842,-0.285,0.045
2843,-0.185,0.060
2844,-0.230,0.070
2845,-0.200,0.015
2846,-0.240,0.055
2847,-0.200,0.000
2848,-0.240,0.040
2849,-0.250,-0.010
2850,-0.260,0.030
2851,-0.250,-0.020
2852,-0.155,0.030
2853,-0.290,-0.045
2854,-0.190,0.005
2855,-0.250,0.000
2856,-0.040,0.055
2857,-0.235,0.115
2858,-0.045,0.180
2859,-0.180,0.220
2860,0.000,0.255
2861,-0.090,0.150
2862,-0.045,0.045
2863,-0.200,-0.055
2864,-0.175,-0.095
2865,-0.255,-0.050
2866,-0.375,-0.110
2867,-0.360,-0.075
2868,-0.395,-0.145
2869,-0.350,-0.140
2870,-0.410,-0.175
2871,-0.245,-0.115
2872,-0.370,-0.190
2873,-0.255,-0.120
2874,-0.435,-0.110
2875,-0.440,0.045
2876,-0.355,0.410
2877,0.305,0.425
2878,1.045,0.770
2879,1.515,-0.725
2880,0.370,-1.495
2881,-0.720,-2.080
2882,-0.930,-2.395
2883,-0.565,-1.975
2884,-0.240,-0.905
2885,-0.305,-0.255
2886,-0.275,0.005
2887,-0.420,0.010
2888,-0.255,0.080
2889,-0.325,0.080
2890,-0.250,0.105
2891,-0.380,0.100
2892,-0.305,0.105
2893,-0.300,0.145
2894,-0.245,0.135
2895,-0.270,0.190
2896,-0.220,0.155
2897,-0.200,0.255
2898,-0.225,0.225
2899,-0.190,0.315
2900,-0.225,0.345
2901,-0.125,0.465
2902,-0.155,0.420
2903,-0.030,0.575
2904,-0.125,0.590
2905,0.095,0.700
2906,0.010,0.690
2907,0.115,0.800
2908,-0.015,0.800
2909,0.100,0.825
2910,-0.010,0.800
2911,0.015,0.795
2912,-0.130,0.720
2913,-0.065,0.625
2914,-0.185,0.530
2915,-0.155,0.410
2916,-0.255,0.335
2917,-0.220,0.210
2918,-0.305,0.190
2919,-0.270,0.100
2920,-0.290,0.115
2921,-0.270,0.050
2922,-0.240,0.075
2923,-0.280,0.040
2924,-0.175,0.085
2925,-0.255,0.000
2926,-0.205,0.080
2927,-0.325,0.050
2928,-0.160,0.105
2929,-0.270,0.065
2930,-0.155,0.120
2931,-0.280,0.095
2932,-0.150,0.165
2933,-0.255,0.130
2934,-0.150,0.145
2935,-0.270,0.115
2936,-0.145,0.105
2937,-0.265,0.120
2938,-0.190,0.095
2939,-0.215,0.115
2940,-0.210,0.045
2941,-0.205,0.105
2942,-0.230,0.055
2943,-0.215,0.100
2944,-0.265,0.035
2945,-0.185,0.085
2946,-0.270,0.010
2947,-0.215,0.070
2948,-0.335,0.000
2949,-0.185,0.075
2950,-0.230,0.070
2951,-0.085,0.145
2952,-0.160,0.185
2953,-0.025,0.275
2954,-0.045,0.295
2955,0.065,0.265
2956,-0.080,0.175
2957,-0.120,0.030
2958,-0.210,-0.025
2959,-0.160,-0.035
2960,-0.255,-0.060
2961,-0.300,-0.055
2962,-0.355,-0.025
2963,-0.335,-0.100
2964,-0.310,-0.055
2965,-0.320,-0.130
2966,-0.270,-0.065
2967,-0.270,-0.115
2968,-0.205,-0.050
2969,-0.395,0.000
2970,-0.200,0.475
2971,0.235,0.440
2972,1.075,0.725
2973,1.445,-0.700
2974,0.605,-1.605
2975,-0.580,-2.195
2976,-0.700,-2.430
2977,-0.475,-1.840
2978,-0.150,-0.765
2979,-0.295,-0.095
2980,-0.230,0.015
2981,-0.285,0.070
2982,-0.235,0.075
2983,-0.270,0.115
2984,-0.165,0.085
2985,-0.255,0.180
2986,-0.240,0.070
2987,-0.185,0.170
2988,-0.200,0.140
2989,-0.130,0.215
2990,-0.220,0.165
2991,-0.100,0.305
2992,-0.185,0.270
2993,-0.080,0.355
2994,-0.160,0.375
2995,-0.020,0.475
2996,-0.075,0.490
2997,0.065,0.595
2998,-0.020,0.635
2999,0.110,0.730
3000,0.055,0.780
3001,0.175,0.815
3002,0.085,0.830
3003,0.140,0.820
3004,0.070,0.870
3005,0.050,0.765
3006,0.030,0.730
3007,-0.070,0.580
3008,-0.050,0.540
3009,-0.210,0.390
3010,-0.140,0.365
3011,-0.275,0.225
3012,-0.160,0.205
3013,-0.305,0.065
3014,-0.170,0.110
3015,-0.295,0.005
3016,-0.155,0.025
3017,-0.260,0.000
3018,-0.155,0.020
3019,-0.230,0.005
3020,-0.160,0.035
3021,-0.215,0.055
3022,-0.160,0.020
3023,-0.180,0.075
3024,-0.195,0.035
3025,-0.145,0.120
3026,-0.195,0.075
3027,-0.140,0.135
3028,-0.220,0.040
3029,-0.140,0.135
3030,-0.235,0.055
3031,-0.140,0.095
3032,-0.245,0.040
3033,-0.150,0.095
3034,-0.270,0.015
3035,-0.140,0.070
3036,-0.265,0.030
3037,-0.165,0.020
3038,-0.270,0.020
3039,-0.175,0.025
3040,-0.220,0.015
3041,-0.160,0.025
3042,-0.210,0.005
3043,-0.110,0.025
3044,-0.105,0.130
3045,-0.055,0.140
3046,-0.080,0.265
3047,0.010,0.275
3048,0.025,0.255
3049,-0.080,0.125
3050,-0.115,0.035
3051,-0.185,-0.060
3052,-0.115,-0.010
3053,-0.295,-0.100
3054,-0.250,-0.005
3055,-0.395,-0.085
3056,-0.270,-0.045
3057,-0.370,-0.120
3058,-0.185,-0.075
3059,-0.300,-0.070
3060,-0.190,-0.060
3061,-0.300,-0.075
3062,-0.310,0.085
3063,-0.275,0.480
3064,0.340,0.575
3065,0.995,0.615
3066,1.450,-0.945
3067,0.370,-1.790
3068,-0.615,-2.350
3069,-0.715,-2.510
3070,-0.415,-1.545
3071,-0.165,-0.520
3072,-0.305,-0.045
3073,-0.250,0.120
3074,-0.340,0.060
3075,-0.225,0.160
3076,-0.295,0.100
3077,-0.180,0.175
3078,-0.290,0.135
3079,-0.160,0.220
3080,-0.255,0.185
3081,-0.145,0.230
3082,-0.250,0.240
3083,-0.125,0.280
3084,-0.220,0.310
3085,-0.080,0.360
3086,-0.145,0.415
3087,-0.080,0.445
3088,-0.080,0.545
3089,0.000,0.570
3090,0.020,0.635
3091,0.040,0.680
3092,0.125,0.780
3093,0.085,0.795
3094,0.195,0.885
3095,0.115,0.860
3096,0.225,0.915
3097,0.065,0.850
3098,0.160,0.855
3099,-0.005,0.735
3100,0.050,0.690
3101,-0.125,0.525
3102,-0.085,0.455
3103,-0.230,0.340
3104,-0.115,0.255
3105,-0.225,0.155
3106,-0.125,0.135
3107,-0.220,0.075
3108,-0.135,0.025
3109,-0.175,0.050
3110,-0.135,0.000
3111,-0.185,0.000
3112,-0.160,-0.015
3113,-0.150,0.065
3114,-0.180,0.005
3115,-0.160,0.110
3116,-0.155,0.030
3117,-0.120,0.125
3118,-0.160,0.065
3119,-0.145,0.085
3120,-0.210,0.015
3121,-0.140,0.100
3122,-0.245,0.040
3123,-0.120,0.030
3124,-0.240,0.010
3125,-0.135,0.020
3126,-0.245,-0.010
3127,-0.155,-0.015
3128,-0.235,-0.045
3129,-0.150,-0.030
3130,-0.240,-0.005
3131,-0.200,-0.045
3132,-0.240,-0.015
3133,-0.190,-0.055
3134,-0.210,-0.035
3135,-0.225,-0.055
3136,-0.125,0.010
3137,-0.120,0.000
3138,-0.035,0.135
3139,-0.145,0.100
3140,0.045,0.225
3141,-0.020,0.105
3142,0.025,0.095
3143,-0.175,-0.030
3144,-0.115,-0.115
3145,-0.260,-0.135
3146,-0.235,-0.115
3147,-0.375,-0.120
3148,-0.285,-0.145
3149,-0.315,-0.130
3150,-0.290,-0.165
3151,-0.270,-0.140
3152,-0.320,-0.210
3153,-0.280,-0.135
3154,-0.340,-0.190
3155,-0.240,-0.095
3156,-0.455,0.190
3157,0.060,0.415
3158,0.565,0.605
3159,1.415,0.120
3160,1.090,-1.270
3161,-0.095,-1.880
3162,-0.875,-2.360
3163,-0.505,-2.265
3164,-0.360,-1.300
3165,-0.185,-0.440
3166,-0.360,-0.085
3167,-0.295,-0.020
3168,-0.320,0.010
3169,-0.235,0.000
3170,-0.210,0.040
3171,-0.235,0.015
3172,-0.185,0.135
3173,-0.315,0.055
3174,-0.200,0.125
3175,-0.230,0.090
3176,-0.050,0.175
3177,-0.225,0.145
3178,-0.065,0.210
3179,-0.200,0.240
3180,-0.035,0.295
3181,-0.190,0.345
3182,-0.005,0.380
3183,-0.020,0.460
3184,0.095,0.510
3185,0.040,0.605
3186,0.095,0.665
3187,0.155,0.720
3188,0.110,0.710
3189,0.185,0.805
3190,0.100,0.710
3191,0.135,0.775
3192,0.005,0.690
3193,0.080,0.660
3194,-0.115,0.510
3195,-0.040,0.465
3196,-0.215,0.320
3197,-0.100,0.215
3198,-0.255,0.120
3199,-0.125,0.105
3200,-0.235,0.025
3201,-0.130,0.000
3202,-0.275,0.010
3203,-0.145,-0.005
3204,-0.200,0.000
3205,-0.175,-0.015
3206,-0.145,0.030
3207,-0.210,-0.035
3208,-0.125,0.040
3209,-0.155,-0.015
3210,-0.090,0.050
3211,-0.220,0.010
3212,-0.115,0.050
3213,-0.230,0.000
3214,-0.120,0.080
3215,-0.215,0.030
3216,-0.070,0.070
3217,-0.265,0.000
3218,-0.110,0.025
3219,-0.240,0.010
3220,-0.100,0.040
3221,-0.260,-0.005
3222,-0.140,0.000
3223,-0.260,0.000
3224,-0.125,0.000
3225,-0.215,-0.005
3226,-0.185,-0.060
3227,-0.200,-0.005
3228,-0.180,-0.050
3229,-0.195,-0.015
3230,-0.190,-0.035
3231,-0.100,0.040
3232,-0.100,0.040
3233,-0.045,0.170
3234,-0.060,0.170
3235,0.070,0.215
3236,-0.065,0.065
3237,-0.055,0.035
3238,-0.220,-0.140
3239,-0.125,-0.075
3240,-0.320,-0.120
3241,-0.220,-0.120
3242,-0.405,-0.160
3243,-0.255,-0.175
3244,-0.370,-0.205
3245,-0.230,-0.180
3246,-0.350,-0.215
3247,-0.205,-0.205
3248,-0.350,-0.200
3249,-0.315,-0.140
3250,-0.425,0.215
3251,0.070,0.370
3252,0.745,0.675
3253,1.445,-0.260
3254,0.890,-1.410
3255,-0.350,-2.025
3256,-0.885,-2.395
3257,-0.590,-2.305
3258,-0.330,-1.220
3259,-0.290,-0.450
3260,-0.260,-0.040
3261,-0.350,-0.070
3262,-0.225,0.000
3263,-0.360,-0.020
3264,-0.205,0.035
3265,-0.345,-0.020
3266,-0.165,0.060
3267,-0.300,0.015
3268,-0.175,0.095
3269,-0.280,0.085
3270,-0.130,0.115
3271,-0.265,0.140
3272,-0.140,0.175
3273,-0.195,0.210
3274,-0.095,0.255
3275,-0.120,0.345
3276,-0.065,0.355
3277,-0.065,0.460
3278,-0.050,0.495
3279,0.025,0.600
3280,0.095,0.625
3281,0.105,0.705
3282,0.035,0.690
3283,0.080,0.775
3284,0.025,0.705
3285,0.075,0.705
3286,-0.095,0.580
3287,-0.005,0.565
3288,-0.215,0.365
3289,-0.100,0.310
3290,-0.270,0.160
3291,-0.135,0.120
3292,-0.285,0.030
3293,-0.175,0.010
3294,-0.300,-0.045
3295,-0.210,-0.065
3296,-0.295,-0.090
3297,-0.180,-0.070
3298,-0.280,-0.065
3299,-0.205,-0.065
3300,-0.310,-0.085
3301,-0.180,-0.050
3302,-0.255,-0.040
3303,-0.180,-0.045
3304,-0.210,-0.005
3305,-0.160,-0.050
3306,-0.185,0.010
3307,-0.215,-0.045
3308,-0.195,0.000
3309,-0.235,-0.010
3310,-0.190,-0.005
3311,-0.245,-0.050
3312,-0.160,0.035
3313,-0.220,-0.055
3314,-0.155,0.005
3315,-0.210,-0.050
3316,-0.155,-0.015
3317,-0.250,-0.075
3318,-0.165,-0.005
3319,-0.260,-0.100
3320,-0.155,-0.035
3321,-0.255,-0.085
3322,-0.175,-0.070
3323,-0.235,-0.040
3324,-0.080,0.010
3325,-0.120,0.060
3326,-0.005,0.120
3327,-0.060,0.215
3328,0.035,0.125
3329,-0.070,0.075
3330,-0.080,-0.095
3331,-0.180,-0.140
3332,-0.170,-0.155
3333,-0.270,-0.135
3334,-0.325,-0.160
3335,-0.340,-0.135
3336,-0.370,-0.200
3337,-0.265,-0.175
3338,-0.340,-0.240
3339,-0.245,-0.180
3340,-0.340,-0.255
3341,-0.220,-0.190
3342,-0.440,-0.075
3343,-0.245,0.305
3344,0.180,0.375
3345,1.050,0.595
3346,1.400,-0.900
3347,0.495,-1.820
3348,-0.685,-2.460
3349,-0.770,-2.665
3350,-0.490,-1.780
3351,-0.145,-0.735
3352,-0.340,-0.170
3353,-0.260,-0.060
3354,-0.315,0.025
3355,-0.255,-0.040
3356,-0.265,0.040
3357,-0.240,-0.010
3358,-0.220,0.030
3359,-0.215,0.020
3360,-0.195,0.075
3361,-0.245,0.065
3362,-0.165,0.155
3363,-0.255,0.105
3364,-0.130,0.170
3365,-0.200,0.195
3366,-0.070,0.290
3367,-0.135,0.285
3368,0.000,0.400
3369,-0.125,0.420
3370,0.045,0.520
3371,-0.070,0.550
3372,0.110,0.640
3373,0.000,0.650
3374,0.155,0.735
3375,0.020,0.710
3376,0.105,0.735
3377,0.010,0.715
3378,-0.015,0.655
3379,-0.085,0.560
3380,-0.080,0.460
3381,-0.180,0.355
3382,-0.195,0.225
3383,-0.260,0.165
3384,-0.270,0.045
3385,-0.265,0.030
3386,-0.285,-0.080
3387,-0.250,-0.050
3388,-0.305,-0.130
3389,-0.205,-0.085
3390,-0.355,-0.150
3391,-0.215,-0.075
3392,-0.355,-0.110
3393,-0.170,-0.040
3394,-0.315,-0.120
3395,-0.175,-0.015
3396,-0.315,-0.075
3397,-0.180,-0.035
3398,-0.310,-0.035
3399,-0.205,-0.030
3400,-0.290,-0.010
3401,-0.225,-0.060
3402,-0.290,-0.015
3403,-0.250,-0.065
3404,-0.280,-0.055
3405,-0.295,-0.090
3406,-0.265,-0.035
3407,-0.335,-0.110
3408,-0.245,-0.060
3409,-0.355,-0.095
3410,-0.225,-0.040
3411,-0.355,-0.110
3412,-0.245,-0.095
3413,-0.365,-0.155
3414,-0.240,-0.075
3415,-0.305,-0.105
3416,-0.130,-0.005
3417,-0.255,-0.005
3418,-0.080,0.115
3419,-0.145,0.150
3420,-0.020,0.120
3421,-0.165,0.050
3422,-0.175,-0.105
3423,-0.275,-0.175
3424,-0.250,-0.210
3425,-0.325,-0.180
3426,-0.370,-0.205
3427,-0.410,-0.160
3428,-0.435,-0.215
3429,-0.390,-0.200
3430,-0.415,-0.250
3431,-0.345,-0.195
3432,-0.390,-0.245
3433,-0.325,-0.180
3434,-0.530,-0.185
3435,-0.340,0.335
3436,-0.045,0.315
3437,0.845,0.745
3438,1.335,-0.740
3439,0.920,-1.735
3440,-0.400,-2.425
3441,-0.885,-2.800
3442,-0.650,-2.175
3443,-0.290,-1.050
3444,-0.295,-0.255
3445,-0.315,-0.075
3446,-0.300,0.035
3447,-0.360,0.000
3448,-0.300,0.065
3449,-0.355,-0.005
3450,-0.270,0.085
3451,-0.340,0.025
3452,-0.190,0.125
3453,-0.320,0.105
3454,-0.165,0.180
3455,-0.315,0.130
3456,-0.185,0.210
3457,-0.270,0.235
3458,-0.135,0.240
3459,-0.150,0.325
3460,-0.080,0.340
3461,-0.095,0.420
3462,-0.025,0.460
3463,0.015,0.540
3464,0.005,0.570
3465,0.055,0.695
3466,0.020,0.700
3467,0.145,0.770
3468,0.060,0.715
3469,0.185,0.775
3470,0.010,0.690
3471,0.070,0.715
3472,-0.080,0.620
3473,-0.015,0.505
3474,-0.155,0.445
3475,-0.155,0.335
3476,-0.225,0.250
3477,-0.245,0.115
3478,-0.235,0.065
3479,-0.270,-0.025
3480,-0.185,0.005
3481,-0.245,-0.090
3482,-0.165,-0.060
3483,-0.290,-0.120
3484,-0.185,-0.055
3485,-0.325,-0.115
3486,-0.185,-0.050
3487,-0.260,-0.050
3488,-0.135,-0.025
3489,-0.235,-0.015
3490,-0.205,-0.020
3491,-0.255,0.005
3492,-0.230,-0.025
3493,-0.255,0.000
3494,-0.260,-0.055
3495,-0.250,-0.005
3496,-0.235,-0.075
3497,-0.205,-0.030
3498,-0.275,-0.105
3499,-0.245,-0.045
3500,-0.315,-0.145
3501,-0.210,-0.050
3502,-0.350,-0.140
3503,-0.205,-0.100
3504,-0.340,-0.160
3505,-0.210,-0.110
3506,-0.310,-0.155
3507,-0.200,-0.120
3508,-0.305,-0.150
3509,-0.195,-0.145
3510,-0.245,-0.080
3511,-0.135,-0.030
3512,-0.150,0.050
3513,-0.065,0.080
3514,-0.065,0.075
3515,-0.095,-0.035
3516,-0.205,-0.095
3517,-0.240,-0.225
3518,-0.200,-0.195
3519,-0.305,-0.270
3520,-0.290,-0.225
3521,-0.425,-0.280
3522,-0.355,-0.220
3523,-0.470,-0.305
3524,-0.310,-0.305
3525,-0.435,-0.305
3526,-0.320,-0.260
3527,-0.390,-0.265
3528,-0.310,-0.190
3529,-0.495,0.025
3530,-0.130,0.275
3531,0.425,0.440
3532,1.230,0.150
3533,1.170,-1.205
3534,-0.055,-1.905
3535,-0.840,-2.345
3536,-0.760,-2.575
3537,-0.440,-1.520
3538,-0.340,-0.725
3539,-0.340,-0.165
3540,-0.450,-0.170
3541,-0.260,-0.085
3542,-0.430,-0.105
3543,-0.250,-0.045
3544,-0.395,-0.085
3545,-0.280,-0.025
3546,-0.375,-0.020
3547,-0.230,-0.005
3548,-0.350,0.005
3549,-0.260,0.045
3550,-0.310,0.030
3551,-0.195,0.080
3552,-0.180,0.135
3553,-0.175,0.120
3554,-0.175,0.215
3555,-0.140,0.250
3556,-0.110,0.315
3557,-0.105,0.360
3558,0.030,0.500
3559,0.000,0.480
3560,0.090,0.590
3561,0.005,0.565
3562,0.085,0.645
3563,-0.045,0.550
3564,0.060,0.640
3565,-0.060,0.490
3566,-0.025,0.465
3567,-0.180,0.320
3568,-0.145,0.280
3569,-0.270,0.115
3570,-0.205,0.070
3571,-0.320,-0.005
3572,-0.240,-0.045
3573,-0.315,-0.070
3574,-0.255,-0.120
3575,-0.270,-0.110
3576,-0.270,-0.145
3577,-0.280,-0.120
3578,-0.275,-0.130
3579,-0.255,-0.095
3580,-0.250,-0.150
3581,-0.220,-0.055
3582,-0.305,-0.140
3583,-0.220,-0.050
3584,-0.300,-0.115
3585,-0.170,-0.070
3586,-0.315,-0.150
3587,-0.225,-0.060
3588,-0.320,-0.120
3589,-0.175,-0.110
3590,-0.300,-0.090
3591,-0.215,-0.110
3592,-0.285,-0.130
3593,-0.210,-0.110
3594,-0.290,-0.120
3595,-0.265,-0.155
3596,-0.300,-0.135
3597,-0.285,-0.155
3598,-0.255,-0.125
3599,-0.270,-0.175
3600,-0.260,-0.150
3601,-0.335,-0.200
3602,-0.235,-0.145
3603,-0.220,-0.180
3604,-0.090,-0.030
3605,-0.220,-0.030
3606,-0.080,0.075
3607,-0.135,0.080
3608,0.035,0.060
3609,-0.145,-0.050
3610,-0.095,-0.160
3611,-0.290,-0.260
3612,-0.215,-0.245
3613,-0.380,-0.265
3614,-0.310,-0.260
3615,-0.435,-0.300
3616,-0.360,-0.340
3617,-0.385,-0.305
3618,-0.330,-0.340
3619,-0.355,-0.290
3620,-0.340,-0.340
3621,-0.340,-0.295
3622,-0.470,-0.230
3623,-0.360,0.225
3624,0.100,0.210
3625,0.925,0.680
3626,1.410,-0.770
3627,0.630,-1.650
3628,-0.650,-2.325
3629,-0.910,-2.700
3630,-0.620,-2.080
3631,-0.245,-0.960
3632,-0.380,-0.320
3633,-0.300,-0.135
3634,-0.405,-0.130
3635,-0.305,-0.105
3636,-0.400,-0.100
3637,-0.305,-0.075
3638,-0.370,-0.075
3639,-0.275,-0.080
3640,-0.320,-0.040
3641,-0.265,-0.065
3642,-0.245,-0.010
3643,-0.305,-0.025
3644,-0.275,0.070
3645,-0.275,0.030
3646,-0.180,0.150
3647,-0.255,0.125
3648,-0.145,0.280
3649,-0.155,0.245
3650,0.005,0.380
3651,-0.115,0.380
3652,0.030,0.515
3653,-0.035,0.525
3654,0.090,0.615
3655,0.000,0.600
3656,0.055,0.625
3657,-0.020,0.605
3658,0.000,0.550
3659,-0.075,0.520
3660,-0.125,0.405
3661,-0.175,0.320
3662,-0.230,0.175
3663,-0.260,0.115
3664,-0.280,0.005
3665,-0.290,-0.025
3666,-0.305,-0.135
3667,-0.275,-0.095
3668,-0.370,-0.230
3669,-0.265,-0.145
3670,-0.335,-0.215
3671,-0.260,-0.140
3672,-0.335,-0.165
3673,-0.240,-0.145
3674,-0.355,-0.200
3675,-0.210,-0.105
3676,-0.355,-0.170
3677,-0.210,-0.145
3678,-0.315,-0.150
3679,-0.235,-0.115
3680,-0.315,-0.130
3681,-0.245,-0.135
3682,-0.305,-0.105
3683,-0.245,-0.135
3684,-0.300,-0.115
3685,-0.275,-0.165
3686,-0.295,-0.115
3687,-0.320,-0.155
3688,-0.295,-0.135
3689,-0.330,-0.180
3690,-0.240,-0.135
3691,-0.340,-0.185
3692,-0.220,-0.105
3693,-0.355,-0.195
3694,-0.220,-0.155
3695,-0.350,-0.180
3696,-0.160,-0.065
3697,-0.285,-0.060
3698,-0.105,0.025
3699,-0.220,0.045
3700,-0.020,0.110
3701,-0.150,0.000
3702,-0.110,-0.070
3703,-0.285,-0.205
3704,-0.220,-0.230
3705,-0.280,-0.215
3706,-0.320,-0.280
3707,-0.385,-0.200
3708,-0.405,-0.285
3709,-0.340,-0.235
3710,-0.395,-0.310
3711,-0.345,-0.215
3712,-0.440,-0.290
3713,-0.295,-0.265
3714,-0.450,-0.275
3715,-0.425,-0.100
3716,-0.390,0.225
3717,0.290,0.340
3718,0.915,0.430
3719,1.470,-0.990
3720,0.435,-1.885
3721,-0.540,-2.465
3722,-0.990,-2.835
3723,-0.595,-2.175
3724,-0.335,-1.035
3725,-0.345,-0.360
3726,-0.375,-0.110
3727,-0.415,-0.110
3728,-0.325,-0.065
3729,-0.370,-0.090
3730,-0.275,-0.020
3731,-0.375,-0.060
3732,-0.230,0.000
3733,-0.350,-0.045
3734,-0.230,0.040
3735,-0.370,0.000
3736,-0.210,0.050
3737,-0.345,0.065
3738,-0.180,0.090
3739,-0.260,0.165
3740,-0.170,0.210
3741,-0.170,0.315
3742,-0.115,0.320
3743,-0.085,0.445
3744,-0.075,0.460
3745,-0.010,0.570
3746,-0.030,0.585
3747,0.055,0.695
3748,-0.015,0.650
3749,0.085,0.730
3750,-0.055,0.670
3751,0.010,0.645
3752,-0.170,0.565
3753,-0.045,0.570
3754,-0.255,0.400
3755,-0.160,0.305
3756,-0.330,0.210
3757,-0.240,0.100
3758,-0.345,0.025
3759,-0.290,-0.060
3760,-0.360,-0.085
3761,-0.325,-0.140
3762,-0.355,-0.105
3763,-0.340,-0.155
3764,-0.320,-0.120
3765,-0.345,-0.150
3766,-0.300,-0.125
3767,-0.350,-0.150
3768,-0.255,-0.080
3769,-0.370,-0.170
3770,-0.245,-0.090
3771,-0.370,-0.130
3772,-0.220,-0.085
3773,-0.365,-0.095
3774,-0.235,-0.080
3775,-0.365,-0.105
3776,-0.295,-0.135
3777,-0.345,-0.145
3778,-0.355,-0.120
3779,-0.350,-0.075
3780,-0.380,-0.160
3781,-0.325,-0.110
3782,-0.400,-0.180
3783,-0.295,-0.125
3784,-0.395,-0.185
3785,-0.290,-0.125
3786,-0.405,-0.185
3787,-0.285,-0.160
3788,-0.400,-0.180
3789,-0.280,-0.135
3790,-0.285,-0.100
3791,-0.215,-0.025
3792,-0.205,0.050
3793,-0.190,0.080
3794,-0.100,0.135
3795,-0.165,-0.005
3796,-0.155,-0.030
3797,-0.315,-0.240
3798,-0.280,-0.195
3799,-0.380,-0.285
3800,-0.415,-0.225
3801,-0.560,-0.265
3802,-0.460,-0.235
3803,-0.515,-0.320
3804,-0.350,-0.280
3805,-0.475,-0.335
3806,-0.345,-0.270
3807,-0.480,-0.305
3808,-0.385,-0.220
3809,-0.545,0.020
3810,-0.155,0.285
3811,0.400,0.505
3812,1.185,-0.220
3813,1.080,-1.610
3814,-0.185,-2.350
3815,-1.045,-2.870
3816,-0.760,-2.665
3817,-0.440,-1.245
3818,-0.375,-0.415
3819,-0.445,-0.140
3820,-0.460,-0.145
3821,-0.430,-0.035
3822,-0.475,-0.080
3823,-0.375,-0.015
3824,-0.430,-0.050
3825,-0.335,0.020
3826,-0.435,0.000
3827,-0.295,0.075
3828,-0.410,0.050
3829,-0.280,0.125
3830,-0.360,0.135
3831,-0.250,0.190
3832,-0.325,0.210
3833,-0.165,0.285
3834,-0.215,0.350
3835,-0.120,0.410
3836,-0.160,0.480
3837,-0.035,0.495
3838,-0.015,0.575
3839,-0.010,0.605
3840,0.020,0.685
3841,0.015,0.640
3842,0.075,0.720
3843,-0.005,0.695
3844,0.040,0.725
3845,-0.105,0.640
3846,-0.070,0.615
3847,-0.225,0.455
3848,-0.150,0.420
3849,-0.310,0.250
3850,-0.240,0.210
3851,-0.370,0.065
3852,-0.280,0.015
3853,-0.385,-0.045
3854,-0.300,-0.065
3855,-0.340,-0.070
3856,-0.280,-0.080
3857,-0.315,-0.080
3858,-0.290,-0.110
3859,-0.270,-0.025
3860,-0.310,-0.075
3861,-0.275,-0.020
3862,-0.320,-0.060
3863,-0.260,0.000
3864,-0.370,-0.040
3865,-0.290,-0.005
3866,-0.365,-0.050
3867,-0.265,-0.030
3868,-0.340,-0.095
3869,-0.235,-0.055
3870,-0.340,-0.115
3871,-0.270,-0.100
3872,-0.395,-0.115
3873,-0.310,-0.135
3874,-0.385,-0.135
3875,-0.310,-0.145
3876,-0.385,-0.140
3877,-0.290,-0.155
3878,-0.345,-0.125
3879,-0.315,-0.140
3880,-0.350,-0.105
3881,-0.330,-0.180
3882,-0.390,-0.120
3883,-0.290,-0.145
3884,-0.260,-0.095
3885,-0.260,-0.055
3886,-0.215,0.030
3887,-0.240,0.045
3888,-0.035,0.100
3889,-0.175,-0.045
3890,-0.165,-0.055
3891,-0.335,-0.220
3892,-0.265,-0.230
3893,-0.415,-0.270
3894,-0.405,-0.255
3895,-0.530,-0.250
3896,-0.420,-0.280
3897,-0.540,-0.330
3898,-0.400,-0.305
3899,-0.480,-0.320
3900,-0.405,-0.320
3901,-0.470,-0.290
3902,-0.410,-0.310
3903,-0.605,-0.030
3904,-0.345,0.285
3905,0.240,0.350
3906,1.010,0.465
3907,1.325,-0.960
3908,0.050,-1.715
3909,-0.840,-2.235
3910,-1.040,-2.720
3911,-0.615,-1.820
3912,-0.500,-0.935
3913,-0.365,-0.250
3914,-0.480,-0.165
3915,-0.405,-0.075
3916,-0.510,-0.125
3917,-0.365,-0.070
3918,-0.460,-0.075
3919,-0.375,-0.050
3920,-0.465,-0.040
3921,-0.365,-0.040
3922,-0.405,0.010
3923,-0.395,-0.015
3924,-0.365,0.060
3925,-0.325,0.005
3926,-0.305,0.125
3927,-0.300,0.105
3928,-0.255,0.210
3929,-0.300,0.185
3930,-0.200,0.320
3931,-0.170,0.350
3932,-0.090,0.460
3933,-0.155,0.515
3934,-0.040,0.580
3935,-0.085,0.590
3936,0.015,0.640
3937,-0.100,0.595
3938,-0.020,0.640
3939,-0.180,0.555
3940,-0.140,0.525
3941,-0.285,0.415
3942,-0.230,0.300
3943,-0.390,0.190
3944,-0.295,0.105
3945,-0.390,0.055
3946,-0.340,-0.035
3947,-0.410,-0.035
3948,-0.320,-0.080
3949,-0.470,-0.075
3950,-0.390,-0.085
3951,-0.400,-0.065
3952,-0.335,-0.100
3953,-0.355,-0.035
3954,-0.355,-0.080
3955,-0.330,-0.020
3956,-0.410,-0.070
3957,-0.320,-0.030
3958,-0.415,-0.045
3959,-0.280,0.000
3960,-0.425,-0.040
3961,-0.260,-0.010
3962,-0.375,-0.030
3963,-0.250,-0.030
3964,-0.370,-0.035
3965,-0.280,-0.015
3966,-0.425,-0.035
3967,-0.300,-0.065
3968,-0.400,-0.055
3969,-0.320,-0.085
3970,-0.390,-0.045
3971,-0.365,-0.075
3972,-0.335,-0.035
3973,-0.395,-0.135
3974,-0.335,-0.075
3975,-0.415,-0.115
3976,-0.315,-0.055
3977,-0.365,-0.095
3978,-0.205,-0.020
3979,-0.325,-0.005
3980,-0.185,0.125
3981,-0.335,0.120
3982,-0.120,0.185
3983,-0.230,0.085
3984,-0.175,0.020
3985,-0.335,-0.100
3986,-0.255,-0.135
3987,-0.355,-0.120
3988,-0.435,-0.205
3989,-0.465,-0.140
3990,-0.480,-0.210
3991,-0.440,-0.195
3992,-0.500,-0.235
3993,-0.410,-0.205
3994,-0.480,-0.230
3995,-0.400,-0.165
3996,-0.470,-0.210
3997,-0.510,-0.010
3998,-0.480,0.300
3999,0.220,0.410
4000,0.900,0.505
4001,1.335,-0.875
4002,0.120,-1.740
4003,-0.770,-2.280
4004,-1.045,-2.680
4005,-0.585,-1.845
4006,-0.385,-0.830
4007,-0.360,-0.170
4008,-0.470,-0.065
4009,-0.425,-0.045
4010,-0.450,0.020
4011,-0.400,-0.060
4012,-0.390,0.055
4013,-0.420,0.010
4014,-0.380,0.075
4015,-0.400,0.040
4016,-0.350,0.095
4017,-0.375,0.035
4018,-0.260,0.135
4019,-0.370,0.100
4020,-0.250,0.200
4021,-0.350,0.205
4022,-0.190,0.295
4023,-0.290,0.305
4024,-0.170,0.405
4025,-0.220,0.470
4026,-0.150,0.510
4027,-0.160,0.595
4028,-0.090,0.605
4029,-0.075,0.690
4030,-0.080,0.685
4031,-0.050,0.770
4032,-0.100,0.655
4033,-0.105,0.720
4034,-0.195,0.570
4035,-0.185,0.525
4036,-0.345,0.370
4037,-0.245,0.310
4038,-0.425,0.180
4039,-0.310,0.130
4040,-0.455,0.060
4041,-0.385,-0.005
4042,-0.440,-0.015
4043,-0.370,-0.065
4044,-0.435,-0.055
4045,-0.420,-0.090
4046,-0.415,-0.055
4047,-0.395,-0.090
4048,-0.375,-0.030
4049,-0.450,-0.095
4050,-0.395,-0.030
4051,-0.425,-0.090
4052,-0.285,-0.020
4053,-0.440,-0.075
4054,-0.290,-0.010
4055,-0.495,-0.070
4056,-0.330,-0.025
4057,-0.480,-0.020
4058,-0.355,-0.045
4059,-0.455,-0.045
4060,-0.355,-0.035
4061,-0.450,-0.060
4062,-0.400,-0.090
4063,-0.430,-0.055
4064,-0.430,-0.105
4065,-0.420,-0.060
4066,-0.410,-0.090
4067,-0.370,-0.065
4068,-0.435,-0.125
4069,-0.350,-0.065
4070,-0.470,-0.140
4071,-0.265,-0.060
4072,-0.365,-0.035
4073,-0.200,0.070
4074,-0.355,0.105
4075,-0.140,0.175
4076,-0.250,0.125
4077,-0.145,0.060
4078,-0.360,-0.080
4079,-0.320,-0.175
4080,-0.435,-0.165
4081,-0.425,-0.180
4082,-0.520,-0.140
4083,-0.555,-0.165
4084,-0.505,-0.145
4085,-0.530,-0.195
4086,-0.470,-0.165
4087,-0.545,-0.215
4088,-0.440,-0.145
4089,-0.555,-0.205
4090,-0.450,-0.105
4091,-0.630,0.145
4092,-0.195,0.435
4093,0.330,0.585
4094,1.140,-0.005
4095,1.110,-1.435
4096,-0.125,-2.090
4097,-1.055,-2.660
4098,-0.850,-2.710
4099,-0.540,-1.345
4100,-0.405,-0.460
4101,-0.495,-0.035
4102,-0.505,-0.025
4103,-0.450,0.025
4104,-0.495,0.025
4105,-0.400,0.095
4106,-0.480,0.025
4107,-0.365,0.105
4108,-0.480,0.065
4109,-0.375,0.120
4110,-0.460,0.110
4111,-0.350,0.135
4112,-0.420,0.160
4113,-0.340,0.170
4114,-0.395,0.275
4115,-0.300,0.310
4116,-0.330,0.390
4117,-0.270,0.425
4118,-0.235,0.515
4119,-0.190,0.535
4120,-0.150,0.685
4121,-0.130,0.675
4122,-0.045,0.780
4123,-0.110,0.775
4124,-0.010,0.815
4125,-0.125,0.775
4126,-0.040,0.805
4127,-0.195,0.710
4128,-0.130,0.685
4129,-0.305,0.545
4130,-0.270,0.450
4131,-0.405,0.315
4132,-0.300,0.230
4133,-0.445,0.140
4134,-0.340,0.090
4135,-0.465,0.040
4136,-0.360,-0.010
4137,-0.465,-0.015
4138,-0.370,-0.055
4139,-0.405,-0.025
4140,-0.390,-0.080
4141,-0.385,0.000
4142,-0.410,-0.030
4143,-0.375,0.015
4144,-0.425,-0.025
4145,-0.355,0.035
4146,-0.405,-0.015
4147,-0.355,0.035
4148,-0.415,-0.015
4149,-0.360,0.040
4150,-0.450,-0.025
4151,-0.365,0.000
4152,-0.465,-0.040
4153,-0.350,-0.005
4154,-0.485,-0.055
4155,-0.360,-0.020
4156,-0.480,-0.055
4157,-0.370,-0.070
4158,-0.480,-0.055
4159,-0.390,-0.090
4160,-0.455,-0.065
4161,-0.400,-0.105
4162,-0.445,-0.085
4163,-0.410,-0.130
4164,-0.350,-0.085
4165,-0.330,-0.040
4166,-0.280,0.080
4167,-0.305,0.100
4168,-0.220,0.190
4169,-0.235,0.120
4170,-0.210,0.100
4171,-0.405,-0.095
4172,-0.360,-0.165
4173,-0.475,-0.190
4174,-0.380,-0.145
4175,-0.570,-0.195
4176,-0.490,-0.170
4177,-0.620,-0.215
4178,-0.505,-0.235
4179,-0.535,-0.225
4180,-0.435,-0.260
4181,-0.520,-0.210
4182,-0.455,-0.195
4183,-0.580,-0.115
4184,-0.555,0.235
4185,-0.200,0.365
4186,0.565,0.645
4187,1.200,-0.490
4188,0.780,-1.685
4189,-0.425,-2.355
4190,-1.080,-2.900
4191,-0.710,-2.305
4192,-0.525,-1.160
4193,-0.425,-0.310
4194,-0.570,-0.140
4195,-0.475,-0.020
4196,-0.550,-0.050
4197,-0.405,0.015
4198,-0.505,-0.020
4199,-0.385,0.045
4200,-0.505,0.020
4201,-0.345,0.065
4202,-0.495,0.065
4203,-0.365,0.110
4204,-0.490,0.095
4205,-0.325,0.155
4206,-0.420,0.185
4207,-0.300,0.245
4208,-0.370,0.280
4209,-0.250,0.335
4210,-0.250,0.415
4211,-0.135,0.475
4212,-0.150,0.555
4213,-0.095,0.580
4214,-0.110,0.690
4215,-0.080,0.695
4216,-0.060,0.735
4217,-0.035,0.695
4218,-0.040,0.750
4219,-0.155,0.670
4220,-0.115,0.650
4221,-0.245,0.515
4222,-0.220,0.485
4223,-0.375,0.340
4224,-0.280,0.295
4225,-0.435,0.120
4226,-0.315,0.145
4227,-0.460,0.010
4228,-0.330,0.010
4229,-0.430,-0.050
4230,-0.305,-0.055
4231,-0.410,-0.045
4232,-0.330,-0.030
4233,-0.425,-0.045
4234,-0.320,-0.040
4235,-0.360,-0.005
4236,-0.310,-0.035
4237,-0.365,0.010
4238,-0.385,-0.030
4239,-0.350,0.000
4240,-0.365,-0.020
4241,-0.320,0.020
4242,-0.415,-0.030
4243,-0.350,0.010
4244,-0.450,-0.070
4245,-0.350,-0.010
4246,-0.465,-0.090
4247,-0.310,-0.030
4248,-0.430,-0.120
4249,-0.325,-0.055
4250,-0.460,-0.130
4251,-0.335,-0.085
4252,-0.415,-0.125
4253,-0.335,-0.090
4254,-0.445,-0.120
4255,-0.320,-0.095
4256,-0.415,-0.100
4257,-0.290,-0.080
4258,-0.330,-0.015
4259,-0.245,0.010
4260,-0.305,0.095
4261,-0.255,0.100
4262,-0.175,0.135
4263,-0.200,0.000
4264,-0.320,-0.060
4265,-0.350,-0.225
4266,-0.365,-0.140
4267,-0.445,-0.220
4268,-0.520,-0.170
4269,-0.525,-0.225
4270,-0.490,-0.200
4271,-0.495,-0.275
4272,-0.490,-0.240
4273,-0.525,-0.280
4274,-0.425,-0.225
4275,-0.535,-0.275
4276,-0.520,-0.145
4277,-0.570,0.170
4278,-0.005,0.335
4279,0.655,0.595
4280,1.300,-0.355
4281,0.365,-1.490
4282,-0.635,-2.085
4283,-1.220,-2.665
4284,-0.720,-2.135
4285,-0.525,-1.090
4286,-0.415,-0.360
4287,-0.545,-0.110
4288,-0.465,-0.140
4289,-0.485,-0.045
4290,-0.465,-0.070
4291,-0.470,-0.030
4292,-0.485,-0.095
4293,-0.425,0.000
4294,-0.455,-0.030
4295,-0.405,0.020
4296,-0.465,0.005
4297,-0.355,0.060
4298,-0.430,0.035
4299,-0.345,0.125
4300,-0.435,0.115
4301,-0.265,0.205
4302,-0.370,0.200
4303,-0.205,0.285
4304,-0.265,0.380
4305,-0.135,0.440
4306,-0.240,0.525
4307,-0.140,0.530
4308,-0.155,0.600
4309,-0.105,0.595
4310,-0.090,0.660
4311,-0.120,0.590
4312,-0.155,0.620
4313,-0.235,0.505
4314,-0.275,0.485
4315,-0.330,0.310
4316,-0.325,0.300
4317,-0.420,0.145
4318,-0.400,0.090
4319,-0.480,0.015
4320,-0.365,-0.005
4321,-0.475,-0.105
4322,-0.365,-0.075
4323,-0.510,-0.120
4324,-0.385,-0.110
4325,-0.505,-0.125
4326,-0.385,-0.090
4327,-0.505,-0.090
4328,-0.360,-0.065
4329,-0.440,-0.065
4330,-0.315,-0.085
4331,-0.450,-0.065
4332,-0.390,-0.100
4333,-0.455,-0.080
4334,-0.410,-0.100
4335,-0.460,-0.060
4336,-0.370,-0.080
4337,-0.405,-0.055
4338,-0.420,-0.100
4339,-0.420,-0.035
4340,-0.430,-0.130
4341,-0.370,-0.060
4342,-0.470,-0.115
4343,-0.385,-0.065
4344,-0.465,-0.125
4345,-0.355,-0.065
4346,-0.485,-0.120
4347,-0.345,-0.080
4348,-0.510,-0.135
4349,-0.370,-0.100
4350,-0.465,-0.105
4351,-0.245,-0.040
4352,-0.350,0.055
4353,-0.210,0.055
4354,-0.320,0.140
4355,-0.200,0.150
4356,-0.200,0.100
4357,-0.290,-0.045
4358,-0.310,-0.120
4359,-0.395,-0.195
4360,-0.340,-0.115
4361,-0.535,-0.205
4362,-0.470,-0.135
4363,-0.620,-0.190
4364,-0.460,-0.175
4365,-0.530,-0.240
4366,-0.400,-0.210
4367,-0.530,-0.210
4368,-0.415,-0.210
4369,-0.540,-0.185
4370,-0.555,-0.020
4371,-0.450,0.350
4372,0.105,0.330
4373,0.915,0.775
4374,1.280,-0.880
4375,0.185,-1.635
4376,-0.875,-2.280
4377,-0.975,-2.665
4378,-0.700,-1.940
4379,-0.360,-0.850
4380,-0.495,-0.230
4381,-0.400,-0.005
4382,-0.535,-0.015
4383,-0.395,0.000
4384,-0.500,0.025
4385,-0.410,0.015
4386,-0.450,0.050
4387,-0.390,0.030
4388,-0.395,0.095
4389,-0.395,0.030
4390,-0.355,0.140
4391,-0.410,0.090
4392,-0.330,0.220
4393,-0.390,0.145
4394,-0.270,0.260
4395,-0.340,0.255
4396,-0.220,0.385
4397,-0.300,0.415
4398,-0.095,0.515
4399,-0.205,0.520
4400,-0.085,0.645
4401,-0.180,0.650
4402,-0.055,0.725
4403,-0.140,0.710
4404,-0.035,0.740
4405,-0.150,0.695
4406,-0.125,0.660
4407,-0.245,0.600
4408,-0.230,0.500
4409,-0.320,0.415
4410,-0.350,0.275
4411,-0.385,0.245
4412,-0.410,0.070
4413,-0.395,0.070
4414,-0.460,-0.055
4415,-0.405,0.000
4416,-0.485,-0.120
4417,-0.400,-0.045
4418,-0.465,-0.135
4419,-0.355,-0.025
4420,-0.465,-0.110
4421,-0.360,-0.045
4422,-0.490,-0.090
4423,-0.335,-0.035
4424,-0.455,-0.075
4425,-0.340,-0.045
4426,-0.460,-0.025
4427,-0.350,-0.055
4428,-0.405,-0.025
4429,-0.360,-0.040
4430,-0.410,-0.030
4431,-0.390,-0.105
4432,-0.415,-0.045
4433,-0.425,-0.100
4434,-0.405,-0.065
4435,-0.430,-0.105
4436,-0.330,-0.050
4437,-0.480,-0.135
4438,-0.345,-0.040
4439,-0.540,-0.110
4440,-0.390,-0.075
4441,-0.480,-0.115
4442,-0.390,-0.125
4443,-0.480,-0.130
4444,-0.325,-0.110
4445,-0.355,-0.045
4446,-0.265,0.020
4447,-0.330,0.085
4448,-0.185,0.120
4449,-0.240,0.100
4450,-0.205,-0.005
4451,-0.305,-0.065
4452,-0.355,-0.210
4453,-0.360,-0.175
4454,-0.440,-0.235
4455,-0.460,-0.180
4456,-0.570,-0.255
4457,-0.505,-0.210
4458,-0.570,-0.320
4459,-0.420,-0.235
4460,-0.550,-0.280
4461,-0.405,-0.230
4462,-0.530,-0.285
4463,-0.475,-0.175
4464,-0.590,0.195
4465,0.000,0.335
4466,0.605,0.585
4467,1.290,-0.610
4468,0.505,-1.765
4469,-0.555,-2.400
4470,-1.135,-2.850
4471,-0.695,-2.305
4472,-0.470,-1.080
4473,-0.405,-0.315
4474,-0.505,-0.115
4475,-0.475,-0.080
4476,-0.450,-0.025
4477,-0.465,-0.070
4478,-0.390,0.025
4479,-0.455,-0.030
4480,-0.355,0.045
4481,-0.440,0.000
4482,-0.320,0.080
4483,-0.430,0.035
4484,-0.280,0.125
4485,-0.420,0.115
4486,-0.250,0.165
4487,-0.345,0.180
4488,-0.180,0.280
4489,-0.280,0.335
4490,-0.160,0.385
4491,-0.195,0.480
4492,-0.140,0.515
4493,-0.105,0.610
4494,-0.075,0.650
4495,-0.015,0.735
4496,-0.060,0.695
4497,-0.015,0.770
4498,-0.095,0.725
4499,-0.050,0.740
4500,-0.185,0.610
4501,-0.120,0.620
4502,-0.300,0.465
4503,-0.235,0.360
4504,-0.420,0.235
4505,-0.285,0.210
4506,-0.440,0.065
4507,-0.340,0.010
4508,-0.455,-0.025
4509,-0.340,-0.080
4510,-0.405,-0.085
4511,-0.320,-0.115
4512,-0.425,-0.090
4513,-0.345,-0.120
4514,-0.400,-0.100
4515,-0.340,-0.085
4516,-0.375,-0.035
4517,-0.360,-0.060
4518,-0.365,0.000
4519,-0.355,-0.060
4520,-0.325,0.025
4521,-0.395,-0.080
4522,-0.335,-0.035
4523,-0.430,-0.085
4524,-0.295,-0.025
4525,-0.435,-0.105
4526,-0.320,-0.050
4527,-0.435,-0.125
4528,-0.370,-0.070
4529,-0.460,-0.115
4530,-0.360,-0.085
4531,-0.470,-0.135
4532,-0.365,-0.115
4533,-0.480,-0.165
4534,-0.365,-0.135
4535,-0.480,-0.150
4536,-0.350,-0.130
4537,-0.380,-0.085
4538,-0.280,-0.065
4539,-0.330,0.010
4540,-0.275,0.040
4541,-0.195,0.140
4542,-0.250,-0.060
4543,-0.310,-0.045
4544,-0.430,-0.260
4545,-0.355,-0.240
4546,-0.470,-0.280
4547,-0.460,-0.265
4548,-0.560,-0.285
4549,-0.490,-0.260
4550,-0.575,-0.330
4551,-0.470,-0.310
4552,-0.580,-0.335
4553,-0.445,-0.300
4554,-0.550,-0.335
4555,-0.455,-0.270
4556,-0.660,-0.060
4557,-0.360,0.240
4558,0.185,0.355
4559,0.940,0.270
4560,1.190,-1.245
4561,0.100,-2.120
4562,-0.870,-2.715
4563,-0.975,-2.970
4564,-0.605,-1.705
4565,-0.465,-0.770
4566,-0.490,-0.245
4567,-0.535,-0.195
4568,-0.480,-0.110
4569,-0.555,-0.165
4570,-0.425,-0.065
4571,-0.530,-0.125
4572,-0.385,-0.055
4573,-0.495,-0.095
4574,-0.395,-0.015
4575,-0.525,-0.050
4576,-0.380,0.010
4577,-0.455,0.045
4578,-0.340,0.050
4579,-0.400,0.095
4580,-0.315,0.135
4581,-0.370,0.205
4582,-0.255,0.260
4583,-0.270,0.325
4584,-0.180,0.395
4585,-0.200,0.470
4586,-0.110,0.490
4587,-0.125,0.585
4588,-0.130,0.570
4589,-0.070,0.640
4590,-0.095,0.560
4591,-0.035,0.650
4592,-0.210,0.515
4593,-0.200,0.500
4594,-0.345,0.365
4595,-0.265,0.315
4596,-0.400,0.145
4597,-0.320,0.105
4598,-0.435,0.000
4599,-0.345,-0.025
4600,-0.525,-0.130
4601,-0.375,-0.150
4602,-0.470,-0.180
4603,-0.330,-0.170
4604,-0.415,-0.190
4605,-0.325,-0.175
4606,-0.420,-0.125
4607,-0.405,-0.195
4608,-0.380,-0.125
4609,-0.380,-0.145
4610,-0.335,-0.060
4611,-0.405,-0.100
4612,-0.320,-0.045
4613,-0.430,-0.140
4614,-0.340,-0.085
4615,-0.460,-0.150
4616,-0.345,-0.115
4617,-0.430,-0.130
4618,-0.335,-0.130
4619,-0.445,-0.170
4620,-0.380,-0.165
4621,-0.450,-0.155
4622,-0.380,-0.230
4623,-0.435,-0.170
4624,-0.445,-0.205
4625,-0.410,-0.160
4626,-0.430,-0.220
4627,-0.375,-0.155
4628,-0.495,-0.225
4629,-0.390,-0.160
4630,-0.475,-0.230
4631,-0.285,-0.165
4632,-0.400,-0.170
4633,-0.200,-0.030
4634,-0.320,-0.040
4635,-0.180,0.040
4636,-0.275,0.000
4637,-0.165,-0.045
4638,-0.390,-0.165
4639,-0.310,-0.280
4640,-0.370,-0.280
4641,-0.420,-0.300
4642,-0.535,-0.290
4643,-0.540,-0.335
4644,-0.480,-0.300
4645,-0.520,-0.380
4646,-0.465,-0.330
4647,-0.530,-0.385
4648,-0.440,-0.305
4649,-0.585,-0.380
4650,-0.435,-0.290
4651,-0.630,-0.050
4652,-0.155,0.255
4653,0.350,0.370
4654,1.220,0.065
4655,0.900,-1.335
4656,-0.205,-1.915
4657,-1.075,-2.490
4658,-0.945,-2.715
4659,-0.685,-1.655
4660,-0.415,-0.820
4661,-0.495,-0.260
4662,-0.475,-0.200
4663,-0.465,-0.130
4664,-0.480,-0.175
4665,-0.420,-0.090
4666,-0.490,-0.150
4667,-0.435,-0.070
4668,-0.470,-0.130
4669,-0.335,-0.080
4670,-0.490,-0.140
4671,-0.320,-0.035
4672,-0.500,-0.075
4673,-0.305,0.000
4674,-0.435,0.035
4675,-0.275,0.065
4676,-0.315,0.100
4677,-0.200,0.135
4678,-0.275,0.200
4679,-0.190,0.260
4680,-0.210,0.350
4681,-0.190,0.365
4682,-0.110,0.475
4683,-0.090,0.470
4684,-0.015,0.525
4685,-0.145,0.475
4686,-0.105,0.520
4687,-0.255,0.415
4688,-0.155,0.420
4689,-0.340,0.335
4690,-0.295,0.220
4691,-0.410,0.135
4692,-0.390,-0.005
4693,-0.455,-0.040
4694,-0.405,-0.170
4695,-0.430,-0.145
4696,-0.490,-0.215
4697,-0.465,-0.205
4698,-0.445,-0.250
4699,-0.405,-0.190
4700,-0.475,-0.250
4701,-0.390,-0.180
4702,-0.510,-0.255
4703,-0.385,-0.195
4704,-0.500,-0.240
4705,-0.345,-0.210
4706,-0.490,-0.205
4707,-0.395,-0.165
4708,-0.485,-0.195
4709,-0.405,-0.200
4710,-0.470,-0.165
4711,-0.365,-0.195
4712,-0.485,-0.175
4713,-0.395,-0.235
4714,-0.475,-0.180
4715,-0.425,-0.250
4716,-0.440,-0.175
4717,-0.455,-0.250
4718,-0.445,-0.220
4719,-0.490,-0.245
4720,-0.470,-0.190
4721,-0.495,-0.265
4722,-0.425,-0.210
4723,-0.545,-0.290
4724,-0.405,-0.220
4725,-0.500,-0.250
4726,-0.330,-0.190
4727,-0.400,-0.110
4728,-0.260,-0.050
4729,-0.380,-0.010
4730,-0.225,0.015
4731,-0.315,-0.030
4732,-0.255,-0.095
4733,-0.415,-0.275
4734,-0.315,-0.295
4735,-0.510,-0.285
4736,-0.490,-0.350
4737,-0.570,-0.270
4738,-0.560,-0.360
4739,-0.530,-0.315
4740,-0.545,-0.375
4741,-0.505,-0.320
4742,-0.600,-0.375
4743,-0.465,-0.340
4744,-0.560,-0.355
4745,-0.545,-0.245
4746,-0.605,0.115
4747,0.020,0.230
4748,0.670,0.490
4749,1.280,-0.665
4750,0.405,-1.745
4751,-0.665,-2.345
4752,-1.200,-2.830
4753,-0.775,-2.350
4754,-0.495,-1.145
4755,-0.450,-0.455
4756,-0.570,-0.170
4757,-0.535,-0.175
4758,-0.490,-0.120
4759,-0.535,-0.165
4760,-0.475,-0.075
4761,-0.540,-0.145
4762,-0.435,-0.050
4763,-0.535,-0.090
4764,-0.395,-0.030
4765,-0.460,-0.070
4766,-0.370,0.035
4767,-0.445,-0.020
4768,-0.330,0.055
4769,-0.410,0.075
4770,-0.305,0.140
4771,-0.370,0.185
4772,-0.210,0.255
4773,-0.310,0.305
4774,-0.160,0.365
4775,-0.230,0.470
4776,-0.105,0.495
4777,-0.180,0.540
4778,-0.085,0.550
4779,-0.200,0.570
4780,-0.150,0.550
4781,-0.215,0.535
4782,-0.225,0.420
4783,-0.330,0.335
4784,-0.345,0.215
4785,-0.385,0.130
4786,-0.390,0.000
4787,-0.410,-0.005
4788,-0.470,-0.165
4789,-0.430,-0.145
4790,-0.490,-0.240
4791,-0.420,-0.200
4792,-0.515,-0.225
4793,-0.390,-0.190
4794,-0.525,-0.240
4795,-0.380,-0.200
4796,-0.520,-0.235
4797,-0.365,-0.200
4798,-0.475,-0.210
4799,-0.350,-0.225
4800,-0.495,-0.195
4801,-0.350,-0.175
4802,-0.455,-0.195
4803,-0.375,-0.215
4804,-0.490,-0.210
4805,-0.420,-0.210
4806,-0.465,-0.200
4807,-0.415,-0.220
4808,-0.425,-0.215
4809,-0.470,-0.250
4810,-0.430,-0.210
4811,-0.490,-0.285
4812,-0.420,-0.230
4813,-0.495,-0.295
4814,-0.405,-0.230
4815,-0.520,-0.295
4816,-0.420,-0.245
4817,-0.550,-0.320
4818,-0.390,-0.250
4819,-0.435,-0.250
4820,-0.295,-0.165
4821,-0.390,-0.100
4822,-0.255,-0.035
4823,-0.300,0.000
4824,-0.215,-0.080
4825,-0.395,-0.135
4826,-0.390,-0.335
4827,-0.460,-0.375
4828,-0.430,-0.380
4829,-0.560,-0.380
4830,-0.565,-0.340
4831,-0.595,-0.335
4832,-0.570,-0.440
4833,-0.550,-0.385
4834,-0.585,-0.445
4835,-0.545,-0.410
4836,-0.590,-0.450
4837,-0.535,-0.380
4838,-0.715,-0.225
4839,-0.380,0.185
4840,0.045,0.185
4841,0.940,0.305
4842,1.105,-1.385
4843,0.010,-2.085
4844,-1.105,-2.830
4845,-0.975,-3.030
4846,-0.740,-1.855
4847,-0.425,-0.810
4848,-0.630,-0.315
4849,-0.525,-0.275
4850,-0.625,-0.240
4851,-0.530,-0.205
4852,-0.580,-0.185
4853,-0.500,-0.175
4854,-0.535,-0.130
4855,-0.475,-0.140
4856,-0.495,-0.065
4857,-0.505,-0.120
4858,-0.440,-0.060
4859,-0.470,-0.065
4860,-0.380,0.035
4861,-0.465,0.005
4862,-0.320,0.120
4863,-0.425,0.130
4864,-0.255,0.260
4865,-0.345,0.270
4866,-0.190,0.385
4867,-0.280,0.395
4868,-0.085,0.510
4869,-0.200,0.535
4870,-0.085,0.585
4871,-0.175,0.620
4872,-0.095,0.620
4873,-0.220,0.600
4874,-0.190,0.520
4875,-0.285,0.485
4876,-0.310,0.310
4877,-0.370,0.255
4878,-0.450,0.110
4879,-0.430,0.060
4880,-0.515,-0.065
4881,-0.455,-0.075
4882,-0.525,-0.170
4883,-0.460,-0.160
4884,-0.535,-0.290
4885,-0.440,-0.210
4886,-0.555,-0.260
4887,-0.385,-0.225
4888,-0.535,-0.230
4889,-0.390,-0.225
4890,-0.525,-0.210
4891,-0.405,-0.205
4892,-0.465,-0.165
4893,-0.430,-0.185
4894,-0.470,-0.170
4895,-0.420,-0.190
4896,-0.470,-0.150
4897,-0.425,-0.190
4898,-0.455,-0.185
4899,-0.480,-0.260
4900,-0.470,-0.200
4901,-0.485,-0.240
4902,-0.415,-0.195
4903,-0.490,-0.305
4904,-0.410,-0.235
4905,-0.510,-0.310
4906,-0.390,-0.255
4907,-0.515,-0.270
4908,-0.390,-0.245
4909,-0.555,-0.285
4910,-0.410,-0.280
4911,-0.505,-0.330
4912,-0.320,-0.255
4913,-0.415,-0.175
4914,-0.270,-0.115
4915,-0.375,-0.030
4916,-0.190,-0.060
4917,-0.295,-0.130
4918,-0.330,-0.250
4919,-0.450,-0.340
4920,-0.435,-0.430
4921,-0.450,-0.350
4922,-0.535,-0.400
4923,-0.550,-0.360
4924,-0.660,-0.475
4925,-0.515,-0.415
4926,-0.595,-0.505
4927,-0.480,-0.455
4928,-0.600,-0.485
4929,-0.435,-0.435
4930,-0.625,-0.470
4931,-0.595,-0.120
4932,-0.410,0.080
4933,0.320,0.275
4934,0.945,-0.145
4935,1.105,-1.585
4936,-0.130,-2.320
4937,-0.990,-3.040
4938,-1.010,-3.090
4939,-0.690,-1.935
4940,-0.470,-0.910
4941,-0.600,-0.465
4942,-0.555,-0.330
4943,-0.605,-0.340
4944,-0.485,-0.260
4945,-0.585,-0.270
4946,-0.435,-0.220
4947,-0.575,-0.260
4948,-0.430,-0.205
4949,-0.550,-0.200
4950,-0.415,-0.185
4951,-0.550,-0.175
4952,-0.395,-0.155
4953,-0.455,-0.090
4954,-0.380,-0.050
4955,-0.435,0.010
4956,-0.385,0.010
4957,-0.310,0.090
4958,-0.350,0.125
4959,-0.275,0.225
4960,-0.280,0.250
4961,-0.145,0.365
4962,-0.225,0.370
4963,-0.110,0.445
4964,-0.190,0.425
4965,-0.110,0.435
4966,-0.245,0.415
4967,-0.150,0.425
4968,-0.295,0.340
4969,-0.245,0.285
4970,-0.445,0.200
4971,-0.350,0.060
4972,-0.485,0.000
4973,-0.415,-0.125
4974,-0.470,-0.155
4975,-0.430,-0.245
4976,-0.435,-0.255
4977,-0.490,-0.360
4978,-0.415,-0.320
4979,-0.535,-0.370
4980,-0.415,-0.320
4981,-0.485,-0.360
4982,-0.355,-0.305
4983,-0.450,-0.305
4984,-0.355,-0.255
4985,-0.540,-0.285
4986,-0.405,-0.280
4987,-0.485,-0.250
4988,-0.370,-0.275
4989,-0.425,-0.235
4990,-0.415,-0.310
4991,-0.415,-0.235
4992,-0.480,-0.335
4993,-0.425,-0.245
4994,-0.495,-0.330
4995,-0.345,-0.270
4996,-0.500,-0.340
4997,-0.415,-0.270
4998,-0.500,-0.355
4999,-0.355,-0.305
5000,-0.505,-0.335
5001,-0.380,-0.315
5002,-0.485,-0.340
5003,-0.365,-0.330
5004,-0.495,-0.325
5005,-0.385,-0.345
5006,-0.435,-0.325
5007,-0.360,-0.340
5008,-0.325,-0.240
5009,-0.350,-0.215
5010,-0.295,-0.105
5011,-0.310,-0.145
5012,-0.125,-0.130
5013,-0.315,-0.245
5014,-0.270,-0.330
5015,-0.470,-0.455
5016,-0.340,-0.405
5017,-0.560,-0.475
5018,-0.495,-0.465
5019,-0.570,-0.475
5020,-0.480,-0.490
5021,-0.585,-0.520
5022,-0.505,-0.505
5023,-0.590,-0.480
5024,-0.495,-0.540
5025,-0.535,-0.485
5026,-0.605,-0.420
5027,-0.575,-0.035
5028,-0.105,0.045
5029,0.635,0.355
5030,1.175,-0.525
5031,0.510,-1.655
5032,-0.695,-2.320
5033,-1.200,-2.840
5034,-0.870,-2.630
5035,-0.445,-1.375
5036,-0.520,-0.670
5037,-0.525,-0.360
5038,-0.630,-0.345
5039,-0.420,-0.330
5040,-0.585,-0.340
5041,-0.440,-0.295
5042,-0.560,-0.290
5043,-0.470,-0.260
5044,-0.525,-0.275
5045,-0.425,-0.275
5046,-0.470,-0.225
5047,-0.390,-0.205
5048,-0.460,-0.185
5049,-0.420,-0.170
5050,-0.440,-0.085
5051,-0.385,-0.115
5052,-0.315,0.000
5053,-0.280,0.010
5054,-0.240,0.130
5055,-0.290,0.125
5056,-0.200,0.265
5057,-0.250,0.225
5058,-0.120,0.330
5059,-0.235,0.280
5060,-0.080,0.365
5061,-0.260,0.300
5062,-0.160,0.300
5063,-0.315,0.235
5064,-0.245,0.170
5065,-0.410,0.050
5066,-0.390,-0.035
5067,-0.505,-0.115
5068,-0.470,-0.235
5069,-0.550,-0.290
5070,-0.510,-0.345
5071,-0.565,-0.360
5072,-0.540,-0.425
5073,-0.520,-0.350
5074,-0.540,-0.435
5075,-0.450,-0.380
5076,-0.535,-0.400
5077,-0.365,-0.345
5078,-0.580,-0.385
5079,-0.460,-0.310
5080,-0.545,-0.340
5081,-0.420,-0.325
5082,-0.550,-0.335
5083,-0.440,-0.320
5084,-0.550,-0.330
5085,-0.420,-0.335
5086,-0.555,-0.325
5087,-0.465,-0.335
5088,-0.545,-0.335
5089,-0.465,-0.365
5090,-0.505,-0.335
5091,-0.460,-0.360
5092,-0.500,-0.340
5093,-0.515,-0.395
5094,-0.495,-0.350
5095,-0.560,-0.415
5096,-0.525,-0.365
5097,-0.545,-0.405
5098,-0.495,-0.370
5099,-0.600,-0.395
5100,-0.475,-0.360
5101,-0.510,-0.380
5102,-0.395,-0.245
5103,-0.475,-0.240
5104,-0.330,-0.125
5105,-0.370,-0.135
5106,-0.225,-0.210
5107,-0.420,-0.320
5108,-0.415,-0.440
5109,-0.550,-0.480
5110,-0.450,-0.475
5111,-0.635,-0.490
5112,-0.595,-0.470
5113,-0.680,-0.470
5114,-0.580,-0.525
5115,-0.620,-0.500
5116,-0.550,-0.525
5117,-0.575,-0.440
5118,-0.525,-0.535
5119,-0.605,-0.465
5120,-0.685,-0.265
5121,-0.345,0.120
5122,0.200,0.105
5123,1.020,0.180
5124,1.085,-1.385
5125,-0.065,-2.060
5126,-1.105,-2.755
5127,-1.000,-2.930
5128,-0.785,-2.010
5129,-0.420,-0.925
5130,-0.565,-0.405
5131,-0.455,-0.310
5132,-0.585,-0.285
5133,-0.495,-0.260
5134,-0.595,-0.265
5135,-0.425,-0.200
5136,-0.485,-0.210
5137,-0.455,-0.210
5138,-0.500,-0.160
5139,-0.485,-0.215
5140,-0.430,-0.105
5141,-0.450,-0.170
5142,-0.350,-0.050
5143,-0.460,-0.105
5144,-0.315,0.000
5145,-0.420,0.000
5146,-0.245,0.095
5147,-0.335,0.130
5148,-0.190,0.235
5149,-0.265,0.300
5150,-0.135,0.365
5151,-0.210,0.390
5152,-0.080,0.435
5153,-0.160,0.460
5154,-0.095,0.445
5155,-0.215,0.470
5156,-0.195,0.390
5157,-0.295,0.315
5158,-0.295,0.200
5159,-0.380,0.125
5160,-0.415,-0.025
5161,-0.415,-0.095
5162,-0.440,-0.185
5163,-0.430,-0.240
5164,-0.495,-0.325
5165,-0.455,-0.305
5166,-0.475,-0.365
5167,-0.425,-0.305
5168,-0.475,-0.390
5169,-0.420,-0.315
5170,-0.500,-0.380
5171,-0.405,-0.330
5172,-0.495,-0.385
5173,-0.375,-0.290
5174,-0.475,-0.335
5175,-0.365,-0.280
5176,-0.480,-0.305
5177,-0.375,-0.310
5178,-0.500,-0.315
5179,-0.390,-0.330
5180,-0.510,-0.335
5181,-0.415,-0.330
5182,-0.495,-0.315
5183,-0.430,-0.365
5184,-0.485,-0.330
5185,-0.480,-0.380
5186,-0.545,-0.355
5187,-0.485,-0.375
5188,-0.430,-0.370
5189,-0.520,-0.465
5190,-0.465,-0.350
5191,-0.545,-0.420
5192,-0.440,-0.385
5193,-0.545,-0.415
5194,-0.365,-0.365
5195,-0.430,-0.350
5196,-0.315,-0.280
5197,-0.420,-0.220
5198,-0.245,-0.145
5199,-0.295,-0.160
5200,-0.230,-0.245
5201,-0.410,-0.365
5202,-0.365,-0.475
5203,-0.475,-0.500
5204,-0.460,-0.500
5205,-0.590,-0.505
5206,-0.570,-0.505
5207,-0.575,-0.485
5208,-0.575,-0.530
5209,-0.545,-0.480
5210,-0.625,-0.590
5211,-0.550,-0.515
5212,-0.600,-0.550
5213,-0.570,-0.450
5214,-0.680,-0.210
5215,-0.190,0.045
5216,0.370,0.210
5217,1.145,-0.455
5218,0.680,-1.840
5219,-0.475,-2.505
5220,-1.305,-3.095
5221,-0.870,-2.870
5222,-0.645,-1.605
5223,-0.465,-0.735
5224,-0.625,-0.400
5225,-0.530,-0.375
5226,-0.595,-0.295
5227,-0.545,-0.335
5228,-0.545,-0.270
5229,-0.490,-0.305
5230,-0.540,-0.255
5231,-0.535,-0.260
5232,-0.505,-0.190
5233,-0.505,-0.230
5234,-0.460,-0.150
5235,-0.515,-0.155
5236,-0.435,-0.075
5237,-0.470,-0.065
5238,-0.335,0.005
5239,-0.410,0.000
5240,-0.260,0.095
5241,-0.355,0.175
5242,-0.175,0.210
5243,-0.275,0.290
5244,-0.140,0.370
5245,-0.225,0.405
5246,-0.095,0.455
5247,-0.200,0.470
5248,-0.145,0.420
5249,-0.220,0.445
5250,-0.195,0.375
5251,-0.290,0.350
5252,-0.365,0.185
5253,-0.385,0.135
5254,-0.480,-0.015
5255,-0.435,-0.055
5256,-0.540,-0.195
5257,-0.410,-0.205
5258,-0.535,-0.300
5259,-0.420,-0.285
5260,-0.530,-0.345
5261,-0.410,-0.330
5262,-0.495,-0.350
5263,-0.410,-0.360
5264,-0.485,-0.335
5265,-0.430,-0.355
5266,-0.470,-0.290
5267,-0.440,-0.360
5268,-0.460,-0.260
5269,-0.445,-0.305
5270,-0.425,-0.235
5271,-0.510,-0.320
5272,-0.385,-0.250
5273,-0.505,-0.360
5274,-0.390,-0.260
5275,-0.540,-0.345
5276,-0.395,-0.285
5277,-0.515,-0.320
5278,-0.390,-0.350
5279,-0.510,-0.355
5280,-0.460,-0.340
5281,-0.530,-0.355
5282,-0.465,-0.390
5283,-0.465,-0.345
5284,-0.470,-0.380
5285,-0.455,-0.370
5286,-0.525,-0.410
5287,-0.480,-0.345
5288,-0.545,-0.390
5289,-0.340,-0.340
5290,-0.450,-0.365
5291,-0.290,-0.180
5292,-0.430,-0.180
5293,-0.220,-0.125
5294,-0.300,-0.195
5295,-0.250,-0.265
5296,-0.455,-0.375
5297,-0.375,-0.460
5298,-0.480,-0.465
5299,-0.480,-0.495
5300,-0.625,-0.455
5301,-0.560,-0.475
5302,-0.630,-0.495
5303,-0.535,-0.550
5304,-0.570,-0.515
5305,-0.535,-0.555
5306,-0.495,-0.495
5307,-0.590,-0.555
5308,-0.620,-0.415
5309,-0.645,-0.085
5310,-0.060,0.035
5311,0.540,0.330
5312,1.325,-0.945
5313,0.395,-2.055
5314,-0.665,-2.780
5315,-1.255,-3.205
5316,-0.780,-2.405
5317,-0.600,-1.300
5318,-0.485,-0.575
5319,-0.660,-0.445
5320,-0.515,-0.385
5321,-0.600,-0.340
5322,-0.515,-0.375
5323,-0.585,-0.335
5324,-0.545,-0.340
5325,-0.535,-0.280
5326,-0.555,-0.290
5327,-0.500,-0.255
5328,-0.575,-0.295
5329,-0.465,-0.190
5330,-0.485,-0.210
5331,-0.380,-0.110
5332,-0.450,-0.175
5333,-0.315,-0.040
5334,-0.435,-0.030
5335,-0.245,0.045
5336,-0.380,0.090
5337,-0.195,0.170
5338,-0.250,0.225
5339,-0.075,0.325
5340,-0.170,0.340
5341,-0.100,0.335
5342,-0.175,0.410
5343,-0.130,0.355
5344,-0.215,0.365
5345,-0.265,0.260
5346,-0.305,0.210
5347,-0.380,0.080
5348,-0.400,0.040
5349,-0.445,-0.130
5350,-0.460,-0.155
5351,-0.540,-0.270
5352,-0.480,-0.275
5353,-0.585,-0.360
5354,-0.440,-0.355
5355,-0.555,-0.460
5356,-0.425,-0.390
5357,-0.520,-0.415
5358,-0.395,-0.360
5359,-0.535,-0.405
5360,-0.410,-0.370
5361,-0.535,-0.355
5362,-0.410,-0.320
5363,-0.525,-0.330
5364,-0.390,-0.340
5365,-0.485,-0.335
5366,-0.445,-0.345
5367,-0.535,-0.335
5368,-0.435,-0.360
5369,-0.495,-0.335
5370,-0.445,-0.395
5371,-0.470,-0.355
5372,-0.470,-0.425
5373,-0.490,-0.385
5374,-0.495,-0.435
5375,-0.425,-0.385
5376,-0.530,-0.465
5377,-0.465,-0.380
5378,-0.530,-0.445
5379,-0.420,-0.375
5380,-0.500,-0.435
5381,-0.390,-0.375
5382,-0.515,-0.425
5383,-0.400,-0.360
5384,-0.420,-0.390
5385,-0.290,-0.305
5386,-0.360,-0.250
5387,-0.295,-0.185
5388,-0.280,-0.155
5389,-0.195,-0.220
5390,-0.335,-0.290
5391,-0.365,-0.445
5392,-0.390,-0.480
5393,-0.430,-0.515
5394,-0.540,-0.480
5395,-0.600,-0.505
5396,-0.490,-0.480
5397,-0.555,-0.565
5398,-0.465,-0.495
5399,-0.620,-0.580
5400,-0.515,-0.505
5401,-0.590,-0.570
5402,-0.450,-0.500
5403,-0.680,-0.440
5404,-0.405,0.000
5405,-0.030,0.020
5406,0.845,0.365
5407,1.175,-0.845
5408,0.335,-1.850
5409,-0.815,-2.450
5410,-1.090,-2.935
5411,-0.780,-2.410
5412,-0.435,-1.285
5413,-0.505,-0.530
5414,-0.525,-0.400
5415,-0.540,-0.330
5416,-0.505,-0.390
5417,-0.485,-0.315
5418,-0.455,-0.345
5419,-0.430,-0.240
5420,-0.500,-0.310
5421,-0.430,-0.220
5422,-0.490,-0.300
5423,-0.405,-0.230
5424,-0.485,-0.230
5425,-0.405,-0.155
5426,-0.460,-0.170
5427,-0.310,-0.100
5428,-0.405,-0.095
5429,-0.270,0.010
5430,-0.390,0.055
5431,-0.270,0.120
5432,-0.315,0.170
5433,-0.160,0.235
5434,-0.235,0.310
5435,-0.140,0.365
5436,-0.265,0.395
5437,-0.145,0.350
5438,-0.255,0.350
5439,-0.245,0.300
5440,-0.380,0.285
5441,-0.410,0.120
5442,-0.415,0.085
5443,-0.535,-0.085
5444,-0.520,-0.140
5445,-0.625,-0.245
5446,-0.540,-0.285
5447,-0.580,-0.335
5448,-0.530,-0.330
5449,-0.605,-0.395
5450,-0.510,-0.365
5451,-0.630,-0.385
5452,-0.540,-0.355
5453,-0.625,-0.400
5454,-0.540,-0.385
5455,-0.640,-0.390
5456,-0.545,-0.385
5457,-0.600,-0.370
5458,-0.530,-0.375
5459,-0.575,-0.325
5460,-0.575,-0.375
5461,-0.530,-0.350
5462,-0.545,-0.365
5463,-0.535,-0.315
5464,-0.590,-0.350
5465,-0.525,-0.300
5466,-0.595,-0.390
5467,-0.530,-0.340
5468,-0.620,-0.370
5469,-0.540,-0.335
5470,-0.615,-0.405
5471,-0.490,-0.370
5472,-0.610,-0.430
5473,-0.525,-0.375
5474,-0.620,-0.385
5475,-0.485,-0.390
5476,-0.610,-0.385
5477,-0.525,-0.400
5478,-0.530,-0.380
5479,-0.405,-0.345
5480,-0.450,-0.240
5481,-0.360,-0.225
5482,-0.355,-0.130
5483,-0.315,-0.145
5484,-0.360,-0.215
5485,-0.435,-0.430
5486,-0.445,-0.440
5487,-0.525,-0.490
5488,-0.495,-0.445
5489,-0.665,-0.515
5490,-0.595,-0.460
5491,-0.710,-0.555
5492,-0.580,-0.490
5493,-0.665,-0.560
5494,-0.555,-0.500
5495,-0.655,-0.505
5496,-0.550,-0.520
5497,-0.695,-0.485
5498,-0.640,-0.190
5499,-0.370,0.050
5500,0.440,0.235
5501,1.060,-0.330
5502,0.855,-1.800
5503,-0.520,-2.375
5504,-1.255,-2.920
5505,-0.965,-2.890
5506,-0.685,-1.665
5507,-0.460,-0.715
5508,-0.605,-0.425
5509,-0.525,-0.275
5510,-0.610,-0.280
5511,-0.485,-0.220
5512,-0.575,-0.295
5513,-0.455,-0.230
5514,-0.545,-0.250
5515,-0.425,-0.185
5516,-0.535,-0.185
5517,-0.410,-0.160
5518,-0.495,-0.130
5519,-0.385,-0.110
5520,-0.485,-0.055
5521,-0.365,-0.030
5522,-0.400,0.050
5523,-0.360,0.020
5524,-0.310,0.195
5525,-0.315,0.175
5526,-0.195,0.330
5527,-0.225,0.290
5528,-0.125,0.430
5529,-0.225,0.420
5530,-0.085,0.500
5531,-0.180,0.465
5532,-0.090,0.515
5533,-0.245,0.460
5534,-0.170,0.430
5535,-0.325,0.300
5536,-0.275,0.240
5537,-0.435,0.125
5538,-0.355,0.010
5539,-0.465,-0.030
5540,-0.425,-0.165
5541,-0.480,-0.165
5542,-0.485,-0.300
5543,-0.435,-0.300
5544,-0.495,-0.370
5545,-0.395,-0.300
5546,-0.495,-0.370
5547,-0.390,-0.315
5548,-0.470,-0.370
5549,-0.335,-0.295
5550,-0.490,-0.355
5551,-0.355,-0.285
5552,-0.455,-0.335
5553,-0.375,-0.290
5554,-0.490,-0.295
5555,-0.380,-0.270
5556,-0.475,-0.305
5557,-0.375,-0.300
5558,-0.440,-0.255
5559,-0.410,-0.330
5560,-0.455,-0.275
5561,-0.450,-0.325
5562,-0.420,-0.290
5563,-0.475,-0.365
5564,-0.420,-0.345
5565,-0.480,-0.385
5566,-0.410,-0.290
5567,-0.530,-0.390
5568,-0.415,-0.340
5569,-0.540,-0.390
5570,-0.375,-0.355
5571,-0.545,-0.395
5572,-0.370,-0.355
5573,-0.445,-0.325
5574,-0.315,-0.280
5575,-0.355,-0.170
5576,-0.315,-0.125
5577,-0.255,-0.080
5578,-0.260,-0.210
5579,-0.290,-0.250
5580,-0.435,-0.440
5581,-0.375,-0.445
5582,-0.515,-0.485
5583,-0.460,-0.495
5584,-0.630,-0.495
5585,-0.535,-0.480
5586,-0.625,-0.500
5587,-0.510,-0.510
5588,-0.590,-0.505
5589,-0.505,-0.515
5590,-0.540,-0.485
5591,-0.550,-0.545
5592,-0.585,-0.390
5593,-0.610,-0.045
5594,-0.070,0.120
5595,0.490,0.355
5596,1.185,-0.825
5597,0.595,-2.070
5598,-0.550,-2.770
5599,-1.190,-3.285
5600,-0.735,-2.585
5601,-0.550,-1.300
5602,-0.475,-0.525
5603,-0.610,-0.360
5604,-0.510,-0.300
5605,-0.585,-0.305
5606,-0.530,-0.290
5607,-0.590,-0.235
5608,-0.490,-0.230
5609,-0.485,-0.170
5610,-0.465,-0.240
5611,-0.470,-0.120
5612,-0.510,-0.190
5613,-0.445,-0.095
5614,-0.475,-0.130
5615,-0.365,-0.065
5616,-0.390,-0.040
5617,-0.265,0.050
5618,-0.365,0.080
5619,-0.235,0.190
5620,-0.280,0.250
5621,-0.155,0.345
5622,-0.255,0.375
5623,-0.085,0.450
5624,-0.140,0.475
5625,-0.015,0.500
5626,-0.115,0.540
5627,-0.060,0.485
5628,-0.175,0.510
5629,-0.155,0.380
5630,-0.270,0.345
5631,-0.305,0.190
5632,-0.355,0.140
5633,-0.395,0.015
5634,-0.415,-0.035
5635,-0.445,-0.190
5636,-0.395,-0.205
5637,-0.455,-0.305
5638,-0.360,-0.285
5639,-0.425,-0.340
5640,-0.345,-0.290
5641,-0.455,-0.320
5642,-0.360,-0.340
5643,-0.470,-0.315
5644,-0.320,-0.295
5645,-0.385,-0.290
5646,-0.300,-0.265
5647,-0.415,-0.245
5648,-0.415,-0.255
5649,-0.440,-0.225
5650,-0.400,-0.285
5651,-0.405,-0.265
5652,-0.410,-0.300
5653,-0.380,-0.265
5654,-0.430,-0.325
5655,-0.320,-0.260
5656,-0.455,-0.350
5657,-0.390,-0.305
5658,-0.485,-0.380
5659,-0.335,-0.340
5660,-0.450,-0.355
5661,-0.390,-0.355
5662,-0.490,-0.355
5663,-0.380,-0.375
5664,-0.500,-0.370
5665,-0.375,-0.370
5666,-0.455,-0.380
5667,-0.375,-0.385
5668,-0.370,-0.330
5669,-0.280,-0.320
5670,-0.300,-0.190
5671,-0.270,-0.195
5672,-0.165,-0.095
5673,-0.175,-0.240
5674,-0.275,-0.210
5675,-0.410,-0.470
5676,-0.370,-0.440
5677,-0.460,-0.465
5678,-0.435,-0.455
5679,-0.575,-0.470
5680,-0.495,-0.455
5681,-0.570,-0.530
5682,-0.430,-0.510
5683,-0.560,-0.545
5684,-0.430,-0.515
5685,-0.540,-0.515
5686,-0.440,-0.490
5687,-0.670,-0.285
5688,-0.315,0.045
5689,0.175,0.085
5690,1.010,0.255
5691,1.180,-1.135
5692,0.090,-1.940
5693,-0.895,-2.570
5694,-1.090,-3.060
5695,-0.680,-2.165
5696,-0.455,-1.235
5697,-0.460,-0.480
5698,-0.530,-0.425
5699,-0.465,-0.310
5700,-0.530,-0.360
5701,-0.445,-0.285
5702,-0.505,-0.355
5703,-0.415,-0.265
5704,-0.510,-0.330
5705,-0.390,-0.285
5706,-0.485,-0.295
5707,-0.370,-0.250
5708,-0.470,-0.235
5709,-0.335,-0.190
5710,-0.410,-0.160
5711,-0.330,-0.155
5712,-0.380,-0.070
5713,-0.290,-0.040
5714,-0.250,0.065
5715,-0.170,0.075
5716,-0.215,0.210
5717,-0.160,0.205
5718,-0.135,0.325
5719,-0.130,0.270
5720,-0.035,0.375
5721,-0.155,0.345
5722,-0.100,0.340
5723,-0.260,0.280
5724,-0.195,0.260
5725,-0.360,0.125
5726,-0.290,0.070
5727,-0.420,-0.055
5728,-0.385,-0.135
5729,-0.525,-0.220
5730,-0.425,-0.315
5731,-0.510,-0.315
5732,-0.410,-0.360
5733,-0.470,-0.365
5734,-0.450,-0.385
5735,-0.500,-0.380
5736,-0.410,-0.415
5737,-0.475,-0.350
5738,-0.435,-0.375
5739,-0.445,-0.300
5740,-0.450,-0.390
5741,-0.425,-0.315
5742,-0.455,-0.380
5743,-0.390,-0.325
5744,-0.465,-0.355
5745,-0.350,-0.340
5746,-0.470,-0.365
5747,-0.410,-0.310
5748,-0.495,-0.370
5749,-0.405,-0.305
5750,-0.520,-0.350
5751,-0.425,-0.360
5752,-0.505,-0.375
5753,-0.365,-0.355
5754,-0.510,-0.360
5755,-0.415,-0.375
5756,-0.520,-0.355
5757,-0.405,-0.420
5758,-0.470,-0.345
5759,-0.445,-0.375
5760,-0.490,-0.340
5761,-0.405,-0.405
5762,-0.390,-0.310
5763,-0.360,-0.330
5764,-0.315,-0.210
5765,-0.345,-0.195
5766,-0.240,-0.065
5767,-0.255,-0.155
5768,-0.215,-0.160
5769,-0.365,-0.330
5770,-0.315,-0.380
5771,-0.445,-0.430
5772,-0.390,-0.375
5773,-0.585,-0.425
5774,-0.500,-0.410
5775,-0.595,-0.460
5776,-0.480,-0.480
5777,-0.550,-0.430
5778,-0.475,-0.490
5779,-0.540,-0.445
5780,-0.515,-0.510
5781,-0.560,-0.420
5782,-0.640,-0.185
5783,-0.250,0.135
5784,0.440,0.240
5785,1.190,-0.025
5786,0.950,-1.505
5787,-0.310,-2.110
5788,-1.215,-2.780
5789,-0.935,-2.835
5790,-0.695,-1.810
5791,-0.345,-0.830
5792,-0.510,-0.380
5793,-0.440,-0.295
5794,-0.555,-0.255
5795,-0.435,-0.265
5796,-0.505,-0.235
5797,-0.400,-0.225
5798,-0.450,-0.215
5799,-0.365,-0.205
5800,-0.455,-0.160
5801,-0.340,-0.200
5802,-0.435,-0.125
5803,-0.345,-0.130
5804,-0.395,-0.060
5805,-0.355,-0.080
5806,-0.315,0.065
5807,-0.310,0.030
5808,-0.235,0.130
5809,-0.275,0.155
5810,-0.145,0.270
5811,-0.185,0.290
5812,-0.075,0.410
5813,-0.160,0.395
5814,-0.055,0.465
5815,-0.120,0.475
5816,-0.045,0.480
5817,-0.210,0.445
5818,-0.115,0.380
5819,-0.290,0.290
5820,-0.240,0.200
5821,-0.385,0.065
5822,-0.320,-0.040
5823,-0.435,-0.080
5824,-0.380,-0.235
5825,-0.445,-0.180
5826,-0.400,-0.280
5827,-0.445,-0.290
5828,-0.450,-0.355
5829,-0.405,-0.280
5830,-0.430,-0.340
5831,-0.365,-0.290
5832,-0.440,-0.320
5833,-0.370,-0.300
5834,-0.435,-0.360
5835,-0.360,-0.295
5836,-0.475,-0.300
5837,-0.335,-0.265
5838,-0.420,-0.260
5839,-0.330,-0.280
5840,-0.430,-0.265
5841,-0.360,-0.310
5842,-0.445,-0.275
5843,-0.405,-0.320
5844,-0.400,-0.245
5845,-0.435,-0.290
5846,-0.400,-0.280
5847,-0.440,-0.345
5848,-0.360,-0.315
5849,-0.460,-0.345
5850,-0.385,-0.295
5851,-0.485,-0.365
5852,-0.370,-0.350
5853,-0.480,-0.355
5854,-0.370,-0.305
5855,-0.470,-0.340
5856,-0.355,-0.350
5857,-0.400,-0.300
5858,-0.285,-0.265
5859,-0.320,-0.170
5860,-0.305,-0.135
5861,-0.235,-0.050
5862,-0.245,-0.140
5863,-0.280,-0.220
5864,-0.345,-0.390
5865,-0.350,-0.405
5866,-0.435,-0.430
5867,-0.435,-0.410
5868,-0.575,-0.440
5869,-0.485,-0.390
5870,-0.610,-0.490
5871,-0.465,-0.435
5872,-0.585,-0.490
5873,-0.440,-0.445
5874,-0.540,-0.485
5875,-0.435,-0.450
5876,-0.610,-0.375
5877,-0.470,0.005
5878,-0.080,0.115
5879,0.695,0.310
5880,1.190,-0.855
5881,0.520,-2.025
5882,-0.660,-2.635
5883,-1.145,-3.110
5884,-0.710,-2.485
5885,-0.485,-1.340
5886,-0.415,-0.515
5887,-0.580,-0.395
5888,-0.425,-0.255
5889,-0.545,-0.285
5890,-0.385,-0.225
5891,-0.515,-0.225
5892,-0.410,-0.180
5893,-0.490,-0.170
5894,-0.380,-0.170
5895,-0.470,-0.125
5896,-0.385,-0.145
5897,-0.420,-0.060
5898,-0.355,-0.080
5899,-0.360,-0.005
5900,-0.335,-0.020
5901,-0.260,0.085
5902,-0.290,0.080
5903,-0.185,0.220
5904,-0.260,0.230
5905,-0.110,0.350
5906,-0.190,0.395
5907,-0.020,0.495
5908,-0.120,0.485
5909,0.010,0.570
5910,-0.130,0.570
5911,-0.030,0.535
5912,-0.160,0.510
5913,-0.100,0.485
5914,-0.275,0.410
5915,-0.230,0.260
5916,-0.335,0.190
5917,-0.350,0.015
5918,-0.390,0.000
5919,-0.410,-0.125
5920,-0.410,-0.155
5921,-0.425,-0.255
5922,-0.380,-0.240
5923,-0.415,-0.300
5924,-0.360,-0.285
5925,-0.435,-0.330
5926,-0.315,-0.310
5927,-0.450,-0.310
5928,-0.290,-0.265
5929,-0.435,-0.300
5930,-0.255,-0.230
5931,-0.425,-0.290
5932,-0.300,-0.240
5933,-0.435,-0.230
5934,-0.305,-0.255
5935,-0.445,-0.225
5936,-0.340,-0.270
5937,-0.450,-0.255
5938,-0.340,-0.285
5939,-0.400,-0.280
5940,-0.350,-0.330
5941,-0.390,-0.305
5942,-0.405,-0.325
5943,-0.390,-0.310
5944,-0.435,-0.370
5945,-0.380,-0.305
5946,-0.425,-0.385
5947,-0.345,-0.335
5948,-0.410,-0.365
5949,-0.345,-0.345
5950,-0.435,-0.385
5951,-0.240,-0.290
5952,-0.380,-0.295
5953,-0.200,-0.170
5954,-0.335,-0.165
5955,-0.120,-0.070
5956,-0.250,-0.150
5957,-0.175,-0.235
5958,-0.355,-0.330
5959,-0.305,-0.445
5960,-0.415,-0.420
5961,-0.405,-0.475
5962,-0.515,-0.445
5963,-0.505,-0.490
5964,-0.535,-0.460
5965,-0.510,-0.530
5966,-0.515,-0.485
5967,-0.495,-0.550
5968,-0.440,-0.475
5969,-0.500,-0.520
5970,-0.540,-0.425
5971,-0.670,-0.095
5972,-0.090,0.090
5973,0.475,0.295
5974,1.290,-0.465
5975,0.780,-1.760
5976,-0.345,-2.450
5977,-1.220,-3.045
5978,-0.800,-2.805
5979,-0.550,-1.560
5980,-0.420,-0.725
5981,-0.540,-0.380
5982,-0.490,-0.325
5983,-0.555,-0.285
5984,-0.460,-0.305
5985,-0.455,-0.240
5986,-0.455,-0.290
5987,-0.470,-0.235
5988,-0.460,-0.260
5989,-0.420,-0.165
5990,-0.480,-0.215
5991,-0.380,-0.145
5992,-0.465,-0.165
5993,-0.350,-0.090
5994,-0.435,-0.105
5995,-0.250,0.000
5996,-0.370,0.010
5997,-0.210,0.115
5998,-0.300,0.145
5999,-0.095,0.235
6000,-0.220,0.285
6001,-0.080,0.360
6002,-0.185,0.375
6003,-0.030,0.420
6004,-0.170,0.425
6005,-0.090,0.395
6006,-0.175,0.395
6007,-0.160,0.325
6008,-0.295,0.280
6009,-0.335,0.140
6010,-0.395,0.080
6011,-0.415,-0.080
6012,-0.440,-0.100
6013,-0.460,-0.185
6014,-0.430,-0.190
6015,-0.460,-0.310
6016,-0.430,-0.260
6017,-0.485,-0.380
6018,-0.440,-0.315
6019,-0.460,-0.335
6020,-0.390,-0.280
6021,-0.475,-0.340
6022,-0.385,-0.285
6023,-0.450,-0.320
6024,-0.360,-0.245
6025,-0.470,-0.275
6026,-0.355,-0.250
6027,-0.490,-0.255
6028,-0.395,-0.265
6029,-0.440,-0.265
6030,-0.375,-0.285
6031,-0.475,-0.270
6032,-0.395,-0.280
6033,-0.450,-0.250
6034,-0.390,-0.305
6035,-0.475,-0.255
6036,-0.430,-0.305
6037,-0.425,-0.280
6038,-0.465,-0.350
6039,-0.435,-0.260
6040,-0.500,-0.360
6041,-0.390,-0.325
6042,-0.510,-0.345
6043,-0.400,-0.310
6044,-0.505,-0.345
6045,-0.365,-0.340
6046,-0.420,-0.340
6047,-0.275,-0.280
6048,-0.390,-0.230
6049,-0.285,-0.175
6050,-0.375,-0.120
6051,-0.140,-0.100
6052,-0.300,-0.180
6053,-0.295,-0.280
6054,-0.445,-0.340
6055,-0.380,-0.465
6056,-0.445,-0.385
6057,-0.450,-0.490
6058,-0.535,-0.370
6059,-0.645,-0.485
6060,-0.550,-0.425
6061,-0.540,-0.520
6062,-0.480,-0.435
6063,-0.540,-0.515
6064,-0.455,-0.430
6065,-0.560,-0.480
6066,-0.600,-0.185
6067,-0.380,0.055
6068,0.400,0.220
6069,1.080,0.010
6070,0.985,-1.330
6071,-0.370,-2.070
6072,-1.015,-2.595
6073,-1.005,-2.835
6074,-0.590,-1.745
6075,-0.510,-0.900
6076,-0.430,-0.410
6077,-0.545,-0.295
6078,-0.460,-0.310
6079,-0.560,-0.255
6080,-0.465,-0.305
6081,-0.510,-0.205
6082,-0.445,-0.250
6083,-0.495,-0.170
6084,-0.435,-0.245
6085,-0.465,-0.155
6086,-0.450,-0.205
6087,-0.430,-0.130
6088,-0.415,-0.140
6089,-0.370,-0.065
6090,-0.420,-0.080
6091,-0.330,0.010
6092,-0.395,0.030
6093,-0.215,0.095
6094,-0.295,0.175
6095,-0.150,0.245
6096,-0.250,0.320
6097,-0.130,0.340
6098,-0.185,0.395
6099,-0.100,0.385
6100,-0.245,0.450
6101,-0.185,0.405
6102,-0.345,0.390
6103,-0.285,0.260
6104,-0.375,0.230
6105,-0.450,0.065
6106,-0.460,0.055
6107,-0.515,-0.135
6108,-0.450,-0.135
6109,-0.530,-0.250
6110,-0.470,-0.230
6111,-0.575,-0.315
6112,-0.465,-0.325
6113,-0.570,-0.350
6114,-0.435,-0.315
6115,-0.575,-0.335
6116,-0.490,-0.310
6117,-0.560,-0.300
6118,-0.440,-0.305
6119,-0.550,-0.280
6120,-0.430,-0.290
6121,-0.525,-0.260
6122,-0.465,-0.285
6123,-0.505,-0.235
6124,-0.445,-0.315
6125,-0.485,-0.245
6126,-0.465,-0.310
6127,-0.465,-0.245
6128,-0.490,-0.315
6129,-0.465,-0.265
6130,-0.515,-0.300
6131,-0.480,-0.255
6132,-0.555,-0.320
6133,-0.460,-0.290
6134,-0.550,-0.360
6135,-0.435,-0.290
6136,-0.560,-0.345
6137,-0.450,-0.305
6138,-0.555,-0.325
6139,-0.430,-0.320
6140,-0.550,-0.305
6141,-0.380,-0.345
6142,-0.425,-0.260
6143,-0.340,-0.225
6144,-0.400,-0.115
6145,-0.295,-0.105
6146,-0.280,-0.070
6147,-0.300,-0.215
6148,-0.380,-0.245
6149,-0.445,-0.430
6150,-0.430,-0.340
6151,-0.525,-0.405
6152,-0.530,-0.375
6153,-0.625,-0.425
6154,-0.550,-0.390
6155,-0.650,-0.460
6156,-0.525,-0.440
6157,-0.590,-0.465
6158,-0.465,-0.445
6159,-0.565,-0.450
6160,-0.490,-0.395
6161,-0.670,-0.130
6162,-0.295,0.150
6163,0.280,0.270
6164,1.055,0.050
6165,1.025,-1.480
6166,-0.285,-2.240
6167,-1.140,-2.835
6168,-0.950,-3.000
6169,-0.590,-1.675
6170,-0.490,-0.825
6171,-0.510,-0.320
6172,-0.590,-0.270
6173,-0.480,-0.185
6174,-0.575,-0.235
6175,-0.420,-0.150
6176,-0.525,-0.180
6177,-0.420,-0.180
6178,-0.525,-0.115
6179,-0.435,-0.175
6180,-0.515,-0.090
6181,-0.440,-0.080
6182,-0.475,0.000
6183,-0.430,-0.045
6184,-0.390,0.050
6185,-0.360,0.025
6186,-0.300,0.185
6187,-0.345,0.120
6188,-0.195,0.270
6189,-0.290,0.280
6190,-0.150,0.445
6191,-0.220,0.455
6192,-0.085,0.535
6193,-0.185,0.540
6194,-0.065,0.580
6195,-0.160,0.580
6196,-0.105,0.555
6197,-0.260,0.545
6198,-0.230,0.450
6199,-0.355,0.360
6200,-0.355,0.205
6201,-0.445,0.155
6202,-0.445,0.020
6203,-0.480,-0.025
6204,-0.435,-0.130
6205,-0.465,-0.135
6206,-0.480,-0.235
6207,-0.415,-0.210
6208,-0.520,-0.290
6209,-0.435,-0.220
6210,-0.525,-0.295
6211,-0.400,-0.260
6212,-0.520,-0.260
6213,-0.385,-0.210
6214,-0.510,-0.260
6215,-0.390,-0.215
6216,-0.515,-0.230
6217,-0.395,-0.215
6218,-0.515,-0.195
6219,-0.400,-0.180
6220,-0.495,-0.205
6221,-0.425,-0.210
6222,-0.510,-0.195
6223,-0.460,-0.270
6224,-0.490,-0.215
6225,-0.485,-0.235
6226,-0.485,-0.195
6227,-0.495,-0.295
6228,-0.465,-0.205
6229,-0.525,-0.315
6230,-0.455,-0.215
6231,-0.560,-0.315
6232,-0.455,-0.250
6233,-0.560,-0.315
6234,-0.430,-0.240
6235,-0.560,-0.310
6236,-0.390,-0.265
6237,-0.445,-0.215
6238,-0.330,-0.145
6239,-0.395,-0.090
6240,-0.290,-0.030
6241,-0.290,-0.005
6242,-0.265,-0.110
6243,-0.415,-0.140
6244,-0.425,-0.360
6245,-0.465,-0.320
6246,-0.510,-0.365
6247,-0.575,-0.335
6248,-0.630,-0.400
6249,-0.600,-0.350
6250,-0.630,-0.485
6251,-0.575,-0.380
6252,-0.610,-0.440
6253,-0.535,-0.400
6254,-0.610,-0.445
6255,-0.545,-0.315
6256,-0.725,-0.075
6257,-0.275,0.215
6258,0.260,0.400
6259,1.070,-0.235
6260,0.840,-1.665
6261,-0.290,-2.410
6262,-1.195,-3.020
6263,-0.875,-2.820
6264,-0.645,-1.460
6265,-0.510,-0.605
6266,-0.640,-0.265
6267,-0.560,-0.230
6268,-0.605,-0.165
6269,-0.505,-0.185
6270,-0.580,-0.140
6271,-0.500,-0.200
6272,-0.540,-0.095
6273,-0.510,-0.140
6274,-0.510,-0.060
6275,-0.540,-0.085
6276,-0.420,0.010
6277,-0.505,-0.030
6278,-0.380,0.080
6279,-0.455,0.045
6280,-0.320,0.135
6281,-0.410,0.155
6282,-0.275,0.215
6283,-0.330,0.300
6284,-0.190,0.395
6285,-0.260,0.460
6286,-0.105,0.490
6287,-0.180,0.565
6288,-0.075,0.580
6289,-0.120,0.595
6290,-0.085,0.585
6291,-0.175,0.615
6292,-0.215,0.470
6293,-0.230,0.520
6294,-0.365,0.345
6295,-0.345,0.290
6296,-0.430,0.130
6297,-0.405,0.075
6298,-0.495,-0.030
6299,-0.395,-0.055
6300,-0.485,-0.190
6301,-0.400,-0.155
6302,-0.515,-0.205
6303,-0.420,-0.215
6304,-0.520,-0.225
6305,-0.360,-0.215
6306,-0.470,-0.235
6307,-0.390,-0.180
6308,-0.490,-0.175
6309,-0.395,-0.180
6310,-0.475,-0.160
6311,-0.385,-0.175
6312,-0.460,-0.145
6313,-0.415,-0.205
6314,-0.445,-0.165
6315,-0.385,-0.220
6316,-0.470,-0.145
6317,-0.410,-0.255
6318,-0.445,-0.205
6319,-0.420,-0.235
6320,-0.435,-0.220
6321,-0.430,-0.315
6322,-0.435,-0.225
6323,-0.490,-0.305
6324,-0.420,-0.225
6325,-0.465,-0.295
6326,-0.430,-0.270
6327,-0.490,-0.320
6328,-0.415,-0.255
6329,-0.505,-0.295
6330,-0.395,-0.290
6331,-0.445,-0.265
6332,-0.295,-0.245
6333,-0.385,-0.175
6334,-0.245,-0.095
6335,-0.370,-0.080
6336,-0.180,-0.040
6337,-0.385,-0.170
6338,-0.300,-0.260
6339,-0.470,-0.335
6340,-0.375,-0.375
6341,-0.540,-0.365
6342,-0.525,-0.440
6343,-0.580,-0.360
6344,-0.580,-0.460
6345,-0.585,-0.430
6346,-0.585,-0.495
6347,-0.580,-0.435
6348,-0.630,-0.490
6349,-0.545,-0.395
6350,-0.620,-0.435
6351,-0.595,-0.130
6352,-0.405,0.090
6353,0.320,0.250
6354,0.955,0.145
6355,1.060,-1.300
6356,-0.380,-1.950
6357,-1.075,-2.575
6358,-1.175,-2.905
6359,-0.715,-1.955
6360,-0.555,-0.985
6361,-0.570,-0.420
6362,-0.640,-0.300
6363,-0.575,-0.290
6364,-0.610,-0.220
6365,-0.590,-0.245
6366,-0.555,-0.185
6367,-0.565,-0.240
6368,-0.520,-0.190
6369,-0.565,-0.235
6370,-0.465,-0.135
6371,-0.550,-0.200
6372,-0.455,-0.100
6373,-0.555,-0.115
6374,-0.385,-0.040
6375,-0.485,-0.030
6376,-0.360,0.030
6377,-0.440,0.090
6378,-0.280,0.150
6379,-0.370,0.190
6380,-0.225,0.295
6381,-0.295,0.370
6382,-0.135,0.375
6383,-0.275,0.435
6384,-0.185,0.430
6385,-0.265,0.445
6386,-0.180,0.410
6387,-0.310,0.405
6388,-0.320,0.295
6389,-0.420,0.260
6390,-0.490,0.105
6391,-0.520,0.055
6392,-0.585,-0.100
6393,-0.520,-0.145
6394,-0.580,-0.220
6395,-0.470,-0.200
6396,-0.605,-0.270
6397,-0.545,-0.235
6398,-0.645,-0.280
6399,-0.465,-0.255
6400,-0.640,-0.275
6401,-0.475,-0.260
6402,-0.605,-0.285
6403,-0.450,-0.235
6404,-0.605,-0.235
6405,-0.485,-0.250
6406,-0.570,-0.235
6407,-0.480,-0.240
6408,-0.515,-0.200
6409,-0.490,-0.245
6410,-0.520,-0.195
6411,-0.575,-0.235
6412,-0.490,-0.170
6413,-0.515,-0.265
6414,-0.510,-0.215
6415,-0.585,-0.250
6416,-0.485,-0.220
6417,-0.570,-0.285
6418,-0.465,-0.230
6419,-0.605,-0.285
6420,-0.435,-0.265
6421,-0.595,-0.315
6422,-0.470,-0.275
6423,-0.600,-0.280
6424,-0.455,-0.275
6425,-0.560,-0.245
6426,-0.485,-0.265
6427,-0.465,-0.205
6428,-0.375,-0.190
6429,-0.370,-0.085
6430,-0.405,-0.065
6431,-0.300,0.005
6432,-0.325,-0.125
6433,-0.360,-0.140
6434,-0.450,-0.350
6435,-0.430,-0.325
6436,-0.550,-0.360
6437,-0.535,-0.340
6438,-0.675,-0.380
6439,-0.550,-0.360
6440,-0.675,-0.420
6441,-0.560,-0.370
6442,-0.660,-0.385
6443,-0.490,-0.385
6444,-0.625,-0.405
6445,-0.510,-0.365
6446,-0.745,-0.195
6447,-0.460,0.115
6448,0.070,0.200
6449,0.875,0.335
6450,1.075,-1.040
6451,-0.060,-1.920
6452,-1.020,-2.500
6453,-1.135,-2.915
6454,-0.735,-1.995
6455,-0.570,-1.060
6456,-0.530,-0.375
6457,-0.625,-0.275
6458,-0.510,-0.170
6459,-0.630,-0.240
6460,-0.475,-0.170
6461,-0.610,-0.185
6462,-0.445,-0.150
6463,-0.570,-0.145
6464,-0.480,-0.135
6465,-0.600,-0.075
6466,-0.425,-0.070
6467,-0.525,-0.040
6468,-0.455,-0.040
6469,-0.515,0.010
6470,-0.445,0.025
6471,-0.410,0.095
6472,-0.375,0.105
6473,-0.305,0.255
6474,-0.355,0.250
6475,-0.220,0.380
6476,-0.310,0.400
6477,-0.165,0.475
6478,-0.265,0.485
6479,-0.130,0.530
6480,-0.245,0.525
6481,-0.170,0.525
6482,-0.295,0.505
6483,-0.300,0.385
6484,-0.390,0.385
6485,-0.415,0.210
6486,-0.440,0.170
6487,-0.545,0.020
6488,-0.485,-0.005
6489,-0.630,-0.145
6490,-0.510,-0.125
6491,-0.600,-0.215
6492,-0.475,-0.245
6493,-0.600,-0.270
6494,-0.470,-0.255
6495,-0.590,-0.290
6496,-0.495,-0.300
6497,-0.560,-0.250
6498,-0.485,-0.265
6499,-0.540,-0.235
6500,-0.475,-0.260
6501,-0.500,-0.250
6502,-0.485,-0.235
6503,-0.480,-0.200
6504,-0.495,-0.230
6505,-0.490,-0.185
6506,-0.555,-0.245
6507,-0.450,-0.210
6508,-0.560,-0.255
6509,-0.445,-0.180
6510,-0.575,-0.250
6511,-0.495,-0.215
6512,-0.580,-0.275
6513,-0.475,-0.240
6514,-0.590,-0.265
6515,-0.460,-0.240
6516,-0.570,-0.275
6517,-0.450,-0.245
6518,-0.565,-0.260
6519,-0.460,-0.285
6520,-0.580,-0.290
6521,-0.455,-0.295
6522,-0.470,-0.225
6523,-0.375,-0.195
6524,-0.375,-0.080
6525,-0.365,-0.080
6526,-0.240,0.030
6527,-0.300,-0.110
6528,-0.390,-0.120
6529,-0.460,-0.350
6530,-0.425,-0.315
6531,-0.530,-0.375
6532,-0.525,-0.315
6533,-0.675,-0.345
6534,-0.570,-0.345
6535,-0.665,-0.435
6536,-0.535,-0.410
6537,-0.640,-0.420
6538,-0.515,-0.400
6539,-0.600,-0.385
6540,-0.535,-0.390
6541,-0.710,-0.160
6542,-0.430,0.155
6543,0.090,0.265
6544,0.830,0.215
6545,1.145,-1.265
6546,0.015,-2.195
6547,-0.940,-2.780
6548,-1.095,-3.095
6549,-0.665,-1.855
6550,-0.520,-0.885
6551,-0.480,-0.330
6552,-0.635,-0.255
6553,-0.520,-0.150
6554,-0.620,-0.195
6555,-0.475,-0.145
6556,-0.585,-0.145
6557,-0.455,-0.110
6558,-0.550,-0.095
6559,-0.485,-0.095
6560,-0.540,-0.065
6561,-0.480,-0.050
6562,-0.485,0.000
6563,-0.425,0.020
6564,-0.440,0.120
6565,-0.385,0.090
6566,-0.360,0.185
