'sample interval','ECG0','ECG1'
'0.0078125 sec','mV','mV'
0,-0.465,0.205
1,-0.435,0.335
2,-0.470,0.130
3,-0.420,0.085
4,-0.345,0.025
5,-0.345,-0.005
6,-0.355,0.020
7,-0.430,0.130
8,-0.380,0.190
9,-0.280,0.225
10,-0.345,0.080
11,-0.325,0.265
12,-0.210,0.030
13,-0.220,-0.010
14,-0.160,0.085
15,-0.165,0.000
16,-0.120,0.040
17,-0.175,0.085
18,-0.095,0.105
19,-0.010,0.015
20,-0.030,0.055
21,-0.095,0.100
22,-0.100,0.270
23,0.075,-0.095
24,0.025,-0.055
25,0.000,0.170
26,-0.020,0.140
27,-0.050,-0.035
28,-0.145,0.130
29,-0.165,0.200
30,-0.150,-0.090
31,-0.175,0.055
32,-0.275,0.045
33,-0.345,0.040
34,-0.360,0.115
35,-0.360,0.040
36,-0.355,0.095
37,-0.350,0.070
38,-0.330,0.105
39,-0.365,0.255
40,-0.335,0.330
41,-0.310,0.165
42,-0.375,-0.030
43,-0.485,0.145
44,-0.540,0.000
45,-0.495,0.200
46,-0.395,-0.200
47,-0.395,0.005
48,-0.350,0.085
49,-0.235,0.225
50,-0.165,0.015
51,-0.210,0.100
52,-0.165,-0.010
53,-0.160,0.035
54,-0.095,0.195
55,0.630,0.025
56,1.590,-0.240
57,1.110,-0.545
58,-0.620,-0.465
59,-0.895,-0.115
60,-0.385,0.025
61,-0.210,-0.140
62,-0.270,-0.070
63,-0.235,0.170
64,-0.205,0.110
65,-0.210,-0.050
66,-0.205,0.155
67,-0.170,0.250
68,-0.155,0.210
69,-0.155,-0.110
70,-0.205,0.090
71,-0.245,0.185
72,-0.155,-0.010
73,-0.070,-0.005
74,-0.170,0.075
75,-0.170,0.020
76,-0.155,0.115
77,-0.125,0.110
78,-0.160,0.160
79,-0.210,0.300
80,-0.100,0.185
81,-0.085,0.005
82,-0.065,0.000
83,-0.055,0.050
84,0.015,0.115
85,0.060,0.125
86,0.120,-0.060
87,0.150,-0.195
88,0.110,0.045
89,0.115,-0.025
90,0.175,-0.025
91,0.130,0.080
92,0.135,0.135
93,0.090,-0.005
94,0.090,0.130
95,-0.035,0.005
96,-0.085,0.160
97,-0.075,0.080
98,-0.160,0.045
99,-0.185,0.105
100,-0.110,0.215
101,-0.155,-0.015
102,-0.155,0.015
103,-0.195,0.055
104,-0.185,0.020
105,-0.210,0.025
106,-0.210,0.245
107,-0.175,0.060
108,-0.200,0.155
109,-0.170,0.185
110,-0.220,0.125
111,-0.165,0.160
112,-0.160,0.075
113,-0.155,0.145
114,-0.160,0.020
115,-0.160,0.080
116,-0.160,0.025
117,-0.115,0.000
118,-0.165,0.230
119,-0.270,0.140
120,-0.170,0.105
121,-0.225,-0.100
122,-0.255,0.155
123,-0.175,0.195
124,-0.225,-0.150
125,-0.265,0.055
126,-0.315,0.230
127,-0.225,0.055
128,-0.230,0.020
129,-0.255,0.015
130,-0.195,0.045
131,-0.265,0.065
132,-0.255,0.125
133,-0.260,0.105
134,-0.240,0.150
135,-0.220,0.000
136,-0.245,-0.030
137,-0.245,0.090
138,-0.300,0.135
139,-0.275,0.160
140,-0.200,0.075
141,-0.240,-0.065
142,-0.245,0.020
143,-0.255,0.150
144,-0.200,-0.080
145,-0.245,0.000
146,-0.255,0.070
147,-0.280,0.095
148,-0.240,0.095
149,-0.235,0.225
150,-0.245,-0.160
151,-0.245,-0.070
152,-0.275,0.255
153,-0.280,0.145
154,-0.235,-0.090
155,-0.255,0.000
156,-0.260,0.035
157,-0.250,0.085
158,-0.265,0.050
159,-0.200,0.075
160,-0.225,-0.045
161,-0.200,0.065
162,-0.240,0.030
163,-0.265,0.090
164,-0.255,0.150
165,-0.230,-0.045
166,-0.230,0.025
167,-0.280,0.185
168,-0.260,0.110
169,-0.250,0.115
170,-0.195,-0.005
171,-0.235,-0.080
172,-0.145,0.070
173,-0.080,0.070
174,0.020,0.195
175,0.030,0.220
176,-0.025,-0.055
177,-0.065,-0.050
178,-0.125,-0.035
179,-0.180,0.070
180,-0.290,0.095
181,-0.255,0.000
182,-0.300,0.030
183,-0.295,0.080
184,-0.260,0.075
185,-0.330,0.025
186,-0.325,0.340
187,-0.205,0.065
188,0.015,0.210
189,0.835,-0.185
190,1.715,-0.315
191,0.955,-0.615
192,-0.680,-0.710
193,-0.820,-0.460
194,-0.530,-0.130
195,-0.405,0.005
196,-0.390,0.120
197,-0.335,-0.080
198,-0.350,-0.025
199,-0.410,0.145
200,-0.440,0.090
201,-0.395,0.075
202,-0.395,0.065
203,-0.400,0.110
204,-0.405,0.070
205,-0.420,0.090
206,-0.430,0.255
207,-0.380,0.055
208,-0.395,0.090
209,-0.395,0.010
210,-0.390,0.065
211,-0.355,0.065
212,-0.395,0.060
213,-0.340,0.080
214,-0.320,0.160
215,-0.240,0.315
216,-0.240,0.050
217,-0.210,0.015
218,-0.190,-0.010
219,-0.160,0.155
220,-0.075,0.050
221,-0.115,-0.005
222,-0.095,-0.020
223,-0.140,0.075
224,-0.165,0.105
225,-0.085,0.220
226,-0.045,-0.095
227,-0.045,-0.095
228,0.005,-0.055
229,-0.005,0.030
230,0.000,0.140
231,-0.105,0.190
232,-0.035,0.000
233,-0.085,0.165
234,-0.170,0.060
235,-0.275,0.200
236,-0.260,0.010
237,-0.295,0.075
238,-0.300,0.150
239,-0.295,0.175
240,-0.285,0.175
241,-0.260,0.305
242,-0.230,0.215
243,-0.225,0.250
244,-0.190,0.090
245,-0.100,0.025
246,-0.130,0.160
247,-0.085,0.100
248,-0.050,0.075
249,-0.060,-0.010
250,-0.055,0.000
251,-0.100,0.050
252,-0.110,0.125
253,-0.145,0.110
254,-0.145,0.240
255,-0.155,0.245
256,-0.160,0.155
257,-0.135,-0.085
258,-0.220,0.050
259,-0.235,0.130
260,-0.310,0.185
261,-0.285,0.240
262,-0.300,0.080
263,-0.310,0.360
264,-0.240,0.125
265,-0.295,0.210
266,-0.270,0.025
267,-0.275,0.060
268,-0.295,0.155
269,-0.245,0.140
270,-0.255,-0.010
271,-0.250,0.090
272,-0.275,0.145
273,-0.190,0.010
274,-0.235,0.105
275,-0.295,0.195
276,-0.235,0.130
277,-0.125,0.150
278,0.000,0.220
279,0.055,0.205
280,-0.055,-0.045
281,-0.165,0.240
282,-0.100,0.055
283,-0.210,0.040
284,-0.270,0.110
285,-0.355,0.075
286,-0.295,0.115
287,-0.320,0.310
288,-0.355,0.385
289,-0.275,0.045
290,-0.280,-0.075
291,-0.330,0.155
292,-0.005,0.125
293,0.805,0.120
294,1.785,0.055
295,1.100,-0.515
296,-0.675,-0.360
297,-0.960,-0.310
298,-0.590,-0.265
299,-0.380,0.130
300,-0.335,-0.135
301,-0.335,0.095
302,-0.450,0.145
303,-0.505,0.040
304,-0.435,0.030
305,-0.420,0.050
306,-0.430,0.120
307,-0.420,0.120
308,-0.365,0.105
309,-0.400,0.165
310,-0.400,0.155
311,-0.385,0.075
312,-0.385,0.115
313,-0.335,0.080
314,-0.320,0.160
315,-0.360,0.330
316,-0.220,-0.025
317,-0.235,-0.030
318,-0.205,0.090
319,-0.195,0.175
320,-0.110,-0.040
321,-0.095,0.120
322,-0.060,0.130
323,0.000,0.025
324,0.005,-0.015
325,-0.010,0.120
326,0.025,0.070
327,0.000,-0.080
328,0.030,-0.010
329,0.010,0.060
330,0.030,0.070
331,0.080,0.000
332,0.035,0.135
333,-0.010,0.220
334,-0.040,0.170
335,-0.040,0.095
336,-0.080,-0.050
337,-0.135,0.090
338,-0.170,0.065
339,-0.230,0.185
340,-0.220,0.175
341,-0.225,0.250
342,-0.170,-0.085
343,-0.190,0.025
344,-0.220,0.205
345,-0.200,0.295
346,-0.150,0.060
347,-0.200,0.050
348,-0.240,0.210
349,-0.295,0.100
350,-0.315,-0.015
351,-0.415,0.035
352,-0.315,0.140
353,-0.240,-0.025
354,-0.185,0.000
355,-0.110,0.085
356,-0.115,0.185
357,-0.055,0.130
358,-0.080,0.110
359,-0.145,0.245
360,-0.105,0.215
361,-0.035,0.320
362,0.790,0.110
363,1.810,-0.135
364,1.085,-0.565
365,-0.685,-0.540
366,-0.850,-0.380
367,-0.375,-0.080
368,-0.225,0.060
369,-0.175,-0.055
370,-0.160,0.135
371,-0.205,0.090
372,-0.165,0.115
373,-0.145,0.100
374,-0.125,0.090
375,-0.170,0.205
376,-0.140,0.235
377,-0.100,0.020
378,-0.125,0.170
379,-0.135,0.175
380,-0.105,0.075
381,-0.155,0.140
382,-0.120,0.295
383,-0.180,0.235
384,-0.120,0.125
385,-0.030,0.150
386,-0.075,0.140
387,-0.040,0.200
388,-0.115,0.055
389,-0.025,0.115
390,0.040,0.015
391,0.030,0.160
392,0.045,0.175
393,0.070,0.060
394,0.095,0.050
395,0.155,0.120
396,0.140,0.050
397,0.200,0.135
398,0.220,0.060
399,0.185,0.105
400,0.100,0.220
401,0.090,0.050
402,0.000,0.080
403,-0.060,0.130
404,-0.095,0.165
405,-0.105,0.135
406,-0.145,0.000
407,-0.155,0.200
408,-0.180,0.205
409,-0.115,0.075
410,-0.155,0.150
411,-0.170,0.215
412,-0.160,0.065
413,-0.160,0.105
414,-0.130,0.055
415,-0.190,0.075
416,-0.165,0.165
417,-0.170,0.075
418,-0.235,0.235
419,-0.190,0.335
420,-0.190,0.135
421,-0.145,0.065
422,-0.125,-0.095
423,-0.240,0.160
424,-0.120,-0.120
425,-0.185,-0.080
426,-0.165,0.000
427,-0.215,0.170
428,-0.230,0.140
429,-0.180,-0.050
430,-0.280,0.220
431,-0.190,-0.050
432,-0.225,0.000
433,-0.295,0.270
434,-0.190,0.280
435,-0.190,-0.015
436,-0.165,0.070
437,-0.180,-0.115
438,-0.225,0.125
439,-0.195,0.045
440,-0.245,0.060
441,-0.185,0.060
442,-0.210,-0.055
443,-0.240,0.180
444,-0.140,-0.005
445,-0.195,0.050
446,-0.195,0.000
447,-0.320,0.110
448,-0.330,0.160
449,-0.245,0.040
450,-0.240,0.140
451,-0.145,-0.075
452,-0.255,0.070
453,-0.155,0.030
454,-0.190,0.085
455,-0.180,0.130
456,-0.175,0.005
457,-0.280,0.085
458,-0.225,0.085
459,-0.200,0.100
460,-0.235,-0.030
461,-0.170,0.015
462,-0.195,0.070
463,-0.250,0.110
464,-0.265,0.040
465,-0.265,0.105
466,-0.160,0.005
467,-0.275,0.085
468,-0.195,0.095
469,-0.230,0.000
470,-0.265,0.050
471,-0.215,0.120
472,-0.250,0.120
473,-0.220,-0.015
474,-0.260,0.180
475,-0.215,0.060
476,-0.110,0.025
477,-0.080,0.130
478,0.020,0.105
479,0.110,0.115
480,-0.060,0.015
481,-0.085,0.140
482,-0.085,-0.005
483,-0.085,0.045
484,-0.225,0.080
485,-0.275,-0.025
486,-0.280,0.055
487,-0.295,0.110
488,-0.230,0.095
489,-0.260,0.105
490,-0.255,0.045
491,-0.270,0.000
492,-0.215,0.335
493,0.575,0.000
494,1.480,-0.170
495,1.375,-0.325
496,-0.135,-0.600
497,-0.845,-0.160
498,-0.555,0.020
499,-0.350,-0.080
500,-0.305,-0.150
501,-0.305,0.165
502,-0.330,0.030
503,-0.390,0.115
504,-0.405,0.090
505,-0.430,0.200
506,-0.425,0.120
507,-0.450,0.140
508,-0.390,0.100
509,-0.445,0.170
510,-0.425,0.210
511,-0.410,0.180
512,-0.565,0.225
513,-0.440,0.345
514,-0.435,0.120
515,-0.380,0.045
516,-0.405,0.235
517,-0.360,0.150
518,-0.265,-0.010
519,-0.300,0.070
520,-0.245,0.070
521,-0.240,0.175
522,-0.170,-0.010
523,-0.170,0.010
524,-0.195,0.060
525,-0.200,0.005
526,-0.190,0.005
527,-0.165,0.000
528,-0.205,0.010
529,-0.210,-0.005
530,-0.225,0.065
531,-0.210,0.070
532,-0.125,0.005
533,-0.105,0.000
534,-0.120,0.095
535,-0.100,0.155
536,-0.125,0.100
537,-0.160,0.080
538,-0.195,0.110
539,-0.210,0.000
540,-0.210,-0.015
541,-0.230,0.020
542,-0.215,0.080
543,-0.190,0.195
544,-0.210,0.215
545,-0.150,0.210
546,-0.145,0.290
547,-0.100,0.225
548,0.025,0.010
549,0.005,-0.055
550,0.000,0.095
551,0.020,0.035
552,0.020,0.100
553,0.010,0.090
554,0.000,0.095
555,0.015,0.180
556,-0.025,0.175
557,-0.060,0.015
558,-0.045,0.055
559,-0.090,0.085
560,-0.075,0.110
561,-0.145,0.145
562,-0.090,0.125
563,-0.165,0.125
564,-0.215,0.285
565,-0.145,0.290
566,-0.175,0.045
567,-0.160,-0.035
568,-0.220,0.040
569,-0.195,0.040
570,-0.245,0.060
571,-0.220,0.075
572,-0.165,0.105
573,-0.250,0.105
574,-0.255,0.105
575,-0.230,0.255
576,-0.225,0.220
577,-0.215,0.280
578,-0.180,0.100
579,-0.100,-0.015
580,-0.010,0.040
581,0.065,0.015
582,0.055,0.240
583,0.035,0.090
584,0.000,-0.020
585,-0.090,0.055
586,-0.070,0.030
587,-0.235,0.145
588,-0.290,0.220
589,-0.265,0.200
590,-0.200,0.160
591,-0.245,-0.090
592,-0.235,0.125
593,-0.220,0.115
594,-0.205,0.125
595,-0.135,0.425
596,0.510,0.275
597,1.555,-0.325
598,1.490,-0.490
599,-0.015,-0.690
600,-0.820,-0.355
601,-0.560,-0.355
602,-0.320,-0.065
603,-0.180,-0.020
604,-0.205,-0.020
605,-0.190,0.090
606,-0.150,0.170
607,-0.150,0.185
608,-0.170,0.175
609,-0.125,0.185
610,-0.140,0.230
611,-0.155,0.295
612,-0.115,0.190
613,-0.150,0.145
614,-0.120,0.120
615,-0.120,0.185
616,-0.105,0.195
617,-0.105,0.255
618,-0.070,0.130
619,-0.040,0.140
620,-0.045,0.110
621,-0.005,0.215
622,0.030,0.170
623,0.105,0.060
624,0.220,0.000
625,0.060,0.165
626,0.110,0.150
627,0.175,0.085
628,0.285,-0.050
629,0.225,0.135
630,0.105,-0.015
631,0.090,-0.020
632,0.080,0.070
633,0.095,0.115
634,0.145,0.235
635,0.195,-0.015
636,0.205,0.070
637,0.180,-0.030
638,0.070,0.085
639,0.100,0.150
640,0.035,0.085
641,-0.030,0.100
642,-0.045,0.125
643,-0.065,0.155
644,-0.085,0.165
645,-0.080,0.125
646,-0.055,0.215
647,-0.085,0.270
648,-0.050,0.290
649,-0.035,0.150
650,-0.020,0.225
651,-0.015,0.055
652,-0.040,0.175
653,-0.085,0.190
654,-0.145,0.265
655,-0.200,-0.015
656,-0.180,0.080
657,-0.170,0.000
658,-0.100,0.090
659,-0.160,0.355
660,0.000,0.125
661,0.095,0.060
662,-0.015,0.100
663,0.060,0.170
664,0.075,0.205
665,0.055,0.095
666,-0.015,0.325
667,0.475,0.170
668,1.475,0.065
669,1.270,-0.585
670,-0.395,-0.770
671,-0.870,-0.320
672,-0.355,-0.250
673,-0.100,-0.050
674,-0.085,0.005
675,-0.070,0.145
676,-0.095,0.225
677,-0.060,0.080
678,-0.040,0.185
679,-0.115,0.350
680,-0.135,0.505
681,-0.040,0.030
682,-0.065,-0.070
683,-0.090,0.090
684,-0.125,0.160
685,-0.090,0.060
686,-0.115,0.135
687,-0.115,0.170
688,-0.095,0.180
689,-0.120,0.200
690,-0.075,0.225
691,-0.080,0.075
692,-0.090,0.195
693,-0.040,0.200
694,-0.015,0.020
695,0.010,0.195
696,0.075,-0.050
697,0.045,-0.080
698,0.075,0.105
699,0.100,0.095
700,0.140,-0.060
701,0.120,0.025
702,0.155,0.005
703,0.155,0.010
704,0.150,0.090
705,0.155,-0.035
706,0.035,0.060
707,0.000,0.115
708,-0.005,0.205
709,-0.140,0.155
710,-0.130,0.175
711,-0.155,0.060
712,-0.150,0.030
713,-0.170,0.150
714,-0.240,0.110
715,-0.195,0.115
716,-0.210,0.005
717,-0.240,0.090
718,-0.240,0.220
719,-0.220,0.165
720,-0.170,0.160
721,-0.200,0.245
722,-0.145,0.175
723,-0.215,0.215
724,-0.165,0.170
725,-0.145,-0.045
726,-0.235,0.190
727,-0.130,0.145
728,-0.180,0.210
729,-0.135,-0.030
730,-0.140,0.045
731,-0.165,0.115
732,-0.195,0.160
733,-0.205,0.290
734,-0.090,0.185
735,-0.245,0.175
736,-0.355,0.280
737,-0.200,0.105
738,-0.240,-0.020
739,-0.205,0.095
740,-0.245,-0.045
741,-0.310,0.050
742,-0.330,0.145
743,-0.380,0.140
744,-0.345,0.235
745,-0.335,0.320
746,-0.250,-0.015
747,-0.315,-0.120
748,-0.370,0.130
749,-0.315,0.055
750,-0.345,0.050
751,-0.390,0.070
752,-0.365,0.110
753,-0.370,0.120
754,-0.350,0.125
755,-0.390,0.195
756,-0.365,0.240
757,-0.295,-0.015
758,-0.340,0.125
759,-0.345,0.085
760,-0.335,-0.010
761,-0.340,0.085
762,-0.320,0.055
763,-0.360,0.095
764,-0.310,0.200
765,-0.385,0.235
766,-0.375,0.415
767,-0.310,0.100
768,-0.330,0.020
769,-0.320,0.055
770,-0.320,0.060
771,-0.260,-0.030
772,-0.330,0.060
773,-0.355,0.030
774,-0.335,0.145
775,-0.325,0.190
776,-0.335,0.260
777,-0.355,0.400
778,-0.200,0.245
779,-0.060,-0.020
780,-0.060,0.175
781,-0.095,0.150
782,-0.300,0.120
783,-0.290,0.230
784,-0.270,-0.135
785,-0.540,0.110
786,-0.455,0.140
787,-0.450,0.245
788,-0.410,0.015
789,-0.330,-0.045
790,-0.425,0.090
791,-0.365,0.165
792,-0.325,0.235
793,0.285,0.115
794,1.335,-0.140
795,1.595,-0.220
796,0.135,-0.735
797,-0.775,-0.375
798,-0.700,0.095
799,-0.460,-0.020
800,-0.450,-0.040
801,-0.455,0.110
802,-0.425,-0.080
803,-0.465,0.080
804,-0.465,0.170
805,-0.440,0.180
806,-0.430,-0.030
807,-0.505,0.175
808,-0.440,0.040
809,-0.470,-0.030
810,-0.475,0.145
811,-0.500,0.130
812,-0.470,0.020
813,-0.460,0.100
814,-0.515,0.245
815,-0.390,-0.070
816,-0.425,0.030
817,-0.425,0.075
818,-0.365,-0.040
819,-0.385,0.125
820,-0.290,0.045
821,-0.300,-0.045
822,-0.290,0.185
823,-0.250,0.015
824,-0.155,0.025
825,-0.285,0.075
826,-0.320,-0.015
827,-0.325,-0.005
828,-0.265,-0.075
829,-0.220,-0.005
830,-0.170,-0.125
831,-0.170,0.010
832,-0.135,-0.015
833,-0.100,0.000
834,-0.085,0.000
835,-0.065,0.045
836,-0.125,0.060
837,-0.230,0.120
838,-0.255,0.170
839,-0.320,0.260
840,-0.290,0.250
841,-0.280,0.035
842,-0.320,0.045
843,-0.300,0.260
844,-0.310,-0.085
845,-0.260,0.015
846,-0.240,0.085
847,-0.235,0.080
848,-0.200,0.145
849,-0.180,0.110
850,-0.170,0.090
851,-0.165,0.025
852,-0.030,0.090
853,-0.070,-0.065
854,-0.150,0.075
855,-0.080,0.140
856,-0.130,-0.020
857,-0.110,0.120
858,-0.080,-0.130
859,-0.155,0.035
860,-0.200,0.110
861,-0.235,0.270
862,-0.200,-0.070
863,-0.235,-0.065
864,-0.300,0.145
865,-0.215,0.105
866,-0.270,0.045
867,-0.210,-0.055
868,-0.275,0.065
869,-0.190,0.045
870,-0.245,0.025
871,-0.290,0.115
872,-0.245,0.155
873,-0.175,0.035
874,-0.235,0.035
875,-0.255,0.085
876,-0.270,0.185
877,-0.230,-0.030
878,-0.215,0.115
879,-0.255,0.180
880,-0.275,0.070
881,-0.215,0.090
882,-0.120,0.105
883,-0.040,0.065
884,0.035,0.160
885,0.070,0.000
886,-0.025,-0.020
887,-0.005,0.055
888,-0.085,-0.010
889,-0.200,0.205
890,-0.250,0.210
891,-0.280,0.050
892,-0.260,0.140
893,-0.200,-0.115
894,-0.205,-0.015
895,-0.230,0.060
896,-0.280,0.450
897,-0.300,0.540
898,0.000,0.105
899,0.880,0.105
900,1.885,-0.005
901,1.435,-0.505
902,-0.380,-0.785
903,-0.835,-0.465
904,-0.500,-0.205
905,-0.370,0.120
906,-0.290,0.005
907,-0.290,-0.015
908,-0.295,-0.025
909,-0.310,0.090
910,-0.305,0.010
911,-0.285,0.165
912,-0.280,0.015
913,-0.340,-0.020
914,-0.265,0.065
915,-0.355,0.150
916,-0.300,0.140
917,-0.325,0.145
918,-0.295,0.305
919,-0.245,-0.025
920,-0.300,-0.035
921,-0.250,0.010
922,-0.265,0.025
923,-0.225,0.110
924,-0.215,0.080
925,-0.210,0.125
926,-0.075,-0.070
927,-0.080,0.045
928,-0.075,0.085
929,-0.025,0.050
930,0.030,-0.110
931,0.030,0.080
932,0.000,0.225
933,0.055,-0.195
934,0.000,-0.080
935,0.025,-0.125
936,0.095,0.005
937,0.105,-0.025
938,0.050,0.095
939,-0.020,0.370
940,0.090,0.085
941,0.000,-0.025
942,-0.015,-0.090
943,-0.085,-0.045
944,-0.105,-0.020
945,-0.175,0.130
946,-0.140,0.110
947,-0.175,0.050
948,-0.120,0.095
949,-0.160,0.035
950,-0.190,0.030
951,-0.115,-0.020
952,-0.140,-0.100
953,-0.115,0.015
954,-0.120,0.070
955,-0.130,0.015
956,-0.310,0.230
957,-0.395,0.155
958,-0.330,0.045
959,-0.385,0.050
960,-0.375,0.335
961,-0.140,-0.065
962,-0.145,-0.060
963,-0.005,0.005
964,-0.070,-0.010
965,-0.040,0.075
966,-0.035,0.130
967,-0.130,0.015
968,-0.035,0.175
969,0.830,0.025
970,1.840,-0.115
971,1.185,-0.625
972,-0.620,-0.735
973,-0.860,-0.370
974,-0.405,0.030
975,-0.225,-0.035
976,-0.220,-0.055
977,-0.195,0.180
978,-0.145,0.210
979,-0.140,-0.010
980,-0.085,-0.010
981,-0.095,-0.005
982,-0.115,0.015
983,-0.130,0.030
984,-0.185,0.070
985,-0.110,-0.030
986,-0.060,-0.080
987,-0.135,0.050
988,-0.135,0.145
989,-0.130,0.145
990,-0.085,-0.035
991,-0.090,0.125
992,-0.085,0.155
993,-0.015,0.045
994,-0.100,0.280
995,0.045,0.175
996,0.055,-0.200
997,-0.020,0.105
998,0.125,0.175
999,0.115,-0.125
1000,0.145,-0.010
1001,0.215,0.045
1002,0.230,-0.140
1003,0.190,-0.075
1004,0.195,0.030
1005,0.280,-0.080
1006,0.250,0.040
1007,0.190,0.010
1008,0.130,-0.005
1009,0.060,0.165
1010,0.065,-0.035
1011,-0.010,0.090
1012,-0.045,0.075
1013,-0.035,0.060
1014,-0.085,0.080
1015,-0.090,0.150
1016,-0.085,0.025
1017,-0.095,0.110
1018,-0.040,-0.025
1019,-0.060,-0.005
1020,-0.025,-0.100
1021,-0.085,0.105
1022,-0.100,0.275
1023,-0.030,0.185
1024,-0.075,0.070
1025,-0.015,0.350
1026,0.495,-0.105
1027,0.350,-0.280
1028,0.240,-0.205
1029,-0.185,0.055
1030,-0.500,0.150
1031,-0.330,0.210
1032,-0.270,0.215
1033,-0.075,0.015
1034,-0.045,-0.025
1035,-0.070,-0.010
1036,-0.045,0.085
1037,-0.005,0.000
1038,0.010,-0.015
1039,-0.050,0.045
1040,-0.060,0.045
1041,-0.115,0.060
1042,-0.100,0.055
1043,-0.030,0.075
1044,-0.045,0.030
1045,-0.070,0.055
1046,-0.055,-0.010
1047,0.000,-0.005
1048,-0.005,0.030
1049,0.070,0.110
1050,0.235,0.145
1051,0.575,0.000
1052,-0.050,-0.125
1053,0.445,0.260
1054,0.000,-0.105
1055,-0.560,-0.125
1056,-0.195,0.215
1057,0.040,0.270
1058,0.070,0.045
1059,-0.090,-0.170
1060,0.035,0.030
1061,0.285,0.010
1062,0.440,-0.080
1063,0.035,-0.075
1064,-0.125,0.185
1065,-0.085,-0.170
1066,-0.355,0.085
1067,-0.195,0.305
1068,-0.320,-0.105
1069,-0.240,0.255
1070,-0.015,-0.055
1071,0.000,-0.035
1072,0.115,-0.020
1073,0.070,-0.160
1074,-0.205,-0.140
1075,-0.065,0.070
1076,-0.025,0.015
1077,0.170,-0.125
1078,-0.065,-0.010
1079,-0.260,0.010
1080,-0.100,0.170
1081,0.240,0.160
1082,-0.080,0.065
1083,-0.100,-0.030
1084,0.025,-0.095
1085,-0.250,-0.185
1086,-0.150,-0.115
1087,-0.050,0.000
1088,-0.015,0.035
1089,-0.055,0.270
1090,0.305,0.000
1091,0.300,-0.115
1092,0.170,-0.025
1093,0.020,-0.120
1094,-0.290,0.140
1095,-0.170,0.200
1096,-0.160,0.095
1097,-0.170,-0.045
1098,-0.135,0.020
1099,-0.070,0.270
1100,-0.010,-0.465
1101,-0.145,-0.145
1102,-0.320,-0.010
1103,-0.120,0.065
1104,0.065,0.090
1105,0.645,0.035
1106,1.665,0.115
1107,1.865,-0.060
1108,0.075,-1.020
1109,-0.755,-0.675
1110,-0.470,-0.320
1111,-0.395,-0.045
1112,-0.085,-0.140
1113,0.140,-0.225
1114,-0.320,-0.035
1115,-0.255,0.130
1116,-0.245,-0.010
1117,-0.340,0.065
1118,-0.200,0.185
1119,-0.225,0.270
1120,-0.180,0.005
1121,-0.415,0.090
1122,-0.210,0.090
1123,-0.165,0.195
1124,-0.150,-0.260
1125,-0.385,-0.175
1126,-0.085,0.040
1127,-0.075,0.020
1128,-0.185,0.040
1129,-0.300,0.095
1130,-0.185,0.090
1131,-0.020,0.135
1132,-0.175,0.140
1133,0.055,0.200
1134,-0.035,0.090
1135,-0.090,0.090
1136,0.015,0.320
1137,0.095,-0.045
1138,0.010,-0.230
1139,0.120,-0.095
1140,0.095,-0.045
1141,0.015,0.045
1142,0.175,0.025
1143,0.245,-0.045
1144,0.170,-0.015
1145,0.215,-0.020
1146,0.280,0.080
1147,0.110,0.355
1148,-0.050,0.005
1149,0.100,0.250
1150,0.265,0.050
1151,-0.005,-0.065
1152,-0.105,0.090
1153,0.065,-0.095
1154,0.180,-0.055
1155,-0.145,0.105
1156,-0.360,0.170
1157,-0.190,0.205
1158,-0.070,0.390
1159,0.020,0.225
1160,0.020,-0.005
1161,0.095,0.045
1162,0.270,-0.085
1163,0.145,0.015
1164,0.260,0.050
1165,0.365,-0.030
1166,-0.135,0.065
1167,0.010,0.130
1168,-0.045,0.125
1169,-0.020,0.100
1170,0.050,0.025
1171,0.135,0.110
1172,0.250,0.160
1173,-0.030,-0.035
1174,-0.085,0.040
1175,-0.195,0.160
1176,-0.150,0.145
1177,-0.040,0.085
1178,0.080,0.165
1179,0.095,-0.100
1180,0.265,-0.080
1181,-0.120,0.050
1182,-0.200,0.115
1183,-0.020,-0.080
1184,-0.175,0.050
1185,-0.290,0.190
1186,-0.065,0.140
1187,-0.160,-0.020
1188,-0.140,0.155
1189,-0.105,-0.015
1190,-0.200,0.050
1191,-0.175,0.130
1192,-0.020,0.040
1193,0.030,-0.040
1194,-0.240,0.095
1195,-0.190,0.105
1196,-0.090,0.170
1197,-0.115,0.330
1198,-0.155,-0.040
1199,-0.050,0.035
1200,-0.210,0.020
1201,0.225,-0.040
1202,-0.190,-0.070
1203,-0.080,0.065
1204,-0.235,0.010
1205,-0.215,0.135
1206,0.050,0.170
1207,0.120,0.280
1208,0.190,0.170
1209,-0.105,0.045
1210,0.050,0.085
1211,-0.030,-0.140
1212,0.045,-0.020
1213,-0.310,0.020
1214,-0.360,0.065
1215,-0.250,-0.015
1216,-0.015,0.080
1217,-0.390,0.070
1218,-0.145,0.280
1219,-0.345,0.195
1220,-0.270,0.150
1221,0.025,0.180
1222,0.585,0.105
1223,1.605,-0.270
1224,0.805,-0.925
1225,-0.540,-0.715
1226,-0.530,-0.460
1227,-0.445,-0.290
1228,-0.240,-0.085
1229,-0.465,0.145
1230,-0.460,0.370
1231,-0.385,-0.025
1232,-0.380,-0.010
1233,-0.155,0.105
1234,-0.320,0.215
1235,-0.280,0.200
1236,-0.310,-0.005
1237,-0.150,0.000
1238,-0.460,0.115
1239,-0.355,-0.015
1240,-0.170,0.075
1241,-0.130,0.070
1242,-0.145,0.055
1243,-0.340,0.370
1244,-0.190,0.145
1245,-0.335,-0.070
1246,-0.335,0.095
1247,-0.160,0.110
1248,-0.040,0.050
1249,0.065,0.000
1250,0.015,0.140
1251,-0.040,-0.060
1252,-0.220,-0.040
1253,-0.185,0.045
1254,-0.145,0.060
1255,-0.050,0.135
1256,-0.065,-0.135
1257,0.055,-0.050
1258,0.080,-0.040
1259,0.070,0.055
1260,0.275,-0.090
1261,0.120,-0.045
1262,-0.090,0.180
1263,-0.225,0.045
1264,-0.235,0.025
1265,-0.035,0.365
1266,0.035,0.000
1267,-0.180,-0.020
1268,-0.225,-0.025
1269,-0.245,0.110
1270,-0.210,0.115
1271,-0.180,0.170
1272,-0.055,0.075
1273,-0.040,0.130
1274,-0.130,0.040
1275,-0.275,0.055
1276,-0.135,0.065
1277,0.020,0.180
1278,-0.030,0.035
1279,-0.050,0.135
1280,-0.080,0.035
1281,-0.010,0.000
1282,0.035,-0.045
1283,-0.075,0.075
1284,-0.235,0.140
1285,-0.065,0.210
1286,0.065,-0.060
1287,-0.065,0.040
1288,-0.185,0.155
1289,-0.175,0.135
1290,-0.065,0.035
1291,0.010,-0.015
1292,-0.040,0.015
1293,-0.155,0.030
1294,-0.055,0.050
1295,-0.190,0.170
1296,-0.125,0.130
1297,0.035,0.050
1298,-0.285,0.175
1299,-0.260,0.110
1300,-0.305,0.105
1301,-0.170,0.000
1302,0.030,-0.025
1303,-0.360,0.085
1304,-0.195,0.190
1305,-0.085,0.170
1306,-0.095,0.010
1307,-0.185,0.185
1308,-0.330,0.015
1309,-0.075,0.085
1310,-0.150,-0.065
1311,-0.340,0.105
1312,-0.070,0.110
1313,-0.120,0.160
1314,-0.215,0.145
1315,0.015,0.115
1316,-0.200,0.065
1317,0.005,0.200
1318,0.190,-0.105
1319,0.140,-0.045
1320,-0.130,0.010
1321,0.035,0.005
1322,-0.150,0.030
1323,-0.270,-0.030
1324,-0.285,0.050
1325,-0.330,0.125
1326,-0.355,0.240
1327,-0.230,-0.090
1328,-0.200,0.115
1329,-0.120,0.055
1330,-0.305,0.005
1331,-0.055,0.185
1332,0.825,-0.155
1333,1.405,-0.575
1334,0.375,-0.815
1335,-0.575,-0.345
1336,-0.380,-0.120
1337,-0.085,-0.165
1338,-0.030,-0.135
1339,-0.145,0.005
1340,-0.360,-0.010
1341,-0.550,0.090
1342,-0.440,0.135
1343,-0.495,0.215
1344,-0.365,0.135
1345,-0.355,-0.015
1346,-0.205,-0.025
1347,-0.270,0.120
1348,-0.310,-0.025
1349,-0.285,0.015
1350,-0.545,-0.010
1351,-0.385,0.055
1352,-0.385,0.050
1353,-0.255,0.070
1354,-0.195,-0.010
1355,-0.395,0.010
1356,-0.210,-0.050
1357,-0.330,-0.040
1358,-0.330,-0.005
1359,-0.145,-0.070
1360,-0.425,0.045
1361,-0.245,0.035
1362,-0.175,-0.030
1363,-0.215,-0.080
1364,0.010,-0.035
1365,-0.365,-0.155
1366,-0.290,-0.050
1367,-0.265,-0.150
1368,-0.165,-0.160
1369,-0.130,-0.105
1370,-0.220,-0.210
1371,-0.230,-0.035
1372,-0.245,-0.005
1373,-0.045,0.000
1374,0.035,-0.065
1375,-0.335,-0.090
1376,-0.220,0.155
1377,-0.145,-0.035
1378,-0.310,-0.040
1379,-0.420,0.045
1380,-0.475,0.035
1381,-0.065,0.070
1382,-0.375,-0.030
1383,-0.225,0.160
1384,0.065,-0.115
1385,-0.225,-0.025
1386,-0.075,0.120
1387,-0.025,-0.075
1388,-0.085,-0.005
1389,-0.115,-0.040
1390,-0.105,0.000
1391,0.105,-0.005
1392,-0.065,-0.075
1393,-0.235,-0.005
1394,-0.125,0.030
1395,-0.035,0.005
1396,-0.035,0.020
1397,-0.100,0.015
1398,-0.200,0.020
1399,-0.305,0.055
1400,-0.225,0.040
1401,-0.160,-0.005
1402,-0.110,-0.050
1403,-0.025,-0.025
1404,-0.350,0.000
1405,-0.275,0.060
1406,-0.150,0.060
1407,-0.050,0.035
1408,-0.145,0.000
1409,-0.255,0.085
1410,-0.275,0.060
1411,-0.340,0.060
1412,-0.270,0.040
1413,-0.390,0.135
1414,-0.340,0.040
1415,-0.025,-0.140
1416,-0.215,-0.035
1417,-0.285,0.010
1418,-0.110,0.005
1419,-0.285,0.005
1420,-0.150,0.085
1421,-0.110,0.100
1422,0.060,0.030
1423,0.125,0.010
1424,-0.080,-0.045
1425,0.005,0.085
1426,0.040,0.080
1427,-0.475,0.095
1428,-0.225,0.000
1429,-0.285,0.000
1430,-0.140,0.015
1431,-0.025,-0.150
1432,-0.350,0.000
1433,-0.195,-0.015
1434,-0.350,0.030
1435,-0.295,0.115
1436,-0.415,0.025
1437,-0.165,0.190
1438,0.420,0.135
1439,1.280,-0.135
1440,1.625,-0.365
1441,0.175,-0.735
1442,-0.890,-0.655
1443,-0.600,-0.450
1444,-0.350,-0.215
1445,-0.365,-0.050
1446,-0.240,0.160
1447,-0.235,0.145
1448,-0.285,0.040
1449,-0.390,0.000
1450,-0.490,0.000
1451,-0.505,0.140
1452,-0.410,0.240
1453,-0.295,-0.060
1454,-0.260,-0.080
1455,-0.135,0.160
1456,-0.300,0.065
1457,-0.285,-0.050
1458,-0.245,-0.080
1459,-0.365,0.065
1460,-0.395,0.105
1461,-0.365,0.035
1462,-0.100,0.055
1463,-0.125,-0.070
1464,-0.220,0.050
1465,-0.255,0.085
1466,-0.150,0.090
1467,0.000,-0.075
1468,-0.040,-0.075
1469,-0.090,0.100
1470,0.045,-0.120
1471,0.005,-0.065
1472,0.190,-0.195
1473,0.065,0.000
1474,-0.155,-0.075
1475,-0.130,-0.115
1476,-0.010,0.055
1477,0.115,0.065
1478,0.145,0.060
1479,0.095,-0.135
1480,-0.060,-0.095
1481,-0.005,-0.115
1482,-0.230,0.060
1483,-0.130,0.090
1484,-0.080,-0.005
1485,-0.280,0.090
1486,-0.090,-0.005
1487,-0.090,-0.020
1488,-0.075,-0.010
1489,-0.390,0.135
1490,-0.230,0.060
1491,0.070,-0.060
1492,-0.235,0.015
1493,-0.230,0.060
1494,-0.270,0.160
1495,-0.095,0.115
1496,-0.300,0.005
1497,-0.275,0.140
1498,-0.355,-0.100
1499,-0.185,-0.120
1500,-0.370,-0.045
1501,-0.370,0.125
1502,-0.250,0.020
1503,0.130,-0.060
1504,-0.060,-0.060
1505,-0.040,0.010
1506,-0.155,-0.045
1507,-0.150,0.020
1508,-0.100,0.175
1509,-0.145,0.215
1510,0.535,0.000
1511,1.455,-0.255
1512,1.165,-0.710
1513,-0.450,-1.035
1514,-0.705,-0.715
1515,-0.400,-0.345
1516,-0.240,-0.110
1517,-0.180,-0.055
1518,-0.430,0.120
1519,-0.325,0.205
1520,-0.220,0.205
1521,0.075,0.410
1522,-0.090,-0.010
1523,-0.190,-0.160
1524,0.010,-0.220
1525,-0.060,-0.065
1526,-0.180,0.015
1527,-0.205,0.035
1528,-0.220,0.070
1529,-0.140,0.150
1530,-0.145,0.090
1531,-0.125,0.145
1532,0.020,0.015
1533,-0.180,-0.025
1534,-0.040,0.205
1535,0.000,0.070
1536,-0.070,-0.055
1537,0.000,0.050
1538,-0.250,0.145
1539,-0.010,-0.025
1540,0.140,-0.110
1541,0.355,-0.080
1542,-0.030,0.040
1543,-0.075,-0.005
1544,0.370,-0.115
1545,0.285,-0.045
1546,0.145,0.135
1547,0.065,0.130
1548,0.245,0.015
1549,0.165,-0.130
1550,0.105,0.065
1551,0.025,0.095
1552,0.200,-0.150
1553,-0.200,0.045
1554,0.270,0.015
1555,-0.205,-0.125
1556,-0.465,0.095
1557,-0.070,0.085
1558,-0.215,0.030
1559,-0.155,0.230
1560,-0.150,0.455
1561,-0.380,-0.085
1562,-0.245,0.130
1563,-0.045,0.210
1564,-0.120,-0.165
1565,0.055,-0.200
1566,-0.125,0.080
1567,-0.250,0.355
1568,0.070,0.145
1569,-0.045,-0.105
1570,-0.180,-0.020
1571,-0.075,-0.300
1572,-0.160,-0.170
1573,-0.200,-0.030
1574,-0.075,-0.065
1575,-0.050,0.000
1576,0.025,0.175
1577,0.190,0.370
1578,0.115,0.060
1579,-0.425,-0.135
1580,-0.165,0.075
1581,-0.150,0.080
1582,-0.080,-0.145
1583,0.045,-0.055
1584,0.160,0.120
1585,-0.105,-0.140
1586,0.325,-0.045
1587,-0.555,-0.010
1588,-0.640,-0.080
1589,-0.340,-0.215
1590,-0.060,-0.045
1591,-0.075,0.205
1592,-0.155,0.185
1593,-0.205,0.245
1594,-0.570,-0.050
1595,-0.160,-0.150
1596,-0.210,-0.390
1597,-0.505,0.305
1598,-0.035,0.005
1599,-0.120,-0.385
1600,-0.585,-0.110
1601,-0.340,0.090
1602,-0.125,0.080
1603,-0.140,-0.205
1604,-0.110,-0.030
1605,-0.390,-0.025
1606,-0.450,0.005
1607,-0.315,-0.025
1608,-0.295,0.020
1609,-0.265,0.150
1610,-0.380,0.425
1611,-0.290,0.385
1612,-0.275,0.045
1613,-0.275,0.190
1614,0.025,-0.345
1615,0.290,-0.450
1616,0.250,-0.450
1617,0.060,-0.275
1618,-0.585,-0.065
1619,-0.340,-0.060
1620,-0.635,-0.085
1621,-0.565,0.080
1622,-0.405,0.510
1623,-0.260,-0.050
1624,-0.300,-0.325
1625,-0.245,0.035
1626,-0.185,0.280
1627,0.180,-0.250
1628,-0.485,-0.135
1629,-0.285,-0.080
1630,0.005,-0.090
1631,-0.295,-0.010
1632,-0.075,0.105
1633,0.490,0.150
1634,-0.090,-0.215
1635,-0.355,0.010
1636,-0.030,0.005
1637,0.030,0.015
1638,-0.180,-0.255
1639,-0.340,-0.030
1640,-0.285,0.145
1641,-0.375,-0.125
1642,-0.370,0.440
1643,0.070,-0.315
1644,-0.285,-0.065
1645,-0.125,-0.075
1646,-0.035,0.120
1647,0.450,0.010
1648,1.075,-0.020
1649,1.465,-0.580
1650,0.015,-0.805
1651,-0.845,-0.805
1652,-0.535,-0.595
1653,0.010,-0.395
1654,-0.260,-0.210
1655,-0.390,0.085
1656,-0.050,-0.065
1657,-0.535,-0.075
1658,-0.505,0.390
1659,-0.050,0.245
1660,-0.255,-0.130
1661,-0.235,-0.215
1662,-0.385,0.345
1663,-0.280,-0.310
1664,-0.350,0.030
1665,-0.275,-0.005
1666,-0.425,0.185
1667,-0.350,0.040
1668,-0.175,0.075
1669,-0.260,0.000
1670,-0.230,-0.075
1671,0.045,-0.105
1672,-0.280,0.235
1673,-0.060,0.020
1674,-0.325,0.160
1675,-0.235,-0.140
1676,-0.180,0.025
1677,-0.080,-0.150
1678,0.070,0.045
1679,-0.065,-0.005
1680,0.090,-0.110
1681,-0.020,0.095
1682,-0.095,-0.050
1683,0.060,-0.055
1684,-0.065,-0.180
1685,0.110,-0.230
1686,-0.020,-0.160
1687,0.190,-0.020
1688,-0.075,-0.045
1689,0.055,-0.020
1690,0.015,0.115
1691,0.235,-0.095
1692,-0.165,0.090
1693,-0.165,0.155
1694,-0.030,0.000
1695,0.090,-0.090
1696,-0.065,-0.025
1697,-0.285,0.010
1698,-0.010,0.000
1699,0.125,-0.025
1700,-0.095,-0.115
1701,-0.085,0.185
1702,0.065,-0.035
1703,0.005,-0.035
1704,-0.155,-0.130
1705,-0.030,0.025
1706,0.045,-0.045
1707,0.110,-0.115
1708,0.165,-0.060
1709,0.030,0.015
1710,0.190,-0.030
1711,0.255,0.010
1712,-0.285,0.110
1713,-0.110,0.105
1714,-0.080,0.245
1715,-0.015,-0.235
1716,-0.130,-0.085
1717,0.045,-0.110
1718,-0.150,-0.115
1719,-0.115,-0.035
1720,0.035,-0.090
1721,-0.245,0.030
1722,-0.205,-0.010
1723,-0.090,-0.010
1724,-0.145,0.240
1725,-0.175,-0.125
1726,-0.105,-0.035
1727,-0.180,0.020
1728,-0.225,0.000
1729,-0.110,0.015
1730,-0.285,-0.045
1731,-0.230,-0.060
1732,-0.265,-0.085
1733,-0.150,-0.060
1734,-0.225,-0.025
1735,-0.145,-0.060
1736,0.045,-0.080
1737,-0.465,0.000
1738,-0.375,0.050
1739,-0.260,0.030
1740,-0.065,0.170
1741,-0.120,-0.020
1742,-0.025,-0.135
1743,-0.045,-0.025
1744,0.175,0.050
1745,0.095,0.060
1746,-0.255,-0.190
1747,-0.090,-0.035
1748,-0.085,-0.020
1749,-0.060,-0.190
1750,-0.155,-0.030
1751,-0.320,0.155
1752,-0.150,-0.150
1753,-0.345,-0.065
1754,-0.045,0.090
1755,-0.375,0.060
1756,-0.360,-0.070
1757,-0.295,0.010
1758,0.175,0.035
1759,1.070,-0.040
1760,1.265,-0.435
1761,0.060,-1.000
1762,-0.715,-0.310
1763,-0.555,-0.340
1764,-0.365,-0.215
1765,-0.340,-0.025
1766,-0.220,0.095
1767,-0.295,-0.090
1768,-0.380,0.090
1769,-0.395,0.095
1770,-0.285,0.130
1771,-0.190,-0.215
1772,-0.135,-0.205
1773,-0.505,0.000
1774,-0.425,-0.090
1775,-0.320,0.035
1776,-0.405,0.165
1777,-0.360,0.090
1778,-0.290,-0.205
1779,-0.190,0.035
1780,-0.370,-0.020
1781,-0.295,-0.005
1782,-0.195,0.000
1783,-0.260,-0.095
1784,-0.240,-0.040
1785,-0.155,-0.015
1786,-0.170,-0.070
1787,-0.135,-0.015
1788,-0.190,0.015
1789,0.000,0.000
1790,-0.270,-0.025
1791,0.005,-0.060
1792,-0.040,-0.160
1793,-0.265,-0.230
1794,0.055,-0.085
1795,-0.150,-0.125
1796,-0.170,-0.105
1797,-0.005,-0.090
1798,0.135,-0.025
1799,-0.105,-0.005
1800,-0.195,0.105
1801,-0.190,-0.005
1802,-0.150,0.050
1803,-0.180,-0.025
1804,-0.160,-0.065
1805,-0.275,0.035
1806,-0.190,0.045
1807,-0.215,0.020
1808,-0.115,0.075
1809,-0.060,-0.055
1810,-0.270,-0.005
1811,-0.100,0.005
1812,-0.075,0.020
1813,-0.205,0.045
1814,-0.160,0.110
1815,-0.025,0.050
1816,0.095,-0.010
1817,-0.200,0.025
1818,0.035,-0.025
1819,-0.095,-0.010
1820,-0.045,-0.015
1821,-0.270,0.025
1822,-0.215,0.085
1823,-0.150,-0.085
1824,-0.185,0.015
1825,-0.110,0.020
1826,-0.260,0.050
1827,-0.125,0.125
1828,-0.210,-0.020
1829,-0.270,0.025
1830,-0.225,0.100
1831,-0.205,-0.005
1832,-0.305,0.030
1833,-0.235,0.025
1834,-0.090,0.000
1835,-0.115,-0.040
1836,-0.230,0.065
1837,-0.190,0.035
1838,-0.260,-0.040
1839,-0.250,-0.030
1840,-0.255,0.130
1841,-0.170,0.020
1842,-0.205,0.050
1843,-0.235,-0.025
1844,-0.205,0.000
1845,-0.190,0.040
1846,-0.085,-0.065
1847,-0.245,0.005
1848,-0.095,0.140
1849,-0.185,0.125
1850,-0.035,0.000
1851,0.135,0.080
1852,0.085,0.040
1853,-0.060,-0.150
1854,-0.230,0.105
1855,0.020,-0.125
1856,-0.290,-0.020
1857,-0.145,0.035
1858,-0.290,0.045
1859,-0.160,-0.150
1860,-0.315,-0.075
1861,-0.435,0.100
1862,-0.330,-0.020
1863,-0.220,0.035
1864,-0.155,0.100
1865,0.930,-0.145
1866,1.705,-0.415
1867,0.870,-0.605
1868,-0.355,-0.310
1869,-0.665,-0.205
1870,-0.365,-0.280
1871,-0.290,-0.050
1872,-0.105,-0.080
1873,-0.430,0.060
1874,-0.330,-0.010
1875,-0.220,0.005
1876,-0.425,0.065
1877,-0.360,-0.070
1878,-0.195,0.000
1879,-0.180,0.115
1880,-0.445,0.170
1881,-0.420,0.240
1882,-0.020,-0.100
1883,-0.175,-0.245
1884,-0.425,0.130
1885,-0.235,0.190
1886,-0.215,0.020
1887,-0.195,-0.025
1888,-0.270,-0.005
1889,-0.240,0.030
1890,-0.075,-0.165
1891,0.030,-0.035
1892,-0.090,-0.095
1893,-0.155,0.000
1894,0.020,0.105
1895,-0.120,-0.045
1896,-0.165,-0.165
1897,0.145,-0.165
1898,0.000,-0.060
1899,-0.140,-0.020
1900,-0.030,0.050
1901,0.035,-0.135
1902,0.095,0.080
1903,0.085,-0.330
1904,0.030,-0.055
1905,0.090,-0.040
1906,0.185,-0.110
1907,0.230,0.155
1908,-0.280,0.135
1909,-0.300,-0.110
1910,-0.055,-0.090
1911,0.015,-0.030
1912,-0.240,0.145
1913,-0.115,-0.110
1914,-0.050,-0.040
1915,-0.120,-0.010
1916,-0.060,0.035
1917,-0.090,0.040
1918,-0.010,0.085
1919,-0.180,0.130
1920,0.020,0.145
1921,0.010,0.055
1922,-0.150,0.200
1923,-0.225,0.190
1924,-0.250,-0.145
1925,-0.145,-0.100
1926,-0.080,-0.210
1927,-0.155,-0.025
1928,-0.170,-0.050
1929,0.035,0.125
1930,-0.040,0.085
1931,-0.070,0.175
1932,0.080,-0.260
1933,-0.070,-0.130
1934,-0.070,0.045
1935,-0.095,0.190
1936,0.695,-0.030
1937,1.740,-0.115
1938,1.120,-0.500
1939,-0.650,-0.645
1940,-0.680,-0.405
1941,-0.170,-0.155
1942,-0.135,0.155
1943,-0.100,-0.030
1944,0.010,-0.105
1945,-0.175,0.005
1946,-0.185,-0.015
1947,-0.045,0.090
1948,-0.110,-0.165
1949,-0.190,-0.070
1950,-0.065,-0.045
1951,-0.170,0.005
1952,0.025,0.030
1953,0.125,0.045
1954,0.035,0.090
1955,-0.150,0.095
1956,-0.100,0.355
1957,-0.300,-0.060
1958,-0.080,0.065
1959,0.110,0.020
1960,0.015,0.025
1961,-0.195,0.180
1962,0.060,0.070
1963,0.255,-0.110
1964,0.205,-0.030
1965,0.090,-0.070
1966,0.140,-0.050
1967,-0.030,0.010
1968,0.035,0.025
1969,0.165,0.030
1970,0.240,-0.005
1971,0.205,-0.155
1972,0.515,-0.050
1973,0.270,0.025
1974,0.270,0.070
1975,0.075,0.065
1976,-0.035,0.130
1977,0.140,0.090
1978,-0.035,0.000
1979,0.085,-0.075
1980,0.070,-0.145
1981,-0.185,-0.015
1982,0.000,0.060
1983,-0.075,-0.035
1984,-0.040,-0.080
1985,0.285,-0.005
1986,-0.445,0.035
1987,-0.065,0.105
1988,-0.140,0.055
1989,-0.165,0.185
1990,-0.125,0.150
1991,-0.085,-0.090
1992,0.080,-0.090
1993,-0.065,-0.015
1994,-0.100,0.110
1995,-0.035,-0.045
1996,-0.080,-0.005
1997,-0.145,0.155
1998,-0.160,0.180
1999,-0.115,0.425
2000,-0.035,-0.085
2001,0.030,-0.160
2002,0.050,-0.115
2003,0.095,0.005
2004,0.000,-0.070
2005,0.215,-0.065
2006,-0.325,0.000
2007,-0.205,0.070
2008,-0.120,0.065
2009,-0.030,0.055
2010,-0.090,0.070
2011,-0.120,0.115
2012,-0.180,0.430
2013,0.075,0.000
2014,-0.070,-0.190
2015,-0.105,-0.100
2016,-0.020,0.070
2017,0.020,-0.020
2018,-0.245,0.010
2019,-0.025,0.130
2020,0.065,-0.010
2021,0.085,-0.055
2022,-0.335,0.035
2023,-0.140,0.085
2024,-0.075,0.060
2025,-0.345,-0.005
2026,0.055,0.020
2027,-0.100,-0.070
2028,-0.145,-0.085
2029,-0.160,0.095
2030,-0.105,-0.100
2031,-0.050,-0.025
2032,0.085,0.055
2033,-0.140,-0.075
2034,-0.265,0.055
2035,-0.245,0.070
2036,0.070,-0.080
2037,0.065,-0.020
2038,-0.205,0.025
2039,-0.225,0.155
2040,-0.135,-0.095
2041,0.070,-0.005
2042,0.065,0.015
2043,-0.210,0.000
2044,0.085,-0.070
2045,-0.110,-0.005
2046,-0.255,0.035
2047,0.025,0.040
2048,0.260,-0.100
2049,-0.325,0.035
2050,-0.085,0.100
2051,-0.045,-0.090
2052,-0.175,0.010
2053,-0.065,0.070
2054,0.025,-0.010
2055,0.135,0.210
2056,0.255,0.030
2057,0.270,0.120
2058,0.230,-0.225
2059,0.105,-0.005
2060,0.310,-0.030
2061,0.025,0.115
2062,-0.220,-0.105
2063,-0.165,0.005
2064,-0.120,-0.030
2065,-0.115,0.075
2066,-0.060,0.105
2067,-0.035,-0.095
2068,-0.005,0.035
2069,0.020,0.220
2070,0.095,0.010
2071,1.150,-0.185
2072,1.660,-0.405
2073,0.955,-0.885
2074,-0.425,-0.655
2075,-0.320,-0.430
2076,-0.340,-0.070
2077,-0.235,-0.140
2078,-0.040,-0.040
2079,-0.120,0.100
2080,-0.255,0.200
2081,-0.230,0.100
2082,-0.140,-0.005
2083,-0.125,0.075
2084,-0.140,0.055
2085,-0.150,0.330
2086,-0.180,-0.140
2087,-0.075,-0.140
2088,-0.025,0.035
2089,-0.265,0.000
2090,0.005,0.015
2091,-0.225,0.030
2092,-0.145,0.205
2093,-0.035,0.085
2094,-0.100,0.000
2095,-0.020,0.190
2096,0.060,-0.080
2097,-0.020,0.165
2098,0.050,-0.025
2099,0.065,0.045
2100,-0.055,0.000
2101,0.030,-0.030
2102,0.145,0.030
2103,0.070,0.190
2104,0.080,0.055
2105,0.170,-0.130
2106,0.095,-0.105
2107,0.195,-0.070
2108,0.315,-0.160
2109,0.055,-0.195
2110,0.105,-0.050
2111,0.260,-0.075
2112,0.360,-0.070
2113,0.510,-0.105
2114,0.230,-0.100
2115,0.210,0.085
2116,0.045,0.025
2117,-0.065,0.180
2118,0.105,0.005
2119,-0.015,-0.030
2120,-0.050,-0.035
2121,-0.160,0.025
2122,0.025,0.030
2123,0.195,0.010
2124,0.065,-0.030
2125,0.130,-0.030
2126,-0.175,0.050
2127,0.005,0.150
2128,0.130,-0.085
2129,0.145,-0.085
2130,0.195,-0.020
2131,0.015,0.065
2132,0.045,0.055
2133,0.125,0.005
2134,0.165,0.025
2135,0.245,0.120
2136,-0.030,0.055
2137,0.195,-0.145
2138,0.215,-0.115
2139,0.205,0.030
2140,0.105,-0.065
2141,0.045,-0.020
2142,0.220,0.000
2143,-0.290,0.075
2144,-0.080,0.175
2145,0.035,0.005
2146,-0.095,-0.085
2147,-0.040,0.020
2148,-0.005,0.075
2149,-0.080,-0.040
2150,-0.085,0.175
2151,0.025,0.100
2152,0.085,-0.140
2153,0.015,-0.035
2154,0.010,0.065
2155,-0.125,0.055
2156,0.135,-0.010
2157,-0.050,0.040
2158,-0.170,0.060
2159,-0.170,0.000
2160,-0.005,0.105
2161,0.080,0.185
2162,0.045,0.220
2163,0.170,-0.015
2164,0.415,-0.030
2165,0.460,-0.110
2166,0.165,-0.045
2167,0.090,0.045
2168,0.085,0.090
2169,-0.210,-0.030
2170,-0.210,0.050
2171,-0.050,0.025
2172,-0.150,-0.040
2173,-0.150,0.165
2174,-0.020,0.020
2175,-0.005,-0.030
2176,-0.175,0.095
2177,0.110,0.095
2178,0.180,0.055
2179,0.945,-0.105
2180,1.635,-0.415
2181,0.515,-0.795
2182,-0.550,-0.430
2183,-0.405,-0.190
2184,-0.240,-0.005
2185,-0.115,-0.020
2186,-0.080,0.095
2187,-0.030,0.110
2188,0.050,0.070
2189,0.195,-0.065
2190,-0.105,0.000
2191,-0.205,0.150
2192,-0.330,0.155
2193,-0.165,0.135
2194,-0.165,0.015
2195,-0.140,0.055
2196,-0.110,0.085
2197,-0.045,0.120
2198,0.160,0.090
2199,0.010,-0.120
2200,-0.080,0.190
2201,0.040,0.010
2202,0.090,0.040
2203,-0.065,0.000
2204,-0.020,0.170
2205,0.250,-0.030
2206,0.095,0.010
2207,0.225,-0.005
2208,0.020,-0.025
2209,0.120,0.065
2210,0.260,-0.105
2211,0.255,-0.115
2212,0.380,-0.040
2213,0.250,-0.070
2214,0.195,0.020
2215,0.300,-0.090
2216,0.455,-0.055
2217,0.220,-0.010
2218,0.085,0.050
2219,0.205,0.010
2220,0.220,0.090
2221,0.140,0.095
2222,0.170,-0.120
2223,0.120,-0.040
2224,0.315,-0.035
2225,-0.125,0.025
2226,0.000,0.125
2227,0.090,0.135
2228,0.110,0.030
2229,0.000,0.110
2230,-0.005,0.075
2231,0.095,0.065
2232,-0.100,0.160
2233,0.080,0.235
2234,-0.040,0.000
2235,-0.125,-0.010
2236,-0.155,-0.130
2237,-0.200,-0.015
2238,-0.170,-0.020
2239,0.060,0.030
2240,0.040,0.000
2241,-0.055,-0.035
2242,0.160,0.005
2243,0.165,0.085
2244,0.060,0.085
2245,0.095,-0.045
2246,0.100,0.150
2247,0.145,0.170
2248,1.015,-0.040
2249,1.595,-0.430
2250,0.455,-0.730
2251,-0.460,-0.335
2252,-0.460,-0.010
2253,-0.150,-0.040
2254,-0.090,-0.025
2255,-0.070,0.015
2256,0.015,0.025
2257,-0.070,0.045
2258,0.025,0.045
2259,0.035,0.020
2260,0.035,0.145
2261,-0.055,0.065
2262,-0.060,0.005
2263,0.015,0.160
2264,-0.060,0.005
2265,-0.070,0.130
2266,0.135,0.035
2267,0.020,0.030
2268,-0.135,0.100
2269,0.235,0.100
2270,-0.040,0.090
2271,-0.090,0.085
2272,-0.010,0.055
2273,0.025,0.030
2274,0.185,0.030
2275,0.260,0.020
2276,0.180,-0.050
2277,0.110,0.015
2278,0.400,0.030
2279,0.230,-0.010
2280,0.100,-0.050
2281,0.295,-0.055
2282,0.045,0.065
2283,0.255,0.025
2284,0.470,-0.095
2285,0.280,-0.025
2286,0.220,-0.025
2287,0.115,0.000
2288,0.190,0.105
2289,0.105,0.000
2290,-0.125,0.135
2291,-0.135,0.155
2292,-0.030,0.130
2293,-0.085,0.105
2294,-0.125,0.040
2295,-0.105,-0.005
2296,0.025,0.125
2297,-0.120,0.110
2298,-0.205,0.250
2299,-0.095,0.060
2300,0.020,0.190
2301,-0.120,0.185
2302,0.170,0.185
2303,0.085,0.085
2304,-0.040,-0.150
2305,0.300,0.065
2306,-0.015,0.020
2307,-0.250,0.040
2308,-0.045,0.105
2309,0.100,0.050
2310,-0.205,0.460
2311,0.005,0.000
2312,0.115,-0.085
2313,0.085,0.005
2314,-0.120,0.095
2315,-0.255,0.065
2316,-0.035,0.170
2317,-0.190,0.170
2318,-0.085,0.225
2319,-0.040,0.130
2320,-0.065,0.465
2321,-0.220,0.025
2322,-0.025,0.000
2323,0.110,0.065
2324,0.010,0.100
2325,0.270,0.000
2326,-0.405,-0.075
2327,-0.425,0.140
2328,-0.160,0.185
2329,0.040,0.030
2330,-0.155,0.080
2331,-0.225,0.150
2332,0.000,0.150
2333,-0.065,0.220
2334,0.025,0.375
2335,0.165,0.145
2336,-0.330,0.110
2337,-0.305,-0.040
2338,0.055,0.115
2339,-0.010,0.140
2340,-0.180,0.075
2341,-0.195,-0.100
2342,0.050,0.025
2343,-0.160,0.075
2344,-0.230,0.120
2345,-0.215,0.280
2346,-0.115,0.080
2347,-0.105,0.010
2348,-0.210,0.340
2349,-0.070,0.200
2350,0.000,0.095
2351,0.015,-0.030
2352,0.020,-0.020
2353,-0.120,0.100
2354,0.140,0.150
2355,0.005,0.120
2356,0.025,0.235
2357,0.145,0.280
2358,0.130,-0.005
2359,0.165,0.190
2360,0.375,0.240
2361,-0.130,-0.045
2362,-0.290,0.235
2363,-0.170,0.050
2364,-0.060,-0.085
2365,-0.010,0.115
2366,-0.165,0.025
2367,0.000,0.005
2368,-0.040,0.055
2369,-0.090,0.220
2370,0.220,0.265
2371,1.275,0.035
2372,1.870,-0.195
2373,0.520,-0.760
2374,-0.835,-0.545
2375,-0.485,-0.500
2376,-0.085,-0.075
2377,-0.205,-0.120
2378,-0.245,0.055
2379,-0.105,0.000
2380,-0.265,0.120
2381,-0.220,0.090
2382,-0.200,0.035
2383,-0.300,0.145
2384,-0.065,0.305
2385,-0.165,-0.005
2386,-0.300,0.020
2387,-0.120,0.150
2388,-0.425,0.190
2389,-0.275,0.210
2390,-0.185,0.145
2391,-0.180,0.090
2392,-0.075,0.215
2393,-0.020,0.200
2394,-0.195,0.135
2395,-0.180,0.185
2396,0.035,0.295
2397,0.160,-0.070
2398,-0.170,0.090
2399,0.075,0.065
2400,0.130,-0.070
2401,-0.040,0.160
2402,0.055,0.030
2403,0.240,0.025
2404,0.005,0.055
2405,0.045,0.015
2406,0.165,0.050
2407,0.225,-0.035
2408,0.035,0.010
2409,0.100,0.130
2410,0.180,0.030
2411,0.200,0.075
2412,0.170,0.090
2413,0.250,-0.010
2414,0.260,0.015
2415,-0.060,0.085
2416,0.130,0.110
2417,-0.065,0.160
2418,0.280,0.160
2419,-0.055,0.190
2420,-0.275,0.315
2421,-0.130,0.110
2422,-0.135,0.170
2423,-0.060,0.120
2424,0.170,0.040
2425,0.075,0.010
2426,-0.030,0.195
2427,0.160,0.065
2428,0.000,0.050
2429,-0.060,0.245
2430,0.010,0.105
2431,0.120,0.150
2432,0.135,0.160
2433,-0.015,0.265
2434,0.130,0.195
2435,-0.030,0.150
2436,0.015,0.025
2437,0.155,0.050
2438,0.100,0.000
2439,0.045,0.030
2440,-0.105,0.100
2441,-0.100,0.185
2442,0.135,0.135
2443,-0.170,0.135
2444,-0.215,0.270
2445,-0.055,0.170
2446,0.005,0.135
2447,-0.200,0.180
2448,-0.060,0.090
2449,-0.070,0.000
2450,-0.125,0.065
2451,-0.085,0.115
2452,0.045,0.100
2453,0.020,0.110
2454,-0.125,0.110
2455,-0.155,0.250
2456,-0.105,0.140
2457,-0.045,0.160
2458,-0.095,0.125
2459,-0.190,0.065
2460,-0.170,0.145
2461,-0.090,0.075
2462,-0.140,0.080
2463,-0.095,0.110
2464,-0.010,0.160
2465,0.045,0.230
2466,0.015,0.170
2467,0.255,0.060
2468,0.205,0.050
2469,0.110,0.015
2470,-0.035,0.125
2471,-0.275,0.330
2472,-0.260,0.230
2473,-0.215,0.125
2474,-0.155,-0.050
2475,-0.080,0.045
2476,-0.180,0.095
2477,-0.230,0.035
2478,-0.235,0.180
2479,-0.110,0.295
2480,0.285,0.180
2481,0.735,0.040
2482,1.525,-0.100
2483,1.045,-0.840
2484,-0.490,-0.900
2485,-0.850,-0.505
2486,-0.430,-0.025
2487,-0.395,-0.010
2488,-0.200,0.165
2489,-0.075,0.090
2490,-0.135,0.070
2491,-0.240,0.045
2492,-0.200,0.145
2493,-0.240,0.100
2494,-0.390,0.160
2495,-0.325,0.140
2496,-0.215,0.225
2497,-0.225,0.150
2498,-0.355,0.320
2499,-0.290,0.170
2500,-0.240,0.005
2501,-0.185,0.045
2502,-0.185,0.080
2503,-0.245,0.160
2504,-0.160,0.245
2505,0.020,0.225
2506,0.000,-0.030
2507,-0.240,0.135
2508,-0.070,0.060
2509,-0.030,0.145
2510,0.000,0.145
2511,0.190,0.065
2512,0.095,-0.085
2513,-0.025,0.000
2514,0.130,0.020
2515,0.135,0.030
2516,0.075,-0.025
2517,-0.030,0.110
2518,0.300,-0.080
2519,0.035,-0.045
2520,0.095,0.010
2521,0.090,-0.015
2522,0.170,-0.070
2523,0.000,0.035
2524,-0.215,0.210
2525,0.070,0.150
2526,0.125,-0.035
2527,-0.270,0.035
2528,-0.205,0.115
2529,-0.060,0.160
2530,-0.065,0.210
2531,-0.325,0.090
2532,-0.230,0.215
2533,-0.090,0.155
2534,-0.145,0.170
2535,-0.055,0.000
2536,-0.095,0.075
2537,-0.380,0.145
2538,-0.285,0.045
2539,-0.240,0.005
2540,-0.345,0.000
2541,-0.335,0.115
2542,-0.270,0.125
2543,-0.090,0.125
2544,0.180,0.035
2545,-0.015,0.075
2546,-0.300,0.315
2547,-0.045,0.195
2548,0.130,0.090
2549,0.155,0.270
2550,1.120,-0.010
2551,1.425,-0.720
2552,-0.030,-0.885
2553,-0.770,-0.370
2554,-0.400,-0.285
2555,-0.325,-0.055
2556,-0.160,0.095
2557,-0.060,0.205
2558,-0.055,0.065
2559,-0.085,0.050
2560,-0.120,0.050
2561,-0.155,0.210
2562,-0.170,0.125
2563,-0.285,0.160
2564,-0.170,0.185
2565,0.000,0.140
2566,0.115,0.230
2567,-0.115,0.155
2568,0.025,0.270
2569,0.035,-0.015
2570,-0.215,0.020
2571,-0.080,0.215
2572,-0.010,0.050
2573,0.005,0.090
2574,0.110,0.100
2575,-0.005,0.090
2576,0.090,0.145
2577,0.065,0.080
2578,0.060,0.065
2579,0.320,0.060
2580,0.215,0.150
2581,0.005,0.010
2582,0.120,0.050
2583,0.290,0.105
2584,0.095,-0.080
2585,0.240,-0.075
2586,0.160,-0.080
2587,0.300,0.020
2588,0.275,0.055
2589,0.045,-0.060
2590,0.130,0.035
2591,0.070,0.090
2592,0.050,0.040
2593,-0.145,0.105
2594,-0.240,0.215
2595,-0.245,0.165
2596,-0.120,0.205
2597,0.000,0.145
2598,0.020,0.085
2599,-0.250,0.020
2600,-0.005,0.155
2601,-0.230,0.200
2602,-0.280,0.065
2603,-0.065,-0.005
2604,-0.175,0.065
2605,-0.200,0.110
2606,0.125,0.060
2607,-0.055,-0.020
2608,-0.165,0.155
2609,-0.035,0.135
2610,0.050,0.055
2611,-0.145,0.050
2612,-0.185,0.070
2613,-0.305,0.095
2614,-0.175,0.110
2615,-0.020,0.040
2616,-0.130,0.075
2617,-0.135,0.015
2618,-0.090,0.040
2619,-0.330,0.060
2620,-0.290,0.155
2621,-0.055,0.090
2622,0.065,0.005
2623,-0.210,0.105
2624,-0.205,0.045
2625,-0.340,0.075
2626,-0.115,0.130
2627,-0.160,0.010
2628,-0.240,0.085
2629,-0.225,0.055
2630,-0.270,0.070
2631,-0.215,0.055
2632,-0.130,-0.015
2633,-0.175,0.025
2634,-0.320,0.045
2635,-0.265,0.060
2636,-0.220,0.030
2637,-0.180,0.060
2638,-0.200,0.000
2639,-0.185,0.025
2640,-0.310,0.100
2641,-0.270,0.100
2642,-0.225,0.165
2643,-0.400,0.050
2644,-0.150,0.060
2645,-0.320,0.090
2646,-0.200,0.020
2647,-0.150,0.080
2648,-0.265,0.125
2649,-0.330,0.020
2650,-0.325,0.070
2651,-0.255,0.005
2652,-0.240,0.000
2653,-0.230,0.020
2654,-0.270,-0.025
2655,-0.275,0.015
2656,-0.215,0.025
2657,-0.265,0.015
2658,-0.400,0.115
2659,-0.280,0.115
2660,-0.270,0.100
2661,-0.335,0.240
2662,-0.265,-0.085
2663,-0.355,0.035
2664,-0.290,0.025
2665,-0.250,-0.015
2666,-0.225,-0.010
2667,-0.475,-0.015
2668,-0.265,-0.005
2669,-0.080,0.060
2670,-0.425,0.070
2671,-0.220,0.100
2672,-0.195,0.045
2673,-0.040,0.050
2674,-0.175,0.100
2675,-0.020,0.000
2676,-0.355,0.035
2677,-0.535,0.165
2678,-0.415,0.040
2679,-0.385,0.010
2680,-0.250,0.030
2681,-0.200,-0.025
2682,-0.405,-0.055
2683,-0.375,0.030
2684,-0.285,0.095
2685,-0.310,0.140
2686,0.200,0.035
2687,1.420,-0.115
2688,1.440,-0.655
2689,-0.050,-0.640
2690,-0.555,-0.155
2691,-0.350,-0.100
2692,-0.295,-0.140
2693,-0.385,-0.045
2694,-0.420,0.065
2695,-0.335,0.045
2696,-0.400,0.075
2697,-0.465,0.140
2698,-0.260,0.100
2699,-0.430,0.085
2700,-0.445,0.130
2701,-0.185,0.100
2702,-0.365,0.000
2703,-0.485,0.030
2704,-0.410,0.090
2705,-0.340,-0.025
2706,-0.355,0.055
2707,-0.450,0.055
2708,-0.305,0.150
2709,-0.370,-0.050
2710,-0.385,-0.030
2711,-0.180,0.060
2712,-0.290,-0.130
2713,-0.270,-0.015
2714,-0.410,0.075
2715,-0.250,0.010
2716,-0.280,-0.070
2717,-0.105,0.020
2718,-0.030,-0.095
2719,-0.310,-0.060
2720,-0.200,0.000
2721,-0.030,-0.100
2722,-0.205,-0.055
2723,-0.230,-0.080
2724,-0.045,-0.100
2725,0.000,0.010
2726,-0.070,-0.185
2727,-0.190,-0.030
2728,0.050,-0.045
2729,-0.175,0.000
2730,0.110,-0.090
2731,-0.145,-0.020
2732,-0.270,0.100
2733,-0.240,0.005
2734,-0.135,0.080
2735,0.035,0.085
2736,-0.095,0.000
2737,-0.210,-0.010
2738,-0.060,-0.020
2739,-0.240,0.040
2740,-0.105,0.065
2741,0.000,0.050
2742,-0.160,0.025
2743,-0.095,0.000
2744,0.100,0.050
2745,0.200,0.070
2746,0.050,0.015
2747,0.075,-0.055
2748,0.040,-0.015
2749,-0.080,-0.010
2750,-0.040,0.065
2751,0.045,-0.065
2752,0.070,-0.045
2753,0.120,0.065
2754,-0.345,0.020
2755,-0.130,0.115
2756,0.005,0.055
2757,-0.150,0.035
2758,-0.075,-0.095
2759,-0.095,0.110
2760,-0.025,0.040
2761,-0.130,-0.070
2762,-0.195,-0.070
2763,-0.205,0.120
2764,-0.230,-0.005
2765,-0.185,0.045
2766,-0.205,0.010
2767,-0.230,0.045
2768,-0.075,0.100
2769,-0.070,-0.050
2770,-0.380,0.090
2771,-0.315,-0.030
2772,-0.170,0.130
2773,-0.165,0.015
2774,-0.280,0.030
2775,-0.185,0.010
2776,-0.235,-0.045
2777,-0.225,0.045
2778,0.000,0.070
2779,-0.025,0.100
2780,0.125,0.060
2781,0.005,0.045
2782,-0.140,0.065
2783,-0.100,0.050
2784,-0.030,0.090
2785,0.010,-0.020
2786,-0.145,0.055
2787,-0.185,-0.025
2788,-0.200,0.025
2789,-0.340,0.045
2790,-0.145,-0.015
2791,-0.285,-0.080
2792,-0.170,0.070
2793,-0.180,0.185
2794,-0.175,0.165
2795,0.715,-0.005
2796,1.760,-0.260
2797,0.925,-0.825
2798,-0.545,-0.835
2799,-0.775,-0.425
2800,-0.390,-0.135
2801,-0.310,-0.060
2802,-0.370,-0.055
2803,-0.390,0.015
2804,-0.280,0.150
2805,-0.250,-0.035
2806,-0.335,0.070
2807,-0.210,0.055
2808,-0.295,-0.025
2809,-0.310,0.155
2810,-0.300,-0.020
2811,-0.440,0.045
2812,-0.360,0.055
2813,-0.320,0.000
2814,-0.205,0.060
2815,-0.260,0.125
2816,-0.145,0.120
2817,-0.210,0.005
2818,-0.150,-0.040
2819,-0.065,0.035
2820,-0.285,0.010
2821,-0.245,0.010
2822,-0.235,0.185
2823,-0.030,-0.065
2824,0.025,-0.045
2825,0.050,-0.065
2826,0.075,-0.040
2827,0.045,-0.100
2828,0.290,-0.110
2829,0.170,-0.060
2830,0.040,0.010
2831,0.105,-0.100
2832,0.100,-0.075
2833,0.060,0.035
2834,-0.045,0.005
2835,0.020,0.055
2836,0.055,0.035
2837,0.070,0.055
2838,0.225,-0.085
2839,0.030,-0.025
2840,-0.005,0.005
2841,-0.150,0.080
2842,-0.265,0.025
2843,-0.305,0.095
2844,-0.225,0.080
2845,-0.210,0.075
2846,-0.075,0.000
2847,-0.060,-0.005
2848,-0.160,0.110
2849,-0.160,0.135
2850,-0.185,0.150
2851,-0.055,-0.020
2852,-0.080,0.095
2853,-0.115,0.080
2854,-0.010,0.120
2855,-0.070,0.090
2856,-0.040,0.035
2857,-0.075,-0.080
2858,-0.145,0.055
2859,0.020,0.035
2860,-0.185,0.070
2861,-0.085,0.040
2862,-0.165,0.035
2863,0.045,0.105
2864,-0.125,0.030
2865,-0.100,0.130
2866,-0.045,0.020
2867,0.000,0.025
2868,-0.205,0.100
2869,-0.060,-0.050
2870,-0.080,-0.030
2871,-0.205,0.120
2872,-0.315,0.040
2873,-0.315,0.105
2874,-0.150,0.090
2875,-0.040,0.120
2876,-0.015,-0.035
2877,-0.065,-0.020
2878,-0.025,0.065
2879,-0.310,0.015
2880,-0.060,0.210
2881,-0.190,-0.040
2882,-0.290,0.000
2883,-0.100,0.015
2884,-0.050,0.070
2885,-0.210,0.010
2886,-0.450,0.025
2887,-0.180,-0.015
2888,-0.045,-0.075
2889,0.295,0.120
2890,0.050,0.080
2891,-0.050,-0.030
2892,-0.040,0.135
2893,0.105,0.030
2894,-0.060,0.010
2895,-0.125,-0.035
2896,-0.295,0.140
2897,0.185,0.010
2898,-0.030,-0.155
2899,-0.220,-0.060
2900,-0.385,0.270
2901,-0.310,0.115
2902,-0.270,0.075
2903,-0.035,0.245
2904,1.460,-0.465
2905,1.625,-0.605
2906,0.520,-1.105
2907,-0.585,-0.660
2908,-0.150,-0.080
2909,-0.100,-0.190
2910,-0.510,-0.040
2911,-0.095,0.085
2912,0.065,0.180
2913,-0.235,0.050
2914,-0.455,-0.050
2915,-0.110,0.190
2916,-0.210,0.195
2917,-0.380,0.170
2918,0.225,0.300
2919,-0.295,-0.280
2920,-0.360,0.000
2921,-0.650,-0.055
2922,-0.120,0.350
2923,-0.165,-0.005
2924,-0.445,0.000
2925,0.045,0.110
2926,0.030,0.090
2927,-0.115,0.010
2928,0.180,0.035
2929,-0.095,0.035
2930,0.070,0.160
2931,0.195,0.100
2932,0.170,0.220
2933,0.415,0.125
2934,-0.055,-0.090
2935,-0.250,0.145
2936,-0.190,0.025
2937,0.115,-0.080
2938,0.385,-0.170
2939,0.285,-0.010
2940,0.120,0.130
2941,0.165,-0.140
2942,0.485,-0.070
2943,0.405,-0.025
2944,0.335,-0.045
2945,0.500,-0.035
2946,0.290,-0.065
2947,0.170,0.030
2948,0.000,0.155
2949,-0.020,0.315
2950,-0.130,0.195
2951,-0.060,0.235
2952,-0.185,0.135
2953,-0.185,0.045
2954,0.115,0.090
2955,-0.035,-0.035
2956,-0.140,0.210
2957,0.045,-0.055
2958,0.120,-0.090
2959,0.155,-0.005
2960,0.250,0.080
2961,-0.245,0.170
2962,-0.150,0.085
2963,0.005,-0.030
2964,-0.260,0.165
2965,0.085,0.090
2966,-0.075,0.130
2967,0.000,0.210
2968,0.310,0.345
2969,0.175,0.225
2970,-0.025,0.245
2971,0.065,0.025
2972,-0.140,0.170
2973,0.680,-0.135
2974,1.550,-0.305
2975,1.380,-0.730
2976,-0.035,-0.950
2977,-0.485,-0.480
2978,0.190,-0.255
2979,0.070,-0.125
2980,-0.020,0.015
2981,-0.015,0.205
2982,0.115,0.260
2983,-0.030,0.320
2984,0.150,0.365
2985,0.430,-0.160
2986,0.000,-0.055
2987,0.060,0.105
2988,0.230,0.170
2989,0.175,0.145
2990,0.000,0.000
2991,-0.050,0.105
2992,-0.310,0.280
2993,-0.040,0.140
2994,0.190,0.300
2995,0.260,-0.030
2996,0.250,-0.140
2997,0.255,0.070
2998,-0.255,-0.040
2999,-0.060,0.185
3000,0.075,0.410
3001,0.110,0.065
3002,0.460,-0.025
3003,0.210,-0.085
3004,0.490,-0.065
3005,0.200,0.025
3006,0.465,-0.075
3007,0.625,-0.055
3008,0.230,0.260
3009,0.660,-0.045
3010,0.285,-0.145
3011,0.345,-0.030
3012,0.815,0.070
3013,0.345,0.010
3014,0.070,0.060
3015,0.045,0.040
3016,0.205,0.045
3017,-0.140,0.120
3018,0.030,0.150
3019,0.090,0.075
3020,0.230,0.110
3021,0.020,0.185
3022,-0.170,0.295
3023,-0.080,0.065
3024,0.055,-0.115
3025,0.230,-0.060
3026,0.065,0.000
3027,-0.170,0.060
3028,-0.165,0.125
3029,-0.315,0.075
3030,-0.110,0.225
3031,0.035,0.100
3032,-0.170,0.065
3033,-0.105,0.340
3034,-0.215,0.205
3035,-0.070,-0.050
3036,-0.150,-0.035
3037,-0.055,0.190
3038,-0.130,-0.035
3039,-0.010,-0.015
3040,-0.120,0.090
3041,-0.130,-0.005
3042,-0.080,0.050
3043,-0.225,0.095
3044,-0.170,0.155
3045,0.040,0.140
3046,0.000,0.155
3047,-0.070,0.040
3048,-0.150,0.215
3049,0.110,0.120
3050,-0.210,0.160
3051,0.185,-0.105
3052,-0.235,0.115
3053,-0.285,-0.035
3054,-0.210,0.060
3055,-0.045,0.165
3056,0.020,0.140
3057,-0.265,0.135
3058,-0.315,0.020
3059,-0.145,0.205
3060,-0.125,0.095
3061,0.015,-0.035
3062,-0.235,-0.115
3063,0.000,0.000
3064,-0.355,0.245
3065,-0.485,0.145
3066,-0.175,0.065
3067,-0.025,-0.060
3068,-0.250,-0.010
3069,-0.265,0.160
3070,-0.055,0.010
3071,-0.145,-0.075
3072,-0.190,0.000
3073,-0.050,0.070
3074,-0.250,0.100
3075,0.060,0.115
3076,-0.220,0.000
3077,-0.035,0.080
3078,0.095,0.075
3079,-0.195,0.280
3080,-0.135,0.245
3081,-0.080,0.030
3082,0.020,-0.195
3083,-0.060,-0.035
3084,-0.075,0.220
3085,-0.085,-0.020
3086,-0.245,0.220
3087,-0.050,0.105
3088,-0.010,-0.130
3089,-0.270,0.160
3090,-0.165,0.020
3091,-0.220,-0.075
3092,-0.090,-0.055
3093,-0.135,-0.020
3094,-0.270,0.115
3095,0.050,0.105
3096,0.255,0.115
3097,0.005,0.195
3098,-0.130,0.115
3099,0.060,0.115
3100,-0.340,0.165
3101,-0.330,0.130
3102,-0.330,0.050
3103,-0.220,-0.040
3104,-0.250,-0.035
3105,-0.415,0.055
3106,-0.355,0.095
3107,-0.295,0.100
3108,-0.240,0.090
3109,-0.145,0.105
3110,-0.030,0.185
3111,0.390,0.075
3112,1.350,-0.310
3113,1.000,-0.905
3114,-0.260,-0.760
3115,-0.760,-0.215
3116,-0.560,0.005
3117,-0.415,0.005
3118,-0.410,0.065
3119,-0.390,0.065
3120,-0.270,0.080
3121,-0.410,0.295
3122,-0.460,0.210
3123,-0.305,0.205
3124,0.225,-0.210
3125,-0.320,-0.195
3126,-0.675,0.045
3127,-0.610,0.130
3128,-0.190,0.075
3129,-0.485,0.065
3130,-0.550,0.120
3131,-0.490,0.155
3132,-0.365,0.285
3133,-0.110,0.330
3134,-0.315,0.285
3135,-0.295,-0.250
3136,-0.230,-0.150
3137,-0.175,-0.095
3138,-0.080,-0.010
3139,-0.020,-0.045
3140,-0.210,-0.045
3141,-0.075,-0.030
3142,-0.245,-0.030
3143,-0.080,0.090
3144,0.385,0.230
3145,-0.045,-0.040
3146,-0.275,0.055
3147,-0.130,0.010
3148,0.000,-0.050
3149,0.060,-0.105
3150,0.100,-0.250
3151,0.370,-0.180
3152,0.320,-0.290
3153,-0.170,0.000
3154,-0.255,0.100
3155,0.225,-0.040
3156,-0.260,-0.165
3157,0.015,0.015
3158,-0.165,-0.040
3159,-0.140,0.015
3160,-0.145,0.085
3161,-0.250,0.090
3162,-0.100,0.030
3163,-0.055,0.145
3164,-0.065,0.135
3165,-0.045,0.355
3166,-0.040,-0.045
3167,-0.050,-0.090
3168,-0.210,0.100
3169,-0.010,-0.190
3170,0.065,-0.090
3171,-0.095,-0.075
3172,-0.005,-0.005
3173,0.170,0.005
3174,0.180,0.095
3175,0.130,0.010
3176,-0.155,-0.015
3177,-0.045,0.055
3178,-0.180,0.125
3179,-0.170,0.120
3180,0.025,-0.110
3181,-0.070,-0.210
3182,-0.070,-0.015
3183,-0.130,0.000
3184,0.060,0.165
3185,-0.015,0.045
3186,-0.290,0.070
3187,-0.240,0.095
3188,-0.200,-0.105
3189,-0.155,-0.020
3190,-0.285,-0.025
3191,-0.300,0.125
3192,-0.165,0.105
3193,-0.180,0.260
3194,-0.195,0.325
3195,-0.015,-0.110
3196,-0.130,-0.045
3197,-0.125,0.125
3198,0.005,-0.190
3199,-0.320,-0.110
3200,-0.110,0.030
3201,-0.460,0.110
3202,-0.320,0.105
3203,-0.190,0.045
3204,-0.190,-0.095
3205,-0.235,0.135
3206,-0.010,0.070
3207,0.075,0.075
3208,0.025,-0.025
3209,-0.040,0.055
3210,-0.100,0.030
3211,0.105,0.010
3212,-0.175,-0.035
3213,-0.445,0.190
3214,-0.375,0.370
3215,-0.320,-0.145
3216,-0.235,-0.235
3217,-0.675,0.125
3218,-0.440,0.225
3219,-0.380,0.020
3220,-0.240,0.040
3221,0.155,0.045
3222,1.295,-0.260
3223,1.465,-0.890
3224,-0.265,-1.070
3225,-0.960,-0.405
3226,-0.575,-0.195
3227,-0.280,-0.185
3228,-0.480,-0.080
3229,-0.570,0.120
3230,-0.540,0.015
3231,-0.510,-0.030
3232,-0.430,0.045
3233,-0.440,-0.055
3234,-0.495,0.015
3235,-0.685,0.075
3236,-0.445,0.180
3237,-0.360,-0.015
3238,-0.560,0.115
3239,-0.435,0.035
3240,-0.505,0.225
3241,-0.430,0.110
3242,-0.515,-0.215
3243,-0.350,-0.095
3244,-0.440,0.195
3245,-0.190,-0.080
3246,-0.520,-0.040
3247,-0.390,-0.065
3248,-0.410,-0.230
3249,-0.425,0.025
3250,-0.490,0.250
3251,-0.230,-0.025
3252,-0.010,-0.285
3253,-0.430,-0.095
3254,-0.275,0.085
3255,0.015,-0.240
3256,-0.080,-0.270
3257,-0.200,-0.100
3258,-0.115,-0.075
3259,0.010,-0.200
3260,0.000,-0.015
3261,-0.110,0.040
3262,-0.090,-0.215
3263,-0.320,0.015
3264,-0.180,0.055
3265,-0.390,0.170
3266,-0.160,-0.130
3267,-0.530,-0.180
3268,-0.325,-0.060
3269,-0.325,0.050
3270,-0.480,0.160
3271,-0.420,0.015
3272,-0.390,-0.030
3273,-0.285,0.045
3274,-0.325,-0.145
3275,-0.350,-0.100
3276,-0.280,-0.025
3277,-0.220,-0.055
3278,-0.345,0.005
3279,-0.395,0.100
3280,-0.130,-0.100
3281,-0.250,0.110
3282,-0.345,0.055
3283,-0.285,-0.130
3284,-0.120,-0.145
3285,-0.130,0.000
3286,-0.280,-0.035
3287,-0.300,0.205
3288,-0.215,-0.070
3289,-0.315,-0.070
3290,-0.200,-0.035
3291,-0.420,0.050
3292,-0.375,0.035
3293,-0.300,0.055
3294,-0.080,-0.030
3295,-0.220,-0.205
3296,-0.380,-0.055
3297,-0.330,0.090
3298,-0.250,-0.065
3299,-0.345,-0.125
3300,-0.305,-0.040
3301,-0.130,-0.060
3302,-0.345,-0.085
3303,-0.210,-0.035
3304,-0.225,-0.080
3305,-0.310,0.225
3306,-0.475,-0.165
3307,-0.270,0.010
3308,-0.200,-0.105
3309,-0.230,0.040
3310,-0.325,-0.065
3311,-0.015,0.040
3312,-0.260,0.145
3313,-0.285,-0.005
3314,-0.015,-0.055
3315,0.015,0.035
3316,-0.050,-0.230
3317,-0.225,-0.080
3318,-0.070,-0.035
3319,-0.175,-0.120
3320,-0.245,0.085
3321,-0.280,-0.040
3322,-0.350,-0.150
3323,-0.450,0.140
3324,-0.195,-0.025
3325,-0.400,-0.075
3326,-0.390,-0.060
3327,-0.275,0.180
3328,0.100,0.020
3329,1.195,-0.165
3330,1.905,-0.525
3331,0.285,-0.960
3332,-0.885,-0.685
3333,-0.740,-0.505
3334,-0.500,-0.220
3335,-0.275,-0.030
3336,-0.340,-0.210
3337,-0.500,0.015
3338,-0.275,0.045
3339,-0.330,0.010
3340,-0.425,0.095
3341,-0.330,-0.025
3342,-0.510,-0.030
3343,-0.425,0.190
3344,-0.330,0.035
3345,-0.310,0.000
3346,-0.335,-0.120
3347,-0.160,-0.045
3348,-0.200,-0.145
3349,-0.390,-0.015
3350,-0.415,0.055
3351,-0.325,0.005
3352,-0.310,-0.005
3353,-0.350,0.020
3354,-0.240,0.005
3355,-0.140,0.055
3356,0.055,-0.095
3357,-0.125,-0.190
3358,-0.215,-0.010
3359,-0.025,0.090
3360,-0.080,-0.155
3361,0.255,-0.190
3362,0.000,-0.010
3363,0.050,-0.245
3364,0.195,-0.140
3365,0.115,-0.005
3366,-0.020,0.025
3367,-0.020,-0.165
3368,0.020,-0.115
3369,0.155,0.085
3370,0.010,-0.370
3371,0.075,-0.140
3372,-0.145,0.000
3373,-0.180,0.000
3374,0.000,-0.020
3375,-0.290,-0.120
3376,-0.320,-0.045
3377,-0.340,0.055
3378,-0.110,-0.085
3379,-0.060,0.115
3380,-0.265,-0.165
3381,-0.020,0.070
3382,-0.325,-0.075
3383,-0.375,0.080
3384,-0.335,0.320
3385,-0.310,-0.140
3386,-0.310,-0.220
3387,-0.435,0.155
3388,-0.255,-0.070
3389,-0.410,-0.210
3390,-0.395,-0.045
3391,-0.265,0.045
3392,-0.255,0.130
3393,-0.315,-0.330
3394,-0.075,-0.135
3395,-0.100,0.000
3396,0.000,0.135
3397,-0.065,-0.020
3398,-0.355,0.130
3399,0.185,-0.025
3400,1.485,0.070
3401,1.235,-0.645
3402,-0.470,-1.045
3403,-0.730,-0.570
3404,-0.265,-0.060
3405,-0.365,-0.280
3406,-0.465,-0.085
3407,-0.300,0.215
3408,-0.185,-0.310
3409,-0.300,-0.145
3410,-0.340,0.070
3411,-0.285,-0.190
3412,-0.210,0.040
3413,-0.180,0.130
3414,-0.225,-0.075
3415,-0.285,-0.010
3416,-0.395,0.100
3417,-0.250,-0.180
3418,-0.095,0.095
3419,-0.220,0.085
3420,-0.355,0.045
3421,-0.170,-0.020
3422,-0.085,-0.145
3423,-0.005,-0.040
3424,-0.180,-0.020
3425,-0.190,-0.005
3426,-0.185,-0.055
3427,-0.285,-0.070
3428,0.040,-0.110
3429,0.035,-0.135
3430,0.000,0.105
3431,0.085,0.090
3432,0.065,-0.140
3433,0.110,-0.195
3434,0.070,-0.100
3435,0.305,0.010
3436,0.240,-0.295
3437,-0.020,0.195
3438,0.170,-0.160
3439,-0.010,-0.120
3440,-0.225,0.155
3441,-0.110,-0.135
3442,-0.310,-0.170
3443,-0.045,-0.085
3444,-0.130,-0.115
3445,-0.340,0.120
3446,-0.130,-0.080
3447,-0.225,0.045
3448,-0.390,-0.015
3449,-0.265,0.050
3450,-0.215,-0.055
3451,0.010,-0.105
3452,-0.440,0.070
3453,-0.320,0.035
3454,-0.165,-0.305
3455,-0.300,-0.145
3456,-0.280,-0.035
3457,-0.200,0.080
3458,-0.085,-0.030
3459,-0.255,-0.080
3460,-0.285,0.260
3461,-0.240,0.015
3462,0.160,-0.130
3463,0.190,-0.350
3464,-0.335,0.055
3465,-0.210,-0.130
3466,-0.235,0.155
3467,-0.255,-0.075
3468,-0.270,0.125
3469,-0.175,-0.170
3470,-0.375,-0.145
3471,-0.330,-0.015
3472,-0.015,0.045
3473,-0.330,0.025
3474,-0.155,-0.030
3475,-0.080,-0.105
3476,-0.115,-0.095
3477,-0.420,0.095
3478,-0.205,0.045
3479,0.070,0.000
3480,-0.415,0.435
3481,-0.065,-0.165
3482,-0.270,-0.195
3483,-0.345,0.040
3484,-0.195,0.080
3485,-0.060,-0.020
3486,-0.390,0.250
3487,-0.245,0.120
3488,-0.165,-0.070
3489,-0.105,0.100
3490,-0.310,-0.100
3491,-0.180,-0.035
3492,-0.175,0.240
3493,-0.250,0.130
3494,-0.425,-0.025
3495,0.000,-0.005
3496,0.010,0.020
3497,-0.160,0.000
3498,-0.185,-0.015
3499,-0.710,0.325
3500,-0.405,0.220
3501,-0.220,-0.165
3502,-0.240,0.110
3503,-0.225,0.070
3504,-0.015,-0.060
3505,-0.310,-0.050
3506,-0.360,0.030
3507,-0.020,0.000
3508,0.120,-0.125
3509,-0.260,0.045
3510,-0.450,0.025
3511,-0.340,0.025
3512,-0.230,0.225
3513,-0.210,-0.095
3514,-0.255,0.040
3515,-0.025,-0.040
3516,-0.130,-0.240
3517,-0.335,0.080
3518,-0.295,0.010
3519,-0.135,-0.165
3520,-0.200,0.040
3521,-0.345,-0.015
3522,-0.115,0.120
3523,0.005,0.110
3524,-0.140,0.075
3525,-0.070,0.015
3526,-0.130,0.085
3527,0.010,0.040
3528,0.050,-0.280
3529,-0.035,-0.005
3530,-0.030,-0.010
3531,-0.005,-0.240
3532,-0.065,-0.070
3533,-0.625,0.110
3534,-0.250,0.160
3535,-0.230,0.155
3536,-0.160,-0.015
3537,-0.350,-0.155
3538,-0.160,-0.055
3539,0.065,0.090
3540,0.525,0.055
3541,1.580,-0.220
3542,1.860,-0.530
3543,-0.095,-0.685
3544,-0.910,-0.815
3545,-0.480,-0.325
3546,-0.130,0.070
3547,-0.155,-0.225
3548,-0.460,-0.275
3549,-0.575,-0.155
3550,-0.450,0.050
3551,-0.400,0.530
3552,-0.325,-0.095
3553,-0.430,-0.310
3554,-0.230,-0.065
3555,-0.270,-0.145
3556,-0.375,0.040
3557,-0.275,-0.080
3558,-0.475,0.165
3559,-0.220,0.465
3560,-0.345,-0.240
3561,-0.265,0.160
3562,-0.350,-0.260
3563,-0.255,0.135
3564,0.025,-0.205
3565,-0.385,0.045
3566,-0.320,0.385
3567,-0.110,0.005
3568,0.020,-0.220
3569,-0.230,-0.035
3570,-0.140,-0.105
3571,0.015,-0.115
3572,0.090,0.335
3573,0.025,0.120
3574,0.075,-0.350
3575,0.025,-0.210
3576,0.195,0.110
3577,0.135,0.050
3578,0.155,-0.215
3579,0.080,0.135
3580,0.000,0.175
3581,0.280,-0.280
3582,0.230,0.095
3583,0.335,0.155
3584,-0.285,0.055
3585,0.000,-0.220
3586,0.045,0.020
3587,-0.185,-0.095
3588,-0.140,0.085
3589,-0.080,0.410
3590,-0.140,0.130
3591,-0.080,-0.145
3592,-0.240,-0.015
3593,-0.080,0.195
3594,-0.065,0.020
3595,-0.055,0.000
3596,0.180,-0.120
3597,-0.070,0.235
3598,-0.175,0.450
3599,-0.015,-0.130
3600,-0.050,-0.145
3601,-0.005,0.090
3602,0.055,0.030
3603,0.085,0.090
3604,0.205,0.450
3605,0.195,-0.150
3606,0.100,-0.145
3607,-0.045,0.200
3608,-0.085,-0.080
3609,-0.270,0.075
3610,0.055,0.205
3611,0.030,-0.105
3612,0.030,-0.025
3613,-0.110,0.105
3614,-0.135,0.070
3615,-0.070,0.130
3616,-0.295,0.250
3617,-0.215,0.090
3618,-0.030,-0.135
3619,-0.045,0.050
3620,-0.305,0.495
3621,-0.140,0.090
3622,-0.175,-0.050
3623,-0.245,0.205
3624,0.090,-0.050
3625,0.040,-0.040
3626,-0.150,0.325
3627,-0.165,-0.230
3628,-0.185,-0.125
3629,-0.130,-0.040
3630,-0.350,0.110
3631,0.085,0.270
3632,-0.045,0.040
3633,-0.385,0.000
3634,-0.165,0.270
3635,0.040,0.435
3636,0.210,0.385
3637,0.255,-0.305
3638,0.165,-0.195
3639,-0.080,-0.060
3640,-0.320,0.175
3641,-0.015,-0.045
3642,-0.370,0.235
3643,-0.140,0.115
3644,-0.195,-0.005
3645,-0.385,0.150
3646,-0.170,-0.060
3647,-0.250,-0.020
3648,-0.200,0.240
3649,0.180,0.440
3650,1.030,0.025
3651,1.870,0.130
3652,0.725,-0.370
3653,-0.685,-0.835
3654,-0.570,-0.785
3655,-0.295,-0.310
3656,-0.030,0.085
3657,-0.380,0.045
3658,-0.295,-0.095
3659,-0.185,-0.010
3660,-0.375,0.040
3661,-0.520,0.140
3662,-0.180,0.150
3663,-0.110,0.120
3664,-0.395,0.170
3665,-0.495,0.305
3666,-0.370,0.255
3667,-0.300,0.095
3668,-0.240,0.130
3669,-0.270,-0.030
3670,-0.015,0.050
3671,-0.215,0.150
3672,-0.215,-0.065
3673,-0.345,0.020
3674,-0.245,0.000
3675,0.025,0.030
3676,0.000,0.040
3677,-0.245,0.125
3678,-0.270,0.155
3679,-0.025,0.245
3680,-0.015,-0.040
3681,0.105,0.055
3682,-0.035,0.070
3683,0.070,0.300
3684,0.100,-0.145
3685,0.095,-0.195
3686,0.090,-0.120
3687,0.085,0.030
3688,0.105,0.375
3689,0.025,0.040
3690,0.150,-0.130
3691,0.140,0.100
3692,-0.125,0.015
3693,0.045,-0.075
3694,-0.015,0.000
3695,-0.090,0.085
3696,-0.180,0.150
3697,0.100,0.390
3698,-0.210,0.125
3699,-0.395,0.095
3700,-0.190,0.010
3701,-0.040,-0.055
3702,-0.095,0.135
3703,-0.140,0.025
3704,-0.100,0.195
3705,-0.075,0.260
3706,-0.105,0.050
3707,-0.120,0.080
3708,0.050,0.085
3709,0.060,0.050
3710,0.025,0.070
3711,-0.040,0.040
3712,-0.095,0.175
3713,-0.150,0.190
3714,-0.175,0.040
3715,0.110,-0.025
3716,-0.130,0.100
3717,-0.125,0.240
3718,-0.040,0.215
3719,-0.110,0.065
3720,-0.140,0.015
3721,-0.305,0.115
3722,-0.155,0.090
3723,-0.090,0.140
3724,-0.010,0.195
3725,-0.110,-0.060
3726,0.090,0.250
3727,0.215,0.110
3728,-0.095,-0.090
3729,-0.280,0.105
3730,-0.405,0.070
3731,-0.170,0.270
3732,0.030,0.000
3733,-0.090,0.205
3734,-0.160,0.065
3735,-0.120,0.100
3736,-0.160,0.330
3737,-0.140,-0.030
3738,-0.175,0.185
3739,0.040,0.175
3740,0.055,0.000
3741,-0.025,-0.040
3742,-0.015,0.130
3743,-0.075,0.295
3744,0.300,0.145
3745,0.050,0.230
3746,0.105,0.090
3747,-0.005,0.015
3748,-0.005,0.030
3749,0.170,0.240
3750,-0.210,-0.060
3751,-0.080,0.040
3752,-0.210,0.105
3753,-0.045,0.235
3754,-0.130,0.020
3755,-0.095,0.220
3756,-0.405,0.020
3757,-0.170,0.190
3758,-0.165,0.300
3759,0.385,0.120
3760,1.400,-0.130
3761,1.825,-0.435
3762,0.500,-0.745
3763,-0.685,-0.505
3764,-0.625,-0.230
3765,-0.330,-0.150
3766,-0.210,0.000
3767,-0.315,0.170
3768,-0.205,0.055
3769,-0.085,0.060
3770,0.055,0.035
3771,-0.100,0.060
3772,-0.320,0.165
3773,-0.325,0.200
3774,-0.125,-0.075
3775,-0.215,0.105
3776,-0.165,0.235
3777,0.090,-0.075
3778,-0.155,0.075
3779,-0.255,0.115
3780,-0.275,0.160
3781,-0.275,0.185
3782,-0.145,0.120
3783,0.025,-0.015
3784,-0.075,0.090
3785,-0.120,0.160
3786,-0.045,0.045
3787,0.020,0.030
3788,0.175,0.080
3789,0.045,-0.010
3790,0.110,-0.050
3791,0.075,-0.015
3792,0.210,0.110
3793,0.105,0.020
3794,0.065,-0.180
3795,0.240,-0.015
3796,0.045,-0.125
3797,0.330,-0.105
3798,0.235,-0.075
3799,0.335,0.030
3800,0.285,-0.020
3801,0.035,0.000
3802,-0.080,0.025
3803,0.050,0.090
3804,0.060,-0.105
3805,0.140,0.040
3806,-0.200,0.025
3807,-0.180,0.075
3808,-0.015,0.090
3809,0.000,0.130
3810,-0.050,0.120
3811,-0.080,0.115
3812,-0.055,0.120
3813,0.045,0.065
3814,0.060,-0.030
3815,-0.155,0.075
3816,-0.025,0.070
3817,-0.180,-0.060
3818,-0.205,0.020
3819,-0.205,0.015
3820,-0.100,-0.085
3821,-0.005,0.075
3822,-0.195,-0.005
3823,0.035,0.040
3824,0.195,0.115
3825,0.005,0.015
3826,0.015,0.135
3827,0.090,0.095
3828,-0.005,0.105
3829,0.180,0.180
3830,0.770,0.030
3831,1.625,-0.350
3832,0.775,-0.850
3833,-0.745,-0.395
3834,-0.630,-0.335
3835,-0.225,-0.145
3836,-0.115,0.030
3837,-0.160,0.000
3838,0.075,0.090
3839,0.005,-0.035
3840,-0.180,0.145
3841,-0.015,0.115
3842,-0.115,0.140
3843,-0.135,0.110
3844,0.050,0.000
3845,-0.125,0.120
3846,0.040,0.010
3847,0.055,0.110
3848,0.195,0.110
3849,0.050,0.000
3850,-0.020,0.135
3851,-0.150,0.180
3852,0.055,-0.025
3853,-0.090,0.140
3854,0.180,0.140
3855,0.335,0.105
3856,-0.045,-0.080
3857,0.150,0.065
3858,0.075,0.240
3859,0.010,0.110
3860,0.305,0.025
3861,0.265,-0.130
3862,0.290,-0.025
3863,0.240,-0.010
3864,0.365,0.060
3865,0.530,-0.100
3866,0.145,0.155
3867,0.310,-0.055
3868,0.085,-0.050
3869,0.150,0.035
3870,0.140,0.055
3871,0.105,0.135
3872,0.145,0.135
3873,-0.115,0.085
3874,-0.030,0.170
3875,-0.075,0.015
3876,-0.065,0.000
3877,0.010,0.115
3878,-0.140,0.260
3879,0.090,0.010
3880,-0.120,-0.020
3881,-0.040,0.095
3882,0.040,0.150
3883,0.100,0.265
3884,0.015,0.010
3885,0.030,-0.095
3886,-0.045,0.140
3887,-0.215,0.070
3888,0.075,0.045
3889,0.105,0.020
3890,-0.215,0.135
3891,-0.130,0.200
3892,-0.105,0.065
3893,-0.030,0.105
3894,0.030,0.205
3895,0.045,-0.020
3896,-0.300,0.275
3897,-0.160,-0.005
3898,-0.140,-0.115
3899,-0.220,0.045
3900,-0.050,0.155
3901,0.090,0.025
3902,-0.260,0.130
3903,-0.110,0.080
3904,-0.230,0.055
3905,-0.020,-0.130
3906,-0.305,0.115
3907,-0.335,0.130
3908,-0.170,0.120
3909,-0.285,0.045
3910,-0.060,0.015
3911,0.060,-0.040
3912,-0.015,-0.005
3913,-0.235,0.120
3914,-0.405,0.105
3915,-0.295,0.135
3916,-0.275,0.130
3917,-0.250,0.040
3918,-0.085,-0.125
3919,-0.100,0.065
3920,-0.280,0.080
3921,-0.145,0.095
3922,-0.135,-0.075
3923,-0.550,0.080
3924,-0.360,0.065
3925,-0.105,-0.015
3926,-0.205,-0.050
3927,-0.275,0.060
3928,-0.265,0.065
3929,-0.315,-0.045
3930,-0.205,0.030
3931,-0.085,0.000
3932,-0.325,0.025
3933,-0.355,-0.005
3934,-0.305,0.150
3935,-0.300,0.060
3936,-0.140,-0.065
3937,-0.210,0.000
3938,-0.305,0.025
3939,-0.210,-0.060
3940,-0.240,0.115
3941,-0.350,0.110
3942,-0.155,-0.090
3943,-0.300,0.035
3944,-0.285,-0.045
3945,-0.385,0.045
3946,-0.305,0.080
3947,-0.390,0.000
3948,-0.115,-0.005
3949,-0.185,0.010
3950,-0.030,0.135
3951,0.000,-0.045
3952,0.240,0.115
3953,0.165,-0.280
3954,0.070,-0.085
3955,-0.450,0.050
3956,-0.425,0.010
3957,-0.355,0.030
3958,-0.390,-0.005
3959,-0.395,0.050
3960,-0.395,-0.075
3961,-0.150,-0.055
3962,-0.485,0.065
3963,-0.540,0.245
3964,-0.565,-0.025
3965,-0.110,0.055
3966,0.825,-0.290
3967,1.690,-0.415
3968,0.840,-0.860
3969,-0.535,-0.500
3970,-0.570,-0.075
3971,-0.345,-0.085
3972,-0.285,-0.275
3973,-0.635,-0.045
3974,-0.325,0.095
3975,-0.430,0.070
3976,-0.435,0.000
3977,-0.365,-0.160
3978,-0.365,0.015
3979,-0.380,-0.025
3980,-0.450,0.115
3981,-0.435,0.035
3982,-0.475,0.010
3983,-0.465,0.110
3984,-0.255,-0.065
3985,-0.220,0.005
3986,-0.415,0.060
3987,-0.435,0.025
3988,-0.310,0.190
3989,-0.330,-0.050
3990,-0.430,0.040
3991,-0.310,-0.135
3992,0.030,0.015
3993,0.035,-0.120
3994,-0.385,0.005
3995,-0.190,0.060
3996,-0.290,-0.075
3997,-0.145,0.095
3998,0.055,0.000
3999,-0.085,-0.215
4000,-0.205,-0.240
4001,-0.175,0.135
4002,-0.100,0.035
4003,-0.100,-0.195
4004,0.060,-0.350
4005,-0.100,-0.160
4006,0.000,-0.110
4007,0.105,0.065
4008,-0.140,-0.210
4009,-0.175,-0.170
4010,-0.040,-0.150
4011,-0.195,0.160
4012,-0.130,-0.200
4013,-0.095,-0.020
4014,-0.075,0.380
4015,-0.040,-0.145
4016,-0.165,-0.180
4017,-0.055,-0.050
4018,0.025,0.095
4019,-0.105,-0.195
4020,-0.130,0.065
4021,0.060,-0.015
4022,0.060,-0.045
4023,0.105,-0.120
4024,0.080,-0.175
4025,0.050,0.040
4026,-0.010,0.040
4027,0.075,-0.035
4028,0.230,-0.155
4029,-0.150,-0.070
4030,0.250,-0.125
4031,0.080,-0.210
4032,-0.190,0.075
4033,-0.115,-0.070
4034,-0.295,0.225
4035,-0.235,-0.140
4036,-0.175,-0.090
4037,-0.045,-0.125
4038,-0.015,0.075
4039,-0.220,-0.065
4040,0.035,-0.110
4041,-0.335,0.060
4042,0.000,0.025
4043,-0.265,0.075
4044,-0.130,-0.215
4045,-0.280,-0.120
4046,-0.300,0.000
4047,-0.155,0.065
4048,-0.155,-0.105
4049,-0.350,-0.100
4050,-0.290,-0.070
4051,-0.175,0.175
4052,-0.245,-0.110
4053,-0.155,-0.130
4054,0.040,0.090
4055,-0.400,0.025
4056,-0.460,-0.025
4057,-0.190,-0.010
4058,-0.070,-0.180
4059,-0.105,-0.110
4060,-0.470,-0.020
4061,-0.125,-0.030
4062,0.030,0.065
4063,0.055,0.055
4064,0.090,0.040
4065,-0.010,-0.230
4066,0.000,-0.200
4067,-0.135,0.015
4068,-0.245,-0.065
4069,-0.235,0.120
4070,-0.380,-0.055
4071,-0.290,0.040
4072,-0.310,0.050
4073,-0.155,0.025
4074,-0.345,-0.235
4075,-0.555,-0.030
4076,-0.155,-0.050
4077,-0.090,0.050
4078,0.225,0.125
4079,1.540,-0.285
4080,1.615,-0.700
4081,-0.055,-0.980
4082,-0.825,-0.660
4083,-0.670,-0.315
4084,-0.400,-0.125
4085,-0.400,-0.130
4086,-0.355,-0.025
4087,-0.360,-0.085
4088,-0.450,0.155
4089,-0.200,-0.160
4090,-0.455,0.000
4091,-0.400,-0.020
4092,-0.290,-0.065
4093,-0.510,0.130
4094,-0.210,-0.055
4095,-0.400,-0.035
4096,-0.540,-0.035
4097,-0.230,-0.080
4098,-0.290,0.080
4099,-0.305,0.125
4100,-0.235,-0.120
4101,-0.290,0.020
4102,-0.295,0.055
4103,-0.145,-0.105
4104,-0.180,-0.040
4105,-0.330,0.050
4106,-0.130,-0.005
4107,0.065,-0.020
4108,-0.005,-0.120
4109,-0.115,0.010
4110,-0.045,0.005
4111,0.140,-0.185
4112,-0.015,-0.075
4113,-0.040,-0.070
4114,0.050,-0.075
4115,0.095,0.115
4116,0.020,-0.150
4117,0.025,-0.155
4118,-0.045,0.065
4119,0.070,-0.030
4120,0.155,0.070
4121,0.220,0.095
4122,-0.115,-0.180
4123,-0.090,-0.115
4124,-0.225,0.000
4125,-0.300,0.015
4126,-0.180,-0.005
4127,-0.070,0.000
4128,-0.185,0.135
4129,-0.075,-0.010
4130,-0.180,0.145
4131,-0.245,-0.055
4132,-0.325,-0.070
4133,-0.290,0.120
4134,0.040,-0.015
4135,-0.015,-0.040
4136,-0.205,0.205
4137,-0.205,-0.075
4138,-0.175,0.235
4139,0.015,-0.085
4140,-0.070,-0.125
4141,-0.070,0.025
4142,-0.195,-0.035
4143,-0.065,0.025
4144,-0.200,0.065
4145,-0.185,0.120
4146,-0.100,-0.020
4147,-0.040,0.045
4148,0.000,-0.095
4149,-0.245,0.135
4150,-0.225,0.005
4151,-0.130,0.005
4152,-0.095,0.060
4153,-0.190,-0.115
4154,-0.225,0.020
4155,-0.155,0.090
4156,-0.190,0.120
4157,-0.120,-0.045
4158,-0.240,-0.005
4159,-0.030,-0.035
4160,-0.445,-0.015
4161,-0.130,0.000
4162,-0.040,0.130
4163,-0.195,0.015
4164,-0.320,0.175
4165,-0.230,-0.035
4166,-0.290,0.040
4167,-0.065,-0.115
4168,-0.285,0.000
4169,-0.125,0.030
4170,0.025,0.035
4171,-0.125,-0.055
4172,0.005,0.040
4173,-0.175,0.035
4174,0.015,0.010
4175,0.345,-0.075
4176,0.120,-0.140
4177,-0.245,0.210
4178,-0.130,0.015
4179,-0.380,0.215
4180,-0.120,-0.065
4181,-0.085,-0.010
4182,-0.245,-0.085
4183,-0.200,0.080
4184,-0.085,-0.120
4185,-0.335,-0.040
4186,-0.280,0.005
4187,-0.385,0.145
4188,0.070,0.100
4189,0.530,0.030
4190,1.500,-0.195
4191,1.440,-0.720
4192,-0.095,-0.855
4193,-0.760,-0.595
4194,-0.625,-0.245
4195,-0.300,-0.195
4196,-0.265,0.030
4197,-0.410,-0.100
4198,-0.360,0.105
4199,-0.155,-0.040
4200,-0.390,-0.005
4201,-0.440,0.105
4202,-0.055,0.040
4203,-0.335,0.010
4204,-0.590,0.100
4205,-0.305,0.090
4206,-0.180,0.040
4207,-0.285,-0.195
4208,-0.395,0.025
4209,-0.190,0.090
4210,-0.150,0.055
4211,-0.290,0.150
4212,-0.375,0.025
4213,-0.150,-0.040
4214,-0.095,0.040
4215,-0.255,0.030
4216,-0.195,0.235
4217,-0.045,-0.080
4218,-0.095,-0.100
4219,-0.115,0.015
4220,0.060,0.060
4221,-0.070,-0.130
4222,0.025,0.070
4223,0.175,-0.115
4224,0.115,-0.090
4225,0.165,-0.055
4226,0.060,-0.155
4227,0.260,-0.105
4228,0.095,0.000
4229,0.080,-0.040
4230,0.075,0.055
4231,0.145,0.020
4232,-0.095,-0.115
4233,-0.085,-0.005
4234,-0.085,-0.005
4235,0.085,0.060
4236,-0.090,0.050
4237,-0.105,-0.035
4238,-0.140,0.080
4239,-0.215,0.040
4240,-0.080,0.235
4241,-0.200,0.145
4242,0.000,-0.070
4243,-0.035,0.005
4244,-0.180,0.045
4245,-0.115,0.145
4246,-0.110,0.125
4247,-0.010,-0.010
4248,-0.055,0.100
4249,-0.210,0.105
4250,-0.055,0.000
4251,0.035,0.030
4252,0.260,-0.020
4253,-0.040,0.020
4254,-0.240,0.120
4255,-0.110,0.065
4256,0.100,0.000
4257,0.060,0.010
4258,-0.095,0.060
4259,-0.125,0.070
4260,-0.190,0.030
4261,-0.010,0.215
4262,0.015,0.015
4263,-0.080,-0.010
4264,-0.155,0.115
4265,-0.175,-0.050
4266,-0.195,0.030
4267,-0.130,0.125
4268,-0.105,0.015
4269,-0.115,0.080
4270,-0.300,0.145
4271,-0.065,0.000
4272,0.215,-0.010
4273,-0.235,-0.065
4274,-0.350,0.035
4275,0.020,0.100
4276,0.020,0.105
4277,-0.335,0.000
4278,-0.180,0.090
4279,-0.160,0.100
4280,-0.155,0.025
4281,-0.105,-0.030
4282,-0.035,0.020
4283,-0.090,0.070
4284,-0.070,0.020
4285,0.045,0.055
4286,0.115,0.035
4287,0.200,0.020
4288,0.175,0.045
4289,0.115,0.045
4290,0.115,0.060
4291,-0.010,0.005
4292,-0.045,0.065
4293,-0.050,-0.075
4294,-0.075,0.010
4295,-0.110,0.040
4296,-0.075,0.010
4297,-0.525,0.110
4298,-0.325,0.115
4299,-0.170,0.040
4300,-0.130,0.110
4301,0.065,0.170
4302,0.740,0.000
4303,1.570,-0.300
4304,1.180,-0.775
4305,-0.240,-0.850
4306,-0.460,-0.420
4307,-0.290,-0.105
4308,-0.055,0.070
4309,-0.100,0.075
4310,-0.060,-0.160
4311,0.130,-0.040
4312,-0.170,0.000
4313,-0.210,0.030
4314,-0.035,0.045
4315,-0.025,0.075
4316,-0.060,0.080
4317,-0.125,0.100
4318,-0.015,0.145
4319,0.055,0.125
4320,-0.040,0.155
4321,0.115,0.105
4322,0.080,0.235
4323,0.165,0.485
4324,0.135,0.130
4325,-0.130,0.075
4326,0.000,0.090
4327,0.125,-0.010
4328,0.150,0.140
4329,0.205,0.110
4330,0.135,0.050
4331,0.185,0.190
4332,0.420,0.085
4333,0.610,-0.005
4334,0.480,-0.045
4335,0.110,0.255
4336,0.175,0.520
4337,0.540,-0.040
4338,0.540,-0.300
4339,0.130,-0.090
4340,0.155,0.035
4341,0.235,0.070
4342,0.515,0.050
4343,0.615,0.010
4344,0.460,0.160
4345,0.255,0.265
4346,0.180,0.010
4347,0.180,0.045
4348,0.140,0.200
4349,-0.045,0.215
4350,-0.185,0.465
4351,0.135,0.240
4352,0.030,0.260
4353,0.115,0.275
4354,0.365,-0.005
4355,0.175,-0.140
4356,0.245,0.105
4357,0.105,0.285
4358,0.130,0.315
4359,-0.380,0.605
4360,-0.250,0.445
4361,0.035,-0.155
4362,0.390,-0.250
4363,0.285,0.115
4364,0.155,0.255
4365,0.385,-0.090
4366,0.235,-0.200
4367,-0.080,0.030
4368,-0.160,0.195
4369,0.105,0.330
4370,0.080,0.110
4371,0.205,-0.105
4372,0.085,0.415
4373,0.125,0.540
4374,0.135,-0.235
4375,0.000,0.750
4376,0.460,0.375
4377,-0.460,0.285
4378,-0.300,-0.005
4379,0.165,0.185
4380,0.075,0.200
4381,-0.045,0.525
4382,0.265,-0.285
4383,0.170,0.055
4384,0.270,0.160
4385,0.305,-0.170
4386,0.105,0.405
4387,0.100,0.635
4388,0.100,0.230
4389,-0.135,0.645
4390,-0.220,0.430
4391,0.350,-0.365
4392,0.110,0.055
4393,0.020,0.775
4394,-0.100,0.685
4395,0.250,0.755
4396,0.360,0.690
4397,0.525,0.180
4398,0.370,0.530
4399,0.555,-0.090
4400,0.305,-0.560
4401,-0.090,0.345
4402,-0.060,0.420
4403,0.160,0.370
4404,0.110,0.520
4405,0.195,0.575
4406,0.070,0.265
4407,0.210,0.365
4408,0.540,0.320
4409,0.385,0.020
4410,0.730,0.620
4411,1.535,0.395
4412,1.955,-0.650
4413,0.305,-0.295
4414,0.100,-0.975
4415,0.095,-0.365
4416,-0.050,0.915
4417,0.365,-0.005
4418,0.395,0.110
4419,0.235,0.050
4420,0.265,0.350
4421,0.105,0.140
4422,0.185,0.080
4423,0.270,0.320
4424,0.500,0.315
4425,0.160,0.095
4426,0.225,0.580
4427,0.530,0.470
4428,0.135,0.645
4429,0.270,0.200
4430,0.565,0.000
4431,0.565,0.045
4432,0.145,0.780
4433,0.235,0.770
4434,0.515,-0.710
4435,0.635,0.030
4436,0.645,0.715
4437,0.575,0.095
4438,0.395,0.045
4439,0.495,0.500
4440,0.550,0.145
4441,0.525,0.360
4442,0.840,0.280
4443,0.790,-0.265
4444,0.635,0.200
4445,0.955,0.100
4446,0.895,0.095
4447,0.670,0.120
4448,0.500,0.315
4449,0.655,0.155
4450,0.635,0.530
4451,0.665,0.130
4452,0.735,-0.065
4453,0.710,0.320
4454,0.520,-0.075
4455,0.425,0.220
4456,0.420,0.480
4457,0.575,-0.200
4458,0.350,0.320
4459,0.465,0.165
4460,0.460,-0.105
4461,0.430,0.245
4462,0.470,0.035
4463,0.505,0.380
4464,0.470,0.165
4465,0.290,0.115
4466,0.475,0.500
4467,0.415,0.075
4468,0.280,0.290
4469,0.480,0.040
4470,0.430,-0.135
4471,0.535,0.215
4472,0.590,-0.055
4473,0.495,-0.050
4474,0.430,0.245
4475,0.350,0.245
4476,0.395,0.130
4477,0.385,-0.050
4478,0.180,0.105
4479,0.410,-0.045
4480,0.430,0.015
4481,0.370,-0.065
4482,0.290,0.185
4483,0.350,-0.245
4484,0.390,0.000
4485,0.300,0.030
4486,0.350,0.260
4487,0.295,0.100
4488,0.375,-0.130
4489,0.290,0.045
4490,0.120,0.290
4491,0.210,0.270
4492,0.305,-0.120
4493,0.275,-0.150
4494,0.340,-0.140
4495,0.380,-0.065
4496,0.330,-0.025
4497,0.265,0.010
4498,0.270,0.030
4499,0.325,0.070
4500,0.230,0.070
4501,0.330,0.040
4502,0.340,0.130
4503,0.410,0.095
4504,0.610,0.010
4505,0.595,0.025
4506,0.605,0.030
4507,0.535,-0.060
4508,0.475,-0.060
4509,0.460,0.025
4510,0.375,0.105
4511,0.370,0.075
4512,0.275,0.095
4513,0.225,0.135
4514,0.275,0.120
4515,0.180,0.100
4516,0.185,0.115
4517,0.175,0.235
4518,0.320,0.365
4519,0.900,0.215
4520,1.760,0.010
4521,1.720,-0.665
4522,0.180,-1.135
4523,-0.320,-0.835
4524,0.080,-0.320
4525,0.115,-0.075
4526,0.045,0.080
4527,0.055,0.170
4528,0.140,0.205
4529,0.115,0.240
4530,0.045,0.230
4531,0.060,0.235
4532,0.035,0.255
4533,0.045,0.255
4534,0.085,0.245
4535,0.025,0.255
4536,0.045,0.250
4537,0.000,0.255
4538,0.125,0.245
4539,0.195,0.235
4540,0.320,0.200
4541,0.090,0.235
4542,-0.075,0.255
4543,0.090,0.225
4544,0.120,0.225
4545,0.205,0.215
4546,0.140,0.185
4547,0.140,0.175
4548,0.445,0.170
4549,0.465,0.155
4550,0.370,0.130
4551,0.210,0.130
4552,0.225,0.100
4553,0.450,0.055
4554,0.615,0.045
4555,0.290,0.040
4556,0.420,0.015
4557,0.230,0.045
4558,0.440,0.045
4559,0.390,0.045
4560,0.370,0.030
4561,0.080,0.125
4562,0.510,0.075
4563,0.125,0.000
4564,-0.330,0.230
4565,-0.275,0.295
4566,-0.220,0.140
4567,-0.050,0.060
4568,0.345,-0.005
4569,-0.185,0.000
4570,-0.090,0.095
4571,-0.160,0.170
4572,-0.005,0.140
4573,-0.190,0.075
4574,-0.225,0.055
4575,-0.170,0.025
4576,-0.060,0.015
4577,0.015,0.035
4578,-0.065,-0.025
4579,-0.080,0.015
4580,-0.215,0.010
4581,-0.030,0.020
4582,0.065,-0.030
4583,-0.140,0.020
4584,-0.230,0.050
4585,-0.230,0.075
4586,-0.290,0.100
4587,-0.240,0.070
4588,-0.140,0.095
4589,-0.080,0.060
4590,0.085,0.055
4591,-0.255,0.020
4592,-0.175,0.040
4593,-0.120,0.045
4594,-0.370,0.095
4595,-0.250,0.085
4596,-0.235,0.010
4597,-0.025,0.000
4598,0.240,-0.025
4599,-0.480,0.010
4600,-0.420,0.010
4601,-0.220,0.010
4602,-0.235,-0.010
4603,-0.130,0.305
4604,-0.060,0.035
4605,-0.150,0.050
4606,-0.395,-0.215
4607,-0.285,-0.425
4608,-0.305,-0.285
4609,-0.110,-0.200
4610,-0.195,-0.100
4611,-0.150,-0.035
4612,-0.080,0.050
4613,0.015,0.070
4614,0.040,0.095
4615,0.170,0.035
4616,0.165,0.035
4617,-0.040,0.020
4618,-0.255,-0.030
4619,-0.190,0.000
4620,-0.425,0.080
4621,-0.360,0.090
4622,-0.270,0.035
4623,-0.105,0.045
4624,-0.040,0.065
4625,-0.465,0.300
4626,-0.595,0.530
4627,-0.585,-0.105
4628,-0.590,-0.015
4629,0.055,0.070
4630,1.145,0.005
4631,1.495,-0.590
4632,0.255,-1.095
4633,-0.740,-0.730
4634,-0.700,-0.460
4635,-0.375,-0.200
4636,-0.290,-0.080
4637,-0.385,0.010
4638,-0.415,0.045
4639,-0.265,0.100
4640,-0.230,0.085
4641,-0.400,0.090
4642,-0.360,0.110
4643,-0.640,0.170
4644,-0.635,0.100
4645,-0.545,0.085
4646,-0.390,0.180
4647,-0.470,0.095
4648,-0.395,0.030
4649,-0.245,0.160
4650,-0.460,0.190
4651,-0.315,0.285
4652,-0.255,0.120
4653,-0.430,0.120
4654,-0.260,-0.115
4655,-0.300,-0.170
4656,-0.105,-0.045
4657,-0.165,0.025
4658,-0.405,0.080
4659,-0.130,-0.030
4660,-0.250,0.000
4661,-0.230,0.070
4662,-0.095,0.095
4663,0.150,0.000
4664,-0.230,-0.025
4665,-0.165,0.045
4666,-0.105,-0.360
4667,0.095,-0.290
4668,-0.020,-0.155
4669,-0.180,-0.025
4670,-0.045,-0.055
4671,-0.215,-0.115
4672,0.045,-0.040
4673,-0.225,0.000
4674,-0.185,0.040
4675,-0.050,-0.025
4676,-0.225,0.065
4677,-0.485,0.125
4678,-0.135,0.085
4679,-0.430,0.190
4680,-0.505,0.195
4681,-0.220,0.000
4682,-0.065,-0.095
4683,-0.270,-0.005
4684,-0.045,0.050
4685,-0.410,0.175
4686,-0.320,-0.095
4687,-0.155,-0.160
4688,-0.150,-0.075
4689,-0.145,-0.030
4690,-0.235,0.030
4691,-0.255,0.050
4692,-0.155,-0.045
4693,-0.290,-0.045
4694,-0.090,0.055
4695,-0.525,0.075
4696,-0.500,0.070
4697,-0.270,-0.015
4698,-0.125,-0.060
4699,-0.335,0.055
4700,-0.315,0.125
4701,-0.325,0.010
4702,-0.290,-0.120
4703,-0.460,0.000
4704,-0.490,0.145
4705,-0.470,0.025
4706,-0.390,-0.005
4707,-0.245,0.015
4708,-0.420,-0.085
4709,-0.335,-0.070
4710,-0.480,-0.040
4711,-0.515,0.015
4712,-0.350,0.025
4713,-0.275,0.020
4714,-0.495,0.000
4715,-0.385,0.000
4716,-0.595,0.055
4717,-0.435,-0.015
4718,-0.395,-0.015
4719,-0.415,0.195
4720,-0.285,0.105
4721,-0.230,-0.090
4722,-0.195,0.150
4723,-0.020,-0.060
4724,0.045,-0.235
4725,-0.340,-0.115
4726,-0.395,-0.025
4727,-0.620,0.010
4728,-0.455,0.010
4729,-0.535,0.020
4730,-0.615,0.095
4731,-0.495,0.055
4732,-0.315,-0.050
4733,-0.610,0.090
4734,-0.490,0.290
4735,-0.625,0.010
4736,0.025,0.330
4737,0.780,-0.195
4738,1.215,-0.935
4739,-0.040,-1.025
4740,-0.855,-0.555
4741,-0.725,-0.245
4742,-0.510,-0.065
4743,-0.600,-0.125
4744,-0.395,-0.105
4745,-0.600,-0.135
4746,-0.495,-0.140
4747,-0.390,-0.075
4748,-0.885,0.025
4749,-0.690,0.045
4750,-0.655,0.100
4751,-0.620,0.110
4752,-0.655,0.070
4753,-0.750,0.175
4754,-0.395,0.225
4755,-0.500,0.250
4756,-0.690,-0.005
4757,-0.610,-0.210
4758,-0.480,-0.115
4759,-0.355,0.105
4760,-0.615,-0.085
4761,-0.645,-0.030
4762,-0.595,0.020
4763,-0.380,0.020
4764,-0.310,0.000
4765,-0.215,-0.005
4766,-0.390,-0.010
4767,-0.305,-0.020
4768,-0.235,0.000
4769,-0.510,0.190
4770,-0.415,0.190
4771,-0.155,-0.265
4772,-0.225,-0.325
4773,-0.485,-0.065
4774,-0.440,-0.055
4775,-0.425,-0.185
4776,-0.230,-0.140
4777,-0.215,-0.100
4778,-0.310,-0.075
4779,-0.220,-0.025
4780,-0.480,0.005
4781,-0.535,0.040
4782,-0.485,0.070
4783,-0.475,0.050
4784,-0.495,0.100
4785,-0.465,0.050
4786,-0.345,0.080
4787,-0.380,0.120
4788,-0.470,0.060
4789,-0.490,0.070
4790,-0.380,-0.050
4791,-0.285,0.000
4792,-0.180,0.055
4793,-0.345,0.065
4794,-0.265,0.020
4795,-0.395,-0.010
4796,-0.145,0.010
4797,-0.150,0.010
4798,-0.480,0.015
4799,-0.615,0.100
4800,-0.555,0.095
4801,-0.355,0.055
4802,-0.405,0.080
4803,-0.480,0.110
4804,-0.210,0.075
4805,-0.285,0.065
4806,-0.195,-0.035
4807,-0.685,0.065
4808,-0.595,0.165
4809,-0.695,0.060
4810,-0.590,-0.010
4811,-0.510,0.020
4812,-0.530,0.060
4813,-0.380,0.050
4814,-0.530,0.085
4815,-0.435,0.090
4816,-0.430,0.075
4817,-0.560,0.260
4818,-0.355,0.125
4819,-0.590,0.170
4820,-0.635,0.080
4821,-0.530,0.020
4822,-0.385,0.130
4823,-0.345,-0.045
4824,-0.510,-0.005
4825,-0.620,-0.080
4826,-0.575,-0.075
4827,-0.390,-0.085
4828,-0.455,0.040
4829,-0.325,0.070
4830,-0.170,-0.005
4831,-0.215,-0.105
4832,-0.515,0.005
4833,-0.430,0.095
4834,-0.635,0.080
4835,-0.610,0.080
4836,-0.635,0.085
4837,-0.515,0.110
4838,-0.655,0.150
4839,-0.760,0.220
4840,-0.570,-0.020
4841,-0.525,-0.070
4842,-0.520,0.030
4843,-0.395,0.245
4844,0.145,0.045
4845,1.010,-0.095
4846,1.290,-0.745
4847,-0.685,-0.910
4848,-1.235,-0.600
4849,-0.675,-0.370
4850,-0.810,-0.115
4851,-0.745,0.025
4852,-0.790,0.200
4853,-0.715,0.135
4854,-0.755,0.340
4855,-0.450,0.000
4856,-0.810,0.145
4857,-0.695,-0.065
4858,-0.595,-0.085
4859,-0.925,0.095
4860,-0.680,0.080
4861,-0.555,0.035
4862,-0.740,0.080
4863,-0.865,0.160
4864,-0.780,0.135
4865,-0.700,0.150
4866,-0.560,0.085
4867,-0.690,0.080
4868,-0.435,0.125
4869,-0.510,0.115
4870,-0.595,0.260
4871,-0.295,0.310
4872,-0.405,0.350
4873,-0.500,0.000
4874,-0.270,-0.040
4875,0.000,-0.315
4876,-0.315,-0.175
4877,-0.500,-0.100
4878,-0.215,-0.030
4879,-0.305,-0.045
4880,-0.570,0.070
4881,-0.265,0.035
4882,-0.160,0.010
4883,-0.240,-0.010
4884,-0.185,0.005
4885,-0.165,0.035
4886,-0.495,0.060
4887,-0.435,0.085
4888,-0.475,0.060
4889,-0.575,0.075
4890,-0.695,0.110
4891,-0.595,0.120
4892,-0.635,0.115
4893,-0.935,0.265
4894,-0.870,0.330
4895,-1.110,0.090
4896,-0.955,0.020
4897,-1.045,0.020
4898,-0.990,0.095
4899,-0.770,0.150
4900,-0.630,0.160
4901,-0.910,-0.025
4902,-0.760,0.040
4903,-0.760,0.230
4904,-0.580,0.245
4905,-0.440,0.110
4906,-0.480,-0.025
4907,-0.515,-0.055
4908,-0.440,0.155
4909,-0.020,0.000
4910,0.105,0.085
4911,-0.285,-0.005
4912,-0.585,0.105
4913,-0.470,0.455
4914,-0.640,0.680
4915,-0.350,0.310
4916,-0.250,0.000
4917,-0.320,0.045
4918,-0.470,0.150
4919,-0.180,0.040
4920,-0.085,0.180
4921,-0.360,0.150
4922,-0.345,-0.250
4923,-0.415,-0.055
4924,-0.465,0.145
4925,-0.550,0.240
4926,-0.355,0.090
4927,-0.335,0.025
4928,-0.320,-0.320
4929,-0.350,-0.075
4930,-0.360,0.235
4931,-0.145,0.405
4932,-0.390,0.325
4933,-0.175,-0.045
4934,-0.030,-0.055
4935,-0.005,-0.155
4936,0.085,-0.230
4937,-0.095,0.030
4938,-0.385,0.270
4939,-0.290,0.085
4940,-0.355,0.320
4941,-0.700,0.615
4942,-0.460,-0.130
4943,-0.680,-0.395
4944,-0.600,-0.105
4945,-0.440,-0.070
4946,-0.720,-0.005
4947,-0.720,0.090
4948,-0.765,0.320
4949,-0.175,-0.055
4950,0.955,-0.180
4951,1.190,-0.560
4952,-0.310,-1.355
4953,-1.295,-0.880
4954,-0.510,-0.200
4955,-0.505,0.170
4956,-1.090,-0.170
4957,-1.380,-0.130
4958,-1.675,0.015
4959,-1.810,-0.040
4960,-1.480,-0.140
4961,-1.785,0.030
4962,-1.575,-0.060
4963,-1.240,-0.275
4964,-1.485,-0.115
4965,-0.965,-0.205
4966,-0.470,-0.240
4967,-0.820,0.115
4968,-0.820,-0.245
4969,-0.760,-0.250
4970,-0.640,-0.040
4971,-0.700,0.010
4972,-0.410,0.005
4973,-0.360,0.015
4974,-0.005,0.060
4975,-0.575,0.050
4976,-0.470,0.160
4977,-0.190,0.360
4978,-0.245,0.520
4979,-0.195,0.120
4980,0.080,-0.165
4981,-0.025,-0.135
4982,-0.040,0.095
4983,-0.320,-0.050
4984,-0.315,-0.200
4985,-0.225,0.150
4986,-0.280,0.190
4987,-0.065,-0.370
4988,0.165,-0.160
4989,0.080,-0.085
4990,-0.300,0.065
4991,-0.105,0.185
4992,-0.220,0.370
4993,-0.060,0.305
4994,0.345,-0.160
4995,0.310,0.140
4996,0.115,0.195
4997,0.190,0.160
4998,0.100,-0.105
4999,-0.115,0.030
5000,-0.140,0.125
5001,-0.190,0.140
5002,-0.350,0.170
5003,-0.260,0.260
5004,-0.420,0.635
5005,-0.305,0.505
5006,-0.095,0.155
5007,-0.050,-0.065
5008,-0.015,-0.470
5009,-0.095,0.025
5010,-0.115,0.275
5011,0.085,0.010
5012,0.140,-0.020
5013,0.135,-0.095
5014,0.165,0.030
5015,-0.115,0.100
5016,-0.110,0.425
5017,0.265,0.380
5018,0.080,0.180
5019,0.300,0.065
5020,0.355,-0.040
5021,0.415,0.020
5022,0.485,0.045
5023,0.450,0.150
5024,0.460,0.125
5025,0.385,-0.030
5026,0.255,-0.070
5027,0.230,0.035
5028,0.075,0.190
5029,0.035,0.185
5030,-0.225,0.675
5031,-0.125,0.825
5032,-0.290,-0.425
5033,-0.160,-0.245
5034,0.105,-0.265
5035,-0.240,-0.120
5036,-0.255,0.150
5037,-0.280,0.160
5038,-0.200,0.520
5039,0.180,-0.090
5040,-0.195,-0.305
5041,-0.250,-0.040
5042,-0.205,0.190
5043,-0.465,0.320
5044,-0.690,0.700
5045,-0.400,0.025
5046,-0.390,-0.435
5047,-0.435,0.050
5048,-0.215,0.245
5049,-0.635,-0.095
5050,-0.625,-0.040
5051,-0.470,0.120
5052,-0.395,0.360
5053,0.535,-0.230
5054,1.330,-0.340
5055,1.215,-0.910
5056,-0.265,-0.860
5057,-0.915,-0.575
5058,-0.660,-0.475
5059,-0.565,-0.060
5060,-0.605,0.110
5061,-0.440,0.025
5062,-0.430,0.100
5063,-0.650,0.325
5064,-0.505,0.210
5065,-0.340,-0.030
5066,-0.285,0.260
5067,-0.230,0.135
5068,-0.315,0.030
5069,-0.120,0.290
5070,-0.265,0.260
5071,-0.220,0.175
5072,0.035,0.110
5073,-0.205,0.090
5074,-0.255,0.240
5075,-0.260,-0.110
5076,-0.245,-0.015
5077,-0.365,0.145
5078,-0.155,0.005
5079,-0.120,0.050
5080,0.140,0.080
5081,-0.055,0.170
5082,-0.515,0.355
5083,-0.375,0.365
5084,-0.165,-0.095
5085,-0.335,0.215
5086,-0.340,0.295
5087,-0.355,-0.200
5088,-0.380,-0.325
5089,-0.465,-0.005
5090,-0.570,-0.020
5091,-0.630,0.285
5092,-0.330,-0.020
5093,-0.175,-0.430
5094,-0.400,0.010
5095,-0.580,0.105
5096,-0.395,-0.035
5097,-0.565,0.065
5098,-0.780,0.470
5099,-0.655,0.150
5100,-0.625,0.160
5101,-0.590,0.150
5102,-0.685,0.255
5103,-0.690,0.290
5104,-0.710,0.070
5105,-0.700,-0.080
5106,-0.600,-0.165
5107,-0.520,-0.070
5108,-0.450,0.100
5109,-0.320,0.190
5110,-0.300,0.190
5111,-0.350,0.265
5112,-0.160,0.040
5113,-0.055,-0.105
5114,0.030,0.130
5115,-0.275,0.410
5116,-0.260,0.470
5117,-0.205,0.000
5118,-0.060,0.030
5119,-0.125,-0.215
5120,-0.200,-0.080
5121,-0.285,-0.005
5122,-0.400,-0.005
5123,-0.480,0.000
5124,-0.415,-0.020
5125,-0.500,-0.010
5126,-0.515,0.100
5127,-0.380,0.155
5128,-0.230,0.115
5129,-0.415,-0.095
5130,-0.365,0.015
5131,-0.325,0.300
5132,-0.235,0.135
5133,-0.190,-0.010
5134,-0.240,0.240
5135,-0.045,0.125
5136,0.210,-0.050
5137,0.150,0.135
5138,0.215,0.440
5139,0.350,-0.160
5140,0.180,-0.035
5141,0.150,0.390
5142,0.260,0.000
5143,0.165,0.080
5144,0.200,0.375
5145,-0.055,0.625
5146,0.065,-0.200
5147,-0.180,0.175
5148,0.000,0.455
5149,0.080,-0.240
5150,0.000,-0.300
5151,-0.190,0.100
5152,-0.070,0.440
5153,0.745,0.195
5154,1.720,-0.415
5155,1.650,-0.565
5156,0.165,-0.660
5157,-0.345,-0.705
5158,0.010,-0.310
5159,0.090,0.110
5160,0.075,0.385
5161,0.125,0.335
5162,-0.020,0.415
5163,0.255,-0.180
5164,0.045,0.005
5165,0.120,0.285
5166,0.200,0.115
5167,0.110,0.055
5168,0.120,-0.130
5169,0.000,0.230
5170,-0.030,0.080
5171,-0.010,0.190
5172,0.050,0.090
5173,0.080,0.195
5174,0.090,0.310
5175,0.075,-0.040
5176,0.180,-0.030
5177,0.055,0.205
5178,0.010,0.540
5179,0.140,0.200
5180,0.195,-0.445
5181,0.240,-0.205
5182,0.115,0.035
5183,0.070,0.120
5184,0.115,-0.005
5185,0.210,0.145
5186,0.310,-0.205
5187,0.275,0.090
5188,0.425,-0.175
5189,0.350,0.125
5190,0.265,0.135
5191,0.400,-0.370
5192,0.240,-0.240
5193,0.340,0.000
5194,0.315,-0.165
5195,0.080,0.385
5196,0.245,-0.080
5197,0.275,-0.200
5198,0.470,0.035
5199,0.230,0.115
5200,-0.195,-0.015
5201,-0.075,0.270
5202,0.010,0.120
5203,0.030,0.275
5204,0.155,0.205
5205,0.270,-0.090
5206,0.175,0.200
5207,0.095,0.135
5208,0.180,-0.090
5209,0.250,-0.160
5210,0.175,0.270
5211,0.295,-0.100
5212,0.165,0.355
5213,0.365,-0.170
5214,0.230,0.050
5215,0.165,0.160
5216,0.115,0.135
5217,0.165,-0.085
5218,0.270,0.000
5219,0.285,-0.190
5220,0.150,0.430
5221,0.265,-0.135
5222,0.105,-0.200
5223,0.085,0.275
5224,0.075,0.035
5225,0.170,-0.210
5226,0.135,0.360
5227,0.135,0.105
5228,0.400,-0.365
5229,0.070,-0.030
5230,0.050,0.210
5231,0.105,0.125
5232,0.015,0.265
5233,0.270,0.185
5234,0.395,-0.200
5235,0.245,0.375
5236,0.395,0.005
5237,0.295,-0.060
5238,0.245,-0.015
5239,0.395,-0.030
5240,0.140,0.105
5241,0.000,0.030
5242,-0.020,-0.230
5243,0.000,-0.020
5244,0.045,0.185
5245,-0.105,0.180
5246,-0.080,0.185
5247,-0.110,0.265
5248,0.090,-0.075
5249,0.225,0.075
5250,0.780,-0.045
5251,1.595,-0.065
5252,1.610,-0.630
5253,0.145,-1.015
5254,-0.445,-0.605
5255,-0.195,-0.560
5256,-0.095,-0.130
5257,-0.120,0.065
5258,-0.105,-0.135
5259,-0.205,0.220
5260,-0.080,0.330
5261,0.040,0.020
5262,-0.090,0.115
5263,-0.060,0.330
5264,0.005,-0.155
5265,-0.025,-0.170
5266,-0.185,0.215
5267,-0.110,0.220
5268,-0.030,0.165
5269,0.000,0.180
5270,-0.080,0.255
5271,0.075,-0.175
5272,0.110,0.020
5273,0.040,0.060
5274,0.045,0.000
5275,0.080,0.085
5276,0.080,0.220
5277,0.165,0.005
5278,0.050,-0.035
5279,0.010,-0.025
5280,0.045,0.205
5281,0.205,0.140
5282,0.190,0.285
5283,0.280,0.045
5284,0.345,-0.135
5285,0.350,-0.330
5286,0.420,-0.100
5287,0.335,0.180
5288,0.250,0.000
5289,0.490,-0.140
5290,0.195,0.140
5291,0.225,0.075
5292,0.125,0.180
5293,0.130,-0.005
5294,0.190,-0.030
5295,0.135,0.110
5296,0.085,0.165
5297,0.060,0.000
5298,0.080,0.120
5299,0.070,0.065
5300,0.070,-0.025
5301,0.225,-0.040
5302,-0.105,0.075
5303,-0.035,0.045
5304,-0.025,0.190
5305,-0.080,0.205
5306,0.000,0.125
5307,-0.050,0.175
5308,-0.060,0.360
5309,0.050,-0.030
5310,0.180,-0.045
5311,0.185,-0.140
5312,0.065,-0.015
5313,0.040,0.245
5314,0.065,0.045
5315,-0.055,-0.025
5316,-0.025,0.265
5317,0.005,0.015
5318,-0.075,0.030
5319,-0.025,0.010
5320,-0.005,0.110
5321,0.095,-0.010
5322,0.010,-0.035
5323,-0.145,0.175
5324,-0.135,0.035
5325,-0.225,0.125
5326,-0.070,0.020
5327,-0.010,-0.045
5328,-0.050,0.035
5329,-0.175,0.185
5330,-0.145,-0.095
5331,-0.100,-0.070
5332,-0.030,0.050
5333,0.035,0.215
5334,0.275,0.205
5335,0.185,-0.085
5336,-0.065,0.115
5337,0.015,0.205
5338,-0.150,-0.040
5339,-0.180,0.145
5340,-0.185,0.015
5341,-0.290,0.065
5342,-0.230,0.000
5343,-0.135,0.035
5344,-0.145,-0.245
5345,-0.195,-0.175
5346,-0.275,0.110
5347,-0.260,0.270
5348,0.005,0.355
5349,0.915,-0.120
5350,1.615,-0.370
5351,0.530,-0.950
5352,-0.910,-0.945
5353,-0.710,-0.450
5354,-0.465,-0.155
5355,-0.350,-0.120
5356,-0.280,-0.135
5357,-0.245,0.030
5358,-0.250,-0.025
5359,-0.420,0.175
5360,-0.395,0.230
5361,-0.405,0.315
5362,-0.295,-0.040
5363,-0.265,-0.200
5364,-0.315,0.175
5365,-0.240,0.040
5366,-0.265,0.105
5367,-0.300,0.285
5368,-0.250,-0.050
5369,-0.290,-0.045
5370,-0.375,0.090
5371,-0.255,0.010
5372,-0.195,0.295
5373,-0.160,-0.130
5374,-0.265,0.160
5375,-0.135,0.060
5376,-0.080,-0.195
5377,0.000,0.100
5378,0.025,0.030
5379,-0.085,-0.015
5380,0.085,0.175
5381,0.085,0.015
5382,0.050,-0.165
5383,0.070,0.055
5384,-0.145,-0.025
5385,-0.075,-0.205
5386,0.030,-0.020
5387,0.045,0.030
5388,0.065,-0.125
5389,-0.010,0.045
5390,0.025,-0.020
5391,0.055,0.080
5392,0.110,0.055
5393,-0.120,-0.090
5394,-0.205,0.110
5395,-0.080,0.020
5396,-0.155,0.010
5397,-0.360,0.705
5398,-0.215,-0.035
5399,-0.225,-0.155
5400,-0.145,-0.005
5401,-0.255,0.205
5402,-0.125,0.170
5403,-0.095,-0.095
5404,-0.190,0.095
5405,-0.085,0.195
5406,0.040,-0.015
5407,-0.045,-0.095
5408,-0.210,0.310
5409,-0.185,0.250
5410,-0.120,-0.015
5411,-0.175,-0.015
5412,-0.235,0.135
5413,-0.130,0.085
5414,-0.035,0.005
5415,-0.020,0.085
5416,-0.105,-0.315
5417,-0.140,-0.205
5418,-0.260,0.210
5419,-0.200,0.000
5420,-0.235,0.080
5421,-0.305,0.185
5422,-0.285,0.275
5423,-0.195,-0.080
5424,-0.255,0.000
5425,-0.260,0.095
5426,-0.255,0.125
5427,-0.065,-0.175
5428,-0.285,0.025
5429,-0.220,0.155
5430,-0.115,0.135
5431,0.020,-0.155
5432,0.105,-0.100
5433,-0.060,0.255
5434,-0.280,0.235
5435,-0.045,-0.060
5436,-0.095,-0.125
5437,-0.135,0.015
5438,-0.425,0.125
5439,-0.385,0.235
5440,-0.245,0.040
5441,-0.120,-0.115
5442,-0.230,0.000
5443,-0.415,0.060
5444,-0.295,0.155
5445,-0.370,0.195
5446,-0.350,0.140
5447,0.230,0.050
5448,1.190,-0.310
5449,1.350,-0.860
5450,-0.085,-1.180
5451,-0.815,-0.550
5452,-0.465,-0.480
5453,-0.495,-0.105
5454,-0.390,0.130
5455,-0.450,0.130
5456,-0.550,0.245
5457,-0.310,-0.145
5458,-0.445,-0.060
5459,-0.455,0.290
5460,-0.385,-0.095
5461,-0.390,0.060
5462,-0.385,0.005
5463,-0.405,-0.110
5464,-0.355,0.110
5465,-0.445,0.355
5466,-0.330,-0.145
5467,-0.295,-0.020
5468,-0.390,0.100
5469,-0.230,0.340
5470,-0.225,0.045
5471,-0.385,-0.075
5472,-0.270,-0.100
5473,-0.220,-0.100
5474,-0.320,-0.075
5475,-0.325,0.155
5476,-0.140,-0.055
5477,-0.095,-0.035
5478,-0.095,-0.155
5479,0.070,0.005
5480,-0.125,-0.200
5481,-0.130,-0.010
5482,0.000,-0.080
5483,0.050,-0.135
5484,-0.295,0.155
5485,-0.105,0.000
5486,0.120,-0.085
5487,-0.005,-0.225
5488,0.005,-0.110
5489,-0.070,0.200
5490,-0.125,-0.030
5491,-0.210,-0.030
5492,-0.225,0.005
5493,-0.325,0.105
5494,-0.220,-0.125
5495,-0.395,0.175
5496,-0.495,0.140
5497,-0.380,0.250
5498,-0.285,-0.150
5499,-0.135,-0.015
5500,-0.305,-0.125
5501,-0.135,0.050
5502,-0.325,-0.070
5503,-0.375,0.055
5504,-0.310,0.080
5505,-0.290,0.085
5506,-0.190,0.005
5507,-0.160,0.010
5508,-0.215,-0.015
5509,-0.275,0.095
5510,-0.300,0.115
5511,-0.150,-0.020
5512,-0.105,-0.185
5513,-0.160,-0.045
5514,-0.285,0.140
5515,-0.325,0.110
5516,-0.275,0.015
5517,-0.360,-0.010
5518,-0.345,0.000
5519,-0.270,-0.080
5520,-0.255,0.000
5521,-0.205,0.080
5522,-0.360,0.205
5523,-0.425,-0.085
5524,-0.455,0.155
5525,-0.410,0.440
5526,-0.345,-0.125
5527,-0.315,-0.130
5528,-0.295,-0.015
5529,-0.180,0.075
5530,-0.585,0.225
5531,-0.390,-0.050
5532,-0.280,0.120
5533,-0.215,0.045
5534,-0.080,0.240
5535,0.025,0.040
5536,-0.020,-0.050
5537,-0.240,0.055
5538,-0.330,0.080
5539,-0.350,0.320
5540,-0.495,-0.010
5541,-0.385,0.110
5542,-0.435,0.275
5543,-0.395,-0.105
5544,-0.375,-0.210
5545,-0.365,-0.040
5546,-0.335,0.120
5547,-0.500,0.340
5548,-0.310,0.310
5549,0.470,0.065
5550,1.390,-0.520
5551,0.490,-0.910
5552,-0.670,-0.740
5553,-0.715,-0.605
5554,-0.450,-0.410
5555,-0.425,-0.020
5556,-0.420,0.170
5557,-0.465,-0.045
5558,-0.440,0.060
5559,-0.485,0.155
5560,-0.540,0.375
5561,-0.410,0.095
5562,-0.450,0.045
5563,-0.570,0.255
5564,-0.480,0.160
5565,-0.380,-0.120
5566,-0.400,0.055
5567,-0.390,0.235
5568,-0.405,0.110
5569,-0.430,0.185
5570,-0.465,0.205
5571,-0.385,0.100
5572,-0.340,0.200
5573,-0.275,0.140
5574,-0.325,0.000
5575,-0.345,0.340
5576,-0.120,0.040
5577,-0.135,-0.095
5578,-0.085,0.055
5579,-0.185,0.075
5580,-0.210,0.110
5581,-0.225,-0.030
5582,-0.175,-0.090
5583,-0.150,0.025
5584,-0.155,0.080
5585,-0.050,0.100
5586,0.015,-0.045
5587,-0.035,-0.150
5588,0.005,0.020
5589,0.010,-0.080
5590,-0.010,0.050
5591,-0.225,0.340
5592,-0.255,-0.040
5593,-0.150,0.030
5594,-0.275,0.260
5595,-0.320,0.050
5596,-0.295,0.005
5597,-0.320,0.115
5598,-0.285,0.205
5599,-0.285,0.180
5600,-0.295,0.145
5601,-0.105,0.145
5602,-0.165,0.065
5603,-0.375,0.200
5604,-0.345,0.260
5605,-0.195,-0.025
5606,-0.135,-0.065
5607,-0.205,0.125
5608,-0.270,0.140
5609,-0.220,0.255
5610,-0.160,-0.060
5611,-0.100,0.095
5612,-0.195,0.025
5613,-0.350,0.165
5614,-0.220,0.170
5615,-0.405,0.245
5616,-0.310,0.100
5617,-0.450,0.190
5618,-0.325,0.320
5619,-0.355,0.090
5620,-0.320,-0.035
5621,-0.350,0.010
5622,-0.190,0.110
5623,-0.290,0.010
5624,-0.365,0.020
5625,-0.435,0.130
5626,-0.360,0.160
5627,-0.440,0.275
5628,-0.335,0.115
5629,-0.450,0.005
5630,-0.425,0.280
5631,-0.305,0.250
5632,-0.245,-0.055
5633,-0.135,0.125
5634,-0.215,0.210
5635,-0.025,0.360
5636,0.000,0.165
5637,-0.050,-0.090
5638,0.000,0.000
5639,-0.205,0.345
5640,-0.430,-0.015
5641,-0.375,-0.005
5642,-0.325,-0.040
5643,-0.470,0.050
5644,-0.465,0.260
5645,-0.305,0.100
5646,-0.370,0.095
5647,-0.445,0.185
5648,-0.440,0.325
5649,-0.395,0.440
5650,0.265,0.190
5651,1.045,-0.220
5652,1.055,-0.820
5653,-0.170,-0.940
5654,-0.585,-0.315
5655,-0.485,-0.045
5656,-0.120,-0.065
5657,-0.535,-0.070
5658,-0.460,0.245
5659,-0.465,0.050
5660,-0.540,0.120
5661,-0.500,0.255
5662,-0.465,0.290
5663,-0.380,0.205
5664,-0.425,0.125
5665,-0.405,0.180
5666,-0.400,0.295
5667,-0.440,0.365
5668,-0.380,0.195
5669,-0.290,0.195
5670,-0.355,0.170
5671,-0.320,0.120
5672,-0.505,0.220
5673,-0.370,0.110
5674,-0.335,0.145
5675,-0.425,0.235
5676,-0.350,0.050
5677,-0.335,0.075
5678,-0.205,0.145
5679,-0.135,0.145
5680,-0.150,0.100
5681,-0.130,0.085
5682,-0.145,-0.005
5683,-0.065,0.080
5684,-0.045,0.120
5685,0.035,-0.075
5686,-0.090,-0.015
5687,-0.190,0.120
5688,-0.180,0.010
5689,0.035,0.035
5690,-0.195,0.010
5691,-0.180,0.080
5692,-0.140,0.140
5693,-0.290,0.055
5694,-0.200,0.120
5695,-0.285,0.080
5696,-0.240,0.150
5697,-0.380,0.245
5698,-0.325,0.190
5699,-0.325,0.290
5700,-0.470,0.105
5701,-0.370,0.170
5702,-0.385,0.345
5703,-0.255,0.040
5704,-0.260,0.005
5705,-0.230,0.160
5706,-0.250,0.200
5707,-0.160,0.115
5708,-0.290,0.140
5709,-0.340,0.025
5710,-0.190,0.130
5711,-0.270,0.165
5712,-0.350,0.230
5713,-0.195,0.125
5714,-0.160,-0.015
5715,-0.355,0.080
5716,-0.355,0.140
5717,-0.255,0.230
5718,-0.395,0.170
5719,-0.360,0.200
5720,-0.315,0.150
5721,-0.300,0.050
5722,-0.310,0.160
5723,-0.415,0.190
5724,-0.325,0.125
5725,-0.375,0.225
5726,-0.370,0.085
5727,-0.315,-0.120
5728,-0.395,0.050
5729,-0.490,0.180
5730,-0.260,0.115
5731,-0.205,0.170
5732,-0.430,0.170
5733,-0.225,0.275
5734,-0.090,0.085
5735,-0.070,0.035
5736,-0.130,0.040
5737,-0.375,0.050
5738,-0.300,0.080
5739,-0.250,0.070
5740,-0.470,0.215
5741,-0.485,0.045
5742,-0.465,0.035
5743,-0.505,0.135
5744,-0.395,0.060
5745,-0.430,0.125
5746,-0.410,0.095
5747,-0.410,0.110
5748,-0.440,0.320
5749,-0.050,0.170
5750,0.780,-0.115
5751,1.320,-0.685
5752,0.095,-0.950
5753,-0.725,-0.500
5754,-0.675,-0.260
5755,-0.560,0.000
5756,-0.430,0.045
5757,-0.490,0.105
5758,-0.315,0.235
5759,-0.515,0.110
5760,-0.580,0.180
5761,-0.540,0.165
5762,-0.570,0.170
5763,-0.430,0.220
5764,-0.520,0.175
5765,-0.550,0.215
5766,-0.265,0.030
5767,-0.360,0.095
5768,-0.500,0.145
5769,-0.420,0.235
5770,-0.475,0.200
5771,-0.385,0.130
5772,-0.490,0.225
5773,-0.440,0.235
5774,-0.320,0.110
5775,-0.285,0.045
5776,-0.415,0.135
5777,-0.265,-0.020
5778,-0.125,0.120
5779,-0.185,-0.020
5780,-0.190,-0.030
5781,-0.130,0.075
5782,-0.150,0.025
5783,-0.060,0.000
5784,-0.195,0.065
5785,-0.070,0.020
5786,-0.110,0.150
5787,-0.210,-0.160
5788,-0.115,-0.115
5789,0.000,-0.035
5790,-0.070,0.070
5791,-0.065,0.015
5792,-0.155,0.045
5793,-0.210,0.140
5794,-0.275,0.280
5795,-0.420,0.225
5796,-0.335,-0.035
5797,-0.425,0.025
5798,-0.360,0.205
5799,-0.370,0.240
5800,-0.475,0.165
5801,-0.305,0.315
5802,-0.270,0.085
5803,-0.285,0.245
5804,-0.300,0.255
5805,-0.285,0.125
5806,-0.070,0.020
5807,-0.335,0.125
5808,-0.300,0.140
5809,-0.325,0.185
5810,-0.365,0.190
5811,-0.250,0.150
5812,-0.295,0.195
5813,-0.215,0.100
5814,-0.295,0.130
5815,-0.235,0.195
5816,-0.340,0.180
5817,-0.410,0.155
5818,-0.275,0.235
5819,-0.320,0.165
5820,-0.420,0.225
5821,-0.330,0.350
5822,-0.370,0.130
5823,-0.350,0.060
5824,-0.340,0.270
5825,-0.335,0.100
5826,-0.370,0.055
5827,-0.345,0.065
5828,-0.430,0.175
5829,-0.420,0.200
5830,-0.305,0.000
5831,-0.225,0.095
5832,-0.305,0.210
5833,-0.150,0.185
5834,-0.130,0.265
5835,-0.060,0.005
5836,-0.105,-0.015
5837,-0.310,0.145
5838,-0.360,0.220
5839,-0.420,0.170
5840,-0.350,0.060
5841,-0.285,0.070
5842,-0.520,0.145
5843,-0.465,0.140
5844,-0.550,0.225
5845,-0.515,0.140
5846,-0.370,0.190
5847,-0.435,0.315
5848,0.005,0.410
5849,1.045,-0.085
5850,1.430,-0.825
5851,0.025,-1.220
5852,-1.030,-0.710
5853,-0.795,-0.435
5854,-0.340,-0.115
5855,-0.400,-0.005
5856,-0.575,0.190
5857,-0.530,0.160
5858,-0.425,0.190
5859,-0.390,0.245
5860,-0.395,0.215
5861,-0.480,0.025
5862,-0.570,0.180
5863,-0.445,0.140
5864,-0.495,0.115
5865,-0.545,0.245
5866,-0.465,0.210
5867,-0.440,0.135
5868,-0.475,0.120
5869,-0.415,0.155
5870,-0.310,0.155
5871,-0.505,0.225
5872,-0.480,0.070
5873,-0.335,0.145
5874,-0.350,0.170
5875,-0.310,0.220
5876,-0.200,0.100
5877,-0.160,-0.035
5878,-0.035,0.000
5879,0.040,0.005
5880,-0.110,0.000
5881,-0.105,-0.010
5882,-0.190,0.000
5883,-0.090,0.035
5884,-0.005,-0.120
5885,0.010,-0.015
5886,0.010,0.075
5887,0.010,-0.040
5888,0.260,-0.165
5889,-0.010,0.025
5890,-0.100,0.070
5891,-0.285,0.020
5892,-0.320,0.135
5893,-0.270,0.100
5894,-0.300,0.080
5895,-0.155,0.060
5896,-0.235,0.050
5897,-0.340,0.190
5898,-0.095,-0.035
5899,-0.540,0.225
5900,-0.525,0.215
5901,-0.370,0.070
5902,-0.420,0.185
5903,-0.395,0.130
5904,-0.285,0.040
5905,-0.215,0.070
5906,-0.315,0.150
5907,-0.215,0.210
5908,-0.335,0.105
5909,-0.300,0.240
5910,-0.175,0.035
5911,-0.175,0.005
5912,-0.265,0.000
5913,-0.285,0.075
5914,-0.450,0.125
5915,-0.255,0.050
5916,-0.305,0.105
5917,-0.335,0.170
5918,-0.400,0.190
5919,-0.345,0.010
5920,-0.200,0.175
5921,-0.150,-0.045
5922,-0.285,0.020
5923,-0.360,0.175
5924,-0.365,0.090
5925,-0.430,0.120
5926,-0.405,0.090
5927,-0.310,0.170
5928,-0.280,0.140
5929,-0.315,0.180
5930,-0.220,-0.075
5931,-0.120,0.050
5932,-0.140,0.185
5933,-0.100,0.215
5934,0.015,0.000
5935,-0.050,0.020
5936,-0.175,-0.075
5937,-0.275,0.050
5938,-0.250,0.075
5939,-0.410,0.260
5940,-0.435,0.135
5941,-0.340,0.050
5942,-0.355,0.080
5943,-0.360,0.110
5944,-0.410,0.045
5945,-0.360,0.095
5946,-0.340,0.115
5947,-0.180,0.280
5948,0.280,0.010
5949,1.235,-0.290
5950,1.255,-0.925
5951,-0.215,-0.890
5952,-0.705,-0.580
5953,-0.625,-0.110
5954,-0.395,-0.020
5955,-0.340,0.005
5956,-0.385,0.035
5957,-0.310,0.125
5958,-0.475,0.105
5959,-0.495,0.200
5960,-0.500,0.260
5961,-0.420,0.080
5962,-0.345,0.165
5963,-0.445,0.040
5964,-0.395,0.095
5965,-0.330,0.050
5966,-0.385,0.100
5967,-0.320,0.200
5968,-0.345,0.170
5969,-0.405,0.095
5970,-0.240,0.015
5971,-0.405,0.155
5972,-0.285,0.160
5973,-0.280,0.140
5974,-0.225,0.005
5975,-0.075,0.220
5976,0.025,-0.195
5977,-0.165,0.040
5978,0.000,0.035
5979,0.075,-0.060
5980,-0.025,-0.070
5981,-0.040,0.000
5982,0.075,-0.065
5983,-0.010,-0.140
5984,-0.005,-0.090
5985,0.075,0.000
5986,0.195,-0.025
5987,0.200,-0.130
5988,0.035,0.025
5989,0.075,-0.055
5990,-0.055,-0.080
5991,-0.125,0.055
5992,-0.190,0.005
5993,-0.165,-0.025
5994,-0.130,0.080
5995,-0.130,0.080
5996,-0.195,0.075
5997,-0.370,0.110
5998,-0.235,0.000
5999,-0.190,0.045
6000,-0.265,0.115
6001,-0.260,0.190
6002,-0.090,0.080
6003,-0.215,0.095
6004,-0.240,0.045
6005,-0.255,-0.050
6006,-0.205,0.055
6007,-0.110,0.050
6008,-0.100,-0.005
6009,-0.215,0.115
6010,-0.260,-0.015
6011,-0.110,0.085
6012,-0.080,0.030
6013,-0.380,0.120
6014,-0.330,0.060
6015,-0.090,0.080
6016,-0.170,0.010
6017,-0.275,-0.075
6018,-0.345,0.100
6019,-0.255,0.125
6020,-0.295,-0.155
6021,-0.310,0.080
6022,-0.200,0.095
6023,-0.320,0.020
6024,-0.335,0.005
6025,-0.390,0.005
6026,-0.315,0.035
6027,-0.125,0.025
6028,-0.440,0.185
6029,-0.355,0.215
6030,-0.260,-0.010
6031,-0.200,0.015
6032,-0.290,-0.065
6033,-0.230,0.225
6034,-0.035,0.075
6035,-0.095,-0.350
6036,-0.135,-0.095
6037,-0.015,-0.030
6038,-0.115,0.000
6039,-0.245,0.055
6040,-0.260,0.095
6041,-0.385,0.140
6042,-0.505,0.175
6043,-0.370,0.070
6044,-0.345,0.120
6045,-0.470,0.145
6046,-0.355,0.005
6047,-0.310,0.100
6048,-0.335,0.230
6049,0.275,0.220
6050,1.010,-0.260
6051,1.290,-0.750
6052,0.080,-0.895
6053,-0.575,-0.480
6054,-0.640,-0.425
6055,-0.460,-0.250
6056,-0.505,-0.045
6057,-0.565,0.075
6058,-0.360,0.050
6059,-0.345,0.095
6060,-0.395,0.080
6061,-0.425,0.065
6062,-0.305,0.095
6063,-0.400,0.245
6064,-0.470,0.300
6065,-0.450,-0.060
6066,-0.530,0.160
6067,-0.410,-0.080
6068,-0.280,-0.075
6069,-0.400,0.130
6070,-0.570,0.180
6071,-0.360,0.155
6072,-0.375,0.060
6073,-0.420,0.195
6074,-0.240,-0.080
6075,-0.250,0.085
6076,-0.110,-0.100
6077,-0.120,-0.120
6078,-0.140,-0.090
6079,-0.190,-0.075
6080,-0.135,0.040
6081,-0.055,0.020
6082,0.000,-0.025
6083,0.175,-0.065
6084,-0.045,-0.065
6085,-0.120,0.020
6086,0.015,-0.200
6087,0.130,-0.285
6088,0.230,-0.235
6089,-0.045,-0.115
6090,-0.050,-0.130
6091,0.100,-0.100
6092,0.085,-0.085
6093,-0.280,0.090
6094,-0.155,-0.005
6095,-0.265,0.235
6096,-0.420,0.045
6097,-0.335,-0.105
6098,-0.350,-0.055
6099,-0.395,0.030
6100,-0.355,0.000
6101,-0.180,-0.015
6102,-0.295,-0.035
6103,0.035,-0.100
6104,-0.235,0.015
6105,-0.475,0.180
6106,-0.240,0.075
6107,-0.095,-0.015
6108,-0.335,0.280
6109,-0.205,-0.075
6110,-0.145,-0.225
6111,-0.160,0.050
6112,-0.225,-0.050
6113,-0.370,0.000
6114,-0.335,0.040
6115,-0.300,-0.045
6116,-0.090,-0.015
6117,-0.275,-0.015
6118,-0.345,0.000
6119,-0.230,0.250
6120,-0.255,0.085
6121,-0.265,-0.245
6122,-0.290,-0.040
6123,-0.170,-0.065
6124,-0.295,-0.075
6125,-0.355,0.050
6126,-0.510,0.045
6127,-0.270,0.055
6128,-0.235,-0.015
6129,-0.550,0.020
6130,-0.325,0.015
6131,-0.295,0.055
6132,-0.345,0.055
6133,-0.245,-0.040
6134,-0.225,0.030
6135,-0.095,-0.160
6136,0.020,-0.055
6137,0.050,-0.080
6138,-0.105,-0.105
6139,-0.090,-0.050
6140,-0.270,0.190
6141,-0.365,-0.035
6142,-0.325,-0.055
6143,-0.425,-0.030
6144,-0.315,-0.205
6145,-0.430,-0.055
6146,-0.440,-0.015
6147,-0.290,-0.060
6148,-0.320,0.035
6149,-0.410,0.075
6150,-0.410,0.145
6151,-0.085,0.120
6152,0.765,-0.085
6153,1.585,-0.385
6154,0.770,-1.050
6155,-0.730,-1.015
6156,-0.940,-0.670
6157,-0.620,-0.430
6158,-0.385,-0.130
6159,-0.295,-0.055
6160,-0.460,-0.075
6161,-0.345,-0.085
6162,-0.460,0.180
6163,-0.725,0.270
6164,-0.455,0.120
6165,-0.145,0.005
6166,-0.225,-0.295
6167,-0.655,0.105
6168,-0.665,0.015
6169,-0.490,-0.075
6170,-0.305,-0.055
6171,-0.385,0.045
6172,-0.510,0.135
6173,-0.385,0.025
6174,-0.095,-0.075
6175,-0.305,-0.025
6176,-0.200,0.035
6177,-0.135,0.050
6178,-0.180,0.020
6179,-0.115,0.010
6180,0.140,-0.015
6181,-0.040,-0.270
6182,-0.075,-0.200
6183,0.060,-0.215
6184,0.150,-0.200
6185,0.070,-0.130
6186,0.280,-0.250
6187,0.205,-0.165
6188,0.155,-0.280
6189,0.275,-0.345
6190,0.170,-0.230
6191,0.285,-0.150
6192,0.240,-0.070
6193,0.045,-0.130
6194,0.060,-0.160
6195,-0.025,-0.100
6196,0.005,-0.030
6197,0.075,-0.145
6198,-0.030,-0.175
6199,0.105,0.035
6200,-0.150,0.000
6201,-0.140,-0.060
6202,-0.085,-0.140
6203,-0.065,-0.175
6204,-0.100,-0.010
6205,-0.015,-0.130
6206,-0.010,-0.155
6207,0.000,-0.050
6208,0.020,0.015
6209,-0.090,-0.035
6210,-0.185,-0.015
6211,-0.040,-0.015
6212,-0.020,-0.025
6213,0.045,0.025
6214,-0.060,-0.140
6215,-0.005,-0.125
6216,0.130,-0.120
6217,0.065,-0.020
6218,0.005,-0.060
6219,0.075,-0.050
6220,0.150,0.000
6221,-0.120,-0.200
6222,-0.065,-0.245
6223,-0.045,-0.100
6224,0.015,-0.150
6225,-0.080,-0.150
6226,0.005,-0.030
6227,-0.010,-0.100
6228,0.075,-0.125
6229,-0.070,-0.275
6230,-0.075,-0.045
6231,-0.280,-0.075
6232,-0.125,-0.105
6233,0.075,-0.250
6234,0.085,-0.185
6235,-0.145,-0.045
6236,-0.045,-0.065
6237,0.230,-0.175
6238,0.025,-0.165
6239,0.080,-0.125
6240,0.445,-0.300
6241,0.080,-0.160
6242,0.080,-0.050
6243,0.030,-0.250
6244,0.050,-0.125
6245,0.200,-0.180
6246,-0.010,-0.195
6247,-0.155,-0.270
6248,-0.085,-0.080
6249,-0.210,-0.120
6250,-0.125,-0.110
6251,-0.110,-0.285
6252,-0.085,-0.285
6253,-0.085,0.020
6254,0.000,-0.050
6255,0.845,-0.420
6256,1.695,-0.675
6257,1.230,-1.150
6258,0.010,-0.930
6259,-0.585,-0.425
6260,-0.325,-0.445
6261,-0.075,-0.470
6262,-0.175,-0.190
6263,-0.215,-0.215
6264,-0.070,-0.215
6265,-0.075,-0.140
6266,-0.055,0.050
6267,-0.300,-0.020
6268,-0.065,-0.235
6269,-0.080,-0.300
6270,-0.250,-0.205
6271,-0.095,-0.155
6272,-0.280,-0.165
6273,-0.220,0.005
6274,-0.150,-0.110
6275,0.040,-0.185
6276,-0.040,-0.250
6277,-0.345,-0.045
6278,-0.170,-0.130
6279,-0.090,-0.210
6280,-0.075,-0.240
6281,-0.125,-0.100
6282,-0.160,-0.100
6283,-0.060,-0.140
6284,0.195,-0.190
6285,0.190,-0.320
6286,0.140,-0.300
6287,-0.005,-0.150
6288,0.210,-0.305
6289,0.265,-0.465
6290,0.420,-0.250
6291,0.180,-0.205
6292,0.000,-0.375
6293,0.065,-0.270
6294,0.305,-0.100
6295,0.130,-0.410
6296,0.150,-0.380
6297,0.255,-0.180
6298,-0.050,-0.075
6299,-0.120,-0.195
6300,-0.045,-0.310
6301,-0.130,-0.225
6302,-0.155,-0.185
6303,-0.070,-0.085
6304,-0.170,-0.145
6305,-0.190,-0.210
6306,-0.160,-0.190
6307,-0.145,-0.120
6308,-0.215,-0.080
6309,-0.095,-0.030
6310,-0.110,-0.340
6311,-0.020,-0.190
6312,0.000,-0.210
6313,0.135,-0.370
6314,0.115,-0.235
6315,-0.035,0.045
6316,-0.040,-0.245
6317,-0.100,-0.050
6318,0.050,0.000
6319,0.085,-0.160
6320,-0.070,-0.300
6321,-0.115,-0.395
6322,-0.080,-0.185
6323,-0.175,-0.160
6324,-0.095,-0.145
6325,0.065,0.010
6326,-0.095,-0.330
6327,-0.050,-0.320
6328,0.000,-0.225
6329,-0.250,-0.275
6330,-0.035,-0.260
6331,-0.185,-0.085
6332,-0.230,-0.185
6333,-0.120,-0.160
6334,-0.050,-0.240
6335,-0.080,-0.185
6336,-0.090,-0.240
6337,-0.185,0.000
6338,-0.310,-0.170
6339,-0.280,-0.215
6340,-0.100,-0.040
6341,-0.110,-0.240
6342,-0.090,-0.280
6343,-0.005,-0.075
6344,0.025,-0.385
6345,0.085,-0.190
6346,0.135,-0.170
6347,-0.145,-0.330
6348,-0.105,-0.100
6349,-0.080,-0.360
6350,-0.300,-0.110
6351,-0.330,0.175
6352,-0.095,-0.425
6353,-0.315,-0.605
6354,-0.495,-0.100
6355,-0.490,0.155
6356,-0.245,-0.230
6357,-0.185,-0.485
6358,-0.185,-0.165
6359,0.155,-0.325
6360,1.220,-0.355
6361,1.795,-0.745
6362,0.085,-0.890
6363,-1.090,-0.805
6364,-0.670,-0.340
6365,-0.460,-0.475
6366,-0.295,-0.260
6367,-0.495,-0.335
6368,-0.630,-0.320
6369,-0.365,-0.265
6370,-0.465,-0.050
6371,-0.595,-0.375
6372,-0.360,-0.345
6373,-0.445,-0.250
6374,-0.460,-0.060
6375,-0.410,0.160
6376,-0.470,-0.065
6377,-0.550,-0.185
6378,-0.325,-0.065
6379,-0.670,-0.230
6380,-0.315,-0.115
6381,-0.450,-0.250
6382,-0.525,0.000
6383,-0.335,-0.265
6384,-0.490,-0.195
6385,-0.395,-0.210
6386,-0.285,-0.200
6387,-0.150,-0.265
6388,-0.130,-0.295
6389,-0.185,-0.215
6390,-0.115,-0.105
6391,-0.080,-0.075
6392,-0.190,-0.185
6393,0.015,-0.335
6394,-0.070,-0.080
6395,0.035,-0.365
6396,0.255,-0.095
6397,0.130,0.075
6398,-0.095,-0.235
6399,0.050,-0.410
6400,0.115,-0.240
6401,-0.215,-0.085
6402,-0.010,-0.355
6403,-0.215,-0.225
6404,-0.380,-0.135
6405,-0.140,-0.145
6406,-0.485,-0.180
6407,-0.445,-0.045
6408,-0.280,-0.095
6409,-0.495,-0.185
6410,-0.555,-0.235
6411,-0.325,-0.375
6412,-0.240,-0.185
6413,-0.340,-0.225
6414,-0.135,-0.190
6415,-0.170,-0.070
6416,-0.250,-0.085
6417,-0.400,-0.075
6418,-0.180,-0.035
6419,-0.215,0.045
6420,-0.220,-0.120
6421,-0.130,-0.215
6422,-0.380,-0.195
6423,-0.350,-0.225
6424,-0.075,-0.180
6425,-0.255,-0.110
6426,-0.255,-0.220
6427,-0.230,-0.265
6428,-0.130,-0.100
6429,-0.240,0.040
6430,-0.385,-0.020
6431,-0.380,-0.140
6432,-0.160,-0.390
6433,-0.085,-0.385
6434,-0.340,-0.145
6435,-0.265,-0.115
6436,-0.260,-0.125
6437,-0.360,-0.115
6438,-0.270,-0.230
6439,-0.280,-0.230
6440,-0.340,-0.195
6441,-0.145,-0.260
6442,-0.330,-0.040
6443,-0.435,-0.145
6444,-0.385,-0.120
6445,-0.165,-0.020
6446,-0.125,-0.025
6447,-0.050,-0.300
6448,-0.105,-0.260
6449,0.045,-0.285
6450,0.000,-0.125
6451,0.045,-0.230
6452,-0.265,-0.200
6453,-0.505,-0.195
6454,-0.225,-0.075
6455,-0.485,0.140
6456,-0.575,-0.330
6457,-0.265,-0.285
6458,-0.255,-0.095
6459,-0.200,-0.075
6460,-0.305,-0.150
6461,-0.540,-0.100
6462,0.340,-0.080
6463,1.270,-0.205
6464,1.815,-0.725
6465,0.010,-1.070
6466,-1.080,-0.860
6467,-0.630,-0.505
6468,-0.455,-0.325
6469,-0.425,-0.275
6470,-0.400,-0.155
6471,-0.340,-0.140
6472,-0.325,-0.105
6473,-0.375,-0.090
6474,-0.305,-0.225
6475,-0.630,-0.070
6476,-0.490,-0.100
6477,-0.405,-0.105
6478,-0.465,-0.230
6479,-0.430,-0.180
6480,-0.290,-0.135
6481,-0.430,-0.135
6482,-0.350,0.030
6483,-0.385,-0.090
6484,-0.320,-0.220
6485,-0.285,-0.180
6486,-0.175,-0.270
6487,-0.425,-0.030
6488,-0.350,-0.145
6489,-0.160,-0.160
6490,-0.175,-0.045
6491,-0.155,-0.035
6492,-0.055,-0.320
6493,-0.070,-0.175
6494,-0.015,-0.095
6495,-0.045,-0.305
6496,0.075,-0.245
6497,0.145,-0.345
6498,0.035,-0.305
6499,0.015,-0.060
6500,0.145,-0.250
6501,0.250,-0.100
6502,0.150,-0.245
6503,0.110,-0.370
6504,0.050,-0.235
6505,0.025,-0.245
6506,-0.125,-0.220
6507,-0.190,-0.090
6508,-0.225,0.005
6509,-0.225,-0.215
6510,-0.255,-0.010
6511,0.065,-0.020
6512,0.085,-0.290
6513,-0.270,-0.465
6514,-0.290,-0.230
6515,-0.215,0.000
6516,-0.275,-0.140
6517,-0.295,-0.180
6518,-0.225,-0.180
6519,-0.225,0.060
6520,-0.165,-0.040
6521,-0.055,-0.170
6522,-0.175,-0.305
6523,-0.155,-0.315
6524,-0.125,0.015
6525,-0.130,-0.215
6526,-0.065,-0.300
6527,-0.075,-0.265
6528,0.000,-0.155
6529,0.105,0.000
6530,-0.050,-0.375
6531,-0.135,-0.390
6532,-0.175,-0.255
6533,-0.080,-0.080
6534,-0.035,-0.080
6535,0.020,-0.175
6536,-0.035,-0.155
6537,-0.115,-0.060
6538,0.035,-0.120
6539,-0.095,-0.150
6540,-0.145,-0.180
6541,-0.085,-0.170
6542,0.020,-0.335
6543,0.070,-0.175
6544,-0.145,-0.065
6545,0.005,-0.250
6546,0.060,-0.120
6547,-0.190,-0.075
6548,-0.305,-0.200
6549,-0.110,-0.210
6550,0.090,-0.085
6551,0.200,-0.040
6552,0.250,-0.050
6553,0.280,-0.275
6554,0.150,-0.300
6555,0.095,-0.135
6556,0.110,-0.130
6557,0.035,-0.230
6558,-0.115,-0.255
6559,-0.240,-0.020
6560,-0.100,-0.155
6561,-0.015,-0.300
6562,-0.080,-0.165
6563,-0.075,-0.030
6564,0.000,-0.060
6565,-0.185,0.015
6566,0.040,0.000
6567,0.220,-0.210
6568,1.195,-0.415
6569,1.800,-0.880
6570,0.370,-1.315
6571,-0.620,-0.710
6572,-0.350,-0.555
6573,-0.250,-0.160
6574,-0.190,-0.115
6575,-0.150,-0.220
6576,-0.010,-0.190
6577,-0.105,-0.100
6578,-0.245,0.000
6579,-0.075,-0.080
6580,0.045,0.020
6581,-0.180,-0.130
6582,-0.045,-0.050
6583,-0.215,0.080
6584,-0.250,-0.135
6585,-0.235,-0.100
6586,-0.065,-0.120
6587,-0.100,-0.150
6588,-0.145,-0.150
6589,-0.065,-0.120
6590,0.135,-0.055
6591,-0.245,0.055
6592,-0.135,-0.235
6593,0.060,-0.205
6594,-0.145,0.045
6595,0.030,0.060
6596,0.085,-0.245
6597,0.060,-0.165
6598,0.260,-0.325
6599,0.280,-0.185
6600,0.185,-0.315
6601,0.150,-0.320
6602,0.310,-0.495
6603,0.050,-0.365
6604,0.200,-0.310
6605,0.235,-0.335
6606,0.115,-0.225
6607,0.115,0.005
6608,0.325,-0.070
6609,0.395,-0.415
6610,0.220,-0.420
6611,0.055,-0.115
6612,0.015,-0.055
6613,-0.080,-0.410
6614,-0.055,-0.125
6615,-0.045,-0.055
6616,-0.280,0.010
6617,-0.225,-0.190
6618,-0.020,-0.355
6619,0.290,-0.365
6620,0.070,-0.160
6621,-0.150,-0.055
6622,-0.190,-0.130
6623,-0.030,-0.085
6624,-0.080,-0.115
6625,-0.075,-0.180
6626,0.045,-0.295
6627,-0.090,-0.240
6628,-0.175,-0.120
6629,-0.020,-0.160
6630,-0.150,-0.210
6631,-0.095,-0.315
6632,-0.100,-0.225
6633,-0.080,-0.005
6634,-0.345,-0.235
6635,-0.185,-0.245
6636,-0.110,-0.240
6637,-0.170,-0.220
6638,-0.005,-0.300
6639,-0.185,-0.135
6640,-0.005,-0.220
6641,-0.175,-0.280
6642,-0.370,0.010
6643,-0.095,-0.325
6644,-0.205,-0.300
6645,-0.240,-0.315
6646,-0.375,-0.080
6647,-0.295,-0.085
6648,-0.330,-0.210
6649,-0.215,-0.075
6650,-0.220,-0.170
6651,-0.045,-0.285
6652,-0.365,-0.340
6653,-0.390,-0.280
6654,-0.310,-0.230
6655,-0.170,0.000
6656,-0.180,-0.305
6657,-0.185,-0.160
6658,0.015,-0.195
6659,-0.045,-0.135
6660,0.030,-0.290
6661,0.015,-0.265
6662,-0.325,-0.030
6663,-0.210,-0.330
6664,-0.240,-0.195
6665,-0.230,-0.185
6666,-0.235,-0.235
6667,-0.410,-0.265
6668,-0.415,-0.195
6669,-0.175,-0.165
6670,-0.280,-0.240
6671,-0.285,-0.350
6672,-0.315,-0.125
6673,-0.405,-0.085
6674,0.190,-0.270
6675,1.315,-0.675
6676,1.295,-1.015
6677,-0.265,-0.930
6678,-0.795,-0.475
6679,-0.525,-0.355
6680,-0.345,-0.220
