'sample interval','ECG0','ECG1'
'0.0078125 sec','mV','mV'
0,-0.165,-0.030
1,-0.160,-0.025
2,-0.200,-0.020
3,-0.160,-0.005
4,-0.165,-0.035
5,-0.135,-0.040
6,-0.160,0.000
7,-0.175,0.145
8,-0.070,0.095
9,0.675,-0.205
10,1.645,-0.725
11,1.180,-1.245
12,-0.305,-0.845
13,-0.590,-0.420
14,-0.380,-0.230
15,-0.255,-0.120
16,-0.230,-0.005
17,-0.195,0.030
18,-0.215,0.020
19,-0.200,0.045
20,-0.210,0.070
21,-0.160,0.025
22,-0.185,0.015
23,-0.190,0.015
24,-0.190,0.055
25,-0.165,0.025
26,-0.175,0.040
27,-0.145,0.040
28,-0.160,0.065
29,-0.140,0.060
30,-0.115,0.045
31,-0.085,0.045
32,-0.070,0.040
33,-0.075,0.040
34,-0.075,0.065
35,-0.025,0.015
36,0.025,0.005
37,0.065,-0.010
38,0.085,-0.035
39,0.125,-0.045
40,0.075,-0.065
41,0.110,-0.060
42,0.175,-0.095
43,0.190,-0.100
44,0.225,-0.100
45,0.250,-0.090
46,0.260,-0.060
47,0.260,-0.070
48,0.220,-0.065
49,0.160,-0.030
50,0.115,0.000
51,0.070,-0.015
52,0.055,-0.025
53,0.030,-0.020
54,0.000,0.000
55,-0.010,0.030
56,-0.010,0.005
57,-0.010,-0.005
58,0.000,0.005
59,0.045,0.000
60,0.035,0.025
61,0.020,0.030
62,0.025,-0.020
63,0.070,-0.010
64,0.070,-0.035
65,0.085,-0.065
66,0.060,-0.025
67,0.055,-0.020
68,0.055,-0.035
69,0.045,-0.045
70,0.040,-0.035
71,0.015,-0.035
72,0.000,-0.020
73,-0.005,-0.020
74,0.015,-0.050
75,0.010,-0.040
76,-0.005,-0.020
77,-0.030,-0.020
78,-0.025,-0.005
79,-0.030,0.000
80,-0.015,-0.005
81,-0.030,-0.025
82,-0.005,-0.025
83,-0.025,-0.040
84,-0.020,-0.005
85,-0.035,0.000
86,-0.040,-0.015
87,-0.020,-0.050
88,-0.005,-0.025
89,-0.045,-0.035
90,-0.010,-0.015
91,-0.045,0.000
92,-0.015,-0.030
93,-0.025,-0.055
94,0.000,-0.040
95,0.015,-0.030
96,0.065,0.000
97,0.140,-0.005
98,0.290,-0.025
99,0.270,-0.095
100,0.185,-0.080
101,0.100,-0.045
102,0.060,0.005
103,-0.060,-0.015
104,-0.050,-0.025
105,-0.080,0.000
106,-0.045,-0.025
107,-0.075,-0.025
108,-0.030,-0.020
109,-0.035,-0.045
110,-0.050,0.060
111,-0.100,0.185
112,0.195,-0.055
113,1.105,-0.370
114,1.750,-1.095
115,0.590,-1.250
116,-0.510,-0.685
117,-0.400,-0.335
118,-0.185,-0.170
119,-0.165,-0.060
120,-0.110,0.005
121,-0.135,0.025
122,-0.125,0.075
123,-0.115,0.030
124,-0.070,0.005
125,-0.115,0.040
126,-0.105,0.070
127,-0.105,0.070
128,-0.065,0.100
129,-0.090,0.110
130,-0.075,0.035
131,-0.075,0.015
132,-0.010,0.060
133,-0.020,0.045
134,-0.020,0.035
135,-0.070,0.045
136,0.000,0.050
137,0.010,0.035
138,0.075,0.015
139,0.075,0.000
140,0.125,0.010
141,0.135,0.000
142,0.195,-0.010
143,0.160,-0.035
144,0.225,-0.060
145,0.255,-0.120
146,0.285,-0.120
147,0.285,-0.115
148,0.340,-0.105
149,0.345,-0.115
150,0.365,-0.090
151,0.310,-0.085
152,0.275,-0.055
153,0.195,-0.035
154,0.155,-0.025
155,0.065,-0.040
156,0.060,-0.020
157,0.025,0.000
158,0.050,0.000
159,0.015,0.015
160,0.030,0.035
161,0.010,0.015
162,0.030,0.040
163,0.040,0.020
164,0.065,0.010
165,0.070,-0.005
166,0.095,-0.020
167,0.055,-0.030
168,0.070,-0.005
169,0.070,-0.060
170,0.100,-0.055
171,0.045,-0.060
172,0.065,-0.050
173,0.005,-0.055
174,0.020,-0.025
175,0.005,-0.050
176,0.000,-0.010
177,-0.050,0.000
178,-0.040,-0.015
179,-0.070,-0.010
180,-0.035,-0.035
181,-0.060,-0.040
182,-0.050,-0.065
183,-0.080,-0.065
184,-0.065,-0.050
185,-0.110,-0.040
186,-0.085,-0.045
187,-0.105,-0.045
188,-0.070,-0.065
189,-0.110,-0.060
190,-0.100,-0.055
191,-0.135,-0.050
192,-0.095,-0.050
193,-0.140,-0.035
194,-0.090,-0.030
195,-0.155,-0.050
196,-0.130,-0.055
197,-0.110,-0.100
198,-0.090,-0.065
199,-0.060,-0.055
200,0.005,-0.060
201,0.100,-0.105
202,0.160,-0.140
203,0.065,-0.140
204,-0.010,-0.095
205,-0.055,-0.100
206,-0.160,-0.060
207,-0.230,-0.075
208,-0.200,-0.110
209,-0.225,-0.115
210,-0.230,-0.085
211,-0.205,-0.100
212,-0.210,-0.070
213,-0.235,-0.015
214,-0.250,0.100
215,-0.110,0.000
216,0.665,-0.290
217,1.500,-0.825
218,0.690,-1.305
219,-0.605,-0.780
220,-0.655,-0.385
221,-0.455,-0.300
222,-0.340,-0.190
223,-0.325,-0.120
224,-0.300,-0.095
225,-0.345,-0.070
226,-0.325,-0.040
227,-0.360,0.000
228,-0.335,-0.015
229,-0.345,-0.050
230,-0.310,-0.050
231,-0.340,-0.005
232,-0.315,0.005
233,-0.315,-0.015
234,-0.290,-0.055
235,-0.315,-0.025
236,-0.290,0.000
237,-0.295,-0.030
238,-0.250,-0.025
239,-0.260,0.005
240,-0.210,-0.010
241,-0.215,-0.040
242,-0.165,-0.085
243,-0.135,-0.080
244,-0.100,-0.065
245,-0.115,-0.040
246,-0.065,-0.090
247,-0.025,-0.165
248,-0.035,-0.105
249,-0.030,-0.150
250,0.000,-0.135
251,-0.010,-0.185
252,0.020,-0.150
253,0.035,-0.110
254,0.090,-0.110
255,0.055,-0.135
256,0.000,-0.045
257,-0.075,0.040
258,-0.115,0.055
259,-0.125,-0.005
260,-0.170,-0.010
261,-0.160,-0.085
262,-0.160,-0.030
263,-0.170,-0.035
264,-0.190,0.060
265,-0.190,0.060
266,-0.160,0.060
267,-0.115,-0.100
268,-0.090,-0.050
269,-0.090,-0.010
270,-0.095,0.025
271,-0.075,0.070
272,-0.055,-0.010
273,-0.025,-0.105
274,-0.020,-0.105
275,-0.085,-0.010
276,-0.100,0.015
277,-0.090,0.045
278,-0.115,0.045
279,-0.095,-0.015
280,-0.075,-0.040
281,-0.090,0.000
282,-0.080,-0.035
283,-0.115,0.005
284,-0.120,0.050
285,-0.110,0.005
286,-0.090,0.005
287,-0.090,-0.020
288,-0.080,-0.025
289,-0.085,0.050
290,-0.100,0.050
291,-0.090,0.045
292,-0.105,0.020
293,-0.085,0.040
294,-0.085,0.065
295,-0.085,0.055
296,-0.130,0.125
297,-0.080,-0.010
298,-0.065,-0.010
299,-0.075,0.000
300,-0.130,0.050
301,-0.085,0.060
302,-0.045,0.045
303,0.000,0.075
304,0.090,0.060
305,0.190,0.025
306,0.165,0.000
307,0.065,0.040
308,-0.010,0.050
309,-0.015,0.015
310,-0.125,-0.015
311,-0.145,0.005
312,-0.165,0.010
313,-0.160,0.020
314,-0.165,0.065
315,-0.150,0.035
316,-0.165,0.000
317,-0.160,0.120
318,-0.180,0.265
319,0.100,0.005
320,1.015,-0.270
321,1.645,-1.040
322,0.375,-1.410
323,-0.685,-0.805
324,-0.545,-0.365
325,-0.325,-0.195
326,-0.290,-0.065
327,-0.250,0.015
328,-0.265,0.045
329,-0.250,0.095
330,-0.250,0.085
331,-0.240,0.080
332,-0.270,0.075
333,-0.255,0.085
334,-0.240,0.100
335,-0.245,0.090
336,-0.260,0.095
337,-0.240,0.115
338,-0.225,0.095
339,-0.225,0.110
340,-0.235,0.085
341,-0.210,0.090
342,-0.205,0.110
343,-0.180,0.100
344,-0.170,0.055
345,-0.100,0.055
346,-0.085,0.075
347,-0.060,0.045
348,-0.055,0.030
349,-0.015,-0.005
350,-0.010,-0.040
351,-0.010,-0.035
352,0.000,-0.055
353,0.040,-0.045
354,0.020,-0.060
355,0.025,-0.070
356,0.095,-0.095
357,0.105,-0.065
358,0.100,-0.040
359,0.025,-0.025
360,-0.020,-0.010
361,-0.045,0.000
362,-0.135,0.040
363,-0.150,0.035
364,-0.255,0.045
365,-0.190,0.075
366,-0.275,0.045
367,-0.245,0.065
368,-0.335,0.075
369,-0.295,0.045
370,-0.285,0.085
371,-0.225,0.075
372,-0.265,0.095
373,-0.230,0.070
374,-0.270,0.060
375,-0.265,0.060
376,-0.270,0.025
377,-0.260,0.035
378,-0.315,0.035
379,-0.285,0.010
380,-0.300,0.035
381,-0.310,0.010
382,-0.335,0.025
383,-0.340,0.025
384,-0.380,0.045
385,-0.350,0.020
386,-0.395,0.025
387,-0.405,0.000
388,-0.405,0.010
389,-0.385,0.020
390,-0.420,0.025
391,-0.365,0.015
392,-0.425,0.010
393,-0.410,0.020
394,-0.420,0.020
395,-0.420,0.015
396,-0.440,0.015
397,-0.425,0.010
398,-0.440,0.020
399,-0.420,0.040
400,-0.460,0.025
401,-0.485,0.005
402,-0.475,0.010
403,-0.455,0.020
404,-0.520,0.005
405,-0.430,0.000
406,-0.445,0.025
407,-0.305,0.020
408,-0.250,0.015
409,-0.200,-0.030
410,-0.330,-0.065
411,-0.370,-0.010
412,-0.395,-0.015
413,-0.470,0.000
414,-0.560,-0.010
415,-0.545,-0.005
416,-0.565,-0.020
417,-0.525,-0.025
418,-0.565,-0.010
419,-0.545,0.000
420,-0.575,0.050
421,-0.570,0.205
422,-0.335,0.020
423,0.560,-0.260
424,1.110,-0.970
425,-0.250,-1.340
426,-1.140,-0.650
427,-0.875,-0.290
428,-0.690,-0.165
429,-0.660,-0.080
430,-0.695,-0.010
431,-0.690,-0.005
432,-0.680,0.015
433,-0.665,0.020
434,-0.700,0.015
435,-0.700,0.015
436,-0.690,0.020
437,-0.685,0.035
438,-0.715,0.025
439,-0.690,0.015
440,-0.685,0.020
441,-0.670,0.020
442,-0.650,0.010
443,-0.675,0.035
444,-0.670,0.010
445,-0.655,0.020
446,-0.645,0.000
447,-0.610,0.000
448,-0.605,-0.020
449,-0.595,-0.055
450,-0.570,-0.025
451,-0.520,-0.060
452,-0.535,-0.085
453,-0.500,-0.090
454,-0.490,-0.105
455,-0.480,-0.135
456,-0.500,-0.115
457,-0.470,-0.135
458,-0.430,-0.125
459,-0.370,-0.135
460,-0.370,-0.145
461,-0.335,-0.105
462,-0.395,-0.105
463,-0.480,-0.080
464,-0.490,-0.065
465,-0.520,-0.070
466,-0.560,-0.040
467,-0.560,-0.040
468,-0.495,-0.035
469,-0.545,-0.010
470,-0.690,0.015
471,-0.640,0.020
472,-0.470,-0.040
473,-0.450,-0.025
474,-0.455,-0.035
475,-0.540,-0.025
476,-0.305,-0.040
477,-0.140,-0.105
478,-0.375,-0.105
479,-0.625,-0.055
480,-0.665,0.000
481,-0.570,-0.015
482,-0.525,-0.025
483,-0.675,-0.005
484,-0.575,0.000
485,-0.660,0.020
486,-0.620,-0.005
487,-0.625,0.000
488,-0.625,0.000
489,-0.580,-0.015
490,-0.680,0.005
491,-0.655,0.010
492,-0.665,0.025
493,-0.635,0.005
494,-0.550,-0.015
495,-0.635,0.025
496,-0.590,0.040
497,-0.530,0.005
498,-0.560,0.000
499,-0.715,0.040
500,-0.610,0.030
501,-0.600,0.020
502,-0.605,0.010
503,-0.500,-0.010
504,-0.625,0.040
505,-0.780,0.050
506,-0.745,0.065
507,-0.740,0.045
508,-0.725,0.050
509,-0.545,0.020
510,-0.525,0.060
511,-0.395,0.055
512,-0.405,0.000
513,-0.505,0.000
514,-0.505,0.015
515,-0.540,0.035
516,-0.580,0.025
517,-0.680,0.030
518,-0.575,0.000
519,-0.490,-0.035
520,-0.710,0.020
521,-0.750,0.050
522,-0.720,0.045
523,-0.755,0.110
524,-0.740,0.230
525,-0.230,0.000
526,0.865,-0.260
527,0.915,-0.880
528,-0.595,-1.080
529,-1.055,-0.575
530,-0.770,-0.225
531,-0.985,-0.060
532,-0.875,0.060
533,-0.815,0.000
534,-0.735,0.045
535,-0.755,0.030
536,-0.675,0.025
537,-0.810,0.065
538,-0.690,0.060
539,-0.605,0.030
540,-0.715,0.060
541,-0.770,0.075
542,-0.755,0.090
543,-0.765,0.100
544,-0.785,0.085
545,-0.790,0.140
546,-0.615,0.170
547,-0.580,0.065
548,-0.740,0.205
549,-0.655,0.160
550,-0.600,0.030
551,-0.645,0.010
552,-0.560,0.000
553,-0.505,0.005
554,-0.640,0.040
555,-0.560,0.045
556,-0.370,0.010
557,-0.440,-0.020
558,-0.585,0.025
559,-0.500,0.010
560,-0.440,0.005
561,-0.325,-0.005
562,-0.185,-0.025
563,-0.360,0.010
564,-0.345,0.060
565,-0.375,0.055
566,-0.355,0.055
567,-0.470,0.070
568,-0.630,0.185
569,-0.570,0.130
570,-0.570,0.095
571,-0.555,0.130
572,-0.490,0.140
573,-0.515,0.130
574,-0.490,0.110
575,-0.480,0.110
576,-0.430,0.140
577,-0.430,0.125
578,-0.405,0.090
579,-0.275,0.095
580,-0.445,0.115
581,-0.410,0.100
582,-0.370,0.055
583,-0.390,0.080
584,-0.455,0.105
585,-0.375,0.095
586,-0.415,0.110
587,-0.520,0.105
588,-0.430,0.105
589,-0.405,0.140
590,-0.375,0.125
591,-0.570,0.070
592,-0.550,0.110
593,-0.465,0.115
594,-0.475,0.065
595,-0.440,0.105
596,-0.410,0.085
597,-0.380,0.090
598,-0.475,0.085
599,-0.455,0.155
600,-0.490,0.105
601,-0.395,0.100
602,-0.305,0.055
603,-0.395,0.110
604,-0.600,0.160
605,-0.460,0.155
606,-0.440,0.120
607,-0.450,0.080
608,-0.345,0.085
609,-0.400,0.105
610,-0.445,0.055
611,-0.420,0.095
612,-0.380,0.105
613,-0.200,0.120
614,-0.150,0.080
615,-0.140,0.025
616,-0.245,0.065
617,-0.250,0.105
618,-0.255,0.120
619,-0.460,0.135
620,-0.550,0.130
621,-0.450,0.110
622,-0.435,0.110
623,-0.460,0.115
624,-0.510,0.145
625,-0.455,0.145
626,-0.430,0.235
627,-0.330,0.300
628,0.330,0.015
629,1.230,-0.245
630,0.770,-0.925
631,-0.580,-1.040
632,-1.030,-0.530
633,-0.680,-0.130
634,-0.535,0.010
635,-0.505,0.105
636,-0.605,0.135
637,-0.555,0.165
638,-0.565,0.165
639,-0.510,0.180
640,-0.425,0.200
641,-0.520,0.205
642,-0.560,0.165
643,-0.555,0.165
644,-0.565,0.185
645,-0.465,0.245
646,-0.640,0.185
647,-0.695,0.200
648,-0.665,0.200
649,-0.480,0.195
650,-0.465,0.190
651,-0.580,0.180
652,-0.535,0.160
653,-0.545,0.220
654,-0.565,0.185
655,-0.420,0.150
656,-0.525,0.160
657,-0.435,0.235
658,-0.440,0.200
659,-0.355,0.050
660,-0.275,0.000
661,-0.330,-0.035
662,-0.420,-0.010
663,-0.295,-0.005
664,-0.345,0.025
665,-0.320,0.065
666,-0.305,0.025
667,-0.290,0.065
668,-0.285,0.100
669,-0.335,0.115
670,-0.405,0.120
671,-0.385,0.145
672,-0.415,0.235
673,-0.450,0.160
674,-0.435,0.205
675,-0.335,0.135
676,-0.185,0.060
677,-0.505,0.165
678,-0.305,0.115
679,-0.490,0.210
680,-0.370,0.180
681,-0.450,0.165
682,-0.310,0.085
683,-0.550,0.165
684,-0.705,0.220
685,-0.530,0.210
686,-0.505,0.120
687,-0.455,0.165
688,-0.445,0.150
689,-0.455,0.180
690,-0.475,0.130
691,-0.455,0.190
692,-0.480,0.150
693,-0.445,0.105
694,-0.465,0.125
695,-0.505,0.195
696,-0.485,0.105
697,-0.460,0.130
698,-0.495,0.175
699,-0.470,0.185
700,-0.450,0.170
701,-0.455,0.070
702,-0.305,0.085
703,-0.405,0.165
704,-0.430,0.075
705,-0.370,0.200
706,-0.325,0.025
707,-0.485,-0.020
708,-0.405,0.000
709,-0.675,0.050
710,-0.545,0.015
711,-0.640,0.095
712,-0.600,0.155
713,-0.465,0.125
714,-0.530,0.155
715,-0.445,0.205
716,-0.380,0.175
717,-0.260,0.105
718,-0.345,0.255
719,-0.400,0.275
720,-0.395,-0.010
721,-0.490,0.000
722,-0.575,0.030
723,-0.520,0.050
724,-0.405,0.050
725,-0.635,0.095
726,-0.575,0.055
727,-0.500,0.075
728,-0.500,0.100
729,-0.575,0.185
730,-0.465,0.235
731,0.375,-0.055
732,0.970,-0.400
733,0.185,-1.010
734,-0.895,-0.620
735,-0.880,-0.205
736,-0.625,-0.050
737,-0.600,0.050
738,-0.630,0.110
739,-0.595,0.135
740,-0.560,0.155
741,-0.555,0.145
742,-0.550,0.160
743,-0.510,0.175
744,-0.535,0.175
745,-0.580,0.185
746,-0.540,0.165
747,-0.480,0.165
748,-0.455,0.185
749,-0.525,0.170
750,-0.270,0.140
751,-0.345,0.160
752,-0.640,0.205
753,-0.365,0.175
754,-0.365,0.170
755,-0.345,0.225
756,-0.335,0.205
757,-0.425,0.150
758,-0.450,0.160
759,-0.210,0.130
760,-0.200,0.100
761,-0.225,0.065
762,-0.440,0.130
763,-0.245,0.080
764,-0.290,0.090
765,0.110,0.025
766,-0.360,0.085
767,0.025,0.040
768,0.285,-0.005
769,-0.530,0.125
770,-0.160,0.150
771,-0.205,0.145
772,-0.300,0.165
773,-0.330,0.155
774,-0.145,0.135
775,-0.165,0.150
776,-0.285,0.160
777,-0.285,0.175
778,-0.175,0.175
779,-0.085,0.140
780,-0.110,0.160
781,-0.195,0.180
782,-0.220,0.210
783,0.135,0.155
784,0.355,0.040
785,-0.365,0.175
786,-0.135,0.185
787,-0.220,0.205
788,0.020,0.130
789,-0.240,0.050
790,-0.160,0.090
791,0.095,0.105
792,-0.130,0.170
793,-0.180,0.115
794,-0.075,0.070
795,-0.195,0.100
796,-0.120,0.125
797,-0.065,0.125
798,-0.230,0.145
799,0.015,0.095
800,-0.140,0.110
801,-0.075,0.085
802,-0.225,0.120
803,-0.210,0.125
804,-0.160,0.235
805,-0.125,0.095
806,-0.175,0.095
807,-0.050,0.105
808,-0.155,0.085
809,-0.155,0.095
810,-0.150,0.110
811,-0.175,0.095
812,-0.080,0.110
813,-0.065,0.100
814,-0.020,0.095
815,-0.080,0.095
816,-0.025,0.105
817,-0.025,0.110
818,0.045,0.130
819,0.195,0.095
820,0.250,0.055
821,0.180,0.035
822,0.220,0.050
823,0.120,0.085
824,-0.045,0.100
825,-0.030,0.105
826,0.060,0.090
827,0.005,0.080
828,-0.110,0.120
829,-0.090,0.125
830,0.000,0.150
831,0.000,0.080
832,0.005,0.260
833,0.045,0.245
834,0.685,0.000
835,1.715,-0.440
836,1.215,-1.175
837,-0.195,-0.920
838,-0.390,-0.495
839,-0.135,-0.200
840,-0.025,-0.020
841,-0.010,0.045
842,-0.030,0.085
843,0.000,0.115
844,-0.015,0.115
845,-0.020,0.115
846,0.020,0.150
847,0.020,0.150
848,-0.010,0.150
849,-0.005,0.125
850,0.010,0.130
851,-0.025,0.190
852,-0.040,0.180
853,0.025,0.050
854,0.050,0.085
855,0.010,0.100
856,0.025,0.115
857,0.020,0.160
858,0.065,0.060
859,0.075,0.145
860,0.140,0.065
861,0.115,0.030
862,0.120,0.045
863,0.175,0.015
864,0.170,-0.020
865,0.225,-0.005
866,0.185,-0.005
867,0.125,0.000
868,0.195,0.035
869,0.245,0.210
870,0.250,-0.030
871,0.255,-0.185
872,0.285,-0.160
873,0.295,-0.015
874,0.300,0.000
875,0.250,0.010
876,0.225,0.030
877,0.120,0.060
878,0.140,0.060
879,0.110,0.070
880,0.135,0.070
881,0.105,0.100
882,0.150,0.095
883,0.140,0.105
884,0.150,0.125
885,0.155,0.130
886,0.170,0.015
887,0.175,0.005
888,0.175,0.045
889,0.175,0.090
890,0.170,0.030
891,0.170,-0.010
892,0.150,-0.025
893,0.130,0.030
894,0.140,0.015
895,0.140,0.020
896,0.110,0.050
897,0.095,0.040
898,0.085,0.055
899,0.090,0.035
900,0.070,0.030
901,0.030,0.030
902,0.060,0.045
903,0.030,0.010
904,0.040,0.030
905,0.050,0.050
906,0.015,0.050
907,0.050,0.030
908,0.055,0.040
909,0.025,0.045
910,0.025,0.015
911,0.000,0.035
912,-0.005,0.005
913,-0.005,0.025
914,-0.005,0.025
915,-0.025,0.060
916,0.005,0.050
917,-0.010,0.065
918,0.030,0.160
919,0.080,0.025
920,0.225,-0.060
921,0.280,0.030
922,0.255,0.005
923,0.180,-0.060
924,0.095,-0.045
925,0.075,0.000
926,-0.015,0.030
927,-0.050,0.000
928,-0.060,0.010
929,-0.065,0.035
930,-0.045,0.010
931,-0.075,0.010
932,-0.050,0.000
933,-0.050,0.060
934,-0.040,0.145
935,0.485,-0.095
936,1.445,-0.345
937,1.395,-1.005
938,-0.145,-0.960
939,-0.530,-0.335
940,-0.235,-0.200
941,-0.100,-0.095
942,-0.115,-0.010
943,-0.145,0.000
944,-0.140,0.005
945,-0.165,0.030
946,-0.120,0.015
947,-0.120,0.035
948,-0.125,0.030
949,-0.105,0.065
950,-0.080,0.045
951,-0.170,0.065
952,-0.165,0.210
953,-0.070,0.000
954,-0.110,-0.080
955,-0.070,0.000
956,-0.100,0.010
957,0.090,-0.020
958,-0.030,-0.020
959,-0.225,0.010
960,-0.105,-0.015
961,-0.045,0.000
962,0.000,0.000
963,0.000,-0.015
964,0.060,-0.020
965,0.065,-0.045
966,0.060,-0.035
967,0.080,-0.030
968,0.085,-0.045
969,0.075,-0.035
970,0.100,-0.080
971,0.170,-0.030
972,0.190,0.045
973,0.205,0.110
974,0.330,-0.140
975,0.440,-0.155
976,0.190,0.045
977,0.425,0.055
978,0.265,0.010
979,-0.290,0.040
980,0.050,-0.125
981,0.000,0.000
982,-0.255,0.100
983,0.040,-0.005
984,-0.095,0.040
985,-0.035,0.070
986,0.035,-0.020
987,0.085,-0.010
988,0.080,-0.010
989,0.110,0.005
990,0.190,-0.005
991,0.135,0.000
992,0.120,0.015
993,0.335,0.025
994,0.110,0.140
995,0.050,0.035
996,0.260,-0.070
997,0.090,0.000
998,-0.220,0.090
999,-0.120,0.045
1000,0.090,-0.160
1001,-0.130,0.015
1002,-0.080,0.125
1003,0.080,-0.005
1004,-0.075,-0.005
1005,-0.035,-0.025
1006,0.055,0.125
1007,0.045,-0.160
1008,-0.020,-0.105
1009,0.000,0.030
1010,-0.125,0.050
1011,-0.095,0.045
1012,-0.125,0.060
1013,-0.110,-0.025
1014,0.000,0.140
1015,0.030,0.105
1016,-0.015,-0.070
1017,-0.080,-0.070
1018,-0.030,-0.025
1019,0.150,-0.055
1020,0.205,0.000
1021,0.075,0.050
1022,0.125,0.035
1023,0.180,-0.075
1024,0.175,0.050
1025,0.000,0.030
1026,0.000,0.050
1027,0.015,-0.040
1028,0.005,0.085
1029,0.015,0.110
1030,-0.025,-0.090
1031,-0.225,-0.025
1032,-0.025,0.000
1033,0.000,0.100
1034,0.070,0.165
1035,0.545,0.005
1036,1.215,-0.200
1037,1.615,-0.940
1038,0.220,-1.055
1039,-0.695,-0.520
1040,-0.290,-0.250
1041,-0.075,-0.140
1042,-0.110,0.000
1043,-0.185,0.060
1044,-0.130,0.075
1045,-0.070,0.010
1046,-0.010,0.095
1047,-0.100,0.135
1048,-0.170,-0.010
1049,-0.025,0.060
1050,0.055,0.140
1051,0.025,-0.080
1052,0.180,0.065
1053,-0.200,0.075
1054,-0.155,0.055
1055,-0.185,0.195
1056,0.005,-0.045
1057,0.045,0.045
1058,-0.050,0.160
1059,0.040,-0.040
1060,0.125,-0.100
1061,0.160,0.020
1062,-0.035,0.115
1063,0.120,-0.085
1064,0.285,0.095
1065,0.160,0.030
1066,0.170,-0.055
1067,0.140,-0.005
1068,0.220,0.015
1069,0.410,-0.150
1070,0.680,-0.205
1071,0.280,0.105
1072,0.365,-0.020
1073,0.585,-0.195
1074,0.155,-0.045
1075,0.440,-0.210
1076,0.070,-0.045
1077,0.075,0.060
1078,0.160,-0.070
1079,0.155,0.065
1080,0.005,0.055
1081,0.085,0.120
1082,0.205,0.130
1083,0.180,-0.120
1084,0.185,-0.055
1085,0.220,-0.060
1086,0.340,-0.015
1087,0.495,-0.095
1088,0.430,0.065
1089,0.450,-0.190
1090,0.205,0.050
1091,0.120,-0.020
1092,0.240,-0.030
1093,0.315,-0.155
1094,0.240,0.030
1095,0.280,-0.165
1096,0.535,-0.180
1097,0.560,-0.115
1098,0.020,0.070
1099,0.375,0.000
1100,0.160,-0.135
1101,0.010,-0.050
1102,0.070,-0.075
1103,0.210,-0.160
1104,0.260,-0.055
1105,0.460,-0.155
1106,0.025,0.065
1107,0.015,0.040
1108,0.200,0.020
1109,0.185,-0.230
1110,0.065,-0.160
1111,0.045,-0.105
1112,0.080,-0.025
1113,0.150,-0.070
1114,0.315,-0.100
1115,0.165,-0.080
1116,0.000,-0.105
1117,0.235,-0.005
1118,0.070,0.100
1119,0.215,-0.195
1120,0.220,-0.040
1121,0.455,-0.180
1122,0.255,0.000
1123,0.215,-0.010
1124,0.295,-0.250
1125,0.065,0.005
1126,0.240,-0.210
1127,-0.200,-0.035
1128,-0.035,-0.065
1129,0.115,-0.215
1130,0.155,-0.175
1131,0.100,-0.065
1132,-0.055,-0.020
1133,0.050,0.145
1134,0.200,0.195
1135,0.745,-0.215
1136,1.570,-0.570
1137,0.595,-1.225
1138,-0.520,-0.835
1139,-0.500,-0.340
1140,-0.145,-0.255
1141,0.095,-0.190
1142,-0.200,-0.015
1143,-0.225,0.105
1144,-0.090,0.000
1145,-0.030,-0.065
1146,0.020,-0.145
1147,0.140,-0.120
1148,-0.185,-0.080
1149,-0.115,0.000
1150,-0.195,0.105
1151,-0.170,-0.110
1152,-0.025,-0.055
1153,-0.190,-0.035
1154,-0.200,-0.040
1155,-0.225,0.225
1156,-0.180,-0.130
1157,-0.130,-0.130
1158,-0.030,-0.095
1159,0.245,-0.105
1160,-0.090,-0.060
1161,-0.165,0.080
1162,-0.135,-0.105
1163,-0.120,-0.030
1164,-0.050,0.075
1165,0.075,-0.065
1166,0.120,-0.225
1167,-0.030,-0.080
1168,-0.035,-0.155
1169,-0.035,-0.100
1170,0.055,-0.145
1171,0.055,-0.115
1172,0.175,-0.110
1173,0.065,-0.025
1174,0.190,-0.125
1175,0.000,-0.075
1176,0.005,-0.010
1177,-0.080,0.020
1178,-0.075,-0.055
1179,-0.105,-0.040
1180,-0.050,-0.020
1181,-0.180,0.005
1182,-0.230,0.020
1183,-0.250,0.030
1184,-0.105,0.055
1185,-0.090,0.100
1186,-0.140,0.015
1187,-0.035,-0.030
1188,0.040,0.000
1189,-0.060,-0.040
1190,-0.070,-0.060
1191,-0.160,0.015
1192,-0.115,0.020
1193,-0.060,0.115
1194,-0.185,-0.095
1195,-0.365,0.100
1196,-0.035,0.055
1197,-0.255,0.000
1198,-0.215,-0.075
1199,-0.210,0.050
1200,-0.315,0.080
1201,-0.205,0.040
1202,-0.160,-0.055
1203,-0.055,0.005
1204,-0.380,0.080
1205,-0.185,0.070
1206,-0.215,0.025
1207,-0.375,0.085
1208,-0.440,0.095
1209,-0.290,0.045
1210,-0.210,0.020
1211,-0.160,0.105
1212,-0.250,0.025
1213,-0.175,0.090
1214,-0.425,0.045
1215,-0.355,0.110
1216,-0.225,0.010
1217,-0.225,0.045
1218,-0.005,0.080
1219,-0.080,0.055
1220,0.045,0.075
1221,0.020,0.000
1222,-0.155,-0.005
1223,-0.175,0.085
1224,-0.190,0.015
1225,-0.255,0.105
1226,-0.240,0.055
1227,-0.210,0.005
1228,-0.175,0.040
1229,-0.335,0.090
1230,-0.305,0.050
1231,-0.335,0.085
1232,-0.135,0.085
1233,-0.345,0.200
1234,0.150,-0.015
1235,1.130,-0.255
1236,1.215,-0.950
1237,-0.280,-0.845
1238,-0.640,-0.340
1239,-0.505,-0.065
1240,-0.280,0.010
1241,-0.280,-0.050
1242,-0.290,0.055
1243,-0.325,0.110
1244,-0.345,0.135
1245,-0.340,0.100
1246,-0.240,0.175
1247,-0.265,0.130
1248,-0.215,0.120
1249,-0.345,0.105
1250,-0.295,0.085
1251,-0.175,0.125
1252,-0.285,0.100
1253,-0.250,0.130
1254,-0.255,0.140
1255,-0.215,0.110
1256,-0.150,0.125
1257,-0.040,0.105
1258,-0.195,0.140
1259,-0.130,0.125
1260,-0.095,0.105
1261,-0.015,0.110
1262,-0.075,0.130
1263,-0.160,0.115
1264,0.015,0.110
1265,0.075,0.045
1266,-0.080,0.060
1267,-0.010,0.055
1268,0.095,0.050
1269,0.055,0.070
1270,0.075,0.065
1271,0.235,0.065
1272,0.250,0.050
1273,0.045,0.110
1274,0.110,0.075
1275,0.035,0.120
1276,-0.025,0.135
1277,-0.010,0.135
1278,-0.185,0.195
1279,-0.105,0.180
1280,0.035,0.190
1281,-0.150,0.215
1282,0.015,0.190
1283,0.015,0.200
1284,-0.025,0.185
1285,-0.105,0.180
1286,-0.140,0.205
1287,-0.045,0.200
1288,0.095,0.160
1289,0.090,0.150
1290,0.030,0.180
1291,0.075,0.140
1292,-0.005,0.170
1293,-0.005,0.190
1294,-0.040,0.175
1295,-0.135,0.190
1296,-0.115,0.230
1297,-0.075,0.215
1298,-0.035,0.220
1299,-0.030,0.180
1300,-0.075,0.220
1301,-0.100,0.220
1302,-0.095,0.230
1303,-0.105,0.195
1304,-0.045,0.205
1305,-0.165,0.250
1306,0.015,0.200
1307,-0.140,0.230
1308,0.000,0.220
1309,-0.185,0.235
1310,-0.135,0.255
1311,-0.195,0.240
1312,-0.050,0.245
1313,-0.055,0.220
1314,-0.200,0.240
1315,-0.260,0.270
1316,-0.140,0.235
1317,-0.145,0.265
1318,-0.035,0.285
1319,0.140,0.245
1320,0.120,0.230
1321,0.100,0.175
1322,0.180,0.205
1323,-0.080,0.245
1324,-0.145,0.300
1325,-0.210,0.260
1326,-0.180,0.295
1327,-0.255,0.285
1328,-0.130,0.270
1329,-0.180,0.260
1330,-0.125,0.275
1331,-0.290,0.290
1332,-0.270,0.395
1333,-0.200,0.480
1334,0.205,0.220
1335,1.060,-0.145
1336,1.310,-1.000
1337,-0.120,-1.035
1338,-0.810,-0.305
1339,-0.610,0.035
1340,-0.275,0.135
1341,-0.425,0.230
1342,-0.345,0.280
1343,-0.435,0.270
1344,-0.475,0.300
1345,-0.240,0.280
1346,-0.250,0.245
1347,-0.660,0.280
1348,-0.315,0.255
1349,-0.555,0.305
1350,-0.485,0.245
1351,-0.405,0.235
1352,-0.530,0.240
1353,-0.295,0.215
1354,-0.445,0.265
1355,-0.495,0.260
1356,-0.555,0.245
1357,-0.415,0.220
1358,-0.485,0.235
1359,-0.295,0.175
1360,-0.300,0.135
1361,-0.335,0.165
1362,-0.410,0.155
1363,-0.380,0.115
1364,-0.165,0.085
1365,-0.485,0.110
1366,-0.280,0.065
1367,-0.315,0.035
1368,-0.205,0.020
1369,-0.385,0.030
1370,-0.255,0.045
1371,-0.125,-0.015
1372,-0.160,0.000
1373,-0.330,0.035
1374,-0.190,0.020
1375,-0.395,0.050
1376,-0.275,0.060
1377,-0.495,0.105
1378,-0.450,0.090
1379,-0.335,0.085
1380,-0.535,0.080
1381,-0.300,0.070
1382,-0.375,0.045
1383,-0.510,0.095
1384,-0.400,0.060
1385,-0.325,0.075
1386,-0.460,0.070
1387,-0.500,0.055
1388,-0.395,0.065
1389,-0.400,0.030
1390,-0.475,0.030
1391,-0.335,0.015
1392,-0.330,0.005
1393,-0.455,0.010
1394,-0.405,0.000
1395,-0.325,0.005
1396,-0.390,-0.010
1397,-0.420,0.005
1398,-0.450,0.015
1399,-0.345,0.010
1400,-0.475,0.030
1401,-0.445,-0.005
1402,-0.345,0.005
1403,-0.365,0.005
1404,-0.465,0.020
1405,-0.360,0.005
1406,-0.335,-0.005
1407,-0.290,-0.020
1408,-0.605,0.030
1409,-0.385,0.015
1410,-0.505,0.010
1411,-0.400,0.000
1412,-0.460,0.035
1413,-0.375,-0.010
1414,-0.350,0.000
1415,-0.405,0.005
1416,-0.270,-0.015
1417,-0.335,0.015
1418,-0.105,0.000
1419,-0.085,0.000
1420,-0.035,-0.065
1421,-0.125,-0.060
1422,-0.335,0.000
1423,-0.290,0.005
1424,-0.370,0.005
1425,-0.350,-0.010
1426,-0.355,0.000
1427,-0.245,-0.015
1428,-0.425,0.000
1429,-0.335,0.005
1430,-0.330,-0.005
1431,-0.315,0.095
1432,-0.370,0.200
1433,0.285,-0.060
1434,1.360,-0.375
1435,1.270,-1.100
1436,-0.210,-0.995
1437,-0.760,-0.450
1438,-0.535,-0.200
1439,-0.310,-0.120
1440,-0.280,-0.025
1441,-0.290,0.000
1442,-0.280,0.015
1443,-0.210,0.015
1444,-0.200,0.020
1445,-0.275,0.040
1446,-0.300,0.045
1447,-0.250,0.045
1448,-0.150,0.040
1449,-0.235,0.055
1450,-0.190,0.055
1451,-0.170,0.040
1452,-0.145,0.025
1453,-0.175,0.045
1454,-0.120,0.030
1455,-0.115,0.040
1456,-0.025,0.030
1457,0.000,0.020
1458,0.030,0.010
1459,0.070,0.005
1460,0.065,0.000
1461,0.070,-0.010
1462,0.000,0.000
1463,0.100,-0.010
1464,0.115,-0.015
1465,0.130,-0.040
1466,0.200,-0.055
1467,0.160,-0.045
1468,0.220,-0.050
1469,0.265,-0.070
1470,0.340,-0.050
1471,0.365,-0.060
1472,0.355,-0.050
1473,0.300,-0.030
1474,0.280,-0.015
1475,0.315,-0.005
1476,0.010,0.050
1477,0.100,0.030
1478,0.245,0.010
1479,0.070,0.045
1480,0.080,0.065
1481,0.105,0.060
1482,0.125,0.050
1483,0.165,0.045
1484,0.230,0.020
1485,0.235,0.000
1486,0.250,0.005
1487,0.235,0.005
1488,0.310,-0.005
1489,0.300,-0.015
1490,0.235,-0.010
1491,0.325,-0.015
1492,0.360,-0.005
1493,0.200,-0.005
1494,0.190,0.010
1495,0.125,0.030
1496,0.205,0.025
1497,0.250,0.000
1498,0.225,0.020
1499,0.175,0.020
1500,0.225,0.025
1501,0.215,0.025
1502,0.235,0.015
1503,0.220,0.030
1504,0.235,0.020
1505,0.195,0.010
1506,0.255,0.025
1507,0.265,0.015
1508,0.195,0.015
1509,0.150,0.030
1510,0.240,0.030
1511,0.220,0.010
1512,0.205,0.010
1513,0.200,0.025
1514,0.205,0.010
1515,0.230,0.000
1516,0.310,0.040
1517,0.375,0.015
1518,0.510,0.020
1519,0.545,-0.010
1520,0.560,-0.050
1521,0.390,-0.010
1522,0.380,0.005
1523,0.265,0.020
1524,0.205,0.015
1525,0.220,-0.005
1526,0.200,0.015
1527,0.190,0.000
1528,0.245,0.000
1529,0.250,0.005
1530,0.190,0.035
1531,0.115,0.175
1532,0.260,0.135
1533,0.980,-0.190
1534,1.905,-0.730
1535,1.360,-1.385
1536,-0.130,-0.850
1537,-0.225,-0.415
1538,-0.035,-0.230
1539,0.045,-0.085
1540,0.135,-0.020
1541,0.115,0.010
1542,0.105,0.050
1543,0.105,0.045
1544,0.135,0.060
1545,0.145,0.055
1546,0.090,0.075
1547,0.090,0.085
1548,0.120,0.075
1549,0.180,0.075
1550,0.220,0.080
1551,0.075,0.095
1552,0.130,0.100
1553,0.180,0.070
1554,0.295,0.075
1555,0.225,0.070
1556,0.155,0.075
1557,0.225,0.080
1558,0.250,0.085
1559,0.305,0.040
1560,0.350,0.025
1561,0.340,0.000
1562,0.385,0.010
1563,0.410,-0.010
1564,0.450,-0.025
1565,0.435,-0.030
1566,0.470,-0.020
1567,0.480,-0.045
1568,0.565,-0.050
1569,0.565,-0.060
1570,0.585,-0.040
1571,0.595,-0.060
1572,0.525,-0.025
1573,0.435,-0.010
1574,0.380,0.000
1575,0.360,0.010
1576,0.310,0.030
1577,0.270,0.025
1578,0.270,0.050
1579,0.255,0.055
1580,0.265,0.065
1581,0.325,0.055
1582,0.405,0.055
1583,0.285,0.060
1584,0.300,0.030
1585,0.375,0.000
1586,0.355,0.010
1587,0.315,0.005
1588,0.325,0.000
1589,0.305,-0.005
1590,0.305,-0.010
1591,0.260,-0.035
1592,0.305,-0.020
1593,0.230,-0.025
1594,0.245,-0.040
1595,0.220,-0.030
1596,0.220,-0.025
1597,0.145,-0.020
1598,0.245,-0.015
1599,0.105,-0.005
1600,0.095,-0.005
1601,0.050,-0.025
1602,0.085,-0.015
1603,0.075,-0.015
1604,0.095,-0.040
1605,0.030,-0.010
1606,0.045,-0.020
1607,0.035,-0.030
1608,0.055,-0.030
1609,-0.005,-0.035
1610,0.015,-0.025
1611,0.000,-0.035
1612,0.005,-0.045
1613,-0.005,-0.050
1614,-0.015,-0.045
1615,0.025,-0.045
1616,0.085,-0.040
1617,0.170,-0.045
1618,0.210,-0.035
1619,0.200,-0.095
1620,0.205,-0.125
1621,0.000,-0.075
1622,0.015,-0.060
1623,-0.110,-0.040
1624,-0.155,-0.055
1625,-0.145,-0.045
1626,-0.130,-0.070
1627,-0.190,-0.080
1628,-0.070,-0.085
1629,-0.185,-0.045
1630,-0.160,0.005
1631,-0.235,0.155
1632,0.075,-0.070
1633,0.995,-0.405
1634,1.500,-1.100
1635,0.190,-1.300
1636,-0.755,-0.620
1637,-0.595,-0.320
1638,-0.340,-0.210
1639,-0.300,-0.120
1640,-0.260,-0.065
1641,-0.345,-0.050
1642,-0.340,-0.030
1643,-0.395,-0.035
1644,-0.365,-0.025
1645,-0.380,-0.040
1646,-0.335,-0.025
1647,-0.315,-0.050
1648,-0.365,-0.025
1649,-0.350,-0.035
1650,-0.375,-0.015
1651,-0.405,-0.010
1652,-0.370,-0.030
1653,-0.395,-0.030
1654,-0.350,-0.025
1655,-0.310,-0.050
1656,-0.315,-0.025
1657,-0.330,-0.045
1658,-0.225,-0.070
1659,-0.295,-0.060
1660,-0.275,-0.070
1661,-0.235,-0.085
1662,-0.245,-0.105
1663,-0.210,-0.125
1664,-0.200,-0.130
1665,-0.190,-0.130
1666,-0.210,-0.120
1667,-0.190,-0.140
1668,-0.160,-0.150
1669,-0.075,-0.170
1670,-0.050,-0.135
1671,-0.145,-0.135
1672,-0.150,-0.120
1673,-0.215,-0.100
1674,-0.180,-0.105
1675,-0.280,-0.085
1676,-0.305,-0.060
1677,-0.350,-0.060
1678,-0.340,-0.045
1679,-0.375,-0.040
1680,-0.320,-0.030
1681,-0.360,-0.030
1682,-0.295,-0.040
1683,-0.260,-0.040
1684,-0.265,-0.050
1685,-0.275,-0.050
1686,-0.210,-0.070
1687,-0.275,-0.075
1688,-0.255,-0.060
1689,-0.195,-0.085
1690,-0.215,-0.095
1691,-0.275,-0.070
1692,-0.270,-0.055
1693,-0.255,-0.075
1694,-0.225,-0.080
1695,-0.285,-0.070
1696,-0.305,-0.080
1697,-0.275,-0.075
1698,-0.320,-0.075
1699,-0.335,-0.055
1700,-0.325,-0.060
1701,-0.325,-0.075
1702,-0.295,-0.065
1703,-0.345,-0.070
1704,-0.310,-0.060
1705,-0.340,-0.075
1706,-0.345,-0.040
1707,-0.330,-0.060
1708,-0.290,-0.070
1709,-0.315,-0.055
1710,-0.315,-0.060
1711,-0.285,-0.055
1712,-0.255,-0.060
1713,-0.310,-0.050
1714,-0.270,-0.075
1715,-0.225,-0.070
1716,-0.190,-0.030
1717,-0.165,-0.030
1718,-0.010,-0.040
1719,-0.005,-0.070
1720,-0.055,-0.075
1721,-0.120,-0.075
1722,-0.115,-0.050
1723,-0.220,-0.040
1724,-0.265,-0.030
1725,-0.245,-0.065
1726,-0.300,-0.035
1727,-0.305,-0.055
1728,-0.275,-0.040
1729,-0.280,-0.015
1730,-0.235,-0.020
1731,-0.225,0.070
1732,-0.205,0.120
1733,0.515,-0.150
1734,1.565,-0.525
1735,1.275,-1.165
1736,-0.240,-0.945
1737,-0.735,-0.475
1738,-0.485,-0.250
1739,-0.370,-0.155
1740,-0.330,-0.065
1741,-0.350,-0.015
1742,-0.300,-0.005
1743,-0.290,0.000
1744,-0.320,0.015
1745,-0.280,0.000
1746,-0.300,0.000
1747,-0.280,0.005
1748,-0.360,0.045
1749,-0.340,0.045
1750,-0.260,0.040
1751,-0.250,0.010
1752,-0.310,0.030
1753,-0.315,0.050
1754,-0.250,0.035
1755,-0.265,0.035
1756,-0.230,0.045
1757,-0.265,0.035
1758,-0.210,0.035
1759,-0.185,0.010
1760,-0.170,0.020
1761,-0.135,0.005
1762,-0.110,-0.005
1763,-0.095,-0.025
1764,-0.025,-0.035
1765,-0.105,-0.035
1766,-0.050,-0.040
1767,-0.025,-0.045
1768,0.020,-0.040
1769,0.060,-0.075
1770,0.015,-0.035
1771,0.065,-0.030
1772,0.115,-0.025
1773,-0.015,-0.035
1774,0.000,-0.005
1775,-0.120,0.000
1776,-0.100,0.020
1777,-0.175,0.025
1778,-0.135,0.035
1779,-0.130,0.040
1780,-0.190,0.065
1781,-0.205,0.060
1782,-0.125,0.070
1783,-0.140,0.050
1784,-0.080,0.055
1785,-0.110,0.050
1786,-0.070,0.050
1787,-0.075,0.020
1788,-0.070,0.025
1789,-0.050,0.020
1790,-0.020,0.015
1791,-0.105,0.010
1792,-0.025,0.000
1793,-0.105,0.030
1794,-0.060,0.010
1795,-0.120,0.030
1796,-0.080,0.040
1797,-0.145,0.035
1798,-0.085,0.025
1799,-0.135,0.010
1800,-0.180,0.050
1801,-0.120,0.030
1802,-0.105,0.020
1803,-0.165,0.035
1804,-0.140,0.055
1805,-0.135,0.030
1806,-0.100,0.040
1807,-0.090,0.050
1808,-0.025,0.035
1809,-0.160,0.030
1810,-0.135,0.065
1811,-0.150,0.060
1812,-0.120,0.040
1813,-0.115,0.035
1814,-0.025,0.035
1815,-0.105,0.055
1816,-0.080,0.060
1817,-0.045,0.050
1818,0.050,0.060
1819,0.110,0.050
1820,0.230,0.040
1821,0.220,-0.015
1822,0.175,-0.010
1823,0.075,0.010
1824,0.030,0.040
1825,-0.075,0.055
1826,-0.135,0.060
1827,-0.095,0.040
1828,-0.095,0.035
1829,-0.065,0.035
1830,-0.080,0.050
1831,-0.100,0.065
1832,-0.125,0.135
1833,-0.150,0.260
1834,0.210,0.040
1835,1.205,-0.195
1836,1.875,-0.945
1837,0.655,-1.240
1838,-0.490,-0.740
1839,-0.310,-0.270
1840,-0.185,-0.100
1841,-0.200,-0.005
1842,-0.150,0.065
1843,-0.155,0.090
1844,-0.170,0.085
1845,-0.150,0.095
1846,-0.115,0.090
1847,-0.110,0.100
1848,-0.140,0.105
1849,-0.120,0.100
1850,-0.070,0.100
1851,-0.120,0.135
1852,-0.180,0.125
1853,-0.145,0.110
1854,-0.080,0.110
1855,-0.115,0.120
1856,-0.080,0.120
1857,-0.045,0.095
1858,-0.005,0.080
1859,0.000,0.085
1860,0.000,0.085
1861,0.095,0.055
1862,0.050,0.055
1863,0.140,0.040
1864,0.145,0.025
1865,0.165,0.020
1866,0.210,0.005
1867,0.245,-0.005
1868,0.230,-0.015
1869,0.225,-0.010
1870,0.245,-0.015
1871,0.345,-0.020
1872,0.335,-0.010
1873,0.360,-0.015
1874,0.320,-0.020
1875,0.265,0.000
1876,0.195,0.005
1877,0.180,0.020
1878,0.120,0.020
1879,0.085,0.025
1880,0.075,0.040
1881,0.130,0.055
1882,0.100,0.065
1883,0.085,0.070
1884,0.100,0.070
1885,0.095,0.090
1886,0.105,0.065
1887,0.210,0.060
1888,0.130,0.050
1889,0.145,0.045
1890,0.160,0.030
1891,0.165,0.045
1892,0.210,0.025
1893,0.145,0.040
1894,0.190,0.020
1895,0.125,0.020
1896,0.160,0.015
1897,0.195,0.015
1898,0.095,0.030
1899,0.110,0.050
1900,0.080,0.020
1901,0.100,0.025
1902,0.105,0.020
1903,0.120,0.025
1904,0.090,0.025
1905,0.075,0.025
1906,0.065,0.020
1907,0.080,0.025
1908,0.070,0.015
1909,0.100,0.015
1910,0.085,0.030
1911,0.070,0.025
1912,0.030,0.015
1913,0.100,0.005
1914,0.015,0.015
1915,0.020,0.040
1916,0.040,0.025
1917,0.060,0.000
1918,0.050,0.025
1919,0.155,0.045
1920,0.210,0.015
1921,0.330,0.010
1922,0.310,-0.060
1923,0.255,-0.060
1924,0.175,-0.020
1925,0.225,0.000
1926,-0.045,0.020
1927,-0.080,0.015
1928,-0.070,0.010
1929,-0.055,0.020
1930,-0.020,0.005
1931,0.025,0.005
1932,-0.070,0.010
1933,-0.070,0.115
1934,-0.070,0.255
1935,0.365,-0.040
1936,1.185,-0.410
1937,1.520,-1.195
1938,0.195,-1.165
1939,-0.560,-0.505
1940,-0.315,-0.230
1941,-0.160,-0.100
1942,-0.170,0.005
1943,-0.095,0.040
1944,-0.185,0.065
1945,-0.140,0.090
1946,-0.140,0.075
1947,-0.125,0.065
1948,-0.190,0.070
1949,-0.155,0.070
1950,-0.145,0.055
1951,-0.185,0.070
1952,-0.195,0.065
1953,-0.140,0.060
1954,-0.200,0.065
1955,-0.130,0.055
1956,-0.160,0.050
1957,-0.160,0.040
1958,-0.155,0.035
1959,-0.110,0.030
1960,-0.080,0.010
1961,-0.060,0.000
1962,-0.105,0.000
1963,0.010,0.000
1964,-0.065,-0.015
1965,-0.055,-0.015
1966,0.000,-0.060
1967,-0.005,-0.030
1968,-0.010,-0.060
1969,0.005,-0.055
1970,0.010,-0.065
1971,0.105,-0.080
1972,0.085,-0.080
1973,0.135,-0.080
1974,0.110,-0.080
1975,0.010,-0.055
1976,0.005,-0.045
1977,-0.060,-0.030
1978,-0.110,-0.015
1979,-0.090,0.000
1980,-0.145,0.000
1981,-0.125,0.005
1982,-0.130,0.010
1983,-0.155,0.020
1984,-0.120,0.020
1985,-0.080,0.010
1986,-0.090,0.000
1987,-0.035,-0.015
1988,-0.025,-0.015
1989,0.000,-0.025
1990,-0.035,-0.040
1991,-0.065,-0.040
1992,-0.035,-0.050
1993,0.050,-0.040
1994,-0.165,-0.005
1995,-0.105,-0.035
1996,-0.090,-0.035
1997,-0.140,-0.005
1998,-0.155,-0.010
1999,-0.110,-0.035
2000,-0.150,-0.020
2001,-0.145,-0.015
2002,-0.150,-0.025
2003,-0.155,-0.010
2004,-0.140,-0.015
2005,-0.135,-0.015
2006,-0.175,-0.025
2007,-0.130,-0.030
2008,-0.185,-0.005
2009,-0.155,-0.015
2010,-0.175,-0.010
2011,-0.150,-0.025
2012,-0.160,-0.020
2013,-0.140,-0.005
2014,-0.170,0.000
2015,-0.130,-0.015
2016,-0.135,-0.020
2017,-0.100,-0.030
2018,-0.080,-0.005
2019,-0.020,0.000
2020,0.125,0.000
2021,0.185,-0.020
2022,0.180,-0.070
2023,0.120,-0.060
2024,-0.050,-0.020
2025,-0.050,0.000
2026,-0.155,-0.005
2027,-0.125,0.000
2028,-0.155,-0.025
2029,-0.130,-0.030
2030,-0.180,0.000
2031,-0.135,-0.005
2032,-0.145,-0.005
2033,-0.170,0.120
2034,-0.155,0.140
2035,0.465,-0.125
2036,1.540,-0.585
2037,1.270,-1.210
2038,-0.240,-0.850
2039,-0.615,-0.355
2040,-0.355,-0.215
2041,-0.210,-0.100
2042,-0.205,-0.010
2043,-0.145,0.010
2044,-0.225,0.035
2045,-0.180,0.035
2046,-0.195,0.050
2047,-0.160,0.035
2048,-0.145,0.050
2049,-0.170,0.065
2050,-0.215,0.060
2051,-0.190,0.080
2052,-0.115,0.070
2053,-0.170,0.080
2054,-0.125,0.080
2055,-0.085,0.070
2056,-0.090,0.080
2057,-0.090,0.060
2058,-0.085,0.070
2059,-0.025,0.055
2060,-0.015,0.045
2061,0.020,0.050
2062,0.045,0.030
2063,0.125,0.020
2064,0.180,0.005
2065,0.070,0.015
2066,0.005,0.000
2067,0.100,0.010
2068,0.185,-0.010
2069,0.210,-0.030
2070,0.130,0.000
2071,0.230,-0.005
2072,0.315,-0.025
2073,0.315,-0.010
2074,0.210,0.000
2075,0.155,0.010
2076,0.085,0.035
2077,0.100,0.020
2078,0.070,0.035
2079,0.030,0.060
2080,0.035,0.065
2081,0.070,0.065
2082,0.040,0.085
2083,0.020,0.080
2084,0.065,0.065
2085,0.110,0.060
2086,0.080,0.050
2087,0.140,0.050
2088,0.110,0.025
2089,0.135,0.025
2090,0.095,0.020
2091,0.115,0.010
2092,0.130,0.010
2093,0.130,0.025
2094,0.100,0.030
2095,0.065,0.020
2096,0.065,0.025
2097,0.085,0.030
2098,0.000,0.030
2099,0.040,0.025
2100,0.020,0.025
2101,0.000,0.050
2102,0.005,0.045
2103,0.005,0.035
2104,0.025,0.045
2105,0.015,0.030
2106,0.040,0.040
2107,-0.055,0.055
2108,-0.010,0.040
2109,0.000,0.035
2110,-0.050,0.050
2111,-0.020,0.050
2112,-0.005,0.030
2113,-0.005,0.055
2114,0.020,0.045
2115,-0.035,0.050
2116,-0.015,0.055
2117,0.000,0.030
2118,0.025,0.030
2119,0.065,0.070
2120,0.155,0.035
2121,0.265,0.035
2122,0.335,-0.030
2123,0.215,-0.035
2124,0.120,-0.010
2125,0.085,0.030
2126,-0.050,0.060
2127,-0.090,0.025
2128,-0.060,0.025
2129,-0.070,0.020
2130,-0.105,0.040
2131,-0.070,0.005
2132,-0.065,0.020
2133,-0.060,0.070
2134,-0.115,0.240
2135,-0.045,0.110
2136,0.785,-0.230
2137,1.685,-0.915
2138,0.935,-1.380
2139,-0.400,-0.800
2140,-0.520,-0.380
2141,-0.300,-0.170
2142,-0.185,-0.070
2143,-0.150,0.030
2144,-0.190,0.055
2145,-0.125,0.070
2146,-0.150,0.085
2147,-0.145,0.075
2148,-0.205,0.090
2149,-0.135,0.090
2150,-0.170,0.090
2151,-0.140,0.075
2152,-0.165,0.090
2153,-0.120,0.070
2154,-0.170,0.095
2155,-0.155,0.075
2156,-0.125,0.085
2157,-0.095,0.075
2158,-0.135,0.090
2159,-0.075,0.055
2160,-0.095,0.055
2161,-0.080,0.045
2162,-0.030,0.040
2163,-0.020,0.020
2164,0.015,-0.005
2165,0.055,-0.010
2166,0.015,-0.010
2167,0.045,-0.025
2168,0.070,-0.040
2169,0.100,-0.050
2170,0.065,-0.060
2171,0.120,-0.065
2172,0.165,-0.055
2173,0.190,-0.065
2174,0.165,-0.060
2175,0.210,-0.045
2176,0.035,-0.025
2177,0.065,0.000
2178,0.005,-0.010
2179,-0.075,0.015
2180,-0.115,0.040
2181,-0.110,0.040
2182,-0.085,0.045
2183,-0.085,0.045
2184,-0.080,0.045
2185,-0.055,0.040
2186,-0.140,0.045
2187,-0.085,0.045
2188,-0.040,0.040
2189,-0.050,0.005
2190,-0.100,0.005
2191,0.015,-0.005
2192,-0.065,0.000
2193,-0.115,0.015
2194,-0.140,0.000
2195,-0.045,-0.005
2196,-0.140,0.000
2197,-0.115,0.005
2198,-0.170,0.010
2199,-0.145,0.000
2200,-0.180,0.000
2201,-0.165,0.005
2202,-0.195,0.010
2203,-0.230,0.030
2204,-0.230,0.020
2205,-0.225,0.020
2206,-0.220,0.020
2207,-0.200,0.030
2208,-0.230,0.000
2209,-0.210,0.010
2210,-0.240,0.015
2211,-0.205,0.020
2212,-0.220,0.005
2213,-0.275,0.035
2214,-0.295,0.020
2215,-0.255,0.020
2216,-0.280,0.000
2217,-0.260,0.005
2218,-0.300,0.000
2219,-0.240,0.005
2220,-0.225,0.015
2221,-0.105,0.020
2222,0.000,0.005
2223,0.065,-0.050
2224,-0.050,-0.045
2225,-0.080,-0.005
2226,-0.165,0.000
2227,-0.265,0.020
2228,-0.365,0.020
2229,-0.325,0.010
2230,-0.315,0.000
2231,-0.305,-0.005
2232,-0.340,0.000
2233,-0.300,0.005
2234,-0.360,0.080
2235,-0.315,0.215
2236,-0.130,0.010
2237,0.765,-0.280
2238,1.490,-0.985
2239,0.420,-1.230
2240,-0.830,-0.530
2241,-0.710,-0.205
2242,-0.500,-0.125
2243,-0.370,-0.030
2244,-0.335,0.010
2245,-0.350,0.035
2246,-0.425,0.045
2247,-0.470,0.075
2248,-0.495,0.060
2249,-0.335,0.045
2250,-0.390,0.065
2251,-0.270,0.020
2252,-0.435,0.085
2253,-0.420,0.075
2254,-0.310,0.070
2255,-0.545,0.065
2256,-0.395,0.090
2257,-0.135,0.065
2258,-0.485,0.095
2259,-0.440,0.045
2260,-0.440,0.050
2261,-0.425,0.060
2262,-0.405,0.055
2263,-0.375,0.040
2264,-0.225,0.005
2265,-0.305,0.005
2266,-0.310,-0.015
2267,-0.165,-0.045
2268,-0.100,-0.065
2269,-0.115,-0.060
2270,-0.220,-0.045
2271,-0.315,-0.035
2272,-0.285,-0.040
2273,-0.130,-0.075
2274,-0.055,-0.090
2275,0.200,-0.090
2276,-0.215,-0.030
2277,-0.385,0.010
2278,-0.230,-0.005
2279,-0.360,0.010
2280,-0.210,0.010
2281,-0.415,0.040
2282,-0.295,0.020
2283,-0.235,0.060
2284,-0.525,0.055
2285,-0.130,0.020
2286,-0.205,0.020
2287,-0.355,0.060
2288,-0.390,0.060
2289,-0.345,0.030
2290,-0.285,0.005
2291,-0.270,0.010
2292,-0.285,0.005
2293,-0.305,0.005
2294,-0.240,-0.010
2295,-0.170,-0.040
2296,-0.390,0.005
2297,-0.365,0.000
2298,-0.315,-0.015
2299,-0.410,0.000
2300,-0.295,-0.010
2301,-0.355,0.000
2302,-0.485,0.010
2303,-0.255,0.000
2304,-0.550,0.000
2305,-0.425,0.000
2306,-0.325,-0.010
2307,-0.455,-0.015
2308,-0.220,-0.030
2309,-0.675,0.030
2310,-0.460,0.020
2311,-0.405,0.015
2312,-0.550,0.010
2313,-0.465,-0.005
2314,-0.430,0.015
2315,-0.495,0.015
2316,-0.385,-0.015
2317,-0.355,-0.020
2318,-0.270,-0.045
2319,-0.580,0.025
2320,-0.535,0.020
2321,-0.395,0.005
2322,-0.280,0.000
2323,-0.175,-0.005
2324,-0.220,-0.030
2325,-0.345,-0.060
2326,-0.245,-0.070
2327,-0.400,0.000
2328,-0.520,0.035
2329,-0.500,0.000
2330,-0.410,-0.010
2331,-0.445,-0.020
2332,-0.480,0.030
2333,-0.605,0.000
2334,-0.610,0.015
2335,-0.525,0.015
2336,-0.625,0.140
2337,-0.545,0.215
2338,-0.310,-0.045
2339,0.570,-0.455
2340,1.205,-1.210
2341,0.055,-1.175
2342,-1.055,-0.605
2343,-0.870,-0.265
2344,-0.780,-0.115
2345,-0.595,-0.055
2346,-0.510,0.015
2347,-0.795,0.060
2348,-0.710,0.085
2349,-0.825,0.070
2350,-0.535,0.070
2351,-0.715,0.100
2352,-0.610,0.075
2353,-0.695,0.085
2354,-0.565,0.080
2355,-0.970,0.135
2356,-0.595,0.095
2357,-0.755,0.120
2358,-0.745,0.115
2359,-0.610,0.075
2360,-0.545,0.110
2361,-0.635,0.090
2362,-0.655,0.100
2363,-0.640,0.085
2364,-0.555,0.080
2365,-0.635,0.080
2366,-0.540,0.055
2367,-0.600,0.045
2368,-0.710,0.055
2369,-0.530,0.005
2370,-0.325,-0.015
2371,-0.620,0.000
2372,-0.595,0.000
2373,-0.335,-0.045
2374,-0.290,-0.050
2375,-0.410,-0.025
2376,-0.375,-0.035
2377,-0.255,-0.025
2378,-0.615,0.025
2379,-0.605,0.010
2380,-0.360,0.010
2381,-0.665,0.055
2382,-0.720,0.080
2383,-0.750,0.090
2384,-0.520,0.050
2385,-0.675,0.100
2386,-0.745,0.125
2387,-0.710,0.105
2388,-0.615,0.085
2389,-0.560,0.065
2390,-0.560,0.060
2391,-0.395,0.005
2392,-0.620,0.080
2393,-0.760,0.070
2394,-0.700,0.065
2395,-0.685,0.045
2396,-0.540,0.030
2397,-0.590,0.040
2398,-0.620,0.040
2399,-0.710,0.040
2400,-0.675,0.055
2401,-0.770,0.060
2402,-0.700,0.065
2403,-0.730,0.060
2404,-0.760,0.070
2405,-0.760,0.040
2406,-0.710,0.055
2407,-0.590,0.045
2408,-0.715,0.065
2409,-0.665,0.060
2410,-0.855,0.070
2411,-0.620,0.055
2412,-0.715,0.085
2413,-0.875,0.075
2414,-0.740,0.055
2415,-0.825,0.100
2416,-0.775,0.085
2417,-0.785,0.080
2418,-0.685,0.070
2419,-0.780,0.065
2420,-0.625,0.045
2421,-0.810,0.085
2422,-0.835,0.080
2423,-0.800,0.095
2424,-0.660,0.085
2425,-0.480,0.060
2426,-0.565,0.055
2427,-0.425,0.005
2428,-0.540,0.020
2429,-0.765,0.055
2430,-0.735,0.095
2431,-0.820,0.095
2432,-0.760,0.055
2433,-0.690,0.045
2434,-0.985,0.110
2435,-0.770,0.065
2436,-0.785,0.075
2437,-0.885,0.095
2438,-0.805,0.230
2439,-0.775,0.205
2440,-0.215,-0.045
2441,0.735,-0.520
2442,0.305,-1.020
2443,-0.935,-0.635
2444,-1.210,-0.290
2445,-0.890,-0.150
2446,-0.850,-0.010
2447,-0.960,0.070
2448,-0.995,0.105
2449,-0.865,0.115
2450,-0.940,0.135
2451,-0.790,0.075
2452,-0.890,0.120
2453,-0.905,0.115
2454,-0.770,0.115
2455,-1.020,0.145
2456,-0.925,0.120
2457,-0.915,0.140
2458,-0.855,0.120
2459,-0.910,0.130
2460,-0.820,0.105
2461,-0.760,0.095
2462,-0.925,0.140
2463,-0.855,0.110
2464,-0.810,0.100
2465,-0.795,0.080
2466,-0.795,0.075
2467,-0.735,0.060
2468,-0.725,0.065
2469,-0.770,0.050
2470,-0.675,0.020
2471,-0.695,0.010
2472,-0.665,0.010
2473,-0.650,0.005
2474,-0.600,0.010
2475,-0.610,0.000
2476,-0.555,-0.005
2477,-0.605,-0.010
2478,-0.495,-0.010
2479,-0.585,0.010
2480,-0.605,0.020
2481,-0.670,0.045
2482,-0.595,0.055
2483,-0.695,0.055
2484,-0.715,0.070
2485,-0.645,0.050
2486,-0.715,0.105
2487,-0.795,0.105
2488,-0.680,0.100
2489,-0.705,0.100
2490,-0.645,0.095
2491,-0.680,0.080
2492,-0.640,0.060
2493,-0.615,0.055
2494,-0.565,0.060
2495,-0.610,0.045
2496,-0.490,0.045
2497,-0.630,0.035
2498,-0.625,0.035
2499,-0.610,0.035
2500,-0.540,0.040
2501,-0.665,0.040
2502,-0.625,0.015
2503,-0.605,0.040
2504,-0.710,0.050
2505,-0.710,0.055
2506,-0.690,0.065
2507,-0.665,0.060
2508,-0.655,0.050
2509,-0.635,0.025
2510,-0.610,0.050
2511,-0.740,0.055
2512,-0.620,0.030
2513,-0.670,0.030
2514,-0.675,0.045
2515,-0.660,0.040
2516,-0.665,0.030
2517,-0.635,0.030
2518,-0.595,0.045
2519,-0.705,0.040
2520,-0.685,0.045
2521,-0.655,0.035
2522,-0.615,0.015
2523,-0.560,0.015
2524,-0.580,0.040
2525,-0.470,0.040
2526,-0.440,0.055
2527,-0.385,0.015
2528,-0.355,-0.020
2529,-0.480,0.005
2530,-0.510,0.025
2531,-0.560,0.035
2532,-0.610,0.035
2533,-0.615,0.025
2534,-0.605,0.015
2535,-0.470,0.015
2536,-0.715,0.045
2537,-0.645,0.045
2538,-0.610,0.060
2539,-0.585,0.190
2540,-0.535,0.160
2541,0.055,-0.115
2542,1.175,-0.615
2543,0.790,-1.150
2544,-0.645,-0.635
2545,-0.975,-0.225
2546,-0.740,-0.120
2547,-0.640,-0.035
2548,-0.620,0.030
2549,-0.555,0.050
2550,-0.620,0.085
2551,-0.595,0.080
2552,-0.575,0.085
2553,-0.560,0.075
2554,-0.615,0.110
2555,-0.605,0.110
2556,-0.580,0.100
2557,-0.530,0.125
2558,-0.530,0.105
2559,-0.475,0.110
2560,-0.385,0.105
2561,-0.610,0.140
2562,-0.525,0.115
2563,-0.480,0.110
2564,-0.345,0.090
2565,-0.425,0.120
2566,-0.445,0.095
2567,-0.340,0.075
2568,-0.345,0.060
2569,-0.225,0.050
2570,-0.270,0.050
2571,-0.300,0.055
2572,-0.250,0.030
2573,-0.255,0.035
2574,-0.200,0.030
2575,-0.205,0.035
2576,-0.180,0.025
2577,-0.120,0.020
2578,-0.080,0.020
2579,0.000,0.060
2580,-0.090,0.050
2581,-0.165,0.080
2582,-0.175,0.085
2583,-0.255,0.125
2584,-0.270,0.115
2585,-0.280,0.125
2586,-0.295,0.135
2587,-0.230,0.150
2588,-0.235,0.145
2589,-0.240,0.155
2590,-0.190,0.145
2591,-0.190,0.150
2592,-0.180,0.125
2593,-0.125,0.115
2594,-0.145,0.125
2595,-0.135,0.120
2596,-0.175,0.115
2597,-0.065,0.095
2598,-0.135,0.115
2599,-0.195,0.110
2600,-0.175,0.095
2601,-0.125,0.110
2602,-0.245,0.095
2603,-0.100,0.100
2604,-0.250,0.100
2605,-0.240,0.110
2606,-0.255,0.115
2607,-0.195,0.105
2608,-0.210,0.110
2609,-0.195,0.115
2610,-0.250,0.130
2611,-0.235,0.135
2612,-0.235,0.115
2613,-0.170,0.120
2614,-0.240,0.130
2615,-0.210,0.110
2616,-0.220,0.140
2617,-0.285,0.135
2618,-0.220,0.140
2619,-0.235,0.135
2620,-0.210,0.110
2621,-0.220,0.140
2622,-0.185,0.130
2623,-0.240,0.150
2624,-0.200,0.125
2625,-0.090,0.115
2626,-0.165,0.150
2627,-0.140,0.140
2628,-0.015,0.170
2629,0.025,0.120
2630,0.050,0.050
2631,-0.015,0.095
2632,-0.105,0.115
2633,-0.075,0.135
2634,-0.265,0.135
2635,-0.215,0.140
2636,-0.225,0.120
2637,-0.285,0.125
2638,-0.205,0.140
2639,-0.275,0.160
2640,-0.225,0.130
2641,-0.265,0.270
2642,-0.215,0.275
2643,0.265,0.005
2644,1.355,-0.410
2645,1.630,-1.130
2646,0.000,-0.835
2647,-0.685,-0.365
2648,-0.470,-0.110
2649,-0.255,0.000
2650,-0.385,0.095
2651,-0.310,0.130
2652,-0.315,0.145
2653,-0.325,0.170
2654,-0.360,0.180
2655,-0.280,0.165
2656,-0.300,0.180
2657,-0.240,0.160
2658,-0.290,0.165
2659,-0.235,0.180
2660,-0.320,0.180
2661,-0.235,0.185
2662,-0.315,0.185
2663,-0.250,0.175
2664,-0.215,0.180
2665,-0.235,0.180
2666,-0.230,0.170
2667,-0.245,0.165
2668,-0.115,0.150
2669,-0.165,0.150
2670,-0.180,0.145
2671,-0.055,0.125
2672,-0.090,0.105
2673,-0.070,0.095
2674,-0.020,0.070
2675,-0.015,0.075
2676,0.000,0.060
2677,0.030,0.050
2678,0.070,0.045
2679,0.065,0.065
2680,0.115,0.045
2681,0.205,0.060
2682,0.125,0.065
2683,0.095,0.070
2684,0.105,0.075
2685,0.005,0.120
2686,-0.050,0.125
2687,-0.025,0.125
2688,-0.010,0.135
2689,-0.030,0.155
2690,-0.055,0.155
2691,-0.005,0.190
2692,-0.075,0.185
2693,-0.060,0.175
2694,0.000,0.150
2695,0.060,0.140
2696,-0.025,0.155
2697,0.020,0.135
2698,0.055,0.135
2699,0.020,0.145
2700,0.020,0.140
2701,0.000,0.100
2702,0.040,0.120
2703,0.045,0.105
2704,0.025,0.115
2705,0.045,0.095
2706,0.055,0.095
2707,-0.050,0.140
2708,-0.045,0.120
2709,-0.015,0.120
2710,-0.015,0.145
2711,-0.020,0.140
2712,0.005,0.145
2713,-0.015,0.130
2714,-0.020,0.135
2715,0.000,0.125
2716,0.015,0.135
2717,0.045,0.140
2718,0.055,0.140
2719,-0.015,0.140
2720,0.050,0.140
2721,0.040,0.150
2722,0.075,0.135
2723,0.035,0.135
2724,0.000,0.160
2725,0.080,0.140
2726,0.090,0.135
2727,0.090,0.140
2728,0.040,0.150
2729,0.115,0.165
2730,0.200,0.165
2731,0.380,0.130
2732,0.415,0.065
2733,0.400,0.060
2734,0.265,0.080
2735,0.210,0.115
2736,0.145,0.150
2737,0.065,0.155
2738,0.105,0.120
2739,0.060,0.125
2740,0.010,0.140
2741,0.095,0.130
2742,0.080,0.125
2743,0.075,0.160
2744,0.090,0.300
2745,0.060,0.290
2746,0.555,-0.040
2747,1.560,-0.585
2748,1.685,-1.275
2749,0.300,-0.880
2750,-0.350,-0.415
2751,-0.075,-0.105
2752,0.000,0.000
2753,0.035,0.115
2754,0.015,0.145
2755,-0.015,0.175
2756,0.080,0.160
2757,0.020,0.195
2758,0.005,0.200
2759,0.075,0.190
2760,0.050,0.200
2761,0.000,0.200
2762,0.025,0.190
2763,0.075,0.205
2764,0.055,0.190
2765,0.095,0.190
2766,0.100,0.195
2767,0.100,0.180
2768,0.080,0.180
2769,0.165,0.175
2770,0.190,0.140
2771,0.200,0.150
2772,0.165,0.150
2773,0.230,0.130
2774,0.275,0.110
2775,0.240,0.105
2776,0.310,0.065
2777,0.310,0.055
2778,0.290,0.050
2779,0.330,0.035
2780,0.375,0.035
2781,0.445,0.005
2782,0.375,0.015
2783,0.415,0.010
2784,0.450,0.005
2785,0.465,0.030
2786,0.395,0.025
2787,0.350,0.060
2788,0.290,0.055
2789,0.280,0.065
2790,0.210,0.085
2791,0.205,0.080
2792,0.165,0.100
2793,0.200,0.095
2794,0.165,0.115
2795,0.200,0.110
2796,0.175,0.125
2797,0.260,0.105
2798,0.185,0.100
2799,0.230,0.095
2800,0.180,0.080
2801,0.235,0.075
2802,0.240,0.050
2803,0.260,0.055
2804,0.210,0.045
2805,0.250,0.045
2806,0.170,0.055
2807,0.280,0.035
2808,0.220,0.045
2809,0.080,0.055
2810,0.135,0.050
2811,0.150,0.055
2812,0.100,0.045
2813,0.160,0.035
2814,0.125,0.040
2815,0.050,0.060
2816,0.095,0.035
2817,0.070,0.060
2818,0.095,0.035
2819,0.105,0.030
2820,0.070,0.040
2821,0.100,0.055
2822,0.010,0.050
2823,0.080,0.030
2824,-0.005,0.040
2825,0.060,0.045
2826,0.020,0.030
2827,0.015,0.030
2828,0.045,0.030
2829,0.040,0.015
2830,0.035,0.005
2831,0.125,0.050
2832,0.140,0.040
2833,0.170,0.055
2834,0.290,0.020
2835,0.310,-0.015
2836,0.225,-0.020
2837,0.145,0.015
2838,0.120,0.015
2839,0.060,0.030
2840,-0.010,0.015
2841,-0.035,0.030
2842,-0.030,0.035
2843,0.005,0.015
2844,0.030,0.000
2845,-0.055,0.050
2846,-0.040,0.160
2847,-0.020,0.185
2848,0.385,-0.125
2849,1.400,-0.595
2850,1.390,-1.185
2851,0.020,-0.730
2852,-0.540,-0.270
2853,-0.290,-0.150
2854,-0.140,-0.060
2855,-0.085,0.005
2856,-0.090,0.025
2857,-0.060,0.030
2858,-0.085,0.050
2859,-0.090,0.065
2860,-0.175,0.065
2861,-0.110,0.075
2862,-0.065,0.035
2863,-0.115,0.080
2864,-0.065,0.060
2865,-0.095,0.070
2866,-0.125,0.055
2867,-0.055,0.060
2868,-0.085,0.060
2869,-0.030,0.070
2870,-0.085,0.060
2871,-0.045,0.050
2872,-0.050,0.035
2873,0.015,0.025
2874,0.015,0.030
2875,0.085,0.000
2876,0.070,0.000
2877,0.145,-0.005
2878,0.135,-0.005
2879,0.115,-0.015
2880,0.135,-0.030
2881,0.140,0.000
2882,0.125,0.000
2883,0.245,-0.025
2884,0.220,-0.030
2885,0.270,-0.035
2886,0.305,-0.040
2887,0.300,-0.015
2888,0.230,-0.015
2889,0.205,0.015
2890,0.150,0.025
2891,0.130,0.030
2892,0.110,0.040
2893,0.130,0.045
2894,0.100,0.070
2895,0.160,0.055
2896,0.140,0.050
2897,0.140,0.075
2898,0.190,0.045
2899,0.255,0.035
2900,0.205,0.030
2901,0.300,0.015
2902,0.230,0.010
2903,0.300,0.010
2904,0.285,0.010
2905,0.290,0.000
2906,0.155,0.020
2907,0.240,0.005
2908,0.225,0.010
2909,0.205,0.010
2910,0.195,0.010
2911,0.245,0.010
2912,0.145,0.025
2913,0.160,0.020
2914,0.175,0.020
2915,0.160,0.020
2916,0.150,0.020
2917,0.190,0.035
2918,0.135,0.030
2919,0.175,0.020
2920,0.145,0.045
2921,0.175,0.030
2922,0.170,0.020
2923,0.190,0.040
2924,0.070,0.045
2925,0.165,0.060
2926,0.140,0.030
2927,0.165,0.015
2928,0.150,0.040
2929,0.110,0.045
2930,0.085,0.040
2931,0.145,0.035
2932,0.135,0.045
2933,0.210,0.065
2934,0.265,0.050
2935,0.400,0.045
2936,0.430,-0.010
2937,0.440,-0.015
2938,0.280,0.005
2939,0.265,0.045
2940,0.175,0.055
2941,0.110,0.040
2942,0.085,0.035
2943,0.190,0.030
2944,0.080,0.030
2945,0.095,0.040
2946,0.120,0.050
2947,0.140,0.090
2948,0.115,0.255
2949,0.150,0.095
2950,0.860,-0.200
2951,1.845,-0.875
2952,1.345,-1.255
2953,-0.070,-0.670
2954,-0.335,-0.280
2955,-0.060,-0.130
2956,0.045,-0.025
2957,0.080,0.040
2958,0.060,0.075
2959,0.080,0.090
2960,0.025,0.120
2961,0.035,0.110
2962,0.060,0.105
2963,0.065,0.115
2964,0.110,0.100
2965,0.000,0.115
2966,0.020,0.115
2967,0.110,0.095
2968,0.070,0.110
2969,0.115,0.115
2970,0.070,0.125
2971,0.105,0.115
2972,0.110,0.100
2973,0.145,0.105
2974,0.185,0.110
2975,0.170,0.090
2976,0.200,0.075
2977,0.300,0.060
2978,0.250,0.050
2979,0.250,0.050
2980,0.310,0.035
2981,0.340,0.050
2982,0.310,0.010
2983,0.365,0.010
2984,0.345,0.015
2985,0.390,0.000
2986,0.460,0.000
2987,0.465,-0.010
2988,0.440,0.000
2989,0.435,0.010
2990,0.360,0.030
2991,0.335,0.050
2992,0.305,0.045
2993,0.225,0.075
2994,0.200,0.080
2995,0.205,0.090
2996,0.220,0.100
2997,0.245,0.115
2998,0.190,0.110
2999,0.235,0.085
3000,0.265,0.100
3001,0.245,0.090
3002,0.250,0.075
3003,0.310,0.060
3004,0.270,0.060
3005,0.310,0.035
3006,0.290,0.040
3007,0.295,0.025
3008,0.280,0.040
3009,0.245,0.040
3010,0.220,0.045
3011,0.200,0.030
3012,0.205,0.035
3013,0.190,0.040
3014,0.180,0.045
3015,0.155,0.020
3016,0.155,0.045
3017,0.170,0.030
3018,0.165,0.040
3019,0.130,0.040
3020,0.100,0.040
3021,0.110,0.010
3022,0.070,0.035
3023,0.120,0.025
3024,0.065,0.025
3025,0.035,0.030
3026,0.110,0.015
3027,0.045,0.020
3028,-0.035,0.060
3029,0.000,0.025
3030,0.005,0.075
3031,-0.025,0.325
3032,-0.060,0.140
3033,0.055,-0.135
3034,0.050,0.025
3035,0.065,0.180
3036,0.185,0.100
3037,0.220,0.110
3038,0.150,0.145
3039,0.015,0.485
3040,-0.140,0.545
3041,-0.090,0.025
3042,-0.040,-0.240
3043,-0.130,0.340
3044,-0.380,0.930
3045,-0.445,0.385
3046,-0.085,-0.485
3047,0.025,-0.365
3048,-0.155,0.055
3049,-0.295,0.595
3050,-0.280,0.150
3051,0.340,-0.410
3052,1.365,-0.690
3053,1.065,-1.245
3054,-0.420,-0.660
3055,-0.820,-0.510
3056,-0.370,-0.485
3057,-0.350,0.010
3058,-0.450,-0.005
3059,-0.305,-0.080
3060,-0.425,-0.160
3061,-0.425,-0.095
3062,-0.500,0.095
3063,-0.525,-0.050
3064,-0.490,-0.170
3065,-0.445,-0.060
3066,-0.555,0.185
3067,-0.555,0.050
3068,-0.465,-0.330
3069,-0.415,-0.315
3070,-0.450,-0.005
3071,-0.530,-0.110
3072,-0.455,-0.240
3073,-0.425,-0.125
3074,-0.485,-0.150
3075,-0.460,-0.160
3076,-0.410,-0.255
3077,-0.410,-0.150
3078,-0.415,-0.080
3079,-0.385,-0.375
3080,-0.365,-0.265
3081,-0.380,-0.195
3082,-0.360,-0.270
3083,-0.355,-0.250
3084,-0.350,-0.220
3085,-0.390,-0.195
3086,-0.350,-0.055
3087,-0.335,-0.075
3088,-0.240,-0.310
3089,-0.250,-0.200
3090,-0.290,-0.205
3091,-0.305,-0.280
3092,-0.325,-0.175
3093,-0.460,-0.045
3094,-0.415,-0.135
3095,-0.470,-0.175
3096,-0.515,-0.105
3097,-0.540,0.035
3098,-0.500,0.055
3099,-0.495,-0.215
3100,-0.430,-0.130
3101,-0.505,0.195
3102,-0.400,-0.145
3103,-0.385,-0.225
3104,-0.355,-0.155
3105,-0.345,-0.095
3106,-0.360,-0.085
3107,-0.365,-0.090
3108,-0.335,-0.040
3109,-0.375,-0.035
3110,-0.385,0.100
3111,-0.405,-0.045
3112,-0.300,-0.240
3113,-0.360,-0.160
3114,-0.330,-0.115
3115,-0.430,-0.025
3116,-0.370,-0.110
3117,-0.405,-0.030
3118,-0.415,0.025
3119,-0.425,-0.085
3120,-0.430,0.000
3121,-0.400,-0.120
3122,-0.390,-0.050
3123,-0.385,-0.165
3124,-0.375,-0.080
3125,-0.425,-0.030
3126,-0.395,-0.030
3127,-0.395,-0.045
3128,-0.385,-0.125
3129,-0.370,-0.090
3130,-0.375,0.015
3131,-0.420,-0.060
3132,-0.355,-0.120
3133,-0.395,-0.010
3134,-0.355,-0.020
3135,-0.315,0.030
3136,-0.205,-0.075
3137,0.000,-0.170
3138,-0.070,-0.115
3139,-0.285,0.000
3140,-0.245,-0.135
3141,-0.270,-0.100
3142,-0.410,-0.080
3143,-0.425,-0.055
3144,-0.400,-0.055
3145,-0.440,-0.040
3146,-0.395,-0.080
3147,-0.400,-0.040
3148,-0.415,0.025
3149,-0.410,0.120
3150,-0.350,0.180
3151,0.080,-0.105
3152,1.145,-0.675
3153,1.220,-1.220
3154,-0.305,-0.925
3155,-0.960,-0.605
3156,-0.615,-0.355
3157,-0.425,-0.150
3158,-0.425,-0.015
3159,-0.380,-0.080
3160,-0.360,-0.065
3161,-0.420,0.030
3162,-0.425,0.095
3163,-0.375,0.000
3164,-0.365,-0.035
3165,-0.370,-0.075
3166,-0.330,-0.015
3167,-0.355,0.040
3168,-0.335,0.095
3169,-0.295,-0.050
3170,-0.265,-0.015
3171,-0.310,0.000
3172,-0.305,0.065
3173,-0.300,-0.020
3174,-0.245,-0.050
3175,-0.260,-0.070
3176,-0.220,-0.030
3177,-0.235,-0.010
3178,-0.195,-0.055
3179,-0.200,0.020
3180,-0.215,0.055
3181,-0.150,-0.120
3182,-0.145,-0.010
3183,-0.155,-0.035
3184,-0.095,-0.225
3185,-0.100,-0.240
3186,-0.085,-0.175
3187,-0.055,-0.180
3188,0.020,-0.175
3189,-0.040,-0.150
3190,-0.055,-0.095
3191,-0.090,-0.090
3192,-0.160,-0.025
3193,-0.225,-0.045
3194,-0.230,-0.085
3195,-0.300,0.025
3196,-0.295,-0.025
3197,-0.295,-0.175
3198,-0.310,-0.005
3199,-0.390,0.065
3200,-0.335,-0.075
3201,-0.300,-0.070
3202,-0.285,-0.100
3203,-0.325,0.010
3204,-0.275,-0.085
3205,-0.310,-0.045
3206,-0.300,-0.025
3207,-0.310,-0.105
3208,-0.270,-0.135
3209,-0.345,-0.005
3210,-0.330,-0.090
3211,-0.325,-0.140
3212,-0.355,-0.035
3213,-0.390,-0.025
3214,-0.350,-0.110
3215,-0.405,-0.115
3216,-0.360,-0.150
3217,-0.420,-0.055
3218,-0.445,-0.020
3219,-0.440,-0.135
3220,-0.425,-0.075
3221,-0.440,-0.080
3222,-0.430,-0.060
3223,-0.470,0.000
3224,-0.470,-0.020
3225,-0.465,-0.075
3226,-0.495,-0.065
3227,-0.460,-0.085
3228,-0.470,-0.085
3229,-0.490,-0.105
3230,-0.470,-0.115
3231,-0.480,-0.090
3232,-0.510,-0.060
3233,-0.485,-0.055
3234,-0.475,0.000
3235,-0.505,0.020
3236,-0.460,-0.005
3237,-0.335,-0.110
3238,-0.225,-0.080
3239,-0.195,-0.135
3240,-0.250,-0.110
3241,-0.365,-0.045
3242,-0.355,-0.005
3243,-0.465,-0.045
3244,-0.520,-0.080
3245,-0.530,-0.075
3246,-0.490,-0.050
3247,-0.535,-0.035
3248,-0.520,-0.075
3249,-0.505,-0.095
3250,-0.495,0.010
3251,-0.555,0.125
3252,-0.325,-0.015
3253,0.440,-0.265
3254,1.165,-0.915
3255,0.125,-1.135
3256,-1.040,-0.615
3257,-0.960,-0.345
3258,-0.745,-0.205
3259,-0.640,-0.150
3260,-0.600,-0.040
3261,-0.625,-0.010
3262,-0.650,0.080
3263,-0.645,0.055
3264,-0.590,-0.110
3265,-0.585,-0.050
3266,-0.630,0.000
3267,-0.615,0.045
3268,-0.615,0.010
3269,-0.605,0.045
3270,-0.575,-0.015
3271,-0.565,-0.030
3272,-0.590,-0.015
3273,-0.565,0.000
3274,-0.535,0.010
3275,-0.550,0.000
3276,-0.550,-0.020
3277,-0.485,-0.075
3278,-0.490,0.025
3279,-0.480,-0.045
3280,-0.445,-0.080
3281,-0.375,-0.065
3282,-0.365,-0.055
3283,-0.315,-0.060
3284,-0.335,-0.105
3285,-0.305,-0.095
3286,-0.285,-0.060
3287,-0.290,-0.015
3288,-0.285,-0.120
3289,-0.175,-0.140
3290,-0.155,-0.065
3291,-0.105,-0.090
3292,-0.175,-0.130
3293,-0.220,-0.070
3294,-0.270,-0.050
3295,-0.285,-0.040
3296,-0.340,0.005
3297,-0.345,0.010
3298,-0.335,-0.060
3299,-0.325,-0.025
3300,-0.345,-0.005
3301,-0.240,0.000
3302,-0.295,-0.005
3303,-0.240,-0.020
3304,-0.275,-0.020
3305,-0.225,-0.005
3306,-0.215,-0.015
3307,-0.165,0.005
3308,-0.185,-0.030
3309,-0.145,-0.035
3310,-0.190,-0.015
3311,-0.155,-0.065
3312,-0.170,-0.060
3313,-0.195,-0.050
3314,-0.205,-0.025
3315,-0.200,-0.040
3316,-0.250,-0.010
3317,-0.205,0.000
3318,-0.225,-0.035
3319,-0.240,-0.015
3320,-0.260,0.000
3321,-0.230,-0.010
3322,-0.255,-0.015
3323,-0.270,0.000
3324,-0.260,0.010
3325,-0.230,-0.020
3326,-0.275,0.015
3327,-0.215,-0.015
3328,-0.245,-0.035
3329,-0.230,-0.030
3330,-0.255,-0.025
3331,-0.205,-0.020
3332,-0.240,0.010
3333,-0.170,0.010
3334,-0.250,0.035
3335,-0.230,0.015
3336,-0.220,-0.035
3337,-0.170,0.030
3338,-0.150,0.150
3339,0.015,-0.050
3340,0.115,-0.105
3341,0.110,-0.105
3342,-0.005,-0.090
3343,-0.035,-0.020
3344,-0.100,-0.010
3345,-0.195,0.010
3346,-0.265,0.025
3347,-0.225,0.015
3348,-0.240,0.010
3349,-0.235,-0.015
3350,-0.230,-0.015
3351,-0.175,0.000
3352,-0.220,0.145
3353,-0.235,0.185
3354,0.010,-0.115
3355,0.885,-0.340
3356,1.580,-1.065
3357,0.560,-1.155
3358,-0.640,-0.655
3359,-0.570,-0.330
3360,-0.340,-0.185
3361,-0.270,-0.055
3362,-0.230,0.015
3363,-0.245,0.040
3364,-0.280,0.050
3365,-0.220,0.065
3366,-0.170,0.050
3367,-0.195,0.090
3368,-0.255,0.075
3369,-0.245,0.095
3370,-0.220,0.080
3371,-0.220,0.080
3372,-0.230,0.090
3373,-0.200,0.050
3374,-0.185,0.045
3375,-0.195,0.070
3376,-0.190,0.100
3377,-0.135,0.080
3378,-0.185,0.025
3379,-0.160,0.035
3380,-0.095,0.055
3381,-0.020,0.080
3382,-0.100,0.025
3383,-0.075,-0.005
3384,-0.040,-0.015
3385,-0.015,-0.035
3386,0.020,-0.035
3387,0.025,-0.050
3388,0.030,-0.040
3389,0.035,-0.050
3390,0.010,-0.070
3391,0.140,-0.115
3392,0.195,-0.065
3393,0.105,-0.040
3394,0.025,-0.025
3395,-0.025,0.000
3396,-0.040,0.015
3397,-0.085,-0.015
3398,-0.095,-0.045
3399,-0.130,0.000
3400,-0.135,0.020
3401,-0.145,0.005
3402,-0.155,0.035
3403,-0.185,0.030
3404,-0.150,0.015
3405,-0.145,0.040
3406,-0.125,0.055
3407,-0.125,0.045
3408,-0.045,-0.025
3409,-0.110,0.005
3410,-0.140,0.020
3411,-0.155,0.005
3412,-0.120,0.005
3413,-0.115,-0.025
3414,-0.095,-0.010
3415,-0.165,-0.045
3416,-0.165,0.000
3417,-0.175,-0.015
3418,-0.150,-0.025
3419,-0.195,0.005
3420,-0.190,-0.005
3421,-0.225,-0.005
3422,-0.205,0.020
3423,-0.255,0.000
3424,-0.240,-0.015
3425,-0.230,-0.020
3426,-0.220,-0.020
3427,-0.260,0.020
3428,-0.260,0.025
3429,-0.300,0.025
3430,-0.245,-0.055
3431,-0.245,-0.035
3432,-0.225,-0.015
3433,-0.290,0.025
3434,-0.305,0.040
3435,-0.305,0.035
3436,-0.255,-0.065
3437,-0.260,-0.040
3438,-0.210,0.000
3439,-0.180,0.015
3440,-0.050,0.010
3441,0.030,-0.005
3442,0.020,-0.030
3443,-0.030,-0.045
3444,-0.080,-0.005
3445,-0.155,0.005
3446,-0.230,0.025
3447,-0.260,0.005
3448,-0.230,-0.015
3449,-0.295,0.015
3450,-0.300,0.030
3451,-0.295,0.000
3452,-0.235,-0.005
3453,-0.280,0.070
3454,-0.260,0.235
3455,-0.115,-0.005
3456,0.825,-0.310
3457,1.605,-1.050
3458,0.510,-1.125
3459,-0.740,-0.600
3460,-0.610,-0.240
3461,-0.395,-0.115
3462,-0.345,0.000
3463,-0.320,0.055
3464,-0.270,0.090
3465,-0.325,0.045
3466,-0.275,0.040
3467,-0.300,0.095
3468,-0.280,0.075
3469,-0.275,0.095
3470,-0.255,0.120
3471,-0.250,0.035
3472,-0.190,0.035
3473,-0.210,0.060
3474,-0.150,0.080
3475,-0.235,0.095
3476,-0.205,0.095
3477,-0.160,0.090
3478,-0.100,0.100
3479,-0.125,0.140
3480,-0.075,0.070
3481,-0.080,0.045
3482,-0.035,0.065
3483,-0.015,0.075
3484,0.030,0.100
3485,0.015,0.130
3486,0.060,-0.020
3487,0.095,-0.050
3488,0.140,-0.005
3489,0.100,0.005
3490,0.155,0.015
3491,0.180,-0.005
3492,0.270,-0.025
3493,0.255,0.000
3494,0.280,0.000
3495,0.200,0.040
3496,0.210,0.085
3497,0.175,0.030
3498,0.080,0.045
3499,0.015,0.065
3500,0.045,0.090
3501,0.000,0.075
3502,0.040,0.120
3503,0.045,0.145
3504,0.035,0.065
3505,0.065,0.080
3506,0.100,0.115
3507,0.090,0.115
3508,0.105,0.130
3509,0.100,0.020
3510,0.165,0.045
3511,0.100,0.030
3512,0.115,0.040
3513,0.130,0.035
3514,0.105,0.060
3515,0.125,0.080
3516,0.065,0.060
3517,0.060,0.045
3518,0.065,0.055
3519,0.040,0.065
3520,0.145,0.065
3521,0.080,0.045
3522,0.080,0.010
3523,0.035,0.045
3524,-0.120,0.115
3525,-0.025,0.060
3526,0.015,0.055
3527,0.040,0.055
3528,0.090,0.045
3529,0.235,0.025
3530,0.055,0.080
3531,-0.280,0.115
3532,-0.030,0.105
3533,-0.195,0.110
3534,-0.095,0.095
3535,-0.040,0.110
3536,-0.110,0.080
3537,-0.005,0.100
3538,-0.140,0.100
3539,-0.050,0.095
3540,0.035,0.090
3541,0.190,0.070
3542,0.345,0.055
3543,0.305,-0.010
3544,0.230,0.010
3545,0.135,0.075
3546,0.075,0.045
3547,0.015,0.080
3548,-0.015,0.085
3549,-0.100,0.105
3550,-0.055,0.110
3551,-0.120,0.075
3552,-0.070,0.090
3553,-0.125,0.090
3554,-0.160,0.190
3555,-0.220,0.335
3556,-0.080,0.135
3557,0.920,-0.185
3558,1.665,-0.865
3559,0.930,-1.230
3560,-0.550,-0.690
3561,-0.645,-0.235
3562,-0.385,-0.065
3563,-0.380,0.045
3564,-0.160,0.075
3565,-0.180,0.120
3566,-0.285,0.160
3567,-0.180,0.140
3568,-0.110,0.155
3569,-0.170,0.235
3570,-0.290,0.250
3571,-0.120,0.190
3572,-0.230,0.180
3573,-0.200,0.170
3574,-0.210,0.185
3575,-0.320,0.185
3576,-0.210,0.145
3577,-0.175,0.155
3578,-0.145,0.170
3579,-0.100,0.195
3580,-0.185,0.185
3581,0.065,0.150
3582,0.075,0.155
3583,-0.065,0.160
3584,0.125,0.110
3585,0.100,0.080
3586,0.165,0.105
3587,-0.080,0.080
3588,0.005,0.115
3589,0.030,0.035
3590,0.140,0.030
3591,0.010,0.030
3592,0.425,0.000
3593,0.005,0.050
3594,0.125,0.035
3595,0.100,0.010
3596,0.100,0.020
3597,0.010,0.035
3598,0.075,0.000
3599,0.190,0.010
3600,-0.095,0.075
3601,0.055,0.050
3602,-0.045,0.050
3603,-0.210,0.095
3604,-0.120,0.075
3605,-0.005,0.090
3606,0.000,0.100
3607,-0.060,0.055
3608,-0.005,0.035
3609,0.135,0.030
3610,-0.195,0.070
3611,-0.155,0.060
3612,0.095,0.020
3613,-0.145,0.030
3614,-0.020,0.010
3615,-0.005,0.050
3616,-0.090,0.010
3617,0.255,0.015
3618,-0.240,0.055
3619,0.055,0.010
3620,-0.045,0.040
3621,-0.075,0.045
3622,-0.205,0.040
3623,0.040,0.060
3624,-0.145,0.055
3625,-0.120,0.060
3626,-0.170,0.035
3627,0.105,0.050
3628,-0.205,0.065
3629,-0.210,0.040
3630,-0.140,0.010
3631,0.015,0.025
3632,-0.125,0.045
3633,-0.100,0.050
3634,0.120,0.010
3635,-0.185,0.045
3636,-0.050,0.030
3637,0.015,0.045
3638,-0.280,0.075
3639,-0.165,0.055
3640,-0.045,0.070
3641,-0.050,0.065
3642,0.160,0.070
3643,0.200,-0.005
3644,0.090,-0.025
3645,0.235,-0.010
3646,-0.130,0.030
3647,0.045,0.030
3648,-0.040,0.045
3649,-0.335,0.040
3650,-0.210,0.040
3651,-0.290,0.055
3652,-0.040,0.020
3653,-0.290,0.040
3654,-0.120,0.080
3655,-0.115,0.205
3656,-0.265,0.165
3657,0.255,-0.125
3658,1.475,-0.770
3659,1.080,-1.250
3660,-0.345,-0.795
3661,-0.610,-0.370
3662,-0.385,-0.205
3663,-0.450,-0.055
3664,-0.285,0.015
3665,-0.120,0.065
3666,-0.335,0.060
3667,-0.180,0.085
3668,-0.310,0.085
3669,-0.210,0.080
3670,-0.265,0.090
3671,-0.160,0.135
3672,-0.425,0.090
3673,-0.290,0.120
3674,-0.300,0.125
3675,-0.300,0.120
3676,0.050,0.085
3677,-0.350,0.110
3678,-0.360,0.100
3679,-0.210,0.100
3680,-0.110,0.090
3681,-0.215,0.085
3682,-0.075,0.070
3683,-0.355,0.090
3684,-0.140,0.025
3685,0.065,0.015
3686,-0.205,0.025
3687,-0.100,0.000
3688,0.245,-0.080
3689,-0.245,0.035
3690,-0.115,-0.025
3691,0.140,-0.075
3692,-0.045,-0.025
3693,-0.115,-0.010
3694,0.190,-0.060
3695,0.070,-0.010
3696,0.020,-0.025
3697,-0.010,-0.030
3698,0.040,-0.030
3699,-0.080,0.020
3700,-0.060,0.000
3701,0.000,0.050
3702,-0.260,0.055
3703,-0.125,0.060
3704,-0.220,0.050
3705,-0.195,0.085
3706,-0.130,0.055
3707,0.160,0.050
3708,-0.290,0.085
3709,-0.020,0.060
3710,-0.115,0.035
3711,0.000,0.035
3712,0.015,-0.030
3713,0.025,0.000
3714,-0.015,-0.035
3715,-0.020,0.000
3716,-0.260,-0.005
3717,0.030,-0.005
3718,-0.205,0.015
3719,-0.175,0.015
3720,-0.040,0.000
3721,-0.155,0.035
3722,-0.145,0.010
3723,-0.005,-0.010
3724,-0.115,0.025
3725,-0.165,0.010
3726,-0.095,0.010
3727,-0.040,0.020
3728,-0.210,0.035
3729,-0.270,0.045
3730,-0.160,0.025
3731,-0.075,0.010
3732,-0.140,0.055
3733,-0.300,0.005
3734,-0.140,-0.005
3735,-0.195,0.065
3736,-0.315,0.015
3737,-0.015,-0.010
3738,-0.205,0.035
3739,-0.125,0.015
3740,-0.085,0.045
3741,0.045,0.040
3742,0.030,0.040
3743,0.175,-0.005
3744,0.060,-0.020
3745,0.040,-0.005
3746,0.065,0.015
3747,-0.105,0.065
3748,-0.160,0.035
3749,-0.155,0.050
3750,-0.180,0.035
3751,-0.110,0.060
3752,-0.245,0.060
3753,-0.280,0.065
3754,-0.075,0.060
3755,-0.190,0.255
3756,-0.215,0.190
3757,0.315,-0.130
3758,1.155,-0.685
3759,1.345,-1.295
3760,-0.160,-0.785
3761,-0.785,-0.365
3762,-0.295,-0.185
3763,-0.380,-0.035
3764,-0.250,0.050
3765,-0.200,0.095
3766,-0.355,0.105
3767,-0.190,0.110
3768,-0.190,0.105
3769,-0.215,0.115
3770,-0.170,0.110
3771,-0.325,0.140
3772,-0.100,0.135
3773,-0.340,0.130
3774,-0.120,0.135
3775,-0.085,0.110
3776,-0.300,0.115
3777,-0.115,0.145
3778,-0.070,0.150
3779,-0.330,0.145
3780,-0.150,0.125
3781,-0.105,0.115
3782,-0.020,0.100
3783,-0.175,0.110
3784,-0.070,0.110
3785,-0.110,0.085
3786,-0.015,0.070
3787,0.075,0.025
3788,0.130,0.025
3789,-0.025,0.035
3790,0.190,-0.005
3791,0.070,0.000
3792,-0.125,0.035
3793,0.150,0.000
3794,0.120,-0.005
3795,0.235,0.000
3796,0.080,0.010
3797,0.030,0.020
3798,0.220,0.010
3799,-0.170,0.075
3800,0.000,0.040
3801,0.000,0.065
3802,-0.125,0.090
3803,-0.100,0.085
3804,0.045,0.075
3805,0.050,0.070
3806,-0.235,0.110
3807,-0.100,0.090
3808,-0.010,0.070
3809,-0.110,0.085
3810,0.115,0.055
3811,-0.070,0.095
3812,-0.090,0.055
3813,-0.055,0.030
3814,0.005,0.000
3815,-0.090,-0.020
3816,0.035,0.000
3817,-0.165,0.010
3818,0.015,0.000
3819,-0.020,0.030
3820,-0.210,0.035
3821,-0.130,0.030
3822,-0.135,0.035
3823,-0.120,0.000
3824,0.040,0.015
3825,-0.250,0.035
3826,-0.160,0.020
3827,-0.060,0.025
3828,-0.155,0.020
3829,-0.245,0.025
3830,-0.095,0.005
3831,-0.240,0.035
3832,-0.050,0.015
3833,-0.175,0.050
3834,-0.325,0.040
3835,-0.130,0.030
3836,-0.035,0.005
3837,-0.350,0.025
3838,-0.240,0.050
3839,-0.155,0.050
3840,-0.195,0.020
3841,-0.050,-0.025
3842,0.055,-0.020
3843,0.210,-0.035
3844,0.230,-0.070
3845,0.050,-0.030
3846,0.105,-0.005
3847,-0.035,0.015
3848,-0.170,0.035
3849,-0.235,0.040
3850,-0.315,0.025
3851,-0.275,0.025
3852,-0.130,0.005
3853,-0.220,0.020
3854,-0.250,0.035
3855,-0.105,0.160
3856,-0.260,0.275
3857,-0.015,-0.090
3858,0.790,-0.550
3859,1.320,-1.325
3860,-0.010,-0.955
3861,-0.810,-0.460
3862,-0.550,-0.220
3863,-0.370,-0.085
3864,-0.345,0.010
3865,-0.240,0.050
3866,-0.350,0.070
3867,-0.330,0.095
3868,-0.465,0.090
3869,-0.330,0.080
3870,-0.315,0.105
3871,-0.350,0.050
3872,-0.315,0.085
3873,-0.400,0.110
3874,-0.290,0.100
3875,-0.400,0.130
3876,-0.565,0.120
3877,-0.390,0.065
3878,-0.285,0.070
3879,-0.345,0.095
3880,-0.370,0.060
3881,-0.410,0.085
3882,-0.315,0.005
3883,-0.355,0.050
3884,-0.365,0.010
3885,-0.235,0.005
3886,-0.290,0.000
3887,-0.330,0.030
3888,-0.255,0.000
3889,-0.245,-0.030
3890,-0.270,-0.035
3891,-0.120,-0.050
3892,-0.335,-0.025
3893,-0.230,-0.045
3894,-0.145,-0.045
3895,-0.095,-0.030
3896,-0.180,-0.050
3897,-0.225,-0.020
3898,-0.305,0.000
3899,-0.345,0.000
3900,-0.395,0.005
3901,-0.305,0.000
3902,-0.375,0.015
3903,-0.515,0.060
3904,-0.375,0.045
3905,-0.395,0.035
3906,-0.290,0.030
3907,-0.335,0.065
3908,-0.375,0.015
3909,-0.310,0.045
3910,-0.455,0.030
3911,-0.360,0.015
3912,-0.375,0.015
3913,-0.345,0.015
3914,-0.330,0.000
3915,-0.325,0.010
3916,-0.225,-0.010
3917,-0.285,0.010
3918,-0.460,0.005
3919,-0.290,0.000
3920,-0.475,0.030
3921,-0.620,0.025
3922,-0.445,0.015
3923,-0.400,0.010
3924,-0.540,0.030
3925,-0.420,0.025
3926,-0.555,0.035
3927,-0.480,0.010
3928,-0.510,0.000
3929,-0.525,0.020
3930,-0.510,0.000
3931,-0.510,0.015
3932,-0.525,-0.015
3933,-0.450,0.005
3934,-0.625,0.005
3935,-0.595,0.015
3936,-0.570,0.000
3937,-0.545,0.000
3938,-0.510,-0.005
3939,-0.460,-0.020
3940,-0.530,0.025
3941,-0.505,0.015
3942,-0.210,-0.035
3943,-0.200,-0.010
3944,-0.395,-0.035
3945,-0.465,-0.020
3946,-0.385,-0.015
3947,-0.480,0.030
3948,-0.625,-0.005
3949,-0.635,-0.005
3950,-0.565,-0.010
3951,-0.600,-0.035
3952,-0.600,-0.005
3953,-0.585,-0.005
3954,-0.570,0.010
3955,-0.625,0.140
3956,-0.480,0.030
3957,0.215,-0.235
3958,1.135,-0.750
3959,0.335,-1.085
3960,-1.040,-0.620
3961,-1.160,-0.290
3962,-0.845,-0.180
3963,-0.660,-0.070
3964,-0.660,-0.035
3965,-0.720,0.010
3966,-0.710,0.035
3967,-0.735,0.025
3968,-0.655,0.045
3969,-0.800,0.055
3970,-0.715,0.020
3971,-0.685,0.030
3972,-0.640,0.055
3973,-0.740,0.065
3974,-0.670,0.035
3975,-0.705,0.055
3976,-0.605,0.030
3977,-0.695,0.045
3978,-0.685,0.035
3979,-0.725,0.035
3980,-0.610,0.020
3981,-0.590,0.005
3982,-0.605,0.035
3983,-0.640,0.020
3984,-0.605,0.025
3985,-0.575,0.000
3986,-0.500,-0.010
3987,-0.540,-0.010
3988,-0.505,0.005
3989,-0.560,-0.010
3990,-0.545,-0.030
3991,-0.570,0.000
3992,-0.450,-0.005
3993,-0.440,0.005
3994,-0.420,-0.025
3995,-0.435,-0.015
3996,-0.490,0.020
3997,-0.455,0.020
3998,-0.565,0.015
3999,-0.520,0.005
4000,-0.730,0.070
4001,-0.690,0.065
4002,-0.665,0.030
4003,-0.640,0.040
4004,-0.650,0.080
4005,-0.600,0.090
4006,-0.605,0.070
4007,-0.625,0.070
4008,-0.465,0.060
4009,-0.435,0.070
4010,-0.515,0.070
4011,-0.470,0.120
4012,-0.385,0.070
4013,-0.440,0.065
4014,-0.405,0.040
4015,-0.455,0.045
4016,-0.485,0.070
4017,-0.510,0.045
4018,-0.505,0.065
4019,-0.565,0.065
4020,-0.520,0.060
4021,-0.590,0.065
4022,-0.500,0.065
4023,-0.570,0.045
4024,-0.565,0.045
4025,-0.565,0.050
4026,-0.600,0.055
4027,-0.640,0.045
4028,-0.635,0.040
4029,-0.665,0.040
4030,-0.615,0.030
4031,-0.590,0.010
4032,-0.665,0.045
4033,-0.560,0.000
4034,-0.475,0.020
4035,-0.770,0.065
4036,-0.675,0.050
4037,-0.635,0.040
4038,-0.600,0.035
4039,-0.655,0.040
4040,-0.675,0.055
4041,-0.585,0.065
4042,-0.545,0.085
4043,-0.470,0.075
4044,-0.370,0.080
4045,-0.360,0.025
4046,-0.390,0.030
4047,-0.460,0.050
4048,-0.440,0.060
4049,-0.595,0.030
4050,-0.585,0.045
4051,-0.615,0.050
4052,-0.560,0.055
4053,-0.595,0.065
4054,-0.595,0.065
4055,-0.545,0.060
4056,-0.535,0.125
4057,-0.585,0.210
4058,-0.165,0.060
4059,0.870,-0.070
4060,1.540,-0.585
4061,0.265,-0.695
4062,-1.120,-0.325
4063,-1.015,-0.135
4064,-0.650,-0.030
4065,-0.630,0.050
4066,-0.585,0.085
4067,-0.600,0.095
4068,-0.555,0.110
4069,-0.550,0.095
4070,-0.550,0.110
4071,-0.535,0.115
4072,-0.490,0.140
4073,-0.485,0.110
4074,-0.490,0.125
4075,-0.530,0.125
4076,-0.550,0.135
4077,-0.470,0.110
4078,-0.440,0.135
4079,-0.460,0.115
4080,-0.425,0.105
4081,-0.425,0.120
4082,-0.405,0.125
4083,-0.370,0.100
4084,-0.310,0.080
4085,-0.285,0.080
4086,-0.295,0.095
4087,-0.345,0.085
4088,-0.290,0.070
4089,-0.280,0.040
4090,-0.210,0.050
4091,-0.290,0.055
4092,-0.305,0.045
4093,-0.270,0.045
4094,-0.220,0.040
4095,-0.140,0.045
4096,-0.100,0.060
4097,-0.030,0.055
4098,-0.060,0.070
4099,-0.160,0.075
4100,-0.145,0.085
4101,-0.145,0.085
4102,-0.225,0.120
4103,-0.305,0.135
4104,-0.240,0.130
4105,-0.200,0.115
4106,-0.165,0.120
4107,-0.155,0.115
4108,-0.120,0.120
4109,-0.070,0.110
4110,-0.030,0.115
4111,-0.045,0.095
4112,0.015,0.095
4113,0.010,0.085
4114,-0.005,0.100
4115,-0.005,0.090
4116,0.000,0.105
4117,-0.010,0.095
4118,-0.060,0.105
4119,-0.055,0.095
4120,0.000,0.090
4121,-0.040,0.120
4122,-0.050,0.105
4123,-0.065,0.105
4124,-0.035,0.100
4125,-0.050,0.110
4126,-0.060,0.115
4127,-0.105,0.110
4128,-0.095,0.110
4129,-0.085,0.115
4130,-0.100,0.100
4131,-0.065,0.095
4132,-0.045,0.100
4133,-0.010,0.105
4134,-0.125,0.130
4135,-0.060,0.115
4136,-0.070,0.110
4137,-0.010,0.110
4138,0.030,0.125
4139,-0.085,0.125
4140,-0.035,0.130
4141,-0.075,0.125
4142,-0.050,0.115
4143,-0.030,0.110
4144,0.020,0.115
4145,-0.020,0.145
4146,-0.045,0.125
4147,0.025,0.125
4148,-0.015,0.120
4149,0.025,0.125
4150,0.070,0.140
4151,0.165,0.145
4152,0.225,0.140
4153,0.325,0.085
4154,0.280,0.065
4155,0.215,0.090
4156,0.255,0.110
4157,0.045,0.145
4158,0.000,0.130
4159,0.015,0.105
4160,-0.015,0.125
4161,0.010,0.115
4162,0.035,0.120
4163,0.065,0.120
4164,0.000,0.150
4165,0.005,0.250
4166,0.090,0.260
4167,0.635,0.015
4168,1.575,-0.335
4169,1.765,-0.975
4170,0.385,-0.820
4171,-0.485,-0.390
4172,-0.285,-0.100
4173,-0.085,0.005
4174,-0.065,0.110
4175,-0.005,0.150
4176,-0.040,0.165
4177,0.005,0.160
4178,0.015,0.160
4179,0.015,0.175
4180,-0.020,0.180
4181,0.055,0.170
4182,0.010,0.170
4183,0.040,0.175
4184,0.015,0.175
4185,0.020,0.190
4186,0.065,0.165
4187,0.080,0.180
4188,0.060,0.160
4189,0.115,0.160
4190,0.110,0.170
4191,0.115,0.155
4192,0.150,0.145
4193,0.225,0.130
4194,0.265,0.110
4195,0.255,0.110
4196,0.235,0.115
4197,0.195,0.085
4198,0.315,0.080
4199,0.265,0.080
4200,0.285,0.060
4201,0.315,0.065
4202,0.335,0.055
4203,0.385,0.035
4204,0.410,0.050
4205,0.485,0.035
4206,0.475,0.030
4207,0.500,0.040
4208,0.405,0.050
4209,0.350,0.060
4210,0.345,0.065
4211,0.370,0.085
4212,0.250,0.080
4213,0.300,0.100
4214,0.240,0.120
4215,0.270,0.125
4216,0.275,0.110
4217,0.335,0.105
4218,0.335,0.100
4219,0.390,0.095
4220,0.450,0.085
4221,0.400,0.080
4222,0.285,0.085
4223,0.425,0.070
4224,0.330,0.065
4225,0.315,0.075
4226,0.365,0.065
4227,0.345,0.070
4228,0.305,0.055
4229,0.330,0.040
4230,0.300,0.055
4231,0.320,0.075
4232,0.290,0.060
4233,0.335,0.060
4234,0.290,0.065
4235,0.310,0.060
4236,0.285,0.070
4237,0.285,0.070
4238,0.265,0.070
4239,0.300,0.070
4240,0.295,0.075
4241,0.270,0.070
4242,0.280,0.075
4243,0.350,0.075
4244,0.365,0.065
4245,0.320,0.080
4246,0.275,0.070
4247,0.325,0.070
4248,0.330,0.070
4249,0.370,0.070
4250,0.360,0.060
4251,0.365,0.060
4252,0.380,0.075
4253,0.300,0.085
4254,0.305,0.055
4255,0.400,0.060
4256,0.405,0.085
4257,0.410,0.100
4258,0.535,0.060
4259,0.735,0.035
4260,0.695,-0.005
4261,0.600,0.025
4262,0.505,0.075
4263,0.495,0.090
4264,0.345,0.085
4265,0.375,0.075
4266,0.340,0.070
4267,0.335,0.070
4268,0.330,0.080
4269,0.375,0.065
4270,0.315,0.090
4271,0.335,0.165
4272,0.340,0.295
4273,0.445,0.065
4274,1.210,-0.260
4275,1.925,-0.990
4276,1.265,-1.175
4277,-0.050,-0.625
4278,-0.080,-0.225
4279,0.180,-0.065
4280,0.245,0.020
4281,0.290,0.095
4282,0.305,0.110
4283,0.310,0.135
4284,0.265,0.135
4285,0.285,0.150
4286,0.295,0.130
4287,0.280,0.150
4288,0.260,0.140
4289,0.250,0.145
4290,0.280,0.140
4291,0.280,0.140
4292,0.350,0.145
4293,0.335,0.145
4294,0.270,0.145
4295,0.295,0.140
4296,0.375,0.135
4297,0.370,0.135
4298,0.380,0.125
4299,0.390,0.130
4300,0.420,0.110
4301,0.470,0.110
4302,0.470,0.085
4303,0.500,0.085
4304,0.505,0.070
4305,0.500,0.030
4306,0.565,0.030
4307,0.560,0.025
4308,0.550,0.025
4309,0.600,0.020
4310,0.620,0.010
4311,0.615,0.015
4312,0.650,0.010
4313,0.605,0.010
4314,0.595,0.020
4315,0.470,0.055
4316,0.470,0.065
4317,0.470,0.045
4318,0.475,0.065
4319,0.360,0.095
4320,0.375,0.095
4321,0.400,0.095
4322,0.450,0.085
4323,0.375,0.110
4324,0.360,0.090
4325,0.400,0.075
4326,0.415,0.060
4327,0.375,0.050
4328,0.460,0.035
4329,0.340,0.040
4330,0.415,0.030
4331,0.410,0.035
4332,0.380,0.045
4333,0.355,0.030
4334,0.375,0.025
4335,0.370,0.030
4336,0.300,0.050
4337,0.285,0.040
4338,0.375,0.015
4339,0.225,0.045
4340,0.210,0.045
4341,0.250,0.040
4342,0.275,0.030
4343,0.230,0.040
4344,0.200,0.040
4345,0.170,0.030
4346,0.225,0.035
4347,0.235,0.020
4348,0.225,0.035
4349,0.080,0.045
4350,0.140,0.035
4351,0.145,0.035
4352,0.200,0.040
4353,0.150,0.025
4354,0.200,0.025
4355,0.155,0.040
4356,0.065,0.040
4357,0.090,0.045
4358,0.135,0.025
4359,0.060,0.015
4360,0.095,0.020
4361,0.105,0.030
4362,0.130,0.060
4363,0.225,0.045
4364,0.305,0.030
4365,0.350,0.000
4366,0.365,-0.025
4367,0.260,-0.020
4368,0.195,0.010
4369,0.220,0.015
4370,-0.020,0.065
4371,-0.065,0.040
4372,0.010,0.035
4373,0.000,0.035
4374,-0.005,0.040
4375,-0.010,0.040
4376,-0.025,0.050
4377,-0.015,0.135
4378,-0.040,0.245
4379,0.195,-0.065
4380,1.055,-0.490
4381,1.450,-1.205
4382,0.225,-0.930
4383,-0.680,-0.395
4384,-0.430,-0.205
4385,-0.265,-0.080
4386,-0.160,0.005
4387,-0.145,0.035
4388,-0.160,0.055
4389,-0.160,0.065
4390,-0.110,0.060
4391,-0.145,0.090
4392,-0.235,0.085
4393,-0.225,0.095
4394,-0.170,0.095
4395,-0.205,0.085
4396,-0.160,0.095
4397,-0.195,0.065
4398,-0.180,0.080
4399,-0.190,0.055
4400,-0.180,0.075
4401,-0.220,0.090
4402,-0.195,0.075
4403,-0.180,0.065
4404,-0.120,0.045
4405,-0.100,0.030
4406,-0.060,0.035
4407,-0.045,0.030
4408,-0.055,0.035
4409,-0.030,0.005
4410,-0.005,-0.010
4411,-0.040,-0.005
4412,-0.030,0.000
4413,-0.055,0.000
4414,0.010,-0.025
4415,0.040,-0.040
4416,0.100,-0.035
4417,0.040,-0.030
4418,0.120,-0.045
4419,0.040,-0.005
4420,0.025,-0.005
4421,-0.005,0.000
4422,-0.050,0.010
4423,-0.050,0.015
4424,-0.075,0.020
4425,-0.085,0.040
4426,0.005,0.040
4427,-0.100,0.055
4428,-0.040,0.030
4429,-0.020,0.030
4430,0.010,0.030
4431,0.020,0.005
4432,0.040,0.005
4433,0.000,0.005
4434,0.055,0.000
4435,0.010,0.000
4436,0.030,0.010
4437,0.080,0.000
4438,0.015,0.000
4439,-0.005,0.000
4440,-0.010,0.005
4441,0.000,0.000
4442,-0.080,0.030
4443,-0.105,0.030
4444,-0.065,0.020
4445,-0.095,0.010
4446,-0.080,0.025
4447,-0.075,0.010
4448,-0.055,0.025
4449,-0.115,0.010
4450,-0.110,0.005
4451,-0.125,0.020
4452,-0.110,0.010
4453,-0.125,0.000
4454,-0.155,0.015
4455,-0.130,0.000
4456,-0.105,0.015
4457,-0.150,0.010
4458,-0.110,0.025
4459,-0.115,0.000
4460,-0.140,0.005
4461,-0.135,0.000
4462,-0.130,0.010
4463,-0.115,0.000
4464,-0.120,0.000
4465,-0.145,0.000
4466,-0.110,0.000
4467,-0.105,0.015
4468,-0.015,0.020
4469,0.090,0.000
4470,0.205,-0.010
4471,0.220,-0.065
4472,0.080,-0.035
4473,0.000,-0.010
4474,-0.030,0.005
4475,-0.165,0.010
4476,-0.150,0.015
4477,-0.230,0.020
4478,-0.160,0.000
4479,-0.170,0.000
4480,-0.140,0.000
4481,-0.195,0.005
4482,-0.150,0.120
4483,-0.230,0.185
4484,0.145,-0.110
4485,1.055,-0.530
4486,1.495,-1.205
4487,0.275,-0.955
4488,-0.720,-0.445
4489,-0.525,-0.225
4490,-0.295,-0.100
4491,-0.335,-0.010
4492,-0.255,0.020
4493,-0.230,0.045
4494,-0.260,0.065
4495,-0.270,0.060
4496,-0.265,0.090
4497,-0.340,0.095
4498,-0.265,0.105
4499,-0.275,0.080
4500,-0.255,0.085
4501,-0.270,0.095
4502,-0.255,0.100
4503,-0.250,0.080
4504,-0.170,0.085
4505,-0.210,0.070
4506,-0.195,0.075
4507,-0.225,0.065
4508,-0.185,0.065
4509,-0.190,0.065
4510,-0.125,0.040
4511,-0.130,0.030
4512,-0.075,0.010
4513,-0.095,0.005
4514,-0.045,0.000
4515,-0.085,-0.015
4516,-0.055,-0.005
4517,-0.075,-0.005
4518,-0.075,-0.020
4519,-0.045,0.000
4520,0.055,-0.020
4521,0.010,-0.045
4522,0.080,-0.005
4523,0.035,-0.010
4524,0.005,-0.015
4525,0.040,-0.020
4526,0.000,0.015
4527,-0.110,0.025
4528,-0.105,0.040
4529,-0.180,0.060
4530,-0.145,0.055
4531,-0.160,0.080
4532,-0.145,0.075
4533,-0.070,0.060
4534,-0.120,0.070
4535,-0.115,0.040
4536,-0.085,0.055
4537,-0.095,0.045
4538,-0.100,0.045
4539,-0.070,0.020
4540,-0.040,0.015
4541,-0.080,0.010
4542,-0.115,0.005
4543,-0.135,0.030
4544,-0.100,0.005
4545,-0.150,0.020
4546,-0.135,0.030
4547,-0.180,0.020
4548,-0.175,0.040
4549,-0.210,0.030
4550,-0.195,0.045
4551,-0.190,0.025
4552,-0.235,0.040
4553,-0.235,0.050
4554,-0.250,0.055
4555,-0.270,0.035
4556,-0.245,0.050
4557,-0.240,0.035
4558,-0.235,0.045
4559,-0.240,0.040
4560,-0.185,0.025
4561,-0.195,0.045
4562,-0.265,0.030
4563,-0.240,0.030
4564,-0.235,0.045
4565,-0.155,0.020
4566,-0.235,0.055
4567,-0.330,0.050
4568,-0.260,0.035
4569,-0.245,0.030
4570,-0.240,0.045
4571,-0.195,0.035
4572,-0.190,0.055
4573,-0.060,0.030
4574,0.075,0.020
4575,0.025,-0.020
4576,-0.005,-0.030
4577,-0.125,0.000
4578,-0.175,0.035
4579,-0.280,0.035
4580,-0.325,0.045
4581,-0.330,0.025
4582,-0.320,0.025
4583,-0.310,0.015
4584,-0.300,0.045
4585,-0.330,0.025
4586,-0.315,0.145
4587,-0.390,0.245
4588,-0.160,-0.100
4589,0.775,-0.505
4590,1.380,-1.265
4591,0.190,-1.040
4592,-0.810,-0.515
4593,-0.645,-0.220
4594,-0.445,-0.105
4595,-0.475,0.000
4596,-0.435,0.055
4597,-0.445,0.070
4598,-0.440,0.085
4599,-0.395,0.065
4600,-0.385,0.075
4601,-0.415,0.090
4602,-0.380,0.090
4603,-0.395,0.090
4604,-0.360,0.075
4605,-0.380,0.095
4606,-0.405,0.090
4607,-0.370,0.080
4608,-0.335,0.080
4609,-0.360,0.080
4610,-0.330,0.090
4611,-0.320,0.070
4612,-0.315,0.085
4613,-0.305,0.060
4614,-0.245,0.045
4615,-0.210,0.025
4616,-0.215,0.020
4617,-0.165,0.005
4618,-0.185,-0.015
4619,-0.190,-0.020
4620,-0.175,-0.025
4621,-0.135,-0.030
4622,-0.075,-0.035
4623,-0.105,-0.030
4624,-0.110,-0.055
4625,-0.075,-0.065
4626,-0.035,-0.055
4627,-0.065,-0.055
4628,-0.080,-0.040
4629,-0.095,-0.025
4630,-0.120,-0.005
4631,-0.265,0.000
4632,-0.230,0.020
4633,-0.270,0.010
4634,-0.290,0.035
4635,-0.265,0.030
4636,-0.190,0.050
4637,-0.315,0.055
4638,-0.285,0.045
4639,-0.240,0.025
4640,-0.185,0.025
4641,-0.225,0.015
4642,-0.180,-0.005
4643,-0.185,0.000
4644,-0.240,0.005
4645,-0.250,0.000
4646,-0.285,0.000
4647,-0.260,0.000
4648,-0.240,0.005
4649,-0.300,0.005
4650,-0.260,0.000
4651,-0.290,0.005
4652,-0.295,0.015
4653,-0.310,0.025
4654,-0.320,0.025
4655,-0.400,0.030
4656,-0.365,0.010
4657,-0.360,0.015
4658,-0.335,0.020
4659,-0.420,0.030
4660,-0.400,0.030
4661,-0.375,0.005
4662,-0.350,0.020
4663,-0.410,0.020
4664,-0.335,0.005
4665,-0.390,0.000
4666,-0.445,0.025
4667,-0.415,0.010
4668,-0.365,0.005
4669,-0.390,0.000
4670,-0.490,0.015
4671,-0.460,0.020
4672,-0.455,0.005
4673,-0.415,0.000
4674,-0.410,0.005
4675,-0.380,0.015
4676,-0.245,0.005
4677,-0.150,-0.005
4678,-0.150,-0.050
4679,-0.190,-0.055
4680,-0.290,-0.010
4681,-0.340,-0.005
4682,-0.445,0.000
4683,-0.490,0.000
4684,-0.505,0.005
4685,-0.555,0.005
4686,-0.505,-0.025
4687,-0.470,0.000
4688,-0.565,0.015
4689,-0.560,0.095
4690,-0.530,0.205
4691,-0.360,-0.120
4692,0.555,-0.480
4693,1.225,-1.225
4694,0.055,-1.055
4695,-1.045,-0.480
4696,-0.865,-0.235
4697,-0.675,-0.140
4698,-0.605,-0.035
4699,-0.570,0.005
4700,-0.560,0.020
4701,-0.585,0.040
4702,-0.600,0.030
4703,-0.590,0.040
4704,-0.540,0.050
4705,-0.555,0.050
4706,-0.585,0.060
4707,-0.550,0.040
4708,-0.520,0.055
4709,-0.555,0.060
4710,-0.585,0.060
4711,-0.540,0.035
4712,-0.530,0.055
4713,-0.490,0.055
4714,-0.505,0.070
4715,-0.460,0.030
4716,-0.430,0.010
4717,-0.400,0.005
4718,-0.355,-0.010
4719,-0.345,-0.010
4720,-0.355,-0.030
4721,-0.340,-0.030
4722,-0.340,-0.025
4723,-0.310,-0.045
4724,-0.305,-0.050
4725,-0.260,-0.055
4726,-0.260,-0.060
4727,-0.185,-0.095
4728,-0.180,-0.080
4729,-0.205,-0.060
4730,-0.160,-0.065
4731,-0.160,-0.045
4732,-0.230,-0.035
4733,-0.325,0.000
4734,-0.355,-0.005
4735,-0.325,-0.025
4736,-0.335,0.000
4737,-0.335,0.015
4738,-0.340,0.015
4739,-0.365,0.015
4740,-0.315,0.000
4741,-0.315,0.020
4742,-0.255,0.015
4743,-0.280,0.005
4744,-0.255,-0.005
4745,-0.235,-0.025
4746,-0.215,-0.015
4747,-0.245,-0.020
4748,-0.225,-0.010
4749,-0.250,-0.040
4750,-0.200,-0.015
4751,-0.300,-0.015
4752,-0.290,-0.005
4753,-0.265,-0.015
4754,-0.305,0.000
4755,-0.325,0.000
4756,-0.325,0.000
4757,-0.340,0.005
4758,-0.320,0.005
4759,-0.345,-0.010
4760,-0.305,0.000
4761,-0.300,0.000
4762,-0.340,0.015
4763,-0.360,0.030
4764,-0.360,0.015
4765,-0.340,0.015
4766,-0.345,0.020
4767,-0.375,0.010
4768,-0.330,0.025
4769,-0.350,0.020
4770,-0.315,0.010
4771,-0.330,0.005
4772,-0.300,0.030
4773,-0.360,0.015
4774,-0.330,0.025
4775,-0.320,0.000
4776,-0.250,0.015
4777,-0.320,0.045
4778,-0.235,0.055
4779,-0.120,0.040
4780,-0.015,-0.010
4781,-0.020,-0.040
4782,-0.055,-0.010
4783,-0.190,0.015
4784,-0.215,0.050
4785,-0.375,0.050
4786,-0.345,0.035
4787,-0.375,0.020
4788,-0.355,0.025
4789,-0.355,0.035
4790,-0.310,0.040
4791,-0.355,0.065
4792,-0.335,0.225
4793,-0.340,0.130
4794,0.210,-0.225
4795,1.135,-0.800
4796,1.090,-1.295
4797,-0.365,-0.730
4798,-0.780,-0.320
4799,-0.520,-0.160
4800,-0.445,-0.050
4801,-0.415,0.020
4802,-0.365,0.060
4803,-0.365,0.075
4804,-0.350,0.090
4805,-0.460,0.095
4806,-0.410,0.100
4807,-0.385,0.115
4808,-0.360,0.090
4809,-0.380,0.100
4810,-0.380,0.110
4811,-0.375,0.120
4812,-0.330,0.100
4813,-0.335,0.100
4814,-0.320,0.100
4815,-0.305,0.095
4816,-0.295,0.110
4817,-0.290,0.090
4818,-0.225,0.075
4819,-0.215,0.075
4820,-0.215,0.090
4821,-0.170,0.025
4822,-0.130,0.030
4823,-0.125,0.010
4824,-0.085,0.000
4825,-0.080,-0.015
4826,-0.020,-0.010
4827,-0.055,-0.015
4828,0.000,-0.020
4829,0.005,-0.035
4830,0.040,-0.050
4831,0.070,-0.035
4832,0.100,-0.020
4833,0.070,-0.020
4834,0.015,0.000
4835,-0.060,0.000
4836,-0.100,0.005
4837,-0.140,0.030
4838,-0.130,0.020
4839,-0.140,0.040
4840,-0.155,0.065
4841,-0.195,0.040
4842,-0.150,0.070
4843,-0.140,0.055
4844,-0.140,0.060
4845,-0.130,0.045
4846,-0.090,0.020
4847,-0.115,0.030
4848,-0.070,0.025
4849,-0.110,0.010
4850,-0.085,0.010
4851,-0.075,0.000
4852,-0.090,0.005
4853,-0.100,0.010
4854,-0.095,0.000
4855,-0.090,0.000
4856,-0.140,0.010
4857,-0.165,0.000
4858,-0.145,0.015
4859,-0.210,0.010
4860,-0.145,0.020
4861,-0.215,0.010
4862,-0.170,0.020
4863,-0.180,0.015
4864,-0.200,0.020
4865,-0.210,0.025
4866,-0.135,0.030
4867,-0.255,0.025
4868,-0.190,0.030
4869,-0.185,0.015
4870,-0.195,0.020
4871,-0.245,0.015
4872,-0.180,0.035
4873,-0.220,0.030
4874,-0.190,0.010
4875,-0.215,0.010
4876,-0.170,0.020
4877,-0.175,0.010
4878,-0.230,0.025
4879,-0.145,0.030
4880,-0.060,0.025
4881,0.035,0.035
4882,0.135,-0.015
4883,0.035,-0.045
4884,0.005,-0.010
4885,-0.080,0.020
4886,-0.095,0.025
4887,-0.240,0.010
4888,-0.225,0.005
4889,-0.260,0.015
4890,-0.225,0.015
4891,-0.220,0.000
4892,-0.195,0.025
4893,-0.275,0.070
4894,-0.280,0.195
4895,-0.280,0.145
4896,0.130,-0.170
4897,1.080,-0.745
4898,1.170,-1.305
4899,-0.105,-0.845
4900,-0.685,-0.420
4901,-0.505,-0.185
4902,-0.395,-0.055
4903,-0.360,0.020
4904,-0.310,0.055
4905,-0.360,0.070
4906,-0.320,0.080
4907,-0.320,0.080
4908,-0.335,0.095
4909,-0.335,0.080
4910,-0.270,0.100
4911,-0.335,0.105
4912,-0.285,0.080
4913,-0.295,0.090
4914,-0.250,0.095
4915,-0.290,0.100
4916,-0.250,0.110
4917,-0.255,0.105
4918,-0.175,0.095
4919,-0.215,0.090
4920,-0.195,0.085
4921,-0.175,0.070
4922,-0.125,0.050
4923,-0.100,0.045
4924,-0.075,0.040
4925,-0.035,0.015
4926,0.010,0.005
4927,-0.015,0.000
4928,0.035,0.000
4929,0.010,-0.025
4930,0.055,-0.010
4931,0.050,-0.025
4932,0.140,-0.045
4933,0.140,-0.035
4934,0.110,-0.035
4935,0.090,-0.045
4936,0.080,-0.015
4937,0.010,0.000
4938,-0.065,0.015
4939,-0.090,0.020
4940,-0.130,0.035
4941,-0.170,0.050
4942,-0.125,0.045
4943,-0.150,0.065
4944,-0.155,0.075
4945,-0.135,0.050
4946,-0.095,0.050
4947,-0.100,0.040
4948,-0.070,0.045
4949,-0.110,0.030
4950,-0.070,0.015
4951,-0.100,0.000
4952,-0.060,0.010
4953,-0.065,0.000
4954,-0.095,0.000
4955,-0.110,-0.005
4956,-0.135,0.000
4957,-0.175,0.010
4958,-0.150,0.005
4959,-0.175,0.010
4960,-0.165,0.005
4961,-0.205,0.010
4962,-0.205,0.020
4963,-0.200,0.010
4964,-0.235,0.025
4965,-0.250,0.020
4966,-0.240,0.035
4967,-0.265,0.015
4968,-0.195,0.010
4969,-0.255,0.025
4970,-0.230,0.025
4971,-0.315,0.020
4972,-0.260,0.030
4973,-0.285,0.025
4974,-0.290,0.020
4975,-0.280,0.020
4976,-0.235,0.020
4977,-0.285,0.020
4978,-0.210,0.015
4979,-0.295,0.005
4980,-0.300,0.010
4981,-0.275,0.020
4982,-0.220,0.015
4983,-0.105,0.010
4984,0.015,0.000
4985,-0.010,-0.055
4986,-0.030,-0.040
4987,-0.155,-0.010
4988,-0.145,0.005
4989,-0.335,0.015
4990,-0.330,0.005
4991,-0.350,0.005
4992,-0.365,0.000
4993,-0.380,0.015
4994,-0.325,0.000
4995,-0.300,0.020
4996,-0.355,0.130
4997,-0.430,0.230
4998,-0.220,-0.080
4999,0.660,-0.505
5000,1.300,-1.230
5001,0.270,-1.055
5002,-0.775,-0.485
5003,-0.680,-0.220
5004,-0.475,-0.105
5005,-0.475,0.000
5006,-0.450,0.060
5007,-0.460,0.070
5008,-0.445,0.070
5009,-0.395,0.075
5010,-0.420,0.085
5011,-0.465,0.095
5012,-0.440,0.095
5013,-0.425,0.105
5014,-0.390,0.090
5015,-0.405,0.110
5016,-0.415,0.080
5017,-0.390,0.110
5018,-0.380,0.095
5019,-0.335,0.075
5020,-0.335,0.085
5021,-0.390,0.115
5022,-0.335,0.085
5023,-0.275,0.060
5024,-0.240,0.060
5025,-0.245,0.065
5026,-0.205,0.045
5027,-0.205,0.030
5028,-0.140,0.010
5029,-0.110,0.000
5030,-0.130,0.000
5031,-0.120,0.000
5032,-0.115,-0.010
5033,-0.075,-0.010
5034,0.000,-0.030
5035,0.060,-0.030
5036,0.000,-0.015
5037,0.005,0.000
5038,-0.020,-0.010
5039,-0.100,0.010
5040,-0.140,0.040
5041,-0.160,0.040
5042,-0.220,0.050
5043,-0.245,0.065
5044,-0.225,0.075
5045,-0.195,0.095
5046,-0.255,0.100
5047,-0.235,0.100
5048,-0.205,0.085
5049,-0.175,0.080
5050,-0.135,0.060
5051,-0.180,0.065
5052,-0.175,0.050
5053,-0.145,0.065
5054,-0.090,0.035
5055,-0.140,0.045
5056,-0.130,0.030
5057,-0.150,0.035
5058,-0.175,0.045
5059,-0.195,0.050
5060,-0.200,0.045
5061,-0.225,0.055
5062,-0.215,0.055
5063,-0.225,0.065
5064,-0.220,0.050
5065,-0.230,0.065
5066,-0.235,0.055
5067,-0.230,0.065
5068,-0.260,0.060
5069,-0.215,0.045
5070,-0.225,0.065
5071,-0.280,0.090
5072,-0.265,0.080
5073,-0.260,0.065
5074,-0.300,0.060
5075,-0.260,0.070
5076,-0.235,0.065
5077,-0.220,0.080
5078,-0.270,0.060
5079,-0.215,0.070
5080,-0.255,0.065
5081,-0.245,0.055
5082,-0.255,0.060
5083,-0.245,0.070
5084,-0.250,0.055
5085,-0.220,0.080
5086,-0.185,0.080
5087,-0.030,0.065
5088,0.040,0.010
5089,0.075,-0.025
5090,-0.025,0.000
5091,-0.090,0.045
5092,-0.185,0.065
5093,-0.295,0.070
5094,-0.275,0.045
5095,-0.265,0.065
5096,-0.375,0.055
5097,-0.280,0.040
5098,-0.300,0.045
5099,-0.235,0.045
5100,-0.280,0.190
5101,-0.350,0.255
5102,-0.090,-0.110
5103,0.875,-0.605
5104,1.345,-1.305
5105,0.195,-0.955
5106,-0.780,-0.450
5107,-0.600,-0.190
5108,-0.395,-0.090
5109,-0.410,0.015
5110,-0.385,0.065
5111,-0.340,0.085
5112,-0.380,0.095
5113,-0.305,0.100
5114,-0.390,0.100
5115,-0.380,0.105
5116,-0.355,0.105
5117,-0.345,0.125
5118,-0.380,0.110
5119,-0.330,0.110
5120,-0.340,0.125
5121,-0.295,0.115
5122,-0.310,0.115
5123,-0.255,0.115
5124,-0.280,0.115
5125,-0.210,0.110
5126,-0.280,0.100
5127,-0.215,0.105
5128,-0.195,0.075
5129,-0.110,0.055
5130,-0.095,0.045
5131,-0.090,0.045
5132,-0.065,0.010
5133,-0.010,0.010
5134,-0.065,0.000
5135,0.000,-0.005
5136,0.005,-0.005
5137,0.005,-0.005
5138,0.035,-0.015
5139,0.145,-0.035
5140,0.135,-0.020
5141,0.075,-0.010
5142,0.035,-0.010
5143,0.025,-0.005
5144,-0.050,0.025
5145,-0.085,0.035
5146,-0.160,0.055
5147,-0.120,0.060
5148,-0.155,0.075
5149,-0.150,0.095
5150,-0.165,0.090
5151,-0.085,0.100
5152,-0.135,0.095
5153,-0.095,0.090
5154,-0.080,0.070
5155,-0.095,0.040
5156,-0.095,0.045
5157,-0.075,0.045
5158,-0.050,0.040
5159,-0.095,0.035
5160,-0.085,0.040
5161,-0.085,0.050
5162,-0.120,0.030
5163,-0.110,0.045
5164,-0.120,0.035
5165,-0.095,0.050
5166,-0.165,0.060
5167,-0.135,0.060
5168,-0.190,0.065
5169,-0.125,0.060
5170,-0.180,0.070
5171,-0.190,0.075
5172,-0.170,0.085
5173,-0.140,0.055
5174,-0.180,0.065
5175,-0.195,0.085
5176,-0.160,0.075
5177,-0.090,0.070
5178,-0.230,0.090
5179,-0.240,0.090
5180,-0.185,0.100
5181,-0.185,0.085
5182,-0.185,0.095
5183,-0.150,0.105
5184,-0.180,0.090
5185,-0.200,0.095
5186,-0.165,0.090
5187,-0.155,0.075
5188,-0.170,0.080
5189,-0.155,0.090
5190,-0.070,0.090
5191,-0.020,0.095
5192,0.060,0.075
5193,0.185,0.020
5194,0.060,0.015
5195,-0.050,0.045
5196,-0.015,0.065
5197,-0.180,0.085
5198,-0.225,0.100
5199,-0.230,0.090
5200,-0.225,0.085
5201,-0.225,0.065
5202,-0.195,0.070
5203,-0.215,0.095
5204,-0.210,0.135
5205,-0.245,0.305
5206,-0.235,0.105
5207,0.380,-0.225
5208,1.305,-0.920
5209,0.895,-1.265
5210,-0.420,-0.600
5211,-0.660,-0.240
5212,-0.390,-0.095
5213,-0.335,0.020
5214,-0.290,0.085
5215,-0.330,0.105
5216,-0.290,0.120
5217,-0.325,0.110
5218,-0.275,0.120
5219,-0.295,0.145
5220,-0.310,0.155
5221,-0.320,0.145
5222,-0.295,0.150
5223,-0.340,0.160
5224,-0.305,0.140
5225,-0.325,0.120
5226,-0.305,0.130
5227,-0.320,0.140
5228,-0.275,0.140
5229,-0.295,0.125
5230,-0.270,0.110
5231,-0.290,0.100
5232,-0.255,0.105
5233,-0.290,0.075
5234,-0.235,0.085
5235,-0.265,0.095
5236,-0.195,0.075
5237,-0.185,0.075
5238,-0.160,0.055
5239,-0.200,0.020
5240,-0.155,0.060
5241,-0.160,0.035
5242,-0.105,0.005
5243,-0.085,0.025
5244,-0.065,0.080
5245,-0.080,0.055
5246,-0.130,0.050
5247,-0.130,0.075
5248,-0.250,0.135
5249,-0.330,0.135
5250,-0.300,0.155
5251,-0.380,0.165
5252,-0.360,0.150
5253,-0.435,0.180
5254,-0.395,0.175
5255,-0.425,0.190
5256,-0.415,0.185
5257,-0.425,0.195
5258,-0.375,0.175
5259,-0.380,0.160
5260,-0.360,0.140
5261,-0.355,0.165
5262,-0.280,0.165
5263,-0.330,0.160
5264,-0.335,0.165
5265,-0.380,0.165
5266,-0.350,0.165
5267,-0.355,0.165
5268,-0.340,0.200
5269,-0.335,0.210
5270,-0.310,0.190
5271,-0.335,0.205
5272,-0.370,0.230
5273,-0.335,0.195
5274,-0.345,0.160
5275,-0.430,0.170
5276,-0.430,0.200
5277,-0.405,0.225
5278,-0.410,0.215
5279,-0.440,0.255
5280,-0.470,0.195
5281,-0.415,0.145
5282,-0.475,0.150
5283,-0.475,0.225
5284,-0.450,0.240
5285,-0.575,0.185
5286,-0.645,0.185
5287,-0.560,0.190
5288,-0.565,0.120
5289,-0.675,0.210
5290,-0.580,0.225
5291,-0.670,0.200
5292,-0.690,0.235
5293,-0.655,0.170
5294,-0.685,0.175
5295,-0.575,0.220
5296,-0.610,0.240
5297,-0.535,0.240
5298,-0.405,0.185
5299,-0.380,0.265
5300,-0.405,0.085
5301,-0.545,0.140
5302,-0.575,0.175
5303,-0.655,0.160
5304,-0.675,0.110
5305,-0.730,0.190
5306,-0.740,0.080
5307,-0.755,0.085
5308,-0.705,0.065
5309,-0.715,0.125
5310,-0.905,0.130
5311,-0.800,0.195
5312,-0.540,0.075
5313,0.435,-0.150
5314,0.980,-0.610
5315,-0.375,-0.685
5316,-1.235,-0.260
5317,-1.000,-0.005
5318,-0.850,0.100
5319,-0.765,0.175
5320,-0.770,0.235
5321,-0.765,0.080
5322,-0.755,0.070
5323,-0.795,0.120
5324,-0.730,0.135
5325,-0.755,0.165
5326,-0.730,0.220
5327,-0.740,0.250
5328,-0.755,0.220
5329,-0.755,0.085
5330,-0.720,0.120
5331,-0.705,0.125
5332,-0.665,0.140
5333,-0.640,0.220
5334,-0.700,0.150
5335,-0.610,0.080
5336,-0.665,0.175
5337,-0.565,0.140
5338,-0.580,0.175
5339,-0.505,0.120
5340,-0.540,0.155
5341,-0.500,0.230
5342,-0.470,0.245
5343,-0.460,0.165
5344,-0.480,0.210
5345,-0.450,0.200
5346,-0.500,0.140
5347,-0.470,0.070
5348,-0.480,0.135
5349,-0.375,0.035
5350,-0.390,0.095
5351,-0.330,0.065
5352,-0.410,0.155
5353,-0.415,0.115
5354,-0.510,0.160
5355,-0.520,0.260
5356,-0.555,0.185
5357,-0.625,0.165
5358,-0.620,0.225
5359,-0.615,0.200
5360,-0.630,0.150
5361,-0.565,0.135
5362,-0.560,0.160
5363,-0.530,0.100
5364,-0.540,0.190
5365,-0.490,0.115
5366,-0.500,0.225
5367,-0.480,0.210
5368,-0.485,0.130
5369,-0.490,0.165
5370,-0.495,0.005
5371,-0.510,0.095
5372,-0.555,0.180
5373,-0.495,0.095
5374,-0.500,0.125
5375,-0.495,0.145
5376,-0.520,0.185
5377,-0.505,0.105
5378,-0.460,0.055
5379,-0.455,0.060
5380,-0.460,0.140
5381,-0.430,0.035
5382,-0.480,0.045
5383,-0.515,0.085
5384,-0.505,0.085
5385,-0.490,0.090
5386,-0.505,0.100
5387,-0.485,0.120
5388,-0.435,0.140
5389,-0.355,0.165
5390,-0.355,0.180
5391,-0.350,0.130
5392,-0.295,0.135
5393,-0.295,0.125
5394,-0.300,0.115
5395,-0.260,0.160
5396,-0.205,0.085
5397,-0.180,0.135
5398,-0.170,0.195
5399,-0.235,0.025
5400,-0.160,0.150
5401,-0.125,0.150
5402,0.060,0.165
5403,0.075,0.100
5404,0.070,0.075
5405,0.000,0.115
5406,-0.070,0.120
5407,-0.150,0.090
5408,-0.230,0.105
5409,-0.250,0.110
5410,-0.240,0.100
5411,-0.275,0.145
5412,-0.280,0.160
5413,-0.305,0.215
5414,-0.285,-0.040
5415,-0.290,0.255
5416,-0.255,0.075
5417,0.255,0.000
5418,1.210,-0.260
5419,1.195,-0.880
5420,-0.385,-0.655
5421,-0.860,-0.205
5422,-0.570,-0.120
5423,-0.390,0.030
5424,-0.375,-0.015
5425,-0.325,0.030
5426,-0.350,0.105
5427,-0.365,0.055
5428,-0.305,0.135
5429,-0.305,0.085
5430,-0.300,0.070
5431,-0.330,0.100
5432,-0.300,0.140
5433,-0.295,0.110
5434,-0.260,0.100
5435,-0.245,0.120
5436,-0.245,0.090
5437,-0.245,0.120
5438,-0.210,0.135
5439,-0.195,0.175
5440,-0.155,0.055
5441,-0.175,0.065
5442,-0.090,0.095
5443,-0.095,0.180
5444,-0.065,0.135
5445,-0.030,0.030
5446,-0.005,0.055
5447,0.000,0.065
5448,0.035,0.015
5449,0.015,0.035
5450,0.055,0.060
5451,0.035,0.075
5452,0.055,0.075
5453,0.090,0.040
5454,0.160,0.135
5455,0.150,0.090
5456,0.195,0.115
5457,0.110,0.130
5458,0.085,0.145
5459,0.025,0.150
5460,0.055,0.160
5461,0.035,0.175
5462,0.000,0.160
5463,-0.005,0.190
5464,-0.010,0.170
5465,0.025,0.165
5466,0.080,0.145
5467,0.075,0.190
5468,0.070,0.130
5469,0.030,0.175
5470,0.080,0.130
5471,0.070,0.170
5472,0.045,0.140
5473,-0.005,0.100
5474,-0.030,0.160
5475,-0.070,0.135
5476,-0.040,0.130
5477,-0.115,0.150
5478,-0.120,0.080
5479,-0.150,0.080
5480,-0.145,0.165
5481,-0.145,0.125
5482,-0.115,0.090
5483,-0.160,0.075
5484,-0.165,0.160
5485,-0.175,0.160
5486,-0.145,0.220
5487,-0.220,0.080
5488,-0.190,0.075
5489,-0.185,0.115
5490,-0.210,0.165
5491,-0.190,0.065
5492,-0.205,0.065
5493,-0.220,0.070
5494,-0.240,0.015
5495,-0.220,0.035
5496,-0.210,0.000
5497,-0.200,0.025
5498,-0.235,0.010
5499,-0.290,0.015
5500,-0.270,0.000
5501,-0.265,0.045
5502,-0.275,0.045
5503,-0.285,0.035
5504,-0.310,0.070
5505,-0.300,0.060
5506,-0.290,0.060
5507,-0.285,0.035
5508,-0.275,0.030
5509,-0.200,0.120
5510,-0.075,-0.100
5511,-0.070,-0.070
5512,-0.145,-0.085
5513,-0.160,-0.095
5514,-0.265,0.005
5515,-0.390,0.120
5516,-0.400,-0.145
5517,-0.400,-0.100
5518,-0.470,-0.065
5519,-0.435,-0.060
5520,-0.430,0.000
5521,-0.435,-0.015
5522,-0.560,0.055
5523,-0.490,-0.070
5524,-0.260,-0.125
5525,0.565,-0.310
5526,1.295,-0.815
5527,0.025,-0.865
5528,-1.070,-0.440
5529,-0.900,-0.220
5530,-0.685,-0.160
5531,-0.575,-0.245
5532,-0.575,-0.075
5533,-0.625,0.005
5534,-0.640,-0.060
5535,-0.610,-0.090
5536,-0.660,-0.030
5537,-0.660,-0.020
5538,-0.665,-0.065
5539,-0.670,0.030
5540,-0.705,-0.080
5541,-0.660,-0.080
5542,-0.675,0.035
5543,-0.650,0.000
5544,-0.640,-0.110
5545,-0.640,0.015
5546,-0.660,-0.090
5547,-0.605,-0.110
5548,-0.640,-0.030
5549,-0.590,-0.020
5550,-0.590,-0.105
5551,-0.550,-0.075
5552,-0.545,-0.055
5553,-0.490,-0.075
5554,-0.540,-0.020
5555,-0.505,-0.105
5556,-0.505,-0.125
5557,-0.475,-0.055
5558,-0.500,0.185
5559,-0.390,-0.065
5560,-0.395,-0.160
5561,-0.385,-0.130
5562,-0.350,-0.255
5563,-0.375,-0.150
5564,-0.445,-0.105
5565,-0.385,-0.100
5566,-0.450,-0.045
5567,-0.455,-0.005
5568,-0.535,-0.115
5569,-0.555,0.000
5570,-0.560,-0.055
5571,-0.565,-0.040
5572,-0.580,-0.015
5573,-0.550,-0.010
5574,-0.515,-0.030
5575,-0.500,0.000
5576,-0.485,0.030
5577,-0.450,0.065
5578,-0.390,-0.080
5579,-0.405,-0.030
5580,-0.435,0.040
5581,-0.400,0.125
5582,-0.360,-0.180
5583,-0.355,-0.200
5584,-0.420,-0.080
5585,-0.415,-0.040
5586,-0.390,-0.050
5587,-0.400,-0.050
5588,-0.415,-0.045
5589,-0.425,-0.025
5590,-0.430,-0.030
5591,-0.420,-0.025
5592,-0.350,-0.015
5593,-0.340,0.005
5594,-0.395,0.005
5595,-0.395,0.000
5596,-0.390,0.060
5597,-0.390,0.055
5598,-0.420,0.020
5599,-0.345,0.010
5600,-0.280,0.000
5601,-0.250,0.005
5602,-0.320,0.025
5603,-0.355,0.005
5604,-0.390,0.015
5605,-0.425,0.000
5606,-0.455,0.000
5607,-0.510,0.000
5608,-0.455,-0.030
5609,-0.495,-0.025
5610,-0.475,0.000
5611,-0.545,-0.030
5612,-0.430,-0.045
5613,-0.510,-0.050
5614,-0.450,0.000
5615,-0.445,0.000
5616,-0.280,-0.010
5617,-0.335,-0.080
5618,-0.315,-0.055
5619,-0.390,-0.030
5620,-0.505,-0.015
5621,-0.575,-0.045
5622,-0.625,-0.010
5623,-0.725,-0.015
5624,-0.620,-0.040
5625,-0.665,-0.025
5626,-0.690,-0.005
5627,-0.670,0.010
5628,-0.690,0.065
5629,-0.745,0.180
5630,-0.375,-0.085
5631,0.560,-0.290
5632,1.280,-1.020
5633,-0.180,-0.980
5634,-1.200,-0.490
5635,-1.050,-0.215
5636,-0.795,-0.080
5637,-0.885,-0.010
5638,-0.780,0.020
5639,-0.760,0.045
5640,-0.800,0.050
5641,-0.780,0.050
5642,-0.700,0.050
5643,-0.925,0.075
5644,-0.810,0.085
5645,-0.800,0.080
5646,-0.830,0.080
5647,-0.800,0.095
5648,-0.770,0.095
5649,-0.815,0.090
5650,-0.780,0.095
5651,-0.730,0.075
5652,-0.700,0.070
5653,-0.810,0.095
5654,-0.710,0.080
5655,-0.660,0.065
5656,-0.635,0.055
5657,-0.635,0.030
5658,-0.510,0.035
5659,-0.520,0.035
5660,-0.590,0.025
5661,-0.440,-0.015
5662,-0.490,0.000
5663,-0.440,-0.010
5664,-0.420,-0.020
5665,-0.475,-0.015
5666,-0.355,-0.030
5667,-0.325,0.000
5668,-0.290,-0.020
5669,-0.260,0.005
5670,-0.300,0.020
5671,-0.460,0.060
5672,-0.380,0.045
5673,-0.430,0.050
5674,-0.420,0.045
5675,-0.510,0.060
5676,-0.505,0.060
5677,-0.435,0.085
5678,-0.475,0.085
5679,-0.420,0.085
5680,-0.460,0.095
5681,-0.395,0.100
5682,-0.420,0.105
5683,-0.335,0.080
5684,-0.365,0.100
5685,-0.400,0.090
5686,-0.375,0.070
5687,-0.280,0.055
5688,-0.290,0.055
5689,-0.315,0.055
5690,-0.380,0.065
5691,-0.280,0.060
5692,-0.340,0.030
5693,-0.310,0.060
5694,-0.285,0.055
5695,-0.310,0.060
5696,-0.285,0.055
5697,-0.300,0.070
5698,-0.310,0.070
5699,-0.225,0.075
5700,-0.300,0.075
5701,-0.280,0.055
5702,-0.220,0.065
5703,-0.275,0.070
5704,-0.240,0.075
5705,-0.200,0.080
5706,-0.220,0.065
5707,-0.140,0.085
5708,-0.180,0.090
5709,-0.170,0.065
5710,-0.135,0.075
5711,-0.135,0.065
5712,-0.155,0.080
5713,-0.115,0.075
5714,-0.100,0.070
5715,-0.050,0.090
5716,-0.045,0.100
5717,-0.040,0.090
5718,-0.015,0.095
5719,0.035,0.085
5720,0.155,0.080
5721,0.280,0.080
5722,0.360,0.020
5723,0.305,0.015
5724,0.240,0.060
5725,0.190,0.060
5726,0.115,0.075
5727,0.015,0.070
5728,0.030,0.065
5729,0.020,0.065
5730,-0.055,0.075
5731,-0.015,0.060
5732,0.000,0.080
5733,0.015,0.065
5734,0.000,0.230
5735,0.000,0.205
5736,0.495,-0.120
5737,1.485,-0.700
5738,1.555,-1.325
5739,0.095,-0.805
5740,-0.510,-0.390
5741,-0.235,-0.160
5742,-0.110,-0.050
5743,-0.095,0.035
5744,-0.090,0.060
5745,-0.115,0.065
5746,-0.105,0.075
5747,-0.130,0.070
5748,-0.130,0.075
5749,-0.145,0.080
5750,-0.140,0.075
5751,-0.130,0.070
5752,-0.115,0.075
5753,-0.165,0.080
5754,-0.145,0.075
5755,-0.175,0.060
5756,-0.155,0.055
5757,-0.145,0.060
5758,-0.100,0.050
5759,-0.120,0.040
5760,-0.090,0.065
5761,-0.120,0.015
5762,-0.025,0.010
5763,-0.020,0.000
5764,0.020,-0.005
5765,0.030,-0.025
5766,0.070,-0.045
5767,0.055,-0.030
5768,0.055,-0.055
5769,0.095,-0.070
5770,0.090,-0.055
5771,0.105,-0.090
5772,0.180,-0.080
5773,0.165,-0.080
5774,0.220,-0.080
5775,0.135,-0.065
5776,0.060,-0.050
5777,0.020,-0.045
5778,0.005,-0.025
5779,-0.095,-0.010
5780,-0.115,-0.025
5781,-0.140,-0.010
5782,-0.100,0.000
5783,-0.150,0.000
5784,-0.120,0.000
5785,-0.115,0.015
5786,-0.095,0.010
5787,-0.155,0.015
5788,-0.145,0.000
5789,-0.110,-0.015
5790,-0.100,-0.015
5791,-0.095,-0.005
5792,-0.065,-0.035
5793,-0.080,-0.025
5794,-0.150,-0.025
5795,-0.110,-0.035
5796,-0.155,-0.025
5797,-0.170,-0.025
5798,-0.165,-0.040
5799,-0.190,-0.035
5800,-0.180,-0.030
5801,-0.215,-0.025
5802,-0.225,-0.025
5803,-0.225,-0.025
5804,-0.250,-0.035
5805,-0.200,-0.035
5806,-0.265,-0.020
5807,-0.255,-0.015
5808,-0.245,-0.040
5809,-0.270,-0.025
5810,-0.260,-0.020
5811,-0.270,-0.010
5812,-0.280,-0.020
5813,-0.280,-0.020
5814,-0.255,-0.030
5815,-0.270,0.000
5816,-0.300,-0.010
5817,-0.275,-0.005
5818,-0.280,0.000
5819,-0.250,0.000
5820,-0.265,-0.015
5821,-0.235,0.000
5822,-0.275,0.000
5823,-0.235,0.000
5824,-0.200,0.010
5825,-0.075,0.010
5826,-0.040,0.020
5827,0.020,-0.020
5828,0.000,-0.035
5829,-0.085,0.000
5830,-0.120,0.010
5831,-0.215,0.040
5832,-0.290,0.010
5833,-0.270,0.000
5834,-0.265,0.015
5835,-0.275,0.020
5836,-0.300,0.015
5837,-0.255,0.030
5838,-0.235,0.090
5839,-0.285,0.205
5840,-0.140,0.010
5841,0.750,-0.275
5842,1.685,-0.925
5843,0.825,-1.085
5844,-0.600,-0.470
5845,-0.620,-0.180
5846,-0.395,-0.100
5847,-0.300,0.000
5848,-0.270,0.050
5849,-0.220,0.055
5850,-0.225,0.065
5851,-0.320,0.095
5852,-0.250,0.095
5853,-0.225,0.115
5854,-0.160,0.095
5855,-0.200,0.105
5856,-0.250,0.110
5857,-0.195,0.135
5858,-0.150,0.120
5859,-0.135,0.120
5860,-0.140,0.120
5861,-0.120,0.115
5862,-0.105,0.110
5863,-0.050,0.105
5864,-0.030,0.105
5865,-0.010,0.090
5866,0.015,0.090
5867,0.075,0.085
5868,0.065,0.080
5869,0.105,0.055
5870,0.125,0.060
5871,0.155,0.035
5872,0.175,0.020
5873,0.195,0.005
5874,0.215,0.005
5875,0.255,0.005
5876,0.310,-0.010
5877,0.315,0.000
5878,0.325,0.030
5879,0.330,0.005
5880,0.315,0.030
5881,0.270,0.035
5882,0.230,0.055
5883,0.165,0.060
5884,0.150,0.070
5885,0.135,0.095
5886,0.130,0.095
5887,0.130,0.115
5888,0.170,0.110
5889,0.145,0.100
5890,0.160,0.110
5891,0.170,0.115
5892,0.230,0.105
5893,0.240,0.080
5894,0.240,0.085
5895,0.235,0.085
5896,0.260,0.065
5897,0.255,0.065
5898,0.275,0.050
5899,0.240,0.075
5900,0.245,0.060
5901,0.235,0.070
5902,0.250,0.075
5903,0.210,0.090
5904,0.190,0.085
5905,0.175,0.080
5906,0.185,0.105
5907,0.175,0.095
5908,0.200,0.085
5909,0.155,0.075
5910,0.200,0.085
5911,0.180,0.085
5912,0.160,0.110
5913,0.125,0.110
5914,0.185,0.095
5915,0.165,0.095
5916,0.150,0.105
5917,0.145,0.110
5918,0.175,0.110
5919,0.160,0.100
5920,0.185,0.115
5921,0.175,0.095
5922,0.190,0.115
5923,0.165,0.120
5924,0.170,0.115
5925,0.185,0.125
5926,0.180,0.135
5927,0.185,0.105
5928,0.225,0.130
5929,0.230,0.145
5930,0.295,0.120
5931,0.440,0.110
5932,0.520,0.055
5933,0.455,0.050
5934,0.380,0.080
5935,0.340,0.100
5936,0.245,0.130
5937,0.165,0.110
5938,0.175,0.125
5939,0.170,0.120
5940,0.190,0.115
5941,0.185,0.115
5942,0.195,0.140
5943,0.135,0.180
5944,0.160,0.335
5945,0.135,0.235
5946,0.710,-0.105
5947,1.705,-0.705
5948,1.670,-1.230
5949,0.230,-0.665
5950,-0.260,-0.250
5951,-0.010,-0.070
5952,0.085,0.055
5953,0.080,0.140
5954,0.150,0.170
5955,0.085,0.190
5956,0.150,0.195
5957,0.085,0.205
5958,0.135,0.210
5959,0.125,0.210
5960,0.130,0.215
5961,0.135,0.210
5962,0.130,0.210
5963,0.105,0.230
5964,0.140,0.230
5965,0.170,0.220
5966,0.165,0.210
5967,0.160,0.225
5968,0.185,0.215
5969,0.215,0.190
5970,0.285,0.190
5971,0.275,0.185
5972,0.280,0.175
5973,0.310,0.160
5974,0.345,0.145
5975,0.340,0.135
5976,0.415,0.095
5977,0.430,0.100
5978,0.455,0.100
5979,0.420,0.075
5980,0.500,0.050
5981,0.485,0.060
5982,0.555,0.045
5983,0.565,0.060
5984,0.575,0.070
5985,0.530,0.070
5986,0.500,0.095
5987,0.455,0.110
5988,0.405,0.110
5989,0.335,0.135
5990,0.340,0.150
5991,0.305,0.140
5992,0.270,0.175
5993,0.280,0.165
5994,0.305,0.170
5995,0.270,0.170
5996,0.300,0.185
5997,0.265,0.170
5998,0.325,0.150
5999,0.330,0.140
6000,0.305,0.130
6001,0.300,0.110
6002,0.330,0.120
6003,0.275,0.120
6004,0.245,0.110
6005,0.235,0.110
6006,0.255,0.115
6007,0.215,0.110
6008,0.215,0.095
6009,0.175,0.110
6010,0.180,0.105
6011,0.155,0.100
6012,0.155,0.090
6013,0.130,0.090
6014,0.145,0.100
6015,0.120,0.095
6016,0.125,0.100
6017,0.075,0.100
6018,0.080,0.095
6019,0.100,0.095
6020,0.060,0.105
6021,0.070,0.100
6022,0.050,0.090
6023,0.020,0.100
6024,0.055,0.080
6025,0.000,0.100
6026,0.000,0.110
6027,0.000,0.105
6028,0.025,0.095
6029,0.005,0.090
6030,0.005,0.080
6031,-0.035,0.080
6032,0.005,0.085
6033,-0.005,0.075
6034,0.030,0.110
6035,0.075,0.095
6036,0.230,0.090
6037,0.270,0.070
6038,0.250,0.020
6039,0.120,0.055
6040,0.100,0.070
6041,0.010,0.090
6042,-0.065,0.080
6043,-0.145,0.070
6044,-0.120,0.080
6045,-0.105,0.060
6046,-0.095,0.070
6047,-0.150,0.080
6048,-0.110,0.110
6049,-0.170,0.255
6050,-0.115,0.175
6051,0.415,-0.140
6052,1.380,-0.680
6053,1.285,-1.195
6054,-0.120,-0.645
6055,-0.655,-0.265
6056,-0.380,-0.120
6057,-0.240,0.000
6058,-0.235,0.060
6059,-0.255,0.090
6060,-0.240,0.110
6061,-0.280,0.110
6062,-0.290,0.110
6063,-0.275,0.110
6064,-0.265,0.095
6065,-0.275,0.105
6066,-0.285,0.115
6067,-0.265,0.120
6068,-0.230,0.115
6069,-0.305,0.140
6070,-0.270,0.125
6071,-0.260,0.125
6072,-0.240,0.120
6073,-0.265,0.125
6074,-0.205,0.130
6075,-0.195,0.105
6076,-0.160,0.090
6077,-0.150,0.080
6078,-0.095,0.085
6079,-0.110,0.065
6080,-0.065,0.055
6081,-0.020,0.055
6082,-0.025,0.055
6083,-0.030,0.030
6084,0.005,0.025
6085,0.005,0.040
6086,0.010,0.030
6087,0.060,0.030
6088,0.110,0.025
6089,0.135,0.030
6090,0.105,0.050
6091,0.065,0.060
6092,0.040,0.070
6093,-0.005,0.085
6094,-0.040,0.110
6095,-0.080,0.125
6096,-0.085,0.120
6097,-0.120,0.120
6098,-0.095,0.120
6099,-0.080,0.145
6100,-0.065,0.135
6101,-0.040,0.145
6102,0.000,0.150
6103,-0.010,0.120
6104,0.000,0.100
6105,0.015,0.130
6106,0.035,0.125
6107,0.040,0.115
6108,0.035,0.115
6109,0.015,0.105
6110,0.010,0.095
6111,0.005,0.115
6112,0.000,0.110
6113,0.000,0.115
6114,-0.025,0.110
6115,-0.030,0.125
6116,-0.025,0.130
6117,-0.035,0.130
6118,-0.055,0.125
6119,-0.020,0.125
6120,-0.010,0.135
6121,-0.020,0.125
6122,-0.030,0.125
6123,-0.040,0.135
6124,-0.020,0.125
6125,-0.055,0.155
6126,-0.070,0.145
6127,-0.045,0.160
6128,-0.040,0.145
6129,-0.060,0.145
6130,-0.050,0.150
6131,-0.045,0.145
6132,-0.040,0.135
6133,-0.025,0.155
6134,-0.065,0.155
6135,-0.030,0.125
6136,0.015,0.130
6137,-0.010,0.135
6138,-0.020,0.140
6139,0.040,0.155
6140,0.200,0.145
6141,0.290,0.115
6142,0.175,0.065
6143,0.230,0.095
6144,0.065,0.140
6145,0.020,0.175
6146,-0.095,0.140
6147,-0.100,0.135
6148,-0.060,0.130
6149,-0.010,0.120
6150,-0.155,0.135
6151,-0.070,0.130
6152,-0.060,0.155
6153,-0.030,0.275
6154,-0.085,0.310
6155,0.270,-0.030
6156,1.250,-0.505
6157,1.710,-1.175
6158,0.275,-0.840
6159,-0.530,-0.365
6160,-0.395,-0.055
6161,-0.150,0.030
6162,-0.110,0.120
6163,-0.180,0.180
6164,0.045,0.190
6165,-0.390,0.260
6166,-0.310,0.260
6167,0.080,0.190
6168,-0.245,0.230
6169,-0.195,0.240
6170,-0.270,0.250
6171,-0.145,0.230
6172,-0.070,0.245
6173,-0.145,0.240
6174,-0.065,0.215
6175,-0.115,0.230
6176,-0.035,0.200
6177,-0.025,0.225
6178,-0.080,0.220
6179,-0.145,0.225
6180,-0.055,0.200
6181,0.000,0.195
6182,0.030,0.145
6183,0.140,0.160
6184,0.020,0.150
6185,0.045,0.150
6186,0.140,0.080
6187,0.145,0.105
6188,0.085,0.100
6189,0.185,0.110
6190,0.180,0.050
6191,0.220,0.060
6192,0.280,0.045
6193,0.305,0.060
6194,0.285,0.060
6195,0.180,0.095
6196,0.165,0.100
6197,0.130,0.145
6198,0.000,0.130
6199,-0.030,0.160
6200,-0.010,0.180
6201,0.140,0.170
6202,-0.200,0.215
6203,-0.130,0.190
6204,-0.085,0.210
6205,0.000,0.205
6206,0.000,0.195
6207,0.140,0.160
6208,-0.020,0.180
6209,0.035,0.190
6210,-0.030,0.200
6211,-0.005,0.165
6212,-0.005,0.095
6213,0.025,0.135
6214,0.045,0.110
6215,0.045,0.135
6216,0.015,0.120
6217,0.105,0.135
6218,-0.170,0.165
6219,-0.105,0.145
6220,-0.175,0.155
6221,-0.120,0.145
6222,-0.075,0.145
6223,-0.080,0.145
6224,-0.125,0.155
6225,-0.170,0.245
6226,-0.135,0.275
6227,-0.355,0.185
6228,-0.205,0.120
6229,-0.295,0.230
6230,-0.255,0.075
6231,-0.155,0.130
6232,-0.235,0.255
6233,-0.290,0.145
6234,-0.250,0.185
6235,-0.275,0.310
6236,-0.240,0.130
6237,-0.205,0.160
6238,-0.295,0.555
6239,-0.260,0.180
6240,-0.250,-0.045
6241,-0.315,0.050
6242,-0.180,0.165
6243,-0.155,0.150
6244,-0.060,0.170
6245,0.025,0.195
6246,-0.155,0.390
6247,-0.300,0.600
6248,-0.325,0.325
6249,-0.185,0.015
6250,-0.110,0.030
6251,-0.345,0.165
6252,-0.330,-0.045
6253,-0.225,0.065
6254,-0.385,0.145
6255,-0.350,0.080
6256,-0.290,0.095
6257,-0.245,0.305
6258,-0.225,0.245
6259,0.335,-0.080
6260,1.205,-0.790
6261,0.725,-1.190
6262,-0.690,-0.545
6263,-0.960,-0.165
6264,-0.565,-0.085
6265,-0.450,0.065
6266,-0.555,0.250
6267,-0.530,0.095
6268,-0.535,0.130
6269,-0.560,0.050
6270,-0.490,0.105
6271,-0.530,0.180
6272,-0.440,0.015
6273,-0.365,0.125
6274,-0.765,0.355
6275,-0.590,0.125
6276,-0.560,0.000
6277,-0.530,0.000
6278,-0.580,0.080
6279,-0.595,0.090
6280,-0.535,0.175
6281,-0.580,0.140
6282,-0.500,0.075
6283,-0.530,0.045
6284,-0.525,0.000
6285,-0.490,0.040
6286,-0.455,0.165
6287,-0.485,0.015
6288,-0.410,0.000
6289,-0.470,-0.025
6290,-0.520,0.055
6291,-0.430,0.190
6292,-0.560,0.000
6293,-0.370,-0.120
6294,-0.255,-0.110
6295,-0.385,0.000
6296,-0.300,0.035
6297,-0.310,-0.050
6298,-0.375,-0.025
6299,-0.415,-0.005
6300,-0.490,0.105
6301,-0.420,-0.060
6302,-0.470,-0.025
6303,-0.590,0.005
6304,-0.550,0.080
6305,-0.660,0.095
6306,-0.525,0.070
6307,-0.645,0.110
6308,-0.585,0.110
6309,-0.520,0.100
6310,-0.475,0.025
6311,-0.520,0.025
6312,-0.395,0.025
6313,-0.425,0.050
6314,-0.380,0.035
6315,-0.440,0.055
6316,-0.540,0.165
6317,-0.600,0.080
6318,-0.410,-0.010
6319,-0.420,0.035
6320,-0.365,0.040
6321,-0.595,0.100
6322,-0.485,0.020
6323,-0.430,0.030
6324,-0.435,0.035
6325,-0.520,0.135
6326,-0.580,0.160
6327,-0.415,0.015
6328,-0.495,0.035
6329,-0.495,0.055
6330,-0.500,0.065
6331,-0.455,0.090
6332,-0.505,0.120
6333,-0.535,0.075
6334,-0.425,0.085
6335,-0.450,0.090
6336,-0.540,0.130
6337,-0.570,0.125
6338,-0.545,0.110
6339,-0.525,0.100
6340,-0.545,0.085
6341,-0.470,0.075
6342,-0.460,0.100
6343,-0.415,0.095
6344,-0.430,0.075
6345,-0.390,0.135
6346,-0.490,0.155
6347,-0.240,0.090
6348,-0.160,0.035
6349,-0.190,0.045
6350,-0.270,0.065
6351,-0.520,0.140
6352,-0.645,0.125
6353,-0.415,0.090
6354,-0.555,0.075
6355,-0.485,0.070
6356,-0.420,0.095
6357,-0.610,0.105
6358,-0.575,0.115
6359,-0.465,0.230
6360,-0.620,0.350
6361,-0.410,0.085
6362,0.435,-0.280
6363,1.220,-1.070
6364,0.245,-1.145
6365,-0.905,-0.565
6366,-0.895,-0.185
6367,-0.715,-0.045
6368,-0.630,0.025
6369,-0.450,0.080
6370,-0.500,0.095
6371,-0.485,0.130
6372,-0.600,0.130
6373,-0.575,0.170
6374,-0.600,0.145
6375,-0.415,0.115
6376,-0.530,0.155
6377,-0.570,0.180
6378,-0.560,0.145
6379,-0.610,0.130
6380,-0.605,0.145
6381,-0.545,0.140
6382,-0.580,0.150
6383,-0.450,0.130
6384,-0.595,0.150
6385,-0.585,0.140
6386,-0.490,0.095
6387,-0.525,0.105
6388,-0.440,0.060
6389,-0.410,0.010
6390,-0.455,0.040
6391,-0.540,0.025
6392,-0.360,0.005
6393,-0.470,0.000
6394,-0.350,-0.050
6395,-0.145,-0.045
6396,-0.420,-0.060
6397,-0.205,-0.030
6398,-0.425,-0.020
6399,-0.400,-0.045
6400,-0.170,-0.040
6401,-0.300,-0.025
6402,-0.390,-0.025
6403,-0.210,0.000
6404,-0.535,0.000
6405,-0.475,0.005
6406,-0.465,0.035
6407,-0.560,0.040
6408,-0.500,0.020
6409,-0.375,0.015
6410,-0.610,0.065
6411,-0.435,0.030
6412,-0.455,0.040
6413,-0.655,0.055
6414,-0.545,0.035
6415,-0.245,0.000
6416,-0.475,0.025
6417,-0.545,0.020
6418,-0.380,-0.040
6419,-0.295,0.000
6420,-0.525,0.000
6421,-0.520,0.005
6422,-0.405,0.000
6423,-0.425,-0.020
6424,-0.515,0.000
6425,-0.400,0.005
6426,-0.670,-0.030
6427,-0.455,0.005
6428,-0.520,0.000
6429,-0.525,0.000
6430,-0.575,0.020
6431,-0.520,0.005
6432,-0.485,0.015
6433,-0.510,0.000
6434,-0.505,0.005
6435,-0.465,-0.005
6436,-0.580,0.000
6437,-0.520,0.005
6438,-0.455,-0.005
6439,-0.570,0.015
6440,-0.630,0.015
6441,-0.530,-0.015
6442,-0.520,0.015
6443,-0.470,-0.005
6444,-0.630,0.005
6445,-0.465,-0.025
6446,-0.420,0.000
6447,-0.445,0.000
6448,-0.315,0.000
6449,-0.285,-0.035
6450,-0.265,-0.055
6451,-0.215,-0.045
6452,-0.420,-0.010
6453,-0.415,0.005
6454,-0.595,-0.010
6455,-0.530,-0.015
6456,-0.565,-0.025
6457,-0.505,-0.035
6458,-0.420,-0.030
6459,-0.570,-0.025
6460,-0.655,0.020
6461,-0.580,0.110
6462,-0.630,0.225
6463,-0.350,-0.085
6464,0.740,-0.475
6465,1.435,-1.230
6466,0.090,-1.060
6467,-1.025,-0.490
6468,-0.845,-0.255
6469,-0.465,-0.170
6470,-0.580,-0.035
6471,-0.540,0.005
6472,-0.705,0.050
6473,-0.615,0.045
6474,-0.620,0.070
6475,-0.505,0.030
6476,-0.485,0.045
6477,-0.580,0.035
6478,-0.445,0.030
6479,-0.510,0.045
6480,-0.435,0.040
6481,-0.745,0.070
6482,-0.440,0.040
6483,-0.395,0.040
6484,-0.510,0.055
6485,-0.250,0.015
6486,-0.475,0.040
6487,-0.440,0.010
6488,-0.270,0.030
6489,-0.475,0.025
6490,-0.285,0.000
6491,-0.240,-0.035
6492,-0.335,-0.005
6493,-0.225,-0.035
6494,-0.205,-0.055
6495,-0.225,-0.070
6496,-0.125,-0.100
6497,-0.050,-0.090
6498,-0.210,-0.075
6499,-0.235,-0.090
6500,-0.135,-0.105
6501,0.045,-0.110
6502,-0.110,-0.070
6503,-0.140,-0.075
6504,-0.045,-0.060
6505,-0.310,-0.035
6506,-0.225,-0.010
6507,-0.375,-0.030
6508,-0.115,-0.020
6509,-0.385,-0.015
6510,-0.275,0.005
6511,-0.140,-0.010
6512,-0.345,0.000
6513,-0.285,0.025
6514,-0.395,0.000
6515,-0.220,-0.020
6516,-0.215,-0.020
6517,-0.320,-0.020
6518,-0.220,-0.040
6519,-0.140,-0.050
6520,-0.315,-0.045
6521,-0.300,-0.045
6522,-0.155,-0.070
6523,-0.265,-0.055
6524,-0.220,-0.045
6525,-0.290,-0.040
6526,-0.230,-0.035
6527,-0.255,-0.050
6528,-0.155,-0.090
6529,-0.220,-0.060
6530,-0.360,-0.045
6531,-0.230,-0.100
6532,-0.335,-0.020
6533,-0.435,-0.035
6534,-0.320,-0.045
6535,-0.325,-0.050
6536,-0.300,-0.040
6537,-0.390,-0.050
6538,-0.230,-0.060
6539,-0.365,-0.045
6540,-0.320,-0.040
6541,-0.375,-0.040
6542,-0.285,-0.055
6543,-0.245,-0.055
6544,-0.200,-0.050
6545,-0.510,-0.030
6546,-0.345,-0.040
6547,-0.330,-0.035
6548,-0.355,-0.040
6549,-0.190,-0.040
6550,-0.175,-0.030
6551,-0.125,-0.050
6552,-0.005,-0.110
6553,-0.090,-0.100
6554,-0.070,-0.095
6555,-0.145,-0.075
6556,-0.155,-0.035
6557,-0.495,-0.060
6558,-0.320,-0.060
6559,-0.415,-0.050
6560,-0.445,-0.055
6561,-0.415,-0.045
6562,-0.440,-0.040
6563,-0.405,-0.005
6564,-0.230,0.100
6565,-0.370,0.030
6566,0.335,-0.290
6567,1.330,-0.860
6568,1.020,-1.350
6569,-0.310,-0.850
6570,-0.715,-0.460
6571,-0.585,-0.265
6572,-0.375,-0.155
6573,-0.500,-0.045
6574,-0.475,-0.010
6575,-0.425,-0.030
6576,-0.370,0.000
6577,-0.410,0.005
6578,-0.435,0.000
6579,-0.380,0.010
6580,-0.475,0.000
6581,-0.395,0.030
6582,-0.520,0.025
6583,-0.410,0.000
6584,-0.405,0.010
6585,-0.390,0.035
6586,-0.430,0.025
6587,-0.340,0.010
6588,-0.255,0.000
6589,-0.280,0.000
6590,-0.305,0.000
6591,-0.305,-0.020
6592,-0.255,-0.020
6593,-0.240,-0.020
6594,-0.280,-0.025
6595,-0.120,-0.075
6596,-0.105,-0.065
6597,-0.140,-0.070
6598,-0.130,-0.100
6599,-0.035,-0.075
6600,-0.200,-0.100
6601,-0.010,-0.125
6602,0.075,-0.115
6603,0.075,-0.120
6604,0.000,-0.085
6605,0.105,-0.100
6606,-0.125,-0.060
6607,-0.115,-0.040
6608,-0.225,-0.040
6609,-0.215,-0.030
6610,-0.225,-0.035
6611,-0.170,-0.030
6612,-0.175,-0.010
6613,-0.350,0.020
6614,-0.420,0.025
6615,-0.315,0.020
6616,-0.090,-0.005
6617,-0.155,0.020
6618,-0.335,0.005
6619,-0.145,-0.025
6620,-0.305,-0.020
6621,-0.275,-0.005
6622,-0.270,-0.020
6623,-0.140,-0.035
6624,-0.250,-0.050
6625,-0.120,-0.045
6626,-0.365,-0.020
6627,-0.325,-0.015
6628,-0.365,-0.030
6629,-0.270,-0.025
6630,-0.250,-0.050
6631,-0.270,-0.045
6632,-0.225,-0.045
6633,-0.095,-0.055
6634,-0.535,-0.005
6635,-0.410,-0.025
6636,-0.365,-0.025
6637,-0.420,-0.025
6638,-0.165,-0.040
6639,-0.430,-0.025
6640,-0.360,-0.045
6641,-0.130,-0.070
6642,-0.370,-0.025
6643,-0.470,-0.005
6644,-0.465,-0.015
6645,-0.385,-0.010
6646,-0.320,-0.035
6647,-0.415,-0.010
6648,-0.400,-0.040
6649,-0.295,-0.075
6650,-0.210,-0.055
6651,-0.375,-0.005
6652,-0.190,-0.055
6653,-0.100,-0.055
6654,-0.205,-0.110
6655,-0.085,-0.075
6656,-0.310,-0.070
6657,-0.200,-0.040
6658,-0.355,-0.030
6659,-0.460,-0.015
6660,-0.415,-0.060
6661,-0.365,-0.070
6662,-0.365,-0.065
6663,-0.395,-0.055
6664,-0.530,-0.020
6665,-0.510,0.080
6666,-0.545,0.175
6667,-0.300,-0.115
6668,0.565,-0.520
6669,1.395,-1.255
6670,0.380,-1.200
6671,-0.775,-0.630
6672,-0.690,-0.330
6673,-0.570,-0.170
6674,-0.550,-0.080
6675,-0.515,-0.005
6676,-0.465,-0.005
6677,-0.310,-0.005
6678,-0.370,0.010
6679,-0.485,0.040
6680,-0.535,0.050
6681,-0.495,0.025
6682,-0.420,0.020
6683,-0.455,0.040
6684,-0.465,0.020
6685,-0.425,0.030
6686,-0.470,0.035
6687,-0.415,0.020
6688,-0.415,0.000
6689,-0.345,0.010
6690,-0.405,0.040
6691,-0.620,0.025
6692,-0.520,0.010
6693,-0.250,-0.010
6694,-0.435,0.020
6695,-0.450,-0.025
6696,-0.185,-0.060
6697,-0.190,-0.065
6698,-0.335,-0.075
6699,-0.070,-0.150
6700,-0.235,-0.100
6701,-0.245,-0.105
6702,-0.065,-0.130
6703,-0.265,-0.135
6704,-0.050,-0.130
6705,-0.215,-0.120
6706,-0.150,-0.105
6707,-0.055,-0.115
6708,-0.265,-0.100
6709,0.150,-0.100
6710,-0.450,0.000
6711,-0.255,-0.055
6712,-0.305,-0.060
6713,-0.330,0.005
6714,-0.625,-0.005
6715,-0.340,-0.020
6716,-0.415,-0.035
6717,-0.405,0.025
6718,-0.700,0.050
6719,-0.255,0.120
6720,-0.490,0.065
6721,-0.220,-0.140
6722,-0.145,-0.160
