'sample interval','ECG0','ECG1'
'0.0078125 sec','mV','mV'
0,0.125,0.445
1,0.140,0.465
2,0.145,0.490
3,0.190,0.490
4,0.190,0.485
5,0.190,0.510
6,0.210,0.520
7,0.225,0.535
8,0.225,0.530
9,0.235,0.565
10,0.240,0.570
11,0.250,0.580
12,0.260,0.585
13,0.275,0.580
14,0.270,0.575
15,0.265,0.585
16,0.270,0.595
17,0.275,0.605
18,0.270,0.595
19,0.255,0.595
20,0.250,0.590
21,0.250,0.580
22,0.220,0.580
23,0.205,0.555
24,0.170,0.540
25,0.160,0.535
26,0.135,0.515
27,0.120,0.490
28,0.105,0.470
29,0.070,0.450
30,0.035,0.430
31,0.025,0.405
32,-0.010,0.380
33,-0.020,0.370
34,-0.040,0.340
35,-0.065,0.325
36,-0.070,0.295
37,-0.075,0.295
38,-0.105,0.285
39,-0.115,0.260
40,-0.110,0.265
41,-0.110,0.255
42,-0.110,0.255
43,-0.110,0.255
44,-0.110,0.235
45,-0.105,0.235
46,-0.095,0.245
47,-0.105,0.250
48,-0.095,0.235
49,-0.105,0.230
50,-0.095,0.225
51,-0.110,0.220
52,-0.100,0.220
53,-0.105,0.205
54,-0.110,0.200
55,-0.105,0.200
56,-0.115,0.190
57,-0.130,0.190
58,-0.130,0.185
59,-0.135,0.175
60,-0.135,0.160
61,-0.145,0.150
62,-0.150,0.155
63,-0.170,0.185
64,-0.150,0.155
65,-0.160,0.145
66,-0.155,0.150
67,-0.160,0.150
68,-0.155,0.145
69,-0.170,0.130
70,-0.180,0.140
71,-0.165,0.145
72,-0.150,0.145
73,-0.125,0.165
74,-0.090,0.215
75,-0.075,0.205
76,-0.055,0.200
77,-0.075,0.185
78,-0.095,0.135
79,-0.100,0.105
80,-0.120,0.105
81,-0.120,0.100
82,-0.095,0.110
83,-0.085,0.120
84,-0.110,0.120
85,-0.205,0.125
86,-0.245,0.110
87,-0.255,0.100
88,-0.235,0.115
89,-0.275,0.080
90,-0.265,0.095
91,-0.255,0.105
92,-0.250,0.090
93,-0.250,0.100
94,-0.255,0.090
95,-0.250,0.100
96,-0.245,0.130
97,-0.245,0.095
98,-0.255,0.095
99,-0.260,0.090
100,-0.245,0.080
101,-0.230,0.085
102,-0.140,0.090
103,-0.030,0.145
104,-0.180,0.050
105,-0.455,-0.200
106,-0.870,-0.670
107,-1.155,-1.080
108,-1.320,-1.550
109,-1.365,-1.950
110,-1.355,-1.845
111,-1.255,-1.515
112,-1.195,-1.325
113,-1.095,-1.205
114,-1.040,-1.075
115,-0.905,-0.920
116,-0.755,-0.700
117,-0.635,-0.485
118,-0.505,-0.290
119,-0.355,-0.160
120,-0.195,-0.020
121,-0.065,0.125
122,0.020,0.250
123,0.075,0.385
124,0.075,0.430
125,0.115,0.445
126,0.120,0.470
127,0.120,0.465
128,0.150,0.480
129,0.180,0.505
130,0.190,0.490
131,0.195,0.525
132,0.200,0.530
133,0.205,0.530
134,0.220,0.545
135,0.225,0.535
136,0.245,0.570
137,0.250,0.570
138,0.255,0.580
139,0.250,0.570
140,0.250,0.585
141,0.270,0.580
142,0.275,0.590
143,0.255,0.585
144,0.240,0.595
145,0.240,0.570
146,0.215,0.585
147,0.190,0.580
148,0.175,0.535
149,0.155,0.535
150,0.135,0.510
151,0.120,0.520
152,0.095,0.485
153,0.045,0.465
154,0.020,0.425
155,0.010,0.400
156,-0.010,0.400
157,-0.040,0.370
158,-0.055,0.345
159,-0.075,0.305
160,-0.100,0.290
161,-0.110,0.295
162,-0.125,0.285
163,-0.135,0.255
164,-0.125,0.260
165,-0.130,0.270
166,-0.125,0.255
167,-0.115,0.250
168,-0.115,0.245
169,-0.100,0.235
170,-0.100,0.240
171,-0.105,0.225
172,-0.105,0.225
173,-0.095,0.240
174,-0.095,0.210
175,-0.095,0.205
176,-0.120,0.205
177,-0.110,0.205
178,-0.115,0.215
179,-0.115,0.195
180,-0.125,0.195
181,-0.130,0.180
182,-0.160,0.180
183,-0.150,0.170
184,-0.165,0.175
185,-0.175,0.165
186,-0.155,0.160
187,-0.170,0.160
188,-0.175,0.140
189,-0.165,0.130
190,-0.165,0.140
191,-0.180,0.150
192,-0.185,0.145
193,-0.170,0.135
194,-0.190,0.125
195,-0.150,0.135
196,-0.130,0.170
197,-0.110,0.190
198,-0.095,0.200
199,-0.055,0.195
200,-0.080,0.165
201,-0.080,0.145
202,-0.095,0.100
203,-0.135,0.095
204,-0.145,0.075
205,-0.105,0.085
206,-0.100,0.115
207,-0.130,0.110
208,-0.210,0.105
209,-0.255,0.090
210,-0.255,0.065
211,-0.260,0.075
212,-0.275,0.075
213,-0.265,0.080
214,-0.260,0.075
215,-0.270,0.075
216,-0.270,0.095
217,-0.270,0.075
218,-0.260,0.095
219,-0.265,0.065
220,-0.250,0.070
221,-0.275,0.075
222,-0.270,0.085
223,-0.260,0.070
224,-0.220,0.095
225,-0.085,0.100
226,-0.065,0.160
227,-0.250,-0.010
228,-0.595,-0.310
229,-0.975,-0.790
230,-1.210,-1.220
231,-1.360,-1.665
232,-1.400,-2.005
233,-1.335,-1.775
234,-1.250,-1.475
235,-1.165,-1.275
236,-1.085,-1.190
237,-1.020,-1.030
238,-0.865,-0.875
239,-0.725,-0.655
240,-0.615,-0.440
241,-0.470,-0.250
242,-0.305,-0.110
243,-0.150,0.030
244,-0.050,0.150
245,0.010,0.285
246,0.050,0.385
247,0.075,0.420
248,0.080,0.435
249,0.105,0.455
250,0.110,0.475
251,0.115,0.485
252,0.130,0.495
253,0.150,0.490
254,0.155,0.500
255,0.145,0.515
256,0.165,0.540
257,0.175,0.535
258,0.190,0.515
259,0.205,0.525
260,0.205,0.555
261,0.210,0.550
262,0.215,0.565
263,0.210,0.565
264,0.235,0.580
265,0.225,0.555
266,0.205,0.575
267,0.195,0.565
268,0.195,0.560
269,0.190,0.550
270,0.160,0.560
271,0.145,0.525
272,0.135,0.515
273,0.100,0.480
274,0.080,0.485
275,0.050,0.475
276,0.050,0.450
277,0.015,0.435
278,-0.015,0.390
279,-0.050,0.375
280,-0.100,0.345
281,-0.100,0.335
282,-0.120,0.305
283,-0.120,0.285
284,-0.145,0.265
285,-0.140,0.275
286,-0.145,0.235
287,-0.160,0.240
288,-0.155,0.225
289,-0.145,0.230
290,-0.145,0.220
291,-0.140,0.215
292,-0.135,0.225
293,-0.125,0.215
294,-0.120,0.195
295,-0.120,0.215
296,-0.120,0.230
297,-0.125,0.210
298,-0.130,0.205
299,-0.130,0.200
300,-0.145,0.170
301,-0.160,0.170
302,-0.160,0.190
303,-0.155,0.170
304,-0.155,0.155
305,-0.175,0.160
306,-0.180,0.145
307,-0.195,0.155
308,-0.180,0.140
309,-0.200,0.150
310,-0.200,0.145
311,-0.205,0.150
312,-0.205,0.145
313,-0.205,0.155
314,-0.205,0.125
315,-0.190,0.135
316,-0.200,0.130
317,-0.215,0.140
318,-0.160,0.145
319,-0.150,0.165
320,-0.130,0.230
321,-0.115,0.205
322,-0.120,0.215
323,-0.100,0.160
324,-0.125,0.110
325,-0.130,0.115
326,-0.145,0.085
327,-0.160,0.075
328,-0.120,0.105
329,-0.110,0.100
330,-0.165,0.130
331,-0.225,0.110
332,-0.260,0.080
333,-0.265,0.075
334,-0.260,0.070
335,-0.270,0.080
336,-0.285,0.070
337,-0.265,0.055
338,-0.295,0.055
339,-0.270,0.050
340,-0.290,0.065
341,-0.275,0.060
342,-0.265,0.060
343,-0.275,0.060
344,-0.280,0.035
345,-0.285,0.060
346,-0.280,0.060
347,-0.255,0.070
348,-0.160,0.090
349,-0.060,0.120
350,-0.200,0.050
351,-0.475,-0.205
352,-0.860,-0.590
353,-1.170,-1.040
354,-1.350,-1.440
355,-1.445,-1.880
356,-1.440,-1.960
357,-1.320,-1.595
358,-1.205,-1.370
359,-1.130,-1.235
360,-1.105,-1.105
361,-0.995,-0.980
362,-0.825,-0.775
363,-0.685,-0.560
364,-0.560,-0.375
365,-0.440,-0.200
366,-0.305,-0.065
367,-0.155,0.035
368,-0.035,0.165
369,0.005,0.290
370,0.040,0.400
371,0.070,0.410
372,0.080,0.440
373,0.095,0.460
374,0.100,0.470
375,0.115,0.485
376,0.125,0.505
377,0.130,0.500
378,0.150,0.505
379,0.155,0.490
380,0.160,0.540
381,0.180,0.520
382,0.195,0.515
383,0.195,0.525
384,0.210,0.545
385,0.210,0.560
386,0.200,0.560
387,0.195,0.565
388,0.205,0.565
389,0.210,0.555
390,0.185,0.570
391,0.195,0.575
392,0.160,0.565
393,0.180,0.560
394,0.150,0.555
395,0.140,0.540
396,0.110,0.515
397,0.080,0.505
398,0.065,0.495
399,0.035,0.470
400,0.005,0.455
401,0.015,0.455
402,-0.030,0.400
403,-0.040,0.390
404,-0.080,0.385
405,-0.100,0.350
406,-0.130,0.335
407,-0.150,0.305
408,-0.160,0.310
409,-0.155,0.290
410,-0.160,0.275
411,-0.160,0.245
412,-0.155,0.235
413,-0.160,0.235
414,-0.165,0.230
415,-0.160,0.230
416,-0.145,0.240
417,-0.145,0.235
418,-0.155,0.245
419,-0.125,0.230
420,-0.135,0.235
421,-0.150,0.230
422,-0.145,0.225
423,-0.145,0.225
424,-0.160,0.205
425,-0.170,0.200
426,-0.160,0.220
427,-0.170,0.195
428,-0.170,0.195
429,-0.180,0.175
430,-0.190,0.185
431,-0.185,0.180
432,-0.185,0.180
433,-0.190,0.180
434,-0.170,0.155
435,-0.190,0.150
436,-0.190,0.155
437,-0.210,0.155
438,-0.210,0.145
439,-0.205,0.155
440,-0.215,0.155
441,-0.190,0.135
442,-0.185,0.145
443,-0.140,0.165
444,-0.125,0.210
445,-0.110,0.215
446,-0.100,0.185
447,-0.085,0.190
448,-0.110,0.175
449,-0.130,0.150
450,-0.140,0.140
451,-0.155,0.115
452,-0.145,0.110
453,-0.120,0.150
454,-0.115,0.160
455,-0.165,0.135
456,-0.235,0.135
457,-0.255,0.115
458,-0.275,0.085
459,-0.280,0.085
460,-0.265,0.100
461,-0.270,0.090
462,-0.270,0.085
463,-0.265,0.075
464,-0.265,0.075
465,-0.260,0.090
466,-0.265,0.100
467,-0.275,0.075
468,-0.280,0.085
469,-0.265,0.070
470,-0.255,0.080
471,-0.240,0.090
472,-0.180,0.085
473,-0.040,0.105
474,-0.120,0.125
475,-0.340,-0.090
476,-0.740,-0.460
477,-1.070,-0.930
478,-1.265,-1.320
479,-1.395,-1.740
480,-1.415,-1.955
481,-1.330,-1.655
482,-1.225,-1.390
483,-1.155,-1.245
484,-1.085,-1.130
485,-1.020,-1.000
486,-0.855,-0.830
487,-0.725,-0.620
488,-0.590,-0.415
489,-0.450,-0.230
490,-0.305,-0.085
491,-0.130,0.010
492,-0.065,0.170
493,0.025,0.295
494,0.060,0.390
495,0.105,0.425
496,0.120,0.455
497,0.120,0.475
498,0.135,0.485
499,0.150,0.490
500,0.150,0.495
501,0.155,0.510
502,0.180,0.515
503,0.185,0.525
504,0.185,0.535
505,0.195,0.530
506,0.200,0.570
507,0.210,0.555
508,0.235,0.555
509,0.215,0.550
510,0.215,0.575
511,0.240,0.575
512,0.215,0.585
513,0.230,0.580
514,0.220,0.590
515,0.220,0.570
516,0.195,0.570
517,0.195,0.570
518,0.170,0.570
519,0.165,0.545
520,0.150,0.530
521,0.120,0.510
522,0.105,0.480
523,0.085,0.490
524,0.060,0.465
525,0.025,0.460
526,0.005,0.425
527,-0.005,0.400
528,-0.025,0.380
529,-0.055,0.380
530,-0.080,0.350
531,-0.110,0.335
532,-0.130,0.310
533,-0.120,0.290
534,-0.120,0.270
535,-0.125,0.285
536,-0.120,0.250
537,-0.120,0.260
538,-0.120,0.255
539,-0.105,0.260
540,-0.115,0.260
541,-0.110,0.245
542,-0.125,0.250
543,-0.115,0.245
544,-0.105,0.240
545,-0.125,0.235
546,-0.115,0.240
547,-0.110,0.235
548,-0.125,0.240
549,-0.140,0.230
550,-0.130,0.210
551,-0.130,0.210
552,-0.130,0.200
553,-0.140,0.210
554,-0.145,0.205
555,-0.140,0.180
556,-0.145,0.175
557,-0.155,0.175
558,-0.160,0.170
559,-0.155,0.165
560,-0.170,0.160
561,-0.160,0.150
562,-0.165,0.150
563,-0.155,0.145
564,-0.145,0.155
565,-0.160,0.165
566,-0.140,0.160
567,-0.100,0.195
568,-0.075,0.230
569,-0.070,0.230
570,-0.040,0.255
571,-0.050,0.230
572,-0.065,0.185
573,-0.080,0.170
574,-0.095,0.150
575,-0.115,0.120
576,-0.085,0.140
577,-0.065,0.165
578,-0.075,0.170
579,-0.145,0.155
580,-0.185,0.150
581,-0.200,0.135
582,-0.200,0.115
583,-0.215,0.115
584,-0.210,0.110
585,-0.230,0.110
586,-0.225,0.110
587,-0.225,0.115
588,-0.230,0.095
589,-0.215,0.100
590,-0.230,0.090
591,-0.230,0.095
592,-0.220,0.110
593,-0.225,0.120
594,-0.220,0.105
595,-0.210,0.115
596,-0.085,0.110
597,0.005,0.170
598,-0.145,0.065
599,-0.425,-0.170
600,-0.840,-0.585
601,-1.130,-1.050
602,-1.285,-1.445
603,-1.350,-1.885
604,-1.360,-1.890
605,-1.255,-1.530
606,-1.180,-1.310
607,-1.085,-1.180
608,-1.045,-1.060
609,-0.925,-0.905
610,-0.760,-0.710
611,-0.610,-0.485
612,-0.515,-0.290
613,-0.375,-0.125
614,-0.200,-0.010
615,-0.075,0.120
616,0.000,0.235
617,0.075,0.365
618,0.080,0.430
619,0.105,0.455
620,0.120,0.475
621,0.150,0.490
622,0.150,0.515
623,0.160,0.495
624,0.170,0.510
625,0.185,0.520
626,0.190,0.535
627,0.200,0.530
628,0.205,0.540
629,0.230,0.535
630,0.215,0.545
631,0.205,0.585
632,0.225,0.585
633,0.230,0.585
634,0.240,0.575
635,0.225,0.580
636,0.225,0.580
637,0.240,0.595
638,0.220,0.590
639,0.215,0.575
640,0.210,0.590
641,0.200,0.570
642,0.160,0.550
643,0.155,0.520
644,0.125,0.540
645,0.095,0.525
646,0.075,0.500
647,0.045,0.485
648,0.030,0.460
649,0.000,0.435
650,-0.020,0.430
651,-0.035,0.400
652,-0.070,0.380
653,-0.085,0.345
654,-0.105,0.360
655,-0.115,0.325
656,-0.120,0.295
657,-0.135,0.300
658,-0.130,0.290
659,-0.120,0.290
660,-0.125,0.280
661,-0.130,0.285
662,-0.125,0.285
663,-0.110,0.290
664,-0.095,0.290
665,-0.100,0.275
666,-0.105,0.280
667,-0.120,0.250
668,-0.110,0.260
669,-0.095,0.275
670,-0.120,0.265
671,-0.135,0.250
672,-0.145,0.250
673,-0.145,0.235
674,-0.165,0.230
675,-0.165,0.230
676,-0.160,0.230
677,-0.155,0.205
678,-0.170,0.210
679,-0.170,0.210
680,-0.185,0.200
681,-0.180,0.205
682,-0.200,0.180
683,-0.180,0.175
684,-0.190,0.200
685,-0.195,0.185
686,-0.200,0.180
687,-0.190,0.185
688,-0.205,0.185
689,-0.190,0.200
690,-0.150,0.195
691,-0.135,0.245
692,-0.100,0.265
693,-0.075,0.265
694,-0.075,0.230
695,-0.095,0.195
696,-0.110,0.185
697,-0.125,0.160
698,-0.145,0.145
699,-0.115,0.160
700,-0.100,0.180
701,-0.105,0.185
702,-0.185,0.190
703,-0.225,0.165
704,-0.260,0.165
705,-0.260,0.150
706,-0.265,0.135
707,-0.265,0.135
708,-0.260,0.145
709,-0.275,0.145
710,-0.275,0.150
711,-0.265,0.140
712,-0.285,0.145
713,-0.285,0.130
714,-0.270,0.130
715,-0.275,0.120
716,-0.265,0.130
717,-0.265,0.115
718,-0.250,0.130
719,-0.165,0.140
720,-0.040,0.185
721,-0.195,0.110
722,-0.485,-0.200
723,-0.905,-0.625
724,-1.190,-1.070
725,-1.350,-1.495
726,-1.400,-1.890
727,-1.390,-1.855
728,-1.265,-1.485
729,-1.185,-1.280
730,-1.110,-1.155
731,-1.080,-1.040
732,-0.955,-0.885
733,-0.790,-0.690
734,-0.655,-0.475
735,-0.535,-0.275
736,-0.395,-0.095
737,-0.230,0.000
738,-0.105,0.140
739,-0.015,0.260
740,0.030,0.410
741,0.060,0.465
742,0.080,0.475
743,0.100,0.490
744,0.120,0.510
745,0.130,0.515
746,0.145,0.525
747,0.155,0.540
748,0.155,0.525
749,0.155,0.550
750,0.170,0.565
751,0.175,0.565
752,0.185,0.560
753,0.180,0.565
754,0.215,0.590
755,0.195,0.585
756,0.200,0.600
757,0.205,0.605
758,0.200,0.595
759,0.190,0.610
760,0.205,0.590
761,0.185,0.600
762,0.170,0.580
763,0.160,0.590
764,0.135,0.570
765,0.110,0.580
766,0.095,0.545
767,0.075,0.540
768,0.065,0.525
769,0.020,0.490
770,0.000,0.490
771,-0.020,0.470
772,-0.055,0.445
773,-0.090,0.435
774,-0.100,0.405
775,-0.125,0.380
776,-0.155,0.360
777,-0.170,0.345
778,-0.175,0.310
779,-0.185,0.315
780,-0.195,0.310
781,-0.200,0.305
782,-0.195,0.280
783,-0.170,0.290
784,-0.175,0.300
785,-0.160,0.265
786,-0.150,0.295
787,-0.170,0.300
788,-0.160,0.280
789,-0.150,0.280
790,-0.150,0.260
791,-0.155,0.285
792,-0.175,0.275
793,-0.170,0.275
794,-0.170,0.265
795,-0.165,0.275
796,-0.190,0.265
797,-0.190,0.255
798,-0.200,0.250
799,-0.205,0.250
800,-0.215,0.250
801,-0.210,0.230
802,-0.230,0.225
803,-0.235,0.215
804,-0.235,0.220
805,-0.240,0.215
806,-0.260,0.225
807,-0.265,0.220
808,-0.240,0.215
809,-0.250,0.215
810,-0.230,0.215
811,-0.225,0.210
812,-0.210,0.200
813,-0.170,0.235
814,-0.150,0.280
815,-0.145,0.290
816,-0.130,0.290
817,-0.140,0.250
818,-0.160,0.220
819,-0.155,0.205
820,-0.180,0.175
821,-0.195,0.160
822,-0.145,0.185
823,-0.145,0.205
824,-0.185,0.210
825,-0.235,0.190
826,-0.285,0.170
827,-0.300,0.160
828,-0.295,0.155
829,-0.315,0.155
830,-0.290,0.165
831,-0.300,0.145
832,-0.315,0.150
833,-0.315,0.145
834,-0.300,0.145
835,-0.300,0.145
836,-0.295,0.155
837,-0.295,0.160
838,-0.295,0.160
839,-0.295,0.160
840,-0.280,0.145
841,-0.230,0.145
842,-0.105,0.185
843,-0.180,0.185
844,-0.410,-0.025
845,-0.835,-0.375
846,-1.170,-0.840
847,-1.355,-1.225
848,-1.475,-1.655
849,-1.475,-1.845
850,-1.385,-1.520
851,-1.240,-1.245
852,-1.180,-1.140
853,-1.135,-1.035
854,-1.055,-0.890
855,-0.875,-0.745
856,-0.730,-0.540
857,-0.615,-0.340
858,-0.490,-0.165
859,-0.330,-0.040
860,-0.185,0.075
861,-0.095,0.220
862,-0.030,0.340
863,-0.005,0.440
864,0.025,0.475
865,0.040,0.475
866,0.035,0.515
867,0.045,0.495
868,0.060,0.525
869,0.090,0.515
870,0.100,0.540
871,0.115,0.540
872,0.115,0.540
873,0.125,0.535
874,0.125,0.555
875,0.115,0.545
876,0.140,0.555
877,0.150,0.565
878,0.150,0.575
879,0.145,0.570
880,0.160,0.575
881,0.140,0.575
882,0.150,0.590
883,0.135,0.590
884,0.125,0.580
885,0.115,0.575
886,0.105,0.580
887,0.100,0.570
888,0.075,0.550
889,0.055,0.540
890,0.040,0.510
891,0.000,0.510
892,-0.010,0.480
893,-0.030,0.450
894,-0.070,0.445
895,-0.100,0.430
896,-0.125,0.405
897,-0.140,0.385
898,-0.160,0.370
899,-0.190,0.370
900,-0.190,0.325
901,-0.205,0.335
902,-0.225,0.295
903,-0.225,0.285
904,-0.230,0.280
905,-0.215,0.275
906,-0.225,0.265
907,-0.205,0.255
908,-0.205,0.270
909,-0.210,0.265
910,-0.195,0.275
911,-0.185,0.270
912,-0.180,0.280
913,-0.165,0.270
914,-0.185,0.265
915,-0.200,0.280
916,-0.185,0.260
917,-0.190,0.260
918,-0.190,0.270
919,-0.200,0.250
920,-0.195,0.255
921,-0.210,0.250
922,-0.210,0.240
923,-0.220,0.245
924,-0.235,0.225
925,-0.230,0.215
926,-0.235,0.205
927,-0.240,0.220
928,-0.235,0.225
929,-0.240,0.185
930,-0.230,0.210
931,-0.240,0.210
932,-0.240,0.195
933,-0.230,0.195
934,-0.250,0.190
935,-0.230,0.185
936,-0.205,0.210
937,-0.195,0.215
938,-0.150,0.265
939,-0.155,0.265
940,-0.120,0.265
941,-0.135,0.255
942,-0.135,0.215
943,-0.160,0.180
944,-0.170,0.180
945,-0.170,0.155
946,-0.145,0.175
947,-0.130,0.200
948,-0.150,0.205
949,-0.220,0.195
950,-0.260,0.185
951,-0.290,0.170
952,-0.295,0.160
953,-0.290,0.155
954,-0.295,0.145
955,-0.305,0.165
956,-0.295,0.170
957,-0.295,0.155
958,-0.300,0.155
959,-0.280,0.150
960,-0.295,0.135
961,-0.270,0.175
962,-0.280,0.145
963,-0.280,0.150
964,-0.265,0.150
965,-0.235,0.145
966,-0.165,0.170
967,-0.035,0.210
968,-0.155,0.170
969,-0.395,-0.095
970,-0.795,-0.470
971,-1.130,-0.920
972,-1.310,-1.290
973,-1.400,-1.750
974,-1.420,-1.855
975,-1.330,-1.530
976,-1.240,-1.285
977,-1.175,-1.175
978,-1.115,-1.060
979,-1.035,-0.935
980,-0.880,-0.745
981,-0.715,-0.580
982,-0.595,-0.355
983,-0.480,-0.190
984,-0.340,-0.045
985,-0.195,0.045
986,-0.065,0.195
987,0.000,0.325
988,0.025,0.425
989,0.050,0.465
990,0.070,0.480
991,0.095,0.490
992,0.115,0.505
993,0.130,0.505
994,0.135,0.530
995,0.150,0.525
996,0.160,0.545
997,0.155,0.545
998,0.170,0.540
999,0.180,0.555
1000,0.160,0.555
1001,0.180,0.555
1002,0.190,0.570
1003,0.205,0.590
1004,0.190,0.590
1005,0.200,0.595
1006,0.190,0.585
1007,0.205,0.595
1008,0.185,0.600
1009,0.190,0.590
1010,0.175,0.580
1011,0.175,0.590
1012,0.135,0.570
1013,0.125,0.550
1014,0.110,0.560
1015,0.080,0.530
1016,0.050,0.525
1017,0.035,0.495
1018,0.010,0.490
1019,-0.010,0.440
1020,-0.040,0.440
1021,-0.055,0.430
1022,-0.090,0.405
1023,-0.090,0.370
1024,-0.130,0.360
1025,-0.145,0.345
1026,-0.185,0.320
1027,-0.190,0.305
1028,-0.190,0.290
1029,-0.200,0.295
1030,-0.190,0.265
1031,-0.170,0.260
1032,-0.185,0.270
1033,-0.175,0.260
1034,-0.175,0.265
1035,-0.160,0.255
1036,-0.170,0.255
1037,-0.175,0.250
1038,-0.145,0.270
1039,-0.150,0.270
1040,-0.155,0.265
1041,-0.150,0.265
1042,-0.165,0.250
1043,-0.160,0.250
1044,-0.160,0.250
1045,-0.160,0.240
1046,-0.175,0.240
1047,-0.165,0.240
1048,-0.170,0.230
1049,-0.195,0.230
1050,-0.185,0.215
1051,-0.195,0.220
1052,-0.210,0.200
1053,-0.195,0.215
1054,-0.205,0.200
1055,-0.205,0.190
1056,-0.200,0.190
1057,-0.200,0.200
1058,-0.195,0.190
1059,-0.190,0.195
1060,-0.190,0.205
1061,-0.200,0.195
1062,-0.190,0.190
1063,-0.200,0.185
1064,-0.120,0.230
1065,-0.120,0.245
1066,-0.100,0.270
1067,-0.080,0.255
1068,-0.075,0.235
1069,-0.085,0.210
1070,-0.115,0.190
1071,-0.110,0.165
1072,-0.140,0.140
1073,-0.120,0.155
1074,-0.080,0.175
1075,-0.090,0.185
1076,-0.150,0.165
1077,-0.215,0.170
1078,-0.245,0.145
1079,-0.230,0.145
1080,-0.245,0.140
1081,-0.235,0.150
1082,-0.240,0.145
1083,-0.240,0.130
1084,-0.240,0.135
1085,-0.240,0.130
1086,-0.230,0.140
1087,-0.250,0.120
1088,-0.220,0.135
1089,-0.235,0.145
1090,-0.220,0.135
1091,-0.225,0.110
1092,-0.205,0.135
1093,-0.100,0.155
1094,-0.010,0.200
1095,-0.150,0.110
1096,-0.460,-0.180
1097,-0.870,-0.615
1098,-1.150,-1.055
1099,-1.280,-1.440
1100,-1.365,-1.855
1101,-1.365,-1.815
1102,-1.265,-1.475
1103,-1.175,-1.280
1104,-1.110,-1.160
1105,-1.075,-1.050
1106,-0.940,-0.895
1107,-0.780,-0.715
1108,-0.650,-0.485
1109,-0.505,-0.290
1110,-0.355,-0.120
1111,-0.205,-0.015
1112,-0.085,0.090
1113,0.015,0.255
1114,0.075,0.380
1115,0.070,0.440
1116,0.105,0.455
1117,0.120,0.475
1118,0.135,0.485
1119,0.150,0.480
1120,0.165,0.505
1121,0.180,0.495
1122,0.180,0.520
1123,0.180,0.520
1124,0.195,0.505
1125,0.215,0.540
1126,0.210,0.535
1127,0.205,0.535
1128,0.215,0.550
1129,0.215,0.565
1130,0.225,0.560
1131,0.230,0.575
1132,0.225,0.560
1133,0.220,0.565
1134,0.210,0.570
1135,0.215,0.570
1136,0.205,0.545
1137,0.185,0.555
1138,0.150,0.545
1139,0.155,0.525
1140,0.140,0.505
1141,0.110,0.485
1142,0.085,0.500
1143,0.065,0.480
1144,0.055,0.450
1145,0.020,0.435
1146,0.000,0.415
1147,-0.030,0.395
1148,-0.060,0.370
1149,-0.080,0.350
1150,-0.120,0.315
1151,-0.125,0.315
1152,-0.150,0.320
1153,-0.140,0.270
1154,-0.140,0.275
1155,-0.175,0.250
1156,-0.160,0.255
1157,-0.165,0.245
1158,-0.150,0.245
1159,-0.140,0.255
1160,-0.145,0.250
1161,-0.135,0.240
1162,-0.125,0.225
1163,-0.135,0.240
1164,-0.125,0.235
1165,-0.125,0.240
1166,-0.130,0.245
1167,-0.135,0.235
1168,-0.140,0.240
1169,-0.135,0.230
1170,-0.150,0.220
1171,-0.160,0.225
1172,-0.160,0.205
1173,-0.150,0.210
1174,-0.155,0.220
1175,-0.170,0.225
1176,-0.170,0.200
1177,-0.180,0.210
1178,-0.175,0.200
1179,-0.170,0.195
1180,-0.180,0.190
1181,-0.185,0.195
1182,-0.175,0.175
1183,-0.185,0.180
1184,-0.175,0.195
1185,-0.190,0.185
1186,-0.195,0.185
1187,-0.150,0.180
1188,-0.125,0.205
1189,-0.105,0.250
1190,-0.085,0.260
1191,-0.060,0.235
1192,-0.060,0.225
1193,-0.085,0.185
1194,-0.090,0.140
1195,-0.115,0.150
1196,-0.135,0.135
1197,-0.115,0.155
1198,-0.060,0.170
1199,-0.075,0.195
1200,-0.150,0.185
1201,-0.215,0.170
1202,-0.225,0.140
1203,-0.245,0.150
1204,-0.245,0.125
1205,-0.250,0.140
1206,-0.235,0.115
1207,-0.245,0.140
1208,-0.245,0.130
1209,-0.240,0.135
1210,-0.230,0.135
1211,-0.255,0.145
1212,-0.255,0.130
1213,-0.230,0.125
1214,-0.245,0.130
1215,-0.230,0.110
1216,-0.210,0.130
1217,-0.155,0.130
1218,-0.020,0.180
1219,-0.115,0.165
1220,-0.340,-0.070
1221,-0.755,-0.395
1222,-1.105,-0.885
1223,-1.290,-1.255
1224,-1.405,-1.690
1225,-1.415,-1.855
1226,-1.315,-1.555
1227,-1.195,-1.280
1228,-1.130,-1.160
1229,-1.080,-1.075
1230,-1.015,-0.935
1231,-0.835,-0.760
1232,-0.700,-0.565
1233,-0.560,-0.365
1234,-0.475,-0.200
1235,-0.300,-0.080
1236,-0.155,0.035
1237,-0.070,0.170
1238,0.005,0.260
1239,0.045,0.385
1240,0.065,0.410
1241,0.100,0.450
1242,0.090,0.450
1243,0.105,0.460
1244,0.135,0.475
1245,0.135,0.470
1246,0.140,0.485
1247,0.155,0.500
1248,0.145,0.520
1249,0.160,0.525
1250,0.170,0.500
1251,0.165,0.520
1252,0.185,0.525
1253,0.185,0.545
1254,0.195,0.545
1255,0.195,0.545
1256,0.195,0.545
1257,0.195,0.555
1258,0.170,0.565
1259,0.175,0.550
1260,0.185,0.540
1261,0.170,0.575
1262,0.170,0.530
1263,0.145,0.535
1264,0.115,0.515
1265,0.095,0.505
1266,0.085,0.490
1267,0.055,0.475
1268,0.040,0.460
1269,0.010,0.445
1270,-0.010,0.425
1271,-0.035,0.400
1272,-0.060,0.395
1273,-0.090,0.360
1274,-0.120,0.340
1275,-0.145,0.320
1276,-0.150,0.310
1277,-0.170,0.290
1278,-0.195,0.250
1279,-0.205,0.250
1280,-0.195,0.240
1281,-0.205,0.235
1282,-0.195,0.240
1283,-0.195,0.220
1284,-0.200,0.215
1285,-0.185,0.220
1286,-0.175,0.215
1287,-0.200,0.210
1288,-0.200,0.220
1289,-0.185,0.220
1290,-0.180,0.215
1291,-0.175,0.225
1292,-0.180,0.220
1293,-0.185,0.210
1294,-0.195,0.215
1295,-0.190,0.195
1296,-0.205,0.200
1297,-0.225,0.220
1298,-0.215,0.180
1299,-0.220,0.195
1300,-0.225,0.185
1301,-0.230,0.180
1302,-0.230,0.175
1303,-0.230,0.175
1304,-0.230,0.160
1305,-0.230,0.185
1306,-0.235,0.190
1307,-0.245,0.175
1308,-0.240,0.160
1309,-0.235,0.175
1310,-0.250,0.160
1311,-0.235,0.175
1312,-0.230,0.165
1313,-0.205,0.175
1314,-0.185,0.210
1315,-0.180,0.245
1316,-0.125,0.245
1317,-0.140,0.220
1318,-0.150,0.190
1319,-0.145,0.175
1320,-0.170,0.125
1321,-0.200,0.125
1322,-0.185,0.115
1323,-0.140,0.145
1324,-0.170,0.170
1325,-0.225,0.190
1326,-0.260,0.155
1327,-0.290,0.145
1328,-0.300,0.125
1329,-0.305,0.130
1330,-0.300,0.130
1331,-0.290,0.140
1332,-0.310,0.110
1333,-0.295,0.120
1334,-0.295,0.125
1335,-0.290,0.115
1336,-0.295,0.120
1337,-0.285,0.130
1338,-0.285,0.130
1339,-0.290,0.115
1340,-0.280,0.120
1341,-0.260,0.110
1342,-0.205,0.125
1343,-0.055,0.155
1344,-0.205,0.140
1345,-0.440,-0.090
1346,-0.870,-0.465
1347,-1.210,-0.910
1348,-1.385,-1.300
1349,-1.500,-1.725
1350,-1.505,-1.820
1351,-1.360,-1.470
1352,-1.260,-1.230
1353,-1.175,-1.120
1354,-1.125,-1.020
1355,-1.020,-0.880
1356,-0.840,-0.715
1357,-0.680,-0.490
1358,-0.575,-0.290
1359,-0.440,-0.160
1360,-0.295,-0.050
1361,-0.135,0.095
1362,-0.045,0.225
1363,-0.005,0.360
1364,0.025,0.415
1365,0.035,0.430
1366,0.055,0.435
1367,0.095,0.450
1368,0.080,0.450
1369,0.085,0.440
1370,0.115,0.455
1371,0.110,0.480
1372,0.105,0.495
1373,0.120,0.490
1374,0.130,0.495
1375,0.145,0.500
1376,0.140,0.515
1377,0.165,0.505
1378,0.145,0.535
1379,0.155,0.535
1380,0.170,0.535
1381,0.170,0.545
1382,0.165,0.560
1383,0.170,0.550
1384,0.155,0.545
1385,0.150,0.540
1386,0.135,0.535
1387,0.135,0.550
1388,0.120,0.510
1389,0.090,0.505
1390,0.065,0.500
1391,0.040,0.495
1392,0.020,0.465
1393,-0.005,0.465
1394,-0.020,0.420
1395,-0.045,0.405
1396,-0.090,0.385
1397,-0.110,0.385
1398,-0.130,0.330
1399,-0.155,0.330
1400,-0.195,0.295
1401,-0.195,0.285
1402,-0.210,0.265
1403,-0.215,0.250
1404,-0.215,0.230
1405,-0.240,0.245
1406,-0.220,0.230
1407,-0.210,0.230
1408,-0.210,0.220
1409,-0.225,0.215
1410,-0.210,0.205
1411,-0.220,0.215
1412,-0.205,0.210
1413,-0.200,0.210
1414,-0.215,0.200
1415,-0.210,0.195
1416,-0.205,0.200
1417,-0.225,0.195
1418,-0.205,0.195
1419,-0.220,0.200
1420,-0.225,0.190
1421,-0.230,0.195
1422,-0.230,0.180
1423,-0.225,0.180
1424,-0.255,0.165
1425,-0.245,0.160
1426,-0.255,0.155
1427,-0.260,0.165
1428,-0.255,0.175
1429,-0.260,0.175
1430,-0.255,0.150
1431,-0.245,0.140
1432,-0.250,0.140
1433,-0.255,0.155
1434,-0.245,0.160
1435,-0.260,0.160
1436,-0.245,0.140
1437,-0.235,0.160
1438,-0.190,0.200
1439,-0.170,0.210
1440,-0.155,0.225
1441,-0.120,0.235
1442,-0.145,0.190
1443,-0.150,0.180
1444,-0.135,0.150
1445,-0.195,0.130
1446,-0.190,0.115
1447,-0.165,0.110
1448,-0.140,0.145
1449,-0.195,0.155
1450,-0.240,0.145
1451,-0.260,0.135
1452,-0.290,0.105
1453,-0.310,0.110
1454,-0.310,0.095
1455,-0.310,0.110
1456,-0.310,0.105
1457,-0.300,0.110
1458,-0.295,0.115
1459,-0.285,0.115
1460,-0.290,0.110
1461,-0.280,0.115
1462,-0.300,0.105
1463,-0.290,0.110
1464,-0.285,0.105
1465,-0.275,0.090
1466,-0.250,0.100
1467,-0.135,0.125
1468,-0.095,0.175
1469,-0.280,0.015
1470,-0.620,-0.285
1471,-1.000,-0.750
1472,-1.295,-1.135
1473,-1.430,-1.595
1474,-1.480,-1.945
1475,-1.440,-1.760
1476,-1.345,-1.455
1477,-1.255,-1.275
1478,-1.180,-1.180
1479,-1.100,-1.025
1480,-0.980,-0.875
1481,-0.810,-0.665
1482,-0.685,-0.465
1483,-0.565,-0.270
1484,-0.420,-0.125
1485,-0.270,-0.010
1486,-0.140,0.105
1487,-0.050,0.255
1488,0.000,0.360
1489,0.005,0.420
1490,0.025,0.420
1491,0.055,0.430
1492,0.060,0.455
1493,0.070,0.435
1494,0.090,0.445
1495,0.100,0.460
1496,0.095,0.460
1497,0.110,0.450
1498,0.120,0.485
1499,0.130,0.485
1500,0.135,0.500
1501,0.145,0.485
1502,0.135,0.495
1503,0.145,0.485
1504,0.145,0.495
1505,0.140,0.505
1506,0.150,0.500
1507,0.130,0.520
1508,0.130,0.525
1509,0.125,0.520
1510,0.110,0.505
1511,0.100,0.500
1512,0.100,0.470
1513,0.090,0.490
1514,0.085,0.465
1515,0.045,0.450
1516,0.025,0.450
1517,0.010,0.425
1518,0.000,0.415
1519,-0.040,0.375
1520,-0.065,0.360
1521,-0.100,0.330
1522,-0.120,0.345
1523,-0.140,0.295
1524,-0.175,0.285
1525,-0.195,0.270
1526,-0.220,0.255
1527,-0.230,0.245
1528,-0.230,0.215
1529,-0.240,0.215
1530,-0.250,0.210
1531,-0.235,0.205
1532,-0.245,0.190
1533,-0.250,0.195
1534,-0.240,0.200
1535,-0.245,0.195
1536,-0.235,0.185
1537,-0.235,0.190
1538,-0.230,0.185
1539,-0.230,0.185
1540,-0.225,0.180
1541,-0.220,0.175
1542,-0.235,0.155
1543,-0.230,0.165
1544,-0.230,0.160
1545,-0.250,0.150
1546,-0.250,0.145
1547,-0.265,0.135
1548,-0.255,0.145
1549,-0.255,0.130
1550,-0.275,0.125
1551,-0.270,0.115
1552,-0.275,0.115
1553,-0.275,0.120
1554,-0.275,0.110
1555,-0.270,0.105
1556,-0.270,0.110
1557,-0.260,0.100
1558,-0.280,0.115
1559,-0.280,0.120
1560,-0.290,0.125
1561,-0.280,0.120
1562,-0.265,0.110
1563,-0.270,0.115
1564,-0.230,0.130
1565,-0.225,0.145
1566,-0.200,0.175
1567,-0.155,0.195
1568,-0.150,0.200
1569,-0.170,0.160
1570,-0.185,0.140
1571,-0.195,0.100
1572,-0.210,0.080
1573,-0.205,0.065
1574,-0.190,0.100
1575,-0.170,0.105
1576,-0.220,0.135
1577,-0.285,0.100
1578,-0.325,0.075
1579,-0.320,0.055
1580,-0.335,0.070
1581,-0.315,0.050
1582,-0.340,0.065
1583,-0.335,0.055
1584,-0.315,0.055
1585,-0.310,0.055
1586,-0.325,0.070
1587,-0.310,0.060
1588,-0.310,0.065
1589,-0.315,0.070
1590,-0.295,0.075
1591,-0.290,0.065
1592,-0.295,0.050
1593,-0.260,0.065
1594,-0.110,0.095
1595,-0.125,0.130
1596,-0.320,-0.070
1597,-0.710,-0.370
1598,-1.085,-0.875
1599,-1.300,-1.270
1600,-1.455,-1.730
1601,-1.475,-1.980
1602,-1.430,-1.725
1603,-1.335,-1.405
1604,-1.250,-1.275
1605,-1.185,-1.185
1606,-1.100,-1.020
1607,-0.965,-0.885
1608,-0.795,-0.670
1609,-0.650,-0.465
1610,-0.525,-0.270
1611,-0.360,-0.130
1612,-0.230,-0.020
1613,-0.120,0.105
1614,-0.060,0.245
1615,0.000,0.325
1616,0.020,0.380
1617,0.030,0.385
1618,0.050,0.395
1619,0.070,0.405
1620,0.080,0.425
1621,0.085,0.425
1622,0.115,0.425
1623,0.100,0.435
1624,0.105,0.430
1625,0.100,0.440
1626,0.115,0.425
1627,0.140,0.435
1628,0.135,0.425
1629,0.130,0.435
1630,0.130,0.455
1631,0.135,0.450
1632,0.140,0.445
1633,0.145,0.465
1634,0.130,0.475
1635,0.135,0.470
1636,0.140,0.480
1637,0.125,0.465
1638,0.105,0.460
1639,0.090,0.440
1640,0.070,0.435
1641,0.070,0.420
1642,0.015,0.425
1643,0.005,0.415
1644,-0.015,0.385
1645,-0.040,0.365
1646,-0.070,0.330
1647,-0.090,0.315
1648,-0.125,0.315
1649,-0.150,0.280
1650,-0.165,0.250
1651,-0.205,0.235
1652,-0.235,0.195
1653,-0.245,0.195
1654,-0.245,0.175
1655,-0.245,0.190
1656,-0.255,0.150
1657,-0.255,0.160
1658,-0.235,0.155
1659,-0.240,0.145
1660,-0.255,0.150
1661,-0.255,0.155
1662,-0.230,0.150
1663,-0.230,0.145
1664,-0.225,0.135
1665,-0.240,0.145
1666,-0.245,0.145
1667,-0.250,0.145
1668,-0.255,0.145
1669,-0.240,0.120
1670,-0.260,0.115
1671,-0.280,0.100
1672,-0.285,0.105
1673,-0.290,0.095
1674,-0.275,0.105
1675,-0.275,0.095
1676,-0.290,0.085
1677,-0.300,0.090
1678,-0.305,0.075
1679,-0.310,0.075
1680,-0.310,0.100
1681,-0.295,0.095
1682,-0.305,0.070
1683,-0.300,0.080
1684,-0.315,0.075
1685,-0.300,0.090
1686,-0.320,0.090
1687,-0.300,0.090
1688,-0.270,0.085
1689,-0.255,0.105
1690,-0.245,0.165
1691,-0.215,0.160
1692,-0.200,0.160
1693,-0.205,0.125
1694,-0.220,0.090
1695,-0.230,0.070
1696,-0.250,0.050
1697,-0.260,0.040
1698,-0.210,0.065
1699,-0.215,0.085
1700,-0.255,0.080
1701,-0.335,0.065
1702,-0.365,0.025
1703,-0.370,0.040
1704,-0.355,0.045
1705,-0.370,0.030
1706,-0.370,0.035
1707,-0.380,0.040
1708,-0.360,0.025
1709,-0.370,0.030
1710,-0.370,0.035
1711,-0.385,0.025
1712,-0.370,0.025
1713,-0.380,0.030
1714,-0.350,0.035
1715,-0.350,0.035
1716,-0.355,0.035
1717,-0.260,0.045
1718,-0.155,0.080
1719,-0.265,0.025
1720,-0.530,-0.180
1721,-0.955,-0.580
1722,-1.295,-0.990
1723,-1.490,-1.410
1724,-1.590,-1.800
1725,-1.570,-1.855
1726,-1.425,-1.480
1727,-1.295,-1.275
1728,-1.220,-1.180
1729,-1.180,-1.045
1730,-1.040,-0.900
1731,-0.860,-0.720
1732,-0.725,-0.490
1733,-0.610,-0.310
1734,-0.460,-0.170
1735,-0.315,-0.060
1736,-0.195,0.060
1737,-0.085,0.195
1738,-0.035,0.300
1739,-0.015,0.325
1740,0.000,0.350
1741,0.005,0.380
1742,0.025,0.380
1743,0.030,0.400
1744,0.030,0.410
1745,0.055,0.385
1746,0.065,0.405
1747,0.060,0.415
1748,0.060,0.405
1749,0.060,0.425
1750,0.075,0.425
1751,0.085,0.415
1752,0.080,0.435
1753,0.095,0.450
1754,0.095,0.440
1755,0.090,0.445
1756,0.095,0.450
1757,0.075,0.445
1758,0.080,0.455
1759,0.065,0.455
1760,0.050,0.450
1761,0.030,0.430
1762,0.010,0.410
1763,-0.010,0.420
1764,-0.020,0.410
1765,-0.035,0.395
1766,-0.055,0.380
1767,-0.095,0.355
1768,-0.100,0.340
1769,-0.140,0.305
1770,-0.160,0.295
1771,-0.210,0.260
1772,-0.210,0.245
1773,-0.265,0.225
1774,-0.280,0.200
1775,-0.270,0.190
1776,-0.300,0.170
1777,-0.320,0.160
1778,-0.300,0.150
1779,-0.310,0.130
1780,-0.310,0.130
1781,-0.310,0.110
1782,-0.305,0.105
1783,-0.305,0.110
1784,-0.295,0.115
1785,-0.290,0.120
1786,-0.300,0.115
1787,-0.285,0.110
1788,-0.290,0.100
1789,-0.280,0.130
1790,-0.305,0.105
1791,-0.300,0.105
1792,-0.320,0.095
1793,-0.315,0.100
1794,-0.330,0.090
1795,-0.320,0.085
1796,-0.345,0.065
1797,-0.345,0.075
1798,-0.345,0.080
1799,-0.350,0.070
1800,-0.340,0.070
1801,-0.340,0.055
1802,-0.350,0.060
1803,-0.350,0.055
1804,-0.355,0.035
1805,-0.355,0.040
1806,-0.360,0.050
1807,-0.360,0.030
1808,-0.335,0.035
1809,-0.350,0.045
1810,-0.355,0.045
1811,-0.310,0.045
1812,-0.270,0.090
1813,-0.260,0.130
1814,-0.245,0.140
1815,-0.230,0.115
1816,-0.240,0.090
1817,-0.255,0.075
1818,-0.250,0.045
1819,-0.275,0.040
1820,-0.265,0.050
1821,-0.220,0.065
1822,-0.230,0.085
1823,-0.280,0.085
1824,-0.325,0.070
1825,-0.370,0.055
1826,-0.375,0.050
1827,-0.375,0.020
1828,-0.375,0.040
1829,-0.360,0.035
1830,-0.365,0.045
1831,-0.370,0.040
1832,-0.380,0.055
1833,-0.365,0.040
1834,-0.375,0.055
1835,-0.370,0.035
1836,-0.380,0.040
1837,-0.360,0.045
1838,-0.365,0.035
1839,-0.330,0.020
1840,-0.295,0.035
1841,-0.150,0.075
1842,-0.210,0.085
1843,-0.440,-0.145
1844,-0.815,-0.505
1845,-1.175,-0.960
1846,-1.375,-1.360
1847,-1.505,-1.780
1848,-1.535,-1.935
1849,-1.470,-1.610
1850,-1.370,-1.385
1851,-1.285,-1.255
1852,-1.205,-1.160
1853,-1.115,-1.040
1854,-0.955,-0.865
1855,-0.810,-0.645
1856,-0.680,-0.435
1857,-0.535,-0.270
1858,-0.360,-0.145
1859,-0.215,-0.005
1860,-0.110,0.115
1861,-0.045,0.245
1862,-0.010,0.340
1863,-0.005,0.360
1864,0.005,0.380
1865,0.035,0.390
1866,0.040,0.415
1867,0.065,0.420
1868,0.055,0.415
1869,0.065,0.435
1870,0.090,0.425
1871,0.095,0.435
1872,0.100,0.440
1873,0.095,0.450
1874,0.115,0.470
1875,0.110,0.455
1876,0.125,0.460
1877,0.105,0.480
1878,0.130,0.475
1879,0.120,0.460
1880,0.125,0.475
1881,0.110,0.485
1882,0.115,0.460
1883,0.085,0.465
1884,0.080,0.465
1885,0.050,0.470
1886,0.045,0.455
1887,0.030,0.435
1888,0.025,0.435
1889,-0.005,0.415
1890,-0.030,0.400
1891,-0.070,0.375
1892,-0.090,0.350
1893,-0.100,0.325
1894,-0.145,0.310
1895,-0.170,0.300
1896,-0.200,0.265
1897,-0.205,0.245
1898,-0.225,0.250
1899,-0.250,0.215
1900,-0.275,0.185
1901,-0.275,0.155
1902,-0.275,0.155
1903,-0.285,0.160
1904,-0.290,0.155
1905,-0.290,0.140
1906,-0.285,0.125
1907,-0.275,0.130
1908,-0.270,0.120
1909,-0.265,0.125
1910,-0.260,0.125
1911,-0.270,0.120
1912,-0.265,0.130
1913,-0.255,0.130
1914,-0.260,0.140
1915,-0.280,0.115
1916,-0.300,0.125
1917,-0.285,0.115
1918,-0.285,0.105
1919,-0.280,0.105
1920,-0.310,0.110
1921,-0.300,0.100
1922,-0.315,0.095
1923,-0.300,0.075
1924,-0.295,0.085
1925,-0.305,0.085
1926,-0.335,0.080
1927,-0.325,0.060
1928,-0.315,0.075
1929,-0.335,0.070
1930,-0.345,0.080
1931,-0.345,0.050
1932,-0.340,0.055
1933,-0.350,0.050
1934,-0.340,0.060
1935,-0.325,0.065
1936,-0.330,0.060
1937,-0.305,0.070
1938,-0.275,0.085
1939,-0.235,0.115
1940,-0.230,0.145
1941,-0.215,0.155
1942,-0.210,0.120
1943,-0.220,0.080
1944,-0.245,0.060
1945,-0.255,0.050
1946,-0.265,0.040
1947,-0.235,0.040
1948,-0.210,0.080
1949,-0.225,0.100
1950,-0.280,0.075
1951,-0.350,0.050
1952,-0.350,0.060
1953,-0.345,0.040
1954,-0.365,0.045
1955,-0.350,0.075
1956,-0.360,0.045
1957,-0.335,0.055
1958,-0.335,0.045
1959,-0.360,0.045
1960,-0.350,0.050
1961,-0.340,0.040
1962,-0.345,0.055
1963,-0.340,0.060
1964,-0.340,0.045
1965,-0.350,0.055
1966,-0.320,0.045
1967,-0.205,0.055
1968,-0.120,0.150
1969,-0.290,0.005
1970,-0.595,-0.290
1971,-0.980,-0.755
1972,-1.275,-1.165
1973,-1.430,-1.590
1974,-1.495,-1.935
1975,-1.470,-1.825
1976,-1.360,-1.500
1977,-1.270,-1.310
1978,-1.215,-1.200
1979,-1.155,-1.055
1980,-1.020,-0.920
1981,-0.845,-0.695
1982,-0.720,-0.500
1983,-0.590,-0.325
1984,-0.450,-0.160
1985,-0.305,-0.060
1986,-0.180,0.050
1987,-0.075,0.195
1988,-0.025,0.310
1989,-0.005,0.380
1990,-0.005,0.400
1991,0.010,0.405
1992,0.015,0.430
1993,0.030,0.435
1994,0.045,0.440
1995,0.055,0.455
1996,0.055,0.460
1997,0.075,0.445
1998,0.090,0.475
1999,0.085,0.475
2000,0.095,0.475
2001,0.115,0.480
2002,0.115,0.495
2003,0.105,0.500
2004,0.140,0.485
2005,0.115,0.505
2006,0.125,0.515
2007,0.115,0.500
2008,0.120,0.485
2009,0.100,0.480
2010,0.095,0.490
2011,0.080,0.465
2012,0.085,0.465
2013,0.055,0.450
2014,0.035,0.445
2015,0.020,0.420
2016,0.000,0.405
2017,0.000,0.410
2018,-0.035,0.365
2019,-0.065,0.360
2020,-0.100,0.340
2021,-0.120,0.335
2022,-0.150,0.290
2023,-0.165,0.270
2024,-0.195,0.265
2025,-0.245,0.245
2026,-0.270,0.215
2027,-0.290,0.205
2028,-0.275,0.190
2029,-0.285,0.185
2030,-0.285,0.180
2031,-0.290,0.170
2032,-0.295,0.165
2033,-0.290,0.165
2034,-0.290,0.165
2035,-0.285,0.165
2036,-0.270,0.165
2037,-0.265,0.150
2038,-0.270,0.140
2039,-0.265,0.145
2040,-0.270,0.150
2041,-0.275,0.140
2042,-0.285,0.140
2043,-0.270,0.145
2044,-0.270,0.125
2045,-0.290,0.125
2046,-0.290,0.105
2047,-0.295,0.110
2048,-0.320,0.100
2049,-0.310,0.090
2050,-0.300,0.105
2051,-0.310,0.090
2052,-0.320,0.095
2053,-0.320,0.075
2054,-0.335,0.065
2055,-0.325,0.080
2056,-0.335,0.070
2057,-0.330,0.070
2058,-0.350,0.060
2059,-0.340,0.065
2060,-0.335,0.060
2061,-0.355,0.070
2062,-0.310,0.060
2063,-0.290,0.095
2064,-0.250,0.135
2065,-0.235,0.160
2066,-0.230,0.135
2067,-0.230,0.120
2068,-0.240,0.085
2069,-0.245,0.055
2070,-0.260,0.040
2071,-0.290,0.025
2072,-0.250,0.050
2073,-0.215,0.080
2074,-0.245,0.065
2075,-0.315,0.075
2076,-0.325,0.045
2077,-0.365,0.050
2078,-0.375,0.035
2079,-0.365,0.045
2080,-0.375,0.055
2081,-0.370,0.055
2082,-0.370,0.055
2083,-0.360,0.065
2084,-0.380,0.055
2085,-0.370,0.055
2086,-0.365,0.050
2087,-0.350,0.045
2088,-0.370,0.025
2089,-0.385,0.045
2090,-0.370,0.045
2091,-0.345,0.045
2092,-0.270,0.060
2093,-0.140,0.100
2094,-0.285,0.045
2095,-0.545,-0.195
2096,-0.960,-0.590
2097,-1.290,-1.015
2098,-1.480,-1.410
2099,-1.590,-1.825
2100,-1.560,-1.855
2101,-1.445,-1.510
2102,-1.315,-1.305
2103,-1.230,-1.170
2104,-1.185,-1.075
2105,-1.085,-0.940
2106,-0.910,-0.765
2107,-0.765,-0.570
2108,-0.655,-0.370
2109,-0.525,-0.200
2110,-0.365,-0.110
2111,-0.220,0.015
2112,-0.135,0.130
2113,-0.060,0.265
2114,-0.035,0.335
2115,0.000,0.345
2116,-0.010,0.375
2117,0.010,0.390
2118,0.035,0.390
2119,0.035,0.390
2120,0.050,0.395
2121,0.065,0.415
2122,0.065,0.420
2123,0.070,0.415
2124,0.075,0.420
2125,0.090,0.440
2126,0.095,0.445
2127,0.110,0.430
2128,0.120,0.455
2129,0.100,0.455
2130,0.105,0.450
2131,0.120,0.455
2132,0.110,0.450
2133,0.115,0.440
2134,0.090,0.445
2135,0.080,0.430
2136,0.055,0.460
2137,0.060,0.435
2138,0.035,0.420
2139,0.015,0.410
2140,0.000,0.405
2141,-0.035,0.385
2142,-0.055,0.375
2143,-0.065,0.345
2144,-0.095,0.320
2145,-0.115,0.305
2146,-0.150,0.285
2147,-0.165,0.265
2148,-0.195,0.235
2149,-0.235,0.215
2150,-0.255,0.220
2151,-0.265,0.180
2152,-0.270,0.165
2153,-0.280,0.150
2154,-0.305,0.130
2155,-0.295,0.145
2156,-0.315,0.130
2157,-0.305,0.115
2158,-0.300,0.125
2159,-0.300,0.125
2160,-0.285,0.120
2161,-0.305,0.130
2162,-0.290,0.110
2163,-0.280,0.125
2164,-0.275,0.120
2165,-0.300,0.125
2166,-0.290,0.120
2167,-0.305,0.110
2168,-0.285,0.120
2169,-0.305,0.095
2170,-0.310,0.120
2171,-0.305,0.085
2172,-0.320,0.080
2173,-0.315,0.075
2174,-0.325,0.080
2175,-0.345,0.070
2176,-0.340,0.070
2177,-0.335,0.065
2178,-0.340,0.055
2179,-0.345,0.050
2180,-0.355,0.040
2181,-0.365,0.040
2182,-0.370,0.050
2183,-0.355,0.040
2184,-0.345,0.040
2185,-0.355,0.045
2186,-0.350,0.060
2187,-0.325,0.060
2188,-0.280,0.110
2189,-0.270,0.130
2190,-0.250,0.115
2191,-0.255,0.090
2192,-0.265,0.055
2193,-0.270,0.040
2194,-0.285,0.015
2195,-0.285,0.005
2196,-0.255,0.015
2197,-0.235,0.060
2198,-0.260,0.065
2199,-0.330,0.070
2200,-0.385,0.055
2201,-0.405,0.040
2202,-0.405,0.015
2203,-0.405,0.035
2204,-0.390,0.030
2205,-0.390,0.020
2206,-0.385,0.025
2207,-0.395,0.030
2208,-0.390,0.035
2209,-0.390,0.045
2210,-0.385,0.030
2211,-0.370,0.040
2212,-0.380,0.045
2213,-0.360,0.025
2214,-0.365,0.040
2215,-0.345,0.035
2216,-0.260,0.055
2217,-0.140,0.095
2218,-0.270,0.030
2219,-0.530,-0.200
2220,-0.955,-0.545
2221,-1.310,-0.930
2222,-1.510,-1.295
2223,-1.620,-1.705
2224,-1.615,-1.805
2225,-1.500,-1.460
2226,-1.345,-1.250
2227,-1.260,-1.170
2228,-1.215,-1.070
2229,-1.080,-0.920
2230,-0.900,-0.760
2231,-0.755,-0.590
2232,-0.645,-0.395
2233,-0.520,-0.245
2234,-0.375,-0.120
2235,-0.245,-0.015
2236,-0.130,0.110
2237,-0.045,0.230
2238,-0.025,0.310
2239,-0.010,0.335
2240,0.010,0.355
2241,0.020,0.360
2242,0.035,0.375
2243,0.040,0.390
2244,0.050,0.395
2245,0.050,0.400
2246,0.070,0.400
2247,0.075,0.405
2248,0.095,0.410
2249,0.110,0.420
2250,0.100,0.435
2251,0.100,0.435
2252,0.115,0.460
2253,0.125,0.450
2254,0.125,0.470
2255,0.120,0.455
2256,0.130,0.445
2257,0.135,0.465
2258,0.120,0.465
2259,0.110,0.465
2260,0.090,0.460
2261,0.070,0.465
2262,0.060,0.440
2263,0.055,0.435
2264,0.035,0.420
2265,0.005,0.410
2266,-0.010,0.390
2267,-0.045,0.360
2268,-0.075,0.335
2269,-0.100,0.305
2270,-0.130,0.285
2271,-0.180,0.270
2272,-0.185,0.250
2273,-0.215,0.200
2274,-0.245,0.190
2275,-0.235,0.175
2276,-0.260,0.150
2277,-0.265,0.140
2278,-0.270,0.120
2279,-0.270,0.145
2280,-0.270,0.105
2281,-0.265,0.110
2282,-0.265,0.095
2283,-0.270,0.105
2284,-0.260,0.115
2285,-0.265,0.105
2286,-0.260,0.115
2287,-0.255,0.115
2288,-0.255,0.095
2289,-0.250,0.110
2290,-0.255,0.105
2291,-0.270,0.110
2292,-0.275,0.125
2293,-0.260,0.090
2294,-0.275,0.105
2295,-0.290,0.105
2296,-0.285,0.080
2297,-0.295,0.080
2298,-0.300,0.070
2299,-0.305,0.065
2300,-0.320,0.055
2301,-0.325,0.080
2302,-0.325,0.050
2303,-0.335,0.070
2304,-0.330,0.040
2305,-0.335,0.065
2306,-0.330,0.060
2307,-0.335,0.055
2308,-0.315,0.070
2309,-0.320,0.060
2310,-0.305,0.070
2311,-0.255,0.105
2312,-0.240,0.125
2313,-0.210,0.150
2314,-0.215,0.120
2315,-0.205,0.100
2316,-0.220,0.085
2317,-0.260,0.060
2318,-0.260,0.035
2319,-0.265,0.025
2320,-0.225,0.055
2321,-0.230,0.065
2322,-0.260,0.095
2323,-0.335,0.080
2324,-0.365,0.040
2325,-0.375,0.025
2326,-0.370,0.045
2327,-0.340,0.050
2328,-0.350,0.035
2329,-0.365,0.025
2330,-0.345,0.045
2331,-0.360,0.035
2332,-0.335,0.020
2333,-0.340,0.050
2334,-0.345,0.040
2335,-0.350,0.040
2336,-0.345,0.045
2337,-0.325,0.050
2338,-0.320,0.050
2339,-0.220,0.080
2340,-0.095,0.100
2341,-0.240,0.080
2342,-0.475,-0.205
2343,-0.880,-0.600
2344,-1.220,-1.050
2345,-1.360,-1.465
2346,-1.465,-1.885
2347,-1.480,-1.860
2348,-1.390,-1.510
2349,-1.285,-1.330
2350,-1.200,-1.225
2351,-1.150,-1.090
2352,-1.020,-0.935
2353,-0.860,-0.750
2354,-0.740,-0.540
2355,-0.605,-0.365
2356,-0.460,-0.205
2357,-0.330,-0.080
2358,-0.175,0.035
2359,-0.080,0.175
2360,-0.025,0.295
2361,-0.005,0.345
2362,0.020,0.380
2363,0.040,0.400
2364,0.065,0.400
2365,0.045,0.415
2366,0.070,0.435
2367,0.085,0.450
2368,0.115,0.435
2369,0.100,0.440
2370,0.110,0.450
2371,0.125,0.460
2372,0.125,0.470
2373,0.140,0.470
2374,0.145,0.470
2375,0.135,0.490
2376,0.150,0.470
2377,0.150,0.480
2378,0.150,0.485
2379,0.135,0.485
2380,0.145,0.495
2381,0.125,0.470
2382,0.130,0.480
2383,0.115,0.475
2384,0.080,0.450
2385,0.075,0.460
2386,0.055,0.440
2387,0.030,0.430
2388,0.010,0.395
2389,-0.015,0.380
2390,-0.030,0.370
2391,-0.040,0.345
2392,-0.095,0.320
2393,-0.130,0.295
2394,-0.140,0.270
2395,-0.180,0.255
2396,-0.205,0.230
2397,-0.240,0.200
2398,-0.245,0.180
2399,-0.255,0.170
2400,-0.260,0.160
2401,-0.255,0.145
2402,-0.250,0.140
2403,-0.265,0.130
2404,-0.265,0.120
2405,-0.270,0.130
2406,-0.265,0.125
2407,-0.250,0.130
2408,-0.255,0.120
2409,-0.240,0.135
2410,-0.235,0.130
2411,-0.225,0.120
2412,-0.235,0.110
2413,-0.240,0.115
2414,-0.260,0.130
2415,-0.270,0.120
2416,-0.250,0.110
2417,-0.250,0.090
2418,-0.270,0.085
2419,-0.280,0.080
2420,-0.275,0.075
2421,-0.285,0.090
2422,-0.285,0.070
2423,-0.290,0.075
2424,-0.280,0.060
2425,-0.290,0.065
2426,-0.295,0.055
2427,-0.310,0.040
2428,-0.300,0.055
2429,-0.300,0.045
2430,-0.310,0.050
2431,-0.305,0.060
2432,-0.315,0.050
2433,-0.310,0.055
2434,-0.315,0.055
2435,-0.280,0.055
2436,-0.265,0.045
2437,-0.215,0.095
2438,-0.210,0.140
2439,-0.185,0.130
2440,-0.165,0.120
2441,-0.200,0.095
2442,-0.215,0.060
2443,-0.210,0.035
2444,-0.255,0.030
2445,-0.245,0.020
2446,-0.205,0.040
2447,-0.205,0.060
2448,-0.250,0.065
2449,-0.315,0.070
2450,-0.350,0.020
2451,-0.365,0.035
2452,-0.355,0.035
2453,-0.360,0.025
2454,-0.340,0.035
2455,-0.360,0.035
2456,-0.345,0.020
2457,-0.345,0.035
2458,-0.320,0.040
2459,-0.350,0.050
2460,-0.355,0.030
2461,-0.350,0.035
2462,-0.345,0.045
2463,-0.330,0.030
2464,-0.300,0.030
2465,-0.265,0.045
2466,-0.155,0.045
2467,-0.125,0.100
2468,-0.305,-0.065
2469,-0.670,-0.345
2470,-1.055,-0.795
2471,-1.325,-1.160
2472,-1.480,-1.575
2473,-1.525,-1.945
2474,-1.470,-1.780
2475,-1.360,-1.440
2476,-1.250,-1.265
2477,-1.175,-1.180
2478,-1.110,-1.035
2479,-0.985,-0.890
2480,-0.810,-0.710
2481,-0.690,-0.520
2482,-0.590,-0.325
2483,-0.440,-0.195
2484,-0.300,-0.090
2485,-0.170,0.010
2486,-0.085,0.150
2487,-0.030,0.270
2488,0.010,0.355
2489,0.035,0.370
2490,0.050,0.380
2491,0.060,0.390
2492,0.085,0.405
2493,0.100,0.390
2494,0.120,0.430
2495,0.115,0.425
2496,0.125,0.435
2497,0.150,0.435
2498,0.150,0.435
2499,0.150,0.430
2500,0.155,0.445
2501,0.170,0.455
2502,0.175,0.455
2503,0.175,0.465
2504,0.175,0.465
2505,0.185,0.470
2506,0.175,0.475
2507,0.180,0.460
2508,0.170,0.470
2509,0.150,0.470
2510,0.140,0.465
2511,0.150,0.460
2512,0.125,0.445
2513,0.085,0.425
2514,0.080,0.420
2515,0.055,0.410
2516,0.045,0.380
2517,0.015,0.380
2518,-0.025,0.365
2519,-0.060,0.335
2520,-0.065,0.320
2521,-0.100,0.290
2522,-0.125,0.270
2523,-0.150,0.235
2524,-0.190,0.205
2525,-0.205,0.205
2526,-0.200,0.190
2527,-0.225,0.155
2528,-0.240,0.145
2529,-0.235,0.145
2530,-0.250,0.135
2531,-0.235,0.130
2532,-0.245,0.105
2533,-0.235,0.105
2534,-0.235,0.110
2535,-0.220,0.110
2536,-0.215,0.095
2537,-0.210,0.110
2538,-0.210,0.105
2539,-0.230,0.100
2540,-0.205,0.120
2541,-0.220,0.120
2542,-0.225,0.105
2543,-0.220,0.090
2544,-0.220,0.090
2545,-0.255,0.095
2546,-0.245,0.065
2547,-0.255,0.080
2548,-0.255,0.075
2549,-0.265,0.075
2550,-0.280,0.075
2551,-0.265,0.060
2552,-0.275,0.060
2553,-0.270,0.070
2554,-0.275,0.065
2555,-0.275,0.060
2556,-0.275,0.050
2557,-0.290,0.035
2558,-0.280,0.050
2559,-0.290,0.035
2560,-0.270,0.060
2561,-0.265,0.045
2562,-0.240,0.070
2563,-0.205,0.100
2564,-0.185,0.115
2565,-0.175,0.125
2566,-0.185,0.100
2567,-0.195,0.085
2568,-0.185,0.040
2569,-0.210,0.025
2570,-0.210,0.035
2571,-0.180,0.040
2572,-0.170,0.070
2573,-0.190,0.070
2574,-0.245,0.065
2575,-0.305,0.025
2576,-0.315,0.020
2577,-0.300,0.015
2578,-0.325,0.030
2579,-0.320,0.030
2580,-0.310,0.025
2581,-0.315,0.015
2582,-0.320,0.030
2583,-0.310,0.025
2584,-0.315,0.040
2585,-0.330,0.035
2586,-0.315,0.020
2587,-0.330,0.025
2588,-0.325,0.025
2589,-0.310,0.015
2590,-0.275,0.035
2591,-0.200,0.050
2592,-0.105,0.090
2593,-0.245,0.000
2594,-0.545,-0.235
2595,-0.960,-0.575
2596,-1.285,-0.975
2597,-1.470,-1.350
2598,-1.570,-1.730
2599,-1.535,-1.735
2600,-1.355,-1.400
2601,-1.250,-1.205
2602,-1.125,-1.120
2603,-1.110,-1.015
2604,-0.970,-0.885
2605,-0.805,-0.720
2606,-0.665,-0.525
2607,-0.550,-0.350
2608,-0.415,-0.190
2609,-0.275,-0.105
2610,-0.140,0.000
2611,-0.050,0.145
2612,0.000,0.245
2613,0.040,0.305
2614,0.050,0.340
2615,0.065,0.365
2616,0.085,0.360
2617,0.100,0.385
2618,0.100,0.395
2619,0.120,0.390
2620,0.125,0.415
2621,0.160,0.420
2622,0.155,0.435
2623,0.170,0.450
2624,0.180,0.455
2625,0.185,0.445
2626,0.190,0.455
2627,0.180,0.475
2628,0.215,0.485
2629,0.195,0.470
2630,0.205,0.480
2631,0.190,0.480
2632,0.195,0.480
2633,0.200,0.500
2634,0.200,0.500
2635,0.180,0.475
2636,0.155,0.465
2637,0.145,0.465
2638,0.125,0.450
2639,0.110,0.450
2640,0.070,0.420
2641,0.050,0.415
2642,0.015,0.395
2643,0.000,0.365
2644,-0.035,0.350
2645,-0.070,0.310
2646,-0.070,0.300
2647,-0.090,0.285
2648,-0.125,0.265
2649,-0.155,0.230
2650,-0.160,0.210
2651,-0.170,0.205
2652,-0.170,0.180
2653,-0.180,0.170
2654,-0.175,0.155
2655,-0.200,0.180
2656,-0.185,0.135
2657,-0.175,0.145
2658,-0.180,0.145
2659,-0.180,0.130
2660,-0.165,0.140
2661,-0.175,0.150
2662,-0.185,0.125
2663,-0.170,0.145
2664,-0.175,0.135
2665,-0.165,0.140
2666,-0.190,0.115
2667,-0.190,0.125
2668,-0.190,0.105
2669,-0.195,0.110
2670,-0.190,0.115
2671,-0.215,0.100
2672,-0.220,0.095
2673,-0.230,0.085
2674,-0.230,0.095
2675,-0.215,0.090
2676,-0.215,0.085
2677,-0.215,0.085
2678,-0.225,0.080
2679,-0.235,0.075
2680,-0.230,0.080
2681,-0.235,0.075
2682,-0.220,0.080
2683,-0.210,0.095
2684,-0.185,0.085
2685,-0.160,0.130
2686,-0.140,0.150
2687,-0.120,0.165
2688,-0.120,0.125
2689,-0.135,0.110
2690,-0.140,0.080
2691,-0.150,0.060
2692,-0.175,0.040
2693,-0.170,0.030
2694,-0.135,0.060
2695,-0.135,0.090
2696,-0.175,0.085
2697,-0.245,0.065
2698,-0.290,0.045
2699,-0.290,0.050
2700,-0.280,0.055
2701,-0.285,0.050
2702,-0.285,0.055
2703,-0.290,0.055
2704,-0.295,0.050
2705,-0.280,0.055
2706,-0.280,0.035
2707,-0.280,0.050
2708,-0.290,0.055
2709,-0.285,0.045
2710,-0.285,0.050
2711,-0.275,0.050
2712,-0.245,0.040
2713,-0.135,0.060
2714,-0.040,0.120
2715,-0.195,0.005
2716,-0.530,-0.295
2717,-0.930,-0.745
2718,-1.190,-1.125
2719,-1.355,-1.555
2720,-1.415,-1.880
2721,-1.410,-1.740
2722,-1.320,-1.435
2723,-1.230,-1.260
2724,-1.130,-1.175
2725,-1.065,-1.045
2726,-0.915,-0.895
2727,-0.755,-0.695
2728,-0.630,-0.495
2729,-0.520,-0.305
2730,-0.375,-0.140
2731,-0.200,0.000
2732,-0.065,0.110
2733,0.010,0.255
2734,0.050,0.345
2735,0.075,0.390
2736,0.095,0.430
2737,0.105,0.440
2738,0.125,0.450
2739,0.135,0.470
2740,0.140,0.455
2741,0.165,0.485
2742,0.165,0.470
2743,0.170,0.470
2744,0.180,0.470
2745,0.195,0.480
2746,0.210,0.485
2747,0.215,0.510
2748,0.225,0.515
2749,0.205,0.525
2750,0.240,0.515
2751,0.225,0.520
2752,0.235,0.530
2753,0.210,0.535
2754,0.220,0.525
2755,0.205,0.530
2756,0.185,0.530
2757,0.190,0.525
2758,0.170,0.525
2759,0.155,0.480
2760,0.140,0.475
2761,0.110,0.455
2762,0.090,0.445
2763,0.060,0.430
2764,0.035,0.410
2765,0.010,0.410
2766,-0.015,0.380
2767,-0.060,0.345
2768,-0.070,0.320
2769,-0.110,0.310
2770,-0.130,0.280
2771,-0.150,0.275
2772,-0.140,0.250
2773,-0.170,0.245
2774,-0.180,0.230
2775,-0.185,0.225
2776,-0.180,0.205
2777,-0.195,0.205
2778,-0.200,0.190
2779,-0.185,0.190
2780,-0.185,0.185
2781,-0.185,0.185
2782,-0.180,0.190
2783,-0.180,0.175
2784,-0.170,0.175
2785,-0.175,0.160
2786,-0.200,0.170
2787,-0.190,0.175
2788,-0.180,0.170
2789,-0.190,0.155
2790,-0.205,0.160
2791,-0.205,0.170
2792,-0.200,0.125
2793,-0.230,0.135
2794,-0.230,0.115
2795,-0.220,0.130
2796,-0.250,0.115
2797,-0.235,0.105
2798,-0.230,0.120
2799,-0.240,0.105
2800,-0.250,0.110
2801,-0.245,0.085
2802,-0.265,0.110
2803,-0.255,0.085
2804,-0.245,0.100
2805,-0.255,0.105
2806,-0.250,0.110
2807,-0.255,0.100
2808,-0.225,0.105
2809,-0.200,0.135
2810,-0.165,0.180
2811,-0.145,0.195
2812,-0.125,0.170
2813,-0.145,0.165
2814,-0.175,0.120
2815,-0.170,0.095
2816,-0.200,0.075
2817,-0.210,0.070
2818,-0.165,0.075
2819,-0.155,0.095
2820,-0.175,0.115
2821,-0.255,0.105
2822,-0.300,0.090
2823,-0.305,0.085
2824,-0.310,0.080
2825,-0.305,0.070
2826,-0.310,0.080
2827,-0.310,0.090
2828,-0.325,0.085
2829,-0.310,0.085
2830,-0.315,0.085
2831,-0.310,0.080
2832,-0.320,0.080
2833,-0.330,0.060
2834,-0.315,0.065
2835,-0.300,0.075
2836,-0.310,0.075
2837,-0.245,0.090
2838,-0.095,0.120
2839,-0.180,0.125
2840,-0.415,-0.105
2841,-0.850,-0.485
2842,-1.170,-0.950
2843,-1.375,-1.325
2844,-1.490,-1.755
2845,-1.500,-1.880
2846,-1.395,-1.545
2847,-1.255,-1.285
2848,-1.200,-1.160
2849,-1.145,-1.040
2850,-1.035,-0.895
2851,-0.840,-0.725
2852,-0.700,-0.515
2853,-0.570,-0.320
2854,-0.460,-0.155
2855,-0.295,-0.055
2856,-0.160,0.085
2857,-0.045,0.200
2858,0.015,0.350
2859,0.015,0.410
2860,0.045,0.410
2861,0.055,0.430
2862,0.085,0.470
2863,0.085,0.470
2864,0.105,0.485
2865,0.100,0.475
2866,0.115,0.470
2867,0.125,0.495
2868,0.125,0.490
2869,0.145,0.490
2870,0.145,0.500
2871,0.150,0.500
2872,0.170,0.515
2873,0.165,0.515
2874,0.185,0.505
2875,0.195,0.510
2876,0.175,0.530
2877,0.180,0.530
2878,0.165,0.510
2879,0.150,0.520
2880,0.155,0.520
2881,0.130,0.510
2882,0.130,0.515
2883,0.100,0.505
2884,0.085,0.465
2885,0.050,0.460
2886,0.040,0.440
2887,0.020,0.410
2888,-0.010,0.410
2889,-0.040,0.400
2890,-0.050,0.355
2891,-0.090,0.330
2892,-0.120,0.315
2893,-0.140,0.310
2894,-0.160,0.260
2895,-0.190,0.260
2896,-0.185,0.225
2897,-0.195,0.205
2898,-0.215,0.190
2899,-0.205,0.205
2900,-0.190,0.175
2901,-0.195,0.175
2902,-0.205,0.190
2903,-0.195,0.210
2904,-0.195,0.175
2905,-0.165,0.195
2906,-0.190,0.195
2907,-0.175,0.185
2908,-0.185,0.170
2909,-0.210,0.180
2910,-0.220,0.180
2911,-0.205,0.160
2912,-0.230,0.155
2913,-0.210,0.150
2914,-0.235,0.145
2915,-0.230,0.135
2916,-0.230,0.130
2917,-0.235,0.115
2918,-0.255,0.115
2919,-0.255,0.095
2920,-0.270,0.120
2921,-0.280,0.075
2922,-0.250,0.085
2923,-0.265,0.095
2924,-0.300,0.070
2925,-0.290,0.080
2926,-0.285,0.090
2927,-0.280,0.070
2928,-0.295,0.055
2929,-0.295,0.080
2930,-0.280,0.080
2931,-0.290,0.060
2932,-0.280,0.065
2933,-0.240,0.110
2934,-0.225,0.130
2935,-0.215,0.160
2936,-0.185,0.150
2937,-0.190,0.115
2938,-0.215,0.090
2939,-0.215,0.055
2940,-0.245,0.060
2941,-0.240,0.040
2942,-0.210,0.060
2943,-0.195,0.095
2944,-0.245,0.100
2945,-0.310,0.075
2946,-0.325,0.045
2947,-0.350,0.030
2948,-0.355,0.040
2949,-0.360,0.050
2950,-0.355,0.035
2951,-0.355,0.045
2952,-0.360,0.050
2953,-0.365,0.045
2954,-0.355,0.065
2955,-0.340,0.060
2956,-0.360,0.045
2957,-0.350,0.055
2958,-0.330,0.050
2959,-0.335,0.065
2960,-0.325,0.060
2961,-0.250,0.055
2962,-0.140,0.110
2963,-0.280,0.060
2964,-0.600,-0.200
2965,-1.035,-0.575
2966,-1.365,-0.950
2967,-1.550,-1.325
2968,-1.635,-1.695
2969,-1.620,-1.700
2970,-1.475,-1.345
2971,-1.325,-1.175
2972,-1.245,-1.100
2973,-1.175,-0.985
2974,-1.040,-0.855
2975,-0.850,-0.665
2976,-0.715,-0.495
2977,-0.605,-0.315
2978,-0.460,-0.155
2979,-0.305,-0.060
2980,-0.185,0.050
2981,-0.085,0.180
2982,-0.025,0.295
2983,0.000,0.355
2984,0.025,0.360
2985,0.015,0.395
2986,0.035,0.385
2987,0.065,0.420
2988,0.065,0.440
2989,0.075,0.430
2990,0.095,0.455
2991,0.090,0.455
2992,0.100,0.455
2993,0.120,0.465
2994,0.120,0.460
2995,0.135,0.470
2996,0.135,0.470
2997,0.135,0.490
2998,0.145,0.495
2999,0.130,0.500
3000,0.130,0.500
3001,0.135,0.510
3002,0.140,0.500
3003,0.130,0.490
3004,0.100,0.480
3005,0.095,0.480
3006,0.075,0.480
3007,0.070,0.490
3008,0.050,0.475
3009,0.025,0.455
3010,0.010,0.445
3011,-0.005,0.410
3012,-0.030,0.435
3013,-0.050,0.395
3014,-0.080,0.365
3015,-0.125,0.345
3016,-0.140,0.310
3017,-0.165,0.295
3018,-0.195,0.255
3019,-0.210,0.250
3020,-0.220,0.235
3021,-0.245,0.225
3022,-0.230,0.205
3023,-0.235,0.195
3024,-0.220,0.200
3025,-0.235,0.180
3026,-0.245,0.200
3027,-0.225,0.175
3028,-0.240,0.185
3029,-0.210,0.190
3030,-0.215,0.165
3031,-0.220,0.175
3032,-0.230,0.170
3033,-0.230,0.185
3034,-0.230,0.175
3035,-0.220,0.185
3036,-0.230,0.155
3037,-0.230,0.160
3038,-0.240,0.165
3039,-0.250,0.180
3040,-0.260,0.150
3041,-0.270,0.150
3042,-0.275,0.135
3043,-0.280,0.125
3044,-0.285,0.120
3045,-0.305,0.120
3046,-0.295,0.120
3047,-0.295,0.105
3048,-0.300,0.115
3049,-0.315,0.120
3050,-0.305,0.085
3051,-0.320,0.100
3052,-0.305,0.100
3053,-0.310,0.095
3054,-0.305,0.095
3055,-0.275,0.105
3056,-0.250,0.145
3057,-0.230,0.170
3058,-0.225,0.175
3059,-0.195,0.155
3060,-0.215,0.125
3061,-0.230,0.090
3062,-0.245,0.080
3063,-0.280,0.070
3064,-0.250,0.060
3065,-0.230,0.095
3066,-0.225,0.120
3067,-0.255,0.110
3068,-0.320,0.100
3069,-0.345,0.080
3070,-0.370,0.085
3071,-0.380,0.085
3072,-0.380,0.060
3073,-0.380,0.060
3074,-0.375,0.075
3075,-0.390,0.065
3076,-0.375,0.075
3077,-0.375,0.070
3078,-0.390,0.085
3079,-0.380,0.070
3080,-0.365,0.065
3081,-0.365,0.060
3082,-0.360,0.055
3083,-0.355,0.065
3084,-0.275,0.075
3085,-0.150,0.130
3086,-0.260,0.100
3087,-0.505,-0.150
3088,-0.920,-0.550
3089,-1.235,-1.000
3090,-1.430,-1.390
3091,-1.545,-1.780
3092,-1.595,-1.815
3093,-1.550,-1.480
3094,-1.425,-1.315
3095,-1.355,-1.215
3096,-1.230,-1.105
3097,-1.100,-0.945
3098,-0.960,-0.775
3099,-0.825,-0.570
3100,-0.700,-0.370
3101,-0.580,-0.225
3102,-0.415,-0.075
3103,-0.255,0.040
3104,-0.155,0.190
3105,-0.080,0.305
3106,-0.030,0.405
3107,-0.020,0.420
3108,0.005,0.445
3109,0.000,0.455
3110,0.035,0.465
3111,0.050,0.480
3112,0.055,0.505
3113,0.060,0.500
3114,0.070,0.525
3115,0.075,0.525
3116,0.100,0.510
3117,0.100,0.530
3118,0.115,0.545
3119,0.105,0.560
3120,0.100,0.540
3121,0.120,0.545
3122,0.130,0.570
3123,0.140,0.565
3124,0.145,0.560
3125,0.140,0.565
3126,0.125,0.575
3127,0.130,0.575
3128,0.095,0.545
3129,0.090,0.535
3130,0.070,0.540
3131,0.055,0.545
3132,0.050,0.530
3133,0.005,0.500
3134,-0.020,0.490
3135,-0.005,0.480
3136,-0.035,0.450
3137,-0.060,0.445
3138,-0.110,0.430
3139,-0.135,0.375
3140,-0.165,0.365
3141,-0.185,0.330
3142,-0.205,0.310
3143,-0.215,0.300
3144,-0.220,0.275
3145,-0.255,0.260
3146,-0.255,0.255
3147,-0.260,0.245
3148,-0.255,0.245
3149,-0.265,0.230
3150,-0.250,0.230
3151,-0.245,0.220
3152,-0.235,0.215
3153,-0.235,0.215
3154,-0.235,0.230
3155,-0.220,0.215
3156,-0.235,0.235
3157,-0.220,0.225
3158,-0.225,0.235
3159,-0.230,0.220
3160,-0.230,0.205
3161,-0.240,0.195
3162,-0.245,0.205
3163,-0.240,0.200
3164,-0.240,0.195
3165,-0.260,0.170
3166,-0.265,0.160
3167,-0.265,0.180
3168,-0.265,0.155
3169,-0.275,0.175
3170,-0.275,0.150
3171,-0.280,0.140
3172,-0.275,0.140
3173,-0.285,0.140
3174,-0.280,0.130
3175,-0.295,0.130
3176,-0.290,0.125
3177,-0.275,0.125
3178,-0.260,0.115
3179,-0.220,0.170
3180,-0.200,0.205
3181,-0.175,0.205
3182,-0.170,0.200
3183,-0.180,0.170
3184,-0.195,0.145
3185,-0.205,0.115
3186,-0.215,0.105
3187,-0.245,0.100
3188,-0.210,0.095
3189,-0.200,0.125
3190,-0.205,0.130
3191,-0.260,0.115
3192,-0.320,0.105
3193,-0.360,0.095
3194,-0.365,0.095
3195,-0.355,0.090
3196,-0.350,0.095
3197,-0.350,0.080
3198,-0.350,0.080
3199,-0.360,0.080
3200,-0.350,0.080
3201,-0.335,0.095
3202,-0.355,0.085
3203,-0.335,0.100
3204,-0.335,0.080
3205,-0.335,0.080
3206,-0.335,0.080
3207,-0.250,0.095
3208,-0.115,0.140
3209,-0.235,0.105
3210,-0.490,-0.145
3211,-0.920,-0.565
3212,-1.225,-1.055
3213,-1.410,-1.475
3214,-1.505,-1.875
3215,-1.505,-1.855
3216,-1.385,-1.495
3217,-1.285,-1.305
3218,-1.200,-1.170
3219,-1.135,-1.060
3220,-1.020,-0.905
3221,-0.860,-0.695
3222,-0.730,-0.480
3223,-0.605,-0.310
3224,-0.455,-0.165
3225,-0.300,-0.040
3226,-0.185,0.075
3227,-0.070,0.210
3228,-0.030,0.325
3229,0.000,0.375
3230,0.030,0.400
3231,0.030,0.395
3232,0.050,0.435
3233,0.075,0.445
3234,0.085,0.450
3235,0.095,0.450
3236,0.090,0.460
3237,0.115,0.475
3238,0.135,0.475
3239,0.125,0.475
3240,0.150,0.480
3241,0.170,0.500
3242,0.155,0.495
3243,0.165,0.505
3244,0.170,0.505
3245,0.160,0.515
3246,0.150,0.520
3247,0.180,0.510
3248,0.160,0.525
3249,0.155,0.500
3250,0.125,0.495
3251,0.115,0.510
3252,0.105,0.480
3253,0.080,0.465
3254,0.055,0.470
3255,0.035,0.410
3256,0.020,0.415
3257,0.000,0.415
3258,-0.035,0.390
3259,-0.080,0.355
3260,-0.085,0.345
3261,-0.125,0.310
3262,-0.150,0.315
3263,-0.195,0.270
3264,-0.190,0.235
3265,-0.225,0.230
3266,-0.240,0.220
3267,-0.235,0.220
3268,-0.230,0.210
3269,-0.245,0.195
3270,-0.230,0.185
3271,-0.220,0.195
3272,-0.230,0.185
3273,-0.215,0.185
3274,-0.205,0.200
3275,-0.205,0.195
3276,-0.205,0.165
3277,-0.210,0.185
3278,-0.195,0.165
3279,-0.195,0.190
3280,-0.195,0.175
3281,-0.190,0.160
3282,-0.200,0.170
3283,-0.210,0.175
3284,-0.210,0.170
3285,-0.225,0.165
3286,-0.225,0.135
3287,-0.245,0.145
3288,-0.220,0.140
3289,-0.240,0.135
3290,-0.245,0.105
3291,-0.255,0.120
3292,-0.275,0.120
3293,-0.275,0.130
3294,-0.270,0.125
3295,-0.265,0.100
3296,-0.270,0.105
3297,-0.280,0.105
3298,-0.285,0.080
3299,-0.265,0.095
3300,-0.235,0.120
3301,-0.230,0.140
3302,-0.220,0.170
3303,-0.175,0.165
3304,-0.160,0.140
3305,-0.180,0.110
3306,-0.190,0.105
3307,-0.225,0.065
3308,-0.225,0.050
3309,-0.235,0.060
3310,-0.200,0.090
3311,-0.200,0.095
3312,-0.260,0.085
3313,-0.310,0.075
3314,-0.340,0.050
3315,-0.355,0.035
3316,-0.350,0.025
3317,-0.360,0.035
3318,-0.350,0.035
3319,-0.345,0.040
3320,-0.365,0.045
3321,-0.360,0.055
3322,-0.355,0.050
3323,-0.365,0.040
3324,-0.380,0.050
3325,-0.355,0.040
3326,-0.355,0.050
3327,-0.365,0.045
3328,-0.315,0.050
3329,-0.250,0.075
3330,-0.130,0.115
3331,-0.290,0.020
3332,-0.585,-0.190
3333,-1.030,-0.530
3334,-1.365,-0.895
3335,-1.535,-1.260
3336,-1.675,-1.635
3337,-1.650,-1.655
3338,-1.515,-1.345
3339,-1.370,-1.180
3340,-1.265,-1.090
3341,-1.215,-0.980
3342,-1.045,-0.840
3343,-0.855,-0.675
3344,-0.710,-0.500
3345,-0.605,-0.335
3346,-0.455,-0.185
3347,-0.305,-0.060
3348,-0.195,0.050
3349,-0.095,0.195
3350,-0.055,0.280
3351,-0.035,0.345
3352,-0.020,0.360
3353,0.005,0.385
3354,0.010,0.395
3355,0.020,0.385
3356,0.040,0.415
3357,0.055,0.405
3358,0.060,0.405
3359,0.060,0.430
3360,0.080,0.425
3361,0.080,0.440
3362,0.085,0.450
3363,0.110,0.460
3364,0.100,0.475
3365,0.110,0.465
3366,0.120,0.490
3367,0.145,0.485
3368,0.125,0.495
3369,0.120,0.505
3370,0.125,0.510
3371,0.125,0.510
3372,0.130,0.505
3373,0.110,0.500
3374,0.110,0.505
3375,0.080,0.475
3376,0.065,0.475
3377,0.040,0.470
3378,0.020,0.440
3379,0.000,0.435
3380,-0.015,0.410
3381,-0.050,0.390
3382,-0.060,0.365
3383,-0.085,0.325
3384,-0.125,0.310
3385,-0.155,0.295
3386,-0.160,0.255
3387,-0.175,0.245
3388,-0.210,0.215
3389,-0.220,0.215
3390,-0.200,0.210
3391,-0.210,0.155
3392,-0.215,0.155
3393,-0.215,0.150
3394,-0.220,0.160
3395,-0.200,0.150
3396,-0.205,0.150
3397,-0.185,0.165
3398,-0.185,0.165
3399,-0.165,0.180
3400,-0.190,0.165
3401,-0.160,0.170
3402,-0.170,0.165
3403,-0.180,0.155
3404,-0.175,0.160
3405,-0.180,0.155
3406,-0.200,0.155
3407,-0.185,0.145
3408,-0.195,0.140
3409,-0.205,0.120
3410,-0.205,0.120
3411,-0.215,0.110
3412,-0.215,0.120
3413,-0.225,0.115
3414,-0.220,0.115
3415,-0.220,0.110
3416,-0.240,0.115
3417,-0.240,0.100
3418,-0.225,0.110
3419,-0.235,0.100
3420,-0.215,0.115
3421,-0.185,0.120
3422,-0.150,0.155
3423,-0.130,0.175
3424,-0.120,0.160
3425,-0.115,0.150
3426,-0.145,0.120
3427,-0.135,0.080
3428,-0.160,0.080
3429,-0.190,0.070
3430,-0.170,0.060
3431,-0.155,0.095
3432,-0.150,0.100
3433,-0.195,0.080
3434,-0.245,0.060
3435,-0.300,0.035
3436,-0.300,0.050
3437,-0.310,0.050
3438,-0.300,0.045
3439,-0.290,0.050
3440,-0.295,0.035
3441,-0.305,0.050
3442,-0.285,0.045
3443,-0.285,0.035
3444,-0.280,0.045
3445,-0.290,0.045
3446,-0.285,0.050
3447,-0.295,0.030
3448,-0.290,0.040
3449,-0.230,0.050
3450,-0.135,0.080
3451,-0.070,0.115
3452,-0.235,-0.005
3453,-0.570,-0.310
3454,-0.955,-0.740
3455,-1.245,-1.110
3456,-1.390,-1.545
3457,-1.470,-1.860
3458,-1.510,-1.735
3459,-1.395,-1.425
3460,-1.310,-1.295
3461,-1.210,-1.210
3462,-1.095,-1.060
3463,-0.970,-0.910
3464,-0.820,-0.720
3465,-0.670,-0.520
3466,-0.565,-0.330
3467,-0.415,-0.180
3468,-0.240,-0.070
3469,-0.105,0.055
3470,-0.020,0.190
3471,0.020,0.310
3472,0.040,0.340
3473,0.070,0.365
3474,0.085,0.380
3475,0.100,0.410
3476,0.095,0.400
3477,0.115,0.425
3478,0.145,0.410
3479,0.140,0.425
3480,0.165,0.440
3481,0.160,0.445
3482,0.190,0.460
3483,0.170,0.465
3484,0.180,0.445
3485,0.210,0.475
3486,0.215,0.485
3487,0.200,0.470
3488,0.210,0.480
3489,0.225,0.490
3490,0.210,0.500
3491,0.210,0.505
3492,0.205,0.500
3493,0.195,0.505
3494,0.175,0.505
3495,0.150,0.490
3496,0.170,0.480
3497,0.155,0.455
3498,0.125,0.445
3499,0.070,0.440
3500,0.085,0.420
3501,0.040,0.405
3502,0.040,0.385
3503,0.000,0.350
3504,-0.020,0.350
3505,-0.035,0.295
3506,-0.085,0.290
3507,-0.090,0.285
3508,-0.105,0.250
3509,-0.125,0.230
3510,-0.155,0.240
3511,-0.135,0.220
3512,-0.135,0.195
3513,-0.145,0.185
3514,-0.150,0.165
3515,-0.150,0.180
3516,-0.165,0.185
3517,-0.145,0.160
3518,-0.140,0.175
3519,-0.125,0.160
3520,-0.150,0.195
3521,-0.130,0.180
3522,-0.130,0.185
3523,-0.135,0.165
3524,-0.130,0.155
3525,-0.140,0.160
3526,-0.130,0.140
3527,-0.140,0.155
3528,-0.145,0.150
3529,-0.160,0.130
3530,-0.150,0.135
3531,-0.150,0.130
3532,-0.165,0.125
3533,-0.170,0.110
3534,-0.180,0.115
3535,-0.170,0.130
3536,-0.170,0.125
3537,-0.175,0.110
3538,-0.175,0.100
3539,-0.165,0.095
3540,-0.210,0.085
3541,-0.180,0.105
3542,-0.200,0.080
3543,-0.185,0.090
3544,-0.160,0.115
3545,-0.140,0.140
3546,-0.110,0.170
3547,-0.080,0.170
3548,-0.075,0.150
3549,-0.090,0.145
3550,-0.115,0.115
3551,-0.130,0.075
3552,-0.130,0.070
3553,-0.130,0.065
3554,-0.105,0.095
3555,-0.110,0.090
3556,-0.120,0.100
3557,-0.205,0.085
3558,-0.240,0.050
3559,-0.270,0.050
3560,-0.285,0.060
3561,-0.270,0.045
3562,-0.265,0.065
3563,-0.265,0.040
3564,-0.265,0.035
3565,-0.270,0.050
3566,-0.275,0.030
3567,-0.255,0.030
3568,-0.255,0.040
3569,-0.255,0.055
3570,-0.260,0.045
3571,-0.245,0.030
3572,-0.250,0.045
3573,-0.160,0.055
3574,-0.035,0.095
3575,-0.125,0.075
3576,-0.350,-0.185
3577,-0.780,-0.550
3578,-1.100,-1.010
3579,-1.295,-1.390
3580,-1.390,-1.815
3581,-1.430,-1.955
3582,-1.365,-1.590
3583,-1.210,-1.375
3584,-1.160,-1.260
3585,-1.085,-1.125
3586,-1.005,-0.995
3587,-0.835,-0.815
3588,-0.725,-0.610
3589,-0.610,-0.425
3590,-0.480,-0.250
3591,-0.330,-0.135
3592,-0.170,-0.030
3593,-0.070,0.100
3594,0.010,0.220
3595,0.060,0.320
3596,0.075,0.360
3597,0.090,0.385
3598,0.110,0.385
3599,0.120,0.410
3600,0.130,0.425
3601,0.140,0.440
3602,0.150,0.440
3603,0.175,0.455
3604,0.170,0.460
3605,0.185,0.465
3606,0.190,0.470
3607,0.190,0.470
3608,0.180,0.465
3609,0.220,0.490
3610,0.215,0.500
3611,0.205,0.480
3612,0.220,0.485
3613,0.225,0.480
3614,0.225,0.490
3615,0.215,0.475
3616,0.210,0.485
3617,0.195,0.480
3618,0.185,0.470
3619,0.175,0.465
3620,0.165,0.440
3621,0.150,0.430
3622,0.120,0.430
3623,0.090,0.410
3624,0.065,0.415
3625,0.065,0.400
3626,0.010,0.365
3627,0.005,0.365
3628,-0.035,0.325
3629,-0.035,0.290
3630,-0.060,0.280
3631,-0.095,0.290
3632,-0.105,0.260
3633,-0.140,0.240
3634,-0.165,0.235
3635,-0.170,0.210
3636,-0.170,0.195
3637,-0.170,0.190
3638,-0.170,0.180
3639,-0.160,0.195
3640,-0.165,0.180
3641,-0.170,0.185
3642,-0.145,0.180
3643,-0.160,0.175
3644,-0.145,0.180
3645,-0.145,0.190
3646,-0.135,0.195
3647,-0.150,0.185
3648,-0.160,0.170
3649,-0.170,0.195
3650,-0.155,0.175
3651,-0.155,0.175
3652,-0.165,0.170
3653,-0.175,0.165
3654,-0.180,0.165
3655,-0.185,0.140
3656,-0.195,0.170
3657,-0.195,0.135
3658,-0.195,0.145
3659,-0.200,0.120
3660,-0.200,0.120
3661,-0.215,0.115
3662,-0.220,0.115
3663,-0.210,0.110
3664,-0.215,0.100
3665,-0.220,0.105
3666,-0.215,0.120
3667,-0.240,0.105
3668,-0.225,0.115
3669,-0.180,0.140
3670,-0.160,0.155
3671,-0.145,0.175
3672,-0.120,0.185
3673,-0.135,0.175
3674,-0.140,0.145
3675,-0.160,0.105
3676,-0.160,0.100
3677,-0.170,0.085
3678,-0.160,0.085
3679,-0.135,0.100
3680,-0.160,0.120
3681,-0.210,0.125
3682,-0.245,0.110
3683,-0.280,0.080
3684,-0.300,0.075
3685,-0.295,0.065
3686,-0.305,0.075
3687,-0.290,0.075
3688,-0.280,0.070
3689,-0.310,0.080
3690,-0.285,0.065
3691,-0.305,0.080
3692,-0.315,0.070
3693,-0.285,0.075
3694,-0.295,0.060
3695,-0.300,0.070
3696,-0.295,0.070
3697,-0.280,0.055
3698,-0.180,0.090
3699,-0.080,0.125
3700,-0.220,0.060
3701,-0.495,-0.160
3702,-0.915,-0.490
3703,-1.280,-0.860
3704,-1.500,-1.215
3705,-1.615,-1.585
3706,-1.615,-1.675
3707,-1.465,-1.370
3708,-1.335,-1.170
3709,-1.240,-1.060
3710,-1.170,-0.990
3711,-1.055,-0.860
3712,-0.870,-0.715
3713,-0.720,-0.530
3714,-0.595,-0.360
3715,-0.470,-0.205
3716,-0.300,-0.070
3717,-0.180,0.020
3718,-0.085,0.165
3719,-0.010,0.260
3720,0.010,0.350
3721,0.030,0.350
3722,0.040,0.385
3723,0.050,0.385
3724,0.050,0.395
3725,0.080,0.405
3726,0.100,0.405
3727,0.105,0.425
3728,0.100,0.430
3729,0.100,0.435
3730,0.140,0.445
3731,0.145,0.455
3732,0.135,0.450
3733,0.145,0.460
3734,0.140,0.470
3735,0.150,0.480
3736,0.155,0.490
3737,0.160,0.480
3738,0.170,0.485
3739,0.155,0.485
3740,0.160,0.495
3741,0.140,0.480
3742,0.125,0.475
3743,0.105,0.470
3744,0.100,0.475
3745,0.055,0.455
3746,0.055,0.440
3747,0.035,0.435
3748,0.000,0.410
3749,-0.025,0.395
3750,-0.025,0.390
3751,-0.065,0.360
3752,-0.080,0.350
3753,-0.095,0.310
3754,-0.125,0.295
3755,-0.140,0.265
3756,-0.165,0.265
3757,-0.185,0.245
3758,-0.190,0.220
3759,-0.190,0.215
3760,-0.180,0.205
3761,-0.185,0.190
3762,-0.195,0.185
3763,-0.185,0.190
3764,-0.185,0.180
3765,-0.185,0.190
3766,-0.165,0.180
3767,-0.160,0.180
3768,-0.165,0.195
3769,-0.150,0.195
3770,-0.155,0.190
3771,-0.155,0.200
3772,-0.160,0.195
3773,-0.175,0.185
3774,-0.170,0.195
3775,-0.170,0.150
3776,-0.175,0.180
3777,-0.175,0.150
3778,-0.180,0.155
3779,-0.215,0.145
3780,-0.190,0.140
3781,-0.190,0.125
3782,-0.190,0.125
3783,-0.195,0.135
3784,-0.200,0.155
3785,-0.210,0.140
3786,-0.205,0.120
3787,-0.195,0.135
3788,-0.205,0.105
3789,-0.175,0.125
3790,-0.160,0.160
3791,-0.125,0.185
3792,-0.110,0.205
3793,-0.080,0.195
3794,-0.105,0.170
3795,-0.100,0.140
3796,-0.130,0.120
3797,-0.145,0.095
3798,-0.160,0.085
3799,-0.130,0.095
3800,-0.110,0.130
3801,-0.125,0.150
3802,-0.205,0.125
3803,-0.245,0.095
3804,-0.260,0.085
3805,-0.260,0.105
3806,-0.275,0.100
3807,-0.270,0.080
3808,-0.270,0.080
3809,-0.260,0.075
3810,-0.260,0.095
3811,-0.260,0.090
3812,-0.255,0.095
3813,-0.270,0.075
3814,-0.265,0.070
3815,-0.270,0.085
3816,-0.260,0.065
3817,-0.235,0.085
3818,-0.120,0.075
3819,-0.030,0.140
3820,-0.185,0.000
3821,-0.530,-0.255
3822,-0.910,-0.745
3823,-1.215,-1.105
3824,-1.365,-1.500
3825,-1.460,-1.810
3826,-1.480,-1.645
3827,-1.375,-1.365
3828,-1.270,-1.245
3829,-1.175,-1.160
3830,-1.065,-1.030
3831,-0.925,-0.870
3832,-0.785,-0.655
3833,-0.670,-0.470
3834,-0.540,-0.295
3835,-0.390,-0.165
3836,-0.210,-0.035
3837,-0.075,0.090
3838,0.010,0.220
3839,0.040,0.335
3840,0.065,0.355
3841,0.070,0.390
3842,0.100,0.400
3843,0.110,0.410
3844,0.140,0.425
3845,0.150,0.440
3846,0.145,0.435
3847,0.165,0.450
3848,0.165,0.440
3849,0.175,0.455
3850,0.180,0.460
3851,0.195,0.475
3852,0.185,0.465
3853,0.205,0.480
3854,0.205,0.480
3855,0.215,0.490
3856,0.215,0.500
3857,0.220,0.485
3858,0.220,0.505
3859,0.210,0.490
3860,0.190,0.500
3861,0.180,0.485
3862,0.170,0.485
3863,0.155,0.475
3864,0.145,0.440
3865,0.110,0.430
3866,0.080,0.410
3867,0.055,0.380
3868,0.040,0.395
3869,0.020,0.365
3870,0.000,0.340
3871,-0.030,0.310
3872,-0.055,0.290
3873,-0.090,0.290
3874,-0.085,0.255
3875,-0.120,0.225
3876,-0.140,0.215
3877,-0.150,0.210
3878,-0.150,0.205
3879,-0.165,0.180
3880,-0.175,0.170
3881,-0.165,0.175
3882,-0.155,0.175
3883,-0.155,0.175
3884,-0.140,0.180
3885,-0.155,0.195
3886,-0.125,0.190
3887,-0.125,0.190
3888,-0.130,0.190
3889,-0.110,0.170
3890,-0.110,0.175
3891,-0.120,0.180
3892,-0.130,0.185
3893,-0.130,0.175
3894,-0.145,0.155
3895,-0.140,0.165
3896,-0.125,0.145
3897,-0.145,0.140
3898,-0.155,0.150
3899,-0.160,0.155
3900,-0.155,0.145
3901,-0.170,0.125
3902,-0.175,0.145
3903,-0.185,0.125
3904,-0.180,0.145
3905,-0.170,0.115
3906,-0.180,0.120
3907,-0.185,0.125
3908,-0.170,0.100
3909,-0.160,0.115
3910,-0.160,0.110
3911,-0.150,0.120
3912,-0.105,0.145
3913,-0.100,0.175
3914,-0.060,0.190
3915,-0.045,0.195
3916,-0.060,0.160
3917,-0.075,0.130
3918,-0.085,0.110
3919,-0.110,0.075
3920,-0.105,0.080
3921,-0.085,0.105
3922,-0.075,0.105
3923,-0.095,0.120
3924,-0.170,0.125
3925,-0.205,0.100
3926,-0.225,0.070
3927,-0.240,0.100
3928,-0.240,0.080
3929,-0.235,0.070
3930,-0.220,0.080
3931,-0.225,0.060
3932,-0.245,0.085
3933,-0.235,0.075
3934,-0.240,0.080
3935,-0.235,0.095
3936,-0.245,0.085
3937,-0.225,0.080
3938,-0.235,0.075
3939,-0.215,0.070
3940,-0.170,0.085
3941,-0.025,0.130
3942,-0.095,0.100
3943,-0.335,-0.185
3944,-0.760,-0.595
3945,-1.090,-1.045
3946,-1.260,-1.435
3947,-1.370,-1.880
3948,-1.395,-1.930
3949,-1.335,-1.570
3950,-1.225,-1.370
3951,-1.165,-1.240
3952,-1.090,-1.135
3953,-1.005,-0.970
3954,-0.845,-0.815
3955,-0.720,-0.600
3956,-0.605,-0.405
3957,-0.495,-0.245
3958,-0.320,-0.120
3959,-0.160,-0.010
3960,-0.070,0.120
3961,0.000,0.255
3962,0.035,0.340
3963,0.050,0.360
3964,0.060,0.385
3965,0.095,0.390
3966,0.095,0.420
3967,0.105,0.410
3968,0.145,0.420
3969,0.135,0.440
3970,0.150,0.430
3971,0.170,0.455
3972,0.160,0.435
3973,0.180,0.450
3974,0.180,0.475
3975,0.205,0.490
3976,0.215,0.485
3977,0.210,0.480
3978,0.220,0.500
3979,0.210,0.500
3980,0.210,0.515
3981,0.205,0.510
3982,0.195,0.500
3983,0.195,0.505
3984,0.170,0.485
3985,0.160,0.500
3986,0.150,0.480
3987,0.145,0.475
3988,0.115,0.455
3989,0.095,0.430
3990,0.085,0.400
3991,0.030,0.395
3992,0.020,0.375
3993,0.010,0.355
3994,-0.030,0.320
3995,-0.035,0.310
3996,-0.085,0.290
3997,-0.100,0.270
3998,-0.140,0.245
3999,-0.160,0.215
4000,-0.160,0.195
4001,-0.185,0.185
4002,-0.185,0.185
4003,-0.180,0.185
4004,-0.205,0.155
4005,-0.195,0.150
4006,-0.160,0.155
4007,-0.175,0.155
4008,-0.170,0.135
4009,-0.155,0.140
4010,-0.165,0.175
4011,-0.155,0.170
4012,-0.130,0.155
4013,-0.140,0.170
4014,-0.150,0.155
4015,-0.155,0.155
4016,-0.155,0.165
4017,-0.140,0.145
4018,-0.155,0.145
4019,-0.150,0.150
4020,-0.170,0.145
4021,-0.175,0.130
4022,-0.180,0.120
4023,-0.175,0.120
4024,-0.200,0.120
4025,-0.195,0.115
4026,-0.195,0.130
4027,-0.205,0.105
4028,-0.195,0.100
4029,-0.225,0.110
4030,-0.210,0.120
4031,-0.195,0.100
4032,-0.235,0.095
4033,-0.230,0.105
4034,-0.225,0.090
4035,-0.225,0.095
4036,-0.225,0.080
4037,-0.175,0.115
4038,-0.160,0.140
4039,-0.130,0.160
4040,-0.110,0.160
4041,-0.115,0.130
4042,-0.125,0.095
4043,-0.145,0.085
4044,-0.165,0.075
4045,-0.175,0.060
4046,-0.145,0.045
4047,-0.125,0.090
4048,-0.135,0.120
4049,-0.190,0.090
4050,-0.250,0.070
4051,-0.270,0.065
4052,-0.280,0.055
4053,-0.280,0.025
4054,-0.295,0.040
4055,-0.270,0.030
4056,-0.290,0.050
4057,-0.295,0.035
4058,-0.290,0.055
4059,-0.280,0.040
4060,-0.295,0.055
4061,-0.280,0.030
4062,-0.300,0.045
4063,-0.280,0.030
4064,-0.275,0.025
4065,-0.250,0.035
4066,-0.150,0.050
4067,-0.070,0.095
4068,-0.245,-0.040
4069,-0.545,-0.315
4070,-0.960,-0.705
4071,-1.275,-1.085
4072,-1.475,-1.485
4073,-1.555,-1.820
4074,-1.505,-1.690
4075,-1.350,-1.395
4076,-1.250,-1.220
4077,-1.155,-1.135
4078,-1.100,-1.020
4079,-0.985,-0.880
4080,-0.815,-0.710
4081,-0.680,-0.515
4082,-0.555,-0.355
4083,-0.415,-0.215
4084,-0.280,-0.105
4085,-0.145,0.000
4086,-0.055,0.150
4087,-0.015,0.245
4088,0.005,0.290
4089,0.045,0.280
4090,0.035,0.315
4091,0.050,0.325
4092,0.060,0.350
4093,0.065,0.340
4094,0.090,0.345
4095,0.100,0.350
4096,0.060,0.370
4097,0.115,0.360
4098,0.110,0.385
4099,0.120,0.395
4100,0.125,0.385
4101,0.145,0.415
4102,0.145,0.410
4103,0.140,0.430
4104,0.150,0.420
4105,0.145,0.440
4106,0.150,0.430
4107,0.155,0.420
4108,0.120,0.435
4109,0.120,0.425
4110,0.095,0.415
4111,0.100,0.425
4112,0.060,0.395
4113,0.050,0.375
4114,0.035,0.385
4115,0.000,0.340
4116,-0.020,0.335
4117,-0.040,0.290
4118,-0.065,0.305
4119,-0.090,0.285
4120,-0.105,0.265
4121,-0.145,0.235
4122,-0.180,0.235
4123,-0.185,0.185
4124,-0.205,0.190
4125,-0.215,0.180
4126,-0.230,0.155
4127,-0.220,0.135
4128,-0.245,0.135
4129,-0.240,0.130
4130,-0.230,0.110
4131,-0.220,0.110
4132,-0.235,0.110
4133,-0.245,0.110
4134,-0.240,0.100
4135,-0.220,0.115
4136,-0.200,0.110
4137,-0.215,0.115
4138,-0.220,0.125
4139,-0.210,0.145
4140,-0.210,0.105
4141,-0.215,0.110
4142,-0.220,0.105
4143,-0.205,0.110
4144,-0.235,0.100
4145,-0.235,0.100
4146,-0.245,0.115
4147,-0.240,0.100
4148,-0.235,0.095
4149,-0.240,0.090
4150,-0.260,0.090
4151,-0.255,0.075
4152,-0.270,0.080
4153,-0.265,0.075
4154,-0.265,0.070
4155,-0.245,0.085
4156,-0.255,0.075
4157,-0.260,0.065
4158,-0.230,0.100
4159,-0.185,0.115
4160,-0.180,0.140
4161,-0.150,0.135
4162,-0.135,0.140
4163,-0.155,0.110
4164,-0.160,0.070
4165,-0.170,0.055
4166,-0.205,0.040
4167,-0.195,0.025
4168,-0.155,0.060
4169,-0.150,0.070
4170,-0.180,0.085
4171,-0.240,0.060
4172,-0.275,0.060
4173,-0.295,0.030
4174,-0.300,0.040
4175,-0.310,0.055
4176,-0.290,0.025
4177,-0.280,0.045
4178,-0.280,0.035
4179,-0.290,0.035
4180,-0.305,0.040
4181,-0.280,0.035
4182,-0.280,0.040
4183,-0.285,0.030
4184,-0.260,0.010
4185,-0.280,0.020
4186,-0.270,0.025
4187,-0.210,0.040
4188,-0.075,0.070
4189,-0.145,0.050
4190,-0.345,-0.195
4191,-0.750,-0.545
4192,-1.095,-0.950
4193,-1.320,-1.290
4194,-1.445,-1.725
4195,-1.490,-1.815
4196,-1.410,-1.535
4197,-1.295,-1.315
4198,-1.225,-1.215
4199,-1.140,-1.100
4200,-1.020,-0.960
4201,-0.880,-0.790
4202,-0.735,-0.590
4203,-0.625,-0.425
4204,-0.505,-0.285
4205,-0.350,-0.150
4206,-0.170,-0.025
4207,-0.090,0.095
4208,0.000,0.235
4209,0.015,0.305
4210,0.050,0.320
4211,0.050,0.335
4212,0.080,0.340
4213,0.095,0.365
4214,0.095,0.365
4215,0.105,0.375
4216,0.125,0.385
4217,0.145,0.390
4218,0.150,0.395
4219,0.145,0.405
4220,0.150,0.390
4221,0.160,0.410
4222,0.180,0.425
4223,0.170,0.410
4224,0.195,0.440
4225,0.180,0.435
4226,0.180,0.450
4227,0.170,0.440
4228,0.180,0.465
4229,0.185,0.460
4230,0.165,0.445
4231,0.150,0.455
4232,0.135,0.435
4233,0.125,0.430
4234,0.100,0.425
4235,0.075,0.415
4236,0.045,0.385
4237,0.015,0.375
4238,0.000,0.340
4239,-0.030,0.350
4240,-0.065,0.320
4241,-0.075,0.290
4242,-0.100,0.250
4243,-0.150,0.260
4244,-0.160,0.225
4245,-0.165,0.205
4246,-0.185,0.190
4247,-0.225,0.165
4248,-0.210,0.145
4249,-0.215,0.135
4250,-0.220,0.120
4251,-0.215,0.115
4252,-0.215,0.130
4253,-0.210,0.130
4254,-0.215,0.115
4255,-0.200,0.110
4256,-0.210,0.120
4257,-0.195,0.125
4258,-0.195,0.130
4259,-0.195,0.120
4260,-0.195,0.110
4261,-0.190,0.100
4262,-0.195,0.100
4263,-0.205,0.115
4264,-0.195,0.110
4265,-0.220,0.095
4266,-0.215,0.100
4267,-0.190,0.085
4268,-0.200,0.105
4269,-0.215,0.085
4270,-0.215,0.090
4271,-0.230,0.075
4272,-0.210,0.085
4273,-0.225,0.075
4274,-0.215,0.090
4275,-0.225,0.080
4276,-0.215,0.065
4277,-0.245,0.075
4278,-0.225,0.075
4279,-0.220,0.090
4280,-0.195,0.085
4281,-0.180,0.095
4282,-0.150,0.135
4283,-0.130,0.160
4284,-0.105,0.165
4285,-0.110,0.135
4286,-0.125,0.115
4287,-0.120,0.070
4288,-0.160,0.050
4289,-0.180,0.055
4290,-0.165,0.055
4291,-0.120,0.070
4292,-0.140,0.085
4293,-0.190,0.090
4294,-0.240,0.065
4295,-0.285,0.050
4296,-0.280,0.055
4297,-0.275,0.035
4298,-0.280,0.030
4299,-0.260,0.030
4300,-0.275,0.035
4301,-0.290,0.020
4302,-0.265,0.045
4303,-0.280,0.040
4304,-0.260,0.050
4305,-0.275,0.040
4306,-0.250,0.050
4307,-0.265,0.040
4308,-0.235,0.040
4309,-0.225,0.035
4310,-0.095,0.070
4311,-0.065,0.125
4312,-0.230,-0.115
4313,-0.585,-0.440
4314,-0.955,-0.945
4315,-1.195,-1.310
4316,-1.335,-1.785
4317,-1.395,-1.945
4318,-1.370,-1.650
4319,-1.265,-1.410
4320,-1.190,-1.275
4321,-1.100,-1.150
4322,-1.025,-1.025
4323,-0.880,-0.850
4324,-0.740,-0.650
4325,-0.630,-0.465
4326,-0.510,-0.290
4327,-0.355,-0.165
4328,-0.200,-0.020
4329,-0.085,0.110
4330,0.015,0.240
4331,0.030,0.315
4332,0.060,0.340
4333,0.070,0.360
4334,0.085,0.370
4335,0.080,0.375
4336,0.115,0.385
4337,0.110,0.395
4338,0.115,0.400
4339,0.120,0.405
4340,0.140,0.395
4341,0.135,0.430
4342,0.150,0.430
4343,0.160,0.425
4344,0.155,0.450
4345,0.180,0.435
4346,0.165,0.440
4347,0.190,0.445
4348,0.175,0.470
4349,0.160,0.465
4350,0.165,0.455
4351,0.170,0.440
4352,0.160,0.450
4353,0.175,0.435
4354,0.155,0.450
4355,0.115,0.430
4356,0.090,0.410
4357,0.095,0.410
4358,0.065,0.395
4359,0.025,0.380
4360,0.020,0.380
4361,-0.015,0.340
4362,-0.035,0.320
4363,-0.055,0.290
4364,-0.075,0.275
4365,-0.110,0.245
4366,-0.155,0.220
4367,-0.180,0.205
4368,-0.200,0.190
4369,-0.210,0.180
4370,-0.230,0.145
4371,-0.225,0.145
4372,-0.230,0.150
4373,-0.215,0.135
4374,-0.220,0.125
4375,-0.220,0.130
4376,-0.210,0.115
4377,-0.205,0.140
4378,-0.185,0.150
4379,-0.180,0.135
4380,-0.175,0.120
4381,-0.180,0.110
4382,-0.180,0.130
4383,-0.175,0.105
4384,-0.185,0.105
4385,-0.195,0.110
4386,-0.195,0.100
4387,-0.210,0.090
4388,-0.220,0.075
4389,-0.240,0.070
4390,-0.235,0.060
4391,-0.230,0.050
4392,-0.225,0.065
4393,-0.245,0.045
4394,-0.250,0.065
4395,-0.245,0.060
4396,-0.225,0.050
4397,-0.240,0.055
4398,-0.255,0.030
4399,-0.255,0.040
4400,-0.245,0.050
4401,-0.230,0.070
4402,-0.245,0.050
4403,-0.220,0.055
4404,-0.220,0.055
4405,-0.200,0.065
4406,-0.170,0.105
4407,-0.170,0.135
4408,-0.150,0.125
4409,-0.125,0.095
4410,-0.140,0.080
4411,-0.150,0.055
4412,-0.180,0.020
4413,-0.190,0.025
4414,-0.155,0.010
4415,-0.145,0.050
4416,-0.160,0.065
4417,-0.195,0.045
4418,-0.255,0.035
4419,-0.290,0.000
4420,-0.305,0.000
4421,-0.305,0.000
4422,-0.310,0.000
4423,-0.300,0.005
4424,-0.300,0.010
4425,-0.310,0.000
4426,-0.320,0.000
4427,-0.310,0.000
4428,-0.310,0.000
4429,-0.310,0.010
4430,-0.310,0.000
4431,-0.295,0.000
4432,-0.295,0.000
4433,-0.250,0.015
4434,-0.130,0.010
4435,-0.110,0.065
4436,-0.285,-0.125
4437,-0.640,-0.405
4438,-1.045,-0.880
4439,-1.310,-1.220
4440,-1.500,-1.665
4441,-1.555,-1.905
4442,-1.440,-1.630
4443,-1.295,-1.355
4444,-1.215,-1.210
4445,-1.135,-1.095
4446,-1.055,-0.970
4447,-0.905,-0.815
4448,-0.745,-0.625
4449,-0.615,-0.420
4450,-0.500,-0.245
4451,-0.350,-0.150
4452,-0.205,-0.030
4453,-0.090,0.095
4454,-0.015,0.215
4455,0.010,0.295
4456,0.035,0.305
4457,0.040,0.320
4458,0.055,0.345
4459,0.075,0.340
4460,0.075,0.345
4461,0.090,0.360
4462,0.085,0.355
4463,0.095,0.360
4464,0.100,0.375
4465,0.115,0.380
4466,0.115,0.385
4467,0.140,0.370
4468,0.140,0.375
4469,0.145,0.380
4470,0.145,0.400
4471,0.155,0.380
4472,0.145,0.390
4473,0.145,0.375
4474,0.140,0.385
4475,0.110,0.385
4476,0.125,0.395
4477,0.095,0.380
4478,0.090,0.380
4479,0.065,0.375
4480,0.045,0.350
4481,0.015,0.345
4482,0.005,0.330
4483,0.000,0.320
4484,-0.035,0.305
4485,-0.060,0.275
4486,-0.085,0.255
4487,-0.090,0.235
4488,-0.130,0.205
4489,-0.145,0.190
4490,-0.200,0.165
4491,-0.195,0.130
4492,-0.215,0.130
4493,-0.215,0.120
4494,-0.220,0.105
4495,-0.235,0.105
4496,-0.240,0.075
4497,-0.255,0.070
4498,-0.220,0.075
4499,-0.250,0.065
4500,-0.245,0.070
4501,-0.225,0.070
4502,-0.225,0.080
4503,-0.190,0.075
4504,-0.215,0.095
4505,-0.205,0.085
4506,-0.225,0.080
4507,-0.215,0.075
4508,-0.210,0.080
4509,-0.215,0.080
4510,-0.220,0.040
4511,-0.235,0.050
4512,-0.230,0.055
4513,-0.260,0.055
4514,-0.270,0.045
4515,-0.240,0.040
4516,-0.275,0.045
4517,-0.275,0.035
4518,-0.300,0.030
4519,-0.300,0.050
4520,-0.285,0.010
4521,-0.300,0.040
4522,-0.290,0.025
4523,-0.280,0.015
4524,-0.275,0.020
4525,-0.295,0.030
4526,-0.260,0.060
4527,-0.275,0.030
4528,-0.240,0.075
4529,-0.225,0.100
4530,-0.185,0.100
4531,-0.175,0.100
4532,-0.190,0.075
4533,-0.195,0.050
4534,-0.185,0.030
4535,-0.185,0.005
4536,-0.230,0.000
4537,-0.220,0.020
4538,-0.155,0.060
4539,-0.180,0.050
4540,-0.235,0.045
4541,-0.280,0.030
4542,-0.325,0.020
4543,-0.340,0.010
4544,-0.345,0.005
4545,-0.310,0.015
4546,-0.330,-0.005
4547,-0.305,0.010
4548,-0.330,0.000
4549,-0.320,0.010
4550,-0.335,-0.005
4551,-0.315,0.000
4552,-0.320,0.000
4553,-0.305,0.000
4554,-0.325,0.000
4555,-0.300,0.010
4556,-0.285,0.015
4557,-0.185,0.030
4558,-0.080,0.075
4559,-0.200,-0.035
4560,-0.450,-0.265
4561,-0.860,-0.615
4562,-1.160,-1.005
4563,-1.390,-1.400
4564,-1.500,-1.755
4565,-1.535,-1.760
4566,-1.410,-1.470
4567,-1.285,-1.310
4568,-1.230,-1.220
4569,-1.150,-1.115
4570,-1.015,-0.965
4571,-0.845,-0.790
4572,-0.715,-0.605
4573,-0.620,-0.430
4574,-0.485,-0.275
4575,-0.325,-0.170
4576,-0.165,-0.045
4577,-0.075,0.070
4578,-0.005,0.205
4579,0.025,0.275
4580,0.040,0.300
4581,0.065,0.335
4582,0.090,0.340
4583,0.110,0.345
4584,0.110,0.350
4585,0.125,0.360
4586,0.150,0.380
4587,0.140,0.380
4588,0.150,0.375
4589,0.150,0.390
4590,0.170,0.410
4591,0.165,0.400
4592,0.175,0.405
4593,0.170,0.380
4594,0.175,0.385
4595,0.175,0.415
4596,0.175,0.420
4597,0.175,0.415
4598,0.175,0.420
4599,0.170,0.410
4600,0.170,0.420
4601,0.160,0.425
4602,0.140,0.395
4603,0.125,0.390
4604,0.115,0.385
4605,0.100,0.385
4606,0.075,0.370
4607,0.040,0.355
4608,0.025,0.330
4609,0.005,0.330
4610,-0.005,0.295
4611,-0.035,0.255
4612,-0.055,0.245
4613,-0.080,0.215
4614,-0.120,0.200
4615,-0.125,0.150
4616,-0.150,0.160
4617,-0.170,0.120
4618,-0.190,0.100
4619,-0.190,0.100
4620,-0.205,0.100
4621,-0.195,0.070
4622,-0.205,0.080
4623,-0.190,0.070
4624,-0.190,0.040
4625,-0.185,0.070
4626,-0.190,0.065
4627,-0.170,0.070
4628,-0.175,0.055
4629,-0.155,0.065
4630,-0.175,0.050
4631,-0.160,0.075
4632,-0.165,0.065
4633,-0.175,0.070
4634,-0.170,0.055
4635,-0.190,0.065
4636,-0.175,0.040
4637,-0.190,0.045
4638,-0.195,0.055
4639,-0.205,0.030
4640,-0.200,0.025
4641,-0.215,0.020
4642,-0.220,0.010
4643,-0.220,0.005
4644,-0.215,0.015
4645,-0.230,0.025
4646,-0.225,0.025
4647,-0.200,0.000
4648,-0.225,0.000
4649,-0.220,0.000
4650,-0.220,0.000
4651,-0.205,0.000
4652,-0.185,0.020
4653,-0.140,0.055
4654,-0.130,0.070
4655,-0.120,0.080
4656,-0.105,0.065
4657,-0.120,0.050
4658,-0.120,0.015
4659,-0.130,0.000
4660,-0.155,-0.005
4661,-0.155,-0.015
4662,-0.130,0.000
4663,-0.115,0.030
4664,-0.140,0.045
4665,-0.195,0.010
4666,-0.240,-0.010
4667,-0.235,0.000
4668,-0.250,-0.030
4669,-0.270,0.000
4670,-0.250,-0.010
4671,-0.245,0.000
4672,-0.260,0.005
4673,-0.260,0.005
4674,-0.250,-0.005
4675,-0.235,-0.010
4676,-0.250,-0.015
4677,-0.240,-0.010
4678,-0.230,-0.005
4679,-0.240,-0.025
4680,-0.235,-0.020
4681,-0.135,0.005
4682,-0.020,0.040
4683,-0.120,-0.075
4684,-0.380,-0.360
4685,-0.785,-0.805
4686,-1.085,-1.225
4687,-1.255,-1.625
4688,-1.350,-1.955
4689,-1.390,-1.835
4690,-1.295,-1.545
4691,-1.195,-1.375
4692,-1.120,-1.300
4693,-1.020,-1.145
4694,-0.925,-0.995
4695,-0.760,-0.800
4696,-0.655,-0.595
4697,-0.555,-0.435
4698,-0.390,-0.270
4699,-0.225,-0.130
4700,-0.085,0.010
4701,0.005,0.120
4702,0.060,0.230
4703,0.105,0.275
4704,0.110,0.315
4705,0.135,0.325
4706,0.155,0.340
4707,0.170,0.345
4708,0.185,0.355
4709,0.200,0.360
4710,0.195,0.375
4711,0.205,0.390
4712,0.210,0.390
4713,0.230,0.385
4714,0.230,0.395
4715,0.230,0.395
4716,0.240,0.410
4717,0.245,0.400
4718,0.255,0.420
4719,0.255,0.405
4720,0.260,0.425
4721,0.240,0.420
4722,0.230,0.405
4723,0.235,0.410
4724,0.215,0.395
4725,0.210,0.390
4726,0.195,0.375
4727,0.180,0.385
4728,0.145,0.370
4729,0.135,0.335
4730,0.105,0.335
4731,0.090,0.315
4732,0.070,0.285
4733,0.025,0.275
4734,0.005,0.245
4735,-0.010,0.225
4736,-0.030,0.195
4737,-0.060,0.170
4738,-0.080,0.170
4739,-0.105,0.140
4740,-0.125,0.120
4741,-0.140,0.100
4742,-0.150,0.110
4743,-0.135,0.100
4744,-0.155,0.095
4745,-0.155,0.070
4746,-0.145,0.075
4747,-0.145,0.080
4748,-0.140,0.080
4749,-0.140,0.075
4750,-0.120,0.070
4751,-0.105,0.075
4752,-0.105,0.100
4753,-0.110,0.060
4754,-0.115,0.075
4755,-0.125,0.060
4756,-0.110,0.080
4757,-0.115,0.040
4758,-0.125,0.050
4759,-0.130,0.040
4760,-0.155,0.040
4761,-0.150,0.035
4762,-0.165,0.020
4763,-0.185,0.015
4764,-0.200,0.010
4765,-0.195,0.005
4766,-0.185,0.000
4767,-0.195,0.000
4768,-0.185,0.005
4769,-0.180,-0.005
4770,-0.180,0.000
4771,-0.190,0.000
4772,-0.165,0.000
4773,-0.180,0.000
4774,-0.190,0.000
4775,-0.190,0.000
4776,-0.175,-0.005
4777,-0.130,0.015
4778,-0.095,0.055
4779,-0.115,0.055
4780,-0.080,0.060
4781,-0.090,0.030
4782,-0.095,0.000
4783,-0.100,-0.010
4784,-0.100,-0.025
4785,-0.100,-0.045
4786,-0.100,-0.030
4787,-0.080,0.000
4788,-0.095,0.000
4789,-0.160,-0.010
4790,-0.195,-0.030
4791,-0.210,-0.025
4792,-0.215,-0.030
4793,-0.220,-0.045
4794,-0.210,-0.040
4795,-0.215,-0.030
4796,-0.210,-0.010
4797,-0.200,-0.015
4798,-0.205,-0.020
4799,-0.195,-0.010
4800,-0.205,-0.030
4801,-0.195,-0.010
4802,-0.195,-0.015
4803,-0.200,-0.030
4804,-0.180,-0.040
4805,-0.120,-0.020
4806,0.025,0.025
4807,-0.065,-0.025
4808,-0.270,-0.275
4809,-0.690,-0.700
4810,-1.040,-1.130
4811,-1.235,-1.535
4812,-1.360,-1.940
4813,-1.375,-1.945
4814,-1.255,-1.590
4815,-1.135,-1.390
4816,-1.055,-1.265
4817,-1.000,-1.145
4818,-0.910,-1.010
4819,-0.720,-0.805
4820,-0.595,-0.625
4821,-0.475,-0.440
4822,-0.335,-0.295
4823,-0.185,-0.175
4824,-0.020,-0.025
4825,0.040,0.095
4826,0.115,0.200
4827,0.130,0.255
4828,0.145,0.275
4829,0.170,0.280
4830,0.185,0.290
4831,0.195,0.310
4832,0.210,0.335
4833,0.210,0.330
4834,0.225,0.335
4835,0.250,0.325
4836,0.240,0.335
4837,0.255,0.340
4838,0.250,0.330
4839,0.265,0.335
4840,0.275,0.350
4841,0.260,0.355
4842,0.270,0.355
4843,0.295,0.360
4844,0.260,0.360
4845,0.275,0.365
4846,0.270,0.340
4847,0.255,0.370
4848,0.250,0.335
4849,0.230,0.330
4850,0.220,0.345
4851,0.220,0.325
4852,0.195,0.305
4853,0.155,0.290
4854,0.135,0.280
4855,0.115,0.275
4856,0.105,0.235
4857,0.065,0.225
4858,0.030,0.195
4859,0.015,0.175
4860,-0.020,0.145
4861,-0.025,0.140
4862,-0.060,0.100
4863,-0.100,0.090
4864,-0.120,0.075
4865,-0.120,0.040
4866,-0.135,0.060
4867,-0.140,0.040
4868,-0.120,0.040
4869,-0.140,0.035
4870,-0.120,0.030
4871,-0.135,0.030
4872,-0.110,0.020
4873,-0.120,0.015
4874,-0.115,0.035
4875,-0.110,0.035
4876,-0.100,0.035
4877,-0.120,0.020
4878,-0.110,0.035
4879,-0.125,0.035
4880,-0.135,0.025
4881,-0.125,0.020
4882,-0.125,0.020
4883,-0.150,0.000
4884,-0.145,0.000
4885,-0.150,0.000
4886,-0.165,-0.005
4887,-0.155,0.000
4888,-0.165,-0.015
4889,-0.180,-0.030
4890,-0.180,-0.025
4891,-0.180,-0.030
4892,-0.185,-0.035
4893,-0.180,-0.020
4894,-0.195,-0.030
4895,-0.190,-0.025
4896,-0.195,-0.020
4897,-0.185,-0.030
4898,-0.160,-0.030
4899,-0.130,0.005
4900,-0.115,0.020
4901,-0.100,0.035
4902,-0.070,0.035
4903,-0.085,-0.015
4904,-0.095,-0.020
4905,-0.080,-0.020
4906,-0.115,-0.060
4907,-0.145,-0.055
4908,-0.100,-0.040
4909,-0.055,-0.010
4910,-0.095,-0.030
4911,-0.160,-0.025
4912,-0.215,-0.060
4913,-0.250,-0.060
4914,-0.225,-0.040
4915,-0.230,-0.055
4916,-0.225,-0.075
4917,-0.245,-0.055
4918,-0.225,-0.065
4919,-0.240,-0.065
4920,-0.235,-0.050
4921,-0.235,-0.040
4922,-0.225,-0.065
4923,-0.230,-0.035
4924,-0.215,-0.045
4925,-0.220,-0.060
4926,-0.215,-0.050
4927,-0.180,-0.045
4928,-0.050,-0.005
4929,-0.025,0.000
4930,-0.200,-0.215
4931,-0.580,-0.495
4932,-0.980,-0.905
4933,-1.275,-1.220
4934,-1.465,-1.640
4935,-1.515,-1.890
4936,-1.415,-1.645
4937,-1.275,-1.370
4938,-1.170,-1.275
4939,-1.075,-1.170
4940,-1.010,-1.035
4941,-0.865,-0.920
4942,-0.685,-0.735
4943,-0.555,-0.560
4944,-0.440,-0.360
4945,-0.290,-0.245
4946,-0.145,-0.135
4947,-0.020,-0.010
4948,0.060,0.110
4949,0.100,0.215
4950,0.110,0.230
4951,0.130,0.265
4952,0.165,0.285
4953,0.170,0.290
4954,0.195,0.305
4955,0.200,0.290
4956,0.200,0.320
4957,0.210,0.290
4958,0.215,0.310
4959,0.225,0.320
4960,0.230,0.330
4961,0.240,0.330
4962,0.240,0.330
4963,0.260,0.350
4964,0.260,0.350
4965,0.265,0.385
4966,0.265,0.345
4967,0.265,0.400
4968,0.260,0.380
4969,0.260,0.375
4970,0.250,0.365
4971,0.235,0.360
4972,0.230,0.350
4973,0.200,0.360
4974,0.195,0.340
4975,0.175,0.330
4976,0.165,0.300
4977,0.135,0.305
4978,0.115,0.270
4979,0.090,0.255
4980,0.055,0.240
4981,0.020,0.205
4982,0.000,0.175
4983,-0.030,0.165
4984,-0.040,0.135
4985,-0.060,0.130
4986,-0.075,0.095
4987,-0.090,0.080
4988,-0.100,0.070
4989,-0.100,0.065
4990,-0.110,0.040
4991,-0.115,0.025
4992,-0.110,0.030
4993,-0.090,0.020
4994,-0.115,0.030
4995,-0.105,0.035
4996,-0.105,0.010
4997,-0.095,0.015
4998,-0.085,0.025
4999,-0.100,0.035
5000,-0.085,0.025
5001,-0.085,0.035
5002,-0.095,0.030
5003,-0.110,0.025
5004,-0.105,0.010
5005,-0.115,0.020
5006,-0.125,0.030
5007,-0.125,0.005
5008,-0.135,-0.005
5009,-0.140,0.000
5010,-0.140,0.000
5011,-0.145,0.000
5012,-0.155,0.000
5013,-0.160,-0.010
5014,-0.165,0.000
5015,-0.150,-0.015
5016,-0.175,-0.015
5017,-0.155,-0.025
5018,-0.170,-0.010
5019,-0.160,-0.020
5020,-0.150,-0.015
5021,-0.120,0.005
5022,-0.095,0.035
5023,-0.085,0.075
5024,-0.065,0.060
5025,-0.055,0.035
5026,-0.060,-0.005
5027,-0.085,-0.015
5028,-0.085,-0.030
5029,-0.125,-0.040
5030,-0.115,-0.050
5031,-0.065,-0.020
5032,-0.080,0.000
5033,-0.140,-0.015
5034,-0.180,-0.015
5035,-0.200,-0.035
5036,-0.215,-0.055
5037,-0.235,-0.055
5038,-0.215,-0.045
5039,-0.225,-0.035
5040,-0.220,-0.035
5041,-0.225,-0.045
5042,-0.210,-0.040
5043,-0.220,-0.035
5044,-0.210,-0.035
5045,-0.215,-0.025
5046,-0.215,-0.025
5047,-0.195,-0.030
5048,-0.190,-0.025
5049,-0.155,-0.025
5050,-0.050,0.005
5051,0.020,0.035
5052,-0.140,-0.170
5053,-0.455,-0.485
5054,-0.860,-0.950
5055,-1.145,-1.315
5056,-1.290,-1.760
5057,-1.335,-2.020
5058,-1.345,-1.765
5059,-1.235,-1.505
5060,-1.165,-1.410
5061,-1.060,-1.290
5062,-0.980,-1.130
5063,-0.840,-0.995
5064,-0.690,-0.785
5065,-0.585,-0.580
5066,-0.455,-0.400
5067,-0.300,-0.235
5068,-0.125,-0.115
5069,0.005,0.020
5070,0.100,0.145
5071,0.145,0.245
5072,0.170,0.280
5073,0.185,0.310
5074,0.205,0.325
5075,0.215,0.340
5076,0.235,0.355
5077,0.245,0.365
5078,0.255,0.375
5079,0.260,0.360
5080,0.275,0.380
5081,0.275,0.385
5082,0.280,0.390
5083,0.300,0.400
5084,0.305,0.405
5085,0.315,0.415
5086,0.315,0.420
5087,0.330,0.430
5088,0.315,0.440
5089,0.325,0.425
5090,0.335,0.430
5091,0.320,0.440
5092,0.305,0.430
5093,0.305,0.420
5094,0.300,0.405
5095,0.280,0.405
5096,0.245,0.385
5097,0.235,0.385
5098,0.220,0.370
5099,0.190,0.365
5100,0.195,0.345
5101,0.160,0.320
5102,0.125,0.310
5103,0.110,0.285
5104,0.080,0.260
5105,0.040,0.240
5106,0.015,0.205
5107,-0.005,0.190
5108,-0.025,0.170
5109,-0.040,0.145
5110,-0.060,0.145
5111,-0.075,0.125
5112,-0.070,0.105
5113,-0.085,0.100
5114,-0.110,0.115
5115,-0.095,0.105
5116,-0.095,0.080
5117,-0.110,0.090
5118,-0.090,0.090
5119,-0.100,0.100
5120,-0.070,0.110
5121,-0.080,0.075
5122,-0.065,0.090
5123,-0.060,0.075
5124,-0.070,0.065
5125,-0.075,0.080
5126,-0.075,0.075
5127,-0.090,0.075
5128,-0.090,0.070
5129,-0.095,0.060
5130,-0.095,0.050
5131,-0.110,0.035
5132,-0.115,0.035
5133,-0.125,0.045
5134,-0.120,0.040
5135,-0.135,0.025
5136,-0.125,0.025
5137,-0.120,0.020
5138,-0.145,0.005
5139,-0.150,0.025
5140,-0.140,0.035
5141,-0.150,0.005
5142,-0.145,0.005
5143,-0.140,0.030
5144,-0.110,0.000
5145,-0.090,0.055
5146,-0.070,0.085
5147,-0.050,0.095
5148,-0.025,0.095
5149,-0.040,0.070
5150,-0.050,0.020
5151,-0.080,0.000
5152,-0.085,-0.015
5153,-0.100,-0.020
5154,-0.065,0.005
5155,-0.045,0.010
5156,-0.055,0.035
5157,-0.105,0.015
5158,-0.170,0.000
5159,-0.205,-0.005
5160,-0.220,-0.010
5161,-0.220,-0.040
5162,-0.225,-0.015
5163,-0.195,-0.010
5164,-0.210,-0.010
5165,-0.210,-0.010
5166,-0.205,-0.015
5167,-0.205,-0.010
5168,-0.190,-0.020
5169,-0.195,-0.015
5170,-0.195,-0.015
5171,-0.195,-0.010
5172,-0.185,-0.020
5173,-0.160,-0.005
5174,-0.115,0.000
5175,0.020,0.045
5176,-0.005,0.005
5177,-0.220,-0.260
5178,-0.590,-0.640
5179,-0.935,-1.120
5180,-1.175,-1.475
5181,-1.275,-1.925
5182,-1.305,-2.040
5183,-1.275,-1.685
5184,-1.165,-1.460
5185,-1.075,-1.325
5186,-1.005,-1.205
5187,-0.940,-1.070
5188,-0.815,-0.900
5189,-0.650,-0.680
5190,-0.525,-0.470
5191,-0.425,-0.295
5192,-0.270,-0.175
5193,-0.110,-0.060
5194,0.000,0.075
5195,0.090,0.205
5196,0.130,0.290
5197,0.165,0.340
5198,0.165,0.365
5199,0.185,0.375
5200,0.205,0.395
5201,0.220,0.410
5202,0.225,0.410
5203,0.225,0.390
5204,0.250,0.415
5205,0.245,0.415
5206,0.245,0.420
5207,0.270,0.425
5208,0.285,0.440
5209,0.275,0.435
5210,0.295,0.450
5211,0.300,0.455
5212,0.305,0.470
5213,0.310,0.465
5214,0.300,0.460
5215,0.305,0.455
5216,0.280,0.455
5217,0.290,0.450
5218,0.280,0.455
5219,0.270,0.445
5220,0.235,0.445
5221,0.235,0.425
5222,0.220,0.415
5223,0.205,0.400
5224,0.180,0.365
5225,0.145,0.365
5226,0.110,0.350
5227,0.085,0.325
5228,0.085,0.290
5229,0.050,0.290
5230,0.020,0.260
5231,-0.005,0.230
5232,-0.015,0.220
5233,-0.065,0.200
5234,-0.070,0.175
5235,-0.085,0.150
5236,-0.095,0.155
5237,-0.110,0.130
5238,-0.120,0.120
5239,-0.110,0.125
5240,-0.135,0.090
5241,-0.110,0.085
5242,-0.110,0.105
5243,-0.120,0.090
5244,-0.105,0.090
5245,-0.105,0.095
5246,-0.110,0.070
5247,-0.100,0.080
5248,-0.110,0.080
5249,-0.105,0.075
5250,-0.100,0.085
5251,-0.120,0.070
5252,-0.115,0.045
5253,-0.115,0.040
5254,-0.135,0.045
5255,-0.135,0.035
5256,-0.135,0.040
5257,-0.155,0.025
5258,-0.165,0.030
5259,-0.170,0.020
5260,-0.170,0.025
5261,-0.180,0.030
5262,-0.165,0.015
5263,-0.180,0.015
5264,-0.185,-0.010
5265,-0.190,0.010
5266,-0.210,0.000
5267,-0.190,0.000
5268,-0.185,0.000
5269,-0.175,0.000
5270,-0.150,0.030
5271,-0.125,0.045
5272,-0.105,0.085
5273,-0.100,0.065
5274,-0.065,0.025
5275,-0.100,0.025
5276,-0.110,0.000
5277,-0.140,-0.030
5278,-0.150,-0.060
5279,-0.150,-0.045
5280,-0.105,-0.005
5281,-0.115,-0.010
5282,-0.155,-0.010
5283,-0.240,-0.010
5284,-0.250,-0.035
5285,-0.245,-0.045
5286,-0.260,-0.030
5287,-0.260,-0.055
5288,-0.275,-0.055
5289,-0.255,-0.035
5290,-0.275,-0.055
5291,-0.265,-0.050
5292,-0.260,-0.050
5293,-0.265,-0.045
5294,-0.260,-0.050
5295,-0.255,-0.040
5296,-0.265,-0.030
5297,-0.255,-0.035
5298,-0.240,-0.035
5299,-0.170,-0.015
5300,-0.040,0.025
5301,-0.160,-0.100
5302,-0.430,-0.375
5303,-0.865,-0.800
5304,-1.195,-1.200
5305,-1.390,-1.640
5306,-1.485,-1.975
5307,-1.430,-1.870
5308,-1.300,-1.530
5309,-1.190,-1.335
5310,-1.095,-1.235
5311,-1.065,-1.100
5312,-0.945,-0.970
5313,-0.760,-0.780
5314,-0.630,-0.580
5315,-0.510,-0.400
5316,-0.360,-0.250
5317,-0.230,-0.110
5318,-0.085,0.000
5319,0.000,0.125
5320,0.060,0.240
5321,0.085,0.285
5322,0.100,0.315
5323,0.125,0.305
5324,0.135,0.320
5325,0.130,0.330
5326,0.160,0.320
5327,0.165,0.345
5328,0.155,0.345
5329,0.165,0.360
5330,0.150,0.340
5331,0.180,0.385
5332,0.185,0.370
5333,0.195,0.365
5334,0.215,0.390
5335,0.205,0.380
5336,0.215,0.405
5337,0.210,0.375
5338,0.225,0.385
5339,0.205,0.410
5340,0.215,0.395
5341,0.190,0.380
5342,0.190,0.390
5343,0.185,0.375
5344,0.170,0.355
5345,0.155,0.355
5346,0.140,0.350
5347,0.100,0.330
5348,0.070,0.315
5349,0.045,0.285
5350,0.025,0.300
5351,0.000,0.275
5352,-0.030,0.235
5353,-0.040,0.210
5354,-0.075,0.195
5355,-0.105,0.175
5356,-0.105,0.150
5357,-0.115,0.135
5358,-0.130,0.115
5359,-0.150,0.110
5360,-0.155,0.085
5361,-0.165,0.090
5362,-0.175,0.080
5363,-0.145,0.075
5364,-0.150,0.070
5365,-0.155,0.060
5366,-0.135,0.055
5367,-0.145,0.060
5368,-0.160,0.065
5369,-0.155,0.050
5370,-0.150,0.060
5371,-0.145,0.060
5372,-0.145,0.050
5373,-0.155,0.055
5374,-0.150,0.045
5375,-0.195,0.040
5376,-0.185,0.045
5377,-0.185,0.030
5378,-0.190,0.000
5379,-0.190,0.020
5380,-0.205,0.000
5381,-0.200,0.000
5382,-0.215,0.000
5383,-0.215,0.000
5384,-0.225,0.005
5385,-0.220,-0.010
5386,-0.220,-0.005
5387,-0.225,-0.015
5388,-0.230,-0.020
5389,-0.220,-0.010
5390,-0.225,0.000
5391,-0.225,0.000
5392,-0.205,0.000
5393,-0.165,0.030
5394,-0.155,0.060
5395,-0.155,0.055
5396,-0.120,0.025
5397,-0.140,0.005
5398,-0.130,0.000
5399,-0.140,-0.020
5400,-0.180,-0.050
5401,-0.175,-0.040
5402,-0.125,-0.025
5403,-0.135,0.000
5404,-0.165,-0.005
5405,-0.220,-0.020
5406,-0.275,-0.035
5407,-0.275,-0.055
5408,-0.285,-0.050
5409,-0.280,-0.045
5410,-0.280,-0.045
5411,-0.270,-0.045
5412,-0.290,-0.050
5413,-0.275,-0.030
5414,-0.275,-0.040
5415,-0.280,-0.045
5416,-0.270,-0.060
5417,-0.265,-0.050
5418,-0.260,-0.050
5419,-0.270,-0.040
5420,-0.235,-0.065
5421,-0.210,-0.045
5422,-0.055,0.005
5423,-0.095,-0.020
5424,-0.295,-0.270
5425,-0.710,-0.610
5426,-1.070,-1.045
5427,-1.305,-1.425
5428,-1.470,-1.825
5429,-1.495,-1.960
5430,-1.395,-1.645
5431,-1.270,-1.425
5432,-1.180,-1.325
5433,-1.080,-1.215
5434,-1.000,-1.055
5435,-0.820,-0.870
5436,-0.670,-0.670
5437,-0.535,-0.475
5438,-0.430,-0.335
5439,-0.270,-0.205
5440,-0.135,-0.070
5441,-0.025,0.070
5442,0.055,0.185
5443,0.100,0.270
5444,0.125,0.290
5445,0.140,0.315
5446,0.160,0.330
5447,0.170,0.320
5448,0.190,0.350
5449,0.205,0.345
5450,0.215,0.370
5451,0.220,0.365
5452,0.220,0.365
5453,0.235,0.380
5454,0.245,0.395
5455,0.255,0.390
5456,0.265,0.415
5457,0.270,0.425
5458,0.275,0.410
5459,0.280,0.420
5460,0.270,0.435
5461,0.270,0.420
5462,0.270,0.415
5463,0.275,0.420
5464,0.265,0.400
5465,0.250,0.415
5466,0.250,0.400
5467,0.240,0.405
5468,0.215,0.395
5469,0.190,0.375
5470,0.170,0.365
5471,0.145,0.340
5472,0.125,0.330
5473,0.085,0.300
5474,0.065,0.280
5475,0.045,0.235
5476,0.015,0.235
5477,0.000,0.205
5478,-0.030,0.200
5479,-0.060,0.180
5480,-0.085,0.140
5481,-0.105,0.125
5482,-0.090,0.110
5483,-0.105,0.105
5484,-0.110,0.110
5485,-0.095,0.075
5486,-0.115,0.075
5487,-0.100,0.060
5488,-0.095,0.070
5489,-0.085,0.060
5490,-0.080,0.075
5491,-0.090,0.080
5492,-0.085,0.065
5493,-0.070,0.065
5494,-0.075,0.055
5495,-0.085,0.045
5496,-0.100,0.040
5497,-0.085,0.035
5498,-0.095,0.040
5499,-0.100,0.040
5500,-0.100,0.025
5501,-0.125,0.015
5502,-0.110,0.010
5503,-0.125,0.010
5504,-0.130,0.025
5505,-0.130,0.010
5506,-0.140,0.000
5507,-0.135,0.000
5508,-0.145,-0.020
5509,-0.145,0.000
5510,-0.145,-0.010
5511,-0.160,-0.010
5512,-0.165,-0.015
5513,-0.170,-0.015
5514,-0.155,-0.015
5515,-0.140,-0.015
5516,-0.100,0.015
5517,-0.090,0.060
5518,-0.060,0.060
5519,-0.060,0.035
5520,-0.075,0.000
5521,-0.065,-0.030
5522,-0.080,-0.025
5523,-0.095,-0.040
5524,-0.085,-0.060
5525,-0.075,-0.010
5526,-0.055,-0.005
5527,-0.090,-0.010
5528,-0.155,-0.030
5529,-0.190,-0.035
5530,-0.205,-0.060
5531,-0.200,-0.045
5532,-0.220,-0.045
5533,-0.215,-0.040
5534,-0.220,-0.045
5535,-0.205,-0.035
5536,-0.210,-0.040
5537,-0.205,-0.030
5538,-0.215,-0.030
5539,-0.210,-0.030
5540,-0.210,-0.025
5541,-0.200,-0.035
5542,-0.190,-0.020
5543,-0.185,-0.020
5544,-0.145,-0.015
5545,0.015,0.000
5546,-0.035,-0.005
5547,-0.235,-0.275
5548,-0.645,-0.665
5549,-1.015,-1.155
5550,-1.235,-1.595
5551,-1.345,-2.000
5552,-1.365,-2.030
5553,-1.315,-1.710
5554,-1.210,-1.510
5555,-1.140,-1.375
5556,-1.045,-1.250
5557,-0.960,-1.110
5558,-0.815,-0.925
5559,-0.675,-0.705
5560,-0.540,-0.500
5561,-0.420,-0.330
5562,-0.265,-0.210
5563,-0.110,-0.065
5564,0.000,0.050
5565,0.100,0.185
5566,0.135,0.290
5567,0.170,0.315
5568,0.180,0.345
5569,0.200,0.360
5570,0.210,0.370
5571,0.225,0.375
5572,0.245,0.410
5573,0.265,0.420
5574,0.260,0.420
5575,0.260,0.410
5576,0.265,0.420
5577,0.285,0.415
5578,0.285,0.435
5579,0.285,0.445
5580,0.305,0.450
5581,0.310,0.455
5582,0.295,0.440
5583,0.300,0.460
5584,0.300,0.460
5585,0.310,0.455
5586,0.280,0.470
5587,0.290,0.455
5588,0.275,0.440
5589,0.260,0.425
5590,0.250,0.410
5591,0.240,0.415
5592,0.210,0.390
5593,0.185,0.385
5594,0.180,0.350
5595,0.150,0.360
5596,0.130,0.320
5597,0.100,0.300
5598,0.075,0.285
5599,0.040,0.285
5600,0.025,0.245
5601,-0.005,0.220
5602,-0.040,0.195
5603,-0.040,0.180
5604,-0.060,0.170
5605,-0.080,0.145
5606,-0.080,0.150
5607,-0.085,0.135
5608,-0.085,0.130
5609,-0.090,0.105
5610,-0.080,0.135
5611,-0.070,0.135
5612,-0.075,0.110
5613,-0.070,0.125
5614,-0.065,0.100
5615,-0.055,0.120
5616,-0.070,0.135
5617,-0.070,0.110
5618,-0.065,0.120
5619,-0.065,0.105
5620,-0.065,0.100
5621,-0.080,0.105
5622,-0.080,0.105
5623,-0.085,0.095
5624,-0.100,0.075
5625,-0.130,0.050
5626,-0.120,0.050
5627,-0.110,0.045
5628,-0.135,0.045
5629,-0.125,0.040
5630,-0.140,0.005
5631,-0.120,0.015
5632,-0.135,0.030
5633,-0.140,0.030
5634,-0.140,0.025
5635,-0.145,0.010
5636,-0.145,0.000
5637,-0.135,0.000
5638,-0.140,0.010
5639,-0.130,0.020
5640,-0.105,0.025
5641,-0.065,0.065
5642,-0.055,0.070
5643,-0.035,0.090
5644,-0.035,0.065
5645,-0.060,0.030
5646,-0.070,0.005
5647,-0.090,-0.005
5648,-0.105,-0.020
5649,-0.095,0.000
5650,-0.055,0.000
5651,-0.055,0.015
5652,-0.130,0.010
5653,-0.215,0.000
5654,-0.215,-0.010
5655,-0.215,-0.025
5656,-0.230,-0.015
5657,-0.230,-0.005
5658,-0.230,-0.025
5659,-0.230,-0.030
5660,-0.215,-0.020
5661,-0.225,-0.015
5662,-0.220,-0.020
5663,-0.220,-0.010
5664,-0.220,-0.015
5665,-0.220,-0.020
5666,-0.220,-0.010
5667,-0.220,-0.015
5668,-0.180,-0.015
5669,-0.095,0.020
5670,-0.015,0.065
5671,-0.190,-0.145
5672,-0.525,-0.470
5673,-0.910,-0.995
5674,-1.190,-1.370
5675,-1.355,-1.910
5676,-1.380,-2.125
5677,-1.365,-1.860
5678,-1.260,-1.570
5679,-1.165,-1.400
5680,-1.090,-1.285
5681,-1.045,-1.145
5682,-0.920,-0.990
5683,-0.740,-0.775
5684,-0.620,-0.555
5685,-0.495,-0.350
5686,-0.345,-0.215
5687,-0.195,-0.110
5688,-0.040,0.035
5689,0.035,0.175
5690,0.110,0.270
5691,0.120,0.335
5692,0.135,0.365
5693,0.165,0.365
5694,0.175,0.385
5695,0.190,0.400
5696,0.205,0.405
5697,0.220,0.395
5698,0.225,0.405
5699,0.235,0.420
5700,0.240,0.425
5701,0.250,0.440
5702,0.270,0.435
5703,0.265,0.435
5704,0.300,0.430
5705,0.270,0.445
5706,0.285,0.440
5707,0.290,0.465
5708,0.275,0.450
5709,0.260,0.470
5710,0.295,0.460
5711,0.270,0.450
5712,0.260,0.460
5713,0.230,0.470
5714,0.225,0.445
5715,0.215,0.425
5716,0.190,0.405
5717,0.170,0.400
5718,0.155,0.385
5719,0.135,0.360
5720,0.120,0.320
5721,0.090,0.320
5722,0.070,0.295
5723,0.015,0.275
5724,0.000,0.265
5725,-0.025,0.245
5726,-0.035,0.230
5727,-0.055,0.215
5728,-0.085,0.200
5729,-0.105,0.175
5730,-0.120,0.160
5731,-0.110,0.145
5732,-0.105,0.140
5733,-0.120,0.140
5734,-0.105,0.125
5735,-0.095,0.120
5736,-0.115,0.125
5737,-0.095,0.110
5738,-0.085,0.110
5739,-0.080,0.125
5740,-0.080,0.110
5741,-0.085,0.100
5742,-0.085,0.100
5743,-0.085,0.115
5744,-0.090,0.120
5745,-0.075,0.105
5746,-0.095,0.085
5747,-0.100,0.100
5748,-0.105,0.085
5749,-0.105,0.060
5750,-0.120,0.065
5751,-0.120,0.065
5752,-0.130,0.045
5753,-0.145,0.070
5754,-0.145,0.045
5755,-0.135,0.025
5756,-0.165,0.035
5757,-0.145,0.040
5758,-0.150,0.025
5759,-0.170,0.030
5760,-0.175,0.015
5761,-0.175,0.030
5762,-0.175,0.025
5763,-0.155,0.025
5764,-0.110,0.060
5765,-0.105,0.090
5766,-0.095,0.095
5767,-0.080,0.075
5768,-0.085,0.050
5769,-0.085,0.025
5770,-0.100,0.010
5771,-0.135,-0.015
5772,-0.145,-0.020
5773,-0.095,-0.005
5774,-0.095,0.010
5775,-0.115,0.005
5776,-0.160,0.010
5777,-0.210,0.000
5778,-0.220,0.000
5779,-0.250,-0.005
5780,-0.245,-0.015
5781,-0.250,0.000
5782,-0.245,-0.015
5783,-0.265,-0.010
5784,-0.260,-0.010
5785,-0.250,-0.020
5786,-0.250,-0.030
5787,-0.250,-0.020
5788,-0.240,-0.030
5789,-0.255,-0.020
5790,-0.245,-0.015
5791,-0.235,-0.010
5792,-0.205,0.000
5793,-0.095,0.010
5794,-0.065,0.015
5795,-0.250,-0.190
5796,-0.615,-0.505
5797,-1.005,-0.950
5798,-1.295,-1.300
5799,-1.480,-1.765
5800,-1.535,-1.950
5801,-1.410,-1.660
5802,-1.280,-1.395
5803,-1.185,-1.275
5804,-1.105,-1.155
5805,-1.030,-1.035
5806,-0.860,-0.855
5807,-0.710,-0.645
5808,-0.590,-0.465
5809,-0.460,-0.300
5810,-0.305,-0.180
5811,-0.155,-0.090
5812,-0.060,0.060
5813,0.025,0.185
5814,0.050,0.260
5815,0.090,0.305
5816,0.095,0.300
5817,0.115,0.325
5818,0.140,0.365
5819,0.155,0.340
5820,0.160,0.350
5821,0.170,0.365
5822,0.180,0.380
5823,0.175,0.390
5824,0.195,0.395
5825,0.195,0.395
5826,0.210,0.405
5827,0.220,0.410
5828,0.215,0.420
5829,0.235,0.435
5830,0.225,0.420
5831,0.230,0.440
5832,0.225,0.460
5833,0.240,0.450
5834,0.225,0.450
5835,0.235,0.465
5836,0.220,0.455
5837,0.205,0.450
5838,0.190,0.425
5839,0.180,0.410
5840,0.145,0.390
5841,0.135,0.385
5842,0.105,0.385
5843,0.085,0.370
5844,0.060,0.335
5845,0.015,0.305
5846,0.000,0.285
5847,-0.010,0.260
5848,-0.060,0.265
5849,-0.070,0.240
5850,-0.095,0.200
5851,-0.110,0.180
5852,-0.120,0.175
5853,-0.125,0.145
5854,-0.135,0.125
5855,-0.135,0.135
5856,-0.135,0.135
5857,-0.130,0.130
5858,-0.135,0.135
5859,-0.130,0.130
5860,-0.115,0.120
5861,-0.105,0.130
5862,-0.110,0.105
5863,-0.125,0.115
5864,-0.120,0.115
5865,-0.110,0.115
5866,-0.095,0.120
5867,-0.125,0.110
5868,-0.145,0.105
5869,-0.130,0.100
5870,-0.140,0.090
5871,-0.135,0.105
5872,-0.145,0.070
5873,-0.155,0.085
5874,-0.145,0.085
5875,-0.160,0.065
5876,-0.165,0.060
5877,-0.190,0.055
5878,-0.185,0.040
5879,-0.175,0.050
5880,-0.170,0.050
5881,-0.170,0.050
5882,-0.175,0.070
5883,-0.170,0.040
5884,-0.150,0.045
5885,-0.135,0.075
5886,-0.090,0.105
5887,-0.065,0.105
5888,-0.055,0.090
5889,-0.070,0.055
5890,-0.090,0.025
5891,-0.105,0.000
5892,-0.135,0.000
5893,-0.110,-0.005
5894,-0.085,0.010
5895,-0.085,0.025
5896,-0.115,0.015
5897,-0.195,0.005
5898,-0.235,-0.005
5899,-0.230,-0.020
5900,-0.240,-0.025
5901,-0.250,-0.005
5902,-0.245,-0.015
5903,-0.235,-0.005
5904,-0.235,-0.015
5905,-0.230,-0.005
5906,-0.235,-0.010
5907,-0.245,-0.005
5908,-0.245,-0.010
5909,-0.245,-0.005
5910,-0.240,-0.015
5911,-0.210,0.000
5912,-0.225,0.000
5913,-0.125,0.015
5914,-0.005,0.065
5915,-0.175,-0.115
5916,-0.470,-0.415
5917,-0.895,-0.910
5918,-1.180,-1.315
5919,-1.350,-1.790
5920,-1.415,-2.020
5921,-1.395,-1.765
5922,-1.295,-1.520
5923,-1.200,-1.375
5924,-1.110,-1.260
5925,-1.040,-1.095
5926,-0.905,-0.925
5927,-0.760,-0.710
5928,-0.620,-0.515
5929,-0.495,-0.330
5930,-0.345,-0.210
5931,-0.160,-0.060
5932,-0.025,0.055
5933,0.035,0.200
5934,0.075,0.305
5935,0.090,0.335
5936,0.120,0.335
5937,0.120,0.345
5938,0.140,0.370
5939,0.165,0.370
5940,0.170,0.380
5941,0.185,0.395
5942,0.200,0.390
5943,0.205,0.410
5944,0.230,0.425
5945,0.225,0.420
5946,0.230,0.440
5947,0.235,0.440
5948,0.240,0.445
5949,0.245,0.455
5950,0.270,0.460
5951,0.245,0.460
5952,0.275,0.475
5953,0.270,0.495
5954,0.250,0.500
5955,0.250,0.455
5956,0.230,0.455
5957,0.230,0.460
5958,0.215,0.460
5959,0.205,0.445
5960,0.170,0.425
5961,0.150,0.425
5962,0.135,0.395
5963,0.105,0.380
5964,0.070,0.350
5965,0.055,0.330
5966,0.025,0.320
5967,0.005,0.310
5968,-0.040,0.265
5969,-0.065,0.245
5970,-0.075,0.230
5971,-0.105,0.205
5972,-0.125,0.180
5973,-0.125,0.145
5974,-0.140,0.165
5975,-0.140,0.150
5976,-0.130,0.130
5977,-0.120,0.140
5978,-0.150,0.120
5979,-0.125,0.150
5980,-0.110,0.155
5981,-0.125,0.135
5982,-0.120,0.135
5983,-0.105,0.130
5984,-0.120,0.145
5985,-0.110,0.140
5986,-0.105,0.130
5987,-0.105,0.125
5988,-0.135,0.115
5989,-0.110,0.115
5990,-0.125,0.080
5991,-0.120,0.110
5992,-0.130,0.085
5993,-0.145,0.080
5994,-0.170,0.095
5995,-0.160,0.075
5996,-0.150,0.075
5997,-0.165,0.070
5998,-0.165,0.050
5999,-0.155,0.075
6000,-0.175,0.045
6001,-0.180,0.045
6002,-0.190,0.080
6003,-0.175,0.055
6004,-0.185,0.055
6005,-0.185,0.055
6006,-0.175,0.075
6007,-0.170,0.065
6008,-0.145,0.075
6009,-0.100,0.115
6010,-0.085,0.145
6011,-0.070,0.115
6012,-0.070,0.100
6013,-0.075,0.080
6014,-0.080,0.050
6015,-0.110,0.030
6016,-0.135,0.015
6017,-0.130,0.010
6018,-0.090,0.035
6019,-0.105,0.045
6020,-0.135,0.045
6021,-0.210,0.020
6022,-0.250,0.000
6023,-0.240,0.000
6024,-0.255,-0.005
6025,-0.245,0.015
6026,-0.255,-0.015
6027,-0.250,0.000
6028,-0.260,0.005
6029,-0.250,0.000
6030,-0.265,0.000
6031,-0.255,0.000
6032,-0.255,0.000
6033,-0.255,0.000
6034,-0.260,0.010
6035,-0.260,0.000
6036,-0.240,-0.005
6037,-0.150,0.005
6038,-0.010,0.085
6039,-0.130,-0.020
6040,-0.365,-0.320
6041,-0.785,-0.765
6042,-1.120,-1.190
6043,-1.300,-1.625
6044,-1.415,-2.005
6045,-1.415,-1.985
6046,-1.340,-1.640
6047,-1.230,-1.445
6048,-1.150,-1.325
6049,-1.095,-1.195
6050,-1.010,-1.030
6051,-0.825,-0.840
6052,-0.700,-0.600
6053,-0.570,-0.400
6054,-0.430,-0.255
6055,-0.295,-0.115
6056,-0.130,0.000
6057,-0.055,0.125
6058,0.035,0.270
6059,0.070,0.340
6060,0.085,0.355
6061,0.105,0.375
6062,0.115,0.390
6063,0.130,0.400
6064,0.150,0.420
6065,0.145,0.410
6066,0.180,0.410
6067,0.170,0.415
6068,0.175,0.430
6069,0.170,0.430
6070,0.185,0.455
6071,0.195,0.455
6072,0.190,0.450
6073,0.215,0.450
6074,0.205,0.450
6075,0.220,0.470
6076,0.195,0.470
6077,0.225,0.475
6078,0.220,0.485
6079,0.230,0.485
6080,0.210,0.485
6081,0.215,0.490
6082,0.195,0.475
6083,0.200,0.480
6084,0.150,0.460
6085,0.145,0.440
6086,0.115,0.410
6087,0.085,0.400
6088,0.080,0.390
6089,0.060,0.380
6090,0.030,0.350
6091,0.015,0.335
6092,0.000,0.320
6093,-0.030,0.300
6094,-0.060,0.290
6095,-0.080,0.280
6096,-0.120,0.255
6097,-0.125,0.215
6098,-0.150,0.210
6099,-0.140,0.200
6100,-0.165,0.180
6101,-0.160,0.160
6102,-0.180,0.170
6103,-0.170,0.190
6104,-0.155,0.165
6105,-0.145,0.155
6106,-0.155,0.145
6107,-0.170,0.165
6108,-0.155,0.165
6109,-0.135,0.155
6110,-0.135,0.160
6111,-0.125,0.140
6112,-0.120,0.135
6113,-0.115,0.140
6114,-0.135,0.130
6115,-0.135,0.140
6116,-0.130,0.120
6117,-0.150,0.100
6118,-0.160,0.110
6119,-0.170,0.100
6120,-0.170,0.090
6121,-0.180,0.080
6122,-0.180,0.095
6123,-0.185,0.100
6124,-0.205,0.070
6125,-0.190,0.085
6126,-0.195,0.050
6127,-0.200,0.065
6128,-0.200,0.055
6129,-0.215,0.055
6130,-0.200,0.070
6131,-0.200,0.065
6132,-0.210,0.055
6133,-0.220,0.055
6134,-0.180,0.085
6135,-0.160,0.100
6136,-0.120,0.140
6137,-0.120,0.145
6138,-0.090,0.115
6139,-0.110,0.100
6140,-0.110,0.065
6141,-0.140,0.035
6142,-0.145,0.020
6143,-0.175,0.020
6144,-0.160,0.025
6145,-0.125,0.045
6146,-0.140,0.040
6147,-0.205,0.040
6148,-0.270,0.020
6149,-0.275,0.010
6150,-0.295,0.000
6151,-0.310,0.005
6152,-0.295,0.000
6153,-0.300,0.010
6154,-0.310,0.000
6155,-0.295,0.000
6156,-0.300,0.010
6157,-0.300,0.010
6158,-0.320,0.000
6159,-0.310,-0.005
6160,-0.310,-0.010
6161,-0.305,0.000
6162,-0.290,0.005
6163,-0.265,0.000
6164,-0.200,0.015
6165,-0.090,0.055
6166,-0.210,-0.065
6167,-0.465,-0.310
6168,-0.885,-0.755
6169,-1.220,-1.145
6170,-1.460,-1.615
6171,-1.535,-1.990
6172,-1.505,-1.860
6173,-1.345,-1.520
6174,-1.265,-1.350
6175,-1.190,-1.245
6176,-1.155,-1.110
6177,-1.020,-0.955
6178,-0.835,-0.765
6179,-0.700,-0.545
6180,-0.575,-0.365
6181,-0.450,-0.230
6182,-0.295,-0.130
6183,-0.185,0.010
6184,-0.060,0.130
6185,-0.010,0.260
6186,0.020,0.320
6187,0.040,0.310
6188,0.045,0.355
6189,0.070,0.365
6190,0.070,0.370
6191,0.085,0.375
6192,0.080,0.390
6193,0.090,0.375
6194,0.100,0.385
6195,0.105,0.405
6196,0.125,0.415
6197,0.130,0.400
6198,0.135,0.410
6199,0.150,0.425
6200,0.155,0.440
6201,0.155,0.420
6202,0.155,0.445
6203,0.150,0.430
6204,0.165,0.430
6205,0.150,0.435
6206,0.135,0.450
6207,0.135,0.430
6208,0.130,0.440
6209,0.115,0.435
6210,0.110,0.415
6211,0.095,0.425
6212,0.055,0.410
6213,0.045,0.410
6214,0.020,0.370
6215,0.000,0.375
6216,-0.025,0.340
6217,-0.050,0.320
6218,-0.080,0.310
6219,-0.090,0.285
6220,-0.120,0.275
6221,-0.140,0.250
6222,-0.155,0.220
6223,-0.190,0.210
6224,-0.200,0.175
6225,-0.205,0.180
6226,-0.190,0.150
6227,-0.200,0.155
6228,-0.225,0.145
6229,-0.220,0.155
6230,-0.205,0.140
6231,-0.220,0.130
6232,-0.195,0.130
6233,-0.200,0.125
6234,-0.190,0.120
6235,-0.185,0.120
6236,-0.205,0.110
6237,-0.210,0.120
6238,-0.210,0.140
6239,-0.205,0.130
6240,-0.220,0.125
6241,-0.210,0.105
6242,-0.245,0.105
6243,-0.230,0.090
6244,-0.240,0.085
6245,-0.250,0.080
6246,-0.270,0.075
6247,-0.245,0.055
6248,-0.285,0.060
6249,-0.260,0.075
6250,-0.295,0.055
6251,-0.290,0.070
6252,-0.290,0.055
6253,-0.285,0.045
6254,-0.290,0.035
6255,-0.290,0.050
6256,-0.295,0.060
6257,-0.290,0.060
6258,-0.240,0.060
6259,-0.200,0.115
6260,-0.195,0.125
6261,-0.160,0.120
6262,-0.175,0.100
6263,-0.185,0.065
6264,-0.175,0.035
6265,-0.205,0.015
6266,-0.220,0.010
6267,-0.205,0.015
6268,-0.170,0.050
6269,-0.190,0.050
6270,-0.240,0.040
6271,-0.300,0.040
6272,-0.340,0.010
6273,-0.355,0.005
6274,-0.340,0.005
6275,-0.345,-0.005
6276,-0.345,0.000
6277,-0.340,0.000
6278,-0.345,0.000
6279,-0.360,0.000
6280,-0.345,0.000
6281,-0.355,0.000
6282,-0.350,-0.010
6283,-0.340,-0.005
6284,-0.355,-0.005
6285,-0.340,-0.005
6286,-0.310,0.010
6287,-0.220,0.010
6288,-0.120,0.030
6289,-0.265,-0.095
6290,-0.540,-0.370
6291,-0.970,-0.830
6292,-1.255,-1.195
6293,-1.450,-1.660
6294,-1.540,-2.015
6295,-1.535,-1.845
6296,-1.400,-1.525
6297,-1.310,-1.365
6298,-1.230,-1.280
6299,-1.155,-1.130
6300,-1.020,-0.955
6301,-0.855,-0.740
6302,-0.745,-0.540
6303,-0.620,-0.350
6304,-0.460,-0.220
6305,-0.315,-0.095
6306,-0.170,0.050
6307,-0.085,0.170
6308,-0.040,0.270
6309,-0.010,0.315
6310,-0.010,0.345
6311,0.000,0.345
6312,0.005,0.365
6313,0.030,0.385
6314,0.055,0.375
6315,0.055,0.390
6316,0.090,0.410
6317,0.080,0.415
6318,0.085,0.415
6319,0.110,0.425
6320,0.105,0.430
6321,0.115,0.435
6322,0.135,0.465
6323,0.120,0.450
6324,0.125,0.450
6325,0.135,0.475
6326,0.130,0.480
6327,0.130,0.470
6328,0.115,0.480
6329,0.125,0.465
6330,0.100,0.470
6331,0.095,0.460
6332,0.080,0.450
6333,0.075,0.445
6334,0.035,0.415
6335,0.005,0.400
6336,-0.010,0.405
6337,-0.005,0.370
6338,-0.040,0.360
6339,-0.055,0.340
6340,-0.075,0.320
6341,-0.115,0.305
6342,-0.130,0.270
6343,-0.180,0.260
6344,-0.175,0.240
6345,-0.200,0.225
6346,-0.215,0.205
6347,-0.205,0.180
6348,-0.230,0.175
6349,-0.235,0.155
6350,-0.230,0.150
6351,-0.220,0.155
6352,-0.235,0.145
6353,-0.250,0.140
6354,-0.210,0.140
6355,-0.205,0.140
6356,-0.195,0.145
6357,-0.205,0.150
6358,-0.200,0.135
6359,-0.210,0.135
6360,-0.230,0.145
6361,-0.235,0.125
6362,-0.240,0.130
6363,-0.220,0.120
6364,-0.235,0.110
6365,-0.250,0.105
6366,-0.250,0.100
6367,-0.265,0.090
6368,-0.255,0.085
6369,-0.265,0.080
6370,-0.275,0.070
6371,-0.270,0.080
6372,-0.280,0.085
6373,-0.265,0.065
6374,-0.265,0.060
6375,-0.285,0.060
6376,-0.260,0.070
6377,-0.280,0.070
6378,-0.275,0.045
6379,-0.275,0.065
6380,-0.260,0.055
6381,-0.270,0.045
6382,-0.260,0.065
6383,-0.230,0.070
6384,-0.200,0.130
6385,-0.170,0.140
6386,-0.155,0.110
6387,-0.180,0.075
6388,-0.200,0.055
6389,-0.205,0.045
6390,-0.230,0.020
6391,-0.210,0.010
6392,-0.185,0.035
6393,-0.160,0.065
6394,-0.195,0.045
6395,-0.285,0.035
6396,-0.320,0.015
6397,-0.335,0.020
6398,-0.345,0.000
6399,-0.340,0.000
6400,-0.360,-0.005
6401,-0.355,0.005
6402,-0.360,0.000
6403,-0.365,-0.005
6404,-0.365,0.005
6405,-0.340,0.005
6406,-0.345,0.000
6407,-0.345,-0.010
6408,-0.345,-0.005
6409,-0.340,-0.010
6410,-0.345,0.000
6411,-0.295,0.010
6412,-0.165,0.050
6413,-0.195,0.010
6414,-0.380,-0.265
6415,-0.780,-0.655
6416,-1.120,-1.110
6417,-1.350,-1.515
6418,-1.485,-1.955
6419,-1.510,-2.025
6420,-1.435,-1.675
6421,-1.330,-1.460
6422,-1.250,-1.350
6423,-1.180,-1.215
6424,-1.110,-1.055
6425,-0.935,-0.870
6426,-0.795,-0.650
6427,-0.695,-0.445
6428,-0.545,-0.300
6429,-0.390,-0.145
6430,-0.245,-0.025
6431,-0.140,0.110
6432,-0.065,0.235
6433,-0.015,0.330
6434,-0.005,0.335
6435,0.000,0.365
6436,0.020,0.375
6437,0.035,0.380
6438,0.050,0.390
6439,0.070,0.375
6440,0.070,0.380
6441,0.080,0.385
6442,0.080,0.415
6443,0.080,0.395
6444,0.080,0.430
6445,0.085,0.420
6446,0.090,0.455
6447,0.095,0.440
6448,0.100,0.440
6449,0.105,0.465
6450,0.110,0.475
6451,0.110,0.475
6452,0.100,0.470
6453,0.100,0.465
6454,0.110,0.450
6455,0.085,0.450
6456,0.075,0.435
6457,0.050,0.435
6458,0.025,0.420
6459,-0.005,0.400
6460,-0.005,0.375
6461,-0.045,0.365
6462,-0.045,0.355
6463,-0.085,0.345
6464,-0.105,0.320
6465,-0.145,0.310
6466,-0.165,0.280
6467,-0.190,0.260
6468,-0.205,0.245
6469,-0.220,0.235
6470,-0.240,0.220
6471,-0.240,0.210
6472,-0.260,0.190
6473,-0.270,0.175
6474,-0.275,0.170
6475,-0.280,0.180
6476,-0.275,0.180
6477,-0.275,0.170
6478,-0.265,0.165
6479,-0.255,0.170
6480,-0.255,0.165
6481,-0.255,0.165
6482,-0.265,0.155
6483,-0.255,0.170
6484,-0.270,0.140
6485,-0.280,0.145
6486,-0.265,0.150
6487,-0.260,0.135
6488,-0.270,0.140
6489,-0.280,0.125
6490,-0.275,0.115
6491,-0.305,0.095
6492,-0.305,0.090
6493,-0.315,0.100
6494,-0.315,0.090
6495,-0.310,0.090
6496,-0.315,0.085
6497,-0.315,0.075
6498,-0.330,0.075
6499,-0.320,0.085
6500,-0.315,0.065
6501,-0.315,0.085
6502,-0.315,0.090
6503,-0.315,0.075
6504,-0.300,0.060
6505,-0.315,0.080
6506,-0.270,0.090
6507,-0.255,0.125
6508,-0.225,0.160
6509,-0.215,0.140
6510,-0.210,0.125
6511,-0.225,0.070
6512,-0.235,0.060
6513,-0.235,0.045
6514,-0.260,0.025
6515,-0.255,0.015
6516,-0.230,0.050
6517,-0.220,0.060
6518,-0.235,0.060
6519,-0.325,0.045
6520,-0.375,0.045
6521,-0.370,0.035
6522,-0.385,0.010
6523,-0.385,0.040
6524,-0.395,0.020
6525,-0.380,0.035
6526,-0.385,0.030
6527,-0.405,0.025
6528,-0.390,0.025
6529,-0.390,0.005
6530,-0.400,0.025
6531,-0.395,0.015
6532,-0.395,0.015
6533,-0.400,0.015
6534,-0.375,0.000
6535,-0.310,0.005
6536,-0.175,0.045
6537,-0.240,0.000
6538,-0.460,-0.255
6539,-0.845,-0.620
6540,-1.195,-1.075
6541,-1.420,-1.490
6542,-1.565,-1.900
6543,-1.565,-2.005
6544,-1.505,-1.670
6545,-1.380,-1.450
6546,-1.310,-1.325
6547,-1.255,-1.180
6548,-1.170,-1.035
6549,-0.990,-0.835
6550,-0.865,-0.615
6551,-0.715,-0.430
6552,-0.595,-0.275
6553,-0.435,-0.145
6554,-0.305,-0.015
6555,-0.200,0.135
6556,-0.110,0.255
6557,-0.095,0.305
6558,-0.070,0.345
6559,-0.070,0.360
6560,-0.045,0.365
6561,-0.025,0.375
6562,-0.030,0.400
6563,-0.010,0.400
6564,0.010,0.395
6565,0.000,0.410
6566,0.015,0.405
6567,0.015,0.400
6568,0.040,0.420
6569,0.030,0.425
6570,0.025,0.445
6571,0.055,0.465
6572,0.035,0.480
6573,0.030,0.470
6574,0.035,0.460
6575,0.035,0.470
6576,0.045,0.465
6577,0.020,0.445
6578,0.010,0.440
6579,0.005,0.435
6580,0.000,0.435
6581,-0.015,0.435
6582,-0.025,0.410
6583,-0.055,0.415
6584,-0.070,0.390
6585,-0.110,0.385
6586,-0.125,0.360
6587,-0.155,0.325
6588,-0.180,0.310
6589,-0.215,0.300
6590,-0.230,0.265
6591,-0.265,0.255
6592,-0.295,0.230
6593,-0.295,0.215
6594,-0.315,0.205
6595,-0.335,0.185
6596,-0.340,0.175
6597,-0.335,0.175
6598,-0.330,0.170
6599,-0.335,0.175
6600,-0.325,0.150
6601,-0.320,0.155
6602,-0.310,0.145
6603,-0.310,0.165
6604,-0.295,0.165
6605,-0.290,0.155
6606,-0.285,0.160
6607,-0.290,0.155
6608,-0.280,0.155
6609,-0.300,0.145
6610,-0.290,0.145
6611,-0.305,0.110
6612,-0.300,0.130
6613,-0.305,0.130
6614,-0.295,0.125
6615,-0.305,0.125
6616,-0.310,0.090
6617,-0.320,0.105
6618,-0.325,0.095
6619,-0.320,0.105
6620,-0.345,0.080
6621,-0.355,0.085
6622,-0.350,0.080
6623,-0.355,0.075
6624,-0.345,0.080
6625,-0.345,0.075
6626,-0.355,0.075
6627,-0.345,0.070
6628,-0.345,0.095
6629,-0.305,0.095
6630,-0.295,0.130
6631,-0.285,0.150
6632,-0.270,0.145
6633,-0.260,0.145
6634,-0.240,0.140
6635,-0.260,0.095
6636,-0.265,0.070
6637,-0.280,0.060
6638,-0.305,0.045
6639,-0.280,0.050
6640,-0.225,0.085
6641,-0.275,0.075
6642,-0.325,0.065
6643,-0.370,0.050
6644,-0.410,0.035
6645,-0.410,0.025
6646,-0.400,0.030
6647,-0.425,0.030
6648,-0.420,0.020
6649,-0.410,0.040
6650,-0.395,0.030
6651,-0.405,0.025
6652,-0.430,0.045
6653,-0.385,0.030
6654,-0.380,0.050
6655,-0.425,0.025
6656,-0.400,0.030
6657,-0.405,0.020
6658,-0.400,0.035
6659,-0.350,0.045
6660,-0.220,0.065
6661,-0.250,0.060
6662,-0.425,-0.170
6663,-0.765,-0.475
6664,-1.150,-0.925
6665,-1.420,-1.310
6666,-1.600,-1.740
6667,-1.655,-1.985
6668,-1.595,-1.745
6669,-1.445,-1.470
6670,-1.360,-1.305
6671,-1.265,-1.205
6672,-1.230,-1.060
6673,-1.100,-0.890
6674,-0.925,-0.710
6675,-0.790,-0.505
6676,-0.690,-0.335
6677,-0.515,-0.190
6678,-0.400,-0.080
6679,-0.280,0.050
6680,-0.175,0.175
6681,-0.115,0.275
6682,-0.085,0.325
6683,-0.070,0.365
6684,-0.060,0.380
6685,-0.035,0.400
6686,-0.025,0.395
6687,-0.015,0.410
6688,0.000,0.420
6689,0.000,0.420
6690,0.000,0.430
6691,0.015,0.445
6692,0.005,0.435
6693,0.035,0.440
6694,0.040,0.465
6695,0.050,0.480
6696,0.050,0.480
6697,0.055,0.505
6698,0.065,0.500
6699,0.060,0.485
6700,0.055,0.505
6701,0.055,0.495
6702,0.055,0.505
6703,0.050,0.495
6704,0.030,0.495
6705,0.020,0.500
6706,0.005,0.475
6707,-0.005,0.460
6708,-0.015,0.470
6709,-0.045,0.430
6710,-0.065,0.435
6711,-0.105,0.400
6712,-0.110,0.385
6713,-0.130,0.350
6714,-0.175,0.315
6715,-0.200,0.315
6716,-0.220,0.290
6717,-0.245,0.265
6718,-0.255,0.245
6719,-0.280,0.215
6720,-0.320,0.215
6721,-0.330,0.195
6722,-0.310,0.180
6723,-0.315,0.165
6724,-0.315,0.170
6725,-0.310,0.160
6726,-0.310,0.165
6727,-0.305,0.170
6728,-0.310,0.150
6729,-0.300,0.150
6730,-0.295,0.155
6731,-0.285,0.165
6732,-0.295,0.170
6733,-0.285,0.170
6734,-0.280,0.155
6735,-0.300,0.170
6736,-0.290,0.145
6737,-0.290,0.155
6738,-0.300,0.155
6739,-0.305,0.140
6740,-0.315,0.130
6741,-0.310,0.140
6742,-0.315,0.115
6743,-0.325,0.130
6744,-0.325,0.105
6745,-0.320,0.120
6746,-0.335,0.105
6747,-0.340,0.110
6748,-0.335,0.105
6749,-0.350,0.110
6750,-0.355,0.100
6751,-0.350,0.090
6752,-0.355,0.080
6753,-0.355,0.080
