'sample interval','ECG0','ECG1'
'0.0078125 sec','mV','mV'
0,-0.115,0.220
1,-0.105,0.215
2,-0.095,0.260
3,-0.085,0.250
4,-0.075,0.285
5,-0.065,0.295
6,-0.050,0.300
7,-0.035,0.310
8,-0.045,0.325
9,-0.025,0.325
10,-0.010,0.315
11,0.000,0.335
12,0.000,0.355
13,0.025,0.355
14,0.015,0.365
15,0.015,0.375
16,0.035,0.370
17,0.025,0.390
18,0.025,0.380
19,0.010,0.375
20,0.015,0.365
21,0.005,0.380
22,-0.005,0.375
23,0.005,0.360
24,-0.015,0.370
25,-0.030,0.360
26,-0.030,0.365
27,-0.055,0.345
28,-0.055,0.325
29,-0.090,0.290
30,-0.110,0.280
31,-0.120,0.260
32,-0.140,0.235
33,-0.150,0.220
34,-0.180,0.205
35,-0.190,0.170
36,-0.215,0.145
37,-0.215,0.110
38,-0.240,0.080
39,-0.275,0.065
40,-0.270,0.050
41,-0.290,0.030
42,-0.280,0.010
43,-0.285,0.010
44,-0.265,0.005
45,-0.275,0.000
46,-0.280,-0.010
47,-0.270,0.015
48,-0.260,0.000
49,-0.245,-0.005
50,-0.240,-0.005
51,-0.245,-0.030
52,-0.240,-0.015
53,-0.245,-0.010
54,-0.235,-0.045
55,-0.250,-0.035
56,-0.230,-0.030
57,-0.250,-0.045
58,-0.235,-0.045
59,-0.245,-0.065
60,-0.265,-0.090
61,-0.260,-0.060
62,-0.290,-0.085
63,-0.280,-0.080
64,-0.290,-0.120
65,-0.285,-0.115
66,-0.290,-0.115
67,-0.300,-0.110
68,-0.310,-0.105
69,-0.310,-0.130
70,-0.305,-0.115
71,-0.305,-0.120
72,-0.315,-0.115
73,-0.310,-0.125
74,-0.310,-0.130
75,-0.300,-0.115
76,-0.265,-0.105
77,-0.245,-0.070
78,-0.220,-0.035
79,-0.200,-0.045
80,-0.210,-0.075
81,-0.230,-0.095
82,-0.235,-0.110
83,-0.220,-0.130
84,-0.265,-0.155
85,-0.250,-0.130
86,-0.210,-0.110
87,-0.225,-0.085
88,-0.290,-0.105
89,-0.335,-0.145
90,-0.360,-0.140
91,-0.380,-0.150
92,-0.375,-0.150
93,-0.370,-0.165
94,-0.365,-0.160
95,-0.355,-0.160
96,-0.370,-0.150
97,-0.365,-0.140
98,-0.370,-0.145
99,-0.360,-0.140
100,-0.360,-0.155
101,-0.370,-0.150
102,-0.355,-0.150
103,-0.350,-0.145
104,-0.310,-0.150
105,-0.195,-0.100
106,-0.160,-0.045
107,-0.230,-0.300
108,-0.410,-0.635
109,-0.660,-1.185
110,-0.885,-1.585
111,-1.020,-2.085
112,-1.105,-2.390
113,-1.160,-2.175
114,-1.090,-1.845
115,-0.970,-1.650
116,-0.855,-1.525
117,-0.805,-1.370
118,-0.735,-1.210
119,-0.665,-0.995
120,-0.625,-0.790
121,-0.580,-0.570
122,-0.505,-0.395
123,-0.375,-0.260
124,-0.220,-0.110
125,-0.170,0.025
126,-0.140,0.140
127,-0.095,0.220
128,-0.090,0.245
129,-0.065,0.260
130,-0.050,0.300
131,-0.060,0.300
132,-0.045,0.295
133,-0.050,0.310
134,-0.035,0.305
135,-0.020,0.345
136,-0.005,0.360
137,-0.005,0.355
138,0.005,0.355
139,0.020,0.365
140,0.020,0.365
141,0.030,0.375
142,0.040,0.390
143,0.055,0.390
144,0.050,0.400
145,0.045,0.400
146,0.030,0.415
147,0.050,0.395
148,0.015,0.395
149,0.005,0.395
150,0.005,0.380
151,-0.005,0.380
152,0.000,0.385
153,-0.025,0.355
154,-0.020,0.340
155,-0.045,0.315
156,-0.060,0.300
157,-0.075,0.280
158,-0.100,0.260
159,-0.125,0.240
160,-0.130,0.225
161,-0.170,0.185
162,-0.180,0.160
163,-0.195,0.145
164,-0.210,0.100
165,-0.230,0.085
166,-0.250,0.075
167,-0.255,0.060
168,-0.270,0.040
169,-0.260,0.030
170,-0.285,0.010
171,-0.270,0.010
172,-0.260,0.005
173,-0.240,0.000
174,-0.255,0.000
175,-0.240,0.000
176,-0.230,0.000
177,-0.225,-0.020
178,-0.230,-0.010
179,-0.215,-0.005
180,-0.215,0.000
181,-0.215,0.000
182,-0.220,-0.025
183,-0.225,-0.010
184,-0.220,-0.020
185,-0.235,-0.030
186,-0.250,-0.045
187,-0.270,-0.045
188,-0.270,-0.080
189,-0.270,-0.070
190,-0.255,-0.085
191,-0.280,-0.080
192,-0.280,-0.075
193,-0.270,-0.100
194,-0.280,-0.115
195,-0.295,-0.120
196,-0.290,-0.115
197,-0.290,-0.105
198,-0.310,-0.120
199,-0.300,-0.125
200,-0.305,-0.105
201,-0.300,-0.115
202,-0.300,-0.115
203,-0.275,-0.100
204,-0.245,-0.090
205,-0.235,-0.040
206,-0.225,-0.025
207,-0.210,-0.050
208,-0.210,-0.080
209,-0.230,-0.105
210,-0.240,-0.130
211,-0.265,-0.150
212,-0.260,-0.160
213,-0.235,-0.150
214,-0.195,-0.100
215,-0.220,-0.080
216,-0.300,-0.120
217,-0.340,-0.145
218,-0.350,-0.135
219,-0.380,-0.155
220,-0.355,-0.150
221,-0.380,-0.150
222,-0.380,-0.145
223,-0.360,-0.155
224,-0.370,-0.145
225,-0.355,-0.150
226,-0.365,-0.135
227,-0.365,-0.135
228,-0.375,-0.140
229,-0.355,-0.135
230,-0.365,-0.130
231,-0.340,-0.145
232,-0.295,-0.130
233,-0.180,-0.075
234,-0.145,-0.055
235,-0.240,-0.360
236,-0.470,-0.750
237,-0.720,-1.295
238,-0.930,-1.755
239,-1.045,-2.260
240,-1.120,-2.455
241,-1.150,-2.130
242,-1.030,-1.815
243,-0.925,-1.650
244,-0.840,-1.505
245,-0.805,-1.325
246,-0.720,-1.160
247,-0.665,-0.935
248,-0.625,-0.705
249,-0.585,-0.540
250,-0.480,-0.380
251,-0.350,-0.260
252,-0.235,-0.090
253,-0.155,0.050
254,-0.125,0.170
255,-0.100,0.235
256,-0.085,0.255
257,-0.075,0.270
258,-0.055,0.300
259,-0.060,0.320
260,-0.035,0.305
261,-0.030,0.315
262,-0.010,0.340
263,-0.010,0.345
264,0.005,0.345
265,0.030,0.360
266,0.025,0.370
267,0.035,0.395
268,0.025,0.390
269,0.040,0.395
270,0.040,0.400
271,0.055,0.395
272,0.070,0.395
273,0.070,0.395
274,0.065,0.405
275,0.050,0.395
276,0.035,0.390
277,0.020,0.390
278,0.020,0.390
279,0.010,0.360
280,0.000,0.360
281,-0.005,0.340
282,-0.040,0.325
283,-0.035,0.295
284,-0.045,0.295
285,-0.075,0.270
286,-0.085,0.240
287,-0.105,0.235
288,-0.130,0.200
289,-0.150,0.170
290,-0.175,0.130
291,-0.190,0.115
292,-0.200,0.110
293,-0.220,0.085
294,-0.240,0.055
295,-0.270,0.040
296,-0.260,0.030
297,-0.280,0.040
298,-0.255,0.015
299,-0.255,0.000
300,-0.270,0.005
301,-0.250,0.010
302,-0.255,-0.005
303,-0.240,-0.020
304,-0.230,0.000
305,-0.225,0.000
306,-0.225,-0.005
307,-0.220,-0.015
308,-0.230,-0.020
309,-0.225,-0.020
310,-0.215,-0.015
311,-0.225,-0.015
312,-0.240,-0.035
313,-0.240,-0.045
314,-0.265,-0.065
315,-0.245,-0.080
316,-0.275,-0.085
317,-0.270,-0.090
318,-0.280,-0.105
319,-0.295,-0.105
320,-0.285,-0.090
321,-0.290,-0.125
322,-0.300,-0.100
323,-0.295,-0.120
324,-0.285,-0.125
325,-0.300,-0.130
326,-0.295,-0.120
327,-0.310,-0.125
328,-0.305,-0.130
329,-0.295,-0.125
330,-0.265,-0.105
331,-0.235,-0.080
332,-0.210,-0.055
333,-0.195,-0.030
334,-0.190,-0.070
335,-0.210,-0.090
336,-0.215,-0.120
337,-0.215,-0.135
338,-0.245,-0.160
339,-0.250,-0.170
340,-0.225,-0.130
341,-0.210,-0.090
342,-0.245,-0.130
343,-0.340,-0.140
344,-0.375,-0.170
345,-0.360,-0.155
346,-0.355,-0.170
347,-0.355,-0.170
348,-0.370,-0.155
349,-0.360,-0.160
350,-0.380,-0.160
351,-0.365,-0.175
352,-0.375,-0.160
353,-0.355,-0.150
354,-0.355,-0.170
355,-0.350,-0.175
356,-0.365,-0.155
357,-0.360,-0.165
358,-0.325,-0.140
359,-0.200,-0.100
360,-0.150,-0.075
361,-0.245,-0.335
362,-0.450,-0.690
363,-0.705,-1.285
364,-0.895,-1.705
365,-1.010,-2.230
366,-1.105,-2.500
367,-1.130,-2.160
368,-1.025,-1.830
369,-0.905,-1.620
370,-0.830,-1.495
371,-0.780,-1.325
372,-0.715,-1.135
373,-0.655,-0.920
374,-0.610,-0.690
375,-0.545,-0.505
376,-0.440,-0.345
377,-0.295,-0.230
378,-0.200,-0.075
379,-0.140,0.065
380,-0.110,0.195
381,-0.095,0.240
382,-0.085,0.240
383,-0.070,0.260
384,-0.060,0.290
385,-0.045,0.295
386,-0.050,0.305
387,-0.035,0.300
388,-0.020,0.310
389,0.005,0.320
390,0.025,0.345
391,0.025,0.355
392,0.035,0.370
393,0.035,0.360
394,0.045,0.375
395,0.070,0.380
396,0.050,0.390
397,0.060,0.405
398,0.045,0.405
399,0.070,0.385
400,0.045,0.395
401,0.035,0.405
402,0.050,0.380
403,0.035,0.380
404,0.015,0.380
405,0.005,0.380
406,0.005,0.355
407,-0.025,0.335
408,-0.020,0.305
409,-0.040,0.290
410,-0.050,0.270
411,-0.070,0.255
412,-0.085,0.235
413,-0.120,0.205
414,-0.135,0.190
415,-0.145,0.160
416,-0.170,0.130
417,-0.195,0.095
418,-0.220,0.090
419,-0.230,0.075
420,-0.250,0.050
421,-0.255,0.045
422,-0.245,0.035
423,-0.265,0.025
424,-0.255,0.025
425,-0.250,0.005
426,-0.230,0.020
427,-0.230,0.005
428,-0.225,0.000
429,-0.225,-0.010
430,-0.215,0.000
431,-0.210,0.000
432,-0.195,0.000
433,-0.205,-0.010
434,-0.210,0.000
435,-0.205,-0.030
436,-0.220,-0.030
437,-0.230,-0.020
438,-0.235,-0.045
439,-0.235,-0.050
440,-0.235,-0.060
441,-0.230,-0.065
442,-0.245,-0.080
443,-0.260,-0.095
444,-0.255,-0.105
445,-0.275,-0.085
446,-0.285,-0.085
447,-0.290,-0.105
448,-0.285,-0.105
449,-0.285,-0.105
450,-0.290,-0.110
451,-0.295,-0.135
452,-0.280,-0.135
453,-0.305,-0.125
454,-0.290,-0.130
455,-0.260,-0.110
456,-0.250,-0.075
457,-0.225,-0.050
458,-0.215,-0.040
459,-0.185,-0.040
460,-0.205,-0.095
461,-0.210,-0.120
462,-0.220,-0.130
463,-0.240,-0.160
464,-0.235,-0.170
465,-0.210,-0.145
466,-0.200,-0.135
467,-0.215,-0.130
468,-0.275,-0.135
469,-0.320,-0.160
470,-0.345,-0.150
471,-0.360,-0.160
472,-0.345,-0.160
473,-0.360,-0.160
474,-0.350,-0.150
475,-0.345,-0.160
476,-0.345,-0.155
477,-0.340,-0.160
478,-0.335,-0.155
479,-0.320,-0.165
480,-0.325,-0.160
481,-0.325,-0.165
482,-0.315,-0.150
483,-0.310,-0.165
484,-0.270,-0.145
485,-0.150,-0.100
486,-0.135,-0.080
487,-0.235,-0.390
488,-0.480,-0.805
489,-0.740,-1.355
490,-0.895,-1.790
491,-1.020,-2.325
492,-1.085,-2.480
493,-1.060,-2.095
494,-0.955,-1.785
495,-0.845,-1.600
496,-0.775,-1.475
497,-0.760,-1.305
498,-0.680,-1.120
499,-0.620,-0.915
500,-0.595,-0.695
501,-0.525,-0.500
502,-0.415,-0.360
503,-0.280,-0.220
504,-0.160,-0.065
505,-0.120,0.060
506,-0.090,0.170
507,-0.075,0.220
508,-0.035,0.235
509,-0.045,0.255
510,-0.045,0.280
511,-0.025,0.300
512,-0.020,0.275
513,0.000,0.310
514,0.000,0.340
515,0.010,0.340
516,0.025,0.340
517,0.015,0.355
518,0.055,0.360
519,0.050,0.370
520,0.070,0.385
521,0.075,0.375
522,0.080,0.405
523,0.080,0.400
524,0.085,0.415
525,0.075,0.430
526,0.075,0.435
527,0.065,0.410
528,0.060,0.420
529,0.055,0.405
530,0.070,0.385
531,0.065,0.365
532,0.025,0.375
533,0.000,0.355
534,-0.005,0.355
535,0.000,0.330
536,-0.030,0.305
537,-0.045,0.280
538,-0.060,0.265
539,-0.080,0.240
540,-0.100,0.205
541,-0.125,0.190
542,-0.140,0.165
543,-0.155,0.145
544,-0.180,0.135
545,-0.205,0.115
546,-0.215,0.095
547,-0.230,0.070
548,-0.235,0.060
549,-0.225,0.035
550,-0.250,0.040
551,-0.235,0.015
552,-0.235,0.010
553,-0.230,0.015
554,-0.220,0.010
555,-0.200,0.020
556,-0.210,0.005
557,-0.180,0.010
558,-0.200,0.005
559,-0.190,0.005
560,-0.185,0.020
561,-0.175,0.010
562,-0.210,0.000
563,-0.200,-0.005
564,-0.200,-0.010
565,-0.205,-0.010
566,-0.220,-0.015
567,-0.210,-0.025
568,-0.205,-0.020
569,-0.220,-0.050
570,-0.230,-0.050
571,-0.240,-0.075
572,-0.230,-0.055
573,-0.245,-0.075
574,-0.225,-0.090
575,-0.250,-0.075
576,-0.265,-0.085
577,-0.255,-0.085
578,-0.250,-0.110
579,-0.240,-0.095
580,-0.245,-0.120
581,-0.240,-0.105
582,-0.230,-0.095
583,-0.210,-0.075
584,-0.195,-0.030
585,-0.165,-0.010
586,-0.160,-0.035
587,-0.165,-0.055
588,-0.180,-0.080
589,-0.195,-0.110
590,-0.200,-0.135
591,-0.215,-0.140
592,-0.200,-0.135
593,-0.165,-0.095
594,-0.185,-0.090
595,-0.255,-0.100
596,-0.300,-0.120
597,-0.320,-0.095
598,-0.320,-0.130
599,-0.305,-0.135
600,-0.315,-0.130
601,-0.315,-0.135
602,-0.320,-0.125
603,-0.330,-0.125
604,-0.325,-0.120
605,-0.320,-0.130
606,-0.335,-0.125
607,-0.330,-0.135
608,-0.325,-0.145
609,-0.330,-0.150
610,-0.305,-0.130
611,-0.300,-0.135
612,-0.235,-0.115
613,-0.110,-0.030
614,-0.180,-0.150
615,-0.285,-0.455
616,-0.555,-0.905
617,-0.795,-1.415
618,-0.940,-1.845
619,-1.055,-2.310
620,-1.150,-2.395
621,-1.065,-1.975
622,-0.920,-1.675
623,-0.815,-1.525
624,-0.785,-1.390
625,-0.750,-1.230
626,-0.670,-1.050
627,-0.585,-0.825
628,-0.545,-0.610
629,-0.480,-0.425
630,-0.370,-0.300
631,-0.250,-0.185
632,-0.165,-0.050
633,-0.125,0.090
634,-0.080,0.185
635,-0.050,0.210
636,-0.060,0.235
637,-0.045,0.250
638,-0.030,0.255
639,-0.025,0.285
640,-0.010,0.285
641,0.010,0.295
642,0.000,0.320
643,0.030,0.335
644,0.025,0.345
645,0.045,0.335
646,0.060,0.335
647,0.050,0.340
648,0.070,0.360
649,0.100,0.365
650,0.090,0.355
651,0.095,0.385
652,0.105,0.370
653,0.095,0.370
654,0.080,0.405
655,0.085,0.380
656,0.070,0.365
657,0.075,0.370
658,0.070,0.355
659,0.060,0.355
660,0.010,0.330
661,0.005,0.315
662,-0.020,0.295
663,-0.045,0.275
664,-0.050,0.265
665,-0.075,0.245
666,-0.085,0.200
667,-0.115,0.195
668,-0.135,0.160
669,-0.140,0.150
670,-0.175,0.140
671,-0.195,0.100
672,-0.215,0.085
673,-0.220,0.055
674,-0.230,0.060
675,-0.245,0.020
676,-0.240,0.010
677,-0.230,0.000
678,-0.230,0.010
679,-0.215,0.000
680,-0.205,-0.005
681,-0.235,0.000
682,-0.210,-0.020
683,-0.185,-0.005
684,-0.190,0.000
685,-0.200,0.000
686,-0.200,-0.015
687,-0.190,-0.010
688,-0.160,0.000
689,-0.185,-0.020
690,-0.190,-0.020
691,-0.190,-0.025
692,-0.205,-0.030
693,-0.205,-0.055
694,-0.205,-0.045
695,-0.220,-0.045
696,-0.220,-0.050
697,-0.225,-0.070
698,-0.230,-0.065
699,-0.240,-0.080
700,-0.255,-0.085
701,-0.245,-0.090
702,-0.225,-0.100
703,-0.240,-0.090
704,-0.240,-0.110
705,-0.250,-0.130
706,-0.265,-0.095
707,-0.255,-0.105
708,-0.235,-0.110
709,-0.230,-0.075
710,-0.190,-0.055
711,-0.170,-0.020
712,-0.160,-0.020
713,-0.155,-0.060
714,-0.160,-0.095
715,-0.170,-0.095
716,-0.180,-0.125
717,-0.210,-0.145
718,-0.195,-0.140
719,-0.150,-0.115
720,-0.165,-0.115
721,-0.215,-0.100
722,-0.265,-0.135
723,-0.305,-0.140
724,-0.315,-0.155
725,-0.320,-0.165
726,-0.315,-0.170
727,-0.320,-0.145
728,-0.315,-0.150
729,-0.305,-0.145
730,-0.310,-0.140
731,-0.310,-0.145
732,-0.320,-0.135
733,-0.310,-0.140
734,-0.325,-0.135
735,-0.315,-0.140
736,-0.310,-0.155
737,-0.295,-0.130
738,-0.225,-0.120
739,-0.125,-0.055
740,-0.195,-0.210
741,-0.350,-0.535
742,-0.630,-1.040
743,-0.840,-1.495
744,-0.970,-1.925
745,-1.095,-2.325
746,-1.160,-2.160
747,-1.045,-1.785
748,-0.900,-1.550
749,-0.785,-1.430
750,-0.775,-1.290
751,-0.710,-1.155
752,-0.605,-0.950
753,-0.545,-0.730
754,-0.505,-0.525
755,-0.425,-0.375
756,-0.295,-0.250
757,-0.185,-0.115
758,-0.130,0.020
759,-0.090,0.140
760,-0.060,0.195
761,-0.050,0.220
762,-0.030,0.225
763,-0.030,0.260
764,-0.010,0.260
765,-0.010,0.290
766,0.005,0.295
767,0.005,0.290
768,0.035,0.305
769,0.045,0.340
770,0.050,0.330
771,0.065,0.345
772,0.060,0.360
773,0.070,0.355
774,0.090,0.385
775,0.095,0.365
776,0.085,0.380
777,0.090,0.400
778,0.095,0.410
779,0.095,0.390
780,0.095,0.405
781,0.085,0.420
782,0.090,0.390
783,0.075,0.400
784,0.070,0.390
785,0.040,0.380
786,0.040,0.365
787,0.030,0.345
788,-0.005,0.330
789,-0.015,0.330
790,-0.030,0.280
791,-0.050,0.265
792,-0.070,0.250
793,-0.090,0.225
794,-0.120,0.195
795,-0.135,0.175
796,-0.145,0.150
797,-0.175,0.120
798,-0.185,0.105
799,-0.185,0.095
800,-0.190,0.070
801,-0.195,0.065
802,-0.190,0.055
803,-0.185,0.040
804,-0.195,0.040
805,-0.185,0.030
806,-0.160,0.030
807,-0.165,0.020
808,-0.175,0.030
809,-0.150,0.020
810,-0.165,0.045
811,-0.150,0.035
812,-0.150,0.015
813,-0.145,0.020
814,-0.150,0.005
815,-0.170,0.000
816,-0.155,0.010
817,-0.160,0.000
818,-0.165,-0.010
819,-0.180,-0.035
820,-0.175,-0.005
821,-0.180,-0.030
822,-0.185,-0.035
823,-0.195,-0.040
824,-0.190,-0.050
825,-0.205,-0.055
826,-0.220,-0.075
827,-0.190,-0.050
828,-0.200,-0.065
829,-0.215,-0.065
830,-0.225,-0.070
831,-0.200,-0.060
832,-0.210,-0.080
833,-0.210,-0.090
834,-0.215,-0.070
835,-0.180,-0.045
836,-0.155,-0.035
837,-0.130,-0.005
838,-0.115,-0.015
839,-0.120,-0.045
840,-0.140,-0.065
841,-0.145,-0.085
842,-0.155,-0.120
843,-0.175,-0.130
844,-0.155,-0.115
845,-0.120,-0.100
846,-0.155,-0.080
847,-0.185,-0.095
848,-0.240,-0.120
849,-0.280,-0.110
850,-0.285,-0.130
851,-0.285,-0.150
852,-0.270,-0.145
853,-0.285,-0.125
854,-0.285,-0.120
855,-0.285,-0.125
856,-0.290,-0.145
857,-0.305,-0.135
858,-0.290,-0.125
859,-0.280,-0.105
860,-0.295,-0.135
861,-0.280,-0.115
862,-0.270,-0.120
863,-0.235,-0.120
864,-0.150,-0.080
865,-0.085,-0.030
866,-0.160,-0.225
867,-0.315,-0.570
868,-0.585,-1.115
869,-0.795,-1.550
870,-0.895,-2.005
871,-0.985,-2.405
872,-1.060,-2.170
873,-0.970,-1.800
874,-0.860,-1.585
875,-0.770,-1.455
876,-0.750,-1.305
877,-0.685,-1.140
878,-0.590,-0.895
879,-0.555,-0.695
880,-0.500,-0.515
881,-0.410,-0.355
882,-0.295,-0.235
883,-0.175,-0.100
884,-0.115,0.045
885,-0.055,0.175
886,-0.040,0.235
887,-0.015,0.255
888,-0.005,0.275
889,0.000,0.310
890,0.010,0.325
891,0.005,0.340
892,0.015,0.350
893,0.025,0.360
894,0.045,0.365
895,0.065,0.385
896,0.055,0.370
897,0.090,0.385
898,0.085,0.390
899,0.095,0.410
900,0.105,0.425
901,0.100,0.415
902,0.105,0.425
903,0.115,0.445
904,0.135,0.450
905,0.120,0.455
906,0.130,0.435
907,0.115,0.450
908,0.110,0.450
909,0.105,0.435
910,0.090,0.420
911,0.065,0.420
912,0.065,0.400
913,0.060,0.400
914,0.045,0.365
915,0.015,0.355
916,0.000,0.355
917,-0.005,0.300
918,-0.030,0.290
919,-0.055,0.275
920,-0.065,0.250
921,-0.075,0.230
922,-0.095,0.180
923,-0.125,0.175
924,-0.140,0.140
925,-0.155,0.135
926,-0.165,0.135
927,-0.175,0.125
928,-0.165,0.110
929,-0.150,0.085
930,-0.165,0.100
931,-0.155,0.090
932,-0.160,0.080
933,-0.165,0.090
934,-0.155,0.095
935,-0.140,0.095
936,-0.155,0.075
937,-0.125,0.060
938,-0.130,0.080
939,-0.130,0.055
940,-0.130,0.055
941,-0.135,0.050
942,-0.140,0.045
943,-0.140,0.035
944,-0.160,0.025
945,-0.175,0.025
946,-0.165,0.010
947,-0.170,0.000
948,-0.190,0.000
949,-0.185,0.000
950,-0.200,-0.010
951,-0.205,0.000
952,-0.205,-0.010
953,-0.195,-0.005
954,-0.205,-0.020
955,-0.210,-0.010
956,-0.215,-0.010
957,-0.215,-0.020
958,-0.225,-0.020
959,-0.200,-0.030
960,-0.200,-0.035
961,-0.195,-0.020
962,-0.165,-0.005
963,-0.145,0.005
964,-0.140,0.040
965,-0.115,0.030
966,-0.115,0.035
967,-0.135,0.000
968,-0.145,-0.015
969,-0.145,-0.055
970,-0.175,-0.080
971,-0.175,-0.060
972,-0.125,-0.050
973,-0.130,-0.020
974,-0.180,-0.030
975,-0.225,-0.060
976,-0.265,-0.080
977,-0.280,-0.085
978,-0.290,-0.075
979,-0.285,-0.110
980,-0.280,-0.075
981,-0.280,-0.080
982,-0.290,-0.110
983,-0.270,-0.095
984,-0.275,-0.090
985,-0.260,-0.085
986,-0.260,-0.085
987,-0.260,-0.075
988,-0.265,-0.080
989,-0.260,-0.100
990,-0.225,-0.095
991,-0.160,-0.050
992,-0.055,-0.005
993,-0.110,-0.095
994,-0.220,-0.420
995,-0.510,-0.885
996,-0.745,-1.355
997,-0.900,-1.790
998,-1.020,-2.260
999,-1.065,-2.300
1000,-1.010,-1.860
1001,-0.875,-1.575
1002,-0.750,-1.455
1003,-0.735,-1.325
1004,-0.685,-1.165
1005,-0.610,-0.965
1006,-0.530,-0.720
1007,-0.480,-0.510
1008,-0.400,-0.345
1009,-0.295,-0.215
1010,-0.160,-0.090
1011,-0.085,0.035
1012,-0.050,0.175
1013,-0.030,0.265
1014,-0.005,0.285
1015,0.010,0.315
1016,0.010,0.335
1017,0.025,0.335
1018,0.020,0.335
1019,0.035,0.355
1020,0.050,0.350
1021,0.035,0.375
1022,0.065,0.375
1023,0.085,0.420
1024,0.100,0.410
1025,0.100,0.425
1026,0.100,0.430
1027,0.100,0.425
1028,0.130,0.440
1029,0.135,0.445
1030,0.145,0.455
1031,0.135,0.465
1032,0.125,0.465
1033,0.120,0.465
1034,0.120,0.455
1035,0.110,0.455
1036,0.100,0.465
1037,0.095,0.455
1038,0.060,0.440
1039,0.065,0.415
1040,0.030,0.425
1041,0.025,0.380
1042,-0.005,0.370
1043,-0.005,0.345
1044,-0.030,0.330
1045,-0.050,0.310
1046,-0.060,0.300
1047,-0.095,0.250
1048,-0.095,0.235
1049,-0.130,0.230
1050,-0.135,0.190
1051,-0.150,0.170
1052,-0.170,0.155
1053,-0.160,0.135
1054,-0.180,0.130
1055,-0.185,0.110
1056,-0.185,0.105
1057,-0.190,0.080
1058,-0.170,0.080
1059,-0.155,0.090
1060,-0.160,0.080
1061,-0.140,0.080
1062,-0.135,0.085
1063,-0.125,0.085
1064,-0.140,0.080
1065,-0.115,0.070
1066,-0.135,0.080
1067,-0.120,0.065
1068,-0.120,0.080
1069,-0.135,0.060
1070,-0.130,0.055
1071,-0.155,0.040
1072,-0.135,0.045
1073,-0.135,0.020
1074,-0.160,0.020
1075,-0.160,0.020
1076,-0.160,0.015
1077,-0.145,0.005
1078,-0.165,0.000
1079,-0.165,0.000
1080,-0.160,0.005
1081,-0.180,-0.010
1082,-0.185,0.000
1083,-0.190,-0.015
1084,-0.185,0.000
1085,-0.180,-0.005
1086,-0.200,-0.015
1087,-0.170,-0.010
1088,-0.180,-0.015
1089,-0.160,-0.025
1090,-0.145,0.010
1091,-0.115,0.030
1092,-0.110,0.035
1093,-0.065,0.045
1094,-0.065,0.020
1095,-0.090,-0.005
1096,-0.085,-0.015
1097,-0.115,-0.045
1098,-0.145,-0.055
1099,-0.125,-0.060
1100,-0.105,-0.050
1101,-0.105,-0.020
1102,-0.140,-0.025
1103,-0.190,-0.055
1104,-0.240,-0.065
1105,-0.240,-0.060
1106,-0.235,-0.075
1107,-0.250,-0.080
1108,-0.255,-0.070
1109,-0.235,-0.060
1110,-0.250,-0.075
1111,-0.245,-0.050
1112,-0.255,-0.080
1113,-0.245,-0.055
1114,-0.245,-0.050
1115,-0.235,-0.060
1116,-0.245,-0.070
1117,-0.250,-0.070
1118,-0.230,-0.060
1119,-0.175,-0.040
1120,-0.050,-0.010
1121,-0.055,0.000
1122,-0.150,-0.280
1123,-0.365,-0.655
1124,-0.635,-1.220
1125,-0.820,-1.630
1126,-0.905,-2.090
1127,-0.980,-2.350
1128,-0.995,-1.990
1129,-0.885,-1.645
1130,-0.785,-1.470
1131,-0.720,-1.370
1132,-0.705,-1.210
1133,-0.620,-1.060
1134,-0.550,-0.840
1135,-0.525,-0.625
1136,-0.460,-0.430
1137,-0.345,-0.280
1138,-0.225,-0.145
1139,-0.105,-0.025
1140,-0.045,0.125
1141,0.005,0.255
1142,0.015,0.325
1143,0.005,0.340
1144,0.025,0.355
1145,0.040,0.385
1146,0.040,0.375
1147,0.070,0.380
1148,0.080,0.405
1149,0.095,0.410
1150,0.095,0.420
1151,0.095,0.445
1152,0.125,0.445
1153,0.130,0.460
1154,0.125,0.465
1155,0.130,0.450
1156,0.140,0.485
1157,0.150,0.500
1158,0.150,0.490
1159,0.130,0.490
1160,0.160,0.495
1161,0.160,0.500
1162,0.150,0.495
1163,0.155,0.480
1164,0.155,0.490
1165,0.140,0.485
1166,0.130,0.475
1167,0.130,0.470
1168,0.110,0.465
1169,0.085,0.455
1170,0.085,0.425
1171,0.045,0.400
1172,0.040,0.385
1173,0.015,0.365
1174,0.005,0.355
1175,-0.005,0.340
1176,-0.025,0.310
1177,-0.055,0.290
1178,-0.065,0.250
1179,-0.100,0.230
1180,-0.120,0.220
1181,-0.125,0.200
1182,-0.140,0.180
1183,-0.145,0.160
1184,-0.155,0.170
1185,-0.155,0.130
1186,-0.150,0.135
1187,-0.140,0.145
1188,-0.120,0.125
1189,-0.130,0.125
1190,-0.125,0.130
1191,-0.105,0.135
1192,-0.110,0.130
1193,-0.100,0.140
1194,-0.100,0.120
1195,-0.110,0.130
1196,-0.105,0.115
1197,-0.115,0.100
1198,-0.095,0.115
1199,-0.110,0.095
1200,-0.115,0.095
1201,-0.125,0.080
1202,-0.130,0.070
1203,-0.140,0.070
1204,-0.150,0.060
1205,-0.145,0.055
1206,-0.150,0.045
1207,-0.135,0.030
1208,-0.150,0.045
1209,-0.155,0.020
1210,-0.140,0.020
1211,-0.160,0.025
1212,-0.165,0.025
1213,-0.165,0.025
1214,-0.170,0.025
1215,-0.170,0.020
1216,-0.165,0.005
1217,-0.190,0.005
1218,-0.195,0.010
1219,-0.160,0.020
1220,-0.120,0.045
1221,-0.110,0.090
1222,-0.095,0.080
1223,-0.080,0.065
1224,-0.085,0.040
1225,-0.120,0.005
1226,-0.120,-0.025
1227,-0.135,-0.040
1228,-0.145,-0.045
1229,-0.095,-0.020
1230,-0.090,0.000
1231,-0.130,-0.010
1232,-0.200,-0.015
1233,-0.235,-0.030
1234,-0.255,-0.055
1235,-0.235,-0.060
1236,-0.245,-0.035
1237,-0.245,-0.040
1238,-0.245,-0.060
1239,-0.245,-0.060
1240,-0.235,-0.030
1241,-0.235,-0.040
1242,-0.235,-0.045
1243,-0.250,-0.060
1244,-0.235,-0.040
1245,-0.250,-0.040
1246,-0.245,-0.045
1247,-0.215,-0.045
1248,-0.135,-0.025
1249,-0.035,0.065
1250,-0.100,-0.065
1251,-0.225,-0.390
1252,-0.505,-0.880
1253,-0.745,-1.375
1254,-0.860,-1.815
1255,-0.945,-2.280
1256,-1.005,-2.245
1257,-0.950,-1.810
1258,-0.835,-1.540
1259,-0.735,-1.420
1260,-0.715,-1.270
1261,-0.685,-1.115
1262,-0.585,-0.885
1263,-0.535,-0.675
1264,-0.485,-0.470
1265,-0.400,-0.280
1266,-0.275,-0.160
1267,-0.155,-0.035
1268,-0.080,0.110
1269,-0.005,0.240
1270,0.000,0.310
1271,0.000,0.350
1272,0.030,0.365
1273,0.020,0.370
1274,0.050,0.380
1275,0.060,0.390
1276,0.060,0.400
1277,0.090,0.405
1278,0.085,0.435
1279,0.095,0.455
1280,0.115,0.460
1281,0.115,0.450
1282,0.130,0.455
1283,0.135,0.475
1284,0.130,0.480
1285,0.150,0.485
1286,0.140,0.495
1287,0.170,0.510
1288,0.170,0.505
1289,0.165,0.505
1290,0.160,0.485
1291,0.145,0.505
1292,0.140,0.520
1293,0.135,0.485
1294,0.115,0.485
1295,0.100,0.485
1296,0.085,0.470
1297,0.070,0.455
1298,0.045,0.435
1299,0.025,0.420
1300,0.035,0.390
1301,0.005,0.380
1302,0.005,0.360
1303,-0.025,0.315
1304,-0.030,0.315
1305,-0.075,0.285
1306,-0.085,0.240
1307,-0.115,0.240
1308,-0.120,0.220
1309,-0.135,0.200
1310,-0.135,0.200
1311,-0.150,0.180
1312,-0.155,0.170
1313,-0.155,0.160
1314,-0.150,0.130
1315,-0.160,0.140
1316,-0.130,0.145
1317,-0.115,0.130
1318,-0.110,0.150
1319,-0.125,0.135
1320,-0.125,0.160
1321,-0.115,0.135
1322,-0.110,0.130
1323,-0.115,0.130
1324,-0.125,0.115
1325,-0.125,0.110
1326,-0.135,0.115
1327,-0.165,0.100
1328,-0.145,0.100
1329,-0.150,0.090
1330,-0.170,0.085
1331,-0.155,0.075
1332,-0.160,0.060
1333,-0.175,0.050
1334,-0.180,0.060
1335,-0.190,0.060
1336,-0.185,0.030
1337,-0.205,0.035
1338,-0.195,0.020
1339,-0.200,0.035
1340,-0.205,0.025
1341,-0.205,0.040
1342,-0.190,0.020
1343,-0.180,0.030
1344,-0.175,0.035
1345,-0.120,0.050
1346,-0.110,0.100
1347,-0.090,0.120
1348,-0.100,0.105
1349,-0.110,0.055
1350,-0.110,0.025
1351,-0.140,0.005
1352,-0.130,0.000
1353,-0.135,-0.020
1354,-0.115,-0.005
1355,-0.095,0.005
1356,-0.115,0.020
1357,-0.185,0.015
1358,-0.230,-0.010
1359,-0.245,-0.020
1360,-0.265,-0.010
1361,-0.255,-0.025
1362,-0.250,-0.035
1363,-0.260,-0.025
1364,-0.265,-0.030
1365,-0.260,-0.025
1366,-0.280,-0.050
1367,-0.285,-0.030
1368,-0.270,-0.040
1369,-0.250,-0.030
1370,-0.260,-0.025
1371,-0.245,-0.020
1372,-0.235,-0.035
1373,-0.185,-0.010
1374,-0.075,0.050
1375,-0.135,-0.020
1376,-0.255,-0.360
1377,-0.495,-0.820
1378,-0.735,-1.345
1379,-0.895,-1.770
1380,-0.970,-2.250
1381,-1.025,-2.250
1382,-0.990,-1.840
1383,-0.880,-1.565
1384,-0.760,-1.415
1385,-0.760,-1.275
1386,-0.700,-1.115
1387,-0.625,-0.895
1388,-0.560,-0.675
1389,-0.500,-0.485
1390,-0.405,-0.285
1391,-0.290,-0.150
1392,-0.165,-0.015
1393,-0.080,0.120
1394,-0.045,0.245
1395,-0.015,0.330
1396,-0.020,0.340
1397,0.005,0.380
1398,0.000,0.385
1399,0.020,0.395
1400,0.025,0.415
1401,0.025,0.410
1402,0.040,0.435
1403,0.065,0.435
1404,0.060,0.420
1405,0.090,0.460
1406,0.090,0.455
1407,0.105,0.455
1408,0.110,0.480
1409,0.095,0.475
1410,0.130,0.490
1411,0.120,0.505
1412,0.125,0.480
1413,0.120,0.500
1414,0.120,0.500
1415,0.130,0.500
1416,0.115,0.495
1417,0.120,0.495
1418,0.115,0.500
1419,0.110,0.490
1420,0.090,0.470
1421,0.075,0.465
1422,0.070,0.440
1423,0.040,0.435
1424,0.030,0.415
1425,0.015,0.400
1426,0.000,0.370
1427,-0.035,0.345
1428,-0.040,0.330
1429,-0.050,0.300
1430,-0.075,0.300
1431,-0.105,0.255
1432,-0.115,0.245
1433,-0.135,0.210
1434,-0.150,0.215
1435,-0.175,0.195
1436,-0.180,0.165
1437,-0.155,0.160
1438,-0.170,0.145
1439,-0.175,0.145
1440,-0.165,0.145
1441,-0.175,0.130
1442,-0.160,0.125
1443,-0.140,0.125
1444,-0.145,0.115
1445,-0.140,0.120
1446,-0.130,0.125
1447,-0.135,0.100
1448,-0.130,0.130
1449,-0.130,0.105
1450,-0.145,0.105
1451,-0.130,0.100
1452,-0.150,0.100
1453,-0.155,0.080
1454,-0.160,0.055
1455,-0.165,0.075
1456,-0.175,0.065
1457,-0.190,0.050
1458,-0.175,0.050
1459,-0.180,0.040
1460,-0.195,0.030
1461,-0.200,0.040
1462,-0.210,0.025
1463,-0.190,0.035
1464,-0.210,0.010
1465,-0.210,0.030
1466,-0.205,0.035
1467,-0.220,0.030
1468,-0.200,0.015
1469,-0.205,0.015
1470,-0.185,0.020
1471,-0.165,0.030
1472,-0.140,0.070
1473,-0.115,0.095
1474,-0.105,0.100
1475,-0.090,0.075
1476,-0.115,0.030
1477,-0.110,0.015
1478,-0.145,0.000
1479,-0.155,-0.025
1480,-0.155,-0.020
1481,-0.115,-0.010
1482,-0.130,0.010
1483,-0.150,0.000
1484,-0.230,0.000
1485,-0.270,-0.020
1486,-0.285,-0.050
1487,-0.285,-0.030
1488,-0.270,-0.040
1489,-0.265,-0.040
1490,-0.255,-0.045
1491,-0.275,-0.025
1492,-0.290,-0.040
1493,-0.280,-0.045
1494,-0.285,-0.050
1495,-0.275,-0.045
1496,-0.285,-0.030
1497,-0.280,-0.020
1498,-0.280,-0.040
1499,-0.255,-0.040
1500,-0.220,-0.030
1501,-0.095,0.045
1502,-0.135,0.000
1503,-0.245,-0.310
1504,-0.490,-0.730
1505,-0.730,-1.265
1506,-0.885,-1.685
1507,-0.990,-2.160
1508,-1.050,-2.315
1509,-1.035,-1.945
1510,-0.925,-1.615
1511,-0.820,-1.440
1512,-0.775,-1.335
1513,-0.740,-1.190
1514,-0.665,-1.000
1515,-0.595,-0.790
1516,-0.550,-0.565
1517,-0.485,-0.375
1518,-0.380,-0.235
1519,-0.250,-0.110
1520,-0.160,0.035
1521,-0.085,0.185
1522,-0.045,0.280
1523,-0.050,0.330
1524,-0.025,0.345
1525,-0.020,0.355
1526,-0.005,0.375
1527,-0.005,0.385
1528,0.015,0.410
1529,0.030,0.415
1530,0.030,0.415
1531,0.035,0.425
1532,0.050,0.435
1533,0.070,0.460
1534,0.080,0.455
1535,0.085,0.465
1536,0.100,0.490
1537,0.125,0.475
1538,0.110,0.490
1539,0.125,0.475
1540,0.125,0.475
1541,0.105,0.480
1542,0.120,0.495
1543,0.115,0.500
1544,0.105,0.500
1545,0.095,0.500
1546,0.100,0.475
1547,0.060,0.480
1548,0.075,0.470
1549,0.045,0.450
1550,0.045,0.440
1551,0.020,0.415
1552,0.005,0.405
1553,-0.010,0.390
1554,-0.020,0.370
1555,-0.050,0.335
1556,-0.060,0.320
1557,-0.090,0.295
1558,-0.100,0.290
1559,-0.120,0.250
1560,-0.160,0.230
1561,-0.180,0.215
1562,-0.175,0.200
1563,-0.185,0.185
1564,-0.175,0.160
1565,-0.185,0.155
1566,-0.200,0.140
1567,-0.190,0.145
1568,-0.200,0.125
1569,-0.180,0.115
1570,-0.190,0.125
1571,-0.185,0.115
1572,-0.170,0.120
1573,-0.180,0.095
1574,-0.180,0.090
1575,-0.160,0.095
1576,-0.170,0.080
1577,-0.170,0.075
1578,-0.160,0.090
1579,-0.180,0.065
1580,-0.185,0.060
1581,-0.185,0.045
1582,-0.185,0.055
1583,-0.210,0.040
1584,-0.200,0.045
1585,-0.210,0.040
1586,-0.220,0.005
1587,-0.195,0.020
1588,-0.205,0.010
1589,-0.215,0.005
1590,-0.220,0.000
1591,-0.220,0.010
1592,-0.220,0.005
1593,-0.240,0.005
1594,-0.230,0.000
1595,-0.240,0.000
1596,-0.235,0.015
1597,-0.240,0.000
1598,-0.225,0.000
1599,-0.210,0.025
1600,-0.175,0.040
1601,-0.165,0.065
1602,-0.145,0.085
1603,-0.125,0.065
1604,-0.150,0.045
1605,-0.140,0.005
1606,-0.140,-0.030
1607,-0.165,-0.040
1608,-0.190,-0.045
1609,-0.140,-0.040
1610,-0.115,-0.015
1611,-0.170,0.000
1612,-0.215,-0.020
1613,-0.265,-0.035
1614,-0.285,-0.055
1615,-0.280,-0.075
1616,-0.295,-0.055
1617,-0.275,-0.080
1618,-0.290,-0.070
1619,-0.300,-0.065
1620,-0.310,-0.050
1621,-0.290,-0.070
1622,-0.295,-0.080
1623,-0.300,-0.080
1624,-0.320,-0.070
1625,-0.305,-0.050
1626,-0.300,-0.070
1627,-0.285,-0.075
1628,-0.260,-0.050
1629,-0.175,-0.030
1630,-0.100,0.020
1631,-0.180,-0.130
1632,-0.330,-0.465
1633,-0.590,-0.935
1634,-0.820,-1.410
1635,-0.930,-1.820
1636,-1.010,-2.295
1637,-1.070,-2.275
1638,-1.015,-1.880
1639,-0.910,-1.595
1640,-0.805,-1.435
1641,-0.795,-1.335
1642,-0.750,-1.150
1643,-0.690,-0.955
1644,-0.615,-0.750
1645,-0.560,-0.530
1646,-0.485,-0.365
1647,-0.365,-0.240
1648,-0.240,-0.120
1649,-0.170,0.035
1650,-0.110,0.165
1651,-0.080,0.270
1652,-0.060,0.310
1653,-0.050,0.325
1654,-0.025,0.345
1655,-0.005,0.340
1656,0.000,0.370
1657,0.010,0.370
1658,0.010,0.380
1659,0.015,0.390
1660,0.040,0.395
1661,0.055,0.410
1662,0.055,0.410
1663,0.065,0.415
1664,0.095,0.410
1665,0.080,0.435
1666,0.090,0.440
1667,0.085,0.445
1668,0.085,0.460
1669,0.085,0.445
1670,0.090,0.465
1671,0.095,0.475
1672,0.095,0.470
1673,0.080,0.465
1674,0.075,0.470
1675,0.060,0.465
1676,0.060,0.475
1677,0.050,0.455
1678,0.035,0.415
1679,0.015,0.425
1680,0.005,0.405
1681,-0.005,0.405
1682,-0.015,0.370
1683,-0.035,0.340
1684,-0.060,0.315
1685,-0.090,0.310
1686,-0.105,0.290
1687,-0.125,0.280
1688,-0.125,0.260
1689,-0.155,0.220
1690,-0.155,0.205
1691,-0.175,0.195
1692,-0.195,0.185
1693,-0.200,0.170
1694,-0.200,0.155
1695,-0.205,0.130
1696,-0.205,0.145
1697,-0.200,0.120
1698,-0.215,0.110
1699,-0.190,0.110
1700,-0.180,0.095
1701,-0.180,0.095
1702,-0.180,0.095
1703,-0.195,0.110
1704,-0.170,0.085
1705,-0.195,0.085
1706,-0.170,0.085
1707,-0.180,0.100
1708,-0.180,0.070
1709,-0.180,0.085
1710,-0.185,0.065
1711,-0.195,0.055
1712,-0.185,0.055
1713,-0.195,0.055
1714,-0.200,0.020
1715,-0.210,0.020
1716,-0.215,0.015
1717,-0.195,0.025
1718,-0.200,0.030
1719,-0.220,0.020
1720,-0.220,0.010
1721,-0.220,0.005
1722,-0.210,0.005
1723,-0.220,0.005
1724,-0.225,0.000
1725,-0.225,-0.005
1726,-0.235,0.010
1727,-0.225,-0.010
1728,-0.225,-0.010
1729,-0.210,0.025
1730,-0.185,0.015
1731,-0.155,0.060
1732,-0.150,0.085
1733,-0.115,0.070
1734,-0.120,0.055
1735,-0.130,0.015
1736,-0.145,-0.005
1737,-0.160,-0.015
1738,-0.170,-0.040
1739,-0.160,-0.045
1740,-0.135,-0.005
1741,-0.140,0.005
1742,-0.185,-0.015
1743,-0.265,-0.020
1744,-0.275,-0.045
1745,-0.305,-0.050
1746,-0.305,-0.060
1747,-0.285,-0.050
1748,-0.285,-0.040
1749,-0.290,-0.050
1750,-0.295,-0.055
1751,-0.300,-0.055
1752,-0.295,-0.045
1753,-0.300,-0.065
1754,-0.300,-0.055
1755,-0.305,-0.055
1756,-0.300,-0.065
1757,-0.290,-0.050
1758,-0.260,-0.055
1759,-0.240,-0.055
1760,-0.130,-0.005
1761,-0.110,0.025
1762,-0.205,-0.245
1763,-0.420,-0.595
1764,-0.690,-1.125
1765,-0.875,-1.545
1766,-0.965,-2.015
1767,-1.060,-2.340
1768,-1.055,-2.115
1769,-0.955,-1.720
1770,-0.840,-1.500
1771,-0.770,-1.410
1772,-0.785,-1.235
1773,-0.700,-1.080
1774,-0.620,-0.870
1775,-0.565,-0.650
1776,-0.510,-0.445
1777,-0.400,-0.290
1778,-0.285,-0.150
1779,-0.180,-0.025
1780,-0.120,0.125
1781,-0.080,0.250
1782,-0.065,0.325
1783,-0.055,0.350
1784,-0.040,0.375
1785,-0.010,0.370
1786,-0.010,0.395
1787,-0.005,0.420
1788,0.000,0.415
1789,0.005,0.435
1790,0.010,0.430
1791,0.025,0.440
1792,0.025,0.435
1793,0.040,0.440
1794,0.070,0.460
1795,0.065,0.480
1796,0.065,0.470
1797,0.065,0.490
1798,0.080,0.500
1799,0.085,0.500
1800,0.095,0.505
1801,0.095,0.520
1802,0.095,0.505
1803,0.105,0.510
1804,0.090,0.500
1805,0.070,0.495
1806,0.055,0.480
1807,0.055,0.490
1808,0.035,0.475
1809,0.030,0.465
1810,0.000,0.455
1811,-0.005,0.440
1812,-0.025,0.410
1813,-0.030,0.380
1814,-0.040,0.390
1815,-0.075,0.345
1816,-0.080,0.325
1817,-0.100,0.285
1818,-0.110,0.275
1819,-0.155,0.260
1820,-0.170,0.240
1821,-0.175,0.235
1822,-0.190,0.200
1823,-0.190,0.195
1824,-0.200,0.170
1825,-0.205,0.165
1826,-0.210,0.165
1827,-0.205,0.165
1828,-0.205,0.150
1829,-0.190,0.145
1830,-0.195,0.140
1831,-0.175,0.125
1832,-0.175,0.140
1833,-0.180,0.125
1834,-0.175,0.120
1835,-0.170,0.125
1836,-0.170,0.135
1837,-0.170,0.135
1838,-0.170,0.115
1839,-0.185,0.100
1840,-0.200,0.100
1841,-0.185,0.095
1842,-0.205,0.095
1843,-0.195,0.080
1844,-0.205,0.060
1845,-0.210,0.065
1846,-0.220,0.040
1847,-0.225,0.055
1848,-0.230,0.040
1849,-0.235,0.045
1850,-0.225,0.040
1851,-0.230,0.035
1852,-0.240,0.055
1853,-0.240,0.035
1854,-0.220,0.035
1855,-0.230,0.035
1856,-0.230,0.035
1857,-0.240,0.030
1858,-0.190,0.025
1859,-0.180,0.060
1860,-0.165,0.105
1861,-0.160,0.105
1862,-0.145,0.100
1863,-0.145,0.060
1864,-0.170,0.050
1865,-0.180,0.010
1866,-0.200,0.000
1867,-0.180,-0.005
1868,-0.155,0.010
1869,-0.155,0.015
1870,-0.185,0.020
1871,-0.265,0.000
1872,-0.300,-0.005
1873,-0.310,-0.015
1874,-0.320,-0.010
1875,-0.330,-0.010
1876,-0.340,-0.015
1877,-0.325,-0.025
1878,-0.325,-0.030
1879,-0.335,-0.030
1880,-0.330,-0.030
1881,-0.345,-0.030
1882,-0.310,-0.020
1883,-0.320,-0.025
1884,-0.325,-0.025
1885,-0.315,-0.015
1886,-0.320,-0.010
1887,-0.265,0.000
1888,-0.145,0.050
1889,-0.175,0.025
1890,-0.285,-0.270
1891,-0.540,-0.655
1892,-0.780,-1.215
1893,-0.910,-1.640
1894,-1.030,-2.155
1895,-1.085,-2.295
1896,-1.040,-1.840
1897,-0.930,-1.560
1898,-0.840,-1.385
1899,-0.815,-1.290
1900,-0.765,-1.105
1901,-0.695,-0.905
1902,-0.615,-0.690
1903,-0.540,-0.495
1904,-0.475,-0.300
1905,-0.370,-0.160
1906,-0.235,-0.050
1907,-0.155,0.095
1908,-0.115,0.225
1909,-0.080,0.310
1910,-0.075,0.360
1911,-0.080,0.370
1912,-0.050,0.395
1913,-0.045,0.390
1914,-0.025,0.420
1915,-0.025,0.430
1916,-0.030,0.450
1917,0.000,0.445
1918,0.005,0.470
1919,0.010,0.455
1920,0.020,0.485
1921,0.030,0.465
1922,0.040,0.490
1923,0.035,0.490
1924,0.045,0.485
1925,0.045,0.520
1926,0.045,0.510
1927,0.050,0.505
1928,0.060,0.515
1929,0.045,0.525
1930,0.050,0.515
1931,0.050,0.495
1932,0.045,0.505
1933,0.035,0.505
1934,0.010,0.485
1935,0.000,0.485
1936,-0.010,0.455
1937,-0.045,0.450
1938,-0.050,0.415
1939,-0.075,0.400
1940,-0.100,0.385
1941,-0.115,0.370
1942,-0.140,0.350
1943,-0.150,0.330
1944,-0.175,0.310
1945,-0.180,0.270
1946,-0.215,0.255
1947,-0.230,0.225
1948,-0.240,0.210
1949,-0.240,0.210
1950,-0.260,0.195
1951,-0.255,0.195
1952,-0.270,0.175
1953,-0.240,0.175
1954,-0.255,0.160
1955,-0.235,0.145
1956,-0.235,0.160
1957,-0.220,0.140
1958,-0.235,0.135
1959,-0.210,0.130
1960,-0.220,0.130
1961,-0.220,0.150
1962,-0.225,0.130
1963,-0.215,0.115
1964,-0.235,0.125
1965,-0.225,0.125
1966,-0.230,0.100
1967,-0.255,0.100
1968,-0.250,0.075
1969,-0.245,0.075
1970,-0.260,0.070
1971,-0.265,0.060
1972,-0.250,0.060
1973,-0.250,0.060
1974,-0.255,0.065
1975,-0.270,0.060
1976,-0.270,0.030
1977,-0.280,0.040
1978,-0.275,0.050
1979,-0.295,0.040
1980,-0.270,0.035
1981,-0.280,0.035
1982,-0.275,0.035
1983,-0.255,0.060
1984,-0.235,0.075
1985,-0.210,0.105
1986,-0.190,0.110
1987,-0.170,0.135
1988,-0.175,0.115
1989,-0.180,0.095
1990,-0.200,0.060
1991,-0.200,0.025
1992,-0.220,0.020
1993,-0.210,0.000
1994,-0.170,0.020
1995,-0.185,0.050
1996,-0.230,0.035
1997,-0.295,0.025
1998,-0.305,0.010
1999,-0.335,-0.005
2000,-0.325,0.000
2001,-0.320,0.000
2002,-0.320,-0.005
2003,-0.340,-0.005
2004,-0.340,-0.020
2005,-0.335,0.000
2006,-0.325,-0.005
2007,-0.330,0.000
2008,-0.340,-0.010
2009,-0.330,0.000
2010,-0.340,-0.015
2011,-0.325,-0.020
2012,-0.315,-0.005
2013,-0.260,-0.005
2014,-0.135,0.060
2015,-0.165,0.045
2016,-0.275,-0.220
2017,-0.505,-0.595
2018,-0.755,-1.140
2019,-0.905,-1.540
2020,-1.005,-2.005
2021,-1.085,-2.290
2022,-1.055,-1.980
2023,-0.930,-1.610
2024,-0.870,-1.430
2025,-0.805,-1.290
2026,-0.785,-1.135
2027,-0.705,-0.965
2028,-0.615,-0.750
2029,-0.585,-0.525
2030,-0.505,-0.335
2031,-0.405,-0.195
2032,-0.290,-0.090
2033,-0.195,0.065
2034,-0.125,0.200
2035,-0.095,0.305
2036,-0.085,0.360
2037,-0.065,0.390
2038,-0.040,0.405
2039,-0.035,0.415
2040,-0.025,0.430
2041,-0.020,0.430
2042,-0.010,0.440
2043,0.005,0.450
2044,0.005,0.465
2045,0.015,0.465
2046,0.030,0.465
2047,0.035,0.490
2048,0.055,0.490
2049,0.045,0.505
2050,0.065,0.500
2051,0.080,0.515
2052,0.085,0.520
2053,0.080,0.525
2054,0.075,0.525
2055,0.090,0.530
2056,0.070,0.530
2057,0.060,0.535
2058,0.060,0.530
2059,0.055,0.515
2060,0.055,0.520
2061,0.050,0.505
2062,0.030,0.505
2063,0.015,0.480
2064,0.000,0.480
2065,-0.005,0.450
2066,-0.040,0.425
2067,-0.060,0.425
2068,-0.065,0.395
2069,-0.100,0.355
2070,-0.115,0.355
2071,-0.125,0.355
2072,-0.145,0.310
2073,-0.160,0.295
2074,-0.180,0.270
2075,-0.190,0.260
2076,-0.200,0.250
2077,-0.195,0.240
2078,-0.210,0.245
2079,-0.210,0.220
2080,-0.215,0.200
2081,-0.200,0.205
2082,-0.195,0.210
2083,-0.195,0.195
2084,-0.195,0.185
2085,-0.185,0.195
2086,-0.185,0.190
2087,-0.190,0.190
2088,-0.185,0.175
2089,-0.195,0.180
2090,-0.165,0.180
2091,-0.175,0.180
2092,-0.185,0.160
2093,-0.195,0.160
2094,-0.210,0.160
2095,-0.190,0.145
2096,-0.220,0.135
2097,-0.210,0.130
2098,-0.225,0.125
2099,-0.215,0.105
2100,-0.225,0.105
2101,-0.220,0.115
2102,-0.225,0.100
2103,-0.215,0.100
2104,-0.230,0.075
2105,-0.235,0.065
2106,-0.245,0.075
2107,-0.245,0.065
2108,-0.250,0.085
2109,-0.250,0.065
2110,-0.250,0.075
2111,-0.225,0.060
2112,-0.225,0.090
2113,-0.180,0.110
2114,-0.175,0.120
2115,-0.150,0.160
2116,-0.135,0.150
2117,-0.140,0.115
2118,-0.150,0.085
2119,-0.160,0.070
2120,-0.175,0.035
2121,-0.195,0.020
2122,-0.175,0.035
2123,-0.145,0.060
2124,-0.175,0.075
2125,-0.225,0.055
2126,-0.295,0.040
2127,-0.305,0.020
2128,-0.315,0.015
2129,-0.305,0.030
2130,-0.300,0.015
2131,-0.300,0.025
2132,-0.310,0.010
2133,-0.305,0.010
2134,-0.305,0.015
2135,-0.310,0.000
2136,-0.305,0.025
2137,-0.310,0.010
2138,-0.320,0.005
2139,-0.305,0.025
2140,-0.295,0.005
2141,-0.285,0.000
2142,-0.225,0.015
2143,-0.125,0.070
2144,-0.175,0.040
2145,-0.295,-0.235
2146,-0.550,-0.690
2147,-0.785,-1.195
2148,-0.925,-1.595
2149,-1.020,-2.065
2150,-1.075,-2.260
2151,-1.025,-1.885
2152,-0.900,-1.550
2153,-0.815,-1.405
2154,-0.780,-1.270
2155,-0.760,-1.100
2156,-0.685,-0.960
2157,-0.610,-0.735
2158,-0.560,-0.520
2159,-0.485,-0.335
2160,-0.390,-0.185
2161,-0.250,-0.050
2162,-0.165,0.090
2163,-0.090,0.225
2164,-0.065,0.340
2165,-0.035,0.375
2166,-0.035,0.405
2167,-0.030,0.410
2168,-0.010,0.435
2169,-0.015,0.450
2170,-0.005,0.450
2171,0.000,0.460
2172,0.005,0.460
2173,0.015,0.500
2174,0.035,0.505
2175,0.045,0.495
2176,0.065,0.525
2177,0.065,0.500
2178,0.080,0.525
2179,0.085,0.560
2180,0.095,0.545
2181,0.085,0.560
2182,0.090,0.540
2183,0.100,0.555
2184,0.095,0.560
2185,0.075,0.555
2186,0.080,0.545
2187,0.090,0.545
2188,0.070,0.535
2189,0.050,0.525
2190,0.045,0.520
2191,0.030,0.525
2192,0.020,0.500
2193,0.005,0.490
2194,0.000,0.465
2195,-0.030,0.455
2196,-0.050,0.430
2197,-0.050,0.405
2198,-0.075,0.385
2199,-0.105,0.375
2200,-0.115,0.340
2201,-0.125,0.320
2202,-0.150,0.315
2203,-0.140,0.280
2204,-0.175,0.275
2205,-0.180,0.245
2206,-0.190,0.245
2207,-0.200,0.230
2208,-0.200,0.235
2209,-0.200,0.225
2210,-0.190,0.200
2211,-0.185,0.190
2212,-0.175,0.185
2213,-0.165,0.195
2214,-0.170,0.210
2215,-0.160,0.205
2216,-0.170,0.190
2217,-0.155,0.185
2218,-0.170,0.175
2219,-0.160,0.180
2220,-0.160,0.185
2221,-0.170,0.160
2222,-0.170,0.155
2223,-0.185,0.155
2224,-0.185,0.150
2225,-0.190,0.130
2226,-0.190,0.125
2227,-0.200,0.130
2228,-0.220,0.115
2229,-0.220,0.105
2230,-0.210,0.100
2231,-0.215,0.100
2232,-0.225,0.095
2233,-0.215,0.070
2234,-0.220,0.085
2235,-0.235,0.085
2236,-0.235,0.090
2237,-0.240,0.075
2238,-0.240,0.075
2239,-0.230,0.070
2240,-0.230,0.100
2241,-0.205,0.100
2242,-0.195,0.125
2243,-0.165,0.145
2244,-0.135,0.165
2245,-0.120,0.165
2246,-0.130,0.140
2247,-0.125,0.100
2248,-0.150,0.065
2249,-0.175,0.045
2250,-0.150,0.050
2251,-0.135,0.060
2252,-0.120,0.080
2253,-0.165,0.090
2254,-0.230,0.080
2255,-0.250,0.055
2256,-0.285,0.035
2257,-0.290,0.025
2258,-0.280,0.035
2259,-0.300,0.025
2260,-0.300,0.020
2261,-0.300,0.025
2262,-0.310,0.020
2263,-0.290,0.035
2264,-0.285,0.025
2265,-0.300,0.020
2266,-0.280,0.010
2267,-0.285,0.025
2268,-0.275,0.015
2269,-0.270,0.000
2270,-0.250,0.035
2271,-0.145,0.065
2272,-0.095,0.130
2273,-0.165,-0.045
2274,-0.360,-0.350
2275,-0.640,-0.860
2276,-0.815,-1.320
2277,-0.930,-1.740
2278,-0.985,-2.175
2279,-1.040,-2.075
2280,-0.930,-1.660
2281,-0.835,-1.440
2282,-0.775,-1.315
2283,-0.760,-1.195
2284,-0.710,-1.040
2285,-0.615,-0.850
2286,-0.570,-0.625
2287,-0.505,-0.430
2288,-0.400,-0.250
2289,-0.295,-0.135
2290,-0.170,-0.010
2291,-0.115,0.125
2292,-0.065,0.255
2293,-0.045,0.365
2294,-0.030,0.390
2295,-0.005,0.425
2296,0.000,0.420
2297,0.005,0.445
2298,0.000,0.460
2299,0.020,0.455
2300,0.025,0.485
2301,0.035,0.490
2302,0.045,0.505
2303,0.060,0.505
2304,0.095,0.490
2305,0.095,0.510
2306,0.105,0.520
2307,0.095,0.530
2308,0.100,0.535
2309,0.105,0.550
2310,0.115,0.545
2311,0.115,0.535
2312,0.105,0.555
2313,0.115,0.535
2314,0.105,0.540
2315,0.095,0.525
2316,0.090,0.525
2317,0.080,0.540
2318,0.065,0.520
2319,0.060,0.505
2320,0.045,0.500
2321,0.020,0.485
2322,0.010,0.460
2323,-0.005,0.480
2324,-0.030,0.460
2325,-0.030,0.420
2326,-0.035,0.405
2327,-0.085,0.370
2328,-0.105,0.350
2329,-0.120,0.315
2330,-0.120,0.305
2331,-0.150,0.295
2332,-0.155,0.270
2333,-0.170,0.270
2334,-0.180,0.245
2335,-0.170,0.235
2336,-0.175,0.220
2337,-0.180,0.200
2338,-0.175,0.190
2339,-0.170,0.195
2340,-0.165,0.195
2341,-0.165,0.190
2342,-0.165,0.190
2343,-0.155,0.180
2344,-0.170,0.180
2345,-0.150,0.185
2346,-0.165,0.180
2347,-0.135,0.170
2348,-0.155,0.165
2349,-0.150,0.140
2350,-0.155,0.135
2351,-0.155,0.140
2352,-0.165,0.125
2353,-0.175,0.120
2354,-0.190,0.115
2355,-0.185,0.100
2356,-0.185,0.085
2357,-0.185,0.085
2358,-0.185,0.090
2359,-0.190,0.080
2360,-0.190,0.075
2361,-0.190,0.060
2362,-0.205,0.070
2363,-0.200,0.060
2364,-0.200,0.065
2365,-0.195,0.045
2366,-0.200,0.055
2367,-0.205,0.055
2368,-0.190,0.040
2369,-0.190,0.040
2370,-0.190,0.055
2371,-0.175,0.070
2372,-0.145,0.120
2373,-0.110,0.140
2374,-0.095,0.140
2375,-0.110,0.115
2376,-0.110,0.085
2377,-0.140,0.040
2378,-0.120,0.030
2379,-0.160,0.025
2380,-0.120,0.035
2381,-0.115,0.040
2382,-0.130,0.060
2383,-0.210,0.065
2384,-0.255,0.030
2385,-0.270,0.030
2386,-0.270,0.015
2387,-0.275,0.000
2388,-0.275,0.020
2389,-0.255,0.010
2390,-0.275,0.015
2391,-0.270,0.010
2392,-0.275,0.020
2393,-0.265,0.000
2394,-0.270,0.000
2395,-0.265,0.000
2396,-0.265,0.005
2397,-0.260,0.010
2398,-0.270,0.005
2399,-0.235,0.005
2400,-0.160,0.035
2401,-0.065,0.090
2402,-0.125,-0.005
2403,-0.300,-0.325
2404,-0.575,-0.780
2405,-0.795,-1.260
2406,-0.880,-1.675
2407,-0.965,-2.135
2408,-1.030,-2.185
2409,-0.950,-1.730
2410,-0.830,-1.445
2411,-0.745,-1.330
2412,-0.740,-1.215
2413,-0.685,-1.055
2414,-0.600,-0.855
2415,-0.545,-0.640
2416,-0.460,-0.435
2417,-0.375,-0.250
2418,-0.270,-0.120
2419,-0.160,0.000
2420,-0.080,0.125
2421,-0.035,0.265
2422,-0.015,0.380
2423,0.000,0.405
2424,0.005,0.420
2425,0.025,0.445
2426,0.035,0.450
2427,0.045,0.455
2428,0.065,0.485
2429,0.085,0.475
2430,0.090,0.510
2431,0.100,0.510
2432,0.105,0.520
2433,0.110,0.515
2434,0.115,0.535
2435,0.110,0.525
2436,0.120,0.540
2437,0.130,0.555
2438,0.135,0.545
2439,0.140,0.545
2440,0.150,0.550
2441,0.150,0.555
2442,0.140,0.540
2443,0.140,0.555
2444,0.145,0.560
2445,0.115,0.560
2446,0.125,0.540
2447,0.110,0.530
2448,0.085,0.515
2449,0.085,0.515
2450,0.055,0.505
2451,0.050,0.485
2452,0.025,0.470
2453,0.000,0.450
2454,-0.005,0.410
2455,-0.015,0.435
2456,-0.045,0.390
2457,-0.060,0.355
2458,-0.080,0.335
2459,-0.105,0.315
2460,-0.115,0.275
2461,-0.130,0.270
2462,-0.135,0.265
2463,-0.150,0.245
2464,-0.155,0.245
2465,-0.155,0.230
2466,-0.140,0.210
2467,-0.140,0.205
2468,-0.130,0.225
2469,-0.125,0.215
2470,-0.115,0.215
2471,-0.115,0.205
2472,-0.105,0.205
2473,-0.115,0.200
2474,-0.100,0.190
2475,-0.120,0.205
2476,-0.120,0.190
2477,-0.125,0.180
2478,-0.140,0.190
2479,-0.140,0.150
2480,-0.145,0.160
2481,-0.165,0.155
2482,-0.150,0.170
2483,-0.145,0.135
2484,-0.155,0.145
2485,-0.160,0.115
2486,-0.160,0.115
2487,-0.175,0.110
2488,-0.165,0.110
2489,-0.155,0.125
2490,-0.160,0.100
2491,-0.155,0.125
2492,-0.160,0.100
2493,-0.160,0.095
2494,-0.180,0.085
2495,-0.170,0.085
2496,-0.135,0.095
2497,-0.115,0.150
2498,-0.110,0.160
2499,-0.090,0.180
2500,-0.060,0.185
2501,-0.075,0.165
2502,-0.085,0.135
2503,-0.120,0.095
2504,-0.130,0.075
2505,-0.115,0.065
2506,-0.090,0.080
2507,-0.075,0.115
2508,-0.095,0.100
2509,-0.170,0.120
2510,-0.210,0.080
2511,-0.220,0.050
2512,-0.225,0.055
2513,-0.220,0.035
2514,-0.230,0.050
2515,-0.230,0.055
2516,-0.230,0.055
2517,-0.230,0.055
2518,-0.245,0.045
2519,-0.235,0.035
2520,-0.240,0.045
2521,-0.240,0.015
2522,-0.235,0.025
2523,-0.225,0.040
2524,-0.210,0.040
2525,-0.185,0.040
2526,-0.085,0.065
2527,-0.065,0.150
2528,-0.160,-0.040
2529,-0.390,-0.395
2530,-0.660,-0.925
2531,-0.830,-1.375
2532,-0.905,-1.800
2533,-0.970,-2.215
2534,-0.980,-2.015
2535,-0.870,-1.590
2536,-0.770,-1.415
2537,-0.730,-1.285
2538,-0.725,-1.155
2539,-0.650,-0.980
2540,-0.550,-0.770
2541,-0.500,-0.545
2542,-0.425,-0.355
2543,-0.330,-0.190
2544,-0.205,-0.065
2545,-0.095,0.090
2546,-0.055,0.220
2547,0.000,0.340
2548,0.000,0.415
2549,0.025,0.425
2550,0.030,0.445
2551,0.055,0.460
2552,0.055,0.480
2553,0.060,0.480
2554,0.080,0.495
2555,0.070,0.490
2556,0.085,0.505
2557,0.105,0.520
2558,0.105,0.515
2559,0.125,0.515
2560,0.120,0.545
2561,0.130,0.545
2562,0.140,0.570
2563,0.150,0.550
2564,0.150,0.555
2565,0.140,0.575
2566,0.140,0.565
2567,0.155,0.580
2568,0.140,0.565
2569,0.125,0.575
2570,0.135,0.570
2571,0.115,0.560
2572,0.110,0.565
2573,0.110,0.550
2574,0.090,0.540
2575,0.070,0.505
2576,0.065,0.515
2577,0.035,0.490
2578,0.015,0.470
2579,0.000,0.460
2580,-0.030,0.420
2581,-0.040,0.400
2582,-0.065,0.360
2583,-0.075,0.350
2584,-0.090,0.350
2585,-0.105,0.300
2586,-0.110,0.280
2587,-0.140,0.280
2588,-0.125,0.275
2589,-0.140,0.270
2590,-0.125,0.240
2591,-0.140,0.235
2592,-0.125,0.235
2593,-0.135,0.240
2594,-0.125,0.220
2595,-0.115,0.215
2596,-0.110,0.210
2597,-0.105,0.225
2598,-0.100,0.220
2599,-0.085,0.220
2600,-0.095,0.210
2601,-0.095,0.190
2602,-0.095,0.205
2603,-0.105,0.200
2604,-0.120,0.185
2605,-0.105,0.185
2606,-0.110,0.170
2607,-0.125,0.150
2608,-0.125,0.155
2609,-0.140,0.135
2610,-0.145,0.130
2611,-0.140,0.120
2612,-0.160,0.120
2613,-0.160,0.100
2614,-0.130,0.115
2615,-0.160,0.110
2616,-0.150,0.100
2617,-0.170,0.110
2618,-0.160,0.115
2619,-0.165,0.095
2620,-0.175,0.115
2621,-0.165,0.100
2622,-0.175,0.095
2623,-0.145,0.095
2624,-0.130,0.110
2625,-0.110,0.120
2626,-0.100,0.170
2627,-0.060,0.175
2628,-0.070,0.165
2629,-0.065,0.145
2630,-0.070,0.115
2631,-0.090,0.080
2632,-0.100,0.085
2633,-0.100,0.075
2634,-0.080,0.075
2635,-0.080,0.105
2636,-0.130,0.100
2637,-0.190,0.095
2638,-0.220,0.065
2639,-0.255,0.055
2640,-0.235,0.065
2641,-0.225,0.045
2642,-0.220,0.040
2643,-0.220,0.045
2644,-0.240,0.050
2645,-0.245,0.040
2646,-0.255,0.055
2647,-0.250,0.055
2648,-0.225,0.045
2649,-0.230,0.040
2650,-0.220,0.010
2651,-0.230,0.025
2652,-0.225,0.005
2653,-0.205,0.020
2654,-0.125,0.040
2655,-0.040,0.100
2656,-0.115,0.065
2657,-0.250,-0.210
2658,-0.515,-0.570
2659,-0.765,-1.095
2660,-0.895,-1.485
2661,-0.965,-1.945
2662,-1.045,-2.210
2663,-0.975,-1.840
2664,-0.850,-1.480
2665,-0.755,-1.325
2666,-0.710,-1.220
2667,-0.700,-1.070
2668,-0.615,-0.900
2669,-0.525,-0.700
2670,-0.460,-0.475
2671,-0.395,-0.295
2672,-0.295,-0.145
2673,-0.190,-0.010
2674,-0.105,0.090
2675,-0.045,0.225
2676,-0.020,0.335
2677,-0.005,0.390
2678,0.010,0.415
2679,0.015,0.435
2680,0.040,0.460
2681,0.040,0.470
2682,0.055,0.480
2683,0.060,0.490
2684,0.080,0.495
2685,0.075,0.500
2686,0.095,0.510
2687,0.100,0.530
2688,0.115,0.535
2689,0.135,0.555
2690,0.105,0.540
2691,0.135,0.550
2692,0.145,0.560
2693,0.145,0.560
2694,0.155,0.570
2695,0.145,0.580
2696,0.130,0.570
2697,0.145,0.570
2698,0.115,0.570
2699,0.120,0.580
2700,0.110,0.575
2701,0.090,0.570
2702,0.075,0.540
2703,0.080,0.550
2704,0.060,0.545
2705,0.040,0.515
2706,0.025,0.500
2707,0.010,0.480
2708,-0.005,0.470
2709,-0.040,0.455
2710,-0.050,0.430
2711,-0.050,0.410
2712,-0.090,0.370
2713,-0.090,0.350
2714,-0.125,0.325
2715,-0.145,0.320
2716,-0.140,0.285
2717,-0.160,0.270
2718,-0.170,0.255
2719,-0.175,0.255
2720,-0.165,0.250
2721,-0.185,0.240
2722,-0.155,0.225
2723,-0.145,0.210
2724,-0.145,0.225
2725,-0.130,0.215
2726,-0.150,0.215
2727,-0.120,0.215
2728,-0.125,0.210
2729,-0.120,0.210
2730,-0.120,0.210
2731,-0.105,0.190
2732,-0.120,0.195
2733,-0.140,0.210
2734,-0.165,0.185
2735,-0.155,0.180
2736,-0.145,0.170
2737,-0.170,0.160
2738,-0.180,0.150
2739,-0.160,0.125
2740,-0.175,0.135
2741,-0.180,0.130
2742,-0.185,0.135
2743,-0.185,0.135
2744,-0.190,0.105
2745,-0.180,0.120
2746,-0.190,0.110
2747,-0.200,0.110
2748,-0.195,0.115
2749,-0.200,0.105
2750,-0.200,0.090
2751,-0.200,0.110
2752,-0.170,0.115
2753,-0.160,0.130
2754,-0.125,0.165
2755,-0.110,0.170
2756,-0.105,0.175
2757,-0.100,0.150
2758,-0.095,0.130
2759,-0.115,0.100
2760,-0.130,0.095
2761,-0.135,0.075
2762,-0.120,0.070
2763,-0.085,0.105
2764,-0.125,0.105
2765,-0.190,0.095
2766,-0.240,0.085
2767,-0.245,0.065
2768,-0.260,0.060
2769,-0.250,0.050
2770,-0.260,0.050
2771,-0.250,0.035
2772,-0.265,0.045
2773,-0.265,0.040
2774,-0.270,0.055
2775,-0.265,0.055
2776,-0.270,0.055
2777,-0.270,0.050
2778,-0.265,0.030
2779,-0.255,0.040
2780,-0.250,0.045
2781,-0.220,0.040
2782,-0.125,0.035
2783,-0.075,0.125
2784,-0.160,0.020
2785,-0.335,-0.290
2786,-0.605,-0.725
2787,-0.830,-1.205
2788,-0.930,-1.595
2789,-1.010,-2.060
2790,-1.075,-2.090
2791,-0.945,-1.690
2792,-0.850,-1.420
2793,-0.755,-1.300
2794,-0.745,-1.190
2795,-0.675,-1.045
2796,-0.550,-0.850
2797,-0.520,-0.640
2798,-0.465,-0.420
2799,-0.375,-0.240
2800,-0.270,-0.115
2801,-0.135,0.010
2802,-0.090,0.155
2803,-0.045,0.280
2804,-0.020,0.360
2805,-0.010,0.390
2806,0.000,0.430
2807,0.015,0.435
2808,0.020,0.450
2809,0.035,0.460
2810,0.040,0.485
2811,0.055,0.465
2812,0.060,0.480
2813,0.065,0.505
2814,0.095,0.490
2815,0.080,0.505
2816,0.095,0.515
2817,0.095,0.515
2818,0.095,0.530
2819,0.115,0.540
2820,0.105,0.530
2821,0.100,0.545
2822,0.110,0.580
2823,0.115,0.545
2824,0.105,0.550
2825,0.110,0.550
2826,0.090,0.550
2827,0.075,0.540
2828,0.075,0.530
2829,0.055,0.520
2830,0.045,0.515
2831,0.025,0.500
2832,-0.005,0.485
2833,-0.020,0.465
2834,-0.025,0.450
2835,-0.055,0.440
2836,-0.065,0.390
2837,-0.075,0.380
2838,-0.085,0.335
2839,-0.115,0.340
2840,-0.135,0.310
2841,-0.145,0.290
2842,-0.155,0.275
2843,-0.170,0.250
2844,-0.175,0.220
2845,-0.180,0.220
2846,-0.180,0.215
2847,-0.175,0.200
2848,-0.170,0.185
2849,-0.175,0.180
2850,-0.170,0.170
2851,-0.145,0.170
2852,-0.165,0.140
2853,-0.155,0.160
2854,-0.140,0.170
2855,-0.145,0.150
2856,-0.150,0.145
2857,-0.155,0.135
2858,-0.150,0.155
2859,-0.150,0.140
2860,-0.150,0.145
2861,-0.155,0.120
2862,-0.155,0.100
2863,-0.180,0.095
2864,-0.160,0.090
2865,-0.180,0.075
2866,-0.185,0.075
2867,-0.200,0.055
2868,-0.190,0.060
2869,-0.190,0.065
2870,-0.200,0.055
2871,-0.195,0.055
2872,-0.185,0.050
2873,-0.215,0.040
2874,-0.185,0.035
2875,-0.200,0.065
2876,-0.200,0.025
2877,-0.210,0.035
2878,-0.200,0.030
2879,-0.170,0.045
2880,-0.155,0.050
2881,-0.125,0.085
2882,-0.110,0.120
2883,-0.095,0.120
2884,-0.110,0.070
2885,-0.115,0.040
2886,-0.115,0.010
2887,-0.140,0.005
2888,-0.120,-0.010
2889,-0.080,0.000
2890,-0.090,0.015
2891,-0.130,0.020
2892,-0.185,0.020
2893,-0.225,0.000
2894,-0.245,-0.010
2895,-0.250,-0.015
2896,-0.245,-0.025
2897,-0.245,-0.030
2898,-0.240,-0.035
2899,-0.265,-0.030
2900,-0.250,-0.020
2901,-0.240,-0.035
2902,-0.240,-0.040
2903,-0.255,-0.045
2904,-0.255,-0.045
2905,-0.255,-0.040
2906,-0.245,-0.060
2907,-0.240,-0.055
2908,-0.190,-0.050
2909,-0.055,-0.025
2910,-0.095,0.015
2911,-0.215,-0.230
2912,-0.470,-0.595
2913,-0.710,-1.115
2914,-0.875,-1.535
2915,-0.930,-2.010
2916,-1.045,-2.380
2917,-1.025,-2.120
2918,-0.925,-1.735
2919,-0.810,-1.525
2920,-0.750,-1.420
2921,-0.735,-1.240
2922,-0.655,-1.085
2923,-0.580,-0.880
2924,-0.555,-0.685
2925,-0.460,-0.460
2926,-0.355,-0.325
2927,-0.225,-0.175
2928,-0.120,-0.060
2929,-0.075,0.090
2930,-0.060,0.225
2931,-0.020,0.290
2932,-0.010,0.315
2933,0.000,0.335
2934,0.000,0.345
2935,0.010,0.365
2936,0.010,0.370
2937,0.035,0.380
2938,0.040,0.385
2939,0.045,0.410
2940,0.050,0.405
2941,0.070,0.425
2942,0.075,0.420
2943,0.090,0.425
2944,0.115,0.440
2945,0.100,0.460
2946,0.110,0.445
2947,0.130,0.460
2948,0.125,0.475
2949,0.120,0.460
2950,0.130,0.465
2951,0.110,0.465
2952,0.120,0.460
2953,0.110,0.460
2954,0.100,0.455
2955,0.065,0.450
2956,0.060,0.445
2957,0.035,0.400
2958,0.035,0.400
2959,0.015,0.390
2960,0.005,0.370
2961,0.000,0.350
2962,-0.005,0.345
2963,-0.040,0.300
2964,-0.050,0.290
2965,-0.085,0.280
2966,-0.090,0.250
2967,-0.090,0.225
2968,-0.140,0.210
2969,-0.165,0.200
2970,-0.170,0.175
2971,-0.165,0.160
2972,-0.170,0.150
2973,-0.185,0.140
2974,-0.190,0.160
2975,-0.190,0.120
2976,-0.185,0.130
2977,-0.155,0.125
2978,-0.090,0.150
2979,-0.085,0.200
2980,0.025,0.245
2981,0.205,0.310
2982,0.330,0.400
2983,0.470,0.465
2984,0.685,0.545
2985,0.910,0.655
2986,1.155,0.790
2987,1.390,0.825
2988,1.570,0.835
2989,1.900,0.795
2990,1.620,0.805
2991,0.790,1.050
2992,0.315,1.365
2993,-0.090,1.220
2994,-0.490,1.060
2995,-0.680,0.810
2996,-0.710,0.505
2997,-0.695,0.280
2998,-0.635,0.120
2999,-0.570,-0.040
3000,-0.520,-0.195
3001,-0.520,-0.290
3002,-0.530,-0.315
3003,-0.530,-0.345
3004,-0.545,-0.350
3005,-0.530,-0.375
3006,-0.530,-0.390
3007,-0.510,-0.410
3008,-0.495,-0.380
3009,-0.480,-0.360
3010,-0.480,-0.360
3011,-0.455,-0.360
3012,-0.475,-0.395
3013,-0.510,-0.435
3014,-0.535,-0.475
3015,-0.535,-0.505
3016,-0.565,-0.520
3017,-0.550,-0.530
3018,-0.545,-0.520
3019,-0.580,-0.510
3020,-0.610,-0.535
3021,-0.660,-0.540
3022,-0.680,-0.570
3023,-0.685,-0.585
3024,-0.670,-0.575
3025,-0.645,-0.585
3026,-0.650,-0.580
3027,-0.635,-0.575
3028,-0.620,-0.595
3029,-0.595,-0.595
3030,-0.585,-0.570
3031,-0.560,-0.570
3032,-0.545,-0.560
3033,-0.535,-0.560
3034,-0.515,-0.550
3035,-0.480,-0.545
3036,-0.465,-0.525
3037,-0.435,-0.520
3038,-0.425,-0.490
3039,-0.415,-0.465
3040,-0.395,-0.460
3041,-0.375,-0.425
3042,-0.340,-0.420
3043,-0.350,-0.390
3044,-0.340,-0.370
3045,-0.335,-0.335
3046,-0.320,-0.315
3047,-0.305,-0.275
3048,-0.300,-0.245
3049,-0.290,-0.205
3050,-0.295,-0.175
3051,-0.280,-0.140
3052,-0.265,-0.140
3053,-0.250,-0.110
3054,-0.265,-0.085
3055,-0.265,-0.075
3056,-0.250,-0.035
3057,-0.245,-0.030
3058,-0.260,-0.025
3059,-0.250,-0.020
3060,-0.270,-0.005
3061,-0.255,0.005
3062,-0.260,0.005
3063,-0.265,0.005
3064,-0.245,0.000
3065,-0.250,0.000
3066,-0.260,0.000
3067,-0.250,0.000
3068,-0.265,0.005
3069,-0.250,0.010
3070,-0.270,-0.015
3071,-0.270,0.015
3072,-0.265,0.015
3073,-0.235,0.025
3074,-0.250,0.005
3075,-0.240,0.010
3076,-0.250,0.015
3077,-0.235,0.015
3078,-0.245,0.020
3079,-0.260,0.025
3080,-0.260,0.020
3081,-0.245,0.020
3082,-0.250,0.015
3083,-0.240,0.010
3084,-0.245,0.015
3085,-0.270,0.025
3086,-0.235,0.015
3087,-0.230,0.010
3088,-0.250,0.015
3089,-0.260,0.010
3090,-0.250,0.040
3091,-0.250,0.040
3092,-0.240,0.030
3093,-0.240,0.030
3094,-0.240,0.040
3095,-0.240,0.030
3096,-0.255,0.045
3097,-0.230,0.055
3098,-0.235,0.025
3099,-0.230,0.035
3100,-0.235,0.045
3101,-0.225,0.035
3102,-0.230,0.040
3103,-0.235,0.030
3104,-0.230,0.050
3105,-0.225,0.050
3106,-0.215,0.050
3107,-0.220,0.035
3108,-0.215,0.035
3109,-0.220,0.050
3110,-0.215,0.055
3111,-0.200,0.060
3112,-0.225,0.045
3113,-0.225,0.035
3114,-0.215,0.060
3115,-0.215,0.050
3116,-0.210,0.035
3117,-0.210,0.025
3118,-0.230,0.025
3119,-0.215,0.050
3120,-0.220,0.030
3121,-0.225,0.045
3122,-0.225,0.045
3123,-0.215,0.020
3124,-0.235,0.035
3125,-0.220,0.035
3126,-0.215,0.025
3127,-0.230,0.030
3128,-0.220,0.040
3129,-0.225,0.040
3130,-0.210,0.030
3131,-0.220,0.025
3132,-0.215,0.050
3133,-0.200,0.045
3134,-0.195,0.040
3135,-0.175,0.040
3136,-0.165,0.055
3137,-0.115,0.080
3138,-0.125,0.120
3139,-0.105,0.125
3140,-0.080,0.110
3141,-0.110,0.070
3142,-0.130,0.055
3143,-0.140,0.035
3144,-0.160,0.020
3145,-0.115,0.015
3146,-0.100,0.035
3147,-0.120,0.060
3148,-0.175,0.065
3149,-0.230,0.035
3150,-0.250,0.020
3151,-0.255,0.015
3152,-0.235,0.025
3153,-0.260,0.030
3154,-0.240,0.030
3155,-0.250,0.025
3156,-0.240,0.050
3157,-0.250,0.020
3158,-0.255,0.030
3159,-0.255,0.020
3160,-0.235,0.020
3161,-0.240,0.020
3162,-0.250,0.020
3163,-0.245,0.030
3164,-0.190,0.030
3165,-0.080,0.060
3166,-0.100,0.110
3167,-0.200,-0.080
3168,-0.420,-0.385
3169,-0.665,-0.830
3170,-0.830,-1.270
3171,-0.915,-1.690
3172,-0.985,-2.065
3173,-1.005,-2.030
3174,-0.880,-1.580
3175,-0.775,-1.375
3176,-0.685,-1.280
3177,-0.685,-1.190
3178,-0.600,-1.010
3179,-0.535,-0.820
3180,-0.505,-0.615
3181,-0.425,-0.425
3182,-0.320,-0.250
3183,-0.250,-0.110
3184,-0.160,-0.015
3185,-0.110,0.115
3186,-0.095,0.245
3187,-0.060,0.340
3188,-0.050,0.350
3189,-0.035,0.370
3190,-0.035,0.385
3191,-0.020,0.410
3192,-0.020,0.415
3193,-0.010,0.390
3194,-0.005,0.400
3195,0.010,0.420
3196,0.010,0.425
3197,0.010,0.430
3198,0.045,0.430
3199,0.035,0.425
3200,0.025,0.435
3201,0.030,0.430
3202,0.035,0.455
3203,0.065,0.450
3204,0.060,0.465
3205,0.040,0.465
3206,0.035,0.445
3207,0.055,0.465
3208,0.040,0.465
3209,0.060,0.470
3210,0.040,0.470
3211,0.040,0.455
3212,0.025,0.460
3213,0.025,0.460
3214,0.015,0.460
3215,0.010,0.470
3216,0.010,0.450
3217,-0.005,0.445
3218,-0.020,0.425
3219,-0.005,0.435
3220,-0.035,0.400
3221,-0.050,0.400
3222,-0.030,0.385
3223,-0.045,0.375
3224,-0.050,0.355
3225,-0.050,0.345
3226,-0.040,0.340
3227,-0.035,0.320
3228,-0.060,0.320
3229,-0.040,0.315
3230,-0.050,0.315
3231,-0.040,0.330
3232,-0.025,0.340
3233,-0.025,0.315
3234,-0.005,0.330
3235,0.000,0.340
3236,-0.005,0.350
3237,0.000,0.355
3238,0.000,0.375
3239,0.015,0.380
3240,0.035,0.400
3241,0.045,0.410
3242,0.050,0.410
3243,0.055,0.435
3244,0.055,0.415
3245,0.065,0.455
3246,0.070,0.435
3247,0.055,0.430
3248,0.055,0.430
3249,0.030,0.395
3250,0.010,0.365
3251,0.000,0.330
3252,0.000,0.325
3253,0.005,0.275
3254,0.010,0.235
3255,0.050,0.205
3256,0.165,0.195
3257,0.375,0.125
3258,0.485,0.075
3259,0.285,0.155
3260,-0.070,0.430
3261,-0.580,0.640
3262,-0.810,0.705
3263,-1.035,0.735
3264,-1.040,0.655
3265,-0.960,0.735
3266,-0.710,0.810
3267,-0.445,0.840
3268,-0.310,0.745
3269,-0.240,0.705
3270,-0.150,0.745
3271,-0.170,0.835
3272,-0.235,0.895
3273,-0.305,0.945
3274,-0.240,0.940
3275,-0.125,0.650
3276,-0.085,0.090
3277,-0.045,-0.120
3278,0.000,-0.160
3279,-0.005,-0.180
3280,-0.050,-0.220
3281,-0.115,-0.250
3282,-0.135,-0.270
3283,-0.140,-0.295
3284,-0.170,-0.310
3285,-0.155,-0.325
3286,-0.160,-0.350
3287,-0.155,-0.370
3288,-0.170,-0.400
3289,-0.170,-0.395
3290,-0.160,-0.425
3291,-0.175,-0.420
3292,-0.165,-0.465
3293,-0.175,-0.470
3294,-0.175,-0.505
3295,-0.160,-0.515
3296,-0.155,-0.550
3297,-0.135,-0.555
3298,-0.110,-0.565
3299,-0.110,-0.575
3300,-0.100,-0.590
3301,-0.090,-0.610
3302,-0.050,-0.620
3303,-0.070,-0.585
3304,-0.050,-0.600
3305,-0.040,-0.600
3306,-0.030,-0.580
3307,-0.045,-0.600
3308,-0.025,-0.555
3309,-0.050,-0.560
3310,-0.050,-0.535
3311,-0.065,-0.495
3312,-0.075,-0.485
3313,-0.090,-0.490
3314,-0.085,-0.460
3315,-0.090,-0.425
3316,-0.105,-0.425
3317,-0.120,-0.395
3318,-0.140,-0.355
3319,-0.150,-0.335
3320,-0.160,-0.315
3321,-0.150,-0.290
3322,-0.180,-0.260
3323,-0.195,-0.235
3324,-0.195,-0.205
3325,-0.220,-0.165
3326,-0.220,-0.140
3327,-0.230,-0.095
3328,-0.240,-0.090
3329,-0.225,-0.055
3330,-0.235,-0.025
3331,-0.235,0.000
3332,-0.235,0.020
3333,-0.235,0.030
3334,-0.230,0.035
3335,-0.230,0.050
3336,-0.235,0.055
3337,-0.245,0.045
3338,-0.245,0.065
3339,-0.250,0.080
3340,-0.240,0.075
3341,-0.255,0.070
3342,-0.250,0.090
3343,-0.250,0.075
3344,-0.250,0.080
3345,-0.240,0.105
3346,-0.240,0.095
3347,-0.230,0.110
3348,-0.245,0.100
3349,-0.235,0.100
3350,-0.230,0.090
3351,-0.235,0.085
3352,-0.240,0.105
3353,-0.235,0.130
3354,-0.220,0.115
3355,-0.240,0.100
3356,-0.220,0.130
3357,-0.215,0.135
3358,-0.210,0.115
3359,-0.205,0.130
3360,-0.205,0.130
3361,-0.205,0.120
3362,-0.205,0.120
3363,-0.215,0.130
3364,-0.210,0.115
3365,-0.200,0.110
3366,-0.195,0.120
3367,-0.185,0.130
3368,-0.200,0.125
3369,-0.200,0.120
3370,-0.205,0.135
3371,-0.205,0.125
3372,-0.190,0.110
3373,-0.185,0.135
3374,-0.210,0.110
3375,-0.210,0.105
3376,-0.210,0.110
3377,-0.210,0.105
3378,-0.200,0.110
3379,-0.190,0.120
3380,-0.200,0.115
3381,-0.205,0.100
3382,-0.210,0.105
3383,-0.195,0.110
3384,-0.200,0.100
3385,-0.205,0.120
3386,-0.200,0.100
3387,-0.180,0.115
3388,-0.190,0.110
3389,-0.190,0.110
3390,-0.195,0.105
3391,-0.195,0.100
3392,-0.200,0.120
3393,-0.185,0.115
3394,-0.160,0.135
3395,-0.125,0.165
3396,-0.105,0.195
3397,-0.080,0.200
3398,-0.065,0.200
3399,-0.070,0.175
3400,-0.085,0.140
3401,-0.100,0.105
3402,-0.115,0.100
3403,-0.110,0.095
3404,-0.070,0.105
3405,-0.085,0.135
3406,-0.120,0.125
3407,-0.185,0.120
3408,-0.200,0.100
3409,-0.230,0.090
3410,-0.235,0.085
3411,-0.230,0.085
3412,-0.250,0.085
3413,-0.230,0.100
3414,-0.215,0.095
3415,-0.235,0.100
3416,-0.245,0.090
3417,-0.225,0.090
3418,-0.230,0.090
3419,-0.215,0.075
3420,-0.240,0.090
3421,-0.235,0.085
3422,-0.190,0.080
3423,-0.070,0.080
3424,-0.060,0.160
3425,-0.150,0.015
3426,-0.355,-0.310
3427,-0.620,-0.800
3428,-0.790,-1.280
3429,-0.890,-1.710
3430,-0.925,-2.125
3431,-0.945,-2.045
3432,-0.840,-1.590
3433,-0.725,-1.380
3434,-0.680,-1.240
3435,-0.655,-1.095
3436,-0.575,-0.935
3437,-0.525,-0.720
3438,-0.495,-0.505
3439,-0.420,-0.315
3440,-0.315,-0.140
3441,-0.210,-0.020
3442,-0.125,0.095
3443,-0.065,0.245
3444,-0.040,0.355
3445,-0.040,0.430
3446,-0.020,0.465
3447,-0.015,0.470
3448,-0.015,0.470
3449,0.000,0.490
3450,0.000,0.520
3451,0.005,0.480
3452,0.000,0.510
3453,0.020,0.500
3454,0.010,0.515
3455,0.035,0.510
3456,0.045,0.520
3457,0.035,0.535
3458,0.040,0.540
3459,0.045,0.535
3460,0.040,0.535
3461,0.035,0.535
3462,0.040,0.545
3463,0.040,0.540
3464,0.045,0.540
3465,0.035,0.540
3466,0.025,0.555
3467,0.045,0.555
3468,0.035,0.540
3469,0.025,0.550
3470,0.005,0.555
3471,0.015,0.540
3472,0.000,0.550
3473,-0.010,0.515
3474,-0.025,0.505
3475,-0.030,0.510
3476,-0.040,0.475
3477,-0.020,0.475
3478,-0.055,0.450
3479,-0.065,0.430
3480,-0.060,0.430
3481,-0.055,0.400
3482,-0.060,0.405
3483,-0.070,0.405
3484,-0.070,0.390
3485,-0.070,0.380
3486,-0.070,0.385
3487,-0.055,0.405
3488,-0.075,0.390
3489,-0.075,0.400
3490,-0.055,0.420
3491,-0.055,0.430
3492,-0.055,0.440
3493,-0.025,0.440
3494,-0.025,0.465
3495,-0.020,0.475
3496,0.000,0.485
3497,-0.010,0.510
3498,0.000,0.515
3499,0.005,0.495
3500,0.000,0.510
3501,-0.010,0.505
3502,-0.005,0.470
3503,-0.005,0.445
3504,-0.020,0.455
3505,-0.045,0.415
3506,-0.055,0.390
3507,-0.075,0.370
3508,-0.100,0.325
3509,-0.120,0.295
3510,-0.135,0.270
3511,-0.140,0.235
3512,-0.160,0.235
3513,-0.185,0.195
3514,-0.200,0.190
3515,-0.190,0.175
3516,-0.200,0.185
3517,-0.205,0.145
3518,-0.210,0.160
3519,-0.230,0.160
3520,-0.230,0.165
3521,-0.225,0.145
3522,-0.230,0.160
3523,-0.220,0.145
3524,-0.230,0.135
3525,-0.200,0.140
3526,-0.165,0.165
3527,-0.155,0.205
3528,-0.135,0.200
3529,-0.130,0.215
3530,-0.135,0.190
3531,-0.155,0.165
3532,-0.155,0.125
3533,-0.165,0.105
3534,-0.145,0.090
3535,-0.100,0.115
3536,-0.130,0.140
3537,-0.200,0.140
3538,-0.235,0.130
3539,-0.265,0.110
3540,-0.275,0.095
3541,-0.270,0.100
3542,-0.290,0.085
3543,-0.295,0.105
3544,-0.295,0.095
3545,-0.290,0.090
3546,-0.280,0.110
3547,-0.270,0.095
3548,-0.280,0.105
3549,-0.290,0.105
3550,-0.285,0.085
3551,-0.315,0.075
3552,-0.305,0.075
3553,-0.275,0.080
3554,-0.235,0.095
3555,-0.110,0.120
3556,-0.155,0.150
3557,-0.290,-0.050
3558,-0.530,-0.375
3559,-0.775,-0.880
3560,-0.940,-1.280
3561,-1.010,-1.700
3562,-1.110,-2.080
3563,-1.085,-1.900
3564,-0.925,-1.455
3565,-0.850,-1.280
3566,-0.780,-1.175
3567,-0.765,-1.045
3568,-0.655,-0.885
3569,-0.570,-0.705
3570,-0.495,-0.490
3571,-0.450,-0.290
3572,-0.360,-0.140
3573,-0.255,-0.025
3574,-0.165,0.105
3575,-0.125,0.240
3576,-0.095,0.335
3577,-0.075,0.410
3578,-0.075,0.440
3579,-0.055,0.465
3580,-0.060,0.465
3581,-0.045,0.470
3582,-0.010,0.495
3583,-0.015,0.485
3584,-0.030,0.515
3585,0.000,0.530
3586,-0.020,0.515
3587,0.000,0.540
3588,0.010,0.535
3589,0.025,0.545
3590,0.035,0.560
3591,0.035,0.545
3592,0.045,0.570
3593,0.040,0.570
3594,0.040,0.575
3595,0.040,0.575
3596,0.030,0.570
3597,0.050,0.570
3598,0.020,0.565
3599,0.025,0.570
3600,0.005,0.555
3601,0.000,0.540
3602,-0.010,0.530
3603,-0.025,0.520
3604,-0.040,0.510
3605,-0.075,0.510
3606,-0.070,0.500
3607,-0.085,0.465
3608,-0.110,0.450
3609,-0.135,0.430
3610,-0.160,0.415
3611,-0.165,0.415
3612,-0.170,0.375
3613,-0.170,0.375
3614,-0.185,0.350
3615,-0.195,0.340
3616,-0.205,0.325
3617,-0.190,0.320
3618,-0.185,0.310
3619,-0.180,0.305
3620,-0.185,0.290
3621,-0.180,0.290
3622,-0.170,0.270
3623,-0.175,0.285
3624,-0.155,0.275
3625,-0.165,0.265
3626,-0.160,0.240
3627,-0.145,0.245
3628,-0.145,0.250
3629,-0.160,0.240
3630,-0.170,0.220
3631,-0.180,0.240
3632,-0.195,0.235
3633,-0.205,0.225
3634,-0.200,0.215
3635,-0.215,0.190
3636,-0.235,0.185
3637,-0.240,0.175
3638,-0.230,0.180
3639,-0.240,0.145
3640,-0.230,0.165
3641,-0.245,0.150
3642,-0.220,0.155
3643,-0.190,0.125
3644,-0.100,0.145
3645,0.060,0.150
3646,0.430,0.155
3647,0.690,0.140
3648,0.025,0.165
3649,-0.810,0.370
3650,-1.165,0.560
3651,-1.320,0.665
3652,-1.410,0.815
3653,-1.390,0.875
3654,-1.285,0.840
3655,-1.005,0.820
3656,-0.625,0.815
3657,-0.420,0.820
3658,-0.365,0.765
3659,-0.350,0.740
3660,-0.355,0.700
3661,-0.355,0.785
3662,-0.325,0.830
3663,-0.255,0.845
3664,-0.110,0.625
3665,-0.010,0.280
3666,0.000,0.035
3667,-0.030,-0.055
3668,-0.055,-0.075
3669,-0.050,-0.120
3670,-0.045,-0.140
3671,-0.040,-0.135
3672,-0.035,-0.145
3673,-0.045,-0.155
3674,-0.030,-0.155
3675,-0.055,-0.175
3676,-0.050,-0.190
3677,-0.030,-0.210
3678,-0.045,-0.205
3679,-0.040,-0.225
3680,-0.045,-0.250
3681,-0.045,-0.245
3682,-0.020,-0.260
3683,-0.020,-0.275
3684,-0.040,-0.290
3685,-0.020,-0.325
3686,-0.005,-0.320
3687,-0.005,-0.325
3688,0.005,-0.350
3689,0.010,-0.360
3690,0.015,-0.365
3691,0.025,-0.370
3692,0.035,-0.395
3693,0.060,-0.360
3694,0.060,-0.365
3695,0.060,-0.385
3696,0.055,-0.370
3697,0.045,-0.370
3698,0.040,-0.365
3699,0.045,-0.365
3700,0.025,-0.335
3701,0.010,-0.340
3702,0.005,-0.330
3703,-0.015,-0.345
3704,-0.025,-0.290
3705,-0.040,-0.305
3706,-0.050,-0.280
3707,-0.050,-0.260
3708,-0.065,-0.255
3709,-0.080,-0.260
3710,-0.090,-0.230
3711,-0.105,-0.205
3712,-0.120,-0.190
3713,-0.135,-0.140
3714,-0.140,-0.130
3715,-0.150,-0.100
3716,-0.170,-0.075
3717,-0.180,-0.030
3718,-0.185,-0.025
3719,-0.200,0.015
3720,-0.200,0.020
3721,-0.200,0.045
3722,-0.215,0.085
3723,-0.230,0.110
3724,-0.240,0.125
3725,-0.230,0.140
3726,-0.250,0.135
3727,-0.240,0.155
3728,-0.235,0.165
3729,-0.245,0.170
3730,-0.250,0.155
3731,-0.265,0.175
3732,-0.250,0.190
3733,-0.240,0.175
3734,-0.255,0.180
3735,-0.265,0.185
3736,-0.265,0.170
3737,-0.265,0.160
3738,-0.245,0.175
3739,-0.255,0.185
3740,-0.240,0.180
3741,-0.240,0.180
3742,-0.240,0.185
3743,-0.235,0.195
3744,-0.230,0.200
3745,-0.230,0.210
3746,-0.215,0.200
3747,-0.215,0.205
3748,-0.225,0.190
3749,-0.220,0.200
3750,-0.210,0.205
3751,-0.215,0.210
3752,-0.220,0.220
3753,-0.200,0.200
3754,-0.210,0.215
3755,-0.195,0.200
3756,-0.195,0.210
3757,-0.190,0.225
3758,-0.220,0.200
3759,-0.200,0.195
3760,-0.240,0.215
3761,-0.225,0.215
3762,-0.220,0.210
3763,-0.230,0.215
3764,-0.215,0.215
3765,-0.215,0.210
3766,-0.220,0.205
3767,-0.215,0.205
3768,-0.220,0.205
3769,-0.215,0.210
3770,-0.205,0.215
3771,-0.200,0.225
3772,-0.215,0.210
3773,-0.210,0.205
3774,-0.205,0.210
3775,-0.190,0.210
3776,-0.210,0.195
3777,-0.210,0.220
3778,-0.190,0.210
3779,-0.170,0.235
3780,-0.145,0.245
3781,-0.130,0.265
3782,-0.110,0.300
3783,-0.090,0.325
3784,-0.090,0.280
3785,-0.105,0.260
3786,-0.100,0.235
3787,-0.115,0.215
3788,-0.115,0.200
3789,-0.095,0.205
3790,-0.070,0.225
3791,-0.085,0.245
3792,-0.145,0.245
3793,-0.215,0.225
3794,-0.225,0.215
3795,-0.210,0.195
3796,-0.215,0.200
3797,-0.215,0.210
3798,-0.205,0.205
3799,-0.205,0.200
3800,-0.220,0.215
3801,-0.205,0.195
3802,-0.205,0.200
3803,-0.215,0.200
3804,-0.205,0.210
3805,-0.200,0.200
3806,-0.205,0.205
3807,-0.185,0.205
3808,-0.145,0.200
3809,-0.035,0.230
3810,-0.040,0.285
3811,-0.135,0.115
3812,-0.365,-0.185
3813,-0.630,-0.695
3814,-0.805,-1.155
3815,-0.875,-1.575
3816,-0.910,-1.975
3817,-0.935,-1.960
3818,-0.835,-1.515
3819,-0.755,-1.305
3820,-0.700,-1.170
3821,-0.680,-1.050
3822,-0.600,-0.875
3823,-0.530,-0.710
3824,-0.495,-0.490
3825,-0.405,-0.300
3826,-0.325,-0.100
3827,-0.225,0.030
3828,-0.125,0.130
3829,-0.070,0.280
3830,-0.020,0.415
3831,-0.020,0.520
3832,0.000,0.560
3833,0.005,0.590
3834,0.015,0.600
3835,0.020,0.610
3836,0.050,0.645
3837,0.025,0.635
3838,0.055,0.645
3839,0.045,0.645
3840,0.045,0.645
3841,0.070,0.630
3842,0.055,0.650
3843,0.080,0.660
3844,0.080,0.655
3845,0.080,0.645
3846,0.080,0.645
3847,0.085,0.645
3848,0.090,0.650
3849,0.090,0.665
3850,0.080,0.655
3851,0.085,0.675
3852,0.085,0.675
3853,0.095,0.675
3854,0.085,0.665
3855,0.085,0.675
3856,0.090,0.655
3857,0.070,0.660
3858,0.060,0.635
3859,0.045,0.660
3860,0.020,0.650
3861,0.030,0.635
3862,0.015,0.620
3863,0.010,0.605
3864,0.005,0.600
3865,0.005,0.590
3866,-0.025,0.560
3867,-0.020,0.540
3868,-0.020,0.535
3869,-0.030,0.515
3870,-0.020,0.510
3871,-0.040,0.520
3872,-0.050,0.500
3873,-0.045,0.510
3874,-0.025,0.505
3875,-0.040,0.515
3876,-0.035,0.505
3877,-0.040,0.530
3878,-0.020,0.510
3879,-0.030,0.510
3880,-0.015,0.545
3881,-0.010,0.530
3882,-0.005,0.550
3883,0.000,0.560
3884,0.015,0.560
3885,0.000,0.540
3886,0.020,0.550
3887,0.010,0.545
3888,0.010,0.565
3889,0.000,0.535
3890,0.000,0.530
3891,0.000,0.510
3892,-0.015,0.490
3893,-0.035,0.465
3894,-0.055,0.450
3895,-0.065,0.430
3896,-0.075,0.410
3897,-0.095,0.370
3898,-0.115,0.350
3899,-0.125,0.320
3900,-0.130,0.310
3901,-0.150,0.290
3902,-0.145,0.290
3903,-0.150,0.265
3904,-0.180,0.275
3905,-0.155,0.250
3906,-0.160,0.250
3907,-0.170,0.265
3908,-0.150,0.255
3909,-0.165,0.235
3910,-0.165,0.245
3911,-0.165,0.235
3912,-0.145,0.245
3913,-0.125,0.255
3914,-0.115,0.285
3915,-0.080,0.310
3916,-0.060,0.305
3917,-0.070,0.285
3918,-0.085,0.245
3919,-0.080,0.215
3920,-0.095,0.205
3921,-0.100,0.200
3922,-0.075,0.180
3923,-0.060,0.210
3924,-0.105,0.220
3925,-0.155,0.235
3926,-0.195,0.190
3927,-0.220,0.190
3928,-0.205,0.185
3929,-0.225,0.190
3930,-0.230,0.180
3931,-0.240,0.190
3932,-0.225,0.195
3933,-0.220,0.190
3934,-0.230,0.170
3935,-0.240,0.170
3936,-0.225,0.175
3937,-0.240,0.175
3938,-0.230,0.170
3939,-0.240,0.190
3940,-0.215,0.180
3941,-0.195,0.145
3942,-0.095,0.180
3943,-0.030,0.255
3944,-0.170,0.170
3945,-0.410,-0.120
3946,-0.685,-0.555
3947,-0.870,-1.105
3948,-0.955,-1.460
3949,-1.020,-1.950
3950,-1.040,-2.040
3951,-0.930,-1.625
3952,-0.830,-1.355
3953,-0.755,-1.190
3954,-0.750,-1.055
3955,-0.655,-0.900
3956,-0.550,-0.700
3957,-0.490,-0.480
3958,-0.420,-0.270
3959,-0.325,-0.110
3960,-0.210,0.045
3961,-0.110,0.155
3962,-0.040,0.290
3963,-0.030,0.425
3964,0.000,0.520
3965,0.020,0.550
3966,0.030,0.540
3967,0.050,0.585
3968,0.030,0.575
3969,0.045,0.610
3970,0.080,0.615
3971,0.075,0.620
3972,0.090,0.620
3973,0.075,0.610
3974,0.100,0.640
3975,0.110,0.650
3976,0.120,0.655
3977,0.120,0.655
3978,0.120,0.675
3979,0.125,0.665
3980,0.130,0.680
3981,0.120,0.685
3982,0.130,0.690
3983,0.120,0.680
3984,0.120,0.685
3985,0.085,0.675
3986,0.110,0.670
3987,0.105,0.635
3988,0.080,0.670
3989,0.085,0.635
3990,0.065,0.615
3991,0.040,0.600
3992,0.015,0.570
3993,0.000,0.565
3994,-0.005,0.560
3995,-0.020,0.535
3996,-0.050,0.525
3997,-0.050,0.500
3998,-0.075,0.490
3999,-0.080,0.455
4000,-0.105,0.440
4001,-0.115,0.430
4002,-0.115,0.410
4003,-0.130,0.400
4004,-0.145,0.385
4005,-0.155,0.380
4006,-0.140,0.370
4007,-0.115,0.360
4008,-0.140,0.360
4009,-0.125,0.360
4010,-0.105,0.345
4011,-0.115,0.355
4012,-0.120,0.345
4013,-0.110,0.330
4014,-0.115,0.340
4015,-0.105,0.345
4016,-0.110,0.325
4017,-0.125,0.335
4018,-0.135,0.330
4019,-0.145,0.305
4020,-0.150,0.315
4021,-0.160,0.305
4022,-0.165,0.300
4023,-0.175,0.275
4024,-0.175,0.280
4025,-0.180,0.275
4026,-0.180,0.255
4027,-0.185,0.260
4028,-0.160,0.265
4029,-0.185,0.240
4030,-0.185,0.225
4031,-0.195,0.240
4032,-0.180,0.250
4033,-0.185,0.250
4034,-0.180,0.240
4035,-0.190,0.240
4036,-0.195,0.245
4037,-0.150,0.235
4038,-0.145,0.260
4039,-0.120,0.295
4040,-0.090,0.330
4041,-0.075,0.320
4042,-0.080,0.290
4043,-0.095,0.260
4044,-0.095,0.240
4045,-0.125,0.210
4046,-0.110,0.200
4047,-0.095,0.220
4048,-0.080,0.250
4049,-0.125,0.235
4050,-0.170,0.235
4051,-0.215,0.210
4052,-0.235,0.200
4053,-0.225,0.210
4054,-0.225,0.195
4055,-0.235,0.205
4056,-0.220,0.185
4057,-0.210,0.220
4058,-0.225,0.210
4059,-0.235,0.220
4060,-0.215,0.210
4061,-0.240,0.200
4062,-0.220,0.195
4063,-0.225,0.225
4064,-0.225,0.195
4065,-0.190,0.190
4066,-0.105,0.205
4067,-0.020,0.260
4068,-0.115,0.260
4069,-0.300,-0.005
4070,-0.550,-0.385
4071,-0.800,-0.895
4072,-0.915,-1.295
4073,-0.965,-1.735
4074,-1.045,-2.035
4075,-0.960,-1.690
4076,-0.830,-1.320
4077,-0.750,-1.200
4078,-0.725,-1.090
4079,-0.685,-0.940
4080,-0.605,-0.780
4081,-0.510,-0.565
4082,-0.455,-0.360
4083,-0.360,-0.155
4084,-0.265,0.000
4085,-0.150,0.110
4086,-0.085,0.260
4087,-0.030,0.395
4088,-0.010,0.485
4089,0.010,0.535
4090,0.020,0.570
4091,0.035,0.575
4092,0.030,0.595
4093,0.040,0.600
4094,0.050,0.620
4095,0.075,0.630
4096,0.080,0.650
4097,0.080,0.640
4098,0.080,0.655
4099,0.105,0.660
4100,0.105,0.660
4101,0.115,0.680
4102,0.135,0.675
4103,0.120,0.695
4104,0.130,0.700
4105,0.160,0.695
4106,0.150,0.710
4107,0.135,0.700
4108,0.140,0.690
4109,0.135,0.710
4110,0.125,0.705
4111,0.120,0.710
4112,0.120,0.710
4113,0.100,0.685
4114,0.095,0.665
4115,0.075,0.675
4116,0.055,0.650
4117,0.045,0.615
4118,0.050,0.575
4119,0.005,0.575
4120,-0.005,0.590
4121,-0.025,0.565
4122,-0.035,0.530
4123,-0.050,0.500
4124,-0.085,0.485
4125,-0.100,0.455
4126,-0.115,0.450
4127,-0.120,0.425
4128,-0.125,0.400
4129,-0.135,0.410
4130,-0.145,0.380
4131,-0.145,0.370
4132,-0.140,0.375
4133,-0.155,0.365
4134,-0.150,0.345
4135,-0.135,0.345
4136,-0.135,0.355
4137,-0.115,0.340
4138,-0.130,0.340
4139,-0.110,0.370
4140,-0.115,0.345
4141,-0.110,0.330
4142,-0.120,0.340
4143,-0.110,0.325
4144,-0.115,0.315
4145,-0.130,0.330
4146,-0.120,0.325
4147,-0.130,0.310
4148,-0.140,0.305
4149,-0.130,0.290
4150,-0.150,0.295
4151,-0.155,0.290
4152,-0.160,0.270
4153,-0.170,0.280
4154,-0.165,0.255
4155,-0.170,0.265
4156,-0.170,0.245
4157,-0.165,0.240
4158,-0.185,0.240
4159,-0.170,0.220
4160,-0.180,0.225
4161,-0.185,0.250
4162,-0.170,0.240
4163,-0.135,0.260
4164,-0.125,0.275
4165,-0.100,0.300
4166,-0.090,0.310
4167,-0.080,0.305
4168,-0.080,0.300
4169,-0.085,0.245
4170,-0.100,0.220
4171,-0.115,0.210
4172,-0.105,0.190
4173,-0.080,0.205
4174,-0.070,0.225
4175,-0.125,0.225
4176,-0.185,0.225
4177,-0.215,0.220
4178,-0.205,0.200
4179,-0.230,0.205
4180,-0.225,0.195
4181,-0.215,0.205
4182,-0.215,0.195
4183,-0.235,0.200
4184,-0.210,0.195
4185,-0.220,0.175
4186,-0.220,0.195
4187,-0.220,0.180
4188,-0.235,0.200
4189,-0.215,0.180
4190,-0.220,0.205
4191,-0.210,0.200
4192,-0.170,0.185
4193,-0.055,0.205
4194,-0.055,0.285
4195,-0.145,0.195
4196,-0.360,-0.100
4197,-0.615,-0.550
4198,-0.815,-1.070
4199,-0.895,-1.445
4200,-0.955,-1.895
4201,-1.015,-2.060
4202,-0.930,-1.625
4203,-0.825,-1.355
4204,-0.740,-1.220
4205,-0.735,-1.125
4206,-0.675,-0.960
4207,-0.575,-0.780
4208,-0.520,-0.560
4209,-0.450,-0.360
4210,-0.355,-0.180
4211,-0.255,-0.035
4212,-0.140,0.100
4213,-0.065,0.220
4214,-0.005,0.365
4215,0.000,0.480
4216,0.005,0.530
4217,0.035,0.555
4218,0.050,0.585
4219,0.055,0.590
4220,0.045,0.585
4221,0.065,0.600
4222,0.080,0.620
4223,0.075,0.625
4224,0.105,0.625
4225,0.105,0.635
4226,0.110,0.635
4227,0.130,0.665
4228,0.135,0.640
4229,0.125,0.660
4230,0.140,0.655
4231,0.135,0.680
4232,0.140,0.670
4233,0.155,0.685
4234,0.150,0.700
4235,0.150,0.690
4236,0.150,0.685
4237,0.135,0.695
4238,0.135,0.690
4239,0.120,0.655
4240,0.125,0.645
4241,0.115,0.655
4242,0.085,0.630
4243,0.070,0.595
4244,0.055,0.605
4245,0.040,0.565
4246,0.025,0.550
4247,0.015,0.555
4248,0.000,0.520
4249,-0.030,0.490
4250,-0.055,0.470
4251,-0.060,0.425
4252,-0.080,0.405
4253,-0.105,0.405
4254,-0.120,0.380
4255,-0.135,0.360
4256,-0.150,0.360
4257,-0.155,0.335
4258,-0.165,0.330
4259,-0.160,0.305
4260,-0.160,0.295
4261,-0.175,0.315
4262,-0.140,0.300
4263,-0.140,0.305
4264,-0.150,0.305
4265,-0.130,0.295
4266,-0.120,0.305
4267,-0.120,0.330
4268,-0.125,0.300
4269,-0.135,0.325
4270,-0.130,0.285
4271,-0.130,0.295
4272,-0.125,0.265
4273,-0.130,0.275
4274,-0.135,0.275
4275,-0.140,0.260
4276,-0.135,0.265
4277,-0.145,0.255
4278,-0.155,0.265
4279,-0.175,0.240
4280,-0.145,0.225
4281,-0.170,0.230
4282,-0.160,0.220
4283,-0.170,0.220
4284,-0.180,0.200
4285,-0.185,0.185
4286,-0.180,0.175
4287,-0.170,0.185
4288,-0.180,0.215
4289,-0.150,0.195
4290,-0.110,0.225
4291,-0.095,0.255
4292,-0.080,0.290
4293,-0.070,0.270
4294,-0.075,0.255
4295,-0.085,0.210
4296,-0.100,0.195
4297,-0.130,0.165
4298,-0.110,0.150
4299,-0.080,0.150
4300,-0.065,0.190
4301,-0.110,0.200
4302,-0.175,0.190
4303,-0.205,0.160
4304,-0.215,0.165
4305,-0.215,0.155
4306,-0.205,0.150
4307,-0.235,0.160
4308,-0.230,0.155
4309,-0.210,0.155
4310,-0.215,0.160
4311,-0.220,0.175
4312,-0.225,0.155
4313,-0.220,0.165
4314,-0.200,0.185
4315,-0.220,0.165
4316,-0.210,0.165
4317,-0.180,0.170
4318,-0.115,0.170
4319,-0.025,0.205
4320,-0.080,0.245
4321,-0.230,0.000
4322,-0.495,-0.360
4323,-0.725,-0.900
4324,-0.845,-1.340
4325,-0.915,-1.770
4326,-0.975,-2.115
4327,-0.950,-1.895
4328,-0.845,-1.500
4329,-0.750,-1.330
4330,-0.715,-1.190
4331,-0.675,-1.040
4332,-0.580,-0.890
4333,-0.520,-0.665
4334,-0.460,-0.445
4335,-0.370,-0.265
4336,-0.280,-0.075
4337,-0.155,0.025
4338,-0.075,0.150
4339,-0.030,0.300
4340,0.010,0.435
4341,0.015,0.490
4342,0.035,0.525
4343,0.040,0.535
4344,0.060,0.570
4345,0.075,0.570
4346,0.085,0.570
4347,0.080,0.570
4348,0.090,0.590
4349,0.100,0.605
4350,0.125,0.610
4351,0.130,0.605
4352,0.140,0.635
4353,0.150,0.650
4354,0.170,0.640
4355,0.160,0.645
4356,0.155,0.645
4357,0.160,0.655
4358,0.160,0.655
4359,0.165,0.640
4360,0.160,0.655
4361,0.155,0.645
4362,0.160,0.640
4363,0.145,0.645
4364,0.140,0.615
4365,0.120,0.610
4366,0.105,0.595
4367,0.095,0.580
4368,0.080,0.560
4369,0.060,0.550
4370,0.040,0.530
4371,0.020,0.520
4372,0.000,0.495
4373,-0.010,0.460
4374,-0.050,0.450
4375,-0.065,0.415
4376,-0.075,0.385
4377,-0.080,0.365
4378,-0.110,0.355
4379,-0.145,0.335
4380,-0.130,0.300
4381,-0.145,0.290
4382,-0.150,0.270
4383,-0.160,0.265
4384,-0.165,0.250
4385,-0.160,0.255
4386,-0.145,0.245
4387,-0.150,0.250
4388,-0.140,0.270
4389,-0.145,0.245
4390,-0.140,0.240
4391,-0.145,0.250
4392,-0.135,0.250
4393,-0.125,0.255
4394,-0.125,0.245
4395,-0.125,0.245
4396,-0.110,0.260
4397,-0.125,0.240
4398,-0.135,0.235
4399,-0.135,0.225
4400,-0.155,0.235
4401,-0.140,0.230
4402,-0.140,0.205
4403,-0.145,0.205
4404,-0.140,0.210
4405,-0.145,0.205
4406,-0.145,0.200
4407,-0.155,0.180
4408,-0.155,0.190
4409,-0.160,0.195
4410,-0.160,0.180
4411,-0.155,0.175
4412,-0.160,0.180
4413,-0.130,0.185
4414,-0.105,0.195
4415,-0.085,0.205
4416,-0.070,0.245
4417,-0.055,0.245
4418,-0.060,0.215
4419,-0.065,0.205
4420,-0.085,0.165
4421,-0.085,0.155
4422,-0.090,0.140
4423,-0.065,0.130
4424,-0.050,0.150
4425,-0.100,0.175
4426,-0.145,0.170
4427,-0.200,0.155
4428,-0.205,0.140
4429,-0.200,0.125
4430,-0.200,0.130
4431,-0.185,0.125
4432,-0.190,0.125
4433,-0.180,0.140
4434,-0.185,0.130
4435,-0.190,0.130
4436,-0.180,0.125
4437,-0.205,0.130
4438,-0.205,0.130
4439,-0.195,0.145
4440,-0.195,0.115
4441,-0.170,0.120
4442,-0.120,0.130
4443,-0.005,0.145
4444,-0.045,0.230
4445,-0.135,0.045
4446,-0.400,-0.260
4447,-0.660,-0.750
4448,-0.830,-1.215
4449,-0.885,-1.620
4450,-0.960,-2.045
4451,-0.955,-1.995
4452,-0.825,-1.560
4453,-0.735,-1.335
4454,-0.690,-1.210
4455,-0.655,-1.065
4456,-0.585,-0.925
4457,-0.505,-0.730
4458,-0.435,-0.490
4459,-0.380,-0.300
4460,-0.260,-0.135
4461,-0.140,0.000
4462,-0.055,0.095
4463,-0.005,0.245
4464,0.005,0.380
4465,0.030,0.465
4466,0.030,0.470
4467,0.070,0.485
4468,0.065,0.515
4469,0.070,0.520
4470,0.095,0.540
4471,0.085,0.530
4472,0.100,0.550
4473,0.105,0.555
4474,0.115,0.565
4475,0.130,0.570
4476,0.155,0.560
4477,0.135,0.585
4478,0.150,0.600
4479,0.150,0.590
4480,0.145,0.615
4481,0.160,0.605
4482,0.150,0.615
4483,0.165,0.620
4484,0.155,0.645
4485,0.170,0.615
4486,0.155,0.610
4487,0.125,0.620
4488,0.135,0.610
4489,0.125,0.600
4490,0.115,0.595
4491,0.090,0.565
4492,0.080,0.565
4493,0.070,0.525
4494,0.030,0.530
4495,0.015,0.505
4496,-0.005,0.480
4497,-0.010,0.460
4498,-0.040,0.425
4499,-0.055,0.405
4500,-0.075,0.375
4501,-0.125,0.355
4502,-0.125,0.335
4503,-0.140,0.320
4504,-0.165,0.290
4505,-0.155,0.260
4506,-0.175,0.250
4507,-0.165,0.245
4508,-0.175,0.245
4509,-0.160,0.230
4510,-0.150,0.230
4511,-0.155,0.235
4512,-0.155,0.220
4513,-0.145,0.230
4514,-0.145,0.225
4515,-0.120,0.240
4516,-0.120,0.235
4517,-0.135,0.230
4518,-0.130,0.240
4519,-0.120,0.240
4520,-0.140,0.220
4521,-0.135,0.235
4522,-0.140,0.225
4523,-0.125,0.205
4524,-0.135,0.205
4525,-0.145,0.205
4526,-0.150,0.185
4527,-0.165,0.195
4528,-0.155,0.200
4529,-0.160,0.200
4530,-0.160,0.190
4531,-0.155,0.190
4532,-0.165,0.205
4533,-0.175,0.175
4534,-0.170,0.185
4535,-0.185,0.170
4536,-0.170,0.175
4537,-0.165,0.185
4538,-0.150,0.175
4539,-0.115,0.200
4540,-0.085,0.240
4541,-0.075,0.235
4542,-0.060,0.260
4543,-0.090,0.210
4544,-0.080,0.180
4545,-0.110,0.165
4546,-0.135,0.120
4547,-0.110,0.125
4548,-0.065,0.145
4549,-0.090,0.160
4550,-0.130,0.155
4551,-0.190,0.165
4552,-0.220,0.150
4553,-0.230,0.145
4554,-0.230,0.130
4555,-0.225,0.135
4556,-0.210,0.130
4557,-0.215,0.140
4558,-0.215,0.135
4559,-0.225,0.135
4560,-0.215,0.140
4561,-0.200,0.135
4562,-0.205,0.145
4563,-0.225,0.135
4564,-0.210,0.110
4565,-0.195,0.125
4566,-0.155,0.140
4567,-0.030,0.170
4568,-0.050,0.235
4569,-0.130,0.105
4570,-0.380,-0.225
4571,-0.635,-0.740
4572,-0.785,-1.200
4573,-0.845,-1.655
4574,-0.910,-2.055
4575,-0.935,-2.005
4576,-0.825,-1.575
4577,-0.740,-1.375
4578,-0.675,-1.250
4579,-0.650,-1.100
4580,-0.570,-0.945
4581,-0.510,-0.755
4582,-0.455,-0.525
4583,-0.395,-0.320
4584,-0.285,-0.145
4585,-0.170,-0.005
4586,-0.075,0.100
4587,-0.020,0.250
4588,0.020,0.405
4589,0.015,0.485
4590,0.030,0.500
4591,0.025,0.520
4592,0.040,0.540
4593,0.045,0.530
4594,0.075,0.555
4595,0.075,0.560
4596,0.085,0.560
4597,0.085,0.570
4598,0.085,0.575
4599,0.110,0.585
4600,0.125,0.600
4601,0.140,0.590
4602,0.130,0.595
4603,0.135,0.600
4604,0.175,0.625
4605,0.130,0.600
4606,0.150,0.625
4607,0.150,0.630
4608,0.145,0.635
4609,0.130,0.645
4610,0.120,0.665
4611,0.140,0.630
4612,0.115,0.630
4613,0.105,0.615
4614,0.080,0.610
4615,0.085,0.600
4616,0.050,0.560
4617,0.045,0.540
4618,0.025,0.505
4619,0.000,0.500
4620,-0.025,0.485
4621,-0.030,0.470
4622,-0.065,0.430
4623,-0.080,0.415
4624,-0.100,0.375
4625,-0.135,0.365
4626,-0.150,0.345
4627,-0.145,0.330
4628,-0.160,0.310
4629,-0.165,0.285
4630,-0.170,0.275
4631,-0.180,0.255
4632,-0.170,0.250
4633,-0.175,0.225
4634,-0.190,0.245
4635,-0.170,0.245
4636,-0.150,0.250
4637,-0.155,0.255
4638,-0.160,0.240
4639,-0.155,0.245
4640,-0.150,0.250
4641,-0.135,0.255
4642,-0.135,0.240
4643,-0.130,0.250
4644,-0.135,0.240
4645,-0.135,0.250
4646,-0.125,0.230
4647,-0.140,0.250
4648,-0.150,0.225
4649,-0.140,0.230
4650,-0.155,0.210
4651,-0.135,0.215
4652,-0.155,0.210
4653,-0.160,0.185
4654,-0.150,0.185
4655,-0.165,0.205
4656,-0.150,0.195
4657,-0.165,0.195
4658,-0.160,0.185
4659,-0.170,0.185
4660,-0.180,0.185
4661,-0.170,0.180
4662,-0.155,0.175
4663,-0.140,0.175
4664,-0.130,0.165
4665,-0.100,0.210
4666,-0.100,0.250
4667,-0.065,0.275
4668,-0.050,0.260
4669,-0.065,0.255
4670,-0.075,0.210
4671,-0.080,0.185
4672,-0.130,0.165
4673,-0.120,0.150
4674,-0.065,0.155
4675,-0.055,0.170
4676,-0.090,0.200
4677,-0.170,0.175
4678,-0.195,0.180
4679,-0.220,0.145
4680,-0.220,0.150
4681,-0.225,0.145
4682,-0.225,0.150
4683,-0.235,0.140
4684,-0.210,0.150
4685,-0.225,0.140
4686,-0.230,0.150
4687,-0.215,0.155
4688,-0.230,0.150
4689,-0.230,0.140
4690,-0.210,0.150
4691,-0.210,0.135
4692,-0.190,0.135
4693,-0.150,0.135
4694,-0.025,0.185
4695,-0.030,0.240
4696,-0.140,0.135
4697,-0.345,-0.195
4698,-0.600,-0.690
4699,-0.770,-1.165
4700,-0.830,-1.590
4701,-0.890,-2.010
4702,-0.945,-2.015
4703,-0.840,-1.580
4704,-0.735,-1.375
4705,-0.695,-1.245
4706,-0.670,-1.095
4707,-0.610,-0.940
4708,-0.540,-0.765
4709,-0.490,-0.530
4710,-0.450,-0.320
4711,-0.340,-0.155
4712,-0.230,-0.020
4713,-0.120,0.105
4714,-0.045,0.225
4715,-0.035,0.380
4716,-0.005,0.465
4717,0.000,0.515
4718,0.010,0.525
4719,0.020,0.535
4720,0.030,0.545
4721,0.040,0.560
4722,0.065,0.570
4723,0.070,0.580
4724,0.065,0.600
4725,0.070,0.600
4726,0.065,0.600
4727,0.100,0.615
4728,0.095,0.610
4729,0.115,0.610
4730,0.110,0.625
4731,0.130,0.620
4732,0.120,0.640
4733,0.130,0.650
4734,0.120,0.645
4735,0.120,0.670
4736,0.125,0.660
4737,0.125,0.670
4738,0.105,0.680
4739,0.110,0.635
4740,0.075,0.645
4741,0.075,0.625
4742,0.060,0.610
4743,0.035,0.615
4744,0.025,0.595
4745,0.015,0.590
4746,-0.010,0.545
4747,-0.025,0.535
4748,-0.045,0.515
4749,-0.070,0.485
4750,-0.080,0.460
4751,-0.110,0.440
4752,-0.130,0.415
4753,-0.155,0.390
4754,-0.190,0.375
4755,-0.170,0.355
4756,-0.205,0.330
4757,-0.200,0.325
4758,-0.200,0.290
4759,-0.205,0.295
4760,-0.210,0.265
4761,-0.230,0.265
4762,-0.225,0.270
4763,-0.210,0.270
4764,-0.200,0.270
4765,-0.200,0.280
4766,-0.195,0.270
4767,-0.175,0.260
4768,-0.180,0.265
4769,-0.180,0.265
4770,-0.175,0.265
4771,-0.170,0.255
4772,-0.185,0.275
4773,-0.200,0.265
4774,-0.190,0.270
4775,-0.190,0.245
4776,-0.185,0.250
4777,-0.200,0.240
4778,-0.200,0.215
4779,-0.210,0.215
4780,-0.210,0.225
4781,-0.215,0.210
4782,-0.215,0.240
4783,-0.200,0.220
4784,-0.205,0.210
4785,-0.195,0.225
4786,-0.185,0.210
4787,-0.220,0.230
4788,-0.205,0.210
4789,-0.200,0.220
4790,-0.215,0.195
4791,-0.185,0.215
4792,-0.170,0.225
4793,-0.140,0.240
4794,-0.150,0.260
4795,-0.110,0.305
4796,-0.095,0.300
4797,-0.110,0.290
4798,-0.110,0.265
4799,-0.120,0.215
4800,-0.140,0.175
4801,-0.160,0.185
4802,-0.125,0.165
4803,-0.095,0.205
4804,-0.120,0.215
4805,-0.175,0.195
4806,-0.215,0.205
4807,-0.245,0.190
4808,-0.260,0.170
4809,-0.260,0.180
4810,-0.250,0.150
4811,-0.260,0.165
4812,-0.235,0.160
4813,-0.250,0.170
4814,-0.245,0.190
4815,-0.260,0.180
4816,-0.260,0.165
4817,-0.245,0.150
4818,-0.250,0.165
4819,-0.255,0.155
4820,-0.235,0.155
4821,-0.235,0.165
4822,-0.160,0.170
4823,-0.055,0.230
4824,-0.125,0.255
4825,-0.245,-0.010
4826,-0.490,-0.400
4827,-0.725,-0.945
4828,-0.845,-1.370
4829,-0.910,-1.800
4830,-0.985,-2.140
4831,-0.950,-1.870
4832,-0.845,-1.480
4833,-0.755,-1.295
4834,-0.725,-1.175
4835,-0.690,-1.020
4836,-0.605,-0.860
4837,-0.555,-0.645
4838,-0.485,-0.405
4839,-0.440,-0.210
4840,-0.315,-0.055
4841,-0.210,0.040
4842,-0.105,0.185
4843,-0.070,0.325
4844,-0.045,0.450
4845,-0.040,0.505
4846,-0.005,0.520
4847,-0.010,0.540
4848,0.005,0.570
4849,0.000,0.575
4850,0.005,0.580
4851,0.025,0.590
4852,0.040,0.600
4853,0.025,0.600
4854,0.040,0.605
4855,0.050,0.620
4856,0.075,0.635
4857,0.080,0.630
4858,0.085,0.655
4859,0.085,0.655
4860,0.090,0.655
4861,0.105,0.670
4862,0.110,0.660
4863,0.095,0.675
4864,0.105,0.685
4865,0.095,0.665
4866,0.075,0.670
4867,0.075,0.670
4868,0.065,0.660
4869,0.045,0.660
4870,0.045,0.650
4871,0.010,0.620
4872,-0.010,0.600
4873,-0.020,0.570
4874,-0.030,0.545
4875,-0.045,0.550
4876,-0.080,0.505
4877,-0.095,0.505
4878,-0.125,0.455
4879,-0.140,0.435
4880,-0.160,0.420
4881,-0.200,0.405
4882,-0.205,0.355
4883,-0.225,0.345
4884,-0.235,0.350
4885,-0.225,0.315
4886,-0.225,0.305
4887,-0.230,0.300
4888,-0.235,0.305
4889,-0.235,0.290
4890,-0.225,0.305
4891,-0.215,0.295
4892,-0.205,0.285
4893,-0.200,0.290
4894,-0.190,0.300
4895,-0.185,0.305
4896,-0.175,0.290
4897,-0.200,0.300
4898,-0.200,0.290
4899,-0.195,0.275
4900,-0.195,0.295
4901,-0.185,0.295
4902,-0.195,0.260
4903,-0.215,0.265
4904,-0.205,0.265
4905,-0.225,0.260
4906,-0.215,0.255
4907,-0.225,0.255
4908,-0.215,0.240
4909,-0.215,0.225
4910,-0.220,0.245
4911,-0.230,0.230
4912,-0.235,0.230
4913,-0.230,0.235
4914,-0.235,0.225
4915,-0.220,0.240
4916,-0.210,0.240
4917,-0.220,0.240
4918,-0.200,0.235
4919,-0.155,0.275
4920,-0.160,0.305
4921,-0.140,0.325
4922,-0.130,0.300
4923,-0.135,0.290
4924,-0.140,0.250
4925,-0.140,0.235
4926,-0.165,0.215
4927,-0.155,0.195
4928,-0.120,0.205
4929,-0.120,0.225
4930,-0.150,0.240
4931,-0.215,0.230
4932,-0.275,0.210
4933,-0.265,0.205
4934,-0.270,0.195
4935,-0.260,0.195
4936,-0.265,0.195
4937,-0.255,0.190
4938,-0.270,0.190
4939,-0.275,0.215
4940,-0.250,0.200
4941,-0.250,0.210
4942,-0.255,0.190
4943,-0.255,0.215
4944,-0.245,0.200
4945,-0.250,0.210
4946,-0.210,0.210
4947,-0.105,0.205
4948,-0.055,0.290
4949,-0.145,0.230
4950,-0.295,-0.090
4951,-0.590,-0.520
4952,-0.790,-1.045
4953,-0.900,-1.460
4954,-0.965,-1.895
4955,-0.995,-1.865
4956,-0.885,-1.450
4957,-0.800,-1.245
4958,-0.705,-1.125
4959,-0.685,-0.990
4960,-0.610,-0.835
4961,-0.515,-0.645
4962,-0.465,-0.395
4963,-0.420,-0.230
4964,-0.330,-0.065
4965,-0.225,0.060
4966,-0.135,0.175
4967,-0.080,0.330
4968,-0.050,0.445
4969,-0.005,0.520
4970,-0.005,0.545
4971,-0.015,0.565
4972,0.010,0.560
4973,0.005,0.595
4974,0.010,0.600
4975,0.025,0.600
4976,0.030,0.610
4977,0.035,0.625
4978,0.050,0.640
4979,0.070,0.630
4980,0.065,0.640
4981,0.075,0.650
4982,0.065,0.660
4983,0.090,0.660
4984,0.080,0.665
4985,0.090,0.685
4986,0.095,0.680
4987,0.090,0.695
4988,0.080,0.695
4989,0.085,0.700
4990,0.050,0.675
4991,0.050,0.670
4992,0.020,0.660
4993,0.020,0.655
4994,0.005,0.675
4995,-0.005,0.650
4996,-0.020,0.620
4997,-0.050,0.605
4998,-0.060,0.580
4999,-0.080,0.580
5000,-0.085,0.540
5001,-0.135,0.520
5002,-0.140,0.495
5003,-0.160,0.460
5004,-0.175,0.425
5005,-0.195,0.410
5006,-0.210,0.375
5007,-0.225,0.370
5008,-0.225,0.365
5009,-0.225,0.335
5010,-0.230,0.310
5011,-0.220,0.310
5012,-0.225,0.285
5013,-0.220,0.295
5014,-0.230,0.290
5015,-0.215,0.290
5016,-0.220,0.310
5017,-0.190,0.300
5018,-0.200,0.310
5019,-0.195,0.305
5020,-0.180,0.310
5021,-0.180,0.290
5022,-0.190,0.300
5023,-0.180,0.275
5024,-0.195,0.290
5025,-0.195,0.280
5026,-0.190,0.285
5027,-0.185,0.275
5028,-0.185,0.275
5029,-0.180,0.260
5030,-0.190,0.255
5031,-0.210,0.255
5032,-0.220,0.245
5033,-0.190,0.260
5034,-0.210,0.265
5035,-0.225,0.250
5036,-0.210,0.230
5037,-0.225,0.220
5038,-0.205,0.260
5039,-0.230,0.235
5040,-0.215,0.260
5041,-0.215,0.235
5042,-0.185,0.255
5043,-0.150,0.275
5044,-0.140,0.325
5045,-0.115,0.335
5046,-0.095,0.325
5047,-0.110,0.315
5048,-0.100,0.280
5049,-0.130,0.265
5050,-0.130,0.240
5051,-0.150,0.225
5052,-0.120,0.245
5053,-0.095,0.280
5054,-0.120,0.270
5055,-0.185,0.255
5056,-0.225,0.225
5057,-0.250,0.215
5058,-0.255,0.210
5059,-0.250,0.200
5060,-0.250,0.225
5061,-0.235,0.215
5062,-0.255,0.205
5063,-0.255,0.200
5064,-0.255,0.235
5065,-0.255,0.225
5066,-0.250,0.230
5067,-0.240,0.215
5068,-0.240,0.225
5069,-0.230,0.235
5070,-0.215,0.240
5071,-0.175,0.230
5072,-0.055,0.275
5073,-0.060,0.315
5074,-0.175,0.065
5075,-0.410,-0.295
5076,-0.655,-0.845
5077,-0.800,-1.255
5078,-0.875,-1.660
5079,-0.980,-2.020
5080,-0.990,-1.725
5081,-0.865,-1.360
5082,-0.760,-1.195
5083,-0.715,-1.110
5084,-0.670,-0.965
5085,-0.585,-0.800
5086,-0.515,-0.575
5087,-0.460,-0.360
5088,-0.410,-0.180
5089,-0.310,-0.030
5090,-0.195,0.110
5091,-0.100,0.245
5092,-0.060,0.400
5093,-0.020,0.505
5094,-0.005,0.570
5095,0.000,0.585
5096,0.015,0.595
5097,0.010,0.635
5098,0.045,0.615
5099,0.035,0.625
5100,0.030,0.635
5101,0.040,0.650
5102,0.060,0.650
5103,0.055,0.645
5104,0.060,0.660
5105,0.075,0.665
5106,0.090,0.675
5107,0.100,0.680
5108,0.095,0.700
5109,0.100,0.700
5110,0.100,0.710
5111,0.110,0.700
5112,0.095,0.705
5113,0.105,0.710
5114,0.085,0.705
5115,0.100,0.705
5116,0.090,0.720
5117,0.050,0.695
5118,0.055,0.695
5119,0.040,0.670
5120,0.025,0.675
5121,0.000,0.660
5122,0.005,0.630
5123,-0.010,0.635
5124,-0.055,0.615
5125,-0.045,0.570
5126,-0.075,0.545
5127,-0.095,0.530
5128,-0.120,0.520
5129,-0.140,0.475
5130,-0.145,0.445
5131,-0.165,0.435
5132,-0.195,0.415
5133,-0.195,0.380
5134,-0.200,0.370
5135,-0.205,0.370
5136,-0.210,0.330
5137,-0.220,0.340
5138,-0.200,0.330
5139,-0.190,0.325
5140,-0.190,0.330
5141,-0.200,0.315
5142,-0.200,0.315
5143,-0.170,0.330
5144,-0.195,0.335
5145,-0.160,0.315
5146,-0.185,0.320
5147,-0.180,0.315
5148,-0.170,0.310
5149,-0.170,0.310
5150,-0.190,0.325
5151,-0.190,0.325
5152,-0.190,0.295
5153,-0.205,0.305
5154,-0.200,0.280
5155,-0.200,0.280
5156,-0.215,0.275
5157,-0.215,0.275
5158,-0.215,0.275
5159,-0.225,0.270
5160,-0.225,0.270
5161,-0.225,0.255
5162,-0.210,0.265
5163,-0.220,0.260
5164,-0.205,0.255
5165,-0.225,0.255
5166,-0.205,0.270
5167,-0.200,0.255
5168,-0.210,0.270
5169,-0.190,0.250
5170,-0.190,0.260
5171,-0.165,0.290
5172,-0.135,0.295
5173,-0.125,0.330
5174,-0.110,0.355
5175,-0.080,0.330
5176,-0.105,0.325
5177,-0.100,0.290
5178,-0.120,0.265
5179,-0.120,0.245
5180,-0.145,0.225
5181,-0.095,0.240
5182,-0.080,0.270
5183,-0.090,0.285
5184,-0.170,0.275
5185,-0.205,0.270
5186,-0.235,0.230
5187,-0.230,0.230
5188,-0.255,0.215
5189,-0.245,0.220
5190,-0.235,0.215
5191,-0.235,0.235
5192,-0.235,0.230
5193,-0.250,0.235
5194,-0.235,0.225
5195,-0.215,0.235
5196,-0.225,0.235
5197,-0.220,0.220
5198,-0.205,0.230
5199,-0.195,0.230
5200,-0.155,0.235
5201,-0.045,0.260
5202,-0.030,0.335
5203,-0.140,0.060
5204,-0.365,-0.315
5205,-0.575,-0.890
5206,-0.750,-1.320
5207,-0.805,-1.760
5208,-0.865,-2.045
5209,-0.935,-1.780
5210,-0.820,-1.405
5211,-0.750,-1.245
5212,-0.680,-1.130
5213,-0.655,-0.985
5214,-0.580,-0.815
5215,-0.515,-0.620
5216,-0.475,-0.405
5217,-0.430,-0.225
5218,-0.330,-0.030
5219,-0.195,0.085
5220,-0.095,0.225
5221,-0.045,0.365
5222,-0.015,0.490
5223,0.010,0.580
5224,0.020,0.600
5225,0.020,0.610
5226,0.030,0.625
5227,0.045,0.635
5228,0.070,0.640
5229,0.060,0.670
5230,0.065,0.670
5231,0.075,0.670
5232,0.080,0.690
5233,0.100,0.700
5234,0.105,0.705
5235,0.105,0.695
5236,0.120,0.705
5237,0.130,0.715
5238,0.135,0.720
5239,0.145,0.720
5240,0.140,0.720
5241,0.140,0.740
5242,0.150,0.715
5243,0.135,0.715
5244,0.140,0.730
5245,0.130,0.710
5246,0.120,0.720
5247,0.115,0.700
5248,0.075,0.690
5249,0.080,0.680
5250,0.060,0.670
5251,0.045,0.650
5252,0.030,0.640
5253,0.020,0.620
5254,-0.005,0.590
5255,-0.015,0.585
5256,-0.035,0.540
5257,-0.070,0.515
5258,-0.085,0.510
5259,-0.115,0.470
5260,-0.120,0.450
5261,-0.140,0.435
5262,-0.155,0.415
5263,-0.160,0.390
5264,-0.175,0.380
5265,-0.185,0.365
5266,-0.170,0.340
5267,-0.205,0.355
5268,-0.185,0.340
5269,-0.170,0.340
5270,-0.160,0.335
5271,-0.170,0.345
5272,-0.150,0.355
5273,-0.160,0.345
5274,-0.145,0.345
5275,-0.135,0.365
5276,-0.130,0.340
5277,-0.135,0.340
5278,-0.140,0.315
5279,-0.140,0.330
5280,-0.140,0.320
5281,-0.140,0.330
5282,-0.135,0.315
5283,-0.155,0.295
5284,-0.155,0.305
5285,-0.165,0.305
5286,-0.175,0.295
5287,-0.180,0.280
5288,-0.185,0.280
5289,-0.180,0.285
5290,-0.190,0.295
5291,-0.190,0.260
5292,-0.170,0.280
5293,-0.180,0.270
5294,-0.200,0.265
5295,-0.180,0.275
5296,-0.175,0.270
5297,-0.185,0.275
5298,-0.190,0.285
5299,-0.160,0.290
5300,-0.140,0.305
5301,-0.100,0.345
5302,-0.095,0.370
5303,-0.080,0.370
5304,-0.075,0.335
5305,-0.085,0.320
5306,-0.115,0.290
5307,-0.105,0.280
5308,-0.125,0.255
5309,-0.085,0.275
5310,-0.050,0.285
5311,-0.055,0.315
5312,-0.145,0.285
5313,-0.180,0.285
5314,-0.215,0.270
5315,-0.220,0.245
5316,-0.240,0.255
5317,-0.230,0.250
5318,-0.240,0.245
5319,-0.240,0.245
5320,-0.235,0.250
5321,-0.235,0.220
5322,-0.235,0.235
5323,-0.225,0.240
5324,-0.235,0.250
5325,-0.225,0.255
5326,-0.220,0.255
5327,-0.225,0.255
5328,-0.195,0.255
5329,-0.145,0.255
5330,-0.020,0.330
5331,-0.080,0.285
5332,-0.175,-0.030
5333,-0.465,-0.450
5334,-0.690,-0.990
5335,-0.830,-1.380
5336,-0.880,-1.780
5337,-0.980,-1.975
5338,-0.930,-1.555
5339,-0.810,-1.275
5340,-0.725,-1.140
5341,-0.680,-1.010
5342,-0.640,-0.850
5343,-0.550,-0.695
5344,-0.510,-0.480
5345,-0.445,-0.270
5346,-0.385,-0.100
5347,-0.295,0.045
5348,-0.175,0.155
5349,-0.100,0.290
5350,-0.050,0.440
5351,-0.030,0.540
5352,-0.010,0.595
5353,0.000,0.625
5354,0.005,0.620
5355,0.020,0.655
5356,0.025,0.630
5357,0.045,0.660
5358,0.050,0.640
5359,0.055,0.655
5360,0.080,0.665
5361,0.080,0.675
5362,0.080,0.675
5363,0.085,0.675
5364,0.095,0.690
5365,0.100,0.705
5366,0.110,0.720
5367,0.105,0.710
5368,0.100,0.715
5369,0.125,0.730
5370,0.115,0.745
5371,0.095,0.730
5372,0.110,0.715
5373,0.105,0.710
5374,0.100,0.720
5375,0.090,0.720
5376,0.105,0.690
5377,0.050,0.695
5378,0.045,0.675
5379,0.010,0.660
5380,0.010,0.635
5381,0.005,0.625
5382,-0.030,0.605
5383,-0.045,0.575
5384,-0.060,0.560
5385,-0.100,0.525
5386,-0.105,0.490
5387,-0.140,0.470
5388,-0.160,0.445
5389,-0.175,0.425
5390,-0.210,0.395
5391,-0.210,0.395
5392,-0.215,0.360
5393,-0.205,0.355
5394,-0.210,0.340
5395,-0.215,0.330
5396,-0.205,0.340
5397,-0.190,0.335
5398,-0.195,0.330
5399,-0.200,0.350
5400,-0.180,0.340
5401,-0.175,0.310
5402,-0.170,0.325
5403,-0.170,0.340
5404,-0.180,0.330
5405,-0.175,0.355
5406,-0.175,0.335
5407,-0.160,0.325
5408,-0.160,0.325
5409,-0.170,0.310
5410,-0.175,0.320
5411,-0.200,0.330
5412,-0.190,0.305
5413,-0.175,0.290
5414,-0.195,0.285
5415,-0.205,0.290
5416,-0.190,0.270
5417,-0.215,0.285
5418,-0.200,0.290
5419,-0.220,0.270
5420,-0.205,0.290
5421,-0.200,0.260
5422,-0.215,0.270
5423,-0.215,0.275
5424,-0.215,0.280
5425,-0.205,0.275
5426,-0.180,0.285
5427,-0.150,0.310
5428,-0.145,0.360
5429,-0.125,0.355
5430,-0.130,0.350
5431,-0.115,0.320
5432,-0.125,0.300
5433,-0.145,0.255
5434,-0.135,0.250
5435,-0.145,0.245
5436,-0.110,0.275
5437,-0.100,0.295
5438,-0.145,0.270
5439,-0.200,0.265
5440,-0.235,0.280
5441,-0.250,0.240
5442,-0.250,0.250
5443,-0.270,0.270
5444,-0.260,0.230
5445,-0.245,0.245
5446,-0.250,0.225
5447,-0.245,0.230
5448,-0.240,0.245
5449,-0.240,0.235
5450,-0.255,0.225
5451,-0.250,0.230
5452,-0.250,0.225
5453,-0.245,0.240
5454,-0.220,0.220
5455,-0.110,0.270
5456,-0.050,0.320
5457,-0.115,0.115
5458,-0.290,-0.205
5459,-0.545,-0.730
5460,-0.770,-1.150
5461,-0.855,-1.560
5462,-0.950,-1.900
5463,-1.030,-1.660
5464,-0.925,-1.295
5465,-0.795,-1.150
5466,-0.715,-1.055
5467,-0.680,-0.915
5468,-0.620,-0.745
5469,-0.520,-0.535
5470,-0.475,-0.340
5471,-0.410,-0.125
5472,-0.320,0.025
5473,-0.210,0.140
5474,-0.105,0.270
5475,-0.050,0.410
5476,-0.030,0.540
5477,-0.025,0.575
5478,0.000,0.570
5479,-0.010,0.645
5480,0.010,0.630
5481,0.035,0.640
5482,0.025,0.640
5483,0.050,0.655
5484,0.065,0.685
5485,0.075,0.675
5486,0.070,0.705
5487,0.085,0.685
5488,0.110,0.690
5489,0.110,0.705
5490,0.120,0.710
5491,0.130,0.715
5492,0.130,0.720
5493,0.115,0.740
5494,0.125,0.735
5495,0.125,0.740
5496,0.135,0.745
5497,0.115,0.740
5498,0.105,0.730
5499,0.100,0.730
5500,0.090,0.705
5501,0.065,0.690
5502,0.055,0.690
5503,0.030,0.690
5504,0.030,0.660
5505,0.000,0.650
5506,-0.015,0.610
5507,-0.025,0.575
5508,-0.050,0.550
5509,-0.090,0.535
5510,-0.110,0.520
5511,-0.115,0.475
5512,-0.155,0.440
5513,-0.160,0.430
5514,-0.185,0.415
5515,-0.180,0.360
5516,-0.205,0.380
5517,-0.190,0.345
5518,-0.195,0.335
5519,-0.210,0.335
5520,-0.220,0.310
5521,-0.200,0.310
5522,-0.195,0.300
5523,-0.180,0.300
5524,-0.175,0.330
5525,-0.180,0.310
5526,-0.175,0.320
5527,-0.165,0.305
5528,-0.165,0.315
5529,-0.155,0.310
5530,-0.145,0.300
5531,-0.150,0.315
5532,-0.175,0.305
5533,-0.185,0.300
5534,-0.180,0.295
5535,-0.185,0.300
5536,-0.195,0.290
5537,-0.190,0.300
5538,-0.200,0.280
5539,-0.190,0.255
5540,-0.190,0.255
5541,-0.195,0.255
5542,-0.200,0.240
5543,-0.195,0.245
5544,-0.205,0.250
5545,-0.200,0.255
5546,-0.210,0.245
5547,-0.205,0.250
5548,-0.220,0.235
5549,-0.200,0.245
5550,-0.190,0.255
5551,-0.165,0.280
5552,-0.095,0.295
5553,-0.090,0.330
5554,-0.085,0.320
5555,-0.095,0.295
5556,-0.115,0.255
5557,-0.105,0.250
5558,-0.125,0.225
5559,-0.140,0.210
5560,-0.105,0.240
5561,-0.080,0.255
5562,-0.100,0.280
5563,-0.160,0.255
5564,-0.215,0.235
5565,-0.230,0.210
5566,-0.245,0.200
5567,-0.235,0.235
5568,-0.250,0.230
5569,-0.245,0.245
5570,-0.245,0.225
5571,-0.235,0.210
5572,-0.240,0.235
5573,-0.240,0.235
5574,-0.225,0.235
5575,-0.235,0.235
5576,-0.240,0.245
5577,-0.235,0.230
5578,-0.215,0.220
5579,-0.155,0.260
5580,-0.035,0.335
5581,-0.070,0.210
5582,-0.185,-0.125
5583,-0.430,-0.650
5584,-0.655,-1.170
5585,-0.780,-1.575
5586,-0.845,-1.960
5587,-0.965,-1.860
5588,-0.920,-1.445
5589,-0.805,-1.240
5590,-0.710,-1.135
5591,-0.710,-0.985
5592,-0.635,-0.835
5593,-0.575,-0.625
5594,-0.510,-0.405
5595,-0.475,-0.205
5596,-0.415,-0.035
5597,-0.280,0.080
5598,-0.155,0.215
5599,-0.095,0.370
5600,-0.030,0.495
5601,-0.015,0.575
5602,0.000,0.600
5603,0.000,0.625
5604,0.010,0.650
5605,0.020,0.655
5606,0.050,0.680
5607,0.040,0.665
5608,0.035,0.675
5609,0.070,0.690
5610,0.070,0.690
5611,0.080,0.715
5612,0.090,0.695
5613,0.110,0.720
5614,0.110,0.715
5615,0.110,0.740
5616,0.110,0.730
5617,0.095,0.720
5618,0.115,0.715
5619,0.105,0.710
5620,0.105,0.730
5621,0.085,0.725
5622,0.105,0.710
5623,0.100,0.710
5624,0.065,0.695
5625,0.055,0.685
5626,0.075,0.690
5627,0.040,0.670
5628,0.030,0.640
5629,0.005,0.630
5630,0.015,0.605
5631,-0.005,0.575
5632,-0.040,0.570
5633,-0.040,0.550
5634,-0.065,0.515
5635,-0.065,0.490
5636,-0.110,0.465
5637,-0.135,0.430
5638,-0.145,0.415
5639,-0.175,0.395
5640,-0.190,0.380
5641,-0.210,0.370
5642,-0.200,0.350
5643,-0.215,0.335
5644,-0.205,0.320
5645,-0.220,0.340
5646,-0.205,0.320
5647,-0.220,0.320
5648,-0.195,0.320
5649,-0.195,0.310
5650,-0.160,0.320
5651,-0.170,0.320
5652,-0.180,0.320
5653,-0.185,0.310
5654,-0.165,0.325
5655,-0.165,0.305
5656,-0.170,0.295
5657,-0.180,0.305
5658,-0.180,0.315
5659,-0.195,0.275
5660,-0.205,0.270
5661,-0.190,0.285
5662,-0.215,0.275
5663,-0.235,0.275
5664,-0.205,0.270
5665,-0.205,0.265
5666,-0.220,0.250
5667,-0.225,0.255
5668,-0.210,0.235
5669,-0.220,0.245
5670,-0.230,0.230
5671,-0.235,0.215
5672,-0.245,0.240
5673,-0.225,0.245
5674,-0.230,0.235
5675,-0.220,0.240
5676,-0.230,0.230
5677,-0.215,0.240
5678,-0.170,0.270
5679,-0.180,0.305
5680,-0.135,0.340
5681,-0.125,0.315
5682,-0.135,0.280
5683,-0.135,0.235
5684,-0.145,0.215
5685,-0.160,0.205
5686,-0.165,0.205
5687,-0.130,0.210
5688,-0.120,0.250
5689,-0.135,0.250
5690,-0.200,0.250
5691,-0.240,0.230
5692,-0.265,0.210
5693,-0.280,0.190
5694,-0.250,0.210
5695,-0.255,0.215
5696,-0.265,0.205
5697,-0.285,0.225
5698,-0.270,0.220
5699,-0.245,0.230
5700,-0.255,0.200
5701,-0.255,0.205
5702,-0.265,0.215
5703,-0.260,0.205
5704,-0.265,0.205
5705,-0.260,0.195
5706,-0.205,0.230
5707,-0.105,0.280
5708,-0.065,0.290
5709,-0.140,-0.005
5710,-0.315,-0.415
5711,-0.565,-0.990
5712,-0.765,-1.400
5713,-0.850,-1.850
5714,-0.930,-2.130
5715,-0.970,-1.810
5716,-0.915,-1.465
5717,-0.805,-1.255
5718,-0.735,-1.165
5719,-0.710,-0.980
5720,-0.660,-0.810
5721,-0.585,-0.580
5722,-0.545,-0.370
5723,-0.490,-0.195
5724,-0.410,-0.010
5725,-0.275,0.095
5726,-0.160,0.240
5727,-0.095,0.385
5728,-0.055,0.520
5729,-0.030,0.575
5730,-0.030,0.605
5731,-0.005,0.615
5732,0.000,0.635
5733,0.020,0.650
5734,0.045,0.650
5735,0.020,0.675
5736,0.040,0.680
5737,0.080,0.670
5738,0.075,0.685
5739,0.075,0.685
5740,0.110,0.705
5741,0.105,0.725
5742,0.100,0.715
5743,0.105,0.725
5744,0.100,0.740
5745,0.105,0.735
5746,0.110,0.745
5747,0.105,0.730
5748,0.110,0.735
5749,0.095,0.720
5750,0.095,0.730
5751,0.085,0.715
5752,0.075,0.705
5753,0.065,0.705
5754,0.050,0.690
5755,0.035,0.670
5756,0.030,0.650
5757,0.005,0.630
5758,-0.010,0.600
5759,-0.005,0.595
5760,-0.055,0.570
5761,-0.060,0.520
5762,-0.070,0.525
5763,-0.090,0.470
5764,-0.100,0.465
5765,-0.130,0.450
5766,-0.140,0.425
5767,-0.170,0.395
5768,-0.190,0.365
5769,-0.205,0.360
5770,-0.210,0.350
5771,-0.225,0.335
5772,-0.230,0.335
5773,-0.230,0.320
5774,-0.230,0.330
5775,-0.220,0.310
5776,-0.220,0.315
5777,-0.210,0.330
5778,-0.210,0.310
5779,-0.210,0.315
5780,-0.210,0.310
5781,-0.205,0.315
5782,-0.205,0.290
5783,-0.200,0.310
5784,-0.175,0.305
5785,-0.195,0.300
5786,-0.190,0.300
5787,-0.195,0.300
5788,-0.195,0.285
5789,-0.190,0.295
5790,-0.210,0.275
5791,-0.220,0.270
5792,-0.225,0.265
5793,-0.215,0.280
5794,-0.230,0.255
5795,-0.250,0.250
5796,-0.260,0.250
5797,-0.245,0.255
5798,-0.240,0.235
5799,-0.245,0.250
5800,-0.235,0.235
5801,-0.255,0.240
5802,-0.240,0.225
5803,-0.240,0.240
5804,-0.240,0.250
5805,-0.210,0.265
5806,-0.185,0.285
5807,-0.170,0.305
5808,-0.130,0.320
5809,-0.120,0.300
5810,-0.125,0.250
5811,-0.145,0.260
5812,-0.145,0.230
5813,-0.170,0.210
5814,-0.160,0.225
5815,-0.120,0.255
5816,-0.130,0.270
5817,-0.165,0.260
5818,-0.225,0.245
5819,-0.255,0.240
5820,-0.280,0.230
5821,-0.280,0.230
5822,-0.260,0.235
5823,-0.275,0.215
5824,-0.280,0.220
5825,-0.265,0.245
5826,-0.260,0.245
5827,-0.260,0.240
5828,-0.255,0.240
5829,-0.280,0.230
5830,-0.260,0.230
5831,-0.270,0.230
5832,-0.260,0.230
5833,-0.255,0.230
5834,-0.215,0.245
5835,-0.110,0.320
5836,-0.105,0.230
5837,-0.170,-0.055
5838,-0.385,-0.485
5839,-0.655,-1.005
5840,-0.830,-1.415
5841,-0.920,-1.800
5842,-1.030,-1.905
5843,-1.020,-1.480
5844,-0.875,-1.215
5845,-0.780,-1.080
5846,-0.710,-0.985
5847,-0.690,-0.830
5848,-0.615,-0.645
5849,-0.530,-0.450
5850,-0.500,-0.250
5851,-0.425,-0.070
5852,-0.355,0.050
5853,-0.240,0.180
5854,-0.130,0.320
5855,-0.085,0.460
5856,-0.065,0.545
5857,-0.025,0.580
5858,-0.030,0.585
5859,-0.015,0.600
5860,-0.010,0.615
5861,0.000,0.645
5862,0.015,0.645
5863,0.030,0.660
5864,0.025,0.660
5865,0.055,0.665
5866,0.065,0.680
5867,0.065,0.675
5868,0.095,0.700
5869,0.090,0.700
5870,0.105,0.725
5871,0.120,0.705
5872,0.115,0.725
5873,0.110,0.730
5874,0.100,0.715
5875,0.100,0.715
5876,0.095,0.735
5877,0.090,0.730
5878,0.085,0.725
5879,0.075,0.715
5880,0.065,0.690
5881,0.060,0.695
5882,0.035,0.680
5883,0.015,0.660
5884,0.010,0.660
5885,-0.010,0.630
5886,-0.020,0.615
5887,-0.055,0.590
5888,-0.065,0.575
5889,-0.080,0.540
5890,-0.105,0.510
5891,-0.130,0.480
5892,-0.150,0.455
5893,-0.190,0.440
5894,-0.200,0.430
5895,-0.220,0.395
5896,-0.215,0.365
5897,-0.220,0.340
5898,-0.230,0.340
5899,-0.230,0.330
5900,-0.235,0.320
5901,-0.250,0.315
5902,-0.220,0.305
5903,-0.220,0.330
5904,-0.205,0.305
5905,-0.205,0.305
5906,-0.190,0.315
5907,-0.195,0.290
5908,-0.195,0.305
5909,-0.190,0.310
5910,-0.175,0.285
5911,-0.185,0.315
5912,-0.200,0.295
5913,-0.195,0.290
5914,-0.205,0.300
5915,-0.200,0.290
5916,-0.195,0.300
5917,-0.195,0.295
5918,-0.215,0.275
5919,-0.220,0.265
5920,-0.210,0.270
5921,-0.205,0.270
5922,-0.195,0.270
5923,-0.215,0.250
5924,-0.210,0.265
5925,-0.215,0.270
5926,-0.220,0.245
5927,-0.230,0.250
5928,-0.245,0.245
5929,-0.235,0.240
5930,-0.220,0.245
5931,-0.225,0.255
5932,-0.190,0.260
5933,-0.155,0.305
5934,-0.145,0.320
5935,-0.110,0.325
5936,-0.090,0.320
5937,-0.120,0.280
5938,-0.125,0.290
5939,-0.130,0.240
5940,-0.135,0.225
5941,-0.165,0.225
5942,-0.135,0.250
5943,-0.095,0.280
5944,-0.100,0.270
5945,-0.160,0.240
5946,-0.210,0.235
5947,-0.235,0.240
5948,-0.250,0.245
5949,-0.240,0.235
5950,-0.235,0.235
5951,-0.250,0.225
5952,-0.245,0.230
5953,-0.250,0.235
5954,-0.255,0.235
5955,-0.225,0.250
5956,-0.225,0.250
5957,-0.240,0.255
5958,-0.220,0.230
5959,-0.230,0.230
5960,-0.230,0.230
5961,-0.225,0.255
5962,-0.135,0.310
5963,-0.035,0.340
5964,-0.070,0.075
5965,-0.205,-0.295
5966,-0.455,-0.860
5967,-0.660,-1.270
5968,-0.790,-1.685
5969,-0.850,-1.995
5970,-0.950,-1.760
5971,-0.920,-1.405
5972,-0.835,-1.230
5973,-0.735,-1.125
5974,-0.710,-0.955
5975,-0.655,-0.810
5976,-0.570,-0.590
5977,-0.545,-0.375
5978,-0.495,-0.175
5979,-0.410,-0.010
5980,-0.310,0.100
5981,-0.170,0.255
5982,-0.085,0.395
5983,-0.040,0.500
5984,-0.005,0.600
5985,0.000,0.615
5986,0.030,0.625
5987,0.025,0.640
5988,0.045,0.665
5989,0.055,0.675
5990,0.050,0.680
5991,0.070,0.680
5992,0.065,0.695
5993,0.090,0.700
5994,0.100,0.715
5995,0.115,0.730
5996,0.120,0.730
5997,0.125,0.730
5998,0.115,0.750
5999,0.135,0.735
6000,0.140,0.755
6001,0.150,0.755
6002,0.160,0.745
6003,0.145,0.745
6004,0.140,0.730
6005,0.135,0.750
6006,0.140,0.730
6007,0.130,0.725
6008,0.125,0.725
6009,0.105,0.720
6010,0.080,0.695
6011,0.085,0.665
6012,0.055,0.655
6013,0.045,0.635
6014,0.020,0.620
6015,0.000,0.595
6016,-0.030,0.560
6017,-0.030,0.545
6018,-0.045,0.515
6019,-0.075,0.475
6020,-0.105,0.465
6021,-0.120,0.435
6022,-0.150,0.420
6023,-0.150,0.395
6024,-0.160,0.375
6025,-0.180,0.380
6026,-0.200,0.345
6027,-0.195,0.350
6028,-0.205,0.350
6029,-0.215,0.335
6030,-0.200,0.335
6031,-0.195,0.325
6032,-0.195,0.315
6033,-0.190,0.335
6034,-0.190,0.315
6035,-0.185,0.340
6036,-0.160,0.315
6037,-0.185,0.355
6038,-0.170,0.325
6039,-0.190,0.320
6040,-0.185,0.340
6041,-0.185,0.315
6042,-0.180,0.295
6043,-0.185,0.300
6044,-0.190,0.285
6045,-0.180,0.280
6046,-0.195,0.265
6047,-0.185,0.275
6048,-0.210,0.255
6049,-0.205,0.255
6050,-0.215,0.255
6051,-0.210,0.260
6052,-0.220,0.255
6053,-0.220,0.250
6054,-0.215,0.235
6055,-0.220,0.240
6056,-0.225,0.260
6057,-0.220,0.265
6058,-0.230,0.255
6059,-0.240,0.245
6060,-0.220,0.255
6061,-0.195,0.295
6062,-0.160,0.315
6063,-0.155,0.325
6064,-0.115,0.315
6065,-0.120,0.300
6066,-0.110,0.275
6067,-0.110,0.240
6068,-0.140,0.240
6069,-0.160,0.225
6070,-0.155,0.220
6071,-0.125,0.255
6072,-0.110,0.265
6073,-0.125,0.270
6074,-0.205,0.235
6075,-0.240,0.230
6076,-0.255,0.215
6077,-0.245,0.230
6078,-0.255,0.215
6079,-0.240,0.220
6080,-0.225,0.220
6081,-0.240,0.215
6082,-0.255,0.225
6083,-0.245,0.205
6084,-0.230,0.225
6085,-0.240,0.205
6086,-0.230,0.230
6087,-0.240,0.235
6088,-0.230,0.230
6089,-0.225,0.225
6090,-0.135,0.285
6091,-0.040,0.320
6092,-0.085,0.040
6093,-0.220,-0.350
6094,-0.490,-0.925
6095,-0.700,-1.360
6096,-0.820,-1.785
6097,-0.880,-2.025
6098,-0.970,-1.710
6099,-0.910,-1.365
6100,-0.815,-1.185
6101,-0.710,-1.080
6102,-0.700,-0.920
6103,-0.640,-0.740
6104,-0.550,-0.515
6105,-0.520,-0.280
6106,-0.470,-0.110
6107,-0.375,0.045
6108,-0.260,0.170
6109,-0.125,0.315
6110,-0.055,0.460
6111,-0.030,0.555
6112,-0.005,0.605
6113,0.015,0.625
6114,0.025,0.630
6115,0.030,0.655
6116,0.035,0.645
6117,0.055,0.675
6118,0.060,0.670
6119,0.065,0.680
6120,0.090,0.695
6121,0.085,0.690
6122,0.095,0.725
6123,0.100,0.715
6124,0.120,0.710
6125,0.120,0.740
6126,0.115,0.725
6127,0.135,0.720
6128,0.135,0.740
6129,0.140,0.735
6130,0.130,0.735
6131,0.125,0.730
6132,0.130,0.735
6133,0.120,0.715
6134,0.100,0.710
6135,0.085,0.690
6136,0.070,0.670
6137,0.060,0.660
6138,0.040,0.655
6139,0.020,0.640
6140,0.000,0.610
6141,-0.010,0.595
6142,-0.030,0.560
6143,-0.040,0.525
6144,-0.070,0.505
6145,-0.100,0.495
6146,-0.120,0.440
6147,-0.145,0.420
6148,-0.165,0.415
6149,-0.170,0.375
6150,-0.190,0.370
6151,-0.215,0.355
6152,-0.215,0.330
6153,-0.230,0.325
6154,-0.240,0.310
6155,-0.230,0.295
6156,-0.235,0.300
6157,-0.225,0.310
6158,-0.215,0.305
6159,-0.210,0.315
6160,-0.210,0.305
6161,-0.225,0.320
6162,-0.220,0.330
6163,-0.195,0.315
6164,-0.215,0.320
6165,-0.185,0.325
6166,-0.200,0.300
6167,-0.200,0.290
6168,-0.210,0.285
6169,-0.210,0.270
6170,-0.215,0.270
6171,-0.225,0.260
6172,-0.220,0.250
6173,-0.220,0.260
6174,-0.230,0.255
6175,-0.235,0.245
6176,-0.255,0.255
6177,-0.250,0.240
6178,-0.260,0.245
6179,-0.255,0.240
6180,-0.260,0.235
6181,-0.270,0.220
6182,-0.260,0.235
6183,-0.265,0.230
6184,-0.280,0.225
6185,-0.265,0.245
6186,-0.205,0.280
6187,-0.200,0.285
6188,-0.175,0.315
6189,-0.160,0.300
6190,-0.170,0.275
6191,-0.175,0.225
6192,-0.175,0.230
6193,-0.180,0.195
6194,-0.210,0.170
6195,-0.195,0.190
6196,-0.155,0.220
6197,-0.150,0.250
6198,-0.195,0.230
6199,-0.250,0.220
6200,-0.285,0.205
6201,-0.295,0.170
6202,-0.310,0.195
6203,-0.310,0.185
6204,-0.310,0.190
6205,-0.315,0.205
6206,-0.295,0.185
6207,-0.280,0.190
6208,-0.280,0.215
6209,-0.305,0.195
6210,-0.295,0.205
6211,-0.270,0.210
6212,-0.290,0.215
6213,-0.290,0.195
6214,-0.250,0.190
6215,-0.225,0.240
6216,-0.110,0.325
6217,-0.115,0.165
6218,-0.205,-0.150
6219,-0.445,-0.650
6220,-0.715,-1.130
6221,-0.895,-1.535
6222,-0.990,-1.945
6223,-1.060,-1.950
6224,-1.070,-1.500
6225,-0.940,-1.260
6226,-0.845,-1.125
6227,-0.765,-1.010
6228,-0.755,-0.865
6229,-0.680,-0.680
6230,-0.605,-0.435
6231,-0.575,-0.270
6232,-0.515,-0.070
6233,-0.405,0.045
6234,-0.290,0.170
6235,-0.170,0.320
6236,-0.125,0.445
6237,-0.090,0.550
6238,-0.070,0.570
6239,-0.050,0.585
6240,-0.040,0.605
6241,-0.015,0.605
6242,-0.005,0.625
6243,-0.015,0.640
6244,-0.005,0.650
6245,0.010,0.655
6246,0.010,0.675
6247,0.020,0.670
6248,0.030,0.675
6249,0.035,0.675
6250,0.045,0.685
6251,0.055,0.660
6252,0.075,0.710
6253,0.075,0.700
6254,0.070,0.730
6255,0.100,0.720
6256,0.085,0.730
6257,0.075,0.725
6258,0.075,0.695
6259,0.050,0.725
6260,0.050,0.710
6261,0.035,0.695
6262,0.035,0.685
6263,0.020,0.670
6264,0.000,0.645
6265,-0.010,0.625
6266,-0.035,0.620
6267,-0.055,0.600
6268,-0.080,0.580
6269,-0.085,0.565
6270,-0.130,0.545
6271,-0.140,0.500
6272,-0.160,0.475
6273,-0.170,0.435
6274,-0.190,0.425
6275,-0.225,0.390
6276,-0.230,0.350
6277,-0.265,0.355
6278,-0.275,0.340
6279,-0.265,0.330
6280,-0.270,0.330
6281,-0.270,0.300
6282,-0.265,0.305
6283,-0.280,0.305
6284,-0.265,0.280
6285,-0.255,0.295
6286,-0.255,0.290
6287,-0.245,0.275
6288,-0.245,0.275
6289,-0.240,0.290
6290,-0.245,0.320
6291,-0.240,0.290
6292,-0.250,0.285
6293,-0.245,0.290
6294,-0.240,0.280
6295,-0.255,0.290
6296,-0.255,0.275
6297,-0.255,0.280
6298,-0.265,0.240
6299,-0.265,0.245
6300,-0.250,0.250
6301,-0.270,0.245
6302,-0.290,0.245
6303,-0.285,0.235
6304,-0.280,0.235
6305,-0.290,0.240
6306,-0.280,0.220
6307,-0.305,0.230
6308,-0.305,0.230
6309,-0.300,0.220
6310,-0.285,0.200
6311,-0.305,0.210
6312,-0.290,0.200
6313,-0.300,0.195
6314,-0.250,0.235
6315,-0.245,0.275
6316,-0.210,0.285
6317,-0.195,0.305
6318,-0.185,0.275
6319,-0.195,0.240
6320,-0.200,0.220
6321,-0.210,0.205
6322,-0.220,0.180
6323,-0.225,0.190
6324,-0.205,0.190
6325,-0.175,0.220
6326,-0.200,0.215
6327,-0.250,0.210
6328,-0.295,0.190
6329,-0.310,0.185
6330,-0.310,0.185
6331,-0.335,0.185
6332,-0.335,0.190
6333,-0.320,0.195
6334,-0.325,0.200
6335,-0.340,0.175
6336,-0.320,0.195
6337,-0.320,0.190
6338,-0.310,0.200
6339,-0.300,0.215
6340,-0.320,0.205
6341,-0.310,0.205
6342,-0.290,0.200
6343,-0.280,0.200
6344,-0.205,0.260
6345,-0.100,0.310
6346,-0.160,0.065
6347,-0.260,-0.295
6348,-0.510,-0.830
6349,-0.735,-1.235
6350,-0.880,-1.665
6351,-0.950,-1.975
6352,-1.045,-1.800
6353,-0.985,-1.405
6354,-0.890,-1.230
6355,-0.810,-1.145
6356,-0.770,-0.980
6357,-0.715,-0.835
6358,-0.640,-0.635
6359,-0.590,-0.395
6360,-0.545,-0.190
6361,-0.495,-0.015
6362,-0.355,0.095
6363,-0.240,0.230
6364,-0.160,0.375
6365,-0.105,0.500
6366,-0.075,0.550
6367,-0.045,0.585
6368,-0.030,0.605
6369,-0.035,0.600
6370,-0.025,0.630
6371,-0.005,0.645
6372,-0.005,0.645
6373,0.000,0.660
6374,0.000,0.655
6375,0.020,0.680
6376,0.035,0.675
6377,0.050,0.670
6378,0.060,0.715
6379,0.060,0.700
6380,0.060,0.705
6381,0.060,0.740
6382,0.060,0.710
6383,0.070,0.725
6384,0.080,0.725
6385,0.070,0.745
6386,0.075,0.740
6387,0.060,0.740
6388,0.050,0.745
6389,0.045,0.705
6390,0.020,0.695
6391,0.025,0.695
6392,0.015,0.690
6393,0.000,0.660
6394,-0.025,0.640
6395,-0.045,0.615
6396,-0.055,0.610
6397,-0.080,0.585
6398,-0.075,0.540
6399,-0.135,0.525
6400,-0.140,0.490
6401,-0.160,0.485
6402,-0.200,0.455
6403,-0.205,0.405
6404,-0.230,0.395
6405,-0.240,0.345
6406,-0.255,0.350
6407,-0.275,0.335
6408,-0.270,0.305
6409,-0.265,0.305
6410,-0.265,0.290
6411,-0.265,0.300
6412,-0.270,0.295
6413,-0.260,0.305
6414,-0.255,0.305
6415,-0.250,0.310
6416,-0.245,0.295
6417,-0.230,0.315
6418,-0.220,0.285
6419,-0.220,0.285
6420,-0.230,0.310
6421,-0.240,0.285
6422,-0.235,0.290
6423,-0.255,0.290
6424,-0.250,0.270
6425,-0.245,0.260
6426,-0.255,0.250
6427,-0.255,0.255
6428,-0.270,0.250
6429,-0.275,0.245
6430,-0.280,0.255
6431,-0.290,0.225
6432,-0.270,0.250
6433,-0.290,0.240
6434,-0.285,0.230
6435,-0.285,0.245
6436,-0.290,0.225
6437,-0.310,0.230
6438,-0.295,0.230
6439,-0.290,0.240
6440,-0.285,0.245
6441,-0.260,0.255
6442,-0.235,0.270
6443,-0.210,0.320
6444,-0.205,0.315
6445,-0.180,0.280
6446,-0.195,0.275
6447,-0.215,0.245
6448,-0.210,0.215
6449,-0.210,0.195
6450,-0.240,0.210
6451,-0.225,0.220
6452,-0.175,0.235
6453,-0.195,0.240
6454,-0.240,0.225
6455,-0.300,0.215
6456,-0.315,0.210
6457,-0.335,0.205
6458,-0.320,0.195
6459,-0.325,0.205
6460,-0.320,0.205
6461,-0.305,0.220
6462,-0.315,0.200
6463,-0.315,0.205
6464,-0.320,0.220
6465,-0.315,0.205
6466,-0.300,0.230
6467,-0.310,0.225
6468,-0.295,0.210
6469,-0.290,0.205
6470,-0.275,0.230
6471,-0.150,0.315
6472,-0.100,0.285
6473,-0.175,-0.030
6474,-0.345,-0.470
6475,-0.595,-1.025
6476,-0.790,-1.425
6477,-0.875,-1.860
6478,-0.975,-2.030
6479,-1.025,-1.615
6480,-0.930,-1.315
6481,-0.850,-1.205
6482,-0.755,-1.065
6483,-0.755,-0.905
6484,-0.705,-0.710
6485,-0.590,-0.505
6486,-0.590,-0.310
6487,-0.530,-0.125
6488,-0.450,0.005
6489,-0.330,0.150
6490,-0.205,0.300
6491,-0.135,0.455
6492,-0.085,0.555
6493,-0.080,0.580
6494,-0.065,0.605
6495,-0.055,0.630
6496,-0.035,0.645
6497,-0.030,0.630
6498,-0.020,0.655
6499,0.005,0.670
6500,0.000,0.675
6501,0.010,0.680
6502,0.030,0.680
6503,0.030,0.695
6504,0.035,0.690
6505,0.045,0.705
6506,0.060,0.725
6507,0.060,0.730
6508,0.050,0.735
6509,0.065,0.725
6510,0.060,0.735
6511,0.055,0.740
6512,0.060,0.750
6513,0.065,0.730
6514,0.050,0.715
6515,0.040,0.705
6516,0.035,0.705
6517,0.005,0.700
6518,0.000,0.680
6519,-0.015,0.655
6520,-0.030,0.630
6521,-0.040,0.620
6522,-0.075,0.590
6523,-0.070,0.585
6524,-0.095,0.550
6525,-0.115,0.505
6526,-0.150,0.510
6527,-0.175,0.480
6528,-0.210,0.445
6529,-0.225,0.425
6530,-0.230,0.400
6531,-0.260,0.380
6532,-0.270,0.360
6533,-0.295,0.350
6534,-0.290,0.325
6535,-0.280,0.300
6536,-0.300,0.305
6537,-0.310,0.300
6538,-0.275,0.300
6539,-0.290,0.290
6540,-0.285,0.305
6541,-0.280,0.295
6542,-0.270,0.285
6543,-0.260,0.290
6544,-0.255,0.285
6545,-0.255,0.305
6546,-0.265,0.285
6547,-0.250,0.280
6548,-0.260,0.270
6549,-0.270,0.275
6550,-0.265,0.270
6551,-0.270,0.270
6552,-0.285,0.255
6553,-0.285,0.245
6554,-0.300,0.235
6555,-0.320,0.240
6556,-0.310,0.245
6557,-0.300,0.225
6558,-0.315,0.215
6559,-0.315,0.220
6560,-0.320,0.215
6561,-0.320,0.205
6562,-0.320,0.205
6563,-0.305,0.210
6564,-0.315,0.225
6565,-0.330,0.210
6566,-0.320,0.200
6567,-0.320,0.210
6568,-0.305,0.240
6569,-0.275,0.270
6570,-0.250,0.310
6571,-0.225,0.290
6572,-0.190,0.270
6573,-0.220,0.260
6574,-0.230,0.215
6575,-0.250,0.195
6576,-0.270,0.170
6577,-0.275,0.170
6578,-0.260,0.185
6579,-0.220,0.215
6580,-0.230,0.195
6581,-0.310,0.200
6582,-0.340,0.185
6583,-0.360,0.160
6584,-0.365,0.165
6585,-0.365,0.165
6586,-0.370,0.170
6587,-0.375,0.160
6588,-0.375,0.185
6589,-0.350,0.170
6590,-0.365,0.175
6591,-0.335,0.190
6592,-0.350,0.190
6593,-0.340,0.180
6594,-0.335,0.160
6595,-0.320,0.175
6596,-0.315,0.180
6597,-0.275,0.205
6598,-0.170,0.275
6599,-0.110,0.240
6600,-0.205,-0.075
6601,-0.385,-0.475
6602,-0.635,-1.015
6603,-0.835,-1.400
6604,-0.950,-1.860
6605,-1.020,-2.065
6606,-1.050,-1.700
6607,-0.950,-1.350
6608,-0.860,-1.200
6609,-0.785,-1.080
6610,-0.775,-0.915
6611,-0.690,-0.745
6612,-0.635,-0.530
6613,-0.580,-0.325
6614,-0.510,-0.130
6615,-0.440,0.000
6616,-0.350,0.095
6617,-0.215,0.270
6618,-0.165,0.395
6619,-0.110,0.515
6620,-0.120,0.550
6621,-0.080,0.580
6622,-0.055,0.605
6623,-0.050,0.600
6624,-0.045,0.610
6625,-0.025,0.615
6626,-0.030,0.620
6627,-0.010,0.645
6628,-0.010,0.640
6629,0.005,0.655
6630,0.025,0.655
6631,0.030,0.680
6632,0.020,0.675
6633,0.035,0.675
6634,0.050,0.695
6635,0.050,0.710
6636,0.055,0.695
6637,0.070,0.725
6638,0.070,0.700
6639,0.060,0.705
6640,0.045,0.715
6641,0.040,0.715
6642,0.045,0.705
6643,0.035,0.670
6644,0.030,0.670
6645,0.015,0.640
6646,-0.005,0.665
6647,-0.015,0.620
6648,-0.050,0.600
6649,-0.070,0.580
6650,-0.080,0.560
6651,-0.100,0.540
6652,-0.110,0.500
6653,-0.155,0.485
6654,-0.165,0.450
6655,-0.185,0.430
6656,-0.220,0.395
6657,-0.240,0.385
6658,-0.255,0.355
6659,-0.280,0.310
6660,-0.275,0.315
6661,-0.285,0.300
6662,-0.285,0.290
6663,-0.295,0.295
6664,-0.295,0.275
6665,-0.290,0.265
6666,-0.260,0.265
6667,-0.265,0.265
6668,-0.260,0.275
6669,-0.270,0.270
6670,-0.260,0.280
6671,-0.260,0.270
6672,-0.250,0.250
6673,-0.245,0.275
6674,-0.240,0.275
6675,-0.255,0.275
6676,-0.275,0.260
6677,-0.280,0.265
6678,-0.260,0.250
6679,-0.270,0.230
6680,-0.270,0.245
6681,-0.295,0.230
6682,-0.295,0.230
6683,-0.295,0.215
6684,-0.300,0.215
6685,-0.300,0.200
6686,-0.310,0.200
6687,-0.320,0.190
6688,-0.325,0.195
6689,-0.315,0.200
6690,-0.320,0.185
6691,-0.300,0.175
6692,-0.310,0.190
6693,-0.320,0.205
6694,-0.300,0.175
6695,-0.275,0.230
6696,-0.245,0.260
6697,-0.235,0.270
6698,-0.215,0.270
6699,-0.230,0.225
6700,-0.235,0.200
6701,-0.240,0.200
6702,-0.240,0.155
6703,-0.265,0.150
6704,-0.240,0.155
6705,-0.210,0.195
6706,-0.220,0.195
6707,-0.270,0.185
6708,-0.335,0.160
6709,-0.365,0.135
6710,-0.370,0.145
6711,-0.365,0.145
