'sample interval','ECG0','ECG1'
'0.0078125 sec','mV','mV'
0,-0.465,-0.030
1,-0.465,-0.020
2,-0.475,-0.030
3,-0.465,-0.040
4,-0.470,-0.020
5,-0.470,-0.030
6,-0.505,-0.040
7,-0.585,-0.035
8,-0.625,-0.045
9,-0.530,-0.140
10,0.050,-0.385
11,0.775,-0.470
12,0.640,-0.005
13,-0.480,0.545
14,-1.225,0.525
15,-0.980,-0.085
16,-0.660,-0.235
17,-0.510,-0.185
18,-0.480,-0.025
19,-0.455,-0.010
20,-0.455,0.015
21,-0.450,-0.005
22,-0.450,0.005
23,-0.440,0.005
24,-0.420,0.025
25,-0.415,0.005
26,-0.415,0.025
27,-0.390,0.025
28,-0.380,0.025
29,-0.355,0.030
30,-0.355,0.030
31,-0.330,0.030
32,-0.315,0.020
33,-0.295,0.020
34,-0.275,0.030
35,-0.225,0.020
36,-0.175,0.025
37,-0.130,0.025
38,-0.085,0.020
39,0.000,0.000
40,0.045,0.000
41,0.100,-0.010
42,0.105,-0.020
43,0.110,-0.015
44,0.095,-0.025
45,0.045,-0.025
46,-0.005,-0.010
47,-0.085,0.000
48,-0.135,0.010
49,-0.175,0.025
50,-0.225,0.000
51,-0.260,0.005
52,-0.295,0.000
53,-0.330,-0.005
54,-0.335,0.000
55,-0.335,0.005
56,-0.360,0.005
57,-0.355,0.005
58,-0.370,0.020
59,-0.355,0.000
60,-0.395,0.030
61,-0.380,0.015
62,-0.380,0.025
63,-0.385,0.010
64,-0.385,0.055
65,-0.410,0.020
66,-0.390,0.020
67,-0.390,0.015
68,-0.385,0.025
69,-0.355,0.030
70,-0.340,0.045
71,-0.320,0.050
72,-0.305,0.070
73,-0.285,0.075
74,-0.205,0.070
75,-0.185,0.070
76,-0.190,0.045
77,-0.175,0.025
78,-0.175,0.005
79,-0.190,-0.015
80,-0.285,-0.050
81,-0.335,0.000
82,-0.350,-0.010
83,-0.370,-0.020
84,-0.395,-0.030
85,-0.405,-0.050
86,-0.405,-0.055
87,-0.415,-0.045
88,-0.430,-0.060
89,-0.435,-0.045
90,-0.420,-0.055
91,-0.440,-0.045
92,-0.455,-0.060
93,-0.450,-0.045
94,-0.465,-0.065
95,-0.450,-0.065
96,-0.430,-0.070
97,-0.440,-0.055
98,-0.460,-0.075
99,-0.460,-0.080
100,-0.540,-0.070
101,-0.620,-0.110
102,-0.570,-0.180
103,-0.160,-0.380
104,0.565,-0.605
105,0.880,-0.340
106,0.015,0.320
107,-1.075,0.610
108,-1.185,0.140
109,-0.815,-0.285
110,-0.555,-0.300
111,-0.475,-0.190
112,-0.460,-0.080
113,-0.475,-0.040
114,-0.440,-0.050
115,-0.430,-0.045
116,-0.415,-0.030
117,-0.405,-0.025
118,-0.430,-0.030
119,-0.420,-0.025
120,-0.415,-0.050
121,-0.400,-0.020
122,-0.395,-0.030
123,-0.380,-0.030
124,-0.370,-0.045
125,-0.355,-0.010
126,-0.335,-0.030
127,-0.310,-0.060
128,-0.285,-0.040
129,-0.245,-0.055
130,-0.200,-0.045
131,-0.140,-0.035
132,-0.080,-0.075
133,-0.020,-0.080
134,0.030,-0.090
135,0.040,-0.105
136,0.070,-0.110
137,0.060,-0.105
138,0.045,-0.100
139,0.020,-0.115
140,-0.025,-0.075
141,-0.095,-0.060
142,-0.155,-0.055
143,-0.195,-0.060
144,-0.230,-0.065
145,-0.290,-0.050
146,-0.330,-0.050
147,-0.355,-0.050
148,-0.360,-0.050
149,-0.350,-0.035
150,-0.375,-0.055
151,-0.395,-0.025
152,-0.385,-0.020
153,-0.405,-0.030
154,-0.385,-0.030
155,-0.400,-0.025
156,-0.380,-0.035
157,-0.400,-0.035
158,-0.400,-0.035
159,-0.390,-0.025
160,-0.390,0.000
161,-0.380,-0.015
162,-0.380,-0.040
163,-0.390,-0.030
164,-0.365,-0.010
165,-0.355,-0.030
166,-0.320,-0.010
167,-0.335,0.010
168,-0.325,0.030
169,-0.265,0.035
170,-0.195,0.030
171,-0.175,0.035
172,-0.170,0.010
173,-0.140,-0.020
174,-0.155,-0.070
175,-0.205,-0.080
176,-0.280,-0.060
177,-0.320,-0.050
178,-0.355,-0.070
179,-0.385,-0.105
180,-0.385,-0.090
181,-0.385,-0.090
182,-0.395,-0.095
183,-0.400,-0.115
184,-0.410,-0.100
185,-0.405,-0.105
186,-0.405,-0.105
187,-0.400,-0.100
188,-0.410,-0.110
189,-0.420,-0.120
190,-0.430,-0.105
191,-0.420,-0.100
192,-0.415,-0.100
193,-0.415,-0.110
194,-0.445,-0.100
195,-0.545,-0.130
196,-0.600,-0.145
197,-0.490,-0.235
198,0.120,-0.495
199,0.855,-0.565
200,0.705,-0.115
201,-0.390,0.375
202,-1.135,0.440
203,-1.030,-0.135
204,-0.680,-0.380
205,-0.505,-0.340
206,-0.455,-0.145
207,-0.450,-0.120
208,-0.435,-0.100
209,-0.420,-0.080
210,-0.425,-0.095
211,-0.395,-0.090
212,-0.400,-0.080
213,-0.405,-0.105
214,-0.385,-0.070
215,-0.375,-0.075
216,-0.375,-0.105
217,-0.365,-0.100
218,-0.370,-0.100
219,-0.355,-0.110
220,-0.335,-0.110
221,-0.330,-0.105
222,-0.300,-0.125
223,-0.245,-0.145
224,-0.195,-0.145
225,-0.145,-0.150
226,-0.075,-0.165
227,-0.010,-0.180
228,0.020,-0.215
229,0.065,-0.235
230,0.075,-0.205
231,0.050,-0.220
232,0.020,-0.210
233,-0.015,-0.185
234,-0.070,-0.185
235,-0.135,-0.175
236,-0.205,-0.140
237,-0.240,-0.160
238,-0.295,-0.150
239,-0.310,-0.130
240,-0.335,-0.130
241,-0.375,-0.140
242,-0.400,-0.115
243,-0.410,-0.115
244,-0.430,-0.105
245,-0.435,-0.110
246,-0.435,-0.120
247,-0.435,-0.115
248,-0.445,-0.115
249,-0.445,-0.100
250,-0.450,-0.115
251,-0.440,-0.105
252,-0.455,-0.120
253,-0.445,-0.110
254,-0.445,-0.120
255,-0.440,-0.115
256,-0.415,-0.110
257,-0.420,-0.115
258,-0.410,-0.135
259,-0.365,-0.080
260,-0.345,-0.040
261,-0.315,-0.050
262,-0.255,-0.040
263,-0.225,-0.015
264,-0.215,-0.055
265,-0.205,-0.070
266,-0.175,-0.130
267,-0.215,-0.160
268,-0.310,-0.150
269,-0.350,-0.145
270,-0.385,-0.110
271,-0.415,-0.130
272,-0.425,-0.160
273,-0.440,-0.145
274,-0.455,-0.155
275,-0.450,-0.160
276,-0.455,-0.175
277,-0.465,-0.145
278,-0.460,-0.160
279,-0.460,-0.155
280,-0.445,-0.155
281,-0.445,-0.140
282,-0.445,-0.150
283,-0.455,-0.130
284,-0.445,-0.150
285,-0.430,-0.150
286,-0.445,-0.125
287,-0.520,-0.150
288,-0.615,-0.160
289,-0.565,-0.215
290,-0.110,-0.415
291,0.665,-0.615
292,0.945,-0.285
293,-0.025,0.340
294,-1.110,0.560
295,-1.050,-0.035
296,-0.680,-0.340
297,-0.455,-0.295
298,-0.445,-0.155
299,-0.440,-0.110
300,-0.415,-0.080
301,-0.420,-0.095
302,-0.415,-0.090
303,-0.400,-0.065
304,-0.400,-0.085
305,-0.385,-0.085
306,-0.390,-0.075
307,-0.370,-0.085
308,-0.365,-0.090
309,-0.355,-0.095
310,-0.355,-0.095
311,-0.335,-0.090
312,-0.310,-0.075
313,-0.280,-0.095
314,-0.250,-0.080
315,-0.220,-0.080
316,-0.150,-0.090
317,-0.095,-0.110
318,-0.015,-0.130
319,0.045,-0.110
320,0.075,-0.145
321,0.105,-0.145
322,0.110,-0.150
323,0.085,-0.110
324,0.060,-0.120
325,0.010,-0.115
326,-0.055,-0.110
327,-0.100,-0.120
328,-0.175,-0.095
329,-0.235,-0.105
330,-0.275,-0.095
331,-0.295,-0.085
332,-0.320,-0.100
333,-0.345,-0.085
334,-0.350,-0.075
335,-0.370,-0.080
336,-0.385,-0.075
337,-0.380,-0.105
338,-0.390,-0.080
339,-0.390,-0.065
340,-0.380,-0.095
341,-0.395,-0.060
342,-0.395,-0.085
343,-0.400,-0.050
344,-0.395,-0.080
345,-0.400,-0.080
346,-0.400,-0.060
347,-0.400,-0.065
348,-0.370,-0.070
349,-0.355,-0.040
350,-0.330,-0.010
351,-0.270,-0.025
352,-0.215,-0.015
353,-0.200,-0.010
354,-0.190,-0.045
355,-0.170,-0.080
356,-0.180,-0.130
357,-0.260,-0.130
358,-0.325,-0.110
359,-0.360,-0.120
360,-0.380,-0.130
361,-0.410,-0.140
362,-0.430,-0.150
363,-0.430,-0.130
364,-0.435,-0.130
365,-0.430,-0.150
366,-0.435,-0.155
367,-0.445,-0.125
368,-0.445,-0.140
369,-0.455,-0.150
370,-0.455,-0.130
371,-0.450,-0.145
372,-0.455,-0.135
373,-0.450,-0.135
374,-0.460,-0.150
375,-0.450,-0.135
376,-0.460,-0.130
377,-0.535,-0.145
378,-0.595,-0.145
379,-0.540,-0.220
380,-0.020,-0.475
381,0.750,-0.615
382,0.765,-0.180
383,-0.445,0.430
384,-1.255,0.430
385,-0.960,-0.195
386,-0.595,-0.360
387,-0.475,-0.285
388,-0.455,-0.145
389,-0.450,-0.110
390,-0.435,-0.090
391,-0.450,-0.100
392,-0.420,-0.115
393,-0.420,-0.075
394,-0.415,-0.090
395,-0.425,-0.100
396,-0.410,-0.080
397,-0.380,-0.090
398,-0.375,-0.095
399,-0.355,-0.095
400,-0.355,-0.115
401,-0.345,-0.080
402,-0.330,-0.080
403,-0.295,-0.100
404,-0.255,-0.070
405,-0.230,-0.090
406,-0.170,-0.110
407,-0.135,-0.100
408,-0.065,-0.105
409,0.005,-0.135
410,0.075,-0.120
411,0.085,-0.125
412,0.095,-0.145
413,0.080,-0.130
414,0.035,-0.115
415,0.005,-0.115
416,-0.045,-0.100
417,-0.105,-0.095
418,-0.170,-0.100
419,-0.190,-0.090
420,-0.240,-0.075
421,-0.275,-0.070
422,-0.300,-0.070
423,-0.320,-0.080
424,-0.330,-0.065
425,-0.345,-0.085
426,-0.350,-0.090
427,-0.350,-0.070
428,-0.355,-0.070
429,-0.385,-0.055
430,-0.370,-0.055
431,-0.375,-0.060
432,-0.380,-0.055
433,-0.375,-0.060
434,-0.365,-0.060
435,-0.360,-0.060
436,-0.355,-0.070
437,-0.355,-0.040
438,-0.350,-0.060
439,-0.320,-0.065
440,-0.305,-0.020
441,-0.280,-0.005
442,-0.215,-0.030
443,-0.160,0.000
444,-0.155,-0.010
445,-0.130,-0.035
446,-0.120,-0.045
447,-0.150,-0.085
448,-0.245,-0.100
449,-0.285,-0.085
450,-0.310,-0.095
451,-0.345,-0.110
452,-0.365,-0.100
453,-0.360,-0.115
454,-0.360,-0.130
455,-0.380,-0.130
456,-0.385,-0.125
457,-0.385,-0.145
458,-0.385,-0.120
459,-0.405,-0.130
460,-0.400,-0.130
461,-0.380,-0.130
462,-0.395,-0.140
463,-0.400,-0.120
464,-0.395,-0.125
465,-0.395,-0.130
466,-0.410,-0.110
467,-0.420,-0.115
468,-0.505,-0.135
469,-0.585,-0.175
470,-0.500,-0.275
471,0.075,-0.515
472,0.840,-0.650
473,0.770,-0.200
474,-0.340,0.345
475,-1.140,0.435
476,-1.000,-0.170
477,-0.630,-0.405
478,-0.455,-0.355
479,-0.420,-0.195
480,-0.415,-0.115
481,-0.410,-0.115
482,-0.400,-0.105
483,-0.390,-0.110
484,-0.385,-0.120
485,-0.365,-0.130
486,-0.380,-0.130
487,-0.375,-0.120
488,-0.365,-0.120
489,-0.345,-0.140
490,-0.335,-0.125
491,-0.330,-0.130
492,-0.330,-0.120
493,-0.295,-0.125
494,-0.285,-0.135
495,-0.235,-0.150
496,-0.210,-0.155
497,-0.150,-0.155
498,-0.075,-0.150
499,-0.010,-0.175
500,0.030,-0.195
501,0.065,-0.200
502,0.080,-0.195
503,0.095,-0.205
504,0.075,-0.205
505,0.050,-0.210
506,0.005,-0.185
507,-0.060,-0.145
508,-0.125,-0.140
509,-0.175,-0.150
510,-0.220,-0.145
511,-0.245,-0.150
512,-0.305,-0.130
513,-0.310,-0.140
514,-0.325,-0.135
515,-0.325,-0.130
516,-0.355,-0.125
517,-0.370,-0.140
518,-0.380,-0.125
519,-0.380,-0.125
520,-0.380,-0.115
521,-0.385,-0.115
522,-0.395,-0.130
523,-0.385,-0.130
524,-0.390,-0.130
525,-0.375,-0.105
526,-0.380,-0.120
527,-0.380,-0.130
528,-0.375,-0.130
529,-0.395,-0.115
530,-0.360,-0.115
531,-0.345,-0.130
532,-0.330,-0.135
533,-0.320,-0.090
534,-0.310,-0.080
535,-0.260,-0.090
536,-0.225,-0.065
537,-0.195,-0.080
538,-0.150,-0.105
539,-0.150,-0.155
540,-0.195,-0.165
541,-0.260,-0.175
542,-0.315,-0.150
543,-0.320,-0.150
544,-0.350,-0.155
545,-0.365,-0.175
546,-0.380,-0.175
547,-0.375,-0.185
548,-0.365,-0.180
549,-0.390,-0.175
550,-0.390,-0.190
551,-0.385,-0.165
552,-0.370,-0.175
553,-0.385,-0.190
554,-0.375,-0.165
555,-0.390,-0.185
556,-0.375,-0.190
557,-0.380,-0.170
558,-0.365,-0.165
559,-0.360,-0.175
560,-0.420,-0.175
561,-0.530,-0.195
562,-0.560,-0.225
563,-0.305,-0.380
564,0.415,-0.620
565,1.010,-0.545
566,0.440,-0.005
567,-0.670,0.375
568,-1.120,0.225
569,-0.880,-0.360
570,-0.550,-0.435
571,-0.440,-0.365
572,-0.410,-0.210
573,-0.415,-0.160
574,-0.405,-0.155
575,-0.400,-0.165
576,-0.370,-0.160
577,-0.365,-0.165
578,-0.350,-0.165
579,-0.370,-0.150
580,-0.340,-0.170
581,-0.340,-0.165
582,-0.345,-0.145
583,-0.345,-0.155
584,-0.325,-0.165
585,-0.305,-0.160
586,-0.285,-0.165
587,-0.260,-0.160
588,-0.235,-0.170
589,-0.200,-0.180
590,-0.145,-0.195
591,-0.080,-0.200
592,-0.020,-0.210
593,0.040,-0.225
594,0.085,-0.235
595,0.130,-0.230
596,0.110,-0.250
597,0.110,-0.235
598,0.090,-0.225
599,0.010,-0.220
600,-0.015,-0.225
601,-0.085,-0.190
602,-0.130,-0.195
603,-0.190,-0.190
604,-0.235,-0.170
605,-0.255,-0.165
606,-0.290,-0.170
607,-0.310,-0.165
608,-0.340,-0.170
609,-0.340,-0.175
610,-0.355,-0.155
611,-0.365,-0.155
612,-0.365,-0.135
613,-0.380,-0.155
614,-0.370,-0.155
615,-0.400,-0.160
616,-0.380,-0.150
617,-0.390,-0.135
618,-0.395,-0.155
619,-0.400,-0.165
620,-0.405,-0.170
621,-0.385,-0.140
622,-0.380,-0.165
623,-0.365,-0.175
624,-0.355,-0.165
625,-0.340,-0.155
626,-0.310,-0.150
627,-0.295,-0.105
628,-0.280,-0.100
629,-0.215,-0.110
630,-0.175,-0.075
631,-0.155,-0.085
632,-0.145,-0.120
633,-0.130,-0.155
634,-0.135,-0.200
635,-0.235,-0.220
636,-0.285,-0.155
637,-0.325,-0.160
638,-0.345,-0.185
639,-0.360,-0.180
640,-0.385,-0.190
641,-0.390,-0.205
642,-0.395,-0.190
643,-0.400,-0.180
644,-0.385,-0.200
645,-0.400,-0.220
646,-0.430,-0.200
647,-0.430,-0.200
648,-0.420,-0.185
649,-0.425,-0.175
650,-0.415,-0.185
651,-0.425,-0.170
652,-0.430,-0.190
653,-0.425,-0.175
654,-0.445,-0.175
655,-0.535,-0.180
656,-0.615,-0.215
657,-0.520,-0.285
658,0.005,-0.500
659,0.765,-0.650
660,0.960,-0.310
661,-0.090,0.310
662,-1.125,0.505
663,-1.050,-0.105
664,-0.660,-0.375
665,-0.480,-0.355
666,-0.440,-0.195
667,-0.430,-0.145
668,-0.420,-0.155
669,-0.410,-0.130
670,-0.410,-0.140
671,-0.385,-0.145
672,-0.375,-0.150
673,-0.370,-0.130
674,-0.360,-0.130
675,-0.350,-0.135
676,-0.355,-0.140
677,-0.335,-0.120
678,-0.325,-0.095
679,-0.305,-0.120
680,-0.285,-0.115
681,-0.270,-0.100
682,-0.245,-0.130
683,-0.220,-0.120
684,-0.165,-0.125
685,-0.125,-0.110
686,-0.065,-0.120
687,-0.005,-0.135
688,0.060,-0.160
689,0.115,-0.165
690,0.140,-0.160
691,0.155,-0.170
692,0.150,-0.175
693,0.135,-0.155
694,0.090,-0.165
695,0.030,-0.155
696,-0.020,-0.145
697,-0.085,-0.145
698,-0.135,-0.135
699,-0.180,-0.150
700,-0.220,-0.140
701,-0.250,-0.130
702,-0.280,-0.150
703,-0.305,-0.160
704,-0.300,-0.145
705,-0.320,-0.150
706,-0.310,-0.150
707,-0.330,-0.140
708,-0.340,-0.145
709,-0.340,-0.140
710,-0.340,-0.120
711,-0.350,-0.120
712,-0.350,-0.135
713,-0.340,-0.135
714,-0.350,-0.120
715,-0.355,-0.125
716,-0.350,-0.125
717,-0.345,-0.105
718,-0.345,-0.115
719,-0.330,-0.110
720,-0.305,-0.085
721,-0.270,-0.050
722,-0.260,-0.065
723,-0.165,-0.070
724,-0.130,-0.040
725,-0.145,-0.090
726,-0.120,-0.050
727,-0.105,-0.140
728,-0.140,-0.155
729,-0.230,-0.175
730,-0.265,-0.150
731,-0.290,-0.155
732,-0.310,-0.170
733,-0.330,-0.185
734,-0.350,-0.190
735,-0.360,-0.180
736,-0.355,-0.200
737,-0.375,-0.195
738,-0.375,-0.205
739,-0.390,-0.205
740,-0.405,-0.195
741,-0.400,-0.200
742,-0.400,-0.210
743,-0.400,-0.215
744,-0.410,-0.205
745,-0.405,-0.225
746,-0.405,-0.200
747,-0.410,-0.200
748,-0.425,-0.200
749,-0.530,-0.205
750,-0.565,-0.235
751,-0.400,-0.370
752,0.230,-0.600
753,0.905,-0.655
754,0.605,-0.090
755,-0.575,0.430
756,-1.165,0.255
757,-0.875,-0.300
758,-0.545,-0.395
759,-0.425,-0.320
760,-0.415,-0.205
761,-0.395,-0.195
762,-0.385,-0.175
763,-0.385,-0.175
764,-0.380,-0.175
765,-0.375,-0.155
766,-0.375,-0.160
767,-0.355,-0.175
768,-0.365,-0.195
769,-0.340,-0.160
770,-0.340,-0.155
771,-0.340,-0.160
772,-0.325,-0.185
773,-0.300,-0.175
774,-0.285,-0.160
775,-0.260,-0.185
776,-0.240,-0.185
777,-0.200,-0.165
778,-0.160,-0.180
779,-0.095,-0.175
780,-0.025,-0.195
781,0.025,-0.195
782,0.085,-0.195
783,0.110,-0.210
784,0.115,-0.225
785,0.105,-0.220
786,0.075,-0.225
787,0.005,-0.220
788,-0.055,-0.220
789,-0.075,-0.195
790,-0.140,-0.195
791,-0.195,-0.195
792,-0.245,-0.195
793,-0.280,-0.200
794,-0.295,-0.195
795,-0.320,-0.160
796,-0.330,-0.195
797,-0.335,-0.180
798,-0.350,-0.170
799,-0.355,-0.185
800,-0.355,-0.165
801,-0.365,-0.175
802,-0.370,-0.185
803,-0.350,-0.160
804,-0.360,-0.175
805,-0.370,-0.150
806,-0.365,-0.135
807,-0.355,-0.155
808,-0.355,-0.150
809,-0.350,-0.125
810,-0.335,-0.145
811,-0.335,-0.165
812,-0.315,-0.150
813,-0.290,-0.145
814,-0.270,-0.080
815,-0.225,-0.105
816,-0.155,-0.085
817,-0.140,-0.095
818,-0.125,-0.120
819,-0.120,-0.165
820,-0.130,-0.190
821,-0.230,-0.220
822,-0.270,-0.180
823,-0.300,-0.180
824,-0.340,-0.205
825,-0.370,-0.230
826,-0.380,-0.240
827,-0.390,-0.240
828,-0.365,-0.220
829,-0.375,-0.225
830,-0.385,-0.240
831,-0.380,-0.250
832,-0.395,-0.240
833,-0.405,-0.235
834,-0.395,-0.230
835,-0.425,-0.215
836,-0.400,-0.230
837,-0.410,-0.235
838,-0.410,-0.240
839,-0.410,-0.245
840,-0.510,-0.265
841,-0.590,-0.260
842,-0.510,-0.370
843,0.010,-0.605
844,0.755,-0.735
845,0.760,-0.305
846,-0.270,0.255
847,-1.125,0.380
848,-1.005,-0.250
849,-0.640,-0.495
850,-0.475,-0.435
851,-0.425,-0.220
852,-0.435,-0.210
853,-0.420,-0.200
854,-0.410,-0.250
855,-0.390,-0.190
856,-0.405,-0.215
857,-0.390,-0.200
858,-0.380,-0.225
859,-0.375,-0.190
860,-0.395,-0.220
861,-0.380,-0.225
862,-0.340,-0.210
863,-0.340,-0.225
864,-0.335,-0.220
865,-0.310,-0.225
866,-0.295,-0.225
867,-0.265,-0.220
868,-0.220,-0.230
869,-0.150,-0.240
870,-0.105,-0.275
871,-0.040,-0.285
872,0.005,-0.300
873,0.060,-0.310
874,0.070,-0.320
875,0.080,-0.320
876,0.055,-0.340
877,-0.005,-0.300
878,-0.065,-0.275
879,-0.120,-0.275
880,-0.175,-0.255
881,-0.225,-0.250
882,-0.275,-0.270
883,-0.300,-0.240
884,-0.330,-0.245
885,-0.350,-0.255
886,-0.370,-0.235
887,-0.400,-0.235
888,-0.395,-0.240
889,-0.400,-0.245
890,-0.400,-0.230
891,-0.410,-0.245
892,-0.420,-0.235
893,-0.410,-0.255
894,-0.425,-0.210
895,-0.420,-0.245
896,-0.425,-0.245
897,-0.430,-0.215
898,-0.415,-0.215
899,-0.390,-0.245
900,-0.405,-0.230
901,-0.395,-0.220
902,-0.365,-0.225
903,-0.355,-0.215
904,-0.340,-0.185
905,-0.340,-0.185
906,-0.285,-0.200
907,-0.230,-0.160
908,-0.215,-0.160
909,-0.195,-0.185
910,-0.165,-0.225
911,-0.180,-0.255
912,-0.275,-0.295
913,-0.340,-0.245
914,-0.350,-0.250
915,-0.390,-0.270
916,-0.405,-0.295
917,-0.415,-0.290
918,-0.430,-0.285
919,-0.420,-0.290
920,-0.420,-0.280
921,-0.440,-0.280
922,-0.435,-0.300
923,-0.440,-0.305
924,-0.435,-0.280
925,-0.425,-0.290
926,-0.415,-0.280
927,-0.430,-0.275
928,-0.450,-0.270
929,-0.445,-0.285
930,-0.460,-0.270
931,-0.555,-0.295
932,-0.625,-0.310
933,-0.440,-0.415
934,0.195,-0.675
935,0.945,-0.680
936,0.600,-0.130
937,-0.575,0.285
938,-1.205,0.215
939,-0.970,-0.395
940,-0.625,-0.500
941,-0.490,-0.430
942,-0.470,-0.275
943,-0.450,-0.270
944,-0.450,-0.245
945,-0.425,-0.220
946,-0.425,-0.220
947,-0.425,-0.235
948,-0.415,-0.240
949,-0.415,-0.230
950,-0.400,-0.235
951,-0.385,-0.230
952,-0.390,-0.235
953,-0.360,-0.225
954,-0.360,-0.245
955,-0.340,-0.240
956,-0.330,-0.245
957,-0.305,-0.245
958,-0.260,-0.255
959,-0.205,-0.240
960,-0.160,-0.240
961,-0.090,-0.255
962,-0.025,-0.280
963,0.025,-0.295
964,0.060,-0.310
965,0.085,-0.300
966,0.075,-0.295
967,0.055,-0.290
968,0.000,-0.285
969,-0.035,-0.280
970,-0.100,-0.260
971,-0.160,-0.235
972,-0.205,-0.240
973,-0.265,-0.230
974,-0.300,-0.220
975,-0.345,-0.210
976,-0.355,-0.225
977,-0.385,-0.195
978,-0.400,-0.195
979,-0.390,-0.210
980,-0.415,-0.210
981,-0.420,-0.205
982,-0.420,-0.195
983,-0.420,-0.200
984,-0.440,-0.205
985,-0.425,-0.210
986,-0.435,-0.195
987,-0.445,-0.210
988,-0.440,-0.225
989,-0.440,-0.195
990,-0.445,-0.200
991,-0.445,-0.200
992,-0.435,-0.205
993,-0.430,-0.205
994,-0.405,-0.190
995,-0.375,-0.175
996,-0.360,-0.150
997,-0.295,-0.160
998,-0.240,-0.125
999,-0.230,-0.150
1000,-0.230,-0.185
1001,-0.195,-0.215
1002,-0.215,-0.260
1003,-0.250,-0.265
1004,-0.340,-0.240
1005,-0.385,-0.240
1006,-0.410,-0.240
1007,-0.435,-0.270
1008,-0.440,-0.280
1009,-0.465,-0.255
1010,-0.460,-0.270
1011,-0.465,-0.290
1012,-0.485,-0.270
1013,-0.480,-0.275
1014,-0.475,-0.260
1015,-0.480,-0.255
1016,-0.480,-0.280
1017,-0.480,-0.260
1018,-0.475,-0.255
1019,-0.495,-0.260
1020,-0.480,-0.240
1021,-0.480,-0.260
1022,-0.535,-0.255
1023,-0.625,-0.230
1024,-0.665,-0.280
1025,-0.460,-0.450
1026,0.225,-0.690
1027,0.905,-0.640
1028,0.450,0.000
1029,-0.780,0.420
1030,-1.205,0.105
1031,-0.885,-0.400
1032,-0.605,-0.440
1033,-0.515,-0.325
1034,-0.510,-0.230
1035,-0.505,-0.225
1036,-0.480,-0.195
1037,-0.485,-0.210
1038,-0.470,-0.200
1039,-0.465,-0.210
1040,-0.460,-0.195
1041,-0.460,-0.205
1042,-0.450,-0.175
1043,-0.425,-0.180
1044,-0.425,-0.200
1045,-0.410,-0.205
1046,-0.410,-0.200
1047,-0.385,-0.200
1048,-0.350,-0.170
1049,-0.355,-0.190
1050,-0.310,-0.190
1051,-0.285,-0.180
1052,-0.230,-0.180
1053,-0.160,-0.205
1054,-0.105,-0.190
1055,-0.035,-0.210
1056,0.010,-0.210
1057,0.045,-0.220
1058,0.045,-0.220
1059,0.050,-0.215
1060,0.030,-0.195
1061,0.000,-0.200
1062,-0.050,-0.200
1063,-0.120,-0.180
1064,-0.190,-0.170
1065,-0.255,-0.170
1066,-0.280,-0.150
1067,-0.315,-0.160
1068,-0.355,-0.160
1069,-0.360,-0.160
1070,-0.395,-0.160
1071,-0.420,-0.160
1072,-0.425,-0.150
1073,-0.430,-0.160
1074,-0.430,-0.150
1075,-0.415,-0.160
1076,-0.430,-0.145
1077,-0.435,-0.155
1078,-0.430,-0.150
1079,-0.445,-0.155
1080,-0.445,-0.160
1081,-0.430,-0.135
1082,-0.435,-0.145
1083,-0.445,-0.125
1084,-0.425,-0.145
1085,-0.405,-0.155
1086,-0.380,-0.130
1087,-0.375,-0.070
1088,-0.350,-0.065
1089,-0.285,-0.080
1090,-0.225,-0.065
1091,-0.235,-0.065
1092,-0.205,-0.100
1093,-0.175,-0.130
1094,-0.180,-0.165
1095,-0.255,-0.195
1096,-0.340,-0.165
1097,-0.355,-0.160
1098,-0.390,-0.165
1099,-0.415,-0.180
1100,-0.415,-0.190
1101,-0.435,-0.190
1102,-0.450,-0.185
1103,-0.445,-0.210
1104,-0.445,-0.200
1105,-0.450,-0.190
1106,-0.475,-0.190
1107,-0.480,-0.195
1108,-0.465,-0.180
1109,-0.460,-0.190
1110,-0.470,-0.195
1111,-0.475,-0.185
1112,-0.480,-0.195
1113,-0.480,-0.205
1114,-0.485,-0.190
1115,-0.560,-0.200
1116,-0.615,-0.235
1117,-0.580,-0.290
1118,-0.155,-0.520
1119,0.575,-0.685
1120,0.820,-0.330
1121,-0.065,0.275
1122,-1.080,0.450
1123,-1.130,-0.090
1124,-0.760,-0.390
1125,-0.550,-0.380
1126,-0.510,-0.240
1127,-0.490,-0.195
1128,-0.490,-0.190
1129,-0.485,-0.165
1130,-0.480,-0.190
1131,-0.485,-0.190
1132,-0.485,-0.145
1133,-0.480,-0.170
1134,-0.470,-0.165
1135,-0.470,-0.145
1136,-0.460,-0.165
1137,-0.430,-0.170
1138,-0.425,-0.145
1139,-0.410,-0.165
1140,-0.405,-0.155
1141,-0.380,-0.140
1142,-0.345,-0.165
1143,-0.305,-0.170
1144,-0.270,-0.150
1145,-0.235,-0.150
1146,-0.170,-0.165
1147,-0.110,-0.180
1148,-0.050,-0.190
1149,-0.005,-0.200
1150,0.020,-0.195
1151,0.020,-0.210
1152,0.020,-0.200
1153,0.000,-0.185
1154,-0.055,-0.170
1155,-0.115,-0.175
1156,-0.180,-0.165
1157,-0.220,-0.160
1158,-0.270,-0.140
1159,-0.325,-0.155
1160,-0.350,-0.160
1161,-0.365,-0.170
1162,-0.385,-0.155
1163,-0.400,-0.165
1164,-0.420,-0.160
1165,-0.445,-0.155
1166,-0.435,-0.160
1167,-0.445,-0.165
1168,-0.465,-0.135
1169,-0.450,-0.140
1170,-0.460,-0.165
1171,-0.445,-0.145
1172,-0.465,-0.135
1173,-0.460,-0.145
1174,-0.470,-0.120
1175,-0.465,-0.125
1176,-0.465,-0.125
1177,-0.450,-0.115
1178,-0.420,-0.135
1179,-0.405,-0.135
1180,-0.400,-0.090
1181,-0.370,-0.065
1182,-0.365,-0.075
1183,-0.290,-0.080
1184,-0.240,-0.070
1185,-0.235,-0.085
1186,-0.210,-0.085
1187,-0.205,-0.140
1188,-0.235,-0.155
1189,-0.315,-0.155
1190,-0.365,-0.130
1191,-0.375,-0.140
1192,-0.415,-0.140
1193,-0.425,-0.165
1194,-0.430,-0.160
1195,-0.440,-0.165
1196,-0.440,-0.150
1197,-0.440,-0.160
1198,-0.440,-0.155
1199,-0.445,-0.165
1200,-0.460,-0.165
1201,-0.445,-0.160
1202,-0.460,-0.175
1203,-0.460,-0.175
1204,-0.460,-0.160
1205,-0.455,-0.160
1206,-0.440,-0.180
1207,-0.450,-0.155
1208,-0.520,-0.170
1209,-0.600,-0.185
1210,-0.605,-0.245
1211,-0.275,-0.460
1212,0.440,-0.670
1213,0.900,-0.480
1214,0.205,0.120
1215,-0.915,0.495
1216,-1.200,0.100
1217,-0.890,-0.385
1218,-0.570,-0.425
1219,-0.480,-0.295
1220,-0.465,-0.160
1221,-0.450,-0.155
1222,-0.450,-0.125
1223,-0.455,-0.130
1224,-0.445,-0.145
1225,-0.420,-0.145
1226,-0.425,-0.130
1227,-0.435,-0.100
1228,-0.430,-0.120
1229,-0.425,-0.125
1230,-0.400,-0.100
1231,-0.390,-0.135
1232,-0.370,-0.135
1233,-0.350,-0.125
1234,-0.355,-0.130
1235,-0.300,-0.135
1236,-0.295,-0.140
1237,-0.250,-0.145
1238,-0.200,-0.155
1239,-0.170,-0.155
1240,-0.105,-0.170
1241,-0.025,-0.200
1242,0.025,-0.210
1243,0.065,-0.220
1244,0.075,-0.225
1245,0.055,-0.225
1246,0.030,-0.225
1247,0.015,-0.215
1248,-0.060,-0.190
1249,-0.125,-0.185
1250,-0.200,-0.170
1251,-0.240,-0.165
1252,-0.265,-0.145
1253,-0.305,-0.150
1254,-0.340,-0.165
1255,-0.375,-0.140
1256,-0.400,-0.155
1257,-0.400,-0.140
1258,-0.400,-0.115
1259,-0.420,-0.150
1260,-0.400,-0.160
1261,-0.435,-0.135
1262,-0.420,-0.145
1263,-0.430,-0.160
1264,-0.460,-0.155
1265,-0.445,-0.150
1266,-0.440,-0.150
1267,-0.435,-0.135
1268,-0.425,-0.160
1269,-0.415,-0.155
1270,-0.425,-0.140
1271,-0.410,-0.165
1272,-0.400,-0.145
1273,-0.385,-0.140
1274,-0.375,-0.115
1275,-0.355,-0.100
1276,-0.340,-0.105
1277,-0.295,-0.105
1278,-0.230,-0.050
1279,-0.215,-0.105
1280,-0.215,-0.135
1281,-0.180,-0.170
1282,-0.195,-0.190
1283,-0.275,-0.195
1284,-0.345,-0.195
1285,-0.350,-0.175
1286,-0.380,-0.210
1287,-0.395,-0.225
1288,-0.410,-0.205
1289,-0.405,-0.210
1290,-0.435,-0.225
1291,-0.430,-0.210
1292,-0.430,-0.220
1293,-0.435,-0.225
1294,-0.425,-0.225
1295,-0.440,-0.215
1296,-0.440,-0.210
1297,-0.445,-0.215
1298,-0.425,-0.210
1299,-0.440,-0.185
1300,-0.430,-0.205
1301,-0.430,-0.210
1302,-0.530,-0.225
1303,-0.605,-0.225
1304,-0.575,-0.300
1305,-0.085,-0.520
1306,0.685,-0.685
1307,0.910,-0.320
1308,-0.040,0.235
1309,-1.020,0.450
1310,-1.075,-0.105
1311,-0.735,-0.445
1312,-0.510,-0.400
1313,-0.450,-0.260
1314,-0.435,-0.190
1315,-0.415,-0.160
1316,-0.420,-0.150
1317,-0.405,-0.150
1318,-0.385,-0.150
1319,-0.385,-0.145
1320,-0.380,-0.155
1321,-0.385,-0.145
1322,-0.380,-0.145
1323,-0.350,-0.140
1324,-0.340,-0.135
1325,-0.340,-0.135
1326,-0.330,-0.150
1327,-0.295,-0.140
1328,-0.290,-0.130
1329,-0.250,-0.130
1330,-0.210,-0.140
1331,-0.180,-0.135
1332,-0.105,-0.150
1333,-0.040,-0.150
1334,0.025,-0.185
1335,0.080,-0.190
1336,0.115,-0.200
1337,0.120,-0.190
1338,0.115,-0.180
1339,0.085,-0.190
1340,0.045,-0.170
1341,-0.005,-0.160
1342,-0.080,-0.145
1343,-0.130,-0.155
1344,-0.190,-0.120
1345,-0.220,-0.105
1346,-0.245,-0.135
1347,-0.280,-0.120
1348,-0.300,-0.125
1349,-0.315,-0.120
1350,-0.340,-0.120
1351,-0.340,-0.110
1352,-0.345,-0.115
1353,-0.350,-0.110
1354,-0.355,-0.110
1355,-0.350,-0.110
1356,-0.365,-0.090
1357,-0.355,-0.105
1358,-0.375,-0.095
1359,-0.360,-0.105
1360,-0.375,-0.095
1361,-0.350,-0.095
1362,-0.315,-0.080
1363,-0.295,-0.040
1364,-0.270,-0.020
1365,-0.205,-0.030
1366,-0.160,-0.045
1367,-0.160,-0.045
1368,-0.130,-0.085
1369,-0.130,-0.140
1370,-0.165,-0.140
1371,-0.195,-0.160
1372,-0.245,-0.115
1373,-0.285,-0.115
1374,-0.300,-0.125
1375,-0.320,-0.145
1376,-0.330,-0.125
1377,-0.335,-0.145
1378,-0.335,-0.160
1379,-0.330,-0.135
1380,-0.350,-0.115
1381,-0.345,-0.135
1382,-0.355,-0.125
1383,-0.360,-0.135
1384,-0.370,-0.120
1385,-0.380,-0.135
1386,-0.370,-0.140
1387,-0.360,-0.145
1388,-0.385,-0.135
1389,-0.375,-0.140
1390,-0.385,-0.150
1391,-0.475,-0.150
1392,-0.550,-0.170
1393,-0.420,-0.285
1394,0.170,-0.530
1395,0.935,-0.570
1396,0.725,0.000
1397,-0.475,0.505
1398,-1.115,0.310
1399,-0.815,-0.225
1400,-0.500,-0.335
1401,-0.405,-0.230
1402,-0.385,-0.100
1403,-0.360,-0.105
1404,-0.375,-0.100
1405,-0.370,-0.090
1406,-0.370,-0.080
1407,-0.350,-0.080
1408,-0.350,-0.065
1409,-0.350,-0.085
1410,-0.325,-0.095
1411,-0.315,-0.085
1412,-0.320,-0.080
1413,-0.310,-0.100
1414,-0.290,-0.105
1415,-0.280,-0.090
1416,-0.255,-0.085
1417,-0.220,-0.095
1418,-0.185,-0.115
1419,-0.140,-0.090
1420,-0.070,-0.080
1421,-0.005,-0.090
1422,0.060,-0.100
1423,0.125,-0.120
1424,0.165,-0.130
1425,0.165,-0.140
1426,0.165,-0.125
1427,0.140,-0.140
1428,0.105,-0.110
1429,0.020,-0.105
1430,-0.035,-0.120
1431,-0.090,-0.100
1432,-0.140,-0.110
1433,-0.190,-0.115
1434,-0.230,-0.090
1435,-0.250,-0.115
1436,-0.280,-0.095
1437,-0.290,-0.095
1438,-0.315,-0.105
1439,-0.315,-0.110
1440,-0.325,-0.100
1441,-0.320,-0.095
1442,-0.325,-0.085
1443,-0.325,-0.070
1444,-0.315,-0.070
1445,-0.315,-0.090
1446,-0.325,-0.085
1447,-0.320,-0.080
1448,-0.330,-0.065
1449,-0.325,-0.050
1450,-0.305,-0.060
1451,-0.315,-0.045
1452,-0.310,-0.055
1453,-0.290,-0.050
1454,-0.280,-0.040
1455,-0.240,-0.015
1456,-0.220,0.015
1457,-0.175,0.020
1458,-0.100,0.010
1459,-0.095,0.030
1460,-0.090,0.005
1461,-0.075,-0.040
1462,-0.060,-0.070
1463,-0.145,-0.075
1464,-0.220,-0.045
1465,-0.240,-0.070
1466,-0.275,-0.085
1467,-0.295,-0.080
1468,-0.310,-0.100
1469,-0.300,-0.080
1470,-0.300,-0.105
1471,-0.325,-0.080
1472,-0.335,-0.100
1473,-0.320,-0.100
1474,-0.330,-0.105
1475,-0.330,-0.105
1476,-0.330,-0.110
1477,-0.320,-0.105
1478,-0.335,-0.090
1479,-0.330,-0.085
1480,-0.315,-0.070
1481,-0.330,-0.095
1482,-0.390,-0.075
1483,-0.485,-0.110
1484,-0.450,-0.215
1485,0.005,-0.435
1486,0.760,-0.600
1487,0.950,-0.180
1488,-0.065,0.445
1489,-1.065,0.560
1490,-0.955,-0.100
1491,-0.535,-0.315
1492,-0.375,-0.270
1493,-0.335,-0.110
1494,-0.325,-0.055
1495,-0.325,-0.070
1496,-0.295,-0.040
1497,-0.270,-0.050
1498,-0.275,-0.060
1499,-0.280,-0.050
1500,-0.275,-0.050
1501,-0.270,-0.050
1502,-0.250,-0.055
1503,-0.250,-0.035
1504,-0.245,-0.045
1505,-0.240,-0.055
1506,-0.230,-0.060
1507,-0.190,-0.075
1508,-0.170,-0.050
1509,-0.145,-0.060
1510,-0.110,-0.070
1511,-0.060,-0.070
1512,-0.015,-0.080
1513,0.030,-0.120
1514,0.090,-0.115
1515,0.150,-0.105
1516,0.175,-0.125
1517,0.205,-0.140
1518,0.200,-0.140
1519,0.160,-0.125
1520,0.130,-0.130
1521,0.060,-0.125
1522,0.010,-0.115
1523,-0.035,-0.100
1524,-0.085,-0.085
1525,-0.120,-0.080
1526,-0.160,-0.090
1527,-0.210,-0.080
1528,-0.230,-0.090
1529,-0.225,-0.085
1530,-0.240,-0.085
1531,-0.260,-0.085
1532,-0.260,-0.090
1533,-0.275,-0.075
1534,-0.275,-0.090
1535,-0.275,-0.110
1536,-0.305,-0.115
1537,-0.285,-0.075
1538,-0.280,-0.075
1539,-0.270,-0.085
1540,-0.275,-0.065
1541,-0.285,-0.060
1542,-0.295,-0.065
1543,-0.295,-0.065
1544,-0.290,-0.055
1545,-0.275,-0.050
1546,-0.250,-0.055
1547,-0.235,-0.035
1548,-0.220,-0.015
1549,-0.200,-0.015
1550,-0.135,-0.015
1551,-0.090,0.000
1552,-0.090,0.000
1553,-0.065,-0.040
1554,-0.040,-0.060
1555,-0.075,-0.105
1556,-0.155,-0.110
1557,-0.220,-0.105
1558,-0.225,-0.080
1559,-0.265,-0.110
1560,-0.290,-0.120
1561,-0.270,-0.120
1562,-0.285,-0.115
1563,-0.295,-0.120
1564,-0.300,-0.115
1565,-0.305,-0.120
1566,-0.315,-0.100
1567,-0.300,-0.125
1568,-0.310,-0.120
1569,-0.305,-0.110
1570,-0.290,-0.120
1571,-0.310,-0.115
1572,-0.295,-0.105
1573,-0.290,-0.110
1574,-0.285,-0.105
1575,-0.340,-0.130
1576,-0.435,-0.130
1577,-0.460,-0.170
1578,-0.255,-0.300
1579,0.430,-0.555
1580,1.075,-0.490
1581,0.595,0.085
1582,-0.535,0.470
1583,-1.025,0.265
1584,-0.795,-0.265
1585,-0.465,-0.345
1586,-0.335,-0.245
1587,-0.300,-0.090
1588,-0.305,-0.085
1589,-0.265,-0.085
1590,-0.275,-0.050
1591,-0.265,-0.065
1592,-0.255,-0.060
1593,-0.250,-0.050
1594,-0.235,-0.060
1595,-0.230,-0.055
1596,-0.230,-0.055
1597,-0.220,-0.070
1598,-0.215,-0.070
1599,-0.205,-0.065
1600,-0.190,-0.060
1601,-0.180,-0.055
1602,-0.130,-0.075
1603,-0.115,-0.080
1604,-0.085,-0.080
1605,-0.035,-0.085
1606,0.015,-0.065
1607,0.075,-0.110
1608,0.155,-0.130
1609,0.215,-0.145
1610,0.245,-0.160
1611,0.260,-0.160
1612,0.260,-0.150
1613,0.235,-0.150
1614,0.190,-0.120
1615,0.145,-0.130
1616,0.065,-0.130
1617,0.010,-0.125
1618,-0.020,-0.130
1619,-0.060,-0.105
1620,-0.080,-0.080
1621,-0.150,-0.080
1622,-0.165,-0.095
1623,-0.160,-0.075
1624,-0.165,-0.090
1625,-0.200,-0.080
1626,-0.190,-0.090
1627,-0.205,-0.080
1628,-0.210,-0.080
1629,-0.220,-0.090
1630,-0.235,-0.095
1631,-0.230,-0.080
1632,-0.220,-0.080
1633,-0.215,-0.070
1634,-0.230,-0.080
1635,-0.230,-0.070
1636,-0.225,-0.095
1637,-0.215,-0.085
1638,-0.210,-0.080
1639,-0.215,-0.100
1640,-0.210,-0.085
1641,-0.185,-0.065
1642,-0.195,-0.095
1643,-0.165,-0.080
1644,-0.165,-0.030
1645,-0.150,-0.045
1646,-0.105,-0.050
1647,-0.045,-0.010
1648,-0.035,-0.035
1649,-0.055,-0.070
1650,-0.020,-0.085
1651,-0.025,-0.130
1652,-0.085,-0.155
1653,-0.155,-0.130
1654,-0.175,-0.135
1655,-0.215,-0.140
1656,-0.245,-0.155
1657,-0.250,-0.140
1658,-0.265,-0.150
1659,-0.250,-0.150
1660,-0.270,-0.155
1661,-0.260,-0.155
1662,-0.260,-0.145
1663,-0.270,-0.130
1664,-0.275,-0.135
1665,-0.280,-0.120
1666,-0.280,-0.125
1667,-0.285,-0.130
1668,-0.275,-0.135
1669,-0.275,-0.145
1670,-0.275,-0.135
1671,-0.305,-0.135
1672,-0.425,-0.155
1673,-0.475,-0.160
1674,-0.325,-0.280
1675,0.225,-0.520
1676,0.925,-0.565
1677,0.895,-0.085
1678,-0.130,0.410
1679,-0.955,0.480
1680,-0.885,-0.125
1681,-0.560,-0.345
1682,-0.350,-0.305
1683,-0.315,-0.170
1684,-0.295,-0.080
1685,-0.290,-0.075
1686,-0.280,-0.085
1687,-0.265,-0.085
1688,-0.260,-0.095
1689,-0.240,-0.080
1690,-0.250,-0.070
1691,-0.245,-0.075
1692,-0.220,-0.070
1693,-0.215,-0.090
1694,-0.210,-0.075
1695,-0.210,-0.085
1696,-0.180,-0.070
1697,-0.185,-0.085
1698,-0.155,-0.080
1699,-0.140,-0.070
1700,-0.105,-0.080
1701,-0.055,-0.075
1702,0.000,-0.070
1703,0.080,-0.080
1704,0.125,-0.095
1705,0.175,-0.105
1706,0.225,-0.110
1707,0.275,-0.100
1708,0.280,-0.120
1709,0.250,-0.115
1710,0.230,-0.105
1711,0.175,-0.080
1712,0.120,-0.070
1713,0.055,-0.065
1714,0.020,-0.040
1715,-0.030,-0.030
1716,-0.085,-0.025
1717,-0.110,-0.015
1718,-0.130,-0.025
1719,-0.155,-0.010
1720,-0.155,-0.030
1721,-0.185,-0.020
1722,-0.185,-0.010
1723,-0.195,-0.015
1724,-0.205,-0.015
1725,-0.220,-0.005
1726,-0.220,-0.010
1727,-0.240,-0.015
1728,-0.225,-0.015
1729,-0.225,-0.005
1730,-0.220,0.000
1731,-0.225,0.000
1732,-0.215,-0.010
1733,-0.225,-0.005
1734,-0.210,-0.010
1735,-0.215,0.000
1736,-0.175,0.000
1737,-0.160,0.030
1738,-0.135,0.055
1739,-0.110,0.065
1740,-0.035,0.050
1741,-0.020,0.075
1742,0.000,0.030
1743,0.020,0.015
1744,0.025,-0.020
1745,-0.005,-0.030
1746,-0.090,-0.055
1747,-0.115,-0.010
1748,-0.140,-0.010
1749,-0.200,-0.040
1750,-0.220,-0.075
1751,-0.245,-0.045
1752,-0.240,-0.065
1753,-0.240,-0.065
1754,-0.250,-0.055
1755,-0.250,-0.040
1756,-0.255,-0.035
1757,-0.265,-0.040
1758,-0.270,-0.055
1759,-0.265,-0.040
1760,-0.265,-0.045
1761,-0.250,-0.030
1762,-0.265,-0.045
1763,-0.255,-0.030
1764,-0.270,-0.020
1765,-0.330,-0.035
1766,-0.420,-0.060
1767,-0.425,-0.105
1768,-0.050,-0.285
1769,0.670,-0.530
1770,1.140,-0.315
1771,0.360,0.360
1772,-0.805,0.665
1773,-0.985,0.135
1774,-0.590,-0.240
1775,-0.350,-0.250
1776,-0.305,-0.095
1777,-0.290,-0.025
1778,-0.270,-0.030
1779,-0.255,-0.030
1780,-0.255,-0.025
1781,-0.255,-0.030
1782,-0.235,-0.020
1783,-0.235,-0.035
1784,-0.225,-0.025
1785,-0.225,-0.015
1786,-0.220,-0.020
1787,-0.215,-0.005
1788,-0.200,-0.015
1789,-0.180,-0.015
1790,-0.170,-0.010
1791,-0.155,0.010
1792,-0.130,-0.030
1793,-0.095,-0.010
1794,-0.040,-0.010
1795,0.015,-0.015
1796,0.075,-0.025
1797,0.140,-0.040
1798,0.200,-0.055
1799,0.235,-0.075
1800,0.250,-0.065
1801,0.260,-0.070
1802,0.230,-0.075
1803,0.195,-0.055
1804,0.125,-0.060
1805,0.075,-0.060
1806,0.020,-0.020
1807,-0.040,-0.040
1808,-0.085,-0.030
1809,-0.130,-0.030
1810,-0.130,-0.025
1811,-0.165,-0.010
1812,-0.180,-0.025
1813,-0.190,-0.030
1814,-0.220,-0.030
1815,-0.220,-0.035
1816,-0.220,-0.035
1817,-0.225,-0.030
1818,-0.245,-0.015
1819,-0.250,-0.015
1820,-0.245,-0.020
1821,-0.250,-0.015
1822,-0.250,0.000
1823,-0.230,-0.010
1824,-0.250,0.000
1825,-0.255,-0.005
1826,-0.250,0.000
1827,-0.230,0.000
1828,-0.205,0.005
1829,-0.180,0.035
1830,-0.150,0.080
1831,-0.100,0.065
1832,-0.035,0.075
1833,-0.040,0.075
1834,-0.010,0.030
1835,0.015,0.025
1836,0.010,-0.015
1837,-0.065,-0.030
1838,-0.140,0.020
1839,-0.175,0.000
1840,-0.195,-0.025
1841,-0.220,-0.030
1842,-0.225,-0.020
1843,-0.230,-0.040
1844,-0.230,-0.030
1845,-0.235,-0.025
1846,-0.245,-0.030
1847,-0.240,-0.035
1848,-0.230,-0.060
1849,-0.230,-0.040
1850,-0.245,-0.035
1851,-0.255,-0.045
1852,-0.250,-0.030
1853,-0.260,-0.025
1854,-0.235,-0.025
1855,-0.220,-0.045
1856,-0.275,-0.040
1857,-0.400,-0.065
1858,-0.425,-0.075
1859,-0.180,-0.260
1860,0.520,-0.545
1861,1.090,-0.390
1862,0.490,0.270
1863,-0.690,0.655
1864,-1.005,0.225
1865,-0.645,-0.220
1866,-0.350,-0.275
1867,-0.270,-0.125
1868,-0.270,-0.030
1869,-0.260,0.000
1870,-0.240,0.000
1871,-0.235,-0.010
1872,-0.230,0.000
1873,-0.205,0.025
1874,-0.215,-0.015
1875,-0.210,-0.015
1876,-0.190,0.000
1877,-0.185,0.000
1878,-0.165,0.005
1879,-0.190,0.000
1880,-0.150,0.000
1881,-0.150,0.000
1882,-0.120,0.000
1883,-0.080,0.000
1884,-0.065,0.000
1885,-0.015,-0.005
1886,0.045,-0.010
1887,0.110,-0.025
1888,0.185,-0.035
1889,0.220,-0.040
1890,0.260,-0.045
1891,0.295,-0.055
1892,0.275,-0.070
1893,0.275,-0.075
1894,0.210,-0.050
1895,0.165,-0.055
1896,0.105,-0.045
1897,0.055,-0.010
1898,-0.015,-0.020
1899,-0.050,-0.040
1900,-0.065,-0.045
1901,-0.110,-0.045
1902,-0.155,-0.030
1903,-0.170,-0.030
1904,-0.185,-0.015
1905,-0.195,-0.010
1906,-0.210,-0.040
1907,-0.220,-0.045
1908,-0.205,-0.025
1909,-0.200,-0.035
1910,-0.210,-0.015
1911,-0.225,-0.020
1912,-0.235,-0.040
1913,-0.215,-0.035
1914,-0.215,-0.035
1915,-0.215,-0.015
1916,-0.225,-0.025
1917,-0.215,-0.005
1918,-0.205,-0.025
1919,-0.205,-0.015
1920,-0.175,-0.020
1921,-0.150,0.005
1922,-0.155,0.040
1923,-0.125,0.035
1924,-0.020,0.040
1925,-0.035,0.065
1926,-0.040,0.035
1927,0.010,0.000
1928,0.005,-0.050
1929,-0.055,-0.075
1930,-0.140,-0.045
1931,-0.155,-0.035
1932,-0.180,-0.080
1933,-0.205,-0.065
1934,-0.215,-0.070
1935,-0.225,-0.075
1936,-0.245,-0.085
1937,-0.230,-0.090
1938,-0.235,-0.105
1939,-0.235,-0.070
1940,-0.245,-0.065
1941,-0.245,-0.075
1942,-0.250,-0.080
1943,-0.280,-0.075
1944,-0.260,-0.070
1945,-0.250,-0.085
1946,-0.235,-0.070
1947,-0.250,-0.100
1948,-0.360,-0.095
1949,-0.440,-0.115
1950,-0.355,-0.210
1951,0.225,-0.460
1952,0.980,-0.555
1953,0.920,-0.095
1954,-0.195,0.435
1955,-0.990,0.500
1956,-0.865,-0.160
1957,-0.500,-0.360
1958,-0.335,-0.295
1959,-0.280,-0.125
1960,-0.275,-0.070
1961,-0.240,-0.070
1962,-0.235,-0.065
1963,-0.240,-0.055
1964,-0.230,-0.065
1965,-0.215,-0.065
1966,-0.205,-0.060
1967,-0.185,-0.060
1968,-0.185,-0.050
1969,-0.190,-0.055
1970,-0.180,-0.050
1971,-0.160,-0.055
1972,-0.155,-0.035
1973,-0.135,-0.050
1974,-0.100,-0.040
1975,-0.070,-0.050
1976,-0.025,-0.060
1977,0.020,-0.060
1978,0.070,-0.075
1979,0.175,-0.090
1980,0.230,-0.080
1981,0.280,-0.110
1982,0.295,-0.125
1983,0.310,-0.120
1984,0.285,-0.110
1985,0.235,-0.120
1986,0.170,-0.105
1987,0.120,-0.095
1988,0.055,-0.075
1989,0.005,-0.080
1990,-0.055,-0.070
1991,-0.075,-0.050
1992,-0.110,-0.055
1993,-0.140,-0.055
1994,-0.160,-0.050
1995,-0.170,-0.055
1996,-0.185,-0.035
1997,-0.170,-0.045
1998,-0.190,-0.040
1999,-0.205,-0.030
2000,-0.200,-0.040
2001,-0.210,-0.035
2002,-0.195,-0.025
2003,-0.195,-0.025
2004,-0.205,-0.020
2005,-0.205,-0.050
2006,-0.210,-0.045
2007,-0.190,-0.030
2008,-0.190,-0.035
2009,-0.180,-0.030
2010,-0.180,-0.035
2011,-0.135,-0.010
2012,-0.130,0.020
2013,-0.115,0.020
2014,-0.045,0.015
2015,0.005,0.035
2016,0.005,0.000
2017,0.020,-0.010
2018,0.045,-0.040
2019,0.010,-0.080
2020,-0.065,-0.080
2021,-0.120,-0.060
2022,-0.150,-0.065
2023,-0.175,-0.095
2024,-0.195,-0.100
2025,-0.200,-0.085
2026,-0.235,-0.105
2027,-0.240,-0.100
2028,-0.240,-0.105
2029,-0.265,-0.110
2030,-0.270,-0.100
2031,-0.260,-0.110
2032,-0.260,-0.110
2033,-0.275,-0.090
2034,-0.270,-0.095
2035,-0.255,-0.100
2036,-0.265,-0.095
2037,-0.255,-0.095
2038,-0.300,-0.105
2039,-0.400,-0.105
2040,-0.440,-0.130
2041,-0.225,-0.260
2042,0.445,-0.505
2043,1.085,-0.460
2044,0.635,0.115
2045,-0.590,0.585
2046,-1.055,0.260
2047,-0.645,-0.255
2048,-0.370,-0.280
2049,-0.290,-0.165
2050,-0.290,-0.085
2051,-0.275,-0.050
2052,-0.265,-0.065
2053,-0.250,-0.035
2054,-0.245,-0.030
2055,-0.245,-0.040
2056,-0.225,-0.030
2057,-0.230,-0.040
2058,-0.220,-0.045
2059,-0.220,-0.025
2060,-0.200,-0.045
2061,-0.185,-0.035
2062,-0.195,-0.045
2063,-0.180,-0.050
2064,-0.140,-0.040
2065,-0.105,-0.055
2066,-0.080,-0.045
2067,-0.035,-0.040
2068,0.025,-0.040
2069,0.105,-0.055
2070,0.165,-0.060
2071,0.210,-0.040
2072,0.245,-0.070
2073,0.260,-0.100
2074,0.265,-0.090
2075,0.240,-0.070
2076,0.210,-0.080
2077,0.150,-0.080
2078,0.085,-0.055
2079,0.025,-0.065
2080,-0.030,-0.055
2081,-0.085,-0.040
2082,-0.125,-0.040
2083,-0.140,-0.035
2084,-0.185,-0.035
2085,-0.180,-0.045
2086,-0.180,-0.020
2087,-0.210,-0.025
2088,-0.215,-0.045
2089,-0.210,-0.020
2090,-0.225,-0.035
2091,-0.215,-0.015
2092,-0.225,-0.020
2093,-0.235,-0.030
2094,-0.235,-0.010
2095,-0.225,-0.005
2096,-0.230,-0.005
2097,-0.220,-0.015
2098,-0.235,0.005
2099,-0.215,0.000
2100,-0.200,0.025
2101,-0.170,0.035
2102,-0.165,0.085
2103,-0.095,0.085
2104,-0.030,0.090
2105,-0.035,0.100
2106,-0.010,0.030
2107,0.000,0.020
2108,0.000,-0.010
2109,-0.060,-0.035
2110,-0.150,0.010
2111,-0.170,0.000
2112,-0.200,-0.025
2113,-0.225,-0.035
2114,-0.245,-0.030
2115,-0.245,-0.030
2116,-0.250,-0.040
2117,-0.230,-0.030
2118,-0.255,-0.050
2119,-0.250,-0.060
2120,-0.260,-0.055
2121,-0.275,-0.060
2122,-0.275,-0.050
2123,-0.280,-0.035
2124,-0.280,-0.055
2125,-0.280,-0.055
2126,-0.275,-0.040
2127,-0.290,-0.050
2128,-0.280,-0.020
2129,-0.340,-0.045
2130,-0.430,-0.050
2131,-0.400,-0.130
2132,0.035,-0.335
2133,0.770,-0.540
2134,1.045,-0.195
2135,0.130,0.435
2136,-0.915,0.650
2137,-0.910,0.035
2138,-0.530,-0.250
2139,-0.330,-0.225
2140,-0.280,-0.085
2141,-0.270,-0.035
2142,-0.270,0.000
2143,-0.260,0.000
2144,-0.245,-0.010
2145,-0.230,-0.005
2146,-0.230,-0.020
2147,-0.205,-0.015
2148,-0.210,-0.020
2149,-0.185,-0.015
2150,-0.195,0.000
2151,-0.190,0.005
2152,-0.180,-0.025
2153,-0.160,0.000
2154,-0.155,0.015
2155,-0.150,-0.015
2156,-0.115,-0.005
2157,-0.070,-0.010
2158,-0.055,-0.030
2159,-0.005,-0.020
2160,0.035,-0.035
2161,0.090,-0.060
2162,0.150,-0.055
2163,0.200,-0.070
2164,0.235,-0.065
2165,0.240,-0.085
2166,0.220,-0.090
2167,0.195,-0.110
2168,0.130,-0.085
2169,0.085,-0.050
2170,0.030,-0.045
2171,-0.010,-0.070
2172,-0.065,-0.055
2173,-0.095,-0.060
2174,-0.140,-0.080
2175,-0.155,-0.055
2176,-0.185,-0.070
2177,-0.200,-0.065
2178,-0.215,-0.060
2179,-0.240,-0.030
2180,-0.230,-0.075
2181,-0.245,-0.065
2182,-0.255,-0.040
2183,-0.245,-0.045
2184,-0.260,-0.050
2185,-0.255,-0.060
2186,-0.270,-0.045
2187,-0.270,-0.030
2188,-0.245,-0.045
2189,-0.255,-0.030
2190,-0.245,-0.050
2191,-0.235,-0.060
2192,-0.230,-0.035
2193,-0.225,-0.035
2194,-0.215,-0.015
2195,-0.190,0.030
2196,-0.155,0.000
2197,-0.075,-0.005
2198,-0.040,0.015
2199,-0.055,0.005
2200,-0.035,-0.025
2201,-0.025,-0.035
2202,-0.050,-0.075
2203,-0.150,-0.105
2204,-0.195,-0.065
2205,-0.205,-0.060
2206,-0.230,-0.075
2207,-0.265,-0.100
2208,-0.265,-0.105
2209,-0.255,-0.105
2210,-0.280,-0.115
2211,-0.280,-0.120
2212,-0.270,-0.105
2213,-0.280,-0.105
2214,-0.265,-0.095
2215,-0.275,-0.110
2216,-0.265,-0.095
2217,-0.285,-0.115
2218,-0.275,-0.120
2219,-0.300,-0.120
2220,-0.275,-0.120
2221,-0.300,-0.095
2222,-0.330,-0.075
2223,-0.410,-0.095
2224,-0.440,-0.140
2225,-0.245,-0.285
2226,0.360,-0.540
2227,0.990,-0.515
2228,0.745,-0.025
2229,-0.310,0.450
2230,-1.000,0.475
2231,-0.860,-0.165
2232,-0.530,-0.355
2233,-0.340,-0.290
2234,-0.290,-0.125
2235,-0.285,-0.065
2236,-0.275,-0.055
2237,-0.275,-0.045
2238,-0.260,-0.045
2239,-0.240,-0.020
2240,-0.260,-0.045
2241,-0.245,-0.065
2242,-0.225,-0.040
2243,-0.220,-0.070
2244,-0.200,-0.050
2245,-0.205,-0.060
2246,-0.220,-0.025
2247,-0.190,-0.060
2248,-0.190,-0.065
2249,-0.160,-0.065
2250,-0.125,-0.080
2251,-0.110,-0.070
2252,-0.060,-0.075
2253,-0.005,-0.105
2254,0.060,-0.115
2255,0.115,-0.130
2256,0.195,-0.135
2257,0.220,-0.130
2258,0.250,-0.165
2259,0.240,-0.140
2260,0.220,-0.140
2261,0.190,-0.135
2262,0.135,-0.130
2263,0.065,-0.115
2264,0.025,-0.110
2265,-0.010,-0.115
2266,-0.050,-0.075
2267,-0.095,-0.110
2268,-0.145,-0.085
2269,-0.170,-0.080
2270,-0.185,-0.080
2271,-0.195,-0.080
2272,-0.230,-0.065
2273,-0.225,-0.060
2274,-0.240,-0.070
2275,-0.250,-0.075
2276,-0.265,-0.065
2277,-0.235,-0.055
2278,-0.270,-0.055
2279,-0.275,-0.075
2280,-0.250,-0.070
2281,-0.235,-0.065
2282,-0.255,-0.080
2283,-0.265,-0.065
2284,-0.255,-0.070
2285,-0.250,-0.075
2286,-0.250,-0.080
2287,-0.245,-0.060
2288,-0.200,-0.055
2289,-0.200,-0.035
2290,-0.190,-0.025
2291,-0.115,-0.035
2292,-0.075,-0.015
2293,-0.070,-0.030
2294,-0.055,-0.065
2295,-0.055,-0.110
2296,-0.075,-0.125
2297,-0.155,-0.135
2298,-0.210,-0.115
2299,-0.225,-0.105
2300,-0.255,-0.135
2301,-0.280,-0.155
2302,-0.280,-0.130
2303,-0.290,-0.150
2304,-0.295,-0.150
2305,-0.305,-0.145
2306,-0.310,-0.115
2307,-0.310,-0.145
2308,-0.320,-0.135
2309,-0.315,-0.150
2310,-0.320,-0.140
2311,-0.305,-0.145
2312,-0.305,-0.130
2313,-0.315,-0.150
2314,-0.325,-0.140
2315,-0.355,-0.140
2316,-0.455,-0.135
2317,-0.500,-0.165
2318,-0.280,-0.320
2319,0.405,-0.555
2320,1.055,-0.510
2321,0.565,0.075
2322,-0.585,0.525
2323,-1.065,0.295
2324,-0.750,-0.290
2325,-0.460,-0.335
2326,-0.340,-0.265
2327,-0.335,-0.105
2328,-0.315,-0.115
2329,-0.295,-0.100
2330,-0.295,-0.095
2331,-0.310,-0.085
2332,-0.300,-0.095
2333,-0.270,-0.075
2334,-0.270,-0.080
2335,-0.260,-0.075
2336,-0.270,-0.065
2337,-0.250,-0.090
2338,-0.240,-0.070
2339,-0.215,-0.065
2340,-0.210,-0.065
2341,-0.185,-0.080
2342,-0.175,-0.070
2343,-0.140,-0.090
2344,-0.100,-0.075
2345,-0.025,-0.100
2346,0.025,-0.075
2347,0.090,-0.105
2348,0.145,-0.110
2349,0.190,-0.115
2350,0.225,-0.135
2351,0.225,-0.125
2352,0.205,-0.090
2353,0.165,-0.095
2354,0.100,-0.090
2355,0.050,-0.085
2356,-0.015,-0.055
2357,-0.070,-0.040
2358,-0.105,-0.040
2359,-0.145,-0.040
2360,-0.180,-0.020
2361,-0.190,-0.045
2362,-0.210,-0.025
2363,-0.235,-0.035
2364,-0.215,-0.015
2365,-0.235,0.010
2366,-0.235,-0.025
2367,-0.245,0.000
2368,-0.240,0.000
2369,-0.265,-0.005
2370,-0.260,-0.005
2371,-0.265,0.000
2372,-0.245,-0.005
2373,-0.250,0.000
2374,-0.265,-0.005
2375,-0.265,0.000
2376,-0.250,0.005
2377,-0.220,0.015
2378,-0.200,0.070
2379,-0.165,0.045
2380,-0.100,0.035
2381,-0.060,0.055
2382,-0.050,0.040
2383,-0.045,0.005
2384,-0.035,-0.005
2385,-0.055,-0.045
2386,-0.145,-0.045
2387,-0.195,-0.010
2388,-0.215,-0.020
2389,-0.245,-0.040
2390,-0.245,-0.025
2391,-0.255,-0.055
2392,-0.280,-0.040
2393,-0.255,-0.055
2394,-0.270,-0.065
2395,-0.280,-0.055
2396,-0.295,-0.045
2397,-0.290,-0.050
2398,-0.285,-0.040
2399,-0.310,-0.050
2400,-0.305,-0.065
2401,-0.310,-0.050
2402,-0.300,-0.055
2403,-0.305,-0.050
2404,-0.325,-0.035
2405,-0.435,-0.070
2406,-0.470,-0.090
2407,-0.255,-0.225
2408,0.450,-0.480
2409,1.070,-0.445
2410,0.535,0.225
2411,-0.720,0.660
2412,-1.050,0.245
2413,-0.660,-0.240
2414,-0.390,-0.240
2415,-0.320,-0.130
2416,-0.310,-0.025
2417,-0.315,-0.030
2418,-0.305,-0.040
2419,-0.305,-0.030
2420,-0.310,-0.040
2421,-0.285,-0.020
2422,-0.280,-0.025
2423,-0.285,-0.010
2424,-0.265,-0.015
2425,-0.265,-0.045
2426,-0.255,-0.025
2427,-0.255,-0.035
2428,-0.235,-0.020
2429,-0.210,-0.035
2430,-0.175,-0.020
2431,-0.170,-0.025
2432,-0.120,-0.040
2433,-0.090,-0.035
2434,-0.020,-0.060
2435,0.050,-0.055
2436,0.115,-0.060
2437,0.170,-0.090
2438,0.190,-0.070
2439,0.195,-0.085
2440,0.190,-0.090
2441,0.155,-0.070
2442,0.100,-0.075
2443,0.055,-0.060
2444,-0.010,-0.050
2445,-0.075,-0.060
2446,-0.125,-0.055
2447,-0.150,-0.045
2448,-0.205,-0.040
2449,-0.235,-0.050
2450,-0.260,-0.040
2451,-0.265,-0.045
2452,-0.280,-0.050
2453,-0.280,-0.040
2454,-0.300,-0.050
2455,-0.315,-0.040
2456,-0.295,-0.020
2457,-0.295,-0.050
2458,-0.290,-0.050
2459,-0.310,-0.015
2460,-0.315,-0.040
2461,-0.310,-0.025
2462,-0.310,0.000
2463,-0.300,0.000
2464,-0.275,-0.020
2465,-0.250,0.025
2466,-0.240,0.025
2467,-0.180,0.030
2468,-0.100,0.045
2469,-0.095,0.080
2470,-0.075,0.025
2471,-0.065,0.000
2472,-0.055,-0.025
2473,-0.105,-0.075
2474,-0.190,-0.065
2475,-0.210,-0.040
2476,-0.245,-0.045
2477,-0.270,-0.045
2478,-0.300,-0.055
2479,-0.310,-0.070
2480,-0.325,-0.085
2481,-0.320,-0.065
2482,-0.310,-0.040
2483,-0.315,-0.055
2484,-0.315,-0.045
2485,-0.305,-0.055
2486,-0.310,-0.065
2487,-0.310,-0.055
2488,-0.305,-0.035
2489,-0.320,-0.030
2490,-0.315,-0.060
2491,-0.295,-0.050
2492,-0.350,-0.065
2493,-0.450,-0.095
2494,-0.465,-0.110
2495,-0.175,-0.300
2496,0.565,-0.575
2497,1.030,-0.385
2498,0.185,0.300
2499,-0.910,0.625
2500,-0.995,0.075
2501,-0.620,-0.280
2502,-0.385,-0.275
2503,-0.340,-0.125
2504,-0.330,-0.030
2505,-0.320,-0.040
2506,-0.305,-0.030
2507,-0.305,-0.025
2508,-0.290,-0.005
2509,-0.295,-0.005
2510,-0.290,-0.030
2511,-0.265,0.000
2512,-0.255,-0.025
2513,-0.260,-0.005
2514,-0.250,-0.020
2515,-0.245,-0.035
2516,-0.220,-0.010
2517,-0.200,0.000
2518,-0.175,-0.035
2519,-0.160,-0.025
2520,-0.105,0.000
2521,-0.065,-0.030
2522,-0.010,-0.015
2523,0.035,-0.045
2524,0.100,-0.070
2525,0.170,-0.080
2526,0.185,-0.075
2527,0.210,-0.105
2528,0.190,-0.095
2529,0.175,-0.075
2530,0.130,-0.065
2531,0.080,-0.055
2532,0.005,-0.025
2533,-0.050,-0.050
2534,-0.080,-0.025
2535,-0.125,-0.005
2536,-0.185,-0.020
2537,-0.230,-0.040
2538,-0.225,-0.030
2539,-0.240,-0.035
2540,-0.260,-0.020
2541,-0.280,0.000
2542,-0.265,-0.015
2543,-0.265,-0.025
2544,-0.265,-0.020
2545,-0.260,-0.010
2546,-0.285,-0.035
2547,-0.290,-0.015
2548,-0.305,-0.035
2549,-0.295,-0.040
2550,-0.285,-0.055
2551,-0.285,-0.060
2552,-0.280,-0.030
2553,-0.280,-0.040
2554,-0.250,-0.050
2555,-0.230,-0.015
2556,-0.215,0.000
2557,-0.200,0.000
2558,-0.140,0.000
2559,-0.095,0.025
2560,-0.115,-0.005
2561,-0.060,-0.005
2562,-0.030,-0.050
2563,-0.085,-0.080
2564,-0.185,-0.065
2565,-0.200,-0.060
2566,-0.225,-0.065
2567,-0.260,-0.080
2568,-0.265,-0.080
2569,-0.295,-0.075
2570,-0.270,-0.085
2571,-0.285,-0.095
2572,-0.300,-0.100
2573,-0.300,-0.090
2574,-0.310,-0.100
2575,-0.300,-0.100
2576,-0.300,-0.085
2577,-0.300,-0.100
2578,-0.310,-0.075
2579,-0.305,-0.100
2580,-0.300,-0.080
2581,-0.305,-0.070
2582,-0.330,-0.095
2583,-0.445,-0.100
2584,-0.475,-0.155
2585,-0.240,-0.285
2586,0.450,-0.525
2587,1.080,-0.475
2588,0.560,0.070
2589,-0.610,0.480
2590,-1.040,0.310
2591,-0.780,-0.235
2592,-0.470,-0.350
2593,-0.360,-0.245
2594,-0.325,-0.105
2595,-0.325,-0.075
2596,-0.305,-0.085
2597,-0.305,-0.070
2598,-0.285,-0.080
2599,-0.290,-0.055
2600,-0.280,-0.070
2601,-0.265,-0.065
2602,-0.280,-0.045
2603,-0.260,-0.085
2604,-0.250,-0.095
2605,-0.245,-0.060
2606,-0.210,-0.060
2607,-0.205,-0.060
2608,-0.180,-0.070
2609,-0.175,-0.060
2610,-0.145,-0.060
2611,-0.090,-0.065
2612,-0.040,-0.075
2613,0.020,-0.090
2614,0.065,-0.080
2615,0.135,-0.120
2616,0.165,-0.135
2617,0.210,-0.130
2618,0.205,-0.145
2619,0.200,-0.135
2620,0.150,-0.120
2621,0.110,-0.100
2622,0.020,-0.070
2623,-0.030,-0.075
2624,-0.080,-0.065
2625,-0.115,-0.040
2626,-0.155,-0.030
2627,-0.185,-0.040
2628,-0.205,-0.035
2629,-0.205,-0.025
2630,-0.235,-0.040
2631,-0.245,-0.035
2632,-0.260,-0.025
2633,-0.260,-0.020
2634,-0.275,-0.035
2635,-0.275,-0.025
2636,-0.275,-0.030
2637,-0.275,-0.015
2638,-0.275,-0.010
2639,-0.285,-0.030
2640,-0.285,-0.015
2641,-0.280,-0.015
2642,-0.270,-0.025
2643,-0.260,-0.020
2644,-0.255,-0.030
2645,-0.230,0.000
2646,-0.205,0.020
2647,-0.190,0.050
2648,-0.135,0.030
2649,-0.060,0.050
2650,-0.055,0.045
2651,-0.030,0.010
2652,-0.005,-0.010
2653,-0.030,-0.045
2654,-0.080,-0.055
2655,-0.155,-0.050
2656,-0.180,-0.030
2657,-0.200,-0.060
2658,-0.220,-0.055
2659,-0.225,-0.075
2660,-0.235,-0.055
2661,-0.255,-0.065
2662,-0.260,-0.070
2663,-0.285,-0.060
2664,-0.280,-0.065
2665,-0.270,-0.070
2666,-0.280,-0.060
2667,-0.300,-0.050
2668,-0.275,-0.040
2669,-0.290,-0.065
2670,-0.265,-0.060
2671,-0.260,-0.050
2672,-0.280,-0.040
2673,-0.305,-0.050
2674,-0.395,-0.065
2675,-0.445,-0.095
2676,-0.280,-0.195
2677,0.290,-0.420
2678,0.975,-0.500
2679,0.805,-0.010
2680,-0.270,0.535
2681,-0.990,0.485
2682,-0.785,-0.085
2683,-0.445,-0.255
2684,-0.330,-0.210
2685,-0.305,-0.070
2686,-0.295,-0.025
2687,-0.285,-0.030
2688,-0.285,-0.025
2689,-0.290,0.000
2690,-0.275,-0.020
2691,-0.265,-0.015
2692,-0.260,-0.010
2693,-0.255,-0.030
2694,-0.240,-0.030
2695,-0.255,-0.015
2696,-0.230,-0.025
2697,-0.215,-0.015
2698,-0.200,-0.030
2699,-0.190,-0.035
2700,-0.165,-0.020
2701,-0.145,-0.010
2702,-0.105,-0.010
2703,-0.070,-0.015
2704,-0.010,-0.005
2705,0.035,-0.020
2706,0.105,-0.050
2707,0.165,-0.070
2708,0.215,-0.065
2709,0.210,-0.050
2710,0.220,-0.055
2711,0.170,-0.060
2712,0.155,-0.070
2713,0.075,-0.055
2714,0.010,-0.040
2715,-0.015,-0.035
2716,-0.070,-0.040
2717,-0.110,-0.025
2718,-0.150,-0.025
2719,-0.190,-0.020
2720,-0.210,-0.025
2721,-0.240,-0.040
2722,-0.235,-0.010
2723,-0.240,-0.015
2724,-0.255,-0.025
2725,-0.250,-0.025
2726,-0.255,-0.035
2727,-0.270,-0.025
2728,-0.260,-0.010
2729,-0.270,-0.010
2730,-0.275,0.000
2731,-0.285,0.000
2732,-0.285,-0.010
2733,-0.270,-0.020
2734,-0.275,0.000
2735,-0.240,0.010
2736,-0.225,0.065
2737,-0.200,0.080
2738,-0.130,0.075
2739,-0.080,0.095
2740,-0.090,0.100
2741,-0.055,0.060
2742,-0.025,0.045
2743,-0.040,0.010
2744,-0.100,-0.005
2745,-0.155,0.000
2746,-0.185,0.010
2747,-0.220,0.000
2748,-0.235,0.000
2749,-0.265,-0.005
2750,-0.265,-0.020
2751,-0.265,-0.025
2752,-0.265,-0.015
2753,-0.275,-0.025
2754,-0.290,-0.010
2755,-0.280,-0.005
2756,-0.290,0.000
2757,-0.295,0.000
2758,-0.290,0.000
2759,-0.290,-0.005
2760,-0.290,-0.010
2761,-0.280,-0.005
2762,-0.295,-0.015
2763,-0.295,-0.010
2764,-0.370,-0.035
2765,-0.430,-0.025
2766,-0.425,-0.085
2767,-0.050,-0.260
2768,0.645,-0.480
2769,1.050,-0.305
2770,0.335,0.385
2771,-0.775,0.695
2772,-0.980,0.240
2773,-0.615,-0.160
2774,-0.375,-0.195
2775,-0.315,-0.080
2776,-0.315,0.005
2777,-0.295,0.000
2778,-0.280,0.010
2779,-0.280,0.020
2780,-0.275,0.020
2781,-0.270,0.015
2782,-0.255,0.025
2783,-0.255,0.015
2784,-0.235,0.015
2785,-0.240,0.025
2786,-0.235,0.025
2787,-0.205,0.035
2788,-0.205,0.020
2789,-0.170,0.020
2790,-0.175,0.010
2791,-0.140,0.010
2792,-0.135,0.005
2793,-0.105,0.010
2794,-0.045,0.010
2795,0.000,0.000
2796,0.070,0.005
2797,0.105,-0.010
2798,0.180,-0.025
2799,0.205,-0.025
2800,0.225,-0.035
2801,0.215,-0.050
2802,0.200,-0.020
2803,0.155,-0.020
2804,0.095,-0.010
2805,0.030,-0.020
2806,-0.010,-0.030
2807,-0.060,-0.005
2808,-0.100,-0.020
2809,-0.155,-0.020
2810,-0.180,-0.005
2811,-0.195,-0.020
2812,-0.210,-0.015
2813,-0.215,-0.025
2814,-0.225,-0.020
2815,-0.230,-0.020
2816,-0.235,-0.035
2817,-0.250,-0.010
2818,-0.250,-0.020
2819,-0.270,-0.010
2820,-0.270,-0.025
2821,-0.275,-0.020
2822,-0.255,-0.005
2823,-0.260,-0.020
2824,-0.265,-0.015
2825,-0.255,-0.010
2826,-0.230,-0.005
2827,-0.210,0.010
2828,-0.200,0.030
2829,-0.175,0.050
2830,-0.090,0.030
2831,-0.045,0.075
2832,-0.045,0.065
2833,-0.045,0.040
2834,-0.020,0.000
2835,-0.030,-0.010
2836,-0.125,-0.055
2837,-0.185,-0.025
2838,-0.205,-0.025
2839,-0.225,-0.025
2840,-0.265,-0.060
2841,-0.275,-0.070
2842,-0.270,-0.055
2843,-0.290,-0.050
2844,-0.265,-0.055
2845,-0.290,-0.065
2846,-0.295,-0.050
2847,-0.300,-0.055
2848,-0.285,-0.065
2849,-0.290,-0.055
2850,-0.300,-0.085
2851,-0.305,-0.055
2852,-0.305,-0.055
2853,-0.310,-0.045
2854,-0.315,-0.060
2855,-0.355,-0.075
2856,-0.450,-0.070
2857,-0.460,-0.120
2858,-0.200,-0.285
2859,0.495,-0.550
2860,1.055,-0.465
2861,0.425,0.165
2862,-0.670,0.565
2863,-1.030,0.310
2864,-0.755,-0.225
2865,-0.435,-0.315
2866,-0.330,-0.215
2867,-0.315,-0.070
2868,-0.290,-0.040
2869,-0.270,-0.005
2870,-0.280,-0.015
2871,-0.260,-0.030
2872,-0.265,0.000
2873,-0.250,-0.005
2874,-0.240,-0.020
2875,-0.245,-0.010
2876,-0.245,0.000
2877,-0.215,0.005
2878,-0.205,0.005
2879,-0.180,-0.020
2880,-0.190,-0.005
2881,-0.165,0.000
2882,-0.140,0.000
2883,-0.095,-0.010
2884,-0.065,-0.020
2885,-0.010,-0.025
2886,0.050,-0.035
2887,0.110,-0.050
2888,0.185,-0.050
2889,0.220,-0.065
2890,0.220,-0.075
2891,0.235,-0.095
2892,0.210,-0.080
2893,0.175,-0.085
2894,0.105,-0.050
2895,0.030,-0.050
2896,-0.015,-0.055
2897,-0.055,-0.030
2898,-0.115,-0.020
2899,-0.130,0.000
2900,-0.170,0.000
2901,-0.190,0.010
2902,-0.195,-0.015
2903,-0.230,0.000
2904,-0.205,0.000
2905,-0.220,-0.015
2906,-0.230,-0.005
2907,-0.245,-0.010
2908,-0.240,0.000
2909,-0.230,0.005
2910,-0.240,0.005
2911,-0.250,-0.010
2912,-0.245,-0.005
2913,-0.250,0.000
2914,-0.230,-0.010
2915,-0.220,-0.020
2916,-0.220,-0.005
2917,-0.195,0.000
2918,-0.175,0.015
2919,-0.175,0.035
2920,-0.145,0.015
2921,-0.050,0.015
2922,-0.010,0.060
2923,-0.025,0.005
2924,-0.010,-0.005
2925,-0.010,-0.035
2926,-0.070,-0.070
2927,-0.135,-0.050
2928,-0.165,-0.035
2929,-0.195,-0.060
2930,-0.215,-0.075
2931,-0.245,-0.085
2932,-0.240,-0.105
2933,-0.260,-0.090
2934,-0.245,-0.110
2935,-0.255,-0.100
2936,-0.265,-0.095
2937,-0.260,-0.115
2938,-0.265,-0.100
2939,-0.270,-0.070
2940,-0.275,-0.095
2941,-0.275,-0.105
2942,-0.265,-0.085
2943,-0.275,-0.085
2944,-0.290,-0.145
2945,-0.375,-0.105
2946,-0.460,-0.140
2947,-0.370,-0.205
2948,0.165,-0.415
2949,0.945,-0.575
2950,0.890,-0.150
2951,-0.245,0.390
2952,-0.990,0.480
2953,-0.805,-0.150
2954,-0.485,-0.345
2955,-0.345,-0.265
2956,-0.305,-0.105
2957,-0.305,-0.070
2958,-0.270,-0.070
2959,-0.275,-0.055
2960,-0.265,-0.075
2961,-0.260,-0.065
2962,-0.255,-0.050
2963,-0.240,-0.060
2964,-0.250,-0.065
2965,-0.265,-0.050
2966,-0.245,-0.060
2967,-0.230,-0.050
2968,-0.210,-0.065
2969,-0.210,-0.070
2970,-0.175,-0.055
2971,-0.160,-0.060
2972,-0.120,-0.080
2973,-0.055,-0.075
2974,-0.015,-0.070
2975,0.030,-0.080
2976,0.105,-0.100
2977,0.160,-0.115
2978,0.200,-0.115
2979,0.215,-0.115
2980,0.205,-0.115
2981,0.180,-0.110
2982,0.130,-0.105
2983,0.070,-0.105
2984,0.015,-0.075
2985,-0.050,-0.055
2986,-0.095,-0.055
2987,-0.125,-0.055
2988,-0.180,-0.035
2989,-0.220,-0.040
2990,-0.235,-0.025
2991,-0.245,-0.025
2992,-0.260,-0.035
2993,-0.275,0.000
2994,-0.280,-0.005
2995,-0.265,-0.020
2996,-0.290,-0.020
2997,-0.270,-0.015
2998,-0.295,-0.010
2999,-0.270,-0.010
3000,-0.275,-0.005
3001,-0.280,0.000
3002,-0.285,0.000
3003,-0.265,0.000
3004,-0.240,-0.005
3005,-0.230,0.025
3006,-0.170,0.060
3007,-0.140,0.090
3008,-0.075,0.070
3009,-0.035,0.085
3010,-0.040,0.055
3011,-0.035,0.040
3012,0.000,0.000
3013,-0.050,-0.030
3014,-0.125,-0.035
3015,-0.165,-0.005
3016,-0.185,0.000
3017,-0.215,-0.035
3018,-0.225,-0.030
3019,-0.240,-0.035
3020,-0.260,-0.025
3021,-0.255,-0.035
3022,-0.260,-0.030
3023,-0.265,-0.055
3024,-0.285,-0.025
3025,-0.265,-0.040
3026,-0.275,-0.040
3027,-0.305,-0.040
3028,-0.290,-0.030
3029,-0.280,-0.040
3030,-0.295,-0.025
3031,-0.280,-0.030
3032,-0.320,-0.020
3033,-0.420,-0.045
3034,-0.440,-0.060
3035,-0.200,-0.220
3036,0.490,-0.460
3037,1.110,-0.380
3038,0.570,0.230
3039,-0.630,0.655
3040,-1.005,0.345
3041,-0.650,-0.145
3042,-0.385,-0.215
3043,-0.295,-0.095
3044,-0.295,0.005
3045,-0.280,0.005
3046,-0.275,-0.005
3047,-0.265,0.015
3048,-0.255,0.000
3049,-0.265,0.000
3050,-0.255,0.025
3051,-0.215,0.015
3052,-0.225,0.015
3053,-0.225,0.005
3054,-0.215,0.010
3055,-0.225,0.015
3056,-0.200,0.020
3057,-0.190,0.010
3058,-0.170,0.020
3059,-0.140,0.015
3060,-0.115,0.020
3061,-0.065,0.015
3062,-0.020,0.005
3063,0.055,0.015
3064,0.120,-0.005
3065,0.185,-0.015
3066,0.215,-0.030
3067,0.230,-0.030
3068,0.235,-0.025
3069,0.195,-0.025
3070,0.180,-0.040
3071,0.115,-0.020
3072,0.050,-0.010
3073,0.000,-0.005
3074,-0.065,0.000
3075,-0.090,-0.005
3076,-0.160,0.000
3077,-0.175,0.000
3078,-0.200,0.000
3079,-0.215,0.015
3080,-0.225,-0.015
3081,-0.240,0.005
3082,-0.245,0.000
3083,-0.255,0.000
3084,-0.255,0.005
3085,-0.265,0.000
3086,-0.265,0.000
3087,-0.265,0.000
3088,-0.260,-0.005
3089,-0.260,0.015
3090,-0.260,0.035
3091,-0.275,0.035
3092,-0.270,0.050
3093,-0.225,0.065
3094,-0.220,0.090
3095,-0.185,0.105
3096,-0.120,0.100
3097,-0.060,0.115
3098,-0.070,0.095
3099,-0.050,0.080
3100,-0.045,0.050
3101,-0.050,0.000
3102,-0.135,-0.005
3103,-0.195,0.010
3104,-0.215,0.015
3105,-0.245,0.005
3106,-0.270,0.000
3107,-0.265,0.000
3108,-0.275,-0.015
3109,-0.270,-0.010
3110,-0.275,0.005
3111,-0.270,0.000
3112,-0.300,0.000
3113,-0.300,0.000
3114,-0.305,0.000
3115,-0.315,-0.015
3116,-0.310,-0.005
3117,-0.310,-0.030
3118,-0.295,0.000
3119,-0.290,0.000
3120,-0.295,0.000
3121,-0.335,0.000
3122,-0.430,-0.010
3123,-0.450,-0.055
3124,-0.230,-0.190
3125,0.395,-0.450
3126,1.000,-0.420
3127,0.600,0.160
3128,-0.540,0.645
3129,-1.030,0.440
3130,-0.720,-0.115
3131,-0.400,-0.205
3132,-0.305,-0.110
3133,-0.300,0.000
3134,-0.290,0.035
3135,-0.285,0.030
3136,-0.265,0.045
3137,-0.250,0.055
3138,-0.255,0.055
3139,-0.260,0.055
3140,-0.240,0.040
3141,-0.235,0.055
3142,-0.230,0.060
3143,-0.220,0.075
3144,-0.205,0.045
3145,-0.205,0.055
3146,-0.190,0.050
3147,-0.170,0.055
3148,-0.145,0.035
3149,-0.125,0.040
3150,-0.085,0.045
3151,-0.045,0.040
3152,0.010,0.020
3153,0.075,0.010
3154,0.120,0.000
3155,0.195,0.000
3156,0.225,-0.030
3157,0.220,-0.015
3158,0.225,-0.015
3159,0.190,-0.010
3160,0.135,-0.010
3161,0.080,0.000
3162,0.030,-0.010
3163,-0.005,0.020
3164,-0.030,0.035
3165,-0.085,0.025
3166,-0.125,0.025
3167,-0.155,0.045
3168,-0.170,0.040
3169,-0.180,0.030
3170,-0.205,0.035
3171,-0.225,0.030
3172,-0.220,0.040
3173,-0.230,0.050
3174,-0.215,0.050
3175,-0.230,0.040
3176,-0.225,0.035
3177,-0.230,0.060
3178,-0.245,0.060
3179,-0.240,0.055
3180,-0.225,0.055
3181,-0.255,0.055
3182,-0.225,0.035
3183,-0.220,0.045
3184,-0.225,0.075
3185,-0.200,0.090
3186,-0.165,0.090
3187,-0.125,0.090
3188,-0.055,0.140
3189,-0.050,0.130
3190,-0.050,0.095
3191,-0.035,0.065
3192,-0.035,0.010
3193,-0.085,0.000
3194,-0.160,0.000
3195,-0.185,0.010
3196,-0.210,0.000
3197,-0.250,-0.025
3198,-0.270,-0.030
3199,-0.270,-0.020
3200,-0.275,-0.035
3201,-0.300,-0.010
3202,-0.275,-0.030
3203,-0.280,-0.045
3204,-0.290,-0.025
3205,-0.285,-0.020
3206,-0.290,-0.055
3207,-0.305,-0.035
3208,-0.285,-0.050
3209,-0.290,-0.040
3210,-0.285,-0.020
3211,-0.295,-0.030
3212,-0.335,-0.035
3213,-0.435,-0.045
3214,-0.470,-0.085
3215,-0.285,-0.200
3216,0.360,-0.435
3217,0.985,-0.440
3218,0.670,0.045
3219,-0.425,0.475
3220,-1.025,0.530
3221,-0.860,-0.130
3222,-0.505,-0.275
3223,-0.375,-0.215
3224,-0.330,-0.045
3225,-0.320,-0.025
3226,-0.320,-0.005
3227,-0.300,-0.010
3228,-0.290,0.000
3229,-0.295,0.005
3230,-0.310,-0.010
3231,-0.280,0.010
3232,-0.290,0.005
3233,-0.270,0.010
3234,-0.270,0.000
3235,-0.275,0.005
3236,-0.255,0.000
3237,-0.220,0.000
3238,-0.205,-0.015
3239,-0.200,-0.010
3240,-0.165,0.000
3241,-0.120,-0.020
3242,-0.070,-0.030
3243,-0.005,-0.040
3244,0.035,-0.075
3245,0.100,-0.055
3246,0.140,-0.060
3247,0.190,-0.075
3248,0.220,-0.090
3249,0.200,-0.105
3250,0.175,-0.090
3251,0.140,-0.075
3252,0.085,-0.065
3253,0.020,-0.045
3254,-0.010,-0.025
3255,-0.075,-0.020
3256,-0.125,0.000
3257,-0.155,0.000
3258,-0.200,0.010
3259,-0.220,0.000
3260,-0.225,0.000
3261,-0.235,0.015
3262,-0.245,0.005
3263,-0.260,0.025
3264,-0.280,0.035
3265,-0.260,0.010
3266,-0.270,0.020
3267,-0.285,0.045
3268,-0.280,0.010
3269,-0.260,0.010
3270,-0.250,0.035
3271,-0.275,0.035
3272,-0.280,0.020
3273,-0.260,0.035
3274,-0.240,0.035
3275,-0.225,0.045
3276,-0.200,0.060
3277,-0.190,0.085
3278,-0.160,0.070
3279,-0.090,0.065
3280,-0.055,0.115
3281,-0.050,0.075
3282,-0.015,0.050
3283,-0.005,-0.010
3284,-0.045,-0.020
3285,-0.130,-0.020
3286,-0.170,-0.015
3287,-0.195,0.015
3288,-0.220,-0.015
3289,-0.250,-0.030
3290,-0.245,-0.020
3291,-0.255,-0.020
3292,-0.250,-0.035
3293,-0.240,-0.025
3294,-0.255,-0.035
3295,-0.265,-0.020
3296,-0.265,-0.040
3297,-0.270,-0.015
3298,-0.280,-0.030
3299,-0.285,-0.025
3300,-0.295,-0.015
3301,-0.295,-0.015
3302,-0.265,-0.015
3303,-0.275,-0.020
3304,-0.385,-0.025
3305,-0.470,-0.030
3306,-0.340,-0.120
3307,0.185,-0.340
3308,0.980,-0.485
3309,0.960,-0.055
3310,-0.140,0.485
3311,-0.990,0.635
3312,-0.850,0.030
3313,-0.520,-0.230
3314,-0.335,-0.190
3315,-0.305,-0.035
3316,-0.295,0.020
3317,-0.285,0.000
3318,-0.280,0.005
3319,-0.275,0.020
3320,-0.270,0.010
3321,-0.265,0.020
3322,-0.255,0.020
3323,-0.250,0.015
3324,-0.250,0.020
3325,-0.235,0.015
3326,-0.215,0.025
3327,-0.220,0.015
3328,-0.215,0.010
3329,-0.200,0.000
3330,-0.170,0.005
3331,-0.160,0.000
3332,-0.110,0.000
3333,-0.085,0.000
3334,-0.030,0.000
3335,0.020,-0.010
3336,0.080,-0.015
3337,0.160,-0.040
3338,0.185,-0.050
3339,0.210,-0.035
3340,0.205,-0.030
3341,0.175,-0.045
3342,0.140,-0.020
3343,0.100,-0.025
3344,0.045,-0.005
3345,-0.025,-0.010
3346,-0.060,0.000
3347,-0.125,0.000
3348,-0.155,-0.005
3349,-0.195,0.000
3350,-0.205,0.000
3351,-0.245,0.005
3352,-0.250,0.010
3353,-0.285,0.000
3354,-0.280,0.015
3355,-0.270,0.000
3356,-0.285,0.005
3357,-0.300,0.015
3358,-0.285,0.010
3359,-0.300,0.010
3360,-0.290,0.015
3361,-0.300,0.015
3362,-0.300,0.015
3363,-0.300,0.015
3364,-0.280,0.015
3365,-0.250,0.055
3366,-0.225,0.105
3367,-0.185,0.090
3368,-0.115,0.085
3369,-0.100,0.110
3370,-0.075,0.055
3371,-0.075,0.070
3372,-0.055,-0.010
3373,-0.110,-0.015
3374,-0.185,-0.010
3375,-0.220,0.015
3376,-0.230,0.005
3377,-0.265,-0.010
3378,-0.255,0.000
3379,-0.250,-0.005
3380,-0.270,-0.015
3381,-0.275,-0.015
3382,-0.280,-0.020
3383,-0.285,-0.015
3384,-0.280,0.000
3385,-0.290,0.000
3386,-0.290,0.000
3387,-0.305,0.000
3388,-0.295,-0.020
3389,-0.300,-0.015
3390,-0.310,-0.010
3391,-0.290,0.005
3392,-0.305,0.010
3393,-0.345,0.000
3394,-0.445,0.000
3395,-0.390,-0.065
3396,0.020,-0.265
3397,0.795,-0.455
3398,1.055,-0.155
3399,0.070,0.470
3400,-0.950,0.695
3401,-0.925,0.130
3402,-0.535,-0.185
3403,-0.340,-0.165
3404,-0.310,-0.015
3405,-0.300,0.015
3406,-0.300,0.025
3407,-0.275,0.030
3408,-0.265,0.005
3409,-0.270,0.055
3410,-0.250,0.040
3411,-0.235,0.030
3412,-0.240,0.025
3413,-0.250,0.045
3414,-0.235,0.040
3415,-0.220,0.020
3416,-0.215,0.025
3417,-0.200,0.020
3418,-0.185,0.030
3419,-0.150,0.055
3420,-0.125,0.055
3421,-0.090,0.050
3422,-0.035,0.040
3423,0.015,0.030
3424,0.090,0.040
3425,0.155,0.030
3426,0.200,0.015
3427,0.230,0.005
3428,0.240,-0.005
3429,0.230,0.000
3430,0.215,-0.005
3431,0.155,0.020
3432,0.105,0.000
3433,0.055,0.025
3434,0.000,0.035
3435,-0.060,0.025
3436,-0.095,0.010
3437,-0.150,0.020
3438,-0.175,0.035
3439,-0.195,0.020
3440,-0.210,0.040
3441,-0.220,0.015
3442,-0.225,0.030
3443,-0.245,0.030
3444,-0.215,0.015
3445,-0.215,0.020
3446,-0.235,0.030
3447,-0.250,0.040
3448,-0.250,0.015
3449,-0.245,0.035
3450,-0.250,0.020
3451,-0.245,0.025
3452,-0.235,0.025
3453,-0.210,0.050
3454,-0.185,0.075
3455,-0.175,0.090
3456,-0.115,0.075
3457,-0.045,0.115
3458,-0.060,0.110
3459,-0.035,0.055
3460,0.000,0.045
3461,-0.050,-0.025
3462,-0.125,-0.025
3463,-0.170,0.000
3464,-0.210,0.000
3465,-0.235,0.000
3466,-0.265,-0.025
3467,-0.250,-0.030
3468,-0.265,-0.025
3469,-0.260,-0.025
3470,-0.285,-0.020
3471,-0.275,-0.025
3472,-0.285,-0.010
3473,-0.280,-0.045
3474,-0.285,-0.010
3475,-0.295,0.000
3476,-0.310,-0.020
3477,-0.305,-0.025
3478,-0.305,-0.030
3479,-0.310,-0.040
3480,-0.310,-0.050
3481,-0.355,-0.035
3482,-0.450,-0.045
3483,-0.435,-0.095
3484,-0.070,-0.300
3485,0.690,-0.540
3486,0.950,-0.260
3487,0.000,0.400
3488,-0.975,0.645
3489,-0.975,0.075
3490,-0.590,-0.240
3491,-0.385,-0.220
3492,-0.355,-0.070
3493,-0.335,-0.015
3494,-0.315,-0.015
3495,-0.310,0.015
3496,-0.305,0.010
3497,-0.300,0.015
3498,-0.280,0.020
3499,-0.280,0.010
3500,-0.295,0.010
3501,-0.260,0.015
3502,-0.260,0.000
3503,-0.260,0.020
3504,-0.245,0.015
3505,-0.210,0.010
3506,-0.195,0.000
3507,-0.180,0.010
3508,-0.130,0.000
3509,-0.075,-0.005
3510,-0.040,-0.025
3511,0.015,-0.010
3512,0.100,-0.030
3513,0.150,-0.050
3514,0.190,-0.050
3515,0.200,-0.025
3516,0.180,-0.040
3517,0.150,-0.030
3518,0.130,-0.045
3519,0.075,-0.035
3520,0.015,-0.015
3521,-0.050,-0.025
3522,-0.080,0.000
3523,-0.130,0.020
3524,-0.160,0.010
3525,-0.160,0.010
3526,-0.210,0.020
3527,-0.205,0.010
3528,-0.225,0.020
3529,-0.245,0.035
3530,-0.260,0.030
3531,-0.245,0.010
3532,-0.230,0.015
3533,-0.245,0.010
3534,-0.260,0.015
3535,-0.265,0.025
3536,-0.275,0.010
3537,-0.245,0.025
3538,-0.240,0.010
3539,-0.240,0.020
3540,-0.245,0.010
3541,-0.225,0.035
3542,-0.210,0.040
3543,-0.185,0.075
3544,-0.160,0.060
3545,-0.065,0.075
3546,-0.050,0.090
3547,-0.055,0.055
3548,-0.035,0.020
3549,-0.030,0.000
3550,-0.110,-0.035
3551,-0.170,-0.015
3552,-0.180,0.000
3553,-0.205,-0.020
3554,-0.210,-0.030
3555,-0.250,-0.025
3556,-0.245,-0.040
3557,-0.255,-0.060
3558,-0.255,-0.025
3559,-0.255,-0.055
3560,-0.250,-0.060
3561,-0.250,-0.055
3562,-0.280,-0.070
3563,-0.265,-0.070
3564,-0.260,-0.065
3565,-0.275,-0.050
3566,-0.285,-0.035
3567,-0.270,-0.045
3568,-0.305,-0.065
3569,-0.395,-0.065
3570,-0.425,-0.100
3571,-0.225,-0.225
3572,0.425,-0.455
3573,1.065,-0.490
3574,0.625,0.040
3575,-0.515,0.485
3576,-1.020,0.405
3577,-0.765,-0.210
3578,-0.445,-0.330
3579,-0.335,-0.240
3580,-0.315,-0.085
3581,-0.305,-0.055
3582,-0.300,-0.070
3583,-0.275,-0.075
3584,-0.290,-0.075
3585,-0.275,-0.070
3586,-0.260,-0.070
3587,-0.245,-0.070
3588,-0.240,-0.065
3589,-0.240,-0.040
3590,-0.230,-0.065
3591,-0.220,-0.075
3592,-0.210,-0.070
3593,-0.210,-0.070
3594,-0.180,-0.080
3595,-0.150,-0.080
3596,-0.120,-0.085
3597,-0.080,-0.085
3598,-0.015,-0.090
3599,0.050,-0.105
3600,0.125,-0.140
3601,0.185,-0.125
3602,0.220,-0.135
3603,0.235,-0.160
3604,0.205,-0.120
3605,0.160,-0.135
3606,0.125,-0.150
3607,0.055,-0.095
3608,0.000,-0.095
3609,-0.055,-0.075
3610,-0.100,-0.050
3611,-0.120,-0.085
3612,-0.170,-0.065
3613,-0.210,-0.065
3614,-0.235,-0.050
3615,-0.250,-0.065
3616,-0.265,-0.055
3617,-0.275,-0.045
3618,-0.275,-0.055
3619,-0.260,-0.040
3620,-0.270,-0.035
3621,-0.270,-0.055
3622,-0.285,-0.015
3623,-0.275,-0.030
3624,-0.275,-0.040
3625,-0.235,-0.010
3626,-0.220,0.005
3627,-0.195,0.045
3628,-0.140,0.020
3629,-0.095,0.005
3630,-0.065,0.015
3631,-0.045,-0.015
3632,-0.045,-0.065
3633,-0.070,-0.085
3634,-0.105,-0.090
3635,-0.150,-0.055
3636,-0.175,-0.030
3637,-0.210,-0.065
3638,-0.210,-0.070
3639,-0.250,-0.060
3640,-0.240,-0.070
3641,-0.250,-0.065
3642,-0.240,-0.050
3643,-0.245,-0.060
3644,-0.245,-0.040
3645,-0.260,-0.050
3646,-0.275,-0.030
3647,-0.245,-0.035
3648,-0.265,-0.020
3649,-0.270,-0.025
3650,-0.265,-0.040
3651,-0.265,-0.015
3652,-0.275,-0.025
3653,-0.275,-0.030
3654,-0.330,-0.020
3655,-0.405,-0.030
3656,-0.350,-0.090
3657,0.120,-0.280
3658,0.820,-0.460
3659,1.035,-0.175
3660,0.130,0.450
3661,-0.860,0.665
3662,-0.875,0.135
3663,-0.530,-0.195
3664,-0.330,-0.180
3665,-0.280,-0.050
3666,-0.300,0.010
3667,-0.265,-0.005
3668,-0.260,0.000
3669,-0.245,0.010
3670,-0.250,-0.010
3671,-0.230,0.000
3672,-0.220,0.020
3673,-0.220,0.005
3674,-0.210,0.020
3675,-0.190,0.010
3676,-0.195,0.020
3677,-0.175,0.015
3678,-0.155,0.015
3679,-0.140,0.015
3680,-0.125,0.020
3681,-0.100,0.005
3682,-0.055,0.015
3683,-0.030,0.000
3684,0.025,-0.015
3685,0.090,0.000
3686,0.165,-0.020
3687,0.200,-0.015
3688,0.245,-0.045
3689,0.275,-0.025
3690,0.270,-0.035
3691,0.250,-0.025
3692,0.240,-0.030
3693,0.175,-0.030
3694,0.095,-0.005
3695,0.045,0.005
3696,-0.010,-0.005
3697,-0.050,0.000
3698,-0.080,-0.005
3699,-0.120,0.005
3700,-0.155,0.000
3701,-0.185,0.000
3702,-0.195,0.005
3703,-0.215,-0.010
3704,-0.195,0.000
3705,-0.200,0.000
3706,-0.205,0.005
3707,-0.215,0.000
3708,-0.225,0.005
3709,-0.220,0.000
3710,-0.235,0.000
3711,-0.230,0.015
3712,-0.245,0.020
3713,-0.225,0.025
3714,-0.230,0.020
3715,-0.240,0.000
3716,-0.220,0.000
3717,-0.210,0.000
3718,-0.180,0.000
3719,-0.155,0.040
3720,-0.115,0.110
3721,-0.085,0.070
3722,-0.060,0.045
3723,-0.040,0.040
3724,-0.020,-0.010
3725,-0.040,-0.030
3726,-0.065,-0.045
3727,-0.105,-0.070
3728,-0.150,-0.035
3729,-0.190,-0.020
3730,-0.205,-0.030
3731,-0.240,-0.040
3732,-0.235,-0.040
3733,-0.250,-0.040
3734,-0.255,-0.055
3735,-0.255,-0.040
3736,-0.270,-0.060
3737,-0.265,-0.045
3738,-0.260,-0.045
3739,-0.265,-0.035
3740,-0.265,-0.035
3741,-0.270,-0.030
3742,-0.275,-0.040
3743,-0.270,-0.045
3744,-0.260,-0.030
3745,-0.260,-0.035
3746,-0.290,-0.040
3747,-0.370,-0.040
3748,-0.425,-0.065
3749,-0.315,-0.145
3750,0.190,-0.345
3751,0.865,-0.515
3752,0.870,-0.075
3753,-0.160,0.520
3754,-1.000,0.595
3755,-0.840,-0.055
3756,-0.485,-0.240
3757,-0.315,-0.225
3758,-0.295,-0.060
3759,-0.265,-0.010
3760,-0.255,-0.010
3761,-0.245,-0.015
3762,-0.245,-0.005
3763,-0.235,-0.005
3764,-0.230,0.000
3765,-0.230,-0.005
3766,-0.205,-0.005
3767,-0.200,0.000
3768,-0.180,-0.010
3769,-0.175,-0.010
3770,-0.155,-0.005
3771,-0.160,-0.015
3772,-0.130,0.010
3773,-0.125,0.000
3774,-0.085,0.010
3775,-0.040,0.005
3776,-0.020,0.015
3777,0.030,0.015
3778,0.075,0.010
3779,0.145,-0.005
3780,0.210,-0.010
3781,0.240,-0.020
3782,0.265,-0.010
3783,0.280,-0.015
3784,0.290,-0.035
3785,0.255,-0.020
3786,0.210,-0.005
3787,0.155,0.000
3788,0.110,0.000
3789,0.050,0.015
3790,0.000,0.035
3791,-0.045,0.040
3792,-0.070,0.020
3793,-0.080,0.015
3794,-0.120,0.005
3795,-0.125,0.025
3796,-0.130,0.015
3797,-0.135,0.005
3798,-0.160,0.020
3799,-0.180,0.020
3800,-0.180,0.025
3801,-0.170,0.005
3802,-0.175,0.010
3803,-0.170,0.000
3804,-0.170,0.015
3805,-0.180,0.015
3806,-0.195,0.020
3807,-0.175,0.020
3808,-0.155,0.045
3809,-0.155,0.030
3810,-0.170,0.040
3811,-0.140,0.040
3812,-0.115,0.050
3813,-0.115,0.075
3814,-0.080,0.090
3815,-0.020,0.075
3816,0.015,0.095
3817,0.015,0.085
3818,0.060,0.030
3819,0.050,-0.005
3820,0.000,-0.015
3821,-0.055,-0.030
3822,-0.090,0.005
3823,-0.115,0.000
3824,-0.140,-0.015
3825,-0.155,-0.035
3826,-0.175,-0.040
3827,-0.185,-0.035
3828,-0.190,-0.050
3829,-0.205,-0.025
3830,-0.200,-0.035
3831,-0.195,-0.035
3832,-0.200,-0.040
3833,-0.195,-0.040
3834,-0.210,-0.040
3835,-0.210,-0.030
3836,-0.220,-0.035
3837,-0.205,-0.060
3838,-0.215,-0.040
3839,-0.220,-0.060
3840,-0.310,-0.085
3841,-0.380,-0.090
3842,-0.335,-0.150
3843,0.105,-0.350
3844,0.835,-0.575
3845,0.985,-0.260
3846,0.100,0.330
3847,-0.845,0.595
3848,-0.885,0.085
3849,-0.550,-0.295
3850,-0.295,-0.290
3851,-0.265,-0.150
3852,-0.250,-0.060
3853,-0.235,-0.055
3854,-0.230,-0.025
3855,-0.225,-0.025
3856,-0.225,-0.035
3857,-0.195,-0.025
3858,-0.200,-0.030
3859,-0.225,-0.035
3860,-0.220,-0.035
3861,-0.180,-0.040
3862,-0.180,-0.010
3863,-0.155,-0.040
3864,-0.165,-0.010
3865,-0.130,-0.035
3866,-0.120,-0.030
3867,-0.075,-0.060
3868,-0.050,-0.035
3869,0.000,-0.035
3870,0.025,-0.035
3871,0.120,-0.080
3872,0.190,-0.075
3873,0.225,-0.075
3874,0.245,-0.105
3875,0.260,-0.115
3876,0.260,-0.080
3877,0.235,-0.095
3878,0.200,-0.080
3879,0.135,-0.080
3880,0.060,-0.060
3881,0.025,-0.055
3882,-0.035,-0.035
3883,-0.070,-0.040
3884,-0.085,-0.030
3885,-0.135,-0.050
3886,-0.155,-0.040
3887,-0.190,-0.025
3888,-0.195,-0.040
3889,-0.175,-0.045
3890,-0.190,-0.035
3891,-0.210,-0.025
3892,-0.205,-0.025
3893,-0.220,-0.025
3894,-0.215,-0.015
3895,-0.215,-0.030
3896,-0.230,-0.020
3897,-0.215,-0.010
3898,-0.210,-0.015
3899,-0.235,-0.035
3900,-0.220,-0.015
3901,-0.180,0.000
3902,-0.170,-0.020
3903,-0.160,-0.020
3904,-0.155,-0.030
3905,-0.145,0.000
3906,-0.125,0.025
3907,-0.065,0.010
3908,0.000,0.045
3909,-0.005,0.055
3910,0.005,0.005
3911,0.030,0.000
3912,0.015,-0.045
3913,-0.055,-0.055
3914,-0.120,-0.030
3915,-0.145,-0.030
3916,-0.165,-0.035
3917,-0.185,-0.035
3918,-0.205,-0.040
3919,-0.210,-0.050
3920,-0.215,-0.060
3921,-0.215,-0.065
3922,-0.215,-0.050
3923,-0.220,-0.045
3924,-0.235,-0.050
3925,-0.225,-0.070
3926,-0.240,-0.050
3927,-0.225,-0.060
3928,-0.235,-0.065
3929,-0.225,-0.060
3930,-0.235,-0.060
3931,-0.245,-0.070
3932,-0.340,-0.070
3933,-0.405,-0.090
3934,-0.355,-0.160
3935,0.165,-0.355
3936,0.905,-0.515
3937,0.980,-0.155
3938,-0.045,0.425
3939,-0.910,0.600
3940,-0.855,0.005
3941,-0.485,-0.300
3942,-0.300,-0.235
3943,-0.260,-0.110
3944,-0.260,-0.040
3945,-0.240,-0.035
3946,-0.225,-0.040
3947,-0.230,-0.030
3948,-0.225,-0.030
3949,-0.225,-0.015
3950,-0.210,-0.010
3951,-0.210,-0.025
3952,-0.185,-0.010
3953,-0.195,-0.020
3954,-0.180,-0.025
3955,-0.150,-0.015
3956,-0.150,-0.020
3957,-0.130,-0.030
3958,-0.105,-0.030
3959,-0.075,-0.025
3960,-0.045,-0.030
3961,0.000,-0.025
3962,0.055,-0.045
3963,0.135,-0.060
3964,0.190,-0.055
3965,0.240,-0.090
3966,0.255,-0.095
3967,0.250,-0.095
3968,0.260,-0.080
3969,0.230,-0.080
3970,0.155,-0.075
3971,0.100,-0.080
3972,0.025,-0.055
3973,-0.020,-0.055
3974,-0.060,-0.060
3975,-0.105,-0.035
3976,-0.145,-0.030
3977,-0.165,-0.020
3978,-0.200,-0.015
3979,-0.215,-0.020
3980,-0.220,-0.035
3981,-0.225,-0.030
3982,-0.240,-0.020
3983,-0.240,-0.025
3984,-0.235,-0.020
3985,-0.255,-0.030
3986,-0.265,-0.030
3987,-0.260,-0.010
3988,-0.250,-0.015
3989,-0.265,-0.010
3990,-0.265,-0.005
3991,-0.235,-0.015
3992,-0.245,-0.010
3993,-0.235,0.000
3994,-0.195,0.010
3995,-0.185,0.045
3996,-0.170,0.070
3997,-0.095,0.045
3998,-0.050,0.065
3999,-0.065,0.055
4000,-0.015,0.020
4001,-0.015,-0.015
4002,-0.045,-0.035
4003,-0.120,-0.050
4004,-0.170,-0.035
4005,-0.195,-0.025
4006,-0.230,-0.055
4007,-0.235,-0.045
4008,-0.255,-0.040
4009,-0.245,-0.035
4010,-0.270,-0.035
4011,-0.275,-0.035
4012,-0.265,-0.055
4013,-0.285,-0.030
4014,-0.285,-0.040
4015,-0.285,-0.040
4016,-0.295,-0.030
4017,-0.310,-0.045
4018,-0.310,-0.030
4019,-0.300,-0.020
4020,-0.305,-0.040
4021,-0.305,-0.035
4022,-0.370,-0.040
4023,-0.455,-0.045
4024,-0.420,-0.095
4025,0.045,-0.275
4026,0.810,-0.475
4027,1.030,-0.195
4028,0.000,0.500
4029,-1.020,0.680
4030,-0.885,0.045
4031,-0.505,-0.185
4032,-0.340,-0.160
4033,-0.315,0.000
4034,-0.320,0.030
4035,-0.270,0.015
4036,-0.280,0.010
4037,-0.260,0.040
4038,-0.255,0.045
4039,-0.245,0.025
4040,-0.240,0.040
4041,-0.225,0.035
4042,-0.215,0.035
4043,-0.210,0.040
4044,-0.205,0.020
4045,-0.190,0.035
4046,-0.170,0.050
4047,-0.155,0.035
4048,-0.135,0.045
4049,-0.100,0.060
4050,-0.070,0.040
4051,-0.015,0.045
4052,0.045,0.045
4053,0.120,0.030
4054,0.175,0.015
4055,0.230,0.005
4056,0.255,-0.005
4057,0.270,0.000
4058,0.255,0.005
4059,0.190,-0.005
4060,0.145,-0.010
4061,0.085,0.000
4062,0.030,0.015
4063,-0.010,0.020
4064,-0.060,0.005
4065,-0.100,0.005
4066,-0.125,0.025
4067,-0.160,0.000
4068,-0.185,0.025
4069,-0.190,0.015
4070,-0.215,0.030
4071,-0.225,0.005
4072,-0.205,0.015
4073,-0.220,0.010
4074,-0.235,0.000
4075,-0.245,0.000
4076,-0.230,0.005
4077,-0.260,0.015
4078,-0.255,0.030
4079,-0.240,0.025
4080,-0.235,0.020
4081,-0.245,0.020
4082,-0.240,0.025
4083,-0.215,0.045
4084,-0.165,0.075
4085,-0.155,0.115
4086,-0.115,0.100
4087,-0.035,0.105
4088,-0.040,0.105
4089,-0.040,0.070
4090,-0.025,0.055
4091,-0.015,-0.005
4092,-0.090,0.000
4093,-0.150,0.000
4094,-0.190,-0.005
4095,-0.240,0.000
4096,-0.235,-0.025
4097,-0.265,-0.035
4098,-0.260,0.000
4099,-0.275,-0.035
4100,-0.285,-0.035
4101,-0.275,-0.045
4102,-0.280,-0.035
4103,-0.295,-0.050
4104,-0.290,-0.050
4105,-0.295,-0.035
4106,-0.295,-0.020
4107,-0.305,-0.040
4108,-0.300,-0.035
4109,-0.305,-0.045
4110,-0.310,-0.050
4111,-0.360,-0.045
4112,-0.440,-0.055
4113,-0.435,-0.090
4114,-0.105,-0.285
4115,0.615,-0.490
4116,1.025,-0.350
4117,0.185,0.355
4118,-0.935,0.710
4119,-0.985,0.150
4120,-0.570,-0.205
4121,-0.375,-0.225
4122,-0.320,-0.105
4123,-0.315,-0.010
4124,-0.305,0.000
4125,-0.280,-0.015
4126,-0.285,0.000
4127,-0.280,0.035
4128,-0.255,-0.005
4129,-0.245,0.000
4130,-0.250,0.000
4131,-0.225,0.005
4132,-0.220,0.000
4133,-0.215,0.015
4134,-0.200,0.000
4135,-0.185,0.000
4136,-0.185,0.005
4137,-0.155,0.005
4138,-0.120,-0.010
4139,-0.080,0.000
4140,-0.025,-0.010
4141,0.010,-0.005
4142,0.055,-0.005
4143,0.125,-0.035
4144,0.195,-0.035
4145,0.205,-0.045
4146,0.235,-0.060
4147,0.230,-0.065
4148,0.210,-0.030
4149,0.180,-0.060
4150,0.120,-0.030
4151,0.055,-0.040
4152,0.005,-0.025
4153,-0.040,-0.010
4154,-0.080,-0.020
4155,-0.120,-0.015
4156,-0.145,-0.010
4157,-0.175,-0.005
4158,-0.200,-0.010
4159,-0.210,-0.010
4160,-0.205,0.000
4161,-0.200,-0.010
4162,-0.220,-0.010
4163,-0.215,-0.015
4164,-0.225,-0.015
4165,-0.220,0.000
4166,-0.230,0.005
4167,-0.220,0.000
4168,-0.190,0.035
4169,-0.150,0.040
4170,-0.130,0.095
4171,-0.100,0.090
4172,-0.045,0.080
4173,-0.025,0.070
4174,-0.015,0.030
4175,-0.025,0.020
4176,-0.040,0.000
4177,-0.070,-0.015
4178,-0.120,0.000
4179,-0.150,0.030
4180,-0.175,0.000
4181,-0.225,-0.015
4182,-0.210,-0.005
4183,-0.205,-0.015
4184,-0.230,-0.020
4185,-0.235,-0.025
4186,-0.230,-0.010
4187,-0.235,-0.035
4188,-0.230,-0.020
4189,-0.245,-0.040
4190,-0.230,-0.065
4191,-0.245,-0.015
4192,-0.240,-0.025
4193,-0.240,-0.020
4194,-0.225,-0.020
4195,-0.250,-0.005
4196,-0.255,-0.035
4197,-0.265,-0.035
4198,-0.285,-0.015
4199,-0.365,-0.050
4200,-0.285,-0.110
4201,0.125,-0.325
4202,0.850,-0.505
4203,0.950,-0.250
4204,0.030,0.390
4205,-0.885,0.660
4206,-0.940,0.150
4207,-0.600,-0.230
4208,-0.345,-0.250
4209,-0.280,-0.155
4210,-0.265,-0.035
4211,-0.255,0.000
4212,-0.250,-0.015
4213,-0.230,0.000
4214,-0.225,0.000
4215,-0.200,0.005
4216,-0.205,0.015
4217,-0.225,0.000
4218,-0.210,-0.005
4219,-0.190,0.000
4220,-0.165,-0.010
4221,-0.185,0.005
4222,-0.155,0.030
4223,-0.160,-0.005
4224,-0.130,-0.010
4225,-0.100,-0.025
4226,-0.080,-0.050
4227,-0.030,-0.030
4228,0.020,-0.020
4229,0.090,-0.030
4230,0.155,-0.050
4231,0.190,-0.080
4232,0.200,-0.095
4233,0.230,-0.085
4234,0.250,-0.100
4235,0.240,-0.095
4236,0.185,-0.095
4237,0.125,-0.080
4238,0.075,-0.055
4239,0.020,-0.080
4240,-0.020,-0.050
4241,-0.075,-0.040
4242,-0.125,-0.035
4243,-0.130,-0.025
4244,-0.150,-0.020
4245,-0.185,-0.035
4246,-0.185,-0.015
4247,-0.225,-0.025
4248,-0.235,-0.025
4249,-0.240,-0.025
4250,-0.245,-0.030
4251,-0.235,-0.015
4252,-0.255,-0.010
4253,-0.255,-0.025
4254,-0.235,-0.025
4255,-0.245,-0.015
4256,-0.225,-0.005
4257,-0.225,-0.020
4258,-0.235,-0.035
4259,-0.210,-0.045
4260,-0.210,-0.025
4261,-0.210,-0.040
4262,-0.210,-0.035
4263,-0.200,-0.040
4264,-0.200,-0.045
4265,-0.200,-0.030
4266,-0.235,-0.035
4267,-0.195,-0.040
4268,-0.180,-0.035
4269,-0.175,0.000
4270,-0.175,0.020
4271,-0.115,0.020
4272,-0.055,0.030
4273,-0.060,0.030
4274,-0.055,0.015
4275,-0.030,-0.035
4276,-0.050,-0.045
4277,-0.120,-0.070
4278,-0.165,-0.065
4279,-0.205,-0.035
4280,-0.230,-0.045
4281,-0.250,-0.070
4282,-0.275,-0.070
4283,-0.275,-0.070
4284,-0.275,-0.085
4285,-0.275,-0.090
4286,-0.280,-0.055
4287,-0.275,-0.070
4288,-0.285,-0.085
4289,-0.290,-0.040
4290,-0.285,-0.060
4291,-0.285,-0.050
4292,-0.295,-0.050
4293,-0.300,-0.060
4294,-0.285,-0.050
4295,-0.285,-0.040
4296,-0.305,-0.060
4297,-0.420,-0.050
4298,-0.480,-0.060
4299,-0.360,-0.160
4300,0.185,-0.370
4301,0.885,-0.475
4302,0.950,-0.105
4303,-0.085,0.470
4304,-0.980,0.615
4305,-0.910,-0.005
4306,-0.555,-0.295
4307,-0.365,-0.255
4308,-0.320,-0.115
4309,-0.295,-0.005
4310,-0.290,-0.015
4311,-0.285,0.000
4312,-0.285,0.000
4313,-0.280,0.005
4314,-0.245,0.000
4315,-0.230,-0.010
4316,-0.250,0.000
4317,-0.235,0.000
4318,-0.225,-0.005
4319,-0.220,0.000
4320,-0.210,-0.015
4321,-0.200,-0.020
4322,-0.180,0.000
4323,-0.180,-0.010
4324,-0.145,-0.010
4325,-0.110,-0.005
4326,-0.065,0.000
4327,-0.020,0.000
4328,0.025,-0.015
4329,0.100,-0.030
4330,0.155,-0.040
4331,0.195,-0.050
4332,0.225,-0.060
4333,0.245,-0.060
4334,0.245,-0.040
4335,0.225,-0.045
4336,0.170,-0.060
4337,0.120,-0.030
4338,0.055,-0.015
4339,0.015,-0.030
4340,-0.025,-0.010
4341,-0.075,0.000
4342,-0.115,-0.005
4343,-0.150,0.000
4344,-0.180,0.000
4345,-0.185,-0.005
4346,-0.225,-0.005
4347,-0.225,0.000
4348,-0.240,0.005
4349,-0.265,-0.005
4350,-0.260,-0.010
4351,-0.275,0.000
4352,-0.275,-0.010
4353,-0.280,0.005
4354,-0.270,0.015
4355,-0.285,0.000
4356,-0.285,0.000
4357,-0.300,0.000
4358,-0.285,0.005
4359,-0.280,0.010
4360,-0.265,0.005
4361,-0.260,0.010
4362,-0.235,0.030
4363,-0.200,0.060
4364,-0.170,0.090
4365,-0.095,0.075
4366,-0.070,0.085
4367,-0.080,0.055
4368,-0.055,0.030
4369,-0.030,-0.020
4370,-0.070,-0.040
4371,-0.150,-0.050
4372,-0.215,-0.030
4373,-0.230,-0.040
4374,-0.260,-0.040
4375,-0.280,-0.040
4376,-0.295,-0.050
4377,-0.295,-0.060
4378,-0.300,-0.060
4379,-0.295,-0.050
4380,-0.305,-0.045
4381,-0.300,-0.055
4382,-0.310,-0.050
4383,-0.310,-0.035
4384,-0.330,-0.045
4385,-0.320,-0.075
4386,-0.310,-0.045
4387,-0.320,-0.045
4388,-0.335,-0.050
4389,-0.330,-0.035
4390,-0.330,-0.060
4391,-0.445,-0.050
4392,-0.480,-0.055
4393,-0.325,-0.170
4394,0.315,-0.420
4395,1.025,-0.490
4396,0.795,0.015
4397,-0.470,0.575
4398,-1.115,0.485
4399,-0.810,-0.125
4400,-0.460,-0.230
4401,-0.360,-0.165
4402,-0.345,-0.045
4403,-0.325,-0.010
4404,-0.325,-0.005
4405,-0.315,0.000
4406,-0.300,0.000
4407,-0.295,-0.010
4408,-0.285,0.000
4409,-0.260,0.005
4410,-0.275,0.000
4411,-0.265,0.000
4412,-0.235,-0.010
4413,-0.235,0.000
4414,-0.230,0.000
4415,-0.215,-0.005
4416,-0.190,0.000
4417,-0.160,0.005
4418,-0.110,0.000
4419,-0.080,0.000
4420,-0.030,0.000
4421,0.025,0.000
4422,0.120,-0.005
4423,0.165,-0.005
4424,0.220,-0.035
4425,0.255,-0.025
4426,0.260,-0.035
4427,0.240,-0.015
4428,0.190,-0.020
4429,0.145,-0.025
4430,0.075,-0.005
4431,0.020,0.000
4432,-0.030,-0.005
4433,-0.100,0.005
4434,-0.125,0.000
4435,-0.160,0.005
4436,-0.200,0.000
4437,-0.240,0.005
4438,-0.240,0.000
4439,-0.235,0.000
4440,-0.250,0.000
4441,-0.255,-0.005
4442,-0.260,0.005
4443,-0.270,0.000
4444,-0.260,0.005
4445,-0.265,0.000
4446,-0.260,0.000
4447,-0.280,0.010
4448,-0.260,0.005
4449,-0.265,0.010
4450,-0.255,0.010
4451,-0.255,0.015
4452,-0.220,0.005
4453,-0.215,0.020
4454,-0.180,0.020
4455,-0.180,0.060
4456,-0.150,0.090
4457,-0.075,0.075
4458,-0.030,0.095
4459,-0.040,0.075
4460,-0.010,0.050
4461,-0.015,0.000
4462,-0.050,-0.030
4463,-0.130,-0.050
4464,-0.185,0.000
4465,-0.180,0.000
4466,-0.225,-0.030
4467,-0.250,-0.040
4468,-0.255,-0.025
4469,-0.250,-0.035
4470,-0.245,-0.025
4471,-0.255,-0.025
4472,-0.260,-0.040
4473,-0.265,-0.030
4474,-0.280,-0.040
4475,-0.270,-0.035
4476,-0.290,-0.040
4477,-0.280,-0.040
4478,-0.290,-0.030
4479,-0.285,-0.040
4480,-0.295,-0.025
4481,-0.290,-0.035
4482,-0.365,-0.050
4483,-0.450,-0.060
4484,-0.425,-0.120
4485,0.045,-0.350
4486,0.795,-0.570
4487,0.945,-0.220
4488,-0.080,0.420
4489,-1.005,0.595
4490,-0.915,-0.025
4491,-0.550,-0.275
4492,-0.365,-0.245
4493,-0.330,-0.080
4494,-0.320,-0.035
4495,-0.310,-0.035
4496,-0.305,-0.015
4497,-0.295,0.000
4498,-0.290,-0.025
4499,-0.270,-0.010
4500,-0.280,-0.015
4501,-0.280,-0.020
4502,-0.260,-0.015
4503,-0.240,0.000
4504,-0.260,-0.025
4505,-0.235,-0.015
4506,-0.205,-0.005
4507,-0.180,-0.005
4508,-0.180,0.000
4509,-0.150,-0.025
4510,-0.080,-0.020
4511,-0.050,-0.010
4512,0.010,-0.030
4513,0.095,-0.055
4514,0.150,-0.055
4515,0.185,-0.065
4516,0.200,-0.070
4517,0.190,-0.085
4518,0.155,-0.095
4519,0.135,-0.070
4520,0.085,-0.035
4521,0.000,-0.040
4522,-0.045,-0.035
4523,-0.105,-0.005
4524,-0.125,-0.015
4525,-0.180,-0.035
4526,-0.205,-0.040
4527,-0.205,-0.010
4528,-0.220,-0.015
4529,-0.250,-0.030
4530,-0.265,-0.020
4531,-0.270,-0.005
4532,-0.270,-0.035
4533,-0.275,-0.005
4534,-0.275,-0.005
4535,-0.275,0.000
4536,-0.310,-0.010
4537,-0.290,0.005
4538,-0.290,0.000
4539,-0.280,-0.010
4540,-0.300,0.000
4541,-0.270,0.000
4542,-0.260,0.000
4543,-0.255,0.020
4544,-0.235,0.020
4545,-0.230,0.000
4546,-0.215,0.005
4547,-0.220,0.035
4548,-0.200,0.060
4549,-0.180,0.070
4550,-0.100,0.065
4551,-0.075,0.105
4552,-0.065,0.040
4553,-0.045,0.020
4554,-0.040,0.000
4555,-0.090,-0.020
4556,-0.180,-0.025
4557,-0.185,-0.005
4558,-0.220,0.000
4559,-0.265,-0.020
4560,-0.265,-0.045
4561,-0.280,-0.030
4562,-0.270,-0.025
4563,-0.270,-0.050
4564,-0.280,-0.030
4565,-0.280,-0.035
4566,-0.290,-0.010
4567,-0.305,-0.045
4568,-0.290,-0.030
4569,-0.285,-0.035
4570,-0.285,-0.050
4571,-0.305,-0.040
4572,-0.290,-0.025
4573,-0.300,-0.030
4574,-0.345,-0.045
4575,-0.440,-0.060
4576,-0.480,-0.100
4577,-0.215,-0.250
4578,0.485,-0.490
4579,1.065,-0.460
4580,0.515,0.145
4581,-0.630,0.560
4582,-1.075,0.410
4583,-0.805,-0.230
4584,-0.455,-0.315
4585,-0.345,-0.215
4586,-0.340,-0.065
4587,-0.310,-0.035
4588,-0.280,-0.030
4589,-0.290,-0.025
4590,-0.295,-0.030
4591,-0.290,-0.015
4592,-0.270,-0.015
4593,-0.275,-0.020
4594,-0.260,-0.025
4595,-0.250,-0.020
4596,-0.250,-0.030
4597,-0.245,-0.020
4598,-0.225,-0.040
4599,-0.215,-0.020
4600,-0.190,-0.025
4601,-0.165,-0.020
4602,-0.120,-0.020
4603,-0.085,-0.050
4604,-0.040,-0.045
4605,0.015,-0.060
4606,0.080,-0.080
4607,0.160,-0.075
4608,0.205,-0.105
4609,0.210,-0.120
4610,0.215,-0.110
4611,0.175,-0.110
4612,0.135,-0.110
4613,0.075,-0.090
4614,0.015,-0.085
4615,-0.025,-0.070
4616,-0.100,-0.040
4617,-0.150,-0.045
4618,-0.195,-0.045
4619,-0.205,-0.025
4620,-0.245,-0.035
4621,-0.270,-0.030
4622,-0.275,-0.020
4623,-0.300,-0.030
4624,-0.310,-0.025
4625,-0.315,-0.015
4626,-0.325,-0.040
4627,-0.315,-0.025
4628,-0.325,-0.030
4629,-0.325,-0.030
4630,-0.335,-0.010
4631,-0.330,-0.015
4632,-0.335,0.000
4633,-0.325,-0.015
4634,-0.310,-0.015
4635,-0.320,-0.015
4636,-0.305,-0.005
4637,-0.295,0.000
4638,-0.290,-0.010
4639,-0.285,-0.015
4640,-0.255,0.010
4641,-0.255,0.025
4642,-0.240,0.040
4643,-0.195,0.045
4644,-0.145,0.050
4645,-0.115,0.080
4646,-0.125,0.035
4647,-0.110,0.000
4648,-0.105,-0.020
4649,-0.135,-0.030
4650,-0.225,-0.040
4651,-0.270,-0.030
4652,-0.295,-0.020
4653,-0.305,-0.030
4654,-0.355,-0.035
4655,-0.355,-0.030
4656,-0.340,-0.035
4657,-0.350,-0.025
4658,-0.355,-0.040
4659,-0.350,-0.030
4660,-0.360,-0.025
4661,-0.360,-0.020
4662,-0.360,-0.015
4663,-0.370,-0.030
4664,-0.365,-0.015
4665,-0.365,-0.010
4666,-0.390,-0.015
4667,-0.365,-0.010
4668,-0.380,-0.005
4669,-0.425,-0.025
4670,-0.535,-0.025
4671,-0.525,-0.035
4672,-0.235,-0.190
4673,0.530,-0.430
4674,1.085,-0.360
4675,0.445,0.305
4676,-0.765,0.695
4677,-1.115,0.350
4678,-0.780,-0.150
4679,-0.480,-0.210
4680,-0.390,-0.085
4681,-0.370,0.015
4682,-0.360,0.030
4683,-0.345,0.045
4684,-0.340,0.040
4685,-0.335,0.035
4686,-0.325,0.040
4687,-0.295,0.045
4688,-0.305,0.040
4689,-0.300,0.050
4690,-0.285,0.040
4691,-0.290,0.025
4692,-0.265,0.060
4693,-0.250,0.070
4694,-0.230,0.075
4695,-0.225,0.060
4696,-0.195,0.080
4697,-0.145,0.065
4698,-0.130,0.060
4699,-0.055,0.050
4700,-0.005,0.050
4701,0.070,0.045
4702,0.140,0.045
4703,0.170,0.010
4704,0.210,0.020
4705,0.210,0.015
4706,0.175,0.030
4707,0.160,0.020
4708,0.100,0.035
4709,0.040,0.030
4710,-0.005,0.045
4711,-0.065,0.070
4712,-0.120,0.060
4713,-0.160,0.065
4714,-0.200,0.075
4715,-0.225,0.055
4716,-0.260,0.055
4717,-0.250,0.060
4718,-0.270,0.055
4719,-0.290,0.065
4720,-0.280,0.055
4721,-0.295,0.065
4722,-0.310,0.060
4723,-0.305,0.055
4724,-0.300,0.070
4725,-0.305,0.055
4726,-0.285,0.065
4727,-0.295,0.070
4728,-0.310,0.075
4729,-0.305,0.070
4730,-0.310,0.080
4731,-0.310,0.090
4732,-0.305,0.095
4733,-0.295,0.080
4734,-0.280,0.080
4735,-0.245,0.105
4736,-0.215,0.185
4737,-0.185,0.155
4738,-0.110,0.160
4739,-0.105,0.155
4740,-0.090,0.120
4741,-0.105,0.090
4742,-0.065,0.055
4743,-0.115,0.015
4744,-0.215,0.040
4745,-0.245,0.040
4746,-0.280,0.040
4747,-0.300,0.020
4748,-0.325,0.015
4749,-0.325,0.005
4750,-0.330,0.015
4751,-0.335,0.000
4752,-0.345,0.010
4753,-0.365,0.025
4754,-0.345,0.005
4755,-0.365,0.005
4756,-0.360,0.020
4757,-0.360,0.000
4758,-0.355,0.005
4759,-0.345,0.035
4760,-0.375,0.015
4761,-0.360,0.005
4762,-0.365,0.000
4763,-0.400,0.010
4764,-0.480,0.010
4765,-0.505,0.000
4766,-0.360,-0.100
4767,0.230,-0.340
4768,0.875,-0.435
4769,0.720,0.040
4770,-0.385,0.605
4771,-1.110,0.575
4772,-0.920,-0.020
4773,-0.565,-0.170
4774,-0.410,-0.130
4775,-0.390,0.015
4776,-0.375,0.040
4777,-0.360,0.065
4778,-0.345,0.060
4779,-0.315,0.075
4780,-0.320,0.065
4781,-0.330,0.055
4782,-0.310,0.080
4783,-0.300,0.055
4784,-0.295,0.055
4785,-0.290,0.065
4786,-0.290,0.060
4787,-0.270,0.075
4788,-0.260,0.055
4789,-0.250,0.070
4790,-0.220,0.050
4791,-0.185,0.060
4792,-0.170,0.060
4793,-0.115,0.065
4794,-0.060,0.055
4795,-0.010,0.055
4796,0.050,0.040
4797,0.110,0.000
4798,0.130,0.015
4799,0.175,0.000
4800,0.170,0.015
4801,0.150,0.010
4802,0.110,0.000
4803,0.075,0.010
4804,0.015,0.040
4805,-0.030,0.050
4806,-0.105,0.055
4807,-0.140,0.075
4808,-0.175,0.060
4809,-0.220,0.070
4810,-0.235,0.070
4811,-0.225,0.075
4812,-0.235,0.080
4813,-0.250,0.065
4814,-0.250,0.075
4815,-0.240,0.105
4816,-0.215,0.115
4817,-0.230,0.100
4818,-0.220,0.085
4819,-0.280,0.105
4820,-0.315,0.145
4821,-0.300,0.160
4822,-0.290,0.150
4823,-0.270,0.190
4824,-0.255,0.235
4825,-0.255,0.200
4826,-0.290,0.100
4827,-0.280,0.090
4828,-0.270,0.095
4829,-0.280,0.065
4830,-0.280,0.065
4831,-0.250,0.065
4832,-0.260,0.040
4833,-0.265,0.035
4834,-0.270,0.045
4835,-0.280,0.025
4836,-0.280,0.030
4837,-0.270,0.045
4838,-0.255,0.010
4839,-0.265,0.025
4840,-0.275,0.030
4841,-0.255,0.040
4842,-0.260,0.025
4843,-0.265,0.030
4844,-0.260,0.030
4845,-0.315,0.020
4846,-0.315,0.000
4847,-0.155,-0.105
4848,0.345,-0.320
4849,0.930,-0.500
4850,0.795,-0.180
4851,-0.140,0.420
4852,-0.950,0.660
4853,-0.940,0.100
4854,-0.570,-0.205
4855,-0.350,-0.200
4856,-0.290,-0.050
4857,-0.280,0.040
4858,-0.275,0.070
4859,-0.280,0.065
4860,-0.270,0.075
4861,-0.255,0.085
4862,-0.250,0.055
4863,-0.255,0.075
4864,-0.235,0.110
4865,-0.230,0.075
4866,-0.225,0.070
4867,-0.225,0.070
4868,-0.190,0.095
4869,-0.200,0.075
4870,-0.165,0.075
4871,-0.135,0.055
4872,-0.105,0.065
4873,-0.055,0.050
4874,0.000,0.045
4875,0.050,0.015
4876,0.115,0.005
4877,0.190,0.000
4878,0.220,-0.030
4879,0.240,-0.010
4880,0.240,-0.030
4881,0.230,-0.025
4882,0.195,-0.015
4883,0.145,-0.025
4884,0.075,-0.010
4885,0.000,0.000
4886,-0.070,0.000
4887,-0.115,0.010
4888,-0.175,0.045
4889,-0.220,0.015
4890,-0.255,0.030
4891,-0.265,0.040
4892,-0.290,0.025
4893,-0.300,0.035
4894,-0.295,0.020
4895,-0.270,0.035
4896,-0.270,0.025
4897,-0.270,0.040
4898,-0.245,0.030
4899,-0.230,0.020
4900,-0.220,0.015
4901,-0.215,0.020
4902,-0.185,0.000
4903,-0.195,0.010
4904,-0.190,0.005
4905,-0.190,0.000
4906,-0.210,0.010
4907,-0.210,0.000
4908,-0.210,0.000
4909,-0.225,0.020
4910,-0.220,0.005
4911,-0.245,0.000
4912,-0.255,0.025
4913,-0.250,0.000
4914,-0.250,0.000
4915,-0.265,0.025
4916,-0.265,0.025
4917,-0.255,0.020
4918,-0.280,0.010
4919,-0.270,0.005
4920,-0.260,0.020
4921,-0.250,0.040
4922,-0.230,0.085
4923,-0.220,0.115
4924,-0.165,0.090
4925,-0.130,0.055
4926,-0.110,0.030
4927,-0.110,0.010
4928,-0.130,-0.005
4929,-0.145,-0.040
4930,-0.220,-0.015
4931,-0.240,0.000
4932,-0.270,0.000
4933,-0.290,-0.005
4934,-0.295,-0.030
4935,-0.305,-0.015
4936,-0.310,-0.020
4937,-0.305,-0.005
4938,-0.320,-0.010
4939,-0.320,0.005
4940,-0.320,0.000
4941,-0.310,-0.005
4942,-0.315,0.010
4943,-0.315,0.010
4944,-0.320,0.005
4945,-0.315,0.030
4946,-0.310,0.020
4947,-0.315,0.000
4948,-0.445,0.010
4949,-0.495,0.000
4950,-0.395,-0.095
4951,0.200,-0.355
4952,1.015,-0.460
4953,0.970,0.070
4954,-0.260,0.600
4955,-1.045,0.575
4956,-0.835,-0.080
4957,-0.480,-0.220
4958,-0.370,-0.130
4959,-0.340,0.015
4960,-0.320,0.045
4961,-0.320,0.060
4962,-0.290,0.055
4963,-0.290,0.040
4964,-0.285,0.035
4965,-0.295,0.050
4966,-0.280,0.070
4967,-0.280,0.050
4968,-0.265,0.080
4969,-0.240,0.055
4970,-0.240,0.040
4971,-0.235,0.050
4972,-0.210,0.050
4973,-0.195,0.055
4974,-0.155,0.060
4975,-0.125,0.045
4976,-0.095,0.045
4977,-0.055,0.040
4978,0.015,0.040
4979,0.065,0.040
4980,0.140,0.035
4981,0.175,0.010
4982,0.200,0.020
4983,0.215,0.000
4984,0.200,0.000
4985,0.170,0.010
4986,0.140,0.015
4987,0.080,0.045
4988,0.015,0.045
4989,-0.030,0.030
4990,-0.075,0.040
4991,-0.135,0.060
4992,-0.165,0.045
4993,-0.185,0.060
4994,-0.225,0.065
4995,-0.220,0.055
4996,-0.255,0.045
4997,-0.255,0.055
4998,-0.280,0.050
4999,-0.270,0.050
5000,-0.270,0.060
5001,-0.285,0.040
5002,-0.280,0.040
5003,-0.265,0.050
5004,-0.295,0.055
5005,-0.305,0.035
5006,-0.325,0.060
5007,-0.315,0.055
5008,-0.320,0.045
5009,-0.310,0.050
5010,-0.315,0.070
5011,-0.290,0.050
5012,-0.260,0.055
5013,-0.245,0.085
5014,-0.210,0.125
5015,-0.195,0.125
5016,-0.090,0.120
5017,-0.085,0.140
5018,-0.090,0.100
5019,-0.050,0.055
5020,-0.055,0.030
5021,-0.115,-0.015
5022,-0.200,0.000
5023,-0.235,0.010
5024,-0.270,0.000
5025,-0.300,-0.010
5026,-0.305,0.000
5027,-0.325,-0.010
5028,-0.325,-0.005
5029,-0.320,-0.005
5030,-0.345,0.005
5031,-0.340,-0.005
5032,-0.335,0.005
5033,-0.350,0.000
5034,-0.355,0.000
5035,-0.355,0.000
5036,-0.355,0.000
5037,-0.375,0.000
5038,-0.365,0.000
5039,-0.365,0.000
5040,-0.430,0.015
5041,-0.530,-0.015
5042,-0.475,-0.060
5043,-0.050,-0.240
5044,0.695,-0.475
5045,1.050,-0.195
5046,0.100,0.475
5047,-1.005,0.700
5048,-1.020,0.115
5049,-0.630,-0.185
5050,-0.425,-0.155
5051,-0.385,0.015
5052,-0.390,0.035
5053,-0.365,0.025
5054,-0.350,0.050
5055,-0.340,0.040
5056,-0.345,0.055
5057,-0.340,0.050
5058,-0.310,0.045
5059,-0.315,0.040
5060,-0.315,0.040
5061,-0.280,0.040
5062,-0.255,0.035
5063,-0.260,0.060
5064,-0.230,0.055
5065,-0.220,0.060
5066,-0.175,0.065
5067,-0.135,0.060
5068,-0.085,0.055
5069,-0.030,0.060
5070,0.030,0.035
5071,0.115,0.040
5072,0.170,0.030
5073,0.210,0.030
5074,0.235,0.005
5075,0.240,0.020
5076,0.235,0.025
5077,0.165,0.035
5078,0.115,0.045
5079,0.035,0.050
5080,0.000,0.065
5081,-0.065,0.060
5082,-0.120,0.065
5083,-0.145,0.090
5084,-0.185,0.085
5085,-0.215,0.085
5086,-0.205,0.075
5087,-0.235,0.065
5088,-0.255,0.070
5089,-0.260,0.085
5090,-0.255,0.075
5091,-0.255,0.095
5092,-0.265,0.055
5093,-0.260,0.080
5094,-0.250,0.075
5095,-0.255,0.070
5096,-0.240,0.090
5097,-0.195,0.115
5098,-0.150,0.135
5099,-0.135,0.160
5100,-0.080,0.110
5101,-0.100,0.140
5102,-0.080,0.065
5103,-0.120,0.035
5104,-0.145,0.000
5105,-0.165,0.010
5106,-0.225,0.035
5107,-0.250,0.050
5108,-0.260,0.030
5109,-0.260,0.050
5110,-0.245,0.050
5111,-0.260,0.045
5112,-0.270,0.040
5113,-0.245,0.050
5114,-0.280,0.035
5115,-0.280,0.005
5116,-0.280,0.055
5117,-0.280,0.035
5118,-0.280,0.020
5119,-0.280,0.035
5120,-0.275,0.055
5121,-0.280,0.030
5122,-0.295,0.025
5123,-0.275,0.025
5124,-0.250,0.035
5125,-0.285,0.045
5126,-0.355,0.035
5127,-0.420,0.010
5128,-0.345,-0.070
5129,0.115,-0.300
5130,0.840,-0.495
5131,0.920,-0.145
5132,-0.075,0.495
5133,-0.980,0.645
5134,-0.920,0.055
5135,-0.555,-0.200
5136,-0.350,-0.195
5137,-0.320,-0.025
5138,-0.310,0.015
5139,-0.295,0.040
5140,-0.285,0.020
5141,-0.290,0.025
5142,-0.280,0.035
5143,-0.290,0.030
5144,-0.270,0.010
5145,-0.255,0.020
5146,-0.240,0.035
5147,-0.265,0.030
5148,-0.235,0.020
5149,-0.225,0.020
5150,-0.215,0.025
5151,-0.175,0.020
5152,-0.150,0.030
5153,-0.130,0.015
5154,-0.080,0.010
5155,-0.020,0.000
5156,0.025,0.000
5157,0.095,-0.015
5158,0.155,-0.010
5159,0.200,-0.040
5160,0.230,-0.060
5161,0.225,-0.010
5162,0.200,-0.025
5163,0.160,-0.025
5164,0.090,-0.030
5165,0.055,-0.010
5166,-0.030,0.000
5167,-0.070,0.010
5168,-0.110,0.020
5169,-0.150,0.010
5170,-0.185,0.020
5171,-0.210,0.015
5172,-0.225,0.005
5173,-0.255,0.030
5174,-0.260,0.020
5175,-0.275,0.030
5176,-0.265,0.045
5177,-0.280,0.040
5178,-0.275,0.030
5179,-0.270,0.060
5180,-0.290,0.030
5181,-0.280,0.040
5182,-0.255,0.050
5183,-0.260,0.030
5184,-0.245,0.025
5185,-0.240,0.015
5186,-0.240,0.035
5187,-0.230,0.030
5188,-0.215,0.040
5189,-0.190,0.030
5190,-0.220,0.035
5191,-0.215,0.035
5192,-0.215,0.010
5193,-0.215,0.010
5194,-0.200,0.020
5195,-0.215,0.030
5196,-0.195,0.055
5197,-0.200,0.110
5198,-0.170,0.090
5199,-0.115,0.055
5200,-0.095,0.085
5201,-0.105,0.055
5202,-0.100,0.030
5203,-0.115,-0.010
5204,-0.150,-0.015
5205,-0.220,-0.040
5206,-0.245,0.010
5207,-0.245,0.010
5208,-0.230,-0.005
5209,-0.245,0.000
5210,-0.245,0.000
5211,-0.255,-0.015
5212,-0.260,0.000
5213,-0.245,-0.010
5214,-0.260,-0.025
5215,-0.270,-0.015
5216,-0.270,-0.020
5217,-0.275,-0.005
5218,-0.280,0.005
5219,-0.275,-0.005
5220,-0.275,-0.010
5221,-0.275,-0.025
5222,-0.265,-0.005
5223,-0.280,-0.005
5224,-0.375,-0.025
5225,-0.455,-0.045
5226,-0.365,-0.130
5227,0.145,-0.395
5228,0.865,-0.525
5229,0.940,-0.070
5230,-0.030,0.465
5231,-0.910,0.635
5232,-0.920,0.040
5233,-0.605,-0.260
5234,-0.375,-0.240
5235,-0.310,-0.090
5236,-0.305,-0.005
5237,-0.300,-0.005
5238,-0.275,0.015
5239,-0.265,0.015
5240,-0.265,0.010
5241,-0.260,0.010
5242,-0.245,0.035
5243,-0.240,0.010
5244,-0.230,0.020
5245,-0.220,0.015
5246,-0.235,0.000
5247,-0.205,0.010
5248,-0.205,0.010
5249,-0.185,0.000
5250,-0.155,-0.010
5251,-0.140,-0.010
5252,-0.100,-0.010
5253,-0.070,-0.010
5254,-0.025,-0.005
5255,0.045,-0.015
5256,0.105,-0.030
5257,0.150,-0.045
5258,0.200,-0.065
5259,0.230,-0.070
5260,0.240,-0.075
5261,0.225,-0.085
5262,0.185,-0.065
5263,0.135,-0.050
5264,0.075,-0.045
5265,0.005,-0.050
5266,-0.035,-0.030
5267,-0.085,-0.025
5268,-0.115,0.000
5269,-0.165,0.000
5270,-0.190,-0.010
5271,-0.210,-0.005
5272,-0.235,0.000
5273,-0.255,-0.010
5274,-0.250,-0.015
5275,-0.260,0.000
5276,-0.260,-0.005
5277,-0.285,-0.010
5278,-0.285,0.000
5279,-0.295,0.000
5280,-0.285,0.000
5281,-0.310,0.000
5282,-0.300,0.010
5283,-0.280,0.000
5284,-0.300,0.000
5285,-0.295,0.000
5286,-0.280,0.005
5287,-0.285,0.025
5288,-0.270,0.015
5289,-0.275,0.005
5290,-0.265,0.015
5291,-0.250,0.015
5292,-0.225,0.025
5293,-0.195,0.065
5294,-0.180,0.085
5295,-0.130,0.090
5296,-0.080,0.095
5297,-0.085,0.085
5298,-0.070,0.050
5299,-0.060,0.030
5300,-0.050,-0.005
5301,-0.130,-0.030
5302,-0.200,0.000
5303,-0.210,0.000
5304,-0.255,-0.005
5305,-0.280,-0.005
5306,-0.290,-0.020
5307,-0.300,-0.015
5308,-0.300,-0.025
5309,-0.300,-0.010
5310,-0.315,-0.010
5311,-0.330,-0.020
5312,-0.325,-0.025
5313,-0.335,-0.020
5314,-0.325,-0.015
5315,-0.335,-0.005
5316,-0.325,0.000
5317,-0.335,-0.010
5318,-0.330,-0.005
5319,-0.335,0.000
5320,-0.350,0.000
5321,-0.410,0.000
5322,-0.485,-0.010
5323,-0.425,-0.075
5324,0.000,-0.260
5325,0.745,-0.465
5326,1.030,-0.175
5327,0.160,0.475
5328,-0.915,0.705
5329,-0.980,0.155
5330,-0.620,-0.165
5331,-0.385,-0.155
5332,-0.340,-0.025
5333,-0.315,0.040
5334,-0.310,0.045
5335,-0.305,0.065
5336,-0.275,0.065
5337,-0.290,0.075
5338,-0.290,0.080
5339,-0.260,0.060
5340,-0.250,0.055
5341,-0.240,0.060
5342,-0.240,0.060
5343,-0.230,0.070
5344,-0.220,0.075
5345,-0.210,0.045
5346,-0.185,0.060
5347,-0.160,0.075
5348,-0.150,0.070
5349,-0.115,0.060
5350,-0.060,0.070
5351,-0.020,0.070
5352,0.030,0.045
5353,0.100,0.025
5354,0.195,0.020
5355,0.225,0.010
5356,0.270,0.000
5357,0.275,0.000
5358,0.255,0.005
5359,0.235,0.005
5360,0.185,0.025
5361,0.120,0.020
5362,0.060,0.050
5363,0.000,0.045
5364,-0.045,0.045
5365,-0.090,0.045
5366,-0.130,0.065
5367,-0.155,0.070
5368,-0.175,0.040
5369,-0.195,0.055
5370,-0.205,0.055
5371,-0.230,0.040
5372,-0.235,0.040
5373,-0.230,0.035
5374,-0.245,0.020
5375,-0.265,0.035
5376,-0.250,0.040
5377,-0.255,0.050
5378,-0.250,0.060
5379,-0.250,0.075
5380,-0.255,0.055
5381,-0.240,0.070
5382,-0.255,0.070
5383,-0.250,0.070
5384,-0.250,0.075
5385,-0.245,0.060
5386,-0.205,0.075
5387,-0.185,0.110
5388,-0.170,0.150
5389,-0.130,0.140
5390,-0.055,0.135
5391,-0.060,0.170
5392,-0.045,0.090
5393,-0.025,0.050
5394,-0.040,0.015
5395,-0.120,0.010
5396,-0.185,-0.010
5397,-0.215,0.040
5398,-0.245,0.040
5399,-0.270,0.030
5400,-0.275,0.015
5401,-0.275,0.000
5402,-0.290,0.005
5403,-0.290,0.015
5404,-0.300,0.030
5405,-0.300,0.020
5406,-0.315,0.015
5407,-0.310,0.015
5408,-0.305,0.005
5409,-0.315,0.000
5410,-0.310,0.025
5411,-0.310,0.020
5412,-0.305,0.020
5413,-0.300,0.035
5414,-0.310,0.020
5415,-0.405,0.015
5416,-0.455,0.000
5417,-0.390,-0.095
5418,0.115,-0.335
5419,0.850,-0.525
5420,0.890,-0.085
5421,-0.190,0.520
5422,-1.070,0.680
5423,-0.930,0.015
5424,-0.560,-0.205
5425,-0.375,-0.180
5426,-0.335,0.015
5427,-0.335,0.040
5428,-0.305,0.050
5429,-0.310,0.055
5430,-0.290,0.075
5431,-0.290,0.085
5432,-0.285,0.090
5433,-0.285,0.100
5434,-0.265,0.080
5435,-0.240,0.055
5436,-0.265,0.075
5437,-0.235,0.100
5438,-0.225,0.075
5439,-0.210,0.075
5440,-0.195,0.080
5441,-0.185,0.060
5442,-0.160,0.075
5443,-0.100,0.055
5444,-0.090,0.045
5445,0.000,0.045
5446,0.055,0.040
5447,0.115,0.040
5448,0.160,0.020
5449,0.190,0.000
5450,0.215,0.000
5451,0.190,0.010
5452,0.180,0.015
5453,0.135,0.005
5454,0.080,0.010
5455,0.020,0.030
5456,-0.040,0.050
5457,-0.080,0.085
5458,-0.105,0.085
5459,-0.140,0.070
5460,-0.195,0.055
5461,-0.220,0.055
5462,-0.250,0.045
5463,-0.255,0.040
5464,-0.265,0.010
5465,-0.280,0.025
5466,-0.260,0.060
5467,-0.265,0.095
5468,-0.245,0.110
5469,-0.235,0.135
5470,-0.220,0.230
5471,-0.235,0.170
5472,-0.250,0.125
5473,-0.235,0.100
5474,-0.225,0.100
5475,-0.230,0.085
5476,-0.235,0.100
5477,-0.220,0.095
5478,-0.240,0.100
5479,-0.210,0.095
5480,-0.220,0.080
5481,-0.205,0.075
5482,-0.235,0.060
5483,-0.205,0.065
5484,-0.230,0.065
5485,-0.215,0.055
5486,-0.220,0.055
5487,-0.230,0.040
5488,-0.200,0.060
5489,-0.210,0.075
5490,-0.215,0.045
5491,-0.290,0.035
5492,-0.305,0.010
5493,-0.090,-0.095
5494,0.505,-0.325
5495,1.065,-0.440
5496,0.690,-0.010
5497,-0.430,0.565
5498,-1.020,0.585
5499,-0.800,-0.055
5500,-0.435,-0.210
5501,-0.305,-0.150
5502,-0.275,0.015
5503,-0.260,0.075
5504,-0.260,0.100
5505,-0.265,0.095
5506,-0.245,0.080
5507,-0.250,0.110
5508,-0.240,0.085
5509,-0.215,0.100
5510,-0.210,0.110
5511,-0.220,0.080
5512,-0.225,0.075
5513,-0.205,0.095
5514,-0.185,0.065
5515,-0.160,0.060
5516,-0.130,0.080
5517,-0.090,0.080
5518,-0.045,0.055
5519,0.015,0.030
5520,0.065,0.025
5521,0.150,-0.005
5522,0.200,-0.015
5523,0.230,0.000
5524,0.260,-0.045
5525,0.240,-0.060
5526,0.220,-0.050
5527,0.150,-0.020
5528,0.095,-0.025
5529,0.015,0.000
5530,-0.035,0.005
5531,-0.110,0.000
5532,-0.160,0.010
5533,-0.210,0.005
5534,-0.245,0.000
5535,-0.275,0.010
5536,-0.285,0.025
5537,-0.305,0.020
5538,-0.310,0.020
5539,-0.300,0.020
5540,-0.295,0.020
5541,-0.285,0.015
5542,-0.280,0.035
5543,-0.265,0.010
5544,-0.240,0.035
5545,-0.235,0.015
5546,-0.225,0.020
5547,-0.225,0.020
5548,-0.235,0.000
5549,-0.230,0.005
5550,-0.240,0.000
5551,-0.230,-0.010
5552,-0.265,0.000
5553,-0.265,-0.005
5554,-0.275,0.000
5555,-0.270,0.005
5556,-0.270,0.005
5557,-0.280,0.000
5558,-0.270,0.005
5559,-0.250,0.045
5560,-0.245,0.075
5561,-0.215,0.085
5562,-0.175,0.070
5563,-0.160,0.040
5564,-0.120,-0.005
5565,-0.140,0.000
5566,-0.175,-0.030
5567,-0.205,-0.045
5568,-0.260,-0.015
5569,-0.285,-0.005
5570,-0.290,0.000
5571,-0.335,-0.005
5572,-0.330,-0.015
5573,-0.345,-0.015
5574,-0.340,-0.020
5575,-0.340,-0.020
5576,-0.340,-0.005
5577,-0.355,-0.015
5578,-0.340,-0.020
5579,-0.360,-0.015
5580,-0.345,0.005
5581,-0.350,0.000
5582,-0.360,0.000
5583,-0.360,0.005
5584,-0.345,0.005
5585,-0.370,0.010
5586,-0.490,0.015
5587,-0.560,-0.010
5588,-0.365,-0.095
5589,0.295,-0.370
5590,1.090,-0.430
5591,0.820,0.185
5592,-0.500,0.680
5593,-1.105,0.455
5594,-0.805,-0.125
5595,-0.495,-0.195
5596,-0.395,-0.085
5597,-0.375,0.035
5598,-0.370,0.040
5599,-0.330,0.055
5600,-0.340,0.060
5601,-0.330,0.075
5602,-0.325,0.070
5603,-0.315,0.060
5604,-0.300,0.070
5605,-0.305,0.070
5606,-0.295,0.065
5607,-0.275,0.060
5608,-0.280,0.075
5609,-0.270,0.050
5610,-0.250,0.070
5611,-0.215,0.055
5612,-0.195,0.040
5613,-0.165,0.045
5614,-0.100,0.060
5615,-0.045,0.055
5616,0.010,0.060
5617,0.070,0.035
5618,0.135,0.040
5619,0.170,0.030
5620,0.175,0.025
5621,0.155,0.035
5622,0.140,0.020
5623,0.100,0.025
5624,0.050,0.045
5625,0.010,0.045
5626,-0.055,0.060
5627,-0.115,0.075
5628,-0.155,0.075
5629,-0.185,0.070
5630,-0.235,0.065
5631,-0.245,0.065
5632,-0.275,0.080
5633,-0.275,0.085
5634,-0.280,0.070
5635,-0.285,0.070
5636,-0.295,0.080
5637,-0.320,0.075
5638,-0.310,0.055
5639,-0.305,0.095
5640,-0.310,0.070
5641,-0.300,0.080
5642,-0.310,0.095
5643,-0.325,0.090
5644,-0.320,0.095
5645,-0.330,0.085
5646,-0.320,0.095
5647,-0.275,0.105
5648,-0.245,0.130
5649,-0.220,0.175
5650,-0.185,0.140
5651,-0.135,0.140
5652,-0.120,0.125
5653,-0.105,0.045
5654,-0.145,0.050
5655,-0.150,0.000
5656,-0.215,-0.005
5657,-0.270,0.040
5658,-0.300,0.040
5659,-0.320,0.025
5660,-0.350,0.010
5661,-0.345,0.015
5662,-0.355,0.000
5663,-0.355,0.015
5664,-0.365,0.020
5665,-0.370,0.015
5666,-0.390,0.030
5667,-0.390,0.015
5668,-0.390,0.025
5669,-0.405,0.020
5670,-0.380,0.025
5671,-0.380,0.025
5672,-0.390,0.015
5673,-0.390,0.010
5674,-0.410,0.035
5675,-0.455,-0.005
5676,-0.535,-0.005
5677,-0.480,-0.040
5678,-0.025,-0.250
5679,0.725,-0.450
5680,0.930,-0.140
5681,-0.070,0.500
5682,-1.055,0.675
5683,-0.990,0.095
5684,-0.615,-0.160
5685,-0.450,-0.140
5686,-0.415,-0.005
5687,-0.420,0.040
5688,-0.385,0.045
5689,-0.375,0.045
5690,-0.375,0.045
5691,-0.355,0.065
5692,-0.350,0.040
5693,-0.350,0.055
5694,-0.335,0.060
5695,-0.320,0.055
5696,-0.310,0.070
5697,-0.300,0.060
5698,-0.290,0.060
5699,-0.270,0.075
5700,-0.250,0.070
5701,-0.240,0.070
5702,-0.195,0.060
5703,-0.160,0.070
5704,-0.110,0.075
5705,-0.045,0.065
5706,0.015,0.040
5707,0.080,0.030
5708,0.130,0.020
5709,0.150,0.015
5710,0.170,0.010
5711,0.150,0.020
5712,0.130,0.025
5713,0.070,0.055
5714,0.005,0.025
5715,-0.060,0.040
5716,-0.115,0.020
5717,-0.185,0.040
5718,-0.225,0.000
5719,-0.255,-0.005
5720,-0.230,0.030
5721,-0.255,0.080
5722,-0.260,0.105
5723,-0.240,0.130
5724,-0.260,0.215
5725,-0.280,0.175
5726,-0.295,0.100
5727,-0.300,0.085
5728,-0.290,0.085
5729,-0.305,0.095
5730,-0.310,0.075
5731,-0.280,0.070
5732,-0.305,0.075
5733,-0.300,0.110
5734,-0.295,0.075
5735,-0.290,0.075
5736,-0.295,0.080
5737,-0.285,0.075
5738,-0.275,0.080
5739,-0.290,0.070
5740,-0.295,0.065
5741,-0.280,0.060
5742,-0.275,0.045
5743,-0.260,0.040
5744,-0.260,0.055
5745,-0.275,0.060
5746,-0.285,0.040
5747,-0.275,0.055
5748,-0.320,0.050
5749,-0.340,0.005
5750,-0.095,-0.070
5751,0.485,-0.280
5752,1.010,-0.410
5753,0.660,-0.010
5754,-0.465,0.600
5755,-1.060,0.565
5756,-0.830,0.000
5757,-0.480,-0.160
5758,-0.335,-0.130
5759,-0.310,0.040
5760,-0.325,0.055
5761,-0.310,0.065
5762,-0.310,0.070
5763,-0.305,0.090
5764,-0.300,0.075
5765,-0.295,0.100
5766,-0.280,0.110
5767,-0.260,0.095
5768,-0.280,0.075
5769,-0.270,0.090
5770,-0.235,0.085
5771,-0.225,0.080
5772,-0.205,0.075
5773,-0.165,0.065
5774,-0.135,0.070
5775,-0.120,0.055
5776,-0.080,0.040
5777,-0.015,0.040
5778,0.030,0.015
5779,0.100,0.020
5780,0.165,-0.015
5781,0.200,-0.020
5782,0.215,-0.015
5783,0.200,-0.010
5784,0.155,0.000
5785,0.120,0.000
5786,0.060,-0.005
5787,0.020,0.000
5788,-0.045,0.005
5789,-0.100,0.025
5790,-0.175,0.005
5791,-0.220,0.015
5792,-0.260,0.015
5793,-0.275,0.015
5794,-0.290,0.015
5795,-0.305,0.005
5796,-0.310,0.020
5797,-0.290,0.025
5798,-0.285,0.010
5799,-0.275,0.000
5800,-0.285,0.030
5801,-0.265,0.010
5802,-0.255,0.010
5803,-0.240,0.000
5804,-0.240,0.020
5805,-0.240,0.015
5806,-0.245,0.025
5807,-0.235,0.025
5808,-0.230,0.000
5809,-0.240,0.005
5810,-0.260,0.000
5811,-0.265,0.005
5812,-0.260,0.000
5813,-0.280,0.015
5814,-0.270,-0.010
5815,-0.300,0.000
5816,-0.305,0.000
5817,-0.300,0.000
5818,-0.300,0.015
5819,-0.325,0.000
5820,-0.315,0.010
5821,-0.305,-0.005
5822,-0.315,-0.010
5823,-0.300,-0.010
5824,-0.295,-0.010
5825,-0.300,0.000
5826,-0.285,0.000
5827,-0.300,0.015
5828,-0.300,0.000
5829,-0.280,0.000
5830,-0.285,0.050
5831,-0.245,0.055
5832,-0.165,0.055
5833,-0.130,0.065
5834,-0.130,0.040
5835,-0.105,0.010
5836,-0.110,-0.020
5837,-0.150,-0.040
5838,-0.230,-0.035
5839,-0.245,0.000
5840,-0.285,-0.015
5841,-0.300,-0.035
5842,-0.305,-0.025
5843,-0.285,-0.025
5844,-0.310,-0.020
5845,-0.315,-0.045
5846,-0.315,-0.030
5847,-0.290,-0.020
5848,-0.320,-0.025
5849,-0.310,-0.030
5850,-0.325,-0.010
5851,-0.330,-0.020
5852,-0.340,-0.010
5853,-0.320,-0.020
5854,-0.330,-0.020
5855,-0.330,-0.045
5856,-0.420,-0.040
5857,-0.510,-0.060
5858,-0.480,-0.085
5859,-0.130,-0.270
5860,0.590,-0.495
5861,1.040,-0.310
5862,0.410,0.300
5863,-0.705,0.630
5864,-1.035,0.320
5865,-0.765,-0.230
5866,-0.485,-0.270
5867,-0.385,-0.155
5868,-0.355,-0.045
5869,-0.335,0.000
5870,-0.310,0.015
5871,-0.330,0.010
5872,-0.305,0.000
5873,-0.295,0.020
5874,-0.290,0.010
5875,-0.290,0.020
5876,-0.285,0.025
5877,-0.265,0.020
5878,-0.250,0.020
5879,-0.250,0.025
5880,-0.230,0.000
5881,-0.220,0.000
5882,-0.225,0.010
5883,-0.185,0.015
5884,-0.160,0.020
5885,-0.120,0.010
5886,-0.080,-0.010
5887,-0.020,0.000
5888,0.030,-0.025
5889,0.080,0.000
5890,0.130,-0.035
5891,0.175,-0.035
5892,0.195,-0.040
5893,0.200,-0.035
5894,0.175,-0.035
5895,0.165,-0.005
5896,0.120,-0.005
5897,0.070,0.000
5898,0.000,0.005
5899,-0.030,0.015
5900,-0.070,0.025
5901,-0.115,0.020
5902,-0.135,0.030
5903,-0.180,0.040
5904,-0.195,0.025
5905,-0.220,0.010
5906,-0.250,0.020
5907,-0.265,0.015
5908,-0.280,0.015
5909,-0.275,0.035
5910,-0.280,0.015
5911,-0.290,0.040
5912,-0.290,0.030
5913,-0.300,0.010
5914,-0.300,0.025
5915,-0.295,0.040
5916,-0.305,0.035
5917,-0.290,0.035
5918,-0.295,0.040
5919,-0.295,0.050
5920,-0.290,0.040
5921,-0.270,0.040
5922,-0.265,0.035
5923,-0.265,0.030
5924,-0.235,0.040
5925,-0.210,0.045
5926,-0.185,0.095
5927,-0.140,0.120
5928,-0.110,0.090
5929,-0.070,0.080
5930,-0.065,0.040
5931,-0.060,0.025
5932,-0.085,0.000
5933,-0.110,-0.015
5934,-0.180,-0.015
5935,-0.210,0.000
5936,-0.235,0.000
5937,-0.245,-0.010
5938,-0.280,-0.015
5939,-0.290,-0.030
5940,-0.295,-0.010
5941,-0.300,-0.025
5942,-0.300,-0.015
5943,-0.305,-0.010
5944,-0.310,-0.015
5945,-0.310,-0.005
5946,-0.325,-0.005
5947,-0.330,0.000
5948,-0.330,0.010
5949,-0.325,-0.010
5950,-0.325,0.000
5951,-0.320,0.025
5952,-0.335,-0.010
5953,-0.400,0.000
5954,-0.460,-0.010
5955,-0.410,-0.065
5956,0.090,-0.290
5957,0.865,-0.485
5958,0.940,-0.095
5959,-0.140,0.555
5960,-1.035,0.660
5961,-0.895,0.030
5962,-0.530,-0.190
5963,-0.365,-0.160
5964,-0.350,-0.020
5965,-0.335,0.025
5966,-0.325,0.040
5967,-0.315,0.040
5968,-0.300,0.040
5969,-0.280,0.030
5970,-0.275,0.050
5971,-0.275,0.035
5972,-0.250,0.045
5973,-0.250,0.040
5974,-0.235,0.070
5975,-0.215,0.055
5976,-0.200,0.045
5977,-0.185,0.080
5978,-0.185,0.060
5979,-0.150,0.055
5980,-0.085,0.075
5981,-0.065,0.080
5982,-0.005,0.070
5983,0.065,0.055
5984,0.115,0.045
5985,0.205,0.030
5986,0.240,0.025
5987,0.270,0.015
5988,0.270,0.010
5989,0.255,0.020
5990,0.225,0.015
5991,0.165,0.015
5992,0.115,0.055
5993,0.040,0.030
5994,-0.025,0.035
5995,-0.070,0.045
5996,-0.100,0.045
5997,-0.140,0.050
5998,-0.185,0.050
5999,-0.190,0.040
6000,-0.205,0.045
6001,-0.220,0.045
6002,-0.230,0.050
6003,-0.240,0.060
6004,-0.240,0.050
6005,-0.245,0.045
6006,-0.245,0.055
6007,-0.260,0.065
6008,-0.230,0.065
6009,-0.250,0.065
6010,-0.255,0.060
6011,-0.250,0.085
6012,-0.235,0.090
6013,-0.235,0.075
6014,-0.215,0.065
6015,-0.220,0.090
6016,-0.225,0.085
6017,-0.240,0.065
6018,-0.205,0.080
6019,-0.225,0.065
6020,-0.210,0.085
6021,-0.185,0.085
6022,-0.185,0.105
6023,-0.160,0.135
6024,-0.100,0.125
6025,-0.055,0.140
6026,-0.060,0.125
6027,-0.025,0.115
6028,-0.030,0.075
6029,-0.035,0.040
6030,-0.120,0.030
6031,-0.160,0.040
6032,-0.200,0.050
6033,-0.225,0.015
6034,-0.230,0.000
6035,-0.265,0.015
6036,-0.260,0.025
6037,-0.265,0.030
6038,-0.280,0.000
6039,-0.275,0.000
6040,-0.270,0.010
6041,-0.285,0.020
6042,-0.280,0.010
6043,-0.290,0.020
6044,-0.305,0.010
6045,-0.310,0.000
6046,-0.305,0.005
6047,-0.285,0.010
6048,-0.310,0.010
6049,-0.390,0.000
6050,-0.465,-0.040
6051,-0.400,-0.105
6052,0.155,-0.335
6053,0.905,-0.480
6054,0.820,-0.015
6055,-0.325,0.580
6056,-1.075,0.565
6057,-0.845,-0.115
6058,-0.465,-0.250
6059,-0.335,-0.155
6060,-0.315,-0.020
6061,-0.305,0.030
6062,-0.290,0.015
6063,-0.305,0.025
6064,-0.270,0.040
6065,-0.265,0.040
6066,-0.245,0.035
6067,-0.260,0.050
6068,-0.260,0.035
6069,-0.230,0.045
6070,-0.220,0.030
6071,-0.205,0.040
6072,-0.190,0.035
6073,-0.180,0.030
6074,-0.185,0.030
6075,-0.155,0.015
6076,-0.105,0.020
6077,-0.075,0.025
6078,-0.030,0.020
6079,0.035,0.015
6080,0.095,-0.005
6081,0.150,-0.005
6082,0.230,-0.005
6083,0.240,-0.030
6084,0.225,-0.025
6085,0.215,-0.045
6086,0.190,-0.025
6087,0.140,-0.010
6088,0.080,0.020
6089,0.020,0.005
6090,-0.020,0.025
6091,-0.080,0.040
6092,-0.105,0.035
6093,-0.140,0.005
6094,-0.175,0.020
6095,-0.175,0.015
6096,-0.200,0.025
6097,-0.210,0.035
6098,-0.215,0.035
6099,-0.215,0.025
6100,-0.210,0.030
6101,-0.210,0.040
6102,-0.225,0.065
6103,-0.220,0.030
6104,-0.215,0.030
6105,-0.215,0.050
6106,-0.240,0.055
6107,-0.225,0.055
6108,-0.210,0.080
6109,-0.215,0.055
6110,-0.210,0.080
6111,-0.180,0.070
6112,-0.160,0.065
6113,-0.170,0.065
6114,-0.165,0.080
6115,-0.165,0.065
6116,-0.150,0.060
6117,-0.125,0.100
6118,-0.130,0.120
6119,-0.080,0.125
6120,-0.015,0.135
6121,-0.010,0.160
6122,-0.010,0.095
6123,0.010,0.065
6124,0.005,0.025
6125,-0.075,0.020
6126,-0.130,0.040
6127,-0.150,0.030
6128,-0.160,0.020
6129,-0.195,0.005
6130,-0.215,0.000
6131,-0.205,0.025
6132,-0.200,0.010
6133,-0.200,0.000
6134,-0.205,0.005
6135,-0.210,0.000
6136,-0.220,0.010
6137,-0.210,0.000
6138,-0.220,0.020
6139,-0.225,0.010
6140,-0.220,0.000
6141,-0.215,-0.020
6142,-0.235,-0.015
6143,-0.235,0.000
6144,-0.325,-0.005
6145,-0.400,-0.005
6146,-0.385,-0.085
6147,0.120,-0.325
6148,0.935,-0.485
6149,1.055,-0.120
6150,0.030,0.445
6151,-0.875,0.645
6152,-0.870,0.085
6153,-0.535,-0.235
6154,-0.325,-0.200
6155,-0.260,-0.045
6156,-0.260,0.000
6157,-0.220,0.005
6158,-0.220,0.025
6159,-0.220,0.030
6160,-0.210,0.025
6161,-0.215,0.035
6162,-0.200,0.010
6163,-0.190,0.020
6164,-0.185,0.015
6165,-0.175,0.025
6166,-0.165,0.005
6167,-0.155,0.015
6168,-0.155,-0.005
6169,-0.140,0.005
6170,-0.120,0.015
6171,-0.080,0.000
6172,-0.040,-0.010
6173,0.020,-0.020
6174,0.065,-0.040
6175,0.140,-0.040
6176,0.205,-0.060
6177,0.260,-0.070
6178,0.280,-0.100
6179,0.275,-0.095
6180,0.275,-0.090
6181,0.250,-0.070
6182,0.175,-0.065
6183,0.110,-0.070
6184,0.045,-0.030
6185,0.010,-0.010
6186,-0.035,-0.010
6187,-0.075,-0.005
6188,-0.110,0.005
6189,-0.130,-0.010
6190,-0.170,0.000
6191,-0.170,0.020
6192,-0.200,0.015
6193,-0.195,0.025
6194,-0.220,0.015
6195,-0.220,0.035
6196,-0.215,0.055
6197,-0.220,0.035
6198,-0.215,0.015
6199,-0.225,0.025
6200,-0.225,0.030
6201,-0.220,0.025
6202,-0.230,0.025
6203,-0.215,0.015
6204,-0.210,0.010
6205,-0.210,0.035
6206,-0.190,0.030
6207,-0.190,0.010
6208,-0.185,0.040
6209,-0.180,0.030
6210,-0.170,0.030
6211,-0.150,0.070
6212,-0.130,0.090
6213,-0.110,0.105
6214,-0.060,0.095
6215,-0.010,0.130
6216,-0.020,0.090
6217,-0.010,0.070
6218,0.015,0.030
6219,-0.010,0.000
6220,-0.095,0.010
6221,-0.145,0.035
6222,-0.160,0.040
6223,-0.190,0.025
6224,-0.205,0.010
6225,-0.220,0.015
6226,-0.205,0.010
6227,-0.225,0.010
6228,-0.230,0.005
6229,-0.225,0.020
6230,-0.225,0.030
6231,-0.230,0.035
6232,-0.220,0.030
6233,-0.235,0.030
6234,-0.250,0.035
6235,-0.245,0.045
6236,-0.250,0.030
6237,-0.240,0.050
6238,-0.255,0.035
6239,-0.335,0.050
6240,-0.410,0.020
6241,-0.345,-0.010
6242,0.125,-0.225
6243,0.860,-0.405
6244,1.080,-0.075
6245,0.125,0.565
6246,-0.870,0.755
6247,-0.850,0.170
6248,-0.490,-0.160
6249,-0.290,-0.120
6250,-0.265,0.030
6251,-0.250,0.090
6252,-0.245,0.080
6253,-0.245,0.080
6254,-0.220,0.095
6255,-0.220,0.105
6256,-0.200,0.075
6257,-0.205,0.110
6258,-0.195,0.085
6259,-0.195,0.100
6260,-0.180,0.085
6261,-0.165,0.110
6262,-0.145,0.095
6263,-0.115,0.110
6264,-0.110,0.105
6265,-0.085,0.110
6266,-0.060,0.105
6267,-0.030,0.110
6268,0.000,0.105
6269,0.080,0.100
6270,0.135,0.085
6271,0.210,0.120
6272,0.285,0.065
6273,0.310,0.075
6274,0.340,0.060
6275,0.340,0.045
6276,0.335,0.035
6277,0.310,0.060
6278,0.250,0.075
6279,0.175,0.105
6280,0.120,0.095
6281,0.060,0.100
6282,0.005,0.095
6283,-0.020,0.110
6284,-0.085,0.090
6285,-0.115,0.105
6286,-0.125,0.105
6287,-0.140,0.105
6288,-0.160,0.100
6289,-0.160,0.085
6290,-0.185,0.105
6291,-0.215,0.090
6292,-0.200,0.085
6293,-0.210,0.095
6294,-0.190,0.075
6295,-0.195,0.110
6296,-0.200,0.095
6297,-0.215,0.110
6298,-0.210,0.095
6299,-0.220,0.095
6300,-0.210,0.105
6301,-0.205,0.110
6302,-0.205,0.110
6303,-0.200,0.105
6304,-0.195,0.095
6305,-0.165,0.120
6306,-0.140,0.160
6307,-0.125,0.175
6308,-0.055,0.155
6309,-0.005,0.180
6310,0.000,0.155
6311,-0.005,0.135
6312,0.015,0.085
6313,0.000,0.065
6314,-0.085,0.020
6315,-0.145,0.070
6316,-0.155,0.075
6317,-0.185,0.075
6318,-0.210,0.045
6319,-0.220,0.060
6320,-0.220,0.050
6321,-0.215,0.060
6322,-0.220,0.060
6323,-0.225,0.045
6324,-0.225,0.040
6325,-0.235,0.030
6326,-0.230,0.055
6327,-0.255,0.055
6328,-0.255,0.055
6329,-0.235,0.050
6330,-0.245,0.035
6331,-0.245,0.050
6332,-0.250,0.035
6333,-0.250,0.055
6334,-0.320,0.065
6335,-0.415,0.020
6336,-0.375,-0.010
6337,-0.035,-0.195
6338,0.680,-0.420
6339,1.070,-0.200
6340,0.315,0.475
6341,-0.765,0.810
6342,-0.940,0.330
6343,-0.590,-0.090
6344,-0.330,-0.115
6345,-0.270,-0.015
6346,-0.270,0.075
6347,-0.245,0.065
6348,-0.230,0.090
6349,-0.220,0.110
6350,-0.205,0.100
6351,-0.205,0.110
6352,-0.210,0.110
6353,-0.200,0.095
6354,-0.165,0.100
6355,-0.195,0.115
6356,-0.175,0.105
6357,-0.170,0.090
6358,-0.140,0.110
6359,-0.145,0.105
6360,-0.110,0.115
6361,-0.085,0.115
6362,-0.060,0.115
6363,-0.020,0.130
6364,0.015,0.110
6365,0.075,0.105
6366,0.145,0.090
6367,0.220,0.090
6368,0.250,0.075
6369,0.320,0.060
6370,0.335,0.065
6371,0.310,0.060
6372,0.290,0.045
6373,0.265,0.075
6374,0.190,0.095
6375,0.140,0.085
6376,0.085,0.105
6377,0.030,0.110
6378,-0.010,0.115
6379,-0.070,0.135
6380,-0.095,0.115
6381,-0.125,0.120
6382,-0.125,0.115
6383,-0.130,0.120
6384,-0.160,0.105
6385,-0.170,0.120
6386,-0.175,0.105
6387,-0.160,0.085
6388,-0.165,0.115
6389,-0.190,0.100
6390,-0.180,0.130
6391,-0.175,0.120
6392,-0.180,0.105
6393,-0.165,0.120
6394,-0.155,0.120
6395,-0.165,0.100
6396,-0.165,0.145
6397,-0.155,0.130
6398,-0.155,0.115
6399,-0.130,0.110
6400,-0.140,0.135
6401,-0.150,0.130
6402,-0.145,0.135
6403,-0.120,0.150
6404,-0.105,0.180
6405,-0.100,0.175
6406,-0.005,0.180
6407,0.005,0.205
6408,0.005,0.170
6409,0.035,0.130
6410,0.050,0.095
6411,-0.010,0.100
6412,-0.095,0.085
6413,-0.115,0.080
6414,-0.135,0.065
6415,-0.170,0.070
6416,-0.165,0.070
6417,-0.165,0.045
6418,-0.195,0.045
6419,-0.210,0.055
6420,-0.210,0.055
6421,-0.195,0.030
6422,-0.190,0.075
6423,-0.195,0.045
6424,-0.205,0.040
6425,-0.210,0.045
6426,-0.215,0.025
6427,-0.210,0.035
6428,-0.220,0.060
6429,-0.225,0.035
6430,-0.230,0.030
6431,-0.260,0.035
6432,-0.350,0.005
6433,-0.360,-0.030
6434,-0.070,-0.185
6435,0.640,-0.450
6436,1.120,-0.270
6437,0.500,0.295
6438,-0.600,0.645
6439,-0.950,0.365
6440,-0.685,-0.150
6441,-0.355,-0.230
6442,-0.260,-0.125
6443,-0.260,0.000
6444,-0.240,0.035
6445,-0.210,0.040
6446,-0.190,0.040
6447,-0.200,0.045
6448,-0.185,0.060
6449,-0.185,0.035
6450,-0.170,0.070
6451,-0.180,0.055
6452,-0.175,0.045
6453,-0.155,0.055
6454,-0.150,0.050
6455,-0.140,0.045
6456,-0.140,0.035
6457,-0.115,0.030
6458,-0.070,0.020
6459,-0.050,0.010
6460,-0.015,0.020
6461,0.030,0.000
6462,0.090,-0.005
6463,0.155,-0.025
6464,0.215,-0.040
6465,0.290,-0.045
6466,0.300,-0.050
6467,0.305,-0.060
6468,0.310,-0.040
6469,0.265,-0.035
6470,0.215,-0.015
6471,0.150,0.000
6472,0.090,-0.005
6473,0.030,0.005
6474,-0.010,0.025
6475,-0.050,0.040
6476,-0.075,0.040
6477,-0.110,0.045
6478,-0.130,0.055
6479,-0.135,0.040
6480,-0.155,0.035
6481,-0.165,0.050
6482,-0.180,0.055
6483,-0.170,0.060
6484,-0.180,0.055
6485,-0.200,0.055
6486,-0.195,0.085
6487,-0.195,0.065
6488,-0.195,0.070
6489,-0.190,0.055
6490,-0.185,0.065
6491,-0.185,0.070
6492,-0.175,0.060
6493,-0.130,0.065
6494,-0.105,0.105
6495,-0.075,0.135
6496,-0.055,0.130
6497,0.000,0.135
6498,0.020,0.125
6499,0.040,0.080
6500,0.040,0.065
6501,0.030,0.045
6502,-0.005,0.030
6503,-0.080,0.045
6504,-0.085,0.055
6505,-0.125,0.060
6506,-0.155,0.040
6507,-0.170,0.040
6508,-0.165,0.040
6509,-0.185,0.045
6510,-0.185,0.055
6511,-0.185,0.045
6512,-0.190,0.060
6513,-0.195,0.050
6514,-0.200,0.040
6515,-0.210,0.040
6516,-0.210,0.040
6517,-0.205,0.045
6518,-0.195,0.060
6519,-0.215,0.050
6520,-0.205,0.055
6521,-0.220,0.050
6522,-0.295,0.065
6523,-0.380,0.050
6524,-0.315,-0.015
6525,0.200,-0.230
6526,0.975,-0.400
6527,1.100,-0.015
6528,-0.030,0.615
6529,-0.945,0.735
6530,-0.750,0.035
6531,-0.410,-0.150
6532,-0.250,-0.085
6533,-0.215,0.045
6534,-0.205,0.080
6535,-0.215,0.085
6536,-0.195,0.100
6537,-0.200,0.100
6538,-0.200,0.105
6539,-0.190,0.110
6540,-0.170,0.090
6541,-0.160,0.100
6542,-0.150,0.095
6543,-0.135,0.095
6544,-0.115,0.090
6545,-0.125,0.110
6546,-0.075,0.090
6547,-0.075,0.095
6548,-0.050,0.120
6549,-0.020,0.105
6550,0.000,0.080
6551,0.075,0.110
6552,0.145,0.090
6553,0.215,0.075
6554,0.275,0.045
6555,0.325,0.040
6556,0.340,0.025
