'sample interval','ECG0','ECG1'
'0.0078125 sec','mV','mV'
0,-0.245,-0.100
1,-0.245,-0.085
2,-0.230,-0.080
3,-0.215,-0.075
4,-0.225,-0.085
5,-0.215,-0.080
6,-0.225,-0.090
7,-0.210,-0.075
8,-0.205,-0.085
9,-0.200,-0.105
10,-0.210,-0.080
11,-0.190,-0.110
12,-0.205,-0.105
13,-0.165,-0.095
14,-0.160,-0.055
15,-0.160,-0.035
16,-0.135,-0.050
17,-0.060,-0.070
18,-0.025,-0.035
19,-0.040,-0.050
20,-0.025,-0.100
21,-0.025,-0.110
22,-0.065,-0.140
23,-0.115,-0.145
24,-0.165,-0.125
25,-0.195,-0.125
26,-0.195,-0.145
27,-0.215,-0.160
28,-0.215,-0.165
29,-0.230,-0.160
30,-0.225,-0.175
31,-0.230,-0.160
32,-0.235,-0.180
33,-0.225,-0.175
34,-0.245,-0.180
35,-0.245,-0.175
36,-0.260,-0.175
37,-0.265,-0.170
38,-0.255,-0.175
39,-0.270,-0.175
40,-0.275,-0.185
41,-0.400,-0.195
42,-0.455,-0.215
43,-0.365,-0.285
44,0.195,-0.525
45,0.950,-0.555
46,0.820,-0.100
47,-0.220,0.325
48,-0.990,0.415
49,-0.890,-0.160
50,-0.575,-0.355
51,-0.360,-0.315
52,-0.300,-0.215
53,-0.295,-0.145
54,-0.285,-0.155
55,-0.275,-0.130
56,-0.265,-0.140
57,-0.270,-0.145
58,-0.260,-0.140
59,-0.255,-0.155
60,-0.220,-0.155
61,-0.245,-0.140
62,-0.225,-0.145
63,-0.200,-0.140
64,-0.220,-0.135
65,-0.180,-0.145
66,-0.175,-0.140
67,-0.160,-0.135
68,-0.125,-0.150
69,-0.120,-0.155
70,-0.075,-0.140
71,-0.045,-0.145
72,0.005,-0.170
73,0.065,-0.195
74,0.120,-0.195
75,0.175,-0.210
76,0.195,-0.225
77,0.225,-0.205
78,0.210,-0.230
79,0.200,-0.200
80,0.175,-0.210
81,0.115,-0.195
82,0.045,-0.185
83,-0.010,-0.165
84,-0.070,-0.150
85,-0.110,-0.125
86,-0.150,-0.135
87,-0.175,-0.110
88,-0.195,-0.090
89,-0.205,-0.120
90,-0.215,-0.115
91,-0.235,-0.100
92,-0.230,-0.105
93,-0.240,-0.095
94,-0.235,-0.080
95,-0.250,-0.085
96,-0.250,-0.095
97,-0.265,-0.070
98,-0.250,-0.070
99,-0.235,-0.065
100,-0.245,-0.060
101,-0.255,-0.055
102,-0.245,-0.060
103,-0.240,-0.040
104,-0.255,-0.055
105,-0.245,-0.055
106,-0.235,-0.040
107,-0.230,-0.055
108,-0.230,-0.065
109,-0.215,-0.060
110,-0.200,-0.065
111,-0.185,-0.030
112,-0.185,-0.010
113,-0.170,0.015
114,-0.125,0.010
115,-0.055,0.000
116,-0.040,-0.015
117,-0.035,-0.045
118,-0.015,-0.070
119,-0.030,-0.110
120,-0.085,-0.135
121,-0.160,-0.085
122,-0.160,-0.085
123,-0.205,-0.110
124,-0.210,-0.095
125,-0.215,-0.100
126,-0.220,-0.090
127,-0.220,-0.105
128,-0.225,-0.090
129,-0.210,-0.095
130,-0.235,-0.110
131,-0.235,-0.080
132,-0.220,-0.095
133,-0.220,-0.095
134,-0.245,-0.095
135,-0.235,-0.100
136,-0.235,-0.090
137,-0.270,-0.080
138,-0.360,-0.095
139,-0.420,-0.110
140,-0.265,-0.225
141,0.330,-0.450
142,1.015,-0.430
143,0.740,0.150
144,-0.505,0.625
145,-1.040,0.365
146,-0.705,-0.160
147,-0.365,-0.205
148,-0.270,-0.140
149,-0.245,-0.070
150,-0.250,-0.040
151,-0.235,-0.060
152,-0.225,-0.070
153,-0.230,-0.050
154,-0.225,-0.060
155,-0.200,-0.050
156,-0.215,-0.040
157,-0.205,-0.055
158,-0.205,-0.060
159,-0.205,-0.050
160,-0.180,-0.050
161,-0.180,-0.040
162,-0.155,-0.040
163,-0.145,-0.035
164,-0.120,-0.050
165,-0.095,-0.060
166,-0.065,-0.065
167,-0.015,-0.055
168,0.020,-0.080
169,0.080,-0.085
170,0.125,-0.065
171,0.180,-0.110
172,0.220,-0.130
173,0.235,-0.100
174,0.230,-0.115
175,0.225,-0.140
176,0.160,-0.100
177,0.125,-0.095
178,0.055,-0.100
179,-0.010,-0.070
180,-0.050,-0.050
181,-0.105,-0.060
182,-0.145,-0.050
183,-0.155,-0.060
184,-0.165,-0.070
185,-0.190,-0.085
186,-0.205,-0.065
187,-0.205,-0.060
188,-0.205,-0.050
189,-0.215,-0.060
190,-0.220,-0.055
191,-0.230,-0.080
192,-0.230,-0.065
193,-0.240,-0.035
194,-0.225,-0.035
195,-0.225,-0.045
196,-0.220,-0.030
197,-0.235,-0.035
198,-0.240,-0.030
199,-0.235,-0.040
200,-0.240,-0.035
201,-0.215,-0.055
202,-0.215,-0.040
203,-0.215,-0.030
204,-0.215,-0.030
205,-0.205,-0.045
206,-0.175,-0.015
207,-0.160,0.020
208,-0.145,0.000
209,-0.070,-0.010
210,-0.030,0.045
211,-0.040,-0.005
212,-0.025,-0.045
213,-0.035,-0.065
214,-0.055,-0.105
215,-0.145,-0.085
216,-0.150,-0.075
217,-0.190,-0.065
218,-0.210,-0.090
219,-0.210,-0.085
220,-0.215,-0.080
221,-0.225,-0.070
222,-0.235,-0.085
223,-0.245,-0.095
224,-0.220,-0.075
225,-0.220,-0.110
226,-0.225,-0.085
227,-0.235,-0.085
228,-0.225,-0.095
229,-0.250,-0.080
230,-0.240,-0.075
231,-0.265,-0.070
232,-0.380,-0.100
233,-0.400,-0.120
234,-0.190,-0.270
235,0.490,-0.505
236,1.090,-0.355
237,0.325,0.225
238,-0.795,0.555
239,-0.940,0.125
240,-0.640,-0.230
241,-0.325,-0.240
242,-0.265,-0.140
243,-0.245,-0.090
244,-0.230,-0.050
245,-0.225,-0.065
246,-0.225,-0.065
247,-0.205,-0.075
248,-0.210,-0.060
249,-0.195,-0.050
250,-0.215,-0.050
251,-0.190,-0.070
252,-0.185,-0.080
253,-0.180,-0.075
254,-0.155,-0.070
255,-0.130,-0.070
256,-0.125,-0.060
257,-0.115,-0.080
258,-0.065,-0.085
259,-0.050,-0.095
260,-0.015,-0.100
261,0.020,-0.105
262,0.070,-0.120
263,0.135,-0.145
264,0.170,-0.130
265,0.220,-0.175
266,0.220,-0.190
267,0.225,-0.170
268,0.220,-0.165
269,0.180,-0.160
270,0.120,-0.145
271,0.055,-0.125
272,-0.005,-0.140
273,-0.050,-0.110
274,-0.080,-0.115
275,-0.115,-0.090
276,-0.160,-0.070
277,-0.185,-0.100
278,-0.200,-0.075
279,-0.235,-0.085
280,-0.225,-0.080
281,-0.250,-0.080
282,-0.255,-0.080
283,-0.255,-0.075
284,-0.250,-0.075
285,-0.245,-0.075
286,-0.240,-0.090
287,-0.250,-0.090
288,-0.270,-0.105
289,-0.270,-0.095
290,-0.250,-0.115
291,-0.270,-0.090
292,-0.270,-0.100
293,-0.260,-0.100
294,-0.265,-0.110
295,-0.250,-0.080
296,-0.240,-0.120
297,-0.250,-0.120
298,-0.235,-0.115
299,-0.250,-0.130
300,-0.235,-0.130
301,-0.205,-0.095
302,-0.200,-0.050
303,-0.195,-0.055
304,-0.110,-0.075
305,-0.095,-0.040
306,-0.100,-0.100
307,-0.085,-0.105
308,-0.070,-0.125
309,-0.110,-0.170
310,-0.185,-0.155
311,-0.220,-0.125
312,-0.250,-0.145
313,-0.260,-0.165
314,-0.280,-0.155
315,-0.270,-0.155
316,-0.290,-0.160
317,-0.300,-0.140
318,-0.300,-0.165
319,-0.310,-0.150
320,-0.320,-0.165
321,-0.330,-0.170
322,-0.325,-0.160
323,-0.305,-0.170
324,-0.300,-0.165
325,-0.305,-0.180
326,-0.310,-0.175
327,-0.415,-0.165
328,-0.485,-0.175
329,-0.395,-0.265
330,0.125,-0.480
331,0.885,-0.555
332,0.885,-0.095
333,-0.235,0.390
334,-1.045,0.460
335,-0.905,-0.145
336,-0.535,-0.335
337,-0.355,-0.285
338,-0.345,-0.150
339,-0.335,-0.125
340,-0.300,-0.135
341,-0.315,-0.120
342,-0.290,-0.130
343,-0.280,-0.115
344,-0.285,-0.130
345,-0.275,-0.110
346,-0.280,-0.105
347,-0.260,-0.115
348,-0.250,-0.110
349,-0.240,-0.115
350,-0.240,-0.110
351,-0.215,-0.120
352,-0.200,-0.095
353,-0.175,-0.130
354,-0.155,-0.115
355,-0.120,-0.135
356,-0.105,-0.095
357,-0.045,-0.110
358,-0.010,-0.110
359,0.020,-0.135
360,0.095,-0.140
361,0.135,-0.145
362,0.175,-0.155
363,0.200,-0.155
364,0.210,-0.155
365,0.175,-0.165
366,0.135,-0.140
367,0.090,-0.120
368,0.015,-0.120
369,-0.035,-0.115
370,-0.090,-0.085
371,-0.140,-0.080
372,-0.170,-0.085
373,-0.215,-0.060
374,-0.225,-0.075
375,-0.250,-0.080
376,-0.240,-0.065
377,-0.260,-0.075
378,-0.270,-0.080
379,-0.270,-0.060
380,-0.255,-0.055
381,-0.270,-0.075
382,-0.260,-0.065
383,-0.285,-0.070
384,-0.285,-0.070
385,-0.270,-0.045
386,-0.265,-0.060
387,-0.290,-0.060
388,-0.270,-0.045
389,-0.285,-0.050
390,-0.275,-0.060
391,-0.270,-0.035
392,-0.265,-0.050
393,-0.250,-0.070
394,-0.255,-0.050
395,-0.250,-0.070
396,-0.225,-0.060
397,-0.220,-0.035
398,-0.200,0.000
399,-0.185,0.000
400,-0.110,0.000
401,-0.085,0.010
402,-0.095,-0.035
403,-0.060,-0.050
404,-0.040,-0.095
405,-0.080,-0.115
406,-0.175,-0.115
407,-0.205,-0.080
408,-0.230,-0.095
409,-0.270,-0.090
410,-0.265,-0.120
411,-0.285,-0.110
412,-0.280,-0.110
413,-0.275,-0.125
414,-0.295,-0.110
415,-0.295,-0.115
416,-0.295,-0.130
417,-0.310,-0.120
418,-0.305,-0.115
419,-0.315,-0.120
420,-0.315,-0.135
421,-0.325,-0.120
422,-0.335,-0.140
423,-0.350,-0.120
424,-0.455,-0.135
425,-0.495,-0.150
426,-0.410,-0.210
427,0.070,-0.390
428,0.770,-0.540
429,0.800,-0.115
430,-0.270,0.455
431,-1.070,0.515
432,-0.895,-0.060
433,-0.545,-0.260
434,-0.375,-0.235
435,-0.355,-0.125
436,-0.340,-0.080
437,-0.330,-0.095
438,-0.320,-0.090
439,-0.320,-0.080
440,-0.305,-0.105
441,-0.290,-0.110
442,-0.310,-0.070
443,-0.285,-0.095
444,-0.275,-0.080
445,-0.265,-0.070
446,-0.260,-0.075
447,-0.255,-0.090
448,-0.240,-0.085
449,-0.225,-0.105
450,-0.195,-0.085
451,-0.200,-0.080
452,-0.145,-0.085
453,-0.115,-0.095
454,-0.070,-0.085
455,-0.025,-0.095
456,0.000,-0.115
457,0.070,-0.120
458,0.125,-0.120
459,0.150,-0.140
460,0.160,-0.145
461,0.170,-0.135
462,0.150,-0.140
463,0.130,-0.130
464,0.085,-0.130
465,0.045,-0.100
466,-0.020,-0.110
467,-0.085,-0.105
468,-0.155,-0.075
469,-0.175,-0.085
470,-0.175,-0.100
471,-0.235,-0.110
472,-0.230,-0.095
473,-0.245,-0.080
474,-0.275,-0.075
475,-0.280,-0.080
476,-0.260,-0.075
477,-0.285,-0.090
478,-0.285,-0.085
479,-0.290,-0.075
480,-0.280,-0.080
481,-0.285,-0.065
482,-0.295,-0.060
483,-0.280,-0.050
484,-0.280,-0.045
485,-0.315,-0.060
486,-0.285,-0.040
487,-0.295,-0.045
488,-0.290,-0.050
489,-0.275,-0.050
490,-0.265,-0.030
491,-0.250,-0.040
492,-0.270,-0.045
493,-0.260,-0.035
494,-0.245,-0.040
495,-0.220,-0.030
496,-0.220,0.015
497,-0.195,0.000
498,-0.135,0.000
499,-0.105,0.015
500,-0.105,-0.005
501,-0.075,-0.035
502,-0.050,-0.060
503,-0.090,-0.105
504,-0.160,-0.100
505,-0.205,-0.075
506,-0.220,-0.085
507,-0.265,-0.095
508,-0.280,-0.105
509,-0.285,-0.115
510,-0.275,-0.110
511,-0.285,-0.100
512,-0.290,-0.100
513,-0.315,-0.115
514,-0.305,-0.110
515,-0.305,-0.115
516,-0.305,-0.080
517,-0.325,-0.080
518,-0.315,-0.105
519,-0.295,-0.105
520,-0.305,-0.075
521,-0.315,-0.125
522,-0.395,-0.125
523,-0.465,-0.145
524,-0.360,-0.240
525,0.175,-0.460
526,0.865,-0.530
527,0.760,-0.100
528,-0.280,0.355
529,-1.020,0.500
530,-0.940,-0.090
531,-0.590,-0.305
532,-0.375,-0.260
533,-0.310,-0.140
534,-0.315,-0.095
535,-0.325,-0.070
536,-0.290,-0.080
537,-0.300,-0.095
538,-0.280,-0.075
539,-0.290,-0.080
540,-0.285,-0.080
541,-0.275,-0.075
542,-0.280,-0.095
543,-0.275,-0.085
544,-0.270,-0.100
545,-0.270,-0.105
546,-0.245,-0.110
547,-0.240,-0.105
548,-0.225,-0.125
549,-0.210,-0.115
550,-0.185,-0.115
551,-0.150,-0.135
552,-0.120,-0.145
553,-0.065,-0.150
554,-0.015,-0.165
555,0.030,-0.190
556,0.095,-0.195
557,0.105,-0.215
558,0.150,-0.225
559,0.145,-0.225
560,0.125,-0.235
561,0.110,-0.215
562,0.065,-0.205
563,-0.005,-0.180
564,-0.065,-0.180
565,-0.125,-0.160
566,-0.180,-0.125
567,-0.200,-0.125
568,-0.245,-0.100
569,-0.275,-0.115
570,-0.295,-0.135
571,-0.305,-0.100
572,-0.325,-0.115
573,-0.315,-0.125
574,-0.340,-0.095
575,-0.360,-0.095
576,-0.355,-0.105
577,-0.365,-0.090
578,-0.355,-0.105
579,-0.370,-0.115
580,-0.370,-0.110
581,-0.370,-0.105
582,-0.375,-0.085
583,-0.370,-0.085
584,-0.355,-0.100
585,-0.385,-0.105
586,-0.340,-0.100
587,-0.340,-0.110
588,-0.335,-0.105
589,-0.340,-0.100
590,-0.330,-0.090
591,-0.320,-0.115
592,-0.325,-0.085
593,-0.315,-0.090
594,-0.305,-0.080
595,-0.285,-0.050
596,-0.300,-0.035
597,-0.230,-0.045
598,-0.190,-0.020
599,-0.180,-0.065
600,-0.155,-0.090
601,-0.155,-0.105
602,-0.145,-0.125
603,-0.205,-0.150
604,-0.280,-0.100
605,-0.300,-0.120
606,-0.320,-0.120
607,-0.355,-0.130
608,-0.360,-0.140
609,-0.345,-0.140
610,-0.370,-0.125
611,-0.350,-0.125
612,-0.355,-0.145
613,-0.350,-0.115
614,-0.360,-0.120
615,-0.365,-0.125
616,-0.350,-0.105
617,-0.370,-0.090
618,-0.375,-0.095
619,-0.340,-0.085
620,-0.365,-0.110
621,-0.435,-0.080
622,-0.535,-0.085
623,-0.510,-0.135
624,-0.070,-0.365
625,0.705,-0.495
626,0.975,-0.135
627,0.005,0.395
628,-0.995,0.595
629,-1.035,0.045
630,-0.670,-0.245
631,-0.440,-0.215
632,-0.400,-0.115
633,-0.375,-0.070
634,-0.370,-0.060
635,-0.360,-0.080
636,-0.340,-0.075
637,-0.350,-0.065
638,-0.335,-0.025
639,-0.300,-0.080
640,-0.330,-0.050
641,-0.315,-0.040
642,-0.325,-0.045
643,-0.300,-0.045
644,-0.305,-0.040
645,-0.285,-0.030
646,-0.270,-0.030
647,-0.255,-0.040
648,-0.225,-0.055
649,-0.200,-0.065
650,-0.165,-0.060
651,-0.120,-0.055
652,-0.070,-0.075
653,-0.010,-0.090
654,0.020,-0.100
655,0.065,-0.105
656,0.100,-0.120
657,0.120,-0.115
658,0.110,-0.120
659,0.090,-0.090
660,0.020,-0.095
661,-0.020,-0.085
662,-0.065,-0.080
663,-0.145,-0.065
664,-0.200,-0.090
665,-0.220,-0.060
666,-0.245,-0.055
667,-0.285,-0.050
668,-0.295,-0.050
669,-0.315,-0.035
670,-0.325,-0.055
671,-0.320,-0.055
672,-0.340,-0.045
673,-0.350,-0.050
674,-0.360,-0.060
675,-0.355,-0.030
676,-0.360,-0.055
677,-0.375,-0.050
678,-0.375,-0.055
679,-0.355,-0.050
680,-0.370,-0.050
681,-0.375,-0.025
682,-0.395,-0.015
683,-0.400,-0.030
684,-0.395,-0.025
685,-0.390,-0.025
686,-0.390,-0.035
687,-0.390,-0.035
688,-0.370,-0.035
689,-0.375,-0.050
690,-0.340,-0.005
691,-0.330,0.010
692,-0.315,0.025
693,-0.225,0.025
694,-0.200,0.005
695,-0.210,-0.020
696,-0.190,-0.035
697,-0.175,-0.070
698,-0.230,-0.085
699,-0.295,-0.075
700,-0.330,-0.060
701,-0.375,-0.075
702,-0.395,-0.100
703,-0.390,-0.075
704,-0.395,-0.090
705,-0.390,-0.075
706,-0.400,-0.070
707,-0.400,-0.085
708,-0.405,-0.080
709,-0.395,-0.075
710,-0.410,-0.070
711,-0.415,-0.060
712,-0.405,-0.070
713,-0.415,-0.070
714,-0.415,-0.075
715,-0.425,-0.070
716,-0.485,-0.060
717,-0.585,-0.090
718,-0.560,-0.145
719,-0.190,-0.355
720,0.570,-0.495
721,0.785,-0.070
722,-0.350,0.545
723,-1.185,0.560
724,-0.940,-0.060
725,-0.585,-0.185
726,-0.440,-0.170
727,-0.430,-0.030
728,-0.430,-0.045
729,-0.400,-0.025
730,-0.395,-0.015
731,-0.405,-0.010
732,-0.375,-0.040
733,-0.385,-0.015
734,-0.380,-0.030
735,-0.370,-0.015
736,-0.380,-0.010
737,-0.360,-0.005
738,-0.340,0.000
739,-0.315,0.000
740,-0.300,-0.015
741,-0.310,-0.010
742,-0.260,-0.020
743,-0.245,-0.010
744,-0.205,-0.010
745,-0.175,-0.015
746,-0.140,-0.010
747,-0.045,-0.015
748,-0.010,-0.035
749,0.025,-0.060
750,0.060,-0.045
751,0.095,-0.055
752,0.100,-0.065
753,0.055,-0.055
754,0.005,-0.050
755,-0.025,-0.045
756,-0.100,-0.045
757,-0.145,-0.030
758,-0.185,-0.035
759,-0.240,-0.025
760,-0.275,-0.010
761,-0.310,-0.020
762,-0.340,-0.020
763,-0.340,-0.005
764,-0.370,0.000
765,-0.375,0.000
766,-0.375,0.000
767,-0.380,-0.020
768,-0.380,-0.050
769,-0.390,-0.045
770,-0.410,-0.010
771,-0.395,-0.010
772,-0.405,-0.015
773,-0.420,-0.005
774,-0.385,0.015
775,-0.400,-0.005
776,-0.405,-0.005
777,-0.380,0.000
778,-0.395,0.000
779,-0.385,-0.005
780,-0.370,-0.005
781,-0.385,-0.005
782,-0.375,0.000
783,-0.365,-0.010
784,-0.325,-0.010
785,-0.335,0.035
786,-0.320,0.035
787,-0.265,0.045
788,-0.215,0.035
789,-0.220,0.000
790,-0.190,0.000
791,-0.195,-0.040
792,-0.230,-0.065
793,-0.290,-0.060
794,-0.320,-0.060
795,-0.355,-0.055
796,-0.380,-0.040
797,-0.395,-0.050
798,-0.390,-0.080
799,-0.390,-0.060
800,-0.395,-0.050
801,-0.395,-0.065
802,-0.420,-0.065
803,-0.405,-0.065
804,-0.410,-0.090
805,-0.415,-0.080
806,-0.415,-0.060
807,-0.410,-0.055
808,-0.420,-0.085
809,-0.415,-0.075
810,-0.495,-0.075
811,-0.585,-0.100
812,-0.575,-0.175
813,-0.145,-0.345
814,0.655,-0.525
815,0.850,-0.180
816,-0.160,0.330
817,-1.080,0.535
818,-1.060,-0.020
819,-0.715,-0.265
820,-0.520,-0.240
821,-0.455,-0.125
822,-0.440,-0.065
823,-0.420,-0.070
824,-0.420,-0.070
825,-0.430,-0.075
826,-0.420,-0.070
827,-0.420,-0.070
828,-0.390,-0.070
829,-0.400,-0.055
830,-0.390,-0.055
831,-0.375,-0.075
832,-0.385,-0.085
833,-0.370,-0.085
834,-0.370,-0.075
835,-0.345,-0.075
836,-0.320,-0.070
837,-0.310,-0.095
838,-0.280,-0.060
839,-0.250,-0.085
840,-0.205,-0.110
841,-0.140,-0.130
842,-0.105,-0.140
843,-0.065,-0.160
844,-0.010,-0.160
845,0.005,-0.170
846,0.005,-0.180
847,-0.010,-0.170
848,-0.050,-0.135
849,-0.085,-0.160
850,-0.145,-0.130
851,-0.210,-0.155
852,-0.290,-0.140
853,-0.340,-0.105
854,-0.365,-0.040
855,-0.340,-0.005
856,-0.355,0.005
857,-0.370,0.050
858,-0.420,0.020
859,-0.450,-0.020
860,-0.470,-0.050
861,-0.475,-0.060
862,-0.460,-0.065
863,-0.485,-0.055
864,-0.485,-0.075
865,-0.480,-0.060
866,-0.480,-0.055
867,-0.490,-0.060
868,-0.485,-0.060
869,-0.485,-0.050
870,-0.495,-0.065
871,-0.485,-0.040
872,-0.470,-0.025
873,-0.460,-0.050
874,-0.445,-0.030
875,-0.450,-0.005
876,-0.425,-0.025
877,-0.435,-0.020
878,-0.435,-0.010
879,-0.410,-0.015
880,-0.435,-0.035
881,-0.495,-0.035
882,-0.470,-0.050
883,-0.160,-0.110
884,0.540,-0.310
885,1.030,-0.300
886,0.245,0.245
887,-1.000,0.640
888,-1.170,0.250
889,-0.730,-0.120
890,-0.480,-0.155
891,-0.450,-0.050
892,-0.440,0.000
893,-0.430,0.010
894,-0.430,-0.005
895,-0.430,-0.005
896,-0.450,-0.025
897,-0.425,-0.015
898,-0.420,-0.015
899,-0.425,0.000
900,-0.390,0.000
901,-0.395,-0.020
902,-0.390,-0.015
903,-0.380,-0.010
904,-0.365,0.000
905,-0.350,-0.010
906,-0.310,0.005
907,-0.285,0.000
908,-0.250,0.000
909,-0.205,-0.005
910,-0.155,0.000
911,-0.110,-0.020
912,-0.070,-0.020
913,-0.010,-0.020
914,0.000,-0.030
915,0.030,-0.040
916,0.030,-0.035
917,0.000,-0.025
918,-0.015,-0.045
919,-0.070,-0.045
920,-0.130,-0.030
921,-0.205,0.000
922,-0.250,-0.030
923,-0.295,-0.020
924,-0.350,-0.020
925,-0.395,-0.020
926,-0.420,-0.015
927,-0.435,-0.025
928,-0.430,-0.025
929,-0.415,-0.025
930,-0.430,-0.040
931,-0.435,-0.035
932,-0.415,-0.015
933,-0.425,-0.020
934,-0.410,-0.015
935,-0.425,-0.025
936,-0.410,-0.010
937,-0.400,-0.035
938,-0.400,-0.020
939,-0.395,-0.040
940,-0.385,-0.030
941,-0.380,-0.020
942,-0.410,-0.060
943,-0.415,-0.060
944,-0.400,-0.065
945,-0.415,-0.065
946,-0.435,-0.070
947,-0.420,-0.055
948,-0.450,-0.080
949,-0.440,-0.080
950,-0.440,-0.075
951,-0.455,-0.075
952,-0.440,-0.075
953,-0.445,-0.065
954,-0.455,-0.070
955,-0.440,-0.050
956,-0.435,-0.085
957,-0.455,-0.070
958,-0.460,-0.060
959,-0.450,-0.060
960,-0.440,-0.070
961,-0.415,-0.050
962,-0.405,0.000
963,-0.390,0.005
964,-0.350,-0.015
965,-0.295,0.000
966,-0.315,-0.010
967,-0.295,-0.050
968,-0.265,-0.085
969,-0.285,-0.090
970,-0.315,-0.120
971,-0.395,-0.095
972,-0.420,-0.080
973,-0.450,-0.085
974,-0.440,-0.080
975,-0.455,-0.090
976,-0.470,-0.090
977,-0.450,-0.105
978,-0.460,-0.075
979,-0.465,-0.100
980,-0.455,-0.100
981,-0.445,-0.080
982,-0.445,-0.090
983,-0.450,-0.075
984,-0.450,-0.075
985,-0.450,-0.085
986,-0.460,-0.095
987,-0.465,-0.085
988,-0.485,-0.100
989,-0.575,-0.105
990,-0.625,-0.130
991,-0.520,-0.240
992,-0.020,-0.465
993,0.655,-0.545
994,0.630,-0.090
995,-0.355,0.395
996,-1.120,0.500
997,-1.035,-0.055
998,-0.705,-0.270
999,-0.530,-0.235
1000,-0.470,-0.135
1001,-0.450,-0.085
1002,-0.450,-0.075
1003,-0.425,-0.055
1004,-0.440,-0.045
1005,-0.420,-0.035
1006,-0.405,-0.050
1007,-0.395,-0.045
1008,-0.395,-0.050
1009,-0.385,-0.035
1010,-0.370,-0.040
1011,-0.395,-0.040
1012,-0.375,-0.040
1013,-0.370,-0.040
1014,-0.355,-0.070
1015,-0.330,-0.065
1016,-0.315,-0.070
1017,-0.300,-0.065
1018,-0.270,-0.080
1019,-0.240,-0.100
1020,-0.205,-0.100
1021,-0.145,-0.105
1022,-0.090,-0.115
1023,-0.055,-0.110
1024,-0.055,-0.140
1025,0.000,-0.150
1026,0.000,-0.135
1027,0.000,-0.130
1028,-0.005,-0.130
1029,-0.030,-0.135
1030,-0.095,-0.130
1031,-0.145,-0.150
1032,-0.190,-0.140
1033,-0.255,-0.145
1034,-0.295,-0.135
1035,-0.330,-0.105
1036,-0.335,-0.055
1037,-0.365,-0.055
1038,-0.370,-0.035
1039,-0.350,0.045
1040,-0.365,0.035
1041,-0.385,-0.040
1042,-0.400,-0.070
1043,-0.385,-0.080
1044,-0.410,-0.070
1045,-0.410,-0.085
1046,-0.410,-0.065
1047,-0.415,-0.085
1048,-0.415,-0.090
1049,-0.415,-0.060
1050,-0.410,-0.080
1051,-0.420,-0.075
1052,-0.420,-0.075
1053,-0.420,-0.080
1054,-0.420,-0.070
1055,-0.440,-0.065
1056,-0.405,-0.075
1057,-0.395,-0.070
1058,-0.385,-0.090
1059,-0.390,-0.085
1060,-0.380,-0.090
1061,-0.380,-0.085
1062,-0.375,-0.085
1063,-0.415,-0.100
1064,-0.475,-0.120
1065,-0.425,-0.150
1066,-0.050,-0.235
1067,0.635,-0.445
1068,1.015,-0.440
1069,-0.010,0.125
1070,-1.115,0.520
1071,-1.125,0.100
1072,-0.695,-0.210
1073,-0.465,-0.245
1074,-0.420,-0.165
1075,-0.435,-0.110
1076,-0.425,-0.095
1077,-0.430,-0.105
1078,-0.410,-0.105
1079,-0.405,-0.110
1080,-0.395,-0.110
1081,-0.385,-0.095
1082,-0.385,-0.100
1083,-0.365,-0.100
1084,-0.365,-0.085
1085,-0.340,-0.085
1086,-0.340,-0.095
1087,-0.320,-0.100
1088,-0.310,-0.095
1089,-0.270,-0.105
1090,-0.235,-0.070
1091,-0.210,-0.090
1092,-0.155,-0.095
1093,-0.085,-0.115
1094,-0.040,-0.125
1095,0.000,-0.115
1096,0.025,-0.125
1097,0.060,-0.135
1098,0.070,-0.145
1099,0.050,-0.145
1100,0.015,-0.135
1101,-0.015,-0.145
1102,-0.085,-0.130
1103,-0.165,-0.105
1104,-0.205,-0.105
1105,-0.280,-0.100
1106,-0.315,-0.105
1107,-0.355,-0.095
1108,-0.380,-0.100
1109,-0.410,-0.095
1110,-0.400,-0.115
1111,-0.410,-0.085
1112,-0.420,-0.090
1113,-0.410,-0.100
1114,-0.415,-0.115
1115,-0.405,-0.105
1116,-0.400,-0.095
1117,-0.385,-0.105
1118,-0.380,-0.105
1119,-0.380,-0.100
1120,-0.370,-0.115
1121,-0.375,-0.085
1122,-0.375,-0.095
1123,-0.375,-0.090
1124,-0.375,-0.110
1125,-0.365,-0.105
1126,-0.380,-0.115
1127,-0.380,-0.090
1128,-0.370,-0.060
1129,-0.375,-0.080
1130,-0.380,-0.110
1131,-0.390,-0.080
1132,-0.385,-0.100
1133,-0.380,-0.085
1134,-0.385,-0.080
1135,-0.375,-0.085
1136,-0.380,-0.080
1137,-0.380,-0.065
1138,-0.355,-0.085
1139,-0.350,-0.090
1140,-0.365,-0.075
1141,-0.360,-0.090
1142,-0.370,-0.085
1143,-0.350,-0.035
1144,-0.320,-0.020
1145,-0.300,-0.025
1146,-0.235,-0.020
1147,-0.215,-0.040
1148,-0.210,-0.060
1149,-0.185,-0.095
1150,-0.200,-0.120
1151,-0.225,-0.145
1152,-0.305,-0.100
1153,-0.320,-0.090
1154,-0.365,-0.130
1155,-0.375,-0.110
1156,-0.370,-0.115
1157,-0.390,-0.140
1158,-0.380,-0.135
1159,-0.385,-0.115
1160,-0.395,-0.125
1161,-0.385,-0.115
1162,-0.380,-0.105
1163,-0.400,-0.110
1164,-0.375,-0.110
1165,-0.395,-0.135
1166,-0.405,-0.120
1167,-0.400,-0.135
1168,-0.400,-0.120
1169,-0.520,-0.150
1170,-0.600,-0.140
1171,-0.525,-0.230
1172,0.025,-0.430
1173,0.840,-0.530
1174,0.840,-0.045
1175,-0.415,0.450
1176,-1.140,0.385
1177,-0.895,-0.195
1178,-0.570,-0.290
1179,-0.440,-0.230
1180,-0.430,-0.085
1181,-0.405,-0.080
1182,-0.375,-0.090
1183,-0.365,-0.090
1184,-0.385,-0.090
1185,-0.370,-0.070
1186,-0.375,-0.090
1187,-0.360,-0.060
1188,-0.335,-0.080
1189,-0.345,-0.075
1190,-0.335,-0.080
1191,-0.330,-0.100
1192,-0.320,-0.090
1193,-0.325,-0.100
1194,-0.275,-0.095
1195,-0.285,-0.120
1196,-0.270,-0.090
1197,-0.230,-0.090
1198,-0.195,-0.105
1199,-0.155,-0.110
1200,-0.125,-0.115
1201,-0.085,-0.130
1202,-0.040,-0.135
1203,0.000,-0.140
1204,0.020,-0.130
1205,0.015,-0.125
1206,0.005,-0.150
1207,-0.005,-0.140
1208,-0.050,-0.135
1209,-0.100,-0.115
1210,-0.150,-0.120
1211,-0.195,-0.105
1212,-0.240,-0.095
1213,-0.275,-0.060
1214,-0.315,-0.100
1215,-0.340,-0.080
1216,-0.345,-0.080
1217,-0.355,-0.095
1218,-0.405,-0.095
1219,-0.380,-0.105
1220,-0.390,-0.060
1221,-0.415,-0.060
1222,-0.400,-0.070
1223,-0.430,-0.070
1224,-0.410,-0.070
1225,-0.430,-0.060
1226,-0.430,-0.080
1227,-0.415,-0.060
1228,-0.395,-0.050
1229,-0.390,-0.070
1230,-0.415,-0.050
1231,-0.410,-0.060
1232,-0.395,-0.055
1233,-0.375,-0.060
1234,-0.360,-0.065
1235,-0.360,-0.060
1236,-0.365,-0.050
1237,-0.340,-0.095
1238,-0.320,-0.075
1239,-0.315,-0.060
1240,-0.295,-0.060
1241,-0.310,-0.020
1242,-0.270,-0.020
1243,-0.185,-0.020
1244,-0.175,-0.030
1245,-0.170,-0.055
1246,-0.145,-0.085
1247,-0.135,-0.115
1248,-0.205,-0.130
1249,-0.255,-0.110
1250,-0.275,-0.105
1251,-0.310,-0.110
1252,-0.315,-0.125
1253,-0.325,-0.120
1254,-0.305,-0.105
1255,-0.315,-0.120
1256,-0.340,-0.115
1257,-0.335,-0.120
1258,-0.335,-0.120
1259,-0.360,-0.105
1260,-0.330,-0.120
1261,-0.345,-0.115
1262,-0.345,-0.100
1263,-0.345,-0.105
1264,-0.340,-0.095
1265,-0.350,-0.100
1266,-0.425,-0.110
1267,-0.490,-0.115
1268,-0.430,-0.190
1269,0.070,-0.405
1270,0.785,-0.540
1271,0.740,-0.110
1272,-0.310,0.365
1273,-1.020,0.470
1274,-0.895,-0.090
1275,-0.550,-0.290
1276,-0.365,-0.240
1277,-0.320,-0.100
1278,-0.295,-0.085
1279,-0.275,-0.085
1280,-0.285,-0.080
1281,-0.265,-0.080
1282,-0.270,-0.085
1283,-0.270,-0.090
1284,-0.275,-0.105
1285,-0.260,-0.085
1286,-0.245,-0.070
1287,-0.240,-0.090
1288,-0.245,-0.095
1289,-0.205,-0.115
1290,-0.195,-0.090
1291,-0.205,-0.085
1292,-0.170,-0.100
1293,-0.120,-0.125
1294,-0.105,-0.125
1295,-0.070,-0.140
1296,0.000,-0.135
1297,0.040,-0.125
1298,0.090,-0.150
1299,0.110,-0.175
1300,0.145,-0.185
1301,0.170,-0.195
1302,0.170,-0.195
1303,0.140,-0.170
1304,0.080,-0.195
1305,0.040,-0.190
1306,-0.015,-0.140
1307,-0.075,-0.125
1308,-0.125,-0.120
1309,-0.175,-0.120
1310,-0.180,-0.100
1311,-0.210,-0.095
1312,-0.235,-0.100
1313,-0.250,-0.110
1314,-0.265,-0.090
1315,-0.260,-0.080
1316,-0.280,-0.090
1317,-0.300,-0.090
1318,-0.280,-0.115
1319,-0.290,-0.090
1320,-0.305,-0.110
1321,-0.320,-0.090
1322,-0.295,-0.100
1323,-0.295,-0.100
1324,-0.325,-0.110
1325,-0.275,-0.115
1326,-0.275,-0.120
1327,-0.265,-0.120
1328,-0.260,-0.130
1329,-0.245,-0.105
1330,-0.275,-0.135
1331,-0.265,-0.140
1332,-0.240,-0.130
1333,-0.240,-0.135
1334,-0.260,-0.145
1335,-0.250,-0.150
1336,-0.225,-0.120
1337,-0.225,-0.095
1338,-0.195,-0.080
1339,-0.115,-0.075
1340,-0.095,-0.090
1341,-0.100,-0.120
1342,-0.070,-0.140
1343,-0.090,-0.155
1344,-0.150,-0.185
1345,-0.205,-0.170
1346,-0.235,-0.160
1347,-0.235,-0.180
1348,-0.260,-0.195
1349,-0.260,-0.180
1350,-0.285,-0.190
1351,-0.280,-0.185
1352,-0.280,-0.195
1353,-0.270,-0.175
1354,-0.285,-0.185
1355,-0.290,-0.200
1356,-0.285,-0.190
1357,-0.270,-0.180
1358,-0.280,-0.180
1359,-0.305,-0.180
1360,-0.305,-0.185
1361,-0.355,-0.190
1362,-0.450,-0.205
1363,-0.485,-0.220
1364,-0.185,-0.360
1365,0.555,-0.565
1366,1.110,-0.425
1367,0.415,0.090
1368,-0.740,0.375
1369,-1.035,0.170
1370,-0.770,-0.310
1371,-0.470,-0.370
1372,-0.360,-0.280
1373,-0.340,-0.195
1374,-0.325,-0.190
1375,-0.320,-0.170
1376,-0.320,-0.185
1377,-0.320,-0.180
1378,-0.290,-0.165
1379,-0.295,-0.185
1380,-0.285,-0.200
1381,-0.280,-0.175
1382,-0.265,-0.185
1383,-0.260,-0.185
1384,-0.240,-0.160
1385,-0.235,-0.180
1386,-0.220,-0.175
1387,-0.225,-0.175
1388,-0.180,-0.180
1389,-0.150,-0.195
1390,-0.110,-0.170
1391,-0.075,-0.195
1392,-0.040,-0.195
1393,0.035,-0.230
1394,0.085,-0.225
1395,0.125,-0.210
1396,0.155,-0.230
1397,0.165,-0.245
1398,0.170,-0.230
1399,0.150,-0.220
1400,0.110,-0.230
1401,0.045,-0.195
1402,-0.005,-0.205
1403,-0.090,-0.190
1404,-0.130,-0.155
1405,-0.135,-0.170
1406,-0.195,-0.150
1407,-0.220,-0.150
1408,-0.245,-0.140
1409,-0.265,-0.155
1410,-0.270,-0.125
1411,-0.280,-0.135
1412,-0.285,-0.150
1413,-0.300,-0.135
1414,-0.285,-0.130
1415,-0.290,-0.135
1416,-0.295,-0.130
1417,-0.290,-0.130
1418,-0.300,-0.115
1419,-0.305,-0.130
1420,-0.300,-0.140
1421,-0.310,-0.125
1422,-0.290,-0.110
1423,-0.285,-0.135
1424,-0.295,-0.130
1425,-0.270,-0.130
1426,-0.250,-0.115
1427,-0.260,-0.135
1428,-0.260,-0.120
1429,-0.235,-0.130
1430,-0.250,-0.135
1431,-0.225,-0.140
1432,-0.200,-0.095
1433,-0.205,-0.090
1434,-0.170,-0.075
1435,-0.115,-0.085
1436,-0.100,-0.090
1437,-0.095,-0.125
1438,-0.075,-0.145
1439,-0.050,-0.175
1440,-0.100,-0.210
1441,-0.170,-0.210
1442,-0.195,-0.180
1443,-0.225,-0.165
1444,-0.250,-0.190
1445,-0.235,-0.200
1446,-0.265,-0.175
1447,-0.270,-0.195
1448,-0.275,-0.200
1449,-0.275,-0.190
1450,-0.275,-0.205
1451,-0.275,-0.200
1452,-0.270,-0.190
1453,-0.290,-0.200
1454,-0.300,-0.200
1455,-0.310,-0.200
1456,-0.315,-0.195
1457,-0.310,-0.210
1458,-0.355,-0.175
1459,-0.465,-0.215
1460,-0.500,-0.230
1461,-0.265,-0.335
1462,0.395,-0.550
1463,1.005,-0.515
1464,0.565,-0.050
1465,-0.575,0.340
1466,-1.065,0.280
1467,-0.830,-0.260
1468,-0.495,-0.385
1469,-0.350,-0.325
1470,-0.320,-0.175
1471,-0.330,-0.165
1472,-0.315,-0.205
1473,-0.300,-0.180
1474,-0.285,-0.200
1475,-0.275,-0.210
1476,-0.295,-0.180
1477,-0.280,-0.175
1478,-0.260,-0.185
1479,-0.265,-0.175
1480,-0.250,-0.190
1481,-0.245,-0.180
1482,-0.230,-0.155
1483,-0.225,-0.175
1484,-0.200,-0.185
1485,-0.190,-0.180
1486,-0.175,-0.190
1487,-0.150,-0.195
1488,-0.120,-0.200
1489,-0.075,-0.205
1490,-0.035,-0.190
1491,0.025,-0.210
1492,0.075,-0.230
1493,0.135,-0.225
1494,0.145,-0.240
1495,0.175,-0.250
1496,0.175,-0.245
1497,0.175,-0.250
1498,0.130,-0.210
1499,0.095,-0.230
1500,0.035,-0.230
1501,-0.020,-0.190
1502,-0.065,-0.215
1503,-0.120,-0.210
1504,-0.175,-0.195
1505,-0.200,-0.180
1506,-0.225,-0.190
1507,-0.250,-0.185
1508,-0.275,-0.155
1509,-0.260,-0.165
1510,-0.265,-0.155
1511,-0.300,-0.175
1512,-0.285,-0.160
1513,-0.295,-0.155
1514,-0.280,-0.170
1515,-0.285,-0.125
1516,-0.295,-0.150
1517,-0.305,-0.135
1518,-0.310,-0.135
1519,-0.300,-0.135
1520,-0.290,-0.140
1521,-0.295,-0.125
1522,-0.295,-0.115
1523,-0.275,-0.130
1524,-0.290,-0.120
1525,-0.300,-0.125
1526,-0.290,-0.105
1527,-0.290,-0.095
1528,-0.265,-0.100
1529,-0.240,-0.090
1530,-0.230,-0.055
1531,-0.215,-0.035
1532,-0.175,-0.040
1533,-0.120,-0.025
1534,-0.115,-0.075
1535,-0.095,-0.110
1536,-0.065,-0.145
1537,-0.070,-0.150
1538,-0.135,-0.175
1539,-0.190,-0.135
1540,-0.215,-0.135
1541,-0.245,-0.135
1542,-0.275,-0.155
1543,-0.280,-0.165
1544,-0.275,-0.165
1545,-0.290,-0.170
1546,-0.295,-0.165
1547,-0.290,-0.155
1548,-0.295,-0.160
1549,-0.300,-0.170
1550,-0.305,-0.155
1551,-0.295,-0.165
1552,-0.295,-0.155
1553,-0.310,-0.160
1554,-0.300,-0.160
1555,-0.310,-0.150
1556,-0.325,-0.155
1557,-0.445,-0.155
1558,-0.495,-0.190
1559,-0.320,-0.255
1560,0.295,-0.475
1561,1.000,-0.525
1562,0.700,-0.055
1563,-0.415,0.380
1564,-1.065,0.435
1565,-0.890,-0.135
1566,-0.535,-0.335
1567,-0.355,-0.280
1568,-0.325,-0.180
1569,-0.310,-0.155
1570,-0.305,-0.155
1571,-0.295,-0.125
1572,-0.285,-0.140
1573,-0.275,-0.140
1574,-0.285,-0.130
1575,-0.280,-0.145
1576,-0.270,-0.130
1577,-0.260,-0.150
1578,-0.255,-0.135
1579,-0.255,-0.145
1580,-0.240,-0.130
1581,-0.220,-0.120
1582,-0.220,-0.140
1583,-0.205,-0.120
1584,-0.180,-0.140
1585,-0.160,-0.130
1586,-0.130,-0.135
1587,-0.110,-0.145
1588,-0.060,-0.160
1589,-0.005,-0.175
1590,0.040,-0.190
1591,0.105,-0.205
1592,0.145,-0.225
1593,0.155,-0.210
1594,0.165,-0.225
1595,0.160,-0.210
1596,0.135,-0.220
1597,0.085,-0.200
1598,0.010,-0.210
1599,-0.025,-0.195
1600,-0.085,-0.170
1601,-0.130,-0.155
1602,-0.170,-0.160
1603,-0.225,-0.150
1604,-0.255,-0.155
1605,-0.285,-0.165
1606,-0.295,-0.160
1607,-0.315,-0.170
1608,-0.305,-0.150
1609,-0.315,-0.165
1610,-0.320,-0.140
1611,-0.325,-0.135
1612,-0.340,-0.160
1613,-0.340,-0.145
1614,-0.345,-0.130
1615,-0.350,-0.125
1616,-0.355,-0.115
1617,-0.360,-0.140
1618,-0.370,-0.130
1619,-0.355,-0.135
1620,-0.360,-0.125
1621,-0.330,-0.135
1622,-0.330,-0.100
1623,-0.330,-0.135
1624,-0.325,-0.100
1625,-0.325,-0.105
1626,-0.290,-0.085
1627,-0.275,-0.060
1628,-0.270,-0.030
1629,-0.195,-0.050
1630,-0.150,-0.045
1631,-0.170,-0.095
1632,-0.150,-0.120
1633,-0.120,-0.145
1634,-0.140,-0.175
1635,-0.225,-0.165
1636,-0.260,-0.160
1637,-0.265,-0.145
1638,-0.315,-0.150
1639,-0.315,-0.160
1640,-0.320,-0.140
1641,-0.340,-0.175
1642,-0.330,-0.165
1643,-0.335,-0.175
1644,-0.330,-0.175
1645,-0.330,-0.170
1646,-0.320,-0.160
1647,-0.335,-0.170
1648,-0.340,-0.160
1649,-0.335,-0.150
1650,-0.350,-0.150
1651,-0.345,-0.155
1652,-0.390,-0.165
1653,-0.490,-0.155
1654,-0.515,-0.170
1655,-0.265,-0.270
1656,0.420,-0.495
1657,1.030,-0.440
1658,0.470,0.090
1659,-0.740,0.510
1660,-1.090,0.260
1661,-0.755,-0.225
1662,-0.440,-0.300
1663,-0.355,-0.210
1664,-0.360,-0.125
1665,-0.360,-0.120
1666,-0.350,-0.130
1667,-0.325,-0.115
1668,-0.325,-0.105
1669,-0.330,-0.115
1670,-0.320,-0.125
1671,-0.305,-0.105
1672,-0.290,-0.120
1673,-0.295,-0.110
1674,-0.285,-0.125
1675,-0.270,-0.125
1676,-0.255,-0.125
1677,-0.245,-0.115
1678,-0.240,-0.090
1679,-0.210,-0.100
1680,-0.185,-0.105
1681,-0.150,-0.105
1682,-0.115,-0.125
1683,-0.065,-0.110
1684,-0.005,-0.120
1685,0.035,-0.150
1686,0.095,-0.135
1687,0.135,-0.150
1688,0.150,-0.160
1689,0.135,-0.170
1690,0.105,-0.155
1691,0.095,-0.160
1692,0.005,-0.130
1693,-0.055,-0.110
1694,-0.100,-0.130
1695,-0.180,-0.140
1696,-0.235,-0.135
1697,-0.255,-0.120
1698,-0.290,-0.140
1699,-0.300,-0.135
1700,-0.325,-0.120
1701,-0.345,-0.120
1702,-0.335,-0.140
1703,-0.325,-0.155
1704,-0.370,-0.135
1705,-0.345,-0.140
1706,-0.360,-0.140
1707,-0.345,-0.120
1708,-0.360,-0.140
1709,-0.370,-0.105
1710,-0.400,-0.110
1711,-0.370,-0.115
1712,-0.410,-0.100
1713,-0.395,-0.100
1714,-0.390,-0.105
1715,-0.385,-0.105
1716,-0.390,-0.110
1717,-0.390,-0.125
1718,-0.410,-0.110
1719,-0.370,-0.120
1720,-0.335,-0.095
1721,-0.350,-0.055
1722,-0.315,-0.035
1723,-0.245,-0.075
1724,-0.220,-0.075
1725,-0.225,-0.060
1726,-0.210,-0.110
1727,-0.195,-0.175
1728,-0.255,-0.160
1729,-0.335,-0.155
1730,-0.330,-0.135
1731,-0.340,-0.115
1732,-0.395,-0.140
1733,-0.370,-0.125
1734,-0.410,-0.150
1735,-0.405,-0.155
1736,-0.390,-0.135
1737,-0.410,-0.130
1738,-0.420,-0.145
1739,-0.395,-0.140
1740,-0.405,-0.125
1741,-0.410,-0.160
1742,-0.410,-0.145
1743,-0.380,-0.145
1744,-0.410,-0.130
1745,-0.450,-0.165
1746,-0.540,-0.185
1747,-0.555,-0.175
1748,-0.290,-0.305
1749,0.395,-0.590
1750,0.865,-0.455
1751,0.105,0.140
1752,-0.985,0.500
1753,-1.050,0.085
1754,-0.720,-0.280
1755,-0.460,-0.325
1756,-0.395,-0.175
1757,-0.370,-0.130
1758,-0.360,-0.115
1759,-0.345,-0.135
1760,-0.335,-0.125
1761,-0.355,-0.130
1762,-0.315,-0.140
1763,-0.335,-0.135
1764,-0.330,-0.130
1765,-0.295,-0.120
1766,-0.290,-0.115
1767,-0.285,-0.125
1768,-0.305,-0.125
1769,-0.285,-0.155
1770,-0.275,-0.130
1771,-0.240,-0.130
1772,-0.225,-0.150
1773,-0.190,-0.140
1774,-0.140,-0.160
1775,-0.115,-0.165
1776,-0.060,-0.150
1777,0.005,-0.185
1778,0.055,-0.190
1779,0.095,-0.185
1780,0.120,-0.200
1781,0.125,-0.210
1782,0.125,-0.190
1783,0.090,-0.175
1784,0.050,-0.180
1785,-0.015,-0.160
1786,-0.080,-0.145
1787,-0.130,-0.140
1788,-0.180,-0.135
1789,-0.230,-0.135
1790,-0.240,-0.120
1791,-0.280,-0.150
1792,-0.295,-0.130
1793,-0.310,-0.125
1794,-0.320,-0.100
1795,-0.315,-0.115
1796,-0.330,-0.125
1797,-0.350,-0.110
1798,-0.360,-0.115
1799,-0.350,-0.135
1800,-0.355,-0.120
1801,-0.350,-0.100
1802,-0.370,-0.105
1803,-0.365,-0.110
1804,-0.325,-0.120
1805,-0.350,-0.110
1806,-0.345,-0.115
1807,-0.345,-0.105
1808,-0.315,-0.100
1809,-0.315,-0.120
1810,-0.335,-0.100
1811,-0.330,-0.105
1812,-0.320,-0.125
1813,-0.320,-0.110
1814,-0.310,-0.065
1815,-0.275,-0.065
1816,-0.245,-0.045
1817,-0.215,-0.030
1818,-0.180,-0.055
1819,-0.190,-0.095
1820,-0.155,-0.110
1821,-0.155,-0.140
1822,-0.200,-0.150
1823,-0.255,-0.130
1824,-0.300,-0.130
1825,-0.320,-0.130
1826,-0.330,-0.140
1827,-0.350,-0.150
1828,-0.340,-0.155
1829,-0.350,-0.155
1830,-0.345,-0.165
1831,-0.345,-0.145
1832,-0.360,-0.155
1833,-0.335,-0.135
1834,-0.350,-0.155
1835,-0.360,-0.145
1836,-0.355,-0.160
1837,-0.375,-0.125
1838,-0.380,-0.150
1839,-0.435,-0.160
1840,-0.540,-0.165
1841,-0.540,-0.205
1842,-0.165,-0.355
1843,0.560,-0.540
1844,0.945,-0.355
1845,0.085,0.165
1846,-0.985,0.465
1847,-1.090,0.060
1848,-0.760,-0.300
1849,-0.475,-0.275
1850,-0.425,-0.210
1851,-0.400,-0.140
1852,-0.400,-0.155
1853,-0.395,-0.145
1854,-0.380,-0.155
1855,-0.370,-0.135
1856,-0.365,-0.145
1857,-0.355,-0.140
1858,-0.355,-0.140
1859,-0.360,-0.135
1860,-0.340,-0.120
1861,-0.355,-0.130
1862,-0.320,-0.140
1863,-0.330,-0.125
1864,-0.305,-0.145
1865,-0.285,-0.135
1866,-0.275,-0.145
1867,-0.235,-0.155
1868,-0.205,-0.160
1869,-0.165,-0.170
1870,-0.110,-0.165
1871,-0.045,-0.190
1872,0.005,-0.205
1873,0.030,-0.220
1874,0.055,-0.215
1875,0.070,-0.205
1876,0.060,-0.225
1877,0.050,-0.215
1878,-0.010,-0.180
1879,-0.050,-0.175
1880,-0.100,-0.175
1881,-0.165,-0.155
1882,-0.210,-0.130
1883,-0.265,-0.145
1884,-0.290,-0.140
1885,-0.325,-0.135
1886,-0.340,-0.135
1887,-0.370,-0.115
1888,-0.370,-0.135
1889,-0.385,-0.125
1890,-0.385,-0.115
1891,-0.380,-0.120
1892,-0.395,-0.130
1893,-0.390,-0.120
1894,-0.400,-0.110
1895,-0.420,-0.100
1896,-0.420,-0.115
1897,-0.400,-0.115
1898,-0.415,-0.110
1899,-0.415,-0.105
1900,-0.415,-0.100
1901,-0.390,-0.100
1902,-0.395,-0.100
1903,-0.380,-0.100
1904,-0.385,-0.095
1905,-0.370,-0.095
1906,-0.375,-0.090
1907,-0.355,-0.080
1908,-0.315,-0.050
1909,-0.315,-0.030
1910,-0.300,-0.020
1911,-0.235,-0.045
1912,-0.205,-0.035
1913,-0.190,-0.070
1914,-0.175,-0.080
1915,-0.150,-0.115
1916,-0.185,-0.135
1917,-0.270,-0.130
1918,-0.310,-0.110
1919,-0.325,-0.105
1920,-0.335,-0.120
1921,-0.340,-0.135
1922,-0.360,-0.125
1923,-0.370,-0.120
1924,-0.355,-0.115
1925,-0.350,-0.120
1926,-0.360,-0.130
1927,-0.365,-0.135
1928,-0.355,-0.105
1929,-0.385,-0.130
1930,-0.360,-0.125
1931,-0.375,-0.125
1932,-0.385,-0.120
1933,-0.390,-0.125
1934,-0.470,-0.110
1935,-0.540,-0.140
1936,-0.465,-0.200
1937,0.010,-0.375
1938,0.730,-0.505
1939,0.790,-0.170
1940,-0.260,0.355
1941,-1.115,0.545
1942,-0.985,-0.010
1943,-0.615,-0.270
1944,-0.440,-0.245
1945,-0.390,-0.135
1946,-0.380,-0.105
1947,-0.370,-0.095
1948,-0.365,-0.090
1949,-0.340,-0.090
1950,-0.340,-0.100
1951,-0.350,-0.085
1952,-0.350,-0.085
1953,-0.320,-0.095
1954,-0.315,-0.095
1955,-0.315,-0.085
1956,-0.300,-0.085
1957,-0.295,-0.090
1958,-0.280,-0.095
1959,-0.275,-0.100
1960,-0.250,-0.100
1961,-0.245,-0.100
1962,-0.215,-0.095
1963,-0.195,-0.115
1964,-0.145,-0.115
1965,-0.100,-0.130
1966,-0.060,-0.130
1967,0.005,-0.125
1968,0.050,-0.155
1969,0.070,-0.185
1970,0.085,-0.180
1971,0.075,-0.200
1972,0.070,-0.200
1973,0.040,-0.195
1974,-0.010,-0.165
1975,-0.080,-0.150
1976,-0.135,-0.140
1977,-0.185,-0.145
1978,-0.230,-0.140
1979,-0.280,-0.105
1980,-0.310,-0.135
1981,-0.330,-0.110
1982,-0.355,-0.095
1983,-0.380,-0.115
1984,-0.385,-0.110
1985,-0.415,-0.105
1986,-0.380,-0.130
1987,-0.395,-0.140
1988,-0.405,-0.120
1989,-0.400,-0.110
1990,-0.410,-0.115
1991,-0.420,-0.110
1992,-0.410,-0.110
1993,-0.420,-0.100
1994,-0.415,-0.090
1995,-0.420,-0.085
1996,-0.430,-0.100
1997,-0.425,-0.100
1998,-0.410,-0.085
1999,-0.415,-0.085
2000,-0.415,-0.085
2001,-0.415,-0.085
2002,-0.395,-0.090
2003,-0.380,-0.080
2004,-0.375,-0.030
2005,-0.375,-0.035
2006,-0.320,-0.030
2007,-0.270,-0.015
2008,-0.260,-0.040
2009,-0.240,-0.070
2010,-0.235,-0.115
2011,-0.235,-0.135
2012,-0.315,-0.135
2013,-0.350,-0.125
2014,-0.355,-0.115
2015,-0.385,-0.130
2016,-0.410,-0.155
2017,-0.410,-0.140
2018,-0.440,-0.130
2019,-0.430,-0.150
2020,-0.425,-0.145
2021,-0.445,-0.155
2022,-0.450,-0.155
2023,-0.430,-0.150
2024,-0.455,-0.135
2025,-0.450,-0.145
2026,-0.440,-0.145
2027,-0.455,-0.125
2028,-0.455,-0.160
2029,-0.470,-0.155
2030,-0.555,-0.135
2031,-0.620,-0.140
2032,-0.575,-0.190
2033,-0.105,-0.365
2034,0.590,-0.515
2035,0.805,-0.235
2036,-0.100,0.310
2037,-1.025,0.565
2038,-1.105,0.140
2039,-0.775,-0.255
2040,-0.530,-0.265
2041,-0.470,-0.165
2042,-0.450,-0.090
2043,-0.445,-0.090
2044,-0.430,-0.095
2045,-0.430,-0.105
2046,-0.430,-0.095
2047,-0.400,-0.090
2048,-0.415,-0.080
2049,-0.385,-0.095
2050,-0.375,-0.090
2051,-0.375,-0.080
2052,-0.360,-0.085
2053,-0.375,-0.080
2054,-0.350,-0.080
2055,-0.340,-0.080
2056,-0.335,-0.095
2057,-0.310,-0.080
2058,-0.295,-0.085
2059,-0.265,-0.095
2060,-0.220,-0.095
2061,-0.195,-0.105
2062,-0.135,-0.125
2063,-0.080,-0.100
2064,-0.020,-0.130
2065,0.030,-0.140
2066,0.030,-0.130
2067,0.070,-0.145
2068,0.055,-0.150
2069,0.030,-0.130
2070,0.005,-0.105
2071,-0.060,-0.120
2072,-0.125,-0.090
2073,-0.170,-0.105
2074,-0.230,-0.095
2075,-0.290,-0.085
2076,-0.300,-0.085
2077,-0.320,-0.095
2078,-0.365,-0.080
2079,-0.375,-0.080
2080,-0.390,-0.090
2081,-0.390,-0.075
2082,-0.365,-0.075
2083,-0.340,-0.075
2084,-0.300,-0.100
2085,-0.245,-0.115
2086,-0.375,-0.090
2087,-0.400,-0.040
2088,-0.430,-0.030
2089,-0.560,-0.030
2090,-0.550,-0.030
2091,-0.535,-0.050
2092,-0.520,-0.075
2093,-0.470,-0.080
2094,-0.500,-0.060
2095,-0.535,-0.080
2096,-0.505,-0.065
2097,-0.495,-0.030
2098,-0.480,-0.045
2099,-0.455,-0.045
2100,-0.435,-0.035
2101,-0.365,-0.020
2102,-0.330,-0.015
2103,-0.305,-0.015
2104,-0.295,-0.010
2105,-0.375,-0.020
2106,-0.365,-0.050
2107,-0.290,-0.105
2108,-0.260,-0.120
2109,-0.335,-0.145
2110,-0.335,-0.110
2111,-0.420,-0.105
2112,-0.475,-0.110
2113,-0.410,-0.110
2114,-0.375,-0.145
2115,-0.370,-0.140
2116,-0.490,-0.135
2117,-0.555,-0.130
2118,-0.445,-0.140
2119,-0.445,-0.150
2120,-0.520,-0.140
2121,-0.360,-0.150
2122,-0.330,-0.190
2123,-0.545,-0.155
2124,-0.580,-0.130
2125,-0.430,-0.155
2126,-0.425,-0.170
2127,-0.655,-0.150
2128,-0.825,-0.145
2129,-0.740,-0.190
2130,-0.335,-0.325
2131,0.470,-0.515
2132,0.740,-0.295
2133,-0.245,0.355
2134,-1.075,0.635
2135,-1.185,0.090
2136,-0.965,-0.245
2137,-0.700,-0.220
2138,-0.630,-0.125
2139,-0.600,-0.065
2140,-0.565,-0.080
2141,-0.480,-0.090
2142,-0.450,-0.090
2143,-0.530,-0.080
2144,-0.570,-0.075
2145,-0.530,-0.060
2146,-0.535,-0.075
2147,-0.550,-0.080
2148,-0.520,-0.075
2149,-0.510,-0.085
2150,-0.445,-0.075
2151,-0.430,-0.080
2152,-0.460,-0.100
2153,-0.460,-0.090
2154,-0.370,-0.095
2155,-0.385,-0.110
2156,-0.405,-0.110
2157,-0.355,-0.075
2158,-0.270,-0.090
2159,-0.195,-0.105
2160,-0.185,-0.130
2161,-0.100,-0.135
2162,-0.060,-0.135
2163,-0.005,-0.140
2164,-0.020,-0.170
2165,-0.065,-0.160
2166,-0.080,-0.140
2167,-0.155,-0.135
2168,-0.140,-0.120
2169,-0.150,-0.125
2170,-0.155,-0.095
2171,-0.255,-0.075
2172,-0.310,-0.080
2173,-0.385,-0.060
2174,-0.415,-0.065
2175,-0.520,-0.075
2176,-0.505,-0.060
2177,-0.515,-0.025
2178,-0.480,-0.060
2179,-0.470,-0.080
2180,-0.530,-0.065
2181,-0.530,-0.065
2182,-0.520,-0.055
2183,-0.515,-0.035
2184,-0.510,-0.040
2185,-0.480,-0.060
2186,-0.425,-0.060
2187,-0.445,-0.045
2188,-0.545,-0.055
2189,-0.555,-0.020
2190,-0.530,-0.045
2191,-0.515,-0.045
2192,-0.520,-0.035
2193,-0.500,-0.090
2194,-0.440,-0.040
2195,-0.450,-0.015
2196,-0.420,-0.055
2197,-0.455,-0.040
2198,-0.375,0.015
2199,-0.375,0.000
2200,-0.385,0.030
2201,-0.240,0.025
2202,-0.295,-0.050
2203,-0.350,-0.040
2204,-0.275,-0.075
2205,-0.295,-0.115
2206,-0.355,-0.135
2207,-0.400,-0.095
2208,-0.425,-0.095
2209,-0.435,-0.110
2210,-0.450,-0.100
2211,-0.475,-0.105
2212,-0.450,-0.100
2213,-0.450,-0.105
2214,-0.485,-0.105
2215,-0.475,-0.090
2216,-0.445,-0.105
2217,-0.475,-0.135
2218,-0.495,-0.105
2219,-0.475,-0.105
2220,-0.490,-0.110
2221,-0.495,-0.115
2222,-0.505,-0.100
2223,-0.585,-0.135
2224,-0.665,-0.105
2225,-0.560,-0.190
2226,0.030,-0.405
2227,0.745,-0.495
2228,0.445,-0.035
2229,-0.650,0.425
2230,-1.175,0.490
2231,-1.000,-0.120
2232,-0.650,-0.310
2233,-0.500,-0.245
2234,-0.475,-0.130
2235,-0.465,-0.120
2236,-0.455,-0.105
2237,-0.425,-0.105
2238,-0.430,-0.090
2239,-0.425,-0.095
2240,-0.420,-0.120
2241,-0.395,-0.105
2242,-0.405,-0.105
2243,-0.405,-0.100
2244,-0.400,-0.105
2245,-0.360,-0.090
2246,-0.360,-0.085
2247,-0.335,-0.090
2248,-0.330,-0.100
2249,-0.315,-0.090
2250,-0.280,-0.095
2251,-0.235,-0.100
2252,-0.190,-0.110
2253,-0.140,-0.110
2254,-0.105,-0.115
2255,-0.030,-0.125
2256,0.000,-0.145
2257,0.010,-0.170
2258,0.015,-0.150
2259,0.005,-0.165
2260,-0.020,-0.150
2261,-0.075,-0.155
2262,-0.165,-0.140
2263,-0.215,-0.100
2264,-0.285,-0.105
2265,-0.310,-0.070
2266,-0.375,-0.105
2267,-0.410,-0.115
2268,-0.415,-0.085
2269,-0.440,-0.080
2270,-0.440,-0.100
2271,-0.465,-0.090
2272,-0.470,-0.090
2273,-0.485,-0.055
2274,-0.485,-0.060
2275,-0.500,-0.090
2276,-0.500,-0.080
2277,-0.510,-0.065
2278,-0.500,-0.085
2279,-0.500,-0.080
2280,-0.495,-0.055
2281,-0.500,-0.075
2282,-0.485,-0.070
2283,-0.495,-0.070
2284,-0.490,-0.095
2285,-0.465,-0.085
2286,-0.455,-0.075
2287,-0.460,-0.075
2288,-0.455,-0.070
2289,-0.415,-0.080
2290,-0.395,-0.035
2291,-0.395,-0.020
2292,-0.355,0.000
2293,-0.305,0.000
2294,-0.280,-0.025
2295,-0.260,-0.050
2296,-0.240,-0.090
2297,-0.280,-0.130
2298,-0.335,-0.115
2299,-0.365,-0.070
2300,-0.370,-0.110
2301,-0.385,-0.130
2302,-0.425,-0.080
2303,-0.430,-0.100
2304,-0.430,-0.110
2305,-0.440,-0.100
2306,-0.445,-0.090
2307,-0.425,-0.090
2308,-0.425,-0.125
2309,-0.425,-0.110
2310,-0.435,-0.095
2311,-0.430,-0.120
2312,-0.445,-0.105
2313,-0.445,-0.090
2314,-0.450,-0.110
2315,-0.555,-0.115
2316,-0.620,-0.120
2317,-0.460,-0.185
2318,0.155,-0.395
2319,0.880,-0.420
2320,0.600,0.055
2321,-0.695,0.535
2322,-1.170,0.370
2323,-0.800,-0.185
2324,-0.530,-0.225
2325,-0.445,-0.155
2326,-0.445,-0.085
2327,-0.440,-0.090
2328,-0.405,-0.085
2329,-0.420,-0.085
2330,-0.410,-0.060
2331,-0.410,-0.085
2332,-0.400,-0.080
2333,-0.390,-0.065
2334,-0.385,-0.075
2335,-0.360,-0.060
2336,-0.390,-0.070
2337,-0.340,-0.080
2338,-0.350,-0.075
2339,-0.335,-0.060
2340,-0.325,-0.065
2341,-0.300,-0.060
2342,-0.260,-0.065
2343,-0.240,-0.060
2344,-0.180,-0.075
2345,-0.145,-0.065
2346,-0.075,-0.090
2347,-0.045,-0.075
2348,0.025,-0.100
2349,0.055,-0.095
2350,0.045,-0.110
2351,0.060,-0.105
2352,0.030,-0.090
2353,-0.005,-0.100
2354,-0.080,-0.105
2355,-0.145,-0.100
2356,-0.195,-0.095
2357,-0.275,-0.085
2358,-0.315,-0.100
2359,-0.370,-0.080
2360,-0.375,-0.075
2361,-0.405,-0.080
2362,-0.405,-0.085
2363,-0.435,-0.090
2364,-0.425,-0.105
2365,-0.440,-0.075
2366,-0.435,-0.065
2367,-0.435,-0.105
2368,-0.430,-0.090
2369,-0.455,-0.075
2370,-0.470,-0.090
2371,-0.460,-0.060
2372,-0.465,-0.065
2373,-0.460,-0.060
2374,-0.470,-0.060
2375,-0.465,-0.065
2376,-0.465,-0.065
2377,-0.475,-0.060
2378,-0.465,-0.050
2379,-0.465,-0.050
2380,-0.435,-0.040
2381,-0.425,-0.045
2382,-0.405,-0.005
2383,-0.405,0.020
2384,-0.325,0.010
2385,-0.275,0.010
2386,-0.285,-0.030
2387,-0.275,-0.050
2388,-0.240,-0.090
2389,-0.255,-0.135
2390,-0.335,-0.135
2391,-0.375,-0.070
2392,-0.400,-0.095
2393,-0.415,-0.105
2394,-0.435,-0.115
2395,-0.455,-0.110
2396,-0.435,-0.115
2397,-0.455,-0.095
2398,-0.450,-0.120
2399,-0.450,-0.105
2400,-0.435,-0.095
2401,-0.440,-0.090
2402,-0.445,-0.100
2403,-0.450,-0.090
2404,-0.465,-0.105
2405,-0.450,-0.110
2406,-0.440,-0.085
2407,-0.470,-0.095
2408,-0.575,-0.120
2409,-0.605,-0.115
2410,-0.465,-0.200
2411,0.070,-0.400
2412,0.780,-0.460
2413,0.590,-0.015
2414,-0.550,0.525
2415,-1.190,0.535
2416,-0.945,-0.030
2417,-0.600,-0.200
2418,-0.470,-0.160
2419,-0.460,-0.080
2420,-0.450,-0.060
2421,-0.435,-0.055
2422,-0.430,-0.050
2423,-0.425,-0.040
2424,-0.410,-0.045
2425,-0.395,-0.060
2426,-0.380,-0.040
2427,-0.385,-0.030
2428,-0.375,-0.030
2429,-0.380,-0.050
2430,-0.340,-0.010
2431,-0.330,-0.020
2432,-0.315,-0.045
2433,-0.295,-0.025
2434,-0.290,-0.025
2435,-0.280,-0.010
2436,-0.240,-0.030
2437,-0.205,-0.045
2438,-0.155,-0.035
2439,-0.100,-0.025
2440,-0.060,-0.060
2441,-0.005,-0.055
2442,0.030,-0.055
2443,0.065,-0.090
2444,0.060,-0.085
2445,0.060,-0.085
2446,0.045,-0.080
2447,0.015,-0.070
2448,-0.045,-0.080
2449,-0.110,-0.070
2450,-0.170,-0.070
2451,-0.225,-0.045
2452,-0.255,-0.040
2453,-0.315,-0.040
2454,-0.310,-0.050
2455,-0.345,-0.030
2456,-0.360,-0.030
2457,-0.365,-0.045
2458,-0.380,-0.050
2459,-0.380,-0.045
2460,-0.395,-0.030
2461,-0.400,-0.055
2462,-0.385,-0.045
2463,-0.420,-0.035
2464,-0.410,-0.025
2465,-0.410,-0.025
2466,-0.405,-0.010
2467,-0.420,-0.035
2468,-0.450,-0.040
2469,-0.420,-0.025
2470,-0.405,-0.020
2471,-0.410,-0.025
2472,-0.405,-0.030
2473,-0.395,-0.035
2474,-0.385,-0.040
2475,-0.380,-0.030
2476,-0.365,-0.040
2477,-0.335,0.000
2478,-0.330,0.045
2479,-0.290,0.030
2480,-0.245,0.020
2481,-0.225,0.000
2482,-0.220,-0.030
2483,-0.205,-0.050
2484,-0.205,-0.085
2485,-0.255,-0.110
2486,-0.310,-0.100
2487,-0.335,-0.070
2488,-0.380,-0.065
2489,-0.405,-0.075
2490,-0.395,-0.080
2491,-0.410,-0.090
2492,-0.405,-0.115
2493,-0.425,-0.110
2494,-0.430,-0.110
2495,-0.400,-0.125
2496,-0.425,-0.110
2497,-0.405,-0.115
2498,-0.435,-0.130
2499,-0.425,-0.105
2500,-0.410,-0.130
2501,-0.430,-0.105
2502,-0.415,-0.120
2503,-0.470,-0.135
2504,-0.555,-0.125
2505,-0.555,-0.135
2506,-0.310,-0.270
2507,0.300,-0.470
2508,0.790,-0.415
2509,0.285,0.120
2510,-0.770,0.540
2511,-1.155,0.400
2512,-0.865,-0.150
2513,-0.570,-0.250
2514,-0.435,-0.185
2515,-0.415,-0.080
2516,-0.415,-0.060
2517,-0.405,-0.060
2518,-0.410,-0.065
2519,-0.380,-0.065
2520,-0.370,-0.055
2521,-0.370,-0.060
2522,-0.345,-0.075
2523,-0.345,-0.050
2524,-0.335,-0.075
2525,-0.335,-0.075
2526,-0.305,-0.035
2527,-0.305,-0.045
2528,-0.280,-0.055
2529,-0.255,-0.050
2530,-0.235,-0.065
2531,-0.230,-0.065
2532,-0.190,-0.060
2533,-0.165,-0.080
2534,-0.130,-0.075
2535,-0.105,-0.080
2536,-0.020,-0.085
2537,0.025,-0.105
2538,0.050,-0.130
2539,0.085,-0.130
2540,0.115,-0.140
2541,0.090,-0.130
2542,0.070,-0.115
2543,0.055,-0.125
2544,0.020,-0.110
2545,-0.030,-0.095
2546,-0.090,-0.110
2547,-0.140,-0.085
2548,-0.175,-0.075
2549,-0.200,-0.070
2550,-0.230,-0.060
2551,-0.265,-0.055
2552,-0.270,-0.095
2553,-0.295,-0.060
2554,-0.305,-0.070
2555,-0.295,-0.045
2556,-0.315,-0.055
2557,-0.310,-0.060
2558,-0.310,-0.065
2559,-0.330,-0.050
2560,-0.320,-0.045
2561,-0.335,-0.020
2562,-0.350,-0.040
2563,-0.320,-0.045
2564,-0.320,-0.045
2565,-0.320,-0.040
2566,-0.350,-0.025
2567,-0.315,-0.025
2568,-0.305,-0.035
2569,-0.310,-0.040
2570,-0.315,-0.055
2571,-0.300,-0.040
2572,-0.300,-0.060
2573,-0.290,-0.060
2574,-0.295,-0.045
2575,-0.270,-0.035
2576,-0.260,-0.010
2577,-0.255,-0.010
2578,-0.180,0.000
2579,-0.145,0.010
2580,-0.155,-0.035
2581,-0.125,-0.050
2582,-0.125,-0.105
2583,-0.160,-0.095
2584,-0.235,-0.090
2585,-0.265,-0.080
2586,-0.270,-0.100
2587,-0.315,-0.110
2588,-0.335,-0.125
2589,-0.330,-0.115
2590,-0.315,-0.095
2591,-0.340,-0.125
2592,-0.340,-0.115
2593,-0.325,-0.110
2594,-0.350,-0.120
2595,-0.335,-0.110
2596,-0.340,-0.110
2597,-0.335,-0.130
2598,-0.325,-0.095
2599,-0.345,-0.120
2600,-0.345,-0.115
2601,-0.365,-0.110
2602,-0.460,-0.130
2603,-0.480,-0.150
2604,-0.310,-0.275
2605,0.275,-0.480
2606,0.875,-0.490
2607,0.490,-0.010
2608,-0.505,0.385
2609,-1.035,0.470
2610,-0.895,-0.075
2611,-0.570,-0.295
2612,-0.415,-0.290
2613,-0.375,-0.160
2614,-0.370,-0.105
2615,-0.355,-0.125
2616,-0.350,-0.115
2617,-0.340,-0.120
2618,-0.340,-0.115
2619,-0.340,-0.125
2620,-0.345,-0.140
2621,-0.330,-0.120
2622,-0.320,-0.140
2623,-0.315,-0.125
2624,-0.315,-0.115
2625,-0.300,-0.130
2626,-0.295,-0.115
2627,-0.270,-0.140
2628,-0.250,-0.145
2629,-0.230,-0.145
2630,-0.205,-0.155
2631,-0.175,-0.150
2632,-0.120,-0.175
2633,-0.065,-0.180
2634,-0.010,-0.200
2635,0.020,-0.185
2636,0.065,-0.205
2637,0.085,-0.215
2638,0.090,-0.220
2639,0.080,-0.220
2640,0.065,-0.220
2641,0.040,-0.210
2642,-0.030,-0.180
2643,-0.075,-0.155
2644,-0.150,-0.125
2645,-0.200,-0.135
2646,-0.230,-0.105
2647,-0.280,-0.115
2648,-0.315,-0.120
2649,-0.320,-0.110
2650,-0.345,-0.110
2651,-0.345,-0.100
2652,-0.370,-0.100
2653,-0.380,-0.095
2654,-0.380,-0.095
2655,-0.380,-0.080
2656,-0.390,-0.075
2657,-0.385,-0.085
2658,-0.385,-0.075
2659,-0.390,-0.065
2660,-0.390,-0.070
2661,-0.385,-0.070
2662,-0.380,-0.090
2663,-0.365,-0.085
2664,-0.365,-0.090
2665,-0.350,-0.080
2666,-0.350,-0.085
2667,-0.345,-0.090
2668,-0.345,-0.090
2669,-0.320,-0.090
2670,-0.310,-0.090
2671,-0.300,-0.075
2672,-0.305,-0.055
2673,-0.305,-0.025
2674,-0.280,-0.020
2675,-0.190,-0.020
2676,-0.170,-0.010
2677,-0.170,-0.050
2678,-0.135,-0.075
2679,-0.140,-0.090
2680,-0.195,-0.100
2681,-0.255,-0.080
2682,-0.285,-0.075
2683,-0.305,-0.095
2684,-0.320,-0.075
2685,-0.355,-0.080
2686,-0.355,-0.070
2687,-0.335,-0.075
2688,-0.325,-0.085
2689,-0.350,-0.095
2690,-0.335,-0.055
2691,-0.335,-0.080
2692,-0.345,-0.070
2693,-0.350,-0.090
2694,-0.355,-0.075
2695,-0.355,-0.060
2696,-0.365,-0.060
2697,-0.365,-0.070
2698,-0.450,-0.075
2699,-0.530,-0.070
2700,-0.485,-0.135
2701,-0.045,-0.305
2702,0.685,-0.480
2703,0.885,-0.215
2704,-0.115,0.375
2705,-1.030,0.630
2706,-0.985,0.090
2707,-0.635,-0.230
2708,-0.410,-0.225
2709,-0.365,-0.110
2710,-0.370,-0.050
2711,-0.360,-0.055
2712,-0.310,-0.040
2713,-0.315,-0.035
2714,-0.300,-0.050
2715,-0.305,-0.025
2716,-0.295,-0.030
2717,-0.295,-0.025
2718,-0.295,-0.030
2719,-0.290,-0.045
2720,-0.265,-0.045
2721,-0.260,-0.050
2722,-0.235,-0.035
2723,-0.215,-0.040
2724,-0.215,-0.025
2725,-0.185,-0.055
2726,-0.160,-0.055
2727,-0.125,-0.040
2728,-0.080,-0.050
2729,-0.030,-0.070
2730,0.000,-0.090
2731,0.060,-0.085
2732,0.105,-0.115
2733,0.135,-0.115
2734,0.140,-0.115
2735,0.145,-0.100
2736,0.125,-0.120
2737,0.075,-0.125
2738,0.010,-0.100
2739,-0.025,-0.100
2740,-0.075,-0.090
2741,-0.125,-0.075
2742,-0.170,-0.060
2743,-0.225,-0.065
2744,-0.245,-0.070
2745,-0.280,-0.055
2746,-0.290,-0.050
2747,-0.305,-0.045
2748,-0.315,-0.050
2749,-0.315,-0.050
2750,-0.330,-0.050
2751,-0.335,-0.055
2752,-0.325,-0.080
2753,-0.355,-0.045
2754,-0.335,-0.020
2755,-0.350,-0.060
2756,-0.325,-0.055
2757,-0.360,-0.035
2758,-0.350,-0.015
2759,-0.325,-0.040
2760,-0.340,-0.035
2761,-0.320,-0.040
2762,-0.340,-0.035
2763,-0.320,-0.035
2764,-0.295,-0.030
2765,-0.270,-0.015
2766,-0.275,0.005
2767,-0.275,0.005
2768,-0.240,0.010
2769,-0.175,0.045
2770,-0.155,0.030
2771,-0.140,-0.010
2772,-0.110,-0.055
2773,-0.130,-0.070
2774,-0.220,-0.085
2775,-0.280,-0.070
2776,-0.290,-0.060
2777,-0.305,-0.080
2778,-0.320,-0.080
2779,-0.345,-0.080
2780,-0.320,-0.070
2781,-0.345,-0.095
2782,-0.355,-0.065
2783,-0.350,-0.070
2784,-0.365,-0.065
2785,-0.365,-0.065
2786,-0.350,-0.060
2787,-0.330,-0.075
2788,-0.360,-0.040
2789,-0.360,-0.055
2790,-0.370,-0.065
2791,-0.405,-0.055
2792,-0.510,-0.090
2793,-0.515,-0.120
2794,-0.215,-0.265
2795,0.475,-0.510
2796,0.915,-0.425
2797,0.160,0.170
2798,-0.900,0.540
2799,-1.065,0.285
2800,-0.765,-0.190
2801,-0.465,-0.250
2802,-0.405,-0.185
2803,-0.380,-0.060
2804,-0.365,-0.055
2805,-0.360,-0.040
2806,-0.350,-0.050
2807,-0.330,-0.050
2808,-0.340,-0.045
2809,-0.325,-0.035
2810,-0.330,-0.020
2811,-0.305,-0.035
2812,-0.305,-0.040
2813,-0.300,-0.045
2814,-0.275,-0.060
2815,-0.255,-0.040
2816,-0.250,-0.025
2817,-0.230,-0.040
2818,-0.200,-0.040
2819,-0.150,-0.045
2820,-0.130,-0.070
2821,-0.065,-0.090
2822,-0.020,-0.100
2823,0.025,-0.110
2824,0.075,-0.125
2825,0.115,-0.130
2826,0.110,-0.130
2827,0.115,-0.135
2828,0.110,-0.145
2829,0.035,-0.130
2830,0.000,-0.110
2831,-0.050,-0.120
2832,-0.130,-0.110
2833,-0.180,-0.060
2834,-0.220,-0.055
2835,-0.260,-0.045
2836,-0.260,-0.045
2837,-0.300,-0.060
2838,-0.330,-0.060
2839,-0.330,-0.065
2840,-0.305,-0.005
2841,-0.330,-0.050
2842,-0.350,-0.030
2843,-0.350,-0.020
2844,-0.350,-0.010
2845,-0.345,-0.020
2846,-0.330,-0.030
2847,-0.350,-0.035
2848,-0.330,-0.030
2849,-0.335,-0.035
2850,-0.335,-0.025
2851,-0.315,-0.025
2852,-0.305,-0.015
2853,-0.300,-0.025
2854,-0.315,-0.030
2855,-0.280,-0.050
2856,-0.280,-0.030
2857,-0.270,-0.005
2858,-0.275,0.040
2859,-0.265,0.025
2860,-0.215,0.050
2861,-0.145,0.035
2862,-0.130,0.005
2863,-0.095,-0.010
2864,-0.105,-0.025
2865,-0.140,-0.050
2866,-0.200,-0.065
2867,-0.235,-0.050
2868,-0.250,-0.050
2869,-0.285,-0.055
2870,-0.310,-0.070
2871,-0.315,-0.075
2872,-0.325,-0.070
2873,-0.330,-0.090
2874,-0.330,-0.095
2875,-0.340,-0.090
2876,-0.335,-0.105
2877,-0.335,-0.080
2878,-0.340,-0.105
2879,-0.330,-0.095
2880,-0.335,-0.090
2881,-0.350,-0.100
2882,-0.340,-0.110
2883,-0.435,-0.090
2884,-0.500,-0.130
2885,-0.415,-0.185
2886,0.175,-0.380
2887,0.930,-0.500
2888,0.705,-0.130
2889,-0.480,0.310
2890,-1.070,0.410
2891,-0.875,-0.140
2892,-0.555,-0.300
2893,-0.415,-0.255
2894,-0.385,-0.110
2895,-0.370,-0.075
2896,-0.365,-0.080
2897,-0.355,-0.080
2898,-0.340,-0.095
2899,-0.350,-0.070
2900,-0.330,-0.085
2901,-0.330,-0.085
2902,-0.340,-0.090
2903,-0.320,-0.065
2904,-0.300,-0.090
2905,-0.280,-0.080
2906,-0.285,-0.075
2907,-0.260,-0.090
2908,-0.265,-0.110
2909,-0.240,-0.090
2910,-0.205,-0.100
2911,-0.170,-0.105
2912,-0.120,-0.120
2913,-0.065,-0.125
2914,-0.010,-0.140
2915,0.020,-0.135
2916,0.070,-0.170
2917,0.095,-0.160
2918,0.110,-0.170
2919,0.115,-0.195
2920,0.070,-0.175
2921,0.035,-0.165
2922,0.000,-0.140
2923,-0.075,-0.130
2924,-0.135,-0.120
2925,-0.195,-0.090
2926,-0.250,-0.080
2927,-0.265,-0.080
2928,-0.295,-0.100
2929,-0.310,-0.080
2930,-0.325,-0.085
2931,-0.355,-0.065
2932,-0.355,-0.080
2933,-0.355,-0.085
2934,-0.380,-0.085
2935,-0.370,-0.055
2936,-0.380,-0.070
2937,-0.370,-0.070
2938,-0.375,-0.040
2939,-0.390,-0.050
2940,-0.375,-0.050
2941,-0.385,-0.040
2942,-0.360,-0.035
2943,-0.360,-0.035
2944,-0.375,-0.030
2945,-0.370,-0.030
2946,-0.330,-0.030
2947,-0.320,-0.020
2948,-0.315,-0.035
2949,-0.290,-0.040
2950,-0.275,0.005
2951,-0.285,0.010
2952,-0.230,0.020
2953,-0.160,0.040
2954,-0.165,0.035
2955,-0.140,0.000
2956,-0.120,-0.025
2957,-0.120,-0.060
2958,-0.175,-0.070
2959,-0.245,-0.040
2960,-0.265,-0.040
2961,-0.295,-0.070
2962,-0.315,-0.065
2963,-0.320,-0.070
2964,-0.340,-0.075
2965,-0.325,-0.085
2966,-0.340,-0.065
2967,-0.340,-0.075
2968,-0.360,-0.070
2969,-0.345,-0.050
2970,-0.345,-0.075
2971,-0.345,-0.060
2972,-0.360,-0.075
2973,-0.360,-0.070
2974,-0.355,-0.060
2975,-0.355,-0.055
2976,-0.410,-0.050
2977,-0.510,-0.065
2978,-0.515,-0.080
2979,-0.250,-0.200
2980,0.450,-0.380
2981,1.050,-0.375
2982,0.535,0.120
2983,-0.685,0.520
2984,-1.135,0.450
2985,-0.805,-0.135
2986,-0.480,-0.210
2987,-0.395,-0.155
2988,-0.375,-0.045
2989,-0.365,-0.040
2990,-0.365,-0.020
2991,-0.330,-0.035
2992,-0.340,-0.030
2993,-0.330,-0.040
2994,-0.315,-0.025
2995,-0.305,-0.025
2996,-0.295,-0.035
2997,-0.295,-0.020
2998,-0.305,-0.025
2999,-0.280,-0.035
3000,-0.260,-0.025
3001,-0.255,-0.030
3002,-0.245,-0.025
3003,-0.250,-0.040
3004,-0.220,-0.040
3005,-0.195,-0.055
3006,-0.170,-0.055
3007,-0.120,-0.045
3008,-0.065,-0.050
3009,-0.005,-0.065
3010,0.040,-0.060
3011,0.085,-0.115
3012,0.120,-0.100
3013,0.135,-0.110
3014,0.145,-0.125
3015,0.115,-0.095
3016,0.075,-0.105
3017,0.020,-0.100
3018,-0.035,-0.090
3019,-0.090,-0.065
3020,-0.150,-0.060
3021,-0.190,-0.055
3022,-0.235,-0.065
3023,-0.270,-0.035
3024,-0.280,-0.060
3025,-0.295,-0.055
3026,-0.335,-0.070
3027,-0.350,-0.035
3028,-0.335,-0.035
3029,-0.340,-0.035
3030,-0.355,-0.035
3031,-0.335,-0.020
3032,-0.355,-0.025
3033,-0.350,-0.020
3034,-0.340,-0.030
3035,-0.360,-0.010
3036,-0.355,-0.020
3037,-0.370,0.000
3038,-0.350,-0.025
3039,-0.350,-0.005
3040,-0.340,-0.005
3041,-0.350,-0.005
3042,-0.340,0.000
3043,-0.325,0.000
3044,-0.300,0.005
3045,-0.295,0.040
3046,-0.275,0.045
3047,-0.205,0.040
3048,-0.190,0.055
3049,-0.180,0.015
3050,-0.160,-0.020
3051,-0.155,-0.055
3052,-0.150,-0.055
3053,-0.240,-0.065
3054,-0.275,-0.025
3055,-0.295,-0.005
3056,-0.330,-0.040
3057,-0.325,-0.055
3058,-0.330,-0.050
3059,-0.345,-0.040
3060,-0.335,-0.055
3061,-0.340,-0.050
3062,-0.340,-0.035
3063,-0.360,-0.045
3064,-0.360,-0.045
3065,-0.345,-0.045
3066,-0.345,-0.035
3067,-0.370,-0.030
3068,-0.370,-0.035
3069,-0.345,-0.025
3070,-0.355,-0.015
3071,-0.375,-0.035
3072,-0.430,-0.025
3073,-0.515,-0.025
3074,-0.455,-0.060
3075,-0.025,-0.250
3076,0.700,-0.410
3077,0.925,-0.200
3078,-0.005,0.380
3079,-0.960,0.690
3080,-0.990,0.255
3081,-0.635,-0.105
3082,-0.405,-0.125
3083,-0.345,-0.055
3084,-0.345,0.030
3085,-0.320,0.030
3086,-0.310,0.015
3087,-0.295,0.020
3088,-0.295,0.005
3089,-0.300,0.030
3090,-0.280,0.025
3091,-0.280,0.015
3092,-0.260,0.010
3093,-0.250,0.010
3094,-0.240,0.020
3095,-0.235,0.000
3096,-0.225,0.025
3097,-0.210,0.015
3098,-0.200,0.000
3099,-0.195,0.000
3100,-0.155,0.000
3101,-0.135,0.005
3102,-0.100,0.000
3103,-0.030,-0.010
3104,0.010,-0.015
3105,0.035,0.000
3106,0.080,-0.035
3107,0.145,-0.050
3108,0.195,-0.045
3109,0.200,-0.060
3110,0.200,-0.060
3111,0.160,-0.060
3112,0.155,-0.050
3113,0.085,-0.045
3114,0.045,-0.045
3115,-0.020,-0.045
3116,-0.055,-0.030
3117,-0.125,0.005
3118,-0.155,0.000
3119,-0.205,0.000
3120,-0.185,0.010
3121,-0.200,-0.005
3122,-0.235,-0.005
3123,-0.260,-0.010
3124,-0.260,0.005
3125,-0.270,-0.010
3126,-0.245,-0.025
3127,-0.285,-0.020
3128,-0.290,-0.010
3129,-0.295,0.000
3130,-0.280,-0.020
3131,-0.285,0.000
3132,-0.300,0.005
3133,-0.300,-0.020
3134,-0.305,-0.005
3135,-0.285,0.000
3136,-0.310,-0.015
3137,-0.290,-0.015
3138,-0.280,-0.005
3139,-0.275,-0.025
3140,-0.260,-0.030
3141,-0.250,0.000
3142,-0.240,0.015
3143,-0.265,0.015
3144,-0.205,-0.005
3145,-0.135,0.025
3146,-0.125,0.030
3147,-0.110,0.000
3148,-0.085,-0.015
3149,-0.075,-0.075
3150,-0.110,-0.100
3151,-0.200,-0.095
3152,-0.220,-0.090
3153,-0.240,-0.075
3154,-0.275,-0.085
3155,-0.275,-0.095
3156,-0.265,-0.100
3157,-0.275,-0.105
3158,-0.280,-0.095
3159,-0.295,-0.105
3160,-0.290,-0.090
3161,-0.300,-0.100
3162,-0.285,-0.105
3163,-0.295,-0.120
3164,-0.320,-0.110
3165,-0.290,-0.110
3166,-0.295,-0.125
3167,-0.305,-0.105
3168,-0.365,-0.110
3169,-0.435,-0.115
3170,-0.435,-0.155
3171,-0.140,-0.255
3172,0.585,-0.470
3173,1.100,-0.410
3174,0.440,0.060
3175,-0.705,0.405
3176,-1.050,0.380
3177,-0.770,-0.180
3178,-0.450,-0.295
3179,-0.335,-0.210
3180,-0.330,-0.100
3181,-0.310,-0.080
3182,-0.300,-0.095
3183,-0.290,-0.080
3184,-0.290,-0.100
3185,-0.275,-0.085
3186,-0.285,-0.070
3187,-0.280,-0.080
3188,-0.275,-0.080
3189,-0.275,-0.095
3190,-0.255,-0.090
3191,-0.240,-0.115
3192,-0.250,-0.080
3193,-0.220,-0.095
3194,-0.220,-0.085
3195,-0.190,-0.085
3196,-0.160,-0.085
3197,-0.120,-0.105
3198,-0.080,-0.100
3199,-0.025,-0.110
3200,0.025,-0.130
3201,0.065,-0.155
3202,0.105,-0.135
3203,0.145,-0.150
3204,0.175,-0.160
3205,0.170,-0.175
3206,0.170,-0.140
3207,0.120,-0.120
3208,0.055,-0.105
3209,-0.015,-0.110
3210,-0.060,-0.095
3211,-0.120,-0.100
3212,-0.165,-0.075
3213,-0.195,-0.055
3214,-0.245,-0.050
3215,-0.270,-0.070
3216,-0.280,-0.050
3217,-0.285,-0.055
3218,-0.290,-0.050
3219,-0.290,-0.060
3220,-0.300,-0.060
3221,-0.310,-0.050
3222,-0.310,-0.040
3223,-0.310,-0.060
3224,-0.310,-0.050
3225,-0.310,-0.040
3226,-0.315,-0.065
3227,-0.325,-0.040
3228,-0.320,-0.055
3229,-0.310,-0.035
3230,-0.295,-0.050
3231,-0.285,-0.055
3232,-0.270,-0.055
3233,-0.270,-0.060
3234,-0.260,-0.065
3235,-0.245,-0.055
3236,-0.215,-0.045
3237,-0.225,-0.005
3238,-0.225,0.000
3239,-0.175,0.020
3240,-0.115,0.020
3241,-0.095,-0.020
3242,-0.085,-0.040
3243,-0.080,-0.100
3244,-0.100,-0.115
3245,-0.175,-0.110
3246,-0.200,-0.080
3247,-0.245,-0.075
3248,-0.255,-0.100
3249,-0.270,-0.115
3250,-0.290,-0.095
3251,-0.280,-0.115
3252,-0.275,-0.100
3253,-0.300,-0.090
3254,-0.285,-0.090
3255,-0.295,-0.095
3256,-0.285,-0.095
3257,-0.290,-0.105
3258,-0.285,-0.110
3259,-0.305,-0.080
3260,-0.320,-0.115
3261,-0.300,-0.095
3262,-0.350,-0.085
3263,-0.460,-0.105
3264,-0.485,-0.130
3265,-0.165,-0.245
3266,0.600,-0.495
3267,1.125,-0.385
3268,0.340,0.160
3269,-0.860,0.525
3270,-1.035,0.225
3271,-0.690,-0.245
3272,-0.395,-0.295
3273,-0.340,-0.195
3274,-0.330,-0.100
3275,-0.325,-0.090
3276,-0.300,-0.090
3277,-0.290,-0.085
3278,-0.285,-0.080
3279,-0.280,-0.095
3280,-0.260,-0.090
3281,-0.270,-0.095
3282,-0.265,-0.080
3283,-0.265,-0.095
3284,-0.255,-0.085
3285,-0.230,-0.075
3286,-0.225,-0.080
3287,-0.230,-0.060
3288,-0.200,-0.070
3289,-0.195,-0.090
3290,-0.160,-0.075
3291,-0.105,-0.085
3292,-0.065,-0.075
3293,-0.030,-0.100
3294,0.025,-0.105
3295,0.075,-0.135
3296,0.125,-0.145
3297,0.155,-0.145
3298,0.160,-0.140
3299,0.160,-0.140
3300,0.125,-0.135
3301,0.070,-0.150
3302,0.010,-0.120
3303,-0.040,-0.085
3304,-0.110,-0.090
3305,-0.150,-0.075
3306,-0.195,-0.085
3307,-0.235,-0.070
3308,-0.245,-0.065
3309,-0.265,-0.055
3310,-0.280,-0.060
3311,-0.280,-0.050
3312,-0.305,-0.050
3313,-0.305,-0.055
3314,-0.285,-0.055
3315,-0.305,-0.045
3316,-0.310,-0.060
3317,-0.320,-0.040
3318,-0.310,-0.055
3319,-0.305,-0.055
3320,-0.315,-0.025
3321,-0.300,-0.050
3322,-0.315,-0.050
3323,-0.310,-0.020
3324,-0.285,-0.025
3325,-0.285,-0.030
3326,-0.280,-0.020
3327,-0.280,-0.025
3328,-0.265,-0.015
3329,-0.245,0.000
3330,-0.225,0.040
3331,-0.190,0.040
3332,-0.120,0.050
3333,-0.115,0.055
3334,-0.095,0.010
3335,-0.050,-0.010
3336,-0.050,-0.065
3337,-0.110,-0.085
3338,-0.185,-0.065
3339,-0.205,-0.025
3340,-0.225,-0.030
3341,-0.260,-0.055
3342,-0.260,-0.060
3343,-0.250,-0.075
3344,-0.270,-0.060
3345,-0.290,-0.060
3346,-0.280,-0.065
3347,-0.280,-0.070
3348,-0.285,-0.100
3349,-0.270,-0.075
3350,-0.280,-0.075
3351,-0.290,-0.075
3352,-0.285,-0.090
3353,-0.290,-0.105
3354,-0.315,-0.080
3355,-0.410,-0.090
3356,-0.465,-0.120
3357,-0.330,-0.185
3358,0.275,-0.410
3359,0.960,-0.500
3360,0.555,0.000
3361,-0.590,0.485
3362,-1.065,0.400
3363,-0.750,-0.135
3364,-0.450,-0.265
3365,-0.325,-0.230
3366,-0.335,-0.105
3367,-0.315,-0.105
3368,-0.310,-0.080
3369,-0.280,-0.050
3370,-0.275,-0.095
3371,-0.265,-0.080
3372,-0.280,-0.080
3373,-0.255,-0.090
3374,-0.240,-0.100
3375,-0.220,-0.090
3376,-0.245,-0.095
3377,-0.230,-0.095
3378,-0.220,-0.100
3379,-0.205,-0.105
3380,-0.175,-0.105
3381,-0.170,-0.100
3382,-0.145,-0.090
3383,-0.120,-0.100
3384,-0.075,-0.125
3385,-0.005,-0.150
3386,0.010,-0.155
3387,0.085,-0.160
3388,0.155,-0.195
3389,0.165,-0.215
3390,0.160,-0.220
3391,0.170,-0.210
3392,0.145,-0.240
3393,0.090,-0.230
3394,0.035,-0.215
3395,-0.010,-0.190
3396,-0.050,-0.190
3397,-0.110,-0.180
3398,-0.150,-0.180
3399,-0.195,-0.165
3400,-0.230,-0.180
3401,-0.250,-0.165
3402,-0.260,-0.170
3403,-0.285,-0.185
3404,-0.290,-0.170
3405,-0.300,-0.180
3406,-0.295,-0.175
3407,-0.290,-0.165
3408,-0.295,-0.175
3409,-0.300,-0.180
3410,-0.305,-0.190
3411,-0.305,-0.190
3412,-0.315,-0.170
3413,-0.315,-0.165
3414,-0.310,-0.165
3415,-0.310,-0.165
3416,-0.305,-0.185
3417,-0.280,-0.180
3418,-0.305,-0.155
3419,-0.285,-0.190
3420,-0.270,-0.180
3421,-0.255,-0.145
3422,-0.255,-0.145
3423,-0.255,-0.125
3424,-0.205,-0.130
3425,-0.140,-0.115
3426,-0.145,-0.135
3427,-0.125,-0.160
3428,-0.095,-0.190
3429,-0.120,-0.230
3430,-0.195,-0.230
3431,-0.250,-0.200
3432,-0.265,-0.200
3433,-0.280,-0.210
3434,-0.305,-0.220
3435,-0.305,-0.240
3436,-0.310,-0.210
3437,-0.305,-0.205
3438,-0.315,-0.230
3439,-0.310,-0.220
3440,-0.310,-0.205
3441,-0.330,-0.235
3442,-0.310,-0.220
3443,-0.315,-0.215
3444,-0.325,-0.210
3445,-0.325,-0.230
3446,-0.325,-0.225
3447,-0.365,-0.225
3448,-0.470,-0.230
3449,-0.460,-0.240
3450,-0.145,-0.370
3451,0.555,-0.585
3452,1.060,-0.475
3453,0.290,0.070
3454,-0.850,0.405
3455,-1.015,0.180
3456,-0.705,-0.340
3457,-0.415,-0.360
3458,-0.345,-0.290
3459,-0.330,-0.180
3460,-0.305,-0.180
3461,-0.290,-0.160
3462,-0.295,-0.145
3463,-0.285,-0.165
3464,-0.280,-0.155
3465,-0.260,-0.150
3466,-0.260,-0.160
3467,-0.235,-0.145
3468,-0.245,-0.130
3469,-0.225,-0.150
3470,-0.225,-0.140
3471,-0.230,-0.140
3472,-0.195,-0.155
3473,-0.170,-0.145
3474,-0.155,-0.145
3475,-0.145,-0.155
3476,-0.100,-0.175
3477,-0.070,-0.165
3478,0.000,-0.170
3479,0.055,-0.195
3480,0.105,-0.210
3481,0.140,-0.225
3482,0.160,-0.255
3483,0.180,-0.220
3484,0.175,-0.250
3485,0.155,-0.255
3486,0.115,-0.210
3487,0.075,-0.190
3488,0.005,-0.190
3489,-0.040,-0.165
3490,-0.095,-0.160
3491,-0.150,-0.150
3492,-0.190,-0.145
3493,-0.210,-0.150
3494,-0.235,-0.165
3495,-0.245,-0.145
3496,-0.265,-0.160
3497,-0.270,-0.155
3498,-0.285,-0.150
3499,-0.285,-0.155
3500,-0.275,-0.145
3501,-0.280,-0.145
3502,-0.295,-0.130
3503,-0.285,-0.140
3504,-0.305,-0.140
3505,-0.300,-0.130
3506,-0.290,-0.120
3507,-0.285,-0.135
3508,-0.285,-0.125
3509,-0.290,-0.115
3510,-0.275,-0.125
3511,-0.280,-0.125
3512,-0.270,-0.135
3513,-0.270,-0.130
3514,-0.235,-0.125
3515,-0.215,-0.100
3516,-0.200,-0.080
3517,-0.205,-0.075
3518,-0.120,-0.045
3519,-0.110,-0.080
3520,-0.105,-0.130
3521,-0.085,-0.145
3522,-0.075,-0.180
3523,-0.145,-0.220
3524,-0.200,-0.165
3525,-0.230,-0.170
3526,-0.235,-0.200
3527,-0.265,-0.195
3528,-0.295,-0.210
3529,-0.280,-0.205
3530,-0.285,-0.195
3531,-0.300,-0.210
3532,-0.300,-0.195
3533,-0.300,-0.205
3534,-0.305,-0.230
3535,-0.320,-0.205
3536,-0.335,-0.205
3537,-0.310,-0.215
3538,-0.315,-0.220
3539,-0.330,-0.200
3540,-0.335,-0.190
3541,-0.355,-0.215
3542,-0.480,-0.205
3543,-0.495,-0.220
3544,-0.285,-0.305
3545,0.335,-0.530
3546,0.965,-0.560
3547,0.575,-0.075
3548,-0.550,0.380
3549,-1.070,0.400
3550,-0.815,-0.175
3551,-0.510,-0.335
3552,-0.380,-0.305
3553,-0.340,-0.190
3554,-0.345,-0.180
3555,-0.340,-0.165
3556,-0.335,-0.155
3557,-0.305,-0.170
3558,-0.315,-0.170
3559,-0.310,-0.170
3560,-0.295,-0.155
3561,-0.285,-0.140
3562,-0.300,-0.165
3563,-0.275,-0.165
3564,-0.260,-0.160
3565,-0.250,-0.135
3566,-0.235,-0.165
3567,-0.230,-0.160
3568,-0.210,-0.165
3569,-0.190,-0.170
3570,-0.170,-0.185
3571,-0.135,-0.175
3572,-0.110,-0.170
3573,-0.065,-0.185
3574,0.000,-0.190
3575,0.045,-0.190
3576,0.110,-0.205
3577,0.145,-0.225
3578,0.165,-0.210
3579,0.150,-0.225
3580,0.140,-0.220
3581,0.105,-0.215
3582,0.070,-0.200
3583,0.005,-0.195
3584,-0.035,-0.200
3585,-0.100,-0.175
3586,-0.140,-0.150
3587,-0.185,-0.160
3588,-0.205,-0.135
3589,-0.240,-0.140
3590,-0.265,-0.140
3591,-0.265,-0.135
3592,-0.285,-0.130
3593,-0.295,-0.135
3594,-0.300,-0.125
3595,-0.310,-0.125
3596,-0.295,-0.135
3597,-0.305,-0.110
3598,-0.315,-0.125
3599,-0.325,-0.115
3600,-0.315,-0.110
3601,-0.305,-0.100
3602,-0.315,-0.080
3603,-0.315,-0.070
3604,-0.310,-0.085
3605,-0.325,-0.100
3606,-0.320,-0.090
3607,-0.325,-0.110
3608,-0.320,-0.090
3609,-0.295,-0.105
3610,-0.265,-0.080
3611,-0.255,-0.040
3612,-0.230,-0.015
3613,-0.160,-0.025
3614,-0.140,-0.040
3615,-0.140,-0.055
3616,-0.130,-0.080
3617,-0.120,-0.125
3618,-0.125,-0.155
3619,-0.205,-0.165
3620,-0.240,-0.115
3621,-0.250,-0.130
3622,-0.290,-0.150
3623,-0.280,-0.145
3624,-0.290,-0.150
3625,-0.305,-0.175
3626,-0.295,-0.160
3627,-0.310,-0.150
3628,-0.310,-0.140
3629,-0.305,-0.160
3630,-0.310,-0.170
3631,-0.305,-0.175
3632,-0.310,-0.165
3633,-0.300,-0.180
3634,-0.310,-0.155
3635,-0.315,-0.165
3636,-0.320,-0.150
3637,-0.345,-0.155
3638,-0.460,-0.155
3639,-0.480,-0.160
3640,-0.270,-0.255
3641,0.365,-0.490
3642,1.000,-0.515
3643,0.550,-0.010
3644,-0.620,0.460
3645,-1.085,0.415
3646,-0.795,-0.185
3647,-0.485,-0.310
3648,-0.355,-0.275
3649,-0.350,-0.120
3650,-0.330,-0.135
3651,-0.320,-0.140
3652,-0.330,-0.140
3653,-0.320,-0.140
3654,-0.310,-0.145
3655,-0.290,-0.110
3656,-0.285,-0.140
3657,-0.275,-0.145
3658,-0.275,-0.135
3659,-0.270,-0.135
3660,-0.260,-0.145
3661,-0.260,-0.135
3662,-0.235,-0.150
3663,-0.220,-0.160
3664,-0.205,-0.135
3665,-0.185,-0.130
3666,-0.180,-0.130
3667,-0.130,-0.145
3668,-0.085,-0.155
3669,-0.025,-0.140
3670,0.010,-0.170
3671,0.045,-0.180
3672,0.125,-0.205
3673,0.145,-0.185
3674,0.160,-0.200
3675,0.175,-0.165
3676,0.150,-0.200
3677,0.115,-0.175
3678,0.055,-0.170
3679,0.000,-0.155
3680,-0.075,-0.150
3681,-0.110,-0.150
3682,-0.165,-0.150
3683,-0.200,-0.140
3684,-0.245,-0.130
3685,-0.260,-0.125
3686,-0.275,-0.120
3687,-0.290,-0.120
3688,-0.300,-0.110
3689,-0.305,-0.120
3690,-0.300,-0.105
3691,-0.300,-0.115
3692,-0.310,-0.110
3693,-0.310,-0.100
3694,-0.325,-0.100
3695,-0.325,-0.095
3696,-0.320,-0.105
3697,-0.325,-0.095
3698,-0.330,-0.080
3699,-0.320,-0.090
3700,-0.325,-0.080
3701,-0.315,-0.090
3702,-0.305,-0.090
3703,-0.300,-0.080
3704,-0.310,-0.100
3705,-0.285,-0.090
3706,-0.250,-0.085
3707,-0.250,-0.050
3708,-0.225,-0.030
3709,-0.160,-0.025
3710,-0.120,-0.025
3711,-0.125,-0.035
3712,-0.085,-0.060
3713,-0.085,-0.090
3714,-0.100,-0.135
3715,-0.170,-0.140
3716,-0.220,-0.120
3717,-0.235,-0.095
3718,-0.250,-0.125
3719,-0.275,-0.145
3720,-0.300,-0.140
3721,-0.295,-0.115
3722,-0.300,-0.125
3723,-0.310,-0.115
3724,-0.305,-0.105
3725,-0.315,-0.115
3726,-0.320,-0.105
3727,-0.310,-0.100
3728,-0.320,-0.125
3729,-0.300,-0.095
3730,-0.315,-0.105
3731,-0.310,-0.105
3732,-0.380,-0.105
3733,-0.470,-0.145
3734,-0.465,-0.125
3735,-0.125,-0.265
3736,0.605,-0.505
3737,1.065,-0.355
3738,0.195,0.245
3739,-0.900,0.595
3740,-1.015,0.220
3741,-0.660,-0.215
3742,-0.405,-0.250
3743,-0.340,-0.150
3744,-0.330,-0.065
3745,-0.310,-0.055
3746,-0.305,-0.060
3747,-0.305,-0.060
3748,-0.295,-0.050
3749,-0.290,-0.050
3750,-0.280,-0.045
3751,-0.270,-0.050
3752,-0.270,-0.040
3753,-0.260,-0.025
3754,-0.230,-0.065
3755,-0.235,-0.070
3756,-0.215,-0.040
3757,-0.205,-0.035
3758,-0.175,-0.060
3759,-0.160,-0.050
3760,-0.145,-0.055
3761,-0.105,-0.065
3762,-0.050,-0.060
3763,-0.015,-0.040
3764,0.045,-0.070
3765,0.095,-0.090
3766,0.145,-0.115
3767,0.190,-0.140
3768,0.195,-0.090
3769,0.185,-0.075
3770,0.140,-0.090
3771,0.100,-0.100
3772,0.055,-0.070
3773,0.000,-0.070
3774,-0.040,-0.045
3775,-0.095,-0.050
3776,-0.140,-0.080
3777,-0.170,-0.055
3778,-0.215,-0.065
3779,-0.235,-0.030
3780,-0.235,-0.045
3781,-0.225,-0.045
3782,-0.250,-0.055
3783,-0.275,-0.050
3784,-0.270,-0.025
3785,-0.275,-0.030
3786,-0.265,-0.020
3787,-0.275,-0.025
3788,-0.280,-0.015
3789,-0.280,-0.030
3790,-0.305,-0.035
3791,-0.285,-0.035
3792,-0.315,-0.015
3793,-0.260,-0.020
3794,-0.265,-0.010
3795,-0.260,-0.035
3796,-0.260,-0.045
3797,-0.265,-0.035
3798,-0.250,-0.015
3799,-0.240,-0.020
3800,-0.195,-0.015
3801,-0.245,0.020
3802,-0.210,0.030
3803,-0.095,0.005
3804,-0.065,0.025
3805,-0.075,0.025
3806,-0.070,-0.015
3807,-0.050,-0.055
3808,-0.095,-0.080
3809,-0.180,-0.075
3810,-0.195,-0.045
3811,-0.235,-0.065
3812,-0.260,-0.085
3813,-0.250,-0.095
3814,-0.245,-0.080
3815,-0.275,-0.090
3816,-0.230,-0.105
3817,-0.280,-0.090
3818,-0.280,-0.090
3819,-0.280,-0.095
3820,-0.280,-0.100
3821,-0.275,-0.105
3822,-0.265,-0.100
3823,-0.275,-0.110
3824,-0.275,-0.085
3825,-0.335,-0.085
3826,-0.420,-0.110
3827,-0.405,-0.150
3828,-0.035,-0.295
3829,0.725,-0.520
3830,0.975,-0.320
3831,0.070,0.210
3832,-0.880,0.520
3833,-0.935,0.120
3834,-0.575,-0.265
3835,-0.335,-0.275
3836,-0.270,-0.180
3837,-0.250,-0.090
3838,-0.250,-0.105
3839,-0.230,-0.090
3840,-0.230,-0.080
3841,-0.215,-0.070
3842,-0.215,-0.095
3843,-0.200,-0.090
3844,-0.200,-0.065
3845,-0.180,-0.080
3846,-0.165,-0.080
3847,-0.180,-0.080
3848,-0.140,-0.090
3849,-0.135,-0.085
3850,-0.145,-0.080
3851,-0.125,-0.080
3852,-0.090,-0.080
3853,-0.045,-0.075
3854,-0.010,-0.075
3855,0.015,-0.100
3856,0.085,-0.120
3857,0.145,-0.130
3858,0.185,-0.165
3859,0.220,-0.150
3860,0.235,-0.155
3861,0.240,-0.185
3862,0.210,-0.205
3863,0.155,-0.180
3864,0.100,-0.130
3865,0.050,-0.070
3866,0.050,-0.040
3867,0.000,0.015
3868,-0.055,0.045
3869,-0.110,-0.015
3870,-0.140,-0.060
3871,-0.185,-0.075
3872,-0.215,-0.085
3873,-0.210,-0.080
3874,-0.210,-0.065
3875,-0.230,-0.085
3876,-0.235,-0.085
3877,-0.225,-0.080
3878,-0.225,-0.065
3879,-0.235,-0.045
3880,-0.250,-0.045
3881,-0.260,-0.065
3882,-0.275,-0.070
3883,-0.265,-0.080
3884,-0.250,-0.075
3885,-0.240,-0.070
3886,-0.240,-0.030
3887,-0.225,-0.075
3888,-0.225,-0.090
3889,-0.210,-0.085
3890,-0.215,-0.060
3891,-0.200,-0.060
3892,-0.215,-0.055
3893,-0.320,-0.090
3894,-0.285,-0.115
3895,0.120,-0.195
3896,0.870,-0.385
3897,1.175,-0.335
3898,0.060,0.205
3899,-1.010,0.565
3900,-0.820,0.055
3901,-0.365,-0.250
3902,-0.225,-0.250
3903,-0.220,-0.085
3904,-0.240,-0.080
3905,-0.215,-0.050
3906,-0.220,-0.065
3907,-0.205,-0.060
3908,-0.200,-0.065
3909,-0.195,-0.070
3910,-0.180,-0.060
3911,-0.175,-0.070
3912,-0.165,-0.075
3913,-0.135,-0.060
3914,-0.140,-0.080
3915,-0.140,-0.070
3916,-0.100,-0.060
3917,-0.080,-0.075
3918,-0.045,-0.060
3919,-0.020,-0.080
3920,0.015,-0.090
3921,0.085,-0.080
3922,0.110,-0.110
3923,0.150,-0.120
3924,0.200,-0.125
3925,0.220,-0.125
3926,0.225,-0.150
3927,0.210,-0.150
3928,0.195,-0.155
3929,0.150,-0.155
3930,0.115,-0.135
3931,0.040,-0.130
3932,-0.010,-0.095
3933,-0.055,-0.105
3934,-0.105,-0.090
3935,-0.150,-0.090
3936,-0.175,-0.090
3937,-0.180,-0.085
3938,-0.185,-0.085
3939,-0.200,-0.080
3940,-0.190,-0.075
3941,-0.200,-0.055
3942,-0.190,-0.090
3943,-0.180,-0.095
3944,-0.185,-0.095
3945,-0.205,-0.080
3946,-0.165,-0.095
3947,-0.175,-0.075
3948,-0.155,-0.085
3949,-0.170,-0.075
3950,-0.150,-0.085
3951,-0.175,-0.085
3952,-0.165,-0.080
3953,-0.185,-0.075
3954,-0.180,-0.085
3955,-0.195,-0.075
3956,-0.200,-0.080
3957,-0.200,-0.075
3958,-0.200,-0.080
3959,-0.210,-0.065
3960,-0.210,-0.085
3961,-0.200,-0.085
3962,-0.215,-0.065
3963,-0.210,-0.095
3964,-0.205,-0.070
3965,-0.190,-0.075
3966,-0.170,-0.050
3967,-0.165,-0.015
3968,-0.170,0.000
3969,-0.125,-0.005
3970,-0.065,0.000
3971,-0.040,0.000
3972,-0.045,-0.060
3973,0.000,-0.090
3974,-0.005,-0.110
3975,-0.075,-0.130
3976,-0.130,-0.100
3977,-0.145,-0.095
3978,-0.165,-0.080
3979,-0.200,-0.080
3980,-0.195,-0.080
3981,-0.195,-0.080
3982,-0.190,-0.095
3983,-0.195,-0.085
3984,-0.200,-0.095
3985,-0.200,-0.090
3986,-0.200,-0.075
3987,-0.215,-0.080
3988,-0.210,-0.065
3989,-0.235,-0.105
3990,-0.225,-0.090
3991,-0.235,-0.100
3992,-0.275,-0.055
3993,-0.370,-0.105
3994,-0.415,-0.095
3995,-0.245,-0.200
3996,0.335,-0.430
3997,0.985,-0.485
3998,0.710,0.005
3999,-0.365,0.445
4000,-0.960,0.480
4001,-0.785,-0.085
4002,-0.435,-0.280
4003,-0.275,-0.195
4004,-0.255,-0.085
4005,-0.240,-0.045
4006,-0.235,-0.060
4007,-0.225,-0.035
4008,-0.220,-0.035
4009,-0.205,-0.025
4010,-0.205,-0.030
4011,-0.190,-0.025
4012,-0.200,-0.015
4013,-0.195,-0.040
4014,-0.180,-0.040
4015,-0.165,-0.045
4016,-0.170,-0.040
4017,-0.160,-0.040
4018,-0.145,-0.045
4019,-0.140,-0.055
4020,-0.115,-0.055
4021,-0.085,-0.060
4022,-0.070,-0.050
4023,-0.020,-0.080
4024,0.025,-0.075
4025,0.055,-0.080
4026,0.110,-0.080
4027,0.145,-0.090
4028,0.180,-0.095
4029,0.190,-0.115
4030,0.185,-0.090
4031,0.175,-0.105
4032,0.150,-0.090
4033,0.105,-0.090
4034,0.045,-0.085
4035,0.015,-0.050
4036,-0.035,-0.045
4037,-0.070,-0.065
4038,-0.120,-0.040
4039,-0.125,-0.045
4040,-0.185,-0.040
4041,-0.195,-0.045
4042,-0.215,-0.030
4043,-0.240,-0.050
4044,-0.235,-0.045
4045,-0.240,-0.040
4046,-0.245,-0.045
4047,-0.240,-0.030
4048,-0.250,-0.030
4049,-0.265,-0.025
4050,-0.275,-0.030
4051,-0.280,-0.030
4052,-0.280,-0.030
4053,-0.285,-0.010
4054,-0.285,-0.020
4055,-0.270,-0.015
4056,-0.275,-0.035
4057,-0.290,-0.020
4058,-0.265,-0.020
4059,-0.255,-0.020
4060,-0.260,-0.025
4061,-0.255,-0.025
4062,-0.245,-0.040
4063,-0.250,-0.040
4064,-0.260,-0.045
4065,-0.250,-0.030
4066,-0.225,-0.035
4067,-0.215,-0.020
4068,-0.195,0.005
4069,-0.205,0.015
4070,-0.165,0.020
4071,-0.110,0.015
4072,-0.090,0.000
4073,-0.085,-0.015
4074,-0.075,-0.040
4075,-0.075,-0.090
4076,-0.145,-0.080
4077,-0.205,-0.085
4078,-0.220,-0.040
4079,-0.235,-0.050
4080,-0.265,-0.070
4081,-0.270,-0.080
4082,-0.275,-0.075
4083,-0.275,-0.070
4084,-0.305,-0.065
4085,-0.310,-0.080
4086,-0.315,-0.095
4087,-0.320,-0.070
4088,-0.315,-0.065
4089,-0.320,-0.075
4090,-0.310,-0.080
4091,-0.315,-0.065
4092,-0.340,-0.080
4093,-0.355,-0.060
4094,-0.455,-0.085
4095,-0.470,-0.080
4096,-0.370,-0.130
4097,0.125,-0.335
4098,0.800,-0.480
4099,0.760,-0.150
4100,-0.245,0.415
4101,-1.015,0.610
4102,-0.915,0.105
4103,-0.580,-0.190
4104,-0.385,-0.200
4105,-0.340,-0.090
4106,-0.305,-0.025
4107,-0.280,-0.020
4108,-0.280,-0.020
4109,-0.280,-0.020
4110,-0.280,0.000
4111,-0.260,-0.005
4112,-0.235,-0.005
4113,-0.240,-0.005
4114,-0.225,0.010
4115,-0.230,0.005
4116,-0.215,-0.010
4117,-0.215,-0.010
4118,-0.210,0.000
4119,-0.180,-0.015
4120,-0.175,0.000
4121,-0.145,0.005
4122,-0.135,-0.010
4123,-0.105,-0.015
4124,-0.065,-0.025
4125,-0.020,-0.030
4126,0.040,-0.030
4127,0.095,-0.060
4128,0.145,-0.085
4129,0.160,-0.110
4130,0.185,-0.100
4131,0.155,-0.100
4132,0.165,-0.100
4133,0.145,-0.090
4134,0.090,-0.120
4135,0.020,-0.100
4136,-0.020,-0.090
4137,-0.080,-0.115
4138,-0.170,-0.110
4139,-0.180,-0.080
4140,-0.190,-0.030
4141,-0.215,0.000
4142,-0.215,0.025
4143,-0.210,0.080
4144,-0.210,0.095
4145,-0.245,0.010
4146,-0.240,-0.020
4147,-0.245,-0.020
4148,-0.250,0.005
4149,-0.260,-0.005
4150,-0.245,-0.040
4151,-0.275,-0.025
4152,-0.265,-0.015
4153,-0.255,-0.025
4154,-0.260,-0.040
4155,-0.245,-0.035
4156,-0.245,-0.025
4157,-0.265,-0.025
4158,-0.240,-0.045
4159,-0.245,-0.035
4160,-0.240,-0.050
4161,-0.260,-0.040
4162,-0.235,-0.035
4163,-0.215,-0.035
4164,-0.250,-0.050
4165,-0.260,-0.050
4166,-0.255,-0.035
4167,-0.345,-0.065
4168,-0.365,-0.090
4169,-0.220,-0.115
4170,0.300,-0.285
4171,0.925,-0.465
4172,0.815,-0.260
4173,-0.310,0.325
4174,-1.030,0.555
4175,-0.855,0.035
4176,-0.490,-0.200
4177,-0.310,-0.210
4178,-0.280,-0.095
4179,-0.305,-0.070
4180,-0.285,-0.065
4181,-0.290,-0.045
4182,-0.265,-0.040
4183,-0.250,-0.060
4184,-0.255,-0.070
4185,-0.245,-0.070
4186,-0.245,-0.065
4187,-0.225,-0.070
4188,-0.230,-0.035
4189,-0.200,-0.050
4190,-0.205,-0.070
4191,-0.205,-0.050
4192,-0.175,-0.065
4193,-0.145,-0.050
4194,-0.100,-0.070
4195,-0.070,-0.080
4196,-0.040,-0.075
4197,0.020,-0.080
4198,0.060,-0.100
4199,0.105,-0.120
4200,0.140,-0.125
4201,0.160,-0.150
4202,0.180,-0.130
4203,0.165,-0.140
4204,0.140,-0.140
4205,0.110,-0.140
4206,0.060,-0.130
4207,-0.010,-0.105
4208,-0.095,-0.100
4209,-0.145,-0.075
4210,-0.195,-0.080
4211,-0.240,-0.090
4212,-0.250,-0.085
4213,-0.285,-0.080
4214,-0.315,-0.070
4215,-0.315,-0.060
4216,-0.315,-0.080
4217,-0.310,-0.075
4218,-0.320,-0.055
4219,-0.300,-0.095
4220,-0.300,-0.045
4221,-0.305,-0.050
4222,-0.275,-0.065
4223,-0.285,-0.080
4224,-0.300,-0.075
4225,-0.285,-0.090
4226,-0.270,-0.075
4227,-0.290,-0.085
4228,-0.290,-0.090
4229,-0.260,-0.090
4230,-0.280,-0.060
4231,-0.275,-0.090
4232,-0.285,-0.070
4233,-0.290,-0.055
4234,-0.290,-0.080
4235,-0.285,-0.085
4236,-0.280,-0.075
4237,-0.305,-0.055
4238,-0.300,-0.070
4239,-0.310,-0.080
4240,-0.300,-0.065
4241,-0.300,-0.065
4242,-0.310,-0.040
4243,-0.305,-0.065
4244,-0.305,-0.065
4245,-0.310,-0.045
4246,-0.310,-0.055
4247,-0.285,-0.070
4248,-0.250,-0.020
4249,-0.255,0.000
4250,-0.235,-0.005
4251,-0.160,0.000
4252,-0.145,-0.015
4253,-0.145,-0.035
4254,-0.130,-0.050
4255,-0.120,-0.085
4256,-0.200,-0.110
4257,-0.245,-0.080
4258,-0.275,-0.085
4259,-0.270,-0.085
4260,-0.300,-0.085
4261,-0.305,-0.080
4262,-0.315,-0.105
4263,-0.335,-0.095
4264,-0.315,-0.130
4265,-0.340,-0.095
4266,-0.335,-0.100
4267,-0.330,-0.095
4268,-0.320,-0.095
4269,-0.325,-0.100
4270,-0.330,-0.090
4271,-0.325,-0.075
4272,-0.355,-0.095
4273,-0.450,-0.095
4274,-0.535,-0.110
4275,-0.505,-0.150
4276,-0.030,-0.340
4277,0.770,-0.500
4278,0.965,-0.215
4279,-0.120,0.295
4280,-1.060,0.495
4281,-0.960,-0.050
4282,-0.615,-0.315
4283,-0.415,-0.275
4284,-0.375,-0.135
4285,-0.365,-0.065
4286,-0.345,-0.080
4287,-0.345,-0.095
4288,-0.320,-0.090
4289,-0.320,-0.055
4290,-0.320,-0.085
4291,-0.320,-0.060
4292,-0.325,-0.075
4293,-0.305,-0.080
4294,-0.295,-0.070
4295,-0.320,-0.075
4296,-0.295,-0.075
4297,-0.290,-0.080
4298,-0.280,-0.075
4299,-0.260,-0.080
4300,-0.240,-0.085
4301,-0.205,-0.090
4302,-0.165,-0.095
4303,-0.155,-0.085
4304,-0.085,-0.110
4305,-0.035,-0.130
4306,0.000,-0.150
4307,0.050,-0.140
4308,0.060,-0.155
4309,0.070,-0.145
4310,0.070,-0.150
4311,0.045,-0.155
4312,0.000,-0.135
4313,-0.030,-0.105
4314,-0.080,-0.115
4315,-0.140,-0.085
4316,-0.175,-0.085
4317,-0.210,-0.060
4318,-0.265,-0.055
4319,-0.285,-0.045
4320,-0.305,-0.055
4321,-0.335,-0.050
4322,-0.340,-0.055
4323,-0.340,-0.045
4324,-0.370,-0.060
4325,-0.360,-0.060
4326,-0.360,-0.045
4327,-0.360,-0.045
4328,-0.365,-0.045
4329,-0.370,-0.055
4330,-0.400,-0.030
4331,-0.380,-0.035
4332,-0.375,-0.060
4333,-0.390,-0.040
4334,-0.390,-0.015
4335,-0.385,-0.020
4336,-0.385,-0.035
4337,-0.380,-0.035
4338,-0.350,-0.030
4339,-0.345,-0.040
4340,-0.355,-0.050
4341,-0.350,-0.035
4342,-0.330,-0.065
4343,-0.305,-0.050
4344,-0.280,-0.035
4345,-0.285,0.005
4346,-0.270,0.015
4347,-0.210,0.030
4348,-0.180,0.000
4349,-0.180,-0.020
4350,-0.145,-0.055
4351,-0.160,-0.095
4352,-0.210,-0.115
4353,-0.275,-0.080
4354,-0.295,-0.070
4355,-0.325,-0.080
4356,-0.345,-0.090
4357,-0.335,-0.065
4358,-0.335,-0.070
4359,-0.350,-0.075
4360,-0.370,-0.080
4361,-0.375,-0.055
4362,-0.365,-0.065
4363,-0.365,-0.070
4364,-0.360,-0.060
4365,-0.360,-0.060
4366,-0.360,-0.065
4367,-0.340,-0.065
4368,-0.375,-0.060
4369,-0.475,-0.065
4370,-0.535,-0.080
4371,-0.335,-0.185
4372,0.355,-0.400
4373,1.055,-0.385
4374,0.425,0.145
4375,-0.795,0.580
4376,-1.080,0.395
4377,-0.760,-0.150
4378,-0.460,-0.205
4379,-0.375,-0.120
4380,-0.355,-0.030
4381,-0.350,0.000
4382,-0.320,-0.030
4383,-0.320,-0.030
4384,-0.320,-0.005
4385,-0.315,-0.020
4386,-0.290,-0.025
4387,-0.280,-0.015
4388,-0.295,-0.020
4389,-0.260,-0.020
4390,-0.270,-0.005
4391,-0.245,-0.025
4392,-0.240,-0.020
4393,-0.215,-0.025
4394,-0.225,-0.030
4395,-0.185,-0.030
4396,-0.160,-0.025
4397,-0.125,-0.035
4398,-0.080,-0.025
4399,-0.020,-0.060
4400,0.030,-0.065
4401,0.065,-0.090
4402,0.120,-0.105
4403,0.140,-0.100
4404,0.150,-0.090
4405,0.130,-0.110
4406,0.085,-0.105
4407,0.035,-0.110
4408,-0.015,-0.065
4409,-0.080,-0.060
4410,-0.145,-0.055
4411,-0.190,-0.060
4412,-0.220,-0.035
4413,-0.260,-0.025
4414,-0.300,-0.030
4415,-0.325,-0.020
4416,-0.320,-0.035
4417,-0.335,-0.040
4418,-0.315,-0.010
4419,-0.320,-0.020
4420,-0.335,-0.020
4421,-0.335,-0.020
4422,-0.335,-0.030
4423,-0.355,-0.005
4424,-0.365,-0.015
4425,-0.365,-0.020
4426,-0.365,-0.020
4427,-0.365,-0.010
4428,-0.355,-0.030
4429,-0.340,-0.035
4430,-0.340,-0.015
4431,-0.335,-0.030
4432,-0.345,-0.035
4433,-0.340,-0.040
4434,-0.335,-0.040
4435,-0.320,-0.030
4436,-0.315,-0.020
4437,-0.295,-0.005
4438,-0.290,0.020
4439,-0.250,0.020
4440,-0.195,0.045
4441,-0.175,0.040
4442,-0.185,-0.010
4443,-0.165,-0.045
4444,-0.155,-0.060
4445,-0.205,-0.110
4446,-0.265,-0.075
4447,-0.290,-0.035
4448,-0.330,-0.055
4449,-0.340,-0.075
4450,-0.360,-0.070
4451,-0.355,-0.070
4452,-0.360,-0.070
4453,-0.360,-0.055
4454,-0.375,-0.045
4455,-0.360,-0.045
4456,-0.365,-0.025
4457,-0.370,-0.055
4458,-0.370,-0.045
4459,-0.375,-0.045
4460,-0.365,-0.040
4461,-0.365,-0.055
4462,-0.440,-0.060
4463,-0.525,-0.070
4464,-0.540,-0.075
4465,-0.235,-0.210
4466,0.470,-0.450
4467,0.920,-0.305
4468,0.180,0.265
4469,-0.895,0.620
4470,-1.130,0.320
4471,-0.790,-0.150
4472,-0.490,-0.190
4473,-0.390,-0.105
4474,-0.390,-0.025
4475,-0.375,-0.015
4476,-0.355,-0.025
4477,-0.360,0.000
4478,-0.365,-0.015
4479,-0.340,0.000
4480,-0.350,-0.025
4481,-0.330,-0.010
4482,-0.330,0.005
4483,-0.330,-0.010
4484,-0.315,-0.015
4485,-0.310,-0.010
4486,-0.290,-0.010
4487,-0.285,-0.005
4488,-0.265,0.000
4489,-0.235,0.000
4490,-0.205,0.000
4491,-0.190,-0.010
4492,-0.135,-0.010
4493,-0.095,-0.015
4494,-0.030,-0.025
4495,0.020,-0.035
4496,0.080,-0.040
4497,0.115,-0.035
4498,0.140,-0.090
4499,0.130,-0.075
4500,0.140,-0.080
4501,0.095,-0.070
4502,0.050,-0.075
4503,-0.035,-0.025
4504,-0.075,-0.015
4505,-0.130,0.000
4506,-0.165,-0.015
4507,-0.205,0.000
4508,-0.245,-0.010
4509,-0.265,0.000
4510,-0.270,0.015
4511,-0.305,-0.005
4512,-0.305,0.000
4513,-0.310,0.000
4514,-0.310,-0.005
4515,-0.310,0.000
4516,-0.320,0.000
4517,-0.325,0.000
4518,-0.345,0.000
4519,-0.340,0.000
4520,-0.330,0.005
4521,-0.350,0.030
4522,-0.320,0.030
4523,-0.340,0.020
4524,-0.335,0.030
4525,-0.335,0.010
4526,-0.340,0.030
4527,-0.330,0.025
4528,-0.325,0.045
4529,-0.310,0.020
4530,-0.310,0.025
4531,-0.290,0.020
4532,-0.275,0.060
4533,-0.260,0.080
4534,-0.230,0.075
4535,-0.180,0.080
4536,-0.140,0.090
4537,-0.135,0.040
4538,-0.110,0.035
4539,-0.105,-0.015
4540,-0.115,-0.030
4541,-0.210,-0.030
4542,-0.245,0.000
4543,-0.245,0.000
4544,-0.300,-0.030
4545,-0.305,-0.010
4546,-0.330,-0.005
4547,-0.315,-0.035
4548,-0.325,-0.030
4549,-0.320,-0.040
4550,-0.320,-0.035
4551,-0.340,-0.025
4552,-0.310,-0.030
4553,-0.325,-0.035
4554,-0.335,-0.010
4555,-0.330,-0.040
4556,-0.335,-0.035
4557,-0.370,-0.035
4558,-0.420,-0.035
4559,-0.515,-0.045
4560,-0.490,-0.065
4561,-0.175,-0.230
4562,0.515,-0.435
4563,0.980,-0.305
4564,0.250,0.270
4565,-0.895,0.660
4566,-1.110,0.345
4567,-0.800,-0.150
4568,-0.520,-0.195
4569,-0.410,-0.115
4570,-0.400,-0.035
4571,-0.385,-0.025
4572,-0.365,-0.020
4573,-0.375,-0.015
4574,-0.360,-0.020
4575,-0.350,0.005
4576,-0.360,-0.005
4577,-0.355,-0.005
4578,-0.330,0.000
4579,-0.330,0.000
4580,-0.315,-0.015
4581,-0.305,-0.015
4582,-0.280,0.000
4583,-0.290,-0.020
4584,-0.290,-0.010
4585,-0.255,-0.005
4586,-0.230,-0.015
4587,-0.185,0.000
4588,-0.175,-0.005
4589,-0.120,-0.025
4590,-0.075,-0.025
4591,-0.005,-0.035
4592,0.035,-0.040
4593,0.090,-0.060
4594,0.105,-0.080
4595,0.125,-0.070
4596,0.115,-0.075
4597,0.105,-0.085
4598,0.070,-0.060
4599,0.020,-0.035
4600,-0.045,-0.045
4601,-0.105,-0.030
4602,-0.130,-0.015
4603,-0.195,-0.020
4604,-0.230,0.000
4605,-0.265,-0.015
4606,-0.290,-0.010
4607,-0.310,-0.010
4608,-0.325,0.000
4609,-0.330,0.005
4610,-0.340,0.015
4611,-0.335,0.000
4612,-0.340,0.000
4613,-0.360,0.000
4614,-0.355,0.015
4615,-0.360,0.015
4616,-0.370,0.015
4617,-0.365,0.030
4618,-0.355,0.020
4619,-0.350,0.030
4620,-0.360,0.050
4621,-0.350,0.040
4622,-0.355,0.030
4623,-0.355,0.045
4624,-0.355,0.045
4625,-0.350,0.070
4626,-0.330,0.035
4627,-0.335,0.050
4628,-0.280,0.070
4629,-0.280,0.100
4630,-0.260,0.105
4631,-0.185,0.110
4632,-0.140,0.120
4633,-0.165,0.090
4634,-0.130,0.065
4635,-0.115,0.045
4636,-0.135,-0.005
4637,-0.200,0.000
4638,-0.250,0.025
4639,-0.260,0.030
4640,-0.315,0.010
4641,-0.330,-0.005
4642,-0.335,0.000
4643,-0.330,0.000
4644,-0.330,0.000
4645,-0.335,-0.010
4646,-0.345,-0.015
4647,-0.340,0.000
4648,-0.350,0.005
4649,-0.345,0.000
4650,-0.340,0.000
4651,-0.350,-0.005
4652,-0.365,0.000
4653,-0.360,0.010
4654,-0.385,0.000
4655,-0.455,0.000
4656,-0.520,-0.005
4657,-0.440,-0.050
4658,0.015,-0.215
4659,0.715,-0.390
4660,0.860,-0.085
4661,-0.100,0.490
4662,-1.035,0.735
4663,-0.990,0.200
4664,-0.635,-0.110
4665,-0.405,-0.090
4666,-0.365,-0.010
4667,-0.380,0.030
4668,-0.330,0.035
4669,-0.340,0.040
4670,-0.340,0.060
4671,-0.320,0.040
4672,-0.315,0.040
4673,-0.310,0.045
4674,-0.300,0.045
4675,-0.300,0.045
4676,-0.305,0.045
4677,-0.285,0.040
4678,-0.270,0.045
4679,-0.255,0.050
4680,-0.230,0.025
4681,-0.220,0.075
4682,-0.195,0.040
4683,-0.160,0.055
4684,-0.140,0.030
4685,-0.110,0.040
4686,-0.070,0.035
4687,0.000,0.030
4688,0.020,0.000
4689,0.090,0.010
4690,0.135,-0.005
4691,0.130,-0.010
4692,0.140,-0.035
4693,0.145,-0.015
4694,0.110,-0.035
4695,0.050,-0.015
4696,-0.010,-0.005
4697,-0.035,0.000
4698,-0.100,-0.005
4699,-0.170,0.020
4700,-0.210,0.015
4701,-0.250,0.035
4702,-0.265,0.015
4703,-0.285,0.035
4704,-0.295,0.020
4705,-0.295,0.045
4706,-0.335,0.030
4707,-0.325,0.045
4708,-0.335,0.030
4709,-0.330,0.035
4710,-0.315,0.030
4711,-0.320,0.040
4712,-0.315,0.065
4713,-0.345,0.060
4714,-0.315,0.050
4715,-0.325,0.050
4716,-0.325,0.070
4717,-0.330,0.050
4718,-0.340,0.055
4719,-0.335,0.065
4720,-0.315,0.025
4721,-0.285,0.065
4722,-0.285,0.065
4723,-0.300,0.055
4724,-0.290,0.055
4725,-0.260,0.110
4726,-0.250,0.090
4727,-0.210,0.095
4728,-0.135,0.105
4729,-0.150,0.120
4730,-0.135,0.095
4731,-0.110,0.080
4732,-0.095,0.015
4733,-0.165,-0.010
4734,-0.250,0.015
4735,-0.260,0.020
4736,-0.290,0.035
4737,-0.310,0.010
4738,-0.325,0.005
4739,-0.320,0.000
4740,-0.310,0.030
4741,-0.315,0.000
4742,-0.310,0.005
4743,-0.315,0.000
4744,-0.315,-0.010
4745,-0.310,-0.005
4746,-0.305,0.000
4747,-0.330,0.005
4748,-0.325,0.000
4749,-0.305,0.020
4750,-0.330,0.005
4751,-0.425,0.010
4752,-0.460,-0.005
4753,-0.310,-0.105
4754,0.300,-0.350
4755,0.965,-0.385
4756,0.605,0.040
4757,-0.525,0.515
4758,-1.030,0.635
4759,-0.835,-0.015
4760,-0.475,-0.160
4761,-0.335,-0.110
4762,-0.310,-0.010
4763,-0.285,0.030
4764,-0.275,0.020
4765,-0.260,0.050
4766,-0.260,0.030
4767,-0.245,0.030
4768,-0.235,0.035
4769,-0.240,0.020
4770,-0.240,0.040
4771,-0.255,0.055
4772,-0.235,0.030
4773,-0.215,0.030
4774,-0.225,0.045
4775,-0.170,0.005
4776,-0.170,0.005
4777,-0.170,-0.005
4778,-0.125,0.000
4779,-0.095,0.000
4780,-0.060,0.000
4781,-0.010,0.015
4782,0.045,-0.005
4783,0.105,-0.035
4784,0.145,-0.025
4785,0.190,-0.065
4786,0.190,-0.075
4787,0.225,-0.060
4788,0.200,-0.080
4789,0.165,-0.080
4790,0.115,-0.070
4791,0.060,-0.035
4792,-0.010,-0.030
4793,-0.055,-0.010
4794,-0.090,0.000
4795,-0.130,0.000
4796,-0.185,0.005
4797,-0.185,0.005
4798,-0.215,0.000
4799,-0.230,0.010
4800,-0.240,0.000
4801,-0.245,0.015
4802,-0.250,0.025
4803,-0.265,0.035
4804,-0.280,0.030
4805,-0.275,0.030
4806,-0.280,0.020
4807,-0.270,0.030
4808,-0.280,0.040
4809,-0.270,0.030
4810,-0.280,0.020
4811,-0.280,0.045
4812,-0.275,0.020
4813,-0.260,0.000
4814,-0.265,0.010
4815,-0.275,0.000
4816,-0.245,-0.005
4817,-0.250,-0.005
4818,-0.255,0.000
4819,-0.240,0.000
4820,-0.210,0.030
4821,-0.230,0.055
4822,-0.190,0.050
4823,-0.110,0.060
4824,-0.100,0.035
4825,-0.100,0.015
4826,-0.070,-0.020
4827,-0.075,-0.045
4828,-0.140,-0.060
4829,-0.200,-0.040
4830,-0.220,-0.030
4831,-0.260,-0.040
4832,-0.280,-0.045
4833,-0.300,-0.055
4834,-0.285,-0.040
4835,-0.285,-0.070
4836,-0.285,-0.060
4837,-0.305,-0.050
4838,-0.270,-0.055
4839,-0.305,-0.075
4840,-0.280,-0.050
4841,-0.305,-0.060
4842,-0.320,-0.055
4843,-0.315,-0.025
4844,-0.325,-0.050
4845,-0.375,-0.060
4846,-0.480,-0.050
4847,-0.495,-0.070
4848,-0.085,-0.230
4849,0.695,-0.410
4850,1.115,-0.260
4851,0.220,0.285
4852,-0.915,0.595
4853,-1.005,0.210
4854,-0.665,-0.180
4855,-0.405,-0.190
4856,-0.335,-0.110
4857,-0.325,-0.030
4858,-0.310,-0.035
4859,-0.320,-0.020
4860,-0.300,-0.015
4861,-0.300,-0.025
4862,-0.290,-0.010
4863,-0.275,-0.015
4864,-0.280,-0.030
4865,-0.270,-0.030
4866,-0.250,0.000
4867,-0.255,-0.020
4868,-0.245,-0.020
4869,-0.240,-0.010
4870,-0.220,-0.010
4871,-0.210,-0.040
4872,-0.185,-0.010
4873,-0.160,-0.020
4874,-0.110,-0.020
4875,-0.060,-0.025
4876,-0.015,-0.035
4877,0.045,-0.030
4878,0.115,-0.040
4879,0.160,-0.070
4880,0.195,-0.085
4881,0.205,-0.080
4882,0.205,-0.085
4883,0.185,-0.065
4884,0.115,-0.060
4885,0.050,-0.055
4886,-0.015,-0.055
4887,-0.045,-0.020
4888,-0.115,-0.030
4889,-0.150,-0.020
4890,-0.215,-0.025
4891,-0.230,-0.005
4892,-0.250,0.000
4893,-0.265,0.000
4894,-0.260,0.000
4895,-0.270,0.000
4896,-0.285,0.000
4897,-0.295,0.000
4898,-0.300,0.000
4899,-0.310,-0.005
4900,-0.305,0.000
4901,-0.300,0.005
4902,-0.315,0.005
4903,-0.320,0.000
4904,-0.315,0.000
4905,-0.310,0.005
4906,-0.330,0.005
4907,-0.330,0.000
4908,-0.325,0.000
4909,-0.315,0.005
4910,-0.280,0.010
4911,-0.265,0.060
4912,-0.265,0.090
4913,-0.190,0.085
4914,-0.135,0.105
4915,-0.150,0.035
4916,-0.110,0.015
4917,-0.095,-0.015
4918,-0.105,-0.040
4919,-0.185,-0.030
4920,-0.215,-0.025
4921,-0.245,-0.015
4922,-0.260,-0.035
4923,-0.265,-0.050
4924,-0.295,-0.045
4925,-0.300,-0.050
4926,-0.290,-0.045
4927,-0.295,-0.030
4928,-0.305,-0.040
4929,-0.310,-0.040
4930,-0.315,-0.030
4931,-0.305,-0.040
4932,-0.295,-0.035
4933,-0.310,-0.045
4934,-0.310,-0.040
4935,-0.320,-0.040
4936,-0.425,-0.045
4937,-0.520,-0.040
4938,-0.415,-0.075
4939,0.185,-0.245
4940,0.995,-0.350
4941,0.975,-0.015
4942,-0.310,0.485
4943,-1.105,0.555
4944,-0.820,-0.060
4945,-0.475,-0.210
4946,-0.380,-0.130
4947,-0.380,-0.015
4948,-0.360,-0.040
4949,-0.350,-0.030
4950,-0.355,-0.020
4951,-0.350,-0.015
4952,-0.340,-0.040
4953,-0.335,0.000
4954,-0.340,-0.020
4955,-0.330,-0.030
4956,-0.305,-0.035
4957,-0.290,-0.020
4958,-0.280,-0.020
4959,-0.275,-0.015
4960,-0.260,-0.020
4961,-0.240,-0.015
4962,-0.225,-0.010
4963,-0.205,-0.005
4964,-0.155,0.000
4965,-0.130,-0.010
4966,-0.065,-0.005
4967,0.000,-0.025
4968,0.050,-0.020
4969,0.110,-0.040
4970,0.170,-0.020
4971,0.180,-0.050
4972,0.165,-0.060
4973,0.165,-0.040
4974,0.085,-0.050
4975,0.030,-0.060
4976,-0.045,-0.040
4977,-0.105,-0.035
4978,-0.170,-0.045
4979,-0.205,-0.025
4980,-0.240,-0.040
4981,-0.270,-0.030
4982,-0.300,-0.030
4983,-0.305,-0.015
4984,-0.300,-0.035
4985,-0.335,-0.010
4986,-0.320,-0.035
4987,-0.335,-0.025
4988,-0.320,-0.020
4989,-0.325,-0.005
4990,-0.340,-0.020
4991,-0.345,0.010
4992,-0.360,-0.010
4993,-0.360,-0.015
4994,-0.355,0.000
4995,-0.365,0.015
4996,-0.355,-0.005
4997,-0.345,-0.005
4998,-0.340,-0.005
4999,-0.345,0.015
5000,-0.330,0.000
5001,-0.300,0.080
5002,-0.295,0.100
5003,-0.245,0.090
5004,-0.195,0.080
5005,-0.180,0.040
5006,-0.150,0.010
5007,-0.130,-0.020
5008,-0.125,-0.050
5009,-0.200,-0.050
5010,-0.250,-0.040
5011,-0.280,-0.020
5012,-0.300,-0.060
5013,-0.310,-0.050
5014,-0.315,-0.040
5015,-0.325,-0.050
5016,-0.335,-0.060
5017,-0.320,-0.060
5018,-0.330,-0.075
5019,-0.320,-0.070
5020,-0.340,-0.045
5021,-0.335,-0.045
5022,-0.335,-0.040
5023,-0.330,-0.040
5024,-0.330,-0.050
5025,-0.340,-0.050
5026,-0.380,-0.060
5027,-0.495,-0.040
5028,-0.530,-0.025
5029,-0.260,-0.120
5030,0.420,-0.315
5031,1.070,-0.315
5032,0.610,0.135
5033,-0.625,0.550
5034,-1.125,0.440
5035,-0.800,-0.115
5036,-0.480,-0.175
5037,-0.365,-0.115
5038,-0.360,-0.030
5039,-0.360,-0.035
5040,-0.340,-0.015
5041,-0.320,-0.020
5042,-0.330,-0.015
5043,-0.320,-0.025
5044,-0.315,-0.030
5045,-0.315,-0.035
5046,-0.310,-0.010
5047,-0.300,-0.015
5048,-0.270,-0.035
5049,-0.255,-0.035
5050,-0.250,-0.020
5051,-0.230,-0.045
5052,-0.225,-0.045
5053,-0.205,-0.015
5054,-0.180,-0.015
5055,-0.175,-0.025
5056,-0.130,-0.040
5057,-0.105,-0.045
5058,-0.035,-0.050
5059,0.025,-0.045
5060,0.075,-0.070
5061,0.130,-0.075
5062,0.155,-0.090
5063,0.175,-0.090
5064,0.175,-0.125
5065,0.160,-0.090
5066,0.115,-0.065
5067,0.055,-0.060
5068,0.000,-0.055
5069,-0.055,-0.065
5070,-0.105,-0.065
5071,-0.135,-0.055
5072,-0.195,-0.055
5073,-0.230,-0.055
5074,-0.265,-0.035
5075,-0.285,-0.030
5076,-0.280,-0.035
5077,-0.285,-0.035
5078,-0.300,-0.050
5079,-0.310,-0.055
5080,-0.295,-0.040
5081,-0.315,-0.040
5082,-0.325,-0.050
5083,-0.325,-0.020
5084,-0.335,-0.040
5085,-0.335,-0.030
5086,-0.350,-0.040
5087,-0.350,-0.040
5088,-0.335,-0.010
5089,-0.350,-0.020
5090,-0.340,-0.035
5091,-0.325,-0.020
5092,-0.345,-0.020
5093,-0.330,-0.025
5094,-0.330,-0.025
5095,-0.320,-0.015
5096,-0.290,-0.015
5097,-0.280,0.000
5098,-0.275,0.045
5099,-0.250,0.030
5100,-0.175,0.040
5101,-0.155,0.040
5102,-0.155,-0.005
5103,-0.135,-0.040
5104,-0.135,-0.060
5105,-0.165,-0.080
5106,-0.230,-0.095
5107,-0.265,-0.065
5108,-0.300,-0.065
5109,-0.300,-0.085
5110,-0.320,-0.095
5111,-0.320,-0.085
5112,-0.340,-0.100
5113,-0.335,-0.105
5114,-0.355,-0.105
5115,-0.345,-0.095
5116,-0.345,-0.100
5117,-0.350,-0.075
5118,-0.340,-0.075
5119,-0.350,-0.085
5120,-0.350,-0.090
5121,-0.345,-0.085
5122,-0.340,-0.085
5123,-0.370,-0.095
5124,-0.475,-0.095
5125,-0.510,-0.090
5126,-0.330,-0.190
5127,0.235,-0.410
5128,0.840,-0.440
5129,0.495,0.045
5130,-0.550,0.505
5131,-1.095,0.515
5132,-0.910,-0.035
5133,-0.590,-0.220
5134,-0.415,-0.195
5135,-0.375,-0.080
5136,-0.360,-0.055
5137,-0.355,-0.010
5138,-0.340,-0.025
5139,-0.335,-0.010
5140,-0.325,-0.025
5141,-0.315,-0.010
5142,-0.295,-0.015
5143,-0.290,-0.015
5144,-0.290,-0.005
5145,-0.280,-0.025
5146,-0.275,-0.005
5147,-0.260,-0.025
5148,-0.260,-0.025
5149,-0.245,-0.020
5150,-0.230,0.000
5151,-0.180,-0.015
5152,-0.165,-0.010
5153,-0.140,-0.025
5154,-0.090,-0.030
5155,-0.050,-0.045
5156,0.000,-0.035
5157,0.035,-0.070
5158,0.085,-0.080
5159,0.135,-0.065
5160,0.150,-0.105
5161,0.140,-0.070
5162,0.135,-0.080
5163,0.095,-0.075
5164,0.050,-0.080
5165,0.000,-0.040
5166,-0.060,-0.045
5167,-0.105,-0.015
5168,-0.155,-0.010
5169,-0.195,-0.015
5170,-0.215,-0.010
5171,-0.245,0.000
5172,-0.260,-0.005
5173,-0.270,0.000
5174,-0.280,0.000
5175,-0.285,-0.010
5176,-0.310,0.005
5177,-0.295,0.000
5178,-0.300,0.000
5179,-0.325,0.005
5180,-0.315,0.005
5181,-0.320,0.010
5182,-0.320,0.010
5183,-0.330,0.005
5184,-0.335,0.005
5185,-0.340,0.025
5186,-0.325,0.025
5187,-0.335,0.010
5188,-0.340,0.005
5189,-0.315,0.010
5190,-0.315,0.015
5191,-0.310,0.020
5192,-0.310,0.020
5193,-0.305,0.015
5194,-0.280,0.020
5195,-0.260,0.050
5196,-0.255,0.080
5197,-0.220,0.070
5198,-0.150,0.070
5199,-0.135,0.085
5200,-0.150,0.025
5201,-0.130,0.005
5202,-0.130,-0.035
5203,-0.175,-0.060
5204,-0.270,-0.060
5205,-0.265,-0.015
5206,-0.315,-0.035
5207,-0.335,-0.045
5208,-0.365,-0.030
5209,-0.360,-0.040
5210,-0.350,-0.030
5211,-0.370,-0.030
5212,-0.365,-0.060
5213,-0.370,-0.040
5214,-0.380,-0.055
5215,-0.370,-0.060
5216,-0.365,-0.050
5217,-0.360,-0.035
5218,-0.370,-0.040
5219,-0.375,-0.035
5220,-0.380,-0.035
5221,-0.470,-0.035
5222,-0.545,-0.050
5223,-0.510,-0.070
5224,-0.070,-0.240
5225,0.655,-0.430
5226,0.920,-0.160
5227,-0.095,0.465
5228,-1.075,0.710
5229,-1.015,0.195
5230,-0.645,-0.115
5231,-0.440,-0.140
5232,-0.400,-0.040
5233,-0.380,0.015
5234,-0.375,-0.005
5235,-0.375,0.000
5236,-0.365,-0.005
5237,-0.360,0.000
5238,-0.355,0.015
5239,-0.345,0.000
5240,-0.340,0.000
5241,-0.340,0.020
5242,-0.330,0.005
5243,-0.330,0.000
5244,-0.315,0.020
5245,-0.295,0.020
5246,-0.280,0.005
5247,-0.265,0.010
5248,-0.260,0.030
5249,-0.220,0.015
5250,-0.195,0.005
5251,-0.135,0.000
5252,-0.085,0.000
5253,-0.040,0.005
5254,0.010,-0.020
5255,0.055,-0.020
5256,0.095,-0.030
5257,0.115,-0.045
5258,0.110,-0.015
5259,0.100,-0.035
5260,0.065,-0.055
5261,0.020,-0.045
5262,-0.035,-0.010
5263,-0.095,0.000
5264,-0.150,0.005
5265,-0.205,0.010
5266,-0.260,0.030
5267,-0.285,0.020
5268,-0.300,0.025
5269,-0.305,0.020
5270,-0.315,0.025
5271,-0.310,0.020
5272,-0.325,0.030
5273,-0.330,0.035
5274,-0.335,0.060
5275,-0.340,0.030
5276,-0.330,0.055
5277,-0.340,0.025
5278,-0.335,0.030
5279,-0.355,0.025
5280,-0.335,0.050
5281,-0.340,0.025
5282,-0.350,0.055
5283,-0.350,0.055
5284,-0.340,0.045
5285,-0.345,0.050
5286,-0.335,0.060
5287,-0.340,0.040
5288,-0.330,0.035
5289,-0.295,0.060
5290,-0.295,0.110
5291,-0.270,0.145
5292,-0.190,0.115
5293,-0.155,0.120
5294,-0.160,0.070
5295,-0.150,0.030
5296,-0.130,0.000
5297,-0.160,-0.015
5298,-0.230,-0.015
5299,-0.265,0.010
5300,-0.285,0.015
5301,-0.320,0.005
5302,-0.320,0.000
5303,-0.335,0.005
5304,-0.335,0.000
5305,-0.350,0.010
5306,-0.325,-0.010
5307,-0.355,-0.005
5308,-0.340,0.010
5309,-0.350,0.010
5310,-0.355,0.020
5311,-0.345,0.000
5312,-0.350,0.010
5313,-0.335,0.005
5314,-0.375,0.015
5315,-0.465,-0.010
5316,-0.500,-0.005
5317,-0.410,-0.055
5318,0.130,-0.255
5319,0.840,-0.395
5320,0.700,0.045
5321,-0.440,0.620
5322,-1.120,0.690
5323,-0.900,0.090
5324,-0.545,-0.135
5325,-0.400,-0.080
5326,-0.370,0.025
5327,-0.365,0.040
5328,-0.370,0.040
5329,-0.355,0.005
5330,-0.355,0.030
5331,-0.335,0.025
5332,-0.340,0.025
5333,-0.345,0.015
5334,-0.325,0.015
5335,-0.320,0.000
5336,-0.310,0.015
5337,-0.285,0.035
5338,-0.285,0.005
5339,-0.275,0.015
5340,-0.255,0.035
5341,-0.245,0.010
5342,-0.215,0.000
5343,-0.165,0.015
5344,-0.140,0.000
5345,-0.085,0.005
5346,-0.015,-0.005
5347,0.045,-0.010
5348,0.065,-0.010
5349,0.105,-0.025
5350,0.115,-0.055
5351,0.120,-0.030
5352,0.115,-0.035
5353,0.060,-0.035
5354,-0.010,-0.015
5355,-0.045,-0.025
5356,-0.120,0.000
5357,-0.175,0.015
5358,-0.240,0.015
5359,-0.255,0.020
5360,-0.290,0.035
5361,-0.325,0.020
5362,-0.335,0.010
5363,-0.345,0.025
5364,-0.350,0.010
5365,-0.345,0.015
5366,-0.340,0.035
5367,-0.355,0.025
5368,-0.350,0.020
5369,-0.355,0.035
5370,-0.340,0.020
5371,-0.360,0.025
5372,-0.380,0.040
5373,-0.355,0.045
5374,-0.365,0.045
5375,-0.355,0.050
5376,-0.350,0.045
5377,-0.345,0.055
5378,-0.330,0.060
5379,-0.335,0.040
5380,-0.320,0.055
5381,-0.305,0.055
5382,-0.285,0.090
5383,-0.260,0.115
5384,-0.240,0.125
5385,-0.165,0.120
5386,-0.150,0.120
5387,-0.160,0.065
5388,-0.145,0.055
5389,-0.120,0.000
5390,-0.175,-0.020
5391,-0.270,0.005
5392,-0.275,0.025
5393,-0.305,0.025
5394,-0.330,0.015
5395,-0.360,0.015
5396,-0.355,0.025
5397,-0.345,0.000
5398,-0.355,0.040
5399,-0.350,0.000
5400,-0.340,0.000
5401,-0.330,0.010
5402,-0.335,0.010
5403,-0.330,0.040
5404,-0.335,0.040
5405,-0.320,0.050
5406,-0.350,0.030
5407,-0.380,0.030
5408,-0.475,0.025
5409,-0.480,0.025
5410,-0.200,-0.105
5411,0.455,-0.340
5412,0.920,-0.230
5413,0.120,0.405
5414,-0.960,0.775
5415,-1.035,0.320
5416,-0.675,-0.090
5417,-0.400,-0.090
5418,-0.355,0.000
5419,-0.350,0.050
5420,-0.340,0.075
5421,-0.320,0.045
5422,-0.315,0.085
5423,-0.320,0.075
5424,-0.315,0.080
5425,-0.300,0.080
5426,-0.285,0.065
5427,-0.290,0.085
5428,-0.265,0.085
5429,-0.250,0.085
5430,-0.255,0.075
5431,-0.230,0.070
5432,-0.215,0.075
5433,-0.220,0.085
5434,-0.195,0.065
5435,-0.140,0.060
5436,-0.110,0.065
5437,-0.080,0.050
5438,0.000,0.030
5439,0.035,0.030
5440,0.075,0.010
5441,0.120,-0.005
5442,0.135,0.000
5443,0.155,-0.010
5444,0.140,0.000
5445,0.115,0.000
5446,0.095,0.010
5447,0.015,0.040
5448,-0.030,0.035
5449,-0.080,0.035
5450,-0.135,0.035
5451,-0.170,0.045
5452,-0.200,0.055
5453,-0.230,0.060
5454,-0.255,0.060
5455,-0.265,0.050
5456,-0.265,0.050
5457,-0.295,0.055
5458,-0.295,0.060
5459,-0.310,0.060
5460,-0.325,0.045
5461,-0.315,0.060
5462,-0.350,0.050
5463,-0.315,0.035
5464,-0.330,0.060
5465,-0.325,0.050
5466,-0.320,0.060
5467,-0.310,0.060
5468,-0.305,0.050
5469,-0.290,0.045
5470,-0.315,0.060
5471,-0.310,0.045
5472,-0.280,0.025
5473,-0.295,0.055
5474,-0.305,0.035
5475,-0.260,0.045
5476,-0.255,0.100
5477,-0.260,0.100
5478,-0.215,0.085
5479,-0.135,0.105
5480,-0.125,0.110
5481,-0.115,0.075
5482,-0.105,0.040
5483,-0.115,0.000
5484,-0.200,0.000
5485,-0.255,0.020
5486,-0.255,0.035
5487,-0.295,0.005
5488,-0.310,-0.015
5489,-0.300,0.000
5490,-0.325,0.000
5491,-0.325,-0.010
5492,-0.310,0.000
5493,-0.325,0.010
5494,-0.330,0.010
5495,-0.330,0.005
5496,-0.345,-0.005
5497,-0.335,0.000
5498,-0.330,0.005
5499,-0.325,0.000
5500,-0.345,0.000
5501,-0.385,0.005
5502,-0.465,0.000
5503,-0.450,-0.010
5504,-0.240,-0.150
5505,0.455,-0.390
5506,0.955,-0.295
5507,0.310,0.200
5508,-0.700,0.580
5509,-1.020,0.435
5510,-0.775,-0.085
5511,-0.480,-0.175
5512,-0.365,-0.095
5513,-0.330,0.020
5514,-0.340,0.040
5515,-0.315,0.020
5516,-0.320,0.025
5517,-0.285,0.025
5518,-0.290,0.035
5519,-0.290,0.015
5520,-0.290,0.040
5521,-0.280,0.040
5522,-0.295,0.040
5523,-0.275,0.045
5524,-0.250,0.035
5525,-0.240,0.020
5526,-0.225,0.055
5527,-0.215,0.035
5528,-0.180,0.000
5529,-0.145,0.025
5530,-0.105,0.020
5531,-0.050,0.020
5532,-0.010,0.000
5533,0.030,-0.015
5534,0.100,-0.020
5535,0.130,-0.035
5536,0.155,-0.065
5537,0.175,-0.065
5538,0.150,-0.055
5539,0.140,-0.025
5540,0.110,-0.015
5541,0.050,-0.010
5542,0.000,-0.015
5543,-0.065,0.005
5544,-0.100,0.010
5545,-0.150,0.025
5546,-0.170,0.030
5547,-0.190,0.045
5548,-0.225,0.070
5549,-0.225,0.045
5550,-0.255,0.040
5551,-0.275,0.060
5552,-0.280,0.060
5553,-0.285,0.070
5554,-0.300,0.075
5555,-0.285,0.060
5556,-0.300,0.055
5557,-0.290,0.065
5558,-0.300,0.080
5559,-0.300,0.070
5560,-0.300,0.065
5561,-0.280,0.065
5562,-0.265,0.060
5563,-0.260,0.055
5564,-0.275,0.075
5565,-0.255,0.050
5566,-0.255,0.075
5567,-0.245,0.050
5568,-0.250,0.040
5569,-0.240,0.045
5570,-0.235,0.070
5571,-0.210,0.105
5572,-0.215,0.140
5573,-0.175,0.135
5574,-0.100,0.135
5575,-0.110,0.130
5576,-0.100,0.100
5577,-0.085,0.065
5578,-0.080,0.050
5579,-0.140,0.025
5580,-0.210,0.035
5581,-0.215,0.050
5582,-0.250,0.035
5583,-0.270,0.025
5584,-0.295,0.010
5585,-0.290,0.040
5586,-0.300,0.025
5587,-0.290,0.015
5588,-0.290,0.020
5589,-0.295,0.020
5590,-0.310,0.020
5591,-0.320,0.020
5592,-0.330,0.025
5593,-0.310,0.040
5594,-0.320,0.030
5595,-0.320,0.020
5596,-0.320,0.005
5597,-0.380,0.015
5598,-0.480,0.000
5599,-0.455,-0.020
5600,-0.100,-0.160
5601,0.585,-0.355
5602,0.975,-0.210
5603,0.260,0.315
5604,-0.765,0.625
5605,-1.045,0.435
5606,-0.770,-0.075
5607,-0.485,-0.155
5608,-0.395,-0.085
5609,-0.355,0.055
5610,-0.360,0.030
5611,-0.340,0.060
5612,-0.315,0.045
5613,-0.315,0.055
5614,-0.325,0.060
5615,-0.335,0.070
5616,-0.315,0.060
5617,-0.305,0.080
5618,-0.300,0.065
5619,-0.285,0.080
5620,-0.270,0.070
5621,-0.255,0.075
5622,-0.255,0.060
5623,-0.230,0.070
5624,-0.210,0.065
5625,-0.195,0.060
5626,-0.175,0.060
5627,-0.145,0.055
5628,-0.090,0.060
5629,-0.045,0.045
5630,0.000,0.030
5631,0.060,0.010
5632,0.105,0.010
5633,0.095,0.030
5634,0.115,0.000
5635,0.105,0.015
5636,0.080,-0.005
5637,0.060,0.015
5638,0.000,0.035
5639,-0.055,0.055
5640,-0.105,0.045
5641,-0.155,0.085
5642,-0.200,0.075
5643,-0.225,0.080
5644,-0.265,0.090
5645,-0.280,0.105
5646,-0.300,0.085
5647,-0.325,0.100
5648,-0.305,0.110
5649,-0.325,0.110
5650,-0.330,0.130
5651,-0.340,0.125
5652,-0.340,0.125
5653,-0.340,0.120
5654,-0.360,0.145
5655,-0.340,0.155
5656,-0.355,0.160
5657,-0.355,0.155
5658,-0.345,0.160
5659,-0.325,0.155
5660,-0.340,0.160
5661,-0.335,0.155
5662,-0.325,0.165
5663,-0.305,0.170
5664,-0.290,0.180
5665,-0.280,0.165
5666,-0.260,0.180
5667,-0.250,0.205
5668,-0.235,0.225
5669,-0.195,0.215
5670,-0.135,0.230
5671,-0.120,0.210
5672,-0.115,0.190
5673,-0.085,0.160
5674,-0.090,0.115
5675,-0.155,0.100
5676,-0.220,0.125
5677,-0.260,0.120
5678,-0.270,0.120
5679,-0.290,0.100
5680,-0.310,0.085
5681,-0.305,0.115
5682,-0.310,0.105
5683,-0.310,0.105
5684,-0.310,0.115
5685,-0.325,0.105
5686,-0.315,0.105
5687,-0.315,0.115
5688,-0.330,0.115
5689,-0.315,0.120
5690,-0.315,0.105
5691,-0.315,0.120
5692,-0.320,0.115
5693,-0.360,0.115
5694,-0.410,0.115
5695,-0.495,0.110
5696,-0.420,0.070
5697,0.010,-0.120
5698,0.695,-0.310
5699,0.955,-0.035
5700,0.060,0.600
5701,-0.945,0.865
5702,-1.010,0.360
5703,-0.660,0.015
5704,-0.410,0.000
5705,-0.370,0.080
5706,-0.345,0.165
5707,-0.335,0.145
5708,-0.320,0.135
5709,-0.330,0.145
5710,-0.300,0.140
5711,-0.315,0.150
5712,-0.335,0.160
5713,-0.310,0.145
5714,-0.285,0.130
5715,-0.275,0.140
5716,-0.290,0.165
5717,-0.270,0.150
5718,-0.250,0.160
5719,-0.250,0.135
5720,-0.235,0.135
5721,-0.215,0.140
5722,-0.205,0.140
5723,-0.160,0.130
5724,-0.135,0.135
5725,-0.115,0.125
5726,-0.055,0.130
5727,0.000,0.125
5728,0.050,0.105
5729,0.100,0.090
5730,0.125,0.085
5731,0.135,0.080
5732,0.125,0.080
5733,0.105,0.085
5734,0.070,0.085
5735,0.025,0.090
5736,-0.035,0.130
5737,-0.095,0.120
5738,-0.140,0.120
5739,-0.190,0.115
5740,-0.225,0.110
5741,-0.255,0.135
5742,-0.280,0.140
5743,-0.290,0.135
5744,-0.305,0.130
5745,-0.315,0.125
5746,-0.300,0.130
5747,-0.315,0.125
5748,-0.310,0.135
5749,-0.330,0.155
5750,-0.330,0.145
5751,-0.325,0.125
5752,-0.335,0.150
5753,-0.325,0.115
5754,-0.320,0.150
5755,-0.325,0.155
5756,-0.340,0.150
5757,-0.330,0.150
5758,-0.325,0.165
5759,-0.320,0.185
5760,-0.320,0.165
5761,-0.310,0.180
5762,-0.315,0.185
5763,-0.260,0.185
5764,-0.280,0.210
5765,-0.255,0.215
5766,-0.210,0.220
5767,-0.135,0.195
5768,-0.135,0.230
5769,-0.105,0.200
5770,-0.095,0.175
5771,-0.085,0.120
5772,-0.150,0.100
5773,-0.215,0.105
5774,-0.245,0.110
5775,-0.255,0.120
5776,-0.270,0.125
5777,-0.290,0.115
5778,-0.310,0.115
5779,-0.300,0.085
5780,-0.315,0.085
5781,-0.265,0.095
5782,-0.295,0.080
5783,-0.315,0.105
5784,-0.300,0.095
5785,-0.275,0.085
5786,-0.320,0.110
5787,-0.290,0.095
5788,-0.295,0.095
5789,-0.295,0.100
5790,-0.315,0.115
5791,-0.400,0.110
5792,-0.465,0.085
5793,-0.375,0.020
5794,0.110,-0.165
5795,0.895,-0.305
5796,0.895,0.025
5797,-0.205,0.525
5798,-1.005,0.735
5799,-0.905,0.145
5800,-0.560,-0.075
5801,-0.355,-0.060
5802,-0.315,0.060
5803,-0.295,0.075
5804,-0.305,0.115
5805,-0.285,0.110
5806,-0.255,0.105
5807,-0.235,0.100
5808,-0.255,0.120
5809,-0.260,0.100
5810,-0.245,0.120
5811,-0.250,0.100
5812,-0.240,0.095
5813,-0.235,0.100
5814,-0.215,0.100
5815,-0.200,0.080
5816,-0.210,0.090
5817,-0.165,0.085
5818,-0.160,0.080
5819,-0.110,0.085
5820,-0.090,0.080
5821,-0.025,0.040
5822,0.010,0.060
5823,0.085,0.020
5824,0.135,0.040
5825,0.160,0.000
5826,0.185,-0.020
5827,0.185,-0.025
5828,0.150,-0.025
5829,0.130,-0.045
5830,0.070,-0.065
5831,0.005,-0.060
5832,-0.015,0.010
5833,-0.070,0.065
5834,-0.130,0.080
5835,-0.160,0.150
5836,-0.145,0.215
5837,-0.195,0.150
5838,-0.215,0.095
5839,-0.245,0.075
5840,-0.265,0.080
5841,-0.270,0.065
5842,-0.275,0.075
5843,-0.285,0.080
5844,-0.285,0.080
5845,-0.300,0.050
5846,-0.305,0.050
5847,-0.315,0.060
5848,-0.300,0.070
5849,-0.330,0.070
5850,-0.310,0.070
5851,-0.305,0.060
5852,-0.290,0.065
5853,-0.310,0.065
5854,-0.295,0.070
5855,-0.275,0.070
5856,-0.270,0.065
5857,-0.260,0.060
5858,-0.265,0.100
5859,-0.270,0.075
5860,-0.305,0.065
5861,-0.370,0.050
5862,-0.285,0.035
5863,0.225,-0.060
5864,1.025,-0.235
5865,1.095,-0.140
5866,-0.365,0.485
5867,-1.145,0.645
5868,-0.815,0.075
5869,-0.420,-0.100
5870,-0.315,-0.035
5871,-0.300,0.070
5872,-0.290,0.105
5873,-0.295,0.095
5874,-0.295,0.080
5875,-0.285,0.085
5876,-0.300,0.090
5877,-0.275,0.100
5878,-0.275,0.110
5879,-0.275,0.110
5880,-0.260,0.095
5881,-0.255,0.115
5882,-0.225,0.115
5883,-0.215,0.115
5884,-0.185,0.085
5885,-0.165,0.100
5886,-0.135,0.085
5887,-0.095,0.105
5888,-0.065,0.090
5889,0.000,0.075
5890,0.040,0.080
5891,0.090,0.065
5892,0.115,0.050
5893,0.145,0.030
5894,0.150,0.025
5895,0.135,0.050
5896,0.095,0.045
5897,0.070,0.065
5898,0.005,0.085
5899,-0.055,0.080
5900,-0.135,0.080
5901,-0.175,0.110
5902,-0.220,0.090
5903,-0.245,0.095
5904,-0.280,0.120
5905,-0.295,0.100
5906,-0.315,0.100
5907,-0.310,0.130
5908,-0.310,0.095
5909,-0.280,0.095
5910,-0.285,0.110
5911,-0.295,0.095
5912,-0.255,0.095
5913,-0.255,0.095
5914,-0.250,0.120
5915,-0.245,0.105
5916,-0.260,0.100
5917,-0.240,0.100
5918,-0.240,0.115
5919,-0.250,0.110
5920,-0.250,0.125
5921,-0.245,0.110
5922,-0.235,0.115
5923,-0.255,0.115
5924,-0.245,0.115
5925,-0.250,0.115
5926,-0.265,0.110
5927,-0.275,0.125
5928,-0.270,0.115
5929,-0.270,0.125
5930,-0.260,0.125
5931,-0.270,0.130
5932,-0.270,0.130
5933,-0.285,0.095
5934,-0.270,0.115
5935,-0.250,0.130
5936,-0.240,0.150
5937,-0.230,0.190
5938,-0.195,0.200
5939,-0.105,0.190
5940,-0.100,0.180
5941,-0.100,0.145
5942,-0.080,0.105
5943,-0.090,0.085
5944,-0.165,0.080
5945,-0.210,0.115
5946,-0.215,0.110
5947,-0.265,0.095
5948,-0.275,0.075
5949,-0.280,0.070
5950,-0.270,0.085
5951,-0.285,0.075
5952,-0.285,0.065
5953,-0.290,0.050
5954,-0.275,0.055
5955,-0.280,0.090
5956,-0.295,0.075
5957,-0.295,0.065
5958,-0.295,0.080
5959,-0.310,0.065
5960,-0.310,0.090
5961,-0.380,0.095
5962,-0.490,0.075
5963,-0.470,0.040
5964,-0.070,-0.110
5965,0.725,-0.325
5966,1.070,-0.055
5967,0.075,0.510
5968,-0.950,0.755
5969,-0.985,0.265
5970,-0.630,-0.080
5971,-0.400,-0.065
5972,-0.345,0.065
5973,-0.350,0.115
5974,-0.335,0.115
5975,-0.305,0.130
5976,-0.330,0.115
5977,-0.310,0.130
5978,-0.305,0.115
5979,-0.305,0.120
5980,-0.295,0.120
5981,-0.280,0.110
5982,-0.285,0.100
5983,-0.275,0.110
5984,-0.255,0.115
5985,-0.250,0.120
5986,-0.230,0.110
5987,-0.220,0.100
5988,-0.210,0.075
5989,-0.175,0.080
5990,-0.165,0.085
5991,-0.090,0.090
5992,-0.045,0.090
5993,0.000,0.045
5994,0.040,0.050
5995,0.065,0.060
5996,0.095,0.055
5997,0.100,0.030
5998,0.110,0.035
5999,0.080,0.050
6000,0.045,0.055
6001,0.000,0.090
6002,-0.050,0.095
6003,-0.085,0.100
6004,-0.120,0.090
6005,-0.170,0.115
6006,-0.210,0.105
6007,-0.230,0.120
6008,-0.255,0.120
6009,-0.280,0.115
6010,-0.305,0.135
6011,-0.320,0.130
6012,-0.295,0.115
6013,-0.325,0.125
6014,-0.325,0.120
6015,-0.320,0.130
6016,-0.320,0.135
6017,-0.330,0.110
6018,-0.335,0.140
6019,-0.335,0.135
6020,-0.350,0.125
6021,-0.345,0.140
6022,-0.360,0.160
6023,-0.350,0.135
6024,-0.335,0.155
6025,-0.335,0.155
6026,-0.330,0.145
6027,-0.325,0.140
6028,-0.315,0.125
6029,-0.310,0.125
6030,-0.300,0.140
6031,-0.280,0.155
6032,-0.255,0.175
6033,-0.245,0.190
6034,-0.205,0.225
6035,-0.155,0.210
6036,-0.140,0.185
6037,-0.135,0.170
6038,-0.090,0.150
6039,-0.085,0.110
6040,-0.125,0.100
6041,-0.205,0.110
6042,-0.220,0.140
6043,-0.240,0.140
6044,-0.270,0.110
6045,-0.280,0.125
6046,-0.280,0.125
6047,-0.295,0.125
6048,-0.290,0.115
6049,-0.290,0.110
6050,-0.285,0.120
6051,-0.285,0.120
6052,-0.290,0.140
6053,-0.300,0.130
6054,-0.290,0.135
6055,-0.310,0.130
6056,-0.305,0.135
6057,-0.310,0.120
6058,-0.345,0.135
6059,-0.430,0.120
6060,-0.430,0.115
6061,-0.160,-0.020
6062,0.515,-0.240
6063,0.995,-0.125
6064,0.320,0.450
6065,-0.755,0.815
6066,-1.025,0.550
6067,-0.715,0.050
6068,-0.440,-0.010
6069,-0.315,0.050
6070,-0.315,0.140
6071,-0.290,0.140
6072,-0.290,0.160
6073,-0.290,0.170
6074,-0.300,0.155
6075,-0.285,0.160
6076,-0.265,0.180
6077,-0.265,0.170
6078,-0.255,0.180
6079,-0.235,0.195
6080,-0.245,0.140
6081,-0.230,0.190
6082,-0.245,0.165
6083,-0.215,0.190
6084,-0.205,0.165
6085,-0.175,0.170
6086,-0.130,0.165
6087,-0.115,0.160
6088,-0.090,0.155
6089,-0.040,0.160
6090,0.000,0.145
6091,0.055,0.125
6092,0.110,0.120
6093,0.160,0.095
6094,0.175,0.090
6095,0.190,0.080
6096,0.180,0.070
6097,0.130,0.110
6098,0.110,0.105
6099,0.035,0.110
6100,-0.010,0.140
6101,-0.070,0.140
6102,-0.120,0.140
6103,-0.165,0.145
6104,-0.195,0.135
6105,-0.245,0.155
6106,-0.250,0.160
6107,-0.265,0.140
6108,-0.275,0.155
6109,-0.280,0.150
6110,-0.270,0.155
6111,-0.295,0.160
6112,-0.300,0.145
6113,-0.310,0.150
6114,-0.315,0.150
6115,-0.325,0.165
6116,-0.340,0.155
6117,-0.270,0.155
6118,-0.105,0.165
6119,0.065,0.090
6120,0.100,-0.005
6121,0.230,-0.170
6122,0.295,-0.400
6123,-0.005,-0.455
6124,-0.645,-0.435
6125,-0.895,-0.330
6126,-0.915,-0.175
6127,-0.670,0.110
6128,-0.510,0.460
6129,-0.520,0.770
6130,-0.515,0.760
6131,-0.400,0.510
6132,-0.270,0.210
6133,-0.160,0.170
6134,-0.145,0.240
6135,-0.145,0.235
6136,-0.115,0.270
6137,-0.100,0.225
6138,-0.165,0.245
6139,-0.195,0.220
6140,-0.220,0.255
6141,-0.210,0.260
6142,-0.180,0.275
6143,-0.170,0.280
6144,-0.145,0.315
6145,-0.120,0.330
6146,-0.085,0.330
6147,-0.040,0.360
6148,0.005,0.350
6149,0.055,0.360
6150,0.120,0.345
6151,0.185,0.350
6152,0.220,0.310
6153,0.260,0.305
6154,0.280,0.290
6155,0.295,0.260
6156,0.275,0.235
6157,0.245,0.220
6158,0.205,0.200
6159,0.140,0.200
6160,0.085,0.180
6161,0.025,0.190
6162,-0.035,0.200
6163,-0.085,0.220
6164,-0.135,0.200
6165,-0.170,0.245
6166,-0.185,0.245
6167,-0.190,0.245
6168,-0.205,0.235
6169,-0.220,0.245
6170,-0.230,0.230
6171,-0.210,0.225
6172,-0.195,0.260
6173,-0.185,0.235
6174,-0.190,0.250
6175,-0.170,0.260
6176,-0.180,0.245
6177,-0.180,0.245
6178,-0.165,0.235
6179,-0.180,0.230
6180,-0.180,0.205
6181,-0.170,0.225
6182,-0.175,0.235
6183,-0.180,0.210
6184,-0.185,0.215
6185,-0.190,0.205
6186,-0.185,0.215
6187,-0.160,0.205
6188,-0.175,0.220
6189,-0.180,0.205
6190,-0.175,0.215
6191,-0.185,0.200
6192,-0.170,0.195
6193,-0.170,0.220
6194,-0.175,0.195
6195,-0.205,0.170
6196,-0.210,0.200
6197,-0.170,0.195
6198,-0.170,0.210
6199,-0.205,0.200
6200,-0.180,0.190
6201,-0.190,0.220
6202,-0.180,0.180
6203,-0.170,0.205
6204,-0.185,0.205
6205,-0.170,0.215
6206,-0.175,0.210
6207,-0.160,0.220
6208,-0.155,0.205
6209,-0.165,0.195
6210,-0.170,0.205
6211,-0.190,0.200
6212,-0.180,0.190
6213,-0.185,0.160
6214,-0.170,0.190
6215,-0.165,0.205
6216,-0.165,0.210
6217,-0.145,0.190
6218,-0.170,0.215
6219,-0.160,0.205
6220,-0.165,0.190
6221,-0.170,0.205
6222,-0.165,0.220
6223,-0.145,0.220
6224,-0.160,0.200
6225,-0.175,0.185
6226,-0.160,0.205
6227,-0.125,0.230
6228,-0.125,0.255
6229,-0.115,0.275
6230,-0.085,0.275
6231,-0.005,0.280
6232,-0.020,0.265
6233,0.000,0.220
6234,0.025,0.200
6235,-0.010,0.160
6236,-0.070,0.140
6237,-0.090,0.150
6238,-0.120,0.165
6239,-0.155,0.135
6240,-0.170,0.140
6241,-0.180,0.145
6242,-0.185,0.125
6243,-0.190,0.145
6244,-0.175,0.130
6245,-0.215,0.130
6246,-0.185,0.130
6247,-0.180,0.130
6248,-0.210,0.120
6249,-0.190,0.120
6250,-0.205,0.125
6251,-0.230,0.125
6252,-0.315,0.125
6253,-0.370,0.125
6254,-0.355,0.060
6255,0.140,-0.125
6256,0.895,-0.280
6257,1.085,0.040
6258,0.105,0.550
6259,-0.815,0.775
6260,-0.850,0.315
6261,-0.535,-0.045
6262,-0.305,-0.045
6263,-0.255,0.055
6264,-0.240,0.150
6265,-0.225,0.170
6266,-0.220,0.190
6267,-0.215,0.150
6268,-0.190,0.180
6269,-0.190,0.155
6270,-0.155,0.180
6271,-0.165,0.180
6272,-0.155,0.170
6273,-0.145,0.145
6274,-0.125,0.145
6275,-0.120,0.110
6276,-0.115,0.125
6277,-0.080,0.100
6278,-0.080,0.125
6279,-0.050,0.120
6280,-0.025,0.155
6281,0.000,0.135
6282,0.030,0.150
6283,0.065,0.135
6284,0.110,0.135
6285,0.140,0.125
6286,0.195,0.105
6287,0.205,0.105
6288,0.220,0.095
6289,0.225,0.110
6290,0.215,0.115
6291,0.205,0.100
6292,0.175,0.150
6293,0.150,0.165
6294,0.120,0.160
6295,0.080,0.180
6296,0.030,0.165
6297,-0.010,0.230
6298,-0.035,0.215
6299,-0.035,0.210
6300,-0.070,0.215
6301,-0.110,0.255
6302,-0.110,0.230
6303,-0.120,0.250
6304,-0.125,0.265
6305,-0.150,0.250
6306,-0.160,0.250
6307,-0.150,0.270
6308,-0.165,0.255
6309,-0.155,0.280
6310,-0.165,0.290
6311,-0.150,0.285
6312,-0.160,0.285
6313,-0.140,0.310
6314,-0.140,0.280
6315,-0.115,0.285
6316,-0.125,0.275
6317,-0.105,0.280
6318,-0.100,0.280
6319,-0.075,0.265
6320,-0.055,0.250
6321,-0.060,0.245
6322,-0.065,0.240
6323,-0.050,0.235
6324,-0.015,0.270
6325,-0.050,0.315
6326,-0.020,0.320
6327,0.045,0.315
6328,0.065,0.325
6329,0.070,0.270
6330,0.085,0.245
6331,0.105,0.225
6332,0.025,0.205
6333,-0.050,0.215
6334,-0.060,0.230
6335,-0.105,0.225
6336,-0.120,0.205
6337,-0.135,0.190
6338,-0.145,0.215
6339,-0.145,0.180
6340,-0.130,0.180
6341,-0.140,0.185
6342,-0.150,0.205
6343,-0.145,0.195
6344,-0.135,0.200
6345,-0.150,0.195
6346,-0.145,0.215
6347,-0.155,0.220
6348,-0.145,0.215
6349,-0.170,0.200
6350,-0.285,0.185
6351,-0.310,0.200
6352,-0.135,0.100
6353,0.490,-0.105
6354,1.150,-0.135
6355,0.790,0.380
6356,-0.465,0.880
6357,-0.980,0.820
6358,-0.635,0.160
6359,-0.320,0.065
6360,-0.195,0.140
6361,-0.190,0.230
6362,-0.180,0.220
6363,-0.180,0.225
6364,-0.160,0.230
6365,-0.170,0.235
6366,-0.175,0.235
6367,-0.155,0.220
6368,-0.135,0.235
6369,-0.140,0.225
6370,-0.130,0.220
6371,-0.120,0.210
6372,-0.090,0.220
6373,-0.075,0.230
6374,-0.075,0.240
6375,-0.070,0.235
6376,-0.040,0.235
6377,-0.020,0.230
6378,0.000,0.225
6379,0.040,0.210
6380,0.075,0.205
6381,0.140,0.205
6382,0.220,0.205
6383,0.230,0.180
6384,0.270,0.170
6385,0.280,0.160
6386,0.270,0.170
6387,0.250,0.170
6388,0.210,0.180
6389,0.160,0.215
6390,0.100,0.205
6391,0.030,0.255
6392,-0.030,0.265
6393,-0.060,0.245
6394,-0.100,0.250
6395,-0.130,0.255
6396,-0.150,0.255
6397,-0.175,0.260
6398,-0.170,0.250
6399,-0.205,0.255
6400,-0.195,0.225
6401,-0.185,0.275
6402,-0.200,0.260
6403,-0.190,0.275
6404,-0.220,0.275
6405,-0.235,0.300
6406,-0.230,0.280
6407,-0.215,0.285
6408,-0.225,0.295
6409,-0.215,0.280
6410,-0.215,0.285
6411,-0.205,0.285
6412,-0.210,0.295
6413,-0.205,0.290
6414,-0.210,0.270
6415,-0.190,0.280
6416,-0.185,0.290
6417,-0.155,0.300
6418,-0.155,0.355
6419,-0.115,0.345
6420,-0.035,0.335
6421,-0.030,0.330
6422,-0.005,0.290
6423,0.010,0.250
6424,-0.010,0.200
6425,-0.085,0.205
6426,-0.135,0.240
6427,-0.155,0.275
6428,-0.180,0.250
6429,-0.210,0.230
6430,-0.205,0.260
6431,-0.185,0.270
6432,-0.200,0.245
6433,-0.185,0.230
6434,-0.200,0.245
6435,-0.190,0.245
6436,-0.180,0.250
6437,-0.190,0.260
6438,-0.175,0.275
6439,-0.170,0.265
6440,-0.150,0.270
6441,-0.185,0.270
6442,-0.260,0.275
6443,-0.345,0.265
6444,-0.325,0.235
6445,0.085,0.010
6446,0.805,-0.225
6447,0.865,0.140
6448,-0.195,0.790
6449,-0.925,0.925
6450,-0.730,0.315
6451,-0.370,0.095
6452,-0.230,0.140
6453,-0.200,0.235
6454,-0.180,0.275
6455,-0.160,0.265
6456,-0.165,0.285
6457,-0.155,0.300
6458,-0.140,0.300
6459,-0.145,0.280
6460,-0.140,0.285
6461,-0.130,0.305
6462,-0.125,0.295
6463,-0.095,0.295
6464,-0.115,0.335
6465,-0.080,0.270
6466,-0.060,0.280
6467,-0.075,0.300
6468,-0.075,0.295
6469,-0.015,0.275
6470,0.020,0.300
6471,0.040,0.270
6472,0.090,0.275
6473,0.135,0.255
6474,0.185,0.215
6475,0.215,0.235
6476,0.280,0.215
6477,0.300,0.210
6478,0.295,0.200
6479,0.265,0.185
6480,0.235,0.220
6481,0.180,0.225
6482,0.095,0.245
6483,0.050,0.255
6484,0.000,0.270
6485,-0.055,0.270
6486,-0.105,0.260
6487,-0.120,0.280
6488,-0.130,0.275
6489,-0.160,0.280
6490,-0.190,0.280
6491,-0.210,0.275
6492,-0.210,0.285
6493,-0.195,0.285
6494,-0.225,0.270
6495,-0.200,0.280
6496,-0.235,0.275
6497,-0.240,0.265
6498,-0.230,0.275
6499,-0.250,0.280
6500,-0.250,0.275
6501,-0.240,0.285
6502,-0.235,0.305
6503,-0.240,0.270
6504,-0.225,0.285
6505,-0.240,0.265
6506,-0.230,0.275
