'sample interval','ECG0','ECG1'
'0.0078125 sec','mV','mV'
0,0.005,-0.215
1,0.025,-0.190
2,0.040,-0.165
3,0.050,-0.110
4,0.035,-0.090
5,0.040,-0.075
6,0.030,-0.060
7,0.000,-0.085
8,-0.025,-0.115
9,-0.040,-0.190
10,-0.015,-0.210
11,-0.035,-0.220
12,-0.025,-0.240
13,-0.015,-0.265
14,-0.015,-0.265
15,-0.025,-0.250
16,-0.025,-0.265
17,-0.030,-0.280
18,-0.020,-0.275
19,-0.010,-0.275
20,-0.020,-0.270
21,-0.015,-0.265
22,0.000,-0.275
23,-0.005,-0.290
24,-0.010,-0.360
25,0.080,-0.425
26,0.270,-0.210
27,0.375,0.450
28,0.150,0.700
29,-0.180,0.265
30,-0.225,-0.430
31,-0.110,-0.760
32,-0.035,-0.585
33,-0.035,-0.315
34,-0.020,-0.280
35,-0.035,-0.270
36,-0.030,-0.275
37,-0.030,-0.280
38,-0.015,-0.265
39,-0.010,-0.245
40,-0.005,-0.265
41,-0.010,-0.280
42,0.000,-0.265
43,0.000,-0.240
44,-0.005,-0.255
45,0.000,-0.240
46,0.005,-0.230
47,0.000,-0.235
48,0.005,-0.220
49,0.000,-0.210
50,-0.005,-0.200
51,0.010,-0.175
52,0.010,-0.150
53,0.005,-0.150
54,0.010,-0.155
55,0.005,-0.145
56,0.010,-0.100
57,0.000,-0.105
58,0.010,-0.085
59,0.010,-0.075
60,0.010,-0.055
61,0.030,-0.050
62,0.020,-0.040
63,0.040,-0.055
64,0.045,-0.050
65,0.050,-0.080
66,0.050,-0.075
67,0.050,-0.105
68,0.035,-0.110
69,0.030,-0.170
70,0.030,-0.180
71,0.040,-0.185
72,0.030,-0.190
73,0.025,-0.190
74,0.040,-0.175
75,0.035,-0.175
76,0.030,-0.200
77,0.030,-0.170
78,0.020,-0.205
79,0.015,-0.175
80,0.035,-0.175
81,0.035,-0.170
82,0.025,-0.160
83,0.020,-0.165
84,0.035,-0.160
85,0.035,-0.175
86,0.025,-0.160
87,0.030,-0.165
88,0.020,-0.185
89,0.025,-0.170
90,0.025,-0.170
91,0.015,-0.195
92,0.005,-0.170
93,0.010,-0.195
94,0.000,-0.185
95,0.010,-0.210
96,0.025,-0.190
97,0.035,-0.145
98,0.055,-0.100
99,0.065,-0.085
100,0.040,-0.070
101,0.020,-0.055
102,0.000,-0.090
103,-0.030,-0.135
104,-0.040,-0.215
105,-0.015,-0.200
106,-0.005,-0.255
107,0.000,-0.270
108,0.000,-0.260
109,0.000,-0.270
110,0.000,-0.290
111,0.000,-0.295
112,-0.005,-0.290
113,-0.015,-0.300
114,-0.020,-0.290
115,-0.020,-0.290
116,0.000,-0.295
117,0.000,-0.280
118,-0.015,-0.310
119,0.000,-0.420
120,0.120,-0.425
121,0.330,-0.090
122,0.300,0.550
123,-0.010,0.440
124,-0.260,0.015
125,-0.155,-0.670
126,-0.070,-0.700
127,-0.035,-0.435
128,-0.040,-0.310
129,-0.035,-0.290
130,-0.035,-0.300
131,-0.030,-0.295
132,-0.020,-0.295
133,-0.020,-0.290
134,-0.025,-0.300
135,-0.025,-0.270
136,-0.015,-0.285
137,-0.015,-0.280
138,-0.010,-0.265
139,-0.025,-0.280
140,-0.025,-0.280
141,-0.020,-0.270
142,0.000,-0.260
143,0.000,-0.245
144,-0.005,-0.240
145,-0.010,-0.215
146,-0.005,-0.220
147,-0.005,-0.205
148,0.000,-0.190
149,0.005,-0.155
150,0.000,-0.140
151,0.000,-0.170
152,0.015,-0.160
153,0.000,-0.130
154,0.015,-0.105
155,0.020,-0.090
156,0.020,-0.080
157,0.045,-0.075
158,0.055,-0.075
159,0.040,-0.075
160,0.050,-0.080
161,0.050,-0.095
162,0.035,-0.160
163,0.040,-0.170
164,0.030,-0.170
165,0.040,-0.185
166,0.045,-0.195
167,0.015,-0.175
168,0.025,-0.220
169,0.045,-0.200
170,0.045,-0.195
171,0.045,-0.195
172,0.055,-0.175
173,0.055,-0.180
174,0.035,-0.170
175,0.055,-0.155
176,0.060,-0.160
177,0.055,-0.140
178,0.070,-0.170
179,0.045,-0.145
180,0.045,-0.155
181,0.060,-0.150
182,0.060,-0.145
183,0.045,-0.175
184,0.040,-0.160
185,0.035,-0.155
186,0.055,-0.180
187,0.040,-0.170
188,0.030,-0.180
189,0.035,-0.195
190,0.045,-0.180
191,0.045,-0.165
192,0.065,-0.150
193,0.075,-0.135
194,0.090,-0.055
195,0.075,-0.025
196,0.085,-0.025
197,0.050,-0.030
198,0.025,-0.085
199,0.005,-0.135
200,0.025,-0.175
201,0.030,-0.180
202,0.040,-0.205
203,0.040,-0.225
204,0.025,-0.235
205,0.030,-0.230
206,0.025,-0.230
207,0.035,-0.240
208,0.030,-0.235
209,0.015,-0.225
210,0.025,-0.220
211,0.040,-0.230
212,0.035,-0.225
213,0.030,-0.230
214,0.030,-0.315
215,0.105,-0.380
216,0.285,-0.160
217,0.410,0.495
218,0.220,0.715
219,-0.070,0.270
220,-0.180,-0.045
221,-0.085,-0.580
222,-0.010,-0.590
223,0.010,-0.290
224,0.000,-0.245
225,0.020,-0.230
226,0.020,-0.225
227,-0.010,-0.225
228,0.010,-0.255
229,0.000,-0.255
230,0.000,-0.220
231,0.005,-0.255
232,0.000,-0.230
233,0.000,-0.250
234,0.000,-0.230
235,-0.005,-0.225
236,0.000,-0.210
237,0.000,-0.195
238,0.000,-0.200
239,0.000,-0.185
240,0.015,-0.195
241,0.000,-0.175
242,0.000,-0.180
243,-0.010,-0.150
244,0.000,-0.150
245,0.000,-0.110
246,0.015,-0.085
247,0.005,-0.090
248,0.000,-0.115
249,0.005,-0.110
250,0.000,-0.050
251,0.015,-0.080
252,0.020,-0.060
253,0.035,-0.050
254,0.055,-0.030
255,0.055,-0.040
256,0.065,-0.055
257,0.070,-0.080
258,0.065,-0.135
259,0.045,-0.130
260,0.025,-0.170
261,0.040,-0.180
262,0.030,-0.175
263,0.035,-0.170
264,0.055,-0.170
265,0.045,-0.185
266,0.055,-0.185
267,0.040,-0.170
268,0.055,-0.170
269,0.060,-0.170
270,0.055,-0.140
271,0.055,-0.140
272,0.055,-0.135
273,0.045,-0.125
274,0.045,-0.125
275,0.050,-0.120
276,0.050,-0.125
277,0.035,-0.160
278,0.045,-0.130
279,0.040,-0.140
280,0.045,-0.160
281,0.030,-0.170
282,0.040,-0.160
283,0.045,-0.175
284,0.030,-0.170
285,0.035,-0.175
286,0.045,-0.175
287,0.065,-0.150
288,0.070,-0.100
289,0.075,-0.065
290,0.075,-0.040
291,0.070,-0.020
292,0.055,-0.025
293,0.025,-0.070
294,0.005,-0.140
295,0.020,-0.155
296,0.025,-0.160
297,0.025,-0.185
298,0.025,-0.205
299,0.030,-0.220
300,0.025,-0.220
301,0.020,-0.240
302,0.040,-0.220
303,0.035,-0.225
304,0.040,-0.225
305,0.055,-0.210
306,0.035,-0.215
307,0.045,-0.230
308,0.040,-0.240
309,0.030,-0.320
310,0.150,-0.330
311,0.310,-0.035
312,0.385,0.695
313,0.285,0.895
314,0.080,0.365
315,-0.085,0.000
316,-0.045,-0.635
317,0.000,-0.595
318,0.005,-0.300
319,0.010,-0.260
320,0.000,-0.260
321,0.000,-0.240
322,0.010,-0.225
323,0.005,-0.225
324,0.000,-0.215
325,0.000,-0.240
326,0.000,-0.250
327,0.000,-0.240
328,0.005,-0.220
329,0.010,-0.205
330,0.005,-0.215
331,0.015,-0.225
332,0.000,-0.190
333,0.005,-0.195
334,0.020,-0.180
335,0.015,-0.155
336,0.000,-0.155
337,0.010,-0.145
338,0.010,-0.125
339,0.020,-0.115
340,0.015,-0.080
341,0.010,-0.075
342,0.005,-0.110
343,0.005,-0.100
344,0.000,-0.090
345,0.000,-0.085
346,0.005,-0.060
347,0.015,-0.060
348,0.030,-0.060
349,0.035,-0.045
350,0.035,-0.045
351,0.045,-0.055
352,0.055,-0.075
353,0.040,-0.120
354,0.030,-0.130
355,0.030,-0.150
356,0.030,-0.175
357,0.020,-0.195
358,0.030,-0.180
359,0.010,-0.190
360,0.015,-0.190
361,0.035,-0.195
362,0.005,-0.160
363,0.025,-0.165
364,0.025,-0.140
365,0.010,-0.155
366,0.025,-0.145
367,0.015,-0.140
368,0.015,-0.150
369,0.005,-0.145
370,0.015,-0.135
371,0.005,-0.140
372,0.000,-0.170
373,0.000,-0.150
374,0.000,-0.170
375,0.000,-0.155
376,-0.005,-0.175
377,0.000,-0.155
378,0.000,-0.185
379,0.000,-0.195
380,0.000,-0.175
381,0.000,-0.195
382,0.010,-0.175
383,0.020,-0.130
384,0.040,-0.115
385,0.060,-0.065
386,0.045,-0.055
387,0.035,-0.040
388,0.005,-0.060
389,-0.020,-0.105
390,-0.010,-0.160
391,0.000,-0.190
392,-0.005,-0.190
393,0.000,-0.225
394,0.010,-0.235
395,-0.015,-0.245
396,0.000,-0.240
397,-0.005,-0.240
398,0.000,-0.245
399,0.000,-0.245
400,0.000,-0.230
401,0.000,-0.235
402,-0.005,-0.220
403,-0.005,-0.255
404,-0.005,-0.320
405,0.045,-0.375
406,0.165,-0.330
407,0.385,0.160
408,0.420,0.925
409,0.190,0.880
410,-0.125,0.320
411,-0.155,-0.365
412,-0.060,-0.655
413,-0.025,-0.385
414,-0.020,-0.275
415,-0.020,-0.255
416,-0.010,-0.270
417,-0.010,-0.265
418,-0.020,-0.255
419,-0.010,-0.270
420,-0.005,-0.260
421,-0.015,-0.260
422,-0.010,-0.245
423,-0.005,-0.245
424,-0.015,-0.245
425,0.000,-0.265
426,0.000,-0.220
427,0.000,-0.225
428,0.005,-0.210
429,0.000,-0.190
430,0.020,-0.185
431,0.010,-0.160
432,0.010,-0.140
433,0.000,-0.120
434,0.020,-0.140
435,0.015,-0.120
436,0.025,-0.100
437,0.015,-0.060
438,0.020,-0.050
439,0.010,-0.050
440,0.030,-0.035
441,0.025,-0.035
442,0.030,-0.030
443,0.040,-0.010
444,0.065,-0.010
445,0.065,-0.025
446,0.065,-0.065
447,0.045,-0.075
448,0.025,-0.095
449,0.035,-0.115
450,0.050,-0.160
451,0.015,-0.125
452,0.020,-0.165
453,0.015,-0.160
454,0.025,-0.175
455,0.025,-0.160
456,0.035,-0.190
457,0.030,-0.175
458,0.035,-0.160
459,0.030,-0.175
460,0.035,-0.165
461,0.030,-0.150
462,0.025,-0.145
463,0.015,-0.150
464,0.020,-0.150
465,0.020,-0.135
466,0.015,-0.140
467,0.015,-0.135
468,0.015,-0.135
469,0.020,-0.145
470,0.030,-0.140
471,0.010,-0.155
472,0.020,-0.155
473,0.005,-0.155
474,0.020,-0.165
475,0.015,-0.160
476,0.030,-0.155
477,0.020,-0.145
478,0.055,-0.145
479,0.060,-0.105
480,0.065,-0.050
481,0.055,-0.025
482,0.030,-0.005
483,0.000,-0.065
484,-0.010,-0.120
485,-0.025,-0.155
486,-0.005,-0.160
487,-0.005,-0.180
488,0.000,-0.230
489,0.000,-0.240
490,0.000,-0.235
491,-0.010,-0.240
492,-0.020,-0.245
493,-0.005,-0.230
494,-0.015,-0.240
495,-0.030,-0.265
496,-0.005,-0.255
497,-0.010,-0.270
498,-0.005,-0.265
499,-0.015,-0.315
500,0.015,-0.400
501,0.115,-0.355
502,0.265,-0.090
503,0.365,0.340
504,0.125,0.665
505,-0.170,0.250
506,-0.180,-0.485
507,-0.045,-0.605
508,-0.010,-0.290
509,-0.030,-0.310
510,-0.025,-0.280
511,-0.020,-0.235
512,-0.025,-0.270
513,-0.015,-0.265
514,-0.010,-0.270
515,0.000,-0.250
516,0.000,-0.255
517,0.000,-0.275
518,-0.005,-0.250
519,-0.005,-0.260
520,-0.010,-0.235
521,0.000,-0.245
522,0.000,-0.245
523,0.000,-0.245
524,-0.005,-0.230
525,0.010,-0.200
526,0.010,-0.200
527,0.000,-0.190
528,0.015,-0.165
529,0.020,-0.150
530,0.020,-0.145
531,0.015,-0.125
532,0.025,-0.115
533,0.010,-0.080
534,0.035,-0.080
535,0.030,-0.080
536,0.035,-0.060
537,0.035,-0.045
538,0.040,-0.045
539,0.025,-0.045
540,0.075,-0.055
541,0.050,-0.070
542,0.050,-0.090
543,0.035,-0.130
544,0.025,-0.140
545,0.025,-0.120
546,0.030,-0.170
547,0.020,-0.190
548,0.015,-0.185
549,0.025,-0.180
550,0.025,-0.190
551,0.050,-0.190
552,0.025,-0.180
553,0.035,-0.175
554,0.045,-0.170
555,0.045,-0.155
556,0.045,-0.170
557,0.055,-0.165
558,0.035,-0.145
559,0.050,-0.160
560,0.045,-0.155
561,0.060,-0.155
562,0.055,-0.140
563,0.050,-0.150
564,0.040,-0.145
565,0.040,-0.155
566,0.040,-0.155
567,0.040,-0.160
568,0.040,-0.180
569,0.070,-0.170
570,0.060,-0.170
571,0.025,-0.180
572,0.055,-0.145
573,0.080,-0.125
574,0.100,-0.105
575,0.100,-0.060
576,0.075,-0.035
577,0.035,-0.025
578,0.030,-0.065
579,0.015,-0.100
580,0.000,-0.160
581,0.010,-0.190
582,0.030,-0.195
583,0.020,-0.225
584,0.020,-0.220
585,0.025,-0.245
586,0.030,-0.245
587,0.020,-0.245
588,0.015,-0.230
589,0.015,-0.230
590,0.025,-0.240
591,0.025,-0.240
592,0.040,-0.250
593,0.035,-0.235
594,0.000,-0.295
595,0.005,-0.395
596,0.110,-0.415
597,0.295,-0.210
598,0.420,0.425
599,0.155,0.625
600,-0.175,0.205
601,-0.135,-0.555
602,-0.010,-0.590
603,0.015,-0.285
604,0.010,-0.275
605,0.010,-0.225
606,0.000,-0.240
607,0.010,-0.235
608,0.015,-0.245
609,0.005,-0.255
610,0.025,-0.245
611,0.020,-0.240
612,0.010,-0.240
613,0.005,-0.225
614,0.010,-0.225
615,0.005,-0.230
616,0.025,-0.210
617,0.000,-0.215
618,0.010,-0.195
619,0.020,-0.185
620,0.010,-0.190
621,0.005,-0.185
622,0.025,-0.180
623,0.010,-0.160
624,0.015,-0.130
625,0.025,-0.120
626,0.015,-0.110
627,0.030,-0.105
628,0.035,-0.085
629,0.015,-0.085
630,0.020,-0.055
631,0.025,-0.035
632,0.040,-0.050
633,0.030,-0.050
634,0.055,-0.035
635,0.050,-0.040
636,0.055,-0.065
637,0.050,-0.060
638,0.055,-0.095
639,0.035,-0.115
640,0.025,-0.135
641,0.035,-0.160
642,0.025,-0.185
643,0.040,-0.190
644,0.035,-0.205
645,0.035,-0.185
646,0.030,-0.175
647,0.035,-0.165
648,0.030,-0.175
649,0.050,-0.160
650,0.035,-0.145
651,0.045,-0.170
652,0.040,-0.170
653,0.025,-0.155
654,0.040,-0.120
655,0.060,-0.140
656,0.040,-0.135
657,0.035,-0.170
658,0.040,-0.165
659,0.030,-0.160
660,0.030,-0.175
661,0.030,-0.135
662,0.035,-0.170
663,0.045,-0.170
664,0.035,-0.155
665,0.035,-0.170
666,0.035,-0.185
667,0.035,-0.160
668,0.040,-0.190
669,0.070,-0.125
670,0.085,-0.095
671,0.080,-0.025
672,0.070,-0.025
673,0.050,-0.030
674,0.025,-0.060
675,0.005,-0.080
676,0.000,-0.175
677,0.015,-0.175
678,0.020,-0.180
679,0.015,-0.205
680,0.000,-0.250
681,0.020,-0.230
682,0.020,-0.230
683,0.010,-0.220
684,0.000,-0.220
685,0.005,-0.215
686,0.035,-0.230
687,0.035,-0.220
688,0.025,-0.185
689,0.015,-0.220
690,0.030,-0.275
691,0.050,-0.360
692,0.180,-0.305
693,0.355,0.090
694,0.365,0.815
695,0.135,0.615
696,-0.130,0.130
697,-0.160,-0.420
698,-0.040,-0.750
699,0.005,-0.455
700,0.015,-0.215
701,0.005,-0.240
702,0.015,-0.215
703,0.010,-0.250
704,0.010,-0.260
705,0.010,-0.250
706,0.030,-0.240
707,0.015,-0.215
708,0.015,-0.225
709,0.010,-0.215
710,0.020,-0.225
711,0.010,-0.200
712,0.015,-0.210
713,0.015,-0.210
714,0.020,-0.200
715,0.005,-0.180
716,0.015,-0.155
717,0.010,-0.130
718,0.020,-0.135
719,0.020,-0.165
720,0.020,-0.115
721,0.015,-0.110
722,0.015,-0.095
723,0.025,-0.090
724,0.010,-0.075
725,0.010,-0.065
726,0.010,-0.065
727,0.010,-0.040
728,0.020,-0.050
729,0.030,-0.025
730,0.035,-0.030
731,0.040,0.010
732,0.045,-0.025
733,0.045,-0.070
734,0.045,-0.080
735,0.040,-0.105
736,0.050,-0.125
737,0.045,-0.135
738,0.030,-0.145
739,0.035,-0.160
740,0.045,-0.155
741,0.040,-0.150
742,0.015,-0.160
743,0.040,-0.155
744,0.030,-0.140
745,0.050,-0.140
746,0.040,-0.130
747,0.040,-0.110
748,0.025,-0.115
749,0.030,-0.110
750,0.030,-0.100
751,0.030,-0.110
752,0.015,-0.105
753,0.020,-0.110
754,0.010,-0.125
755,0.005,-0.125
756,0.000,-0.130
757,0.000,-0.140
758,0.010,-0.145
759,0.005,-0.160
760,0.000,-0.150
761,0.005,-0.170
762,0.010,-0.155
763,0.010,-0.125
764,0.030,-0.110
765,0.035,-0.085
766,0.040,-0.060
767,0.040,-0.050
768,0.025,-0.030
769,0.010,-0.050
770,-0.010,-0.095
771,-0.020,-0.155
772,0.005,-0.175
773,0.000,-0.170
774,-0.010,-0.200
775,0.000,-0.225
776,0.000,-0.235
777,-0.005,-0.240
778,-0.005,-0.235
779,-0.010,-0.250
780,-0.005,-0.240
781,0.000,-0.235
782,-0.010,-0.245
783,0.000,-0.220
784,0.005,-0.235
785,-0.010,-0.290
786,0.035,-0.400
787,0.160,-0.270
788,0.315,0.170
789,0.385,1.025
790,0.260,1.110
791,-0.040,0.410
792,-0.140,-0.295
793,-0.070,-0.715
794,-0.040,-0.475
795,-0.035,-0.260
796,-0.025,-0.235
797,-0.020,-0.250
798,-0.030,-0.250
799,-0.015,-0.225
800,-0.030,-0.245
801,-0.010,-0.260
802,-0.020,-0.245
803,-0.025,-0.235
804,-0.005,-0.230
805,-0.005,-0.230
806,-0.015,-0.235
807,-0.020,-0.225
808,0.000,-0.220
809,-0.015,-0.200
810,-0.020,-0.170
811,0.000,-0.155
812,0.000,-0.160
813,-0.010,-0.150
814,0.000,-0.120
815,0.000,-0.090
816,0.000,-0.100
817,-0.005,-0.100
818,-0.005,-0.075
819,0.000,-0.060
820,0.000,-0.075
821,-0.005,-0.050
822,0.005,-0.040
823,0.005,-0.035
824,0.010,-0.035
825,0.025,-0.035
826,0.030,-0.035
827,0.030,-0.035
828,0.045,-0.055
829,0.040,-0.060
830,0.040,-0.100
831,0.035,-0.125
832,0.025,-0.080
833,0.010,-0.140
834,0.040,-0.155
835,0.035,-0.150
836,0.015,-0.155
837,0.015,-0.155
838,0.010,-0.140
839,0.025,-0.155
840,0.030,-0.120
841,0.035,-0.125
842,0.020,-0.105
843,0.040,-0.115
844,0.025,-0.115
845,0.030,-0.120
846,0.010,-0.100
847,0.015,-0.095
848,0.015,-0.110
849,0.015,-0.110
850,0.010,-0.110
851,0.000,-0.140
852,0.005,-0.120
853,0.000,-0.130
854,0.010,-0.140
855,0.015,-0.130
856,0.000,-0.145
857,0.005,-0.200
858,0.005,-0.180
859,0.020,-0.140
860,0.045,-0.105
861,0.060,-0.035
862,0.045,-0.035
863,0.030,-0.010
864,0.005,-0.045
865,-0.005,-0.070
866,-0.030,-0.105
867,-0.015,-0.150
868,-0.015,-0.160
869,-0.010,-0.195
870,-0.025,-0.215
871,-0.015,-0.215
872,-0.020,-0.230
873,-0.020,-0.240
874,-0.020,-0.220
875,-0.015,-0.235
876,-0.015,-0.210
877,-0.020,-0.245
878,-0.025,-0.230
879,-0.010,-0.220
880,-0.025,-0.275
881,-0.015,-0.385
882,0.040,-0.385
883,0.160,-0.245
884,0.360,0.305
885,0.195,0.790
886,-0.115,0.375
887,-0.220,-0.265
888,-0.090,-0.655
889,-0.045,-0.405
890,-0.045,-0.260
891,-0.045,-0.235
892,-0.055,-0.250
893,-0.040,-0.250
894,-0.060,-0.245
895,-0.040,-0.230
896,-0.035,-0.265
897,-0.045,-0.255
898,-0.045,-0.220
899,-0.015,-0.235
900,-0.035,-0.225
901,-0.025,-0.240
902,-0.025,-0.225
903,-0.045,-0.230
904,-0.030,-0.205
905,-0.020,-0.190
906,-0.020,-0.185
907,-0.035,-0.160
908,-0.015,-0.150
909,-0.020,-0.140
910,-0.025,-0.150
911,-0.020,-0.100
912,-0.030,-0.080
913,-0.015,-0.070
914,-0.005,-0.070
915,-0.020,-0.040
916,0.005,-0.040
917,-0.025,-0.035
918,-0.010,-0.020
919,0.000,-0.015
920,0.010,0.000
921,0.015,-0.015
922,0.030,-0.045
923,0.025,-0.060
924,0.015,-0.085
925,0.010,-0.105
926,0.005,-0.125
927,0.000,-0.160
928,0.005,-0.170
929,0.005,-0.175
930,0.000,-0.190
931,-0.005,-0.190
932,0.005,-0.160
933,0.000,-0.190
934,0.015,-0.175
935,0.000,-0.155
936,0.000,-0.155
937,0.005,-0.160
938,0.000,-0.150
939,0.015,-0.150
940,0.005,-0.135
941,0.020,-0.125
942,0.005,-0.140
943,0.010,-0.140
944,0.015,-0.125
945,0.010,-0.140
946,0.010,-0.145
947,-0.005,-0.160
948,0.015,-0.155
949,0.005,-0.155
950,0.015,-0.150
951,0.000,-0.150
952,0.010,-0.150
953,0.000,-0.145
954,0.005,-0.160
955,0.035,-0.115
956,0.055,-0.055
957,0.040,-0.050
958,0.055,-0.030
959,0.045,-0.005
960,-0.005,-0.060
961,-0.015,-0.090
962,-0.020,-0.155
963,-0.015,-0.180
964,-0.010,-0.185
965,-0.005,-0.220
966,-0.005,-0.225
967,-0.010,-0.235
968,-0.010,-0.230
969,-0.015,-0.255
970,-0.005,-0.220
971,-0.010,-0.250
972,0.000,-0.240
973,0.000,-0.240
974,0.000,-0.240
975,-0.005,-0.215
976,0.000,-0.270
977,0.005,-0.355
978,0.110,-0.360
979,0.345,-0.055
980,0.355,0.655
981,0.040,0.535
982,-0.270,0.125
983,-0.260,-0.645
984,-0.085,-0.755
985,-0.015,-0.385
986,-0.020,-0.250
987,-0.020,-0.245
988,-0.015,-0.260
989,-0.025,-0.250
990,-0.010,-0.220
991,-0.015,-0.235
992,-0.020,-0.245
993,-0.010,-0.220
994,-0.015,-0.225
995,-0.020,-0.235
996,-0.025,-0.225
997,-0.020,-0.235
998,-0.035,-0.230
999,-0.005,-0.205
1000,-0.020,-0.215
1001,-0.010,-0.190
1002,0.000,-0.190
1003,-0.015,-0.185
1004,-0.015,-0.135
1005,0.000,-0.140
1006,-0.020,-0.150
1007,-0.010,-0.140
1008,-0.010,-0.090
1009,-0.025,-0.110
1010,-0.005,-0.110
1011,-0.010,-0.080
1012,0.000,-0.065
1013,0.000,-0.050
1014,0.020,-0.030
1015,0.005,-0.025
1016,0.020,-0.025
1017,0.015,-0.065
1018,0.020,-0.075
1019,0.000,-0.080
1020,0.015,-0.095
1021,-0.010,-0.120
1022,0.005,-0.150
1023,-0.020,-0.195
1024,-0.005,-0.165
1025,-0.015,-0.190
1026,0.010,-0.190
1027,-0.015,-0.200
1028,0.000,-0.190
1029,-0.005,-0.180
1030,0.000,-0.190
1031,-0.010,-0.180
1032,0.010,-0.180
1033,0.000,-0.160
1034,0.000,-0.170
1035,-0.005,-0.175
1036,0.000,-0.185
1037,0.000,-0.170
1038,-0.005,-0.170
1039,0.000,-0.180
1040,0.000,-0.175
1041,0.000,-0.165
1042,-0.005,-0.165
1043,-0.015,-0.180
1044,0.000,-0.165
1045,-0.010,-0.210
1046,0.000,-0.205
1047,0.000,-0.205
1048,-0.010,-0.200
1049,0.000,-0.190
1050,0.020,-0.155
1051,0.030,-0.140
1052,0.035,-0.075
1053,0.030,-0.055
1054,0.025,-0.040
1055,0.000,-0.060
1056,-0.040,-0.125
1057,-0.040,-0.180
1058,-0.030,-0.190
1059,-0.015,-0.205
1060,0.000,-0.210
1061,-0.025,-0.245
1062,-0.025,-0.255
1063,-0.015,-0.250
1064,0.000,-0.235
1065,0.000,-0.230
1066,-0.015,-0.240
1067,-0.010,-0.235
1068,-0.005,-0.250
1069,-0.005,-0.255
1070,0.000,-0.250
1071,-0.005,-0.265
1072,0.000,-0.355
1073,0.095,-0.365
1074,0.235,-0.115
1075,0.380,0.295
1076,0.270,0.700
1077,-0.045,0.385
1078,-0.175,-0.205
1079,-0.085,-0.655
1080,-0.005,-0.395
1081,-0.005,-0.245
1082,-0.010,-0.230
1083,-0.005,-0.225
1084,-0.025,-0.230
1085,-0.010,-0.235
1086,-0.010,-0.230
1087,-0.015,-0.240
1088,-0.005,-0.220
1089,-0.015,-0.220
1090,-0.020,-0.225
1091,-0.005,-0.200
1092,0.000,-0.205
1093,-0.010,-0.225
1094,-0.005,-0.225
1095,-0.020,-0.205
1096,-0.015,-0.200
1097,-0.005,-0.170
1098,-0.025,-0.155
1099,-0.010,-0.165
1100,-0.005,-0.140
1101,-0.010,-0.130
1102,-0.010,-0.105
1103,0.000,-0.110
1104,-0.020,-0.080
1105,0.000,-0.075
1106,0.000,-0.030
1107,-0.005,-0.055
1108,0.000,-0.030
1109,0.015,-0.025
1110,0.010,-0.020
1111,0.025,-0.015
1112,0.035,-0.005
1113,0.035,-0.010
1114,0.045,-0.045
1115,0.030,-0.085
1116,0.020,-0.120
1117,0.015,-0.100
1118,0.015,-0.110
1119,0.000,-0.130
1120,0.010,-0.165
1121,0.015,-0.180
1122,0.015,-0.140
1123,0.010,-0.150
1124,0.005,-0.150
1125,0.010,-0.140
1126,0.015,-0.130
1127,0.000,-0.125
1128,0.005,-0.130
1129,0.015,-0.110
1130,0.000,-0.115
1131,0.010,-0.110
1132,0.005,-0.125
1133,0.005,-0.120
1134,0.000,-0.120
1135,-0.005,-0.100
1136,0.000,-0.120
1137,0.005,-0.135
1138,-0.005,-0.120
1139,-0.010,-0.170
1140,-0.010,-0.180
1141,0.000,-0.150
1142,-0.010,-0.160
1143,-0.005,-0.145
1144,-0.015,-0.155
1145,0.000,-0.130
1146,0.035,-0.085
1147,0.020,-0.030
1148,0.035,-0.040
1149,0.035,-0.005
1150,0.005,-0.020
1151,-0.025,-0.070
1152,-0.030,-0.145
1153,-0.020,-0.160
1154,-0.020,-0.180
1155,-0.010,-0.205
1156,-0.005,-0.200
1157,-0.010,-0.230
1158,-0.025,-0.220
1159,-0.020,-0.225
1160,-0.010,-0.220
1161,-0.005,-0.220
1162,0.000,-0.235
1163,-0.005,-0.230
1164,0.000,-0.200
1165,0.000,-0.230
1166,-0.005,-0.260
1167,-0.005,-0.345
1168,0.090,-0.330
1169,0.265,0.025
1170,0.345,0.780
1171,0.125,0.780
1172,-0.140,0.135
1173,-0.145,-0.590
1174,-0.060,-0.815
1175,-0.065,-0.635
1176,-0.060,-0.300
1177,-0.040,-0.235
1178,-0.050,-0.245
1179,-0.040,-0.225
1180,-0.035,-0.235
1181,-0.030,-0.240
1182,-0.030,-0.250
1183,-0.040,-0.220
1184,-0.040,-0.230
1185,-0.020,-0.220
1186,-0.030,-0.225
1187,-0.020,-0.220
1188,-0.040,-0.215
1189,-0.025,-0.195
1190,-0.035,-0.210
1191,-0.015,-0.195
1192,-0.030,-0.175
1193,-0.025,-0.175
1194,-0.020,-0.135
1195,-0.010,-0.135
1196,-0.020,-0.125
1197,-0.025,-0.115
1198,-0.010,-0.085
1199,-0.020,-0.130
1200,-0.005,-0.080
1201,-0.010,-0.080
1202,-0.010,-0.100
1203,0.000,-0.050
1204,0.000,-0.075
1205,0.015,-0.050
1206,0.020,-0.035
1207,0.025,0.000
1208,0.035,-0.020
1209,0.040,-0.030
1210,0.045,-0.045
1211,0.040,-0.085
1212,0.030,-0.110
1213,0.025,-0.120
1214,0.035,-0.140
1215,0.025,-0.170
1216,0.015,-0.150
1217,0.035,-0.140
1218,0.025,-0.120
1219,0.010,-0.145
1220,0.055,-0.110
1221,0.020,-0.120
1222,0.025,-0.115
1223,0.030,-0.085
1224,0.025,-0.095
1225,0.005,-0.095
1226,0.035,-0.100
1227,0.020,-0.085
1228,0.015,-0.105
1229,0.025,-0.115
1230,0.010,-0.120
1231,0.000,-0.150
1232,0.015,-0.130
1233,0.020,-0.140
1234,0.025,-0.150
1235,0.010,-0.135
1236,0.005,-0.150
1237,0.005,-0.150
1238,0.040,-0.140
1239,0.025,-0.120
1240,0.050,-0.075
1241,0.050,-0.040
1242,0.060,-0.035
1243,0.045,0.000
1244,0.010,-0.010
1245,0.000,-0.070
1246,-0.020,-0.125
1247,0.000,-0.170
1248,0.000,-0.180
1249,0.000,-0.195
1250,-0.015,-0.200
1251,-0.015,-0.215
1252,0.000,-0.220
1253,0.000,-0.230
1254,-0.015,-0.225
1255,-0.005,-0.240
1256,0.000,-0.250
1257,0.000,-0.215
1258,0.000,-0.235
1259,0.000,-0.235
1260,-0.005,-0.245
1261,0.015,-0.375
1262,0.110,-0.360
1263,0.300,-0.045
1264,0.415,0.645
1265,0.295,0.945
1266,-0.050,0.435
1267,-0.175,-0.190
1268,-0.095,-0.665
1269,-0.050,-0.450
1270,-0.025,-0.275
1271,-0.040,-0.245
1272,-0.040,-0.250
1273,-0.045,-0.260
1274,-0.040,-0.255
1275,-0.035,-0.260
1276,-0.040,-0.255
1277,-0.040,-0.270
1278,-0.040,-0.270
1279,-0.035,-0.255
1280,-0.040,-0.235
1281,-0.040,-0.235
1282,-0.030,-0.230
1283,-0.035,-0.240
1284,-0.025,-0.210
1285,-0.020,-0.200
1286,-0.030,-0.205
1287,-0.010,-0.205
1288,-0.015,-0.180
1289,0.000,-0.170
1290,-0.015,-0.135
1291,-0.015,-0.140
1292,-0.025,-0.125
1293,-0.015,-0.125
1294,-0.005,-0.095
1295,-0.025,-0.090
1296,-0.020,-0.095
1297,0.000,-0.055
1298,-0.015,-0.060
1299,0.000,-0.050
1300,0.000,-0.070
1301,0.010,-0.055
1302,0.015,-0.070
1303,0.035,-0.070
1304,0.025,-0.115
1305,0.015,-0.145
1306,0.020,-0.145
1307,0.005,-0.155
1308,0.005,-0.185
1309,0.020,-0.170
1310,0.015,-0.190
1311,0.005,-0.190
1312,0.010,-0.180
1313,0.000,-0.185
1314,0.015,-0.180
1315,0.010,-0.170
1316,0.000,-0.185
1317,0.025,-0.175
1318,0.025,-0.165
1319,0.015,-0.165
1320,0.015,-0.150
1321,0.000,-0.140
1322,0.020,-0.130
1323,0.020,-0.150
1324,0.010,-0.175
1325,0.005,-0.155
1326,0.010,-0.195
1327,0.010,-0.180
1328,0.010,-0.160
1329,0.015,-0.190
1330,0.010,-0.185
1331,0.015,-0.180
1332,0.025,-0.165
1333,0.055,-0.110
1334,0.060,-0.070
1335,0.070,-0.040
1336,0.050,-0.025
1337,0.035,-0.030
1338,0.020,-0.080
1339,0.000,-0.090
1340,-0.015,-0.150
1341,0.000,-0.160
1342,0.000,-0.210
1343,0.010,-0.220
1344,0.005,-0.220
1345,0.000,-0.230
1346,0.005,-0.210
1347,0.000,-0.225
1348,0.010,-0.225
1349,0.010,-0.240
1350,0.000,-0.230
1351,0.000,-0.240
1352,0.005,-0.240
1353,0.005,-0.235
1354,0.000,-0.275
1355,0.015,-0.330
1356,0.115,-0.355
1357,0.330,-0.045
1358,0.360,0.670
1359,0.080,0.595
1360,-0.205,0.120
1361,-0.140,-0.605
1362,-0.035,-0.630
1363,-0.020,-0.345
1364,0.000,-0.250
1365,-0.015,-0.240
1366,-0.020,-0.245
1367,-0.020,-0.255
1368,-0.025,-0.240
1369,-0.005,-0.255
1370,-0.015,-0.240
1371,-0.015,-0.220
1372,-0.015,-0.230
1373,-0.005,-0.235
1374,-0.005,-0.235
1375,-0.035,-0.235
1376,-0.010,-0.225
1377,-0.010,-0.215
1378,-0.015,-0.195
1379,-0.005,-0.175
1380,0.000,-0.185
1381,0.000,-0.175
1382,0.000,-0.180
1383,-0.010,-0.165
1384,-0.005,-0.135
1385,0.000,-0.135
1386,-0.005,-0.105
1387,0.000,-0.095
1388,0.005,-0.080
1389,-0.005,-0.085
1390,0.000,-0.080
1391,0.010,-0.060
1392,0.015,-0.035
1393,0.030,-0.045
1394,0.025,-0.030
1395,0.035,-0.025
1396,0.035,-0.045
1397,0.030,-0.065
1398,0.030,-0.145
1399,0.020,-0.160
1400,0.020,-0.165
1401,0.000,-0.155
1402,0.010,-0.180
1403,0.015,-0.185
1404,0.015,-0.205
1405,0.000,-0.190
1406,0.010,-0.220
1407,0.015,-0.200
1408,0.010,-0.210
1409,0.005,-0.200
1410,0.000,-0.205
1411,0.000,-0.190
1412,0.010,-0.175
1413,0.005,-0.170
1414,0.000,-0.180
1415,0.005,-0.165
1416,0.005,-0.170
1417,0.015,-0.185
1418,0.010,-0.190
1419,0.010,-0.190
1420,0.005,-0.190
1421,0.000,-0.200
1422,0.010,-0.195
1423,0.015,-0.195
1424,0.015,-0.195
1425,0.015,-0.200
1426,0.015,-0.190
1427,0.055,-0.170
1428,0.060,-0.125
1429,0.095,-0.085
1430,0.075,-0.075
1431,0.055,-0.060
1432,0.025,-0.095
1433,0.005,-0.115
1434,-0.020,-0.175
1435,-0.005,-0.205
1436,0.015,-0.220
1437,0.005,-0.220
1438,0.005,-0.235
1439,0.005,-0.270
1440,0.010,-0.275
1441,0.000,-0.270
1442,0.010,-0.255
1443,0.005,-0.265
1444,0.005,-0.265
1445,0.015,-0.280
1446,0.015,-0.275
1447,0.035,-0.265
1448,0.020,-0.270
1449,0.005,-0.360
1450,0.085,-0.430
1451,0.220,-0.275
1452,0.375,0.065
1453,0.370,0.595
1454,0.030,0.445
1455,-0.180,0.010
1456,-0.080,-0.640
1457,0.010,-0.485
1458,0.030,-0.285
1459,0.030,-0.245
1460,0.005,-0.230
1461,0.015,-0.245
1462,0.020,-0.240
1463,0.015,-0.260
1464,0.025,-0.240
1465,0.040,-0.230
1466,0.025,-0.235
1467,0.025,-0.250
1468,0.045,-0.240
1469,0.030,-0.240
1470,0.045,-0.205
1471,0.045,-0.225
1472,0.050,-0.215
1473,0.045,-0.220
1474,0.045,-0.165
1475,0.055,-0.175
1476,0.045,-0.150
1477,0.055,-0.135
1478,0.055,-0.130
1479,0.080,-0.135
1480,0.070,-0.090
1481,0.060,-0.085
1482,0.075,-0.080
1483,0.060,-0.065
1484,0.065,-0.065
1485,0.070,-0.075
1486,0.065,-0.055
1487,0.090,-0.035
1488,0.080,-0.045
1489,0.105,-0.020
1490,0.105,-0.040
1491,0.130,-0.045
1492,0.100,-0.070
1493,0.100,-0.095
1494,0.085,-0.100
1495,0.075,-0.115
1496,0.085,-0.140
1497,0.090,-0.155
1498,0.060,-0.150
1499,0.100,-0.155
1500,0.085,-0.145
1501,0.075,-0.150
1502,0.075,-0.145
1503,0.075,-0.135
1504,0.080,-0.135
1505,0.085,-0.140
1506,0.085,-0.105
1507,0.070,-0.120
1508,0.075,-0.125
1509,0.070,-0.110
1510,0.070,-0.100
1511,0.070,-0.120
1512,0.075,-0.125
1513,0.065,-0.125
1514,0.070,-0.125
1515,0.065,-0.150
1516,0.060,-0.120
1517,0.075,-0.115
1518,0.065,-0.170
1519,0.060,-0.165
1520,0.075,-0.140
1521,0.075,-0.120
1522,0.075,-0.110
1523,0.115,-0.075
1524,0.110,-0.020
1525,0.090,0.000
1526,0.085,-0.005
1527,0.070,-0.015
1528,0.060,-0.060
1529,0.010,-0.110
1530,0.045,-0.150
1531,0.035,-0.175
1532,0.035,-0.190
1533,0.035,-0.170
1534,0.025,-0.205
1535,0.030,-0.225
1536,0.035,-0.230
1537,0.015,-0.215
1538,0.030,-0.235
1539,0.025,-0.210
1540,0.030,-0.215
1541,0.040,-0.195
1542,0.040,-0.185
1543,0.025,-0.220
1544,0.045,-0.300
1545,0.110,-0.355
1546,0.270,-0.170
1547,0.435,0.440
1548,0.360,0.855
1549,0.155,0.480
1550,-0.095,0.065
1551,-0.065,-0.600
1552,0.005,-0.620
1553,0.020,-0.275
1554,0.015,-0.235
1555,0.020,-0.230
1556,0.030,-0.255
1557,0.035,-0.230
1558,0.025,-0.220
1559,0.030,-0.240
1560,0.035,-0.240
1561,0.025,-0.210
1562,0.040,-0.225
1563,0.030,-0.220
1564,0.035,-0.200
1565,0.030,-0.195
1566,0.025,-0.220
1567,0.030,-0.205
1568,0.035,-0.180
1569,0.030,-0.185
1570,0.035,-0.160
1571,0.040,-0.150
1572,0.030,-0.155
1573,0.045,-0.115
1574,0.050,-0.110
1575,0.020,-0.100
1576,0.050,-0.115
1577,0.045,-0.100
1578,0.045,-0.070
1579,0.045,-0.065
1580,0.025,-0.070
1581,0.045,-0.045
1582,0.055,-0.010
1583,0.065,-0.010
1584,0.095,-0.010
1585,0.095,-0.005
1586,0.110,-0.020
1587,0.100,-0.035
1588,0.100,-0.045
1589,0.100,-0.085
1590,0.095,-0.095
1591,0.090,-0.105
1592,0.095,-0.100
1593,0.085,-0.120
1594,0.100,-0.115
1595,0.100,-0.115
1596,0.105,-0.110
1597,0.080,-0.105
1598,0.090,-0.065
1599,0.085,-0.080
1600,0.115,-0.085
1601,0.095,-0.070
1602,0.110,-0.065
1603,0.100,-0.065
1604,0.100,-0.060
1605,0.090,-0.060
1606,0.100,-0.075
1607,0.095,-0.070
1608,0.095,-0.080
1609,0.085,-0.080
1610,0.080,-0.095
1611,0.090,-0.090
1612,0.075,-0.105
1613,0.085,-0.135
1614,0.075,-0.090
1615,0.080,-0.080
1616,0.105,-0.075
1617,0.130,-0.020
1618,0.115,0.030
1619,0.130,0.015
1620,0.120,0.040
1621,0.090,0.010
1622,0.075,0.000
1623,0.050,-0.050
1624,0.060,-0.090
1625,0.070,-0.110
1626,0.055,-0.135
1627,0.070,-0.145
1628,0.055,-0.155
1629,0.055,-0.140
1630,0.065,-0.135
1631,0.060,-0.175
1632,0.060,-0.165
1633,0.060,-0.175
1634,0.060,-0.160
1635,0.065,-0.170
1636,0.065,-0.175
1637,0.055,-0.200
1638,0.090,-0.260
1639,0.155,-0.285
1640,0.295,-0.055
1641,0.435,0.655
1642,0.265,0.895
1643,-0.055,0.300
1644,-0.050,-0.360
1645,0.015,-0.690
1646,0.015,-0.550
1647,0.045,-0.275
1648,0.050,-0.185
1649,0.035,-0.190
1650,0.020,-0.185
1651,0.035,-0.185
1652,0.030,-0.175
1653,0.020,-0.170
1654,0.040,-0.200
1655,0.035,-0.200
1656,0.045,-0.180
1657,0.040,-0.155
1658,0.035,-0.175
1659,0.025,-0.170
1660,0.025,-0.160
1661,0.030,-0.155
1662,0.025,-0.145
1663,0.020,-0.130
1664,0.020,-0.135
1665,0.030,-0.125
1666,0.030,-0.085
1667,0.045,-0.070
1668,0.020,-0.065
1669,0.035,-0.045
1670,0.015,-0.050
1671,0.035,-0.065
1672,0.015,-0.050
1673,0.030,-0.050
1674,0.025,-0.040
1675,0.035,-0.020
1676,0.045,-0.015
1677,0.060,-0.005
1678,0.065,0.000
1679,0.070,0.000
1680,0.070,-0.025
1681,0.075,-0.045
1682,0.065,-0.065
1683,0.060,-0.065
1684,0.065,-0.095
1685,0.060,-0.095
1686,0.065,-0.105
1687,0.050,-0.115
1688,0.055,-0.135
1689,0.065,-0.120
1690,0.070,-0.095
1691,0.070,-0.090
1692,0.060,-0.090
1693,0.055,-0.090
1694,0.075,-0.090
1695,0.060,-0.065
1696,0.070,-0.070
1697,0.080,-0.065
1698,0.070,-0.070
1699,0.070,-0.070
1700,0.070,-0.075
1701,0.060,-0.090
1702,0.055,-0.085
1703,0.065,-0.100
1704,0.060,-0.090
1705,0.050,-0.080
1706,0.060,-0.105
1707,0.065,-0.100
1708,0.055,-0.120
1709,0.090,-0.075
1710,0.085,-0.025
1711,0.115,-0.005
1712,0.125,0.020
1713,0.105,0.045
1714,0.080,0.035
1715,0.055,-0.015
1716,0.030,-0.050
1717,0.025,-0.080
1718,0.050,-0.100
1719,0.050,-0.105
1720,0.050,-0.120
1721,0.050,-0.130
1722,0.060,-0.135
1723,0.050,-0.165
1724,0.040,-0.155
1725,0.040,-0.150
1726,0.050,-0.155
1727,0.060,-0.150
1728,0.065,-0.150
1729,0.045,-0.155
1730,0.055,-0.155
1731,0.040,-0.215
1732,0.100,-0.310
1733,0.170,-0.280
1734,0.335,-0.060
1735,0.425,0.640
1736,0.170,0.750
1737,-0.130,0.300
1738,-0.080,-0.420
1739,0.015,-0.520
1740,0.050,-0.245
1741,0.035,-0.195
1742,0.020,-0.175
1743,0.025,-0.170
1744,0.030,-0.175
1745,0.040,-0.160
1746,0.030,-0.160
1747,0.040,-0.155
1748,0.045,-0.155
1749,0.025,-0.155
1750,0.040,-0.155
1751,0.040,-0.165
1752,0.040,-0.140
1753,0.035,-0.145
1754,0.035,-0.150
1755,0.040,-0.135
1756,0.050,-0.105
1757,0.035,-0.110
1758,0.035,-0.120
1759,0.020,-0.105
1760,0.050,-0.070
1761,0.035,-0.045
1762,0.035,-0.045
1763,0.035,-0.040
1764,0.030,-0.035
1765,0.045,0.000
1766,0.045,0.000
1767,0.045,0.010
1768,0.050,0.015
1769,0.065,0.055
1770,0.070,0.015
1771,0.075,0.010
1772,0.080,0.015
1773,0.075,0.010
1774,0.085,-0.020
1775,0.065,-0.015
1776,0.055,-0.090
1777,0.065,-0.090
1778,0.045,-0.090
1779,0.040,-0.110
1780,0.040,-0.105
1781,0.045,-0.130
1782,0.030,-0.120
1783,0.025,-0.135
1784,0.030,-0.115
1785,0.035,-0.095
1786,0.035,-0.105
1787,0.030,-0.085
1788,0.035,-0.095
1789,0.035,-0.105
1790,0.030,-0.090
1791,0.045,-0.100
1792,0.025,-0.090
1793,0.015,-0.100
1794,0.035,-0.115
1795,0.025,-0.105
1796,0.015,-0.110
1797,0.015,-0.115
1798,0.020,-0.100
1799,0.010,-0.115
1800,0.015,-0.120
1801,0.015,-0.110
1802,0.035,-0.100
1803,0.065,-0.080
1804,0.080,-0.040
1805,0.075,-0.010
1806,0.065,0.000
1807,0.060,0.015
1808,0.025,0.000
1809,-0.005,-0.040
1810,-0.005,-0.105
1811,0.000,-0.140
1812,0.005,-0.155
1813,0.020,-0.160
1814,0.000,-0.185
1815,0.005,-0.200
1816,0.015,-0.205
1817,0.015,-0.190
1818,0.020,-0.195
1819,0.005,-0.195
1820,0.005,-0.195
1821,0.010,-0.215
1822,0.020,-0.220
1823,0.010,-0.195
1824,0.015,-0.215
1825,0.010,-0.305
1826,0.085,-0.350
1827,0.265,-0.185
1828,0.450,0.340
1829,0.360,0.810
1830,0.015,0.565
1831,-0.215,0.055
1832,-0.080,-0.600
1833,0.000,-0.395
1834,0.000,-0.240
1835,0.000,-0.195
1836,0.000,-0.200
1837,0.000,-0.225
1838,0.000,-0.205
1839,0.005,-0.200
1840,0.005,-0.185
1841,0.005,-0.185
1842,0.020,-0.205
1843,0.005,-0.185
1844,0.005,-0.180
1845,0.010,-0.185
1846,0.005,-0.175
1847,0.010,-0.205
1848,0.015,-0.160
1849,0.010,-0.150
1850,0.025,-0.115
1851,0.030,-0.115
1852,0.030,-0.130
1853,0.025,-0.080
1854,0.045,-0.080
1855,0.035,-0.050
1856,0.050,-0.070
1857,0.050,-0.050
1858,0.045,-0.020
1859,0.045,-0.030
1860,0.050,-0.035
1861,0.045,-0.015
1862,0.065,0.000
1863,0.075,0.015
1864,0.075,0.010
1865,0.080,0.010
1866,0.080,0.000
1867,0.075,-0.020
1868,0.075,-0.030
1869,0.070,-0.060
1870,0.060,-0.065
1871,0.050,-0.085
1872,0.055,-0.115
1873,0.040,-0.125
1874,0.030,-0.115
1875,0.050,-0.095
1876,0.045,-0.120
1877,0.055,-0.120
1878,0.045,-0.105
1879,0.040,-0.105
1880,0.060,-0.110
1881,0.060,-0.090
1882,0.045,-0.095
1883,0.060,-0.105
1884,0.065,-0.085
1885,0.070,-0.080
1886,0.075,-0.085
1887,0.045,-0.060
1888,0.060,-0.095
1889,0.050,-0.100
1890,0.030,-0.090
1891,0.040,-0.145
1892,0.040,-0.120
1893,0.045,-0.090
1894,0.030,-0.120
1895,0.040,-0.120
1896,0.055,-0.115
1897,0.055,-0.115
1898,0.065,-0.045
1899,0.080,0.010
1900,0.075,-0.015
1901,0.080,-0.020
1902,0.065,0.010
1903,0.025,-0.010
1904,0.010,-0.065
1905,0.000,-0.120
1906,0.010,-0.120
1907,0.015,-0.145
1908,0.005,-0.145
1909,0.005,-0.180
1910,0.000,-0.185
1911,0.005,-0.195
1912,0.010,-0.230
1913,0.010,-0.185
1914,0.015,-0.215
1915,0.005,-0.220
1916,0.010,-0.210
1917,0.005,-0.220
1918,0.005,-0.235
1919,-0.005,-0.270
1920,0.020,-0.340
1921,0.120,-0.305
1922,0.250,-0.095
1923,0.380,0.360
1924,0.240,0.795
1925,-0.090,0.305
1926,-0.175,-0.340
1927,-0.065,-0.760
1928,-0.020,-0.400
1929,-0.025,-0.260
1930,-0.025,-0.205
1931,0.000,-0.210
1932,0.000,-0.235
1933,-0.005,-0.230
1934,0.000,-0.240
1935,-0.005,-0.255
1936,0.000,-0.205
1937,0.000,-0.210
1938,-0.010,-0.205
1939,0.010,-0.220
1940,-0.015,-0.205
1941,-0.005,-0.200
1942,0.000,-0.195
1943,0.010,-0.195
1944,0.000,-0.220
1945,0.000,-0.205
1946,0.000,-0.175
1947,0.005,-0.165
1948,0.010,-0.150
1949,0.000,-0.135
1950,0.010,-0.150
1951,0.005,-0.140
1952,0.000,-0.105
1953,0.005,-0.110
1954,0.000,-0.055
1955,0.005,-0.035
1956,0.015,-0.070
1957,0.030,-0.070
1958,0.025,-0.030
1959,0.035,-0.035
1960,0.040,-0.010
1961,0.045,-0.040
1962,0.045,-0.030
1963,0.050,-0.055
1964,0.030,-0.090
1965,0.040,-0.150
1966,0.030,-0.140
1967,0.025,-0.150
1968,0.040,-0.170
1969,0.030,-0.150
1970,0.025,-0.155
1971,0.050,-0.170
1972,0.040,-0.150
1973,0.025,-0.135
1974,0.025,-0.130
1975,0.040,-0.145
1976,0.040,-0.135
1977,0.020,-0.100
1978,0.030,-0.085
1979,0.030,-0.095
1980,0.040,-0.100
1981,0.045,-0.120
1982,0.045,-0.120
1983,0.035,-0.140
1984,0.045,-0.150
1985,0.015,-0.090
1986,0.035,-0.100
1987,0.045,-0.115
1988,0.025,-0.140
1989,0.055,-0.160
1990,0.060,-0.120
1991,0.075,-0.060
1992,0.085,-0.050
1993,0.085,-0.045
1994,0.050,0.010
1995,0.045,-0.025
1996,0.005,-0.045
1997,-0.010,-0.075
1998,0.000,-0.125
1999,0.005,-0.145
2000,0.000,-0.185
2001,0.020,-0.215
2002,-0.005,-0.210
2003,0.000,-0.195
2004,0.000,-0.195
2005,-0.010,-0.210
2006,-0.010,-0.240
2007,0.010,-0.200
2008,0.005,-0.145
2009,-0.010,-0.195
2010,0.000,-0.240
2011,-0.015,-0.215
2012,0.000,-0.305
2013,0.100,-0.340
2014,0.240,-0.055
2015,0.390,0.640
2016,0.365,1.210
2017,0.150,0.920
2018,-0.125,0.115
2019,-0.080,-0.615
2020,-0.060,-0.700
2021,-0.045,-0.340
2022,-0.045,-0.195
2023,-0.050,-0.280
2024,-0.045,-0.200
2025,-0.040,-0.200
2026,-0.035,-0.210
2027,-0.040,-0.220
2028,-0.025,-0.210
2029,-0.030,-0.245
2030,-0.030,-0.240
2031,-0.030,-0.215
2032,-0.030,-0.195
2033,-0.045,-0.225
2034,-0.030,-0.210
2035,-0.045,-0.205
2036,-0.040,-0.220
2037,-0.050,-0.210
2038,-0.060,-0.230
2039,-0.045,-0.235
2040,-0.060,-0.170
2041,-0.035,-0.165
2042,-0.035,-0.165
2043,-0.050,-0.155
2044,-0.050,-0.165
2045,-0.050,-0.140
2046,-0.040,-0.160
2047,-0.050,-0.160
2048,-0.020,-0.135
2049,-0.045,-0.135
2050,-0.050,-0.115
2051,-0.030,-0.095
2052,-0.030,-0.095
2053,-0.005,-0.110
2054,0.000,-0.100
2055,0.000,-0.090
2056,0.005,-0.125
2057,-0.020,-0.130
2058,0.000,-0.165
2059,-0.020,-0.180
2060,-0.010,-0.200
2061,-0.015,-0.200
2062,-0.010,-0.190
2063,-0.010,-0.190
2064,0.000,-0.195
2065,-0.005,-0.135
2066,0.010,-0.150
2067,0.000,-0.135
2068,0.000,-0.150
2069,0.005,-0.130
2070,0.005,-0.130
2071,0.005,-0.125
2072,-0.030,-0.145
2073,0.000,-0.120
2074,0.005,-0.130
2075,-0.010,-0.130
2076,-0.015,-0.205
2077,-0.020,-0.165
2078,-0.005,-0.160
2079,-0.005,-0.160
2080,-0.010,-0.170
2081,-0.015,-0.175
2082,0.000,-0.155
2083,0.020,-0.105
2084,0.025,-0.065
2085,0.030,0.000
2086,0.010,-0.015
2087,-0.005,-0.025
2088,-0.045,-0.105
2089,-0.045,-0.155
2090,-0.035,-0.210
2091,-0.030,-0.200
2092,-0.035,-0.240
2093,-0.030,-0.245
2094,-0.040,-0.240
2095,-0.045,-0.260
2096,-0.040,-0.250
2097,-0.045,-0.260
2098,-0.040,-0.290
2099,-0.050,-0.260
2100,-0.035,-0.260
2101,-0.025,-0.280
2102,-0.040,-0.265
2103,-0.025,-0.295
2104,-0.015,-0.340
2105,0.040,-0.410
2106,0.190,-0.225
2107,0.350,0.240
2108,0.365,0.770
2109,0.105,0.685
2110,-0.175,0.195
2111,-0.115,-0.545
2112,-0.095,-0.640
2113,-0.035,-0.325
2114,-0.040,-0.265
2115,-0.045,-0.250
2116,-0.040,-0.240
2117,-0.030,-0.245
2118,-0.040,-0.250
2119,-0.025,-0.235
2120,-0.020,-0.220
2121,-0.020,-0.230
2122,-0.025,-0.230
2123,-0.030,-0.170
2124,-0.025,-0.230
2125,-0.025,-0.215
2126,-0.035,-0.200
2127,-0.040,-0.200
2128,-0.030,-0.190
2129,-0.045,-0.210
2130,-0.050,-0.170
2131,-0.015,-0.165
2132,-0.045,-0.130
2133,-0.020,-0.140
2134,-0.020,-0.105
2135,-0.040,-0.110
2136,-0.005,-0.110
2137,-0.020,-0.110
2138,-0.040,-0.075
2139,-0.025,-0.065
2140,-0.035,-0.050
2141,-0.035,-0.040
2142,-0.015,-0.030
2143,-0.005,-0.035
2144,0.010,-0.040
2145,0.010,-0.095
2146,0.025,-0.060
2147,0.015,-0.065
2148,0.025,-0.105
2149,0.010,-0.105
2150,0.015,-0.145
2151,0.005,-0.130
2152,0.010,-0.170
2153,0.000,-0.145
2154,0.005,-0.160
2155,0.000,-0.170
2156,-0.005,-0.180
2157,0.005,-0.135
2158,0.000,-0.140
2159,0.005,-0.140
2160,0.010,-0.160
2161,0.015,-0.120
2162,0.000,-0.120
2163,0.020,-0.115
2164,0.005,-0.120
2165,0.000,-0.120
2166,0.005,-0.090
2167,-0.010,-0.140
2168,-0.005,-0.150
2169,-0.015,-0.150
2170,-0.005,-0.110
2171,-0.025,-0.150
2172,0.000,-0.165
2173,0.000,-0.135
2174,0.015,-0.080
2175,0.005,-0.045
2176,0.025,-0.040
2177,0.005,-0.060
2178,0.015,-0.040
2179,-0.020,-0.040
2180,-0.050,-0.055
2181,-0.065,-0.125
2182,-0.065,-0.190
2183,-0.045,-0.200
2184,-0.040,-0.180
2185,-0.045,-0.195
2186,-0.055,-0.205
2187,-0.050,-0.230
2188,-0.040,-0.235
2189,-0.040,-0.215
2190,-0.045,-0.150
2191,-0.050,-0.240
2192,-0.035,-0.240
2193,-0.045,-0.230
2194,-0.035,-0.225
2195,-0.040,-0.235
2196,-0.060,-0.310
2197,-0.020,-0.390
2198,0.110,-0.375
2199,0.350,0.015
2200,0.280,0.650
2201,-0.020,0.540
2202,-0.265,0.170
2203,-0.165,-0.495
2204,-0.070,-0.470
2205,-0.065,-0.240
2206,-0.060,-0.215
2207,-0.055,-0.220
2208,-0.060,-0.210
2209,-0.055,-0.240
2210,-0.055,-0.230
2211,-0.065,-0.225
2212,-0.045,-0.205
2213,-0.040,-0.205
2214,-0.060,-0.210
2215,-0.025,-0.235
2216,-0.045,-0.210
2217,-0.045,-0.170
2218,-0.020,-0.190
2219,-0.030,-0.205
2220,-0.045,-0.175
2221,-0.035,-0.160
2222,-0.025,-0.125
2223,-0.035,-0.150
2224,-0.030,-0.115
2225,-0.015,-0.095
2226,-0.025,-0.075
2227,-0.030,-0.120
2228,-0.030,-0.110
2229,-0.025,-0.060
2230,-0.015,-0.045
2231,-0.015,-0.040
2232,-0.005,0.000
2233,0.000,-0.025
2234,-0.010,0.000
2235,0.000,-0.005
2236,0.005,0.000
2237,0.010,-0.010
2238,0.010,-0.060
2239,0.005,-0.080
2240,-0.010,-0.080
2241,-0.005,-0.105
2242,0.000,-0.100
2243,-0.010,-0.125
2244,-0.015,-0.140
2245,0.000,-0.130
2246,0.005,-0.145
2247,0.000,-0.140
2248,0.010,-0.155
2249,0.015,-0.160
2250,0.000,-0.135
2251,0.000,-0.135
2252,0.000,-0.140
2253,0.010,-0.115
2254,0.000,-0.130
2255,-0.005,-0.140
2256,-0.020,-0.125
2257,0.000,-0.145
2258,-0.005,-0.135
2259,0.000,-0.135
2260,-0.015,-0.150
2261,0.000,-0.160
2262,-0.020,-0.150
2263,0.000,-0.135
2264,-0.010,-0.150
2265,0.000,-0.155
2266,0.015,-0.115
2267,0.050,-0.080
2268,0.030,-0.020
2269,0.030,-0.015
2270,0.000,-0.020
2271,-0.005,-0.040
2272,-0.030,-0.060
2273,-0.060,-0.125
2274,-0.030,-0.155
2275,-0.025,-0.165
2276,-0.045,-0.195
2277,-0.035,-0.220
2278,-0.040,-0.205
2279,-0.055,-0.225
2280,-0.035,-0.220
2281,-0.030,-0.230
2282,-0.045,-0.225
2283,-0.030,-0.245
2284,-0.035,-0.225
2285,-0.035,-0.220
2286,-0.040,-0.230
2287,-0.020,-0.230
2288,-0.045,-0.295
2289,0.010,-0.365
2290,0.165,-0.290
2291,0.375,0.080
2292,0.295,0.660
2293,0.080,0.510
2294,-0.225,0.240
2295,-0.185,-0.420
2296,-0.075,-0.515
2297,-0.045,-0.280
2298,-0.055,-0.260
2299,-0.055,-0.255
2300,-0.065,-0.235
2301,-0.055,-0.270
2302,-0.065,-0.250
2303,-0.045,-0.265
2304,-0.070,-0.270
2305,-0.065,-0.235
2306,-0.080,-0.245
2307,-0.060,-0.235
2308,-0.065,-0.235
2309,-0.075,-0.225
2310,-0.060,-0.230
2311,-0.060,-0.225
2312,-0.060,-0.220
2313,-0.060,-0.205
2314,-0.040,-0.175
2315,-0.060,-0.145
2316,-0.055,-0.150
2317,-0.040,-0.160
2318,-0.040,-0.140
2319,-0.040,-0.110
2320,-0.045,-0.120
2321,-0.040,-0.090
2322,-0.030,-0.065
2323,-0.045,-0.060
2324,-0.015,-0.055
2325,-0.015,-0.020
2326,-0.025,-0.030
2327,0.000,-0.020
2328,0.000,0.000
2329,0.000,-0.035
2330,0.005,-0.045
2331,-0.005,-0.070
2332,-0.035,-0.105
2333,-0.015,-0.160
2334,-0.020,-0.140
2335,-0.025,-0.155
2336,-0.020,-0.160
2337,-0.030,-0.170
2338,-0.035,-0.200
2339,-0.040,-0.190
2340,-0.030,-0.180
2341,-0.035,-0.190
2342,-0.015,-0.175
2343,-0.020,-0.150
2344,-0.025,-0.160
2345,-0.020,-0.175
2346,-0.015,-0.130
2347,-0.020,-0.155
2348,-0.020,-0.150
2349,-0.030,-0.120
2350,-0.040,-0.170
2351,-0.030,-0.155
2352,-0.035,-0.120
2353,-0.035,-0.145
2354,-0.045,-0.170
2355,-0.040,-0.150
2356,-0.035,-0.155
2357,-0.025,-0.125
2358,0.000,-0.110
2359,0.000,-0.045
2360,0.000,-0.020
2361,0.000,-0.010
2362,-0.025,-0.020
2363,-0.045,-0.070
2364,-0.060,-0.100
2365,-0.065,-0.155
2366,-0.040,-0.160
2367,-0.040,-0.155
2368,-0.040,-0.200
2369,-0.040,-0.200
2370,-0.055,-0.205
2371,-0.040,-0.200
2372,-0.020,-0.205
2373,-0.045,-0.215
2374,-0.050,-0.215
2375,-0.025,-0.205
2376,-0.035,-0.215
2377,-0.050,-0.225
2378,-0.035,-0.225
2379,-0.050,-0.250
2380,-0.025,-0.340
2381,0.050,-0.360
2382,0.220,-0.110
2383,0.315,0.530
2384,0.150,0.790
2385,-0.150,0.285
2386,-0.185,-0.420
2387,-0.100,-0.740
2388,-0.085,-0.530
2389,-0.055,-0.295
2390,-0.055,-0.215
2391,-0.050,-0.225
2392,-0.055,-0.225
2393,-0.050,-0.250
2394,-0.055,-0.200
2395,-0.040,-0.190
2396,-0.060,-0.180
2397,-0.060,-0.215
2398,-0.060,-0.195
2399,-0.040,-0.190
2400,-0.045,-0.190
2401,-0.040,-0.195
2402,-0.045,-0.200
2403,-0.050,-0.160
2404,-0.040,-0.180
2405,-0.050,-0.160
2406,-0.060,-0.145
2407,-0.030,-0.140
2408,-0.065,-0.145
2409,-0.040,-0.110
2410,-0.040,-0.080
2411,-0.040,-0.055
2412,-0.060,-0.045
2413,-0.055,-0.055
2414,-0.055,-0.060
2415,-0.050,-0.045
2416,-0.065,-0.035
2417,-0.040,-0.035
2418,-0.040,-0.015
2419,-0.040,-0.010
2420,-0.030,-0.030
2421,-0.015,-0.015
2422,0.000,-0.035
2423,-0.010,-0.075
2424,-0.035,-0.100
2425,-0.025,-0.100
2426,-0.030,-0.125
2427,-0.020,-0.125
2428,-0.030,-0.150
2429,-0.040,-0.170
2430,-0.045,-0.145
2431,-0.040,-0.155
2432,-0.035,-0.150
2433,-0.045,-0.145
2434,-0.030,-0.150
2435,-0.030,-0.130
2436,-0.055,-0.140
2437,-0.035,-0.125
2438,-0.040,-0.110
2439,-0.040,-0.115
2440,-0.050,-0.115
2441,-0.050,-0.110
2442,-0.060,-0.135
2443,-0.055,-0.130
2444,-0.055,-0.135
2445,-0.050,-0.135
2446,-0.050,-0.125
2447,-0.060,-0.135
2448,-0.060,-0.175
2449,-0.045,-0.150
2450,-0.055,-0.150
2451,-0.040,-0.095
2452,-0.020,-0.055
2453,-0.015,-0.025
2454,-0.020,-0.025
2455,-0.035,0.000
2456,-0.055,-0.040
2457,-0.090,-0.090
2458,-0.080,-0.140
2459,-0.095,-0.165
2460,-0.085,-0.170
2461,-0.085,-0.180
2462,-0.075,-0.215
2463,-0.095,-0.225
2464,-0.080,-0.220
2465,-0.090,-0.225
2466,-0.065,-0.225
2467,-0.085,-0.245
2468,-0.085,-0.210
2469,-0.090,-0.220
2470,-0.080,-0.215
2471,-0.085,-0.225
2472,-0.075,-0.250
2473,-0.070,-0.350
2474,0.010,-0.330
2475,0.120,-0.210
2476,0.280,0.345
2477,0.160,0.830
2478,-0.155,0.390
2479,-0.245,-0.250
2480,-0.160,-0.660
2481,-0.130,-0.430
2482,-0.095,-0.255
2483,-0.115,-0.230
2484,-0.105,-0.230
2485,-0.110,-0.225
2486,-0.110,-0.230
2487,-0.085,-0.230
2488,-0.110,-0.215
2489,-0.105,-0.210
2490,-0.085,-0.200
2491,-0.095,-0.215
2492,-0.090,-0.200
2493,-0.095,-0.205
2494,-0.095,-0.190
2495,-0.090,-0.170
2496,-0.080,-0.185
2497,-0.080,-0.160
2498,-0.070,-0.155
2499,-0.070,-0.145
2500,-0.060,-0.135
2501,-0.070,-0.130
2502,-0.060,-0.105
2503,-0.070,-0.085
2504,-0.070,-0.065
2505,-0.070,-0.055
2506,-0.070,-0.040
2507,-0.085,-0.040
2508,-0.065,-0.040
2509,-0.080,-0.025
2510,-0.045,-0.010
2511,-0.050,-0.025
2512,-0.050,-0.010
2513,-0.030,-0.015
2514,-0.020,-0.025
2515,-0.035,-0.030
2516,-0.040,-0.070
2517,-0.040,-0.095
2518,-0.050,-0.080
2519,-0.050,-0.115
2520,-0.055,-0.110
2521,-0.070,-0.130
2522,-0.060,-0.150
2523,-0.045,-0.155
2524,-0.055,-0.145
2525,-0.055,-0.155
2526,-0.035,-0.130
2527,-0.045,-0.120
2528,-0.045,-0.120
2529,-0.030,-0.110
2530,-0.035,-0.105
2531,-0.050,-0.100
2532,-0.050,-0.105
2533,-0.050,-0.075
2534,-0.060,-0.105
2535,-0.055,-0.095
2536,-0.050,-0.100
2537,-0.040,-0.115
2538,-0.055,-0.115
2539,-0.075,-0.115
2540,-0.060,-0.110
2541,-0.065,-0.115
2542,-0.060,-0.125
2543,-0.060,-0.125
2544,-0.030,-0.105
2545,-0.010,-0.070
2546,-0.020,-0.020
2547,-0.020,-0.015
2548,-0.025,0.000
2549,-0.055,-0.015
2550,-0.080,-0.040
2551,-0.095,-0.100
2552,-0.100,-0.135
2553,-0.080,-0.145
2554,-0.090,-0.160
2555,-0.080,-0.185
2556,-0.095,-0.195
2557,-0.095,-0.200
2558,-0.085,-0.210
2559,-0.090,-0.220
2560,-0.090,-0.235
2561,-0.100,-0.220
2562,-0.105,-0.210
2563,-0.105,-0.250
2564,-0.095,-0.225
2565,-0.095,-0.235
2566,-0.090,-0.340
2567,-0.030,-0.365
2568,0.075,-0.270
2569,0.275,0.095
2570,0.190,0.750
2571,-0.105,0.540
2572,-0.305,0.000
2573,-0.210,-0.605
2574,-0.120,-0.425
2575,-0.110,-0.250
2576,-0.120,-0.225
2577,-0.120,-0.230
2578,-0.120,-0.225
2579,-0.115,-0.235
2580,-0.130,-0.250
2581,-0.105,-0.230
2582,-0.105,-0.230
2583,-0.100,-0.225
2584,-0.100,-0.235
2585,-0.085,-0.230
2586,-0.105,-0.220
2587,-0.080,-0.220
2588,-0.100,-0.215
2589,-0.110,-0.225
2590,-0.085,-0.215
2591,-0.085,-0.180
2592,-0.080,-0.185
2593,-0.085,-0.175
2594,-0.065,-0.155
2595,-0.080,-0.135
2596,-0.075,-0.120
2597,-0.060,-0.115
2598,-0.090,-0.090
2599,-0.080,-0.085
2600,-0.075,-0.070
2601,-0.070,-0.040
2602,-0.055,-0.010
2603,-0.065,-0.015
2604,-0.060,-0.020
2605,-0.025,-0.030
2606,-0.045,-0.020
2607,-0.020,-0.030
2608,-0.040,-0.055
2609,-0.055,-0.085
2610,-0.050,-0.120
2611,-0.040,-0.125
2612,-0.060,-0.130
2613,-0.045,-0.150
2614,-0.060,-0.165
2615,-0.050,-0.165
2616,-0.045,-0.175
2617,-0.050,-0.170
2618,-0.045,-0.180
2619,-0.050,-0.160
2620,-0.050,-0.160
2621,-0.045,-0.150
2622,-0.040,-0.135
2623,-0.040,-0.140
2624,-0.030,-0.150
2625,-0.025,-0.140
2626,-0.030,-0.135
2627,-0.045,-0.120
2628,-0.035,-0.130
2629,-0.030,-0.135
2630,-0.035,-0.125
2631,-0.040,-0.125
2632,-0.040,-0.130
2633,-0.035,-0.130
2634,-0.055,-0.145
2635,-0.040,-0.145
2636,-0.040,-0.150
2637,-0.015,-0.130
2638,-0.015,-0.100
2639,0.000,-0.045
2640,-0.005,-0.010
2641,0.000,-0.020
2642,-0.020,0.000
2643,-0.065,-0.055
2644,-0.080,-0.065
2645,-0.100,-0.155
2646,-0.070,-0.175
2647,-0.075,-0.155
2648,-0.075,-0.190
2649,-0.075,-0.185
2650,-0.070,-0.215
2651,-0.085,-0.220
2652,-0.075,-0.225
2653,-0.070,-0.215
2654,-0.075,-0.230
2655,-0.060,-0.210
2656,-0.070,-0.215
2657,-0.075,-0.230
2658,-0.060,-0.225
2659,-0.080,-0.250
2660,-0.085,-0.340
2661,-0.005,-0.385
2662,0.155,-0.265
2663,0.335,0.265
2664,0.125,0.725
2665,-0.200,0.395
2666,-0.275,-0.245
2667,-0.120,-0.630
2668,-0.075,-0.365
2669,-0.080,-0.235
2670,-0.075,-0.240
2671,-0.080,-0.235
2672,-0.070,-0.250
2673,-0.080,-0.240
2674,-0.090,-0.230
2675,-0.080,-0.220
2676,-0.070,-0.210
2677,-0.080,-0.225
2678,-0.080,-0.225
2679,-0.090,-0.220
2680,-0.075,-0.215
2681,-0.080,-0.210
2682,-0.075,-0.205
2683,-0.080,-0.200
2684,-0.080,-0.195
2685,-0.095,-0.190
2686,-0.085,-0.185
2687,-0.095,-0.170
2688,-0.075,-0.155
2689,-0.095,-0.160
2690,-0.065,-0.135
2691,-0.070,-0.100
2692,-0.065,-0.110
2693,-0.060,-0.085
2694,-0.065,-0.070
2695,-0.060,-0.060
2696,-0.070,-0.040
2697,-0.055,-0.045
2698,-0.045,-0.045
2699,-0.050,-0.030
2700,-0.040,-0.035
2701,-0.045,-0.050
2702,-0.050,-0.075
2703,-0.050,-0.100
2704,-0.055,-0.125
2705,-0.055,-0.140
2706,-0.040,-0.145
2707,-0.055,-0.175
2708,-0.065,-0.190
2709,-0.055,-0.170
2710,-0.070,-0.180
2711,-0.060,-0.185
2712,-0.060,-0.155
2713,-0.060,-0.180
2714,-0.050,-0.160
2715,-0.050,-0.150
2716,-0.060,-0.150
2717,-0.065,-0.155
2718,-0.050,-0.135
2719,-0.050,-0.150
2720,-0.050,-0.160
2721,-0.050,-0.145
2722,-0.070,-0.140
2723,-0.050,-0.145
2724,-0.055,-0.150
2725,-0.070,-0.155
2726,-0.060,-0.150
2727,-0.060,-0.155
2728,-0.060,-0.155
2729,-0.060,-0.145
2730,-0.070,-0.180
2731,-0.070,-0.160
2732,-0.030,-0.130
2733,-0.010,-0.100
2734,-0.020,-0.035
2735,-0.025,-0.035
2736,-0.020,0.000
2737,-0.075,-0.055
2738,-0.075,-0.075
2739,-0.100,-0.110
2740,-0.085,-0.155
2741,-0.080,-0.170
2742,-0.060,-0.200
2743,-0.065,-0.225
2744,-0.070,-0.220
2745,-0.075,-0.205
2746,-0.085,-0.195
2747,-0.060,-0.235
2748,-0.070,-0.225
2749,-0.065,-0.240
2750,-0.045,-0.220
2751,-0.070,-0.220
2752,-0.070,-0.235
2753,-0.040,-0.235
2754,-0.070,-0.285
2755,0.000,-0.375
2756,0.140,-0.245
2757,0.325,0.240
2758,0.205,0.775
2759,-0.050,0.455
2760,-0.250,0.110
2761,-0.185,-0.485
2762,-0.090,-0.600
2763,-0.080,-0.305
2764,-0.070,-0.210
2765,-0.060,-0.205
2766,-0.055,-0.225
2767,-0.075,-0.250
2768,-0.065,-0.240
2769,-0.065,-0.225
2770,-0.040,-0.225
2771,-0.055,-0.215
2772,-0.070,-0.210
2773,-0.050,-0.200
2774,-0.055,-0.200
2775,-0.085,-0.215
2776,-0.065,-0.210
2777,-0.065,-0.200
2778,-0.055,-0.180
2779,-0.060,-0.185
2780,-0.055,-0.165
2781,-0.055,-0.125
2782,-0.045,-0.130
2783,-0.045,-0.150
2784,-0.040,-0.130
2785,-0.040,-0.110
2786,-0.050,-0.100
2787,-0.055,-0.060
2788,-0.050,-0.070
2789,-0.025,-0.075
2790,-0.035,-0.040
2791,-0.040,-0.055
2792,-0.025,-0.020
2793,-0.025,-0.025
2794,-0.005,-0.020
2795,0.000,-0.015
2796,0.000,-0.010
2797,0.000,-0.045
2798,-0.010,-0.065
2799,0.000,-0.100
2800,-0.010,-0.125
2801,-0.025,-0.145
2802,-0.025,-0.165
2803,-0.020,-0.150
2804,-0.025,-0.145
2805,-0.015,-0.165
2806,-0.020,-0.145
2807,-0.020,-0.125
2808,-0.015,-0.115
2809,-0.025,-0.115
2810,-0.020,-0.120
2811,-0.020,-0.105
2812,-0.015,-0.100
2813,-0.040,-0.135
2814,-0.040,-0.100
2815,-0.030,-0.105
2816,-0.035,-0.105
2817,-0.035,-0.130
2818,-0.020,-0.120
2819,-0.055,-0.130
2820,-0.045,-0.140
2821,-0.055,-0.140
2822,-0.055,-0.145
2823,-0.040,-0.170
2824,-0.035,-0.145
2825,-0.040,-0.135
2826,-0.005,-0.100
2827,-0.010,-0.050
2828,-0.020,-0.045
2829,-0.035,-0.030
2830,-0.040,-0.025
2831,-0.060,-0.050
2832,-0.090,-0.080
2833,-0.070,-0.125
2834,-0.065,-0.160
2835,-0.070,-0.185
2836,-0.050,-0.220
2837,-0.075,-0.235
2838,-0.060,-0.190
2839,-0.075,-0.220
2840,-0.080,-0.245
2841,-0.055,-0.230
2842,-0.055,-0.210
2843,-0.045,-0.220
2844,-0.065,-0.220
2845,-0.060,-0.205
2846,-0.060,-0.230
2847,-0.055,-0.260
2848,-0.030,-0.350
2849,0.080,-0.305
2850,0.240,0.115
2851,0.280,0.840
2852,0.170,0.815
2853,-0.100,0.365
2854,-0.195,-0.235
2855,-0.130,-0.735
2856,-0.110,-0.475
2857,-0.085,-0.260
2858,-0.095,-0.220
2859,-0.085,-0.235
2860,-0.090,-0.235
2861,-0.080,-0.235
2862,-0.060,-0.220
2863,-0.080,-0.205
2864,-0.075,-0.220
2865,-0.080,-0.220
2866,-0.080,-0.215
2867,-0.075,-0.205
2868,-0.075,-0.215
2869,-0.070,-0.185
2870,-0.070,-0.210
2871,-0.080,-0.195
2872,-0.070,-0.170
2873,-0.080,-0.175
2874,-0.060,-0.160
2875,-0.075,-0.175
2876,-0.075,-0.150
2877,-0.060,-0.110
2878,-0.060,-0.125
2879,-0.050,-0.090
2880,-0.070,-0.085
2881,-0.065,-0.085
2882,-0.040,-0.055
2883,-0.060,-0.060
2884,-0.055,-0.050
2885,-0.035,-0.050
2886,-0.035,-0.025
2887,-0.025,-0.020
2888,-0.010,-0.020
2889,0.000,-0.025
2890,-0.015,-0.035
2891,0.000,-0.060
2892,-0.005,-0.085
2893,-0.015,-0.090
2894,-0.015,-0.125
2895,0.000,-0.135
2896,-0.020,-0.125
2897,-0.015,-0.155
2898,-0.015,-0.145
2899,-0.025,-0.135
2900,-0.015,-0.120
2901,-0.015,-0.130
2902,-0.030,-0.105
2903,-0.015,-0.090
2904,-0.025,-0.080
2905,0.000,-0.090
2906,-0.010,-0.085
2907,-0.020,-0.095
2908,-0.010,-0.065
2909,-0.010,-0.080
2910,-0.025,-0.085
2911,-0.030,-0.105
2912,-0.015,-0.115
2913,-0.030,-0.115
2914,-0.025,-0.105
2915,-0.025,-0.110
2916,-0.025,-0.125
2917,-0.030,-0.135
2918,-0.025,-0.120
2919,-0.020,-0.110
2920,-0.010,-0.095
2921,0.010,-0.030
2922,0.000,-0.025
2923,0.000,-0.015
2924,-0.020,0.020
2925,-0.045,-0.025
2926,-0.065,-0.050
2927,-0.070,-0.125
2928,-0.070,-0.130
2929,-0.055,-0.160
2930,-0.055,-0.175
2931,-0.070,-0.205
2932,-0.060,-0.210
2933,-0.075,-0.190
2934,-0.040,-0.210
2935,-0.070,-0.220
2936,-0.055,-0.195
2937,-0.055,-0.205
2938,-0.050,-0.175
2939,-0.060,-0.195
2940,-0.060,-0.205
2941,-0.045,-0.235
2942,-0.020,-0.320
2943,0.045,-0.325
2944,0.200,-0.020
2945,0.335,0.430
2946,0.130,0.755
2947,-0.195,0.365
2948,-0.230,-0.315
2949,-0.130,-0.610
2950,-0.080,-0.340
2951,-0.080,-0.245
2952,-0.090,-0.220
2953,-0.085,-0.205
2954,-0.090,-0.210
2955,-0.095,-0.215
2956,-0.090,-0.225
2957,-0.085,-0.215
2958,-0.095,-0.210
2959,-0.100,-0.190
2960,-0.100,-0.200
2961,-0.100,-0.205
2962,-0.070,-0.210
2963,-0.080,-0.190
2964,-0.075,-0.185
2965,-0.070,-0.185
2966,-0.080,-0.160
2967,-0.080,-0.180
2968,-0.065,-0.160
2969,-0.075,-0.145
2970,-0.070,-0.120
2971,-0.050,-0.110
2972,-0.060,-0.085
2973,-0.075,-0.080
2974,-0.055,-0.075
2975,-0.065,-0.055
2976,-0.060,-0.035
2977,-0.055,-0.035
2978,-0.065,-0.030
2979,-0.040,-0.020
2980,-0.060,-0.035
2981,-0.030,-0.030
2982,-0.020,-0.025
2983,-0.020,-0.025
2984,-0.025,-0.060
2985,-0.035,-0.080
2986,-0.030,-0.120
2987,-0.045,-0.130
2988,-0.030,-0.150
2989,-0.025,-0.145
2990,-0.035,-0.150
2991,-0.020,-0.155
2992,-0.005,-0.155
2993,-0.040,-0.160
2994,-0.030,-0.155
2995,-0.030,-0.150
2996,-0.040,-0.145
2997,-0.035,-0.150
2998,-0.025,-0.140
2999,-0.025,-0.120
3000,-0.040,-0.135
3001,-0.020,-0.125
3002,-0.035,-0.120
3003,-0.035,-0.135
3004,-0.025,-0.115
3005,-0.025,-0.130
3006,-0.035,-0.125
3007,-0.035,-0.130
3008,-0.030,-0.155
3009,-0.045,-0.130
3010,-0.030,-0.135
3011,-0.035,-0.125
3012,-0.015,-0.140
3013,0.000,-0.100
3014,0.015,-0.075
3015,0.020,-0.025
3016,0.005,0.000
3017,0.000,0.010
3018,-0.035,-0.005
3019,-0.060,-0.065
3020,-0.060,-0.120
3021,-0.045,-0.150
3022,-0.060,-0.155
3023,-0.035,-0.165
3024,-0.040,-0.180
3025,-0.035,-0.200
3026,-0.045,-0.205
3027,-0.030,-0.205
3028,-0.045,-0.200
3029,-0.035,-0.190
3030,-0.060,-0.220
3031,-0.045,-0.215
3032,-0.050,-0.230
3033,-0.030,-0.220
3034,-0.040,-0.215
3035,-0.055,-0.280
3036,-0.010,-0.360
3037,0.070,-0.320
3038,0.280,-0.105
3039,0.305,0.510
3040,0.005,0.620
3041,-0.275,0.215
3042,-0.170,-0.505
3043,-0.070,-0.465
3044,-0.050,-0.225
3045,-0.045,-0.230
3046,-0.065,-0.220
3047,-0.055,-0.225
3048,-0.045,-0.210
3049,-0.045,-0.215
3050,-0.055,-0.215
3051,-0.050,-0.220
3052,-0.055,-0.185
3053,-0.050,-0.200
3054,-0.055,-0.210
3055,-0.060,-0.205
3056,-0.050,-0.190
3057,-0.045,-0.185
3058,-0.045,-0.195
3059,-0.045,-0.180
3060,-0.050,-0.170
3061,-0.055,-0.150
3062,-0.035,-0.160
3063,-0.045,-0.115
3064,-0.045,-0.125
3065,-0.035,-0.115
3066,-0.025,-0.085
3067,-0.040,-0.065
3068,-0.025,-0.060
3069,-0.045,-0.060
3070,-0.030,-0.050
3071,-0.040,-0.025
3072,-0.020,-0.020
3073,-0.015,-0.015
3074,-0.015,-0.005
3075,-0.005,-0.020
3076,0.000,-0.025
3077,-0.010,-0.035
3078,-0.010,-0.075
3079,-0.030,-0.100
3080,-0.010,-0.105
3081,-0.035,-0.130
3082,-0.025,-0.165
3083,-0.040,-0.150
3084,-0.030,-0.170
3085,-0.035,-0.175
3086,-0.025,-0.185
3087,-0.040,-0.180
3088,-0.030,-0.175
3089,-0.045,-0.170
3090,-0.030,-0.180
3091,-0.050,-0.160
3092,-0.035,-0.170
3093,-0.050,-0.145
3094,-0.050,-0.150
3095,-0.035,-0.160
3096,-0.040,-0.160
3097,-0.050,-0.150
3098,-0.040,-0.160
3099,-0.035,-0.165
3100,-0.035,-0.170
3101,-0.035,-0.165
3102,-0.045,-0.155
3103,-0.040,-0.180
3104,-0.045,-0.170
3105,-0.040,-0.165
3106,-0.050,-0.195
3107,-0.040,-0.190
3108,-0.040,-0.160
3109,-0.020,-0.145
3110,-0.010,-0.110
3111,0.005,-0.040
3112,0.000,-0.045
3113,-0.040,-0.030
3114,-0.050,-0.090
3115,-0.080,-0.135
3116,-0.075,-0.170
3117,-0.080,-0.175
3118,-0.075,-0.190
3119,-0.065,-0.235
3120,-0.070,-0.245
3121,-0.075,-0.240
3122,-0.070,-0.245
3123,-0.065,-0.240
3124,-0.060,-0.245
3125,-0.055,-0.245
3126,-0.065,-0.250
3127,-0.050,-0.260
3128,-0.070,-0.245
3129,-0.060,-0.260
3130,-0.070,-0.330
3131,-0.040,-0.405
3132,0.085,-0.350
3133,0.295,-0.055
3134,0.270,0.580
3135,-0.035,0.500
3136,-0.320,0.105
3137,-0.205,-0.670
3138,-0.115,-0.745
3139,-0.060,-0.425
3140,-0.065,-0.275
3141,-0.075,-0.265
3142,-0.075,-0.235
3143,-0.075,-0.240
3144,-0.055,-0.240
3145,-0.050,-0.240
3146,-0.055,-0.240
3147,-0.045,-0.230
3148,-0.045,-0.210
3149,-0.040,-0.215
3150,-0.045,-0.230
3151,-0.020,-0.225
3152,-0.045,-0.215
3153,-0.050,-0.220
3154,-0.050,-0.215
3155,-0.025,-0.205
3156,-0.035,-0.185
3157,-0.040,-0.170
3158,-0.045,-0.170
3159,-0.015,-0.115
3160,-0.035,-0.130
3161,-0.035,-0.120
3162,-0.025,-0.100
3163,-0.030,-0.100
3164,-0.030,-0.075
3165,-0.025,-0.085
3166,-0.020,-0.065
3167,-0.005,-0.030
3168,-0.005,-0.055
3169,0.000,-0.050
3170,0.000,-0.010
3171,0.015,-0.045
3172,0.015,-0.065
3173,0.005,-0.060
3174,0.015,-0.090
3175,-0.005,-0.130
3176,0.000,-0.135
3177,0.000,-0.145
3178,-0.020,-0.160
3179,-0.005,-0.190
3180,0.000,-0.170
3181,0.000,-0.170
3182,-0.005,-0.170
3183,-0.010,-0.150
3184,-0.010,-0.170
3185,-0.010,-0.180
3186,0.000,-0.135
3187,-0.005,-0.160
3188,-0.015,-0.145
3189,-0.015,-0.150
3190,-0.020,-0.155
3191,-0.015,-0.155
3192,-0.020,-0.160
3193,-0.020,-0.135
3194,-0.015,-0.165
3195,-0.020,-0.160
3196,-0.020,-0.165
3197,-0.010,-0.180
3198,-0.025,-0.155
3199,-0.045,-0.200
3200,-0.025,-0.230
3201,-0.035,-0.195
3202,-0.020,-0.155
3203,-0.005,-0.100
3204,0.010,-0.085
3205,0.005,-0.075
3206,0.000,-0.045
3207,-0.020,-0.060
3208,-0.050,-0.130
3209,-0.065,-0.120
3210,-0.065,-0.165
3211,-0.060,-0.205
3212,-0.055,-0.230
3213,-0.065,-0.240
3214,-0.065,-0.265
3215,-0.070,-0.260
3216,-0.060,-0.265
3217,-0.070,-0.260
3218,-0.075,-0.285
3219,-0.075,-0.250
3220,-0.095,-0.275
3221,-0.095,-0.275
3222,-0.090,-0.280
3223,-0.075,-0.300
3224,-0.085,-0.330
3225,-0.055,-0.365
3226,0.050,-0.335
3227,0.175,0.080
3228,0.195,0.820
3229,0.000,0.695
3230,-0.265,0.050
3231,-0.260,-0.590
3232,-0.205,-0.875
3233,-0.165,-0.620
3234,-0.155,-0.350
3235,-0.125,-0.280
3236,-0.145,-0.270
3237,-0.135,-0.285
3238,-0.150,-0.285
3239,-0.125,-0.285
3240,-0.145,-0.260
3241,-0.130,-0.275
3242,-0.125,-0.255
3243,-0.125,-0.255
3244,-0.145,-0.285
3245,-0.115,-0.285
3246,-0.120,-0.265
3247,-0.105,-0.240
3248,-0.100,-0.225
3249,-0.100,-0.235
3250,-0.095,-0.225
3251,-0.100,-0.215
3252,-0.100,-0.220
3253,-0.100,-0.190
3254,-0.080,-0.205
3255,-0.095,-0.190
3256,-0.100,-0.175
3257,-0.090,-0.205
3258,-0.085,-0.155
3259,-0.080,-0.150
3260,-0.095,-0.100
3261,-0.090,-0.095
3262,-0.075,-0.155
3263,-0.070,-0.140
3264,-0.075,-0.105
3265,-0.035,-0.125
3266,-0.040,-0.100
3267,-0.030,-0.125
3268,-0.045,-0.165
3269,-0.015,-0.175
3270,-0.030,-0.205
3271,-0.035,-0.220
3272,-0.030,-0.195
3273,-0.030,-0.240
3274,-0.025,-0.235
3275,-0.030,-0.235
3276,-0.020,-0.230
3277,-0.015,-0.235
3278,-0.005,-0.210
3279,-0.015,-0.200
3280,-0.005,-0.200
3281,-0.020,-0.185
3282,-0.010,-0.185
3283,-0.005,-0.140
3284,-0.025,-0.185
3285,-0.010,-0.165
3286,-0.015,-0.160
3287,-0.030,-0.205
3288,-0.035,-0.190
3289,-0.020,-0.195
3290,-0.030,-0.160
3291,-0.020,-0.185
3292,-0.045,-0.210
3293,-0.040,-0.210
3294,-0.030,-0.220
3295,-0.015,-0.215
3296,0.000,-0.170
3297,0.000,-0.120
3298,0.010,-0.080
3299,0.000,-0.075
3300,-0.020,-0.100
3301,-0.025,-0.090
3302,-0.055,-0.115
3303,-0.060,-0.170
3304,-0.055,-0.200
3305,-0.070,-0.245
3306,-0.040,-0.250
3307,-0.050,-0.260
3308,-0.050,-0.270
3309,-0.055,-0.270
3310,-0.060,-0.290
3311,-0.040,-0.265
3312,-0.050,-0.270
3313,-0.045,-0.330
3314,-0.045,-0.280
3315,-0.025,-0.275
3316,-0.020,-0.280
3317,-0.040,-0.295
3318,-0.010,-0.415
3319,0.045,-0.410
3320,0.160,-0.300
3321,0.280,0.195
3322,0.215,0.785
3323,-0.050,0.450
3324,-0.150,-0.050
3325,-0.100,-0.620
3326,-0.095,-0.520
3327,-0.050,-0.305
3328,-0.060,-0.240
3329,-0.050,-0.250
3330,-0.045,-0.260
3331,-0.060,-0.250
3332,-0.070,-0.245
3333,-0.045,-0.245
3334,-0.060,-0.225
3335,-0.065,-0.235
3336,-0.040,-0.225
3337,-0.045,-0.210
3338,-0.040,-0.215
3339,-0.040,-0.185
3340,-0.065,-0.175
3341,-0.055,-0.190
3342,-0.050,-0.175
3343,-0.035,-0.175
3344,-0.050,-0.170
3345,-0.040,-0.130
3346,-0.035,-0.085
3347,-0.040,-0.080
3348,-0.035,-0.050
3349,-0.040,-0.045
3350,-0.050,-0.060
3351,-0.045,-0.045
3352,-0.065,-0.020
3353,-0.045,0.010
3354,-0.050,0.010
3355,-0.050,0.005
3356,-0.045,0.035
3357,-0.030,0.040
3358,-0.015,0.065
3359,-0.010,0.035
3360,-0.005,0.005
3361,-0.020,-0.010
3362,-0.005,-0.015
3363,-0.040,-0.030
3364,-0.030,-0.065
3365,-0.020,-0.050
3366,-0.015,-0.060
3367,-0.045,-0.060
3368,-0.035,-0.060
3369,-0.035,-0.100
3370,-0.040,-0.065
3371,-0.030,-0.040
3372,-0.035,-0.045
3373,-0.035,-0.075
3374,-0.010,-0.060
3375,-0.015,-0.025
3376,-0.035,-0.040
3377,-0.025,-0.050
3378,-0.020,-0.040
3379,-0.015,-0.035
3380,-0.025,-0.010
3381,-0.025,-0.040
3382,-0.005,-0.065
3383,-0.015,-0.065
3384,-0.035,-0.050
3385,-0.035,-0.060
3386,-0.040,-0.105
3387,-0.040,-0.100
3388,-0.010,-0.075
3389,-0.010,-0.070
3390,0.015,-0.040
3391,0.020,0.025
3392,0.030,-0.020
3393,0.030,0.005
3394,0.000,0.045
3395,-0.010,0.005
3396,-0.060,0.000
3397,-0.055,-0.075
3398,-0.030,-0.090
3399,-0.040,-0.105
3400,-0.020,-0.115
3401,-0.030,-0.125
3402,-0.030,-0.140
3403,-0.030,-0.125
3404,-0.030,-0.135
3405,-0.020,-0.130
3406,-0.015,-0.120
3407,-0.010,-0.145
3408,-0.005,-0.145
3409,-0.010,-0.135
3410,-0.010,-0.160
3411,-0.020,-0.170
3412,0.020,-0.290
3413,0.140,-0.235
3414,0.330,0.070
3415,0.415,0.725
3416,0.180,0.965
3417,-0.165,0.520
3418,-0.190,-0.110
3419,-0.080,-0.480
3420,-0.040,-0.230
3421,-0.050,-0.145
3422,-0.065,-0.150
3423,-0.060,-0.125
3424,-0.060,-0.125
3425,-0.050,-0.125
3426,-0.055,-0.115
3427,-0.040,-0.110
3428,-0.040,-0.105
3429,-0.045,-0.100
3430,-0.050,-0.105
3431,-0.050,-0.105
3432,-0.040,-0.105
3433,-0.040,-0.090
3434,-0.030,-0.115
3435,-0.030,-0.100
3436,-0.025,-0.090
3437,-0.030,-0.075
3438,-0.035,-0.070
3439,-0.035,-0.045
3440,-0.040,-0.010
3441,-0.040,-0.015
3442,-0.030,0.015
3443,-0.045,0.000
3444,-0.030,0.005
3445,-0.040,0.030
3446,-0.025,0.050
3447,-0.030,0.075
3448,-0.015,0.070
3449,-0.025,0.095
3450,-0.020,0.095
3451,-0.005,0.055
3452,0.010,0.045
3453,0.005,0.070
3454,0.000,0.035
3455,-0.010,0.000
3456,-0.010,-0.025
3457,0.000,-0.055
3458,-0.015,-0.075
3459,-0.010,-0.080
3460,-0.015,-0.065
3461,-0.010,-0.070
3462,-0.015,-0.075
3463,-0.020,-0.060
3464,-0.020,-0.055
3465,-0.020,-0.045
3466,-0.030,-0.075
3467,-0.020,-0.060
3468,-0.015,-0.065
3469,-0.015,-0.050
3470,-0.020,-0.040
3471,-0.015,-0.040
3472,-0.030,-0.025
3473,-0.025,-0.040
3474,-0.015,-0.030
3475,-0.030,-0.050
3476,-0.040,-0.060
3477,-0.040,-0.055
3478,-0.050,-0.050
3479,-0.030,-0.060
3480,-0.025,-0.035
3481,-0.025,-0.070
3482,-0.005,-0.070
3483,0.015,-0.005
3484,0.005,0.015
3485,0.000,0.045
3486,-0.005,0.090
3487,-0.040,0.050
3488,-0.050,0.040
3489,-0.055,0.000
3490,-0.065,-0.055
3491,-0.050,-0.065
3492,-0.035,-0.100
3493,-0.055,-0.115
3494,-0.040,-0.125
3495,-0.045,-0.090
3496,-0.045,-0.125
3497,-0.055,-0.125
3498,-0.045,-0.125
3499,-0.060,-0.140
3500,-0.050,-0.155
3501,-0.045,-0.145
3502,-0.050,-0.140
3503,-0.055,-0.130
3504,-0.045,-0.195
3505,-0.010,-0.275
3506,0.150,-0.210
3507,0.325,0.225
3508,0.160,0.750
3509,-0.125,0.525
3510,-0.310,0.165
3511,-0.205,-0.395
3512,-0.075,-0.450
3513,-0.055,-0.190
3514,-0.065,-0.170
3515,-0.045,-0.150
3516,-0.050,-0.150
3517,-0.045,-0.150
3518,-0.055,-0.155
3519,-0.055,-0.135
3520,-0.040,-0.140
3521,-0.030,-0.130
3522,-0.045,-0.125
3523,-0.045,-0.125
3524,-0.045,-0.115
3525,-0.045,-0.070
3526,-0.030,-0.100
3527,-0.015,-0.090
3528,-0.030,-0.090
3529,-0.040,-0.065
3530,-0.015,-0.060
3531,-0.025,-0.035
3532,-0.015,-0.065
3533,-0.030,-0.025
3534,-0.005,0.000
3535,0.000,0.010
3536,0.000,0.025
3537,-0.015,0.040
3538,0.000,0.070
3539,-0.005,0.075
3540,-0.005,0.045
3541,0.000,0.085
3542,0.015,0.100
3543,0.015,0.110
3544,0.025,0.095
3545,0.030,0.095
3546,0.015,0.065
3547,0.025,0.045
3548,0.010,0.035
3549,0.005,0.000
3550,0.000,-0.005
3551,-0.005,-0.015
3552,0.000,-0.040
3553,-0.005,-0.035
3554,0.000,-0.025
3555,-0.005,-0.045
3556,-0.005,-0.040
3557,0.000,-0.020
3558,0.000,-0.010
3559,0.010,-0.020
3560,-0.005,-0.005
3561,0.010,0.000
3562,0.005,0.000
3563,0.000,-0.010
3564,0.000,-0.015
3565,0.000,0.000
3566,0.000,0.010
3567,0.000,0.005
3568,0.000,0.025
3569,-0.005,0.000
3570,0.000,-0.005
3571,0.000,-0.015
3572,-0.005,-0.020
3573,0.010,-0.005
3574,0.030,0.010
3575,0.015,0.055
3576,0.030,0.105
3577,0.035,0.115
3578,0.015,0.125
3579,0.000,0.115
3580,-0.020,0.060
3581,-0.045,0.035
3582,-0.040,-0.010
3583,-0.015,-0.005
3584,-0.015,-0.045
3585,-0.025,-0.075
3586,-0.035,-0.070
3587,-0.020,-0.075
3588,-0.020,-0.085
3589,-0.025,-0.085
3590,-0.015,-0.090
3591,-0.030,-0.080
3592,-0.025,-0.070
3593,-0.025,-0.090
3594,-0.020,-0.085
3595,-0.020,-0.105
3596,-0.025,-0.175
3597,0.025,-0.240
3598,0.130,-0.155
3599,0.290,0.190
3600,0.255,0.940
3601,0.005,0.760
3602,-0.210,0.225
3603,-0.130,-0.505
3604,-0.100,-0.495
3605,-0.075,-0.185
3606,-0.070,-0.100
3607,-0.050,-0.105
3608,-0.050,-0.095
3609,-0.045,-0.100
3610,-0.060,-0.090
3611,-0.040,-0.065
3612,-0.035,-0.085
3613,-0.035,-0.060
3614,-0.040,-0.075
3615,-0.030,-0.075
3616,-0.050,-0.075
3617,-0.050,-0.060
3618,-0.035,-0.055
3619,-0.030,-0.040
3620,-0.025,-0.060
3621,-0.020,-0.060
3622,-0.030,-0.025
3623,-0.040,-0.005
3624,-0.025,0.005
3625,-0.020,0.035
3626,-0.025,0.015
3627,-0.030,0.025
3628,-0.025,0.070
3629,-0.035,0.065
3630,-0.030,0.080
3631,-0.020,0.085
3632,-0.015,0.125
3633,-0.015,0.125
3634,-0.020,0.135
3635,-0.020,0.110
3636,0.005,0.130
3637,0.005,0.125
3638,0.020,0.110
3639,0.005,0.075
3640,0.005,0.040
3641,0.000,0.030
3642,0.005,0.010
3643,-0.005,0.000
3644,0.000,-0.025
3645,0.010,-0.015
3646,-0.010,-0.030
3647,0.015,-0.035
3648,0.000,-0.005
3649,0.000,-0.005
3650,0.000,0.000
3651,0.005,-0.005
3652,0.000,0.000
3653,0.020,0.005
3654,0.010,0.025
3655,0.010,0.035
3656,0.000,0.050
3657,0.010,0.060
3658,0.010,0.040
3659,0.005,0.035
3660,0.010,0.030
3661,0.015,0.035
3662,0.020,0.035
3663,0.005,0.040
3664,0.000,0.065
3665,0.015,0.020
3666,0.040,0.045
3667,0.050,0.070
3668,0.055,0.115
3669,0.050,0.145
3670,0.040,0.160
3671,0.005,0.115
3672,0.005,0.105
3673,-0.035,0.070
3674,-0.005,0.015
3675,-0.015,0.015
3676,0.000,-0.005
3677,0.000,-0.025
3678,-0.020,-0.045
3679,-0.015,-0.025
3680,-0.020,-0.065
3681,-0.010,-0.060
3682,-0.020,-0.065
3683,-0.005,-0.050
3684,-0.010,-0.040
3685,-0.005,-0.050
3686,-0.010,-0.050
3687,-0.005,-0.050
3688,-0.025,-0.080
3689,0.035,-0.195
3690,0.160,-0.120
3691,0.350,0.295
3692,0.300,1.025
3693,0.120,0.815
3694,-0.165,0.480
3695,-0.130,-0.225
3696,-0.065,-0.440
3697,-0.050,-0.150
3698,-0.035,-0.065
3699,-0.045,-0.060
3700,-0.045,-0.080
3701,-0.020,-0.055
3702,-0.035,-0.055
3703,-0.035,-0.050
3704,-0.025,-0.055
3705,-0.040,-0.050
3706,-0.020,-0.055
3707,-0.015,-0.040
3708,-0.010,-0.010
3709,-0.010,-0.050
3710,-0.030,-0.045
3711,-0.025,-0.025
3712,0.000,-0.015
3713,-0.005,-0.010
3714,-0.020,0.000
3715,-0.010,0.015
3716,-0.015,0.015
3717,-0.010,0.030
3718,-0.030,0.045
3719,-0.030,0.060
3720,-0.015,0.065
3721,-0.020,0.090
3722,-0.015,0.095
3723,-0.020,0.125
3724,-0.030,0.115
3725,-0.020,0.115
3726,-0.020,0.120
3727,0.000,0.130
3728,-0.010,0.125
3729,0.000,0.085
3730,0.005,0.090
3731,-0.010,0.060
3732,0.000,0.030
3733,-0.015,0.015
3734,-0.015,0.000
3735,-0.010,-0.005
3736,-0.020,-0.020
3737,-0.010,-0.020
3738,-0.035,-0.025
3739,-0.005,-0.030
3740,-0.005,-0.015
3741,0.000,-0.020
3742,-0.015,-0.035
3743,-0.005,-0.015
3744,-0.010,-0.005
3745,0.000,-0.005
3746,-0.005,0.000
3747,0.000,0.000
3748,-0.010,0.005
3749,-0.015,-0.005
3750,-0.005,-0.005
3751,-0.015,0.000
3752,0.000,-0.010
3753,-0.025,-0.010
3754,-0.010,-0.010
3755,-0.020,-0.030
3756,-0.035,-0.025
3757,-0.035,-0.030
3758,-0.010,-0.020
3759,0.010,0.015
3760,0.035,0.035
3761,0.005,0.085
3762,0.030,0.095
3763,0.000,0.145
3764,-0.010,0.090
3765,-0.050,0.050
3766,-0.050,0.025
3767,-0.045,-0.010
3768,-0.035,-0.035
3769,-0.045,-0.035
3770,-0.035,-0.055
3771,-0.025,-0.075
3772,-0.025,-0.050
3773,-0.045,-0.120
3774,-0.015,-0.140
3775,-0.020,-0.100
3776,-0.040,-0.115
3777,0.000,-0.110
3778,-0.020,-0.110
3779,-0.015,-0.085
3780,-0.030,-0.120
3781,-0.040,-0.150
3782,0.005,-0.225
3783,0.175,-0.165
3784,0.350,0.270
3785,0.225,0.845
3786,-0.090,0.630
3787,-0.260,0.130
3788,-0.190,-0.510
3789,-0.070,-0.520
3790,-0.045,-0.190
3791,-0.040,-0.115
3792,-0.010,-0.085
3793,-0.035,-0.095
3794,-0.025,-0.100
3795,-0.025,-0.095
3796,-0.040,-0.125
3797,-0.035,-0.090
3798,-0.020,-0.100
3799,-0.020,-0.110
3800,-0.020,-0.115
3801,-0.030,-0.110
3802,-0.010,-0.110
3803,-0.010,-0.095
3804,-0.010,-0.070
3805,-0.010,-0.095
3806,0.000,-0.060
3807,-0.005,-0.045
3808,-0.020,-0.050
3809,-0.010,-0.045
3810,-0.010,-0.030
3811,-0.010,-0.025
3812,-0.005,-0.005
3813,0.010,0.005
3814,0.000,0.025
3815,0.020,0.030
3816,0.000,0.045
3817,0.015,0.050
3818,0.020,0.070
3819,0.025,0.065
3820,0.045,0.075
3821,0.030,0.085
3822,0.030,0.060
3823,0.040,0.045
3824,0.030,0.000
3825,0.015,0.000
3826,0.010,-0.025
3827,0.005,-0.035
3828,0.005,-0.045
3829,0.010,-0.060
3830,-0.005,-0.070
3831,0.005,-0.090
3832,0.000,-0.075
3833,0.005,-0.050
3834,0.005,-0.080
3835,0.005,-0.075
3836,0.010,-0.065
3837,0.025,-0.055
3838,0.025,-0.050
3839,0.000,-0.040
3840,-0.010,-0.050
3841,0.025,-0.045
3842,0.015,-0.060
3843,0.005,-0.050
3844,0.000,-0.050
3845,0.010,-0.060
3846,0.000,-0.060
3847,-0.010,-0.080
3848,0.000,-0.070
3849,-0.005,-0.060
3850,-0.010,-0.065
3851,0.000,-0.055
3852,0.025,-0.055
3853,0.030,-0.025
3854,0.025,0.020
3855,0.010,0.050
3856,0.005,0.050
3857,-0.005,0.055
3858,-0.050,0.025
3859,-0.050,-0.035
3860,-0.055,-0.095
3861,-0.045,-0.095
3862,-0.035,-0.110
3863,-0.050,-0.125
3864,-0.035,-0.155
3865,-0.040,-0.155
3866,-0.035,-0.150
3867,-0.040,-0.155
3868,-0.040,-0.155
3869,-0.030,-0.165
3870,-0.040,-0.170
3871,-0.035,-0.150
3872,-0.035,-0.170
3873,-0.030,-0.180
3874,-0.040,-0.235
3875,-0.005,-0.320
3876,0.095,-0.300
3877,0.300,-0.010
3878,0.290,0.635
3879,0.005,0.645
3880,-0.220,0.225
3881,-0.135,-0.470
3882,-0.060,-0.490
3883,-0.050,-0.195
3884,-0.045,-0.160
3885,-0.055,-0.190
3886,-0.045,-0.175
3887,-0.050,-0.185
3888,-0.035,-0.170
3889,-0.030,-0.170
3890,-0.045,-0.150
3891,-0.045,-0.150
3892,-0.030,-0.160
3893,-0.025,-0.155
3894,-0.020,-0.165
3895,-0.030,-0.160
3896,-0.025,-0.160
3897,-0.030,-0.135
3898,-0.025,-0.130
3899,-0.025,-0.120
3900,-0.015,-0.115
3901,-0.020,-0.090
3902,-0.020,-0.100
3903,-0.035,-0.060
3904,-0.030,-0.045
3905,-0.025,-0.065
3906,-0.035,-0.040
3907,-0.010,-0.025
3908,-0.010,0.020
3909,-0.005,0.030
3910,-0.025,0.010
3911,-0.015,0.025
3912,0.005,0.060
3913,0.025,0.070
3914,0.015,0.040
3915,0.040,0.030
3916,0.025,0.020
3917,0.030,-0.010
3918,0.020,-0.030
3919,0.015,-0.045
3920,0.020,-0.060
3921,0.005,-0.060
3922,0.005,-0.075
3923,0.015,-0.085
3924,0.035,-0.085
3925,0.020,-0.100
3926,0.020,-0.105
3927,0.025,-0.060
3928,0.025,-0.060
3929,0.000,-0.060
3930,0.040,-0.070
3931,0.030,-0.065
3932,0.025,-0.065
3933,0.020,-0.055
3934,0.020,-0.040
3935,0.020,-0.035
3936,0.005,-0.025
3937,0.000,-0.040
3938,0.015,-0.045
3939,0.020,-0.050
3940,0.010,-0.055
3941,0.010,-0.070
3942,0.005,-0.075
3943,-0.005,-0.055
3944,0.020,-0.050
3945,0.030,-0.050
3946,0.035,0.005
3947,0.050,0.030
3948,0.045,0.050
3949,0.035,0.070
3950,0.010,0.050
3951,0.000,0.005
3952,-0.010,-0.020
3953,-0.005,-0.035
3954,0.000,-0.050
3955,-0.005,-0.100
3956,-0.015,-0.155
3957,-0.020,-0.140
3958,0.000,-0.150
3959,0.000,-0.155
3960,0.000,-0.160
3961,0.000,-0.155
3962,-0.015,-0.175
3963,-0.015,-0.160
3964,-0.025,-0.160
3965,0.000,-0.165
3966,-0.020,-0.140
3967,-0.005,-0.240
3968,0.090,-0.290
3969,0.210,-0.050
3970,0.345,0.500
3971,0.295,1.040
3972,0.035,0.730
3973,-0.150,0.105
3974,-0.095,-0.560
3975,-0.055,-0.535
3976,-0.025,-0.225
3977,-0.040,-0.190
3978,-0.035,-0.145
3979,-0.045,-0.165
3980,-0.030,-0.165
3981,-0.055,-0.190
3982,-0.045,-0.190
3983,-0.045,-0.180
3984,-0.035,-0.160
3985,-0.030,-0.160
3986,-0.050,-0.160
3987,-0.040,-0.160
3988,-0.045,-0.165
3989,-0.030,-0.140
3990,-0.050,-0.125
3991,-0.045,-0.130
3992,-0.045,-0.125
3993,-0.055,-0.115
3994,-0.045,-0.120
3995,-0.050,-0.110
3996,-0.045,-0.085
3997,-0.045,-0.080
3998,-0.055,-0.060
3999,-0.040,-0.040
4000,-0.050,-0.035
4001,-0.055,-0.030
4002,-0.045,-0.025
4003,-0.055,-0.025
4004,-0.040,-0.015
4005,-0.035,0.000
4006,-0.030,0.000
4007,-0.015,0.005
4008,-0.015,0.000
4009,0.000,-0.005
4010,0.000,-0.035
4011,-0.010,-0.040
4012,-0.020,-0.065
4013,-0.010,-0.110
4014,-0.005,-0.115
4015,-0.020,-0.125
4016,-0.025,-0.115
4017,-0.015,-0.130
4018,-0.015,-0.125
4019,-0.020,-0.120
4020,-0.025,-0.105
4021,-0.015,-0.090
4022,-0.005,-0.085
4023,-0.025,-0.070
4024,-0.015,-0.080
4025,-0.005,-0.060
4026,-0.015,-0.055
4027,-0.005,-0.050
4028,-0.030,-0.030
4029,-0.020,-0.060
4030,-0.020,-0.075
4031,-0.040,-0.095
4032,-0.030,-0.115
4033,-0.030,-0.095
4034,-0.035,-0.075
4035,-0.025,-0.095
4036,-0.040,-0.075
4037,-0.010,-0.100
4038,0.005,-0.060
4039,0.015,-0.015
4040,0.005,0.000
4041,0.010,0.015
4042,-0.005,0.040
4043,-0.025,0.000
4044,-0.055,-0.025
4045,-0.060,-0.060
4046,-0.045,-0.085
4047,-0.025,-0.115
4048,-0.040,-0.155
4049,-0.045,-0.150
4050,-0.030,-0.165
4051,-0.040,-0.150
4052,-0.035,-0.150
4053,-0.040,-0.175
4054,-0.035,-0.160
4055,-0.025,-0.155
4056,-0.010,-0.155
4057,-0.035,-0.140
4058,-0.015,-0.125
4059,-0.020,-0.185
4060,0.000,-0.280
4061,0.125,-0.255
4062,0.305,0.110
4063,0.300,0.810
4064,0.100,0.740
4065,-0.105,0.375
4066,-0.170,-0.030
4067,-0.120,-0.555
4068,-0.070,-0.375
4069,-0.065,-0.190
4070,-0.075,-0.175
4071,-0.055,-0.165
4072,-0.060,-0.140
4073,-0.065,-0.165
4074,-0.040,-0.155
4075,-0.050,-0.170
4076,-0.040,-0.140
4077,-0.030,-0.145
4078,-0.045,-0.135
4079,-0.045,-0.165
4080,-0.035,-0.130
4081,-0.055,-0.140
4082,-0.030,-0.120
4083,-0.045,-0.140
4084,-0.055,-0.110
4085,-0.040,-0.095
4086,-0.045,-0.090
4087,-0.040,-0.080
4088,-0.040,-0.070
4089,-0.035,-0.045
4090,-0.050,-0.035
4091,-0.055,-0.020
4092,-0.055,-0.020
4093,-0.045,-0.010
4094,-0.040,-0.015
4095,-0.040,0.005
4096,-0.050,0.020
4097,-0.030,0.015
4098,-0.045,0.010
4099,-0.025,0.030
4100,-0.015,0.005
4101,-0.010,0.010
4102,-0.015,0.005
4103,-0.010,-0.020
4104,-0.020,-0.055
4105,-0.040,-0.065
4106,-0.015,-0.090
4107,-0.025,-0.100
4108,-0.055,-0.120
4109,-0.025,-0.120
4110,-0.020,-0.115
4111,-0.035,-0.110
4112,-0.040,-0.115
4113,-0.025,-0.115
4114,-0.035,-0.095
4115,-0.030,-0.080
4116,-0.020,-0.045
4117,-0.030,-0.070
4118,-0.040,-0.100
4119,-0.030,-0.070
4120,-0.050,-0.060
4121,-0.035,-0.085
4122,-0.055,-0.070
4123,-0.045,-0.080
4124,-0.045,-0.075
4125,-0.035,-0.085
4126,-0.045,-0.085
4127,-0.045,-0.090
4128,-0.055,-0.080
4129,-0.040,-0.100
4130,-0.030,-0.085
4131,-0.015,-0.030
4132,-0.010,-0.020
4133,0.000,0.005
4134,0.000,0.025
4135,-0.025,0.040
4136,-0.055,0.000
4137,-0.075,-0.025
4138,-0.080,-0.085
4139,-0.070,-0.105
4140,-0.050,-0.115
4141,-0.055,-0.115
4142,-0.060,-0.160
4143,-0.065,-0.175
4144,-0.050,-0.175
4145,-0.035,-0.160
4146,-0.055,-0.155
4147,-0.060,-0.175
4148,-0.060,-0.175
4149,-0.055,-0.200
4150,-0.050,-0.190
4151,-0.040,-0.175
4152,-0.070,-0.225
4153,-0.045,-0.295
4154,0.035,-0.330
4155,0.230,-0.140
4156,0.335,0.465
4157,0.055,0.790
4158,-0.225,0.395
4159,-0.215,-0.315
4160,-0.115,-0.620
4161,-0.075,-0.415
4162,-0.065,-0.215
4163,-0.055,-0.195
4164,-0.080,-0.190
4165,-0.060,-0.190
4166,-0.060,-0.195
4167,-0.075,-0.190
4168,-0.055,-0.175
4169,-0.055,-0.175
4170,-0.055,-0.175
4171,-0.060,-0.165
4172,-0.055,-0.185
4173,-0.045,-0.180
4174,-0.045,-0.155
4175,-0.040,-0.140
4176,-0.040,-0.145
4177,-0.030,-0.135
4178,-0.035,-0.120
4179,-0.050,-0.100
4180,-0.035,-0.095
4181,-0.040,-0.070
4182,-0.035,-0.070
4183,-0.045,-0.045
4184,-0.025,-0.015
4185,-0.045,-0.020
4186,-0.035,-0.015
4187,-0.035,0.010
4188,-0.030,0.000
4189,-0.025,0.030
4190,-0.020,0.035
4191,-0.020,0.045
4192,0.010,0.040
4193,-0.010,0.035
4194,0.000,0.010
4195,0.000,-0.005
4196,-0.015,-0.030
4197,-0.025,-0.050
4198,-0.015,-0.075
4199,-0.025,-0.085
4200,-0.025,-0.090
4201,-0.025,-0.115
4202,-0.050,-0.110
4203,-0.025,-0.125
4204,-0.030,-0.130
4205,-0.020,-0.120
4206,-0.030,-0.100
4207,-0.025,-0.105
4208,-0.030,-0.090
4209,-0.015,-0.090
4210,-0.030,-0.070
4211,-0.025,-0.100
4212,-0.025,-0.090
4213,-0.035,-0.055
4214,-0.025,-0.080
4215,-0.020,-0.090
4216,-0.020,-0.065
4217,-0.025,-0.105
4218,-0.040,-0.095
4219,-0.045,-0.095
4220,-0.040,-0.090
4221,-0.030,-0.095
4222,-0.035,-0.095
4223,-0.030,-0.105
4224,-0.025,-0.080
4225,-0.005,-0.045
4226,0.005,-0.010
4227,0.020,0.010
4228,0.000,0.025
4229,-0.005,0.050
4230,-0.040,0.000
4231,-0.090,-0.035
4232,-0.065,-0.115
4233,-0.060,-0.140
4234,-0.050,-0.140
4235,-0.055,-0.165
4236,-0.070,-0.185
4237,-0.070,-0.190
4238,-0.070,-0.200
4239,-0.060,-0.200
4240,-0.060,-0.210
4241,-0.070,-0.200
4242,-0.065,-0.195
4243,-0.085,-0.210
4244,-0.085,-0.215
4245,-0.070,-0.215
4246,-0.080,-0.225
4247,-0.045,-0.345
4248,0.060,-0.310
4249,0.190,-0.055
4250,0.310,0.335
4251,0.085,0.690
4252,-0.225,0.365
4253,-0.245,-0.300
4254,-0.120,-0.580
4255,-0.090,-0.310
4256,-0.100,-0.215
4257,-0.090,-0.215
4258,-0.095,-0.215
4259,-0.085,-0.230
4260,-0.085,-0.225
4261,-0.080,-0.210
4262,-0.075,-0.200
4263,-0.080,-0.210
4264,-0.065,-0.210
4265,-0.060,-0.210
4266,-0.065,-0.210
4267,-0.065,-0.195
4268,-0.075,-0.185
4269,-0.070,-0.190
4270,-0.065,-0.185
4271,-0.060,-0.170
4272,-0.060,-0.165
4273,-0.070,-0.140
4274,-0.065,-0.140
4275,-0.075,-0.110
4276,-0.065,-0.095
4277,-0.050,-0.100
4278,-0.055,-0.085
4279,-0.065,-0.065
4280,-0.055,-0.045
4281,-0.040,-0.015
4282,-0.040,-0.045
4283,-0.035,-0.030
4284,-0.040,-0.010
4285,-0.035,-0.010
4286,-0.025,0.005
4287,-0.005,0.020
4288,-0.015,0.000
4289,-0.025,-0.040
4290,-0.030,-0.065
4291,-0.025,-0.070
4292,-0.025,-0.125
4293,-0.025,-0.130
4294,-0.035,-0.145
4295,-0.025,-0.145
4296,-0.025,-0.135
4297,-0.020,-0.125
4298,-0.015,-0.125
4299,-0.035,-0.110
4300,-0.025,-0.120
4301,-0.015,-0.105
4302,-0.020,-0.080
4303,-0.030,-0.090
4304,-0.020,-0.075
4305,-0.030,-0.080
4306,-0.020,-0.095
4307,-0.025,-0.075
4308,-0.030,-0.075
4309,-0.025,-0.105
4310,-0.030,-0.075
4311,-0.035,-0.075
4312,-0.015,-0.105
4313,-0.025,-0.100
4314,-0.030,-0.105
4315,-0.010,-0.105
4316,-0.020,-0.095
4317,-0.035,-0.100
4318,0.000,-0.085
4319,0.015,-0.055
4320,0.020,0.000
4321,0.020,0.015
4322,0.000,0.020
4323,-0.020,0.010
4324,-0.025,0.005
4325,-0.050,-0.045
4326,-0.050,-0.110
4327,-0.035,-0.120
4328,-0.040,-0.135
4329,-0.040,-0.180
4330,-0.030,-0.190
4331,-0.045,-0.180
4332,-0.055,-0.190
4333,-0.035,-0.190
4334,-0.040,-0.195
4335,-0.040,-0.190
4336,-0.035,-0.190
4337,-0.035,-0.185
4338,-0.035,-0.165
4339,-0.015,-0.180
4340,-0.015,-0.245
4341,0.035,-0.305
4342,0.200,-0.110
4343,0.310,0.530
4344,0.165,0.905
4345,-0.115,0.385
4346,-0.220,-0.240
4347,-0.135,-0.740
4348,-0.085,-0.620
4349,-0.050,-0.280
4350,-0.055,-0.195
4351,-0.055,-0.195
4352,-0.050,-0.160
4353,-0.050,-0.205
4354,-0.050,-0.185
4355,-0.045,-0.200
4356,-0.050,-0.150
4357,-0.035,-0.170
4358,-0.050,-0.180
4359,-0.055,-0.180
4360,-0.050,-0.170
4361,-0.055,-0.145
4362,-0.055,-0.145
4363,-0.040,-0.115
4364,-0.055,-0.135
4365,-0.035,-0.140
4366,-0.050,-0.120
4367,-0.055,-0.105
4368,-0.040,-0.090
4369,-0.045,-0.095
4370,-0.075,-0.080
4371,-0.045,-0.065
4372,-0.060,-0.040
4373,-0.050,-0.035
4374,-0.055,-0.020
4375,-0.055,-0.020
4376,-0.070,-0.030
4377,-0.060,-0.005
4378,-0.040,-0.010
4379,-0.045,0.010
4380,-0.035,0.005
4381,-0.025,0.000
4382,-0.015,-0.015
4383,-0.020,-0.035
4384,-0.030,-0.045
4385,-0.030,-0.085
4386,-0.020,-0.115
4387,-0.030,-0.120
4388,-0.030,-0.130
4389,-0.025,-0.120
4390,-0.040,-0.105
4391,-0.035,-0.115
4392,-0.030,-0.100
4393,-0.020,-0.080
4394,-0.025,-0.100
4395,-0.010,-0.090
4396,-0.040,-0.075
4397,-0.030,-0.065
4398,-0.025,-0.060
4399,-0.030,-0.055
4400,-0.030,-0.065
4401,-0.035,-0.040
4402,-0.020,-0.060
4403,-0.035,-0.085
4404,-0.045,-0.075
4405,-0.045,-0.080
4406,-0.055,-0.090
4407,-0.040,-0.100
4408,-0.050,-0.095
4409,-0.040,-0.095
4410,-0.040,-0.090
4411,-0.030,-0.085
4412,-0.005,-0.065
4413,-0.010,-0.005
4414,0.000,0.030
4415,-0.010,0.025
4416,-0.035,0.025
4417,-0.050,-0.005
4418,-0.085,-0.070
4419,-0.080,-0.100
4420,-0.065,-0.125
4421,-0.055,-0.140
4422,-0.055,-0.150
4423,-0.070,-0.160
4424,-0.065,-0.180
4425,-0.065,-0.175
4426,-0.070,-0.185
4427,-0.060,-0.185
4428,-0.060,-0.195
4429,-0.055,-0.195
4430,-0.055,-0.215
4431,-0.040,-0.195
4432,-0.050,-0.185
4433,-0.045,-0.250
4434,0.000,-0.315
4435,0.140,-0.220
4436,0.310,0.235
4437,0.360,0.910
4438,0.130,0.930
4439,-0.180,0.340
4440,-0.155,-0.350
4441,-0.095,-0.590
4442,-0.045,-0.305
4443,-0.070,-0.185
4444,-0.055,-0.185
4445,-0.060,-0.180
4446,-0.055,-0.180
4447,-0.055,-0.190
4448,-0.040,-0.170
4449,-0.050,-0.145
4450,-0.045,-0.200
4451,-0.055,-0.175
4452,-0.040,-0.170
4453,-0.060,-0.155
4454,-0.050,-0.165
4455,-0.050,-0.135
4456,-0.055,-0.155
4457,-0.065,-0.140
4458,-0.065,-0.125
4459,-0.050,-0.095
4460,-0.065,-0.075
4461,-0.065,-0.110
4462,-0.065,-0.075
4463,-0.060,-0.070
4464,-0.055,-0.050
4465,-0.050,-0.030
4466,-0.050,-0.020
4467,-0.060,-0.010
4468,-0.055,-0.015
4469,-0.050,0.000
4470,-0.050,-0.005
4471,-0.040,0.015
4472,-0.035,-0.005
4473,-0.035,0.015
4474,-0.010,0.000
4475,-0.015,0.000
4476,-0.010,0.000
4477,-0.015,-0.035
4478,-0.005,-0.050
4479,-0.035,-0.065
4480,-0.030,-0.085
4481,-0.015,-0.105
4482,-0.025,-0.110
4483,-0.025,-0.130
4484,-0.040,-0.100
4485,-0.020,-0.110
4486,-0.010,-0.105
4487,-0.030,-0.095
4488,-0.015,-0.085
4489,-0.035,-0.080
4490,-0.015,-0.050
4491,-0.030,-0.040
4492,-0.030,-0.050
4493,-0.035,-0.070
4494,-0.040,-0.060
4495,-0.040,-0.080
4496,-0.050,-0.080
4497,-0.040,-0.080
4498,-0.040,-0.090
4499,-0.055,-0.085
4500,-0.050,-0.100
4501,-0.060,-0.105
4502,-0.070,-0.070
4503,-0.065,-0.105
4504,-0.050,-0.100
4505,-0.040,-0.075
4506,-0.040,-0.050
4507,-0.020,-0.025
4508,-0.015,0.005
4509,-0.045,0.015
4510,-0.060,0.010
4511,-0.080,-0.015
4512,-0.100,-0.045
4513,-0.095,-0.110
4514,-0.080,-0.100
4515,-0.065,-0.140
4516,-0.080,-0.160
4517,-0.075,-0.180
4518,-0.075,-0.160
4519,-0.070,-0.160
4520,-0.085,-0.165
4521,-0.075,-0.170
4522,-0.080,-0.185
4523,-0.075,-0.175
4524,-0.075,-0.175
4525,-0.060,-0.160
4526,-0.070,-0.185
4527,-0.075,-0.230
4528,-0.050,-0.335
4529,0.055,-0.310
4530,0.260,-0.020
4531,0.295,0.645
4532,0.000,0.705
4533,-0.260,0.290
4534,-0.215,-0.380
4535,-0.120,-0.580
4536,-0.090,-0.360
4537,-0.085,-0.210
4538,-0.095,-0.190
4539,-0.085,-0.185
4540,-0.085,-0.185
4541,-0.080,-0.175
4542,-0.055,-0.165
4543,-0.070,-0.150
4544,-0.065,-0.145
4545,-0.075,-0.165
4546,-0.065,-0.160
4547,-0.070,-0.150
4548,-0.070,-0.175
4549,-0.075,-0.145
4550,-0.075,-0.135
4551,-0.075,-0.135
4552,-0.070,-0.125
4553,-0.065,-0.115
4554,-0.050,-0.100
4555,-0.055,-0.085
4556,-0.065,-0.070
4557,-0.045,-0.065
4558,-0.045,-0.035
4559,-0.060,-0.040
4560,-0.040,-0.030
4561,-0.035,0.000
4562,-0.055,0.010
4563,-0.045,0.015
4564,-0.030,0.055
4565,-0.030,0.030
4566,-0.030,0.050
4567,-0.010,0.060
4568,-0.010,0.040
4569,-0.005,0.035
4570,0.000,0.010
4571,-0.020,-0.030
4572,0.000,-0.040
4573,-0.020,-0.060
4574,-0.020,-0.060
4575,-0.025,-0.080
4576,-0.025,-0.085
4577,-0.025,-0.100
4578,-0.025,-0.085
4579,-0.010,-0.085
4580,-0.020,-0.085
4581,-0.015,-0.095
4582,-0.015,-0.065
4583,-0.050,-0.085
4584,-0.020,-0.070
4585,-0.045,-0.045
4586,-0.035,-0.055
4587,-0.025,-0.055
4588,-0.030,-0.050
4589,-0.035,-0.075
4590,-0.020,-0.055
4591,-0.050,-0.070
4592,-0.040,-0.060
4593,-0.040,-0.060
4594,-0.040,-0.085
4595,-0.045,-0.065
4596,-0.030,-0.060
4597,-0.045,-0.080
4598,-0.040,-0.080
4599,-0.030,-0.050
4600,-0.005,-0.040
4601,0.005,0.010
4602,-0.005,0.015
4603,-0.005,0.050
4604,0.000,0.085
4605,-0.060,0.045
4606,-0.070,-0.025
4607,-0.080,-0.085
4608,-0.070,-0.085
4609,-0.070,-0.100
4610,-0.050,-0.155
4611,-0.060,-0.155
4612,-0.070,-0.145
4613,-0.065,-0.170
4614,-0.070,-0.180
4615,-0.065,-0.155
4616,-0.050,-0.170
4617,-0.065,-0.165
4618,-0.055,-0.175
4619,-0.050,-0.170
4620,-0.050,-0.170
4621,-0.055,-0.195
4622,-0.025,-0.290
4623,0.095,-0.280
4624,0.285,0.060
4625,0.280,0.710
4626,0.045,0.625
4627,-0.185,0.395
4628,-0.250,-0.065
4629,-0.130,-0.530
4630,-0.090,-0.260
4631,-0.085,-0.185
4632,-0.100,-0.175
4633,-0.100,-0.200
4634,-0.110,-0.190
4635,-0.095,-0.180
4636,-0.100,-0.170
4637,-0.095,-0.175
4638,-0.095,-0.180
4639,-0.085,-0.190
4640,-0.090,-0.185
4641,-0.095,-0.185
4642,-0.095,-0.190
4643,-0.095,-0.170
4644,-0.080,-0.155
4645,-0.075,-0.175
4646,-0.085,-0.150
4647,-0.085,-0.155
4648,-0.080,-0.140
4649,-0.065,-0.115
4650,-0.085,-0.095
4651,-0.070,-0.105
4652,-0.060,-0.085
4653,-0.070,-0.060
4654,-0.065,-0.060
4655,-0.060,-0.040
4656,-0.080,-0.015
4657,-0.040,-0.010
4658,-0.055,0.000
4659,-0.045,0.000
4660,-0.040,0.000
4661,-0.035,0.005
4662,-0.030,-0.005
4663,-0.025,0.000
4664,-0.030,-0.015
4665,-0.035,-0.055
4666,-0.035,-0.095
4667,-0.045,-0.090
4668,-0.050,-0.110
4669,-0.035,-0.120
4670,-0.040,-0.135
4671,-0.050,-0.120
4672,-0.040,-0.115
4673,-0.045,-0.125
4674,-0.045,-0.120
4675,-0.045,-0.115
4676,-0.055,-0.115
4677,-0.055,-0.115
4678,-0.035,-0.100
4679,-0.040,-0.110
4680,-0.045,-0.105
4681,-0.035,-0.105
4682,-0.035,-0.090
4683,-0.045,-0.095
4684,-0.035,-0.090
4685,-0.050,-0.095
4686,-0.040,-0.100
4687,-0.050,-0.115
4688,-0.040,-0.135
4689,-0.050,-0.110
4690,-0.050,-0.140
4691,-0.050,-0.120
4692,-0.040,-0.095
4693,-0.005,-0.065
4694,0.005,-0.035
4695,0.000,0.015
4696,0.000,0.015
4697,-0.015,0.050
4698,-0.030,0.010
4699,-0.070,0.000
4700,-0.065,-0.070
4701,-0.045,-0.090
4702,-0.040,-0.115
4703,-0.045,-0.160
4704,-0.050,-0.175
4705,-0.050,-0.160
4706,-0.050,-0.165
4707,-0.040,-0.165
4708,-0.050,-0.165
4709,-0.050,-0.170
4710,-0.040,-0.190
4711,-0.045,-0.155
4712,-0.045,-0.160
4713,-0.045,-0.175
4714,-0.035,-0.180
4715,-0.030,-0.270
4716,0.040,-0.320
4717,0.180,-0.125
4718,0.315,0.395
4719,0.275,0.850
4720,-0.015,0.635
4721,-0.230,0.110
4722,-0.135,-0.530
4723,-0.075,-0.485
4724,-0.070,-0.205
4725,-0.060,-0.165
4726,-0.065,-0.155
4727,-0.075,-0.155
4728,-0.070,-0.180
4729,-0.060,-0.170
4730,-0.065,-0.155
4731,-0.075,-0.170
4732,-0.070,-0.195
4733,-0.060,-0.175
4734,-0.055,-0.175
4735,-0.080,-0.150
4736,-0.070,-0.165
4737,-0.060,-0.160
4738,-0.055,-0.120
4739,-0.065,-0.125
4740,-0.070,-0.125
4741,-0.065,-0.095
4742,-0.060,-0.080
4743,-0.070,-0.095
4744,-0.065,-0.085
4745,-0.065,-0.080
4746,-0.075,-0.050
4747,-0.075,-0.030
4748,-0.060,-0.025
4749,-0.065,-0.020
4750,-0.065,0.010
4751,-0.070,0.010
4752,-0.070,0.015
4753,-0.045,0.005
4754,-0.045,0.030
4755,-0.035,0.040
4756,-0.050,0.000
4757,-0.035,0.000
4758,-0.025,0.000
4759,-0.030,-0.015
4760,-0.050,-0.040
4761,-0.045,-0.075
4762,-0.060,-0.085
4763,-0.050,-0.110
4764,-0.040,-0.090
4765,-0.035,-0.100
4766,-0.040,-0.105
4767,-0.045,-0.110
4768,-0.050,-0.115
4769,-0.045,-0.080
4770,-0.050,-0.085
4771,-0.045,-0.075
4772,-0.035,-0.080
4773,-0.040,-0.055
4774,-0.045,-0.055
4775,-0.035,-0.065
4776,-0.060,-0.065
4777,-0.050,-0.075
4778,-0.055,-0.070
4779,-0.040,-0.075
4780,-0.050,-0.090
4781,-0.045,-0.120
4782,-0.055,-0.110
4783,-0.050,-0.105
4784,-0.050,-0.095
4785,-0.040,-0.095
4786,-0.025,-0.060
4787,-0.010,0.000
4788,-0.010,0.030
4789,-0.025,0.015
4790,-0.050,0.030
4791,-0.075,0.015
4792,-0.090,-0.035
4793,-0.105,-0.080
4794,-0.070,-0.110
4795,-0.055,-0.125
4796,-0.065,-0.130
4797,-0.070,-0.150
4798,-0.075,-0.160
4799,-0.060,-0.155
4800,-0.050,-0.155
4801,-0.075,-0.170
4802,-0.065,-0.175
4803,-0.080,-0.165
4804,-0.070,-0.155
4805,-0.040,-0.155
4806,-0.050,-0.170
4807,-0.065,-0.200
4808,-0.025,-0.305
4809,0.085,-0.210
4810,0.280,0.205
4811,0.340,1.000
4812,0.160,1.165
4813,-0.130,0.475
4814,-0.185,-0.220
4815,-0.110,-0.625
4816,-0.085,-0.365
4817,-0.090,-0.185
4818,-0.090,-0.185
4819,-0.080,-0.170
4820,-0.065,-0.160
4821,-0.095,-0.170
4822,-0.075,-0.185
4823,-0.080,-0.155
4824,-0.075,-0.165
4825,-0.075,-0.155
4826,-0.080,-0.140
4827,-0.075,-0.125
4828,-0.060,-0.150
4829,-0.075,-0.145
4830,-0.065,-0.130
4831,-0.060,-0.135
4832,-0.070,-0.115
4833,-0.065,-0.100
4834,-0.050,-0.100
4835,-0.055,-0.050
4836,-0.065,-0.060
4837,-0.045,-0.065
4838,-0.060,-0.075
4839,-0.060,-0.025
4840,-0.070,-0.035
4841,-0.060,0.000
4842,-0.045,-0.010
4843,-0.055,-0.015
4844,-0.055,0.000
4845,-0.055,0.000
4846,-0.030,0.025
4847,-0.045,0.025
4848,-0.035,0.010
4849,-0.025,0.035
4850,-0.020,0.020
4851,-0.015,-0.010
4852,-0.010,-0.025
4853,-0.040,-0.050
4854,-0.050,-0.070
4855,-0.040,-0.060
4856,-0.040,-0.080
4857,-0.040,-0.095
4858,-0.035,-0.075
4859,-0.050,-0.070
4860,-0.030,-0.080
4861,-0.055,-0.055
4862,-0.040,-0.070
4863,-0.030,-0.055
4864,-0.045,-0.030
4865,-0.055,-0.035
4866,-0.045,-0.040
4867,-0.040,-0.020
4868,-0.045,-0.040
4869,-0.050,-0.040
4870,-0.040,-0.020
4871,-0.055,-0.035
4872,-0.045,-0.045
4873,-0.045,-0.035
4874,-0.045,-0.050
4875,-0.045,-0.065
4876,-0.050,-0.065
4877,-0.040,-0.070
4878,-0.035,-0.045
4879,-0.030,0.005
4880,-0.005,0.025
4881,-0.005,0.055
4882,-0.025,0.065
4883,-0.040,0.060
4884,-0.080,0.000
4885,-0.090,-0.035
4886,-0.095,-0.070
4887,-0.085,-0.075
4888,-0.075,-0.095
4889,-0.075,-0.110
4890,-0.080,-0.130
4891,-0.080,-0.150
4892,-0.075,-0.140
4893,-0.080,-0.145
4894,-0.075,-0.125
4895,-0.085,-0.125
4896,-0.080,-0.150
4897,-0.090,-0.150
4898,-0.085,-0.125
4899,-0.090,-0.150
4900,-0.080,-0.215
4901,-0.010,-0.285
4902,0.140,-0.155
4903,0.340,0.350
4904,0.255,1.015
4905,0.010,0.770
4906,-0.270,0.345
4907,-0.195,-0.430
4908,-0.120,-0.415
4909,-0.090,-0.200
4910,-0.090,-0.160
4911,-0.090,-0.135
4912,-0.105,-0.135
4913,-0.100,-0.140
4914,-0.100,-0.140
4915,-0.100,-0.150
4916,-0.095,-0.125
4917,-0.100,-0.110
4918,-0.090,-0.130
4919,-0.105,-0.135
4920,-0.080,-0.125
4921,-0.095,-0.120
4922,-0.070,-0.125
4923,-0.095,-0.090
4924,-0.090,-0.100
4925,-0.080,-0.090
4926,-0.085,-0.080
4927,-0.090,-0.065
4928,-0.100,-0.070
4929,-0.095,-0.050
4930,-0.075,-0.020
4931,-0.100,0.000
4932,-0.065,0.005
4933,-0.070,0.015
4934,-0.080,0.020
4935,-0.065,0.030
4936,-0.085,0.050
4937,-0.070,0.055
4938,-0.060,0.070
4939,-0.055,0.080
4940,-0.040,0.065
4941,-0.055,0.070
4942,-0.040,0.010
4943,-0.040,-0.005
4944,-0.055,-0.010
4945,-0.040,-0.025
4946,-0.040,-0.020
4947,-0.055,-0.045
4948,-0.050,-0.050
4949,-0.055,-0.060
4950,-0.055,-0.065
4951,-0.050,-0.065
4952,-0.040,-0.035
4953,-0.040,-0.055
4954,-0.025,-0.050
4955,-0.030,-0.030
4956,-0.050,-0.030
4957,-0.020,-0.025
4958,-0.035,-0.035
4959,-0.055,-0.025
4960,-0.045,-0.035
4961,-0.030,-0.020
4962,-0.045,-0.025
4963,-0.045,-0.015
4964,-0.045,-0.030
4965,-0.040,-0.025
4966,-0.035,-0.040
4967,-0.045,-0.030
4968,-0.035,-0.060
4969,-0.035,-0.040
4970,-0.035,-0.040
4971,-0.010,0.000
4972,0.000,0.045
4973,-0.010,0.070
4974,-0.015,0.090
4975,-0.055,0.050
4976,-0.060,0.035
4977,-0.095,0.000
4978,-0.075,-0.055
4979,-0.065,-0.065
4980,-0.070,-0.080
4981,-0.070,-0.090
4982,-0.060,-0.115
4983,-0.070,-0.120
4984,-0.065,-0.100
4985,-0.065,-0.120
4986,-0.075,-0.120
4987,-0.075,-0.135
4988,-0.070,-0.120
4989,-0.070,-0.135
4990,-0.070,-0.140
4991,-0.070,-0.115
4992,-0.055,-0.160
4993,-0.025,-0.260
4994,0.130,-0.215
4995,0.340,0.200
4996,0.190,0.825
4997,-0.110,0.560
4998,-0.285,0.080
4999,-0.205,-0.510
5000,-0.115,-0.520
5001,-0.075,-0.275
5002,-0.080,-0.150
5003,-0.075,-0.140
5004,-0.075,-0.120
5005,-0.075,-0.120
5006,-0.070,-0.125
5007,-0.080,-0.145
5008,-0.075,-0.140
5009,-0.070,-0.110
5010,-0.075,-0.145
5011,-0.070,-0.135
5012,-0.080,-0.110
5013,-0.070,-0.135
5014,-0.085,-0.120
5015,-0.105,-0.130
5016,-0.085,-0.115
5017,-0.080,-0.100
5018,-0.080,-0.090
5019,-0.075,-0.100
5020,-0.080,-0.060
5021,-0.080,-0.045
5022,-0.065,-0.035
5023,-0.075,-0.035
5024,-0.065,-0.015
5025,-0.065,0.000
5026,-0.075,-0.005
5027,-0.080,0.000
5028,-0.065,0.025
5029,-0.070,0.030
5030,-0.055,0.035
5031,-0.050,0.030
5032,-0.035,0.025
5033,-0.045,0.030
5034,-0.030,0.020
5035,-0.035,0.000
5036,-0.055,-0.030
5037,-0.055,-0.060
5038,-0.070,-0.055
5039,-0.060,-0.075
5040,-0.065,-0.090
5041,-0.055,-0.090
5042,-0.055,-0.090
5043,-0.050,-0.100
5044,-0.045,-0.095
5045,-0.045,-0.095
5046,-0.055,-0.075
5047,-0.060,-0.065
5048,-0.055,-0.060
5049,-0.050,-0.060
5050,-0.035,-0.065
5051,-0.040,-0.060
5052,-0.045,-0.060
5053,-0.045,-0.050
5054,-0.040,-0.075
5055,-0.040,-0.060
5056,-0.040,-0.045
5057,-0.055,-0.070
5058,-0.045,-0.085
5059,-0.060,-0.080
5060,-0.045,-0.080
5061,-0.050,-0.090
5062,-0.030,-0.060
5063,-0.020,-0.035
5064,0.000,-0.015
5065,-0.010,0.000
5066,-0.015,0.040
5067,-0.020,0.070
5068,-0.065,0.000
5069,-0.070,-0.010
5070,-0.075,-0.075
5071,-0.065,-0.075
5072,-0.060,-0.085
5073,-0.075,-0.115
5074,-0.070,-0.130
5075,-0.050,-0.125
5076,-0.070,-0.140
5077,-0.060,-0.135
5078,-0.055,-0.145
5079,-0.060,-0.125
5080,-0.070,-0.155
5081,-0.040,-0.145
5082,-0.040,-0.135
5083,-0.045,-0.145
5084,-0.050,-0.160
5085,-0.045,-0.275
5086,0.015,-0.270
5087,0.180,-0.160
5088,0.335,0.365
5089,0.135,0.760
5090,-0.155,0.390
5091,-0.195,-0.220
5092,-0.115,-0.555
5093,-0.055,-0.280
5094,-0.045,-0.160
5095,-0.050,-0.170
5096,-0.050,-0.145
5097,-0.070,-0.135
5098,-0.045,-0.160
5099,-0.060,-0.150
5100,-0.060,-0.135
5101,-0.055,-0.140
5102,-0.045,-0.110
5103,-0.055,-0.110
5104,-0.065,-0.150
5105,-0.060,-0.125
5106,-0.055,-0.115
5107,-0.060,-0.115
5108,-0.060,-0.115
5109,-0.060,-0.095
5110,-0.050,-0.095
5111,-0.055,-0.060
5112,-0.050,-0.065
5113,-0.055,-0.070
5114,-0.035,-0.045
5115,-0.040,-0.030
5116,-0.035,0.000
5117,-0.035,0.000
5118,-0.045,0.010
5119,-0.040,0.000
5120,-0.050,0.020
5121,-0.040,0.040
5122,-0.025,0.030
5123,-0.020,0.040
5124,-0.020,0.045
5125,-0.005,0.045
5126,0.000,0.050
5127,-0.005,0.035
5128,0.000,-0.010
5129,-0.015,-0.010
5130,-0.010,-0.035
5131,-0.030,-0.045
5132,-0.020,-0.075
5133,-0.025,-0.080
5134,-0.020,-0.080
5135,-0.010,-0.080
5136,-0.025,-0.070
5137,-0.015,-0.090
5138,-0.005,-0.070
5139,-0.030,-0.055
5140,-0.010,-0.060
5141,-0.035,-0.050
5142,-0.010,0.000
5143,-0.020,-0.035
5144,-0.025,-0.015
5145,-0.025,-0.045
5146,-0.025,-0.035
5147,-0.050,-0.070
5148,-0.045,-0.045
5149,-0.035,-0.050
5150,-0.030,-0.065
5151,-0.030,-0.075
5152,-0.035,-0.080
5153,-0.035,-0.065
5154,-0.010,-0.060
5155,-0.005,-0.025
5156,0.000,0.020
5157,0.000,0.015
5158,-0.010,0.050
5159,-0.045,0.030
5160,-0.050,0.000
5161,-0.075,-0.035
5162,-0.050,-0.100
5163,-0.050,-0.115
5164,-0.050,-0.130
5165,-0.055,-0.135
5166,-0.060,-0.175
5167,-0.050,-0.165
5168,-0.065,-0.145
5169,-0.040,-0.175
5170,-0.050,-0.175
5171,-0.030,-0.165
5172,-0.055,-0.155
5173,-0.035,-0.140
5174,-0.045,-0.145
5175,-0.050,-0.170
5176,-0.045,-0.250
5177,0.030,-0.310
5178,0.185,-0.115
5179,0.310,0.500
5180,0.280,1.095
5181,0.115,0.720
5182,-0.160,0.255
5183,-0.135,-0.490
5184,-0.080,-0.625
5185,-0.075,-0.285
5186,-0.075,-0.190
5187,-0.080,-0.180
5188,-0.085,-0.170
5189,-0.070,-0.165
5190,-0.045,-0.175
5191,-0.070,-0.170
5192,-0.055,-0.195
5193,-0.065,-0.190
5194,-0.055,-0.150
5195,-0.065,-0.180
5196,-0.065,-0.160
5197,-0.080,-0.150
5198,-0.065,-0.165
5199,-0.070,-0.140
5200,-0.070,-0.165
5201,-0.080,-0.140
5202,-0.050,-0.120
5203,-0.065,-0.115
5204,-0.060,-0.090
5205,-0.060,-0.095
5206,-0.065,-0.080
5207,-0.040,-0.055
5208,-0.050,-0.045
5209,-0.055,-0.055
5210,-0.055,-0.040
5211,-0.070,-0.030
5212,-0.070,-0.050
5213,-0.045,-0.045
5214,-0.040,-0.015
5215,-0.030,-0.015
5216,-0.005,0.000
5217,-0.005,0.000
5218,-0.005,0.000
5219,0.005,-0.035
5220,0.000,-0.035
5221,0.000,-0.055
5222,-0.015,-0.075
5223,-0.010,-0.085
5224,-0.030,-0.085
5225,-0.015,-0.080
5226,-0.025,-0.130
5227,-0.025,-0.095
5228,-0.005,-0.110
5229,-0.015,-0.105
5230,-0.010,-0.070
5231,-0.015,-0.090
5232,-0.015,-0.055
5233,-0.030,-0.075
5234,-0.025,-0.055
5235,-0.025,-0.040
5236,-0.020,-0.070
5237,-0.025,-0.065
5238,-0.020,-0.065
5239,-0.025,-0.075
5240,-0.030,-0.085
5241,-0.030,-0.085
5242,-0.030,-0.100
5243,-0.030,-0.100
5244,-0.020,-0.100
5245,-0.010,-0.075
5246,0.000,-0.025
5247,-0.005,0.010
5248,-0.015,0.010
5249,-0.005,0.050
5250,-0.055,-0.005
5251,-0.060,-0.015
5252,-0.070,-0.035
5253,-0.065,-0.095
5254,-0.050,-0.120
5255,-0.035,-0.140
5256,-0.070,-0.165
5257,-0.055,-0.180
5258,-0.075,-0.180
5259,-0.065,-0.185
5260,-0.055,-0.180
5261,-0.050,-0.170
5262,-0.045,-0.190
5263,-0.055,-0.185
5264,-0.045,-0.180
5265,-0.035,-0.205
5266,-0.050,-0.210
5267,-0.055,-0.295
5268,0.000,-0.365
5269,0.170,-0.245
5270,0.335,0.280
5271,0.190,0.855
5272,-0.135,0.470
5273,-0.225,-0.075
5274,-0.155,-0.605
5275,-0.120,-0.485
5276,-0.095,-0.260
5277,-0.110,-0.215
5278,-0.095,-0.195
5279,-0.100,-0.210
5280,-0.095,-0.225
5281,-0.090,-0.220
5282,-0.080,-0.225
5283,-0.095,-0.200
5284,-0.090,-0.195
5285,-0.090,-0.200
5286,-0.090,-0.205
5287,-0.095,-0.190
5288,-0.080,-0.190
5289,-0.080,-0.190
5290,-0.070,-0.160
5291,-0.075,-0.155
5292,-0.090,-0.170
5293,-0.080,-0.140
5294,-0.070,-0.125
5295,-0.080,-0.125
5296,-0.080,-0.110
5297,-0.075,-0.085
5298,-0.050,-0.080
5299,-0.055,-0.050
5300,-0.075,-0.035
5301,-0.070,-0.055
5302,-0.075,-0.025
5303,-0.075,-0.025
5304,-0.050,-0.015
5305,-0.060,-0.020
5306,-0.055,0.000
5307,-0.040,-0.020
5308,-0.035,-0.015
5309,-0.035,-0.020
5310,-0.025,-0.050
5311,-0.045,-0.075
5312,-0.050,-0.110
5313,-0.050,-0.115
5314,-0.045,-0.135
5315,-0.060,-0.135
5316,-0.060,-0.140
5317,-0.035,-0.130
5318,-0.045,-0.130
5319,-0.040,-0.140
5320,-0.045,-0.145
5321,-0.050,-0.130
5322,-0.035,-0.120
5323,-0.045,-0.110
5324,-0.040,-0.120
5325,-0.035,-0.115
5326,-0.045,-0.105
5327,-0.060,-0.110
5328,-0.040,-0.110
5329,-0.055,-0.115
5330,-0.045,-0.120
5331,-0.045,-0.105
5332,-0.040,-0.125
5333,-0.060,-0.145
5334,-0.050,-0.115
5335,-0.050,-0.125
5336,-0.050,-0.135
5337,-0.050,-0.140
5338,-0.020,-0.090
5339,0.000,-0.050
5340,0.000,-0.020
5341,-0.005,-0.010
5342,-0.020,0.000
5343,-0.030,0.020
5344,-0.045,-0.040
5345,-0.060,-0.070
5346,-0.050,-0.100
5347,-0.070,-0.125
5348,-0.060,-0.170
5349,-0.045,-0.160
5350,-0.045,-0.195
5351,-0.040,-0.195
5352,-0.035,-0.180
5353,-0.040,-0.185
5354,-0.040,-0.185
5355,-0.045,-0.205
5356,-0.060,-0.200
5357,-0.050,-0.185
5358,-0.040,-0.200
5359,-0.045,-0.205
5360,-0.030,-0.255
5361,0.035,-0.330
5362,0.205,-0.210
5363,0.430,0.325
5364,0.355,0.965
5365,0.055,0.815
5366,-0.230,0.300
5367,-0.175,-0.425
5368,-0.080,-0.480
5369,-0.045,-0.245
5370,-0.045,-0.225
5371,-0.060,-0.225
5372,-0.040,-0.205
5373,-0.060,-0.190
5374,-0.055,-0.210
5375,-0.060,-0.215
5376,-0.050,-0.200
5377,-0.045,-0.205
5378,-0.050,-0.175
5379,-0.050,-0.205
5380,-0.065,-0.190
5381,-0.055,-0.190
5382,-0.050,-0.200
5383,-0.050,-0.190
5384,-0.040,-0.170
5385,-0.035,-0.165
5386,-0.040,-0.160
5387,-0.015,-0.145
5388,-0.025,-0.120
5389,-0.030,-0.110
5390,-0.030,-0.105
5391,-0.030,-0.090
5392,-0.035,-0.060
5393,-0.015,-0.070
5394,-0.030,-0.080
5395,-0.005,-0.065
5396,-0.010,-0.050
5397,-0.020,-0.030
5398,-0.005,0.000
5399,0.000,-0.020
5400,0.010,-0.015
5401,0.000,-0.030
5402,0.005,-0.055
5403,-0.010,-0.085
5404,-0.015,-0.095
5405,-0.020,-0.120
5406,-0.020,-0.155
5407,-0.010,-0.170
5408,-0.020,-0.170
5409,-0.030,-0.175
5410,-0.030,-0.175
5411,-0.030,-0.155
5412,-0.040,-0.190
5413,-0.040,-0.170
5414,-0.030,-0.185
5415,-0.035,-0.160
5416,-0.035,-0.190
5417,-0.035,-0.165
5418,-0.035,-0.160
5419,-0.030,-0.160
5420,0.000,-0.145
5421,-0.030,-0.150
5422,-0.020,-0.160
5423,-0.020,-0.160
5424,-0.030,-0.185
5425,-0.035,-0.170
5426,-0.025,-0.150
5427,-0.030,-0.155
5428,-0.020,-0.175
5429,-0.020,-0.195
5430,-0.020,-0.180
5431,0.000,-0.150
5432,0.025,-0.085
5433,0.020,-0.055
5434,0.015,-0.050
5435,-0.010,-0.035
5436,-0.030,-0.080
5437,-0.055,-0.090
5438,-0.055,-0.135
5439,-0.040,-0.170
5440,-0.035,-0.205
5441,-0.020,-0.205
5442,-0.025,-0.255
5443,-0.030,-0.245
5444,-0.020,-0.240
5445,-0.040,-0.270
5446,-0.015,-0.265
5447,-0.040,-0.265
5448,-0.030,-0.280
5449,-0.020,-0.275
5450,-0.020,-0.250
5451,-0.040,-0.265
5452,-0.030,-0.275
5453,-0.005,-0.345
5454,0.085,-0.390
5455,0.295,-0.160
5456,0.335,0.460
5457,0.050,0.580
5458,-0.245,0.190
5459,-0.235,-0.530
5460,-0.100,-0.755
5461,-0.040,-0.485
5462,-0.030,-0.295
5463,-0.030,-0.270
5464,-0.030,-0.255
5465,-0.015,-0.255
5466,-0.025,-0.250
5467,-0.025,-0.240
5468,-0.020,-0.240
5469,-0.010,-0.255
5470,-0.015,-0.245
5471,-0.015,-0.250
5472,-0.010,-0.240
5473,-0.005,-0.220
5474,0.000,-0.240
5475,-0.015,-0.220
5476,0.000,-0.210
5477,-0.005,-0.195
5478,0.000,-0.185
5479,0.000,-0.175
5480,0.000,-0.165
5481,0.000,-0.170
5482,0.000,-0.130
5483,0.005,-0.130
5484,0.000,-0.105
5485,0.005,-0.130
5486,0.000,-0.100
5487,0.005,-0.100
5488,0.015,-0.090
5489,0.005,-0.075
5490,0.015,-0.045
5491,0.040,-0.050
5492,0.045,-0.045
5493,0.055,-0.045
5494,0.060,-0.045
5495,0.040,-0.065
5496,0.040,-0.110
5497,0.040,-0.145
5498,0.020,-0.160
5499,0.030,-0.160
5500,0.035,-0.190
5501,0.025,-0.160
5502,0.045,-0.180
5503,0.025,-0.195
5504,0.030,-0.160
5505,0.030,-0.170
5506,0.030,-0.155
5507,0.030,-0.165
5508,0.045,-0.180
5509,0.045,-0.145
5510,0.035,-0.155
5511,0.040,-0.145
5512,0.040,-0.135
5513,0.025,-0.145
5514,0.030,-0.150
5515,0.020,-0.155
5516,0.035,-0.140
5517,0.030,-0.160
5518,0.030,-0.175
5519,0.020,-0.180
5520,0.020,-0.185
5521,0.025,-0.160
5522,0.045,-0.170
5523,0.065,-0.140
5524,0.065,-0.090
5525,0.075,-0.055
5526,0.070,-0.030
5527,0.050,-0.015
5528,0.010,-0.065
5529,0.000,-0.080
5530,0.000,-0.130
5531,0.000,-0.180
5532,0.000,-0.190
5533,0.005,-0.225
5534,0.010,-0.250
5535,0.000,-0.255
5536,0.010,-0.230
5537,0.000,-0.235
5538,0.010,-0.265
5539,-0.005,-0.275
5540,0.010,-0.255
5541,0.000,-0.240
5542,0.000,-0.235
5543,0.005,-0.250
5544,0.010,-0.260
5545,0.005,-0.375
5546,0.120,-0.395
5547,0.290,-0.085
5548,0.380,0.605
5549,0.300,0.845
5550,0.075,0.460
5551,-0.140,0.000
5552,-0.065,-0.705
5553,-0.025,-0.565
5554,-0.015,-0.330
5555,-0.005,-0.255
5556,-0.010,-0.285
5557,0.000,-0.280
5558,0.000,-0.270
5559,-0.015,-0.250
5560,0.000,-0.260
5561,0.000,-0.275
5562,0.000,-0.285
5563,0.010,-0.255
5564,0.000,-0.230
5565,0.000,-0.265
5566,0.000,-0.270
5567,0.010,-0.245
5568,0.000,-0.235
5569,0.015,-0.240
5570,0.010,-0.225
5571,0.010,-0.210
5572,0.005,-0.180
5573,0.015,-0.175
5574,0.000,-0.165
5575,0.005,-0.170
5576,0.010,-0.160
5577,0.000,-0.145
5578,0.000,-0.140
5579,0.010,-0.135
5580,0.000,-0.130
5581,-0.005,-0.120
5582,0.005,-0.100
5583,0.020,-0.085
5584,0.010,-0.105
5585,0.045,-0.095
5586,0.050,-0.090
5587,0.070,-0.120
5588,0.060,-0.120
5589,0.045,-0.120
5590,0.040,-0.155
5591,0.045,-0.190
5592,0.035,-0.200
5593,0.065,-0.215
5594,0.050,-0.205
5595,0.040,-0.205
5596,0.050,-0.205
5597,0.050,-0.195
5598,0.035,-0.195
5599,0.060,-0.175
5600,0.065,-0.155
5601,0.050,-0.135
5602,0.060,-0.145
5603,0.055,-0.135
5604,0.050,-0.135
5605,0.065,-0.145
5606,0.055,-0.135
5607,0.055,-0.145
5608,0.055,-0.145
5609,0.055,-0.150
5610,0.045,-0.140
5611,0.045,-0.155
5612,0.045,-0.155
5613,0.040,-0.180
5614,0.050,-0.165
5615,0.045,-0.175
5616,0.065,-0.160
5617,0.090,-0.130
5618,0.095,-0.055
5619,0.080,-0.035
5620,0.075,-0.030
5621,0.035,-0.050
5622,0.020,-0.070
5623,0.005,-0.110
5624,0.005,-0.150
5625,0.025,-0.185
5626,0.025,-0.200
5627,0.015,-0.215
5628,0.020,-0.210
5629,0.015,-0.235
5630,0.005,-0.240
5631,0.010,-0.220
5632,0.030,-0.240
5633,0.000,-0.235
5634,0.015,-0.225
5635,0.010,-0.235
5636,0.025,-0.230
5637,0.015,-0.270
5638,0.010,-0.385
5639,0.075,-0.395
5640,0.220,-0.250
5641,0.380,0.320
5642,0.245,0.810
5643,-0.040,0.395
5644,-0.120,-0.180
5645,-0.045,-0.660
5646,-0.025,-0.470
5647,0.000,-0.255
5648,-0.010,-0.230
5649,-0.015,-0.240
5650,-0.005,-0.255
5651,-0.015,-0.235
5652,-0.015,-0.255
5653,-0.010,-0.255
5654,-0.035,-0.235
5655,-0.005,-0.275
5656,-0.005,-0.255
5657,-0.010,-0.240
5658,0.000,-0.235
5659,-0.005,-0.215
5660,-0.010,-0.220
5661,-0.005,-0.235
5662,0.000,-0.210
5663,-0.015,-0.205
5664,-0.010,-0.190
5665,-0.005,-0.165
5666,-0.015,-0.170
5667,-0.015,-0.165
5668,-0.015,-0.150
5669,-0.005,-0.145
5670,0.000,-0.120
5671,-0.010,-0.120
5672,-0.005,-0.120
5673,-0.015,-0.110
5674,-0.005,-0.090
5675,-0.005,-0.105
5676,0.005,-0.090
5677,0.010,-0.050
5678,0.015,-0.080
5679,0.030,-0.075
5680,0.015,-0.100
5681,0.015,-0.120
5682,0.025,-0.135
5683,0.000,-0.155
5684,0.015,-0.180
5685,0.015,-0.150
5686,0.005,-0.225
5687,0.015,-0.195
5688,0.020,-0.190
5689,0.010,-0.185
5690,0.010,-0.210
5691,0.020,-0.185
5692,0.010,-0.175
5693,0.025,-0.170
5694,0.015,-0.170
5695,0.005,-0.160
5696,0.025,-0.150
5697,0.025,-0.145
5698,0.010,-0.150
5699,0.010,-0.150
5700,0.010,-0.150
5701,0.010,-0.150
5702,0.000,-0.175
5703,0.000,-0.170
5704,0.005,-0.185
5705,0.005,-0.170
5706,0.010,-0.165
5707,0.010,-0.185
5708,0.025,-0.150
5709,0.040,-0.120
5710,0.055,-0.075
5711,0.055,-0.045
5712,0.040,-0.035
5713,0.020,-0.055
5714,0.000,-0.070
5715,0.000,-0.125
5716,-0.025,-0.175
5717,0.005,-0.195
5718,-0.005,-0.180
5719,0.000,-0.205
5720,0.025,-0.250
5721,-0.010,-0.230
5722,-0.005,-0.245
5723,0.010,-0.245
5724,0.010,-0.240
5725,0.000,-0.240
5726,0.015,-0.250
5727,0.025,-0.240
5728,0.010,-0.235
5729,0.030,-0.250
5730,0.015,-0.305
5731,0.040,-0.360
5732,0.180,-0.330
5733,0.385,0.000
5734,0.345,0.695
5735,0.040,0.545
5736,-0.175,0.085
5737,-0.085,-0.600
5738,-0.015,-0.540
5739,0.000,-0.275
5740,-0.010,-0.270
5741,0.000,-0.255
5742,0.000,-0.240
5743,0.000,-0.240
5744,0.000,-0.250
5745,0.005,-0.250
5746,0.000,-0.255
5747,0.005,-0.240
5748,0.000,-0.230
5749,0.015,-0.230
5750,0.000,-0.225
5751,0.005,-0.245
5752,0.000,-0.225
5753,0.010,-0.225
5754,0.005,-0.195
5755,0.010,-0.220
5756,0.015,-0.210
5757,0.010,-0.180
5758,0.020,-0.145
5759,0.025,-0.150
5760,0.015,-0.115
5761,0.020,-0.115
5762,0.030,-0.115
5763,0.010,-0.105
5764,0.030,-0.100
5765,0.020,-0.085
5766,0.035,-0.065
5767,0.040,-0.040
5768,0.045,-0.035
5769,0.050,-0.050
5770,0.065,-0.035
5771,0.055,-0.040
5772,0.055,-0.085
5773,0.055,-0.100
5774,0.050,-0.110
5775,0.050,-0.120
5776,0.050,-0.145
5777,0.040,-0.165
5778,0.030,-0.170
5779,0.055,-0.150
5780,0.040,-0.150
5781,0.045,-0.145
5782,0.040,-0.175
5783,0.035,-0.165
5784,0.035,-0.170
5785,0.045,-0.190
5786,0.045,-0.155
5787,0.040,-0.165
5788,0.045,-0.160
5789,0.030,-0.160
5790,0.035,-0.150
5791,0.035,-0.160
5792,0.015,-0.150
5793,0.025,-0.160
5794,0.035,-0.150
5795,0.025,-0.160
5796,0.010,-0.190
5797,0.030,-0.180
5798,0.020,-0.150
5799,0.015,-0.165
5800,0.035,-0.190
5801,0.035,-0.120
5802,0.070,-0.085
5803,0.070,-0.045
5804,0.065,-0.040
5805,0.060,-0.045
5806,0.030,-0.070
5807,0.005,-0.085
5808,0.000,-0.155
5809,0.010,-0.175
5810,0.010,-0.195
5811,0.020,-0.225
5812,0.010,-0.235
5813,0.000,-0.240
5814,0.015,-0.235
5815,0.010,-0.235
5816,0.005,-0.245
5817,0.005,-0.235
5818,0.015,-0.250
5819,0.010,-0.250
5820,0.030,-0.240
5821,0.015,-0.255
5822,0.000,-0.285
5823,0.000,-0.425
5824,0.080,-0.420
5825,0.265,-0.285
5826,0.450,0.290
5827,0.205,0.660
5828,-0.150,0.325
5829,-0.160,-0.370
5830,-0.040,-0.595
5831,0.020,-0.325
5832,0.005,-0.260
5833,0.000,-0.250
5834,0.000,-0.255
5835,0.000,-0.260
5836,0.000,-0.260
5837,0.005,-0.270
5838,0.010,-0.240
5839,0.000,-0.250
5840,-0.005,-0.255
5841,0.000,-0.250
5842,0.010,-0.255
5843,0.005,-0.250
5844,0.015,-0.235
5845,0.030,-0.240
5846,0.015,-0.225
5847,0.040,-0.225
5848,0.015,-0.200
5849,0.015,-0.185
5850,0.025,-0.195
5851,0.030,-0.185
5852,0.025,-0.160
5853,0.040,-0.140
5854,0.035,-0.110
5855,0.045,-0.125
5856,0.045,-0.100
5857,0.050,-0.105
5858,0.050,-0.090
5859,0.040,-0.065
5860,0.055,-0.065
5861,0.070,-0.050
5862,0.095,-0.035
5863,0.090,-0.040
5864,0.090,-0.065
5865,0.085,-0.070
5866,0.110,-0.125
5867,0.085,-0.110
5868,0.080,-0.105
5869,0.065,-0.145
5870,0.085,-0.175
5871,0.060,-0.155
5872,0.065,-0.175
5873,0.050,-0.170
5874,0.090,-0.150
5875,0.060,-0.135
5876,0.065,-0.165
5877,0.070,-0.160
5878,0.070,-0.135
5879,0.060,-0.140
5880,0.060,-0.145
5881,0.055,-0.145
5882,0.055,-0.140
5883,0.065,-0.135
5884,0.060,-0.120
5885,0.060,-0.115
5886,0.070,-0.120
5887,0.055,-0.150
5888,0.065,-0.140
5889,0.060,-0.145
5890,0.060,-0.155
5891,0.060,-0.135
5892,0.080,-0.120
5893,0.070,-0.110
5894,0.115,-0.090
5895,0.110,-0.020
5896,0.095,-0.025
5897,0.085,-0.010
5898,0.045,-0.050
5899,0.020,-0.085
5900,0.030,-0.120
5901,0.035,-0.135
5902,0.040,-0.120
5903,0.035,-0.160
5904,0.045,-0.205
5905,0.025,-0.225
5906,0.035,-0.185
5907,0.040,-0.200
5908,0.040,-0.215
5909,0.030,-0.210
5910,0.035,-0.205
5911,0.030,-0.210
5912,0.040,-0.225
5913,0.025,-0.220
5914,0.030,-0.225
5915,0.055,-0.320
5916,0.140,-0.345
5917,0.310,-0.095
5918,0.435,0.535
5919,0.330,0.765
5920,0.105,0.425
5921,-0.150,0.040
5922,-0.070,-0.600
5923,-0.020,-0.535
5924,0.010,-0.265
5925,0.000,-0.220
5926,-0.010,-0.230
5927,0.005,-0.220
5928,0.000,-0.215
5929,0.005,-0.230
5930,0.005,-0.205
5931,0.000,-0.215
5932,0.000,-0.240
5933,0.015,-0.245
5934,0.010,-0.215
5935,0.010,-0.210
5936,0.025,-0.185
5937,0.010,-0.185
5938,0.015,-0.205
5939,0.035,-0.185
5940,0.015,-0.175
5941,0.020,-0.160
5942,0.025,-0.150
5943,0.015,-0.140
5944,0.020,-0.095
5945,0.030,-0.085
5946,0.020,-0.130
5947,0.030,-0.095
5948,0.015,-0.095
5949,0.010,-0.085
5950,0.025,-0.070
5951,0.040,-0.025
5952,0.035,-0.060
5953,0.055,-0.005
5954,0.050,-0.005
5955,0.050,-0.020
5956,0.070,-0.005
5957,0.085,-0.050
5958,0.075,-0.070
5959,0.075,-0.105
5960,0.060,-0.110
5961,0.065,-0.145
5962,0.070,-0.155
5963,0.065,-0.145
5964,0.065,-0.165
5965,0.075,-0.160
5966,0.070,-0.130
5967,0.065,-0.130
5968,0.070,-0.130
5969,0.075,-0.105
5970,0.070,-0.150
5971,0.080,-0.135
5972,0.105,-0.105
5973,0.085,-0.075
5974,0.090,-0.075
5975,0.065,-0.090
5976,0.065,-0.090
5977,0.075,-0.095
5978,0.070,-0.095
5979,0.060,-0.110
5980,0.070,-0.115
5981,0.070,-0.100
5982,0.075,-0.110
5983,0.065,-0.115
5984,0.090,-0.100
5985,0.120,-0.065
5986,0.125,-0.025
5987,0.125,0.015
5988,0.105,0.020
5989,0.080,0.010
5990,0.085,-0.035
5991,0.050,-0.035
5992,0.070,-0.085
5993,0.055,-0.095
5994,0.060,-0.125
5995,0.065,-0.160
5996,0.065,-0.195
5997,0.055,-0.160
5998,0.065,-0.180
5999,0.065,-0.200
6000,0.065,-0.200
6001,0.070,-0.190
6002,0.060,-0.190
6003,0.070,-0.185
6004,0.060,-0.190
6005,0.055,-0.190
6006,0.065,-0.315
6007,0.100,-0.355
6008,0.190,-0.260
6009,0.370,0.190
6010,0.375,0.955
6011,0.135,0.650
6012,-0.065,0.020
6013,0.000,-0.660
6014,0.000,-0.600
6015,0.015,-0.275
6016,0.040,-0.180
6017,0.035,-0.195
6018,0.040,-0.185
6019,0.045,-0.195
6020,0.025,-0.210
6021,0.050,-0.195
6022,0.035,-0.210
6023,0.045,-0.185
6024,0.025,-0.205
6025,0.030,-0.170
6026,0.035,-0.180
6027,0.025,-0.190
6028,0.045,-0.180
6029,0.040,-0.165
6030,0.040,-0.170
6031,0.035,-0.160
6032,0.045,-0.150
6033,0.040,-0.135
6034,0.045,-0.135
6035,0.030,-0.125
6036,0.030,-0.105
6037,0.035,-0.105
6038,0.020,-0.100
6039,0.040,-0.085
6040,0.030,-0.080
6041,0.010,-0.090
6042,0.050,-0.075
6043,0.045,-0.050
6044,0.025,-0.065
6045,0.055,-0.060
6046,0.060,-0.035
6047,0.070,-0.040
6048,0.080,-0.045
6049,0.075,-0.070
6050,0.085,-0.080
6051,0.060,-0.100
6052,0.060,-0.120
6053,0.065,-0.140
6054,0.055,-0.150
6055,0.060,-0.155
6056,0.070,-0.135
6057,0.060,-0.135
6058,0.065,-0.170
6059,0.050,-0.160
6060,0.030,-0.140
6061,0.065,-0.125
6062,0.050,-0.115
6063,0.055,-0.120
6064,0.055,-0.125
6065,0.050,-0.110
6066,0.055,-0.100
6067,0.050,-0.115
6068,0.040,-0.120
6069,0.050,-0.110
6070,0.050,-0.115
6071,0.055,-0.125
6072,0.040,-0.145
6073,0.065,-0.155
6074,0.050,-0.155
6075,0.065,-0.130
6076,0.075,-0.110
6077,0.075,-0.055
6078,0.100,-0.030
6079,0.080,-0.010
6080,0.085,-0.005
6081,0.045,-0.045
6082,0.015,-0.080
6083,0.015,-0.130
6084,0.025,-0.175
6085,0.035,-0.165
6086,0.040,-0.165
6087,0.025,-0.200
6088,0.035,-0.230
6089,0.030,-0.240
6090,0.025,-0.240
6091,0.030,-0.240
6092,0.040,-0.230
6093,0.025,-0.220
6094,0.040,-0.235
6095,0.040,-0.235
6096,0.035,-0.215
6097,0.040,-0.265
6098,0.055,-0.350
6099,0.155,-0.365
6100,0.330,-0.045
6101,0.400,0.685
6102,0.180,0.650
6103,-0.105,0.320
6104,-0.185,-0.095
6105,-0.055,-0.605
6106,0.000,-0.440
6107,0.020,-0.260
6108,0.020,-0.240
6109,0.005,-0.230
6110,0.025,-0.265
6111,0.025,-0.270
6112,0.015,-0.240
6113,0.030,-0.225
6114,0.030,-0.220
6115,0.045,-0.235
6116,0.045,-0.225
6117,0.045,-0.220
6118,0.040,-0.210
6119,0.050,-0.200
6120,0.035,-0.200
6121,0.055,-0.205
6122,0.055,-0.190
6123,0.060,-0.185
6124,0.065,-0.170
6125,0.065,-0.135
6126,0.055,-0.135
6127,0.060,-0.120
6128,0.075,-0.100
6129,0.060,-0.100
6130,0.065,-0.090
6131,0.060,-0.080
6132,0.060,-0.060
6133,0.055,-0.060
6134,0.055,-0.060
6135,0.055,-0.030
6136,0.095,-0.040
6137,0.100,-0.030
6138,0.075,-0.050
6139,0.090,-0.055
6140,0.095,-0.065
6141,0.080,-0.090
6142,0.095,-0.145
6143,0.080,-0.155
6144,0.085,-0.160
6145,0.070,-0.175
6146,0.080,-0.170
6147,0.075,-0.180
6148,0.065,-0.160
6149,0.075,-0.175
6150,0.065,-0.160
6151,0.080,-0.175
6152,0.080,-0.155
6153,0.070,-0.165
6154,0.085,-0.145
6155,0.075,-0.145
6156,0.060,-0.135
6157,0.070,-0.140
6158,0.070,-0.135
6159,0.075,-0.140
6160,0.075,-0.135
6161,0.075,-0.140
6162,0.070,-0.150
6163,0.060,-0.150
6164,0.060,-0.165
6165,0.055,-0.155
6166,0.055,-0.155
6167,0.070,-0.160
6168,0.085,-0.150
6169,0.100,-0.100
6170,0.105,-0.045
6171,0.110,-0.055
6172,0.110,-0.025
6173,0.075,-0.035
6174,0.050,-0.065
6175,0.025,-0.110
6176,0.030,-0.160
6177,0.035,-0.195
6178,0.040,-0.205
6179,0.030,-0.215
6180,0.035,-0.245
6181,0.025,-0.255
6182,0.025,-0.260
6183,0.040,-0.245
6184,0.030,-0.250
6185,0.025,-0.270
6186,0.025,-0.235
6187,0.035,-0.270
6188,0.020,-0.250
6189,0.015,-0.285
6190,0.015,-0.365
6191,0.035,-0.435
6192,0.165,-0.400
6193,0.375,-0.050
6194,0.370,0.620
6195,0.085,0.505
6196,-0.170,0.025
6197,-0.080,-0.615
6198,0.010,-0.480
6199,0.020,-0.280
6200,0.010,-0.280
6201,0.010,-0.260
6202,0.005,-0.250
6203,0.020,-0.285
6204,0.020,-0.260
6205,0.025,-0.250
6206,0.010,-0.285
6207,0.030,-0.255
6208,0.005,-0.245
6209,0.025,-0.250
6210,0.035,-0.255
6211,0.035,-0.245
6212,0.025,-0.225
6213,0.025,-0.225
6214,0.035,-0.230
6215,0.040,-0.205
6216,0.045,-0.200
6217,0.035,-0.180
6218,0.035,-0.200
6219,0.055,-0.210
6220,0.045,-0.155
6221,0.035,-0.135
6222,0.065,-0.115
6223,0.055,-0.095
6224,0.050,-0.070
6225,0.060,-0.090
6226,0.065,-0.075
6227,0.080,-0.075
6228,0.070,-0.055
6229,0.085,-0.040
6230,0.080,-0.050
6231,0.100,-0.070
6232,0.090,-0.095
6233,0.085,-0.115
6234,0.075,-0.140
6235,0.075,-0.165
6236,0.075,-0.160
6237,0.070,-0.185
6238,0.060,-0.200
6239,0.070,-0.210
6240,0.070,-0.200
6241,0.070,-0.200
6242,0.085,-0.185
6243,0.070,-0.185
6244,0.065,-0.175
6245,0.085,-0.190
6246,0.080,-0.180
6247,0.085,-0.165
6248,0.090,-0.165
6249,0.095,-0.140
6250,0.085,-0.170
6251,0.090,-0.155
6252,0.075,-0.180
6253,0.085,-0.150
6254,0.085,-0.165
6255,0.075,-0.170
6256,0.080,-0.185
6257,0.095,-0.180
6258,0.090,-0.190
6259,0.090,-0.185
6260,0.105,-0.175
6261,0.115,-0.130
6262,0.130,-0.135
6263,0.140,-0.065
6264,0.135,-0.085
6265,0.120,-0.050
6266,0.085,-0.105
6267,0.050,-0.115
6268,0.060,-0.205
6269,0.055,-0.205
6270,0.065,-0.195
6271,0.055,-0.220
6272,0.070,-0.240
6273,0.065,-0.245
6274,0.080,-0.255
6275,0.075,-0.270
6276,0.065,-0.270
6277,0.060,-0.250
6278,0.070,-0.265
6279,0.070,-0.275
6280,0.065,-0.240
6281,0.075,-0.255
6282,0.065,-0.310
6283,0.095,-0.400
6284,0.220,-0.355
6285,0.350,-0.045
6286,0.455,0.390
6287,0.250,0.655
6288,-0.065,0.280
6289,-0.095,-0.435
6290,0.025,-0.635
6291,0.050,-0.325
6292,0.075,-0.270
6293,0.055,-0.250
6294,0.035,-0.255
6295,0.050,-0.270
6296,0.045,-0.245
6297,0.055,-0.260
6298,0.055,-0.260
6299,0.055,-0.250
6300,0.055,-0.240
6301,0.060,-0.240
6302,0.055,-0.210
6303,0.055,-0.235
6304,0.055,-0.235
6305,0.070,-0.230
6306,0.050,-0.235
6307,0.050,-0.225
6308,0.065,-0.200
6309,0.060,-0.190
6310,0.060,-0.190
6311,0.060,-0.160
6312,0.060,-0.150
6313,0.045,-0.135
6314,0.060,-0.115
6315,0.055,-0.110
6316,0.060,-0.095
6317,0.060,-0.075
6318,0.050,-0.095
6319,0.060,-0.095
6320,0.065,-0.070
6321,0.070,-0.070
6322,0.090,-0.055
6323,0.110,-0.055
6324,0.105,-0.070
6325,0.110,-0.100
6326,0.095,-0.130
6327,0.095,-0.125
6328,0.080,-0.165
6329,0.085,-0.180
6330,0.085,-0.185
6331,0.085,-0.210
6332,0.095,-0.205
6333,0.090,-0.205
6334,0.085,-0.185
6335,0.080,-0.180
6336,0.105,-0.185
6337,0.110,-0.180
6338,0.080,-0.190
6339,0.075,-0.160
6340,0.085,-0.165
6341,0.085,-0.170
6342,0.090,-0.175
6343,0.085,-0.175
6344,0.090,-0.165
6345,0.095,-0.155
6346,0.070,-0.160
6347,0.080,-0.160
6348,0.090,-0.170
6349,0.080,-0.190
6350,0.065,-0.170
6351,0.070,-0.190
6352,0.085,-0.205
6353,0.105,-0.155
6354,0.125,-0.135
6355,0.140,-0.085
6356,0.115,-0.070
6357,0.120,-0.050
6358,0.100,-0.065
6359,0.080,-0.095
6360,0.045,-0.120
6361,0.045,-0.195
6362,0.050,-0.205
6363,0.065,-0.205
6364,0.080,-0.230
6365,0.075,-0.255
6366,0.080,-0.250
6367,0.080,-0.290
6368,0.075,-0.250
6369,0.070,-0.240
6370,0.075,-0.265
6371,0.075,-0.255
6372,0.075,-0.280
6373,0.080,-0.255
6374,0.070,-0.260
6375,0.090,-0.335
6376,0.130,-0.385
6377,0.255,-0.295
6378,0.440,0.175
6379,0.420,0.910
6380,0.145,0.555
6381,-0.050,-0.035
6382,0.000,-0.725
6383,0.025,-0.805
6384,0.050,-0.530
6385,0.065,-0.280
6386,0.050,-0.260
6387,0.065,-0.270
6388,0.055,-0.270
6389,0.075,-0.240
6390,0.075,-0.240
6391,0.075,-0.245
6392,0.065,-0.235
6393,0.080,-0.245
6394,0.075,-0.240
6395,0.060,-0.215
6396,0.065,-0.230
6397,0.065,-0.230
6398,0.070,-0.225
6399,0.060,-0.205
6400,0.075,-0.195
6401,0.065,-0.175
6402,0.075,-0.185
6403,0.055,-0.165
6404,0.075,-0.155
6405,0.075,-0.135
6406,0.070,-0.130
6407,0.070,-0.140
6408,0.070,-0.105
6409,0.060,-0.120
6410,0.070,-0.115
6411,0.075,-0.095
6412,0.075,-0.095
6413,0.080,-0.075
6414,0.085,-0.055
6415,0.110,-0.065
6416,0.110,-0.050
6417,0.120,-0.080
6418,0.120,-0.105
6419,0.115,-0.130
6420,0.105,-0.150
6421,0.090,-0.155
6422,0.120,-0.190
6423,0.100,-0.200
6424,0.085,-0.195
6425,0.095,-0.200
6426,0.085,-0.190
6427,0.085,-0.190
6428,0.095,-0.170
6429,0.110,-0.160
6430,0.105,-0.160
6431,0.100,-0.155
6432,0.100,-0.150
6433,0.090,-0.145
6434,0.090,-0.150
6435,0.095,-0.155
6436,0.070,-0.150
6437,0.090,-0.180
6438,0.085,-0.140
6439,0.090,-0.160
6440,0.085,-0.190
6441,0.075,-0.185
6442,0.085,-0.190
6443,0.075,-0.190
6444,0.075,-0.205
6445,0.090,-0.190
6446,0.105,-0.170
6447,0.105,-0.110
6448,0.120,-0.090
6449,0.120,-0.075
6450,0.095,-0.055
6451,0.070,-0.095
6452,0.060,-0.140
6453,0.035,-0.190
6454,0.055,-0.220
6455,0.040,-0.235
6456,0.040,-0.250
6457,0.030,-0.280
6458,0.055,-0.240
6459,0.045,-0.270
6460,0.040,-0.280
6461,0.055,-0.285
6462,0.045,-0.285
6463,0.045,-0.290
6464,0.035,-0.285
6465,0.055,-0.280
6466,0.045,-0.280
6467,0.060,-0.325
6468,0.070,-0.435
6469,0.225,-0.360
6470,0.410,0.100
6471,0.360,0.760
6472,0.105,0.460
6473,-0.135,-0.025
6474,-0.135,-0.690
6475,-0.020,-0.790
6476,0.015,-0.490
6477,0.020,-0.330
6478,0.040,-0.300
6479,0.020,-0.295
6480,0.030,-0.305
6481,0.030,-0.305
6482,0.040,-0.315
6483,0.025,-0.300
6484,0.045,-0.290
6485,0.035,-0.290
6486,0.030,-0.285
6487,0.040,-0.275
6488,0.040,-0.290
6489,0.030,-0.285
6490,0.045,-0.265
6491,0.020,-0.270
6492,0.040,-0.260
6493,0.030,-0.230
6494,0.050,-0.225
6495,0.035,-0.225
6496,0.045,-0.195
6497,0.045,-0.195
6498,0.050,-0.160
6499,0.055,-0.145
6500,0.045,-0.140
6501,0.025,-0.135
6502,0.055,-0.125
6503,0.045,-0.100
6504,0.070,-0.100
6505,0.075,-0.100
6506,0.075,-0.075
6507,0.095,-0.085
6508,0.100,-0.105
6509,0.105,-0.105
6510,0.095,-0.115
6511,0.100,-0.145
6512,0.095,-0.165
6513,0.105,-0.175
6514,0.100,-0.185
6515,0.110,-0.185
6516,0.085,-0.210
6517,0.105,-0.215
6518,0.090,-0.205
6519,0.090,-0.200
6520,0.085,-0.195
6521,0.080,-0.200
6522,0.090,-0.200
6523,0.105,-0.200
6524,0.095,-0.185
6525,0.090,-0.180
6526,0.090,-0.170
6527,0.090,-0.160
6528,0.085,-0.180
6529,0.090,-0.160
6530,0.090,-0.180
6531,0.070,-0.180
6532,0.090,-0.160
6533,0.075,-0.185
6534,0.095,-0.200
6535,0.085,-0.180
6536,0.080,-0.200
6537,0.095,-0.210
6538,0.105,-0.190
6539,0.090,-0.170
6540,0.125,-0.130
6541,0.130,-0.095
6542,0.130,-0.100
6543,0.105,-0.050
6544,0.080,-0.080
6545,0.065,-0.125
6546,0.065,-0.205
6547,0.060,-0.220
6548,0.050,-0.205
6549,0.080,-0.230
6550,0.070,-0.255
6551,0.055,-0.270
6552,0.065,-0.265
6553,0.065,-0.275
6554,0.070,-0.290
6555,0.075,-0.295
6556,0.065,-0.275
6557,0.075,-0.275
6558,0.065,-0.280
6559,0.065,-0.280
6560,0.065,-0.325
6561,0.090,-0.420
6562,0.220,-0.360
6563,0.440,-0.020
6564,0.565,0.600
6565,0.325,0.860
6566,-0.045,0.385
6567,-0.115,-0.290
