'sample interval','ECG0','ECG1'
'0.0078125 sec','mV','mV'
0,0.050,-0.040
1,0.010,-0.060
2,-0.020,-0.130
3,-0.035,-0.170
4,-0.030,-0.240
5,-0.020,-0.265
6,-0.015,-0.285
7,-0.020,-0.280
8,-0.030,-0.300
9,-0.030,-0.325
10,-0.035,-0.305
11,-0.020,-0.315
12,-0.035,-0.320
13,-0.030,-0.305
14,-0.040,-0.330
15,-0.030,-0.320
16,-0.030,-0.300
17,-0.025,-0.335
18,-0.025,-0.390
19,0.020,-0.450
20,0.135,-0.405
21,0.315,-0.005
22,0.320,0.740
23,0.065,0.525
24,-0.165,-0.050
25,-0.095,-0.740
26,-0.065,-0.760
27,-0.045,-0.445
28,-0.040,-0.325
29,-0.045,-0.320
30,-0.055,-0.325
31,-0.055,-0.310
32,-0.030,-0.330
33,-0.045,-0.315
34,-0.045,-0.340
35,-0.035,-0.320
36,-0.045,-0.305
37,-0.045,-0.315
38,-0.035,-0.305
39,-0.050,-0.310
40,-0.055,-0.305
41,-0.065,-0.305
42,-0.050,-0.285
43,-0.055,-0.290
44,-0.045,-0.265
45,-0.055,-0.260
46,-0.060,-0.250
47,-0.060,-0.225
48,-0.065,-0.220
49,-0.055,-0.210
50,-0.065,-0.190
51,-0.060,-0.180
52,-0.070,-0.160
53,-0.060,-0.160
54,-0.055,-0.155
55,-0.065,-0.120
56,-0.045,-0.105
57,-0.040,-0.110
58,-0.020,-0.115
59,-0.005,-0.130
60,-0.015,-0.140
61,-0.020,-0.175
62,-0.005,-0.210
63,-0.020,-0.215
64,-0.020,-0.230
65,-0.015,-0.245
66,-0.015,-0.255
67,-0.045,-0.265
68,-0.020,-0.265
69,-0.025,-0.250
70,-0.025,-0.270
71,-0.015,-0.265
72,-0.010,-0.260
73,-0.015,-0.250
74,-0.005,-0.245
75,-0.005,-0.225
76,-0.010,-0.220
77,-0.005,-0.220
78,-0.005,-0.225
79,-0.005,-0.220
80,0.005,-0.210
81,-0.005,-0.205
82,-0.005,-0.210
83,0.000,-0.210
84,-0.025,-0.220
85,-0.015,-0.230
86,-0.020,-0.240
87,0.000,-0.235
88,-0.015,-0.220
89,0.000,-0.230
90,0.030,-0.165
91,0.035,-0.120
92,0.005,-0.120
93,0.015,-0.105
94,-0.015,-0.125
95,-0.025,-0.160
96,-0.055,-0.235
97,-0.035,-0.255
98,-0.025,-0.255
99,-0.030,-0.270
100,-0.025,-0.300
101,-0.025,-0.310
102,-0.020,-0.315
103,-0.035,-0.315
104,-0.015,-0.320
105,-0.035,-0.315
106,-0.035,-0.325
107,-0.030,-0.335
108,-0.025,-0.335
109,-0.030,-0.325
110,-0.020,-0.335
111,-0.015,-0.390
112,0.055,-0.460
113,0.240,-0.325
114,0.430,0.220
115,0.390,0.850
116,0.110,0.685
117,-0.170,0.090
118,-0.135,-0.595
119,-0.050,-0.720
120,-0.025,-0.420
121,-0.045,-0.335
122,-0.055,-0.355
123,-0.045,-0.355
124,-0.050,-0.340
125,-0.045,-0.355
126,-0.055,-0.380
127,-0.065,-0.360
128,-0.045,-0.360
129,-0.055,-0.350
130,-0.075,-0.340
131,-0.060,-0.345
132,-0.065,-0.345
133,-0.060,-0.340
134,-0.060,-0.335
135,-0.050,-0.330
136,-0.065,-0.310
137,-0.055,-0.300
138,-0.060,-0.295
139,-0.060,-0.275
140,-0.080,-0.245
141,-0.065,-0.255
142,-0.060,-0.225
143,-0.075,-0.225
144,-0.065,-0.200
145,-0.050,-0.185
146,-0.070,-0.155
147,-0.060,-0.155
148,-0.055,-0.150
149,-0.055,-0.145
150,-0.040,-0.125
151,-0.025,-0.135
152,-0.030,-0.170
153,-0.020,-0.190
154,-0.035,-0.220
155,-0.030,-0.235
156,-0.030,-0.280
157,-0.040,-0.300
158,-0.040,-0.305
159,-0.040,-0.300
160,-0.040,-0.310
161,-0.060,-0.315
162,-0.025,-0.325
163,-0.045,-0.320
164,-0.035,-0.305
165,-0.040,-0.315
166,-0.010,-0.310
167,-0.015,-0.305
168,-0.035,-0.310
169,-0.030,-0.290
170,-0.030,-0.290
171,-0.035,-0.295
172,-0.040,-0.295
173,-0.035,-0.280
174,-0.015,-0.280
175,-0.005,-0.280
176,-0.020,-0.280
177,-0.020,-0.270
178,-0.010,-0.275
179,-0.020,-0.285
180,-0.020,-0.280
181,-0.025,-0.280
182,0.000,-0.260
183,0.025,-0.225
184,0.025,-0.175
185,0.030,-0.160
186,0.030,-0.165
187,-0.005,-0.140
188,-0.040,-0.185
189,-0.050,-0.250
190,-0.035,-0.295
191,-0.035,-0.310
192,-0.030,-0.310
193,-0.040,-0.345
194,-0.025,-0.365
195,-0.035,-0.360
196,-0.040,-0.350
197,-0.025,-0.350
198,-0.010,-0.345
199,-0.020,-0.350
200,-0.005,-0.350
201,-0.030,-0.365
202,-0.020,-0.360
203,-0.005,-0.360
204,-0.020,-0.380
205,0.000,-0.460
206,0.085,-0.475
207,0.305,-0.260
208,0.385,0.290
209,0.075,0.485
210,-0.220,0.145
211,-0.300,-0.425
212,-0.120,-0.805
213,-0.040,-0.580
214,-0.025,-0.385
215,-0.045,-0.370
216,-0.025,-0.380
217,-0.040,-0.365
218,-0.035,-0.360
219,-0.025,-0.350
220,-0.025,-0.345
221,-0.040,-0.380
222,-0.015,-0.350
223,-0.015,-0.355
224,-0.020,-0.365
225,-0.015,-0.350
226,-0.020,-0.340
227,0.005,-0.340
228,-0.030,-0.295
229,-0.030,-0.325
230,-0.015,-0.330
231,-0.010,-0.315
232,-0.010,-0.285
233,-0.005,-0.265
234,-0.015,-0.240
235,-0.005,-0.220
236,-0.010,-0.215
237,-0.020,-0.215
238,-0.010,-0.180
239,-0.015,-0.165
240,-0.005,-0.150
241,-0.005,-0.130
242,0.000,-0.115
243,0.010,-0.135
244,0.020,-0.135
245,0.015,-0.165
246,0.025,-0.185
247,0.010,-0.205
248,0.015,-0.220
249,0.020,-0.260
250,0.010,-0.285
251,0.000,-0.280
252,0.000,-0.285
253,0.000,-0.310
254,0.000,-0.315
255,0.015,-0.320
256,-0.010,-0.320
257,0.000,-0.315
258,0.000,-0.325
259,-0.015,-0.305
260,0.000,-0.320
261,0.005,-0.335
262,0.010,-0.310
263,0.005,-0.305
264,0.000,-0.305
265,-0.005,-0.315
266,0.000,-0.315
267,0.000,-0.310
268,-0.005,-0.300
269,-0.010,-0.305
270,-0.010,-0.300
271,0.000,-0.290
272,-0.015,-0.300
273,-0.010,-0.315
274,0.000,-0.290
275,0.020,-0.285
276,0.020,-0.230
277,0.055,-0.195
278,0.025,-0.185
279,0.040,-0.160
280,-0.005,-0.190
281,-0.025,-0.240
282,-0.050,-0.245
283,-0.045,-0.295
284,-0.020,-0.315
285,-0.020,-0.325
286,-0.035,-0.365
287,-0.030,-0.380
288,-0.015,-0.360
289,-0.030,-0.380
290,-0.020,-0.385
291,-0.020,-0.375
292,-0.030,-0.360
293,-0.035,-0.370
294,-0.010,-0.380
295,-0.015,-0.370
296,-0.015,-0.370
297,-0.020,-0.410
298,-0.025,-0.515
299,0.040,-0.520
300,0.220,-0.405
301,0.380,0.075
302,0.135,0.440
303,-0.205,0.115
304,-0.200,-0.475
305,-0.045,-0.700
306,-0.020,-0.440
307,-0.030,-0.365
308,-0.040,-0.365
309,-0.040,-0.360
310,-0.035,-0.360
311,-0.055,-0.365
312,-0.035,-0.365
313,-0.035,-0.355
314,-0.020,-0.345
315,-0.010,-0.355
316,-0.020,-0.345
317,-0.030,-0.320
318,-0.005,-0.330
319,-0.050,-0.320
320,-0.020,-0.325
321,-0.020,-0.310
322,-0.005,-0.285
323,-0.005,-0.285
324,-0.020,-0.270
325,-0.025,-0.260
326,-0.015,-0.255
327,-0.020,-0.215
328,-0.010,-0.210
329,-0.010,-0.195
330,-0.015,-0.165
331,-0.015,-0.155
332,-0.010,-0.140
333,-0.015,-0.120
334,0.000,-0.105
335,0.000,-0.110
336,0.010,-0.090
337,0.020,-0.100
338,0.035,-0.120
339,0.020,-0.150
340,0.005,-0.180
341,0.010,-0.200
342,0.030,-0.215
343,0.010,-0.235
344,0.005,-0.245
345,0.000,-0.265
346,0.000,-0.285
347,0.000,-0.275
348,0.000,-0.275
349,0.000,-0.270
350,0.005,-0.270
351,0.000,-0.280
352,0.010,-0.265
353,-0.005,-0.280
354,0.000,-0.270
355,0.005,-0.280
356,0.000,-0.265
357,0.000,-0.260
358,0.000,-0.265
359,0.000,-0.265
360,0.000,-0.230
361,-0.005,-0.245
362,0.000,-0.220
363,-0.005,-0.240
364,-0.005,-0.225
365,-0.010,-0.250
366,-0.010,-0.235
367,-0.005,-0.235
368,0.005,-0.205
369,0.030,-0.180
370,0.040,-0.140
371,0.030,-0.115
372,0.015,-0.095
373,-0.010,-0.145
374,-0.040,-0.165
375,-0.070,-0.235
376,-0.060,-0.270
377,-0.040,-0.275
378,-0.040,-0.285
379,-0.055,-0.310
380,-0.055,-0.330
381,-0.045,-0.330
382,-0.045,-0.310
383,-0.060,-0.310
384,-0.045,-0.300
385,-0.045,-0.305
386,-0.050,-0.335
387,-0.055,-0.320
388,-0.050,-0.325
389,-0.040,-0.330
390,-0.035,-0.415
391,0.025,-0.475
392,0.190,-0.310
393,0.345,0.200
394,0.305,0.700
395,0.115,0.400
396,-0.170,0.055
397,-0.185,-0.550
398,-0.105,-0.800
399,-0.075,-0.475
400,-0.090,-0.365
401,-0.080,-0.350
402,-0.070,-0.360
403,-0.070,-0.345
404,-0.085,-0.320
405,-0.075,-0.345
406,-0.075,-0.325
407,-0.070,-0.335
408,-0.065,-0.345
409,-0.070,-0.335
410,-0.070,-0.335
411,-0.065,-0.320
412,-0.075,-0.295
413,-0.060,-0.320
414,-0.080,-0.295
415,-0.070,-0.295
416,-0.085,-0.275
417,-0.075,-0.250
418,-0.075,-0.260
419,-0.070,-0.225
420,-0.090,-0.195
421,-0.080,-0.195
422,-0.075,-0.180
423,-0.090,-0.185
424,-0.075,-0.145
425,-0.080,-0.155
426,-0.070,-0.105
427,-0.070,-0.095
428,-0.065,-0.080
429,-0.055,-0.095
430,-0.030,-0.105
431,-0.050,-0.090
432,-0.025,-0.150
433,-0.035,-0.160
434,-0.040,-0.190
435,-0.055,-0.230
436,-0.045,-0.260
437,-0.050,-0.270
438,-0.055,-0.280
439,-0.055,-0.275
440,-0.055,-0.275
441,-0.070,-0.290
442,-0.045,-0.280
443,-0.045,-0.295
444,-0.055,-0.280
445,-0.045,-0.290
446,-0.040,-0.270
447,-0.025,-0.260
448,-0.050,-0.265
449,-0.040,-0.240
450,-0.035,-0.235
451,-0.050,-0.230
452,-0.055,-0.230
453,-0.055,-0.220
454,-0.040,-0.215
455,-0.040,-0.220
456,-0.040,-0.230
457,-0.040,-0.230
458,-0.040,-0.245
459,-0.040,-0.235
460,-0.030,-0.235
461,0.000,-0.185
462,0.000,-0.140
463,0.000,-0.120
464,0.005,-0.085
465,-0.020,-0.115
466,-0.045,-0.145
467,-0.090,-0.170
468,-0.075,-0.220
469,-0.065,-0.265
470,-0.090,-0.270
471,-0.070,-0.290
472,-0.080,-0.305
473,-0.105,-0.330
474,-0.090,-0.345
475,-0.090,-0.315
476,-0.090,-0.315
477,-0.085,-0.330
478,-0.095,-0.335
479,-0.095,-0.330
480,-0.085,-0.320
481,-0.085,-0.310
482,-0.085,-0.340
483,-0.075,-0.390
484,-0.005,-0.440
485,0.145,-0.305
486,0.305,0.195
487,0.160,0.720
488,-0.135,0.265
489,-0.245,-0.240
490,-0.165,-0.790
491,-0.120,-0.615
492,-0.110,-0.370
493,-0.135,-0.325
494,-0.130,-0.320
495,-0.125,-0.330
496,-0.125,-0.320
497,-0.120,-0.330
498,-0.135,-0.320
499,-0.125,-0.310
500,-0.105,-0.310
501,-0.110,-0.330
502,-0.125,-0.310
503,-0.125,-0.310
504,-0.135,-0.310
505,-0.115,-0.310
506,-0.135,-0.295
507,-0.120,-0.290
508,-0.115,-0.280
509,-0.110,-0.265
510,-0.105,-0.250
511,-0.115,-0.255
512,-0.125,-0.230
513,-0.145,-0.200
514,-0.135,-0.205
515,-0.145,-0.175
516,-0.135,-0.165
517,-0.135,-0.155
518,-0.130,-0.145
519,-0.130,-0.125
520,-0.135,-0.130
521,-0.130,-0.120
522,-0.105,-0.120
523,-0.120,-0.135
524,-0.100,-0.155
525,-0.100,-0.165
526,-0.110,-0.185
527,-0.115,-0.215
528,-0.120,-0.245
529,-0.110,-0.265
530,-0.135,-0.260
531,-0.135,-0.280
532,-0.130,-0.290
533,-0.135,-0.275
534,-0.125,-0.300
535,-0.110,-0.295
536,-0.125,-0.265
537,-0.115,-0.285
538,-0.115,-0.285
539,-0.105,-0.290
540,-0.120,-0.280
541,-0.110,-0.290
542,-0.115,-0.250
543,-0.100,-0.250
544,-0.095,-0.250
545,-0.095,-0.240
546,-0.120,-0.230
547,-0.120,-0.245
548,-0.115,-0.245
549,-0.110,-0.245
550,-0.115,-0.250
551,-0.125,-0.240
552,-0.130,-0.255
553,-0.105,-0.255
554,-0.085,-0.225
555,-0.070,-0.180
556,-0.055,-0.115
557,-0.070,-0.130
558,-0.100,-0.115
559,-0.130,-0.135
560,-0.160,-0.185
561,-0.170,-0.230
562,-0.165,-0.260
563,-0.150,-0.265
564,-0.135,-0.295
565,-0.150,-0.310
566,-0.165,-0.325
567,-0.150,-0.320
568,-0.160,-0.320
569,-0.155,-0.325
570,-0.155,-0.330
571,-0.155,-0.320
572,-0.145,-0.325
573,-0.160,-0.335
574,-0.145,-0.325
575,-0.150,-0.340
576,-0.140,-0.415
577,-0.080,-0.460
578,0.030,-0.395
579,0.200,-0.140
580,0.225,0.390
581,-0.080,0.455
582,-0.335,0.060
583,-0.240,-0.600
584,-0.155,-0.570
585,-0.150,-0.350
586,-0.130,-0.310
587,-0.140,-0.300
588,-0.155,-0.290
589,-0.120,-0.315
590,-0.140,-0.310
591,-0.150,-0.310
592,-0.140,-0.300
593,-0.130,-0.290
594,-0.140,-0.285
595,-0.130,-0.280
596,-0.135,-0.295
597,-0.130,-0.280
598,-0.145,-0.270
599,-0.135,-0.275
600,-0.130,-0.265
601,-0.130,-0.255
602,-0.140,-0.245
603,-0.145,-0.220
604,-0.135,-0.200
605,-0.140,-0.185
606,-0.140,-0.185
607,-0.145,-0.175
608,-0.130,-0.150
609,-0.135,-0.115
610,-0.120,-0.100
611,-0.120,-0.095
612,-0.110,-0.070
613,-0.110,-0.060
614,-0.105,-0.040
615,-0.100,-0.055
616,-0.075,-0.060
617,-0.095,-0.080
618,-0.080,-0.110
619,-0.080,-0.130
620,-0.095,-0.155
621,-0.100,-0.185
622,-0.095,-0.220
623,-0.115,-0.195
624,-0.110,-0.225
625,-0.120,-0.245
626,-0.115,-0.240
627,-0.115,-0.240
628,-0.120,-0.240
629,-0.110,-0.240
630,-0.115,-0.240
631,-0.100,-0.240
632,-0.105,-0.230
633,-0.115,-0.230
634,-0.110,-0.235
635,-0.100,-0.230
636,-0.115,-0.215
637,-0.110,-0.235
638,-0.115,-0.235
639,-0.105,-0.220
640,-0.110,-0.220
641,-0.120,-0.220
642,-0.125,-0.210
643,-0.120,-0.235
644,-0.125,-0.225
645,-0.120,-0.235
646,-0.120,-0.225
647,-0.100,-0.190
648,-0.070,-0.150
649,-0.080,-0.110
650,-0.060,-0.110
651,-0.090,-0.065
652,-0.135,-0.115
653,-0.165,-0.155
654,-0.165,-0.210
655,-0.160,-0.215
656,-0.165,-0.255
657,-0.165,-0.295
658,-0.150,-0.300
659,-0.175,-0.315
660,-0.155,-0.310
661,-0.165,-0.315
662,-0.145,-0.325
663,-0.160,-0.315
664,-0.160,-0.335
665,-0.160,-0.335
666,-0.155,-0.340
667,-0.165,-0.330
668,-0.145,-0.335
669,-0.160,-0.385
670,-0.095,-0.455
671,0.045,-0.400
672,0.255,-0.035
673,0.205,0.530
674,-0.020,0.395
675,-0.315,0.125
676,-0.350,-0.365
677,-0.190,-0.675
678,-0.160,-0.380
679,-0.160,-0.330
680,-0.165,-0.320
681,-0.170,-0.340
682,-0.165,-0.330
683,-0.190,-0.320
684,-0.160,-0.320
685,-0.155,-0.340
686,-0.160,-0.290
687,-0.165,-0.310
688,-0.160,-0.305
689,-0.160,-0.290
690,-0.160,-0.285
691,-0.175,-0.305
692,-0.165,-0.300
693,-0.175,-0.290
694,-0.150,-0.290
695,-0.160,-0.275
696,-0.155,-0.255
697,-0.140,-0.240
698,-0.155,-0.235
699,-0.155,-0.210
700,-0.140,-0.185
701,-0.155,-0.160
702,-0.145,-0.170
703,-0.135,-0.145
704,-0.135,-0.110
705,-0.135,-0.105
706,-0.105,-0.100
707,-0.110,-0.065
708,-0.095,-0.075
709,-0.090,-0.095
710,-0.070,-0.100
711,-0.070,-0.105
712,-0.085,-0.150
713,-0.080,-0.175
714,-0.100,-0.210
715,-0.105,-0.225
716,-0.100,-0.230
717,-0.105,-0.255
718,-0.110,-0.235
719,-0.105,-0.260
720,-0.110,-0.240
721,-0.095,-0.260
722,-0.100,-0.260
723,-0.090,-0.260
724,-0.100,-0.240
725,-0.090,-0.240
726,-0.085,-0.240
727,-0.080,-0.240
728,-0.080,-0.255
729,-0.090,-0.240
730,-0.085,-0.240
731,-0.090,-0.240
732,-0.090,-0.235
733,-0.100,-0.220
734,-0.095,-0.215
735,-0.105,-0.235
736,-0.095,-0.245
737,-0.105,-0.230
738,-0.095,-0.230
739,-0.125,-0.220
740,-0.120,-0.235
741,-0.100,-0.235
742,-0.065,-0.205
743,-0.065,-0.160
744,-0.060,-0.130
745,-0.040,-0.085
746,-0.060,-0.090
747,-0.090,-0.075
748,-0.115,-0.125
749,-0.155,-0.175
750,-0.140,-0.220
751,-0.140,-0.235
752,-0.130,-0.250
753,-0.130,-0.270
754,-0.130,-0.300
755,-0.140,-0.310
756,-0.135,-0.295
757,-0.130,-0.275
758,-0.130,-0.300
759,-0.125,-0.320
760,-0.125,-0.320
761,-0.130,-0.315
762,-0.125,-0.295
763,-0.110,-0.290
764,-0.130,-0.325
765,-0.105,-0.415
766,0.025,-0.415
767,0.240,-0.100
768,0.235,0.550
769,0.075,0.440
770,-0.205,0.100
771,-0.320,-0.285
772,-0.205,-0.765
773,-0.160,-0.480
774,-0.145,-0.315
775,-0.160,-0.320
776,-0.155,-0.305
777,-0.160,-0.310
778,-0.135,-0.325
779,-0.150,-0.315
780,-0.140,-0.325
781,-0.150,-0.300
782,-0.155,-0.320
783,-0.165,-0.300
784,-0.145,-0.325
785,-0.160,-0.305
786,-0.160,-0.290
787,-0.160,-0.290
788,-0.150,-0.280
789,-0.155,-0.270
790,-0.135,-0.275
791,-0.155,-0.245
792,-0.130,-0.235
793,-0.150,-0.215
794,-0.140,-0.205
795,-0.140,-0.195
796,-0.125,-0.180
797,-0.135,-0.155
798,-0.145,-0.150
799,-0.130,-0.110
800,-0.130,-0.095
801,-0.125,-0.070
802,-0.120,-0.070
803,-0.105,-0.065
804,-0.105,-0.080
805,-0.100,-0.090
806,-0.095,-0.105
807,-0.095,-0.135
808,-0.095,-0.160
809,-0.095,-0.180
810,-0.090,-0.215
811,-0.085,-0.220
812,-0.105,-0.230
813,-0.115,-0.270
814,-0.100,-0.270
815,-0.105,-0.250
816,-0.085,-0.240
817,-0.095,-0.260
818,-0.095,-0.245
819,-0.100,-0.250
820,-0.090,-0.260
821,-0.100,-0.250
822,-0.100,-0.225
823,-0.095,-0.240
824,-0.090,-0.235
825,-0.090,-0.225
826,-0.095,-0.210
827,-0.085,-0.210
828,-0.085,-0.205
829,-0.110,-0.225
830,-0.095,-0.235
831,-0.105,-0.215
832,-0.095,-0.220
833,-0.095,-0.215
834,-0.095,-0.220
835,-0.070,-0.215
836,-0.060,-0.200
837,-0.035,-0.165
838,-0.040,-0.105
839,-0.030,-0.080
840,-0.045,-0.080
841,-0.070,-0.080
842,-0.095,-0.120
843,-0.115,-0.150
844,-0.125,-0.215
845,-0.105,-0.240
846,-0.095,-0.255
847,-0.100,-0.265
848,-0.100,-0.280
849,-0.100,-0.290
850,-0.080,-0.285
851,-0.105,-0.295
852,-0.095,-0.270
853,-0.105,-0.305
854,-0.080,-0.290
855,-0.085,-0.295
856,-0.080,-0.295
857,-0.080,-0.285
858,-0.095,-0.305
859,-0.045,-0.410
860,0.055,-0.365
861,0.245,-0.045
862,0.280,0.670
863,0.070,0.615
864,-0.200,0.110
865,-0.260,-0.315
866,-0.165,-0.765
867,-0.125,-0.610
868,-0.110,-0.330
869,-0.110,-0.295
870,-0.115,-0.300
871,-0.125,-0.275
872,-0.105,-0.290
873,-0.110,-0.275
874,-0.090,-0.260
875,-0.090,-0.275
876,-0.110,-0.280
877,-0.105,-0.280
878,-0.100,-0.275
879,-0.090,-0.260
880,-0.105,-0.260
881,-0.105,-0.260
882,-0.100,-0.260
883,-0.090,-0.240
884,-0.095,-0.230
885,-0.095,-0.230
886,-0.095,-0.205
887,-0.100,-0.190
888,-0.100,-0.165
889,-0.095,-0.155
890,-0.095,-0.155
891,-0.105,-0.130
892,-0.105,-0.125
893,-0.100,-0.110
894,-0.105,-0.080
895,-0.080,-0.070
896,-0.095,-0.075
897,-0.065,-0.080
898,-0.060,-0.075
899,-0.040,-0.080
900,-0.040,-0.080
901,-0.055,-0.115
902,-0.060,-0.150
903,-0.060,-0.175
904,-0.060,-0.195
905,-0.070,-0.225
906,-0.070,-0.225
907,-0.080,-0.235
908,-0.085,-0.235
909,-0.075,-0.235
910,-0.085,-0.240
911,-0.075,-0.240
912,-0.060,-0.250
913,-0.090,-0.250
914,-0.060,-0.225
915,-0.080,-0.225
916,-0.055,-0.225
917,-0.065,-0.215
918,-0.080,-0.215
919,-0.070,-0.205
920,-0.060,-0.205
921,-0.060,-0.185
922,-0.075,-0.185
923,-0.070,-0.190
924,-0.050,-0.210
925,-0.045,-0.210
926,-0.075,-0.210
927,-0.075,-0.210
928,-0.070,-0.215
929,-0.055,-0.200
930,-0.045,-0.205
931,-0.010,-0.160
932,-0.010,-0.125
933,0.000,-0.090
934,-0.005,-0.095
935,-0.020,-0.080
936,-0.060,-0.095
937,-0.090,-0.140
938,-0.100,-0.200
939,-0.070,-0.235
940,-0.080,-0.215
941,-0.075,-0.270
942,-0.085,-0.300
943,-0.080,-0.300
944,-0.080,-0.285
945,-0.085,-0.295
946,-0.080,-0.290
947,-0.080,-0.300
948,-0.085,-0.300
949,-0.075,-0.305
950,-0.070,-0.300
951,-0.070,-0.300
952,-0.075,-0.315
953,-0.075,-0.335
954,-0.015,-0.425
955,0.125,-0.355
956,0.335,0.065
957,0.225,0.685
958,-0.085,0.365
959,-0.300,0.080
960,-0.245,-0.540
961,-0.100,-0.700
962,-0.080,-0.380
963,-0.075,-0.300
964,-0.080,-0.280
965,-0.070,-0.280
966,-0.070,-0.285
967,-0.050,-0.275
968,-0.065,-0.265
969,-0.070,-0.255
970,-0.065,-0.265
971,-0.060,-0.255
972,-0.065,-0.255
973,-0.055,-0.250
974,-0.055,-0.245
975,-0.050,-0.235
976,-0.050,-0.245
977,-0.035,-0.225
978,-0.055,-0.215
979,-0.045,-0.215
980,-0.015,-0.185
981,-0.030,-0.165
982,-0.035,-0.160
983,-0.035,-0.135
984,-0.030,-0.120
985,-0.050,-0.090
986,-0.050,-0.075
987,-0.045,-0.065
988,-0.040,-0.050
989,-0.045,-0.030
990,-0.040,-0.015
991,-0.025,-0.020
992,-0.020,-0.020
993,0.000,-0.040
994,-0.005,-0.035
995,-0.005,-0.060
996,-0.020,-0.100
997,-0.020,-0.125
998,-0.020,-0.155
999,-0.015,-0.165
1000,-0.025,-0.180
1001,-0.010,-0.190
1002,-0.015,-0.185
1003,-0.020,-0.205
1004,-0.020,-0.210
1005,-0.035,-0.200
1006,-0.015,-0.200
1007,-0.025,-0.210
1008,-0.020,-0.185
1009,-0.020,-0.195
1010,-0.025,-0.200
1011,-0.010,-0.190
1012,-0.015,-0.190
1013,-0.020,-0.185
1014,-0.020,-0.175
1015,-0.030,-0.180
1016,-0.020,-0.170
1017,-0.010,-0.160
1018,-0.045,-0.155
1019,-0.025,-0.160
1020,-0.025,-0.165
1021,-0.035,-0.170
1022,-0.025,-0.170
1023,-0.050,-0.165
1024,-0.035,-0.155
1025,0.000,-0.155
1026,0.010,-0.100
1027,0.030,-0.045
1028,0.020,-0.055
1029,0.005,-0.050
1030,-0.025,-0.055
1031,-0.060,-0.095
1032,-0.080,-0.145
1033,-0.070,-0.190
1034,-0.055,-0.200
1035,-0.075,-0.225
1036,-0.065,-0.245
1037,-0.065,-0.265
1038,-0.055,-0.265
1039,-0.065,-0.260
1040,-0.055,-0.260
1041,-0.070,-0.265
1042,-0.070,-0.275
1043,-0.065,-0.280
1044,-0.065,-0.275
1045,-0.060,-0.265
1046,-0.065,-0.275
1047,-0.065,-0.290
1048,-0.040,-0.390
1049,0.105,-0.370
1050,0.345,-0.075
1051,0.260,0.545
1052,-0.010,0.445
1053,-0.235,0.230
1054,-0.305,-0.240
1055,-0.135,-0.640
1056,-0.065,-0.390
1057,-0.090,-0.290
1058,-0.075,-0.265
1059,-0.075,-0.265
1060,-0.070,-0.295
1061,-0.070,-0.275
1062,-0.075,-0.270
1063,-0.080,-0.285
1064,-0.070,-0.270
1065,-0.075,-0.275
1066,-0.065,-0.275
1067,-0.060,-0.275
1068,-0.095,-0.265
1069,-0.060,-0.270
1070,-0.085,-0.250
1071,-0.075,-0.240
1072,-0.075,-0.245
1073,-0.075,-0.220
1074,-0.055,-0.220
1075,-0.060,-0.200
1076,-0.060,-0.170
1077,-0.040,-0.160
1078,-0.050,-0.150
1079,-0.050,-0.145
1080,-0.050,-0.110
1081,-0.055,-0.095
1082,-0.045,-0.080
1083,-0.055,-0.050
1084,-0.030,-0.055
1085,-0.025,-0.045
1086,-0.025,-0.040
1087,-0.010,-0.070
1088,-0.005,-0.075
1089,0.000,-0.085
1090,-0.010,-0.095
1091,-0.015,-0.125
1092,-0.005,-0.155
1093,-0.030,-0.175
1094,-0.015,-0.175
1095,-0.005,-0.185
1096,-0.025,-0.180
1097,-0.010,-0.200
1098,-0.020,-0.195
1099,0.000,-0.200
1100,-0.010,-0.215
1101,-0.005,-0.200
1102,0.000,-0.190
1103,-0.015,-0.200
1104,0.000,-0.200
1105,-0.010,-0.175
1106,0.000,-0.170
1107,0.000,-0.185
1108,0.005,-0.170
1109,-0.005,-0.175
1110,0.000,-0.175
1111,-0.005,-0.155
1112,0.005,-0.160
1113,0.000,-0.170
1114,0.000,-0.170
1115,0.000,-0.170
1116,0.000,-0.165
1117,-0.010,-0.160
1118,-0.010,-0.170
1119,-0.010,-0.165
1120,0.005,-0.150
1121,0.010,-0.125
1122,0.030,-0.100
1123,0.040,-0.065
1124,0.040,-0.040
1125,0.035,-0.025
1126,0.000,-0.055
1127,-0.040,-0.085
1128,-0.045,-0.135
1129,-0.030,-0.170
1130,-0.025,-0.165
1131,-0.020,-0.190
1132,-0.025,-0.205
1133,-0.025,-0.225
1134,-0.020,-0.240
1135,-0.030,-0.245
1136,-0.020,-0.245
1137,-0.015,-0.230
1138,-0.025,-0.245
1139,-0.015,-0.260
1140,-0.015,-0.255
1141,-0.010,-0.255
1142,-0.010,-0.260
1143,-0.030,-0.320
1144,0.035,-0.380
1145,0.200,-0.290
1146,0.435,0.125
1147,0.430,0.700
1148,0.100,0.665
1149,-0.225,0.155
1150,-0.170,-0.530
1151,-0.045,-0.595
1152,-0.030,-0.275
1153,-0.040,-0.265
1154,-0.045,-0.250
1155,-0.035,-0.280
1156,-0.050,-0.260
1157,-0.055,-0.265
1158,-0.060,-0.260
1159,-0.045,-0.260
1160,-0.050,-0.255
1161,-0.045,-0.250
1162,-0.055,-0.250
1163,-0.045,-0.255
1164,-0.055,-0.240
1165,-0.060,-0.230
1166,-0.045,-0.230
1167,-0.055,-0.220
1168,-0.065,-0.210
1169,-0.045,-0.215
1170,-0.050,-0.195
1171,-0.050,-0.175
1172,-0.050,-0.160
1173,-0.055,-0.150
1174,-0.055,-0.125
1175,-0.055,-0.110
1176,-0.060,-0.095
1177,-0.045,-0.075
1178,-0.055,-0.055
1179,-0.060,-0.055
1180,-0.055,-0.040
1181,-0.040,-0.030
1182,-0.030,-0.030
1183,-0.010,-0.025
1184,-0.015,-0.055
1185,-0.010,-0.070
1186,-0.010,-0.105
1187,-0.020,-0.135
1188,-0.030,-0.165
1189,-0.020,-0.175
1190,-0.045,-0.200
1191,-0.030,-0.205
1192,-0.055,-0.205
1193,-0.050,-0.210
1194,-0.040,-0.225
1195,-0.050,-0.205
1196,-0.045,-0.190
1197,-0.020,-0.200
1198,-0.030,-0.190
1199,-0.025,-0.205
1200,-0.035,-0.180
1201,-0.035,-0.205
1202,-0.040,-0.175
1203,-0.040,-0.190
1204,-0.050,-0.185
1205,-0.050,-0.170
1206,-0.030,-0.140
1207,-0.035,-0.160
1208,-0.055,-0.150
1209,-0.055,-0.180
1210,-0.050,-0.180
1211,-0.055,-0.170
1212,-0.055,-0.190
1213,-0.070,-0.200
1214,-0.050,-0.195
1215,-0.060,-0.185
1216,-0.040,-0.170
1217,0.000,-0.140
1218,-0.005,-0.070
1219,-0.005,-0.060
1220,-0.020,-0.040
1221,-0.055,-0.060
1222,-0.095,-0.095
1223,-0.135,-0.170
1224,-0.115,-0.195
1225,-0.085,-0.205
1226,-0.085,-0.225
1227,-0.085,-0.210
1228,-0.075,-0.225
1229,-0.085,-0.250
1230,-0.095,-0.250
1231,-0.090,-0.250
1232,-0.085,-0.285
1233,-0.075,-0.265
1234,-0.085,-0.235
1235,-0.075,-0.265
1236,-0.080,-0.260
1237,-0.085,-0.245
1238,-0.090,-0.320
1239,-0.025,-0.385
1240,0.045,-0.310
1241,0.210,-0.085
1242,0.290,0.570
1243,0.060,0.615
1244,-0.220,0.100
1245,-0.200,-0.575
1246,-0.125,-0.695
1247,-0.110,-0.380
1248,-0.115,-0.275
1249,-0.125,-0.250
1250,-0.125,-0.255
1251,-0.120,-0.245
1252,-0.125,-0.260
1253,-0.125,-0.270
1254,-0.120,-0.250
1255,-0.120,-0.250
1256,-0.125,-0.235
1257,-0.110,-0.230
1258,-0.115,-0.225
1259,-0.120,-0.235
1260,-0.115,-0.230
1261,-0.120,-0.235
1262,-0.110,-0.210
1263,-0.105,-0.195
1264,-0.110,-0.185
1265,-0.120,-0.175
1266,-0.125,-0.170
1267,-0.115,-0.160
1268,-0.110,-0.140
1269,-0.105,-0.125
1270,-0.115,-0.110
1271,-0.120,-0.095
1272,-0.110,-0.085
1273,-0.130,-0.060
1274,-0.120,-0.050
1275,-0.120,-0.045
1276,-0.115,-0.030
1277,-0.100,-0.050
1278,-0.095,-0.045
1279,-0.075,-0.030
1280,-0.070,-0.080
1281,-0.085,-0.090
1282,-0.075,-0.110
1283,-0.095,-0.125
1284,-0.100,-0.155
1285,-0.095,-0.180
1286,-0.120,-0.200
1287,-0.105,-0.210
1288,-0.110,-0.200
1289,-0.110,-0.200
1290,-0.120,-0.205
1291,-0.120,-0.220
1292,-0.120,-0.205
1293,-0.130,-0.205
1294,-0.125,-0.205
1295,-0.135,-0.200
1296,-0.140,-0.195
1297,-0.130,-0.175
1298,-0.150,-0.165
1299,-0.145,-0.180
1300,-0.170,-0.160
1301,-0.165,-0.165
1302,-0.155,-0.170
1303,-0.185,-0.210
1304,-0.180,-0.190
1305,-0.180,-0.185
1306,-0.195,-0.195
1307,-0.195,-0.220
1308,-0.190,-0.210
1309,-0.200,-0.205
1310,-0.200,-0.210
1311,-0.190,-0.210
1312,-0.160,-0.185
1313,-0.150,-0.150
1314,-0.150,-0.105
1315,-0.135,-0.085
1316,-0.160,-0.060
1317,-0.185,-0.085
1318,-0.215,-0.140
1319,-0.220,-0.200
1320,-0.215,-0.240
1321,-0.205,-0.250
1322,-0.215,-0.270
1323,-0.210,-0.295
1324,-0.210,-0.310
1325,-0.215,-0.285
1326,-0.220,-0.295
1327,-0.190,-0.310
1328,-0.215,-0.310
1329,-0.210,-0.305
1330,-0.205,-0.320
1331,-0.200,-0.320
1332,-0.195,-0.315
1333,-0.195,-0.325
1334,-0.195,-0.375
1335,-0.115,-0.435
1336,0.035,-0.275
1337,0.200,0.230
1338,0.065,0.660
1339,-0.260,0.205
1340,-0.350,-0.305
1341,-0.270,-0.790
1342,-0.245,-0.755
1343,-0.235,-0.425
1344,-0.210,-0.320
1345,-0.230,-0.310
1346,-0.220,-0.315
1347,-0.210,-0.300
1348,-0.215,-0.300
1349,-0.210,-0.295
1350,-0.200,-0.305
1351,-0.210,-0.300
1352,-0.195,-0.295
1353,-0.185,-0.285
1354,-0.200,-0.285
1355,-0.200,-0.280
1356,-0.195,-0.270
1357,-0.195,-0.260
1358,-0.190,-0.255
1359,-0.185,-0.245
1360,-0.180,-0.235
1361,-0.175,-0.220
1362,-0.185,-0.205
1363,-0.190,-0.200
1364,-0.180,-0.165
1365,-0.180,-0.155
1366,-0.175,-0.145
1367,-0.175,-0.125
1368,-0.185,-0.115
1369,-0.175,-0.095
1370,-0.160,-0.085
1371,-0.160,-0.075
1372,-0.145,-0.070
1373,-0.150,-0.085
1374,-0.125,-0.100
1375,-0.105,-0.100
1376,-0.120,-0.110
1377,-0.135,-0.135
1378,-0.130,-0.160
1379,-0.130,-0.175
1380,-0.125,-0.200
1381,-0.155,-0.210
1382,-0.160,-0.225
1383,-0.145,-0.230
1384,-0.135,-0.230
1385,-0.135,-0.235
1386,-0.140,-0.235
1387,-0.140,-0.235
1388,-0.135,-0.230
1389,-0.135,-0.235
1390,-0.140,-0.230
1391,-0.130,-0.210
1392,-0.140,-0.205
1393,-0.145,-0.190
1394,-0.140,-0.200
1395,-0.150,-0.195
1396,-0.135,-0.205
1397,-0.140,-0.195
1398,-0.135,-0.195
1399,-0.140,-0.190
1400,-0.140,-0.185
1401,-0.145,-0.180
1402,-0.140,-0.220
1403,-0.140,-0.210
1404,-0.140,-0.210
1405,-0.125,-0.200
1406,-0.155,-0.205
1407,-0.150,-0.235
1408,-0.115,-0.200
1409,-0.105,-0.155
1410,-0.085,-0.145
1411,-0.080,-0.085
1412,-0.080,-0.095
1413,-0.120,-0.070
1414,-0.155,-0.120
1415,-0.175,-0.175
1416,-0.165,-0.220
1417,-0.160,-0.235
1418,-0.165,-0.210
1419,-0.165,-0.250
1420,-0.175,-0.295
1421,-0.170,-0.290
1422,-0.160,-0.295
1423,-0.160,-0.280
1424,-0.175,-0.300
1425,-0.160,-0.290
1426,-0.160,-0.300
1427,-0.165,-0.300
1428,-0.155,-0.305
1429,-0.165,-0.295
1430,-0.160,-0.340
1431,-0.135,-0.425
1432,0.000,-0.395
1433,0.245,-0.070
1434,0.325,0.565
1435,0.020,0.685
1436,-0.320,0.240
1437,-0.330,-0.430
1438,-0.200,-0.645
1439,-0.160,-0.370
1440,-0.185,-0.310
1441,-0.185,-0.315
1442,-0.170,-0.300
1443,-0.175,-0.310
1444,-0.170,-0.310
1445,-0.150,-0.315
1446,-0.175,-0.305
1447,-0.140,-0.300
1448,-0.140,-0.285
1449,-0.135,-0.290
1450,-0.160,-0.290
1451,-0.135,-0.280
1452,-0.170,-0.280
1453,-0.155,-0.270
1454,-0.140,-0.265
1455,-0.130,-0.255
1456,-0.130,-0.250
1457,-0.130,-0.230
1458,-0.140,-0.215
1459,-0.130,-0.210
1460,-0.130,-0.205
1461,-0.140,-0.185
1462,-0.130,-0.175
1463,-0.110,-0.145
1464,-0.110,-0.130
1465,-0.125,-0.110
1466,-0.100,-0.090
1467,-0.110,-0.065
1468,-0.100,-0.075
1469,-0.075,-0.070
1470,-0.075,-0.055
1471,-0.080,-0.090
1472,-0.065,-0.125
1473,-0.070,-0.115
1474,-0.075,-0.155
1475,-0.080,-0.185
1476,-0.085,-0.200
1477,-0.085,-0.205
1478,-0.105,-0.225
1479,-0.100,-0.220
1480,-0.085,-0.220
1481,-0.080,-0.235
1482,-0.085,-0.240
1483,-0.090,-0.230
1484,-0.085,-0.235
1485,-0.065,-0.220
1486,-0.070,-0.210
1487,-0.075,-0.225
1488,-0.075,-0.205
1489,-0.075,-0.210
1490,-0.065,-0.210
1491,-0.070,-0.205
1492,-0.060,-0.205
1493,-0.055,-0.200
1494,-0.040,-0.185
1495,-0.045,-0.205
1496,-0.075,-0.215
1497,-0.070,-0.210
1498,-0.070,-0.190
1499,-0.055,-0.205
1500,-0.070,-0.210
1501,-0.060,-0.215
1502,-0.060,-0.200
1503,-0.060,-0.195
1504,-0.030,-0.180
1505,0.000,-0.120
1506,-0.005,-0.095
1507,-0.010,-0.075
1508,-0.045,-0.055
1509,-0.060,-0.085
1510,-0.080,-0.125
1511,-0.110,-0.165
1512,-0.080,-0.205
1513,-0.090,-0.225
1514,-0.105,-0.260
1515,-0.080,-0.275
1516,-0.090,-0.280
1517,-0.080,-0.285
1518,-0.105,-0.285
1519,-0.085,-0.285
1520,-0.100,-0.280
1521,-0.080,-0.290
1522,-0.085,-0.275
1523,-0.085,-0.285
1524,-0.085,-0.300
1525,-0.100,-0.315
1526,-0.095,-0.415
1527,-0.050,-0.430
1528,0.105,-0.360
1529,0.315,0.015
1530,0.180,0.520
1531,-0.185,0.300
1532,-0.335,-0.155
1533,-0.155,-0.640
1534,-0.085,-0.410
1535,-0.090,-0.310
1536,-0.105,-0.300
1537,-0.110,-0.300
1538,-0.095,-0.295
1539,-0.095,-0.295
1540,-0.115,-0.285
1541,-0.090,-0.305
1542,-0.105,-0.305
1543,-0.090,-0.290
1544,-0.105,-0.290
1545,-0.105,-0.280
1546,-0.100,-0.275
1547,-0.085,-0.270
1548,-0.100,-0.285
1549,-0.090,-0.275
1550,-0.100,-0.265
1551,-0.090,-0.255
1552,-0.080,-0.215
1553,-0.105,-0.230
1554,-0.090,-0.220
1555,-0.095,-0.200
1556,-0.100,-0.200
1557,-0.095,-0.180
1558,-0.090,-0.165
1559,-0.090,-0.145
1560,-0.075,-0.120
1561,-0.100,-0.115
1562,-0.080,-0.105
1563,-0.075,-0.090
1564,-0.050,-0.080
1565,-0.045,-0.080
1566,-0.035,-0.085
1567,-0.040,-0.100
1568,-0.040,-0.115
1569,-0.030,-0.140
1570,-0.045,-0.160
1571,-0.055,-0.190
1572,-0.065,-0.235
1573,-0.055,-0.235
1574,-0.065,-0.235
1575,-0.045,-0.250
1576,-0.050,-0.255
1577,-0.045,-0.260
1578,-0.065,-0.265
1579,-0.065,-0.250
1580,-0.055,-0.250
1581,-0.045,-0.265
1582,-0.050,-0.250
1583,-0.060,-0.245
1584,-0.055,-0.225
1585,-0.055,-0.235
1586,-0.050,-0.245
1587,-0.050,-0.225
1588,-0.055,-0.230
1589,-0.045,-0.220
1590,-0.030,-0.220
1591,-0.040,-0.220
1592,-0.055,-0.220
1593,-0.045,-0.235
1594,-0.035,-0.235
1595,-0.065,-0.230
1596,-0.060,-0.220
1597,-0.065,-0.220
1598,-0.035,-0.205
1599,-0.005,-0.190
1600,0.015,-0.130
1601,0.000,-0.085
1602,0.000,-0.115
1603,0.000,-0.075
1604,-0.050,-0.095
1605,-0.080,-0.135
1606,-0.095,-0.205
1607,-0.050,-0.245
1608,-0.055,-0.250
1609,-0.055,-0.255
1610,-0.075,-0.280
1611,-0.055,-0.285
1612,-0.070,-0.285
1613,-0.060,-0.275
1614,-0.060,-0.285
1615,-0.065,-0.280
1616,-0.055,-0.280
1617,-0.045,-0.290
1618,-0.050,-0.280
1619,-0.040,-0.285
1620,-0.055,-0.310
1621,-0.050,-0.340
1622,0.010,-0.420
1623,0.195,-0.280
1624,0.380,0.170
1625,0.235,0.650
1626,-0.050,0.285
1627,-0.240,0.030
1628,-0.200,-0.510
1629,-0.080,-0.705
1630,-0.060,-0.375
1631,-0.050,-0.295
1632,-0.065,-0.280
1633,-0.050,-0.280
1634,-0.065,-0.280
1635,-0.070,-0.255
1636,-0.075,-0.285
1637,-0.065,-0.270
1638,-0.060,-0.270
1639,-0.055,-0.270
1640,-0.060,-0.280
1641,-0.060,-0.250
1642,-0.060,-0.240
1643,-0.060,-0.255
1644,-0.050,-0.230
1645,-0.055,-0.240
1646,-0.050,-0.225
1647,-0.060,-0.210
1648,-0.040,-0.185
1649,-0.050,-0.165
1650,-0.040,-0.165
1651,-0.050,-0.155
1652,-0.025,-0.125
1653,-0.040,-0.120
1654,-0.065,-0.110
1655,-0.035,-0.095
1656,-0.040,-0.090
1657,-0.040,-0.060
1658,-0.035,-0.055
1659,-0.040,-0.035
1660,-0.045,-0.055
1661,0.000,-0.030
1662,0.000,-0.055
1663,-0.005,-0.075
1664,-0.020,-0.085
1665,-0.010,-0.105
1666,0.000,-0.140
1667,-0.025,-0.160
1668,-0.005,-0.185
1669,-0.015,-0.205
1670,-0.010,-0.200
1671,-0.025,-0.190
1672,-0.020,-0.210
1673,-0.020,-0.195
1674,-0.035,-0.205
1675,-0.035,-0.200
1676,-0.040,-0.190
1677,-0.025,-0.170
1678,-0.035,-0.175
1679,-0.035,-0.170
1680,-0.015,-0.165
1681,-0.050,-0.160
1682,-0.040,-0.170
1683,-0.060,-0.165
1684,-0.035,-0.130
1685,-0.050,-0.160
1686,-0.045,-0.155
1687,-0.055,-0.155
1688,-0.040,-0.165
1689,-0.045,-0.190
1690,-0.055,-0.175
1691,-0.065,-0.175
1692,-0.055,-0.200
1693,-0.060,-0.170
1694,-0.060,-0.175
1695,-0.055,-0.190
1696,-0.015,-0.185
1697,-0.005,-0.135
1698,0.010,-0.075
1699,-0.005,-0.070
1700,-0.010,-0.045
1701,-0.050,-0.065
1702,-0.060,-0.105
1703,-0.075,-0.115
1704,-0.070,-0.165
1705,-0.050,-0.200
1706,-0.065,-0.210
1707,-0.060,-0.265
1708,-0.070,-0.265
1709,-0.065,-0.265
1710,-0.075,-0.260
1711,-0.065,-0.270
1712,-0.070,-0.265
1713,-0.070,-0.260
1714,-0.080,-0.285
1715,-0.065,-0.260
1716,-0.065,-0.265
1717,-0.065,-0.290
1718,-0.065,-0.370
1719,-0.010,-0.425
1720,0.110,-0.340
1721,0.275,0.015
1722,0.280,0.670
1723,0.005,0.475
1724,-0.220,-0.035
1725,-0.125,-0.670
1726,-0.100,-0.640
1727,-0.070,-0.345
1728,-0.075,-0.275
1729,-0.090,-0.275
1730,-0.080,-0.285
1731,-0.085,-0.280
1732,-0.070,-0.295
1733,-0.070,-0.270
1734,-0.065,-0.280
1735,-0.080,-0.285
1736,-0.065,-0.265
1737,-0.070,-0.260
1738,-0.055,-0.260
1739,-0.060,-0.255
1740,-0.060,-0.260
1741,-0.060,-0.250
1742,-0.055,-0.245
1743,-0.050,-0.240
1744,-0.055,-0.220
1745,-0.050,-0.205
1746,-0.040,-0.195
1747,-0.060,-0.205
1748,-0.050,-0.180
1749,-0.040,-0.150
1750,-0.030,-0.140
1751,-0.040,-0.120
1752,-0.040,-0.130
1753,-0.025,-0.120
1754,-0.030,-0.090
1755,-0.035,-0.075
1756,-0.020,-0.075
1757,-0.010,-0.070
1758,0.000,-0.060
1759,0.005,-0.070
1760,0.000,-0.095
1761,0.005,-0.105
1762,0.005,-0.120
1763,0.005,-0.165
1764,-0.005,-0.170
1765,-0.015,-0.185
1766,-0.015,-0.200
1767,-0.015,-0.210
1768,-0.010,-0.220
1769,-0.005,-0.220
1770,-0.010,-0.210
1771,0.000,-0.215
1772,-0.005,-0.210
1773,-0.005,-0.205
1774,-0.010,-0.190
1775,-0.005,-0.180
1776,-0.005,-0.185
1777,-0.010,-0.180
1778,-0.005,-0.190
1779,-0.010,-0.180
1780,-0.005,-0.150
1781,-0.005,-0.165
1782,-0.020,-0.160
1783,-0.025,-0.160
1784,-0.015,-0.160
1785,-0.030,-0.185
1786,-0.020,-0.190
1787,-0.015,-0.195
1788,-0.015,-0.195
1789,-0.025,-0.195
1790,-0.010,-0.195
1791,-0.005,-0.200
1792,0.010,-0.165
1793,0.005,-0.145
1794,0.035,-0.095
1795,0.020,-0.070
1796,0.025,-0.080
1797,0.000,-0.055
1798,-0.025,-0.095
1799,-0.060,-0.115
1800,-0.065,-0.175
1801,-0.055,-0.190
1802,-0.055,-0.215
1803,-0.055,-0.235
1804,-0.060,-0.255
1805,-0.070,-0.260
1806,-0.070,-0.265
1807,-0.070,-0.280
1808,-0.075,-0.280
1809,-0.050,-0.260
1810,-0.080,-0.260
1811,-0.080,-0.255
1812,-0.085,-0.280
1813,-0.075,-0.290
1814,-0.085,-0.295
1815,-0.055,-0.380
1816,0.045,-0.395
1817,0.250,-0.195
1818,0.420,0.355
1819,0.255,0.765
1820,-0.095,0.435
1821,-0.290,-0.070
1822,-0.160,-0.630
1823,-0.075,-0.495
1824,-0.085,-0.295
1825,-0.090,-0.300
1826,-0.085,-0.290
1827,-0.100,-0.265
1828,-0.080,-0.280
1829,-0.080,-0.265
1830,-0.070,-0.270
1831,-0.085,-0.280
1832,-0.080,-0.275
1833,-0.085,-0.260
1834,-0.060,-0.260
1835,-0.065,-0.245
1836,-0.060,-0.250
1837,-0.090,-0.260
1838,-0.080,-0.230
1839,-0.075,-0.230
1840,-0.080,-0.225
1841,-0.070,-0.210
1842,-0.075,-0.190
1843,-0.070,-0.195
1844,-0.080,-0.190
1845,-0.075,-0.160
1846,-0.070,-0.150
1847,-0.060,-0.140
1848,-0.065,-0.130
1849,-0.070,-0.105
1850,-0.050,-0.080
1851,-0.070,-0.090
1852,-0.050,-0.055
1853,-0.045,-0.070
1854,-0.035,-0.065
1855,-0.010,-0.075
1856,-0.005,-0.090
1857,-0.020,-0.095
1858,-0.015,-0.125
1859,-0.030,-0.155
1860,-0.025,-0.145
1861,-0.025,-0.175
1862,-0.030,-0.195
1863,-0.025,-0.205
1864,-0.035,-0.205
1865,-0.030,-0.225
1866,-0.025,-0.205
1867,-0.035,-0.220
1868,-0.015,-0.225
1869,-0.025,-0.195
1870,-0.015,-0.205
1871,-0.025,-0.205
1872,-0.030,-0.205
1873,-0.015,-0.185
1874,-0.010,-0.170
1875,-0.015,-0.160
1876,-0.015,-0.185
1877,0.000,-0.175
1878,-0.015,-0.165
1879,-0.010,-0.170
1880,-0.005,-0.155
1881,-0.020,-0.165
1882,-0.010,-0.165
1883,-0.010,-0.175
1884,-0.020,-0.165
1885,0.000,-0.190
1886,-0.015,-0.170
1887,-0.015,-0.170
1888,-0.010,-0.185
1889,-0.005,-0.185
1890,0.000,-0.150
1891,0.025,-0.135
1892,0.035,-0.065
1893,0.025,-0.075
1894,0.020,-0.055
1895,-0.005,-0.050
1896,-0.050,-0.080
1897,-0.065,-0.135
1898,-0.060,-0.190
1899,-0.045,-0.205
1900,-0.060,-0.225
1901,-0.070,-0.255
1902,-0.070,-0.280
1903,-0.060,-0.270
1904,-0.060,-0.280
1905,-0.060,-0.275
1906,-0.060,-0.275
1907,-0.050,-0.265
1908,-0.045,-0.270
1909,-0.055,-0.270
1910,-0.050,-0.275
1911,-0.055,-0.285
1912,-0.045,-0.330
1913,0.015,-0.390
1914,0.180,-0.295
1915,0.370,0.085
1916,0.225,0.565
1917,0.000,0.325
1918,-0.265,0.140
1919,-0.205,-0.520
1920,-0.070,-0.540
1921,-0.055,-0.300
1922,-0.075,-0.270
1923,-0.050,-0.255
1924,-0.060,-0.245
1925,-0.080,-0.260
1926,-0.070,-0.265
1927,-0.070,-0.250
1928,-0.065,-0.250
1929,-0.070,-0.255
1930,-0.080,-0.260
1931,-0.070,-0.235
1932,-0.070,-0.240
1933,-0.060,-0.250
1934,-0.070,-0.240
1935,-0.060,-0.240
1936,-0.075,-0.225
1937,-0.065,-0.225
1938,-0.060,-0.195
1939,-0.050,-0.190
1940,-0.065,-0.175
1941,-0.055,-0.175
1942,-0.060,-0.155
1943,-0.050,-0.160
1944,-0.075,-0.150
1945,-0.060,-0.095
1946,-0.060,-0.115
1947,-0.055,-0.090
1948,-0.050,-0.080
1949,-0.035,-0.050
1950,-0.035,-0.040
1951,-0.025,-0.050
1952,-0.010,-0.055
1953,-0.025,-0.065
1954,-0.010,-0.095
1955,-0.030,-0.115
1956,-0.030,-0.140
1957,-0.030,-0.165
1958,-0.045,-0.170
1959,-0.040,-0.175
1960,-0.055,-0.205
1961,-0.065,-0.220
1962,-0.040,-0.215
1963,-0.045,-0.205
1964,-0.045,-0.225
1965,-0.055,-0.215
1966,-0.035,-0.210
1967,-0.050,-0.220
1968,-0.040,-0.200
1969,-0.050,-0.195
1970,-0.045,-0.180
1971,-0.040,-0.205
1972,-0.040,-0.175
1973,-0.035,-0.175
1974,-0.035,-0.170
1975,-0.035,-0.175
1976,-0.045,-0.185
1977,-0.040,-0.180
1978,-0.035,-0.180
1979,-0.045,-0.180
1980,-0.040,-0.190
1981,-0.040,-0.200
1982,-0.050,-0.200
1983,-0.040,-0.190
1984,-0.060,-0.215
1985,-0.040,-0.200
1986,-0.015,-0.190
1987,0.010,-0.160
1988,0.015,-0.090
1989,0.015,-0.085
1990,0.005,-0.060
1991,-0.020,-0.030
1992,-0.045,-0.070
1993,-0.085,-0.120
1994,-0.075,-0.190
1995,-0.070,-0.205
1996,-0.060,-0.225
1997,-0.080,-0.235
1998,-0.065,-0.270
1999,-0.075,-0.280
2000,-0.075,-0.265
2001,-0.075,-0.270
2002,-0.070,-0.260
2003,-0.060,-0.255
2004,-0.045,-0.270
2005,-0.060,-0.265
2006,-0.035,-0.260
2007,-0.045,-0.230
2008,-0.050,-0.275
2009,-0.030,-0.370
2010,0.080,-0.370
2011,0.285,-0.110
2012,0.335,0.475
2013,0.045,0.475
2014,-0.215,0.160
2015,-0.265,-0.260
2016,-0.125,-0.700
2017,-0.065,-0.460
2018,-0.070,-0.280
2019,-0.065,-0.260
2020,-0.080,-0.275
2021,-0.075,-0.265
2022,-0.065,-0.265
2023,-0.060,-0.255
2024,-0.070,-0.260
2025,-0.065,-0.260
2026,-0.065,-0.250
2027,-0.045,-0.245
2028,-0.065,-0.245
2029,-0.075,-0.255
2030,-0.075,-0.245
2031,-0.060,-0.240
2032,-0.065,-0.225
2033,-0.045,-0.215
2034,-0.055,-0.205
2035,-0.055,-0.200
2036,-0.055,-0.190
2037,-0.045,-0.155
2038,-0.055,-0.165
2039,-0.050,-0.130
2040,-0.035,-0.130
2041,-0.040,-0.115
2042,-0.045,-0.100
2043,-0.050,-0.090
2044,-0.050,-0.080
2045,-0.030,-0.065
2046,-0.030,-0.050
2047,-0.020,-0.065
2048,-0.005,-0.030
2049,0.000,-0.055
2050,0.000,-0.060
2051,-0.020,-0.090
2052,-0.010,-0.110
2053,-0.015,-0.125
2054,-0.025,-0.185
2055,-0.020,-0.200
2056,-0.015,-0.195
2057,-0.025,-0.170
2058,-0.025,-0.200
2059,-0.030,-0.205
2060,-0.015,-0.210
2061,-0.015,-0.190
2062,-0.035,-0.185
2063,-0.040,-0.170
2064,-0.040,-0.180
2065,-0.040,-0.175
2066,-0.035,-0.160
2067,-0.050,-0.165
2068,-0.040,-0.150
2069,-0.040,-0.140
2070,-0.045,-0.150
2071,-0.040,-0.135
2072,-0.050,-0.170
2073,-0.050,-0.155
2074,-0.055,-0.155
2075,-0.055,-0.165
2076,-0.050,-0.165
2077,-0.045,-0.195
2078,-0.070,-0.205
2079,-0.055,-0.180
2080,-0.070,-0.185
2081,-0.050,-0.165
2082,-0.015,-0.120
2083,0.000,-0.065
2084,-0.010,-0.060
2085,-0.015,-0.045
2086,-0.045,-0.055
2087,-0.075,-0.080
2088,-0.095,-0.115
2089,-0.095,-0.195
2090,-0.080,-0.195
2091,-0.080,-0.220
2092,-0.065,-0.255
2093,-0.060,-0.260
2094,-0.060,-0.270
2095,-0.070,-0.275
2096,-0.075,-0.275
2097,-0.075,-0.270
2098,-0.080,-0.290
2099,-0.085,-0.285
2100,-0.075,-0.275
2101,-0.070,-0.275
2102,-0.080,-0.300
2103,-0.060,-0.340
2104,-0.030,-0.400
2105,0.100,-0.375
2106,0.260,-0.015
2107,0.295,0.640
2108,0.055,0.550
2109,-0.220,0.035
2110,-0.190,-0.650
2111,-0.110,-0.825
2112,-0.115,-0.635
2113,-0.090,-0.315
2114,-0.080,-0.285
2115,-0.095,-0.290
2116,-0.070,-0.300
2117,-0.095,-0.300
2118,-0.085,-0.295
2119,-0.090,-0.290
2120,-0.080,-0.305
2121,-0.085,-0.290
2122,-0.090,-0.270
2123,-0.085,-0.275
2124,-0.090,-0.265
2125,-0.070,-0.265
2126,-0.065,-0.245
2127,-0.065,-0.250
2128,-0.060,-0.245
2129,-0.060,-0.230
2130,-0.070,-0.215
2131,-0.060,-0.205
2132,-0.070,-0.185
2133,-0.075,-0.180
2134,-0.070,-0.165
2135,-0.075,-0.165
2136,-0.070,-0.160
2137,-0.065,-0.135
2138,-0.065,-0.120
2139,-0.060,-0.110
2140,-0.050,-0.110
2141,-0.055,-0.105
2142,-0.035,-0.090
2143,-0.040,-0.080
2144,-0.030,-0.100
2145,-0.025,-0.095
2146,0.000,-0.125
2147,-0.015,-0.135
2148,-0.005,-0.145
2149,-0.035,-0.165
2150,-0.030,-0.195
2151,-0.035,-0.205
2152,-0.020,-0.205
2153,-0.030,-0.205
2154,-0.035,-0.215
2155,-0.045,-0.200
2156,-0.030,-0.215
2157,-0.035,-0.220
2158,-0.035,-0.215
2159,-0.020,-0.190
2160,-0.025,-0.210
2161,-0.015,-0.180
2162,-0.030,-0.160
2163,-0.020,-0.180
2164,-0.030,-0.175
2165,-0.035,-0.160
2166,-0.035,-0.165
2167,-0.020,-0.175
2168,-0.015,-0.165
2169,-0.020,-0.165
2170,-0.040,-0.175
2171,-0.035,-0.195
2172,-0.035,-0.195
2173,-0.030,-0.190
2174,-0.030,-0.190
2175,-0.025,-0.200
2176,-0.020,-0.160
2177,0.010,-0.125
2178,0.025,-0.080
2179,0.010,-0.060
2180,-0.010,-0.030
2181,-0.040,-0.095
2182,-0.090,-0.135
2183,-0.095,-0.195
2184,-0.075,-0.225
2185,-0.060,-0.225
2186,-0.065,-0.245
2187,-0.075,-0.255
2188,-0.050,-0.270
2189,-0.060,-0.270
2190,-0.055,-0.265
2191,-0.055,-0.280
2192,-0.075,-0.270
2193,-0.075,-0.285
2194,-0.065,-0.275
2195,-0.070,-0.280
2196,-0.065,-0.300
2197,-0.090,-0.315
2198,-0.055,-0.405
2199,0.000,-0.420
2200,0.110,-0.340
2201,0.325,-0.010
2202,0.205,0.575
2203,-0.125,0.340
2204,-0.295,-0.115
2205,-0.150,-0.655
2206,-0.085,-0.495
2207,-0.080,-0.315
2208,-0.105,-0.280
2209,-0.090,-0.280
2210,-0.120,-0.295
2211,-0.100,-0.295
2212,-0.115,-0.285
2213,-0.080,-0.290
2214,-0.085,-0.295
2215,-0.070,-0.285
2216,-0.080,-0.260
2217,-0.080,-0.285
2218,-0.090,-0.275
2219,-0.085,-0.275
2220,-0.085,-0.265
2221,-0.080,-0.250
2222,-0.075,-0.245
2223,-0.070,-0.240
2224,-0.065,-0.230
2225,-0.080,-0.215
2226,-0.065,-0.215
2227,-0.075,-0.195
2228,-0.070,-0.175
2229,-0.065,-0.160
2230,-0.075,-0.145
2231,-0.080,-0.145
2232,-0.085,-0.145
2233,-0.070,-0.130
2234,-0.065,-0.105
2235,-0.055,-0.090
2236,-0.040,-0.095
2237,-0.030,-0.065
2238,-0.025,-0.095
2239,-0.015,-0.110
2240,0.000,-0.130
2241,-0.015,-0.130
2242,-0.015,-0.160
2243,-0.010,-0.170
2244,-0.025,-0.185
2245,-0.035,-0.200
2246,-0.040,-0.230
2247,-0.040,-0.235
2248,-0.030,-0.240
2249,-0.045,-0.260
2250,-0.045,-0.220
2251,-0.030,-0.230
2252,-0.025,-0.225
2253,-0.030,-0.210
2254,-0.035,-0.200
2255,-0.015,-0.180
2256,-0.010,-0.175
2257,-0.035,-0.175
2258,-0.010,-0.190
2259,-0.010,-0.190
2260,-0.010,-0.160
2261,-0.010,-0.175
2262,-0.010,-0.165
2263,-0.015,-0.160
2264,-0.025,-0.185
2265,-0.005,-0.175
2266,-0.015,-0.180
2267,-0.010,-0.160
2268,-0.010,-0.180
2269,0.000,-0.145
2270,0.025,-0.140
2271,0.040,-0.095
2272,0.060,-0.055
2273,0.030,-0.030
2274,0.020,-0.020
2275,0.000,-0.045
2276,-0.040,-0.085
2277,-0.050,-0.130
2278,-0.030,-0.150
2279,-0.020,-0.175
2280,-0.040,-0.215
2281,-0.040,-0.220
2282,-0.030,-0.250
2283,-0.020,-0.235
2284,-0.015,-0.255
2285,-0.025,-0.245
2286,-0.035,-0.255
2287,-0.040,-0.260
2288,-0.040,-0.270
2289,-0.020,-0.250
2290,-0.035,-0.245
2291,-0.015,-0.245
2292,-0.030,-0.310
2293,0.030,-0.395
2294,0.200,-0.285
2295,0.410,0.120
2296,0.315,0.615
2297,0.090,0.400
2298,-0.220,0.175
2299,-0.170,-0.415
2300,-0.060,-0.550
2301,-0.035,-0.305
2302,-0.045,-0.245
2303,-0.050,-0.260
2304,-0.045,-0.260
2305,-0.050,-0.260
2306,-0.045,-0.265
2307,-0.050,-0.240
2308,-0.040,-0.250
2309,-0.035,-0.250
2310,-0.025,-0.235
2311,-0.045,-0.240
2312,-0.045,-0.250
2313,-0.040,-0.255
2314,-0.040,-0.240
2315,-0.035,-0.220
2316,-0.035,-0.220
2317,-0.045,-0.200
2318,-0.025,-0.200
2319,-0.030,-0.185
2320,-0.015,-0.175
2321,-0.025,-0.165
2322,-0.025,-0.155
2323,-0.030,-0.135
2324,-0.030,-0.130
2325,-0.035,-0.115
2326,-0.020,-0.080
2327,-0.030,-0.080
2328,-0.020,-0.090
2329,-0.015,-0.085
2330,-0.015,-0.080
2331,-0.005,-0.070
2332,0.005,-0.065
2333,0.000,-0.065
2334,0.010,-0.100
2335,0.005,-0.130
2336,0.000,-0.145
2337,-0.005,-0.175
2338,-0.010,-0.185
2339,-0.005,-0.190
2340,-0.020,-0.215
2341,-0.020,-0.240
2342,-0.035,-0.225
2343,0.000,-0.230
2344,-0.010,-0.240
2345,-0.005,-0.230
2346,-0.015,-0.195
2347,0.000,-0.215
2348,-0.005,-0.205
2349,-0.010,-0.210
2350,-0.010,-0.215
2351,0.000,-0.190
2352,-0.010,-0.185
2353,-0.005,-0.170
2354,-0.005,-0.175
2355,0.000,-0.185
2356,-0.010,-0.170
2357,-0.010,-0.180
2358,-0.020,-0.180
2359,-0.005,-0.185
2360,-0.005,-0.195
2361,-0.020,-0.165
2362,0.000,-0.165
2363,0.005,-0.135
2364,0.045,-0.075
2365,0.045,-0.060
2366,0.020,-0.030
2367,0.000,-0.045
2368,-0.030,-0.095
2369,-0.070,-0.100
2370,-0.055,-0.175
2371,-0.045,-0.205
2372,-0.035,-0.205
2373,-0.040,-0.230
2374,-0.040,-0.240
2375,-0.040,-0.255
2376,-0.035,-0.275
2377,-0.030,-0.260
2378,-0.045,-0.260
2379,-0.030,-0.260
2380,-0.030,-0.265
2381,-0.040,-0.255
2382,-0.035,-0.260
2383,-0.020,-0.265
2384,-0.050,-0.310
2385,-0.015,-0.405
2386,0.050,-0.410
2387,0.235,-0.225
2388,0.365,0.260
2389,0.140,0.595
2390,-0.195,0.215
2391,-0.200,-0.385
2392,-0.075,-0.690
2393,-0.050,-0.410
2394,-0.045,-0.255
2395,-0.040,-0.245
2396,-0.040,-0.250
2397,-0.040,-0.225
2398,-0.035,-0.240
2399,-0.040,-0.240
2400,-0.020,-0.235
2401,-0.025,-0.230
2402,-0.015,-0.240
2403,-0.020,-0.225
2404,-0.020,-0.220
2405,-0.025,-0.225
2406,-0.035,-0.215
2407,-0.030,-0.210
2408,-0.025,-0.210
2409,-0.030,-0.180
2410,-0.015,-0.195
2411,-0.030,-0.185
2412,-0.020,-0.180
2413,-0.020,-0.150
2414,-0.020,-0.145
2415,-0.020,-0.100
2416,-0.035,-0.105
2417,-0.035,-0.110
2418,-0.020,-0.095
2419,-0.030,-0.060
2420,-0.030,-0.070
2421,-0.015,-0.055
2422,-0.015,-0.035
2423,-0.010,-0.020
2424,0.010,-0.040
2425,0.010,-0.035
2426,0.000,-0.035
2427,0.020,-0.055
2428,0.020,-0.085
2429,0.030,-0.085
2430,0.020,-0.105
2431,0.000,-0.140
2432,0.005,-0.140
2433,0.010,-0.150
2434,0.005,-0.140
2435,0.000,-0.165
2436,0.000,-0.165
2437,0.000,-0.160
2438,0.025,-0.165
2439,0.010,-0.155
2440,0.005,-0.135
2441,0.005,-0.145
2442,0.010,-0.130
2443,0.005,-0.135
2444,0.005,-0.145
2445,0.000,-0.105
2446,0.005,-0.115
2447,0.000,-0.110
2448,0.000,-0.120
2449,0.005,-0.135
2450,0.000,-0.115
2451,0.010,-0.125
2452,0.000,-0.130
2453,0.000,-0.150
2454,0.000,-0.110
2455,0.025,-0.090
2456,0.060,-0.040
2457,0.030,-0.020
2458,0.025,-0.010
2459,0.005,-0.015
2460,-0.020,-0.045
2461,-0.060,-0.075
2462,-0.050,-0.150
2463,-0.030,-0.180
2464,-0.040,-0.185
2465,-0.025,-0.190
2466,-0.045,-0.210
2467,-0.035,-0.245
2468,-0.045,-0.245
2469,-0.030,-0.250
2470,-0.025,-0.225
2471,-0.040,-0.250
2472,-0.040,-0.235
2473,-0.035,-0.235
2474,-0.025,-0.230
2475,-0.035,-0.230
2476,-0.030,-0.255
2477,-0.020,-0.355
2478,0.060,-0.355
2479,0.265,-0.105
2480,0.345,0.560
2481,0.260,0.800
2482,0.060,0.350
2483,-0.145,0.010
2484,-0.110,-0.635
2485,-0.065,-0.600
2486,-0.060,-0.315
2487,-0.055,-0.250
2488,-0.070,-0.255
2489,-0.070,-0.245
2490,-0.045,-0.270
2491,-0.055,-0.265
2492,-0.035,-0.260
2493,-0.055,-0.255
2494,-0.050,-0.245
2495,-0.050,-0.260
2496,-0.055,-0.240
2497,-0.050,-0.255
2498,-0.055,-0.265
2499,-0.045,-0.220
2500,-0.055,-0.230
2501,-0.060,-0.215
2502,-0.035,-0.215
2503,-0.045,-0.190
2504,-0.050,-0.195
2505,-0.055,-0.165
2506,-0.065,-0.160
2507,-0.040,-0.175
2508,-0.055,-0.155
2509,-0.040,-0.140
2510,-0.045,-0.125
2511,-0.050,-0.125
2512,-0.045,-0.110
2513,-0.030,-0.090
2514,-0.020,-0.065
2515,-0.040,-0.030
2516,-0.015,-0.080
2517,0.000,-0.070
2518,0.005,-0.055
2519,0.000,-0.080
2520,0.000,-0.125
2521,0.005,-0.120
2522,0.000,-0.140
2523,0.000,-0.150
2524,0.000,-0.165
2525,0.005,-0.170
2526,0.015,-0.180
2527,0.005,-0.180
2528,0.020,-0.190
2529,0.015,-0.165
2530,0.015,-0.185
2531,0.005,-0.175
2532,0.020,-0.175
2533,0.000,-0.160
2534,0.010,-0.155
2535,0.025,-0.135
2536,0.005,-0.140
2537,0.020,-0.135
2538,0.005,-0.135
2539,0.015,-0.130
2540,0.005,-0.140
2541,0.010,-0.125
2542,0.010,-0.145
2543,-0.010,-0.130
2544,-0.005,-0.145
2545,0.000,-0.145
2546,0.025,-0.105
2547,0.050,-0.060
2548,0.050,-0.040
2549,0.045,-0.035
2550,0.025,0.000
2551,0.000,-0.045
2552,-0.035,-0.090
2553,-0.040,-0.150
2554,-0.035,-0.170
2555,-0.005,-0.185
2556,-0.030,-0.210
2557,-0.015,-0.200
2558,-0.035,-0.230
2559,-0.025,-0.225
2560,-0.030,-0.240
2561,-0.040,-0.260
2562,-0.025,-0.245
2563,-0.030,-0.255
2564,-0.040,-0.240
2565,-0.025,-0.250
2566,-0.025,-0.250
2567,-0.035,-0.260
2568,-0.025,-0.325
2569,0.040,-0.385
2570,0.210,-0.245
2571,0.380,0.215
2572,0.405,0.705
2573,0.105,0.670
2574,-0.215,0.175
2575,-0.145,-0.495
2576,-0.065,-0.605
2577,-0.040,-0.315
2578,-0.040,-0.275
2579,-0.040,-0.265
2580,-0.060,-0.250
2581,-0.050,-0.275
2582,-0.035,-0.290
2583,-0.045,-0.280
2584,-0.050,-0.260
2585,-0.040,-0.260
2586,-0.045,-0.270
2587,-0.045,-0.290
2588,-0.045,-0.280
2589,-0.045,-0.270
2590,-0.030,-0.270
2591,-0.045,-0.240
2592,-0.040,-0.235
2593,-0.045,-0.255
2594,-0.040,-0.225
2595,-0.035,-0.205
2596,-0.050,-0.200
2597,-0.045,-0.195
2598,-0.045,-0.190
2599,-0.050,-0.155
2600,-0.050,-0.155
2601,-0.035,-0.155
2602,-0.045,-0.110
2603,-0.030,-0.125
2604,-0.020,-0.095
2605,-0.035,-0.080
2606,-0.020,-0.075
2607,-0.010,-0.090
2608,0.000,-0.065
2609,0.010,-0.095
2610,0.015,-0.115
2611,0.010,-0.135
2612,0.010,-0.145
2613,0.000,-0.180
2614,0.005,-0.195
2615,0.000,-0.200
2616,-0.005,-0.235
2617,0.000,-0.230
2618,0.005,-0.225
2619,-0.010,-0.220
2620,0.005,-0.205
2621,-0.010,-0.230
2622,0.000,-0.230
2623,0.000,-0.215
2624,0.015,-0.235
2625,0.025,-0.220
2626,0.005,-0.215
2627,0.025,-0.210
2628,0.000,-0.220
2629,0.010,-0.195
2630,0.010,-0.205
2631,0.005,-0.205
2632,0.005,-0.195
2633,0.005,-0.215
2634,0.000,-0.210
2635,0.000,-0.205
2636,0.015,-0.195
2637,0.040,-0.175
2638,0.055,-0.105
2639,0.040,-0.095
2640,0.025,-0.075
2641,0.000,-0.085
2642,-0.020,-0.120
2643,-0.040,-0.175
2644,-0.015,-0.205
2645,-0.035,-0.230
2646,-0.020,-0.230
2647,-0.030,-0.270
2648,-0.025,-0.270
2649,-0.035,-0.290
2650,-0.020,-0.275
2651,-0.025,-0.280
2652,-0.010,-0.275
2653,-0.010,-0.280
2654,-0.010,-0.280
2655,-0.005,-0.285
2656,-0.020,-0.280
2657,0.000,-0.285
2658,-0.025,-0.325
2659,0.000,-0.390
2660,0.050,-0.420
2661,0.190,-0.340
2662,0.390,0.035
2663,0.200,0.575
2664,-0.135,0.275
2665,-0.205,-0.290
2666,-0.060,-0.640
2667,0.000,-0.355
2668,-0.010,-0.285
2669,-0.005,-0.285
2670,-0.025,-0.280
2671,-0.020,-0.270
2672,-0.025,-0.290
2673,-0.020,-0.285
2674,-0.010,-0.275
2675,-0.020,-0.275
2676,-0.025,-0.270
2677,-0.005,-0.250
2678,0.000,-0.275
2679,-0.015,-0.250
2680,-0.015,-0.255
2681,-0.015,-0.250
2682,-0.010,-0.240
2683,-0.010,-0.235
2684,-0.010,-0.235
2685,0.000,-0.230
2686,0.005,-0.215
2687,0.015,-0.195
2688,0.010,-0.185
2689,0.005,-0.175
2690,0.005,-0.150
2691,0.010,-0.130
2692,0.015,-0.120
2693,0.000,-0.100
2694,0.015,-0.105
2695,0.015,-0.090
2696,0.005,-0.075
2697,0.040,-0.065
2698,0.040,-0.070
2699,0.050,-0.070
2700,0.070,-0.100
2701,0.040,-0.120
2702,0.035,-0.155
2703,0.020,-0.175
2704,0.015,-0.190
2705,0.010,-0.200
2706,0.010,-0.220
2707,0.010,-0.235
2708,0.025,-0.230
2709,0.005,-0.230
2710,0.005,-0.230
2711,0.020,-0.235
2712,-0.005,-0.240
2713,0.015,-0.245
2714,0.000,-0.230
2715,0.010,-0.230
2716,0.015,-0.230
2717,0.020,-0.225
2718,0.000,-0.230
2719,0.005,-0.230
2720,0.015,-0.225
2721,0.005,-0.215
2722,0.015,-0.220
2723,0.015,-0.215
2724,0.005,-0.230
2725,0.000,-0.220
2726,0.005,-0.215
2727,0.020,-0.230
2728,0.055,-0.195
2729,0.070,-0.125
2730,0.075,-0.100
2731,0.055,-0.095
2732,0.025,-0.105
2733,-0.005,-0.125
2734,-0.030,-0.175
2735,-0.035,-0.220
2736,-0.010,-0.250
2737,-0.015,-0.260
2738,-0.010,-0.290
2739,-0.005,-0.300
2740,-0.015,-0.305
2741,-0.015,-0.320
2742,-0.005,-0.305
2743,-0.020,-0.300
2744,-0.015,-0.315
2745,-0.010,-0.335
2746,-0.010,-0.330
2747,-0.015,-0.335
2748,-0.005,-0.335
2749,-0.030,-0.335
2750,-0.005,-0.450
2751,0.025,-0.455
2752,0.220,-0.390
2753,0.415,0.035
2754,0.195,0.555
2755,-0.140,0.265
2756,-0.240,-0.330
2757,-0.070,-0.685
2758,-0.015,-0.420
2759,-0.005,-0.295
2760,-0.020,-0.320
2761,-0.030,-0.325
2762,-0.030,-0.335
2763,-0.010,-0.330
2764,-0.005,-0.340
2765,-0.005,-0.310
2766,-0.015,-0.300
2767,-0.010,-0.325
2768,-0.010,-0.315
2769,-0.025,-0.305
2770,-0.005,-0.285
2771,0.000,-0.290
2772,0.000,-0.270
2773,0.000,-0.275
2774,0.000,-0.260
2775,0.010,-0.250
2776,0.010,-0.235
2777,0.015,-0.230
2778,0.000,-0.215
2779,0.020,-0.195
2780,0.020,-0.170
2781,0.030,-0.155
2782,0.020,-0.150
2783,0.020,-0.140
2784,0.025,-0.120
2785,0.025,-0.115
2786,0.035,-0.115
2787,0.045,-0.100
2788,0.055,-0.080
2789,0.070,-0.080
2790,0.075,-0.065
2791,0.080,-0.090
2792,0.080,-0.115
2793,0.060,-0.130
2794,0.055,-0.150
2795,0.050,-0.190
2796,0.045,-0.195
2797,0.040,-0.215
2798,0.030,-0.215
2799,0.040,-0.225
2800,0.040,-0.230
2801,0.035,-0.230
2802,0.040,-0.215
2803,0.040,-0.210
2804,0.045,-0.210
2805,0.040,-0.210
2806,0.055,-0.205
2807,0.050,-0.195
2808,0.040,-0.210
2809,0.050,-0.185
2810,0.050,-0.190
2811,0.035,-0.180
2812,0.050,-0.195
2813,0.040,-0.185
2814,0.040,-0.185
2815,0.050,-0.190
2816,0.035,-0.185
2817,0.055,-0.200
2818,0.050,-0.180
2819,0.090,-0.155
2820,0.110,-0.125
2821,0.095,-0.055
2822,0.100,-0.040
2823,0.060,-0.050
2824,0.020,-0.105
2825,0.005,-0.135
2826,0.000,-0.155
2827,0.015,-0.210
2828,0.010,-0.220
2829,0.010,-0.235
2830,0.010,-0.280
2831,0.000,-0.275
2832,-0.005,-0.285
2833,0.000,-0.275
2834,0.005,-0.270
2835,0.010,-0.265
2836,0.020,-0.275
2837,0.010,-0.285
2838,0.015,-0.280
2839,0.005,-0.285
2840,-0.010,-0.310
2841,0.000,-0.405
2842,0.060,-0.405
2843,0.230,-0.310
2844,0.420,0.170
2845,0.240,0.630
2846,-0.065,0.235
2847,-0.155,-0.350
2848,-0.035,-0.750
2849,-0.015,-0.435
2850,-0.030,-0.260
2851,-0.005,-0.285
2852,0.000,-0.295
2853,-0.020,-0.270
2854,-0.010,-0.295
2855,-0.010,-0.275
2856,-0.010,-0.285
2857,-0.005,-0.290
2858,0.005,-0.285
2859,0.000,-0.250
2860,0.000,-0.290
2861,0.000,-0.265
2862,0.000,-0.265
2863,0.000,-0.225
2864,0.000,-0.260
2865,0.000,-0.230
2866,0.005,-0.250
2867,0.005,-0.215
2868,0.005,-0.180
2869,0.005,-0.210
2870,0.010,-0.180
2871,0.020,-0.175
2872,0.000,-0.150
2873,0.005,-0.155
2874,0.000,-0.140
2875,0.000,-0.100
2876,0.020,-0.100
2877,0.020,-0.120
2878,0.015,-0.100
2879,0.040,-0.095
2880,0.055,-0.080
2881,0.065,-0.080
2882,0.065,-0.095
2883,0.075,-0.115
2884,0.060,-0.105
2885,0.050,-0.140
2886,0.060,-0.170
2887,0.070,-0.180
2888,0.050,-0.225
2889,0.055,-0.210
2890,0.050,-0.210
2891,0.040,-0.195
2892,0.040,-0.230
2893,0.055,-0.200
2894,0.055,-0.190
2895,0.065,-0.190
2896,0.045,-0.190
2897,0.055,-0.175
2898,0.055,-0.175
2899,0.055,-0.155
2900,0.045,-0.155
2901,0.050,-0.150
2902,0.035,-0.160
2903,0.060,-0.165
2904,0.055,-0.145
2905,0.045,-0.140
2906,0.065,-0.150
2907,0.065,-0.155
2908,0.055,-0.150
2909,0.070,-0.160
2910,0.100,-0.120
2911,0.125,-0.055
2912,0.105,-0.025
2913,0.110,-0.015
2914,0.065,-0.030
2915,0.035,-0.080
2916,0.020,-0.115
2917,0.015,-0.165
2918,0.035,-0.155
2919,0.035,-0.190
2920,0.035,-0.220
2921,0.040,-0.255
2922,0.035,-0.245
2923,0.035,-0.230
2924,0.025,-0.250
2925,0.035,-0.245
2926,0.040,-0.240
2927,0.025,-0.245
2928,0.030,-0.250
2929,0.025,-0.250
2930,0.030,-0.255
2931,0.030,-0.315
2932,0.060,-0.400
2933,0.175,-0.315
2934,0.280,-0.125
2935,0.420,0.295
2936,0.275,0.665
2937,-0.060,0.260
2938,-0.100,-0.355
2939,-0.015,-0.695
2940,0.015,-0.405
2941,0.000,-0.270
2942,0.015,-0.265
2943,0.015,-0.245
2944,0.005,-0.265
2945,0.005,-0.260
2946,0.010,-0.265
2947,0.015,-0.245
2948,0.020,-0.245
2949,0.025,-0.240
2950,0.015,-0.240
2951,0.015,-0.240
2952,0.010,-0.235
2953,0.005,-0.230
2954,0.010,-0.220
2955,0.010,-0.225
2956,0.020,-0.210
2957,0.020,-0.205
2958,0.015,-0.190
2959,0.030,-0.190
2960,0.025,-0.155
2961,0.010,-0.155
2962,0.020,-0.150
2963,0.015,-0.155
2964,0.005,-0.130
2965,0.010,-0.125
2966,0.005,-0.125
2967,0.025,-0.130
2968,0.015,-0.090
2969,0.020,-0.080
2970,0.035,-0.085
2971,0.030,-0.085
2972,0.045,-0.090
2973,0.050,-0.110
2974,0.050,-0.135
2975,0.055,-0.145
2976,0.055,-0.155
2977,0.035,-0.180
2978,0.040,-0.195
2979,0.030,-0.195
2980,0.020,-0.205
2981,0.035,-0.200
2982,0.030,-0.205
2983,0.035,-0.215
2984,0.030,-0.195
2985,0.025,-0.200
2986,0.045,-0.205
2987,0.030,-0.180
2988,0.045,-0.175
2989,0.025,-0.190
2990,0.040,-0.180
2991,0.055,-0.170
2992,0.050,-0.180
2993,0.045,-0.160
2994,0.030,-0.185
2995,0.030,-0.180
2996,0.045,-0.180
2997,0.035,-0.175
2998,0.055,-0.190
2999,0.040,-0.180
3000,0.065,-0.160
3001,0.085,-0.110
3002,0.095,-0.085
3003,0.095,-0.075
3004,0.085,-0.055
3005,0.075,-0.045
3006,0.020,-0.085
3007,0.000,-0.150
3008,0.000,-0.180
3009,0.025,-0.200
3010,0.005,-0.205
3011,0.010,-0.235
3012,0.020,-0.260
3013,0.000,-0.260
3014,0.005,-0.250
3015,0.025,-0.275
3016,0.010,-0.265
3017,0.010,-0.275
3018,0.005,-0.275
3019,0.015,-0.260
3020,0.000,-0.280
3021,0.015,-0.280
3022,0.005,-0.270
3023,0.020,-0.380
3024,0.115,-0.390
3025,0.335,-0.205
3026,0.475,0.345
3027,0.315,0.690
3028,0.075,0.355
3029,-0.195,0.040
3030,-0.065,-0.640
3031,0.000,-0.480
3032,0.000,-0.280
3033,0.000,-0.265
3034,0.000,-0.265
3035,0.010,-0.275
3036,0.010,-0.275
3037,0.010,-0.270
3038,0.005,-0.280
3039,0.015,-0.265
3040,0.025,-0.255
3041,0.015,-0.250
3042,0.010,-0.255
3043,0.010,-0.255
3044,0.020,-0.250
3045,0.025,-0.235
3046,0.015,-0.225
3047,0.010,-0.225
3048,0.040,-0.200
3049,0.020,-0.215
3050,0.030,-0.205
3051,0.030,-0.180
3052,0.030,-0.150
3053,0.020,-0.140
3054,0.020,-0.120
3055,0.040,-0.120
3056,0.025,-0.120
3057,0.055,-0.105
3058,0.040,-0.085
3059,0.035,-0.075
3060,0.050,-0.050
3061,0.055,-0.060
3062,0.065,-0.050
3063,0.080,-0.050
3064,0.090,-0.060
3065,0.075,-0.075
3066,0.075,-0.110
3067,0.070,-0.120
3068,0.080,-0.145
3069,0.050,-0.160
3070,0.065,-0.180
3071,0.060,-0.180
3072,0.080,-0.200
3073,0.060,-0.180
3074,0.045,-0.210
3075,0.055,-0.210
3076,0.060,-0.195
3077,0.055,-0.195
3078,0.060,-0.190
3079,0.070,-0.170
3080,0.060,-0.190
3081,0.050,-0.175
3082,0.060,-0.160
3083,0.060,-0.170
3084,0.080,-0.175
3085,0.065,-0.165
3086,0.050,-0.155
3087,0.065,-0.160
3088,0.065,-0.155
3089,0.060,-0.160
3090,0.055,-0.165
3091,0.075,-0.155
3092,0.105,-0.125
3093,0.130,-0.070
3094,0.100,-0.030
3095,0.090,-0.045
3096,0.110,-0.020
3097,0.050,-0.055
3098,0.025,-0.095
3099,0.005,-0.160
3100,0.025,-0.175
3101,0.025,-0.200
3102,0.010,-0.220
3103,0.010,-0.260
3104,0.005,-0.270
3105,0.025,-0.265
3106,0.005,-0.270
3107,0.025,-0.260
3108,0.020,-0.275
3109,0.015,-0.270
3110,0.020,-0.270
3111,0.015,-0.280
3112,0.010,-0.280
3113,0.010,-0.285
3114,0.000,-0.315
3115,0.040,-0.400
3116,0.195,-0.385
3117,0.420,-0.055
3118,0.325,0.505
3119,0.005,0.395
3120,-0.275,0.045
3121,-0.240,-0.525
3122,-0.060,-0.710
3123,0.020,-0.395
3124,0.000,-0.290
3125,0.010,-0.280
3126,0.015,-0.295
3127,0.020,-0.275
3128,0.015,-0.275
3129,0.010,-0.275
3130,0.025,-0.270
3131,0.025,-0.275
3132,0.020,-0.265
3133,0.030,-0.275
3134,0.030,-0.250
3135,0.020,-0.270
3136,0.000,-0.260
3137,0.030,-0.260
3138,0.050,-0.250
3139,0.030,-0.245
3140,0.030,-0.230
3141,0.035,-0.210
3142,0.045,-0.220
3143,0.045,-0.205
3144,0.045,-0.170
3145,0.035,-0.170
3146,0.050,-0.165
3147,0.055,-0.145
3148,0.045,-0.105
3149,0.050,-0.110
3150,0.055,-0.115
3151,0.055,-0.100
3152,0.080,-0.105
3153,0.075,-0.085
3154,0.110,-0.080
3155,0.115,-0.075
3156,0.090,-0.095
3157,0.105,-0.120
3158,0.085,-0.130
3159,0.075,-0.165
3160,0.090,-0.190
3161,0.080,-0.205
3162,0.085,-0.200
3163,0.090,-0.220
3164,0.080,-0.225
3165,0.085,-0.220
3166,0.075,-0.230
3167,0.090,-0.215
3168,0.085,-0.210
3169,0.090,-0.210
3170,0.085,-0.190
3171,0.110,-0.190
3172,0.115,-0.185
3173,0.105,-0.180
3174,0.100,-0.195
3175,0.105,-0.185
3176,0.095,-0.180
3177,0.110,-0.180
3178,0.105,-0.185
3179,0.100,-0.185
3180,0.100,-0.190
3181,0.090,-0.170
3182,0.095,-0.190
3183,0.080,-0.180
3184,0.100,-0.170
3185,0.135,-0.160
3186,0.180,-0.105
3187,0.160,-0.045
3188,0.165,-0.020
3189,0.145,0.000
3190,0.100,-0.035
3191,0.070,-0.085
3192,0.045,-0.155
3193,0.055,-0.195
3194,0.065,-0.210
3195,0.080,-0.220
3196,0.055,-0.240
3197,0.070,-0.235
3198,0.060,-0.260
3199,0.055,-0.265
3200,0.065,-0.260
3201,0.060,-0.255
3202,0.075,-0.270
3203,0.065,-0.240
3204,0.070,-0.255
3205,0.070,-0.260
3206,0.065,-0.270
3207,0.070,-0.315
3208,0.105,-0.395
3209,0.260,-0.325
3210,0.475,0.050
3211,0.350,0.560
3212,0.025,0.320
3213,-0.180,-0.130
3214,-0.135,-0.730
3215,0.005,-0.765
3216,0.045,-0.350
3217,0.065,-0.270
3218,0.040,-0.240
3219,0.060,-0.260
3220,0.040,-0.275
3221,0.050,-0.270
3222,0.060,-0.250
3223,0.055,-0.250
3224,0.055,-0.250
3225,0.055,-0.240
3226,0.055,-0.240
3227,0.060,-0.245
3228,0.055,-0.235
3229,0.055,-0.240
3230,0.060,-0.220
3231,0.050,-0.230
3232,0.055,-0.220
3233,0.065,-0.190
3234,0.060,-0.190
3235,0.060,-0.200
3236,0.045,-0.170
3237,0.055,-0.150
3238,0.070,-0.125
3239,0.070,-0.125
3240,0.065,-0.115
3241,0.065,-0.105
3242,0.045,-0.100
3243,0.065,-0.080
3244,0.075,-0.075
3245,0.085,-0.065
3246,0.100,-0.050
3247,0.120,-0.055
3248,0.115,-0.060
3249,0.115,-0.065
3250,0.095,-0.080
3251,0.115,-0.105
3252,0.095,-0.150
3253,0.095,-0.160
3254,0.085,-0.175
3255,0.085,-0.180
3256,0.090,-0.185
3257,0.095,-0.200
3258,0.100,-0.200
3259,0.105,-0.190
3260,0.095,-0.165
3261,0.090,-0.180
3262,0.090,-0.180
3263,0.100,-0.155
3264,0.120,-0.150
3265,0.115,-0.150
3266,0.110,-0.125
3267,0.110,-0.140
3268,0.095,-0.165
3269,0.110,-0.155
3270,0.095,-0.150
3271,0.100,-0.135
3272,0.120,-0.165
3273,0.095,-0.160
3274,0.105,-0.145
3275,0.095,-0.160
3276,0.105,-0.170
3277,0.130,-0.155
3278,0.155,-0.125
3279,0.160,-0.075
3280,0.145,-0.035
3281,0.155,-0.025
3282,0.135,-0.010
3283,0.095,-0.050
3284,0.065,-0.105
3285,0.070,-0.150
3286,0.075,-0.185
3287,0.060,-0.185
3288,0.070,-0.215
3289,0.070,-0.250
3290,0.055,-0.250
3291,0.075,-0.245
3292,0.080,-0.245
3293,0.075,-0.265
3294,0.065,-0.245
3295,0.085,-0.225
3296,0.080,-0.230
3297,0.075,-0.250
3298,0.085,-0.250
3299,0.080,-0.245
3300,0.080,-0.335
3301,0.180,-0.365
3302,0.350,-0.150
3303,0.485,0.475
3304,0.325,0.805
3305,-0.010,0.255
3306,-0.150,-0.355
3307,-0.055,-0.835
3308,0.025,-0.750
3309,0.050,-0.320
3310,0.045,-0.245
3311,0.055,-0.225
3312,0.060,-0.250
3313,0.050,-0.260
3314,0.055,-0.260
3315,0.050,-0.250
3316,0.060,-0.245
3317,0.060,-0.245
3318,0.050,-0.240
3319,0.065,-0.220
3320,0.055,-0.235
3321,0.060,-0.220
3322,0.055,-0.205
3323,0.050,-0.245
3324,0.060,-0.225
3325,0.055,-0.205
3326,0.065,-0.190
3327,0.070,-0.190
3328,0.050,-0.185
3329,0.060,-0.165
3330,0.045,-0.155
3331,0.085,-0.145
3332,0.070,-0.145
3333,0.060,-0.130
3334,0.055,-0.125
3335,0.050,-0.135
3336,0.050,-0.095
3337,0.060,-0.075
3338,0.070,-0.080
3339,0.085,-0.055
3340,0.105,-0.080
3341,0.115,-0.075
3342,0.115,-0.080
3343,0.110,-0.110
3344,0.110,-0.130
3345,0.095,-0.150
3346,0.070,-0.160
3347,0.080,-0.170
3348,0.095,-0.185
3349,0.095,-0.175
3350,0.115,-0.195
3351,0.085,-0.200
3352,0.080,-0.195
3353,0.085,-0.175
3354,0.080,-0.165
3355,0.085,-0.185
3356,0.085,-0.160
3357,0.085,-0.145
3358,0.100,-0.130
3359,0.085,-0.150
3360,0.080,-0.150
3361,0.060,-0.140
3362,0.065,-0.160
3363,0.065,-0.145
3364,0.065,-0.165
3365,0.060,-0.165
3366,0.050,-0.170
3367,0.065,-0.190
3368,0.055,-0.195
3369,0.060,-0.190
3370,0.085,-0.170
3371,0.110,-0.135
3372,0.095,-0.070
3373,0.115,-0.080
3374,0.100,-0.045
3375,0.085,-0.055
3376,0.040,-0.090
3377,0.010,-0.150
3378,0.000,-0.200
3379,0.020,-0.215
3380,0.015,-0.235
3381,0.035,-0.265
3382,0.020,-0.275
3383,0.030,-0.270
3384,0.030,-0.275
3385,0.045,-0.270
3386,0.025,-0.285
3387,0.020,-0.285
3388,0.020,-0.290
3389,0.020,-0.285
3390,0.025,-0.295
3391,0.025,-0.290
3392,0.030,-0.305
3393,0.050,-0.395
3394,0.180,-0.385
3395,0.380,-0.080
3396,0.385,0.530
3397,0.095,0.445
3398,-0.155,0.060
3399,-0.170,-0.640
3400,-0.065,-0.845
3401,0.000,-0.570
3402,0.010,-0.325
3403,0.015,-0.300
3404,0.010,-0.305
3405,0.005,-0.305
3406,0.005,-0.295
3407,0.015,-0.285
3408,0.025,-0.310
3409,0.020,-0.285
3410,0.005,-0.305
3411,0.025,-0.275
3412,0.025,-0.275
3413,0.020,-0.270
3414,0.020,-0.270
3415,0.030,-0.265
3416,0.010,-0.265
3417,0.035,-0.240
3418,0.025,-0.240
3419,0.025,-0.225
3420,0.040,-0.230
3421,0.040,-0.205
3422,0.030,-0.180
3423,0.040,-0.170
3424,0.030,-0.155
3425,0.025,-0.155
3426,0.030,-0.140
3427,0.030,-0.145
3428,0.035,-0.130
3429,0.045,-0.105
3430,0.045,-0.095
3431,0.065,-0.110
3432,0.065,-0.085
3433,0.065,-0.095
3434,0.095,-0.110
3435,0.100,-0.125
3436,0.100,-0.165
3437,0.085,-0.160
3438,0.090,-0.190
3439,0.075,-0.215
3440,0.075,-0.205
3441,0.070,-0.210
3442,0.080,-0.240
3443,0.075,-0.230
3444,0.085,-0.250
3445,0.085,-0.215
3446,0.075,-0.225
3447,0.080,-0.205
3448,0.080,-0.205
3449,0.070,-0.200
3450,0.080,-0.185
3451,0.090,-0.185
3452,0.080,-0.180
3453,0.085,-0.190
3454,0.070,-0.180
3455,0.075,-0.185
3456,0.070,-0.175
3457,0.075,-0.200
3458,0.065,-0.175
3459,0.070,-0.185
3460,0.065,-0.180
3461,0.085,-0.195
3462,0.095,-0.175
3463,0.130,-0.125
3464,0.145,-0.080
3465,0.120,-0.050
3466,0.095,-0.055
3467,0.085,-0.105
3468,0.050,-0.105
3469,0.030,-0.155
3470,0.045,-0.205
3471,0.040,-0.220
3472,0.045,-0.245
3473,0.045,-0.260
3474,0.035,-0.290
3475,0.040,-0.285
3476,0.050,-0.250
3477,0.035,-0.285
3478,0.035,-0.270
3479,0.050,-0.280
3480,0.060,-0.300
3481,0.045,-0.275
3482,0.035,-0.280
3483,0.025,-0.310
3484,0.030,-0.325
3485,0.060,-0.380
3486,0.180,-0.410
3487,0.415,-0.135
3488,0.360,0.455
3489,0.020,0.425
3490,-0.200,-0.020
3491,-0.110,-0.670
3492,0.000,-0.680
3493,0.020,-0.435
3494,0.010,-0.330
3495,0.015,-0.325
3496,0.010,-0.325
3497,0.000,-0.305
3498,0.015,-0.330
3499,0.005,-0.335
3500,0.000,-0.310
3501,0.010,-0.305
3502,0.010,-0.295
3503,0.015,-0.300
3504,0.010,-0.280
3505,0.020,-0.270
3506,0.000,-0.280
3507,0.005,-0.285
3508,0.005,-0.275
3509,0.005,-0.255
3510,0.040,-0.255
3511,0.025,-0.240
3512,0.010,-0.230
3513,0.015,-0.230
3514,0.015,-0.200
3515,0.025,-0.185
3516,0.020,-0.145
3517,0.030,-0.155
3518,0.010,-0.135
3519,0.035,-0.120
3520,0.015,-0.115
3521,0.025,-0.090
3522,0.050,-0.095
3523,0.055,-0.065
3524,0.070,-0.070
3525,0.045,-0.100
3526,0.080,-0.095
3527,0.065,-0.105
3528,0.060,-0.145
3529,0.040,-0.175
3530,0.035,-0.185
3531,0.040,-0.210
3532,0.030,-0.215
3533,0.025,-0.230
3534,0.045,-0.215
3535,0.040,-0.230
3536,0.040,-0.220
3537,0.045,-0.200
3538,0.035,-0.200
3539,0.025,-0.220
3540,0.035,-0.225
3541,0.040,-0.190
3542,0.015,-0.200
3543,0.025,-0.215
3544,0.025,-0.175
3545,0.040,-0.165
3546,0.000,-0.185
3547,0.025,-0.175
3548,0.005,-0.170
3549,0.015,-0.185
3550,0.000,-0.195
3551,0.025,-0.150
3552,0.005,-0.135
3553,0.015,-0.165
3554,0.025,-0.130
3555,0.045,-0.125
3556,0.045,-0.060
3557,0.045,-0.020
3558,0.000,-0.020
3559,-0.020,-0.065
3560,-0.050,-0.080
3561,-0.085,-0.120
3562,-0.055,-0.165
3563,-0.070,-0.130
3564,-0.060,-0.120
3565,-0.070,-0.125
3566,-0.090,-0.195
3567,-0.080,-0.215
3568,-0.095,-0.190
3569,-0.085,-0.215
3570,-0.100,-0.245
3571,-0.095,-0.245
3572,-0.115,-0.270
3573,-0.100,-0.245
3574,-0.105,-0.240
3575,-0.120,-0.240
3576,-0.125,-0.275
3577,-0.110,-0.375
3578,0.030,-0.350
3579,0.230,-0.050
3580,0.190,0.515
3581,-0.150,0.425
3582,-0.365,0.020
3583,-0.255,-0.645
3584,-0.150,-0.545
3585,-0.140,-0.295
3586,-0.155,-0.210
3587,-0.200,-0.235
3588,-0.175,-0.235
3589,-0.180,-0.240
3590,-0.180,-0.240
3591,-0.195,-0.225
3592,-0.210,-0.190
3593,-0.200,-0.205
3594,-0.190,-0.225
3595,-0.195,-0.225
3596,-0.195,-0.200
3597,-0.200,-0.220
3598,-0.195,-0.210
3599,-0.195,-0.200
3600,-0.210,-0.185
3601,-0.220,-0.190
3602,-0.225,-0.195
3603,-0.210,-0.185
3604,-0.215,-0.155
3605,-0.260,-0.180
3606,-0.255,-0.130
3607,-0.260,-0.115
3608,-0.290,-0.120
3609,-0.300,-0.095
3610,-0.300,-0.075
3611,-0.310,-0.050
3612,-0.320,-0.070
3613,-0.310,-0.045
3614,-0.295,-0.030
3615,-0.295,-0.055
3616,-0.280,-0.040
3617,-0.285,-0.055
3618,-0.285,-0.090
3619,-0.310,-0.110
3620,-0.315,-0.175
3621,-0.300,-0.170
3622,-0.330,-0.150
3623,-0.325,-0.170
3624,-0.325,-0.160
3625,-0.325,-0.165
3626,-0.340,-0.180
3627,-0.340,-0.175
3628,-0.345,-0.170
3629,-0.345,-0.180
3630,-0.350,-0.185
3631,-0.360,-0.165
3632,-0.350,-0.170
3633,-0.360,-0.165
3634,-0.340,-0.170
3635,-0.350,-0.140
3636,-0.360,-0.165
3637,-0.330,-0.145
3638,-0.340,-0.105
3639,-0.350,-0.140
3640,-0.360,-0.160
3641,-0.350,-0.175
3642,-0.340,-0.150
3643,-0.340,-0.105
3644,-0.365,-0.150
3645,-0.345,-0.160
3646,-0.325,-0.120
3647,-0.305,-0.060
3648,-0.315,-0.045
3649,-0.330,-0.030
3650,-0.370,-0.035
3651,-0.395,-0.065
3652,-0.415,-0.110
3653,-0.450,-0.155
3654,-0.430,-0.200
3655,-0.425,-0.240
3656,-0.415,-0.255
3657,-0.445,-0.250
3658,-0.445,-0.245
3659,-0.440,-0.230
3660,-0.435,-0.215
3661,-0.445,-0.230
3662,-0.445,-0.240
3663,-0.430,-0.235
3664,-0.420,-0.225
3665,-0.450,-0.250
3666,-0.450,-0.255
3667,-0.440,-0.310
3668,-0.435,-0.345
3669,-0.330,-0.420
3670,-0.145,-0.195
3671,-0.040,0.475
3672,-0.220,0.730
3673,-0.550,0.215
3674,-0.555,-0.470
3675,-0.465,-0.860
3676,-0.495,-0.670
3677,-0.480,-0.395
3678,-0.480,-0.300
3679,-0.455,-0.270
3680,-0.470,-0.290
3681,-0.470,-0.285
3682,-0.460,-0.270
3683,-0.450,-0.255
3684,-0.445,-0.225
3685,-0.450,-0.225
3686,-0.440,-0.290
3687,-0.450,-0.255
3688,-0.430,-0.250
3689,-0.445,-0.265
3690,-0.410,-0.230
3691,-0.440,-0.220
3692,-0.440,-0.210
3693,-0.435,-0.210
3694,-0.435,-0.215
3695,-0.445,-0.200
3696,-0.450,-0.210
3697,-0.440,-0.220
3698,-0.445,-0.205
3699,-0.445,-0.200
3700,-0.465,-0.180
3701,-0.460,-0.160
3702,-0.445,-0.170
3703,-0.440,-0.150
3704,-0.440,-0.150
3705,-0.450,-0.120
3706,-0.405,-0.120
3707,-0.405,-0.095
3708,-0.370,-0.100
3709,-0.390,-0.120
3710,-0.380,-0.125
3711,-0.385,-0.110
3712,-0.375,-0.150
3713,-0.375,-0.230
3714,-0.380,-0.225
3715,-0.400,-0.235
3716,-0.410,-0.245
3717,-0.395,-0.240
3718,-0.405,-0.245
3719,-0.390,-0.235
3720,-0.395,-0.250
3721,-0.405,-0.255
3722,-0.395,-0.245
3723,-0.395,-0.230
3724,-0.390,-0.230
3725,-0.375,-0.230
3726,-0.380,-0.220
3727,-0.380,-0.195
3728,-0.380,-0.195
3729,-0.375,-0.180
3730,-0.395,-0.190
3731,-0.400,-0.180
3732,-0.380,-0.215
3733,-0.365,-0.245
3734,-0.390,-0.230
3735,-0.365,-0.240
3736,-0.365,-0.230
3737,-0.315,-0.180
3738,-0.315,-0.125
3739,-0.320,-0.125
3740,-0.345,-0.115
3741,-0.365,-0.140
3742,-0.390,-0.135
3743,-0.400,-0.185
3744,-0.395,-0.245
3745,-0.375,-0.270
3746,-0.370,-0.280
3747,-0.370,-0.325
3748,-0.370,-0.320
3749,-0.370,-0.305
3750,-0.380,-0.350
3751,-0.410,-0.355
3752,-0.370,-0.320
3753,-0.395,-0.310
3754,-0.385,-0.320
3755,-0.380,-0.370
3756,-0.370,-0.350
3757,-0.375,-0.370
3758,-0.375,-0.380
3759,-0.340,-0.415
3760,-0.240,-0.450
3761,-0.045,-0.145
3762,0.000,0.490
3763,-0.285,0.490
3764,-0.525,0.005
3765,-0.465,-0.705
3766,-0.395,-0.855
3767,-0.385,-0.625
3768,-0.395,-0.365
3769,-0.375,-0.345
3770,-0.385,-0.315
3771,-0.355,-0.295
3772,-0.390,-0.295
3773,-0.360,-0.305
3774,-0.365,-0.300
3775,-0.370,-0.305
3776,-0.365,-0.320
3777,-0.365,-0.325
3778,-0.365,-0.315
3779,-0.355,-0.290
3780,-0.370,-0.310
3781,-0.350,-0.285
3782,-0.355,-0.260
3783,-0.355,-0.240
3784,-0.360,-0.240
3785,-0.355,-0.230
3786,-0.340,-0.225
3787,-0.355,-0.200
3788,-0.360,-0.175
3789,-0.345,-0.155
3790,-0.340,-0.175
3791,-0.350,-0.110
3792,-0.370,-0.125
3793,-0.355,-0.105
3794,-0.335,-0.115
3795,-0.345,-0.095
3796,-0.355,-0.080
3797,-0.300,-0.065
3798,-0.305,-0.070
3799,-0.305,-0.060
3800,-0.290,-0.060
3801,-0.305,-0.100
3802,-0.275,-0.130
3803,-0.285,-0.155
3804,-0.300,-0.145
3805,-0.285,-0.160
3806,-0.290,-0.155
3807,-0.285,-0.210
3808,-0.290,-0.190
3809,-0.290,-0.180
3810,-0.290,-0.190
3811,-0.280,-0.185
3812,-0.270,-0.180
3813,-0.280,-0.180
3814,-0.270,-0.150
3815,-0.255,-0.120
3816,-0.260,-0.050
3817,-0.245,-0.055
3818,-0.260,-0.070
3819,-0.240,-0.040
3820,-0.255,-0.030
3821,-0.255,-0.020
3822,-0.260,-0.020
3823,-0.245,0.000
3824,-0.260,0.000
3825,-0.240,0.000
3826,-0.240,-0.010
3827,-0.215,0.030
3828,-0.200,0.055
3829,-0.200,0.100
3830,-0.210,0.130
3831,-0.240,0.115
3832,-0.275,0.050
3833,-0.305,0.025
3834,-0.295,-0.050
3835,-0.295,-0.050
3836,-0.295,-0.075
3837,-0.305,-0.070
3838,-0.285,-0.085
3839,-0.305,-0.055
3840,-0.320,-0.035
3841,-0.310,-0.040
3842,-0.285,-0.015
3843,-0.305,0.040
3844,-0.290,0.030
3845,-0.295,0.035
3846,-0.285,-0.020
3847,-0.275,-0.040
3848,-0.300,-0.065
3849,-0.270,-0.130
3850,-0.155,-0.195
3851,0.025,0.000
3852,0.120,0.540
3853,-0.185,0.720
3854,-0.450,0.300
3855,-0.400,-0.415
3856,-0.320,-0.575
3857,-0.290,-0.340
3858,-0.285,-0.105
3859,-0.295,-0.095
3860,-0.290,-0.085
3861,-0.300,-0.070
3862,-0.250,-0.085
3863,-0.280,-0.060
3864,-0.260,-0.070
3865,-0.260,-0.075
3866,-0.270,-0.050
3867,-0.265,-0.065
3868,-0.265,-0.035
3869,-0.275,-0.045
3870,-0.275,-0.035
3871,-0.270,-0.005
3872,-0.275,-0.025
3873,-0.280,-0.030
3874,-0.275,-0.020
3875,-0.245,-0.030
3876,-0.270,-0.020
3877,-0.250,-0.025
3878,-0.240,0.030
3879,-0.260,0.035
3880,-0.260,0.070
3881,-0.270,0.080
3882,-0.275,0.095
3883,-0.265,0.085
3884,-0.255,0.095
3885,-0.240,0.110
3886,-0.230,0.115
3887,-0.205,0.115
3888,-0.200,0.125
3889,-0.195,0.150
3890,-0.185,0.130
3891,-0.185,0.095
3892,-0.190,0.070
3893,-0.195,0.050
3894,-0.195,0.030
3895,-0.180,0.015
3896,-0.185,0.005
3897,-0.200,0.000
3898,-0.185,0.020
3899,-0.190,0.030
3900,-0.180,0.015
3901,-0.165,0.025
3902,-0.180,0.025
3903,-0.170,0.015
3904,-0.160,0.010
3905,-0.150,0.015
3906,-0.155,0.015
3907,-0.155,0.015
3908,-0.165,0.045
3909,-0.140,0.015
3910,-0.135,0.040
3911,-0.160,0.035
3912,-0.145,0.030
3913,-0.155,0.040
3914,-0.155,0.065
3915,-0.155,0.030
3916,-0.115,0.055
3917,-0.075,0.090
3918,-0.090,0.150
3919,-0.085,0.135
3920,-0.120,0.150
3921,-0.145,0.130
3922,-0.170,0.105
3923,-0.195,0.045
3924,-0.175,0.005
3925,-0.160,-0.005
3926,-0.160,-0.010
3927,-0.155,-0.020
3928,-0.165,-0.045
3929,-0.160,-0.040
3930,-0.150,-0.070
3931,-0.160,-0.060
3932,-0.155,-0.040
3933,-0.150,-0.090
3934,-0.140,-0.100
3935,-0.145,-0.100
3936,-0.135,-0.100
3937,-0.135,-0.100
3938,-0.155,-0.140
3939,-0.120,-0.225
3940,0.020,-0.210
3941,0.230,0.015
3942,0.255,0.550
3943,-0.065,0.645
3944,-0.370,0.280
3945,-0.235,-0.445
3946,-0.140,-0.475
3947,-0.125,-0.230
3948,-0.120,-0.105
3949,-0.135,-0.095
3950,-0.110,-0.100
3951,-0.100,-0.110
3952,-0.115,-0.110
3953,-0.115,-0.130
3954,-0.105,-0.105
3955,-0.105,-0.075
3956,-0.100,-0.070
3957,-0.100,-0.090
3958,-0.090,-0.100
3959,-0.080,-0.095
3960,-0.075,-0.080
3961,-0.080,-0.075
3962,-0.070,-0.085
3963,-0.070,-0.080
3964,-0.065,-0.065
3965,-0.080,-0.025
3966,-0.065,-0.050
3967,-0.070,-0.030
3968,-0.050,-0.030
3969,-0.055,-0.020
3970,-0.065,0.000
3971,-0.065,0.000
3972,-0.040,0.020
3973,-0.030,0.025
3974,-0.030,0.055
3975,-0.025,0.045
3976,0.000,0.030
3977,0.000,0.045
3978,0.000,0.095
3979,0.005,0.065
3980,0.030,0.000
3981,0.015,0.020
3982,0.025,0.005
3983,0.005,0.000
3984,0.020,-0.020
3985,0.005,-0.040
3986,0.020,-0.040
3987,0.000,-0.075
3988,0.000,-0.040
3989,0.005,-0.055
3990,0.025,-0.070
3991,0.015,-0.075
3992,0.030,-0.065
3993,0.025,-0.050
3994,0.015,-0.025
3995,0.035,-0.005
3996,0.030,-0.065
3997,0.025,-0.080
3998,0.025,-0.055
3999,0.035,-0.040
4000,0.035,-0.050
4001,0.035,-0.035
4002,0.030,-0.035
4003,0.045,-0.050
4004,0.045,-0.035
4005,0.065,-0.045
4006,0.065,-0.055
4007,0.100,-0.010
4008,0.135,0.035
4009,0.110,0.090
4010,0.120,0.090
4011,0.105,0.090
4012,0.070,0.070
4013,0.025,0.020
4014,0.030,-0.005
4015,0.050,-0.060
4016,0.045,-0.120
4017,0.060,-0.120
4018,0.060,-0.125
4019,0.075,-0.170
4020,0.060,-0.180
4021,0.080,-0.175
4022,0.050,-0.165
4023,0.065,-0.160
4024,0.070,-0.165
4025,0.075,-0.180
4026,0.085,-0.170
4027,0.095,-0.180
4028,0.100,-0.190
4029,0.090,-0.210
4030,0.140,-0.280
4031,0.315,-0.240
4032,0.515,0.110
4033,0.455,0.735
4034,0.105,0.545
4035,-0.070,0.040
4036,0.015,-0.660
4037,0.085,-0.685
4038,0.105,-0.415
4039,0.105,-0.210
4040,0.105,-0.165
4041,0.100,-0.170
4042,0.100,-0.170
4043,0.085,-0.150
4044,0.110,-0.160
4045,0.110,-0.180
4046,0.100,-0.180
4047,0.105,-0.180
4048,0.120,-0.170
4049,0.100,-0.175
4050,0.105,-0.145
4051,0.100,-0.115
4052,0.110,-0.175
4053,0.085,-0.135
4054,0.075,-0.135
4055,0.085,-0.115
4056,0.100,-0.115
4057,0.090,-0.090
4058,0.085,-0.080
4059,0.075,-0.065
4060,0.075,-0.070
4061,0.035,-0.070
4062,0.055,-0.055
4063,0.060,-0.045
4064,0.085,-0.045
4065,0.090,-0.020
4066,0.085,-0.010
4067,0.110,0.020
4068,0.115,0.015
4069,0.140,0.025
4070,0.145,0.050
4071,0.150,0.000
4072,0.140,0.000
4073,0.155,-0.020
4074,0.145,-0.030
4075,0.145,-0.050
4076,0.135,-0.075
4077,0.140,-0.100
4078,0.135,-0.125
4079,0.140,-0.125
4080,0.160,-0.120
4081,0.140,-0.085
4082,0.140,-0.110
4083,0.165,-0.100
4084,0.160,-0.135
4085,0.170,-0.110
4086,0.175,-0.095
4087,0.155,-0.075
4088,0.155,-0.085
4089,0.165,-0.080
4090,0.165,-0.065
4091,0.165,-0.025
4092,0.150,-0.050
4093,0.165,-0.075
4094,0.150,-0.060
4095,0.155,-0.065
4096,0.180,-0.050
4097,0.200,-0.020
4098,0.230,-0.005
4099,0.255,0.035
4100,0.255,0.085
4101,0.250,0.070
4102,0.220,0.060
4103,0.175,0.045
4104,0.150,0.010
4105,0.165,-0.050
4106,0.180,-0.080
4107,0.185,-0.115
4108,0.165,-0.115
4109,0.180,-0.145
4110,0.165,-0.180
4111,0.165,-0.165
4112,0.180,-0.175
4113,0.155,-0.145
4114,0.165,-0.180
4115,0.165,-0.190
4116,0.175,-0.160
4117,0.165,-0.200
4118,0.155,-0.195
4119,0.150,-0.210
4120,0.180,-0.250
4121,0.240,-0.315
4122,0.405,-0.150
4123,0.570,0.355
4124,0.395,0.790
4125,0.065,0.375
4126,-0.010,-0.255
4127,0.100,-0.755
4128,0.130,-0.630
4129,0.135,-0.370
4130,0.135,-0.225
4131,0.135,-0.200
4132,0.135,-0.190
4133,0.145,-0.230
4134,0.140,-0.255
4135,0.120,-0.235
4136,0.145,-0.260
4137,0.125,-0.245
4138,0.125,-0.255
4139,0.120,-0.240
4140,0.120,-0.230
4141,0.100,-0.225
4142,0.125,-0.255
4143,0.125,-0.195
4144,0.125,-0.185
4145,0.115,-0.210
4146,0.130,-0.235
4147,0.110,-0.240
4148,0.130,-0.195
4149,0.130,-0.155
4150,0.125,-0.170
4151,0.115,-0.130
4152,0.115,-0.105
4153,0.120,-0.095
4154,0.110,-0.125
4155,0.120,-0.150
4156,0.115,-0.100
4157,0.125,-0.100
4158,0.125,-0.070
4159,0.130,-0.100
4160,0.135,-0.110
4161,0.135,-0.110
4162,0.160,-0.115
4163,0.150,-0.155
4164,0.165,-0.180
4165,0.160,-0.160
4166,0.130,-0.225
4167,0.140,-0.205
4168,0.130,-0.215
4169,0.105,-0.205
4170,0.105,-0.200
4171,0.085,-0.255
4172,0.060,-0.225
4173,0.045,-0.240
4174,0.045,-0.260
4175,0.050,-0.230
4176,0.045,-0.210
4177,0.065,-0.215
4178,0.055,-0.225
4179,0.065,-0.235
4180,0.055,-0.225
4181,0.060,-0.285
4182,0.055,-0.285
4183,0.065,-0.260
4184,0.080,-0.260
4185,0.075,-0.240
4186,0.035,-0.230
4187,0.055,-0.275
4188,0.075,-0.215
4189,0.065,-0.225
4190,0.085,-0.165
4191,0.070,-0.120
4192,0.070,-0.090
4193,0.060,-0.150
4194,0.005,-0.160
4195,-0.025,-0.180
4196,-0.040,-0.235
4197,-0.035,-0.275
4198,-0.050,-0.280
4199,-0.050,-0.290
4200,-0.045,-0.275
4201,-0.035,-0.310
4202,-0.040,-0.355
4203,-0.065,-0.360
4204,0.010,-0.335
4205,0.075,-0.345
4206,0.025,-0.355
4207,0.025,-0.375
4208,0.020,-0.370
4209,0.015,-0.345
4210,-0.005,-0.305
4211,-0.055,-0.345
4212,-0.015,-0.515
4213,0.140,-0.465
4214,0.295,0.000
4215,0.020,0.505
4216,-0.325,0.200
4217,-0.465,-0.405
4218,-0.360,-0.955
4219,-0.275,-0.830
4220,-0.285,-0.480
4221,-0.305,-0.405
4222,-0.295,-0.375
4223,-0.295,-0.435
4224,-0.260,-0.450
4225,-0.255,-0.400
4226,-0.245,-0.370
4227,-0.255,-0.370
4228,-0.230,-0.390
4229,-0.215,-0.375
4230,-0.195,-0.365
4231,-0.190,-0.375
4232,-0.180,-0.375
4233,-0.165,-0.360
4234,-0.160,-0.325
4235,-0.165,-0.335
4236,-0.160,-0.365
4237,-0.135,-0.290
4238,-0.160,-0.265
4239,-0.155,-0.385
4240,-0.165,-0.360
4241,-0.155,-0.300
4242,-0.155,-0.285
4243,-0.150,-0.235
4244,-0.150,-0.275
4245,-0.125,-0.235
4246,-0.135,-0.200
4247,-0.120,-0.215
4248,-0.130,-0.165
4249,-0.125,-0.120
4250,-0.100,-0.185
4251,-0.105,-0.300
4252,-0.115,-0.230
4253,-0.125,-0.225
4254,-0.120,-0.230
4255,-0.155,-0.275
4256,-0.150,-0.270
4257,-0.150,-0.285
4258,-0.135,-0.285
4259,-0.165,-0.275
4260,-0.195,-0.265
4261,-0.205,-0.255
4262,-0.190,-0.375
4263,-0.160,-0.380
4264,-0.150,-0.350
4265,-0.140,-0.340
4266,-0.135,-0.330
4267,-0.120,-0.320
4268,-0.105,-0.325
4269,-0.105,-0.325
4270,-0.105,-0.320
4271,-0.130,-0.305
4272,-0.160,-0.230
4273,-0.195,-0.315
4274,-0.215,-0.365
4275,-0.200,-0.350
4276,-0.230,-0.295
4277,-0.230,-0.290
4278,-0.230,-0.300
4279,-0.200,-0.300
4280,-0.170,-0.240
4281,-0.145,-0.180
4282,-0.155,-0.150
4283,-0.160,-0.130
4284,-0.160,-0.145
4285,-0.210,-0.195
4286,-0.250,-0.210
4287,-0.220,-0.235
4288,-0.210,-0.285
4289,-0.210,-0.405
4290,-0.220,-0.365
4291,-0.200,-0.380
4292,-0.210,-0.365
4293,-0.200,-0.370
4294,-0.210,-0.380
4295,-0.135,-0.380
4296,-0.105,-0.400
4297,-0.085,-0.395
4298,-0.090,-0.405
4299,-0.100,-0.405
4300,-0.115,-0.380
4301,-0.120,-0.405
4302,-0.125,-0.490
4303,-0.040,-0.565
4304,0.155,-0.370
4305,0.230,0.170
4306,-0.090,0.425
4307,-0.430,0.055
4308,-0.345,-0.650
4309,-0.225,-0.830
4310,-0.175,-0.600
4311,-0.165,-0.395
4312,-0.170,-0.340
4313,-0.170,-0.355
4314,-0.180,-0.345
4315,-0.170,-0.355
4316,-0.170,-0.325
4317,-0.180,-0.335
4318,-0.185,-0.335
4319,-0.180,-0.330
4320,-0.180,-0.330
4321,-0.175,-0.300
4322,-0.165,-0.300
4323,-0.145,-0.285
4324,-0.140,-0.255
4325,-0.155,-0.260
4326,-0.175,-0.275
4327,-0.220,-0.265
4328,-0.285,-0.255
4329,-0.285,-0.205
4330,-0.265,-0.170
4331,-0.205,-0.195
4332,-0.175,-0.205
4333,-0.170,-0.180
4334,-0.150,-0.170
4335,-0.140,-0.140
4336,-0.140,-0.140
4337,-0.145,-0.120
4338,-0.140,-0.095
4339,-0.135,-0.025
4340,-0.125,-0.030
4341,-0.095,-0.040
4342,-0.080,-0.005
4343,-0.065,-0.020
4344,-0.090,-0.055
4345,-0.105,-0.055
4346,-0.120,-0.090
4347,-0.150,-0.140
4348,-0.170,-0.175
4349,-0.185,-0.120
4350,-0.160,-0.135
4351,-0.170,-0.215
4352,-0.145,-0.225
4353,-0.125,-0.185
4354,-0.110,-0.175
4355,-0.130,-0.195
4356,-0.110,-0.160
4357,-0.085,-0.145
4358,-0.060,-0.145
4359,-0.020,-0.170
4360,-0.005,-0.160
4361,-0.035,-0.130
4362,-0.080,-0.120
4363,-0.100,-0.150
4364,-0.130,-0.110
4365,-0.115,-0.115
4366,-0.120,-0.180
4367,-0.135,-0.155
4368,-0.125,-0.125
4369,-0.105,-0.120
4370,-0.080,-0.070
4371,-0.070,-0.005
4372,-0.070,0.000
4373,-0.080,0.000
4374,-0.085,0.040
4375,-0.145,0.020
4376,-0.170,-0.025
4377,-0.220,-0.150
4378,-0.190,-0.155
4379,-0.185,-0.120
4380,-0.200,-0.155
4381,-0.195,-0.175
4382,-0.185,-0.185
4383,-0.195,-0.190
4384,-0.210,-0.170
4385,-0.205,-0.170
4386,-0.195,-0.155
4387,-0.190,-0.180
4388,-0.160,-0.190
4389,-0.160,-0.160
4390,-0.180,-0.175
4391,-0.165,-0.165
4392,-0.170,-0.215
4393,-0.105,-0.325
4394,0.050,-0.220
4395,0.250,0.200
4396,0.095,0.755
4397,-0.280,0.390
4398,-0.435,-0.165
4399,-0.350,-0.740
4400,-0.220,-0.655
4401,-0.185,-0.285
4402,-0.195,-0.170
4403,-0.190,-0.075
4404,-0.170,-0.110
4405,-0.170,-0.160
4406,-0.145,-0.180
4407,-0.170,-0.150
4408,-0.165,-0.120
4409,-0.160,-0.135
4410,-0.160,-0.110
4411,-0.160,-0.110
4412,-0.170,-0.095
4413,-0.175,-0.090
4414,-0.165,-0.075
4415,-0.140,-0.045
4416,-0.145,-0.045
4417,-0.130,-0.080
4418,-0.100,-0.050
4419,-0.060,-0.040
4420,-0.065,-0.025
4421,-0.045,-0.025
4422,-0.070,-0.025
4423,-0.060,0.000
4424,-0.075,0.015
4425,-0.090,0.020
4426,-0.115,0.055
4427,-0.125,0.060
4428,-0.125,0.030
4429,-0.070,0.050
4430,-0.055,0.090
4431,-0.055,0.090
4432,-0.035,0.105
4433,-0.065,0.105
4434,-0.095,0.100
4435,-0.095,0.070
4436,-0.110,0.040
4437,-0.095,0.025
4438,-0.095,0.020
4439,-0.095,-0.005
4440,-0.065,-0.025
4441,-0.065,-0.010
4442,-0.050,0.010
4443,-0.020,-0.060
4444,0.005,-0.050
4445,0.050,-0.010
4446,0.055,0.000
4447,0.060,0.030
4448,0.050,0.010
4449,0.060,0.025
4450,0.060,0.060
4451,0.060,0.050
4452,0.030,0.055
4453,0.030,0.050
4454,0.010,0.020
4455,0.005,0.015
4456,-0.005,0.020
4457,-0.025,0.035
4458,-0.035,0.030
4459,-0.040,-0.020
4460,-0.025,0.045
4461,-0.010,0.095
4462,-0.005,0.105
4463,-0.010,0.135
4464,-0.070,0.115
4465,-0.085,0.045
4466,-0.110,0.040
4467,-0.100,-0.020
4468,-0.085,-0.030
4469,-0.075,-0.015
4470,-0.080,-0.055
4471,-0.085,-0.115
4472,-0.095,-0.100
4473,-0.085,-0.065
4474,-0.110,-0.095
4475,-0.090,-0.065
4476,-0.095,-0.115
4477,-0.095,-0.090
4478,-0.095,-0.105
4479,-0.090,-0.110
4480,-0.090,-0.100
4481,-0.100,-0.155
4482,-0.095,-0.275
4483,0.000,-0.225
4484,0.235,0.035
4485,0.315,0.630
4486,0.095,0.845
4487,-0.215,0.370
4488,-0.200,-0.335
4489,-0.130,-0.580
4490,-0.125,-0.255
4491,-0.140,-0.080
4492,-0.175,-0.075
4493,-0.160,-0.070
4494,-0.190,-0.090
4495,-0.185,-0.085
4496,-0.160,-0.060
4497,-0.120,-0.070
4498,-0.105,-0.095
4499,-0.130,-0.075
4500,-0.135,-0.055
4501,-0.100,-0.075
4502,-0.100,-0.060
4503,-0.085,-0.090
4504,-0.080,-0.050
4505,-0.085,-0.060
4506,-0.070,-0.020
4507,-0.085,-0.030
4508,-0.075,-0.015
4509,-0.070,0.000
4510,-0.070,0.005
4511,-0.075,0.010
4512,-0.055,0.010
4513,-0.060,0.025
4514,-0.065,0.030
4515,-0.090,0.025
4516,-0.085,0.030
4517,-0.095,0.040
4518,-0.085,0.060
4519,-0.060,0.035
4520,-0.055,0.075
4521,-0.030,0.115
4522,-0.030,0.085
4523,-0.025,0.030
4524,-0.040,0.020
4525,-0.040,0.035
4526,-0.025,0.025
4527,-0.020,0.010
4528,-0.040,-0.015
4529,-0.030,-0.030
4530,-0.015,-0.040
4531,-0.030,-0.030
4532,-0.025,-0.045
4533,-0.025,-0.040
4534,-0.020,-0.015
4535,-0.020,-0.025
4536,-0.010,-0.005
4537,-0.020,0.005
4538,-0.015,0.000
4539,-0.030,0.015
4540,-0.025,0.005
4541,-0.020,0.000
4542,-0.020,0.005
4543,-0.020,0.010
4544,0.000,0.005
4545,-0.010,0.010
4546,-0.010,0.015
4547,-0.005,0.025
4548,0.005,0.000
4549,0.030,0.010
4550,0.030,0.040
4551,0.045,0.090
4552,0.050,0.110
4553,0.015,0.125
4554,-0.010,0.115
4555,-0.055,0.085
4556,-0.055,0.010
4557,-0.060,-0.020
4558,-0.045,-0.030
4559,-0.050,-0.020
4560,-0.045,-0.055
4561,-0.055,-0.070
4562,-0.035,-0.065
4563,-0.055,-0.080
4564,-0.055,-0.035
4565,-0.040,-0.065
4566,-0.055,-0.070
4567,-0.030,-0.050
4568,-0.010,-0.105
4569,-0.020,-0.125
4570,-0.025,-0.110
4571,-0.040,-0.160
4572,0.045,-0.240
4573,0.230,-0.135
4574,0.490,0.300
4575,0.480,0.920
4576,0.125,0.955
4577,-0.220,0.360
4578,-0.150,-0.370
4579,-0.045,-0.425
4580,-0.060,-0.155
4581,-0.060,-0.105
4582,-0.045,-0.095
4583,-0.050,-0.095
4584,-0.060,-0.095
4585,-0.055,-0.095
4586,-0.055,-0.065
4587,-0.060,-0.065
4588,-0.060,-0.110
4589,-0.060,-0.080
4590,-0.065,-0.055
4591,-0.050,-0.105
4592,-0.065,-0.075
4593,-0.065,-0.110
4594,-0.075,-0.100
4595,-0.050,-0.070
4596,-0.045,-0.060
4597,-0.035,-0.040
4598,-0.050,-0.035
4599,-0.055,-0.015
4600,-0.045,0.000
4601,-0.040,0.010
4602,-0.045,0.010
4603,-0.045,0.015
4604,-0.045,0.045
4605,-0.040,0.050
4606,-0.035,0.050
4607,-0.010,0.065
4608,-0.030,0.075
4609,-0.010,0.085
4610,0.000,0.070
4611,0.025,0.070
4612,0.020,0.085
4613,0.020,0.070
4614,0.020,0.030
4615,0.010,0.010
4616,0.010,0.010
4617,0.000,0.000
4618,0.000,-0.035
4619,0.005,-0.040
4620,-0.005,-0.040
4621,0.000,-0.040
4622,0.010,-0.045
4623,0.030,-0.055
4624,0.035,-0.030
4625,0.050,-0.015
4626,0.035,-0.010
4627,0.055,-0.020
4628,0.040,-0.020
4629,0.045,-0.010
4630,0.045,0.000
4631,0.030,-0.025
4632,0.045,-0.020
4633,0.040,-0.005
4634,0.035,-0.010
4635,0.030,-0.045
4636,0.020,-0.035
4637,0.025,-0.030
4638,0.050,0.000
4639,0.065,0.030
4640,0.110,0.035
4641,0.105,0.085
4642,0.085,0.110
4643,0.070,0.105
4644,0.025,0.075
4645,-0.005,0.035
4646,-0.015,0.000
4647,-0.015,-0.020
4648,-0.005,-0.080
4649,0.000,-0.105
4650,-0.005,-0.120
4651,0.000,-0.145
4652,-0.020,-0.110
4653,-0.015,-0.110
4654,-0.035,-0.135
4655,-0.025,-0.155
4656,-0.025,-0.170
4657,-0.040,-0.145
4658,-0.025,-0.135
4659,-0.035,-0.140
4660,-0.030,-0.195
4661,-0.045,-0.250
4662,-0.015,-0.360
4663,0.105,-0.355
4664,0.375,-0.035
4665,0.270,0.550
4666,-0.125,0.475
4667,-0.285,0.005
4668,-0.090,-0.610
4669,-0.040,-0.375
4670,-0.030,-0.195
4671,-0.040,-0.185
4672,-0.050,-0.180
4673,-0.045,-0.170
4674,-0.045,-0.150
4675,-0.045,-0.195
4676,-0.035,-0.200
4677,-0.030,-0.190
4678,-0.005,-0.165
4679,-0.020,-0.155
4680,-0.040,-0.140
4681,-0.040,-0.155
4682,-0.035,-0.155
4683,-0.020,-0.145
4684,-0.025,-0.150
4685,-0.015,-0.140
4686,-0.020,-0.100
4687,0.000,-0.105
4688,-0.005,-0.125
4689,-0.010,-0.175
4690,0.000,-0.115
4691,-0.005,-0.080
4692,0.000,-0.060
4693,-0.005,-0.070
4694,0.000,-0.050
4695,0.005,-0.045
4696,0.000,-0.030
4697,0.025,-0.015
4698,0.035,-0.010
4699,0.040,0.000
4700,0.065,0.000
4701,0.075,0.010
4702,0.090,-0.005
4703,0.075,-0.045
4704,0.065,-0.045
4705,0.045,-0.060
4706,0.055,-0.090
4707,0.045,-0.090
4708,0.050,-0.130
4709,0.045,-0.120
4710,0.065,-0.105
4711,0.025,-0.110
4712,0.065,-0.110
4713,0.075,-0.170
4714,0.075,-0.140
4715,0.085,-0.125
4716,0.085,-0.105
4717,0.075,-0.110
4718,0.070,-0.090
4719,0.080,-0.105
4720,0.070,-0.090
4721,0.100,-0.105
4722,0.090,-0.100
4723,0.095,-0.090
4724,0.090,-0.080
4725,0.080,-0.075
4726,0.090,-0.100
4727,0.095,-0.090
4728,0.095,-0.070
4729,0.130,-0.030
4730,0.145,0.010
4731,0.160,0.040
4732,0.150,0.025
4733,0.125,0.020
4734,0.080,0.015
4735,0.040,0.000
4736,0.040,-0.070
4737,0.055,-0.165
4738,0.025,-0.130
4739,0.045,-0.135
4740,0.040,-0.190
4741,0.025,-0.215
4742,0.040,-0.190
4743,0.020,-0.195
4744,0.030,-0.210
4745,0.020,-0.200
4746,0.020,-0.210
4747,0.010,-0.185
4748,0.035,-0.190
4749,0.045,-0.195
4750,0.045,-0.200
4751,0.030,-0.245
4752,0.090,-0.350
4753,0.275,-0.230
4754,0.475,0.220
4755,0.280,0.680
4756,-0.115,0.300
4757,-0.270,-0.245
4758,-0.140,-0.820
4759,0.000,-0.750
4760,0.025,-0.315
4761,0.030,-0.245
4762,0.005,-0.250
4763,0.000,-0.240
4764,-0.005,-0.250
4765,0.000,-0.230
4766,-0.010,-0.215
4767,0.005,-0.215
4768,0.005,-0.230
4769,-0.010,-0.245
4770,0.000,-0.210
4771,0.015,-0.195
4772,0.000,-0.200
4773,0.000,-0.205
4774,0.000,-0.220
4775,0.015,-0.200
4776,0.005,-0.185
4777,0.000,-0.190
4778,0.000,-0.155
4779,0.000,-0.170
4780,0.000,-0.140
4781,0.000,-0.135
4782,-0.015,-0.130
4783,0.000,-0.125
4784,0.000,-0.145
4785,-0.005,-0.095
4786,0.000,-0.125
4787,-0.010,-0.110
4788,0.000,-0.085
4789,0.010,-0.055
4790,0.020,-0.045
4791,0.025,-0.025
4792,0.045,-0.060
4793,0.040,-0.115
4794,0.040,-0.105
4795,0.015,-0.115
4796,0.035,-0.125
4797,0.020,-0.155
4798,0.010,-0.135
4799,0.000,-0.195
4800,-0.015,-0.200
4801,0.000,-0.200
4802,0.010,-0.175
4803,-0.015,-0.190
4804,-0.010,-0.170
4805,-0.005,-0.160
4806,0.000,-0.175
4807,0.000,-0.165
4808,0.000,-0.160
4809,0.015,-0.180
4810,0.015,-0.145
4811,0.015,-0.125
4812,0.015,-0.130
4813,0.020,-0.145
4814,0.010,-0.145
4815,0.015,-0.135
4816,0.015,-0.140
4817,0.000,-0.145
4818,0.005,-0.145
4819,0.025,-0.140
4820,0.075,-0.070
4821,0.075,0.000
4822,0.050,0.000
4823,0.015,-0.010
4824,-0.010,-0.020
4825,-0.015,-0.075
4826,-0.040,-0.130
4827,-0.045,-0.150
4828,-0.025,-0.180
4829,-0.035,-0.180
4830,-0.035,-0.195
4831,-0.025,-0.230
4832,-0.040,-0.235
4833,-0.050,-0.260
4834,-0.050,-0.275
4835,-0.045,-0.230
4836,-0.045,-0.240
4837,-0.030,-0.230
4838,-0.015,-0.235
4839,-0.005,-0.245
4840,-0.015,-0.240
4841,-0.015,-0.315
4842,0.005,-0.415
4843,0.105,-0.395
4844,0.290,-0.175
4845,0.425,0.565
4846,0.195,0.845
4847,-0.120,0.210
4848,-0.080,-0.540
4849,-0.035,-0.720
4850,-0.005,-0.340
4851,0.010,-0.230
4852,-0.025,-0.225
4853,-0.035,-0.255
4854,-0.040,-0.250
4855,-0.045,-0.230
4856,-0.040,-0.205
4857,-0.040,-0.220
4858,-0.040,-0.215
4859,-0.045,-0.200
4860,-0.035,-0.190
4861,-0.025,-0.210
4862,-0.035,-0.190
4863,-0.020,-0.200
4864,-0.015,-0.205
4865,-0.010,-0.215
4866,-0.025,-0.185
4867,-0.005,-0.190
4868,-0.005,-0.170
4869,-0.015,-0.170
4870,-0.030,-0.155
4871,-0.020,-0.135
4872,-0.025,-0.170
4873,-0.025,-0.160
4874,-0.030,-0.150
4875,0.000,-0.105
4876,-0.005,-0.155
4877,-0.015,-0.135
4878,-0.010,-0.120
4879,0.000,-0.085
4880,0.025,-0.065
4881,0.025,-0.055
4882,0.040,-0.080
4883,0.040,-0.050
4884,0.030,-0.060
4885,0.020,-0.105
4886,0.025,-0.130
4887,0.035,-0.145
4888,0.015,-0.145
4889,0.000,-0.155
4890,0.000,-0.180
4891,0.000,-0.160
4892,0.015,-0.165
4893,0.010,-0.155
4894,0.000,-0.130
4895,0.010,-0.145
4896,0.020,-0.165
4897,0.015,-0.160
4898,0.005,-0.135
4899,0.005,-0.115
4900,-0.010,-0.140
4901,-0.005,-0.120
4902,0.000,-0.115
4903,0.000,-0.100
4904,-0.015,-0.130
4905,-0.015,-0.130
4906,0.000,-0.145
4907,0.000,-0.145
4908,0.000,-0.130
4909,0.035,-0.125
4910,0.050,-0.075
4911,0.060,-0.025
4912,0.050,-0.035
4913,0.020,-0.020
4914,0.000,-0.080
4915,-0.035,-0.120
4916,-0.035,-0.165
4917,-0.040,-0.210
4918,-0.020,-0.230
4919,-0.030,-0.220
4920,-0.015,-0.265
4921,-0.025,-0.270
4922,-0.015,-0.300
4923,-0.015,-0.270
4924,0.000,-0.295
4925,0.000,-0.285
4926,-0.015,-0.285
4927,-0.040,-0.265
4928,-0.040,-0.290
4929,-0.055,-0.255
4930,-0.030,-0.235
4931,-0.040,-0.340
4932,0.015,-0.440
4933,0.185,-0.350
4934,0.390,0.055
4935,0.245,0.645
4936,-0.100,0.380
4937,-0.295,0.060
4938,-0.240,-0.495
4939,-0.100,-0.750
4940,-0.075,-0.425
4941,-0.070,-0.295
4942,-0.095,-0.285
4943,-0.075,-0.300
4944,-0.070,-0.290
4945,-0.080,-0.320
4946,-0.070,-0.320
4947,-0.070,-0.300
4948,-0.060,-0.275
4949,-0.055,-0.270
4950,-0.055,-0.270
4951,-0.080,-0.295
4952,-0.055,-0.270
4953,-0.060,-0.300
4954,-0.065,-0.250
4955,-0.065,-0.270
4956,-0.065,-0.285
4957,-0.055,-0.245
4958,-0.050,-0.240
4959,-0.060,-0.210
4960,-0.060,-0.170
4961,-0.045,-0.240
4962,-0.025,-0.210
4963,-0.045,-0.185
4964,-0.055,-0.185
4965,-0.060,-0.170
4966,-0.045,-0.170
4967,-0.040,-0.125
4968,-0.030,-0.130
4969,-0.030,-0.120
4970,-0.020,-0.105
4971,0.000,-0.100
4972,0.010,-0.100
4973,0.010,-0.120
4974,0.000,-0.140
4975,0.000,-0.140
4976,-0.010,-0.155
4977,-0.010,-0.180
4978,-0.015,-0.220
4979,-0.005,-0.205
4980,-0.010,-0.200
4981,-0.005,-0.185
4982,-0.005,-0.215
4983,0.000,-0.210
4984,0.000,-0.185
4985,0.005,-0.200
4986,0.000,-0.180
4987,0.005,-0.195
4988,0.000,-0.190
4989,0.020,-0.190
4990,0.000,-0.185
4991,0.005,-0.180
4992,-0.005,-0.160
4993,0.030,-0.170
4994,0.000,-0.135
4995,0.010,-0.175
4996,0.010,-0.190
4997,0.005,-0.185
4998,0.015,-0.185
4999,0.040,-0.145
5000,0.080,-0.105
5001,0.080,-0.050
5002,0.050,-0.040
5003,0.030,-0.030
5004,0.000,-0.075
5005,-0.035,-0.100
5006,-0.040,-0.165
5007,-0.035,-0.175
5008,-0.015,-0.165
5009,-0.010,-0.225
5010,-0.025,-0.240
5011,-0.020,-0.255
5012,-0.020,-0.250
5013,-0.020,-0.275
5014,-0.030,-0.230
5015,-0.020,-0.225
5016,-0.015,-0.250
5017,-0.025,-0.280
5018,-0.025,-0.285
5019,-0.015,-0.275
5020,-0.030,-0.270
5021,-0.030,-0.370
5022,0.000,-0.430
5023,0.095,-0.405
5024,0.355,-0.215
5025,0.395,0.335
5026,0.015,0.520
5027,-0.270,0.100
5028,-0.135,-0.570
5029,-0.035,-0.540
5030,-0.025,-0.285
5031,-0.045,-0.275
5032,-0.055,-0.250
5033,-0.050,-0.275
5034,-0.040,-0.265
5035,-0.050,-0.250
5036,-0.035,-0.255
5037,-0.040,-0.245
5038,-0.040,-0.260
5039,-0.035,-0.300
5040,-0.035,-0.270
5041,-0.030,-0.265
5042,-0.040,-0.270
5043,-0.040,-0.240
5044,-0.035,-0.265
5045,-0.040,-0.240
5046,-0.040,-0.245
5047,-0.040,-0.220
5048,-0.035,-0.180
5049,-0.050,-0.170
5050,-0.040,-0.205
5051,-0.045,-0.170
5052,-0.030,-0.180
5053,-0.020,-0.180
5054,-0.015,-0.165
5055,-0.025,-0.125
5056,-0.020,-0.105
5057,-0.035,-0.090
5058,0.000,-0.110
5059,0.000,-0.095
5060,0.015,-0.085
5061,0.020,-0.060
5062,0.025,-0.085
5063,0.020,-0.095
5064,0.015,-0.120
5065,-0.005,-0.140
5066,-0.010,-0.205
5067,0.000,-0.200
5068,0.000,-0.185
5069,-0.005,-0.205
5070,-0.015,-0.205
5071,-0.015,-0.205
5072,-0.020,-0.210
5073,-0.010,-0.225
5074,-0.015,-0.200
5075,0.000,-0.200
5076,-0.015,-0.190
5077,-0.010,-0.160
5078,-0.025,-0.185
5079,0.000,-0.190
5080,0.000,-0.150
5081,0.000,-0.185
5082,0.000,-0.165
5083,0.000,-0.195
5084,-0.005,-0.190
5085,-0.010,-0.165
5086,-0.005,-0.150
5087,-0.015,-0.175
5088,-0.010,-0.185
5089,0.010,-0.165
5090,0.035,-0.090
5091,0.055,-0.070
5092,0.065,-0.050
5093,0.055,-0.040
5094,0.005,-0.010
5095,-0.025,-0.055
5096,-0.070,-0.120
5097,-0.055,-0.185
5098,-0.035,-0.195
5099,-0.020,-0.175
5100,-0.045,-0.255
5101,-0.040,-0.215
5102,-0.045,-0.260
5103,-0.025,-0.220
5104,-0.015,-0.240
5105,-0.030,-0.265
5106,-0.035,-0.250
5107,-0.050,-0.245
5108,-0.030,-0.245
5109,-0.040,-0.240
5110,-0.030,-0.215
5111,-0.030,-0.250
5112,-0.030,-0.315
5113,0.075,-0.380
5114,0.285,-0.225
5115,0.435,0.240
5116,0.225,0.635
5117,-0.015,0.305
5118,-0.250,0.070
5119,-0.125,-0.605
5120,-0.030,-0.490
5121,-0.030,-0.265
5122,-0.035,-0.255
5123,-0.035,-0.220
5124,-0.035,-0.250
5125,-0.030,-0.275
5126,-0.055,-0.250
5127,-0.025,-0.235
5128,-0.035,-0.220
5129,-0.040,-0.250
5130,-0.035,-0.210
5131,-0.030,-0.260
5132,-0.040,-0.235
5133,-0.035,-0.225
5134,-0.040,-0.205
5135,-0.035,-0.210
5136,-0.035,-0.195
5137,-0.030,-0.155
5138,-0.030,-0.200
5139,-0.025,-0.190
5140,-0.030,-0.165
5141,-0.025,-0.150
5142,-0.025,-0.120
5143,-0.035,-0.095
5144,-0.035,-0.095
5145,-0.025,-0.115
5146,-0.020,-0.090
5147,-0.015,-0.115
5148,-0.010,-0.060
5149,0.000,-0.035
5150,0.005,-0.025
5151,0.010,-0.055
5152,0.025,-0.045
5153,0.035,-0.015
5154,0.025,-0.020
5155,0.020,-0.075
5156,0.015,-0.095
5157,0.000,-0.085
5158,0.015,-0.120
5159,0.000,-0.155
5160,-0.005,-0.165
5161,0.000,-0.155
5162,-0.025,-0.150
5163,-0.020,-0.155
5164,-0.005,-0.150
5165,-0.005,-0.140
5166,-0.005,-0.135
5167,-0.010,-0.110
5168,0.000,-0.120
5169,-0.010,-0.095
5170,-0.015,-0.120
5171,-0.020,-0.125
5172,-0.040,-0.125
5173,-0.040,-0.105
5174,-0.020,-0.120
5175,-0.025,-0.130
5176,-0.035,-0.130
5177,-0.035,-0.125
5178,-0.035,-0.125
5179,-0.040,-0.115
5180,-0.010,-0.100
5181,0.005,-0.080
5182,0.020,-0.045
5183,0.030,0.010
5184,0.015,0.005
5185,-0.005,0.030
5186,-0.050,0.000
5187,-0.075,-0.040
5188,-0.095,-0.105
5189,-0.070,-0.135
5190,-0.065,-0.155
5191,-0.060,-0.155
5192,-0.055,-0.220
5193,-0.050,-0.205
5194,-0.055,-0.240
5195,-0.060,-0.205
5196,-0.045,-0.200
5197,-0.060,-0.260
5198,-0.055,-0.240
5199,-0.060,-0.205
5200,-0.055,-0.235
5201,-0.030,-0.215
5202,-0.050,-0.230
5203,-0.070,-0.270
5204,0.000,-0.355
5205,0.200,-0.255
5206,0.360,0.230
5207,0.245,0.810
5208,-0.135,0.375
5209,-0.240,-0.275
5210,-0.135,-0.845
5211,-0.090,-0.740
5212,-0.075,-0.355
5213,-0.065,-0.225
5214,-0.080,-0.205
5215,-0.060,-0.230
5216,-0.085,-0.215
5217,-0.070,-0.200
5218,-0.065,-0.200
5219,-0.085,-0.175
5220,-0.070,-0.210
5221,-0.075,-0.220
5222,-0.045,-0.220
5223,-0.065,-0.205
5224,-0.055,-0.200
5225,-0.070,-0.175
5226,-0.055,-0.180
5227,-0.090,-0.200
5228,-0.055,-0.160
5229,-0.050,-0.175
5230,-0.060,-0.135
5231,-0.055,-0.145
5232,-0.050,-0.140
5233,-0.050,-0.110
5234,-0.050,-0.105
5235,-0.035,-0.085
5236,-0.055,-0.070
5237,-0.060,-0.080
5238,-0.065,-0.075
5239,-0.040,-0.040
5240,-0.045,-0.065
5241,-0.040,-0.045
5242,-0.010,-0.010
5243,0.000,-0.010
5244,0.005,-0.015
5245,0.000,0.000
5246,0.000,-0.010
5247,-0.005,-0.050
5248,0.010,-0.065
5249,0.000,-0.075
5250,0.000,-0.070
5251,-0.005,-0.085
5252,-0.030,-0.100
5253,-0.020,-0.110
5254,-0.010,-0.130
5255,0.000,-0.120
5256,-0.025,-0.090
5257,-0.010,-0.105
5258,-0.010,-0.105
5259,-0.005,-0.080
5260,0.010,-0.050
5261,0.000,-0.075
5262,0.000,-0.040
5263,0.000,-0.040
5264,-0.010,-0.040
5265,-0.010,-0.030
5266,-0.005,-0.035
5267,-0.025,-0.070
5268,-0.020,-0.080
5269,-0.010,-0.090
5270,-0.005,-0.095
5271,-0.015,-0.055
5272,0.030,-0.060
5273,0.035,-0.015
5274,0.035,0.025
5275,0.040,0.065
5276,-0.005,0.065
5277,-0.035,0.035
5278,-0.040,0.005
5279,-0.070,-0.020
5280,-0.045,-0.090
5281,-0.050,-0.120
5282,-0.030,-0.125
5283,-0.035,-0.150
5284,-0.040,-0.185
5285,-0.045,-0.175
5286,-0.035,-0.170
5287,-0.045,-0.170
5288,-0.045,-0.175
5289,-0.045,-0.190
5290,-0.040,-0.185
5291,-0.030,-0.175
5292,-0.055,-0.155
5293,-0.055,-0.200
5294,-0.045,-0.320
5295,-0.025,-0.370
5296,0.110,-0.310
5297,0.325,0.025
5298,0.320,0.740
5299,-0.005,0.615
5300,-0.220,0.080
5301,-0.140,-0.635
5302,-0.100,-0.585
5303,-0.060,-0.250
5304,-0.085,-0.180
5305,-0.075,-0.200
5306,-0.080,-0.220
5307,-0.080,-0.210
5308,-0.105,-0.210
5309,-0.085,-0.180
5310,-0.085,-0.210
5311,-0.085,-0.205
5312,-0.100,-0.180
5313,-0.090,-0.185
5314,-0.085,-0.180
5315,-0.080,-0.170
5316,-0.075,-0.195
5317,-0.085,-0.145
5318,-0.085,-0.170
5319,-0.095,-0.180
5320,-0.070,-0.170
5321,-0.075,-0.140
5322,-0.080,-0.135
5323,-0.065,-0.125
5324,-0.080,-0.110
5325,-0.075,-0.090
5326,-0.070,-0.105
5327,-0.080,-0.095
5328,-0.075,-0.070
5329,-0.075,-0.090
5330,-0.060,-0.050
5331,-0.060,-0.040
5332,-0.045,-0.060
5333,-0.040,-0.010
5334,-0.015,-0.045
5335,-0.015,-0.035
5336,-0.020,-0.050
5337,-0.015,-0.045
5338,-0.025,-0.085
5339,-0.015,-0.090
5340,-0.020,-0.090
5341,-0.015,-0.120
5342,-0.020,-0.145
5343,-0.015,-0.165
5344,-0.015,-0.155
5345,-0.015,-0.165
5346,-0.025,-0.135
5347,-0.035,-0.135
5348,-0.015,-0.135
5349,-0.030,-0.120
5350,-0.015,-0.125
5351,-0.015,-0.110
5352,-0.005,-0.065
5353,-0.015,-0.080
5354,-0.010,-0.115
5355,-0.015,-0.095
5356,-0.015,-0.090
5357,-0.010,-0.090
5358,-0.015,-0.095
5359,-0.035,-0.105
5360,-0.030,-0.100
5361,-0.005,-0.120
5362,0.010,-0.095
5363,0.015,-0.045
5364,0.055,-0.020
5365,0.050,0.005
5366,0.055,0.005
5367,0.005,0.055
5368,-0.020,0.000
5369,-0.045,-0.030
5370,-0.040,-0.115
5371,-0.015,-0.110
5372,-0.030,-0.140
5373,-0.005,-0.150
5374,-0.005,-0.175
5375,-0.010,-0.165
5376,-0.005,-0.150
5377,-0.015,-0.175
5378,-0.010,-0.220
5379,-0.015,-0.190
5380,-0.005,-0.200
5381,0.000,-0.175
5382,0.000,-0.185
5383,0.000,-0.190
5384,-0.015,-0.230
5385,0.025,-0.290
5386,0.150,-0.300
5387,0.405,-0.065
5388,0.555,0.550
5389,0.350,0.950
5390,-0.095,0.605
5391,-0.215,-0.070
5392,-0.090,-0.600
5393,-0.005,-0.370
5394,-0.045,-0.205
5395,-0.015,-0.200
5396,-0.030,-0.175
5397,-0.025,-0.155
5398,-0.035,-0.180
5399,-0.030,-0.185
5400,-0.005,-0.215
5401,-0.025,-0.215
5402,-0.030,-0.185
5403,-0.025,-0.175
5404,-0.030,-0.185
5405,-0.010,-0.165
5406,-0.010,-0.175
5407,-0.005,-0.170
5408,-0.025,-0.155
5409,-0.015,-0.165
5410,-0.015,-0.140
5411,0.000,-0.125
5412,0.005,-0.130
5413,0.005,-0.100
5414,-0.015,-0.085
5415,0.000,-0.085
5416,0.000,-0.080
5417,0.000,-0.045
5418,-0.010,-0.040
5419,-0.020,-0.055
5420,0.000,-0.015
5421,0.005,-0.025
5422,0.005,-0.040
5423,0.020,-0.020
5424,0.020,0.000
5425,0.030,-0.005
5426,0.030,0.000
5427,0.030,-0.015
5428,0.035,-0.090
5429,0.005,-0.095
5430,0.000,-0.105
5431,0.010,-0.115
5432,0.000,-0.125
5433,0.000,-0.140
5434,0.000,-0.140
5435,0.000,-0.155
5436,0.005,-0.150
5437,0.005,-0.150
5438,-0.015,-0.155
5439,0.005,-0.145
5440,-0.015,-0.150
5441,0.000,-0.155
5442,0.000,-0.125
5443,0.005,-0.160
5444,-0.005,-0.155
5445,0.000,-0.145
5446,0.000,-0.140
5447,0.010,-0.140
5448,0.005,-0.135
5449,0.000,-0.120
5450,0.000,-0.115
5451,0.000,-0.125
5452,0.015,-0.095
5453,0.040,-0.070
5454,0.070,-0.040
5455,0.075,0.020
5456,0.075,0.005
5457,0.030,0.030
5458,-0.010,0.000
5459,-0.035,-0.015
5460,-0.045,-0.095
5461,-0.040,-0.155
5462,-0.010,-0.160
5463,-0.015,-0.155
5464,-0.015,-0.210
5465,-0.030,-0.175
5466,-0.020,-0.205
5467,-0.020,-0.220
5468,-0.035,-0.225
5469,-0.030,-0.205
5470,-0.025,-0.230
5471,-0.030,-0.210
5472,-0.030,-0.215
5473,-0.040,-0.245
5474,-0.055,-0.245
5475,-0.060,-0.265
5476,-0.025,-0.375
5477,0.165,-0.325
5478,0.385,0.060
5479,0.165,0.605
5480,-0.275,0.345
5481,-0.495,-0.180
5482,-0.340,-0.800
5483,-0.145,-0.730
5484,-0.105,-0.305
5485,-0.085,-0.260
5486,-0.040,-0.235
5487,-0.055,-0.255
5488,-0.065,-0.275
5489,-0.045,-0.270
5490,-0.025,-0.260
5491,-0.020,-0.265
5492,-0.015,-0.250
5493,-0.025,-0.245
5494,-0.010,-0.230
5495,-0.010,-0.225
5496,-0.015,-0.245
5497,0.000,-0.230
5498,0.000,-0.215
5499,0.010,-0.205
5500,0.030,-0.220
5501,0.025,-0.210
5502,0.015,-0.185
5503,0.000,-0.165
5504,-0.005,-0.160
5505,-0.045,-0.115
5506,-0.020,-0.135
5507,-0.040,-0.110
5508,-0.040,-0.130
5509,-0.025,-0.150
5510,-0.005,-0.120
5511,-0.005,-0.120
5512,0.000,-0.125
5513,0.010,-0.100
5514,0.035,-0.075
5515,0.025,-0.075
5516,0.025,-0.075
5517,0.000,-0.095
5518,0.000,-0.120
5519,-0.005,-0.140
5520,-0.025,-0.155
5521,-0.040,-0.150
5522,-0.060,-0.200
5523,-0.040,-0.240
5524,-0.065,-0.220
5525,-0.070,-0.220
5526,-0.055,-0.210
5527,-0.060,-0.215
5528,-0.150,-0.235
5529,-0.145,-0.195
5530,-0.070,-0.180
5531,0.030,-0.160
5532,0.100,-0.160
5533,0.115,-0.150
5534,0.145,-0.155
5535,0.155,-0.185
5536,0.100,-0.160
5537,0.075,-0.210
5538,0.060,-0.210
5539,0.055,-0.190
5540,0.025,-0.250
5541,0.015,-0.230
5542,0.000,-0.245
5543,0.010,-0.285
5544,0.000,-0.280
5545,0.035,-0.205
5546,0.060,-0.165
5547,0.060,-0.100
5548,0.060,-0.115
5549,0.050,-0.080
5550,0.025,-0.115
5551,0.005,-0.185
5552,-0.020,-0.185
5553,-0.040,-0.245
5554,-0.060,-0.275
5555,-0.080,-0.255
5556,-0.045,-0.235
5557,-0.045,-0.270
5558,-0.065,-0.295
5559,-0.060,-0.335
5560,-0.070,-0.300
5561,-0.075,-0.325
5562,-0.090,-0.365
5563,-0.065,-0.345
5564,-0.070,-0.300
5565,-0.095,-0.360
5566,-0.075,-0.380
5567,-0.065,-0.450
5568,-0.010,-0.500
5569,0.155,-0.385
5570,0.350,0.015
5571,0.195,0.475
5572,-0.175,0.130
5573,-0.245,-0.425
5574,-0.115,-0.910
5575,-0.080,-0.725
5576,-0.075,-0.485
5577,-0.085,-0.450
5578,-0.100,-0.455
5579,-0.085,-0.440
5580,-0.095,-0.445
5581,-0.075,-0.445
5582,-0.070,-0.425
5583,-0.070,-0.395
5584,-0.065,-0.400
5585,-0.075,-0.410
5586,-0.050,-0.470
5587,-0.110,-0.480
5588,-0.060,-0.455
5589,-0.065,-0.415
5590,-0.045,-0.430
5591,-0.060,-0.445
5592,-0.035,-0.450
5593,-0.060,-0.425
5594,-0.055,-0.405
5595,-0.035,-0.400
5596,-0.055,-0.370
5597,-0.075,-0.390
5598,-0.060,-0.405
5599,-0.060,-0.360
5600,-0.060,-0.360
5601,-0.055,-0.435
5602,-0.065,-0.400
5603,-0.040,-0.350
5604,-0.025,-0.305
5605,0.000,-0.315
5606,0.005,-0.290
5607,0.000,-0.290
5608,0.020,-0.340
5609,0.000,-0.370
5610,0.015,-0.385
5611,0.010,-0.360
5612,0.010,-0.365
5613,-0.015,-0.385
5614,-0.030,-0.420
5615,-0.075,-0.420
5616,-0.070,-0.430
5617,-0.070,-0.400
5618,-0.075,-0.365
5619,-0.085,-0.415
5620,-0.100,-0.415
5621,-0.105,-0.415
5622,-0.105,-0.445
5623,-0.070,-0.415
5624,-0.080,-0.380
5625,-0.090,-0.400
5626,-0.100,-0.395
5627,-0.100,-0.375
5628,-0.080,-0.355
5629,-0.100,-0.420
5630,-0.085,-0.380
5631,-0.090,-0.315
5632,-0.120,-0.370
5633,-0.095,-0.445
5634,-0.110,-0.430
5635,-0.095,-0.380
5636,-0.090,-0.360
5637,-0.050,-0.380
5638,-0.020,-0.315
5639,-0.040,-0.240
5640,-0.060,-0.270
5641,-0.105,-0.265
5642,-0.135,-0.310
5643,-0.145,-0.405
5644,-0.145,-0.440
5645,-0.135,-0.450
5646,-0.125,-0.405
5647,-0.125,-0.455
5648,-0.145,-0.550
5649,-0.145,-0.510
5650,-0.140,-0.495
5651,-0.145,-0.505
5652,-0.140,-0.500
5653,-0.110,-0.480
5654,-0.140,-0.485
5655,-0.135,-0.490
5656,-0.140,-0.500
5657,-0.125,-0.520
5658,-0.130,-0.565
5659,-0.060,-0.630
5660,0.065,-0.535
5661,0.280,-0.025
5662,0.270,0.570
5663,0.090,0.420
5664,-0.230,-0.010
5665,-0.240,-0.675
5666,-0.145,-0.985
5667,-0.085,-0.665
5668,-0.070,-0.550
5669,-0.075,-0.540
5670,-0.085,-0.500
5671,-0.070,-0.460
5672,-0.050,-0.495
5673,-0.030,-0.585
5674,-0.050,-0.535
5675,-0.045,-0.575
5676,-0.030,-0.520
5677,-0.030,-0.530
5678,-0.055,-0.560
5679,-0.035,-0.545
5680,-0.035,-0.530
5681,-0.040,-0.540
5682,-0.025,-0.515
5683,-0.035,-0.470
5684,-0.040,-0.510
5685,-0.040,-0.475
5686,-0.065,-0.465
5687,-0.050,-0.480
5688,-0.070,-0.470
5689,-0.075,-0.540
5690,-0.070,-0.510
5691,-0.075,-0.495
5692,-0.070,-0.495
5693,-0.060,-0.485
5694,-0.085,-0.485
5695,-0.070,-0.455
5696,-0.055,-0.460
5697,-0.045,-0.440
5698,-0.060,-0.450
5699,-0.045,-0.465
5700,-0.035,-0.465
5701,-0.015,-0.465
5702,-0.025,-0.455
5703,-0.035,-0.490
5704,-0.035,-0.525
5705,-0.050,-0.570
5706,-0.060,-0.565
5707,-0.035,-0.545
5708,-0.045,-0.500
5709,-0.040,-0.590
5710,-0.030,-0.560
5711,-0.045,-0.530
5712,-0.050,-0.605
5713,-0.055,-0.595
5714,-0.050,-0.585
5715,-0.050,-0.555
5716,-0.045,-0.570
5717,-0.075,-0.560
5718,-0.060,-0.570
5719,-0.095,-0.565
5720,-0.100,-0.585
5721,-0.115,-0.580
5722,-0.085,-0.605
5723,-0.100,-0.630
5724,-0.070,-0.630
5725,-0.065,-0.640
5726,-0.055,-0.645
5727,-0.045,-0.630
5728,-0.005,-0.590
5729,0.025,-0.540
5730,0.005,-0.505
5731,0.030,-0.490
5732,0.005,-0.460
5733,-0.025,-0.545
5734,-0.090,-0.590
5735,-0.075,-0.660
5736,-0.065,-0.660
5737,-0.070,-0.685
5738,-0.055,-0.700
5739,-0.050,-0.700
5740,-0.050,-0.635
5741,-0.040,-0.660
5742,-0.005,-0.710
5743,-0.010,-0.745
5744,0.005,-0.755
5745,0.015,-0.740
5746,0.045,-0.750
5747,0.055,-0.730
5748,0.070,-0.745
5749,0.085,-0.765
5750,0.070,-0.785
5751,0.125,-0.860
5752,0.295,-0.725
5753,0.415,-0.270
5754,0.160,0.110
5755,-0.185,-0.255
5756,-0.225,-0.790
5757,-0.095,-1.080
5758,-0.100,-0.835
5759,-0.125,-0.745
5760,-0.135,-0.775
5761,-0.150,-0.720
5762,-0.125,-0.715
5763,-0.120,-0.700
5764,-0.105,-0.670
5765,-0.105,-0.685
5766,-0.100,-0.670
5767,-0.090,-0.685
5768,-0.105,-0.680
5769,-0.105,-0.665
5770,-0.095,-0.640
5771,-0.080,-0.630
5772,-0.055,-0.620
5773,-0.030,-0.590
5774,-0.035,-0.530
5775,-0.035,-0.540
5776,-0.005,-0.640
5777,0.010,-0.620
5778,0.015,-0.570
5779,0.020,-0.530
5780,0.040,-0.600
5781,0.055,-0.590
5782,0.090,-0.575
5783,0.095,-0.545
5784,0.075,-0.550
5785,0.070,-0.550
5786,0.070,-0.530
5787,0.065,-0.500
5788,0.050,-0.470
5789,0.070,-0.470
5790,0.070,-0.450
5791,0.065,-0.445
5792,0.080,-0.465
5793,0.070,-0.480
5794,0.050,-0.485
5795,0.050,-0.515
5796,0.050,-0.595
5797,0.040,-0.625
5798,0.020,-0.605
5799,0.040,-0.620
5800,0.030,-0.565
5801,0.020,-0.560
5802,0.030,-0.540
5803,0.040,-0.615
5804,0.025,-0.595
5805,0.025,-0.605
5806,0.040,-0.575
5807,0.010,-0.545
5808,0.015,-0.590
5809,0.010,-0.525
5810,0.010,-0.520
5811,-0.005,-0.550
5812,-0.005,-0.555
5813,-0.010,-0.575
5814,0.005,-0.595
5815,-0.020,-0.595
5816,-0.020,-0.590
5817,-0.025,-0.550
5818,-0.005,-0.560
5819,0.030,-0.515
5820,0.060,-0.405
5821,0.050,-0.425
5822,0.035,-0.465
5823,0.005,-0.395
5824,-0.020,-0.430
5825,-0.055,-0.455
5826,-0.080,-0.435
5827,-0.100,-0.540
5828,-0.095,-0.695
5829,-0.075,-0.685
5830,-0.080,-0.680
5831,-0.095,-0.655
5832,-0.095,-0.635
5833,-0.115,-0.635
5834,-0.095,-0.565
5835,-0.070,-0.555
5836,-0.060,-0.545
5837,-0.070,-0.500
5838,-0.075,-0.500
5839,-0.060,-0.610
5840,-0.075,-0.685
5841,-0.060,-0.725
5842,0.020,-0.805
5843,0.240,-0.645
5844,0.415,-0.115
5845,0.095,0.310
5846,-0.275,-0.045
5847,-0.265,-0.770
5848,-0.075,-1.005
5849,-0.075,-0.620
5850,-0.140,-0.480
5851,-0.195,-0.550
5852,-0.200,-0.615
5853,-0.205,-0.565
5854,-0.205,-0.560
5855,-0.195,-0.575
5856,-0.200,-0.540
5857,-0.180,-0.605
5858,-0.190,-0.540
5859,-0.200,-0.475
5860,-0.185,-0.595
5861,-0.205,-0.595
5862,-0.195,-0.550
5863,-0.225,-0.540
5864,-0.245,-0.540
5865,-0.250,-0.525
5866,-0.250,-0.455
5867,-0.235,-0.435
5868,-0.275,-0.595
5869,-0.285,-0.475
5870,-0.295,-0.435
5871,-0.325,-0.410
5872,-0.330,-0.430
5873,-0.325,-0.400
5874,-0.310,-0.350
5875,-0.300,-0.350
5876,-0.245,-0.390
5877,-0.270,-0.250
5878,-0.340,-0.305
5879,-0.450,-0.155
5880,-0.485,-0.155
5881,-0.460,-0.340
5882,-0.395,-0.305
5883,-0.385,-0.210
5884,-0.305,-0.310
5885,-0.195,-0.380
5886,-0.190,-0.355
5887,-0.110,-0.415
5888,-0.065,-0.425
5889,-0.055,-0.430
5890,-0.080,-0.445
5891,-0.145,-0.410
5892,-0.175,-0.365
5893,-0.190,-0.270
5894,-0.165,-0.250
5895,-0.150,-0.360
5896,-0.125,-0.375
5897,-0.105,-0.390
5898,-0.085,-0.320
5899,-0.050,-0.230
5900,-0.015,-0.270
5901,0.000,-0.255
5902,0.040,-0.260
5903,0.045,-0.265
5904,0.035,-0.275
5905,0.005,-0.270
5906,0.005,-0.295
5907,-0.055,-0.305
5908,-0.105,-0.315
5909,-0.075,-0.280
5910,-0.045,-0.175
5911,-0.005,-0.310
5912,-0.005,-0.260
5913,0.000,-0.220
5914,-0.040,-0.205
5915,-0.075,-0.245
5916,-0.130,-0.290
5917,-0.135,-0.345
5918,-0.115,-0.385
5919,-0.110,-0.380
5920,-0.115,-0.405
5921,-0.115,-0.415
5922,-0.140,-0.400
5923,-0.150,-0.445
5924,-0.145,-0.425
5925,-0.145,-0.405
5926,-0.150,-0.435
5927,-0.160,-0.455
5928,-0.165,-0.435
5929,-0.170,-0.425
5930,-0.145,-0.420
5931,-0.155,-0.435
5932,-0.175,-0.475
5933,-0.045,-0.545
5934,0.155,-0.405
5935,0.320,0.060
5936,0.055,0.465
5937,-0.305,0.105
5938,-0.290,-0.565
5939,-0.155,-0.930
5940,-0.125,-0.740
5941,-0.110,-0.505
5942,-0.110,-0.440
5943,-0.105,-0.425
5944,-0.095,-0.390
5945,-0.090,-0.380
5946,-0.085,-0.405
5947,-0.095,-0.390
5948,-0.075,-0.385
5949,-0.055,-0.375
5950,-0.035,-0.335
5951,-0.055,-0.375
5952,-0.045,-0.365
5953,-0.040,-0.320
5954,-0.040,-0.305
5955,-0.035,-0.290
5956,-0.050,-0.285
5957,-0.065,-0.310
5958,-0.075,-0.290
5959,-0.075,-0.300
5960,-0.065,-0.290
5961,-0.055,-0.260
5962,-0.065,-0.180
5963,-0.060,-0.225
5964,-0.065,-0.285
5965,-0.060,-0.240
5966,-0.015,-0.195
5967,-0.035,-0.215
5968,-0.025,-0.180
5969,0.000,-0.150
5970,-0.005,-0.130
5971,0.010,-0.075
5972,-0.005,-0.080
5973,-0.025,-0.035
5974,-0.020,-0.195
5975,-0.030,-0.205
5976,-0.045,-0.135
5977,-0.045,-0.265
5978,-0.040,-0.285
5979,-0.055,-0.255
5980,-0.040,-0.250
5981,-0.045,-0.225
5982,-0.045,-0.255
5983,0.000,-0.250
5984,0.000,-0.255
5985,-0.020,-0.185
5986,-0.010,-0.230
5987,0.015,-0.260
5988,0.030,-0.260
5989,0.000,-0.180
5990,0.000,-0.180
5991,-0.015,-0.275
5992,-0.005,-0.215
5993,-0.045,-0.235
5994,-0.070,-0.180
5995,-0.015,-0.065
5996,-0.010,-0.370
5997,-0.040,-0.410
5998,-0.080,-0.320
5999,-0.080,-0.280
6000,-0.040,-0.165
6001,-0.045,-0.180
6002,-0.015,-0.175
6003,-0.015,-0.100
6004,-0.005,-0.125
6005,-0.030,-0.080
6006,-0.035,-0.130
6007,-0.055,-0.160
6008,-0.070,-0.200
6009,-0.030,-0.265
6010,-0.010,-0.350
6011,-0.010,-0.310
6012,0.000,-0.325
6013,0.020,-0.305
6014,0.065,-0.305
6015,0.035,-0.280
6016,0.025,-0.285
6017,0.010,-0.150
6018,0.030,-0.265
6019,0.015,-0.310
6020,0.005,-0.295
6021,0.035,-0.240
6022,0.000,-0.260
6023,0.045,-0.335
6024,0.205,-0.365
6025,0.455,-0.070
6026,0.515,0.585
6027,0.225,0.685
6028,-0.070,0.135
6029,-0.050,-0.545
6030,0.055,-0.800
6031,0.050,-0.705
6032,0.055,-0.285
6033,-0.005,-0.195
6034,0.070,-0.220
6035,0.050,-0.215
6036,0.050,-0.220
6037,0.105,-0.280
6038,0.085,-0.160
6039,0.080,-0.095
6040,0.070,-0.200
6041,0.085,-0.230
6042,0.095,-0.210
6043,0.065,-0.215
6044,0.075,-0.210
6045,0.045,-0.205
6046,0.050,-0.205
6047,0.060,-0.160
6048,0.055,-0.165
6049,0.070,-0.175
6050,0.060,-0.175
6051,0.060,-0.125
6052,0.035,-0.135
6053,0.030,-0.125
6054,0.010,-0.100
6055,0.030,-0.175
6056,0.010,-0.125
6057,-0.015,-0.125
6058,-0.010,-0.130
6059,-0.005,-0.095
6060,-0.015,-0.065
6061,0.000,-0.015
6062,0.000,-0.050
6063,0.020,-0.025
6064,0.015,0.010
6065,0.015,-0.070
6066,0.035,-0.035
6067,0.020,-0.060
6068,-0.005,-0.105
6069,-0.040,-0.090
6070,-0.010,-0.140
6071,-0.005,-0.155
6072,-0.015,-0.115
6073,-0.025,-0.125
6074,-0.020,-0.190
6075,0.010,-0.145
6076,-0.015,-0.080
6077,-0.015,-0.115
6078,0.000,-0.095
6079,-0.045,-0.070
6080,-0.065,-0.105
6081,-0.080,-0.145
6082,-0.050,-0.110
6083,-0.070,-0.115
6084,-0.040,-0.105
6085,-0.075,-0.050
6086,-0.065,-0.120
6087,-0.075,-0.155
6088,-0.110,-0.075
6089,-0.105,-0.080
6090,-0.100,-0.100
6091,-0.085,-0.100
6092,-0.060,-0.045
6093,-0.030,-0.005
6094,-0.040,0.015
6095,-0.070,0.045
6096,-0.100,0.090
6097,-0.120,0.040
6098,-0.165,0.000
6099,-0.175,-0.095
6100,-0.170,-0.115
6101,-0.135,-0.100
6102,-0.130,-0.135
6103,-0.120,-0.120
6104,-0.165,-0.180
6105,-0.185,-0.175
6106,-0.170,-0.175
6107,-0.115,-0.115
6108,-0.130,-0.120
6109,-0.125,-0.190
6110,-0.095,-0.150
6111,-0.145,-0.120
6112,-0.115,-0.200
6113,-0.115,-0.210
6114,-0.090,-0.380
6115,0.020,-0.330
6116,0.270,-0.100
6117,0.435,0.420
6118,0.160,0.690
6119,-0.235,0.420
6120,-0.245,-0.200
6121,-0.115,-0.560
6122,-0.080,-0.310
6123,-0.075,-0.135
6124,-0.080,-0.165
6125,-0.080,-0.105
6126,-0.065,-0.145
6127,-0.080,-0.135
6128,-0.050,-0.135
6129,-0.095,-0.090
6130,-0.125,-0.130
6131,-0.120,-0.145
6132,-0.085,-0.065
6133,-0.095,-0.075
6134,-0.105,-0.125
6135,-0.115,-0.050
6136,-0.080,-0.075
6137,-0.090,-0.025
6138,-0.095,0.005
6139,-0.110,-0.040
6140,-0.120,-0.080
6141,-0.095,-0.075
6142,-0.080,-0.010
6143,-0.080,-0.020
6144,-0.090,0.025
6145,-0.150,0.045
6146,-0.115,-0.010
6147,-0.060,0.045
6148,-0.090,0.030
6149,-0.120,0.040
6150,-0.105,0.040
6151,-0.070,0.105
6152,-0.085,0.095
6153,-0.040,0.090
6154,-0.010,0.110
6155,-0.005,0.015
6156,-0.030,0.100
6157,-0.035,0.045
6158,-0.050,0.035
6159,-0.055,0.010
6160,-0.045,0.025
6161,-0.025,0.025
6162,-0.040,-0.040
6163,-0.075,0.040
6164,-0.090,0.060
6165,-0.090,-0.020
6166,-0.060,-0.025
6167,-0.090,0.045
6168,-0.080,0.000
6169,-0.060,0.020
6170,-0.065,0.070
6171,-0.055,-0.020
6172,-0.065,0.075
6173,-0.085,0.045
6174,-0.055,0.040
6175,-0.085,0.085
6176,-0.095,0.060
6177,-0.085,0.020
6178,-0.085,0.000
6179,-0.105,0.100
6180,-0.080,-0.020
6181,-0.085,-0.005
6182,-0.035,0.070
6183,-0.040,0.160
6184,-0.020,0.120
6185,-0.010,0.180
6186,-0.025,0.210
6187,-0.080,0.105
6188,-0.080,0.095
6189,-0.140,0.090
6190,-0.110,0.005
6191,-0.095,-0.020
6192,-0.095,0.000
6193,-0.100,-0.065
6194,-0.095,-0.030
6195,-0.110,-0.005
6196,-0.130,-0.060
6197,-0.105,-0.075
6198,-0.080,-0.060
6199,-0.135,-0.015
6200,-0.115,-0.050
6201,-0.100,-0.070
6202,-0.115,-0.065
6203,-0.105,-0.100
6204,-0.145,-0.100
6205,-0.090,-0.385
6206,0.125,-0.210
6207,0.390,0.245
6208,0.215,0.780
6209,-0.230,0.575
6210,-0.365,0.015
6211,-0.165,-0.460
6212,-0.110,-0.215
6213,-0.120,-0.055
6214,-0.125,-0.070
6215,-0.125,-0.010
6216,-0.115,-0.055
6217,-0.140,-0.015
6218,-0.140,-0.050
6219,-0.130,-0.065
6220,-0.110,-0.035
6221,-0.130,-0.020
6222,-0.125,-0.025
6223,-0.155,-0.085
6224,-0.125,-0.005
6225,-0.115,0.000
6226,-0.140,-0.040
6227,-0.140,0.015
6228,-0.120,-0.055
6229,-0.125,-0.070
6230,-0.105,-0.015
6231,-0.125,0.045
6232,-0.130,0.000
6233,-0.110,-0.005
6234,-0.110,0.040
6235,-0.105,0.085
6236,-0.115,0.080
6237,-0.140,0.105
6238,-0.105,0.140
6239,-0.075,0.205
6240,-0.135,0.255
6241,-0.085,0.030
6242,-0.075,0.095
6243,-0.050,0.095
6244,-0.030,0.110
6245,-0.005,0.090
6246,-0.050,0.110
6247,-0.040,0.040
6248,-0.055,0.040
6249,-0.040,0.065
6250,-0.030,0.105
6251,-0.020,0.110
6252,-0.055,0.040
6253,-0.050,-0.040
6254,-0.015,0.010
6255,-0.030,-0.050
6256,-0.055,-0.070
6257,-0.030,-0.025
6258,-0.025,0.045
6259,-0.050,0.095
6260,-0.055,0.025
6261,-0.065,-0.025
6262,-0.050,-0.025
6263,-0.060,0.050
6264,-0.060,0.065
6265,-0.060,0.025
6266,-0.040,0.050
6267,-0.010,0.035
6268,-0.005,0.065
6269,0.015,0.095
6270,0.005,0.085
6271,0.040,0.085
6272,0.095,0.065
6273,0.145,0.200
6274,0.120,0.235
6275,0.125,0.210
6276,0.090,0.195
6277,0.070,0.170
6278,0.045,0.080
6279,0.095,0.080
6280,0.075,0.100
6281,0.075,0.045
6282,0.070,0.040
6283,0.075,0.010
6284,0.065,0.000
6285,0.050,-0.055
6286,0.055,-0.035
6287,0.035,-0.025
6288,0.055,0.010
6289,0.045,-0.010
6290,0.035,-0.040
6291,0.050,0.000
6292,0.010,-0.005
6293,0.000,-0.065
6294,0.055,-0.155
6295,0.205,-0.150
6296,0.375,0.115
6297,0.490,0.420
6298,0.200,0.715
6299,-0.230,0.520
6300,-0.195,-0.080
6301,-0.065,-0.370
6302,-0.005,-0.170
6303,-0.020,-0.040
6304,-0.020,0.035
6305,-0.040,0.110
6306,-0.075,0.050
6307,-0.120,-0.085
6308,-0.140,-0.060
6309,-0.125,-0.010
6310,-0.150,-0.020
6311,-0.150,-0.095
6312,-0.150,-0.030
6313,-0.210,-0.020
6314,-0.225,-0.070
6315,-0.215,0.030
6316,-0.265,0.030
6317,-0.255,-0.005
6318,-0.300,-0.055
6319,-0.300,-0.040
6320,-0.255,-0.020
6321,-0.250,-0.005
6322,-0.215,0.055
6323,-0.275,0.125
6324,-0.215,0.130
6325,-0.280,0.105
6326,-0.220,0.035
6327,-0.215,0.090
6328,-0.180,0.145
6329,-0.175,0.135
6330,-0.155,0.100
6331,-0.155,0.130
6332,-0.115,0.145
6333,-0.095,0.170
6334,-0.075,0.160
6335,-0.055,0.155
6336,-0.060,0.180
6337,-0.080,0.110
6338,-0.030,0.110
6339,-0.095,0.145
6340,-0.125,0.065
6341,-0.125,0.045
6342,-0.105,0.000
6343,-0.045,0.055
6344,-0.110,0.075
6345,-0.135,0.010
6346,-0.080,-0.040
6347,-0.090,0.035
6348,-0.090,0.095
6349,-0.095,0.090
6350,-0.105,-0.005
6351,-0.120,0.025
6352,-0.095,0.055
6353,-0.110,0.070
6354,-0.140,0.060
6355,-0.140,0.040
6356,-0.125,0.055
6357,-0.120,0.100
6358,-0.120,0.070
6359,-0.130,0.055
6360,-0.130,0.050
6361,-0.065,0.115
6362,-0.060,0.165
6363,-0.020,0.220
6364,-0.055,0.220
6365,-0.075,0.230
6366,-0.115,0.215
6367,-0.150,0.165
6368,-0.190,0.120
6369,-0.195,0.155
6370,-0.200,0.050
6371,-0.205,-0.070
6372,-0.155,-0.040
6373,-0.200,-0.095
6374,-0.200,-0.040
6375,-0.210,-0.030
6376,-0.220,-0.040
6377,-0.210,-0.060
6378,-0.190,0.000
6379,-0.200,0.015
6380,-0.170,-0.110
6381,-0.200,-0.055
6382,-0.225,-0.055
6383,-0.230,-0.150
6384,-0.145,-0.215
6385,0.035,-0.095
6386,0.245,0.365
6387,0.050,0.810
6388,-0.395,0.515
6389,-0.635,0.055
6390,-0.515,-0.495
6391,-0.380,-0.485
6392,-0.385,-0.120
6393,-0.405,-0.070
6394,-0.425,-0.040
6395,-0.455,-0.055
6396,-0.525,-0.055
6397,-0.530,-0.045
6398,-0.555,-0.015
6399,-0.580,-0.025
6400,-0.585,0.030
6401,-0.665,0.000
6402,-0.710,-0.130
6403,-0.715,-0.125
6404,-0.760,-0.050
6405,-0.770,-0.035
6406,-0.810,-0.020
6407,-0.820,0.000
6408,-0.810,0.025
6409,-0.835,0.030
6410,-0.855,0.075
6411,-0.840,0.050
6412,-0.795,0.070
6413,-0.770,0.075
6414,-0.730,0.140
6415,-0.715,0.195
6416,-0.740,0.125
6417,-0.685,0.090
6418,-0.695,0.105
6419,-0.660,0.130
6420,-0.630,0.190
6421,-0.625,0.190
6422,-0.610,0.110
6423,-0.595,0.080
6424,-0.610,0.110
6425,-0.590,0.170
6426,-0.610,0.120
6427,-0.590,0.025
6428,-0.570,0.050
6429,-0.585,0.065
6430,-0.580,0.050
6431,-0.605,0.055
6432,-0.630,0.050
6433,-0.630,0.025
6434,-0.620,-0.005
6435,-0.585,-0.015
6436,-0.585,0.010
6437,-0.600,0.005
6438,-0.585,-0.005
6439,-0.585,0.015
6440,-0.595,0.005
6441,-0.590,0.000
6442,-0.570,0.040
6443,-0.570,0.035
6444,-0.545,0.050
6445,-0.555,0.045
6446,-0.535,0.065
6447,-0.530,0.055
6448,-0.525,0.035
6449,-0.540,0.025
6450,-0.515,0.030
6451,-0.450,0.080
6452,-0.450,0.165
6453,-0.430,0.195
6454,-0.455,0.185
6455,-0.500,0.095
6456,-0.505,0.050
6457,-0.540,0.060
6458,-0.530,-0.035
6459,-0.520,-0.015
6460,-0.510,-0.015
6461,-0.515,-0.105
6462,-0.515,-0.080
6463,-0.490,-0.085
6464,-0.515,-0.115
6465,-0.505,-0.050
6466,-0.515,0.000
6467,-0.535,-0.030
6468,-0.490,-0.095
6469,-0.525,-0.055
6470,-0.515,-0.025
6471,-0.525,-0.050
6472,-0.550,-0.210
6473,-0.525,-0.265
6474,-0.440,-0.235
6475,-0.180,0.015
6476,-0.150,0.630
6477,-0.540,0.680
6478,-0.860,0.200
6479,-0.730,-0.450
6480,-0.655,-0.400
6481,-0.680,-0.200
6482,-0.685,-0.160
6483,-0.695,-0.075
6484,-0.680,-0.100
6485,-0.695,-0.060
6486,-0.680,-0.160
6487,-0.670,-0.070
6488,-0.660,-0.090
6489,-0.695,-0.025
6490,-0.700,-0.015
6491,-0.750,0.065
6492,-0.690,-0.080
6493,-0.705,-0.215
6494,-0.735,-0.150
6495,-0.730,-0.125
6496,-0.730,-0.065
6497,-0.725,-0.080
6498,-0.745,-0.065
6499,-0.755,-0.010
6500,-0.735,-0.025
6501,-0.745,-0.005
6502,-0.745,0.005
6503,-0.720,0.070
6504,-0.695,0.065
6505,-0.710,0.000
6506,-0.720,0.110
6507,-0.780,0.135
6508,-0.765,0.000
6509,-0.705,0.065
6510,-0.695,0.155
6511,-0.660,0.170
6512,-0.640,0.105
6513,-0.625,0.135
