'sample interval','ECG0','ECG1'
'0.0078125 sec','mV','mV'
0,-0.255,-0.065
1,-0.235,-0.075
2,-0.230,-0.080
3,-0.225,-0.075
4,-0.240,-0.080
5,-0.235,-0.080
6,-0.235,-0.065
7,-0.225,-0.080
8,-0.235,-0.070
9,-0.235,-0.075
10,-0.235,-0.080
11,-0.235,-0.075
12,-0.220,-0.085
13,-0.225,-0.085
14,-0.220,-0.075
15,-0.220,-0.055
16,-0.225,-0.070
17,-0.200,-0.070
18,-0.230,-0.075
19,-0.220,-0.075
20,-0.215,-0.075
21,-0.210,-0.080
22,-0.200,-0.065
23,-0.220,-0.075
24,-0.215,-0.070
25,-0.205,-0.070
26,-0.185,-0.075
27,-0.175,-0.070
28,-0.195,-0.055
29,-0.200,-0.050
30,-0.180,-0.045
31,-0.190,-0.060
32,-0.210,-0.060
33,-0.210,-0.080
34,-0.215,-0.090
35,-0.205,-0.090
36,-0.195,-0.085
37,-0.200,-0.085
38,-0.200,-0.085
39,-0.200,-0.075
40,-0.205,-0.080
41,-0.210,-0.065
42,-0.225,-0.065
43,-0.230,-0.080
44,-0.250,-0.050
45,-0.235,-0.070
46,-0.220,-0.065
47,-0.225,-0.065
48,-0.235,-0.060
49,-0.225,-0.055
50,-0.240,-0.065
51,-0.135,-0.040
52,0.185,-0.045
53,0.520,-0.080
54,0.665,-0.140
55,0.375,-0.255
56,-0.235,-0.350
57,-0.575,-0.375
58,-0.530,-0.260
59,-0.370,-0.130
60,-0.275,-0.040
61,-0.270,-0.015
62,-0.275,0.000
63,-0.270,-0.040
64,-0.285,-0.030
65,-0.270,-0.035
66,-0.280,-0.040
67,-0.285,-0.045
68,-0.280,-0.035
69,-0.285,-0.055
70,-0.270,-0.045
71,-0.280,-0.055
72,-0.285,-0.060
73,-0.300,-0.035
74,-0.280,-0.050
75,-0.290,-0.050
76,-0.275,-0.060
77,-0.285,-0.045
78,-0.275,-0.050
79,-0.280,-0.040
80,-0.270,-0.050
81,-0.265,-0.040
82,-0.280,-0.030
83,-0.275,-0.035
84,-0.260,-0.030
85,-0.245,-0.030
86,-0.270,0.000
87,-0.260,-0.025
88,-0.255,-0.040
89,-0.255,-0.040
90,-0.235,-0.050
91,-0.230,-0.035
92,-0.225,-0.035
93,-0.225,-0.040
94,-0.185,-0.050
95,-0.180,-0.045
96,-0.175,-0.045
97,-0.170,-0.025
98,-0.170,-0.045
99,-0.155,-0.035
100,-0.160,-0.045
101,-0.190,-0.055
102,-0.190,-0.045
103,-0.190,-0.035
104,-0.190,-0.060
105,-0.215,-0.055
106,-0.210,-0.040
107,-0.215,-0.060
108,-0.220,-0.040
109,-0.210,-0.045
110,-0.205,-0.045
111,-0.215,-0.030
112,-0.210,-0.050
113,-0.200,-0.050
114,-0.190,-0.050
115,-0.185,-0.040
116,-0.195,-0.040
117,-0.190,-0.050
118,-0.175,-0.045
119,-0.180,-0.045
120,-0.165,-0.040
121,-0.185,-0.040
122,-0.185,-0.040
123,-0.175,-0.040
124,-0.175,-0.035
125,-0.190,-0.040
126,-0.200,-0.030
127,-0.195,-0.035
128,-0.180,-0.050
129,-0.190,-0.035
130,-0.205,-0.040
131,-0.185,-0.040
132,-0.220,-0.045
133,-0.200,-0.040
134,-0.195,-0.050
135,-0.200,-0.050
136,-0.210,-0.040
137,-0.195,-0.035
138,-0.190,-0.040
139,-0.185,-0.050
140,-0.195,-0.035
141,-0.200,-0.050
142,-0.200,-0.050
143,-0.215,-0.050
144,-0.210,-0.045
145,-0.210,-0.040
146,-0.190,-0.045
147,-0.185,-0.040
148,-0.200,-0.030
149,-0.190,-0.045
150,-0.205,-0.050
151,-0.195,-0.055
152,-0.210,-0.040
153,-0.215,-0.025
154,-0.190,-0.045
155,-0.215,-0.050
156,-0.215,-0.050
157,-0.215,-0.045
158,-0.210,-0.045
159,-0.200,-0.050
160,-0.220,-0.035
161,-0.225,-0.045
162,-0.205,-0.045
163,-0.200,-0.060
164,-0.210,-0.060
165,-0.215,-0.055
166,-0.220,-0.065
167,-0.210,-0.080
168,-0.180,-0.075
169,-0.170,-0.055
170,-0.185,-0.040
171,-0.180,-0.035
172,-0.170,-0.040
173,-0.195,-0.055
174,-0.210,-0.065
175,-0.210,-0.070
176,-0.205,-0.085
177,-0.205,-0.090
178,-0.190,-0.075
179,-0.195,-0.080
180,-0.180,-0.075
181,-0.195,-0.075
182,-0.200,-0.065
183,-0.225,-0.060
184,-0.230,-0.050
185,-0.215,-0.065
186,-0.220,-0.055
187,-0.220,-0.045
188,-0.205,-0.080
189,-0.225,-0.065
190,-0.225,-0.060
191,-0.245,-0.045
192,-0.095,-0.045
193,0.285,-0.055
194,0.555,-0.075
195,0.630,-0.150
196,0.220,-0.280
197,-0.375,-0.365
198,-0.600,-0.340
199,-0.485,-0.220
200,-0.345,-0.085
201,-0.275,0.000
202,-0.280,0.000
203,-0.285,0.000
204,-0.290,0.000
205,-0.280,-0.010
206,-0.250,-0.010
207,-0.275,-0.030
208,-0.280,-0.015
209,-0.290,0.000
210,-0.275,-0.025
211,-0.280,-0.030
212,-0.270,-0.030
213,-0.290,-0.035
214,-0.280,-0.030
215,-0.285,-0.040
216,-0.275,-0.030
217,-0.255,-0.025
218,-0.280,-0.025
219,-0.275,-0.025
220,-0.255,-0.015
221,-0.240,-0.020
222,-0.260,-0.015
223,-0.260,-0.005
224,-0.260,-0.005
225,-0.250,-0.010
226,-0.240,0.000
227,-0.230,0.000
228,-0.245,-0.020
229,-0.240,-0.010
230,-0.245,-0.005
231,-0.220,-0.010
232,-0.200,-0.005
233,-0.190,0.000
234,-0.175,-0.035
235,-0.165,-0.020
236,-0.155,-0.035
237,-0.140,-0.010
238,-0.150,-0.010
239,-0.155,-0.025
240,-0.165,-0.030
241,-0.155,-0.045
242,-0.170,-0.025
243,-0.175,-0.020
244,-0.185,-0.035
245,-0.195,-0.035
246,-0.210,-0.045
247,-0.205,-0.050
248,-0.205,-0.035
249,-0.195,-0.040
250,-0.195,-0.030
251,-0.185,-0.035
252,-0.180,-0.035
253,-0.190,-0.035
254,-0.165,-0.035
255,-0.175,-0.020
256,-0.165,-0.025
257,-0.155,-0.030
258,-0.150,-0.035
259,-0.135,-0.030
260,-0.145,-0.035
261,-0.145,-0.030
262,-0.150,-0.035
263,-0.140,-0.035
264,-0.135,-0.035
265,-0.145,-0.045
266,-0.135,-0.035
267,-0.135,-0.035
268,-0.135,-0.040
269,-0.140,-0.050
270,-0.130,-0.055
271,-0.145,-0.050
272,-0.150,-0.050
273,-0.140,-0.060
274,-0.145,-0.050
275,-0.140,-0.065
276,-0.130,-0.060
277,-0.135,-0.060
278,-0.140,-0.045
279,-0.120,-0.055
280,-0.125,-0.065
281,-0.135,-0.060
282,-0.130,-0.055
283,-0.125,-0.065
284,-0.135,-0.045
285,-0.145,-0.055
286,-0.160,-0.065
287,-0.145,-0.060
288,-0.140,-0.060
289,-0.120,-0.070
290,-0.135,-0.040
291,-0.145,-0.045
292,-0.135,-0.070
293,-0.125,-0.065
294,-0.110,-0.040
295,-0.135,-0.070
296,-0.130,-0.055
297,-0.130,-0.055
298,-0.120,-0.045
299,-0.110,-0.055
300,-0.105,-0.055
301,-0.105,-0.060
302,-0.120,-0.050
303,-0.125,-0.065
304,-0.115,-0.075
305,-0.105,-0.070
306,-0.075,-0.050
307,-0.065,-0.065
308,-0.065,-0.035
309,-0.060,-0.020
310,-0.075,-0.025
311,-0.075,-0.055
312,-0.090,-0.060
313,-0.090,-0.075
314,-0.100,-0.070
315,-0.110,-0.060
316,-0.085,-0.080
317,-0.080,-0.085
318,-0.090,-0.080
319,-0.105,-0.060
320,-0.110,-0.065
321,-0.110,-0.060
322,-0.120,-0.070
323,-0.105,-0.065
324,-0.120,-0.070
325,-0.120,-0.070
326,-0.105,-0.070
327,-0.105,-0.075
328,-0.120,-0.080
329,-0.135,-0.055
330,0.005,-0.045
331,0.340,-0.060
332,0.665,-0.095
333,0.760,-0.170
334,0.350,-0.295
335,-0.240,-0.405
336,-0.475,-0.370
337,-0.370,-0.245
338,-0.240,-0.105
339,-0.170,-0.025
340,-0.165,-0.010
341,-0.155,-0.010
342,-0.155,-0.025
343,-0.150,-0.035
344,-0.180,-0.040
345,-0.145,-0.050
346,-0.145,-0.050
347,-0.160,-0.050
348,-0.170,-0.050
349,-0.160,-0.040
350,-0.160,-0.035
351,-0.170,-0.040
352,-0.165,-0.030
353,-0.170,-0.035
354,-0.175,-0.030
355,-0.155,-0.020
356,-0.145,-0.020
357,-0.150,-0.005
358,-0.160,-0.015
359,-0.130,-0.005
360,-0.135,-0.010
361,-0.125,0.000
362,-0.135,0.000
363,-0.140,-0.005
364,-0.135,-0.010
365,-0.115,-0.030
366,-0.125,-0.005
367,-0.125,-0.010
368,-0.110,-0.010
369,-0.110,-0.005
370,-0.105,-0.005
371,-0.095,-0.025
372,-0.080,-0.015
373,-0.080,-0.020
374,-0.070,-0.020
375,-0.045,-0.015
376,-0.055,-0.005
377,-0.050,-0.020
378,-0.065,-0.025
379,-0.070,-0.040
380,-0.080,-0.055
381,-0.090,-0.050
382,-0.085,-0.045
383,-0.105,-0.050
384,-0.110,-0.040
385,-0.090,-0.025
386,-0.095,-0.030
387,-0.095,-0.020
388,-0.105,-0.020
389,-0.100,-0.015
390,-0.100,-0.015
391,-0.090,-0.005
392,-0.105,-0.015
393,-0.090,-0.015
394,-0.085,-0.010
395,-0.090,0.000
396,-0.075,-0.005
397,-0.065,0.000
398,-0.070,-0.010
399,-0.050,-0.010
400,-0.050,0.000
401,-0.055,0.000
402,-0.085,0.000
403,-0.080,0.000
404,-0.065,-0.010
405,-0.070,0.000
406,-0.085,-0.005
407,-0.095,0.000
408,-0.090,-0.010
409,-0.095,-0.020
410,-0.090,-0.005
411,-0.100,-0.020
412,-0.105,-0.025
413,-0.105,-0.025
414,-0.105,-0.010
415,-0.100,-0.010
416,-0.120,-0.025
417,-0.125,-0.025
418,-0.110,-0.015
419,-0.110,-0.020
420,-0.115,-0.010
421,-0.115,-0.020
422,-0.125,-0.015
423,-0.125,-0.010
424,-0.120,-0.010
425,-0.115,-0.020
426,-0.135,-0.020
427,-0.125,-0.010
428,-0.130,-0.005
429,-0.115,-0.015
430,-0.120,0.000
431,-0.145,0.000
432,-0.130,0.000
433,-0.135,-0.010
434,-0.135,0.000
435,-0.125,-0.015
436,-0.145,-0.030
437,-0.140,-0.005
438,-0.140,-0.010
439,-0.130,-0.010
440,-0.135,-0.005
441,-0.155,-0.010
442,-0.145,0.000
443,-0.135,-0.020
444,-0.135,-0.005
445,-0.130,0.005
446,-0.115,-0.005
447,-0.130,0.000
448,-0.110,0.005
449,-0.100,0.010
450,-0.100,0.000
451,-0.115,0.000
452,-0.135,-0.010
453,-0.110,-0.025
454,-0.115,-0.020
455,-0.130,-0.015
456,-0.135,-0.025
457,-0.115,-0.035
458,-0.125,-0.025
459,-0.115,-0.005
460,-0.140,0.000
461,-0.155,0.000
462,-0.150,0.005
463,-0.140,0.005
464,-0.150,0.005
465,-0.135,0.000
466,-0.135,-0.005
467,-0.130,0.000
468,-0.145,0.000
469,-0.145,0.005
470,-0.020,0.030
471,0.320,0.025
472,0.685,-0.020
473,0.850,-0.090
474,0.460,-0.210
475,-0.180,-0.325
476,-0.455,-0.300
477,-0.375,-0.170
478,-0.235,-0.035
479,-0.170,0.040
480,-0.170,0.055
481,-0.185,0.055
482,-0.165,0.045
483,-0.175,0.030
484,-0.170,0.035
485,-0.180,0.030
486,-0.170,0.025
487,-0.180,0.020
488,-0.165,0.015
489,-0.170,0.015
490,-0.190,0.035
491,-0.170,0.025
492,-0.170,0.035
493,-0.165,0.025
494,-0.170,0.025
495,-0.180,0.035
496,-0.170,0.050
497,-0.165,0.050
498,-0.165,0.050
499,-0.180,0.045
500,-0.165,0.040
501,-0.160,0.040
502,-0.160,0.045
503,-0.155,0.050
504,-0.160,0.040
505,-0.155,0.055
506,-0.150,0.040
507,-0.140,0.035
508,-0.135,0.035
509,-0.145,0.050
510,-0.130,0.035
511,-0.120,0.020
512,-0.090,0.035
513,-0.090,0.035
514,-0.065,0.030
515,-0.075,0.020
516,-0.045,0.025
517,-0.055,0.020
518,-0.050,0.015
519,-0.060,0.020
520,-0.065,0.020
521,-0.070,0.015
522,-0.075,0.010
523,-0.075,0.010
524,-0.085,0.020
525,-0.105,0.015
526,-0.100,0.010
527,-0.095,0.000
528,-0.100,0.000
529,-0.100,0.000
530,-0.090,0.015
531,-0.105,0.010
532,-0.080,0.000
533,-0.080,0.005
534,-0.080,0.015
535,-0.080,0.015
536,-0.065,0.010
537,-0.070,0.005
538,-0.070,0.025
539,-0.090,0.040
540,-0.065,0.020
541,-0.080,0.015
542,-0.070,0.015
543,-0.060,0.000
544,-0.085,0.010
545,-0.090,0.010
546,-0.095,0.005
547,-0.100,0.010
548,-0.100,0.000
549,-0.125,0.020
550,-0.120,0.005
551,-0.100,0.000
552,-0.115,0.000
553,-0.115,0.000
554,-0.135,0.000
555,-0.130,-0.010
556,-0.110,-0.010
557,-0.110,-0.005
558,-0.135,0.000
559,-0.140,-0.010
560,-0.130,-0.005
561,-0.125,-0.005
562,-0.140,0.005
563,-0.140,0.000
564,-0.145,-0.005
565,-0.140,0.000
566,-0.130,0.000
567,-0.125,0.000
568,-0.140,0.015
569,-0.145,0.015
570,-0.140,0.000
571,-0.135,-0.005
572,-0.150,0.005
573,-0.145,-0.020
574,-0.145,-0.005
575,-0.140,0.010
576,-0.145,0.000
577,-0.135,0.005
578,-0.150,0.010
579,-0.150,0.005
580,-0.135,0.000
581,-0.140,0.000
582,-0.125,0.005
583,-0.140,0.000
584,-0.130,0.000
585,-0.130,0.000
586,-0.095,-0.005
587,-0.090,0.010
588,-0.085,0.025
589,-0.100,0.025
590,-0.080,0.020
591,-0.090,0.000
592,-0.130,0.000
593,-0.130,-0.015
594,-0.120,-0.005
595,-0.095,0.000
596,-0.100,0.000
597,-0.110,-0.010
598,-0.105,0.000
599,-0.100,0.000
600,-0.100,0.015
601,-0.140,0.020
602,-0.155,0.015
603,-0.150,0.015
604,-0.140,0.010
605,-0.130,0.010
606,-0.125,0.020
607,-0.135,0.015
608,-0.135,0.030
609,-0.125,0.025
610,0.030,0.055
611,0.405,0.045
612,0.770,0.020
613,0.850,-0.080
614,0.385,-0.230
615,-0.290,-0.320
616,-0.470,-0.265
617,-0.385,-0.130
618,-0.225,0.015
619,-0.150,0.100
620,-0.170,0.110
621,-0.170,0.095
622,-0.185,0.080
623,-0.165,0.100
624,-0.145,0.080
625,-0.155,0.075
626,-0.165,0.085
627,-0.175,0.070
628,-0.160,0.075
629,-0.165,0.075
630,-0.160,0.060
631,-0.185,0.070
632,-0.180,0.070
633,-0.165,0.070
634,-0.155,0.075
635,-0.160,0.060
636,-0.160,0.070
637,-0.150,0.075
638,-0.155,0.070
639,-0.155,0.095
640,-0.160,0.095
641,-0.155,0.085
642,-0.155,0.080
643,-0.150,0.100
644,-0.135,0.090
645,-0.140,0.090
646,-0.145,0.090
647,-0.140,0.090
648,-0.135,0.075
649,-0.115,0.090
650,-0.125,0.080
651,-0.120,0.070
652,-0.110,0.070
653,-0.090,0.065
654,-0.075,0.040
655,-0.070,0.040
656,-0.060,0.040
657,-0.060,0.045
658,-0.060,0.040
659,-0.060,0.045
660,-0.065,0.035
661,-0.080,0.035
662,-0.100,0.035
663,-0.090,0.040
664,-0.095,0.050
665,-0.095,0.040
666,-0.100,0.035
667,-0.100,0.030
668,-0.090,0.035
669,-0.105,0.030
670,-0.090,0.040
671,-0.100,0.040
672,-0.095,0.035
673,-0.095,0.050
674,-0.090,0.040
675,-0.095,0.035
676,-0.090,0.055
677,-0.095,0.050
678,-0.075,0.035
679,-0.090,0.045
680,-0.090,0.025
681,-0.090,0.030
682,-0.095,0.035
683,-0.100,0.035
684,-0.080,0.050
685,-0.105,0.030
686,-0.125,0.035
687,-0.105,0.040
688,-0.100,0.045
689,-0.110,0.040
690,-0.125,0.035
691,-0.125,0.045
692,-0.125,0.035
693,-0.120,0.045
694,-0.125,0.030
695,-0.120,0.030
696,-0.130,0.035
697,-0.135,0.030
698,-0.130,0.015
699,-0.140,0.025
700,-0.145,0.035
701,-0.140,0.035
702,-0.140,0.030
703,-0.130,0.035
704,-0.145,0.030
705,-0.145,0.030
706,-0.125,0.020
707,-0.130,0.025
708,-0.130,0.035
709,-0.140,0.035
710,-0.150,0.035
711,-0.135,0.030
712,-0.130,0.035
713,-0.135,0.030
714,-0.135,0.030
715,-0.135,0.025
716,-0.135,0.035
717,-0.135,0.025
718,-0.135,0.025
719,-0.135,0.010
720,-0.125,0.035
721,-0.125,0.030
722,-0.110,0.020
723,-0.150,0.030
724,-0.120,0.020
725,-0.115,0.035
726,-0.080,0.045
727,-0.080,0.050
728,-0.095,0.060
729,-0.095,0.055
730,-0.095,0.040
731,-0.105,0.035
732,-0.105,0.005
733,-0.095,0.005
734,-0.110,0.005
735,-0.100,0.010
736,-0.100,0.005
737,-0.095,0.025
738,-0.105,0.040
739,-0.115,0.045
740,-0.125,0.050
741,-0.140,0.050
742,-0.130,0.040
743,-0.125,0.055
744,-0.115,0.050
745,-0.110,0.050
746,-0.105,0.050
747,-0.110,0.060
748,-0.130,0.065
749,0.025,0.085
750,0.410,0.070
751,0.795,0.050
752,0.915,-0.045
753,0.455,-0.175
754,-0.210,-0.285
755,-0.445,-0.235
756,-0.355,-0.100
757,-0.220,0.030
758,-0.160,0.110
759,-0.155,0.115
760,-0.165,0.110
761,-0.160,0.100
762,-0.150,0.085
763,-0.150,0.085
764,-0.160,0.095
765,-0.175,0.080
766,-0.160,0.090
767,-0.150,0.085
768,-0.170,0.080
769,-0.175,0.080
770,-0.160,0.090
771,-0.160,0.075
772,-0.170,0.085
773,-0.180,0.085
774,-0.185,0.080
775,-0.155,0.080
776,-0.160,0.085
777,-0.180,0.100
778,-0.175,0.095
779,-0.170,0.100
780,-0.175,0.095
781,-0.170,0.090
782,-0.155,0.105
783,-0.145,0.110
784,-0.160,0.100
785,-0.145,0.105
786,-0.150,0.095
787,-0.140,0.100
788,-0.140,0.085
789,-0.115,0.090
790,-0.100,0.090
791,-0.090,0.085
792,-0.085,0.090
793,-0.060,0.085
794,-0.060,0.060
795,-0.040,0.080
796,-0.055,0.060
797,-0.070,0.060
798,-0.060,0.055
799,-0.070,0.075
800,-0.075,0.065
801,-0.080,0.065
802,-0.085,0.065
803,-0.100,0.055
804,-0.080,0.050
805,-0.090,0.050
806,-0.080,0.040
807,-0.100,0.040
808,-0.090,0.050
809,-0.085,0.060
810,-0.090,0.055
811,-0.080,0.055
812,-0.090,0.065
813,-0.075,0.055
814,-0.060,0.045
815,-0.075,0.060
816,-0.075,0.060
817,-0.080,0.055
818,-0.070,0.065
819,-0.050,0.055
820,-0.060,0.070
821,-0.070,0.060
822,-0.080,0.060
823,-0.070,0.060
824,-0.070,0.055
825,-0.065,0.070
826,-0.080,0.065
827,-0.080,0.060
828,-0.090,0.065
829,-0.075,0.060
830,-0.085,0.070
831,-0.105,0.075
832,-0.105,0.075
833,-0.110,0.070
834,-0.120,0.080
835,-0.120,0.065
836,-0.130,0.050
837,-0.120,0.065
838,-0.125,0.065
839,-0.105,0.075
840,-0.120,0.070
841,-0.115,0.090
842,-0.100,0.075
843,-0.105,0.075
844,-0.105,0.065
845,-0.095,0.075
846,-0.120,0.070
847,-0.115,0.090
848,-0.110,0.085
849,-0.115,0.085
850,-0.125,0.070
851,-0.115,0.070
852,-0.105,0.075
853,-0.100,0.085
854,-0.100,0.085
855,-0.110,0.075
856,-0.105,0.090
857,-0.085,0.095
858,-0.100,0.090
859,-0.100,0.090
860,-0.100,0.095
861,-0.095,0.105
862,-0.090,0.085
863,-0.085,0.085
864,-0.060,0.095
865,-0.060,0.105
866,-0.050,0.125
867,-0.050,0.120
868,-0.055,0.115
869,-0.065,0.100
870,-0.085,0.095
871,-0.085,0.080
872,-0.070,0.085
873,-0.060,0.065
874,-0.070,0.080
875,-0.080,0.080
876,-0.070,0.095
877,-0.070,0.110
878,-0.095,0.100
879,-0.105,0.115
880,-0.095,0.110
881,-0.100,0.120
882,-0.095,0.115
883,-0.095,0.100
884,-0.090,0.105
885,-0.090,0.100
886,-0.090,0.115
887,-0.090,0.135
888,0.065,0.140
889,0.460,0.130
890,0.840,0.085
891,0.960,-0.030
892,0.455,-0.190
893,-0.200,-0.280
894,-0.435,-0.220
895,-0.325,-0.055
896,-0.185,0.060
897,-0.140,0.150
898,-0.130,0.165
899,-0.140,0.160
900,-0.150,0.140
901,-0.120,0.125
902,-0.120,0.130
903,-0.125,0.140
904,-0.120,0.110
905,-0.120,0.105
906,-0.120,0.110
907,-0.125,0.110
908,-0.135,0.110
909,-0.145,0.090
910,-0.135,0.110
911,-0.135,0.115
912,-0.150,0.110
913,-0.125,0.105
914,-0.130,0.120
915,-0.135,0.105
916,-0.135,0.125
917,-0.145,0.110
918,-0.125,0.120
919,-0.130,0.115
920,-0.130,0.140
921,-0.125,0.120
922,-0.140,0.135
923,-0.130,0.125
924,-0.130,0.125
925,-0.120,0.125
926,-0.090,0.120
927,-0.115,0.125
928,-0.125,0.115
929,-0.080,0.095
930,-0.065,0.105
931,-0.065,0.105
932,-0.070,0.100
933,-0.060,0.100
934,-0.060,0.095
935,-0.055,0.095
936,-0.050,0.100
937,-0.090,0.105
938,-0.100,0.095
939,-0.105,0.110
940,-0.105,0.090
941,-0.110,0.100
942,-0.105,0.090
943,-0.125,0.105
944,-0.110,0.085
945,-0.105,0.090
946,-0.110,0.100
947,-0.120,0.105
948,-0.115,0.095
949,-0.100,0.090
950,-0.095,0.095
951,-0.095,0.100
952,-0.110,0.105
953,-0.090,0.105
954,-0.085,0.105
955,-0.095,0.105
956,-0.090,0.100
957,-0.095,0.090
958,-0.070,0.105
959,-0.090,0.095
960,-0.090,0.105
961,-0.095,0.100
962,-0.100,0.115
963,-0.135,0.085
964,-0.150,0.090
965,-0.125,0.090
966,-0.125,0.105
967,-0.110,0.090
968,-0.120,0.085
969,-0.115,0.085
970,-0.125,0.095
971,-0.120,0.095
972,-0.145,0.080
973,-0.160,0.080
974,-0.135,0.055
975,-0.125,0.085
976,-0.145,0.080
977,-0.155,0.080
978,-0.135,0.075
979,-0.130,0.085
980,-0.135,0.075
981,-0.145,0.100
982,-0.150,0.095
983,-0.135,0.090
984,-0.140,0.090
985,-0.140,0.080
986,-0.130,0.095
987,-0.150,0.095
988,-0.135,0.105
989,-0.125,0.095
990,-0.135,0.095
991,-0.135,0.095
992,-0.130,0.095
993,-0.120,0.090
994,-0.120,0.100
995,-0.125,0.090
996,-0.140,0.105
997,-0.135,0.095
998,-0.120,0.105
999,-0.125,0.105
1000,-0.115,0.110
1001,-0.100,0.100
1002,-0.080,0.130
1003,-0.075,0.125
1004,-0.085,0.135
1005,-0.075,0.125
1006,-0.095,0.135
1007,-0.090,0.105
1008,-0.095,0.100
1009,-0.090,0.095
1010,-0.100,0.090
1011,-0.085,0.090
1012,-0.085,0.085
1013,-0.090,0.100
1014,-0.090,0.110
1015,-0.100,0.130
1016,-0.130,0.140
1017,-0.120,0.125
1018,-0.110,0.120
1019,-0.115,0.120
1020,-0.115,0.125
1021,-0.110,0.115
1022,-0.100,0.115
1023,-0.105,0.125
1024,-0.125,0.125
1025,-0.045,0.135
1026,0.300,0.150
1027,0.735,0.115
1028,0.935,0.030
1029,0.605,-0.100
1030,-0.065,-0.235
1031,-0.425,-0.245
1032,-0.415,-0.100
1033,-0.260,0.030
1034,-0.170,0.150
1035,-0.155,0.205
1036,-0.160,0.200
1037,-0.160,0.170
1038,-0.160,0.170
1039,-0.165,0.155
1040,-0.170,0.150
1041,-0.170,0.140
1042,-0.150,0.145
1043,-0.165,0.135
1044,-0.175,0.145
1045,-0.170,0.140
1046,-0.180,0.140
1047,-0.170,0.145
1048,-0.180,0.155
1049,-0.180,0.150
1050,-0.195,0.145
1051,-0.170,0.150
1052,-0.190,0.155
1053,-0.190,0.150
1054,-0.195,0.160
1055,-0.190,0.160
1056,-0.200,0.160
1057,-0.185,0.155
1058,-0.180,0.160
1059,-0.185,0.180
1060,-0.180,0.160
1061,-0.180,0.180
1062,-0.170,0.150
1063,-0.175,0.170
1064,-0.175,0.150
1065,-0.150,0.155
1066,-0.150,0.140
1067,-0.145,0.120
1068,-0.130,0.130
1069,-0.120,0.125
1070,-0.100,0.145
1071,-0.095,0.120
1072,-0.080,0.115
1073,-0.080,0.125
1074,-0.105,0.145
1075,-0.120,0.130
1076,-0.110,0.125
1077,-0.120,0.125
1078,-0.150,0.135
1079,-0.145,0.135
1080,-0.140,0.125
1081,-0.140,0.115
1082,-0.140,0.130
1083,-0.170,0.130
1084,-0.170,0.120
1085,-0.155,0.115
1086,-0.140,0.120
1087,-0.135,0.110
1088,-0.155,0.125
1089,-0.140,0.135
1090,-0.135,0.150
1091,-0.120,0.140
1092,-0.105,0.130
1093,-0.105,0.140
1094,-0.135,0.130
1095,-0.105,0.135
1096,-0.100,0.125
1097,-0.115,0.135
1098,-0.120,0.135
1099,-0.120,0.140
1100,-0.125,0.135
1101,-0.130,0.135
1102,-0.125,0.130
1103,-0.170,0.140
1104,-0.145,0.115
1105,-0.145,0.135
1106,-0.155,0.120
1107,-0.135,0.140
1108,-0.175,0.125
1109,-0.175,0.125
1110,-0.145,0.135
1111,-0.165,0.125
1112,-0.165,0.130
1113,-0.165,0.130
1114,-0.165,0.130
1115,-0.155,0.115
1116,-0.160,0.120
1117,-0.150,0.130
1118,-0.175,0.130
1119,-0.190,0.130
1120,-0.175,0.145
1121,-0.150,0.120
1122,-0.180,0.135
1123,-0.180,0.130
1124,-0.180,0.140
1125,-0.165,0.140
1126,-0.160,0.140
1127,-0.160,0.135
1128,-0.175,0.145
1129,-0.175,0.145
1130,-0.175,0.150
1131,-0.160,0.140
1132,-0.160,0.150
1133,-0.160,0.150
1134,-0.160,0.160
1135,-0.145,0.150
1136,-0.155,0.145
1137,-0.170,0.140
1138,-0.165,0.155
1139,-0.160,0.160
1140,-0.135,0.150
1141,-0.120,0.150
1142,-0.120,0.145
1143,-0.130,0.180
1144,-0.125,0.170
1145,-0.115,0.160
1146,-0.115,0.145
1147,-0.145,0.145
1148,-0.150,0.120
1149,-0.125,0.120
1150,-0.115,0.110
1151,-0.130,0.105
1152,-0.120,0.115
1153,-0.115,0.120
1154,-0.135,0.135
1155,-0.125,0.130
1156,-0.140,0.150
1157,-0.160,0.145
1158,-0.150,0.135
1159,-0.145,0.135
1160,-0.145,0.145
1161,-0.145,0.130
1162,-0.140,0.140
1163,-0.140,0.135
1164,-0.145,0.140
1165,-0.060,0.135
1166,0.250,0.160
1167,0.655,0.130
1168,0.900,0.060
1169,0.610,-0.125
1170,-0.065,-0.265
1171,-0.460,-0.280
1172,-0.430,-0.110
1173,-0.265,0.035
1174,-0.190,0.160
1175,-0.170,0.195
1176,-0.185,0.200
1177,-0.195,0.170
1178,-0.165,0.155
1179,-0.160,0.155
1180,-0.180,0.160
1181,-0.185,0.155
1182,-0.190,0.145
1183,-0.190,0.140
1184,-0.200,0.145
1185,-0.190,0.160
1186,-0.215,0.165
1187,-0.200,0.145
1188,-0.200,0.120
1189,-0.195,0.130
1190,-0.215,0.130
1191,-0.205,0.135
1192,-0.205,0.125
1193,-0.190,0.135
1194,-0.195,0.135
1195,-0.195,0.135
1196,-0.195,0.145
1197,-0.190,0.145
1198,-0.185,0.115
1199,-0.195,0.125
1200,-0.185,0.125
1201,-0.195,0.125
1202,-0.185,0.115
1203,-0.170,0.115
1204,-0.160,0.110
1205,-0.145,0.115
1206,-0.115,0.095
1207,-0.110,0.110
1208,-0.095,0.100
1209,-0.095,0.105
1210,-0.090,0.100
1211,-0.085,0.105
1212,-0.075,0.075
1213,-0.085,0.075
1214,-0.105,0.085
1215,-0.115,0.075
1216,-0.125,0.090
1217,-0.105,0.075
1218,-0.115,0.075
1219,-0.125,0.085
1220,-0.130,0.075
1221,-0.140,0.080
1222,-0.130,0.085
1223,-0.125,0.055
1224,-0.110,0.070
1225,-0.120,0.070
1226,-0.125,0.070
1227,-0.110,0.070
1228,-0.110,0.075
1229,-0.110,0.070
1230,-0.090,0.080
1231,-0.095,0.075
1232,-0.090,0.085
1233,-0.095,0.075
1234,-0.095,0.070
1235,-0.095,0.070
1236,-0.080,0.075
1237,-0.100,0.080
1238,-0.100,0.080
1239,-0.100,0.090
1240,-0.105,0.075
1241,-0.115,0.070
1242,-0.110,0.060
1243,-0.125,0.070
1244,-0.135,0.065
1245,-0.120,0.055
1246,-0.120,0.055
1247,-0.120,0.060
1248,-0.130,0.060
1249,-0.130,0.055
1250,-0.115,0.070
1251,-0.130,0.065
1252,-0.130,0.050
1253,-0.125,0.065
1254,-0.130,0.050
1255,-0.125,0.055
1256,-0.115,0.065
1257,-0.110,0.055
1258,-0.125,0.065
1259,-0.125,0.070
1260,-0.120,0.060
1261,-0.120,0.070
1262,-0.120,0.070
1263,-0.130,0.070
1264,-0.120,0.075
1265,-0.110,0.070
1266,-0.115,0.085
1267,-0.130,0.085
1268,-0.120,0.075
1269,-0.115,0.080
1270,-0.115,0.085
1271,-0.100,0.075
1272,-0.110,0.080
1273,-0.110,0.065
1274,-0.105,0.085
1275,-0.120,0.085
1276,-0.115,0.080
1277,-0.120,0.075
1278,-0.100,0.075
1279,-0.090,0.075
1280,-0.090,0.090
1281,-0.090,0.090
1282,-0.085,0.100
1283,-0.080,0.075
1284,-0.100,0.070
1285,-0.095,0.055
1286,-0.110,0.050
1287,-0.105,0.045
1288,-0.120,0.040
1289,-0.110,0.025
1290,-0.105,0.035
1291,-0.090,0.050
1292,-0.105,0.045
1293,-0.120,0.070
1294,-0.115,0.070
1295,-0.105,0.065
1296,-0.105,0.055
1297,-0.110,0.065
1298,-0.110,0.055
1299,-0.095,0.055
1300,-0.070,0.060
1301,-0.135,0.075
1302,-0.095,0.070
1303,0.180,0.080
1304,0.605,0.050
1305,0.910,0.000
1306,0.715,-0.120
1307,0.065,-0.250
1308,-0.380,-0.305
1309,-0.410,-0.185
1310,-0.270,-0.030
1311,-0.190,0.055
1312,-0.155,0.110
1313,-0.150,0.110
1314,-0.160,0.100
1315,-0.155,0.100
1316,-0.155,0.075
1317,-0.150,0.075
1318,-0.135,0.085
1319,-0.140,0.070
1320,-0.140,0.075
1321,-0.155,0.060
1322,-0.160,0.070
1323,-0.165,0.060
1324,-0.155,0.075
1325,-0.165,0.075
1326,-0.185,0.060
1327,-0.180,0.060
1328,-0.170,0.065
1329,-0.160,0.075
1330,-0.165,0.065
1331,-0.155,0.085
1332,-0.165,0.075
1333,-0.150,0.080
1334,-0.150,0.085
1335,-0.150,0.090
1336,-0.160,0.090
1337,-0.160,0.100
1338,-0.140,0.085
1339,-0.135,0.075
1340,-0.160,0.080
1341,-0.145,0.075
1342,-0.135,0.055
1343,-0.120,0.070
1344,-0.100,0.060
1345,-0.095,0.055
1346,-0.080,0.055
1347,-0.065,0.060
1348,-0.080,0.045
1349,-0.065,0.045
1350,-0.055,0.055
1351,-0.075,0.055
1352,-0.090,0.055
1353,-0.090,0.050
1354,-0.100,0.050
1355,-0.105,0.035
1356,-0.115,0.050
1357,-0.115,0.055
1358,-0.115,0.045
1359,-0.100,0.055
1360,-0.110,0.065
1361,-0.105,0.050
1362,-0.095,0.045
1363,-0.085,0.050
1364,-0.125,0.065
1365,-0.105,0.050
1366,-0.100,0.030
1367,-0.090,0.055
1368,-0.085,0.045
1369,-0.080,0.065
1370,-0.065,0.055
1371,-0.075,0.055
1372,-0.065,0.060
1373,-0.060,0.065
1374,-0.085,0.070
1375,-0.085,0.050
1376,-0.080,0.050
1377,-0.075,0.060
1378,-0.105,0.060
1379,-0.095,0.055
1380,-0.105,0.055
1381,-0.105,0.065
1382,-0.095,0.050
1383,-0.105,0.050
1384,-0.110,0.055
1385,-0.100,0.060
1386,-0.110,0.055
1387,-0.110,0.055
1388,-0.105,0.050
1389,-0.115,0.065
1390,-0.110,0.055
1391,-0.115,0.070
1392,-0.100,0.055
1393,-0.110,0.065
1394,-0.105,0.075
1395,-0.125,0.070
1396,-0.120,0.070
1397,-0.110,0.055
1398,-0.105,0.065
1399,-0.110,0.070
1400,-0.115,0.075
1401,-0.100,0.065
1402,-0.105,0.070
1403,-0.100,0.070
1404,-0.095,0.085
1405,-0.105,0.080
1406,-0.105,0.075
1407,-0.105,0.060
1408,-0.110,0.070
1409,-0.115,0.070
1410,-0.105,0.055
1411,-0.095,0.065
1412,-0.100,0.065
1413,-0.095,0.055
1414,-0.110,0.065
1415,-0.110,0.070
1416,-0.105,0.045
1417,-0.095,0.075
1418,-0.110,0.065
1419,-0.085,0.065
1420,-0.060,0.065
1421,-0.060,0.090
1422,-0.050,0.090
1423,-0.055,0.075
1424,-0.085,0.070
1425,-0.085,0.065
1426,-0.080,0.035
1427,-0.085,0.040
1428,-0.085,0.025
1429,-0.090,0.030
1430,-0.080,0.030
1431,-0.070,0.045
1432,-0.080,0.045
1433,-0.100,0.045
1434,-0.120,0.055
1435,-0.115,0.065
1436,-0.110,0.055
1437,-0.115,0.050
1438,-0.115,0.045
1439,-0.105,0.045
1440,-0.105,0.055
1441,-0.110,0.045
1442,-0.125,0.045
1443,0.020,0.080
1444,0.400,0.050
1445,0.790,0.005
1446,0.925,-0.090
1447,0.450,-0.255
1448,-0.240,-0.360
1449,-0.470,-0.340
1450,-0.360,-0.155
1451,-0.220,-0.015
1452,-0.170,0.085
1453,-0.200,0.105
1454,-0.180,0.075
1455,-0.185,0.050
1456,-0.165,0.065
1457,-0.190,0.035
1458,-0.180,0.045
1459,-0.175,0.045
1460,-0.175,0.035
1461,-0.170,0.040
1462,-0.185,0.040
1463,-0.180,0.040
1464,-0.185,0.035
1465,-0.180,0.035
1466,-0.195,0.040
1467,-0.195,0.045
1468,-0.190,0.045
1469,-0.185,0.045
1470,-0.180,0.040
1471,-0.195,0.055
1472,-0.180,0.065
1473,-0.175,0.050
1474,-0.170,0.045
1475,-0.175,0.060
1476,-0.200,0.055
1477,-0.170,0.060
1478,-0.165,0.070
1479,-0.170,0.070
1480,-0.170,0.050
1481,-0.175,0.050
1482,-0.165,0.055
1483,-0.140,0.060
1484,-0.130,0.065
1485,-0.110,0.045
1486,-0.105,0.050
1487,-0.090,0.045
1488,-0.075,0.055
1489,-0.075,0.035
1490,-0.090,0.030
1491,-0.085,0.045
1492,-0.100,0.045
1493,-0.100,0.040
1494,-0.110,0.050
1495,-0.115,0.050
1496,-0.130,0.050
1497,-0.125,0.050
1498,-0.130,0.050
1499,-0.105,0.045
1500,-0.130,0.055
1501,-0.135,0.055
1502,-0.125,0.040
1503,-0.125,0.045
1504,-0.120,0.050
1505,-0.115,0.045
1506,-0.120,0.060
1507,-0.100,0.060
1508,-0.105,0.060
1509,-0.100,0.075
1510,-0.110,0.060
1511,-0.095,0.065
1512,-0.095,0.080
1513,-0.085,0.075
1514,-0.090,0.070
1515,-0.105,0.075
1516,-0.110,0.065
1517,-0.105,0.060
1518,-0.100,0.075
1519,-0.120,0.070
1520,-0.120,0.050
1521,-0.105,0.075
1522,-0.120,0.070
1523,-0.105,0.060
1524,-0.110,0.060
1525,-0.115,0.065
1526,-0.130,0.070
1527,-0.130,0.050
1528,-0.125,0.045
1529,-0.120,0.055
1530,-0.130,0.065
1531,-0.130,0.060
1532,-0.140,0.065
1533,-0.130,0.065
1534,-0.140,0.070
1535,-0.130,0.060
1536,-0.130,0.070
1537,-0.125,0.070
1538,-0.125,0.060
1539,-0.145,0.050
1540,-0.130,0.055
1541,-0.120,0.060
1542,-0.125,0.050
1543,-0.130,0.060
1544,-0.140,0.050
1545,-0.135,0.065
1546,-0.125,0.060
1547,-0.115,0.055
1548,-0.120,0.075
1549,-0.140,0.070
1550,-0.120,0.080
1551,-0.125,0.085
1552,-0.120,0.100
1553,-0.120,0.085
1554,-0.110,0.075
1555,-0.115,0.085
1556,-0.075,0.070
1557,-0.090,0.110
1558,-0.090,0.115
1559,-0.110,0.100
1560,-0.090,0.090
1561,-0.110,0.075
1562,-0.105,0.070
1563,-0.125,0.050
1564,-0.115,0.055
1565,-0.110,0.050
1566,-0.100,0.060
1567,-0.110,0.050
1568,-0.120,0.065
1569,-0.120,0.045
1570,-0.130,0.070
1571,-0.150,0.080
1572,-0.160,0.075
1573,-0.140,0.055
1574,-0.150,0.070
1575,-0.140,0.070
1576,-0.130,0.055
1577,-0.125,0.050
1578,-0.170,0.065
1579,-0.140,0.070
1580,0.070,0.090
1581,0.505,0.055
1582,0.845,0.010
1583,0.795,-0.115
1584,0.165,-0.275
1585,-0.415,-0.350
1586,-0.520,-0.270
1587,-0.405,-0.105
1588,-0.265,0.030
1589,-0.220,0.115
1590,-0.225,0.105
1591,-0.210,0.095
1592,-0.235,0.090
1593,-0.220,0.080
1594,-0.225,0.075
1595,-0.225,0.065
1596,-0.220,0.060
1597,-0.230,0.055
1598,-0.240,0.050
1599,-0.235,0.060
1600,-0.230,0.035
1601,-0.235,0.050
1602,-0.245,0.050
1603,-0.250,0.045
1604,-0.250,0.040
1605,-0.245,0.055
1606,-0.235,0.060
1607,-0.250,0.065
1608,-0.245,0.055
1609,-0.235,0.055
1610,-0.245,0.060
1611,-0.255,0.060
1612,-0.250,0.065
1613,-0.235,0.065
1614,-0.230,0.050
1615,-0.205,0.070
1616,-0.230,0.070
1617,-0.215,0.065
1618,-0.210,0.070
1619,-0.200,0.070
1620,-0.200,0.065
1621,-0.185,0.045
1622,-0.185,0.055
1623,-0.160,0.050
1624,-0.150,0.050
1625,-0.120,0.050
1626,-0.130,0.040
1627,-0.130,0.040
1628,-0.125,0.050
1629,-0.135,0.045
1630,-0.135,0.035
1631,-0.160,0.030
1632,-0.170,0.045
1633,-0.175,0.040
1634,-0.180,0.025
1635,-0.190,0.020
1636,-0.170,0.025
1637,-0.200,0.045
1638,-0.190,0.030
1639,-0.170,0.040
1640,-0.170,0.040
1641,-0.185,0.030
1642,-0.185,0.030
1643,-0.165,0.035
1644,-0.145,0.045
1645,-0.160,0.050
1646,-0.170,0.050
1647,-0.160,0.065
1648,-0.155,0.060
1649,-0.155,0.040
1650,-0.130,0.055
1651,-0.155,0.060
1652,-0.160,0.070
1653,-0.155,0.055
1654,-0.160,0.035
1655,-0.155,0.045
1656,-0.160,0.060
1657,-0.200,0.070
1658,-0.185,0.045
1659,-0.180,0.055
1660,-0.200,0.055
1661,-0.195,0.050
1662,-0.190,0.055
1663,-0.175,0.050
1664,-0.185,0.045
1665,-0.190,0.050
1666,-0.200,0.050
1667,-0.205,0.050
1668,-0.210,0.050
1669,-0.195,0.060
1670,-0.210,0.055
1671,-0.220,0.055
1672,-0.215,0.040
1673,-0.215,0.050
1674,-0.220,0.055
1675,-0.210,0.050
1676,-0.250,0.060
1677,-0.230,0.050
1678,-0.225,0.035
1679,-0.215,0.045
1680,-0.225,0.045
1681,-0.235,0.050
1682,-0.220,0.065
1683,-0.225,0.060
1684,-0.225,0.050
1685,-0.220,0.055
1686,-0.220,0.060
1687,-0.240,0.055
1688,-0.235,0.055
1689,-0.250,0.035
1690,-0.255,0.040
1691,-0.245,0.055
1692,-0.240,0.050
1693,-0.250,0.065
1694,-0.250,0.045
1695,-0.245,0.055
1696,-0.225,0.050
1697,-0.215,0.060
1698,-0.210,0.070
1699,-0.220,0.080
1700,-0.235,0.065
1701,-0.245,0.070
1702,-0.240,0.035
1703,-0.245,0.030
1704,-0.235,0.025
1705,-0.255,0.020
1706,-0.245,0.025
1707,-0.255,0.025
1708,-0.235,0.040
1709,-0.230,0.025
1710,-0.270,0.035
1711,-0.260,0.055
1712,-0.260,0.050
1713,-0.290,0.030
1714,-0.305,0.030
1715,-0.265,0.020
1716,-0.275,0.020
1717,-0.285,0.010
1718,-0.285,0.020
1719,-0.235,0.035
1720,0.035,0.060
1721,0.455,0.025
1722,0.765,-0.020
1723,0.540,-0.190
1724,-0.165,-0.350
1725,-0.575,-0.385
1726,-0.580,-0.235
1727,-0.435,-0.065
1728,-0.370,0.065
1729,-0.355,0.105
1730,-0.370,0.100
1731,-0.350,0.080
1732,-0.350,0.085
1733,-0.340,0.075
1734,-0.350,0.070
1735,-0.355,0.065
1736,-0.390,0.060
1737,-0.380,0.065
1738,-0.375,0.060
1739,-0.380,0.065
1740,-0.365,0.060
1741,-0.395,0.055
1742,-0.380,0.070
1743,-0.385,0.060
1744,-0.385,0.060
1745,-0.395,0.065
1746,-0.385,0.055
1747,-0.370,0.055
1748,-0.380,0.065
1749,-0.380,0.070
1750,-0.405,0.065
1751,-0.400,0.060
1752,-0.390,0.060
1753,-0.380,0.065
1754,-0.375,0.080
1755,-0.370,0.070
1756,-0.350,0.075
1757,-0.360,0.050
1758,-0.340,0.060
1759,-0.335,0.065
1760,-0.320,0.050
1761,-0.335,0.045
1762,-0.305,0.040
1763,-0.295,0.040
1764,-0.275,0.040
1765,-0.265,0.035
1766,-0.275,0.040
1767,-0.270,0.035
1768,-0.280,0.025
1769,-0.305,0.035
1770,-0.290,0.005
1771,-0.300,0.030
1772,-0.315,0.035
1773,-0.305,0.025
1774,-0.290,0.030
1775,-0.295,0.035
1776,-0.300,0.025
1777,-0.295,0.030
1778,-0.280,0.045
1779,-0.285,0.025
1780,-0.295,0.030
1781,-0.290,0.025
1782,-0.275,0.030
1783,-0.270,0.025
1784,-0.270,0.030
1785,-0.260,0.040
1786,-0.250,0.030
1787,-0.255,0.050
1788,-0.255,0.050
1789,-0.245,0.050
1790,-0.255,0.045
1791,-0.260,0.060
1792,-0.265,0.045
1793,-0.255,0.050
1794,-0.245,0.075
1795,-0.255,0.050
1796,-0.255,0.045
1797,-0.260,0.045
1798,-0.260,0.040
1799,-0.270,0.055
1800,-0.270,0.025
1801,-0.260,0.035
1802,-0.260,0.015
1803,-0.260,0.025
1804,-0.265,0.025
1805,-0.275,0.030
1806,-0.270,0.020
1807,-0.240,0.040
1808,-0.245,0.040
1809,-0.245,0.040
1810,-0.270,0.040
1811,-0.240,0.035
1812,-0.245,0.025
1813,-0.245,0.030
1814,-0.255,0.030
1815,-0.235,0.030
1816,-0.245,0.030
1817,-0.235,0.040
1818,-0.230,0.035
1819,-0.240,0.035
1820,-0.240,0.040
1821,-0.235,0.040
1822,-0.230,0.035
1823,-0.245,0.040
1824,-0.260,0.040
1825,-0.250,0.020
1826,-0.225,0.035
1827,-0.240,0.030
1828,-0.240,0.020
1829,-0.245,0.025
1830,-0.230,0.030
1831,-0.215,0.020
1832,-0.200,0.040
1833,-0.200,0.045
1834,-0.205,0.050
1835,-0.190,0.050
1836,-0.180,0.035
1837,-0.195,0.030
1838,-0.225,0.010
1839,-0.220,-0.005
1840,-0.230,0.000
1841,-0.235,0.000
1842,-0.205,0.000
1843,-0.220,0.000
1844,-0.220,0.010
1845,-0.210,0.015
1846,-0.220,0.020
1847,-0.245,0.025
1848,-0.245,0.020
1849,-0.255,0.020
1850,-0.235,0.025
1851,-0.225,0.030
1852,-0.235,0.025
1853,-0.220,0.020
1854,-0.215,0.015
1855,-0.245,0.035
1856,-0.050,0.060
1857,0.315,0.025
1858,0.690,0.005
1859,0.765,-0.085
1860,0.260,-0.240
1861,-0.340,-0.345
1862,-0.550,-0.295
1863,-0.470,-0.150
1864,-0.340,-0.005
1865,-0.280,0.080
1866,-0.265,0.095
1867,-0.260,0.085
1868,-0.280,0.065
1869,-0.270,0.050
1870,-0.260,0.055
1871,-0.285,0.065
1872,-0.310,0.055
1873,-0.285,0.015
1874,-0.290,0.045
1875,-0.285,0.040
1876,-0.295,0.055
1877,-0.280,0.045
1878,-0.275,0.050
1879,-0.275,0.050
1880,-0.280,0.050
1881,-0.285,0.050
1882,-0.285,0.055
1883,-0.275,0.045
1884,-0.260,0.050
1885,-0.265,0.060
1886,-0.275,0.070
1887,-0.275,0.065
1888,-0.275,0.060
1889,-0.265,0.060
1890,-0.250,0.065
1891,-0.260,0.070
1892,-0.250,0.065
1893,-0.240,0.055
1894,-0.240,0.050
1895,-0.225,0.055
1896,-0.205,0.035
1897,-0.190,0.035
1898,-0.180,0.050
1899,-0.160,0.050
1900,-0.150,0.060
1901,-0.165,0.065
1902,-0.160,0.045
1903,-0.150,0.045
1904,-0.155,0.040
1905,-0.160,0.040
1906,-0.175,0.040
1907,-0.180,0.045
1908,-0.175,0.045
1909,-0.170,0.045
1910,-0.190,0.055
1911,-0.180,0.050
1912,-0.175,0.055
1913,-0.170,0.065
1914,-0.170,0.045
1915,-0.175,0.050
1916,-0.180,0.040
1917,-0.150,0.055
1918,-0.165,0.080
1919,-0.145,0.040
1920,-0.155,0.045
1921,-0.155,0.045
1922,-0.140,0.065
1923,-0.140,0.050
1924,-0.125,0.055
1925,-0.135,0.060
1926,-0.130,0.060
1927,-0.135,0.060
1928,-0.125,0.045
1929,-0.135,0.060
1930,-0.140,0.055
1931,-0.145,0.060
1932,-0.155,0.060
1933,-0.160,0.055
1934,-0.165,0.050
1935,-0.160,0.060
1936,-0.170,0.055
1937,-0.160,0.060
1938,-0.155,0.055
1939,-0.160,0.065
1940,-0.170,0.060
1941,-0.155,0.070
1942,-0.160,0.070
1943,-0.155,0.060
1944,-0.155,0.060
1945,-0.180,0.040
1946,-0.165,0.040
1947,-0.160,0.045
1948,-0.155,0.065
1949,-0.165,0.050
1950,-0.175,0.060
1951,-0.170,0.060
1952,-0.155,0.055
1953,-0.160,0.060
1954,-0.180,0.050
1955,-0.165,0.055
1956,-0.175,0.045
1957,-0.160,0.040
1958,-0.160,0.055
1959,-0.170,0.045
1960,-0.180,0.035
1961,-0.170,0.055
1962,-0.160,0.050
1963,-0.160,0.055
1964,-0.170,0.055
1965,-0.180,0.050
1966,-0.165,0.045
1967,-0.165,0.050
1968,-0.160,0.050
1969,-0.155,0.045
1970,-0.170,0.045
1971,-0.170,0.040
1972,-0.145,0.035
1973,-0.130,0.045
1974,-0.120,0.080
1975,-0.125,0.080
1976,-0.115,0.075
1977,-0.120,0.070
1978,-0.135,0.050
1979,-0.150,0.030
1980,-0.130,0.015
1981,-0.145,0.005
1982,-0.125,0.010
1983,-0.135,0.005
1984,-0.140,0.010
1985,-0.140,0.025
1986,-0.145,0.025
1987,-0.150,0.045
1988,-0.160,0.050
1989,-0.170,0.035
1990,-0.170,0.040
1991,-0.155,0.040
1992,-0.155,0.035
1993,-0.150,0.030
1994,-0.150,0.040
1995,-0.155,0.030
1996,-0.105,0.055
1997,0.170,0.080
1998,0.560,0.045
1999,0.830,-0.005
2000,0.665,-0.145
2001,0.050,-0.275
2002,-0.405,-0.325
2003,-0.455,-0.230
2004,-0.310,-0.050
2005,-0.195,0.065
2006,-0.185,0.110
2007,-0.205,0.105
2008,-0.215,0.095
2009,-0.205,0.070
2010,-0.195,0.070
2011,-0.205,0.065
2012,-0.195,0.065
2013,-0.205,0.075
2014,-0.200,0.080
2015,-0.205,0.070
2016,-0.195,0.060
2017,-0.195,0.055
2018,-0.205,0.055
2019,-0.215,0.060
2020,-0.190,0.065
2021,-0.190,0.070
2022,-0.195,0.060
2023,-0.195,0.040
2024,-0.190,0.070
2025,-0.180,0.080
2026,-0.185,0.075
2027,-0.190,0.090
2028,-0.180,0.085
2029,-0.180,0.095
2030,-0.160,0.095
2031,-0.170,0.095
2032,-0.170,0.105
2033,-0.165,0.100
2034,-0.155,0.105
2035,-0.140,0.090
2036,-0.130,0.095
2037,-0.125,0.085
2038,-0.110,0.080
2039,-0.095,0.080
2040,-0.070,0.090
2041,-0.075,0.085
2042,-0.070,0.065
2043,-0.070,0.070
2044,-0.055,0.070
2045,-0.060,0.070
2046,-0.050,0.070
2047,-0.075,0.075
2048,-0.080,0.080
2049,-0.080,0.065
2050,-0.075,0.070
2051,-0.080,0.075
2052,-0.090,0.065
2053,-0.080,0.070
2054,-0.105,0.065
2055,-0.080,0.065
2056,-0.090,0.065
2057,-0.085,0.065
2058,-0.075,0.065
2059,-0.055,0.070
2060,-0.060,0.095
2061,-0.065,0.090
2062,-0.080,0.075
2063,-0.060,0.065
2064,-0.045,0.085
2065,-0.030,0.090
2066,-0.050,0.090
2067,-0.050,0.085
2068,-0.040,0.090
2069,-0.045,0.090
2070,-0.050,0.080
2071,-0.055,0.095
2072,-0.050,0.090
2073,-0.060,0.085
2074,-0.055,0.080
2075,-0.065,0.085
2076,-0.080,0.070
2077,-0.070,0.075
2078,-0.075,0.080
2079,-0.075,0.075
2080,-0.090,0.085
2081,-0.095,0.075
2082,-0.095,0.070
2083,-0.080,0.070
2084,-0.080,0.080
2085,-0.095,0.075
2086,-0.095,0.070
2087,-0.090,0.065
2088,-0.090,0.065
2089,-0.090,0.080
2090,-0.100,0.080
2091,-0.095,0.070
2092,-0.090,0.070
2093,-0.100,0.065
2094,-0.100,0.060
2095,-0.100,0.070
2096,-0.100,0.075
2097,-0.095,0.080
2098,-0.090,0.070
2099,-0.100,0.060
2100,-0.110,0.075
2101,-0.105,0.070
2102,-0.090,0.065
2103,-0.085,0.070
2104,-0.095,0.070
2105,-0.100,0.060
2106,-0.105,0.055
2107,-0.100,0.055
2108,-0.105,0.055
2109,-0.105,0.055
2110,-0.105,0.065
2111,-0.085,0.040
2112,-0.070,0.065
2113,-0.055,0.065
2114,-0.065,0.075
2115,-0.070,0.070
2116,-0.060,0.065
2117,-0.075,0.040
2118,-0.070,0.045
2119,-0.085,0.020
2120,-0.085,0.025
2121,-0.070,0.030
2122,-0.070,0.035
2123,-0.070,0.050
2124,-0.070,0.035
2125,-0.085,0.040
2126,-0.090,0.070
2127,-0.090,0.060
2128,-0.110,0.060
2129,-0.095,0.075
2130,-0.100,0.070
2131,-0.100,0.060
2132,-0.090,0.070
2133,-0.100,0.060
2134,-0.115,0.065
2135,-0.110,0.070
2136,0.110,0.100
2137,0.520,0.070
2138,0.850,0.045
2139,0.815,-0.070
2140,0.230,-0.235
2141,-0.300,-0.305
2142,-0.415,-0.210
2143,-0.280,-0.045
2144,-0.180,0.065
2145,-0.135,0.150
2146,-0.125,0.150
2147,-0.130,0.140
2148,-0.140,0.135
2149,-0.135,0.115
2150,-0.130,0.115
2151,-0.130,0.110
2152,-0.125,0.110
2153,-0.130,0.105
2154,-0.135,0.095
2155,-0.145,0.090
2156,-0.140,0.110
2157,-0.135,0.115
2158,-0.130,0.105
2159,-0.130,0.105
2160,-0.130,0.105
2161,-0.135,0.105
2162,-0.120,0.120
2163,-0.135,0.120
2164,-0.130,0.120
2165,-0.120,0.120
2166,-0.120,0.115
2167,-0.125,0.120
2168,-0.110,0.135
2169,-0.110,0.150
2170,-0.115,0.140
2171,-0.080,0.140
2172,-0.105,0.130
2173,-0.110,0.140
2174,-0.100,0.140
2175,-0.080,0.125
2176,-0.065,0.130
2177,-0.050,0.125
2178,-0.040,0.140
2179,-0.040,0.110
2180,-0.010,0.120
2181,-0.005,0.115
2182,-0.005,0.115
2183,-0.015,0.105
2184,0.000,0.115
2185,-0.020,0.105
2186,-0.020,0.100
2187,-0.030,0.110
2188,-0.040,0.110
2189,-0.025,0.095
2190,-0.030,0.105
2191,-0.035,0.105
2192,-0.035,0.110
2193,-0.045,0.110
2194,-0.040,0.110
2195,-0.030,0.110
2196,-0.040,0.105
2197,-0.035,0.095
2198,-0.040,0.115
2199,-0.040,0.105
2200,-0.035,0.105
2201,-0.030,0.120
2202,-0.020,0.110
2203,-0.020,0.110
2204,-0.015,0.120
2205,-0.015,0.110
2206,-0.005,0.120
2207,-0.025,0.120
2208,-0.030,0.125
2209,-0.015,0.105
2210,-0.025,0.120
2211,-0.025,0.115
2212,-0.040,0.100
2213,-0.040,0.110
2214,-0.035,0.110
2215,-0.045,0.110
2216,-0.040,0.115
2217,-0.060,0.095
2218,-0.060,0.105
2219,-0.055,0.105
2220,-0.060,0.095
2221,-0.060,0.095
2222,-0.085,0.085
2223,-0.070,0.085
2224,-0.060,0.075
2225,-0.065,0.090
2226,-0.070,0.090
2227,-0.070,0.090
2228,-0.065,0.080
2229,-0.065,0.100
2230,-0.070,0.075
2231,-0.085,0.085
2232,-0.085,0.085
2233,-0.080,0.070
2234,-0.100,0.090
2235,-0.080,0.100
2236,-0.085,0.080
2237,-0.090,0.080
2238,-0.085,0.075
2239,-0.080,0.085
2240,-0.080,0.090
2241,-0.080,0.085
2242,-0.090,0.085
2243,-0.090,0.075
2244,-0.080,0.080
2245,-0.080,0.075
2246,-0.090,0.085
2247,-0.090,0.085
2248,-0.080,0.105
2249,-0.065,0.080
2250,-0.045,0.085
2251,-0.055,0.100
2252,-0.050,0.115
2253,-0.045,0.110
2254,-0.050,0.105
2255,-0.055,0.095
2256,-0.070,0.070
2257,-0.085,0.055
2258,-0.080,0.050
2259,-0.065,0.060
2260,-0.060,0.065
2261,-0.050,0.050
2262,-0.065,0.075
2263,-0.055,0.085
2264,-0.040,0.100
2265,-0.065,0.110
2266,-0.070,0.100
2267,-0.050,0.110
2268,-0.035,0.100
2269,-0.035,0.120
2270,-0.035,0.115
2271,-0.030,0.100
2272,-0.030,0.105
2273,-0.015,0.120
2274,0.175,0.140
2275,0.530,0.120
2276,0.825,0.065
2277,0.845,-0.020
2278,0.325,-0.150
2279,-0.245,-0.240
2280,-0.335,-0.165
2281,-0.175,0.000
2282,-0.030,0.125
2283,0.000,0.170
2284,0.000,0.170
2285,0.005,0.170
2286,0.000,0.155
2287,0.030,0.150
2288,0.030,0.140
2289,0.015,0.145
2290,0.010,0.145
2291,0.015,0.150
2292,0.015,0.145
2293,0.015,0.150
2294,0.005,0.140
2295,0.015,0.140
2296,0.010,0.155
2297,0.010,0.150
2298,0.010,0.145
2299,0.010,0.140
2300,0.005,0.150
2301,0.005,0.170
2302,0.015,0.160
2303,0.000,0.150
2304,-0.010,0.170
2305,0.000,0.165
2306,0.015,0.160
2307,0.000,0.170
2308,-0.005,0.155
2309,-0.010,0.135
2310,0.000,0.145
2311,-0.010,0.140
2312,0.000,0.130
2313,0.005,0.125
2314,0.005,0.125
2315,0.005,0.120
2316,0.025,0.105
2317,0.035,0.100
2318,0.045,0.115
2319,0.050,0.100
2320,0.040,0.115
2321,0.035,0.100
2322,0.035,0.100
2323,0.000,0.110
2324,-0.005,0.110
2325,0.000,0.110
2326,-0.005,0.090
2327,-0.005,0.095
2328,-0.020,0.095
2329,-0.035,0.100
2330,-0.030,0.100
2331,-0.015,0.095
2332,-0.025,0.100
2333,-0.035,0.100
2334,-0.020,0.090
2335,-0.010,0.090
2336,-0.020,0.115
2337,-0.015,0.075
2338,-0.020,0.090
2339,-0.025,0.085
2340,-0.010,0.090
2341,0.000,0.085
2342,-0.010,0.095
2343,-0.015,0.100
2344,0.000,0.105
2345,-0.005,0.100
2346,-0.020,0.090
2347,-0.035,0.075
2348,-0.035,0.080
2349,-0.035,0.090
2350,-0.025,0.090
2351,-0.050,0.090
2352,-0.070,0.090
2353,-0.060,0.085
2354,-0.050,0.085
2355,-0.065,0.075
2356,-0.075,0.075
2357,-0.075,0.080
2358,-0.070,0.080
2359,-0.075,0.070
2360,-0.080,0.070
2361,-0.095,0.075
2362,-0.105,0.075
2363,-0.090,0.080
2364,-0.075,0.075
2365,-0.085,0.075
2366,-0.095,0.065
2367,-0.095,0.060
2368,-0.095,0.065
2369,-0.090,0.070
2370,-0.090,0.070
2371,-0.095,0.080
2372,-0.110,0.060
2373,-0.105,0.070
2374,-0.085,0.070
2375,-0.105,0.085
2376,-0.115,0.075
2377,-0.090,0.070
2378,-0.100,0.065
2379,-0.110,0.075
2380,-0.110,0.070
2381,-0.115,0.080
2382,-0.110,0.065
2383,-0.100,0.080
2384,-0.100,0.080
2385,-0.125,0.075
2386,-0.120,0.070
2387,-0.125,0.065
2388,-0.110,0.075
2389,-0.105,0.075
2390,-0.105,0.090
2391,-0.125,0.070
2392,-0.110,0.080
2393,-0.105,0.070
2394,-0.110,0.075
2395,-0.110,0.075
2396,-0.095,0.075
2397,-0.080,0.070
2398,-0.080,0.085
2399,-0.080,0.070
2400,-0.075,0.085
2401,-0.070,0.110
2402,-0.065,0.100
2403,-0.070,0.090
2404,-0.080,0.085
2405,-0.090,0.055
2406,-0.090,0.055
2407,-0.075,0.040
2408,-0.075,0.060
2409,-0.075,0.055
2410,-0.070,0.065
2411,-0.075,0.070
2412,-0.065,0.080
2413,-0.095,0.080
2414,-0.105,0.100
2415,-0.115,0.100
2416,-0.115,0.080
2417,-0.090,0.090
2418,-0.090,0.095
2419,-0.095,0.085
2420,-0.095,0.095
2421,-0.100,0.090
2422,-0.070,0.085
2423,0.135,0.125
2424,0.510,0.110
2425,0.810,0.065
2426,0.790,-0.025
2427,0.230,-0.155
2428,-0.300,-0.245
2429,-0.415,-0.165
2430,-0.270,-0.020
2431,-0.155,0.085
2432,-0.115,0.150
2433,-0.125,0.165
2434,-0.120,0.140
2435,-0.115,0.140
2436,-0.105,0.130
2437,-0.120,0.120
2438,-0.120,0.105
2439,-0.125,0.110
2440,-0.125,0.110
2441,-0.125,0.105
2442,-0.125,0.095
2443,-0.130,0.090
2444,-0.120,0.095
2445,-0.120,0.090
2446,-0.120,0.105
2447,-0.115,0.095
2448,-0.110,0.105
2449,-0.120,0.115
2450,-0.125,0.120
2451,-0.125,0.110
2452,-0.100,0.110
2453,-0.115,0.125
2454,-0.115,0.120
2455,-0.115,0.125
2456,-0.090,0.130
2457,-0.110,0.115
2458,-0.115,0.125
2459,-0.100,0.115
2460,-0.095,0.130
2461,-0.080,0.120
2462,-0.080,0.110
2463,-0.075,0.110
2464,-0.060,0.110
2465,-0.045,0.095
2466,-0.030,0.100
2467,-0.035,0.085
2468,-0.035,0.080
2469,-0.025,0.090
2470,-0.025,0.085
2471,-0.030,0.090
2472,-0.055,0.085
2473,-0.070,0.095
2474,-0.070,0.085
2475,-0.060,0.075
2476,-0.070,0.085
2477,-0.090,0.085
2478,-0.100,0.085
2479,-0.095,0.070
2480,-0.090,0.080
2481,-0.105,0.070
2482,-0.085,0.075
2483,-0.070,0.075
2484,-0.080,0.080
2485,-0.085,0.090
2486,-0.075,0.080
2487,-0.070,0.080
2488,-0.070,0.075
2489,-0.045,0.080
2490,-0.050,0.080
2491,-0.055,0.080
2492,-0.050,0.065
2493,-0.075,0.075
2494,-0.050,0.075
2495,-0.045,0.085
2496,-0.080,0.095
2497,-0.075,0.080
2498,-0.070,0.080
2499,-0.075,0.080
2500,-0.070,0.080
2501,-0.090,0.075
2502,-0.095,0.065
2503,-0.100,0.050
2504,-0.090,0.060
2505,-0.105,0.065
2506,-0.115,0.070
2507,-0.115,0.065
2508,-0.120,0.065
2509,-0.135,0.070
2510,-0.130,0.065
2511,-0.125,0.070
2512,-0.135,0.060
2513,-0.110,0.065
2514,-0.110,0.065
2515,-0.125,0.075
2516,-0.140,0.070
2517,-0.135,0.065
2518,-0.115,0.055
2519,-0.120,0.050
2520,-0.130,0.055
2521,-0.135,0.065
2522,-0.140,0.060
2523,-0.140,0.055
2524,-0.135,0.060
2525,-0.135,0.065
2526,-0.130,0.055
2527,-0.120,0.050
2528,-0.130,0.065
2529,-0.120,0.055
2530,-0.125,0.065
2531,-0.135,0.070
2532,-0.135,0.080
2533,-0.135,0.070
2534,-0.125,0.075
2535,-0.135,0.065
2536,-0.130,0.065
2537,-0.135,0.070
2538,-0.130,0.060
2539,-0.125,0.065
2540,-0.130,0.050
2541,-0.125,0.055
2542,-0.120,0.075
2543,-0.120,0.055
2544,-0.090,0.060
2545,-0.080,0.065
2546,-0.095,0.075
2547,-0.085,0.095
2548,-0.085,0.085
2549,-0.075,0.080
2550,-0.100,0.065
2551,-0.110,0.040
2552,-0.095,0.045
2553,-0.085,0.050
2554,-0.085,0.050
2555,-0.075,0.075
2556,-0.095,0.060
2557,-0.090,0.075
2558,-0.100,0.085
2559,-0.100,0.075
2560,-0.130,0.080
2561,-0.125,0.080
2562,-0.110,0.075
2563,-0.100,0.085
2564,-0.120,0.085
2565,-0.100,0.095
2566,-0.095,0.090
2567,-0.110,0.080
2568,-0.105,0.095
2569,0.095,0.110
2570,0.440,0.090
2571,0.765,0.065
2572,0.840,-0.035
2573,0.365,-0.175
2574,-0.200,-0.270
2575,-0.435,-0.220
2576,-0.340,-0.085
2577,-0.195,0.040
2578,-0.150,0.140
2579,-0.165,0.125
2580,-0.175,0.125
2581,-0.170,0.105
2582,-0.155,0.105
2583,-0.155,0.105
2584,-0.160,0.095
2585,-0.145,0.080
2586,-0.150,0.090
2587,-0.160,0.080
2588,-0.160,0.080
2589,-0.170,0.080
2590,-0.165,0.085
2591,-0.160,0.085
2592,-0.180,0.080
2593,-0.175,0.085
2594,-0.175,0.095
2595,-0.175,0.080
2596,-0.170,0.095
2597,-0.170,0.095
2598,-0.185,0.095
2599,-0.175,0.085
2600,-0.190,0.100
2601,-0.175,0.095
2602,-0.160,0.090
2603,-0.160,0.085
2604,-0.160,0.100
2605,-0.165,0.090
2606,-0.145,0.100
2607,-0.155,0.100
2608,-0.160,0.085
2609,-0.145,0.085
2610,-0.130,0.065
2611,-0.130,0.075
2612,-0.115,0.055
2613,-0.110,0.050
2614,-0.095,0.055
2615,-0.090,0.055
2616,-0.090,0.040
2617,-0.105,0.045
2618,-0.110,0.050
2619,-0.125,0.040
2620,-0.145,0.045
2621,-0.130,0.035
2622,-0.145,0.045
2623,-0.150,0.030
2624,-0.135,0.045
2625,-0.150,0.035
2626,-0.140,0.035
2627,-0.150,0.035
2628,-0.150,0.030
2629,-0.135,0.035
2630,-0.130,0.040
2631,-0.130,0.040
2632,-0.135,0.035
2633,-0.130,0.045
2634,-0.125,0.045
2635,-0.130,0.040
2636,-0.115,0.050
2637,-0.125,0.040
2638,-0.130,0.035
2639,-0.115,0.050
2640,-0.105,0.050
2641,-0.100,0.055
2642,-0.120,0.055
2643,-0.120,0.055
2644,-0.115,0.050
2645,-0.130,0.040
2646,-0.155,0.050
2647,-0.140,0.050
2648,-0.150,0.035
2649,-0.155,0.060
2650,-0.140,0.040
2651,-0.165,0.050
2652,-0.170,0.050
2653,-0.165,0.040
2654,-0.160,0.035
2655,-0.140,0.050
2656,-0.165,0.045
2657,-0.170,0.050
2658,-0.165,0.045
2659,-0.150,0.035
2660,-0.165,0.045
2661,-0.155,0.045
2662,-0.155,0.040
2663,-0.160,0.040
2664,-0.150,0.040
2665,-0.155,0.045
2666,-0.155,0.040
2667,-0.155,0.055
2668,-0.150,0.040
2669,-0.160,0.035
2670,-0.150,0.060
2671,-0.155,0.050
2672,-0.140,0.045
2673,-0.160,0.050
2674,-0.150,0.050
2675,-0.165,0.040
2676,-0.170,0.055
2677,-0.140,0.050
2678,-0.140,0.045
2679,-0.145,0.045
2680,-0.145,0.055
2681,-0.150,0.055
2682,-0.140,0.060
2683,-0.135,0.060
2684,-0.145,0.050
2685,-0.140,0.060
2686,-0.145,0.060
2687,-0.115,0.055
2688,-0.100,0.065
2689,-0.075,0.070
2690,-0.105,0.075
2691,-0.095,0.080
2692,-0.105,0.070
2693,-0.115,0.050
2694,-0.125,0.040
2695,-0.130,0.035
2696,-0.120,0.030
2697,-0.110,0.035
2698,-0.115,0.030
2699,-0.100,0.045
2700,-0.110,0.045
2701,-0.110,0.060
2702,-0.125,0.075
2703,-0.135,0.075
2704,-0.140,0.070
2705,-0.140,0.055
2706,-0.135,0.050
2707,-0.120,0.060
2708,-0.110,0.045
2709,-0.135,0.045
2710,-0.140,0.050
2711,-0.145,0.055
2712,0.020,0.060
2713,0.380,0.060
2714,0.730,0.020
2715,0.815,-0.065
2716,0.335,-0.195
2717,-0.265,-0.305
2718,-0.445,-0.270
2719,-0.330,-0.115
2720,-0.205,0.025
2721,-0.150,0.100
2722,-0.165,0.105
2723,-0.170,0.085
2724,-0.175,0.060
2725,-0.170,0.055
2726,-0.160,0.065
2727,-0.170,0.050
2728,-0.175,0.040
2729,-0.180,0.040
2730,-0.180,0.065
2731,-0.170,0.045
2732,-0.160,0.040
2733,-0.165,0.050
2734,-0.170,0.050
2735,-0.180,0.050
2736,-0.185,0.050
2737,-0.180,0.045
2738,-0.175,0.050
2739,-0.180,0.055
2740,-0.185,0.060
2741,-0.170,0.060
2742,-0.175,0.040
2743,-0.175,0.055
2744,-0.185,0.060
2745,-0.165,0.065
2746,-0.160,0.055
2747,-0.170,0.060
2748,-0.170,0.050
2749,-0.165,0.045
2750,-0.165,0.025
2751,-0.165,0.030
2752,-0.135,0.035
2753,-0.135,0.035
2754,-0.105,0.025
2755,-0.090,0.025
2756,-0.095,0.025
2757,-0.105,0.015
2758,-0.100,0.015
2759,-0.095,0.025
2760,-0.100,0.015
2761,-0.105,0.010
2762,-0.130,0.000
2763,-0.125,0.000
2764,-0.130,0.005
2765,-0.130,0.000
2766,-0.120,0.000
2767,-0.125,0.010
2768,-0.145,0.000
2769,-0.135,0.000
2770,-0.140,0.000
2771,-0.125,0.005
2772,-0.140,0.025
2773,-0.125,0.005
2774,-0.140,0.000
2775,-0.125,0.000
2776,-0.130,0.015
2777,-0.125,0.010
2778,-0.110,0.020
2779,-0.095,0.010
2780,-0.100,0.015
2781,-0.095,0.015
2782,-0.105,0.020
2783,-0.100,0.020
2784,-0.105,0.020
2785,-0.105,0.020
2786,-0.110,0.020
2787,-0.125,0.020
2788,-0.135,0.020
2789,-0.120,0.020
2790,-0.130,0.025
2791,-0.130,0.020
2792,-0.145,0.020
2793,-0.145,0.010
2794,-0.125,0.005
2795,-0.145,0.015
2796,-0.140,0.015
2797,-0.140,0.010
2798,-0.140,0.015
2799,-0.145,0.025
2800,-0.155,0.020
2801,-0.160,0.015
2802,-0.150,0.020
2803,-0.150,0.015
2804,-0.150,0.010
2805,-0.150,0.020
2806,-0.170,0.020
2807,-0.140,0.025
2808,-0.150,0.020
2809,-0.155,0.025
2810,-0.160,0.020
2811,-0.145,0.025
2812,-0.140,0.030
2813,-0.150,0.020
2814,-0.140,0.020
2815,-0.145,0.025
2816,-0.135,0.015
2817,-0.140,0.030
2818,-0.140,0.030
2819,-0.140,0.020
2820,-0.155,0.030
2821,-0.150,0.040
2822,-0.135,0.025
2823,-0.125,0.020
2824,-0.140,0.030
2825,-0.140,0.010
2826,-0.145,0.005
2827,-0.140,0.020
2828,-0.145,0.020
2829,-0.135,0.010
2830,-0.120,0.020
2831,-0.125,0.045
2832,-0.100,0.050
2833,-0.110,0.035
2834,-0.125,0.035
2835,-0.145,0.025
2836,-0.140,0.020
2837,-0.120,0.000
2838,-0.125,0.010
2839,-0.120,0.000
2840,-0.145,0.005
2841,-0.125,0.020
2842,-0.120,0.020
2843,-0.130,0.030
2844,-0.150,0.035
2845,-0.160,0.035
2846,-0.155,0.045
2847,-0.140,0.020
2848,-0.140,0.025
2849,-0.145,0.030
2850,-0.150,0.015
2851,-0.145,0.025
2852,-0.150,0.025
2853,-0.065,0.030
2854,0.205,0.055
2855,0.610,0.020
2856,0.870,-0.030
2857,0.655,-0.175
2858,0.005,-0.300
2859,-0.425,-0.345
2860,-0.435,-0.215
2861,-0.290,-0.070
2862,-0.175,0.045
2863,-0.165,0.075
2864,-0.185,0.080
2865,-0.190,0.075
2866,-0.175,0.040
2867,-0.180,0.050
2868,-0.180,0.035
2869,-0.185,0.030
2870,-0.170,0.030
2871,-0.180,0.035
2872,-0.175,0.040
2873,-0.205,0.030
2874,-0.200,0.015
2875,-0.185,0.010
2876,-0.180,0.015
2877,-0.185,0.025
2878,-0.205,0.015
2879,-0.195,0.020
2880,-0.185,0.010
2881,-0.175,0.020
2882,-0.175,0.045
2883,-0.180,0.030
2884,-0.190,0.025
2885,-0.165,0.035
2886,-0.175,0.025
2887,-0.175,0.035
2888,-0.170,0.030
2889,-0.165,0.035
2890,-0.160,0.040
2891,-0.150,0.030
2892,-0.160,0.040
2893,-0.140,0.015
2894,-0.120,0.020
2895,-0.110,0.015
2896,-0.090,0.005
2897,-0.100,0.015
2898,-0.100,0.000
2899,-0.075,0.015
2900,-0.075,0.000
2901,-0.085,0.010
2902,-0.100,0.010
2903,-0.120,0.005
2904,-0.120,0.000
2905,-0.125,0.000
2906,-0.155,0.005
2907,-0.150,0.005
2908,-0.140,-0.005
2909,-0.140,0.005
2910,-0.155,0.000
2911,-0.165,0.000
2912,-0.145,0.000
2913,-0.150,0.010
2914,-0.135,0.000
2915,-0.130,-0.005
2916,-0.110,0.000
2917,-0.135,0.000
2918,-0.120,0.005
2919,-0.100,0.010
2920,-0.100,0.015
2921,-0.120,0.020
2922,-0.105,0.010
2923,-0.070,0.005
2924,-0.085,0.005
2925,-0.085,0.025
2926,-0.115,0.030
2927,-0.100,0.020
2928,-0.110,0.015
2929,-0.115,0.015
2930,-0.115,0.005
2931,-0.125,0.010
2932,-0.125,0.015
2933,-0.115,0.010
2934,-0.115,0.005
2935,-0.130,0.010
2936,-0.125,0.020
2937,-0.130,0.025
2938,-0.125,0.015
2939,-0.130,0.000
2940,-0.135,0.005
2941,-0.135,0.005
2942,-0.125,0.010
2943,-0.105,0.025
2944,-0.110,0.025
2945,-0.120,0.025
2946,-0.130,0.030
2947,-0.115,0.030
2948,-0.115,0.030
2949,-0.120,0.020
2950,-0.135,0.030
2951,-0.120,0.025
2952,-0.115,0.025
2953,-0.105,0.020
2954,-0.115,0.025
2955,-0.120,0.015
2956,-0.115,0.025
2957,-0.120,0.025
2958,-0.105,0.025
2959,-0.110,0.030
2960,-0.115,0.035
2961,-0.120,0.035
2962,-0.090,0.025
2963,-0.105,0.025
2964,-0.120,0.035
2965,-0.105,0.010
2966,-0.110,0.020
2967,-0.105,0.015
2968,-0.095,0.025
2969,-0.105,0.015
2970,-0.100,0.025
2971,-0.070,0.020
2972,-0.065,0.035
2973,-0.065,0.030
2974,-0.070,0.050
2975,-0.070,0.050
2976,-0.055,0.055
2977,-0.070,0.030
2978,-0.075,0.005
2979,-0.070,0.010
2980,-0.075,0.005
2981,-0.060,0.005
2982,-0.075,0.000
2983,-0.065,0.010
2984,-0.070,0.020
2985,-0.055,0.015
2986,-0.065,0.040
2987,-0.075,0.030
2988,-0.095,0.030
2989,-0.085,0.030
2990,-0.090,0.035
2991,-0.080,0.010
2992,-0.075,0.015
2993,-0.075,0.030
2994,-0.085,0.015
2995,-0.085,0.015
2996,0.050,0.050
2997,0.410,0.040
2998,0.760,0.010
2999,0.910,-0.080
3000,0.515,-0.215
3001,-0.125,-0.335
3002,-0.410,-0.325
3003,-0.330,-0.190
3004,-0.185,-0.030
3005,-0.130,0.065
3006,-0.120,0.080
3007,-0.130,0.065
3008,-0.130,0.070
3009,-0.130,0.050
3010,-0.130,0.050
3011,-0.125,0.035
3012,-0.130,0.035
3013,-0.150,0.035
3014,-0.145,0.030
3015,-0.130,0.025
3016,-0.140,0.020
3017,-0.130,0.030
3018,-0.135,0.035
3019,-0.140,0.035
3020,-0.145,0.035
3021,-0.150,0.035
3022,-0.145,0.030
3023,-0.145,0.040
3024,-0.155,0.040
3025,-0.140,0.040
3026,-0.135,0.045
3027,-0.140,0.060
3028,-0.135,0.055
3029,-0.135,0.060
3030,-0.135,0.050
3031,-0.120,0.045
3032,-0.135,0.055
3033,-0.125,0.045
3034,-0.125,0.045
3035,-0.110,0.045
3036,-0.110,0.025
3037,-0.110,0.035
3038,-0.100,0.030
3039,-0.060,0.025
3040,-0.055,0.035
3041,-0.045,0.015
3042,-0.055,0.010
3043,-0.050,0.010
3044,-0.045,0.020
3045,-0.055,0.010
3046,-0.070,0.020
3047,-0.085,0.000
3048,-0.075,0.005
3049,-0.080,0.015
3050,-0.080,0.000
3051,-0.100,0.000
3052,-0.095,0.005
3053,-0.085,0.010
3054,-0.085,0.005
3055,-0.085,0.000
3056,-0.075,0.005
3057,-0.080,0.005
3058,-0.060,0.010
3059,-0.060,0.010
3060,-0.065,0.020
3061,-0.060,0.020
3062,-0.045,0.010
3063,-0.040,0.020
3064,-0.025,0.020
3065,-0.040,0.030
3066,-0.070,0.015
3067,-0.040,0.030
3068,-0.030,0.025
3069,-0.035,0.025
3070,-0.040,0.030
3071,-0.050,0.020
3072,-0.055,0.035
3073,-0.035,0.030
3074,-0.025,0.035
3075,-0.045,0.030
3076,-0.060,0.025
3077,-0.045,0.020
3078,-0.050,0.015
3079,-0.020,0.025
3080,-0.025,0.035
3081,0.000,0.035
3082,0.040,0.035
3083,0.095,0.065
3084,0.195,0.110
3085,0.270,0.165
3086,0.350,0.220
3087,0.405,0.275
3088,0.450,0.305
3089,0.470,0.365
3090,0.525,0.425
3091,0.590,0.440
3092,0.635,0.460
3093,0.645,0.450
3094,0.605,0.405
3095,0.500,0.315
3096,0.315,0.190
3097,-0.165,0.075
3098,-0.255,-0.010
3099,-0.220,-0.110
3100,-0.210,-0.150
3101,-0.205,-0.145
3102,-0.195,-0.105
3103,-0.205,-0.100
3104,-0.210,-0.105
3105,-0.205,-0.095
3106,-0.220,-0.095
3107,-0.195,-0.100
3108,-0.220,-0.090
3109,-0.230,-0.085
3110,-0.235,-0.110
3111,-0.235,-0.105
3112,-0.240,-0.120
3113,-0.225,-0.140
3114,-0.230,-0.120
3115,-0.210,-0.135
3116,-0.235,-0.130
3117,-0.235,-0.135
3118,-0.245,-0.175
3119,-0.255,-0.180
3120,-0.270,-0.190
3121,-0.250,-0.200
3122,-0.265,-0.210
3123,-0.255,-0.215
3124,-0.255,-0.220
3125,-0.235,-0.210
3126,-0.230,-0.185
3127,-0.220,-0.175
3128,-0.235,-0.150
3129,-0.235,-0.135
3130,-0.230,-0.135
3131,-0.190,-0.115
3132,-0.190,-0.080
3133,-0.155,-0.090
3134,-0.135,-0.080
3135,-0.130,-0.040
3136,-0.115,-0.015
3137,-0.095,-0.025
3138,-0.070,-0.020
3139,-0.080,-0.005
3140,-0.075,-0.015
3141,-0.055,0.000
3142,-0.065,-0.015
3143,-0.060,0.000
3144,-0.065,-0.005
3145,-0.065,-0.005
3146,-0.055,-0.010
3147,-0.045,-0.015
3148,-0.050,-0.015
3149,-0.050,-0.010
3150,-0.065,-0.015
3151,-0.040,-0.015
3152,-0.050,-0.010
3153,-0.055,-0.015
3154,-0.060,-0.005
3155,-0.065,0.000
3156,-0.050,0.000
3157,-0.055,0.000
3158,-0.065,0.000
3159,-0.065,0.005
3160,-0.065,0.005
3161,-0.055,0.010
3162,-0.045,0.005
3163,-0.075,0.000
3164,-0.070,-0.005
3165,-0.060,0.000
3166,-0.050,0.000
3167,-0.050,0.005
3168,-0.065,0.000
3169,-0.070,0.000
3170,-0.070,0.000
3171,-0.050,0.005
3172,-0.050,0.010
3173,-0.070,0.010
3174,-0.080,0.005
3175,-0.055,0.005
3176,-0.060,0.005
3177,-0.070,0.010
3178,-0.065,0.005
3179,-0.055,0.000
3180,-0.075,0.015
3181,-0.065,0.010
3182,-0.065,0.000
3183,-0.075,0.005
3184,-0.075,0.020
3185,-0.060,0.010
3186,-0.050,0.020
3187,-0.055,0.020
3188,-0.065,0.015
3189,-0.060,0.010
3190,-0.050,0.020
3191,-0.055,0.020
3192,-0.060,0.010
3193,-0.060,0.025
3194,-0.045,0.020
3195,-0.040,0.015
3196,-0.045,0.020
3197,-0.055,0.030
3198,-0.050,0.040
3199,-0.035,0.030
3200,-0.040,0.035
3201,-0.040,0.030
3202,-0.045,0.020
3203,-0.030,0.025
3204,-0.020,0.030
3205,-0.030,0.030
3206,-0.035,0.025
3207,-0.035,0.035
3208,-0.035,0.040
3209,-0.010,0.050
3210,0.000,0.045
3211,0.000,0.050
3212,-0.010,0.050
3213,-0.025,0.035
3214,0.000,0.040
3215,0.000,0.030
3216,-0.005,0.040
3217,0.000,0.040
3218,0.000,0.035
3219,-0.010,0.030
3220,0.000,0.010
3221,-0.015,0.005
3222,-0.005,0.020
3223,-0.010,0.015
3224,0.000,0.025
3225,0.000,0.015
3226,-0.005,0.035
3227,-0.010,0.025
3228,-0.015,0.020
3229,0.000,0.030
3230,-0.005,0.040
3231,-0.015,0.035
3232,-0.020,0.040
3233,-0.010,0.035
3234,-0.005,0.035
3235,-0.020,0.050
3236,-0.025,0.040
3237,-0.015,0.045
3238,-0.005,0.045
3239,-0.010,0.035
3240,-0.010,0.045
3241,-0.020,0.035
3242,-0.005,0.035
3243,0.000,0.035
3244,0.000,0.040
3245,0.000,0.035
3246,-0.015,0.055
3247,-0.020,0.055
3248,-0.015,0.050
3249,-0.005,0.050
3250,-0.010,0.045
3251,-0.015,0.050
3252,-0.015,0.035
3253,0.000,0.050
3254,-0.015,0.045
3255,-0.005,0.050
3256,-0.010,0.050
3257,-0.025,0.045
3258,-0.020,0.050
3259,-0.015,0.035
3260,-0.005,0.040
3261,0.010,0.060
3262,0.000,0.070
3263,0.000,0.075
3264,-0.005,0.050
3265,-0.015,0.025
3266,-0.025,0.020
3267,-0.020,0.005
3268,-0.020,0.005
3269,-0.010,0.000
3270,-0.035,0.025
3271,-0.025,0.025
3272,-0.025,0.025
3273,-0.035,0.020
3274,-0.030,0.035
3275,-0.045,0.035
3276,-0.040,0.055
3277,-0.045,0.055
3278,-0.030,0.035
3279,-0.035,0.050
3280,-0.035,0.045
3281,-0.030,0.035
3282,-0.025,0.055
3283,0.190,0.065
3284,0.565,0.045
3285,0.830,0.020
3286,0.765,-0.120
3287,0.175,-0.255
3288,-0.320,-0.335
3289,-0.385,-0.225
3290,-0.210,-0.065
3291,-0.130,0.045
3292,-0.105,0.100
3293,-0.100,0.095
3294,-0.105,0.085
3295,-0.105,0.080
3296,-0.095,0.085
3297,-0.115,0.080
3298,-0.115,0.070
3299,-0.110,0.070
3300,-0.115,0.065
3301,-0.115,0.060
3302,-0.120,0.070
3303,-0.115,0.055
3304,-0.135,0.060
3305,-0.130,0.075
3306,-0.120,0.070
3307,-0.125,0.060
3308,-0.115,0.060
3309,-0.140,0.065
3310,-0.125,0.060
3311,-0.115,0.070
3312,-0.120,0.070
3313,-0.120,0.090
3314,-0.135,0.075
3315,-0.120,0.065
3316,-0.105,0.070
3317,-0.120,0.080
3318,-0.120,0.085
3319,-0.120,0.085
3320,-0.105,0.090
3321,-0.095,0.070
3322,-0.075,0.070
3323,-0.070,0.070
3324,-0.070,0.075
3325,-0.035,0.065
3326,-0.020,0.070
3327,-0.025,0.075
3328,-0.010,0.075
3329,-0.010,0.060
3330,-0.005,0.060
3331,0.000,0.065
3332,0.000,0.065
3333,-0.010,0.050
3334,-0.020,0.055
3335,-0.030,0.065
3336,-0.025,0.060
3337,-0.030,0.055
3338,-0.045,0.055
3339,-0.045,0.055
3340,-0.045,0.055
3341,-0.040,0.055
3342,-0.045,0.060
3343,-0.055,0.045
3344,-0.060,0.065
3345,-0.040,0.055
3346,-0.045,0.065
3347,-0.050,0.050
3348,-0.040,0.060
3349,-0.035,0.055
3350,-0.015,0.045
3351,-0.030,0.055
3352,-0.050,0.080
3353,-0.035,0.050
3354,-0.045,0.060
3355,-0.040,0.060
3356,-0.050,0.055
3357,-0.070,0.055
3358,-0.050,0.045
3359,-0.055,0.065
3360,-0.060,0.055
3361,-0.080,0.050
3362,-0.065,0.050
3363,-0.090,0.045
3364,-0.080,0.045
3365,-0.090,0.050
3366,-0.090,0.045
3367,-0.100,0.045
3368,-0.095,0.045
3369,-0.090,0.045
3370,-0.095,0.040
3371,-0.095,0.035
3372,-0.110,0.040
3373,-0.115,0.040
3374,-0.115,0.045
3375,-0.110,0.040
3376,-0.100,0.020
3377,-0.125,0.020
3378,-0.120,0.015
3379,-0.120,0.020
3380,-0.115,0.020
3381,-0.125,0.025
3382,-0.120,0.030
3383,-0.125,0.025
3384,-0.120,0.030
3385,-0.135,0.015
3386,-0.140,0.020
3387,-0.160,0.025
3388,-0.140,0.020
3389,-0.140,0.010
3390,-0.140,0.015
3391,-0.150,0.010
3392,-0.160,0.010
3393,-0.140,0.015
3394,-0.150,0.015
3395,-0.175,0.000
3396,-0.170,0.010
3397,-0.175,0.000
3398,-0.170,0.000
3399,-0.155,0.010
3400,-0.155,0.010
3401,-0.140,-0.005
3402,-0.130,0.015
3403,-0.120,0.025
3404,-0.115,0.025
3405,-0.120,0.025
3406,-0.150,0.010
3407,-0.155,-0.005
3408,-0.155,-0.005
3409,-0.150,-0.025
3410,-0.140,0.000
3411,-0.165,-0.015
3412,-0.150,-0.010
3413,-0.140,0.000
3414,-0.160,0.010
3415,-0.170,0.020
3416,-0.170,0.015
3417,-0.205,0.020
3418,-0.190,0.000
3419,-0.190,0.010
3420,-0.180,0.015
3421,-0.180,0.010
3422,-0.180,0.025
3423,-0.190,0.015
3424,-0.170,0.025
3425,0.045,0.050
3426,0.405,0.040
3427,0.685,-0.015
3428,0.680,-0.110
3429,0.110,-0.250
3430,-0.400,-0.350
3431,-0.500,-0.285
3432,-0.385,-0.085
3433,-0.270,0.000
3434,-0.235,0.080
3435,-0.245,0.080
3436,-0.245,0.085
3437,-0.225,0.065
3438,-0.240,0.070
3439,-0.240,0.050
3440,-0.240,0.050
3441,-0.230,0.045
3442,-0.245,0.050
3443,-0.235,0.045
3444,-0.255,0.035
3445,-0.255,0.045
3446,-0.240,0.040
3447,-0.240,0.060
3448,-0.250,0.055
3449,-0.240,0.040
3450,-0.245,0.050
3451,-0.260,0.060
3452,-0.250,0.055
3453,-0.240,0.055
3454,-0.220,0.055
3455,-0.250,0.050
3456,-0.225,0.080
3457,-0.240,0.070
3458,-0.240,0.070
3459,-0.230,0.075
3460,-0.240,0.085
3461,-0.250,0.080
3462,-0.245,0.060
3463,-0.235,0.055
3464,-0.225,0.070
3465,-0.225,0.070
3466,-0.235,0.080
3467,-0.205,0.060
3468,-0.195,0.060
3469,-0.185,0.060
3470,-0.180,0.050
3471,-0.165,0.050
3472,-0.160,0.055
3473,-0.165,0.055
3474,-0.175,0.040
3475,-0.190,0.050
3476,-0.195,0.050
3477,-0.205,0.045
3478,-0.200,0.035
3479,-0.220,0.040
3480,-0.215,0.025
3481,-0.235,0.045
3482,-0.230,0.035
3483,-0.240,0.040
3484,-0.230,0.035
3485,-0.220,0.030
3486,-0.215,0.035
3487,-0.215,0.050
3488,-0.220,0.035
3489,-0.215,0.050
3490,-0.205,0.045
3491,-0.225,0.045
3492,-0.205,0.045
3493,-0.220,0.055
3494,-0.225,0.050
3495,-0.215,0.055
3496,-0.210,0.050
3497,-0.205,0.055
3498,-0.205,0.050
3499,-0.230,0.045
3500,-0.240,0.045
3501,-0.235,0.040
3502,-0.245,0.050
3503,-0.260,0.025
3504,-0.270,0.030
3505,-0.265,0.065
3506,-0.250,0.050
3507,-0.270,0.045
3508,-0.280,0.030
3509,-0.260,0.030
3510,-0.265,0.050
3511,-0.270,0.030
3512,-0.260,0.035
3513,-0.275,0.035
3514,-0.280,0.055
3515,-0.295,0.045
3516,-0.265,0.055
3517,-0.280,0.060
3518,-0.290,0.070
3519,-0.300,0.060
3520,-0.295,0.055
3521,-0.275,0.035
3522,-0.290,0.045
3523,-0.285,0.050
3524,-0.295,0.045
3525,-0.300,0.040
3526,-0.285,0.050
3527,-0.300,0.030
3528,-0.295,0.050
3529,-0.295,0.045
3530,-0.300,0.035
3531,-0.300,0.030
3532,-0.285,0.050
3533,-0.310,0.035
3534,-0.310,0.055
3535,-0.285,0.035
3536,-0.275,0.045
3537,-0.310,0.045
3538,-0.295,0.045
3539,-0.315,0.040
3540,-0.305,0.050
3541,-0.300,0.050
3542,-0.305,0.050
3543,-0.320,0.030
3544,-0.300,0.030
3545,-0.275,0.065
3546,-0.255,0.050
3547,-0.290,0.055
3548,-0.275,0.060
3549,-0.255,0.075
3550,-0.265,0.045
3551,-0.255,0.030
3552,-0.305,0.010
3553,-0.280,0.010
3554,-0.265,0.020
3555,-0.275,0.005
3556,-0.280,0.010
3557,-0.280,0.015
3558,-0.250,0.045
3559,-0.260,0.040
3560,-0.285,0.050
3561,-0.255,0.035
3562,-0.275,0.030
3563,-0.250,0.015
3564,-0.235,0.025
3565,-0.290,0.040
3566,-0.270,0.045
3567,-0.255,0.035
3568,-0.260,0.050
3569,0.005,0.070
3570,0.445,0.035
3571,0.805,0.000
3572,0.745,-0.165
3573,0.140,-0.325
3574,-0.385,-0.380
3575,-0.530,-0.285
3576,-0.450,-0.120
3577,-0.345,0.020
3578,-0.285,0.115
3579,-0.280,0.125
3580,-0.310,0.115
3581,-0.295,0.110
3582,-0.265,0.085
3583,-0.280,0.085
3584,-0.290,0.060
3585,-0.250,0.080
3586,-0.255,0.090
3587,-0.275,0.065
3588,-0.310,0.070
3589,-0.275,0.100
3590,-0.255,0.105
3591,-0.230,0.080
3592,-0.270,0.090
3593,-0.260,0.110
3594,-0.255,0.095
3595,-0.235,0.100
3596,-0.220,0.110
3597,-0.245,0.110
3598,-0.205,0.105
3599,-0.210,0.130
3600,-0.225,0.110
3601,-0.215,0.105
3602,-0.200,0.130
3603,-0.215,0.145
3604,-0.170,0.120
3605,-0.210,0.115
3606,-0.225,0.120
3607,-0.205,0.120
3608,-0.160,0.095
3609,-0.185,0.095
3610,-0.165,0.100
3611,-0.150,0.110
3612,-0.125,0.095
3613,-0.100,0.100
3614,-0.100,0.075
3615,-0.105,0.095
3616,-0.120,0.105
3617,-0.095,0.090
3618,-0.065,0.070
3619,-0.105,0.070
3620,-0.130,0.070
3621,-0.105,0.065
3622,-0.140,0.055
3623,-0.125,0.085
3624,-0.130,0.065
3625,-0.140,0.075
3626,-0.120,0.060
3627,-0.100,0.055
3628,-0.110,0.050
3629,-0.125,0.075
3630,-0.120,0.060
3631,-0.120,0.035
3632,-0.100,0.065
3633,-0.090,0.060
3634,-0.140,0.070
3635,-0.100,0.075
3636,-0.095,0.060
3637,-0.095,0.095
3638,-0.065,0.090
3639,-0.090,0.055
3640,-0.060,0.080
3641,-0.095,0.060
3642,-0.115,0.060
3643,-0.080,0.080
3644,-0.090,0.080
3645,-0.090,0.085
3646,-0.090,0.075
3647,-0.095,0.055
3648,-0.080,0.035
3649,-0.095,0.070
3650,-0.100,0.050
3651,-0.105,0.045
3652,-0.105,0.060
3653,-0.095,0.030
3654,-0.105,0.035
3655,-0.115,0.040
3656,-0.120,0.045
3657,-0.095,0.015
3658,-0.070,0.050
3659,-0.095,0.050
3660,-0.120,0.035
3661,-0.115,0.015
3662,-0.115,0.035
3663,-0.125,0.040
3664,-0.110,0.025
3665,-0.110,0.035
3666,-0.120,0.040
3667,-0.110,0.030
3668,-0.100,0.025
3669,-0.090,0.030
3670,-0.100,0.035
3671,-0.105,0.035
3672,-0.110,0.035
3673,-0.110,0.030
3674,-0.095,0.025
3675,-0.110,0.020
3676,-0.095,0.015
3677,-0.085,0.025
3678,-0.090,0.025
3679,-0.095,0.020
3680,-0.100,0.035
3681,-0.095,0.035
3682,-0.085,0.010
3683,-0.080,0.030
3684,-0.085,0.035
3685,-0.065,0.030
3686,-0.055,0.015
3687,-0.060,0.060
3688,-0.055,0.035
3689,-0.065,0.035
3690,-0.075,0.015
3691,-0.070,0.000
3692,-0.050,0.005
3693,-0.055,0.000
3694,-0.065,0.010
3695,-0.070,0.010
3696,-0.075,0.015
3697,-0.050,0.005
3698,-0.075,0.045
3699,-0.095,0.030
3700,-0.090,0.030
3701,-0.090,0.025
3702,-0.065,0.030
3703,-0.070,0.040
3704,-0.055,0.020
3705,-0.060,0.020
3706,-0.050,0.045
3707,-0.065,0.045
3708,-0.005,0.055
3709,0.280,0.080
3710,0.660,0.025
3711,0.960,-0.040
3712,0.830,-0.190
3713,0.145,-0.310
3714,-0.300,-0.385
3715,-0.350,-0.245
3716,-0.200,-0.075
3717,-0.115,0.060
3718,-0.080,0.125
3719,-0.095,0.130
3720,-0.085,0.120
3721,-0.085,0.115
3722,-0.075,0.105
3723,-0.080,0.090
3724,-0.085,0.090
3725,-0.090,0.075
3726,-0.070,0.075
3727,-0.070,0.075
3728,-0.075,0.070
3729,-0.070,0.075
3730,-0.065,0.070
3731,-0.055,0.080
3732,-0.065,0.065
3733,-0.060,0.085
3734,-0.060,0.090
3735,-0.055,0.100
3736,-0.035,0.070
3737,-0.040,0.110
3738,-0.045,0.110
3739,-0.055,0.105
3740,-0.040,0.105
3741,-0.040,0.085
3742,-0.035,0.110
3743,-0.035,0.120
3744,-0.035,0.085
3745,-0.020,0.065
3746,-0.030,0.080
3747,-0.010,0.095
3748,0.000,0.085
3749,0.000,0.090
3750,0.025,0.085
3751,0.050,0.070
3752,0.050,0.070
3753,0.055,0.060
3754,0.075,0.045
3755,0.080,0.065
3756,0.070,0.055
3757,0.070,0.060
3758,0.055,0.065
3759,0.060,0.050
3760,0.045,0.035
3761,0.045,0.050
3762,0.035,0.050
3763,0.025,0.050
3764,0.040,0.040
3765,0.045,0.035
3766,0.055,0.030
3767,0.040,0.045
3768,0.045,0.040
3769,0.055,0.040
3770,0.060,0.035
3771,0.050,0.050
3772,0.060,0.050
3773,0.045,0.045
3774,0.075,0.045
3775,0.075,0.040
3776,0.075,0.045
3777,0.060,0.060
3778,0.050,0.040
3779,0.080,0.015
3780,0.070,0.025
3781,0.065,0.040
3782,0.060,0.045
3783,0.065,0.035
3784,0.070,0.030
3785,0.070,0.025
3786,0.070,0.035
3787,0.055,0.015
3788,0.040,0.030
3789,0.045,0.035
3790,0.050,0.005
3791,0.070,0.010
3792,0.035,0.020
3793,0.045,0.015
3794,0.045,0.015
3795,0.035,0.020
3796,0.025,0.030
3797,0.035,0.025
3798,0.055,0.030
3799,0.045,0.025
3800,0.030,0.050
3801,0.035,0.020
3802,0.015,0.040
3803,0.025,0.015
3804,0.030,0.020
3805,0.025,0.030
3806,0.025,0.035
3807,0.015,0.045
3808,0.025,0.025
3809,0.040,0.025
3810,0.025,0.035
3811,0.025,0.030
3812,0.035,0.045
3813,0.045,0.030
3814,0.050,0.035
3815,0.030,0.040
3816,0.025,0.015
3817,0.020,0.040
3818,0.035,0.030
3819,0.020,0.030
3820,0.040,0.020
3821,0.040,0.040
3822,0.050,0.025
3823,0.085,0.030
3824,0.090,0.055
3825,0.065,0.065
3826,0.080,0.060
3827,0.085,0.040
3828,0.065,0.025
3829,0.085,0.015
3830,0.070,0.000
3831,0.045,0.005
3832,0.055,0.000
3833,0.075,0.005
3834,0.075,0.005
3835,0.070,0.015
3836,0.055,0.030
3837,0.040,0.035
3838,0.065,0.040
3839,0.045,0.040
3840,0.030,0.035
3841,0.035,0.050
3842,0.060,0.035
3843,0.065,0.045
3844,0.050,0.050
3845,0.035,0.030
3846,0.145,0.070
3847,0.495,0.060
3848,0.895,0.025
3849,1.075,-0.030
3850,0.700,-0.200
3851,0.065,-0.325
3852,-0.230,-0.310
3853,-0.200,-0.170
3854,-0.070,-0.025
3855,-0.010,0.085
3856,0.000,0.120
3857,0.010,0.110
3858,0.015,0.110
3859,0.005,0.090
3860,0.000,0.095
3861,0.015,0.080
3862,0.010,0.080
3863,0.000,0.070
3864,0.000,0.060
3865,0.010,0.060
3866,-0.005,0.070
3867,-0.010,0.065
3868,-0.005,0.055
3869,-0.020,0.050
3870,0.000,0.055
3871,-0.005,0.050
3872,-0.015,0.060
3873,0.000,0.075
3874,0.000,0.065
3875,-0.010,0.080
3876,0.000,0.075
3877,-0.005,0.075
3878,0.000,0.090
3879,-0.005,0.070
3880,-0.005,0.070
3881,-0.010,0.085
3882,0.015,0.065
3883,-0.015,0.065
3884,-0.020,0.060
3885,0.010,0.075
3886,0.030,0.070
3887,0.010,0.065
3888,0.020,0.060
3889,0.040,0.065
3890,0.055,0.055
3891,0.055,0.055
3892,0.055,0.045
3893,0.055,0.050
3894,0.050,0.045
3895,0.040,0.030
3896,0.040,0.050
3897,0.015,0.045
3898,-0.005,0.055
3899,0.000,0.030
3900,0.000,0.035
3901,0.000,0.025
3902,0.000,0.040
3903,0.000,0.035
3904,0.015,0.025
3905,0.010,0.035
3906,0.040,0.035
3907,0.005,0.025
3908,0.020,0.035
3909,0.015,0.050
3910,0.030,0.035
3911,0.040,0.030
3912,0.055,0.040
3913,0.060,0.030
3914,0.050,0.050
3915,0.030,0.035
3916,0.050,0.000
3917,0.030,0.035
3918,0.025,0.030
3919,0.040,0.035
3920,0.040,0.030
3921,0.000,0.040
3922,0.000,0.035
3923,-0.010,0.040
3924,0.025,0.015
3925,0.010,0.010
3926,-0.015,0.030
3927,0.000,0.020
3928,0.000,0.035
3929,0.000,0.020
3930,-0.005,0.035
3931,-0.005,0.040
3932,-0.005,0.035
3933,0.005,0.030
3934,0.000,0.020
3935,-0.005,0.030
3936,0.000,0.045
3937,0.000,0.030
3938,-0.005,0.035
3939,-0.015,0.035
3940,-0.015,0.050
3941,-0.025,0.040
3942,-0.025,0.040
3943,-0.025,0.055
3944,-0.025,0.040
3945,-0.020,0.030
3946,-0.030,0.045
3947,-0.020,0.055
3948,-0.025,0.035
3949,-0.020,0.040
3950,-0.030,0.035
3951,-0.040,0.055
3952,-0.020,0.035
3953,-0.020,0.025
3954,-0.025,0.040
3955,-0.035,0.055
3956,-0.045,0.040
3957,-0.035,0.035
3958,-0.030,0.050
3959,-0.030,0.030
3960,-0.035,0.035
3961,-0.025,0.030
3962,0.000,0.040
3963,-0.030,0.040
3964,0.030,0.055
3965,-0.010,0.040
3966,-0.005,0.085
3967,-0.005,0.065
3968,-0.025,0.055
3969,-0.005,0.040
3970,-0.035,0.060
3971,-0.040,0.040
3972,-0.010,0.030
3973,-0.020,0.040
3974,-0.010,0.015
3975,0.000,0.040
3976,-0.005,0.045
3977,-0.025,0.030
3978,-0.020,0.045
3979,-0.030,0.055
3980,-0.050,0.050
3981,-0.020,0.055
3982,-0.030,0.055
3983,-0.045,0.065
3984,-0.040,0.065
3985,-0.015,0.075
3986,-0.045,0.060
3987,-0.025,0.050
3988,0.145,0.085
3989,0.490,0.080
3990,0.865,0.035
3991,0.945,-0.085
3992,0.420,-0.265
3993,-0.185,-0.380
3994,-0.350,-0.305
3995,-0.245,-0.135
3996,-0.140,0.025
3997,-0.105,0.120
3998,-0.105,0.125
3999,-0.100,0.105
4000,-0.100,0.095
4001,-0.100,0.090
4002,-0.080,0.075
4003,-0.100,0.070
4004,-0.105,0.090
4005,-0.110,0.070
4006,-0.100,0.045
4007,-0.115,0.050
4008,-0.120,0.065
4009,-0.105,0.065
4010,-0.085,0.060
4011,-0.100,0.060
4012,-0.115,0.065
4013,-0.125,0.075
4014,-0.140,0.070
4015,-0.150,0.085
4016,-0.125,0.060
4017,-0.110,0.080
4018,-0.120,0.090
4019,-0.120,0.085
4020,-0.145,0.075
4021,-0.125,0.080
4022,-0.110,0.090
4023,-0.125,0.080
4024,-0.115,0.085
4025,-0.160,0.095
4026,-0.120,0.090
4027,-0.080,0.050
4028,-0.110,0.055
4029,-0.115,0.055
4030,-0.095,0.040
4031,-0.070,0.050
4032,-0.060,0.065
4033,-0.035,0.055
4034,-0.045,0.055
4035,-0.050,0.050
4036,-0.035,0.040
4037,-0.025,0.045
4038,-0.070,0.045
4039,-0.080,0.040
4040,-0.045,0.055
4041,-0.075,0.025
4042,-0.100,0.030
4043,-0.080,0.045
4044,-0.100,0.035
4045,-0.090,0.045
4046,-0.100,0.045
4047,-0.080,0.040
4048,-0.095,0.035
4049,-0.090,0.050
4050,-0.110,0.020
4051,-0.090,0.035
4052,-0.075,0.030
4053,-0.075,0.050
4054,-0.075,0.035
4055,-0.080,0.055
4056,-0.080,0.040
4057,-0.065,0.050
4058,-0.075,0.040
4059,-0.060,0.050
4060,-0.075,0.045
4061,-0.110,0.040
4062,-0.090,0.055
4063,-0.080,0.045
4064,-0.105,0.040
4065,-0.115,0.045
4066,-0.130,0.030
4067,-0.110,0.045
4068,-0.120,0.020
4069,-0.125,0.040
4070,-0.115,0.035
4071,-0.130,0.035
4072,-0.135,0.030
4073,-0.135,0.035
4074,-0.110,0.020
4075,-0.105,0.025
4076,-0.150,0.025
4077,-0.150,0.050
4078,-0.145,0.050
4079,-0.140,0.040
4080,-0.115,0.025
4081,-0.110,0.030
4082,-0.140,0.040
4083,-0.130,0.035
4084,-0.120,0.045
4085,-0.135,0.040
4086,-0.150,0.025
4087,-0.160,0.035
4088,-0.145,0.050
4089,-0.120,0.045
4090,-0.140,0.055
4091,-0.155,0.045
4092,-0.170,0.045
4093,-0.170,0.060
4094,-0.145,0.050
4095,-0.125,0.050
4096,-0.165,0.065
4097,-0.145,0.040
4098,-0.170,0.055
4099,-0.125,0.060
4100,-0.115,0.060
4101,-0.130,0.055
4102,-0.120,0.085
4103,-0.130,0.095
4104,-0.125,0.085
4105,-0.125,0.075
4106,-0.125,0.055
4107,-0.130,0.040
4108,-0.105,0.035
4109,-0.125,0.035
4110,-0.110,0.035
4111,-0.105,0.030
4112,-0.120,0.035
4113,-0.120,0.050
4114,-0.125,0.065
4115,-0.135,0.075
4116,-0.155,0.070
4117,-0.150,0.065
4118,-0.155,0.060
4119,-0.140,0.070
4120,-0.145,0.075
4121,-0.125,0.075
4122,-0.145,0.060
4123,-0.155,0.065
4124,-0.040,0.080
4125,0.315,0.090
4126,0.670,0.060
4127,0.865,-0.030
4128,0.535,-0.180
4129,-0.110,-0.315
4130,-0.445,-0.295
4131,-0.385,-0.120
4132,-0.240,0.030
4133,-0.195,0.115
4134,-0.200,0.150
4135,-0.185,0.145
4136,-0.205,0.120
4137,-0.200,0.120
4138,-0.210,0.110
4139,-0.180,0.115
4140,-0.180,0.105
4141,-0.215,0.105
4142,-0.190,0.105
4143,-0.180,0.110
4144,-0.195,0.105
4145,-0.215,0.090
4146,-0.195,0.095
4147,-0.195,0.095
4148,-0.210,0.095
4149,-0.215,0.105
4150,-0.185,0.105
4151,-0.210,0.100
4152,-0.190,0.110
4153,-0.190,0.110
4154,-0.170,0.100
4155,-0.250,0.100
4156,-0.190,0.125
4157,-0.220,0.125
4158,-0.215,0.115
4159,-0.180,0.125
4160,-0.185,0.130
4161,-0.185,0.130
4162,-0.215,0.110
4163,-0.195,0.110
4164,-0.180,0.095
4165,-0.225,0.090
4166,-0.165,0.100
4167,-0.135,0.100
4168,-0.120,0.090
4169,-0.135,0.080
4170,-0.145,0.085
4171,-0.130,0.085
4172,-0.150,0.075
4173,-0.130,0.070
4174,-0.145,0.070
4175,-0.190,0.070
4176,-0.165,0.070
4177,-0.170,0.065
4178,-0.190,0.075
4179,-0.170,0.075
4180,-0.190,0.060
4181,-0.195,0.070
4182,-0.155,0.070
4183,-0.150,0.075
4184,-0.180,0.065
4185,-0.195,0.085
4186,-0.165,0.070
4187,-0.160,0.070
4188,-0.145,0.080
4189,-0.190,0.085
4190,-0.195,0.075
4191,-0.150,0.095
4192,-0.140,0.095
4193,-0.130,0.085
4194,-0.135,0.085
4195,-0.140,0.095
4196,-0.190,0.100
4197,-0.140,0.085
4198,-0.170,0.080
4199,-0.190,0.115
4200,-0.175,0.085
4201,-0.140,0.080
4202,-0.165,0.085
4203,-0.240,0.085
4204,-0.195,0.125
4205,-0.150,0.120
4206,-0.215,0.055
4207,-0.210,0.110
4208,-0.225,0.095
4209,-0.240,0.100
4210,-0.200,0.115
4211,-0.200,0.100
4212,-0.250,0.080
4213,-0.215,0.085
4214,-0.235,0.080
4215,-0.185,0.090
4216,-0.185,0.090
4217,-0.230,0.095
4218,-0.220,0.110
4219,-0.215,0.090
4220,-0.250,0.100
4221,-0.195,0.100
4222,-0.190,0.100
4223,-0.240,0.110
4224,-0.220,0.135
4225,-0.170,0.090
4226,-0.230,0.130
4227,-0.270,0.100
4228,-0.230,0.130
4229,-0.230,0.140
4230,-0.250,0.120
4231,-0.225,0.115
4232,-0.230,0.095
4233,-0.205,0.110
4234,-0.235,0.130
4235,-0.240,0.115
4236,-0.195,0.130
4237,-0.215,0.140
4238,-0.165,0.110
4239,-0.245,0.120
4240,-0.240,0.135
4241,-0.145,0.165
4242,-0.160,0.130
4243,-0.160,0.095
4244,-0.180,0.110
4245,-0.155,0.085
4246,-0.200,0.080
4247,-0.105,0.070
4248,-0.155,0.040
4249,-0.160,0.065
4250,-0.100,0.080
4251,-0.125,0.100
4252,-0.155,0.100
4253,-0.130,0.105
4254,-0.110,0.110
4255,-0.090,0.105
4256,-0.110,0.075
4257,-0.050,0.085
4258,-0.125,0.080
4259,-0.095,0.065
4260,-0.085,0.060
4261,-0.160,0.015
4262,-0.065,-0.070
4263,0.250,-0.035
4264,0.785,-0.050
4265,1.090,-0.080
4266,0.695,-0.225
4267,0.005,-0.380
4268,-0.275,-0.315
4269,-0.370,-0.170
4270,-0.245,-0.005
4271,-0.100,0.195
4272,-0.135,0.200
4273,-0.220,0.140
4274,-0.195,0.145
4275,-0.100,0.190
4276,-0.060,0.130
4277,-0.125,0.100
4278,-0.215,0.130
4279,-0.180,0.130
4280,-0.130,0.165
4281,-0.225,0.175
4282,-0.285,0.115
4283,-0.110,0.180
4284,-0.090,0.130
4285,-0.330,0.125
4286,-0.145,0.130
4287,-0.050,0.130
4288,-0.320,0.150
4289,-0.085,0.155
4290,-0.235,0.120
4291,-0.095,0.120
4292,-0.175,0.150
4293,-0.255,0.105
4294,-0.160,0.125
4295,-0.205,0.160
4296,-0.115,0.120
4297,-0.140,0.125
4298,-0.245,0.100
4299,-0.140,0.130
4300,-0.105,0.160
4301,-0.175,0.100
4302,-0.175,0.110
4303,-0.195,0.095
4304,-0.060,0.155
4305,-0.090,0.120
4306,-0.230,0.090
4307,-0.010,0.135
4308,-0.160,0.155
4309,-0.155,0.045
4310,-0.110,0.090
4311,-0.170,0.075
4312,-0.105,0.120
4313,-0.135,0.170
4314,-0.165,0.025
4315,-0.170,0.130
4316,-0.195,0.160
4317,-0.145,0.100
4318,-0.135,0.110
4319,-0.315,0.155
4320,-0.295,0.150
4321,-0.205,0.160
4322,-0.155,0.120
4323,-0.180,0.115
4324,-0.270,0.135
4325,-0.305,0.155
4326,-0.230,0.105
4327,-0.245,0.175
4328,-0.255,0.190
4329,-0.250,0.190
4330,-0.170,0.200
4331,-0.320,0.050
4332,-0.255,0.100
4333,-0.190,0.180
4334,-0.145,0.145
4335,-0.235,0.035
4336,-0.150,0.050
4337,-0.115,0.120
4338,-0.195,0.120
4339,-0.180,0.095
4340,-0.185,0.145
4341,-0.070,0.175
4342,-0.115,0.100
4343,-0.170,0.110
4344,-0.140,0.115
4345,-0.205,0.135
4346,-0.125,0.145
4347,-0.175,0.115
4348,-0.200,0.075
4349,-0.165,0.120
4350,-0.180,0.165
4351,-0.220,0.075
4352,-0.160,0.120
4353,-0.120,0.155
4354,-0.205,0.130
4355,-0.220,0.170
4356,-0.105,0.165
4357,-0.175,0.155
4358,-0.170,0.145
4359,-0.175,0.180
4360,-0.150,0.200
4361,-0.140,0.125
4362,-0.170,0.140
4363,-0.150,0.195
4364,-0.150,0.175
4365,-0.120,0.170
4366,-0.140,0.210
4367,-0.120,0.150
4368,-0.095,0.180
4369,-0.140,0.185
4370,-0.155,0.220
4371,-0.130,0.185
4372,-0.090,0.170
4373,-0.120,0.130
4374,-0.140,0.170
4375,-0.140,0.205
4376,-0.080,0.185
4377,-0.070,0.240
4378,-0.080,0.190
4379,-0.080,0.205
4380,-0.060,0.175
4381,-0.090,0.130
4382,-0.085,0.160
4383,-0.030,0.205
4384,-0.110,0.155
4385,-0.095,0.150
4386,-0.050,0.140
4387,-0.105,0.145
4388,-0.110,0.170
4389,-0.055,0.160
4390,-0.155,0.205
4391,-0.130,0.145
4392,-0.065,0.150
4393,-0.095,0.220
4394,-0.100,0.170
4395,-0.085,0.195
4396,-0.085,0.190
4397,-0.035,0.130
4398,-0.070,0.195
4399,0.065,0.225
4400,0.435,0.190
4401,0.805,0.225
4402,0.875,-0.040
4403,0.380,-0.205
4404,-0.140,-0.305
4405,-0.300,-0.265
4406,-0.245,-0.140
4407,-0.130,0.085
4408,-0.125,0.260
4409,-0.100,0.250
4410,-0.070,0.230
4411,-0.080,0.245
4412,-0.075,0.235
4413,-0.075,0.175
4414,-0.065,0.195
4415,-0.035,0.205
4416,-0.070,0.210
4417,-0.060,0.205
4418,-0.015,0.215
4419,-0.055,0.190
4420,-0.060,0.205
4421,-0.025,0.205
4422,0.010,0.185
4423,-0.045,0.230
4424,-0.080,0.190
4425,-0.015,0.170
4426,0.000,0.195
4427,-0.060,0.155
4428,-0.075,0.205
4429,-0.045,0.215
4430,0.005,0.165
4431,0.025,0.180
4432,-0.040,0.210
4433,0.000,0.205
4434,-0.005,0.150
4435,0.010,0.180
4436,0.015,0.105
4437,-0.060,0.150
4438,-0.025,0.240
4439,-0.010,0.185
4440,0.055,0.080
4441,0.110,0.095
4442,0.075,0.170
4443,0.025,0.165
4444,0.065,0.155
4445,0.075,0.145
4446,0.125,0.135
4447,0.100,0.145
4448,0.090,0.170
4449,0.130,0.145
4450,0.135,0.125
4451,0.095,0.125
4452,0.040,0.155
4453,0.055,0.120
4454,0.130,0.115
4455,0.055,0.130
4456,0.095,0.095
4457,0.125,0.110
4458,0.050,0.100
4459,0.055,0.170
4460,0.120,0.125
4461,0.095,0.130
4462,0.145,0.130
4463,0.160,0.140
4464,0.210,0.175
4465,0.145,0.175
4466,0.175,0.170
4467,0.195,0.185
4468,0.210,0.205
4469,0.185,0.190
4470,0.190,0.175
4471,0.195,0.220
4472,0.185,0.220
4473,0.195,0.185
4474,0.205,0.190
4475,0.180,0.200
4476,0.195,0.200
4477,0.195,0.185
4478,0.190,0.160
4479,0.180,0.180
4480,0.210,0.165
4481,0.185,0.155
4482,0.240,0.155
4483,0.200,0.180
4484,0.185,0.140
4485,0.210,0.145
4486,0.225,0.165
4487,0.235,0.160
4488,0.185,0.145
4489,0.235,0.130
4490,0.230,0.130
4491,0.260,0.130
4492,0.265,0.140
4493,0.265,0.110
4494,0.245,0.100
4495,0.260,0.115
4496,0.265,0.080
4497,0.280,0.115
4498,0.290,0.120
4499,0.310,0.105
4500,0.315,0.130
4501,0.310,0.095
4502,0.360,0.110
4503,0.380,0.070
4504,0.345,0.080
4505,0.310,0.120
4506,0.325,0.110
4507,0.350,0.115
4508,0.335,0.110
4509,0.310,0.095
4510,0.335,0.140
4511,0.360,0.180
4512,0.370,0.140
4513,0.340,0.140
4514,0.350,0.155
4515,0.360,0.190
4516,0.350,0.145
4517,0.350,0.145
4518,0.365,0.120
4519,0.345,0.140
4520,0.375,0.135
4521,0.360,0.095
4522,0.360,0.155
4523,0.370,0.095
4524,0.330,0.180
4525,0.305,0.185
4526,0.305,0.150
4527,0.315,0.130
4528,0.325,0.190
4529,0.305,0.150
4530,0.340,0.140
4531,0.340,0.130
4532,0.335,0.120
4533,0.335,0.150
4534,0.340,0.195
4535,0.560,0.165
4536,0.885,0.090
4537,1.095,0.035
4538,0.825,-0.240
4539,0.295,-0.415
4540,0.110,-0.460
4541,0.130,-0.260
4542,0.265,0.015
4543,0.285,0.205
4544,0.255,0.240
4545,0.290,0.190
4546,0.265,0.185
4547,0.265,0.205
4548,0.260,0.170
4549,0.240,0.175
4550,0.245,0.150
4551,0.235,0.150
4552,0.285,0.170
4553,0.275,0.120
4554,0.250,0.155
4555,0.235,0.155
4556,0.260,0.105
4557,0.235,0.140
4558,0.235,0.190
4559,0.230,0.095
4560,0.235,0.140
4561,0.220,0.150
4562,0.265,0.115
4563,0.260,0.140
4564,0.240,0.155
4565,0.215,0.140
4566,0.235,0.130
4567,0.265,0.135
4568,0.225,0.180
4569,0.230,0.110
4570,0.250,0.135
4571,0.275,0.150
4572,0.270,0.140
4573,0.255,0.145
4574,0.245,0.115
4575,0.280,0.105
4576,0.305,0.085
4577,0.295,0.130
4578,0.300,0.125
4579,0.320,0.055
4580,0.320,0.095
4581,0.325,0.090
4582,0.330,0.070
4583,0.325,0.085
4584,0.300,0.085
4585,0.315,0.080
4586,0.300,0.050
4587,0.315,0.090
4588,0.290,0.085
4589,0.285,0.060
4590,0.305,0.020
4591,0.285,0.030
4592,0.280,0.080
4593,0.305,0.060
4594,0.310,0.040
4595,0.280,0.080
4596,0.270,0.100
4597,0.295,0.045
4598,0.305,0.035
4599,0.335,0.060
4600,0.310,0.105
4601,0.305,0.080
4602,0.310,0.040
4603,0.290,0.075
4604,0.300,0.080
4605,0.295,0.055
4606,0.285,0.080
4607,0.295,0.050
4608,0.280,0.055
4609,0.280,0.065
4610,0.295,0.075
4611,0.285,0.035
4612,0.270,0.090
4613,0.280,0.065
4614,0.265,0.045
4615,0.275,0.095
4616,0.260,0.075
4617,0.275,0.050
4618,0.275,0.090
4619,0.250,0.110
4620,0.270,0.060
4621,0.280,0.040
4622,0.265,0.075
4623,0.245,0.090
4624,0.290,0.070
4625,0.260,0.070
4626,0.270,0.075
4627,0.270,0.075
4628,0.275,0.075
4629,0.275,0.055
4630,0.255,0.070
4631,0.235,0.140
4632,0.280,0.020
4633,0.255,0.050
4634,0.265,0.075
4635,0.285,0.090
4636,0.255,0.100
4637,0.250,0.100
4638,0.260,0.060
4639,0.250,0.085
4640,0.250,0.050
4641,0.265,0.065
4642,0.265,0.090
4643,0.265,0.095
4644,0.270,0.065
4645,0.310,0.055
4646,0.305,0.085
4647,0.315,0.090
4648,0.320,0.100
4649,0.325,0.100
4650,0.320,0.100
4651,0.315,0.060
4652,0.305,0.050
4653,0.295,0.050
4654,0.290,0.070
4655,0.305,0.050
4656,0.310,0.050
4657,0.285,0.070
4658,0.265,0.080
4659,0.275,0.070
4660,0.255,0.090
4661,0.240,0.085
4662,0.260,0.080
4663,0.265,0.095
4664,0.270,0.080
4665,0.250,0.065
4666,0.240,0.075
4667,0.245,0.065
4668,0.250,0.040
4669,0.280,0.080
4670,0.470,0.090
4671,0.815,0.050
4672,1.150,-0.035
4673,1.025,-0.225
4674,0.445,-0.405
4675,0.110,-0.445
4676,0.020,-0.360
4677,0.130,-0.155
4678,0.215,0.040
4679,0.235,0.140
4680,0.225,0.150
4681,0.210,0.075
4682,0.225,0.085
4683,0.230,0.080
4684,0.230,0.090
4685,0.225,0.085
4686,0.205,0.080
4687,0.220,0.065
4688,0.215,0.065
4689,0.210,0.050
4690,0.200,0.075
4691,0.175,0.080
4692,0.175,0.085
4693,0.190,0.075
4694,0.190,0.100
4695,0.175,0.110
4696,0.165,0.115
4697,0.160,0.100
4698,0.160,0.115
4699,0.145,0.110
4700,0.150,0.090
4701,0.135,0.110
4702,0.140,0.105
4703,0.145,0.120
4704,0.155,0.100
4705,0.135,0.105
4706,0.150,0.095
4707,0.145,0.105
4708,0.150,0.085
4709,0.155,0.085
4710,0.165,0.085
4711,0.160,0.085
4712,0.180,0.070
4713,0.185,0.045
4714,0.190,0.065
4715,0.175,0.090
4716,0.205,0.035
4717,0.195,0.045
4718,0.175,0.035
4719,0.170,0.055
4720,0.160,0.045
4721,0.175,0.045
4722,0.170,0.055
4723,0.130,0.050
4724,0.120,0.045
4725,0.130,0.025
4726,0.130,0.025
4727,0.125,0.035
4728,0.120,0.040
4729,0.135,0.040
4730,0.130,0.035
4731,0.130,0.045
4732,0.125,0.035
4733,0.120,0.055
4734,0.115,0.050
4735,0.115,0.025
4736,0.105,0.040
4737,0.135,0.010
4738,0.115,0.035
4739,0.115,0.055
4740,0.120,0.045
4741,0.115,0.050
4742,0.115,0.040
4743,0.115,0.060
4744,0.105,0.045
4745,0.085,0.045
4746,0.095,0.005
4747,0.100,0.025
4748,0.095,0.035
4749,0.080,0.030
4750,0.075,0.040
4751,0.090,0.030
4752,0.080,0.030
4753,0.060,0.040
4754,0.065,0.045
4755,0.070,0.020
4756,0.055,0.030
4757,0.065,0.015
4758,0.055,0.020
4759,0.045,0.015
4760,0.060,0.035
4761,0.060,0.040
4762,0.055,0.040
4763,0.045,0.030
4764,0.040,0.030
4765,0.060,0.015
4766,0.060,0.030
4767,0.025,0.050
4768,0.030,0.010
4769,0.035,0.025
4770,0.035,0.005
4771,0.025,0.020
4772,0.035,0.035
4773,0.020,0.025
4774,0.020,0.030
4775,0.040,0.020
4776,0.030,0.030
4777,0.020,0.020
4778,0.025,0.025
4779,0.015,0.060
4780,0.050,0.025
4781,0.055,0.030
4782,0.040,0.065
4783,0.050,0.065
4784,0.045,0.055
4785,0.045,0.045
4786,0.030,0.020
4787,0.025,0.025
4788,0.040,0.015
4789,0.030,0.030
4790,0.020,0.040
4791,0.000,0.020
4792,0.015,0.000
4793,0.000,0.015
4794,0.000,0.030
4795,-0.010,0.070
4796,-0.005,0.035
4797,-0.015,0.040
4798,-0.015,0.045
4799,-0.005,0.035
4800,-0.005,0.005
4801,-0.005,0.020
4802,-0.020,0.020
4803,0.000,0.060
4804,0.210,0.075
4805,0.535,0.030
4806,0.790,-0.035
4807,0.620,-0.200
4808,0.050,-0.365
4809,-0.255,-0.450
4810,-0.305,-0.335
4811,-0.190,-0.140
4812,-0.090,0.010
4813,-0.080,0.100
4814,-0.085,0.115
4815,-0.100,0.075
4816,-0.100,0.075
4817,-0.105,0.070
4818,-0.095,0.060
4819,-0.110,0.040
4820,-0.105,0.050
4821,-0.115,0.045
4822,-0.125,0.050
4823,-0.130,0.030
4824,-0.135,0.020
4825,-0.120,0.050
4826,-0.130,0.055
4827,-0.155,0.030
4828,-0.150,0.040
4829,-0.130,0.040
4830,-0.140,0.055
4831,-0.145,0.045
4832,-0.140,0.040
4833,-0.135,0.060
4834,-0.155,0.075
4835,-0.150,0.025
4836,-0.145,0.035
4837,-0.140,0.075
4838,-0.135,0.070
4839,-0.135,0.055
4840,-0.140,0.070
4841,-0.140,0.040
4842,-0.145,0.030
4843,-0.130,0.040
4844,-0.105,0.045
4845,-0.120,0.050
4846,-0.080,0.030
4847,-0.080,0.030
4848,-0.060,0.025
4849,-0.080,0.000
4850,-0.080,0.030
4851,-0.080,0.035
4852,-0.065,0.005
4853,-0.095,0.015
4854,-0.110,0.035
4855,-0.115,0.015
4856,-0.115,0.020
4857,-0.120,0.030
4858,-0.120,0.030
4859,-0.135,0.010
4860,-0.140,0.025
4861,-0.135,0.030
4862,-0.135,0.030
4863,-0.130,0.015
4864,-0.135,0.030
4865,-0.120,0.030
4866,-0.150,0.025
4867,-0.115,0.025
4868,-0.130,0.040
4869,-0.130,0.050
4870,-0.125,0.030
4871,-0.110,0.035
4872,-0.110,0.060
4873,-0.120,0.055
4874,-0.135,0.060
4875,-0.130,0.050
4876,-0.145,0.075
4877,-0.150,0.030
4878,-0.140,0.025
4879,-0.140,0.040
4880,-0.145,0.055
4881,-0.165,0.050
4882,-0.170,0.040
4883,-0.150,0.040
4884,-0.170,0.050
4885,-0.165,0.050
4886,-0.160,0.045
4887,-0.155,0.045
4888,-0.185,0.065
4889,-0.185,0.035
4890,-0.190,0.020
4891,-0.185,0.045
4892,-0.160,0.020
4893,-0.175,0.045
4894,-0.185,0.040
4895,-0.170,0.030
4896,-0.170,0.045
4897,-0.170,0.045
4898,-0.180,0.045
4899,-0.205,0.040
4900,-0.195,0.025
4901,-0.200,0.015
4902,-0.200,0.035
4903,-0.195,0.035
4904,-0.220,0.040
4905,-0.210,0.035
4906,-0.210,0.030
4907,-0.215,0.020
4908,-0.215,0.035
4909,-0.205,0.040
4910,-0.210,0.045
4911,-0.195,0.055
4912,-0.220,0.050
4913,-0.220,0.045
4914,-0.200,0.010
4915,-0.185,0.040
4916,-0.175,0.075
4917,-0.175,0.070
4918,-0.175,0.045
4919,-0.195,0.045
4920,-0.210,0.030
4921,-0.215,0.015
4922,-0.205,0.030
4923,-0.195,0.010
4924,-0.215,0.005
4925,-0.200,0.010
4926,-0.220,0.025
4927,-0.230,0.035
4928,-0.245,0.035
4929,-0.255,0.055
4930,-0.285,0.030
4931,-0.260,0.035
4932,-0.250,0.045
4933,-0.260,0.050
4934,-0.280,0.030
4935,-0.280,0.030
4936,-0.250,0.040
4937,-0.245,0.040
4938,-0.130,0.090
4939,0.140,0.055
4940,0.435,0.030
4941,0.485,-0.080
4942,0.025,-0.275
4943,-0.465,-0.405
4944,-0.590,-0.390
4945,-0.525,-0.205
4946,-0.380,-0.010
4947,-0.335,0.115
4948,-0.355,0.125
4949,-0.335,0.105
4950,-0.330,0.095
4951,-0.330,0.090
4952,-0.340,0.065
4953,-0.330,0.060
4954,-0.340,0.055
4955,-0.340,0.070
4956,-0.340,0.070
4957,-0.355,0.080
4958,-0.350,0.065
4959,-0.345,0.055
4960,-0.360,0.075
4961,-0.340,0.085
4962,-0.345,0.070
4963,-0.360,0.065
4964,-0.350,0.080
4965,-0.340,0.085
4966,-0.350,0.100
4967,-0.340,0.085
4968,-0.355,0.110
4969,-0.345,0.110
4970,-0.350,0.085
4971,-0.335,0.095
4972,-0.335,0.110
4973,-0.355,0.110
4974,-0.335,0.120
4975,-0.330,0.125
4976,-0.315,0.095
4977,-0.330,0.105
4978,-0.320,0.090
4979,-0.315,0.080
4980,-0.275,0.075
4981,-0.265,0.095
4982,-0.255,0.080
4983,-0.255,0.075
4984,-0.240,0.075
4985,-0.245,0.085
4986,-0.265,0.075
4987,-0.270,0.075
4988,-0.275,0.055
4989,-0.285,0.045
4990,-0.285,0.050
4991,-0.300,0.065
4992,-0.310,0.090
4993,-0.285,0.065
4994,-0.280,0.060
4995,-0.290,0.070
4996,-0.300,0.065
4997,-0.300,0.055
4998,-0.300,0.075
4999,-0.295,0.095
5000,-0.290,0.055
5001,-0.285,0.070
5002,-0.300,0.110
5003,-0.280,0.075
5004,-0.275,0.075
5005,-0.280,0.100
5006,-0.300,0.090
5007,-0.295,0.080
5008,-0.290,0.080
5009,-0.275,0.105
5010,-0.280,0.110
5011,-0.295,0.100
5012,-0.305,0.095
5013,-0.305,0.110
5014,-0.280,0.105
5015,-0.295,0.105
5016,-0.310,0.110
5017,-0.320,0.110
5018,-0.305,0.065
5019,-0.305,0.095
5020,-0.290,0.085
5021,-0.315,0.080
5022,-0.295,0.085
5023,-0.310,0.090
5024,-0.300,0.095
5025,-0.310,0.080
5026,-0.310,0.085
5027,-0.310,0.075
5028,-0.305,0.075
5029,-0.320,0.080
5030,-0.300,0.070
5031,-0.310,0.095
5032,-0.320,0.070
5033,-0.310,0.070
5034,-0.315,0.065
5035,-0.315,0.075
5036,-0.320,0.055
5037,-0.340,0.060
5038,-0.325,0.090
5039,-0.300,0.070
5040,-0.320,0.075
5041,-0.325,0.070
5042,-0.325,0.065
5043,-0.305,0.080
5044,-0.310,0.070
5045,-0.320,0.075
5046,-0.325,0.075
5047,-0.295,0.065
5048,-0.285,0.070
5049,-0.290,0.095
5050,-0.280,0.105
5051,-0.275,0.100
5052,-0.285,0.085
5053,-0.290,0.060
5054,-0.290,0.060
5055,-0.300,0.035
5056,-0.300,0.035
5057,-0.300,0.055
5058,-0.290,0.040
5059,-0.310,0.045
5060,-0.315,0.040
5061,-0.315,0.075
5062,-0.330,0.085
5063,-0.340,0.090
5064,-0.335,0.070
5065,-0.335,0.065
5066,-0.335,0.050
5067,-0.310,0.060
5068,-0.320,0.060
5069,-0.320,0.070
5070,-0.320,0.080
5071,-0.250,0.090
5072,0.040,0.085
5073,0.355,0.045
5074,0.470,-0.025
5075,0.055,-0.225
5076,-0.465,-0.375
5077,-0.595,-0.385
5078,-0.545,-0.190
5079,-0.415,-0.015
5080,-0.385,0.100
5081,-0.380,0.145
5082,-0.400,0.125
5083,-0.390,0.110
5084,-0.395,0.105
5085,-0.380,0.090
5086,-0.390,0.090
5087,-0.380,0.100
5088,-0.395,0.090
5089,-0.395,0.085
5090,-0.400,0.070
5091,-0.395,0.100
5092,-0.390,0.080
5093,-0.390,0.090
5094,-0.395,0.100
5095,-0.415,0.080
5096,-0.400,0.085
5097,-0.405,0.105
5098,-0.400,0.085
5099,-0.390,0.095
5100,-0.385,0.095
5101,-0.395,0.105
5102,-0.385,0.100
5103,-0.390,0.090
5104,-0.370,0.100
5105,-0.385,0.120
5106,-0.375,0.115
5107,-0.380,0.080
5108,-0.385,0.100
5109,-0.380,0.100
5110,-0.360,0.095
5111,-0.365,0.085
5112,-0.340,0.080
5113,-0.320,0.080
5114,-0.305,0.080
5115,-0.295,0.080
5116,-0.285,0.070
5117,-0.280,0.060
5118,-0.280,0.075
5119,-0.310,0.070
5120,-0.310,0.075
5121,-0.305,0.050
5122,-0.310,0.055
5123,-0.325,0.070
5124,-0.345,0.085
5125,-0.325,0.045
5126,-0.320,0.055
5127,-0.305,0.060
5128,-0.335,0.080
5129,-0.345,0.065
5130,-0.335,0.060
5131,-0.310,0.055
5132,-0.310,0.055
5133,-0.325,0.075
5134,-0.310,0.060
5135,-0.305,0.065
5136,-0.295,0.075
5137,-0.280,0.085
5138,-0.300,0.100
5139,-0.305,0.090
5140,-0.280,0.065
5141,-0.295,0.070
5142,-0.280,0.100
5143,-0.290,0.095
5144,-0.275,0.075
5145,-0.295,0.105
5146,-0.290,0.110
5147,-0.305,0.080
5148,-0.295,0.080
5149,-0.310,0.080
5150,-0.300,0.075
5151,-0.320,0.080
5152,-0.310,0.070
5153,-0.295,0.080
5154,-0.310,0.095
5155,-0.315,0.100
5156,-0.305,0.085
5157,-0.310,0.060
5158,-0.310,0.075
5159,-0.320,0.090
5160,-0.320,0.080
5161,-0.315,0.070
5162,-0.300,0.075
5163,-0.315,0.085
5164,-0.315,0.085
5165,-0.300,0.075
5166,-0.300,0.070
5167,-0.320,0.065
5168,-0.310,0.065
5169,-0.300,0.075
5170,-0.300,0.055
5171,-0.280,0.065
5172,-0.310,0.090
5173,-0.320,0.080
5174,-0.305,0.050
5175,-0.280,0.065
5176,-0.290,0.075
5177,-0.295,0.070
5178,-0.315,0.065
5179,-0.305,0.065
5180,-0.290,0.055
5181,-0.300,0.080
5182,-0.285,0.070
5183,-0.280,0.040
5184,-0.275,0.085
5185,-0.240,0.075
5186,-0.260,0.090
5187,-0.260,0.100
5188,-0.280,0.080
5189,-0.270,0.055
5190,-0.245,0.045
5191,-0.275,0.060
5192,-0.285,0.025
5193,-0.270,0.030
5194,-0.265,0.050
5195,-0.275,0.055
5196,-0.280,0.035
5197,-0.285,0.040
5198,-0.305,0.065
5199,-0.310,0.080
5200,-0.290,0.055
5201,-0.295,0.065
5202,-0.300,0.035
5203,-0.310,0.070
5204,-0.295,0.040
5205,-0.295,0.045
5206,-0.290,0.055
5207,-0.185,0.095
5208,0.135,0.070
5209,0.435,0.035
5210,0.480,-0.090
5211,0.000,-0.260
5212,-0.485,-0.400
5213,-0.595,-0.345
5214,-0.475,-0.175
5215,-0.365,-0.010
5216,-0.330,0.110
5217,-0.325,0.135
5218,-0.350,0.135
5219,-0.320,0.110
5220,-0.340,0.095
5221,-0.335,0.090
5222,-0.340,0.090
5223,-0.330,0.090
5224,-0.320,0.075
5225,-0.320,0.085
5226,-0.335,0.095
5227,-0.335,0.080
5228,-0.330,0.080
5229,-0.345,0.090
5230,-0.340,0.060
5231,-0.340,0.080
5232,-0.345,0.085
5233,-0.335,0.090
5234,-0.320,0.095
5235,-0.315,0.095
5236,-0.320,0.105
5237,-0.325,0.095
5238,-0.325,0.115
5239,-0.315,0.095
5240,-0.310,0.100
5241,-0.325,0.105
5242,-0.315,0.110
5243,-0.310,0.110
5244,-0.310,0.095
5245,-0.285,0.100
5246,-0.295,0.095
5247,-0.285,0.085
5248,-0.250,0.090
5249,-0.245,0.095
5250,-0.245,0.080
5251,-0.230,0.085
5252,-0.230,0.075
5253,-0.220,0.090
5254,-0.225,0.075
5255,-0.235,0.055
5256,-0.235,0.050
5257,-0.245,0.060
5258,-0.240,0.075
5259,-0.245,0.060
5260,-0.245,0.045
5261,-0.245,0.055
5262,-0.235,0.055
5263,-0.250,0.080
5264,-0.245,0.050
5265,-0.245,0.035
5266,-0.245,0.070
5267,-0.240,0.065
5268,-0.225,0.055
5269,-0.240,0.070
5270,-0.235,0.060
5271,-0.240,0.070
5272,-0.225,0.090
5273,-0.215,0.095
5274,-0.200,0.070
5275,-0.210,0.095
5276,-0.210,0.085
5277,-0.215,0.080
5278,-0.210,0.080
5279,-0.200,0.090
5280,-0.205,0.100
5281,-0.210,0.085
5282,-0.210,0.085
5283,-0.210,0.080
5284,-0.225,0.075
5285,-0.230,0.095
5286,-0.225,0.080
5287,-0.215,0.060
5288,-0.205,0.075
5289,-0.225,0.085
5290,-0.225,0.065
5291,-0.230,0.065
5292,-0.240,0.075
5293,-0.215,0.105
5294,-0.230,0.065
5295,-0.235,0.035
5296,-0.235,0.065
5297,-0.220,0.065
5298,-0.210,0.065
5299,-0.220,0.060
5300,-0.240,0.080
5301,-0.220,0.065
5302,-0.215,0.080
5303,-0.215,0.040
5304,-0.210,0.050
5305,-0.220,0.065
5306,-0.215,0.075
5307,-0.195,0.060
5308,-0.200,0.045
5309,-0.225,0.060
5310,-0.195,0.065
5311,-0.205,0.065
5312,-0.200,0.060
5313,-0.180,0.040
5314,-0.195,0.070
5315,-0.200,0.060
5316,-0.175,0.085
5317,-0.160,0.060
5318,-0.145,0.075
5319,-0.145,0.105
5320,-0.145,0.080
5321,-0.165,0.080
5322,-0.165,0.080
5323,-0.165,0.040
5324,-0.160,0.055
5325,-0.175,0.045
5326,-0.160,0.045
5327,-0.165,0.025
5328,-0.180,0.040
5329,-0.190,0.050
5330,-0.195,0.055
5331,-0.190,0.080
5332,-0.190,0.090
5333,-0.195,0.060
5334,-0.205,0.045
5335,-0.200,0.055
5336,-0.185,0.055
5337,-0.185,0.065
5338,-0.195,0.055
5339,-0.195,0.065
5340,-0.120,0.080
5341,0.145,0.100
5342,0.460,0.065
5343,0.665,-0.015
5344,0.310,-0.155
5345,-0.250,-0.305
5346,-0.455,-0.360
5347,-0.425,-0.215
5348,-0.295,-0.045
5349,-0.235,0.060
5350,-0.225,0.130
5351,-0.225,0.120
5352,-0.210,0.110
5353,-0.205,0.120
5354,-0.230,0.115
5355,-0.210,0.105
5356,-0.220,0.085
5357,-0.220,0.085
5358,-0.220,0.075
5359,-0.230,0.090
5360,-0.245,0.085
5361,-0.220,0.065
5362,-0.215,0.095
5363,-0.210,0.100
5364,-0.225,0.100
5365,-0.230,0.080
5366,-0.220,0.065
5367,-0.215,0.085
5368,-0.230,0.110
5369,-0.225,0.095
5370,-0.215,0.100
5371,-0.210,0.115
5372,-0.210,0.110
5373,-0.225,0.115
5374,-0.215,0.110
5375,-0.190,0.115
5376,-0.190,0.130
5377,-0.200,0.115
5378,-0.195,0.100
5379,-0.180,0.095
5380,-0.160,0.115
5381,-0.155,0.090
5382,-0.140,0.095
5383,-0.145,0.095
5384,-0.125,0.070
5385,-0.105,0.075
5386,-0.100,0.100
5387,-0.095,0.080
5388,-0.115,0.085
5389,-0.100,0.080
5390,-0.115,0.075
5391,-0.120,0.070
5392,-0.120,0.075
5393,-0.120,0.085
5394,-0.130,0.070
5395,-0.130,0.085
5396,-0.130,0.060
5397,-0.130,0.070
5398,-0.135,0.080
5399,-0.120,0.060
5400,-0.105,0.065
5401,-0.110,0.085
5402,-0.085,0.075
5403,-0.090,0.080
5404,-0.105,0.085
5405,-0.095,0.065
5406,-0.090,0.080
5407,-0.085,0.085
5408,-0.080,0.080
5409,-0.070,0.095
5410,-0.080,0.105
5411,-0.070,0.100
5412,-0.090,0.085
5413,-0.105,0.095
5414,-0.075,0.080
5415,-0.085,0.085
5416,-0.090,0.085
5417,-0.105,0.095
5418,-0.095,0.090
5419,-0.110,0.075
5420,-0.110,0.090
5421,-0.095,0.065
5422,-0.110,0.090
5423,-0.105,0.095
5424,-0.085,0.045
5425,-0.085,0.050
5426,-0.090,0.075
5427,-0.105,0.090
5428,-0.090,0.060
5429,-0.055,0.075
5430,-0.085,0.080
5431,-0.080,0.085
5432,-0.105,0.085
5433,-0.080,0.080
5434,-0.085,0.090
5435,-0.100,0.075
5436,-0.090,0.080
5437,-0.080,0.065
5438,-0.090,0.060
5439,-0.075,0.065
5440,-0.080,0.075
5441,-0.080,0.060
5442,-0.065,0.070
5443,-0.070,0.080
5444,-0.075,0.065
5445,-0.070,0.065
5446,-0.080,0.070
5447,-0.070,0.075
5448,-0.085,0.065
5449,-0.080,0.065
5450,-0.060,0.045
5451,-0.070,0.040
5452,-0.045,0.070
5453,-0.035,0.090
5454,-0.035,0.090
5455,-0.035,0.100
5456,-0.035,0.055
5457,-0.040,0.060
5458,-0.055,0.065
5459,-0.040,0.035
5460,-0.060,0.030
5461,-0.065,0.040
5462,-0.050,0.020
5463,-0.060,0.045
5464,-0.060,0.025
5465,-0.090,0.045
5466,-0.085,0.055
5467,-0.075,0.060
5468,-0.090,0.065
5469,-0.085,0.070
5470,-0.085,0.040
5471,-0.095,0.040
5472,-0.095,0.065
5473,-0.065,0.060
5474,-0.080,0.030
5475,-0.050,0.065
5476,0.100,0.095
5477,0.460,0.060
5478,0.725,0.000
5479,0.575,-0.160
5480,-0.060,-0.330
5481,-0.385,-0.405
5482,-0.395,-0.300
5483,-0.250,-0.115
5484,-0.145,0.040
5485,-0.125,0.125
5486,-0.135,0.155
5487,-0.125,0.125
5488,-0.135,0.125
5489,-0.145,0.085
5490,-0.145,0.075
5491,-0.125,0.095
5492,-0.140,0.090
5493,-0.130,0.080
5494,-0.145,0.085
5495,-0.140,0.070
5496,-0.145,0.070
5497,-0.155,0.065
5498,-0.155,0.080
5499,-0.125,0.070
5500,-0.130,0.070
5501,-0.135,0.105
5502,-0.155,0.100
5503,-0.140,0.085
5504,-0.135,0.090
5505,-0.150,0.120
5506,-0.135,0.100
5507,-0.135,0.095
5508,-0.110,0.105
5509,-0.120,0.110
5510,-0.110,0.105
5511,-0.110,0.120
5512,-0.110,0.125
5513,-0.085,0.110
5514,-0.085,0.125
5515,-0.080,0.115
5516,-0.080,0.110
5517,-0.065,0.110
5518,-0.030,0.080
5519,-0.020,0.080
5520,-0.025,0.080
5521,-0.005,0.090
5522,0.000,0.090
5523,0.000,0.095
5524,0.000,0.080
5525,0.000,0.070
5526,0.000,0.090
5527,0.005,0.090
5528,-0.005,0.090
5529,-0.010,0.085
5530,-0.015,0.065
5531,-0.010,0.065
5532,-0.005,0.065
5533,-0.015,0.075
5534,-0.005,0.070
5535,-0.005,0.075
5536,-0.015,0.080
5537,-0.010,0.085
5538,-0.005,0.090
5539,-0.010,0.095
5540,0.000,0.075
5541,0.000,0.080
5542,0.010,0.095
5543,0.020,0.075
5544,0.015,0.095
5545,0.000,0.085
5546,0.000,0.085
5547,0.020,0.085
5548,0.020,0.095
5549,-0.015,0.065
5550,0.000,0.060
5551,-0.005,0.065
5552,-0.005,0.070
5553,-0.005,0.075
5554,0.000,0.065
5555,0.005,0.060
5556,0.010,0.070
5557,0.010,0.075
5558,-0.005,0.075
5559,-0.015,0.065
5560,-0.020,0.045
5561,-0.020,0.045
5562,0.000,0.050
5563,-0.010,0.055
5564,-0.010,0.060
5565,-0.020,0.065
5566,-0.005,0.050
5567,-0.005,0.055
5568,-0.015,0.075
5569,-0.020,0.070
5570,-0.020,0.040
5571,-0.005,0.060
5572,0.000,0.035
5573,-0.020,0.055
5574,-0.030,0.035
5575,-0.010,0.040
5576,-0.025,0.045
5577,-0.015,0.045
5578,-0.010,0.055
5579,-0.015,0.045
5580,-0.020,0.065
5581,-0.015,0.055
5582,-0.005,0.040
5583,-0.025,0.050
5584,-0.035,0.050
5585,-0.020,0.030
5586,-0.010,0.050
5587,-0.015,0.075
5588,-0.005,0.055
5589,0.000,0.055
5590,0.000,0.050
5591,0.000,0.040
5592,0.000,0.035
5593,-0.005,0.030
5594,-0.020,0.035
5595,-0.005,0.010
5596,0.005,0.010
5597,-0.015,0.040
5598,-0.030,0.030
5599,-0.045,0.030
5600,-0.040,0.025
5601,-0.035,0.035
5602,-0.015,0.040
5603,-0.030,0.035
5604,-0.040,0.050
5605,-0.020,0.020
5606,-0.015,0.050
5607,-0.035,0.030
5608,-0.045,0.035
5609,0.065,0.055
5610,0.425,0.040
5611,0.735,0.010
5612,0.810,-0.065
5613,0.265,-0.230
5614,-0.280,-0.340
5615,-0.360,-0.310
5616,-0.255,-0.150
5617,-0.120,0.005
5618,-0.095,0.085
5619,-0.095,0.105
5620,-0.100,0.105
5621,-0.090,0.100
5622,-0.100,0.070
5623,-0.100,0.070
5624,-0.095,0.070
5625,-0.095,0.065
5626,-0.095,0.070
5627,-0.100,0.070
5628,-0.115,0.045
5629,-0.090,0.055
5630,-0.075,0.060
5631,-0.095,0.100
5632,-0.105,0.065
5633,-0.100,0.055
5634,-0.100,0.075
5635,-0.100,0.055
5636,-0.110,0.055
5637,-0.120,0.075
5638,-0.100,0.090
5639,-0.085,0.090
5640,-0.085,0.090
5641,-0.070,0.095
5642,-0.075,0.080
5643,-0.090,0.095
5644,-0.070,0.085
5645,-0.070,0.075
5646,-0.060,0.090
5647,-0.065,0.085
5648,-0.060,0.070
5649,-0.025,0.080
5650,-0.020,0.060
5651,-0.010,0.050
5652,-0.010,0.055
5653,0.010,0.075
5654,0.025,0.075
5655,0.030,0.045
5656,0.015,0.070
5657,0.010,0.075
5658,0.010,0.050
5659,0.005,0.045
5660,0.000,0.065
5661,0.000,0.040
5662,-0.005,0.045
5663,0.000,0.065
5664,0.000,0.065
5665,-0.010,0.050
5666,-0.010,0.040
5667,-0.010,0.045
5668,0.000,0.055
5669,0.005,0.045
5670,0.010,0.060
5671,-0.005,0.045
5672,0.000,0.050
5673,0.000,0.035
5674,0.035,0.045
5675,0.015,0.065
5676,0.010,0.085
5677,0.010,0.030
5678,0.020,0.045
5679,0.000,0.055
5680,0.010,0.040
5681,0.015,0.045
5682,0.000,0.055
5683,0.010,0.020
5684,0.015,0.025
5685,0.000,0.055
5686,-0.005,0.060
5687,0.000,0.030
5688,0.000,0.045
5689,-0.010,0.035
5690,-0.010,0.050
5691,-0.020,0.000
5692,-0.015,0.020
5693,0.000,0.025
5694,-0.010,0.050
5695,-0.040,0.055
5696,-0.040,0.025
5697,-0.020,0.000
5698,-0.015,0.025
5699,-0.030,0.035
5700,-0.025,0.015
5701,-0.020,0.035
5702,-0.025,0.030
5703,0.000,0.000
5704,-0.025,0.030
5705,-0.030,0.000
5706,-0.030,0.000
5707,-0.015,0.010
5708,-0.015,0.015
5709,-0.030,0.030
5710,-0.030,0.000
5711,-0.045,0.020
5712,-0.025,0.005
5713,-0.010,0.000
5714,-0.045,0.020
5715,-0.040,-0.010
5716,-0.025,-0.020
5717,-0.025,0.020
5718,-0.030,0.000
5719,0.000,0.000
5720,-0.005,0.015
5721,-0.005,0.020
5722,0.000,0.000
5723,0.000,0.005
5724,0.005,0.000
5725,-0.015,0.005
5726,-0.005,-0.010
5727,-0.005,-0.015
5728,-0.005,-0.025
5729,-0.015,-0.040
5730,-0.030,-0.020
5731,-0.010,-0.005
5732,-0.010,-0.015
5733,-0.015,0.010
5734,-0.040,0.015
5735,-0.055,0.000
5736,-0.030,-0.005
5737,-0.015,0.010
5738,-0.025,0.000
5739,-0.020,0.020
5740,-0.030,0.010
5741,-0.060,0.040
5742,0.005,0.000
5743,0.250,0.010
5744,0.595,0.040
5745,0.915,-0.035
5746,0.885,-0.160
5747,0.225,-0.315
5748,-0.315,-0.400
5749,-0.370,-0.335
5750,-0.245,-0.155
5751,-0.120,-0.005
5752,-0.075,0.040
5753,-0.085,0.075
5754,-0.075,0.050
5755,-0.095,0.060
5756,-0.080,0.060
5757,-0.070,0.025
5758,-0.080,0.040
5759,-0.090,0.045
5760,-0.075,0.020
5761,-0.075,0.020
5762,-0.085,0.030
5763,-0.095,0.020
5764,-0.090,0.020
5765,-0.105,0.015
5766,-0.085,0.010
5767,-0.085,0.035
5768,-0.095,0.050
5769,-0.115,0.030
5770,-0.085,0.005
5771,-0.095,0.035
5772,-0.085,0.045
5773,-0.085,0.025
5774,-0.095,0.055
5775,-0.075,0.050
5776,-0.085,0.045
5777,-0.095,0.055
5778,-0.075,0.015
5779,-0.070,0.030
5780,-0.065,0.070
5781,-0.055,0.040
5782,-0.040,0.035
5783,-0.050,0.020
5784,-0.030,0.025
5785,0.000,0.035
5786,0.020,0.030
5787,0.020,0.015
5788,0.020,0.030
5789,0.010,0.035
5790,0.025,0.005
5791,0.025,0.000
5792,0.025,0.015
5793,0.010,0.020
5794,0.000,0.020
5795,0.000,0.010
5796,0.000,0.000
5797,0.000,0.025
5798,-0.005,0.015
5799,-0.005,0.015
5800,0.000,0.025
5801,0.000,0.000
5802,-0.005,0.015
5803,0.000,0.000
5804,0.000,0.020
5805,0.005,0.015
5806,0.000,-0.005
5807,-0.005,0.005
5808,0.000,-0.010
5809,0.010,0.000
5810,0.025,0.005
5811,0.010,0.000
5812,0.015,-0.010
5813,0.025,0.015
5814,0.020,0.025
5815,0.010,0.020
5816,0.025,0.005
5817,0.010,0.015
5818,-0.005,0.000
5819,0.015,-0.010
5820,0.005,0.020
5821,0.000,0.000
5822,0.000,0.000
5823,-0.015,0.015
5824,-0.010,0.025
5825,0.000,0.030
5826,0.000,0.000
5827,-0.005,0.005
5828,-0.025,0.010
5829,-0.010,0.005
5830,-0.015,0.000
5831,-0.010,-0.005
5832,-0.030,0.000
5833,-0.015,0.000
5834,-0.005,-0.005
5835,-0.020,0.015
5836,-0.030,0.005
5837,-0.020,-0.025
5838,-0.020,-0.005
5839,-0.015,0.000
5840,-0.025,-0.015
5841,-0.020,-0.010
5842,-0.035,-0.020
5843,-0.015,-0.005
5844,-0.035,0.000
5845,-0.020,-0.010
5846,-0.045,-0.035
5847,-0.020,-0.030
5848,-0.045,-0.010
5849,-0.025,-0.005
5850,-0.025,-0.035
5851,-0.025,-0.025
5852,-0.025,-0.010
5853,-0.020,-0.030
5854,0.000,-0.025
5855,0.000,0.000
5856,0.010,-0.005
5857,0.010,0.000
5858,-0.020,-0.030
5859,0.000,-0.025
5860,-0.015,-0.050
5861,-0.015,-0.060
5862,-0.020,-0.030
5863,-0.015,-0.070
5864,0.000,-0.055
5865,-0.030,-0.025
5866,-0.035,-0.045
5867,-0.035,-0.035
5868,-0.035,-0.010
5869,-0.040,-0.030
5870,-0.050,-0.020
5871,-0.040,-0.030
5872,-0.045,-0.035
5873,-0.040,-0.015
5874,-0.035,-0.035
5875,-0.045,-0.035
5876,0.050,-0.020
5877,0.375,0.000
5878,0.725,-0.030
5879,0.850,-0.120
5880,0.420,-0.255
5881,-0.235,-0.395
5882,-0.400,-0.420
5883,-0.305,-0.265
5884,-0.175,-0.120
5885,-0.105,0.000
5886,-0.080,0.010
5887,-0.090,0.030
5888,-0.100,0.030
5889,-0.085,0.005
5890,-0.110,0.005
5891,-0.110,0.005
5892,-0.095,-0.035
5893,-0.090,-0.010
5894,-0.100,-0.015
5895,-0.110,-0.025
5896,-0.120,0.000
5897,-0.095,-0.015
5898,-0.105,-0.030
5899,-0.105,0.000
5900,-0.115,-0.015
5901,-0.095,-0.015
5902,-0.110,-0.010
5903,-0.100,0.000
5904,-0.100,-0.010
5905,-0.095,-0.005
5906,-0.115,0.010
5907,-0.090,0.005
5908,-0.080,0.000
5909,-0.080,0.010
5910,-0.080,-0.005
5911,-0.095,0.000
5912,-0.075,0.005
5913,-0.060,0.010
5914,-0.055,-0.005
5915,-0.065,0.005
5916,-0.050,-0.005
5917,-0.025,-0.025
5918,-0.020,-0.010
5919,0.000,-0.005
5920,0.005,-0.005
5921,0.000,-0.010
5922,0.010,-0.030
5923,0.005,-0.015
5924,0.000,-0.050
5925,0.000,-0.025
5926,-0.005,-0.005
5927,-0.020,-0.020
5928,-0.030,-0.025
5929,-0.025,-0.030
5930,-0.040,-0.020
5931,-0.040,-0.020
5932,-0.030,-0.015
5933,-0.050,-0.020
5934,-0.040,-0.055
5935,-0.045,-0.045
5936,-0.040,-0.035
5937,-0.035,-0.040
5938,-0.040,-0.055
5939,-0.030,-0.035
5940,-0.030,-0.025
5941,-0.040,-0.040
5942,-0.015,-0.030
5943,-0.005,-0.035
5944,-0.030,-0.020
5945,-0.035,-0.040
5946,-0.020,-0.040
5947,-0.005,-0.025
5948,-0.025,-0.035
5949,-0.010,-0.025
5950,-0.025,-0.025
5951,-0.025,0.000
5952,-0.015,-0.035
5953,-0.050,-0.030
5954,-0.055,-0.010
5955,-0.060,-0.055
5956,-0.060,-0.030
5957,-0.060,-0.025
5958,-0.075,-0.055
5959,-0.065,-0.050
5960,-0.065,-0.030
5961,-0.065,-0.035
5962,-0.065,-0.035
5963,-0.085,-0.035
5964,-0.090,-0.025
5965,-0.080,-0.040
5966,-0.075,-0.035
5967,-0.095,-0.040
5968,-0.090,-0.035
5969,-0.095,-0.030
5970,-0.090,-0.045
5971,-0.085,-0.040
5972,-0.080,-0.020
5973,-0.080,-0.035
5974,-0.080,-0.030
5975,-0.080,-0.035
5976,-0.095,-0.015
5977,-0.105,-0.040
5978,-0.115,-0.040
5979,-0.105,-0.040
5980,-0.105,-0.065
5981,-0.100,-0.050
5982,-0.105,-0.030
5983,-0.120,-0.035
5984,-0.110,-0.055
5985,-0.105,-0.045
5986,-0.100,-0.055
5987,-0.080,-0.040
5988,-0.070,-0.035
5989,-0.060,-0.015
5990,-0.060,-0.030
5991,-0.055,-0.025
5992,-0.070,-0.025
5993,-0.085,-0.045
5994,-0.070,-0.060
5995,-0.075,-0.055
5996,-0.080,-0.095
5997,-0.110,-0.070
5998,-0.085,-0.070
5999,-0.060,-0.060
6000,-0.090,-0.040
6001,-0.100,-0.030
6002,-0.110,-0.045
6003,-0.110,-0.040
6004,-0.105,-0.030
6005,-0.120,-0.040
6006,-0.115,-0.035
6007,-0.115,-0.050
6008,-0.110,-0.045
6009,-0.115,-0.045
6010,-0.070,-0.035
6011,0.140,-0.005
6012,0.515,-0.040
6013,0.770,-0.100
6014,0.665,-0.230
6015,-0.015,-0.355
6016,-0.485,-0.430
6017,-0.470,-0.355
6018,-0.295,-0.195
6019,-0.190,-0.050
6020,-0.155,0.030
6021,-0.160,0.025
6022,-0.160,0.000
6023,-0.150,0.015
6024,-0.145,0.010
6025,-0.145,0.000
6026,-0.140,-0.005
6027,-0.145,-0.010
6028,-0.155,0.010
6029,-0.145,0.000
6030,-0.150,-0.010
6031,-0.150,0.000
6032,-0.160,-0.020
6033,-0.140,-0.035
6034,-0.130,-0.005
6035,-0.145,0.000
6036,-0.135,0.000
6037,-0.135,-0.010
6038,-0.130,0.000
6039,-0.100,0.000
6040,-0.110,0.000
6041,-0.100,0.020
6042,-0.130,0.020
6043,-0.110,0.005
6044,-0.100,0.000
6045,-0.100,0.025
6046,-0.110,0.015
6047,-0.090,0.010
6048,-0.080,0.020
6049,-0.095,0.030
6050,-0.090,0.025
6051,-0.075,0.000
6052,-0.070,0.020
6053,-0.045,0.000
6054,-0.030,0.000
6055,-0.035,0.015
6056,-0.020,0.000
6057,-0.010,-0.010
6058,-0.025,0.000
6059,-0.030,0.000
6060,-0.055,-0.020
6061,-0.060,-0.030
6062,-0.055,-0.025
6063,-0.055,-0.015
6064,-0.070,0.005
6065,-0.085,-0.025
6066,-0.090,-0.015
6067,-0.075,-0.005
6068,-0.065,0.000
6069,-0.070,-0.015
6070,-0.080,-0.015
6071,-0.085,-0.010
6072,-0.075,-0.010
6073,-0.070,-0.015
6074,-0.060,-0.015
6075,-0.070,0.000
6076,-0.075,-0.040
6077,-0.050,-0.030
6078,-0.050,0.000
6079,-0.045,-0.010
6080,-0.065,0.010
6081,-0.055,0.000
6082,-0.040,0.000
6083,-0.055,0.000
6084,-0.070,0.000
6085,-0.075,-0.015
6086,-0.075,0.000
6087,-0.065,-0.010
6088,-0.090,0.000
6089,-0.095,-0.010
6090,-0.100,0.000
6091,-0.100,-0.020
6092,-0.110,-0.015
6093,-0.110,-0.015
6094,-0.105,-0.020
6095,-0.125,-0.010
6096,-0.105,-0.010
6097,-0.110,-0.020
6098,-0.095,-0.035
6099,-0.115,-0.010
6100,-0.115,-0.020
6101,-0.110,-0.015
6102,-0.110,-0.015
6103,-0.110,-0.030
6104,-0.110,-0.020
6105,-0.135,-0.020
6106,-0.135,-0.055
6107,-0.120,-0.040
6108,-0.115,-0.020
6109,-0.145,-0.030
6110,-0.140,-0.060
6111,-0.135,-0.040
6112,-0.125,-0.020
6113,-0.135,-0.040
6114,-0.120,-0.050
6115,-0.130,-0.050
6116,-0.140,-0.030
6117,-0.110,-0.075
6118,-0.105,-0.055
6119,-0.115,-0.025
6120,-0.140,-0.040
6121,-0.115,-0.050
6122,-0.080,-0.030
6123,-0.090,-0.030
6124,-0.085,-0.025
6125,-0.100,-0.030
6126,-0.085,-0.040
6127,-0.090,-0.045
6128,-0.080,-0.050
6129,-0.090,-0.060
6130,-0.095,-0.055
6131,-0.090,-0.065
6132,-0.090,-0.055
6133,-0.095,-0.050
6134,-0.100,-0.055
6135,-0.095,-0.050
6136,-0.100,-0.020
6137,-0.145,0.000
6138,-0.115,-0.090
6139,-0.130,-0.050
6140,-0.135,-0.025
6141,-0.125,-0.020
6142,-0.120,-0.045
6143,-0.105,-0.050
6144,-0.130,-0.050
6145,-0.130,-0.040
6146,-0.005,-0.010
6147,0.255,-0.025
6148,0.570,-0.055
6149,0.740,-0.150
6150,0.395,-0.270
6151,-0.260,-0.405
6152,-0.465,-0.425
6153,-0.400,-0.290
6154,-0.235,-0.125
6155,-0.165,-0.020
6156,-0.165,-0.005
6157,-0.170,0.015
6158,-0.175,0.000
6159,-0.170,-0.005
6160,-0.165,-0.010
6161,-0.165,-0.015
6162,-0.145,-0.045
6163,-0.145,-0.040
6164,-0.175,-0.040
6165,-0.155,-0.025
6166,-0.140,-0.040
6167,-0.130,-0.030
6168,-0.205,-0.010
6169,-0.200,-0.010
6170,-0.180,-0.035
6171,-0.170,-0.010
6172,-0.150,-0.010
6173,-0.170,-0.015
6174,-0.160,0.000
6175,-0.170,0.000
6176,-0.145,-0.025
6177,-0.135,0.000
6178,-0.145,0.000
6179,-0.165,0.005
6180,-0.130,0.005
6181,-0.140,0.010
6182,-0.115,-0.025
6183,-0.145,-0.010
6184,-0.125,0.000
6185,-0.120,-0.005
6186,-0.085,-0.020
6187,-0.085,-0.015
6188,-0.100,-0.030
6189,-0.075,-0.025
6190,-0.065,-0.045
6191,-0.065,-0.030
6192,-0.070,-0.025
6193,-0.045,-0.045
6194,-0.045,-0.045
6195,-0.065,-0.020
6196,-0.060,-0.060
6197,-0.065,-0.045
6198,-0.095,-0.040
6199,-0.105,-0.080
6200,-0.100,-0.050
6201,-0.090,-0.040
6202,-0.115,-0.025
6203,-0.090,-0.070
6204,-0.090,-0.065
6205,-0.085,-0.070
6206,-0.075,-0.040
6207,-0.090,-0.045
6208,-0.105,-0.040
6209,-0.085,-0.040
6210,-0.075,-0.050
6211,-0.045,-0.070
6212,-0.085,-0.055
6213,-0.095,-0.035
6214,-0.090,-0.035
6215,-0.060,-0.045
6216,-0.065,-0.055
6217,-0.065,-0.030
6218,-0.065,-0.055
6219,-0.095,-0.050
6220,-0.075,-0.035
6221,-0.085,-0.030
6222,-0.105,-0.040
6223,-0.070,-0.045
6224,-0.115,-0.010
6225,-0.105,-0.040
6226,-0.090,-0.040
6227,-0.065,-0.050
6228,-0.110,-0.055
6229,-0.120,-0.065
6230,-0.115,-0.030
6231,-0.085,-0.045
6232,-0.145,-0.045
6233,-0.140,-0.055
6234,-0.135,-0.035
6235,-0.110,-0.045
6236,-0.120,-0.050
6237,-0.150,-0.060
6238,-0.160,-0.040
6239,-0.120,-0.075
6240,-0.135,-0.060
6241,-0.125,-0.070
6242,-0.135,-0.060
6243,-0.135,-0.075
6244,-0.150,-0.075
6245,-0.145,-0.045
6246,-0.155,-0.055
6247,-0.140,-0.070
6248,-0.145,-0.065
6249,-0.125,-0.060
6250,-0.135,-0.030
6251,-0.155,-0.040
6252,-0.170,-0.055
6253,-0.155,-0.040
6254,-0.145,-0.070
6255,-0.140,-0.055
6256,-0.150,-0.050
6257,-0.160,-0.050
6258,-0.130,-0.045
6259,-0.080,-0.030
6260,-0.120,-0.030
6261,-0.125,-0.005
6262,-0.090,-0.025
6263,-0.130,-0.030
6264,-0.145,-0.040
6265,-0.135,-0.070
6266,-0.120,-0.070
6267,-0.115,-0.065
6268,-0.150,-0.070
6269,-0.140,-0.070
6270,-0.125,-0.070
6271,-0.145,-0.035
6272,-0.155,-0.040
6273,-0.140,-0.030
6274,-0.165,-0.035
6275,-0.155,-0.040
6276,-0.165,-0.020
6277,-0.160,-0.025
6278,-0.150,-0.035
6279,-0.140,-0.035
6280,-0.140,-0.025
6281,-0.160,-0.035
6282,-0.035,-0.030
6283,0.250,-0.025
6284,0.605,-0.060
6285,0.755,-0.125
6286,0.305,-0.295
6287,-0.360,-0.430
6288,-0.490,-0.420
6289,-0.380,-0.285
6290,-0.245,-0.105
6291,-0.175,0.005
6292,-0.240,0.025
6293,-0.190,0.035
6294,-0.185,0.025
6295,-0.215,-0.005
6296,-0.205,0.000
6297,-0.180,0.010
6298,-0.170,-0.020
6299,-0.190,-0.005
6300,-0.175,0.000
6301,-0.200,0.000
6302,-0.230,0.000
6303,-0.180,0.005
6304,-0.155,0.010
6305,-0.205,0.010
6306,-0.205,0.005
6307,-0.185,0.005
6308,-0.175,0.000
6309,-0.180,0.030
6310,-0.200,0.015
6311,-0.175,0.010
6312,-0.165,0.015
6313,-0.165,0.035
6314,-0.180,0.040
6315,-0.175,0.005
6316,-0.170,0.015
6317,-0.155,0.035
6318,-0.150,0.020
6319,-0.155,0.035
6320,-0.155,0.020
6321,-0.145,0.010
6322,-0.125,0.000
6323,-0.110,-0.015
6324,-0.105,-0.005
6325,-0.095,0.015
6326,-0.090,-0.010
6327,-0.070,-0.010
6328,-0.070,0.000
6329,-0.085,-0.010
6330,-0.090,-0.025
6331,-0.090,-0.015
6332,-0.100,-0.015
6333,-0.120,-0.055
6334,-0.120,-0.010
6335,-0.115,-0.015
6336,-0.135,-0.015
6337,-0.120,-0.035
6338,-0.140,-0.045
6339,-0.130,-0.025
6340,-0.130,-0.055
6341,-0.155,-0.045
6342,-0.130,-0.040
6343,-0.125,-0.020
6344,-0.130,-0.040
6345,-0.130,-0.010
6346,-0.125,-0.040
6347,-0.110,-0.030
6348,-0.115,-0.015
6349,-0.100,-0.035
6350,-0.110,-0.020
6351,-0.110,-0.020
6352,-0.125,-0.025
6353,-0.090,-0.040
6354,-0.115,-0.055
6355,-0.115,-0.030
6356,-0.120,-0.025
6357,-0.120,-0.040
6358,-0.100,-0.030
6359,-0.145,-0.025
6360,-0.155,-0.035
6361,-0.150,-0.055
6362,-0.145,-0.045
6363,-0.155,-0.045
6364,-0.165,-0.060
6365,-0.150,-0.055
6366,-0.150,-0.035
6367,-0.165,-0.050
6368,-0.165,-0.060
6369,-0.165,-0.050
6370,-0.180,-0.060
6371,-0.185,-0.060
6372,-0.165,-0.070
6373,-0.170,-0.080
6374,-0.185,-0.060
6375,-0.175,-0.070
6376,-0.175,-0.070
6377,-0.170,-0.065
6378,-0.190,-0.045
6379,-0.185,-0.060
6380,-0.175,-0.070
6381,-0.180,-0.070
6382,-0.180,-0.070
6383,-0.180,-0.065
6384,-0.165,-0.065
6385,-0.170,-0.055
6386,-0.165,-0.065
6387,-0.175,-0.065
6388,-0.180,-0.055
6389,-0.170,-0.065
6390,-0.185,-0.060
6391,-0.170,-0.065
6392,-0.155,-0.080
6393,-0.155,-0.045
6394,-0.140,-0.050
6395,-0.125,-0.040
6396,-0.125,-0.040
6397,-0.115,-0.040
6398,-0.150,-0.065
6399,-0.145,-0.085
6400,-0.140,-0.065
6401,-0.140,-0.080
6402,-0.125,-0.100
6403,-0.135,-0.055
6404,-0.140,-0.085
6405,-0.150,-0.085
6406,-0.115,-0.075
6407,-0.140,-0.035
6408,-0.170,-0.040
6409,-0.165,-0.050
6410,-0.170,-0.060
6411,-0.145,-0.080
6412,-0.160,-0.060
6413,-0.170,-0.045
6414,-0.165,-0.080
6415,-0.160,-0.070
6416,-0.140,-0.045
6417,0.030,-0.010
6418,0.350,-0.055
6419,0.630,-0.095
6420,0.600,-0.210
6421,-0.010,-0.355
6422,-0.500,-0.455
6423,-0.545,-0.410
6424,-0.365,-0.210
6425,-0.265,-0.065
6426,-0.215,0.000
6427,-0.220,0.010
6428,-0.220,0.000
6429,-0.220,-0.005
6430,-0.210,-0.020
6431,-0.220,-0.015
6432,-0.225,-0.020
6433,-0.220,-0.010
6434,-0.220,-0.035
6435,-0.220,-0.020
6436,-0.210,-0.015
6437,-0.225,-0.025
6438,-0.225,-0.030
6439,-0.220,-0.020
6440,-0.220,-0.010
6441,-0.210,-0.020
6442,-0.215,-0.020
6443,-0.215,-0.020
6444,-0.215,-0.005
6445,-0.215,-0.035
6446,-0.225,-0.020
6447,-0.225,-0.015
6448,-0.220,-0.010
6449,-0.195,-0.030
6450,-0.200,-0.020
6451,-0.200,0.000
6452,-0.210,-0.010
6453,-0.190,-0.035
6454,-0.185,-0.015
6455,-0.195,-0.020
6456,-0.180,-0.035
6457,-0.180,-0.045
6458,-0.160,-0.040
6459,-0.135,-0.055
6460,-0.125,-0.060
6461,-0.125,-0.050
6462,-0.125,-0.055
6463,-0.110,-0.040
6464,-0.115,-0.070
6465,-0.100,-0.050
6466,-0.125,-0.040
6467,-0.145,-0.055
6468,-0.145,-0.080
6469,-0.135,-0.060
6470,-0.170,-0.070
6471,-0.190,-0.080
6472,-0.185,-0.085
6473,-0.160,-0.085
6474,-0.165,-0.080
6475,-0.160,-0.070
6476,-0.155,-0.100
6477,-0.175,-0.075
6478,-0.165,-0.085
6479,-0.150,-0.085
6480,-0.150,-0.085
6481,-0.160,-0.095
6482,-0.145,-0.060
6483,-0.140,-0.065
6484,-0.130,-0.065
6485,-0.115,-0.085
6486,-0.150,-0.070
6487,-0.150,-0.055
6488,-0.150,-0.075
6489,-0.140,-0.090
6490,-0.150,-0.080
6491,-0.150,-0.070
6492,-0.175,-0.070
6493,-0.155,-0.085
6494,-0.170,-0.085
6495,-0.160,-0.085
6496,-0.185,-0.085
6497,-0.175,-0.095
6498,-0.195,-0.075
6499,-0.180,-0.095
6500,-0.195,-0.090
6501,-0.195,-0.095
6502,-0.200,-0.090
6503,-0.180,-0.095
6504,-0.190,-0.095
6505,-0.210,-0.085
6506,-0.210,-0.085
6507,-0.195,-0.090
6508,-0.205,-0.065
6509,-0.200,-0.075
6510,-0.205,-0.090
6511,-0.215,-0.085
6512,-0.210,-0.075
6513,-0.210,-0.105
6514,-0.205,-0.080
6515,-0.230,-0.095
6516,-0.230,-0.080
6517,-0.210,-0.080
6518,-0.205,-0.080
6519,-0.235,-0.065
6520,-0.230,-0.085
6521,-0.215,-0.100
6522,-0.210,-0.095
6523,-0.230,-0.075
6524,-0.220,-0.095
6525,-0.220,-0.095
6526,-0.210,-0.085
6527,-0.215,-0.055
6528,-0.195,-0.095
6529,-0.180,-0.080
6530,-0.180,-0.065
6531,-0.180,-0.070
6532,-0.175,-0.055
6533,-0.165,-0.085
6534,-0.195,-0.075
6535,-0.205,-0.095
6536,-0.210,-0.095
6537,-0.185,-0.100
6538,-0.185,-0.105
6539,-0.200,-0.105
6540,-0.195,-0.100
6541,-0.195,-0.110
6542,-0.205,-0.085
6543,-0.200,-0.055
6544,-0.220,-0.065
6545,-0.230,-0.065
6546,-0.235,-0.095
6547,-0.225,-0.090
6548,-0.205,-0.075
6549,-0.210,-0.065
6550,-0.220,-0.075
6551,-0.190,-0.075
6552,-0.020,-0.040
6553,0.320,-0.070
6554,0.595,-0.110
6555,0.595,-0.205
6556,0.010,-0.345
6557,-0.510,-0.455
6558,-0.570,-0.410
6559,-0.415,-0.260
6560,-0.280,-0.100
6561,-0.240,-0.005
6562,-0.240,-0.020
6563,-0.245,-0.020
6564,-0.225,-0.040
6565,-0.240,-0.030
6566,-0.225,-0.030
6567,-0.230,-0.050
6568,-0.235,-0.030
6569,-0.245,-0.025
6570,-0.240,-0.050
6571,-0.240,-0.040
6572,-0.240,-0.025
6573,-0.240,-0.050
6574,-0.235,-0.050
6575,-0.245,-0.030
6576,-0.220,-0.035
6577,-0.245,-0.055
6578,-0.235,-0.055
6579,-0.240,-0.030
6580,-0.215,-0.025
6581,-0.235,-0.020
6582,-0.240,-0.030
6583,-0.235,-0.040
6584,-0.225,-0.020
6585,-0.225,-0.015
6586,-0.220,-0.015
6587,-0.205,-0.025
6588,-0.225,-0.040
6589,-0.210,-0.025
6590,-0.195,-0.030
6591,-0.200,-0.040
6592,-0.195,-0.060
6593,-0.155,-0.055
6594,-0.155,-0.045
6595,-0.130,-0.070
6596,-0.135,-0.060
6597,-0.145,-0.050
6598,-0.140,-0.060
6599,-0.135,-0.080
6600,-0.145,-0.050
6601,-0.155,-0.060
6602,-0.165,-0.090
6603,-0.170,-0.095
6604,-0.175,-0.090
6605,-0.160,-0.090
6606,-0.175,-0.085
6607,-0.185,-0.075
6608,-0.185,-0.085
6609,-0.170,-0.075
6610,-0.180,-0.080
6611,-0.175,-0.080
6612,-0.175,-0.105
6613,-0.175,-0.060
6614,-0.160,-0.090
6615,-0.180,-0.060
6616,-0.150,-0.080
6617,-0.150,-0.055
6618,-0.160,-0.065
6619,-0.140,-0.085
6620,-0.140,-0.075
6621,-0.145,-0.065
6622,-0.145,-0.080
6623,-0.155,-0.085
6624,-0.140,-0.080
6625,-0.165,-0.075
6626,-0.160,-0.075
6627,-0.175,-0.075
6628,-0.175,-0.090
6629,-0.165,-0.095
6630,-0.185,-0.075
6631,-0.185,-0.105
6632,-0.190,-0.095
6633,-0.185,-0.105
6634,-0.175,-0.100
6635,-0.185,-0.075
6636,-0.190,-0.105
6637,-0.190,-0.080
6638,-0.185,-0.115
6639,-0.195,-0.110
6640,-0.190,-0.115
6641,-0.195,-0.120
6642,-0.200,-0.100
6643,-0.195,-0.100
6644,-0.200,-0.105
6645,-0.200,-0.095
6646,-0.200,-0.105
6647,-0.185,-0.115
6648,-0.195,-0.095
6649,-0.195,-0.085
6650,-0.205,-0.135
6651,-0.205,-0.105
6652,-0.195,-0.100
6653,-0.195,-0.105
6654,-0.195,-0.115
6655,-0.195,-0.095
6656,-0.215,-0.130
6657,-0.200,-0.105
6658,-0.200,-0.135
6659,-0.195,-0.115
6660,-0.195,-0.105
6661,-0.180,-0.105
6662,-0.190,-0.115
6663,-0.165,-0.115
6664,-0.150,-0.105
6665,-0.160,-0.065
6666,-0.140,-0.110
6667,-0.140,-0.105
6668,-0.160,-0.105
6669,-0.165,-0.140
6670,-0.165,-0.160
6671,-0.165,-0.135
6672,-0.140,-0.140
6673,-0.155,-0.125
6674,-0.175,-0.125
6675,-0.185,-0.125
6676,-0.190,-0.100
6677,-0.170,-0.105
6678,-0.180,-0.120
6679,-0.175,-0.095
6680,-0.190,-0.095
6681,-0.180,-0.115
6682,-0.175,-0.120
6683,-0.165,-0.100
6684,-0.170,-0.105
6685,-0.160,-0.100
6686,-0.005,-0.070
6687,0.350,-0.080
6688,0.640,-0.125
6689,0.640,-0.245
6690,0.055,-0.405
6691,-0.470,-0.480
6692,-0.530,-0.430
6693,-0.385,-0.245
