'sample interval','ECG0','ECG1'
'0.0078125 sec','mV','mV'
0,-0.005,0.020
1,-0.010,0.020
2,-0.005,0.010
3,0.000,0.000
4,0.000,0.000
5,0.000,0.000
6,0.005,0.000
7,0.015,0.000
8,0.020,0.010
9,0.045,0.015
10,0.070,0.010
11,0.080,0.000
12,0.085,-0.025
13,0.095,-0.045
14,0.105,-0.060
15,0.095,-0.045
16,0.045,-0.010
17,0.015,0.000
18,0.000,0.000
19,-0.015,0.000
20,-0.025,0.000
21,-0.025,0.000
22,-0.025,0.000
23,-0.020,0.000
24,-0.020,0.000
25,-0.030,0.025
26,-0.040,0.085
27,0.025,-0.045
28,0.215,-0.560
29,0.375,-1.095
30,0.350,-1.185
31,0.195,-0.770
32,0.025,-0.305
33,-0.035,-0.065
34,-0.055,0.025
35,-0.050,0.085
36,-0.045,0.115
37,-0.040,0.115
38,-0.055,0.135
39,-0.055,0.140
40,-0.050,0.140
41,-0.060,0.140
42,-0.055,0.140
43,-0.050,0.140
44,-0.050,0.140
45,-0.050,0.140
46,-0.060,0.140
47,-0.060,0.140
48,-0.055,0.140
49,-0.060,0.115
50,-0.065,0.115
51,-0.070,0.115
52,-0.060,0.115
53,-0.065,0.115
54,-0.070,0.105
55,-0.075,0.095
56,-0.075,0.095
57,-0.085,0.080
58,-0.070,0.055
59,-0.050,0.045
60,-0.055,0.045
61,-0.065,0.050
62,-0.060,0.050
63,-0.050,0.045
64,-0.045,0.045
65,-0.035,0.035
66,-0.020,0.025
67,-0.015,0.020
68,-0.005,0.015
69,0.000,0.015
70,0.005,0.005
71,0.005,0.000
72,0.005,0.005
73,0.005,0.010
74,0.005,0.015
75,0.000,0.005
76,0.000,0.005
77,0.000,0.020
78,0.000,0.020
79,0.000,0.020
80,0.000,0.020
81,0.000,0.020
82,-0.010,0.020
83,-0.005,0.020
84,-0.005,0.020
85,0.000,0.020
86,0.000,0.020
87,-0.005,0.015
88,0.000,0.005
89,0.005,0.000
90,0.010,0.000
91,0.015,0.000
92,0.025,0.000
93,0.045,0.015
94,0.060,0.015
95,0.075,0.000
96,0.095,-0.020
97,0.105,-0.040
98,0.095,-0.045
99,0.090,-0.035
100,0.060,-0.015
101,0.020,0.000
102,-0.005,0.000
103,-0.015,0.000
104,-0.025,0.000
105,-0.030,0.000
106,-0.025,0.000
107,-0.020,0.000
108,-0.020,0.000
109,-0.035,0.005
110,-0.045,0.065
111,0.000,0.020
112,0.165,-0.400
113,0.350,-0.950
114,0.390,-1.165
115,0.245,-0.860
116,0.040,-0.375
117,-0.030,-0.100
118,-0.060,0.015
119,-0.070,0.075
120,-0.050,0.105
121,-0.050,0.115
122,-0.060,0.115
123,-0.060,0.135
124,-0.055,0.130
125,-0.050,0.120
126,-0.055,0.135
127,-0.055,0.130
128,-0.060,0.130
129,-0.060,0.120
130,-0.060,0.115
131,-0.055,0.115
132,-0.060,0.115
133,-0.060,0.115
134,-0.065,0.115
135,-0.070,0.115
136,-0.075,0.115
137,-0.080,0.105
138,-0.070,0.095
139,-0.075,0.095
140,-0.080,0.080
141,-0.070,0.070
142,-0.070,0.070
143,-0.065,0.050
144,-0.065,0.045
145,-0.060,0.045
146,-0.060,0.045
147,-0.055,0.045
148,-0.040,0.035
149,-0.030,0.025
150,-0.020,0.020
151,-0.010,0.020
152,-0.005,0.020
153,0.000,0.010
154,0.000,0.000
155,0.010,0.000
156,0.005,0.000
157,0.005,0.000
158,0.010,0.000
159,0.010,0.000
160,0.020,0.000
161,0.015,0.000
162,0.015,0.015
163,0.015,0.020
164,0.010,0.020
165,0.000,0.015
166,0.005,0.015
167,0.015,0.015
168,0.010,0.015
169,0.005,0.010
170,0.005,0.000
171,0.010,0.000
172,0.015,0.000
173,0.010,0.000
174,0.010,0.000
175,0.020,0.000
176,0.040,0.000
177,0.055,0.000
178,0.075,0.000
179,0.085,0.000
180,0.105,-0.020
181,0.110,-0.040
182,0.110,-0.055
183,0.095,-0.040
184,0.060,-0.020
185,0.030,-0.005
186,0.000,0.000
187,-0.010,0.000
188,-0.010,0.000
189,-0.010,0.000
190,-0.005,0.000
191,-0.005,0.000
192,0.000,0.000
193,-0.010,0.020
194,-0.025,0.060
195,0.050,-0.100
196,0.245,-0.595
197,0.420,-1.065
198,0.410,-1.120
199,0.240,-0.720
200,0.060,-0.290
201,0.000,-0.065
202,-0.005,0.015
203,-0.020,0.065
204,-0.025,0.100
205,-0.020,0.115
206,-0.015,0.115
207,-0.015,0.115
208,-0.020,0.115
209,-0.025,0.115
210,-0.030,0.115
211,-0.030,0.115
212,-0.020,0.115
213,-0.035,0.115
214,-0.035,0.115
215,-0.040,0.115
216,-0.025,0.115
217,-0.025,0.115
218,-0.035,0.115
219,-0.040,0.115
220,-0.035,0.095
221,-0.040,0.095
222,-0.045,0.075
223,-0.040,0.070
224,-0.040,0.070
225,-0.035,0.060
226,-0.035,0.045
227,-0.035,0.045
228,-0.025,0.045
229,-0.020,0.045
230,-0.020,0.035
231,-0.015,0.025
232,-0.005,0.020
233,0.005,0.020
234,0.010,0.010
235,0.010,0.005
236,0.015,0.000
237,0.025,0.000
238,0.030,0.000
239,0.030,0.000
240,0.030,0.000
241,0.035,0.000
242,0.030,0.000
243,0.030,0.000
244,0.030,0.000
245,0.025,0.000
246,0.015,0.000
247,0.015,0.015
248,0.020,0.005
249,0.020,0.005
250,0.020,0.010
251,0.010,0.005
252,0.010,0.010
253,0.015,0.000
254,0.015,0.000
255,0.010,0.000
256,0.015,0.000
257,0.010,0.000
258,0.020,0.000
259,0.060,0.000
260,0.075,0.000
261,0.090,0.000
262,0.105,0.000
263,0.115,-0.025
264,0.120,-0.040
265,0.135,-0.055
266,0.125,-0.050
267,0.085,-0.030
268,0.045,-0.005
269,0.010,0.000
270,0.000,0.000
271,0.000,0.000
272,0.000,0.000
273,0.000,0.000
274,0.000,0.000
275,0.000,0.000
276,-0.010,0.010
277,-0.030,0.065
278,0.010,-0.030
279,0.175,-0.460
280,0.360,-0.975
281,0.405,-1.140
282,0.265,-0.820
283,0.080,-0.355
284,0.000,-0.095
285,-0.020,0.005
286,-0.025,0.065
287,-0.025,0.110
288,-0.025,0.120
289,-0.025,0.135
290,-0.025,0.140
291,-0.030,0.140
292,-0.030,0.140
293,-0.025,0.140
294,-0.030,0.140
295,-0.035,0.140
296,-0.040,0.140
297,-0.035,0.140
298,-0.030,0.140
299,-0.025,0.140
300,-0.025,0.140
301,-0.040,0.140
302,-0.045,0.140
303,-0.045,0.135
304,-0.045,0.115
305,-0.050,0.115
306,-0.050,0.115
307,-0.050,0.095
308,-0.050,0.075
309,-0.050,0.070
310,-0.040,0.065
311,-0.035,0.050
312,-0.035,0.045
313,-0.025,0.045
314,-0.015,0.045
315,-0.010,0.040
316,0.000,0.025
317,0.000,0.020
318,0.000,0.015
319,0.010,0.005
320,0.020,0.000
321,0.025,0.000
322,0.025,0.000
323,0.025,0.000
324,0.030,0.000
325,0.030,0.000
326,0.030,0.000
327,0.025,0.000
328,0.020,0.000
329,0.020,0.015
330,0.020,0.020
331,0.015,0.020
332,0.010,0.020
333,0.010,0.020
334,0.010,0.020
335,0.010,0.020
336,0.015,0.020
337,0.015,0.015
338,0.015,0.000
339,0.015,0.000
340,0.015,0.005
341,0.020,0.000
342,0.025,0.000
343,0.040,0.010
344,0.065,0.015
345,0.075,0.015
346,0.100,0.000
347,0.105,-0.025
348,0.110,-0.040
349,0.110,-0.045
350,0.105,-0.035
351,0.070,-0.010
352,0.030,0.000
353,0.005,0.000
354,0.000,0.000
355,-0.005,0.000
356,-0.010,0.000
357,-0.015,0.000
358,-0.015,0.000
359,-0.005,0.000
360,-0.015,0.020
361,-0.030,0.080
362,0.025,-0.080
363,0.210,-0.570
364,0.380,-1.065
365,0.390,-1.145
366,0.225,-0.755
367,0.050,-0.305
368,-0.005,-0.075
369,-0.020,0.015
370,-0.025,0.065
371,-0.040,0.110
372,-0.040,0.115
373,-0.040,0.130
374,-0.035,0.140
375,-0.035,0.140
376,-0.035,0.140
377,-0.035,0.140
378,-0.040,0.140
379,-0.035,0.140
380,-0.035,0.140
381,-0.040,0.140
382,-0.045,0.140
383,-0.050,0.140
384,-0.055,0.140
385,-0.055,0.130
386,-0.055,0.115
387,-0.055,0.115
388,-0.060,0.115
389,-0.060,0.115
390,-0.060,0.105
391,-0.065,0.095
392,-0.055,0.075
393,-0.050,0.060
394,-0.060,0.050
395,-0.050,0.045
396,-0.035,0.045
397,-0.035,0.045
398,-0.025,0.045
399,-0.015,0.025
400,-0.010,0.020
401,-0.005,0.020
402,0.000,0.010
403,0.000,0.000
404,0.005,0.000
405,0.010,0.000
406,0.015,0.000
407,0.015,0.000
408,0.015,0.000
409,0.015,0.000
410,0.015,0.000
411,0.010,0.000
412,0.010,0.005
413,0.005,0.010
414,0.000,0.015
415,0.000,0.005
416,0.000,0.015
417,0.000,0.020
418,0.000,0.015
419,0.000,0.010
420,0.010,0.000
421,0.005,0.000
422,0.005,0.000
423,0.005,0.000
424,0.005,0.000
425,0.015,0.000
426,0.025,0.000
427,0.040,0.000
428,0.060,0.000
429,0.070,0.000
430,0.085,0.000
431,0.095,-0.025
432,0.105,-0.050
433,0.110,-0.060
434,0.100,-0.060
435,0.070,-0.035
436,0.035,-0.010
437,0.000,0.000
438,-0.010,0.000
439,-0.020,0.000
440,-0.020,0.000
441,-0.020,0.000
442,-0.015,0.000
443,-0.015,0.000
444,-0.015,0.000
445,-0.025,0.065
446,0.005,-0.015
447,0.170,-0.455
448,0.345,-1.005
449,0.390,-1.200
450,0.260,-0.880
451,0.070,-0.400
452,-0.015,-0.120
453,-0.040,0.000
454,-0.040,0.055
455,-0.040,0.100
456,-0.050,0.115
457,-0.045,0.115
458,-0.045,0.130
459,-0.050,0.140
460,-0.050,0.140
461,-0.055,0.140
462,-0.065,0.155
463,-0.065,0.150
464,-0.065,0.135
465,-0.050,0.115
466,-0.050,0.120
467,-0.055,0.140
468,-0.055,0.135
469,-0.065,0.125
470,-0.050,0.115
471,-0.050,0.115
472,-0.055,0.115
473,-0.065,0.110
474,-0.070,0.095
475,-0.060,0.070
476,-0.055,0.070
477,-0.070,0.070
478,-0.070,0.050
479,-0.060,0.045
480,-0.055,0.045
481,-0.055,0.045
482,-0.040,0.045
483,-0.025,0.035
484,-0.025,0.025
485,-0.015,0.020
486,-0.005,0.020
487,0.000,0.010
488,0.000,0.000
489,0.000,0.000
490,0.005,0.000
491,0.010,0.000
492,0.010,0.000
493,0.010,0.000
494,0.015,0.000
495,0.005,0.000
496,0.000,0.000
497,0.000,0.000
498,0.000,0.010
499,0.000,0.020
500,0.000,0.020
501,0.000,0.020
502,0.000,0.020
503,0.000,0.020
504,0.000,0.020
505,0.000,0.015
506,0.000,0.000
507,0.010,0.000
508,0.005,0.000
509,0.000,0.000
510,0.010,0.000
511,0.030,0.000
512,0.055,0.000
513,0.055,0.010
514,0.065,0.005
515,0.095,-0.020
516,0.110,-0.040
517,0.100,-0.045
518,0.080,-0.050
519,0.065,-0.030
520,0.030,-0.005
521,0.005,0.000
522,-0.010,0.000
523,-0.020,0.000
524,-0.015,0.000
525,-0.010,0.000
526,-0.015,0.000
527,-0.020,0.000
528,-0.025,0.000
529,-0.045,0.065
530,-0.015,0.060
531,0.140,-0.295
532,0.340,-0.865
533,0.400,-1.165
534,0.260,-0.940
535,0.075,-0.470
536,-0.005,-0.155
537,-0.040,0.000
538,-0.050,0.060
539,-0.050,0.100
540,-0.045,0.115
541,-0.050,0.115
542,-0.045,0.120
543,-0.045,0.135
544,-0.040,0.135
545,-0.045,0.140
546,-0.055,0.135
547,-0.055,0.130
548,-0.065,0.125
549,-0.050,0.120
550,-0.065,0.130
551,-0.055,0.115
552,-0.060,0.130
553,-0.070,0.130
554,-0.065,0.115
555,-0.050,0.115
556,-0.070,0.115
557,-0.085,0.115
558,-0.070,0.095
559,-0.060,0.095
560,-0.080,0.095
561,-0.085,0.075
562,-0.060,0.050
563,-0.060,0.060
564,-0.065,0.065
565,-0.050,0.050
566,-0.050,0.045
567,-0.045,0.045
568,-0.020,0.030
569,-0.030,0.035
570,-0.020,0.025
571,0.000,0.020
572,0.005,0.010
573,0.000,0.015
574,0.000,0.010
575,0.005,0.000
576,0.005,0.000
577,0.000,0.005
578,0.000,0.010
579,0.000,0.010
580,0.000,0.020
581,-0.005,0.020
582,0.000,0.020
583,0.000,0.020
584,0.000,0.020
585,-0.005,0.020
586,0.000,0.025
587,0.000,0.040
588,-0.005,0.025
589,0.000,0.005
590,0.000,0.000
591,0.000,0.020
592,0.000,0.015
593,0.000,0.005
594,0.005,0.005
595,0.015,0.020
596,0.020,0.020
597,0.050,0.015
598,0.070,0.010
599,0.085,0.000
600,0.095,-0.030
601,0.100,-0.040
602,0.100,-0.045
603,0.060,-0.010
604,0.015,0.000
605,-0.010,0.000
606,-0.015,0.000
607,-0.020,0.000
608,-0.020,0.000
609,-0.025,0.000
610,-0.025,0.000
611,-0.025,0.000
612,-0.025,0.005
613,-0.040,0.085
614,0.000,0.045
615,0.160,-0.345
616,0.355,-0.875
617,0.405,-1.100
618,0.250,-0.830
619,0.065,-0.390
620,-0.015,-0.105
621,-0.045,0.020
622,-0.050,0.080
623,-0.055,0.115
624,-0.050,0.120
625,-0.050,0.135
626,-0.055,0.140
627,-0.050,0.140
628,-0.050,0.140
629,-0.065,0.140
630,-0.060,0.140
631,-0.055,0.140
632,-0.055,0.140
633,-0.065,0.140
634,-0.070,0.135
635,-0.070,0.135
636,-0.070,0.135
637,-0.075,0.130
638,-0.075,0.115
639,-0.075,0.115
640,-0.075,0.115
641,-0.075,0.115
642,-0.075,0.105
643,-0.080,0.095
644,-0.075,0.075
645,-0.070,0.070
646,-0.070,0.070
647,-0.070,0.070
648,-0.060,0.065
649,-0.040,0.045
650,-0.040,0.045
651,-0.035,0.045
652,-0.020,0.035
653,-0.015,0.020
654,-0.005,0.020
655,-0.005,0.015
656,0.000,0.005
657,0.010,0.000
658,0.015,0.000
659,0.015,0.000
660,0.010,0.000
661,0.015,0.000
662,0.020,0.000
663,0.015,0.000
664,0.010,0.010
665,0.005,0.015
666,0.005,0.020
667,0.005,0.020
668,0.005,0.020
669,0.000,0.020
670,0.000,0.020
671,0.005,0.020
672,0.005,0.020
673,0.000,0.020
674,0.000,0.015
675,0.005,0.000
676,0.005,0.000
677,0.015,0.000
678,0.025,0.015
679,0.045,0.020
680,0.065,0.015
681,0.085,0.000
682,0.095,0.000
683,0.110,-0.025
684,0.115,-0.040
685,0.120,-0.045
686,0.100,-0.030
687,0.055,0.000
688,0.020,0.000
689,0.000,0.000
690,-0.005,0.000
691,-0.010,0.000
692,-0.010,0.000
693,-0.010,0.000
694,-0.005,0.000
695,-0.015,0.005
696,-0.030,0.050
697,-0.025,0.070
698,0.090,-0.230
699,0.290,-0.745
700,0.415,-1.115
701,0.345,-0.995
702,0.150,-0.550
703,0.015,-0.185
704,-0.025,-0.025
705,-0.040,0.035
706,-0.045,0.090
707,-0.040,0.115
708,-0.040,0.125
709,-0.040,0.140
710,-0.040,0.140
711,-0.040,0.140
712,-0.040,0.140
713,-0.045,0.140
714,-0.035,0.140
715,-0.035,0.140
716,-0.040,0.140
717,-0.040,0.140
718,-0.040,0.140
719,-0.040,0.140
720,-0.040,0.140
721,-0.050,0.135
722,-0.055,0.130
723,-0.055,0.110
724,-0.055,0.105
725,-0.060,0.095
726,-0.060,0.095
727,-0.060,0.075
728,-0.055,0.070
729,-0.055,0.070
730,-0.050,0.070
731,-0.045,0.050
732,-0.040,0.045
733,-0.040,0.045
734,-0.030,0.045
735,-0.025,0.045
736,-0.010,0.025
737,-0.005,0.015
738,0.000,0.015
739,0.000,0.005
740,0.000,0.000
741,0.005,0.000
742,0.010,0.000
743,0.015,0.000
744,0.010,0.000
745,0.005,0.000
746,0.010,0.000
747,0.015,0.005
748,0.010,0.015
749,0.005,0.020
750,0.000,0.035
751,0.000,0.045
752,0.000,0.030
753,0.000,0.020
754,0.005,0.030
755,0.000,0.030
756,0.000,0.030
757,0.010,0.025
758,0.010,0.020
759,0.010,0.015
760,0.005,0.010
761,0.005,0.015
762,0.020,0.020
763,0.045,0.020
764,0.065,0.015
765,0.080,0.000
766,0.095,0.000
767,0.110,-0.030
768,0.110,-0.030
769,0.095,-0.020
770,0.075,-0.005
771,0.040,0.000
772,0.000,0.000
773,-0.015,0.000
774,-0.020,0.000
775,-0.025,0.000
776,-0.030,0.000
777,-0.020,0.000
778,-0.015,0.000
779,-0.020,0.000
780,-0.040,0.035
781,-0.035,0.025
782,0.085,-0.320
783,0.280,-0.860
784,0.385,-1.200
785,0.295,-1.005
786,0.110,-0.540
787,0.000,-0.205
788,-0.030,-0.055
789,-0.050,0.015
790,-0.055,0.055
791,-0.050,0.055
792,-0.050,0.045
793,-0.045,0.045
794,-0.040,0.045
795,-0.040,0.045
796,-0.040,0.045
797,-0.040,0.045
798,-0.045,0.045
799,-0.045,0.045
800,-0.050,0.045
801,-0.050,0.045
802,-0.055,0.045
803,-0.060,0.045
804,-0.065,0.065
805,-0.060,0.040
806,-0.070,0.035
807,-0.075,0.020
808,-0.075,0.020
809,-0.080,0.015
810,-0.075,0.005
811,-0.075,0.000
812,-0.075,0.000
813,-0.070,0.000
814,-0.065,-0.015
815,-0.060,-0.020
816,-0.050,-0.020
817,-0.050,-0.020
818,-0.035,-0.040
819,-0.035,-0.045
820,-0.025,-0.045
821,-0.025,-0.045
822,-0.010,-0.050
823,-0.005,-0.050
824,-0.005,-0.030
825,-0.005,-0.005
826,0.000,-0.035
827,0.005,-0.075
828,0.010,-0.100
829,0.010,-0.095
830,0.005,-0.095
831,0.000,-0.105
832,0.000,-0.105
833,0.000,-0.095
834,0.000,-0.090
835,0.000,-0.090
836,0.000,-0.100
837,0.000,-0.115
838,0.000,-0.120
839,0.000,-0.135
840,0.000,-0.135
841,0.005,-0.135
842,0.000,-0.140
843,0.000,-0.155
844,0.005,-0.160
845,0.010,-0.155
846,0.025,-0.150
847,0.035,-0.135
848,0.060,-0.135
849,0.075,-0.150
850,0.100,-0.195
851,0.110,-0.225
852,0.110,-0.225
853,0.105,-0.220
854,0.090,-0.200
855,0.040,-0.170
856,0.005,-0.160
857,-0.005,-0.155
858,-0.020,-0.120
859,-0.015,-0.145
860,-0.020,-0.160
861,-0.025,-0.160
862,-0.015,-0.160
863,-0.015,-0.140
864,-0.030,-0.080
865,-0.030,-0.060
866,0.085,-0.415
867,0.280,-0.975
868,0.375,-1.330
869,0.295,-1.155
870,0.115,-0.685
871,0.000,-0.325
872,-0.030,-0.150
873,-0.045,-0.055
874,-0.040,-0.005
875,-0.035,0.000
876,-0.035,0.000
877,-0.040,0.015
878,-0.050,0.025
879,-0.055,0.015
880,-0.055,0.010
881,-0.050,0.010
882,-0.060,0.020
883,-0.060,0.020
884,-0.055,0.020
885,-0.055,0.020
886,-0.060,0.020
887,-0.065,0.020
888,-0.050,0.020
889,-0.055,0.020
890,-0.065,0.020
891,-0.060,0.020
892,-0.065,0.015
893,-0.070,0.010
894,-0.070,0.000
895,-0.065,0.000
896,-0.060,0.000
897,-0.055,0.000
898,-0.055,0.000
899,-0.050,0.000
900,-0.040,0.000
901,-0.035,0.000
902,-0.030,-0.005
903,-0.025,-0.005
904,-0.015,-0.015
905,0.000,-0.020
906,0.000,-0.020
907,0.000,-0.020
908,0.010,-0.020
909,0.010,-0.020
910,0.020,-0.020
911,0.025,-0.020
912,0.020,-0.020
913,0.020,-0.020
914,0.015,-0.010
915,0.010,0.000
916,0.010,0.000
917,0.015,0.000
918,0.020,0.000
919,0.015,0.000
920,0.010,0.000
921,0.015,0.005
922,0.015,0.010
923,0.015,0.000
924,0.010,0.000
925,0.020,0.000
926,0.025,0.000
927,0.015,0.000
928,0.015,-0.005
929,0.030,-0.015
930,0.050,0.000
931,0.055,0.000
932,0.080,0.000
933,0.085,0.000
934,0.085,-0.015
935,0.115,-0.040
936,0.130,-0.025
937,0.120,-0.055
938,0.080,-0.045
939,0.055,-0.045
940,0.015,-0.030
941,0.000,-0.020
942,-0.005,-0.020
943,-0.010,-0.020
944,0.000,-0.020
945,0.000,-0.020
946,-0.005,-0.020
947,-0.010,0.000
948,-0.030,0.045
949,-0.005,0.060
950,0.150,-0.290
951,0.340,-0.850
952,0.395,-1.165
953,0.270,-0.955
954,0.090,-0.505
955,-0.005,-0.185
956,-0.030,-0.040
957,-0.045,0.030
958,-0.045,0.065
959,-0.035,0.075
960,-0.025,0.080
961,-0.025,0.090
962,-0.035,0.115
963,-0.035,0.140
964,-0.045,0.160
965,-0.045,0.130
966,-0.035,0.100
967,-0.050,0.085
968,-0.050,0.070
969,-0.035,0.070
970,-0.025,0.070
971,-0.040,0.075
972,-0.055,0.090
973,-0.055,0.075
974,-0.055,0.080
975,-0.065,0.080
976,-0.060,0.070
977,-0.055,0.065
978,-0.060,0.065
979,-0.080,0.065
980,-0.065,0.045
981,-0.060,0.040
982,-0.065,0.040
983,-0.070,0.030
984,-0.060,0.020
985,-0.060,0.025
986,-0.030,0.020
987,-0.015,0.005
988,-0.010,0.000
989,-0.015,0.000
990,-0.005,0.000
991,0.000,0.005
992,0.000,0.010
993,0.000,0.000
994,0.005,-0.015
995,0.010,-0.020
996,0.005,-0.020
997,0.005,-0.025
998,0.020,-0.025
999,0.005,-0.010
1000,0.000,0.000
1001,0.010,0.000
1002,0.005,0.000
1003,-0.005,0.000
1004,-0.010,0.005
1005,0.000,0.025
1006,0.000,0.025
1007,0.000,0.000
1008,0.000,-0.005
1009,0.000,-0.015
1010,0.000,-0.010
1011,0.000,0.000
1012,0.005,-0.015
1013,0.015,-0.010
1014,0.030,0.000
1015,0.050,0.000
1016,0.070,-0.020
1017,0.085,-0.035
1018,0.095,-0.065
1019,0.085,-0.095
1020,0.095,-0.110
1021,0.080,-0.085
1022,0.040,-0.040
1023,0.005,-0.035
1024,-0.025,-0.045
1025,-0.030,-0.045
1026,-0.025,-0.045
1027,-0.025,-0.045
1028,-0.025,-0.045
1029,-0.025,-0.045
1030,-0.025,-0.035
1031,-0.035,-0.005
1032,-0.045,0.060
1033,0.055,-0.165
1034,0.265,-0.685
1035,0.395,-1.100
1036,0.335,-1.030
1037,0.125,-0.640
1038,0.000,-0.295
1039,-0.035,-0.105
1040,-0.055,-0.010
1041,-0.065,0.045
1042,-0.060,0.090
1043,-0.060,0.090
1044,-0.060,0.085
1045,-0.060,0.070
1046,-0.055,0.045
1047,-0.050,0.040
1048,-0.050,0.055
1049,-0.060,0.070
1050,-0.060,0.070
1051,-0.060,0.070
1052,-0.060,0.070
1053,-0.065,0.075
1054,-0.070,0.070
1055,-0.070,0.070
1056,-0.070,0.070
1057,-0.065,0.070
1058,-0.070,0.070
1059,-0.080,0.070
1060,-0.090,0.085
1061,-0.090,0.105
1062,-0.085,0.075
1063,-0.075,0.075
1064,-0.080,0.055
1065,-0.065,0.000
1066,-0.055,0.000
1067,-0.055,0.010
1068,-0.045,0.015
1069,-0.035,0.020
1070,-0.030,0.005
1071,-0.020,0.000
1072,-0.005,0.000
1073,-0.005,0.005
1074,0.000,0.000
1075,0.000,0.000
1076,0.005,0.000
1077,0.005,0.000
1078,0.005,0.000
1079,0.015,0.000
1080,0.020,0.000
1081,0.015,0.000
1082,0.015,0.010
1083,0.015,0.010
1084,0.020,0.005
1085,0.015,0.010
1086,0.015,0.000
1087,0.015,0.000
1088,0.010,0.000
1089,0.010,0.000
1090,0.015,0.000
1091,0.015,0.000
1092,0.010,0.000
1093,0.005,0.000
1094,0.005,0.000
1095,0.005,0.000
1096,0.015,0.000
1097,0.030,0.000
1098,0.050,0.000
1099,0.065,0.000
1100,0.075,-0.020
1101,0.085,-0.045
1102,0.090,-0.065
1103,0.085,-0.060
1104,0.060,-0.030
1105,0.020,0.000
1106,-0.005,0.000
1107,-0.035,0.000
1108,-0.040,0.000
1109,-0.050,0.010
1110,-0.050,0.000
1111,-0.045,0.000
1112,-0.040,0.000
1113,-0.040,0.000
1114,-0.055,0.040
1115,-0.060,0.070
1116,0.075,-0.290
1117,0.280,-0.830
1118,0.380,-1.165
1119,0.285,-0.955
1120,0.085,-0.485
1121,-0.025,-0.155
1122,-0.055,-0.025
1123,-0.060,0.025
1124,-0.065,0.065
1125,-0.065,0.090
1126,-0.070,0.125
1127,-0.065,0.125
1128,-0.050,0.085
1129,-0.050,0.075
1130,-0.050,0.090
1131,-0.050,0.105
1132,-0.050,0.115
1133,-0.060,0.115
1134,-0.060,0.115
1135,-0.060,0.115
1136,-0.060,0.115
1137,-0.070,0.115
1138,-0.075,0.115
1139,-0.080,0.110
1140,-0.085,0.110
1141,-0.090,0.115
1142,-0.100,0.125
1143,-0.100,0.100
1144,-0.090,0.060
1145,-0.090,0.045
1146,-0.095,0.050
1147,-0.090,0.065
1148,-0.085,0.045
1149,-0.070,0.045
1150,-0.065,0.040
1151,-0.060,0.020
1152,-0.050,0.020
1153,-0.040,0.015
1154,-0.035,0.010
1155,-0.025,0.000
1156,-0.015,0.000
1157,0.000,0.000
1158,0.000,0.000
1159,0.000,0.000
1160,0.000,0.000
1161,0.000,0.000
1162,0.005,0.000
1163,0.000,0.000
1164,0.000,0.000
1165,0.000,0.000
1166,0.000,0.000
1167,-0.005,0.000
1168,-0.005,0.000
1169,-0.005,0.000
1170,-0.005,0.000
1171,-0.005,0.000
1172,-0.010,0.000
1173,-0.005,0.000
1174,0.000,0.000
1175,0.000,0.000
1176,-0.005,0.000
1177,0.000,0.000
1178,0.000,0.000
1179,0.010,0.000
1180,0.030,0.000
1181,0.055,0.010
1182,0.070,0.005
1183,0.085,-0.005
1184,0.100,-0.030
1185,0.095,-0.035
1186,0.090,-0.040
1187,0.080,-0.025
1188,0.035,0.000
1189,0.005,0.005
1190,-0.010,-0.010
1191,-0.020,0.000
1192,-0.020,0.000
1193,-0.030,0.000
1194,-0.025,0.000
1195,-0.025,0.000
1196,-0.025,0.000
1197,-0.035,0.010
1198,-0.060,0.130
1199,0.020,-0.125
1200,0.225,-0.680
1201,0.360,-1.150
1202,0.355,-1.130
1203,0.155,-0.655
1204,0.020,-0.255
1205,-0.025,-0.050
1206,-0.030,0.025
1207,-0.040,0.080
1208,-0.050,0.100
1209,-0.040,0.130
1210,-0.040,0.140
1211,-0.045,0.130
1212,-0.055,0.120
1213,-0.050,0.115
1214,-0.040,0.115
1215,-0.040,0.115
1216,-0.045,0.115
1217,-0.050,0.120
1218,-0.055,0.120
1219,-0.050,0.115
1220,-0.050,0.115
1221,-0.055,0.115
1222,-0.055,0.115
1223,-0.060,0.115
1224,-0.065,0.115
1225,-0.070,0.110
1226,-0.065,0.105
1227,-0.065,0.115
1228,-0.070,0.115
1229,-0.065,0.105
1230,-0.060,0.060
1231,-0.055,0.045
1232,-0.050,0.045
1233,-0.045,0.045
1234,-0.040,0.045
1235,-0.035,0.040
1236,-0.025,0.025
1237,-0.015,0.020
1238,-0.015,0.020
1239,-0.010,0.015
1240,0.000,0.000
1241,0.005,0.000
1242,0.020,0.000
1243,0.010,0.010
1244,0.010,0.015
1245,0.000,0.025
1246,0.000,0.090
1247,-0.010,0.110
1248,0.000,0.020
1249,0.000,-0.030
1250,0.010,-0.030
1251,0.010,-0.010
1252,0.010,0.000
1253,0.010,0.000
1254,0.000,0.000
1255,0.000,0.000
1256,0.000,0.000
1257,0.005,-0.010
1258,0.010,-0.015
1259,0.005,-0.015
1260,0.000,-0.020
1261,0.000,-0.020
1262,0.005,-0.020
1263,0.015,-0.020
1264,0.030,-0.015
1265,0.050,-0.005
1266,0.065,-0.010
1267,0.075,-0.035
1268,0.090,-0.050
1269,0.090,-0.070
1270,0.085,-0.085
1271,0.060,-0.065
1272,0.020,-0.050
1273,-0.010,-0.055
1274,-0.015,-0.070
1275,-0.015,-0.065
1276,-0.015,-0.065
1277,-0.015,-0.065
1278,-0.010,-0.060
1279,-0.005,-0.050
1280,-0.015,-0.045
1281,-0.040,0.025
1282,-0.020,0.015
1283,0.165,-0.460
1284,0.350,-1.070
1285,0.370,-1.300
1286,0.220,-0.945
1287,0.050,-0.460
1288,-0.025,-0.145
1289,-0.055,-0.020
1290,-0.060,0.000
1291,-0.055,0.005
1292,-0.055,0.015
1293,-0.050,0.035
1294,-0.060,0.055
1295,-0.060,0.050
1296,-0.045,0.045
1297,-0.050,0.045
1298,-0.065,0.050
1299,-0.060,0.050
1300,-0.060,0.040
1301,-0.060,0.040
1302,-0.060,0.040
1303,-0.065,0.040
1304,-0.080,0.045
1305,-0.075,0.040
1306,-0.070,0.040
1307,-0.075,0.065
1308,-0.080,0.065
1309,-0.080,0.030
1310,-0.075,0.000
1311,-0.075,0.000
1312,-0.090,0.000
1313,-0.085,0.000
1314,-0.075,0.000
1315,-0.075,0.000
1316,-0.070,0.000
1317,-0.065,0.000
1318,-0.050,0.000
1319,-0.045,0.000
1320,-0.035,0.000
1321,-0.020,0.000
1322,-0.015,0.000
1323,-0.015,0.000
1324,-0.005,0.000
1325,0.000,0.000
1326,0.000,0.000
1327,0.000,0.000
1328,0.005,0.015
1329,0.005,0.000
1330,0.005,0.000
1331,0.000,0.000
1332,0.000,0.000
1333,0.000,0.000
1334,0.000,0.000
1335,0.000,0.000
1336,0.000,0.015
1337,0.000,0.015
1338,-0.005,0.015
1339,0.000,0.010
1340,0.000,0.000
1341,0.000,0.000
1342,0.000,0.000
1343,0.000,0.000
1344,0.000,0.000
1345,0.005,0.000
1346,0.015,0.000
1347,0.035,0.010
1348,0.055,0.010
1349,0.065,0.000
1350,0.080,-0.010
1351,0.095,-0.040
1352,0.110,-0.055
1353,0.105,-0.045
1354,0.070,-0.025
1355,0.035,0.000
1356,0.010,0.000
1357,-0.010,0.000
1358,-0.035,0.000
1359,-0.030,0.000
1360,-0.005,0.000
1361,-0.015,0.000
1362,-0.035,0.000
1363,-0.040,0.005
1364,-0.035,0.040
1365,-0.035,0.140
1366,0.070,-0.130
1367,0.325,-0.730
1368,0.420,-1.150
1369,0.335,-1.005
1370,0.100,-0.510
1371,0.000,-0.180
1372,-0.025,-0.020
1373,-0.050,0.065
1374,-0.040,0.115
1375,-0.045,0.145
1376,-0.035,0.150
1377,-0.045,0.160
1378,-0.055,0.165
1379,-0.050,0.165
1380,-0.050,0.170
1381,-0.045,0.160
1382,-0.040,0.155
1383,-0.055,0.160
1384,-0.055,0.165
1385,-0.045,0.165
1386,-0.045,0.165
1387,-0.045,0.165
1388,-0.050,0.160
1389,-0.055,0.145
1390,-0.045,0.140
1391,-0.055,0.140
1392,-0.080,0.140
1393,-0.080,0.140
1394,-0.085,0.140
1395,-0.075,0.130
1396,-0.070,0.115
1397,-0.060,0.110
1398,-0.050,0.105
1399,-0.055,0.115
1400,-0.060,0.110
1401,-0.055,0.100
1402,-0.040,0.095
1403,-0.025,0.090
1404,-0.005,0.070
1405,-0.005,0.070
1406,-0.010,0.070
1407,-0.005,0.065
1408,0.000,0.065
1409,0.000,0.065
1410,0.005,0.050
1411,0.010,0.045
1412,0.005,0.045
1413,0.005,0.045
1414,0.010,0.045
1415,0.005,0.045
1416,0.005,0.045
1417,0.000,0.065
1418,-0.005,0.070
1419,-0.005,0.070
1420,-0.005,0.070
1421,0.000,0.070
1422,0.000,0.060
1423,0.005,0.050
1424,0.000,0.045
1425,0.000,0.045
1426,0.000,0.045
1427,0.000,0.040
1428,0.010,0.040
1429,0.020,0.045
1430,0.030,0.045
1431,0.045,0.045
1432,0.060,0.030
1433,0.080,0.005
1434,0.095,-0.005
1435,0.105,-0.020
1436,0.100,-0.015
1437,0.075,-0.010
1438,0.030,0.000
1439,-0.005,0.005
1440,-0.020,0.020
1441,-0.030,0.020
1442,-0.030,0.020
1443,-0.030,0.020
1444,-0.020,0.020
1445,-0.015,0.020
1446,-0.025,0.020
1447,-0.040,0.055
1448,-0.050,0.130
1449,0.080,-0.180
1450,0.320,-0.765
1451,0.440,-1.150
1452,0.350,-0.975
1453,0.095,-0.455
1454,-0.015,-0.140
1455,-0.050,-0.010
1456,-0.060,0.060
1457,-0.045,0.105
1458,-0.040,0.125
1459,-0.055,0.135
1460,-0.065,0.140
1461,-0.060,0.140
1462,-0.050,0.140
1463,-0.050,0.140
1464,-0.055,0.140
1465,-0.060,0.140
1466,-0.060,0.140
1467,-0.060,0.140
1468,-0.055,0.140
1469,-0.055,0.140
1470,-0.055,0.140
1471,-0.060,0.135
1472,-0.070,0.135
1473,-0.070,0.135
1474,-0.075,0.125
1475,-0.075,0.115
1476,-0.075,0.115
1477,-0.075,0.110
1478,-0.075,0.100
1479,-0.080,0.090
1480,-0.080,0.080
1481,-0.075,0.070
1482,-0.065,0.070
1483,-0.050,0.070
1484,-0.045,0.065
1485,-0.040,0.045
1486,-0.035,0.045
1487,-0.025,0.040
1488,-0.015,0.030
1489,-0.010,0.020
1490,-0.005,0.020
1491,0.000,0.020
1492,0.000,0.020
1493,0.005,0.020
1494,0.005,0.020
1495,0.000,0.020
1496,0.000,0.020
1497,0.000,0.020
1498,0.005,0.020
1499,0.000,0.020
1500,0.000,0.020
1501,0.000,0.020
1502,0.000,0.020
1503,0.000,0.035
1504,0.000,0.035
1505,0.000,0.020
1506,0.000,0.025
1507,0.000,0.020
1508,0.000,0.020
1509,0.000,0.020
1510,0.005,0.020
1511,0.005,0.020
1512,0.015,0.020
1513,0.035,0.020
1514,0.055,0.015
1515,0.070,0.005
1516,0.085,-0.005
1517,0.095,-0.020
1518,0.095,-0.030
1519,0.085,-0.020
1520,0.050,-0.005
1521,0.010,0.000
1522,-0.005,0.000
1523,-0.020,0.015
1524,-0.025,0.015
1525,-0.025,0.005
1526,-0.025,0.000
1527,-0.025,0.020
1528,-0.030,0.020
1529,-0.030,0.030
1530,-0.045,0.095
1531,-0.020,0.030
1532,0.155,-0.430
1533,0.380,-0.960
1534,0.435,-1.175
1535,0.270,-0.795
1536,0.045,-0.310
1537,-0.015,-0.070
1538,-0.040,0.015
1539,-0.050,0.090
1540,-0.050,0.125
1541,-0.050,0.135
1542,-0.055,0.140
1543,-0.050,0.140
1544,-0.045,0.140
1545,-0.045,0.140
1546,-0.050,0.140
1547,-0.050,0.140
1548,-0.050,0.140
1549,-0.055,0.140
1550,-0.055,0.140
1551,-0.060,0.140
1552,-0.060,0.140
1553,-0.065,0.140
1554,-0.070,0.140
1555,-0.075,0.140
1556,-0.080,0.135
1557,-0.080,0.120
1558,-0.085,0.115
1559,-0.080,0.115
1560,-0.075,0.105
1561,-0.080,0.090
1562,-0.080,0.085
1563,-0.075,0.075
1564,-0.065,0.070
1565,-0.060,0.065
1566,-0.050,0.055
1567,-0.045,0.045
1568,-0.045,0.045
1569,-0.040,0.040
1570,-0.025,0.025
1571,-0.015,0.020
1572,-0.015,0.015
1573,0.000,0.000
1574,0.000,0.000
1575,0.000,0.000
1576,0.000,0.000
1577,0.000,0.000
1578,0.000,0.005
1579,0.000,0.010
1580,0.000,0.015
1581,0.000,0.020
1582,0.000,0.020
1583,-0.005,0.020
1584,0.000,0.020
1585,0.000,0.020
1586,-0.005,0.020
1587,-0.005,0.020
1588,-0.005,0.020
1589,-0.010,0.020
1590,-0.010,0.015
1591,-0.010,0.015
1592,-0.005,0.010
1593,0.000,0.000
1594,0.010,0.000
1595,0.020,0.010
1596,0.035,0.010
1597,0.060,0.005
1598,0.075,-0.005
1599,0.085,-0.025
1600,0.090,-0.040
1601,0.085,-0.045
1602,0.070,-0.035
1603,0.040,-0.015
1604,0.005,0.000
1605,-0.015,0.000
1606,-0.030,0.000
1607,-0.025,0.000
1608,-0.025,0.000
1609,-0.025,0.000
1610,-0.025,0.000
1611,-0.030,0.000
1612,-0.040,0.015
1613,-0.055,0.065
1614,-0.015,-0.050
1615,0.165,-0.545
1616,0.365,-1.080
1617,0.385,-1.215
1618,0.215,-0.780
1619,0.025,-0.310
1620,-0.040,-0.075
1621,-0.060,0.005
1622,-0.065,0.055
1623,-0.070,0.105
1624,-0.060,0.110
1625,-0.070,0.115
1626,-0.060,0.115
1627,-0.060,0.115
1628,-0.065,0.115
1629,-0.065,0.130
1630,-0.065,0.130
1631,-0.070,0.130
1632,-0.070,0.115
1633,-0.070,0.115
1634,-0.075,0.115
1635,-0.075,0.115
1636,-0.080,0.115
1637,-0.080,0.115
1638,-0.080,0.115
1639,-0.080,0.115
1640,-0.080,0.105
1641,-0.085,0.095
1642,-0.085,0.085
1643,-0.085,0.075
1644,-0.080,0.065
1645,-0.075,0.055
1646,-0.070,0.045
1647,-0.065,0.045
1648,-0.055,0.045
1649,-0.045,0.040
1650,-0.040,0.030
1651,-0.035,0.020
1652,-0.025,0.020
1653,-0.010,0.010
1654,-0.010,0.000
1655,-0.005,0.000
1656,0.000,0.000
1657,0.000,0.000
1658,0.005,0.000
1659,0.010,0.000
1660,0.010,0.000
1661,0.010,0.000
1662,0.015,0.000
1663,0.010,0.000
1664,0.010,0.010
1665,0.000,0.015
1666,0.000,0.020
1667,0.000,0.020
1668,0.000,0.020
1669,0.000,0.020
1670,0.000,0.020
1671,-0.010,0.020
1672,-0.015,0.020
1673,-0.010,0.020
1674,-0.005,0.010
1675,0.000,0.000
1676,0.000,0.000
1677,0.000,0.000
1678,0.020,0.000
1679,0.045,0.010
1680,0.060,0.010
1681,0.065,0.000
1682,0.075,-0.015
1683,0.090,-0.035
1684,0.090,-0.045
1685,0.075,-0.035
1686,0.050,-0.025
1687,0.015,-0.005
1688,-0.010,0.000
1689,-0.030,0.000
1690,-0.035,0.000
1691,-0.045,0.000
1692,-0.050,0.000
1693,-0.035,0.000
1694,-0.035,0.000
1695,-0.040,0.010
1696,-0.060,0.060
1697,-0.040,0.045
1698,0.120,-0.365
1699,0.315,-0.955
1700,0.370,-1.235
1701,0.260,-0.940
1702,0.045,-0.420
1703,-0.020,-0.125
1704,-0.070,0.000
1705,-0.085,0.070
1706,-0.060,0.105
1707,-0.060,0.110
1708,-0.065,0.115
1709,-0.065,0.115
1710,-0.055,0.115
1711,-0.055,0.115
1712,-0.060,0.130
1713,-0.065,0.120
1714,-0.065,0.125
1715,-0.060,0.120
1716,-0.060,0.115
1717,-0.065,0.115
1718,-0.070,0.115
1719,-0.075,0.115
1720,-0.080,0.115
1721,-0.080,0.115
1722,-0.075,0.105
1723,-0.080,0.100
1724,-0.085,0.095
1725,-0.090,0.085
1726,-0.090,0.075
1727,-0.080,0.060
1728,-0.070,0.050
1729,-0.070,0.040
1730,-0.075,0.030
1731,-0.060,0.020
1732,-0.055,0.025
1733,-0.055,0.025
1734,-0.040,0.015
1735,-0.025,0.015
1736,-0.025,0.015
1737,-0.015,0.010
1738,0.000,0.000
1739,0.000,0.000
1740,0.000,0.000
1741,0.000,0.000
1742,-0.005,0.000
1743,0.005,0.000
1744,0.000,0.000
1745,0.000,0.000
1746,0.015,0.000
1747,0.000,0.000
1748,0.000,0.000
1749,0.015,0.000
1750,0.000,0.015
1751,-0.010,0.020
1752,0.000,0.005
1753,0.000,0.015
1754,-0.005,0.005
1755,0.000,0.000
1756,0.000,0.000
1757,0.000,0.000
1758,0.000,0.000
1759,0.000,0.000
1760,0.005,0.000
1761,0.015,0.000
1762,0.040,0.000
1763,0.065,0.000
1764,0.070,0.000
1765,0.080,-0.015
1766,0.095,-0.045
1767,0.110,-0.060
1768,0.110,-0.060
1769,0.080,-0.040
1770,0.035,-0.015
1771,0.000,0.000
1772,-0.015,0.000
1773,-0.020,0.000
1774,-0.015,0.000
1775,-0.010,-0.005
1776,-0.010,0.000
1777,-0.025,0.000
1778,-0.030,0.000
1779,-0.030,0.030
1780,-0.015,0.050
1781,0.095,-0.215
1782,0.315,-0.770
1783,0.430,-1.155
1784,0.330,-1.030
1785,0.105,-0.535
1786,0.010,-0.195
1787,-0.040,-0.025
1788,-0.055,0.030
1789,-0.050,0.070
1790,-0.045,0.080
1791,-0.040,0.095
1792,-0.050,0.105
1793,-0.050,0.110
1794,-0.045,0.100
1795,-0.040,0.095
1796,-0.045,0.100
1797,-0.070,0.110
1798,-0.060,0.115
1799,-0.050,0.110
1800,-0.050,0.110
1801,-0.050,0.105
1802,-0.050,0.100
1803,-0.040,0.095
1804,-0.060,0.095
1805,-0.060,0.095
1806,-0.045,0.095
1807,-0.055,0.095
1808,-0.070,0.085
1809,-0.070,0.075
1810,-0.065,0.070
1811,-0.065,0.055
1812,-0.060,0.045
1813,-0.055,0.045
1814,-0.055,0.045
1815,-0.050,0.040
1816,-0.045,0.035
1817,-0.035,0.025
1818,-0.025,0.020
1819,-0.015,0.015
1820,-0.005,0.005
1821,-0.005,0.000
1822,0.000,0.005
1823,0.020,0.000
1824,0.015,0.000
1825,0.010,0.000
1826,0.010,0.000
1827,0.020,0.000
1828,0.015,0.000
1829,0.015,0.000
1830,0.020,0.000
1831,0.015,0.000
1832,0.010,0.005
1833,0.005,0.010
1834,0.000,0.020
1835,0.000,0.020
1836,0.005,0.020
1837,0.005,0.020
1838,0.005,0.020
1839,0.015,0.020
1840,0.015,0.020
1841,0.005,0.020
1842,0.010,0.015
1843,0.025,0.015
1844,0.045,0.015
1845,0.060,0.020
1846,0.080,0.015
1847,0.095,0.000
1848,0.110,-0.010
1849,0.120,-0.035
1850,0.130,-0.045
1851,0.115,-0.035
1852,0.085,-0.010
1853,0.050,0.000
1854,0.015,0.000
1855,0.000,0.000
1856,-0.005,0.000
1857,-0.005,0.000
1858,-0.010,0.000
1859,-0.010,0.000
1860,-0.010,0.000
1861,-0.005,0.010
1862,-0.020,0.065
1863,0.005,0.020
1864,0.170,-0.375
1865,0.380,-0.905
1866,0.440,-1.135
1867,0.305,-0.855
1868,0.075,-0.370
1869,0.000,-0.110
1870,-0.015,0.000
1871,-0.025,0.050
1872,-0.025,0.085
1873,-0.025,0.110
1874,-0.025,0.115
1875,-0.025,0.115
1876,-0.025,0.115
1877,-0.030,0.115
1878,-0.030,0.115
1879,-0.030,0.115
1880,-0.030,0.115
1881,-0.035,0.115
1882,-0.035,0.115
1883,-0.035,0.115
1884,-0.040,0.115
1885,-0.040,0.115
1886,-0.045,0.115
1887,-0.045,0.115
1888,-0.045,0.115
1889,-0.050,0.110
1890,-0.050,0.100
1891,-0.045,0.095
1892,-0.045,0.075
1893,-0.045,0.070
1894,-0.040,0.065
1895,-0.035,0.065
1896,-0.030,0.055
1897,-0.025,0.045
1898,-0.025,0.045
1899,-0.015,0.045
1900,-0.005,0.040
1901,0.000,0.030
1902,0.000,0.020
1903,0.005,0.020
1904,0.010,0.015
1905,0.020,0.005
1906,0.025,0.000
1907,0.025,0.000
1908,0.020,0.000
1909,0.030,0.000
1910,0.040,0.000
1911,0.040,0.000
1912,0.035,0.010
1913,0.030,0.015
1914,0.030,0.015
1915,0.030,0.020
1916,0.030,0.020
1917,0.030,0.020
1918,0.025,0.020
1919,0.015,0.020
1920,0.015,0.020
1921,0.025,0.020
1922,0.030,0.020
1923,0.020,0.020
1924,0.020,0.020
1925,0.030,0.020
1926,0.055,0.020
1927,0.070,0.020
1928,0.090,0.020
1929,0.105,0.005
1930,0.115,0.000
1931,0.120,-0.015
1932,0.125,-0.025
1933,0.115,-0.030
1934,0.080,-0.005
1935,0.045,0.000
1936,0.015,0.000
1937,0.000,0.000
1938,0.000,0.000
1939,-0.005,0.000
1940,0.000,0.000
1941,0.000,0.000
1942,0.000,0.000
1943,-0.005,0.010
1944,-0.020,0.060
1945,-0.010,0.035
1946,0.110,-0.300
1947,0.320,-0.825
1948,0.440,-1.140
1949,0.350,-0.950
1950,0.130,-0.470
1951,0.010,-0.150
1952,-0.015,-0.010
1953,-0.025,0.045
1954,-0.035,0.100
1955,-0.035,0.115
1956,-0.040,0.130
1957,-0.040,0.140
1958,-0.040,0.140
1959,-0.040,0.140
1960,-0.040,0.140
1961,-0.050,0.140
1962,-0.045,0.140
1963,-0.040,0.140
1964,-0.045,0.140
1965,-0.045,0.140
1966,-0.045,0.140
1967,-0.045,0.140
1968,-0.050,0.140
1969,-0.055,0.135
1970,-0.055,0.135
1971,-0.055,0.120
1972,-0.060,0.115
1973,-0.060,0.115
1974,-0.065,0.115
1975,-0.060,0.100
1976,-0.055,0.080
1977,-0.050,0.070
1978,-0.045,0.070
1979,-0.045,0.070
1980,-0.040,0.070
1981,-0.030,0.055
1982,-0.015,0.045
1983,-0.010,0.035
1984,-0.005,0.030
1985,0.000,0.025
1986,0.000,0.020
1987,0.005,0.020
1988,0.000,0.015
1989,0.005,0.010
1990,0.015,0.000
1991,0.020,0.000
1992,0.020,0.000
1993,0.015,0.015
1994,0.010,0.020
1995,0.010,0.020
1996,0.010,0.020
1997,0.005,0.020
1998,0.000,0.035
1999,0.000,0.045
2000,0.000,0.045
2001,0.000,0.045
2002,-0.005,0.045
2003,-0.005,0.040
2004,0.000,0.025
2005,0.000,0.020
2006,0.000,0.020
2007,0.000,0.020
2008,0.000,0.020
2009,0.020,0.020
2010,0.050,0.020
2011,0.065,0.020
2012,0.085,0.010
2013,0.095,0.000
2014,0.100,-0.015
2015,0.100,-0.020
2016,0.095,-0.025
2017,0.070,-0.010
2018,0.030,0.000
2019,0.000,0.000
2020,-0.020,0.010
2021,-0.025,0.015
2022,-0.020,0.005
2023,-0.020,0.005
2024,-0.020,0.010
2025,-0.020,0.005
2026,-0.030,0.015
2027,-0.050,0.085
2028,-0.035,0.040
2029,0.100,-0.330
2030,0.300,-0.875
2031,0.390,-1.170
2032,0.295,-0.945
2033,0.095,-0.455
2034,-0.010,-0.140
2035,-0.035,0.000
2036,-0.040,0.055
2037,-0.055,0.115
2038,-0.055,0.135
2039,-0.050,0.140
2040,-0.055,0.140
2041,-0.055,0.140
2042,-0.055,0.140
2043,-0.055,0.140
2044,-0.055,0.140
2045,-0.055,0.140
2046,-0.055,0.140
2047,-0.055,0.140
2048,-0.060,0.140
2049,-0.065,0.140
2050,-0.070,0.140
2051,-0.065,0.140
2052,-0.065,0.140
2053,-0.070,0.140
2054,-0.075,0.140
2055,-0.075,0.120
2056,-0.080,0.115
2057,-0.075,0.105
2058,-0.070,0.095
2059,-0.065,0.075
2060,-0.060,0.070
2061,-0.055,0.070
2062,-0.050,0.070
2063,-0.045,0.070
2064,-0.040,0.065
2065,-0.030,0.050
2066,-0.020,0.045
2067,-0.015,0.035
2068,-0.005,0.025
2069,0.000,0.020
2070,0.000,0.020
2071,0.000,0.020
2072,0.000,0.020
2073,0.010,0.020
2074,0.010,0.020
2075,0.005,0.020
2076,0.005,0.020
2077,0.005,0.020
2078,0.005,0.020
2079,0.005,0.020
2080,0.000,0.025
2081,0.000,0.040
2082,0.000,0.045
2083,-0.005,0.045
2084,0.000,0.040
2085,0.000,0.035
2086,0.000,0.020
2087,0.000,0.020
2088,0.010,0.020
2089,0.005,0.020
2090,0.000,0.015
2091,0.005,0.015
2092,0.015,0.015
2093,0.030,0.020
2094,0.045,0.020
2095,0.065,0.015
2096,0.070,0.000
2097,0.095,-0.020
2098,0.105,-0.040
2099,0.100,-0.045
2100,0.075,-0.025
2101,0.035,0.000
2102,0.000,0.000
2103,-0.020,0.010
2104,-0.030,0.000
2105,-0.040,0.000
2106,-0.040,0.000
2107,-0.030,0.000
2108,-0.025,0.000
2109,-0.025,0.005
2110,-0.045,0.060
2111,-0.055,0.095
2112,0.045,-0.160
2113,0.245,-0.715
2114,0.370,-1.150
2115,0.320,-1.085
2116,0.140,-0.615
2117,0.000,-0.210
2118,-0.040,-0.030
2119,-0.055,0.045
2120,-0.065,0.110
2121,-0.065,0.135
2122,-0.065,0.145
2123,-0.060,0.150
2124,-0.060,0.155
2125,-0.060,0.165
2126,-0.065,0.165
2127,-0.065,0.165
2128,-0.060,0.165
2129,-0.075,0.165
2130,-0.075,0.160
2131,-0.065,0.140
2132,-0.070,0.140
2133,-0.060,0.140
2134,-0.060,0.140
2135,-0.070,0.140
2136,-0.075,0.140
2137,-0.075,0.140
2138,-0.085,0.135
2139,-0.090,0.120
2140,-0.095,0.115
2141,-0.090,0.095
2142,-0.090,0.095
2143,-0.090,0.075
2144,-0.070,0.055
2145,-0.065,0.060
2146,-0.065,0.070
2147,-0.060,0.070
2148,-0.050,0.055
2149,-0.050,0.045
2150,-0.045,0.045
2151,-0.030,0.040
2152,-0.030,0.025
2153,-0.020,0.020
2154,-0.015,0.020
2155,-0.015,0.020
2156,-0.010,0.020
2157,0.000,0.020
2158,0.005,0.020
2159,0.000,0.020
2160,0.000,0.020
2161,0.000,0.025
2162,0.000,0.035
2163,0.000,0.045
2164,0.000,0.045
2165,-0.005,0.045
2166,-0.010,0.045
2167,-0.020,0.045
2168,-0.020,0.045
2169,-0.010,0.040
2170,0.000,0.030
2171,0.000,0.020
2172,-0.005,0.035
2173,0.000,0.020
2174,0.000,0.020
2175,0.010,0.020
2176,0.025,0.020
2177,0.025,0.040
2178,0.050,0.030
2179,0.070,0.005
2180,0.075,0.000
2181,0.085,-0.020
2182,0.095,-0.030
2183,0.075,-0.015
2184,0.030,0.000
2185,0.005,0.000
2186,-0.015,0.005
2187,-0.040,0.010
2188,-0.040,0.015
2189,-0.025,0.000
2190,-0.020,0.000
2191,-0.030,0.010
2192,-0.035,0.015
2193,-0.045,0.045
2194,-0.055,0.120
2195,0.035,-0.050
2196,0.235,-0.570
2197,0.380,-1.060
2198,0.345,-1.085
2199,0.165,-0.685
2200,0.005,-0.265
2201,-0.040,-0.045
2202,-0.065,0.050
2203,-0.070,0.110
2204,-0.060,0.135
2205,-0.060,0.140
2206,-0.060,0.140
2207,-0.060,0.155
2208,-0.055,0.155
2209,-0.050,0.160
2210,-0.055,0.150
2211,-0.070,0.160
2212,-0.055,0.145
2213,-0.050,0.150
2214,-0.055,0.140
2215,-0.055,0.140
2216,-0.065,0.140
2217,-0.075,0.140
2218,-0.085,0.140
2219,-0.080,0.140
2220,-0.080,0.140
2221,-0.075,0.115
2222,-0.075,0.115
2223,-0.080,0.115
2224,-0.080,0.115
2225,-0.080,0.100
2226,-0.070,0.095
2227,-0.070,0.095
2228,-0.075,0.080
2229,-0.075,0.075
2230,-0.065,0.070
2231,-0.060,0.070
2232,-0.045,0.070
2233,-0.040,0.050
2234,-0.035,0.045
2235,-0.020,0.035
2236,-0.010,0.025
2237,-0.010,0.020
2238,0.000,0.020
2239,0.000,0.020
2240,0.000,0.020
2241,0.000,0.020
2242,0.000,0.020
2243,0.000,0.020
2244,0.000,0.020
2245,0.000,0.020
2246,0.000,0.020
2247,0.000,0.025
2248,0.000,0.045
2249,0.000,0.045
2250,-0.005,0.045
2251,0.000,0.040
2252,0.000,0.035
2253,0.000,0.020
2254,0.000,0.020
2255,0.000,0.020
2256,0.000,0.020
2257,0.000,0.020
2258,0.005,0.020
2259,0.025,0.020
2260,0.050,0.030
2261,0.065,0.015
2262,0.080,0.000
2263,0.085,-0.010
2264,0.090,-0.015
2265,0.085,-0.020
2266,0.065,-0.015
2267,0.030,0.000
2268,0.000,0.000
2269,-0.020,0.005
2270,-0.035,0.010
2271,-0.045,0.015
2272,-0.035,0.005
2273,-0.025,0.000
2274,-0.025,0.000
2275,-0.025,0.005
2276,-0.040,0.055
2277,-0.040,0.090
2278,0.070,-0.205
2279,0.280,-0.750
2280,0.415,-1.130
2281,0.350,-1.015
2282,0.155,-0.565
2283,0.015,-0.190
2284,-0.025,-0.025
2285,-0.040,0.045
2286,-0.045,0.095
2287,-0.040,0.120
2288,-0.040,0.130
2289,-0.050,0.140
2290,-0.050,0.140
2291,-0.055,0.140
2292,-0.055,0.140
2293,-0.060,0.145
2294,-0.060,0.145
2295,-0.060,0.140
2296,-0.060,0.140
2297,-0.065,0.140
2298,-0.060,0.140
2299,-0.070,0.140
2300,-0.070,0.140
2301,-0.075,0.140
2302,-0.070,0.140
2303,-0.075,0.140
2304,-0.075,0.140
2305,-0.075,0.140
2306,-0.080,0.115
2307,-0.085,0.115
2308,-0.080,0.115
2309,-0.070,0.100
2310,-0.065,0.095
2311,-0.065,0.095
2312,-0.060,0.080
2313,-0.050,0.070
2314,-0.045,0.070
2315,-0.040,0.070
2316,-0.025,0.055
2317,-0.015,0.045
2318,-0.010,0.045
2319,-0.005,0.035
2320,-0.005,0.025
2321,0.000,0.020
2322,0.000,0.020
2323,0.005,0.020
2324,0.005,0.020
2325,0.000,0.025
2326,0.000,0.035
2327,0.005,0.040
2328,0.000,0.045
2329,0.000,0.045
2330,0.000,0.045
2331,0.000,0.045
2332,0.000,0.045
2333,0.000,0.045
2334,0.000,0.045
2335,-0.005,0.045
2336,0.000,0.045
2337,0.000,0.045
2338,0.000,0.045
2339,0.000,0.045
2340,0.000,0.045
2341,0.015,0.045
2342,0.025,0.045
2343,0.055,0.040
2344,0.070,0.030
2345,0.085,0.000
2346,0.095,-0.015
2347,0.095,-0.015
2348,0.090,-0.020
2349,0.065,0.000
2350,0.015,0.010
2351,-0.005,0.015
2352,-0.020,0.020
2353,-0.030,0.020
2354,-0.035,0.020
2355,-0.030,0.020
2356,-0.025,0.020
2357,-0.025,0.020
2358,-0.025,0.040
2359,-0.050,0.120
2360,-0.020,0.030
2361,0.140,-0.415
2362,0.330,-0.955
2363,0.395,-1.155
2364,0.265,-0.835
2365,0.080,-0.375
2366,-0.010,-0.090
2367,-0.040,0.025
2368,-0.055,0.095
2369,-0.060,0.135
2370,-0.055,0.150
2371,-0.055,0.165
2372,-0.060,0.165
2373,-0.060,0.165
2374,-0.065,0.165
2375,-0.065,0.165
2376,-0.055,0.165
2377,-0.055,0.165
2378,-0.055,0.165
2379,-0.060,0.165
2380,-0.055,0.165
2381,-0.055,0.160
2382,-0.055,0.150
2383,-0.060,0.140
2384,-0.065,0.140
2385,-0.070,0.140
2386,-0.070,0.140
2387,-0.070,0.135
2388,-0.070,0.115
2389,-0.070,0.110
2390,-0.070,0.110
2391,-0.060,0.095
2392,-0.060,0.085
2393,-0.060,0.080
2394,-0.060,0.075
2395,-0.045,0.070
2396,-0.035,0.070
2397,-0.030,0.060
2398,-0.030,0.050
2399,-0.015,0.045
2400,0.000,0.045
2401,0.000,0.025
2402,0.005,0.020
2403,0.005,0.020
2404,0.005,0.020
2405,0.010,0.020
2406,0.020,0.020
2407,0.020,0.020
2408,0.015,0.020
2409,0.015,0.020
2410,0.015,0.020
2411,0.015,0.020
2412,0.010,0.035
2413,0.005,0.045
2414,0.000,0.045
2415,0.000,0.045
2416,0.000,0.045
2417,0.000,0.040
2418,0.000,0.035
2419,0.000,0.030
2420,0.000,0.020
2421,0.000,0.020
2422,0.000,0.020
2423,0.015,0.020
2424,0.025,0.020
2425,0.045,0.020
2426,0.065,0.020
2427,0.075,0.015
2428,0.100,0.000
2429,0.100,-0.020
2430,0.100,-0.030
2431,0.095,-0.040
2432,0.080,-0.020
2433,0.040,0.000
2434,0.010,0.000
2435,-0.010,0.000
2436,-0.015,0.005
2437,-0.020,0.010
2438,-0.015,0.000
2439,-0.010,0.000
2440,-0.010,0.000
2441,-0.020,0.000
2442,-0.035,0.065
2443,-0.025,0.085
2444,0.100,-0.270
2445,0.300,-0.840
2446,0.410,-1.195
2447,0.325,-1.000
2448,0.130,-0.530
2449,0.005,-0.175
2450,-0.025,-0.020
2451,-0.035,0.050
2452,-0.035,0.095
2453,-0.035,0.120
2454,-0.040,0.130
2455,-0.045,0.140
2456,-0.040,0.140
2457,-0.040,0.140
2458,-0.045,0.140
2459,-0.050,0.140
2460,-0.045,0.140
2461,-0.040,0.140
2462,-0.040,0.140
2463,-0.050,0.140
2464,-0.050,0.140
2465,-0.050,0.140
2466,-0.055,0.140
2467,-0.055,0.140
2468,-0.060,0.135
2469,-0.065,0.115
2470,-0.065,0.115
2471,-0.065,0.110
2472,-0.060,0.105
2473,-0.060,0.095
2474,-0.060,0.090
2475,-0.060,0.070
2476,-0.060,0.070
2477,-0.040,0.065
2478,-0.025,0.065
2479,-0.030,0.045
2480,-0.025,0.045
2481,-0.010,0.045
2482,-0.010,0.035
2483,0.000,0.020
2484,0.000,0.020
2485,0.005,0.015
2486,0.005,0.005
2487,0.010,0.000
2488,0.015,0.000
2489,0.020,0.000
2490,0.025,0.000
2491,0.020,0.005
2492,0.020,0.010
2493,0.020,0.020
2494,0.015,0.020
2495,0.015,0.020
2496,0.010,0.020
2497,0.005,0.020
2498,0.005,0.020
2499,0.005,0.020
2500,0.000,0.025
2501,0.010,0.020
2502,0.010,0.020
2503,0.010,0.020
2504,0.015,0.015
2505,0.010,0.015
2506,0.015,0.015
2507,0.040,0.015
2508,0.055,0.020
2509,0.075,0.015
2510,0.090,0.010
2511,0.100,-0.005
2512,0.110,-0.030
2513,0.120,-0.045
2514,0.110,-0.040
2515,0.090,-0.025
2516,0.035,0.000
2517,0.000,0.000
2518,0.000,0.000
2519,-0.005,0.000
2520,-0.010,0.000
2521,-0.015,0.000
2522,-0.005,0.000
2523,-0.005,0.000
2524,-0.010,0.000
2525,-0.025,0.060
2526,-0.025,0.100
2527,0.095,-0.250
2528,0.300,-0.840
2529,0.410,-1.225
2530,0.335,-1.035
2531,0.135,-0.550
2532,0.015,-0.190
2533,-0.010,-0.030
2534,-0.020,0.040
2535,-0.025,0.090
2536,-0.025,0.110
2537,-0.025,0.115
2538,-0.030,0.125
2539,-0.035,0.135
2540,-0.045,0.140
2541,-0.045,0.140
2542,-0.045,0.140
2543,-0.040,0.140
2544,-0.035,0.140
2545,-0.035,0.140
2546,-0.040,0.140
2547,-0.030,0.140
2548,-0.035,0.140
2549,-0.050,0.140
2550,-0.055,0.135
2551,-0.055,0.125
2552,-0.055,0.115
2553,-0.065,0.115
2554,-0.065,0.110
2555,-0.065,0.100
2556,-0.060,0.090
2557,-0.070,0.080
2558,-0.050,0.070
2559,-0.050,0.070
2560,-0.060,0.070
2561,-0.065,0.065
2562,-0.055,0.050
2563,-0.045,0.045
2564,-0.040,0.045
2565,-0.025,0.045
2566,-0.015,0.030
2567,-0.010,0.020
2568,-0.005,0.020
2569,0.000,0.015
2570,0.000,0.015
2571,0.005,0.015
2572,0.010,0.015
2573,0.010,0.020
2574,0.000,0.020
2575,0.005,0.015
2576,0.015,0.015
2577,0.000,0.020
2578,0.000,0.030
2579,0.000,0.040
2580,0.005,0.040
2581,0.000,0.040
2582,0.000,0.040
2583,0.000,0.030
2584,0.010,0.020
2585,0.005,0.020
2586,0.005,0.020
2587,0.005,0.020
2588,0.000,0.020
2589,0.000,0.020
2590,0.015,0.020
2591,0.035,0.030
2592,0.055,0.040
2593,0.070,0.030
2594,0.100,0.000
2595,0.100,-0.015
2596,0.080,-0.020
2597,0.095,-0.025
2598,0.090,-0.020
2599,0.045,0.000
2600,-0.005,0.005
2601,-0.015,0.015
2602,-0.015,0.010
2603,-0.020,0.015
2604,-0.025,0.020
2605,-0.020,0.010
2606,-0.020,0.010
2607,-0.020,0.015
2608,-0.035,0.055
2609,-0.035,0.135
2610,0.085,-0.160
2611,0.300,-0.760
2612,0.405,-1.175
2613,0.325,-1.025
2614,0.115,-0.545
2615,0.005,-0.185
2616,-0.025,-0.020
2617,-0.055,0.070
2618,-0.060,0.120
2619,-0.040,0.135
2620,-0.035,0.135
2621,-0.050,0.145
2622,-0.055,0.140
2623,-0.035,0.140
2624,-0.035,0.140
2625,-0.050,0.145
2626,-0.050,0.150
2627,-0.050,0.145
2628,-0.055,0.140
2629,-0.050,0.140
2630,-0.060,0.140
2631,-0.060,0.140
2632,-0.065,0.140
2633,-0.060,0.135
2634,-0.065,0.130
2635,-0.085,0.135
2636,-0.090,0.115
2637,-0.080,0.110
2638,-0.080,0.105
2639,-0.080,0.080
2640,-0.060,0.070
2641,-0.060,0.065
2642,-0.065,0.060
2643,-0.050,0.045
2644,-0.050,0.055
2645,-0.050,0.045
2646,-0.030,0.045
2647,-0.030,0.045
2648,-0.030,0.045
2649,-0.015,0.030
2650,0.000,0.020
2651,0.005,0.010
2652,0.010,0.015
2653,0.005,0.000
2654,0.015,0.000
2655,0.015,0.015
2656,0.005,0.020
2657,0.000,0.020
2658,0.000,0.025
2659,-0.005,0.030
2660,0.000,0.030
2661,0.000,0.030
2662,0.000,0.030
2663,-0.005,0.035
2664,-0.010,0.045
2665,-0.005,0.045
2666,0.000,0.035
2667,0.000,0.030
2668,0.005,0.030
2669,0.000,0.035
2670,-0.005,0.025
2671,0.000,0.020
2672,0.015,0.020
2673,0.030,0.020
2674,0.045,0.025
2675,0.045,0.040
2676,0.060,0.020
2677,0.085,0.000
2678,0.115,-0.015
2679,0.120,-0.020
2680,0.090,-0.025
2681,0.060,0.000
2682,0.020,0.000
2683,-0.005,0.005
2684,-0.015,0.010
2685,-0.020,0.020
2686,-0.025,0.020
2687,-0.030,0.020
2688,-0.030,0.020
2689,-0.025,0.020
2690,-0.015,0.020
2691,-0.035,0.100
2692,0.000,0.075
2693,0.180,-0.365
2694,0.385,-0.915
2695,0.415,-1.125
2696,0.225,-0.780
2697,0.050,-0.340
2698,-0.015,-0.085
2699,-0.040,0.020
2700,-0.055,0.090
2701,-0.050,0.115
2702,-0.050,0.130
2703,-0.055,0.140
2704,-0.055,0.140
2705,-0.060,0.140
2706,-0.065,0.140
2707,-0.060,0.145
2708,-0.055,0.140
2709,-0.055,0.140
2710,-0.060,0.140
2711,-0.060,0.140
2712,-0.065,0.135
2713,-0.065,0.130
2714,-0.065,0.140
2715,-0.060,0.130
2716,-0.060,0.115
2717,-0.070,0.115
2718,-0.065,0.115
2719,-0.060,0.115
2720,-0.065,0.110
2721,-0.050,0.095
2722,-0.050,0.095
2723,-0.055,0.090
2724,-0.055,0.075
2725,-0.045,0.070
2726,-0.035,0.070
2727,-0.035,0.065
2728,-0.030,0.060
2729,-0.020,0.045
2730,-0.010,0.045
2731,-0.005,0.045
2732,-0.005,0.030
2733,0.000,0.020
2734,0.005,0.020
2735,0.010,0.020
2736,0.010,0.020
2737,0.010,0.020
2738,0.010,0.020
2739,0.020,0.020
2740,0.020,0.020
2741,0.015,0.020
2742,0.015,0.020
2743,0.015,0.020
2744,0.015,0.020
2745,0.010,0.020
2746,0.010,0.020
2747,0.010,0.020
2748,0.015,0.020
2749,0.010,0.020
2750,0.010,0.020
2751,0.015,0.020
2752,0.020,0.020
2753,0.015,0.020
2754,0.020,0.020
2755,0.040,0.020
2756,0.060,0.020
2757,0.080,0.020
2758,0.095,0.015
2759,0.115,0.000
2760,0.130,-0.010
2761,0.135,-0.030
2762,0.120,-0.040
2763,0.090,-0.020
2764,0.045,0.000
2765,0.020,0.000
2766,0.000,0.000
2767,-0.005,0.000
2768,-0.005,0.010
2769,-0.010,0.020
2770,-0.010,0.020
2771,-0.010,0.015
2772,-0.010,0.015
2773,-0.020,0.075
2774,-0.015,0.080
2775,0.140,-0.345
2776,0.375,-0.920
2777,0.460,-1.200
2778,0.330,-0.895
2779,0.110,-0.400
2780,0.010,-0.110
2781,-0.010,0.000
2782,-0.015,0.060
2783,-0.020,0.105
2784,-0.015,0.125
2785,-0.015,0.135
2786,-0.020,0.140
2787,-0.030,0.140
2788,-0.035,0.140
2789,-0.030,0.140
2790,-0.030,0.140
2791,-0.030,0.140
2792,-0.035,0.140
2793,-0.040,0.140
2794,-0.040,0.135
2795,-0.040,0.135
2796,-0.040,0.140
2797,-0.040,0.140
2798,-0.050,0.135
2799,-0.050,0.120
2800,-0.055,0.115
2801,-0.060,0.120
2802,-0.065,0.125
2803,-0.060,0.110
2804,-0.055,0.105
2805,-0.050,0.090
2806,-0.045,0.075
2807,-0.040,0.070
2808,-0.030,0.070
2809,-0.025,0.070
2810,-0.020,0.065
2811,-0.015,0.045
2812,-0.005,0.045
2813,0.000,0.040
2814,0.005,0.025
2815,0.010,0.020
2816,0.020,0.020
2817,0.015,0.020
2818,0.015,0.020
2819,0.020,0.020
2820,0.025,0.020
2821,0.025,0.020
2822,0.025,0.020
2823,0.025,0.025
2824,0.030,0.035
2825,0.025,0.040
2826,0.025,0.045
2827,0.020,0.045
2828,0.015,0.045
2829,0.015,0.045
2830,0.010,0.045
2831,0.010,0.035
2832,0.010,0.035
2833,0.010,0.025
2834,0.015,0.020
2835,0.010,0.020
2836,0.015,0.025
2837,0.025,0.020
2838,0.045,0.030
2839,0.065,0.040
2840,0.085,0.025
2841,0.100,0.005
2842,0.110,-0.005
2843,0.110,-0.020
2844,0.115,-0.020
2845,0.095,-0.010
2846,0.060,0.000
2847,0.025,0.000
2848,0.000,0.005
2849,-0.005,0.020
2850,-0.015,0.020
2851,-0.020,0.015
2852,-0.010,0.015
2853,-0.005,0.020
2854,-0.015,0.020
2855,-0.025,0.040
2856,-0.045,0.135
2857,0.025,-0.090
2858,0.250,-0.675
2859,0.410,-1.185
2860,0.395,-1.160
2861,0.170,-0.625
2862,0.030,-0.225
2863,-0.010,-0.030
2864,-0.020,0.030
2865,-0.030,0.095
2866,-0.030,0.125
2867,-0.030,0.135
2868,-0.035,0.140
2869,-0.040,0.140
2870,-0.040,0.140
2871,-0.040,0.140
2872,-0.045,0.140
2873,-0.040,0.140
2874,-0.040,0.140
2875,-0.040,0.140
2876,-0.040,0.140
2877,-0.045,0.140
2878,-0.045,0.140
2879,-0.045,0.140
2880,-0.050,0.140
2881,-0.050,0.135
2882,-0.055,0.125
2883,-0.060,0.115
2884,-0.055,0.110
2885,-0.050,0.105
2886,-0.050,0.095
2887,-0.050,0.090
2888,-0.045,0.080
2889,-0.040,0.070
2890,-0.035,0.070
2891,-0.035,0.065
2892,-0.025,0.065
2893,-0.020,0.065
2894,-0.015,0.060
2895,-0.010,0.035
2896,0.000,0.020
2897,0.000,0.020
2898,0.000,0.020
2899,0.005,0.015
2900,0.010,0.005
2901,0.020,0.010
2902,0.020,0.010
2903,0.015,0.015
2904,0.015,0.020
2905,0.020,0.020
2906,0.020,0.020
2907,0.020,0.020
2908,0.020,0.020
2909,0.010,0.030
2910,0.010,0.040
2911,0.010,0.040
2912,0.010,0.025
2913,0.010,0.030
2914,0.010,0.020
2915,0.005,0.020
2916,0.005,0.020
2917,0.010,0.020
2918,0.010,0.020
2919,0.020,0.020
2920,0.035,0.020
2921,0.055,0.025
2922,0.070,0.020
2923,0.080,0.010
2924,0.090,-0.005
2925,0.100,-0.020
2926,0.110,-0.030
2927,0.105,-0.035
2928,0.075,-0.015
2929,0.035,0.000
2930,0.005,0.000
2931,-0.005,0.000
2932,-0.005,0.005
2933,-0.015,0.005
2934,-0.015,0.005
2935,-0.010,0.000
2936,-0.005,0.000
2937,-0.020,0.015
2938,-0.035,0.075
2939,-0.025,0.075
2940,0.130,-0.375
2941,0.345,-0.975
2942,0.415,-1.270
2943,0.295,-0.935
2944,0.065,-0.395
2945,-0.010,-0.100
2946,-0.035,0.000
2947,-0.040,0.070
2948,-0.040,0.110
2949,-0.040,0.130
2950,-0.040,0.135
2951,-0.040,0.140
2952,-0.035,0.140
2953,-0.040,0.145
2954,-0.045,0.140
2955,-0.040,0.140
2956,-0.040,0.140
2957,-0.040,0.140
2958,-0.040,0.140
2959,-0.040,0.140
2960,-0.040,0.140
2961,-0.045,0.140
2962,-0.055,0.140
2963,-0.060,0.135
2964,-0.060,0.130
2965,-0.060,0.120
2966,-0.055,0.110
2967,-0.055,0.105
2968,-0.060,0.095
2969,-0.060,0.090
2970,-0.055,0.075
2971,-0.050,0.070
2972,-0.050,0.070
2973,-0.040,0.070
2974,-0.040,0.065
2975,-0.040,0.055
2976,-0.035,0.045
2977,-0.025,0.040
2978,-0.020,0.035
2979,-0.005,0.020
2980,0.000,0.015
2981,0.010,0.010
2982,0.010,0.010
2983,0.015,0.000
2984,0.015,0.000
2985,0.015,0.005
2986,0.020,0.020
2987,0.020,0.020
2988,0.005,0.020
2989,0.005,0.020
2990,0.010,0.020
2991,0.015,0.020
2992,0.005,0.020
2993,0.000,0.035
2994,0.000,0.030
2995,0.000,0.020
2996,0.000,0.020
2997,0.000,0.020
2998,0.000,0.020
2999,0.000,0.020
3000,-0.010,0.020
3001,0.000,0.020
3002,0.020,0.020
3003,0.035,0.020
3004,0.050,0.020
3005,0.065,0.015
3006,0.085,0.005
3007,0.095,-0.015
3008,0.105,-0.035
3009,0.100,-0.035
3010,0.080,-0.020
3011,0.045,-0.005
3012,0.010,0.000
3013,-0.010,0.000
3014,-0.025,0.010
3015,-0.035,0.010
3016,-0.030,0.000
3017,-0.030,0.000
3018,-0.030,0.000
3019,-0.025,0.000
3020,-0.045,0.040
3021,-0.050,0.110
3022,0.025,-0.055
3023,0.230,-0.620
3024,0.390,-1.150
3025,0.360,-1.195
3026,0.160,-0.690
3027,0.000,-0.245
3028,-0.045,-0.030
3029,-0.060,0.040
3030,-0.065,0.105
3031,-0.060,0.130
3032,-0.060,0.135
3033,-0.060,0.140
3034,-0.060,0.140
3035,-0.060,0.140
3036,-0.065,0.140
3037,-0.070,0.140
3038,-0.070,0.140
3039,-0.065,0.140
3040,-0.065,0.140
3041,-0.065,0.140
3042,-0.055,0.140
3043,-0.065,0.140
3044,-0.080,0.140
3045,-0.070,0.140
3046,-0.060,0.130
3047,-0.075,0.130
3048,-0.085,0.125
3049,-0.085,0.115
3050,-0.085,0.105
3051,-0.080,0.095
3052,-0.075,0.090
3053,-0.065,0.075
3054,-0.060,0.070
3055,-0.065,0.070
3056,-0.055,0.065
3057,-0.050,0.050
3058,-0.040,0.045
3059,-0.040,0.045
3060,-0.030,0.045
3061,-0.020,0.045
3062,-0.025,0.040
3063,-0.010,0.025
3064,0.000,0.020
3065,0.000,0.020
3066,0.000,0.020
3067,0.000,0.020
3068,0.000,0.020
3069,0.000,0.020
3070,0.000,0.020
3071,0.000,0.025
3072,-0.005,0.020
3073,0.000,0.040
3074,0.000,0.030
3075,0.000,0.040
3076,0.000,0.040
3077,0.000,0.020
3078,0.000,0.025
3079,-0.015,0.040
3080,-0.005,0.020
3081,0.005,0.020
3082,0.000,0.020
3083,0.000,0.020
3084,0.000,0.020
3085,0.020,0.025
3086,0.030,0.035
3087,0.050,0.030
3088,0.070,0.015
3089,0.090,0.000
3090,0.100,-0.010
3091,0.100,-0.025
3092,0.085,-0.025
3093,0.055,-0.005
3094,0.015,0.000
3095,-0.005,0.000
3096,-0.015,0.010
3097,-0.025,0.020
3098,-0.020,0.020
3099,-0.020,0.020
3100,-0.025,0.015
3101,-0.030,0.015
3102,-0.035,0.025
3103,-0.045,0.075
3104,-0.030,0.100
3105,0.110,-0.245
3106,0.335,-0.825
3107,0.410,-1.160
3108,0.285,-0.935
3109,0.065,-0.430
3110,-0.010,-0.120
3111,-0.050,0.005
3112,-0.055,0.080
3113,-0.055,0.115
3114,-0.060,0.140
3115,-0.060,0.140
3116,-0.055,0.140
3117,-0.055,0.140
3118,-0.060,0.140
3119,-0.060,0.140
3120,-0.060,0.140
3121,-0.055,0.140
3122,-0.055,0.130
3123,-0.060,0.130
3124,-0.060,0.130
3125,-0.060,0.115
3126,-0.060,0.115
3127,-0.065,0.115
3128,-0.070,0.115
3129,-0.070,0.115
3130,-0.075,0.115
3131,-0.080,0.115
3132,-0.080,0.100
3133,-0.080,0.095
3134,-0.080,0.080
3135,-0.075,0.070
3136,-0.065,0.070
3137,-0.060,0.070
3138,-0.060,0.055
3139,-0.055,0.045
3140,-0.045,0.045
3141,-0.035,0.040
3142,-0.025,0.030
3143,-0.015,0.020
3144,-0.010,0.020
3145,0.000,0.015
3146,0.000,0.010
3147,0.000,0.000
3148,0.010,0.000
3149,0.010,0.000
3150,0.010,0.000
3151,0.010,0.000
3152,0.010,0.000
3153,0.010,0.000
3154,0.005,0.015
3155,0.005,0.000
3156,0.000,0.020
3157,0.000,0.020
3158,0.000,0.020
3159,0.000,0.020
3160,0.000,0.020
3161,0.005,0.020
3162,0.000,0.020
3163,0.000,0.015
3164,0.000,0.005
3165,0.000,0.005
3166,0.005,0.000
3167,0.020,0.015
3168,0.035,0.020
3169,0.050,0.020
3170,0.070,0.005
3171,0.085,-0.005
3172,0.100,-0.030
3173,0.105,-0.045
3174,0.105,-0.045
3175,0.075,-0.025
3176,0.040,-0.005
3177,0.010,0.000
3178,-0.005,0.000
3179,-0.010,0.000
3180,-0.015,0.000
3181,-0.015,0.000
3182,-0.015,0.000
3183,-0.015,0.000
3184,-0.015,0.005
3185,-0.030,0.050
3186,-0.020,0.035
3187,0.100,-0.300
3188,0.305,-0.840
3189,0.415,-1.165
3190,0.340,-0.990
3191,0.115,-0.475
3192,0.005,-0.150
3193,-0.020,-0.010
3194,-0.030,0.045
3195,-0.040,0.095
3196,-0.040,0.115
3197,-0.045,0.130
3198,-0.050,0.135
3199,-0.050,0.140
3200,-0.050,0.140
3201,-0.040,0.140
3202,-0.040,0.140
3203,-0.045,0.140
3204,-0.050,0.140
3205,-0.050,0.140
3206,-0.050,0.140
3207,-0.050,0.140
3208,-0.050,0.140
3209,-0.050,0.140
3210,-0.055,0.140
3211,-0.060,0.140
3212,-0.065,0.120
3213,-0.065,0.115
3214,-0.070,0.115
3215,-0.070,0.115
3216,-0.070,0.110
3217,-0.065,0.085
3218,-0.060,0.070
3219,-0.055,0.070
3220,-0.045,0.070
3221,-0.035,0.055
3222,-0.030,0.045
3223,-0.025,0.045
3224,-0.015,0.045
3225,-0.005,0.030
3226,0.000,0.020
3227,0.000,0.010
3228,0.005,0.000
3229,0.015,0.000
3230,0.020,0.000
3231,0.020,0.000
3232,0.020,0.010
3233,0.025,0.010
3234,0.025,0.015
3235,0.020,0.020
3236,0.015,0.020
3237,0.000,0.020
3238,0.000,0.020
3239,0.000,0.020
3240,0.000,0.020
3241,0.000,0.020
3242,0.005,0.020
3243,0.005,0.020
3244,0.000,0.020
3245,0.005,0.020
3246,0.000,0.020
3247,0.005,0.020
3248,0.010,0.015
3249,0.025,0.005
3250,0.040,0.015
3251,0.045,0.020
3252,0.065,0.020
3253,0.085,0.000
3254,0.105,-0.010
3255,0.110,-0.035
3256,0.115,-0.045
3257,0.095,-0.035
3258,0.060,-0.010
3259,0.020,0.000
3260,0.000,0.000
3261,-0.005,0.000
3262,-0.015,0.000
3263,-0.015,0.000
3264,-0.015,0.000
3265,-0.020,0.000
3266,-0.015,0.000
3267,-0.010,0.025
3268,-0.025,0.080
3269,0.010,-0.065
3270,0.195,-0.560
3271,0.390,-1.060
3272,0.405,-1.175
3273,0.240,-0.790
3274,0.050,-0.315
3275,-0.010,-0.075
3276,-0.040,0.010
3277,-0.040,0.070
3278,-0.040,0.110
3279,-0.040,0.115
3280,-0.045,0.135
3281,-0.050,0.140
3282,-0.045,0.140
3283,-0.045,0.140
3284,-0.060,0.140
3285,-0.055,0.140
3286,-0.045,0.140
3287,-0.045,0.140
3288,-0.045,0.140
3289,-0.050,0.135
3290,-0.040,0.135
3291,-0.040,0.140
3292,-0.040,0.135
3293,-0.045,0.120
3294,-0.055,0.115
3295,-0.060,0.115
3296,-0.065,0.110
3297,-0.060,0.100
3298,-0.060,0.085
3299,-0.065,0.070
3300,-0.060,0.070
3301,-0.050,0.065
3302,-0.050,0.050
3303,-0.050,0.045
3304,-0.045,0.045
3305,-0.030,0.045
3306,-0.010,0.035
3307,-0.005,0.025
3308,0.000,0.015
3309,0.000,0.005
3310,0.005,0.000
3311,0.010,0.000
3312,0.020,0.000
3313,0.025,0.000
3314,0.015,0.000
3315,0.005,0.000
3316,0.010,0.000
3317,0.010,0.000
3318,0.010,0.005
3319,0.015,0.005
3320,0.010,0.010
3321,0.000,0.015
3322,0.005,0.020
3323,0.005,0.020
3324,0.005,0.020
3325,0.010,0.020
3326,0.015,0.015
3327,0.010,0.010
3328,0.015,0.005
3329,0.020,0.005
3330,0.025,0.000
3331,0.015,0.000
3332,0.035,0.000
3333,0.060,0.005
3334,0.065,0.005
3335,0.080,0.000
3336,0.105,-0.020
3337,0.115,-0.040
3338,0.120,-0.045
3339,0.105,-0.050
3340,0.085,-0.035
3341,0.045,-0.005
3342,0.010,0.000
3343,-0.010,0.000
3344,-0.010,0.000
3345,-0.010,0.000
3346,-0.005,0.000
3347,-0.005,0.000
3348,-0.005,0.000
3349,-0.010,0.000
3350,-0.025,0.060
3351,-0.015,0.050
3352,0.095,-0.285
3353,0.290,-0.850
3354,0.410,-1.205
3355,0.335,-1.040
3356,0.135,-0.545
3357,0.025,-0.180
3358,0.000,-0.020
3359,-0.005,0.030
3360,-0.025,0.075
3361,-0.025,0.100
3362,-0.025,0.115
3363,-0.025,0.115
3364,-0.025,0.115
3365,-0.025,0.135
3366,-0.030,0.135
3367,-0.030,0.140
3368,-0.030,0.140
3369,-0.035,0.135
3370,-0.035,0.135
3371,-0.035,0.135
3372,-0.035,0.135
3373,-0.035,0.115
3374,-0.035,0.115
3375,-0.040,0.115
3376,-0.040,0.115
3377,-0.045,0.115
3378,-0.055,0.105
3379,-0.055,0.095
3380,-0.055,0.080
3381,-0.040,0.070
3382,-0.035,0.070
3383,-0.030,0.060
3384,-0.035,0.045
3385,-0.040,0.045
3386,-0.030,0.045
3387,-0.020,0.045
3388,-0.015,0.035
3389,-0.005,0.025
3390,0.000,0.020
3391,0.000,0.015
3392,0.005,0.005
3393,0.010,0.000
3394,0.015,0.000
3395,0.025,0.000
3396,0.030,0.000
3397,0.025,0.000
3398,0.025,0.000
3399,0.030,0.000
3400,0.025,0.000
3401,0.020,0.005
3402,0.020,0.020
3403,0.020,0.020
3404,0.020,0.020
3405,0.015,0.020
3406,0.015,0.020
3407,0.020,0.020
3408,0.020,0.020
3409,0.020,0.020
3410,0.015,0.020
3411,0.010,0.020
3412,0.010,0.015
3413,0.015,0.000
3414,0.025,0.000
3415,0.045,0.000
3416,0.065,0.005
3417,0.075,0.010
3418,0.090,0.000
3419,0.105,-0.025
3420,0.115,-0.040
3421,0.120,-0.045
3422,0.100,-0.045
3423,0.070,-0.020
3424,0.035,0.000
3425,0.005,0.000
3426,-0.010,0.000
3427,-0.015,0.000
3428,-0.005,0.000
3429,-0.005,0.000
3430,0.000,0.000
3431,0.000,0.000
3432,0.000,0.010
3433,-0.020,0.080
3434,0.030,-0.050
3435,0.210,-0.540
3436,0.375,-1.070
3437,0.390,-1.200
3438,0.245,-0.830
3439,0.070,-0.355
3440,0.000,-0.100
3441,-0.030,0.005
3442,-0.040,0.055
3443,-0.035,0.090
3444,-0.030,0.115
3445,-0.025,0.115
3446,-0.015,0.115
3447,-0.035,0.115
3448,-0.055,0.120
3449,-0.050,0.135
3450,-0.045,0.130
3451,-0.045,0.135
3452,-0.040,0.125
3453,-0.040,0.115
3454,-0.040,0.115
3455,-0.040,0.130
3456,-0.050,0.140
3457,-0.050,0.140
3458,-0.050,0.120
3459,-0.050,0.115
3460,-0.065,0.115
3461,-0.070,0.115
3462,-0.065,0.100
3463,-0.060,0.080
3464,-0.060,0.070
3465,-0.060,0.070
3466,-0.055,0.050
3467,-0.050,0.045
3468,-0.035,0.045
3469,-0.020,0.045
3470,-0.020,0.045
3471,-0.020,0.045
3472,-0.010,0.035
3473,0.000,0.025
3474,0.000,0.020
3475,0.005,0.020
3476,0.015,0.020
3477,0.020,0.010
3478,0.015,0.010
3479,0.010,0.010
3480,0.015,0.010
3481,0.025,0.020
3482,0.025,0.020
3483,0.020,0.020
3484,0.025,0.020
3485,0.015,0.020
3486,0.005,0.020
3487,0.000,0.020
3488,0.000,0.020
3489,0.005,0.020
3490,0.010,0.020
3491,0.010,0.020
3492,0.015,0.020
3493,0.005,0.020
3494,0.010,0.015
3495,0.015,0.005
3496,0.010,0.020
3497,0.025,0.020
3498,0.045,0.020
3499,0.055,0.020
3500,0.070,0.020
3501,0.095,0.000
3502,0.110,-0.025
3503,0.115,-0.040
3504,0.115,-0.050
3505,0.090,-0.030
3506,0.040,-0.005
3507,0.005,0.000
3508,0.000,0.000
3509,-0.005,0.000
3510,-0.010,0.000
3511,-0.010,0.000
3512,-0.015,0.000
3513,-0.005,0.000
3514,-0.010,0.000
3515,-0.030,0.040
3516,-0.030,0.110
3517,0.060,-0.105
3518,0.255,-0.665
3519,0.385,-1.140
3520,0.335,-1.115
3521,0.160,-0.675
3522,0.020,-0.255
3523,-0.030,-0.045
3524,-0.050,0.040
3525,-0.055,0.090
3526,-0.050,0.115
3527,-0.050,0.120
3528,-0.050,0.135
3529,-0.050,0.140
3530,-0.050,0.140
3531,-0.050,0.140
3532,-0.055,0.140
3533,-0.060,0.140
3534,-0.055,0.140
3535,-0.050,0.140
3536,-0.050,0.135
3537,-0.055,0.135
3538,-0.060,0.135
3539,-0.070,0.130
3540,-0.070,0.125
3541,-0.065,0.115
3542,-0.065,0.115
3543,-0.075,0.115
3544,-0.080,0.115
3545,-0.080,0.110
3546,-0.070,0.095
3547,-0.070,0.070
3548,-0.070,0.070
3549,-0.075,0.070
3550,-0.065,0.070
3551,-0.050,0.050
3552,-0.035,0.045
3553,-0.035,0.045
3554,-0.025,0.045
3555,-0.020,0.035
3556,-0.010,0.025
3557,-0.010,0.020
3558,-0.015,0.020
3559,-0.010,0.020
3560,0.000,0.020
3561,0.000,0.010
3562,0.000,0.010
3563,0.000,0.010
3564,0.000,0.020
3565,0.000,0.020
3566,0.000,0.020
3567,0.000,0.020
3568,0.000,0.020
3569,0.000,0.020
3570,-0.005,0.020
3571,-0.005,0.020
3572,0.000,0.020
3573,0.000,0.020
3574,0.000,0.020
3575,0.000,0.020
3576,0.000,0.015
3577,0.005,0.000
3578,0.005,0.000
3579,0.010,0.000
3580,0.025,0.005
3581,0.055,0.020
3582,0.065,0.015
3583,0.080,0.000
3584,0.095,-0.020
3585,0.105,-0.040
3586,0.110,-0.045
3587,0.105,-0.045
3588,0.070,-0.015
3589,0.030,0.000
3590,0.000,0.000
3591,-0.015,0.000
3592,-0.025,0.000
3593,-0.025,0.000
3594,-0.020,0.000
3595,-0.020,0.000
3596,-0.025,0.000
3597,-0.025,0.000
3598,-0.045,0.085
3599,-0.005,0.035
3600,0.160,-0.405
3601,0.360,-0.970
3602,0.420,-1.205
3603,0.280,-0.910
3604,0.090,-0.430
3605,-0.005,-0.130
3606,-0.030,-0.005
3607,-0.045,0.045
3608,-0.040,0.090
3609,-0.040,0.105
3610,-0.050,0.115
3611,-0.045,0.115
3612,-0.040,0.115
3613,-0.045,0.125
3614,-0.045,0.135
3615,-0.050,0.125
3616,-0.050,0.115
3617,-0.050,0.115
3618,-0.040,0.115
3619,-0.035,0.115
3620,-0.045,0.115
3621,-0.045,0.115
3622,-0.055,0.115
3623,-0.055,0.115
3624,-0.060,0.115
3625,-0.060,0.110
3626,-0.070,0.095
3627,-0.070,0.095
3628,-0.070,0.095
3629,-0.065,0.070
3630,-0.070,0.070
3631,-0.070,0.060
3632,-0.060,0.050
3633,-0.050,0.045
3634,-0.045,0.045
3635,-0.040,0.045
3636,-0.040,0.045
3637,-0.025,0.025
3638,-0.020,0.020
3639,-0.010,0.010
3640,-0.010,0.005
3641,-0.005,0.000
3642,0.000,0.000
3643,0.000,0.000
3644,0.000,0.000
3645,0.005,0.000
3646,0.005,0.000
3647,0.000,0.000
3648,0.000,0.000
3649,0.005,0.005
3650,0.005,0.020
3651,0.000,0.020
3652,0.000,0.020
3653,0.000,0.020
3654,-0.005,0.020
3655,-0.005,0.020
3656,0.000,0.020
3657,0.000,0.020
3658,-0.005,0.015
3659,0.000,0.010
3660,0.000,0.010
3661,0.005,0.015
3662,0.025,0.020
3663,0.045,0.020
3664,0.060,0.015
3665,0.065,0.000
3666,0.090,-0.015
3667,0.105,-0.045
3668,0.100,-0.045
3669,0.095,-0.040
3670,0.065,-0.020
3671,0.025,0.000
3672,0.000,0.000
3673,-0.020,0.000
3674,-0.025,0.000
3675,-0.030,0.000
3676,-0.030,0.000
3677,-0.030,0.000
3678,-0.030,0.000
3679,-0.035,0.010
3680,-0.060,0.100
3681,-0.020,0.010
3682,0.145,-0.445
3683,0.335,-1.000
3684,0.400,-1.195
3685,0.255,-0.855
3686,0.070,-0.385
3687,-0.020,-0.105
3688,-0.045,0.010
3689,-0.050,0.070
3690,-0.045,0.115
3691,-0.045,0.135
3692,-0.050,0.140
3693,-0.050,0.145
3694,-0.055,0.145
3695,-0.055,0.150
3696,-0.060,0.150
3697,-0.060,0.145
3698,-0.055,0.140
3699,-0.055,0.140
3700,-0.060,0.140
3701,-0.060,0.140
3702,-0.060,0.140
3703,-0.055,0.140
3704,-0.050,0.140
3705,-0.060,0.140
3706,-0.070,0.135
3707,-0.075,0.130
3708,-0.070,0.115
3709,-0.075,0.110
3710,-0.070,0.100
3711,-0.070,0.095
3712,-0.070,0.085
3713,-0.060,0.085
3714,-0.055,0.085
3715,-0.055,0.070
3716,-0.050,0.070
3717,-0.045,0.070
3718,-0.040,0.060
3719,-0.030,0.045
3720,-0.010,0.035
3721,-0.010,0.020
3722,0.000,0.020
3723,0.000,0.020
3724,0.005,0.020
3725,0.000,0.020
3726,0.000,0.020
3727,0.005,0.020
3728,0.005,0.020
3729,0.005,0.020
3730,0.005,0.020
3731,0.005,0.020
3732,0.000,0.030
3733,0.000,0.035
3734,0.000,0.035
3735,-0.005,0.045
3736,-0.005,0.045
3737,-0.005,0.045
3738,-0.005,0.040
3739,-0.010,0.030
3740,-0.005,0.020
3741,0.000,0.020
3742,0.000,0.020
3743,0.000,0.020
3744,0.010,0.020
3745,0.025,0.020
3746,0.045,0.030
3747,0.065,0.025
3748,0.080,0.000
3749,0.100,-0.015
3750,0.095,-0.025
3751,0.090,-0.025
3752,0.070,-0.020
3753,0.040,0.000
3754,0.000,0.000
3755,-0.010,0.000
3756,-0.035,0.015
3757,-0.030,0.005
3758,-0.025,0.000
3759,-0.025,0.000
3760,-0.030,0.000
3761,-0.025,0.000
3762,-0.040,0.035
3763,-0.060,0.125
3764,0.020,-0.105
3765,0.225,-0.665
3766,0.375,-1.145
3767,0.370,-1.135
3768,0.175,-0.675
3769,0.025,-0.255
3770,-0.035,-0.050
3771,-0.060,0.040
3772,-0.060,0.090
3773,-0.050,0.115
3774,-0.050,0.125
3775,-0.060,0.140
3776,-0.060,0.140
3777,-0.055,0.140
3778,-0.055,0.140
3779,-0.055,0.140
3780,-0.055,0.140
3781,-0.060,0.140
3782,-0.060,0.140
3783,-0.060,0.140
3784,-0.060,0.140
3785,-0.055,0.140
3786,-0.065,0.140
3787,-0.065,0.140
3788,-0.070,0.140
3789,-0.075,0.135
3790,-0.080,0.115
3791,-0.080,0.115
3792,-0.085,0.110
3793,-0.075,0.100
3794,-0.070,0.090
3795,-0.070,0.070
3796,-0.070,0.070
3797,-0.065,0.070
3798,-0.065,0.070
3799,-0.060,0.070
3800,-0.050,0.070
3801,-0.040,0.045
3802,-0.030,0.045
3803,-0.025,0.045
3804,-0.020,0.020
3805,-0.015,0.020
3806,-0.005,0.020
3807,0.000,0.020
3808,0.000,0.020
3809,0.000,0.020
3810,0.005,0.020
3811,0.010,0.020
3812,0.010,0.020
3813,0.010,0.020
3814,0.010,0.020
3815,0.005,0.020
3816,0.005,0.020
3817,0.000,0.020
3818,0.000,0.020
3819,0.000,0.020
3820,0.000,0.020
3821,0.000,0.020
3822,0.000,0.020
3823,0.000,0.020
3824,0.000,0.010
3825,0.005,0.000
3826,0.005,0.000
3827,0.010,0.005
3828,0.040,0.020
3829,0.055,0.020
3830,0.070,0.015
3831,0.090,0.000
3832,0.105,-0.020
3833,0.105,-0.045
3834,0.095,-0.040
3835,0.075,-0.030
3836,0.035,0.000
3837,0.000,0.000
3838,-0.015,0.000
3839,-0.030,0.000
3840,-0.035,0.000
3841,-0.015,0.000
3842,-0.015,0.000
3843,-0.025,0.000
3844,-0.030,0.000
3845,-0.030,0.035
3846,-0.045,0.120
3847,0.060,-0.185
3848,0.270,-0.795
3849,0.390,-1.225
3850,0.330,-1.090
3851,0.130,-0.585
3852,0.015,-0.215
3853,-0.025,-0.035
3854,-0.045,0.045
3855,-0.050,0.095
3856,-0.040,0.115
3857,-0.030,0.115
3858,-0.035,0.130
3859,-0.045,0.140
3860,-0.040,0.135
3861,-0.035,0.135
3862,-0.040,0.140
3863,-0.050,0.140
3864,-0.050,0.140
3865,-0.050,0.140
3866,-0.055,0.140
3867,-0.060,0.140
3868,-0.065,0.140
3869,-0.070,0.130
3870,-0.075,0.120
3871,-0.085,0.115
3872,-0.070,0.115
3873,-0.070,0.115
3874,-0.075,0.110
3875,-0.075,0.095
3876,-0.080,0.090
3877,-0.075,0.070
3878,-0.060,0.070
3879,-0.060,0.065
3880,-0.055,0.045
3881,-0.050,0.045
3882,-0.045,0.045
3883,-0.045,0.045
3884,-0.040,0.045
3885,-0.030,0.030
3886,-0.020,0.020
3887,-0.010,0.020
3888,-0.010,0.020
3889,-0.005,0.000
3890,0.000,0.000
3891,0.005,0.000
3892,0.000,0.000
3893,0.000,0.000
3894,0.000,0.010
3895,0.000,0.005
3896,0.000,0.015
3897,0.000,0.020
3898,0.000,0.020
3899,0.000,0.020
3900,0.000,0.020
3901,0.000,0.020
3902,-0.005,0.020
3903,-0.005,0.020
3904,-0.005,0.015
3905,-0.005,0.010
3906,-0.005,0.005
3907,0.000,0.005
3908,0.000,0.010
3909,0.005,0.010
3910,0.020,0.015
3911,0.045,0.020
3912,0.060,0.020
3913,0.075,0.010
3914,0.090,-0.005
3915,0.100,-0.025
3916,0.100,-0.045
3917,0.095,-0.040
3918,0.060,-0.025
3919,0.025,0.000
3920,0.000,0.000
3921,-0.030,0.000
3922,-0.025,0.000
3923,-0.020,0.000
3924,-0.015,0.000
3925,-0.020,0.000
3926,-0.020,0.000
3927,-0.020,0.000
3928,-0.030,0.045
3929,-0.025,0.110
3930,0.100,-0.240
3931,0.335,-0.865
3932,0.420,-1.235
3933,0.295,-0.995
3934,0.075,-0.500
3935,-0.015,-0.165
3936,-0.045,-0.025
3937,-0.065,0.050
3938,-0.065,0.100
3939,-0.055,0.115
3940,-0.055,0.115
3941,-0.060,0.130
3942,-0.065,0.140
3943,-0.050,0.140
3944,-0.050,0.130
3945,-0.060,0.130
3946,-0.065,0.130
3947,-0.060,0.130
3948,-0.050,0.125
3949,-0.050,0.115
3950,-0.050,0.115
3951,-0.060,0.115
3952,-0.075,0.115
3953,-0.070,0.115
3954,-0.070,0.110
3955,-0.075,0.105
3956,-0.070,0.095
3957,-0.070,0.095
3958,-0.080,0.090
3959,-0.075,0.070
3960,-0.070,0.070
3961,-0.075,0.065
3962,-0.065,0.045
3963,-0.060,0.045
3964,-0.055,0.045
3965,-0.050,0.045
3966,-0.045,0.040
3967,-0.035,0.035
3968,-0.020,0.030
3969,-0.005,0.020
3970,0.000,0.020
3971,0.000,0.020
3972,0.005,0.000
3973,0.005,0.000
3974,0.005,0.000
3975,0.010,0.005
3976,0.015,0.000
3977,0.015,0.010
3978,0.020,0.005
3979,0.015,0.015
3980,0.010,0.015
3981,0.000,0.015
3982,0.000,0.020
3983,0.005,0.020
3984,0.005,0.020
3985,0.005,0.020
3986,0.005,0.020
3987,0.005,0.020
3988,0.005,0.020
3989,0.005,0.020
3990,0.010,0.015
3991,0.015,0.010
3992,0.025,0.015
3993,0.040,0.015
3994,0.060,0.020
3995,0.075,0.015
3996,0.090,0.000
3997,0.100,-0.010
3998,0.115,-0.035
3999,0.115,-0.045
4000,0.105,-0.035
4001,0.065,-0.010
4002,0.025,0.000
4003,0.000,0.000
4004,0.000,0.000
4005,-0.005,0.000
4006,-0.005,0.000
4007,-0.005,0.000
4008,-0.005,0.000
4009,-0.005,0.000
4010,-0.015,0.015
4011,-0.035,0.125
4012,0.025,-0.035
4013,0.250,-0.605
4014,0.425,-1.120
4015,0.430,-1.175
4016,0.215,-0.695
4017,0.050,-0.275
4018,-0.005,-0.060
4019,-0.015,0.010
4020,-0.025,0.070
4021,-0.030,0.100
4022,-0.030,0.110
4023,-0.030,0.115
4024,-0.035,0.125
4025,-0.040,0.130
4026,-0.040,0.135
4027,-0.030,0.130
4028,-0.035,0.135
4029,-0.040,0.125
4030,-0.040,0.115
4031,-0.045,0.125
4032,-0.045,0.120
4033,-0.045,0.115
4034,-0.055,0.115
4035,-0.055,0.115
4036,-0.055,0.115
4037,-0.055,0.115
4038,-0.060,0.105
4039,-0.060,0.095
4040,-0.065,0.085
4041,-0.060,0.070
4042,-0.055,0.070
4043,-0.055,0.065
4044,-0.050,0.060
4045,-0.045,0.045
4046,-0.035,0.045
4047,-0.035,0.045
4048,-0.030,0.040
4049,-0.020,0.030
4050,-0.005,0.020
4051,0.000,0.015
4052,0.000,0.000
4053,0.000,0.000
4054,0.010,0.000
4055,0.015,0.000
4056,0.015,0.000
4057,0.020,0.000
4058,0.020,0.000
4059,0.025,0.000
4060,0.020,0.000
4061,0.015,0.000
4062,0.010,0.000
4063,0.010,0.005
4064,0.010,0.015
4065,0.000,0.020
4066,0.005,0.020
4067,0.005,0.015
4068,0.000,0.015
4069,0.000,0.010
4070,0.005,0.000
4071,0.010,0.000
4072,0.015,0.000
4073,0.015,0.000
4074,0.020,0.000
4075,0.030,0.010
4076,0.045,0.020
4077,0.070,0.010
4078,0.090,0.000
4079,0.100,-0.020
4080,0.100,-0.040
4081,0.110,-0.050
4082,0.100,-0.045
4083,0.070,-0.020
4084,0.030,0.000
4085,0.000,0.000
4086,-0.015,0.000
4087,-0.020,0.000
4088,-0.020,0.000
4089,-0.015,0.000
4090,-0.010,0.000
4091,-0.010,0.000
4092,-0.020,0.005
4093,-0.050,0.090
4094,-0.010,0.005
4095,0.180,-0.510
4096,0.395,-1.090
4097,0.430,-1.260
4098,0.250,-0.815
4099,0.060,-0.340
4100,-0.005,-0.090
4101,-0.025,0.000
4102,-0.040,0.060
4103,-0.045,0.095
4104,-0.040,0.110
4105,-0.040,0.115
4106,-0.045,0.115
4107,-0.040,0.115
4108,-0.040,0.115
4109,-0.040,0.115
4110,-0.040,0.125
4111,-0.030,0.125
4112,-0.035,0.115
4113,-0.040,0.115
4114,-0.040,0.115
4115,-0.040,0.115
4116,-0.040,0.115
4117,-0.045,0.115
4118,-0.050,0.115
4119,-0.060,0.115
4120,-0.065,0.110
4121,-0.070,0.100
4122,-0.065,0.090
4123,-0.065,0.080
4124,-0.065,0.070
4125,-0.065,0.070
4126,-0.065,0.065
4127,-0.055,0.060
4128,-0.045,0.050
4129,-0.040,0.045
4130,-0.035,0.045
4131,-0.020,0.040
4132,-0.010,0.020
4133,-0.005,0.015
4134,-0.005,0.010
4135,0.000,0.000
4136,0.000,0.000
4137,0.005,0.000
4138,0.005,0.000
4139,0.005,0.000
4140,0.005,0.000
4141,0.010,0.000
4142,0.015,0.000
4143,0.010,0.000
4144,0.000,0.015
4145,0.000,0.020
4146,0.000,0.020
4147,0.005,0.020
4148,0.005,0.020
4149,0.005,0.020
4150,0.000,0.020
4151,0.000,0.020
4152,0.000,0.020
4153,0.000,0.020
4154,0.005,0.020
4155,0.010,0.020
4156,0.010,0.015
4157,0.020,0.015
4158,0.035,0.020
4159,0.050,0.020
4160,0.065,0.015
4161,0.075,0.000
4162,0.090,-0.020
4163,0.100,-0.035
4164,0.100,-0.045
4165,0.085,-0.030
4166,0.045,-0.005
4167,0.005,0.000
4168,-0.010,0.000
4169,-0.020,0.000
4170,-0.025,0.000
4171,-0.025,0.000
4172,-0.020,0.000
4173,-0.015,0.000
4174,-0.025,0.000
4175,-0.035,0.025
4176,-0.050,0.090
4177,0.025,-0.120
4178,0.235,-0.695
4179,0.395,-1.190
4180,0.390,-1.180
4181,0.165,-0.635
4182,0.015,-0.235
4183,-0.030,-0.040
4184,-0.035,0.025
4185,-0.045,0.085
4186,-0.045,0.110
4187,-0.045,0.115
4188,-0.045,0.135
4189,-0.050,0.140
4190,-0.045,0.140
4191,-0.055,0.140
4192,-0.060,0.140
4193,-0.060,0.140
4194,-0.060,0.140
4195,-0.060,0.140
4196,-0.065,0.140
4197,-0.060,0.140
4198,-0.060,0.140
4199,-0.070,0.140
4200,-0.075,0.130
4201,-0.070,0.120
4202,-0.070,0.115
4203,-0.070,0.115
4204,-0.075,0.110
4205,-0.080,0.100
4206,-0.075,0.085
4207,-0.070,0.075
4208,-0.070,0.070
4209,-0.065,0.070
4210,-0.055,0.070
4211,-0.050,0.060
4212,-0.050,0.045
4213,-0.045,0.045
4214,-0.035,0.040
4215,-0.030,0.035
4216,-0.020,0.020
4217,-0.010,0.020
4218,-0.010,0.015
4219,-0.010,0.000
4220,0.000,0.000
4221,0.000,0.000
4222,0.000,0.000
4223,0.000,0.000
4224,0.000,0.000
4225,0.000,0.010
4226,0.000,0.015
4227,-0.005,0.020
4228,-0.005,0.020
4229,-0.005,0.020
4230,-0.005,0.020
4231,-0.005,0.020
4232,-0.005,0.020
4233,-0.005,0.020
4234,-0.005,0.020
4235,-0.005,0.020
4236,-0.005,0.020
4237,0.000,0.015
4238,0.000,0.015
4239,0.000,0.010
4240,0.010,0.015
4241,0.035,0.020
4242,0.050,0.020
4243,0.070,0.010
4244,0.085,-0.005
4245,0.095,-0.030
4246,0.100,-0.045
4247,0.095,-0.045
4248,0.070,-0.030
4249,0.035,-0.005
4250,0.000,0.000
4251,-0.015,0.000
4252,-0.025,0.000
4253,-0.025,0.000
4254,-0.025,0.000
4255,-0.030,0.000
4256,-0.025,0.000
4257,-0.025,0.000
4258,-0.040,0.035
4259,-0.040,0.090
4260,0.060,-0.200
4261,0.275,-0.800
4262,0.395,-1.230
4263,0.345,-1.110
4264,0.110,-0.555
4265,0.000,-0.190
4266,-0.030,-0.020
4267,-0.035,0.030
4268,-0.050,0.095
4269,-0.055,0.110
4270,-0.050,0.115
4271,-0.045,0.130
4272,-0.045,0.135
4273,-0.050,0.140
4274,-0.050,0.140
4275,-0.050,0.140
4276,-0.050,0.140
4277,-0.055,0.140
4278,-0.055,0.140
4279,-0.055,0.140
4280,-0.060,0.140
4281,-0.060,0.120
4282,-0.060,0.115
4283,-0.060,0.115
4284,-0.065,0.115
4285,-0.070,0.115
4286,-0.070,0.115
4287,-0.075,0.100
4288,-0.075,0.095
4289,-0.070,0.085
4290,-0.065,0.070
4291,-0.060,0.070
4292,-0.060,0.065
4293,-0.055,0.055
4294,-0.045,0.045
4295,-0.035,0.045
4296,-0.030,0.045
4297,-0.025,0.040
4298,-0.020,0.025
4299,-0.010,0.020
4300,-0.005,0.020
4301,0.000,0.015
4302,0.000,0.005
4303,0.010,0.000
4304,0.010,0.000
4305,0.015,0.000
4306,0.025,0.000
4307,0.020,0.000
4308,0.015,0.000
4309,0.015,0.010
4310,0.015,0.015
4311,0.015,0.020
4312,0.005,0.020
4313,0.000,0.020
4314,0.000,0.020
4315,0.015,0.020
4316,0.010,0.020
4317,0.000,0.020
4318,0.000,0.020
4319,0.005,0.010
4320,0.010,0.000
4321,0.015,0.000
4322,0.015,0.005
4323,0.030,0.015
4324,0.050,0.020
4325,0.070,0.025
4326,0.080,0.015
4327,0.095,0.000
4328,0.105,-0.010
4329,0.115,-0.020
4330,0.110,-0.020
4331,0.085,-0.010
4332,0.045,0.000
4333,0.015,0.005
4334,-0.005,0.015
4335,-0.015,0.020
4336,-0.010,0.015
4337,-0.005,0.010
4338,-0.005,0.010
4339,-0.010,0.015
4340,-0.025,0.020
4341,-0.030,0.060
4342,-0.025,0.110
4343,0.070,-0.160
4344,0.280,-0.765
4345,0.405,-1.205
4346,0.345,-1.105
4347,0.120,-0.570
4348,0.005,-0.190
4349,-0.030,-0.010
4350,-0.045,0.060
4351,-0.045,0.110
4352,-0.045,0.140
4353,-0.045,0.140
4354,-0.040,0.140
4355,-0.040,0.140
4356,-0.040,0.140
4357,-0.050,0.140
4358,-0.045,0.140
4359,-0.040,0.140
4360,-0.040,0.140
4361,-0.055,0.140
4362,-0.050,0.140
4363,-0.050,0.140
4364,-0.055,0.140
4365,-0.060,0.140
4366,-0.060,0.140
4367,-0.065,0.140
4368,-0.070,0.125
4369,-0.070,0.115
4370,-0.075,0.115
4371,-0.080,0.115
4372,-0.075,0.105
4373,-0.070,0.085
4374,-0.065,0.070
4375,-0.050,0.070
4376,-0.040,0.070
4377,-0.050,0.070
4378,-0.045,0.065
4379,-0.030,0.050
4380,-0.025,0.045
4381,-0.020,0.045
4382,-0.015,0.040
4383,-0.010,0.030
4384,0.000,0.020
4385,0.000,0.020
4386,0.000,0.020
4387,0.000,0.020
4388,0.000,0.020
4389,0.020,0.020
4390,0.020,0.020
4391,0.005,0.030
4392,0.005,0.020
4393,0.015,0.020
4394,0.005,0.045
4395,0.000,0.045
4396,0.000,0.045
4397,0.000,0.045
4398,0.000,0.045
4399,0.000,0.040
4400,0.000,0.040
4401,0.000,0.020
4402,0.005,0.020
4403,0.000,0.020
4404,0.000,0.020
4405,0.005,0.020
4406,0.020,0.020
4407,0.035,0.030
4408,0.050,0.020
4409,0.065,0.010
4410,0.080,0.000
4411,0.095,-0.020
4412,0.105,-0.040
4413,0.100,-0.035
4414,0.080,-0.020
4415,0.040,-0.005
4416,0.010,0.000
4417,-0.010,0.000
4418,-0.020,0.000
4419,-0.020,0.000
4420,-0.025,0.005
4421,-0.020,0.000
4422,-0.010,0.000
4423,-0.015,0.005
4424,-0.040,0.050
4425,-0.030,0.100
4426,0.075,-0.125
4427,0.290,-0.695
4428,0.415,-1.150
4429,0.350,-1.105
4430,0.135,-0.600
4431,0.000,-0.205
4432,-0.035,-0.020
4433,-0.045,0.050
4434,-0.045,0.100
4435,-0.045,0.115
4436,-0.045,0.140
4437,-0.055,0.140
4438,-0.060,0.140
4439,-0.050,0.140
4440,-0.050,0.140
4441,-0.055,0.140
4442,-0.055,0.140
4443,-0.055,0.140
4444,-0.060,0.140
4445,-0.060,0.140
4446,-0.050,0.140
4447,-0.050,0.140
4448,-0.070,0.140
4449,-0.075,0.130
4450,-0.065,0.115
4451,-0.075,0.125
4452,-0.080,0.120
4453,-0.085,0.115
4454,-0.075,0.100
4455,-0.075,0.095
4456,-0.075,0.080
4457,-0.070,0.070
4458,-0.070,0.070
4459,-0.070,0.070
4460,-0.065,0.070
4461,-0.060,0.070
4462,-0.050,0.055
4463,-0.040,0.045
4464,-0.025,0.040
4465,-0.015,0.025
4466,-0.005,0.020
4467,0.000,0.020
4468,0.000,0.015
4469,0.000,0.005
4470,0.010,0.005
4471,0.005,0.010
4472,0.005,0.010
4473,0.005,0.010
4474,0.005,0.015
4475,0.005,0.020
4476,0.000,0.020
4477,-0.005,0.020
4478,0.000,0.020
4479,0.005,0.020
4480,0.005,0.020
4481,0.000,0.020
4482,0.000,0.020
4483,0.000,0.020
4484,0.000,0.020
4485,0.000,0.020
4486,0.005,0.020
4487,0.010,0.020
4488,0.015,0.020
4489,0.020,0.020
4490,0.040,0.020
4491,0.060,0.020
4492,0.075,0.010
4493,0.095,-0.005
4494,0.105,-0.025
4495,0.110,-0.040
4496,0.100,-0.035
4497,0.075,-0.015
4498,0.040,0.000
4499,0.010,0.000
4500,-0.005,0.000
4501,-0.015,0.000
4502,-0.015,0.000
4503,-0.015,0.000
4504,-0.015,0.000
4505,-0.015,0.000
4506,-0.015,0.005
4507,-0.025,0.055
4508,-0.015,0.055
4509,0.120,-0.270
4510,0.335,-0.825
4511,0.440,-1.150
4512,0.350,-0.980
4513,0.115,-0.470
4514,0.000,-0.145
4515,-0.025,0.000
4516,-0.035,0.055
4517,-0.055,0.110
4518,-0.045,0.120
4519,-0.035,0.135
4520,-0.030,0.140
4521,-0.030,0.140
4522,-0.040,0.140
4523,-0.040,0.140
4524,-0.045,0.140
4525,-0.040,0.140
4526,-0.040,0.140
4527,-0.045,0.140
4528,-0.045,0.140
4529,-0.045,0.140
4530,-0.045,0.140
4531,-0.050,0.135
4532,-0.055,0.135
4533,-0.050,0.120
4534,-0.055,0.120
4535,-0.060,0.115
4536,-0.060,0.115
4537,-0.060,0.110
4538,-0.060,0.085
4539,-0.060,0.070
4540,-0.060,0.070
4541,-0.050,0.060
4542,-0.035,0.050
4543,-0.030,0.045
4544,-0.025,0.045
4545,-0.020,0.040
4546,-0.010,0.025
4547,-0.005,0.020
4548,0.000,0.020
4549,0.000,0.010
4550,0.010,0.000
4551,0.015,0.000
4552,0.010,0.000
4553,0.010,0.000
4554,0.015,0.000
4555,0.025,0.000
4556,0.020,0.000
4557,0.015,0.000
4558,0.010,0.005
4559,0.015,0.000
4560,0.015,0.010
4561,0.010,0.020
4562,0.005,0.020
4563,0.000,0.020
4564,0.000,0.020
4565,0.000,0.020
4566,0.000,0.020
4567,0.000,0.020
4568,0.000,0.015
4569,0.005,0.015
4570,0.000,0.010
4571,0.005,0.010
4572,0.035,0.015
4573,0.055,0.020
4574,0.060,0.015
4575,0.080,0.000
4576,0.085,-0.015
4577,0.095,-0.035
4578,0.100,-0.045
4579,0.085,-0.030
4580,0.050,-0.010
4581,0.010,0.000
4582,-0.005,0.000
4583,-0.020,0.000
4584,-0.025,0.000
4585,-0.020,0.000
4586,-0.020,0.000
4587,-0.020,0.000
4588,-0.020,0.000
4589,-0.035,0.025
4590,-0.045,0.075
4591,0.015,-0.075
4592,0.200,-0.570
4593,0.380,-1.050
4594,0.395,-1.130
4595,0.225,-0.740
4596,0.030,-0.290
4597,-0.030,-0.070
4598,-0.035,0.015
4599,-0.045,0.070
4600,-0.045,0.110
4601,-0.045,0.120
4602,-0.045,0.140
4603,-0.055,0.140
4604,-0.060,0.140
4605,-0.065,0.140
4606,-0.060,0.140
4607,-0.055,0.140
4608,-0.055,0.140
4609,-0.055,0.140
4610,-0.060,0.140
4611,-0.060,0.140
4612,-0.060,0.140
4613,-0.060,0.140
4614,-0.065,0.140
4615,-0.070,0.140
4616,-0.080,0.135
4617,-0.090,0.120
4618,-0.085,0.115
4619,-0.085,0.110
4620,-0.085,0.095
4621,-0.085,0.080
4622,-0.075,0.070
4623,-0.065,0.070
4624,-0.060,0.070
4625,-0.060,0.055
4626,-0.055,0.045
4627,-0.045,0.045
4628,-0.040,0.035
4629,-0.030,0.025
4630,-0.020,0.020
4631,-0.010,0.020
4632,0.000,0.010
4633,0.000,0.000
4634,-0.005,0.000
4635,-0.005,0.000
4636,0.000,0.000
4637,0.005,0.000
4638,0.000,0.000
4639,0.000,0.005
4640,0.000,0.020
4641,-0.005,0.020
4642,-0.005,0.020
4643,-0.005,0.020
4644,-0.005,0.020
4645,-0.015,0.020
4646,-0.010,0.020
4647,-0.005,0.020
4648,-0.005,0.020
4649,-0.005,0.020
4650,-0.005,0.020
4651,-0.005,0.020
4652,-0.005,0.010
4653,-0.005,0.005
4654,0.005,0.000
4655,0.015,0.015
4656,0.025,0.020
4657,0.050,0.015
4658,0.075,0.000
4659,0.085,-0.020
4660,0.090,-0.040
4661,0.095,-0.045
4662,0.085,-0.035
4663,0.050,-0.010
4664,0.010,0.000
4665,-0.015,0.000
4666,-0.035,0.000
4667,-0.035,0.000
4668,-0.035,0.000
4669,-0.040,0.000
4670,-0.030,0.000
4671,-0.030,0.000
4672,-0.035,0.030
4673,-0.045,0.085
4674,0.005,-0.070
4675,0.180,-0.565
4676,0.360,-1.055
4677,0.380,-1.140
4678,0.220,-0.755
4679,0.030,-0.295
4680,-0.030,-0.065
4681,-0.050,0.025
4682,-0.060,0.080
4683,-0.055,0.115
4684,-0.050,0.135
4685,-0.050,0.140
4686,-0.055,0.140
4687,-0.065,0.140
4688,-0.065,0.140
4689,-0.055,0.140
4690,-0.055,0.140
4691,-0.060,0.140
4692,-0.065,0.140
4693,-0.065,0.140
4694,-0.065,0.140
4695,-0.065,0.140
4696,-0.065,0.140
4697,-0.065,0.140
4698,-0.070,0.115
4699,-0.075,0.115
4700,-0.080,0.115
4701,-0.085,0.115
4702,-0.080,0.100
4703,-0.080,0.085
4704,-0.080,0.070
4705,-0.080,0.070
4706,-0.070,0.070
4707,-0.070,0.065
4708,-0.060,0.050
4709,-0.055,0.045
4710,-0.050,0.040
4711,-0.035,0.035
4712,-0.025,0.025
4713,-0.015,0.020
4714,-0.015,0.010
4715,-0.010,0.000
4716,-0.005,0.000
4717,0.000,0.000
4718,0.000,0.000
4719,0.000,0.000
4720,0.000,0.000
4721,0.005,0.000
4722,0.010,0.000
4723,0.005,0.000
4724,0.000,0.005
4725,0.000,0.005
4726,0.000,0.020
4727,-0.005,0.020
4728,-0.005,0.015
4729,-0.005,0.015
4730,-0.005,0.020
4731,-0.005,0.015
4732,0.000,0.010
4733,0.000,0.005
4734,0.000,0.000
4735,0.000,0.000
4736,0.000,0.000
4737,0.005,0.000
4738,0.025,0.000
4739,0.045,0.015
4740,0.055,0.020
4741,0.075,0.000
4742,0.085,-0.020
4743,0.095,-0.040
4744,0.100,-0.045
4745,0.085,-0.035
4746,0.055,-0.015
4747,0.020,0.000
4748,-0.005,0.000
4749,-0.020,0.000
4750,-0.025,0.000
4751,-0.025,0.000
4752,-0.030,0.000
4753,-0.020,0.000
4754,-0.020,0.000
4755,-0.025,0.010
4756,-0.045,0.070
4757,0.010,-0.060
4758,0.195,-0.545
4759,0.375,-1.060
4760,0.400,-1.180
4761,0.245,-0.815
4762,0.060,-0.345
4763,-0.005,-0.090
4764,-0.030,0.005
4765,-0.040,0.055
4766,-0.040,0.090
4767,-0.040,0.115
4768,-0.040,0.115
4769,-0.050,0.130
4770,-0.055,0.140
4771,-0.050,0.140
4772,-0.050,0.135
4773,-0.060,0.135
4774,-0.055,0.140
4775,-0.045,0.135
4776,-0.030,0.135
4777,-0.040,0.140
4778,-0.055,0.140
4779,-0.055,0.140
4780,-0.055,0.135
4781,-0.065,0.115
4782,-0.070,0.115
4783,-0.075,0.115
4784,-0.075,0.105
4785,-0.075,0.095
4786,-0.075,0.080
4787,-0.075,0.070
4788,-0.070,0.070
4789,-0.060,0.050
4790,-0.060,0.045
4791,-0.055,0.045
4792,-0.050,0.045
4793,-0.040,0.035
4794,-0.030,0.025
4795,-0.025,0.020
4796,-0.015,0.020
4797,-0.005,0.010
4798,0.000,0.000
4799,0.000,0.000
4800,0.000,0.000
4801,0.000,0.000
4802,-0.005,0.000
4803,0.000,0.000
4804,0.010,0.000
4805,0.010,0.000
4806,0.010,0.000
4807,0.010,0.010
4808,0.005,0.015
4809,0.000,0.015
4810,0.000,0.010
4811,0.005,0.020
4812,0.000,0.015
4813,0.000,0.010
4814,0.000,0.010
4815,0.000,0.015
4816,0.000,0.005
4817,0.000,0.000
4818,0.000,0.000
4819,0.005,0.000
4820,0.010,0.000
4821,0.035,0.010
4822,0.040,0.015
4823,0.065,0.020
4824,0.085,0.005
4825,0.105,-0.020
4826,0.110,-0.040
4827,0.115,-0.050
4828,0.105,-0.055
4829,0.065,-0.025
4830,0.020,0.000
4831,0.000,0.000
4832,-0.010,0.000
4833,-0.025,0.000
4834,-0.020,0.000
4835,-0.010,0.000
4836,-0.005,0.000
4837,-0.005,0.000
4838,-0.010,0.005
4839,-0.030,0.080
4840,0.010,0.005
4841,0.180,-0.430
4842,0.355,-0.980
4843,0.400,-1.180
4844,0.255,-0.865
4845,0.070,-0.400
4846,-0.005,-0.120
4847,-0.030,0.000
4848,-0.040,0.065
4849,-0.055,0.110
4850,-0.050,0.115
4851,-0.045,0.115
4852,-0.035,0.120
4853,-0.030,0.125
4854,-0.025,0.115
4855,-0.040,0.120
4856,-0.040,0.130
4857,-0.040,0.125
4858,-0.045,0.120
4859,-0.045,0.115
4860,-0.050,0.115
4861,-0.050,0.115
4862,-0.050,0.115
4863,-0.050,0.115
4864,-0.050,0.115
4865,-0.050,0.115
4866,-0.060,0.115
4867,-0.065,0.105
4868,-0.060,0.085
4869,-0.065,0.085
4870,-0.070,0.070
4871,-0.050,0.060
4872,-0.045,0.045
4873,-0.045,0.045
4874,-0.040,0.035
4875,-0.030,0.020
4876,-0.020,0.020
4877,-0.020,0.020
4878,-0.015,0.020
4879,-0.005,0.015
4880,-0.005,0.005
4881,0.005,0.000
4882,0.015,0.000
4883,0.020,0.000
4884,0.015,0.000
4885,0.020,0.000
4886,0.025,0.000
4887,0.025,0.000
4888,0.020,0.000
4889,0.020,0.000
4890,0.020,0.000
4891,0.015,0.005
4892,0.010,0.015
4893,0.010,0.010
4894,0.020,0.005
4895,0.010,0.015
4896,0.005,0.010
4897,0.010,0.000
4898,0.010,0.000
4899,0.015,0.000
4900,0.020,0.000
4901,0.020,0.000
4902,0.020,0.000
4903,0.030,0.000
4904,0.045,0.000
4905,0.065,0.015
4906,0.080,0.000
4907,0.090,0.000
4908,0.105,-0.025
4909,0.125,-0.050
4910,0.120,-0.060
4911,0.100,-0.050
4912,0.070,-0.025
4913,0.040,-0.015
4914,0.005,0.000
4915,0.000,0.000
4916,-0.005,0.000
4917,-0.005,0.000
4918,-0.005,0.000
4919,-0.005,0.000
4920,-0.005,0.000
4921,-0.010,0.005
4922,-0.030,0.080
4923,0.040,-0.040
4924,0.235,-0.510
4925,0.410,-1.020
4926,0.410,-1.125
4927,0.225,-0.760
4928,0.055,-0.330
4929,-0.005,-0.090
4930,-0.020,0.005
4931,-0.025,0.055
4932,-0.025,0.085
4933,-0.030,0.095
4934,-0.030,0.105
4935,-0.030,0.110
4936,-0.030,0.115
4937,-0.025,0.110
4938,-0.025,0.110
4939,-0.035,0.115
4940,-0.035,0.110
4941,-0.040,0.105
4942,-0.040,0.115
4943,-0.045,0.110
4944,-0.045,0.100
4945,-0.045,0.100
4946,-0.045,0.095
4947,-0.050,0.095
4948,-0.050,0.090
4949,-0.050,0.070
4950,-0.050,0.070
4951,-0.055,0.070
4952,-0.065,0.070
4953,-0.060,0.065
4954,-0.050,0.050
4955,-0.040,0.045
4956,-0.040,0.045
4957,-0.040,0.045
4958,-0.030,0.045
4959,-0.020,0.040
4960,-0.010,0.025
4961,-0.005,0.020
4962,0.000,0.010
4963,0.005,0.000
4964,0.010,0.000
4965,0.010,0.000
4966,0.015,0.000
4967,0.015,0.000
4968,0.020,0.000
4969,0.030,0.000
4970,0.030,0.000
4971,0.030,0.000
4972,0.030,0.000
4973,0.025,0.000
4974,0.020,0.000
4975,0.020,0.000
4976,0.030,0.000
4977,0.020,0.010
4978,0.015,0.010
4979,0.020,0.000
4980,0.020,0.000
4981,0.020,0.000
4982,0.025,0.000
4983,0.025,0.000
4984,0.030,0.000
4985,0.030,0.000
4986,0.040,0.000
4987,0.050,0.000
4988,0.075,0.000
4989,0.095,0.000
4990,0.110,-0.015
4991,0.115,-0.045
4992,0.120,-0.045
4993,0.120,-0.045
4994,0.105,-0.035
4995,0.060,-0.005
4996,0.020,0.000
4997,0.000,0.000
4998,0.000,0.000
4999,0.000,0.000
5000,0.000,0.000
5001,0.000,0.000
5002,0.000,0.000
5003,0.000,0.000
5004,-0.015,0.050
5005,-0.005,0.050
5006,0.130,-0.295
5007,0.340,-0.830
5008,0.450,-1.165
5009,0.355,-0.975
5010,0.145,-0.515
5011,0.015,-0.175
5012,-0.010,-0.025
5013,-0.020,0.040
5014,-0.025,0.085
5015,-0.030,0.110
5016,-0.040,0.115
5017,-0.030,0.115
5018,-0.025,0.115
5019,-0.025,0.115
5020,-0.025,0.120
5021,-0.035,0.125
5022,-0.035,0.115
5023,-0.040,0.125
5024,-0.040,0.120
5025,-0.040,0.120
5026,-0.035,0.115
5027,-0.040,0.115
5028,-0.050,0.115
5029,-0.060,0.115
5030,-0.055,0.115
5031,-0.055,0.110
5032,-0.060,0.105
5033,-0.060,0.100
5034,-0.060,0.090
5035,-0.060,0.075
5036,-0.055,0.070
5037,-0.050,0.070
5038,-0.050,0.050
5039,-0.045,0.045
5040,-0.040,0.045
5041,-0.025,0.045
5042,-0.010,0.045
5043,-0.010,0.030
5044,-0.005,0.020
5045,0.000,0.020
5046,0.005,0.010
5047,0.005,0.000
5048,0.005,0.000
5049,0.015,0.000
5050,0.020,0.000
5051,0.015,0.000
5052,0.015,0.000
5053,0.015,0.000
5054,0.015,0.005
5055,0.015,0.010
5056,0.010,0.015
5057,0.005,0.020
5058,0.005,0.020
5059,0.000,0.020
5060,0.000,0.020
5061,0.000,0.020
5062,0.005,0.020
5063,0.005,0.020
5064,0.010,0.020
5065,0.010,0.020
5066,0.010,0.020
5067,0.010,0.015
5068,0.020,0.005
5069,0.035,0.005
5070,0.050,0.020
5071,0.065,0.015
5072,0.075,0.010
5073,0.100,0.000
5074,0.105,-0.020
5075,0.100,-0.045
5076,0.100,-0.040
5077,0.095,-0.025
5078,0.050,0.000
5079,0.015,0.000
5080,0.000,0.000
5081,-0.015,0.000
5082,-0.020,0.000
5083,-0.010,0.000
5084,-0.010,0.000
5085,-0.015,0.000
5086,-0.015,0.000
5087,-0.040,0.050
5088,-0.035,0.080
5089,0.080,-0.255
5090,0.295,-0.810
5091,0.420,-1.185
5092,0.345,-1.020
5093,0.145,-0.550
5094,0.015,-0.195
5095,-0.025,-0.035
5096,-0.040,0.040
5097,-0.040,0.095
5098,-0.045,0.115
5099,-0.040,0.120
5100,-0.040,0.135
5101,-0.040,0.140
5102,-0.050,0.140
5103,-0.050,0.140
5104,-0.045,0.140
5105,-0.040,0.140
5106,-0.050,0.140
5107,-0.050,0.140
5108,-0.050,0.140
5109,-0.055,0.135
5110,-0.055,0.130
5111,-0.060,0.130
5112,-0.060,0.125
5113,-0.065,0.115
5114,-0.065,0.115
5115,-0.065,0.115
5116,-0.065,0.110
5117,-0.070,0.095
5118,-0.070,0.080
5119,-0.065,0.075
5120,-0.065,0.070
5121,-0.050,0.070
5122,-0.050,0.060
5123,-0.040,0.050
5124,-0.040,0.045
5125,-0.025,0.045
5126,-0.020,0.045
5127,-0.020,0.030
5128,-0.005,0.020
5129,-0.005,0.020
5130,0.000,0.020
5131,0.005,0.010
5132,0.010,0.000
5133,0.015,0.000
5134,0.005,0.000
5135,0.000,0.005
5136,0.010,0.000
5137,0.020,0.010
5138,0.015,0.020
5139,0.005,0.020
5140,0.005,0.020
5141,0.005,0.020
5142,0.005,0.020
5143,0.005,0.020
5144,0.005,0.020
5145,0.000,0.020
5146,0.000,0.020
5147,0.000,0.020
5148,0.005,0.020
5149,0.010,0.020
5150,0.010,0.015
5151,0.015,0.015
5152,0.030,0.015
5153,0.040,0.020
5154,0.050,0.020
5155,0.070,0.015
5156,0.085,0.000
5157,0.105,-0.015
5158,0.110,-0.035
5159,0.110,-0.040
5160,0.095,-0.030
5161,0.055,0.000
5162,0.015,0.000
5163,0.000,0.000
5164,-0.005,0.000
5165,-0.010,0.000
5166,-0.020,0.000
5167,-0.020,0.000
5168,-0.015,0.000
5169,-0.015,0.000
5170,-0.025,0.010
5171,-0.050,0.115
5172,0.010,-0.070
5173,0.220,-0.600
5174,0.390,-1.105
5175,0.400,-1.155
5176,0.210,-0.715
5177,0.040,-0.290
5178,-0.015,-0.070
5179,-0.035,0.020
5180,-0.050,0.080
5181,-0.050,0.115
5182,-0.050,0.125
5183,-0.050,0.135
5184,-0.045,0.140
5185,-0.045,0.140
5186,-0.045,0.140
5187,-0.040,0.140
5188,-0.040,0.140
5189,-0.040,0.140
5190,-0.045,0.140
5191,-0.055,0.140
5192,-0.055,0.140
5193,-0.055,0.140
5194,-0.050,0.140
5195,-0.055,0.140
5196,-0.060,0.135
5197,-0.065,0.135
5198,-0.065,0.130
5199,-0.075,0.115
5200,-0.080,0.115
5201,-0.070,0.110
5202,-0.065,0.090
5203,-0.060,0.070
5204,-0.060,0.070
5205,-0.045,0.070
5206,-0.045,0.070
5207,-0.045,0.070
5208,-0.035,0.060
5209,-0.025,0.045
5210,-0.015,0.045
5211,-0.005,0.030
5212,0.000,0.020
5213,0.000,0.020
5214,0.000,0.015
5215,0.010,0.015
5216,0.015,0.015
5217,0.010,0.020
5218,0.010,0.015
5219,0.000,0.015
5220,0.005,0.020
5221,0.010,0.020
5222,0.010,0.020
5223,0.010,0.020
5224,0.000,0.020
5225,0.000,0.020
5226,0.000,0.020
5227,0.000,0.020
5228,0.000,0.020
5229,0.000,0.020
5230,0.000,0.020
5231,0.000,0.015
5232,0.005,0.005
5233,0.010,0.000
5234,0.010,0.000
5235,0.015,0.000
5236,0.030,0.000
5237,0.045,0.005
5238,0.060,0.015
5239,0.080,0.000
5240,0.100,-0.020
5241,0.105,-0.045
5242,0.105,-0.045
5243,0.095,-0.050
5244,0.075,-0.030
5245,0.040,-0.010
5246,0.000,0.000
5247,-0.015,0.000
5248,-0.020,0.000
5249,-0.020,0.000
5250,-0.020,0.000
5251,-0.025,0.000
5252,-0.025,0.000
5253,-0.020,0.000
5254,-0.050,0.090
5255,-0.030,0.055
5256,0.130,-0.385
5257,0.340,-0.980
5258,0.410,-1.240
5259,0.260,-0.915
5260,0.075,-0.435
5261,-0.015,-0.125
5262,-0.045,0.000
5263,-0.055,0.075
5264,-0.050,0.110
5265,-0.045,0.130
5266,-0.040,0.140
5267,-0.040,0.140
5268,-0.045,0.140
5269,-0.045,0.140
5270,-0.045,0.140
5271,-0.050,0.140
5272,-0.050,0.140
5273,-0.050,0.140
5274,-0.060,0.140
5275,-0.060,0.140
5276,-0.055,0.140
5277,-0.055,0.140
5278,-0.060,0.140
5279,-0.065,0.135
5280,-0.065,0.135
5281,-0.080,0.130
5282,-0.080,0.115
5283,-0.075,0.115
5284,-0.080,0.110
5285,-0.080,0.095
5286,-0.075,0.080
5287,-0.070,0.070
5288,-0.065,0.065
5289,-0.055,0.060
5290,-0.050,0.060
5291,-0.050,0.060
5292,-0.035,0.045
5293,-0.025,0.035
5294,-0.025,0.020
5295,-0.025,0.020
5296,-0.010,0.020
5297,0.000,0.005
5298,0.005,0.000
5299,0.000,0.000
5300,0.000,0.000
5301,0.000,0.005
5302,0.005,0.000
5303,0.005,0.005
5304,0.000,0.015
5305,0.000,0.020
5306,0.000,0.020
5307,0.000,0.020
5308,0.000,0.020
5309,0.000,0.020
5310,-0.005,0.025
5311,-0.005,0.020
5312,-0.005,0.020
5313,-0.005,0.020
5314,-0.005,0.020
5315,-0.005,0.015
5316,0.000,0.010
5317,0.000,0.005
5318,0.000,0.005
5319,0.015,0.010
5320,0.030,0.020
5321,0.045,0.020
5322,0.065,0.015
5323,0.080,0.000
5324,0.100,-0.020
5325,0.105,-0.045
5326,0.100,-0.045
5327,0.085,-0.040
5328,0.045,-0.010
5329,0.000,0.000
5330,-0.025,0.000
5331,-0.025,0.000
5332,-0.025,0.000
5333,-0.030,0.000
5334,-0.035,0.000
5335,-0.035,0.000
5336,-0.030,0.000
5337,-0.030,0.010
5338,-0.045,0.130
5339,0.045,-0.080
5340,0.275,-0.665
5341,0.405,-1.160
5342,0.360,-1.130
5343,0.150,-0.655
5344,0.010,-0.245
5345,-0.040,-0.040
5346,-0.050,0.040
5347,-0.055,0.095
5348,-0.050,0.115
5349,-0.040,0.115
5350,-0.040,0.130
5351,-0.050,0.140
5352,-0.060,0.140
5353,-0.050,0.140
5354,-0.050,0.140
5355,-0.050,0.140
5356,-0.055,0.140
5357,-0.055,0.140
5358,-0.060,0.140
5359,-0.060,0.140
5360,-0.060,0.135
5361,-0.060,0.135
5362,-0.060,0.135
5363,-0.070,0.125
5364,-0.070,0.115
5365,-0.065,0.115
5366,-0.065,0.110
5367,-0.080,0.110
5368,-0.080,0.100
5369,-0.070,0.075
5370,-0.065,0.065
5371,-0.060,0.045
5372,-0.060,0.045
5373,-0.065,0.045
5374,-0.050,0.040
5375,-0.035,0.035
5376,-0.025,0.020
5377,-0.025,0.020
5378,-0.010,0.020
5379,-0.005,0.000
5380,0.000,0.000
5381,0.000,0.000
5382,0.000,0.000
5383,0.000,0.000
5384,0.000,0.000
5385,0.005,0.000
5386,0.005,0.000
5387,0.005,0.000
5388,0.005,0.000
5389,0.005,0.010
5390,0.005,0.015
5391,0.000,0.015
5392,0.000,0.015
5393,0.000,0.020
5394,0.000,0.020
5395,0.000,0.020
5396,0.000,0.020
5397,0.000,0.020
5398,0.000,0.010
5399,0.000,0.000
5400,0.005,0.000
5401,0.010,0.000
5402,0.020,0.005
5403,0.035,0.015
5404,0.050,0.020
5405,0.070,0.015
5406,0.095,0.000
5407,0.110,-0.020
5408,0.120,-0.035
5409,0.115,-0.050
5410,0.095,-0.040
5411,0.060,-0.020
5412,0.020,0.000
5413,0.000,0.000
5414,-0.010,0.000
5415,-0.010,0.000
5416,-0.015,0.000
5417,-0.015,0.000
5418,-0.005,0.000
5419,-0.005,0.000
5420,-0.010,0.000
5421,-0.030,0.105
5422,0.020,0.005
5423,0.235,-0.540
5424,0.415,-1.090
5425,0.430,-1.210
5426,0.225,-0.760
5427,0.050,-0.315
5428,-0.015,-0.075
5429,-0.025,0.015
5430,-0.040,0.080
5431,-0.035,0.110
5432,-0.035,0.125
5433,-0.040,0.135
5434,-0.045,0.140
5435,-0.045,0.140
5436,-0.045,0.140
5437,-0.040,0.135
5438,-0.040,0.130
5439,-0.040,0.130
5440,-0.035,0.120
5441,-0.040,0.110
5442,-0.045,0.120
5443,-0.040,0.115
5444,-0.040,0.115
5445,-0.040,0.115
5446,-0.040,0.115
5447,-0.050,0.115
5448,-0.050,0.115
5449,-0.055,0.110
5450,-0.055,0.100
5451,-0.055,0.095
5452,-0.055,0.085
5453,-0.045,0.070
5454,-0.040,0.070
5455,-0.040,0.065
5456,-0.040,0.045
5457,-0.030,0.045
5458,-0.015,0.040
5459,-0.010,0.030
5460,0.000,0.015
5461,0.000,0.015
5462,0.000,0.015
5463,0.005,0.000
5464,0.015,0.000
5465,0.020,0.000
5466,0.025,0.000
5467,0.020,0.000
5468,0.020,0.000
5469,0.025,0.000
5470,0.020,0.000
5471,0.020,0.000
5472,0.020,0.000
5473,0.020,0.000
5474,0.025,0.000
5475,0.020,0.005
5476,0.020,0.015
5477,0.010,0.020
5478,0.010,0.015
5479,0.015,0.005
5480,0.015,0.000
5481,0.015,0.000
5482,0.010,0.000
5483,0.010,0.000
5484,0.015,0.000
5485,0.030,0.000
5486,0.045,0.000
5487,0.065,0.005
5488,0.080,0.005
5489,0.100,-0.010
5490,0.110,-0.030
5491,0.120,-0.045
5492,0.125,-0.055
5493,0.100,-0.045
5494,0.065,-0.020
5495,0.030,0.000
5496,0.005,0.000
5497,-0.010,0.000
5498,-0.010,0.000
5499,-0.005,0.000
5500,-0.005,0.000
5501,-0.005,0.000
5502,-0.005,0.000
5503,-0.015,0.005
5504,-0.045,0.110
5505,0.020,-0.080
5506,0.245,-0.655
5507,0.420,-1.160
5508,0.430,-1.170
5509,0.205,-0.670
5510,0.050,-0.265
5511,-0.005,-0.055
5512,-0.020,0.015
5513,-0.035,0.080
5514,-0.030,0.110
5515,-0.030,0.115
5516,-0.035,0.130
5517,-0.040,0.140
5518,-0.045,0.140
5519,-0.050,0.140
5520,-0.045,0.140
5521,-0.040,0.140
5522,-0.040,0.140
5523,-0.040,0.140
5524,-0.045,0.140
5525,-0.040,0.135
5526,-0.040,0.135
5527,-0.040,0.130
5528,-0.040,0.115
5529,-0.050,0.115
5530,-0.060,0.115
5531,-0.055,0.115
5532,-0.055,0.105
5533,-0.060,0.095
5534,-0.060,0.090
5535,-0.065,0.075
5536,-0.055,0.070
5537,-0.045,0.070
5538,-0.050,0.065
5539,-0.045,0.055
5540,-0.025,0.045
5541,-0.030,0.040
5542,-0.020,0.035
5543,-0.010,0.020
5544,-0.005,0.020
5545,0.000,0.015
5546,0.005,0.000
5547,0.005,0.000
5548,0.005,0.000
5549,0.010,0.000
5550,0.015,0.000
5551,0.010,0.000
5552,0.010,0.000
5553,0.015,0.000
5554,0.020,0.000
5555,0.015,0.000
5556,0.005,0.015
5557,0.005,0.020
5558,0.005,0.020
5559,0.005,0.020
5560,0.005,0.020
5561,0.005,0.020
5562,0.010,0.015
5563,0.005,0.005
5564,0.005,0.000
5565,0.010,0.000
5566,0.010,0.000
5567,0.010,0.000
5568,0.015,0.000
5569,0.030,0.000
5570,0.050,0.000
5571,0.065,0.010
5572,0.080,0.005
5573,0.100,-0.010
5574,0.110,-0.035
5575,0.110,-0.045
5576,0.105,-0.045
5577,0.080,-0.035
5578,0.045,-0.010
5579,0.010,0.000
5580,-0.010,0.000
5581,-0.020,0.000
5582,-0.010,0.000
5583,-0.010,0.000
5584,-0.020,0.000
5585,-0.020,0.000
5586,-0.020,0.000
5587,-0.030,0.035
5588,-0.045,0.115
5589,0.075,-0.225
5590,0.310,-0.825
5591,0.435,-1.250
5592,0.365,-1.060
5593,0.125,-0.515
5594,0.005,-0.175
5595,-0.030,-0.015
5596,-0.035,0.040
5597,-0.040,0.095
5598,-0.045,0.125
5599,-0.065,0.135
5600,-0.055,0.140
5601,-0.035,0.140
5602,-0.035,0.140
5603,-0.035,0.140
5604,-0.035,0.140
5605,-0.035,0.140
5606,-0.045,0.140
5607,-0.050,0.140
5608,-0.055,0.140
5609,-0.055,0.140
5610,-0.055,0.135
5611,-0.055,0.135
5612,-0.055,0.135
5613,-0.065,0.120
5614,-0.070,0.115
5615,-0.070,0.115
5616,-0.065,0.110
5617,-0.060,0.100
5618,-0.060,0.085
5619,-0.060,0.070
5620,-0.055,0.070
5621,-0.050,0.060
5622,-0.045,0.045
5623,-0.035,0.045
5624,-0.035,0.045
5625,-0.030,0.045
5626,-0.020,0.040
5627,-0.015,0.030
5628,0.000,0.020
5629,0.000,0.020
5630,0.010,0.015
5631,0.015,0.000
5632,0.020,0.000
5633,0.015,0.000
5634,0.015,0.000
5635,0.020,0.000
5636,0.015,0.000
5637,0.010,0.010
5638,0.010,0.005
5639,0.015,0.005
5640,0.015,0.010
5641,0.010,0.015
5642,0.005,0.020
5643,0.005,0.020
5644,0.010,0.020
5645,0.015,0.015
5646,0.005,0.015
5647,0.005,0.020
5648,0.005,0.010
5649,0.010,0.000
5650,0.015,0.000
5651,0.015,0.000
5652,0.025,0.000
5653,0.040,0.000
5654,0.050,0.000
5655,0.070,0.010
5656,0.090,0.000
5657,0.105,-0.015
5658,0.110,-0.035
5659,0.115,-0.045
5660,0.110,-0.040
5661,0.085,-0.025
5662,0.040,-0.010
5663,0.010,0.000
5664,-0.005,0.000
5665,-0.010,0.000
5666,-0.010,0.000
5667,-0.015,0.000
5668,-0.010,0.000
5669,-0.010,0.000
5670,-0.010,0.005
5671,-0.035,0.050
5672,-0.025,0.070
5673,0.130,-0.370
5674,0.360,-0.985
5675,0.440,-1.285
5676,0.310,-0.935
5677,0.080,-0.405
5678,0.000,-0.115
5679,-0.020,-0.005
5680,-0.030,0.050
5681,-0.035,0.100
5682,-0.030,0.110
5683,-0.040,0.125
5684,-0.050,0.135
5685,-0.050,0.140
5686,-0.050,0.140
5687,-0.050,0.140
5688,-0.050,0.140
5689,-0.045,0.140
5690,-0.045,0.135
5691,-0.045,0.130
5692,-0.045,0.120
5693,-0.050,0.115
5694,-0.055,0.120
5695,-0.060,0.125
5696,-0.060,0.125
5697,-0.070,0.115
5698,-0.080,0.115
5699,-0.080,0.115
5700,-0.080,0.110
5701,-0.080,0.105
5702,-0.080,0.090
5703,-0.080,0.075
5704,-0.075,0.070
5705,-0.065,0.070
5706,-0.060,0.060
5707,-0.060,0.050
5708,-0.060,0.045
5709,-0.040,0.045
5710,-0.035,0.045
5711,-0.035,0.040
5712,-0.015,0.025
5713,-0.005,0.020
5714,-0.005,0.020
5715,0.000,0.015
5716,0.000,0.010
5717,0.005,0.005
5718,0.005,0.015
5719,0.005,0.015
5720,0.010,0.015
5721,0.005,0.020
5722,0.000,0.020
5723,0.000,0.020
5724,0.000,0.020
5725,0.000,0.020
5726,-0.005,0.020
5727,-0.005,0.020
5728,-0.005,0.020
5729,-0.005,0.020
5730,-0.005,0.020
5731,-0.005,0.020
5732,0.000,0.020
5733,-0.005,0.010
5734,0.000,0.000
5735,0.000,0.010
5736,0.000,0.020
5737,0.015,0.020
5738,0.035,0.020
5739,0.055,0.020
5740,0.070,0.010
5741,0.085,-0.010
5742,0.100,-0.035
5743,0.100,-0.045
5744,0.080,-0.035
5745,0.050,-0.015
5746,0.015,0.000
5747,-0.010,0.000
5748,-0.025,0.000
5749,-0.025,0.000
5750,-0.035,0.000
5751,-0.025,0.000
5752,-0.025,0.000
5753,-0.030,0.000
5754,-0.040,0.015
5755,-0.045,0.080
5756,-0.005,0.045
5757,0.180,-0.440
5758,0.385,-1.035
5759,0.415,-1.245
5760,0.230,-0.830
5761,0.025,-0.335
5762,-0.015,-0.080
5763,-0.050,0.020
5764,-0.065,0.075
5765,-0.050,0.110
5766,-0.050,0.125
5767,-0.065,0.135
5768,-0.055,0.140
5769,-0.060,0.140
5770,-0.065,0.140
5771,-0.060,0.140
5772,-0.055,0.140
5773,-0.055,0.140
5774,-0.050,0.140
5775,-0.055,0.140
5776,-0.065,0.140
5777,-0.060,0.135
5778,-0.060,0.125
5779,-0.060,0.120
5780,-0.065,0.120
5781,-0.080,0.120
5782,-0.080,0.115
5783,-0.065,0.105
5784,-0.060,0.100
5785,-0.075,0.095
5786,-0.085,0.085
5787,-0.070,0.075
5788,-0.065,0.070
5789,-0.060,0.060
5790,-0.055,0.045
5791,-0.050,0.045
5792,-0.040,0.045
5793,-0.035,0.040
5794,-0.030,0.035
5795,-0.010,0.020
5796,0.000,0.020
5797,0.000,0.020
5798,-0.005,0.020
5799,0.000,0.015
5800,0.000,0.010
5801,0.005,0.010
5802,0.005,0.000
5803,0.005,0.015
5804,0.000,0.015
5805,0.000,0.015
5806,0.000,0.020
5807,0.005,0.020
5808,0.000,0.025
5809,0.000,0.030
5810,0.000,0.030
5811,0.000,0.020
5812,0.000,0.020
5813,0.000,0.020
5814,0.005,0.020
5815,0.000,0.020
5816,0.000,0.020
5817,0.000,0.020
5818,0.010,0.010
5819,0.020,0.010
5820,0.020,0.020
5821,0.025,0.020
5822,0.045,0.020
5823,0.065,0.010
5824,0.090,0.000
5825,0.095,-0.010
5826,0.090,-0.025
5827,0.090,-0.030
5828,0.075,-0.015
5829,0.040,0.000
5830,0.005,0.000
5831,-0.020,0.000
5832,-0.035,0.000
5833,-0.035,0.000
5834,-0.040,0.000
5835,-0.035,0.000
5836,-0.030,0.010
5837,-0.020,0.005
5838,-0.035,0.045
5839,-0.035,0.105
5840,0.065,-0.130
5841,0.300,-0.705
5842,0.430,-1.150
5843,0.365,-1.050
5844,0.110,-0.530
5845,0.000,-0.165
5846,-0.035,-0.005
5847,-0.050,0.060
5848,-0.055,0.110
5849,-0.060,0.135
5850,-0.060,0.140
5851,-0.055,0.140
5852,-0.055,0.140
5853,-0.060,0.140
5854,-0.060,0.140
5855,-0.050,0.140
5856,-0.055,0.140
5857,-0.050,0.140
5858,-0.050,0.140
5859,-0.055,0.140
5860,-0.055,0.140
5861,-0.060,0.140
5862,-0.065,0.140
5863,-0.070,0.135
5864,-0.070,0.120
5865,-0.070,0.115
5866,-0.070,0.115
5867,-0.070,0.110
5868,-0.070,0.100
5869,-0.070,0.085
5870,-0.070,0.075
5871,-0.065,0.070
5872,-0.065,0.065
5873,-0.060,0.065
5874,-0.050,0.060
5875,-0.040,0.045
5876,-0.040,0.045
5877,-0.030,0.040
5878,-0.015,0.025
5879,-0.005,0.020
5880,0.000,0.015
5881,0.000,0.010
5882,0.000,0.000
5883,0.000,0.000
5884,0.000,0.000
5885,0.000,0.000
5886,0.000,0.000
5887,0.005,0.000
5888,0.010,0.000
5889,0.010,0.000
5890,0.010,0.005
5891,0.000,0.010
5892,0.000,0.015
5893,0.000,0.020
5894,0.000,0.020
5895,0.000,0.020
5896,0.000,0.015
5897,0.000,0.005
5898,0.000,0.000
5899,0.000,0.000
5900,0.000,0.000
5901,0.005,0.000
5902,0.005,0.000
5903,0.015,0.000
5904,0.035,0.000
5905,0.050,0.000
5906,0.070,0.000
5907,0.090,-0.010
5908,0.100,-0.035
5909,0.105,-0.045
5910,0.105,-0.045
5911,0.090,-0.035
5912,0.055,-0.010
5913,0.015,0.000
5914,-0.005,0.000
5915,-0.020,0.000
5916,-0.025,0.000
5917,-0.020,0.000
5918,-0.020,0.000
5919,-0.020,0.000
5920,-0.015,0.000
5921,-0.030,0.025
5922,-0.035,0.065
5923,0.060,-0.170
5924,0.275,-0.710
5925,0.440,-1.140
5926,0.410,-1.105
5927,0.190,-0.600
5928,0.030,-0.205
5929,-0.010,-0.025
5930,-0.020,0.030
5931,-0.035,0.090
5932,-0.030,0.110
5933,-0.030,0.115
5934,-0.035,0.115
5935,-0.040,0.130
5936,-0.045,0.135
5937,-0.050,0.140
5938,-0.055,0.140
5939,-0.050,0.140
5940,-0.050,0.140
5941,-0.060,0.140
5942,-0.055,0.140
5943,-0.050,0.125
5944,-0.050,0.115
5945,-0.050,0.115
5946,-0.060,0.115
5947,-0.065,0.115
5948,-0.070,0.115
5949,-0.075,0.105
5950,-0.075,0.095
5951,-0.075,0.095
5952,-0.070,0.080
5953,-0.065,0.070
5954,-0.065,0.065
5955,-0.060,0.055
5956,-0.055,0.045
5957,-0.050,0.045
5958,-0.040,0.040
5959,-0.040,0.040
5960,-0.035,0.040
5961,-0.025,0.025
5962,-0.015,0.015
5963,0.000,0.010
5964,0.000,0.000
5965,0.000,0.000
5966,0.005,0.000
5967,0.005,0.000
5968,0.000,0.000
5969,0.000,0.000
5970,0.000,0.000
5971,0.005,0.000
5972,0.000,0.005
5973,0.000,0.010
5974,0.000,0.015
5975,0.000,0.020
5976,0.000,0.020
5977,-0.005,0.020
5978,-0.005,0.020
5979,-0.005,0.020
5980,0.000,0.020
5981,0.000,0.015
5982,0.000,0.000
5983,0.000,0.005
5984,0.000,0.010
5985,0.005,0.000
5986,0.015,0.000
5987,0.030,0.000
5988,0.045,0.000
5989,0.065,0.005
5990,0.080,0.000
5991,0.090,-0.025
5992,0.100,-0.045
5993,0.100,-0.050
5994,0.085,-0.040
5995,0.060,-0.025
5996,0.020,-0.010
5997,-0.005,0.000
5998,-0.020,0.000
5999,-0.025,0.000
6000,-0.020,0.000
6001,-0.020,0.000
6002,-0.025,0.000
6003,-0.020,0.000
6004,-0.025,0.015
6005,-0.040,0.070
6006,0.000,-0.040
6007,0.185,-0.540
6008,0.390,-1.065
6009,0.420,-1.190
6010,0.235,-0.780
6011,0.040,-0.305
6012,-0.020,-0.070
6013,-0.040,0.000
6014,-0.050,0.065
6015,-0.045,0.115
6016,-0.045,0.115
6017,-0.045,0.130
6018,-0.050,0.135
6019,-0.055,0.135
6020,-0.060,0.140
6021,-0.060,0.140
6022,-0.055,0.140
6023,-0.055,0.140
6024,-0.060,0.140
6025,-0.065,0.140
6026,-0.060,0.120
6027,-0.060,0.125
6028,-0.060,0.130
6029,-0.060,0.130
6030,-0.060,0.115
6031,-0.065,0.115
6032,-0.075,0.115
6033,-0.080,0.110
6034,-0.070,0.095
6035,-0.070,0.075
6036,-0.070,0.070
6037,-0.070,0.060
6038,-0.070,0.050
6039,-0.070,0.045
6040,-0.060,0.045
6041,-0.050,0.045
6042,-0.045,0.040
6043,-0.040,0.025
6044,-0.025,0.020
6045,-0.015,0.010
6046,-0.005,0.000
6047,-0.005,0.000
6048,0.000,0.000
6049,0.000,0.000
6050,0.000,0.000
6051,0.000,0.000
6052,0.000,0.000
6053,0.000,0.000
6054,0.000,0.000
6055,0.000,0.000
6056,0.000,0.000
6057,0.000,0.005
6058,0.000,0.015
6059,0.000,0.005
6060,0.000,0.005
6061,0.000,0.015
6062,-0.005,0.015
6063,-0.005,0.005
6064,0.000,0.000
6065,0.000,0.000
6066,0.000,0.000
6067,0.000,0.000
6068,0.000,0.000
6069,0.000,0.000
6070,0.005,0.000
6071,0.015,0.000
6072,0.040,0.000
6073,0.055,0.000
6074,0.080,-0.010
6075,0.095,-0.035
6076,0.095,-0.045
6077,0.095,-0.050
6078,0.085,-0.040
6079,0.050,-0.015
6080,0.010,0.000
6081,-0.010,0.000
6082,-0.025,0.000
6083,-0.030,0.000
6084,-0.030,0.000
6085,-0.030,0.000
6086,-0.030,0.000
6087,-0.025,0.000
6088,-0.040,0.025
6089,-0.055,0.065
6090,0.015,-0.105
6091,0.215,-0.630
6092,0.390,-1.110
6093,0.390,-1.165
6094,0.195,-0.705
6095,0.020,-0.270
6096,-0.025,-0.055
6097,-0.040,0.015
6098,-0.050,0.075
6099,-0.050,0.110
6100,-0.055,0.115
6101,-0.055,0.115
6102,-0.055,0.125
6103,-0.055,0.130
6104,-0.055,0.130
6105,-0.060,0.130
6106,-0.060,0.135
6107,-0.060,0.130
6108,-0.060,0.130
6109,-0.060,0.135
6110,-0.060,0.130
6111,-0.060,0.115
6112,-0.065,0.115
6113,-0.065,0.115
6114,-0.070,0.115
6115,-0.080,0.115
6116,-0.085,0.110
6117,-0.085,0.110
6118,-0.080,0.100
6119,-0.080,0.080
6120,-0.070,0.070
6121,-0.070,0.065
6122,-0.065,0.050
6123,-0.065,0.045
6124,-0.055,0.045
6125,-0.045,0.045
6126,-0.040,0.030
6127,-0.035,0.020
6128,-0.020,0.015
6129,-0.010,0.005
6130,-0.005,0.000
6131,0.000,0.000
6132,0.000,0.000
6133,0.000,0.000
6134,0.000,0.000
6135,0.005,0.000
6136,0.000,0.000
6137,0.000,0.000
6138,0.000,0.000
6139,0.000,0.000
6140,0.000,0.000
6141,0.000,0.000
6142,0.000,0.000
6143,0.000,0.015
6144,-0.005,0.020
6145,-0.010,0.020
6146,-0.010,0.020
6147,-0.005,0.020
6148,-0.005,0.020
6149,0.000,0.000
6150,0.000,0.000
6151,0.000,0.000
6152,0.000,0.000
6153,0.000,0.000
6154,0.015,0.000
6155,0.025,0.000
6156,0.040,0.015
6157,0.055,0.005
6158,0.075,-0.010
6159,0.090,-0.035
6160,0.095,-0.045
6161,0.090,-0.055
6162,0.070,-0.040
6163,0.030,-0.010
6164,0.000,0.000
6165,-0.010,0.000
6166,-0.030,0.000
6167,-0.040,0.000
6168,-0.035,0.000
6169,-0.025,0.000
6170,-0.025,0.000
6171,-0.030,0.000
6172,-0.045,0.040
6173,-0.050,0.075
6174,0.055,-0.170
6175,0.265,-0.740
6176,0.390,-1.180
6177,0.330,-1.105
6178,0.140,-0.595
6179,0.000,-0.210
6180,-0.050,-0.020
6181,-0.055,0.040
6182,-0.060,0.105
6183,-0.055,0.115
6184,-0.055,0.120
6185,-0.060,0.140
6186,-0.060,0.140
6187,-0.060,0.140
6188,-0.055,0.140
6189,-0.060,0.140
6190,-0.060,0.140
6191,-0.060,0.140
6192,-0.070,0.140
6193,-0.070,0.140
6194,-0.060,0.140
6195,-0.060,0.135
6196,-0.060,0.120
6197,-0.070,0.115
6198,-0.075,0.115
6199,-0.080,0.115
6200,-0.080,0.115
6201,-0.080,0.110
6202,-0.080,0.100
6203,-0.080,0.075
6204,-0.085,0.070
6205,-0.080,0.070
6206,-0.080,0.060
6207,-0.065,0.050
6208,-0.055,0.045
6209,-0.050,0.045
6210,-0.045,0.045
6211,-0.040,0.040
6212,-0.035,0.035
6213,-0.030,0.025
6214,-0.020,0.020
6215,-0.015,0.020
6216,-0.010,0.015
6217,0.000,0.015
6218,0.000,0.010
6219,0.000,0.000
6220,0.005,0.000
6221,0.000,0.020
6222,0.000,0.020
6223,0.000,0.015
6224,0.000,0.015
6225,0.000,0.020
6226,-0.005,0.020
6227,-0.005,0.020
6228,-0.005,0.020
6229,-0.005,0.020
6230,-0.005,0.020
6231,0.000,0.020
6232,0.000,0.020
6233,-0.005,0.020
6234,-0.005,0.015
6235,0.000,0.005
6236,0.015,0.000
6237,0.010,0.000
6238,0.025,0.000
6239,0.045,0.000
6240,0.050,0.005
6241,0.065,0.000
6242,0.085,-0.010
6243,0.080,-0.035
6244,0.085,-0.045
6245,0.095,-0.050
6246,0.070,-0.030
6247,0.020,-0.005
6248,-0.005,0.000
6249,-0.020,0.000
6250,-0.020,0.000
6251,-0.020,0.000
6252,-0.030,0.000
6253,-0.040,0.000
6254,-0.035,0.000
6255,-0.030,0.000
6256,-0.050,0.050
6257,-0.035,0.065
6258,0.100,-0.240
6259,0.305,-0.800
6260,0.405,-1.160
6261,0.300,-1.010
6262,0.085,-0.520
6263,-0.010,-0.165
6264,-0.050,-0.005
6265,-0.065,0.055
6266,-0.060,0.110
6267,-0.050,0.115
6268,-0.060,0.120
6269,-0.060,0.130
6270,-0.055,0.140
6271,-0.055,0.135
6272,-0.065,0.135
6273,-0.065,0.135
6274,-0.055,0.135
6275,-0.055,0.135
6276,-0.060,0.140
6277,-0.065,0.135
6278,-0.060,0.120
6279,-0.060,0.115
6280,-0.065,0.115
6281,-0.075,0.120
6282,-0.070,0.115
6283,-0.060,0.115
6284,-0.080,0.115
6285,-0.090,0.100
6286,-0.075,0.080
6287,-0.075,0.070
6288,-0.070,0.070
6289,-0.065,0.070
6290,-0.070,0.070
6291,-0.070,0.065
6292,-0.060,0.050
6293,-0.060,0.045
6294,-0.050,0.045
6295,-0.040,0.035
6296,-0.030,0.025
6297,-0.015,0.020
6298,-0.010,0.015
6299,-0.010,0.015
6300,-0.005,0.020
6301,-0.005,0.015
6302,0.000,0.005
6303,0.000,0.005
6304,0.010,0.010
6305,0.010,0.000
6306,0.010,0.000
6307,0.005,0.000
6308,0.000,0.015
6309,0.000,0.020
6310,0.000,0.020
6311,-0.005,0.020
6312,-0.005,0.020
6313,-0.005,0.020
6314,0.000,0.020
6315,-0.005,0.020
6316,-0.010,0.020
6317,-0.015,0.020
6318,-0.015,0.020
6319,-0.010,0.005
6320,0.000,0.005
6321,0.015,0.000
6322,0.025,0.005
6323,0.040,0.015
6324,0.060,0.010
6325,0.075,0.000
6326,0.085,-0.020
6327,0.100,-0.040
6328,0.090,-0.045
6329,0.080,-0.035
6330,0.040,-0.010
6331,0.005,0.000
6332,-0.015,0.000
6333,-0.030,0.000
6334,-0.035,0.000
6335,-0.040,0.000
6336,-0.040,0.000
6337,-0.040,0.000
6338,-0.040,0.000
6339,-0.045,0.030
6340,-0.040,0.075
6341,0.040,-0.085
6342,0.235,-0.580
6343,0.400,-1.050
6344,0.360,-1.085
6345,0.170,-0.665
6346,0.005,-0.250
6347,-0.040,-0.045
6348,-0.055,0.025
6349,-0.070,0.085
6350,-0.055,0.115
6351,-0.055,0.115
6352,-0.055,0.115
6353,-0.055,0.140
6354,-0.060,0.140
6355,-0.070,0.135
6356,-0.070,0.130
6357,-0.065,0.120
6358,-0.065,0.125
6359,-0.070,0.120
6360,-0.075,0.120
6361,-0.070,0.120
6362,-0.070,0.115
6363,-0.075,0.115
6364,-0.075,0.115
6365,-0.075,0.115
6366,-0.075,0.115
6367,-0.080,0.105
6368,-0.085,0.095
6369,-0.085,0.095
6370,-0.085,0.095
6371,-0.080,0.080
6372,-0.075,0.070
6373,-0.075,0.070
6374,-0.065,0.065
6375,-0.065,0.060
6376,-0.060,0.050
6377,-0.045,0.045
6378,-0.030,0.035
6379,-0.025,0.025
6380,-0.020,0.020
6381,-0.010,0.010
6382,0.000,0.000
6383,0.000,0.000
6384,0.000,0.000
6385,0.005,0.000
6386,0.010,0.000
6387,0.005,0.000
6388,0.005,0.000
6389,0.005,0.000
6390,0.005,0.000
6391,0.005,0.000
6392,0.005,0.005
6393,0.000,0.020
6394,0.000,0.015
6395,0.000,0.005
6396,0.000,0.015
6397,0.000,0.020
6398,0.000,0.020
6399,0.000,0.020
6400,0.000,0.020
6401,0.000,0.000
6402,0.000,0.000
6403,0.005,0.000
6404,0.015,0.000
6405,0.030,0.000
6406,0.055,0.000
6407,0.065,0.000
6408,0.085,0.000
6409,0.085,-0.020
6410,0.100,-0.040
6411,0.110,-0.055
6412,0.100,-0.050
6413,0.065,-0.015
6414,0.020,0.000
6415,-0.005,0.000
6416,-0.020,0.000
6417,-0.025,0.000
6418,-0.025,0.000
6419,-0.020,0.000
6420,-0.020,0.000
6421,-0.025,0.000
6422,-0.035,0.025
6423,-0.050,0.065
6424,0.020,-0.110
6425,0.220,-0.605
6426,0.405,-1.070
6427,0.400,-1.115
6428,0.215,-0.710
6429,0.030,-0.280
6430,-0.015,-0.065
6431,-0.035,0.010
6432,-0.050,0.060
6433,-0.050,0.105
6434,-0.050,0.115
6435,-0.045,0.115
6436,-0.045,0.115
6437,-0.060,0.115
6438,-0.060,0.125
6439,-0.060,0.115
6440,-0.060,0.115
6441,-0.065,0.130
6442,-0.045,0.115
6443,-0.040,0.115
6444,-0.045,0.115
6445,-0.050,0.115
6446,-0.050,0.115
6447,-0.055,0.115
6448,-0.055,0.115
6449,-0.055,0.115
6450,-0.055,0.110
6451,-0.065,0.100
6452,-0.070,0.085
6453,-0.060,0.075
6454,-0.055,0.070
6455,-0.050,0.070
6456,-0.050,0.055
6457,-0.040,0.045
6458,-0.040,0.045
6459,-0.035,0.045
6460,-0.025,0.035
6461,-0.010,0.025
6462,0.000,0.020
6463,0.000,0.010
6464,0.005,0.000
6465,0.010,0.000
6466,0.015,0.000
6467,0.015,0.000
6468,0.025,0.000
6469,0.020,0.000
6470,0.020,0.000
6471,0.020,0.000
6472,0.020,0.000
6473,0.020,0.000
6474,0.020,0.005
6475,0.015,0.015
6476,0.010,0.020
6477,0.005,0.020
6478,0.005,0.020
6479,0.010,0.020
6480,0.010,0.020
6481,0.005,0.015
6482,0.005,0.015
6483,0.010,0.015
6484,0.010,0.015
6485,0.005,0.010
6486,0.005,0.005
6487,0.010,0.000
6488,0.030,0.000
6489,0.050,0.000
6490,0.085,0.000
6491,0.095,0.000
6492,0.105,-0.025
6493,0.115,-0.040
6494,0.115,-0.045
6495,0.110,-0.045
6496,0.080,-0.025
6497,0.040,-0.005
6498,0.010,0.000
6499,-0.005,0.000
6500,-0.015,0.000
6501,-0.010,0.000
6502,-0.005,0.000
6503,-0.005,0.000
6504,-0.005,0.000
6505,-0.010,0.005
6506,-0.035,0.075
6507,-0.005,0.000
6508,0.160,-0.425
6509,0.360,-0.965
6510,0.425,-1.180
6511,0.300,-0.885
6512,0.095,-0.410
6513,0.000,-0.130
6514,-0.020,-0.015
6515,-0.020,0.030
6516,-0.035,0.085
6517,-0.040,0.115
6518,-0.040,0.115
6519,-0.045,0.115
6520,-0.045,0.120
6521,-0.040,0.125
6522,-0.040,0.115
6523,-0.040,0.115
6524,-0.040,0.115
6525,-0.040,0.115
6526,-0.045,0.130
6527,-0.040,0.130
6528,-0.040,0.130
6529,-0.040,0.115
6530,-0.045,0.115
6531,-0.055,0.115
6532,-0.060,0.115
6533,-0.060,0.115
6534,-0.060,0.100
6535,-0.065,0.095
6536,-0.065,0.085
6537,-0.065,0.070
6538,-0.065,0.070
6539,-0.060,0.065
6540,-0.045,0.050
6541,-0.045,0.045
6542,-0.045,0.045
6543,-0.035,0.045
6544,-0.025,0.045
6545,-0.015,0.025
6546,-0.005,0.020
6547,0.000,0.020
6548,0.005,0.005
6549,0.010,0.000
6550,0.010,0.000
6551,0.020,0.000
6552,0.020,0.000
6553,0.020,0.000
6554,0.020,0.000
6555,0.020,0.000
6556,0.020,0.000
6557,0.020,0.000
6558,0.015,0.015
6559,0.010,0.020
6560,0.005,0.020
6561,0.010,0.020
6562,0.010,0.015
6563,0.010,0.010
6564,0.015,0.000
6565,0.015,0.000
6566,0.015,0.000
6567,0.010,0.000
6568,0.010,0.000
6569,0.010,0.000
6570,0.015,0.000
6571,0.025,0.000
6572,0.045,0.010
6573,0.060,0.015
6574,0.085,0.005
6575,0.105,0.000
6576,0.110,-0.030
6577,0.110,-0.040
6578,0.100,-0.045
6579,0.090,-0.030
6580,0.055,-0.005
6581,0.025,0.000
6582,0.000,0.000
6583,-0.020,0.000
6584,-0.025,0.000
6585,-0.025,0.000
6586,-0.025,0.000
6587,-0.025,0.000
6588,-0.025,0.000
6589,-0.035,0.045
6590,-0.045,0.080
6591,0.050,-0.175
6592,0.260,-0.725
6593,0.400,-1.150
6594,0.345,-1.085
6595,0.160,-0.625
6596,0.015,-0.220
6597,-0.030,-0.035
6598,-0.040,0.040
6599,-0.050,0.095
6600,-0.050,0.115
6601,-0.050,0.130
6602,-0.050,0.140
6603,-0.050,0.140
6604,-0.050,0.140
6605,-0.045,0.140
6606,-0.045,0.140
6607,-0.055,0.140
6608,-0.055,0.140
6609,-0.060,0.140
6610,-0.060,0.140
6611,-0.055,0.140
6612,-0.050,0.140
6613,-0.050,0.140
6614,-0.055,0.140
6615,-0.060,0.140
6616,-0.075,0.130
6617,-0.070,0.115
6618,-0.070,0.115
6619,-0.075,0.115
6620,-0.070,0.095
6621,-0.065,0.085
6622,-0.065,0.070
6623,-0.060,0.070
6624,-0.050,0.070
6625,-0.045,0.070
6626,-0.045,0.070
6627,-0.040,0.050
6628,-0.025,0.040
6629,-0.015,0.040
6630,-0.010,0.035
6631,-0.005,0.020
6632,0.000,0.020
6633,0.000,0.020
6634,0.000,0.020
6635,0.005,0.015
6636,0.015,0.015
6637,0.010,0.015
6638,0.005,0.015
6639,0.010,0.020
6640,0.015,0.020
6641,0.005,0.025
6642,0.000,0.030
6643,0.005,0.025
6644,0.000,0.045
6645,0.000,0.040
6646,0.005,0.030
6647,0.000,0.030
6648,-0.005,0.025
6649,0.000,0.015
6650,0.010,0.010
6651,0.005,0.005
6652,0.005,0.010
6653,0.005,0.000
6654,0.020,0.015
6655,0.030,0.015
6656,0.035,0.020
6657,0.055,0.020
6658,0.075,0.000
6659,0.105,-0.015
6660,0.100,-0.040
6661,0.095,-0.045
6662,0.095,-0.035
6663,0.065,-0.015
6664,0.020,0.000
6665,-0.005,0.000
6666,-0.015,0.000
6667,-0.015,0.000
6668,-0.020,0.000
6669,-0.025,0.000
6670,-0.015,0.000
6671,-0.015,0.000
6672,-0.025,0.005
6673,-0.055,0.085
6674,0.005,0.000
6675,0.205,-0.445
6676,0.385,-0.970
6677,0.405,-1.135
6678,0.255,-0.815
6679,0.070,-0.355
6680,-0.025,-0.090
6681,-0.060,0.025
6682,-0.060,0.080
6683,-0.050,0.110
6684,-0.040,0.120
6685,-0.040,0.130
6686,-0.050,0.130
6687,-0.045,0.130
6688,-0.045,0.125
6689,-0.060,0.140
6690,-0.065,0.135
6691,-0.050,0.120
6692,-0.050,0.120
6693,-0.065,0.130
6694,-0.050,0.115
6695,-0.070,0.135
6696,-0.060,0.115
6697,-0.060,0.115
6698,-0.065,0.115
6699,-0.060,0.115
6700,-0.080,0.115
6701,-0.085,0.115
6702,-0.075,0.105
6703,-0.070,0.075
6704,-0.070,0.070
6705,-0.085,0.070
6706,-0.070,0.050
6707,-0.070,0.055
6708,-0.065,0.045
6709,-0.045,0.035
6710,-0.035,0.035
6711,-0.045,0.040
6712,-0.030,0.025
6713,-0.005,0.020
6714,-0.020,0.015
6715,-0.005,0.005
6716,0.000,0.000
6717,-0.005,0.000
6718,0.000,0.000
6719,0.015,0.000
6720,0.015,0.000
6721,0.000,0.000
6722,0.000,0.000
6723,0.005,0.000
6724,0.010,0.000
6725,0.000,0.005
6726,-0.020,0.020
6727,-0.010,0.020
6728,-0.005,0.020
6729,0.000,0.015
6730,0.000,0.005
6731,-0.010,0.000
6732,0.000,0.000
6733,0.000,0.000
6734,0.000,0.000
6735,0.000,0.000
6736,0.000,0.000
6737,0.005,0.000
6738,0.030,0.000
6739,0.030,0.000
6740,0.045,0.000
6741,0.080,-0.005
6742,0.080,-0.040
6743,0.095,-0.045
6744,0.100,-0.055
6745,0.100,-0.055
6746,0.055,-0.020
6747,0.025,0.000
6748,0.000,0.000
6749,-0.025,0.000
6750,-0.035,0.000
6751,-0.040,0.000
6752,-0.025,0.000
6753,-0.025,0.000
6754,-0.020,0.000
6755,-0.020,0.005
6756,-0.040,0.080
6757,0.015,-0.015
6758,0.205,-0.455
6759,0.385,-0.950
6760,0.395,-1.080
6761,0.210,-0.745
6762,0.030,-0.325
6763,-0.030,-0.090
6764,-0.050,0.015
6765,-0.065,0.070
6766,-0.075,0.105
6767,-0.065,0.115
6768,-0.060,0.115
6769,-0.060,0.115
6770,-0.060,0.115
6771,-0.060,0.120
6772,-0.065,0.125
6773,-0.065,0.115
6774,-0.065,0.115
6775,-0.065,0.115
6776,-0.065,0.115
6777,-0.065,0.115
6778,-0.070,0.115
6779,-0.065,0.115
6780,-0.065,0.115
6781,-0.065,0.115
6782,-0.070,0.115
6783,-0.075,0.110
6784,-0.075,0.100
6785,-0.070,0.095
6786,-0.070,0.095
6787,-0.070,0.075
6788,-0.070,0.070
6789,-0.070,0.070
6790,-0.065,0.070
6791,-0.060,0.065
6792,-0.060,0.045
6793,-0.050,0.045
6794,-0.035,0.045
6795,-0.035,0.045
6796,-0.025,0.025
6797,-0.015,0.020
6798,0.000,0.005
6799,0.000,0.005
6800,0.000,0.000
6801,0.000,0.000
6802,0.005,0.000
6803,0.000,0.000
6804,0.005,0.000
6805,0.010,0.000
6806,0.015,0.000
6807,0.010,0.005
6808,0.005,0.010
6809,0.005,0.020
6810,0.010,0.020
6811,0.010,0.015
6812,0.005,0.015
6813,0.005,0.020
6814,0.005,0.020
6815,0.000,0.020
6816,0.000,0.015
6817,0.000,0.000
6818,0.005,0.000
6819,0.010,0.000
6820,0.025,0.015
6821,0.035,0.010
6822,0.055,0.005
6823,0.070,0.000
6824,0.090,-0.005
6825,0.100,-0.025
6826,0.105,-0.035
6827,0.105,-0.040
6828,0.095,-0.030
6829,0.045,0.000
6830,0.010,0.000
6831,-0.010,0.000
6832,-0.015,0.000
6833,-0.020,0.000
6834,-0.015,0.000
6835,-0.015,0.000
6836,-0.015,0.000
6837,-0.020,0.000
