'sample interval','ECG0','ECG1'
'0.0078125 sec','mV','mV'
0,-0.185,0.115
1,-0.185,0.115
2,-0.175,0.100
3,-0.190,0.100
4,-0.185,0.105
5,-0.185,0.110
6,-0.190,0.115
7,-0.185,0.105
8,-0.185,0.110
9,-0.185,0.100
10,-0.190,0.110
11,-0.185,0.100
12,-0.180,0.105
13,-0.190,0.115
14,-0.185,0.100
15,-0.180,0.115
16,-0.180,0.105
17,-0.180,0.105
18,-0.180,0.105
19,-0.185,0.100
20,-0.180,0.115
21,-0.170,0.100
22,-0.175,0.120
23,-0.175,0.105
24,-0.175,0.100
25,-0.165,0.105
26,-0.170,0.105
27,-0.160,0.120
28,-0.165,0.110
29,-0.170,0.105
30,-0.175,0.090
31,-0.165,0.105
32,-0.175,0.090
33,-0.175,0.090
34,-0.170,0.085
35,-0.175,0.100
36,-0.170,0.095
37,-0.165,0.105
38,-0.170,0.095
39,-0.160,0.105
40,-0.160,0.100
41,-0.180,0.090
42,-0.175,0.100
43,-0.180,0.105
44,-0.180,0.110
45,-0.180,0.100
46,-0.175,0.105
47,-0.170,0.115
48,-0.185,0.105
49,-0.175,0.100
50,-0.170,0.105
51,-0.140,0.110
52,-0.135,0.125
53,-0.140,0.135
54,-0.140,0.130
55,-0.135,0.120
56,-0.145,0.120
57,-0.160,0.095
58,-0.140,0.080
59,-0.135,0.075
60,-0.140,0.080
61,-0.145,0.085
62,-0.135,0.085
63,-0.150,0.090
64,-0.160,0.100
65,-0.170,0.125
66,-0.190,0.125
67,-0.180,0.110
68,-0.170,0.110
69,-0.180,0.115
70,-0.175,0.100
71,-0.170,0.110
72,-0.165,0.115
73,-0.190,0.120
74,-0.190,0.110
75,-0.180,0.115
76,0.070,0.150
77,0.575,0.130
78,1.050,0.060
79,1.060,-0.110
80,0.205,-0.300
81,-0.500,-0.415
82,-0.590,-0.325
83,-0.440,-0.125
84,-0.265,0.045
85,-0.260,0.175
86,-0.270,0.170
87,-0.270,0.160
88,-0.270,0.165
89,-0.275,0.150
90,-0.260,0.160
91,-0.265,0.155
92,-0.280,0.160
93,-0.285,0.150
94,-0.275,0.140
95,-0.285,0.130
96,-0.280,0.135
97,-0.275,0.130
98,-0.280,0.135
99,-0.280,0.130
100,-0.270,0.145
101,-0.280,0.150
102,-0.285,0.145
103,-0.295,0.155
104,-0.285,0.155
105,-0.275,0.150
106,-0.265,0.150
107,-0.270,0.160
108,-0.270,0.165
109,-0.275,0.180
110,-0.265,0.170
111,-0.265,0.165
112,-0.260,0.165
113,-0.250,0.160
114,-0.250,0.140
115,-0.240,0.150
116,-0.220,0.145
117,-0.210,0.145
118,-0.185,0.135
119,-0.170,0.140
120,-0.135,0.140
121,-0.120,0.135
122,-0.100,0.140
123,-0.085,0.145
124,-0.075,0.130
125,-0.085,0.140
126,-0.070,0.130
127,-0.100,0.135
128,-0.095,0.130
129,-0.090,0.125
130,-0.120,0.115
131,-0.125,0.115
132,-0.115,0.130
133,-0.120,0.110
134,-0.110,0.120
135,-0.120,0.125
136,-0.120,0.120
137,-0.115,0.125
138,-0.105,0.120
139,-0.105,0.115
140,-0.105,0.120
141,-0.095,0.120
142,-0.090,0.130
143,-0.095,0.115
144,-0.090,0.130
145,-0.090,0.135
146,-0.105,0.125
147,-0.100,0.135
148,-0.085,0.125
149,-0.095,0.125
150,-0.100,0.115
151,-0.100,0.125
152,-0.120,0.115
153,-0.140,0.120
154,-0.120,0.105
155,-0.135,0.110
156,-0.150,0.110
157,-0.145,0.110
158,-0.160,0.105
159,-0.155,0.100
160,-0.155,0.110
161,-0.160,0.100
162,-0.165,0.095
163,-0.150,0.100
164,-0.160,0.090
165,-0.185,0.090
166,-0.155,0.100
167,-0.160,0.095
168,-0.175,0.090
169,-0.165,0.100
170,-0.170,0.095
171,-0.185,0.085
172,-0.180,0.080
173,-0.175,0.090
174,-0.185,0.075
175,-0.180,0.085
176,-0.175,0.075
177,-0.175,0.085
178,-0.195,0.075
179,-0.185,0.085
180,-0.190,0.085
181,-0.175,0.080
182,-0.180,0.080
183,-0.170,0.080
184,-0.180,0.085
185,-0.170,0.075
186,-0.175,0.085
187,-0.190,0.080
188,-0.185,0.080
189,-0.170,0.060
190,-0.180,0.060
191,-0.180,0.055
192,-0.180,0.070
193,-0.170,0.055
194,-0.185,0.045
195,-0.170,0.055
196,-0.160,0.050
197,-0.155,0.065
198,-0.130,0.075
199,-0.140,0.075
200,-0.130,0.075
201,-0.145,0.075
202,-0.145,0.050
203,-0.165,0.035
204,-0.150,0.015
205,-0.145,0.025
206,-0.140,0.020
207,-0.135,0.030
208,-0.140,0.035
209,-0.150,0.045
210,-0.160,0.040
211,-0.170,0.075
212,-0.185,0.065
213,-0.185,0.070
214,-0.185,0.065
215,-0.170,0.060
216,-0.180,0.080
217,-0.165,0.085
218,-0.160,0.065
219,-0.180,0.080
220,-0.170,0.080
221,-0.185,0.075
222,-0.140,0.080
223,0.170,0.115
224,0.700,0.075
225,1.170,-0.010
226,0.990,-0.170
227,0.105,-0.320
228,-0.440,-0.410
229,-0.510,-0.280
230,-0.360,-0.075
231,-0.245,0.060
232,-0.225,0.135
233,-0.230,0.150
234,-0.225,0.135
235,-0.235,0.120
236,-0.235,0.105
237,-0.220,0.120
238,-0.225,0.120
239,-0.230,0.120
240,-0.220,0.130
241,-0.230,0.125
242,-0.220,0.115
243,-0.230,0.115
244,-0.230,0.120
245,-0.240,0.110
246,-0.230,0.120
247,-0.240,0.120
248,-0.240,0.135
249,-0.230,0.135
250,-0.240,0.135
251,-0.235,0.140
252,-0.240,0.145
253,-0.240,0.145
254,-0.245,0.150
255,-0.235,0.155
256,-0.265,0.145
257,-0.255,0.150
258,-0.250,0.150
259,-0.240,0.140
260,-0.245,0.140
261,-0.240,0.130
262,-0.225,0.120
263,-0.220,0.100
264,-0.210,0.115
265,-0.170,0.105
266,-0.150,0.095
267,-0.140,0.095
268,-0.120,0.095
269,-0.110,0.095
270,-0.095,0.090
271,-0.095,0.090
272,-0.090,0.090
273,-0.110,0.090
274,-0.110,0.080
275,-0.105,0.085
276,-0.120,0.070
277,-0.125,0.085
278,-0.125,0.085
279,-0.125,0.080
280,-0.140,0.070
281,-0.110,0.070
282,-0.125,0.080
283,-0.125,0.080
284,-0.115,0.075
285,-0.115,0.080
286,-0.105,0.075
287,-0.105,0.070
288,-0.090,0.085
289,-0.105,0.075
290,-0.095,0.080
291,-0.085,0.080
292,-0.085,0.080
293,-0.080,0.075
294,-0.090,0.075
295,-0.100,0.070
296,-0.110,0.075
297,-0.080,0.080
298,-0.105,0.080
299,-0.110,0.080
300,-0.105,0.075
301,-0.110,0.080
302,-0.130,0.070
303,-0.120,0.060
304,-0.125,0.060
305,-0.130,0.075
306,-0.130,0.055
307,-0.145,0.055
308,-0.155,0.060
309,-0.150,0.060
310,-0.135,0.060
311,-0.145,0.060
312,-0.150,0.050
313,-0.150,0.045
314,-0.150,0.050
315,-0.155,0.045
316,-0.145,0.045
317,-0.155,0.045
318,-0.155,0.045
319,-0.145,0.045
320,-0.140,0.050
321,-0.145,0.050
322,-0.160,0.045
323,-0.150,0.055
324,-0.160,0.040
325,-0.145,0.040
326,-0.145,0.035
327,-0.150,0.040
328,-0.145,0.040
329,-0.155,0.045
330,-0.155,0.040
331,-0.150,0.040
332,-0.145,0.030
333,-0.155,0.035
334,-0.155,0.030
335,-0.140,0.020
336,-0.145,0.030
337,-0.160,0.025
338,-0.155,0.025
339,-0.160,0.030
340,-0.140,0.035
341,-0.140,0.035
342,-0.140,0.040
343,-0.125,0.040
344,-0.095,0.050
345,-0.100,0.065
346,-0.110,0.070
347,-0.110,0.070
348,-0.115,0.050
349,-0.110,0.035
350,-0.115,0.015
351,-0.105,0.025
352,-0.115,0.020
353,-0.110,0.015
354,-0.100,0.015
355,-0.110,0.040
356,-0.130,0.040
357,-0.140,0.045
358,-0.140,0.045
359,-0.140,0.055
360,-0.130,0.050
361,-0.135,0.055
362,-0.125,0.050
363,-0.140,0.060
364,-0.125,0.060
365,-0.130,0.065
366,-0.125,0.060
367,-0.125,0.060
368,-0.085,0.090
369,0.270,0.105
370,0.820,0.065
371,1.215,-0.025
372,0.930,-0.220
373,-0.010,-0.400
374,-0.490,-0.435
375,-0.475,-0.300
376,-0.295,-0.085
377,-0.190,0.075
378,-0.185,0.150
379,-0.200,0.150
380,-0.200,0.140
381,-0.210,0.130
382,-0.190,0.125
383,-0.195,0.120
384,-0.205,0.125
385,-0.205,0.110
386,-0.205,0.100
387,-0.200,0.085
388,-0.205,0.090
389,-0.205,0.105
390,-0.215,0.100
391,-0.210,0.090
392,-0.220,0.095
393,-0.210,0.115
394,-0.230,0.110
395,-0.225,0.110
396,-0.225,0.125
397,-0.235,0.105
398,-0.235,0.125
399,-0.215,0.130
400,-0.220,0.105
401,-0.225,0.100
402,-0.230,0.140
403,-0.215,0.145
404,-0.215,0.120
405,-0.210,0.095
406,-0.215,0.120
407,-0.200,0.135
408,-0.195,0.110
409,-0.190,0.080
410,-0.165,0.100
411,-0.145,0.125
412,-0.115,0.100
413,-0.090,0.050
414,-0.075,0.050
415,-0.055,0.065
416,-0.055,0.085
417,-0.050,0.080
418,-0.085,0.065
419,-0.090,0.070
420,-0.095,0.070
421,-0.105,0.065
422,-0.125,0.085
423,-0.135,0.045
424,-0.125,0.065
425,-0.120,0.030
426,-0.110,0.050
427,-0.110,0.060
428,-0.115,0.070
429,-0.110,0.020
430,-0.095,0.050
431,-0.080,0.055
432,-0.090,0.025
433,-0.090,0.025
434,-0.100,0.035
435,-0.095,0.040
436,-0.085,0.030
437,-0.085,0.035
438,-0.100,0.030
439,-0.090,0.030
440,-0.080,0.025
441,-0.090,0.030
442,-0.090,0.020
443,-0.105,0.005
444,-0.115,0.015
445,-0.110,0.010
446,-0.090,0.020
447,-0.100,0.000
448,-0.105,0.000
449,-0.095,0.005
450,-0.105,0.000
451,-0.110,0.005
452,-0.115,0.010
453,-0.125,0.015
454,-0.115,0.015
455,-0.105,0.005
456,-0.130,0.000
457,-0.115,0.005
458,-0.130,0.000
459,-0.135,0.000
460,-0.120,0.000
461,-0.120,0.000
462,-0.125,0.005
463,-0.125,0.000
464,-0.120,-0.005
465,-0.120,0.000
466,-0.120,0.010
467,-0.125,0.000
468,-0.120,0.005
469,-0.120,0.020
470,-0.120,0.010
471,-0.135,0.010
472,-0.130,0.010
473,-0.125,0.000
474,-0.125,0.010
475,-0.125,0.015
476,-0.140,0.010
477,-0.135,0.010
478,-0.135,0.000
479,-0.135,0.015
480,-0.120,0.010
481,-0.120,0.015
482,-0.145,0.000
483,-0.140,0.000
484,-0.135,0.015
485,-0.115,0.010
486,-0.115,0.005
487,-0.105,0.025
488,-0.100,0.050
489,-0.090,0.025
490,-0.095,0.040
491,-0.110,0.020
492,-0.115,0.015
493,-0.090,0.005
494,-0.105,0.000
495,-0.110,0.005
496,-0.105,0.005
497,-0.100,0.005
498,-0.120,0.030
499,-0.115,0.045
500,-0.110,0.055
501,-0.140,0.055
502,-0.130,0.055
503,-0.130,0.045
504,-0.135,0.045
505,-0.135,0.055
506,-0.125,0.050
507,-0.125,0.055
508,-0.120,0.040
509,-0.125,0.045
510,-0.145,0.060
511,0.015,0.090
512,0.480,0.080
513,1.000,0.025
514,1.245,-0.085
515,0.585,-0.265
516,-0.250,-0.395
517,-0.465,-0.375
518,-0.385,-0.190
519,-0.220,-0.015
520,-0.170,0.080
521,-0.180,0.105
522,-0.170,0.110
523,-0.185,0.080
524,-0.190,0.085
525,-0.180,0.080
526,-0.185,0.080
527,-0.195,0.065
528,-0.190,0.075
529,-0.190,0.070
530,-0.200,0.075
531,-0.205,0.065
532,-0.195,0.075
533,-0.200,0.060
534,-0.210,0.070
535,-0.200,0.060
536,-0.215,0.085
537,-0.225,0.075
538,-0.210,0.075
539,-0.210,0.080
540,-0.220,0.095
541,-0.210,0.085
542,-0.205,0.100
543,-0.215,0.095
544,-0.215,0.085
545,-0.220,0.090
546,-0.220,0.085
547,-0.220,0.075
548,-0.210,0.100
549,-0.220,0.090
550,-0.205,0.060
551,-0.185,0.080
552,-0.185,0.050
553,-0.155,0.055
554,-0.130,0.055
555,-0.110,0.035
556,-0.090,0.045
557,-0.080,0.040
558,-0.090,0.040
559,-0.075,0.030
560,-0.075,0.030
561,-0.090,0.040
562,-0.095,0.020
563,-0.100,0.020
564,-0.105,0.020
565,-0.115,0.025
566,-0.115,0.025
567,-0.120,0.020
568,-0.120,0.020
569,-0.120,0.025
570,-0.115,0.025
571,-0.125,0.025
572,-0.110,0.015
573,-0.115,0.005
574,-0.090,0.015
575,-0.105,0.020
576,-0.090,0.035
577,-0.100,0.030
578,-0.080,0.030
579,-0.080,0.025
580,-0.080,0.030
581,-0.100,0.030
582,-0.090,0.020
583,-0.110,0.030
584,-0.105,0.035
585,-0.105,0.025
586,-0.110,0.030
587,-0.120,0.025
588,-0.120,0.015
589,-0.120,0.015
590,-0.120,0.025
591,-0.135,0.015
592,-0.145,0.020
593,-0.135,0.025
594,-0.140,0.025
595,-0.130,0.015
596,-0.150,0.025
597,-0.140,0.015
598,-0.140,0.015
599,-0.150,0.015
600,-0.145,0.020
601,-0.145,0.015
602,-0.140,0.030
603,-0.135,0.020
604,-0.130,0.025
605,-0.135,0.025
606,-0.135,0.025
607,-0.140,0.025
608,-0.140,0.015
609,-0.135,0.025
610,-0.145,0.020
611,-0.140,0.025
612,-0.135,0.020
613,-0.135,0.025
614,-0.135,0.030
615,-0.130,0.005
616,-0.125,0.020
617,-0.125,0.020
618,-0.135,0.025
619,-0.145,0.035
620,-0.145,0.005
621,-0.135,0.030
622,-0.150,0.025
623,-0.135,0.025
624,-0.135,0.025
625,-0.135,0.035
626,-0.135,0.025
627,-0.135,0.035
628,-0.125,0.030
629,-0.105,0.020
630,-0.080,0.025
631,-0.080,0.045
632,-0.085,0.055
633,-0.080,0.055
634,-0.100,0.055
635,-0.095,0.030
636,-0.095,0.015
637,-0.085,0.005
638,-0.095,0.000
639,-0.090,0.010
640,-0.100,0.010
641,-0.095,0.005
642,-0.090,0.020
643,-0.110,0.035
644,-0.125,0.055
645,-0.140,0.045
646,-0.125,0.040
647,-0.140,0.045
648,-0.130,0.045
649,-0.135,0.040
650,-0.130,0.045
651,-0.130,0.040
652,-0.120,0.035
653,-0.125,0.025
654,-0.125,0.030
655,0.005,0.050
656,0.400,0.070
657,0.900,0.030
658,1.140,-0.080
659,0.590,-0.295
660,-0.265,-0.460
661,-0.505,-0.455
662,-0.420,-0.285
663,-0.260,-0.090
664,-0.180,0.065
665,-0.195,0.115
666,-0.190,0.120
667,-0.190,0.095
668,-0.195,0.080
669,-0.185,0.075
670,-0.185,0.075
671,-0.195,0.065
672,-0.195,0.065
673,-0.205,0.065
674,-0.205,0.070
675,-0.210,0.060
676,-0.215,0.060
677,-0.200,0.060
678,-0.210,0.055
679,-0.215,0.055
680,-0.215,0.070
681,-0.215,0.060
682,-0.240,0.070
683,-0.225,0.070
684,-0.210,0.080
685,-0.225,0.060
686,-0.240,0.075
687,-0.235,0.075
688,-0.235,0.075
689,-0.235,0.070
690,-0.240,0.075
691,-0.235,0.070
692,-0.235,0.065
693,-0.220,0.065
694,-0.225,0.070
695,-0.220,0.060
696,-0.210,0.050
697,-0.185,0.040
698,-0.165,0.035
699,-0.135,0.045
700,-0.110,0.035
701,-0.115,0.030
702,-0.100,0.020
703,-0.100,0.025
704,-0.090,0.020
705,-0.115,0.010
706,-0.110,0.010
707,-0.125,0.015
708,-0.130,0.010
709,-0.140,0.005
710,-0.140,0.005
711,-0.140,0.000
712,-0.140,0.015
713,-0.145,0.015
714,-0.150,0.000
715,-0.145,0.010
716,-0.145,0.005
717,-0.135,0.005
718,-0.125,0.015
719,-0.120,0.015
720,-0.135,0.010
721,-0.125,0.000
722,-0.130,0.010
723,-0.140,0.015
724,-0.140,0.020
725,-0.120,0.010
726,-0.130,0.015
727,-0.145,0.015
728,-0.145,0.005
729,-0.145,0.010
730,-0.150,0.020
731,-0.155,0.020
732,-0.150,0.010
733,-0.155,0.000
734,-0.160,0.005
735,-0.165,0.000
736,-0.180,0.000
737,-0.170,0.000
738,-0.170,0.000
739,-0.185,0.010
740,-0.170,-0.005
741,-0.170,0.000
742,-0.180,0.000
743,-0.180,-0.005
744,-0.165,-0.005
745,-0.170,0.000
746,-0.170,-0.005
747,-0.180,0.000
748,-0.160,0.000
749,-0.175,-0.010
750,-0.160,-0.005
751,-0.160,-0.010
752,-0.170,-0.005
753,-0.170,-0.010
754,-0.165,-0.010
755,-0.180,-0.005
756,-0.165,0.000
757,-0.160,0.000
758,-0.170,0.000
759,-0.160,0.000
760,-0.150,0.000
761,-0.155,0.010
762,-0.165,0.000
763,-0.145,0.005
764,-0.150,-0.005
765,-0.170,0.000
766,-0.165,0.000
767,-0.160,-0.010
768,-0.165,-0.005
769,-0.160,0.000
770,-0.150,-0.005
771,-0.150,-0.005
772,-0.135,-0.005
773,-0.120,0.000
774,-0.125,0.010
775,-0.130,0.025
776,-0.110,0.020
777,-0.125,0.015
778,-0.130,0.000
779,-0.140,-0.015
780,-0.130,-0.035
781,-0.140,-0.040
782,-0.135,-0.035
783,-0.130,-0.040
784,-0.120,-0.040
785,-0.130,-0.030
786,-0.130,-0.015
787,-0.175,0.000
788,-0.165,0.000
789,-0.160,-0.005
790,-0.165,-0.005
791,-0.175,-0.010
792,-0.150,-0.005
793,-0.160,-0.020
794,-0.160,-0.010
795,-0.150,-0.010
796,-0.160,0.000
797,-0.170,-0.010
798,-0.105,0.000
799,0.205,0.020
800,0.710,-0.015
801,1.150,-0.100
802,0.935,-0.265
803,0.060,-0.455
804,-0.465,-0.535
805,-0.510,-0.415
806,-0.335,-0.215
807,-0.255,-0.035
808,-0.220,0.030
809,-0.225,0.060
810,-0.240,0.035
811,-0.240,0.025
812,-0.240,0.010
813,-0.240,0.015
814,-0.235,0.010
815,-0.225,0.005
816,-0.245,0.010
817,-0.250,0.015
818,-0.250,0.000
819,-0.250,0.000
820,-0.260,0.000
821,-0.275,0.000
822,-0.270,0.000
823,-0.265,-0.005
824,-0.265,0.000
825,-0.260,-0.005
826,-0.285,0.005
827,-0.260,0.005
828,-0.275,0.010
829,-0.280,0.010
830,-0.285,0.010
831,-0.285,0.015
832,-0.265,0.030
833,-0.280,0.015
834,-0.275,0.025
835,-0.285,0.020
836,-0.285,0.020
837,-0.270,0.010
838,-0.255,0.000
839,-0.240,0.000
840,-0.220,0.005
841,-0.205,0.000
842,-0.185,0.000
843,-0.160,-0.005
844,-0.160,-0.005
845,-0.140,-0.005
846,-0.130,-0.010
847,-0.125,-0.015
848,-0.130,-0.025
849,-0.150,-0.020
850,-0.155,0.000
851,-0.165,-0.020
852,-0.175,-0.015
853,-0.160,-0.015
854,-0.165,-0.015
855,-0.175,-0.015
856,-0.180,-0.010
857,-0.185,-0.010
858,-0.185,-0.005
859,-0.180,0.000
860,-0.175,0.000
861,-0.170,0.000
862,-0.165,-0.005
863,-0.170,-0.020
864,-0.170,-0.015
865,-0.160,-0.015
866,-0.165,-0.010
867,-0.150,0.000
868,-0.155,-0.010
869,-0.145,0.000
870,-0.140,-0.010
871,-0.155,-0.010
872,-0.150,-0.005
873,-0.160,0.000
874,-0.155,0.000
875,-0.155,-0.010
876,-0.165,-0.010
877,-0.175,-0.005
878,-0.170,-0.015
879,-0.175,-0.005
880,-0.175,-0.010
881,-0.170,-0.010
882,-0.155,-0.015
883,-0.175,-0.010
884,-0.170,-0.015
885,-0.170,-0.010
886,-0.175,-0.010
887,-0.175,-0.015
888,-0.170,-0.015
889,-0.170,-0.005
890,-0.180,-0.010
891,-0.170,0.000
892,-0.175,-0.015
893,-0.180,-0.015
894,-0.170,-0.015
895,-0.185,-0.015
896,-0.190,0.010
897,-0.175,-0.010
898,-0.175,-0.010
899,-0.180,-0.010
900,-0.180,0.000
901,-0.190,0.000
902,-0.180,0.000
903,-0.185,-0.005
904,-0.185,-0.005
905,-0.200,-0.005
906,-0.185,-0.010
907,-0.175,0.000
908,-0.175,-0.005
909,-0.185,-0.015
910,-0.185,-0.020
911,-0.185,-0.025
912,-0.190,-0.015
913,-0.175,-0.020
914,-0.170,-0.025
915,-0.190,-0.020
916,-0.175,-0.010
917,-0.150,-0.010
918,-0.135,-0.015
919,-0.135,0.000
920,-0.135,0.000
921,-0.130,0.000
922,-0.135,-0.005
923,-0.155,-0.030
924,-0.160,-0.040
925,-0.145,-0.045
926,-0.155,-0.050
927,-0.160,-0.045
928,-0.160,-0.055
929,-0.145,-0.045
930,-0.150,-0.025
931,-0.185,-0.015
932,-0.190,-0.005
933,-0.200,-0.005
934,-0.195,-0.010
935,-0.190,-0.020
936,-0.200,-0.020
937,-0.190,-0.015
938,-0.195,-0.025
939,-0.175,-0.025
940,-0.190,-0.030
941,-0.190,-0.025
942,-0.215,-0.025
943,-0.030,0.000
944,0.425,0.000
945,0.925,-0.065
946,1.045,-0.205
947,0.305,-0.425
948,-0.400,-0.565
949,-0.560,-0.525
950,-0.415,-0.320
951,-0.295,-0.115
952,-0.265,0.020
953,-0.260,0.040
954,-0.260,0.030
955,-0.270,0.020
956,-0.265,0.000
957,-0.265,0.000
958,-0.260,0.000
959,-0.270,0.000
960,-0.265,-0.005
961,-0.260,-0.010
962,-0.280,-0.020
963,-0.275,-0.015
964,-0.275,0.000
965,-0.270,-0.015
966,-0.280,-0.010
967,-0.265,0.000
968,-0.285,-0.005
969,-0.280,-0.015
970,-0.285,0.000
971,-0.290,0.000
972,-0.285,0.010
973,-0.290,0.015
974,-0.295,0.010
975,-0.300,0.005
976,-0.295,0.015
977,-0.295,0.005
978,-0.305,0.010
979,-0.285,0.000
980,-0.290,-0.005
981,-0.290,0.000
982,-0.275,-0.010
983,-0.265,-0.010
984,-0.245,-0.015
985,-0.215,-0.010
986,-0.200,-0.030
987,-0.175,-0.025
988,-0.170,-0.040
989,-0.140,-0.040
990,-0.130,-0.040
991,-0.150,-0.050
992,-0.140,-0.045
993,-0.150,-0.025
994,-0.160,-0.040
995,-0.175,-0.040
996,-0.170,-0.035
997,-0.180,-0.045
998,-0.185,-0.050
999,-0.180,-0.045
1000,-0.180,-0.040
1001,-0.185,-0.050
1002,-0.170,-0.040
1003,-0.180,-0.050
1004,-0.175,-0.040
1005,-0.180,-0.040
1006,-0.160,-0.035
1007,-0.160,-0.035
1008,-0.155,-0.045
1009,-0.150,-0.045
1010,-0.145,-0.045
1011,-0.150,-0.045
1012,-0.150,-0.050
1013,-0.145,-0.045
1014,-0.145,-0.050
1015,-0.150,-0.030
1016,-0.150,-0.030
1017,-0.160,-0.035
1018,-0.145,-0.030
1019,-0.160,-0.035
1020,-0.175,-0.035
1021,-0.160,-0.030
1022,-0.150,-0.020
1023,-0.165,-0.030
1024,-0.155,-0.030
1025,-0.170,-0.035
1026,-0.175,-0.040
1027,-0.180,-0.055
1028,-0.190,-0.050
1029,-0.190,-0.040
1030,-0.175,-0.045
1031,-0.185,-0.040
1032,-0.195,-0.050
1033,-0.190,-0.060
1034,-0.190,-0.055
1035,-0.185,-0.045
1036,-0.190,-0.050
1037,-0.180,-0.055
1038,-0.195,-0.065
1039,-0.195,-0.060
1040,-0.185,-0.065
1041,-0.195,-0.050
1042,-0.190,-0.050
1043,-0.180,-0.055
1044,-0.200,-0.060
1045,-0.205,-0.055
1046,-0.185,-0.065
1047,-0.180,-0.055
1048,-0.200,-0.060
1049,-0.190,-0.055
1050,-0.175,-0.050
1051,-0.190,-0.065
1052,-0.185,-0.065
1053,-0.180,-0.065
1054,-0.190,-0.070
1055,-0.175,-0.060
1056,-0.185,-0.080
1057,-0.180,-0.060
1058,-0.180,-0.065
1059,-0.180,-0.070
1060,-0.155,-0.065
1061,-0.155,-0.070
1062,-0.145,-0.065
1063,-0.155,-0.040
1064,-0.145,-0.055
1065,-0.145,-0.065
1066,-0.150,-0.060
1067,-0.180,-0.085
1068,-0.145,-0.100
1069,-0.150,-0.105
1070,-0.165,-0.085
1071,-0.155,-0.105
1072,-0.160,-0.090
1073,-0.165,-0.085
1074,-0.190,-0.075
1075,-0.200,-0.060
1076,-0.215,-0.055
1077,-0.195,-0.075
1078,-0.200,-0.075
1079,-0.200,-0.080
1080,-0.210,-0.080
1081,-0.195,-0.075
1082,-0.190,-0.070
1083,-0.200,-0.080
1084,-0.195,-0.075
1085,-0.220,-0.075
1086,-0.145,-0.065
1087,0.230,-0.035
1088,0.775,-0.085
1089,1.210,-0.175
1090,0.875,-0.380
1091,-0.080,-0.550
1092,-0.520,-0.590
1093,-0.550,-0.450
1094,-0.355,-0.275
1095,-0.265,-0.090
1096,-0.265,-0.005
1097,-0.265,0.000
1098,-0.265,0.000
1099,-0.265,-0.010
1100,-0.255,-0.025
1101,-0.255,-0.025
1102,-0.255,-0.020
1103,-0.260,-0.035
1104,-0.265,-0.035
1105,-0.270,-0.040
1106,-0.270,-0.040
1107,-0.260,-0.040
1108,-0.265,-0.050
1109,-0.275,-0.040
1110,-0.280,-0.040
1111,-0.275,-0.030
1112,-0.275,-0.035
1113,-0.280,-0.020
1114,-0.270,-0.025
1115,-0.275,-0.020
1116,-0.275,-0.010
1117,-0.265,-0.015
1118,-0.285,-0.010
1119,-0.290,0.000
1120,-0.285,0.000
1121,-0.285,0.000
1122,-0.280,-0.015
1123,-0.285,-0.015
1124,-0.275,-0.015
1125,-0.270,-0.015
1126,-0.250,-0.025
1127,-0.240,-0.020
1128,-0.225,-0.035
1129,-0.185,-0.030
1130,-0.180,-0.040
1131,-0.170,-0.040
1132,-0.140,-0.045
1133,-0.120,-0.055
1134,-0.130,-0.050
1135,-0.110,-0.040
1136,-0.130,-0.055
1137,-0.140,-0.050
1138,-0.150,-0.060
1139,-0.140,-0.055
1140,-0.150,-0.055
1141,-0.150,-0.060
1142,-0.150,-0.055
1143,-0.150,-0.060
1144,-0.150,-0.065
1145,-0.135,-0.050
1146,-0.125,-0.050
1147,-0.135,-0.045
1148,-0.130,-0.055
1149,-0.135,-0.060
1150,-0.130,-0.050
1151,-0.125,-0.050
1152,-0.110,-0.055
1153,-0.120,-0.040
1154,-0.100,-0.040
1155,-0.100,-0.030
1156,-0.110,-0.030
1157,-0.105,-0.035
1158,-0.090,-0.040
1159,-0.105,-0.040
1160,-0.120,-0.030
1161,-0.115,-0.035
1162,-0.115,-0.035
1163,-0.125,-0.045
1164,-0.115,-0.040
1165,-0.115,-0.040
1166,-0.130,-0.050
1167,-0.130,-0.050
1168,-0.135,-0.060
1169,-0.145,-0.060
1170,-0.135,-0.065
1171,-0.130,-0.055
1172,-0.140,-0.070
1173,-0.145,-0.065
1174,-0.135,-0.075
1175,-0.150,-0.065
1176,-0.145,-0.070
1177,-0.135,-0.060
1178,-0.150,-0.075
1179,-0.150,-0.065
1180,-0.135,-0.065
1181,-0.145,-0.055
1182,-0.145,-0.060
1183,-0.150,-0.070
1184,-0.155,-0.065
1185,-0.150,-0.065
1186,-0.145,-0.075
1187,-0.145,-0.070
1188,-0.150,-0.075
1189,-0.150,-0.075
1190,-0.155,-0.060
1191,-0.160,-0.065
1192,-0.155,-0.080
1193,-0.145,-0.075
1194,-0.145,-0.065
1195,-0.155,-0.060
1196,-0.155,-0.060
1197,-0.160,-0.075
1198,-0.165,-0.075
1199,-0.150,-0.075
1200,-0.155,-0.085
1201,-0.165,-0.065
1202,-0.170,-0.075
1203,-0.165,-0.080
1204,-0.150,-0.090
1205,-0.125,-0.095
1206,-0.125,-0.075
1207,-0.120,-0.070
1208,-0.120,-0.065
1209,-0.115,-0.065
1210,-0.135,-0.090
1211,-0.135,-0.110
1212,-0.120,-0.120
1213,-0.150,-0.120
1214,-0.145,-0.130
1215,-0.145,-0.130
1216,-0.150,-0.135
1217,-0.155,-0.120
1218,-0.150,-0.110
1219,-0.180,-0.110
1220,-0.190,-0.080
1221,-0.190,-0.090
1222,-0.195,-0.105
1223,-0.190,-0.100
1224,-0.185,-0.105
1225,-0.185,-0.095
1226,-0.185,-0.095
1227,-0.185,-0.090
1228,-0.180,-0.090
1229,-0.180,-0.095
1230,-0.180,-0.080
1231,0.050,-0.055
1232,0.505,-0.070
1233,1.005,-0.140
1234,1.010,-0.300
1235,0.190,-0.500
1236,-0.470,-0.630
1237,-0.555,-0.535
1238,-0.400,-0.340
1239,-0.290,-0.150
1240,-0.240,-0.020
1241,-0.255,-0.005
1242,-0.255,-0.015
1243,-0.240,-0.020
1244,-0.235,-0.030
1245,-0.245,-0.030
1246,-0.240,-0.050
1247,-0.235,-0.045
1248,-0.245,-0.060
1249,-0.235,-0.070
1250,-0.240,-0.065
1251,-0.255,-0.055
1252,-0.260,-0.060
1253,-0.245,-0.060
1254,-0.255,-0.060
1255,-0.270,-0.060
1256,-0.255,-0.060
1257,-0.260,-0.045
1258,-0.255,-0.055
1259,-0.250,-0.050
1260,-0.250,-0.045
1261,-0.270,-0.035
1262,-0.275,-0.050
1263,-0.275,-0.040
1264,-0.265,-0.050
1265,-0.260,-0.030
1266,-0.265,-0.035
1267,-0.260,-0.040
1268,-0.260,-0.045
1269,-0.245,-0.040
1270,-0.250,-0.060
1271,-0.230,-0.070
1272,-0.205,-0.060
1273,-0.195,-0.075
1274,-0.160,-0.070
1275,-0.135,-0.080
1276,-0.110,-0.080
1277,-0.110,-0.075
1278,-0.100,-0.085
1279,-0.105,-0.075
1280,-0.130,-0.090
1281,-0.110,-0.080
1282,-0.120,-0.065
1283,-0.140,-0.075
1284,-0.120,-0.065
1285,-0.135,-0.085
1286,-0.140,-0.070
1287,-0.115,-0.075
1288,-0.115,-0.085
1289,-0.115,-0.075
1290,-0.125,-0.080
1291,-0.120,-0.070
1292,-0.115,-0.075
1293,-0.120,-0.085
1294,-0.105,-0.080
1295,-0.115,-0.070
1296,-0.115,-0.075
1297,-0.100,-0.085
1298,-0.100,-0.065
1299,-0.100,-0.085
1300,-0.095,-0.080
1301,-0.090,-0.075
1302,-0.100,-0.065
1303,-0.100,-0.065
1304,-0.110,-0.085
1305,-0.130,-0.080
1306,-0.120,-0.070
1307,-0.120,-0.080
1308,-0.130,-0.075
1309,-0.115,-0.090
1310,-0.135,-0.100
1311,-0.135,-0.095
1312,-0.150,-0.095
1313,-0.150,-0.095
1314,-0.140,-0.095
1315,-0.145,-0.095
1316,-0.150,-0.110
1317,-0.145,-0.100
1318,-0.150,-0.110
1319,-0.150,-0.105
1320,-0.150,-0.110
1321,-0.155,-0.105
1322,-0.145,-0.115
1323,-0.130,-0.120
1324,-0.140,-0.115
1325,-0.140,-0.115
1326,-0.145,-0.120
1327,-0.155,-0.115
1328,-0.155,-0.115
1329,-0.150,-0.110
1330,-0.160,-0.105
1331,-0.160,-0.110
1332,-0.145,-0.120
1333,-0.165,-0.120
1334,-0.160,-0.120
1335,-0.155,-0.125
1336,-0.155,-0.120
1337,-0.170,-0.130
1338,-0.150,-0.115
1339,-0.165,-0.120
1340,-0.165,-0.130
1341,-0.170,-0.110
1342,-0.155,-0.115
1343,-0.170,-0.120
1344,-0.160,-0.125
1345,-0.150,-0.110
1346,-0.165,-0.110
1347,-0.170,-0.115
1348,-0.135,-0.115
1349,-0.140,-0.105
1350,-0.135,-0.095
1351,-0.115,-0.080
1352,-0.120,-0.095
1353,-0.135,-0.090
1354,-0.140,-0.110
1355,-0.140,-0.120
1356,-0.150,-0.130
1357,-0.145,-0.135
1358,-0.135,-0.135
1359,-0.135,-0.145
1360,-0.140,-0.125
1361,-0.130,-0.120
1362,-0.140,-0.110
1363,-0.180,-0.095
1364,-0.180,-0.085
1365,-0.185,-0.105
1366,-0.175,-0.090
1367,-0.170,-0.095
1368,-0.170,-0.095
1369,-0.185,-0.085
1370,-0.160,-0.100
1371,-0.170,-0.100
1372,-0.185,-0.105
1373,-0.195,-0.095
1374,-0.090,-0.085
1375,0.260,-0.060
1376,0.790,-0.100
1377,1.190,-0.195
1378,0.905,-0.380
1379,0.000,-0.580
1380,-0.510,-0.620
1381,-0.510,-0.480
1382,-0.320,-0.295
1383,-0.245,-0.110
1384,-0.225,-0.010
1385,-0.230,0.000
1386,-0.230,-0.015
1387,-0.235,-0.025
1388,-0.245,-0.035
1389,-0.225,-0.045
1390,-0.225,-0.045
1391,-0.230,-0.050
1392,-0.230,-0.040
1393,-0.230,-0.050
1394,-0.240,-0.050
1395,-0.225,-0.055
1396,-0.230,-0.055
1397,-0.235,-0.040
1398,-0.245,-0.040
1399,-0.225,-0.045
1400,-0.225,-0.040
1401,-0.230,-0.030
1402,-0.235,-0.025
1403,-0.230,-0.035
1404,-0.250,-0.020
1405,-0.230,-0.025
1406,-0.240,-0.020
1407,-0.250,-0.010
1408,-0.245,-0.005
1409,-0.235,-0.005
1410,-0.240,-0.005
1411,-0.230,0.000
1412,-0.220,-0.010
1413,-0.200,-0.025
1414,-0.205,-0.025
1415,-0.185,-0.035
1416,-0.170,-0.040
1417,-0.150,-0.040
1418,-0.120,-0.045
1419,-0.105,-0.055
1420,-0.085,-0.060
1421,-0.075,-0.055
1422,-0.080,-0.060
1423,-0.085,-0.050
1424,-0.080,-0.055
1425,-0.085,-0.060
1426,-0.110,-0.065
1427,-0.100,-0.060
1428,-0.110,-0.065
1429,-0.115,-0.055
1430,-0.110,-0.070
1431,-0.095,-0.055
1432,-0.120,-0.065
1433,-0.130,-0.055
1434,-0.105,-0.040
1435,-0.100,-0.050
1436,-0.105,-0.045
1437,-0.095,-0.035
1438,-0.105,-0.050
1439,-0.100,-0.050
1440,-0.090,-0.040
1441,-0.080,-0.035
1442,-0.085,-0.040
1443,-0.095,-0.030
1444,-0.075,-0.035
1445,-0.080,-0.030
1446,-0.095,-0.040
1447,-0.080,-0.040
1448,-0.090,-0.040
1449,-0.105,-0.050
1450,-0.100,-0.050
1451,-0.120,-0.055
1452,-0.120,-0.045
1453,-0.110,-0.050
1454,-0.130,-0.050
1455,-0.130,-0.060
1456,-0.120,-0.065
1457,-0.135,-0.060
1458,-0.145,-0.075
1459,-0.125,-0.065
1460,-0.135,-0.065
1461,-0.130,-0.060
1462,-0.135,-0.060
1463,-0.135,-0.070
1464,-0.145,-0.060
1465,-0.140,-0.075
1466,-0.140,-0.080
1467,-0.140,-0.070
1468,-0.145,-0.070
1469,-0.145,-0.075
1470,-0.150,-0.075
1471,-0.160,-0.070
1472,-0.160,-0.070
1473,-0.150,-0.065
1474,-0.160,-0.080
1475,-0.160,-0.065
1476,-0.160,-0.065
1477,-0.175,-0.065
1478,-0.165,-0.060
1479,-0.165,-0.065
1480,-0.160,-0.075
1481,-0.160,-0.075
1482,-0.160,-0.075
1483,-0.160,-0.075
1484,-0.155,-0.070
1485,-0.150,-0.070
1486,-0.170,-0.075
1487,-0.165,-0.065
1488,-0.155,-0.085
1489,-0.165,-0.070
1490,-0.160,-0.075
1491,-0.160,-0.080
1492,-0.160,-0.080
1493,-0.165,-0.080
1494,-0.125,-0.085
1495,-0.110,-0.080
1496,-0.115,-0.060
1497,-0.115,-0.055
1498,-0.110,-0.050
1499,-0.125,-0.055
1500,-0.130,-0.070
1501,-0.130,-0.100
1502,-0.125,-0.105
1503,-0.130,-0.110
1504,-0.120,-0.110
1505,-0.130,-0.115
1506,-0.130,-0.105
1507,-0.135,-0.090
1508,-0.145,-0.085
1509,-0.160,-0.060
1510,-0.160,-0.060
1511,-0.165,-0.075
1512,-0.160,-0.070
1513,-0.150,-0.065
1514,-0.155,-0.070
1515,-0.165,-0.070
1516,-0.140,-0.065
1517,-0.145,-0.085
1518,-0.165,-0.080
1519,-0.155,-0.080
1520,0.060,-0.045
1521,0.555,-0.060
1522,1.060,-0.130
1523,0.985,-0.305
1524,0.120,-0.505
1525,-0.445,-0.600
1526,-0.490,-0.495
1527,-0.345,-0.290
1528,-0.230,-0.105
1529,-0.205,-0.010
1530,-0.215,0.005
1531,-0.215,0.000
1532,-0.195,0.000
1533,-0.205,-0.005
1534,-0.195,-0.010
1535,-0.200,-0.015
1536,-0.200,-0.010
1537,-0.210,-0.020
1538,-0.205,-0.015
1539,-0.210,-0.025
1540,-0.210,-0.010
1541,-0.205,-0.015
1542,-0.230,-0.025
1543,-0.210,-0.020
1544,-0.205,-0.015
1545,-0.215,-0.020
1546,-0.220,-0.010
1547,-0.215,-0.020
1548,-0.215,-0.005
1549,-0.225,-0.015
1550,-0.235,-0.010
1551,-0.220,-0.005
1552,-0.225,0.000
1553,-0.245,-0.005
1554,-0.230,0.000
1555,-0.220,-0.010
1556,-0.230,-0.015
1557,-0.210,-0.015
1558,-0.225,-0.015
1559,-0.210,-0.025
1560,-0.180,-0.030
1561,-0.155,-0.040
1562,-0.145,-0.035
1563,-0.110,-0.045
1564,-0.090,-0.050
1565,-0.080,-0.045
1566,-0.065,-0.045
1567,-0.070,-0.045
1568,-0.070,-0.050
1569,-0.075,-0.045
1570,-0.075,-0.055
1571,-0.090,-0.045
1572,-0.105,-0.045
1573,-0.095,-0.055
1574,-0.110,-0.065
1575,-0.110,-0.070
1576,-0.095,-0.060
1577,-0.105,-0.065
1578,-0.100,-0.050
1579,-0.100,-0.050
1580,-0.105,-0.045
1581,-0.095,-0.065
1582,-0.095,-0.050
1583,-0.090,-0.055
1584,-0.080,-0.060
1585,-0.070,-0.060
1586,-0.075,-0.045
1587,-0.080,-0.050
1588,-0.065,-0.050
1589,-0.085,-0.065
1590,-0.070,-0.075
1591,-0.085,-0.085
1592,-0.080,-0.075
1593,-0.105,-0.090
1594,-0.095,-0.090
1595,-0.100,-0.085
1596,-0.110,-0.085
1597,-0.115,-0.090
1598,-0.105,-0.100
1599,-0.110,-0.090
1600,-0.110,-0.095
1601,-0.115,-0.090
1602,-0.130,-0.095
1603,-0.130,-0.100
1604,-0.135,-0.080
1605,-0.135,-0.090
1606,-0.135,-0.080
1607,-0.130,-0.095
1608,-0.135,-0.090
1609,-0.135,-0.080
1610,-0.140,-0.080
1611,-0.135,-0.080
1612,-0.145,-0.075
1613,-0.140,-0.080
1614,-0.135,-0.080
1615,-0.140,-0.080
1616,-0.145,-0.080
1617,-0.120,-0.080
1618,-0.150,-0.085
1619,-0.145,-0.075
1620,-0.140,-0.085
1621,-0.145,-0.085
1622,-0.150,-0.085
1623,-0.150,-0.085
1624,-0.150,-0.085
1625,-0.145,-0.080
1626,-0.155,-0.085
1627,-0.155,-0.075
1628,-0.160,-0.090
1629,-0.155,-0.080
1630,-0.155,-0.075
1631,-0.150,-0.070
1632,-0.145,-0.080
1633,-0.150,-0.080
1634,-0.145,-0.080
1635,-0.160,-0.080
1636,-0.145,-0.065
1637,-0.145,-0.070
1638,-0.125,-0.075
1639,-0.100,-0.055
1640,-0.100,-0.035
1641,-0.100,-0.040
1642,-0.085,-0.040
1643,-0.100,-0.040
1644,-0.115,-0.070
1645,-0.115,-0.085
1646,-0.110,-0.080
1647,-0.110,-0.090
1648,-0.115,-0.085
1649,-0.100,-0.090
1650,-0.110,-0.085
1651,-0.120,-0.060
1652,-0.120,-0.050
1653,-0.145,-0.035
1654,-0.145,-0.050
1655,-0.140,-0.050
1656,-0.140,-0.060
1657,-0.140,-0.055
1658,-0.120,-0.050
1659,-0.120,-0.035
1660,-0.125,-0.050
1661,-0.125,-0.060
1662,-0.150,-0.050
1663,-0.115,-0.025
1664,0.160,-0.010
1665,0.675,-0.025
1666,1.145,-0.100
1667,1.090,-0.295
1668,0.195,-0.475
1669,-0.420,-0.575
1670,-0.490,-0.475
1671,-0.325,-0.270
1672,-0.205,-0.090
1673,-0.180,0.010
1674,-0.180,0.035
1675,-0.185,0.025
1676,-0.180,0.020
1677,-0.180,0.020
1678,-0.170,0.005
1679,-0.185,0.010
1680,-0.185,0.005
1681,-0.190,0.000
1682,-0.190,0.000
1683,-0.185,-0.005
1684,-0.185,-0.010
1685,-0.210,0.000
1686,-0.205,-0.015
1687,-0.210,-0.010
1688,-0.200,-0.010
1689,-0.195,0.000
1690,-0.190,0.000
1691,-0.200,0.000
1692,-0.205,0.005
1693,-0.200,0.000
1694,-0.200,0.005
1695,-0.220,0.005
1696,-0.215,0.015
1697,-0.210,0.010
1698,-0.225,0.010
1699,-0.210,0.010
1700,-0.200,0.005
1701,-0.215,0.005
1702,-0.200,0.000
1703,-0.190,-0.020
1704,-0.180,-0.015
1705,-0.170,-0.030
1706,-0.135,-0.045
1707,-0.125,-0.060
1708,-0.110,-0.060
1709,-0.075,-0.060
1710,-0.070,-0.065
1711,-0.075,-0.065
1712,-0.050,-0.070
1713,-0.060,-0.065
1714,-0.080,-0.075
1715,-0.085,-0.075
1716,-0.090,-0.070
1717,-0.095,-0.070
1718,-0.105,-0.075
1719,-0.100,-0.070
1720,-0.110,-0.070
1721,-0.110,-0.065
1722,-0.095,-0.060
1723,-0.105,-0.065
1724,-0.115,-0.075
1725,-0.105,-0.065
1726,-0.095,-0.075
1727,-0.110,-0.075
1728,-0.075,-0.070
1729,-0.095,-0.070
1730,-0.085,-0.065
1731,-0.080,-0.070
1732,-0.080,-0.060
1733,-0.080,-0.050
1734,-0.085,-0.065
1735,-0.085,-0.060
1736,-0.090,-0.070
1737,-0.090,-0.080
1738,-0.100,-0.065
1739,-0.095,-0.065
1740,-0.100,-0.075
1741,-0.100,-0.070
1742,-0.110,-0.080
1743,-0.120,-0.085
1744,-0.110,-0.085
1745,-0.115,-0.085
1746,-0.125,-0.085
1747,-0.120,-0.090
1748,-0.125,-0.085
1749,-0.130,-0.090
1750,-0.140,-0.090
1751,-0.130,-0.095
1752,-0.130,-0.070
1753,-0.130,-0.085
1754,-0.125,-0.080
1755,-0.140,-0.095
1756,-0.140,-0.085
1757,-0.140,-0.085
1758,-0.140,-0.080
1759,-0.150,-0.080
1760,-0.145,-0.075
1761,-0.145,-0.075
1762,-0.150,-0.080
1763,-0.135,-0.075
1764,-0.145,-0.070
1765,-0.145,-0.070
1766,-0.155,-0.055
1767,-0.140,-0.055
1768,-0.135,-0.055
1769,-0.135,-0.050
1770,-0.130,-0.055
1771,-0.160,-0.060
1772,-0.150,-0.050
1773,-0.130,-0.045
1774,-0.155,-0.035
1775,-0.140,-0.060
1776,-0.145,-0.050
1777,-0.145,-0.060
1778,-0.145,-0.040
1779,-0.155,-0.055
1780,-0.145,-0.050
1781,-0.150,-0.045
1782,-0.135,-0.060
1783,-0.140,-0.050
1784,-0.115,-0.050
1785,-0.095,-0.055
1786,-0.080,-0.040
1787,-0.090,-0.020
1788,-0.080,-0.015
1789,-0.070,-0.040
1790,-0.100,-0.045
1791,-0.105,-0.055
1792,-0.095,-0.090
1793,-0.105,-0.085
1794,-0.080,-0.070
1795,-0.095,-0.075
1796,-0.095,-0.065
1797,-0.075,-0.065
1798,-0.100,-0.050
1799,-0.120,-0.025
1800,-0.135,-0.030
1801,-0.125,-0.030
1802,-0.120,-0.040
1803,-0.125,-0.035
1804,-0.125,-0.030
1805,-0.125,-0.045
1806,-0.115,-0.030
1807,-0.115,-0.035
1808,-0.110,-0.035
1809,-0.130,-0.040
1810,-0.085,-0.030
1811,0.185,0.000
1812,0.690,-0.010
1813,1.130,-0.100
1814,0.970,-0.305
1815,0.075,-0.490
1816,-0.430,-0.570
1817,-0.450,-0.475
1818,-0.305,-0.250
1819,-0.205,-0.090
1820,-0.185,0.000
1821,-0.185,0.005
1822,-0.200,0.005
1823,-0.195,-0.005
1824,-0.185,0.000
1825,-0.210,-0.015
1826,-0.200,-0.025
1827,-0.200,-0.025
1828,-0.205,-0.035
1829,-0.215,-0.025
1830,-0.210,-0.025
1831,-0.225,-0.030
1832,-0.210,-0.030
1833,-0.225,-0.055
1834,-0.220,-0.055
1835,-0.225,-0.040
1836,-0.220,-0.035
1837,-0.240,-0.040
1838,-0.225,-0.035
1839,-0.235,-0.035
1840,-0.235,-0.020
1841,-0.235,-0.020
1842,-0.235,-0.005
1843,-0.250,-0.010
1844,-0.250,-0.005
1845,-0.230,-0.005
1846,-0.245,-0.015
1847,-0.245,-0.015
1848,-0.235,-0.020
1849,-0.230,-0.030
1850,-0.220,-0.030
1851,-0.190,-0.045
1852,-0.170,-0.055
1853,-0.160,-0.075
1854,-0.135,-0.070
1855,-0.110,-0.075
1856,-0.110,-0.095
1857,-0.100,-0.080
1858,-0.085,-0.075
1859,-0.095,-0.085
1860,-0.100,-0.090
1861,-0.115,-0.080
1862,-0.110,-0.070
1863,-0.125,-0.100
1864,-0.135,-0.090
1865,-0.135,-0.085
1866,-0.140,-0.095
1867,-0.135,-0.080
1868,-0.140,-0.090
1869,-0.145,-0.090
1870,-0.125,-0.085
1871,-0.125,-0.080
1872,-0.145,-0.080
1873,-0.135,-0.085
1874,-0.130,-0.070
1875,-0.120,-0.075
1876,-0.110,-0.070
1877,-0.120,-0.070
1878,-0.120,-0.070
1879,-0.110,-0.065
1880,-0.120,-0.075
1881,-0.135,-0.080
1882,-0.120,-0.080
1883,-0.115,-0.075
1884,-0.125,-0.080
1885,-0.135,-0.080
1886,-0.135,-0.080
1887,-0.140,-0.075
1888,-0.135,-0.080
1889,-0.145,-0.070
1890,-0.145,-0.070
1891,-0.145,-0.070
1892,-0.160,-0.085
1893,-0.145,-0.080
1894,-0.145,-0.090
1895,-0.150,-0.080
1896,-0.140,-0.095
1897,-0.150,-0.100
1898,-0.155,-0.100
1899,-0.155,-0.090
1900,-0.160,-0.085
1901,-0.165,-0.085
1902,-0.160,-0.075
1903,-0.165,-0.070
1904,-0.170,-0.075
1905,-0.160,-0.085
1906,-0.160,-0.075
1907,-0.180,-0.085
1908,-0.165,-0.090
1909,-0.165,-0.090
1910,-0.175,-0.085
1911,-0.175,-0.080
1912,-0.165,-0.075
1913,-0.175,-0.085
1914,-0.155,-0.080
1915,-0.145,-0.090
1916,-0.160,-0.085
1917,-0.160,-0.075
1918,-0.150,-0.075
1919,-0.160,-0.085
1920,-0.175,-0.090
1921,-0.155,-0.075
1922,-0.150,-0.070
1923,-0.140,-0.070
1924,-0.150,-0.085
1925,-0.145,-0.075
1926,-0.140,-0.075
1927,-0.135,-0.065
1928,-0.135,-0.080
1929,-0.140,-0.075
1930,-0.120,-0.065
1931,-0.100,-0.075
1932,-0.105,-0.050
1933,-0.095,-0.040
1934,-0.080,-0.040
1935,-0.090,-0.050
1936,-0.090,-0.070
1937,-0.105,-0.090
1938,-0.110,-0.105
1939,-0.120,-0.105
1940,-0.115,-0.095
1941,-0.110,-0.090
1942,-0.115,-0.090
1943,-0.090,-0.080
1944,-0.120,-0.075
1945,-0.130,-0.050
1946,-0.145,-0.040
1947,-0.155,-0.045
1948,-0.150,-0.045
1949,-0.140,-0.050
1950,-0.140,-0.050
1951,-0.150,-0.045
1952,-0.130,-0.045
1953,-0.130,-0.045
1954,-0.130,-0.045
1955,-0.150,-0.045
1956,-0.130,-0.050
1957,0.110,-0.015
1958,0.595,-0.015
1959,1.075,-0.095
1960,1.070,-0.270
1961,0.195,-0.470
1962,-0.430,-0.580
1963,-0.500,-0.490
1964,-0.350,-0.285
1965,-0.215,-0.100
1966,-0.195,0.010
1967,-0.215,0.035
1968,-0.210,0.010
1969,-0.210,0.005
1970,-0.215,0.000
1971,-0.210,0.000
1972,-0.200,-0.010
1973,-0.225,0.000
1974,-0.215,-0.005
1975,-0.205,-0.015
1976,-0.225,-0.015
1977,-0.225,-0.005
1978,-0.230,-0.015
1979,-0.225,-0.015
1980,-0.225,-0.015
1981,-0.220,-0.025
1982,-0.225,-0.030
1983,-0.245,-0.010
1984,-0.235,-0.035
1985,-0.240,-0.015
1986,-0.250,-0.015
1987,-0.235,-0.015
1988,-0.240,0.000
1989,-0.260,-0.005
1990,-0.260,0.000
1991,-0.250,0.000
1992,-0.260,0.000
1993,-0.250,0.000
1994,-0.240,-0.015
1995,-0.235,-0.015
1996,-0.225,-0.020
1997,-0.215,-0.025
1998,-0.200,-0.030
1999,-0.190,-0.040
2000,-0.155,-0.050
2001,-0.120,-0.060
2002,-0.115,-0.050
2003,-0.095,-0.055
2004,-0.105,-0.055
2005,-0.105,-0.070
2006,-0.120,-0.060
2007,-0.110,-0.060
2008,-0.125,-0.055
2009,-0.135,-0.065
2010,-0.130,-0.060
2011,-0.130,-0.065
2012,-0.150,-0.065
2013,-0.135,-0.055
2014,-0.140,-0.075
2015,-0.140,-0.060
2016,-0.135,-0.070
2017,-0.125,-0.050
2018,-0.140,-0.060
2019,-0.125,-0.055
2020,-0.125,-0.055
2021,-0.120,-0.055
2022,-0.115,-0.050
2023,-0.125,-0.045
2024,-0.130,-0.045
2025,-0.115,-0.040
2026,-0.100,-0.040
2027,-0.110,-0.040
2028,-0.110,-0.040
2029,-0.115,-0.040
2030,-0.115,-0.040
2031,-0.125,-0.055
2032,-0.125,-0.045
2033,-0.120,-0.045
2034,-0.145,-0.060
2035,-0.135,-0.045
2036,-0.145,-0.040
2037,-0.140,-0.045
2038,-0.145,-0.045
2039,-0.145,-0.055
2040,-0.140,-0.050
2041,-0.150,-0.060
2042,-0.145,-0.065
2043,-0.150,-0.060
2044,-0.145,-0.060
2045,-0.150,-0.045
2046,-0.145,-0.050
2047,-0.155,-0.060
2048,-0.155,-0.055
2049,-0.140,-0.055
2050,-0.145,-0.050
2051,-0.150,-0.035
2052,-0.145,-0.050
2053,-0.155,-0.050
2054,-0.145,-0.055
2055,-0.150,-0.040
2056,-0.150,-0.040
2057,-0.145,-0.030
2058,-0.140,-0.040
2059,-0.150,-0.035
2060,-0.130,-0.040
2061,-0.140,-0.040
2062,-0.150,-0.040
2063,-0.135,-0.045
2064,-0.125,-0.050
2065,-0.140,-0.030
2066,-0.140,-0.030
2067,-0.125,-0.050
2068,-0.140,-0.045
2069,-0.150,-0.050
2070,-0.130,-0.045
2071,-0.135,-0.040
2072,-0.130,-0.045
2073,-0.145,-0.050
2074,-0.150,-0.050
2075,-0.140,-0.050
2076,-0.130,-0.070
2077,-0.125,-0.040
2078,-0.120,-0.045
2079,-0.105,-0.055
2080,-0.095,-0.030
2081,-0.100,-0.015
2082,-0.095,-0.020
2083,-0.090,-0.025
2084,-0.100,-0.035
2085,-0.125,-0.070
2086,-0.110,-0.075
2087,-0.115,-0.075
2088,-0.110,-0.085
2089,-0.100,-0.080
2090,-0.110,-0.070
2091,-0.095,-0.075
2092,-0.105,-0.055
2093,-0.145,-0.040
2094,-0.140,-0.040
2095,-0.145,-0.050
2096,-0.150,-0.050
2097,-0.155,-0.045
2098,-0.140,-0.040
2099,-0.145,-0.055
2100,-0.150,-0.060
2101,-0.135,-0.065
2102,-0.145,-0.070
2103,-0.160,-0.065
2104,-0.035,-0.040
2105,0.350,-0.030
2106,0.850,-0.075
2107,1.180,-0.185
2108,0.700,-0.390
2109,-0.190,-0.550
2110,-0.490,-0.555
2111,-0.425,-0.370
2112,-0.275,-0.175
2113,-0.215,-0.025
2114,-0.215,0.000
2115,-0.225,0.000
2116,-0.230,-0.005
2117,-0.220,-0.015
2118,-0.225,-0.015
2119,-0.220,-0.025
2120,-0.230,-0.025
2121,-0.235,-0.020
2122,-0.250,-0.030
2123,-0.235,-0.030
2124,-0.245,-0.030
2125,-0.250,-0.015
2126,-0.240,-0.025
2127,-0.245,-0.030
2128,-0.260,-0.015
2129,-0.255,-0.020
2130,-0.255,-0.020
2131,-0.260,-0.020
2132,-0.250,-0.025
2133,-0.255,-0.005
2134,-0.265,-0.005
2135,-0.265,-0.020
2136,-0.260,-0.005
2137,-0.270,-0.015
2138,-0.275,-0.015
2139,-0.270,-0.010
2140,-0.260,-0.015
2141,-0.270,-0.015
2142,-0.260,-0.030
2143,-0.250,-0.045
2144,-0.245,-0.035
2145,-0.215,-0.045
2146,-0.190,-0.055
2147,-0.185,-0.060
2148,-0.150,-0.070
2149,-0.120,-0.060
2150,-0.135,-0.080
2151,-0.115,-0.070
2152,-0.105,-0.070
2153,-0.110,-0.070
2154,-0.110,-0.065
2155,-0.110,-0.065
2156,-0.130,-0.075
2157,-0.135,-0.075
2158,-0.135,-0.080
2159,-0.145,-0.065
2160,-0.155,-0.075
2161,-0.130,-0.070
2162,-0.140,-0.065
2163,-0.150,-0.075
2164,-0.125,-0.075
2165,-0.135,-0.065
2166,-0.140,-0.070
2167,-0.130,-0.080
2168,-0.145,-0.080
2169,-0.125,-0.075
2170,-0.115,-0.075
2171,-0.110,-0.060
2172,-0.115,-0.060
2173,-0.105,-0.050
2174,-0.110,-0.060
2175,-0.100,-0.060
2176,-0.125,-0.045
2177,-0.110,-0.055
2178,-0.115,-0.055
2179,-0.120,-0.035
2180,-0.110,-0.055
2181,-0.120,-0.050
2182,-0.120,-0.045
2183,-0.115,-0.040
2184,-0.130,-0.045
2185,-0.130,-0.040
2186,-0.130,-0.045
2187,-0.130,-0.035
2188,-0.130,-0.045
2189,-0.130,-0.035
2190,-0.125,-0.045
2191,-0.140,-0.055
2192,-0.140,-0.035
2193,-0.135,-0.045
2194,-0.145,-0.045
2195,-0.140,-0.055
2196,-0.140,-0.035
2197,-0.150,-0.040
2198,-0.140,-0.055
2199,-0.135,-0.050
2200,-0.125,-0.055
2201,-0.135,-0.045
2202,-0.135,-0.045
2203,-0.130,-0.045
2204,-0.140,-0.060
2205,-0.125,-0.055
2206,-0.130,-0.060
2207,-0.135,-0.055
2208,-0.130,-0.055
2209,-0.130,-0.055
2210,-0.135,-0.070
2211,-0.130,-0.045
2212,-0.135,-0.065
2213,-0.140,-0.050
2214,-0.135,-0.055
2215,-0.120,-0.060
2216,-0.135,-0.045
2217,-0.120,-0.050
2218,-0.135,-0.060
2219,-0.125,-0.060
2220,-0.135,-0.060
2221,-0.125,-0.065
2222,-0.125,-0.060
2223,-0.135,-0.065
2224,-0.125,-0.060
2225,-0.130,-0.065
2226,-0.120,-0.055
2227,-0.095,-0.055
2228,-0.080,-0.035
2229,-0.090,-0.025
2230,-0.085,-0.030
2231,-0.080,-0.045
2232,-0.100,-0.050
2233,-0.105,-0.070
2234,-0.095,-0.100
2235,-0.100,-0.085
2236,-0.090,-0.090
2237,-0.095,-0.090
2238,-0.100,-0.090
2239,-0.110,-0.080
2240,-0.115,-0.070
2241,-0.135,-0.065
2242,-0.155,-0.055
2243,-0.145,-0.055
2244,-0.145,-0.065
2245,-0.150,-0.055
2246,-0.135,-0.065
2247,-0.125,-0.075
2248,-0.135,-0.070
2249,-0.135,-0.070
2250,-0.140,-0.075
2251,-0.160,-0.070
2252,-0.065,-0.060
2253,0.290,-0.040
2254,0.800,-0.070
2255,1.195,-0.180
2256,0.935,-0.375
2257,-0.020,-0.555
2258,-0.525,-0.600
2259,-0.490,-0.475
2260,-0.315,-0.275
2261,-0.220,-0.075
2262,-0.205,0.000
2263,-0.210,0.015
2264,-0.220,0.000
2265,-0.210,-0.005
2266,-0.210,-0.005
2267,-0.220,-0.010
2268,-0.215,-0.020
2269,-0.215,-0.015
2270,-0.215,-0.020
2271,-0.220,-0.015
2272,-0.200,-0.030
2273,-0.220,-0.040
2274,-0.230,-0.030
2275,-0.220,-0.025
2276,-0.230,-0.025
2277,-0.235,-0.025
2278,-0.225,-0.025
2279,-0.235,-0.015
2280,-0.240,-0.020
2281,-0.220,-0.010
2282,-0.230,0.000
2283,-0.230,-0.005
2284,-0.240,-0.005
2285,-0.225,0.000
2286,-0.230,0.000
2287,-0.235,0.000
2288,-0.235,0.000
2289,-0.250,-0.005
2290,-0.240,-0.005
2291,-0.225,-0.010
2292,-0.210,-0.005
2293,-0.210,-0.010
2294,-0.170,-0.030
2295,-0.155,-0.025
2296,-0.140,-0.040
2297,-0.125,-0.040
2298,-0.095,-0.055
2299,-0.080,-0.035
2300,-0.080,-0.040
2301,-0.080,-0.040
2302,-0.095,-0.055
2303,-0.090,-0.045
2304,-0.090,-0.050
2305,-0.110,-0.040
2306,-0.125,-0.035
2307,-0.115,-0.055
2308,-0.115,-0.040
2309,-0.115,-0.055
2310,-0.110,-0.045
2311,-0.115,-0.035
2312,-0.130,-0.040
2313,-0.115,-0.045
2314,-0.105,-0.040
2315,-0.110,-0.030
2316,-0.100,-0.035
2317,-0.095,-0.040
2318,-0.100,-0.035
2319,-0.090,-0.040
2320,-0.080,-0.045
2321,-0.100,-0.030
2322,-0.095,-0.020
2323,-0.090,-0.035
2324,-0.090,-0.035
2325,-0.110,-0.035
2326,-0.095,-0.040
2327,-0.100,-0.035
2328,-0.110,-0.055
2329,-0.110,-0.050
2330,-0.120,-0.045
2331,-0.125,-0.040
2332,-0.125,-0.040
2333,-0.115,-0.055
2334,-0.125,-0.055
2335,-0.125,-0.065
2336,-0.120,-0.060
2337,-0.125,-0.060
2338,-0.130,-0.065
2339,-0.125,-0.060
2340,-0.135,-0.060
2341,-0.135,-0.055
2342,-0.125,-0.060
2343,-0.120,-0.050
2344,-0.140,-0.055
2345,-0.135,-0.050
2346,-0.135,-0.065
2347,-0.135,-0.070
2348,-0.120,-0.065
2349,-0.125,-0.075
2350,-0.150,-0.055
2351,-0.145,-0.075
2352,-0.135,-0.065
2353,-0.140,-0.070
2354,-0.130,-0.065
2355,-0.130,-0.065
2356,-0.125,-0.055
2357,-0.135,-0.070
2358,-0.140,-0.055
2359,-0.140,-0.065
2360,-0.140,-0.065
2361,-0.135,-0.075
2362,-0.135,-0.065
2363,-0.145,-0.075
2364,-0.120,-0.060
2365,-0.140,-0.065
2366,-0.130,-0.070
2367,-0.125,-0.075
2368,-0.150,-0.065
2369,-0.150,-0.060
2370,-0.145,-0.070
2371,-0.145,-0.070
2372,-0.140,-0.070
2373,-0.135,-0.075
2374,-0.130,-0.090
2375,-0.115,-0.075
2376,-0.110,-0.070
2377,-0.100,-0.045
2378,-0.115,-0.035
2379,-0.095,-0.055
2380,-0.100,-0.055
2381,-0.115,-0.075
2382,-0.120,-0.100
2383,-0.105,-0.090
2384,-0.115,-0.095
2385,-0.105,-0.110
2386,-0.100,-0.115
2387,-0.115,-0.100
2388,-0.120,-0.075
2389,-0.120,-0.070
2390,-0.130,-0.060
2391,-0.145,-0.040
2392,-0.145,-0.060
2393,-0.130,-0.070
2394,-0.140,-0.075
2395,-0.145,-0.065
2396,-0.145,-0.065
2397,-0.140,-0.065
2398,-0.140,-0.060
2399,-0.135,-0.070
2400,-0.145,-0.060
2401,0.070,-0.035
2402,0.555,-0.045
2403,1.050,-0.100
2404,1.145,-0.255
2405,0.415,-0.440
2406,-0.340,-0.570
2407,-0.500,-0.510
2408,-0.375,-0.305
2409,-0.230,-0.125
2410,-0.205,-0.015
2411,-0.205,0.010
2412,-0.210,0.005
2413,-0.220,-0.010
2414,-0.205,-0.020
2415,-0.195,-0.010
2416,-0.215,-0.025
2417,-0.205,-0.025
2418,-0.205,-0.020
2419,-0.215,-0.020
2420,-0.215,-0.020
2421,-0.195,-0.020
2422,-0.215,-0.035
2423,-0.245,-0.030
2424,-0.235,-0.015
2425,-0.225,-0.010
2426,-0.230,-0.015
2427,-0.230,-0.005
2428,-0.220,0.000
2429,-0.215,-0.010
2430,-0.215,0.000
2431,-0.235,0.005
2432,-0.240,0.005
2433,-0.235,0.010
2434,-0.230,0.000
2435,-0.235,0.005
2436,-0.230,0.015
2437,-0.215,0.000
2438,-0.225,-0.005
2439,-0.215,-0.005
2440,-0.200,-0.010
2441,-0.175,-0.010
2442,-0.170,-0.005
2443,-0.135,-0.020
2444,-0.115,-0.025
2445,-0.100,-0.020
2446,-0.085,-0.035
2447,-0.070,-0.030
2448,-0.070,-0.030
2449,-0.055,-0.030
2450,-0.070,-0.020
2451,-0.090,-0.035
2452,-0.095,-0.040
2453,-0.100,-0.025
2454,-0.100,-0.030
2455,-0.115,-0.030
2456,-0.110,-0.040
2457,-0.115,-0.035
2458,-0.105,-0.035
2459,-0.110,-0.030
2460,-0.100,-0.035
2461,-0.105,-0.040
2462,-0.095,-0.040
2463,-0.100,-0.025
2464,-0.100,-0.035
2465,-0.085,-0.035
2466,-0.080,-0.035
2467,-0.075,-0.030
2468,-0.085,-0.020
2469,-0.085,-0.020
2470,-0.085,-0.030
2471,-0.070,-0.020
2472,-0.070,-0.025
2473,-0.090,-0.030
2474,-0.090,-0.020
2475,-0.085,-0.030
2476,-0.085,-0.025
2477,-0.090,-0.040
2478,-0.090,-0.030
2479,-0.100,-0.025
2480,-0.095,-0.030
2481,-0.105,-0.030
2482,-0.105,-0.030
2483,-0.115,-0.030
2484,-0.105,-0.045
2485,-0.115,-0.045
2486,-0.125,-0.040
2487,-0.125,-0.040
2488,-0.120,-0.050
2489,-0.130,-0.050
2490,-0.105,-0.050
2491,-0.130,-0.050
2492,-0.135,-0.045
2493,-0.135,-0.045
2494,-0.120,-0.045
2495,-0.130,-0.035
2496,-0.130,-0.055
2497,-0.140,-0.050
2498,-0.140,-0.045
2499,-0.150,-0.045
2500,-0.145,-0.055
2501,-0.150,-0.065
2502,-0.145,-0.055
2503,-0.140,-0.060
2504,-0.140,-0.045
2505,-0.150,-0.050
2506,-0.145,-0.055
2507,-0.140,-0.060
2508,-0.155,-0.055
2509,-0.135,-0.060
2510,-0.145,-0.060
2511,-0.140,-0.065
2512,-0.125,-0.055
2513,-0.145,-0.060
2514,-0.140,-0.050
2515,-0.145,-0.040
2516,-0.140,-0.060
2517,-0.150,-0.050
2518,-0.145,-0.055
2519,-0.125,-0.065
2520,-0.135,-0.050
2521,-0.130,-0.055
2522,-0.120,-0.045
2523,-0.105,-0.050
2524,-0.095,-0.035
2525,-0.090,-0.030
2526,-0.100,-0.015
2527,-0.105,-0.040
2528,-0.115,-0.045
2529,-0.130,-0.060
2530,-0.115,-0.085
2531,-0.125,-0.080
2532,-0.120,-0.090
2533,-0.115,-0.080
2534,-0.110,-0.090
2535,-0.110,-0.075
2536,-0.140,-0.050
2537,-0.145,-0.025
2538,-0.140,-0.030
2539,-0.140,-0.020
2540,-0.155,-0.035
2541,-0.150,-0.040
2542,-0.155,-0.020
2543,-0.130,-0.035
2544,-0.125,-0.040
2545,-0.155,-0.035
2546,-0.145,-0.045
2547,-0.150,-0.040
2548,-0.090,-0.040
2549,0.220,-0.005
2550,0.745,-0.025
2551,1.135,-0.145
2552,0.800,-0.350
2553,-0.095,-0.535
2554,-0.520,-0.580
2555,-0.495,-0.445
2556,-0.305,-0.230
2557,-0.215,-0.055
2558,-0.220,0.035
2559,-0.205,0.025
2560,-0.195,0.020
2561,-0.210,0.020
2562,-0.205,0.010
2563,-0.200,0.000
2564,-0.210,0.010
2565,-0.220,-0.010
2566,-0.200,-0.005
2567,-0.215,-0.010
2568,-0.205,-0.005
2569,-0.200,-0.010
2570,-0.215,-0.010
2571,-0.215,-0.010
2572,-0.210,-0.010
2573,-0.215,-0.010
2574,-0.230,0.000
2575,-0.220,-0.005
2576,-0.210,0.000
2577,-0.220,0.005
2578,-0.210,0.010
2579,-0.225,0.015
2580,-0.230,0.015
2581,-0.225,0.025
2582,-0.230,0.020
2583,-0.240,0.020
2584,-0.230,0.010
2585,-0.225,0.015
2586,-0.235,0.010
2587,-0.225,0.005
2588,-0.215,0.000
2589,-0.200,0.000
2590,-0.175,0.000
2591,-0.150,-0.015
2592,-0.145,-0.015
2593,-0.120,-0.020
2594,-0.110,-0.035
2595,-0.090,-0.040
2596,-0.080,-0.040
2597,-0.095,-0.035
2598,-0.090,-0.025
2599,-0.100,-0.040
2600,-0.120,-0.040
2601,-0.110,-0.035
2602,-0.130,-0.045
2603,-0.125,-0.040
2604,-0.115,-0.035
2605,-0.145,-0.040
2606,-0.140,-0.035
2607,-0.140,-0.030
2608,-0.135,-0.025
2609,-0.130,-0.020
2610,-0.110,-0.020
2611,-0.120,-0.025
2612,-0.125,-0.015
2613,-0.120,-0.020
2614,-0.125,-0.020
2615,-0.125,-0.020
2616,-0.115,-0.015
2617,-0.110,-0.035
2618,-0.115,-0.020
2619,-0.115,-0.020
2620,-0.120,-0.015
2621,-0.125,-0.025
2622,-0.120,-0.025
2623,-0.125,-0.020
2624,-0.145,-0.040
2625,-0.140,-0.020
2626,-0.130,-0.030
2627,-0.150,-0.035
2628,-0.150,-0.040
2629,-0.140,-0.025
2630,-0.135,-0.030
2631,-0.170,-0.035
2632,-0.160,-0.050
2633,-0.160,-0.065
2634,-0.160,-0.060
2635,-0.160,-0.060
2636,-0.170,-0.065
2637,-0.170,-0.055
2638,-0.170,-0.050
2639,-0.175,-0.050
2640,-0.170,-0.060
2641,-0.180,-0.055
2642,-0.175,-0.060
2643,-0.175,-0.050
2644,-0.190,-0.055
2645,-0.175,-0.055
2646,-0.175,-0.050
2647,-0.185,-0.055
2648,-0.180,-0.055
2649,-0.180,-0.055
2650,-0.190,-0.050
2651,-0.170,-0.055
2652,-0.170,-0.075
2653,-0.175,-0.055
2654,-0.180,-0.050
2655,-0.170,-0.045
2656,-0.165,-0.045
2657,-0.180,-0.060
2658,-0.170,-0.050
2659,-0.180,-0.050
2660,-0.185,-0.060
2661,-0.175,-0.060
2662,-0.175,-0.050
2663,-0.180,-0.055
2664,-0.165,-0.060
2665,-0.170,-0.065
2666,-0.170,-0.065
2667,-0.160,-0.055
2668,-0.170,-0.055
2669,-0.170,-0.065
2670,-0.145,-0.060
2671,-0.135,-0.055
2672,-0.125,-0.035
2673,-0.135,-0.025
2674,-0.115,-0.040
2675,-0.145,-0.040
2676,-0.150,-0.060
2677,-0.135,-0.070
2678,-0.155,-0.095
2679,-0.135,-0.080
2680,-0.145,-0.075
2681,-0.145,-0.090
2682,-0.145,-0.075
2683,-0.145,-0.055
2684,-0.165,-0.055
2685,-0.180,-0.035
2686,-0.170,-0.045
2687,-0.180,-0.055
2688,-0.170,-0.060
2689,-0.175,-0.055
2690,-0.160,-0.060
2691,-0.160,-0.040
2692,-0.165,-0.045
2693,-0.150,-0.055
2694,-0.170,-0.045
2695,-0.160,-0.050
2696,0.025,-0.020
2697,0.510,-0.010
2698,1.010,-0.070
2699,1.100,-0.210
2700,0.325,-0.415
2701,-0.395,-0.545
2702,-0.520,-0.485
2703,-0.415,-0.295
2704,-0.265,-0.105
2705,-0.235,0.000
2706,-0.230,0.050
2707,-0.235,0.025
2708,-0.235,0.015
2709,-0.235,0.010
2710,-0.235,0.010
2711,-0.225,0.010
2712,-0.230,0.005
2713,-0.225,0.015
2714,-0.220,0.000
2715,-0.230,0.000
2716,-0.240,0.000
2717,-0.240,-0.010
2718,-0.240,0.000
2719,-0.245,-0.010
2720,-0.250,0.000
2721,-0.245,-0.005
2722,-0.245,0.015
2723,-0.245,0.020
2724,-0.235,0.015
2725,-0.250,0.005
2726,-0.260,0.025
2727,-0.245,0.035
2728,-0.270,0.025
2729,-0.275,0.015
2730,-0.255,0.035
2731,-0.270,0.030
2732,-0.265,0.015
2733,-0.250,0.015
2734,-0.255,0.010
2735,-0.235,0.000
2736,-0.225,0.000
2737,-0.210,-0.005
2738,-0.185,0.000
2739,-0.160,-0.010
2740,-0.135,-0.010
2741,-0.130,-0.010
2742,-0.115,-0.015
2743,-0.100,-0.015
2744,-0.100,-0.025
2745,-0.105,-0.025
2746,-0.115,-0.025
2747,-0.135,-0.030
2748,-0.140,-0.035
2749,-0.145,-0.030
2750,-0.155,-0.035
2751,-0.150,-0.050
2752,-0.140,-0.030
2753,-0.150,-0.025
2754,-0.155,-0.020
2755,-0.150,-0.030
2756,-0.160,-0.025
2757,-0.150,-0.020
2758,-0.145,-0.020
2759,-0.145,-0.025
2760,-0.135,-0.025
2761,-0.140,-0.035
2762,-0.130,-0.040
2763,-0.140,-0.015
2764,-0.115,-0.025
2765,-0.120,-0.035
2766,-0.135,-0.025
2767,-0.135,-0.030
2768,-0.140,-0.025
2769,-0.145,-0.030
2770,-0.150,-0.045
2771,-0.130,-0.040
2772,-0.150,-0.040
2773,-0.160,-0.040
2774,-0.160,-0.040
2775,-0.155,-0.035
2776,-0.170,-0.040
2777,-0.160,-0.040
2778,-0.170,-0.050
2779,-0.175,-0.040
2780,-0.175,-0.045
2781,-0.175,-0.040
2782,-0.180,-0.050
2783,-0.175,-0.035
2784,-0.180,-0.040
2785,-0.180,-0.050
2786,-0.195,-0.050
2787,-0.180,-0.060
2788,-0.185,-0.065
2789,-0.190,-0.055
2790,-0.180,-0.040
2791,-0.195,-0.035
2792,-0.190,-0.030
2793,-0.200,-0.050
2794,-0.190,-0.040
2795,-0.195,-0.035
2796,-0.195,-0.030
2797,-0.185,-0.035
2798,-0.195,-0.040
2799,-0.195,-0.045
2800,-0.185,-0.035
2801,-0.190,-0.030
2802,-0.185,-0.030
2803,-0.195,-0.030
2804,-0.180,-0.025
2805,-0.185,-0.025
2806,-0.170,-0.025
2807,-0.175,-0.030
2808,-0.180,-0.030
2809,-0.185,-0.030
2810,-0.185,-0.030
2811,-0.185,-0.020
2812,-0.180,-0.020
2813,-0.190,-0.020
2814,-0.175,-0.025
2815,-0.195,-0.030
2816,-0.180,-0.030
2817,-0.180,-0.025
2818,-0.160,-0.020
2819,-0.155,-0.020
2820,-0.140,-0.015
2821,-0.120,0.000
2822,-0.140,0.000
2823,-0.135,0.010
2824,-0.140,0.000
2825,-0.155,-0.020
2826,-0.155,-0.030
2827,-0.150,-0.045
2828,-0.140,-0.045
2829,-0.145,-0.035
2830,-0.125,-0.035
2831,-0.125,-0.030
2832,-0.130,-0.020
2833,-0.145,-0.005
2834,-0.170,0.000
2835,-0.170,0.000
2836,-0.170,0.005
2837,-0.175,0.000
2838,-0.165,0.000
2839,-0.185,0.000
2840,-0.160,0.000
2841,-0.165,0.000
2842,-0.160,-0.005
2843,-0.165,-0.010
2844,-0.190,-0.005
2845,-0.125,-0.005
2846,0.205,0.025
2847,0.705,-0.010
2848,1.090,-0.100
2849,0.795,-0.295
2850,-0.090,-0.500
2851,-0.525,-0.565
2852,-0.515,-0.415
2853,-0.330,-0.215
2854,-0.245,-0.035
2855,-0.240,0.050
2856,-0.235,0.060
2857,-0.235,0.035
2858,-0.245,0.035
2859,-0.245,0.030
2860,-0.235,0.015
2861,-0.235,0.015
2862,-0.240,0.005
2863,-0.235,0.010
2864,-0.250,0.005
2865,-0.250,0.005
2866,-0.245,0.010
2867,-0.255,0.010
2868,-0.245,0.010
2869,-0.255,0.000
2870,-0.265,0.010
2871,-0.260,0.030
2872,-0.265,0.005
2873,-0.270,0.020
2874,-0.260,0.020
2875,-0.270,0.015
2876,-0.260,0.035
2877,-0.285,0.025
2878,-0.295,0.025
2879,-0.285,0.040
2880,-0.295,0.045
2881,-0.285,0.025
2882,-0.270,0.025
2883,-0.280,0.010
2884,-0.285,0.020
2885,-0.270,0.010
2886,-0.260,0.000
2887,-0.255,0.000
2888,-0.225,-0.005
2889,-0.215,-0.020
2890,-0.195,-0.020
2891,-0.180,-0.025
2892,-0.155,-0.025
2893,-0.145,-0.025
2894,-0.150,-0.025
2895,-0.155,-0.030
2896,-0.175,-0.030
2897,-0.170,-0.035
2898,-0.170,-0.035
2899,-0.190,-0.020
2900,-0.200,-0.025
2901,-0.195,-0.045
2902,-0.185,-0.035
2903,-0.205,-0.045
2904,-0.195,-0.030
2905,-0.195,-0.020
2906,-0.195,-0.030
2907,-0.190,-0.030
2908,-0.180,-0.030
2909,-0.190,-0.015
2910,-0.190,-0.020
2911,-0.175,-0.020
2912,-0.175,-0.020
2913,-0.175,-0.020
2914,-0.165,-0.010
2915,-0.175,-0.015
2916,-0.185,-0.015
2917,-0.175,-0.015
2918,-0.170,-0.030
2919,-0.180,-0.030
2920,-0.185,-0.025
2921,-0.195,-0.010
2922,-0.195,-0.030
2923,-0.200,-0.030
2924,-0.195,-0.035
2925,-0.190,-0.040
2926,-0.200,-0.030
2927,-0.205,-0.035
2928,-0.210,-0.030
2929,-0.215,-0.035
2930,-0.215,-0.035
2931,-0.210,-0.025
2932,-0.205,-0.020
2933,-0.205,-0.020
2934,-0.210,-0.020
2935,-0.225,-0.030
2936,-0.215,-0.035
2937,-0.210,-0.025
2938,-0.220,-0.025
2939,-0.215,-0.035
2940,-0.215,-0.040
2941,-0.225,-0.030
2942,-0.220,-0.030
2943,-0.210,-0.030
2944,-0.215,-0.025
2945,-0.205,-0.020
2946,-0.205,-0.020
2947,-0.220,-0.035
2948,-0.225,-0.040
2949,-0.215,-0.025
2950,-0.225,-0.025
2951,-0.210,-0.025
2952,-0.215,-0.010
2953,-0.200,-0.025
2954,-0.205,-0.015
2955,-0.195,-0.020
2956,-0.210,-0.015
2957,-0.200,-0.010
2958,-0.195,-0.015
2959,-0.195,-0.010
2960,-0.190,0.000
2961,-0.185,0.000
2962,-0.175,0.000
2963,-0.200,0.000
2964,-0.185,0.000
2965,-0.180,0.000
2966,-0.195,0.000
2967,-0.180,0.000
2968,-0.165,0.000
2969,-0.150,-0.010
2970,-0.155,0.010
2971,-0.140,0.025
2972,-0.145,0.015
2973,-0.155,0.005
2974,-0.160,0.000
2975,-0.170,-0.020
2976,-0.165,-0.035
2977,-0.160,-0.035
2978,-0.165,-0.045
2979,-0.160,-0.050
2980,-0.160,-0.040
2981,-0.160,-0.020
2982,-0.180,-0.020
2983,-0.190,-0.010
2984,-0.195,0.000
2985,-0.210,0.000
2986,-0.200,-0.010
2987,-0.200,-0.025
2988,-0.190,-0.015
2989,-0.195,0.000
2990,-0.190,-0.010
2991,-0.190,-0.010
2992,-0.205,-0.010
2993,-0.205,-0.015
2994,-0.100,0.000
2995,0.305,0.020
2996,0.840,-0.020
2997,1.165,-0.135
2998,0.660,-0.350
2999,-0.240,-0.505
3000,-0.555,-0.525
3001,-0.495,-0.360
3002,-0.315,-0.145
3003,-0.260,0.005
3004,-0.255,0.060
3005,-0.260,0.055
3006,-0.255,0.040
3007,-0.265,0.025
3008,-0.250,0.020
3009,-0.260,0.020
3010,-0.270,0.015
3011,-0.255,0.010
3012,-0.265,0.020
3013,-0.270,0.025
3014,-0.280,0.015
3015,-0.280,0.005
3016,-0.290,0.010
3017,-0.280,0.005
3018,-0.275,0.010
3019,-0.295,0.015
3020,-0.300,0.015
3021,-0.285,0.005
3022,-0.295,0.010
3023,-0.285,0.015
3024,-0.300,0.015
3025,-0.300,0.015
3026,-0.310,0.035
3027,-0.305,0.035
3028,-0.310,0.030
3029,-0.310,0.025
3030,-0.305,0.030
3031,-0.290,0.025
3032,-0.300,0.015
3033,-0.285,0.015
3034,-0.270,0.015
3035,-0.250,0.005
3036,-0.235,0.005
3037,-0.210,0.000
3038,-0.195,0.000
3039,-0.175,-0.005
3040,-0.160,-0.010
3041,-0.160,0.000
3042,-0.155,0.000
3043,-0.160,-0.010
3044,-0.170,-0.015
3045,-0.170,-0.015
3046,-0.175,-0.020
3047,-0.170,-0.015
3048,-0.185,-0.020
3049,-0.190,-0.010
3050,-0.200,-0.015
3051,-0.200,-0.015
3052,-0.195,-0.020
3053,-0.190,-0.015
3054,-0.195,-0.020
3055,-0.180,-0.010
3056,-0.185,-0.015
3057,-0.190,-0.025
3058,-0.175,-0.010
3059,-0.165,-0.015
3060,-0.160,-0.010
3061,-0.155,-0.010
3062,-0.155,-0.015
3063,-0.165,-0.015
3064,-0.165,-0.005
3065,-0.155,0.000
3066,-0.165,-0.020
3067,-0.180,-0.015
3068,-0.180,-0.010
3069,-0.180,0.000
3070,-0.185,-0.015
3071,-0.175,-0.015
3072,-0.190,-0.020
3073,-0.185,-0.010
3074,-0.190,-0.030
3075,-0.195,-0.015
3076,-0.200,-0.015
3077,-0.190,-0.020
3078,-0.190,-0.015
3079,-0.205,-0.015
3080,-0.185,-0.015
3081,-0.190,-0.005
3082,-0.200,-0.010
3083,-0.195,-0.005
3084,-0.195,-0.015
3085,-0.200,-0.005
3086,-0.200,-0.015
3087,-0.185,-0.005
3088,-0.180,-0.005
3089,-0.200,-0.005
3090,-0.180,0.000
3091,-0.195,0.010
3092,-0.195,0.000
3093,-0.180,0.000
3094,-0.190,0.000
3095,-0.180,0.000
3096,-0.185,0.000
3097,-0.180,0.005
3098,-0.195,0.000
3099,-0.170,0.000
3100,-0.185,0.000
3101,-0.180,0.000
3102,-0.180,-0.005
3103,-0.175,0.000
3104,-0.190,0.005
3105,-0.190,0.000
3106,-0.175,-0.005
3107,-0.190,0.000
3108,-0.200,-0.015
3109,-0.195,-0.010
3110,-0.200,-0.005
3111,-0.200,-0.005
3112,-0.195,-0.010
3113,-0.200,-0.005
3114,-0.185,-0.020
3115,-0.180,0.000
3116,-0.190,-0.010
3117,-0.175,-0.005
3118,-0.165,-0.005
3119,-0.160,-0.005
3120,-0.150,0.005
3121,-0.155,0.010
3122,-0.140,0.020
3123,-0.155,0.000
3124,-0.170,-0.010
3125,-0.160,-0.025
3126,-0.175,-0.045
3127,-0.165,-0.045
3128,-0.160,-0.045
3129,-0.160,-0.040
3130,-0.170,-0.030
3131,-0.175,-0.025
3132,-0.205,-0.010
3133,-0.230,0.005
3134,-0.200,-0.005
3135,-0.215,0.000
3136,-0.220,-0.015
3137,-0.210,-0.010
3138,-0.200,0.000
3139,-0.210,0.000
3140,-0.190,-0.010
3141,-0.195,-0.015
3142,-0.205,-0.015
3143,-0.215,-0.005
3144,-0.025,0.010
3145,0.415,0.010
3146,0.900,-0.040
3147,1.040,-0.190
3148,0.350,-0.385
3149,-0.410,-0.530
3150,-0.555,-0.485
3151,-0.450,-0.305
3152,-0.310,-0.125
3153,-0.230,0.010
3154,-0.280,0.050
3155,-0.280,0.035
3156,-0.265,0.020
3157,-0.265,0.020
3158,-0.265,0.010
3159,-0.260,0.005
3160,-0.270,0.010
3161,-0.270,0.020
3162,-0.265,0.010
3163,-0.270,0.010
3164,-0.275,0.015
3165,-0.275,0.000
3166,-0.260,0.000
3167,-0.275,0.010
3168,-0.275,0.010
3169,-0.285,0.000
3170,-0.295,0.015
3171,-0.280,0.010
3172,-0.280,0.010
3173,-0.290,0.005
3174,-0.295,0.010
3175,-0.290,0.010
3176,-0.285,0.010
3177,-0.275,0.020
3178,-0.295,0.025
3179,-0.295,0.025
3180,-0.305,0.015
3181,-0.285,0.005
3182,-0.285,0.015
3183,-0.275,0.005
3184,-0.280,0.000
3185,-0.250,0.000
3186,-0.235,-0.005
3187,-0.205,-0.020
3188,-0.180,-0.010
3189,-0.160,-0.015
3190,-0.155,-0.020
3191,-0.135,-0.020
3192,-0.135,-0.020
3193,-0.145,-0.015
3194,-0.145,-0.030
3195,-0.150,-0.015
3196,-0.170,-0.025
3197,-0.170,-0.010
3198,-0.180,-0.015
3199,-0.165,-0.020
3200,-0.190,-0.040
3201,-0.180,-0.035
3202,-0.180,-0.020
3203,-0.170,-0.020
3204,-0.175,-0.025
3205,-0.165,-0.015
3206,-0.165,-0.020
3207,-0.150,-0.010
3208,-0.165,-0.015
3209,-0.140,-0.020
3210,-0.135,-0.005
3211,-0.130,-0.010
3212,-0.130,-0.005
3213,-0.125,-0.010
3214,-0.115,-0.005
3215,-0.125,0.000
3216,-0.125,0.000
3217,-0.130,0.000
3218,-0.120,0.000
3219,-0.125,0.005
3220,-0.125,0.000
3221,-0.140,0.005
3222,-0.140,0.000
3223,-0.130,0.000
3224,-0.130,0.000
3225,-0.145,-0.010
3226,-0.140,-0.010
3227,-0.140,-0.010
3228,-0.150,-0.010
3229,-0.135,0.000
3230,-0.145,-0.015
3231,-0.155,-0.015
3232,-0.155,-0.010
3233,-0.150,-0.015
3234,-0.155,-0.020
3235,-0.165,-0.005
3236,-0.170,0.000
3237,-0.165,-0.015
3238,-0.170,-0.020
3239,-0.165,-0.015
3240,-0.165,-0.005
3241,-0.170,-0.025
3242,-0.160,-0.020
3243,-0.165,-0.015
3244,-0.160,0.000
3245,-0.155,-0.010
3246,-0.155,-0.005
3247,-0.160,-0.015
3248,-0.160,0.000
3249,-0.150,0.000
3250,-0.150,-0.005
3251,-0.140,0.000
3252,-0.155,0.000
3253,-0.160,-0.005
3254,-0.155,-0.015
3255,-0.155,-0.005
3256,-0.160,-0.025
3257,-0.155,-0.010
3258,-0.140,-0.020
3259,-0.155,-0.015
3260,-0.155,-0.015
3261,-0.150,-0.020
3262,-0.170,-0.010
3263,-0.155,-0.015
3264,-0.160,-0.015
3265,-0.135,-0.020
3266,-0.145,-0.025
3267,-0.145,-0.030
3268,-0.125,-0.015
3269,-0.105,-0.010
3270,-0.110,0.000
3271,-0.105,0.000
3272,-0.110,0.000
3273,-0.115,-0.010
3274,-0.130,-0.035
3275,-0.135,-0.045
3276,-0.135,-0.055
3277,-0.140,-0.050
3278,-0.135,-0.060
3279,-0.135,-0.060
3280,-0.130,-0.055
3281,-0.140,-0.045
3282,-0.155,-0.025
3283,-0.160,-0.020
3284,-0.180,-0.015
3285,-0.170,-0.030
3286,-0.165,-0.030
3287,-0.160,-0.035
3288,-0.170,-0.030
3289,-0.160,-0.035
3290,-0.160,-0.030
3291,-0.160,-0.030
3292,-0.155,-0.040
3293,-0.180,-0.030
3294,-0.005,0.000
3295,0.445,-0.005
3296,0.940,-0.055
3297,1.180,-0.190
3298,0.585,-0.395
3299,-0.280,-0.540
3300,-0.540,-0.520
3301,-0.440,-0.355
3302,-0.275,-0.145
3303,-0.210,0.000
3304,-0.220,0.050
3305,-0.225,0.040
3306,-0.220,0.030
3307,-0.225,0.015
3308,-0.220,0.010
3309,-0.235,0.005
3310,-0.230,0.005
3311,-0.225,0.015
3312,-0.225,0.015
3313,-0.225,0.010
3314,-0.225,0.005
3315,-0.235,0.005
3316,-0.240,0.000
3317,-0.240,0.005
3318,-0.240,0.010
3319,-0.245,0.015
3320,-0.240,0.015
3321,-0.230,0.020
3322,-0.235,0.025
3323,-0.240,0.025
3324,-0.235,0.035
3325,-0.250,0.030
3326,-0.245,0.030
3327,-0.260,0.040
3328,-0.255,0.045
3329,-0.260,0.015
3330,-0.245,0.030
3331,-0.240,0.025
3332,-0.240,0.020
3333,-0.220,0.015
3334,-0.210,0.015
3335,-0.195,0.010
3336,-0.160,0.005
3337,-0.145,0.000
3338,-0.125,0.000
3339,-0.105,0.000
3340,-0.085,0.000
3341,-0.075,0.000
3342,-0.085,0.000
3343,-0.075,-0.005
3344,-0.105,-0.010
3345,-0.100,0.000
3346,-0.095,0.000
3347,-0.105,0.000
3348,-0.120,0.000
3349,-0.115,0.000
3350,-0.115,0.000
3351,-0.130,0.000
3352,-0.105,-0.005
3353,-0.100,0.000
3354,-0.120,0.000
3355,-0.100,0.005
3356,-0.100,0.010
3357,-0.105,0.010
3358,-0.095,0.000
3359,-0.095,0.005
3360,-0.090,0.015
3361,-0.075,0.010
3362,-0.085,0.010
3363,-0.085,0.010
3364,-0.095,0.015
3365,-0.090,0.010
3366,-0.105,0.020
3367,-0.095,0.015
3368,-0.105,0.005
3369,-0.120,0.000
3370,-0.120,0.005
3371,-0.115,0.005
3372,-0.115,0.000
3373,-0.120,0.005
3374,-0.120,0.000
3375,-0.130,-0.005
3376,-0.140,0.000
3377,-0.135,-0.010
3378,-0.140,-0.005
3379,-0.150,-0.005
3380,-0.145,-0.005
3381,-0.140,0.000
3382,-0.140,-0.005
3383,-0.130,0.000
3384,-0.130,0.000
3385,-0.140,-0.010
3386,-0.145,-0.015
3387,-0.140,-0.035
3388,-0.140,-0.015
3389,-0.150,-0.035
3390,-0.140,-0.025
3391,-0.150,-0.010
3392,-0.150,-0.035
3393,-0.150,-0.015
3394,-0.140,-0.025
3395,-0.135,-0.025
3396,-0.140,-0.020
3397,-0.130,-0.020
3398,-0.150,-0.005
3399,-0.135,-0.010
3400,-0.145,-0.010
3401,-0.150,-0.015
3402,-0.150,-0.020
3403,-0.145,-0.020
3404,-0.155,-0.010
3405,-0.165,-0.010
3406,-0.155,-0.010
3407,-0.160,-0.010
3408,-0.180,-0.020
3409,-0.160,-0.020
3410,-0.170,-0.010
3411,-0.160,-0.015
3412,-0.165,-0.020
3413,-0.170,-0.040
3414,-0.165,-0.025
3415,-0.160,-0.030
3416,-0.155,-0.040
3417,-0.155,-0.030
3418,-0.130,-0.025
3419,-0.125,-0.010
3420,-0.120,0.000
3421,-0.125,-0.010
3422,-0.115,0.000
3423,-0.120,-0.010
3424,-0.130,-0.040
3425,-0.135,-0.055
3426,-0.135,-0.060
3427,-0.130,-0.055
3428,-0.110,-0.055
3429,-0.125,-0.045
3430,-0.145,-0.045
3431,-0.150,-0.040
3432,-0.155,-0.015
3433,-0.185,-0.005
3434,-0.165,-0.020
3435,-0.165,-0.005
3436,-0.185,-0.015
3437,-0.175,-0.020
3438,-0.155,-0.020
3439,-0.160,-0.030
3440,-0.155,-0.030
3441,-0.155,-0.025
3442,-0.170,-0.025
3443,-0.115,-0.015
3444,0.215,0.010
3445,0.725,-0.025
3446,1.145,-0.120
3447,0.880,-0.300
3448,0.000,-0.475
3449,-0.465,-0.530
3450,-0.475,-0.405
3451,-0.310,-0.190
3452,-0.240,-0.030
3453,-0.220,0.030
3454,-0.225,0.055
3455,-0.230,0.040
3456,-0.235,0.030
3457,-0.220,0.030
3458,-0.225,0.010
3459,-0.230,0.010
3460,-0.220,0.005
3461,-0.225,0.005
3462,-0.230,0.000
3463,-0.220,0.015
3464,-0.235,0.015
3465,-0.235,0.010
3466,-0.235,0.015
3467,-0.235,0.010
3468,-0.240,0.010
3469,-0.235,0.020
3470,-0.240,0.040
3471,-0.240,0.030
3472,-0.230,0.030
3473,-0.230,0.035
3474,-0.235,0.030
3475,-0.245,0.035
3476,-0.235,0.040
3477,-0.240,0.040
3478,-0.250,0.045
3479,-0.230,0.040
3480,-0.230,0.040
3481,-0.240,0.040
3482,-0.215,0.030
3483,-0.220,0.025
3484,-0.210,0.030
3485,-0.190,0.010
3486,-0.170,0.005
3487,-0.145,0.005
3488,-0.120,0.005
3489,-0.095,0.000
3490,-0.085,0.005
3491,-0.085,0.005
3492,-0.085,0.000
3493,-0.085,0.000
3494,-0.080,0.005
3495,-0.085,0.000
3496,-0.110,0.005
3497,-0.105,0.000
3498,-0.120,0.000
3499,-0.130,-0.005
3500,-0.125,0.005
3501,-0.115,-0.005
3502,-0.120,0.000
3503,-0.115,0.005
3504,-0.115,0.005
3505,-0.105,0.005
3506,-0.105,0.015
3507,-0.100,0.005
3508,-0.085,0.010
3509,-0.095,0.020
3510,-0.090,0.005
3511,-0.095,0.005
3512,-0.085,0.010
3513,-0.080,0.010
3514,-0.085,0.000
3515,-0.090,0.005
3516,-0.100,0.000
3517,-0.090,0.005
3518,-0.105,0.005
3519,-0.095,0.020
3520,-0.105,0.010
3521,-0.115,0.010
3522,-0.115,0.000
3523,-0.110,0.000
3524,-0.115,0.000
3525,-0.125,0.010
3526,-0.125,0.010
3527,-0.125,0.005
3528,-0.125,0.000
3529,-0.135,0.020
3530,-0.135,0.010
3531,-0.140,0.000
3532,-0.135,0.005
3533,-0.135,0.005
3534,-0.140,0.010
3535,-0.150,0.005
3536,-0.145,0.000
3537,-0.160,0.000
3538,-0.155,0.005
3539,-0.135,0.000
3540,-0.155,0.000
3541,-0.155,-0.005
3542,-0.130,-0.010
3543,-0.155,0.005
3544,-0.140,0.000
3545,-0.140,0.005
3546,-0.145,0.005
3547,-0.145,0.000
3548,-0.145,0.000
3549,-0.155,0.000
3550,-0.155,-0.005
3551,-0.140,0.000
3552,-0.150,0.005
3553,-0.160,0.000
3554,-0.150,0.010
3555,-0.135,0.010
3556,-0.155,0.005
3557,-0.160,0.005
3558,-0.150,0.010
3559,-0.155,0.000
3560,-0.155,0.015
3561,-0.155,0.015
3562,-0.150,0.005
3563,-0.155,0.005
3564,-0.155,0.020
3565,-0.155,0.005
3566,-0.155,0.005
3567,-0.125,0.000
3568,-0.110,0.010
3569,-0.115,0.020
3570,-0.120,0.040
3571,-0.100,0.025
3572,-0.120,0.020
3573,-0.130,0.005
3574,-0.135,-0.005
3575,-0.130,-0.015
3576,-0.125,-0.020
3577,-0.125,-0.010
3578,-0.115,-0.005
3579,-0.120,-0.005
3580,-0.125,0.000
3581,-0.155,0.005
3582,-0.160,0.035
3583,-0.155,0.015
3584,-0.155,0.015
3585,-0.170,0.020
3586,-0.160,0.020
3587,-0.155,0.015
3588,-0.160,0.020
3589,-0.160,0.020
3590,-0.145,0.015
3591,-0.150,0.020
3592,-0.165,0.015
3593,-0.060,0.040
3594,0.315,0.060
3595,0.840,0.010
3596,1.190,-0.085
3597,0.785,-0.305
3598,-0.135,-0.465
3599,-0.515,-0.485
3600,-0.485,-0.325
3601,-0.305,-0.125
3602,-0.200,0.040
3603,-0.195,0.120
3604,-0.210,0.120
3605,-0.195,0.110
3606,-0.195,0.110
3607,-0.195,0.100
3608,-0.185,0.085
3609,-0.190,0.085
3610,-0.195,0.085
3611,-0.195,0.100
3612,-0.190,0.080
3613,-0.215,0.085
3614,-0.215,0.080
3615,-0.210,0.075
3616,-0.220,0.070
3617,-0.235,0.075
3618,-0.210,0.075
3619,-0.235,0.075
3620,-0.225,0.080
3621,-0.220,0.070
3622,-0.220,0.090
3623,-0.235,0.085
3624,-0.230,0.095
3625,-0.240,0.085
3626,-0.230,0.100
3627,-0.230,0.105
3628,-0.235,0.090
3629,-0.225,0.090
3630,-0.225,0.080
3631,-0.230,0.070
3632,-0.225,0.060
3633,-0.205,0.075
3634,-0.180,0.065
3635,-0.175,0.070
3636,-0.155,0.055
3637,-0.125,0.040
3638,-0.115,0.045
3639,-0.095,0.035
3640,-0.090,0.045
3641,-0.080,0.040
3642,-0.080,0.040
3643,-0.085,0.035
3644,-0.095,0.030
3645,-0.105,0.025
3646,-0.105,0.025
3647,-0.130,0.010
3648,-0.115,0.025
3649,-0.110,0.015
3650,-0.110,0.030
3651,-0.125,0.030
3652,-0.100,0.030
3653,-0.105,0.035
3654,-0.110,0.025
3655,-0.100,0.025
3656,-0.105,0.020
3657,-0.110,0.030
3658,-0.100,0.030
3659,-0.100,0.025
3660,-0.095,0.025
3661,-0.095,0.040
3662,-0.095,0.025
3663,-0.100,0.020
3664,-0.105,0.030
3665,-0.105,0.020
3666,-0.115,0.015
3667,-0.110,0.010
3668,-0.115,0.010
3669,-0.125,0.010
3670,-0.125,0.020
3671,-0.120,0.010
3672,-0.125,0.010
3673,-0.140,0.010
3674,-0.150,0.000
3675,-0.150,0.000
3676,-0.150,0.000
3677,-0.140,0.015
3678,-0.140,0.000
3679,-0.150,0.000
3680,-0.160,0.005
3681,-0.155,0.000
3682,-0.150,0.010
3683,-0.150,0.010
3684,-0.140,0.005
3685,-0.155,0.005
3686,-0.160,0.000
3687,-0.155,0.010
3688,-0.160,0.000
3689,-0.160,0.000
3690,-0.145,0.005
3691,-0.155,0.000
3692,-0.165,0.000
3693,-0.145,0.000
3694,-0.155,0.005
3695,-0.160,0.000
3696,-0.160,0.005
3697,-0.140,0.015
3698,-0.155,0.010
3699,-0.160,0.010
3700,-0.155,0.005
3701,-0.165,0.005
3702,-0.160,0.010
3703,-0.155,0.005
3704,-0.155,0.005
3705,-0.165,0.020
3706,-0.150,0.015
3707,-0.160,0.005
3708,-0.155,0.000
3709,-0.150,0.005
3710,-0.155,0.005
3711,-0.170,0.010
3712,-0.150,0.015
3713,-0.150,0.005
3714,-0.150,0.005
3715,-0.120,0.000
3716,-0.095,0.015
3717,-0.115,0.040
3718,-0.110,0.035
3719,-0.100,0.045
3720,-0.115,0.020
3721,-0.120,0.000
3722,-0.110,-0.005
3723,-0.120,-0.015
3724,-0.125,-0.005
3725,-0.110,-0.020
3726,-0.100,-0.020
3727,-0.120,-0.005
3728,-0.130,0.005
3729,-0.140,0.025
3730,-0.145,0.020
3731,-0.155,0.030
3732,-0.155,0.020
3733,-0.155,0.020
3734,-0.155,0.020
3735,-0.130,0.015
3736,-0.140,0.035
3737,-0.135,0.015
3738,-0.135,0.025
3739,-0.145,0.020
3740,-0.165,0.015
3741,-0.020,0.040
3742,0.390,0.055
3743,0.930,0.000
3744,1.215,-0.115
3745,0.630,-0.290
3746,-0.210,-0.445
3747,-0.470,-0.435
3748,-0.425,-0.250
3749,-0.255,-0.075
3750,-0.185,0.040
3751,-0.195,0.070
3752,-0.205,0.075
3753,-0.205,0.065
3754,-0.190,0.070
3755,-0.205,0.055
3756,-0.200,0.040
3757,-0.210,0.050
3758,-0.205,0.040
3759,-0.200,0.035
3760,-0.215,0.025
3761,-0.215,0.035
3762,-0.220,0.030
3763,-0.220,0.030
3764,-0.215,0.035
3765,-0.220,0.030
3766,-0.220,0.040
3767,-0.210,0.045
3768,-0.225,0.055
3769,-0.225,0.050
3770,-0.215,0.055
3771,-0.230,0.055
3772,-0.230,0.060
3773,-0.240,0.055
3774,-0.240,0.070
3775,-0.240,0.040
3776,-0.240,0.070
3777,-0.230,0.060
3778,-0.250,0.065
3779,-0.245,0.050
3780,-0.225,0.055
3781,-0.220,0.045
3782,-0.190,0.040
3783,-0.170,0.040
3784,-0.165,0.025
3785,-0.140,0.025
3786,-0.115,0.020
3787,-0.105,0.020
3788,-0.095,0.010
3789,-0.090,0.015
3790,-0.085,0.015
3791,-0.100,0.015
3792,-0.095,0.005
3793,-0.115,0.010
3794,-0.130,0.000
3795,-0.140,0.000
3796,-0.125,-0.005
3797,-0.145,0.000
3798,-0.140,0.000
3799,-0.130,-0.005
3800,-0.130,-0.005
3801,-0.140,0.000
3802,-0.120,0.000
3803,-0.135,-0.010
3804,-0.130,-0.010
3805,-0.125,0.000
3806,-0.120,0.010
3807,-0.110,0.005
3808,-0.105,0.005
3809,-0.105,0.010
3810,-0.120,0.005
3811,-0.110,0.010
3812,-0.110,0.005
3813,-0.120,0.005
3814,-0.110,0.000
3815,-0.125,0.015
3816,-0.120,0.015
3817,-0.130,0.005
3818,-0.120,0.015
3819,-0.135,0.010
3820,-0.145,0.015
3821,-0.145,0.005
3822,-0.145,0.025
3823,-0.155,0.020
3824,-0.140,0.015
3825,-0.160,0.010
3826,-0.165,0.005
3827,-0.160,0.005
3828,-0.155,0.010
3829,-0.160,0.010
3830,-0.160,0.010
3831,-0.155,0.015
3832,-0.170,0.010
3833,-0.160,0.010
3834,-0.155,0.005
3835,-0.170,0.010
3836,-0.160,0.010
3837,-0.165,0.010
3838,-0.155,0.015
3839,-0.165,0.020
3840,-0.160,0.010
3841,-0.160,0.020
3842,-0.165,0.025
3843,-0.165,0.005
3844,-0.150,0.010
3845,-0.165,0.010
3846,-0.160,0.010
3847,-0.160,0.025
3848,-0.160,0.020
3849,-0.165,0.020
3850,-0.160,0.025
3851,-0.175,0.030
3852,-0.160,0.025
3853,-0.160,0.025
3854,-0.170,0.010
3855,-0.170,0.020
3856,-0.160,0.015
3857,-0.160,0.020
3858,-0.175,0.015
3859,-0.155,0.015
3860,-0.160,0.015
3861,-0.150,0.020
3862,-0.155,0.015
3863,-0.145,0.010
3864,-0.155,0.015
3865,-0.140,0.005
3866,-0.110,0.020
3867,-0.110,0.035
3868,-0.110,0.050
3869,-0.110,0.030
3870,-0.110,0.030
3871,-0.130,0.015
3872,-0.135,0.000
3873,-0.115,-0.010
3874,-0.120,-0.015
3875,-0.120,-0.025
3876,-0.110,-0.020
3877,-0.110,-0.020
3878,-0.115,-0.010
3879,-0.115,-0.005
3880,-0.145,0.005
3881,-0.150,0.015
3882,-0.140,0.005
3883,-0.145,0.015
3884,-0.150,0.010
3885,-0.140,0.020
3886,-0.155,0.010
3887,-0.150,0.020
3888,-0.135,0.020
3889,-0.145,0.025
3890,-0.150,0.030
3891,-0.115,0.035
3892,0.135,0.060
3893,0.635,0.050
3894,1.110,-0.030
3895,1.005,-0.210
3896,0.090,-0.415
3897,-0.485,-0.495
3898,-0.520,-0.395
3899,-0.355,-0.185
3900,-0.215,-0.005
3901,-0.215,0.085
3902,-0.235,0.115
3903,-0.225,0.090
3904,-0.220,0.075
3905,-0.215,0.080
3906,-0.215,0.070
3907,-0.220,0.055
3908,-0.235,0.060
3909,-0.220,0.055
3910,-0.215,0.045
3911,-0.225,0.040
3912,-0.230,0.050
3913,-0.230,0.040
3914,-0.230,0.050
3915,-0.235,0.035
3916,-0.235,0.060
3917,-0.240,0.050
3918,-0.240,0.050
3919,-0.245,0.045
3920,-0.230,0.050
3921,-0.235,0.050
3922,-0.250,0.060
3923,-0.240,0.065
3924,-0.250,0.050
3925,-0.265,0.055
3926,-0.250,0.055
3927,-0.255,0.060
3928,-0.260,0.055
3929,-0.245,0.040
3930,-0.255,0.035
3931,-0.250,0.025
3932,-0.225,0.025
3933,-0.205,0.025
3934,-0.195,0.015
3935,-0.170,0.015
3936,-0.155,0.005
3937,-0.140,0.000
3938,-0.115,-0.005
3939,-0.110,0.000
3940,-0.115,0.000
3941,-0.115,-0.005
3942,-0.120,0.000
3943,-0.135,0.005
3944,-0.140,0.000
3945,-0.140,0.000
3946,-0.155,0.000
3947,-0.145,0.000
3948,-0.140,0.000
3949,-0.160,-0.020
3950,-0.150,0.000
3951,-0.145,-0.010
3952,-0.130,-0.005
3953,-0.145,-0.010
3954,-0.135,-0.010
3955,-0.135,-0.005
3956,-0.120,-0.010
3957,-0.120,-0.005
3958,-0.110,0.000
3959,-0.125,0.000
3960,-0.120,0.000
3961,-0.115,0.000
3962,-0.125,-0.005
3963,-0.115,-0.005
3964,-0.115,-0.005
3965,-0.140,0.000
3966,-0.150,0.000
3967,-0.125,-0.010
3968,-0.140,0.000
3969,-0.145,-0.010
3970,-0.135,0.000
3971,-0.150,0.000
3972,-0.150,-0.005
3973,-0.125,0.000
3974,-0.150,-0.010
3975,-0.155,-0.010
3976,-0.165,-0.010
3977,-0.150,-0.010
3978,-0.155,-0.010
3979,-0.150,-0.005
3980,-0.140,-0.015
3981,-0.145,-0.010
3982,-0.150,-0.015
3983,-0.140,-0.010
3984,-0.150,0.000
3985,-0.160,-0.010
3986,-0.155,-0.015
3987,-0.160,-0.005
3988,-0.140,0.000
3989,-0.140,0.005
3990,-0.140,0.000
3991,-0.145,0.000
3992,-0.150,0.000
3993,-0.150,0.005
3994,-0.140,0.000
3995,-0.140,0.005
3996,-0.135,0.000
3997,-0.140,0.015
3998,-0.135,0.010
3999,-0.135,0.005
4000,-0.135,0.015
4001,-0.135,0.015
4002,-0.130,0.010
4003,-0.145,0.000
4004,-0.140,0.000
4005,-0.145,0.005
4006,-0.135,0.005
4007,-0.130,0.015
4008,-0.130,0.020
4009,-0.125,0.000
4010,-0.135,0.015
4011,-0.135,0.015
4012,-0.135,0.000
4013,-0.145,0.010
4014,-0.110,0.010
4015,-0.105,0.000
4016,-0.100,0.030
4017,-0.090,0.030
4018,-0.085,0.030
4019,-0.105,0.020
4020,-0.105,0.000
4021,-0.105,-0.010
4022,-0.110,-0.020
4023,-0.110,-0.020
4024,-0.095,-0.020
4025,-0.125,-0.010
4026,-0.105,-0.005
4027,-0.115,0.000
4028,-0.130,0.010
4029,-0.160,0.005
4030,-0.150,0.005
4031,-0.145,0.005
4032,-0.150,-0.005
4033,-0.140,0.000
4034,-0.140,0.005
4035,-0.145,-0.005
4036,-0.120,-0.015
4037,-0.125,0.000
4038,-0.145,-0.015
4039,-0.155,-0.005
4040,-0.015,0.010
4041,0.385,0.020
4042,0.930,-0.025
4043,1.190,-0.150
4044,0.525,-0.350
4045,-0.305,-0.485
4046,-0.505,-0.455
4047,-0.420,-0.280
4048,-0.265,-0.100
4049,-0.200,0.025
4050,-0.220,0.060
4051,-0.215,0.055
4052,-0.215,0.045
4053,-0.220,0.020
4054,-0.220,0.020
4055,-0.230,0.020
4056,-0.235,0.005
4057,-0.235,0.010
4058,-0.235,0.000
4059,-0.230,0.000
4060,-0.250,0.000
4061,-0.235,0.000
4062,-0.250,0.000
4063,-0.240,0.000
4064,-0.245,0.000
4065,-0.250,-0.010
4066,-0.250,0.000
4067,-0.255,0.010
4068,-0.255,0.010
4069,-0.255,0.010
4070,-0.255,0.015
4071,-0.265,0.015
4072,-0.260,0.030
4073,-0.260,0.035
4074,-0.250,0.030
4075,-0.255,0.025
4076,-0.275,0.025
4077,-0.250,0.035
4078,-0.240,0.025
4079,-0.245,0.005
4080,-0.235,0.015
4081,-0.215,0.015
4082,-0.190,0.000
4083,-0.185,0.000
4084,-0.140,-0.005
4085,-0.115,0.000
4086,-0.110,-0.005
4087,-0.090,-0.015
4088,-0.100,-0.010
4089,-0.115,-0.005
4090,-0.115,-0.010
4091,-0.110,-0.005
4092,-0.125,0.000
4093,-0.125,-0.005
4094,-0.135,0.000
4095,-0.125,-0.020
4096,-0.125,-0.015
4097,-0.130,-0.015
4098,-0.145,-0.010
4099,-0.120,0.000
4100,-0.110,-0.015
4101,-0.120,0.000
4102,-0.120,0.000
4103,-0.100,-0.005
4104,-0.110,0.000
4105,-0.110,-0.005
4106,-0.105,0.005
4107,-0.105,-0.015
4108,-0.105,0.000
4109,-0.090,0.000
4110,-0.085,0.000
4111,-0.105,0.000
4112,-0.105,-0.010
4113,-0.105,0.000
4114,-0.105,0.000
4115,-0.120,0.000
4116,-0.105,0.000
4117,-0.105,0.005
4118,-0.120,0.000
4119,-0.110,0.000
4120,-0.115,0.000
4121,-0.130,0.000
4122,-0.120,0.005
4123,-0.130,0.000
4124,-0.120,0.000
4125,-0.115,0.000
4126,-0.110,0.005
4127,-0.120,-0.005
4128,-0.115,-0.005
4129,-0.125,-0.005
4130,-0.120,-0.005
4131,-0.115,-0.005
4132,-0.115,0.000
4133,-0.125,-0.005
4134,-0.115,-0.010
4135,-0.110,-0.010
4136,-0.115,-0.015
4137,-0.120,-0.010
4138,-0.110,-0.015
4139,-0.120,-0.005
4140,-0.120,-0.020
4141,-0.115,-0.010
4142,-0.120,-0.015
4143,-0.120,-0.010
4144,-0.115,-0.015
4145,-0.125,-0.010
4146,-0.130,-0.010
4147,-0.120,-0.015
4148,-0.130,-0.015
4149,-0.120,-0.015
4150,-0.120,-0.010
4151,-0.120,-0.005
4152,-0.125,-0.005
4153,-0.115,-0.010
4154,-0.105,-0.010
4155,-0.125,-0.020
4156,-0.120,-0.005
4157,-0.120,-0.020
4158,-0.125,-0.015
4159,-0.115,-0.030
4160,-0.110,-0.015
4161,-0.120,-0.025
4162,-0.120,-0.010
4163,-0.085,-0.015
4164,-0.075,0.000
4165,-0.075,0.000
4166,-0.080,0.005
4167,-0.075,0.000
4168,-0.080,0.000
4169,-0.090,-0.005
4170,-0.100,-0.020
4171,-0.100,-0.035
4172,-0.090,-0.040
4173,-0.090,-0.035
4174,-0.080,-0.050
4175,-0.075,-0.050
4176,-0.085,-0.035
4177,-0.120,-0.015
4178,-0.130,-0.005
4179,-0.130,-0.005
4180,-0.130,0.000
4181,-0.130,-0.010
4182,-0.130,-0.010
4183,-0.135,0.000
4184,-0.145,-0.015
4185,-0.120,-0.005
4186,-0.130,-0.015
4187,-0.135,-0.010
4188,-0.135,-0.020
4189,-0.100,-0.005
4190,0.180,0.015
4191,0.675,-0.020
4192,1.105,-0.105
4193,0.915,-0.310
4194,0.015,-0.485
4195,-0.510,-0.550
4196,-0.505,-0.420
4197,-0.335,-0.205
4198,-0.215,-0.025
4199,-0.215,0.050
4200,-0.210,0.055
4201,-0.200,0.035
4202,-0.210,0.045
4203,-0.205,0.040
4204,-0.210,0.025
4205,-0.220,0.020
4206,-0.220,0.015
4207,-0.220,0.015
4208,-0.225,0.020
4209,-0.220,0.005
4210,-0.205,0.005
4211,-0.225,0.005
4212,-0.235,0.000
4213,-0.230,0.015
4214,-0.230,0.020
4215,-0.245,0.010
4216,-0.245,0.025
4217,-0.230,0.020
4218,-0.240,0.030
4219,-0.240,0.030
4220,-0.245,0.035
4221,-0.250,0.035
4222,-0.260,0.045
4223,-0.255,0.040
4224,-0.265,0.045
4225,-0.260,0.050
4226,-0.240,0.045
4227,-0.250,0.035
4228,-0.235,0.015
4229,-0.220,0.020
4230,-0.215,0.010
4231,-0.195,0.010
4232,-0.160,0.000
4233,-0.145,0.000
4234,-0.125,0.000
4235,-0.105,-0.005
4236,-0.090,0.000
4237,-0.095,-0.005
4238,-0.095,-0.010
4239,-0.095,-0.010
4240,-0.100,0.000
4241,-0.110,-0.015
4242,-0.125,-0.010
4243,-0.120,-0.010
4244,-0.115,-0.015
4245,-0.115,0.000
4246,-0.125,0.000
4247,-0.130,-0.010
4248,-0.115,0.005
4249,-0.135,0.000
4250,-0.130,0.000
4251,-0.115,0.000
4252,-0.110,0.000
4253,-0.115,0.005
4254,-0.105,0.010
4255,-0.115,0.010
4256,-0.100,0.000
4257,-0.090,0.005
4258,-0.105,0.005
4259,-0.105,0.010
4260,-0.100,0.010
4261,-0.080,0.005
4262,-0.110,0.020
4263,-0.090,0.010
4264,-0.075,0.000
4265,-0.075,0.000
4266,-0.030,0.015
4267,0.050,0.020
4268,0.200,0.065
4269,0.380,0.155
4270,0.520,0.245
4271,0.635,0.335
4272,0.735,0.395
4273,0.815,0.480
4274,0.915,0.550
4275,1.020,0.580
4276,1.165,0.585
4277,1.315,0.550
4278,1.500,0.495
4279,1.570,0.370
4280,1.340,0.195
4281,0.530,0.080
4282,0.000,-0.010
4283,-0.275,-0.100
4284,-0.420,-0.155
4285,-0.435,-0.180
4286,-0.445,-0.165
4287,-0.465,-0.140
4288,-0.475,-0.155
4289,-0.470,-0.145
4290,-0.495,-0.155
4291,-0.510,-0.145
4292,-0.535,-0.155
4293,-0.545,-0.170
4294,-0.580,-0.175
4295,-0.600,-0.170
4296,-0.625,-0.190
4297,-0.660,-0.195
4298,-0.685,-0.210
4299,-0.715,-0.220
4300,-0.745,-0.230
4301,-0.765,-0.240
4302,-0.780,-0.255
4303,-0.820,-0.275
4304,-0.850,-0.285
4305,-0.860,-0.280
4306,-0.890,-0.295
4307,-0.910,-0.300
4308,-0.895,-0.305
4309,-0.895,-0.290
4310,-0.875,-0.280
4311,-0.835,-0.280
4312,-0.805,-0.245
4313,-0.775,-0.205
4314,-0.740,-0.195
4315,-0.695,-0.185
4316,-0.665,-0.160
4317,-0.625,-0.155
4318,-0.560,-0.160
4319,-0.500,-0.130
4320,-0.445,-0.125
4321,-0.380,-0.100
4322,-0.335,-0.090
4323,-0.290,-0.060
4324,-0.265,-0.040
4325,-0.260,-0.030
4326,-0.250,-0.025
4327,-0.220,-0.015
4328,-0.210,-0.030
4329,-0.180,-0.020
4330,-0.165,-0.020
4331,-0.150,-0.025
4332,-0.160,-0.030
4333,-0.155,-0.025
4334,-0.150,-0.030
4335,-0.170,-0.035
4336,-0.150,-0.020
4337,-0.150,-0.020
4338,-0.140,-0.020
4339,-0.140,-0.035
4340,-0.140,-0.025
4341,-0.145,-0.035
4342,-0.150,-0.030
4343,-0.130,-0.035
4344,-0.145,-0.035
4345,-0.140,-0.035
4346,-0.135,-0.030
4347,-0.135,-0.025
4348,-0.145,-0.025
4349,-0.145,-0.030
4350,-0.135,-0.020
4351,-0.145,-0.025
4352,-0.140,-0.010
4353,-0.130,-0.025
4354,-0.130,-0.010
4355,-0.120,-0.025
4356,-0.105,-0.020
4357,0.100,0.005
4358,0.575,0.015
4359,1.005,-0.060
4360,1.015,-0.180
4361,0.240,-0.350
4362,-0.525,-0.495
4363,-0.625,-0.480
4364,-0.445,-0.310
4365,-0.230,-0.115
4366,-0.165,0.015
4367,-0.190,0.055
4368,-0.180,0.055
4369,-0.180,0.035
4370,-0.185,0.030
4371,-0.185,0.015
4372,-0.185,0.020
4373,-0.185,0.020
4374,-0.180,0.020
4375,-0.175,0.010
4376,-0.185,0.020
4377,-0.190,0.020
4378,-0.180,0.015
4379,-0.185,0.015
4380,-0.180,0.020
4381,-0.185,0.020
4382,-0.170,0.025
4383,-0.180,0.035
4384,-0.170,0.035
4385,-0.175,0.035
4386,-0.185,0.050
4387,-0.165,0.040
4388,-0.165,0.060
4389,-0.165,0.065
4390,-0.155,0.055
4391,-0.150,0.075
4392,-0.155,0.065
4393,-0.125,0.055
4394,-0.120,0.065
4395,-0.115,0.045
4396,-0.105,0.045
4397,-0.070,0.030
4398,-0.040,0.040
4399,-0.020,0.040
4400,-0.005,0.025
4401,0.005,0.005
4402,0.005,0.015
4403,0.015,0.000
4404,0.005,-0.005
4405,-0.010,0.000
4406,-0.025,-0.010
4407,-0.025,-0.015
4408,-0.050,0.000
4409,-0.055,-0.020
4410,-0.055,-0.020
4411,-0.070,-0.015
4412,-0.075,-0.020
4413,-0.070,-0.010
4414,-0.080,0.000
4415,-0.075,-0.015
4416,-0.080,0.000
4417,-0.065,-0.005
4418,-0.070,-0.010
4419,-0.060,0.000
4420,-0.060,0.000
4421,-0.075,0.000
4422,-0.065,0.000
4423,-0.070,0.000
4424,-0.070,0.000
4425,-0.080,0.000
4426,-0.080,0.000
4427,-0.090,0.000
4428,-0.100,0.000
4429,-0.095,0.000
4430,-0.095,-0.005
4431,-0.110,-0.005
4432,-0.110,-0.010
4433,-0.100,-0.010
4434,-0.120,0.000
4435,-0.120,-0.015
4436,-0.110,-0.005
4437,-0.130,-0.010
4438,-0.120,-0.005
4439,-0.120,-0.010
4440,-0.130,-0.015
4441,-0.130,-0.005
4442,-0.130,-0.010
4443,-0.135,-0.010
4444,-0.130,-0.015
4445,-0.130,-0.015
4446,-0.135,-0.030
4447,-0.140,-0.015
4448,-0.145,-0.015
4449,-0.140,-0.010
4450,-0.140,-0.020
4451,-0.140,-0.025
4452,-0.145,-0.025
4453,-0.145,-0.025
4454,-0.145,-0.020
4455,-0.125,-0.020
4456,-0.145,-0.020
4457,-0.135,-0.035
4458,-0.135,-0.020
4459,-0.120,-0.030
4460,-0.115,-0.020
4461,-0.095,-0.015
4462,-0.090,-0.005
4463,-0.095,0.000
4464,-0.085,0.000
4465,-0.090,-0.005
4466,-0.120,-0.010
4467,-0.110,-0.040
4468,-0.095,-0.055
4469,-0.115,-0.065
4470,-0.100,-0.060
4471,-0.115,-0.060
4472,-0.110,-0.050
4473,-0.100,-0.035
4474,-0.120,-0.020
4475,-0.150,-0.005
4476,-0.130,-0.015
4477,-0.140,-0.015
4478,-0.140,-0.005
4479,-0.135,-0.015
4480,-0.140,-0.010
4481,-0.135,-0.020
4482,-0.140,-0.010
4483,-0.130,-0.015
4484,-0.130,-0.015
4485,-0.140,-0.020
4486,-0.140,-0.025
4487,-0.050,0.000
4488,0.330,0.010
4489,0.840,-0.025
4490,1.155,-0.160
4491,0.700,-0.370
4492,-0.195,-0.535
4493,-0.530,-0.545
4494,-0.480,-0.385
4495,-0.290,-0.175
4496,-0.185,0.000
4497,-0.195,0.060
4498,-0.200,0.055
4499,-0.190,0.045
4500,-0.200,0.035
4501,-0.200,0.030
4502,-0.200,0.030
4503,-0.190,0.030
4504,-0.190,0.025
4505,-0.195,0.030
4506,-0.185,0.020
4507,-0.210,0.030
4508,-0.210,0.040
4509,-0.200,0.040
4510,-0.225,0.035
4511,-0.210,0.030
4512,-0.210,0.045
4513,-0.215,0.050
4514,-0.225,0.060
4515,-0.215,0.055
4516,-0.220,0.065
4517,-0.220,0.065
4518,-0.215,0.060
4519,-0.230,0.055
4520,-0.225,0.075
4521,-0.220,0.060
4522,-0.230,0.070
4523,-0.240,0.055
4524,-0.210,0.035
4525,-0.215,0.035
4526,-0.200,0.035
4527,-0.190,0.025
4528,-0.190,0.025
4529,-0.165,0.010
4530,-0.130,0.000
4531,-0.110,0.010
4532,-0.100,0.010
4533,-0.085,0.000
4534,-0.070,0.000
4535,-0.070,0.000
4536,-0.060,0.000
4537,-0.065,0.005
4538,-0.060,0.000
4539,-0.075,0.000
4540,-0.095,0.000
4541,-0.105,0.000
4542,-0.085,0.000
4543,-0.075,0.000
4544,-0.110,0.000
4545,-0.105,0.005
4546,-0.100,0.005
4547,-0.090,0.000
4548,-0.100,0.000
4549,-0.090,0.000
4550,-0.100,0.010
4551,-0.090,0.000
4552,-0.095,0.000
4553,-0.080,0.000
4554,-0.080,0.000
4555,-0.075,0.010
4556,-0.075,0.000
4557,-0.085,0.005
4558,-0.090,0.000
4559,-0.100,0.000
4560,-0.105,0.000
4561,-0.100,0.000
4562,-0.100,-0.005
4563,-0.115,0.000
4564,-0.115,-0.010
4565,-0.100,-0.010
4566,-0.120,0.000
4567,-0.125,-0.010
4568,-0.120,-0.005
4569,-0.140,-0.015
4570,-0.135,-0.015
4571,-0.140,-0.020
4572,-0.150,-0.020
4573,-0.150,-0.015
4574,-0.135,-0.020
4575,-0.140,-0.030
4576,-0.145,-0.020
4577,-0.140,-0.020
4578,-0.150,-0.015
4579,-0.145,-0.010
4580,-0.170,-0.030
4581,-0.155,-0.020
4582,-0.160,-0.030
4583,-0.140,-0.035
4584,-0.155,-0.030
4585,-0.150,-0.020
4586,-0.145,-0.035
4587,-0.135,-0.025
4588,-0.155,-0.040
4589,-0.145,-0.025
4590,-0.135,-0.030
4591,-0.140,-0.025
4592,-0.150,-0.035
4593,-0.145,-0.020
4594,-0.160,-0.015
4595,-0.160,-0.025
4596,-0.155,-0.025
4597,-0.145,-0.025
4598,-0.165,-0.020
4599,-0.150,-0.015
4600,-0.160,-0.015
4601,-0.160,-0.030
4602,-0.145,-0.020
4603,-0.145,-0.035
4604,-0.165,-0.020
4605,-0.140,-0.020
4606,-0.145,-0.020
4607,-0.140,-0.020
4608,-0.130,-0.035
4609,-0.110,-0.020
4610,-0.110,0.000
4611,-0.105,0.005
4612,-0.090,0.000
4613,-0.110,-0.005
4614,-0.125,-0.025
4615,-0.115,-0.030
4616,-0.105,-0.065
4617,-0.115,-0.070
4618,-0.100,-0.070
4619,-0.105,-0.060
4620,-0.110,-0.055
4621,-0.110,-0.050
4622,-0.130,-0.035
4623,-0.135,-0.020
4624,-0.140,-0.015
4625,-0.150,-0.020
4626,-0.145,-0.030
4627,-0.145,-0.010
4628,-0.140,-0.015
4629,-0.135,-0.020
4630,-0.130,-0.035
4631,-0.125,-0.040
4632,-0.130,-0.020
4633,-0.140,-0.015
4634,-0.135,-0.010
4635,0.055,0.020
4636,0.535,0.015
4637,1.050,-0.060
4638,1.165,-0.210
4639,0.390,-0.410
4640,-0.360,-0.525
4641,-0.505,-0.445
4642,-0.380,-0.255
4643,-0.235,-0.070
4644,-0.180,0.045
4645,-0.185,0.060
4646,-0.190,0.055
4647,-0.175,0.050
4648,-0.195,0.030
4649,-0.190,0.035
4650,-0.180,0.020
4651,-0.185,0.035
4652,-0.190,0.035
4653,-0.190,0.030
4654,-0.195,0.035
4655,-0.195,0.020
4656,-0.195,0.025
4657,-0.210,0.035
4658,-0.205,0.030
4659,-0.205,0.035
4660,-0.200,0.040
4661,-0.210,0.045
4662,-0.205,0.050
4663,-0.205,0.050
4664,-0.215,0.055
4665,-0.210,0.055
4666,-0.220,0.065
4667,-0.225,0.060
4668,-0.220,0.065
4669,-0.220,0.070
4670,-0.220,0.065
4671,-0.225,0.055
4672,-0.220,0.055
4673,-0.215,0.045
4674,-0.195,0.045
4675,-0.190,0.030
4676,-0.160,0.030
4677,-0.135,0.020
4678,-0.115,0.015
4679,-0.095,0.005
4680,-0.070,0.000
4681,-0.065,0.010
4682,-0.045,0.000
4683,-0.055,0.000
4684,-0.050,0.015
4685,-0.060,0.000
4686,-0.070,0.005
4687,-0.070,0.005
4688,-0.080,0.000
4689,-0.090,0.000
4690,-0.085,0.000
4691,-0.095,0.005
4692,-0.090,0.010
4693,-0.100,0.015
4694,-0.085,0.000
4695,-0.080,0.000
4696,-0.090,0.010
4697,-0.080,0.005
4698,-0.080,0.000
4699,-0.080,0.000
4700,-0.075,-0.005
4701,-0.075,-0.005
4702,-0.075,0.000
4703,-0.070,0.005
4704,-0.075,0.000
4705,-0.080,-0.005
4706,-0.065,-0.005
4707,-0.070,0.000
4708,-0.080,0.000
4709,-0.085,0.000
4710,-0.095,0.000
4711,-0.095,0.000
4712,-0.105,-0.010
4713,-0.095,0.000
4714,-0.100,-0.010
4715,-0.120,-0.005
4716,-0.115,-0.020
4717,-0.120,0.000
4718,-0.115,-0.010
4719,-0.110,-0.010
4720,-0.110,0.000
4721,-0.125,-0.015
4722,-0.130,-0.005
4723,-0.130,-0.015
4724,-0.135,-0.010
4725,-0.125,-0.010
4726,-0.110,-0.015
4727,-0.130,-0.025
4728,-0.140,-0.010
4729,-0.125,-0.020
4730,-0.140,-0.010
4731,-0.140,-0.005
4732,-0.120,-0.020
4733,-0.135,-0.015
4734,-0.130,-0.015
4735,-0.125,-0.015
4736,-0.125,-0.025
4737,-0.140,-0.010
4738,-0.125,-0.015
4739,-0.125,-0.010
4740,-0.140,-0.010
4741,-0.135,-0.015
4742,-0.135,-0.015
4743,-0.135,-0.010
4744,-0.145,-0.010
4745,-0.120,-0.010
4746,-0.130,-0.010
4747,-0.120,-0.010
4748,-0.125,-0.010
4749,-0.140,-0.010
4750,-0.130,-0.020
4751,-0.135,-0.020
4752,-0.150,-0.020
4753,-0.140,-0.030
4754,-0.125,-0.020
4755,-0.125,-0.010
4756,-0.130,-0.015
4757,-0.115,-0.020
4758,-0.115,-0.010
4759,-0.105,-0.005
4760,-0.075,-0.010
4761,-0.080,0.015
4762,-0.080,0.030
4763,-0.070,0.020
4764,-0.075,0.020
4765,-0.095,0.005
4766,-0.095,-0.015
4767,-0.090,-0.035
4768,-0.090,-0.030
4769,-0.095,-0.015
4770,-0.090,-0.030
4771,-0.080,-0.010
4772,-0.085,-0.005
4773,-0.085,0.000
4774,-0.120,0.000
4775,-0.130,0.015
4776,-0.115,0.005
4777,-0.120,0.005
4778,-0.120,0.005
4779,-0.110,0.000
4780,-0.115,0.010
4781,-0.135,0.000
4782,-0.115,0.000
4783,-0.115,-0.005
4784,-0.115,-0.010
4785,-0.120,-0.010
4786,0.090,0.020
4787,0.545,0.015
4788,1.035,-0.055
4789,1.055,-0.240
4790,0.285,-0.455
4791,-0.390,-0.555
4792,-0.465,-0.455
4793,-0.345,-0.260
4794,-0.225,-0.055
4795,-0.175,0.040
4796,-0.195,0.060
4797,-0.195,0.060
4798,-0.190,0.030
4799,-0.190,0.045
4800,-0.185,0.020
4801,-0.185,0.015
4802,-0.195,0.025
4803,-0.205,0.010
4804,-0.195,0.015
4805,-0.190,0.015
4806,-0.205,0.000
4807,-0.200,0.000
4808,-0.205,0.010
4809,-0.210,0.015
4810,-0.210,0.015
4811,-0.215,0.020
4812,-0.215,0.020
4813,-0.215,0.015
4814,-0.205,0.035
4815,-0.210,0.040
4816,-0.220,0.040
4817,-0.210,0.035
4818,-0.215,0.040
4819,-0.220,0.040
4820,-0.230,0.040
4821,-0.220,0.030
4822,-0.230,0.030
4823,-0.235,0.035
4824,-0.220,0.025
4825,-0.225,0.015
4826,-0.195,0.015
4827,-0.175,0.005
4828,-0.170,0.005
4829,-0.135,0.005
4830,-0.110,-0.005
4831,-0.100,-0.005
4832,-0.080,-0.020
4833,-0.080,-0.015
4834,-0.070,-0.025
4835,-0.085,-0.025
4836,-0.080,-0.020
4837,-0.085,-0.025
4838,-0.120,-0.025
4839,-0.110,-0.030
4840,-0.115,-0.020
4841,-0.120,-0.020
4842,-0.105,-0.015
4843,-0.130,-0.020
4844,-0.125,0.000
4845,-0.130,-0.015
4846,-0.120,-0.020
4847,-0.115,0.000
4848,-0.115,-0.015
4849,-0.105,-0.005
4850,-0.100,-0.005
4851,-0.100,-0.010
4852,-0.095,0.000
4853,-0.090,-0.010
4854,-0.090,0.000
4855,-0.090,-0.020
4856,-0.100,-0.010
4857,-0.115,-0.015
4858,-0.105,-0.015
4859,-0.115,0.000
4860,-0.115,0.000
4861,-0.105,-0.005
4862,-0.120,-0.015
4863,-0.110,-0.020
4864,-0.110,-0.020
4865,-0.120,-0.020
4866,-0.125,-0.025
4867,-0.135,-0.020
4868,-0.120,-0.020
4869,-0.130,-0.020
4870,-0.135,-0.005
4871,-0.125,-0.020
4872,-0.125,-0.020
4873,-0.145,-0.010
4874,-0.125,-0.025
4875,-0.130,-0.020
4876,-0.140,-0.020
4877,-0.130,-0.020
4878,-0.135,-0.015
4879,-0.145,-0.015
4880,-0.125,-0.030
4881,-0.125,-0.025
4882,-0.140,-0.015
4883,-0.135,-0.030
4884,-0.135,-0.020
4885,-0.130,-0.025
4886,-0.130,-0.030
4887,-0.130,-0.010
4888,-0.135,-0.015
4889,-0.140,-0.030
4890,-0.130,-0.015
4891,-0.140,-0.015
4892,-0.130,-0.020
4893,-0.120,-0.010
4894,-0.125,-0.010
4895,-0.125,-0.010
4896,-0.135,-0.010
4897,-0.120,-0.015
4898,-0.135,-0.020
4899,-0.115,0.000
4900,-0.120,0.000
4901,-0.115,0.000
4902,-0.120,-0.015
4903,-0.125,0.000
4904,-0.120,-0.010
4905,-0.120,0.000
4906,-0.110,-0.015
4907,-0.130,-0.005
4908,-0.125,-0.005
4909,-0.100,-0.010
4910,-0.085,-0.015
4911,-0.075,-0.005
4912,-0.080,0.000
4913,-0.075,0.005
4914,-0.070,0.000
4915,-0.085,-0.005
4916,-0.085,-0.030
4917,-0.085,-0.040
4918,-0.090,-0.045
4919,-0.080,-0.045
4920,-0.100,-0.045
4921,-0.095,-0.045
4922,-0.080,-0.035
4923,-0.095,-0.020
4924,-0.120,0.000
4925,-0.120,0.005
4926,-0.120,0.000
4927,-0.135,0.000
4928,-0.110,0.000
4929,-0.125,0.005
4930,-0.135,0.000
4931,-0.115,0.000
4932,-0.115,0.000
4933,-0.110,0.005
4934,-0.115,0.005
4935,-0.135,0.000
4936,0.025,0.030
4937,0.480,0.020
4938,0.995,-0.040
4939,1.180,-0.195
4940,0.515,-0.395
4941,-0.290,-0.515
4942,-0.515,-0.475
4943,-0.405,-0.285
4944,-0.245,-0.085
4945,-0.190,0.035
4946,-0.195,0.070
4947,-0.200,0.060
4948,-0.200,0.040
4949,-0.195,0.035
4950,-0.190,0.035
4951,-0.200,0.025
4952,-0.200,0.025
4953,-0.195,0.025
4954,-0.200,0.020
4955,-0.205,0.015
4956,-0.205,0.010
4957,-0.205,0.005
4958,-0.210,0.015
4959,-0.220,0.010
4960,-0.220,0.005
4961,-0.225,0.010
4962,-0.230,0.010
4963,-0.225,0.005
4964,-0.225,0.015
4965,-0.230,0.025
4966,-0.220,0.020
4967,-0.240,0.025
4968,-0.240,0.030
4969,-0.250,0.030
4970,-0.245,0.020
4971,-0.240,0.035
4972,-0.240,0.025
4973,-0.240,0.035
4974,-0.240,0.035
4975,-0.210,0.025
4976,-0.215,0.005
4977,-0.195,0.015
4978,-0.180,0.000
4979,-0.150,0.000
4980,-0.130,-0.005
4981,-0.105,-0.010
4982,-0.090,-0.020
4983,-0.085,-0.015
4984,-0.080,-0.015
4985,-0.085,-0.020
4986,-0.080,-0.015
4987,-0.110,-0.010
4988,-0.120,-0.020
4989,-0.110,-0.010
4990,-0.115,-0.010
4991,-0.130,-0.020
4992,-0.125,-0.020
4993,-0.135,-0.025
4994,-0.140,-0.025
4995,-0.120,-0.020
4996,-0.135,-0.015
4997,-0.120,-0.015
4998,-0.120,-0.010
4999,-0.120,-0.010
5000,-0.115,-0.005
5001,-0.105,-0.005
5002,-0.095,-0.010
5003,-0.105,0.000
5004,-0.085,-0.010
5005,-0.080,-0.010
5006,-0.095,-0.015
5007,-0.085,0.000
5008,-0.100,-0.010
5009,-0.110,0.000
5010,-0.105,-0.015
5011,-0.090,0.000
5012,-0.115,-0.010
5013,-0.110,-0.010
5014,-0.110,-0.020
5015,-0.130,-0.015
5016,-0.115,-0.015
5017,-0.120,-0.010
5018,-0.115,-0.020
5019,-0.130,-0.010
5020,-0.110,-0.010
5021,-0.135,-0.010
5022,-0.130,-0.015
5023,-0.125,-0.015
5024,-0.125,-0.020
5025,-0.135,-0.020
5026,-0.120,-0.020
5027,-0.120,-0.035
5028,-0.130,-0.020
5029,-0.125,-0.020
5030,-0.120,-0.020
5031,-0.125,-0.015
5032,-0.125,-0.015
5033,-0.130,-0.020
5034,-0.130,-0.020
5035,-0.145,-0.005
5036,-0.130,-0.015
5037,-0.125,-0.010
5038,-0.125,-0.010
5039,-0.130,-0.005
5040,-0.130,-0.010
5041,-0.135,-0.010
5042,-0.130,-0.015
5043,-0.135,-0.020
5044,-0.140,-0.015
5045,-0.140,-0.005
5046,-0.135,-0.020
5047,-0.155,-0.015
5048,-0.135,-0.020
5049,-0.140,-0.015
5050,-0.145,-0.010
5051,-0.140,-0.005
5052,-0.140,-0.020
5053,-0.140,-0.020
5054,-0.140,-0.010
5055,-0.140,-0.020
5056,-0.145,-0.035
5057,-0.140,-0.020
5058,-0.130,-0.015
5059,-0.135,-0.020
5060,-0.130,-0.015
5061,-0.105,-0.010
5062,-0.090,0.000
5063,-0.100,0.000
5064,-0.090,0.000
5065,-0.080,0.000
5066,-0.115,-0.025
5067,-0.120,-0.040
5068,-0.110,-0.060
5069,-0.115,-0.055
5070,-0.100,-0.065
5071,-0.080,-0.070
5072,-0.105,-0.045
5073,-0.115,-0.030
5074,-0.110,-0.035
5075,-0.135,-0.025
5076,-0.140,-0.015
5077,-0.135,-0.010
5078,-0.145,-0.020
5079,-0.140,-0.030
5080,-0.140,-0.020
5081,-0.120,-0.020
5082,-0.130,-0.025
5083,-0.140,-0.015
5084,-0.140,-0.030
5085,-0.155,-0.015
5086,-0.140,-0.035
5087,0.040,-0.005
5088,0.495,-0.010
5089,0.975,-0.075
5090,1.035,-0.265
5091,0.255,-0.480
5092,-0.420,-0.595
5093,-0.510,-0.495
5094,-0.365,-0.285
5095,-0.225,-0.105
5096,-0.200,0.020
5097,-0.210,0.035
5098,-0.220,0.020
5099,-0.210,0.000
5100,-0.215,0.000
5101,-0.210,-0.010
5102,-0.200,-0.010
5103,-0.225,0.000
5104,-0.230,-0.010
5105,-0.215,-0.025
5106,-0.215,-0.015
5107,-0.225,-0.015
5108,-0.215,-0.010
5109,-0.230,0.000
5110,-0.235,0.000
5111,-0.230,0.000
5112,-0.220,0.000
5113,-0.230,0.000
5114,-0.240,0.000
5115,-0.245,0.000
5116,-0.240,0.000
5117,-0.240,0.000
5118,-0.235,0.020
5119,-0.255,0.015
5120,-0.260,0.020
5121,-0.265,0.020
5122,-0.265,0.005
5123,-0.245,0.000
5124,-0.245,0.000
5125,-0.225,0.000
5126,-0.230,-0.015
5127,-0.215,-0.010
5128,-0.195,-0.015
5129,-0.170,-0.020
5130,-0.160,-0.030
5131,-0.125,-0.040
5132,-0.120,-0.040
5133,-0.110,-0.030
5134,-0.090,-0.040
5135,-0.100,-0.035
5136,-0.100,-0.045
5137,-0.115,-0.040
5138,-0.145,-0.035
5139,-0.145,-0.040
5140,-0.140,-0.045
5141,-0.150,-0.035
5142,-0.145,-0.050
5143,-0.150,-0.040
5144,-0.155,-0.035
5145,-0.145,-0.040
5146,-0.125,-0.040
5147,-0.130,-0.025
5148,-0.130,-0.020
5149,-0.135,-0.020
5150,-0.130,-0.010
5151,-0.110,-0.015
5152,-0.110,-0.015
5153,-0.115,0.000
5154,-0.110,0.000
5155,-0.110,-0.010
5156,-0.105,-0.005
5157,-0.110,-0.010
5158,-0.100,-0.010
5159,-0.095,-0.005
5160,-0.105,-0.015
5161,-0.120,0.000
5162,-0.125,-0.010
5163,-0.130,-0.005
5164,-0.125,-0.015
5165,-0.135,-0.005
5166,-0.125,-0.010
5167,-0.125,-0.010
5168,-0.120,-0.015
5169,-0.130,-0.015
5170,-0.145,-0.020
5171,-0.140,-0.020
5172,-0.140,-0.035
5173,-0.140,-0.025
5174,-0.135,-0.040
5175,-0.145,-0.020
5176,-0.150,-0.025
5177,-0.150,-0.030
5178,-0.145,-0.030
5179,-0.140,-0.020
5180,-0.130,-0.025
5181,-0.100,-0.025
5182,-0.080,-0.025
5183,-0.005,-0.015
5184,0.125,0.015
5185,0.290,0.100
5186,0.455,0.175
5187,0.565,0.260
5188,0.670,0.330
5189,0.740,0.415
5190,0.830,0.495
5191,0.940,0.550
5192,1.050,0.570
5193,1.200,0.540
5194,1.320,0.505
5195,1.450,0.410
5196,1.450,0.260
5197,1.005,0.125
5198,0.205,0.035
5199,-0.150,-0.080
5200,-0.370,-0.175
5201,-0.440,-0.200
5202,-0.450,-0.200
5203,-0.460,-0.185
5204,-0.465,-0.175
5205,-0.470,-0.165
5206,-0.490,-0.165
5207,-0.500,-0.170
5208,-0.515,-0.175
5209,-0.530,-0.175
5210,-0.535,-0.180
5211,-0.550,-0.160
5212,-0.560,-0.175
5213,-0.595,-0.170
5214,-0.625,-0.185
5215,-0.660,-0.210
5216,-0.705,-0.245
5217,-0.740,-0.270
5218,-0.765,-0.285
5219,-0.795,-0.310
5220,-0.820,-0.320
5221,-0.830,-0.335
5222,-0.840,-0.340
5223,-0.875,-0.330
5224,-0.900,-0.320
5225,-0.905,-0.305
5226,-0.910,-0.300
5227,-0.915,-0.300
5228,-0.875,-0.290
5229,-0.855,-0.260
5230,-0.830,-0.240
5231,-0.780,-0.215
5232,-0.745,-0.210
5233,-0.710,-0.170
5234,-0.650,-0.145
5235,-0.615,-0.130
5236,-0.580,-0.115
5237,-0.505,-0.095
5238,-0.455,-0.075
5239,-0.420,-0.065
5240,-0.380,-0.055
5241,-0.345,-0.045
5242,-0.310,-0.025
5243,-0.280,-0.025
5244,-0.260,-0.025
5245,-0.245,-0.025
5246,-0.235,-0.025
5247,-0.215,-0.040
5248,-0.220,-0.045
5249,-0.200,-0.040
5250,-0.185,-0.025
5251,-0.180,-0.020
5252,-0.170,-0.025
5253,-0.175,-0.025
5254,-0.185,-0.015
5255,-0.175,-0.020
5256,-0.170,-0.005
5257,-0.170,-0.015
5258,-0.180,-0.020
5259,-0.165,-0.015
5260,-0.170,-0.030
5261,-0.180,-0.025
5262,-0.170,-0.015
5263,-0.165,-0.015
5264,-0.165,-0.020
5265,-0.170,-0.015
5266,-0.170,-0.025
5267,-0.170,-0.015
5268,-0.170,-0.015
5269,-0.160,-0.025
5270,-0.170,-0.015
5271,-0.180,-0.015
5272,-0.160,-0.015
5273,-0.170,-0.020
5274,-0.170,-0.020
5275,-0.160,-0.020
5276,-0.160,-0.020
5277,-0.165,-0.010
5278,-0.165,-0.010
5279,-0.165,-0.020
5280,-0.170,-0.020
5281,-0.165,-0.020
5282,-0.150,-0.010
5283,-0.170,-0.005
5284,-0.165,0.000
5285,-0.150,0.000
5286,-0.155,0.000
5287,-0.155,-0.010
5288,-0.145,0.000
5289,-0.155,0.000
5290,-0.170,0.000
5291,-0.155,0.000
5292,-0.140,0.000
5293,-0.155,0.000
5294,-0.145,-0.010
5295,-0.140,0.000
5296,-0.155,0.000
5297,-0.150,0.000
5298,-0.150,0.000
5299,-0.145,-0.005
5300,-0.150,0.000
5301,-0.145,0.000
5302,-0.145,0.000
5303,-0.140,0.000
5304,-0.140,-0.005
5305,-0.145,-0.005
5306,-0.150,-0.005
5307,-0.140,0.000
5308,-0.150,-0.015
5309,-0.145,0.000
5310,-0.140,-0.015
5311,-0.155,-0.020
5312,-0.155,-0.015
5313,-0.135,-0.020
5314,-0.140,0.000
5315,-0.155,-0.005
5316,-0.130,0.000
5317,-0.140,0.000
5318,-0.160,-0.015
5319,-0.150,-0.015
5320,-0.145,-0.020
5321,-0.150,-0.010
5322,-0.140,-0.020
5323,-0.165,-0.030
5324,-0.165,-0.035
5325,-0.165,-0.045
5326,-0.160,-0.030
5327,-0.165,-0.015
5328,-0.170,-0.030
5329,-0.155,-0.030
5330,-0.165,-0.035
5331,-0.170,-0.030
5332,-0.170,-0.040
5333,-0.170,-0.025
5334,-0.180,-0.010
5335,-0.170,-0.035
5336,-0.175,-0.045
5337,-0.185,-0.035
5338,-0.165,-0.040
5339,-0.165,-0.035
5340,-0.175,-0.030
5341,-0.180,-0.025
5342,-0.170,-0.035
5343,-0.180,-0.050
5344,-0.175,-0.045
5345,-0.180,-0.055
5346,-0.170,-0.055
5347,-0.185,-0.045
5348,-0.185,-0.045
5349,-0.185,-0.050
5350,-0.185,-0.055
5351,-0.165,-0.070
5352,-0.190,-0.070
5353,-0.200,-0.055
5354,-0.155,-0.050
5355,-0.170,-0.050
5356,-0.180,-0.040
5357,-0.180,-0.070
5358,-0.170,-0.055
5359,-0.165,-0.060
5360,-0.170,-0.055
5361,-0.140,-0.040
5362,-0.140,-0.025
5363,-0.135,-0.015
5364,-0.115,0.000
5365,-0.125,-0.005
5366,-0.135,-0.015
5367,-0.125,-0.070
5368,-0.145,-0.090
5369,-0.150,-0.100
5370,-0.135,-0.090
5371,-0.130,-0.075
5372,-0.140,-0.075
5373,-0.125,-0.075
5374,-0.145,-0.065
5375,-0.180,-0.040
5376,-0.185,-0.050
5377,-0.175,-0.025
5378,-0.190,-0.050
5379,-0.170,-0.040
5380,-0.165,-0.065
5381,-0.160,-0.070
5382,-0.170,-0.065
5383,-0.160,-0.060
5384,-0.160,-0.075
5385,-0.175,-0.065
5386,-0.110,-0.045
5387,0.180,-0.040
5388,0.620,-0.085
5389,0.970,-0.195
5390,0.670,-0.395
5391,-0.175,-0.550
5392,-0.555,-0.560
5393,-0.505,-0.365
5394,-0.350,-0.160
5395,-0.245,-0.020
5396,-0.225,0.035
5397,-0.245,0.030
5398,-0.240,0.020
5399,-0.230,0.020
5400,-0.240,0.015
5401,-0.240,0.000
5402,-0.225,0.000
5403,-0.240,0.005
5404,-0.245,-0.005
5405,-0.240,-0.005
5406,-0.240,-0.005
5407,-0.245,-0.005
5408,-0.240,-0.005
5409,-0.235,0.000
5410,-0.240,0.000
5411,-0.235,0.015
5412,-0.245,0.010
5413,-0.250,0.025
5414,-0.250,0.030
5415,-0.240,0.030
5416,-0.255,0.020
5417,-0.235,0.035
5418,-0.250,0.030
5419,-0.250,0.025
5420,-0.245,0.030
5421,-0.235,0.015
5422,-0.240,0.020
5423,-0.250,0.000
5424,-0.240,0.005
5425,-0.225,-0.005
5426,-0.225,-0.005
5427,-0.200,-0.010
5428,-0.190,-0.020
5429,-0.180,-0.030
5430,-0.150,-0.025
5431,-0.125,-0.025
5432,-0.115,-0.030
5433,-0.095,-0.030
5434,-0.085,-0.025
5435,-0.095,-0.040
5436,-0.085,-0.035
5437,-0.100,-0.030
5438,-0.100,-0.025
5439,-0.110,-0.035
5440,-0.105,-0.020
5441,-0.115,-0.025
5442,-0.120,-0.035
5443,-0.115,-0.025
5444,-0.110,-0.030
5445,-0.110,-0.030
5446,-0.120,-0.035
5447,-0.120,-0.030
5448,-0.120,-0.035
5449,-0.105,-0.020
5450,-0.100,-0.025
5451,-0.100,-0.025
5452,-0.095,-0.025
5453,-0.085,-0.025
5454,-0.080,-0.025
5455,-0.065,-0.025
5456,-0.090,-0.030
5457,-0.095,-0.025
5458,-0.105,-0.030
5459,-0.080,-0.030
5460,-0.100,-0.025
5461,-0.110,-0.030
5462,-0.110,-0.035
5463,-0.135,-0.020
5464,-0.125,-0.040
5465,-0.125,-0.040
5466,-0.135,-0.040
5467,-0.135,-0.045
5468,-0.135,-0.040
5469,-0.140,-0.035
5470,-0.145,-0.050
5471,-0.155,-0.045
5472,-0.155,-0.055
5473,-0.165,-0.055
5474,-0.155,-0.060
5475,-0.160,-0.050
5476,-0.170,-0.060
5477,-0.160,-0.050
5478,-0.160,-0.070
5479,-0.180,-0.065
5480,-0.185,-0.055
5481,-0.165,-0.065
5482,-0.180,-0.060
5483,-0.175,-0.055
5484,-0.165,-0.070
5485,-0.175,-0.060
5486,-0.185,-0.070
5487,-0.175,-0.065
5488,-0.190,-0.070
5489,-0.175,-0.070
5490,-0.170,-0.070
5491,-0.185,-0.075
5492,-0.190,-0.075
5493,-0.185,-0.060
5494,-0.200,-0.065
5495,-0.195,-0.070
5496,-0.180,-0.060
5497,-0.180,-0.070
5498,-0.185,-0.060
5499,-0.180,-0.060
5500,-0.175,-0.070
5501,-0.185,-0.065
5502,-0.185,-0.060
5503,-0.175,-0.065
5504,-0.195,-0.065
5505,-0.185,-0.070
5506,-0.185,-0.060
5507,-0.190,-0.065
5508,-0.175,-0.060
5509,-0.165,-0.065
5510,-0.165,-0.060
5511,-0.145,-0.065
5512,-0.130,-0.045
5513,-0.140,-0.030
5514,-0.140,-0.035
5515,-0.145,-0.020
5516,-0.150,-0.050
5517,-0.165,-0.080
5518,-0.155,-0.095
5519,-0.160,-0.085
5520,-0.160,-0.085
5521,-0.150,-0.080
5522,-0.140,-0.095
5523,-0.150,-0.090
5524,-0.180,-0.075
5525,-0.180,-0.050
5526,-0.190,-0.050
5527,-0.205,-0.050
5528,-0.180,-0.050
5529,-0.195,-0.055
5530,-0.195,-0.050
5531,-0.170,-0.065
5532,-0.180,-0.060
5533,-0.180,-0.060
5534,-0.180,-0.055
5535,-0.185,-0.055
5536,-0.160,-0.035
5537,0.080,-0.010
5538,0.560,-0.040
5539,0.970,-0.150
5540,0.910,-0.340
5541,0.095,-0.530
5542,-0.505,-0.600
5543,-0.545,-0.445
5544,-0.345,-0.220
5545,-0.240,-0.040
5546,-0.210,0.035
5547,-0.220,0.020
5548,-0.215,0.015
5549,-0.230,0.000
5550,-0.215,0.000
5551,-0.215,0.000
5552,-0.225,0.000
5553,-0.220,-0.010
5554,-0.200,-0.015
5555,-0.220,-0.020
5556,-0.225,-0.020
5557,-0.215,-0.020
5558,-0.230,-0.030
5559,-0.210,-0.020
5560,-0.210,-0.010
5561,-0.225,-0.010
5562,-0.215,-0.020
5563,-0.210,-0.020
5564,-0.220,-0.005
5565,-0.225,-0.010
5566,-0.215,-0.005
5567,-0.225,0.000
5568,-0.230,-0.010
5569,-0.225,-0.015
5570,-0.230,-0.010
5571,-0.245,-0.010
5572,-0.240,-0.015
5573,-0.240,-0.020
5574,-0.235,-0.025
5575,-0.225,-0.015
5576,-0.220,-0.035
5577,-0.225,-0.040
5578,-0.210,-0.035
5579,-0.170,-0.050
5580,-0.160,-0.055
5581,-0.160,-0.070
5582,-0.120,-0.060
5583,-0.120,-0.065
5584,-0.115,-0.070
5585,-0.110,-0.070
5586,-0.110,-0.065
5587,-0.120,-0.065
5588,-0.115,-0.070
5589,-0.125,-0.070
5590,-0.145,-0.070
5591,-0.145,-0.075
5592,-0.140,-0.090
5593,-0.145,-0.080
5594,-0.150,-0.085
5595,-0.135,-0.090
5596,-0.140,-0.085
5597,-0.140,-0.075
5598,-0.130,-0.080
5599,-0.145,-0.090
5600,-0.140,-0.100
5601,-0.130,-0.105
5602,-0.130,-0.090
5603,-0.140,-0.095
5604,-0.125,-0.095
5605,-0.135,-0.090
5606,-0.135,-0.095
5607,-0.115,-0.100
5608,-0.130,-0.110
5609,-0.130,-0.110
5610,-0.125,-0.100
5611,-0.130,-0.110
5612,-0.145,-0.105
5613,-0.145,-0.110
5614,-0.150,-0.110
5615,-0.150,-0.120
5616,-0.155,-0.115
5617,-0.155,-0.110
5618,-0.160,-0.115
5619,-0.175,-0.110
5620,-0.165,-0.115
5621,-0.165,-0.105
5622,-0.175,-0.115
5623,-0.170,-0.115
5624,-0.170,-0.120
5625,-0.170,-0.110
5626,-0.180,-0.115
5627,-0.175,-0.115
5628,-0.180,-0.115
5629,-0.175,-0.110
5630,-0.195,-0.100
5631,-0.195,-0.105
5632,-0.185,-0.110
5633,-0.195,-0.105
5634,-0.190,-0.125
5635,-0.180,-0.120
5636,-0.180,-0.110
5637,-0.185,-0.105
5638,-0.170,-0.115
5639,-0.185,-0.115
5640,-0.185,-0.110
5641,-0.175,-0.110
5642,-0.170,-0.115
5643,-0.185,-0.115
5644,-0.190,-0.110
5645,-0.185,-0.105
5646,-0.185,-0.105
5647,-0.195,-0.095
5648,-0.190,-0.100
5649,-0.190,-0.105
5650,-0.185,-0.110
5651,-0.175,-0.105
5652,-0.190,-0.105
5653,-0.175,-0.105
5654,-0.175,-0.100
5655,-0.175,-0.110
5656,-0.185,-0.105
5657,-0.170,-0.130
5658,-0.170,-0.125
5659,-0.170,-0.105
5660,-0.145,-0.120
5661,-0.125,-0.105
5662,-0.140,-0.095
5663,-0.130,-0.085
5664,-0.110,-0.085
5665,-0.130,-0.100
5666,-0.150,-0.130
5667,-0.135,-0.140
5668,-0.140,-0.140
5669,-0.155,-0.130
5670,-0.125,-0.125
5671,-0.115,-0.130
5672,-0.135,-0.115
5673,-0.140,-0.100
5674,-0.180,-0.095
5675,-0.180,-0.100
5676,-0.165,-0.085
5677,-0.155,-0.090
5678,-0.165,-0.090
5679,-0.165,-0.105
5680,-0.165,-0.105
5681,-0.160,-0.100
5682,-0.140,-0.115
5683,-0.160,-0.105
5684,-0.175,-0.100
5685,-0.120,-0.095
5686,0.145,-0.065
5687,0.615,-0.105
5688,1.035,-0.205
5689,0.865,-0.400
5690,0.020,-0.600
5691,-0.485,-0.645
5692,-0.485,-0.465
5693,-0.315,-0.245
5694,-0.230,-0.090
5695,-0.205,-0.035
5696,-0.225,-0.045
5697,-0.220,-0.050
5698,-0.215,-0.070
5699,-0.220,-0.065
5700,-0.220,-0.065
5701,-0.205,-0.070
5702,-0.215,-0.075
5703,-0.215,-0.085
5704,-0.220,-0.090
5705,-0.225,-0.085
5706,-0.225,-0.095
5707,-0.220,-0.100
5708,-0.220,-0.085
5709,-0.235,-0.095
5710,-0.210,-0.090
5711,-0.225,-0.100
5712,-0.225,-0.105
5713,-0.225,-0.090
5714,-0.210,-0.100
5715,-0.220,-0.085
5716,-0.225,-0.095
5717,-0.225,-0.080
5718,-0.235,-0.085
5719,-0.245,-0.075
5720,-0.235,-0.080
5721,-0.245,-0.080
5722,-0.235,-0.080
5723,-0.240,-0.095
5724,-0.240,-0.095
5725,-0.215,-0.105
5726,-0.205,-0.115
5727,-0.190,-0.115
5728,-0.190,-0.130
5729,-0.145,-0.130
5730,-0.130,-0.140
5731,-0.135,-0.135
5732,-0.115,-0.155
5733,-0.100,-0.155
5734,-0.105,-0.150
5735,-0.120,-0.150
5736,-0.130,-0.150
5737,-0.135,-0.155
5738,-0.140,-0.160
5739,-0.140,-0.150
5740,-0.155,-0.160
5741,-0.150,-0.145
5742,-0.135,-0.160
5743,-0.150,-0.150
5744,-0.155,-0.155
5745,-0.150,-0.150
5746,-0.130,-0.150
5747,-0.130,-0.145
5748,-0.115,-0.170
5749,-0.115,-0.145
5750,-0.105,-0.155
5751,-0.105,-0.145
5752,-0.115,-0.145
5753,-0.125,-0.150
5754,-0.115,-0.145
5755,-0.110,-0.150
5756,-0.130,-0.150
5757,-0.125,-0.145
5758,-0.110,-0.140
5759,-0.135,-0.130
5760,-0.135,-0.155
5761,-0.125,-0.150
5762,-0.140,-0.160
5763,-0.150,-0.145
5764,-0.150,-0.140
5765,-0.150,-0.130
5766,-0.140,-0.140
5767,-0.145,-0.140
5768,-0.155,-0.145
5769,-0.150,-0.130
5770,-0.155,-0.140
5771,-0.160,-0.135
5772,-0.170,-0.145
5773,-0.155,-0.150
5774,-0.160,-0.140
5775,-0.160,-0.145
5776,-0.170,-0.145
5777,-0.165,-0.140
5778,-0.175,-0.135
5779,-0.165,-0.150
5780,-0.160,-0.135
5781,-0.175,-0.135
5782,-0.165,-0.145
5783,-0.160,-0.140
5784,-0.170,-0.135
5785,-0.175,-0.135
5786,-0.180,-0.140
5787,-0.175,-0.130
5788,-0.170,-0.150
5789,-0.160,-0.140
5790,-0.165,-0.140
5791,-0.165,-0.145
5792,-0.155,-0.145
5793,-0.150,-0.145
5794,-0.155,-0.140
5795,-0.150,-0.130
5796,-0.145,-0.135
5797,-0.160,-0.130
5798,-0.155,-0.130
5799,-0.150,-0.125
5800,-0.145,-0.120
5801,-0.150,-0.120
5802,-0.145,-0.125
5803,-0.140,-0.115
5804,-0.135,-0.120
5805,-0.140,-0.110
5806,-0.130,-0.115
5807,-0.115,-0.115
5808,-0.090,-0.110
5809,-0.105,-0.095
5810,-0.085,-0.085
5811,-0.085,-0.085
5812,-0.085,-0.100
5813,-0.115,-0.115
5814,-0.105,-0.140
5815,-0.110,-0.155
5816,-0.115,-0.155
5817,-0.110,-0.160
5818,-0.105,-0.165
5819,-0.105,-0.150
5820,-0.115,-0.140
5821,-0.125,-0.115
5822,-0.155,-0.120
5823,-0.160,-0.110
5824,-0.135,-0.135
5825,-0.145,-0.130
5826,-0.150,-0.130
5827,-0.140,-0.135
5828,-0.130,-0.140
5829,-0.140,-0.140
5830,-0.135,-0.130
5831,-0.145,-0.140
5832,-0.160,-0.125
5833,-0.075,-0.110
5834,0.255,-0.080
5835,0.745,-0.140
5836,1.120,-0.250
5837,0.840,-0.480
5838,-0.070,-0.645
5839,-0.530,-0.670
5840,-0.485,-0.505
5841,-0.320,-0.300
5842,-0.210,-0.125
5843,-0.195,-0.045
5844,-0.220,-0.055
5845,-0.205,-0.070
5846,-0.195,-0.075
5847,-0.210,-0.075
5848,-0.215,-0.085
5849,-0.205,-0.090
5850,-0.200,-0.100
5851,-0.220,-0.085
5852,-0.220,-0.090
5853,-0.200,-0.095
5854,-0.220,-0.095
5855,-0.230,-0.090
5856,-0.215,-0.105
5857,-0.220,-0.105
5858,-0.225,-0.110
5859,-0.215,-0.095
5860,-0.240,-0.090
5861,-0.235,-0.100
5862,-0.220,-0.080
5863,-0.230,-0.095
5864,-0.225,-0.080
5865,-0.240,-0.095
5866,-0.235,-0.090
5867,-0.260,-0.080
5868,-0.250,-0.080
5869,-0.245,-0.080
5870,-0.235,-0.080
5871,-0.250,-0.080
5872,-0.245,-0.095
5873,-0.245,-0.115
5874,-0.240,-0.100
5875,-0.205,-0.105
5876,-0.185,-0.120
5877,-0.170,-0.135
5878,-0.150,-0.130
5879,-0.140,-0.145
5880,-0.140,-0.130
5881,-0.120,-0.145
5882,-0.105,-0.145
5883,-0.130,-0.145
5884,-0.125,-0.140
5885,-0.135,-0.145
5886,-0.135,-0.135
5887,-0.150,-0.145
5888,-0.155,-0.155
5889,-0.160,-0.140
5890,-0.155,-0.140
5891,-0.135,-0.135
5892,-0.150,-0.140
5893,-0.160,-0.145
5894,-0.155,-0.145
5895,-0.150,-0.140
5896,-0.145,-0.140
5897,-0.130,-0.130
5898,-0.135,-0.125
5899,-0.130,-0.130
5900,-0.125,-0.125
5901,-0.130,-0.110
5902,-0.135,-0.125
5903,-0.115,-0.120
5904,-0.120,-0.120
5905,-0.125,-0.125
5906,-0.145,-0.130
5907,-0.145,-0.115
5908,-0.140,-0.120
5909,-0.145,-0.135
5910,-0.120,-0.115
5911,-0.135,-0.130
5912,-0.145,-0.125
5913,-0.155,-0.130
5914,-0.150,-0.135
5915,-0.165,-0.135
5916,-0.165,-0.125
5917,-0.155,-0.135
5918,-0.160,-0.145
5919,-0.155,-0.145
5920,-0.165,-0.145
5921,-0.160,-0.140
5922,-0.165,-0.145
5923,-0.155,-0.150
5924,-0.165,-0.130
5925,-0.180,-0.125
5926,-0.165,-0.130
5927,-0.165,-0.140
5928,-0.165,-0.130
5929,-0.155,-0.140
5930,-0.175,-0.130
5931,-0.175,-0.120
5932,-0.175,-0.135
5933,-0.165,-0.145
5934,-0.170,-0.130
5935,-0.165,-0.125
5936,-0.165,-0.130
5937,-0.155,-0.135
5938,-0.155,-0.145
5939,-0.160,-0.135
5940,-0.160,-0.135
5941,-0.155,-0.125
5942,-0.150,-0.140
5943,-0.160,-0.120
5944,-0.155,-0.140
5945,-0.140,-0.145
5946,-0.160,-0.125
5947,-0.160,-0.120
5948,-0.155,-0.130
5949,-0.125,-0.130
5950,-0.160,-0.120
5951,-0.150,-0.130
5952,-0.150,-0.130
5953,-0.150,-0.125
5954,-0.160,-0.145
5955,-0.155,-0.120
5956,-0.125,-0.135
5957,-0.120,-0.115
5958,-0.115,-0.110
5959,-0.125,-0.105
5960,-0.115,-0.110
5961,-0.115,-0.115
5962,-0.125,-0.150
5963,-0.135,-0.170
5964,-0.125,-0.170
5965,-0.125,-0.165
5966,-0.135,-0.170
5967,-0.125,-0.165
5968,-0.120,-0.160
5969,-0.130,-0.145
5970,-0.135,-0.130
5971,-0.150,-0.125
5972,-0.155,-0.130
5973,-0.165,-0.120
5974,-0.145,-0.145
5975,-0.155,-0.140
5976,-0.155,-0.130
5977,-0.150,-0.130
5978,-0.145,-0.145
5979,-0.150,-0.140
5980,-0.145,-0.155
5981,-0.160,-0.150
5982,-0.085,-0.125
5983,0.250,-0.105
5984,0.735,-0.155
5985,1.095,-0.280
5986,0.690,-0.485
5987,-0.155,-0.645
5988,-0.505,-0.645
5989,-0.480,-0.455
5990,-0.295,-0.260
5991,-0.225,-0.125
5992,-0.215,-0.090
5993,-0.210,-0.080
5994,-0.225,-0.095
5995,-0.220,-0.105
5996,-0.225,-0.125
5997,-0.220,-0.120
5998,-0.235,-0.115
5999,-0.225,-0.125
6000,-0.225,-0.125
6001,-0.230,-0.145
6002,-0.230,-0.145
6003,-0.225,-0.140
6004,-0.235,-0.135
6005,-0.240,-0.140
6006,-0.240,-0.135
6007,-0.255,-0.140
6008,-0.235,-0.125
6009,-0.240,-0.120
6010,-0.240,-0.115
6011,-0.245,-0.095
6012,-0.245,-0.115
6013,-0.250,-0.100
6014,-0.240,-0.105
6015,-0.245,-0.110
6016,-0.250,-0.095
6017,-0.260,-0.100
6018,-0.250,-0.105
6019,-0.245,-0.105
6020,-0.265,-0.115
6021,-0.235,-0.120
6022,-0.240,-0.125
6023,-0.225,-0.135
6024,-0.205,-0.140
6025,-0.170,-0.150
6026,-0.165,-0.160
6027,-0.135,-0.155
6028,-0.125,-0.160
6029,-0.130,-0.165
6030,-0.120,-0.170
6031,-0.105,-0.170
6032,-0.120,-0.165
6033,-0.125,-0.155
6034,-0.135,-0.155
6035,-0.160,-0.160
6036,-0.160,-0.165
6037,-0.150,-0.155
6038,-0.160,-0.160
6039,-0.170,-0.155
6040,-0.160,-0.140
6041,-0.150,-0.155
6042,-0.165,-0.145
6043,-0.150,-0.140
6044,-0.145,-0.150
6045,-0.145,-0.150
6046,-0.145,-0.145
6047,-0.135,-0.145
6048,-0.135,-0.140
6049,-0.135,-0.125
6050,-0.120,-0.130
6051,-0.130,-0.135
6052,-0.125,-0.120
6053,-0.125,-0.130
6054,-0.120,-0.125
6055,-0.120,-0.120
6056,-0.120,-0.120
6057,-0.135,-0.125
6058,-0.130,-0.120
6059,-0.125,-0.105
6060,-0.135,-0.110
6061,-0.140,-0.115
6062,-0.125,-0.115
6063,-0.130,-0.120
6064,-0.135,-0.115
6065,-0.135,-0.120
6066,-0.130,-0.110
6067,-0.135,-0.115
6068,-0.140,-0.120
6069,-0.145,-0.130
6070,-0.150,-0.120
6071,-0.145,-0.110
6072,-0.150,-0.120
6073,-0.145,-0.115
6074,-0.155,-0.125
6075,-0.150,-0.120
6076,-0.150,-0.120
6077,-0.145,-0.135
6078,-0.140,-0.150
6079,-0.150,-0.120
6080,-0.150,-0.135
6081,-0.145,-0.125
6082,-0.145,-0.130
6083,-0.155,-0.145
6084,-0.150,-0.140
6085,-0.150,-0.140
6086,-0.155,-0.140
6087,-0.165,-0.145
6088,-0.165,-0.145
6089,-0.170,-0.140
6090,-0.155,-0.140
6091,-0.140,-0.130
6092,-0.155,-0.135
6093,-0.155,-0.125
6094,-0.140,-0.125
6095,-0.150,-0.140
6096,-0.160,-0.135
6097,-0.150,-0.140
6098,-0.150,-0.150
6099,-0.150,-0.140
6100,-0.140,-0.140
6101,-0.150,-0.140
6102,-0.155,-0.145
6103,-0.150,-0.140
6104,-0.125,-0.150
6105,-0.115,-0.145
6106,-0.105,-0.135
6107,-0.110,-0.120
6108,-0.105,-0.120
6109,-0.095,-0.140
6110,-0.115,-0.145
6111,-0.135,-0.155
6112,-0.125,-0.175
6113,-0.125,-0.175
6114,-0.125,-0.185
6115,-0.120,-0.180
6116,-0.110,-0.175
6117,-0.130,-0.160
6118,-0.140,-0.165
6119,-0.155,-0.140
6120,-0.170,-0.135
6121,-0.160,-0.150
6122,-0.170,-0.155
6123,-0.155,-0.150
6124,-0.175,-0.135
6125,-0.160,-0.140
6126,-0.160,-0.150
6127,-0.155,-0.155
6128,-0.165,-0.155
6129,-0.170,-0.155
6130,-0.135,-0.145
6131,0.170,-0.105
6132,0.665,-0.155
6133,1.055,-0.270
6134,0.755,-0.480
6135,-0.155,-0.660
6136,-0.565,-0.690
6137,-0.495,-0.495
6138,-0.300,-0.270
6139,-0.225,-0.125
6140,-0.215,-0.055
6141,-0.230,-0.065
6142,-0.220,-0.085
6143,-0.225,-0.085
6144,-0.225,-0.100
6145,-0.215,-0.085
6146,-0.225,-0.095
6147,-0.225,-0.105
6148,-0.220,-0.105
6149,-0.235,-0.110
6150,-0.225,-0.105
6151,-0.250,-0.100
6152,-0.235,-0.110
6153,-0.225,-0.100
6154,-0.230,-0.105
6155,-0.240,-0.100
6156,-0.240,-0.090
6157,-0.245,-0.080
6158,-0.245,-0.075
6159,-0.250,-0.085
6160,-0.235,-0.075
6161,-0.245,-0.080
6162,-0.255,-0.080
6163,-0.230,-0.085
6164,-0.245,-0.080
6165,-0.240,-0.075
6166,-0.240,-0.065
6167,-0.250,-0.070
6168,-0.250,-0.090
6169,-0.235,-0.090
6170,-0.215,-0.090
6171,-0.210,-0.105
6172,-0.185,-0.110
6173,-0.160,-0.120
6174,-0.155,-0.110
6175,-0.125,-0.130
6176,-0.115,-0.130
6177,-0.110,-0.130
6178,-0.095,-0.145
6179,-0.095,-0.130
6180,-0.095,-0.115
6181,-0.120,-0.115
6182,-0.110,-0.125
6183,-0.130,-0.110
6184,-0.125,-0.115
6185,-0.130,-0.110
6186,-0.140,-0.110
6187,-0.140,-0.120
6188,-0.125,-0.110
6189,-0.120,-0.110
6190,-0.130,-0.100
6191,-0.125,-0.105
6192,-0.120,-0.115
6193,-0.125,-0.100
6194,-0.120,-0.095
6195,-0.090,-0.105
6196,-0.105,-0.105
6197,-0.110,-0.110
6198,-0.095,-0.105
6199,-0.105,-0.085
6200,-0.105,-0.095
6201,-0.100,-0.105
6202,-0.105,-0.095
6203,-0.115,-0.105
6204,-0.105,-0.100
6205,-0.115,-0.105
6206,-0.120,-0.100
6207,-0.120,-0.095
6208,-0.125,-0.115
6209,-0.130,-0.115
6210,-0.130,-0.115
6211,-0.120,-0.120
6212,-0.150,-0.120
6213,-0.140,-0.125
6214,-0.135,-0.110
6215,-0.145,-0.110
6216,-0.145,-0.130
6217,-0.130,-0.130
6218,-0.140,-0.115
6219,-0.140,-0.115
6220,-0.140,-0.115
6221,-0.140,-0.125
6222,-0.150,-0.115
6223,-0.130,-0.115
6224,-0.140,-0.120
6225,-0.160,-0.125
6226,-0.145,-0.125
6227,-0.155,-0.125
6228,-0.145,-0.115
6229,-0.130,-0.120
6230,-0.135,-0.120
6231,-0.135,-0.120
6232,-0.140,-0.135
6233,-0.140,-0.135
6234,-0.150,-0.125
6235,-0.145,-0.125
6236,-0.145,-0.110
6237,-0.140,-0.120
6238,-0.150,-0.125
6239,-0.145,-0.115
6240,-0.145,-0.115
6241,-0.145,-0.125
6242,-0.140,-0.125
6243,-0.145,-0.125
6244,-0.160,-0.125
6245,-0.165,-0.125
6246,-0.140,-0.130
6247,-0.140,-0.130
6248,-0.145,-0.130
6249,-0.155,-0.110
6250,-0.145,-0.115
6251,-0.155,-0.120
6252,-0.110,-0.120
6253,-0.110,-0.115
6254,-0.100,-0.110
6255,-0.115,-0.110
6256,-0.110,-0.120
6257,-0.130,-0.120
6258,-0.120,-0.140
6259,-0.130,-0.145
6260,-0.125,-0.150
6261,-0.120,-0.160
6262,-0.125,-0.165
6263,-0.130,-0.155
6264,-0.115,-0.155
6265,-0.140,-0.135
6266,-0.160,-0.120
6267,-0.170,-0.115
6268,-0.165,-0.115
6269,-0.175,-0.125
6270,-0.160,-0.120
6271,-0.160,-0.125
6272,-0.150,-0.120
6273,-0.155,-0.115
6274,-0.150,-0.120
6275,-0.160,-0.125
6276,-0.170,-0.125
6277,-0.125,-0.115
6278,0.155,-0.070
6279,0.645,-0.130
6280,1.080,-0.225
6281,0.910,-0.415
6282,0.045,-0.590
6283,-0.485,-0.640
6284,-0.495,-0.485
6285,-0.325,-0.265
6286,-0.210,-0.100
6287,-0.200,-0.050
6288,-0.230,-0.065
6289,-0.225,-0.065
6290,-0.225,-0.060
6291,-0.225,-0.085
6292,-0.220,-0.090
6293,-0.230,-0.080
6294,-0.225,-0.100
6295,-0.230,-0.100
6296,-0.215,-0.080
6297,-0.220,-0.100
6298,-0.235,-0.100
6299,-0.215,-0.090
6300,-0.230,-0.100
6301,-0.230,-0.100
6302,-0.235,-0.085
6303,-0.230,-0.095
6304,-0.230,-0.085
6305,-0.240,-0.070
6306,-0.235,-0.085
6307,-0.235,-0.075
6308,-0.230,-0.075
6309,-0.235,-0.080
6310,-0.235,-0.060
6311,-0.225,-0.070
6312,-0.235,-0.055
6313,-0.240,-0.075
6314,-0.210,-0.075
6315,-0.220,-0.070
6316,-0.220,-0.080
6317,-0.205,-0.100
6318,-0.175,-0.095
6319,-0.160,-0.090
6320,-0.135,-0.105
6321,-0.115,-0.110
6322,-0.095,-0.105
6323,-0.070,-0.110
6324,-0.060,-0.110
6325,-0.065,-0.115
6326,-0.065,-0.125
6327,-0.070,-0.110
6328,-0.080,-0.120
6329,-0.090,-0.100
6330,-0.090,-0.110
6331,-0.105,-0.105
6332,-0.110,-0.105
6333,-0.100,-0.090
6334,-0.105,-0.105
6335,-0.110,-0.100
6336,-0.105,-0.095
6337,-0.100,-0.100
6338,-0.100,-0.100
6339,-0.085,-0.105
6340,-0.085,-0.115
6341,-0.100,-0.105
6342,-0.085,-0.090
6343,-0.080,-0.100
6344,-0.080,-0.085
6345,-0.070,-0.095
6346,-0.075,-0.095
6347,-0.080,-0.095
6348,-0.080,-0.090
6349,-0.080,-0.090
6350,-0.085,-0.095
6351,-0.090,-0.095
6352,-0.090,-0.100
6353,-0.090,-0.100
6354,-0.110,-0.100
6355,-0.090,-0.115
6356,-0.095,-0.110
6357,-0.115,-0.105
6358,-0.115,-0.100
6359,-0.120,-0.095
6360,-0.120,-0.100
6361,-0.135,-0.105
6362,-0.115,-0.110
6363,-0.110,-0.105
6364,-0.125,-0.105
6365,-0.125,-0.105
6366,-0.125,-0.110
6367,-0.125,-0.105
6368,-0.120,-0.120
6369,-0.130,-0.110
6370,-0.140,-0.115
6371,-0.125,-0.100
6372,-0.125,-0.115
6373,-0.135,-0.100
6374,-0.130,-0.105
6375,-0.130,-0.110
6376,-0.140,-0.115
6377,-0.135,-0.110
6378,-0.125,-0.095
6379,-0.135,-0.105
6380,-0.130,-0.115
6381,-0.135,-0.115
6382,-0.140,-0.125
6383,-0.135,-0.110
6384,-0.140,-0.105
6385,-0.140,-0.105
6386,-0.140,-0.110
6387,-0.130,-0.105
6388,-0.160,-0.100
6389,-0.145,-0.105
6390,-0.140,-0.110
6391,-0.140,-0.105
6392,-0.145,-0.110
6393,-0.150,-0.100
6394,-0.155,-0.105
6395,-0.140,-0.100
6396,-0.130,-0.110
6397,-0.140,-0.105
6398,-0.135,-0.105
6399,-0.120,-0.095
6400,-0.105,-0.100
6401,-0.100,-0.095
6402,-0.080,-0.080
6403,-0.080,-0.080
6404,-0.100,-0.075
6405,-0.110,-0.100
6406,-0.105,-0.115
6407,-0.105,-0.135
6408,-0.110,-0.130
6409,-0.110,-0.135
6410,-0.115,-0.140
6411,-0.110,-0.140
6412,-0.105,-0.125
6413,-0.120,-0.120
6414,-0.125,-0.100
6415,-0.145,-0.085
6416,-0.145,-0.100
6417,-0.155,-0.105
6418,-0.145,-0.110
6419,-0.140,-0.095
6420,-0.145,-0.105
6421,-0.140,-0.100
6422,-0.145,-0.105
6423,-0.150,-0.100
6424,-0.150,-0.110
6425,-0.155,-0.095
6426,-0.015,-0.065
6427,0.390,-0.070
6428,0.870,-0.135
6429,1.125,-0.300
6430,0.605,-0.505
6431,-0.265,-0.645
6432,-0.540,-0.600
6433,-0.440,-0.395
6434,-0.255,-0.190
6435,-0.190,-0.045
6436,-0.220,0.000
6437,-0.195,-0.025
6438,-0.200,-0.035
6439,-0.205,-0.030
6440,-0.180,-0.040
6441,-0.185,-0.040
6442,-0.190,-0.040
6443,-0.190,-0.040
6444,-0.195,-0.050
6445,-0.205,-0.050
6446,-0.200,-0.060
6447,-0.195,-0.050
6448,-0.210,-0.040
6449,-0.210,-0.045
6450,-0.195,-0.040
6451,-0.200,-0.025
6452,-0.195,-0.030
6453,-0.195,-0.025
6454,-0.200,-0.025
6455,-0.190,-0.025
6456,-0.200,-0.025
6457,-0.185,-0.015
6458,-0.195,-0.020
6459,-0.195,-0.020
6460,-0.190,-0.020
6461,-0.200,-0.020
6462,-0.200,-0.005
6463,-0.185,-0.010
6464,-0.190,-0.025
6465,-0.180,-0.025
6466,-0.170,-0.040
6467,-0.160,-0.050
6468,-0.135,-0.065
6469,-0.105,-0.070
6470,-0.095,-0.070
6471,-0.070,-0.080
6472,-0.060,-0.070
6473,-0.050,-0.070
6474,-0.045,-0.085
6475,-0.055,-0.080
6476,-0.060,-0.070
6477,-0.070,-0.070
6478,-0.080,-0.080
6479,-0.080,-0.080
6480,-0.080,-0.080
6481,-0.080,-0.090
6482,-0.065,-0.085
6483,-0.100,-0.085
6484,-0.085,-0.070
6485,-0.090,-0.090
6486,-0.090,-0.075
6487,-0.095,-0.085
6488,-0.085,-0.080
6489,-0.090,-0.080
6490,-0.080,-0.080
6491,-0.080,-0.075
6492,-0.060,-0.080
6493,-0.070,-0.075
6494,-0.075,-0.085
6495,-0.065,-0.085
6496,-0.080,-0.075
6497,-0.075,-0.080
6498,-0.075,-0.080
6499,-0.090,-0.090
6500,-0.095,-0.090
6501,-0.080,-0.090
