'sample interval','ECG0','ECG1'
'0.0078125 sec','mV','mV'
0,0.050,-0.255
1,0.055,-0.245
2,0.035,-0.245
3,0.060,-0.250
4,0.055,-0.265
5,0.045,-0.265
6,0.050,-0.250
7,0.045,-0.250
8,0.050,-0.255
9,0.050,-0.255
10,0.045,-0.250
11,0.040,-0.245
12,0.050,-0.245
13,0.055,-0.255
14,0.035,-0.250
15,0.045,-0.240
16,0.035,-0.230
17,0.025,-0.190
18,0.035,-0.180
19,0.060,-0.165
20,0.050,-0.145
21,0.070,-0.130
22,0.065,-0.135
23,0.055,-0.180
24,0.030,-0.210
25,0.030,-0.235
26,0.025,-0.295
27,0.025,-0.320
28,0.000,-0.330
29,0.000,-0.325
30,0.010,-0.320
31,0.005,-0.295
32,0.015,-0.305
33,0.000,-0.305
34,0.000,-0.300
35,0.005,-0.285
36,0.005,-0.290
37,0.000,-0.285
38,0.010,-0.280
39,0.020,-0.285
40,0.000,-0.275
41,0.005,-0.285
42,0.010,-0.430
43,0.035,-0.645
44,0.115,-0.440
45,0.235,-0.175
46,0.150,0.200
47,-0.230,0.530
48,-0.645,0.590
49,-0.555,0.315
50,-0.260,0.000
51,-0.025,-0.195
52,0.010,-0.290
53,0.035,-0.315
54,0.055,-0.295
55,0.085,-0.310
56,0.085,-0.295
57,0.090,-0.300
58,0.080,-0.300
59,0.090,-0.285
60,0.105,-0.280
61,0.105,-0.270
62,0.120,-0.275
63,0.125,-0.275
64,0.130,-0.270
65,0.140,-0.275
66,0.155,-0.275
67,0.155,-0.270
68,0.190,-0.255
69,0.190,-0.235
70,0.195,-0.230
71,0.215,-0.200
72,0.230,-0.185
73,0.220,-0.185
74,0.210,-0.175
75,0.205,-0.155
76,0.185,-0.150
77,0.160,-0.150
78,0.165,-0.140
79,0.135,-0.160
80,0.105,-0.190
81,0.080,-0.200
82,0.075,-0.230
83,0.070,-0.235
84,0.050,-0.230
85,0.045,-0.230
86,0.035,-0.240
87,0.060,-0.240
88,0.065,-0.225
89,0.075,-0.240
90,0.080,-0.235
91,0.060,-0.245
92,0.060,-0.240
93,0.065,-0.245
94,0.080,-0.240
95,0.065,-0.240
96,0.075,-0.235
97,0.085,-0.245
98,0.085,-0.245
99,0.070,-0.240
100,0.095,-0.245
101,0.085,-0.240
102,0.065,-0.250
103,0.080,-0.240
104,0.080,-0.240
105,0.085,-0.250
106,0.090,-0.235
107,0.090,-0.240
108,0.080,-0.255
109,0.080,-0.240
110,0.065,-0.210
111,0.065,-0.195
112,0.065,-0.180
113,0.090,-0.140
114,0.095,-0.120
115,0.110,-0.105
116,0.110,-0.115
117,0.100,-0.150
118,0.090,-0.170
119,0.075,-0.200
120,0.075,-0.255
121,0.075,-0.290
122,0.060,-0.280
123,0.060,-0.285
124,0.060,-0.280
125,0.075,-0.255
126,0.070,-0.275
127,0.055,-0.260
128,0.065,-0.255
129,0.045,-0.260
130,0.055,-0.260
131,0.055,-0.255
132,0.060,-0.245
133,0.055,-0.240
134,0.050,-0.225
135,0.070,-0.240
136,0.065,-0.360
137,0.075,-0.595
138,0.145,-0.460
139,0.270,-0.185
140,0.225,0.140
141,-0.125,0.505
142,-0.585,0.600
143,-0.585,0.420
144,-0.280,0.065
145,-0.025,-0.135
146,0.010,-0.240
147,0.045,-0.285
148,0.055,-0.255
149,0.100,-0.260
150,0.115,-0.265
151,0.105,-0.255
152,0.105,-0.260
153,0.110,-0.260
154,0.110,-0.255
155,0.125,-0.265
156,0.120,-0.250
157,0.135,-0.255
158,0.135,-0.245
159,0.150,-0.255
160,0.145,-0.255
161,0.165,-0.260
162,0.180,-0.255
163,0.175,-0.235
164,0.180,-0.230
165,0.185,-0.210
166,0.215,-0.185
167,0.215,-0.180
168,0.215,-0.165
169,0.200,-0.150
170,0.190,-0.135
171,0.170,-0.155
172,0.140,-0.170
173,0.105,-0.185
174,0.085,-0.185
175,0.085,-0.205
176,0.055,-0.230
177,0.065,-0.235
178,0.045,-0.255
179,0.035,-0.260
180,0.030,-0.275
181,0.025,-0.260
182,0.030,-0.265
183,0.030,-0.265
184,0.030,-0.265
185,0.030,-0.275
186,0.040,-0.255
187,0.045,-0.260
188,0.030,-0.275
189,0.035,-0.265
190,0.040,-0.280
191,0.020,-0.270
192,0.055,-0.285
193,0.040,-0.260
194,0.055,-0.285
195,0.045,-0.280
196,0.040,-0.275
197,0.040,-0.285
198,0.030,-0.280
199,0.030,-0.285
200,0.025,-0.270
201,0.020,-0.265
202,0.025,-0.270
203,0.010,-0.255
204,0.025,-0.230
205,0.025,-0.205
206,0.030,-0.185
207,0.040,-0.160
208,0.045,-0.155
209,0.045,-0.145
210,0.050,-0.150
211,0.060,-0.170
212,0.025,-0.195
213,0.035,-0.250
214,0.015,-0.300
215,0.020,-0.325
216,0.000,-0.340
217,0.005,-0.315
218,0.000,-0.320
219,0.000,-0.295
220,0.010,-0.280
221,0.015,-0.290
222,0.015,-0.285
223,0.015,-0.290
224,0.015,-0.285
225,0.025,-0.280
226,0.010,-0.285
227,0.015,-0.265
228,0.025,-0.250
229,0.015,-0.255
230,0.025,-0.400
231,0.035,-0.660
232,0.145,-0.465
233,0.235,-0.115
234,0.200,0.290
235,-0.155,0.600
236,-0.600,0.685
237,-0.560,0.350
238,-0.255,0.040
239,-0.005,-0.160
240,0.010,-0.285
241,0.010,-0.320
242,0.030,-0.295
243,0.060,-0.280
244,0.060,-0.285
245,0.050,-0.275
246,0.070,-0.265
247,0.060,-0.275
248,0.080,-0.270
249,0.095,-0.270
250,0.080,-0.280
251,0.075,-0.280
252,0.075,-0.260
253,0.100,-0.270
254,0.095,-0.265
255,0.130,-0.260
256,0.145,-0.235
257,0.140,-0.225
258,0.155,-0.230
259,0.145,-0.220
260,0.150,-0.210
261,0.145,-0.200
262,0.135,-0.165
263,0.120,-0.140
264,0.120,-0.140
265,0.100,-0.150
266,0.080,-0.165
267,0.065,-0.175
268,0.035,-0.190
269,0.020,-0.210
270,0.020,-0.220
271,0.015,-0.230
272,0.000,-0.235
273,-0.005,-0.250
274,0.000,-0.255
275,0.000,-0.255
276,0.000,-0.255
277,0.000,-0.260
278,-0.010,-0.250
279,0.000,-0.260
280,0.000,-0.260
281,0.010,-0.250
282,0.005,-0.265
283,0.000,-0.265
284,0.005,-0.270
285,0.000,-0.270
286,0.000,-0.260
287,0.000,-0.270
288,0.005,-0.275
289,0.000,-0.270
290,0.000,-0.265
291,-0.005,-0.275
292,0.000,-0.280
293,0.000,-0.280
294,-0.005,-0.280
295,0.000,-0.275
296,-0.015,-0.270
297,0.000,-0.240
298,0.000,-0.220
299,-0.010,-0.210
300,-0.005,-0.185
301,0.000,-0.160
302,0.005,-0.135
303,0.020,-0.145
304,0.010,-0.190
305,0.000,-0.215
306,0.000,-0.225
307,-0.010,-0.310
308,-0.015,-0.345
309,-0.010,-0.335
310,-0.020,-0.345
311,-0.030,-0.325
312,-0.025,-0.325
313,-0.035,-0.310
314,-0.015,-0.315
315,-0.015,-0.315
316,-0.010,-0.305
317,-0.025,-0.310
318,-0.030,-0.305
319,-0.020,-0.300
320,-0.030,-0.290
321,-0.020,-0.285
322,-0.010,-0.285
323,-0.010,-0.365
324,0.000,-0.625
325,0.050,-0.530
326,0.170,-0.210
327,0.170,0.155
328,-0.090,0.560
329,-0.545,0.640
330,-0.615,0.450
331,-0.345,0.055
332,-0.085,-0.165
333,-0.010,-0.295
334,0.000,-0.325
335,0.015,-0.315
336,0.040,-0.305
337,0.045,-0.300
338,0.050,-0.290
339,0.055,-0.285
340,0.050,-0.300
341,0.055,-0.285
342,0.055,-0.295
343,0.060,-0.275
344,0.085,-0.270
345,0.095,-0.270
346,0.105,-0.275
347,0.120,-0.260
348,0.140,-0.260
349,0.140,-0.250
350,0.145,-0.245
351,0.165,-0.225
352,0.175,-0.190
353,0.185,-0.180
354,0.185,-0.170
355,0.185,-0.150
356,0.185,-0.135
357,0.160,-0.145
358,0.145,-0.140
359,0.120,-0.140
360,0.100,-0.150
361,0.090,-0.155
362,0.060,-0.180
363,0.045,-0.190
364,0.040,-0.210
365,0.010,-0.220
366,0.030,-0.220
367,0.020,-0.230
368,0.020,-0.230
369,0.010,-0.245
370,0.005,-0.235
371,0.030,-0.235
372,0.020,-0.225
373,0.010,-0.245
374,0.020,-0.235
375,0.020,-0.245
376,0.015,-0.245
377,0.025,-0.240
378,0.020,-0.240
379,0.025,-0.220
380,0.030,-0.240
381,0.035,-0.230
382,0.030,-0.230
383,0.015,-0.250
384,0.025,-0.235
385,0.025,-0.240
386,0.010,-0.235
387,0.025,-0.240
388,0.015,-0.230
389,0.020,-0.240
390,0.005,-0.240
391,0.005,-0.205
392,0.005,-0.200
393,0.005,-0.180
394,0.015,-0.140
395,0.025,-0.125
396,0.035,-0.105
397,0.050,-0.125
398,0.050,-0.160
399,0.025,-0.170
400,0.005,-0.205
401,0.010,-0.265
402,0.000,-0.315
403,-0.010,-0.300
404,0.000,-0.295
405,-0.015,-0.280
406,0.000,-0.290
407,-0.005,-0.280
408,-0.010,-0.280
409,-0.005,-0.270
410,-0.020,-0.270
411,-0.005,-0.265
412,-0.010,-0.265
413,0.000,-0.265
414,-0.005,-0.260
415,-0.010,-0.260
416,-0.015,-0.250
417,-0.020,-0.340
418,0.000,-0.585
419,0.060,-0.485
420,0.180,-0.180
421,0.160,0.160
422,-0.150,0.550
423,-0.600,0.620
424,-0.670,0.470
425,-0.350,0.075
426,-0.115,-0.110
427,-0.020,-0.245
428,-0.025,-0.295
429,0.005,-0.275
430,0.035,-0.280
431,0.040,-0.275
432,0.040,-0.280
433,0.050,-0.275
434,0.050,-0.270
435,0.045,-0.260
436,0.065,-0.265
437,0.075,-0.255
438,0.090,-0.265
439,0.095,-0.265
440,0.100,-0.255
441,0.095,-0.245
442,0.105,-0.250
443,0.130,-0.235
444,0.155,-0.230
445,0.175,-0.210
446,0.180,-0.200
447,0.170,-0.175
448,0.170,-0.185
449,0.175,-0.155
450,0.160,-0.135
451,0.155,-0.115
452,0.150,-0.125
453,0.140,-0.135
454,0.110,-0.145
455,0.080,-0.160
456,0.065,-0.175
457,0.040,-0.195
458,0.025,-0.215
459,0.015,-0.215
460,0.020,-0.210
461,0.015,-0.225
462,0.025,-0.240
463,0.020,-0.250
464,0.010,-0.235
465,0.015,-0.240
466,0.015,-0.225
467,0.015,-0.230
468,0.020,-0.230
469,0.020,-0.245
470,0.035,-0.220
471,0.015,-0.230
472,0.040,-0.230
473,0.035,-0.235
474,0.045,-0.235
475,0.050,-0.235
476,0.040,-0.230
477,0.035,-0.240
478,0.045,-0.230
479,0.045,-0.235
480,0.045,-0.240
481,0.035,-0.230
482,0.035,-0.250
483,0.040,-0.225
484,0.045,-0.195
485,0.040,-0.180
486,0.055,-0.155
487,0.060,-0.165
488,0.060,-0.125
489,0.075,-0.120
490,0.070,-0.100
491,0.080,-0.140
492,0.065,-0.145
493,0.065,-0.170
494,0.040,-0.220
495,0.055,-0.260
496,0.030,-0.310
497,0.015,-0.305
498,0.030,-0.280
499,0.035,-0.270
500,0.025,-0.270
501,0.020,-0.255
502,0.020,-0.260
503,0.020,-0.255
504,0.025,-0.255
505,0.035,-0.265
506,0.030,-0.265
507,0.030,-0.250
508,0.025,-0.240
509,0.030,-0.230
510,0.040,-0.245
511,0.055,-0.340
512,0.070,-0.595
513,0.140,-0.435
514,0.255,-0.170
515,0.200,0.195
516,-0.145,0.560
517,-0.590,0.640
518,-0.570,0.405
519,-0.275,0.065
520,-0.045,-0.135
521,0.015,-0.240
522,0.035,-0.285
523,0.055,-0.270
524,0.075,-0.265
525,0.090,-0.245
526,0.095,-0.240
527,0.085,-0.245
528,0.110,-0.250
529,0.095,-0.250
530,0.115,-0.245
531,0.115,-0.250
532,0.120,-0.235
533,0.130,-0.250
534,0.125,-0.235
535,0.140,-0.230
536,0.170,-0.235
537,0.170,-0.235
538,0.185,-0.225
539,0.185,-0.215
540,0.180,-0.190
541,0.195,-0.185
542,0.190,-0.165
543,0.195,-0.165
544,0.180,-0.145
545,0.175,-0.135
546,0.150,-0.130
547,0.125,-0.155
548,0.110,-0.170
549,0.080,-0.190
550,0.065,-0.185
551,0.040,-0.215
552,0.030,-0.235
553,0.020,-0.230
554,0.020,-0.255
555,0.000,-0.250
556,0.000,-0.255
557,0.000,-0.265
558,0.000,-0.250
559,0.005,-0.250
560,0.010,-0.255
561,0.015,-0.270
562,0.015,-0.260
563,0.010,-0.260
564,0.005,-0.260
565,0.015,-0.270
566,0.010,-0.265
567,0.015,-0.265
568,0.015,-0.270
569,0.035,-0.270
570,0.035,-0.275
571,0.025,-0.290
572,0.030,-0.275
573,0.025,-0.275
574,0.015,-0.280
575,0.000,-0.270
576,0.010,-0.280
577,0.005,-0.265
578,0.005,-0.255
579,0.010,-0.230
580,0.025,-0.225
581,0.010,-0.205
582,0.010,-0.165
583,0.020,-0.150
584,0.025,-0.150
585,0.035,-0.190
586,0.025,-0.200
587,0.010,-0.225
588,0.000,-0.280
589,0.000,-0.335
590,-0.015,-0.360
591,-0.025,-0.340
592,0.000,-0.315
593,-0.025,-0.315
594,-0.015,-0.305
595,-0.015,-0.315
596,-0.015,-0.300
597,-0.010,-0.305
598,-0.015,-0.305
599,-0.015,-0.305
600,-0.015,-0.310
601,-0.015,-0.295
602,-0.005,-0.295
603,0.000,-0.270
604,0.000,-0.365
605,0.000,-0.620
606,0.065,-0.545
607,0.190,-0.215
608,0.185,0.135
609,-0.065,0.540
610,-0.510,0.655
611,-0.620,0.525
612,-0.350,0.115
613,-0.080,-0.110
614,0.000,-0.255
615,0.000,-0.315
616,0.005,-0.330
617,0.040,-0.290
618,0.045,-0.285
619,0.055,-0.285
620,0.060,-0.300
621,0.060,-0.295
622,0.055,-0.280
623,0.065,-0.275
624,0.055,-0.270
625,0.070,-0.280
626,0.070,-0.255
627,0.080,-0.250
628,0.085,-0.265
629,0.105,-0.260
630,0.110,-0.265
631,0.115,-0.240
632,0.125,-0.250
633,0.135,-0.220
634,0.135,-0.190
635,0.140,-0.175
636,0.140,-0.165
637,0.140,-0.155
638,0.125,-0.125
639,0.115,-0.140
640,0.080,-0.165
641,0.080,-0.165
642,0.065,-0.165
643,0.045,-0.185
644,0.025,-0.205
645,0.005,-0.215
646,0.005,-0.230
647,-0.010,-0.235
648,0.000,-0.240
649,-0.020,-0.260
650,0.000,-0.245
651,-0.005,-0.240
652,0.000,-0.250
653,0.000,-0.250
654,0.000,-0.250
655,-0.005,-0.260
656,-0.005,-0.255
657,-0.005,-0.255
658,0.010,-0.240
659,0.005,-0.250
660,0.000,-0.260
661,0.005,-0.265
662,0.010,-0.255
663,0.010,-0.265
664,0.005,-0.255
665,0.000,-0.270
666,0.000,-0.265
667,0.000,-0.250
668,0.000,-0.255
669,-0.005,-0.255
670,0.005,-0.255
671,0.000,-0.240
672,0.005,-0.220
673,-0.005,-0.210
674,0.000,-0.180
675,0.000,-0.135
676,0.020,-0.125
677,0.010,-0.130
678,0.005,-0.165
679,0.000,-0.200
680,-0.005,-0.215
681,-0.015,-0.270
682,-0.025,-0.330
683,-0.035,-0.330
684,-0.030,-0.325
685,-0.035,-0.305
686,-0.035,-0.310
687,-0.035,-0.305
688,-0.030,-0.300
689,-0.030,-0.300
690,-0.030,-0.295
691,-0.025,-0.295
692,-0.035,-0.280
693,-0.020,-0.275
694,-0.015,-0.285
695,-0.005,-0.280
696,-0.015,-0.275
697,0.000,-0.375
698,-0.020,-0.620
699,0.060,-0.520
700,0.180,-0.170
701,0.175,0.195
702,-0.110,0.595
703,-0.555,0.675
704,-0.610,0.440
705,-0.325,0.050
706,-0.085,-0.155
707,0.000,-0.290
708,-0.015,-0.300
709,0.005,-0.295
710,0.030,-0.285
711,0.045,-0.285
712,0.040,-0.290
713,0.035,-0.290
714,0.055,-0.275
715,0.050,-0.280
716,0.045,-0.275
717,0.070,-0.275
718,0.060,-0.260
719,0.085,-0.260
720,0.080,-0.255
721,0.090,-0.270
722,0.090,-0.260
723,0.120,-0.245
724,0.140,-0.235
725,0.145,-0.205
726,0.155,-0.190
727,0.140,-0.195
728,0.150,-0.165
729,0.160,-0.170
730,0.145,-0.130
731,0.135,-0.120
732,0.110,-0.130
733,0.095,-0.115
734,0.075,-0.135
735,0.060,-0.150
736,0.055,-0.180
737,0.030,-0.195
738,0.020,-0.200
739,0.005,-0.215
740,0.000,-0.210
741,-0.005,-0.210
742,0.010,-0.205
743,0.020,-0.215
744,0.010,-0.195
745,0.015,-0.205
746,0.020,-0.225
747,0.010,-0.210
748,0.015,-0.210
749,0.015,-0.215
750,0.015,-0.210
751,0.015,-0.205
752,0.040,-0.205
753,0.020,-0.205
754,0.045,-0.215
755,0.030,-0.225
756,0.015,-0.215
757,0.015,-0.225
758,0.015,-0.205
759,0.025,-0.210
760,0.010,-0.220
761,0.020,-0.220
762,0.015,-0.225
763,0.035,-0.220
764,0.010,-0.215
765,0.010,-0.180
766,0.010,-0.160
767,0.015,-0.150
768,0.025,-0.130
769,0.025,-0.085
770,0.045,-0.075
771,0.035,-0.100
772,0.025,-0.140
773,0.015,-0.155
774,0.000,-0.185
775,0.005,-0.235
776,0.005,-0.280
777,-0.005,-0.290
778,0.000,-0.270
779,-0.025,-0.265
780,-0.005,-0.260
781,-0.005,-0.250
782,-0.015,-0.255
783,-0.015,-0.240
784,0.000,-0.235
785,0.005,-0.225
786,0.000,-0.230
787,0.015,-0.220
788,0.000,-0.235
789,-0.005,-0.225
790,0.000,-0.245
791,-0.005,-0.420
792,0.045,-0.585
793,0.135,-0.310
794,0.225,-0.040
795,0.085,0.415
796,-0.355,0.615
797,-0.685,0.645
798,-0.520,0.295
799,-0.225,0.005
800,-0.025,-0.170
801,-0.025,-0.255
802,0.000,-0.285
803,0.020,-0.265
804,0.045,-0.265
805,0.040,-0.265
806,0.045,-0.250
807,0.060,-0.255
808,0.040,-0.235
809,0.050,-0.230
810,0.050,-0.230
811,0.060,-0.245
812,0.070,-0.225
813,0.080,-0.240
814,0.095,-0.240
815,0.090,-0.225
816,0.115,-0.225
817,0.130,-0.210
818,0.145,-0.205
819,0.160,-0.185
820,0.155,-0.160
821,0.165,-0.165
822,0.165,-0.150
823,0.150,-0.135
824,0.140,-0.105
825,0.150,-0.110
826,0.135,-0.105
827,0.115,-0.115
828,0.080,-0.115
829,0.070,-0.140
830,0.030,-0.175
831,0.020,-0.175
832,0.030,-0.210
833,0.005,-0.195
834,0.000,-0.210
835,-0.005,-0.210
836,0.000,-0.205
837,0.005,-0.205
838,0.000,-0.205
839,0.000,-0.210
840,-0.005,-0.205
841,0.000,-0.210
842,0.020,-0.215
843,0.005,-0.200
844,0.005,-0.215
845,0.000,-0.205
846,0.030,-0.215
847,0.015,-0.225
848,0.005,-0.220
849,0.015,-0.235
850,0.010,-0.225
851,0.020,-0.210
852,0.005,-0.225
853,0.030,-0.220
854,0.010,-0.220
855,0.015,-0.220
856,0.000,-0.220
857,0.000,-0.200
858,0.010,-0.195
859,0.010,-0.160
860,0.025,-0.125
861,0.040,-0.120
862,0.050,-0.095
863,0.055,-0.075
864,0.050,-0.080
865,0.045,-0.120
866,0.040,-0.140
867,0.025,-0.155
868,0.020,-0.215
869,0.015,-0.255
870,0.040,-0.260
871,0.005,-0.250
872,0.015,-0.245
873,0.010,-0.245
874,0.010,-0.230
875,0.010,-0.230
876,0.015,-0.235
877,0.005,-0.220
878,0.030,-0.225
879,0.025,-0.220
880,0.010,-0.220
881,0.015,-0.220
882,0.005,-0.215
883,0.015,-0.200
884,0.010,-0.315
885,0.035,-0.530
886,0.105,-0.430
887,0.230,-0.160
888,0.185,0.170
889,-0.145,0.565
890,-0.600,0.655
891,-0.615,0.465
892,-0.305,0.125
893,-0.055,-0.075
894,0.000,-0.205
895,0.020,-0.245
896,0.045,-0.235
897,0.055,-0.220
898,0.085,-0.215
899,0.070,-0.220
900,0.080,-0.225
901,0.075,-0.215
902,0.080,-0.200
903,0.095,-0.195
904,0.100,-0.205
905,0.105,-0.215
906,0.110,-0.210
907,0.120,-0.210
908,0.130,-0.200
909,0.140,-0.190
910,0.150,-0.175
911,0.170,-0.170
912,0.195,-0.150
913,0.195,-0.155
914,0.195,-0.130
915,0.185,-0.115
916,0.195,-0.095
917,0.185,-0.080
918,0.175,-0.070
919,0.170,-0.080
920,0.150,-0.090
921,0.105,-0.110
922,0.100,-0.125
923,0.060,-0.135
924,0.050,-0.150
925,0.015,-0.180
926,0.020,-0.175
927,0.015,-0.170
928,0.015,-0.175
929,0.015,-0.180
930,0.000,-0.190
931,0.000,-0.195
932,0.000,-0.200
933,0.000,-0.200
934,0.000,-0.195
935,0.010,-0.195
936,0.015,-0.195
937,0.015,-0.210
938,0.000,-0.215
939,0.000,-0.230
940,0.015,-0.220
941,0.015,-0.210
942,0.000,-0.200
943,0.015,-0.200
944,0.010,-0.195
945,0.015,-0.215
946,0.025,-0.210
947,0.010,-0.210
948,0.010,-0.220
949,0.000,-0.205
950,0.005,-0.195
951,0.005,-0.175
952,0.005,-0.155
953,0.010,-0.145
954,0.025,-0.120
955,0.040,-0.105
956,0.030,-0.085
957,0.035,-0.090
958,0.025,-0.120
959,0.015,-0.135
960,0.015,-0.170
961,0.010,-0.245
962,0.010,-0.270
963,0.000,-0.285
964,0.000,-0.275
965,-0.010,-0.265
966,-0.015,-0.270
967,0.000,-0.255
968,0.000,-0.250
969,0.000,-0.240
970,0.000,-0.245
971,0.000,-0.260
972,0.000,-0.245
973,0.000,-0.240
974,0.000,-0.250
975,0.015,-0.230
976,0.000,-0.230
977,0.000,-0.375
978,0.030,-0.610
979,0.120,-0.405
980,0.235,-0.155
981,0.145,0.235
982,-0.270,0.555
983,-0.665,0.650
984,-0.590,0.370
985,-0.270,0.045
986,-0.040,-0.135
987,0.000,-0.245
988,0.015,-0.270
989,0.040,-0.265
990,0.065,-0.250
991,0.070,-0.245
992,0.080,-0.235
993,0.080,-0.225
994,0.090,-0.220
995,0.085,-0.225
996,0.105,-0.220
997,0.115,-0.220
998,0.115,-0.230
999,0.115,-0.220
1000,0.125,-0.230
1001,0.145,-0.195
1002,0.170,-0.195
1003,0.180,-0.190
1004,0.190,-0.190
1005,0.205,-0.180
1006,0.200,-0.155
1007,0.205,-0.145
1008,0.210,-0.115
1009,0.205,-0.115
1010,0.200,-0.085
1011,0.185,-0.090
1012,0.165,-0.100
1013,0.150,-0.105
1014,0.115,-0.120
1015,0.080,-0.145
1016,0.060,-0.165
1017,0.045,-0.155
1018,0.030,-0.175
1019,0.030,-0.190
1020,0.020,-0.190
1021,0.030,-0.205
1022,0.015,-0.205
1023,0.010,-0.210
1024,0.015,-0.200
1025,0.025,-0.200
1026,0.010,-0.195
1027,0.015,-0.195
1028,0.015,-0.195
1029,0.020,-0.215
1030,0.015,-0.215
1031,0.015,-0.215
1032,0.015,-0.225
1033,0.005,-0.205
1034,0.010,-0.210
1035,0.030,-0.215
1036,0.015,-0.205
1037,0.015,-0.225
1038,0.005,-0.230
1039,0.020,-0.220
1040,0.015,-0.225
1041,0.000,-0.215
1042,0.005,-0.220
1043,0.000,-0.215
1044,0.005,-0.195
1045,-0.005,-0.190
1046,0.005,-0.180
1047,0.000,-0.150
1048,0.000,-0.125
1049,0.000,-0.105
1050,0.010,-0.080
1051,0.010,-0.110
1052,0.000,-0.130
1053,0.000,-0.155
1054,-0.010,-0.210
1055,-0.010,-0.265
1056,-0.020,-0.310
1057,-0.040,-0.295
1058,-0.035,-0.280
1059,-0.035,-0.275
1060,-0.015,-0.265
1061,-0.035,-0.265
1062,-0.055,-0.265
1063,-0.045,-0.265
1064,-0.035,-0.280
1065,-0.045,-0.260
1066,-0.055,-0.260
1067,-0.035,-0.260
1068,-0.050,-0.235
1069,-0.050,-0.240
1070,-0.040,-0.305
1071,-0.040,-0.545
1072,0.000,-0.605
1073,0.110,-0.280
1074,0.165,0.045
1075,0.005,0.500
1076,-0.445,0.660
1077,-0.695,0.620
1078,-0.485,0.205
1079,-0.190,-0.045
1080,-0.055,-0.230
1081,-0.045,-0.295
1082,-0.025,-0.285
1083,0.000,-0.275
1084,0.015,-0.270
1085,0.020,-0.265
1086,0.020,-0.260
1087,0.025,-0.260
1088,0.025,-0.260
1089,0.015,-0.270
1090,0.020,-0.260
1091,0.040,-0.255
1092,0.045,-0.250
1093,0.040,-0.250
1094,0.055,-0.245
1095,0.060,-0.255
1096,0.075,-0.250
1097,0.075,-0.230
1098,0.085,-0.215
1099,0.095,-0.195
1100,0.110,-0.180
1101,0.110,-0.165
1102,0.105,-0.145
1103,0.100,-0.150
1104,0.065,-0.145
1105,0.070,-0.125
1106,0.045,-0.135
1107,0.030,-0.150
1108,0.015,-0.145
1109,-0.020,-0.180
1110,-0.010,-0.185
1111,-0.040,-0.205
1112,-0.040,-0.205
1113,-0.045,-0.230
1114,-0.045,-0.235
1115,-0.050,-0.245
1116,-0.050,-0.215
1117,-0.035,-0.225
1118,-0.035,-0.230
1119,-0.020,-0.240
1120,-0.015,-0.220
1121,-0.030,-0.210
1122,-0.025,-0.225
1123,-0.030,-0.225
1124,-0.010,-0.205
1125,-0.005,-0.220
1126,-0.010,-0.205
1127,0.000,-0.205
1128,-0.005,-0.220
1129,0.000,-0.225
1130,0.000,-0.235
1131,-0.025,-0.220
1132,-0.010,-0.205
1133,-0.015,-0.215
1134,0.000,-0.200
1135,-0.010,-0.230
1136,-0.020,-0.225
1137,-0.010,-0.210
1138,-0.015,-0.185
1139,-0.025,-0.160
1140,-0.020,-0.145
1141,-0.010,-0.110
1142,0.000,-0.095
1143,0.005,-0.085
1144,0.010,-0.095
1145,0.005,-0.125
1146,-0.015,-0.160
1147,-0.020,-0.200
1148,-0.035,-0.255
1149,-0.030,-0.275
1150,-0.050,-0.280
1151,-0.045,-0.265
1152,-0.055,-0.260
1153,-0.040,-0.255
1154,-0.040,-0.255
1155,-0.055,-0.255
1156,-0.050,-0.250
1157,-0.030,-0.235
1158,-0.050,-0.250
1159,-0.045,-0.235
1160,-0.050,-0.235
1161,-0.035,-0.235
1162,-0.045,-0.230
1163,-0.055,-0.245
1164,-0.050,-0.445
1165,-0.035,-0.600
1166,0.075,-0.325
1167,0.170,0.000
1168,0.075,0.475
1169,-0.325,0.670
1170,-0.690,0.690
1171,-0.520,0.290
1172,-0.215,-0.005
1173,-0.050,-0.185
1174,-0.055,-0.250
1175,-0.030,-0.265
1176,0.000,-0.265
1177,0.000,-0.250
1178,0.010,-0.250
1179,0.010,-0.255
1180,0.000,-0.245
1181,0.015,-0.235
1182,0.010,-0.230
1183,0.010,-0.235
1184,0.025,-0.235
1185,0.030,-0.235
1186,0.045,-0.245
1187,0.055,-0.245
1188,0.040,-0.240
1189,0.035,-0.225
1190,0.055,-0.225
1191,0.075,-0.210
1192,0.095,-0.185
1193,0.085,-0.185
1194,0.100,-0.155
1195,0.080,-0.140
1196,0.070,-0.125
1197,0.060,-0.100
1198,0.045,-0.095
1199,0.025,-0.100
1200,0.015,-0.125
1201,-0.005,-0.140
1202,-0.010,-0.170
1203,-0.035,-0.175
1204,-0.060,-0.190
1205,-0.065,-0.195
1206,-0.080,-0.195
1207,-0.080,-0.205
1208,-0.080,-0.210
1209,-0.085,-0.205
1210,-0.070,-0.200
1211,-0.055,-0.220
1212,-0.090,-0.210
1213,-0.065,-0.225
1214,-0.085,-0.205
1215,-0.055,-0.215
1216,-0.070,-0.205
1217,-0.055,-0.210
1218,-0.055,-0.220
1219,-0.070,-0.220
1220,-0.055,-0.225
1221,-0.065,-0.225
1222,-0.055,-0.215
1223,-0.050,-0.230
1224,-0.075,-0.220
1225,-0.060,-0.225
1226,-0.070,-0.220
1227,-0.060,-0.225
1228,-0.060,-0.220
1229,-0.060,-0.230
1230,-0.070,-0.220
1231,-0.080,-0.175
1232,-0.075,-0.160
1233,-0.050,-0.145
1234,-0.050,-0.125
1235,-0.070,-0.100
1236,-0.060,-0.090
1237,-0.045,-0.105
1238,-0.060,-0.125
1239,-0.065,-0.135
1240,-0.065,-0.170
1241,-0.055,-0.225
1242,-0.055,-0.275
1243,-0.085,-0.285
1244,-0.090,-0.265
1245,-0.100,-0.260
1246,-0.075,-0.260
1247,-0.080,-0.240
1248,-0.080,-0.235
1249,-0.070,-0.245
1250,-0.080,-0.235
1251,-0.065,-0.240
1252,-0.060,-0.235
1253,-0.075,-0.225
1254,-0.065,-0.225
1255,-0.055,-0.205
1256,-0.050,-0.225
1257,-0.035,-0.375
1258,-0.020,-0.585
1259,0.080,-0.340
1260,0.170,-0.055
1261,0.070,0.380
1262,-0.345,0.630
1263,-0.720,0.695
1264,-0.585,0.360
1265,-0.275,0.055
1266,-0.065,-0.145
1267,-0.045,-0.230
1268,-0.035,-0.255
1269,-0.025,-0.240
1270,0.000,-0.235
1271,0.005,-0.220
1272,0.000,-0.215
1273,0.010,-0.210
1274,0.030,-0.210
1275,0.015,-0.205
1276,0.025,-0.220
1277,0.020,-0.220
1278,0.030,-0.210
1279,0.050,-0.210
1280,0.040,-0.200
1281,0.060,-0.210
1282,0.075,-0.200
1283,0.100,-0.175
1284,0.100,-0.190
1285,0.105,-0.165
1286,0.115,-0.145
1287,0.120,-0.125
1288,0.120,-0.105
1289,0.110,-0.100
1290,0.110,-0.070
1291,0.095,-0.080
1292,0.065,-0.080
1293,0.070,-0.085
1294,0.025,-0.100
1295,0.005,-0.110
1296,-0.005,-0.130
1297,-0.020,-0.135
1298,-0.020,-0.155
1299,-0.040,-0.155
1300,-0.040,-0.165
1301,-0.040,-0.185
1302,-0.060,-0.185
1303,-0.045,-0.195
1304,-0.055,-0.170
1305,-0.050,-0.185
1306,-0.040,-0.175
1307,-0.045,-0.175
1308,-0.040,-0.190
1309,-0.030,-0.180
1310,-0.035,-0.190
1311,-0.040,-0.195
1312,-0.060,-0.190
1313,-0.040,-0.190
1314,-0.045,-0.185
1315,-0.030,-0.200
1316,-0.040,-0.190
1317,-0.040,-0.210
1318,-0.045,-0.210
1319,-0.040,-0.200
1320,-0.040,-0.215
1321,-0.060,-0.190
1322,-0.040,-0.195
1323,-0.055,-0.185
1324,-0.055,-0.180
1325,-0.060,-0.160
1326,-0.050,-0.130
1327,-0.055,-0.120
1328,-0.050,-0.090
1329,-0.035,-0.065
1330,-0.020,-0.070
1331,-0.015,-0.095
1332,-0.025,-0.115
1333,-0.055,-0.160
1334,-0.055,-0.205
1335,-0.065,-0.260
1336,-0.070,-0.285
1337,-0.070,-0.260
1338,-0.075,-0.250
1339,-0.070,-0.240
1340,-0.060,-0.230
1341,-0.070,-0.240
1342,-0.065,-0.245
1343,-0.070,-0.240
1344,-0.075,-0.245
1345,-0.050,-0.255
1346,-0.065,-0.220
1347,-0.050,-0.235
1348,-0.070,-0.225
1349,-0.050,-0.220
1350,-0.040,-0.255
1351,-0.045,-0.475
1352,-0.010,-0.565
1353,0.100,-0.295
1354,0.160,-0.030
1355,-0.015,0.405
1356,-0.465,0.615
1357,-0.750,0.620
1358,-0.545,0.245
1359,-0.255,-0.010
1360,-0.085,-0.185
1361,-0.060,-0.250
1362,-0.035,-0.275
1363,-0.015,-0.245
1364,0.005,-0.245
1365,0.005,-0.240
1366,0.010,-0.240
1367,0.015,-0.225
1368,0.005,-0.230
1369,0.035,-0.235
1370,0.020,-0.225
1371,0.050,-0.210
1372,0.055,-0.220
1373,0.070,-0.205
1374,0.085,-0.215
1375,0.075,-0.190
1376,0.105,-0.200
1377,0.095,-0.190
1378,0.120,-0.165
1379,0.135,-0.150
1380,0.145,-0.150
1381,0.155,-0.125
1382,0.140,-0.110
1383,0.155,-0.085
1384,0.125,-0.080
1385,0.120,-0.080
1386,0.100,-0.095
1387,0.070,-0.065
1388,0.060,-0.095
1389,0.035,-0.120
1390,0.030,-0.135
1391,0.010,-0.150
1392,0.000,-0.150
1393,-0.020,-0.165
1394,-0.025,-0.165
1395,0.000,-0.170
1396,0.000,-0.170
1397,-0.010,-0.175
1398,-0.015,-0.175
1399,-0.010,-0.170
1400,0.000,-0.180
1401,-0.005,-0.180
1402,0.000,-0.180
1403,-0.005,-0.180
1404,0.000,-0.185
1405,-0.010,-0.180
1406,0.000,-0.195
1407,0.000,-0.200
1408,0.000,-0.195
1409,0.000,-0.195
1410,0.000,-0.190
1411,0.000,-0.215
1412,-0.005,-0.165
1413,-0.005,-0.190
1414,0.000,-0.190
1415,0.000,-0.185
1416,0.000,-0.195
1417,-0.010,-0.190
1418,-0.005,-0.185
1419,-0.020,-0.145
1420,-0.010,-0.130
1421,0.000,-0.120
1422,0.000,-0.070
1423,0.010,-0.060
1424,0.005,-0.070
1425,0.010,-0.090
1426,0.000,-0.115
1427,0.000,-0.145
1428,-0.020,-0.175
1429,-0.010,-0.240
1430,-0.010,-0.260
1431,-0.020,-0.260
1432,-0.025,-0.255
1433,-0.025,-0.255
1434,-0.025,-0.250
1435,-0.030,-0.250
1436,-0.045,-0.235
1437,-0.040,-0.230
1438,-0.030,-0.240
1439,-0.020,-0.230
1440,-0.020,-0.235
1441,-0.030,-0.225
1442,-0.035,-0.235
1443,-0.050,-0.225
1444,-0.030,-0.260
1445,-0.030,-0.440
1446,0.005,-0.570
1447,0.125,-0.295
1448,0.190,-0.055
1449,0.000,0.385
1450,-0.470,0.580
1451,-0.765,0.620
1452,-0.525,0.225
1453,-0.235,-0.010
1454,-0.060,-0.180
1455,-0.060,-0.245
1456,-0.015,-0.260
1457,0.000,-0.260
1458,0.020,-0.245
1459,0.010,-0.250
1460,0.020,-0.245
1461,0.020,-0.240
1462,0.030,-0.230
1463,0.030,-0.235
1464,0.035,-0.230
1465,0.055,-0.235
1466,0.050,-0.220
1467,0.060,-0.225
1468,0.065,-0.235
1469,0.080,-0.215
1470,0.105,-0.200
1471,0.105,-0.185
1472,0.135,-0.195
1473,0.140,-0.185
1474,0.170,-0.170
1475,0.145,-0.135
1476,0.140,-0.115
1477,0.130,-0.120
1478,0.115,-0.085
1479,0.125,-0.085
1480,0.115,-0.090
1481,0.080,-0.105
1482,0.075,-0.125
1483,0.040,-0.145
1484,0.005,-0.170
1485,-0.010,-0.185
1486,0.000,-0.175
1487,0.000,-0.170
1488,0.000,-0.195
1489,-0.015,-0.205
1490,-0.020,-0.205
1491,-0.005,-0.210
1492,-0.015,-0.220
1493,0.000,-0.215
1494,-0.020,-0.215
1495,-0.020,-0.215
1496,0.000,-0.200
1497,-0.010,-0.210
1498,-0.005,-0.210
1499,0.000,-0.220
1500,0.000,-0.220
1501,-0.005,-0.230
1502,0.000,-0.220
1503,0.005,-0.220
1504,0.000,-0.215
1505,0.015,-0.215
1506,0.025,-0.210
1507,0.010,-0.220
1508,0.000,-0.225
1509,0.000,-0.220
1510,0.005,-0.205
1511,0.005,-0.195
1512,0.010,-0.160
1513,0.015,-0.155
1514,0.005,-0.135
1515,0.020,-0.120
1516,0.025,-0.095
1517,0.020,-0.090
1518,0.025,-0.080
1519,0.020,-0.100
1520,0.025,-0.130
1521,0.000,-0.155
1522,0.005,-0.210
1523,0.010,-0.265
1524,0.000,-0.290
1525,0.000,-0.270
1526,-0.010,-0.245
1527,-0.005,-0.245
1528,-0.015,-0.250
1529,-0.020,-0.255
1530,-0.005,-0.245
1531,0.000,-0.235
1532,-0.020,-0.220
1533,-0.010,-0.260
1534,-0.015,-0.245
1535,-0.010,-0.240
1536,-0.020,-0.235
1537,-0.035,-0.235
1538,-0.010,-0.310
1539,0.000,-0.585
1540,0.055,-0.490
1541,0.180,-0.195
1542,0.165,0.160
1543,-0.135,0.555
1544,-0.605,0.680
1545,-0.640,0.475
1546,-0.345,0.115
1547,-0.090,-0.090
1548,-0.025,-0.225
1549,-0.025,-0.260
1550,0.000,-0.265
1551,0.005,-0.245
1552,0.035,-0.250
1553,0.015,-0.250
1554,0.025,-0.235
1555,0.045,-0.220
1556,0.040,-0.230
1557,0.045,-0.230
1558,0.045,-0.230
1559,0.055,-0.240
1560,0.050,-0.230
1561,0.065,-0.215
1562,0.095,-0.220
1563,0.080,-0.220
1564,0.115,-0.215
1565,0.110,-0.220
1566,0.125,-0.190
1567,0.115,-0.180
1568,0.120,-0.155
1569,0.120,-0.150
1570,0.105,-0.145
1571,0.110,-0.130
1572,0.105,-0.100
1573,0.075,-0.115
1574,0.065,-0.140
1575,0.040,-0.130
1576,0.005,-0.170
1577,-0.005,-0.185
1578,-0.005,-0.195
1579,-0.025,-0.215
1580,-0.040,-0.215
1581,-0.025,-0.225
1582,-0.045,-0.230
1583,-0.040,-0.245
1584,-0.055,-0.230
1585,-0.045,-0.230
1586,-0.045,-0.240
1587,-0.055,-0.220
1588,-0.040,-0.225
1589,-0.040,-0.230
1590,-0.030,-0.235
1591,-0.055,-0.240
1592,-0.035,-0.235
1593,-0.035,-0.240
1594,-0.035,-0.235
1595,-0.035,-0.245
1596,-0.050,-0.230
1597,-0.020,-0.260
1598,-0.020,-0.250
1599,-0.010,-0.240
1600,-0.030,-0.260
1601,-0.035,-0.260
1602,-0.035,-0.250
1603,-0.045,-0.235
1604,-0.025,-0.240
1605,-0.025,-0.220
1606,-0.040,-0.190
1607,-0.040,-0.175
1608,-0.025,-0.160
1609,-0.010,-0.145
1610,-0.030,-0.125
1611,-0.020,-0.115
1612,-0.035,-0.150
1613,-0.030,-0.165
1614,-0.030,-0.190
1615,-0.035,-0.260
1616,-0.040,-0.320
1617,-0.065,-0.305
1618,-0.060,-0.300
1619,-0.060,-0.280
1620,-0.050,-0.285
1621,-0.055,-0.260
1622,-0.070,-0.275
1623,-0.065,-0.285
1624,-0.030,-0.280
1625,-0.060,-0.275
1626,-0.065,-0.270
1627,-0.070,-0.260
1628,-0.065,-0.265
1629,-0.050,-0.245
1630,-0.045,-0.255
1631,-0.045,-0.380
1632,-0.035,-0.625
1633,0.030,-0.455
1634,0.165,-0.110
1635,0.125,0.290
1636,-0.190,0.645
1637,-0.620,0.705
1638,-0.600,0.450
1639,-0.310,0.065
1640,-0.070,-0.150
1641,-0.040,-0.245
1642,-0.025,-0.285
1643,-0.015,-0.275
1644,0.000,-0.250
1645,0.010,-0.250
1646,0.020,-0.240
1647,0.030,-0.240
1648,0.015,-0.250
1649,0.035,-0.240
1650,0.035,-0.245
1651,0.040,-0.240
1652,0.050,-0.240
1653,0.075,-0.225
1654,0.075,-0.230
1655,0.075,-0.225
1656,0.085,-0.225
1657,0.110,-0.215
1658,0.105,-0.210
1659,0.110,-0.185
1660,0.115,-0.190
1661,0.120,-0.155
1662,0.130,-0.130
1663,0.135,-0.150
1664,0.115,-0.125
1665,0.110,-0.115
1666,0.085,-0.110
1667,0.055,-0.120
1668,0.040,-0.135
1669,0.015,-0.145
1670,0.025,-0.150
1671,0.000,-0.160
1672,-0.005,-0.185
1673,-0.005,-0.190
1674,-0.015,-0.200
1675,-0.020,-0.210
1676,-0.025,-0.205
1677,-0.025,-0.205
1678,-0.020,-0.200
1679,-0.025,-0.185
1680,-0.020,-0.195
1681,-0.010,-0.205
1682,-0.025,-0.200
1683,-0.015,-0.195
1684,-0.010,-0.205
1685,-0.020,-0.195
1686,-0.010,-0.200
1687,-0.005,-0.200
1688,0.000,-0.195
1689,0.000,-0.205
1690,0.000,-0.200
1691,-0.005,-0.215
1692,-0.005,-0.210
1693,0.000,-0.220
1694,0.000,-0.205
1695,0.000,-0.210
1696,0.000,-0.200
1697,-0.005,-0.195
1698,-0.015,-0.185
1699,-0.015,-0.165
1700,-0.010,-0.135
1701,0.000,-0.125
1702,0.010,-0.095
1703,0.005,-0.085
1704,0.000,-0.080
1705,0.015,-0.115
1706,0.000,-0.135
1707,-0.005,-0.160
1708,-0.020,-0.210
1709,-0.035,-0.275
1710,-0.030,-0.290
1711,-0.040,-0.275
1712,-0.050,-0.255
1713,-0.040,-0.255
1714,-0.035,-0.255
1715,-0.035,-0.265
1716,-0.035,-0.250
1717,-0.040,-0.245
1718,-0.045,-0.245
1719,-0.055,-0.235
1720,-0.040,-0.225
1721,-0.040,-0.215
1722,-0.025,-0.225
1723,-0.030,-0.210
1724,-0.025,-0.350
1725,-0.015,-0.590
1726,0.070,-0.425
1727,0.185,-0.115
1728,0.140,0.290
1729,-0.205,0.630
1730,-0.630,0.700
1731,-0.590,0.430
1732,-0.295,0.070
1733,-0.050,-0.125
1734,-0.035,-0.245
1735,-0.005,-0.275
1736,0.015,-0.265
1737,0.030,-0.250
1738,0.025,-0.240
1739,0.020,-0.225
1740,0.045,-0.220
1741,0.055,-0.235
1742,0.055,-0.230
1743,0.035,-0.235
1744,0.055,-0.235
1745,0.075,-0.210
1746,0.080,-0.220
1747,0.095,-0.220
1748,0.105,-0.220
1749,0.115,-0.200
1750,0.130,-0.205
1751,0.130,-0.190
1752,0.145,-0.175
1753,0.150,-0.145
1754,0.180,-0.135
1755,0.165,-0.130
1756,0.170,-0.100
1757,0.155,-0.110
1758,0.135,-0.100
1759,0.120,-0.085
1760,0.105,-0.090
1761,0.075,-0.115
1762,0.070,-0.115
1763,0.030,-0.140
1764,0.035,-0.155
1765,0.020,-0.160
1766,0.020,-0.170
1767,0.000,-0.180
1768,0.010,-0.185
1769,0.015,-0.170
1770,0.025,-0.170
1771,0.020,-0.175
1772,0.020,-0.185
1773,0.025,-0.180
1774,0.030,-0.180
1775,0.030,-0.170
1776,0.040,-0.170
1777,0.035,-0.180
1778,0.055,-0.160
1779,0.045,-0.170
1780,0.065,-0.160
1781,0.055,-0.170
1782,0.055,-0.165
1783,0.065,-0.185
1784,0.065,-0.175
1785,0.055,-0.175
1786,0.045,-0.180
1787,0.050,-0.160
1788,0.035,-0.180
1789,0.050,-0.170
1790,0.050,-0.170
1791,0.040,-0.140
1792,0.055,-0.130
1793,0.040,-0.120
1794,0.050,-0.105
1795,0.040,-0.065
1796,0.060,-0.035
1797,0.080,-0.050
1798,0.050,-0.090
1799,0.045,-0.110
1800,0.055,-0.145
1801,0.040,-0.200
1802,0.030,-0.245
1803,0.015,-0.250
1804,0.020,-0.230
1805,0.005,-0.220
1806,0.025,-0.220
1807,0.020,-0.210
1808,0.025,-0.210
1809,0.010,-0.210
1810,0.015,-0.200
1811,0.025,-0.200
1812,0.005,-0.185
1813,0.035,-0.190
1814,0.020,-0.180
1815,0.025,-0.185
1816,0.030,-0.200
1817,0.030,-0.350
1818,0.060,-0.555
1819,0.140,-0.330
1820,0.240,-0.065
1821,0.115,0.360
1822,-0.285,0.645
1823,-0.650,0.710
1824,-0.520,0.400
1825,-0.220,0.075
1826,-0.020,-0.125
1827,0.000,-0.215
1828,0.010,-0.235
1829,0.055,-0.210
1830,0.075,-0.215
1831,0.080,-0.205
1832,0.090,-0.200
1833,0.090,-0.215
1834,0.075,-0.210
1835,0.090,-0.210
1836,0.105,-0.210
1837,0.095,-0.210
1838,0.115,-0.190
1839,0.115,-0.195
1840,0.130,-0.195
1841,0.125,-0.190
1842,0.155,-0.200
1843,0.150,-0.180
1844,0.170,-0.170
1845,0.180,-0.145
1846,0.180,-0.120
1847,0.180,-0.115
1848,0.175,-0.085
1849,0.180,-0.095
1850,0.170,-0.070
1851,0.155,-0.060
1852,0.125,-0.070
1853,0.125,-0.095
1854,0.075,-0.100
1855,0.065,-0.110
1856,0.055,-0.140
1857,0.025,-0.155
1858,0.020,-0.160
1859,0.025,-0.160
1860,0.040,-0.165
1861,0.015,-0.185
1862,0.020,-0.175
1863,0.025,-0.170
1864,0.005,-0.165
1865,0.015,-0.170
1866,0.035,-0.185
1867,0.035,-0.180
1868,0.030,-0.175
1869,0.035,-0.185
1870,0.010,-0.185
1871,0.030,-0.190
1872,0.035,-0.175
1873,0.025,-0.175
1874,0.035,-0.190
1875,0.035,-0.185
1876,0.040,-0.185
1877,0.025,-0.195
1878,0.040,-0.200
1879,0.035,-0.185
1880,0.040,-0.190
1881,0.030,-0.190
1882,0.050,-0.180
1883,0.030,-0.180
1884,0.035,-0.185
1885,0.015,-0.155
1886,0.030,-0.140
1887,0.025,-0.115
1888,0.035,-0.060
1889,0.045,-0.055
1890,0.045,-0.065
1891,0.055,-0.075
1892,0.045,-0.115
1893,0.040,-0.115
1894,0.015,-0.180
1895,0.020,-0.230
1896,0.020,-0.250
1897,0.000,-0.235
1898,0.025,-0.230
1899,0.030,-0.220
1900,0.020,-0.210
1901,0.015,-0.200
1902,0.015,-0.215
1903,0.015,-0.215
1904,0.010,-0.215
1905,0.025,-0.185
1906,0.030,-0.195
1907,0.030,-0.185
1908,0.040,-0.180
1909,0.040,-0.190
1910,0.045,-0.290
1911,0.045,-0.525
1912,0.130,-0.400
1913,0.235,-0.140
1914,0.190,0.200
1915,-0.160,0.595
1916,-0.585,0.695
1917,-0.585,0.505
1918,-0.285,0.145
1919,-0.055,-0.065
1920,0.005,-0.185
1921,0.025,-0.215
1922,0.055,-0.210
1923,0.060,-0.195
1924,0.095,-0.195
1925,0.110,-0.195
1926,0.105,-0.195
1927,0.095,-0.190
1928,0.100,-0.190
1929,0.120,-0.185
1930,0.110,-0.160
1931,0.130,-0.175
1932,0.145,-0.155
1933,0.160,-0.165
1934,0.155,-0.175
1935,0.165,-0.165
1936,0.170,-0.160
1937,0.175,-0.150
1938,0.195,-0.125
1939,0.195,-0.120
1940,0.210,-0.095
1941,0.195,-0.105
1942,0.210,-0.090
1943,0.210,-0.080
1944,0.190,-0.055
1945,0.170,-0.050
1946,0.145,-0.060
1947,0.130,-0.060
1948,0.100,-0.095
1949,0.080,-0.115
1950,0.075,-0.130
1951,0.035,-0.150
1952,0.025,-0.160
1953,0.020,-0.160
1954,0.025,-0.165
1955,0.030,-0.155
1956,0.025,-0.150
1957,0.030,-0.170
1958,0.020,-0.160
1959,0.025,-0.180
1960,0.030,-0.185
1961,0.010,-0.180
1962,0.035,-0.180
1963,0.025,-0.180
1964,0.045,-0.185
1965,0.025,-0.190
1966,0.020,-0.185
1967,0.035,-0.205
1968,0.035,-0.200
1969,0.030,-0.210
1970,0.020,-0.195
1971,0.030,-0.195
1972,0.010,-0.195
1973,0.005,-0.200
1974,0.015,-0.210
1975,0.015,-0.215
1976,0.010,-0.210
1977,0.000,-0.185
1978,0.015,-0.175
1979,0.000,-0.155
1980,0.010,-0.125
1981,0.005,-0.100
1982,0.035,-0.075
1983,0.060,-0.065
1984,0.030,-0.115
1985,0.025,-0.135
1986,0.000,-0.175
1987,0.000,-0.195
1988,-0.005,-0.270
1989,0.000,-0.280
1990,0.000,-0.270
1991,-0.010,-0.265
1992,0.000,-0.265
1993,-0.005,-0.245
1994,-0.010,-0.250
1995,-0.015,-0.245
1996,0.000,-0.245
1997,-0.020,-0.240
1998,-0.015,-0.230
1999,-0.010,-0.225
2000,-0.015,-0.225
2001,-0.010,-0.230
2002,-0.005,-0.220
2003,0.000,-0.245
2004,-0.010,-0.470
2005,0.000,-0.595
2006,0.135,-0.290
2007,0.205,-0.020
2008,0.065,0.460
2009,-0.400,0.635
2010,-0.700,0.665
2011,-0.490,0.275
2012,-0.215,0.005
2013,-0.035,-0.175
2014,-0.025,-0.245
2015,0.000,-0.265
2016,0.035,-0.245
2017,0.045,-0.240
2018,0.040,-0.245
2019,0.045,-0.245
2020,0.035,-0.240
2021,0.055,-0.230
2022,0.030,-0.225
2023,0.070,-0.230
2024,0.080,-0.225
2025,0.075,-0.220
2026,0.075,-0.225
2027,0.075,-0.220
2028,0.100,-0.220
2029,0.110,-0.200
2030,0.130,-0.195
2031,0.140,-0.185
2032,0.150,-0.160
2033,0.165,-0.155
2034,0.155,-0.130
2035,0.160,-0.120
2036,0.150,-0.110
2037,0.140,-0.080
2038,0.130,-0.075
2039,0.110,-0.085
2040,0.090,-0.090
2041,0.085,-0.095
2042,0.055,-0.130
2043,0.030,-0.135
2044,0.020,-0.165
2045,0.020,-0.175
2046,0.000,-0.170
2047,0.000,-0.180
2048,0.000,-0.175
2049,0.000,-0.175
2050,0.000,-0.175
2051,0.005,-0.180
2052,0.000,-0.195
2053,0.005,-0.195
2054,-0.010,-0.205
2055,-0.015,-0.200
2056,-0.005,-0.185
2057,0.005,-0.190
2058,0.000,-0.205
2059,0.000,-0.185
2060,0.010,-0.185
2061,0.000,-0.195
2062,0.000,-0.200
2063,0.000,-0.190
2064,0.010,-0.185
2065,0.000,-0.185
2066,0.000,-0.180
2067,0.000,-0.205
2068,-0.005,-0.215
2069,-0.005,-0.205
2070,-0.005,-0.205
2071,-0.015,-0.180
2072,-0.005,-0.160
2073,-0.005,-0.135
2074,0.000,-0.110
2075,0.000,-0.080
2076,0.000,-0.060
2077,0.015,-0.065
2078,0.000,-0.100
2079,-0.005,-0.115
2080,-0.010,-0.155
2081,-0.025,-0.185
2082,-0.015,-0.235
2083,-0.015,-0.265
2084,-0.030,-0.250
2085,-0.030,-0.250
2086,-0.030,-0.245
2087,-0.035,-0.250
2088,-0.060,-0.235
2089,-0.045,-0.225
2090,-0.050,-0.230
2091,-0.025,-0.220
2092,-0.030,-0.240
2093,-0.035,-0.230
2094,-0.030,-0.225
2095,-0.040,-0.215
2096,-0.055,-0.225
2097,-0.050,-0.320
2098,-0.025,-0.560
2099,0.040,-0.465
2100,0.150,-0.125
2101,0.165,0.250
2102,-0.100,0.630
2103,-0.535,0.710
2104,-0.660,0.545
2105,-0.380,0.135
2106,-0.145,-0.055
2107,-0.055,-0.210
2108,-0.055,-0.260
2109,-0.035,-0.255
2110,0.005,-0.260
2111,0.010,-0.245
2112,0.015,-0.245
2113,0.000,-0.250
2114,0.000,-0.230
2115,0.000,-0.225
2116,0.015,-0.220
2117,0.030,-0.205
2118,0.030,-0.220
2119,0.045,-0.230
2120,0.025,-0.225
2121,0.055,-0.215
2122,0.065,-0.230
2123,0.065,-0.200
2124,0.075,-0.190
2125,0.080,-0.165
2126,0.115,-0.150
2127,0.100,-0.140
2128,0.095,-0.125
2129,0.090,-0.125
2130,0.090,-0.100
2131,0.085,-0.080
2132,0.070,-0.080
2133,0.065,-0.085
2134,0.030,-0.090
2135,0.020,-0.115
2136,0.000,-0.130
2137,0.000,-0.145
2138,-0.010,-0.155
2139,-0.035,-0.180
2140,-0.030,-0.175
2141,-0.035,-0.175
2142,-0.030,-0.175
2143,-0.025,-0.195
2144,-0.040,-0.195
2145,-0.040,-0.190
2146,-0.030,-0.195
2147,-0.030,-0.200
2148,-0.025,-0.200
2149,-0.030,-0.185
2150,-0.010,-0.185
2151,-0.015,-0.170
2152,-0.015,-0.185
2153,0.000,-0.180
2154,-0.015,-0.185
2155,-0.005,-0.195
2156,0.000,-0.160
2157,0.000,-0.170
2158,0.000,-0.175
2159,0.005,-0.170
2160,0.005,-0.185
2161,-0.015,-0.170
2162,0.000,-0.190
2163,0.000,-0.180
2164,0.000,-0.165
2165,-0.010,-0.130
2166,-0.010,-0.115
2167,0.005,-0.095
2168,0.020,-0.065
2169,0.030,-0.045
2170,0.015,-0.035
2171,0.030,-0.045
2172,0.010,-0.080
2173,0.005,-0.105
2174,0.000,-0.140
2175,0.000,-0.200
2176,0.000,-0.230
2177,0.000,-0.235
2178,-0.015,-0.230
2179,-0.015,-0.205
2180,-0.025,-0.205
2181,-0.015,-0.215
2182,-0.015,-0.200
2183,-0.025,-0.195
2184,-0.010,-0.190
2185,-0.020,-0.190
2186,-0.010,-0.185
2187,-0.010,-0.175
2188,-0.020,-0.180
2189,-0.015,-0.180
2190,-0.015,-0.205
2191,-0.010,-0.390
2192,0.025,-0.515
2193,0.140,-0.210
2194,0.215,0.050
2195,0.025,0.525
2196,-0.410,0.710
2197,-0.685,0.720
2198,-0.450,0.295
2199,-0.190,0.030
2200,-0.020,-0.125
2201,-0.020,-0.185
2202,0.010,-0.215
2203,0.025,-0.200
2204,0.050,-0.200
2205,0.035,-0.185
2206,0.040,-0.195
2207,0.055,-0.180
2208,0.055,-0.195
2209,0.060,-0.180
2210,0.070,-0.170
2211,0.065,-0.185
2212,0.075,-0.180
2213,0.085,-0.180
2214,0.085,-0.180
2215,0.080,-0.165
2216,0.115,-0.175
2217,0.115,-0.150
2218,0.150,-0.135
2219,0.155,-0.135
2220,0.135,-0.110
2221,0.150,-0.105
2222,0.130,-0.085
2223,0.135,-0.065
2224,0.120,-0.050
2225,0.110,-0.040
2226,0.100,-0.040
2227,0.075,-0.050
2228,0.050,-0.090
2229,0.025,-0.115
2230,0.015,-0.120
2231,-0.010,-0.135
2232,-0.020,-0.135
2233,-0.010,-0.140
2234,-0.015,-0.145
2235,-0.015,-0.155
2236,-0.010,-0.155
2237,-0.025,-0.170
2238,-0.020,-0.170
2239,-0.010,-0.170
2240,-0.025,-0.150
2241,-0.015,-0.155
2242,-0.005,-0.175
2243,0.000,-0.160
2244,0.015,-0.175
2245,0.010,-0.155
2246,0.010,-0.160
2247,0.010,-0.180
2248,0.020,-0.165
2249,0.000,-0.160
2250,0.005,-0.160
2251,0.010,-0.175
2252,0.000,-0.160
2253,0.000,-0.165
2254,0.000,-0.170
2255,0.000,-0.175
2256,-0.005,-0.195
2257,-0.015,-0.165
2258,-0.010,-0.140
2259,0.000,-0.115
2260,0.000,-0.095
2261,0.000,-0.100
2262,0.010,-0.040
2263,0.020,-0.045
2264,0.030,-0.040
2265,0.010,-0.055
2266,0.000,-0.085
2267,-0.005,-0.115
2268,0.000,-0.155
2269,0.000,-0.210
2270,0.000,-0.235
2271,-0.015,-0.225
2272,-0.020,-0.220
2273,-0.020,-0.210
2274,-0.015,-0.205
2275,-0.015,-0.210
2276,-0.010,-0.205
2277,0.000,-0.200
2278,-0.010,-0.200
2279,-0.005,-0.200
2280,-0.015,-0.200
2281,-0.025,-0.190
2282,0.000,-0.190
2283,0.000,-0.170
2284,0.020,-0.190
2285,0.010,-0.370
2286,0.045,-0.530
2287,0.170,-0.270
2288,0.230,-0.020
2289,0.085,0.410
2290,-0.340,0.645
2291,-0.675,0.705
2292,-0.475,0.390
2293,-0.195,0.090
2294,-0.010,-0.105
2295,0.005,-0.175
2296,0.040,-0.200
2297,0.060,-0.190
2298,0.075,-0.195
2299,0.080,-0.185
2300,0.075,-0.175
2301,0.095,-0.185
2302,0.100,-0.175
2303,0.110,-0.160
2304,0.095,-0.170
2305,0.115,-0.175
2306,0.100,-0.165
2307,0.115,-0.160
2308,0.135,-0.160
2309,0.135,-0.155
2310,0.155,-0.160
2311,0.175,-0.145
2312,0.185,-0.145
2313,0.190,-0.130
2314,0.195,-0.105
2315,0.205,-0.095
2316,0.200,-0.075
2317,0.205,-0.060
2318,0.205,-0.045
2319,0.190,-0.040
2320,0.175,-0.045
2321,0.155,-0.050
2322,0.130,-0.060
2323,0.095,-0.080
2324,0.080,-0.105
2325,0.045,-0.110
2326,0.050,-0.130
2327,0.050,-0.115
2328,0.040,-0.125
2329,0.040,-0.155
2330,0.015,-0.145
2331,0.020,-0.140
2332,0.025,-0.155
2333,0.035,-0.140
2334,0.030,-0.145
2335,0.035,-0.140
2336,0.030,-0.150
2337,0.025,-0.150
2338,0.030,-0.145
2339,0.030,-0.160
2340,0.020,-0.160
2341,0.025,-0.175
2342,0.010,-0.150
2343,0.040,-0.155
2344,0.025,-0.155
2345,0.025,-0.155
2346,0.030,-0.170
2347,0.015,-0.150
2348,0.010,-0.165
2349,0.000,-0.175
2350,0.000,-0.160
2351,0.005,-0.160
2352,0.000,-0.155
2353,0.005,-0.125
2354,0.020,-0.105
2355,0.020,-0.105
2356,0.010,-0.070
2357,0.025,-0.060
2358,0.025,-0.040
2359,0.030,-0.060
2360,0.020,-0.080
2361,0.005,-0.100
2362,0.000,-0.160
2363,-0.005,-0.225
2364,-0.010,-0.250
2365,-0.010,-0.250
2366,-0.010,-0.230
2367,-0.015,-0.220
2368,-0.010,-0.215
2369,-0.005,-0.215
2370,0.000,-0.215
2371,0.000,-0.210
2372,-0.015,-0.215
2373,-0.005,-0.210
2374,-0.005,-0.230
2375,-0.015,-0.205
2376,0.000,-0.195
2377,-0.005,-0.185
2378,0.005,-0.195
2379,0.005,-0.325
2380,0.020,-0.540
2381,0.110,-0.385
2382,0.210,-0.115
2383,0.120,0.275
2384,-0.240,0.605
2385,-0.680,0.690
2386,-0.600,0.430
2387,-0.285,0.100
2388,-0.035,-0.115
2389,-0.015,-0.210
2390,0.000,-0.250
2391,0.035,-0.225
2392,0.055,-0.215
2393,0.070,-0.200
2394,0.070,-0.200
2395,0.085,-0.195
2396,0.085,-0.205
2397,0.090,-0.205
2398,0.090,-0.190
2399,0.095,-0.190
2400,0.105,-0.200
2401,0.105,-0.190
2402,0.120,-0.195
2403,0.120,-0.185
2404,0.135,-0.170
2405,0.155,-0.175
2406,0.170,-0.170
2407,0.175,-0.155
2408,0.165,-0.135
2409,0.180,-0.120
2410,0.190,-0.100
2411,0.185,-0.085
2412,0.195,-0.085
2413,0.180,-0.070
2414,0.155,-0.070
2415,0.140,-0.065
2416,0.105,-0.095
2417,0.085,-0.105
2418,0.075,-0.110
2419,0.065,-0.130
2420,0.045,-0.135
2421,0.040,-0.170
2422,0.035,-0.150
2423,0.045,-0.165
2424,0.030,-0.170
2425,0.030,-0.170
2426,0.035,-0.160
2427,0.025,-0.155
2428,0.035,-0.170
2429,0.040,-0.175
2430,0.035,-0.160
2431,0.035,-0.180
2432,0.040,-0.195
2433,0.035,-0.190
2434,0.055,-0.175
2435,0.045,-0.175
2436,0.035,-0.170
2437,0.035,-0.170
2438,0.040,-0.175
2439,0.035,-0.190
2440,0.030,-0.185
2441,0.040,-0.190
2442,0.020,-0.195
2443,0.020,-0.165
2444,0.025,-0.180
2445,0.035,-0.165
2446,0.035,-0.155
2447,0.040,-0.145
2448,0.025,-0.120
2449,0.035,-0.095
2450,0.035,-0.065
2451,0.045,-0.045
2452,0.050,-0.040
2453,0.055,-0.075
2454,0.045,-0.085
2455,0.035,-0.120
2456,0.040,-0.175
2457,0.005,-0.220
2458,0.010,-0.265
2459,-0.005,-0.245
2460,0.010,-0.205
2461,0.010,-0.210
2462,0.000,-0.200
2463,0.000,-0.205
2464,-0.005,-0.200
2465,-0.005,-0.210
2466,-0.005,-0.205
2467,0.005,-0.190
2468,0.000,-0.210
2469,-0.010,-0.185
2470,0.015,-0.170
2471,0.000,-0.185
2472,0.010,-0.215
2473,0.000,-0.385
2474,0.015,-0.570
2475,0.135,-0.300
2476,0.210,-0.005
2477,0.110,0.425
2478,-0.290,0.690
2479,-0.655,0.745
2480,-0.505,0.375
2481,-0.235,0.070
2482,-0.050,-0.130
2483,-0.030,-0.225
2484,-0.005,-0.240
2485,0.015,-0.225
2486,0.020,-0.220
2487,0.030,-0.215
2488,0.035,-0.215
2489,0.045,-0.215
2490,0.040,-0.220
2491,0.040,-0.210
2492,0.030,-0.205
2493,0.045,-0.185
2494,0.060,-0.195
2495,0.070,-0.190
2496,0.095,-0.210
2497,0.095,-0.200
2498,0.105,-0.180
2499,0.105,-0.190
2500,0.115,-0.165
2501,0.115,-0.160
2502,0.130,-0.130
2503,0.125,-0.125
2504,0.120,-0.110
2505,0.125,-0.095
2506,0.100,-0.095
2507,0.105,-0.080
2508,0.080,-0.080
2509,0.075,-0.085
2510,0.030,-0.110
2511,0.025,-0.105
2512,0.015,-0.140
2513,0.000,-0.150
2514,0.000,-0.140
2515,-0.010,-0.175
2516,-0.015,-0.180
2517,-0.025,-0.175
2518,-0.030,-0.165
2519,0.000,-0.175
2520,-0.015,-0.175
2521,-0.005,-0.165
2522,0.000,-0.190
2523,-0.015,-0.195
2524,0.000,-0.190
2525,0.000,-0.175
2526,0.000,-0.165
2527,0.000,-0.175
2528,0.000,-0.180
2529,0.000,-0.185
2530,-0.010,-0.185
2531,-0.005,-0.185
2532,0.000,-0.190
2533,-0.015,-0.195
2534,-0.005,-0.190
2535,-0.010,-0.185
2536,-0.010,-0.195
2537,-0.010,-0.185
2538,-0.010,-0.185
2539,-0.015,-0.170
2540,-0.010,-0.160
2541,-0.010,-0.140
2542,-0.015,-0.135
2543,-0.010,-0.095
2544,0.000,-0.065
2545,0.005,-0.050
2546,0.015,-0.025
2547,0.020,-0.075
2548,0.000,-0.110
2549,0.000,-0.115
2550,-0.005,-0.170
2551,-0.005,-0.220
2552,-0.010,-0.230
2553,-0.015,-0.220
2554,-0.010,-0.200
2555,-0.005,-0.215
2556,-0.015,-0.215
2557,-0.010,-0.190
2558,-0.015,-0.200
2559,-0.005,-0.200
2560,-0.010,-0.190
2561,0.000,-0.180
2562,0.000,-0.175
2563,0.000,-0.180
2564,0.010,-0.180
2565,0.000,-0.175
2566,-0.005,-0.210
2567,0.000,-0.430
2568,0.025,-0.520
2569,0.155,-0.205
2570,0.210,0.105
2571,0.060,0.585
2572,-0.380,0.735
2573,-0.630,0.700
2574,-0.440,0.285
2575,-0.145,0.025
2576,-0.005,-0.160
2577,0.005,-0.205
2578,0.020,-0.210
2579,0.030,-0.190
2580,0.055,-0.190
2581,0.060,-0.200
2582,0.045,-0.195
2583,0.055,-0.190
2584,0.050,-0.195
2585,0.040,-0.175
2586,0.060,-0.160
2587,0.070,-0.160
2588,0.080,-0.160
2589,0.080,-0.165
2590,0.105,-0.175
2591,0.090,-0.165
2592,0.100,-0.170
2593,0.100,-0.135
2594,0.125,-0.120
2595,0.130,-0.120
2596,0.135,-0.090
2597,0.145,-0.090
2598,0.130,-0.075
2599,0.125,-0.055
2600,0.105,-0.050
2601,0.100,-0.040
2602,0.090,-0.030
2603,0.075,-0.040
2604,0.060,-0.070
2605,0.020,-0.085
2606,0.015,-0.100
2607,0.000,-0.130
2608,-0.005,-0.135
2609,-0.020,-0.160
2610,-0.025,-0.160
2611,-0.005,-0.150
2612,-0.010,-0.155
2613,-0.015,-0.155
2614,-0.005,-0.165
2615,-0.025,-0.160
2616,-0.015,-0.160
2617,-0.015,-0.165
2618,-0.010,-0.155
2619,-0.010,-0.165
2620,-0.005,-0.160
2621,-0.010,-0.150
2622,-0.010,-0.160
2623,0.000,-0.180
2624,-0.005,-0.180
2625,-0.010,-0.170
2626,-0.015,-0.175
2627,0.000,-0.170
2628,-0.015,-0.165
2629,0.000,-0.160
2630,0.000,-0.165
2631,0.005,-0.160
2632,0.000,-0.175
2633,0.000,-0.155
2634,-0.010,-0.145
2635,0.000,-0.125
2636,-0.015,-0.105
2637,0.000,-0.090
2638,0.005,-0.050
2639,0.025,-0.035
2640,0.020,-0.040
2641,0.020,-0.075
2642,0.000,-0.100
2643,0.000,-0.135
2644,0.000,-0.190
2645,-0.010,-0.215
2646,-0.010,-0.230
2647,-0.010,-0.230
2648,-0.015,-0.225
2649,-0.015,-0.210
2650,-0.015,-0.200
2651,-0.015,-0.210
2652,-0.030,-0.205
2653,-0.030,-0.190
2654,-0.010,-0.190
2655,-0.010,-0.190
2656,-0.005,-0.195
2657,-0.010,-0.190
2658,-0.005,-0.185
2659,0.000,-0.170
2660,-0.005,-0.240
2661,0.000,-0.475
2662,0.040,-0.450
2663,0.185,-0.145
2664,0.165,0.195
2665,-0.075,0.635
2666,-0.550,0.720
2667,-0.640,0.605
2668,-0.340,0.190
2669,-0.095,-0.020
2670,-0.005,-0.155
2671,0.000,-0.205
2672,0.025,-0.205
2673,0.060,-0.195
2674,0.070,-0.185
2675,0.065,-0.190
2676,0.065,-0.185
2677,0.075,-0.180
2678,0.075,-0.170
2679,0.075,-0.175
2680,0.090,-0.160
2681,0.100,-0.150
2682,0.120,-0.170
2683,0.110,-0.155
2684,0.120,-0.160
2685,0.120,-0.155
2686,0.125,-0.140
2687,0.145,-0.130
2688,0.180,-0.120
2689,0.195,-0.115
2690,0.195,-0.090
2691,0.215,-0.070
2692,0.190,-0.065
2693,0.165,-0.040
2694,0.170,-0.025
2695,0.145,-0.020
2696,0.140,-0.030
2697,0.105,-0.045
2698,0.100,-0.065
2699,0.060,-0.085
2700,0.055,-0.105
2701,0.025,-0.120
2702,0.010,-0.120
2703,0.005,-0.135
2704,0.020,-0.115
2705,0.025,-0.130
2706,0.015,-0.125
2707,0.010,-0.140
2708,0.015,-0.135
2709,0.005,-0.130
2710,0.020,-0.140
2711,0.010,-0.120
2712,0.025,-0.125
2713,0.010,-0.125
2714,0.030,-0.125
2715,0.020,-0.140
2716,0.015,-0.140
2717,0.015,-0.145
2718,0.015,-0.135
2719,0.020,-0.150
2720,0.020,-0.140
2721,0.010,-0.140
2722,0.010,-0.145
2723,0.015,-0.140
2724,0.020,-0.155
2725,0.005,-0.140
2726,0.015,-0.150
2727,0.005,-0.150
2728,0.010,-0.130
2729,0.005,-0.090
2730,0.005,-0.075
2731,0.000,-0.060
2732,0.005,-0.055
2733,0.015,-0.025
2734,0.020,-0.010
2735,0.020,-0.040
2736,0.015,-0.070
2737,0.000,-0.095
2738,0.000,-0.130
2739,0.010,-0.190
2740,-0.005,-0.220
2741,0.000,-0.220
2742,-0.015,-0.200
2743,-0.015,-0.195
2744,-0.015,-0.200
2745,-0.015,-0.190
2746,-0.015,-0.195
2747,0.000,-0.180
2748,-0.005,-0.180
2749,-0.015,-0.180
2750,-0.025,-0.190
2751,-0.020,-0.190
2752,-0.025,-0.195
2753,-0.025,-0.160
2754,-0.005,-0.165
2755,0.000,-0.360
2756,0.020,-0.500
2757,0.130,-0.260
2758,0.200,0.000
2759,0.040,0.445
2760,-0.400,0.665
2761,-0.700,0.705
2762,-0.495,0.335
2763,-0.195,0.065
2764,-0.020,-0.125
2765,-0.005,-0.190
2766,0.005,-0.210
2767,0.030,-0.205
2768,0.035,-0.195
2769,0.030,-0.200
2770,0.045,-0.175
2771,0.055,-0.175
2772,0.045,-0.170
2773,0.050,-0.165
2774,0.065,-0.175
2775,0.075,-0.180
2776,0.095,-0.160
2777,0.060,-0.170
2778,0.085,-0.160
2779,0.105,-0.160
2780,0.110,-0.150
2781,0.135,-0.135
2782,0.150,-0.135
2783,0.160,-0.120
2784,0.165,-0.100
2785,0.155,-0.095
2786,0.160,-0.065
2787,0.160,-0.045
2788,0.140,-0.035
2789,0.135,-0.025
2790,0.135,-0.045
2791,0.090,-0.045
2792,0.065,-0.065
2793,0.030,-0.095
2794,0.015,-0.105
2795,0.005,-0.115
2796,0.000,-0.110
2797,0.000,-0.120
2798,0.000,-0.135
2799,0.000,-0.140
2800,0.000,-0.140
2801,0.000,-0.130
2802,0.000,-0.150
2803,0.000,-0.135
2804,0.010,-0.130
2805,0.030,-0.125
2806,0.010,-0.125
2807,0.025,-0.140
2808,0.020,-0.140
2809,0.025,-0.130
2810,0.015,-0.145
2811,0.035,-0.140
2812,0.015,-0.115
2813,0.035,-0.125
2814,0.040,-0.145
2815,0.040,-0.140
2816,0.025,-0.155
2817,0.015,-0.145
2818,0.015,-0.150
2819,0.020,-0.135
2820,0.025,-0.130
2821,0.010,-0.130
2822,0.020,-0.090
2823,0.020,-0.090
2824,0.030,-0.065
2825,0.020,-0.060
2826,0.010,-0.030
2827,0.020,-0.015
2828,0.040,-0.005
2829,0.030,-0.020
2830,0.030,-0.035
2831,0.020,-0.075
2832,0.025,-0.110
2833,0.005,-0.170
2834,0.005,-0.200
2835,-0.005,-0.180
2836,0.000,-0.180
2837,-0.005,-0.160
2838,0.000,-0.160
2839,0.000,-0.165
2840,0.000,-0.155
2841,0.000,-0.175
2842,0.000,-0.160
2843,-0.005,-0.155
2844,-0.005,-0.160
2845,-0.010,-0.155
2846,0.000,-0.140
2847,0.000,-0.130
2848,0.000,-0.140
2849,0.005,-0.310
2850,0.025,-0.495
2851,0.125,-0.275
2852,0.210,-0.030
2853,0.080,0.385
2854,-0.330,0.680
2855,-0.700,0.755
2856,-0.545,0.450
2857,-0.245,0.135
2858,-0.045,-0.060
2859,-0.035,-0.170
2860,-0.015,-0.185
2861,0.005,-0.185
2862,0.040,-0.160
2863,0.035,-0.170
2864,0.040,-0.150
2865,0.045,-0.155
2866,0.055,-0.170
2867,0.045,-0.170
2868,0.050,-0.170
2869,0.060,-0.145
2870,0.075,-0.145
2871,0.075,-0.150
2872,0.095,-0.145
2873,0.095,-0.145
2874,0.105,-0.135
2875,0.125,-0.130
2876,0.130,-0.115
2877,0.140,-0.110
2878,0.140,-0.095
2879,0.135,-0.075
2880,0.140,-0.055
2881,0.135,-0.035
2882,0.145,-0.030
2883,0.130,-0.025
2884,0.115,-0.040
2885,0.105,-0.040
2886,0.060,-0.040
2887,0.045,-0.060
2888,0.020,-0.080
2889,0.005,-0.100
2890,0.010,-0.110
2891,0.000,-0.125
2892,-0.005,-0.150
2893,0.000,-0.135
2894,-0.010,-0.150
2895,0.000,-0.140
2896,-0.015,-0.130
2897,0.000,-0.135
2898,0.000,-0.140
2899,0.000,-0.150
2900,0.000,-0.165
2901,-0.010,-0.170
2902,0.000,-0.160
2903,-0.010,-0.155
2904,0.000,-0.145
2905,0.000,-0.160
2906,0.005,-0.165
2907,0.000,-0.160
2908,0.015,-0.145
2909,0.010,-0.165
2910,0.000,-0.165
2911,0.000,-0.180
2912,0.000,-0.165
2913,-0.010,-0.175
2914,-0.005,-0.170
2915,-0.005,-0.170
2916,0.000,-0.160
2917,-0.005,-0.150
2918,-0.010,-0.135
2919,-0.020,-0.110
2920,-0.015,-0.100
2921,0.000,-0.055
2922,0.010,-0.020
2923,0.005,-0.040
2924,0.010,-0.060
2925,0.000,-0.105
2926,-0.010,-0.120
2927,0.000,-0.165
2928,-0.030,-0.210
2929,-0.020,-0.230
2930,-0.030,-0.225
2931,-0.020,-0.205
2932,-0.015,-0.210
2933,-0.020,-0.195
2934,-0.015,-0.215
2935,-0.020,-0.190
2936,-0.020,-0.220
2937,-0.030,-0.205
2938,-0.025,-0.185
2939,-0.030,-0.180
2940,-0.020,-0.165
2941,0.000,-0.175
2942,-0.010,-0.180
2943,-0.005,-0.180
2944,-0.010,-0.310
2945,-0.005,-0.570
2946,0.070,-0.370
2947,0.200,-0.055
2948,0.145,0.330
2949,-0.195,0.685
2950,-0.610,0.790
2951,-0.575,0.510
2952,-0.290,0.170
2953,-0.065,-0.060
2954,-0.035,-0.170
2955,-0.010,-0.200
2956,0.010,-0.190
2957,0.005,-0.185
2958,0.020,-0.190
2959,0.035,-0.195
2960,0.030,-0.185
2961,0.030,-0.195
2962,0.020,-0.185
2963,0.025,-0.160
2964,0.055,-0.150
2965,0.055,-0.150
2966,0.065,-0.160
2967,0.075,-0.170
2968,0.070,-0.165
2969,0.085,-0.165
2970,0.075,-0.150
2971,0.120,-0.140
2972,0.125,-0.120
2973,0.130,-0.090
2974,0.130,-0.085
2975,0.135,-0.065
2976,0.120,-0.065
2977,0.110,-0.060
2978,0.110,-0.035
2979,0.095,-0.040
2980,0.070,-0.040
2981,0.045,-0.065
2982,0.035,-0.090
2983,0.025,-0.100
2984,0.000,-0.110
2985,-0.005,-0.130
2986,-0.025,-0.165
2987,-0.025,-0.150
2988,-0.025,-0.155
2989,-0.025,-0.140
2990,-0.030,-0.145
2991,-0.040,-0.145
2992,-0.020,-0.150
2993,-0.025,-0.165
2994,-0.040,-0.160
2995,-0.045,-0.170
2996,-0.035,-0.170
2997,-0.025,-0.150
2998,-0.020,-0.170
2999,-0.035,-0.155
3000,-0.035,-0.175
3001,-0.025,-0.175
3002,-0.020,-0.170
3003,-0.040,-0.180
3004,-0.030,-0.180
3005,-0.035,-0.165
3006,-0.045,-0.170
3007,-0.040,-0.180
3008,-0.040,-0.180
3009,-0.035,-0.160
3010,-0.050,-0.175
3011,-0.045,-0.170
3012,-0.060,-0.160
3013,-0.050,-0.115
3014,-0.045,-0.105
3015,-0.035,-0.065
3016,-0.030,-0.060
3017,-0.015,-0.045
3018,-0.010,-0.060
3019,-0.020,-0.090
3020,-0.030,-0.110
3021,-0.045,-0.150
3022,-0.040,-0.200
3023,-0.045,-0.235
3024,-0.055,-0.240
3025,-0.035,-0.225
3026,-0.045,-0.230
3027,-0.055,-0.230
3028,-0.050,-0.215
3029,-0.055,-0.220
3030,-0.045,-0.225
3031,-0.065,-0.195
3032,-0.040,-0.190
3033,-0.070,-0.195
3034,-0.055,-0.200
3035,-0.050,-0.190
3036,-0.040,-0.185
3037,-0.050,-0.185
3038,-0.045,-0.365
3039,-0.020,-0.560
3040,0.065,-0.315
3041,0.160,0.015
3042,0.080,0.475
3043,-0.285,0.725
3044,-0.655,0.755
3045,-0.550,0.390
3046,-0.270,0.070
3047,-0.065,-0.120
3048,-0.050,-0.195
3049,-0.030,-0.210
3050,0.000,-0.200
3051,0.010,-0.205
3052,0.000,-0.200
3053,0.015,-0.180
3054,0.015,-0.200
3055,0.005,-0.190
3056,0.025,-0.175
3057,0.040,-0.160
3058,0.040,-0.160
3059,0.065,-0.170
3060,0.065,-0.170
3061,0.060,-0.180
3062,0.060,-0.170
3063,0.080,-0.160
3064,0.090,-0.145
3065,0.115,-0.120
3066,0.110,-0.115
3067,0.130,-0.100
3068,0.140,-0.085
3069,0.135,-0.070
3070,0.130,-0.070
3071,0.100,-0.035
3072,0.120,-0.035
3073,0.110,-0.025
3074,0.095,-0.025
3075,0.065,-0.055
3076,0.055,-0.055
3077,0.030,-0.085
3078,0.005,-0.105
3079,0.000,-0.105
3080,-0.010,-0.125
3081,-0.010,-0.110
3082,-0.015,-0.120
3083,-0.010,-0.120
3084,0.000,-0.125
3085,-0.010,-0.125
3086,-0.010,-0.125
3087,0.000,-0.125
3088,-0.010,-0.130
3089,-0.015,-0.135
3090,-0.015,-0.120
3091,-0.010,-0.115
3092,0.005,-0.100
3093,0.000,-0.115
3094,0.000,-0.115
3095,0.010,-0.115
3096,0.000,-0.130
3097,0.000,-0.125
3098,0.005,-0.130
3099,0.010,-0.115
3100,0.000,-0.120
3101,0.000,-0.120
3102,0.005,-0.125
3103,0.000,-0.130
3104,0.000,-0.115
3105,-0.005,-0.105
3106,-0.005,-0.070
3107,0.000,-0.060
3108,0.000,-0.045
3109,0.010,0.000
3110,0.020,0.000
3111,0.015,0.010
3112,0.030,-0.015
3113,0.010,-0.055
3114,0.000,-0.060
3115,0.000,-0.095
3116,-0.010,-0.155
3117,0.000,-0.180
3118,-0.010,-0.190
3119,-0.025,-0.175
3120,-0.015,-0.170
3121,-0.025,-0.170
3122,-0.025,-0.170
3123,-0.025,-0.150
3124,-0.020,-0.155
3125,-0.015,-0.160
3126,-0.010,-0.145
3127,-0.015,-0.160
3128,-0.010,-0.140
3129,-0.005,-0.155
3130,-0.010,-0.155
3131,-0.025,-0.240
3132,-0.005,-0.480
3133,0.050,-0.395
3134,0.180,-0.095
3135,0.170,0.260
3136,-0.140,0.665
3137,-0.600,0.750
3138,-0.645,0.610
3139,-0.360,0.210
3140,-0.095,0.005
3141,-0.030,-0.130
3142,-0.020,-0.185
3143,0.000,-0.190
3144,0.020,-0.180
3145,0.045,-0.165
3146,0.045,-0.175
3147,0.030,-0.170
3148,0.035,-0.160
3149,0.055,-0.155
3150,0.060,-0.150
3151,0.070,-0.155
3152,0.075,-0.155
3153,0.075,-0.160
3154,0.105,-0.150
3155,0.090,-0.155
3156,0.100,-0.145
3157,0.130,-0.130
3158,0.130,-0.120
3159,0.155,-0.115
3160,0.160,-0.095
3161,0.170,-0.080
3162,0.155,-0.070
3163,0.140,-0.050
3164,0.150,-0.045
3165,0.135,-0.020
3166,0.130,-0.005
3167,0.110,-0.020
3168,0.105,-0.035
3169,0.075,-0.055
3170,0.055,-0.080
3171,0.045,-0.085
3172,0.035,-0.095
3173,0.015,-0.100
3174,0.000,-0.110
3175,0.005,-0.105
3176,0.005,-0.105
3177,0.010,-0.105
3178,0.015,-0.120
3179,0.015,-0.115
3180,0.005,-0.125
3181,0.000,-0.135
3182,0.010,-0.115
3183,0.020,-0.125
3184,0.020,-0.100
3185,0.035,-0.105
3186,0.045,-0.120
3187,0.040,-0.125
3188,0.035,-0.130
3189,0.030,-0.125
3190,0.045,-0.110
3191,0.035,-0.110
3192,0.035,-0.110
3193,0.045,-0.105
3194,0.040,-0.100
3195,0.045,-0.120
3196,0.040,-0.125
3197,0.030,-0.115
3198,0.035,-0.110
3199,0.045,-0.070
3200,0.050,-0.060
3201,0.035,-0.040
3202,0.065,-0.020
3203,0.060,0.000
3204,0.075,0.005
3205,0.070,-0.005
3206,0.055,-0.035
3207,0.055,-0.060
3208,0.040,-0.080
3209,0.040,-0.140
3210,0.040,-0.170
3211,0.040,-0.170
3212,0.020,-0.160
3213,0.030,-0.160
3214,0.030,-0.170
3215,0.020,-0.145
3216,0.035,-0.140
3217,0.030,-0.130
3218,0.035,-0.130
3219,0.035,-0.125
3220,0.045,-0.140
3221,0.020,-0.135
3222,0.030,-0.130
3223,0.025,-0.120
3224,0.030,-0.145
3225,0.040,-0.340
3226,0.065,-0.450
3227,0.200,-0.190
3228,0.250,0.080
3229,0.060,0.525
3230,-0.375,0.705
3231,-0.635,0.705
3232,-0.405,0.360
3233,-0.125,0.080
3234,0.015,-0.070
3235,0.020,-0.140
3236,0.050,-0.150
3237,0.090,-0.155
3238,0.100,-0.155
3239,0.100,-0.165
3240,0.100,-0.145
3241,0.095,-0.125
3242,0.120,-0.120
3243,0.115,-0.125
3244,0.120,-0.135
3245,0.140,-0.135
3246,0.135,-0.130
3247,0.145,-0.125
3248,0.145,-0.125
3249,0.160,-0.110
3250,0.160,-0.095
3251,0.180,-0.100
3252,0.195,-0.085
3253,0.200,-0.085
3254,0.210,-0.075
3255,0.190,-0.045
3256,0.200,-0.025
3257,0.175,-0.015
3258,0.175,-0.005
3259,0.165,-0.005
3260,0.150,0.000
3261,0.135,-0.010
3262,0.095,-0.030
3263,0.085,-0.060
3264,0.050,-0.070
3265,0.040,-0.080
3266,0.035,-0.085
3267,0.020,-0.100
3268,0.020,-0.105
3269,0.020,-0.115
3270,0.015,-0.130
3271,0.020,-0.120
3272,0.010,-0.105
3273,0.010,-0.120
3274,0.010,-0.110
3275,0.020,-0.115
3276,0.040,-0.115
3277,0.040,-0.115
3278,0.050,-0.120
3279,0.045,-0.130
3280,0.055,-0.110
3281,0.045,-0.125
3282,0.045,-0.125
3283,0.060,-0.120
3284,0.055,-0.110
3285,0.035,-0.110
3286,0.040,-0.125
3287,0.050,-0.130
3288,0.055,-0.120
3289,0.030,-0.140
3290,0.030,-0.140
3291,0.040,-0.115
3292,0.045,-0.080
3293,0.035,-0.070
3294,0.055,-0.045
3295,0.050,-0.010
3296,0.060,-0.010
3297,0.070,0.000
3298,0.075,-0.015
3299,0.055,-0.045
3300,0.050,-0.050
3301,0.040,-0.100
3302,0.030,-0.140
3303,0.035,-0.175
3304,0.035,-0.185
3305,0.040,-0.180
3306,0.025,-0.175
3307,0.020,-0.165
3308,0.045,-0.165
3309,0.035,-0.140
3310,0.040,-0.150
3311,0.035,-0.140
3312,0.040,-0.130
3313,0.045,-0.150
3314,0.035,-0.130
3315,0.050,-0.140
3316,0.050,-0.130
3317,0.060,-0.140
3318,0.045,-0.315
3319,0.090,-0.470
3320,0.215,-0.210
3321,0.275,0.035
3322,0.110,0.455
3323,-0.340,0.675
3324,-0.650,0.720
3325,-0.425,0.340
3326,-0.140,0.110
3327,0.035,-0.065
3328,0.050,-0.135
3329,0.080,-0.140
3330,0.100,-0.135
3331,0.120,-0.130
3332,0.115,-0.135
3333,0.130,-0.135
3334,0.135,-0.130
3335,0.125,-0.115
3336,0.145,-0.110
3337,0.160,-0.110
3338,0.165,-0.105
3339,0.150,-0.100
3340,0.170,-0.095
3341,0.180,-0.105
3342,0.185,-0.085
3343,0.185,-0.090
3344,0.210,-0.070
3345,0.240,-0.065
3346,0.230,-0.035
3347,0.225,-0.030
3348,0.230,-0.030
3349,0.240,-0.005
3350,0.220,0.000
3351,0.225,0.015
3352,0.205,0.030
3353,0.200,0.015
3354,0.160,0.020
3355,0.140,0.000
3356,0.105,-0.020
3357,0.100,-0.030
3358,0.085,-0.045
3359,0.075,-0.065
3360,0.065,-0.065
3361,0.070,-0.055
3362,0.065,-0.065
3363,0.070,-0.060
3364,0.075,-0.065
3365,0.065,-0.085
3366,0.060,-0.085
3367,0.060,-0.085
3368,0.060,-0.070
3369,0.075,-0.075
3370,0.070,-0.070
3371,0.065,-0.080
3372,0.075,-0.065
3373,0.070,-0.085
3374,0.075,-0.100
3375,0.080,-0.090
3376,0.065,-0.100
3377,0.065,-0.090
3378,0.065,-0.090
3379,0.065,-0.090
3380,0.065,-0.085
3381,0.060,-0.090
3382,0.055,-0.090
3383,0.050,-0.100
3384,0.040,-0.095
3385,0.040,-0.060
3386,0.035,-0.045
3387,0.055,-0.030
3388,0.065,0.000
3389,0.070,0.005
3390,0.065,0.025
3391,0.060,0.000
3392,0.050,-0.015
3393,0.035,-0.055
3394,0.015,-0.070
3395,0.020,-0.145
3396,0.030,-0.165
3397,0.005,-0.175
3398,0.000,-0.170
3399,0.000,-0.170
3400,0.000,-0.155
3401,0.000,-0.145
3402,0.010,-0.150
3403,0.000,-0.140
3404,0.010,-0.155
3405,0.000,-0.135
3406,0.015,-0.145
3407,0.000,-0.140
3408,0.010,-0.130
3409,0.015,-0.125
3410,0.000,-0.145
3411,0.015,-0.320
3412,0.030,-0.490
3413,0.165,-0.220
3414,0.240,0.020
3415,0.085,0.435
3416,-0.360,0.670
3417,-0.685,0.740
3418,-0.470,0.375
3419,-0.185,0.105
3420,-0.015,-0.065
3421,0.000,-0.145
3422,0.015,-0.165
3423,0.040,-0.160
3424,0.060,-0.150
3425,0.065,-0.160
3426,0.060,-0.155
3427,0.075,-0.130
3428,0.065,-0.145
3429,0.075,-0.135
3430,0.100,-0.125
3431,0.090,-0.130
3432,0.095,-0.135
3433,0.090,-0.120
3434,0.105,-0.125
3435,0.120,-0.130
3436,0.130,-0.100
3437,0.140,-0.100
3438,0.165,-0.080
3439,0.175,-0.065
3440,0.180,-0.065
3441,0.175,-0.035
3442,0.170,-0.040
3443,0.160,-0.025
3444,0.160,0.000
3445,0.160,0.005
3446,0.140,0.005
3447,0.120,-0.005
3448,0.095,-0.015
3449,0.070,-0.045
3450,0.040,-0.060
3451,0.040,-0.075
3452,0.030,-0.085
3453,0.030,-0.065
3454,0.020,-0.085
3455,0.015,-0.070
3456,0.025,-0.090
3457,0.020,-0.085
3458,0.005,-0.100
3459,0.020,-0.100
3460,0.015,-0.105
3461,0.015,-0.090
3462,0.025,-0.090
3463,0.045,-0.090
3464,0.035,-0.095
3465,0.040,-0.095
3466,0.035,-0.105
3467,0.030,-0.110
3468,0.025,-0.120
3469,0.020,-0.105
3470,0.015,-0.090
3471,0.015,-0.095
3472,0.020,-0.105
3473,0.030,-0.115
3474,0.015,-0.110
3475,0.000,-0.105
3476,0.000,-0.095
3477,0.010,-0.090
3478,0.000,-0.055
3479,0.010,-0.040
3480,0.015,-0.020
3481,0.010,0.000
3482,0.030,0.000
3483,0.025,0.030
3484,0.025,-0.010
3485,0.020,-0.010
3486,0.010,-0.040
3487,0.000,-0.085
3488,-0.005,-0.130
3489,-0.005,-0.175
3490,-0.020,-0.165
3491,-0.010,-0.155
3492,-0.020,-0.155
3493,-0.030,-0.150
3494,-0.025,-0.145
3495,-0.025,-0.145
3496,-0.020,-0.140
3497,-0.015,-0.140
3498,-0.025,-0.145
3499,-0.020,-0.130
3500,-0.020,-0.130
3501,-0.020,-0.130
3502,-0.010,-0.130
3503,-0.020,-0.160
3504,-0.015,-0.340
3505,0.015,-0.505
3506,0.140,-0.230
3507,0.215,0.085
3508,0.070,0.520
3509,-0.310,0.755
3510,-0.640,0.800
3511,-0.480,0.435
3512,-0.215,0.120
3513,-0.035,-0.080
3514,-0.020,-0.150
3515,0.000,-0.160
3516,0.005,-0.160
3517,0.005,-0.160
3518,0.010,-0.150
3519,0.000,-0.135
3520,0.025,-0.130
3521,0.015,-0.135
3522,0.030,-0.155
3523,0.025,-0.125
3524,0.030,-0.140
3525,0.030,-0.140
3526,0.045,-0.135
3527,0.035,-0.130
3528,0.045,-0.120
3529,0.045,-0.120
3530,0.065,-0.090
3531,0.090,-0.090
3532,0.090,-0.080
3533,0.095,-0.060
3534,0.100,-0.050
3535,0.090,-0.040
3536,0.090,-0.020
3537,0.085,-0.010
3538,0.075,0.005
3539,0.060,0.000
3540,0.060,-0.010
3541,0.030,-0.030
3542,0.025,-0.035
3543,-0.010,-0.060
3544,-0.020,-0.080
3545,-0.015,-0.080
3546,-0.030,-0.095
3547,-0.030,-0.100
3548,-0.030,-0.110
3549,-0.020,-0.110
3550,-0.030,-0.115
3551,-0.035,-0.110
3552,-0.020,-0.115
3553,-0.025,-0.110
3554,-0.020,-0.100
3555,-0.010,-0.110
3556,0.000,-0.095
3557,0.000,-0.105
3558,-0.020,-0.115
3559,-0.010,-0.105
3560,0.000,-0.115
3561,-0.005,-0.100
3562,0.000,-0.105
3563,-0.010,-0.100
3564,0.000,-0.115
3565,0.000,-0.110
3566,-0.015,-0.110
3567,0.000,-0.110
3568,-0.035,-0.110
3569,-0.005,-0.110
3570,-0.025,-0.100
3571,-0.010,-0.070
3572,-0.010,-0.055
3573,-0.015,-0.040
3574,-0.005,-0.015
3575,0.000,0.005
3576,0.005,0.015
3577,0.000,0.005
3578,0.005,-0.025
3579,0.000,-0.045
3580,-0.015,-0.060
3581,0.000,-0.115
3582,-0.010,-0.150
3583,-0.015,-0.175
3584,-0.020,-0.175
3585,-0.035,-0.155
3586,-0.035,-0.145
3587,-0.010,-0.120
3588,-0.020,-0.120
3589,-0.005,-0.120
3590,-0.020,-0.125
3591,-0.030,-0.125
3592,-0.010,-0.120
3593,-0.025,-0.135
3594,-0.025,-0.115
3595,-0.015,-0.110
3596,-0.015,-0.115
3597,-0.010,-0.260
3598,0.005,-0.460
3599,0.095,-0.240
3600,0.195,0.045
3601,0.095,0.485
3602,-0.310,0.740
3603,-0.695,0.810
3604,-0.530,0.470
3605,-0.235,0.175
3606,-0.045,-0.030
3607,-0.045,-0.115
3608,0.000,-0.145
3609,0.020,-0.135
3610,0.010,-0.125
3611,0.020,-0.125
3612,0.015,-0.110
3613,0.035,-0.105
3614,0.035,-0.100
3615,0.050,-0.110
3616,0.055,-0.110
3617,0.055,-0.115
3618,0.060,-0.115
3619,0.055,-0.105
3620,0.060,-0.095
3621,0.070,-0.090
3622,0.095,-0.090
3623,0.110,-0.080
3624,0.120,-0.070
3625,0.130,-0.050
3626,0.130,-0.040
3627,0.140,-0.025
3628,0.125,-0.015
3629,0.125,0.010
3630,0.125,0.020
3631,0.115,0.035
3632,0.105,0.035
3633,0.090,0.010
3634,0.055,0.000
3635,0.015,-0.025
3636,0.010,-0.040
3637,0.000,-0.045
3638,-0.015,-0.055
3639,-0.035,-0.060
3640,-0.020,-0.080
3641,-0.020,-0.080
3642,-0.035,-0.080
3643,-0.035,-0.085
3644,-0.025,-0.100
3645,-0.035,-0.095
3646,-0.035,-0.080
3647,-0.030,-0.080
3648,-0.025,-0.080
3649,-0.020,-0.095
3650,-0.030,-0.095
3651,-0.025,-0.080
3652,-0.050,-0.105
3653,-0.030,-0.110
3654,-0.015,-0.100
3655,-0.035,-0.105
3656,-0.020,-0.110
3657,-0.020,-0.100
3658,-0.040,-0.110
3659,-0.020,-0.115
3660,-0.030,-0.115
3661,-0.020,-0.120
3662,-0.030,-0.095
3663,-0.035,-0.100
3664,-0.035,-0.070
3665,-0.025,-0.060
3666,-0.030,-0.045
3667,-0.025,-0.025
3668,-0.005,-0.010
3669,-0.005,0.005
3670,0.000,0.000
3671,-0.005,-0.020
3672,-0.010,-0.030
3673,-0.030,-0.065
3674,-0.020,-0.125
3675,-0.045,-0.160
3676,-0.050,-0.170
3677,-0.050,-0.180
3678,-0.055,-0.150
3679,-0.045,-0.150
3680,-0.050,-0.130
3681,-0.045,-0.140
3682,-0.045,-0.130
3683,-0.035,-0.140
3684,-0.030,-0.130
3685,-0.060,-0.130
3686,-0.050,-0.130
3687,-0.045,-0.115
3688,-0.030,-0.110
3689,-0.020,-0.100
3690,-0.025,-0.175
3691,-0.020,-0.450
3692,0.050,-0.370
3693,0.160,-0.070
3694,0.135,0.265
3695,-0.180,0.680
3696,-0.630,0.750
3697,-0.660,0.595
3698,-0.360,0.245
3699,-0.110,0.010
3700,-0.055,-0.115
3701,-0.035,-0.150
3702,-0.005,-0.140
3703,0.005,-0.135
3704,0.035,-0.120
3705,0.025,-0.115
3706,0.030,-0.120
3707,0.045,-0.120
3708,0.045,-0.125
3709,0.050,-0.110
3710,0.065,-0.110
3711,0.050,-0.115
3712,0.065,-0.105
3713,0.075,-0.095
3714,0.070,-0.090
3715,0.095,-0.075
3716,0.115,-0.080
3717,0.130,-0.055
3718,0.125,-0.060
3719,0.145,-0.040
3720,0.140,-0.020
3721,0.140,0.000
3722,0.165,0.000
3723,0.150,0.010
3724,0.140,0.025
3725,0.115,0.015
3726,0.095,0.010
3727,0.075,0.000
3728,0.050,-0.020
3729,0.020,-0.030
3730,0.000,-0.020
3731,0.000,-0.055
3732,-0.005,-0.060
3733,-0.010,-0.075
3734,-0.010,-0.085
3735,-0.015,-0.085
3736,-0.025,-0.100
3737,-0.030,-0.080
3738,-0.030,-0.070
3739,-0.005,-0.070
3740,-0.005,-0.080
3741,-0.015,-0.075
3742,-0.010,-0.075
3743,-0.010,-0.080
3744,-0.005,-0.075
3745,-0.015,-0.085
3746,0.000,-0.065
3747,0.000,-0.075
3748,0.000,-0.075
3749,0.000,-0.080
3750,0.000,-0.090
3751,-0.020,-0.085
3752,-0.015,-0.095
3753,-0.020,-0.100
3754,-0.005,-0.075
3755,-0.010,-0.090
3756,-0.005,-0.070
3757,-0.015,-0.060
3758,0.000,-0.045
3759,0.000,-0.035
3760,0.000,0.000
3761,0.000,0.010
3762,0.015,0.030
3763,0.010,0.030
3764,0.015,0.000
3765,0.005,-0.020
3766,0.000,-0.050
3767,0.000,-0.125
3768,-0.020,-0.145
3769,-0.030,-0.160
3770,-0.040,-0.155
3771,-0.035,-0.155
3772,-0.040,-0.130
3773,-0.045,-0.135
3774,-0.030,-0.140
3775,-0.040,-0.125
3776,-0.040,-0.135
3777,-0.050,-0.120
3778,-0.040,-0.145
3779,-0.050,-0.130
3780,-0.050,-0.115
3781,-0.035,-0.105
3782,-0.025,-0.115
3783,-0.030,-0.190
3784,-0.025,-0.440
3785,0.025,-0.390
3786,0.145,-0.125
3787,0.140,0.180
3788,-0.160,0.585
3789,-0.595,0.715
3790,-0.705,0.630
3791,-0.420,0.245
3792,-0.150,0.030
3793,-0.060,-0.110
3794,-0.060,-0.160
3795,-0.025,-0.150
3796,0.000,-0.145
3797,0.025,-0.140
3798,0.010,-0.135
3799,0.025,-0.130
3800,0.020,-0.120
3801,0.035,-0.120
3802,0.030,-0.140
3803,0.030,-0.115
3804,0.045,-0.130
3805,0.050,-0.105
3806,0.075,-0.110
3807,0.070,-0.115
3808,0.100,-0.100
3809,0.090,-0.115
3810,0.115,-0.100
3811,0.140,-0.095
3812,0.115,-0.065
3813,0.125,-0.055
3814,0.150,-0.030
3815,0.140,-0.020
3816,0.140,-0.010
3817,0.140,0.000
3818,0.125,-0.005
3819,0.095,-0.005
3820,0.080,-0.015
3821,0.045,-0.035
3822,0.025,-0.035
3823,0.000,-0.060
3824,-0.005,-0.085
3825,0.000,-0.095
3826,-0.015,-0.100
3827,-0.025,-0.105
3828,-0.010,-0.100
3829,-0.020,-0.105
3830,-0.015,-0.095
3831,-0.025,-0.105
3832,-0.020,-0.110
3833,-0.010,-0.100
3834,-0.020,-0.105
3835,-0.010,-0.100
3836,-0.025,-0.110
3837,-0.005,-0.110
3838,0.000,-0.095
3839,-0.010,-0.100
3840,0.015,-0.110
3841,0.005,-0.085
3842,0.000,-0.110
3843,0.005,-0.105
3844,0.005,-0.110
3845,-0.005,-0.110
3846,0.005,-0.095
3847,0.010,-0.095
3848,0.000,-0.095
3849,0.000,-0.085
3850,0.000,-0.080
3851,0.005,-0.065
3852,-0.005,-0.035
3853,-0.010,-0.040
3854,0.005,-0.010
3855,0.005,0.015
3856,0.005,0.010
3857,0.010,-0.005
3858,0.000,-0.010
3859,0.000,-0.035
3860,-0.010,-0.100
3861,-0.020,-0.185
3862,-0.020,-0.185
3863,-0.025,-0.175
3864,-0.030,-0.150
3865,-0.045,-0.150
3866,-0.025,-0.145
3867,-0.025,-0.150
3868,-0.030,-0.150
3869,-0.040,-0.140
3870,-0.035,-0.135
3871,-0.040,-0.135
3872,-0.030,-0.135
3873,-0.035,-0.120
3874,-0.025,-0.110
3875,-0.020,-0.120
3876,-0.015,-0.155
3877,-0.010,-0.375
3878,0.010,-0.455
3879,0.150,-0.195
3880,0.170,0.100
3881,-0.040,0.570
3882,-0.515,0.725
3883,-0.735,0.750
3884,-0.450,0.345
3885,-0.190,0.095
3886,-0.070,-0.065
3887,-0.050,-0.150
3888,-0.020,-0.155
3889,0.005,-0.150
3890,0.030,-0.130
3891,0.045,-0.120
3892,0.040,-0.120
3893,0.030,-0.135
3894,0.030,-0.135
3895,0.045,-0.130
3896,0.050,-0.130
3897,0.050,-0.125
3898,0.055,-0.120
3899,0.065,-0.120
3900,0.070,-0.100
3901,0.110,-0.120
3902,0.100,-0.110
3903,0.105,-0.115
3904,0.115,-0.090
3905,0.110,-0.065
3906,0.115,-0.060
3907,0.125,-0.045
3908,0.115,-0.030
3909,0.110,-0.015
3910,0.105,-0.015
3911,0.095,-0.005
3912,0.065,-0.020
3913,0.045,-0.035
3914,0.015,-0.025
3915,0.000,-0.055
3916,-0.025,-0.065
3917,-0.020,-0.080
3918,-0.035,-0.105
3919,-0.050,-0.125
3920,-0.065,-0.125
3921,-0.055,-0.125
3922,-0.065,-0.125
3923,-0.055,-0.125
3924,-0.055,-0.140
3925,-0.050,-0.135
3926,-0.065,-0.135
3927,-0.060,-0.145
3928,-0.040,-0.140
3929,-0.050,-0.145
3930,-0.055,-0.155
3931,-0.045,-0.145
3932,-0.050,-0.145
3933,-0.055,-0.155
3934,-0.050,-0.140
3935,-0.065,-0.155
3936,-0.060,-0.140
3937,-0.060,-0.145
3938,-0.060,-0.165
3939,-0.065,-0.150
3940,-0.070,-0.155
3941,-0.075,-0.150
3942,-0.065,-0.145
3943,-0.060,-0.145
3944,-0.065,-0.130
3945,-0.070,-0.115
3946,-0.075,-0.105
3947,-0.060,-0.060
3948,-0.065,-0.035
3949,-0.050,-0.015
3950,-0.050,-0.025
3951,-0.045,-0.060
3952,-0.065,-0.080
3953,-0.075,-0.105
3954,-0.085,-0.165
3955,-0.100,-0.210
3956,-0.100,-0.205
3957,-0.105,-0.180
3958,-0.105,-0.180
3959,-0.105,-0.185
3960,-0.095,-0.190
3961,-0.095,-0.165
3962,-0.100,-0.170
3963,-0.105,-0.175
3964,-0.085,-0.175
3965,-0.100,-0.150
3966,-0.090,-0.150
3967,-0.065,-0.150
3968,-0.080,-0.145
3969,-0.075,-0.155
3970,-0.090,-0.225
3971,-0.080,-0.475
3972,-0.010,-0.435
3973,0.105,-0.095
3974,0.120,0.215
3975,-0.140,0.640
3976,-0.595,0.765
3977,-0.710,0.595
3978,-0.410,0.215
3979,-0.160,-0.005
3980,-0.100,-0.140
3981,-0.070,-0.185
3982,-0.065,-0.160
3983,-0.035,-0.165
3984,-0.020,-0.155
3985,-0.020,-0.165
3986,-0.025,-0.165
3987,-0.020,-0.165
3988,-0.010,-0.140
3989,-0.020,-0.135
3990,-0.015,-0.150
3991,-0.010,-0.145
3992,-0.005,-0.155
3993,0.005,-0.150
3994,0.005,-0.140
3995,0.010,-0.130
3996,0.030,-0.125
3997,0.035,-0.115
3998,0.045,-0.105
3999,0.060,-0.090
4000,0.065,-0.065
4001,0.070,-0.050
4002,0.065,-0.050
4003,0.030,-0.015
4004,0.035,-0.035
4005,0.015,-0.015
4006,0.000,-0.010
4007,-0.010,-0.025
4008,-0.035,-0.065
4009,-0.045,-0.065
4010,-0.075,-0.090
4011,-0.055,-0.105
4012,-0.075,-0.115
4013,-0.090,-0.125
4014,-0.095,-0.125
4015,-0.105,-0.120
4016,-0.095,-0.130
4017,-0.090,-0.110
4018,-0.085,-0.115
4019,-0.085,-0.130
4020,-0.085,-0.130
4021,-0.085,-0.135
4022,-0.080,-0.120
4023,-0.075,-0.125
4024,-0.095,-0.135
4025,-0.080,-0.125
4026,-0.095,-0.110
4027,-0.085,-0.135
4028,-0.075,-0.140
4029,-0.090,-0.140
4030,-0.105,-0.130
4031,-0.110,-0.135
4032,-0.090,-0.125
4033,-0.095,-0.140
4034,-0.100,-0.155
4035,-0.105,-0.145
4036,-0.105,-0.150
4037,-0.110,-0.155
4038,-0.120,-0.130
4039,-0.120,-0.115
4040,-0.110,-0.070
4041,-0.115,-0.060
4042,-0.100,-0.040
4043,-0.100,-0.020
4044,-0.080,-0.040
4045,-0.100,-0.065
4046,-0.105,-0.085
4047,-0.120,-0.110
4048,-0.130,-0.165
4049,-0.130,-0.210
4050,-0.135,-0.215
4051,-0.140,-0.215
4052,-0.130,-0.200
4053,-0.130,-0.200
4054,-0.130,-0.200
4055,-0.125,-0.185
4056,-0.135,-0.200
4057,-0.135,-0.175
4058,-0.135,-0.175
4059,-0.125,-0.180
4060,-0.115,-0.170
4061,-0.120,-0.175
4062,-0.135,-0.170
4063,-0.120,-0.175
4064,-0.130,-0.250
4065,-0.095,-0.505
4066,-0.035,-0.415
4067,0.095,-0.060
4068,0.070,0.320
4069,-0.200,0.710
4070,-0.640,0.750
4071,-0.720,0.545
4072,-0.420,0.170
4073,-0.150,-0.045
4074,-0.115,-0.155
4075,-0.100,-0.195
4076,-0.100,-0.205
4077,-0.075,-0.190
4078,-0.060,-0.180
4079,-0.050,-0.175
4080,-0.060,-0.175
4081,-0.055,-0.175
4082,-0.045,-0.175
4083,-0.055,-0.170
4084,-0.040,-0.160
4085,-0.030,-0.160
4086,-0.020,-0.160
4087,-0.020,-0.160
4088,-0.015,-0.160
4089,0.000,-0.155
4090,0.005,-0.145
4091,0.000,-0.125
4092,0.020,-0.105
4093,0.030,-0.085
4094,0.035,-0.090
4095,0.040,-0.065
4096,0.035,-0.060
4097,0.020,-0.045
4098,0.015,-0.005
4099,0.005,-0.015
4100,-0.005,-0.010
4101,-0.020,-0.020
4102,-0.040,-0.035
4103,-0.055,-0.040
4104,-0.070,-0.070
4105,-0.075,-0.090
4106,-0.080,-0.095
4107,-0.090,-0.105
4108,-0.085,-0.115
4109,-0.085,-0.105
4110,-0.085,-0.110
4111,-0.085,-0.115
4112,-0.075,-0.110
4113,-0.075,-0.110
4114,-0.090,-0.090
4115,-0.085,-0.125
4116,-0.095,-0.100
4117,-0.080,-0.100
4118,-0.080,-0.105
4119,-0.080,-0.100
4120,-0.080,-0.115
4121,-0.075,-0.125
4122,-0.080,-0.135
4123,-0.095,-0.130
4124,-0.080,-0.125
4125,-0.080,-0.115
4126,-0.075,-0.120
4127,-0.065,-0.120
4128,-0.065,-0.130
4129,-0.075,-0.130
4130,-0.080,-0.120
4131,-0.085,-0.130
4132,-0.090,-0.110
4133,-0.085,-0.080
4134,-0.080,-0.050
4135,-0.080,-0.035
4136,-0.060,-0.010
4137,-0.070,-0.010
4138,-0.050,-0.005
4139,-0.055,-0.025
4140,-0.080,-0.045
4141,-0.075,-0.080
4142,-0.080,-0.100
4143,-0.070,-0.170
4144,-0.090,-0.200
4145,-0.090,-0.185
4146,-0.105,-0.190
4147,-0.090,-0.180
4148,-0.095,-0.170
4149,-0.100,-0.165
4150,-0.080,-0.160
4151,-0.095,-0.160
4152,-0.095,-0.150
4153,-0.090,-0.155
4154,-0.100,-0.155
4155,-0.085,-0.155
4156,-0.095,-0.150
4157,-0.105,-0.145
4158,-0.105,-0.215
4159,-0.100,-0.450
4160,-0.025,-0.405
4161,0.085,-0.090
4162,0.075,0.235
4163,-0.230,0.635
4164,-0.680,0.740
4165,-0.735,0.580
4166,-0.440,0.200
4167,-0.200,-0.020
4168,-0.105,-0.150
4169,-0.105,-0.190
4170,-0.080,-0.200
4171,-0.060,-0.185
4172,-0.050,-0.180
4173,-0.065,-0.190
4174,-0.055,-0.180
4175,-0.050,-0.180
4176,-0.050,-0.175
4177,-0.035,-0.170
4178,-0.020,-0.150
4179,-0.020,-0.175
4180,-0.015,-0.165
4181,-0.015,-0.170
4182,-0.005,-0.155
4183,0.000,-0.155
4184,0.020,-0.140
4185,0.035,-0.145
4186,0.060,-0.120
4187,0.060,-0.105
4188,0.065,-0.100
4189,0.060,-0.075
4190,0.050,-0.070
4191,0.035,-0.040
4192,0.035,-0.030
4193,0.020,-0.030
4194,0.020,-0.030
4195,-0.015,-0.055
4196,-0.025,-0.070
4197,-0.055,-0.095
4198,-0.090,-0.100
4199,-0.090,-0.120
4200,-0.095,-0.110
4201,-0.095,-0.120
4202,-0.095,-0.130
4203,-0.085,-0.120
4204,-0.095,-0.145
4205,-0.090,-0.135
4206,-0.100,-0.150
4207,-0.095,-0.140
4208,-0.090,-0.135
4209,-0.085,-0.130
4210,-0.090,-0.130
4211,-0.075,-0.130
4212,-0.080,-0.140
4213,-0.075,-0.150
4214,-0.075,-0.150
4215,-0.080,-0.145
4216,-0.075,-0.140
4217,-0.080,-0.145
4218,-0.080,-0.150
4219,-0.075,-0.135
4220,-0.075,-0.130
4221,-0.070,-0.130
4222,-0.090,-0.140
4223,-0.085,-0.135
4224,-0.085,-0.135
4225,-0.080,-0.120
4226,-0.085,-0.105
4227,-0.085,-0.055
4228,-0.065,-0.055
4229,-0.060,-0.020
4230,-0.050,-0.010
4231,-0.070,0.000
4232,-0.050,-0.025
4233,-0.065,-0.045
4234,-0.070,-0.040
4235,-0.065,-0.100
4236,-0.075,-0.155
4237,-0.065,-0.190
4238,-0.090,-0.190
4239,-0.075,-0.185
4240,-0.090,-0.185
4241,-0.075,-0.175
4242,-0.090,-0.170
4243,-0.095,-0.145
4244,-0.080,-0.155
4245,-0.095,-0.145
4246,-0.080,-0.165
4247,-0.100,-0.140
4248,-0.080,-0.155
4249,-0.080,-0.145
4250,-0.085,-0.135
4251,-0.085,-0.185
4252,-0.080,-0.395
4253,-0.030,-0.470
4254,0.080,-0.195
4255,0.125,0.075
4256,-0.080,0.505
4257,-0.545,0.675
4258,-0.785,0.675
4259,-0.540,0.300
4260,-0.245,0.045
4261,-0.105,-0.120
4262,-0.095,-0.180
4263,-0.070,-0.200
4264,-0.040,-0.170
4265,-0.030,-0.180
4266,-0.035,-0.160
4267,-0.015,-0.160
4268,-0.015,-0.160
4269,-0.015,-0.145
4270,0.000,-0.140
4271,-0.005,-0.135
4272,0.005,-0.145
4273,0.000,-0.140
4274,0.010,-0.130
4275,0.015,-0.125
4276,0.045,-0.115
4277,0.055,-0.105
4278,0.060,-0.100
4279,0.075,-0.095
4280,0.090,-0.090
4281,0.090,-0.070
4282,0.095,-0.055
4283,0.090,-0.020
4284,0.085,-0.010
4285,0.080,0.000
4286,0.065,0.000
4287,0.055,0.000
4288,0.020,-0.030
4289,0.010,-0.055
4290,-0.010,-0.070
4291,-0.020,-0.065
4292,-0.070,-0.100
4293,-0.055,-0.110
4294,-0.070,-0.110
4295,-0.080,-0.115
4296,-0.075,-0.130
4297,-0.090,-0.130
4298,-0.085,-0.130
4299,-0.080,-0.130
4300,-0.085,-0.125
4301,-0.070,-0.145
4302,-0.080,-0.125
4303,-0.070,-0.130
4304,-0.065,-0.135
4305,-0.065,-0.140
4306,-0.070,-0.150
4307,-0.085,-0.145
4308,-0.065,-0.150
4309,-0.055,-0.150
4310,-0.075,-0.155
4311,-0.065,-0.140
4312,-0.055,-0.155
4313,-0.085,-0.155
4314,-0.075,-0.155
4315,-0.090,-0.160
4316,-0.080,-0.145
4317,-0.065,-0.150
4318,-0.070,-0.135
4319,-0.065,-0.120
4320,-0.075,-0.100
4321,-0.075,-0.085
4322,-0.060,-0.060
4323,-0.070,-0.040
4324,-0.055,-0.025
4325,-0.045,-0.020
4326,-0.045,-0.060
4327,-0.065,-0.090
4328,-0.060,-0.125
4329,-0.070,-0.200
4330,-0.080,-0.215
4331,-0.085,-0.230
4332,-0.080,-0.210
4333,-0.070,-0.185
4334,-0.080,-0.185
4335,-0.085,-0.185
4336,-0.065,-0.175
4337,-0.085,-0.180
4338,-0.080,-0.190
4339,-0.075,-0.175
4340,-0.090,-0.190
4341,-0.075,-0.175
4342,-0.075,-0.155
4343,-0.065,-0.150
4344,-0.075,-0.170
4345,-0.060,-0.330
4346,-0.040,-0.520
4347,0.055,-0.295
4348,0.150,-0.040
4349,0.020,0.360
4350,-0.400,0.640
4351,-0.795,0.745
4352,-0.620,0.450
4353,-0.335,0.115
4354,-0.095,-0.075
4355,-0.075,-0.165
4356,-0.050,-0.190
4357,-0.020,-0.175
4358,0.000,-0.165
4359,0.005,-0.155
4360,-0.005,-0.160
4361,0.010,-0.145
4362,0.015,-0.145
4363,0.025,-0.160
4364,0.020,-0.160
4365,0.025,-0.140
4366,0.030,-0.140
4367,0.040,-0.140
4368,0.050,-0.120
4369,0.080,-0.135
4370,0.090,-0.125
4371,0.105,-0.125
4372,0.105,-0.125
4373,0.115,-0.110
4374,0.115,-0.080
4375,0.130,-0.045
4376,0.120,-0.055
4377,0.115,-0.025
4378,0.120,-0.030
4379,0.100,-0.025
4380,0.090,-0.015
4381,0.055,-0.030
4382,0.030,-0.055
4383,0.000,-0.065
4384,-0.010,-0.085
4385,-0.020,-0.100
4386,-0.020,-0.105
4387,-0.035,-0.115
4388,-0.050,-0.130
4389,-0.040,-0.120
4390,-0.065,-0.145
4391,-0.040,-0.130
4392,-0.040,-0.130
4393,-0.040,-0.140
4394,-0.040,-0.120
4395,-0.045,-0.140
4396,-0.040,-0.145
4397,-0.040,-0.145
4398,-0.045,-0.135
4399,-0.045,-0.155
4400,-0.055,-0.150
4401,-0.050,-0.135
4402,-0.030,-0.145
4403,-0.025,-0.135
4404,-0.050,-0.150
4405,-0.055,-0.150
4406,-0.055,-0.150
4407,-0.050,-0.160
4408,-0.055,-0.165
4409,-0.055,-0.155
4410,-0.065,-0.150
4411,-0.045,-0.145
4412,-0.055,-0.145
4413,-0.045,-0.125
4414,-0.065,-0.115
4415,-0.065,-0.095
4416,-0.065,-0.075
4417,-0.050,-0.050
4418,-0.040,-0.030
4419,-0.025,-0.035
4420,-0.030,-0.070
4421,-0.045,-0.105
4422,-0.055,-0.115
4423,-0.075,-0.170
4424,-0.080,-0.230
4425,-0.090,-0.230
4426,-0.085,-0.220
4427,-0.090,-0.210
4428,-0.105,-0.195
4429,-0.080,-0.185
4430,-0.095,-0.190
4431,-0.100,-0.200
4432,-0.095,-0.195
4433,-0.105,-0.195
4434,-0.090,-0.185
4435,-0.105,-0.175
4436,-0.095,-0.175
4437,-0.090,-0.175
4438,-0.090,-0.175
4439,-0.090,-0.255
4440,-0.090,-0.500
4441,-0.025,-0.450
4442,0.115,-0.125
4443,0.120,0.240
4444,-0.160,0.640
4445,-0.630,0.755
4446,-0.685,0.560
4447,-0.405,0.170
4448,-0.165,-0.045
4449,-0.090,-0.170
4450,-0.095,-0.220
4451,-0.060,-0.210
4452,-0.055,-0.195
4453,-0.035,-0.195
4454,-0.020,-0.190
4455,-0.020,-0.195
4456,-0.030,-0.205
4457,-0.035,-0.180
4458,-0.020,-0.185
4459,-0.010,-0.185
4460,-0.010,-0.190
4461,0.005,-0.185
4462,0.020,-0.180
4463,0.015,-0.180
4464,0.025,-0.160
4465,0.040,-0.165
4466,0.045,-0.170
4467,0.065,-0.140
4468,0.065,-0.120
4469,0.060,-0.100
4470,0.075,-0.080
4471,0.065,-0.070
4472,0.060,-0.080
4473,0.050,-0.055
4474,0.040,-0.050
4475,0.020,-0.065
4476,0.005,-0.060
4477,0.000,-0.090
4478,-0.020,-0.105
4479,-0.035,-0.105
4480,-0.045,-0.145
4481,-0.050,-0.130
4482,-0.060,-0.155
4483,-0.060,-0.150
4484,-0.050,-0.150
4485,-0.055,-0.135
4486,-0.050,-0.130
4487,-0.045,-0.160
4488,-0.040,-0.155
4489,-0.040,-0.155
4490,-0.045,-0.145
4491,-0.040,-0.145
4492,-0.035,-0.145
4493,-0.040,-0.135
4494,-0.015,-0.140
4495,-0.025,-0.140
4496,-0.015,-0.140
4497,-0.015,-0.140
4498,-0.030,-0.140
4499,-0.035,-0.155
4500,-0.040,-0.150
4501,-0.045,-0.145
4502,-0.035,-0.140
4503,-0.030,-0.155
4504,-0.035,-0.130
4505,-0.040,-0.135
4506,-0.040,-0.125
4507,-0.050,-0.105
4508,-0.045,-0.095
4509,-0.045,-0.055
4510,-0.035,-0.020
4511,-0.020,-0.005
4512,-0.015,0.000
4513,-0.010,-0.040
4514,-0.025,-0.065
4515,-0.045,-0.085
4516,-0.045,-0.130
4517,-0.055,-0.200
4518,-0.070,-0.200
4519,-0.070,-0.190
4520,-0.050,-0.195
4521,-0.060,-0.185
4522,-0.070,-0.195
4523,-0.075,-0.180
4524,-0.070,-0.190
4525,-0.075,-0.180
4526,-0.070,-0.185
4527,-0.075,-0.160
4528,-0.055,-0.170
4529,-0.065,-0.165
4530,-0.060,-0.155
4531,-0.055,-0.160
4532,-0.055,-0.225
4533,-0.065,-0.460
4534,0.000,-0.490
4535,0.125,-0.140
4536,0.165,0.190
4537,-0.065,0.650
4538,-0.520,0.750
4539,-0.715,0.655
4540,-0.460,0.255
4541,-0.175,0.000
4542,-0.075,-0.150
4543,-0.060,-0.185
4544,-0.060,-0.185
4545,-0.025,-0.170
4546,-0.010,-0.165
4547,-0.030,-0.170
4548,0.000,-0.170
4549,-0.010,-0.165
4550,0.000,-0.180
4551,-0.025,-0.180
4552,0.000,-0.160
4553,0.000,-0.150
4554,0.020,-0.155
4555,0.025,-0.155
4556,0.035,-0.155
4557,0.050,-0.145
4558,0.050,-0.145
4559,0.080,-0.130
4560,0.080,-0.125
4561,0.100,-0.080
4562,0.115,-0.085
4563,0.090,-0.055
4564,0.095,-0.055
4565,0.085,-0.040
4566,0.075,-0.030
4567,0.060,-0.015
4568,0.060,-0.025
4569,0.045,-0.030
4570,0.000,-0.055
4571,-0.005,-0.075
4572,-0.030,-0.085
4573,-0.020,-0.095
4574,-0.030,-0.115
4575,-0.055,-0.125
4576,-0.035,-0.120
4577,-0.050,-0.115
4578,-0.040,-0.115
4579,-0.045,-0.120
4580,-0.030,-0.105
4581,-0.035,-0.120
4582,-0.035,-0.125
4583,-0.040,-0.125
4584,-0.055,-0.120
4585,-0.035,-0.110
4586,-0.035,-0.120
4587,-0.020,-0.120
4588,-0.030,-0.120
4589,-0.050,-0.120
4590,-0.035,-0.120
4591,-0.025,-0.130
4592,-0.030,-0.140
4593,-0.035,-0.145
4594,-0.035,-0.110
4595,-0.025,-0.125
4596,-0.015,-0.125
4597,-0.010,-0.120
4598,-0.025,-0.115
4599,-0.035,-0.105
4600,-0.030,-0.090
4601,-0.025,-0.065
4602,-0.020,-0.065
4603,-0.020,-0.025
4604,-0.005,-0.005
4605,0.000,0.005
4606,0.030,-0.015
4607,0.000,-0.040
4608,-0.020,-0.055
4609,-0.025,-0.105
4610,-0.020,-0.170
4611,-0.020,-0.175
4612,-0.020,-0.180
4613,-0.015,-0.175
4614,-0.010,-0.175
4615,-0.025,-0.160
4616,-0.020,-0.160
4617,-0.015,-0.155
4618,-0.030,-0.150
4619,-0.025,-0.145
4620,-0.010,-0.125
4621,0.000,-0.140
4622,-0.010,-0.125
4623,0.000,-0.120
4624,-0.010,-0.120
4625,0.005,-0.195
4626,0.010,-0.445
4627,0.055,-0.430
4628,0.195,-0.120
4629,0.200,0.195
4630,-0.075,0.635
4631,-0.565,0.735
4632,-0.690,0.640
4633,-0.395,0.260
4634,-0.110,0.025
4635,-0.015,-0.110
4636,-0.005,-0.155
4637,0.010,-0.145
4638,0.035,-0.145
4639,0.050,-0.140
4640,0.060,-0.145
4641,0.065,-0.145
4642,0.065,-0.150
4643,0.060,-0.145
4644,0.075,-0.145
4645,0.075,-0.135
4646,0.085,-0.120
4647,0.095,-0.120
4648,0.110,-0.105
4649,0.110,-0.120
4650,0.130,-0.115
4651,0.125,-0.105
4652,0.145,-0.090
4653,0.145,-0.095
4654,0.135,-0.065
4655,0.155,-0.050
4656,0.160,-0.040
4657,0.150,-0.020
4658,0.150,-0.010
4659,0.135,-0.010
4660,0.130,0.000
4661,0.100,-0.005
4662,0.060,-0.005
4663,0.055,-0.030
4664,0.035,-0.050
4665,0.025,-0.060
4666,0.020,-0.090
4667,0.010,-0.090
4668,0.000,-0.110
4669,-0.010,-0.120
4670,-0.005,-0.105
4671,-0.005,-0.125
4672,-0.010,-0.130
4673,0.015,-0.115
4674,0.010,-0.115
4675,0.000,-0.125
4676,0.000,-0.125
4677,0.000,-0.125
4678,0.000,-0.140
4679,-0.010,-0.125
4680,0.000,-0.135
4681,-0.005,-0.120
4682,0.005,-0.140
4683,-0.005,-0.135
4684,0.000,-0.145
4685,-0.005,-0.155
4686,-0.015,-0.150
4687,-0.005,-0.140
4688,-0.010,-0.140
4689,-0.015,-0.140
4690,-0.010,-0.145
4691,-0.005,-0.115
4692,-0.020,-0.125
4693,-0.020,-0.090
4694,-0.010,-0.080
4695,-0.005,-0.055
4696,-0.005,-0.035
4697,-0.005,-0.010
4698,0.005,-0.035
4699,0.000,-0.050
4700,-0.015,-0.065
4701,-0.025,-0.110
4702,-0.030,-0.150
4703,-0.045,-0.215
4704,-0.050,-0.195
4705,-0.040,-0.195
4706,-0.045,-0.175
4707,-0.040,-0.160
4708,-0.045,-0.175
4709,-0.045,-0.165
4710,-0.050,-0.175
4711,-0.060,-0.180
4712,-0.040,-0.160
4713,-0.045,-0.145
4714,-0.045,-0.155
4715,-0.050,-0.140
4716,-0.055,-0.140
4717,-0.035,-0.190
4718,-0.015,-0.430
4719,-0.005,-0.485
4720,0.130,-0.200
4721,0.160,0.060
4722,-0.065,0.495
4723,-0.540,0.670
4724,-0.750,0.640
4725,-0.480,0.265
4726,-0.195,0.030
4727,-0.070,-0.120
4728,-0.065,-0.170
4729,-0.015,-0.170
4730,0.000,-0.155
4731,0.025,-0.150
4732,0.035,-0.155
4733,0.040,-0.130
4734,0.045,-0.175
4735,0.030,-0.155
4736,0.050,-0.155
4737,0.055,-0.135
4738,0.070,-0.125
4739,0.065,-0.125
4740,0.080,-0.120
4741,0.105,-0.120
4742,0.100,-0.120
4743,0.115,-0.125
4744,0.130,-0.115
4745,0.130,-0.090
4746,0.145,-0.080
4747,0.155,-0.065
4748,0.165,-0.050
4749,0.150,-0.040
4750,0.160,-0.020
4751,0.150,-0.010
4752,0.135,-0.015
4753,0.110,-0.020
4754,0.095,-0.035
4755,0.075,-0.055
4756,0.045,-0.085
4757,0.035,-0.100
4758,0.025,-0.105
4759,0.005,-0.110
4760,0.000,-0.120
4761,0.005,-0.130
4762,0.000,-0.140
4763,0.000,-0.115
4764,0.000,-0.130
4765,0.000,-0.135
4766,0.005,-0.125
4767,0.000,-0.135
4768,-0.005,-0.145
4769,-0.010,-0.140
4770,-0.010,-0.135
4771,-0.005,-0.120
4772,-0.005,-0.115
4773,0.000,-0.145
4774,0.005,-0.150
4775,0.000,-0.140
4776,0.000,-0.150
4777,-0.010,-0.135
4778,-0.015,-0.145
4779,-0.035,-0.135
4780,-0.035,-0.145
4781,-0.040,-0.135
4782,-0.035,-0.140
4783,-0.040,-0.130
4784,-0.040,-0.130
4785,-0.035,-0.080
4786,-0.035,-0.075
4787,-0.030,-0.040
4788,-0.010,-0.020
4789,-0.015,0.015
4790,-0.015,-0.025
4791,-0.015,-0.065
4792,-0.030,-0.060
4793,-0.055,-0.105
4794,-0.050,-0.150
4795,-0.050,-0.215
4796,-0.065,-0.195
4797,-0.060,-0.160
4798,-0.075,-0.145
4799,-0.060,-0.145
4800,-0.070,-0.160
4801,-0.060,-0.160
4802,-0.050,-0.160
4803,-0.060,-0.165
4804,-0.060,-0.135
4805,-0.065,-0.105
4806,-0.075,-0.150
4807,-0.055,-0.150
4808,-0.060,-0.135
4809,-0.055,-0.245
4810,-0.045,-0.455
4811,0.030,-0.335
4812,0.150,0.005
4813,0.135,0.335
4814,-0.145,0.740
4815,-0.615,0.810
4816,-0.700,0.640
4817,-0.405,0.260
4818,-0.140,0.030
4819,-0.080,-0.135
4820,-0.065,-0.175
4821,-0.050,-0.150
4822,-0.025,-0.120
4823,-0.005,-0.090
4824,-0.005,-0.100
4825,0.005,-0.095
4826,0.000,-0.115
4827,0.000,-0.105
4828,0.020,-0.130
4829,0.005,-0.125
4830,0.010,-0.120
4831,0.030,-0.125
4832,0.050,-0.095
4833,0.050,-0.045
4834,0.080,-0.020
4835,0.095,-0.090
4836,0.085,-0.095
4837,0.100,-0.070
4838,0.105,-0.055
4839,0.105,-0.065
4840,0.120,-0.035
4841,0.110,0.000
4842,0.110,0.085
4843,0.090,0.035
4844,0.085,-0.025
4845,0.055,-0.050
4846,0.035,-0.095
4847,0.025,-0.140
4848,0.005,-0.115
4849,-0.005,-0.135
4850,-0.010,-0.140
4851,-0.015,-0.140
4852,-0.020,-0.155
4853,-0.010,-0.155
4854,-0.030,-0.140
4855,-0.020,-0.095
4856,-0.030,-0.150
4857,-0.025,-0.210
4858,0.000,-0.210
4859,0.000,-0.165
4860,0.005,-0.130
4861,0.000,-0.180
4862,0.000,-0.180
4863,-0.005,-0.175
4864,-0.010,-0.185
4865,0.000,-0.140
4866,0.000,-0.145
4867,0.005,-0.155
4868,0.000,-0.160
4869,0.000,-0.165
4870,0.000,-0.160
4871,0.000,-0.125
4872,-0.010,-0.165
4873,-0.005,-0.195
4874,0.000,-0.160
4875,0.000,-0.135
4876,0.000,-0.140
4877,0.005,-0.125
4878,0.000,-0.120
4879,0.005,-0.080
4880,0.015,-0.055
4881,0.020,-0.030
4882,0.035,-0.075
4883,0.010,-0.110
4884,0.020,-0.140
4885,0.020,-0.205
4886,0.000,-0.240
4887,0.000,-0.250
4888,-0.010,-0.250
4889,-0.015,-0.250
4890,-0.025,-0.245
4891,-0.020,-0.235
4892,-0.010,-0.235
4893,-0.005,-0.240
4894,-0.010,-0.225
4895,-0.005,-0.215
4896,-0.005,-0.215
4897,-0.010,-0.210
4898,-0.020,-0.195
4899,-0.025,-0.185
4900,0.000,-0.250
4901,-0.005,-0.500
4902,0.045,-0.475
4903,0.175,-0.160
4904,0.165,0.210
4905,-0.085,0.680
4906,-0.560,0.745
4907,-0.700,0.625
4908,-0.375,0.210
4909,-0.105,-0.020
4910,-0.025,-0.175
4911,-0.030,-0.215
4912,-0.010,-0.215
4913,0.000,-0.215
4914,0.010,-0.180
4915,0.015,-0.145
4916,0.020,-0.160
4917,0.020,-0.190
4918,0.020,-0.170
4919,0.020,-0.175
4920,0.040,-0.235
4921,0.020,-0.225
4922,0.040,-0.215
4923,0.040,-0.190
4924,0.060,-0.180
4925,0.085,-0.145
4926,0.090,-0.150
4927,0.095,-0.150
4928,0.110,-0.140
4929,0.120,-0.115
4930,0.110,-0.115
4931,0.115,-0.085
4932,0.120,-0.085
4933,0.110,-0.085
4934,0.095,-0.070
4935,0.090,-0.065
4936,0.075,-0.070
4937,0.050,-0.075
4938,0.020,-0.095
4939,0.005,-0.115
4940,-0.005,-0.100
4941,-0.020,-0.135
4942,-0.030,-0.135
4943,-0.015,-0.155
4944,-0.035,-0.145
4945,-0.035,-0.160
4946,-0.040,-0.155
4947,-0.035,-0.170
4948,-0.030,-0.175
4949,-0.035,-0.160
4950,-0.015,-0.160
4951,-0.025,-0.150
4952,-0.025,-0.165
4953,-0.020,-0.160
4954,-0.015,-0.170
4955,-0.010,-0.160
4956,-0.020,-0.165
4957,-0.015,-0.155
4958,-0.030,-0.150
4959,-0.005,-0.140
4960,-0.025,-0.160
4961,-0.005,-0.165
4962,-0.010,-0.155
4963,-0.010,-0.145
4964,-0.020,-0.155
4965,-0.030,-0.135
4966,-0.020,-0.115
4967,-0.025,-0.095
4968,-0.010,-0.100
4969,-0.010,-0.080
4970,-0.010,-0.060
4971,0.000,-0.040
4972,-0.005,-0.040
4973,-0.005,-0.055
4974,-0.005,-0.080
4975,-0.025,-0.125
4976,-0.010,-0.225
4977,-0.015,-0.260
4978,-0.020,-0.245
4979,-0.035,-0.235
4980,-0.035,-0.245
4981,-0.025,-0.245
4982,-0.030,-0.205
4983,-0.010,-0.205
4984,-0.010,-0.190
4985,0.000,-0.200
4986,-0.010,-0.205
4987,-0.005,-0.195
4988,0.000,-0.200
4989,-0.020,-0.185
4990,0.000,-0.200
4991,0.000,-0.300
4992,0.000,-0.540
4993,0.095,-0.405
4994,0.220,-0.100
4995,0.180,0.260
4996,-0.145,0.635
4997,-0.600,0.700
4998,-0.615,0.545
4999,-0.335,0.185
5000,-0.075,-0.020
5001,-0.005,-0.145
5002,0.010,-0.175
5003,0.040,-0.165
5004,0.065,-0.155
5005,0.070,-0.160
5006,0.065,-0.170
5007,0.070,-0.155
5008,0.070,-0.155
5009,0.080,-0.165
5010,0.100,-0.135
5011,0.105,-0.150
5012,0.110,-0.145
5013,0.105,-0.155
5014,0.125,-0.140
5015,0.130,-0.110
5016,0.155,-0.095
5017,0.165,-0.105
5018,0.180,-0.110
5019,0.195,-0.095
5020,0.210,-0.070
5021,0.210,-0.040
5022,0.195,-0.035
5023,0.195,-0.025
5024,0.190,0.005
5025,0.185,0.035
5026,0.170,0.015
5027,0.150,0.000
5028,0.135,-0.005
5029,0.105,-0.035
5030,0.095,-0.065
5031,0.055,-0.050
5032,0.055,-0.035
5033,0.030,-0.095
5034,0.030,-0.080
5035,0.030,-0.065
5036,0.045,0.020
5037,0.035,-0.140
5038,0.030,-0.100
5039,0.030,-0.085
5040,0.035,-0.090
5041,0.040,-0.085
5042,0.055,-0.080
5043,0.045,-0.065
5044,0.055,-0.055
5045,0.045,-0.060
5046,0.050,-0.040
5047,0.045,-0.075
5048,0.050,-0.145
5049,0.050,-0.130
5050,0.055,-0.085
5051,0.055,-0.145
5052,0.045,-0.115
5053,0.050,-0.090
5054,0.050,-0.150
5055,0.060,-0.125
5056,0.045,-0.065
5057,0.035,-0.075
5058,0.030,-0.095
5059,0.045,-0.080
5060,0.050,-0.080
5061,0.070,-0.030
5062,0.080,-0.035
5063,0.075,-0.025
5064,0.060,-0.045
5065,0.030,-0.075
5066,0.030,-0.135
5067,0.020,-0.190
5068,0.025,-0.200
5069,0.015,-0.135
5070,0.015,-0.190
5071,0.015,-0.290
5072,0.020,-0.230
5073,0.010,-0.240
5074,0.000,-0.225
5075,0.000,-0.185
5076,0.010,-0.205
5077,0.000,-0.205
5078,0.005,-0.205
5079,0.010,-0.110
5080,0.005,-0.125
5081,0.000,-0.160
5082,0.005,-0.285
5083,0.015,-0.580
5084,0.085,-0.465
5085,0.215,-0.190
5086,0.210,0.105
5087,-0.095,0.550
5088,-0.550,0.680
5089,-0.635,0.540
5090,-0.360,0.155
5091,-0.085,-0.055
5092,0.005,-0.200
5093,0.010,-0.265
5094,0.030,-0.245
5095,0.055,-0.240
5096,0.055,-0.250
5097,0.040,-0.245
5098,0.045,-0.240
5099,0.055,-0.245
5100,0.045,-0.250
5101,0.045,-0.240
5102,0.050,-0.220
5103,0.075,-0.225
5104,0.060,-0.225
5105,0.080,-0.225
5106,0.080,-0.240
5107,0.095,-0.220
5108,0.110,-0.225
5109,0.110,-0.210
5110,0.115,-0.220
5111,0.130,-0.200
5112,0.150,-0.165
5113,0.135,-0.155
5114,0.135,-0.140
5115,0.115,-0.135
5116,0.110,-0.115
5117,0.075,-0.110
5118,0.080,-0.120
5119,0.035,-0.125
5120,0.020,-0.160
5121,0.005,-0.175
5122,0.000,-0.190
5123,-0.020,-0.245
5124,-0.020,-0.280
5125,-0.040,-0.290
5126,-0.055,-0.275
5127,-0.040,-0.255
5128,-0.055,-0.235
5129,-0.040,-0.240
5130,-0.035,-0.235
5131,-0.040,-0.230
5132,-0.035,-0.230
5133,-0.025,-0.220
5134,-0.030,-0.210
5135,-0.035,-0.200
5136,-0.025,-0.255
5137,-0.020,-0.230
5138,-0.020,-0.220
5139,-0.015,-0.265
5140,-0.010,-0.240
5141,-0.010,-0.200
5142,-0.020,-0.230
5143,-0.020,-0.260
5144,-0.020,-0.235
5145,-0.015,-0.240
5146,-0.025,-0.215
5147,-0.015,-0.200
5148,-0.005,-0.185
5149,-0.035,-0.165
5150,-0.025,-0.165
5151,-0.020,-0.125
5152,-0.005,-0.090
5153,-0.010,-0.100
5154,-0.005,-0.130
5155,-0.015,-0.140
5156,-0.020,-0.165
5157,-0.040,-0.230
5158,-0.050,-0.295
5159,-0.060,-0.315
5160,-0.080,-0.305
5161,-0.065,-0.275
5162,-0.055,-0.280
5163,-0.050,-0.275
5164,-0.050,-0.270
5165,-0.035,-0.270
5166,-0.030,-0.255
5167,-0.050,-0.230
5168,-0.055,-0.210
5169,-0.035,-0.230
5170,-0.050,-0.255
5171,-0.045,-0.260
5172,-0.050,-0.250
5173,-0.035,-0.395
5174,-0.015,-0.605
5175,0.060,-0.375
5176,0.175,-0.025
5177,0.090,0.395
5178,-0.240,0.680
5179,-0.620,0.725
5180,-0.535,0.400
5181,-0.265,0.025
5182,-0.055,-0.160
5183,-0.040,-0.260
5184,-0.030,-0.275
5185,-0.010,-0.260
5186,0.000,-0.245
5187,0.005,-0.230
5188,0.020,-0.230
5189,0.010,-0.220
5190,0.030,-0.220
5191,0.015,-0.215
5192,0.015,-0.205
5193,0.025,-0.200
5194,0.010,-0.205
5195,0.030,-0.205
5196,0.045,-0.210
5197,0.055,-0.195
5198,0.065,-0.200
5199,0.075,-0.175
5200,0.070,-0.185
5201,0.080,-0.150
5202,0.085,-0.150
5203,0.085,-0.135
5204,0.085,-0.115
5205,0.070,-0.105
5206,0.080,-0.075
5207,0.075,-0.085
5208,0.055,-0.075
5209,0.035,-0.100
5210,0.015,-0.110
5211,0.000,-0.105
5212,-0.020,-0.160
5213,-0.025,-0.160
5214,-0.025,-0.170
5215,-0.030,-0.175
5216,-0.030,-0.175
5217,-0.030,-0.175
5218,-0.035,-0.180
5219,-0.025,-0.175
5220,-0.040,-0.180
5221,-0.025,-0.175
5222,0.000,-0.165
5223,-0.020,-0.175
5224,0.000,-0.175
5225,-0.020,-0.190
5226,-0.025,-0.180
5227,-0.025,-0.185
5228,-0.030,-0.180
5229,-0.015,-0.140
5230,0.000,-0.165
5231,-0.005,-0.150
5232,-0.020,-0.175
5233,-0.015,-0.170
5234,-0.015,-0.170
5235,-0.020,-0.170
5236,-0.015,-0.175
5237,-0.010,-0.155
5238,-0.020,-0.115
5239,-0.005,-0.100
5240,0.000,-0.090
5241,0.000,-0.070
5242,0.000,-0.045
5243,0.005,-0.020
5244,0.005,-0.030
5245,0.005,-0.045
5246,-0.010,-0.085
5247,-0.010,-0.105
5248,-0.020,-0.160
5249,-0.005,-0.205
5250,-0.010,-0.220
5251,-0.010,-0.200
5252,-0.035,-0.195
5253,-0.030,-0.190
5254,-0.025,-0.180
5255,-0.015,-0.160
5256,-0.010,-0.160
5257,-0.020,-0.160
5258,-0.005,-0.150
5259,-0.010,-0.165
5260,-0.010,-0.145
5261,-0.005,-0.150
5262,-0.010,-0.145
5263,0.000,-0.265
5264,0.015,-0.470
5265,0.115,-0.285
5266,0.205,0.000
5267,0.125,0.420
5268,-0.235,0.715
5269,-0.635,0.775
5270,-0.515,0.485
5271,-0.245,0.165
5272,-0.010,-0.020
5273,0.015,-0.130
5274,0.020,-0.160
5275,0.040,-0.160
5276,0.050,-0.135
5277,0.060,-0.140
5278,0.060,-0.140
5279,0.060,-0.125
5280,0.070,-0.125
5281,0.080,-0.120
5282,0.090,-0.115
5283,0.105,-0.115
5284,0.095,-0.130
5285,0.100,-0.115
5286,0.105,-0.115
5287,0.125,-0.095
5288,0.140,-0.085
5289,0.150,-0.075
5290,0.175,-0.070
5291,0.165,-0.070
5292,0.185,-0.050
5293,0.190,-0.040
5294,0.170,-0.025
5295,0.170,-0.010
5296,0.180,0.015
5297,0.140,0.020
5298,0.135,0.010
5299,0.120,0.010
5300,0.105,-0.010
5301,0.090,-0.030
5302,0.070,-0.035
5303,0.045,-0.070
5304,0.025,-0.075
5305,0.015,-0.075
5306,0.015,-0.075
5307,0.010,-0.070
5308,0.020,-0.080
5309,0.015,-0.080
5310,0.015,-0.095
5311,0.020,-0.090
5312,0.015,-0.085
5313,0.015,-0.090
5314,0.030,-0.080
5315,0.030,-0.095
5316,0.025,-0.085
5317,0.040,-0.100
5318,0.035,-0.095
5319,0.025,-0.085
5320,0.035,-0.095
5321,0.020,-0.095
5322,0.030,-0.090
5323,0.025,-0.085
5324,0.040,-0.105
5325,0.035,-0.095
5326,0.025,-0.100
5327,0.030,-0.075
5328,0.025,-0.040
5329,0.015,-0.020
5330,0.025,-0.015
5331,0.040,0.005
5332,0.025,0.025
5333,0.060,0.035
5334,0.060,0.005
5335,0.030,-0.030
5336,0.025,-0.050
5337,0.020,-0.105
5338,0.010,-0.155
5339,0.010,-0.165
5340,-0.005,-0.145
5341,0.005,-0.150
5342,0.000,-0.120
5343,0.010,-0.130
5344,0.000,-0.135
5345,0.015,-0.135
5346,0.010,-0.125
5347,0.010,-0.115
5348,0.010,-0.115
5349,0.025,-0.100
5350,0.030,-0.105
5351,0.015,-0.100
5352,0.015,-0.215
5353,0.030,-0.460
5354,0.125,-0.315
5355,0.200,-0.050
5356,0.175,0.335
5357,-0.170,0.670
5358,-0.580,0.755
5359,-0.550,0.515
5360,-0.255,0.190
5361,-0.040,0.005
5362,0.000,-0.120
5363,0.015,-0.155
5364,0.045,-0.125
5365,0.070,-0.110
5366,0.090,-0.125
5367,0.075,-0.110
5368,0.085,-0.125
5369,0.075,-0.120
5370,0.075,-0.115
5371,0.100,-0.120
5372,0.090,-0.100
5373,0.100,-0.105
5374,0.105,-0.110
5375,0.100,-0.085
5376,0.130,-0.095
5377,0.125,-0.095
5378,0.150,-0.075
5379,0.155,-0.075
5380,0.155,-0.060
5381,0.185,-0.030
5382,0.175,-0.015
5383,0.185,-0.015
5384,0.175,0.010
5385,0.180,0.025
5386,0.175,0.025
5387,0.155,0.030
5388,0.135,0.015
5389,0.110,-0.005
5390,0.080,-0.005
5391,0.075,-0.025
5392,0.070,-0.025
5393,0.045,-0.065
5394,0.040,-0.050
5395,0.040,-0.040
5396,0.020,-0.070
5397,0.035,-0.065
5398,0.035,-0.065
5399,0.030,-0.065
5400,0.035,-0.070
5401,0.030,-0.050
5402,0.040,-0.070
5403,0.030,-0.070
5404,0.025,-0.075
5405,0.030,-0.085
5406,0.030,-0.090
5407,0.045,-0.080
5408,0.030,-0.075
5409,0.035,-0.085
5410,0.025,-0.080
5411,0.025,-0.090
5412,0.020,-0.075
5413,0.010,-0.090
5414,0.020,-0.105
5415,0.015,-0.085
5416,0.015,-0.065
5417,0.000,-0.040
5418,0.015,-0.020
5419,0.015,-0.020
5420,0.035,0.000
5421,0.025,0.005
5422,0.020,0.005
5423,0.030,-0.010
5424,0.015,-0.020
5425,0.020,-0.065
5426,0.010,-0.115
5427,0.000,-0.155
5428,-0.005,-0.170
5429,-0.010,-0.165
5430,-0.015,-0.165
5431,-0.030,-0.165
5432,-0.010,-0.145
5433,0.000,-0.140
5434,-0.020,-0.145
5435,0.000,-0.160
5436,-0.005,-0.140
5437,0.000,-0.140
5438,-0.020,-0.135
5439,-0.010,-0.145
5440,-0.010,-0.130
5441,-0.020,-0.240
5442,-0.005,-0.490
5443,0.060,-0.385
5444,0.185,-0.055
5445,0.180,0.290
5446,-0.105,0.660
5447,-0.530,0.760
5448,-0.580,0.560
5449,-0.320,0.190
5450,-0.085,-0.025
5451,-0.025,-0.145
5452,-0.020,-0.185
5453,0.000,-0.180
5454,0.010,-0.190
5455,0.025,-0.165
5456,0.010,-0.175
5457,0.025,-0.175
5458,0.025,-0.165
5459,0.015,-0.175
5460,0.030,-0.165
5461,0.045,-0.155
5462,0.035,-0.160
5463,0.045,-0.175
5464,0.040,-0.170
5465,0.050,-0.165
5466,0.070,-0.155
5467,0.065,-0.145
5468,0.090,-0.140
5469,0.090,-0.125
5470,0.105,-0.120
5471,0.100,-0.105
5472,0.105,-0.085
5473,0.075,-0.085
5474,0.080,-0.075
5475,0.075,-0.055
5476,0.070,-0.050
5477,0.050,-0.070
5478,0.030,-0.075
5479,0.015,-0.110
5480,0.005,-0.125
5481,0.000,-0.140
5482,-0.015,-0.155
5483,-0.025,-0.145
5484,-0.020,-0.160
5485,-0.030,-0.155
5486,-0.025,-0.160
5487,-0.020,-0.165
5488,-0.020,-0.160
5489,-0.020,-0.150
5490,-0.040,-0.155
5491,-0.025,-0.180
5492,-0.030,-0.175
5493,-0.030,-0.150
5494,-0.015,-0.170
5495,-0.010,-0.160
5496,-0.015,-0.175
5497,-0.025,-0.175
5498,-0.025,-0.180
5499,-0.005,-0.170
5500,-0.025,-0.175
5501,-0.035,-0.180
5502,-0.030,-0.165
5503,-0.015,-0.165
5504,-0.020,-0.170
5505,-0.015,-0.150
5506,-0.030,-0.150
5507,-0.030,-0.115
5508,-0.025,-0.105
5509,-0.015,-0.050
5510,0.000,-0.045
5511,-0.005,-0.045
5512,0.005,-0.055
5513,-0.005,-0.075
5514,-0.005,-0.090
5515,-0.025,-0.135
5516,-0.020,-0.195
5517,-0.030,-0.220
5518,-0.020,-0.220
5519,-0.035,-0.205
5520,-0.010,-0.205
5521,-0.030,-0.180
5522,-0.015,-0.185
5523,-0.005,-0.180
5524,-0.020,-0.175
5525,-0.025,-0.180
5526,-0.010,-0.165
5527,-0.015,-0.155
5528,0.000,-0.150
5529,0.000,-0.140
5530,0.000,-0.185
5531,0.000,-0.340
5532,0.005,-0.525
5533,0.110,-0.265
5534,0.195,0.050
5535,0.115,0.490
5536,-0.250,0.720
5537,-0.590,0.735
5538,-0.460,0.375
5539,-0.195,0.075
5540,-0.025,-0.100
5541,-0.010,-0.185
5542,0.005,-0.190
5543,0.015,-0.175
5544,0.020,-0.170
5545,0.035,-0.170
5546,0.040,-0.160
5547,0.045,-0.160
5548,0.040,-0.165
5549,0.035,-0.140
5550,0.060,-0.160
5551,0.055,-0.145
5552,0.065,-0.145
5553,0.060,-0.135
5554,0.070,-0.115
5555,0.090,-0.130
5556,0.090,-0.120
5557,0.105,-0.125
5558,0.110,-0.100
5559,0.130,-0.090
5560,0.105,-0.075
5561,0.110,-0.060
5562,0.120,-0.045
5563,0.125,-0.020
5564,0.120,-0.020
5565,0.105,-0.015
5566,0.080,-0.020
5567,0.055,-0.030
5568,0.055,-0.045
5569,0.040,-0.055
5570,0.005,-0.060
5571,0.010,-0.080
5572,0.000,-0.100
5573,0.005,-0.115
5574,-0.010,-0.125
5575,-0.005,-0.115
5576,-0.010,-0.120
5577,-0.020,-0.125
5578,-0.015,-0.125
5579,0.000,-0.120
5580,-0.015,-0.110
5581,0.000,-0.130
5582,-0.005,-0.125
5583,0.000,-0.135
5584,0.000,-0.130
5585,0.000,-0.140
5586,0.000,-0.130
5587,-0.020,-0.130
5588,-0.010,-0.130
5589,0.000,-0.130
5590,0.000,-0.145
5591,-0.005,-0.145
5592,0.000,-0.150
5593,0.000,-0.125
5594,-0.005,-0.135
5595,-0.010,-0.135
5596,-0.005,-0.105
5597,0.000,-0.080
5598,-0.005,-0.070
5599,0.000,-0.035
5600,0.015,-0.025
5601,0.000,-0.005
5602,0.005,-0.035
5603,0.000,-0.050
5604,0.000,-0.080
5605,-0.010,-0.115
5606,0.000,-0.180
5607,0.000,-0.200
5608,-0.010,-0.205
5609,-0.020,-0.200
5610,-0.025,-0.180
5611,-0.005,-0.180
5612,-0.015,-0.155
5613,-0.015,-0.160
5614,-0.010,-0.170
5615,0.000,-0.165
5616,-0.005,-0.165
5617,-0.005,-0.155
5618,-0.020,-0.170
5619,-0.025,-0.155
5620,-0.020,-0.160
5621,-0.010,-0.310
5622,0.000,-0.490
5623,0.115,-0.280
5624,0.200,0.015
5625,0.105,0.435
5626,-0.285,0.680
5627,-0.645,0.725
5628,-0.520,0.425
5629,-0.265,0.105
5630,-0.035,-0.075
5631,-0.010,-0.160
5632,0.015,-0.190
5633,0.015,-0.190
5634,0.025,-0.180
5635,0.035,-0.165
5636,0.030,-0.160
5637,0.035,-0.160
5638,0.035,-0.165
5639,0.045,-0.150
5640,0.045,-0.145
5641,0.070,-0.145
5642,0.070,-0.155
5643,0.075,-0.145
5644,0.090,-0.145
5645,0.100,-0.130
5646,0.105,-0.130
5647,0.135,-0.125
5648,0.130,-0.105
5649,0.165,-0.095
5650,0.170,-0.085
5651,0.160,-0.060
5652,0.165,-0.040
5653,0.155,-0.025
5654,0.155,-0.020
5655,0.150,0.000
5656,0.130,0.005
5657,0.125,-0.010
5658,0.110,-0.020
5659,0.095,-0.050
5660,0.050,-0.060
5661,0.035,-0.075
5662,0.030,-0.075
5663,0.025,-0.095
5664,0.025,-0.090
5665,0.030,-0.100
5666,0.015,-0.095
5667,0.025,-0.110
5668,0.020,-0.120
5669,0.005,-0.110
5670,0.015,-0.105
5671,0.005,-0.110
5672,0.020,-0.115
5673,0.000,-0.095
5674,0.020,-0.110
5675,0.020,-0.115
5676,0.020,-0.115
5677,0.040,-0.125
5678,0.010,-0.120
5679,0.030,-0.115
5680,0.015,-0.125
5681,0.035,-0.105
5682,0.030,-0.120
5683,0.020,-0.125
5684,0.015,-0.105
5685,0.010,-0.095
5686,0.025,-0.075
5687,0.010,-0.060
5688,0.010,-0.030
5689,0.030,-0.005
5690,0.040,0.000
5691,0.060,0.010
5692,0.045,-0.025
5693,0.040,-0.050
5694,0.020,-0.095
5695,0.020,-0.135
5696,0.000,-0.195
5697,0.000,-0.190
5698,0.000,-0.185
5699,-0.015,-0.200
5700,0.000,-0.170
5701,0.000,-0.170
5702,0.000,-0.160
5703,0.000,-0.175
5704,-0.005,-0.170
5705,-0.005,-0.170
5706,0.000,-0.170
5707,0.005,-0.160
5708,0.000,-0.155
5709,-0.005,-0.150
5710,0.005,-0.160
5711,0.000,-0.300
5712,0.015,-0.520
5713,0.095,-0.335
5714,0.185,-0.035
5715,0.130,0.350
5716,-0.225,0.660
5717,-0.645,0.710
5718,-0.565,0.415
5719,-0.275,0.100
5720,-0.070,-0.075
5721,-0.035,-0.180
5722,-0.020,-0.200
5723,0.005,-0.190
5724,0.025,-0.185
5725,0.015,-0.190
5726,0.035,-0.185
5727,0.060,-0.180
5728,0.050,-0.185
5729,0.030,-0.190
5730,0.030,-0.180
5731,0.060,-0.170
5732,0.065,-0.170
5733,0.085,-0.160
5734,0.080,-0.160
5735,0.085,-0.155
5736,0.095,-0.160
5737,0.115,-0.135
5738,0.125,-0.135
5739,0.125,-0.135
5740,0.145,-0.110
5741,0.155,-0.095
5742,0.150,-0.075
5743,0.150,-0.060
5744,0.140,-0.055
5745,0.120,-0.060
5746,0.100,-0.045
5747,0.070,-0.050
5748,0.065,-0.075
5749,0.035,-0.090
5750,0.015,-0.105
5751,0.010,-0.105
5752,0.005,-0.130
5753,-0.005,-0.140
5754,-0.015,-0.145
5755,-0.015,-0.150
5756,-0.030,-0.140
5757,-0.020,-0.140
5758,-0.030,-0.145
5759,-0.005,-0.150
5760,-0.010,-0.140
5761,-0.010,-0.150
5762,0.000,-0.150
5763,-0.010,-0.160
5764,0.000,-0.160
5765,0.000,-0.160
5766,0.000,-0.170
5767,0.005,-0.165
5768,0.000,-0.160
5769,0.000,-0.165
5770,0.000,-0.175
5771,0.000,-0.165
5772,0.005,-0.165
5773,-0.005,-0.155
5774,0.000,-0.140
5775,-0.005,-0.130
5776,0.000,-0.100
5777,0.000,-0.095
5778,0.015,-0.065
5779,0.010,-0.045
5780,0.000,-0.030
5781,0.035,-0.040
5782,0.010,-0.050
5783,0.000,-0.080
5784,-0.005,-0.115
5785,0.000,-0.150
5786,0.005,-0.210
5787,0.005,-0.235
5788,-0.015,-0.230
5789,-0.025,-0.215
5790,-0.020,-0.210
5791,-0.015,-0.195
5792,-0.020,-0.185
5793,-0.015,-0.185
5794,-0.020,-0.190
5795,-0.020,-0.180
5796,0.000,-0.200
5797,-0.020,-0.175
5798,-0.035,-0.185
5799,-0.020,-0.175
5800,-0.020,-0.175
5801,-0.015,-0.300
5802,0.000,-0.550
5803,0.075,-0.325
5804,0.185,-0.065
5805,0.115,0.330
5806,-0.240,0.635
5807,-0.645,0.700
5808,-0.575,0.415
5809,-0.280,0.090
5810,-0.065,-0.070
5811,-0.030,-0.200
5812,-0.020,-0.220
5813,0.000,-0.210
5814,0.010,-0.205
5815,0.010,-0.200
5816,0.005,-0.210
5817,0.015,-0.190
5818,0.025,-0.190
5819,0.025,-0.185
5820,0.035,-0.190
5821,0.035,-0.210
5822,0.020,-0.200
5823,0.055,-0.190
5824,0.050,-0.200
5825,0.045,-0.185
5826,0.050,-0.190
5827,0.065,-0.165
5828,0.085,-0.155
5829,0.090,-0.150
5830,0.105,-0.145
5831,0.100,-0.125
5832,0.095,-0.115
5833,0.090,-0.100
5834,0.080,-0.080
5835,0.070,-0.075
5836,0.055,-0.065
5837,0.050,-0.085
5838,0.025,-0.105
5839,0.000,-0.115
5840,-0.020,-0.155
5841,-0.045,-0.155
5842,-0.055,-0.185
5843,-0.060,-0.180
5844,-0.065,-0.170
5845,-0.070,-0.195
5846,-0.070,-0.190
5847,-0.070,-0.195
5848,-0.075,-0.195
5849,-0.060,-0.200
5850,-0.070,-0.195
5851,-0.055,-0.205
5852,-0.065,-0.205
5853,-0.070,-0.190
5854,-0.065,-0.200
5855,-0.050,-0.195
5856,-0.060,-0.215
5857,-0.060,-0.225
5858,-0.040,-0.220
5859,-0.060,-0.225
5860,-0.065,-0.220
5861,-0.055,-0.220
5862,-0.070,-0.205
5863,-0.045,-0.210
5864,-0.050,-0.200
5865,-0.055,-0.220
5866,-0.050,-0.185
5867,-0.070,-0.155
5868,-0.060,-0.150
5869,-0.065,-0.110
5870,-0.050,-0.100
5871,-0.040,-0.100
5872,-0.030,-0.125
5873,-0.045,-0.145
5874,-0.055,-0.175
5875,-0.060,-0.210
5876,-0.065,-0.270
5877,-0.070,-0.310
5878,-0.085,-0.300
5879,-0.085,-0.285
5880,-0.080,-0.275
5881,-0.075,-0.270
5882,-0.080,-0.275
5883,-0.090,-0.275
5884,-0.085,-0.275
5885,-0.095,-0.270
5886,-0.085,-0.260
5887,-0.080,-0.265
5888,-0.100,-0.260
5889,-0.080,-0.255
5890,-0.080,-0.250
5891,-0.080,-0.270
5892,-0.055,-0.500
5893,-0.050,-0.610
5894,0.060,-0.290
5895,0.130,0.035
5896,0.000,0.490
5897,-0.380,0.660
5898,-0.670,0.645
5899,-0.505,0.235
5900,-0.235,-0.025
5901,-0.075,-0.200
5902,-0.070,-0.260
5903,-0.040,-0.280
5904,-0.025,-0.255
5905,-0.015,-0.240
5906,0.000,-0.240
5907,-0.005,-0.245
5908,0.000,-0.235
5909,-0.005,-0.230
5910,0.000,-0.230
5911,0.000,-0.235
5912,0.000,-0.210
5913,0.030,-0.220
5914,0.020,-0.205
5915,0.040,-0.200
5916,0.055,-0.215
5917,0.050,-0.195
5918,0.070,-0.185
5919,0.075,-0.160
5920,0.070,-0.170
5921,0.080,-0.145
5922,0.080,-0.135
5923,0.080,-0.110
5924,0.085,-0.110
5925,0.070,-0.095
5926,0.065,-0.095
5927,0.050,-0.090
5928,0.025,-0.100
5929,0.015,-0.105
5930,-0.005,-0.125
5931,-0.015,-0.135
5932,-0.030,-0.150
5933,-0.030,-0.160
5934,-0.035,-0.175
5935,-0.045,-0.185
5936,-0.055,-0.190
5937,-0.050,-0.185
5938,-0.040,-0.180
5939,-0.060,-0.185
5940,-0.040,-0.175
5941,-0.030,-0.170
5942,-0.035,-0.150
5943,-0.025,-0.180
5944,-0.025,-0.170
5945,-0.025,-0.190
5946,-0.025,-0.175
5947,-0.020,-0.170
5948,-0.015,-0.160
5949,-0.020,-0.175
5950,-0.020,-0.175
5951,-0.010,-0.175
5952,-0.020,-0.190
5953,-0.020,-0.175
5954,-0.015,-0.180
5955,-0.035,-0.185
5956,-0.030,-0.155
5957,-0.025,-0.135
5958,-0.020,-0.115
5959,-0.010,-0.090
5960,-0.010,-0.080
5961,-0.020,-0.060
5962,-0.015,-0.040
5963,-0.010,-0.055
5964,-0.015,-0.100
5965,-0.025,-0.110
5966,-0.045,-0.140
5967,-0.035,-0.190
5968,-0.045,-0.255
5969,-0.060,-0.255
5970,-0.060,-0.245
5971,-0.055,-0.235
5972,-0.050,-0.230
5973,-0.060,-0.225
5974,-0.060,-0.215
5975,-0.060,-0.230
5976,-0.055,-0.195
5977,-0.050,-0.210
5978,-0.055,-0.220
5979,-0.065,-0.205
5980,-0.065,-0.205
5981,-0.075,-0.195
5982,-0.070,-0.210
5983,-0.055,-0.385
5984,-0.035,-0.535
5985,0.065,-0.290
5986,0.140,-0.015
5987,0.005,0.415
5988,-0.350,0.640
5989,-0.695,0.675
5990,-0.550,0.335
5991,-0.280,0.050
5992,-0.075,-0.130
5993,-0.060,-0.210
5994,-0.040,-0.235
5995,-0.015,-0.225
5996,0.005,-0.220
5997,0.000,-0.215
5998,0.000,-0.210
5999,0.000,-0.200
6000,0.020,-0.195
6001,0.015,-0.190
6002,0.020,-0.195
6003,0.025,-0.195
6004,0.030,-0.185
6005,0.035,-0.195
6006,0.035,-0.180
6007,0.050,-0.185
6008,0.060,-0.165
6009,0.080,-0.150
6010,0.090,-0.140
6011,0.095,-0.135
6012,0.095,-0.115
6013,0.115,-0.095
6014,0.100,-0.100
6015,0.090,-0.070
6016,0.095,-0.060
6017,0.080,-0.050
6018,0.075,-0.040
6019,0.060,-0.040
6020,0.020,-0.060
6021,0.010,-0.085
6022,-0.010,-0.115
6023,-0.025,-0.125
6024,-0.030,-0.135
6025,-0.035,-0.130
6026,-0.035,-0.135
6027,-0.045,-0.130
6028,-0.040,-0.150
6029,-0.040,-0.145
6030,-0.030,-0.145
6031,-0.040,-0.145
6032,-0.035,-0.130
6033,-0.025,-0.150
6034,-0.035,-0.135
6035,-0.035,-0.125
6036,-0.020,-0.140
6037,-0.020,-0.130
6038,0.000,-0.125
6039,-0.010,-0.140
6040,-0.005,-0.150
6041,-0.010,-0.145
6042,-0.015,-0.135
6043,-0.005,-0.135
6044,0.000,-0.125
6045,0.000,-0.135
6046,-0.010,-0.135
6047,-0.015,-0.130
6048,-0.010,-0.115
6049,-0.005,-0.090
6050,-0.010,-0.065
6051,0.000,-0.030
6052,0.000,-0.015
6053,0.000,0.000
6054,0.020,-0.005
6055,0.025,-0.030
6056,0.000,-0.050
6057,-0.010,-0.100
6058,-0.030,-0.155
6059,-0.020,-0.205
6060,-0.030,-0.210
6061,-0.025,-0.180
6062,-0.020,-0.170
6063,-0.025,-0.175
6064,-0.030,-0.160
6065,-0.025,-0.160
6066,-0.035,-0.165
6067,-0.035,-0.165
6068,-0.030,-0.165
6069,-0.030,-0.150
6070,-0.020,-0.135
6071,-0.030,-0.135
6072,-0.010,-0.130
6073,-0.025,-0.140
6074,-0.035,-0.230
6075,-0.015,-0.465
6076,0.035,-0.385
6077,0.160,-0.090
6078,0.130,0.215
6079,-0.145,0.655
6080,-0.580,0.725
6081,-0.655,0.595
6082,-0.370,0.205
6083,-0.145,0.005
6084,-0.065,-0.125
6085,-0.035,-0.190
6086,-0.010,-0.175
6087,0.005,-0.160
6088,0.010,-0.150
6089,0.015,-0.150
6090,0.025,-0.150
6091,0.020,-0.140
6092,0.030,-0.135
6093,0.025,-0.145
6094,0.035,-0.145
6095,0.055,-0.140
6096,0.040,-0.130
6097,0.065,-0.140
6098,0.070,-0.130
6099,0.075,-0.135
6100,0.080,-0.120
6101,0.090,-0.110
6102,0.085,-0.110
6103,0.100,-0.085
6104,0.125,-0.070
6105,0.120,-0.050
6106,0.120,-0.030
6107,0.100,-0.025
6108,0.090,-0.010
6109,0.085,-0.020
6110,0.060,-0.015
6111,0.030,-0.040
6112,0.010,-0.050
6113,0.010,-0.060
6114,-0.010,-0.075
6115,-0.005,-0.085
6116,-0.040,-0.100
6117,-0.015,-0.105
6118,-0.020,-0.110
6119,-0.040,-0.105
6120,-0.040,-0.115
6121,-0.035,-0.115
6122,-0.035,-0.110
6123,-0.045,-0.120
6124,-0.015,-0.110
6125,-0.005,-0.135
6126,-0.010,-0.125
6127,-0.020,-0.130
6128,-0.015,-0.140
6129,-0.015,-0.140
6130,-0.025,-0.140
6131,-0.010,-0.145
6132,-0.020,-0.150
6133,-0.015,-0.135
6134,-0.015,-0.150
6135,-0.025,-0.155
6136,-0.025,-0.150
6137,-0.035,-0.160
6138,-0.035,-0.140
6139,-0.035,-0.150
6140,-0.030,-0.135
6141,-0.020,-0.105
6142,-0.025,-0.090
6143,-0.010,-0.070
6144,-0.020,-0.055
6145,-0.025,-0.030
6146,-0.005,-0.015
6147,0.000,-0.030
6148,-0.015,-0.050
6149,-0.010,-0.095
6150,-0.015,-0.130
6151,-0.030,-0.205
6152,-0.030,-0.220
6153,-0.040,-0.210
6154,-0.050,-0.205
6155,-0.045,-0.185
6156,-0.040,-0.180
6157,-0.045,-0.170
6158,-0.035,-0.185
6159,-0.045,-0.170
6160,-0.035,-0.175
6161,-0.045,-0.170
6162,-0.050,-0.175
6163,-0.040,-0.160
6164,-0.035,-0.145
6165,-0.040,-0.140
6166,-0.025,-0.195
6167,-0.020,-0.425
6168,0.035,-0.450
6169,0.155,-0.155
6170,0.175,0.120
6171,-0.045,0.560
6172,-0.505,0.705
6173,-0.665,0.635
6174,-0.410,0.255
6175,-0.135,0.035
6176,-0.045,-0.115
6177,-0.015,-0.185
6178,0.000,-0.185
6179,0.020,-0.170
6180,0.025,-0.160
6181,0.030,-0.150
6182,0.020,-0.140
6183,0.035,-0.130
6184,0.030,-0.140
6185,0.045,-0.140
6186,0.055,-0.155
6187,0.060,-0.140
6188,0.055,-0.130
6189,0.055,-0.140
6190,0.075,-0.130
6191,0.090,-0.120
6192,0.090,-0.105
6193,0.125,-0.105
6194,0.120,-0.095
6195,0.130,-0.080
6196,0.125,-0.075
6197,0.120,-0.055
6198,0.135,-0.035
6199,0.125,-0.015
6200,0.100,-0.015
6201,0.100,0.000
6202,0.090,-0.010
6203,0.070,-0.025
6204,0.045,-0.055
6205,0.025,-0.060
6206,0.000,-0.070
6207,0.000,-0.090
6208,-0.005,-0.100
6209,-0.025,-0.115
6210,-0.015,-0.110
6211,-0.025,-0.125
6212,-0.025,-0.130
6213,-0.020,-0.125
6214,-0.025,-0.130
6215,-0.035,-0.145
6216,-0.025,-0.110
6217,-0.025,-0.110
6218,-0.025,-0.125
6219,-0.005,-0.125
6220,-0.020,-0.120
6221,-0.010,-0.140
6222,-0.020,-0.140
6223,-0.025,-0.155
6224,-0.015,-0.150
6225,-0.020,-0.145
6226,-0.020,-0.140
6227,-0.025,-0.150
6228,-0.030,-0.155
6229,-0.015,-0.150
6230,-0.025,-0.150
6231,-0.015,-0.165
6232,-0.040,-0.160
6233,-0.040,-0.135
6234,-0.040,-0.100
6235,-0.035,-0.080
6236,-0.040,-0.070
6237,-0.025,-0.050
6238,-0.015,-0.020
6239,-0.025,-0.050
6240,-0.035,-0.090
6241,-0.045,-0.105
6242,-0.055,-0.145
6243,-0.060,-0.205
6244,-0.075,-0.225
6245,-0.070,-0.225
6246,-0.055,-0.215
6247,-0.060,-0.215
6248,-0.070,-0.220
6249,-0.095,-0.215
6250,-0.085,-0.210
6251,-0.075,-0.200
6252,-0.060,-0.205
6253,-0.060,-0.200
6254,-0.035,-0.200
6255,-0.045,-0.180
6256,-0.040,-0.185
6257,-0.045,-0.185
6258,-0.060,-0.240
6259,-0.030,-0.470
6260,-0.010,-0.550
6261,0.115,-0.205
6262,0.170,0.110
6263,0.020,0.545
6264,-0.370,0.705
6265,-0.660,0.670
6266,-0.475,0.260
6267,-0.200,-0.005
6268,-0.060,-0.160
6269,-0.050,-0.210
6270,-0.025,-0.220
6271,-0.005,-0.210
6272,0.015,-0.200
6273,0.000,-0.215
6274,0.000,-0.205
6275,0.000,-0.195
6276,-0.010,-0.205
6277,0.000,-0.185
6278,0.005,-0.180
6279,0.015,-0.180
6280,0.035,-0.180
6281,0.045,-0.175
6282,0.040,-0.185
6283,0.060,-0.170
6284,0.055,-0.175
6285,0.075,-0.160
6286,0.085,-0.145
6287,0.095,-0.125
6288,0.095,-0.130
6289,0.100,-0.090
6290,0.100,-0.075
6291,0.095,-0.075
6292,0.075,-0.065
6293,0.060,-0.070
6294,0.060,-0.060
6295,0.060,-0.070
6296,0.035,-0.075
6297,0.020,-0.100
6298,0.005,-0.125
6299,-0.005,-0.135
6300,0.000,-0.145
6301,-0.005,-0.160
6302,0.000,-0.160
6303,-0.010,-0.145
6304,-0.010,-0.150
6305,-0.005,-0.165
6306,-0.005,-0.155
6307,0.000,-0.160
6308,0.000,-0.155
6309,0.000,-0.160
6310,0.000,-0.155
6311,0.005,-0.160
6312,0.000,-0.125
6313,0.000,-0.145
6314,0.000,-0.145
6315,0.010,-0.140
6316,0.010,-0.145
6317,-0.005,-0.145
6318,0.000,-0.145
6319,0.000,-0.150
6320,0.000,-0.145
6321,0.000,-0.145
6322,0.010,-0.145
6323,0.015,-0.135
6324,0.000,-0.140
6325,0.000,-0.120
6326,-0.005,-0.090
6327,0.005,-0.080
6328,0.000,-0.045
6329,0.015,-0.020
6330,0.010,-0.010
6331,0.040,-0.025
6332,0.025,-0.055
6333,0.005,-0.085
6334,0.010,-0.115
6335,0.000,-0.180
6336,-0.005,-0.200
6337,0.000,-0.210
6338,-0.005,-0.190
6339,-0.005,-0.185
6340,-0.015,-0.180
6341,0.000,-0.165
6342,0.005,-0.165
6343,-0.005,-0.155
6344,-0.005,-0.175
6345,-0.020,-0.165
6346,-0.020,-0.155
6347,-0.010,-0.150
6348,0.000,-0.135
6349,-0.005,-0.140
6350,-0.005,-0.170
6351,0.000,-0.350
6352,0.030,-0.500
6353,0.125,-0.210
6354,0.210,0.070
6355,0.070,0.540
6356,-0.330,0.700
6357,-0.650,0.755
6358,-0.470,0.345
6359,-0.200,0.065
6360,-0.035,-0.100
6361,0.000,-0.185
6362,-0.005,-0.200
6363,0.025,-0.190
6364,0.040,-0.175
6365,0.035,-0.165
6366,0.045,-0.160
6367,0.055,-0.155
6368,0.055,-0.170
6369,0.045,-0.150
6370,0.060,-0.165
6371,0.050,-0.155
6372,0.075,-0.160
6373,0.075,-0.155
6374,0.100,-0.135
6375,0.105,-0.140
6376,0.115,-0.125
6377,0.120,-0.130
6378,0.130,-0.130
6379,0.145,-0.115
6380,0.150,-0.095
6381,0.140,-0.055
6382,0.165,-0.055
6383,0.165,-0.030
6384,0.165,-0.025
6385,0.145,-0.015
6386,0.135,-0.020
6387,0.105,-0.030
6388,0.090,-0.055
6389,0.065,-0.060
6390,0.050,-0.085
6391,0.025,-0.100
6392,0.035,-0.105
6393,0.010,-0.120
6394,0.020,-0.120
6395,0.015,-0.130
6396,0.005,-0.150
6397,0.005,-0.120
6398,0.015,-0.115
6399,0.020,-0.135
6400,0.030,-0.135
6401,0.025,-0.125
6402,0.015,-0.135
6403,0.025,-0.135
6404,0.025,-0.135
6405,0.025,-0.145
6406,0.035,-0.140
6407,0.020,-0.115
6408,0.025,-0.120
6409,0.040,-0.115
6410,0.035,-0.135
6411,0.035,-0.140
6412,0.030,-0.135
6413,0.040,-0.130
6414,0.025,-0.140
6415,0.030,-0.135
6416,0.025,-0.110
6417,0.035,-0.105
6418,0.035,-0.080
6419,0.040,-0.055
6420,0.035,-0.045
6421,0.045,-0.010
6422,0.045,-0.005
6423,0.045,0.000
6424,0.055,-0.015
6425,0.060,-0.035
6426,0.050,-0.060
6427,0.040,-0.125
6428,0.030,-0.180
6429,0.030,-0.185
6430,0.015,-0.180
6431,0.025,-0.180
6432,0.035,-0.170
6433,0.025,-0.155
6434,0.050,-0.155
6435,0.035,-0.140
6436,0.035,-0.145
6437,0.025,-0.135
6438,0.030,-0.130
6439,0.020,-0.145
6440,0.015,-0.125
6441,0.030,-0.130
6442,0.030,-0.115
6443,0.035,-0.225
6444,0.025,-0.470
6445,0.120,-0.320
6446,0.225,-0.040
6447,0.185,0.340
6448,-0.145,0.680
6449,-0.560,0.770
6450,-0.545,0.550
6451,-0.275,0.190
6452,-0.030,-0.015
6453,0.000,-0.125
6454,0.020,-0.160
6455,0.050,-0.160
6456,0.065,-0.135
6457,0.070,-0.145
6458,0.095,-0.125
6459,0.100,-0.130
6460,0.085,-0.135
6461,0.090,-0.130
6462,0.110,-0.120
6463,0.115,-0.125
6464,0.105,-0.130
6465,0.100,-0.115
6466,0.115,-0.115
6467,0.125,-0.115
6468,0.135,-0.090
6469,0.155,-0.100
6470,0.165,-0.090
6471,0.185,-0.070
6472,0.190,-0.065
6473,0.175,-0.050
6474,0.180,-0.040
6475,0.170,-0.005
6476,0.180,-0.020
6477,0.160,0.000
6478,0.160,0.000
6479,0.140,0.000
6480,0.125,-0.010
6481,0.110,-0.045
6482,0.050,-0.060
6483,0.050,-0.095
6484,0.040,-0.080
6485,0.040,-0.095
6486,0.035,-0.100
6487,0.035,-0.105
6488,0.025,-0.135
6489,0.020,-0.125
6490,0.005,-0.115
6491,0.015,-0.135
6492,0.000,-0.125
6493,0.020,-0.135
6494,0.025,-0.120
6495,0.025,-0.120
6496,0.015,-0.105
6497,0.030,-0.125
6498,0.030,-0.130
6499,0.020,-0.130
6500,0.005,-0.145
6501,0.025,-0.130
6502,0.035,-0.115
6503,0.025,-0.130
6504,0.020,-0.115
6505,0.015,-0.140
6506,0.025,-0.130
6507,0.020,-0.130
6508,0.020,-0.135
6509,0.015,-0.135
6510,0.010,-0.100
6511,0.015,-0.065
6512,0.015,-0.055
6513,0.040,-0.025
6514,0.050,-0.020
6515,0.040,0.000
6516,0.050,0.000
6517,0.045,-0.030
6518,0.025,-0.055
6519,0.010,-0.075
6520,0.015,-0.130
6521,0.015,-0.175
6522,0.015,-0.185
6523,0.000,-0.170
6524,0.000,-0.160
6525,0.000,-0.160
6526,0.000,-0.170
6527,0.000,-0.150
6528,0.005,-0.160
6529,0.000,-0.150
6530,0.025,-0.140
6531,0.020,-0.145
6532,0.000,-0.130
6533,0.005,-0.140
6534,0.000,-0.135
6535,0.000,-0.150
6536,0.010,-0.245
6537,0.025,-0.455
6538,0.090,-0.340
6539,0.205,-0.065
6540,0.175,0.285
6541,-0.130,0.645
6542,-0.570,0.730
6543,-0.580,0.505
6544,-0.275,0.155
6545,-0.065,-0.025
6546,0.000,-0.125
6547,0.025,-0.190
6548,0.040,-0.155
6549,0.065,-0.155
6550,0.075,-0.150
6551,0.070,-0.145
6552,0.075,-0.150
6553,0.080,-0.125
6554,0.085,-0.135
6555,0.080,-0.140
6556,0.100,-0.115
6557,0.120,-0.125
6558,0.115,-0.120
6559,0.110,-0.125
6560,0.120,-0.120
6561,0.125,-0.105
6562,0.165,-0.075
6563,0.170,-0.070
6564,0.170,-0.075
6565,0.185,-0.040
6566,0.190,-0.050
6567,0.180,-0.015
6568,0.195,-0.005
6569,0.170,0.000
6570,0.180,0.005
6571,0.150,0.015
6572,0.120,0.010
6573,0.135,-0.005
6574,0.090,-0.020
6575,0.080,-0.035
6576,0.055,-0.065
6577,0.040,-0.085
6578,0.020,-0.095
6579,0.025,-0.075
6580,0.020,-0.085
6581,0.015,-0.095
6582,0.015,-0.085
6583,0.030,-0.095
6584,0.035,-0.105
6585,0.020,-0.105
6586,0.015,-0.100
6587,0.010,-0.105
6588,0.020,-0.095
6589,0.035,-0.100
6590,0.020,-0.100
6591,0.055,-0.100
6592,0.030,-0.115
6593,0.040,-0.090
6594,0.030,-0.110
6595,0.020,-0.105
6596,0.025,-0.115
6597,0.025,-0.130
6598,0.010,-0.110
6599,0.025,-0.120
6600,0.010,-0.110
6601,0.015,-0.110
6602,0.000,-0.115
6603,0.025,-0.090
6604,0.015,-0.075
6605,0.020,-0.060
6606,0.020,-0.025
6607,0.035,-0.005
6608,0.050,0.005
6609,0.045,0.005
