'sample interval','ECG0','ECG1'
'0.0078125 sec','mV','mV'
0,-0.115,-0.265
1,-0.120,-0.225
2,-0.105,-0.240
3,-0.120,-0.225
4,-0.120,-0.235
5,-0.110,-0.245
6,-0.120,-0.240
7,-0.095,-0.375
8,-0.080,-0.580
9,0.040,-0.365
10,0.160,-0.045
11,0.055,0.505
12,-0.465,0.730
13,-0.995,0.695
14,-0.840,0.340
15,-0.445,0.005
16,-0.165,-0.190
17,-0.100,-0.275
18,-0.070,-0.300
19,-0.040,-0.290
20,-0.025,-0.270
21,-0.015,-0.295
22,-0.025,-0.275
23,-0.015,-0.285
24,-0.015,-0.265
25,0.000,-0.270
26,0.000,-0.265
27,0.025,-0.260
28,0.020,-0.255
29,0.035,-0.265
30,0.060,-0.260
31,0.090,-0.275
32,0.090,-0.260
33,0.110,-0.255
34,0.120,-0.235
35,0.145,-0.200
36,0.140,-0.185
37,0.130,-0.155
38,0.115,-0.155
39,0.130,-0.125
40,0.105,-0.120
41,0.085,-0.110
42,0.075,-0.120
43,0.010,-0.135
44,0.000,-0.165
45,-0.015,-0.185
46,-0.015,-0.205
47,-0.050,-0.205
48,-0.055,-0.220
49,-0.050,-0.230
50,-0.050,-0.215
51,-0.050,-0.215
52,-0.060,-0.215
53,-0.040,-0.215
54,-0.050,-0.220
55,-0.030,-0.215
56,-0.025,-0.230
57,-0.045,-0.230
58,-0.040,-0.220
59,-0.020,-0.200
60,-0.010,-0.210
61,-0.015,-0.200
62,0.000,-0.220
63,-0.010,-0.220
64,-0.010,-0.210
65,-0.030,-0.200
66,-0.015,-0.185
67,-0.020,-0.140
68,0.000,-0.130
69,-0.010,-0.095
70,0.015,-0.070
71,0.015,-0.080
72,0.015,-0.100
73,0.005,-0.140
74,-0.015,-0.160
75,-0.005,-0.180
76,-0.010,-0.225
77,-0.015,-0.275
78,-0.010,-0.260
79,-0.020,-0.255
80,-0.005,-0.255
81,-0.025,-0.250
82,-0.020,-0.240
83,-0.030,-0.245
84,-0.015,-0.230
85,-0.015,-0.220
86,-0.025,-0.220
87,-0.010,-0.210
88,-0.010,-0.200
89,-0.005,-0.200
90,-0.015,-0.215
91,-0.010,-0.390
92,0.010,-0.580
93,0.140,-0.330
94,0.255,0.035
95,0.070,0.615
96,-0.500,0.770
97,-0.910,0.735
98,-0.670,0.350
99,-0.320,0.045
100,-0.050,-0.145
101,0.000,-0.245
102,0.025,-0.260
103,0.035,-0.260
104,0.060,-0.235
105,0.065,-0.230
106,0.065,-0.240
107,0.070,-0.245
108,0.075,-0.240
109,0.060,-0.230
110,0.085,-0.230
111,0.085,-0.220
112,0.115,-0.230
113,0.130,-0.215
114,0.140,-0.230
115,0.170,-0.220
116,0.180,-0.215
117,0.200,-0.205
118,0.210,-0.185
119,0.210,-0.155
120,0.215,-0.145
121,0.220,-0.110
122,0.210,-0.105
123,0.195,-0.080
124,0.195,-0.085
125,0.160,-0.080
126,0.130,-0.080
127,0.095,-0.100
128,0.065,-0.115
129,0.040,-0.145
130,0.025,-0.150
131,0.025,-0.140
132,0.010,-0.155
133,0.010,-0.180
134,0.000,-0.185
135,0.000,-0.180
136,0.005,-0.180
137,0.005,-0.175
138,0.000,-0.185
139,0.020,-0.180
140,0.005,-0.170
141,0.010,-0.185
142,0.010,-0.190
143,0.000,-0.195
144,0.025,-0.190
145,0.015,-0.185
146,0.015,-0.175
147,0.015,-0.180
148,0.030,-0.185
149,0.015,-0.160
150,0.020,-0.150
151,0.025,-0.120
152,0.020,-0.125
153,0.045,-0.070
154,0.050,-0.050
155,0.055,-0.055
156,0.065,-0.105
157,0.050,-0.115
158,0.030,-0.150
159,0.035,-0.205
160,0.025,-0.260
161,0.020,-0.255
162,0.010,-0.250
163,0.020,-0.240
164,0.010,-0.235
165,0.010,-0.215
166,0.025,-0.220
167,0.015,-0.210
168,0.020,-0.215
169,0.030,-0.235
170,0.035,-0.195
171,0.050,-0.195
172,0.040,-0.190
173,0.045,-0.200
174,0.055,-0.285
175,0.070,-0.525
176,0.160,-0.445
177,0.300,-0.140
178,0.245,0.415
179,-0.220,0.795
180,-0.780,0.770
181,-0.735,0.545
182,-0.375,0.165
183,-0.070,-0.070
184,0.040,-0.205
185,0.070,-0.245
186,0.090,-0.240
187,0.100,-0.220
188,0.120,-0.225
189,0.135,-0.215
190,0.145,-0.210
191,0.155,-0.200
192,0.165,-0.195
193,0.175,-0.210
194,0.170,-0.205
195,0.195,-0.215
196,0.220,-0.205
197,0.235,-0.195
198,0.240,-0.200
199,0.270,-0.170
200,0.305,-0.170
201,0.310,-0.150
202,0.325,-0.130
203,0.330,-0.105
204,0.325,-0.075
205,0.325,-0.050
206,0.325,-0.025
207,0.310,-0.020
208,0.285,-0.005
209,0.270,-0.015
210,0.235,-0.040
211,0.205,-0.045
212,0.165,-0.070
213,0.155,-0.070
214,0.140,-0.075
215,0.125,-0.080
216,0.155,-0.095
217,0.120,-0.080
218,0.125,-0.095
219,0.135,-0.110
220,0.130,-0.090
221,0.140,-0.100
222,0.140,-0.105
223,0.145,-0.085
224,0.160,-0.095
225,0.165,-0.090
226,0.165,-0.100
227,0.175,-0.095
228,0.175,-0.095
229,0.185,-0.100
230,0.200,-0.115
231,0.180,-0.095
232,0.190,-0.075
233,0.175,-0.045
234,0.180,-0.035
235,0.175,-0.025
236,0.195,0.000
237,0.195,0.010
238,0.200,0.005
239,0.195,-0.010
240,0.175,-0.055
241,0.185,-0.085
242,0.180,-0.115
243,0.165,-0.170
244,0.165,-0.200
245,0.150,-0.190
246,0.150,-0.190
247,0.135,-0.190
248,0.160,-0.165
249,0.155,-0.160
250,0.150,-0.170
251,0.160,-0.175
252,0.165,-0.175
253,0.165,-0.165
254,0.170,-0.170
255,0.140,-0.155
256,0.155,-0.150
257,0.180,-0.200
258,0.185,-0.415
259,0.255,-0.480
260,0.395,-0.200
261,0.425,0.270
262,0.070,0.805
263,-0.535,0.805
264,-0.700,0.705
265,-0.375,0.315
266,-0.015,0.025
267,0.175,-0.135
268,0.215,-0.215
269,0.235,-0.205
270,0.260,-0.220
271,0.290,-0.195
272,0.290,-0.185
273,0.295,-0.190
274,0.315,-0.195
275,0.315,-0.190
276,0.320,-0.215
277,0.340,-0.200
278,0.350,-0.220
279,0.375,-0.205
280,0.385,-0.200
281,0.410,-0.190
282,0.450,-0.200
283,0.460,-0.185
284,0.490,-0.180
285,0.500,-0.155
286,0.500,-0.135
287,0.495,-0.125
288,0.485,-0.095
289,0.490,-0.065
290,0.475,-0.045
291,0.470,-0.045
292,0.435,-0.040
293,0.395,-0.065
294,0.375,-0.075
295,0.330,-0.095
296,0.310,-0.095
297,0.295,-0.105
298,0.295,-0.105
299,0.275,-0.100
300,0.285,-0.115
301,0.285,-0.115
302,0.295,-0.125
303,0.280,-0.135
304,0.280,-0.140
305,0.300,-0.130
306,0.295,-0.135
307,0.295,-0.130
308,0.325,-0.125
309,0.305,-0.140
310,0.330,-0.135
311,0.315,-0.130
312,0.310,-0.145
313,0.320,-0.135
314,0.310,-0.115
315,0.330,-0.125
316,0.320,-0.105
317,0.315,-0.070
318,0.330,-0.050
319,0.325,-0.015
320,0.340,-0.005
321,0.335,0.000
322,0.360,0.000
323,0.350,-0.040
324,0.340,-0.045
325,0.335,-0.100
326,0.320,-0.140
327,0.310,-0.210
328,0.310,-0.205
329,0.305,-0.185
330,0.300,-0.160
331,0.315,-0.155
332,0.315,-0.150
333,0.330,-0.150
334,0.310,-0.140
335,0.320,-0.140
336,0.320,-0.145
337,0.320,-0.145
338,0.345,-0.125
339,0.330,-0.125
340,0.355,-0.130
341,0.350,-0.330
342,0.375,-0.510
343,0.515,-0.260
344,0.620,0.095
345,0.410,0.685
346,-0.175,0.820
347,-0.590,0.815
348,-0.340,0.450
349,0.010,0.135
350,0.275,-0.095
351,0.330,-0.170
352,0.370,-0.200
353,0.380,-0.180
354,0.405,-0.175
355,0.405,-0.165
356,0.410,-0.140
357,0.420,-0.165
358,0.410,-0.145
359,0.435,-0.155
360,0.430,-0.155
361,0.445,-0.160
362,0.460,-0.160
363,0.475,-0.155
364,0.495,-0.145
365,0.520,-0.130
366,0.540,-0.130
367,0.560,-0.135
368,0.555,-0.115
369,0.565,-0.090
370,0.560,-0.060
371,0.565,-0.040
372,0.545,-0.025
373,0.545,-0.005
374,0.545,0.000
375,0.515,0.000
376,0.490,-0.020
377,0.425,-0.010
378,0.405,-0.055
379,0.370,-0.065
380,0.360,-0.080
381,0.335,-0.085
382,0.325,-0.105
383,0.330,-0.100
384,0.350,-0.120
385,0.320,-0.115
386,0.315,-0.125
387,0.315,-0.115
388,0.315,-0.135
389,0.330,-0.110
390,0.320,-0.120
391,0.315,-0.125
392,0.315,-0.120
393,0.315,-0.140
394,0.310,-0.145
395,0.330,-0.135
396,0.310,-0.135
397,0.300,-0.135
398,0.315,-0.130
399,0.310,-0.105
400,0.305,-0.110
401,0.320,-0.085
402,0.330,-0.060
403,0.315,-0.055
404,0.345,-0.035
405,0.315,-0.010
406,0.330,-0.015
407,0.325,-0.055
408,0.290,-0.070
409,0.295,-0.110
410,0.285,-0.170
411,0.270,-0.230
412,0.275,-0.225
413,0.275,-0.205
414,0.270,-0.210
415,0.265,-0.190
416,0.290,-0.185
417,0.275,-0.185
418,0.280,-0.185
419,0.280,-0.175
420,0.290,-0.190
421,0.275,-0.195
422,0.265,-0.180
423,0.270,-0.180
424,0.285,-0.170
425,0.285,-0.265
426,0.280,-0.540
427,0.380,-0.450
428,0.555,-0.130
429,0.510,0.370
430,0.055,0.790
431,-0.560,0.790
432,-0.595,0.585
433,-0.225,0.225
434,0.100,-0.025
435,0.250,-0.165
436,0.280,-0.235
437,0.320,-0.235
438,0.325,-0.215
439,0.345,-0.200
440,0.370,-0.195
441,0.355,-0.205
442,0.360,-0.185
443,0.360,-0.195
444,0.370,-0.195
445,0.380,-0.195
446,0.390,-0.185
447,0.405,-0.210
448,0.425,-0.190
449,0.465,-0.200
450,0.440,-0.175
451,0.470,-0.160
452,0.490,-0.170
453,0.500,-0.150
454,0.505,-0.125
455,0.515,-0.110
456,0.500,-0.090
457,0.475,-0.070
458,0.465,-0.045
459,0.450,-0.035
460,0.425,-0.035
461,0.400,-0.060
462,0.360,-0.070
463,0.325,-0.090
464,0.320,-0.110
465,0.290,-0.120
466,0.270,-0.130
467,0.275,-0.135
468,0.255,-0.135
469,0.255,-0.135
470,0.265,-0.150
471,0.255,-0.140
472,0.260,-0.140
473,0.250,-0.165
474,0.260,-0.165
475,0.255,-0.155
476,0.245,-0.150
477,0.245,-0.170
478,0.240,-0.135
479,0.260,-0.140
480,0.255,-0.150
481,0.255,-0.150
482,0.240,-0.150
483,0.230,-0.140
484,0.230,-0.125
485,0.215,-0.085
486,0.215,-0.080
487,0.230,-0.050
488,0.235,-0.025
489,0.235,-0.025
490,0.225,-0.025
491,0.230,-0.055
492,0.205,-0.075
493,0.190,-0.135
494,0.190,-0.195
495,0.165,-0.235
496,0.175,-0.225
497,0.140,-0.210
498,0.150,-0.215
499,0.145,-0.205
500,0.150,-0.210
501,0.140,-0.215
502,0.130,-0.200
503,0.115,-0.205
504,0.105,-0.200
505,0.105,-0.205
506,0.105,-0.190
507,0.100,-0.185
508,0.115,-0.185
509,0.115,-0.270
510,0.115,-0.545
511,0.200,-0.515
512,0.365,-0.195
513,0.325,0.265
514,-0.075,0.725
515,-0.730,0.740
516,-0.810,0.575
517,-0.420,0.215
518,-0.100,-0.040
519,0.035,-0.230
520,0.060,-0.295
521,0.085,-0.290
522,0.110,-0.285
523,0.115,-0.280
524,0.110,-0.280
525,0.115,-0.275
526,0.135,-0.265
527,0.130,-0.280
528,0.130,-0.270
529,0.120,-0.280
530,0.135,-0.290
531,0.120,-0.280
532,0.140,-0.295
533,0.165,-0.280
534,0.180,-0.280
535,0.195,-0.270
536,0.220,-0.250
537,0.225,-0.235
538,0.225,-0.215
539,0.210,-0.205
540,0.190,-0.190
541,0.180,-0.165
542,0.160,-0.140
543,0.135,-0.135
544,0.120,-0.135
545,0.075,-0.160
546,0.035,-0.165
547,0.010,-0.185
548,-0.025,-0.225
549,-0.050,-0.225
550,-0.070,-0.220
551,-0.085,-0.240
552,-0.105,-0.225
553,-0.085,-0.235
554,-0.105,-0.235
555,-0.090,-0.250
556,-0.100,-0.245
557,-0.105,-0.230
558,-0.110,-0.255
559,-0.120,-0.245
560,-0.130,-0.270
561,-0.105,-0.250
562,-0.120,-0.235
563,-0.120,-0.235
564,-0.120,-0.230
565,-0.135,-0.240
566,-0.135,-0.235
567,-0.140,-0.245
568,-0.145,-0.210
569,-0.130,-0.180
570,-0.165,-0.165
571,-0.155,-0.160
572,-0.150,-0.120
573,-0.140,-0.090
574,-0.145,-0.150
575,-0.145,-0.160
576,-0.160,-0.210
577,-0.185,-0.230
578,-0.180,-0.270
579,-0.180,-0.305
580,-0.205,-0.315
581,-0.200,-0.290
582,-0.200,-0.270
583,-0.190,-0.270
584,-0.185,-0.280
585,-0.180,-0.255
586,-0.180,-0.260
587,-0.180,-0.250
588,-0.175,-0.270
589,-0.195,-0.275
590,-0.190,-0.250
591,-0.170,-0.250
592,-0.165,-0.225
593,-0.165,-0.340
594,-0.130,-0.615
595,-0.030,-0.540
596,0.100,-0.170
597,0.105,0.270
598,-0.290,0.690
599,-0.910,0.735
600,-1.000,0.480
601,-0.605,0.090
602,-0.260,-0.140
603,-0.145,-0.260
604,-0.125,-0.305
605,-0.110,-0.295
606,-0.080,-0.285
607,-0.075,-0.290
608,-0.090,-0.295
609,-0.090,-0.280
610,-0.080,-0.270
611,-0.060,-0.270
612,-0.055,-0.275
613,-0.025,-0.275
614,-0.025,-0.270
615,-0.020,-0.260
616,-0.015,-0.265
617,0.000,-0.275
618,0.010,-0.265
619,0.020,-0.250
620,0.060,-0.250
621,0.060,-0.205
622,0.060,-0.195
623,0.075,-0.165
624,0.050,-0.165
625,0.055,-0.145
626,0.025,-0.140
627,0.015,-0.125
628,-0.025,-0.135
629,-0.050,-0.150
630,-0.065,-0.160
631,-0.100,-0.175
632,-0.120,-0.200
633,-0.135,-0.220
634,-0.150,-0.205
635,-0.155,-0.225
636,-0.160,-0.225
637,-0.155,-0.250
638,-0.165,-0.250
639,-0.155,-0.240
640,-0.160,-0.235
641,-0.155,-0.235
642,-0.120,-0.240
643,-0.135,-0.230
644,-0.135,-0.235
645,-0.155,-0.240
646,-0.160,-0.225
647,-0.150,-0.240
648,-0.160,-0.245
649,-0.160,-0.245
650,-0.165,-0.225
651,-0.170,-0.230
652,-0.185,-0.210
653,-0.175,-0.185
654,-0.170,-0.165
655,-0.185,-0.140
656,-0.175,-0.140
657,-0.175,-0.120
658,-0.175,-0.135
659,-0.190,-0.185
660,-0.210,-0.185
661,-0.205,-0.215
662,-0.220,-0.265
663,-0.230,-0.310
664,-0.240,-0.310
665,-0.250,-0.305
666,-0.235,-0.295
667,-0.245,-0.290
668,-0.255,-0.280
669,-0.245,-0.275
670,-0.260,-0.275
671,-0.250,-0.255
672,-0.245,-0.260
673,-0.240,-0.260
674,-0.240,-0.275
675,-0.240,-0.265
676,-0.230,-0.270
677,-0.220,-0.425
678,-0.205,-0.645
679,-0.070,-0.450
680,0.060,-0.105
681,-0.040,0.455
682,-0.595,0.745
683,-1.160,0.770
684,-0.975,0.410
685,-0.595,0.050
686,-0.305,-0.200
687,-0.245,-0.310
688,-0.215,-0.335
689,-0.185,-0.325
690,-0.165,-0.305
691,-0.155,-0.310
692,-0.170,-0.305
693,-0.155,-0.285
694,-0.160,-0.280
695,-0.150,-0.285
696,-0.145,-0.285
697,-0.145,-0.285
698,-0.115,-0.285
699,-0.090,-0.290
700,-0.080,-0.275
701,-0.045,-0.275
702,-0.035,-0.260
703,0.000,-0.255
704,0.010,-0.235
705,0.000,-0.185
706,0.000,-0.180
707,0.000,-0.140
708,0.015,-0.135
709,0.000,-0.100
710,0.000,-0.075
711,-0.010,-0.105
712,-0.035,-0.090
713,-0.055,-0.120
714,-0.075,-0.130
715,-0.110,-0.155
716,-0.155,-0.180
717,-0.155,-0.185
718,-0.140,-0.190
719,-0.130,-0.170
720,-0.120,-0.185
721,-0.135,-0.180
722,-0.140,-0.190
723,-0.140,-0.185
724,-0.145,-0.180
725,-0.145,-0.175
726,-0.140,-0.180
727,-0.125,-0.170
728,-0.125,-0.180
729,-0.125,-0.170
730,-0.135,-0.165
731,-0.115,-0.160
732,-0.110,-0.165
733,-0.125,-0.155
734,-0.120,-0.160
735,-0.130,-0.150
736,-0.125,-0.140
737,-0.125,-0.105
738,-0.130,-0.085
739,-0.115,-0.065
740,-0.120,-0.025
741,-0.115,-0.025
742,-0.090,-0.040
743,-0.105,-0.080
744,-0.115,-0.090
745,-0.140,-0.125
746,-0.130,-0.185
747,-0.150,-0.205
748,-0.150,-0.220
749,-0.155,-0.205
750,-0.160,-0.180
751,-0.150,-0.175
752,-0.155,-0.175
753,-0.155,-0.185
754,-0.150,-0.180
755,-0.150,-0.180
756,-0.140,-0.180
757,-0.140,-0.175
758,-0.145,-0.180
759,-0.155,-0.145
760,-0.135,-0.150
761,-0.135,-0.275
762,-0.110,-0.540
763,-0.005,-0.400
764,0.140,-0.080
765,0.065,0.445
766,-0.420,0.830
767,-1.035,0.835
768,-0.970,0.585
769,-0.570,0.200
770,-0.250,-0.040
771,-0.160,-0.175
772,-0.125,-0.235
773,-0.085,-0.230
774,-0.055,-0.205
775,-0.060,-0.190
776,-0.055,-0.190
777,-0.045,-0.200
778,-0.055,-0.190
779,-0.040,-0.185
780,-0.045,-0.170
781,-0.030,-0.175
782,-0.010,-0.185
783,0.000,-0.175
784,0.020,-0.190
785,0.040,-0.165
786,0.060,-0.175
787,0.080,-0.155
788,0.120,-0.155
789,0.115,-0.100
790,0.125,-0.080
791,0.115,-0.075
792,0.120,-0.045
793,0.110,-0.040
794,0.080,-0.010
795,0.075,-0.015
796,0.030,-0.010
797,0.005,-0.035
798,-0.020,-0.060
799,-0.055,-0.060
800,-0.060,-0.080
801,-0.080,-0.080
802,-0.080,-0.090
803,-0.085,-0.110
804,-0.080,-0.115
805,-0.090,-0.105
806,-0.090,-0.125
807,-0.075,-0.110
808,-0.075,-0.115
809,-0.075,-0.110
810,-0.080,-0.095
811,-0.060,-0.110
812,-0.050,-0.105
813,-0.045,-0.120
814,-0.050,-0.145
815,-0.060,-0.130
816,-0.040,-0.120
817,-0.040,-0.110
818,-0.025,-0.120
819,-0.035,-0.130
820,-0.020,-0.105
821,-0.020,-0.065
822,-0.015,-0.055
823,-0.005,-0.045
824,-0.005,-0.030
825,0.025,0.000
826,0.010,0.000
827,0.025,-0.020
828,0.035,-0.050
829,0.010,-0.085
830,0.015,-0.150
831,0.025,-0.185
832,0.020,-0.200
833,0.040,-0.180
834,0.070,-0.170
835,0.065,-0.150
836,0.065,-0.170
837,0.070,-0.150
838,0.080,-0.140
839,0.080,-0.135
840,0.085,-0.145
841,0.095,-0.140
842,0.095,-0.130
843,0.095,-0.115
844,0.100,-0.125
845,0.115,-0.145
846,0.115,-0.350
847,0.170,-0.535
848,0.305,-0.255
849,0.420,0.090
850,0.210,0.665
851,-0.420,0.835
852,-0.850,0.825
853,-0.560,0.450
854,-0.170,0.180
855,0.075,-0.070
856,0.135,-0.180
857,0.175,-0.170
858,0.215,-0.155
859,0.235,-0.170
860,0.240,-0.160
861,0.245,-0.150
862,0.230,-0.130
863,0.235,-0.140
864,0.230,-0.145
865,0.240,-0.135
866,0.245,-0.135
867,0.260,-0.130
868,0.290,-0.140
869,0.310,-0.150
870,0.350,-0.140
871,0.340,-0.130
872,0.365,-0.110
873,0.385,-0.080
874,0.410,-0.070
875,0.410,-0.040
876,0.405,-0.020
877,0.415,-0.015
878,0.390,0.020
879,0.375,0.010
880,0.335,0.015
881,0.335,0.015
882,0.290,-0.010
883,0.265,-0.010
884,0.260,-0.055
885,0.225,-0.065
886,0.225,-0.075
887,0.220,-0.075
888,0.215,-0.075
889,0.240,-0.085
890,0.230,-0.080
891,0.235,-0.085
892,0.245,-0.080
893,0.250,-0.080
894,0.275,-0.090
895,0.270,-0.090
896,0.295,-0.110
897,0.295,-0.100
898,0.310,-0.080
899,0.310,-0.085
900,0.300,-0.095
901,0.325,-0.100
902,0.315,-0.120
903,0.330,-0.110
904,0.330,-0.115
905,0.330,-0.085
906,0.340,-0.080
907,0.350,-0.070
908,0.365,-0.050
909,0.360,-0.060
910,0.380,-0.065
911,0.385,-0.120
912,0.380,-0.115
913,0.365,-0.145
914,0.360,-0.180
915,0.330,-0.245
916,0.365,-0.265
917,0.345,-0.240
918,0.345,-0.235
919,0.340,-0.240
920,0.355,-0.225
921,0.340,-0.225
922,0.355,-0.220
923,0.360,-0.200
924,0.370,-0.205
925,0.380,-0.210
926,0.375,-0.185
927,0.390,-0.180
928,0.400,-0.170
929,0.410,-0.155
930,0.425,-0.265
931,0.430,-0.500
932,0.545,-0.395
933,0.715,-0.080
934,0.665,0.420
935,0.170,0.815
936,-0.425,0.815
937,-0.365,0.620
938,0.030,0.270
939,0.410,0.040
940,0.510,-0.085
941,0.540,-0.115
942,0.585,-0.125
943,0.615,-0.135
944,0.630,-0.115
945,0.630,-0.145
946,0.610,-0.150
947,0.635,-0.125
948,0.660,-0.120
949,0.650,-0.150
950,0.695,-0.170
951,0.695,-0.170
952,0.725,-0.165
953,0.735,-0.170
954,0.745,-0.150
955,0.775,-0.165
956,0.795,-0.145
957,0.815,-0.150
958,0.825,-0.120
959,0.840,-0.105
960,0.860,-0.100
961,0.830,-0.080
962,0.830,-0.065
963,0.815,-0.055
964,0.810,-0.040
965,0.765,-0.060
966,0.745,-0.070
967,0.725,-0.100
968,0.720,-0.120
969,0.700,-0.140
970,0.660,-0.155
971,0.655,-0.170
972,0.650,-0.165
973,0.630,-0.155
974,0.670,-0.165
975,0.660,-0.185
976,0.655,-0.185
977,0.675,-0.175
978,0.685,-0.195
979,0.680,-0.190
980,0.670,-0.170
981,0.680,-0.180
982,0.675,-0.190
983,0.685,-0.175
984,0.675,-0.195
985,0.690,-0.185
986,0.690,-0.180
987,0.675,-0.190
988,0.680,-0.175
989,0.680,-0.165
990,0.680,-0.160
991,0.675,-0.145
992,0.690,-0.120
993,0.695,-0.090
994,0.685,-0.070
995,0.690,-0.070
996,0.690,-0.045
997,0.700,-0.070
998,0.675,-0.085
999,0.695,-0.120
1000,0.670,-0.175
1001,0.675,-0.225
1002,0.665,-0.270
1003,0.645,-0.270
1004,0.650,-0.250
1005,0.655,-0.230
1006,0.665,-0.230
1007,0.650,-0.235
1008,0.655,-0.215
1009,0.630,-0.230
1010,0.635,-0.225
1011,0.630,-0.230
1012,0.630,-0.245
1013,0.620,-0.230
1014,0.625,-0.215
1015,0.630,-0.215
1016,0.635,-0.335
1017,0.660,-0.590
1018,0.745,-0.490
1019,0.865,-0.155
1020,0.815,0.320
1021,0.315,0.695
1022,-0.295,0.705
1023,-0.235,0.485
1024,0.135,0.125
1025,0.485,-0.095
1026,0.570,-0.250
1027,0.610,-0.280
1028,0.630,-0.275
1029,0.660,-0.275
1030,0.665,-0.260
1031,0.660,-0.280
1032,0.650,-0.245
1033,0.635,-0.255
1034,0.640,-0.240
1035,0.675,-0.250
1036,0.670,-0.260
1037,0.685,-0.255
1038,0.675,-0.250
1039,0.685,-0.255
1040,0.710,-0.255
1041,0.720,-0.245
1042,0.720,-0.245
1043,0.735,-0.235
1044,0.760,-0.185
1045,0.755,-0.195
1046,0.745,-0.160
1047,0.715,-0.165
1048,0.720,-0.150
1049,0.685,-0.135
1050,0.685,-0.120
1051,0.660,-0.115
1052,0.615,-0.145
1053,0.590,-0.140
1054,0.575,-0.175
1055,0.535,-0.195
1056,0.515,-0.225
1057,0.505,-0.225
1058,0.500,-0.225
1059,0.485,-0.240
1060,0.465,-0.235
1061,0.485,-0.250
1062,0.485,-0.225
1063,0.490,-0.230
1064,0.470,-0.230
1065,0.475,-0.235
1066,0.475,-0.245
1067,0.485,-0.245
1068,0.450,-0.260
1069,0.460,-0.250
1070,0.470,-0.230
1071,0.445,-0.210
1072,0.475,-0.240
1073,0.450,-0.250
1074,0.440,-0.230
1075,0.450,-0.240
1076,0.430,-0.255
1077,0.430,-0.245
1078,0.435,-0.240
1079,0.430,-0.220
1080,0.420,-0.145
1081,0.425,-0.135
1082,0.435,-0.125
1083,0.420,-0.125
1084,0.435,-0.110
1085,0.445,-0.155
1086,0.425,-0.175
1087,0.400,-0.205
1088,0.385,-0.245
1089,0.375,-0.275
1090,0.385,-0.315
1091,0.370,-0.300
1092,0.370,-0.305
1093,0.340,-0.295
1094,0.350,-0.295
1095,0.350,-0.280
1096,0.345,-0.260
1097,0.350,-0.280
1098,0.345,-0.255
1099,0.345,-0.250
1100,0.355,-0.250
1101,0.360,-0.245
1102,0.360,-0.250
1103,0.360,-0.250
1104,0.355,-0.265
1105,0.375,-0.480
1106,0.410,-0.615
1107,0.530,-0.250
1108,0.625,0.110
1109,0.435,0.685
1110,-0.165,0.745
1111,-0.540,0.650
1112,-0.265,0.190
1113,0.110,-0.055
1114,0.330,-0.210
1115,0.345,-0.295
1116,0.365,-0.285
1117,0.370,-0.245
1118,0.385,-0.245
1119,0.385,-0.235
1120,0.410,-0.255
1121,0.405,-0.250
1122,0.405,-0.235
1123,0.405,-0.245
1124,0.430,-0.245
1125,0.445,-0.235
1126,0.440,-0.250
1127,0.445,-0.235
1128,0.455,-0.230
1129,0.470,-0.230
1130,0.485,-0.220
1131,0.510,-0.220
1132,0.520,-0.210
1133,0.540,-0.180
1134,0.530,-0.165
1135,0.510,-0.145
1136,0.490,-0.110
1137,0.490,-0.090
1138,0.490,-0.095
1139,0.465,-0.120
1140,0.445,-0.115
1141,0.400,-0.140
1142,0.385,-0.155
1143,0.345,-0.195
1144,0.325,-0.190
1145,0.305,-0.195
1146,0.300,-0.195
1147,0.300,-0.185
1148,0.300,-0.195
1149,0.290,-0.210
1150,0.295,-0.210
1151,0.275,-0.235
1152,0.285,-0.200
1153,0.300,-0.215
1154,0.285,-0.185
1155,0.295,-0.210
1156,0.270,-0.210
1157,0.300,-0.205
1158,0.295,-0.195
1159,0.285,-0.190
1160,0.295,-0.205
1161,0.275,-0.210
1162,0.275,-0.205
1163,0.260,-0.205
1164,0.250,-0.190
1165,0.240,-0.195
1166,0.245,-0.190
1167,0.255,-0.165
1168,0.245,-0.140
1169,0.245,-0.140
1170,0.255,-0.120
1171,0.255,-0.095
1172,0.275,-0.110
1173,0.285,-0.105
1174,0.260,-0.130
1175,0.250,-0.160
1176,0.240,-0.180
1177,0.225,-0.235
1178,0.245,-0.265
1179,0.240,-0.285
1180,0.195,-0.275
1181,0.205,-0.270
1182,0.210,-0.260
1183,0.205,-0.255
1184,0.185,-0.235
1185,0.205,-0.235
1186,0.205,-0.260
1187,0.205,-0.250
1188,0.215,-0.250
1189,0.185,-0.250
1190,0.210,-0.245
1191,0.195,-0.225
1192,0.200,-0.310
1193,0.215,-0.535
1194,0.280,-0.510
1195,0.455,-0.190
1196,0.475,0.265
1197,0.100,0.765
1198,-0.510,0.750
1199,-0.650,0.570
1200,-0.305,0.165
1201,0.040,-0.080
1202,0.185,-0.245
1203,0.195,-0.265
1204,0.225,-0.245
1205,0.255,-0.245
1206,0.265,-0.240
1207,0.245,-0.235
1208,0.250,-0.210
1209,0.260,-0.225
1210,0.260,-0.235
1211,0.285,-0.215
1212,0.300,-0.240
1213,0.270,-0.215
1214,0.285,-0.230
1215,0.320,-0.210
1216,0.335,-0.220
1217,0.335,-0.215
1218,0.360,-0.205
1219,0.380,-0.195
1220,0.380,-0.160
1221,0.400,-0.155
1222,0.360,-0.115
1223,0.375,-0.125
1224,0.380,-0.075
1225,0.375,-0.050
1226,0.365,-0.065
1227,0.345,-0.055
1228,0.295,-0.070
1229,0.270,-0.070
1230,0.265,-0.095
1231,0.220,-0.105
1232,0.205,-0.115
1233,0.205,-0.115
1234,0.195,-0.120
1235,0.185,-0.125
1236,0.165,-0.125
1237,0.195,-0.115
1238,0.195,-0.140
1239,0.185,-0.130
1240,0.185,-0.140
1241,0.175,-0.140
1242,0.190,-0.120
1243,0.190,-0.120
1244,0.220,-0.120
1245,0.215,-0.105
1246,0.195,-0.120
1247,0.195,-0.130
1248,0.210,-0.115
1249,0.205,-0.135
1250,0.175,-0.135
1251,0.185,-0.110
1252,0.200,-0.105
1253,0.200,-0.110
1254,0.175,-0.115
1255,0.185,-0.080
1256,0.190,-0.070
1257,0.175,-0.065
1258,0.185,-0.020
1259,0.190,-0.015
1260,0.190,-0.010
1261,0.185,-0.035
1262,0.175,-0.075
1263,0.195,-0.090
1264,0.180,-0.115
1265,0.185,-0.185
1266,0.155,-0.215
1267,0.140,-0.210
1268,0.130,-0.205
1269,0.125,-0.205
1270,0.125,-0.205
1271,0.130,-0.200
1272,0.150,-0.180
1273,0.135,-0.175
1274,0.150,-0.165
1275,0.140,-0.180
1276,0.135,-0.165
1277,0.130,-0.160
1278,0.135,-0.150
1279,0.130,-0.150
1280,0.150,-0.275
1281,0.170,-0.515
1282,0.265,-0.305
1283,0.405,0.020
1284,0.245,0.610
1285,-0.280,0.840
1286,-0.740,0.805
1287,-0.600,0.540
1288,-0.265,0.190
1289,0.050,-0.045
1290,0.120,-0.160
1291,0.160,-0.185
1292,0.190,-0.180
1293,0.205,-0.160
1294,0.230,-0.175
1295,0.205,-0.160
1296,0.210,-0.160
1297,0.230,-0.160
1298,0.245,-0.155
1299,0.245,-0.155
1300,0.235,-0.150
1301,0.270,-0.140
1302,0.270,-0.130
1303,0.300,-0.140
1304,0.310,-0.155
1305,0.320,-0.150
1306,0.330,-0.145
1307,0.330,-0.130
1308,0.370,-0.095
1309,0.360,-0.070
1310,0.375,-0.035
1311,0.370,-0.025
1312,0.355,-0.010
1313,0.345,0.000
1314,0.330,0.010
1315,0.300,0.000
1316,0.265,0.000
1317,0.240,-0.015
1318,0.205,-0.005
1319,0.190,-0.035
1320,0.195,-0.060
1321,0.185,-0.060
1322,0.170,-0.075
1323,0.145,-0.075
1324,0.155,-0.080
1325,0.145,-0.080
1326,0.145,-0.085
1327,0.135,-0.080
1328,0.140,-0.075
1329,0.155,-0.060
1330,0.170,-0.065
1331,0.175,-0.080
1332,0.175,-0.075
1333,0.175,-0.105
1334,0.160,-0.100
1335,0.165,-0.075
1336,0.195,-0.095
1337,0.165,-0.085
1338,0.160,-0.075
1339,0.185,-0.080
1340,0.190,-0.065
1341,0.155,-0.065
1342,0.175,-0.030
1343,0.185,0.000
1344,0.175,0.000
1345,0.190,0.035
1346,0.190,0.030
1347,0.210,0.055
1348,0.215,0.055
1349,0.225,-0.015
1350,0.220,-0.015
1351,0.180,-0.055
1352,0.180,-0.100
1353,0.195,-0.140
1354,0.180,-0.150
1355,0.185,-0.135
1356,0.165,-0.130
1357,0.165,-0.105
1358,0.190,-0.120
1359,0.200,-0.100
1360,0.180,-0.095
1361,0.185,-0.105
1362,0.190,-0.125
1363,0.170,-0.100
1364,0.190,-0.095
1365,0.200,-0.105
1366,0.205,-0.075
1367,0.190,-0.185
1368,0.235,-0.455
1369,0.355,-0.305
1370,0.455,-0.035
1371,0.370,0.540
1372,-0.110,0.865
1373,-0.655,0.835
1374,-0.575,0.575
1375,-0.220,0.245
1376,0.085,0.025
1377,0.200,-0.110
1378,0.220,-0.140
1379,0.255,-0.130
1380,0.285,-0.130
1381,0.295,-0.130
1382,0.280,-0.115
1383,0.310,-0.105
1384,0.280,-0.105
1385,0.275,-0.100
1386,0.300,-0.100
1387,0.320,-0.090
1388,0.335,-0.105
1389,0.330,-0.100
1390,0.360,-0.095
1391,0.370,-0.095
1392,0.380,-0.105
1393,0.370,-0.100
1394,0.400,-0.075
1395,0.415,-0.055
1396,0.425,-0.030
1397,0.430,-0.005
1398,0.420,0.000
1399,0.425,0.010
1400,0.405,0.040
1401,0.370,0.050
1402,0.335,0.020
1403,0.310,0.025
1404,0.305,0.005
1405,0.260,-0.010
1406,0.250,-0.020
1407,0.240,-0.055
1408,0.220,-0.050
1409,0.215,-0.065
1410,0.225,-0.065
1411,0.195,-0.065
1412,0.200,-0.070
1413,0.185,-0.070
1414,0.220,-0.060
1415,0.230,-0.055
1416,0.200,-0.065
1417,0.210,-0.070
1418,0.240,-0.070
1419,0.210,-0.075
1420,0.210,-0.075
1421,0.225,-0.090
1422,0.215,-0.080
1423,0.195,-0.080
1424,0.210,-0.100
1425,0.210,-0.065
1426,0.185,-0.085
1427,0.195,-0.080
1428,0.205,-0.060
1429,0.190,-0.055
1430,0.205,-0.025
1431,0.190,-0.005
1432,0.195,0.020
1433,0.200,0.040
1434,0.225,0.065
1435,0.225,0.050
1436,0.230,0.000
1437,0.205,-0.010
1438,0.195,-0.065
1439,0.160,-0.140
1440,0.160,-0.170
1441,0.160,-0.155
1442,0.160,-0.155
1443,0.155,-0.140
1444,0.160,-0.130
1445,0.170,-0.155
1446,0.160,-0.155
1447,0.145,-0.125
1448,0.170,-0.110
1449,0.180,-0.130
1450,0.165,-0.120
1451,0.160,-0.105
1452,0.165,-0.105
1453,0.190,-0.115
1454,0.205,-0.305
1455,0.215,-0.535
1456,0.340,-0.295
1457,0.420,0.095
1458,0.245,0.675
1459,-0.340,0.810
1460,-0.730,0.780
1461,-0.495,0.420
1462,-0.135,0.130
1463,0.125,-0.060
1464,0.160,-0.165
1465,0.205,-0.190
1466,0.225,-0.170
1467,0.230,-0.160
1468,0.225,-0.170
1469,0.230,-0.135
1470,0.260,-0.145
1471,0.260,-0.145
1472,0.275,-0.135
1473,0.290,-0.130
1474,0.280,-0.140
1475,0.310,-0.140
1476,0.295,-0.150
1477,0.315,-0.150
1478,0.335,-0.140
1479,0.355,-0.110
1480,0.380,-0.135
1481,0.385,-0.110
1482,0.380,-0.085
1483,0.400,-0.055
1484,0.400,-0.045
1485,0.390,-0.035
1486,0.370,-0.010
1487,0.365,-0.015
1488,0.340,0.000
1489,0.330,-0.005
1490,0.290,-0.025
1491,0.265,-0.025
1492,0.240,-0.055
1493,0.215,-0.075
1494,0.205,-0.080
1495,0.190,-0.070
1496,0.180,-0.065
1497,0.195,-0.090
1498,0.185,-0.065
1499,0.170,-0.095
1500,0.190,-0.105
1501,0.210,-0.105
1502,0.200,-0.110
1503,0.200,-0.105
1504,0.185,-0.105
1505,0.200,-0.090
1506,0.220,-0.085
1507,0.195,-0.085
1508,0.215,-0.080
1509,0.205,-0.080
1510,0.210,-0.085
1511,0.195,-0.105
1512,0.205,-0.100
1513,0.175,-0.090
1514,0.195,-0.100
1515,0.180,-0.085
1516,0.170,-0.040
1517,0.185,-0.025
1518,0.215,0.005
1519,0.200,0.020
1520,0.175,0.015
1521,0.220,0.015
1522,0.205,-0.015
1523,0.195,-0.025
1524,0.160,-0.055
1525,0.170,-0.135
1526,0.160,-0.185
1527,0.170,-0.185
1528,0.145,-0.170
1529,0.140,-0.180
1530,0.155,-0.160
1531,0.135,-0.170
1532,0.130,-0.145
1533,0.130,-0.150
1534,0.145,-0.155
1535,0.135,-0.125
1536,0.135,-0.120
1537,0.160,-0.150
1538,0.155,-0.125
1539,0.120,-0.135
1540,0.130,-0.300
1541,0.180,-0.545
1542,0.270,-0.365
1543,0.395,-0.030
1544,0.280,0.515
1545,-0.250,0.770
1546,-0.765,0.765
1547,-0.630,0.485
1548,-0.250,0.170
1549,0.040,-0.050
1550,0.080,-0.175
1551,0.120,-0.235
1552,0.165,-0.215
1553,0.180,-0.195
1554,0.190,-0.195
1555,0.205,-0.185
1556,0.185,-0.180
1557,0.200,-0.175
1558,0.225,-0.160
1559,0.205,-0.190
1560,0.240,-0.195
1561,0.220,-0.175
1562,0.240,-0.175
1563,0.250,-0.205
1564,0.255,-0.190
1565,0.265,-0.185
1566,0.290,-0.195
1567,0.305,-0.195
1568,0.300,-0.175
1569,0.330,-0.140
1570,0.320,-0.140
1571,0.300,-0.110
1572,0.290,-0.075
1573,0.270,-0.070
1574,0.275,-0.065
1575,0.230,-0.055
1576,0.165,-0.100
1577,0.145,-0.130
1578,0.130,-0.135
1579,0.110,-0.135
1580,0.090,-0.175
1581,0.080,-0.170
1582,0.080,-0.180
1583,0.075,-0.175
1584,0.070,-0.175
1585,0.080,-0.185
1586,0.060,-0.195
1587,0.045,-0.200
1588,0.060,-0.195
1589,0.045,-0.195
1590,0.065,-0.210
1591,0.050,-0.200
1592,0.070,-0.195
1593,0.065,-0.185
1594,0.080,-0.195
1595,0.075,-0.210
1596,0.055,-0.215
1597,0.045,-0.225
1598,0.045,-0.205
1599,0.015,-0.205
1600,0.040,-0.220
1601,0.035,-0.210
1602,0.030,-0.170
1603,0.025,-0.170
1604,0.040,-0.160
1605,0.040,-0.130
1606,0.030,-0.110
1607,0.040,-0.090
1608,0.050,-0.110
1609,0.060,-0.150
1610,0.020,-0.175
1611,0.010,-0.215
1612,0.010,-0.255
1613,0.025,-0.285
1614,0.005,-0.295
1615,0.005,-0.295
1616,0.000,-0.295
1617,0.005,-0.290
1618,0.000,-0.255
1619,0.000,-0.275
1620,0.000,-0.275
1621,0.010,-0.270
1622,0.010,-0.255
1623,0.000,-0.235
1624,0.000,-0.230
1625,0.000,-0.230
1626,0.000,-0.250
1627,0.000,-0.345
1628,0.025,-0.635
1629,0.110,-0.555
1630,0.280,-0.200
1631,0.260,0.265
1632,-0.100,0.685
1633,-0.700,0.715
1634,-0.825,0.510
1635,-0.470,0.110
1636,-0.145,-0.115
1637,-0.005,-0.255
1638,-0.005,-0.300
1639,0.045,-0.290
1640,0.065,-0.295
1641,0.055,-0.255
1642,0.060,-0.265
1643,0.055,-0.280
1644,0.065,-0.285
1645,0.075,-0.275
1646,0.080,-0.285
1647,0.095,-0.275
1648,0.085,-0.265
1649,0.080,-0.280
1650,0.100,-0.265
1651,0.135,-0.250
1652,0.150,-0.240
1653,0.190,-0.230
1654,0.185,-0.225
1655,0.175,-0.220
1656,0.190,-0.205
1657,0.220,-0.170
1658,0.195,-0.165
1659,0.155,-0.160
1660,0.160,-0.130
1661,0.150,-0.135
1662,0.135,-0.120
1663,0.085,-0.145
1664,0.085,-0.165
1665,0.035,-0.185
1666,0.000,-0.195
1667,-0.010,-0.200
1668,-0.020,-0.225
1669,-0.030,-0.230
1670,-0.015,-0.205
1671,-0.050,-0.220
1672,-0.035,-0.220
1673,-0.030,-0.245
1674,-0.030,-0.225
1675,-0.040,-0.220
1676,-0.035,-0.215
1677,-0.055,-0.245
1678,-0.030,-0.240
1679,-0.045,-0.230
1680,-0.030,-0.235
1681,-0.035,-0.230
1682,-0.025,-0.220
1683,-0.050,-0.235
1684,-0.030,-0.225
1685,-0.030,-0.235
1686,-0.060,-0.245
1687,-0.065,-0.250
1688,-0.070,-0.220
1689,-0.065,-0.210
1690,-0.075,-0.180
1691,-0.065,-0.175
1692,-0.050,-0.140
1693,-0.050,-0.125
1694,-0.035,-0.110
1695,-0.045,-0.135
1696,-0.045,-0.180
1697,-0.045,-0.185
1698,-0.065,-0.200
1699,-0.080,-0.260
1700,-0.085,-0.330
1701,-0.085,-0.310
1702,-0.095,-0.300
1703,-0.075,-0.315
1704,-0.110,-0.315
1705,-0.100,-0.295
1706,-0.080,-0.305
1707,-0.100,-0.290
1708,-0.100,-0.300
1709,-0.085,-0.270
1710,-0.080,-0.275
1711,-0.090,-0.275
1712,-0.090,-0.265
1713,-0.065,-0.265
1714,-0.060,-0.310
1715,-0.085,-0.570
1716,-0.030,-0.625
1717,0.135,-0.300
1718,0.185,0.115
1719,-0.010,0.675
1720,-0.615,0.710
1721,-0.905,0.565
1722,-0.635,0.130
1723,-0.275,-0.105
1724,-0.080,-0.260
1725,-0.085,-0.320
1726,-0.040,-0.320
1727,-0.010,-0.305
1728,0.000,-0.295
1729,0.020,-0.290
1730,0.000,-0.265
1731,0.000,-0.265
1732,0.000,-0.280
1733,0.025,-0.275
1734,0.015,-0.275
1735,0.010,-0.285
1736,0.030,-0.280
1737,0.045,-0.275
1738,0.085,-0.270
1739,0.085,-0.260
1740,0.095,-0.235
1741,0.130,-0.235
1742,0.135,-0.230
1743,0.150,-0.215
1744,0.150,-0.195
1745,0.140,-0.165
1746,0.150,-0.165
1747,0.145,-0.140
1748,0.140,-0.135
1749,0.105,-0.120
1750,0.100,-0.115
1751,0.075,-0.130
1752,0.020,-0.150
1753,0.005,-0.200
1754,0.000,-0.215
1755,-0.030,-0.190
1756,-0.035,-0.200
1757,-0.040,-0.235
1758,-0.025,-0.220
1759,-0.010,-0.205
1760,-0.005,-0.205
1761,-0.030,-0.200
1762,-0.005,-0.220
1763,0.005,-0.215
1764,-0.005,-0.210
1765,-0.030,-0.205
1766,-0.035,-0.195
1767,-0.015,-0.215
1768,-0.020,-0.205
1769,0.010,-0.180
1770,0.005,-0.185
1771,0.005,-0.175
1772,0.010,-0.215
1773,0.000,-0.195
1774,-0.005,-0.205
1775,-0.010,-0.180
1776,0.000,-0.160
1777,0.000,-0.145
1778,-0.005,-0.130
1779,0.000,-0.100
1780,-0.010,-0.085
1781,0.005,-0.055
1782,0.025,-0.035
1783,0.030,-0.100
1784,0.010,-0.140
1785,-0.005,-0.170
1786,-0.030,-0.225
1787,-0.025,-0.265
1788,-0.030,-0.280
1789,-0.040,-0.255
1790,-0.020,-0.240
1791,-0.015,-0.250
1792,-0.020,-0.230
1793,-0.030,-0.225
1794,0.000,-0.225
1795,-0.015,-0.225
1796,-0.030,-0.220
1797,-0.015,-0.220
1798,-0.010,-0.205
1799,0.000,-0.205
1800,-0.005,-0.200
1801,0.000,-0.235
1802,0.020,-0.475
1803,0.040,-0.555
1804,0.210,-0.275
1805,0.255,0.175
1806,-0.025,0.715
1807,-0.605,0.750
1808,-0.885,0.695
1809,-0.580,0.275
1810,-0.260,-0.005
1811,-0.040,-0.180
1812,0.020,-0.275
1813,0.030,-0.270
1814,0.030,-0.270
1815,0.065,-0.260
1816,0.050,-0.250
1817,0.070,-0.240
1818,0.065,-0.215
1819,0.075,-0.205
1820,0.085,-0.220
1821,0.095,-0.235
1822,0.090,-0.235
1823,0.135,-0.230
1824,0.130,-0.235
1825,0.145,-0.230
1826,0.160,-0.220
1827,0.200,-0.215
1828,0.225,-0.195
1829,0.260,-0.190
1830,0.230,-0.165
1831,0.210,-0.140
1832,0.225,-0.120
1833,0.230,-0.110
1834,0.220,-0.080
1835,0.210,-0.060
1836,0.205,-0.040
1837,0.205,-0.055
1838,0.135,-0.065
1839,0.105,-0.070
1840,0.105,-0.105
1841,0.085,-0.115
1842,0.055,-0.135
1843,0.045,-0.140
1844,0.050,-0.150
1845,0.050,-0.135
1846,0.045,-0.125
1847,0.055,-0.140
1848,0.050,-0.145
1849,0.060,-0.145
1850,0.075,-0.135
1851,0.065,-0.150
1852,0.055,-0.140
1853,0.080,-0.135
1854,0.075,-0.155
1855,0.065,-0.150
1856,0.075,-0.135
1857,0.085,-0.115
1858,0.115,-0.110
1859,0.100,-0.125
1860,0.095,-0.125
1861,0.105,-0.100
1862,0.065,-0.120
1863,0.065,-0.110
1864,0.080,-0.085
1865,0.090,-0.065
1866,0.080,-0.025
1867,0.090,0.005
1868,0.105,0.020
1869,0.115,0.010
1870,0.130,-0.030
1871,0.115,-0.060
1872,0.130,-0.085
1873,0.070,-0.160
1874,0.050,-0.210
1875,0.040,-0.200
1876,0.065,-0.170
1877,0.080,-0.160
1878,0.065,-0.160
1879,0.085,-0.165
1880,0.095,-0.160
1881,0.090,-0.155
1882,0.095,-0.140
1883,0.100,-0.150
1884,0.095,-0.135
1885,0.105,-0.135
1886,0.110,-0.120
1887,0.125,-0.110
1888,0.120,-0.215
1889,0.150,-0.485
1890,0.220,-0.430
1891,0.350,-0.110
1892,0.345,0.400
1893,-0.085,0.805
1894,-0.660,0.785
1895,-0.715,0.615
1896,-0.345,0.235
1897,-0.015,0.005
1898,0.130,-0.150
1899,0.135,-0.200
1900,0.215,-0.165
1901,0.215,-0.170
1902,0.200,-0.175
1903,0.215,-0.165
1904,0.225,-0.160
1905,0.235,-0.170
1906,0.225,-0.165
1907,0.230,-0.165
1908,0.250,-0.160
1909,0.275,-0.150
1910,0.305,-0.165
1911,0.315,-0.160
1912,0.325,-0.165
1913,0.335,-0.155
1914,0.350,-0.145
1915,0.365,-0.130
1916,0.400,-0.105
1917,0.405,-0.090
1918,0.420,-0.075
1919,0.435,-0.045
1920,0.365,-0.045
1921,0.350,-0.015
1922,0.345,0.000
1923,0.330,-0.010
1924,0.300,-0.020
1925,0.275,-0.035
1926,0.250,-0.055
1927,0.235,-0.070
1928,0.200,-0.095
1929,0.200,-0.095
1930,0.215,-0.110
1931,0.205,-0.100
1932,0.175,-0.110
1933,0.170,-0.110
1934,0.170,-0.100
1935,0.195,-0.090
1936,0.200,-0.090
1937,0.200,-0.135
1938,0.205,-0.115
1939,0.190,-0.115
1940,0.200,-0.115
1941,0.215,-0.115
1942,0.205,-0.120
1943,0.220,-0.110
1944,0.205,-0.125
1945,0.215,-0.130
1946,0.215,-0.125
1947,0.205,-0.130
1948,0.220,-0.130
1949,0.210,-0.125
1950,0.200,-0.075
1951,0.205,-0.070
1952,0.200,-0.045
1953,0.180,-0.025
1954,0.200,-0.015
1955,0.220,-0.005
1956,0.220,-0.035
1957,0.200,-0.065
1958,0.215,-0.100
1959,0.195,-0.155
1960,0.160,-0.215
1961,0.175,-0.240
1962,0.170,-0.205
1963,0.165,-0.215
1964,0.150,-0.205
1965,0.155,-0.200
1966,0.185,-0.180
1967,0.160,-0.200
1968,0.155,-0.170
1969,0.165,-0.190
1970,0.190,-0.180
1971,0.185,-0.185
1972,0.165,-0.200
1973,0.165,-0.185
1974,0.190,-0.210
1975,0.185,-0.425
1976,0.210,-0.570
1977,0.335,-0.310
1978,0.425,0.085
1979,0.220,0.635
1980,-0.345,0.725
1981,-0.765,0.675
1982,-0.515,0.330
1983,-0.150,0.030
1984,0.100,-0.185
1985,0.145,-0.235
1986,0.190,-0.240
1987,0.200,-0.245
1988,0.220,-0.245
1989,0.215,-0.210
1990,0.240,-0.240
1991,0.240,-0.240
1992,0.240,-0.215
1993,0.225,-0.220
1994,0.240,-0.240
1995,0.255,-0.225
1996,0.265,-0.220
1997,0.280,-0.230
1998,0.300,-0.230
1999,0.330,-0.225
2000,0.340,-0.250
2001,0.345,-0.220
2002,0.365,-0.215
2003,0.390,-0.215
2004,0.375,-0.170
2005,0.370,-0.155
2006,0.370,-0.135
2007,0.345,-0.115
2008,0.325,-0.110
2009,0.310,-0.095
2010,0.305,-0.130
2011,0.260,-0.135
2012,0.210,-0.140
2013,0.185,-0.180
2014,0.185,-0.175
2015,0.160,-0.190
2016,0.145,-0.185
2017,0.130,-0.195
2018,0.150,-0.215
2019,0.130,-0.215
2020,0.140,-0.210
2021,0.150,-0.210
2022,0.130,-0.220
2023,0.140,-0.210
2024,0.140,-0.215
2025,0.165,-0.220
2026,0.150,-0.225
2027,0.130,-0.210
2028,0.120,-0.245
2029,0.145,-0.225
2030,0.110,-0.245
2031,0.090,-0.250
2032,0.115,-0.235
2033,0.110,-0.235
2034,0.120,-0.235
2035,0.110,-0.220
2036,0.105,-0.210
2037,0.100,-0.195
2038,0.090,-0.185
2039,0.095,-0.155
2040,0.105,-0.120
2041,0.110,-0.130
2042,0.105,-0.150
2043,0.080,-0.165
2044,0.100,-0.180
2045,0.085,-0.235
2046,0.080,-0.275
2047,0.055,-0.315
2048,0.065,-0.325
2049,0.040,-0.315
2050,0.045,-0.315
2051,0.025,-0.310
2052,0.035,-0.330
2053,0.045,-0.315
2054,0.055,-0.275
2055,0.040,-0.295
2056,0.045,-0.285
2057,0.090,-0.290
2058,0.070,-0.285
2059,0.025,-0.295
2060,0.045,-0.285
2061,0.025,-0.405
2062,0.045,-0.680
2063,0.145,-0.545
2064,0.340,-0.170
2065,0.345,0.345
2066,-0.045,0.690
2067,-0.690,0.700
2068,-0.730,0.400
2069,-0.395,0.010
2070,-0.075,-0.220
2071,0.025,-0.290
2072,0.065,-0.340
2073,0.085,-0.345
2074,0.100,-0.340
2075,0.095,-0.310
2076,0.130,-0.310
2077,0.105,-0.310
2078,0.075,-0.315
2079,0.105,-0.300
2080,0.120,-0.305
2081,0.125,-0.315
2082,0.130,-0.315
2083,0.145,-0.300
2084,0.170,-0.315
2085,0.175,-0.310
2086,0.200,-0.295
2087,0.240,-0.310
2088,0.245,-0.285
2089,0.245,-0.260
2090,0.240,-0.235
2091,0.240,-0.220
2092,0.230,-0.195
2093,0.245,-0.165
2094,0.240,-0.155
2095,0.210,-0.175
2096,0.190,-0.180
2097,0.145,-0.205
2098,0.110,-0.200
2099,0.100,-0.240
2100,0.075,-0.265
2101,0.050,-0.275
2102,0.035,-0.260
2103,0.030,-0.275
2104,0.030,-0.265
2105,0.080,-0.270
2106,0.055,-0.265
2107,0.045,-0.275
2108,0.070,-0.290
2109,0.045,-0.270
2110,0.055,-0.260
2111,0.065,-0.285
2112,0.060,-0.270
2113,0.060,-0.260
2114,0.060,-0.265
2115,0.060,-0.275
2116,0.065,-0.260
2117,0.060,-0.265
2118,0.065,-0.255
2119,0.075,-0.260
2120,0.075,-0.270
2121,0.045,-0.285
2122,0.055,-0.255
2123,0.075,-0.225
2124,0.080,-0.210
2125,0.095,-0.185
2126,0.095,-0.135
2127,0.100,-0.155
2128,0.090,-0.145
2129,0.105,-0.175
2130,0.080,-0.200
2131,0.055,-0.210
2132,0.055,-0.250
2133,0.055,-0.320
2134,0.070,-0.340
2135,0.065,-0.320
2136,0.070,-0.290
2137,0.030,-0.295
2138,0.030,-0.285
2139,0.055,-0.285
2140,0.085,-0.295
2141,0.060,-0.285
2142,0.065,-0.265
2143,0.075,-0.255
2144,0.085,-0.250
2145,0.075,-0.235
2146,0.075,-0.260
2147,0.075,-0.300
2148,0.090,-0.505
2149,0.130,-0.635
2150,0.280,-0.315
2151,0.380,0.075
2152,0.190,0.640
2153,-0.415,0.745
2154,-0.830,0.665
2155,-0.515,0.210
2156,-0.150,-0.030
2157,0.060,-0.225
2158,0.090,-0.300
2159,0.110,-0.295
2160,0.135,-0.280
2161,0.145,-0.265
2162,0.160,-0.255
2163,0.160,-0.245
2164,0.180,-0.250
2165,0.165,-0.250
2166,0.175,-0.240
2167,0.195,-0.250
2168,0.180,-0.250
2169,0.205,-0.255
2170,0.225,-0.255
2171,0.260,-0.235
2172,0.270,-0.230
2173,0.300,-0.235
2174,0.305,-0.220
2175,0.315,-0.205
2176,0.320,-0.175
2177,0.325,-0.155
2178,0.335,-0.145
2179,0.325,-0.115
2180,0.330,-0.105
2181,0.290,-0.095
2182,0.270,-0.095
2183,0.250,-0.110
2184,0.205,-0.115
2185,0.175,-0.150
2186,0.175,-0.150
2187,0.165,-0.170
2188,0.135,-0.175
2189,0.125,-0.205
2190,0.145,-0.190
2191,0.135,-0.195
2192,0.110,-0.195
2193,0.125,-0.200
2194,0.130,-0.205
2195,0.135,-0.210
2196,0.115,-0.210
2197,0.135,-0.215
2198,0.135,-0.225
2199,0.105,-0.210
2200,0.120,-0.210
2201,0.125,-0.210
2202,0.150,-0.215
2203,0.140,-0.220
2204,0.130,-0.210
2205,0.115,-0.240
2206,0.120,-0.220
2207,0.140,-0.190
2208,0.135,-0.170
2209,0.125,-0.170
2210,0.125,-0.155
2211,0.135,-0.095
2212,0.135,-0.090
2213,0.140,-0.085
2214,0.140,-0.130
2215,0.140,-0.180
2216,0.140,-0.185
2217,0.100,-0.225
2218,0.110,-0.305
2219,0.095,-0.305
2220,0.095,-0.270
2221,0.095,-0.270
2222,0.120,-0.270
2223,0.110,-0.285
2224,0.115,-0.265
2225,0.125,-0.270
2226,0.110,-0.255
2227,0.090,-0.250
2228,0.110,-0.255
2229,0.115,-0.225
2230,0.130,-0.230
2231,0.140,-0.235
2232,0.125,-0.295
2233,0.145,-0.545
2234,0.215,-0.520
2235,0.380,-0.230
2236,0.380,0.270
2237,0.030,0.765
2238,-0.585,0.720
2239,-0.695,0.595
2240,-0.360,0.170
2241,-0.030,-0.070
2242,0.130,-0.230
2243,0.130,-0.280
2244,0.165,-0.280
2245,0.200,-0.275
2246,0.200,-0.275
2247,0.230,-0.255
2248,0.210,-0.235
2249,0.210,-0.225
2250,0.225,-0.225
2251,0.240,-0.245
2252,0.260,-0.235
2253,0.270,-0.245
2254,0.280,-0.245
2255,0.285,-0.250
2256,0.310,-0.250
2257,0.335,-0.240
2258,0.335,-0.230
2259,0.385,-0.210
2260,0.375,-0.180
2261,0.380,-0.150
2262,0.405,-0.155
2263,0.400,-0.140
2264,0.390,-0.125
2265,0.390,-0.105
2266,0.375,-0.075
2267,0.345,-0.095
2268,0.305,-0.075
2269,0.260,-0.095
2270,0.255,-0.105
2271,0.240,-0.140
2272,0.220,-0.145
2273,0.200,-0.160
2274,0.190,-0.160
2275,0.180,-0.165
2276,0.175,-0.180
2277,0.180,-0.180
2278,0.185,-0.160
2279,0.200,-0.155
2280,0.215,-0.155
2281,0.205,-0.150
2282,0.230,-0.175
2283,0.205,-0.190
2284,0.200,-0.140
2285,0.190,-0.175
2286,0.195,-0.175
2287,0.215,-0.180
2288,0.205,-0.160
2289,0.200,-0.155
2290,0.210,-0.165
2291,0.235,-0.150
2292,0.235,-0.130
2293,0.220,-0.110
2294,0.220,-0.090
2295,0.210,-0.060
2296,0.250,-0.055
2297,0.215,-0.020
2298,0.245,-0.045
2299,0.245,-0.085
2300,0.250,-0.105
2301,0.240,-0.170
2302,0.225,-0.235
2303,0.195,-0.260
2304,0.190,-0.230
2305,0.180,-0.230
2306,0.175,-0.235
2307,0.195,-0.210
2308,0.210,-0.195
2309,0.200,-0.190
2310,0.200,-0.195
2311,0.210,-0.190
2312,0.200,-0.185
2313,0.190,-0.190
2314,0.200,-0.190
2315,0.215,-0.190
2316,0.210,-0.265
2317,0.230,-0.515
2318,0.330,-0.490
2319,0.440,-0.165
2320,0.460,0.300
2321,0.090,0.775
2322,-0.490,0.750
2323,-0.655,0.630
2324,-0.325,0.225
2325,0.010,-0.025
2326,0.205,-0.170
2327,0.230,-0.235
2328,0.230,-0.230
2329,0.275,-0.210
2330,0.285,-0.225
2331,0.290,-0.205
2332,0.310,-0.215
2333,0.300,-0.240
2334,0.290,-0.215
2335,0.300,-0.210
2336,0.320,-0.225
2337,0.320,-0.230
2338,0.335,-0.225
2339,0.355,-0.215
2340,0.370,-0.210
2341,0.385,-0.210
2342,0.400,-0.200
2343,0.410,-0.200
2344,0.420,-0.205
2345,0.435,-0.165
2346,0.450,-0.150
2347,0.435,-0.140
2348,0.430,-0.120
2349,0.400,-0.080
2350,0.415,-0.065
2351,0.390,-0.095
2352,0.325,-0.090
2353,0.310,-0.110
2354,0.275,-0.140
2355,0.270,-0.170
2356,0.260,-0.135
2357,0.240,-0.160
2358,0.235,-0.170
2359,0.250,-0.170
2360,0.245,-0.160
2361,0.240,-0.165
2362,0.235,-0.180
2363,0.235,-0.165
2364,0.230,-0.180
2365,0.235,-0.175
2366,0.235,-0.175
2367,0.250,-0.170
2368,0.260,-0.185
2369,0.295,-0.185
2370,0.270,-0.180
2371,0.275,-0.170
2372,0.255,-0.185
2373,0.245,-0.205
2374,0.250,-0.205
2375,0.250,-0.165
2376,0.255,-0.130
2377,0.250,-0.115
2378,0.265,-0.120
2379,0.280,-0.100
2380,0.275,-0.060
2381,0.290,-0.060
2382,0.305,-0.070
2383,0.290,-0.105
2384,0.260,-0.125
2385,0.265,-0.150
2386,0.265,-0.205
2387,0.245,-0.250
2388,0.240,-0.260
2389,0.250,-0.220
2390,0.245,-0.230
2391,0.250,-0.245
2392,0.235,-0.230
2393,0.255,-0.215
2394,0.260,-0.220
2395,0.260,-0.205
2396,0.235,-0.200
2397,0.260,-0.190
2398,0.280,-0.185
2399,0.260,-0.155
2400,0.260,-0.195
2401,0.275,-0.375
2402,0.295,-0.580
2403,0.440,-0.380
2404,0.535,-0.030
2405,0.405,0.520
2406,-0.120,0.755
2407,-0.575,0.740
2408,-0.430,0.415
2409,-0.080,0.100
2410,0.210,-0.120
2411,0.290,-0.200
2412,0.325,-0.235
2413,0.325,-0.260
2414,0.340,-0.230
2415,0.375,-0.215
2416,0.375,-0.215
2417,0.355,-0.210
2418,0.380,-0.200
2419,0.380,-0.220
2420,0.385,-0.200
2421,0.415,-0.195
2422,0.410,-0.225
2423,0.405,-0.215
2424,0.430,-0.215
2425,0.460,-0.195
2426,0.475,-0.180
2427,0.505,-0.180
2428,0.515,-0.170
2429,0.545,-0.165
2430,0.545,-0.135
2431,0.485,-0.115
2432,0.500,-0.120
2433,0.505,-0.090
2434,0.475,-0.075
2435,0.475,-0.050
2436,0.420,-0.070
2437,0.395,-0.090
2438,0.365,-0.110
2439,0.355,-0.135
2440,0.305,-0.160
2441,0.290,-0.160
2442,0.290,-0.150
2443,0.285,-0.155
2444,0.280,-0.180
2445,0.285,-0.175
2446,0.280,-0.175
2447,0.310,-0.185
2448,0.270,-0.170
2449,0.270,-0.180
2450,0.285,-0.195
2451,0.265,-0.160
2452,0.275,-0.165
2453,0.280,-0.160
2454,0.295,-0.185
2455,0.295,-0.170
2456,0.310,-0.160
2457,0.295,-0.160
2458,0.310,-0.180
2459,0.285,-0.200
2460,0.280,-0.180
2461,0.270,-0.145
2462,0.265,-0.120
2463,0.280,-0.095
2464,0.275,-0.085
2465,0.295,-0.080
2466,0.310,-0.065
2467,0.295,-0.100
2468,0.280,-0.125
2469,0.260,-0.130
2470,0.270,-0.190
2471,0.270,-0.255
2472,0.255,-0.260
2473,0.250,-0.270
2474,0.250,-0.275
2475,0.250,-0.270
2476,0.230,-0.240
2477,0.240,-0.255
2478,0.230,-0.245
2479,0.255,-0.230
2480,0.260,-0.220
2481,0.260,-0.215
2482,0.275,-0.230
2483,0.275,-0.230
2484,0.260,-0.225
2485,0.235,-0.250
2486,0.270,-0.405
2487,0.305,-0.615
2488,0.435,-0.395
2489,0.555,-0.020
2490,0.385,0.540
2491,-0.160,0.700
2492,-0.620,0.670
2493,-0.400,0.345
2494,-0.060,0.050
2495,0.190,-0.180
2496,0.240,-0.270
2497,0.275,-0.265
2498,0.355,-0.240
2499,0.360,-0.245
2500,0.350,-0.240
2501,0.365,-0.240
2502,0.370,-0.255
2503,0.350,-0.230
2504,0.365,-0.235
2505,0.370,-0.245
2506,0.385,-0.245
2507,0.390,-0.230
2508,0.430,-0.225
2509,0.450,-0.210
2510,0.480,-0.215
2511,0.480,-0.215
2512,0.495,-0.205
2513,0.515,-0.205
2514,0.490,-0.180
2515,0.520,-0.170
2516,0.530,-0.140
2517,0.500,-0.135
2518,0.500,-0.110
2519,0.500,-0.065
2520,0.490,-0.080
2521,0.440,-0.095
2522,0.400,-0.100
2523,0.375,-0.130
2524,0.345,-0.155
2525,0.320,-0.145
2526,0.330,-0.140
2527,0.325,-0.180
2528,0.285,-0.195
2529,0.300,-0.200
2530,0.315,-0.200
2531,0.305,-0.175
2532,0.305,-0.200
2533,0.300,-0.195
2534,0.305,-0.195
2535,0.310,-0.185
2536,0.310,-0.190
2537,0.290,-0.190
2538,0.295,-0.195
2539,0.320,-0.190
2540,0.330,-0.180
2541,0.305,-0.185
2542,0.315,-0.185
2543,0.320,-0.180
2544,0.300,-0.195
2545,0.290,-0.175
2546,0.310,-0.155
2547,0.295,-0.135
2548,0.305,-0.140
2549,0.315,-0.105
2550,0.315,-0.090
2551,0.315,-0.085
2552,0.300,-0.100
2553,0.295,-0.120
2554,0.310,-0.125
2555,0.305,-0.175
2556,0.285,-0.245
2557,0.275,-0.280
2558,0.240,-0.270
2559,0.255,-0.255
2560,0.255,-0.265
2561,0.265,-0.235
2562,0.240,-0.245
2563,0.235,-0.250
2564,0.240,-0.260
2565,0.250,-0.235
2566,0.255,-0.230
2567,0.255,-0.240
2568,0.245,-0.225
2569,0.225,-0.220
2570,0.250,-0.235
2571,0.240,-0.355
2572,0.245,-0.590
2573,0.340,-0.470
2574,0.525,-0.125
2575,0.460,0.360
2576,0.020,0.700
2577,-0.575,0.695
2578,-0.590,0.475
2579,-0.230,0.095
2580,0.090,-0.145
2581,0.190,-0.260
2582,0.215,-0.300
2583,0.260,-0.280
2584,0.290,-0.280
2585,0.285,-0.260
2586,0.275,-0.260
2587,0.265,-0.270
2588,0.285,-0.275
2589,0.300,-0.285
2590,0.305,-0.260
2591,0.300,-0.250
2592,0.310,-0.300
2593,0.320,-0.295
2594,0.340,-0.275
2595,0.335,-0.285
2596,0.365,-0.275
2597,0.380,-0.260
2598,0.405,-0.275
2599,0.385,-0.230
2600,0.405,-0.235
2601,0.410,-0.205
2602,0.390,-0.155
2603,0.385,-0.155
2604,0.400,-0.185
2605,0.355,-0.170
2606,0.325,-0.175
2607,0.275,-0.190
2608,0.255,-0.205
2609,0.230,-0.235
2610,0.210,-0.250
2611,0.195,-0.250
2612,0.160,-0.255
2613,0.170,-0.255
2614,0.170,-0.275
2615,0.160,-0.265
2616,0.180,-0.255
2617,0.165,-0.260
2618,0.160,-0.260
2619,0.150,-0.260
2620,0.150,-0.245
2621,0.145,-0.265
2622,0.160,-0.260
2623,0.165,-0.260
2624,0.175,-0.280
2625,0.185,-0.245
2626,0.160,-0.275
2627,0.130,-0.280
2628,0.155,-0.265
2629,0.145,-0.255
2630,0.160,-0.275
2631,0.145,-0.280
2632,0.130,-0.240
2633,0.145,-0.220
2634,0.135,-0.195
2635,0.175,-0.170
2636,0.160,-0.160
2637,0.170,-0.155
2638,0.185,-0.160
2639,0.150,-0.190
2640,0.155,-0.215
2641,0.140,-0.235
2642,0.135,-0.300
2643,0.120,-0.340
2644,0.110,-0.320
2645,0.125,-0.315
2646,0.140,-0.290
2647,0.125,-0.315
2648,0.125,-0.315
2649,0.105,-0.305
2650,0.120,-0.335
2651,0.115,-0.315
2652,0.120,-0.290
2653,0.125,-0.280
2654,0.135,-0.285
2655,0.135,-0.290
2656,0.145,-0.290
2657,0.150,-0.365
2658,0.160,-0.635
2659,0.240,-0.605
2660,0.400,-0.235
2661,0.440,0.210
2662,0.115,0.695
2663,-0.470,0.710
2664,-0.700,0.505
2665,-0.385,0.100
2666,-0.010,-0.155
2667,0.120,-0.310
2668,0.135,-0.335
2669,0.155,-0.310
2670,0.210,-0.305
2671,0.205,-0.300
2672,0.230,-0.290
2673,0.225,-0.285
2674,0.250,-0.275
2675,0.260,-0.285
2676,0.215,-0.300
2677,0.225,-0.280
2678,0.225,-0.280
2679,0.245,-0.295
2680,0.270,-0.305
2681,0.285,-0.275
2682,0.310,-0.260
2683,0.320,-0.270
2684,0.355,-0.260
2685,0.355,-0.230
2686,0.355,-0.210
2687,0.345,-0.205
2688,0.335,-0.170
2689,0.345,-0.155
2690,0.355,-0.145
2691,0.315,-0.135
2692,0.285,-0.155
2693,0.255,-0.175
2694,0.245,-0.180
2695,0.195,-0.195
2696,0.195,-0.215
2697,0.180,-0.230
2698,0.165,-0.220
2699,0.165,-0.230
2700,0.160,-0.215
2701,0.170,-0.225
2702,0.145,-0.255
2703,0.150,-0.255
2704,0.150,-0.240
2705,0.150,-0.250
2706,0.145,-0.235
2707,0.160,-0.235
2708,0.165,-0.235
2709,0.160,-0.245
2710,0.160,-0.240
2711,0.185,-0.240
2712,0.180,-0.240
2713,0.165,-0.230
2714,0.160,-0.230
2715,0.170,-0.220
2716,0.160,-0.225
2717,0.135,-0.270
2718,0.145,-0.235
2719,0.160,-0.180
2720,0.155,-0.185
2721,0.155,-0.200
2722,0.140,-0.135
2723,0.145,-0.115
2724,0.175,-0.100
2725,0.165,-0.135
2726,0.150,-0.160
2727,0.150,-0.200
2728,0.150,-0.230
2729,0.100,-0.275
2730,0.115,-0.330
2731,0.140,-0.335
2732,0.115,-0.320
2733,0.110,-0.300
2734,0.120,-0.295
2735,0.090,-0.290
2736,0.100,-0.290
2737,0.115,-0.275
2738,0.130,-0.255
2739,0.135,-0.260
2740,0.110,-0.265
2741,0.115,-0.290
2742,0.125,-0.265
2743,0.175,-0.265
2744,0.165,-0.415
2745,0.170,-0.630
2746,0.295,-0.425
2747,0.405,-0.070
2748,0.275,0.530
2749,-0.230,0.775
2750,-0.705,0.740
2751,-0.535,0.425
2752,-0.205,0.095
2753,0.060,-0.120
2754,0.125,-0.185
2755,0.160,-0.240
2756,0.190,-0.225
2757,0.220,-0.240
2758,0.230,-0.230
2759,0.240,-0.240
2760,0.265,-0.250
2761,0.260,-0.255
2762,0.250,-0.255
2763,0.270,-0.260
2764,0.270,-0.245
2765,0.265,-0.250
2766,0.270,-0.270
2767,0.290,-0.250
2768,0.315,-0.225
2769,0.335,-0.225
2770,0.360,-0.215
2771,0.365,-0.190
2772,0.380,-0.165
2773,0.365,-0.145
2774,0.365,-0.125
2775,0.360,-0.090
2776,0.355,-0.110
2777,0.360,-0.085
2778,0.335,-0.060
2779,0.305,-0.050
2780,0.270,-0.080
2781,0.245,-0.075
2782,0.250,-0.090
2783,0.220,-0.115
2784,0.170,-0.135
2785,0.145,-0.150
2786,0.150,-0.140
2787,0.150,-0.160
2788,0.165,-0.135
2789,0.165,-0.145
2790,0.170,-0.145
2791,0.185,-0.140
2792,0.200,-0.130
2793,0.200,-0.175
2794,0.190,-0.145
2795,0.210,-0.145
2796,0.155,-0.175
2797,0.145,-0.155
2798,0.180,-0.120
2799,0.190,-0.135
2800,0.210,-0.145
2801,0.195,-0.160
2802,0.180,-0.135
2803,0.180,-0.145
2804,0.185,-0.140
2805,0.185,-0.135
2806,0.170,-0.100
2807,0.175,-0.060
2808,0.195,-0.040
2809,0.195,-0.005
2810,0.190,-0.005
2811,0.205,-0.005
2812,0.190,0.000
2813,0.185,-0.045
2814,0.165,-0.100
2815,0.145,-0.115
2816,0.165,-0.150
2817,0.155,-0.155
2818,0.140,-0.180
2819,0.145,-0.185
2820,0.140,-0.150
2821,0.150,-0.165
2822,0.135,-0.185
2823,0.140,-0.180
2824,0.125,-0.165
2825,0.130,-0.165
2826,0.120,-0.160
2827,0.120,-0.135
2828,0.135,-0.115
2829,0.135,-0.160
2830,0.125,-0.130
2831,0.130,-0.185
2832,0.125,-0.390
2833,0.165,-0.500
2834,0.320,-0.240
2835,0.405,0.170
2836,0.155,0.750
2837,-0.430,0.800
2838,-0.780,0.750
2839,-0.480,0.310
2840,-0.150,0.025
2841,0.075,-0.150
2842,0.100,-0.215
2843,0.140,-0.235
2844,0.165,-0.205
2845,0.200,-0.200
2846,0.200,-0.190
2847,0.200,-0.180
2848,0.210,-0.175
2849,0.195,-0.165
2850,0.205,-0.160
2851,0.195,-0.155
2852,0.225,-0.175
2853,0.220,-0.160
2854,0.260,-0.160
2855,0.270,-0.175
2856,0.300,-0.165
2857,0.310,-0.170
2858,0.330,-0.165
2859,0.340,-0.130
2860,0.350,-0.110
2861,0.360,-0.040
2862,0.340,-0.070
2863,0.345,-0.030
2864,0.330,0.000
2865,0.305,-0.020
2866,0.300,-0.020
2867,0.250,-0.025
2868,0.235,-0.025
2869,0.205,-0.035
2870,0.165,-0.050
2871,0.150,-0.070
2872,0.130,-0.070
2873,0.130,-0.065
2874,0.120,-0.060
2875,0.145,-0.065
2876,0.145,-0.060
2877,0.120,-0.060
2878,0.105,-0.060
2879,0.095,-0.060
2880,0.125,-0.080
2881,0.120,-0.060
2882,0.110,-0.070
2883,0.115,-0.065
2884,0.120,-0.065
2885,0.150,-0.075
2886,0.145,-0.065
2887,0.120,-0.090
2888,0.110,-0.105
2889,0.120,-0.095
2890,0.120,-0.115
2891,0.105,-0.090
2892,0.110,-0.080
2893,0.105,-0.100
2894,0.085,-0.105
2895,0.085,-0.080
2896,0.090,-0.070
2897,0.100,-0.050
2898,0.100,-0.015
2899,0.095,0.000
2900,0.095,0.030
2901,0.120,0.030
2902,0.130,0.000
2903,0.135,0.000
2904,0.140,-0.050
2905,0.100,-0.115
2906,0.080,-0.180
2907,0.100,-0.195
2908,0.085,-0.180
2909,0.080,-0.160
2910,0.075,-0.145
2911,0.080,-0.140
2912,0.080,-0.145
2913,0.085,-0.140
2914,0.090,-0.135
2915,0.075,-0.125
2916,0.095,-0.125
2917,0.085,-0.135
2918,0.090,-0.145
2919,0.100,-0.120
2920,0.100,-0.115
2921,0.115,-0.175
2922,0.105,-0.445
2923,0.170,-0.465
2924,0.325,-0.175
2925,0.395,0.255
2926,0.025,0.760
2927,-0.630,0.775
2928,-0.860,0.665
2929,-0.520,0.290
2930,-0.150,0.040
2931,0.045,-0.120
2932,0.085,-0.190
2933,0.125,-0.200
2934,0.150,-0.195
2935,0.160,-0.200
2936,0.160,-0.190
2937,0.160,-0.195
2938,0.165,-0.185
2939,0.185,-0.180
2940,0.175,-0.175
2941,0.190,-0.175
2942,0.210,-0.190
2943,0.225,-0.185
2944,0.245,-0.185
2945,0.250,-0.170
2946,0.285,-0.195
2947,0.305,-0.160
2948,0.310,-0.165
2949,0.305,-0.150
2950,0.315,-0.120
2951,0.320,-0.120
2952,0.305,-0.095
2953,0.290,-0.095
2954,0.275,-0.080
2955,0.270,-0.065
2956,0.260,-0.075
2957,0.215,-0.065
2958,0.185,-0.080
2959,0.135,-0.095
2960,0.120,-0.130
2961,0.085,-0.150
2962,0.080,-0.155
2963,0.060,-0.170
2964,0.055,-0.185
2965,0.055,-0.175
2966,0.035,-0.180
2967,0.045,-0.170
2968,0.055,-0.180
2969,0.045,-0.175
2970,0.055,-0.190
2971,0.030,-0.200
2972,0.025,-0.195
2973,0.045,-0.195
2974,0.030,-0.190
2975,0.025,-0.200
2976,0.025,-0.215
2977,0.025,-0.215
2978,0.030,-0.215
2979,0.025,-0.225
2980,0.000,-0.225
2981,0.000,-0.215
2982,0.000,-0.235
2983,0.005,-0.235
2984,0.010,-0.210
2985,-0.010,-0.190
2986,0.000,-0.155
2987,0.010,-0.150
2988,0.000,-0.130
2989,0.000,-0.090
2990,0.000,-0.090
2991,0.025,-0.090
2992,0.000,-0.135
2993,0.000,-0.130
2994,0.010,-0.175
2995,-0.015,-0.240
2996,-0.020,-0.290
2997,-0.020,-0.280
2998,-0.015,-0.275
2999,-0.030,-0.275
3000,-0.045,-0.265
3001,-0.040,-0.270
3002,-0.045,-0.260
3003,-0.040,-0.255
3004,-0.065,-0.250
3005,-0.035,-0.240
3006,-0.045,-0.255
3007,-0.050,-0.245
3008,-0.040,-0.245
3009,-0.050,-0.255
3010,-0.040,-0.240
3011,-0.050,-0.300
3012,-0.025,-0.570
3013,0.015,-0.600
3014,0.185,-0.265
3015,0.260,0.145
3016,0.000,0.655
3017,-0.630,0.710
3018,-0.995,0.590
3019,-0.665,0.155
3020,-0.300,-0.085
3021,-0.085,-0.235
3022,-0.050,-0.295
3023,-0.020,-0.280
3024,0.000,-0.265
3025,0.025,-0.260
3026,0.020,-0.240
3027,0.025,-0.250
3028,0.000,-0.230
3029,0.015,-0.240
3030,0.030,-0.220
3031,0.040,-0.240
3032,0.050,-0.225
3033,0.095,-0.205
3034,0.100,-0.200
3035,0.080,-0.185
3036,0.095,-0.175
3037,0.140,-0.170
3038,0.150,-0.145
3039,0.165,-0.115
3040,0.185,-0.085
3041,0.195,-0.035
3042,0.190,-0.015
3043,0.220,-0.030
3044,0.205,-0.020
3045,0.200,0.005
3046,0.165,-0.020
3047,0.150,-0.030
3048,0.140,-0.050
3049,0.095,-0.060
3050,0.100,-0.080
3051,0.090,-0.085
3052,0.090,-0.080
3053,0.110,-0.100
3054,0.105,-0.115
3055,0.085,-0.120
3056,0.105,-0.110
3057,0.130,-0.130
3058,0.115,-0.135
3059,0.120,-0.130
3060,0.135,-0.120
3061,0.145,-0.115
3062,0.140,-0.125
3063,0.135,-0.120
3064,0.160,-0.115
3065,0.165,-0.130
3066,0.175,-0.145
3067,0.170,-0.135
3068,0.160,-0.145
3069,0.155,-0.155
3070,0.130,-0.110
3071,0.150,-0.125
3072,0.135,-0.120
3073,0.165,-0.120
3074,0.155,-0.125
3075,0.140,-0.110
3076,0.175,-0.100
3077,0.170,-0.055
3078,0.180,-0.025
3079,0.165,-0.010
3080,0.170,-0.020
3081,0.175,-0.060
3082,0.170,-0.095
3083,0.180,-0.135
3084,0.155,-0.190
3085,0.155,-0.240
3086,0.155,-0.235
3087,0.125,-0.225
3088,0.125,-0.220
3089,0.145,-0.210
3090,0.150,-0.205
3091,0.130,-0.215
3092,0.125,-0.195
3093,0.140,-0.210
3094,0.120,-0.195
3095,0.140,-0.210
3096,0.145,-0.200
3097,0.145,-0.195
3098,0.150,-0.180
3099,0.110,-0.185
3100,0.120,-0.285
3101,0.155,-0.550
3102,0.235,-0.455
3103,0.355,-0.105
3104,0.320,0.475
3105,-0.125,0.840
3106,-0.690,0.820
3107,-0.685,0.600
3108,-0.370,0.190
3109,-0.050,-0.060
3110,0.050,-0.200
3111,0.075,-0.235
3112,0.105,-0.220
3113,0.115,-0.195
3114,0.135,-0.195
3115,0.100,-0.195
3116,0.105,-0.195
3117,0.120,-0.190
3118,0.105,-0.165
3119,0.110,-0.185
3120,0.115,-0.185
3121,0.120,-0.175
3122,0.130,-0.195
3123,0.150,-0.200
3124,0.165,-0.190
3125,0.195,-0.180
3126,0.150,-0.170
3127,0.185,-0.150
3128,0.195,-0.150
3129,0.190,-0.130
3130,0.210,-0.100
3131,0.205,-0.075
3132,0.205,-0.075
3133,0.215,-0.050
3134,0.210,-0.025
3135,0.150,-0.060
3136,0.115,-0.070
3137,0.055,-0.060
3138,0.035,-0.075
3139,0.055,-0.110
3140,0.020,-0.120
3141,0.025,-0.130
3142,0.035,-0.150
3143,0.015,-0.135
3144,0.015,-0.140
3145,-0.010,-0.150
3146,-0.010,-0.150
3147,-0.005,-0.145
3148,0.000,-0.150
3149,-0.005,-0.145
3150,-0.010,-0.130
3151,0.000,-0.110
3152,0.000,-0.105
3153,-0.010,-0.110
3154,-0.010,-0.100
3155,-0.035,-0.080
3156,-0.025,-0.075
3157,-0.005,-0.065
3158,0.000,-0.055
3159,0.010,-0.065
3160,-0.035,-0.060
3161,-0.040,-0.055
3162,-0.035,-0.050
3163,-0.025,-0.005
3164,0.000,0.010
3165,-0.010,0.035
3166,-0.025,0.065
3167,-0.025,0.100
3168,0.000,0.110
3169,0.020,0.085
3170,0.015,0.065
3171,0.015,0.050
3172,-0.005,0.025
3173,0.005,-0.030
3174,0.000,-0.075
3175,-0.015,-0.065
3176,-0.050,-0.060
3177,-0.035,-0.045
3178,-0.015,-0.050
3179,-0.030,-0.030
3180,-0.015,-0.025
3181,0.000,-0.025
3182,-0.005,-0.015
3183,-0.025,-0.005
3184,-0.010,0.000
3185,0.010,0.000
3186,-0.010,0.015
3187,-0.005,0.000
3188,-0.015,-0.040
3189,0.000,-0.310
3190,0.040,-0.350
3191,0.190,-0.030
3192,0.245,0.405
3193,-0.045,0.900
3194,-0.670,0.925
3195,-0.940,0.820
3196,-0.580,0.420
3197,-0.260,0.165
3198,-0.055,-0.005
3199,-0.035,-0.060
3200,0.010,-0.075
3201,0.030,-0.065
3202,0.035,-0.040
3203,0.070,-0.055
3204,0.065,-0.050
3205,0.060,-0.035
3206,0.055,-0.045
3207,0.095,-0.040
3208,0.110,-0.040
3209,0.090,-0.035
3210,0.110,-0.065
3211,0.130,-0.070
3212,0.140,-0.065
3213,0.160,-0.045
3214,0.185,-0.040
3215,0.215,-0.025
3216,0.210,-0.020
3217,0.220,-0.005
3218,0.220,-0.005
3219,0.215,0.000
3220,0.250,0.015
3221,0.245,0.035
3222,0.190,0.045
3223,0.170,0.045
3224,0.145,0.035
3225,0.110,0.015
3226,0.080,0.005
3227,0.060,0.000
3228,0.025,-0.025
3229,0.050,-0.015
3230,0.050,-0.010
3231,0.040,-0.035
3232,0.035,-0.025
3233,0.050,-0.025
3234,0.070,-0.030
3235,0.035,-0.045
3236,0.065,-0.050
3237,0.060,-0.050
3238,0.050,-0.050
3239,0.060,-0.050
3240,0.080,-0.050
3241,0.095,-0.040
3242,0.105,-0.065
3243,0.115,-0.065
3244,0.135,-0.075
3245,0.115,-0.095
3246,0.085,-0.100
3247,0.115,-0.115
3248,0.130,-0.120
3249,0.100,-0.130
3250,0.105,-0.115
3251,0.120,-0.125
3252,0.105,-0.100
3253,0.130,-0.090
3254,0.130,-0.065
3255,0.145,-0.045
3256,0.140,-0.010
3257,0.150,-0.005
3258,0.145,-0.020
3259,0.165,-0.040
3260,0.180,-0.060
3261,0.160,-0.100
3262,0.150,-0.165
3263,0.155,-0.240
3264,0.160,-0.230
3265,0.145,-0.215
3266,0.125,-0.195
3267,0.125,-0.215
3268,0.140,-0.200
3269,0.130,-0.210
3270,0.120,-0.210
3271,0.140,-0.190
3272,0.155,-0.230
3273,0.155,-0.230
3274,0.160,-0.240
3275,0.140,-0.230
3276,0.155,-0.245
3277,0.155,-0.340
3278,0.170,-0.615
3279,0.215,-0.640
3280,0.385,-0.320
3281,0.450,0.115
3282,0.155,0.610
3283,-0.450,0.630
3284,-0.710,0.525
3285,-0.395,0.140
3286,-0.040,-0.120
3287,0.150,-0.285
3288,0.190,-0.360
3289,0.240,-0.355
3290,0.265,-0.350
3291,0.300,-0.340
3292,0.290,-0.315
3293,0.320,-0.320
3294,0.340,-0.330
3295,0.355,-0.335
3296,0.330,-0.325
3297,0.345,-0.315
3298,0.355,-0.325
3299,0.380,-0.330
3300,0.400,-0.325
3301,0.425,-0.345
3302,0.460,-0.325
3303,0.475,-0.335
3304,0.490,-0.320
3305,0.490,-0.315
3306,0.520,-0.305
3307,0.510,-0.290
3308,0.495,-0.280
3309,0.500,-0.245
3310,0.520,-0.265
3311,0.470,-0.245
3312,0.450,-0.225
3313,0.420,-0.220
3314,0.410,-0.255
3315,0.365,-0.260
3316,0.330,-0.290
3317,0.305,-0.305
3318,0.295,-0.320
3319,0.270,-0.325
3320,0.260,-0.335
3321,0.260,-0.320
3322,0.275,-0.335
3323,0.280,-0.340
3324,0.245,-0.340
3325,0.275,-0.340
3326,0.270,-0.335
3327,0.265,-0.355
3328,0.275,-0.355
3329,0.265,-0.345
3330,0.275,-0.355
3331,0.295,-0.345
3332,0.305,-0.325
3333,0.280,-0.330
3334,0.295,-0.335
3335,0.310,-0.355
3336,0.300,-0.345
3337,0.295,-0.350
3338,0.275,-0.355
3339,0.275,-0.365
3340,0.275,-0.345
3341,0.285,-0.315
3342,0.290,-0.300
3343,0.295,-0.265
3344,0.295,-0.260
3345,0.310,-0.220
3346,0.315,-0.220
3347,0.335,-0.210
3348,0.320,-0.250
3349,0.325,-0.275
3350,0.320,-0.300
3351,0.295,-0.335
3352,0.285,-0.390
3353,0.300,-0.420
3354,0.300,-0.420
3355,0.280,-0.405
3356,0.295,-0.405
3357,0.305,-0.405
3358,0.300,-0.390
3359,0.295,-0.390
3360,0.295,-0.400
3361,0.295,-0.385
3362,0.310,-0.395
3363,0.310,-0.390
3364,0.315,-0.390
3365,0.315,-0.385
3366,0.290,-0.380
3367,0.300,-0.430
3368,0.305,-0.675
3369,0.355,-0.770
3370,0.495,-0.455
3371,0.595,-0.030
3372,0.300,0.490
3373,-0.305,0.545
3374,-0.620,0.455
3375,-0.305,0.095
3376,0.050,-0.165
3377,0.235,-0.345
3378,0.290,-0.440
3379,0.310,-0.455
3380,0.340,-0.430
3381,0.360,-0.425
3382,0.365,-0.425
3383,0.365,-0.405
3384,0.375,-0.390
3385,0.395,-0.400
3386,0.380,-0.400
3387,0.425,-0.400
3388,0.410,-0.395
3389,0.410,-0.395
3390,0.455,-0.385
3391,0.460,-0.390
3392,0.470,-0.400
3393,0.495,-0.380
3394,0.530,-0.370
3395,0.530,-0.340
3396,0.530,-0.365
3397,0.550,-0.340
3398,0.545,-0.320
3399,0.540,-0.305
3400,0.505,-0.300
3401,0.520,-0.300
3402,0.480,-0.285
3403,0.460,-0.280
3404,0.425,-0.315
3405,0.385,-0.340
3406,0.345,-0.355
3407,0.345,-0.375
3408,0.345,-0.385
3409,0.310,-0.405
3410,0.305,-0.400
3411,0.280,-0.430
3412,0.290,-0.395
3413,0.275,-0.410
3414,0.310,-0.415
3415,0.295,-0.415
3416,0.295,-0.420
3417,0.295,-0.430
3418,0.305,-0.425
3419,0.315,-0.430
3420,0.310,-0.430
3421,0.280,-0.445
3422,0.285,-0.430
3423,0.305,-0.430
3424,0.310,-0.440
3425,0.325,-0.435
3426,0.320,-0.435
3427,0.285,-0.450
3428,0.300,-0.460
3429,0.310,-0.445
3430,0.290,-0.450
3431,0.280,-0.420
3432,0.295,-0.395
3433,0.295,-0.375
3434,0.290,-0.325
3435,0.320,-0.320
3436,0.315,-0.315
3437,0.340,-0.350
3438,0.330,-0.375
3439,0.330,-0.390
3440,0.270,-0.450
3441,0.290,-0.500
3442,0.300,-0.540
3443,0.260,-0.515
3444,0.255,-0.515
3445,0.270,-0.500
3446,0.250,-0.490
3447,0.250,-0.490
3448,0.265,-0.490
3449,0.260,-0.480
3450,0.260,-0.480
3451,0.240,-0.495
3452,0.245,-0.475
3453,0.240,-0.480
3454,0.245,-0.455
3455,0.255,-0.465
3456,0.235,-0.505
3457,0.255,-0.755
3458,0.310,-0.875
3459,0.440,-0.525
3460,0.560,-0.155
3461,0.400,0.355
3462,-0.125,0.490
3463,-0.620,0.420
3464,-0.400,0.000
3465,-0.025,-0.280
3466,0.200,-0.445
3467,0.240,-0.515
3468,0.275,-0.525
3469,0.290,-0.515
3470,0.305,-0.505
3471,0.300,-0.485
3472,0.285,-0.495
3473,0.295,-0.495
3474,0.320,-0.490
3475,0.310,-0.490
3476,0.325,-0.475
3477,0.335,-0.490
3478,0.335,-0.485
3479,0.370,-0.490
3480,0.355,-0.470
3481,0.385,-0.455
3482,0.390,-0.475
3483,0.405,-0.440
3484,0.435,-0.445
3485,0.445,-0.410
3486,0.435,-0.380
3487,0.455,-0.380
3488,0.435,-0.375
3489,0.425,-0.370
3490,0.395,-0.360
3491,0.370,-0.355
3492,0.345,-0.365
3493,0.315,-0.395
3494,0.285,-0.400
3495,0.260,-0.420
3496,0.240,-0.445
3497,0.230,-0.440
3498,0.225,-0.455
3499,0.215,-0.460
3500,0.200,-0.455
3501,0.215,-0.455
3502,0.210,-0.455
3503,0.210,-0.460
3504,0.195,-0.450
3505,0.190,-0.455
3506,0.190,-0.470
3507,0.215,-0.460
3508,0.205,-0.465
3509,0.205,-0.465
3510,0.200,-0.460
3511,0.205,-0.460
3512,0.215,-0.470
3513,0.215,-0.450
3514,0.220,-0.465
3515,0.220,-0.455
3516,0.230,-0.465
3517,0.235,-0.465
3518,0.230,-0.435
3519,0.230,-0.440
3520,0.215,-0.415
3521,0.205,-0.410
3522,0.230,-0.385
3523,0.230,-0.315
3524,0.245,-0.310
3525,0.265,-0.320
3526,0.275,-0.355
3527,0.275,-0.375
3528,0.275,-0.410
3529,0.255,-0.460
3530,0.250,-0.510
3531,0.245,-0.525
3532,0.230,-0.515
3533,0.245,-0.515
3534,0.240,-0.495
3535,0.265,-0.500
3536,0.265,-0.490
3537,0.270,-0.465
3538,0.290,-0.480
3539,0.265,-0.480
3540,0.265,-0.475
3541,0.295,-0.485
3542,0.285,-0.480
3543,0.305,-0.460
3544,0.275,-0.460
3545,0.305,-0.505
3546,0.310,-0.745
3547,0.365,-0.815
3548,0.525,-0.500
3549,0.620,-0.100
3550,0.450,0.415
3551,-0.105,0.520
3552,-0.495,0.365
3553,-0.270,-0.060
3554,0.085,-0.305
3555,0.285,-0.450
3556,0.310,-0.500
3557,0.365,-0.505
3558,0.375,-0.485
3559,0.395,-0.475
3560,0.400,-0.470
3561,0.415,-0.465
3562,0.395,-0.465
3563,0.390,-0.465
3564,0.415,-0.455
3565,0.415,-0.445
3566,0.455,-0.450
3567,0.450,-0.455
3568,0.465,-0.460
3569,0.490,-0.455
3570,0.515,-0.445
3571,0.525,-0.435
3572,0.540,-0.430
3573,0.545,-0.405
3574,0.550,-0.370
3575,0.560,-0.365
3576,0.555,-0.330
3577,0.540,-0.315
3578,0.560,-0.315
3579,0.525,-0.300
3580,0.515,-0.320
3581,0.490,-0.330
3582,0.440,-0.345
3583,0.395,-0.360
3584,0.410,-0.370
3585,0.380,-0.385
3586,0.375,-0.390
3587,0.360,-0.390
3588,0.340,-0.420
3589,0.350,-0.410
3590,0.340,-0.420
3591,0.335,-0.420
3592,0.340,-0.430
3593,0.345,-0.400
3594,0.350,-0.400
3595,0.345,-0.405
3596,0.345,-0.410
3597,0.335,-0.410
3598,0.350,-0.410
3599,0.350,-0.425
3600,0.350,-0.410
3601,0.370,-0.425
3602,0.350,-0.415
3603,0.345,-0.410
3604,0.350,-0.405
3605,0.345,-0.415
3606,0.335,-0.405
3607,0.335,-0.365
3608,0.350,-0.345
3609,0.345,-0.350
3610,0.345,-0.295
3611,0.355,-0.300
3612,0.360,-0.290
3613,0.370,-0.285
3614,0.360,-0.330
3615,0.360,-0.350
3616,0.320,-0.400
3617,0.315,-0.450
3618,0.320,-0.475
3619,0.295,-0.475
3620,0.300,-0.470
3621,0.285,-0.465
3622,0.270,-0.450
3623,0.275,-0.450
3624,0.285,-0.445
3625,0.280,-0.425
3626,0.280,-0.450
3627,0.285,-0.440
3628,0.300,-0.445
3629,0.280,-0.420
3630,0.275,-0.410
3631,0.260,-0.415
3632,0.260,-0.465
3633,0.280,-0.715
3634,0.355,-0.685
3635,0.515,-0.390
3636,0.540,0.090
3637,0.215,0.545
3638,-0.370,0.550
3639,-0.560,0.400
3640,-0.240,0.000
3641,0.065,-0.250
3642,0.250,-0.415
3643,0.255,-0.465
3644,0.310,-0.465
3645,0.305,-0.470
3646,0.340,-0.470
3647,0.330,-0.460
3648,0.340,-0.455
3649,0.340,-0.445
3650,0.345,-0.430
3651,0.370,-0.435
3652,0.365,-0.420
3653,0.380,-0.440
3654,0.385,-0.425
3655,0.400,-0.430
3656,0.415,-0.425
3657,0.430,-0.410
3658,0.420,-0.405
3659,0.435,-0.375
3660,0.450,-0.345
3661,0.455,-0.325
3662,0.450,-0.315
3663,0.480,-0.290
3664,0.460,-0.280
3665,0.440,-0.260
3666,0.410,-0.255
3667,0.395,-0.250
3668,0.365,-0.250
3669,0.345,-0.260
3670,0.295,-0.290
3671,0.265,-0.300
3672,0.265,-0.315
3673,0.245,-0.335
3674,0.225,-0.335
3675,0.235,-0.335
3676,0.205,-0.340
3677,0.195,-0.350
3678,0.205,-0.335
3679,0.215,-0.345
3680,0.220,-0.340
3681,0.235,-0.340
3682,0.245,-0.340
3683,0.190,-0.355
3684,0.215,-0.345
3685,0.230,-0.350
3686,0.225,-0.350
3687,0.220,-0.350
3688,0.230,-0.335
3689,0.255,-0.355
3690,0.265,-0.340
3691,0.245,-0.330
3692,0.245,-0.335
3693,0.220,-0.300
3694,0.260,-0.270
3695,0.250,-0.260
3696,0.275,-0.210
3697,0.290,-0.200
3698,0.280,-0.195
3699,0.330,-0.205
3700,0.325,-0.230
3701,0.285,-0.260
3702,0.280,-0.305
3703,0.260,-0.355
3704,0.250,-0.385
3705,0.255,-0.380
3706,0.235,-0.385
3707,0.250,-0.350
3708,0.250,-0.355
3709,0.255,-0.350
3710,0.250,-0.355
3711,0.240,-0.355
3712,0.270,-0.365
3713,0.275,-0.360
3714,0.235,-0.360
3715,0.255,-0.350
3716,0.250,-0.330
3717,0.245,-0.360
3718,0.265,-0.560
3719,0.330,-0.670
3720,0.470,-0.400
3721,0.540,0.010
3722,0.320,0.575
3723,-0.205,0.640
3724,-0.580,0.580
3725,-0.375,0.215
3726,-0.050,-0.080
3727,0.195,-0.290
3728,0.260,-0.360
3729,0.290,-0.400
3730,0.295,-0.385
3731,0.310,-0.385
3732,0.305,-0.365
3733,0.305,-0.380
3734,0.305,-0.365
3735,0.320,-0.360
3736,0.335,-0.355
3737,0.335,-0.360
3738,0.340,-0.360
3739,0.360,-0.370
3740,0.380,-0.380
3741,0.405,-0.365
3742,0.405,-0.365
3743,0.420,-0.365
3744,0.425,-0.350
3745,0.445,-0.325
3746,0.460,-0.300
3747,0.455,-0.280
3748,0.455,-0.275
3749,0.455,-0.255
3750,0.470,-0.235
3751,0.435,-0.225
3752,0.410,-0.215
3753,0.345,-0.235
3754,0.320,-0.225
3755,0.315,-0.250
3756,0.265,-0.260
3757,0.245,-0.260
3758,0.245,-0.290
3759,0.230,-0.295
3760,0.215,-0.305
3761,0.200,-0.300
3762,0.215,-0.300
3763,0.215,-0.310
3764,0.195,-0.300
3765,0.190,-0.295
3766,0.210,-0.305
3767,0.225,-0.295
3768,0.210,-0.285
3769,0.210,-0.300
3770,0.205,-0.305
3771,0.215,-0.300
3772,0.215,-0.295
3773,0.225,-0.295
3774,0.210,-0.285
3775,0.215,-0.280
3776,0.220,-0.275
3777,0.235,-0.260
3778,0.215,-0.230
3779,0.205,-0.215
3780,0.230,-0.190
3781,0.220,-0.175
3782,0.220,-0.160
3783,0.245,-0.165
3784,0.270,-0.195
3785,0.240,-0.215
3786,0.210,-0.235
3787,0.205,-0.285
3788,0.210,-0.340
3789,0.205,-0.360
3790,0.180,-0.350
3791,0.160,-0.330
3792,0.175,-0.325
3793,0.200,-0.305
3794,0.200,-0.300
3795,0.170,-0.305
3796,0.175,-0.295
3797,0.200,-0.295
3798,0.185,-0.300
3799,0.185,-0.300
3800,0.185,-0.295
3801,0.185,-0.295
3802,0.200,-0.400
3803,0.235,-0.635
3804,0.310,-0.515
3805,0.460,-0.200
3806,0.440,0.350
3807,0.030,0.670
3808,-0.535,0.645
3809,-0.595,0.390
3810,-0.245,0.030
3811,0.055,-0.190
3812,0.195,-0.295
3813,0.225,-0.335
3814,0.260,-0.340
3815,0.290,-0.315
3816,0.305,-0.305
3817,0.310,-0.310
3818,0.320,-0.295
3819,0.325,-0.315
3820,0.315,-0.290
3821,0.315,-0.285
3822,0.335,-0.280
3823,0.360,-0.270
3824,0.380,-0.290
3825,0.385,-0.290
3826,0.415,-0.280
3827,0.440,-0.280
3828,0.445,-0.260
3829,0.460,-0.245
3830,0.465,-0.240
3831,0.485,-0.220
3832,0.485,-0.180
3833,0.490,-0.175
3834,0.450,-0.145
3835,0.455,-0.135
3836,0.445,-0.110
3837,0.405,-0.120
3838,0.360,-0.140
3839,0.340,-0.140
3840,0.300,-0.190
3841,0.280,-0.185
3842,0.240,-0.205
3843,0.245,-0.210
3844,0.245,-0.230
3845,0.230,-0.215
3846,0.255,-0.235
3847,0.245,-0.225
3848,0.225,-0.235
3849,0.220,-0.230
3850,0.245,-0.230
3851,0.240,-0.225
3852,0.240,-0.210
3853,0.255,-0.220
3854,0.255,-0.225
3855,0.250,-0.230
3856,0.255,-0.235
3857,0.245,-0.225
3858,0.245,-0.220
3859,0.245,-0.240
3860,0.235,-0.235
3861,0.220,-0.180
3862,0.235,-0.160
3863,0.245,-0.165
3864,0.255,-0.120
3865,0.240,-0.095
3866,0.260,-0.105
3867,0.265,-0.090
3868,0.260,-0.135
3869,0.240,-0.150
3870,0.250,-0.165
3871,0.225,-0.230
3872,0.205,-0.290
3873,0.220,-0.310
3874,0.210,-0.285
3875,0.210,-0.280
3876,0.210,-0.275
3877,0.200,-0.290
3878,0.205,-0.300
3879,0.205,-0.295
3880,0.195,-0.295
3881,0.185,-0.275
3882,0.210,-0.265
3883,0.220,-0.255
3884,0.195,-0.235
3885,0.200,-0.255
3886,0.205,-0.375
3887,0.220,-0.640
3888,0.310,-0.495
3889,0.455,-0.150
3890,0.405,0.410
3891,-0.035,0.690
3892,-0.560,0.685
3893,-0.575,0.405
3894,-0.240,0.055
3895,0.055,-0.180
3896,0.160,-0.295
3897,0.185,-0.335
3898,0.230,-0.330
3899,0.255,-0.325
3900,0.250,-0.305
3901,0.250,-0.295
3902,0.265,-0.290
3903,0.270,-0.290
3904,0.290,-0.285
3905,0.280,-0.290
3906,0.290,-0.300
3907,0.305,-0.290
3908,0.315,-0.300
3909,0.345,-0.285
3910,0.365,-0.300
3911,0.380,-0.290
3912,0.410,-0.300
3913,0.395,-0.300
3914,0.415,-0.285
3915,0.425,-0.255
3916,0.410,-0.220
3917,0.415,-0.240
3918,0.400,-0.200
3919,0.405,-0.170
3920,0.385,-0.170
3921,0.350,-0.180
3922,0.310,-0.190
3923,0.285,-0.220
3924,0.260,-0.220
3925,0.230,-0.255
3926,0.210,-0.250
3927,0.205,-0.280
3928,0.195,-0.265
3929,0.190,-0.280
3930,0.195,-0.270
3931,0.200,-0.250
3932,0.195,-0.250
3933,0.175,-0.260
3934,0.195,-0.265
3935,0.185,-0.250
3936,0.185,-0.230
3937,0.175,-0.220
3938,0.185,-0.220
3939,0.185,-0.200
3940,0.175,-0.195
3941,0.175,-0.180
3942,0.180,-0.185
3943,0.165,-0.185
3944,0.155,-0.185
3945,0.165,-0.155
3946,0.155,-0.125
3947,0.160,-0.115
3948,0.170,-0.075
3949,0.145,-0.070
3950,0.160,-0.060
3951,0.180,-0.070
3952,0.155,-0.095
3953,0.155,-0.130
3954,0.120,-0.150
3955,0.095,-0.225
3956,0.075,-0.270
3957,0.070,-0.275
3958,0.055,-0.255
3959,0.060,-0.260
3960,0.055,-0.265
3961,0.055,-0.280
3962,0.050,-0.275
3963,0.045,-0.260
3964,0.055,-0.275
3965,0.030,-0.275
3966,0.035,-0.265
3967,0.050,-0.250
3968,0.040,-0.250
3969,0.040,-0.240
3970,0.040,-0.325
3971,0.040,-0.630
3972,0.125,-0.580
3973,0.290,-0.260
3974,0.310,0.220
3975,-0.085,0.635
3976,-0.725,0.650
3977,-0.885,0.470
3978,-0.515,0.105
3979,-0.160,-0.130
3980,-0.005,-0.290
3981,0.035,-0.350
3982,0.050,-0.335
3983,0.070,-0.340
3984,0.085,-0.340
3985,0.090,-0.335
3986,0.080,-0.350
3987,0.085,-0.325
3988,0.100,-0.335
3989,0.100,-0.335
3990,0.120,-0.350
3991,0.130,-0.355
3992,0.130,-0.370
3993,0.165,-0.380
3994,0.155,-0.375
3995,0.175,-0.385
3996,0.190,-0.380
3997,0.215,-0.365
3998,0.220,-0.345
3999,0.230,-0.340
4000,0.230,-0.340
4001,0.220,-0.310
4002,0.220,-0.295
4003,0.210,-0.280
4004,0.190,-0.270
4005,0.150,-0.265
4006,0.110,-0.245
4007,0.105,-0.285
4008,0.065,-0.300
4009,0.045,-0.285
4010,0.000,-0.310
4011,0.000,-0.305
4012,0.000,-0.315
4013,-0.015,-0.310
4014,-0.010,-0.295
4015,-0.010,-0.285
4016,-0.010,-0.270
4017,0.005,-0.285
4018,0.000,-0.290
4019,-0.005,-0.310
4020,0.005,-0.340
4021,0.005,-0.360
4022,-0.005,-0.360
4023,0.010,-0.360
4024,0.035,-0.365
4025,0.030,-0.370
4026,0.015,-0.375
4027,0.010,-0.360
4028,0.020,-0.365
4029,0.015,-0.370
4030,-0.005,-0.360
4031,0.000,-0.315
4032,0.020,-0.285
4033,0.015,-0.260
4034,0.030,-0.245
4035,0.030,-0.255
4036,0.045,-0.280
4037,0.025,-0.320
4038,0.015,-0.345
4039,0.000,-0.395
4040,0.005,-0.460
4041,0.000,-0.485
4042,-0.015,-0.490
4043,-0.050,-0.470
4044,-0.060,-0.450
4045,-0.035,-0.450
4046,-0.035,-0.455
4047,-0.025,-0.440
4048,-0.015,-0.450
4049,-0.025,-0.470
4050,-0.030,-0.445
4051,-0.035,-0.445
4052,-0.020,-0.440
4053,-0.035,-0.440
4054,-0.030,-0.455
4055,-0.020,-0.650
4056,0.000,-0.815
4057,0.130,-0.530
4058,0.250,-0.170
4059,0.135,0.380
4060,-0.425,0.545
4061,-0.920,0.490
4062,-0.755,0.095
4063,-0.380,-0.190
4064,-0.120,-0.370
4065,-0.060,-0.450
4066,-0.045,-0.465
4067,-0.005,-0.445
4068,0.015,-0.465
4069,0.025,-0.440
4070,0.015,-0.425
4071,0.005,-0.430
4072,0.015,-0.430
4073,0.045,-0.420
4074,0.055,-0.410
4075,0.070,-0.410
4076,0.080,-0.425
4077,0.070,-0.415
4078,0.105,-0.405
4079,0.115,-0.405
4080,0.140,-0.385
4081,0.165,-0.365
4082,0.165,-0.330
4083,0.165,-0.320
4084,0.175,-0.285
4085,0.190,-0.275
4086,0.185,-0.255
4087,0.190,-0.240
4088,0.180,-0.230
4089,0.130,-0.230
4090,0.095,-0.245
4091,0.055,-0.255
4092,0.030,-0.270
4093,0.015,-0.280
4094,0.000,-0.305
4095,-0.020,-0.305
4096,-0.025,-0.310
4097,-0.035,-0.315
4098,-0.040,-0.315
4099,-0.050,-0.335
4100,-0.035,-0.325
4101,-0.040,-0.305
4102,-0.020,-0.300
4103,-0.015,-0.300
4104,0.000,-0.295
4105,-0.020,-0.300
4106,-0.035,-0.305
4107,-0.015,-0.295
4108,-0.030,-0.310
4109,-0.035,-0.290
4110,-0.040,-0.285
4111,-0.020,-0.300
4112,-0.035,-0.280
4113,-0.025,-0.290
4114,-0.020,-0.260
4115,-0.020,-0.235
4116,-0.015,-0.220
4117,-0.015,-0.215
4118,-0.010,-0.175
4119,0.000,-0.150
4120,0.005,-0.150
4121,0.000,-0.170
4122,0.005,-0.205
4123,-0.015,-0.250
4124,-0.020,-0.295
4125,-0.010,-0.345
4126,-0.045,-0.365
4127,-0.045,-0.365
4128,-0.030,-0.360
4129,-0.035,-0.340
4130,-0.055,-0.345
4131,-0.035,-0.320
4132,-0.025,-0.325
4133,-0.025,-0.325
4134,-0.030,-0.310
4135,-0.025,-0.320
4136,-0.020,-0.320
4137,-0.020,-0.325
4138,-0.030,-0.305
4139,-0.020,-0.335
4140,-0.020,-0.530
4141,0.020,-0.700
4142,0.150,-0.410
4143,0.280,-0.050
4144,0.100,0.535
4145,-0.470,0.655
4146,-0.915,0.600
4147,-0.695,0.215
4148,-0.315,-0.090
4149,-0.055,-0.280
4150,-0.030,-0.345
4151,0.000,-0.375
4152,0.020,-0.365
4153,0.040,-0.370
4154,0.025,-0.335
4155,0.035,-0.370
4156,0.040,-0.355
4157,0.035,-0.335
4158,0.070,-0.340
4159,0.070,-0.345
4160,0.090,-0.340
4161,0.090,-0.350
4162,0.115,-0.365
4163,0.130,-0.355
4164,0.160,-0.345
4165,0.170,-0.335
4166,0.165,-0.320
4167,0.195,-0.295
4168,0.205,-0.285
4169,0.225,-0.265
4170,0.215,-0.250
4171,0.215,-0.230
4172,0.205,-0.205
4173,0.185,-0.190
4174,0.155,-0.190
4175,0.125,-0.190
4176,0.115,-0.215
4177,0.085,-0.235
4178,0.040,-0.250
4179,0.040,-0.285
4180,0.025,-0.275
4181,0.030,-0.275
4182,0.015,-0.290
4183,-0.005,-0.285
4184,0.015,-0.300
4185,0.010,-0.295
4186,0.015,-0.290
4187,0.025,-0.285
4188,0.020,-0.280
4189,0.025,-0.290
4190,0.015,-0.280
4191,0.025,-0.285
4192,0.035,-0.280
4193,0.035,-0.290
4194,0.060,-0.285
4195,0.055,-0.290
4196,0.050,-0.295
4197,0.060,-0.270
4198,0.065,-0.270
4199,0.025,-0.230
4200,0.045,-0.235
4201,0.045,-0.205
4202,0.075,-0.150
4203,0.065,-0.145
4204,0.100,-0.135
4205,0.100,-0.170
4206,0.090,-0.180
4207,0.070,-0.215
4208,0.060,-0.275
4209,0.065,-0.330
4210,0.030,-0.340
4211,0.030,-0.320
4212,0.050,-0.310
4213,0.045,-0.310
4214,0.030,-0.290
4215,0.040,-0.285
4216,0.055,-0.290
4217,0.040,-0.285
4218,0.060,-0.275
4219,0.065,-0.285
4220,0.030,-0.280
4221,0.035,-0.270
4222,0.045,-0.255
4223,0.040,-0.300
4224,0.070,-0.545
4225,0.120,-0.615
4226,0.270,-0.320
4227,0.345,0.110
4228,0.065,0.655
4229,-0.560,0.685
4230,-0.850,0.600
4231,-0.545,0.205
4232,-0.200,-0.065
4233,0.010,-0.260
4234,0.065,-0.305
4235,0.095,-0.310
4236,0.125,-0.290
4237,0.160,-0.270
4238,0.125,-0.280
4239,0.135,-0.260
4240,0.160,-0.280
4241,0.150,-0.255
4242,0.160,-0.235
4243,0.190,-0.235
4244,0.200,-0.220
4245,0.210,-0.230
4246,0.215,-0.230
4247,0.250,-0.235
4248,0.265,-0.225
4249,0.290,-0.195
4250,0.285,-0.190
4251,0.310,-0.180
4252,0.325,-0.155
4253,0.325,-0.130
4254,0.325,-0.105
4255,0.330,-0.085
4256,0.315,-0.065
4257,0.295,-0.050
4258,0.265,-0.050
4259,0.250,-0.060
4260,0.200,-0.065
4261,0.155,-0.085
4262,0.150,-0.095
4263,0.130,-0.120
4264,0.120,-0.120
4265,0.110,-0.120
4266,0.080,-0.145
4267,0.095,-0.145
4268,0.085,-0.155
4269,0.095,-0.160
4270,0.090,-0.145
4271,0.110,-0.150
4272,0.130,-0.135
4273,0.115,-0.135
4274,0.110,-0.140
4275,0.110,-0.145
4276,0.120,-0.155
4277,0.115,-0.145
4278,0.130,-0.130
4279,0.120,-0.140
4280,0.115,-0.125
4281,0.125,-0.120
4282,0.125,-0.120
4283,0.130,-0.100
4284,0.125,-0.060
4285,0.135,-0.040
4286,0.130,-0.005
4287,0.145,0.000
4288,0.155,0.020
4289,0.160,0.010
4290,0.145,-0.020
4291,0.140,-0.035
4292,0.135,-0.065
4293,0.130,-0.125
4294,0.140,-0.160
4295,0.125,-0.170
4296,0.125,-0.155
4297,0.105,-0.155
4298,0.110,-0.135
4299,0.140,-0.130
4300,0.115,-0.120
4301,0.120,-0.100
4302,0.120,-0.090
4303,0.130,-0.075
4304,0.135,-0.060
4305,0.135,-0.060
4306,0.125,-0.060
4307,0.125,-0.045
4308,0.135,-0.175
4309,0.170,-0.455
4310,0.285,-0.320
4311,0.410,-0.005
4312,0.365,0.515
4313,-0.060,0.870
4314,-0.665,0.885
4315,-0.685,0.650
4316,-0.340,0.300
4317,-0.020,0.070
4318,0.110,-0.055
4319,0.140,-0.115
4320,0.195,-0.100
4321,0.220,-0.080
4322,0.240,-0.060
4323,0.235,-0.055
4324,0.225,-0.040
4325,0.230,-0.035
4326,0.240,-0.030
4327,0.235,-0.035
4328,0.250,-0.015
4329,0.290,-0.015
4330,0.315,-0.015
4331,0.290,-0.015
4332,0.335,-0.025
4333,0.360,-0.010
4334,0.370,0.000
4335,0.390,0.005
4336,0.420,0.005
4337,0.395,0.045
4338,0.400,0.065
4339,0.400,0.100
4340,0.395,0.120
4341,0.380,0.125
4342,0.365,0.140
4343,0.345,0.150
4344,0.315,0.130
4345,0.280,0.110
4346,0.240,0.100
4347,0.225,0.085
4348,0.200,0.070
4349,0.190,0.060
4350,0.190,0.070
4351,0.200,0.065
4352,0.200,0.065
4353,0.200,0.065
4354,0.180,0.065
4355,0.200,0.050
4356,0.200,0.055
4357,0.185,0.055
4358,0.175,0.075
4359,0.185,0.075
4360,0.195,0.080
4361,0.205,0.080
4362,0.220,0.080
4363,0.200,0.075
4364,0.205,0.070
4365,0.195,0.080
4366,0.205,0.080
4367,0.200,0.095
4368,0.185,0.125
4369,0.200,0.150
4370,0.235,0.160
4371,0.210,0.195
4372,0.235,0.205
4373,0.225,0.215
4374,0.210,0.215
4375,0.205,0.165
4376,0.210,0.155
4377,0.185,0.110
4378,0.160,0.070
4379,0.175,0.015
4380,0.185,0.025
4381,0.175,0.040
4382,0.160,0.045
4383,0.175,0.040
4384,0.175,0.045
4385,0.175,0.050
4386,0.165,0.055
4387,0.195,0.075
4388,0.200,0.065
4389,0.175,0.070
4390,0.165,0.085
4391,0.160,0.075
4392,0.170,0.070
4393,0.185,-0.060
4394,0.200,-0.330
4395,0.295,-0.195
4396,0.445,0.135
4397,0.400,0.665
4398,-0.055,0.965
4399,-0.665,0.980
4400,-0.645,0.700
4401,-0.265,0.380
4402,0.020,0.165
4403,0.130,0.035
4404,0.175,0.000
4405,0.205,0.005
4406,0.225,0.025
4407,0.235,0.020
4408,0.260,0.020
4409,0.270,0.040
4410,0.255,0.035
4411,0.260,0.030
4412,0.310,0.025
4413,0.290,0.020
4414,0.275,0.020
4415,0.305,0.020
4416,0.335,0.040
4417,0.360,0.025
4418,0.375,0.030
4419,0.395,0.025
4420,0.385,0.045
4421,0.405,0.065
4422,0.420,0.090
4423,0.415,0.095
4424,0.420,0.115
4425,0.425,0.145
4426,0.405,0.150
4427,0.385,0.165
4428,0.385,0.150
4429,0.310,0.130
4430,0.290,0.115
4431,0.270,0.100
4432,0.220,0.085
4433,0.225,0.055
4434,0.215,0.060
4435,0.220,0.055
4436,0.205,0.050
4437,0.210,0.050
4438,0.215,0.050
4439,0.225,0.035
4440,0.225,0.025
4441,0.200,0.035
4442,0.210,0.030
4443,0.215,0.035
4444,0.225,0.035
4445,0.225,0.030
4446,0.250,0.000
4447,0.245,-0.075
4448,0.210,-0.100
4449,0.200,0.010
4450,0.195,0.205
4451,0.235,0.415
4452,0.335,0.485
4453,0.430,0.315
4454,0.550,0.255
4455,0.670,0.155
4456,0.850,-0.140
4457,0.995,-0.290
4458,1.050,-0.155
4459,1.170,-0.015
4460,1.115,-0.025
4461,0.940,0.070
4462,0.820,0.120
4463,0.645,-0.015
4464,0.360,-0.115
4465,0.135,-0.100
4466,0.030,-0.095
4467,0.025,-0.090
4468,-0.005,-0.090
4469,-0.010,-0.090
4470,-0.020,-0.095
4471,-0.020,-0.080
4472,-0.045,-0.080
4473,-0.045,-0.070
4474,-0.065,-0.055
4475,-0.075,-0.045
4476,-0.095,-0.040
4477,-0.120,-0.035
4478,-0.150,-0.025
4479,-0.165,0.000
4480,-0.155,0.015
4481,-0.150,0.025
4482,-0.145,0.030
4483,-0.115,0.045
4484,-0.080,0.035
4485,-0.035,0.030
4486,0.000,0.030
4487,0.015,0.020
4488,0.070,0.015
4489,0.095,0.025
4490,0.120,0.020
4491,0.175,0.015
4492,0.200,0.015
4493,0.220,0.015
4494,0.235,0.000
4495,0.225,-0.005
4496,0.235,-0.005
4497,0.215,0.000
4498,0.220,-0.005
4499,0.215,0.000
4500,0.205,0.000
4501,0.225,0.000
4502,0.220,0.000
4503,0.220,-0.010
4504,0.195,-0.010
4505,0.210,-0.010
4506,0.220,-0.010
4507,0.190,-0.015
4508,0.175,-0.015
4509,0.205,-0.025
4510,0.205,-0.025
4511,0.200,-0.025
4512,0.215,-0.030
4513,0.215,-0.015
4514,0.215,-0.020
4515,0.210,-0.030
4516,0.190,-0.035
4517,0.210,-0.035
4518,0.205,-0.040
4519,0.185,-0.025
4520,0.205,-0.030
4521,0.190,-0.045
4522,0.205,-0.030
4523,0.210,-0.025
4524,0.195,-0.040
4525,0.195,-0.060
4526,0.195,-0.050
4527,0.210,-0.050
4528,0.210,-0.045
4529,0.210,-0.040
4530,0.205,-0.060
4531,0.210,-0.050
4532,0.220,-0.055
4533,0.195,-0.065
4534,0.185,-0.065
4535,0.185,-0.080
4536,0.180,-0.080
4537,0.180,-0.070
4538,0.190,-0.035
4539,0.190,-0.010
4540,0.190,0.000
4541,0.220,0.025
4542,0.215,0.025
4543,0.210,0.030
4544,0.225,0.015
4545,0.210,-0.010
4546,0.195,-0.030
4547,0.200,-0.070
4548,0.175,-0.130
4549,0.180,-0.165
4550,0.185,-0.170
4551,0.190,-0.160
4552,0.190,-0.145
4553,0.185,-0.160
4554,0.185,-0.150
4555,0.200,-0.145
4556,0.190,-0.135
4557,0.215,-0.130
4558,0.210,-0.125
4559,0.195,-0.125
4560,0.195,-0.130
4561,0.190,-0.175
4562,0.195,-0.420
4563,0.235,-0.475
4564,0.415,-0.170
4565,0.455,0.225
4566,0.110,0.735
4567,-0.490,0.760
4568,-0.705,0.675
4569,-0.370,0.310
4570,-0.035,0.070
4571,0.140,-0.115
4572,0.175,-0.195
4573,0.205,-0.215
4574,0.240,-0.190
4575,0.265,-0.195
4576,0.265,-0.190
4577,0.265,-0.180
4578,0.280,-0.185
4579,0.290,-0.185
4580,0.285,-0.190
4581,0.295,-0.190
4582,0.280,-0.210
4583,0.305,-0.210
4584,0.330,-0.200
4585,0.345,-0.210
4586,0.365,-0.225
4587,0.370,-0.225
4588,0.405,-0.225
4589,0.425,-0.210
4590,0.435,-0.190
4591,0.445,-0.180
4592,0.445,-0.165
4593,0.455,-0.140
4594,0.455,-0.110
4595,0.430,-0.090
4596,0.430,-0.080
4597,0.390,-0.070
4598,0.365,-0.075
4599,0.315,-0.090
4600,0.275,-0.080
4601,0.235,-0.095
4602,0.215,-0.100
4603,0.195,-0.105
4604,0.170,-0.115
4605,0.170,-0.115
4606,0.165,-0.125
4607,0.170,-0.160
4608,0.155,-0.190
4609,0.150,-0.195
4610,0.165,-0.210
4611,0.140,-0.235
4612,0.140,-0.220
4613,0.160,-0.210
4614,0.165,-0.205
4615,0.145,-0.205
4616,0.140,-0.240
4617,0.145,-0.265
4618,0.155,-0.195
4619,0.140,-0.165
4620,0.140,-0.140
4621,0.135,-0.100
4622,0.145,-0.025
4623,0.130,0.010
4624,0.125,0.065
4625,0.130,0.065
4626,0.135,0.000
4627,0.135,-0.130
4628,0.145,-0.075
4629,0.155,-0.030
4630,0.155,-0.030
4631,0.145,-0.010
4632,0.115,-0.035
4633,0.115,-0.055
4634,0.100,-0.060
4635,0.110,-0.045
4636,0.100,-0.035
4637,0.105,-0.050
4638,0.100,-0.070
4639,0.090,-0.085
4640,0.080,-0.130
4641,0.100,-0.170
4642,0.095,-0.185
4643,0.090,-0.215
4644,0.090,-0.210
4645,0.090,-0.225
4646,0.085,-0.230
4647,0.095,-0.245
4648,0.070,-0.390
4649,0.090,-0.630
4650,0.205,-0.390
4651,0.390,-0.015
4652,0.335,0.475
4653,-0.150,0.720
4654,-0.790,0.765
4655,-0.765,0.415
4656,-0.385,0.115
4657,-0.070,-0.075
4658,-0.010,-0.175
4659,0.020,-0.195
4660,0.045,-0.210
4661,0.075,-0.225
4662,0.075,-0.275
4663,0.075,-0.265
4664,0.085,-0.250
4665,0.080,-0.280
4666,0.080,-0.290
4667,0.075,-0.315
4668,0.085,-0.325
4669,0.100,-0.370
4670,0.090,-0.395
4671,0.130,-0.445
4672,0.135,-0.490
4673,0.145,-0.495
4674,0.155,-0.525
4675,0.170,-0.505
4676,0.190,-0.520
4677,0.175,-0.495
4678,0.175,-0.480
4679,0.180,-0.480
4680,0.170,-0.460
4681,0.140,-0.470
4682,0.120,-0.495
4683,0.100,-0.505
4684,0.060,-0.520
4685,0.015,-0.575
4686,0.000,-0.585
4687,-0.020,-0.600
4688,-0.040,-0.620
4689,-0.045,-0.620
4690,-0.040,-0.625
4691,-0.045,-0.635
4692,-0.035,-0.625
4693,-0.025,-0.635
4694,-0.050,-0.630
4695,-0.045,-0.635
4696,-0.045,-0.635
4697,-0.025,-0.655
4698,-0.025,-0.635
4699,-0.030,-0.635
4700,-0.035,-0.630
4701,-0.030,-0.625
4702,-0.015,-0.620
4703,-0.020,-0.625
4704,-0.025,-0.635
4705,-0.045,-0.630
4706,-0.020,-0.640
4707,-0.030,-0.650
4708,-0.035,-0.620
4709,-0.035,-0.600
4710,-0.040,-0.570
4711,-0.015,-0.555
4712,-0.020,-0.540
4713,-0.005,-0.515
4714,-0.005,-0.555
4715,-0.010,-0.590
4716,0.000,-0.575
4717,-0.020,-0.615
4718,-0.040,-0.660
4719,-0.020,-0.710
4720,-0.030,-0.700
4721,-0.015,-0.700
4722,-0.035,-0.700
4723,-0.025,-0.710
4724,-0.035,-0.700
4725,-0.035,-0.700
4726,-0.030,-0.685
4727,-0.020,-0.670
4728,-0.035,-0.675
4729,-0.030,-0.665
4730,-0.010,-0.660
4731,-0.035,-0.665
4732,-0.005,-0.660
4733,-0.015,-0.795
4734,0.000,-1.040
4735,0.105,-0.865
4736,0.280,-0.510
4737,0.250,-0.005
4738,-0.200,0.310
4739,-0.780,0.295
4740,-0.805,-0.030
4741,-0.420,-0.385
4742,-0.110,-0.605
4743,-0.015,-0.690
4744,0.000,-0.715
4745,0.015,-0.685
4746,0.035,-0.700
4747,0.035,-0.685
4748,0.045,-0.670
4749,0.055,-0.690
4750,0.045,-0.685
4751,0.060,-0.680
4752,0.055,-0.665
4753,0.075,-0.670
4754,0.085,-0.655
4755,0.105,-0.670
4756,0.130,-0.680
4757,0.155,-0.665
4758,0.160,-0.660
4759,0.175,-0.640
4760,0.185,-0.640
4761,0.200,-0.615
4762,0.195,-0.600
4763,0.195,-0.590
4764,0.180,-0.575
4765,0.185,-0.565
4766,0.175,-0.530
4767,0.150,-0.540
4768,0.135,-0.550
4769,0.095,-0.570
4770,0.060,-0.605
4771,0.030,-0.625
4772,0.015,-0.635
4773,0.015,-0.640
4774,0.000,-0.640
4775,0.000,-0.660
4776,0.000,-0.675
4777,0.000,-0.670
4778,0.015,-0.670
4779,0.000,-0.695
4780,-0.010,-0.685
4781,-0.010,-0.665
4782,0.005,-0.670
4783,0.000,-0.690
4784,0.015,-0.685
4785,0.010,-0.685
4786,0.025,-0.695
4787,0.030,-0.695
4788,0.010,-0.690
4789,0.010,-0.700
4790,0.015,-0.700
4791,0.010,-0.690
4792,0.000,-0.685
4793,0.000,-0.660
4794,0.010,-0.650
4795,0.000,-0.590
4796,0.025,-0.590
4797,0.020,-0.560
4798,0.030,-0.555
4799,0.030,-0.560
4800,0.030,-0.605
4801,0.015,-0.615
4802,0.000,-0.650
4803,0.005,-0.710
4804,0.005,-0.735
4805,0.010,-0.770
4806,-0.010,-0.760
4807,-0.010,-0.740
4808,0.000,-0.745
4809,-0.005,-0.750
4810,0.000,-0.745
4811,0.000,-0.750
4812,0.000,-0.750
4813,0.000,-0.740
4814,0.025,-0.740
4815,0.015,-0.740
4816,0.015,-0.730
4817,0.025,-0.760
4818,0.025,-0.980
4819,0.095,-1.000
4820,0.255,-0.740
4821,0.285,-0.275
4822,-0.030,0.245
4823,-0.655,0.215
4824,-0.830,0.090
4825,-0.500,-0.310
4826,-0.145,-0.580
4827,0.005,-0.700
4828,0.045,-0.745
4829,0.080,-0.745
4830,0.100,-0.725
4831,0.110,-0.725
4832,0.125,-0.715
4833,0.130,-0.690
4834,0.135,-0.695
4835,0.140,-0.695
4836,0.150,-0.715
4837,0.165,-0.705
4838,0.175,-0.710
4839,0.185,-0.700
4840,0.215,-0.690
4841,0.220,-0.690
4842,0.260,-0.665
4843,0.275,-0.665
4844,0.300,-0.645
4845,0.305,-0.610
4846,0.310,-0.595
4847,0.315,-0.595
4848,0.315,-0.570
4849,0.305,-0.555
4850,0.315,-0.550
4851,0.295,-0.535
4852,0.250,-0.520
4853,0.225,-0.560
4854,0.180,-0.600
4855,0.180,-0.640
4856,0.140,-0.675
4857,0.115,-0.675
4858,0.125,-0.660
4859,0.120,-0.630
4860,0.110,-0.650
4861,0.130,-0.655
4862,0.130,-0.655
4863,0.100,-0.615
4864,0.110,-0.620
4865,0.095,-0.620
4866,0.100,-0.630
4867,0.110,-0.620
4868,0.130,-0.595
4869,0.140,-0.625
4870,0.145,-0.610
4871,0.180,-0.625
4872,0.175,-0.600
4873,0.160,-0.595
4874,0.145,-0.610
4875,0.125,-0.595
4876,0.145,-0.580
4877,0.140,-0.530
4878,0.145,-0.490
4879,0.145,-0.475
4880,0.185,-0.430
4881,0.190,-0.405
4882,0.220,-0.390
4883,0.225,-0.415
4884,0.185,-0.425
4885,0.160,-0.440
4886,0.180,-0.450
4887,0.175,-0.525
4888,0.170,-0.520
4889,0.180,-0.505
4890,0.195,-0.495
4891,0.175,-0.475
4892,0.180,-0.460
4893,0.185,-0.440
4894,0.200,-0.420
4895,0.195,-0.415
4896,0.190,-0.400
4897,0.210,-0.395
4898,0.215,-0.390
4899,0.220,-0.365
4900,0.225,-0.355
4901,0.250,-0.370
4902,0.280,-0.635
4903,0.335,-0.670
4904,0.505,-0.390
4905,0.545,0.070
4906,0.215,0.650
4907,-0.420,0.605
4908,-0.635,0.535
4909,-0.330,0.115
4910,0.015,-0.145
4911,0.225,-0.290
4912,0.270,-0.355
4913,0.300,-0.385
4914,0.320,-0.365
4915,0.330,-0.365
4916,0.340,-0.355
4917,0.350,-0.325
4918,0.360,-0.310
4919,0.360,-0.325
4920,0.375,-0.330
4921,0.380,-0.325
4922,0.385,-0.340
4923,0.385,-0.330
4924,0.400,-0.315
4925,0.430,-0.320
4926,0.455,-0.325
4927,0.480,-0.300
4928,0.510,-0.295
4929,0.515,-0.270
4930,0.530,-0.260
4931,0.510,-0.235
4932,0.495,-0.220
4933,0.500,-0.190
4934,0.495,-0.180
4935,0.475,-0.160
4936,0.440,-0.145
4937,0.405,-0.170
4938,0.375,-0.165
4939,0.355,-0.220
4940,0.325,-0.210
4941,0.290,-0.215
4942,0.280,-0.210
4943,0.275,-0.200
4944,0.285,-0.225
4945,0.275,-0.210
4946,0.260,-0.210
4947,0.260,-0.195
4948,0.280,-0.215
4949,0.290,-0.210
4950,0.280,-0.200
4951,0.270,-0.210
4952,0.270,-0.215
4953,0.275,-0.200
4954,0.275,-0.185
4955,0.280,-0.165
4956,0.290,-0.180
4957,0.300,-0.180
4958,0.290,-0.170
4959,0.280,-0.170
4960,0.270,-0.170
4961,0.285,-0.140
4962,0.275,-0.105
4963,0.275,-0.100
4964,0.280,-0.075
4965,0.305,-0.040
4966,0.310,-0.030
4967,0.310,-0.045
4968,0.305,-0.070
4969,0.295,-0.095
4970,0.295,-0.150
4971,0.285,-0.185
4972,0.265,-0.220
4973,0.260,-0.225
4974,0.265,-0.205
4975,0.260,-0.175
4976,0.250,-0.170
4977,0.265,-0.175
4978,0.270,-0.185
4979,0.265,-0.175
4980,0.265,-0.160
4981,0.260,-0.155
4982,0.275,-0.160
4983,0.265,-0.140
4984,0.260,-0.130
4985,0.280,-0.125
4986,0.295,-0.310
4987,0.320,-0.530
4988,0.460,-0.285
4989,0.565,0.075
4990,0.420,0.675
4991,-0.125,0.825
4992,-0.645,0.815
4993,-0.475,0.450
4994,-0.115,0.145
4995,0.190,-0.045
4996,0.250,-0.155
4997,0.285,-0.165
4998,0.295,-0.155
4999,0.320,-0.145
5000,0.325,-0.120
5001,0.310,-0.110
5002,0.315,-0.105
5003,0.315,-0.115
5004,0.340,-0.085
5005,0.375,-0.100
5006,0.380,-0.085
5007,0.400,-0.095
5008,0.375,-0.100
5009,0.395,-0.095
5010,0.420,-0.090
5011,0.440,-0.075
5012,0.475,-0.040
5013,0.490,-0.035
5014,0.480,-0.015
5015,0.500,-0.005
5016,0.495,0.030
5017,0.495,0.045
5018,0.465,0.065
5019,0.430,0.085
5020,0.425,0.080
5021,0.385,0.090
5022,0.360,0.075
5023,0.295,0.070
5024,0.280,0.050
5025,0.280,0.030
5026,0.270,0.030
5027,0.230,0.025
5028,0.215,0.035
5029,0.235,0.005
5030,0.215,0.000
5031,0.235,0.005
5032,0.255,0.015
5033,0.260,0.000
5034,0.235,0.020
5035,0.240,0.000
5036,0.225,0.000
5037,0.230,0.000
5038,0.230,0.000
5039,0.240,0.015
5040,0.245,0.035
5041,0.240,0.010
5042,0.245,0.025
5043,0.260,0.035
5044,0.245,0.035
5045,0.230,0.060
5046,0.230,0.065
5047,0.250,0.090
5048,0.235,0.095
5049,0.230,0.135
5050,0.230,0.150
5051,0.250,0.150
5052,0.250,0.130
5053,0.230,0.110
5054,0.225,0.065
5055,0.215,0.015
5056,0.210,-0.035
5057,0.200,-0.045
5058,0.200,-0.020
5059,0.195,-0.010
5060,0.200,-0.010
5061,0.205,0.005
5062,0.190,0.010
5063,0.200,0.020
5064,0.200,0.005
5065,0.195,0.000
5066,0.220,0.010
5067,0.215,0.015
5068,0.195,0.000
5069,0.195,0.020
5070,0.200,-0.050
5071,0.235,-0.350
5072,0.320,-0.265
5073,0.495,0.055
5074,0.470,0.545
5075,0.080,0.990
5076,-0.575,0.935
5077,-0.700,0.780
5078,-0.310,0.365
5079,0.040,0.150
5080,0.160,0.000
5081,0.215,-0.040
5082,0.235,-0.030
5083,0.270,-0.015
5084,0.275,0.000
5085,0.290,0.000
5086,0.285,-0.010
5087,0.280,-0.005
5088,0.295,0.005
5089,0.315,0.010
5090,0.315,0.000
5091,0.320,-0.005
5092,0.330,-0.005
5093,0.360,-0.020
5094,0.370,-0.005
5095,0.395,0.000
5096,0.390,0.020
5097,0.415,0.010
5098,0.435,0.025
5099,0.430,0.045
5100,0.435,0.050
5101,0.420,0.065
5102,0.445,0.080
5103,0.410,0.105
5104,0.380,0.150
5105,0.360,0.135
5106,0.320,0.135
5107,0.310,0.100
5108,0.275,0.080
5109,0.250,0.070
5110,0.235,0.055
5111,0.215,0.035
5112,0.220,0.010
5113,0.205,0.020
5114,0.220,0.010
5115,0.200,0.040
5116,0.210,0.025
5117,0.215,0.020
5118,0.210,0.030
5119,0.235,0.015
5120,0.230,0.030
5121,0.225,0.030
5122,0.235,0.065
5123,0.265,0.030
5124,0.250,0.035
5125,0.240,0.060
5126,0.245,0.050
5127,0.235,0.030
5128,0.260,0.045
5129,0.240,0.035
5130,0.250,0.060
5131,0.240,0.100
5132,0.265,0.110
5133,0.240,0.135
5134,0.255,0.160
5135,0.250,0.180
5136,0.255,0.150
5137,0.245,0.135
5138,0.220,0.125
5139,0.235,0.065
5140,0.215,0.000
5141,0.215,-0.025
5142,0.215,-0.015
5143,0.185,0.000
5144,0.205,0.000
5145,0.180,0.010
5146,0.205,0.000
5147,0.195,0.015
5148,0.210,0.025
5149,0.205,0.020
5150,0.185,0.030
5151,0.195,0.010
5152,0.190,0.020
5153,0.195,0.050
5154,0.205,0.025
5155,0.210,-0.120
5156,0.235,-0.380
5157,0.360,-0.175
5158,0.510,0.150
5159,0.430,0.685
5160,-0.080,0.955
5161,-0.705,0.950
5162,-0.625,0.670
5163,-0.230,0.345
5164,0.100,0.110
5165,0.180,0.000
5166,0.200,-0.050
5167,0.255,-0.015
5168,0.280,-0.015
5169,0.285,0.000
5170,0.295,0.000
5171,0.275,0.010
5172,0.280,0.010
5173,0.295,0.000
5174,0.310,0.005
5175,0.315,0.000
5176,0.315,-0.020
5177,0.335,-0.015
5178,0.335,-0.025
5179,0.350,0.000
5180,0.395,-0.010
5181,0.400,0.005
5182,0.395,0.015
5183,0.435,0.025
5184,0.445,0.035
5185,0.430,0.060
5186,0.410,0.070
5187,0.415,0.100
5188,0.400,0.095
5189,0.385,0.105
5190,0.340,0.115
5191,0.310,0.110
5192,0.270,0.075
5193,0.245,0.065
5194,0.240,0.035
5195,0.245,0.020
5196,0.190,0.000
5197,0.155,0.015
5198,0.170,0.005
5199,0.180,0.000
5200,0.185,-0.010
5201,0.185,0.000
5202,0.200,0.000
5203,0.220,-0.010
5204,0.215,0.015
5205,0.225,-0.005
5206,0.210,-0.005
5207,0.225,0.000
5208,0.220,0.000
5209,0.240,0.005
5210,0.235,-0.015
5211,0.195,-0.005
5212,0.190,-0.015
5213,0.195,-0.025
5214,0.200,-0.010
5215,0.195,0.005
5216,0.185,0.030
5217,0.210,0.055
5218,0.210,0.060
5219,0.230,0.080
5220,0.235,0.090
5221,0.235,0.105
5222,0.240,0.060
5223,0.225,0.030
5224,0.210,0.000
5225,0.175,-0.015
5226,0.180,-0.085
5227,0.180,-0.120
5228,0.160,-0.105
5229,0.180,-0.090
5230,0.175,-0.075
5231,0.165,-0.070
5232,0.155,-0.070
5233,0.175,-0.065
5234,0.175,-0.070
5235,0.195,-0.065
5236,0.190,-0.045
5237,0.180,-0.050
5238,0.170,-0.080
5239,0.205,-0.060
5240,0.210,-0.100
5241,0.230,-0.355
5242,0.235,-0.470
5243,0.405,-0.175
5244,0.485,0.205
5245,0.245,0.785
5246,-0.355,0.850
5247,-0.735,0.810
5248,-0.450,0.405
5249,-0.060,0.165
5250,0.155,-0.040
5251,0.205,-0.130
5252,0.235,-0.140
5253,0.260,-0.120
5254,0.270,-0.110
5255,0.285,-0.080
5256,0.275,-0.080
5257,0.295,-0.100
5258,0.290,-0.110
5259,0.305,-0.130
5260,0.320,-0.120
5261,0.320,-0.110
5262,0.315,-0.130
5263,0.350,-0.120
5264,0.375,-0.115
5265,0.385,-0.120
5266,0.405,-0.110
5267,0.420,-0.100
5268,0.420,-0.085
5269,0.435,-0.075
5270,0.455,-0.050
5271,0.435,-0.045
5272,0.425,-0.015
5273,0.435,0.000
5274,0.410,0.010
5275,0.385,0.010
5276,0.330,0.000
5277,0.285,-0.010
5278,0.260,-0.060
5279,0.225,-0.075
5280,0.225,-0.085
5281,0.205,-0.115
5282,0.200,-0.105
5283,0.185,-0.125
5284,0.180,-0.130
5285,0.180,-0.135
5286,0.175,-0.140
5287,0.165,-0.155
5288,0.180,-0.160
5289,0.175,-0.160
5290,0.175,-0.155
5291,0.195,-0.155
5292,0.180,-0.140
5293,0.205,-0.150
5294,0.185,-0.150
5295,0.165,-0.155
5296,0.180,-0.170
5297,0.180,-0.160
5298,0.180,-0.165
5299,0.165,-0.170
5300,0.170,-0.180
5301,0.165,-0.145
5302,0.160,-0.120
5303,0.175,-0.110
5304,0.170,-0.095
5305,0.160,-0.060
5306,0.180,-0.060
5307,0.195,-0.075
5308,0.175,-0.110
5309,0.145,-0.125
5310,0.130,-0.190
5311,0.120,-0.240
5312,0.135,-0.285
5313,0.125,-0.295
5314,0.125,-0.280
5315,0.115,-0.270
5316,0.110,-0.250
5317,0.115,-0.245
5318,0.100,-0.250
5319,0.115,-0.275
5320,0.120,-0.260
5321,0.115,-0.265
5322,0.130,-0.275
5323,0.140,-0.255
5324,0.115,-0.235
5325,0.120,-0.260
5326,0.110,-0.350
5327,0.105,-0.615
5328,0.175,-0.595
5329,0.360,-0.245
5330,0.415,0.130
5331,0.125,0.600
5332,-0.500,0.645
5333,-0.815,0.515
5334,-0.480,0.090
5335,-0.110,-0.130
5336,0.070,-0.295
5337,0.110,-0.355
5338,0.150,-0.340
5339,0.175,-0.330
5340,0.175,-0.325
5341,0.180,-0.340
5342,0.190,-0.330
5343,0.185,-0.345
5344,0.200,-0.330
5345,0.215,-0.335
5346,0.215,-0.340
5347,0.225,-0.350
5348,0.215,-0.345
5349,0.240,-0.335
5350,0.255,-0.340
5351,0.300,-0.335
5352,0.315,-0.330
5353,0.295,-0.315
5354,0.335,-0.305
5355,0.345,-0.290
5356,0.340,-0.270
5357,0.325,-0.250
5358,0.355,-0.220
5359,0.320,-0.215
5360,0.295,-0.200
5361,0.280,-0.225
5362,0.230,-0.230
5363,0.210,-0.245
5364,0.195,-0.275
5365,0.150,-0.270
5366,0.150,-0.295
5367,0.110,-0.305
5368,0.100,-0.310
5369,0.120,-0.300
5370,0.130,-0.290
5371,0.115,-0.305
5372,0.120,-0.305
5373,0.130,-0.300
5374,0.125,-0.305
5375,0.130,-0.320
5376,0.125,-0.320
5377,0.120,-0.285
5378,0.150,-0.290
5379,0.140,-0.315
5380,0.140,-0.315
5381,0.150,-0.290
5382,0.155,-0.305
5383,0.130,-0.305
5384,0.120,-0.310
5385,0.145,-0.320
5386,0.150,-0.305
5387,0.130,-0.265
5388,0.145,-0.245
5389,0.110,-0.210
5390,0.100,-0.190
5391,0.120,-0.205
5392,0.140,-0.195
5393,0.135,-0.200
5394,0.115,-0.255
5395,0.130,-0.260
5396,0.135,-0.300
5397,0.100,-0.370
5398,0.095,-0.385
5399,0.095,-0.395
5400,0.105,-0.390
5401,0.065,-0.390
5402,0.080,-0.385
5403,0.080,-0.365
5404,0.065,-0.365
5405,0.065,-0.365
5406,0.080,-0.370
5407,0.080,-0.380
5408,0.070,-0.375
5409,0.095,-0.370
5410,0.090,-0.375
5411,0.095,-0.375
5412,0.100,-0.480
5413,0.105,-0.760
5414,0.180,-0.660
5415,0.360,-0.300
5416,0.385,0.190
5417,0.035,0.610
5418,-0.590,0.595
5419,-0.760,0.335
5420,-0.390,-0.055
5421,-0.025,-0.255
5422,0.055,-0.390
5423,0.080,-0.430
5424,0.110,-0.410
5425,0.135,-0.395
5426,0.140,-0.395
5427,0.145,-0.385
5428,0.155,-0.405
5429,0.165,-0.405
5430,0.165,-0.405
5431,0.175,-0.400
5432,0.180,-0.385
5433,0.175,-0.395
5434,0.210,-0.420
5435,0.210,-0.405
5436,0.235,-0.385
5437,0.240,-0.385
5438,0.260,-0.385
5439,0.280,-0.375
5440,0.290,-0.365
5441,0.305,-0.325
5442,0.285,-0.310
5443,0.280,-0.300
5444,0.275,-0.290
5445,0.270,-0.260
5446,0.245,-0.260
5447,0.215,-0.265
5448,0.205,-0.290
5449,0.170,-0.320
5450,0.145,-0.320
5451,0.120,-0.340
5452,0.125,-0.350
5453,0.095,-0.340
5454,0.070,-0.360
5455,0.080,-0.390
5456,0.060,-0.360
5457,0.080,-0.375
5458,0.095,-0.370
5459,0.100,-0.375
5460,0.105,-0.385
5461,0.110,-0.375
5462,0.095,-0.370
5463,0.095,-0.375
5464,0.095,-0.370
5465,0.105,-0.350
5466,0.120,-0.360
5467,0.120,-0.375
5468,0.125,-0.375
5469,0.110,-0.375
5470,0.115,-0.375
5471,0.115,-0.375
5472,0.105,-0.365
5473,0.120,-0.325
5474,0.120,-0.305
5475,0.095,-0.290
5476,0.110,-0.265
5477,0.135,-0.255
5478,0.150,-0.255
5479,0.135,-0.295
5480,0.145,-0.300
5481,0.100,-0.325
5482,0.105,-0.360
5483,0.105,-0.425
5484,0.100,-0.455
5485,0.095,-0.435
5486,0.070,-0.420
5487,0.070,-0.425
5488,0.090,-0.415
5489,0.100,-0.420
5490,0.085,-0.410
5491,0.100,-0.410
5492,0.095,-0.395
5493,0.110,-0.380
5494,0.090,-0.385
5495,0.105,-0.375
5496,0.100,-0.365
5497,0.095,-0.385
5498,0.130,-0.590
5499,0.155,-0.730
5500,0.305,-0.465
5501,0.420,-0.060
5502,0.220,0.505
5503,-0.400,0.595
5504,-0.815,0.580
5505,-0.545,0.180
5506,-0.200,-0.090
5507,0.060,-0.305
5508,0.100,-0.395
5509,0.140,-0.440
5510,0.190,-0.405
5511,0.210,-0.385
5512,0.180,-0.370
5513,0.190,-0.365
5514,0.210,-0.360
5515,0.210,-0.350
5516,0.225,-0.355
5517,0.230,-0.375
5518,0.215,-0.360
5519,0.230,-0.380
5520,0.255,-0.380
5521,0.285,-0.370
5522,0.300,-0.360
5523,0.315,-0.350
5524,0.335,-0.360
5525,0.335,-0.335
5526,0.335,-0.300
5527,0.360,-0.285
5528,0.350,-0.255
5529,0.350,-0.225
5530,0.340,-0.240
5531,0.320,-0.210
5532,0.305,-0.205
5533,0.290,-0.215
5534,0.250,-0.240
5535,0.210,-0.245
5536,0.160,-0.270
5537,0.140,-0.300
5538,0.130,-0.300
5539,0.130,-0.290
5540,0.130,-0.320
5541,0.115,-0.305
5542,0.125,-0.300
5543,0.145,-0.300
5544,0.130,-0.325
5545,0.130,-0.310
5546,0.140,-0.305
5547,0.120,-0.320
5548,0.140,-0.320
5549,0.135,-0.305
5550,0.125,-0.315
5551,0.140,-0.310
5552,0.160,-0.315
5553,0.160,-0.335
5554,0.155,-0.330
5555,0.135,-0.335
5556,0.150,-0.330
5557,0.145,-0.325
5558,0.140,-0.305
5559,0.145,-0.275
5560,0.140,-0.240
5561,0.155,-0.225
5562,0.150,-0.195
5563,0.155,-0.180
5564,0.160,-0.205
5565,0.135,-0.230
5566,0.160,-0.235
5567,0.125,-0.290
5568,0.105,-0.330
5569,0.095,-0.365
5570,0.115,-0.395
5571,0.115,-0.365
5572,0.090,-0.375
5573,0.115,-0.365
5574,0.095,-0.355
5575,0.100,-0.355
5576,0.090,-0.345
5577,0.100,-0.325
5578,0.105,-0.330
5579,0.100,-0.300
5580,0.105,-0.305
5581,0.110,-0.330
5582,0.115,-0.335
5583,0.120,-0.460
5584,0.160,-0.700
5585,0.280,-0.510
5586,0.390,-0.155
5587,0.305,0.400
5588,-0.265,0.640
5589,-0.785,0.645
5590,-0.660,0.345
5591,-0.310,0.005
5592,0.000,-0.230
5593,0.080,-0.350
5594,0.125,-0.385
5595,0.135,-0.370
5596,0.180,-0.360
5597,0.190,-0.355
5598,0.190,-0.330
5599,0.195,-0.325
5600,0.210,-0.330
5601,0.200,-0.350
5602,0.215,-0.330
5603,0.225,-0.335
5604,0.245,-0.330
5605,0.260,-0.360
5606,0.290,-0.365
5607,0.310,-0.340
5608,0.325,-0.345
5609,0.330,-0.320
5610,0.345,-0.315
5611,0.360,-0.295
5612,0.360,-0.270
5613,0.360,-0.255
5614,0.360,-0.220
5615,0.355,-0.210
5616,0.340,-0.205
5617,0.315,-0.190
5618,0.280,-0.170
5619,0.245,-0.190
5620,0.215,-0.215
5621,0.150,-0.230
5622,0.155,-0.245
5623,0.155,-0.240
5624,0.120,-0.235
5625,0.115,-0.220
5626,0.130,-0.265
5627,0.120,-0.240
5628,0.130,-0.250
5629,0.125,-0.265
5630,0.120,-0.255
5631,0.115,-0.245
5632,0.125,-0.245
5633,0.145,-0.230
5634,0.140,-0.220
5635,0.150,-0.225
5636,0.160,-0.215
5637,0.165,-0.220
5638,0.155,-0.215
5639,0.145,-0.235
5640,0.170,-0.230
5641,0.175,-0.245
5642,0.150,-0.230
5643,0.150,-0.175
5644,0.165,-0.165
5645,0.150,-0.165
5646,0.130,-0.135
5647,0.160,-0.095
5648,0.165,-0.095
5649,0.160,-0.085
5650,0.160,-0.135
5651,0.135,-0.175
5652,0.125,-0.195
5653,0.120,-0.245
5654,0.140,-0.265
5655,0.125,-0.280
5656,0.085,-0.270
5657,0.105,-0.265
5658,0.090,-0.260
5659,0.125,-0.240
5660,0.105,-0.245
5661,0.100,-0.230
5662,0.100,-0.240
5663,0.105,-0.235
5664,0.110,-0.230
5665,0.110,-0.215
5666,0.120,-0.195
5667,0.115,-0.245
5668,0.105,-0.430
5669,0.155,-0.610
5670,0.290,-0.345
5671,0.395,-0.010
5672,0.210,0.545
5673,-0.340,0.720
5674,-0.820,0.720
5675,-0.625,0.340
5676,-0.260,0.050
5677,0.010,-0.160
5678,0.080,-0.250
5679,0.130,-0.290
5680,0.160,-0.270
5681,0.190,-0.235
5682,0.200,-0.240
5683,0.200,-0.220
5684,0.200,-0.225
5685,0.215,-0.225
5686,0.200,-0.205
5687,0.210,-0.200
5688,0.230,-0.200
5689,0.250,-0.200
5690,0.245,-0.210
5691,0.270,-0.210
5692,0.290,-0.210
5693,0.310,-0.220
5694,0.315,-0.210
5695,0.340,-0.190
5696,0.345,-0.170
5697,0.355,-0.130
5698,0.345,-0.130
5699,0.320,-0.065
5700,0.325,-0.080
5701,0.315,-0.080
5702,0.295,-0.070
5703,0.250,-0.065
5704,0.215,-0.085
5705,0.165,-0.115
5706,0.140,-0.125
5707,0.135,-0.145
5708,0.110,-0.135
5709,0.105,-0.155
5710,0.100,-0.150
5711,0.115,-0.160
5712,0.100,-0.175
5713,0.095,-0.180
5714,0.100,-0.175
5715,0.095,-0.160
5716,0.100,-0.150
5717,0.115,-0.155
5718,0.120,-0.145
5719,0.145,-0.150
5720,0.145,-0.145
5721,0.125,-0.170
5722,0.130,-0.150
5723,0.135,-0.165
5724,0.125,-0.180
5725,0.120,-0.155
5726,0.120,-0.145
5727,0.110,-0.155
5728,0.125,-0.135
5729,0.115,-0.095
5730,0.125,-0.075
5731,0.140,-0.045
5732,0.130,-0.020
5733,0.125,-0.025
5734,0.145,-0.055
5735,0.115,-0.075
5736,0.115,-0.080
5737,0.120,-0.140
5738,0.095,-0.200
5739,0.105,-0.235
5740,0.095,-0.215
5741,0.080,-0.200
5742,0.065,-0.195
5743,0.085,-0.220
5744,0.085,-0.190
5745,0.080,-0.205
5746,0.085,-0.175
5747,0.105,-0.180
5748,0.085,-0.150
5749,0.080,-0.155
5750,0.085,-0.155
5751,0.100,-0.130
5752,0.095,-0.175
5753,0.085,-0.360
5754,0.135,-0.550
5755,0.280,-0.300
5756,0.395,0.045
5757,0.240,0.585
5758,-0.325,0.780
5759,-0.830,0.785
5760,-0.635,0.455
5761,-0.270,0.155
5762,0.015,-0.030
5763,0.095,-0.140
5764,0.130,-0.190
5765,0.155,-0.175
5766,0.200,-0.190
5767,0.205,-0.175
5768,0.185,-0.165
5769,0.215,-0.175
5770,0.195,-0.160
5771,0.215,-0.145
5772,0.225,-0.165
5773,0.230,-0.165
5774,0.265,-0.140
5775,0.275,-0.140
5776,0.275,-0.140
5777,0.305,-0.165
5778,0.300,-0.155
5779,0.325,-0.145
5780,0.330,-0.135
5781,0.335,-0.115
5782,0.345,-0.090
5783,0.355,-0.065
5784,0.365,-0.050
5785,0.335,-0.020
5786,0.315,-0.005
5787,0.325,-0.015
5788,0.290,-0.010
5789,0.225,-0.035
5790,0.180,-0.055
5791,0.140,-0.070
5792,0.140,-0.080
5793,0.130,-0.080
5794,0.125,-0.105
5795,0.110,-0.115
5796,0.115,-0.115
5797,0.095,-0.110
5798,0.110,-0.130
5799,0.105,-0.145
5800,0.105,-0.130
5801,0.085,-0.115
5802,0.105,-0.120
5803,0.120,-0.115
5804,0.095,-0.135
5805,0.095,-0.115
5806,0.110,-0.125
5807,0.115,-0.115
5808,0.115,-0.115
5809,0.115,-0.135
5810,0.115,-0.110
5811,0.100,-0.135
5812,0.120,-0.110
5813,0.130,-0.105
5814,0.095,-0.075
5815,0.100,-0.055
5816,0.100,-0.040
5817,0.105,-0.005
5818,0.110,-0.005
5819,0.120,0.000
5820,0.125,-0.010
5821,0.115,-0.035
5822,0.105,-0.035
5823,0.095,-0.050
5824,0.100,-0.135
5825,0.095,-0.215
5826,0.060,-0.220
5827,0.060,-0.195
5828,0.050,-0.160
5829,0.050,-0.160
5830,0.060,-0.155
5831,0.065,-0.145
5832,0.060,-0.130
5833,0.025,-0.140
5834,0.045,-0.125
5835,0.050,-0.115
5836,0.040,-0.140
5837,0.045,-0.130
5838,0.045,-0.125
5839,0.045,-0.220
5840,0.090,-0.480
5841,0.175,-0.390
5842,0.355,-0.040
5843,0.320,0.420
5844,-0.110,0.815
5845,-0.745,0.820
5846,-0.815,0.550
5847,-0.425,0.205
5848,-0.075,-0.050
5849,0.005,-0.160
5850,0.065,-0.210
5851,0.085,-0.180
5852,0.135,-0.180
5853,0.120,-0.180
5854,0.115,-0.160
5855,0.110,-0.150
5856,0.115,-0.145
5857,0.125,-0.165
5858,0.140,-0.190
5859,0.155,-0.170
5860,0.170,-0.170
5861,0.190,-0.160
5862,0.190,-0.150
5863,0.235,-0.165
5864,0.215,-0.165
5865,0.225,-0.125
5866,0.270,-0.100
5867,0.270,-0.110
5868,0.280,-0.090
5869,0.295,-0.065
5870,0.285,-0.040
5871,0.270,-0.025
5872,0.245,-0.020
5873,0.220,-0.020
5874,0.185,-0.035
5875,0.155,-0.005
5876,0.135,-0.040
5877,0.100,-0.090
5878,0.090,-0.080
5879,0.085,-0.090
5880,0.055,-0.110
5881,0.050,-0.110
5882,0.045,-0.120
5883,0.055,-0.115
5884,0.065,-0.100
5885,0.055,-0.115
5886,0.070,-0.105
5887,0.065,-0.100
5888,0.075,-0.090
5889,0.065,-0.110
5890,0.065,-0.100
5891,0.070,-0.100
5892,0.065,-0.100
5893,0.090,-0.095
5894,0.085,-0.075
5895,0.095,-0.080
5896,0.095,-0.095
5897,0.075,-0.090
5898,0.100,-0.080
5899,0.085,-0.080
5900,0.080,-0.055
5901,0.070,-0.030
5902,0.080,-0.010
5903,0.080,0.020
5904,0.090,0.035
5905,0.120,0.020
5906,0.115,0.005
5907,0.115,-0.015
5908,0.095,-0.035
5909,0.080,-0.080
5910,0.065,-0.130
5911,0.060,-0.170
5912,0.040,-0.150
5913,0.040,-0.135
5914,0.045,-0.125
5915,0.065,-0.125
5916,0.070,-0.120
5917,0.065,-0.100
5918,0.085,-0.085
5919,0.070,-0.100
5920,0.075,-0.095
5921,0.095,-0.075
5922,0.095,-0.055
5923,0.100,-0.065
5924,0.095,-0.055
5925,0.070,-0.205
5926,0.095,-0.475
5927,0.210,-0.285
5928,0.385,0.075
5929,0.325,0.635
5930,-0.125,0.950
5931,-0.770,0.950
5932,-0.685,0.570
5933,-0.310,0.240
5934,0.005,0.025
5935,0.090,-0.090
5936,0.120,-0.135
5937,0.165,-0.120
5938,0.165,-0.115
5939,0.175,-0.105
5940,0.165,-0.100
5941,0.165,-0.095
5942,0.170,-0.095
5943,0.195,-0.095
5944,0.215,-0.100
5945,0.210,-0.115
5946,0.220,-0.105
5947,0.250,-0.115
5948,0.245,-0.120
5949,0.275,-0.080
5950,0.295,-0.110
5951,0.315,-0.080
5952,0.330,-0.070
5953,0.335,-0.060
5954,0.330,-0.045
5955,0.335,-0.020
5956,0.310,0.000
5957,0.325,0.020
5958,0.300,0.045
5959,0.275,0.035
5960,0.265,0.035
5961,0.220,0.035
5962,0.195,-0.010
5963,0.160,0.000
5964,0.145,-0.005
5965,0.135,-0.010
5966,0.120,-0.035
5967,0.125,0.000
5968,0.120,0.000
5969,0.125,-0.005
5970,0.135,0.015
5971,0.125,0.000
5972,0.135,0.000
5973,0.155,0.000
5974,0.160,0.000
5975,0.185,0.005
5976,0.155,0.015
5977,0.165,0.025
5978,0.170,0.030
5979,0.185,0.045
5980,0.180,0.025
5981,0.190,0.020
5982,0.180,0.010
5983,0.180,0.020
5984,0.195,0.025
5985,0.185,0.035
5986,0.200,0.070
5987,0.205,0.090
5988,0.225,0.120
5989,0.270,0.150
5990,0.255,0.165
5991,0.240,0.180
5992,0.195,0.165
5993,0.220,0.145
5994,0.220,0.135
5995,0.210,0.115
5996,0.215,0.085
5997,0.225,0.035
5998,0.250,0.045
5999,0.200,0.055
6000,0.215,0.050
6001,0.200,0.035
6002,0.190,0.015
6003,0.205,0.000
6004,0.210,-0.015
6005,0.200,-0.035
6006,0.185,-0.050
6007,0.200,-0.065
6008,0.220,-0.065
6009,0.210,-0.070
6010,0.215,-0.070
6011,0.230,-0.215
6012,0.230,-0.480
6013,0.330,-0.320
6014,0.485,0.005
6015,0.430,0.560
6016,-0.100,0.885
6017,-0.695,0.880
6018,-0.615,0.560
6019,-0.230,0.230
6020,0.080,-0.015
6021,0.185,-0.140
6022,0.235,-0.185
6023,0.290,-0.175
6024,0.315,-0.175
6025,0.330,-0.185
6026,0.350,-0.190
6027,0.345,-0.195
6028,0.355,-0.205
6029,0.370,-0.205
6030,0.355,-0.205
6031,0.355,-0.200
6032,0.400,-0.200
6033,0.420,-0.185
6034,0.440,-0.175
6035,0.440,-0.180
6036,0.480,-0.195
6037,0.495,-0.185
6038,0.520,-0.160
6039,0.525,-0.130
6040,0.520,-0.120
6041,0.530,-0.110
6042,0.530,-0.080
6043,0.500,-0.065
6044,0.495,-0.045
6045,0.485,-0.025
6046,0.460,-0.060
6047,0.395,-0.070
6048,0.375,-0.095
6049,0.345,-0.100
6050,0.325,-0.120
6051,0.295,-0.115
6052,0.285,-0.120
6053,0.280,-0.140
6054,0.270,-0.120
6055,0.275,-0.140
6056,0.275,-0.140
6057,0.240,-0.145
6058,0.255,-0.155
6059,0.265,-0.135
6060,0.260,-0.140
6061,0.275,-0.120
6062,0.280,-0.140
6063,0.280,-0.130
6064,0.280,-0.135
6065,0.270,-0.145
6066,0.285,-0.145
6067,0.265,-0.150
6068,0.240,-0.155
6069,0.270,-0.145
6070,0.260,-0.150
6071,0.275,-0.125
6072,0.265,-0.105
6073,0.260,-0.090
6074,0.265,-0.080
6075,0.260,-0.050
6076,0.280,-0.030
6077,0.255,-0.020
6078,0.265,-0.050
6079,0.275,-0.080
6080,0.255,-0.100
6081,0.240,-0.145
6082,0.220,-0.220
6083,0.205,-0.260
6084,0.210,-0.260
6085,0.190,-0.260
6086,0.185,-0.250
6087,0.185,-0.255
6088,0.195,-0.240
6089,0.200,-0.235
6090,0.185,-0.235
6091,0.195,-0.235
6092,0.185,-0.250
6093,0.190,-0.240
6094,0.185,-0.215
6095,0.180,-0.225
6096,0.205,-0.235
6097,0.185,-0.435
6098,0.205,-0.595
6099,0.350,-0.370
6100,0.465,-0.010
6101,0.255,0.560
6102,-0.345,0.710
6103,-0.790,0.705
6104,-0.560,0.345
6105,-0.175,0.040
6106,0.080,-0.155
6107,0.165,-0.260
6108,0.205,-0.270
6109,0.245,-0.265
6110,0.285,-0.250
6111,0.280,-0.230
6112,0.245,-0.245
6113,0.225,-0.215
6114,0.255,-0.225
6115,0.255,-0.215
6116,0.275,-0.195
6117,0.280,-0.175
6118,0.310,-0.185
6119,0.315,-0.175
6120,0.365,-0.180
6121,0.375,-0.175
6122,0.350,-0.175
6123,0.375,-0.175
6124,0.405,-0.165
6125,0.425,-0.155
6126,0.420,-0.145
6127,0.410,-0.135
6128,0.430,-0.120
6129,0.425,-0.105
6130,0.395,-0.105
6131,0.365,-0.105
6132,0.320,-0.110
6133,0.300,-0.140
6134,0.265,-0.130
6135,0.240,-0.155
6136,0.210,-0.170
6137,0.210,-0.170
6138,0.205,-0.200
6139,0.200,-0.205
6140,0.195,-0.205
6141,0.195,-0.195
6142,0.175,-0.200
6143,0.180,-0.210
6144,0.195,-0.195
6145,0.205,-0.200
6146,0.225,-0.195
6147,0.240,-0.195
6148,0.230,-0.180
6149,0.220,-0.190
6150,0.210,-0.195
6151,0.195,-0.185
6152,0.185,-0.205
6153,0.195,-0.200
6154,0.205,-0.185
6155,0.195,-0.195
6156,0.215,-0.200
6157,0.205,-0.190
6158,0.215,-0.180
6159,0.210,-0.155
6160,0.210,-0.130
6161,0.185,-0.120
6162,0.180,-0.090
6163,0.205,-0.055
6164,0.215,-0.075
6165,0.240,-0.110
6166,0.190,-0.120
6167,0.195,-0.170
6168,0.195,-0.230
6169,0.200,-0.275
6170,0.175,-0.290
6171,0.195,-0.275
6172,0.140,-0.245
6173,0.150,-0.250
6174,0.145,-0.260
6175,0.170,-0.250
6176,0.175,-0.245
6177,0.155,-0.230
6178,0.165,-0.245
6179,0.160,-0.245
6180,0.155,-0.245
6181,0.195,-0.240
6182,0.150,-0.210
6183,0.185,-0.285
6184,0.195,-0.545
6185,0.245,-0.595
6186,0.405,-0.300
6187,0.460,0.135
6188,0.065,0.650
6189,-0.585,0.660
6190,-0.765,0.580
6191,-0.425,0.200
6192,-0.060,-0.060
6193,0.110,-0.235
6194,0.165,-0.310
6195,0.205,-0.335
6196,0.220,-0.325
6197,0.230,-0.315
6198,0.240,-0.310
6199,0.250,-0.305
6200,0.215,-0.295
6201,0.240,-0.310
6202,0.250,-0.295
6203,0.250,-0.300
6204,0.285,-0.310
6205,0.295,-0.320
6206,0.295,-0.325
6207,0.330,-0.305
6208,0.340,-0.300
6209,0.345,-0.305
6210,0.340,-0.290
6211,0.380,-0.265
6212,0.380,-0.255
6213,0.375,-0.240
6214,0.355,-0.220
6215,0.345,-0.200
6216,0.340,-0.185
6217,0.320,-0.180
6218,0.280,-0.185
6219,0.230,-0.185
6220,0.215,-0.210
6221,0.185,-0.225
6222,0.150,-0.255
6223,0.095,-0.275
6224,0.105,-0.280
6225,0.095,-0.300
6226,0.045,-0.295
6227,0.055,-0.300
6228,0.065,-0.295
6229,0.080,-0.300
6230,0.070,-0.295
6231,0.065,-0.305
6232,0.065,-0.300
6233,0.080,-0.295
6234,0.070,-0.305
6235,0.065,-0.305
6236,0.085,-0.310
6237,0.075,-0.325
6238,0.075,-0.300
6239,0.065,-0.310
6240,0.055,-0.295
6241,0.065,-0.300
6242,0.065,-0.290
6243,0.075,-0.300
6244,0.060,-0.305
6245,0.055,-0.280
6246,0.055,-0.245
6247,0.065,-0.225
6248,0.065,-0.170
6249,0.045,-0.150
6250,0.095,-0.160
6251,0.065,-0.210
6252,0.055,-0.215
6253,0.060,-0.260
6254,0.055,-0.290
6255,0.025,-0.365
6256,0.025,-0.365
6257,0.035,-0.350
6258,0.035,-0.335
6259,0.025,-0.320
6260,0.010,-0.335
6261,0.020,-0.350
6262,0.015,-0.335
6263,0.020,-0.335
6264,0.025,-0.320
6265,0.025,-0.330
6266,0.015,-0.325
6267,0.030,-0.315
6268,0.035,-0.300
6269,0.035,-0.350
6270,0.045,-0.645
6271,0.130,-0.665
6272,0.325,-0.315
6273,0.345,0.095
6274,0.025,0.615
6275,-0.605,0.655
6276,-0.875,0.525
6277,-0.505,0.080
6278,-0.135,-0.170
6279,0.015,-0.310
6280,0.045,-0.360
6281,0.080,-0.355
6282,0.080,-0.360
6283,0.090,-0.325
6284,0.085,-0.340
6285,0.105,-0.320
6286,0.090,-0.340
6287,0.115,-0.330
6288,0.135,-0.335
6289,0.140,-0.320
6290,0.135,-0.320
6291,0.150,-0.325
6292,0.175,-0.320
6293,0.205,-0.340
6294,0.185,-0.310
6295,0.210,-0.310
6296,0.230,-0.265
6297,0.230,-0.280
6298,0.245,-0.245
6299,0.235,-0.240
6300,0.250,-0.220
6301,0.240,-0.190
6302,0.205,-0.190
6303,0.200,-0.195
6304,0.160,-0.180
6305,0.130,-0.215
6306,0.095,-0.210
6307,0.060,-0.235
6308,0.045,-0.255
6309,0.035,-0.270
6310,0.005,-0.275
6311,0.005,-0.300
6312,0.010,-0.295
6313,0.030,-0.300
6314,0.035,-0.290
6315,0.030,-0.290
6316,0.020,-0.290
6317,0.005,-0.295
6318,0.000,-0.310
6319,0.010,-0.295
6320,0.000,-0.300
6321,0.005,-0.315
6322,-0.005,-0.310
6323,0.005,-0.295
6324,0.010,-0.305
6325,0.015,-0.300
6326,0.025,-0.315
6327,0.025,-0.315
6328,0.005,-0.330
6329,0.000,-0.320
6330,-0.020,-0.280
6331,0.000,-0.275
6332,-0.015,-0.240
6333,-0.010,-0.225
6334,0.000,-0.190
6335,0.010,-0.175
6336,0.015,-0.195
6337,0.010,-0.230
6338,0.000,-0.265
6339,-0.025,-0.300
6340,-0.050,-0.370
6341,-0.045,-0.410
6342,-0.035,-0.395
6343,-0.045,-0.390
6344,-0.055,-0.370
6345,-0.055,-0.370
6346,-0.055,-0.380
6347,-0.055,-0.365
6348,-0.030,-0.360
6349,-0.050,-0.365
6350,-0.040,-0.375
6351,-0.060,-0.350
6352,-0.030,-0.360
6353,-0.075,-0.345
6354,-0.060,-0.360
6355,-0.035,-0.515
6356,-0.005,-0.770
6357,0.085,-0.570
6358,0.240,-0.235
6359,0.180,0.335
6360,-0.295,0.655
6361,-0.865,0.630
6362,-0.810,0.300
6363,-0.425,-0.045
6364,-0.125,-0.275
6365,-0.065,-0.375
6366,-0.030,-0.405
6367,-0.010,-0.370
6368,0.000,-0.375
6369,0.000,-0.355
6370,0.005,-0.340
6371,0.015,-0.365
6372,0.020,-0.365
6373,0.025,-0.355
6374,0.030,-0.370
6375,0.045,-0.340
6376,0.075,-0.340
6377,0.100,-0.365
6378,0.080,-0.370
6379,0.120,-0.330
6380,0.150,-0.335
6381,0.145,-0.330
6382,0.150,-0.300
6383,0.175,-0.305
6384,0.180,-0.280
6385,0.175,-0.260
6386,0.185,-0.235
6387,0.180,-0.220
6388,0.160,-0.225
6389,0.120,-0.210
6390,0.110,-0.200
6391,0.080,-0.210
6392,0.055,-0.240
6393,0.005,-0.250
6394,0.000,-0.285
6395,-0.010,-0.290
6396,-0.020,-0.285
6397,-0.035,-0.290
6398,-0.010,-0.285
6399,0.000,-0.295
6400,-0.050,-0.295
6401,-0.020,-0.290
6402,-0.005,-0.300
6403,0.000,-0.280
6404,-0.015,-0.300
6405,-0.025,-0.280
6406,-0.010,-0.280
6407,-0.005,-0.280
6408,0.000,-0.265
6409,0.000,-0.270
6410,0.010,-0.270
6411,0.025,-0.270
6412,0.010,-0.270
6413,0.005,-0.260
6414,0.000,-0.275
6415,0.000,-0.270
6416,-0.025,-0.240
6417,-0.005,-0.215
6418,0.000,-0.210
6419,0.030,-0.155
6420,0.055,-0.145
6421,0.015,-0.135
6422,0.030,-0.140
6423,0.010,-0.170
6424,0.000,-0.190
6425,0.000,-0.225
6426,0.000,-0.275
6427,-0.020,-0.325
6428,-0.010,-0.335
6429,-0.015,-0.325
6430,-0.020,-0.315
6431,-0.030,-0.310
6432,-0.030,-0.310
6433,-0.030,-0.310
6434,-0.025,-0.320
6435,-0.025,-0.290
6436,-0.010,-0.285
6437,-0.015,-0.285
6438,0.005,-0.285
6439,0.000,-0.295
6440,0.000,-0.280
6441,0.000,-0.360
6442,0.005,-0.630
6443,0.110,-0.545
6444,0.270,-0.240
6445,0.260,0.315
6446,-0.220,0.720
6447,-0.820,0.725
6448,-0.805,0.475
6449,-0.465,0.100
6450,-0.155,-0.150
6451,-0.025,-0.300
6452,0.000,-0.340
6453,0.040,-0.335
6454,0.045,-0.315
6455,0.065,-0.305
6456,0.085,-0.305
6457,0.090,-0.315
6458,0.060,-0.300
6459,0.090,-0.295
6460,0.105,-0.280
6461,0.090,-0.300
6462,0.120,-0.290
6463,0.130,-0.290
6464,0.125,-0.290
6465,0.160,-0.290
6466,0.205,-0.295
6467,0.230,-0.285
6468,0.210,-0.270
6469,0.210,-0.255
6470,0.225,-0.245
6471,0.215,-0.220
6472,0.245,-0.190
6473,0.210,-0.170
6474,0.190,-0.155
6475,0.190,-0.140
6476,0.165,-0.150
6477,0.130,-0.165
6478,0.075,-0.190
6479,0.045,-0.205
6480,0.020,-0.210
6481,0.005,-0.215
6482,0.000,-0.220
6483,0.000,-0.225
6484,0.000,-0.230
6485,-0.015,-0.240
6486,0.000,-0.240
6487,0.000,-0.235
6488,0.000,-0.230
6489,-0.005,-0.240
6490,0.005,-0.235
6491,0.020,-0.235
6492,0.015,-0.220
6493,0.005,-0.230
6494,0.020,-0.225
6495,0.035,-0.220
6496,0.020,-0.225
6497,0.020,-0.220
6498,0.010,-0.240
6499,0.005,-0.235
6500,0.005,-0.210
6501,0.030,-0.185
6502,0.030,-0.170
6503,0.040,-0.140
6504,0.050,-0.115
6505,0.050,-0.095
6506,0.050,-0.070
6507,0.055,-0.065
6508,0.055,-0.120
6509,0.040,-0.125
6510,0.035,-0.160
6511,0.015,-0.205
6512,0.020,-0.265
6513,0.015,-0.270
6514,0.020,-0.275
6515,0.005,-0.265
6516,0.015,-0.255
6517,0.010,-0.250
6518,0.000,-0.240
6519,0.010,-0.240
6520,0.000,-0.230
6521,0.015,-0.220
6522,0.035,-0.225
6523,0.030,-0.210
6524,0.045,-0.215
6525,0.025,-0.205
6526,0.040,-0.245
6527,0.075,-0.470
6528,0.110,-0.550
6529,0.265,-0.275
6530,0.300,0.170
6531,0.005,0.725
6532,-0.625,0.750
6533,-0.885,0.670
6534,-0.540,0.280
6535,-0.195,0.010
6536,0.020,-0.160
6537,0.060,-0.235
6538,0.095,-0.230
6539,0.095,-0.235
6540,0.105,-0.230
6541,0.135,-0.215
6542,0.140,-0.215
6543,0.140,-0.220
6544,0.160,-0.195
6545,0.165,-0.210
6546,0.175,-0.200
6547,0.215,-0.205
6548,0.180,-0.215
6549,0.210,-0.215
6550,0.255,-0.200
6551,0.250,-0.195
6552,0.270,-0.200
6553,0.270,-0.190
6554,0.275,-0.170
6555,0.290,-0.150
6556,0.305,-0.125
6557,0.315,-0.100
6558,0.300,-0.080
6559,0.290,-0.055
6560,0.255,-0.060
6561,0.215,-0.060
6562,0.185,-0.055
6563,0.150,-0.080
6564,0.110,-0.085
6565,0.090,-0.120
6566,0.070,-0.120
6567,0.065,-0.115
6568,0.055,-0.135
6569,0.050,-0.140
6570,0.060,-0.145
6571,0.055,-0.140
6572,0.055,-0.150
6573,0.045,-0.160
6574,0.050,-0.150
6575,0.050,-0.145
6576,0.060,-0.150
6577,0.055,-0.135
6578,0.085,-0.145
6579,0.075,-0.145
6580,0.045,-0.170
6581,0.055,-0.150
6582,0.065,-0.155
6583,0.055,-0.160
6584,0.070,-0.145
6585,0.050,-0.145
6586,0.060,-0.120
6587,0.070,-0.090
6588,0.065,-0.080
6589,0.075,-0.070
6590,0.065,-0.030
6591,0.050,-0.025
6592,0.075,-0.025
6593,0.075,-0.050
6594,0.070,-0.060
6595,0.055,-0.090
6596,0.045,-0.140
6597,0.040,-0.210
6598,0.030,-0.230
6599,0.025,-0.225
6600,0.000,-0.225
6601,0.010,-0.205
6602,0.020,-0.195
6603,0.015,-0.195
6604,0.000,-0.200
6605,0.030,-0.200
6606,0.030,-0.195
6607,0.005,-0.190
6608,-0.005,-0.190
6609,-0.010,-0.180
6610,0.000,-0.175
6611,0.000,-0.200
6612,0.000,-0.370
6613,0.070,-0.555
6614,0.235,-0.285
6615,0.320,0.050
6616,0.085,0.650
6617,-0.520,0.770
6618,-0.900,0.750
6619,-0.695,0.375
6620,-0.325,0.085
6621,-0.060,-0.120
6622,0.000,-0.215
6623,0.030,-0.240
6624,0.075,-0.230
6625,0.105,-0.225
6626,0.110,-0.220
6627,0.110,-0.215
6628,0.095,-0.205
6629,0.090,-0.220
6630,0.115,-0.210
6631,0.155,-0.200
6632,0.140,-0.205
6633,0.135,-0.210
6634,0.170,-0.195
6635,0.200,-0.210
6636,0.220,-0.205
6637,0.230,-0.200
6638,0.255,-0.190
6639,0.275,-0.180
6640,0.285,-0.145
6641,0.285,-0.145
6642,0.275,-0.125
6643,0.285,-0.085
6644,0.275,-0.070
6645,0.255,-0.060
6646,0.220,-0.065
6647,0.175,-0.065
6648,0.150,-0.070
6649,0.115,-0.090
6650,0.100,-0.100
6651,0.095,-0.120
6652,0.075,-0.110
6653,0.045,-0.140
6654,0.035,-0.140
6655,0.045,-0.135
6656,0.050,-0.160
6657,0.025,-0.145
6658,0.050,-0.155
6659,0.070,-0.150
6660,0.060,-0.145
6661,0.060,-0.145
6662,0.060,-0.125
6663,0.065,-0.160
6664,0.055,-0.140
6665,0.070,-0.145
6666,0.070,-0.160
6667,0.055,-0.140
6668,0.065,-0.130
6669,0.065,-0.135
6670,0.085,-0.140
6671,0.075,-0.120
6672,0.095,-0.110
6673,0.070,-0.080
6674,0.050,-0.095
6675,0.060,-0.050
6676,0.090,-0.010
6677,0.070,-0.005
6678,0.060,-0.020
6679,0.080,-0.050
6680,0.075,-0.065
6681,0.055,-0.115
6682,0.035,-0.175
6683,0.050,-0.220
6684,0.030,-0.230
6685,0.015,-0.210
6686,0.005,-0.195
6687,0.030,-0.180
6688,0.030,-0.180
6689,0.015,-0.180
6690,0.015,-0.165
6691,0.010,-0.185
6692,0.030,-0.175
6693,0.025,-0.180
6694,0.020,-0.175
6695,0.040,-0.170
6696,0.030,-0.155
6697,0.045,-0.260
6698,0.055,-0.540
6699,0.170,-0.470
6700,0.340,-0.160
6701,0.275,0.340
6702,-0.180,0.755
6703,-0.805,0.770
6704,-0.850,0.625
6705,-0.480,0.265
6706,-0.125,0.010
6707,0.000,-0.160
6708,0.015,-0.230
6709,0.060,-0.240
6710,0.095,-0.210
6711,0.105,-0.200
6712,0.120,-0.195
6713,0.110,-0.200
6714,0.125,-0.180
6715,0.130,-0.190
6716,0.140,-0.175
6717,0.180,-0.190
6718,0.160,-0.190
