'sample interval','ECG0','ECG1'
'0.0078125 sec','mV','mV'
0,-0.040,-0.330
1,0.005,-0.285
2,0.000,-0.270
3,-0.010,-0.255
4,-0.005,-0.270
5,-0.005,-0.310
6,-0.005,-0.280
7,0.010,-0.275
8,0.030,-0.280
9,0.005,-0.275
10,0.000,-0.250
11,0.005,-0.220
12,0.000,-0.215
13,0.000,-0.255
14,0.000,-0.240
15,0.015,-0.205
16,-0.005,-0.185
17,-0.005,-0.195
18,0.025,-0.165
19,0.010,-0.185
20,0.010,-0.150
21,0.025,-0.185
22,0.020,-0.140
23,0.050,-0.110
24,0.025,-0.080
25,0.045,-0.050
26,0.085,-0.020
27,0.055,-0.020
28,0.080,-0.015
29,0.080,-0.020
30,0.085,-0.025
31,0.085,-0.040
32,0.120,-0.065
33,0.110,-0.080
34,0.110,-0.085
35,0.115,-0.070
36,0.120,-0.045
37,0.080,-0.050
38,0.095,-0.075
39,0.100,-0.055
40,0.110,-0.030
41,0.115,-0.050
42,0.120,-0.060
43,0.075,-0.080
44,0.085,-0.060
45,0.095,-0.055
46,0.105,-0.005
47,0.090,0.010
48,0.125,0.045
49,0.150,0.110
50,0.185,0.145
51,0.165,0.165
52,0.140,0.075
53,0.110,-0.010
54,0.075,0.005
55,0.065,-0.015
56,0.090,-0.055
57,0.055,-0.090
58,0.085,-0.150
59,0.040,-0.145
60,0.005,-0.170
61,-0.005,-0.150
62,0.015,-0.155
63,0.000,-0.125
64,-0.020,-0.120
65,0.000,-0.150
66,-0.005,-0.190
67,0.015,-0.020
68,0.030,0.495
69,0.100,0.855
70,0.240,0.550
71,0.335,-0.590
72,0.125,-0.955
73,-0.225,-0.670
74,-0.265,-0.390
75,-0.150,-0.220
76,-0.030,-0.215
77,-0.015,-0.210
78,-0.010,-0.200
79,0.000,-0.190
80,0.000,-0.220
81,0.000,-0.225
82,0.010,-0.215
83,0.030,-0.200
84,0.030,-0.230
85,0.020,-0.235
86,0.020,-0.225
87,0.025,-0.185
88,0.035,-0.195
89,0.000,-0.195
90,0.025,-0.170
91,0.015,-0.180
92,0.000,-0.160
93,0.000,-0.130
94,0.000,-0.135
95,-0.025,-0.130
96,-0.010,-0.125
97,-0.025,-0.065
98,0.000,-0.065
99,-0.025,-0.045
100,-0.020,-0.015
101,0.010,-0.030
102,0.020,-0.020
103,0.060,-0.030
104,0.075,-0.030
105,0.085,-0.075
106,0.090,-0.120
107,0.070,-0.090
108,0.080,-0.155
109,0.085,-0.100
110,0.090,-0.125
111,0.085,-0.125
112,0.060,-0.140
113,0.055,-0.105
114,0.080,-0.135
115,0.065,-0.100
116,0.060,-0.095
117,0.090,-0.105
118,0.090,-0.125
119,0.080,-0.100
120,0.075,-0.065
121,0.105,-0.010
122,0.105,0.050
123,0.110,0.035
124,0.110,0.090
125,0.115,0.050
126,0.050,-0.020
127,0.040,-0.110
128,0.005,-0.115
129,-0.005,-0.125
130,0.015,-0.160
131,0.030,-0.130
132,0.045,-0.215
133,0.035,-0.215
134,0.010,-0.210
135,0.010,-0.240
136,-0.005,-0.225
137,0.000,-0.235
138,0.020,-0.190
139,0.030,-0.220
140,0.040,-0.240
141,0.035,-0.045
142,0.080,0.405
143,0.180,0.750
144,0.275,0.555
145,0.375,-0.480
146,0.250,-0.975
147,-0.105,-0.750
148,-0.200,-0.455
149,-0.035,-0.275
150,0.095,-0.275
151,0.120,-0.200
152,0.055,-0.265
153,0.100,-0.215
154,0.085,-0.230
155,0.000,-0.205
156,0.025,-0.225
157,0.050,-0.205
158,0.045,-0.210
159,0.050,-0.200
160,0.060,-0.215
161,0.060,-0.205
162,0.040,-0.215
163,0.040,-0.170
164,0.040,-0.150
165,0.050,-0.105
166,0.050,-0.160
167,0.035,-0.165
168,0.030,-0.200
169,0.015,-0.080
170,0.010,-0.045
171,0.020,-0.095
172,0.035,-0.030
173,0.015,-0.045
174,0.025,-0.010
175,0.035,0.020
176,0.045,0.005
177,0.065,-0.030
178,0.070,-0.015
179,0.080,-0.070
180,0.065,-0.055
181,0.060,-0.040
182,0.075,-0.045
183,0.050,-0.060
184,0.070,-0.040
185,0.065,-0.005
186,0.070,-0.040
187,0.080,-0.055
188,0.030,-0.060
189,0.070,-0.060
190,0.110,-0.015
191,0.135,-0.050
192,0.130,-0.140
193,0.135,-0.080
194,0.155,-0.110
195,0.110,-0.140
196,0.075,-0.150
197,0.085,-0.095
198,0.075,-0.125
199,0.075,-0.135
200,0.055,-0.135
201,0.070,-0.150
202,0.065,-0.195
203,0.050,-0.200
204,0.070,0.275
205,0.135,0.655
206,0.265,0.490
207,0.380,-0.440
208,0.305,-0.915
209,-0.125,-0.680
210,-0.225,-0.395
211,-0.105,-0.175
212,0.020,-0.210
213,0.030,-0.160
214,0.030,-0.155
215,0.040,-0.190
216,0.020,-0.155
217,0.030,-0.155
218,0.030,-0.140
219,0.010,-0.125
220,0.035,-0.200
221,0.015,-0.195
222,0.015,-0.175
223,0.005,-0.120
224,0.000,-0.200
225,0.005,-0.175
226,0.000,-0.150
227,-0.005,-0.175
228,0.000,-0.150
229,0.005,-0.180
230,0.005,-0.210
231,-0.015,-0.145
232,0.000,-0.155
233,-0.045,-0.135
234,-0.020,-0.100
235,-0.020,-0.080
236,0.000,-0.055
237,0.025,-0.030
238,0.055,-0.015
239,0.045,-0.095
240,0.040,-0.070
241,0.065,-0.050
242,0.075,-0.055
243,0.080,-0.050
244,0.075,-0.055
245,0.075,-0.045
246,0.055,-0.045
247,0.055,-0.060
248,0.065,-0.120
249,0.075,-0.070
250,0.030,-0.060
251,0.035,-0.060
252,0.055,-0.095
253,0.070,-0.110
254,0.055,-0.120
255,0.065,-0.120
256,0.065,-0.090
257,0.050,-0.145
258,0.080,-0.155
259,0.075,-0.140
260,0.045,-0.085
261,0.040,-0.090
262,0.050,-0.085
263,0.050,-0.100
264,0.060,-0.125
265,0.045,-0.145
266,0.055,-0.050
267,0.065,0.000
268,0.040,0.030
269,0.085,0.040
270,0.080,0.085
271,0.070,0.050
272,0.060,-0.060
273,0.035,-0.090
274,0.010,-0.125
275,-0.005,-0.125
276,0.005,-0.145
277,0.060,-0.190
278,0.085,-0.205
279,0.025,-0.205
280,0.015,-0.210
281,0.015,-0.205
282,0.020,-0.200
283,0.025,-0.220
284,0.035,-0.210
285,0.045,-0.235
286,0.050,-0.115
287,0.080,0.295
288,0.165,0.745
289,0.270,0.705
290,0.345,-0.325
291,0.230,-0.915
292,-0.145,-0.695
293,-0.230,-0.395
294,-0.120,-0.210
295,0.060,-0.215
296,0.025,-0.245
297,0.035,-0.190
298,0.050,-0.195
299,0.085,-0.230
300,0.055,-0.160
301,0.025,-0.120
302,0.070,-0.195
303,0.095,-0.155
304,0.020,-0.165
305,0.080,-0.240
306,0.095,-0.165
307,0.050,-0.110
308,0.075,-0.140
309,0.020,-0.145
310,0.035,-0.115
311,0.095,-0.140
312,0.070,-0.015
313,0.035,-0.030
314,0.055,-0.080
315,0.065,-0.065
316,0.090,-0.085
317,0.015,0.065
318,0.055,-0.010
319,0.065,0.095
320,0.085,0.085
321,0.095,0.095
322,0.110,0.090
323,0.120,0.025
324,0.035,0.015
325,0.165,-0.045
326,0.055,-0.020
327,0.055,0.000
328,0.085,-0.020
329,0.140,-0.055
330,0.080,-0.035
331,0.110,-0.035
332,0.080,-0.015
333,0.055,-0.060
334,0.075,-0.055
335,0.090,-0.055
336,0.060,-0.040
337,0.055,-0.015
338,0.050,-0.025
339,0.120,-0.085
340,0.040,0.010
341,0.105,0.070
342,0.090,0.075
343,0.115,0.150
344,0.105,0.130
345,0.115,0.040
346,0.065,-0.030
347,0.005,-0.045
348,0.050,-0.050
349,0.055,-0.080
350,0.010,-0.125
351,0.060,-0.140
352,0.115,-0.190
353,0.050,-0.180
354,0.040,-0.175
355,0.085,-0.175
356,0.015,-0.240
357,0.030,-0.240
358,0.050,-0.175
359,0.060,-0.180
360,0.050,-0.220
361,0.050,0.155
362,0.105,0.650
363,0.225,0.765
364,0.260,0.180
365,0.400,-0.875
366,0.135,-0.915
367,-0.230,-0.620
368,-0.225,-0.370
369,-0.060,-0.260
370,0.030,-0.215
371,0.000,-0.210
372,0.020,-0.200
373,0.035,-0.220
374,0.025,-0.210
375,0.020,-0.220
376,0.050,-0.180
377,0.045,-0.220
378,0.055,-0.175
379,0.000,-0.195
380,0.020,-0.215
381,0.025,-0.205
382,0.040,-0.175
383,0.045,-0.170
384,0.020,-0.140
385,0.050,-0.175
386,0.020,-0.185
387,0.000,-0.135
388,0.000,-0.130
389,-0.005,-0.195
390,0.000,-0.105
391,0.030,-0.090
392,0.025,-0.100
393,0.005,-0.075
394,0.005,-0.065
395,0.020,-0.005
396,0.080,-0.010
397,0.030,-0.010
398,0.045,-0.035
399,0.090,-0.045
400,0.100,-0.025
401,0.050,-0.090
402,0.085,-0.050
403,0.055,-0.030
404,0.130,-0.025
405,0.025,-0.065
406,0.075,-0.020
407,0.080,-0.060
408,0.005,-0.040
409,0.045,-0.040
410,0.065,-0.080
411,0.070,-0.030
412,0.050,-0.070
413,0.040,-0.060
414,0.030,-0.005
415,0.075,-0.010
416,0.045,0.095
417,0.100,0.090
418,0.065,0.120
419,0.070,0.070
420,0.000,-0.015
421,0.005,-0.085
422,0.000,-0.055
423,0.000,0.000
424,0.035,-0.105
425,0.025,-0.155
426,0.090,-0.195
427,0.020,-0.180
428,0.035,-0.175
429,0.045,-0.200
430,0.020,-0.180
431,0.025,-0.125
432,0.060,-0.170
433,0.060,-0.165
434,0.045,-0.145
435,0.065,0.155
436,0.095,0.645
437,0.205,0.805
438,0.320,0.115
439,0.305,-0.800
440,0.020,-0.770
441,-0.185,-0.485
442,-0.165,-0.300
443,-0.050,-0.215
444,0.020,-0.215
445,0.030,-0.205
446,0.060,-0.190
447,-0.005,-0.150
448,0.000,-0.170
449,0.035,-0.165
450,0.015,-0.170
451,0.015,-0.210
452,0.030,-0.185
453,0.020,-0.085
454,0.025,-0.125
455,0.025,-0.125
456,0.010,-0.095
457,0.025,-0.130
458,0.025,-0.090
459,0.025,-0.100
460,0.015,-0.080
461,0.015,-0.065
462,0.045,-0.055
463,0.030,-0.045
464,0.025,-0.045
465,0.025,0.015
466,0.045,0.015
467,0.040,0.020
468,0.060,0.085
469,0.025,0.055
470,0.030,0.080
471,0.060,0.055
472,0.050,0.005
473,0.065,0.000
474,0.065,-0.005
475,0.075,0.010
476,0.020,-0.025
477,0.060,-0.035
478,0.050,-0.015
479,0.040,-0.025
480,0.060,-0.020
481,0.035,-0.010
482,0.060,-0.050
483,0.055,-0.030
484,0.025,-0.045
485,0.020,-0.055
486,0.030,-0.065
487,0.030,-0.025
488,0.015,0.020
489,0.025,0.055
490,0.050,0.095
491,0.070,0.110
492,0.075,0.100
493,0.050,0.045
494,0.005,-0.075
495,0.000,-0.070
496,0.000,-0.075
497,-0.020,-0.065
498,-0.005,-0.130
499,0.020,-0.185
500,0.040,-0.165
501,-0.005,-0.210
502,-0.010,-0.200
503,0.000,-0.190
504,0.000,-0.210
505,0.005,-0.210
506,-0.035,-0.200
507,0.020,-0.215
508,-0.035,-0.175
509,0.020,0.290
510,0.075,0.740
511,0.185,0.660
512,0.265,-0.230
513,0.310,-1.055
514,-0.070,-0.915
515,-0.285,-0.595
516,-0.260,-0.310
517,-0.085,-0.235
518,-0.015,-0.230
519,-0.025,-0.180
520,-0.010,-0.225
521,-0.015,-0.230
522,-0.015,-0.230
523,-0.010,-0.210
524,-0.020,-0.210
525,-0.005,-0.265
526,-0.015,-0.205
527,-0.030,-0.195
528,-0.020,-0.180
529,0.000,-0.195
530,-0.020,-0.230
531,0.015,-0.205
532,-0.045,-0.230
533,-0.015,-0.125
534,-0.010,-0.170
535,-0.030,-0.165
536,0.005,-0.170
537,-0.015,-0.140
538,-0.040,-0.085
539,-0.010,-0.100
540,0.015,-0.095
541,-0.005,-0.020
542,0.000,-0.025
543,0.035,-0.010
544,0.030,-0.030
545,0.045,-0.040
546,0.040,-0.025
547,0.050,-0.050
548,0.070,-0.060
549,0.050,-0.065
550,0.030,-0.065
551,0.025,-0.025
552,0.035,-0.050
553,0.065,-0.050
554,0.055,-0.040
555,0.040,-0.030
556,0.050,0.000
557,0.050,0.000
558,0.080,-0.010
559,0.060,-0.020
560,0.075,-0.050
561,0.055,-0.030
562,0.020,0.005
563,0.050,0.030
564,0.115,0.015
565,0.105,-0.005
566,0.095,-0.095
567,0.060,-0.130
568,0.025,-0.120
569,0.030,-0.155
570,0.035,-0.175
571,0.020,-0.170
572,0.035,-0.150
573,0.030,-0.095
574,0.035,-0.125
575,0.025,-0.195
576,0.020,-0.150
577,0.055,0.260
578,0.125,0.725
579,0.235,0.810
580,0.345,-0.120
581,0.375,-0.895
582,-0.030,-0.765
583,-0.230,-0.480
584,-0.185,-0.220
585,-0.030,-0.180
586,0.025,-0.185
587,0.025,-0.160
588,0.030,-0.175
589,0.025,-0.160
590,0.015,-0.155
591,0.020,-0.165
592,0.030,-0.175
593,0.050,-0.145
594,0.045,-0.155
595,0.025,-0.190
596,0.000,-0.140
597,0.040,-0.105
598,0.030,-0.160
599,0.050,-0.140
600,0.010,-0.120
601,0.010,-0.125
602,0.025,-0.140
603,0.025,-0.125
604,0.035,-0.085
605,0.005,-0.115
606,0.015,-0.090
607,0.015,-0.085
608,0.000,-0.040
609,0.040,-0.015
610,0.045,0.005
611,0.025,0.045
612,0.100,-0.050
613,0.085,-0.010
614,0.045,-0.015
615,0.075,-0.035
616,0.105,-0.035
617,0.075,-0.060
618,0.075,-0.045
619,0.075,-0.025
620,0.095,-0.045
621,0.095,-0.070
622,0.015,-0.010
623,0.080,-0.005
624,0.085,-0.075
625,0.025,-0.065
626,0.055,-0.065
627,0.040,-0.065
628,0.075,-0.050
629,0.050,-0.065
630,0.070,-0.085
631,0.055,-0.135
632,-0.015,-0.125
633,0.020,-0.110
634,0.060,-0.100
635,0.005,0.010
636,0.075,0.015
637,0.090,0.045
638,0.045,0.065
639,0.090,0.140
640,0.045,0.105
641,0.065,-0.070
642,0.020,-0.095
643,0.000,-0.120
644,0.025,-0.155
645,0.010,-0.090
646,0.020,-0.105
647,0.085,-0.195
648,0.005,-0.210
649,0.025,-0.165
650,0.030,-0.170
651,0.025,-0.235
652,0.035,-0.215
653,0.035,-0.205
654,0.000,-0.240
655,0.040,-0.180
656,0.105,0.105
657,0.145,0.630
658,0.150,0.825
659,0.305,0.095
660,0.360,-0.900
661,-0.035,-0.790
662,-0.225,-0.495
663,-0.140,-0.275
664,-0.085,-0.205
665,0.050,-0.215
666,0.020,-0.195
667,0.050,-0.185
668,0.050,-0.240
669,0.015,-0.195
670,0.070,-0.215
671,-0.005,-0.215
672,0.015,-0.165
673,0.025,-0.205
674,0.055,-0.175
675,0.060,-0.170
676,0.030,-0.165
677,0.075,-0.140
678,0.065,-0.135
679,0.015,-0.125
680,0.065,-0.110
681,0.045,-0.070
682,0.035,-0.065
683,0.040,-0.055
684,0.095,-0.060
685,0.065,-0.040
686,0.055,0.020
687,0.060,0.000
688,0.095,0.020
689,0.045,0.060
690,0.080,0.060
691,0.095,0.065
692,0.100,0.030
693,0.095,0.000
694,0.095,-0.010
695,0.075,-0.015
696,0.090,-0.015
697,0.065,-0.065
698,0.055,-0.050
699,0.090,-0.010
700,0.085,-0.020
701,0.055,-0.055
702,0.075,-0.055
703,0.045,-0.030
704,0.080,-0.030
705,0.100,-0.030
706,0.080,-0.050
707,0.070,-0.070
708,0.095,-0.025
709,0.045,0.020
710,0.085,0.095
711,0.095,0.095
712,0.135,0.075
713,0.105,0.105
714,0.105,0.070
715,0.060,-0.085
716,0.010,-0.095
717,0.020,-0.055
718,0.030,-0.065
719,0.055,-0.130
720,0.060,-0.155
721,0.085,-0.175
722,0.075,-0.245
723,0.050,-0.240
724,0.050,-0.205
725,0.050,-0.125
726,0.050,-0.165
727,0.040,-0.125
728,0.060,-0.150
729,0.055,-0.145
730,0.075,0.270
731,0.130,0.735
732,0.240,0.710
733,0.345,-0.220
734,0.340,-1.000
735,0.000,-0.860
736,-0.205,-0.570
737,-0.175,-0.330
738,-0.040,-0.235
739,0.020,-0.230
740,0.030,-0.180
741,0.030,-0.165
742,0.015,-0.160
743,0.035,-0.195
744,0.035,-0.205
745,0.040,-0.175
746,0.045,-0.165
747,0.065,-0.130
748,0.020,-0.175
749,0.045,-0.175
750,0.050,-0.155
751,0.020,-0.145
752,0.015,-0.135
753,0.015,-0.160
754,0.000,-0.130
755,-0.015,-0.130
756,-0.025,-0.130
757,-0.015,-0.130
758,-0.025,-0.145
759,-0.020,-0.080
760,-0.025,-0.060
761,-0.015,-0.050
762,0.010,0.000
763,-0.040,0.010
764,-0.050,0.045
765,-0.100,0.035
766,-0.095,0.050
767,-0.070,0.045
768,-0.065,0.010
769,-0.075,0.025
770,-0.060,0.035
771,-0.045,0.040
772,-0.100,0.050
773,-0.095,0.045
774,-0.090,0.085
775,-0.105,0.070
776,-0.100,0.055
777,-0.105,0.045
778,-0.110,0.035
779,-0.130,0.040
780,-0.145,-0.020
781,-0.165,-0.050
782,-0.170,-0.025
783,-0.170,0.105
784,-0.150,0.140
785,-0.070,0.050
786,-0.035,0.120
787,-0.050,0.070
788,-0.075,0.005
789,-0.080,-0.090
790,-0.110,-0.090
791,-0.100,-0.075
792,-0.090,-0.115
793,-0.055,-0.150
794,-0.045,-0.240
795,-0.055,-0.245
796,-0.070,-0.240
797,-0.075,-0.280
798,-0.080,-0.285
799,-0.060,-0.290
800,-0.050,-0.275
801,-0.040,-0.320
802,-0.050,-0.265
803,0.010,0.065
804,0.090,0.485
805,0.185,0.720
806,0.240,0.265
807,0.310,-0.830
808,0.085,-0.935
809,-0.220,-0.660
810,-0.200,-0.340
811,-0.060,-0.245
812,0.010,-0.250
813,0.010,-0.220
814,0.020,-0.215
815,0.005,-0.210
816,0.000,-0.230
817,-0.020,-0.160
818,0.015,-0.200
819,0.005,-0.190
820,0.000,-0.200
821,0.000,-0.175
822,-0.005,-0.170
823,0.000,-0.165
824,0.000,-0.185
825,-0.010,-0.155
826,-0.015,-0.145
827,-0.015,-0.155
828,-0.010,-0.130
829,-0.010,-0.110
830,-0.045,-0.110
831,-0.020,-0.105
832,-0.020,-0.090
833,-0.020,-0.080
834,-0.015,-0.010
835,-0.015,-0.025
836,-0.015,-0.010
837,-0.005,0.025
838,0.010,0.000
839,0.025,0.005
840,0.040,0.000
841,0.025,-0.010
842,0.055,-0.025
843,0.050,-0.040
844,0.030,-0.025
845,0.045,-0.040
846,0.040,-0.050
847,0.020,-0.045
848,0.025,-0.055
849,0.025,-0.020
850,0.020,-0.020
851,0.030,-0.045
852,0.010,-0.040
853,0.005,-0.045
854,0.005,-0.070
855,0.015,-0.040
856,0.015,0.020
857,0.035,0.120
858,0.060,0.090
859,0.070,0.095
860,0.090,0.075
861,0.040,0.060
862,0.005,-0.070
863,-0.025,-0.115
864,-0.035,-0.085
865,-0.015,-0.110
866,0.000,-0.130
867,0.000,-0.175
868,0.015,-0.185
869,0.010,-0.190
870,-0.010,-0.185
871,-0.015,-0.235
872,-0.020,-0.240
873,-0.020,-0.195
874,0.005,-0.185
875,-0.020,-0.215
876,-0.005,-0.115
877,0.000,0.265
878,0.055,0.730
879,0.190,0.510
880,0.270,-0.465
881,0.195,-1.040
882,-0.160,-0.840
883,-0.295,-0.510
884,-0.220,-0.280
885,-0.060,-0.215
886,-0.015,-0.215
887,-0.015,-0.220
888,-0.015,-0.240
889,-0.030,-0.205
890,-0.020,-0.185
891,-0.040,-0.205
892,-0.035,-0.235
893,-0.030,-0.240
894,-0.035,-0.230
895,-0.040,-0.220
896,-0.035,-0.210
897,-0.045,-0.180
898,-0.035,-0.180
899,-0.040,-0.175
900,-0.040,-0.190
901,-0.050,-0.190
902,-0.020,-0.160
903,-0.040,-0.150
904,-0.040,-0.160
905,-0.030,-0.150
906,-0.045,-0.120
907,-0.035,-0.090
908,-0.040,-0.055
909,-0.040,-0.055
910,-0.025,-0.030
911,0.005,-0.055
912,-0.010,-0.040
913,0.015,-0.055
914,0.020,-0.055
915,0.000,-0.045
916,0.025,-0.100
917,0.030,-0.090
918,0.015,-0.085
919,0.035,-0.065
920,0.025,-0.050
921,0.010,-0.080
922,0.000,-0.045
923,0.000,-0.065
924,0.000,-0.045
925,0.000,-0.040
926,0.000,-0.075
927,0.000,-0.070
928,0.005,-0.075
929,0.000,-0.025
930,-0.010,-0.015
931,0.000,0.030
932,0.040,0.040
933,0.065,-0.020
934,0.030,-0.080
935,-0.010,-0.170
936,0.000,-0.180
937,0.000,-0.195
938,0.000,-0.195
939,0.005,-0.175
940,0.000,-0.195
941,0.000,-0.180
942,0.000,-0.180
943,-0.010,-0.195
944,0.000,-0.190
945,0.010,0.115
946,0.070,0.645
947,0.180,0.750
948,0.290,-0.005
949,0.335,-0.855
950,-0.030,-0.780
951,-0.245,-0.480
952,-0.190,-0.250
953,-0.055,-0.175
954,0.000,-0.200
955,-0.020,-0.210
956,-0.010,-0.195
957,-0.010,-0.170
958,-0.015,-0.175
959,0.000,-0.190
960,-0.020,-0.200
961,-0.005,-0.180
962,-0.005,-0.180
963,0.000,-0.175
964,-0.010,-0.175
965,-0.015,-0.170
966,-0.010,-0.165
967,-0.025,-0.170
968,-0.030,-0.150
969,0.000,-0.135
970,-0.005,-0.140
971,-0.015,-0.125
972,-0.010,-0.130
973,-0.015,-0.115
974,-0.015,-0.115
975,-0.025,-0.080
976,-0.020,-0.060
977,-0.015,-0.050
978,0.000,-0.005
979,0.000,-0.020
980,0.005,-0.020
981,0.005,-0.050
982,0.000,-0.075
983,0.015,-0.050
984,0.015,-0.085
985,0.000,-0.055
986,0.025,-0.080
987,0.000,-0.055
988,0.010,-0.020
989,0.005,-0.030
990,0.010,-0.030
991,0.005,-0.035
992,0.000,-0.050
993,0.005,-0.080
994,-0.005,-0.080
995,0.000,-0.050
996,-0.010,-0.080
997,0.000,-0.090
998,-0.015,-0.105
999,-0.015,-0.085
1000,-0.005,-0.085
1001,-0.020,-0.100
1002,-0.015,-0.045
1003,-0.005,-0.015
1004,-0.005,0.050
1005,0.010,0.055
1006,0.015,0.065
1007,0.010,0.050
1008,-0.025,-0.030
1009,-0.040,-0.090
1010,-0.060,-0.120
1011,-0.070,-0.140
1012,-0.045,-0.150
1013,-0.045,-0.190
1014,-0.010,-0.205
1015,-0.025,-0.255
1016,-0.035,-0.250
1017,-0.025,-0.250
1018,-0.025,-0.245
1019,-0.035,-0.225
1020,-0.025,-0.230
1021,-0.025,-0.245
1022,-0.020,-0.270
1023,-0.020,-0.045
1024,-0.005,0.485
1025,0.090,0.795
1026,0.205,0.480
1027,0.285,-0.670
1028,0.125,-1.065
1029,-0.225,-0.805
1030,-0.320,-0.495
1031,-0.185,-0.275
1032,-0.055,-0.275
1033,0.005,-0.295
1034,-0.075,-0.245
1035,-0.045,-0.255
1036,-0.015,-0.265
1037,-0.050,-0.265
1038,-0.060,-0.235
1039,-0.040,-0.255
1040,-0.035,-0.265
1041,-0.050,-0.255
1042,-0.030,-0.250
1043,-0.035,-0.255
1044,-0.025,-0.215
1045,-0.030,-0.225
1046,-0.030,-0.210
1047,-0.040,-0.240
1048,-0.040,-0.200
1049,-0.035,-0.180
1050,-0.020,-0.155
1051,-0.025,-0.150
1052,-0.040,-0.160
1053,-0.045,-0.115
1054,-0.040,-0.095
1055,-0.050,-0.080
1056,-0.025,-0.060
1057,-0.020,-0.050
1058,-0.015,-0.005
1059,0.000,-0.035
1060,0.000,-0.060
1061,0.005,-0.085
1062,0.000,-0.110
1063,0.005,-0.140
1064,-0.005,-0.110
1065,0.000,-0.095
1066,0.000,-0.090
1067,0.000,-0.090
1068,0.015,-0.100
1069,0.000,-0.080
1070,0.005,-0.090
1071,0.000,-0.090
1072,-0.005,-0.095
1073,0.000,-0.100
1074,0.000,-0.075
1075,0.005,-0.055
1076,0.005,-0.015
1077,0.015,0.025
1078,0.040,0.055
1079,0.030,0.085
1080,0.065,0.080
1081,0.035,0.015
1082,0.000,-0.070
1083,-0.035,-0.150
1084,-0.050,-0.135
1085,-0.075,-0.125
1086,-0.040,-0.170
1087,-0.030,-0.200
1088,-0.045,-0.215
1089,-0.050,-0.220
1090,-0.050,-0.255
1091,-0.050,-0.250
1092,-0.050,-0.250
1093,-0.070,-0.245
1094,-0.030,-0.230
1095,-0.040,-0.220
1096,-0.015,-0.255
1097,-0.020,0.060
1098,0.020,0.595
1099,0.125,0.760
1100,0.230,0.045
1101,0.265,-0.940
1102,-0.035,-0.910
1103,-0.280,-0.615
1104,-0.285,-0.365
1105,-0.140,-0.245
1106,-0.055,-0.235
1107,-0.045,-0.225
1108,-0.045,-0.225
1109,-0.060,-0.200
1110,-0.055,-0.240
1111,-0.050,-0.205
1112,-0.070,-0.225
1113,-0.060,-0.210
1114,-0.050,-0.210
1115,-0.065,-0.220
1116,-0.055,-0.205
1117,-0.065,-0.210
1118,-0.065,-0.220
1119,-0.045,-0.200
1120,-0.055,-0.185
1121,-0.065,-0.170
1122,-0.075,-0.160
1123,-0.080,-0.165
1124,-0.075,-0.160
1125,-0.080,-0.170
1126,-0.080,-0.120
1127,-0.060,-0.130
1128,-0.075,-0.095
1129,-0.075,-0.130
1130,-0.080,-0.025
1131,-0.075,-0.015
1132,-0.050,-0.050
1133,-0.050,-0.070
1134,-0.045,-0.120
1135,-0.045,-0.115
1136,-0.030,-0.075
1137,-0.045,-0.125
1138,-0.040,-0.120
1139,-0.035,-0.085
1140,-0.025,-0.055
1141,-0.055,-0.070
1142,-0.035,-0.075
1143,-0.055,-0.095
1144,-0.055,-0.095
1145,-0.045,-0.065
1146,-0.045,-0.110
1147,-0.055,-0.135
1148,-0.060,-0.120
1149,-0.060,-0.090
1150,-0.055,-0.030
1151,-0.030,0.000
1152,-0.015,0.030
1153,-0.005,0.035
1154,-0.020,0.035
1155,-0.065,-0.100
1156,-0.105,-0.135
1157,-0.105,-0.120
1158,-0.075,-0.125
1159,-0.050,-0.165
1160,-0.040,-0.190
1161,-0.035,-0.220
1162,-0.035,-0.255
1163,-0.050,-0.255
1164,-0.060,-0.305
1165,-0.065,-0.280
1166,-0.055,-0.260
1167,-0.060,-0.225
1168,-0.075,-0.265
1169,-0.065,-0.265
1170,-0.055,0.050
1171,0.005,0.595
1172,0.105,0.795
1173,0.190,0.180
1174,0.250,-0.900
1175,-0.075,-0.965
1176,-0.350,-0.705
1177,-0.320,-0.380
1178,-0.155,-0.295
1179,-0.055,-0.295
1180,-0.055,-0.280
1181,-0.045,-0.260
1182,-0.065,-0.265
1183,-0.060,-0.290
1184,-0.060,-0.275
1185,-0.070,-0.255
1186,-0.055,-0.255
1187,-0.075,-0.255
1188,-0.070,-0.270
1189,-0.075,-0.245
1190,-0.065,-0.260
1191,-0.065,-0.255
1192,-0.060,-0.235
1193,-0.065,-0.225
1194,-0.080,-0.185
1195,-0.070,-0.195
1196,-0.055,-0.165
1197,-0.055,-0.170
1198,-0.050,-0.155
1199,-0.065,-0.120
1200,-0.035,-0.125
1201,-0.060,-0.105
1202,-0.070,-0.045
1203,-0.070,-0.015
1204,-0.040,-0.050
1205,-0.050,-0.025
1206,-0.045,-0.080
1207,-0.035,-0.095
1208,-0.020,-0.115
1209,-0.010,-0.090
1210,0.000,-0.085
1211,0.000,-0.100
1212,-0.010,-0.135
1213,-0.025,-0.080
1214,-0.010,-0.090
1215,-0.020,-0.075
1216,-0.020,-0.090
1217,-0.025,-0.085
1218,-0.035,-0.100
1219,-0.035,-0.080
1220,-0.035,-0.110
1221,-0.040,-0.150
1222,-0.050,-0.045
1223,-0.010,0.035
1224,0.000,0.065
1225,0.000,0.070
1226,0.015,0.040
1227,0.010,0.010
1228,-0.025,-0.060
1229,-0.055,-0.115
1230,-0.060,-0.145
1231,-0.070,-0.160
1232,-0.070,-0.205
1233,-0.045,-0.220
1234,-0.045,-0.265
1235,-0.090,-0.255
1236,-0.075,-0.265
1237,-0.075,-0.250
1238,-0.080,-0.240
1239,-0.060,-0.250
1240,-0.055,-0.260
1241,-0.050,-0.245
1242,-0.055,-0.265
1243,-0.055,-0.090
1244,-0.020,0.430
1245,0.055,0.765
1246,0.200,0.430
1247,0.270,-0.685
1248,0.105,-1.060
1249,-0.240,-0.755
1250,-0.335,-0.465
1251,-0.200,-0.295
1252,-0.100,-0.265
1253,-0.060,-0.245
1254,-0.065,-0.240
1255,-0.070,-0.260
1256,-0.060,-0.235
1257,-0.055,-0.245
1258,-0.060,-0.240
1259,-0.075,-0.265
1260,-0.050,-0.230
1261,-0.075,-0.245
1262,-0.075,-0.255
1263,-0.070,-0.245
1264,-0.080,-0.240
1265,-0.105,-0.235
1266,-0.100,-0.230
1267,-0.105,-0.225
1268,-0.115,-0.200
1269,-0.115,-0.180
1270,-0.100,-0.180
1271,-0.095,-0.190
1272,-0.105,-0.215
1273,-0.105,-0.190
1274,-0.095,-0.140
1275,-0.105,-0.085
1276,-0.095,-0.080
1277,-0.075,-0.110
1278,-0.070,-0.075
1279,-0.055,-0.095
1280,-0.055,-0.130
1281,-0.050,-0.155
1282,-0.055,-0.125
1283,-0.015,-0.090
1284,0.025,-0.130
1285,0.015,-0.160
1286,0.025,-0.110
1287,0.025,-0.125
1288,0.005,-0.140
1289,-0.055,-0.180
1290,-0.055,-0.175
1291,-0.075,-0.175
1292,-0.070,-0.185
1293,-0.065,-0.175
1294,-0.070,-0.170
1295,-0.060,-0.170
1296,-0.055,-0.230
1297,-0.060,-0.275
1298,-0.035,0.075
1299,0.020,0.570
1300,0.140,0.575
1301,0.260,-0.240
1302,0.155,-0.845
1303,-0.205,-0.725
1304,-0.340,-0.430
1305,-0.195,-0.240
1306,-0.090,-0.250
1307,-0.070,-0.245
1308,-0.090,-0.230
1309,-0.075,-0.210
1310,-0.075,-0.185
1311,-0.085,-0.215
1312,-0.090,-0.205
1313,-0.075,-0.200
1314,-0.055,-0.205
1315,-0.065,-0.210
1316,-0.060,-0.215
1317,-0.080,-0.200
1318,-0.075,-0.200
1319,-0.090,-0.180
1320,-0.060,-0.160
1321,-0.065,-0.185
1322,-0.060,-0.180
1323,-0.080,-0.140
1324,-0.070,-0.085
1325,-0.050,-0.125
1326,-0.045,-0.105
1327,-0.025,-0.060
1328,-0.030,-0.055
1329,-0.020,-0.055
1330,-0.015,-0.065
1331,-0.005,-0.055
1332,0.000,-0.090
1333,-0.005,-0.130
1334,0.000,-0.120
1335,0.005,-0.100
1336,0.025,-0.105
1337,0.035,-0.120
1338,0.030,-0.145
1339,0.025,-0.145
1340,-0.005,-0.110
1341,0.005,-0.125
1342,-0.010,-0.130
1343,-0.015,-0.155
1344,0.015,-0.135
1345,0.030,-0.135
1346,0.000,-0.130
1347,-0.005,-0.135
1348,-0.010,-0.155
1349,-0.005,-0.160
1350,-0.010,-0.155
1351,-0.025,-0.130
1352,0.000,-0.170
1353,0.000,-0.210
1354,-0.005,-0.180
1355,-0.040,-0.115
1356,0.025,-0.150
1357,-0.020,-0.150
1358,-0.005,-0.150
1359,0.000,-0.145
1360,-0.045,-0.140
1361,-0.005,-0.150
1362,0.020,-0.175
1363,-0.060,-0.150
1364,-0.015,-0.115
1365,0.005,-0.055
1366,0.015,0.030
1367,0.020,0.030
1368,0.035,0.065
1369,0.015,0.030
1370,0.020,-0.040
1371,-0.015,-0.145
1372,-0.040,-0.155
1373,-0.030,-0.140
1374,-0.010,-0.170
1375,-0.040,-0.210
1376,-0.015,-0.235
1377,0.000,-0.240
1378,-0.010,-0.260
1379,-0.005,-0.275
1380,-0.025,-0.270
1381,-0.020,-0.255
1382,-0.030,-0.250
1383,-0.060,-0.285
1384,-0.070,-0.085
1385,-0.015,0.460
1386,0.080,0.760
1387,0.185,0.390
1388,0.225,-0.745
1389,0.045,-1.045
1390,-0.305,-0.760
1391,-0.380,-0.505
1392,-0.215,-0.310
1393,-0.095,-0.275
1394,-0.070,-0.280
1395,-0.080,-0.275
1396,-0.065,-0.270
1397,-0.070,-0.230
1398,-0.045,-0.250
1399,-0.090,-0.275
1400,-0.085,-0.270
1401,-0.050,-0.265
1402,-0.075,-0.255
1403,-0.060,-0.255
1404,-0.075,-0.225
1405,-0.070,-0.240
1406,-0.095,-0.200
1407,-0.075,-0.190
1408,-0.080,-0.200
1409,-0.075,-0.160
1410,-0.070,-0.160
1411,-0.055,-0.150
1412,-0.055,-0.120
1413,-0.100,-0.130
1414,-0.105,-0.115
1415,-0.110,-0.110
1416,-0.095,-0.065
1417,-0.090,-0.040
1418,-0.085,-0.055
1419,-0.080,-0.010
1420,-0.085,-0.025
1421,-0.055,-0.005
1422,-0.045,-0.020
1423,-0.035,-0.065
1424,-0.045,-0.080
1425,-0.060,-0.095
1426,-0.035,-0.085
1427,-0.050,-0.085
1428,-0.050,-0.100
1429,-0.040,-0.070
1430,-0.040,-0.085
1431,-0.045,-0.075
1432,-0.055,-0.060
1433,-0.060,-0.050
1434,-0.035,-0.045
1435,-0.055,-0.055
1436,-0.030,-0.090
1437,-0.055,-0.100
1438,-0.055,-0.055
1439,-0.040,0.030
1440,-0.025,0.065
1441,0.010,0.030
1442,0.000,0.065
1443,0.005,0.035
1444,-0.045,-0.070
1445,-0.095,-0.120
1446,-0.075,-0.115
1447,-0.080,-0.150
1448,-0.070,-0.120
1449,-0.065,-0.195
1450,-0.055,-0.240
1451,-0.055,-0.280
1452,-0.050,-0.225
1453,-0.065,-0.210
1454,-0.050,-0.235
1455,-0.080,-0.215
1456,-0.040,-0.200
1457,-0.015,-0.245
1458,-0.025,-0.215
1459,-0.010,0.155
1460,0.070,0.650
1461,0.195,0.805
1462,0.225,0.070
1463,0.255,-0.835
1464,-0.065,-0.825
1465,-0.290,-0.515
1466,-0.200,-0.280
1467,-0.075,-0.250
1468,-0.060,-0.230
1469,-0.020,-0.270
1470,-0.015,-0.225
1471,-0.015,-0.240
1472,-0.010,-0.255
1473,-0.070,-0.300
1474,-0.100,-0.240
1475,-0.045,-0.265
1476,0.020,-0.265
1477,-0.020,-0.225
1478,0.020,-0.215
1479,-0.005,-0.195
1480,0.000,-0.165
1481,-0.010,-0.160
1482,0.000,-0.140
1483,0.005,-0.150
1484,-0.005,-0.150
1485,-0.040,-0.125
1486,-0.005,-0.115
1487,0.060,-0.130
1488,-0.080,-0.080
1489,-0.035,-0.080
1490,0.000,-0.085
1491,-0.040,-0.015
1492,-0.040,0.035
1493,-0.015,0.010
1494,0.005,0.010
1495,0.095,-0.050
1496,-0.110,-0.075
1497,0.000,-0.090
1498,0.010,-0.085
1499,0.020,-0.085
1500,0.000,-0.105
1501,0.020,-0.105
1502,-0.010,-0.090
1503,0.000,-0.120
1504,-0.105,-0.090
1505,-0.040,-0.105
1506,0.035,-0.095
1507,0.015,-0.100
1508,-0.015,-0.125
1509,-0.020,-0.125
1510,-0.015,-0.090
1511,0.000,-0.025
1512,0.000,0.000
1513,-0.020,0.045
1514,-0.010,0.050
1515,0.030,0.050
1516,0.015,0.010
1517,0.000,-0.110
1518,-0.045,-0.130
1519,-0.060,-0.115
1520,-0.060,-0.170
1521,-0.035,-0.190
1522,-0.035,-0.200
1523,-0.035,-0.225
1524,-0.025,-0.280
1525,-0.045,-0.245
1526,-0.055,-0.235
1527,-0.025,-0.290
1528,-0.105,-0.275
1529,-0.080,-0.235
1530,-0.030,-0.225
1531,-0.015,-0.255
1532,-0.025,0.125
1533,0.000,0.710
1534,0.180,0.760
1535,0.215,-0.030
1536,0.245,-1.070
1537,-0.095,-0.990
1538,-0.330,-0.705
1539,-0.300,-0.405
1540,-0.195,-0.245
1541,-0.080,-0.245
1542,-0.035,-0.270
1543,-0.070,-0.270
1544,-0.095,-0.250
1545,-0.035,-0.235
1546,-0.015,-0.245
1547,-0.065,-0.245
1548,0.000,-0.275
1549,-0.015,-0.260
1550,-0.045,-0.235
1551,-0.060,-0.260
1552,-0.055,-0.225
1553,-0.035,-0.260
1554,-0.100,-0.240
1555,-0.090,-0.170
1556,-0.035,-0.190
1557,-0.025,-0.170
1558,-0.065,-0.155
1559,-0.095,-0.120
1560,-0.015,-0.125
1561,-0.035,-0.110
1562,-0.040,-0.070
1563,-0.025,-0.080
1564,-0.030,-0.045
1565,-0.030,-0.025
1566,-0.015,-0.025
1567,-0.025,-0.045
1568,-0.025,-0.075
1569,0.015,-0.105
1570,0.000,-0.140
1571,-0.015,-0.105
1572,0.005,-0.095
1573,0.020,-0.115
1574,0.025,-0.080
1575,0.045,-0.105
1576,0.020,-0.070
1577,0.045,-0.090
1578,-0.005,-0.090
1579,0.000,-0.085
1580,0.020,-0.080
1581,0.015,-0.075
1582,0.025,-0.100
1583,0.005,-0.060
1584,0.000,-0.010
1585,-0.030,0.060
1586,0.070,0.085
1587,0.095,0.055
1588,0.100,0.080
1589,0.070,0.055
1590,0.025,-0.045
1591,0.020,-0.105
1592,-0.035,-0.080
1593,0.010,-0.095
1594,0.000,-0.170
1595,0.010,-0.195
1596,-0.005,-0.215
1597,0.000,-0.205
1598,-0.010,-0.215
1599,-0.005,-0.220
1600,-0.040,-0.200
1601,0.000,-0.210
1602,0.025,-0.170
1603,0.030,-0.185
1604,0.035,-0.215
1605,0.035,0.055
1606,0.075,0.595
1607,0.145,0.870
1608,0.295,0.340
1609,0.335,-0.740
1610,0.035,-0.885
1611,-0.265,-0.620
1612,-0.280,-0.330
1613,-0.100,-0.225
1614,0.020,-0.235
1615,0.005,-0.240
1616,-0.005,-0.220
1617,0.020,-0.195
1618,0.025,-0.200
1619,0.005,-0.235
1620,-0.045,-0.170
1621,0.000,-0.200
1622,0.025,-0.185
1623,0.000,-0.200
1624,-0.030,-0.160
1625,-0.010,-0.175
1626,0.005,-0.175
1627,-0.010,-0.165
1628,-0.045,-0.135
1629,0.015,-0.140
1630,0.010,-0.080
1631,-0.015,-0.085
1632,-0.010,-0.085
1633,0.000,-0.060
1634,0.000,-0.045
1635,0.045,-0.060
1636,0.030,-0.005
1637,0.035,0.025
1638,0.055,-0.030
1639,-0.005,-0.035
1640,-0.055,-0.030
1641,-0.025,-0.060
1642,0.025,-0.070
1643,0.040,-0.100
1644,-0.025,-0.085
1645,0.040,-0.100
1646,0.005,-0.085
1647,-0.025,-0.085
1648,0.000,-0.140
1649,-0.035,-0.125
1650,-0.020,0.360
1651,0.040,0.955
1652,0.170,0.685
1653,0.320,-0.445
1654,0.115,-0.745
1655,-0.245,-0.510
1656,-0.245,-0.270
1657,-0.100,-0.160
1658,-0.075,-0.175
1659,-0.045,-0.190
1660,-0.075,-0.175
1661,-0.025,-0.205
1662,-0.035,-0.225
1663,-0.075,-0.210
1664,-0.050,-0.225
1665,-0.045,-0.195
1666,-0.035,-0.210
1667,-0.025,-0.225
1668,-0.065,-0.210
1669,-0.050,-0.210
1670,-0.055,-0.165
1671,-0.030,-0.130
1672,-0.035,-0.115
1673,-0.025,-0.095
1674,-0.035,-0.090
1675,-0.050,-0.005
1676,-0.030,0.000
1677,0.000,0.030
1678,-0.030,0.065
1679,0.020,0.090
1680,0.020,0.075
1681,0.010,0.080
1682,0.010,0.040
1683,-0.015,0.000
1684,0.000,-0.045
1685,-0.060,-0.070
1686,-0.035,-0.105
1687,0.000,-0.055
1688,0.000,-0.080
1689,0.000,-0.135
1690,-0.025,-0.145
1691,-0.050,-0.120
1692,-0.020,-0.130
1693,-0.015,-0.135
1694,-0.005,-0.140
1695,-0.020,-0.155
1696,-0.060,-0.150
1697,-0.060,-0.140
1698,-0.045,-0.175
1699,-0.065,-0.150
1700,-0.050,-0.120
1701,-0.030,-0.140
1702,-0.010,-0.160
1703,-0.040,-0.140
1704,-0.030,-0.130
1705,-0.040,-0.140
1706,-0.010,-0.150
1707,-0.010,-0.140
1708,-0.020,-0.170
1709,-0.065,-0.145
1710,-0.020,-0.140
1711,-0.030,-0.145
1712,-0.020,-0.130
1713,-0.020,-0.135
1714,-0.065,-0.130
1715,-0.015,-0.135
1716,-0.025,-0.110
1717,-0.005,-0.075
1718,0.010,-0.005
1719,0.030,0.040
1720,0.005,0.030
1721,0.030,0.090
1722,0.030,0.035
1723,0.015,-0.030
1724,-0.005,-0.115
1725,-0.080,-0.090
1726,-0.020,-0.090
1727,-0.045,-0.195
1728,-0.085,-0.165
1729,-0.040,-0.195
1730,0.000,-0.205
1731,-0.010,-0.205
1732,-0.015,-0.240
1733,-0.015,-0.190
1734,0.010,-0.185
1735,0.005,-0.180
1736,0.010,-0.165
1737,0.000,0.090
1738,0.010,0.640
1739,0.125,0.795
1740,0.260,0.295
1741,0.330,-0.775
1742,0.100,-1.030
1743,-0.200,-0.740
1744,-0.315,-0.465
1745,-0.190,-0.265
1746,-0.055,-0.185
1747,0.015,-0.200
1748,0.010,-0.205
1749,0.005,-0.210
1750,0.000,-0.205
1751,0.000,-0.210
1752,0.015,-0.215
1753,-0.005,-0.210
1754,-0.055,-0.190
1755,0.000,-0.195
1756,-0.015,-0.165
1757,0.005,-0.165
1758,-0.030,-0.165
1759,-0.020,-0.160
1760,-0.035,-0.145
1761,-0.005,-0.145
1762,-0.025,-0.125
1763,-0.010,-0.125
1764,-0.045,-0.110
1765,-0.015,-0.075
1766,-0.015,-0.105
1767,-0.035,-0.055
1768,-0.020,-0.060
1769,0.000,-0.020
1770,-0.025,-0.020
1771,-0.025,0.030
1772,0.060,0.030
1773,0.030,0.030
1774,0.015,0.000
1775,0.025,-0.015
1776,0.010,0.015
1777,0.015,0.005
1778,0.030,-0.015
1779,0.055,-0.025
1780,0.025,-0.015
1781,0.010,0.005
1782,0.000,0.000
1783,0.020,0.000
1784,-0.005,-0.015
1785,0.000,-0.040
1786,0.015,-0.015
1787,-0.005,-0.015
1788,-0.040,-0.035
1789,-0.030,-0.040
1790,-0.005,-0.065
1791,-0.040,-0.010
1792,-0.010,-0.005
1793,0.005,0.050
1794,0.005,0.110
1795,0.065,0.080
1796,0.070,0.115
1797,0.045,0.040
1798,-0.015,-0.045
1799,-0.045,-0.090
1800,-0.055,-0.095
1801,-0.035,-0.100
1802,-0.010,-0.165
1803,-0.030,-0.155
1804,0.000,-0.185
1805,0.000,-0.175
1806,0.000,-0.165
1807,-0.010,-0.205
1808,-0.015,-0.190
1809,-0.005,-0.175
1810,0.000,-0.205
1811,-0.025,-0.210
1812,0.000,-0.175
1813,0.035,0.235
1814,0.055,0.795
1815,0.195,0.920
1816,0.305,0.040
1817,0.285,-0.875
1818,-0.080,-0.835
1819,-0.320,-0.550
1820,-0.290,-0.270
1821,-0.085,-0.220
1822,-0.045,-0.205
1823,-0.040,-0.180
1824,-0.025,-0.205
1825,0.030,-0.185
1826,-0.010,-0.210
1827,-0.025,-0.200
1828,-0.040,-0.230
1829,-0.075,-0.190
1830,-0.015,-0.155
1831,-0.010,-0.220
1832,0.010,-0.195
1833,-0.035,-0.180
1834,0.000,-0.170
1835,-0.025,-0.140
1836,-0.020,-0.150
1837,-0.015,-0.145
1838,-0.035,-0.120
1839,-0.010,-0.115
1840,-0.015,-0.095
1841,-0.020,-0.085
1842,-0.035,-0.085
1843,-0.015,-0.065
1844,-0.010,-0.025
1845,-0.010,-0.010
1846,-0.055,-0.005
1847,-0.010,0.010
1848,0.025,0.000
1849,0.000,0.000
1850,0.020,-0.055
1851,0.000,-0.055
1852,0.030,-0.040
1853,0.080,-0.050
1854,0.020,-0.065
1855,0.025,-0.035
1856,0.025,-0.040
1857,0.035,-0.020
1858,0.035,-0.030
1859,0.035,-0.010
1860,0.020,-0.025
1861,0.030,-0.035
1862,0.020,-0.030
1863,0.010,-0.035
1864,0.025,-0.025
1865,0.025,-0.010
1866,0.020,0.065
1867,0.050,0.120
1868,0.060,0.110
1869,0.080,0.125
1870,0.085,0.100
1871,0.025,0.060
1872,-0.015,-0.055
1873,-0.050,-0.065
1874,-0.020,-0.035
1875,-0.005,-0.075
1876,0.000,-0.100
1877,0.000,-0.150
1878,0.040,-0.185
1879,0.000,-0.170
1880,0.000,-0.170
1881,0.025,-0.165
1882,0.000,-0.150
1883,0.005,-0.160
1884,0.000,-0.145
1885,0.005,-0.160
1886,0.005,-0.060
1887,0.025,0.400
1888,0.100,0.865
1889,0.230,0.735
1890,0.305,-0.270
1891,0.235,-0.965
1892,-0.145,-0.795
1893,-0.300,-0.445
1894,-0.230,-0.210
1895,-0.055,-0.180
1896,-0.020,-0.175
1897,-0.035,-0.150
1898,0.000,-0.125
1899,0.005,-0.150
1900,0.000,-0.135
1901,-0.020,-0.150
1902,0.010,-0.145
1903,0.005,-0.165
1904,-0.030,-0.160
1905,-0.030,-0.140
1906,0.010,-0.130
1907,0.000,-0.130
1908,-0.005,-0.135
1909,-0.035,-0.110
1910,-0.025,-0.095
1911,-0.025,-0.055
1912,-0.035,-0.050
1913,-0.045,-0.050
1914,-0.030,-0.055
1915,-0.005,-0.015
1916,-0.010,-0.015
1917,-0.045,0.015
1918,0.000,0.025
1919,-0.015,0.040
1920,-0.025,0.060
1921,-0.025,0.045
1922,0.015,0.045
1923,0.005,0.010
1924,0.015,0.000
1925,0.020,-0.020
1926,0.010,-0.020
1927,0.010,-0.010
1928,0.030,-0.010
1929,0.020,-0.005
1930,0.005,0.000
1931,0.030,0.025
1932,0.030,0.005
1933,0.005,0.020
1934,0.005,0.025
1935,0.045,0.010
1936,0.050,0.000
1937,-0.005,-0.025
1938,-0.025,-0.015
1939,0.030,-0.020
1940,0.090,-0.060
1941,0.060,-0.065
1942,0.050,-0.020
1943,0.080,-0.065
1944,0.010,-0.090
1945,0.005,-0.100
1946,-0.005,-0.105
1947,0.010,-0.085
1948,-0.010,-0.090
1949,0.000,-0.090
1950,-0.010,-0.115
1951,-0.015,-0.135
1952,0.025,0.165
1953,0.055,0.705
1954,0.180,0.955
1955,0.260,0.425
1956,0.335,-0.670
1957,-0.025,-0.805
1958,-0.320,-0.530
1959,-0.265,-0.230
1960,-0.060,-0.135
1961,0.000,-0.125
1962,0.010,-0.120
1963,0.020,-0.130
1964,0.000,-0.120
1965,-0.015,-0.115
1966,0.000,-0.110
1967,0.000,-0.110
1968,0.000,-0.100
1969,-0.005,-0.100
1970,0.000,-0.115
1971,0.000,-0.090
1972,0.000,-0.105
1973,0.000,-0.065
1974,-0.005,-0.060
1975,0.015,-0.070
1976,0.005,-0.035
1977,0.035,-0.010
1978,0.040,0.005
1979,0.000,0.005
1980,0.030,0.010
1981,0.045,0.025
1982,0.000,0.050
1983,0.020,0.085
1984,0.080,0.105
1985,0.070,0.095
1986,0.025,0.120
1987,0.060,0.085
1988,0.060,0.100
1989,0.045,0.070
1990,0.075,0.055
1991,0.075,0.050
1992,0.060,0.030
1993,0.070,0.030
1994,0.015,0.040
1995,0.055,0.065
1996,0.060,0.075
1997,0.075,0.055
1998,0.055,0.050
1999,0.035,0.035
2000,0.040,0.035
2001,0.060,0.035
2002,0.045,0.045
2003,0.045,0.030
2004,0.015,0.025
2005,0.045,0.025
2006,0.055,0.015
2007,0.030,0.060
2008,0.030,0.035
2009,0.040,0.015
2010,0.030,0.040
2011,0.015,0.035
2012,0.040,0.070
2013,0.010,0.125
2014,0.060,0.190
2015,0.090,0.210
2016,0.090,0.240
2017,0.060,0.245
2018,0.055,0.155
2019,0.015,0.045
2020,0.005,0.040
2021,0.025,0.045
2022,0.010,0.025
2023,0.005,-0.005
2024,0.050,-0.040
2025,0.050,-0.050
2026,0.010,-0.075
2027,0.040,-0.030
2028,0.005,-0.045
2029,0.010,-0.070
2030,0.000,-0.050
2031,0.000,-0.035
2032,0.040,-0.075
2033,0.040,0.280
2034,0.060,0.830
2035,0.160,0.910
2036,0.285,0.210
2037,0.310,-0.770
2038,-0.030,-0.840
2039,-0.280,-0.530
2040,-0.260,-0.230
2041,-0.135,-0.050
2042,-0.005,-0.055
2043,0.010,-0.060
2044,-0.025,-0.065
2045,-0.030,-0.050
2046,0.000,-0.035
2047,0.000,-0.045
2048,-0.005,-0.075
2049,-0.020,-0.060
2050,-0.015,-0.045
2051,-0.045,-0.045
2052,0.000,-0.055
2053,0.015,-0.045
2054,-0.035,0.000
2055,0.020,0.000
2056,0.000,-0.005
2057,0.025,0.010
2058,0.000,0.035
2059,0.000,0.070
2060,0.030,0.060
2061,-0.010,0.125
2062,0.030,0.130
2063,0.030,0.125
2064,0.020,0.170
2065,0.005,0.175
2066,0.020,0.185
2067,0.050,0.200
2068,0.040,0.250
2069,0.080,0.210
2070,0.075,0.175
2071,0.070,0.150
2072,0.080,0.115
2073,0.045,0.110
2074,0.055,0.105
2075,0.075,0.100
2076,0.075,0.130
2077,0.075,0.120
2078,0.090,0.150
2079,0.065,0.145
2080,0.055,0.140
2081,0.085,0.145
2082,0.065,0.145
2083,0.070,0.145
2084,0.075,0.130
2085,0.075,0.170
2086,0.050,0.250
2087,0.070,0.295
2088,0.115,0.295
2089,0.090,0.310
2090,0.100,0.310
2091,0.095,0.265
2092,0.045,0.140
2093,0.035,0.115
2094,0.025,0.120
2095,0.025,0.105
2096,0.040,0.075
2097,0.045,0.030
2098,0.060,0.000
2099,0.060,0.000
2100,0.050,-0.005
2101,0.045,0.005
2102,0.065,0.015
2103,0.055,0.020
2104,0.040,0.030
2105,0.055,0.020
2106,0.055,0.115
2107,0.100,0.545
2108,0.150,1.030
2109,0.255,1.035
2110,0.375,0.010
2111,0.375,-0.720
2112,0.000,-0.565
2113,-0.195,-0.285
2114,-0.115,-0.035
2115,0.000,0.025
2116,0.035,0.020
2117,0.090,0.025
2118,0.070,0.030
2119,0.080,0.055
2120,0.065,0.040
2121,0.060,0.035
2122,0.080,0.050
2123,0.080,0.040
2124,0.070,0.050
2125,0.065,0.045
2126,0.075,0.045
2127,0.075,0.085
2128,0.060,0.080
2129,0.085,0.075
2130,0.090,0.110
2131,0.085,0.125
2132,0.070,0.130
2133,0.060,0.140
2134,0.070,0.135
2135,0.075,0.145
2136,0.030,0.185
2137,0.060,0.190
2138,0.080,0.205
2139,0.080,0.245
2140,0.090,0.260
2141,0.105,0.270
2142,0.120,0.240
2143,0.115,0.225
2144,0.115,0.230
2145,0.130,0.205
2146,0.140,0.210
2147,0.105,0.225
2148,0.100,0.215
2149,0.155,0.220
2150,0.135,0.235
2151,0.130,0.220
2152,0.090,0.200
2153,0.100,0.230
2154,0.115,0.215
2155,0.125,0.190
2156,0.100,0.205
2157,0.100,0.175
2158,0.125,0.210
2159,0.095,0.270
2160,0.095,0.305
2161,0.125,0.355
2162,0.120,0.370
2163,0.180,0.355
2164,0.115,0.280
2165,0.060,0.215
2166,0.045,0.190
2167,0.055,0.200
2168,0.055,0.170
2169,0.075,0.145
2170,0.065,0.105
2171,0.095,0.070
2172,0.090,0.065
2173,0.090,0.060
2174,0.055,0.065
2175,0.060,0.100
2176,0.070,0.100
2177,0.060,0.090
2178,0.060,0.050
2179,0.050,0.120
2180,0.130,0.580
2181,0.170,1.065
2182,0.275,1.040
2183,0.375,0.060
2184,0.325,-0.660
2185,-0.055,-0.500
2186,-0.230,-0.190
2187,-0.135,0.025
2188,0.040,0.050
2189,0.085,0.080
2190,0.050,0.100
2191,0.060,0.060
2192,0.070,0.080
2193,0.075,0.080
2194,0.080,0.085
2195,0.060,0.105
2196,0.075,0.085
2197,0.065,0.105
2198,0.075,0.100
2199,0.080,0.100
2200,0.090,0.125
2201,0.090,0.105
2202,0.085,0.140
2203,0.080,0.140
2204,0.065,0.165
2205,0.055,0.210
2206,0.050,0.215
2207,0.040,0.225
2208,0.050,0.235
2209,0.075,0.250
2210,0.105,0.275
2211,0.080,0.300
2212,0.090,0.360
2213,0.090,0.330
2214,0.080,0.355
2215,0.105,0.335
2216,0.105,0.340
2217,0.115,0.275
2218,0.105,0.245
2219,0.120,0.290
2220,0.115,0.245
2221,0.110,0.265
2222,0.100,0.290
2223,0.110,0.295
2224,0.120,0.285
2225,0.115,0.275
2226,0.080,0.280
2227,0.095,0.280
2228,0.075,0.290
2229,0.120,0.275
2230,0.100,0.240
2231,0.115,0.245
2232,0.150,0.230
2233,0.165,0.185
2234,0.180,0.210
2235,0.175,0.230
2236,0.120,0.180
2237,0.100,0.180
2238,0.120,0.200
2239,0.095,0.215
2240,0.105,0.195
2241,0.115,0.210
2242,0.105,0.185
2243,0.090,0.140
2244,0.090,0.260
2245,0.130,0.785
2246,0.220,1.115
2247,0.315,0.795
2248,0.460,-0.255
2249,0.340,-0.625
2250,-0.045,-0.365
2251,-0.195,-0.050
2252,-0.090,0.155
2253,0.045,0.200
2254,0.095,0.200
2255,0.080,0.200
2256,0.075,0.195
2257,0.045,0.185
2258,0.040,0.185
2259,0.070,0.170
2260,0.075,0.175
2261,0.075,0.175
2262,0.055,0.185
2263,0.070,0.180
2264,0.075,0.180
2265,0.040,0.175
2266,0.060,0.170
2267,0.055,0.185
2268,0.060,0.185
2269,0.060,0.195
2270,0.070,0.210
2271,0.065,0.180
2272,0.055,0.215
2273,0.040,0.220
2274,0.055,0.225
2275,0.030,0.280
2276,0.045,0.310
2277,0.085,0.355
2278,0.055,0.350
2279,0.070,0.335
2280,0.125,0.325
2281,0.115,0.305
2282,0.125,0.300
2283,0.070,0.280
2284,0.125,0.275
2285,0.135,0.310
2286,0.130,0.285
2287,0.060,0.320
2288,0.100,0.305
2289,0.105,0.300
2290,0.085,0.310
2291,0.085,0.260
2292,0.080,0.275
2293,0.080,0.220
2294,0.045,0.235
2295,0.025,0.265
2296,0.040,0.245
2297,0.035,0.240
2298,0.070,0.275
2299,0.070,0.240
2300,0.065,0.225
2301,0.040,0.265
2302,0.060,0.225
2303,0.060,0.250
2304,0.030,0.260
2305,0.040,0.240
2306,0.040,0.385
2307,0.110,0.410
2308,0.095,0.440
2309,0.085,0.480
2310,0.100,0.440
2311,0.060,0.345
2312,0.040,0.290
2313,0.060,0.255
2314,0.030,0.265
2315,0.035,0.210
2316,0.020,0.165
2317,0.030,0.185
2318,0.050,0.185
2319,0.060,0.150
2320,0.045,0.120
2321,-0.025,0.140
2322,0.065,0.095
2323,0.095,0.205
2324,0.055,0.160
2325,0.075,0.115
2326,0.085,0.375
2327,0.135,0.895
2328,0.240,1.120
2329,0.270,0.640
2330,0.360,-0.465
2331,0.210,-0.710
2332,-0.120,-0.345
2333,-0.255,-0.045
2334,-0.065,0.130
2335,-0.020,0.150
2336,0.045,0.155
2337,0.145,0.155
2338,0.175,0.225
2339,0.130,0.170
2340,0.085,0.125
2341,0.080,0.135
2342,0.115,0.125
2343,0.125,0.225
2344,0.075,0.180
2345,0.125,0.200
2346,0.065,0.205
2347,0.040,0.150
2348,0.045,0.125
2349,0.035,0.220
2350,0.035,0.305
2351,0.000,0.335
2352,0.075,0.325
2353,0.085,0.345
2354,0.095,0.295
2355,0.070,0.390
2356,0.095,0.340
2357,0.135,0.340
2358,0.145,0.340
2359,0.130,0.350
2360,0.055,0.430
2361,0.085,0.395
2362,0.115,0.375
2363,0.150,0.320
2364,0.135,0.310
2365,0.075,0.310
2366,0.105,0.215
2367,0.130,0.305
2368,0.015,0.300
2369,0.140,0.270
2370,0.200,0.270
2371,0.120,0.370
2372,0.145,0.870
2373,0.210,1.450
2374,0.410,0.975
2375,0.530,-0.245
2376,0.280,-0.550
2377,-0.010,-0.275
2378,-0.080,0.000
2379,-0.075,0.105
2380,0.015,0.050
2381,0.050,0.000
2382,0.035,0.065
2383,0.030,0.040
2384,0.020,0.030
2385,0.010,0.020
2386,0.005,-0.015
2387,0.005,0.010
2388,0.000,-0.015
2389,0.000,-0.010
2390,-0.020,0.010
2391,-0.035,0.040
2392,-0.030,0.075
2393,-0.015,0.060
2394,-0.065,0.145
2395,-0.020,0.130
2396,-0.050,0.140
2397,-0.050,0.140
2398,-0.040,0.155
2399,-0.040,0.200
2400,-0.035,0.205
2401,-0.045,0.210
2402,-0.040,0.235
2403,-0.045,0.255
2404,-0.045,0.230
2405,-0.035,0.185
2406,-0.075,0.160
2407,-0.075,0.110
2408,-0.075,0.065
2409,-0.080,0.090
2410,-0.065,0.075
2411,-0.075,0.080
2412,-0.065,0.075
2413,-0.070,0.075
2414,-0.120,0.070
2415,-0.075,0.050
2416,-0.100,0.125
2417,-0.080,0.085
2418,-0.090,0.095
2419,-0.085,0.045
2420,-0.105,0.075
2421,-0.095,0.115
2422,-0.100,0.100
2423,-0.110,0.110
2424,-0.095,0.075
2425,-0.100,0.045
2426,-0.115,0.110
2427,-0.130,0.155
2428,-0.100,0.175
2429,-0.110,0.085
2430,-0.160,0.105
2431,-0.140,0.065
2432,-0.165,0.055
2433,-0.150,0.075
2434,-0.150,0.005
2435,-0.155,0.005
2436,-0.145,0.000
2437,-0.150,0.000
2438,-0.125,0.025
2439,-0.090,0.045
2440,-0.060,0.095
2441,-0.025,0.155
2442,0.025,0.135
2443,0.040,0.105
2444,0.015,0.075
2445,-0.010,0.030
2446,-0.030,-0.075
2447,-0.075,-0.145
2448,-0.095,-0.090
2449,-0.045,-0.085
2450,-0.055,-0.075
2451,-0.040,-0.145
2452,-0.075,-0.155
2453,-0.090,-0.130
2454,-0.085,-0.115
2455,-0.095,-0.105
2456,-0.080,-0.110
2457,-0.150,-0.090
2458,-0.130,-0.145
2459,-0.120,0.020
2460,-0.105,0.470
2461,-0.005,0.830
2462,0.160,0.680
2463,0.250,-0.170
2464,0.060,-0.735
2465,-0.365,-0.675
2466,-0.525,-0.480
2467,-0.425,-0.255
2468,-0.260,-0.210
2469,-0.195,-0.210
2470,-0.165,-0.215
2471,-0.135,-0.215
2472,-0.120,-0.195
2473,-0.165,-0.180
2474,-0.235,-0.145
2475,-0.230,-0.115
2476,-0.230,-0.155
2477,-0.210,-0.100
2478,-0.180,-0.125
2479,-0.205,-0.095
2480,-0.175,-0.110
2481,-0.200,-0.185
2482,-0.205,-0.085
2483,-0.175,-0.140
2484,-0.300,-0.100
2485,-0.310,-0.040
2486,-0.265,-0.085
2487,-0.260,-0.050
2488,-0.275,0.005
2489,-0.275,-0.060
2490,-0.305,-0.065
2491,-0.290,-0.040
2492,-0.295,0.000
2493,-0.250,-0.020
2494,-0.240,0.020
2495,-0.235,0.040
2496,-0.245,0.105
2497,-0.200,-0.015
2498,-0.200,0.005
2499,-0.175,0.020
2500,-0.195,-0.050
2501,-0.170,-0.040
2502,-0.170,-0.050
2503,-0.165,-0.085
2504,-0.165,-0.090
2505,-0.185,-0.075
2506,-0.185,-0.045
2507,-0.200,-0.075
2508,-0.200,-0.090
2509,-0.190,-0.095
2510,-0.195,-0.135
2511,-0.200,-0.130
2512,-0.180,-0.140
2513,-0.180,-0.175
2514,-0.190,-0.065
2515,-0.145,-0.055
2516,-0.160,-0.075
2517,-0.105,-0.050
2518,-0.100,-0.115
2519,-0.155,-0.175
2520,-0.195,-0.330
2521,-0.240,-0.300
2522,-0.265,-0.370
2523,-0.210,-0.380
2524,-0.200,-0.360
2525,-0.180,-0.470
2526,-0.195,-0.520
2527,-0.200,-0.505
2528,-0.200,-0.560
2529,-0.200,-0.540
2530,-0.180,-0.620
2531,-0.175,-0.610
2532,-0.195,-0.585
2533,-0.180,-0.645
2534,-0.190,-0.660
2535,-0.210,-0.265
2536,-0.130,0.060
2537,0.030,0.170
2538,0.145,-0.575
2539,0.075,-1.285
2540,-0.325,-1.240
2541,-0.545,-1.085
2542,-0.540,-0.885
2543,-0.380,-0.745
2544,-0.255,-0.770
2545,-0.255,-0.750
2546,-0.250,-0.775
2547,-0.265,-0.815
2548,-0.270,-0.820
2549,-0.290,-0.775
2550,-0.305,-0.770
2551,-0.280,-0.820
2552,-0.295,-0.820
2553,-0.275,-0.865
2554,-0.290,-0.850
2555,-0.265,-0.830
2556,-0.270,-0.895
2557,-0.295,-0.910
2558,-0.275,-0.845
2559,-0.285,-0.930
2560,-0.290,-0.905
2561,-0.290,-0.920
2562,-0.275,-0.880
2563,-0.275,-0.885
2564,-0.285,-0.855
2565,-0.280,-0.850
2566,-0.250,-0.810
2567,-0.230,-0.775
2568,-0.205,-0.775
2569,-0.185,-0.755
2570,-0.150,-0.735
2571,-0.140,-0.730
2572,-0.110,-0.760
2573,-0.120,-0.765
2574,-0.090,-0.765
2575,-0.115,-0.755
2576,-0.120,-0.755
2577,-0.130,-0.735
2578,-0.125,-0.745
2579,-0.135,-0.725
2580,-0.125,-0.750
2581,-0.130,-0.715
2582,-0.095,-0.760
2583,-0.105,-0.805
2584,-0.140,-0.800
2585,-0.140,-0.800
2586,-0.125,-0.795
2587,-0.120,-0.730
2588,-0.115,-0.695
2589,-0.095,-0.655
2590,-0.050,-0.645
2591,-0.035,-0.600
2592,-0.035,-0.650
2593,-0.075,-0.735
2594,-0.130,-0.800
2595,-0.170,-0.795
2596,-0.180,-0.780
2597,-0.145,-0.815
2598,-0.120,-0.850
2599,-0.125,-0.875
2600,-0.120,-0.900
2601,-0.115,-0.890
2602,-0.120,-0.885
2603,-0.105,-0.880
2604,-0.095,-0.870
2605,-0.100,-0.895
2606,-0.085,-0.915
2607,-0.070,-0.970
2608,-0.070,-0.730
2609,0.000,-0.300
2610,0.135,-0.255
2611,0.235,-0.795
2612,0.155,-1.490
2613,-0.230,-1.455
2614,-0.415,-1.270
2615,-0.365,-1.065
2616,-0.170,-0.995
2617,-0.045,-0.995
2618,-0.055,-0.990
2619,-0.055,-0.990
2620,-0.035,-1.015
2621,-0.045,-1.025
2622,-0.020,-1.005
2623,-0.025,-1.005
2624,-0.020,-1.030
2625,-0.020,-0.995
2626,-0.050,-1.005
2627,-0.050,-1.020
2628,-0.055,-1.040
2629,-0.060,-1.065
2630,-0.060,-1.035
2631,-0.075,-1.055
2632,-0.085,-1.050
2633,-0.075,-1.040
2634,-0.080,-1.010
2635,-0.095,-0.995
2636,-0.090,-0.990
2637,-0.085,-0.975
2638,-0.080,-1.000
2639,-0.090,-0.980
2640,-0.070,-0.955
2641,-0.060,-0.950
2642,-0.035,-0.910
2643,-0.005,-0.925
2644,-0.010,-0.940
2645,0.000,-0.935
2646,0.015,-0.940
2647,0.015,-0.950
2648,0.010,-0.940
2649,0.025,-0.930
2650,0.015,-0.920
2651,0.010,-0.915
2652,0.030,-0.915
2653,0.025,-0.925
2654,0.030,-0.930
2655,0.040,-0.980
2656,0.030,-0.980
2657,0.020,-0.955
2658,0.065,-0.965
2659,0.100,-0.990
2660,0.110,-0.985
2661,0.120,-0.955
2662,0.090,-0.985
2663,0.025,-1.025
2664,0.005,-1.025
2665,0.035,-1.010
2666,0.035,-1.005
2667,0.025,-1.035
2668,0.045,-1.020
2669,0.035,-1.020
2670,0.030,-1.120
2671,0.020,-1.010
2672,0.050,-0.605
2673,0.150,-0.345
2674,0.280,-0.575
2675,0.220,-1.295
2676,-0.130,-1.510
2677,-0.375,-1.340
2678,-0.290,-1.105
2679,-0.070,-1.070
2680,0.035,-1.070
2681,0.040,-1.045
2682,0.035,-1.075
2683,0.020,-1.065
2684,0.005,-1.065
2685,0.020,-1.085
2686,0.010,-1.060
2687,0.020,-1.080
2688,0.010,-1.065
2689,0.015,-1.080
2690,0.025,-1.070
2691,0.025,-1.055
2692,0.030,-1.085
2693,0.030,-1.070
2694,0.040,-1.070
2695,0.025,-1.050
2696,0.030,-1.070
2697,0.030,-1.080
2698,0.040,-1.050
2699,0.050,-1.060
2700,0.035,-1.040
2701,0.055,-1.030
2702,0.025,-1.030
2703,0.060,-0.970
2704,0.095,-0.925
2705,0.140,-0.910
2706,0.180,-0.955
2707,0.195,-0.890
2708,0.205,-0.910
2709,0.150,-0.935
2710,0.085,-0.965
2711,0.080,-0.965
2712,0.085,-0.960
2713,0.080,-0.955
2714,0.090,-0.960
2715,0.090,-0.955
2716,0.075,-0.970
2717,0.075,-0.980
2718,0.085,-1.015
2719,0.085,-1.050
2720,0.095,-0.800
2721,0.160,-0.440
2722,0.265,-0.450
2723,0.335,-1.080
2724,0.185,-1.500
2725,-0.165,-1.385
2726,-0.255,-1.150
2727,-0.115,-0.980
2728,0.025,-0.990
2729,0.055,-0.990
2730,0.055,-1.000
2731,0.060,-1.005
2732,0.050,-0.995
2733,0.055,-0.995
2734,0.035,-0.990
2735,0.035,-0.985
2736,0.045,-1.015
2737,0.035,-0.970
2738,0.050,-0.970
2739,0.040,-0.965
2740,0.085,-0.965
2741,0.070,-0.990
2742,0.060,-0.960
2743,0.075,-0.950
2744,0.065,-0.920
2745,0.065,-0.925
2746,0.045,-0.935
2747,0.065,-0.915
2748,0.095,-0.895
2749,0.100,-0.845
2750,0.085,-0.840
2751,0.075,-0.760
2752,0.185,-0.740
2753,0.205,-0.755
2754,0.215,-0.795
2755,0.245,-0.755
2756,0.250,-0.745
2757,0.180,-0.815
2758,0.115,-0.825
2759,0.105,-0.785
2760,0.095,-0.840
2761,0.080,-0.820
2762,0.105,-0.825
2763,0.080,-0.810
2764,0.085,-0.825
2765,0.070,-0.825
2766,0.095,-0.845
2767,0.055,-0.910
2768,0.065,-0.740
2769,0.120,-0.360
2770,0.200,-0.290
2771,0.385,-0.655
2772,0.510,-1.375
2773,0.025,-1.345
2774,-0.255,-1.160
2775,-0.200,-0.920
2776,-0.020,-0.845
2777,0.050,-0.900
2778,0.070,-0.885
2779,0.075,-0.850
2780,0.070,-0.885
2781,0.055,-0.865
2782,0.065,-0.845
2783,0.075,-0.855
2784,0.090,-0.885
2785,0.075,-0.885
2786,0.050,-0.865
2787,0.055,-0.895
2788,0.065,-0.885
2789,0.035,-0.880
2790,0.045,-0.870
2791,0.030,-0.900
2792,0.050,-0.890
2793,0.030,-0.845
2794,0.035,-0.825
2795,0.035,-0.795
2796,0.065,-0.800
2797,0.065,-0.740
2798,0.085,-0.660
2799,0.110,-0.670
2800,0.130,-0.640
2801,0.145,-0.630
2802,0.145,-0.650
2803,0.155,-0.645
2804,0.165,-0.665
2805,0.150,-0.650
2806,0.140,-0.690
2807,0.130,-0.655
2808,0.145,-0.670
2809,0.140,-0.680
2810,0.120,-0.670
2811,0.110,-0.670
2812,0.105,-0.670
2813,0.115,-0.690
2814,0.095,-0.715
2815,0.095,-0.700
2816,0.095,-0.710
2817,0.075,-0.700
2818,0.095,-0.720
2819,0.080,-0.710
2820,0.090,-0.680
2821,0.105,-0.700
2822,0.100,-0.680
2823,0.105,-0.710
2824,0.075,-0.710
2825,0.115,-0.680
2826,0.100,-0.695
2827,0.090,-0.695
2828,0.100,-0.700
2829,0.100,-0.705
2830,0.090,-0.695
2831,0.095,-0.690
2832,0.095,-0.690
2833,0.115,-0.705
2834,0.100,-0.700
2835,0.120,-0.695
2836,0.120,-0.700
2837,0.145,-0.675
2838,0.135,-0.630
2839,0.130,-0.555
2840,0.165,-0.505
2841,0.205,-0.495
2842,0.185,-0.490
2843,0.170,-0.530
2844,0.150,-0.595
2845,0.110,-0.660
2846,0.060,-0.680
2847,0.070,-0.670
2848,0.085,-0.700
2849,0.100,-0.715
2850,0.100,-0.755
2851,0.085,-0.755
2852,0.060,-0.725
2853,0.070,-0.745
2854,0.075,-0.730
2855,0.080,-0.745
2856,0.075,-0.755
2857,0.080,-0.740
2858,0.110,-0.490
2859,0.145,-0.050
2860,0.295,0.000
2861,0.420,-0.495
2862,0.325,-1.180
2863,-0.120,-1.190
2864,-0.290,-0.980
2865,-0.195,-0.805
2866,-0.010,-0.710
2867,0.100,-0.715
2868,0.090,-0.700
2869,0.105,-0.690
2870,0.100,-0.685
2871,0.085,-0.665
2872,0.100,-0.670
2873,0.110,-0.675
2874,0.100,-0.670
2875,0.105,-0.670
2876,0.090,-0.660
2877,0.085,-0.655
2878,0.105,-0.625
2879,0.105,-0.640
2880,0.095,-0.640
2881,0.100,-0.605
2882,0.110,-0.615
2883,0.115,-0.600
2884,0.125,-0.600
2885,0.095,-0.560
2886,0.110,-0.560
2887,0.100,-0.535
2888,0.125,-0.510
2889,0.110,-0.495
2890,0.110,-0.470
2891,0.135,-0.450
2892,0.120,-0.415
2893,0.140,-0.390
2894,0.160,-0.385
2895,0.165,-0.380
2896,0.185,-0.395
2897,0.170,-0.395
2898,0.180,-0.395
2899,0.155,-0.405
2900,0.165,-0.390
2901,0.140,-0.420
2902,0.140,-0.405
2903,0.135,-0.420
2904,0.135,-0.420
2905,0.140,-0.400
2906,0.125,-0.410
2907,0.135,-0.410
2908,0.140,-0.435
2909,0.135,-0.440
2910,0.115,-0.430
2911,0.130,-0.440
2912,0.125,-0.430
2913,0.120,-0.415
2914,0.140,-0.340
2915,0.140,-0.280
2916,0.175,-0.285
2917,0.190,-0.265
2918,0.195,-0.285
2919,0.190,-0.320
2920,0.110,-0.405
2921,0.080,-0.455
2922,0.050,-0.415
2923,0.065,-0.430
2924,0.100,-0.460
2925,0.100,-0.475
2926,0.120,-0.520
2927,0.100,-0.520
2928,0.090,-0.530
2929,0.085,-0.510
2930,0.090,-0.515
2931,0.080,-0.515
2932,0.100,-0.500
2933,0.095,-0.545
2934,0.080,-0.485
2935,0.105,-0.175
2936,0.150,0.180
2937,0.295,0.170
2938,0.350,-0.460
2939,0.150,-0.980
2940,-0.235,-0.905
2941,-0.290,-0.605
2942,-0.105,-0.490
2943,0.050,-0.495
2944,0.075,-0.480
2945,0.045,-0.475
2946,0.055,-0.470
2947,0.080,-0.470
2948,0.075,-0.470
2949,0.060,-0.460
2950,0.065,-0.465
2951,0.070,-0.445
2952,0.080,-0.455
2953,0.055,-0.450
2954,0.060,-0.450
2955,0.065,-0.445
2956,0.060,-0.440
2957,0.070,-0.435
2958,0.065,-0.415
2959,0.070,-0.420
2960,0.075,-0.425
2961,0.060,-0.400
2962,0.050,-0.400
2963,0.055,-0.400
2964,0.060,-0.375
2965,0.060,-0.355
2966,0.085,-0.330
2967,0.070,-0.310
2968,0.085,-0.270
2969,0.105,-0.250
2970,0.115,-0.220
2971,0.100,-0.210
2972,0.120,-0.220
2973,0.120,-0.215
2974,0.120,-0.205
2975,0.110,-0.210
2976,0.100,-0.215
2977,0.085,-0.220
2978,0.075,-0.215
2979,0.065,-0.215
2980,0.085,-0.215
2981,0.050,-0.215
2982,0.070,-0.220
2983,0.060,-0.255
2984,0.060,-0.230
2985,0.060,-0.245
2986,0.055,-0.240
2987,0.060,-0.220
2988,0.075,-0.145
2989,0.090,-0.095
2990,0.090,-0.085
2991,0.115,-0.070
2992,0.140,-0.060
2993,0.115,-0.105
2994,0.055,-0.195
2995,0.005,-0.220
2996,0.020,-0.230
2997,0.015,-0.225
2998,0.020,-0.255
2999,0.060,-0.275
3000,0.055,-0.305
3001,0.045,-0.315
3002,0.035,-0.300
3003,0.035,-0.300
3004,0.030,-0.290
3005,0.040,-0.290
3006,0.040,-0.300
3007,0.045,-0.290
3008,0.045,-0.275
3009,0.055,0.025
3010,0.110,0.405
3011,0.245,0.430
3012,0.410,-0.175
3013,0.410,-0.835
3014,-0.085,-0.795
3015,-0.300,-0.555
3016,-0.220,-0.315
3017,-0.040,-0.240
3018,0.040,-0.260
3019,0.050,-0.255
3020,0.055,-0.240
3021,0.040,-0.270
3022,0.045,-0.205
3023,0.030,-0.220
3024,0.030,-0.245
3025,0.010,-0.230
3026,0.005,-0.235
3027,0.015,-0.235
3028,0.000,-0.230
3029,0.015,-0.195
3030,0.010,-0.240
3031,0.000,-0.240
3032,0.000,-0.200
3033,-0.010,-0.210
3034,0.000,-0.185
3035,-0.010,-0.180
3036,-0.010,-0.160
3037,0.000,-0.140
3038,0.015,-0.120
3039,0.005,-0.090
3040,0.020,-0.035
3041,0.000,0.000
3042,0.030,0.000
3043,0.025,0.015
3044,0.050,0.010
3045,0.060,0.020
3046,0.065,0.010
3047,0.085,-0.005
3048,0.075,0.025
3049,0.055,-0.005
3050,0.085,0.000
3051,0.045,0.000
3052,0.025,-0.020
3053,0.050,-0.020
3054,0.045,-0.040
3055,0.045,-0.030
3056,0.030,-0.035
3057,0.045,-0.030
3058,0.045,-0.045
3059,0.045,-0.065
3060,0.035,-0.025
3061,0.050,0.035
3062,0.055,0.100
3063,0.080,0.105
3064,0.095,0.100
3065,0.100,0.115
3066,0.085,0.075
3067,0.040,-0.025
3068,0.005,-0.090
3069,-0.025,-0.075
3070,-0.025,-0.075
3071,0.005,-0.105
3072,0.005,-0.135
3073,0.020,-0.180
3074,0.010,-0.195
3075,-0.005,-0.180
3076,0.000,-0.180
3077,-0.005,-0.190
3078,-0.010,-0.195
3079,0.000,-0.195
3080,0.000,-0.190
3081,0.000,-0.225
3082,0.005,-0.050
3083,0.050,0.340
3084,0.150,0.585
3085,0.325,0.385
3086,0.390,-0.475
3087,0.125,-0.745
3088,-0.240,-0.600
3089,-0.320,-0.330
3090,-0.165,-0.155
3091,-0.010,-0.180
3092,0.025,-0.150
3093,0.055,-0.150
3094,0.030,-0.145
3095,0.040,-0.105
3096,0.035,-0.095
3097,0.060,-0.090
3098,0.055,-0.090
3099,0.025,-0.100
3100,0.030,-0.095
3101,0.015,-0.085
3102,0.005,-0.080
3103,-0.010,-0.100
3104,-0.030,-0.085
3105,-0.030,-0.100
3106,-0.045,-0.110
3107,-0.035,-0.080
3108,-0.050,-0.080
3109,-0.035,-0.070
3110,-0.040,-0.065
3111,-0.040,-0.055
3112,-0.025,-0.030
3113,-0.020,-0.015
3114,-0.005,0.010
3115,-0.020,0.040
3116,0.000,0.075
3117,0.025,0.075
3118,0.035,0.095
3119,0.035,0.100
3120,0.040,0.070
3121,0.060,0.075
3122,0.050,0.085
3123,0.045,0.090
3124,0.050,0.080
3125,0.040,0.080
3126,0.040,0.085
3127,0.040,0.060
3128,0.040,0.080
3129,0.035,0.065
3130,0.050,0.045
3131,0.050,0.020
3132,0.020,0.015
3133,0.020,0.070
3134,0.060,0.085
3135,0.100,0.060
3136,0.120,0.045
3137,0.135,0.060
3138,0.100,0.020
3139,0.020,0.010
3140,0.000,0.005
3141,-0.015,-0.005
3142,0.000,-0.010
3143,-0.015,0.000
3144,0.000,0.000
3145,0.005,0.000
3146,0.005,-0.055
3147,0.000,0.110
3148,0.055,0.560
3149,0.175,0.755
3150,0.285,0.415
3151,0.245,-0.330
3152,-0.145,-0.445
3153,-0.370,-0.265
3154,-0.310,-0.055
3155,-0.070,-0.005
3156,0.020,-0.020
3157,0.030,-0.010
3158,0.010,0.000
3159,0.005,-0.005
3160,0.005,0.020
3161,0.005,-0.005
3162,0.000,0.000
3163,0.000,0.015
3164,-0.010,0.010
3165,0.000,0.025
3166,0.000,-0.005
3167,-0.005,0.000
3168,0.000,-0.010
3169,0.000,0.005
3170,0.000,0.015
3171,-0.020,0.005
3172,-0.015,0.025
3173,-0.015,0.025
3174,-0.015,0.035
3175,-0.020,0.030
3176,-0.025,0.045
3177,-0.010,0.080
3178,-0.005,0.100
3179,0.005,0.130
3180,0.005,0.150
3181,0.015,0.180
3182,0.030,0.190
3183,0.040,0.170
3184,0.055,0.170
3185,0.060,0.160
3186,0.055,0.175
3187,0.050,0.165
3188,0.035,0.165
3189,0.040,0.160
3190,0.020,0.145
3191,0.025,0.160
3192,0.015,0.140
3193,0.030,0.140
3194,0.015,0.145
3195,0.005,0.125
3196,0.010,0.125
3197,0.000,0.105
3198,-0.005,0.110
3199,0.000,0.075
3200,-0.010,0.095
3201,0.005,0.095
3202,0.000,0.090
3203,-0.015,0.095
3204,-0.005,0.110
3205,-0.010,0.110
3206,-0.010,0.130
3207,-0.035,0.185
3208,-0.015,0.250
3209,0.000,0.285
3210,0.025,0.285
3211,0.025,0.290
3212,0.005,0.235
3213,-0.015,0.160
3214,-0.045,0.075
3215,-0.095,0.090
3216,-0.100,0.100
3217,-0.035,0.070
3218,-0.025,0.025
3219,-0.030,-0.005
3220,-0.025,-0.010
3221,-0.045,0.015
3222,-0.055,-0.010
3223,-0.060,0.010
3224,-0.055,0.010
3225,-0.060,0.010
3226,-0.050,-0.025
3227,-0.045,0.045
3228,-0.010,0.425
3229,0.065,0.750
3230,0.185,0.705
3231,0.220,-0.025
3232,0.010,-0.505
3233,-0.360,-0.410
3234,-0.420,-0.145
3235,-0.220,-0.015
3236,-0.070,-0.010
3237,-0.025,0.005
3238,-0.015,0.000
3239,-0.030,0.000
3240,-0.020,0.015
3241,-0.015,0.015
3242,-0.035,0.050
3243,-0.035,0.040
3244,-0.035,0.035
3245,-0.035,0.015
3246,-0.025,0.040
3247,-0.030,0.055
3248,-0.025,0.045
3249,-0.045,0.060
3250,-0.035,0.060
3251,-0.025,0.065
3252,-0.030,0.090
3253,-0.035,0.090
3254,-0.030,0.115
3255,-0.025,0.120
3256,-0.045,0.145
3257,-0.020,0.160
3258,-0.020,0.180
3259,-0.010,0.235
3260,-0.010,0.235
3261,0.000,0.275
3262,0.005,0.280
3263,0.000,0.280
3264,0.010,0.305
3265,0.005,0.250
3266,0.015,0.235
3267,0.010,0.220
3268,0.010,0.215
3269,0.000,0.210
3270,-0.005,0.200
3271,0.010,0.210
3272,-0.015,0.205
3273,-0.020,0.180
3274,-0.020,0.165
3275,-0.015,0.165
3276,-0.015,0.170
3277,-0.015,0.175
3278,-0.025,0.140
3279,-0.020,0.150
3280,-0.020,0.185
3281,-0.015,0.250
3282,-0.005,0.300
3283,0.015,0.330
3284,0.025,0.350
3285,0.055,0.325
3286,0.005,0.300
3287,-0.050,0.200
3288,-0.075,0.135
3289,-0.105,0.180
3290,-0.095,0.145
3291,-0.045,0.140
3292,-0.025,0.085
3293,-0.045,0.090
3294,-0.055,0.055
3295,-0.070,0.060
3296,-0.075,0.075
3297,-0.070,0.055
3298,-0.045,0.060
3299,-0.050,0.070
3300,-0.065,0.060
3301,-0.055,0.090
3302,-0.010,0.390
3303,0.025,0.840
3304,0.160,0.810
3305,0.320,0.115
3306,0.285,-0.505
3307,-0.220,-0.465
3308,-0.395,-0.180
3309,-0.300,0.015
3310,-0.125,0.085
3311,-0.065,0.060
3312,-0.075,0.080
3313,-0.060,0.065
3314,-0.080,0.050
3315,-0.085,0.065
3316,-0.070,0.070
3317,-0.075,0.080
3318,-0.060,0.060
3319,-0.065,0.065
3320,-0.070,0.070
3321,-0.060,0.055
3322,-0.080,0.090
3323,-0.065,0.055
3324,-0.080,0.060
3325,-0.070,0.095
3326,-0.070,0.100
3327,-0.070,0.105
3328,-0.080,0.100
3329,-0.080,0.115
3330,-0.055,0.125
3331,-0.070,0.140
3332,-0.065,0.165
3333,-0.075,0.200
3334,-0.055,0.235
3335,-0.025,0.245
3336,-0.020,0.235
3337,-0.025,0.235
3338,0.000,0.225
3339,0.000,0.225
3340,0.005,0.210
3341,0.005,0.215
3342,0.020,0.200
3343,0.015,0.210
3344,0.000,0.225
3345,0.015,0.180
3346,0.000,0.205
3347,0.010,0.200
3348,-0.005,0.160
3349,-0.010,0.175
3350,-0.025,0.155
3351,-0.010,0.140
3352,-0.025,0.145
3353,-0.030,0.125
3354,-0.030,0.185
3355,-0.020,0.230
3356,0.000,0.280
3357,0.010,0.275
3358,0.035,0.280
3359,0.015,0.265
3360,-0.005,0.185
3361,-0.045,0.105
3362,-0.075,0.105
3363,-0.095,0.110
3364,-0.045,0.100
3365,-0.030,0.070
3366,-0.025,0.025
3367,-0.020,-0.005
3368,-0.050,0.000
3369,-0.030,0.010
3370,-0.055,0.000
3371,-0.055,0.010
3372,-0.035,0.010
3373,-0.060,0.005
3374,-0.020,-0.035
3375,-0.050,0.080
3376,0.000,0.490
3377,0.075,0.775
3378,0.225,0.530
3379,0.270,-0.305
3380,-0.040,-0.515
3381,-0.355,-0.365
3382,-0.370,-0.125
3383,-0.175,-0.005
3384,-0.040,0.000
3385,-0.015,0.010
3386,-0.020,-0.005
3387,-0.030,0.000
3388,-0.015,0.025
3389,-0.035,0.025
3390,-0.020,0.020
3391,-0.030,0.035
3392,-0.025,0.030
3393,-0.025,0.020
3394,-0.030,0.040
3395,-0.030,0.060
3396,-0.050,0.045
3397,-0.045,0.050
3398,-0.045,0.050
3399,-0.040,0.045
3400,-0.035,0.065
3401,-0.045,0.075
3402,-0.050,0.085
3403,-0.035,0.100
3404,-0.030,0.100
3405,-0.035,0.135
3406,-0.035,0.170
3407,-0.020,0.200
3408,-0.005,0.225
3409,0.000,0.230
3410,0.005,0.245
3411,0.015,0.235
3412,0.040,0.230
3413,0.035,0.215
3414,0.020,0.205
3415,0.015,0.195
3416,0.025,0.205
3417,0.020,0.215
3418,0.020,0.210
3419,0.020,0.200
3420,0.015,0.200
3421,0.005,0.195
3422,0.005,0.210
3423,0.015,0.175
3424,-0.010,0.150
3425,0.000,0.155
3426,-0.005,0.155
3427,-0.010,0.185
3428,0.000,0.235
3429,0.000,0.300
3430,0.055,0.315
3431,0.070,0.310
3432,0.095,0.350
3433,0.060,0.295
3434,0.015,0.205
3435,-0.015,0.155
3436,-0.050,0.135
3437,-0.040,0.135
3438,-0.010,0.095
3439,0.005,0.070
3440,0.015,0.030
3441,-0.010,0.025
3442,-0.025,0.020
3443,-0.040,0.015
3444,-0.020,0.015
3445,-0.020,0.015
3446,-0.025,0.030
3447,-0.020,-0.010
3448,-0.030,0.000
3449,-0.005,0.295
3450,0.045,0.685
3451,0.190,0.710
3452,0.250,0.030
3453,0.080,-0.500
3454,-0.345,-0.440
3455,-0.410,-0.215
3456,-0.250,-0.005
3457,-0.070,-0.005
3458,-0.020,-0.010
3459,-0.015,0.000
3460,-0.030,-0.010
3461,-0.030,-0.005
3462,-0.030,-0.005
3463,-0.030,0.000
3464,-0.030,0.000
3465,-0.045,0.000
3466,-0.045,0.015
3467,-0.050,0.010
3468,-0.050,0.005
3469,-0.050,0.000
3470,-0.035,0.000
3471,-0.060,0.010
3472,-0.065,0.010
3473,-0.065,0.025
3474,-0.065,0.030
3475,-0.055,0.035
3476,-0.060,0.050
3477,-0.055,0.070
3478,-0.060,0.080
3479,-0.050,0.100
3480,-0.025,0.130
3481,-0.030,0.165
3482,-0.025,0.180
3483,-0.025,0.210
3484,-0.010,0.205
3485,0.005,0.210
3486,0.020,0.210
3487,0.005,0.195
3488,0.005,0.195
3489,-0.005,0.175
3490,0.000,0.175
3491,0.000,0.160
3492,0.000,0.155
3493,-0.005,0.170
3494,-0.005,0.155
3495,-0.020,0.155
3496,-0.005,0.145
3497,-0.020,0.140
3498,-0.030,0.140
3499,-0.020,0.120
3500,-0.005,0.135
3501,-0.010,0.145
3502,-0.025,0.210
3503,-0.010,0.255
3504,0.045,0.225
3505,0.050,0.210
3506,0.015,0.120
3507,-0.015,0.055
3508,-0.030,0.010
3509,-0.050,0.045
3510,-0.035,0.050
3511,-0.035,0.055
3512,-0.030,0.065
3513,-0.035,0.050
3514,-0.020,0.045
3515,-0.030,0.035
3516,-0.040,-0.030
3517,-0.030,0.120
3518,0.010,0.515
3519,0.090,0.785
3520,0.250,0.570
3521,0.250,-0.245
3522,-0.075,-0.440
3523,-0.370,-0.300
3524,-0.370,-0.045
3525,-0.170,0.060
3526,-0.055,0.040
3527,-0.030,0.030
3528,-0.025,0.035
3529,-0.030,0.050
3530,-0.030,0.040
3531,-0.040,0.045
3532,-0.030,0.060
3533,-0.035,0.045
3534,-0.035,0.040
3535,-0.030,0.050
3536,-0.055,0.070
3537,-0.055,0.065
3538,-0.040,0.055
3539,-0.045,0.055
3540,-0.055,0.060
3541,-0.040,0.070
3542,-0.055,0.080
3543,-0.030,0.060
3544,-0.055,0.120
3545,-0.035,0.115
3546,-0.050,0.140
3547,-0.045,0.170
3548,-0.035,0.170
3549,-0.025,0.215
3550,-0.030,0.230
3551,-0.015,0.245
3552,0.000,0.250
3553,0.015,0.245
3554,0.010,0.240
3555,0.010,0.215
3556,0.020,0.220
3557,0.025,0.195
3558,0.015,0.195
3559,0.020,0.195
3560,-0.005,0.195
3561,-0.005,0.200
3562,-0.005,0.175
3563,-0.020,0.180
3564,-0.010,0.170
3565,-0.015,0.175
3566,-0.030,0.170
3567,-0.020,0.150
3568,-0.040,0.155
3569,-0.015,0.130
3570,-0.045,0.135
3571,-0.025,0.135
3572,-0.040,0.120
3573,-0.050,0.130
3574,-0.040,0.160
3575,-0.035,0.235
3576,-0.020,0.320
3577,0.005,0.345
3578,0.040,0.340
3579,0.035,0.320
3580,0.010,0.280
3581,-0.035,0.145
3582,-0.080,0.155
3583,-0.100,0.160
3584,-0.080,0.130
3585,-0.040,0.100
3586,-0.030,0.045
3587,-0.045,0.040
3588,-0.055,0.025
3589,-0.060,0.035
3590,-0.055,0.035
3591,-0.070,0.025
3592,-0.065,0.035
3593,-0.065,0.010
3594,-0.045,0.000
3595,-0.065,0.085
3596,-0.050,0.425
3597,0.030,0.760
3598,0.150,0.720
3599,0.215,-0.030
3600,0.065,-0.470
3601,-0.355,-0.385
3602,-0.455,-0.130
3603,-0.285,0.015
3604,-0.100,0.035
3605,-0.075,0.040
3606,-0.075,0.025
3607,-0.090,0.010
3608,-0.080,0.015
3609,-0.050,0.020
3610,-0.075,0.040
3611,-0.075,0.030
3612,-0.065,0.035
3613,-0.080,0.045
3614,-0.070,0.055
3615,-0.075,0.045
3616,-0.080,0.050
3617,-0.080,0.055
3618,-0.070,0.025
3619,-0.090,0.050
3620,-0.090,0.080
3621,-0.075,0.085
3622,-0.075,0.090
3623,-0.075,0.095
3624,-0.070,0.140
3625,-0.075,0.170
3626,-0.050,0.205
3627,-0.055,0.215
3628,-0.040,0.245
3629,-0.020,0.275
3630,0.000,0.265
3631,-0.015,0.280
3632,0.000,0.255
3633,0.000,0.235
3634,0.005,0.240
3635,0.010,0.220
3636,0.000,0.225
3637,0.000,0.200
3638,-0.020,0.205
3639,0.000,0.230
3640,-0.035,0.200
3641,-0.035,0.195
3642,-0.015,0.180
3643,-0.035,0.150
3644,-0.040,0.120
3645,-0.030,0.110
3646,-0.040,0.130
3647,-0.065,0.125
3648,-0.050,0.160
3649,-0.030,0.230
3650,-0.040,0.305
3651,-0.010,0.260
3652,0.005,0.295
3653,0.015,0.300
3654,-0.060,0.260
3655,-0.070,0.145
3656,-0.105,0.130
3657,-0.105,0.140
3658,-0.080,0.130
3659,-0.060,0.090
3660,-0.045,0.065
3661,-0.080,0.050
3662,-0.075,0.045
3663,-0.095,0.035
3664,-0.075,0.045
3665,-0.075,0.050
3666,-0.070,0.020
3667,-0.065,0.055
3668,-0.070,0.020
3669,-0.065,0.075
3670,-0.025,0.495
3671,-0.010,0.825
3672,0.150,0.735
3673,0.305,-0.120
3674,0.210,-0.560
3675,-0.290,-0.495
3676,-0.435,-0.250
3677,-0.300,-0.015
3678,-0.120,0.000
3679,-0.080,0.000
3680,-0.080,-0.005
3681,-0.080,-0.015
3682,-0.070,-0.010
3683,-0.075,-0.005
3684,-0.070,0.000
3685,-0.065,0.000
3686,-0.065,-0.020
3687,-0.090,0.000
3688,-0.080,-0.010
3689,-0.075,-0.025
3690,-0.090,-0.005
3691,-0.100,-0.010
3692,-0.120,-0.025
3693,-0.115,-0.015
3694,-0.120,-0.020
3695,-0.115,-0.020
3696,-0.115,-0.025
3697,-0.130,0.005
3698,-0.125,0.025
3699,-0.110,0.055
3700,-0.105,0.085
3701,-0.100,0.155
3702,-0.095,0.175
3703,-0.075,0.170
3704,-0.035,0.185
3705,-0.035,0.185
3706,-0.040,0.185
3707,-0.035,0.185
3708,-0.020,0.155
3709,-0.030,0.180
3710,-0.030,0.150
3711,-0.030,0.170
3712,-0.025,0.165
3713,-0.025,0.140
3714,-0.025,0.135
3715,-0.020,0.125
3716,-0.010,0.115
3717,-0.005,0.080
3718,-0.010,0.080
3719,-0.010,0.075
3720,-0.015,0.070
3721,-0.005,0.070
3722,0.005,0.125
3723,-0.005,0.185
3724,0.040,0.195
3725,0.050,0.210
3726,0.080,0.230
3727,0.060,0.160
3728,0.010,0.050
3729,-0.040,0.000
3730,-0.085,0.005
3731,-0.070,0.000
3732,-0.060,-0.010
3733,-0.030,-0.075
3734,-0.055,-0.085
3735,-0.085,-0.125
3736,-0.100,-0.095
3737,-0.105,-0.120
3738,-0.090,-0.125
3739,-0.090,-0.125
3740,-0.080,-0.110
3741,-0.090,-0.140
3742,-0.085,-0.150
3743,-0.065,0.135
3744,-0.020,0.595
3745,0.110,0.715
3746,0.230,0.140
3747,0.160,-0.670
3748,-0.235,-0.675
3749,-0.440,-0.465
3750,-0.380,-0.210
3751,-0.190,-0.110
3752,-0.080,-0.125
3753,-0.040,-0.095
3754,-0.035,-0.125
3755,-0.030,-0.100
3756,-0.020,-0.100
3757,-0.035,-0.110
3758,-0.040,-0.100
3759,-0.045,-0.125
3760,-0.055,-0.115
3761,-0.035,-0.110
3762,-0.045,-0.120
3763,-0.065,-0.110
3764,-0.085,-0.130
3765,-0.080,-0.120
3766,-0.090,-0.130
3767,-0.075,-0.125
3768,-0.090,-0.100
3769,-0.090,-0.070
3770,-0.065,-0.050
3771,-0.085,-0.055
3772,-0.085,-0.020
3773,-0.080,0.000
3774,-0.090,0.020
3775,-0.065,0.045
3776,-0.075,0.055
3777,-0.060,0.090
3778,-0.060,0.085
3779,-0.035,0.070
3780,-0.010,0.055
3781,-0.015,0.040
3782,-0.020,0.045
3783,-0.005,0.020
3784,-0.010,0.030
3785,-0.005,0.035
3786,-0.020,0.040
3787,0.000,0.050
3788,0.000,0.030
3789,0.000,0.040
3790,-0.005,0.035
3791,-0.015,0.010
3792,-0.010,0.005
3793,-0.015,0.020
3794,-0.005,0.045
3795,-0.005,0.090
3796,0.000,0.165
3797,0.010,0.175
3798,0.025,0.190
3799,0.055,0.205
3800,0.010,0.155
3801,-0.025,0.030
3802,-0.050,0.000
3803,-0.090,-0.005
3804,-0.080,-0.015
3805,-0.050,-0.045
3806,-0.015,-0.095
3807,-0.030,-0.130
3808,-0.035,-0.145
3809,-0.060,-0.130
3810,-0.060,-0.135
3811,-0.045,-0.130
3812,-0.040,-0.130
3813,-0.065,-0.125
3814,-0.060,-0.155
3815,-0.045,-0.150
3816,-0.020,0.155
3817,0.015,0.600
3818,0.175,0.615
3819,0.220,-0.120
3820,0.075,-0.690
3821,-0.370,-0.580
3822,-0.420,-0.335
3823,-0.290,-0.155
3824,-0.080,-0.130
3825,-0.040,-0.125
3826,-0.040,-0.115
3827,-0.050,-0.140
3828,-0.055,-0.130
3829,-0.045,-0.125
3830,-0.065,-0.105
3831,-0.065,-0.090
3832,-0.075,-0.110
3833,-0.075,-0.105
3834,-0.080,-0.115
3835,-0.085,-0.095
3836,-0.080,-0.125
3837,-0.090,-0.120
3838,-0.100,-0.100
3839,-0.075,-0.110
3840,-0.085,-0.080
3841,-0.075,-0.105
3842,-0.075,-0.090
3843,-0.075,-0.040
3844,-0.050,0.000
3845,-0.020,-0.015
3846,-0.010,-0.030
3847,0.005,0.055
3848,0.005,0.060
3849,-0.045,0.005
3850,-0.085,0.020
3851,-0.065,0.010
3852,-0.060,0.025
3853,-0.065,0.020
3854,-0.065,0.010
3855,-0.050,0.025
3856,-0.065,0.005
3857,-0.060,0.000
3858,-0.075,0.005
3859,-0.070,0.000
3860,-0.055,-0.005
3861,-0.060,0.270
3862,0.000,0.840
3863,0.100,0.965
3864,0.255,0.200
3865,0.070,-0.550
3866,-0.290,-0.535
3867,-0.425,-0.275
3868,-0.325,-0.075
3869,-0.135,-0.080
3870,-0.100,-0.070
3871,-0.100,-0.110
3872,-0.085,-0.110
3873,-0.105,-0.110
3874,-0.110,-0.110
3875,-0.095,-0.160
3876,-0.080,-0.150
3877,-0.110,-0.130
3878,-0.105,-0.140
3879,-0.070,-0.125
3880,-0.085,-0.140
3881,-0.115,-0.120
3882,-0.115,-0.060
3883,-0.105,-0.105
3884,-0.095,-0.060
3885,-0.090,-0.025
3886,-0.075,-0.005
3887,-0.095,0.035
3888,-0.110,0.045
3889,-0.090,0.085
3890,-0.095,0.105
3891,-0.075,0.160
3892,-0.085,0.160
3893,-0.070,0.070
3894,-0.060,0.055
3895,-0.075,0.025
3896,-0.070,0.020
3897,-0.090,-0.015
3898,-0.065,-0.045
3899,-0.095,-0.030
3900,-0.100,-0.020
3901,-0.120,-0.015
3902,-0.095,-0.070
3903,-0.110,-0.040
3904,-0.090,-0.030
3905,-0.090,-0.045
3906,-0.100,-0.055
3907,-0.090,-0.095
3908,-0.110,-0.040
3909,-0.110,-0.055
3910,-0.090,-0.075
3911,-0.095,-0.040
3912,-0.095,-0.070
3913,-0.095,-0.065
3914,-0.080,-0.065
3915,-0.080,-0.055
3916,-0.085,-0.090
3917,-0.095,-0.075
3918,-0.090,-0.045
3919,-0.085,-0.085
3920,-0.090,-0.055
3921,-0.070,-0.090
3922,-0.080,-0.075
3923,-0.075,-0.080
3924,-0.080,-0.065
3925,-0.080,-0.080
3926,-0.070,-0.100
3927,-0.100,-0.060
3928,-0.085,-0.080
3929,-0.070,0.020
3930,-0.080,0.085
3931,-0.060,0.090
3932,-0.015,0.095
3933,-0.020,0.155
3934,-0.040,0.065
3935,-0.050,0.000
3936,-0.100,-0.085
3937,-0.135,-0.055
3938,-0.130,-0.065
3939,-0.110,-0.105
3940,-0.085,-0.135
3941,-0.110,-0.170
3942,-0.110,-0.225
3943,-0.140,-0.195
3944,-0.110,-0.180
3945,-0.120,-0.135
3946,-0.115,-0.215
3947,-0.115,-0.200
3948,-0.125,-0.160
3949,-0.095,0.190
3950,-0.055,0.640
3951,0.115,0.720
3952,0.275,0.170
3953,0.285,-0.670
3954,-0.095,-0.785
3955,-0.435,-0.620
3956,-0.465,-0.390
3957,-0.295,-0.220
3958,-0.175,-0.245
3959,-0.110,-0.230
3960,-0.110,-0.230
3961,-0.110,-0.235
3962,-0.120,-0.225
3963,-0.115,-0.250
3964,-0.120,-0.225
3965,-0.115,-0.230
3966,-0.130,-0.235
3967,-0.130,-0.235
3968,-0.135,-0.230
3969,-0.135,-0.225
3970,-0.135,-0.230
3971,-0.125,-0.235
3972,-0.120,-0.180
3973,-0.140,-0.195
3974,-0.130,-0.195
3975,-0.135,-0.175
3976,-0.135,-0.120
3977,-0.115,-0.110
3978,-0.125,-0.115
3979,-0.130,-0.080
3980,-0.125,-0.080
3981,-0.135,-0.035
3982,-0.115,-0.020
3983,-0.110,0.000
3984,-0.100,0.015
3985,-0.085,-0.005
3986,-0.100,0.000
3987,-0.075,-0.040
3988,-0.070,-0.025
3989,-0.070,-0.045
3990,-0.055,-0.085
3991,-0.070,-0.080
3992,-0.060,-0.105
3993,-0.085,-0.095
3994,-0.080,-0.075
3995,-0.065,-0.105
3996,-0.060,-0.070
3997,-0.075,-0.065
3998,-0.060,-0.055
3999,-0.065,-0.095
4000,-0.075,-0.090
4001,-0.080,-0.080
4002,-0.070,-0.075
4003,-0.090,-0.015
4004,-0.060,0.030
4005,-0.040,0.075
4006,-0.030,0.060
4007,0.000,0.065
4008,0.020,0.065
4009,0.000,-0.040
4010,-0.085,-0.160
4011,-0.135,-0.150
4012,-0.150,-0.145
4013,-0.110,-0.165
4014,-0.070,-0.200
4015,-0.075,-0.235
4016,-0.075,-0.275
4017,-0.105,-0.265
4018,-0.095,-0.265
4019,-0.100,-0.275
4020,-0.115,-0.275
4021,-0.105,-0.270
4022,-0.095,-0.270
4023,-0.090,-0.290
4024,-0.075,-0.235
4025,-0.055,0.140
4026,0.010,0.565
4027,0.185,0.565
4028,0.310,-0.165
4029,0.220,-0.820
4030,-0.240,-0.785
4031,-0.435,-0.580
4032,-0.375,-0.385
4033,-0.175,-0.315
4034,-0.055,-0.315
4035,-0.040,-0.295
4036,-0.065,-0.295
4037,-0.055,-0.285
4038,-0.050,-0.270
4039,-0.055,-0.265
4040,-0.060,-0.275
4041,-0.055,-0.280
4042,-0.055,-0.270
4043,-0.050,-0.275
4044,-0.065,-0.265
4045,-0.070,-0.270
4046,-0.065,-0.275
4047,-0.060,-0.270
4048,-0.075,-0.290
4049,-0.065,-0.285
4050,-0.085,-0.270
4051,-0.080,-0.275
4052,-0.070,-0.270
4053,-0.075,-0.275
4054,-0.085,-0.260
4055,-0.085,-0.250
4056,-0.060,-0.240
4057,-0.060,-0.205
4058,-0.060,-0.195
4059,-0.055,-0.135
4060,-0.025,-0.140
4061,-0.045,-0.120
4062,-0.035,-0.130
4063,-0.010,-0.155
4064,-0.005,-0.160
4065,-0.020,-0.155
4066,-0.015,-0.160
4067,-0.030,-0.145
4068,-0.020,-0.165
4069,-0.010,-0.165
4070,-0.030,-0.165
4071,-0.025,-0.175
4072,-0.025,-0.155
4073,0.000,-0.175
4074,-0.025,-0.180
4075,-0.025,-0.205
4076,-0.030,-0.180
4077,-0.020,-0.110
4078,-0.030,-0.055
4079,-0.005,-0.025
4080,0.025,-0.025
4081,0.040,0.000
4082,0.020,-0.075
4083,-0.020,-0.155
4084,-0.075,-0.215
4085,-0.105,-0.210
4086,-0.100,-0.205
4087,-0.060,-0.260
4088,-0.040,-0.275
4089,-0.040,-0.305
4090,-0.045,-0.310
4091,-0.070,-0.305
4092,-0.060,-0.310
4093,-0.060,-0.280
4094,-0.065,-0.310
4095,-0.070,-0.310
4096,-0.075,-0.350
4097,-0.070,-0.360
4098,-0.025,-0.020
4099,0.005,0.460
4100,0.160,0.565
4101,0.225,0.055
4102,0.105,-0.735
4103,-0.320,-0.845
4104,-0.490,-0.625
4105,-0.390,-0.415
4106,-0.175,-0.365
4107,-0.075,-0.330
4108,-0.070,-0.340
4109,-0.085,-0.350
4110,-0.065,-0.320
4111,-0.060,-0.345
4112,-0.075,-0.335
4113,-0.075,-0.320
4114,-0.050,-0.335
4115,-0.070,-0.300
4116,-0.065,-0.315
4117,-0.070,-0.300
4118,-0.060,-0.305
4119,-0.080,-0.305
4120,-0.050,-0.300
4121,-0.080,-0.285
4122,-0.080,-0.260
4123,-0.090,-0.255
4124,-0.080,-0.245
4125,-0.065,-0.255
4126,-0.070,-0.255
4127,-0.060,-0.240
4128,-0.065,-0.225
4129,-0.055,-0.190
4130,-0.065,-0.175
4131,-0.050,-0.145
4132,-0.030,-0.100
4133,-0.030,-0.130
4134,-0.015,-0.145
4135,-0.040,-0.140
4136,-0.030,-0.175
4137,-0.035,-0.175
4138,-0.040,-0.170
4139,-0.040,-0.165
4140,-0.045,-0.190
4141,-0.035,-0.190
4142,-0.035,-0.170
4143,-0.030,-0.175
4144,-0.040,-0.165
4145,-0.035,-0.175
4146,-0.010,-0.200
4147,-0.050,-0.180
4148,-0.050,-0.205
4149,-0.045,-0.195
4150,-0.050,-0.155
4151,-0.025,-0.065
4152,-0.010,-0.035
4153,-0.005,-0.045
4154,0.035,-0.005
4155,0.020,-0.020
4156,-0.025,-0.105
4157,-0.050,-0.195
4158,-0.100,-0.180
4159,-0.110,-0.185
4160,-0.070,-0.235
4161,-0.075,-0.255
4162,-0.050,-0.310
4163,-0.070,-0.340
4164,-0.085,-0.350
4165,-0.080,-0.355
4166,-0.090,-0.340
4167,-0.080,-0.345
4168,-0.075,-0.330
4169,-0.060,-0.335
4170,-0.060,-0.390
4171,-0.070,-0.305
4172,-0.040,0.080
4173,0.015,0.490
4174,0.180,0.390
4175,0.185,-0.360
4176,-0.055,-0.815
4177,-0.425,-0.705
4178,-0.415,-0.435
4179,-0.195,-0.370
4180,-0.080,-0.325
4181,-0.065,-0.340
4182,-0.070,-0.320
4183,-0.055,-0.330
4184,-0.045,-0.335
4185,-0.065,-0.315
4186,-0.075,-0.310
4187,-0.060,-0.310
4188,-0.045,-0.325
4189,-0.065,-0.305
4190,-0.075,-0.305
4191,-0.070,-0.315
4192,-0.070,-0.280
4193,-0.060,-0.280
4194,-0.070,-0.265
4195,-0.065,-0.260
4196,-0.055,-0.260
4197,-0.070,-0.245
4198,-0.065,-0.225
4199,-0.070,-0.230
4200,-0.070,-0.220
4201,-0.075,-0.190
4202,-0.045,-0.180
4203,-0.080,-0.160
4204,-0.060,-0.125
4205,-0.045,-0.120
4206,-0.055,-0.130
4207,-0.040,-0.115
4208,-0.045,-0.165
4209,-0.055,-0.170
4210,-0.050,-0.180
4211,-0.030,-0.180
4212,-0.035,-0.175
4213,-0.035,-0.185
4214,-0.060,-0.190
4215,-0.055,-0.180
4216,-0.040,-0.190
4217,-0.055,-0.190
4218,-0.065,-0.165
4219,-0.075,-0.170
4220,-0.055,-0.195
4221,-0.035,-0.200
4222,-0.070,-0.205
4223,-0.075,-0.180
4224,-0.080,-0.100
4225,-0.060,-0.050
4226,-0.025,-0.025
4227,-0.020,-0.040
4228,-0.020,-0.055
4229,-0.040,-0.130
4230,-0.105,-0.205
4231,-0.130,-0.205
4232,-0.135,-0.205
4233,-0.155,-0.265
4234,-0.115,-0.260
4235,-0.075,-0.305
4236,-0.100,-0.310
4237,-0.110,-0.375
4238,-0.140,-0.370
4239,-0.120,-0.350
4240,-0.150,-0.385
4241,-0.120,-0.365
4242,-0.120,-0.360
4243,-0.115,-0.360
4244,-0.140,-0.335
4245,-0.135,-0.100
4246,-0.080,0.365
4247,0.025,0.495
4248,0.185,-0.090
4249,0.225,-0.905
4250,-0.200,-0.950
4251,-0.490,-0.700
4252,-0.455,-0.500
4253,-0.250,-0.395
4254,-0.155,-0.400
4255,-0.150,-0.385
4256,-0.150,-0.400
4257,-0.155,-0.390
4258,-0.135,-0.370
4259,-0.165,-0.380
4260,-0.145,-0.390
4261,-0.145,-0.405
4262,-0.155,-0.380
4263,-0.155,-0.390
4264,-0.160,-0.385
4265,-0.165,-0.385
4266,-0.145,-0.375
4267,-0.145,-0.350
4268,-0.160,-0.345
4269,-0.185,-0.355
4270,-0.150,-0.315
4271,-0.165,-0.280
4272,-0.155,-0.280
4273,-0.155,-0.250
4274,-0.140,-0.215
4275,-0.145,-0.205
4276,-0.160,-0.170
4277,-0.125,-0.135
4278,-0.140,-0.145
4279,-0.095,-0.150
4280,-0.110,-0.150
4281,-0.090,-0.160
4282,-0.085,-0.200
4283,-0.075,-0.225
4284,-0.050,-0.220
4285,-0.050,-0.235
4286,-0.035,-0.250
4287,-0.050,-0.250
4288,-0.080,-0.245
4289,-0.055,-0.220
4290,-0.025,-0.225
4291,0.000,-0.255
4292,-0.010,-0.275
4293,0.000,-0.250
4294,0.000,-0.275
4295,-0.045,-0.320
4296,-0.085,-0.345
4297,-0.095,-0.345
4298,-0.110,-0.335
4299,-0.095,-0.320
4300,-0.110,-0.325
4301,-0.095,-0.320
4302,-0.100,-0.375
4303,-0.100,-0.435
4304,-0.110,-0.250
4305,-0.085,0.160
4306,0.000,0.290
4307,0.130,-0.145
4308,0.100,-0.835
4309,-0.330,-0.800
4310,-0.465,-0.645
4311,-0.380,-0.395
4312,-0.180,-0.355
4313,-0.110,-0.360
4314,-0.085,-0.370
4315,-0.100,-0.375
4316,-0.100,-0.365
4317,-0.105,-0.365
4318,-0.120,-0.335
4319,-0.110,-0.345
4320,-0.100,-0.370
4321,-0.110,-0.360
4322,-0.115,-0.360
4323,-0.115,-0.350
4324,-0.130,-0.390
4325,-0.130,-0.385
4326,-0.120,-0.390
4327,-0.125,-0.395
4328,-0.105,-0.370
4329,-0.135,-0.385
4330,-0.125,-0.365
4331,-0.125,-0.370
4332,-0.125,-0.335
4333,-0.105,-0.305
4334,-0.115,-0.300
4335,-0.120,-0.275
4336,-0.110,-0.275
4337,-0.095,-0.265
4338,-0.075,-0.230
4339,-0.065,-0.265
4340,-0.070,-0.260
4341,-0.065,-0.270
4342,-0.055,-0.255
4343,-0.060,-0.265
4344,-0.085,-0.250
4345,-0.060,-0.260
4346,-0.075,-0.285
4347,-0.090,-0.255
4348,-0.065,-0.285
4349,-0.075,-0.280
4350,-0.050,-0.295
4351,-0.090,-0.315
4352,-0.095,-0.315
4353,-0.080,-0.350
4354,-0.080,-0.320
4355,-0.085,-0.320
4356,-0.080,-0.315
4357,-0.080,-0.320
4358,-0.105,-0.320
4359,-0.090,-0.315
4360,-0.100,-0.340
4361,-0.105,-0.335
4362,-0.110,-0.325
4363,-0.115,-0.330
4364,-0.105,-0.315
4365,-0.115,-0.345
4366,-0.120,-0.330
4367,-0.125,-0.285
4368,-0.115,-0.205
4369,-0.100,-0.115
4370,-0.065,-0.130
4371,-0.040,-0.115
4372,-0.075,-0.120
4373,-0.070,-0.210
4374,-0.100,-0.330
4375,-0.145,-0.350
4376,-0.160,-0.295
4377,-0.145,-0.330
4378,-0.110,-0.380
4379,-0.105,-0.405
4380,-0.100,-0.440
4381,-0.135,-0.430
4382,-0.140,-0.430
4383,-0.145,-0.430
4384,-0.145,-0.430
4385,-0.140,-0.455
4386,-0.150,-0.460
4387,-0.150,-0.440
4388,-0.125,-0.100
4389,-0.070,0.330
4390,0.060,0.295
4391,0.125,-0.365
4392,-0.030,-0.980
4393,-0.480,-0.885
4394,-0.530,-0.650
4395,-0.345,-0.480
4396,-0.180,-0.465
4397,-0.140,-0.465
4398,-0.135,-0.450
4399,-0.145,-0.455
4400,-0.125,-0.410
4401,-0.115,-0.415
4402,-0.130,-0.410
4403,-0.125,-0.405
4404,-0.120,-0.410
4405,-0.120,-0.400
4406,-0.115,-0.415
4407,-0.125,-0.430
4408,-0.125,-0.400
4409,-0.115,-0.415
4410,-0.120,-0.375
4411,-0.105,-0.380
4412,-0.105,-0.355
4413,-0.105,-0.360
4414,-0.120,-0.310
4415,-0.100,-0.280
4416,-0.110,-0.305
4417,-0.100,-0.250
4418,-0.080,-0.235
4419,-0.085,-0.230
4420,-0.070,-0.180
4421,-0.070,-0.175
4422,-0.055,-0.145
4423,-0.040,-0.170
4424,-0.055,-0.140
4425,-0.050,-0.150
4426,-0.030,-0.190
4427,-0.045,-0.215
4428,-0.075,-0.210
4429,-0.080,-0.220
4430,-0.090,-0.220
4431,-0.075,-0.235
4432,-0.070,-0.220
4433,-0.085,-0.240
4434,-0.080,-0.215
4435,-0.075,-0.265
4436,-0.070,-0.245
4437,-0.070,-0.260
4438,-0.080,-0.290
4439,-0.070,-0.250
4440,-0.080,-0.260
4441,-0.080,-0.200
4442,-0.075,-0.115
4443,-0.040,-0.080
4444,-0.030,-0.080
4445,-0.015,-0.085
4446,-0.025,-0.120
4447,-0.060,-0.195
4448,-0.110,-0.290
4449,-0.140,-0.290
4450,-0.170,-0.295
4451,-0.130,-0.320
4452,-0.095,-0.355
4453,-0.080,-0.410
4454,-0.100,-0.405
4455,-0.105,-0.430
4456,-0.115,-0.415
4457,-0.130,-0.415
4458,-0.110,-0.405
4459,-0.105,-0.405
4460,-0.120,-0.435
4461,-0.120,-0.460
4462,-0.125,-0.300
4463,-0.065,0.135
4464,0.030,0.390
4465,0.140,0.035
4466,0.120,-0.740
4467,-0.225,-0.895
4468,-0.440,-0.680
4469,-0.420,-0.480
4470,-0.215,-0.440
4471,-0.120,-0.440
4472,-0.110,-0.440
4473,-0.115,-0.420
4474,-0.105,-0.430
4475,-0.110,-0.420
4476,-0.115,-0.415
4477,-0.125,-0.400
4478,-0.120,-0.395
4479,-0.110,-0.415
4480,-0.115,-0.385
4481,-0.100,-0.430
4482,-0.140,-0.440
4483,-0.135,-0.420
4484,-0.110,-0.420
4485,-0.110,-0.405
4486,-0.130,-0.410
4487,-0.125,-0.400
4488,-0.145,-0.370
4489,-0.130,-0.375
4490,-0.155,-0.360
4491,-0.155,-0.365
4492,-0.155,-0.345
4493,-0.135,-0.310
4494,-0.150,-0.275
4495,-0.135,-0.245
4496,-0.140,-0.250
4497,-0.120,-0.225
4498,-0.095,-0.235
4499,-0.095,-0.250
4500,-0.090,-0.250
4501,-0.090,-0.260
4502,-0.090,-0.260
4503,-0.095,-0.245
4504,-0.095,-0.250
4505,-0.085,-0.220
4506,-0.080,-0.240
4507,-0.090,-0.210
4508,-0.095,-0.225
4509,-0.090,-0.235
4510,-0.120,-0.245
4511,-0.105,-0.245
4512,-0.100,-0.240
4513,-0.090,-0.220
4514,-0.085,-0.205
4515,-0.105,-0.115
4516,-0.075,-0.075
4517,-0.035,-0.060
4518,-0.005,-0.050
4519,-0.020,-0.075
4520,-0.055,-0.160
4521,-0.115,-0.275
4522,-0.150,-0.270
4523,-0.180,-0.275
4524,-0.160,-0.285
4525,-0.145,-0.355
4526,-0.115,-0.400
4527,-0.145,-0.410
4528,-0.170,-0.425
4529,-0.165,-0.425
4530,-0.160,-0.415
4531,-0.165,-0.405
4532,-0.145,-0.405
4533,-0.120,-0.415
4534,-0.130,-0.405
4535,-0.130,-0.290
4536,-0.095,0.070
4537,-0.005,0.350
4538,0.115,0.190
4539,0.185,-0.650
4540,-0.035,-0.890
4541,-0.405,-0.750
4542,-0.445,-0.515
4543,-0.275,-0.395
4544,-0.140,-0.400
4545,-0.120,-0.405
4546,-0.125,-0.410
4547,-0.115,-0.405
4548,-0.120,-0.365
4549,-0.105,-0.390
4550,-0.095,-0.380
4551,-0.095,-0.390
4552,-0.095,-0.370
4553,-0.110,-0.355
4554,-0.075,-0.395
4555,-0.090,-0.375
4556,-0.100,-0.350
4557,-0.125,-0.355
4558,-0.110,-0.340
4559,-0.110,-0.340
4560,-0.135,-0.310
4561,-0.125,-0.300
4562,-0.130,-0.300
4563,-0.125,-0.275
4564,-0.135,-0.280
4565,-0.140,-0.215
4566,-0.130,-0.195
4567,-0.150,-0.145
4568,-0.130,-0.140
4569,-0.115,-0.120
4570,-0.100,-0.095
4571,-0.105,-0.105
4572,-0.080,-0.115
4573,-0.050,-0.135
4574,-0.045,-0.155
4575,-0.050,-0.160
4576,-0.050,-0.140
4577,-0.070,-0.150
4578,-0.085,-0.200
4579,-0.100,-0.200
4580,-0.130,-0.195
4581,-0.145,-0.245
4582,-0.150,-0.230
4583,-0.155,-0.225
4584,-0.100,-0.240
4585,-0.105,-0.270
4586,-0.100,-0.280
4587,-0.105,-0.235
4588,-0.135,-0.180
4589,-0.075,-0.155
4590,-0.015,-0.185
4591,-0.025,-0.215
4592,-0.035,-0.260
4593,-0.060,-0.335
4594,-0.110,-0.350
4595,-0.125,-0.355
4596,-0.135,-0.365
4597,-0.130,-0.345
4598,-0.145,-0.330
4599,-0.150,-0.290
4600,-0.155,-0.340
4601,-0.165,-0.400
4602,-0.180,-0.290
4603,-0.135,0.070
4604,-0.090,0.365
4605,0.045,0.125
4606,0.130,-0.685
4607,-0.125,-0.860
4608,-0.425,-0.700
4609,-0.455,-0.455
4610,-0.265,-0.385
4611,-0.145,-0.385
4612,-0.110,-0.370
4613,-0.090,-0.365
4614,-0.080,-0.365
4615,-0.070,-0.375
4616,-0.065,-0.340
4617,-0.065,-0.330
4618,-0.050,-0.260
4619,-0.040,-0.330
4620,-0.065,-0.305
4621,-0.070,-0.305
4622,-0.055,-0.280
4623,-0.065,-0.270
4624,-0.075,-0.255
4625,-0.075,-0.275
4626,-0.050,-0.290
4627,-0.055,-0.295
4628,-0.050,-0.230
4629,-0.030,-0.290
4630,-0.015,-0.280
4631,-0.015,-0.265
4632,-0.015,-0.210
4633,-0.015,-0.190
4634,0.005,-0.185
4635,0.020,-0.195
4636,0.050,-0.160
4637,0.050,-0.175
4638,0.085,-0.165
4639,0.100,-0.205
4640,0.115,-0.190
4641,0.125,-0.225
4642,0.120,-0.220
4643,0.110,-0.195
4644,0.115,-0.195
4645,0.120,-0.220
4646,0.120,-0.215
4647,0.110,-0.155
4648,0.115,-0.165
4649,0.095,-0.190
4650,0.100,-0.190
4651,0.115,-0.170
4652,0.105,-0.200
4653,0.115,-0.195
4654,0.090,-0.210
4655,0.100,-0.195
4656,0.110,-0.190
4657,0.105,-0.220
4658,0.080,-0.235
4659,0.105,-0.225
4660,0.145,-0.230
4661,0.150,-0.275
4662,0.165,-0.205
4663,0.200,-0.220
4664,0.170,-0.235
4665,0.090,-0.240
4666,0.085,-0.240
4667,0.095,-0.275
4668,0.095,-0.270
4669,0.085,-0.210
4670,0.095,-0.245
4671,0.085,-0.250
4672,0.070,-0.085
4673,0.110,0.375
4674,0.185,0.650
4675,0.325,0.435
4676,0.495,-0.570
4677,0.330,-0.875
4678,-0.145,-0.740
4679,-0.310,-0.515
4680,-0.195,-0.290
4681,-0.020,-0.235
4682,0.035,-0.285
4683,0.065,-0.315
4684,0.065,-0.280
4685,0.090,-0.255
4686,0.100,-0.275
4687,0.100,-0.145
4688,0.105,-0.175
4689,0.140,-0.235
4690,0.115,-0.215
4691,0.110,-0.235
4692,0.095,-0.245
4693,0.060,-0.225
4694,0.040,-0.155
4695,0.000,-0.220
4696,0.050,-0.240
4697,0.070,-0.260
4698,0.105,-0.110
4699,0.145,-0.115
4700,0.140,-0.075
4701,0.085,-0.070
4702,0.060,-0.020
4703,0.035,0.030
4704,0.045,0.000
4705,0.075,0.030
4706,0.090,-0.005
4707,0.100,-0.035
4708,0.145,-0.020
4709,0.155,-0.035
4710,0.195,-0.010
4711,0.210,-0.075
4712,0.235,-0.015
4713,0.275,-0.070
4714,0.275,-0.060
4715,0.285,0.055
4716,0.305,0.300
4717,0.330,0.675
4718,0.470,0.295
4719,0.380,-0.475
4720,0.110,-0.535
4721,-0.025,-0.230
4722,0.030,-0.035
4723,0.175,-0.175
4724,0.225,-0.150
4725,0.245,-0.035
4726,0.270,-0.165
4727,0.315,-0.185
4728,0.305,-0.165
4729,0.340,-0.185
4730,0.295,-0.165
4731,0.300,-0.115
4732,0.315,-0.115
4733,0.270,-0.135
4734,0.290,-0.090
4735,0.300,-0.105
4736,0.300,-0.050
4737,0.315,0.005
4738,0.325,0.025
4739,0.345,0.000
4740,0.320,0.010
4741,0.340,0.065
4742,0.340,0.140
4743,0.350,0.160
4744,0.375,0.225
4745,0.340,0.200
4746,0.370,0.265
4747,0.365,0.265
4748,0.340,0.205
4749,0.345,0.115
4750,0.345,0.085
4751,0.330,0.120
4752,0.335,0.035
4753,0.320,-0.020
4754,0.290,0.040
4755,0.305,0.000
4756,0.295,0.045
4757,0.275,0.075
4758,0.280,0.065
4759,0.270,0.070
4760,0.270,0.035
4761,0.245,0.015
4762,0.265,0.055
4763,0.295,0.025
4764,0.265,0.080
4765,0.280,0.045
4766,0.270,0.000
4767,0.280,-0.010
4768,0.220,0.070
4769,0.230,0.075
4770,0.250,0.045
4771,0.260,0.050
4772,0.250,0.005
4773,0.250,0.025
4774,0.270,0.030
4775,0.245,0.030
4776,0.270,0.030
4777,0.280,0.035
4778,0.300,0.015
4779,0.270,-0.010
4780,0.265,0.050
4781,0.285,0.070
4782,0.295,0.100
4783,0.305,0.150
4784,0.310,0.190
4785,0.315,0.220
4786,0.315,0.150
4787,0.280,0.100
4788,0.240,0.030
4789,0.205,0.010
4790,0.225,0.025
4791,0.215,0.015
4792,0.235,0.000
4793,0.225,-0.025
4794,0.220,-0.020
4795,0.225,-0.010
4796,0.225,-0.010
4797,0.200,-0.005
4798,0.225,-0.075
4799,0.205,-0.030
4800,0.210,-0.050
4801,0.250,0.125
4802,0.285,0.570
4803,0.360,0.885
4804,0.495,0.760
4805,0.555,-0.155
4806,0.390,-0.620
4807,0.015,-0.480
4808,-0.070,-0.240
4809,0.070,-0.035
4810,0.235,-0.025
4811,0.290,-0.005
4812,0.285,0.015
4813,0.295,0.005
4814,0.295,0.000
4815,0.310,-0.020
4816,0.290,0.000
4817,0.270,0.000
4818,0.265,0.000
4819,0.245,0.025
4820,0.250,0.030
4821,0.260,0.010
4822,0.250,0.030
4823,0.250,0.050
4824,0.255,0.080
4825,0.260,0.065
4826,0.260,0.080
4827,0.250,0.055
4828,0.245,0.100
4829,0.245,0.130
4830,0.230,0.155
4831,0.240,0.175
4832,0.245,0.175
4833,0.235,0.190
4834,0.240,0.240
4835,0.250,0.255
4836,0.230,0.270
4837,0.260,0.250
4838,0.260,0.240
4839,0.270,0.225
4840,0.280,0.185
4841,0.260,0.175
4842,0.265,0.145
4843,0.255,0.150
4844,0.225,0.165
4845,0.240,0.120
4846,0.235,0.125
4847,0.250,0.150
4848,0.250,0.150
4849,0.235,0.145
4850,0.240,0.135
4851,0.240,0.135
4852,0.240,0.105
4853,0.255,0.075
4854,0.255,0.080
4855,0.240,0.085
4856,0.240,0.095
4857,0.245,0.140
4858,0.250,0.180
4859,0.235,0.190
4860,0.245,0.225
4861,0.280,0.230
4862,0.260,0.215
4863,0.220,0.095
4864,0.175,0.025
4865,0.160,0.085
4866,0.165,0.090
4867,0.190,0.040
4868,0.195,0.000
4869,0.210,-0.015
4870,0.210,-0.030
4871,0.185,-0.055
4872,0.195,-0.035
4873,0.190,-0.070
4874,0.185,-0.065
4875,0.190,-0.070
4876,0.180,-0.075
4877,0.205,-0.090
4878,0.230,0.115
4879,0.255,0.535
4880,0.325,0.770
4881,0.420,0.465
4882,0.470,-0.465
4883,0.245,-0.710
4884,-0.080,-0.500
4885,-0.095,-0.195
4886,0.020,-0.105
4887,0.170,-0.125
4888,0.185,-0.125
4889,0.170,-0.110
4890,0.165,-0.095
4891,0.155,-0.080
4892,0.165,-0.115
4893,0.185,-0.125
4894,0.175,-0.105
4895,0.150,-0.120
4896,0.130,-0.105
4897,0.155,-0.075
4898,0.150,-0.070
4899,0.180,-0.085
4900,0.170,-0.080
4901,0.160,-0.050
4902,0.125,-0.050
4903,0.150,-0.030
4904,0.135,-0.020
4905,0.135,-0.055
4906,0.145,0.015
4907,0.185,0.000
4908,0.195,0.030
4909,0.205,0.135
4910,0.185,0.110
4911,0.175,0.090
4912,0.135,0.095
4913,0.135,0.100
4914,0.165,0.105
4915,0.165,0.080
4916,0.135,0.075
4917,0.170,0.000
4918,0.180,0.005
4919,0.190,-0.015
4920,0.195,-0.010
4921,0.200,-0.025
4922,0.205,-0.040
4923,0.155,0.100
4924,0.215,0.575
4925,0.280,0.990
4926,0.430,0.460
4927,0.505,-0.635
4928,0.310,-0.695
4929,-0.005,-0.475
4930,-0.090,-0.175
4931,0.025,-0.020
4932,0.125,-0.035
4933,0.155,-0.050
4934,0.135,-0.060
4935,0.125,-0.025
4936,0.145,-0.105
4937,0.145,-0.120
4938,0.155,-0.085
4939,0.160,-0.100
4940,0.165,-0.105
4941,0.170,-0.110
4942,0.160,-0.110
4943,0.165,-0.090
4944,0.180,-0.095
4945,0.190,-0.060
4946,0.195,-0.045
4947,0.200,-0.035
4948,0.210,0.000
4949,0.215,0.055
4950,0.220,0.075
4951,0.225,0.110
4952,0.225,0.170
4953,0.255,0.190
4954,0.265,0.190
4955,0.250,0.205
4956,0.225,0.185
4957,0.230,0.150
4958,0.215,0.125
4959,0.195,0.120
4960,0.180,0.115
4961,0.175,0.080
4962,0.185,0.075
4963,0.175,0.055
4964,0.180,0.045
4965,0.185,0.045
4966,0.175,0.005
4967,0.215,0.010
4968,0.175,0.000
4969,0.200,-0.020
4970,0.150,-0.040
4971,0.205,-0.035
4972,0.180,-0.010
4973,0.215,-0.055
4974,0.215,-0.050
4975,0.220,-0.060
4976,0.215,-0.070
4977,0.215,-0.075
4978,0.210,-0.090
4979,0.210,-0.085
4980,0.225,-0.075
4981,0.210,-0.075
4982,0.215,-0.080
4983,0.200,-0.080
4984,0.200,-0.055
4985,0.210,-0.105
4986,0.195,-0.075
4987,0.220,-0.085
4988,0.215,-0.075
4989,0.200,-0.085
4990,0.220,-0.085
4991,0.230,-0.030
4992,0.245,0.025
4993,0.260,0.050
4994,0.310,0.075
4995,0.310,0.085
4996,0.315,0.045
4997,0.295,-0.070
4998,0.255,-0.125
4999,0.225,-0.100
5000,0.235,-0.100
5001,0.255,-0.115
5002,0.250,-0.170
5003,0.250,-0.185
5004,0.225,-0.200
5005,0.180,-0.200
5006,0.175,-0.200
5007,0.170,-0.175
5008,0.195,-0.165
5009,0.200,-0.200
5010,0.190,-0.245
5011,0.200,-0.040
5012,0.235,0.385
5013,0.315,0.705
5014,0.425,0.575
5015,0.480,-0.265
5016,0.330,-0.870
5017,-0.030,-0.740
5018,-0.130,-0.480
5019,-0.025,-0.290
5020,0.115,-0.235
5021,0.185,-0.255
5022,0.205,-0.245
5023,0.210,-0.225
5024,0.205,-0.215
5025,0.215,-0.205
5026,0.200,-0.190
5027,0.180,-0.175
5028,0.175,-0.200
5029,0.175,-0.190
5030,0.170,-0.165
5031,0.155,-0.160
5032,0.180,-0.100
5033,0.135,-0.175
5034,0.175,-0.145
5035,0.160,-0.085
5036,0.160,-0.105
5037,0.135,-0.100
5038,0.145,-0.050
5039,0.150,-0.015
5040,0.160,0.005
5041,0.150,-0.020
5042,0.130,-0.030
5043,0.140,0.040
5044,0.120,0.040
5045,0.160,0.060
5046,0.170,0.045
5047,0.170,0.105
5048,0.155,0.070
5049,0.180,0.075
5050,0.170,0.020
5051,0.180,-0.095
5052,0.110,0.000
5053,0.160,-0.005
5054,0.165,-0.100
5055,0.155,-0.055
5056,0.145,0.010
5057,0.160,-0.095
5058,0.195,-0.075
5059,0.155,-0.040
5060,0.175,-0.025
5061,0.165,-0.030
5062,0.160,-0.020
5063,0.140,-0.070
5064,0.120,-0.020
5065,0.095,-0.005
5066,0.095,0.045
5067,0.105,0.070
5068,0.140,0.090
5069,0.155,0.110
5070,0.155,0.095
5071,0.170,0.090
5072,0.150,0.045
5073,0.100,-0.025
5074,0.050,-0.010
5075,0.060,-0.075
5076,0.125,-0.100
5077,0.105,-0.160
5078,0.165,-0.210
5079,0.135,-0.240
5080,0.135,-0.190
5081,0.125,-0.250
5082,0.155,-0.260
5083,0.130,-0.250
5084,0.145,-0.180
5085,0.150,-0.215
5086,0.165,-0.270
5087,0.155,-0.190
5088,0.200,0.230
5089,0.265,0.605
5090,0.365,0.685
5091,0.425,-0.030
5092,0.375,-0.805
5093,0.030,-0.750
5094,-0.215,-0.435
5095,-0.065,-0.215
5096,0.080,-0.150
5097,0.100,-0.185
5098,0.100,-0.160
5099,0.120,-0.145
5100,0.120,-0.140
5101,0.085,-0.090
5102,0.115,-0.115
5103,0.105,-0.115
5104,0.095,-0.120
5105,0.120,-0.125
5106,0.115,-0.130
5107,0.105,-0.120
5108,0.115,-0.090
5109,0.125,-0.125
5110,0.100,-0.145
5111,0.105,-0.145
5112,0.105,-0.145
5113,0.130,-0.120
5114,0.125,-0.145
5115,0.155,-0.125
5116,0.075,-0.140
5117,0.090,-0.155
5118,0.075,-0.125
5119,0.110,-0.105
5120,0.135,-0.080
5121,0.115,-0.060
5122,0.100,-0.045
5123,0.135,-0.040
5124,0.085,-0.050
5125,0.115,-0.040
5126,0.110,-0.050
5127,0.105,0.000
5128,0.090,0.000
5129,0.090,-0.020
5130,0.105,-0.010
5131,0.090,-0.020
5132,0.120,-0.010
5133,0.050,0.000
5134,0.055,0.025
5135,0.065,-0.005
5136,0.030,-0.025
5137,0.015,0.005
5138,0.095,-0.010
5139,0.060,-0.015
5140,0.075,-0.020
5141,0.095,0.020
5142,0.070,0.065
5143,0.110,0.035
5144,0.095,0.065
5145,0.110,0.005
5146,0.060,-0.080
5147,0.020,-0.165
5148,-0.015,-0.120
5149,0.015,-0.110
5150,0.015,-0.165
5151,0.035,-0.200
5152,0.065,-0.245
5153,0.030,-0.225
5154,0.010,-0.195
5155,0.000,-0.225
5156,0.005,-0.190
5157,0.015,-0.210
5158,0.010,-0.210
5159,-0.005,-0.180
5160,-0.010,-0.195
5161,0.015,-0.075
5162,0.025,0.345
5163,0.100,0.710
5164,0.200,0.650
5165,0.320,-0.360
5166,0.320,-0.950
5167,-0.080,-0.830
5168,-0.285,-0.505
5169,-0.180,-0.295
5170,-0.050,-0.235
5171,0.025,-0.215
5172,0.025,-0.240
5173,0.045,-0.235
5174,0.015,-0.225
5175,0.045,-0.240
5176,0.025,-0.225
5177,0.050,-0.245
5178,0.035,-0.225
5179,0.050,-0.250
5180,0.060,-0.285
5181,-0.010,-0.240
5182,0.030,-0.250
5183,0.005,-0.200
5184,0.045,-0.205
5185,0.045,-0.190
5186,0.025,-0.185
5187,0.030,-0.120
5188,0.000,-0.100
5189,0.005,-0.120
5190,0.005,-0.100
5191,0.055,-0.075
5192,0.000,-0.035
5193,0.020,-0.030
5194,0.040,-0.010
5195,0.030,0.030
5196,0.060,0.030
5197,0.060,0.010
5198,0.075,-0.025
5199,0.115,-0.055
5200,0.135,-0.040
5201,0.150,-0.090
5202,0.125,-0.080
5203,0.090,-0.065
5204,0.140,-0.055
5205,0.085,-0.035
5206,0.090,-0.035
5207,0.075,-0.005
5208,0.090,-0.040
5209,0.085,0.000
5210,0.075,-0.010
5211,0.095,-0.015
5212,0.100,-0.020
5213,0.105,0.000
5214,0.105,0.065
5215,0.130,0.095
5216,0.140,0.095
5217,0.160,0.100
5218,0.160,0.090
5219,0.120,0.000
5220,0.120,-0.075
5221,0.070,-0.060
5222,0.060,-0.070
5223,0.085,-0.110
5224,0.100,-0.135
5225,0.100,-0.175
5226,0.145,-0.210
5227,0.065,-0.255
5228,0.060,-0.215
5229,0.100,-0.175
5230,0.085,-0.150
5231,0.070,-0.175
5232,0.070,-0.175
5233,0.085,-0.180
5234,0.085,-0.145
5235,0.110,0.210
5236,0.180,0.655
5237,0.285,0.735
5238,0.395,-0.110
5239,0.335,-0.840
5240,0.000,-0.795
5241,-0.205,-0.515
5242,-0.135,-0.335
5243,-0.030,-0.225
5244,0.080,-0.200
5245,0.095,-0.235
5246,0.100,-0.205
5247,0.105,-0.200
5248,0.130,-0.220
5249,0.060,-0.220
5250,0.095,-0.200
5251,0.075,-0.230
5252,0.090,-0.220
5253,0.080,-0.180
5254,0.095,-0.155
5255,0.105,-0.150
5256,0.065,-0.125
5257,0.050,-0.130
5258,0.070,-0.110
5259,0.065,-0.140
5260,0.085,-0.105
5261,0.065,-0.110
5262,0.065,-0.120
5263,0.060,-0.085
5264,0.050,-0.065
5265,0.050,-0.080
5266,0.060,-0.075
5267,0.045,-0.005
5268,0.030,0.030
5269,0.075,0.010
5270,0.065,0.030
5271,0.100,0.000
5272,0.085,-0.020
5273,0.095,-0.015
5274,0.130,-0.075
5275,0.060,-0.070
5276,0.090,-0.055
5277,0.145,-0.040
5278,0.150,-0.060
5279,0.165,-0.080
5280,0.150,-0.015
5281,0.155,-0.060
5282,0.160,-0.105
5283,0.005,-0.105
5284,0.045,-0.120
5285,0.060,-0.110
5286,0.060,-0.130
5287,0.065,-0.090
5288,0.075,-0.155
5289,0.065,-0.150
5290,0.060,-0.245
5291,0.040,-0.030
5292,0.105,0.430
5293,0.220,0.595
5294,0.290,0.230
5295,0.340,-0.665
5296,0.035,-0.795
5297,-0.185,-0.510
5298,-0.145,-0.255
5299,-0.010,-0.190
5300,0.050,-0.215
5301,0.080,-0.175
5302,0.035,-0.205
5303,0.050,-0.225
5304,0.050,-0.210
5305,0.045,-0.215
5306,0.060,-0.185
5307,0.085,-0.220
5308,0.080,-0.205
5309,0.090,-0.185
5310,0.050,-0.200
5311,0.060,-0.180
5312,0.065,-0.195
5313,0.040,-0.220
5314,0.035,-0.215
5315,0.025,-0.175
5316,0.055,-0.150
5317,0.060,-0.130
5318,0.025,-0.100
5319,0.025,-0.140
5320,0.050,-0.120
5321,0.050,-0.085
5322,0.030,-0.065
5323,0.050,-0.050
5324,0.070,-0.060
5325,0.100,-0.080
5326,0.060,-0.105
5327,0.075,-0.135
5328,0.080,-0.160
5329,0.085,-0.150
5330,0.090,-0.100
5331,0.080,-0.090
5332,0.100,-0.125
5333,0.095,-0.120
5334,0.065,-0.110
5335,0.065,-0.080
5336,0.070,-0.115
5337,0.045,-0.110
5338,0.055,-0.070
5339,0.075,-0.110
5340,0.075,-0.105
5341,0.115,-0.120
5342,0.035,-0.130
5343,0.090,-0.135
5344,0.070,-0.130
5345,0.060,-0.135
5346,0.050,-0.135
5347,0.070,-0.155
5348,0.035,-0.170
5349,0.045,-0.150
5350,0.045,-0.140
5351,0.050,-0.160
5352,0.095,-0.175
5353,0.045,-0.170
5354,0.060,-0.145
5355,0.060,-0.115
5356,0.055,-0.075
5357,0.080,-0.010
5358,0.090,-0.020
5359,0.125,-0.005
5360,0.100,0.005
5361,0.090,-0.045
5362,0.085,-0.140
5363,0.025,-0.190
5364,0.015,-0.155
5365,0.030,-0.180
5366,0.055,-0.225
5367,0.055,-0.240
5368,0.040,-0.260
5369,0.055,-0.260
5370,0.010,-0.255
5371,0.030,-0.250
5372,0.015,-0.245
5373,0.015,-0.250
5374,0.045,-0.255
5375,0.005,-0.265
5376,0.040,0.060
5377,0.070,0.520
5378,0.185,0.725
5379,0.300,0.265
5380,0.385,-0.775
5381,0.135,-1.005
5382,-0.235,-0.790
5383,-0.300,-0.525
5384,-0.145,-0.315
5385,-0.025,-0.285
5386,-0.015,-0.265
5387,0.015,-0.270
5388,0.015,-0.305
5389,0.020,-0.285
5390,0.005,-0.295
5391,0.050,-0.265
5392,0.000,-0.270
5393,0.000,-0.285
5394,0.030,-0.285
5395,0.005,-0.260
5396,0.010,-0.255
5397,-0.025,-0.255
5398,0.000,-0.205
5399,0.025,-0.220
5400,0.000,-0.185
5401,0.000,-0.155
5402,0.020,-0.170
5403,0.040,-0.130
5404,0.005,-0.130
5405,0.000,-0.105
5406,-0.010,-0.070
5407,-0.010,-0.065
5408,-0.010,-0.060
5409,0.000,-0.045
5410,0.000,-0.050
5411,0.000,-0.030
5412,0.010,-0.030
5413,0.040,-0.060
5414,0.040,-0.095
5415,0.065,-0.115
5416,0.055,-0.100
5417,0.055,-0.145
5418,0.020,-0.135
5419,0.055,-0.135
5420,0.040,-0.120
5421,0.055,-0.130
5422,0.035,-0.095
5423,0.025,-0.105
5424,0.035,-0.150
5425,0.005,-0.095
5426,0.030,-0.095
5427,0.035,-0.085
5428,0.050,-0.145
5429,0.005,-0.070
5430,0.040,-0.025
5431,0.070,0.000
5432,0.070,-0.030
5433,0.070,-0.015
5434,0.075,-0.005
5435,0.065,-0.085
5436,0.000,-0.160
5437,-0.005,-0.175
5438,0.000,-0.190
5439,-0.010,-0.220
5440,0.010,-0.230
5441,0.055,-0.255
5442,0.050,-0.295
5443,0.000,-0.315
5444,0.030,-0.290
5445,0.075,-0.300
5446,0.030,-0.285
5447,0.035,-0.330
5448,0.010,-0.320
5449,0.005,-0.295
5450,0.090,-0.300
5451,0.080,0.030
5452,0.090,0.490
5453,0.210,0.680
5454,0.285,0.175
5455,0.315,-0.845
5456,0.010,-0.925
5457,-0.250,-0.665
5458,-0.205,-0.390
5459,-0.030,-0.285
5460,0.015,-0.320
5461,0.050,-0.300
5462,0.060,-0.325
5463,0.050,-0.295
5464,0.035,-0.335
5465,0.055,-0.315
5466,0.030,-0.290
5467,0.025,-0.265
5468,0.060,-0.270
5469,0.025,-0.295
5470,0.020,-0.300
5471,0.030,-0.245
5472,0.020,-0.195
5473,0.035,-0.195
5474,0.030,-0.220
5475,0.045,-0.200
5476,0.030,-0.155
5477,0.050,-0.180
5478,0.060,-0.180
5479,0.035,-0.165
5480,0.050,-0.160
5481,0.055,-0.205
5482,0.065,-0.190
5483,0.085,-0.145
5484,0.080,-0.130
5485,0.050,-0.125
5486,0.080,-0.135
5487,0.085,-0.160
5488,0.095,-0.165
5489,0.085,-0.170
5490,0.090,-0.165
5491,0.095,-0.185
5492,0.080,-0.165
5493,0.070,-0.165
5494,0.065,-0.155
5495,0.085,-0.130
5496,0.065,-0.130
5497,0.105,-0.125
5498,0.090,-0.130
5499,0.055,-0.150
5500,0.075,-0.145
5501,0.055,-0.110
5502,0.070,-0.085
5503,0.065,-0.060
5504,0.085,-0.020
5505,0.120,-0.030
5506,0.070,-0.060
5507,0.095,-0.005
5508,0.095,-0.075
5509,0.055,-0.160
5510,0.065,-0.210
5511,0.000,-0.200
5512,0.035,-0.205
5513,0.040,-0.230
5514,0.060,-0.245
5515,0.065,-0.285
5516,0.035,-0.350
5517,0.045,-0.325
5518,0.060,-0.345
5519,0.070,-0.325
5520,0.005,-0.320
5521,0.030,-0.305
5522,0.030,-0.330
5523,0.070,-0.335
5524,0.045,-0.055
5525,0.055,0.430
5526,0.145,0.655
5527,0.275,0.310
5528,0.385,-0.755
5529,0.165,-1.065
5530,-0.230,-0.865
5531,-0.290,-0.545
5532,-0.120,-0.365
5533,-0.015,-0.385
5534,0.005,-0.395
5535,0.000,-0.330
5536,0.015,-0.335
5537,-0.010,-0.310
5538,0.000,-0.340
5539,0.010,-0.340
5540,-0.015,-0.350
5541,-0.025,-0.340
5542,0.000,-0.335
5543,-0.005,-0.330
5544,-0.035,-0.305
5545,-0.015,-0.315
5546,-0.030,-0.295
5547,0.000,-0.275
5548,-0.035,-0.260
5549,-0.010,-0.235
5550,0.000,-0.235
5551,0.010,-0.205
5552,0.000,-0.190
5553,0.005,-0.200
5554,-0.035,-0.155
5555,0.000,-0.105
5556,-0.020,-0.110
5557,0.000,-0.090
5558,-0.010,-0.085
5559,0.040,-0.120
5560,0.035,-0.145
5561,0.030,-0.175
5562,0.030,-0.185
5563,0.030,-0.210
5564,0.055,-0.220
5565,0.020,-0.190
5566,0.030,-0.185
5567,0.050,-0.220
5568,0.040,-0.160
5569,0.055,-0.160
5570,0.040,-0.185
5571,0.040,-0.180
5572,0.010,-0.165
5573,0.035,-0.145
5574,0.105,-0.165
5575,0.105,-0.245
5576,0.125,-0.240
5577,0.100,-0.190
5578,0.070,-0.225
5579,0.020,-0.275
5580,0.025,-0.260
5581,0.020,-0.285
5582,-0.005,-0.265
5583,0.015,-0.275
5584,0.005,-0.270
5585,0.045,-0.285
5586,0.000,-0.305
5587,0.010,-0.020
5588,0.105,0.445
5589,0.215,0.590
5590,0.305,0.100
5591,0.410,-0.860
5592,0.065,-0.905
5593,-0.235,-0.640
5594,-0.265,-0.355
5595,-0.050,-0.305
5596,-0.035,-0.310
5597,0.045,-0.275
5598,0.010,-0.285
5599,0.030,-0.275
5600,0.065,-0.275
5601,0.015,-0.270
5602,0.070,-0.285
5603,0.055,-0.295
5604,0.030,-0.270
5605,0.005,-0.295
5606,0.065,-0.355
5607,0.045,-0.280
5608,-0.010,-0.270
5609,0.050,-0.335
5610,-0.010,-0.250
5611,0.000,-0.180
5612,0.030,-0.255
5613,-0.015,-0.285
5614,-0.005,-0.260
5615,0.020,-0.295
5616,-0.060,-0.160
5617,0.035,-0.115
5618,0.035,-0.160
5619,0.055,-0.175
5620,0.000,-0.155
5621,0.040,-0.210
5622,0.020,-0.185
5623,0.050,-0.170
5624,0.075,-0.195
5625,0.100,-0.195
5626,0.055,-0.185
5627,0.080,-0.220
5628,0.085,-0.185
5629,0.060,-0.180
5630,0.045,-0.160
5631,0.055,-0.175
5632,0.080,-0.170
5633,0.075,-0.155
5634,0.030,-0.195
5635,0.050,-0.180
5636,0.055,-0.180
5637,0.035,-0.180
5638,0.020,-0.185
5639,0.040,-0.200
5640,0.005,-0.205
5641,0.035,-0.200
5642,0.060,-0.220
5643,0.030,-0.245
5644,0.025,-0.255
5645,0.030,-0.245
5646,0.035,-0.215
5647,0.045,-0.230
5648,0.010,-0.180
5649,0.015,-0.120
5650,0.060,-0.085
5651,0.055,-0.050
5652,0.100,-0.070
5653,0.060,-0.080
5654,0.005,-0.185
5655,0.000,-0.220
5656,-0.010,-0.230
5657,-0.035,-0.240
5658,0.000,-0.300
5659,0.020,-0.305
5660,0.030,-0.345
5661,0.000,-0.365
5662,-0.010,-0.340
5663,-0.020,-0.330
5664,-0.020,-0.345
5665,0.000,-0.375
5666,0.000,-0.360
5667,-0.045,-0.385
5668,0.000,-0.260
5669,0.040,0.200
5670,0.110,0.610
5671,0.245,0.485
5672,0.340,-0.565
5673,0.215,-1.085
5674,-0.225,-0.915
5675,-0.350,-0.620
5676,-0.195,-0.425
5677,-0.015,-0.400
5678,-0.020,-0.390
5679,-0.005,-0.385
5680,0.000,-0.390
5681,-0.010,-0.385
5682,-0.005,-0.400
5683,0.000,-0.385
5684,0.000,-0.395
5685,0.025,-0.405
5686,0.005,-0.395
5687,0.000,-0.380
5688,-0.010,-0.380
5689,-0.015,-0.375
5690,0.000,-0.335
5691,-0.010,-0.325
5692,0.000,-0.300
5693,0.000,-0.285
5694,0.000,-0.255
5695,-0.025,-0.220
5696,0.000,-0.220
5697,0.000,-0.220
5698,0.005,-0.190
5699,-0.015,-0.140
5700,-0.015,-0.110
5701,0.000,-0.135
5702,0.000,-0.075
5703,0.050,-0.145
5704,0.015,-0.175
5705,0.010,-0.195
5706,0.005,-0.195
5707,0.030,-0.235
5708,0.010,-0.265
5709,0.020,-0.295
5710,0.030,-0.285
5711,0.005,-0.245
5712,0.025,-0.285
5713,-0.010,-0.265
5714,0.030,-0.245
5715,0.030,-0.230
5716,0.005,-0.255
5717,0.015,-0.250
5718,0.025,-0.255
5719,0.020,-0.270
5720,0.015,-0.260
5721,0.000,-0.165
5722,0.020,-0.120
5723,0.065,-0.105
5724,0.065,-0.070
5725,0.085,-0.080
5726,0.100,-0.080
5727,0.025,-0.165
5728,0.030,-0.275
5729,-0.015,-0.250
5730,-0.030,-0.235
5731,0.025,-0.300
5732,0.000,-0.340
5733,0.015,-0.395
5734,0.020,-0.360
5735,0.010,-0.405
5736,-0.015,-0.320
5737,-0.010,-0.375
5738,0.020,-0.395
5739,-0.010,-0.305
5740,0.000,-0.385
5741,0.025,-0.380
5742,0.000,-0.120
5743,0.065,0.380
5744,0.145,0.540
5745,0.300,-0.050
5746,0.350,-1.040
5747,0.050,-1.145
5748,-0.275,-0.840
5749,-0.290,-0.565
5750,-0.135,-0.405
5751,-0.005,-0.395
5752,0.000,-0.395
5753,0.005,-0.345
5754,-0.010,-0.375
5755,0.015,-0.345
5756,0.000,-0.370
5757,0.030,-0.380
5758,-0.025,-0.370
5759,0.035,-0.390
5760,-0.030,-0.350
5761,0.000,-0.360
5762,0.000,-0.385
5763,0.010,-0.360
5764,0.000,-0.325
5765,0.000,-0.315
5766,0.010,-0.335
5767,-0.040,-0.300
5768,-0.005,-0.280
5769,0.005,-0.300
5770,-0.005,-0.270
5771,-0.015,-0.285
5772,-0.020,-0.250
5773,0.000,-0.220
5774,0.000,-0.205
5775,0.005,-0.180
5776,0.040,-0.175
5777,0.035,-0.170
5778,0.055,-0.230
5779,0.050,-0.265
5780,0.055,-0.285
5781,0.065,-0.265
5782,0.095,-0.260
5783,0.045,-0.310
5784,0.070,-0.265
5785,0.080,-0.265
5786,0.090,-0.245
5787,0.060,-0.230
5788,0.070,-0.235
5789,0.105,-0.265
5790,0.105,-0.275
5791,0.075,-0.220
5792,0.050,-0.225
5793,0.055,-0.215
5794,0.045,-0.185
5795,0.055,-0.130
5796,0.090,-0.115
5797,0.100,-0.110
5798,0.100,-0.095
5799,0.100,-0.115
5800,0.060,-0.240
5801,0.065,-0.270
5802,0.000,-0.240
5803,0.025,-0.235
5804,0.050,-0.325
5805,0.065,-0.380
5806,0.055,-0.350
5807,0.030,-0.365
5808,0.055,-0.415
5809,0.040,-0.395
5810,0.015,-0.495
5811,0.020,-0.370
5812,0.095,-0.345
5813,0.100,-0.355
5814,0.025,-0.395
5815,0.070,-0.155
5816,0.055,0.365
5817,0.190,0.600
5818,0.275,0.290
5819,0.340,-0.775
5820,0.050,-1.040
5821,-0.245,-0.805
5822,-0.245,-0.550
5823,-0.070,-0.460
5824,0.005,-0.450
5825,0.075,-0.440
5826,0.025,-0.420
5827,0.045,-0.405
5828,0.045,-0.395
5829,0.065,-0.415
5830,0.025,-0.390
5831,0.005,-0.395
5832,0.010,-0.405
5833,0.035,-0.395
5834,0.020,-0.380
5835,0.000,-0.325
5836,-0.015,-0.340
5837,0.000,-0.300
5838,0.015,-0.285
5839,0.030,-0.245
5840,0.015,-0.245
5841,0.045,-0.260
5842,0.010,-0.220
5843,0.020,-0.215
5844,0.050,-0.215
5845,0.055,-0.195
5846,0.055,-0.190
5847,0.035,-0.145
5848,0.050,-0.150
5849,0.070,-0.160
5850,0.080,-0.195
5851,0.060,-0.280
5852,0.040,-0.250
5853,0.035,-0.270
5854,0.035,-0.250
5855,0.035,-0.285
5856,0.045,-0.305
5857,0.010,-0.280
5858,0.045,-0.255
5859,0.050,-0.245
5860,0.065,-0.270
5861,0.040,-0.240
5862,0.100,-0.255
5863,0.090,-0.260
5864,0.085,-0.310
5865,0.065,-0.325
5866,0.035,-0.255
5867,0.115,-0.215
5868,0.065,-0.200
5869,0.075,-0.150
5870,0.115,-0.215
5871,0.085,-0.170
5872,0.090,-0.180
5873,0.020,-0.330
5874,-0.005,-0.370
5875,-0.045,-0.305
5876,0.000,-0.375
5877,-0.050,-0.430
5878,-0.005,-0.455
5879,0.000,-0.475
5880,-0.030,-0.460
5881,0.005,-0.440
5882,-0.015,-0.460
5883,-0.040,-0.395
5884,-0.035,-0.445
5885,-0.005,-0.435
5886,-0.035,-0.455
5887,-0.025,-0.430
5888,-0.030,-0.260
5889,0.005,0.260
5890,0.145,0.550
5891,0.245,0.140
5892,0.305,-0.940
5893,0.025,-1.265
5894,-0.320,-0.980
5895,-0.375,-0.645
5896,-0.280,-0.500
5897,-0.085,-0.435
5898,-0.060,-0.450
5899,-0.090,-0.445
5900,-0.080,-0.425
5901,-0.060,-0.495
5902,-0.080,-0.440
5903,-0.055,-0.380
5904,-0.065,-0.435
5905,-0.065,-0.465
5906,-0.055,-0.425
5907,-0.045,-0.455
5908,-0.145,-0.425
5909,-0.045,-0.410
5910,-0.085,-0.320
5911,-0.050,-0.390
5912,-0.080,-0.345
5913,-0.090,-0.400
5914,-0.105,-0.260
5915,-0.090,-0.235
5916,-0.095,-0.240
5917,-0.095,-0.295
5918,-0.095,-0.185
5919,-0.080,-0.160
5920,-0.100,-0.180
5921,-0.090,-0.105
5922,-0.115,-0.065
5923,-0.025,-0.225
5924,0.000,-0.265
5925,-0.100,-0.210
5926,-0.020,-0.245
5927,-0.040,-0.360
5928,-0.025,-0.310
5929,-0.035,-0.345
5930,-0.010,-0.345
5931,-0.055,-0.285
5932,-0.060,-0.320
5933,-0.080,-0.275
5934,-0.035,-0.310
5935,-0.065,-0.285
5936,-0.105,-0.335
5937,-0.075,-0.295
5938,-0.110,-0.175
5939,-0.050,-0.230
5940,-0.030,-0.240
5941,-0.095,-0.175
5942,-0.055,-0.220
5943,-0.055,-0.260
5944,-0.035,-0.175
5945,-0.090,-0.280
5946,-0.105,-0.400
5947,-0.130,-0.470
5948,-0.210,-0.330
5949,-0.185,-0.390
5950,-0.140,-0.380
5951,-0.080,-0.400
5952,-0.330,-0.395
5953,-0.130,-0.415
5954,-0.140,-0.515
5955,-0.130,-0.485
5956,-0.250,-0.240
5957,-0.175,0.230
5958,-0.030,0.605
5959,0.085,0.455
5960,0.165,-0.640
5961,-0.040,-1.105
5962,-0.440,-0.930
5963,-0.480,-0.675
5964,-0.385,-0.540
5965,-0.245,-0.380
5966,-0.210,-0.400
5967,-0.180,-0.430
5968,-0.265,-0.415
5969,-0.165,-0.450
5970,-0.255,-0.520
5971,-0.255,-0.400
5972,-0.240,-0.355
5973,-0.280,-0.395
5974,-0.170,-0.445
5975,-0.275,-0.445
5976,-0.255,-0.375
5977,-0.225,-0.365
5978,-0.260,-0.390
5979,-0.240,-0.395
5980,-0.305,-0.400
5981,-0.225,-0.325
5982,-0.285,-0.260
5983,-0.260,-0.270
5984,-0.260,-0.330
5985,-0.230,-0.250
5986,-0.270,-0.205
5987,-0.220,-0.215
5988,-0.280,-0.170
5989,-0.230,-0.175
5990,-0.220,-0.175
5991,-0.235,-0.145
5992,-0.260,-0.210
5993,-0.195,-0.280
5994,-0.165,-0.220
5995,-0.170,-0.290
5996,-0.200,-0.235
5997,-0.215,-0.260
5998,-0.210,-0.205
5999,-0.170,-0.205
6000,-0.185,-0.205
6001,-0.240,-0.220
6002,-0.185,-0.250
6003,-0.200,-0.165
6004,-0.225,-0.170
6005,-0.185,-0.205
6006,-0.240,-0.220
6007,-0.220,-0.220
6008,-0.230,-0.230
6009,-0.240,-0.255
6010,-0.210,-0.285
6011,-0.235,-0.245
6012,-0.220,-0.290
6013,-0.215,-0.215
6014,-0.240,-0.145
6015,-0.230,-0.090
6016,-0.160,-0.055
6017,-0.185,-0.055
6018,-0.230,-0.095
6019,-0.245,-0.200
6020,-0.230,-0.230
6021,-0.320,-0.190
6022,-0.275,-0.175
6023,-0.215,-0.245
6024,-0.255,-0.290
6025,-0.210,-0.310
6026,-0.215,-0.340
6027,-0.215,-0.335
6028,-0.245,-0.335
6029,-0.205,-0.345
6030,-0.260,-0.310
6031,-0.205,-0.355
6032,-0.215,-0.410
6033,-0.235,-0.370
6034,-0.235,-0.110
6035,-0.195,0.430
6036,-0.045,0.760
6037,0.045,0.515
6038,0.125,-0.725
6039,-0.135,-1.085
6040,-0.495,-0.825
6041,-0.575,-0.615
6042,-0.390,-0.425
6043,-0.260,-0.390
6044,-0.230,-0.400
6045,-0.290,-0.375
6046,-0.225,-0.405
6047,-0.280,-0.395
6048,-0.270,-0.370
6049,-0.225,-0.370
6050,-0.260,-0.390
6051,-0.260,-0.405
6052,-0.265,-0.390
6053,-0.285,-0.390
6054,-0.230,-0.335
6055,-0.270,-0.320
6056,-0.230,-0.350
6057,-0.260,-0.280
6058,-0.290,-0.310
6059,-0.305,-0.260
6060,-0.280,-0.200
6061,-0.275,-0.200
6062,-0.255,-0.200
6063,-0.275,-0.140
6064,-0.235,-0.150
6065,-0.270,-0.140
6066,-0.245,-0.105
6067,-0.265,-0.110
6068,-0.230,-0.120
6069,-0.230,-0.110
6070,-0.195,-0.195
6071,-0.170,-0.215
6072,-0.250,-0.220
6073,-0.205,-0.230
6074,-0.180,-0.280
6075,-0.220,-0.300
6076,-0.225,-0.205
6077,-0.225,-0.235
6078,-0.185,-0.235
6079,-0.215,-0.220
6080,-0.175,-0.255
6081,-0.195,-0.215
6082,-0.240,-0.210
6083,-0.210,-0.200
6084,-0.170,-0.225
6085,-0.180,-0.215
6086,-0.200,-0.160
6087,-0.185,-0.100
6088,-0.160,-0.025
6089,-0.125,-0.085
6090,-0.140,-0.090
6091,-0.150,-0.070
6092,-0.145,-0.155
6093,-0.210,-0.250
6094,-0.235,-0.215
6095,-0.245,-0.195
6096,-0.205,-0.240
6097,-0.215,-0.290
6098,-0.165,-0.345
6099,-0.210,-0.380
6100,-0.220,-0.350
6101,-0.230,-0.345
6102,-0.205,-0.320
6103,-0.230,-0.350
6104,-0.170,-0.340
6105,-0.205,-0.345
6106,-0.185,-0.370
6107,-0.190,-0.325
6108,-0.125,0.100
6109,-0.115,0.605
6110,0.025,0.660
6111,0.140,-0.225
6112,0.200,-1.090
6113,-0.200,-1.020
6114,-0.440,-0.740
6115,-0.450,-0.460
6116,-0.245,-0.360
6117,-0.150,-0.355
6118,-0.155,-0.335
6119,-0.130,-0.345
6120,-0.120,-0.370
6121,-0.165,-0.330
6122,-0.140,-0.330
6123,-0.165,-0.355
6124,-0.130,-0.320
6125,-0.165,-0.310
6126,-0.140,-0.340
6127,-0.145,-0.310
6128,-0.190,-0.325
6129,-0.155,-0.295
6130,-0.165,-0.260
6131,-0.140,-0.280
6132,-0.170,-0.240
6133,-0.160,-0.230
6134,-0.170,-0.180
6135,-0.165,-0.215
6136,-0.175,-0.215
6137,-0.175,-0.175
6138,-0.190,-0.170
6139,-0.170,-0.145
6140,-0.160,-0.130
6141,-0.145,-0.130
6142,-0.155,-0.090
6143,-0.090,-0.135
6144,-0.105,-0.205
6145,-0.120,-0.195
6146,-0.120,-0.210
6147,-0.090,-0.255
6148,-0.090,-0.255
6149,-0.100,-0.215
6150,-0.100,-0.180
6151,-0.090,-0.185
6152,-0.120,-0.180
6153,-0.055,-0.165
6154,-0.155,-0.165
6155,-0.120,-0.155
6156,-0.090,-0.165
6157,-0.100,-0.160
6158,-0.100,-0.145
6159,-0.085,-0.145
6160,-0.110,-0.105
6161,-0.060,-0.075
6162,-0.100,-0.075
6163,-0.075,-0.015
6164,0.000,-0.015
6165,-0.105,-0.065
6166,-0.115,-0.155
6167,-0.125,-0.195
6168,-0.135,-0.170
6169,-0.190,-0.190
6170,-0.130,-0.240
6171,-0.095,-0.250
6172,-0.095,-0.305
6173,-0.120,-0.315
6174,-0.100,-0.335
6175,-0.125,-0.345
6176,-0.125,-0.340
6177,-0.140,-0.325
6178,-0.120,-0.340
6179,-0.110,-0.345
6180,-0.145,-0.295
6181,-0.110,0.050
6182,-0.015,0.590
6183,0.050,0.765
6184,0.185,0.020
6185,0.005,-0.925
6186,-0.300,-0.915
6187,-0.460,-0.580
6188,-0.315,-0.395
6189,-0.180,-0.360
6190,-0.100,-0.375
6191,-0.125,-0.370
6192,-0.115,-0.335
6193,-0.115,-0.270
6194,-0.110,-0.305
6195,-0.075,-0.320
6196,-0.055,-0.280
6197,-0.135,-0.300
6198,-0.080,-0.250
6199,-0.080,-0.250
6200,-0.120,-0.250
6201,-0.090,-0.210
6202,-0.070,-0.220
6203,-0.090,-0.180
6204,-0.035,-0.175
6205,-0.095,-0.160
6206,-0.105,-0.160
6207,-0.050,-0.150
6208,-0.105,-0.085
6209,-0.095,-0.070
6210,-0.070,-0.070
6211,-0.065,-0.005
6212,-0.040,0.000
6213,-0.055,-0.020
6214,0.005,-0.050
6215,-0.005,-0.070
6216,-0.055,-0.055
6217,-0.030,-0.125
6218,-0.025,-0.155
6219,-0.060,-0.205
6220,-0.045,-0.230
6221,-0.015,-0.225
6222,-0.030,-0.165
6223,-0.040,-0.160
6224,-0.035,-0.190
6225,-0.025,-0.180
6226,-0.010,-0.150
6227,-0.075,-0.190
6228,-0.030,-0.145
6229,0.000,-0.180
6230,-0.005,-0.190
6231,-0.030,-0.155
6232,0.000,-0.180
6233,-0.090,-0.105
6234,0.035,-0.145
6235,0.035,-0.170
6236,0.025,-0.205
6237,0.050,-0.235
6238,0.000,-0.225
6239,-0.020,-0.250
6240,-0.045,-0.305
6241,-0.055,-0.305
6242,-0.075,-0.245
6243,-0.040,-0.245
6244,-0.050,-0.305
6245,-0.045,-0.295
6246,-0.040,-0.265
6247,-0.015,0.040
6248,0.035,0.600
6249,0.120,0.685
6250,0.275,-0.075
6251,0.310,-1.020
6252,-0.070,-0.945
6253,-0.335,-0.650
6254,-0.275,-0.360
6255,-0.140,-0.265
6256,-0.020,-0.310
6257,-0.055,-0.295
6258,-0.055,-0.280
6259,-0.035,-0.250
6260,-0.040,-0.235
6261,-0.060,-0.260
6262,-0.005,-0.255
6263,-0.070,-0.290
6264,-0.065,-0.265
6265,-0.030,-0.290
6266,-0.030,-0.255
6267,-0.045,-0.265
6268,-0.050,-0.235
6269,-0.040,-0.230
6270,-0.055,-0.225
6271,-0.030,-0.180
6272,-0.050,-0.120
6273,-0.080,-0.145
6274,-0.020,-0.125
6275,-0.055,-0.150
6276,-0.055,-0.105
6277,-0.035,-0.080
6278,-0.030,-0.045
6279,-0.025,-0.040
6280,-0.015,-0.045
6281,0.000,-0.075
6282,0.025,-0.125
6283,-0.010,-0.130
6284,-0.005,-0.145
6285,0.005,-0.180
6286,0.015,-0.170
6287,0.025,-0.155
6288,0.015,-0.160
6289,0.020,-0.170
6290,0.055,-0.145
6291,0.010,-0.110
6292,0.010,-0.170
6293,0.010,-0.145
6294,0.010,-0.130
6295,0.000,-0.130
6296,0.020,-0.095
6297,0.040,-0.145
6298,0.000,-0.120
6299,-0.005,-0.130
6300,0.025,-0.155
6301,0.020,-0.170
6302,-0.020,-0.200
6303,-0.025,-0.165
6304,0.020,-0.215
6305,0.060,-0.290
6306,0.035,-0.205
6307,0.020,-0.205
6308,0.025,-0.245
6309,-0.015,-0.280
6310,0.000,-0.245
6311,-0.025,-0.240
6312,-0.020,-0.280
6313,-0.025,-0.200
6314,0.025,-0.275
6315,-0.045,-0.260
6316,-0.020,-0.145
6317,0.030,0.310
6318,0.070,0.730
6319,0.200,0.690
6320,0.295,-0.360
6321,0.210,-0.975
6322,-0.235,-0.800
6323,-0.370,-0.490
6324,-0.215,-0.275
6325,-0.055,-0.255
6326,-0.020,-0.285
6327,0.005,-0.300
6328,-0.065,-0.275
6329,-0.020,-0.235
6330,0.005,-0.205
6331,0.010,-0.280
6332,-0.035,-0.295
6333,-0.015,-0.275
6334,-0.030,-0.255
6335,-0.015,-0.265
6336,-0.015,-0.295
6337,0.000,-0.220
6338,-0.010,-0.240
6339,0.000,-0.255
6340,0.000,-0.310
6341,0.050,-0.270
6342,0.040,-0.150
6343,0.060,-0.150
6344,0.035,-0.100
6345,0.005,-0.095
6346,-0.005,-0.110
6347,-0.020,-0.085
6348,-0.035,-0.055
6349,0.000,-0.045
6350,0.010,-0.070
6351,0.025,-0.045
6352,0.015,-0.135
6353,0.030,-0.155
6354,0.045,-0.170
6355,0.045,-0.175
6356,0.015,-0.150
6357,0.045,-0.195
6358,-0.015,-0.225
6359,0.005,-0.220
6360,0.025,0.020
6361,0.075,0.465
6362,0.075,0.550
6363,0.325,-0.500
6364,0.310,-0.800
6365,-0.015,-0.570
6366,-0.105,-0.315
6367,-0.105,-0.205
6368,0.000,-0.215
6369,0.040,-0.220
6370,0.030,-0.250
6371,0.025,-0.260
6372,0.050,-0.280
6373,0.035,-0.295
6374,-0.010,-0.265
6375,0.025,-0.275
6376,0.030,-0.245
6377,0.045,-0.240
6378,0.025,-0.210
6379,0.045,-0.200
6380,0.000,-0.150
6381,0.040,-0.115
6382,0.015,-0.065
6383,0.025,-0.065
6384,0.035,-0.005
6385,0.045,0.030
6386,0.050,0.035
6387,0.050,0.065
6388,0.040,0.120
6389,0.065,0.130
6390,0.110,0.130
6391,0.100,0.075
6392,0.125,-0.025
6393,0.135,-0.015
6394,0.190,-0.045
6395,0.130,-0.145
6396,0.095,-0.135
6397,0.060,-0.185
6398,0.070,-0.220
6399,0.055,-0.220
6400,0.045,-0.190
6401,0.090,-0.205
6402,0.050,-0.220
6403,0.065,-0.235
6404,0.045,-0.215
6405,0.060,-0.285
6406,0.040,-0.215
6407,0.055,0.235
6408,0.145,0.690
6409,0.295,0.725
6410,0.380,-0.015
6411,0.400,-0.910
6412,0.020,-0.875
6413,-0.265,-0.625
6414,-0.210,-0.350
6415,-0.045,-0.255
6416,0.000,-0.285
6417,0.025,-0.320
6418,0.055,-0.285
6419,0.030,-0.245
6420,0.045,-0.285
6421,0.050,-0.250
6422,0.060,-0.265
6423,0.055,-0.300
6424,0.075,-0.265
6425,0.030,-0.315
6426,0.000,-0.340
6427,0.080,-0.330
6428,0.100,-0.355
6429,0.055,-0.315
6430,0.065,-0.270
6431,0.090,-0.250
6432,0.055,-0.285
6433,0.005,-0.275
6434,0.000,-0.270
6435,-0.005,-0.235
6436,0.000,-0.165
6437,0.045,-0.155
6438,0.025,-0.100
6439,0.010,-0.070
6440,0.020,-0.095
6441,0.015,-0.145
6442,0.040,-0.160
6443,0.055,-0.165
6444,0.075,-0.205
6445,0.070,-0.210
6446,0.045,-0.175
6447,0.070,-0.260
6448,0.050,-0.175
6449,0.055,0.405
6450,0.120,0.860
6451,0.295,0.280
6452,0.235,-0.755
6453,0.045,-0.875
6454,-0.190,-0.545
6455,-0.180,-0.255
6456,-0.030,-0.235
6457,0.095,-0.290
6458,0.040,-0.265
6459,0.025,-0.250
6460,0.010,-0.265
6461,0.045,-0.300
6462,0.035,-0.310
6463,0.030,-0.280
6464,0.080,-0.295
6465,0.080,-0.265
6466,0.020,-0.265
6467,0.040,-0.245
6468,0.000,-0.205
6469,0.060,-0.170
6470,0.085,-0.120
6471,0.085,-0.090
6472,0.085,-0.085
6473,0.125,-0.015
6474,0.130,-0.020
6475,0.110,-0.005
6476,0.030,-0.020
6477,0.010,0.000
6478,0.045,0.005
6479,0.070,0.010
6480,0.055,-0.005
6481,0.035,-0.075
6482,0.050,-0.090
6483,0.075,-0.160
6484,0.090,-0.175
6485,0.045,-0.160
6486,0.060,-0.175
6487,0.085,-0.180
6488,0.030,-0.185
6489,0.045,-0.210
6490,0.050,-0.015
6491,0.090,0.475
6492,0.170,0.785
6493,0.310,0.430
6494,0.425,-0.615
6495,0.295,-0.920
6496,-0.120,-0.705
6497,-0.230,-0.445
6498,-0.110,-0.280
6499,0.000,-0.280
6500,0.025,-0.300
6501,0.010,-0.265
6502,0.045,-0.285
6503,0.020,-0.305
6504,0.000,-0.275
6505,0.030,-0.260
6506,0.050,-0.290
6507,0.030,-0.300
6508,0.025,-0.320
6509,0.015,-0.305
6510,0.040,-0.330
6511,0.060,-0.335
6512,0.000,-0.305
6513,0.035,-0.280
6514,0.035,-0.315
6515,0.015,-0.305
6516,0.020,-0.285
6517,0.040,-0.235
6518,0.045,-0.200
6519,0.000,-0.155
6520,0.055,-0.120
6521,0.070,-0.065
6522,0.085,-0.060
6523,0.060,-0.075
6524,0.090,-0.065
6525,0.140,-0.115
6526,0.095,-0.125
6527,0.105,-0.115
6528,0.125,-0.150
6529,0.095,-0.150
6530,0.070,-0.130
6531,0.085,-0.145
6532,0.070,-0.140
6533,0.125,-0.145
6534,0.130,-0.190
6535,0.085,-0.180
6536,0.095,-0.160
6537,0.070,-0.185
6538,0.085,-0.195
6539,0.105,-0.195
6540,0.070,-0.180
6541,0.090,-0.195
6542,0.095,-0.190
6543,0.110,-0.210
6544,0.110,-0.235
6545,0.100,-0.215
6546,0.065,-0.220
6547,0.100,-0.220
6548,0.065,-0.235
6549,0.075,-0.200
6550,0.085,-0.200
6551,0.100,-0.245
6552,0.075,-0.220
6553,0.100,-0.205
6554,0.090,-0.220
6555,0.060,-0.200
6556,0.030,-0.245
6557,0.075,-0.195
6558,0.065,-0.125
6559,0.105,-0.095
6560,0.120,-0.125
6561,0.115,-0.145
6562,0.100,-0.130
6563,0.075,-0.260
6564,0.050,-0.295
6565,0.045,-0.310
6566,0.065,-0.305
6567,0.060,-0.280
6568,0.060,-0.335
6569,0.065,-0.300
6570,0.065,-0.310
6571,0.070,-0.285
6572,0.105,-0.305
6573,0.020,-0.325
6574,0.090,-0.345
6575,0.085,-0.050
6576,0.130,0.515
6577,0.220,0.835
6578,0.380,0.480
6579,0.445,-0.700
6580,0.130,-1.020
6581,-0.255,-0.750
6582,-0.230,-0.470
6583,-0.035,-0.370
6584,0.030,-0.350
6585,0.060,-0.370
6586,0.080,-0.360
6587,0.070,-0.370
6588,0.090,-0.370
6589,0.035,-0.355
6590,0.090,-0.335
6591,0.135,-0.340
6592,0.020,-0.350
6593,0.065,-0.345
6594,0.070,-0.335
6595,0.050,-0.285
6596,0.050,-0.265
6597,0.050,-0.265
6598,0.085,-0.250
6599,0.060,-0.195
6600,0.095,-0.170
6601,0.035,-0.155
6602,0.080,-0.130
6603,0.095,-0.110
6604,0.080,-0.095
6605,0.080,-0.085
6606,0.100,-0.075
6607,0.095,-0.075
6608,0.090,0.000
6609,0.085,-0.005
6610,0.095,-0.005
6611,0.105,-0.055
6612,0.140,-0.065
6613,0.085,-0.100
6614,0.130,-0.120
6615,0.090,-0.140
6616,0.100,-0.150
6617,0.110,-0.195
6618,0.085,-0.160
6619,0.095,-0.140
6620,0.105,-0.180
6621,0.080,-0.175
6622,0.100,-0.145
6623,0.110,-0.170
6624,0.075,-0.175
6625,0.085,-0.140
6626,0.115,-0.175
6627,0.115,-0.170
6628,0.125,-0.220
6629,0.070,-0.220
6630,0.075,-0.190
6631,0.110,-0.220
6632,0.100,-0.195
6633,0.125,-0.165
6634,0.060,-0.085
6635,0.135,-0.020
6636,0.160,-0.075
6637,0.150,-0.005
6638,0.175,-0.035
6639,0.150,-0.100
6640,0.080,-0.190
6641,0.050,-0.180
6642,0.050,-0.190
6643,0.100,-0.240
6644,0.075,-0.265
6645,0.110,-0.295
6646,0.105,-0.320
6647,0.085,-0.320
6648,0.055,-0.315
6649,0.065,-0.300
6650,0.080,-0.325
6651,0.085,-0.345
6652,0.055,-0.315
6653,0.065,-0.335
