'sample interval','ECG0','ECG1'
'0.0078125 sec','mV','mV'
0,0.005,-0.240
1,0.010,-0.270
2,0.015,-0.255
3,-0.005,-0.225
4,0.000,-0.275
5,-0.005,-0.295
6,-0.015,-0.335
7,0.000,-0.270
8,0.000,-0.260
9,0.000,-0.240
10,0.000,-0.195
11,0.000,-0.140
12,0.015,-0.085
13,-0.010,-0.120
14,-0.010,-0.165
15,-0.010,-0.155
16,0.020,-0.190
17,0.110,-0.195
18,0.015,-0.105
19,-0.075,-0.080
20,-0.060,-0.125
21,-0.075,-0.080
22,-0.120,-0.020
23,-0.090,0.005
24,-0.065,-0.100
25,-0.020,-0.180
26,-0.020,-0.075
27,0.060,-0.075
28,0.090,-0.170
29,0.350,-0.175
30,0.115,-0.200
31,-0.150,-0.280
32,-0.160,-0.265
33,-0.060,-0.175
34,-0.030,-0.145
35,0.015,-0.095
36,0.020,-0.060
37,-0.050,-0.025
38,-0.050,-0.100
39,0.070,-0.110
40,0.205,0.000
41,-0.095,-0.145
42,-0.155,-0.080
43,-0.145,-0.165
44,-0.160,-0.250
45,0.110,0.010
46,-0.190,-0.075
47,-0.175,-0.220
48,-0.225,-0.095
49,-0.335,-0.260
50,-0.105,-0.170
51,-0.490,-0.080
52,-0.530,-0.075
53,-0.140,0.025
54,-0.255,-0.100
55,-0.475,0.195
56,0.100,0.785
57,0.490,0.770
58,0.180,-0.025
59,0.240,-0.325
60,-0.270,-0.220
61,-0.835,-0.565
62,-0.465,-0.420
63,0.035,-0.100
64,0.040,-0.270
65,0.345,-0.300
66,0.090,-0.345
67,0.105,-0.155
68,0.825,-0.195
69,0.620,-0.350
70,-0.155,-0.015
71,0.155,-0.095
72,0.120,-0.100
73,-0.065,0.155
74,0.550,-0.235
75,0.040,-0.110
76,-0.095,0.090
77,-0.080,-0.225
78,0.035,-0.015
79,-0.320,-0.135
80,-0.295,0.145
81,-0.465,0.340
82,-0.555,0.235
83,0.045,0.000
84,-0.170,0.295
85,-0.285,0.310
86,-0.280,0.130
87,-0.210,0.605
88,-0.295,0.095
89,-0.305,-0.005
90,0.095,0.150
91,-0.055,-0.075
92,-0.175,-0.060
93,0.025,0.220
94,0.225,0.425
95,-0.035,-0.110
96,-0.070,0.065
97,0.060,0.155
98,0.235,-0.040
99,0.165,0.385
100,0.105,0.535
101,0.215,0.775
102,0.450,0.870
103,0.130,-0.080
104,-0.020,-0.340
105,-0.420,0.165
106,-0.310,0.260
107,-0.260,0.665
108,-0.025,0.620
109,-0.115,0.670
110,0.100,0.515
111,0.090,0.500
112,-0.110,0.775
113,-0.095,0.615
114,0.090,0.535
115,-0.015,0.395
116,-0.305,0.470
117,-0.260,0.405
118,-0.225,0.340
119,-0.100,0.185
120,-0.060,0.300
121,-0.405,0.520
122,-0.335,0.750
123,0.000,0.235
124,-0.270,0.080
125,-0.675,-0.050
126,-0.440,0.255
127,-0.350,0.105
128,-0.525,-0.220
129,-0.360,-0.090
130,-0.365,-0.035
131,-0.290,0.305
132,-0.220,0.055
133,-0.220,-0.220
134,-0.095,0.060
135,-0.470,0.240
136,-0.405,0.315
137,-0.315,0.050
138,-0.255,0.170
139,-0.370,0.105
140,-0.415,0.220
141,-0.195,0.280
142,-0.010,0.075
143,0.140,0.290
144,0.360,0.590
145,0.475,0.135
146,0.390,-0.285
147,0.275,-0.285
148,0.055,-0.200
149,-0.040,0.075
150,0.050,0.125
151,0.120,-0.085
152,0.015,0.000
153,0.045,-0.170
154,0.045,-0.210
155,0.060,-0.055
156,0.090,-0.110
157,0.050,-0.320
158,0.035,-0.150
159,0.040,-0.115
160,0.010,-0.140
161,0.000,-0.060
162,0.035,0.010
163,-0.015,0.000
164,-0.005,-0.090
165,0.085,-0.125
166,0.195,-0.205
167,0.000,0.030
168,-0.015,-0.090
169,-0.025,-0.205
170,0.015,-0.245
171,-0.080,-0.260
172,-0.050,-0.230
173,0.010,-0.195
174,0.150,-0.385
175,0.030,-0.205
176,0.020,-0.130
177,0.055,-0.335
178,0.055,-0.235
179,0.160,-0.105
180,0.350,-0.240
181,0.265,-0.285
182,-0.005,-0.275
183,0.050,-0.255
184,0.160,0.395
185,0.330,0.640
186,0.535,0.440
187,0.660,0.415
188,0.770,-0.450
189,0.350,-0.830
190,-0.145,-0.745
191,-0.190,-0.110
192,-0.010,-0.210
193,0.360,-0.595
194,0.660,-0.090
195,0.030,0.370
196,0.020,0.205
197,0.285,-0.250
198,0.370,0.065
199,0.325,-0.050
200,0.265,-0.505
201,0.225,-0.525
202,0.245,-0.145
203,0.155,0.015
204,0.105,-0.385
205,0.135,-0.115
206,0.325,0.110
207,0.170,-0.220
208,0.090,-0.155
209,0.190,0.105
210,0.260,-0.190
211,0.275,-0.380
212,0.305,0.075
213,0.190,0.010
214,0.380,-0.090
215,0.370,0.145
216,0.380,-0.355
217,0.365,0.135
218,0.350,0.330
219,0.370,0.090
220,0.330,0.000
221,0.365,0.285
222,0.440,0.050
223,0.355,0.030
224,0.335,0.155
225,0.420,0.090
226,0.340,-0.095
227,0.295,0.060
228,0.255,0.370
229,0.265,0.265
230,0.290,0.030
231,0.255,0.285
232,0.195,0.000
233,0.245,-0.075
234,0.210,0.295
235,0.225,0.165
236,0.170,0.190
237,0.240,0.280
238,0.250,0.135
239,0.175,0.205
240,0.190,0.470
241,0.275,0.510
242,0.275,0.480
243,0.185,0.120
244,0.055,-0.100
245,0.020,0.170
246,0.070,0.170
247,0.095,0.180
248,0.115,0.005
249,0.035,0.105
250,0.015,-0.005
251,-0.035,-0.045
252,-0.010,0.125
253,0.015,0.100
254,0.090,0.060
255,0.165,-0.110
256,0.215,-0.025
257,0.310,0.100
258,0.295,0.115
259,0.375,0.570
260,0.480,1.050
261,0.650,0.960
262,0.465,0.075
263,-0.065,-0.195
264,-0.450,-0.220
265,-0.380,-0.130
266,-0.060,-0.105
267,0.195,-0.080
268,0.325,-0.030
269,0.450,-0.175
270,0.510,-0.305
271,0.445,-0.115
272,0.485,-0.190
273,0.435,-0.310
274,0.340,-0.125
275,0.315,-0.155
276,0.340,-0.320
277,0.245,-0.440
278,0.265,-0.100
279,0.175,-0.225
280,0.105,-0.160
281,0.015,-0.160
282,-0.005,-0.170
283,-0.050,-0.165
284,-0.040,-0.080
285,-0.010,-0.400
286,-0.050,-0.180
287,-0.040,-0.245
288,-0.010,-0.705
289,-0.040,-0.495
290,0.050,-0.660
291,0.145,-0.935
292,0.035,-1.235
293,0.025,-1.610
294,0.060,-1.650
295,0.025,-1.205
296,-0.045,-1.170
297,-0.030,-1.365
298,-0.020,-1.550
299,-0.060,-1.260
300,-0.040,-0.830
301,0.015,-1.110
302,0.025,-0.975
303,0.070,-1.025
304,0.105,-0.995
305,0.070,-1.010
306,0.110,-0.980
307,0.100,-0.825
308,0.100,-0.780
309,0.100,-0.960
310,0.050,-0.895
311,0.055,-0.855
312,-0.025,-0.635
313,0.060,-0.745
314,0.040,-0.855
315,0.000,-0.790
316,-0.015,-0.875
317,-0.070,-1.050
318,-0.155,-0.985
319,-0.095,-0.805
320,-0.050,-0.895
321,0.005,-0.995
322,-0.030,-0.975
323,-0.085,-0.820
324,-0.110,-0.880
325,-0.105,-0.870
326,-0.145,-0.830
327,-0.185,-0.795
328,-0.155,-0.885
329,-0.110,-0.845
330,-0.035,-0.805
331,0.020,-0.545
332,0.125,-0.140
333,0.360,0.000
334,0.480,-0.275
335,0.530,-1.120
336,0.070,-1.410
337,-0.265,-1.345
338,-0.220,-1.045
339,0.020,-1.005
340,0.165,-1.055
341,0.170,-1.235
342,0.065,-0.930
343,0.100,-0.805
344,0.190,-0.895
345,0.195,-0.980
346,0.230,-0.980
347,0.225,-0.985
348,0.260,-1.020
349,0.235,-1.215
350,0.235,-1.085
351,0.215,-1.010
352,0.240,-1.000
353,0.200,-0.910
354,0.130,-0.840
355,0.065,-0.750
356,0.010,-0.810
357,-0.015,-0.855
358,-0.055,-0.820
359,-0.090,-0.845
360,-0.035,-0.830
361,-0.100,-0.785
362,-0.055,-0.785
363,0.015,-0.885
364,-0.130,-0.830
365,0.030,-0.675
366,0.090,-0.590
367,0.115,-0.750
368,0.090,-0.970
369,0.080,-0.780
370,0.100,-0.775
371,0.085,-0.785
372,0.125,-0.790
373,0.145,-0.795
374,0.090,-0.730
375,0.035,-0.790
376,0.040,-0.750
377,0.075,-0.875
378,0.160,-0.870
379,0.310,-0.925
380,0.460,-0.900
381,0.480,-0.730
382,0.705,-0.605
383,0.725,-0.770
384,0.570,-0.640
385,0.555,-0.625
386,0.545,-0.770
387,0.395,-1.020
388,0.295,-0.880
389,0.255,-0.775
390,0.255,-0.785
391,0.245,-0.845
392,0.165,-0.935
393,0.205,-0.830
394,0.295,-0.925
395,-0.055,-0.965
396,-0.005,-0.845
397,-0.115,-0.495
398,-0.300,-0.715
399,-0.280,-0.780
400,-0.450,-0.750
401,-0.525,-0.965
402,-0.440,-1.015
403,-0.525,-0.425
404,-0.415,0.405
405,-0.120,0.440
406,0.015,-0.595
407,0.000,-1.310
408,-0.620,-1.160
409,-0.635,-0.890
410,-0.310,-0.905
411,-0.090,-0.985
412,0.235,-0.450
413,0.210,-0.610
414,0.025,-0.655
415,0.225,-0.520
416,0.115,-0.595
417,0.060,-0.620
418,0.290,-0.595
419,0.275,-0.230
420,0.435,-0.510
421,0.345,-0.750
422,0.345,-0.415
423,0.100,-0.625
424,0.200,-0.530
425,0.555,-0.360
426,0.215,-0.180
427,0.190,-0.040
428,0.165,-0.855
429,-0.030,-0.610
430,0.120,-0.370
431,0.275,-0.355
432,0.000,-0.070
433,0.350,0.000
434,0.155,0.525
435,-0.165,0.075
436,-0.300,-0.530
437,-0.400,0.125
438,-0.235,0.160
439,-0.080,-0.490
440,-0.355,-0.355
441,-0.345,-0.310
442,-0.015,-0.240
443,-0.385,0.000
444,-0.135,-0.175
445,-0.045,-0.470
446,-0.280,-0.090
447,-0.085,-0.175
448,-0.235,-0.120
449,0.005,0.360
450,0.275,0.370
451,0.345,0.560
452,0.145,-0.300
453,-0.390,-0.845
454,-0.650,-0.515
455,-0.625,-0.010
456,-0.165,0.110
457,-0.125,0.055
458,-0.280,-0.010
459,-0.280,-0.145
460,-0.260,0.340
461,-0.140,0.410
462,-0.140,0.375
463,-0.320,0.335
464,-0.430,0.115
465,-0.450,0.310
466,-0.410,0.275
467,-0.520,0.170
468,-0.425,0.355
469,-0.440,0.295
470,-0.620,0.415
471,-0.455,0.260
472,-0.525,0.630
473,-0.370,0.550
474,-0.470,0.045
475,-0.510,0.465
476,-0.465,0.565
477,-0.470,0.590
478,-0.525,0.685
479,-0.555,0.845
480,-0.565,0.755
481,-0.505,0.390
482,-0.470,0.585
483,-0.330,0.995
484,-0.370,0.050
485,-0.540,0.360
486,-0.310,0.815
487,-0.265,0.495
488,-0.330,0.185
489,-0.340,0.095
490,-0.245,0.380
491,-0.260,0.145
492,-0.215,0.415
493,-0.225,0.625
494,-0.225,0.430
495,-0.180,0.380
496,-0.455,0.340
497,-0.920,0.460
498,-0.835,0.375
499,-0.545,0.530
500,-0.460,0.275
501,-0.405,0.145
502,-0.365,-0.155
503,-0.380,0.005
504,-0.270,-0.095
505,-0.275,-0.195
506,-0.290,-0.050
507,0.000,-0.440
508,0.145,-0.580
509,0.300,-0.265
510,0.395,-0.250
511,0.515,-0.125
512,0.500,-0.410
513,0.400,-0.360
514,0.355,-0.125
515,0.365,-0.340
516,0.285,-0.305
517,0.230,-0.330
518,0.190,-0.295
519,-0.010,0.085
520,0.075,0.045
521,0.065,-0.215
522,0.025,0.335
523,0.095,1.055
524,0.420,1.140
525,0.490,0.810
526,0.350,0.170
527,-0.160,-0.250
528,-0.515,-0.200
529,-0.390,0.155
530,-0.155,0.475
531,0.055,0.285
532,0.030,0.210
533,0.010,0.480
534,0.000,0.450
535,-0.035,0.345
536,-0.055,0.420
537,-0.105,0.550
538,-0.030,0.640
539,-0.140,0.660
540,-0.145,0.685
541,-0.135,0.570
542,-0.230,0.700
543,-0.245,0.635
544,-0.250,0.465
545,-0.295,0.355
546,-0.245,0.540
547,-0.160,0.650
548,-0.040,0.700
549,-0.155,0.675
550,-0.030,0.650
551,0.015,0.775
552,-0.015,0.665
553,0.080,0.395
554,-0.025,0.575
555,0.110,0.630
556,0.010,0.600
557,0.055,0.560
558,0.155,0.425
559,0.235,0.340
560,0.305,0.350
561,0.345,0.260
562,0.340,0.050
563,0.170,0.170
564,0.225,0.135
565,0.215,0.005
566,0.125,-0.035
567,0.125,-0.105
568,0.215,-0.210
569,0.310,-0.385
570,0.340,-0.480
571,0.355,-0.520
572,0.390,-0.485
573,0.345,-0.530
574,0.370,-0.540
575,0.330,-0.090
576,0.405,0.440
577,0.615,0.410
578,0.655,-0.055
579,0.315,-0.285
580,-0.170,-0.185
581,-0.235,0.010
582,-0.115,0.160
583,0.075,0.035
584,0.125,0.050
585,0.105,-0.030
586,0.120,-0.090
587,0.100,-0.095
588,0.035,-0.105
589,-0.005,-0.070
590,-0.005,-0.160
591,-0.055,-0.080
592,-0.040,-0.040
593,-0.040,-0.065
594,-0.050,-0.105
595,-0.045,-0.040
596,0.020,0.110
597,0.070,0.060
598,0.100,0.145
599,0.000,0.175
600,-0.015,0.220
601,-0.045,0.190
602,-0.050,0.280
603,-0.010,0.450
604,-0.030,0.500
605,-0.070,0.685
606,-0.105,0.780
607,-0.110,0.740
608,-0.110,0.600
609,-0.075,0.430
610,-0.035,0.315
611,-0.050,0.275
612,-0.080,0.245
613,-0.095,0.270
614,-0.065,0.290
615,-0.040,0.365
616,0.005,0.465
617,0.020,0.465
618,0.010,0.440
619,0.005,0.490
620,0.060,0.580
621,0.060,0.475
622,0.045,0.490
623,0.000,0.660
624,-0.015,0.565
625,-0.080,0.535
626,-0.080,0.600
627,-0.105,0.445
628,-0.130,0.155
629,-0.095,0.035
630,-0.120,0.130
631,-0.050,0.040
632,0.000,0.005
633,0.050,-0.005
634,0.120,-0.010
635,0.200,-0.005
636,0.305,-0.105
637,0.400,-0.020
638,0.460,0.195
639,0.525,0.005
640,0.550,0.015
641,0.605,-0.105
642,0.675,-0.005
643,0.695,0.260
644,0.635,0.385
645,0.535,0.540
646,0.470,0.630
647,0.405,0.585
648,0.425,0.585
649,0.470,0.435
650,0.490,0.395
651,0.500,0.425
652,0.555,0.370
653,0.575,0.305
654,0.615,0.325
655,0.640,0.105
656,0.610,0.135
657,0.575,0.345
658,0.615,0.320
659,0.710,0.370
660,0.690,0.305
661,0.605,0.375
662,0.520,0.425
663,0.445,0.640
664,0.385,1.175
665,0.450,1.440
666,0.575,1.340
667,0.560,0.340
668,0.125,-0.050
669,-0.340,0.120
670,-0.350,0.355
671,-0.125,0.520
672,0.115,0.520
673,0.265,0.430
674,0.300,0.380
675,0.300,0.345
676,0.255,0.330
677,0.235,0.410
678,0.235,0.295
679,0.275,0.210
680,0.350,0.410
681,0.310,0.395
682,0.285,0.380
683,0.185,0.465
684,0.185,0.520
685,0.170,0.595
686,0.170,0.700
687,0.130,0.750
688,0.095,0.720
689,0.145,0.680
690,0.285,0.690
691,0.365,0.660
692,0.445,0.640
693,0.455,0.595
694,0.395,0.595
695,0.440,0.555
696,0.460,0.655
697,0.425,0.585
698,0.450,0.590
699,0.470,0.615
700,0.515,0.575
701,0.465,0.555
702,0.425,0.525
703,0.405,0.550
704,0.390,0.605
705,0.320,0.620
706,0.330,0.515
707,0.315,0.615
708,0.305,0.495
709,0.305,0.535
710,0.300,0.525
711,0.290,0.480
712,0.235,0.450
713,0.165,0.390
714,0.150,0.485
715,0.105,0.500
716,0.045,0.490
717,0.040,0.505
718,0.110,0.535
719,0.160,0.520
720,0.205,0.520
721,0.165,0.415
722,0.120,0.435
723,0.050,0.345
724,0.050,0.330
725,0.060,0.265
726,0.125,0.235
727,0.170,0.160
728,0.230,0.165
729,0.215,0.070
730,0.250,0.060
731,0.270,0.030
732,0.310,0.045
733,0.360,0.055
734,0.325,0.095
735,0.325,0.055
736,0.305,0.100
737,0.260,0.185
738,0.325,0.530
739,0.455,0.990
740,0.695,0.975
741,0.775,0.425
742,0.690,-0.445
743,0.025,-0.555
744,-0.225,-0.305
745,-0.050,-0.035
746,0.105,0.015
747,0.220,0.035
748,0.185,0.070
749,0.155,-0.025
750,0.175,0.040
751,0.120,0.050
752,0.055,0.080
753,0.070,0.155
754,0.055,0.000
755,0.070,0.095
756,0.105,0.110
757,0.100,0.065
758,0.090,0.020
759,0.090,0.015
760,0.145,0.005
761,0.185,-0.005
762,0.195,-0.055
763,0.220,0.015
764,0.255,0.040
765,0.280,0.075
766,0.270,0.045
767,0.285,0.005
768,0.320,0.035
769,0.325,0.130
770,0.325,0.020
771,0.245,-0.020
772,0.230,-0.110
773,0.250,-0.135
774,0.245,-0.090
775,0.295,-0.130
776,0.255,-0.140
777,0.285,-0.050
778,0.280,-0.130
779,0.260,-0.090
780,0.235,-0.110
781,0.235,-0.130
782,0.250,-0.195
783,0.225,-0.160
784,0.265,0.185
785,0.305,0.595
786,0.490,0.470
787,0.540,-0.515
788,0.210,-0.800
789,-0.245,-0.635
790,-0.215,-0.445
791,0.010,-0.205
792,0.250,-0.245
793,0.360,-0.285
794,0.370,-0.385
795,0.370,-0.410
796,0.360,-0.445
797,0.345,-0.325
798,0.315,-0.370
799,0.300,-0.345
800,0.300,-0.325
801,0.300,-0.360
802,0.225,-0.480
803,0.185,-0.475
804,0.170,-0.405
805,0.180,-0.330
806,0.180,-0.395
807,0.200,-0.320
808,0.265,-0.400
809,0.290,-0.280
810,0.295,-0.205
811,0.310,-0.305
812,0.300,-0.405
813,0.280,-0.345
814,0.320,-0.240
815,0.365,-0.415
816,0.420,-0.340
817,0.465,-0.255
818,0.530,-0.310
819,0.505,-0.340
820,0.445,-0.385
821,0.440,-0.405
822,0.430,-0.450
823,0.400,-0.480
824,0.400,-0.515
825,0.415,-0.515
826,0.335,-0.640
827,0.290,-0.640
828,0.295,-0.665
829,0.265,-0.755
830,0.210,-0.710
831,0.175,-0.820
832,0.130,-0.760
833,0.145,-0.770
834,0.190,-0.860
835,0.200,-0.890
836,0.215,-0.935
837,0.205,-1.005
838,0.190,-0.910
839,0.275,-0.945
840,0.335,-0.990
841,0.345,-1.030
842,0.305,-1.195
843,0.250,-1.225
844,0.190,-1.410
845,0.235,-1.290
846,0.185,-1.155
847,0.150,-1.055
848,0.255,-0.985
849,0.340,-1.035
850,0.440,-0.955
851,0.435,-0.815
852,0.355,-0.695
853,0.395,-0.830
854,0.405,-0.685
855,0.295,-0.600
856,0.210,-0.560
857,0.240,-0.500
858,0.305,-0.660
859,0.305,-0.640
860,0.235,-0.600
861,0.185,-0.665
862,0.180,-0.685
863,0.140,-0.745
864,0.150,-0.705
865,0.160,-0.685
866,0.200,-0.700
867,0.190,-0.800
868,0.195,-0.405
869,0.230,0.000
870,0.340,0.240
871,0.405,-0.155
872,0.380,-1.035
873,0.040,-1.515
874,-0.155,-1.390
875,0.025,-1.270
876,0.365,-1.210
877,0.535,-1.330
878,0.655,-1.390
879,0.675,-1.280
880,0.810,-1.205
881,0.955,-1.140
882,0.960,-1.040
883,0.980,-0.975
884,0.925,-0.865
885,0.765,-0.825
886,0.495,-0.695
887,0.370,-0.595
888,0.235,-0.585
889,0.135,-0.575
890,0.010,-0.405
891,0.060,-0.205
892,0.120,-0.285
893,0.215,-0.265
894,0.235,-0.120
895,0.215,-0.020
896,0.180,0.170
897,0.120,0.315
898,-0.060,0.530
899,-0.315,0.590
900,-0.545,0.715
901,-0.665,0.905
902,-0.710,1.090
903,-0.705,1.140
904,-0.620,1.155
905,-0.550,1.175
906,-0.380,1.130
907,-0.190,1.110
908,-0.025,0.995
909,0.085,0.985
910,0.160,1.010
911,0.265,0.925
912,0.300,0.985
913,0.370,0.955
914,0.380,0.975
915,0.400,0.915
916,0.390,0.855
917,0.350,0.920
918,0.330,1.035
919,0.285,0.985
920,0.240,0.840
921,0.250,0.760
922,0.300,0.730
923,0.385,0.780
924,0.460,0.825
925,0.525,0.740
926,0.495,0.590
927,0.415,0.480
928,0.410,0.410
929,0.400,0.410
930,0.430,0.360
931,0.470,0.310
932,0.505,0.185
933,0.495,0.180
934,0.500,0.050
935,0.525,0.055
936,0.475,-0.005
937,0.435,-0.035
938,0.430,0.055
939,0.445,0.035
940,0.455,-0.050
941,0.450,-0.070
942,0.505,0.135
943,0.550,0.590
944,0.740,0.800
945,0.890,0.490
946,0.860,-0.550
947,0.345,-0.850
948,-0.120,-0.765
949,-0.195,-0.480
950,0.000,-0.035
951,0.330,-0.025
952,0.570,-0.255
953,1.160,-0.535
954,1.345,-0.560
955,0.815,-0.575
956,0.460,-0.755
957,0.355,-0.725
958,-0.270,-0.465
959,-0.270,-0.310
960,-0.260,-0.280
961,-0.500,-0.315
962,-0.540,-0.270
963,-0.190,-0.275
964,-0.075,-0.285
965,-0.095,-0.305
966,-0.135,-0.365
967,-0.270,-0.335
968,-0.335,-0.210
969,-0.290,-0.170
970,-0.090,-0.140
971,0.015,-0.120
972,0.095,-0.145
973,0.125,-0.170
974,0.135,-0.260
975,0.110,-0.265
976,0.105,-0.220
977,0.100,-0.175
978,0.055,-0.250
979,-0.015,-0.270
980,-0.060,-0.170
981,-0.030,-0.145
982,-0.020,-0.200
983,-0.260,-0.220
984,0.000,-0.205
985,0.165,-0.165
986,0.205,-0.175
987,0.300,-0.210
988,0.350,-0.245
989,0.340,-0.220
990,0.315,-0.195
991,0.340,-0.210
992,0.380,-0.170
993,0.460,-0.225
994,0.550,-0.200
995,0.590,-0.135
996,0.635,-0.185
997,0.645,-0.275
998,0.645,-0.390
999,0.570,-0.465
1000,0.525,-0.435
1001,0.575,-0.455
1002,0.535,-0.470
1003,0.475,-0.470
1004,0.415,-0.520
1005,0.385,-0.530
1006,0.355,-0.520
1007,0.370,-0.505
1008,0.365,-0.535
1009,0.380,-0.550
1010,0.430,-0.555
1011,0.455,-0.545
1012,0.475,-0.565
1013,0.475,-0.370
1014,0.515,0.185
1015,0.685,0.525
1016,0.745,0.250
1017,0.505,-0.735
1018,-0.015,-1.110
1019,-0.250,-0.990
1020,-0.110,-0.710
1021,0.155,-0.530
1022,0.385,-0.485
1023,0.430,-0.540
1024,0.445,-0.545
1025,0.465,-0.585
1026,0.445,-0.585
1027,0.455,-0.510
1028,0.510,-0.470
1029,0.535,-0.430
1030,0.540,-0.460
1031,0.580,-0.520
1032,0.600,-0.600
1033,0.620,-0.615
1034,0.615,-0.575
1035,0.610,-0.605
1036,0.570,-0.570
1037,0.570,-0.585
1038,0.490,-0.505
1039,0.450,-0.450
1040,0.460,-0.480
1041,0.430,-0.425
1042,0.400,-0.345
1043,0.435,-0.310
1044,0.440,-0.365
1045,0.455,-0.375
1046,0.445,-0.340
1047,0.485,-0.370
1048,0.505,-0.425
1049,0.505,-0.420
1050,0.575,-0.315
1051,0.560,-0.340
1052,0.480,-0.350
1053,0.465,-0.290
1054,0.425,-0.280
1055,0.435,-0.200
1056,0.495,-0.230
1057,0.520,-0.340
1058,0.570,-0.270
1059,0.575,-0.195
1060,0.580,-0.260
1061,0.585,-0.345
1062,0.625,-0.215
1063,0.595,-0.045
1064,0.580,-0.025
1065,0.600,-0.050
1066,0.560,-0.100
1067,0.570,-0.150
1068,0.625,-0.110
1069,0.575,-0.025
1070,0.515,-0.085
1071,0.450,-0.025
1072,0.475,-0.100
1073,0.520,-0.210
1074,0.620,-0.170
1075,0.670,-0.155
1076,0.660,-0.195
1077,0.680,-0.310
1078,0.755,-0.180
1079,0.725,-0.200
1080,0.705,-0.245
1081,0.520,-0.240
1082,0.500,-0.215
1083,0.415,-0.185
1084,0.335,-0.035
1085,0.235,0.210
1086,0.325,0.795
1087,0.450,1.015
1088,0.550,0.510
1089,0.305,-0.680
1090,-0.320,-0.780
1091,-0.565,-0.535
1092,-0.320,-0.180
1093,-0.095,-0.070
1094,0.020,-0.065
1095,0.055,-0.160
1096,0.025,-0.180
1097,-0.070,-0.110
1098,-0.085,-0.085
1099,-0.220,-0.065
1100,-0.210,0.000
1101,-0.255,-0.025
1102,-0.315,-0.005
1103,-0.310,-0.020
1104,-0.285,-0.025
1105,-0.260,-0.015
1106,-0.145,0.040
1107,-0.180,0.165
1108,-0.080,0.365
1109,-0.165,0.375
1110,-0.175,0.385
1111,-0.185,0.395
1112,-0.195,0.425
1113,-0.270,0.330
1114,-0.305,0.220
1115,-0.550,0.230
1116,-0.535,0.445
1117,-0.400,0.485
1118,-0.370,0.445
1119,-0.370,0.345
1120,-0.375,0.235
1121,-0.530,0.215
1122,-0.410,0.205
1123,-0.490,0.390
1124,-0.420,0.275
1125,-0.165,0.265
1126,-0.140,0.265
1127,-0.150,0.320
1128,-0.080,0.375
1129,-0.160,0.420
1130,-0.225,0.200
1131,-0.280,0.400
1132,-0.345,0.540
1133,-0.340,0.510
1134,-0.270,0.435
1135,-0.315,0.540
1136,-0.165,0.690
1137,0.030,0.670
1138,0.070,0.645
1139,0.000,0.495
1140,-0.210,0.420
1141,-0.215,0.340
1142,-0.200,0.415
1143,-0.175,0.485
1144,-0.190,0.405
1145,-0.110,0.315
1146,0.000,0.240
1147,-0.040,0.200
1148,-0.080,0.245
1149,-0.090,0.260
1150,0.050,0.320
1151,0.165,0.320
1152,0.135,0.245
1153,0.180,0.255
1154,0.195,0.215
1155,0.230,0.315
1156,0.320,0.615
1157,0.255,1.075
1158,0.410,1.185
1159,0.465,0.680
1160,0.290,-0.105
1161,-0.340,-0.305
1162,-0.555,-0.100
1163,-0.565,0.080
1164,-0.345,0.175
1165,-0.270,0.135
1166,-0.335,0.125
1167,-0.285,0.130
1168,-0.290,0.100
1169,-0.275,0.050
1170,-0.185,-0.045
1171,-0.235,0.005
1172,-0.215,0.135
1173,-0.170,0.050
1174,-0.045,-0.015
1175,0.110,0.100
1176,0.030,0.150
1177,0.130,0.215
1178,0.300,0.310
1179,0.370,0.330
1180,0.365,0.300
1181,0.375,0.365
1182,0.390,0.300
1183,0.370,0.275
1184,0.370,0.390
1185,0.365,0.370
1186,0.350,0.450
1187,0.310,0.520
1188,0.350,0.555
1189,0.395,0.560
1190,0.410,0.535
1191,0.390,0.535
1192,0.435,0.490
1193,0.475,0.480
1194,0.550,0.545
1195,0.585,0.500
1196,0.560,0.420
1197,0.545,0.430
1198,0.520,0.350
1199,0.550,0.385
1200,0.595,0.425
1201,0.520,0.435
1202,0.480,0.410
1203,0.460,0.375
1204,0.445,0.405
1205,0.355,0.425
1206,0.300,0.530
1207,0.250,0.570
1208,0.230,0.480
1209,0.300,0.395
1210,0.280,0.220
1211,0.280,0.115
1212,0.235,-0.005
1213,0.195,-0.140
1214,0.160,-0.150
1215,0.175,-0.100
1216,0.205,-0.200
1217,0.185,-0.175
1218,0.220,-0.100
1219,0.190,-0.235
1220,0.265,-0.275
1221,0.305,-0.220
1222,0.310,-0.175
1223,0.330,-0.190
1224,0.415,-0.215
1225,0.445,-0.265
1226,0.465,-0.320
1227,0.505,-0.145
1228,0.600,0.290
1229,0.785,0.725
1230,0.960,0.690
1231,0.945,-0.130
1232,0.715,-0.855
1233,0.150,-0.955
1234,0.015,-0.640
1235,0.080,-0.395
1236,0.300,-0.320
1237,0.375,-0.340
1238,0.235,-0.340
1239,0.210,-0.285
1240,0.185,-0.425
1241,0.100,-0.425
1242,0.075,-0.365
1243,0.125,-0.410
1244,0.135,-0.415
1245,0.030,-0.355
1246,0.030,-0.365
1247,0.090,-0.425
1248,0.135,-0.425
1249,0.160,-0.320
1250,0.215,-0.425
1251,0.250,-0.340
1252,0.185,-0.250
1253,0.100,-0.300
1254,0.380,-0.340
1255,0.390,-0.025
1256,-0.055,0.120
1257,-0.205,0.105
1258,-0.070,0.040
1259,-0.020,-0.045
1260,-0.075,0.020
1261,-0.030,-0.095
1262,-0.035,-0.150
1263,-0.105,-0.205
1264,-0.130,-0.230
1265,-0.150,-0.240
1266,-0.205,-0.280
1267,-0.220,-0.305
1268,-0.260,-0.290
1269,-0.275,-0.300
1270,-0.270,-0.300
1271,-0.290,-0.300
1272,-0.260,-0.305
1273,-0.245,-0.300
1274,-0.235,-0.250
1275,-0.175,-0.210
1276,-0.145,-0.160
1277,-0.105,-0.160
1278,-0.085,-0.140
1279,-0.105,-0.120
1280,-0.095,-0.125
1281,-0.075,-0.085
1282,-0.110,-0.185
1283,-0.165,-0.200
1284,-0.205,-0.260
1285,-0.185,-0.245
1286,-0.150,-0.280
1287,-0.125,-0.325
1288,-0.110,-0.360
1289,-0.110,-0.395
1290,-0.115,-0.350
1291,-0.105,-0.410
1292,-0.110,-0.405
1293,-0.090,-0.325
1294,-0.085,-0.340
1295,-0.070,-0.365
1296,-0.075,-0.440
1297,-0.080,-0.520
1298,-0.090,-0.195
1299,-0.020,0.335
1300,0.150,0.600
1301,0.255,0.415
1302,0.200,-0.560
1303,-0.265,-0.955
1304,-0.615,-0.845
1305,-0.550,-0.650
1306,-0.330,-0.480
1307,-0.095,-0.395
1308,0.030,-0.400
1309,0.070,-0.385
1310,0.060,-0.375
1311,0.035,-0.355
1312,-0.035,-0.360
1313,-0.160,-0.395
1314,-0.250,-0.385
1315,-0.355,-0.445
1316,-0.410,-0.440
1317,-0.365,-0.430
1318,-0.220,-0.450
1319,-0.125,-0.415
1320,-0.160,-0.455
1321,-0.250,-0.460
1322,-0.300,-0.540
1323,-0.195,-0.520
1324,-0.145,-0.405
1325,-0.045,-0.410
1326,0.000,-0.470
1327,-0.030,-0.535
1328,0.005,-0.440
1329,0.020,-0.450
1330,0.020,-0.550
1331,-0.020,-0.565
1332,-0.010,-0.490
1333,0.000,-0.420
1334,-0.055,-0.550
1335,-0.020,-0.650
1336,-0.025,-0.575
1337,-0.035,-0.555
1338,-0.040,-0.645
1339,-0.085,-0.690
1340,-0.070,-0.725
1341,-0.030,-0.730
1342,0.005,-0.630
1343,0.000,-0.545
1344,-0.100,-0.535
1345,-0.120,-0.555
1346,-0.095,-0.515
1347,-0.100,-0.630
1348,-0.065,-0.605
1349,-0.045,-0.575
1350,-0.015,-0.575
1351,-0.030,-0.475
1352,0.010,-0.440
1353,-0.045,-0.540
1354,-0.045,-0.595
1355,-0.095,-0.715
1356,-0.180,-0.550
1357,-0.285,-0.510
1358,-0.310,-0.525
1359,-0.255,-0.785
1360,-0.140,-0.960
1361,0.010,-0.955
1362,-0.125,-0.940
1363,-0.245,-0.945
1364,-0.210,-0.890
1365,-0.205,-0.930
1366,-0.245,-1.075
1367,-0.280,-0.950
1368,-0.380,-0.765
1369,-0.475,-0.990
1370,-0.445,-0.500
1371,-0.455,0.165
1372,-0.180,0.410
1373,0.055,0.110
1374,-0.030,-0.965
1375,-0.720,-1.375
1376,-1.095,-1.210
1377,-0.950,-0.935
1378,-0.595,-0.785
1379,-0.405,-0.780
1380,-0.465,-0.790
1381,-0.470,-0.910
1382,-0.440,-0.890
1383,-0.430,-0.820
1384,-0.440,-0.805
1385,-0.450,-0.790
1386,-0.485,-0.760
1387,-0.515,-0.755
1388,-0.525,-0.760
1389,-0.525,-0.750
1390,-0.495,-0.710
1391,-0.515,-0.695
1392,-0.505,-0.675
1393,-0.515,-0.655
1394,-0.475,-0.655
1395,-0.435,-0.635
1396,-0.430,-0.505
1397,-0.550,-0.465
1398,-0.505,-0.440
1399,-0.440,-0.430
1400,-0.455,-0.435
1401,-0.435,-0.480
1402,-0.375,-0.435
1403,-0.365,-0.485
1404,-0.320,-0.400
1405,-0.310,-0.355
1406,-0.310,-0.495
1407,-0.345,-0.535
1408,-0.335,-0.610
1409,-0.370,-0.620
1410,-0.345,-0.590
1411,-0.375,-0.605
1412,-0.375,-0.590
1413,-0.370,-0.590
1414,-0.335,-0.615
1415,-0.295,-0.625
1416,-0.260,-0.625
1417,-0.380,-0.615
1418,-0.360,-0.595
1419,-0.255,-0.530
1420,-0.145,-0.535
1421,-0.225,-0.450
1422,-0.240,-0.400
1423,-0.195,-0.395
1424,-0.165,-0.360
1425,-0.140,-0.385
1426,-0.270,-0.495
1427,-0.375,-0.525
1428,-0.365,-0.580
1429,-0.350,-0.600
1430,-0.355,-0.685
1431,-0.380,-0.700
1432,-0.380,-0.785
1433,-0.345,-0.795
1434,-0.360,-0.795
1435,-0.400,-0.800
1436,-0.440,-0.760
1437,-0.370,-0.790
1438,-0.225,-0.730
1439,-0.410,-0.725
1440,-0.365,-0.835
1441,-0.145,-0.640
1442,-0.415,-0.170
1443,-0.400,0.245
1444,-0.255,0.110
1445,-0.115,-0.640
1446,-0.380,-1.355
1447,-0.920,-1.345
1448,-0.945,-1.065
1449,-0.710,-0.785
1450,-0.575,-0.780
1451,-0.480,-0.775
1452,-0.420,-0.705
1453,-0.400,-0.665
1454,-0.375,-0.695
1455,-0.375,-0.730
1456,-0.285,-0.705
1457,-0.390,-0.690
1458,-0.515,-0.705
1459,-0.555,-0.645
1460,-0.470,-0.645
1461,-0.475,-0.660
1462,-0.450,-0.680
1463,-0.380,-0.680
1464,-0.335,-0.630
1465,-0.415,-0.585
1466,-0.485,-0.520
1467,-0.510,-0.535
1468,-0.530,-0.520
1469,-0.480,-0.525
1470,-0.450,-0.470
1471,-0.380,-0.415
1472,-0.410,-0.490
1473,-0.400,-0.515
1474,-0.420,-0.490
1475,-0.330,-0.435
1476,-0.140,-0.435
1477,-0.200,-0.535
1478,-0.255,-0.525
1479,-0.535,-0.535
1480,-0.550,-0.565
1481,-0.425,-0.605
1482,-0.355,-0.630
1483,-0.340,-0.590
1484,-0.330,-0.515
1485,-0.310,-0.515
1486,-0.285,-0.545
1487,-0.305,-0.515
1488,-0.290,-0.535
1489,-0.265,-0.580
1490,-0.290,-0.485
1491,-0.305,-0.475
1492,-0.310,-0.445
1493,-0.320,-0.375
1494,-0.275,-0.410
1495,-0.235,-0.400
1496,-0.185,-0.480
1497,-0.210,-0.370
1498,-0.235,-0.415
1499,-0.330,-0.725
1500,-0.405,-0.590
1501,-0.395,-0.430
1502,-0.370,-0.590
1503,-0.295,-0.575
1504,-0.345,-0.520
1505,-0.370,-0.800
1506,-0.340,-0.835
1507,-0.405,-0.735
1508,-0.505,-0.815
1509,-0.310,-0.975
1510,-0.215,-0.910
1511,-0.720,-0.690
1512,-0.795,-0.895
1513,-0.645,-0.765
1514,-0.550,-0.420
1515,-0.505,0.205
1516,-0.330,0.185
1517,-0.315,-0.820
1518,-0.575,-1.500
1519,-1.120,-1.385
1520,-1.160,-0.905
1521,-0.955,-0.790
1522,-0.715,-0.740
1523,-0.685,-0.750
1524,-0.795,-0.725
1525,-0.670,-0.705
1526,-0.530,-0.470
1527,-0.560,-0.400
1528,-0.495,-0.375
1529,-0.540,-0.330
1530,-0.695,-0.300
1531,-0.680,-0.390
1532,-0.570,-0.490
1533,-0.515,-0.190
1534,-0.465,-0.030
1535,-0.575,-0.140
1536,-0.500,-0.375
1537,-0.435,-0.215
1538,-0.590,0.060
1539,-0.535,0.325
1540,-0.460,0.020
1541,-0.565,-0.110
1542,-0.525,-0.135
1543,-0.520,0.220
1544,-0.510,0.190
1545,-0.465,0.265
1546,-0.425,0.225
1547,-0.450,0.315
1548,-0.390,0.295
1549,-0.320,0.295
1550,-0.230,0.275
1551,-0.275,0.065
1552,-0.225,-0.280
1553,-0.185,0.125
1554,-0.195,0.290
1555,-0.190,0.175
1556,-0.240,0.060
1557,-0.265,-0.070
1558,-0.230,0.005
1559,-0.295,-0.085
1560,-0.330,-0.130
1561,-0.315,0.055
1562,-0.310,0.050
1563,-0.310,-0.105
1564,-0.345,-0.065
1565,-0.345,0.125
1566,-0.230,0.190
1567,-0.185,0.050
1568,-0.120,0.040
1569,-0.145,0.140
1570,-0.150,0.065
1571,-0.165,-0.075
1572,-0.095,-0.110
1573,-0.040,0.055
1574,0.000,-0.030
1575,0.065,-0.065
1576,0.055,0.095
1577,0.015,0.135
1578,-0.020,0.160
1579,-0.040,0.065
1580,0.070,0.100
1581,0.215,0.075
1582,0.145,0.060
1583,0.080,0.005
1584,0.155,0.000
1585,0.170,0.190
1586,0.125,0.540
1587,0.200,0.800
1588,0.415,0.745
1589,0.475,-0.025
1590,0.295,-0.710
1591,-0.090,-0.690
1592,-0.230,-0.575
1593,-0.050,-0.430
1594,0.115,-0.280
1595,0.145,-0.110
1596,0.125,-0.235
1597,0.055,0.000
1598,0.020,-0.010
1599,0.050,-0.045
1600,0.110,-0.095
1601,0.055,-0.080
1602,0.045,-0.060
1603,0.055,-0.120
1604,0.070,0.085
1605,0.155,0.120
1606,0.085,0.135
1607,-0.030,0.140
1608,-0.040,0.145
1609,-0.045,0.260
1610,0.000,0.215
1611,0.025,-0.060
1612,0.005,0.290
1613,0.040,0.415
1614,0.095,0.285
1615,0.115,0.220
1616,0.150,0.215
1617,0.185,0.220
1618,0.120,0.205
1619,0.085,0.075
1620,0.015,0.110
1621,-0.015,0.260
1622,0.015,0.240
1623,0.000,0.165
1624,0.015,0.115
1625,0.020,0.100
1626,0.000,0.115
1627,0.010,0.140
1628,0.020,0.100
1629,0.055,-0.005
1630,0.000,0.145
1631,-0.010,0.185
1632,-0.025,0.435
1633,0.020,0.840
1634,0.190,0.830
1635,0.320,0.100
1636,0.220,-0.575
1637,-0.205,-0.375
1638,-0.340,-0.220
1639,-0.315,0.075
1640,-0.145,0.165
1641,-0.030,0.045
1642,-0.050,0.140
1643,-0.035,0.140
1644,-0.030,0.170
1645,-0.030,0.205
1646,-0.015,0.155
1647,-0.025,0.155
1648,-0.055,0.100
1649,-0.080,0.230
1650,-0.100,0.330
1651,-0.070,0.290
1652,-0.075,0.215
1653,-0.115,0.245
1654,-0.105,0.225
1655,-0.100,0.195
1656,-0.085,0.350
1657,-0.075,0.430
1658,-0.090,0.385
1659,-0.120,0.355
1660,-0.110,0.300
1661,-0.130,0.370
1662,-0.160,0.405
1663,-0.175,0.340
1664,-0.225,0.305
1665,-0.200,0.240
1666,-0.220,0.235
1667,-0.200,0.235
1668,-0.190,0.295
1669,-0.180,0.255
1670,-0.260,0.180
1671,-0.300,0.255
1672,-0.295,0.250
1673,-0.270,0.215
1674,-0.295,0.210
1675,-0.310,0.180
1676,-0.300,0.150
1677,-0.240,0.050
1678,-0.215,0.080
1679,-0.215,0.065
1680,-0.265,-0.065
1681,-0.245,-0.100
1682,-0.150,-0.135
1683,-0.120,-0.105
1684,-0.135,-0.055
1685,-0.135,-0.040
1686,-0.115,-0.075
1687,-0.115,-0.080
1688,-0.125,-0.135
1689,-0.140,-0.085
1690,-0.100,-0.065
1691,-0.040,-0.110
1692,-0.060,-0.240
1693,-0.100,-0.305
1694,-0.065,-0.390
1695,-0.015,-0.365
1696,0.035,-0.380
1697,0.125,-0.470
1698,0.190,-0.300
1699,0.285,-0.250
1700,0.310,-0.295
1701,0.310,-0.290
1702,0.345,-0.220
1703,0.295,-0.140
1704,0.290,-0.195
1705,0.215,-0.120
1706,0.220,-0.370
1707,0.240,-0.410
1708,0.320,-0.340
1709,0.340,-0.370
1710,0.315,-0.380
1711,0.235,-0.445
1712,0.235,-0.490
1713,0.245,-0.480
1714,0.220,-0.490
1715,0.245,-0.465
1716,0.205,-0.485
1717,0.200,-0.370
1718,0.260,0.020
1719,0.445,0.370
1720,0.635,0.210
1721,0.660,-0.515
1722,0.125,-0.995
1723,-0.450,-0.900
1724,-0.435,-0.595
1725,-0.145,-0.610
1726,0.000,-0.750
1727,0.015,-0.630
1728,0.040,-0.675
1729,0.105,-0.625
1730,0.155,-0.820
1731,0.260,-0.835
1732,0.305,-0.735
1733,0.215,-0.635
1734,0.185,-0.635
1735,0.190,-0.605
1736,0.175,-0.650
1737,0.095,-0.630
1738,0.130,-0.600
1739,0.150,-0.610
1740,-0.020,-0.560
1741,-0.130,-0.500
1742,-0.200,-0.495
1743,-0.225,-0.580
1744,-0.140,-0.575
1745,-0.005,-0.525
1746,0.265,-0.455
1747,0.280,-0.405
1748,0.290,-0.575
1749,0.265,-0.265
1750,0.050,-0.135
1751,-0.105,-0.160
1752,0.025,-0.075
1753,0.055,-0.245
1754,0.075,-0.280
1755,0.100,-0.280
1756,0.095,-0.270
1757,0.035,-0.215
1758,0.015,-0.330
1759,-0.005,-0.290
1760,0.000,-0.320
1761,-0.055,-0.335
1762,-0.090,-0.310
1763,-0.065,-0.285
1764,-0.130,-0.415
1765,-0.230,-0.510
1766,-0.230,-0.335
1767,-0.265,-0.370
1768,-0.265,-0.440
1769,-0.320,-0.355
1770,-0.310,-0.260
1771,-0.310,-0.210
1772,-0.255,-0.230
1773,-0.230,-0.070
1774,-0.135,0.085
1775,-0.065,0.080
1776,-0.105,-0.105
1777,-0.115,-0.100
1778,-0.130,-0.025
1779,-0.145,0.015
1780,-0.065,-0.030
1781,-0.025,-0.030
1782,-0.025,0.030
1783,-0.090,-0.065
1784,-0.120,-0.105
1785,-0.190,-0.120
1786,-0.195,-0.005
1787,-0.190,-0.015
1788,-0.195,-0.145
1789,-0.180,-0.245
1790,-0.175,-0.320
1791,-0.140,-0.235
1792,-0.100,0.105
1793,0.065,0.520
1794,0.310,0.545
1795,0.360,-0.265
1796,0.020,-0.875
1797,-0.495,-0.840
1798,-0.565,-0.610
1799,-0.305,-0.415
1800,-0.055,-0.300
1801,0.020,-0.305
1802,0.060,-0.325
1803,0.030,-0.375
1804,0.000,-0.360
1805,0.020,-0.300
1806,0.055,-0.290
1807,0.050,-0.315
1808,0.045,-0.305
1809,0.065,-0.290
1810,0.055,-0.240
1811,0.065,-0.235
1812,0.075,-0.230
1813,0.120,-0.145
1814,0.120,-0.220
1815,0.095,-0.200
1816,0.105,-0.155
1817,0.095,-0.100
1818,0.095,-0.150
1819,0.095,-0.175
1820,0.105,-0.020
1821,0.120,-0.045
1822,0.205,-0.080
1823,0.210,-0.015
1824,0.210,-0.030
1825,0.185,-0.055
1826,0.170,-0.165
1827,0.165,-0.250
1828,0.135,-0.310
1829,0.170,-0.240
1830,0.185,-0.185
1831,0.200,-0.220
1832,0.150,-0.255
1833,0.145,-0.225
1834,0.200,-0.165
1835,0.185,-0.265
1836,0.165,-0.255
1837,0.175,-0.255
1838,0.170,0.130
1839,0.270,0.700
1840,0.490,0.650
1841,0.590,-0.095
1842,0.405,-0.785
1843,-0.140,-0.745
1844,-0.360,-0.655
1845,-0.215,-0.395
1846,-0.005,-0.310
1847,0.110,-0.295
1848,0.080,-0.360
1849,0.040,-0.415
1850,0.070,-0.360
1851,0.075,-0.395
1852,0.085,-0.400
1853,0.090,-0.425
1854,0.095,-0.380
1855,0.080,-0.395
1856,0.105,-0.395
1857,0.110,-0.350
1858,0.115,-0.345
1859,0.120,-0.330
1860,0.050,-0.275
1861,0.070,-0.315
1862,0.050,-0.325
1863,0.075,-0.320
1864,0.110,-0.310
1865,0.125,-0.330
1866,0.165,-0.295
1867,0.165,-0.305
1868,0.190,-0.300
1869,0.205,-0.320
1870,0.225,-0.355
1871,0.230,-0.385
1872,0.250,-0.445
1873,0.225,-0.410
1874,0.205,-0.400
1875,0.170,-0.400
1876,0.190,-0.355
1877,0.235,-0.310
1878,0.150,-0.365
1879,0.090,-0.420
1880,0.115,-0.385
1881,0.145,-0.400
1882,0.170,-0.410
1883,0.175,-0.420
1884,0.190,-0.420
1885,0.230,-0.425
1886,0.215,-0.455
1887,0.260,-0.435
1888,0.255,-0.430
1889,0.225,-0.420
1890,0.205,-0.395
1891,0.210,-0.415
1892,0.210,-0.420
1893,0.200,-0.430
1894,0.205,-0.430
1895,0.235,-0.455
1896,0.265,-0.430
1897,0.255,-0.435
1898,0.290,-0.440
1899,0.270,-0.410
1900,0.240,-0.415
1901,0.230,-0.385
1902,0.205,-0.320
1903,0.200,-0.260
1904,0.210,-0.215
1905,0.280,-0.215
1906,0.310,-0.190
1907,0.310,-0.215
1908,0.290,-0.285
1909,0.210,-0.365
1910,0.180,-0.360
1911,0.160,-0.355
1912,0.225,-0.405
1913,0.235,-0.450
1914,0.225,-0.505
1915,0.195,-0.520
1916,0.180,-0.540
1917,0.165,-0.545
1918,0.165,-0.560
1919,0.145,-0.560
1920,0.095,-0.550
1921,0.090,-0.580
1922,0.080,-0.475
1923,0.150,-0.105
1924,0.250,0.365
1925,0.405,0.350
1926,0.295,-0.155
1927,-0.060,-0.890
1928,-0.565,-0.970
1929,-0.575,-0.740
1930,-0.320,-0.560
1931,-0.050,-0.505
1932,0.060,-0.495
1933,0.085,-0.515
1934,0.090,-0.515
1935,0.100,-0.535
1936,0.095,-0.515
1937,0.090,-0.500
1938,0.100,-0.495
1939,0.115,-0.495
1940,0.115,-0.515
1941,0.100,-0.505
1942,0.095,-0.490
1943,0.080,-0.475
1944,0.110,-0.490
1945,0.095,-0.450
1946,0.115,-0.400
1947,0.095,-0.410
1948,0.100,-0.365
1949,0.065,-0.380
1950,0.070,-0.335
1951,0.085,-0.345
1952,0.090,-0.340
1953,0.095,-0.345
1954,0.090,-0.330
1955,0.085,-0.285
1956,0.085,-0.315
1957,0.055,-0.270
1958,0.095,-0.260
1959,0.075,-0.260
1960,0.080,-0.290
1961,0.060,-0.280
1962,0.050,-0.280
1963,0.070,-0.295
1964,0.055,-0.305
1965,0.050,-0.305
1966,0.035,-0.320
1967,0.055,-0.320
1968,0.060,-0.305
1969,0.085,-0.260
1970,0.070,-0.255
1971,0.090,-0.225
1972,0.075,-0.255
1973,0.070,-0.250
1974,0.050,-0.270
1975,0.050,-0.250
1976,0.060,-0.175
1977,0.060,-0.130
1978,0.080,-0.085
1979,0.080,-0.120
1980,0.110,-0.130
1981,0.070,-0.175
1982,0.005,-0.225
1983,-0.060,-0.340
1984,-0.075,-0.305
1985,-0.060,-0.295
1986,-0.005,-0.360
1987,-0.005,-0.405
1988,0.005,-0.430
1989,-0.020,-0.430
1990,-0.030,-0.435
1991,-0.025,-0.430
1992,-0.005,-0.445
1993,-0.025,-0.455
1994,-0.035,-0.445
1995,-0.045,-0.450
1996,-0.050,-0.465
1997,-0.005,-0.210
1998,0.020,0.240
1999,0.175,0.475
2000,0.345,0.185
2001,0.315,-0.755
2002,-0.170,-1.065
2003,-0.625,-0.950
2004,-0.590,-0.695
2005,-0.350,-0.490
2006,-0.145,-0.445
2007,-0.095,-0.445
2008,-0.065,-0.460
2009,-0.035,-0.445
2010,-0.040,-0.425
2011,-0.050,-0.460
2012,-0.075,-0.425
2013,-0.080,-0.435
2014,-0.060,-0.455
2015,-0.085,-0.430
2016,-0.105,-0.450
2017,-0.095,-0.440
2018,-0.115,-0.400
2019,-0.120,-0.415
2020,-0.125,-0.405
2021,-0.120,-0.390
2022,-0.130,-0.335
2023,-0.105,-0.345
2024,-0.145,-0.320
2025,-0.145,-0.325
2026,-0.140,-0.290
2027,-0.155,-0.300
2028,-0.165,-0.290
2029,-0.160,-0.255
2030,-0.160,-0.210
2031,-0.145,-0.230
2032,-0.165,-0.275
2033,-0.170,-0.240
2034,-0.140,-0.325
2035,-0.160,-0.270
2036,-0.165,-0.305
2037,-0.160,-0.340
2038,-0.170,-0.275
2039,-0.160,-0.310
2040,-0.170,-0.290
2041,-0.180,-0.305
2042,-0.185,-0.265
2043,-0.195,-0.270
2044,-0.215,-0.205
2045,-0.235,-0.265
2046,-0.185,-0.190
2047,-0.215,-0.195
2048,-0.180,-0.185
2049,-0.160,-0.105
2050,-0.170,-0.100
2051,-0.140,-0.045
2052,-0.155,-0.110
2053,-0.160,-0.190
2054,-0.275,-0.215
2055,-0.300,-0.305
2056,-0.265,-0.295
2057,-0.245,-0.310
2058,-0.220,-0.415
2059,-0.240,-0.415
2060,-0.275,-0.405
2061,-0.305,-0.410
2062,-0.300,-0.435
2063,-0.290,-0.415
2064,-0.310,-0.425
2065,-0.285,-0.420
2066,-0.300,-0.435
2067,-0.300,-0.470
2068,-0.295,-0.390
2069,-0.250,-0.030
2070,-0.165,0.415
2071,0.055,0.415
2072,0.145,-0.085
2073,-0.055,-0.925
2074,-0.655,-0.985
2075,-0.870,-0.775
2076,-0.730,-0.575
2077,-0.475,-0.435
2078,-0.310,-0.415
2079,-0.275,-0.385
2080,-0.295,-0.415
2081,-0.285,-0.390
2082,-0.270,-0.395
2083,-0.300,-0.385
2084,-0.290,-0.375
2085,-0.295,-0.390
2086,-0.275,-0.390
2087,-0.290,-0.390
2088,-0.300,-0.365
2089,-0.310,-0.375
2090,-0.315,-0.345
2091,-0.295,-0.335
2092,-0.315,-0.340
2093,-0.310,-0.315
2094,-0.320,-0.295
2095,-0.310,-0.280
2096,-0.310,-0.265
2097,-0.305,-0.245
2098,-0.290,-0.240
2099,-0.300,-0.225
2100,-0.285,-0.195
2101,-0.280,-0.185
2102,-0.275,-0.180
2103,-0.270,-0.195
2104,-0.260,-0.185
2105,-0.245,-0.250
2106,-0.245,-0.265
2107,-0.225,-0.260
2108,-0.235,-0.265
2109,-0.245,-0.245
2110,-0.255,-0.270
2111,-0.240,-0.250
2112,-0.235,-0.240
2113,-0.220,-0.225
2114,-0.230,-0.195
2115,-0.235,-0.205
2116,-0.220,-0.195
2117,-0.205,-0.185
2118,-0.195,-0.200
2119,-0.175,-0.145
2120,-0.180,-0.085
2121,-0.170,-0.035
2122,-0.140,-0.030
2123,-0.115,0.000
2124,-0.105,-0.045
2125,-0.135,-0.105
2126,-0.185,-0.195
2127,-0.245,-0.220
2128,-0.260,-0.245
2129,-0.250,-0.290
2130,-0.215,-0.295
2131,-0.215,-0.340
2132,-0.230,-0.335
2133,-0.205,-0.330
2134,-0.245,-0.340
2135,-0.220,-0.340
2136,-0.225,-0.355
2137,-0.215,-0.325
2138,-0.220,-0.335
2139,-0.220,-0.355
2140,-0.210,-0.345
2141,-0.175,-0.105
2142,-0.085,0.385
2143,0.105,0.595
2144,0.170,0.330
2145,-0.090,-0.525
2146,-0.585,-0.825
2147,-0.800,-0.660
2148,-0.650,-0.435
2149,-0.340,-0.315
2150,-0.175,-0.330
2151,-0.130,-0.305
2152,-0.145,-0.280
2153,-0.130,-0.295
2154,-0.130,-0.265
2155,-0.155,-0.275
2156,-0.150,-0.265
2157,-0.155,-0.260
2158,-0.150,-0.255
2159,-0.145,-0.255
2160,-0.150,-0.240
2161,-0.155,-0.235
2162,-0.155,-0.230
2163,-0.150,-0.190
2164,-0.150,-0.180
2165,-0.160,-0.165
2166,-0.150,-0.160
2167,-0.155,-0.140
2168,-0.140,-0.110
2169,-0.140,-0.100
2170,-0.125,-0.095
2171,-0.125,-0.080
2172,-0.110,-0.050
2173,-0.085,-0.055
2174,-0.105,-0.060
2175,-0.085,-0.050
2176,-0.075,-0.080
2177,-0.085,-0.085
2178,-0.075,-0.130
2179,-0.070,-0.095
2180,-0.110,-0.090
2181,-0.065,-0.055
2182,-0.010,-0.065
2183,-0.005,-0.100
2184,0.000,-0.060
2185,0.000,-0.055
2186,-0.035,-0.100
2187,-0.090,-0.105
2188,-0.125,-0.085
2189,-0.110,-0.090
2190,-0.125,-0.100
2191,-0.105,-0.095
2192,-0.115,-0.115
2193,-0.115,-0.100
2194,-0.130,-0.130
2195,-0.135,-0.225
2196,-0.140,-0.140
2197,-0.080,0.280
2198,0.040,0.640
2199,0.160,0.585
2200,-0.030,-0.045
2201,-0.450,-0.535
2202,-0.760,-0.440
2203,-0.625,-0.225
2204,-0.345,-0.115
2205,-0.165,-0.100
2206,-0.125,-0.115
2207,-0.135,-0.080
2208,-0.140,-0.105
2209,-0.160,-0.110
2210,-0.140,-0.120
2211,-0.145,-0.090
2212,-0.170,-0.080
2213,-0.145,-0.085
2214,-0.170,-0.120
2215,-0.140,-0.120
2216,-0.145,-0.105
2217,-0.155,-0.080
2218,-0.145,-0.070
2219,-0.150,-0.070
2220,-0.155,-0.075
2221,-0.155,-0.055
2222,-0.160,-0.030
2223,-0.160,-0.020
2224,-0.165,-0.005
2225,-0.145,0.000
2226,-0.165,0.035
2227,-0.160,0.035
2228,-0.160,0.095
2229,-0.175,0.065
2230,-0.125,0.075
2231,-0.110,0.055
2232,-0.105,0.020
2233,-0.090,0.025
2234,-0.115,0.025
2235,-0.125,0.040
2236,-0.095,0.010
2237,-0.095,0.015
2238,-0.090,0.030
2239,-0.095,0.000
2240,-0.115,0.035
2241,-0.100,0.045
2242,-0.100,0.055
2243,-0.100,0.030
2244,-0.110,0.055
2245,-0.100,0.030
2246,-0.100,0.045
2247,-0.125,0.025
2248,-0.125,0.025
2249,-0.125,0.055
2250,-0.120,0.035
2251,-0.130,0.025
2252,-0.120,0.035
2253,-0.130,0.035
2254,-0.140,0.035
2255,-0.145,0.055
2256,-0.140,0.060
2257,-0.125,0.050
2258,-0.125,0.060
2259,-0.140,0.105
2260,-0.120,0.165
2261,-0.055,0.215
2262,-0.025,0.250
2263,-0.040,0.265
2264,-0.040,0.300
2265,-0.060,0.185
2266,-0.115,0.105
2267,-0.190,0.065
2268,-0.190,0.115
2269,-0.160,0.060
2270,-0.120,0.025
2271,-0.135,-0.020
2272,-0.145,-0.020
2273,-0.170,-0.035
2274,-0.180,-0.025
2275,-0.170,-0.030
2276,-0.165,-0.055
2277,-0.160,-0.010
2278,-0.150,-0.040
2279,-0.175,-0.020
2280,-0.135,0.335
2281,-0.045,0.785
2282,0.175,0.875
2283,0.305,0.335
2284,0.125,-0.450
2285,-0.485,-0.560
2286,-0.695,-0.335
2287,-0.550,-0.105
2288,-0.295,0.015
2289,-0.145,-0.005
2290,-0.125,0.020
2291,-0.120,0.020
2292,-0.125,0.025
2293,-0.115,0.020
2294,-0.120,0.040
2295,-0.110,0.040
2296,-0.130,0.030
2297,-0.140,0.040
2298,-0.150,0.050
2299,-0.155,0.055
2300,-0.155,0.070
2301,-0.145,0.075
2302,-0.130,0.120
2303,-0.155,0.115
2304,-0.145,0.140
2305,-0.155,0.170
2306,-0.145,0.190
2307,-0.155,0.215
2308,-0.130,0.235
2309,-0.120,0.240
2310,-0.130,0.260
2311,-0.115,0.290
2312,-0.120,0.310
2313,-0.100,0.310
2314,-0.095,0.310
2315,-0.075,0.305
2316,-0.065,0.295
2317,-0.075,0.285
2318,-0.065,0.260
2319,-0.075,0.260
2320,-0.060,0.245
2321,-0.075,0.240
2322,-0.065,0.270
2323,-0.055,0.285
2324,-0.075,0.290
2325,-0.075,0.290
2326,-0.070,0.310
2327,-0.080,0.300
2328,-0.050,0.310
2329,-0.065,0.305
2330,-0.065,0.305
2331,-0.055,0.350
2332,-0.045,0.375
2333,-0.025,0.420
2334,-0.015,0.425
2335,0.000,0.470
2336,0.000,0.455
2337,-0.035,0.395
2338,-0.080,0.295
2339,-0.150,0.265
2340,-0.185,0.280
2341,-0.140,0.230
2342,-0.105,0.190
2343,-0.090,0.145
2344,-0.090,0.125
2345,-0.125,0.130
2346,-0.140,0.140
2347,-0.130,0.130
2348,-0.130,0.130
2349,-0.120,0.145
2350,-0.130,0.140
2351,-0.125,0.115
2352,-0.135,0.160
2353,-0.070,0.545
2354,0.045,0.985
2355,0.240,1.005
2356,0.215,0.350
2357,-0.100,-0.315
2358,-0.625,-0.335
2359,-0.695,-0.110
2360,-0.475,0.100
2361,-0.215,0.155
2362,-0.125,0.155
2363,-0.085,0.170
2364,-0.095,0.180
2365,-0.085,0.185
2366,-0.090,0.180
2367,-0.110,0.185
2368,-0.120,0.185
2369,-0.110,0.200
2370,-0.085,0.200
2371,-0.100,0.205
2372,-0.105,0.215
2373,-0.115,0.225
2374,-0.120,0.240
2375,-0.105,0.245
2376,-0.115,0.270
2377,-0.100,0.280
2378,-0.105,0.300
2379,-0.115,0.305
2380,-0.110,0.330
2381,-0.100,0.325
2382,-0.080,0.350
2383,-0.080,0.355
2384,-0.085,0.385
2385,-0.090,0.395
2386,-0.055,0.415
2387,-0.050,0.390
2388,-0.050,0.365
2389,-0.050,0.345
2390,-0.040,0.340
2391,-0.035,0.345
2392,-0.045,0.335
2393,-0.040,0.355
2394,-0.040,0.360
2395,-0.030,0.375
2396,-0.030,0.370
2397,-0.025,0.375
2398,-0.005,0.390
2399,-0.040,0.395
2400,-0.025,0.390
2401,-0.040,0.395
2402,-0.035,0.390
2403,-0.045,0.455
2404,-0.025,0.485
2405,0.020,0.535
2406,0.030,0.550
2407,0.070,0.570
2408,0.025,0.525
2409,-0.010,0.465
2410,-0.070,0.405
2411,-0.115,0.385
2412,-0.100,0.405
2413,-0.060,0.330
2414,-0.030,0.315
2415,-0.025,0.270
2416,-0.030,0.260
2417,-0.050,0.265
2418,-0.055,0.290
2419,-0.045,0.285
2420,-0.045,0.290
2421,-0.045,0.295
2422,-0.050,0.275
2423,-0.030,0.245
2424,-0.030,0.365
2425,0.015,0.805
2426,0.190,1.145
2427,0.305,1.030
2428,0.150,0.235
2429,-0.260,-0.235
2430,-0.695,-0.135
2431,-0.555,0.115
2432,-0.255,0.280
2433,-0.055,0.280
2434,0.000,0.265
2435,0.000,0.305
2436,-0.005,0.295
2437,-0.025,0.315
2438,-0.025,0.290
2439,-0.035,0.275
2440,-0.015,0.295
2441,-0.020,0.320
2442,-0.010,0.320
2443,-0.015,0.300
2444,-0.025,0.310
2445,-0.035,0.345
2446,-0.040,0.345
2447,-0.040,0.370
2448,-0.020,0.385
2449,-0.025,0.410
2450,-0.005,0.435
2451,-0.005,0.460
2452,0.000,0.470
2453,0.000,0.475
2454,0.000,0.505
2455,0.000,0.525
2456,-0.015,0.530
2457,0.000,0.530
2458,0.015,0.520
2459,0.035,0.515
2460,0.020,0.495
2461,0.045,0.480
2462,0.020,0.440
2463,0.010,0.445
2464,0.020,0.460
2465,0.020,0.430
2466,0.030,0.425
2467,0.020,0.445
2468,0.035,0.450
2469,0.045,0.450
2470,0.035,0.430
2471,0.025,0.460
2472,0.010,0.455
2473,0.015,0.450
2474,0.000,0.435
2475,0.005,0.525
2476,0.025,0.545
2477,0.040,0.595
2478,0.065,0.585
2479,0.085,0.625
2480,0.090,0.605
2481,0.035,0.495
2482,-0.005,0.425
2483,-0.075,0.400
2484,-0.080,0.390
2485,-0.050,0.360
2486,-0.040,0.335
2487,-0.015,0.295
2488,-0.030,0.240
2489,-0.050,0.255
2490,-0.065,0.270
2491,-0.050,0.230
2492,-0.055,0.245
2493,-0.055,0.275
2494,-0.035,0.250
2495,-0.040,0.165
2496,-0.050,0.320
2497,0.000,0.700
2498,0.090,1.095
2499,0.320,1.100
2500,0.380,0.355
2501,0.150,-0.255
2502,-0.430,-0.300
2503,-0.600,-0.060
2504,-0.385,0.165
2505,-0.150,0.200
2506,-0.015,0.220
2507,-0.045,0.190
2508,-0.030,0.215
2509,-0.045,0.225
2510,-0.030,0.235
2511,-0.050,0.200
2512,-0.065,0.215
2513,-0.065,0.250
2514,-0.035,0.235
2515,-0.055,0.235
2516,-0.075,0.200
2517,-0.070,0.240
2518,-0.085,0.230
2519,-0.085,0.245
2520,-0.070,0.250
2521,-0.070,0.275
2522,-0.085,0.295
2523,-0.085,0.305
2524,-0.065,0.320
2525,-0.075,0.345
2526,-0.075,0.360
2527,-0.080,0.380
2528,-0.075,0.370
2529,-0.040,0.395
2530,-0.035,0.385
2531,-0.035,0.395
2532,-0.020,0.365
2533,0.005,0.345
2534,0.020,0.325
2535,0.005,0.325
2536,0.005,0.315
2537,0.000,0.305
2538,0.010,0.335
2539,0.030,0.330
2540,0.020,0.335
2541,0.025,0.355
2542,0.005,0.355
2543,0.010,0.355
2544,0.000,0.345
2545,0.005,0.380
2546,0.035,0.415
2547,0.050,0.450
2548,0.090,0.490
2549,0.090,0.490
2550,0.105,0.500
2551,0.085,0.455
2552,0.035,0.410
2553,-0.010,0.320
2554,-0.070,0.320
2555,-0.040,0.290
2556,-0.015,0.210
2557,0.010,0.200
2558,-0.005,0.155
2559,0.000,0.140
2560,-0.035,0.130
2561,-0.035,0.125
2562,-0.020,0.135
2563,-0.030,0.125
2564,-0.020,0.120
2565,-0.035,0.130
2566,-0.025,0.080
2567,-0.020,0.145
2568,0.015,0.510
2569,0.115,0.920
2570,0.330,1.000
2571,0.365,0.375
2572,0.115,-0.300
2573,-0.470,-0.370
2574,-0.620,-0.190
2575,-0.425,0.040
2576,-0.150,0.165
2577,-0.045,0.150
2578,-0.015,0.155
2579,-0.005,0.215
2580,-0.005,0.160
2581,0.000,0.105
2582,-0.025,0.160
2583,-0.035,0.140
2584,-0.025,0.005
2585,-0.050,0.085
2586,-0.025,0.080
2587,-0.020,0.075
2588,-0.035,0.125
2589,-0.025,0.240
2590,-0.030,0.225
2591,-0.035,0.200
2592,0.000,0.135
2593,0.025,0.050
2594,0.075,0.105
2595,0.055,0.135
2596,0.000,0.195
2597,-0.010,0.265
2598,-0.020,0.455
2599,-0.065,0.450
2600,-0.090,0.285
2601,-0.095,0.125
2602,-0.080,0.175
2603,-0.100,0.245
2604,-0.115,0.245
2605,-0.115,0.150
2606,-0.125,0.300
2607,-0.120,0.310
2608,-0.130,0.225
2609,-0.165,0.270
2610,-0.115,0.455
2611,-0.070,0.435
2612,-0.095,0.290
2613,-0.115,0.350
2614,-0.130,0.440
2615,-0.125,0.450
2616,-0.185,0.375
2617,-0.225,0.305
2618,-0.255,0.335
2619,-0.245,0.455
2620,-0.275,0.300
2621,-0.275,0.135
2622,-0.305,0.260
2623,-0.315,0.175
2624,-0.290,0.125
2625,-0.330,0.140
2626,-0.265,0.585
2627,-0.050,0.860
2628,0.005,0.770
2629,-0.190,-0.190
2630,-0.720,-0.590
2631,-0.920,-0.500
2632,-0.775,-0.400
2633,-0.475,-0.355
2634,-0.350,-0.460
2635,-0.300,-0.305
2636,-0.220,-0.155
2637,-0.170,-0.155
2638,-0.080,-0.150
2639,-0.015,-0.220
2640,0.010,-0.090
2641,-0.045,0.070
2642,-0.120,-0.050
2643,-0.075,-0.085
2644,-0.015,-0.030
2645,-0.075,-0.060
2646,-0.160,0.005
2647,-0.225,0.000
2648,-0.185,0.080
2649,-0.180,0.015
2650,-0.180,0.080
2651,-0.195,0.125
2652,-0.180,0.115
2653,-0.175,0.125
2654,-0.180,0.170
2655,-0.160,0.160
2656,-0.240,0.115
2657,-0.235,0.140
2658,-0.190,0.220
2659,-0.165,0.225
2660,-0.120,0.235
2661,-0.190,0.290
2662,-0.185,0.335
2663,-0.160,0.260
2664,-0.130,0.225
2665,-0.120,0.085
2666,-0.120,-0.010
2667,-0.040,-0.200
2668,0.005,-0.170
2669,0.060,-0.110
2670,0.080,-0.155
2671,0.090,-0.170
2672,0.310,-0.210
2673,0.525,-0.225
2674,1.050,-0.270
2675,1.430,-0.265
2676,1.380,-0.145
2677,1.290,-0.185
2678,1.300,-0.175
2679,1.250,-0.175
2680,1.215,-0.215
2681,1.365,-0.075
2682,1.025,-0.080
2683,1.090,-0.160
2684,1.130,-0.240
2685,1.055,-0.260
2686,1.290,-0.335
2687,1.270,-0.420
2688,1.160,-0.530
2689,1.165,-0.595
2690,1.100,-0.590
2691,0.965,-0.700
2692,0.980,-0.765
2693,0.765,-0.885
2694,0.450,-0.940
2695,0.255,-0.915
2696,0.350,-1.000
2697,0.360,-1.020
2698,0.410,-1.175
2699,0.485,-1.210
2700,0.510,-1.270
2701,0.535,-1.275
2702,0.610,-1.335
2703,0.620,-1.385
2704,0.615,-1.375
2705,0.655,-1.440
2706,0.625,-1.500
2707,0.555,-1.485
2708,0.590,-1.235
2709,0.625,-0.845
2710,0.780,-0.845
2711,0.800,-1.350
2712,0.525,-2.075
2713,-0.085,-2.175
2714,-0.125,-2.095
2715,-0.085,-1.900
2716,-0.160,-1.800
2717,0.160,-1.855
2718,0.250,-1.835
2719,0.035,-1.870
2720,0.020,-1.905
2721,0.060,-1.930
2722,0.065,-1.935
2723,0.080,-1.980
2724,0.090,-2.015
2725,0.170,-2.000
2726,0.125,-2.035
2727,0.165,-2.020
2728,0.190,-2.065
2729,0.200,-2.060
2730,0.230,-2.040
2731,0.225,-2.025
2732,0.245,-2.035
2733,0.320,-2.045
2734,0.310,-2.040
2735,0.315,-2.070
2736,0.325,-2.075
2737,0.325,-2.085
2738,0.310,-2.095
2739,0.300,-2.085
2740,0.340,-2.090
2741,0.325,-2.085
2742,0.335,-2.080
2743,0.375,-2.130
2744,0.460,-2.140
2745,0.420,-2.145
2746,0.455,-2.150
2747,0.510,-2.180
2748,0.415,-2.190
2749,0.485,-2.210
2750,0.415,-2.175
2751,0.305,-2.155
2752,0.370,-2.210
2753,0.345,-2.185
2754,0.355,-2.200
2755,0.180,-2.235
2756,0.195,-2.215
2757,0.195,-2.250
2758,0.330,-2.230
2759,0.475,-2.220
2760,0.315,-2.215
2761,0.355,-2.215
2762,0.290,-2.195
2763,0.245,-2.210
2764,0.285,-2.215
2765,0.235,-2.255
2766,0.245,-2.255
2767,0.260,-2.275
2768,0.255,-2.280
2769,0.085,-2.305
2770,0.185,-2.310
2771,0.180,-2.310
2772,0.020,-2.300
2773,0.100,-2.315
2774,0.110,-2.315
2775,0.005,-2.340
2776,0.010,-2.330
2777,0.025,-2.330
2778,0.135,-2.330
2779,0.145,-2.340
2780,0.210,-2.295
2781,0.290,-2.075
2782,0.460,-1.890
2783,0.560,-1.990
2784,0.375,-2.295
2785,-0.170,-2.370
2786,-0.345,-2.370
2787,-0.170,-2.355
2788,0.120,-2.340
2789,0.280,-2.340
2790,0.245,-2.340
2791,0.245,-2.340
2792,0.320,-2.330
2793,0.305,-2.330
2794,0.330,-2.345
2795,0.330,-2.345
2796,0.240,-2.360
2797,0.205,-2.340
2798,0.235,-2.345
2799,0.260,-2.345
2800,0.220,-2.345
2801,0.230,-2.350
2802,0.250,-2.335
2803,0.280,-2.335
2804,0.265,-2.335
2805,0.270,-2.325
2806,0.300,-2.315
2807,0.345,-2.315
2808,0.375,-2.310
2809,0.375,-2.320
2810,0.415,-2.305
2811,0.400,-2.305
2812,0.415,-2.290
2813,0.455,-2.300
2814,0.425,-2.300
2815,0.465,-2.305
2816,0.465,-2.320
2817,0.470,-2.305
2818,0.400,-2.325
2819,0.395,-2.310
2820,0.405,-2.315
2821,0.410,-2.305
2822,0.450,-2.300
2823,0.425,-2.300
2824,0.430,-2.300
2825,0.460,-2.295
2826,0.490,-2.290
2827,0.525,-2.300
2828,0.465,-2.295
2829,0.490,-2.295
2830,0.465,-2.275
2831,0.480,-2.270
2832,0.485,-2.270
2833,0.465,-2.270
2834,0.470,-2.265
2835,0.470,-2.265
2836,0.410,-2.285
2837,0.340,-2.285
2838,0.325,-2.280
2839,0.330,-2.280
2840,0.355,-2.275
2841,0.350,-2.290
2842,0.335,-2.295
2843,0.345,-2.290
2844,0.305,-2.300
2845,0.270,-2.275
2846,0.270,-2.300
2847,0.235,-2.295
2848,0.255,-2.295
2849,0.270,-2.285
2850,0.225,-2.290
2851,0.215,-2.290
2852,0.220,-2.245
2853,0.275,-2.055
2854,0.420,-1.865
2855,0.545,-1.940
2856,0.480,-2.220
2857,0.010,-2.255
2858,-0.320,-2.285
2859,-0.275,-2.275
2860,-0.020,-2.245
2861,0.155,-2.255
2862,0.175,-2.255
2863,0.140,-2.245
2864,0.135,-2.245
2865,0.125,-2.240
2866,0.120,-2.230
2867,0.025,-2.235
2868,0.025,-2.235
2869,0.000,-2.235
2870,0.005,-2.245
2871,0.050,-2.225
2872,0.130,-2.235
2873,0.115,-2.215
2874,0.080,-2.210
2875,0.160,-2.215
2876,0.105,-2.200
2877,0.110,-2.195
2878,0.130,-2.165
2879,0.190,-2.175
2880,0.190,-2.150
2881,0.275,-2.135
2882,0.365,-2.135
2883,0.320,-2.150
2884,0.270,-2.125
2885,0.260,-2.120
2886,0.290,-2.130
2887,0.325,-2.140
2888,0.335,-2.125
2889,0.335,-2.150
2890,0.335,-2.140
2891,0.255,-2.150
2892,0.180,-2.140
2893,0.050,-2.145
2894,-0.050,-2.120
2895,-0.010,-2.125
2896,-0.060,-2.115
2897,0.020,-2.115
2898,0.030,-2.095
2899,0.010,-2.090
2900,0.010,-2.075
2901,-0.035,-2.055
2902,-0.075,-2.055
2903,-0.200,-2.045
2904,-0.090,-2.045
2905,-0.215,-2.010
2906,-0.410,-2.030
2907,-0.450,-2.005
2908,-0.435,-2.045
2909,-0.450,-2.015
2910,-0.435,-2.035
2911,-0.365,-2.060
2912,-0.400,-2.060
2913,-0.340,-2.035
2914,-0.265,-2.040
2915,-0.390,-2.040
2916,-0.355,-2.055
2917,-0.195,-2.005
2918,-0.120,-1.985
2919,-0.095,-1.970
2920,-0.090,-1.965
2921,-0.055,-1.985
2922,-0.150,-1.980
2923,-0.240,-1.895
2924,-0.055,-1.555
2925,0.185,-1.185
2926,0.495,-1.330
2927,0.565,-1.860
2928,0.200,-2.025
2929,-0.220,-2.025
2930,-0.200,-1.920
2931,-0.045,-1.825
2932,0.100,-1.750
2933,0.130,-1.780
2934,0.085,-1.775
2935,0.040,-1.770
2936,0.040,-1.610
2937,0.055,-1.550
2938,0.045,-1.570
2939,0.080,-1.515
2940,0.090,-1.530
2941,0.090,-1.500
2942,0.105,-1.430
2943,0.110,-1.425
2944,0.050,-1.325
2945,0.055,-1.305
2946,-0.005,-1.260
2947,0.060,-1.295
2948,-0.030,-1.220
2949,-0.025,-1.215
2950,-0.035,-1.190
2951,-0.140,-1.060
2952,-0.160,-1.035
2953,-0.080,-1.060
2954,-0.065,-1.055
2955,-0.030,-1.100
2956,0.000,-1.025
2957,0.070,-1.010
2958,0.130,-1.020
2959,0.220,-1.035
2960,0.210,-1.005
2961,0.235,-0.970
2962,0.275,-0.950
2963,0.330,-1.015
2964,0.255,-1.015
2965,0.215,-0.925
2966,0.250,-0.890
2967,0.285,-0.850
2968,0.375,-0.880
2969,0.395,-0.880
2970,0.485,-0.905
2971,0.535,-0.975
2972,0.455,-0.935
2973,0.350,-0.855
2974,0.270,-0.815
2975,0.225,-0.810
2976,0.295,-0.810
2977,0.340,-0.800
2978,0.250,-0.915
2979,0.135,-1.020
2980,0.180,-1.030
2981,0.205,-1.235
2982,0.180,-1.375
2983,0.080,-1.165
2984,0.070,-0.910
2985,0.040,-1.105
2986,0.005,-1.105
2987,0.060,-1.045
2988,0.075,-1.000
2989,0.090,-0.980
2990,0.095,-1.010
2991,0.085,-1.015
2992,0.095,-0.955
2993,0.080,-0.960
2994,0.115,-0.775
2995,0.175,-0.365
2996,0.340,0.000
2997,0.545,-0.030
2998,0.480,-0.705
2999,0.075,-1.190
3000,-0.380,-1.095
3001,-0.370,-0.825
3002,-0.140,-0.615
3003,0.070,-0.620
3004,0.130,-0.655
3005,0.125,-0.595
3006,0.095,-0.640
3007,0.045,-0.655
3008,0.110,-0.615
3009,0.070,-0.595
3010,0.075,-0.550
3011,0.085,-0.570
3012,0.145,-0.570
3013,0.055,-0.535
3014,-0.010,-0.485
3015,-0.010,-0.455
3016,0.010,-0.430
3017,0.035,-0.410
3018,-0.005,-0.400
3019,-0.040,-0.345
3020,-0.065,-0.310
3021,-0.115,-0.290
3022,-0.165,-0.325
3023,-0.190,-0.310
3024,-0.115,-0.305
3025,0.125,-0.295
3026,0.325,-0.330
3027,0.295,-0.385
3028,-0.010,-0.455
3029,0.000,-0.275
3030,0.050,-0.185
3031,0.160,-0.135
3032,0.200,-0.110
3033,0.270,-0.215
3034,0.315,-0.280
3035,0.330,-0.290
3036,0.290,-0.220
3037,0.215,-0.250
3038,0.200,-0.230
3039,0.245,-0.190
3040,0.295,-0.055
3041,0.225,-0.095
3042,0.375,0.005
3043,0.440,-0.060
3044,0.365,-0.080
3045,0.320,0.010
3046,0.305,0.055
3047,0.385,0.060
3048,0.400,0.050
3049,0.335,0.045
3050,0.185,0.010
3051,0.090,-0.190
3052,0.080,-0.145
3053,0.005,-0.110
3054,-0.010,-0.095
3055,-0.015,-0.115
3056,-0.025,-0.090
3057,-0.045,0.065
3058,-0.055,0.045
3059,-0.105,0.065
3060,-0.085,0.075
3061,-0.065,0.335
3062,0.045,0.800
3063,0.220,1.115
3064,0.380,0.885
3065,0.225,-0.030
3066,-0.320,-0.460
3067,-0.865,-0.335
3068,-0.885,-0.080
3069,-0.390,0.045
3070,-0.065,0.090
3071,-0.050,0.080
3072,-0.075,0.065
3073,0.030,0.080
3074,0.060,0.210
3075,0.075,0.195
3076,0.060,0.130
3077,-0.020,0.180
3078,-0.070,0.200
3079,-0.080,0.125
3080,-0.075,0.085
3081,-0.045,0.175
3082,-0.055,0.225
3083,-0.060,0.250
3084,-0.050,0.220
3085,-0.085,0.275
3086,-0.100,0.300
3087,-0.045,0.345
3088,-0.035,0.230
3089,-0.005,0.315
3090,0.000,0.445
3091,-0.010,0.395
3092,-0.025,0.435
3093,-0.145,0.460
3094,-0.145,0.465
3095,-0.150,0.445
3096,-0.210,0.475
3097,-0.215,0.405
3098,-0.200,0.350
3099,-0.110,0.465
3100,-0.105,0.435
3101,-0.235,0.395
3102,-0.505,0.445
3103,-0.435,0.390
3104,-0.300,0.370
3105,-0.255,0.370
3106,-0.190,0.455
3107,-0.110,0.885
3108,-0.005,1.420
3109,0.210,1.230
3110,0.225,0.345
3111,-0.125,0.105
3112,-0.510,0.215
3113,-0.440,0.340
3114,-0.145,0.520
3115,0.145,0.525
3116,0.205,0.505
3117,0.185,0.510
3118,0.185,0.480
3119,0.155,0.465
3120,0.120,0.475
3121,0.130,0.465
3122,0.120,0.500
3123,0.100,0.480
3124,0.080,0.460
3125,0.055,0.510
3126,0.035,0.520
3127,0.000,0.550
3128,0.000,0.570
3129,0.000,0.585
3130,-0.005,0.635
3131,-0.030,0.705
3132,-0.005,0.785
3133,-0.020,0.695
3134,0.000,0.650
3135,0.060,0.655
3136,0.050,0.700
3137,0.055,0.720
3138,0.095,0.720
3139,0.115,0.740
3140,0.105,0.745
3141,0.085,0.805
3142,0.070,0.675
3143,0.070,0.780
3144,0.055,0.710
3145,0.045,0.620
3146,0.035,0.630
3147,0.025,0.640
3148,0.030,0.690
3149,0.035,0.690
3150,0.055,0.690
3151,0.050,0.665
3152,0.000,0.705
3153,-0.005,0.680
3154,-0.045,0.680
3155,-0.045,0.800
3156,-0.010,0.665
3157,0.000,0.665
3158,0.000,0.765
3159,-0.015,0.800
3160,0.000,0.710
3161,-0.005,0.725
3162,-0.025,0.785
3163,-0.075,0.785
3164,-0.065,0.790
3165,-0.030,0.825
3166,-0.005,0.820
3167,0.010,0.820
3168,0.025,0.855
3169,0.020,0.775
3170,0.005,0.725
3171,-0.025,0.800
3172,-0.015,0.910
3173,0.015,0.965
3174,0.045,0.970
3175,0.075,1.030
3176,0.095,1.070
3177,0.090,1.040
3178,0.080,0.995
3179,0.015,0.845
3180,0.005,0.920
3181,0.035,0.925
3182,0.100,0.810
3183,0.150,0.770
3184,0.145,0.740
3185,0.085,0.720
3186,0.065,0.745
3187,0.055,0.775
3188,0.030,0.855
3189,0.000,0.860
3190,0.000,0.810
3191,0.025,0.775
3192,0.035,0.905
3193,0.110,1.315
3194,0.270,1.680
3195,0.425,1.645
3196,0.250,1.030
3197,-0.190,0.405
3198,-0.640,0.410
3199,-0.620,0.575
3200,-0.355,0.740
3201,-0.125,0.735
3202,-0.030,0.775
3203,-0.035,0.785
3204,-0.045,0.835
3205,-0.040,0.900
3206,-0.050,0.860
3207,-0.030,0.790
3208,-0.005,0.810
3209,0.000,0.915
3210,-0.040,0.815
3211,-0.075,0.840
3212,-0.100,0.925
3213,-0.150,0.960
3214,-0.080,0.950
3215,-0.045,0.930
3216,-0.035,0.980
3217,-0.005,1.020
3218,0.010,1.100
3219,0.015,1.085
3220,0.015,1.090
3221,0.035,1.130
3222,0.085,1.150
3223,0.020,1.125
3224,0.000,1.125
3225,-0.030,1.090
3226,0.025,1.115
3227,0.030,1.155
3228,0.025,1.185
3229,0.030,1.120
3230,0.035,1.145
3231,0.050,1.195
3232,-0.010,1.155
3233,-0.025,1.115
3234,-0.030,1.065
3235,0.010,1.055
3236,-0.010,1.015
3237,-0.005,1.085
3238,0.005,1.075
3239,0.000,1.090
3240,0.010,1.150
3241,0.025,1.150
3242,-0.015,1.110
3243,0.010,1.080
3244,0.005,1.010
3245,0.020,1.080
3246,0.040,1.135
3247,0.055,1.190
3248,0.060,1.215
3249,0.080,1.265
3250,0.065,1.230
3251,-0.005,1.150
3252,-0.085,1.030
3253,-0.130,1.055
3254,-0.140,1.005
3255,-0.090,0.980
3256,-0.070,0.905
3257,-0.075,0.890
3258,-0.080,0.895
3259,-0.075,0.875
3260,-0.065,0.845
3261,-0.070,0.825
3262,-0.050,0.825
3263,-0.085,0.895
3264,-0.060,0.840
3265,-0.085,0.805
3266,-0.090,0.840
3267,-0.075,1.210
3268,0.010,1.670
3269,0.205,1.690
3270,0.300,1.190
3271,0.140,0.395
3272,-0.435,0.310
3273,-0.660,0.470
3274,-0.535,0.670
3275,-0.265,0.830
3276,-0.090,0.775
3277,-0.065,0.790
3278,-0.055,0.820
3279,-0.050,0.890
3280,-0.090,0.875
3281,-0.105,0.800
3282,-0.110,0.865
3283,-0.120,0.885
3284,-0.125,0.815
3285,-0.130,0.805
3286,-0.115,0.840
3287,-0.110,0.890
3288,-0.125,0.880
3289,-0.130,0.890
3290,-0.115,0.865
3291,-0.120,0.875
3292,-0.120,0.980
3293,-0.140,0.965
3294,-0.140,0.920
3295,-0.145,0.950
3296,-0.145,0.955
3297,-0.145,0.960
3298,-0.165,0.985
3299,-0.135,1.000
3300,-0.105,1.010
3301,-0.110,1.000
3302,-0.105,1.030
3303,-0.095,0.980
3304,-0.105,0.925
3305,-0.095,1.000
3306,-0.080,0.915
3307,-0.090,0.905
3308,-0.100,0.835
3309,-0.065,0.895
3310,-0.060,0.910
3311,-0.085,0.960
3312,-0.075,0.940
3313,-0.100,0.905
3314,-0.110,0.980
3315,-0.100,0.950
3316,-0.105,0.985
3317,-0.105,1.020
3318,-0.060,1.065
3319,-0.015,1.045
3320,-0.010,1.040
3321,0.005,1.035
3322,-0.015,1.045
3323,-0.055,0.945
3324,-0.125,0.895
3325,-0.125,0.905
3326,-0.100,0.860
3327,-0.055,0.770
3328,-0.045,0.805
3329,-0.090,0.670
3330,-0.125,0.725
3331,-0.125,0.705
3332,-0.085,0.730
3333,-0.090,0.735
3334,-0.105,0.710
3335,-0.100,0.780
3336,-0.085,0.710
3337,-0.080,0.625
3338,-0.035,0.745
3339,0.015,1.290
3340,0.155,1.580
3341,0.395,1.405
3342,0.345,0.585
3343,-0.050,0.070
3344,-0.580,0.140
3345,-0.645,0.355
3346,-0.500,0.565
3347,-0.180,0.700
3348,-0.060,0.685
3349,-0.060,0.590
3350,-0.050,0.575
3351,-0.055,0.645
3352,-0.040,0.680
3353,-0.050,0.695
3354,-0.070,0.605
3355,-0.055,0.610
3356,-0.065,0.640
3357,-0.040,0.620
3358,-0.045,0.605
3359,-0.065,0.615
3360,-0.070,0.610
3361,-0.100,0.660
3362,-0.085,0.615
3363,-0.070,0.640
3364,-0.055,0.670
3365,-0.035,0.690
3366,-0.050,0.670
3367,-0.065,0.665
3368,-0.045,0.710
3369,-0.015,0.670
3370,-0.015,0.680
3371,-0.020,0.695
3372,0.000,0.710
3373,-0.010,0.700
3374,0.000,0.690
3375,0.030,0.660
3376,-0.010,0.630
3377,0.000,0.630
3378,0.005,0.615
3379,-0.005,0.585
3380,-0.005,0.595
3381,-0.010,0.615
3382,-0.025,0.645
3383,-0.010,0.625
3384,-0.010,0.635
3385,-0.015,0.650
3386,-0.020,0.670
3387,-0.020,0.615
3388,-0.005,0.575
3389,-0.015,0.645
3390,0.000,0.710
3391,0.010,0.750
3392,0.060,0.750
3393,0.075,0.815
3394,0.050,0.735
3395,0.000,0.640
3396,-0.030,0.570
3397,-0.100,0.565
3398,-0.105,0.575
3399,-0.070,0.510
3400,-0.045,0.445
3401,-0.035,0.415
3402,-0.040,0.425
3403,-0.070,0.395
3404,-0.045,0.370
3405,-0.050,0.395
3406,-0.055,0.425
3407,-0.050,0.450
3408,-0.060,0.385
3409,-0.025,0.345
3410,-0.015,0.380
3411,0.040,0.750
3412,0.175,1.225
3413,0.400,1.240
3414,0.305,0.720
3415,-0.075,-0.105
3416,-0.620,-0.130
3417,-0.670,0.050
3418,-0.380,0.255
3419,-0.115,0.365
3420,0.015,0.330
3421,0.035,0.325
3422,0.040,0.355
3423,0.035,0.350
3424,0.040,0.355
3425,0.035,0.310
3426,0.030,0.335
3427,0.025,0.320
3428,0.015,0.345
3429,0.115,0.395
3430,0.115,0.355
3431,0.010,0.375
3432,0.015,0.355
3433,0.025,0.375
3434,0.010,0.380
3435,0.010,0.400
3436,-0.005,0.415
3437,0.005,0.440
3438,0.045,0.470
3439,0.040,0.510
3440,0.045,0.475
3441,0.025,0.470
3442,0.060,0.490
3443,0.045,0.440
3444,0.065,0.460
3445,0.060,0.450
3446,0.060,0.430
3447,0.070,0.415
3448,0.070,0.390
3449,0.085,0.405
3450,0.055,0.450
3451,0.045,0.410
3452,0.075,0.370
3453,0.060,0.390
3454,0.090,0.385
3455,0.090,0.375
3456,0.125,0.380
3457,0.105,0.400
3458,0.085,0.430
3459,0.075,0.415
3460,0.125,0.400
3461,0.155,0.310
3462,0.185,0.290
3463,0.185,0.345
3464,0.150,0.335
3465,0.090,0.325
3466,0.035,0.305
3467,0.025,0.270
3468,0.015,0.335
3469,0.025,0.320
3470,0.035,0.265
3471,0.040,0.275
3472,0.050,0.280
3473,0.030,0.225
3474,0.070,0.445
3475,0.135,0.910
3476,0.315,1.160
3477,0.425,0.850
3478,0.135,-0.080
3479,-0.495,-0.305
3480,-0.670,-0.070
3481,-0.425,0.200
3482,-0.105,0.255
3483,0.010,0.235
3484,0.045,0.265
3485,0.030,0.210
3486,0.020,0.225
3487,0.015,0.245
3488,0.015,0.225
3489,0.035,0.215
3490,0.000,0.235
3491,0.030,0.210
3492,0.030,0.235
3493,0.015,0.235
3494,0.015,0.220
3495,0.015,0.220
3496,0.020,0.195
3497,0.030,0.180
3498,0.040,0.240
3499,0.015,0.295
3500,0.055,0.285
3501,0.040,0.290
3502,0.035,0.335
3503,0.040,0.340
3504,0.030,0.340
3505,0.065,0.300
3506,0.065,0.305
3507,0.065,0.305
3508,0.075,0.305
3509,0.085,0.280
3510,0.070,0.245
3511,0.055,0.205
3512,0.055,0.245
3513,0.075,0.240
3514,0.080,0.210
3515,0.045,0.235
3516,0.040,0.260
3517,0.055,0.295
3518,0.050,0.140
3519,0.060,0.185
3520,0.035,0.195
3521,0.015,0.230
3522,0.045,0.205
3523,0.035,0.225
3524,0.020,0.230
3525,0.005,0.225
3526,0.015,0.175
3527,0.010,0.155
3528,0.005,0.175
3529,0.005,0.155
3530,0.030,0.160
3531,0.000,0.135
3532,0.000,0.135
3533,0.020,0.255
3534,0.025,0.260
3535,0.065,0.310
3536,0.080,0.315
3537,0.100,0.330
3538,0.120,0.330
3539,0.050,0.260
3540,-0.005,0.135
3541,-0.070,0.180
3542,-0.070,0.160
3543,-0.005,0.145
3544,-0.010,0.085
3545,0.015,0.020
3546,0.000,0.010
3547,-0.025,0.005
3548,-0.030,0.005
3549,-0.030,0.015
3550,-0.025,-0.005
3551,-0.025,0.000
3552,-0.020,0.005
3553,-0.010,-0.090
3554,0.000,0.050
3555,0.055,0.480
3556,0.165,0.860
3557,0.355,0.810
3558,0.380,0.100
3559,0.105,-0.585
3560,-0.495,-0.615
3561,-0.575,-0.370
3562,-0.395,-0.115
3563,-0.115,-0.030
3564,0.000,-0.040
3565,0.000,-0.055
3566,0.000,-0.025
3567,0.000,-0.035
3568,0.000,-0.035
3569,0.000,0.010
3570,-0.005,0.000
3571,0.000,-0.045
3572,-0.005,0.005
3573,-0.005,-0.015
3574,-0.015,-0.060
3575,0.000,-0.010
3576,-0.010,0.005
3577,0.000,0.040
3578,0.000,0.055
3579,0.010,0.015
3580,0.025,0.095
3581,0.015,0.100
3582,0.025,0.090
3583,0.035,0.105
3584,0.015,0.125
3585,0.040,0.170
3586,0.025,0.150
3587,0.030,0.165
3588,0.040,0.185
3589,0.060,0.110
3590,0.070,0.105
3591,0.075,0.100
3592,0.085,0.015
3593,0.070,0.045
3594,0.085,0.050
3595,0.090,0.055
3596,0.070,0.075
3597,0.055,0.080
3598,0.075,0.080
3599,0.070,0.035
3600,0.085,0.065
3601,0.095,0.075
3602,0.075,0.085
3603,0.070,0.100
3604,0.045,0.110
3605,0.065,0.140
3606,0.105,0.145
3607,0.085,0.155
3608,0.115,0.145
3609,0.165,0.185
3610,0.180,0.220
3611,0.090,0.145
3612,0.020,0.090
3613,-0.020,0.065
3614,-0.050,0.005
3615,-0.010,-0.040
3616,0.030,-0.045
3617,0.060,-0.065
3618,0.015,-0.100
3619,-0.020,-0.160
3620,0.000,-0.140
3621,0.010,-0.135
3622,0.010,-0.135
3623,0.000,-0.130
3624,0.000,-0.100
3625,0.000,-0.095
3626,0.000,-0.205
3627,0.020,-0.010
3628,0.090,0.470
3629,0.315,0.745
3630,0.405,0.525
3631,0.215,-0.405
3632,-0.315,-0.760
3633,-0.595,-0.570
3634,-0.450,-0.285
3635,-0.170,-0.130
3636,0.005,-0.160
3637,0.030,-0.155
3638,0.045,-0.190
3639,0.050,-0.205
3640,0.020,-0.165
3641,0.025,-0.180
3642,0.020,-0.210
3643,0.005,-0.185
3644,0.005,-0.175
3645,0.015,-0.145
3646,0.005,-0.170
3647,0.000,-0.135
3648,0.000,-0.130
3649,0.000,-0.135
3650,-0.010,-0.100
3651,0.000,-0.090
3652,0.005,-0.080
3653,-0.010,-0.020
3654,-0.005,-0.050
3655,0.010,-0.045
3656,0.015,-0.040
3657,0.035,0.010
3658,0.040,-0.020
3659,0.000,-0.010
3660,0.015,0.010
3661,0.035,0.000
3662,0.065,-0.030
3663,0.035,-0.065
3664,0.055,-0.090
3665,0.090,-0.115
3666,0.070,-0.065
3667,0.045,-0.085
3668,0.055,-0.105
3669,0.055,-0.095
3670,0.075,-0.075
3671,0.080,-0.060
3672,0.075,-0.075
3673,0.085,-0.060
3674,0.090,-0.020
3675,0.065,-0.065
3676,0.065,-0.105
3677,0.070,-0.020
3678,0.100,0.055
3679,0.105,0.055
3680,0.125,0.055
3681,0.140,0.080
3682,0.155,0.070
3683,0.105,0.000
3684,0.010,-0.090
3685,-0.020,-0.040
3686,-0.040,-0.055
3687,0.015,-0.135
3688,0.055,-0.175
3689,0.060,-0.175
3690,0.035,-0.230
3691,0.035,-0.230
3692,0.025,-0.200
3693,0.015,-0.190
3694,0.030,-0.230
3695,0.050,-0.200
3696,0.020,-0.255
3697,0.020,-0.270
3698,0.030,-0.180
3699,0.095,0.235
3700,0.210,0.640
3701,0.410,0.635
3702,0.440,-0.030
3703,0.140,-0.730
3704,-0.415,-0.810
3705,-0.545,-0.535
3706,-0.345,-0.330
3707,-0.035,-0.290
3708,0.065,-0.265
3709,0.055,-0.250
3710,0.055,-0.230
3711,0.040,-0.185
3712,0.035,-0.185
3713,0.030,-0.270
3714,0.040,-0.240
3715,0.030,-0.220
3716,0.020,-0.245
3717,0.030,-0.220
3718,0.025,-0.195
3719,0.015,-0.185
3720,0.030,-0.205
3721,0.040,-0.170
3722,0.010,-0.130
3723,0.025,-0.110
3724,0.035,-0.080
3725,0.020,-0.095
3726,0.050,-0.045
3727,0.030,-0.035
3728,0.050,-0.055
3729,0.055,0.000
3730,0.050,-0.030
3731,0.050,0.020
3732,0.060,0.015
3733,0.040,-0.015
3734,0.090,-0.040
3735,0.070,-0.095
3736,0.080,-0.095
3737,0.100,-0.115
3738,0.075,-0.095
3739,0.070,-0.140
3740,0.075,-0.135
3741,0.080,-0.100
3742,0.085,-0.070
3743,0.090,-0.075
3744,0.075,-0.075
3745,0.085,-0.070
3746,0.095,-0.085
3747,0.115,-0.045
3748,0.100,-0.010
3749,0.135,0.040
3750,0.165,0.035
3751,0.200,0.015
3752,0.205,0.095
3753,0.175,0.025
3754,0.115,-0.030
3755,0.065,-0.090
3756,0.015,-0.075
3757,0.015,-0.080
3758,0.060,-0.205
3759,0.085,-0.240
3760,0.070,-0.225
3761,0.055,-0.275
3762,0.015,-0.265
3763,0.010,-0.280
3764,0.010,-0.315
3765,0.035,-0.285
3766,0.030,-0.245
3767,0.010,-0.285
3768,0.010,-0.320
3769,0.030,-0.285
3770,0.095,0.115
3771,0.195,0.575
3772,0.390,0.630
3773,0.440,0.005
3774,0.155,-0.790
3775,-0.425,-0.850
3776,-0.570,-0.640
3777,-0.350,-0.385
3778,-0.110,-0.315
3779,0.020,-0.335
3780,0.030,-0.280
3781,0.015,-0.295
3782,0.015,-0.365
3783,0.010,-0.320
3784,0.000,-0.320
3785,0.000,-0.345
3786,0.000,-0.310
3787,0.000,-0.335
3788,-0.020,-0.315
3789,-0.020,-0.320
3790,-0.020,-0.355
3791,0.000,-0.290
3792,-0.030,-0.345
3793,0.000,-0.230
3794,0.010,-0.215
3795,0.000,-0.200
3796,-0.005,-0.095
3797,0.005,-0.075
3798,0.000,-0.195
3799,-0.010,-0.230
3800,0.010,-0.155
3801,-0.050,-0.085
3802,-0.020,-0.115
3803,-0.035,-0.225
3804,0.015,-0.260
3805,0.055,-0.155
3806,0.005,-0.350
3807,0.085,-0.350
3808,0.165,-0.255
3809,0.365,-0.090
3810,0.010,-0.155
3811,-0.205,-0.315
3812,-0.135,-0.330
3813,-0.030,-0.430
3814,-0.040,-0.465
3815,0.030,-0.525
3816,0.080,-0.235
3817,0.050,-0.140
3818,0.025,-0.170
3819,0.075,-0.245
3820,0.165,-0.195
3821,0.050,0.130
3822,0.025,0.020
3823,0.335,0.000
3824,0.465,0.095
3825,-0.095,-0.015
3826,-0.250,-0.125
3827,-0.120,-0.250
3828,-0.070,-0.275
3829,-0.020,-0.220
3830,-0.005,-0.195
3831,0.010,-0.050
3832,0.035,0.005
3833,0.055,0.080
3834,-0.005,-0.440
3835,-0.005,-0.515
3836,0.150,-0.320
3837,-0.010,-0.060
3838,-0.230,-0.190
3839,-0.100,-0.240
3840,-0.200,-0.140
3841,-0.180,0.155
3842,-0.035,0.470
3843,0.145,0.935
3844,0.250,0.670
3845,0.215,-0.480
3846,-0.245,-0.940
3847,-0.660,-0.545
3848,-0.530,-0.210
3849,-0.260,-0.015
3850,-0.095,0.115
3851,-0.115,-0.085
3852,-0.100,-0.250
3853,-0.020,-0.240
3854,0.015,-0.250
3855,-0.035,-0.225
3856,-0.125,-0.010
3857,-0.165,0.210
3858,-0.215,0.095
3859,-0.250,-0.055
3860,-0.235,-0.060
3861,-0.240,-0.025
3862,-0.260,0.055
3863,-0.285,0.290
3864,-0.270,0.155
3865,-0.280,0.290
3866,-0.280,0.390
3867,-0.230,0.485
3868,-0.240,0.430
3869,-0.180,0.290
3870,-0.125,0.300
3871,-0.135,0.235
3872,-0.145,0.175
3873,-0.115,0.235
3874,-0.140,0.275
3875,-0.130,0.325
3876,-0.105,0.250
3877,-0.055,0.295
3878,-0.120,0.255
3879,-0.145,0.295
3880,-0.055,0.500
3881,0.020,0.305
3882,0.100,0.185
3883,0.020,0.225
3884,-0.105,0.305
3885,-0.045,0.315
3886,0.095,0.130
3887,0.135,0.210
3888,0.130,0.125
3889,0.170,0.050
3890,0.130,0.115
3891,0.075,0.025
3892,-0.010,-0.035
3893,-0.020,-0.040
3894,-0.050,-0.035
3895,-0.085,0.035
3896,-0.065,-0.045
3897,-0.040,-0.220
3898,0.025,-0.380
3899,0.295,-0.075
3900,-0.065,0.100
3901,-0.355,0.535
3902,-0.120,0.635
3903,0.125,0.110
3904,0.175,-0.730
3905,-0.380,-0.615
3906,-0.630,-0.595
3907,-0.535,-0.545
3908,-0.165,-0.400
3909,0.050,-0.395
3910,0.095,-0.355
3911,0.130,-0.215
3912,0.025,-0.160
3913,-0.060,-0.220
3914,-0.100,-0.235
3915,0.085,-0.300
3916,0.330,-0.300
3917,0.325,-0.190
3918,0.235,-0.375
3919,0.555,-0.400
3920,0.475,-0.315
3921,0.250,-0.275
3922,0.100,-0.195
3923,0.240,-0.190
3924,0.350,-0.175
3925,0.415,-0.160
3926,0.400,0.040
3927,0.290,0.040
3928,0.230,0.080
3929,0.225,0.025
3930,0.150,-0.030
3931,0.300,-0.030
3932,0.295,0.035
3933,0.105,0.015
3934,-0.025,0.000
3935,0.020,0.015
3936,0.070,0.005
3937,0.110,-0.045
3938,0.115,-0.055
3939,0.080,0.000
3940,0.025,-0.085
3941,0.045,-0.155
3942,0.015,-0.095
3943,0.000,-0.065
3944,-0.025,0.000
3945,-0.005,-0.020
3946,0.030,-0.050
3947,-0.015,-0.015
3948,-0.015,0.000
3949,-0.025,0.015
3950,-0.065,0.010
3951,-0.090,-0.075
3952,-0.095,-0.030
3953,-0.110,-0.025
3954,-0.105,-0.045
3955,-0.145,-0.115
3956,-0.170,-0.135
3957,-0.175,-0.180
3958,-0.140,-0.175
3959,-0.105,-0.190
3960,-0.075,-0.245
3961,-0.060,-0.200
3962,-0.070,-0.160
3963,-0.065,-0.230
3964,0.035,-0.195
3965,0.205,-0.185
3966,0.085,-0.195
3967,-0.090,-0.295
3968,-0.090,-0.365
3969,-0.040,-0.340
3970,-0.020,-0.310
3971,0.070,-0.335
3972,0.140,-0.385
3973,0.170,-0.385
3974,0.205,-0.440
3975,0.250,-0.430
3976,0.315,-0.445
3977,0.230,-0.445
3978,0.190,-0.450
3979,0.295,-0.395
3980,0.265,-0.390
3981,0.185,-0.310
3982,0.145,-0.020
3983,0.155,0.445
3984,0.205,0.615
3985,0.525,0.130
3986,0.220,-0.790
3987,0.005,-0.965
3988,-0.780,-0.730
3989,-0.655,-0.500
3990,-0.125,-0.440
3991,0.115,-0.400
3992,0.080,-0.340
3993,0.015,-0.405
3994,0.030,-0.360
3995,0.055,-0.365
3996,0.120,-0.375
3997,0.335,-0.455
3998,0.585,-0.315
3999,0.180,-0.195
4000,-0.380,-0.160
4001,-0.295,-0.215
4002,-0.115,-0.240
4003,-0.015,-0.285
4004,0.035,-0.275
4005,0.085,-0.135
4006,0.075,-0.120
4007,0.165,-0.165
4008,0.215,-0.085
4009,0.230,-0.015
4010,-0.005,-0.025
4011,-0.325,-0.075
4012,-0.125,-0.060
4013,-0.010,-0.015
4014,-0.025,0.015
4015,-0.075,0.035
4016,-0.095,-0.030
4017,-0.100,-0.095
4018,-0.115,-0.085
4019,-0.090,-0.145
4020,-0.090,-0.170
4021,-0.140,-0.220
4022,-0.150,-0.180
4023,-0.130,-0.205
4024,-0.125,-0.220
4025,-0.115,-0.115
4026,-0.130,-0.100
4027,-0.150,-0.205
4028,-0.185,-0.110
4029,-0.195,-0.100
4030,-0.135,-0.060
4031,-0.100,0.015
4032,-0.080,-0.005
4033,-0.075,0.070
4034,-0.005,0.145
4035,0.010,0.225
4036,-0.005,0.205
4037,-0.005,0.170
4038,0.030,0.130
4039,0.010,0.060
4040,0.040,-0.005
4041,0.000,-0.045
4042,0.020,-0.105
4043,0.060,-0.205
4044,0.085,-0.250
4045,0.120,-0.280
4046,0.085,-0.370
4047,-0.040,-0.390
4048,-0.105,-0.405
4049,-0.020,-0.425
4050,0.000,-0.475
4051,0.015,-0.525
4052,0.040,-0.490
4053,0.040,-0.550
4054,0.020,-0.585
4055,0.040,-0.320
4056,0.090,0.260
4057,0.225,0.530
4058,0.410,0.280
4059,0.380,-0.655
4060,-0.025,-1.210
4061,-0.490,-1.085
4062,-0.585,-0.845
4063,-0.390,-0.630
4064,-0.125,-0.470
4065,-0.060,-0.470
4066,-0.085,-0.505
4067,-0.045,-0.510
4068,-0.045,-0.485
4069,-0.015,-0.490
4070,-0.010,-0.485
4071,-0.025,-0.500
4072,-0.020,-0.520
4073,-0.025,-0.490
4074,-0.035,-0.500
4075,-0.045,-0.480
4076,-0.055,-0.450
4077,-0.035,-0.410
4078,-0.060,-0.435
4079,-0.075,-0.465
4080,-0.090,-0.395
4081,-0.095,-0.405
4082,-0.105,-0.420
4083,-0.120,-0.365
4084,-0.100,-0.295
4085,-0.075,-0.330
4086,-0.100,-0.300
4087,-0.075,-0.270
4088,-0.055,-0.260
4089,-0.030,-0.255
4090,-0.010,-0.300
4091,-0.020,-0.340
4092,-0.005,-0.385
4093,-0.005,-0.345
4094,-0.025,-0.390
4095,-0.045,-0.390
4096,-0.065,-0.425
4097,-0.050,-0.400
4098,-0.075,-0.370
4099,-0.080,-0.390
4100,-0.090,-0.365
4101,-0.080,-0.365
4102,-0.110,-0.405
4103,-0.090,-0.395
4104,-0.060,-0.320
4105,0.005,-0.325
4106,0.035,-0.370
4107,0.010,-0.450
4108,-0.005,-0.485
4109,-0.065,-0.500
4110,-0.140,-0.520
4111,-0.175,-0.575
4112,-0.145,-0.610
4113,-0.180,-0.590
4114,-0.185,-0.575
4115,-0.160,-0.570
4116,-0.170,-0.565
4117,-0.155,-0.555
4118,-0.150,-0.580
4119,-0.125,-0.345
4120,-0.070,0.170
4121,0.135,0.465
4122,0.335,0.210
4123,0.230,-0.805
4124,-0.235,-1.160
4125,-0.650,-1.050
4126,-0.635,-0.810
4127,-0.395,-0.670
4128,-0.175,-0.615
4129,-0.115,-0.615
4130,-0.145,-0.605
4131,-0.160,-0.605
4132,-0.190,-0.600
4133,-0.195,-0.585
4134,-0.170,-0.600
4135,-0.155,-0.575
4136,-0.135,-0.570
4137,-0.125,-0.560
4138,-0.100,-0.590
4139,-0.075,-0.605
4140,-0.030,-0.600
4141,-0.025,-0.620
4142,-0.055,-0.610
4143,-0.020,-0.565
4144,-0.020,-0.585
4145,-0.025,-0.580
4146,-0.050,-0.565
4147,-0.085,-0.520
4148,-0.160,-0.535
4149,-0.225,-0.530
4150,-0.195,-0.525
4151,-0.175,-0.515
4152,-0.145,-0.505
4153,-0.145,-0.530
4154,-0.140,-0.545
4155,-0.160,-0.565
4156,-0.145,-0.560
4157,-0.165,-0.585
4158,-0.140,-0.600
4159,-0.150,-0.595
4160,-0.170,-0.590
4161,-0.135,-0.560
4162,-0.120,-0.560
4163,-0.120,-0.600
4164,-0.085,-0.320
4165,0.035,0.200
4166,0.275,0.130
4167,-0.090,-0.505
4168,-0.630,-1.000
4169,-0.770,-0.850
4170,-0.575,-0.630
4171,-0.235,-0.600
4172,-0.140,-0.630
4173,-0.095,-0.640
4174,-0.100,-0.670
4175,-0.120,-0.665
4176,-0.110,-0.665
4177,-0.140,-0.635
4178,-0.125,-0.640
4179,-0.135,-0.635
4180,-0.120,-0.645
4181,-0.125,-0.650
4182,-0.110,-0.635
4183,-0.105,-0.630
4184,-0.120,-0.580
4185,-0.130,-0.580
4186,-0.145,-0.580
4187,-0.135,-0.555
4188,-0.105,-0.535
4189,-0.095,-0.525
4190,-0.070,-0.510
4191,-0.080,-0.450
4192,-0.075,-0.420
4193,-0.040,-0.420
4194,-0.015,-0.405
4195,-0.015,-0.405
4196,-0.025,-0.400
4197,-0.030,-0.440
4198,-0.035,-0.400
4199,-0.025,-0.465
4200,-0.055,-0.510
4201,-0.060,-0.460
4202,-0.025,-0.480
4203,-0.035,-0.450
4204,-0.030,-0.535
4205,-0.015,-0.470
4206,-0.005,-0.425
4207,0.005,-0.445
4208,0.040,-0.495
4209,0.005,-0.460
4210,0.000,-0.405
4211,0.005,-0.420
4212,0.000,-0.450
4213,0.015,-0.425
4214,0.010,-0.445
4215,-0.010,-0.435
4216,0.000,-0.435
4217,0.000,-0.405
4218,0.020,-0.390
4219,0.005,-0.415
4220,-0.020,-0.460
4221,-0.050,-0.440
4222,0.000,-0.400
4223,0.000,-0.390
4224,0.000,-0.415
4225,0.000,-0.465
4226,-0.015,-0.475
4227,-0.025,-0.435
4228,-0.025,-0.415
4229,-0.005,-0.360
4230,0.030,-0.365
4231,0.055,-0.285
4232,0.025,-0.300
4233,0.035,-0.365
4234,-0.035,-0.480
4235,-0.070,-0.535
4236,-0.145,-0.490
4237,-0.110,-0.545
4238,-0.065,-0.630
4239,-0.070,-0.655
4240,-0.090,-0.665
4241,-0.105,-0.665
4242,-0.140,-0.690
4243,-0.095,-0.675
4244,-0.155,-0.705
4245,-0.140,-0.630
4246,-0.125,-0.675
4247,-0.125,-0.745
4248,-0.125,-0.695
4249,-0.085,-0.320
4250,-0.020,0.245
4251,0.230,0.400
4252,0.325,-0.045
4253,0.130,-1.065
4254,-0.400,-1.295
4255,-0.730,-1.160
4256,-0.650,-0.935
4257,-0.430,-0.675
4258,-0.225,-0.730
4259,-0.125,-0.710
4260,-0.130,-0.675
4261,-0.170,-0.690
4262,-0.150,-0.700
4263,-0.155,-0.695
4264,-0.145,-0.630
4265,-0.140,-0.680
4266,-0.145,-0.640
4267,-0.100,-0.645
4268,-0.115,-0.640
4269,-0.105,-0.620
4270,-0.100,-0.610
4271,-0.105,-0.600
4272,-0.100,-0.530
4273,-0.130,-0.505
4274,-0.110,-0.455
4275,-0.025,-0.375
4276,0.000,-0.395
4277,-0.010,-0.470
4278,-0.030,-0.485
4279,-0.040,-0.470
4280,-0.025,-0.425
4281,-0.015,-0.325
4282,-0.030,-0.275
4283,-0.070,-0.330
4284,-0.105,-0.345
4285,-0.095,-0.395
4286,-0.115,-0.385
4287,-0.105,-0.425
4288,-0.125,-0.460
4289,-0.145,-0.435
4290,-0.140,-0.475
4291,-0.120,-0.430
4292,-0.180,-0.450
4293,-0.165,-0.450
4294,-0.200,-0.455
4295,-0.220,-0.460
4296,-0.220,-0.170
4297,-0.150,0.270
4298,0.020,0.385
4299,0.255,-0.090
4300,0.290,-1.025
4301,-0.170,-1.060
4302,-0.490,-0.885
4303,-0.515,-0.625
4304,-0.330,-0.550
4305,-0.175,-0.575
4306,-0.145,-0.595
4307,-0.150,-0.620
4308,-0.190,-0.600
4309,-0.180,-0.615
4310,-0.205,-0.615
4311,-0.190,-0.610
4312,-0.175,-0.610
4313,-0.175,-0.600
4314,-0.155,-0.590
4315,-0.140,-0.585
4316,-0.170,-0.575
4317,-0.170,-0.540
4318,-0.185,-0.545
4319,-0.170,-0.530
4320,-0.165,-0.490
4321,-0.145,-0.500
4322,-0.205,-0.445
4323,-0.190,-0.425
4324,-0.160,-0.440
4325,-0.115,-0.420
4326,-0.070,-0.420
4327,-0.120,-0.355
4328,-0.160,-0.390
4329,-0.075,-0.380
4330,-0.030,-0.440
4331,-0.150,-0.460
4332,-0.005,-0.480
4333,0.140,-0.460
4334,0.045,-0.420
4335,-0.045,-0.415
4336,-0.140,-0.410
4337,-0.245,-0.395
4338,-0.185,-0.405
4339,-0.165,-0.430
4340,-0.105,-0.440
4341,-0.085,-0.450
4342,-0.010,-0.475
4343,0.105,-0.455
4344,-0.055,-0.470
4345,-0.140,-0.490
4346,-0.070,-0.490
4347,-0.020,-0.495
4348,0.000,-0.495
4349,-0.045,-0.520
4350,-0.080,-0.500
4351,-0.070,-0.500
4352,-0.090,-0.500
4353,-0.075,-0.480
4354,-0.100,-0.475
4355,-0.065,-0.475
4356,-0.080,-0.470
4357,-0.075,-0.435
4358,-0.055,-0.415
4359,-0.065,-0.405
4360,-0.060,-0.390
4361,-0.030,-0.350
4362,-0.010,-0.250
4363,0.015,-0.190
4364,0.050,-0.130
4365,0.095,-0.115
4366,0.120,-0.125
4367,0.110,-0.170
4368,0.070,-0.255
4369,0.070,-0.315
4370,0.040,-0.315
4371,0.045,-0.300
4372,0.090,-0.385
4373,0.100,-0.450
4374,0.095,-0.460
4375,0.095,-0.480
4376,0.035,-0.470
4377,0.025,-0.490
4378,0.000,-0.480
4379,0.005,-0.480
4380,0.000,-0.480
4381,0.000,-0.505
4382,0.030,-0.450
4383,0.085,-0.030
4384,0.225,0.445
4385,0.430,0.500
4386,0.315,0.015
4387,-0.060,-0.840
4388,-0.560,-0.965
4389,-0.630,-0.760
4390,-0.335,-0.570
4391,-0.080,-0.530
4392,0.035,-0.500
4393,0.070,-0.495
4394,0.050,-0.470
4395,0.045,-0.455
4396,0.040,-0.480
4397,0.010,-0.480
4398,0.010,-0.455
4399,0.000,-0.460
4400,0.015,-0.455
4401,0.000,-0.445
4402,0.000,-0.420
4403,0.005,-0.420
4404,0.010,-0.390
4405,0.015,-0.385
4406,0.025,-0.365
4407,0.020,-0.330
4408,0.020,-0.310
4409,0.040,-0.290
4410,0.045,-0.280
4411,0.050,-0.260
4412,0.040,-0.270
4413,0.060,-0.245
4414,0.060,-0.240
4415,0.080,-0.210
4416,0.080,-0.210
4417,0.070,-0.200
4418,0.070,-0.185
4419,0.045,-0.220
4420,0.045,-0.235
4421,0.045,-0.265
4422,0.060,-0.250
4423,0.060,-0.260
4424,0.060,-0.265
4425,0.070,-0.285
4426,0.065,-0.260
4427,0.060,-0.245
4428,0.065,-0.260
4429,0.075,-0.255
4430,0.065,-0.235
4431,0.065,-0.215
4432,0.070,-0.235
4433,0.035,-0.245
4434,0.055,-0.235
4435,0.035,-0.195
4436,0.050,-0.140
4437,0.065,-0.095
4438,0.090,-0.085
4439,0.110,-0.015
4440,0.140,-0.100
4441,0.100,-0.150
4442,0.030,-0.225
4443,-0.020,-0.280
4444,-0.025,-0.225
4445,-0.035,-0.290
4446,0.000,-0.355
4447,0.025,-0.330
4448,0.040,-0.385
4449,0.000,-0.415
4450,-0.015,-0.430
4451,-0.005,-0.400
4452,0.005,-0.425
4453,0.000,-0.415
4454,-0.005,-0.420
4455,0.000,-0.415
4456,-0.005,-0.455
4457,0.020,-0.370
4458,0.080,0.075
4459,0.205,0.580
4460,0.415,0.575
4461,0.420,-0.165
4462,0.175,-0.945
4463,-0.385,-0.985
4464,-0.550,-0.725
4465,-0.400,-0.535
4466,-0.110,-0.405
4467,0.020,-0.410
4468,0.015,-0.405
4469,0.020,-0.390
4470,0.005,-0.410
4471,0.000,-0.370
4472,-0.005,-0.385
4473,-0.010,-0.415
4474,-0.020,-0.365
4475,-0.025,-0.380
4476,-0.005,-0.375
4477,-0.010,-0.350
4478,-0.020,-0.380
4479,0.000,-0.325
4480,-0.005,-0.335
4481,0.000,-0.280
4482,-0.005,-0.280
4483,-0.005,-0.265
4484,0.000,-0.235
4485,-0.030,-0.230
4486,-0.045,-0.255
4487,0.005,-0.215
4488,-0.015,-0.170
4489,-0.025,-0.175
4490,-0.005,-0.155
4491,-0.010,-0.145
4492,0.010,-0.190
4493,0.015,-0.195
4494,0.010,-0.215
4495,0.010,-0.210
4496,0.015,-0.255
4497,0.025,-0.235
4498,0.015,-0.250
4499,0.040,-0.210
4500,0.035,-0.210
4501,0.040,-0.200
4502,0.025,-0.215
4503,0.065,-0.180
4504,0.065,-0.205
4505,0.020,-0.195
4506,0.040,-0.215
4507,0.065,-0.170
4508,0.115,-0.215
4509,0.115,-0.255
4510,0.115,-0.210
4511,0.100,-0.260
4512,0.040,-0.275
4513,-0.020,-0.285
4514,-0.015,-0.310
4515,-0.025,-0.295
4516,-0.020,-0.285
4517,-0.010,-0.285
4518,-0.020,-0.280
4519,-0.015,-0.290
4520,-0.020,-0.350
4521,-0.005,-0.070
4522,0.050,0.455
4523,0.260,0.675
4524,0.465,0.355
4525,0.370,-0.695
4526,-0.205,-0.905
4527,-0.575,-0.760
4528,-0.560,-0.520
4529,-0.265,-0.330
4530,-0.065,-0.310
4531,0.005,-0.295
4532,0.000,-0.320
4533,-0.005,-0.305
4534,-0.020,-0.300
4535,-0.015,-0.290
4536,-0.020,-0.320
4537,-0.035,-0.315
4538,-0.035,-0.315
4539,-0.040,-0.325
4540,-0.045,-0.305
4541,-0.035,-0.315
4542,-0.055,-0.315
4543,-0.045,-0.315
4544,-0.035,-0.310
4545,-0.055,-0.280
4546,-0.060,-0.285
4547,-0.055,-0.260
4548,-0.030,-0.250
4549,-0.010,-0.235
4550,-0.020,-0.245
4551,0.000,-0.230
4552,0.005,-0.210
4553,0.000,-0.205
4554,0.025,-0.200
4555,0.030,-0.240
4556,0.025,-0.250
4557,0.010,-0.270
4558,0.015,-0.280
4559,0.015,-0.265
4560,0.020,-0.285
4561,0.030,-0.275
4562,0.010,-0.290
4563,0.010,-0.260
4564,0.015,-0.250
4565,0.020,-0.235
4566,0.000,-0.215
4567,0.010,-0.220
4568,0.035,-0.210
4569,0.050,-0.235
4570,0.015,-0.225
4571,0.005,-0.225
4572,0.000,-0.250
4573,-0.005,-0.240
4574,0.000,-0.245
4575,-0.005,-0.245
4576,0.000,-0.260
4577,-0.005,-0.265
4578,0.000,-0.265
4579,0.000,-0.270
4580,0.005,-0.200
4581,0.000,-0.140
4582,0.065,-0.080
4583,0.075,-0.085
4584,0.110,-0.045
4585,0.115,-0.050
4586,0.090,-0.160
4587,0.035,-0.225
4588,-0.020,-0.255
4589,-0.040,-0.210
4590,-0.010,-0.230
4591,0.005,-0.305
4592,0.020,-0.335
4593,0.020,-0.365
4594,0.010,-0.365
4595,0.000,-0.370
4596,0.000,-0.355
4597,0.015,-0.360
4598,0.035,-0.360
4599,0.030,-0.350
4600,0.020,-0.405
4601,0.035,-0.215
4602,0.105,0.255
4603,0.275,0.635
4604,0.445,0.470
4605,0.205,-0.385
4606,-0.305,-0.900
4607,-0.685,-0.770
4608,-0.540,-0.505
4609,-0.195,-0.380
4610,0.025,-0.340
4611,0.070,-0.355
4612,0.065,-0.340
4613,0.060,-0.335
4614,0.050,-0.320
4615,0.050,-0.315
4616,0.065,-0.330
4617,0.065,-0.315
4618,0.060,-0.300
4619,0.050,-0.290
4620,0.050,-0.295
4621,0.055,-0.285
4622,0.050,-0.265
4623,0.055,-0.255
4624,0.050,-0.235
4625,0.095,-0.210
4626,0.080,-0.175
4627,0.080,-0.140
4628,0.100,-0.140
4629,0.115,-0.100
4630,0.100,-0.100
4631,0.110,-0.075
4632,0.125,-0.055
4633,0.120,-0.050
4634,0.130,-0.035
4635,0.115,-0.050
4636,0.120,-0.055
4637,0.125,-0.085
4638,0.105,-0.090
4639,0.115,-0.135
4640,0.115,-0.155
4641,0.110,-0.165
4642,0.100,-0.175
4643,0.090,-0.145
4644,0.115,-0.155
4645,0.125,-0.130
4646,0.110,-0.145
4647,0.135,-0.145
4648,0.135,-0.110
4649,0.130,-0.120
4650,0.115,-0.095
4651,0.115,-0.120
4652,0.125,-0.100
4653,0.110,-0.060
4654,0.115,0.000
4655,0.140,0.035
4656,0.175,0.030
4657,0.210,0.070
4658,0.180,0.030
4659,0.135,-0.005
4660,0.075,-0.090
4661,0.020,-0.115
4662,0.015,-0.115
4663,0.070,-0.155
4664,0.100,-0.200
4665,0.080,-0.235
4666,0.080,-0.245
4667,0.055,-0.245
4668,0.065,-0.250
4669,0.040,-0.260
4670,0.045,-0.260
4671,0.065,-0.250
4672,0.070,-0.260
4673,0.080,-0.295
4674,0.065,-0.235
4675,0.130,0.175
4676,0.210,0.655
4677,0.440,0.685
4678,0.440,-0.035
4679,0.110,-0.775
4680,-0.425,-0.800
4681,-0.520,-0.575
4682,-0.270,-0.335
4683,-0.030,-0.300
4684,0.045,-0.280
4685,0.060,-0.275
4686,0.040,-0.260
4687,0.040,-0.280
4688,0.035,-0.285
4689,0.050,-0.270
4690,0.020,-0.270
4691,0.055,-0.280
4692,0.030,-0.315
4693,0.015,-0.250
4694,0.045,-0.235
4695,0.055,-0.245
4696,0.050,-0.220
4697,0.045,-0.240
4698,0.050,-0.195
4699,0.055,-0.185
4700,0.050,-0.125
4701,0.060,-0.110
4702,0.070,-0.120
4703,0.055,-0.095
4704,0.045,-0.050
4705,0.045,-0.035
4706,0.055,-0.035
4707,0.065,-0.030
4708,0.050,-0.040
4709,0.055,-0.075
4710,0.085,-0.075
4711,0.075,-0.085
4712,0.085,-0.170
4713,0.095,-0.135
4714,0.095,-0.140
4715,0.100,-0.165
4716,0.095,-0.165
4717,0.095,-0.140
4718,0.120,-0.145
4719,0.100,-0.130
4720,0.095,-0.110
4721,0.110,-0.120
4722,0.135,-0.115
4723,0.115,-0.125
4724,0.100,-0.115
4725,0.090,-0.065
4726,0.120,-0.035
4727,0.180,-0.070
4728,0.205,-0.100
4729,0.185,-0.115
4730,0.140,-0.155
4731,0.080,-0.210
4732,0.025,-0.230
4733,0.020,-0.230
4734,0.045,-0.185
4735,0.035,-0.220
4736,0.055,-0.250
4737,0.030,-0.215
4738,0.040,-0.225
4739,0.030,-0.270
4740,0.040,-0.100
4741,0.095,0.440
4742,0.260,0.710
4743,0.510,0.460
4744,0.450,-0.535
4745,-0.045,-0.840
4746,-0.505,-0.730
4747,-0.510,-0.460
4748,-0.260,-0.280
4749,-0.035,-0.225
4750,0.050,-0.240
4751,0.040,-0.255
4752,0.025,-0.250
4753,0.020,-0.230
4754,0.015,-0.245
4755,0.035,-0.250
4756,0.015,-0.250
4757,0.025,-0.235
4758,0.020,-0.240
4759,0.010,-0.245
4760,0.015,-0.250
4761,0.025,-0.225
4762,0.030,-0.200
4763,0.040,-0.220
4764,0.040,-0.235
4765,0.010,-0.200
4766,0.040,-0.185
4767,0.070,-0.195
4768,0.080,-0.220
4769,0.110,-0.155
4770,0.095,-0.100
4771,0.095,-0.100
4772,0.040,-0.100
4773,0.010,-0.105
4774,0.015,-0.105
4775,0.040,-0.145
4776,0.040,-0.175
4777,0.045,-0.200
4778,0.055,-0.195
4779,0.055,-0.200
4780,0.050,-0.215
4781,0.055,-0.205
4782,0.065,-0.200
4783,0.055,-0.175
4784,0.060,-0.200
4785,0.050,-0.105
4786,0.140,0.335
4787,0.335,0.660
4788,0.435,0.310
4789,-0.025,-0.445
4790,-0.485,-0.650
4791,-0.585,-0.405
4792,-0.320,-0.235
4793,-0.045,-0.240
4794,0.040,-0.255
4795,0.040,-0.265
4796,0.025,-0.285
4797,0.020,-0.275
4798,0.015,-0.295
4799,0.005,-0.290
4800,0.000,-0.320
4801,0.010,-0.320
4802,0.015,-0.310
4803,0.015,-0.320
4804,0.030,-0.300
4805,0.020,-0.300
4806,0.040,-0.275
4807,0.020,-0.270
4808,0.035,-0.255
4809,0.030,-0.215
4810,0.025,-0.185
4811,0.045,-0.155
4812,0.070,-0.140
4813,0.070,-0.110
4814,0.070,-0.095
4815,0.065,-0.075
4816,0.090,-0.070
4817,0.090,-0.085
4818,0.105,-0.080
4819,0.100,-0.120
4820,0.105,-0.135
4821,0.070,-0.170
4822,0.075,-0.160
4823,0.085,-0.155
4824,0.070,-0.175
4825,0.055,-0.170
4826,0.050,-0.170
4827,0.075,-0.175
4828,0.050,-0.175
4829,0.060,-0.185
4830,0.060,-0.200
4831,0.060,-0.195
4832,0.065,-0.185
4833,0.060,-0.190
4834,0.060,-0.210
4835,0.045,-0.195
4836,0.050,-0.200
4837,0.055,-0.205
4838,0.045,-0.225
4839,0.065,-0.205
4840,0.045,-0.205
4841,0.045,-0.215
4842,0.050,-0.210
4843,0.055,-0.210
4844,0.065,-0.200
4845,0.060,-0.205
4846,0.040,-0.210
4847,0.050,-0.200
4848,0.065,-0.195
4849,0.065,-0.205
4850,0.065,-0.170
4851,0.070,-0.110
4852,0.090,-0.055
4853,0.135,-0.045
4854,0.165,-0.010
4855,0.170,0.000
4856,0.125,-0.060
4857,0.060,-0.160
4858,0.035,-0.180
4859,-0.005,-0.170
4860,0.030,-0.200
4861,0.055,-0.240
4862,0.075,-0.265
4863,0.065,-0.300
4864,0.045,-0.300
4865,0.050,-0.310
4866,0.030,-0.305
4867,0.035,-0.280
4868,0.040,-0.285
4869,0.045,-0.285
4870,0.065,-0.305
4871,0.105,0.000
4872,0.165,0.525
4873,0.375,0.745
4874,0.470,0.470
4875,0.275,-0.440
4876,-0.230,-0.800
4877,-0.560,-0.645
4878,-0.440,-0.410
4879,-0.100,-0.325
4880,0.065,-0.300
4881,0.095,-0.265
4882,0.095,-0.290
4883,0.100,-0.275
4884,0.105,-0.275
4885,0.090,-0.290
4886,0.090,-0.265
4887,0.100,-0.250
4888,0.070,-0.235
4889,0.060,-0.275
4890,0.070,-0.260
4891,0.080,-0.250
4892,0.085,-0.230
4893,0.095,-0.185
4894,0.070,-0.170
4895,0.095,-0.135
4896,0.090,-0.115
4897,0.085,-0.100
4898,0.095,-0.050
4899,0.075,-0.080
4900,0.085,-0.005
4901,0.100,0.000
4902,0.120,0.040
4903,0.125,0.020
4904,0.135,0.040
4905,0.145,0.090
4906,0.130,0.050
4907,0.155,0.065
4908,0.150,0.010
4909,0.180,0.010
4910,0.140,0.015
4911,0.120,0.010
4912,0.160,-0.035
4913,0.180,-0.020
4914,0.220,0.005
4915,0.215,0.010
4916,0.240,0.000
4917,0.190,0.000
4918,0.160,0.010
4919,0.150,0.015
4920,0.120,0.010
4921,0.100,0.025
4922,0.100,0.000
4923,0.090,0.005
4924,0.105,0.025
4925,0.100,0.095
4926,0.100,0.135
4927,0.125,0.100
4928,0.155,0.125
4929,0.150,0.090
4930,0.130,0.045
4931,0.055,-0.070
4932,-0.010,-0.090
4933,-0.065,-0.095
4934,-0.045,-0.135
4935,0.000,-0.170
4936,0.015,-0.230
4937,0.010,-0.275
4938,0.065,-0.255
4939,0.110,-0.275
4940,0.000,-0.275
4941,0.055,-0.255
4942,0.000,-0.220
4943,-0.155,-0.245
4944,-0.135,-0.230
4945,-0.080,-0.255
4946,-0.025,0.000
4947,0.045,0.480
4948,0.195,0.730
4949,0.390,0.525
4950,0.355,-0.495
4951,-0.085,-0.820
4952,-0.545,-0.725
4953,-0.545,-0.485
4954,-0.305,-0.280
4955,-0.085,-0.250
4956,0.005,-0.235
4957,0.005,-0.230
4958,0.020,-0.225
4959,0.020,-0.220
4960,0.015,-0.235
4961,0.025,-0.230
4962,0.020,-0.240
4963,0.025,-0.215
4964,0.015,-0.240
4965,0.005,-0.220
4966,0.005,-0.220
4967,0.005,-0.215
4968,0.025,-0.215
4969,0.005,-0.215
4970,0.000,-0.205
4971,0.015,-0.195
4972,0.000,-0.185
4973,0.015,-0.160
4974,0.010,-0.185
4975,0.035,-0.160
4976,0.040,-0.160
4977,0.030,-0.125
4978,0.035,-0.130
4979,0.030,-0.090
4980,0.055,-0.100
4981,0.055,-0.120
4982,0.080,-0.135
4983,0.085,-0.175
4984,0.080,-0.160
4985,0.110,-0.185
4986,0.100,-0.170
4987,0.105,-0.160
4988,0.105,-0.155
4989,0.115,-0.130
4990,0.120,-0.120
4991,0.135,-0.095
4992,0.140,-0.110
4993,0.120,-0.075
4994,0.130,-0.075
4995,0.125,-0.050
4996,0.140,-0.025
4997,0.120,0.025
4998,0.150,0.095
4999,0.175,0.120
5000,0.175,0.140
5001,0.210,0.155
5002,0.185,0.135
5003,0.140,0.065
5004,0.085,-0.030
5005,0.050,-0.040
5006,0.035,-0.070
5007,0.065,-0.100
5008,0.105,-0.145
5009,0.105,-0.190
5010,0.090,-0.215
5011,0.065,-0.225
5012,0.055,-0.200
5013,0.060,-0.220
5014,0.070,-0.240
5015,0.065,-0.235
5016,0.090,-0.240
5017,0.095,-0.245
5018,0.100,-0.270
5019,0.160,0.030
5020,0.230,0.530
5021,0.420,0.735
5022,0.475,0.410
5023,0.225,-0.495
5024,-0.265,-0.775
5025,-0.545,-0.590
5026,-0.385,-0.375
5027,-0.090,-0.290
5028,0.070,-0.285
5029,0.120,-0.270
5030,0.140,-0.270
5031,0.120,-0.240
5032,0.115,-0.210
5033,0.100,-0.155
5034,0.000,-0.165
5035,0.020,-0.220
5036,0.060,-0.215
5037,0.035,-0.235
5038,0.030,-0.220
5039,0.030,-0.215
5040,0.080,-0.160
5041,0.105,-0.140
5042,0.015,-0.155
5043,-0.005,-0.135
5044,-0.035,-0.080
5045,-0.015,-0.060
5046,0.000,-0.100
5047,-0.005,-0.110
5048,0.050,-0.080
5049,0.075,-0.025
5050,0.035,0.010
5051,-0.005,0.015
5052,-0.075,0.035
5053,-0.030,-0.015
5054,0.020,-0.015
5055,0.100,-0.035
5056,0.085,-0.055
5057,0.095,-0.035
5058,0.145,-0.045
5059,0.030,-0.055
5060,0.025,-0.045
5061,0.030,0.010
5062,0.000,-0.025
5063,0.030,-0.055
5064,0.090,-0.030
5065,0.075,-0.010
5066,-0.045,0.050
5067,-0.055,0.040
5068,-0.030,0.005
5069,0.015,0.025
5070,0.030,0.085
5071,0.040,0.140
5072,0.080,0.120
5073,0.110,0.115
5074,0.080,0.060
5075,0.095,-0.030
5076,0.180,-0.120
5077,0.085,-0.140
5078,0.030,-0.185
5079,0.035,-0.120
5080,-0.025,-0.105
5081,-0.130,-0.190
5082,-0.095,-0.225
5083,0.025,-0.270
5084,0.090,-0.235
5085,0.065,-0.245
5086,0.025,-0.150
5087,0.070,0.310
5088,0.200,0.815
5089,0.440,0.805
5090,0.580,0.160
5091,0.415,-0.620
5092,-0.210,-0.680
5093,-0.595,-0.485
5094,-0.430,-0.210
5095,-0.080,-0.070
5096,0.120,-0.055
5097,0.125,-0.060
5098,0.125,-0.075
5099,0.130,-0.075
5100,0.135,-0.050
5101,0.110,-0.065
5102,0.115,-0.115
5103,0.190,-0.030
5104,0.215,-0.040
5105,0.215,-0.090
5106,0.110,-0.050
5107,0.065,-0.095
5108,0.155,-0.025
5109,0.175,-0.005
5110,0.165,-0.025
5111,0.195,-0.020
5112,0.130,0.000
5113,0.150,0.000
5114,0.185,0.000
5115,0.195,0.055
5116,0.205,0.010
5117,0.215,0.085
5118,0.215,0.115
5119,0.140,0.080
5120,0.140,0.065
5121,0.150,0.055
5122,0.185,0.035
5123,0.080,0.005
5124,0.080,-0.010
5125,0.125,0.005
5126,0.150,-0.005
5127,0.140,-0.010
5128,0.155,0.000
5129,0.170,0.020
5130,0.200,0.005
5131,0.200,-0.065
5132,0.180,0.070
5133,0.280,0.490
5134,0.295,0.840
5135,0.405,0.480
5136,0.445,-0.405
5137,0.045,-0.540
5138,-0.335,-0.370
5139,-0.300,-0.125
5140,-0.025,-0.035
5141,0.115,-0.055
5142,0.150,-0.025
5143,0.200,-0.060
5144,0.170,-0.065
5145,0.125,-0.055
5146,0.100,-0.070
5147,0.090,-0.080
5148,0.055,-0.080
5149,0.050,-0.120
5150,0.090,-0.085
5151,0.095,-0.120
5152,0.085,-0.135
5153,0.110,-0.120
5154,0.125,-0.080
5155,0.105,-0.035
5156,0.115,-0.060
5157,0.125,-0.035
5158,0.165,-0.015
5159,0.115,0.000
5160,0.040,0.030
5161,0.045,0.055
5162,0.090,0.060
5163,0.105,0.045
5164,0.145,0.035
5165,0.140,0.005
5166,0.160,-0.025
5167,0.175,-0.045
5168,0.210,-0.055
5169,0.225,-0.030
5170,0.145,-0.040
5171,0.150,-0.040
5172,0.120,-0.070
5173,0.105,-0.050
5174,0.095,-0.060
5175,0.110,-0.085
5176,0.110,-0.070
5177,0.125,-0.105
5178,0.125,-0.095
5179,0.150,-0.105
5180,0.140,-0.125
5181,0.145,-0.130
5182,0.130,-0.130
5183,0.105,-0.105
5184,0.090,-0.120
5185,0.075,-0.125
5186,0.050,-0.135
5187,0.100,-0.120
5188,0.085,-0.135
5189,0.110,-0.140
5190,0.070,-0.105
5191,0.085,-0.125
5192,0.060,-0.125
5193,0.075,-0.130
5194,0.125,-0.130
5195,0.095,-0.110
5196,0.075,-0.115
5197,0.080,-0.095
5198,0.085,-0.055
5199,0.105,0.015
5200,0.080,0.025
5201,0.155,0.085
5202,0.180,0.095
5203,0.160,0.020
5204,0.095,-0.055
5205,0.025,-0.110
5206,0.025,-0.085
5207,0.030,-0.100
5208,0.005,-0.150
5209,0.055,-0.205
5210,0.065,-0.245
5211,0.080,-0.245
5212,0.065,-0.280
5213,0.040,-0.265
5214,0.020,-0.255
5215,0.020,-0.255
5216,0.035,-0.245
5217,0.045,-0.290
5218,0.020,-0.230
5219,0.090,0.135
5220,0.180,0.660
5221,0.400,0.740
5222,0.345,0.260
5223,0.055,-0.660
5224,-0.485,-0.805
5225,-0.610,-0.550
5226,-0.335,-0.335
5227,-0.050,-0.295
5228,0.075,-0.300
5229,0.050,-0.290
5230,0.055,-0.275
5231,0.050,-0.290
5232,0.070,-0.260
5233,0.060,-0.270
5234,0.060,-0.255
5235,0.075,-0.270
5236,0.105,-0.255
5237,0.095,-0.225
5238,0.040,-0.240
5239,0.035,-0.225
5240,0.065,-0.210
5241,0.050,-0.190
5242,0.060,-0.170
5243,0.045,-0.135
5244,0.075,-0.110
5245,0.115,-0.105
5246,0.095,-0.060
5247,0.120,-0.030
5248,0.150,-0.050
5249,0.180,0.010
5250,0.110,0.010
5251,0.090,0.025
5252,0.105,0.000
5253,0.125,0.010
5254,0.130,-0.015
5255,0.100,-0.015
5256,0.085,-0.035
5257,0.130,-0.045
5258,0.115,-0.075
5259,0.125,-0.100
5260,0.070,-0.080
5261,0.115,-0.085
5262,0.140,-0.060
5263,0.110,-0.065
5264,0.080,-0.060
5265,0.065,-0.075
5266,0.120,-0.015
5267,0.075,-0.050
5268,0.105,-0.080
5269,0.095,-0.070
5270,0.090,-0.050
5271,0.100,-0.045
5272,0.110,0.015
5273,0.120,0.085
5274,0.150,0.150
5275,0.160,0.095
5276,0.170,0.100
5277,0.115,0.045
5278,0.070,-0.035
5279,-0.020,-0.085
5280,-0.015,-0.090
5281,0.030,-0.085
5282,0.065,-0.165
5283,0.090,-0.170
5284,0.010,-0.215
5285,0.025,-0.265
5286,0.030,-0.220
5287,0.000,-0.210
5288,0.000,-0.240
5289,0.035,-0.240
5290,0.065,-0.210
5291,0.045,-0.225
5292,0.000,-0.305
5293,0.010,-0.100
5294,0.055,0.405
5295,0.215,0.755
5296,0.440,0.555
5297,0.430,-0.405
5298,0.055,-0.910
5299,-0.440,-0.805
5300,-0.525,-0.555
5301,-0.305,-0.315
5302,-0.080,-0.245
5303,0.040,-0.320
5304,0.035,-0.245
5305,0.040,-0.255
5306,0.000,-0.250
5307,0.020,-0.255
5308,0.035,-0.265
5309,0.020,-0.285
5310,0.025,-0.265
5311,0.010,-0.245
5312,-0.030,-0.255
5313,-0.030,-0.235
5314,-0.005,-0.245
5315,-0.020,-0.255
5316,-0.050,-0.205
5317,-0.035,-0.225
5318,-0.015,-0.180
5319,-0.015,-0.180
5320,0.005,-0.160
5321,-0.005,-0.140
5322,-0.020,-0.120
5323,-0.020,-0.120
5324,-0.030,-0.135
5325,-0.030,-0.085
5326,-0.005,-0.090
5327,-0.020,-0.090
5328,0.010,-0.110
5329,0.010,-0.140
5330,0.025,-0.140
5331,0.035,-0.170
5332,0.065,-0.150
5333,0.065,-0.195
5334,0.010,-0.190
5335,0.010,-0.120
5336,-0.015,-0.195
5337,0.020,-0.150
5338,-0.020,-0.115
5339,0.030,-0.115
5340,0.045,-0.125
5341,0.025,-0.120
5342,0.060,-0.115
5343,0.060,-0.105
5344,0.010,-0.040
5345,0.030,0.010
5346,0.050,0.040
5347,0.100,0.030
5348,0.135,0.065
5349,0.140,0.055
5350,0.070,-0.050
5351,0.020,-0.100
5352,-0.075,-0.105
5353,-0.020,-0.105
5354,0.015,-0.205
5355,0.015,-0.240
5356,0.010,-0.280
5357,0.005,-0.310
5358,-0.015,-0.310
5359,-0.015,-0.295
5360,-0.040,-0.295
5361,-0.020,-0.305
5362,0.015,-0.305
5363,-0.005,-0.295
5364,-0.010,-0.300
5365,0.000,-0.315
5366,0.015,0.010
5367,0.055,0.545
5368,0.275,0.695
5369,0.455,0.275
5370,0.355,-0.720
5371,-0.170,-0.945
5372,-0.560,-0.735
5373,-0.515,-0.475
5374,-0.235,-0.365
5375,-0.090,-0.360
5376,0.025,-0.320
5377,0.030,-0.320
5378,-0.025,-0.305
5379,-0.020,-0.315
5380,0.025,-0.340
5381,0.000,-0.315
5382,-0.015,-0.320
5383,-0.010,-0.295
5384,0.000,-0.310
5385,-0.010,-0.315
5386,-0.010,-0.310
5387,0.020,-0.305
5388,0.010,-0.305
5389,-0.015,-0.295
5390,0.000,-0.290
5391,0.000,-0.275
5392,0.045,-0.240
5393,-0.010,-0.225
5394,-0.035,-0.220
5395,0.025,-0.235
5396,-0.010,-0.215
5397,0.000,-0.205
5398,0.015,-0.185
5399,0.030,-0.190
5400,0.035,-0.185
5401,0.020,-0.210
5402,0.065,-0.225
5403,0.035,-0.270
5404,0.075,-0.240
5405,0.055,-0.230
5406,0.030,-0.290
5407,0.010,-0.270
5408,-0.025,-0.250
5409,-0.010,-0.230
5410,0.050,-0.210
5411,0.060,-0.190
5412,0.010,-0.180
5413,0.030,-0.175
5414,0.055,-0.155
5415,0.035,-0.190
5416,0.075,-0.185
5417,0.045,-0.135
5418,0.040,-0.125
5419,0.090,-0.110
5420,0.085,-0.140
5421,0.070,-0.180
5422,0.100,-0.215
5423,0.005,-0.270
5424,-0.055,-0.315
5425,-0.040,-0.340
5426,-0.005,-0.310
5427,-0.025,-0.345
5428,-0.055,-0.375
5429,-0.045,-0.365
5430,0.000,-0.355
5431,-0.025,-0.345
5432,-0.050,-0.380
5433,-0.025,-0.220
5434,0.025,0.255
5435,0.160,0.625
5436,0.320,0.475
5437,0.145,-0.425
5438,-0.260,-0.935
5439,-0.725,-0.800
5440,-0.605,-0.535
5441,-0.300,-0.385
5442,-0.070,-0.380
5443,-0.010,-0.380
5444,-0.045,-0.345
5445,0.000,-0.325
5446,-0.065,-0.365
5447,-0.085,-0.400
5448,-0.035,-0.355
5449,-0.010,-0.325
5450,-0.050,-0.360
5451,-0.055,-0.330
5452,-0.030,-0.320
5453,-0.070,-0.335
5454,-0.075,-0.330
5455,-0.035,-0.295
5456,-0.005,-0.305
5457,-0.010,-0.305
5458,-0.040,-0.280
5459,-0.010,-0.220
5460,-0.005,-0.190
5461,0.015,-0.230
5462,0.060,-0.300
5463,0.065,-0.210
5464,0.055,-0.215
5465,0.020,-0.185
5466,-0.045,-0.205
5467,-0.030,-0.215
5468,-0.050,-0.245
5469,-0.045,-0.255
5470,-0.030,-0.265
5471,-0.055,-0.295
5472,-0.070,-0.290
5473,-0.045,-0.290
5474,-0.020,-0.280
5475,-0.055,-0.270
5476,-0.025,-0.270
5477,-0.040,-0.275
5478,-0.070,-0.310
5479,-0.025,-0.275
5480,-0.025,0.115
5481,0.075,0.530
5482,0.330,0.310
5483,0.040,-0.595
5484,-0.400,-0.695
5485,-0.595,-0.540
5486,-0.445,-0.305
5487,-0.170,-0.320
5488,-0.035,-0.345
5489,-0.035,-0.350
5490,-0.040,-0.360
5491,-0.010,-0.335
5492,-0.055,-0.330
5493,-0.090,-0.360
5494,-0.065,-0.350
5495,-0.065,-0.345
5496,-0.065,-0.330
5497,-0.060,-0.370
5498,-0.060,-0.350
5499,-0.010,-0.300
5500,-0.020,-0.275
5501,-0.070,-0.275
5502,-0.050,-0.255
5503,-0.050,-0.245
5504,-0.025,-0.205
5505,-0.040,-0.180
5506,-0.015,-0.160
5507,-0.005,-0.120
5508,-0.040,-0.095
5509,-0.005,-0.085
5510,0.020,-0.065
5511,-0.010,-0.105
5512,0.010,-0.125
5513,0.035,-0.140
5514,0.045,-0.135
5515,0.055,-0.160
5516,0.020,-0.170
5517,0.020,-0.150
5518,0.005,-0.180
5519,0.045,-0.165
5520,0.015,-0.150
5521,-0.015,-0.160
5522,-0.010,-0.185
5523,0.020,-0.180
5524,0.020,-0.175
5525,0.000,-0.190
5526,-0.015,-0.175
5527,0.000,-0.195
5528,0.015,-0.195
5529,0.045,-0.225
5530,-0.010,-0.150
5531,-0.020,-0.160
5532,0.000,-0.220
5533,-0.010,-0.235
5534,0.000,-0.225
5535,0.035,-0.215
5536,0.030,-0.175
5537,-0.040,-0.215
5538,-0.030,-0.225
5539,-0.030,-0.210
5540,-0.010,-0.200
5541,0.000,-0.200
5542,0.045,-0.180
5543,0.000,-0.180
5544,0.000,-0.180
5545,-0.025,-0.155
5546,-0.060,-0.125
5547,0.030,-0.045
5548,0.035,-0.035
5549,0.055,0.005
5550,0.080,0.000
5551,0.095,-0.060
5552,0.015,-0.150
5553,-0.045,-0.170
5554,-0.035,-0.145
5555,-0.060,-0.195
5556,-0.030,-0.215
5557,0.000,-0.240
5558,-0.005,-0.300
5559,-0.045,-0.310
5560,-0.030,-0.315
5561,-0.015,-0.305
5562,-0.090,-0.315
5563,-0.105,-0.300
5564,-0.040,-0.275
5565,-0.030,-0.350
5566,-0.045,-0.225
5567,0.010,0.305
5568,0.135,0.770
5569,0.300,0.645
5570,0.380,-0.285
5571,0.180,-0.930
5572,-0.425,-0.890
5573,-0.585,-0.650
5574,-0.465,-0.415
5575,-0.195,-0.325
5576,-0.035,-0.335
5577,-0.015,-0.345
5578,-0.015,-0.355
5579,-0.015,-0.335
5580,-0.025,-0.280
5581,-0.030,-0.315
5582,-0.005,-0.335
5583,-0.035,-0.315
5584,-0.040,-0.315
5585,-0.070,-0.295
5586,-0.050,-0.275
5587,-0.045,-0.260
5588,-0.055,-0.285
5589,-0.080,-0.250
5590,-0.075,-0.255
5591,-0.040,-0.220
5592,-0.075,-0.230
5593,-0.045,-0.205
5594,-0.055,-0.160
5595,-0.060,-0.155
5596,-0.030,-0.125
5597,-0.020,-0.175
5598,-0.020,-0.160
5599,-0.020,-0.125
5600,-0.020,-0.105
5601,-0.025,-0.100
5602,-0.035,-0.095
5603,0.000,-0.075
5604,-0.015,-0.110
5605,-0.015,-0.115
5606,0.035,-0.150
5607,0.060,-0.180
5608,0.000,-0.160
5609,0.005,-0.140
5610,0.015,-0.140
5611,0.000,-0.135
5612,0.000,-0.115
5613,0.000,-0.115
5614,0.000,-0.125
5615,0.025,-0.100
5616,0.025,-0.110
5617,0.035,-0.120
5618,0.000,-0.125
5619,-0.035,-0.120
5620,-0.005,-0.070
5621,0.000,-0.010
5622,0.040,-0.010
5623,0.070,0.000
5624,0.090,0.005
5625,0.070,-0.030
5626,-0.005,-0.170
5627,-0.045,-0.190
5628,-0.075,-0.195
5629,-0.065,-0.195
5630,-0.035,-0.280
5631,-0.030,-0.280
5632,0.000,-0.330
5633,-0.015,-0.365
5634,-0.045,-0.380
5635,-0.005,-0.370
5636,-0.035,-0.350
5637,-0.040,-0.335
5638,-0.050,-0.365
5639,-0.065,-0.350
5640,-0.030,-0.395
5641,0.000,-0.245
5642,0.025,0.200
5643,0.135,0.640
5644,0.380,0.570
5645,0.335,-0.260
5646,-0.030,-0.920
5647,-0.545,-0.880
5648,-0.605,-0.610
5649,-0.335,-0.420
5650,-0.120,-0.365
5651,0.010,-0.370
5652,0.030,-0.360
5653,0.000,-0.355
5654,0.020,-0.330
5655,0.030,-0.335
5656,-0.025,-0.325
5657,-0.020,-0.315
5658,0.000,-0.335
5659,0.000,-0.330
5660,0.020,-0.295
5661,-0.015,-0.305
5662,0.005,-0.270
5663,0.000,-0.280
5664,-0.015,-0.285
5665,-0.020,-0.260
5666,0.025,-0.235
5667,0.005,-0.235
5668,0.010,-0.205
5669,0.030,-0.210
5670,-0.050,-0.195
5671,-0.015,-0.210
5672,0.035,-0.165
5673,-0.020,-0.155
5674,-0.010,-0.140
5675,0.020,-0.140
5676,0.085,-0.140
5677,0.045,-0.150
5678,0.035,-0.160
5679,0.000,-0.180
5680,-0.010,-0.165
5681,0.015,-0.175
5682,0.025,-0.185
5683,0.045,-0.160
5684,0.045,-0.150
5685,0.035,-0.160
5686,0.045,-0.125
5687,0.065,-0.125
5688,0.095,-0.150
5689,0.065,-0.130
5690,0.000,-0.095
5691,-0.025,-0.125
5692,0.040,-0.110
5693,0.030,-0.045
5694,0.000,0.000
5695,0.050,0.000
5696,0.065,0.025
5697,0.090,0.035
5698,0.065,-0.020
5699,0.015,-0.095
5700,-0.020,-0.135
5701,-0.080,-0.140
5702,-0.075,-0.170
5703,-0.005,-0.195
5704,0.000,-0.220
5705,0.040,-0.280
5706,-0.005,-0.270
5707,-0.055,-0.280
5708,-0.070,-0.260
5709,-0.070,-0.290
5710,-0.060,-0.275
5711,-0.030,-0.260
5712,-0.020,-0.275
5713,-0.020,-0.290
5714,-0.025,-0.195
5715,0.020,0.280
5716,0.145,0.725
5717,0.345,0.670
5718,0.305,-0.075
5719,0.005,-0.815
5720,-0.520,-0.760
5721,-0.585,-0.540
5722,-0.410,-0.355
5723,-0.125,-0.285
5724,-0.025,-0.290
5725,0.000,-0.295
5726,0.025,-0.290
5727,-0.025,-0.255
5728,-0.055,-0.265
5729,-0.035,-0.230
5730,-0.005,-0.290
5731,-0.030,-0.285
5732,-0.035,-0.255
5733,-0.055,-0.255
5734,-0.030,-0.235
5735,-0.070,-0.240
5736,-0.030,-0.210
5737,-0.070,-0.200
5738,-0.075,-0.180
5739,0.000,-0.140
5740,0.005,-0.085
5741,-0.065,-0.085
5742,-0.045,-0.035
5743,-0.055,-0.050
5744,-0.060,-0.065
5745,-0.020,-0.020
5746,0.035,-0.005
5747,0.015,-0.025
5748,-0.035,-0.010
5749,-0.065,-0.040
5750,-0.015,-0.065
5751,0.040,-0.075
5752,-0.010,-0.070
5753,0.010,-0.095
5754,0.055,-0.100
5755,0.000,-0.095
5756,-0.015,-0.105
5757,0.000,-0.125
5758,0.040,-0.095
5759,-0.010,-0.065
5760,-0.050,-0.075
5761,-0.020,-0.070
5762,0.000,-0.060
5763,0.020,-0.100
5764,0.030,-0.075
5765,0.045,0.000
5766,0.030,-0.030
5767,0.020,-0.010
5768,0.060,0.000
5769,0.115,-0.005
5770,0.085,-0.080
5771,0.050,-0.140
5772,0.000,-0.230
5773,-0.025,-0.200
5774,-0.045,-0.255
5775,-0.050,-0.250
5776,-0.035,-0.220
5777,-0.030,-0.200
5778,-0.035,-0.200
5779,-0.025,-0.180
5780,-0.035,-0.180
5781,-0.030,-0.225
5782,-0.030,-0.185
5783,0.000,0.300
5784,0.085,0.745
5785,0.305,0.720
5786,0.410,-0.020
5787,0.235,-0.795
5788,-0.335,-0.790
5789,-0.585,-0.600
5790,-0.495,-0.315
5791,-0.260,-0.170
5792,-0.085,-0.170
5793,-0.030,-0.170
5794,-0.045,-0.155
5795,-0.010,-0.155
5796,-0.025,-0.180
5797,-0.025,-0.175
5798,-0.015,-0.175
5799,-0.030,-0.210
5800,-0.015,-0.190
5801,-0.040,-0.195
5802,-0.040,-0.175
5803,-0.040,-0.170
5804,-0.030,-0.155
5805,-0.015,-0.140
5806,-0.010,-0.155
5807,-0.010,-0.125
5808,-0.040,-0.135
5809,-0.025,-0.105
5810,0.000,-0.085
5811,0.020,-0.100
5812,0.040,-0.090
5813,0.045,-0.010
5814,0.055,-0.015
5815,0.005,-0.025
5816,-0.020,-0.030
5817,-0.030,-0.050
5818,-0.010,-0.065
5819,0.000,-0.095
5820,-0.005,-0.135
5821,-0.005,-0.125
5822,-0.050,-0.140
5823,-0.055,-0.115
5824,-0.045,-0.090
5825,-0.035,-0.100
5826,-0.030,-0.060
5827,-0.035,-0.095
5828,-0.020,-0.045
5829,0.020,0.325
5830,0.195,0.820
5831,0.425,0.625
5832,0.290,-0.140
5833,-0.220,-0.630
5834,-0.605,-0.445
5835,-0.545,-0.215
5836,-0.150,-0.180
5837,0.090,-0.220
5838,0.070,-0.215
5839,-0.060,-0.235
5840,-0.150,-0.210
5841,-0.115,-0.215
5842,-0.085,-0.205
5843,-0.110,-0.225
5844,-0.105,-0.225
5845,-0.090,-0.215
5846,-0.080,-0.240
5847,-0.050,-0.220
5848,-0.045,-0.250
5849,-0.050,-0.250
5850,-0.050,-0.250
5851,-0.055,-0.230
5852,-0.050,-0.235
5853,-0.050,-0.225
5854,-0.035,-0.190
5855,-0.040,-0.155
5856,-0.035,-0.130
5857,-0.035,-0.095
5858,-0.020,-0.080
5859,-0.035,-0.055
5860,-0.040,-0.060
5861,-0.040,-0.060
5862,-0.040,-0.075
5863,-0.030,-0.075
5864,-0.035,-0.085
5865,-0.045,-0.095
5866,-0.005,-0.080
5867,-0.050,-0.100
5868,-0.035,-0.080
5869,-0.035,-0.090
5870,-0.020,-0.070
5871,-0.050,-0.085
5872,-0.035,-0.100
5873,-0.020,-0.105
5874,-0.025,-0.115
5875,-0.015,-0.120
5876,-0.035,-0.135
5877,-0.030,-0.135
5878,-0.040,-0.150
5879,-0.040,-0.160
5880,-0.025,-0.165
5881,-0.010,-0.185
5882,-0.020,-0.150
5883,-0.015,-0.160
5884,-0.035,-0.180
5885,-0.045,-0.175
5886,-0.055,-0.160
5887,-0.045,-0.180
5888,-0.050,-0.180
5889,-0.020,-0.150
5890,-0.045,-0.165
5891,-0.020,-0.160
5892,-0.030,-0.190
5893,-0.040,-0.170
5894,-0.030,-0.100
5895,-0.025,-0.060
5896,-0.005,-0.005
5897,0.025,0.010
5898,0.040,0.065
5899,0.030,0.015
5900,0.000,-0.065
5901,-0.045,-0.135
5902,-0.095,-0.130
5903,-0.075,-0.070
5904,-0.045,-0.130
5905,-0.015,-0.180
5906,0.000,-0.235
5907,0.000,-0.270
5908,-0.015,-0.255
5909,-0.040,-0.255
5910,-0.025,-0.230
5911,-0.025,-0.235
5912,-0.040,-0.250
5913,-0.025,-0.235
5914,-0.025,-0.260
5915,-0.015,-0.085
5916,0.020,0.300
5917,0.125,0.735
5918,0.330,0.755
5919,0.320,0.255
5920,0.130,-0.625
5921,-0.425,-0.825
5922,-0.645,-0.560
5923,-0.460,-0.355
5924,-0.175,-0.240
5925,-0.025,-0.285
5926,-0.005,-0.255
5927,0.000,-0.240
5928,0.000,-0.240
5929,-0.035,-0.270
5930,-0.020,-0.240
5931,-0.020,-0.245
5932,-0.015,-0.250
5933,-0.055,-0.220
5934,-0.025,-0.260
5935,-0.030,-0.195
5936,-0.025,-0.195
5937,-0.020,-0.225
5938,-0.050,-0.160
5939,-0.050,-0.125
5940,-0.040,-0.150
5941,-0.035,-0.095
5942,-0.040,-0.080
5943,-0.025,-0.055
5944,-0.010,-0.035
5945,0.000,-0.005
5946,0.005,-0.020
5947,0.010,0.000
5948,0.035,0.035
5949,0.025,0.005
5950,0.020,0.020
5951,0.000,0.020
5952,0.000,-0.025
5953,0.010,-0.050
5954,0.000,-0.050
5955,0.000,-0.110
5956,-0.010,-0.130
5957,-0.005,-0.080
5958,0.000,-0.085
5959,-0.025,-0.145
5960,-0.020,-0.075
5961,-0.035,-0.100
5962,-0.010,-0.065
5963,-0.035,-0.090
5964,-0.025,-0.060
5965,-0.020,-0.095
5966,-0.025,-0.060
5967,-0.015,-0.100
5968,-0.030,-0.045
5969,-0.035,0.030
5970,0.000,0.070
5971,0.030,0.025
5972,0.030,0.065
5973,0.070,0.070
5974,0.040,0.000
5975,-0.025,-0.075
5976,-0.110,-0.150
5977,-0.130,-0.185
5978,-0.120,-0.130
5979,-0.085,-0.250
5980,-0.075,-0.245
5981,-0.075,-0.290
5982,-0.105,-0.325
5983,-0.120,-0.285
5984,-0.110,-0.305
5985,-0.130,-0.315
5986,-0.120,-0.315
5987,-0.120,-0.305
5988,-0.100,-0.310
5989,-0.105,-0.360
5990,-0.105,-0.315
5991,-0.100,0.005
5992,0.000,0.560
5993,0.200,0.560
5994,0.350,-0.020
5995,0.170,-0.865
5996,-0.420,-0.910
5997,-0.675,-0.745
5998,-0.570,-0.470
5999,-0.330,-0.360
6000,-0.165,-0.345
6001,-0.085,-0.315
6002,-0.110,-0.295
6003,-0.115,-0.315
6004,-0.115,-0.300
6005,-0.130,-0.330
6006,-0.115,-0.315
6007,-0.110,-0.300
6008,-0.145,-0.295
6009,-0.125,-0.270
6010,-0.130,-0.295
6011,-0.120,-0.290
6012,-0.135,-0.290
6013,-0.135,-0.270
6014,-0.135,-0.240
6015,-0.145,-0.250
6016,-0.150,-0.215
6017,-0.150,-0.190
6018,-0.130,-0.205
6019,-0.125,-0.180
6020,-0.110,-0.145
6021,-0.110,-0.165
6022,-0.095,-0.135
6023,-0.105,-0.110
6024,-0.105,-0.130
6025,-0.080,-0.110
6026,-0.065,-0.140
6027,-0.080,-0.150
6028,-0.050,-0.190
6029,-0.065,-0.215
6030,-0.045,-0.155
6031,-0.055,-0.175
6032,-0.040,-0.170
6033,-0.045,-0.175
6034,-0.035,-0.140
6035,-0.020,-0.115
6036,-0.040,-0.100
6037,-0.040,-0.105
6038,-0.040,-0.135
6039,-0.030,-0.105
6040,-0.025,-0.120
6041,-0.030,-0.095
6042,-0.025,-0.025
6043,-0.030,0.005
6044,0.020,0.050
6045,0.030,0.055
6046,0.050,0.065
6047,0.055,0.035
6048,0.010,-0.040
6049,-0.030,-0.115
6050,-0.115,-0.125
6051,-0.100,-0.135
6052,-0.065,-0.195
6053,-0.040,-0.220
6054,-0.035,-0.260
6055,-0.070,-0.280
6056,-0.060,-0.290
6057,-0.080,-0.295
6058,-0.075,-0.285
6059,-0.075,-0.280
6060,-0.080,-0.270
6061,-0.080,-0.290
6062,-0.080,-0.300
6063,-0.075,-0.305
6064,-0.050,-0.050
6065,0.025,0.475
6066,0.210,0.735
6067,0.365,0.470
6068,0.220,-0.480
6069,-0.285,-0.845
6070,-0.670,-0.710
6071,-0.590,-0.470
6072,-0.290,-0.285
6073,-0.085,-0.275
6074,-0.020,-0.275
6075,-0.010,-0.260
6076,0.000,-0.250
6077,-0.005,-0.245
6078,-0.040,-0.255
6079,-0.055,-0.260
6080,-0.040,-0.255
6081,-0.040,-0.230
6082,-0.020,-0.235
6083,-0.045,-0.230
6084,-0.070,-0.200
6085,-0.065,-0.215
6086,-0.055,-0.180
6087,-0.060,-0.170
6088,-0.065,-0.120
6089,-0.060,-0.115
6090,-0.065,-0.095
6091,-0.040,-0.085
6092,-0.050,-0.095
6093,-0.055,-0.070
6094,-0.045,-0.055
6095,-0.035,-0.035
6096,-0.035,-0.055
6097,-0.015,-0.050
6098,-0.015,-0.070
6099,0.000,-0.075
6100,-0.035,-0.105
6101,-0.005,-0.140
6102,-0.045,-0.160
6103,-0.040,-0.165
6104,-0.045,-0.175
6105,-0.055,-0.140
6106,-0.040,-0.165
6107,-0.020,-0.125
6108,-0.005,-0.120
6109,-0.015,-0.110
6110,-0.010,-0.095
6111,-0.015,-0.095
6112,0.000,-0.075
6113,-0.010,-0.075
6114,-0.005,-0.075
6115,0.020,-0.040
6116,0.010,-0.015
6117,0.020,-0.005
6118,0.075,0.000
6119,0.085,-0.020
6120,0.020,-0.095
6121,-0.030,-0.180
6122,-0.060,-0.210
6123,-0.090,-0.220
6124,-0.085,-0.215
6125,-0.085,-0.240
6126,-0.070,-0.240
6127,-0.075,-0.230
6128,-0.070,-0.215
6129,-0.075,-0.225
6130,-0.080,-0.255
6131,-0.065,-0.260
6132,-0.055,-0.040
6133,0.050,0.465
6134,0.200,0.700
6135,0.230,0.420
6136,-0.045,-0.465
6137,-0.530,-0.775
6138,-0.760,-0.580
6139,-0.550,-0.380
6140,-0.210,-0.235
6141,-0.020,-0.260
6142,0.000,-0.240
6143,0.005,-0.255
6144,-0.025,-0.265
6145,-0.050,-0.255
6146,-0.055,-0.280
6147,-0.045,-0.270
6148,-0.015,-0.285
6149,-0.010,-0.270
6150,0.005,-0.245
6151,-0.040,-0.255
6152,-0.045,-0.185
6153,-0.050,-0.185
6154,-0.030,-0.170
6155,-0.045,-0.160
6156,-0.005,-0.130
6157,0.010,-0.115
6158,0.020,-0.100
6159,0.070,-0.060
6160,0.115,-0.050
6161,0.145,-0.090
6162,0.135,-0.005
6163,0.125,0.030
6164,0.090,0.015
6165,0.005,-0.055
6166,-0.025,-0.055
6167,-0.005,-0.075
6168,0.005,-0.070
6169,0.005,-0.135
6170,0.040,-0.140
6171,0.030,-0.155
6172,0.050,-0.170
6173,0.045,-0.180
6174,0.060,-0.160
6175,0.070,-0.130
6176,0.075,-0.200
6177,0.075,-0.220
6178,0.095,0.010
6179,0.125,0.390
6180,0.220,0.580
6181,0.415,0.050
6182,0.405,-0.660
6183,-0.145,-0.600
6184,-0.425,-0.490
6185,-0.350,-0.270
6186,-0.130,-0.205
6187,0.005,-0.205
6188,0.010,-0.245
6189,-0.005,-0.265
6190,-0.010,-0.245
6191,-0.005,-0.250
6192,-0.040,-0.245
6193,-0.045,-0.280
6194,-0.055,-0.240
6195,-0.060,-0.260
6196,-0.050,-0.240
6197,-0.030,-0.265
6198,-0.020,-0.235
6199,-0.020,-0.210
6200,-0.030,-0.185
6201,-0.015,-0.115
6202,-0.015,-0.135
6203,-0.020,-0.080
6204,-0.010,-0.055
6205,-0.005,-0.015
6206,0.010,-0.020
6207,0.015,0.015
6208,0.015,-0.025
6209,0.025,0.000
6210,0.035,-0.020
6211,0.040,-0.065
6212,0.035,-0.060
6213,0.030,-0.110
6214,0.045,-0.120
6215,0.050,-0.095
6216,0.040,-0.100
6217,0.035,-0.105
6218,0.015,-0.135
6219,0.045,-0.105
6220,0.040,-0.125
6221,0.045,-0.130
6222,0.055,-0.125
6223,0.050,-0.150
6224,0.045,-0.145
6225,0.050,-0.140
6226,0.015,-0.165
6227,0.020,-0.145
6228,0.015,-0.150
6229,0.015,-0.170
6230,0.000,-0.175
6231,-0.010,-0.160
6232,0.005,-0.175
6233,0.020,-0.175
6234,0.010,-0.165
6235,0.015,-0.200
6236,0.000,-0.160
6237,0.025,-0.185
6238,0.020,-0.165
6239,0.025,-0.165
6240,0.000,-0.165
6241,0.015,-0.185
6242,0.025,-0.170
6243,0.020,-0.165
6244,0.020,-0.150
6245,0.020,-0.085
6246,0.055,-0.015
6247,0.065,-0.005
6248,0.100,0.015
6249,0.145,0.040
6250,0.095,-0.010
6251,0.045,-0.125
6252,0.000,-0.160
6253,-0.025,-0.130
6254,0.015,-0.155
6255,0.025,-0.225
6256,0.050,-0.230
6257,0.045,-0.260
6258,0.020,-0.300
6259,0.000,-0.285
6260,0.000,-0.305
6261,0.000,-0.270
6262,0.000,-0.295
6263,0.000,-0.275
6264,0.005,-0.300
6265,0.010,-0.235
6266,0.060,0.190
6267,0.150,0.665
6268,0.390,0.710
6269,0.490,0.140
6270,0.240,-0.740
6271,-0.380,-0.830
6272,-0.595,-0.645
6273,-0.410,-0.430
6274,-0.145,-0.330
6275,0.035,-0.310
6276,0.045,-0.315
6277,0.045,-0.315
6278,0.045,-0.310
6279,0.035,-0.310
6280,0.040,-0.310
6281,0.045,-0.310
6282,0.030,-0.305
6283,0.040,-0.285
6284,0.020,-0.285
6285,0.025,-0.270
6286,0.030,-0.265
6287,0.025,-0.245
6288,0.030,-0.245
6289,0.035,-0.210
6290,0.050,-0.190
6291,0.050,-0.170
6292,0.045,-0.135
6293,0.070,-0.140
6294,0.080,-0.110
6295,0.080,-0.115
6296,0.105,-0.095
6297,0.095,-0.075
6298,0.110,-0.055
6299,0.110,-0.055
6300,0.115,-0.060
6301,0.110,-0.055
6302,0.120,-0.075
6303,0.125,-0.095
6304,0.105,-0.105
6305,0.095,-0.150
6306,0.105,-0.130
6307,0.110,-0.150
6308,0.085,-0.130
6309,0.110,-0.135
6310,0.120,-0.110
6311,0.120,-0.100
6312,0.095,-0.110
6313,0.100,-0.070
6314,0.115,-0.075
6315,0.115,-0.065
6316,0.090,-0.075
6317,0.090,-0.075
6318,0.095,-0.055
6319,0.105,-0.045
6320,0.110,0.015
6321,0.130,0.030
6322,0.155,0.050
6323,0.180,0.075
6324,0.185,0.040
6325,0.140,-0.020
6326,0.080,-0.125
6327,0.010,-0.110
6328,0.005,-0.110
6329,0.045,-0.150
6330,0.085,-0.205
6331,0.090,-0.245
6332,0.090,-0.255
6333,0.065,-0.270
6334,0.045,-0.250
6335,0.050,-0.275
6336,0.065,-0.265
6337,0.065,-0.275
6338,0.070,-0.270
6339,0.065,-0.280
6340,0.060,-0.290
6341,0.100,0.000
6342,0.185,0.530
6343,0.385,0.750
6344,0.385,0.415
6345,0.110,-0.500
6346,-0.420,-0.760
6347,-0.585,-0.620
6348,-0.380,-0.390
6349,-0.070,-0.295
6350,0.055,-0.295
6351,0.080,-0.300
6352,0.090,-0.300
6353,0.090,-0.275
6354,0.075,-0.255
6355,0.075,-0.245
6356,0.085,-0.305
6357,0.055,-0.280
6358,0.060,-0.275
6359,0.070,-0.255
6360,0.065,-0.240
6361,0.065,-0.240
6362,0.050,-0.245
6363,0.060,-0.230
6364,0.060,-0.205
6365,0.065,-0.170
6366,0.080,-0.160
6367,0.065,-0.135
6368,0.085,-0.100
6369,0.065,-0.065
6370,0.080,-0.080
6371,0.085,-0.060
6372,0.080,-0.045
6373,0.085,-0.030
6374,0.090,-0.035
6375,0.085,-0.075
6376,0.095,-0.065
6377,0.085,-0.120
6378,0.085,-0.160
6379,0.105,-0.150
6380,0.085,-0.175
6381,0.075,-0.175
6382,0.095,-0.190
6383,0.095,-0.185
6384,0.100,-0.175
6385,0.100,-0.180
6386,0.105,-0.155
6387,0.090,-0.155
6388,0.105,-0.125
6389,0.090,-0.180
6390,0.095,-0.140
6391,0.095,-0.120
6392,0.085,-0.130
6393,0.090,-0.060
6394,0.125,0.000
6395,0.140,0.005
6396,0.165,0.010
6397,0.185,0.030
6398,0.150,-0.010
6399,0.075,-0.110
6400,0.015,-0.160
6401,-0.010,-0.155
6402,0.000,-0.135
6403,0.045,-0.250
6404,0.050,-0.250
6405,0.060,-0.270
6406,0.045,-0.290
6407,0.040,-0.305
6408,0.020,-0.300
6409,0.030,-0.300
6410,0.030,-0.270
6411,0.040,-0.295
6412,0.030,-0.310
6413,0.050,-0.340
6414,0.045,-0.265
6415,0.080,0.070
6416,0.165,0.585
6417,0.350,0.705
6418,0.470,0.290
6419,0.355,-0.750
6420,-0.215,-0.935
6421,-0.545,-0.705
6422,-0.435,-0.465
6423,-0.125,-0.310
6424,0.040,-0.330
6425,0.070,-0.270
6426,0.075,-0.280
6427,0.070,-0.315
6428,0.065,-0.275
6429,0.055,-0.305
6430,0.045,-0.300
6431,0.045,-0.285
6432,0.060,-0.275
6433,0.050,-0.285
6434,0.040,-0.270
6435,0.030,-0.245
6436,0.050,-0.240
6437,0.040,-0.215
6438,0.050,-0.200
6439,0.040,-0.165
6440,0.040,-0.145
6441,0.050,-0.130
6442,0.055,-0.100
6443,0.055,-0.105
6444,0.040,-0.085
6445,0.040,-0.060
6446,0.040,-0.030
6447,0.050,-0.020
6448,0.090,-0.040
6449,0.080,-0.060
6450,0.110,-0.115
6451,0.090,-0.145
6452,0.085,-0.175
6453,0.100,-0.195
6454,0.070,-0.190
6455,0.085,-0.215
6456,0.095,-0.200
6457,0.110,-0.180
6458,0.095,-0.165
6459,0.080,-0.165
6460,0.090,-0.170
6461,0.095,-0.130
6462,0.120,-0.125
6463,0.130,-0.125
6464,0.125,-0.140
6465,0.135,-0.130
6466,0.100,-0.060
6467,0.125,-0.050
6468,0.155,-0.045
6469,0.225,-0.080
6470,0.200,-0.115
6471,0.145,-0.195
6472,0.095,-0.255
6473,0.060,-0.290
6474,0.050,-0.275
6475,0.030,-0.280
6476,0.065,-0.275
6477,0.060,-0.280
6478,0.055,-0.285
6479,0.055,-0.280
6480,0.050,-0.305
6481,0.055,-0.325
6482,0.060,-0.200
6483,0.125,0.270
6484,0.240,0.690
6485,0.485,0.635
6486,0.425,-0.235
6487,0.060,-0.850
6488,-0.485,-0.790
6489,-0.545,-0.565
6490,-0.295,-0.360
6491,-0.040,-0.330
6492,0.040,-0.335
6493,0.050,-0.345
6494,0.045,-0.320
6495,0.055,-0.320
6496,0.040,-0.310
6497,0.040,-0.315
6498,0.045,-0.335
6499,0.030,-0.335
6500,0.030,-0.315
6501,0.030,-0.325
6502,0.035,-0.295
6503,0.035,-0.270
6504,0.060,-0.285
6505,0.045,-0.265
6506,0.060,-0.265
6507,0.065,-0.230
6508,0.065,-0.200
6509,0.075,-0.175
6510,0.130,-0.180
6511,0.130,-0.230
6512,0.150,-0.160
6513,0.160,-0.115
6514,0.140,-0.120
6515,0.080,-0.145
6516,0.035,-0.160
6517,0.055,-0.185
6518,0.070,-0.225
6519,0.065,-0.240
6520,0.055,-0.255
6521,0.050,-0.260
6522,0.045,-0.260
6523,0.065,-0.250
6524,0.055,-0.250
6525,0.060,-0.245
6526,0.080,-0.235
6527,0.070,-0.290
6528,0.085,-0.250
6529,0.110,0.125
6530,0.200,0.560
6531,0.350,0.325
6532,0.085,-0.510
6533,-0.385,-0.660
6534,-0.485,-0.495
6535,-0.280,-0.275
6536,-0.020,-0.270
6537,0.085,-0.275
6538,0.070,-0.285
6539,0.055,-0.290
6540,0.060,-0.300
6541,0.060,-0.285
6542,0.055,-0.300
6543,0.055,-0.315
6544,0.030,-0.310
6545,0.030,-0.310
6546,0.045,-0.290
6547,0.060,-0.275
6548,0.045,-0.265
6549,0.075,-0.265
6550,0.060,-0.255
6551,0.070,-0.215
6552,0.070,-0.200
6553,0.060,-0.150
6554,0.090,-0.150
6555,0.100,-0.130
6556,0.115,-0.080
6557,0.110,-0.070
6558,0.115,-0.060
6559,0.125,-0.060
6560,0.135,-0.065
6561,0.140,-0.070
6562,0.120,-0.100
6563,0.150,-0.115
6564,0.140,-0.165
6565,0.135,-0.150
6566,0.115,-0.145
6567,0.115,-0.150
6568,0.120,-0.155
6569,0.090,-0.165
6570,0.115,-0.130
6571,0.100,-0.150
6572,0.095,-0.185
6573,0.095,-0.185
6574,0.085,-0.175
6575,0.095,-0.180
6576,0.085,-0.185
6577,0.080,-0.190
6578,0.075,-0.195
6579,0.080,-0.190
6580,0.065,-0.180
6581,0.075,-0.195
6582,0.095,-0.205
6583,0.085,-0.215
6584,0.075,-0.205
6585,0.095,-0.210
6586,0.065,-0.195
6587,0.070,-0.180
6588,0.090,-0.180
6589,0.090,-0.235
6590,0.050,-0.205
6591,0.080,-0.175
6592,0.070,-0.190
6593,0.095,-0.185
6594,0.070,-0.175
6595,0.065,-0.135
6596,0.095,-0.035
6597,0.125,-0.025
6598,0.160,0.010
6599,0.160,-0.015
6600,0.145,-0.055
6601,0.070,-0.155
6602,0.025,-0.185
6603,0.005,-0.160
6604,0.035,-0.155
6605,0.050,-0.240
6606,0.050,-0.285
6607,0.035,-0.305
6608,0.045,-0.295
6609,0.025,-0.310
6610,0.020,-0.340
6611,0.020,-0.315
6612,0.020,-0.305
6613,0.015,-0.330
6614,0.025,-0.345
6615,0.030,-0.305
6616,0.040,-0.005
6617,0.120,0.555
6618,0.295,0.755
6619,0.455,0.520
6620,0.440,-0.510
6621,0.000,-0.930
6622,-0.505,-0.840
6623,-0.540,-0.575
6624,-0.320,-0.400
6625,-0.080,-0.370
6626,0.015,-0.340
6627,0.010,-0.335
6628,0.010,-0.335
6629,0.025,-0.335
6630,0.000,-0.335
6631,0.010,-0.335
6632,0.000,-0.355
6633,0.000,-0.320
6634,0.000,-0.350
6635,-0.005,-0.340
6636,0.000,-0.345
6637,0.000,-0.315
6638,0.000,-0.295
6639,-0.010,-0.260
6640,-0.005,-0.250
6641,0.000,-0.230
6642,0.000,-0.210
6643,0.015,-0.155
6644,0.010,-0.155
6645,0.020,-0.150
6646,0.005,-0.145
6647,0.040,-0.115
6648,0.020,-0.110
6649,0.025,-0.060
6650,0.025,-0.100
6651,0.030,-0.075
6652,0.055,-0.095
6653,0.050,-0.135
6654,0.045,-0.155
6655,0.065,-0.215
6656,0.055,-0.190
6657,0.055,-0.200
6658,0.025,-0.210
6659,0.050,-0.200
6660,0.040,-0.185
6661,0.050,-0.165
6662,0.055,-0.150
6663,0.055,-0.125
6664,0.055,-0.130
6665,0.050,-0.135
6666,0.060,-0.135
6667,0.050,-0.135
6668,0.060,-0.115
6669,0.070,-0.075
6670,0.085,0.000
6671,0.125,0.000
6672,0.135,0.000
6673,0.170,0.030
6674,0.150,-0.025
