'sample interval','ECG0','ECG1'
'0.0078125 sec','mV','mV'
0,0.630,-0.500
1,0.585,-0.480
2,0.625,-0.490
3,0.640,-0.470
4,0.650,-0.455
5,0.680,-0.440
6,0.685,-0.435
7,0.705,-0.395
8,0.710,-0.370
9,0.755,-0.345
10,0.780,-0.320
11,0.795,-0.250
12,0.865,-0.215
13,0.870,-0.200
14,0.920,-0.145
15,0.925,-0.120
16,0.920,-0.105
17,0.955,-0.080
18,0.950,-0.060
19,0.980,-0.045
20,0.965,-0.020
21,0.970,-0.020
22,0.970,0.005
23,0.920,0.035
24,0.920,0.080
25,0.915,0.100
26,0.885,0.160
27,0.900,0.175
28,0.830,0.210
29,0.790,0.225
30,0.715,0.210
31,0.685,0.220
32,0.635,0.200
33,0.560,0.160
34,0.490,0.115
35,0.440,0.070
36,0.400,0.005
37,0.385,-0.065
38,0.335,-0.090
39,0.330,-0.140
40,0.295,-0.195
41,0.265,-0.240
42,0.240,-0.280
43,0.195,-0.295
44,0.200,-0.360
45,0.155,-0.395
46,0.155,-0.425
47,0.145,-0.470
48,0.105,-0.485
49,0.120,-0.510
50,0.055,-0.535
51,0.055,-0.560
52,0.030,-0.590
53,0.000,-0.590
54,-0.020,-0.625
55,-0.035,-0.620
56,-0.015,-0.630
57,-0.075,-0.645
58,-0.070,-0.630
59,-0.080,-0.670
60,-0.105,-0.670
61,-0.110,-0.675
62,-0.135,-0.665
63,-0.130,-0.630
64,-0.150,-0.660
65,-0.155,-0.665
66,-0.190,-0.655
67,-0.200,-0.625
68,-0.205,-0.640
69,-0.245,-0.640
70,-0.235,-0.645
71,-0.250,-0.665
72,-0.280,-0.675
73,-0.305,-0.655
74,-0.305,-0.645
75,-0.315,-0.635
76,-0.315,-0.670
77,-0.330,-0.645
78,-0.345,-0.660
79,-0.370,-0.635
80,-0.375,-0.625
81,-0.370,-0.630
82,-0.315,-0.630
83,-0.305,-0.525
84,-0.310,-0.495
85,-0.245,-0.470
86,-0.245,-0.460
87,-0.240,-0.490
88,-0.245,-0.505
89,-0.350,-0.525
90,-0.360,-0.615
91,-0.390,-0.665
92,-0.470,-0.670
93,-0.575,-0.620
94,-0.660,-0.675
95,-0.650,-0.690
96,-0.705,-0.700
97,-0.690,-0.705
98,-0.710,-0.700
99,-0.705,-0.690
100,-0.720,-0.690
101,-0.745,-0.680
102,-0.800,-0.665
103,-0.910,-0.700
104,-0.875,-0.730
105,-0.825,-0.910
106,-0.790,-1.195
107,-1.050,-1.135
108,-1.430,-0.745
109,-2.340,0.010
110,-3.060,-1.865
111,-3.420,-3.255
112,-3.155,-3.160
113,-2.830,-2.675
114,-2.300,-1.905
115,-1.630,-1.235
116,-1.110,-0.795
117,-0.910,-0.555
118,-0.860,-0.515
119,-0.830,-0.450
120,-0.830,-0.445
121,-0.795,-0.405
122,-0.785,-0.400
123,-0.795,-0.375
124,-0.785,-0.360
125,-0.780,-0.340
126,-0.750,-0.320
127,-0.720,-0.315
128,-0.715,-0.300
129,-0.685,-0.265
130,-0.710,-0.240
131,-0.665,-0.200
132,-0.630,-0.185
133,-0.600,-0.145
134,-0.535,-0.085
135,-0.545,-0.060
136,-0.500,0.000
137,-0.500,0.015
138,-0.465,0.050
139,-0.455,0.100
140,-0.445,0.130
141,-0.420,0.115
142,-0.440,0.135
143,-0.430,0.160
144,-0.440,0.165
145,-0.480,0.210
146,-0.475,0.215
147,-0.530,0.285
148,-0.505,0.335
149,-0.520,0.380
150,-0.590,0.355
151,-0.610,0.360
152,-0.715,0.375
153,-0.770,0.390
154,-0.825,0.360
155,-0.875,0.350
156,-0.885,0.325
157,-0.945,0.295
158,-0.995,0.255
159,-1.035,0.190
160,-1.060,0.145
161,-1.045,0.135
162,-1.090,0.100
163,-1.085,0.045
164,-1.115,-0.005
165,-1.120,-0.045
166,-1.165,-0.055
167,-1.180,-0.075
168,-1.195,-0.110
169,-1.215,-0.145
170,-1.225,-0.170
171,-1.235,-0.215
172,-1.250,-0.230
173,-1.270,-0.245
174,-1.275,-0.260
175,-1.270,-0.270
176,-1.285,-0.290
177,-1.305,-0.305
178,-1.295,-0.310
179,-1.300,-0.340
180,-1.295,-0.335
181,-1.325,-0.340
182,-1.330,-0.335
183,-1.340,-0.315
184,-1.355,-0.335
185,-1.325,-0.360
186,-1.350,-0.335
187,-1.335,-0.325
188,-1.340,-0.355
189,-1.355,-0.330
190,-1.355,-0.335
191,-1.365,-0.320
192,-1.370,-0.330
193,-1.350,-0.355
194,-1.360,-0.320
195,-1.355,-0.335
196,-1.355,-0.330
197,-1.335,-0.330
198,-1.360,-0.345
199,-1.375,-0.315
200,-1.370,-0.325
201,-1.365,-0.330
202,-1.380,-0.315
203,-1.390,-0.325
204,-1.345,-0.305
205,-1.300,-0.270
206,-1.290,-0.195
207,-1.270,-0.160
208,-1.245,-0.110
209,-1.185,-0.100
210,-1.165,-0.190
211,-1.215,-0.190
212,-1.260,-0.215
213,-1.320,-0.330
214,-1.325,-0.345
215,-1.410,-0.350
216,-1.460,-0.295
217,-1.475,-0.320
218,-1.485,-0.360
219,-1.490,-0.365
220,-1.510,-0.385
221,-1.495,-0.370
222,-1.515,-0.380
223,-1.495,-0.375
224,-1.505,-0.360
225,-1.595,-0.345
226,-1.580,-0.390
227,-1.585,-0.475
228,-1.485,-0.825
229,-1.745,-0.920
230,-1.920,-0.905
231,-2.400,-0.115
232,-3.255,-0.160
233,-3.905,-2.475
234,-4.105,-3.205
235,-3.780,-2.890
236,-3.345,-2.235
237,-2.765,-1.360
238,-2.000,-0.795
239,-1.615,-0.345
240,-1.505,-0.185
241,-1.410,-0.160
242,-1.380,-0.130
243,-1.350,-0.135
244,-1.340,-0.110
245,-1.335,-0.100
246,-1.295,-0.095
247,-1.270,-0.080
248,-1.255,-0.080
249,-1.245,-0.035
250,-1.235,-0.050
251,-1.200,-0.005
252,-1.190,0.015
253,-1.135,0.025
254,-1.115,0.090
255,-1.080,0.110
256,-1.040,0.155
257,-1.035,0.175
258,-0.965,0.220
259,-0.930,0.295
260,-0.885,0.310
261,-0.860,0.345
262,-0.840,0.360
263,-0.840,0.390
264,-0.845,0.390
265,-0.805,0.400
266,-0.805,0.400
267,-0.790,0.450
268,-0.805,0.515
269,-0.805,0.530
270,-0.800,0.565
271,-0.815,0.590
272,-0.815,0.615
273,-0.830,0.630
274,-0.870,0.645
275,-0.920,0.630
276,-0.995,0.645
277,-1.055,0.635
278,-1.070,0.590
279,-1.150,0.555
280,-1.165,0.515
281,-1.210,0.485
282,-1.220,0.420
283,-1.235,0.360
284,-1.275,0.280
285,-1.310,0.255
286,-1.345,0.205
287,-1.330,0.170
288,-1.320,0.125
289,-1.320,0.075
290,-1.310,0.060
291,-1.350,0.025
292,-1.370,0.025
293,-1.380,-0.020
294,-1.385,-0.025
295,-1.355,-0.050
296,-1.370,-0.090
297,-1.370,-0.120
298,-1.390,-0.120
299,-1.420,-0.090
300,-1.395,-0.135
301,-1.360,-0.130
302,-1.355,-0.165
303,-1.375,-0.180
304,-1.360,-0.200
305,-1.380,-0.205
306,-1.365,-0.205
307,-1.355,-0.200
308,-1.360,-0.205
309,-1.335,-0.210
310,-1.360,-0.215
311,-1.340,-0.230
312,-1.365,-0.210
313,-1.335,-0.200
314,-1.330,-0.215
315,-1.350,-0.210
316,-1.315,-0.240
317,-1.335,-0.235
318,-1.345,-0.220
319,-1.340,-0.210
320,-1.355,-0.215
321,-1.310,-0.230
322,-1.305,-0.210
323,-1.290,-0.235
324,-1.320,-0.200
325,-1.315,-0.235
326,-1.255,-0.200
327,-1.205,-0.175
328,-1.180,-0.095
329,-1.160,-0.055
330,-1.090,-0.030
331,-1.040,-0.025
332,-1.065,-0.080
333,-1.100,-0.090
334,-1.140,-0.170
335,-1.145,-0.255
336,-1.150,-0.300
337,-1.250,-0.265
338,-1.275,-0.220
339,-1.325,-0.240
340,-1.320,-0.300
341,-1.315,-0.300
342,-1.310,-0.300
343,-1.295,-0.290
344,-1.310,-0.305
345,-1.285,-0.285
346,-1.295,-0.285
347,-1.355,-0.280
348,-1.340,-0.260
349,-1.325,-0.365
350,-1.240,-0.685
351,-1.495,-0.835
352,-1.665,-0.850
353,-2.125,-0.180
354,-2.935,-0.120
355,-3.570,-2.230
356,-3.825,-3.120
357,-3.520,-2.850
358,-3.110,-2.195
359,-2.485,-1.310
360,-1.680,-0.650
361,-1.275,-0.225
362,-1.135,-0.110
363,-1.075,-0.085
364,-1.055,-0.055
365,-1.015,-0.035
366,-1.020,-0.040
367,-0.970,-0.030
368,-0.970,-0.010
369,-0.945,0.000
370,-0.930,0.010
371,-0.900,0.010
372,-0.875,0.015
373,-0.860,0.050
374,-0.825,0.070
375,-0.780,0.100
376,-0.755,0.165
377,-0.705,0.170
378,-0.690,0.195
379,-0.625,0.230
380,-0.590,0.290
381,-0.560,0.335
382,-0.495,0.370
383,-0.475,0.385
384,-0.445,0.435
385,-0.430,0.450
386,-0.410,0.445
387,-0.415,0.450
388,-0.415,0.505
389,-0.385,0.475
390,-0.385,0.525
391,-0.380,0.555
392,-0.405,0.605
393,-0.415,0.630
394,-0.420,0.630
395,-0.470,0.655
396,-0.495,0.705
397,-0.545,0.680
398,-0.600,0.645
399,-0.650,0.665
400,-0.705,0.605
401,-0.725,0.580
402,-0.790,0.540
403,-0.805,0.460
404,-0.810,0.405
405,-0.870,0.315
406,-0.835,0.275
407,-0.880,0.260
408,-0.905,0.195
409,-0.930,0.170
410,-0.945,0.150
411,-0.910,0.095
412,-0.915,0.055
413,-0.915,0.050
414,-0.935,0.045
415,-0.950,0.000
416,-0.945,-0.030
417,-0.955,-0.070
418,-0.935,-0.045
419,-0.930,-0.045
420,-0.945,-0.095
421,-0.945,-0.070
422,-0.970,-0.100
423,-0.925,-0.100
424,-0.950,-0.110
425,-0.925,-0.120
426,-0.890,-0.135
427,-0.915,-0.115
428,-0.920,-0.130
429,-0.900,-0.140
430,-0.900,-0.165
431,-0.930,-0.155
432,-0.910,-0.155
433,-0.880,-0.145
434,-0.905,-0.145
435,-0.865,-0.160
436,-0.905,-0.175
437,-0.910,-0.165
438,-0.895,-0.175
439,-0.895,-0.165
440,-0.860,-0.155
441,-0.900,-0.175
442,-0.895,-0.160
443,-0.895,-0.160
444,-0.890,-0.160
445,-0.885,-0.155
446,-0.890,-0.170
447,-0.835,-0.135
448,-0.815,-0.155
449,-0.775,-0.075
450,-0.750,-0.005
451,-0.715,0.000
452,-0.635,0.045
453,-0.620,0.000
454,-0.630,-0.010
455,-0.690,-0.050
456,-0.720,-0.120
457,-0.730,-0.195
458,-0.805,-0.195
459,-0.855,-0.140
460,-0.875,-0.150
461,-0.890,-0.195
462,-0.870,-0.215
463,-0.880,-0.225
464,-0.855,-0.210
465,-0.860,-0.240
466,-0.850,-0.205
467,-0.840,-0.230
468,-0.900,-0.215
469,-0.970,-0.215
470,-0.900,-0.235
471,-0.905,-0.480
472,-0.850,-0.800
473,-1.200,-0.820
474,-1.340,-0.565
475,-2.135,0.185
476,-2.890,-1.135
477,-3.395,-2.740
478,-3.260,-2.890
479,-2.865,-2.420
480,-2.340,-1.685
481,-1.575,-0.870
482,-1.015,-0.415
483,-0.810,-0.120
484,-0.735,-0.090
485,-0.710,-0.035
486,-0.630,-0.050
487,-0.635,-0.050
488,-0.595,-0.040
489,-0.575,0.000
490,-0.575,0.000
491,-0.565,0.010
492,-0.555,0.040
493,-0.480,0.000
494,-0.495,0.020
495,-0.450,0.035
496,-0.420,0.070
497,-0.395,0.095
498,-0.355,0.150
499,-0.305,0.150
500,-0.245,0.195
501,-0.175,0.235
502,-0.160,0.270
503,-0.140,0.350
504,-0.130,0.365
505,-0.070,0.410
506,-0.040,0.425
507,-0.015,0.435
508,-0.005,0.465
509,-0.040,0.490
510,0.000,0.485
511,-0.010,0.520
512,-0.030,0.565
513,0.005,0.595
514,-0.045,0.635
515,-0.055,0.650
516,-0.090,0.705
517,-0.120,0.685
518,-0.165,0.710
519,-0.230,0.695
520,-0.285,0.685
521,-0.355,0.665
522,-0.395,0.630
523,-0.420,0.570
524,-0.460,0.515
525,-0.475,0.480
526,-0.525,0.410
527,-0.540,0.370
528,-0.540,0.325
529,-0.565,0.255
530,-0.555,0.235
531,-0.540,0.195
532,-0.560,0.140
533,-0.575,0.115
534,-0.580,0.065
535,-0.595,0.065
536,-0.590,0.030
537,-0.620,-0.035
538,-0.630,-0.020
539,-0.600,-0.045
540,-0.615,-0.070
541,-0.640,-0.095
542,-0.630,-0.080
543,-0.645,-0.105
544,-0.630,-0.120
545,-0.630,-0.125
546,-0.630,-0.110
547,-0.610,-0.120
548,-0.625,-0.120
549,-0.630,-0.130
550,-0.630,-0.115
551,-0.620,-0.135
552,-0.610,-0.130
553,-0.615,-0.135
554,-0.620,-0.125
555,-0.615,-0.150
556,-0.610,-0.120
557,-0.595,-0.115
558,-0.615,-0.145
559,-0.600,-0.155
560,-0.620,-0.140
561,-0.615,-0.145
562,-0.630,-0.155
563,-0.620,-0.130
564,-0.605,-0.140
565,-0.610,-0.145
566,-0.580,-0.145
567,-0.575,-0.145
568,-0.585,-0.150
569,-0.545,-0.160
570,-0.520,-0.095
571,-0.470,-0.015
572,-0.470,0.000
573,-0.415,0.045
574,-0.365,0.040
575,-0.385,-0.015
576,-0.400,-0.035
577,-0.480,-0.090
578,-0.440,-0.155
579,-0.520,-0.165
580,-0.610,-0.135
581,-0.635,-0.150
582,-0.670,-0.170
583,-0.660,-0.210
584,-0.680,-0.220
585,-0.645,-0.230
586,-0.630,-0.200
587,-0.620,-0.210
588,-0.620,-0.175
589,-0.660,-0.175
590,-0.750,-0.160
591,-0.745,-0.190
592,-0.730,-0.345
593,-0.530,-0.695
594,-0.835,-0.635
595,-0.865,-0.585
596,-1.625,0.345
597,-2.490,-0.260
598,-3.000,-2.405
599,-3.020,-2.825
600,-2.675,-2.410
601,-2.205,-1.750
602,-1.550,-0.910
603,-0.915,-0.450
604,-0.670,-0.125
605,-0.540,-0.030
606,-0.500,0.005
607,-0.480,0.025
608,-0.460,0.050
609,-0.415,0.065
610,-0.405,0.080
611,-0.400,0.095
612,-0.390,0.085
613,-0.375,0.115
614,-0.355,0.095
615,-0.330,0.125
616,-0.295,0.165
617,-0.255,0.200
618,-0.230,0.235
619,-0.205,0.280
620,-0.135,0.290
621,-0.110,0.325
622,-0.045,0.370
623,-0.025,0.425
624,0.020,0.490
625,0.020,0.510
626,0.060,0.540
627,0.110,0.570
628,0.125,0.595
629,0.155,0.610
630,0.140,0.605
631,0.155,0.625
632,0.175,0.675
633,0.155,0.680
634,0.175,0.735
635,0.150,0.740
636,0.145,0.800
637,0.095,0.785
638,0.070,0.780
639,0.035,0.775
640,-0.020,0.785
641,-0.090,0.795
642,-0.135,0.765
643,-0.190,0.755
644,-0.255,0.685
645,-0.310,0.635
646,-0.310,0.565
647,-0.340,0.520
648,-0.345,0.475
649,-0.380,0.425
650,-0.390,0.395
651,-0.385,0.360
652,-0.405,0.325
653,-0.395,0.285
654,-0.415,0.265
655,-0.430,0.205
656,-0.470,0.205
657,-0.480,0.145
658,-0.480,0.145
659,-0.450,0.120
660,-0.515,0.060
661,-0.490,0.060
662,-0.515,0.010
663,-0.515,0.030
664,-0.520,-0.010
665,-0.510,-0.005
666,-0.530,0.000
667,-0.520,0.005
668,-0.505,-0.005
669,-0.515,0.005
670,-0.510,0.010
671,-0.490,0.005
672,-0.540,0.000
673,-0.510,0.000
674,-0.495,0.000
675,-0.495,-0.005
676,-0.460,-0.005
677,-0.500,0.000
678,-0.490,0.000
679,-0.510,-0.025
680,-0.480,0.000
681,-0.475,0.005
682,-0.485,-0.005
683,-0.460,0.025
684,-0.495,0.015
685,-0.475,0.000
686,-0.440,0.000
687,-0.445,0.000
688,-0.475,0.000
689,-0.460,0.000
690,-0.390,0.035
691,-0.375,0.080
692,-0.330,0.175
693,-0.295,0.200
694,-0.265,0.250
695,-0.215,0.205
696,-0.225,0.165
697,-0.265,0.125
698,-0.315,0.025
699,-0.345,-0.020
700,-0.365,-0.055
701,-0.475,0.010
702,-0.515,0.000
703,-0.515,-0.060
704,-0.540,-0.070
705,-0.525,-0.065
706,-0.515,-0.070
707,-0.530,-0.035
708,-0.505,-0.015
709,-0.455,-0.030
710,-0.515,-0.045
711,-0.600,-0.025
712,-0.540,-0.080
713,-0.525,-0.290
714,-0.500,-0.620
715,-0.855,-0.595
716,-1.010,-0.235
717,-1.770,0.495
718,-2.545,-0.970
719,-3.015,-2.745
720,-2.995,-2.785
721,-2.645,-2.330
722,-2.080,-1.485
723,-1.295,-0.635
724,-0.685,-0.215
725,-0.485,0.090
726,-0.385,0.140
727,-0.340,0.185
728,-0.325,0.225
729,-0.265,0.230
730,-0.270,0.220
731,-0.240,0.235
732,-0.235,0.225
733,-0.225,0.240
734,-0.200,0.285
735,-0.195,0.305
736,-0.135,0.320
737,-0.125,0.325
738,-0.105,0.325
739,-0.055,0.345
740,-0.040,0.390
741,0.000,0.410
742,0.045,0.445
743,0.060,0.490
744,0.100,0.505
745,0.130,0.580
746,0.180,0.605
747,0.210,0.605
748,0.240,0.635
749,0.225,0.690
750,0.255,0.645
751,0.260,0.655
752,0.250,0.685
753,0.255,0.725
754,0.275,0.750
755,0.290,0.790
756,0.285,0.825
757,0.255,0.865
758,0.225,0.870
759,0.180,0.875
760,0.160,0.895
761,0.085,0.905
762,0.030,0.875
763,-0.010,0.850
764,-0.105,0.820
765,-0.155,0.760
766,-0.200,0.700
767,-0.230,0.640
768,-0.250,0.560
769,-0.260,0.515
770,-0.295,0.460
771,-0.330,0.390
772,-0.340,0.385
773,-0.310,0.340
774,-0.380,0.320
775,-0.355,0.270
776,-0.385,0.240
777,-0.370,0.210
778,-0.395,0.175
779,-0.395,0.140
780,-0.420,0.125
781,-0.430,0.075
782,-0.395,0.070
783,-0.390,0.035
784,-0.410,0.035
785,-0.410,0.035
786,-0.450,0.010
787,-0.445,0.000
788,-0.455,0.000
789,-0.440,0.000
790,-0.430,0.030
791,-0.455,-0.005
792,-0.445,-0.040
793,-0.475,-0.035
794,-0.450,-0.005
795,-0.430,0.000
796,-0.455,-0.020
797,-0.440,0.000
798,-0.450,-0.040
799,-0.460,0.005
800,-0.475,0.000
801,-0.465,0.015
802,-0.430,0.000
803,-0.480,0.000
804,-0.455,-0.015
805,-0.455,-0.020
806,-0.470,0.000
807,-0.465,-0.020
808,-0.430,0.020
809,-0.405,-0.005
810,-0.410,0.010
811,-0.350,0.030
812,-0.285,0.135
813,-0.275,0.155
814,-0.235,0.220
815,-0.180,0.230
816,-0.175,0.160
817,-0.235,0.150
818,-0.290,0.060
819,-0.290,0.000
820,-0.315,-0.035
821,-0.415,0.000
822,-0.475,0.035
823,-0.510,-0.010
824,-0.505,-0.035
825,-0.515,-0.090
826,-0.505,-0.070
827,-0.485,-0.035
828,-0.475,-0.055
829,-0.475,-0.055
830,-0.520,-0.045
831,-0.600,-0.050
832,-0.545,-0.060
833,-0.560,-0.230
834,-0.395,-0.625
835,-0.815,-0.600
836,-0.915,-0.495
837,-1.645,0.365
838,-2.450,-0.460
839,-3.015,-2.465
840,-3.055,-2.825
841,-2.695,-2.450
842,-2.200,-1.720
843,-1.495,-0.820
844,-0.820,-0.375
845,-0.500,-0.020
846,-0.375,0.085
847,-0.305,0.140
848,-0.250,0.130
849,-0.275,0.135
850,-0.245,0.135
851,-0.245,0.150
852,-0.225,0.145
853,-0.160,0.155
854,-0.155,0.160
855,-0.155,0.170
856,-0.120,0.185
857,-0.105,0.210
858,-0.015,0.200
859,-0.030,0.250
860,0.010,0.250
861,0.035,0.300
862,0.085,0.335
863,0.150,0.385
864,0.175,0.420
865,0.200,0.465
866,0.245,0.495
867,0.255,0.535
868,0.315,0.560
869,0.310,0.570
870,0.335,0.610
871,0.330,0.580
872,0.335,0.595
873,0.370,0.610
874,0.375,0.615
875,0.355,0.675
876,0.310,0.715
877,0.345,0.755
878,0.330,0.760
879,0.285,0.770
880,0.260,0.765
881,0.165,0.760
882,0.135,0.785
883,0.050,0.760
884,0.005,0.700
885,-0.025,0.655
886,-0.075,0.610
887,-0.080,0.520
888,-0.140,0.460
889,-0.160,0.400
890,-0.155,0.340
891,-0.190,0.320
892,-0.200,0.230
893,-0.205,0.180
894,-0.190,0.155
895,-0.230,0.110
896,-0.250,0.080
897,-0.250,0.025
898,-0.245,-0.015
899,-0.240,0.000
900,-0.265,-0.060
901,-0.270,-0.065
902,-0.260,-0.105
903,-0.260,-0.110
904,-0.260,-0.125
905,-0.255,-0.140
906,-0.235,-0.160
907,-0.250,-0.175
908,-0.270,-0.205
909,-0.260,-0.175
910,-0.265,-0.210
911,-0.245,-0.200
912,-0.240,-0.215
913,-0.240,-0.220
914,-0.235,-0.210
915,-0.235,-0.250
916,-0.235,-0.195
917,-0.250,-0.240
918,-0.220,-0.240
919,-0.230,-0.235
920,-0.230,-0.260
921,-0.185,-0.245
922,-0.195,-0.230
923,-0.210,-0.255
924,-0.245,-0.285
925,-0.225,-0.265
926,-0.210,-0.270
927,-0.185,-0.270
928,-0.180,-0.300
929,-0.165,-0.275
930,-0.110,-0.255
931,-0.065,-0.200
932,-0.055,-0.135
933,-0.015,-0.120
934,0.020,-0.085
935,0.075,-0.150
936,0.095,-0.135
937,-0.005,-0.195
938,0.000,-0.245
939,0.000,-0.280
940,-0.065,-0.290
941,-0.150,-0.230
942,-0.180,-0.280
943,-0.190,-0.300
944,-0.195,-0.320
945,-0.170,-0.350
946,-0.170,-0.345
947,-0.165,-0.335
948,-0.155,-0.355
949,-0.165,-0.345
950,-0.225,-0.345
951,-0.325,-0.340
952,-0.245,-0.410
953,-0.140,-0.665
954,-0.115,-0.865
955,-0.315,-0.835
956,-0.670,-0.355
957,-1.600,0.395
958,-2.355,-1.315
959,-2.715,-2.890
960,-2.385,-2.830
961,-2.045,-2.360
962,-1.475,-1.470
963,-0.770,-0.860
964,-0.265,-0.515
965,-0.075,-0.285
966,-0.030,-0.205
967,0.035,-0.160
968,0.065,-0.155
969,0.080,-0.145
970,0.085,-0.155
971,0.080,-0.135
972,0.125,-0.140
973,0.120,-0.120
974,0.155,-0.105
975,0.160,-0.100
976,0.190,-0.070
977,0.235,-0.055
978,0.255,-0.030
979,0.310,-0.005
980,0.325,0.030
981,0.405,0.050
982,0.430,0.110
983,0.445,0.155
984,0.495,0.190
985,0.540,0.220
986,0.570,0.285
987,0.600,0.295
988,0.590,0.345
989,0.615,0.340
990,0.615,0.340
991,0.615,0.350
992,0.625,0.360
993,0.620,0.380
994,0.640,0.430
995,0.585,0.435
996,0.595,0.485
997,0.560,0.495
998,0.545,0.490
999,0.475,0.510
1000,0.415,0.505
1001,0.370,0.520
1002,0.270,0.495
1003,0.235,0.480
1004,0.185,0.420
1005,0.135,0.420
1006,0.100,0.340
1007,0.065,0.310
1008,0.045,0.235
1009,0.025,0.185
1010,0.000,0.160
1011,0.000,0.105
1012,-0.005,0.030
1013,-0.010,0.025
1014,-0.050,-0.005
1015,-0.080,-0.055
1016,-0.065,-0.065
1017,-0.095,-0.105
1018,-0.090,-0.125
1019,-0.105,-0.130
1020,-0.130,-0.180
1021,-0.125,-0.200
1022,-0.170,-0.220
1023,-0.145,-0.215
1024,-0.150,-0.255
1025,-0.155,-0.265
1026,-0.175,-0.250
1027,-0.195,-0.305
1028,-0.190,-0.295
1029,-0.200,-0.310
1030,-0.185,-0.305
1031,-0.205,-0.290
1032,-0.190,-0.310
1033,-0.200,-0.310
1034,-0.210,-0.315
1035,-0.210,-0.300
1036,-0.205,-0.305
1037,-0.220,-0.285
1038,-0.215,-0.325
1039,-0.225,-0.325
1040,-0.190,-0.275
1041,-0.215,-0.310
1042,-0.210,-0.300
1043,-0.230,-0.275
1044,-0.270,-0.300
1045,-0.235,-0.310
1046,-0.260,-0.295
1047,-0.235,-0.310
1048,-0.235,-0.305
1049,-0.265,-0.305
1050,-0.245,-0.275
1051,-0.230,-0.290
1052,-0.150,-0.255
1053,-0.125,-0.160
1054,-0.100,-0.125
1055,-0.050,-0.080
1056,-0.040,-0.090
1057,-0.050,-0.130
1058,-0.090,-0.165
1059,-0.135,-0.250
1060,-0.125,-0.310
1061,-0.195,-0.335
1062,-0.275,-0.285
1063,-0.365,-0.255
1064,-0.400,-0.310
1065,-0.390,-0.340
1066,-0.405,-0.360
1067,-0.375,-0.320
1068,-0.350,-0.320
1069,-0.375,-0.305
1070,-0.365,-0.325
1071,-0.420,-0.295
1072,-0.490,-0.315
1073,-0.440,-0.345
1074,-0.415,-0.495
1075,-0.285,-0.855
1076,-0.730,-0.840
1077,-0.835,-0.700
1078,-1.570,0.205
1079,-2.375,-0.710
1080,-2.945,-2.750
1081,-2.905,-3.090
1082,-2.580,-2.655
1083,-2.030,-1.855
1084,-1.220,-0.980
1085,-0.580,-0.515
1086,-0.360,-0.195
1087,-0.275,-0.125
1088,-0.230,-0.090
1089,-0.190,-0.090
1090,-0.195,-0.075
1091,-0.135,-0.035
1092,-0.135,-0.050
1093,-0.125,-0.015
1094,-0.100,-0.015
1095,-0.115,-0.005
1096,-0.085,0.020
1097,-0.080,0.035
1098,-0.025,0.075
1099,0.005,0.085
1100,0.020,0.110
1101,0.055,0.150
1102,0.065,0.170
1103,0.130,0.210
1104,0.170,0.275
1105,0.195,0.305
1106,0.220,0.325
1107,0.255,0.370
1108,0.290,0.410
1109,0.300,0.415
1110,0.310,0.435
1111,0.315,0.450
1112,0.325,0.455
1113,0.325,0.460
1114,0.345,0.485
1115,0.355,0.510
1116,0.355,0.565
1117,0.340,0.590
1118,0.315,0.635
1119,0.290,0.645
1120,0.275,0.655
1121,0.225,0.655
1122,0.155,0.660
1123,0.095,0.650
1124,0.010,0.640
1125,-0.040,0.620
1126,-0.090,0.560
1127,-0.165,0.525
1128,-0.180,0.450
1129,-0.225,0.380
1130,-0.265,0.340
1131,-0.300,0.265
1132,-0.335,0.220
1133,-0.330,0.215
1134,-0.360,0.130
1135,-0.355,0.100
1136,-0.355,0.075
1137,-0.380,0.050
1138,-0.395,0.020
1139,-0.435,-0.030
1140,-0.455,-0.045
1141,-0.455,-0.060
1142,-0.460,-0.105
1143,-0.455,-0.120
1144,-0.480,-0.150
1145,-0.445,-0.160
1146,-0.475,-0.185
1147,-0.490,-0.180
1148,-0.505,-0.195
1149,-0.500,-0.195
1150,-0.450,-0.180
1151,-0.525,-0.205
1152,-0.505,-0.180
1153,-0.505,-0.215
1154,-0.540,-0.200
1155,-0.525,-0.220
1156,-0.535,-0.215
1157,-0.510,-0.185
1158,-0.520,-0.215
1159,-0.510,-0.230
1160,-0.500,-0.205
1161,-0.525,-0.245
1162,-0.530,-0.225
1163,-0.535,-0.235
1164,-0.520,-0.210
1165,-0.530,-0.230
1166,-0.510,-0.230
1167,-0.520,-0.200
1168,-0.535,-0.230
1169,-0.540,-0.210
1170,-0.530,-0.230
1171,-0.515,-0.215
1172,-0.465,-0.230
1173,-0.415,-0.145
1174,-0.380,-0.090
1175,-0.370,-0.045
1176,-0.350,-0.015
1177,-0.295,0.000
1178,-0.270,-0.030
1179,-0.310,-0.070
1180,-0.380,-0.145
1181,-0.430,-0.235
1182,-0.405,-0.280
1183,-0.540,-0.250
1184,-0.615,-0.185
1185,-0.645,-0.275
1186,-0.630,-0.260
1187,-0.625,-0.260
1188,-0.625,-0.260
1189,-0.620,-0.230
1190,-0.610,-0.255
1191,-0.625,-0.230
1192,-0.610,-0.230
1193,-0.710,-0.200
1194,-0.710,-0.250
1195,-0.680,-0.360
1196,-0.515,-0.685
1197,-0.915,-0.800
1198,-0.995,-0.790
1199,-1.560,0.030
1200,-2.415,-0.175
1201,-3.050,-2.355
1202,-3.265,-3.020
1203,-2.965,-2.765
1204,-2.530,-2.110
1205,-1.860,-1.190
1206,-1.040,-0.585
1207,-0.665,-0.175
1208,-0.520,-0.010
1209,-0.465,0.020
1210,-0.440,0.055
1211,-0.390,0.060
1212,-0.385,0.050
1213,-0.365,0.090
1214,-0.330,0.085
1215,-0.335,0.070
1216,-0.305,0.115
1217,-0.305,0.140
1218,-0.255,0.145
1219,-0.250,0.170
1220,-0.240,0.200
1221,-0.170,0.200
1222,-0.145,0.250
1223,-0.085,0.285
1224,-0.070,0.310
1225,-0.030,0.355
1226,-0.005,0.385
1227,0.025,0.435
1228,0.085,0.475
1229,0.105,0.510
1230,0.130,0.545
1231,0.160,0.550
1232,0.125,0.560
1233,0.160,0.565
1234,0.150,0.590
1235,0.190,0.615
1236,0.170,0.630
1237,0.155,0.675
1238,0.195,0.685
1239,0.150,0.730
1240,0.140,0.760
1241,0.090,0.775
1242,0.055,0.775
1243,0.025,0.795
1244,-0.035,0.795
1245,-0.085,0.785
1246,-0.140,0.790
1247,-0.205,0.735
1248,-0.275,0.680
1249,-0.320,0.635
1250,-0.340,0.580
1251,-0.390,0.535
1252,-0.385,0.450
1253,-0.440,0.390
1254,-0.455,0.360
1255,-0.460,0.320
1256,-0.485,0.275
1257,-0.490,0.240
1258,-0.525,0.210
1259,-0.540,0.180
1260,-0.530,0.150
1261,-0.565,0.095
1262,-0.545,0.080
1263,-0.555,0.040
1264,-0.585,0.005
1265,-0.585,-0.010
1266,-0.590,-0.020
1267,-0.595,-0.050
1268,-0.600,-0.035
1269,-0.615,-0.015
1270,-0.615,-0.045
1271,-0.615,-0.035
1272,-0.590,-0.055
1273,-0.605,-0.070
1274,-0.595,-0.050
1275,-0.600,-0.060
1276,-0.585,-0.080
1277,-0.610,-0.050
1278,-0.580,-0.070
1279,-0.590,-0.090
1280,-0.620,-0.110
1281,-0.590,-0.090
1282,-0.580,-0.070
1283,-0.590,-0.060
1284,-0.570,-0.050
1285,-0.575,-0.045
1286,-0.575,-0.060
1287,-0.585,-0.080
1288,-0.610,-0.060
1289,-0.580,-0.070
1290,-0.595,-0.085
1291,-0.570,-0.075
1292,-0.565,-0.065
1293,-0.540,-0.065
1294,-0.465,0.005
1295,-0.435,0.040
1296,-0.425,0.110
1297,-0.375,0.135
1298,-0.315,0.160
1299,-0.260,0.140
1300,-0.310,0.075
1301,-0.390,0.055
1302,-0.490,-0.090
1303,-0.520,-0.120
1304,-0.560,-0.055
1305,-0.625,-0.080
1306,-0.590,-0.085
1307,-0.575,-0.105
1308,-0.555,-0.070
1309,-0.540,-0.075
1310,-0.540,-0.080
1311,-0.535,-0.075
1312,-0.525,-0.075
1313,-0.505,-0.040
1314,-0.510,-0.045
1315,-0.615,-0.035
1316,-0.560,-0.060
1317,-0.570,-0.240
1318,-0.425,-0.580
1319,-0.845,-0.640
1320,-0.880,-0.490
1321,-1.635,0.350
1322,-2.450,-0.455
1323,-3.035,-2.405
1324,-3.010,-2.660
1325,-2.620,-2.330
1326,-2.085,-1.535
1327,-1.350,-0.660
1328,-0.675,-0.260
1329,-0.360,0.090
1330,-0.230,0.205
1331,-0.165,0.265
1332,-0.115,0.295
1333,-0.055,0.335
1334,-0.045,0.320
1335,-0.030,0.340
1336,0.010,0.365
1337,0.020,0.390
1338,0.050,0.400
1339,0.070,0.415
1340,0.105,0.400
1341,0.125,0.435
1342,0.155,0.470
1343,0.235,0.490
1344,0.295,0.540
1345,0.335,0.555
1346,0.385,0.615
1347,0.420,0.660
1348,0.445,0.675
1349,0.505,0.780
1350,0.565,0.815
1351,0.570,0.855
1352,0.635,0.860
1353,0.655,0.885
1354,0.640,0.885
1355,0.665,0.910
1356,0.680,0.935
1357,0.690,0.980
1358,0.700,1.000
1359,0.700,1.050
1360,0.700,1.080
1361,0.690,1.120
1362,0.675,1.150
1363,0.655,1.175
1364,0.625,1.155
1365,0.590,1.185
1366,0.510,1.160
1367,0.490,1.155
1368,0.420,1.095
1369,0.400,1.075
1370,0.385,0.975
1371,0.350,0.945
1372,0.355,0.885
1373,0.300,0.835
1374,0.285,0.780
1375,0.275,0.730
1376,0.280,0.685
1377,0.290,0.660
1378,0.265,0.615
1379,0.295,0.565
1380,0.255,0.540
1381,0.270,0.540
1382,0.260,0.475
1383,0.265,0.480
1384,0.280,0.410
1385,0.265,0.420
1386,0.230,0.360
1387,0.235,0.345
1388,0.250,0.350
1389,0.245,0.315
1390,0.240,0.280
1391,0.240,0.310
1392,0.265,0.270
1393,0.250,0.260
1394,0.260,0.280
1395,0.230,0.250
1396,0.250,0.275
1397,0.260,0.260
1398,0.260,0.270
1399,0.265,0.245
1400,0.265,0.250
1401,0.280,0.245
1402,0.265,0.260
1403,0.280,0.265
1404,0.290,0.255
1405,0.285,0.260
1406,0.270,0.255
1407,0.280,0.250
1408,0.285,0.265
1409,0.310,0.225
1410,0.300,0.195
1411,0.320,0.180
1412,0.295,0.225
1413,0.310,0.195
1414,0.325,0.220
1415,0.335,0.250
1416,0.385,0.300
1417,0.395,0.360
1418,0.430,0.420
1419,0.480,0.435
1420,0.505,0.450
1421,0.540,0.405
1422,0.500,0.380
1423,0.445,0.345
1424,0.435,0.270
1425,0.430,0.215
1426,0.360,0.230
1427,0.250,0.255
1428,0.240,0.240
1429,0.195,0.225
1430,0.265,0.220
1431,0.280,0.195
1432,0.280,0.220
1433,0.285,0.215
1434,0.265,0.180
1435,0.255,0.200
1436,0.220,0.210
1437,0.100,0.210
1438,0.140,0.165
1439,0.185,-0.035
1440,0.355,-0.320
1441,0.135,-0.310
1442,-0.090,-0.065
1443,-1.020,0.870
1444,-1.890,-0.270
1445,-2.255,-2.025
1446,-2.165,-2.255
1447,-1.790,-1.850
1448,-1.205,-1.025
1449,-0.600,-0.440
1450,0.000,-0.050
1451,0.235,0.280
1452,0.350,0.370
1453,0.395,0.435
1454,0.415,0.435
1455,0.430,0.455
1456,0.450,0.460
1457,0.465,0.490
1458,0.475,0.470
1459,0.475,0.515
1460,0.520,0.510
1461,0.530,0.530
1462,0.555,0.540
1463,0.565,0.575
1464,0.595,0.585
1465,0.655,0.650
1466,0.670,0.685
1467,0.725,0.720
1468,0.740,0.740
1469,0.795,0.790
1470,0.795,0.855
1471,0.800,0.860
1472,0.860,0.890
1473,0.870,0.960
1474,0.895,0.955
1475,0.885,0.955
1476,0.890,0.970
1477,0.885,0.965
1478,0.875,0.980
1479,0.840,1.015
1480,0.855,1.030
1481,0.840,1.070
1482,0.855,1.100
1483,0.830,1.150
1484,0.795,1.150
1485,0.755,1.125
1486,0.685,1.160
1487,0.630,1.125
1488,0.590,1.145
1489,0.560,1.135
1490,0.505,1.120
1491,0.455,1.070
1492,0.385,1.010
1493,0.365,0.965
1494,0.330,0.905
1495,0.325,0.860
1496,0.295,0.860
1497,0.290,0.795
1498,0.250,0.735
1499,0.240,0.650
1500,0.220,0.635
1501,0.210,0.595
1502,0.200,0.585
1503,0.165,0.535
1504,0.155,0.485
1505,0.105,0.435
1506,0.085,0.420
1507,0.065,0.390
1508,0.040,0.365
1509,0.050,0.350
1510,0.035,0.360
1511,0.015,0.330
1512,0.005,0.295
1513,-0.020,0.295
1514,-0.035,0.280
1515,-0.060,0.240
1516,-0.060,0.240
1517,-0.070,0.240
1518,-0.045,0.225
1519,-0.060,0.250
1520,-0.100,0.210
1521,-0.085,0.200
1522,-0.105,0.225
1523,-0.100,0.210
1524,-0.110,0.230
1525,-0.125,0.205
1526,-0.135,0.200
1527,-0.155,0.195
1528,-0.155,0.200
1529,-0.160,0.200
1530,-0.185,0.180
1531,-0.180,0.160
1532,-0.200,0.185
1533,-0.190,0.175
1534,-0.210,0.175
1535,-0.215,0.170
1536,-0.245,0.185
1537,-0.250,0.175
1538,-0.180,0.170
1539,-0.105,0.220
1540,-0.100,0.275
1541,-0.080,0.310
1542,-0.070,0.355
1543,-0.030,0.360
1544,-0.015,0.305
1545,-0.055,0.265
1546,-0.115,0.205
1547,-0.165,0.145
1548,-0.195,0.085
1549,-0.315,0.090
1550,-0.410,0.145
1551,-0.460,0.095
1552,-0.450,0.050
1553,-0.450,0.070
1554,-0.460,0.055
1555,-0.450,0.060
1556,-0.450,0.060
1557,-0.445,0.065
1558,-0.460,0.055
1559,-0.540,0.070
1560,-0.595,0.080
1561,-0.555,0.005
1562,-0.490,-0.230
1563,-0.530,-0.510
1564,-0.865,-0.510
1565,-1.180,0.035
1566,-2.040,0.630
1567,-2.760,-1.115
1568,-3.195,-2.685
1569,-3.040,-2.700
1570,-2.670,-2.180
1571,-2.090,-1.295
1572,-1.280,-0.540
1573,-0.745,-0.125
1574,-0.530,0.200
1575,-0.430,0.255
1576,-0.405,0.275
1577,-0.360,0.300
1578,-0.350,0.300
1579,-0.345,0.300
1580,-0.330,0.325
1581,-0.320,0.300
1582,-0.315,0.315
1583,-0.290,0.345
1584,-0.270,0.370
1585,-0.275,0.365
1586,-0.235,0.385
1587,-0.200,0.400
1588,-0.175,0.430
1589,-0.125,0.475
1590,-0.125,0.500
1591,-0.085,0.565
1592,-0.070,0.555
1593,-0.030,0.600
1594,0.025,0.635
1595,0.025,0.665
1596,0.045,0.715
1597,0.055,0.710
1598,0.065,0.770
1599,0.100,0.750
1600,0.100,0.740
1601,0.100,0.760
1602,0.090,0.770
1603,0.085,0.830
1604,0.080,0.845
1605,0.065,0.890
1606,0.030,0.900
1607,-0.005,0.925
1608,-0.025,0.920
1609,-0.075,0.910
1610,-0.145,0.905
1611,-0.185,0.875
1612,-0.275,0.855
1613,-0.330,0.840
1614,-0.390,0.755
1615,-0.415,0.695
1616,-0.455,0.615
1617,-0.505,0.580
1618,-0.535,0.525
1619,-0.595,0.475
1620,-0.615,0.410
1621,-0.605,0.375
1622,-0.615,0.350
1623,-0.590,0.290
1624,-0.615,0.260
1625,-0.650,0.230
1626,-0.665,0.185
1627,-0.700,0.175
1628,-0.690,0.125
1629,-0.700,0.095
1630,-0.700,0.080
1631,-0.740,0.050
1632,-0.730,0.040
1633,-0.730,0.010
1634,-0.765,0.000
1635,-0.720,-0.010
1636,-0.725,0.000
1637,-0.740,-0.015
1638,-0.725,-0.025
1639,-0.755,-0.040
1640,-0.750,-0.050
1641,-0.805,-0.060
1642,-0.795,-0.060
1643,-0.770,-0.075
1644,-0.795,-0.055
1645,-0.755,-0.065
1646,-0.795,-0.110
1647,-0.805,-0.080
1648,-0.795,-0.080
1649,-0.825,-0.100
1650,-0.800,-0.095
1651,-0.810,-0.085
1652,-0.800,-0.085
1653,-0.795,-0.085
1654,-0.830,-0.105
1655,-0.835,-0.090
1656,-0.830,-0.090
1657,-0.795,-0.110
1658,-0.835,-0.115
1659,-0.815,-0.160
1660,-0.795,-0.145
1661,-0.735,-0.150
1662,-0.690,-0.075
1663,-0.710,0.005
1664,-0.640,0.010
1665,-0.590,0.060
1666,-0.580,-0.010
1667,-0.615,-0.030
1668,-0.685,-0.115
1669,-0.720,-0.175
1670,-0.765,-0.215
1671,-0.830,-0.225
1672,-0.920,-0.185
1673,-0.960,-0.205
1674,-0.950,-0.230
1675,-0.950,-0.240
1676,-0.960,-0.265
1677,-0.955,-0.275
1678,-0.960,-0.270
1679,-0.955,-0.230
1680,-0.965,-0.255
1681,-1.005,-0.225
1682,-1.060,-0.250
1683,-1.010,-0.330
1684,-0.945,-0.585
1685,-1.025,-0.835
1686,-1.325,-0.840
1687,-1.620,-0.280
1688,-2.435,0.300
1689,-3.180,-1.570
1690,-3.600,-3.015
1691,-3.395,-2.920
1692,-3.070,-2.400
1693,-2.455,-1.500
1694,-1.615,-0.750
1695,-1.100,-0.335
1696,-0.910,-0.100
1697,-0.860,-0.060
1698,-0.795,-0.025
1699,-0.750,0.010
1700,-0.745,0.020
1701,-0.710,0.025
1702,-0.700,0.045
1703,-0.680,0.055
1704,-0.660,0.040
1705,-0.625,0.045
1706,-0.600,0.070
1707,-0.590,0.065
1708,-0.560,0.110
1709,-0.535,0.130
1710,-0.515,0.200
1711,-0.460,0.225
1712,-0.420,0.245
1713,-0.370,0.305
1714,-0.355,0.315
1715,-0.305,0.345
1716,-0.265,0.410
1717,-0.240,0.450
1718,-0.195,0.455
1719,-0.195,0.505
1720,-0.175,0.480
1721,-0.170,0.505
1722,-0.155,0.510
1723,-0.150,0.540
1724,-0.155,0.570
1725,-0.130,0.610
1726,-0.165,0.635
1727,-0.195,0.690
1728,-0.190,0.665
1729,-0.225,0.735
1730,-0.245,0.730
1731,-0.315,0.725
1732,-0.385,0.730
1733,-0.455,0.700
1734,-0.540,0.670
1735,-0.575,0.640
1736,-0.610,0.595
1737,-0.665,0.515
1738,-0.715,0.475
1739,-0.730,0.400
1740,-0.760,0.340
1741,-0.795,0.300
1742,-0.775,0.275
1743,-0.795,0.235
1744,-0.815,0.165
1745,-0.815,0.155
1746,-0.860,0.125
1747,-0.855,0.065
1748,-0.860,0.035
1749,-0.875,0.000
1750,-0.900,-0.035
1751,-0.910,-0.035
1752,-0.880,-0.060
1753,-0.930,-0.095
1754,-0.935,-0.110
1755,-0.910,-0.130
1756,-0.905,-0.155
1757,-0.905,-0.145
1758,-0.920,-0.145
1759,-0.925,-0.145
1760,-0.925,-0.180
1761,-0.945,-0.170
1762,-0.940,-0.190
1763,-0.950,-0.195
1764,-0.935,-0.180
1765,-0.950,-0.185
1766,-0.960,-0.190
1767,-0.960,-0.200
1768,-0.960,-0.210
1769,-0.940,-0.205
1770,-0.940,-0.190
1771,-0.945,-0.215
1772,-0.950,-0.235
1773,-0.945,-0.230
1774,-0.935,-0.215
1775,-0.965,-0.240
1776,-0.940,-0.220
1777,-0.955,-0.245
1778,-0.990,-0.220
1779,-0.950,-0.220
1780,-0.955,-0.225
1781,-0.950,-0.235
1782,-0.945,-0.240
1783,-0.895,-0.205
1784,-0.855,-0.165
1785,-0.840,-0.130
1786,-0.795,-0.075
1787,-0.765,-0.055
1788,-0.725,-0.070
1789,-0.725,-0.135
1790,-0.780,-0.130
1791,-0.835,-0.240
1792,-0.840,-0.280
1793,-0.895,-0.285
1794,-0.990,-0.235
1795,-1.050,-0.270
1796,-1.045,-0.320
1797,-1.060,-0.315
1798,-1.045,-0.320
1799,-1.020,-0.325
1800,-1.030,-0.320
1801,-1.030,-0.320
1802,-1.035,-0.350
1803,-1.125,-0.315
1804,-1.195,-0.315
1805,-1.120,-0.370
1806,-1.055,-0.645
1807,-1.040,-0.900
1808,-1.360,-0.880
1809,-1.580,-0.515
1810,-2.370,0.260
1811,-3.215,-1.215
1812,-3.655,-2.875
1813,-3.475,-2.815
1814,-3.085,-2.450
1815,-2.545,-1.670
1816,-1.850,-0.935
1817,-1.235,-0.515
1818,-1.015,-0.215
1819,-0.940,-0.125
1820,-0.885,-0.125
1821,-0.890,-0.115
1822,-0.840,-0.090
1823,-0.835,-0.105
1824,-0.810,-0.085
1825,-0.795,-0.085
1826,-0.790,-0.070
1827,-0.760,-0.040
1828,-0.745,-0.040
1829,-0.730,-0.015
1830,-0.655,-0.005
1831,-0.640,0.000
1832,-0.600,0.035
1833,-0.550,0.085
1834,-0.515,0.100
1835,-0.470,0.105
1836,-0.410,0.185
1837,-0.370,0.215
1838,-0.350,0.275
1839,-0.310,0.315
1840,-0.295,0.380
1841,-0.255,0.390
1842,-0.255,0.410
1843,-0.250,0.440
1844,-0.210,0.430
1845,-0.225,0.455
1846,-0.195,0.475
1847,-0.185,0.515
1848,-0.230,0.555
1849,-0.210,0.590
1850,-0.230,0.620
1851,-0.265,0.640
1852,-0.305,0.645
1853,-0.370,0.660
1854,-0.390,0.645
1855,-0.500,0.645
1856,-0.520,0.615
1857,-0.580,0.570
1858,-0.620,0.525
1859,-0.625,0.455
1860,-0.700,0.400
1861,-0.710,0.315
1862,-0.745,0.265
1863,-0.765,0.220
1864,-0.765,0.190
1865,-0.790,0.140
1866,-0.775,0.075
1867,-0.795,0.035
1868,-0.775,0.010
1869,-0.805,-0.005
1870,-0.835,-0.035
1871,-0.800,-0.050
1872,-0.850,-0.095
1873,-0.830,-0.115
1874,-0.855,-0.140
1875,-0.870,-0.180
1876,-0.870,-0.170
1877,-0.885,-0.195
1878,-0.855,-0.200
1879,-0.865,-0.205
1880,-0.860,-0.220
1881,-0.865,-0.220
1882,-0.885,-0.270
1883,-0.875,-0.245
1884,-0.880,-0.260
1885,-0.865,-0.250
1886,-0.855,-0.260
1887,-0.880,-0.270
1888,-0.885,-0.265
1889,-0.880,-0.285
1890,-0.860,-0.280
1891,-0.875,-0.285
1892,-0.870,-0.290
1893,-0.850,-0.270
1894,-0.875,-0.275
1895,-0.860,-0.285
1896,-0.875,-0.290
1897,-0.860,-0.245
1898,-0.845,-0.260
1899,-0.860,-0.245
1900,-0.870,-0.295
1901,-0.875,-0.270
1902,-0.870,-0.275
1903,-0.850,-0.260
1904,-0.870,-0.260
1905,-0.810,-0.275
1906,-0.770,-0.240
1907,-0.730,-0.160
1908,-0.730,-0.110
1909,-0.675,-0.085
1910,-0.605,-0.115
1911,-0.610,-0.135
1912,-0.635,-0.145
1913,-0.715,-0.240
1914,-0.725,-0.275
1915,-0.755,-0.310
1916,-0.870,-0.300
1917,-0.920,-0.275
1918,-0.935,-0.320
1919,-0.910,-0.325
1920,-0.910,-0.320
1921,-0.920,-0.315
1922,-0.885,-0.335
1923,-0.900,-0.315
1924,-0.890,-0.320
1925,-0.940,-0.305
1926,-1.015,-0.305
1927,-0.980,-0.350
1928,-0.940,-0.535
1929,-0.825,-0.840
1930,-1.140,-0.810
1931,-1.270,-0.545
1932,-2.010,0.325
1933,-2.820,-0.555
1934,-3.330,-2.630
1935,-3.315,-3.000
1936,-2.980,-2.610
1937,-2.525,-1.930
1938,-1.830,-1.065
1939,-1.120,-0.550
1940,-0.865,-0.175
1941,-0.755,-0.115
1942,-0.735,-0.070
1943,-0.675,-0.010
1944,-0.620,-0.020
1945,-0.595,0.000
1946,-0.565,0.000
1947,-0.585,0.015
1948,-0.555,0.050
1949,-0.530,0.045
1950,-0.515,0.065
1951,-0.480,0.100
1952,-0.465,0.125
1953,-0.425,0.145
1954,-0.390,0.175
1955,-0.370,0.230
1956,-0.305,0.230
1957,-0.270,0.305
1958,-0.185,0.315
1959,-0.160,0.365
1960,-0.150,0.415
1961,-0.100,0.430
1962,-0.075,0.465
1963,-0.030,0.510
1964,-0.005,0.520
1965,-0.005,0.530
1966,-0.010,0.555
1967,0.000,0.600
1968,0.010,0.600
1969,0.030,0.625
1970,0.060,0.675
1971,0.055,0.700
1972,0.035,0.730
1973,0.000,0.770
1974,-0.035,0.775
1975,-0.090,0.750
1976,-0.155,0.745
1977,-0.215,0.790
1978,-0.270,0.750
1979,-0.325,0.705
1980,-0.360,0.655
1981,-0.445,0.615
1982,-0.455,0.570
1983,-0.480,0.465
1984,-0.505,0.420
1985,-0.480,0.390
1986,-0.525,0.340
1987,-0.550,0.320
1988,-0.540,0.280
1989,-0.585,0.250
1990,-0.575,0.200
1991,-0.585,0.165
1992,-0.595,0.145
1993,-0.600,0.100
1994,-0.615,0.075
1995,-0.660,0.035
1996,-0.675,0.015
1997,-0.640,0.000
1998,-0.665,-0.010
1999,-0.650,-0.040
2000,-0.655,-0.025
2001,-0.655,-0.060
2002,-0.650,-0.055
2003,-0.640,-0.080
2004,-0.675,-0.080
2005,-0.695,-0.080
2006,-0.695,-0.065
2007,-0.660,-0.080
2008,-0.695,-0.115
2009,-0.690,-0.085
2010,-0.695,-0.095
2011,-0.670,-0.125
2012,-0.660,-0.095
2013,-0.675,-0.110
2014,-0.660,-0.110
2015,-0.675,-0.110
2016,-0.660,-0.115
2017,-0.665,-0.100
2018,-0.690,-0.085
2019,-0.670,-0.100
2020,-0.670,-0.105
2021,-0.670,-0.105
2022,-0.675,-0.105
2023,-0.680,-0.145
2024,-0.665,-0.110
2025,-0.685,-0.160
2026,-0.635,-0.125
2027,-0.635,-0.150
2028,-0.590,-0.115
2029,-0.500,-0.060
2030,-0.555,-0.005
2031,-0.505,0.035
2032,-0.435,0.070
2033,-0.385,0.045
2034,-0.405,-0.025
2035,-0.470,-0.055
2036,-0.500,-0.115
2037,-0.535,-0.205
2038,-0.585,-0.215
2039,-0.675,-0.190
2040,-0.720,-0.155
2041,-0.720,-0.210
2042,-0.745,-0.230
2043,-0.735,-0.245
2044,-0.735,-0.240
2045,-0.735,-0.205
2046,-0.685,-0.195
2047,-0.730,-0.220
2048,-0.755,-0.230
2049,-0.815,-0.240
2050,-0.775,-0.285
2051,-0.695,-0.590
2052,-0.820,-0.795
2053,-1.040,-0.810
2054,-1.405,-0.215
2055,-2.220,0.270
2056,-2.935,-1.655
2057,-3.300,-3.000
2058,-3.125,-2.880
2059,-2.750,-2.375
2060,-2.090,-1.460
2061,-1.260,-0.710
2062,-0.785,-0.265
2063,-0.635,-0.020
2064,-0.590,0.010
2065,-0.535,0.040
2066,-0.510,0.025
2067,-0.480,0.070
2068,-0.495,0.050
2069,-0.475,0.070
2070,-0.440,0.110
2071,-0.410,0.105
2072,-0.395,0.135
2073,-0.360,0.125
2074,-0.380,0.140
2075,-0.340,0.165
2076,-0.285,0.205
2077,-0.235,0.235
2078,-0.205,0.260
2079,-0.170,0.295
2080,-0.145,0.345
2081,-0.085,0.390
2082,-0.045,0.420
2083,-0.035,0.440
2084,0.015,0.505
2085,0.045,0.545
2086,0.075,0.560
2087,0.085,0.545
2088,0.065,0.555
2089,0.085,0.565
2090,0.095,0.595
2091,0.110,0.615
2092,0.140,0.650
2093,0.125,0.700
2094,0.130,0.740
2095,0.095,0.745
2096,0.060,0.770
2097,0.015,0.800
2098,-0.035,0.780
2099,-0.100,0.775
2100,-0.145,0.765
2101,-0.195,0.725
2102,-0.255,0.695
2103,-0.280,0.610
2104,-0.335,0.580
2105,-0.370,0.525
2106,-0.395,0.460
2107,-0.415,0.415
2108,-0.425,0.375
2109,-0.430,0.300
2110,-0.455,0.320
2111,-0.460,0.260
2112,-0.500,0.230
2113,-0.480,0.160
2114,-0.475,0.130
2115,-0.515,0.125
2116,-0.510,0.080
2117,-0.535,0.030
2118,-0.520,0.005
2119,-0.540,-0.020
2120,-0.530,-0.020
2121,-0.535,-0.020
2122,-0.550,-0.060
2123,-0.535,-0.060
2124,-0.545,-0.065
2125,-0.540,-0.070
2126,-0.535,-0.085
2127,-0.585,-0.090
2128,-0.575,-0.125
2129,-0.555,-0.110
2130,-0.545,-0.115
2131,-0.550,-0.120
2132,-0.525,-0.125
2133,-0.530,-0.125
2134,-0.575,-0.115
2135,-0.525,-0.140
2136,-0.545,-0.125
2137,-0.550,-0.120
2138,-0.555,-0.110
2139,-0.525,-0.115
2140,-0.570,-0.125
2141,-0.575,-0.135
2142,-0.570,-0.125
2143,-0.570,-0.125
2144,-0.555,-0.130
2145,-0.550,-0.130
2146,-0.555,-0.140
2147,-0.575,-0.130
2148,-0.555,-0.145
2149,-0.560,-0.150
2150,-0.545,-0.110
2151,-0.485,-0.100
2152,-0.425,-0.005
2153,-0.435,0.010
2154,-0.375,0.020
2155,-0.315,0.075
2156,-0.290,0.005
2157,-0.340,0.005
2158,-0.400,-0.040
2159,-0.450,-0.115
2160,-0.460,-0.180
2161,-0.565,-0.175
2162,-0.635,-0.125
2163,-0.675,-0.170
2164,-0.685,-0.185
2165,-0.695,-0.205
2166,-0.655,-0.225
2167,-0.665,-0.235
2168,-0.665,-0.210
2169,-0.640,-0.185
2170,-0.670,-0.205
2171,-0.725,-0.175
2172,-0.750,-0.190
2173,-0.780,-0.295
2174,-0.640,-0.635
2175,-0.925,-0.765
2176,-0.990,-0.840
2177,-1.590,-0.090
2178,-2.445,0.040
2179,-3.115,-2.175
2180,-3.330,-2.970
2181,-2.985,-2.660
2182,-2.570,-2.050
2183,-1.855,-1.140
2184,-1.070,-0.575
2185,-0.700,-0.170
2186,-0.575,-0.035
2187,-0.545,-0.005
2188,-0.465,0.015
2189,-0.475,0.030
2190,-0.425,0.025
2191,-0.420,0.050
2192,-0.415,0.055
2193,-0.420,0.070
2194,-0.375,0.090
2195,-0.360,0.090
2196,-0.330,0.075
2197,-0.290,0.095
2198,-0.250,0.125
2199,-0.250,0.120
2200,-0.190,0.180
2201,-0.170,0.225
2202,-0.100,0.220
2203,-0.045,0.290
2204,-0.040,0.325
2205,-0.005,0.380
2206,0.035,0.395
2207,0.055,0.445
2208,0.105,0.440
2209,0.100,0.475
2210,0.130,0.510
2211,0.130,0.495
2212,0.140,0.530
2213,0.145,0.530
2214,0.145,0.570
2215,0.155,0.615
2216,0.150,0.650
2217,0.105,0.695
2218,0.070,0.710
2219,0.045,0.710
2220,0.010,0.710
2221,-0.040,0.690
2222,-0.065,0.695
2223,-0.155,0.700
2224,-0.235,0.645
2225,-0.275,0.600
2226,-0.305,0.545
2227,-0.335,0.475
2228,-0.390,0.425
2229,-0.405,0.375
2230,-0.415,0.295
2231,-0.425,0.260
2232,-0.440,0.225
2233,-0.465,0.185
2234,-0.450,0.145
2235,-0.470,0.115
2236,-0.480,0.085
2237,-0.480,0.050
2238,-0.480,0.020
2239,-0.515,-0.010
2240,-0.540,-0.030
2241,-0.545,-0.030
2242,-0.540,-0.060
2243,-0.520,-0.095
2244,-0.540,-0.120
2245,-0.580,-0.100
2246,-0.570,-0.150
2247,-0.595,-0.130
2248,-0.560,-0.140
2249,-0.555,-0.140
2250,-0.575,-0.165
2251,-0.585,-0.180
2252,-0.585,-0.180
2253,-0.565,-0.195
2254,-0.580,-0.205
2255,-0.590,-0.205
2256,-0.580,-0.225
2257,-0.595,-0.200
2258,-0.605,-0.215
2259,-0.595,-0.200
2260,-0.615,-0.220
2261,-0.590,-0.220
2262,-0.590,-0.230
2263,-0.560,-0.230
2264,-0.605,-0.215
2265,-0.570,-0.220
2266,-0.585,-0.240
2267,-0.610,-0.235
2268,-0.585,-0.250
2269,-0.595,-0.255
2270,-0.595,-0.250
2271,-0.580,-0.255
2272,-0.615,-0.240
2273,-0.560,-0.240
2274,-0.485,-0.200
2275,-0.485,-0.135
2276,-0.460,-0.095
2277,-0.400,-0.080
2278,-0.365,-0.060
2279,-0.345,-0.125
2280,-0.365,-0.135
2281,-0.410,-0.200
2282,-0.435,-0.260
2283,-0.465,-0.275
2284,-0.590,-0.300
2285,-0.610,-0.250
2286,-0.645,-0.300
2287,-0.655,-0.335
2288,-0.650,-0.320
2289,-0.655,-0.340
2290,-0.655,-0.330
2291,-0.650,-0.345
2292,-0.625,-0.310
2293,-0.675,-0.310
2294,-0.780,-0.320
2295,-0.785,-0.335
2296,-0.765,-0.440
2297,-0.545,-0.720
2298,-0.725,-0.790
2299,-0.830,-0.765
2300,-1.580,0.115
2301,-2.555,-0.020
2302,-3.075,-2.275
2303,-3.120,-2.855
2304,-2.745,-2.535
2305,-2.280,-1.900
2306,-1.670,-1.095
2307,-0.980,-0.660
2308,-0.730,-0.310
2309,-0.575,-0.185
2310,-0.535,-0.160
2311,-0.500,-0.145
2312,-0.465,-0.110
2313,-0.470,-0.125
2314,-0.430,-0.095
2315,-0.435,-0.085
2316,-0.420,-0.060
2317,-0.370,-0.060
2318,-0.350,-0.040
2319,-0.305,-0.020
2320,-0.280,0.000
2321,-0.265,0.015
2322,-0.210,0.035
2323,-0.185,0.040
2324,-0.125,0.095
2325,-0.100,0.165
2326,-0.050,0.185
2327,0.000,0.230
2328,-0.010,0.280
2329,0.065,0.310
2330,0.100,0.310
2331,0.125,0.365
2332,0.155,0.375
2333,0.145,0.410
2334,0.150,0.400
2335,0.150,0.440
2336,0.155,0.445
2337,0.165,0.455
2338,0.190,0.495
2339,0.170,0.560
2340,0.125,0.570
2341,0.120,0.590
2342,0.085,0.580
2343,0.060,0.610
2344,-0.005,0.600
2345,-0.065,0.610
2346,-0.110,0.605
2347,-0.210,0.565
2348,-0.240,0.535
2349,-0.265,0.455
2350,-0.315,0.450
2351,-0.325,0.425
2352,-0.355,0.375
2353,-0.370,0.305
2354,-0.390,0.280
2355,-0.415,0.200
2356,-0.410,0.170
2357,-0.420,0.135
2358,-0.415,0.110
2359,-0.440,0.090
2360,-0.480,0.045
2361,-0.470,0.020
2362,-0.515,0.000
2363,-0.470,-0.045
2364,-0.510,-0.055
2365,-0.480,-0.055
2366,-0.515,-0.090
2367,-0.525,-0.075
2368,-0.515,-0.135
2369,-0.515,-0.120
2370,-0.520,-0.140
2371,-0.525,-0.165
2372,-0.515,-0.160
2373,-0.520,-0.145
2374,-0.545,-0.170
2375,-0.550,-0.175
2376,-0.515,-0.170
2377,-0.510,-0.195
2378,-0.505,-0.150
2379,-0.530,-0.180
2380,-0.540,-0.180
2381,-0.550,-0.160
2382,-0.515,-0.180
2383,-0.505,-0.170
2384,-0.530,-0.205
2385,-0.510,-0.175
2386,-0.525,-0.185
2387,-0.525,-0.205
2388,-0.535,-0.220
2389,-0.520,-0.185
2390,-0.485,-0.185
2391,-0.520,-0.205
2392,-0.535,-0.195
2393,-0.525,-0.200
2394,-0.530,-0.180
2395,-0.530,-0.225
2396,-0.520,-0.190
2397,-0.475,-0.185
2398,-0.435,-0.185
2399,-0.385,-0.110
2400,-0.375,-0.035
2401,-0.340,-0.010
2402,-0.280,0.010
2403,-0.255,-0.020
2404,-0.295,-0.070
2405,-0.375,-0.100
2406,-0.410,-0.190
2407,-0.405,-0.260
2408,-0.485,-0.255
2409,-0.580,-0.215
2410,-0.610,-0.205
2411,-0.610,-0.240
2412,-0.585,-0.245
2413,-0.615,-0.265
2414,-0.595,-0.265
2415,-0.615,-0.280
2416,-0.580,-0.270
2417,-0.575,-0.265
2418,-0.640,-0.270
2419,-0.705,-0.250
2420,-0.680,-0.320
2421,-0.620,-0.565
2422,-0.640,-0.860
2423,-0.925,-0.825
2424,-1.155,-0.450
2425,-2.005,0.320
2426,-2.755,-1.190
2427,-3.220,-2.935
2428,-3.045,-3.005
2429,-2.680,-2.520
2430,-2.080,-1.620
2431,-1.210,-0.830
2432,-0.745,-0.380
2433,-0.575,-0.125
2434,-0.500,-0.085
2435,-0.480,-0.020
2436,-0.410,-0.010
2437,-0.410,-0.015
2438,-0.370,-0.015
2439,-0.355,0.000
2440,-0.360,0.000
2441,-0.330,0.020
2442,-0.305,0.040
2443,-0.290,0.045
2444,-0.275,0.050
2445,-0.250,0.080
2446,-0.185,0.115
2447,-0.190,0.135
2448,-0.130,0.145
2449,-0.105,0.175
2450,-0.040,0.215
2451,0.020,0.290
2452,0.050,0.310
2453,0.060,0.350
2454,0.085,0.400
2455,0.115,0.410
2456,0.170,0.420
2457,0.165,0.405
2458,0.210,0.450
2459,0.200,0.465
2460,0.215,0.485
2461,0.205,0.480
2462,0.230,0.520
2463,0.235,0.575
2464,0.240,0.585
2465,0.240,0.625
2466,0.200,0.650
2467,0.160,0.645
2468,0.125,0.655
2469,0.045,0.655
2470,-0.015,0.640
2471,-0.080,0.635
2472,-0.140,0.595
2473,-0.185,0.555
2474,-0.255,0.475
2475,-0.310,0.450
2476,-0.350,0.350
2477,-0.360,0.300
2478,-0.385,0.265
2479,-0.395,0.210
2480,-0.370,0.170
2481,-0.400,0.125
2482,-0.410,0.095
2483,-0.450,0.055
2484,-0.450,0.025
2485,-0.435,-0.015
2486,-0.450,-0.050
2487,-0.440,-0.050
2488,-0.470,-0.075
2489,-0.480,-0.090
2490,-0.485,-0.100
2491,-0.495,-0.135
2492,-0.470,-0.160
2493,-0.470,-0.180
2494,-0.465,-0.185
2495,-0.470,-0.180
2496,-0.485,-0.200
2497,-0.470,-0.220
2498,-0.480,-0.190
2499,-0.470,-0.180
2500,-0.460,-0.210
2501,-0.470,-0.220
2502,-0.460,-0.215
2503,-0.480,-0.215
2504,-0.470,-0.230
2505,-0.470,-0.215
2506,-0.480,-0.245
2507,-0.470,-0.230
2508,-0.470,-0.245
2509,-0.465,-0.235
2510,-0.465,-0.255
2511,-0.475,-0.260
2512,-0.470,-0.250
2513,-0.485,-0.245
2514,-0.465,-0.260
2515,-0.470,-0.275
2516,-0.465,-0.275
2517,-0.460,-0.280
2518,-0.465,-0.270
2519,-0.455,-0.255
2520,-0.465,-0.260
2521,-0.450,-0.270
2522,-0.400,-0.260
2523,-0.325,-0.215
2524,-0.325,-0.150
2525,-0.310,-0.100
2526,-0.225,-0.060
2527,-0.210,-0.055
2528,-0.230,-0.150
2529,-0.275,-0.135
2530,-0.320,-0.235
2531,-0.300,-0.290
2532,-0.360,-0.335
2533,-0.455,-0.310
2534,-0.510,-0.270
2535,-0.575,-0.340
2536,-0.545,-0.325
2537,-0.545,-0.355
2538,-0.550,-0.370
2539,-0.530,-0.350
2540,-0.535,-0.335
2541,-0.530,-0.310
2542,-0.575,-0.335
2543,-0.630,-0.330
2544,-0.590,-0.380
2545,-0.580,-0.485
2546,-0.485,-0.855
2547,-0.840,-0.875
2548,-0.940,-0.785
2549,-1.680,0.065
2550,-2.480,-0.585
2551,-3.055,-2.640
2552,-3.125,-3.145
2553,-2.785,-2.785
2554,-2.245,-2.045
2555,-1.475,-1.150
2556,-0.785,-0.610
2557,-0.540,-0.235
2558,-0.420,-0.150
2559,-0.380,-0.100
2560,-0.370,-0.090
2561,-0.325,-0.100
2562,-0.325,-0.085
2563,-0.270,-0.050
2564,-0.300,-0.065
2565,-0.260,-0.030
2566,-0.245,-0.010
2567,-0.210,0.000
2568,-0.195,-0.010
2569,-0.155,0.015
2570,-0.130,0.030
2571,-0.090,0.065
2572,-0.045,0.085
2573,-0.010,0.120
2574,0.005,0.180
2575,0.045,0.225
2576,0.085,0.245
2577,0.125,0.300
2578,0.160,0.340
2579,0.205,0.385
2580,0.235,0.390
2581,0.225,0.390
2582,0.225,0.440
2583,0.245,0.395
2584,0.230,0.450
2585,0.250,0.475
2586,0.245,0.500
2587,0.265,0.530
2588,0.270,0.570
2589,0.250,0.615
2590,0.220,0.620
2591,0.170,0.640
2592,0.140,0.650
2593,0.065,0.635
2594,0.030,0.640
2595,-0.025,0.605
2596,-0.090,0.605
2597,-0.150,0.595
2598,-0.225,0.510
2599,-0.240,0.425
2600,-0.260,0.385
2601,-0.310,0.310
2602,-0.285,0.270
2603,-0.330,0.230
2604,-0.320,0.185
2605,-0.375,0.130
2606,-0.390,0.100
2607,-0.395,0.040
2608,-0.395,0.005
2609,-0.395,-0.005
2610,-0.425,-0.040
2611,-0.400,-0.050
2612,-0.425,-0.090
2613,-0.435,-0.095
2614,-0.420,-0.145
2615,-0.445,-0.150
2616,-0.435,-0.165
2617,-0.435,-0.175
2618,-0.460,-0.180
2619,-0.425,-0.170
2620,-0.460,-0.195
2621,-0.430,-0.190
2622,-0.450,-0.230
2623,-0.445,-0.210
2624,-0.450,-0.200
2625,-0.450,-0.200
2626,-0.425,-0.205
2627,-0.465,-0.225
2628,-0.435,-0.235
2629,-0.450,-0.205
2630,-0.450,-0.220
2631,-0.430,-0.210
2632,-0.470,-0.210
2633,-0.450,-0.225
2634,-0.445,-0.205
2635,-0.455,-0.215
2636,-0.440,-0.220
2637,-0.470,-0.225
2638,-0.440,-0.215
2639,-0.460,-0.240
2640,-0.445,-0.210
2641,-0.430,-0.195
2642,-0.475,-0.205
2643,-0.445,-0.220
2644,-0.440,-0.220
2645,-0.460,-0.200
2646,-0.430,-0.175
2647,-0.395,-0.180
2648,-0.320,-0.105
2649,-0.340,-0.060
2650,-0.250,-0.030
2651,-0.230,0.005
2652,-0.185,-0.020
2653,-0.180,-0.060
2654,-0.245,-0.085
2655,-0.300,-0.180
2656,-0.310,-0.225
2657,-0.380,-0.265
2658,-0.460,-0.225
2659,-0.510,-0.215
2660,-0.495,-0.275
2661,-0.520,-0.275
2662,-0.535,-0.305
2663,-0.500,-0.275
2664,-0.510,-0.270
2665,-0.480,-0.275
2666,-0.475,-0.275
2667,-0.540,-0.260
2668,-0.630,-0.265
2669,-0.585,-0.295
2670,-0.580,-0.485
2671,-0.555,-0.830
2672,-0.815,-0.870
2673,-1.070,-0.605
2674,-1.925,0.155
2675,-2.675,-1.235
2676,-3.130,-2.815
2677,-2.930,-2.860
2678,-2.555,-2.435
2679,-1.950,-1.585
2680,-1.160,-0.855
2681,-0.660,-0.450
2682,-0.470,-0.170
2683,-0.415,-0.120
2684,-0.380,-0.045
2685,-0.360,-0.045
2686,-0.325,-0.035
2687,-0.300,-0.035
2688,-0.300,-0.030
2689,-0.250,0.000
2690,-0.260,-0.025
2691,-0.230,-0.015
2692,-0.215,0.010
2693,-0.205,0.010
2694,-0.165,0.055
2695,-0.130,0.070
2696,-0.070,0.085
2697,-0.025,0.120
2698,0.000,0.150
2699,0.060,0.225
2700,0.065,0.260
2701,0.110,0.280
2702,0.145,0.320
2703,0.170,0.325
2704,0.215,0.385
2705,0.195,0.385
2706,0.215,0.385
2707,0.245,0.405
2708,0.225,0.460
2709,0.240,0.455
2710,0.205,0.500
2711,0.245,0.505
2712,0.240,0.570
2713,0.240,0.595
2714,0.195,0.615
2715,0.165,0.640
2716,0.115,0.620
2717,0.045,0.625
2718,0.020,0.635
2719,-0.045,0.620
2720,-0.130,0.605
2721,-0.175,0.565
2722,-0.220,0.515
2723,-0.240,0.430
2724,-0.285,0.390
2725,-0.285,0.330
2726,-0.310,0.325
2727,-0.355,0.230
2728,-0.335,0.215
2729,-0.395,0.110
2730,-0.360,0.070
2731,-0.375,0.055
2732,-0.385,0.010
2733,-0.400,0.000
2734,-0.435,-0.065
2735,-0.435,-0.060
2736,-0.430,-0.115
2737,-0.460,-0.125
2738,-0.435,-0.165
2739,-0.465,-0.165
2740,-0.450,-0.170
2741,-0.455,-0.195
2742,-0.485,-0.215
2743,-0.475,-0.225
2744,-0.485,-0.215
2745,-0.485,-0.220
2746,-0.475,-0.240
2747,-0.455,-0.255
2748,-0.460,-0.245
2749,-0.485,-0.250
2750,-0.480,-0.230
2751,-0.500,-0.250
2752,-0.495,-0.255
2753,-0.465,-0.220
2754,-0.465,-0.230
2755,-0.475,-0.230
2756,-0.480,-0.245
2757,-0.470,-0.240
2758,-0.480,-0.265
2759,-0.465,-0.230
2760,-0.485,-0.225
2761,-0.475,-0.255
2762,-0.480,-0.265
2763,-0.510,-0.275
2764,-0.475,-0.270
2765,-0.490,-0.280
2766,-0.490,-0.265
2767,-0.480,-0.285
2768,-0.495,-0.265
2769,-0.470,-0.255
2770,-0.460,-0.285
2771,-0.445,-0.260
2772,-0.345,-0.215
2773,-0.360,-0.145
2774,-0.330,-0.115
2775,-0.315,-0.105
2776,-0.250,-0.075
2777,-0.220,-0.130
2778,-0.285,-0.140
2779,-0.300,-0.195
2780,-0.300,-0.235
2781,-0.355,-0.290
2782,-0.445,-0.305
2783,-0.525,-0.285
2784,-0.535,-0.325
2785,-0.550,-0.350
2786,-0.525,-0.350
2787,-0.555,-0.330
2788,-0.555,-0.360
2789,-0.515,-0.350
2790,-0.540,-0.300
2791,-0.540,-0.320
2792,-0.650,-0.315
2793,-0.685,-0.320
2794,-0.650,-0.440
2795,-0.450,-0.710
2796,-0.585,-0.825
2797,-0.660,-0.885
2798,-1.235,-0.195
2799,-2.155,0.280
2800,-2.815,-1.775
2801,-2.995,-2.890
2802,-2.720,-2.765
2803,-2.290,-2.220
2804,-1.700,-1.390
2805,-0.965,-0.780
2806,-0.625,-0.410
2807,-0.490,-0.240
2808,-0.425,-0.170
2809,-0.375,-0.140
2810,-0.370,-0.115
2811,-0.320,-0.120
2812,-0.320,-0.115
2813,-0.325,-0.120
2814,-0.320,-0.100
2815,-0.285,-0.090
2816,-0.280,-0.060
2817,-0.235,-0.060
2818,-0.195,-0.040
2819,-0.160,-0.010
2820,-0.100,0.030
2821,-0.095,0.030
2822,-0.055,0.080
2823,-0.010,0.115
2824,0.020,0.175
2825,0.070,0.225
2826,0.110,0.255
2827,0.145,0.320
2828,0.175,0.350
2829,0.180,0.360
2830,0.220,0.390
2831,0.235,0.385
2832,0.250,0.425
2833,0.265,0.435
2834,0.245,0.435
2835,0.235,0.470
2836,0.245,0.495
2837,0.215,0.555
2838,0.225,0.580
2839,0.195,0.595
2840,0.160,0.575
2841,0.105,0.625
2842,0.055,0.605
2843,0.000,0.625
2844,-0.080,0.590
2845,-0.120,0.570
2846,-0.205,0.555
2847,-0.215,0.505
2848,-0.275,0.455
2849,-0.290,0.395
2850,-0.310,0.360
2851,-0.355,0.305
2852,-0.350,0.275
2853,-0.375,0.220
2854,-0.385,0.185
2855,-0.380,0.125
2856,-0.420,0.090
2857,-0.405,0.050
2858,-0.430,0.020
2859,-0.435,-0.025
2860,-0.440,0.010
2861,-0.475,-0.040
2862,-0.475,-0.055
2863,-0.495,-0.080
2864,-0.475,-0.105
2865,-0.485,-0.115
2866,-0.500,-0.140
2867,-0.490,-0.155
2868,-0.520,-0.140
2869,-0.495,-0.155
2870,-0.515,-0.180
2871,-0.505,-0.165
2872,-0.495,-0.200
2873,-0.515,-0.180
2874,-0.460,-0.150
2875,-0.520,-0.160
2876,-0.505,-0.140
2877,-0.500,-0.165
2878,-0.490,-0.200
2879,-0.490,-0.145
2880,-0.505,-0.185
2881,-0.465,-0.160
2882,-0.515,-0.180
2883,-0.500,-0.190
2884,-0.495,-0.185
2885,-0.510,-0.185
2886,-0.495,-0.195
2887,-0.520,-0.185
2888,-0.510,-0.180
2889,-0.485,-0.200
2890,-0.520,-0.165
2891,-0.515,-0.170
2892,-0.525,-0.175
2893,-0.510,-0.180
2894,-0.480,-0.170
2895,-0.495,-0.170
2896,-0.470,-0.165
2897,-0.445,-0.170
2898,-0.370,-0.110
2899,-0.380,-0.060
2900,-0.355,-0.045
2901,-0.250,0.015
2902,-0.250,-0.005
2903,-0.245,-0.045
2904,-0.310,-0.100
2905,-0.370,-0.155
2906,-0.385,-0.220
2907,-0.410,-0.290
2908,-0.495,-0.240
2909,-0.565,-0.200
2910,-0.585,-0.240
2911,-0.580,-0.245
2912,-0.600,-0.295
2913,-0.575,-0.270
2914,-0.600,-0.250
2915,-0.575,-0.255
2916,-0.560,-0.245
2917,-0.590,-0.255
2918,-0.670,-0.265
2919,-0.635,-0.270
2920,-0.605,-0.400
2921,-0.470,-0.800
2922,-0.885,-0.820
2923,-0.860,-0.775
2924,-1.600,0.160
2925,-2.445,-0.240
2926,-3.060,-2.515
2927,-3.105,-3.060
2928,-2.805,-2.735
2929,-2.295,-2.010
2930,-1.550,-1.105
2931,-0.870,-0.600
2932,-0.600,-0.200
2933,-0.485,-0.100
2934,-0.455,-0.045
2935,-0.395,-0.010
2936,-0.385,-0.015
2937,-0.370,-0.020
2938,-0.340,0.000
2939,-0.345,-0.015
2940,-0.320,0.025
2941,-0.340,0.020
2942,-0.265,0.030
2943,-0.270,0.045
2944,-0.225,0.060
2945,-0.225,0.105
2946,-0.175,0.120
2947,-0.150,0.140
2948,-0.100,0.210
2949,-0.040,0.215
2950,-0.030,0.250
2951,0.000,0.270
2952,0.030,0.330
2953,0.065,0.355
2954,0.105,0.400
2955,0.135,0.435
2956,0.130,0.430
2957,0.160,0.430
2958,0.150,0.460
2959,0.195,0.495
2960,0.170,0.490
2961,0.190,0.535
2962,0.185,0.555
2963,0.160,0.640
2964,0.195,0.620
2965,0.145,0.660
2966,0.110,0.635
2967,0.055,0.720
2968,-0.020,0.680
2969,-0.050,0.670
2970,-0.125,0.660
2971,-0.195,0.630
2972,-0.210,0.595
2973,-0.270,0.525
2974,-0.295,0.485
2975,-0.345,0.420
2976,-0.360,0.350
2977,-0.405,0.305
2978,-0.435,0.240
2979,-0.455,0.210
2980,-0.470,0.195
2981,-0.460,0.165
2982,-0.485,0.120
2983,-0.485,0.055
2984,-0.485,0.025
2985,-0.525,-0.005
2986,-0.510,0.000
2987,-0.505,-0.035
2988,-0.510,-0.040
2989,-0.525,-0.105
2990,-0.535,-0.140
2991,-0.550,-0.120
2992,-0.555,-0.150
2993,-0.540,-0.170
2994,-0.550,-0.145
2995,-0.535,-0.185
2996,-0.540,-0.170
2997,-0.555,-0.190
2998,-0.540,-0.185
2999,-0.545,-0.190
3000,-0.525,-0.190
3001,-0.520,-0.195
3002,-0.535,-0.205
3003,-0.530,-0.205
3004,-0.560,-0.220
3005,-0.545,-0.200
3006,-0.535,-0.205
3007,-0.550,-0.195
3008,-0.525,-0.200
3009,-0.535,-0.210
3010,-0.535,-0.210
3011,-0.540,-0.205
3012,-0.530,-0.180
3013,-0.520,-0.205
3014,-0.525,-0.180
3015,-0.515,-0.190
3016,-0.520,-0.200
3017,-0.500,-0.195
3018,-0.545,-0.200
3019,-0.530,-0.200
3020,-0.500,-0.220
3021,-0.485,-0.170
3022,-0.440,-0.185
3023,-0.395,-0.155
3024,-0.380,-0.060
3025,-0.350,-0.050
3026,-0.300,0.025
3027,-0.255,-0.010
3028,-0.265,-0.060
3029,-0.330,-0.080
3030,-0.355,-0.160
3031,-0.395,-0.200
3032,-0.385,-0.255
3033,-0.525,-0.240
3034,-0.585,-0.210
3035,-0.585,-0.255
3036,-0.605,-0.295
3037,-0.595,-0.275
3038,-0.600,-0.290
3039,-0.580,-0.275
3040,-0.570,-0.275
3041,-0.580,-0.275
3042,-0.595,-0.265
3043,-0.660,-0.280
3044,-0.685,-0.260
3045,-0.640,-0.365
3046,-0.540,-0.690
3047,-0.860,-0.865
3048,-0.970,-0.870
3049,-1.530,-0.160
3050,-2.415,-0.025
3051,-3.015,-2.335
3052,-3.195,-3.075
3053,-2.885,-2.785
3054,-2.410,-2.210
3055,-1.740,-1.270
3056,-0.950,-0.700
3057,-0.620,-0.295
3058,-0.515,-0.095
3059,-0.445,-0.115
3060,-0.415,-0.050
3061,-0.380,-0.025
3062,-0.350,-0.050
3063,-0.355,-0.065
3064,-0.310,-0.025
3065,-0.330,-0.025
3066,-0.290,-0.010
3067,-0.285,0.000
3068,-0.280,0.005
3069,-0.220,0.035
3070,-0.215,0.020
3071,-0.175,0.095
3072,-0.155,0.040
3073,-0.110,0.130
3074,-0.060,0.180
3075,-0.040,0.215
3076,0.020,0.225
3077,0.025,0.265
3078,0.075,0.335
3079,0.095,0.355
3080,0.130,0.360
3081,0.150,0.365
3082,0.150,0.415
3083,0.185,0.390
3084,0.150,0.440
3085,0.155,0.425
3086,0.165,0.480
3087,0.170,0.500
3088,0.175,0.510
3089,0.160,0.540
3090,0.105,0.545
3091,0.100,0.540
3092,0.030,0.550
3093,-0.020,0.560
3094,-0.090,0.570
3095,-0.135,0.550
3096,-0.175,0.485
3097,-0.265,0.445
3098,-0.260,0.395
3099,-0.345,0.345
3100,-0.355,0.250
3101,-0.375,0.195
3102,-0.405,0.165
3103,-0.405,0.075
3104,-0.435,0.050
3105,-0.430,-0.005
3106,-0.455,-0.020
3107,-0.470,-0.055
3108,-0.480,-0.110
3109,-0.480,-0.110
3110,-0.475,-0.165
3111,-0.510,-0.175
3112,-0.500,-0.240
3113,-0.505,-0.230
3114,-0.525,-0.230
3115,-0.505,-0.265
3116,-0.535,-0.265
3117,-0.505,-0.275
3118,-0.520,-0.280
3119,-0.530,-0.320
3120,-0.510,-0.335
3121,-0.520,-0.330
3122,-0.510,-0.300
3123,-0.530,-0.340
3124,-0.515,-0.330
3125,-0.515,-0.360
3126,-0.525,-0.320
3127,-0.515,-0.340
3128,-0.500,-0.345
3129,-0.485,-0.335
3130,-0.535,-0.340
3131,-0.520,-0.340
3132,-0.485,-0.310
3133,-0.525,-0.325
3134,-0.500,-0.355
3135,-0.490,-0.315
3136,-0.485,-0.310
3137,-0.480,-0.310
3138,-0.530,-0.305
3139,-0.500,-0.320
3140,-0.505,-0.315
3141,-0.495,-0.305
3142,-0.475,-0.315
3143,-0.495,-0.310
3144,-0.485,-0.320
3145,-0.485,-0.320
3146,-0.395,-0.305
3147,-0.345,-0.220
3148,-0.355,-0.185
3149,-0.305,-0.140
3150,-0.265,-0.110
3151,-0.240,-0.115
3152,-0.230,-0.180
3153,-0.230,-0.195
3154,-0.305,-0.215
3155,-0.285,-0.305
3156,-0.340,-0.345
3157,-0.460,-0.335
3158,-0.495,-0.320
3159,-0.535,-0.340
3160,-0.550,-0.335
3161,-0.515,-0.355
3162,-0.520,-0.370
3163,-0.505,-0.400
3164,-0.510,-0.395
3165,-0.510,-0.385
3166,-0.495,-0.355
3167,-0.590,-0.355
3168,-0.575,-0.345
3169,-0.575,-0.465
3170,-0.390,-0.810
3171,-0.645,-0.880
3172,-0.775,-0.845
3173,-1.470,-0.050
3174,-2.370,-0.300
3175,-2.950,-2.455
3176,-2.925,-2.965
3177,-2.560,-2.645
3178,-2.060,-1.955
3179,-1.435,-1.140
3180,-0.795,-0.670
3181,-0.530,-0.355
3182,-0.395,-0.210
3183,-0.335,-0.165
3184,-0.330,-0.140
3185,-0.275,-0.120
3186,-0.270,-0.125
3187,-0.230,-0.095
3188,-0.235,-0.095
3189,-0.240,-0.110
3190,-0.205,-0.085
3191,-0.170,-0.070
3192,-0.125,-0.055
3193,-0.105,-0.010
3194,-0.065,-0.015
3195,-0.005,0.030
3196,-0.005,0.065
3197,0.040,0.085
3198,0.080,0.135
3199,0.155,0.180
3200,0.185,0.230
3201,0.215,0.265
3202,0.285,0.315
3203,0.280,0.350
3204,0.320,0.365
3205,0.335,0.410
3206,0.325,0.405
3207,0.325,0.420
3208,0.340,0.460
3209,0.340,0.475
3210,0.350,0.485
3211,0.340,0.540
3212,0.330,0.580
3213,0.295,0.600
3214,0.250,0.640
3215,0.245,0.625
3216,0.185,0.615
3217,0.120,0.625
3218,0.035,0.620
3219,0.000,0.590
3220,-0.080,0.570
3221,-0.110,0.525
3222,-0.125,0.500
3223,-0.170,0.460
3224,-0.180,0.380
3225,-0.195,0.300
3226,-0.190,0.260
3227,-0.210,0.260
3228,-0.225,0.225
3229,-0.240,0.175
3230,-0.250,0.155
3231,-0.255,0.110
3232,-0.280,0.080
3233,-0.250,0.035
3234,-0.250,0.030
3235,-0.290,-0.005
3236,-0.320,-0.005
3237,-0.305,-0.055
3238,-0.310,-0.050
3239,-0.295,-0.080
3240,-0.310,-0.095
3241,-0.315,-0.100
3242,-0.335,-0.120
3243,-0.310,-0.135
3244,-0.335,-0.115
3245,-0.320,-0.175
3246,-0.295,-0.155
3247,-0.310,-0.160
3248,-0.345,-0.170
3249,-0.325,-0.165
3250,-0.345,-0.180
3251,-0.310,-0.170
3252,-0.340,-0.180
3253,-0.315,-0.175
3254,-0.325,-0.185
3255,-0.320,-0.185
3256,-0.335,-0.205
3257,-0.320,-0.185
3258,-0.315,-0.200
3259,-0.340,-0.205
3260,-0.290,-0.160
3261,-0.325,-0.180
3262,-0.315,-0.180
3263,-0.325,-0.170
3264,-0.300,-0.190
3265,-0.295,-0.165
3266,-0.295,-0.190
3267,-0.270,-0.195
3268,-0.290,-0.200
3269,-0.310,-0.160
3270,-0.230,-0.175
3271,-0.165,-0.130
3272,-0.135,-0.035
3273,-0.115,-0.010
3274,-0.080,0.010
3275,-0.035,0.020
3276,-0.035,-0.025
3277,-0.085,-0.045
3278,-0.130,-0.100
3279,-0.110,-0.160
3280,-0.150,-0.195
3281,-0.285,-0.185
3282,-0.320,-0.150
3283,-0.345,-0.215
3284,-0.335,-0.225
3285,-0.320,-0.265
3286,-0.335,-0.235
3287,-0.315,-0.205
3288,-0.340,-0.195
3289,-0.315,-0.230
3290,-0.355,-0.215
3291,-0.435,-0.230
3292,-0.380,-0.225
3293,-0.380,-0.405
3294,-0.245,-0.705
3295,-0.630,-0.775
3296,-0.685,-0.620
3297,-1.370,0.250
3298,-2.185,-0.260
3299,-2.710,-2.390
3300,-2.830,-2.955
3301,-2.515,-2.620
3302,-2.010,-1.895
3303,-1.325,-1.045
3304,-0.615,-0.575
3305,-0.350,-0.140
3306,-0.225,-0.035
3307,-0.180,0.015
3308,-0.150,0.025
3309,-0.120,0.045
3310,-0.110,0.055
3311,-0.060,0.075
3312,-0.070,0.075
3313,-0.075,0.105
3314,-0.055,0.100
3315,-0.035,0.125
3316,0.010,0.135
3317,0.025,0.145
3318,0.040,0.165
3319,0.100,0.210
3320,0.100,0.230
3321,0.175,0.270
3322,0.180,0.300
3323,0.230,0.360
3324,0.275,0.365
3325,0.305,0.430
3326,0.350,0.450
3327,0.365,0.475
3328,0.415,0.530
3329,0.395,0.540
3330,0.415,0.540
3331,0.430,0.550
3332,0.405,0.565
3333,0.430,0.585
3334,0.425,0.625
3335,0.450,0.660
3336,0.445,0.690
3337,0.415,0.715
3338,0.405,0.735
3339,0.340,0.765
3340,0.300,0.775
3341,0.250,0.790
3342,0.170,0.760
3343,0.130,0.745
3344,0.045,0.705
3345,0.005,0.665
3346,-0.035,0.625
3347,-0.100,0.580
3348,-0.120,0.520
3349,-0.155,0.460
3350,-0.130,0.415
3351,-0.170,0.370
3352,-0.190,0.295
3353,-0.185,0.280
3354,-0.205,0.220
3355,-0.205,0.190
3356,-0.230,0.155
3357,-0.245,0.130
3358,-0.265,0.110
3359,-0.280,0.045
3360,-0.260,0.010
3361,-0.265,-0.005
3362,-0.285,-0.010
3363,-0.290,-0.020
3364,-0.305,-0.070
3365,-0.300,-0.090
3366,-0.320,-0.085
3367,-0.305,-0.080
3368,-0.295,-0.080
3369,-0.315,-0.105
3370,-0.335,-0.105
3371,-0.335,-0.110
3372,-0.300,-0.095
3373,-0.325,-0.105
3374,-0.310,-0.130
3375,-0.295,-0.125
3376,-0.315,-0.105
3377,-0.325,-0.120
3378,-0.330,-0.115
3379,-0.320,-0.100
3380,-0.330,-0.120
3381,-0.325,-0.125
3382,-0.305,-0.100
3383,-0.305,-0.100
3384,-0.295,-0.095
3385,-0.315,-0.115
3386,-0.340,-0.095
3387,-0.320,-0.100
3388,-0.320,-0.110
3389,-0.300,-0.100
3390,-0.325,-0.085
3391,-0.300,-0.095
3392,-0.340,-0.105
3393,-0.285,-0.080
3394,-0.215,-0.050
3395,-0.170,0.010
3396,-0.165,0.070
3397,-0.115,0.100
3398,-0.070,0.120
3399,-0.020,0.095
3400,-0.040,0.040
3401,-0.120,0.005
3402,-0.165,-0.060
3403,-0.170,-0.110
3404,-0.225,-0.145
3405,-0.345,-0.085
3406,-0.360,-0.095
3407,-0.380,-0.145
3408,-0.385,-0.140
3409,-0.390,-0.175
3410,-0.380,-0.165
3411,-0.335,-0.150
3412,-0.375,-0.160
3413,-0.340,-0.145
3414,-0.390,-0.120
3415,-0.475,-0.130
3416,-0.405,-0.170
3417,-0.440,-0.330
3418,-0.350,-0.710
3419,-0.725,-0.705
3420,-0.885,-0.560
3421,-1.670,0.280
3422,-2.435,-0.810
3423,-2.910,-2.645
3424,-2.865,-2.835
3425,-2.495,-2.435
3426,-1.905,-1.585
3427,-1.160,-0.810
3428,-0.550,-0.375
3429,-0.325,-0.015
3430,-0.225,0.010
3431,-0.150,0.080
3432,-0.145,0.080
3433,-0.130,0.085
3434,-0.115,0.125
3435,-0.080,0.140
3436,-0.085,0.155
3437,-0.050,0.165
3438,-0.045,0.175
3439,-0.040,0.175
3440,0.000,0.215
3441,0.015,0.210
3442,0.065,0.230
3443,0.110,0.255
3444,0.130,0.315
3445,0.175,0.335
3446,0.175,0.390
3447,0.235,0.450
3448,0.285,0.455
3449,0.325,0.510
3450,0.355,0.510
3451,0.395,0.560
3452,0.375,0.585
3453,0.395,0.575
3454,0.405,0.620
3455,0.415,0.595
3456,0.430,0.575
3457,0.410,0.630
3458,0.410,0.660
3459,0.415,0.705
3460,0.405,0.735
3461,0.370,0.750
3462,0.365,0.780
3463,0.340,0.770
3464,0.270,0.790
3465,0.195,0.755
3466,0.135,0.765
3467,0.105,0.745
3468,0.025,0.705
3469,-0.005,0.660
3470,-0.075,0.600
3471,-0.110,0.545
3472,-0.125,0.510
3473,-0.180,0.435
3474,-0.170,0.390
3475,-0.215,0.330
3476,-0.200,0.290
3477,-0.225,0.290
3478,-0.230,0.225
3479,-0.235,0.180
3480,-0.255,0.150
3481,-0.270,0.160
3482,-0.280,0.100
3483,-0.305,0.055
3484,-0.300,0.035
3485,-0.295,0.045
3486,-0.300,0.000
3487,-0.335,-0.030
3488,-0.340,-0.030
3489,-0.335,-0.040
3490,-0.335,-0.055
3491,-0.330,-0.060
3492,-0.330,-0.055
3493,-0.335,-0.090
3494,-0.340,-0.090
3495,-0.355,-0.075
3496,-0.325,-0.095
3497,-0.330,-0.095
3498,-0.350,-0.095
3499,-0.330,-0.090
3500,-0.355,-0.090
3501,-0.320,-0.110
3502,-0.340,-0.100
3503,-0.345,-0.110
3504,-0.350,-0.080
3505,-0.340,-0.095
3506,-0.350,-0.090
3507,-0.355,-0.115
3508,-0.350,-0.095
3509,-0.355,-0.085
3510,-0.360,-0.105
3511,-0.320,-0.100
3512,-0.325,-0.110
3513,-0.325,-0.105
3514,-0.365,-0.105
3515,-0.325,-0.095
3516,-0.320,-0.115
3517,-0.330,-0.080
3518,-0.235,-0.070
3519,-0.215,-0.015
3520,-0.225,0.055
3521,-0.155,0.080
3522,-0.125,0.110
3523,-0.070,0.075
3524,-0.105,0.025
3525,-0.135,0.005
3526,-0.185,-0.080
3527,-0.190,-0.125
3528,-0.280,-0.115
3529,-0.385,-0.090
3530,-0.385,-0.135
3531,-0.420,-0.140
3532,-0.390,-0.155
3533,-0.390,-0.190
3534,-0.390,-0.185
3535,-0.400,-0.170
3536,-0.400,-0.170
3537,-0.390,-0.160
3538,-0.445,-0.140
3539,-0.545,-0.160
3540,-0.465,-0.195
3541,-0.430,-0.415
3542,-0.415,-0.750
3543,-0.700,-0.775
3544,-1.000,-0.400
3545,-1.870,0.325
3546,-2.580,-1.310
3547,-2.990,-2.725
3548,-2.795,-2.705
3549,-2.390,-2.280
3550,-1.820,-1.470
3551,-1.095,-0.795
3552,-0.550,-0.380
3553,-0.355,-0.100
3554,-0.250,-0.020
3555,-0.215,0.010
3556,-0.215,0.005
3557,-0.175,0.035
3558,-0.155,0.035
3559,-0.080,0.020
3560,-0.130,0.055
3561,-0.110,0.080
3562,-0.075,0.040
3563,-0.050,0.090
3564,-0.030,0.125
3565,0.000,0.110
3566,0.025,0.105
3567,0.060,0.160
3568,0.095,0.205
3569,0.170,0.260
3570,0.170,0.275
3571,0.280,0.325
3572,0.305,0.385
3573,0.335,0.410
3574,0.350,0.435
3575,0.365,0.465
3576,0.405,0.475
3577,0.405,0.505
3578,0.420,0.495
3579,0.420,0.550
3580,0.405,0.565
3581,0.440,0.590
3582,0.445,0.595
3583,0.425,0.660
3584,0.410,0.665
3585,0.370,0.705
3586,0.335,0.735
3587,0.275,0.715
3588,0.240,0.730
3589,0.175,0.730
3590,0.120,0.695
3591,0.060,0.675
3592,0.015,0.625
3593,-0.045,0.565
3594,-0.080,0.515
3595,-0.105,0.440
3596,-0.125,0.380
3597,-0.120,0.330
3598,-0.155,0.285
3599,-0.170,0.225
3600,-0.160,0.195
3601,-0.195,0.150
3602,-0.250,0.110
3603,-0.225,0.075
3604,-0.255,0.030
3605,-0.240,0.005
3606,-0.265,-0.030
3607,-0.265,-0.025
3608,-0.275,-0.045
3609,-0.310,-0.075
3610,-0.290,-0.095
3611,-0.300,-0.130
3612,-0.295,-0.160
3613,-0.300,-0.145
3614,-0.320,-0.170
3615,-0.310,-0.160
3616,-0.340,-0.185
3617,-0.325,-0.185
3618,-0.350,-0.195
3619,-0.345,-0.220
3620,-0.320,-0.210
3621,-0.325,-0.210
3622,-0.335,-0.205
3623,-0.345,-0.205
3624,-0.335,-0.195
3625,-0.360,-0.205
3626,-0.350,-0.210
3627,-0.335,-0.225
3628,-0.350,-0.195
3629,-0.340,-0.235
3630,-0.335,-0.210
3631,-0.355,-0.210
3632,-0.340,-0.205
3633,-0.360,-0.215
3634,-0.330,-0.205
3635,-0.325,-0.210
3636,-0.350,-0.210
3637,-0.350,-0.185
3638,-0.360,-0.225
3639,-0.350,-0.210
3640,-0.340,-0.215
3641,-0.290,-0.190
3642,-0.230,-0.170
3643,-0.235,-0.090
3644,-0.210,-0.055
3645,-0.175,-0.030
3646,-0.110,-0.050
3647,-0.095,-0.095
3648,-0.120,-0.080
3649,-0.180,-0.130
3650,-0.200,-0.160
3651,-0.245,-0.240
3652,-0.340,-0.235
3653,-0.380,-0.215
3654,-0.410,-0.220
3655,-0.415,-0.240
3656,-0.405,-0.240
3657,-0.390,-0.240
3658,-0.360,-0.250
3659,-0.370,-0.245
3660,-0.365,-0.250
3661,-0.380,-0.225
3662,-0.515,-0.235
3663,-0.495,-0.230
3664,-0.475,-0.345
3665,-0.280,-0.695
3666,-0.565,-0.740
3667,-0.610,-0.705
3668,-1.375,0.195
3669,-2.285,-0.060
3670,-2.795,-2.310
3671,-2.845,-2.950
3672,-2.525,-2.670
3673,-2.080,-2.060
3674,-1.415,-1.170
3675,-0.710,-0.625
3676,-0.415,-0.240
3677,-0.290,-0.110
3678,-0.240,-0.025
3679,-0.225,-0.010
3680,-0.185,0.015
3681,-0.165,0.055
3682,-0.130,0.045
3683,-0.120,0.065
3684,-0.105,0.080
3685,-0.070,0.100
3686,-0.070,0.105
3687,-0.025,0.135
3688,0.000,0.140
3689,0.020,0.180
3690,0.075,0.200
3691,0.090,0.240
3692,0.150,0.310
3693,0.190,0.340
3694,0.230,0.370
3695,0.290,0.425
3696,0.315,0.470
3697,0.375,0.515
3698,0.360,0.535
3699,0.390,0.570
3700,0.410,0.590
3701,0.415,0.610
3702,0.430,0.580
3703,0.435,0.615
3704,0.450,0.630
3705,0.440,0.670
3706,0.430,0.715
3707,0.430,0.740
3708,0.415,0.755
3709,0.405,0.770
3710,0.340,0.760
3711,0.295,0.790
3712,0.220,0.745
3713,0.155,0.745
3714,0.125,0.755
3715,0.020,0.715
3716,0.010,0.660
3717,-0.040,0.595
3718,-0.090,0.520
3719,-0.125,0.475
3720,-0.140,0.435
3721,-0.160,0.360
3722,-0.170,0.305
3723,-0.175,0.270
3724,-0.185,0.220
3725,-0.215,0.190
3726,-0.210,0.145
3727,-0.205,0.115
3728,-0.230,0.095
3729,-0.230,0.060
3730,-0.265,0.045
3731,-0.275,0.010
3732,-0.280,-0.015
3733,-0.285,-0.010
3734,-0.285,-0.060
3735,-0.325,-0.065
3736,-0.285,-0.070
3737,-0.295,-0.115
3738,-0.300,-0.105
3739,-0.280,-0.115
3740,-0.320,-0.120
3741,-0.295,-0.125
3742,-0.330,-0.135
3743,-0.300,-0.140
3744,-0.305,-0.145
3745,-0.315,-0.120
3746,-0.295,-0.135
3747,-0.290,-0.145
3748,-0.295,-0.145
3749,-0.310,-0.155
3750,-0.305,-0.130
3751,-0.295,-0.155
3752,-0.295,-0.150
3753,-0.295,-0.135
3754,-0.315,-0.145
3755,-0.295,-0.135
3756,-0.285,-0.120
3757,-0.310,-0.135
3758,-0.280,-0.140
3759,-0.285,-0.165
3760,-0.270,-0.130
3761,-0.270,-0.145
3762,-0.275,-0.130
3763,-0.280,-0.140
3764,-0.250,-0.160
3765,-0.195,-0.135
3766,-0.145,-0.095
3767,-0.120,-0.010
3768,-0.105,0.000
3769,-0.040,0.040
3770,0.000,0.080
3771,0.005,0.020
3772,-0.020,0.000
3773,-0.075,-0.060
3774,-0.080,-0.135
3775,-0.130,-0.170
3776,-0.265,-0.150
3777,-0.275,-0.130
3778,-0.310,-0.170
3779,-0.290,-0.185
3780,-0.265,-0.185
3781,-0.270,-0.185
3782,-0.240,-0.200
3783,-0.245,-0.175
3784,-0.240,-0.150
3785,-0.265,-0.155
3786,-0.365,-0.160
3787,-0.335,-0.155
3788,-0.310,-0.325
3789,-0.175,-0.685
3790,-0.575,-0.745
3791,-0.650,-0.580
3792,-1.405,0.290
3793,-2.225,-0.365
3794,-2.725,-2.510
3795,-2.765,-2.895
3796,-2.420,-2.570
3797,-1.875,-1.860
3798,-1.135,-0.915
3799,-0.465,-0.470
3800,-0.190,-0.060
3801,-0.065,0.060
3802,0.020,0.095
3803,0.050,0.125
3804,0.080,0.135
3805,0.105,0.115
3806,0.100,0.135
3807,0.125,0.150
3808,0.140,0.200
3809,0.180,0.190
3810,0.190,0.205
3811,0.225,0.230
3812,0.250,0.225
3813,0.300,0.275
3814,0.330,0.290
3815,0.370,0.305
3816,0.420,0.335
3817,0.475,0.385
3818,0.500,0.415
3819,0.550,0.460
3820,0.580,0.515
3821,0.630,0.545
3822,0.630,0.575
3823,0.680,0.645
3824,0.700,0.635
3825,0.715,0.650
3826,0.740,0.655
3827,0.745,0.670
3828,0.725,0.680
3829,0.745,0.710
3830,0.760,0.745
3831,0.760,0.760
3832,0.755,0.815
3833,0.755,0.830
3834,0.725,0.870
3835,0.665,0.890
3836,0.620,0.875
3837,0.575,0.890
3838,0.500,0.865
3839,0.465,0.820
3840,0.405,0.775
3841,0.380,0.765
3842,0.330,0.660
3843,0.315,0.605
3844,0.275,0.565
3845,0.265,0.480
3846,0.230,0.435
3847,0.225,0.395
3848,0.205,0.355
3849,0.185,0.310
3850,0.180,0.300
3851,0.165,0.255
3852,0.160,0.210
3853,0.170,0.170
3854,0.140,0.125
3855,0.155,0.115
3856,0.155,0.075
3857,0.115,0.065
3858,0.120,0.050
3859,0.120,0.020
3860,0.125,0.025
3861,0.105,0.020
3862,0.130,0.020
3863,0.115,-0.005
3864,0.125,0.005
3865,0.110,0.000
3866,0.105,-0.030
3867,0.130,-0.025
3868,0.140,-0.030
3869,0.120,-0.040
3870,0.145,-0.025
3871,0.115,-0.065
3872,0.120,-0.045
3873,0.130,-0.030
3874,0.110,-0.030
3875,0.130,-0.015
3876,0.115,-0.040
3877,0.125,-0.005
3878,0.125,-0.040
3879,0.095,-0.050
3880,0.110,-0.040
3881,0.100,-0.045
3882,0.145,-0.050
3883,0.130,-0.040
3884,0.120,-0.010
3885,0.105,-0.030
3886,0.130,-0.040
3887,0.130,-0.035
3888,0.140,-0.025
3889,0.170,-0.015
3890,0.200,0.000
3891,0.255,0.070
3892,0.280,0.125
3893,0.330,0.170
3894,0.380,0.190
3895,0.410,0.165
3896,0.370,0.105
3897,0.305,0.090
3898,0.260,-0.005
3899,0.275,-0.060
3900,0.180,-0.095
3901,0.100,-0.030
3902,0.080,-0.045
3903,0.050,-0.105
3904,0.070,-0.065
3905,0.065,-0.075
3906,0.080,-0.090
3907,0.085,-0.080
3908,0.125,-0.085
3909,0.110,-0.090
3910,0.045,-0.085
3911,-0.040,-0.070
3912,0.005,-0.125
3913,0.085,-0.355
3914,0.005,-0.640
3915,-0.265,-0.665
3916,-0.565,-0.260
3917,-1.410,0.435
3918,-2.095,-1.015
3919,-2.535,-2.730
3920,-2.420,-2.840
3921,-2.020,-2.380
3922,-1.430,-1.465
3923,-0.675,-0.700
3924,-0.080,-0.280
3925,0.125,0.080
3926,0.220,0.130
3927,0.260,0.200
3928,0.315,0.215
3929,0.340,0.195
3930,0.330,0.225
3931,0.340,0.240
3932,0.350,0.215
3933,0.380,0.250
3934,0.400,0.275
3935,0.425,0.280
3936,0.445,0.305
3937,0.460,0.305
3938,0.485,0.325
3939,0.505,0.350
3940,0.540,0.390
3941,0.565,0.455
3942,0.610,0.470
3943,0.680,0.480
3944,0.680,0.515
3945,0.705,0.580
3946,0.750,0.610
3947,0.745,0.650
3948,0.785,0.635
3949,0.795,0.680
3950,0.795,0.685
3951,0.800,0.705
3952,0.790,0.680
3953,0.805,0.730
3954,0.775,0.780
3955,0.805,0.835
3956,0.795,0.825
3957,0.775,0.880
3958,0.775,0.860
3959,0.715,0.920
3960,0.695,0.890
3961,0.625,0.875
3962,0.585,0.880
3963,0.525,0.855
3964,0.465,0.815
3965,0.430,0.760
3966,0.360,0.700
3967,0.325,0.680
3968,0.270,0.610
3969,0.250,0.520
3970,0.235,0.465
3971,0.195,0.440
3972,0.190,0.375
3973,0.170,0.325
3974,0.160,0.260
3975,0.125,0.225
3976,0.100,0.200
3977,0.090,0.175
3978,0.065,0.135
3979,0.050,0.120
3980,0.050,0.100
3981,0.020,0.075
3982,0.010,0.050
3983,0.000,0.000
3984,0.005,-0.005
3985,0.005,-0.020
3986,0.000,-0.030
3987,0.000,-0.030
3988,-0.025,-0.065
3989,-0.010,-0.065
3990,-0.035,-0.085
3991,-0.040,-0.055
3992,-0.040,-0.080
3993,-0.040,-0.095
3994,-0.045,-0.095
3995,-0.075,-0.095
3996,-0.060,-0.110
3997,-0.055,-0.100
3998,-0.080,-0.120
3999,-0.075,-0.090
4000,-0.085,-0.135
4001,-0.100,-0.130
4002,-0.075,-0.145
4003,-0.105,-0.150
4004,-0.095,-0.160
4005,-0.110,-0.150
4006,-0.100,-0.155
4007,-0.080,-0.160
4008,-0.115,-0.145
4009,-0.090,-0.155
4010,-0.120,-0.170
4011,-0.100,-0.175
4012,-0.100,-0.195
4013,-0.100,-0.165
4014,-0.070,-0.165
4015,0.015,-0.090
4016,0.020,-0.040
4017,0.015,-0.020
4018,0.080,0.020
4019,0.105,0.010
4020,0.105,-0.060
4021,0.080,-0.065
4022,0.015,-0.130
4023,0.020,-0.220
4024,-0.035,-0.240
4025,-0.145,-0.215
4026,-0.185,-0.185
4027,-0.250,-0.240
4028,-0.230,-0.280
4029,-0.245,-0.270
4030,-0.205,-0.290
4031,-0.205,-0.250
4032,-0.230,-0.305
4033,-0.205,-0.290
4034,-0.225,-0.270
4035,-0.380,-0.260
4036,-0.345,-0.270
4037,-0.335,-0.365
4038,-0.145,-0.740
4039,-0.435,-0.815
4040,-0.610,-0.715
4041,-1.430,0.170
4042,-2.295,-0.370
4043,-2.775,-2.380
4044,-2.725,-2.800
4045,-2.385,-2.550
4046,-1.940,-1.890
4047,-1.255,-1.095
4048,-0.545,-0.635
4049,-0.265,-0.250
4050,-0.145,-0.110
4051,-0.070,-0.070
4052,-0.065,-0.025
4053,-0.040,-0.035
4054,-0.020,-0.015
4055,0.005,-0.010
4056,0.020,-0.015
4057,0.030,0.010
4058,0.055,0.005
4059,0.035,0.035
4060,0.075,0.015
4061,0.100,0.055
4062,0.145,0.060
4063,0.190,0.080
4064,0.205,0.120
4065,0.255,0.175
4066,0.290,0.190
4067,0.315,0.235
4068,0.370,0.310
4069,0.390,0.345
4070,0.430,0.370
4071,0.435,0.390
4072,0.465,0.435
4073,0.500,0.430
4074,0.520,0.445
4075,0.520,0.495
4076,0.525,0.490
4077,0.530,0.510
4078,0.500,0.525
4079,0.505,0.550
4080,0.500,0.580
4081,0.480,0.645
4082,0.475,0.660
4083,0.395,0.660
4084,0.355,0.665
4085,0.305,0.665
4086,0.250,0.660
4087,0.190,0.655
4088,0.120,0.605
4089,0.095,0.590
4090,0.045,0.530
4091,0.005,0.450
4092,-0.015,0.370
4093,-0.055,0.315
4094,-0.065,0.255
4095,-0.070,0.230
4096,-0.105,0.155
4097,-0.135,0.125
4098,-0.130,0.075
4099,-0.150,0.035
4100,-0.175,0.010
4101,-0.175,-0.020
4102,-0.185,-0.065
4103,-0.200,-0.070
4104,-0.235,-0.125
4105,-0.255,-0.155
4106,-0.265,-0.180
4107,-0.255,-0.205
4108,-0.265,-0.200
4109,-0.280,-0.255
4110,-0.310,-0.255
4111,-0.275,-0.265
4112,-0.285,-0.285
4113,-0.295,-0.300
4114,-0.290,-0.280
4115,-0.275,-0.290
4116,-0.310,-0.305
4117,-0.335,-0.290
4118,-0.320,-0.285
4119,-0.330,-0.300
4120,-0.330,-0.330
4121,-0.315,-0.320
4122,-0.310,-0.305
4123,-0.335,-0.320
4124,-0.330,-0.320
4125,-0.340,-0.315
4126,-0.335,-0.325
4127,-0.350,-0.325
4128,-0.300,-0.315
4129,-0.330,-0.310
4130,-0.340,-0.300
4131,-0.325,-0.300
4132,-0.330,-0.315
4133,-0.325,-0.310
4134,-0.335,-0.310
4135,-0.325,-0.315
4136,-0.285,-0.320
4137,-0.315,-0.320
4138,-0.265,-0.290
4139,-0.220,-0.235
4140,-0.200,-0.180
4141,-0.140,-0.130
4142,-0.095,-0.105
4143,-0.080,-0.085
4144,-0.085,-0.140
4145,-0.130,-0.160
4146,-0.175,-0.245
4147,-0.180,-0.280
4148,-0.230,-0.315
4149,-0.335,-0.275
4150,-0.345,-0.295
4151,-0.390,-0.340
4152,-0.395,-0.340
4153,-0.400,-0.340
4154,-0.375,-0.350
4155,-0.370,-0.340
4156,-0.360,-0.325
4157,-0.340,-0.325
4158,-0.400,-0.310
4159,-0.525,-0.310
4160,-0.445,-0.340
4161,-0.410,-0.525
4162,-0.285,-0.875
4163,-0.635,-0.825
4164,-0.875,-0.530
4165,-1.725,0.355
4166,-2.470,-0.860
4167,-2.895,-2.780
4168,-2.795,-3.030
4169,-2.450,-2.625
4170,-1.895,-1.815
4171,-1.115,-0.985
4172,-0.530,-0.500
4173,-0.325,-0.175
4174,-0.220,-0.050
4175,-0.165,-0.020
4176,-0.145,0.015
4177,-0.105,0.030
4178,-0.105,0.040
4179,-0.065,0.050
4180,-0.060,0.055
4181,-0.025,0.045
4182,-0.010,0.095
4183,-0.015,0.085
4184,0.020,0.100
4185,0.020,0.145
4186,0.060,0.170
4187,0.110,0.205
4188,0.130,0.230
4189,0.200,0.265
4190,0.220,0.310
4191,0.270,0.355
4192,0.295,0.400
4193,0.335,0.425
4194,0.360,0.465
4195,0.380,0.495
4196,0.415,0.530
4197,0.440,0.545
4198,0.450,0.545
4199,0.460,0.565
4200,0.455,0.610
4201,0.465,0.590
4202,0.475,0.650
4203,0.495,0.655
4204,0.475,0.700
4205,0.445,0.710
4206,0.440,0.745
4207,0.380,0.760
4208,0.345,0.770
4209,0.285,0.775
4210,0.215,0.770
4211,0.165,0.710
4212,0.110,0.710
4213,0.040,0.635
4214,0.020,0.570
4215,-0.015,0.515
4216,-0.035,0.465
4217,-0.060,0.405
4218,-0.065,0.345
4219,-0.110,0.280
4220,-0.120,0.260
4221,-0.130,0.175
4222,-0.150,0.210
4223,-0.125,0.125
4224,-0.140,0.100
4225,-0.145,0.065
4226,-0.200,0.025
4227,-0.210,0.000
4228,-0.190,-0.040
4229,-0.200,-0.055
4230,-0.190,-0.070
4231,-0.230,-0.070
4232,-0.210,-0.115
4233,-0.215,-0.140
4234,-0.245,-0.145
4235,-0.235,-0.170
4236,-0.250,-0.180
4237,-0.250,-0.165
4238,-0.260,-0.185
4239,-0.255,-0.210
4240,-0.255,-0.180
4241,-0.275,-0.215
4242,-0.265,-0.180
4243,-0.260,-0.215
4244,-0.265,-0.205
4245,-0.235,-0.195
4246,-0.245,-0.220
4247,-0.265,-0.215
4248,-0.265,-0.245
4249,-0.275,-0.215
4250,-0.270,-0.200
4251,-0.280,-0.205
4252,-0.275,-0.205
4253,-0.275,-0.210
4254,-0.255,-0.245
4255,-0.265,-0.225
4256,-0.265,-0.215
4257,-0.250,-0.210
4258,-0.255,-0.210
4259,-0.265,-0.220
4260,-0.275,-0.210
4261,-0.240,-0.195
4262,-0.155,-0.155
4263,-0.155,-0.120
4264,-0.145,-0.050
4265,-0.070,-0.005
4266,-0.035,0.030
4267,0.010,0.005
4268,-0.025,-0.085
4269,-0.090,-0.105
4270,-0.125,-0.165
4271,-0.120,-0.225
4272,-0.230,-0.235
4273,-0.325,-0.195
4274,-0.335,-0.215
4275,-0.360,-0.255
4276,-0.355,-0.270
4277,-0.330,-0.240
4278,-0.350,-0.260
4279,-0.335,-0.265
4280,-0.340,-0.245
4281,-0.315,-0.240
4282,-0.360,-0.265
4283,-0.450,-0.265
4284,-0.395,-0.300
4285,-0.325,-0.550
4286,-0.435,-0.860
4287,-0.725,-0.800
4288,-1.145,-0.320
4289,-2.010,0.350
4290,-2.640,-1.675
4291,-2.970,-3.005
4292,-2.740,-2.940
4293,-2.345,-2.425
4294,-1.700,-1.495
4295,-0.880,-0.790
4296,-0.420,-0.355
4297,-0.255,-0.075
4298,-0.160,-0.035
4299,-0.125,0.000
4300,-0.065,0.000
4301,-0.050,0.045
4302,-0.065,0.090
4303,-0.020,0.095
4304,-0.035,0.105
4305,-0.010,0.110
4306,0.025,0.095
4307,0.030,0.140
4308,0.050,0.115
4309,0.090,0.110
4310,0.115,0.185
4311,0.145,0.245
4312,0.175,0.250
4313,0.210,0.275
4314,0.210,0.300
4315,0.305,0.355
4316,0.340,0.435
4317,0.355,0.470
4318,0.395,0.470
4319,0.400,0.500
4320,0.430,0.520
4321,0.445,0.525
4322,0.445,0.565
4323,0.470,0.580
4324,0.460,0.610
4325,0.460,0.650
4326,0.440,0.665
4327,0.435,0.730
4328,0.455,0.745
4329,0.415,0.770
4330,0.415,0.800
4331,0.375,0.795
4332,0.320,0.820
4333,0.260,0.765
4334,0.200,0.775
4335,0.145,0.760
4336,0.080,0.700
4337,0.070,0.640
4338,0.020,0.595
4339,-0.030,0.530
4340,-0.050,0.470
4341,-0.095,0.380
4342,-0.095,0.350
4343,-0.115,0.285
4344,-0.125,0.265
4345,-0.130,0.205
4346,-0.175,0.155
4347,-0.170,0.140
4348,-0.175,0.090
4349,-0.170,0.040
4350,-0.200,0.015
4351,-0.215,0.010
4352,-0.245,-0.015
4353,-0.270,-0.020
4354,-0.260,-0.045
4355,-0.265,-0.055
4356,-0.255,-0.100
4357,-0.270,-0.120
4358,-0.300,-0.120
4359,-0.275,-0.120
4360,-0.315,-0.150
4361,-0.300,-0.155
4362,-0.290,-0.155
4363,-0.320,-0.185
4364,-0.305,-0.165
4365,-0.325,-0.185
4366,-0.335,-0.195
4367,-0.295,-0.195
4368,-0.330,-0.150
4369,-0.290,-0.175
4370,-0.325,-0.210
4371,-0.335,-0.205
4372,-0.340,-0.235
4373,-0.345,-0.210
4374,-0.340,-0.200
4375,-0.330,-0.215
4376,-0.335,-0.200
4377,-0.320,-0.215
4378,-0.365,-0.225
4379,-0.330,-0.230
4380,-0.365,-0.225
4381,-0.350,-0.215
4382,-0.345,-0.190
4383,-0.345,-0.195
4384,-0.355,-0.180
4385,-0.350,-0.195
4386,-0.270,-0.185
4387,-0.245,-0.100
4388,-0.230,-0.065
4389,-0.180,-0.025
4390,-0.125,0.015
4391,-0.085,-0.035
4392,-0.120,-0.075
4393,-0.195,-0.100
4394,-0.205,-0.200
4395,-0.260,-0.230
4396,-0.310,-0.245
4397,-0.410,-0.200
4398,-0.420,-0.240
4399,-0.450,-0.265
4400,-0.460,-0.290
4401,-0.440,-0.310
4402,-0.430,-0.290
4403,-0.450,-0.285
4404,-0.425,-0.275
4405,-0.460,-0.280
4406,-0.515,-0.280
4407,-0.605,-0.265
4408,-0.540,-0.345
4409,-0.490,-0.580
4410,-0.535,-0.880
4411,-0.750,-0.865
4412,-1.200,-0.390
4413,-2.080,0.295
4414,-2.780,-1.500
4415,-3.115,-2.970
4416,-2.830,-2.895
4417,-2.445,-2.465
4418,-1.860,-1.580
4419,-1.105,-0.870
4420,-0.595,-0.460
4421,-0.425,-0.160
4422,-0.335,-0.055
4423,-0.265,-0.005
4424,-0.245,-0.005
4425,-0.210,-0.005
4426,-0.220,0.000
4427,-0.210,0.015
4428,-0.190,0.035
4429,-0.185,0.045
4430,-0.130,0.030
4431,-0.110,0.050
4432,-0.100,0.085
4433,-0.060,0.100
4434,-0.070,0.120
4435,0.000,0.155
4436,0.020,0.190
4437,0.080,0.235
4438,0.125,0.270
4439,0.180,0.325
4440,0.190,0.375
4441,0.220,0.430
4442,0.260,0.485
4443,0.300,0.505
4444,0.315,0.525
4445,0.320,0.565
4446,0.305,0.575
4447,0.290,0.575
4448,0.315,0.585
4449,0.325,0.615
4450,0.310,0.650
4451,0.345,0.695
4452,0.320,0.720
4453,0.335,0.760
4454,0.270,0.765
4455,0.225,0.780
4456,0.185,0.800
4457,0.135,0.780
4458,0.055,0.805
4459,0.000,0.760
4460,-0.025,0.725
4461,-0.105,0.675
4462,-0.115,0.630
4463,-0.155,0.545
4464,-0.205,0.505
4465,-0.225,0.430
4466,-0.235,0.385
4467,-0.255,0.330
4468,-0.270,0.270
4469,-0.270,0.235
4470,-0.265,0.170
4471,-0.285,0.150
4472,-0.315,0.115
4473,-0.330,0.100
4474,-0.335,0.065
4475,-0.350,0.030
4476,-0.350,0.005
4477,-0.375,-0.015
4478,-0.385,-0.045
4479,-0.380,-0.065
4480,-0.390,-0.080
4481,-0.380,-0.105
4482,-0.405,-0.125
4483,-0.380,-0.135
4484,-0.405,-0.120
4485,-0.425,-0.165
4486,-0.390,-0.155
4487,-0.435,-0.160
4488,-0.430,-0.145
4489,-0.410,-0.185
4490,-0.435,-0.170
4491,-0.410,-0.180
4492,-0.400,-0.175
4493,-0.420,-0.200
4494,-0.445,-0.185
4495,-0.440,-0.225
4496,-0.425,-0.200
4497,-0.435,-0.225
4498,-0.440,-0.205
4499,-0.430,-0.220
4500,-0.445,-0.210
4501,-0.430,-0.215
4502,-0.440,-0.235
4503,-0.460,-0.210
4504,-0.420,-0.235
4505,-0.460,-0.210
4506,-0.450,-0.240
4507,-0.470,-0.250
4508,-0.425,-0.215
4509,-0.375,-0.205
4510,-0.325,-0.165
4511,-0.315,-0.085
4512,-0.315,-0.035
4513,-0.255,-0.005
4514,-0.215,-0.010
4515,-0.200,-0.080
4516,-0.235,-0.100
4517,-0.285,-0.140
4518,-0.325,-0.220
4519,-0.375,-0.275
4520,-0.465,-0.245
4521,-0.520,-0.200
4522,-0.535,-0.275
4523,-0.535,-0.280
4524,-0.565,-0.295
4525,-0.540,-0.285
4526,-0.545,-0.290
4527,-0.535,-0.285
4528,-0.510,-0.305
4529,-0.535,-0.285
4530,-0.630,-0.300
4531,-0.640,-0.290
4532,-0.605,-0.470
4533,-0.455,-0.775
4534,-0.775,-0.815
4535,-0.875,-0.700
4536,-1.565,0.200
4537,-2.370,-0.145
4538,-2.940,-2.400
4539,-3.025,-3.120
4540,-2.720,-2.800
4541,-2.290,-2.105
4542,-1.545,-1.195
4543,-0.820,-0.625
4544,-0.555,-0.225
4545,-0.435,-0.120
4546,-0.395,-0.055
4547,-0.365,-0.020
4548,-0.325,0.010
4549,-0.285,-0.005
4550,-0.280,0.055
4551,-0.255,0.030
4552,-0.220,0.050
4553,-0.225,0.090
4554,-0.180,0.095
4555,-0.165,0.115
4556,-0.125,0.130
4557,-0.080,0.170
4558,-0.050,0.195
4559,-0.020,0.235
4560,0.010,0.290
4561,0.050,0.310
4562,0.110,0.355
4563,0.140,0.400
4564,0.170,0.450
4565,0.200,0.480
4566,0.220,0.545
4567,0.265,0.570
4568,0.285,0.560
4569,0.310,0.605
4570,0.285,0.585
4571,0.310,0.615
4572,0.295,0.610
4573,0.300,0.625
4574,0.325,0.695
4575,0.315,0.715
4576,0.300,0.735
4577,0.270,0.770
4578,0.220,0.775
4579,0.175,0.785
4580,0.110,0.780
4581,0.050,0.755
4582,-0.010,0.740
4583,-0.060,0.700
4584,-0.095,0.655
4585,-0.155,0.585
4586,-0.165,0.555
4587,-0.225,0.480
4588,-0.240,0.385
4589,-0.250,0.370
4590,-0.285,0.300
4591,-0.285,0.260
4592,-0.330,0.230
4593,-0.320,0.190
4594,-0.340,0.160
4595,-0.330,0.095
4596,-0.340,0.100
4597,-0.370,0.070
4598,-0.385,0.020
4599,-0.395,-0.010
4600,-0.400,-0.045
4601,-0.420,-0.050
4602,-0.405,-0.075
4603,-0.400,-0.100
4604,-0.415,-0.130
4605,-0.440,-0.130
4606,-0.450,-0.180
4607,-0.420,-0.170
4608,-0.450,-0.200
4609,-0.455,-0.155
4610,-0.455,-0.215
4611,-0.460,-0.205
4612,-0.455,-0.210
4613,-0.475,-0.200
4614,-0.480,-0.225
4615,-0.455,-0.225
4616,-0.455,-0.210
4617,-0.445,-0.225
4618,-0.460,-0.215
4619,-0.460,-0.230
4620,-0.470,-0.240
4621,-0.485,-0.255
4622,-0.450,-0.235
4623,-0.485,-0.230
4624,-0.460,-0.240
4625,-0.455,-0.220
4626,-0.480,-0.240
4627,-0.475,-0.220
4628,-0.480,-0.215
4629,-0.485,-0.250
4630,-0.475,-0.250
4631,-0.480,-0.245
4632,-0.435,-0.240
4633,-0.365,-0.180
4634,-0.315,-0.110
4635,-0.325,-0.035
4636,-0.240,-0.025
4637,-0.205,0.000
4638,-0.215,-0.080
4639,-0.250,-0.080
4640,-0.335,-0.175
4641,-0.365,-0.240
4642,-0.365,-0.285
4643,-0.500,-0.255
4644,-0.550,-0.250
4645,-0.580,-0.280
4646,-0.575,-0.295
4647,-0.585,-0.310
4648,-0.570,-0.305
4649,-0.560,-0.290
4650,-0.565,-0.275
4651,-0.550,-0.260
4652,-0.550,-0.275
4653,-0.650,-0.290
4654,-0.630,-0.310
4655,-0.655,-0.425
4656,-0.480,-0.840
4657,-0.875,-0.855
4658,-0.980,-0.765
4659,-1.700,0.120
4660,-2.530,-0.555
4661,-3.075,-2.670
4662,-3.085,-3.125
4663,-2.755,-2.785
4664,-2.240,-2.015
4665,-1.470,-1.105
4666,-0.800,-0.605
4667,-0.560,-0.200
4668,-0.435,-0.100
4669,-0.375,-0.070
4670,-0.340,-0.010
4671,-0.300,-0.020
4672,-0.300,0.000
4673,-0.280,0.020
4674,-0.300,0.045
4675,-0.240,0.035
4676,-0.230,0.065
4677,-0.210,0.065
4678,-0.175,0.090
4679,-0.160,0.100
4680,-0.135,0.135
4681,-0.095,0.160
4682,-0.040,0.205
4683,0.000,0.230
4684,0.045,0.290
4685,0.085,0.335
4686,0.115,0.350
4687,0.175,0.410
4688,0.195,0.455
4689,0.200,0.485
4690,0.245,0.500
4691,0.260,0.545
4692,0.295,0.550
4693,0.280,0.570
4694,0.275,0.550
4695,0.290,0.575
4696,0.285,0.590
4697,0.320,0.675
4698,0.300,0.705
4699,0.300,0.710
4700,0.270,0.745
4701,0.215,0.740
4702,0.180,0.785
4703,0.105,0.775
4704,0.045,0.755
4705,-0.005,0.740
4706,-0.050,0.705
4707,-0.115,0.640
4708,-0.175,0.595
4709,-0.170,0.530
4710,-0.205,0.460
4711,-0.210,0.415
4712,-0.235,0.335
4713,-0.285,0.305
4714,-0.295,0.245
4715,-0.300,0.215
4716,-0.310,0.160
4717,-0.310,0.145
4718,-0.335,0.120
4719,-0.345,0.065
4720,-0.350,0.035
4721,-0.380,0.020
4722,-0.365,-0.020
4723,-0.385,-0.045
4724,-0.390,-0.045
4725,-0.400,-0.095
4726,-0.400,-0.115
4727,-0.415,-0.140
4728,-0.430,-0.150
4729,-0.430,-0.140
4730,-0.445,-0.140
4731,-0.425,-0.160
4732,-0.430,-0.135
4733,-0.440,-0.180
4734,-0.455,-0.200
4735,-0.460,-0.190
4736,-0.430,-0.195
4737,-0.420,-0.195
4738,-0.400,-0.190
4739,-0.425,-0.220
4740,-0.445,-0.215
4741,-0.445,-0.215
4742,-0.440,-0.235
4743,-0.420,-0.205
4744,-0.455,-0.200
4745,-0.435,-0.215
4746,-0.440,-0.240
4747,-0.440,-0.230
4748,-0.415,-0.215
4749,-0.460,-0.245
4750,-0.435,-0.250
4751,-0.420,-0.240
4752,-0.435,-0.250
4753,-0.425,-0.220
4754,-0.475,-0.240
4755,-0.385,-0.220
4756,-0.335,-0.165
4757,-0.315,-0.115
4758,-0.280,-0.085
4759,-0.240,0.000
4760,-0.210,-0.045
4761,-0.195,-0.095
4762,-0.260,-0.100
4763,-0.285,-0.190
4764,-0.320,-0.260
4765,-0.350,-0.295
4766,-0.445,-0.265
4767,-0.510,-0.255
4768,-0.520,-0.285
4769,-0.540,-0.315
4770,-0.520,-0.320
4771,-0.505,-0.305
4772,-0.510,-0.310
4773,-0.515,-0.305
4774,-0.525,-0.285
4775,-0.515,-0.305
4776,-0.625,-0.280
4777,-0.575,-0.295
4778,-0.625,-0.405
4779,-0.445,-0.775
4780,-0.815,-0.845
4781,-0.925,-0.905
4782,-1.580,-0.065
4783,-2.460,-0.285
4784,-3.030,-2.445
4785,-3.070,-3.030
4786,-2.735,-2.735
4787,-2.240,-2.065
4788,-1.555,-1.205
4789,-0.850,-0.655
4790,-0.560,-0.255
4791,-0.425,-0.115
4792,-0.350,-0.050
4793,-0.330,-0.045
4794,-0.300,-0.050
4795,-0.300,-0.020
4796,-0.285,0.000
4797,-0.250,0.015
4798,-0.225,0.005
4799,-0.190,0.015
4800,-0.185,0.015
4801,-0.180,0.050
4802,-0.135,0.045
4803,-0.100,0.095
4804,-0.065,0.120
4805,-0.015,0.160
4806,0.055,0.200
4807,0.060,0.215
4808,0.075,0.240
4809,0.145,0.300
4810,0.170,0.370
4811,0.205,0.390
4812,0.245,0.440
4813,0.265,0.455
4814,0.290,0.470
4815,0.290,0.500
4816,0.330,0.510
4817,0.310,0.515
4818,0.335,0.555
4819,0.335,0.585
4820,0.315,0.615
4821,0.310,0.660
4822,0.305,0.700
4823,0.275,0.725
4824,0.250,0.725
4825,0.165,0.695
4826,0.125,0.730
4827,0.080,0.715
4828,0.015,0.700
4829,-0.030,0.660
4830,-0.085,0.625
4831,-0.115,0.560
4832,-0.185,0.500
4833,-0.200,0.435
4834,-0.240,0.335
4835,-0.255,0.310
4836,-0.245,0.260
4837,-0.280,0.215
4838,-0.285,0.165
4839,-0.295,0.105
4840,-0.310,0.075
4841,-0.325,0.015
4842,-0.360,0.000
4843,-0.335,-0.060
4844,-0.380,-0.055
4845,-0.330,-0.085
4846,-0.355,-0.140
4847,-0.395,-0.130
4848,-0.390,-0.170
4849,-0.375,-0.185
4850,-0.390,-0.195
4851,-0.400,-0.215
4852,-0.395,-0.205
4853,-0.385,-0.235
4854,-0.405,-0.250
4855,-0.390,-0.275
4856,-0.385,-0.240
4857,-0.390,-0.275
4858,-0.400,-0.285
4859,-0.415,-0.315
4860,-0.400,-0.295
4861,-0.400,-0.300
4862,-0.420,-0.305
4863,-0.400,-0.305
4864,-0.390,-0.320
4865,-0.405,-0.315
4866,-0.420,-0.320
4867,-0.410,-0.305
4868,-0.390,-0.340
4869,-0.405,-0.335
4870,-0.395,-0.330
4871,-0.390,-0.335
4872,-0.390,-0.325
4873,-0.415,-0.350
4874,-0.430,-0.335
4875,-0.435,-0.350
4876,-0.415,-0.355
4877,-0.410,-0.360
4878,-0.400,-0.360
4879,-0.320,-0.345
4880,-0.325,-0.255
4881,-0.305,-0.205
4882,-0.270,-0.175
4883,-0.225,-0.125
4884,-0.160,-0.185
4885,-0.160,-0.215
4886,-0.245,-0.250
4887,-0.290,-0.300
4888,-0.295,-0.390
4889,-0.370,-0.415
4890,-0.480,-0.390
4891,-0.520,-0.390
4892,-0.485,-0.410
4893,-0.520,-0.430
4894,-0.485,-0.445
4895,-0.505,-0.435
4896,-0.510,-0.455
4897,-0.490,-0.430
4898,-0.495,-0.435
4899,-0.515,-0.415
4900,-0.620,-0.395
4901,-0.615,-0.425
4902,-0.585,-0.560
4903,-0.420,-0.895
4904,-0.670,-0.895
4905,-0.815,-0.845
4906,-1.640,0.120
4907,-2.515,-0.430
4908,-3.030,-2.680
4909,-2.905,-3.110
4910,-2.600,-2.790
4911,-2.090,-2.165
4912,-1.460,-1.335
4913,-0.795,-0.795
4914,-0.540,-0.435
4915,-0.420,-0.310
4916,-0.350,-0.230
4917,-0.315,-0.180
4918,-0.280,-0.155
4919,-0.260,-0.120
4920,-0.270,-0.145
4921,-0.225,-0.155
4922,-0.230,-0.095
4923,-0.210,-0.090
4924,-0.160,-0.050
4925,-0.155,-0.045
4926,-0.100,-0.030
4927,-0.085,-0.015
4928,-0.050,0.005
4929,0.000,0.055
4930,0.030,0.080
4931,0.080,0.135
4932,0.110,0.195
4933,0.150,0.225
4934,0.200,0.270
4935,0.235,0.320
4936,0.280,0.370
4937,0.275,0.395
4938,0.295,0.405
4939,0.315,0.420
4940,0.320,0.440
4941,0.345,0.445
4942,0.360,0.485
4943,0.355,0.525
4944,0.350,0.555
4945,0.345,0.615
4946,0.320,0.635
4947,0.290,0.655
4948,0.270,0.630
4949,0.195,0.655
4950,0.150,0.650
4951,0.070,0.635
4952,0.020,0.630
4953,-0.020,0.615
4954,-0.060,0.590
4955,-0.095,0.535
4956,-0.140,0.470
4957,-0.195,0.410
4958,-0.205,0.345
4959,-0.215,0.290
4960,-0.230,0.240
4961,-0.245,0.210
4962,-0.265,0.160
4963,-0.255,0.135
4964,-0.310,0.110
4965,-0.290,0.070
4966,-0.300,0.020
4967,-0.315,-0.020
4968,-0.295,-0.045
4969,-0.335,-0.080
4970,-0.365,-0.095
4971,-0.355,-0.125
4972,-0.360,-0.125
4973,-0.370,-0.165
4974,-0.370,-0.180
4975,-0.365,-0.220
4976,-0.360,-0.210
4977,-0.350,-0.205
4978,-0.370,-0.215
4979,-0.385,-0.250
4980,-0.390,-0.265
4981,-0.380,-0.240
4982,-0.360,-0.265
4983,-0.370,-0.275
4984,-0.355,-0.275
4985,-0.355,-0.270
4986,-0.385,-0.250
4987,-0.380,-0.275
4988,-0.395,-0.275
4989,-0.370,-0.300
4990,-0.370,-0.270
4991,-0.385,-0.280
4992,-0.380,-0.275
4993,-0.400,-0.260
4994,-0.400,-0.290
4995,-0.395,-0.290
4996,-0.395,-0.285
4997,-0.360,-0.265
4998,-0.370,-0.285
4999,-0.375,-0.260
5000,-0.390,-0.270
5001,-0.375,-0.290
5002,-0.355,-0.310
5003,-0.365,-0.280
5004,-0.295,-0.245
5005,-0.250,-0.195
5006,-0.260,-0.145
5007,-0.210,-0.130
5008,-0.160,-0.095
5009,-0.125,-0.095
5010,-0.130,-0.155
5011,-0.175,-0.175
5012,-0.230,-0.250
5013,-0.280,-0.350
5014,-0.285,-0.375
5015,-0.445,-0.355
5016,-0.465,-0.330
5017,-0.480,-0.360
5018,-0.500,-0.390
5019,-0.490,-0.400
5020,-0.505,-0.390
5021,-0.475,-0.400
5022,-0.490,-0.385
5023,-0.480,-0.385
5024,-0.470,-0.385
5025,-0.565,-0.395
5026,-0.555,-0.405
5027,-0.565,-0.505
5028,-0.425,-0.825
5029,-0.685,-0.960
5030,-0.830,-0.925
5031,-1.375,-0.160
5032,-2.260,-0.020
5033,-2.875,-2.335
5034,-3.110,-3.275
5035,-2.820,-3.025
5036,-2.350,-2.440
5037,-1.625,-1.455
5038,-0.840,-0.850
5039,-0.520,-0.405
5040,-0.405,-0.215
5041,-0.320,-0.190
5042,-0.305,-0.135
5043,-0.245,-0.110
5044,-0.225,-0.110
5045,-0.225,-0.090
5046,-0.210,-0.080
5047,-0.205,-0.070
5048,-0.180,-0.050
5049,-0.160,-0.040
5050,-0.125,-0.020
5051,-0.100,0.000
5052,-0.085,0.005
5053,-0.045,0.030
5054,-0.035,0.070
5055,0.015,0.120
5056,0.055,0.160
5057,0.105,0.210
5058,0.150,0.215
5059,0.190,0.270
5060,0.225,0.305
5061,0.225,0.365
5062,0.260,0.360
5063,0.300,0.435
5064,0.310,0.425
5065,0.320,0.455
5066,0.325,0.460
5067,0.320,0.490
5068,0.345,0.510
5069,0.345,0.545
5070,0.360,0.620
5071,0.350,0.605
5072,0.325,0.655
5073,0.300,0.670
5074,0.245,0.675
5075,0.165,0.670
5076,0.110,0.650
5077,0.055,0.680
5078,0.000,0.615
5079,-0.025,0.570
5080,-0.085,0.540
5081,-0.140,0.475
5082,-0.155,0.395
5083,-0.175,0.330
5084,-0.225,0.305
5085,-0.240,0.240
5086,-0.260,0.180
5087,-0.260,0.145
5088,-0.285,0.090
5089,-0.280,0.060
5090,-0.315,0.020
5091,-0.330,0.000
5092,-0.330,-0.020
5093,-0.345,-0.045
5094,-0.340,-0.095
5095,-0.335,-0.150
5096,-0.360,-0.170
5097,-0.350,-0.175
5098,-0.380,-0.205
5099,-0.355,-0.205
5100,-0.370,-0.240
5101,-0.375,-0.230
5102,-0.365,-0.270
5103,-0.365,-0.285
5104,-0.385,-0.270
5105,-0.395,-0.250
5106,-0.380,-0.285
5107,-0.380,-0.285
5108,-0.370,-0.270
5109,-0.390,-0.280
5110,-0.380,-0.280
5111,-0.370,-0.315
5112,-0.375,-0.285
5113,-0.370,-0.305
5114,-0.350,-0.290
5115,-0.375,-0.315
5116,-0.360,-0.300
5117,-0.400,-0.305
5118,-0.375,-0.285
5119,-0.385,-0.305
5120,-0.380,-0.320
5121,-0.370,-0.310
5122,-0.385,-0.300
5123,-0.365,-0.320
5124,-0.365,-0.290
5125,-0.375,-0.310
5126,-0.365,-0.315
5127,-0.390,-0.330
5128,-0.325,-0.310
5129,-0.270,-0.265
5130,-0.265,-0.205
5131,-0.230,-0.145
5132,-0.195,-0.125
5133,-0.125,-0.080
5134,-0.130,-0.155
5135,-0.190,-0.185
5136,-0.205,-0.240
5137,-0.250,-0.330
5138,-0.290,-0.380
5139,-0.390,-0.375
5140,-0.460,-0.320
5141,-0.490,-0.375
5142,-0.490,-0.410
5143,-0.470,-0.435
5144,-0.475,-0.425
5145,-0.465,-0.415
5146,-0.460,-0.425
5147,-0.450,-0.400
5148,-0.455,-0.425
5149,-0.515,-0.410
5150,-0.540,-0.405
5151,-0.530,-0.475
5152,-0.460,-0.735
5153,-0.640,-1.010
5154,-0.820,-1.020
5155,-1.260,-0.470
5156,-2.115,0.040
5157,-2.760,-1.885
5158,-3.140,-3.200
5159,-2.915,-3.145
5160,-2.495,-2.675
5161,-1.875,-1.790
5162,-1.010,-0.960
5163,-0.560,-0.530
5164,-0.375,-0.240
5165,-0.310,-0.195
5166,-0.270,-0.140
5167,-0.220,-0.125
5168,-0.220,-0.105
5169,-0.210,-0.130
5170,-0.195,-0.110
5171,-0.195,-0.080
5172,-0.160,-0.075
5173,-0.145,-0.050
5174,-0.105,-0.050
5175,-0.075,-0.045
5176,-0.040,-0.010
5177,0.000,0.005
5178,0.015,0.030
5179,0.055,0.065
5180,0.060,0.130
5181,0.120,0.155
5182,0.150,0.185
5183,0.200,0.245
5184,0.245,0.255
5185,0.270,0.315
5186,0.325,0.330
5187,0.320,0.360
5188,0.335,0.400
5189,0.345,0.375
5190,0.320,0.405
5191,0.370,0.410
5192,0.385,0.465
5193,0.390,0.505
5194,0.385,0.530
5195,0.340,0.580
5196,0.335,0.615
5197,0.305,0.630
5198,0.260,0.615
5199,0.210,0.625
5200,0.145,0.615
5201,0.085,0.600
5202,0.025,0.570
5203,0.000,0.550
5204,-0.020,0.480
5205,-0.080,0.420
5206,-0.100,0.370
5207,-0.175,0.285
5208,-0.185,0.240
5209,-0.190,0.190
5210,-0.200,0.150
5211,-0.210,0.100
5212,-0.235,0.075
5213,-0.225,0.025
5214,-0.260,-0.020
5215,-0.270,-0.035
5216,-0.285,-0.075
5217,-0.285,-0.100
5218,-0.270,-0.125
5219,-0.290,-0.160
5220,-0.300,-0.195
5221,-0.320,-0.210
5222,-0.315,-0.225
5223,-0.315,-0.245
5224,-0.355,-0.235
5225,-0.330,-0.260
5226,-0.335,-0.280
5227,-0.335,-0.295
5228,-0.305,-0.310
5229,-0.350,-0.305
5230,-0.350,-0.275
5231,-0.315,-0.290
5232,-0.345,-0.295
5233,-0.320,-0.300
5234,-0.340,-0.320
5235,-0.335,-0.325
5236,-0.335,-0.350
5237,-0.345,-0.330
5238,-0.335,-0.325
5239,-0.350,-0.320
5240,-0.345,-0.340
5241,-0.350,-0.335
5242,-0.330,-0.340
5243,-0.330,-0.330
5244,-0.345,-0.345
5245,-0.320,-0.305
5246,-0.335,-0.345
5247,-0.345,-0.350
5248,-0.340,-0.350
5249,-0.350,-0.360
5250,-0.325,-0.365
5251,-0.345,-0.340
5252,-0.365,-0.380
5253,-0.320,-0.350
5254,-0.265,-0.350
5255,-0.205,-0.275
5256,-0.205,-0.220
5257,-0.155,-0.195
5258,-0.120,-0.165
5259,-0.095,-0.150
5260,-0.115,-0.230
5261,-0.160,-0.245
5262,-0.205,-0.340
5263,-0.210,-0.410
5264,-0.295,-0.420
5265,-0.425,-0.380
5266,-0.440,-0.380
5267,-0.425,-0.410
5268,-0.450,-0.445
5269,-0.445,-0.480
5270,-0.405,-0.460
5271,-0.440,-0.455
5272,-0.435,-0.460
5273,-0.415,-0.445
5274,-0.425,-0.455
5275,-0.525,-0.470
5276,-0.480,-0.475
5277,-0.480,-0.615
5278,-0.445,-1.035
5279,-0.780,-1.085
5280,-0.950,-0.955
5281,-1.745,-0.150
5282,-2.505,-0.980
5283,-3.055,-2.945
5284,-2.995,-3.290
5285,-2.630,-2.930
5286,-2.120,-2.255
5287,-1.380,-1.335
5288,-0.700,-0.820
5289,-0.420,-0.425
5290,-0.290,-0.285
5291,-0.230,-0.235
5292,-0.200,-0.205
5293,-0.195,-0.215
5294,-0.170,-0.180
5295,-0.195,-0.165
5296,-0.145,-0.185
5297,-0.125,-0.180
5298,-0.115,-0.155
5299,-0.080,-0.115
5300,-0.070,-0.125
5301,-0.015,-0.095
5302,-0.015,-0.100
5303,0.025,-0.060
5304,0.080,-0.030
5305,0.100,0.000
5306,0.170,0.020
5307,0.195,0.075
5308,0.230,0.135
5309,0.265,0.155
5310,0.270,0.190
5311,0.335,0.240
5312,0.380,0.280
5313,0.375,0.260
5314,0.385,0.310
5315,0.360,0.310
5316,0.410,0.315
5317,0.400,0.320
5318,0.400,0.390
5319,0.425,0.435
5320,0.395,0.460
5321,0.390,0.480
5322,0.355,0.500
5323,0.310,0.515
5324,0.255,0.520
5325,0.205,0.515
5326,0.160,0.525
5327,0.090,0.520
5328,0.030,0.490
5329,-0.025,0.415
5330,-0.075,0.375
5331,-0.085,0.310
5332,-0.115,0.245
5333,-0.145,0.185
5334,-0.175,0.105
5335,-0.195,0.085
5336,-0.200,0.035
5337,-0.235,-0.005
5338,-0.200,-0.040
5339,-0.230,-0.075
5340,-0.250,-0.105
5341,-0.265,-0.150
5342,-0.275,-0.190
5343,-0.280,-0.215
5344,-0.305,-0.250
5345,-0.300,-0.270
5346,-0.310,-0.300
5347,-0.335,-0.345
5348,-0.330,-0.345
5349,-0.335,-0.360
5350,-0.315,-0.385
5351,-0.335,-0.395
5352,-0.335,-0.405
5353,-0.325,-0.410
5354,-0.320,-0.450
5355,-0.320,-0.440
5356,-0.360,-0.445
5357,-0.385,-0.415
5358,-0.380,-0.460
5359,-0.345,-0.455
5360,-0.325,-0.470
5361,-0.345,-0.490
5362,-0.330,-0.475
5363,-0.360,-0.495
5364,-0.370,-0.475
5365,-0.350,-0.455
5366,-0.370,-0.465
5367,-0.325,-0.465
5368,-0.335,-0.490
5369,-0.345,-0.465
5370,-0.355,-0.475
5371,-0.350,-0.490
5372,-0.320,-0.475
5373,-0.340,-0.480
5374,-0.315,-0.500
5375,-0.340,-0.510
5376,-0.345,-0.520
5377,-0.345,-0.495
5378,-0.335,-0.505
5379,-0.280,-0.490
5380,-0.210,-0.450
5381,-0.220,-0.390
5382,-0.190,-0.320
5383,-0.165,-0.300
5384,-0.115,-0.340
5385,-0.095,-0.365
5386,-0.130,-0.370
5387,-0.150,-0.440
5388,-0.190,-0.510
5389,-0.260,-0.550
5390,-0.390,-0.525
5391,-0.395,-0.525
5392,-0.425,-0.565
5393,-0.445,-0.570
5394,-0.430,-0.600
5395,-0.450,-0.615
5396,-0.415,-0.630
5397,-0.405,-0.620
5398,-0.430,-0.630
5399,-0.390,-0.615
5400,-0.530,-0.610
5401,-0.535,-0.595
5402,-0.520,-0.695
5403,-0.340,-1.025
5404,-0.535,-1.140
5405,-0.630,-1.155
5406,-1.285,-0.430
5407,-2.200,-0.075
5408,-2.830,-2.125
5409,-3.020,-3.215
5410,-2.705,-3.125
5411,-2.300,-2.635
5412,-1.740,-1.860
5413,-0.995,-1.175
5414,-0.560,-0.800
5415,-0.410,-0.525
5416,-0.315,-0.445
5417,-0.285,-0.410
5418,-0.230,-0.395
5419,-0.200,-0.370
5420,-0.250,-0.355
5421,-0.220,-0.365
5422,-0.180,-0.345
5423,-0.160,-0.320
5424,-0.110,-0.310
5425,-0.105,-0.300
5426,-0.055,-0.260
5427,-0.055,-0.265
5428,-0.005,-0.225
5429,0.030,-0.190
5430,0.070,-0.165
5431,0.140,-0.105
5432,0.175,-0.060
5433,0.220,-0.010
5434,0.265,0.040
5435,0.265,0.080
5436,0.320,0.115
5437,0.330,0.130
5438,0.375,0.210
5439,0.375,0.210
5440,0.385,0.215
5441,0.375,0.205
5442,0.370,0.240
5443,0.390,0.265
5444,0.360,0.330
5445,0.380,0.330
5446,0.350,0.370
5447,0.345,0.385
5448,0.315,0.385
5449,0.220,0.395
5450,0.185,0.385
5451,0.125,0.385
5452,0.070,0.380
5453,0.015,0.360
5454,-0.040,0.310
5455,-0.070,0.275
5456,-0.125,0.215
5457,-0.135,0.160
5458,-0.145,0.115
5459,-0.200,0.060
5460,-0.200,0.025
5461,-0.235,-0.015
5462,-0.235,-0.070
5463,-0.215,-0.110
5464,-0.250,-0.130
5465,-0.235,-0.155
5466,-0.275,-0.190
5467,-0.285,-0.230
5468,-0.270,-0.260
5469,-0.290,-0.295
5470,-0.275,-0.300
5471,-0.295,-0.325
5472,-0.300,-0.345
5473,-0.320,-0.380
5474,-0.320,-0.395
5475,-0.315,-0.405
5476,-0.330,-0.410
5477,-0.320,-0.425
5478,-0.345,-0.405
5479,-0.325,-0.420
5480,-0.335,-0.435
5481,-0.315,-0.430
5482,-0.340,-0.410
5483,-0.335,-0.430
5484,-0.340,-0.390
5485,-0.315,-0.455
5486,-0.355,-0.435
5487,-0.330,-0.445
5488,-0.355,-0.430
5489,-0.320,-0.440
5490,-0.355,-0.435
5491,-0.370,-0.455
5492,-0.340,-0.425
5493,-0.355,-0.440
5494,-0.355,-0.425
5495,-0.360,-0.425
5496,-0.355,-0.430
5497,-0.350,-0.415
5498,-0.350,-0.430
5499,-0.305,-0.435
5500,-0.330,-0.420
5501,-0.340,-0.450
5502,-0.340,-0.450
5503,-0.345,-0.440
5504,-0.320,-0.410
5505,-0.335,-0.410
5506,-0.255,-0.380
5507,-0.195,-0.345
5508,-0.205,-0.285
5509,-0.150,-0.260
5510,-0.125,-0.220
5511,-0.110,-0.265
5512,-0.125,-0.300
5513,-0.175,-0.310
5514,-0.200,-0.415
5515,-0.225,-0.480
5516,-0.315,-0.465
5517,-0.415,-0.450
5518,-0.455,-0.445
5519,-0.435,-0.475
5520,-0.415,-0.480
5521,-0.425,-0.500
5522,-0.435,-0.530
5523,-0.425,-0.530
5524,-0.460,-0.525
5525,-0.435,-0.490
5526,-0.490,-0.505
5527,-0.560,-0.490
5528,-0.505,-0.555
5529,-0.475,-0.765
5530,-0.465,-1.125
5531,-0.795,-1.095
5532,-1.025,-0.825
5533,-1.840,0.020
5534,-2.620,-1.160
5535,-3.095,-3.085
5536,-2.950,-3.320
5537,-2.595,-2.885
5538,-1.990,-2.065
5539,-1.195,-1.210
5540,-0.630,-0.730
5541,-0.430,-0.375
5542,-0.345,-0.355
5543,-0.300,-0.300
5544,-0.275,-0.280
5545,-0.280,-0.245
5546,-0.235,-0.240
5547,-0.235,-0.220
5548,-0.220,-0.200
5549,-0.180,-0.205
5550,-0.175,-0.180
5551,-0.135,-0.160
5552,-0.125,-0.130
5553,-0.100,-0.135
5554,-0.075,-0.075
5555,-0.025,-0.070
5556,0.010,-0.040
5557,0.040,0.000
5558,0.110,0.030
5559,0.110,0.085
5560,0.165,0.125
5561,0.190,0.165
5562,0.225,0.200
5563,0.285,0.220
5564,0.295,0.255
5565,0.330,0.290
5566,0.320,0.300
5567,0.325,0.330
5568,0.335,0.335
5569,0.345,0.340
5570,0.350,0.405
5571,0.330,0.435
5572,0.340,0.490
5573,0.305,0.515
5574,0.300,0.525
5575,0.255,0.530
5576,0.180,0.525
5577,0.115,0.520
5578,0.065,0.535
5579,0.005,0.500
5580,-0.030,0.470
5581,-0.100,0.390
5582,-0.145,0.350
5583,-0.205,0.260
5584,-0.235,0.235
5585,-0.230,0.170
5586,-0.245,0.130
5587,-0.240,0.105
5588,-0.305,0.000
5589,-0.280,0.000
5590,-0.315,-0.005
5591,-0.315,-0.055
5592,-0.350,-0.085
5593,-0.365,-0.115
5594,-0.350,-0.145
5595,-0.355,-0.175
5596,-0.355,-0.200
5597,-0.370,-0.225
5598,-0.390,-0.240
5599,-0.390,-0.255
5600,-0.395,-0.265
5601,-0.405,-0.270
5602,-0.405,-0.315
5603,-0.415,-0.345
5604,-0.400,-0.335
5605,-0.410,-0.325
5606,-0.390,-0.350
5607,-0.385,-0.340
5608,-0.385,-0.350
5609,-0.405,-0.375
5610,-0.400,-0.380
5611,-0.405,-0.385
5612,-0.435,-0.370
5613,-0.400,-0.375
5614,-0.400,-0.395
5615,-0.410,-0.395
5616,-0.420,-0.380
5617,-0.420,-0.385
5618,-0.415,-0.375
5619,-0.405,-0.385
5620,-0.410,-0.420
5621,-0.415,-0.395
5622,-0.420,-0.405
5623,-0.410,-0.410
5624,-0.420,-0.420
5625,-0.415,-0.400
5626,-0.400,-0.405
5627,-0.410,-0.395
5628,-0.415,-0.405
5629,-0.420,-0.420
5630,-0.405,-0.400
5631,-0.355,-0.415
5632,-0.305,-0.355
5633,-0.250,-0.315
5634,-0.265,-0.260
5635,-0.225,-0.215
5636,-0.200,-0.215
5637,-0.200,-0.265
5638,-0.215,-0.295
5639,-0.275,-0.370
5640,-0.290,-0.415
5641,-0.295,-0.480
5642,-0.425,-0.445
5643,-0.460,-0.390
5644,-0.510,-0.470
5645,-0.505,-0.485
5646,-0.510,-0.510
5647,-0.495,-0.520
5648,-0.495,-0.490
5649,-0.515,-0.525
5650,-0.525,-0.505
5651,-0.550,-0.490
5652,-0.620,-0.490
5653,-0.575,-0.510
5654,-0.595,-0.630
5655,-0.415,-1.045
5656,-0.860,-1.085
5657,-0.925,-1.105
5658,-1.570,-0.255
5659,-2.410,-0.405
5660,-3.005,-2.575
5661,-3.165,-3.385
5662,-2.855,-3.135
5663,-2.410,-2.470
5664,-1.725,-1.605
5665,-0.910,-0.910
5666,-0.575,-0.485
5667,-0.415,-0.330
5668,-0.370,-0.305
5669,-0.335,-0.255
5670,-0.300,-0.270
5671,-0.300,-0.240
5672,-0.260,-0.220
5673,-0.265,-0.210
5674,-0.230,-0.200
5675,-0.220,-0.160
5676,-0.220,-0.200
5677,-0.175,-0.155
5678,-0.155,-0.120
5679,-0.120,-0.110
5680,-0.100,-0.100
5681,-0.060,-0.060
5682,-0.025,-0.040
5683,-0.010,0.005
5684,0.055,0.050
5685,0.110,0.085
5686,0.150,0.125
5687,0.185,0.150
5688,0.180,0.220
5689,0.230,0.245
5690,0.235,0.250
5691,0.265,0.285
5692,0.270,0.305
5693,0.255,0.320
5694,0.275,0.345
5695,0.250,0.365
5696,0.290,0.415
5697,0.275,0.460
5698,0.265,0.460
5699,0.240,0.490
5700,0.180,0.500
5701,0.140,0.485
5702,0.065,0.505
5703,0.020,0.495
5704,-0.035,0.485
5705,-0.115,0.465
5706,-0.175,0.395
5707,-0.215,0.330
5708,-0.250,0.280
5709,-0.295,0.190
5710,-0.310,0.145
5711,-0.330,0.105
5712,-0.370,0.030
5713,-0.375,-0.015
5714,-0.390,0.000
5715,-0.395,-0.080
5716,-0.385,-0.080
5717,-0.430,-0.125
5718,-0.390,-0.180
5719,-0.420,-0.185
5720,-0.420,-0.245
5721,-0.430,-0.270
5722,-0.425,-0.280
5723,-0.435,-0.295
5724,-0.450,-0.310
5725,-0.450,-0.335
5726,-0.460,-0.360
5727,-0.460,-0.350
5728,-0.465,-0.375
5729,-0.465,-0.380
5730,-0.470,-0.405
5731,-0.485,-0.405
5732,-0.485,-0.385
5733,-0.470,-0.390
5734,-0.475,-0.415
5735,-0.465,-0.440
5736,-0.480,-0.430
5737,-0.495,-0.425
5738,-0.475,-0.415
5739,-0.505,-0.410
5740,-0.480,-0.435
5741,-0.505,-0.450
5742,-0.475,-0.450
5743,-0.500,-0.450
5744,-0.505,-0.435
5745,-0.495,-0.440
5746,-0.525,-0.450
5747,-0.495,-0.440
5748,-0.500,-0.470
5749,-0.515,-0.450
5750,-0.480,-0.425
5751,-0.490,-0.430
5752,-0.485,-0.435
5753,-0.480,-0.450
5754,-0.495,-0.455
5755,-0.455,-0.435
5756,-0.445,-0.435
5757,-0.365,-0.400
5758,-0.355,-0.315
5759,-0.370,-0.300
5760,-0.310,-0.235
5761,-0.265,-0.255
5762,-0.210,-0.310
5763,-0.275,-0.320
5764,-0.305,-0.380
5765,-0.350,-0.435
5766,-0.345,-0.520
5767,-0.440,-0.495
5768,-0.555,-0.485
5769,-0.565,-0.515
5770,-0.575,-0.550
5771,-0.570,-0.560
5772,-0.545,-0.570
5773,-0.540,-0.565
5774,-0.540,-0.560
5775,-0.550,-0.550
5776,-0.560,-0.550
5777,-0.650,-0.570
5778,-0.645,-0.535
5779,-0.635,-0.640
5780,-0.510,-1.000
5781,-0.835,-1.170
5782,-0.910,-1.270
5783,-1.515,-0.525
5784,-2.410,-0.285
5785,-3.095,-2.460
5786,-3.195,-3.285
5787,-2.870,-3.065
5788,-2.395,-2.515
5789,-1.825,-1.670
5790,-1.025,-1.040
5791,-0.630,-0.645
5792,-0.510,-0.440
5793,-0.425,-0.390
5794,-0.395,-0.360
5795,-0.375,-0.360
5796,-0.345,-0.370
5797,-0.345,-0.345
5798,-0.320,-0.325
5799,-0.270,-0.350
5800,-0.285,-0.295
5801,-0.260,-0.305
5802,-0.215,-0.275
5803,-0.200,-0.260
5804,-0.170,-0.245
5805,-0.145,-0.220
5806,-0.080,-0.165
5807,-0.055,-0.150
5808,-0.015,-0.090
5809,0.005,-0.085
5810,0.045,-0.025
5811,0.115,0.015
5812,0.150,0.055
5813,0.155,0.095
5814,0.205,0.110
5815,0.250,0.155
5816,0.240,0.145
5817,0.220,0.190
5818,0.255,0.170
5819,0.265,0.225
5820,0.265,0.260
5821,0.240,0.305
5822,0.260,0.340
5823,0.245,0.330
5824,0.195,0.395
5825,0.160,0.365
5826,0.110,0.390
5827,0.055,0.420
5828,0.025,0.405
5829,-0.070,0.360
5830,-0.120,0.355
5831,-0.175,0.300
5832,-0.215,0.240
5833,-0.245,0.185
5834,-0.285,0.120
5835,-0.270,0.065
5836,-0.330,-0.005
5837,-0.335,-0.055
5838,-0.360,-0.100
5839,-0.350,-0.150
5840,-0.385,-0.155
5841,-0.390,-0.215
5842,-0.390,-0.230
5843,-0.415,-0.285
5844,-0.420,-0.325
5845,-0.410,-0.335
5846,-0.435,-0.360
5847,-0.410,-0.355
5848,-0.450,-0.405
5849,-0.460,-0.405
5850,-0.450,-0.450
5851,-0.465,-0.465
5852,-0.445,-0.460
5853,-0.465,-0.455
5854,-0.475,-0.470
5855,-0.480,-0.495
5856,-0.465,-0.505
5857,-0.435,-0.500
5858,-0.440,-0.485
5859,-0.455,-0.495
5860,-0.480,-0.520
5861,-0.465,-0.505
5862,-0.455,-0.515
5863,-0.455,-0.520
5864,-0.470,-0.515
5865,-0.460,-0.505
5866,-0.485,-0.520
5867,-0.450,-0.480
5868,-0.470,-0.535
5869,-0.475,-0.530
5870,-0.480,-0.500
5871,-0.460,-0.520
5872,-0.455,-0.540
5873,-0.460,-0.535
5874,-0.435,-0.525
5875,-0.490,-0.550
5876,-0.470,-0.520
5877,-0.450,-0.580
5878,-0.475,-0.540
5879,-0.450,-0.520
5880,-0.450,-0.530
5881,-0.440,-0.525
5882,-0.420,-0.530
5883,-0.370,-0.485
5884,-0.320,-0.425
5885,-0.330,-0.375
5886,-0.265,-0.330
5887,-0.210,-0.340
5888,-0.175,-0.415
5889,-0.185,-0.410
5890,-0.260,-0.470
5891,-0.280,-0.555
5892,-0.335,-0.575
5893,-0.420,-0.540
5894,-0.495,-0.505
5895,-0.510,-0.595
5896,-0.515,-0.605
5897,-0.505,-0.615
5898,-0.500,-0.620
5899,-0.500,-0.605
5900,-0.485,-0.605
5901,-0.470,-0.595
5902,-0.510,-0.600
5903,-0.620,-0.595
5904,-0.605,-0.625
5905,-0.580,-0.730
5906,-0.375,-1.095
5907,-0.695,-1.120
5908,-0.725,-1.105
5909,-1.550,-0.200
5910,-2.445,-0.400
5911,-3.025,-2.710
5912,-3.030,-3.370
5913,-2.675,-3.070
5914,-2.250,-2.500
5915,-1.665,-1.670
5916,-0.935,-1.085
5917,-0.595,-0.700
5918,-0.435,-0.515
5919,-0.370,-0.445
5920,-0.335,-0.420
5921,-0.320,-0.395
5922,-0.295,-0.375
5923,-0.305,-0.390
5924,-0.290,-0.385
5925,-0.245,-0.345
5926,-0.230,-0.335
5927,-0.200,-0.330
5928,-0.165,-0.305
5929,-0.165,-0.290
5930,-0.105,-0.270
5931,-0.050,-0.220
5932,-0.055,-0.190
5933,-0.005,-0.140
5934,0.005,-0.085
5935,0.060,-0.050
5936,0.095,0.000
5937,0.140,0.025
5938,0.195,0.070
5939,0.200,0.115
5940,0.245,0.160
5941,0.245,0.155
5942,0.280,0.195
5943,0.285,0.205
5944,0.300,0.225
5945,0.300,0.265
5946,0.300,0.255
5947,0.295,0.310
5948,0.300,0.330
5949,0.270,0.375
5950,0.280,0.415
5951,0.225,0.420
5952,0.185,0.450
5953,0.105,0.435
5954,0.045,0.430
5955,-0.010,0.415
5956,-0.060,0.395
5957,-0.120,0.345
5958,-0.160,0.325
5959,-0.195,0.265
5960,-0.225,0.190
5961,-0.240,0.140
5962,-0.260,0.095
5963,-0.320,0.030
5964,-0.310,-0.010
5965,-0.310,-0.040
5966,-0.345,-0.085
5967,-0.315,-0.125
5968,-0.360,-0.155
5969,-0.365,-0.190
5970,-0.380,-0.245
5971,-0.380,-0.265
5972,-0.395,-0.315
5973,-0.415,-0.315
5974,-0.410,-0.375
5975,-0.395,-0.345
5976,-0.425,-0.385
5977,-0.440,-0.400
5978,-0.450,-0.420
5979,-0.415,-0.435
5980,-0.435,-0.445
5981,-0.420,-0.435
5982,-0.425,-0.420
5983,-0.455,-0.455
5984,-0.450,-0.455
5985,-0.440,-0.445
5986,-0.440,-0.455
5987,-0.445,-0.450
5988,-0.435,-0.460
5989,-0.445,-0.485
5990,-0.465,-0.465
5991,-0.435,-0.455
5992,-0.430,-0.470
5993,-0.420,-0.480
5994,-0.400,-0.465
5995,-0.440,-0.485
5996,-0.425,-0.440
5997,-0.430,-0.470
5998,-0.450,-0.440
5999,-0.420,-0.455
6000,-0.440,-0.460
6001,-0.420,-0.475
6002,-0.455,-0.460
6003,-0.450,-0.470
6004,-0.435,-0.465
6005,-0.435,-0.460
6006,-0.430,-0.480
6007,-0.435,-0.445
6008,-0.370,-0.450
6009,-0.285,-0.435
6010,-0.280,-0.355
6011,-0.275,-0.295
6012,-0.230,-0.295
6013,-0.170,-0.220
6014,-0.160,-0.305
6015,-0.195,-0.305
6016,-0.255,-0.380
6017,-0.315,-0.435
6018,-0.325,-0.505
6019,-0.445,-0.475
6020,-0.490,-0.470
6021,-0.515,-0.505
6022,-0.505,-0.525
6023,-0.495,-0.550
6024,-0.525,-0.555
6025,-0.505,-0.545
6026,-0.500,-0.565
6027,-0.480,-0.565
6028,-0.480,-0.535
6029,-0.585,-0.550
6030,-0.600,-0.540
6031,-0.580,-0.650
6032,-0.435,-0.995
6033,-0.740,-1.125
6034,-0.855,-1.095
6035,-1.405,-0.250
6036,-2.355,-0.250
6037,-3.020,-2.625
6038,-3.205,-3.470
6039,-2.905,-3.195
6040,-2.445,-2.585
6041,-1.785,-1.665
6042,-0.955,-1.010
6043,-0.590,-0.560
6044,-0.460,-0.375
6045,-0.380,-0.345
6046,-0.355,-0.305
6047,-0.305,-0.315
6048,-0.300,-0.290
6049,-0.285,-0.285
6050,-0.260,-0.265
6051,-0.245,-0.260
6052,-0.235,-0.240
6053,-0.235,-0.220
6054,-0.200,-0.185
6055,-0.175,-0.160
6056,-0.155,-0.185
6057,-0.110,-0.125
6058,-0.065,-0.125
6059,-0.015,-0.065
6060,0.015,-0.025
6061,0.055,0.040
6062,0.105,0.030
6063,0.125,0.110
6064,0.175,0.135
6065,0.200,0.190
6066,0.220,0.195
6067,0.250,0.245
6068,0.240,0.255
6069,0.280,0.270
6070,0.305,0.250
6071,0.295,0.300
6072,0.295,0.325
6073,0.290,0.340
6074,0.340,0.405
6075,0.310,0.455
6076,0.290,0.455
6077,0.260,0.485
6078,0.240,0.510
6079,0.150,0.500
6080,0.100,0.490
6081,0.015,0.500
6082,-0.025,0.450
6083,-0.075,0.410
6084,-0.125,0.330
6085,-0.170,0.260
6086,-0.195,0.200
6087,-0.230,0.125
6088,-0.235,0.070
6089,-0.285,0.020
6090,-0.295,-0.030
6091,-0.290,-0.065
6092,-0.305,-0.095
6093,-0.320,-0.135
6094,-0.350,-0.200
6095,-0.335,-0.200
6096,-0.345,-0.240
6097,-0.365,-0.275
6098,-0.360,-0.310
6099,-0.385,-0.310
6100,-0.400,-0.335
6101,-0.385,-0.365
6102,-0.380,-0.365
6103,-0.390,-0.375
6104,-0.400,-0.400
6105,-0.380,-0.390
6106,-0.400,-0.410
6107,-0.395,-0.405
6108,-0.375,-0.415
6109,-0.410,-0.410
6110,-0.405,-0.415
6111,-0.400,-0.430
6112,-0.415,-0.430
6113,-0.360,-0.430
6114,-0.390,-0.430
6115,-0.370,-0.445
6116,-0.390,-0.430
6117,-0.390,-0.420
6118,-0.385,-0.450
6119,-0.380,-0.420
6120,-0.365,-0.420
6121,-0.390,-0.435
6122,-0.355,-0.405
6123,-0.350,-0.390
6124,-0.395,-0.435
6125,-0.355,-0.425
6126,-0.370,-0.445
6127,-0.365,-0.435
6128,-0.355,-0.425
6129,-0.390,-0.440
6130,-0.350,-0.465
6131,-0.375,-0.450
6132,-0.340,-0.440
6133,-0.335,-0.445
6134,-0.270,-0.390
6135,-0.230,-0.325
6136,-0.225,-0.285
6137,-0.155,-0.235
6138,-0.105,-0.245
6139,-0.085,-0.285
6140,-0.120,-0.300
6141,-0.195,-0.365
6142,-0.215,-0.465
6143,-0.240,-0.480
6144,-0.360,-0.480
6145,-0.435,-0.430
6146,-0.430,-0.450
6147,-0.435,-0.495
6148,-0.440,-0.485
6149,-0.400,-0.515
6150,-0.430,-0.500
6151,-0.415,-0.500
6152,-0.415,-0.485
6153,-0.460,-0.465
6154,-0.525,-0.490
6155,-0.515,-0.490
6156,-0.480,-0.665
6157,-0.380,-1.060
6158,-0.760,-1.115
6159,-0.890,-0.980
6160,-1.640,-0.065
6161,-2.460,-0.835
6162,-3.070,-2.990
6163,-3.055,-3.390
6164,-2.715,-3.025
6165,-2.195,-2.315
6166,-1.460,-1.390
6167,-0.725,-0.850
6168,-0.425,-0.405
6169,-0.320,-0.305
6170,-0.295,-0.290
6171,-0.215,-0.270
6172,-0.200,-0.230
6173,-0.165,-0.225
6174,-0.160,-0.225
6175,-0.165,-0.215
6176,-0.135,-0.230
6177,-0.135,-0.185
6178,-0.080,-0.190
6179,-0.060,-0.165
6180,-0.030,-0.170
6181,-0.020,-0.130
6182,0.000,-0.105
6183,0.055,-0.055
6184,0.080,-0.040
6185,0.135,-0.010
6186,0.165,0.050
6187,0.175,0.075
6188,0.230,0.140
6189,0.270,0.170
6190,0.285,0.200
6191,0.340,0.235
6192,0.375,0.265
6193,0.390,0.260
6194,0.365,0.290
6195,0.390,0.295
6196,0.350,0.330
6197,0.380,0.355
6198,0.390,0.390
6199,0.375,0.420
6200,0.385,0.455
6201,0.355,0.450
6202,0.310,0.470
6203,0.275,0.505
6204,0.215,0.505
6205,0.155,0.495
6206,0.105,0.460
6207,0.030,0.455
6208,-0.025,0.405
6209,-0.065,0.345
6210,-0.125,0.285
6211,-0.155,0.220
6212,-0.170,0.125
6213,-0.190,0.085
6214,-0.200,0.010
6215,-0.230,0.005
6216,-0.255,-0.020
6217,-0.255,-0.080
6218,-0.280,-0.120
6219,-0.265,-0.175
6220,-0.270,-0.180
6221,-0.290,-0.225
6222,-0.290,-0.215
6223,-0.330,-0.270
6224,-0.315,-0.305
6225,-0.335,-0.320
6226,-0.315,-0.340
6227,-0.310,-0.365
6228,-0.340,-0.360
6229,-0.365,-0.360
6230,-0.345,-0.410
6231,-0.355,-0.390
6232,-0.340,-0.405
6233,-0.355,-0.400
6234,-0.310,-0.395
6235,-0.330,-0.395
6236,-0.345,-0.400
6237,-0.355,-0.385
6238,-0.340,-0.420
6239,-0.335,-0.395
6240,-0.325,-0.400
6241,-0.330,-0.400
6242,-0.330,-0.390
6243,-0.330,-0.385
6244,-0.360,-0.385
6245,-0.340,-0.400
6246,-0.315,-0.385
6247,-0.310,-0.420
6248,-0.325,-0.400
6249,-0.330,-0.390
6250,-0.350,-0.400
6251,-0.290,-0.430
6252,-0.330,-0.435
6253,-0.315,-0.405
6254,-0.325,-0.405
6255,-0.345,-0.405
6256,-0.320,-0.400
6257,-0.320,-0.375
6258,-0.275,-0.420
6259,-0.215,-0.365
6260,-0.180,-0.280
6261,-0.200,-0.235
6262,-0.150,-0.230
6263,-0.095,-0.210
6264,-0.075,-0.270
6265,-0.120,-0.275
6266,-0.180,-0.340
6267,-0.215,-0.425
6268,-0.215,-0.455
6269,-0.355,-0.465
6270,-0.415,-0.420
6271,-0.405,-0.475
6272,-0.415,-0.475
6273,-0.410,-0.490
6274,-0.400,-0.495
6275,-0.390,-0.495
6276,-0.415,-0.510
6277,-0.410,-0.510
6278,-0.410,-0.475
6279,-0.535,-0.495
6280,-0.520,-0.490
6281,-0.530,-0.620
6282,-0.355,-1.010
6283,-0.655,-1.085
6284,-0.790,-1.025
6285,-1.565,-0.190
6286,-2.445,-0.740
6287,-3.000,-2.785
6288,-2.945,-3.185
6289,-2.580,-2.890
6290,-2.070,-2.200
6291,-1.450,-1.360
6292,-0.700,-0.865
6293,-0.425,-0.470
6294,-0.320,-0.350
6295,-0.255,-0.300
6296,-0.260,-0.290
6297,-0.180,-0.280
6298,-0.220,-0.290
6299,-0.200,-0.280
6300,-0.160,-0.260
6301,-0.165,-0.235
6302,-0.135,-0.255
6303,-0.125,-0.235
6304,-0.115,-0.230
6305,-0.060,-0.235
6306,-0.045,-0.195
6307,-0.010,-0.145
6308,0.035,-0.115
6309,0.095,-0.085
6310,0.115,-0.060
6311,0.145,0.015
6312,0.230,0.030
6313,0.210,0.095
6314,0.250,0.130
6315,0.275,0.170
6316,0.295,0.210
6317,0.345,0.230
6318,0.355,0.260
6319,0.370,0.265
6320,0.345,0.275
6321,0.345,0.310
6322,0.365,0.360
6323,0.360,0.380
6324,0.370,0.425
6325,0.345,0.440
6326,0.320,0.480
6327,0.285,0.495
6328,0.215,0.530
6329,0.190,0.500
6330,0.115,0.505
6331,0.060,0.490
6332,0.000,0.445
6333,-0.055,0.425
6334,-0.105,0.345
6335,-0.160,0.300
6336,-0.195,0.215
6337,-0.200,0.170
6338,-0.200,0.095
6339,-0.235,0.035
6340,-0.240,-0.015
6341,-0.235,-0.045
6342,-0.275,-0.075
6343,-0.250,-0.155
6344,-0.290,-0.165
6345,-0.290,-0.190
6346,-0.335,-0.240
6347,-0.320,-0.255
6348,-0.330,-0.300
6349,-0.330,-0.320
6350,-0.350,-0.355
6351,-0.380,-0.375
6352,-0.385,-0.405
6353,-0.360,-0.420
6354,-0.360,-0.430
6355,-0.380,-0.440
6356,-0.370,-0.450
6357,-0.390,-0.460
6358,-0.375,-0.440
6359,-0.410,-0.470
6360,-0.400,-0.435
6361,-0.390,-0.475
6362,-0.395,-0.465
6363,-0.355,-0.465
6364,-0.400,-0.465
6365,-0.405,-0.450
6366,-0.410,-0.475
6367,-0.415,-0.430
6368,-0.400,-0.450
6369,-0.400,-0.465
6370,-0.410,-0.460
6371,-0.390,-0.465
6372,-0.425,-0.470
6373,-0.390,-0.455
6374,-0.385,-0.465
6375,-0.390,-0.455
6376,-0.385,-0.435
6377,-0.390,-0.440
6378,-0.390,-0.440
6379,-0.390,-0.445
6380,-0.365,-0.430
6381,-0.390,-0.460
6382,-0.395,-0.455
6383,-0.325,-0.445
6384,-0.265,-0.395
6385,-0.270,-0.320
6386,-0.255,-0.290
6387,-0.200,-0.225
6388,-0.165,-0.260
6389,-0.160,-0.320
6390,-0.170,-0.325
6391,-0.250,-0.400
6392,-0.260,-0.460
6393,-0.315,-0.505
6394,-0.425,-0.455
6395,-0.455,-0.450
6396,-0.485,-0.505
6397,-0.465,-0.500
6398,-0.470,-0.520
6399,-0.445,-0.520
6400,-0.450,-0.500
6401,-0.450,-0.480
6402,-0.440,-0.525
6403,-0.515,-0.475
6404,-0.615,-0.470
6405,-0.570,-0.545
6406,-0.450,-0.765
6407,-0.470,-1.040
6408,-0.685,-1.055
6409,-1.010,-0.555
6410,-1.895,0.210
6411,-2.615,-1.355
6412,-3.005,-3.095
6413,-2.810,-3.155
6414,-2.425,-2.700
6415,-1.865,-1.875
6416,-1.075,-1.055
6417,-0.600,-0.620
6418,-0.415,-0.370
6419,-0.315,-0.310
6420,-0.280,-0.260
6421,-0.260,-0.225
6422,-0.265,-0.225
6423,-0.250,-0.180
6424,-0.230,-0.215
6425,-0.200,-0.170
6426,-0.160,-0.145
6427,-0.165,-0.125
6428,-0.125,-0.110
6429,-0.115,-0.100
6430,-0.100,-0.080
6431,-0.045,-0.055
6432,-0.020,-0.030
6433,0.020,0.000
6434,0.065,0.050
6435,0.070,0.080
6436,0.135,0.135
6437,0.160,0.175
6438,0.185,0.240
6439,0.245,0.270
6440,0.255,0.280
6441,0.305,0.335
6442,0.305,0.350
6443,0.320,0.345
6444,0.315,0.355
6445,0.295,0.390
6446,0.330,0.395
6447,0.335,0.445
6448,0.325,0.480
6449,0.340,0.525
6450,0.320,0.535
6451,0.285,0.535
6452,0.215,0.540
6453,0.180,0.575
6454,0.120,0.575
6455,0.070,0.545
6456,0.005,0.525
6457,-0.045,0.520
6458,-0.105,0.450
6459,-0.170,0.405
6460,-0.175,0.335
6461,-0.215,0.270
6462,-0.250,0.220
6463,-0.250,0.160
6464,-0.315,0.115
6465,-0.310,0.075
6466,-0.310,0.010
6467,-0.315,-0.010
6468,-0.330,-0.030
6469,-0.330,-0.060
6470,-0.355,-0.090
6471,-0.365,-0.140
6472,-0.380,-0.150
6473,-0.395,-0.190
6474,-0.380,-0.225
6475,-0.395,-0.225
6476,-0.425,-0.235
6477,-0.425,-0.260
6478,-0.430,-0.290
6479,-0.430,-0.310
6480,-0.430,-0.300
6481,-0.445,-0.320
6482,-0.445,-0.300
6483,-0.455,-0.330
6484,-0.445,-0.315
6485,-0.450,-0.345
6486,-0.440,-0.335
6487,-0.425,-0.355
6488,-0.465,-0.335
6489,-0.430,-0.325
6490,-0.425,-0.335
6491,-0.455,-0.340
6492,-0.460,-0.330
6493,-0.480,-0.355
6494,-0.470,-0.345
6495,-0.450,-0.345
6496,-0.465,-0.340
6497,-0.440,-0.335
6498,-0.480,-0.350
6499,-0.455,-0.325
6500,-0.455,-0.325
6501,-0.460,-0.340
6502,-0.440,-0.345
6503,-0.445,-0.340
6504,-0.455,-0.315
6505,-0.455,-0.300
6506,-0.450,-0.310
6507,-0.430,-0.325
6508,-0.400,-0.315
6509,-0.295,-0.260
6510,-0.315,-0.190
6511,-0.280,-0.125
6512,-0.220,-0.105
6513,-0.200,-0.105
6514,-0.195,-0.180
6515,-0.250,-0.210
6516,-0.290,-0.285
6517,-0.315,-0.335
6518,-0.390,-0.395
6519,-0.490,-0.345
6520,-0.550,-0.335
6521,-0.555,-0.370
6522,-0.525,-0.375
6523,-0.550,-0.415
6524,-0.535,-0.410
6525,-0.560,-0.445
6526,-0.535,-0.415
6527,-0.515,-0.385
6528,-0.545,-0.380
6529,-0.660,-0.375
6530,-0.605,-0.430
6531,-0.610,-0.590
6532,-0.475,-0.990
6533,-0.855,-0.980
6534,-0.965,-0.810
6535,-1.800,0.135
6536,-2.610,-0.800
6537,-3.190,-2.905
6538,-3.100,-3.265
6539,-2.740,-2.865
6540,-2.180,-2.095
6541,-1.370,-1.170
6542,-0.775,-0.640
6543,-0.530,-0.280
6544,-0.455,-0.195
6545,-0.395,-0.180
6546,-0.355,-0.130
6547,-0.360,-0.130
6548,-0.330,-0.100
6549,-0.300,-0.080
6550,-0.310,-0.095
6551,-0.270,-0.085
6552,-0.255,-0.065
6553,-0.240,-0.055
6554,-0.215,-0.055
6555,-0.175,-0.020
6556,-0.180,0.000
6557,-0.155,0.005
6558,-0.080,0.040
6559,-0.065,0.060
6560,-0.035,0.135
6561,0.000,0.145
6562,0.025,0.215
6563,0.075,0.240
6564,0.090,0.285
6565,0.130,0.290
6566,0.135,0.335
6567,0.165,0.360
6568,0.215,0.370
6569,0.190,0.380
6570,0.185,0.420
6571,0.170,0.415
6572,0.210,0.455
6573,0.245,0.495
6574,0.240,0.560
6575,0.200,0.585
6576,0.200,0.590
6577,0.165,0.605
6578,0.125,0.615
6579,0.050,0.610
6580,0.005,0.590
6581,-0.075,0.610
6582,-0.130,0.545
6583,-0.195,0.525
