'sample interval','ECG0','ECG1'
'0.0078125 sec','mV','mV'
0,-0.530,-0.050
1,-0.545,-0.070
2,-0.535,-0.045
3,-0.525,-0.055
4,-0.510,-0.025
5,-0.510,-0.040
6,-0.525,-0.025
7,-0.545,-0.035
8,-0.535,-0.010
9,-0.545,-0.030
10,-0.525,-0.035
11,-0.515,-0.005
12,-0.530,0.000
13,-0.490,0.000
14,-0.410,0.020
15,-0.385,0.085
16,-0.370,0.125
17,-0.340,0.180
18,-0.280,0.205
19,-0.295,0.120
20,-0.325,0.100
21,-0.375,0.055
22,-0.410,0.000
23,-0.425,-0.005
24,-0.530,0.005
25,-0.600,0.020
26,-0.605,-0.015
27,-0.605,-0.050
28,-0.620,-0.040
29,-0.615,-0.040
30,-0.600,-0.035
31,-0.590,-0.050
32,-0.575,-0.015
33,-0.610,-0.015
34,-0.690,-0.010
35,-0.715,-0.015
36,-0.645,-0.090
37,-0.395,-0.340
38,-0.645,-0.395
39,-0.785,-0.410
40,-1.465,0.235
41,-2.315,0.535
42,-2.775,-1.505
43,-3.035,-2.585
44,-2.735,-2.340
45,-2.345,-1.805
46,-1.710,-1.035
47,-0.940,-0.595
48,-0.560,-0.150
49,-0.475,0.080
50,-0.405,0.115
51,-0.355,0.130
52,-0.355,0.125
53,-0.335,0.120
54,-0.350,0.145
55,-0.330,0.140
56,-0.320,0.125
57,-0.330,0.150
58,-0.310,0.155
59,-0.305,0.150
60,-0.275,0.175
61,-0.240,0.160
62,-0.220,0.195
63,-0.180,0.230
64,-0.165,0.240
65,-0.125,0.315
66,-0.040,0.340
67,0.000,0.395
68,0.055,0.455
69,0.115,0.490
70,0.160,0.555
71,0.225,0.605
72,0.240,0.650
73,0.290,0.700
74,0.310,0.735
75,0.300,0.755
76,0.325,0.770
77,0.325,0.810
78,0.305,0.850
79,0.320,0.890
80,0.270,0.905
81,0.255,0.910
82,0.195,0.900
83,0.105,0.910
84,0.055,0.880
85,-0.050,0.855
86,-0.115,0.820
87,-0.190,0.775
88,-0.260,0.710
89,-0.285,0.655
90,-0.345,0.555
91,-0.370,0.515
92,-0.375,0.440
93,-0.395,0.400
94,-0.415,0.365
95,-0.420,0.315
96,-0.425,0.300
97,-0.440,0.270
98,-0.435,0.250
99,-0.460,0.210
100,-0.460,0.220
101,-0.475,0.155
102,-0.490,0.150
103,-0.495,0.120
104,-0.520,0.100
105,-0.510,0.095
106,-0.515,0.060
107,-0.530,0.040
108,-0.525,0.050
109,-0.520,0.030
110,-0.535,0.040
111,-0.530,0.025
112,-0.550,0.050
113,-0.510,0.040
114,-0.520,0.020
115,-0.540,0.010
116,-0.505,0.010
117,-0.545,0.000
118,-0.540,0.005
119,-0.510,0.015
120,-0.530,0.005
121,-0.515,0.025
122,-0.515,0.025
123,-0.535,0.020
124,-0.505,0.010
125,-0.525,0.025
126,-0.510,0.020
127,-0.480,0.010
128,-0.525,0.010
129,-0.510,0.030
130,-0.510,0.015
131,-0.505,0.045
132,-0.490,0.045
133,-0.505,0.035
134,-0.510,0.035
135,-0.425,0.045
136,-0.405,0.090
137,-0.335,0.140
138,-0.330,0.195
139,-0.300,0.215
140,-0.265,0.215
141,-0.280,0.160
142,-0.295,0.125
143,-0.350,0.065
144,-0.390,0.005
145,-0.435,0.000
146,-0.535,0.030
147,-0.535,0.035
148,-0.585,0.000
149,-0.545,0.000
150,-0.540,-0.025
151,-0.575,-0.005
152,-0.550,-0.010
153,-0.555,0.000
154,-0.575,0.000
155,-0.630,0.010
156,-0.690,0.000
157,-0.660,-0.060
158,-0.430,-0.275
159,-0.620,-0.440
160,-0.850,-0.455
161,-1.470,0.085
162,-2.275,0.365
163,-2.810,-1.490
164,-3.015,-2.470
165,-2.695,-2.175
166,-2.260,-1.640
167,-1.515,-0.830
168,-0.790,-0.405
169,-0.525,0.015
170,-0.395,0.160
171,-0.380,0.140
172,-0.370,0.195
173,-0.315,0.175
174,-0.310,0.205
175,-0.300,0.210
176,-0.265,0.210
177,-0.290,0.190
178,-0.250,0.235
179,-0.265,0.215
180,-0.240,0.245
181,-0.180,0.235
182,-0.190,0.285
183,-0.150,0.265
184,-0.085,0.305
185,-0.065,0.335
186,0.015,0.390
187,0.035,0.440
188,0.115,0.470
189,0.180,0.530
190,0.220,0.620
191,0.295,0.615
192,0.335,0.680
193,0.365,0.715
194,0.355,0.755
195,0.350,0.760
196,0.345,0.770
197,0.370,0.810
198,0.370,0.830
199,0.385,0.875
200,0.335,0.890
201,0.305,0.910
202,0.240,0.895
203,0.150,0.880
204,0.075,0.840
205,-0.030,0.835
206,-0.075,0.795
207,-0.140,0.765
208,-0.205,0.695
209,-0.245,0.635
210,-0.290,0.550
211,-0.330,0.500
212,-0.355,0.425
213,-0.385,0.415
214,-0.380,0.365
215,-0.380,0.300
216,-0.410,0.275
217,-0.405,0.220
218,-0.415,0.245
219,-0.415,0.215
220,-0.430,0.185
221,-0.460,0.140
222,-0.450,0.110
223,-0.475,0.080
224,-0.465,0.065
225,-0.465,0.050
226,-0.480,0.030
227,-0.485,0.000
228,-0.490,-0.005
229,-0.510,0.000
230,-0.500,-0.020
231,-0.510,-0.025
232,-0.480,-0.040
233,-0.495,-0.025
234,-0.495,-0.020
235,-0.495,-0.025
236,-0.520,-0.030
237,-0.495,-0.030
238,-0.495,-0.035
239,-0.490,-0.030
240,-0.510,-0.035
241,-0.515,-0.020
242,-0.495,-0.035
243,-0.510,-0.040
244,-0.510,-0.055
245,-0.510,-0.040
246,-0.490,-0.040
247,-0.515,-0.025
248,-0.495,-0.045
249,-0.540,-0.045
250,-0.500,-0.050
251,-0.515,-0.040
252,-0.505,-0.045
253,-0.490,-0.070
254,-0.445,-0.040
255,-0.375,0.000
256,-0.355,0.030
257,-0.335,0.110
258,-0.280,0.090
259,-0.270,0.120
260,-0.255,0.070
261,-0.290,0.030
262,-0.345,0.000
263,-0.305,-0.045
264,-0.380,-0.050
265,-0.480,-0.040
266,-0.505,-0.035
267,-0.515,-0.050
268,-0.520,-0.095
269,-0.485,-0.105
270,-0.485,-0.095
271,-0.480,-0.075
272,-0.475,-0.085
273,-0.495,-0.070
274,-0.545,-0.110
275,-0.615,-0.070
276,-0.550,-0.130
277,-0.450,-0.280
278,-0.340,-0.580
279,-0.585,-0.565
280,-1.045,-0.305
281,-1.930,0.425
282,-2.645,-0.990
283,-2.965,-2.445
284,-2.680,-2.335
285,-2.245,-1.845
286,-1.550,-1.095
287,-0.850,-0.605
288,-0.490,-0.250
289,-0.345,-0.015
290,-0.310,0.020
291,-0.275,0.025
292,-0.235,0.025
293,-0.225,0.040
294,-0.195,0.015
295,-0.225,0.030
296,-0.170,0.030
297,-0.165,0.045
298,-0.160,0.045
299,-0.125,0.030
300,-0.125,0.065
301,-0.095,0.055
302,-0.060,0.070
303,-0.010,0.105
304,0.055,0.115
305,0.100,0.165
306,0.155,0.235
307,0.240,0.270
308,0.265,0.335
309,0.330,0.375
310,0.385,0.435
311,0.425,0.485
312,0.475,0.525
313,0.480,0.540
314,0.505,0.560
315,0.530,0.570
316,0.485,0.620
317,0.530,0.630
318,0.500,0.675
319,0.490,0.675
320,0.435,0.710
321,0.360,0.715
322,0.315,0.725
323,0.230,0.675
324,0.120,0.650
325,0.060,0.645
326,-0.020,0.575
327,-0.060,0.555
328,-0.105,0.460
329,-0.150,0.400
330,-0.180,0.320
331,-0.210,0.275
332,-0.200,0.230
333,-0.190,0.150
334,-0.235,0.125
335,-0.250,0.105
336,-0.210,0.065
337,-0.245,0.060
338,-0.240,0.015
339,-0.280,-0.005
340,-0.275,-0.030
341,-0.280,-0.050
342,-0.255,-0.070
343,-0.295,-0.070
344,-0.290,-0.100
345,-0.300,-0.125
346,-0.310,-0.120
347,-0.320,-0.175
348,-0.295,-0.170
349,-0.330,-0.190
350,-0.305,-0.170
351,-0.325,-0.155
352,-0.305,-0.170
353,-0.285,-0.165
354,-0.315,-0.175
355,-0.300,-0.215
356,-0.295,-0.190
357,-0.320,-0.185
358,-0.295,-0.195
359,-0.320,-0.205
360,-0.310,-0.225
361,-0.295,-0.195
362,-0.295,-0.180
363,-0.275,-0.185
364,-0.315,-0.195
365,-0.320,-0.200
366,-0.290,-0.230
367,-0.310,-0.240
368,-0.305,-0.245
369,-0.315,-0.210
370,-0.310,-0.230
371,-0.290,-0.230
372,-0.320,-0.230
373,-0.280,-0.210
374,-0.205,-0.175
375,-0.200,-0.095
376,-0.160,-0.055
377,-0.115,-0.030
378,-0.100,-0.050
379,-0.075,-0.120
380,-0.125,-0.135
381,-0.175,-0.145
382,-0.200,-0.200
383,-0.290,-0.235
384,-0.355,-0.185
385,-0.395,-0.215
386,-0.405,-0.230
387,-0.385,-0.235
388,-0.400,-0.240
389,-0.370,-0.225
390,-0.375,-0.215
391,-0.400,-0.230
392,-0.400,-0.195
393,-0.470,-0.190
394,-0.540,-0.185
395,-0.510,-0.220
396,-0.355,-0.355
397,-0.180,-0.595
398,-0.325,-0.585
399,-0.660,-0.370
400,-1.635,0.500
401,-2.405,-0.635
402,-2.770,-2.395
403,-2.555,-2.470
404,-2.225,-2.045
405,-1.585,-1.305
406,-0.850,-0.770
407,-0.440,-0.350
408,-0.320,-0.065
409,-0.250,-0.025
410,-0.220,-0.045
411,-0.225,-0.005
412,-0.215,0.000
413,-0.205,0.000
414,-0.185,0.005
415,-0.165,0.005
416,-0.175,0.045
417,-0.150,0.075
418,-0.130,0.055
419,-0.105,0.080
420,-0.070,0.095
421,-0.025,0.125
422,0.015,0.135
423,0.075,0.175
424,0.100,0.220
425,0.205,0.240
426,0.235,0.330
427,0.270,0.385
428,0.340,0.455
429,0.375,0.510
430,0.450,0.535
431,0.445,0.575
432,0.465,0.605
433,0.475,0.625
434,0.465,0.655
435,0.485,0.670
436,0.485,0.685
437,0.455,0.710
438,0.425,0.730
439,0.365,0.740
440,0.305,0.760
441,0.255,0.790
442,0.140,0.780
443,0.075,0.750
444,-0.005,0.715
445,-0.070,0.635
446,-0.130,0.650
447,-0.150,0.545
448,-0.215,0.485
449,-0.230,0.410
450,-0.285,0.355
451,-0.275,0.310
452,-0.310,0.250
453,-0.325,0.235
454,-0.310,0.210
455,-0.355,0.170
456,-0.340,0.175
457,-0.365,0.110
458,-0.380,0.080
459,-0.375,0.045
460,-0.390,0.030
461,-0.405,0.025
462,-0.395,-0.025
463,-0.435,-0.055
464,-0.420,-0.075
465,-0.445,-0.080
466,-0.435,-0.065
467,-0.435,-0.090
468,-0.450,-0.125
469,-0.445,-0.100
470,-0.425,-0.110
471,-0.445,-0.125
472,-0.440,-0.085
473,-0.460,-0.105
474,-0.440,-0.120
475,-0.445,-0.120
476,-0.450,-0.095
477,-0.445,-0.110
478,-0.475,-0.100
479,-0.460,-0.125
480,-0.440,-0.110
481,-0.450,-0.135
482,-0.450,-0.100
483,-0.470,-0.130
484,-0.460,-0.130
485,-0.450,-0.120
486,-0.465,-0.100
487,-0.440,-0.125
488,-0.445,-0.130
489,-0.480,-0.150
490,-0.440,-0.125
491,-0.470,-0.095
492,-0.415,-0.105
493,-0.370,-0.090
494,-0.320,-0.040
495,-0.305,0.015
496,-0.275,0.040
497,-0.235,0.075
498,-0.205,0.015
499,-0.220,0.000
500,-0.225,-0.015
501,-0.290,-0.075
502,-0.290,-0.145
503,-0.375,-0.165
504,-0.465,-0.105
505,-0.485,-0.140
506,-0.495,-0.150
507,-0.500,-0.150
508,-0.495,-0.160
509,-0.495,-0.145
510,-0.460,-0.170
511,-0.475,-0.150
512,-0.520,-0.145
513,-0.530,-0.120
514,-0.650,-0.130
515,-0.585,-0.160
516,-0.395,-0.325
517,-0.400,-0.565
518,-0.715,-0.550
519,-1.205,-0.255
520,-2.060,0.405
521,-2.705,-1.210
522,-2.970,-2.600
523,-2.685,-2.490
524,-2.310,-1.950
525,-1.655,-1.190
526,-0.860,-0.660
527,-0.470,-0.280
528,-0.345,-0.015
529,-0.290,-0.005
530,-0.290,0.010
531,-0.200,0.000
532,-0.255,0.020
533,-0.200,0.050
534,-0.210,0.040
535,-0.205,0.060
536,-0.180,0.055
537,-0.180,0.045
538,-0.155,0.085
539,-0.125,0.075
540,-0.080,0.075
541,-0.070,0.110
542,-0.025,0.125
543,0.030,0.170
544,0.080,0.220
545,0.140,0.275
546,0.190,0.330
547,0.260,0.380
548,0.315,0.395
549,0.365,0.480
550,0.415,0.530
551,0.425,0.610
552,0.470,0.635
553,0.470,0.645
554,0.480,0.675
555,0.470,0.715
556,0.485,0.730
557,0.460,0.745
558,0.450,0.810
559,0.430,0.800
560,0.340,0.800
561,0.265,0.760
562,0.200,0.760
563,0.110,0.750
564,0.050,0.720
565,-0.020,0.670
566,-0.070,0.610
567,-0.100,0.520
568,-0.175,0.455
569,-0.210,0.385
570,-0.210,0.325
571,-0.255,0.275
572,-0.260,0.245
573,-0.295,0.205
574,-0.305,0.170
575,-0.280,0.130
576,-0.350,0.125
577,-0.320,0.090
578,-0.335,0.070
579,-0.355,0.040
580,-0.320,0.025
581,-0.365,0.000
582,-0.370,-0.005
583,-0.365,-0.040
584,-0.395,-0.065
585,-0.365,-0.085
586,-0.405,-0.095
587,-0.405,-0.095
588,-0.400,-0.105
589,-0.400,-0.130
590,-0.380,-0.135
591,-0.420,-0.125
592,-0.415,-0.125
593,-0.415,-0.145
594,-0.440,-0.135
595,-0.410,-0.130
596,-0.395,-0.130
597,-0.420,-0.115
598,-0.410,-0.145
599,-0.430,-0.175
600,-0.410,-0.165
601,-0.420,-0.135
602,-0.395,-0.110
603,-0.380,-0.120
604,-0.395,-0.130
605,-0.410,-0.140
606,-0.400,-0.140
607,-0.425,-0.140
608,-0.400,-0.145
609,-0.415,-0.135
610,-0.395,-0.150
611,-0.380,-0.130
612,-0.385,-0.140
613,-0.270,-0.105
614,-0.260,-0.055
615,-0.230,0.000
616,-0.185,0.050
617,-0.165,0.065
618,-0.135,0.000
619,-0.185,-0.025
620,-0.240,-0.075
621,-0.235,-0.135
622,-0.300,-0.170
623,-0.400,-0.135
624,-0.430,-0.125
625,-0.460,-0.155
626,-0.435,-0.170
627,-0.445,-0.195
628,-0.435,-0.190
629,-0.420,-0.160
630,-0.445,-0.140
631,-0.420,-0.155
632,-0.470,-0.170
633,-0.550,-0.125
634,-0.530,-0.135
635,-0.465,-0.200
636,-0.195,-0.485
637,-0.610,-0.540
638,-0.855,-0.600
639,-1.555,0.120
640,-2.405,0.105
641,-2.875,-2.125
642,-2.860,-2.705
643,-2.565,-2.305
644,-2.010,-1.655
645,-1.215,-0.875
646,-0.565,-0.495
647,-0.335,-0.065
648,-0.250,0.020
649,-0.185,0.070
650,-0.180,0.085
651,-0.175,0.070
652,-0.145,0.100
653,-0.150,0.100
654,-0.140,0.110
655,-0.100,0.135
656,-0.120,0.135
657,-0.065,0.165
658,-0.070,0.140
659,-0.040,0.190
660,-0.005,0.235
661,0.025,0.250
662,0.070,0.255
663,0.100,0.305
664,0.150,0.345
665,0.215,0.410
666,0.265,0.460
667,0.340,0.505
668,0.385,0.590
669,0.425,0.645
670,0.460,0.695
671,0.485,0.730
672,0.505,0.750
673,0.510,0.770
674,0.510,0.790
675,0.515,0.845
676,0.505,0.860
677,0.505,0.905
678,0.470,0.895
679,0.390,0.920
680,0.380,0.905
681,0.270,0.895
682,0.195,0.885
683,0.130,0.815
684,0.030,0.760
685,-0.015,0.715
686,-0.055,0.630
687,-0.120,0.565
688,-0.145,0.510
689,-0.185,0.455
690,-0.195,0.405
691,-0.215,0.365
692,-0.240,0.345
693,-0.250,0.300
694,-0.245,0.275
695,-0.250,0.245
696,-0.255,0.210
697,-0.280,0.180
698,-0.280,0.150
699,-0.300,0.125
700,-0.305,0.115
701,-0.315,0.085
702,-0.345,0.060
703,-0.340,0.040
704,-0.340,0.025
705,-0.335,0.005
706,-0.335,-0.005
707,-0.340,-0.010
708,-0.365,-0.030
709,-0.365,-0.030
710,-0.370,-0.060
711,-0.360,-0.050
712,-0.380,-0.080
713,-0.345,-0.055
714,-0.350,-0.065
715,-0.370,-0.045
716,-0.350,-0.075
717,-0.355,-0.075
718,-0.360,-0.080
719,-0.370,-0.080
720,-0.375,-0.090
721,-0.375,-0.105
722,-0.365,-0.070
723,-0.385,-0.080
724,-0.360,-0.100
725,-0.385,-0.085
726,-0.400,-0.090
727,-0.350,-0.085
728,-0.355,-0.095
729,-0.360,-0.120
730,-0.375,-0.075
731,-0.360,-0.115
732,-0.315,-0.090
733,-0.270,-0.075
734,-0.220,0.005
735,-0.195,0.050
736,-0.160,0.085
737,-0.130,0.075
738,-0.150,0.005
739,-0.165,0.010
740,-0.195,-0.055
741,-0.205,-0.125
742,-0.255,-0.155
743,-0.360,-0.100
744,-0.385,-0.110
745,-0.420,-0.155
746,-0.390,-0.145
747,-0.380,-0.145
748,-0.365,-0.145
749,-0.350,-0.130
750,-0.390,-0.155
751,-0.395,-0.135
752,-0.435,-0.115
753,-0.530,-0.130
754,-0.470,-0.140
755,-0.335,-0.285
756,-0.245,-0.605
757,-0.590,-0.640
758,-0.950,-0.545
759,-1.795,0.285
760,-2.500,-0.540
761,-2.945,-2.365
762,-2.745,-2.545
763,-2.390,-2.095
764,-1.790,-1.435
765,-1.005,-0.750
766,-0.505,-0.395
767,-0.280,-0.035
768,-0.200,-0.025
769,-0.175,0.020
770,-0.135,0.025
771,-0.155,0.020
772,-0.130,0.030
773,-0.085,0.040
774,-0.100,0.040
775,-0.045,0.045
776,-0.055,0.045
777,-0.030,0.065
778,0.010,0.090
779,0.035,0.085
780,0.085,0.125
781,0.115,0.160
782,0.145,0.190
783,0.230,0.235
784,0.265,0.255
785,0.355,0.315
786,0.395,0.375
787,0.440,0.425
788,0.485,0.510
789,0.525,0.545
790,0.550,0.590
791,0.595,0.630
792,0.595,0.635
793,0.610,0.685
794,0.615,0.695
795,0.600,0.740
796,0.610,0.775
797,0.600,0.795
798,0.560,0.805
799,0.490,0.815
800,0.435,0.830
801,0.350,0.825
802,0.270,0.785
803,0.195,0.740
804,0.145,0.715
805,0.075,0.680
806,0.050,0.610
807,-0.010,0.530
808,-0.050,0.465
809,-0.050,0.400
810,-0.085,0.360
811,-0.075,0.335
812,-0.110,0.275
813,-0.100,0.255
814,-0.070,0.215
815,-0.110,0.210
816,-0.130,0.150
817,-0.125,0.120
818,-0.140,0.115
819,-0.115,0.080
820,-0.145,0.050
821,-0.175,0.040
822,-0.160,0.010
823,-0.180,-0.010
824,-0.175,-0.010
825,-0.175,-0.025
826,-0.190,-0.035
827,-0.165,-0.070
828,-0.160,-0.050
829,-0.185,-0.080
830,-0.165,-0.070
831,-0.185,-0.095
832,-0.160,-0.090
833,-0.150,-0.075
834,-0.180,-0.060
835,-0.160,-0.075
836,-0.170,-0.105
837,-0.185,-0.110
838,-0.175,-0.105
839,-0.185,-0.115
840,-0.170,-0.115
841,-0.190,-0.100
842,-0.160,-0.100
843,-0.140,-0.135
844,-0.180,-0.125
845,-0.185,-0.125
846,-0.170,-0.120
847,-0.185,-0.120
848,-0.160,-0.125
849,-0.190,-0.110
850,-0.185,-0.125
851,-0.160,-0.110
852,-0.100,-0.120
853,-0.060,-0.040
854,-0.090,-0.005
855,-0.010,0.025
856,0.020,0.080
857,0.015,0.005
858,0.030,-0.025
859,-0.040,-0.045
860,-0.060,-0.085
861,-0.050,-0.125
862,-0.175,-0.105
863,-0.240,-0.095
864,-0.280,-0.130
865,-0.300,-0.175
866,-0.305,-0.140
867,-0.305,-0.165
868,-0.275,-0.170
869,-0.280,-0.145
870,-0.300,-0.155
871,-0.330,-0.150
872,-0.455,-0.165
873,-0.500,-0.145
874,-0.460,-0.200
875,-0.080,-0.410
876,-0.180,-0.545
877,-0.115,-0.575
878,-0.935,0.010
879,-1.985,0.475
880,-2.545,-1.440
881,-2.725,-2.475
882,-2.435,-2.325
883,-2.080,-1.855
884,-1.440,-1.140
885,-0.745,-0.705
886,-0.375,-0.290
887,-0.260,-0.030
888,-0.215,0.000
889,-0.185,0.010
890,-0.165,0.025
891,-0.155,0.030
892,-0.140,0.035
893,-0.160,0.050
894,-0.140,0.075
895,-0.115,0.030
896,-0.105,0.070
897,-0.070,0.070
898,-0.055,0.110
899,-0.035,0.120
900,0.015,0.145
901,0.045,0.170
902,0.085,0.215
903,0.150,0.270
904,0.185,0.290
905,0.255,0.350
906,0.300,0.420
907,0.355,0.505
908,0.395,0.545
909,0.440,0.600
910,0.500,0.655
911,0.485,0.660
912,0.495,0.700
913,0.495,0.720
914,0.490,0.745
915,0.510,0.760
916,0.495,0.790
917,0.475,0.840
918,0.425,0.860
919,0.365,0.900
920,0.305,0.875
921,0.240,0.855
922,0.145,0.795
923,0.080,0.800
924,0.000,0.775
925,-0.075,0.750
926,-0.100,0.685
927,-0.145,0.610
928,-0.190,0.575
929,-0.210,0.500
930,-0.245,0.475
931,-0.220,0.410
932,-0.270,0.375
933,-0.260,0.355
934,-0.265,0.300
935,-0.305,0.280
936,-0.275,0.240
937,-0.280,0.210
938,-0.310,0.195
939,-0.295,0.150
940,-0.340,0.105
941,-0.340,0.120
942,-0.350,0.085
943,-0.365,0.080
944,-0.370,0.045
945,-0.410,0.040
946,-0.385,0.010
947,-0.380,0.035
948,-0.395,0.000
949,-0.400,0.000
950,-0.385,-0.010
951,-0.420,-0.020
952,-0.380,-0.010
953,-0.395,-0.030
954,-0.390,-0.005
955,-0.400,-0.045
956,-0.420,-0.010
957,-0.410,-0.015
958,-0.400,-0.015
959,-0.415,0.000
960,-0.425,0.025
961,-0.430,-0.020
962,-0.420,0.000
963,-0.405,0.000
964,-0.435,0.000
965,-0.440,-0.005
966,-0.435,-0.025
967,-0.435,-0.020
968,-0.435,-0.015
969,-0.435,-0.045
970,-0.440,-0.030
971,-0.435,-0.045
972,-0.440,-0.055
973,-0.410,-0.030
974,-0.340,-0.040
975,-0.340,0.070
976,-0.315,0.100
977,-0.275,0.150
978,-0.220,0.140
979,-0.220,0.095
980,-0.255,0.040
981,-0.315,0.020
982,-0.360,-0.065
983,-0.380,-0.100
984,-0.490,-0.080
985,-0.540,-0.035
986,-0.540,-0.070
987,-0.560,-0.095
988,-0.555,-0.140
989,-0.565,-0.125
990,-0.560,-0.155
991,-0.540,-0.130
992,-0.565,-0.115
993,-0.620,-0.120
994,-0.725,-0.110
995,-0.675,-0.140
996,-0.575,-0.235
997,-0.400,-0.545
998,-0.790,-0.525
999,-1.015,-0.470
1000,-1.810,0.425
1001,-2.585,-0.130
1002,-3.025,-2.300
1003,-2.940,-2.655
1004,-2.615,-2.295
1005,-2.070,-1.565
1006,-1.205,-0.820
1007,-0.645,-0.415
1008,-0.505,0.000
1009,-0.415,0.055
1010,-0.415,0.080
1011,-0.380,0.070
1012,-0.355,0.085
1013,-0.370,0.090
1014,-0.330,0.115
1015,-0.315,0.110
1016,-0.305,0.095
1017,-0.300,0.115
1018,-0.310,0.120
1019,-0.285,0.135
1020,-0.250,0.140
1021,-0.250,0.180
1022,-0.160,0.200
1023,-0.145,0.200
1024,-0.110,0.280
1025,-0.030,0.305
1026,-0.010,0.375
1027,0.045,0.415
1028,0.135,0.490
1029,0.150,0.545
1030,0.225,0.605
1031,0.255,0.640
1032,0.290,0.700
1033,0.310,0.735
1034,0.300,0.750
1035,0.345,0.785
1036,0.340,0.825
1037,0.345,0.865
1038,0.345,0.885
1039,0.305,0.920
1040,0.295,0.940
1041,0.225,0.920
1042,0.140,0.925
1043,0.110,0.910
1044,0.005,0.890
1045,-0.055,0.845
1046,-0.125,0.805
1047,-0.195,0.730
1048,-0.240,0.670
1049,-0.275,0.595
1050,-0.350,0.565
1051,-0.355,0.475
1052,-0.400,0.410
1053,-0.385,0.360
1054,-0.400,0.320
1055,-0.410,0.280
1056,-0.415,0.245
1057,-0.430,0.240
1058,-0.455,0.225
1059,-0.450,0.185
1060,-0.480,0.140
1061,-0.455,0.125
1062,-0.490,0.110
1063,-0.495,0.080
1064,-0.470,0.050
1065,-0.505,0.040
1066,-0.485,0.025
1067,-0.485,0.005
1068,-0.505,0.000
1069,-0.485,-0.015
1070,-0.515,-0.020
1071,-0.500,-0.015
1072,-0.505,-0.035
1073,-0.515,-0.030
1074,-0.490,-0.035
1075,-0.495,-0.050
1076,-0.500,-0.045
1077,-0.480,-0.030
1078,-0.515,-0.035
1079,-0.500,-0.045
1080,-0.485,-0.040
1081,-0.495,-0.060
1082,-0.475,-0.020
1083,-0.475,-0.010
1084,-0.475,-0.040
1085,-0.475,-0.055
1086,-0.490,-0.070
1087,-0.455,-0.035
1088,-0.515,-0.060
1089,-0.510,-0.040
1090,-0.485,-0.075
1091,-0.520,-0.045
1092,-0.485,-0.065
1093,-0.480,-0.050
1094,-0.445,-0.050
1095,-0.365,-0.010
1096,-0.355,0.055
1097,-0.315,0.105
1098,-0.295,0.135
1099,-0.260,0.135
1100,-0.250,0.070
1101,-0.310,0.035
1102,-0.345,-0.005
1103,-0.350,-0.065
1104,-0.420,-0.095
1105,-0.520,-0.060
1106,-0.555,-0.065
1107,-0.570,-0.120
1108,-0.555,-0.150
1109,-0.565,-0.170
1110,-0.560,-0.155
1111,-0.560,-0.140
1112,-0.570,-0.135
1113,-0.560,-0.110
1114,-0.640,-0.105
1115,-0.715,-0.115
1116,-0.660,-0.125
1117,-0.475,-0.345
1118,-0.495,-0.590
1119,-0.875,-0.580
1120,-1.300,-0.290
1121,-2.130,0.395
1122,-2.795,-1.100
1123,-3.065,-2.615
1124,-2.820,-2.465
1125,-2.390,-1.910
1126,-1.695,-1.100
1127,-0.915,-0.615
1128,-0.555,-0.175
1129,-0.440,0.025
1130,-0.410,0.015
1131,-0.360,0.060
1132,-0.335,0.045
1133,-0.295,0.070
1134,-0.300,0.055
1135,-0.325,0.075
1136,-0.300,0.060
1137,-0.315,0.100
1138,-0.275,0.080
1139,-0.255,0.095
1140,-0.245,0.130
1141,-0.205,0.135
1142,-0.175,0.135
1143,-0.140,0.175
1144,-0.080,0.170
1145,-0.055,0.240
1146,0.005,0.290
1147,0.070,0.335
1148,0.120,0.410
1149,0.185,0.435
1150,0.215,0.490
1151,0.280,0.555
1152,0.290,0.635
1153,0.310,0.650
1154,0.335,0.670
1155,0.335,0.680
1156,0.330,0.710
1157,0.355,0.765
1158,0.320,0.775
1159,0.320,0.785
1160,0.295,0.840
1161,0.225,0.830
1162,0.175,0.825
1163,0.080,0.825
1164,0.015,0.795
1165,-0.045,0.775
1166,-0.135,0.710
1167,-0.180,0.660
1168,-0.245,0.595
1169,-0.300,0.525
1170,-0.310,0.420
1171,-0.350,0.375
1172,-0.365,0.335
1173,-0.360,0.275
1174,-0.385,0.245
1175,-0.380,0.205
1176,-0.405,0.175
1177,-0.405,0.155
1178,-0.405,0.135
1179,-0.405,0.090
1180,-0.415,0.070
1181,-0.450,0.030
1182,-0.425,0.020
1183,-0.455,-0.015
1184,-0.470,-0.040
1185,-0.450,-0.025
1186,-0.470,-0.045
1187,-0.485,-0.055
1188,-0.485,-0.065
1189,-0.495,-0.070
1190,-0.470,-0.080
1191,-0.505,-0.095
1192,-0.480,-0.080
1193,-0.500,-0.085
1194,-0.495,-0.095
1195,-0.495,-0.100
1196,-0.475,-0.140
1197,-0.460,-0.125
1198,-0.475,-0.105
1199,-0.485,-0.095
1200,-0.480,-0.135
1201,-0.475,-0.135
1202,-0.480,-0.135
1203,-0.460,-0.130
1204,-0.500,-0.100
1205,-0.500,-0.120
1206,-0.480,-0.120
1207,-0.495,-0.135
1208,-0.480,-0.145
1209,-0.495,-0.135
1210,-0.475,-0.145
1211,-0.480,-0.145
1212,-0.500,-0.140
1213,-0.435,-0.115
1214,-0.400,-0.090
1215,-0.370,-0.015
1216,-0.320,0.010
1217,-0.305,0.075
1218,-0.255,0.075
1219,-0.250,0.000
1220,-0.310,0.000
1221,-0.350,-0.070
1222,-0.415,-0.145
1223,-0.450,-0.150
1224,-0.535,-0.155
1225,-0.580,-0.175
1226,-0.595,-0.205
1227,-0.615,-0.215
1228,-0.600,-0.235
1229,-0.585,-0.185
1230,-0.620,-0.200
1231,-0.595,-0.205
1232,-0.585,-0.235
1233,-0.670,-0.195
1234,-0.750,-0.205
1235,-0.715,-0.225
1236,-0.530,-0.390
1237,-0.485,-0.685
1238,-0.735,-0.670
1239,-1.295,-0.270
1240,-2.270,0.410
1241,-2.855,-1.535
1242,-3.135,-2.790
1243,-2.830,-2.600
1244,-2.390,-2.060
1245,-1.725,-1.275
1246,-0.955,-0.745
1247,-0.570,-0.320
1248,-0.450,-0.110
1249,-0.405,-0.085
1250,-0.400,-0.060
1251,-0.330,-0.065
1252,-0.290,-0.040
1253,-0.345,-0.045
1254,-0.295,-0.015
1255,-0.315,-0.040
1256,-0.310,-0.025
1257,-0.270,-0.025
1258,-0.255,-0.035
1259,-0.230,-0.035
1260,-0.185,-0.020
1261,-0.135,0.000
1262,-0.075,0.070
1263,-0.070,0.100
1264,0.040,0.140
1265,0.050,0.185
1266,0.115,0.260
1267,0.175,0.305
1268,0.215,0.395
1269,0.245,0.450
1270,0.315,0.495
1271,0.320,0.550
1272,0.355,0.555
1273,0.335,0.585
1274,0.340,0.600
1275,0.350,0.635
1276,0.365,0.645
1277,0.335,0.700
1278,0.325,0.695
1279,0.240,0.735
1280,0.215,0.720
1281,0.125,0.685
1282,0.095,0.695
1283,-0.015,0.660
1284,-0.095,0.620
1285,-0.120,0.590
1286,-0.225,0.500
1287,-0.255,0.445
1288,-0.265,0.390
1289,-0.300,0.320
1290,-0.320,0.260
1291,-0.365,0.205
1292,-0.350,0.160
1293,-0.355,0.110
1294,-0.380,0.080
1295,-0.370,0.060
1296,-0.365,0.065
1297,-0.390,0.045
1298,-0.385,0.000
1299,-0.430,-0.035
1300,-0.395,-0.040
1301,-0.410,-0.075
1302,-0.430,-0.075
1303,-0.400,-0.080
1304,-0.425,-0.120
1305,-0.430,-0.130
1306,-0.430,-0.135
1307,-0.465,-0.155
1308,-0.445,-0.135
1309,-0.460,-0.145
1310,-0.445,-0.145
1311,-0.445,-0.155
1312,-0.465,-0.155
1313,-0.440,-0.145
1314,-0.450,-0.155
1315,-0.450,-0.145
1316,-0.450,-0.165
1317,-0.470,-0.150
1318,-0.455,-0.155
1319,-0.465,-0.140
1320,-0.475,-0.155
1321,-0.465,-0.120
1322,-0.470,-0.130
1323,-0.465,-0.100
1324,-0.490,-0.120
1325,-0.490,-0.125
1326,-0.490,-0.145
1327,-0.465,-0.130
1328,-0.470,-0.100
1329,-0.475,-0.100
1330,-0.465,-0.115
1331,-0.445,-0.095
1332,-0.380,-0.080
1333,-0.345,0.000
1334,-0.320,0.020
1335,-0.300,0.060
1336,-0.250,0.100
1337,-0.240,-0.015
1338,-0.280,-0.005
1339,-0.315,-0.050
1340,-0.350,-0.095
1341,-0.375,-0.155
1342,-0.485,-0.140
1343,-0.570,-0.120
1344,-0.555,-0.145
1345,-0.630,-0.180
1346,-0.605,-0.175
1347,-0.580,-0.185
1348,-0.600,-0.140
1349,-0.590,-0.135
1350,-0.605,-0.185
1351,-0.650,-0.160
1352,-0.740,-0.175
1353,-0.750,-0.165
1354,-0.665,-0.255
1355,-0.410,-0.575
1356,-0.705,-0.585
1357,-0.890,-0.560
1358,-1.610,0.225
1359,-2.470,0.100
1360,-2.940,-2.090
1361,-2.985,-2.665
1362,-2.675,-2.315
1363,-2.245,-1.720
1364,-1.505,-1.005
1365,-0.825,-0.590
1366,-0.620,-0.125
1367,-0.530,-0.050
1368,-0.465,-0.015
1369,-0.440,-0.010
1370,-0.425,0.010
1371,-0.440,0.010
1372,-0.405,0.040
1373,-0.425,0.050
1374,-0.390,0.065
1375,-0.380,0.065
1376,-0.365,0.070
1377,-0.345,0.085
1378,-0.315,0.085
1379,-0.275,0.110
1380,-0.210,0.135
1381,-0.210,0.185
1382,-0.135,0.205
1383,-0.085,0.285
1384,-0.035,0.320
1385,0.030,0.420
1386,0.105,0.485
1387,0.140,0.520
1388,0.180,0.595
1389,0.210,0.605
1390,0.235,0.640
1391,0.230,0.680
1392,0.235,0.705
1393,0.275,0.720
1394,0.250,0.770
1395,0.245,0.810
1396,0.225,0.825
1397,0.190,0.840
1398,0.160,0.860
1399,0.065,0.850
1400,-0.010,0.835
1401,-0.075,0.820
1402,-0.170,0.760
1403,-0.220,0.730
1404,-0.320,0.680
1405,-0.350,0.605
1406,-0.390,0.540
1407,-0.435,0.465
1408,-0.440,0.400
1409,-0.465,0.305
1410,-0.515,0.295
1411,-0.480,0.270
1412,-0.500,0.235
1413,-0.535,0.230
1414,-0.530,0.200
1415,-0.565,0.170
1416,-0.550,0.115
1417,-0.565,0.105
1418,-0.570,0.080
1419,-0.530,0.035
1420,-0.570,0.030
1421,-0.575,0.015
1422,-0.570,-0.015
1423,-0.605,-0.010
1424,-0.565,-0.015
1425,-0.595,-0.045
1426,-0.600,-0.035
1427,-0.605,-0.050
1428,-0.610,-0.065
1429,-0.595,-0.055
1430,-0.590,-0.090
1431,-0.590,-0.100
1432,-0.565,-0.050
1433,-0.610,-0.070
1434,-0.590,-0.065
1435,-0.585,-0.090
1436,-0.580,-0.060
1437,-0.590,-0.065
1438,-0.610,-0.075
1439,-0.565,-0.075
1440,-0.585,-0.095
1441,-0.600,-0.110
1442,-0.580,-0.085
1443,-0.595,-0.120
1444,-0.580,-0.095
1445,-0.565,-0.105
1446,-0.570,-0.105
1447,-0.575,-0.110
1448,-0.575,-0.090
1449,-0.580,-0.115
1450,-0.570,-0.100
1451,-0.525,-0.085
1452,-0.435,-0.025
1453,-0.425,0.025
1454,-0.375,0.070
1455,-0.355,0.065
1456,-0.350,0.010
1457,-0.360,-0.010
1458,-0.405,-0.040
1459,-0.425,-0.075
1460,-0.450,-0.155
1461,-0.565,-0.145
1462,-0.625,-0.105
1463,-0.645,-0.155
1464,-0.655,-0.145
1465,-0.630,-0.155
1466,-0.630,-0.170
1467,-0.630,-0.170
1468,-0.640,-0.160
1469,-0.635,-0.195
1470,-0.640,-0.160
1471,-0.770,-0.175
1472,-0.730,-0.180
1473,-0.710,-0.300
1474,-0.440,-0.605
1475,-0.795,-0.570
1476,-0.995,-0.600
1477,-1.665,0.265
1478,-2.475,0.135
1479,-3.025,-2.075
1480,-3.085,-2.735
1481,-2.770,-2.400
1482,-2.295,-1.790
1483,-1.475,-1.035
1484,-0.830,-0.540
1485,-0.590,-0.105
1486,-0.510,-0.015
1487,-0.475,0.000
1488,-0.440,0.020
1489,-0.425,0.010
1490,-0.440,0.020
1491,-0.405,0.035
1492,-0.405,0.035
1493,-0.405,0.020
1494,-0.380,0.035
1495,-0.410,0.055
1496,-0.355,0.055
1497,-0.325,0.090
1498,-0.305,0.100
1499,-0.260,0.125
1500,-0.230,0.130
1501,-0.160,0.190
1502,-0.120,0.230
1503,-0.065,0.305
1504,0.015,0.350
1505,0.055,0.410
1506,0.110,0.460
1507,0.165,0.510
1508,0.210,0.585
1509,0.230,0.635
1510,0.250,0.650
1511,0.245,0.675
1512,0.250,0.705
1513,0.245,0.725
1514,0.260,0.765
1515,0.245,0.775
1516,0.230,0.825
1517,0.180,0.815
1518,0.095,0.815
1519,0.030,0.775
1520,-0.035,0.775
1521,-0.110,0.740
1522,-0.165,0.695
1523,-0.235,0.640
1524,-0.300,0.560
1525,-0.360,0.470
1526,-0.410,0.390
1527,-0.435,0.335
1528,-0.450,0.265
1529,-0.470,0.250
1530,-0.490,0.230
1531,-0.500,0.180
1532,-0.495,0.145
1533,-0.505,0.125
1534,-0.540,0.085
1535,-0.525,0.095
1536,-0.530,0.040
1537,-0.555,0.000
1538,-0.555,0.010
1539,-0.580,-0.035
1540,-0.570,-0.070
1541,-0.560,-0.070
1542,-0.580,-0.075
1543,-0.585,-0.105
1544,-0.605,-0.115
1545,-0.595,-0.135
1546,-0.595,-0.145
1547,-0.615,-0.155
1548,-0.585,-0.160
1549,-0.580,-0.175
1550,-0.585,-0.160
1551,-0.575,-0.175
1552,-0.585,-0.165
1553,-0.580,-0.175
1554,-0.595,-0.160
1555,-0.585,-0.140
1556,-0.575,-0.120
1557,-0.580,-0.160
1558,-0.580,-0.125
1559,-0.565,-0.185
1560,-0.570,-0.155
1561,-0.555,-0.145
1562,-0.570,-0.150
1563,-0.560,-0.160
1564,-0.565,-0.140
1565,-0.575,-0.165
1566,-0.550,-0.165
1567,-0.560,-0.165
1568,-0.555,-0.165
1569,-0.515,-0.135
1570,-0.480,-0.160
1571,-0.425,-0.085
1572,-0.430,-0.035
1573,-0.390,-0.015
1574,-0.345,0.010
1575,-0.330,-0.040
1576,-0.330,-0.075
1577,-0.385,-0.100
1578,-0.435,-0.200
1579,-0.435,-0.235
1580,-0.560,-0.225
1581,-0.615,-0.190
1582,-0.620,-0.230
1583,-0.615,-0.255
1584,-0.605,-0.280
1585,-0.630,-0.290
1586,-0.620,-0.295
1587,-0.600,-0.265
1588,-0.600,-0.285
1589,-0.615,-0.280
1590,-0.705,-0.255
1591,-0.720,-0.280
1592,-0.690,-0.385
1593,-0.420,-0.640
1594,-0.605,-0.695
1595,-0.780,-0.705
1596,-1.490,0.015
1597,-2.340,0.195
1598,-2.885,-1.940
1599,-3.115,-2.815
1600,-2.755,-2.510
1601,-2.385,-2.035
1602,-1.740,-1.290
1603,-0.965,-0.770
1604,-0.610,-0.375
1605,-0.455,-0.165
1606,-0.400,-0.125
1607,-0.375,-0.090
1608,-0.340,-0.095
1609,-0.375,-0.095
1610,-0.350,-0.105
1611,-0.330,-0.090
1612,-0.345,-0.110
1613,-0.290,-0.085
1614,-0.280,-0.065
1615,-0.285,-0.085
1616,-0.240,-0.080
1617,-0.240,-0.080
1618,-0.200,-0.045
1619,-0.135,-0.010
1620,-0.110,0.035
1621,-0.030,0.065
1622,0.010,0.090
1623,0.070,0.120
1624,0.120,0.205
1625,0.170,0.250
1626,0.210,0.300
1627,0.265,0.365
1628,0.315,0.430
1629,0.335,0.440
1630,0.335,0.455
1631,0.335,0.510
1632,0.330,0.520
1633,0.370,0.545
1634,0.360,0.605
1635,0.345,0.640
1636,0.315,0.670
1637,0.250,0.660
1638,0.180,0.665
1639,0.125,0.620
1640,0.020,0.615
1641,-0.055,0.610
1642,-0.120,0.565
1643,-0.170,0.515
1644,-0.250,0.425
1645,-0.275,0.365
1646,-0.345,0.275
1647,-0.310,0.215
1648,-0.365,0.160
1649,-0.355,0.110
1650,-0.355,0.085
1651,-0.390,0.045
1652,-0.360,-0.010
1653,-0.395,-0.005
1654,-0.395,-0.050
1655,-0.400,-0.080
1656,-0.425,-0.105
1657,-0.450,-0.100
1658,-0.410,-0.160
1659,-0.465,-0.145
1660,-0.430,-0.180
1661,-0.480,-0.175
1662,-0.465,-0.210
1663,-0.460,-0.235
1664,-0.500,-0.240
1665,-0.480,-0.255
1666,-0.465,-0.265
1667,-0.475,-0.260
1668,-0.465,-0.255
1669,-0.500,-0.285
1670,-0.495,-0.290
1671,-0.470,-0.280
1672,-0.490,-0.285
1673,-0.450,-0.295
1674,-0.465,-0.285
1675,-0.475,-0.300
1676,-0.425,-0.300
1677,-0.475,-0.295
1678,-0.455,-0.280
1679,-0.435,-0.285
1680,-0.475,-0.290
1681,-0.440,-0.290
1682,-0.460,-0.300
1683,-0.465,-0.295
1684,-0.445,-0.265
1685,-0.450,-0.285
1686,-0.445,-0.260
1687,-0.445,-0.250
1688,-0.450,-0.265
1689,-0.415,-0.230
1690,-0.365,-0.210
1691,-0.310,-0.150
1692,-0.290,-0.100
1693,-0.245,-0.065
1694,-0.200,-0.055
1695,-0.215,-0.120
1696,-0.235,-0.150
1697,-0.275,-0.160
1698,-0.285,-0.210
1699,-0.320,-0.255
1700,-0.430,-0.235
1701,-0.490,-0.210
1702,-0.520,-0.275
1703,-0.545,-0.285
1704,-0.490,-0.295
1705,-0.495,-0.280
1706,-0.485,-0.265
1707,-0.515,-0.265
1708,-0.545,-0.290
1709,-0.530,-0.290
1710,-0.665,-0.275
1711,-0.640,-0.280
1712,-0.595,-0.385
1713,-0.325,-0.705
1714,-0.480,-0.650
1715,-0.625,-0.555
1716,-1.495,0.335
1717,-2.325,-0.135
1718,-2.795,-2.190
1719,-2.755,-2.665
1720,-2.450,-2.305
1721,-1.965,-1.670
1722,-1.250,-0.975
1723,-0.695,-0.575
1724,-0.485,-0.195
1725,-0.395,-0.080
1726,-0.380,-0.085
1727,-0.325,-0.060
1728,-0.310,-0.050
1729,-0.315,-0.040
1730,-0.300,-0.055
1731,-0.310,-0.005
1732,-0.295,-0.030
1733,-0.285,-0.010
1734,-0.265,-0.015
1735,-0.215,-0.005
1736,-0.215,0.030
1737,-0.190,0.060
1738,-0.130,0.090
1739,-0.095,0.115
1740,-0.045,0.150
1741,0.010,0.180
1742,0.050,0.265
1743,0.125,0.300
1744,0.195,0.360
1745,0.215,0.435
1746,0.285,0.500
1747,0.265,0.535
1748,0.305,0.575
1749,0.310,0.585
1750,0.310,0.625
1751,0.340,0.635
1752,0.330,0.665
1753,0.335,0.685
1754,0.310,0.720
1755,0.265,0.750
1756,0.215,0.740
1757,0.155,0.730
1758,0.065,0.750
1759,-0.015,0.725
1760,-0.130,0.705
1761,-0.160,0.635
1762,-0.240,0.600
1763,-0.295,0.545
1764,-0.340,0.485
1765,-0.375,0.380
1766,-0.405,0.355
1767,-0.435,0.305
1768,-0.450,0.225
1769,-0.445,0.195
1770,-0.460,0.180
1771,-0.460,0.155
1772,-0.495,0.130
1773,-0.490,0.080
1774,-0.520,0.055
1775,-0.520,0.025
1776,-0.525,0.005
1777,-0.545,0.000
1778,-0.560,-0.025
1779,-0.560,-0.065
1780,-0.570,-0.080
1781,-0.560,-0.080
1782,-0.550,-0.115
1783,-0.595,-0.110
1784,-0.575,-0.125
1785,-0.615,-0.110
1786,-0.605,-0.125
1787,-0.610,-0.120
1788,-0.615,-0.110
1789,-0.610,-0.130
1790,-0.615,-0.120
1791,-0.620,-0.120
1792,-0.620,-0.130
1793,-0.625,-0.135
1794,-0.635,-0.125
1795,-0.605,-0.130
1796,-0.635,-0.125
1797,-0.615,-0.150
1798,-0.620,-0.130
1799,-0.630,-0.110
1800,-0.650,-0.140
1801,-0.625,-0.140
1802,-0.615,-0.140
1803,-0.610,-0.120
1804,-0.625,-0.105
1805,-0.630,-0.115
1806,-0.635,-0.130
1807,-0.615,-0.135
1808,-0.585,-0.125
1809,-0.530,-0.105
1810,-0.465,-0.050
1811,-0.450,0.000
1812,-0.425,0.040
1813,-0.370,0.095
1814,-0.365,0.055
1815,-0.340,0.025
1816,-0.390,0.000
1817,-0.425,-0.070
1818,-0.435,-0.150
1819,-0.520,-0.140
1820,-0.605,-0.100
1821,-0.640,-0.115
1822,-0.655,-0.140
1823,-0.620,-0.155
1824,-0.630,-0.150
1825,-0.630,-0.155
1826,-0.610,-0.150
1827,-0.620,-0.155
1828,-0.640,-0.150
1829,-0.730,-0.155
1830,-0.725,-0.155
1831,-0.705,-0.255
1832,-0.450,-0.540
1833,-0.725,-0.535
1834,-0.910,-0.590
1835,-1.575,0.215
1836,-2.450,0.210
1837,-2.990,-2.070
1838,-3.045,-2.725
1839,-2.725,-2.345
1840,-2.210,-1.745
1841,-1.415,-0.940
1842,-0.780,-0.480
1843,-0.550,-0.085
1844,-0.495,0.005
1845,-0.460,0.025
1846,-0.425,0.030
1847,-0.415,0.010
1848,-0.400,0.035
1849,-0.390,0.045
1850,-0.380,0.060
1851,-0.370,0.045
1852,-0.355,0.055
1853,-0.330,0.045
1854,-0.330,0.055
1855,-0.300,0.070
1856,-0.260,0.110
1857,-0.230,0.135
1858,-0.195,0.165
1859,-0.125,0.195
1860,-0.075,0.210
1861,-0.030,0.305
1862,0.020,0.320
1863,0.080,0.410
1864,0.165,0.450
1865,0.175,0.510
1866,0.230,0.565
1867,0.255,0.595
1868,0.260,0.645
1869,0.290,0.675
1870,0.295,0.695
1871,0.280,0.705
1872,0.305,0.755
1873,0.280,0.800
1874,0.290,0.825
1875,0.230,0.815
1876,0.160,0.820
1877,0.090,0.770
1878,0.000,0.755
1879,-0.075,0.730
1880,-0.130,0.700
1881,-0.185,0.650
1882,-0.260,0.590
1883,-0.330,0.495
1884,-0.365,0.425
1885,-0.380,0.360
1886,-0.440,0.275
1887,-0.435,0.205
1888,-0.470,0.190
1889,-0.465,0.140
1890,-0.480,0.115
1891,-0.490,0.075
1892,-0.505,0.065
1893,-0.515,0.035
1894,-0.510,0.025
1895,-0.520,0.010
1896,-0.530,-0.015
1897,-0.545,-0.030
1898,-0.555,-0.085
1899,-0.540,-0.065
1900,-0.565,-0.080
1901,-0.585,-0.110
1902,-0.585,-0.135
1903,-0.600,-0.150
1904,-0.575,-0.140
1905,-0.565,-0.155
1906,-0.590,-0.155
1907,-0.585,-0.150
1908,-0.600,-0.165
1909,-0.605,-0.165
1910,-0.580,-0.160
1911,-0.595,-0.165
1912,-0.600,-0.180
1913,-0.595,-0.150
1914,-0.580,-0.155
1915,-0.580,-0.140
1916,-0.605,-0.155
1917,-0.585,-0.150
1918,-0.585,-0.160
1919,-0.580,-0.155
1920,-0.580,-0.160
1921,-0.585,-0.175
1922,-0.595,-0.165
1923,-0.595,-0.165
1924,-0.570,-0.150
1925,-0.555,-0.160
1926,-0.570,-0.150
1927,-0.560,-0.155
1928,-0.510,-0.120
1929,-0.460,-0.075
1930,-0.445,-0.010
1931,-0.400,0.025
1932,-0.390,0.060
1933,-0.345,0.020
1934,-0.340,-0.030
1935,-0.375,-0.035
1936,-0.410,-0.110
1937,-0.430,-0.160
1938,-0.480,-0.170
1939,-0.575,-0.115
1940,-0.625,-0.155
1941,-0.610,-0.180
1942,-0.635,-0.180
1943,-0.590,-0.180
1944,-0.590,-0.200
1945,-0.595,-0.190
1946,-0.570,-0.175
1947,-0.585,-0.175
1948,-0.665,-0.160
1949,-0.690,-0.155
1950,-0.665,-0.230
1951,-0.525,-0.460
1952,-0.620,-0.620
1953,-0.920,-0.625
1954,-1.445,-0.025
1955,-2.300,0.215
1956,-2.825,-1.815
1957,-3.060,-2.720
1958,-2.775,-2.420
1959,-2.350,-1.845
1960,-1.665,-1.075
1961,-0.885,-0.605
1962,-0.575,-0.155
1963,-0.455,0.000
1964,-0.395,0.045
1965,-0.390,0.045
1966,-0.345,0.060
1967,-0.345,0.035
1968,-0.340,0.075
1969,-0.300,0.085
1970,-0.325,0.085
1971,-0.295,0.060
1972,-0.285,0.085
1973,-0.265,0.070
1974,-0.245,0.105
1975,-0.195,0.110
1976,-0.185,0.165
1977,-0.115,0.190
1978,-0.070,0.210
1979,-0.045,0.260
1980,0.035,0.290
1981,0.075,0.375
1982,0.115,0.440
1983,0.205,0.480
1984,0.230,0.520
1985,0.285,0.570
1986,0.285,0.635
1987,0.335,0.670
1988,0.355,0.675
1989,0.345,0.710
1990,0.355,0.720
1991,0.350,0.765
1992,0.330,0.770
1993,0.330,0.830
1994,0.285,0.835
1995,0.250,0.845
1996,0.165,0.820
1997,0.100,0.800
1998,0.010,0.785
1999,-0.085,0.720
2000,-0.130,0.685
2001,-0.195,0.610
2002,-0.260,0.555
2003,-0.285,0.485
2004,-0.325,0.375
2005,-0.350,0.320
2006,-0.360,0.270
2007,-0.390,0.225
2008,-0.390,0.175
2009,-0.430,0.140
2010,-0.390,0.120
2011,-0.430,0.075
2012,-0.445,0.045
2013,-0.435,0.040
2014,-0.455,0.025
2015,-0.470,-0.025
2016,-0.470,-0.035
2017,-0.485,-0.080
2018,-0.480,-0.100
2019,-0.495,-0.095
2020,-0.495,-0.115
2021,-0.495,-0.130
2022,-0.515,-0.165
2023,-0.530,-0.150
2024,-0.510,-0.140
2025,-0.505,-0.140
2026,-0.505,-0.140
2027,-0.525,-0.205
2028,-0.515,-0.200
2029,-0.510,-0.185
2030,-0.540,-0.180
2031,-0.500,-0.175
2032,-0.510,-0.195
2033,-0.510,-0.190
2034,-0.505,-0.225
2035,-0.515,-0.185
2036,-0.515,-0.220
2037,-0.495,-0.200
2038,-0.505,-0.205
2039,-0.505,-0.205
2040,-0.495,-0.210
2041,-0.525,-0.215
2042,-0.515,-0.205
2043,-0.530,-0.210
2044,-0.525,-0.210
2045,-0.525,-0.200
2046,-0.530,-0.205
2047,-0.445,-0.170
2048,-0.435,-0.090
2049,-0.400,-0.080
2050,-0.345,-0.065
2051,-0.340,-0.030
2052,-0.285,-0.085
2053,-0.290,-0.120
2054,-0.335,-0.150
2055,-0.345,-0.205
2056,-0.380,-0.240
2057,-0.460,-0.260
2058,-0.505,-0.235
2059,-0.535,-0.245
2060,-0.550,-0.265
2061,-0.560,-0.305
2062,-0.550,-0.305
2063,-0.515,-0.300
2064,-0.520,-0.295
2065,-0.505,-0.285
2066,-0.510,-0.300
2067,-0.625,-0.265
2068,-0.625,-0.280
2069,-0.655,-0.335
2070,-0.415,-0.630
2071,-0.465,-0.715
2072,-0.605,-0.770
2073,-1.305,-0.125
2074,-2.260,0.125
2075,-2.850,-1.925
2076,-2.900,-2.655
2077,-2.560,-2.315
2078,-2.090,-1.760
2079,-1.395,-1.040
2080,-0.755,-0.650
2081,-0.475,-0.260
2082,-0.375,-0.160
2083,-0.320,-0.135
2084,-0.310,-0.115
2085,-0.300,-0.125
2086,-0.270,-0.120
2087,-0.265,-0.130
2088,-0.260,-0.120
2089,-0.220,-0.120
2090,-0.240,-0.105
2091,-0.200,-0.095
2092,-0.195,-0.120
2093,-0.150,-0.115
2094,-0.105,-0.055
2095,-0.075,-0.035
2096,0.000,-0.015
2097,0.050,0.020
2098,0.100,0.050
2099,0.180,0.105
2100,0.225,0.155
2101,0.295,0.195
2102,0.365,0.265
2103,0.405,0.335
2104,0.450,0.395
2105,0.485,0.430
2106,0.490,0.460
2107,0.500,0.485
2108,0.490,0.515
2109,0.510,0.530
2110,0.500,0.535
2111,0.500,0.620
2112,0.470,0.655
2113,0.435,0.615
2114,0.370,0.600
2115,0.275,0.625
2116,0.195,0.610
2117,0.105,0.585
2118,0.050,0.525
2119,-0.010,0.500
2120,-0.060,0.425
2121,-0.140,0.375
2122,-0.155,0.290
2123,-0.195,0.230
2124,-0.215,0.165
2125,-0.205,0.125
2126,-0.235,0.085
2127,-0.250,0.065
2128,-0.260,0.015
2129,-0.255,-0.020
2130,-0.240,-0.035
2131,-0.290,-0.060
2132,-0.275,-0.070
2133,-0.315,-0.100
2134,-0.340,-0.120
2135,-0.370,-0.155
2136,-0.355,-0.180
2137,-0.355,-0.200
2138,-0.355,-0.195
2139,-0.380,-0.230
2140,-0.400,-0.235
2141,-0.405,-0.220
2142,-0.420,-0.235
2143,-0.390,-0.245
2144,-0.415,-0.245
2145,-0.420,-0.240
2146,-0.415,-0.245
2147,-0.430,-0.235
2148,-0.425,-0.240
2149,-0.430,-0.260
2150,-0.420,-0.260
2151,-0.425,-0.250
2152,-0.445,-0.225
2153,-0.455,-0.245
2154,-0.435,-0.260
2155,-0.455,-0.240
2156,-0.425,-0.210
2157,-0.450,-0.220
2158,-0.415,-0.230
2159,-0.465,-0.215
2160,-0.455,-0.245
2161,-0.425,-0.225
2162,-0.435,-0.220
2163,-0.445,-0.225
2164,-0.430,-0.210
2165,-0.430,-0.220
2166,-0.355,-0.205
2167,-0.335,-0.145
2168,-0.305,-0.060
2169,-0.270,-0.005
2170,-0.255,-0.010
2171,-0.230,-0.085
2172,-0.265,-0.100
2173,-0.320,-0.175
2174,-0.310,-0.215
2175,-0.335,-0.280
2176,-0.460,-0.200
2177,-0.515,-0.195
2178,-0.540,-0.245
2179,-0.510,-0.290
2180,-0.550,-0.270
2181,-0.525,-0.295
2182,-0.525,-0.275
2183,-0.515,-0.250
2184,-0.505,-0.265
2185,-0.545,-0.270
2186,-0.670,-0.235
2187,-0.640,-0.260
2188,-0.565,-0.380
2189,-0.340,-0.665
2190,-0.650,-0.595
2191,-0.935,-0.535
2192,-1.725,0.350
2193,-2.555,-0.490
2194,-2.980,-2.550
2195,-2.870,-2.740
2196,-2.580,-2.280
2197,-2.000,-1.600
2198,-1.215,-0.925
2199,-0.635,-0.510
2200,-0.440,-0.130
2201,-0.370,-0.050
2202,-0.330,-0.040
2203,-0.320,-0.025
2204,-0.315,-0.025
2205,-0.305,0.000
2206,-0.275,0.000
2207,-0.290,0.005
2208,-0.260,0.000
2209,-0.250,0.015
2210,-0.205,0.025
2211,-0.205,0.040
2212,-0.185,0.055
2213,-0.140,0.060
2214,-0.100,0.120
2215,-0.020,0.140
2216,0.005,0.190
2217,0.045,0.240
2218,0.125,0.305
2219,0.155,0.350
2220,0.240,0.430
2221,0.295,0.500
2222,0.330,0.565
2223,0.385,0.565
2224,0.395,0.570
2225,0.395,0.610
2226,0.425,0.640
2227,0.425,0.665
2228,0.430,0.730
2229,0.440,0.755
2230,0.410,0.785
2231,0.395,0.790
2232,0.325,0.790
2233,0.265,0.795
2234,0.190,0.770
2235,0.090,0.750
2236,0.015,0.750
2237,-0.055,0.675
2238,-0.150,0.605
2239,-0.190,0.565
2240,-0.210,0.440
2241,-0.240,0.410
2242,-0.275,0.295
2243,-0.330,0.245
2244,-0.340,0.180
2245,-0.360,0.175
2246,-0.375,0.155
2247,-0.375,0.140
2248,-0.375,0.085
2249,-0.390,0.065
2250,-0.390,0.045
2251,-0.400,0.005
2252,-0.420,-0.005
2253,-0.420,-0.020
2254,-0.410,-0.055
2255,-0.440,-0.070
2256,-0.460,-0.105
2257,-0.445,-0.125
2258,-0.460,-0.120
2259,-0.460,-0.115
2260,-0.475,-0.155
2261,-0.470,-0.155
2262,-0.470,-0.165
2263,-0.475,-0.165
2264,-0.475,-0.170
2265,-0.495,-0.195
2266,-0.480,-0.200
2267,-0.475,-0.220
2268,-0.515,-0.205
2269,-0.510,-0.205
2270,-0.510,-0.205
2271,-0.505,-0.175
2272,-0.495,-0.190
2273,-0.525,-0.200
2274,-0.520,-0.195
2275,-0.505,-0.190
2276,-0.550,-0.200
2277,-0.510,-0.210
2278,-0.525,-0.200
2279,-0.495,-0.205
2280,-0.490,-0.195
2281,-0.515,-0.215
2282,-0.495,-0.220
2283,-0.465,-0.185
2284,-0.415,-0.200
2285,-0.350,-0.100
2286,-0.375,-0.055
2287,-0.315,-0.005
2288,-0.285,-0.025
2289,-0.300,-0.090
2290,-0.310,-0.090
2291,-0.360,-0.160
2292,-0.385,-0.225
2293,-0.445,-0.265
2294,-0.515,-0.240
2295,-0.570,-0.210
2296,-0.575,-0.260
2297,-0.595,-0.275
2298,-0.600,-0.300
2299,-0.590,-0.295
2300,-0.555,-0.255
2301,-0.570,-0.305
2302,-0.580,-0.275
2303,-0.585,-0.265
2304,-0.700,-0.280
2305,-0.685,-0.275
2306,-0.665,-0.345
2307,-0.420,-0.685
2308,-0.715,-0.675
2309,-0.935,-0.750
2310,-1.615,0.045
2311,-2.435,-0.220
2312,-2.995,-2.310
2313,-3.025,-2.855
2314,-2.735,-2.485
2315,-2.305,-1.900
2316,-1.580,-1.125
2317,-0.835,-0.680
2318,-0.535,-0.220
2319,-0.425,-0.085
2320,-0.410,-0.055
2321,-0.365,-0.050
2322,-0.340,-0.040
2323,-0.350,-0.045
2324,-0.315,-0.010
2325,-0.320,-0.010
2326,-0.290,0.015
2327,-0.275,0.005
2328,-0.300,0.015
2329,-0.260,0.030
2330,-0.225,0.070
2331,-0.210,0.070
2332,-0.140,0.100
2333,-0.115,0.125
2334,-0.075,0.155
2335,-0.005,0.210
2336,0.020,0.270
2337,0.100,0.320
2338,0.170,0.405
2339,0.220,0.455
2340,0.270,0.530
2341,0.305,0.575
2342,0.345,0.625
2343,0.350,0.630
2344,0.385,0.645
2345,0.395,0.710
2346,0.410,0.715
2347,0.395,0.755
2348,0.390,0.765
2349,0.365,0.760
2350,0.345,0.800
2351,0.290,0.830
2352,0.190,0.755
2353,0.100,0.765
2354,0.005,0.730
2355,-0.060,0.695
2356,-0.115,0.640
2357,-0.190,0.570
2358,-0.240,0.495
2359,-0.275,0.415
2360,-0.320,0.365
2361,-0.340,0.320
2362,-0.345,0.235
2363,-0.355,0.220
2364,-0.380,0.190
2365,-0.385,0.160
2366,-0.370,0.120
2367,-0.415,0.090
2368,-0.430,0.055
2369,-0.425,0.030
2370,-0.440,0.015
2371,-0.455,0.020
2372,-0.450,-0.010
2373,-0.470,-0.040
2374,-0.465,-0.075
2375,-0.490,-0.105
2376,-0.475,-0.110
2377,-0.495,-0.115
2378,-0.475,-0.130
2379,-0.480,-0.130
2380,-0.510,-0.140
2381,-0.500,-0.140
2382,-0.480,-0.175
2383,-0.525,-0.190
2384,-0.485,-0.170
2385,-0.500,-0.165
2386,-0.510,-0.150
2387,-0.510,-0.175
2388,-0.520,-0.165
2389,-0.495,-0.190
2390,-0.510,-0.185
2391,-0.510,-0.185
2392,-0.515,-0.185
2393,-0.530,-0.215
2394,-0.540,-0.205
2395,-0.535,-0.220
2396,-0.535,-0.195
2397,-0.520,-0.210
2398,-0.535,-0.200
2399,-0.530,-0.195
2400,-0.510,-0.215
2401,-0.525,-0.220
2402,-0.515,-0.210
2403,-0.485,-0.210
2404,-0.440,-0.170
2405,-0.390,-0.075
2406,-0.390,-0.055
2407,-0.340,-0.010
2408,-0.305,-0.070
2409,-0.325,-0.110
2410,-0.355,-0.100
2411,-0.410,-0.180
2412,-0.400,-0.220
2413,-0.490,-0.240
2414,-0.595,-0.210
2415,-0.595,-0.215
2416,-0.610,-0.250
2417,-0.615,-0.270
2418,-0.600,-0.275
2419,-0.620,-0.300
2420,-0.580,-0.265
2421,-0.600,-0.290
2422,-0.615,-0.285
2423,-0.655,-0.240
2424,-0.725,-0.240
2425,-0.680,-0.335
2426,-0.505,-0.565
2427,-0.600,-0.735
2428,-0.865,-0.775
2429,-1.275,-0.355
2430,-2.085,0.305
2431,-2.755,-1.410
2432,-3.200,-2.845
2433,-2.880,-2.685
2434,-2.530,-2.190
2435,-1.850,-1.380
2436,-1.030,-0.765
2437,-0.610,-0.340
2438,-0.480,-0.130
2439,-0.410,-0.090
2440,-0.410,-0.100
2441,-0.360,-0.090
2442,-0.335,-0.075
2443,-0.325,-0.090
2444,-0.330,-0.075
2445,-0.345,-0.075
2446,-0.310,-0.060
2447,-0.310,-0.050
2448,-0.280,-0.040
2449,-0.240,-0.010
2450,-0.200,-0.025
2451,-0.160,0.015
2452,-0.110,0.030
2453,-0.090,0.065
2454,-0.025,0.105
2455,0.000,0.130
2456,0.085,0.235
2457,0.140,0.245
2458,0.205,0.305
2459,0.245,0.395
2460,0.320,0.435
2461,0.330,0.460
2462,0.380,0.510
2463,0.390,0.535
2464,0.365,0.580
2465,0.415,0.610
2466,0.375,0.640
2467,0.385,0.670
2468,0.385,0.700
2469,0.330,0.715
2470,0.265,0.700
2471,0.200,0.695
2472,0.100,0.665
2473,0.050,0.645
2474,-0.045,0.615
2475,-0.095,0.570
2476,-0.160,0.470
2477,-0.190,0.415
2478,-0.255,0.355
2479,-0.280,0.270
2480,-0.295,0.200
2481,-0.300,0.140
2482,-0.345,0.095
2483,-0.335,0.055
2484,-0.355,0.025
2485,-0.375,0.000
2486,-0.360,-0.015
2487,-0.385,-0.080
2488,-0.370,-0.105
2489,-0.370,-0.120
2490,-0.395,-0.155
2491,-0.390,-0.170
2492,-0.400,-0.205
2493,-0.420,-0.220
2494,-0.405,-0.240
2495,-0.410,-0.245
2496,-0.430,-0.260
2497,-0.440,-0.300
2498,-0.435,-0.295
2499,-0.425,-0.295
2500,-0.455,-0.310
2501,-0.420,-0.300
2502,-0.425,-0.305
2503,-0.425,-0.310
2504,-0.425,-0.335
2505,-0.415,-0.335
2506,-0.400,-0.340
2507,-0.395,-0.365
2508,-0.435,-0.335
2509,-0.415,-0.340
2510,-0.420,-0.345
2511,-0.440,-0.330
2512,-0.415,-0.360
2513,-0.430,-0.365
2514,-0.395,-0.360
2515,-0.385,-0.360
2516,-0.415,-0.355
2517,-0.385,-0.345
2518,-0.410,-0.370
2519,-0.420,-0.375
2520,-0.375,-0.375
2521,-0.395,-0.370
2522,-0.335,-0.365
2523,-0.305,-0.290
2524,-0.275,-0.240
2525,-0.265,-0.200
2526,-0.245,-0.195
2527,-0.185,-0.260
2528,-0.195,-0.265
2529,-0.245,-0.315
2530,-0.260,-0.355
2531,-0.285,-0.425
2532,-0.370,-0.390
2533,-0.430,-0.370
2534,-0.455,-0.395
2535,-0.460,-0.435
2536,-0.475,-0.440
2537,-0.485,-0.435
2538,-0.470,-0.435
2539,-0.465,-0.430
2540,-0.440,-0.445
2541,-0.465,-0.430
2542,-0.585,-0.450
2543,-0.600,-0.460
2544,-0.585,-0.525
2545,-0.225,-0.820
2546,-0.265,-0.830
2547,-0.265,-0.835
2548,-1.085,-0.025
2549,-2.140,-0.135
2550,-2.725,-2.170
2551,-2.815,-2.730
2552,-2.485,-2.445
2553,-2.070,-1.965
2554,-1.450,-1.290
2555,-0.750,-0.860
2556,-0.445,-0.445
2557,-0.375,-0.340
2558,-0.300,-0.315
2559,-0.265,-0.280
2560,-0.245,-0.255
2561,-0.275,-0.285
2562,-0.260,-0.260
2563,-0.250,-0.240
2564,-0.215,-0.245
2565,-0.215,-0.230
2566,-0.190,-0.240
2567,-0.185,-0.235
2568,-0.165,-0.195
2569,-0.120,-0.190
2570,-0.105,-0.175
2571,-0.050,-0.140
2572,0.010,-0.100
2573,0.040,-0.055
2574,0.115,-0.015
2575,0.160,0.015
2576,0.200,0.105
2577,0.280,0.155
2578,0.310,0.195
2579,0.350,0.285
2580,0.405,0.270
2581,0.395,0.350
2582,0.390,0.350
2583,0.405,0.410
2584,0.390,0.395
2585,0.440,0.450
2586,0.385,0.450
2587,0.370,0.510
2588,0.345,0.515
2589,0.250,0.535
2590,0.175,0.545
2591,0.110,0.515
2592,0.020,0.510
2593,-0.045,0.450
2594,-0.130,0.430
2595,-0.155,0.380
2596,-0.200,0.335
2597,-0.245,0.260
2598,-0.255,0.190
2599,-0.295,0.160
2600,-0.320,0.120
2601,-0.310,0.085
2602,-0.325,0.035
2603,-0.330,0.040
2604,-0.340,0.000
2605,-0.335,-0.025
2606,-0.345,-0.050
2607,-0.365,-0.100
2608,-0.375,-0.115
2609,-0.390,-0.170
2610,-0.415,-0.180
2611,-0.415,-0.160
2612,-0.440,-0.190
2613,-0.430,-0.215
2614,-0.450,-0.235
2615,-0.480,-0.240
2616,-0.460,-0.265
2617,-0.465,-0.245
2618,-0.455,-0.250
2619,-0.450,-0.260
2620,-0.485,-0.250
2621,-0.455,-0.250
2622,-0.455,-0.265
2623,-0.465,-0.255
2624,-0.445,-0.240
2625,-0.495,-0.220
2626,-0.460,-0.260
2627,-0.475,-0.255
2628,-0.475,-0.240
2629,-0.450,-0.260
2630,-0.490,-0.275
2631,-0.465,-0.260
2632,-0.450,-0.250
2633,-0.475,-0.265
2634,-0.430,-0.260
2635,-0.460,-0.285
2636,-0.455,-0.260
2637,-0.445,-0.270
2638,-0.455,-0.250
2639,-0.485,-0.235
2640,-0.455,-0.255
2641,-0.445,-0.240
2642,-0.380,-0.210
2643,-0.350,-0.145
2644,-0.300,-0.090
2645,-0.270,-0.060
2646,-0.260,-0.055
2647,-0.220,-0.170
2648,-0.260,-0.145
2649,-0.290,-0.190
2650,-0.300,-0.260
2651,-0.375,-0.295
2652,-0.465,-0.280
2653,-0.515,-0.285
2654,-0.535,-0.310
2655,-0.535,-0.345
2656,-0.540,-0.335
2657,-0.525,-0.355
2658,-0.525,-0.355
2659,-0.520,-0.310
2660,-0.520,-0.310
2661,-0.545,-0.340
2662,-0.675,-0.325
2663,-0.615,-0.340
2664,-0.575,-0.490
2665,-0.340,-0.770
2666,-0.775,-0.730
2667,-1.040,-0.550
2668,-1.875,0.315
2669,-2.675,-1.205
2670,-3.095,-2.855
2671,-2.845,-2.780
2672,-2.475,-2.260
2673,-1.820,-1.460
2674,-1.010,-0.895
2675,-0.540,-0.435
2676,-0.395,-0.205
2677,-0.355,-0.175
2678,-0.315,-0.175
2679,-0.295,-0.155
2680,-0.285,-0.160
2681,-0.280,-0.150
2682,-0.280,-0.150
2683,-0.275,-0.135
2684,-0.230,-0.135
2685,-0.250,-0.120
2686,-0.205,-0.110
2687,-0.195,-0.125
2688,-0.145,-0.070
2689,-0.115,-0.040
2690,-0.090,0.000
2691,-0.035,0.000
2692,-0.005,0.020
2693,0.055,0.075
2694,0.120,0.120
2695,0.165,0.190
2696,0.245,0.245
2697,0.285,0.330
2698,0.340,0.365
2699,0.360,0.400
2700,0.385,0.450
2701,0.405,0.455
2702,0.415,0.485
2703,0.410,0.530
2704,0.420,0.550
2705,0.415,0.575
2706,0.405,0.630
2707,0.370,0.645
2708,0.310,0.665
2709,0.265,0.625
2710,0.175,0.630
2711,0.095,0.600
2712,0.020,0.530
2713,-0.055,0.485
2714,-0.095,0.435
2715,-0.160,0.370
2716,-0.205,0.330
2717,-0.215,0.245
2718,-0.250,0.170
2719,-0.265,0.140
2720,-0.290,0.090
2721,-0.295,0.070
2722,-0.290,0.020
2723,-0.295,0.000
2724,-0.300,-0.020
2725,-0.285,-0.035
2726,-0.315,-0.045
2727,-0.300,-0.100
2728,-0.325,-0.110
2729,-0.355,-0.130
2730,-0.330,-0.140
2731,-0.355,-0.175
2732,-0.355,-0.165
2733,-0.350,-0.185
2734,-0.370,-0.200
2735,-0.350,-0.225
2736,-0.360,-0.215
2737,-0.370,-0.215
2738,-0.345,-0.220
2739,-0.380,-0.235
2740,-0.360,-0.230
2741,-0.360,-0.220
2742,-0.350,-0.245
2743,-0.360,-0.255
2744,-0.360,-0.245
2745,-0.350,-0.255
2746,-0.360,-0.250
2747,-0.360,-0.235
2748,-0.335,-0.240
2749,-0.350,-0.275
2750,-0.350,-0.255
2751,-0.325,-0.265
2752,-0.345,-0.275
2753,-0.320,-0.275
2754,-0.320,-0.265
2755,-0.320,-0.270
2756,-0.325,-0.255
2757,-0.320,-0.270
2758,-0.330,-0.265
2759,-0.305,-0.255
2760,-0.255,-0.245
2761,-0.205,-0.180
2762,-0.190,-0.120
2763,-0.130,-0.120
2764,-0.120,-0.090
2765,-0.100,-0.165
2766,-0.100,-0.170
2767,-0.170,-0.225
2768,-0.195,-0.270
2769,-0.220,-0.295
2770,-0.320,-0.290
2771,-0.350,-0.280
2772,-0.405,-0.335
2773,-0.390,-0.320
2774,-0.390,-0.345
2775,-0.380,-0.360
2776,-0.365,-0.375
2777,-0.395,-0.345
2778,-0.370,-0.375
2779,-0.410,-0.355
2780,-0.515,-0.375
2781,-0.460,-0.390
2782,-0.355,-0.580
2783,-0.300,-0.815
2784,-0.650,-0.865
2785,-1.015,-0.555
2786,-1.810,0.070
2787,-2.555,-1.455
2788,-2.920,-2.970
2789,-2.640,-2.770
2790,-2.290,-2.250
2791,-1.590,-1.450
2792,-0.745,-0.855
2793,-0.390,-0.385
2794,-0.225,-0.250
2795,-0.220,-0.210
2796,-0.160,-0.190
2797,-0.115,-0.195
2798,-0.130,-0.170
2799,-0.120,-0.155
2800,-0.110,-0.140
2801,-0.090,-0.150
2802,-0.090,-0.130
2803,-0.080,-0.130
2804,-0.035,-0.125
2805,-0.035,-0.105
2806,0.000,-0.075
2807,0.055,-0.060
2808,0.045,-0.035
2809,0.120,0.030
2810,0.135,0.075
2811,0.210,0.125
2812,0.270,0.160
2813,0.315,0.200
2814,0.360,0.270
2815,0.450,0.340
2816,0.455,0.385
2817,0.500,0.415
2818,0.540,0.440
2819,0.515,0.485
2820,0.535,0.545
2821,0.540,0.590
2822,0.570,0.600
2823,0.540,0.640
2824,0.525,0.670
2825,0.495,0.690
2826,0.445,0.665
2827,0.395,0.640
2828,0.340,0.650
2829,0.215,0.620
2830,0.160,0.560
2831,0.105,0.515
2832,0.015,0.460
2833,-0.020,0.400
2834,-0.050,0.340
2835,-0.060,0.265
2836,-0.105,0.210
2837,-0.145,0.145
2838,-0.145,0.125
2839,-0.190,0.075
2840,-0.175,0.060
2841,-0.155,0.045
2842,-0.180,0.010
2843,-0.185,0.000
2844,-0.195,-0.030
2845,-0.200,-0.035
2846,-0.205,-0.055
2847,-0.240,-0.080
2848,-0.215,-0.110
2849,-0.240,-0.125
2850,-0.230,-0.135
2851,-0.245,-0.140
2852,-0.230,-0.170
2853,-0.235,-0.160
2854,-0.240,-0.175
2855,-0.260,-0.165
2856,-0.230,-0.160
2857,-0.250,-0.225
2858,-0.240,-0.175
2859,-0.245,-0.245
2860,-0.250,-0.230
2861,-0.215,-0.215
2862,-0.250,-0.215
2863,-0.240,-0.225
2864,-0.245,-0.215
2865,-0.245,-0.205
2866,-0.220,-0.215
2867,-0.220,-0.250
2868,-0.235,-0.230
2869,-0.220,-0.235
2870,-0.235,-0.245
2871,-0.210,-0.240
2872,-0.240,-0.240
2873,-0.240,-0.255
2874,-0.225,-0.245
2875,-0.215,-0.250
2876,-0.195,-0.225
2877,-0.160,-0.200
2878,-0.100,-0.185
2879,-0.070,-0.110
2880,-0.050,-0.055
2881,-0.010,-0.030
2882,0.055,-0.070
2883,0.000,-0.100
2884,-0.005,-0.140
2885,-0.065,-0.170
2886,-0.055,-0.215
2887,-0.125,-0.240
2888,-0.225,-0.225
2889,-0.215,-0.230
2890,-0.265,-0.275
2891,-0.240,-0.310
2892,-0.220,-0.300
2893,-0.235,-0.285
2894,-0.210,-0.280
2895,-0.225,-0.270
2896,-0.240,-0.255
2897,-0.295,-0.295
2898,-0.375,-0.255
2899,-0.300,-0.330
2900,-0.140,-0.530
2901,-0.155,-0.720
2902,-0.390,-0.830
2903,-1.015,-0.215
2904,-1.920,0.140
2905,-2.535,-1.970
2906,-2.740,-2.825
2907,-2.390,-2.535
2908,-2.005,-1.960
2909,-1.330,-1.165
2910,-0.605,-0.735
2911,-0.265,-0.335
2912,-0.135,-0.180
2913,-0.085,-0.170
2914,-0.065,-0.125
2915,-0.030,-0.120
2916,-0.035,-0.130
2917,-0.010,-0.125
2918,0.000,-0.095
2919,0.010,-0.120
2920,0.040,-0.090
2921,0.040,-0.140
2922,0.070,-0.090
2923,0.090,-0.090
2924,0.105,-0.045
2925,0.155,-0.005
2926,0.195,0.020
2927,0.245,0.050
2928,0.310,0.075
2929,0.345,0.135
2930,0.415,0.200
2931,0.485,0.245
2932,0.535,0.315
2933,0.580,0.375
2934,0.615,0.425
2935,0.635,0.455
2936,0.660,0.505
2937,0.645,0.520
2938,0.685,0.550
2939,0.665,0.575
2940,0.660,0.625
2941,0.640,0.645
2942,0.600,0.655
2943,0.560,0.690
2944,0.530,0.665
2945,0.445,0.650
2946,0.375,0.675
2947,0.295,0.640
2948,0.215,0.600
2949,0.175,0.575
2950,0.085,0.495
2951,0.050,0.425
2952,0.030,0.355
2953,0.005,0.305
2954,-0.015,0.250
2955,-0.050,0.190
2956,-0.060,0.135
2957,-0.070,0.115
2958,-0.070,0.080
2959,-0.080,0.085
2960,-0.090,0.030
2961,-0.115,0.000
2962,-0.135,-0.025
2963,-0.135,-0.050
2964,-0.115,-0.040
2965,-0.150,-0.080
2966,-0.140,-0.055
2967,-0.165,-0.080
2968,-0.160,-0.130
2969,-0.175,-0.130
2970,-0.175,-0.150
2971,-0.180,-0.135
2972,-0.175,-0.150
2973,-0.185,-0.155
2974,-0.185,-0.180
2975,-0.195,-0.155
2976,-0.195,-0.170
2977,-0.165,-0.145
2978,-0.165,-0.145
2979,-0.190,-0.175
2980,-0.175,-0.195
2981,-0.195,-0.180
2982,-0.165,-0.190
2983,-0.185,-0.205
2984,-0.170,-0.165
2985,-0.165,-0.190
2986,-0.175,-0.210
2987,-0.165,-0.185
2988,-0.190,-0.200
2989,-0.220,-0.200
2990,-0.180,-0.215
2991,-0.180,-0.180
2992,-0.205,-0.195
2993,-0.180,-0.190
2994,-0.195,-0.200
2995,-0.130,-0.185
2996,-0.080,-0.135
2997,-0.055,-0.045
2998,-0.040,-0.015
2999,0.000,0.010
3000,0.030,-0.010
3001,0.040,-0.075
3002,-0.020,-0.090
3003,-0.030,-0.140
3004,-0.075,-0.190
3005,-0.120,-0.225
3006,-0.195,-0.160
3007,-0.260,-0.155
3008,-0.260,-0.205
3009,-0.285,-0.220
3010,-0.275,-0.200
3011,-0.260,-0.220
3012,-0.265,-0.225
3013,-0.270,-0.205
3014,-0.270,-0.230
3015,-0.330,-0.225
3016,-0.425,-0.185
3017,-0.375,-0.210
3018,-0.285,-0.350
3019,-0.095,-0.630
3020,-0.435,-0.625
3021,-0.695,-0.480
3022,-1.500,0.350
3023,-2.300,-0.680
3024,-2.720,-2.520
3025,-2.585,-2.640
3026,-2.290,-2.180
3027,-1.760,-1.505
3028,-0.955,-0.845
3029,-0.390,-0.425
3030,-0.245,-0.080
3031,-0.180,-0.060
3032,-0.115,-0.020
3033,-0.120,-0.050
3034,-0.095,-0.035
3035,-0.095,0.000
3036,-0.115,-0.030
3037,-0.055,-0.015
3038,-0.055,-0.015
3039,-0.045,0.020
3040,-0.050,0.000
3041,-0.030,0.025
3042,0.000,0.025
3043,0.025,0.060
3044,0.065,0.085
3045,0.100,0.130
3046,0.140,0.160
3047,0.215,0.210
3048,0.275,0.275
3049,0.315,0.335
3050,0.395,0.390
3051,0.440,0.440
3052,0.490,0.495
3053,0.500,0.550
3054,0.525,0.590
3055,0.550,0.615
3056,0.545,0.650
3057,0.575,0.670
3058,0.560,0.675
3059,0.550,0.725
3060,0.555,0.755
3061,0.485,0.770
3062,0.445,0.790
3063,0.350,0.765
3064,0.285,0.760
3065,0.210,0.730
3066,0.130,0.735
3067,0.050,0.670
3068,-0.010,0.590
3069,-0.080,0.520
3070,-0.110,0.470
3071,-0.155,0.400
3072,-0.185,0.315
3073,-0.180,0.295
3074,-0.205,0.250
3075,-0.220,0.200
3076,-0.240,0.215
3077,-0.225,0.165
3078,-0.235,0.150
3079,-0.270,0.140
3080,-0.270,0.090
3081,-0.265,0.055
3082,-0.295,0.040
3083,-0.290,0.020
3084,-0.295,-0.020
3085,-0.310,0.000
3086,-0.305,-0.050
3087,-0.345,-0.070
3088,-0.295,-0.075
3089,-0.310,-0.110
3090,-0.345,-0.125
3091,-0.355,-0.100
3092,-0.360,-0.120
3093,-0.355,-0.095
3094,-0.335,-0.115
3095,-0.335,-0.145
3096,-0.320,-0.130
3097,-0.330,-0.115
3098,-0.330,-0.120
3099,-0.330,-0.115
3100,-0.330,-0.120
3101,-0.330,-0.130
3102,-0.355,-0.115
3103,-0.360,-0.125
3104,-0.355,-0.125
3105,-0.330,-0.120
3106,-0.350,-0.120
3107,-0.335,-0.130
3108,-0.345,-0.105
3109,-0.355,-0.095
3110,-0.335,-0.095
3111,-0.360,-0.110
3112,-0.330,-0.110
3113,-0.345,-0.090
3114,-0.305,-0.100
3115,-0.260,-0.065
3116,-0.215,-0.030
3117,-0.180,0.050
3118,-0.125,0.055
3119,-0.110,0.110
3120,-0.065,0.040
3121,-0.105,0.010
3122,-0.135,-0.010
3123,-0.185,-0.065
3124,-0.170,-0.140
3125,-0.265,-0.155
3126,-0.350,-0.110
3127,-0.375,-0.145
3128,-0.380,-0.155
3129,-0.370,-0.190
3130,-0.375,-0.155
3131,-0.365,-0.175
3132,-0.370,-0.170
3133,-0.350,-0.170
3134,-0.350,-0.155
3135,-0.395,-0.160
3136,-0.530,-0.150
3137,-0.455,-0.175
3138,-0.355,-0.320
3139,-0.195,-0.610
3140,-0.645,-0.620
3141,-0.910,-0.430
3142,-1.660,0.370
3143,-2.360,-0.765
3144,-2.855,-2.555
3145,-2.750,-2.725
3146,-2.435,-2.270
3147,-1.900,-1.565
3148,-1.125,-0.900
3149,-0.535,-0.490
3150,-0.315,-0.090
3151,-0.215,-0.025
3152,-0.180,-0.005
3153,-0.155,0.000
3154,-0.120,-0.005
3155,-0.110,0.030
3156,-0.125,0.020
3157,-0.120,0.040
3158,-0.140,0.030
3159,-0.115,0.045
3160,-0.085,0.080
3161,-0.090,0.085
3162,-0.055,0.085
3163,-0.045,0.090
3164,-0.005,0.120
3165,0.045,0.125
3166,0.080,0.175
3167,0.145,0.225
3168,0.205,0.285
3169,0.255,0.320
3170,0.325,0.390
3171,0.325,0.450
3172,0.380,0.515
3173,0.430,0.550
3174,0.440,0.615
3175,0.460,0.635
3176,0.480,0.650
3177,0.480,0.685
3178,0.490,0.675
3179,0.485,0.745
3180,0.505,0.745
3181,0.480,0.790
3182,0.405,0.815
3183,0.380,0.805
3184,0.300,0.800
3185,0.250,0.770
3186,0.160,0.755
3187,0.060,0.730
3188,0.015,0.680
3189,-0.045,0.585
3190,-0.095,0.535
3191,-0.135,0.445
3192,-0.175,0.375
3193,-0.175,0.305
3194,-0.230,0.295
3195,-0.245,0.255
3196,-0.255,0.205
3197,-0.260,0.205
3198,-0.275,0.165
3199,-0.245,0.140
3200,-0.290,0.130
3201,-0.310,0.055
3202,-0.310,0.025
3203,-0.320,0.040
3204,-0.335,0.000
3205,-0.335,-0.030
3206,-0.350,-0.005
3207,-0.315,-0.050
3208,-0.340,-0.035
3209,-0.350,-0.070
3210,-0.360,-0.085
3211,-0.360,-0.085
3212,-0.365,-0.095
3213,-0.375,-0.085
3214,-0.365,-0.110
3215,-0.375,-0.095
3216,-0.390,-0.135
3217,-0.360,-0.115
3218,-0.365,-0.110
3219,-0.345,-0.110
3220,-0.345,-0.130
3221,-0.375,-0.130
3222,-0.370,-0.120
3223,-0.370,-0.135
3224,-0.385,-0.105
3225,-0.365,-0.135
3226,-0.370,-0.130
3227,-0.335,-0.130
3228,-0.360,-0.125
3229,-0.360,-0.130
3230,-0.345,-0.105
3231,-0.335,-0.125
3232,-0.315,-0.115
3233,-0.310,-0.115
3234,-0.295,-0.110
3235,-0.255,-0.100
3236,-0.185,-0.040
3237,-0.200,0.000
3238,-0.130,0.075
3239,-0.080,0.115
3240,-0.075,0.070
3241,-0.070,0.020
3242,-0.130,-0.005
3243,-0.155,-0.090
3244,-0.190,-0.150
3245,-0.235,-0.130
3246,-0.345,-0.095
3247,-0.355,-0.110
3248,-0.355,-0.125
3249,-0.355,-0.165
3250,-0.345,-0.180
3251,-0.350,-0.155
3252,-0.355,-0.175
3253,-0.325,-0.140
3254,-0.365,-0.140
3255,-0.435,-0.170
3256,-0.465,-0.165
3257,-0.445,-0.230
3258,-0.205,-0.460
3259,-0.330,-0.625
3260,-0.680,-0.700
3261,-1.140,-0.190
3262,-2.025,0.255
3263,-2.605,-1.810
3264,-2.935,-2.770
3265,-2.570,-2.475
3266,-2.170,-1.920
3267,-1.515,-1.070
3268,-0.745,-0.650
3269,-0.370,-0.220
3270,-0.245,-0.030
3271,-0.150,-0.005
3272,-0.125,-0.005
3273,-0.135,0.000
3274,-0.105,0.025
3275,-0.120,0.005
3276,-0.090,0.025
3277,-0.075,0.020
3278,-0.075,0.030
3279,-0.020,0.025
3280,-0.060,0.035
3281,-0.020,0.035
3282,0.010,0.055
3283,0.050,0.065
3284,0.120,0.115
3285,0.150,0.150
3286,0.180,0.180
3287,0.245,0.235
3288,0.270,0.320
3289,0.365,0.370
3290,0.425,0.405
3291,0.465,0.500
3292,0.505,0.510
3293,0.520,0.555
3294,0.545,0.585
3295,0.550,0.600
3296,0.570,0.635
3297,0.595,0.670
3298,0.580,0.715
3299,0.575,0.730
3300,0.555,0.740
3301,0.485,0.765
3302,0.455,0.770
3303,0.385,0.775
3304,0.305,0.730
3305,0.210,0.725
3306,0.120,0.685
3307,0.060,0.635
3308,-0.010,0.550
3309,-0.080,0.485
3310,-0.055,0.400
3311,-0.120,0.340
3312,-0.115,0.280
3313,-0.165,0.225
3314,-0.175,0.175
3315,-0.155,0.140
3316,-0.190,0.115
3317,-0.165,0.100
3318,-0.185,0.045
3319,-0.195,0.035
3320,-0.190,0.010
3321,-0.230,-0.020
3322,-0.215,-0.035
3323,-0.230,-0.075
3324,-0.235,-0.085
3325,-0.250,-0.075
3326,-0.260,-0.075
3327,-0.230,-0.100
3328,-0.255,-0.105
3329,-0.250,-0.150
3330,-0.250,-0.160
3331,-0.250,-0.175
3332,-0.265,-0.165
3333,-0.240,-0.160
3334,-0.265,-0.175
3335,-0.230,-0.175
3336,-0.250,-0.180
3337,-0.245,-0.175
3338,-0.255,-0.210
3339,-0.275,-0.185
3340,-0.250,-0.205
3341,-0.240,-0.190
3342,-0.260,-0.185
3343,-0.230,-0.185
3344,-0.245,-0.205
3345,-0.230,-0.190
3346,-0.250,-0.205
3347,-0.245,-0.185
3348,-0.215,-0.200
3349,-0.235,-0.185
3350,-0.230,-0.225
3351,-0.220,-0.190
3352,-0.220,-0.200
3353,-0.175,-0.200
3354,-0.105,-0.150
3355,-0.090,-0.100
3356,-0.050,-0.055
3357,-0.045,0.000
3358,0.010,-0.055
3359,0.025,-0.090
3360,0.000,-0.105
3361,-0.020,-0.150
3362,-0.025,-0.200
3363,-0.100,-0.200
3364,-0.175,-0.170
3365,-0.200,-0.215
3366,-0.225,-0.230
3367,-0.225,-0.265
3368,-0.225,-0.250
3369,-0.215,-0.270
3370,-0.210,-0.255
3371,-0.190,-0.260
3372,-0.205,-0.270
3373,-0.300,-0.235
3374,-0.400,-0.225
3375,-0.365,-0.305
3376,-0.115,-0.545
3377,0.000,-0.685
3378,-0.055,-0.740
3379,-0.545,-0.225
3380,-1.640,0.390
3381,-2.360,-1.295
3382,-2.640,-2.515
3383,-2.305,-2.390
3384,-1.915,-1.925
3385,-1.310,-1.195
3386,-0.625,-0.740
3387,-0.210,-0.365
3388,-0.085,-0.160
3389,-0.050,-0.125
3390,-0.025,-0.110
3391,-0.010,-0.085
3392,0.025,-0.095
3393,0.000,-0.075
3394,0.000,-0.100
3395,0.025,-0.070
3396,0.010,-0.070
3397,0.060,-0.060
3398,0.080,-0.075
3399,0.070,-0.035
3400,0.145,-0.010
3401,0.160,-0.020
3402,0.210,0.045
3403,0.255,0.065
3404,0.315,0.120
3405,0.370,0.135
3406,0.410,0.200
3407,0.485,0.260
3408,0.520,0.325
3409,0.555,0.385
3410,0.585,0.420
3411,0.610,0.435
3412,0.605,0.475
3413,0.660,0.515
3414,0.645,0.520
3415,0.670,0.570
3416,0.660,0.580
3417,0.625,0.605
3418,0.580,0.640
3419,0.525,0.665
3420,0.480,0.710
3421,0.410,0.665
3422,0.315,0.675
3423,0.235,0.640
3424,0.145,0.600
3425,0.085,0.565
3426,0.035,0.520
3427,-0.020,0.465
3428,-0.040,0.375
3429,-0.080,0.325
3430,-0.095,0.260
3431,-0.105,0.210
3432,-0.140,0.165
3433,-0.125,0.170
3434,-0.135,0.120
3435,-0.170,0.100
3436,-0.140,0.050
3437,-0.190,0.010
3438,-0.180,0.000
3439,-0.205,-0.015
3440,-0.215,-0.040
3441,-0.225,-0.075
3442,-0.235,-0.090
3443,-0.275,-0.110
3444,-0.265,-0.125
3445,-0.270,-0.150
3446,-0.255,-0.150
3447,-0.275,-0.155
3448,-0.265,-0.160
3449,-0.255,-0.175
3450,-0.280,-0.175
3451,-0.265,-0.170
3452,-0.270,-0.165
3453,-0.270,-0.195
3454,-0.275,-0.190
3455,-0.295,-0.200
3456,-0.285,-0.190
3457,-0.285,-0.215
3458,-0.310,-0.190
3459,-0.295,-0.215
3460,-0.280,-0.175
3461,-0.255,-0.210
3462,-0.275,-0.200
3463,-0.305,-0.200
3464,-0.300,-0.195
3465,-0.280,-0.200
3466,-0.290,-0.195
3467,-0.260,-0.190
3468,-0.295,-0.190
3469,-0.295,-0.185
3470,-0.280,-0.210
3471,-0.300,-0.195
3472,-0.270,-0.195
3473,-0.235,-0.160
3474,-0.260,-0.110
3475,-0.270,-0.095
3476,-0.275,-0.135
3477,-0.195,-0.085
3478,-0.200,-0.145
3479,-0.220,-0.170
3480,-0.240,-0.260
3481,-0.300,-0.215
3482,-0.315,-0.185
3483,-0.310,-0.200
3484,-0.305,-0.220
3485,-0.310,-0.195
3486,-0.315,-0.215
3487,-0.320,-0.210
3488,-0.415,-0.190
3489,-0.465,-0.195
3490,-0.375,-0.290
3491,-0.150,-0.570
3492,-0.370,-0.630
3493,-0.625,-0.595
3494,-1.250,0.150
3495,-2.120,0.030
3496,-2.615,-2.310
3497,-2.675,-2.860
3498,-2.355,-2.435
3499,-1.865,-1.785
3500,-1.060,-0.950
3501,-0.460,-0.540
3502,-0.215,-0.115
3503,-0.140,-0.045
3504,-0.115,-0.005
3505,-0.045,0.005
3506,-0.055,-0.005
3507,-0.030,0.000
3508,-0.015,0.025
3509,-0.035,0.040
3510,-0.020,0.065
3511,0.000,0.050
3512,0.010,0.065
3513,0.050,0.065
3514,0.030,0.070
3515,0.090,0.115
3516,0.100,0.120
3517,0.135,0.155
3518,0.215,0.220
3519,0.270,0.235
3520,0.315,0.315
3521,0.395,0.360
3522,0.420,0.385
3523,0.500,0.470
3524,0.520,0.520
3525,0.585,0.585
3526,0.620,0.605
3527,0.615,0.645
3528,0.640,0.645
3529,0.655,0.670
3530,0.655,0.720
3531,0.645,0.720
3532,0.655,0.730
3533,0.605,0.775
3534,0.575,0.790
3535,0.485,0.760
3536,0.440,0.760
3537,0.370,0.725
3538,0.240,0.705
3539,0.160,0.665
3540,0.085,0.565
3541,0.025,0.515
3542,-0.035,0.470
3543,-0.065,0.400
3544,-0.100,0.345
3545,-0.110,0.245
3546,-0.120,0.200
3547,-0.160,0.135
3548,-0.190,0.130
3549,-0.165,0.105
3550,-0.170,0.070
3551,-0.185,0.060
3552,-0.190,0.035
3553,-0.220,0.005
3554,-0.215,-0.025
3555,-0.225,-0.065
3556,-0.240,-0.085
3557,-0.220,-0.120
3558,-0.265,-0.125
3559,-0.270,-0.145
3560,-0.280,-0.165
3561,-0.285,-0.165
3562,-0.245,-0.190
3563,-0.240,-0.195
3564,-0.265,-0.200
3565,-0.265,-0.200
3566,-0.270,-0.240
3567,-0.270,-0.210
3568,-0.295,-0.220
3569,-0.285,-0.225
3570,-0.295,-0.240
3571,-0.310,-0.245
3572,-0.275,-0.245
3573,-0.290,-0.240
3574,-0.300,-0.250
3575,-0.280,-0.220
3576,-0.305,-0.240
3577,-0.285,-0.245
3578,-0.305,-0.245
3579,-0.310,-0.185
3580,-0.295,-0.235
3581,-0.310,-0.210
3582,-0.285,-0.235
3583,-0.275,-0.245
3584,-0.320,-0.245
3585,-0.295,-0.240
3586,-0.315,-0.240
3587,-0.305,-0.240
3588,-0.305,-0.240
3589,-0.320,-0.250
3590,-0.295,-0.255
3591,-0.260,-0.230
3592,-0.200,-0.180
3593,-0.155,-0.135
3594,-0.155,-0.085
3595,-0.090,-0.030
3596,-0.065,-0.045
3597,-0.080,-0.120
3598,-0.105,-0.110
3599,-0.160,-0.190
3600,-0.205,-0.245
3601,-0.215,-0.270
3602,-0.340,-0.250
3603,-0.385,-0.240
3604,-0.420,-0.285
3605,-0.410,-0.315
3606,-0.395,-0.315
3607,-0.425,-0.325
3608,-0.410,-0.345
3609,-0.385,-0.320
3610,-0.415,-0.325
3611,-0.445,-0.315
3612,-0.555,-0.315
3613,-0.530,-0.350
3614,-0.410,-0.485
3615,-0.280,-0.755
3616,-0.690,-0.765
3617,-1.005,-0.570
3618,-1.800,0.225
3619,-2.540,-1.065
3620,-2.930,-2.835
3621,-2.705,-2.855
3622,-2.370,-2.365
3623,-1.770,-1.560
3624,-0.935,-0.930
3625,-0.490,-0.490
3626,-0.355,-0.215
3627,-0.320,-0.175
3628,-0.285,-0.155
3629,-0.225,-0.150
3630,-0.260,-0.125
3631,-0.250,-0.140
3632,-0.220,-0.120
3633,-0.240,-0.095
3634,-0.225,-0.095
3635,-0.205,-0.090
3636,-0.200,-0.060
3637,-0.170,-0.080
3638,-0.175,-0.055
3639,-0.120,-0.025
3640,-0.095,0.005
3641,-0.070,0.035
3642,0.010,0.055
3643,0.040,0.140
3644,0.095,0.185
3645,0.160,0.245
3646,0.205,0.290
3647,0.260,0.320
3648,0.285,0.410
3649,0.325,0.470
3650,0.360,0.485
3651,0.390,0.515
3652,0.405,0.530
3653,0.390,0.575
3654,0.385,0.560
3655,0.425,0.590
3656,0.400,0.660
3657,0.375,0.680
3658,0.315,0.645
3659,0.230,0.670
3660,0.190,0.660
3661,0.100,0.635
3662,0.020,0.610
3663,-0.045,0.540
3664,-0.110,0.490
3665,-0.150,0.450
3666,-0.200,0.365
3667,-0.260,0.275
3668,-0.255,0.225
3669,-0.330,0.150
3670,-0.325,0.125
3671,-0.335,0.075
3672,-0.375,0.035
3673,-0.340,0.015
3674,-0.380,-0.010
3675,-0.355,-0.055
3676,-0.365,-0.075
3677,-0.395,-0.105
3678,-0.395,-0.140
3679,-0.380,-0.170
3680,-0.405,-0.180
3681,-0.425,-0.230
3682,-0.440,-0.230
3683,-0.415,-0.255
3684,-0.440,-0.270
3685,-0.435,-0.295
3686,-0.435,-0.345
3687,-0.450,-0.310
3688,-0.425,-0.280
3689,-0.420,-0.320
3690,-0.435,-0.320
3691,-0.455,-0.330
3692,-0.460,-0.360
3693,-0.460,-0.345
3694,-0.435,-0.355
3695,-0.450,-0.375
3696,-0.435,-0.370
3697,-0.445,-0.345
3698,-0.455,-0.370
3699,-0.440,-0.370
3700,-0.445,-0.370
3701,-0.430,-0.355
3702,-0.430,-0.365
3703,-0.425,-0.350
3704,-0.430,-0.355
3705,-0.430,-0.360
3706,-0.420,-0.355
3707,-0.410,-0.370
3708,-0.420,-0.340
3709,-0.400,-0.330
3710,-0.345,-0.315
3711,-0.285,-0.255
3712,-0.270,-0.195
3713,-0.250,-0.170
3714,-0.185,-0.140
3715,-0.175,-0.230
3716,-0.190,-0.220
3717,-0.255,-0.265
3718,-0.275,-0.330
3719,-0.255,-0.380
3720,-0.380,-0.360
3721,-0.450,-0.325
3722,-0.445,-0.340
3723,-0.480,-0.395
3724,-0.470,-0.420
3725,-0.445,-0.420
3726,-0.450,-0.410
3727,-0.450,-0.410
3728,-0.450,-0.435
3729,-0.460,-0.410
3730,-0.515,-0.385
3731,-0.640,-0.415
3732,-0.585,-0.475
3733,-0.385,-0.685
3734,-0.320,-0.900
3735,-0.450,-0.930
3736,-1.010,-0.405
3737,-1.955,0.240
3738,-2.670,-1.575
3739,-2.985,-2.820
3740,-2.625,-2.630
3741,-2.230,-2.125
3742,-1.550,-1.415
3743,-0.795,-0.890
3744,-0.470,-0.480
3745,-0.345,-0.305
3746,-0.260,-0.260
3747,-0.230,-0.250
3748,-0.185,-0.230
3749,-0.210,-0.235
3750,-0.190,-0.240
3751,-0.175,-0.230
3752,-0.165,-0.235
3753,-0.160,-0.240
3754,-0.150,-0.230
3755,-0.110,-0.220
3756,-0.085,-0.185
3757,-0.075,-0.170
3758,0.010,-0.105
3759,0.035,-0.110
3760,0.090,-0.065
3761,0.180,-0.025
3762,0.210,0.030
3763,0.295,0.090
3764,0.335,0.135
3765,0.405,0.215
3766,0.450,0.260
3767,0.480,0.300
3768,0.535,0.350
3769,0.545,0.380
3770,0.545,0.395
3771,0.570,0.425
3772,0.560,0.440
3773,0.575,0.500
3774,0.565,0.490
3775,0.520,0.555
3776,0.510,0.505
3777,0.400,0.525
3778,0.350,0.505
3779,0.280,0.505
3780,0.170,0.490
3781,0.120,0.465
3782,0.050,0.425
3783,-0.035,0.370
3784,-0.070,0.300
3785,-0.120,0.230
3786,-0.120,0.160
3787,-0.160,0.095
3788,-0.170,0.045
3789,-0.155,0.030
3790,-0.205,-0.005
3791,-0.205,-0.045
3792,-0.200,-0.080
3793,-0.220,-0.100
3794,-0.215,-0.125
3795,-0.245,-0.175
3796,-0.245,-0.170
3797,-0.250,-0.225
3798,-0.260,-0.235
3799,-0.275,-0.260
3800,-0.260,-0.250
3801,-0.305,-0.275
3802,-0.285,-0.285
3803,-0.320,-0.315
3804,-0.300,-0.305
3805,-0.305,-0.310
3806,-0.310,-0.315
3807,-0.325,-0.300
3808,-0.355,-0.325
3809,-0.335,-0.335
3810,-0.325,-0.315
3811,-0.355,-0.325
3812,-0.360,-0.320
3813,-0.360,-0.325
3814,-0.375,-0.345
3815,-0.350,-0.325
3816,-0.375,-0.340
3817,-0.385,-0.345
3818,-0.380,-0.340
3819,-0.390,-0.345
3820,-0.385,-0.345
3821,-0.400,-0.325
3822,-0.375,-0.320
3823,-0.375,-0.300
3824,-0.405,-0.350
3825,-0.410,-0.335
3826,-0.390,-0.300
3827,-0.410,-0.315
3828,-0.375,-0.320
3829,-0.315,-0.295
3830,-0.285,-0.230
3831,-0.270,-0.190
3832,-0.220,-0.135
3833,-0.210,-0.105
3834,-0.190,-0.170
3835,-0.165,-0.230
3836,-0.245,-0.235
3837,-0.275,-0.300
3838,-0.295,-0.330
3839,-0.375,-0.340
3840,-0.480,-0.265
3841,-0.480,-0.350
3842,-0.515,-0.350
3843,-0.510,-0.340
3844,-0.490,-0.380
3845,-0.510,-0.355
3846,-0.500,-0.360
3847,-0.505,-0.355
3848,-0.500,-0.365
3849,-0.575,-0.360
3850,-0.685,-0.365
3851,-0.605,-0.380
3852,-0.490,-0.560
3853,-0.350,-0.765
3854,-0.625,-0.720
3855,-1.010,-0.355
3856,-1.920,0.440
3857,-2.645,-1.135
3858,-3.035,-2.850
3859,-2.830,-2.805
3860,-2.515,-2.355
3861,-2.000,-1.725
3862,-1.170,-1.030
3863,-0.655,-0.635
3864,-0.470,-0.250
3865,-0.385,-0.200
3866,-0.345,-0.165
3867,-0.315,-0.180
3868,-0.320,-0.165
3869,-0.295,-0.145
3870,-0.270,-0.165
3871,-0.265,-0.135
3872,-0.240,-0.110
3873,-0.220,-0.105
3874,-0.230,-0.110
3875,-0.185,-0.095
3876,-0.170,-0.075
3877,-0.100,-0.045
3878,-0.075,0.000
3879,-0.035,0.045
3880,0.020,0.075
3881,0.085,0.145
3882,0.120,0.155
3883,0.230,0.200
3884,0.270,0.270
3885,0.330,0.365
3886,0.350,0.365
3887,0.395,0.425
3888,0.435,0.475
3889,0.440,0.485
3890,0.470,0.530
3891,0.470,0.545
3892,0.475,0.595
3893,0.490,0.620
3894,0.465,0.645
3895,0.425,0.660
3896,0.405,0.665
3897,0.310,0.650
3898,0.245,0.640
3899,0.150,0.590
3900,0.055,0.595
3901,0.000,0.550
3902,-0.075,0.510
3903,-0.145,0.465
3904,-0.165,0.410
3905,-0.220,0.325
3906,-0.240,0.265
3907,-0.260,0.165
3908,-0.325,0.120
3909,-0.300,0.095
3910,-0.355,0.040
3911,-0.325,0.020
3912,-0.315,0.010
3913,-0.360,-0.015
3914,-0.355,-0.055
3915,-0.370,-0.065
3916,-0.380,-0.090
3917,-0.375,-0.120
3918,-0.400,-0.125
3919,-0.390,-0.165
3920,-0.415,-0.195
3921,-0.435,-0.235
3922,-0.430,-0.205
3923,-0.470,-0.230
3924,-0.425,-0.250
3925,-0.440,-0.260
3926,-0.460,-0.290
3927,-0.455,-0.305
3928,-0.430,-0.315
3929,-0.440,-0.345
3930,-0.450,-0.325
3931,-0.450,-0.325
3932,-0.435,-0.330
3933,-0.430,-0.315
3934,-0.460,-0.335
3935,-0.430,-0.340
3936,-0.450,-0.340
3937,-0.440,-0.320
3938,-0.455,-0.325
3939,-0.455,-0.335
3940,-0.445,-0.335
3941,-0.460,-0.345
3942,-0.450,-0.370
3943,-0.445,-0.360
3944,-0.465,-0.335
3945,-0.465,-0.365
3946,-0.475,-0.350
3947,-0.475,-0.340
3948,-0.455,-0.375
3949,-0.380,-0.345
3950,-0.345,-0.295
3951,-0.335,-0.210
3952,-0.305,-0.190
3953,-0.245,-0.155
3954,-0.250,-0.200
3955,-0.250,-0.230
3956,-0.290,-0.280
3957,-0.335,-0.335
3958,-0.340,-0.395
3959,-0.450,-0.395
3960,-0.530,-0.370
3961,-0.555,-0.380
3962,-0.555,-0.415
3963,-0.535,-0.410
3964,-0.535,-0.420
3965,-0.540,-0.425
3966,-0.540,-0.410
3967,-0.525,-0.420
3968,-0.550,-0.420
3969,-0.630,-0.380
3970,-0.685,-0.405
3971,-0.620,-0.450
3972,-0.445,-0.665
3973,-0.525,-0.830
3974,-0.805,-0.820
3975,-1.280,-0.350
3976,-2.105,0.235
3977,-2.815,-1.545
3978,-3.125,-2.865
3979,-2.835,-2.700
3980,-2.475,-2.210
3981,-1.860,-1.500
3982,-1.025,-0.905
3983,-0.585,-0.480
3984,-0.425,-0.240
3985,-0.400,-0.210
3986,-0.355,-0.170
3987,-0.315,-0.160
3988,-0.320,-0.145
3989,-0.300,-0.155
3990,-0.305,-0.125
3991,-0.310,-0.115
3992,-0.270,-0.135
3993,-0.260,-0.155
3994,-0.255,-0.150
3995,-0.210,-0.100
3996,-0.185,-0.095
3997,-0.150,-0.045
3998,-0.130,-0.045
3999,-0.105,0.000
4000,-0.020,0.050
4001,0.020,0.070
4002,0.075,0.145
4003,0.145,0.230
4004,0.180,0.275
4005,0.255,0.335
4006,0.320,0.385
4007,0.355,0.430
4008,0.385,0.450
4009,0.385,0.505
4010,0.415,0.550
4011,0.415,0.560
4012,0.415,0.585
4013,0.420,0.595
4014,0.375,0.610
4015,0.385,0.655
4016,0.290,0.660
4017,0.210,0.655
4018,0.145,0.640
4019,0.040,0.605
4020,-0.030,0.560
4021,-0.120,0.520
4022,-0.175,0.450
4023,-0.205,0.390
4024,-0.280,0.315
4025,-0.300,0.255
4026,-0.305,0.185
4027,-0.335,0.135
4028,-0.360,0.095
4029,-0.385,0.070
4030,-0.410,0.035
4031,-0.380,0.010
4032,-0.405,-0.020
4033,-0.410,-0.055
4034,-0.420,-0.070
4035,-0.425,-0.075
4036,-0.410,-0.130
4037,-0.455,-0.110
4038,-0.470,-0.145
4039,-0.460,-0.165
4040,-0.495,-0.180
4041,-0.470,-0.195
4042,-0.485,-0.195
4043,-0.480,-0.200
4044,-0.475,-0.230
4045,-0.515,-0.245
4046,-0.490,-0.225
4047,-0.490,-0.260
4048,-0.505,-0.245
4049,-0.470,-0.285
4050,-0.500,-0.265
4051,-0.525,-0.275
4052,-0.505,-0.275
4053,-0.525,-0.310
4054,-0.500,-0.275
4055,-0.510,-0.265
4056,-0.505,-0.285
4057,-0.495,-0.280
4058,-0.510,-0.320
4059,-0.510,-0.285
4060,-0.490,-0.290
4061,-0.515,-0.300
4062,-0.470,-0.285
4063,-0.505,-0.325
4064,-0.500,-0.295
4065,-0.510,-0.290
4066,-0.515,-0.305
4067,-0.500,-0.280
4068,-0.460,-0.290
4069,-0.420,-0.245
4070,-0.385,-0.190
4071,-0.375,-0.165
4072,-0.305,-0.120
4073,-0.280,-0.170
4074,-0.290,-0.215
4075,-0.355,-0.235
4076,-0.415,-0.295
4077,-0.385,-0.330
4078,-0.455,-0.360
4079,-0.565,-0.325
4080,-0.585,-0.360
4081,-0.595,-0.375
4082,-0.585,-0.405
4083,-0.570,-0.410
4084,-0.595,-0.420
4085,-0.590,-0.395
4086,-0.565,-0.395
4087,-0.595,-0.420
4088,-0.670,-0.380
4089,-0.720,-0.405
4090,-0.665,-0.505
4091,-0.445,-0.755
4092,-0.660,-0.835
4093,-0.825,-0.900
4094,-1.555,-0.080
4095,-2.435,-0.080
4096,-3.120,-2.325
4097,-3.215,-2.965
4098,-2.800,-2.620
4099,-2.365,-2.030
4100,-1.630,-1.285
4101,-0.865,-0.820
4102,-0.600,-0.395
4103,-0.465,-0.280
4104,-0.420,-0.225
4105,-0.395,-0.225
4106,-0.365,-0.200
4107,-0.385,-0.220
4108,-0.370,-0.215
4109,-0.355,-0.195
4110,-0.330,-0.210
4111,-0.315,-0.155
4112,-0.310,-0.175
4113,-0.270,-0.165
4114,-0.240,-0.150
4115,-0.220,-0.130
4116,-0.185,-0.095
4117,-0.145,-0.080
4118,-0.115,-0.050
4119,-0.030,0.000
4120,0.010,0.055
4121,0.075,0.100
4122,0.160,0.175
4123,0.205,0.215
4124,0.285,0.295
4125,0.280,0.345
4126,0.350,0.405
4127,0.380,0.420
4128,0.355,0.450
4129,0.395,0.460
4130,0.385,0.510
4131,0.380,0.540
4132,0.410,0.550
4133,0.360,0.600
4134,0.330,0.620
4135,0.275,0.630
4136,0.160,0.610
4137,0.105,0.595
4138,-0.010,0.590
4139,-0.055,0.555
4140,-0.120,0.500
4141,-0.190,0.430
4142,-0.215,0.345
4143,-0.270,0.280
4144,-0.300,0.230
4145,-0.300,0.150
4146,-0.340,0.095
4147,-0.345,0.050
4148,-0.340,0.015
4149,-0.320,0.005
4150,-0.340,-0.020
4151,-0.385,-0.045
4152,-0.355,-0.070
4153,-0.365,-0.100
4154,-0.380,-0.130
4155,-0.390,-0.170
4156,-0.405,-0.185
4157,-0.390,-0.190
4158,-0.380,-0.235
4159,-0.400,-0.255
4160,-0.410,-0.255
4161,-0.425,-0.270
4162,-0.420,-0.255
4163,-0.445,-0.280
4164,-0.435,-0.285
4165,-0.435,-0.280
4166,-0.465,-0.310
4167,-0.445,-0.320
4168,-0.430,-0.320
4169,-0.430,-0.320
4170,-0.425,-0.315
4171,-0.410,-0.320
4172,-0.400,-0.325
4173,-0.405,-0.345
4174,-0.415,-0.355
4175,-0.420,-0.355
4176,-0.415,-0.345
4177,-0.425,-0.330
4178,-0.375,-0.345
4179,-0.370,-0.355
4180,-0.380,-0.340
4181,-0.385,-0.350
4182,-0.420,-0.345
4183,-0.400,-0.330
4184,-0.400,-0.315
4185,-0.415,-0.310
4186,-0.350,-0.320
4187,-0.290,-0.265
4188,-0.285,-0.220
4189,-0.250,-0.170
4190,-0.215,-0.125
4191,-0.170,-0.200
4192,-0.215,-0.225
4193,-0.250,-0.240
4194,-0.280,-0.300
4195,-0.295,-0.350
4196,-0.365,-0.350
4197,-0.440,-0.305
4198,-0.490,-0.355
4199,-0.500,-0.355
4200,-0.495,-0.440
4201,-0.500,-0.400
4202,-0.505,-0.400
4203,-0.475,-0.400
4204,-0.495,-0.400
4205,-0.510,-0.385
4206,-0.625,-0.390
4207,-0.685,-0.385
4208,-0.665,-0.525
4209,-0.305,-0.800
4210,-0.430,-0.765
4211,-0.550,-0.725
4212,-1.480,0.115
4213,-2.445,-0.335
4214,-2.955,-2.390
4215,-2.905,-2.785
4216,-2.530,-2.405
4217,-2.065,-1.800
4218,-1.330,-1.120
4219,-0.705,-0.700
4220,-0.490,-0.295
4221,-0.410,-0.205
4222,-0.355,-0.160
4223,-0.335,-0.165
4224,-0.315,-0.155
4225,-0.315,-0.150
4226,-0.285,-0.140
4227,-0.280,-0.140
4228,-0.295,-0.140
4229,-0.265,-0.110
4230,-0.245,-0.100
4231,-0.230,-0.050
4232,-0.185,-0.050
4233,-0.175,-0.030
4234,-0.155,0.000
4235,-0.075,0.025
4236,-0.045,0.065
4237,0.015,0.100
4238,0.075,0.150
4239,0.145,0.255
4240,0.205,0.295
4241,0.260,0.355
4242,0.325,0.425
4243,0.355,0.475
4244,0.380,0.510
4245,0.420,0.540
4246,0.380,0.530
4247,0.400,0.595
4248,0.410,0.615
4249,0.395,0.670
4250,0.395,0.670
4251,0.350,0.675
4252,0.295,0.680
4253,0.250,0.700
4254,0.140,0.675
4255,0.040,0.665
4256,-0.015,0.625
4257,-0.105,0.590
4258,-0.170,0.550
4259,-0.255,0.485
4260,-0.260,0.445
4261,-0.300,0.370
4262,-0.340,0.335
4263,-0.335,0.275
4264,-0.365,0.210
4265,-0.365,0.200
4266,-0.385,0.175
4267,-0.415,0.140
4268,-0.390,0.125
4269,-0.410,0.070
4270,-0.405,0.045
4271,-0.415,0.035
4272,-0.445,0.005
4273,-0.450,-0.015
4274,-0.475,-0.050
4275,-0.425,-0.020
4276,-0.460,-0.035
4277,-0.465,-0.060
4278,-0.445,-0.085
4279,-0.470,-0.110
4280,-0.460,-0.110
4281,-0.470,-0.085
4282,-0.500,-0.100
4283,-0.465,-0.120
4284,-0.490,-0.140
4285,-0.505,-0.140
4286,-0.500,-0.115
4287,-0.480,-0.145
4288,-0.470,-0.145
4289,-0.505,-0.155
4290,-0.490,-0.135
4291,-0.480,-0.140
4292,-0.515,-0.130
4293,-0.485,-0.150
4294,-0.490,-0.135
4295,-0.480,-0.140
4296,-0.485,-0.135
4297,-0.505,-0.115
4298,-0.490,-0.125
4299,-0.460,-0.125
4300,-0.490,-0.145
4301,-0.460,-0.145
4302,-0.470,-0.165
4303,-0.460,-0.150
4304,-0.430,-0.150
4305,-0.375,-0.110
4306,-0.335,-0.035
4307,-0.300,0.000
4308,-0.260,0.020
4309,-0.225,0.055
4310,-0.220,-0.025
4311,-0.260,-0.015
4312,-0.310,-0.090
4313,-0.325,-0.160
4314,-0.330,-0.195
4315,-0.480,-0.175
4316,-0.495,-0.135
4317,-0.515,-0.190
4318,-0.550,-0.180
4319,-0.545,-0.225
4320,-0.530,-0.215
4321,-0.520,-0.215
4322,-0.505,-0.215
4323,-0.535,-0.215
4324,-0.565,-0.220
4325,-0.665,-0.230
4326,-0.635,-0.235
4327,-0.555,-0.355
4328,-0.315,-0.685
4329,-0.750,-0.630
4330,-0.955,-0.525
4331,-1.780,0.430
4332,-2.675,-0.555
4333,-3.165,-2.610
4334,-2.970,-2.785
4335,-2.635,-2.305
4336,-1.960,-1.550
4337,-1.070,-0.880
4338,-0.590,-0.395
4339,-0.440,-0.115
4340,-0.360,-0.035
4341,-0.325,-0.030
4342,-0.300,-0.030
4343,-0.305,-0.005
4344,-0.305,0.000
4345,-0.290,0.000
4346,-0.270,0.000
4347,-0.260,0.020
4348,-0.285,0.000
4349,-0.225,0.040
4350,-0.200,0.025
4351,-0.185,0.025
4352,-0.125,0.085
4353,-0.110,0.115
4354,-0.060,0.175
4355,-0.010,0.185
4356,0.015,0.255
4357,0.095,0.305
4358,0.180,0.345
4359,0.220,0.440
4360,0.310,0.500
4361,0.345,0.535
4362,0.375,0.580
4363,0.430,0.640
4364,0.430,0.670
4365,0.435,0.680
4366,0.425,0.730
4367,0.445,0.760
4368,0.435,0.795
4369,0.395,0.835
4370,0.375,0.860
4371,0.275,0.815
4372,0.225,0.820
4373,0.135,0.825
4374,0.065,0.785
4375,-0.010,0.720
4376,-0.085,0.665
4377,-0.185,0.635
4378,-0.230,0.555
4379,-0.290,0.490
4380,-0.305,0.425
4381,-0.325,0.335
4382,-0.375,0.285
4383,-0.380,0.230
4384,-0.410,0.200
4385,-0.395,0.150
4386,-0.385,0.150
4387,-0.420,0.105
4388,-0.410,0.095
4389,-0.440,0.070
4390,-0.420,0.025
4391,-0.435,-0.005
4392,-0.445,-0.005
4393,-0.435,-0.010
4394,-0.455,-0.035
4395,-0.465,-0.055
4396,-0.460,-0.065
4397,-0.490,-0.100
4398,-0.425,-0.125
4399,-0.470,-0.110
4400,-0.480,-0.120
4401,-0.485,-0.130
4402,-0.490,-0.140
4403,-0.470,-0.120
4404,-0.475,-0.135
4405,-0.480,-0.130
4406,-0.465,-0.120
4407,-0.475,-0.140
4408,-0.460,-0.120
4409,-0.465,-0.110
4410,-0.460,-0.120
4411,-0.450,-0.130
4412,-0.465,-0.115
4413,-0.460,-0.125
4414,-0.440,-0.110
4415,-0.460,-0.125
4416,-0.445,-0.115
4417,-0.420,-0.110
4418,-0.455,-0.115
4419,-0.430,-0.150
4420,-0.470,-0.140
4421,-0.445,-0.120
4422,-0.430,-0.115
4423,-0.370,-0.120
4424,-0.330,-0.010
4425,-0.330,0.035
4426,-0.255,0.080
4427,-0.230,0.090
4428,-0.250,0.010
4429,-0.230,0.005
4430,-0.275,-0.040
4431,-0.320,-0.105
4432,-0.330,-0.160
4433,-0.460,-0.145
4434,-0.480,-0.105
4435,-0.515,-0.160
4436,-0.540,-0.185
4437,-0.510,-0.170
4438,-0.520,-0.230
4439,-0.505,-0.200
4440,-0.515,-0.205
4441,-0.475,-0.200
4442,-0.535,-0.195
4443,-0.625,-0.175
4444,-0.625,-0.210
4445,-0.565,-0.305
4446,-0.360,-0.625
4447,-0.665,-0.605
4448,-0.985,-0.490
4449,-1.760,0.330
4450,-2.580,-0.560
4451,-3.115,-2.500
4452,-2.980,-2.730
4453,-2.640,-2.250
4454,-1.980,-1.540
4455,-1.135,-0.850
4456,-0.620,-0.395
4457,-0.390,-0.040
4458,-0.355,-0.015
4459,-0.305,0.000
4460,-0.280,0.010
4461,-0.310,0.015
4462,-0.265,0.000
4463,-0.280,0.000
4464,-0.275,0.030
4465,-0.240,0.030
4466,-0.235,0.040
4467,-0.240,0.050
4468,-0.185,0.045
4469,-0.170,0.085
4470,-0.135,0.085
4471,-0.095,0.130
4472,-0.045,0.155
4473,0.000,0.205
4474,0.030,0.250
4475,0.130,0.290
4476,0.190,0.355
4477,0.230,0.425
4478,0.310,0.495
4479,0.330,0.555
4480,0.395,0.570
4481,0.415,0.570
4482,0.415,0.630
4483,0.445,0.675
4484,0.450,0.685
4485,0.455,0.700
4486,0.460,0.740
4487,0.425,0.795
4488,0.390,0.815
4489,0.345,0.770
4490,0.260,0.780
4491,0.200,0.755
4492,0.085,0.715
4493,0.015,0.700
4494,-0.050,0.645
4495,-0.160,0.600
4496,-0.195,0.520
4497,-0.225,0.435
4498,-0.285,0.385
4499,-0.280,0.300
4500,-0.370,0.230
4501,-0.350,0.190
4502,-0.335,0.160
4503,-0.370,0.125
4504,-0.365,0.090
4505,-0.380,0.095
4506,-0.385,0.055
4507,-0.385,0.035
4508,-0.440,0.010
4509,-0.455,-0.015
4510,-0.425,-0.050
4511,-0.455,-0.085
4512,-0.450,-0.110
4513,-0.455,-0.120
4514,-0.445,-0.145
4515,-0.470,-0.185
4516,-0.470,-0.195
4517,-0.450,-0.175
4518,-0.455,-0.185
4519,-0.475,-0.195
4520,-0.465,-0.210
4521,-0.470,-0.210
4522,-0.460,-0.215
4523,-0.470,-0.210
4524,-0.465,-0.200
4525,-0.440,-0.200
4526,-0.460,-0.220
4527,-0.450,-0.235
4528,-0.480,-0.210
4529,-0.450,-0.225
4530,-0.450,-0.220
4531,-0.460,-0.210
4532,-0.430,-0.205
4533,-0.455,-0.200
4534,-0.465,-0.235
4535,-0.445,-0.240
4536,-0.460,-0.245
4537,-0.450,-0.250
4538,-0.445,-0.245
4539,-0.460,-0.235
4540,-0.425,-0.220
4541,-0.395,-0.220
4542,-0.340,-0.210
4543,-0.330,-0.155
4544,-0.315,-0.100
4545,-0.255,-0.080
4546,-0.200,-0.085
4547,-0.205,-0.145
4548,-0.215,-0.155
4549,-0.285,-0.215
4550,-0.280,-0.270
4551,-0.335,-0.300
4552,-0.445,-0.270
4553,-0.455,-0.265
4554,-0.490,-0.310
4555,-0.480,-0.310
4556,-0.485,-0.325
4557,-0.495,-0.330
4558,-0.475,-0.325
4559,-0.465,-0.365
4560,-0.475,-0.375
4561,-0.460,-0.355
4562,-0.585,-0.345
4563,-0.590,-0.350
4564,-0.600,-0.460
4565,-0.340,-0.790
4566,-0.405,-0.820
4567,-0.510,-0.895
4568,-1.305,-0.095
4569,-2.320,-0.035
4570,-2.950,-2.100
4571,-3.020,-2.740
4572,-2.635,-2.440
4573,-2.145,-1.925
4574,-1.465,-1.215
4575,-0.790,-0.805
4576,-0.480,-0.370
4577,-0.360,-0.240
4578,-0.320,-0.210
4579,-0.260,-0.180
4580,-0.275,-0.200
4581,-0.265,-0.185
4582,-0.255,-0.170
4583,-0.270,-0.190
4584,-0.250,-0.210
4585,-0.235,-0.195
4586,-0.205,-0.180
4587,-0.200,-0.200
4588,-0.180,-0.180
4589,-0.135,-0.150
4590,-0.090,-0.130
4591,-0.055,-0.100
4592,0.020,-0.060
4593,0.045,-0.020
4594,0.095,0.000
4595,0.195,0.055
4596,0.240,0.115
4597,0.310,0.155
4598,0.360,0.240
4599,0.380,0.270
4600,0.455,0.305
4601,0.450,0.345
4602,0.455,0.355
4603,0.490,0.410
4604,0.485,0.425
4605,0.500,0.460
4606,0.465,0.465
4607,0.440,0.515
4608,0.420,0.505
4609,0.350,0.525
4610,0.300,0.510
4611,0.200,0.505
4612,0.075,0.515
4613,0.010,0.460
4614,-0.040,0.415
4615,-0.115,0.415
4616,-0.170,0.350
4617,-0.235,0.270
4618,-0.235,0.220
4619,-0.275,0.165
4620,-0.305,0.095
4621,-0.320,0.035
4622,-0.335,0.010
4623,-0.340,-0.010
4624,-0.355,-0.045
4625,-0.365,-0.085
4626,-0.385,-0.095
4627,-0.385,-0.120
4628,-0.415,-0.160
4629,-0.410,-0.220
4630,-0.440,-0.225
4631,-0.440,-0.210
4632,-0.450,-0.235
4633,-0.470,-0.255
4634,-0.455,-0.270
4635,-0.465,-0.280
4636,-0.500,-0.315
4637,-0.485,-0.305
4638,-0.500,-0.325
4639,-0.495,-0.310
4640,-0.485,-0.325
4641,-0.520,-0.335
4642,-0.515,-0.320
4643,-0.525,-0.305
4644,-0.530,-0.345
4645,-0.515,-0.330
4646,-0.535,-0.335
4647,-0.535,-0.320
4648,-0.520,-0.320
4649,-0.540,-0.325
4650,-0.515,-0.360
4651,-0.545,-0.315
4652,-0.545,-0.290
4653,-0.520,-0.325
4654,-0.535,-0.300
4655,-0.510,-0.295
4656,-0.510,-0.310
4657,-0.525,-0.300
4658,-0.515,-0.310
4659,-0.525,-0.300
4660,-0.525,-0.265
4661,-0.500,-0.250
4662,-0.525,-0.270
4663,-0.460,-0.260
4664,-0.400,-0.225
4665,-0.385,-0.150
4666,-0.345,-0.100
4667,-0.335,-0.040
4668,-0.285,-0.055
4669,-0.270,-0.130
4670,-0.295,-0.120
4671,-0.340,-0.205
4672,-0.385,-0.260
4673,-0.385,-0.280
4674,-0.510,-0.235
4675,-0.570,-0.230
4676,-0.575,-0.280
4677,-0.590,-0.305
4678,-0.590,-0.310
4679,-0.560,-0.320
4680,-0.575,-0.310
4681,-0.585,-0.275
4682,-0.570,-0.275
4683,-0.595,-0.320
4684,-0.690,-0.270
4685,-0.730,-0.300
4686,-0.700,-0.385
4687,-0.410,-0.630
4688,-0.555,-0.720
4689,-0.730,-0.695
4690,-1.405,0.045
4691,-2.410,0.250
4692,-2.970,-2.035
4693,-3.155,-2.870
4694,-2.850,-2.605
4695,-2.420,-2.065
4696,-1.765,-1.320
4697,-0.915,-0.800
4698,-0.600,-0.270
4699,-0.485,-0.145
4700,-0.435,-0.090
4701,-0.410,-0.075
4702,-0.405,-0.070
4703,-0.390,-0.070
4704,-0.390,-0.060
4705,-0.380,-0.030
4706,-0.355,-0.015
4707,-0.365,0.000
4708,-0.340,-0.025
4709,-0.325,-0.025
4710,-0.310,0.000
4711,-0.290,0.025
4712,-0.255,0.040
4713,-0.205,0.065
4714,-0.165,0.130
4715,-0.100,0.200
4716,-0.040,0.210
4717,-0.005,0.210
4718,0.045,0.310
4719,0.120,0.395
4720,0.165,0.470
4721,0.225,0.510
4722,0.250,0.530
4723,0.255,0.610
4724,0.285,0.605
4725,0.295,0.660
4726,0.295,0.675
4727,0.315,0.695
4728,0.275,0.710
4729,0.280,0.755
4730,0.245,0.755
4731,0.175,0.755
4732,0.115,0.735
4733,0.015,0.745
4734,-0.060,0.725
4735,-0.130,0.700
4736,-0.240,0.635
4737,-0.295,0.570
4738,-0.375,0.515
4739,-0.400,0.465
4740,-0.445,0.365
4741,-0.470,0.285
4742,-0.490,0.210
4743,-0.525,0.170
4744,-0.515,0.115
4745,-0.525,0.100
4746,-0.530,0.065
4747,-0.525,0.035
4748,-0.550,0.015
4749,-0.555,-0.025
4750,-0.550,-0.040
4751,-0.565,-0.090
4752,-0.580,-0.100
4753,-0.575,-0.115
4754,-0.590,-0.155
4755,-0.585,-0.170
4756,-0.615,-0.140
4757,-0.585,-0.215
4758,-0.605,-0.215
4759,-0.610,-0.205
4760,-0.610,-0.235
4761,-0.610,-0.210
4762,-0.625,-0.220
4763,-0.605,-0.245
4764,-0.625,-0.230
4765,-0.610,-0.230
4766,-0.615,-0.250
4767,-0.635,-0.250
4768,-0.630,-0.265
4769,-0.640,-0.250
4770,-0.625,-0.255
4771,-0.640,-0.260
4772,-0.625,-0.280
4773,-0.610,-0.245
4774,-0.625,-0.265
4775,-0.645,-0.285
4776,-0.610,-0.275
4777,-0.640,-0.245
4778,-0.605,-0.220
4779,-0.635,-0.225
4780,-0.615,-0.260
4781,-0.620,-0.230
4782,-0.630,-0.230
4783,-0.620,-0.245
4784,-0.590,-0.260
4785,-0.540,-0.240
4786,-0.480,-0.175
4787,-0.475,-0.115
4788,-0.440,-0.050
4789,-0.395,-0.040
4790,-0.380,-0.090
4791,-0.375,-0.100
4792,-0.430,-0.120
4793,-0.475,-0.225
4794,-0.490,-0.255
4795,-0.595,-0.260
4796,-0.635,-0.205
4797,-0.650,-0.255
4798,-0.660,-0.265
4799,-0.670,-0.265
4800,-0.700,-0.280
4801,-0.690,-0.290
4802,-0.660,-0.285
4803,-0.690,-0.290
4804,-0.695,-0.270
4805,-0.750,-0.265
4806,-0.790,-0.260
4807,-0.770,-0.340
4808,-0.550,-0.635
4809,-0.705,-0.745
4810,-0.945,-0.780
4811,-1.540,-0.120
4812,-2.420,0.085
4813,-3.095,-2.000
4814,-3.295,-2.910
4815,-3.025,-2.670
4816,-2.610,-2.135
4817,-1.930,-1.370
4818,-1.070,-0.800
4819,-0.680,-0.310
4820,-0.565,-0.125
4821,-0.520,-0.110
4822,-0.465,-0.090
4823,-0.435,-0.115
4824,-0.445,-0.105
4825,-0.425,-0.090
4826,-0.430,-0.105
4827,-0.420,-0.065
4828,-0.395,-0.080
4829,-0.405,-0.075
4830,-0.370,-0.045
4831,-0.360,-0.035
4832,-0.335,0.000
4833,-0.290,0.000
4834,-0.270,0.020
4835,-0.190,0.060
4836,-0.125,0.110
4837,-0.090,0.165
4838,-0.035,0.215
4839,0.000,0.235
4840,0.060,0.345
4841,0.105,0.420
4842,0.175,0.460
4843,0.195,0.505
4844,0.220,0.525
4845,0.230,0.570
4846,0.255,0.550
4847,0.225,0.570
4848,0.260,0.630
4849,0.255,0.645
4850,0.240,0.665
4851,0.210,0.670
4852,0.120,0.650
4853,0.045,0.650
4854,-0.015,0.620
4855,-0.130,0.615
4856,-0.180,0.560
4857,-0.305,0.520
4858,-0.340,0.435
4859,-0.395,0.385
4860,-0.475,0.290
4861,-0.465,0.215
4862,-0.505,0.170
4863,-0.535,0.120
4864,-0.520,0.050
4865,-0.555,0.035
4866,-0.555,-0.005
4867,-0.580,-0.035
4868,-0.585,-0.045
4869,-0.570,-0.085
4870,-0.595,-0.125
4871,-0.595,-0.130
4872,-0.610,-0.140
4873,-0.635,-0.200
4874,-0.630,-0.205
4875,-0.655,-0.245
4876,-0.655,-0.270
4877,-0.650,-0.250
4878,-0.655,-0.280
4879,-0.655,-0.305
4880,-0.650,-0.315
4881,-0.670,-0.315
4882,-0.665,-0.330
4883,-0.695,-0.340
4884,-0.690,-0.310
4885,-0.680,-0.350
4886,-0.665,-0.350
4887,-0.650,-0.330
4888,-0.690,-0.360
4889,-0.655,-0.360
4890,-0.640,-0.360
4891,-0.680,-0.355
4892,-0.670,-0.375
4893,-0.680,-0.355
4894,-0.680,-0.375
4895,-0.645,-0.350
4896,-0.665,-0.365
4897,-0.680,-0.385
4898,-0.670,-0.380
4899,-0.665,-0.375
4900,-0.650,-0.365
4901,-0.665,-0.360
4902,-0.645,-0.355
4903,-0.660,-0.360
4904,-0.650,-0.370
4905,-0.620,-0.365
4906,-0.550,-0.325
4907,-0.530,-0.270
4908,-0.500,-0.255
4909,-0.475,-0.190
4910,-0.415,-0.170
4911,-0.445,-0.265
4912,-0.440,-0.270
4913,-0.470,-0.345
4914,-0.495,-0.355
4915,-0.530,-0.420
4916,-0.640,-0.400
4917,-0.675,-0.385
4918,-0.675,-0.430
4919,-0.705,-0.450
4920,-0.665,-0.435
4921,-0.655,-0.460
4922,-0.670,-0.435
4923,-0.640,-0.445
4924,-0.665,-0.450
4925,-0.700,-0.425
4926,-0.780,-0.445
4927,-0.735,-0.475
4928,-0.695,-0.575
4929,-0.475,-0.960
4930,-0.840,-0.925
4931,-1.100,-0.785
4932,-1.920,0.075
4933,-2.740,-1.040
4934,-3.300,-2.825
4935,-3.160,-2.950
4936,-2.775,-2.535
4937,-2.220,-1.880
4938,-1.440,-1.175
4939,-0.785,-0.730
4940,-0.575,-0.365
4941,-0.480,-0.295
4942,-0.445,-0.285
4943,-0.430,-0.280
4944,-0.385,-0.295
4945,-0.420,-0.290
4946,-0.410,-0.260
4947,-0.385,-0.310
4948,-0.365,-0.295
4949,-0.345,-0.235
4950,-0.315,-0.270
4951,-0.305,-0.275
4952,-0.265,-0.240
4953,-0.245,-0.250
4954,-0.190,-0.195
4955,-0.145,-0.190
4956,-0.100,-0.150
4957,-0.045,-0.060
4958,0.000,-0.035
4959,0.080,0.010
4960,0.155,0.065
4961,0.215,0.130
4962,0.250,0.220
4963,0.280,0.225
4964,0.320,0.300
4965,0.350,0.310
4966,0.350,0.310
4967,0.370,0.375
4968,0.365,0.405
4969,0.395,0.390
4970,0.370,0.445
4971,0.305,0.480
4972,0.250,0.485
4973,0.205,0.485
4974,0.110,0.495
4975,0.005,0.450
4976,-0.070,0.435
4977,-0.110,0.370
4978,-0.215,0.320
4979,-0.250,0.245
4980,-0.300,0.190
4981,-0.340,0.115
4982,-0.360,0.040
4983,-0.380,-0.050
4984,-0.400,-0.075
4985,-0.395,-0.105
4986,-0.420,-0.135
4987,-0.390,-0.165
4988,-0.440,-0.195
4989,-0.445,-0.245
4990,-0.425,-0.315
4991,-0.455,-0.305
4992,-0.435,-0.325
4993,-0.475,-0.345
4994,-0.470,-0.400
4995,-0.455,-0.420
4996,-0.490,-0.440
4997,-0.485,-0.445
4998,-0.480,-0.490
4999,-0.520,-0.475
5000,-0.485,-0.465
5001,-0.495,-0.480
5002,-0.470,-0.495
5003,-0.480,-0.510
5004,-0.450,-0.500
5005,-0.475,-0.545
5006,-0.470,-0.525
5007,-0.485,-0.525
5008,-0.460,-0.520
5009,-0.500,-0.550
5010,-0.485,-0.580
5011,-0.465,-0.585
5012,-0.465,-0.550
5013,-0.470,-0.540
5014,-0.475,-0.520
5015,-0.465,-0.550
5016,-0.465,-0.560
5017,-0.480,-0.590
5018,-0.460,-0.580
5019,-0.445,-0.540
5020,-0.470,-0.540
5021,-0.475,-0.565
5022,-0.445,-0.560
5023,-0.480,-0.530
5024,-0.455,-0.560
5025,-0.430,-0.555
5026,-0.355,-0.505
5027,-0.360,-0.455
5028,-0.340,-0.405
5029,-0.270,-0.345
5030,-0.230,-0.385
5031,-0.220,-0.415
5032,-0.200,-0.445
5033,-0.275,-0.535
5034,-0.290,-0.535
5035,-0.380,-0.595
5036,-0.475,-0.555
5037,-0.475,-0.590
5038,-0.480,-0.600
5039,-0.520,-0.625
5040,-0.510,-0.650
5041,-0.485,-0.655
5042,-0.485,-0.635
5043,-0.505,-0.635
5044,-0.505,-0.605
5045,-0.585,-0.600
5046,-0.650,-0.625
5047,-0.665,-0.655
5048,-0.535,-0.820
5049,-0.305,-1.085
5050,-0.355,-1.085
5051,-0.720,-0.660
5052,-1.820,0.170
5053,-2.615,-1.515
5054,-2.980,-2.940
5055,-2.610,-2.905
5056,-2.255,-2.440
5057,-1.705,-1.705
5058,-0.940,-1.180
5059,-0.550,-0.720
5060,-0.445,-0.530
5061,-0.415,-0.450
5062,-0.330,-0.460
5063,-0.330,-0.455
5064,-0.310,-0.440
5065,-0.300,-0.420
5066,-0.320,-0.435
5067,-0.265,-0.410
5068,-0.310,-0.415
5069,-0.290,-0.420
5070,-0.230,-0.410
5071,-0.205,-0.415
5072,-0.160,-0.385
5073,-0.135,-0.365
5074,-0.100,-0.345
5075,-0.030,-0.305
5076,0.005,-0.255
5077,0.000,-0.175
5078,0.120,-0.150
5079,0.130,-0.125
5080,0.230,-0.045
5081,0.275,-0.005
5082,0.285,0.045
5083,0.370,0.040
5084,0.405,0.105
5085,0.405,0.110
5086,0.415,0.110
5087,0.380,0.105
5088,0.390,0.160
5089,0.395,0.155
5090,0.385,0.195
5091,0.345,0.200
5092,0.300,0.205
5093,0.220,0.175
5094,0.080,0.145
5095,0.045,0.130
5096,-0.030,0.100
5097,-0.130,0.060
5098,-0.185,0.015
5099,-0.240,-0.070
5100,-0.310,-0.125
5101,-0.330,-0.210
5102,-0.350,-0.320
5103,-0.355,-0.340
5104,-0.360,-0.385
5105,-0.370,-0.425
5106,-0.360,-0.500
5107,-0.420,-0.525
5108,-0.425,-0.565
5109,-0.390,-0.605
5110,-0.440,-0.640
5111,-0.445,-0.690
5112,-0.455,-0.730
5113,-0.460,-0.760
5114,-0.480,-0.785
5115,-0.490,-0.755
5116,-0.475,-0.825
5117,-0.455,-0.795
5118,-0.485,-0.830
5119,-0.525,-0.855
5120,-0.525,-0.885
5121,-0.540,-0.925
5122,-0.500,-0.920
5123,-0.520,-0.905
5124,-0.505,-0.895
5125,-0.510,-0.920
5126,-0.540,-0.920
5127,-0.480,-0.950
5128,-0.500,-0.915
5129,-0.545,-0.915
5130,-0.525,-0.935
5131,-0.535,-0.930
5132,-0.530,-0.950
5133,-0.515,-0.955
5134,-0.520,-0.925
5135,-0.500,-0.955
5136,-0.535,-0.970
5137,-0.505,-0.950
5138,-0.505,-0.955
5139,-0.530,-0.955
5140,-0.555,-0.975
5141,-0.530,-0.970
5142,-0.500,-0.960
5143,-0.535,-0.950
5144,-0.530,-0.955
5145,-0.490,-0.940
5146,-0.435,-0.950
5147,-0.425,-0.900
5148,-0.420,-0.825
5149,-0.345,-0.785
5150,-0.325,-0.755
5151,-0.295,-0.765
5152,-0.280,-0.850
5153,-0.340,-0.830
5154,-0.390,-0.890
5155,-0.380,-0.945
5156,-0.425,-0.935
5157,-0.530,-0.905
5158,-0.555,-0.900
5159,-0.540,-0.970
5160,-0.585,-0.945
5161,-0.630,-0.960
5162,-0.540,-0.950
5163,-0.545,-0.945
5164,-0.555,-0.955
5165,-0.555,-0.935
5166,-0.590,-0.935
5167,-0.660,-0.930
5168,-0.680,-0.990
5169,-0.515,-1.180
5170,-0.485,-1.360
5171,-0.775,-1.305
5172,-1.240,-0.805
5173,-2.110,-0.320
5174,-2.790,-2.310
5175,-3.055,-3.560
5176,-2.735,-3.330
5177,-2.355,-2.745
5178,-1.685,-1.995
5179,-0.895,-1.360
5180,-0.530,-0.910
5181,-0.430,-0.715
5182,-0.330,-0.705
5183,-0.295,-0.665
5184,-0.280,-0.675
5185,-0.285,-0.650
5186,-0.305,-0.650
5187,-0.240,-0.630
5188,-0.230,-0.620
5189,-0.215,-0.605
5190,-0.230,-0.600
5191,-0.220,-0.605
5192,-0.185,-0.600
5193,-0.135,-0.575
5194,-0.165,-0.520
5195,-0.045,-0.500
5196,-0.005,-0.465
5197,0.035,-0.470
5198,0.050,-0.405
5199,0.105,-0.390
5200,0.210,-0.290
5201,0.270,-0.255
5202,0.300,-0.195
5203,0.335,-0.145
5204,0.365,-0.100
5205,0.455,-0.050
5206,0.440,-0.010
5207,0.390,-0.035
5208,0.430,0.055
5209,0.430,0.055
5210,0.420,0.095
5211,0.425,0.110
5212,0.405,0.145
5213,0.370,0.150
5214,0.300,0.120
5215,0.215,0.160
5216,0.065,0.125
5217,0.005,0.105
5218,-0.055,0.055
5219,-0.135,0.040
5220,-0.185,0.005
5221,-0.190,-0.140
5222,-0.245,-0.210
5223,-0.300,-0.290
5224,-0.335,-0.320
5225,-0.345,-0.360
5226,-0.370,-0.375
5227,-0.430,-0.350
5228,-0.315,-0.360
5229,-0.310,-0.450
5230,-0.380,-0.540
5231,-0.375,-0.555
5232,-0.355,-0.505
5233,-0.405,-0.480
5234,-0.420,-0.465
5235,-0.475,-0.490
5236,-0.500,-0.450
5237,-0.450,-0.390
5238,-0.340,-0.455
5239,-0.415,-0.610
5240,-0.475,-0.570
5241,-0.445,-0.550
5242,-0.445,-0.485
5243,-0.510,-0.470
5244,-0.470,-0.415
5245,-0.455,-0.320
5246,-0.515,-0.360
5247,-0.510,-0.390
5248,-0.510,-0.355
5249,-0.395,-0.295
5250,-0.365,-0.355
5251,-0.535,-0.360
5252,-0.565,-0.290
5253,-0.510,-0.240
5254,-0.480,-0.270
5255,-0.425,-0.275
5256,-0.460,-0.255
5257,-0.470,-0.185
5258,-0.495,-0.160
5259,-0.440,-0.180
5260,-0.450,-0.195
5261,-0.515,-0.180
5262,-0.485,-0.115
5263,-0.495,-0.135
5264,-0.445,-0.150
5265,-0.455,-0.135
5266,-0.400,-0.100
5267,-0.430,0.010
5268,-0.380,0.165
5269,-0.315,0.075
5270,-0.295,0.150
5271,-0.225,0.090
5272,-0.215,-0.010
5273,-0.245,-0.055
5274,-0.320,-0.015
5275,-0.360,-0.150
5276,-0.430,-0.120
5277,-0.560,-0.060
5278,-0.565,0.000
5279,-0.490,-0.025
5280,-0.450,-0.225
5281,-0.490,-0.190
5282,-0.570,-0.060
5283,-0.565,-0.015
5284,-0.445,-0.090
5285,-0.435,-0.230
5286,-0.545,-0.130
5287,-0.585,-0.070
5288,-0.505,-0.095
5289,-0.520,-0.220
5290,-0.480,-0.455
5291,-0.780,-0.625
5292,-1.185,-0.270
5293,-2.085,0.255
5294,-2.650,-1.435
5295,-2.965,-2.480
5296,-2.850,-2.245
5297,-2.450,-1.680
5298,-1.805,-1.080
5299,-0.995,-0.505
5300,-0.490,-0.085
5301,-0.385,0.130
5302,-0.320,0.285
5303,-0.215,0.325
5304,-0.170,0.190
5305,-0.205,0.250
5306,-0.210,0.225
5307,-0.210,0.255
5308,-0.205,0.325
5309,-0.220,0.360
5310,-0.150,0.400
5311,-0.110,0.400
5312,-0.095,0.465
5313,-0.050,0.515
5314,-0.025,0.460
5315,-0.015,0.535
5316,0.030,0.590
5317,0.035,0.575
5318,0.070,0.615
5319,0.145,0.810
5320,0.275,0.855
5321,0.280,0.685
5322,0.425,0.790
5323,0.465,0.805
5324,0.395,0.770
5325,0.400,0.870
5326,0.445,0.865
5327,0.440,0.920
5328,0.505,1.040
5329,0.485,1.105
5330,0.415,1.005
5331,0.475,1.050
5332,0.430,1.065
5333,0.415,1.365
5334,0.390,1.420
5335,0.270,1.120
5336,0.210,1.020
5337,0.075,1.005
5338,0.025,1.080
5339,0.025,0.925
5340,-0.070,0.890
5341,-0.070,0.930
5342,-0.155,0.930
5343,-0.250,0.935
5344,-0.170,0.940
5345,-0.195,0.750
5346,-0.225,0.670
5347,-0.285,0.675
5348,-0.350,0.645
5349,-0.280,0.620
5350,-0.280,0.650
5351,-0.285,0.635
5352,-0.315,0.625
5353,-0.375,0.615
5354,-0.310,0.570
5355,-0.290,0.535
5356,-0.305,0.495
5357,-0.380,0.410
5358,-0.395,0.425
5359,-0.455,0.505
5360,-0.400,0.560
5361,-0.390,0.300
5362,-0.425,0.335
5363,-0.405,0.400
5364,-0.370,0.450
5365,-0.360,0.385
5366,-0.425,0.365
5367,-0.500,0.415
5368,-0.455,0.470
5369,-0.445,0.455
5370,-0.390,0.290
5371,-0.400,0.270
5372,-0.390,0.165
5373,-0.475,0.200
5374,-0.430,0.290
5375,-0.455,0.465
5376,-0.395,0.360
5377,-0.440,0.240
5378,-0.385,0.350
5379,-0.375,0.425
5380,-0.440,0.350
5381,-0.490,0.265
5382,-0.440,0.310
5383,-0.385,0.380
5384,-0.360,0.355
5385,-0.385,0.355
5386,-0.350,0.340
5387,-0.305,0.445
5388,-0.275,0.450
5389,-0.165,0.490
5390,-0.135,0.655
5391,-0.130,0.570
5392,-0.190,0.385
5393,-0.200,0.270
5394,-0.240,0.260
5395,-0.285,0.300
5396,-0.385,0.310
5397,-0.385,0.320
5398,-0.420,0.320
5399,-0.405,0.310
5400,-0.435,0.250
5401,-0.470,0.200
5402,-0.450,0.195
5403,-0.440,0.250
5404,-0.335,0.260
5405,-0.365,0.215
5406,-0.605,0.290
5407,-0.630,0.250
5408,-0.570,0.250
5409,-0.310,-0.070
5410,-0.360,-0.360
5411,-0.610,-0.315
5412,-1.180,0.160
5413,-2.040,0.395
5414,-2.720,-1.390
5415,-2.965,-2.095
5416,-2.670,-1.845
5417,-2.215,-1.410
5418,-1.425,-0.670
5419,-0.760,-0.255
5420,-0.440,0.225
5421,-0.375,0.325
5422,-0.275,0.330
5423,-0.150,0.385
5424,-0.205,0.390
5425,-0.185,0.335
5426,-0.165,0.415
5427,-0.200,0.380
5428,-0.195,0.410
5429,-0.110,0.415
5430,-0.130,0.445
5431,-0.105,0.525
5432,-0.060,0.440
5433,-0.050,0.425
5434,0.005,0.435
5435,0.070,0.485
5436,0.100,0.505
5437,0.040,0.590
5438,0.125,0.710
5439,0.230,0.710
5440,0.305,0.750
5441,0.375,0.790
5442,0.420,0.740
5443,0.440,0.865
5444,0.480,0.920
5445,0.520,0.960
5446,0.545,1.000
5447,0.450,1.020
5448,0.485,1.055
5449,0.540,1.075
5450,0.510,1.095
5451,0.470,1.115
5452,0.460,1.185
5453,0.380,1.130
5454,0.330,1.135
5455,0.325,1.115
5456,0.130,1.290
5457,0.085,1.195
5458,0.055,0.895
5459,-0.025,0.910
5460,-0.130,1.000
5461,-0.070,1.145
5462,-0.115,0.845
5463,-0.200,0.655
5464,-0.140,0.775
5465,-0.150,0.760
5466,-0.260,0.765
5467,-0.260,0.675
5468,-0.205,0.615
5469,-0.290,0.605
5470,-0.260,0.665
5471,-0.200,0.590
5472,-0.280,0.495
5473,-0.230,0.485
5474,-0.250,0.485
5475,-0.255,0.425
5476,-0.280,0.425
5477,-0.300,0.495
5478,-0.260,0.420
5479,-0.365,0.400
5480,-0.315,0.500
5481,-0.305,0.480
5482,-0.350,0.365
5483,-0.350,0.335
5484,-0.260,0.415
5485,-0.290,0.440
5486,-0.360,0.455
5487,-0.335,0.430
5488,-0.305,0.380
5489,-0.330,0.325
5490,-0.375,0.385
5491,-0.235,0.335
5492,-0.310,0.390
5493,-0.355,0.315
5494,-0.360,0.405
5495,-0.385,0.385
5496,-0.365,0.340
5497,-0.325,0.380
5498,-0.390,0.465
5499,-0.305,0.345
5500,-0.375,0.320
5501,-0.345,0.420
5502,-0.320,0.450
5503,-0.335,0.395
5504,-0.295,0.440
5505,-0.240,0.520
5506,-0.215,0.480
5507,-0.170,0.580
5508,-0.185,0.595
5509,-0.130,0.625
5510,-0.085,0.595
5511,-0.115,0.590
5512,-0.175,0.390
5513,-0.235,0.335
5514,-0.285,0.370
5515,-0.330,0.425
5516,-0.340,0.360
5517,-0.395,0.330
5518,-0.420,0.450
5519,-0.440,0.325
5520,-0.395,0.425
5521,-0.385,0.600
5522,-0.350,0.545
5523,-0.360,0.465
5524,-0.435,0.405
5525,-0.545,0.375
5526,-0.575,0.340
5527,-0.270,0.205
5528,-0.130,0.045
5529,-0.250,-0.075
5530,-0.605,0.240
5531,-1.640,1.075
5532,-2.455,-0.210
5533,-2.840,-1.910
5534,-2.720,-1.860
5535,-2.360,-1.625
5536,-1.905,-0.905
5537,-1.110,-0.080
5538,-0.515,0.025
5539,-0.340,0.215
5540,-0.305,0.225
5541,-0.180,0.595
5542,-0.185,0.285
5543,-0.060,0.315
5544,-0.080,0.505
5545,-0.275,0.300
5546,-0.175,0.515
5547,-0.170,0.490
5548,-0.120,0.450
5549,-0.090,0.480
5550,-0.015,0.595
5551,0.000,0.605
5552,0.070,0.490
5553,0.060,0.595
5554,0.145,0.975
5555,0.160,0.910
5556,0.255,0.295
5557,0.285,0.470
5558,0.320,0.685
5559,0.370,0.985
5560,0.480,1.070
5561,0.640,0.890
5562,0.670,0.870
5563,0.525,0.990
5564,0.525,1.170
5565,0.620,1.195
5566,0.620,0.975
5567,0.655,1.080
5568,0.600,1.195
5569,0.610,1.135
5570,0.580,1.215
5571,0.550,1.135
5572,0.435,1.190
5573,0.400,1.180
5574,0.270,1.165
5575,0.305,1.155
5576,0.205,1.085
5577,0.035,0.975
5578,-0.045,0.995
5579,-0.005,0.905
5580,-0.030,0.820
5581,-0.105,1.005
5582,-0.080,0.820
5583,-0.010,0.665
5584,-0.180,0.620
5585,-0.220,0.825
5586,-0.110,0.680
5587,-0.220,0.545
5588,-0.210,0.600
5589,-0.195,0.635
5590,-0.240,0.600
5591,-0.205,0.360
5592,-0.190,0.455
5593,-0.250,0.550
5594,-0.260,0.375
5595,-0.230,0.490
5596,-0.200,0.410
5597,-0.295,0.370
5598,-0.295,0.480
5599,-0.220,0.390
5600,-0.225,0.455
5601,-0.295,0.390
5602,-0.275,0.420
5603,-0.265,0.275
5604,-0.215,0.340
5605,-0.290,0.470
5606,-0.275,0.400
5607,-0.250,0.305
5608,-0.205,0.375
5609,-0.210,0.330
5610,-0.285,0.320
5611,-0.250,0.475
5612,-0.235,0.365
5613,-0.295,0.385
5614,-0.190,0.220
5615,-0.230,0.285
5616,-0.255,0.295
5617,-0.235,0.275
5618,-0.245,0.475
5619,-0.255,0.340
5620,-0.200,0.340
5621,-0.150,0.120
5622,-0.110,0.370
5623,-0.145,0.490
5624,-0.015,0.315
5625,0.005,0.485
5626,-0.010,0.495
5627,-0.015,0.455
5628,-0.045,0.320
5629,-0.060,0.260
5630,-0.100,0.135
5631,-0.170,0.150
5632,-0.240,0.310
5633,-0.295,0.340
5634,-0.300,0.100
5635,-0.280,0.250
5636,-0.255,0.085
5637,-0.285,0.075
5638,-0.340,0.170
5639,-0.320,0.270
5640,-0.265,0.300
5641,-0.350,0.050
5642,-0.395,0.085
5643,-0.360,0.075
5644,-0.155,0.030
5645,-0.085,-0.215
5646,-0.320,-0.310
5647,-0.770,0.105
5648,-1.760,0.310
5649,-2.515,-1.065
5650,-2.895,-2.120
5651,-2.595,-1.805
5652,-2.260,-1.520
5653,-1.535,-0.605
5654,-0.815,-0.520
5655,-0.355,-0.100
5656,-0.255,0.305
5657,-0.175,0.455
5658,-0.065,0.275
5659,-0.100,0.335
5660,-0.040,0.250
5661,-0.040,0.160
5662,-0.055,0.375
5663,-0.050,0.315
5664,-0.025,0.330
5665,-0.015,0.340
5666,0.010,0.150
5667,0.005,0.260
5668,0.035,0.460
5669,0.095,0.450
5670,0.075,0.265
5671,0.150,0.245
5672,0.240,0.500
5673,0.250,0.345
5674,0.340,0.700
5675,0.400,0.375
5676,0.450,0.440
5677,0.500,0.635
5678,0.550,0.530
5679,0.600,0.770
5680,0.600,0.580
5681,0.610,0.575
5682,0.610,0.680
5683,0.620,0.910
5684,0.685,0.770
5685,0.680,0.690
5686,0.625,0.720
5687,0.580,0.815
5688,0.505,0.775
5689,0.460,0.855
5690,0.420,0.735
5691,0.280,0.650
5692,0.195,0.840
5693,0.130,0.810
5694,0.085,0.610
5695,0.040,0.680
5696,0.010,0.560
5697,0.030,0.600
5698,-0.090,0.365
5699,-0.100,0.445
5700,-0.110,0.575
5701,-0.105,0.225
5702,-0.070,0.440
5703,-0.145,0.235
5704,-0.155,0.260
5705,-0.125,0.405
5706,-0.120,0.155
5707,-0.150,0.185
5708,-0.195,0.255
5709,-0.165,0.060
5710,-0.150,0.135
5711,-0.210,0.105
5712,-0.195,0.025
5713,-0.215,0.015
5714,-0.215,0.185
5715,-0.200,-0.015
5716,-0.235,-0.060
5717,-0.240,0.125
5718,-0.200,-0.015
5719,-0.210,-0.040
5720,-0.245,-0.060
5721,-0.235,0.040
5722,-0.250,0.035
5723,-0.220,0.125
5724,-0.200,-0.130
5725,-0.205,-0.015
5726,-0.245,-0.160
5727,-0.265,0.090
5728,-0.190,-0.110
5729,-0.265,-0.130
5730,-0.220,-0.130
5731,-0.255,-0.040
5732,-0.265,0.110
5733,-0.205,-0.030
5734,-0.180,-0.165
5735,-0.260,-0.190
5736,-0.230,-0.050
5737,-0.165,-0.040
5738,-0.110,-0.030
5739,-0.120,0.070
5740,-0.070,0.115
5741,-0.015,0.040
5742,-0.005,0.030
5743,0.020,0.060
5744,-0.030,-0.010
5745,-0.090,0.040
5746,-0.125,-0.165
5747,-0.170,-0.225
5748,-0.290,-0.205
5749,-0.300,0.020
5750,-0.305,-0.010
5751,-0.280,-0.270
5752,-0.305,-0.090
5753,-0.325,-0.315
5754,-0.270,-0.225
5755,-0.355,-0.205
5756,-0.320,-0.090
5757,-0.355,-0.270
5758,-0.480,-0.185
5759,-0.440,-0.260
5760,-0.090,-0.465
5761,-0.240,-0.745
5762,-0.385,-0.630
5763,-1.050,-0.155
5764,-1.995,-0.270
5765,-2.730,-1.980
5766,-2.935,-2.380
5767,-2.580,-2.055
5768,-2.115,-1.675
5769,-1.410,-1.015
5770,-0.685,-0.630
5771,-0.340,-0.060
5772,-0.180,-0.130
5773,-0.145,-0.140
5774,-0.130,0.010
5775,-0.075,-0.195
5776,-0.070,-0.045
5777,-0.085,0.025
5778,-0.055,-0.095
5779,-0.105,-0.030
5780,0.000,-0.045
5781,-0.020,0.010
5782,0.000,-0.080
5783,0.020,-0.065
5784,0.030,0.085
5785,0.045,-0.020
5786,0.105,0.040
5787,0.205,0.130
5788,0.260,-0.095
5789,0.240,0.175
5790,0.370,0.155
5791,0.420,0.210
5792,0.430,0.345
5793,0.520,0.200
5794,0.535,0.225
5795,0.565,0.550
5796,0.660,0.410
5797,0.630,0.255
5798,0.605,0.370
5799,0.635,0.550
5800,0.650,0.505
5801,0.630,0.470
5802,0.575,0.495
5803,0.590,0.540
5804,0.475,0.545
5805,0.425,0.490
5806,0.355,0.530
5807,0.305,0.555
5808,0.205,0.440
5809,0.120,0.425
5810,0.070,0.410
5811,-0.020,0.350
5812,-0.020,0.390
5813,-0.030,0.185
5814,-0.075,0.110
5815,-0.110,0.080
5816,-0.115,0.195
5817,-0.120,0.110
5818,-0.105,0.010
5819,-0.140,0.115
5820,-0.135,0.145
5821,-0.145,-0.040
5822,-0.170,-0.105
5823,-0.125,-0.045
5824,-0.110,-0.040
5825,-0.235,-0.100
5826,-0.140,-0.025
5827,-0.125,-0.185
5828,-0.210,-0.080
5829,-0.215,-0.155
5830,-0.205,-0.095
5831,-0.185,-0.190
5832,-0.195,-0.300
5833,-0.185,-0.025
5834,-0.175,-0.205
5835,-0.220,-0.185
5836,-0.185,-0.090
5837,-0.150,-0.295
5838,-0.240,-0.240
5839,-0.195,-0.035
5840,-0.135,-0.140
5841,-0.185,-0.405
5842,-0.155,-0.275
5843,-0.225,-0.040
5844,-0.170,-0.270
5845,-0.160,-0.320
5846,-0.200,-0.150
5847,-0.190,-0.150
5848,-0.200,-0.355
5849,-0.210,-0.025
5850,-0.165,-0.195
5851,-0.185,-0.340
5852,-0.150,-0.170
5853,-0.105,-0.150
5854,-0.060,-0.060
5855,-0.050,-0.135
5856,-0.015,-0.175
5857,-0.010,0.025
5858,0.020,0.010
5859,0.015,-0.250
5860,-0.020,-0.300
5861,-0.055,-0.130
5862,-0.100,-0.145
5863,-0.160,-0.285
5864,-0.250,-0.415
5865,-0.265,-0.110
5866,-0.225,-0.465
5867,-0.290,-0.265
5868,-0.225,-0.235
5869,-0.285,-0.230
5870,-0.250,-0.425
5871,-0.285,-0.245
5872,-0.340,-0.515
5873,-0.500,-0.315
5874,-0.425,-0.250
5875,-0.125,-0.320
5876,0.060,-0.720
5877,-0.025,-0.840
5878,-0.330,-0.515
5879,-1.400,0.155
5880,-2.315,-1.350
5881,-2.760,-2.470
5882,-2.515,-2.145
5883,-2.165,-2.070
5884,-1.570,-1.225
5885,-0.795,-0.745
5886,-0.365,-0.405
5887,-0.255,-0.200
5888,-0.225,-0.285
5889,-0.160,-0.200
5890,-0.165,-0.170
5891,-0.145,-0.185
5892,-0.155,-0.115
5893,-0.155,-0.245
5894,-0.125,-0.235
5895,-0.140,-0.155
5896,-0.110,-0.195
5897,-0.075,-0.210
5898,-0.065,-0.045
5899,-0.025,-0.115
5900,-0.005,-0.050
5901,0.045,-0.300
5902,0.055,0.065
5903,0.160,0.025
5904,0.195,-0.120
5905,0.210,0.130
5906,0.315,0.020
5907,0.360,0.170
5908,0.395,0.320
5909,0.415,0.055
5910,0.455,0.165
5911,0.475,0.205
5912,0.470,0.355
5913,0.515,0.390
5914,0.505,0.260
5915,0.530,0.345
5916,0.460,0.280
5917,0.440,0.260
5918,0.415,0.405
5919,0.360,0.360
5920,0.300,0.480
5921,0.210,0.425
5922,0.110,0.275
5923,0.010,0.460
5924,-0.020,0.370
5925,-0.050,0.240
5926,-0.130,0.050
5927,-0.195,0.275
5928,-0.220,0.235
5929,-0.275,0.115
5930,-0.220,0.050
5931,-0.295,0.000
5932,-0.280,0.115
5933,-0.260,-0.075
5934,-0.290,-0.140
5935,-0.355,-0.015
5936,-0.360,0.030
5937,-0.325,-0.160
5938,-0.355,-0.370
5939,-0.375,-0.120
5940,-0.390,-0.145
5941,-0.370,-0.100
5942,-0.400,-0.370
5943,-0.390,-0.255
5944,-0.455,-0.245
5945,-0.405,-0.145
5946,-0.425,-0.290
5947,-0.370,-0.315
5948,-0.405,-0.270
5949,-0.430,-0.375
5950,-0.425,-0.340
5951,-0.465,-0.100
5952,-0.425,-0.265
5953,-0.380,-0.510
5954,-0.415,-0.295
5955,-0.390,-0.135
5956,-0.450,-0.400
5957,-0.465,-0.205
5958,-0.405,-0.340
5959,-0.445,-0.385
5960,-0.435,-0.340
5961,-0.440,-0.425
5962,-0.465,-0.130
5963,-0.405,-0.295
5964,-0.400,-0.395
5965,-0.410,-0.350
5966,-0.470,-0.280
5967,-0.475,-0.270
5968,-0.380,-0.220
5969,-0.345,-0.350
5970,-0.320,-0.370
5971,-0.330,-0.150
5972,-0.285,-0.125
5973,-0.215,-0.130
5974,-0.205,-0.125
5975,-0.240,-0.275
5976,-0.275,-0.390
5977,-0.315,-0.220
5978,-0.360,-0.310
5979,-0.435,-0.310
5980,-0.480,-0.395
5981,-0.515,-0.260
5982,-0.535,-0.435
5983,-0.570,-0.340
5984,-0.520,-0.435
5985,-0.525,-0.400
5986,-0.540,-0.330
5987,-0.510,-0.370
5988,-0.550,-0.455
5989,-0.690,-0.365
5990,-0.690,-0.345
5991,-0.590,-0.420
5992,-0.175,-0.785
5993,-0.550,-0.915
5994,-0.640,-0.665
5995,-1.430,-0.045
5996,-2.380,-0.585
5997,-2.960,-2.500
5998,-2.990,-2.545
5999,-2.720,-2.140
6000,-2.180,-1.645
6001,-1.480,-1.030
6002,-0.740,-0.735
6003,-0.485,-0.375
6004,-0.465,-0.240
6005,-0.370,-0.185
6006,-0.375,-0.265
6007,-0.370,-0.290
6008,-0.355,-0.170
6009,-0.355,-0.205
6010,-0.310,-0.255
6011,-0.305,-0.360
6012,-0.295,-0.080
6013,-0.290,-0.135
6014,-0.280,-0.040
6015,-0.210,-0.265
6016,-0.220,-0.155
6017,-0.150,-0.225
6018,-0.160,-0.035
6019,-0.100,0.045
6020,-0.010,0.020
6021,0.005,-0.175
6022,0.100,0.040
6023,0.150,0.085
6024,0.210,0.105
6025,0.240,0.215
6026,0.280,0.255
6027,0.290,0.070
6028,0.290,0.425
6029,0.335,0.110
6030,0.320,0.240
6031,0.325,0.330
6032,0.310,0.385
6033,0.325,0.400
6034,0.315,0.240
6035,0.230,0.275
6036,0.165,0.395
6037,0.105,0.390
6038,0.030,0.395
6039,-0.055,0.435
6040,-0.150,0.285
6041,-0.175,0.155
6042,-0.280,0.325
6043,-0.295,0.385
6044,-0.305,0.080
6045,-0.335,-0.010
6046,-0.415,-0.035
6047,-0.470,0.035
6048,-0.460,0.050
6049,-0.450,-0.160
6050,-0.500,0.005
6051,-0.445,-0.030
6052,-0.480,-0.325
6053,-0.540,-0.070
6054,-0.500,-0.035
6055,-0.505,-0.230
6056,-0.545,-0.310
6057,-0.550,-0.185
6058,-0.515,-0.310
6059,-0.535,-0.170
6060,-0.525,-0.260
6061,-0.550,-0.295
6062,-0.535,-0.345
6063,-0.595,-0.220
6064,-0.520,-0.275
6065,-0.550,-0.400
6066,-0.590,-0.155
6067,-0.550,-0.445
6068,-0.595,-0.335
6069,-0.570,-0.250
6070,-0.520,-0.220
6071,-0.565,-0.585
6072,-0.575,-0.445
6073,-0.580,-0.265
6074,-0.575,-0.245
6075,-0.590,-0.305
6076,-0.540,-0.195
6077,-0.570,-0.380
6078,-0.570,-0.405
6079,-0.550,-0.420
6080,-0.530,-0.245
6081,-0.585,-0.125
6082,-0.500,-0.425
6083,-0.575,-0.290
6084,-0.525,-0.330
6085,-0.510,-0.435
6086,-0.430,-0.120
6087,-0.400,-0.080
6088,-0.345,-0.240
6089,-0.365,-0.140
6090,-0.270,-0.045
6091,-0.295,-0.275
6092,-0.375,-0.185
6093,-0.395,-0.205
6094,-0.405,-0.285
6095,-0.435,-0.460
6096,-0.520,-0.230
6097,-0.595,-0.310
6098,-0.625,-0.400
6099,-0.610,-0.305
6100,-0.590,-0.285
6101,-0.560,-0.480
6102,-0.560,-0.420
6103,-0.590,-0.300
6104,-0.555,-0.205
6105,-0.625,-0.535
6106,-0.745,-0.270
6107,-0.695,-0.355
6108,-0.565,-0.485
6109,-0.290,-0.840
6110,-0.675,-0.755
6111,-0.855,-0.825
6112,-1.600,0.085
6113,-2.430,-0.775
6114,-2.995,-2.455
6115,-3.020,-2.510
6116,-2.735,-2.115
6117,-2.230,-1.515
6118,-1.465,-0.945
6119,-0.765,-0.590
6120,-0.545,-0.205
6121,-0.465,-0.220
6122,-0.360,-0.250
6123,-0.390,-0.240
6124,-0.435,-0.070
6125,-0.360,-0.080
6126,-0.350,-0.335
6127,-0.340,-0.070
6128,-0.290,-0.180
6129,-0.290,-0.205
6130,-0.335,-0.165
6131,-0.305,-0.300
6132,-0.295,-0.140
6133,-0.255,0.050
6134,-0.200,-0.025
6135,-0.165,-0.200
6136,-0.155,-0.045
6137,-0.135,0.000
6138,-0.030,0.000
6139,0.055,0.005
6140,0.080,0.135
6141,0.130,0.060
6142,0.150,0.230
6143,0.225,0.235
6144,0.265,0.165
6145,0.245,0.135
6146,0.345,0.320
6147,0.280,0.200
6148,0.295,0.475
6149,0.310,0.310
6150,0.295,0.220
6151,0.295,0.280
6152,0.280,0.385
6153,0.215,0.470
6154,0.195,0.450
6155,0.125,0.375
6156,0.040,0.445
6157,-0.050,0.230
6158,-0.135,0.320
6159,-0.175,0.330
6160,-0.245,0.320
6161,-0.315,0.265
6162,-0.335,0.010
6163,-0.355,0.235
6164,-0.370,0.000
6165,-0.400,-0.010
6166,-0.460,0.120
6167,-0.440,-0.050
6168,-0.470,-0.040
6169,-0.485,0.005
6170,-0.450,-0.110
6171,-0.450,-0.090
6172,-0.495,-0.175
6173,-0.485,-0.140
6174,-0.530,-0.170
6175,-0.540,-0.060
6176,-0.515,-0.100
6177,-0.520,-0.380
6178,-0.510,-0.175
6179,-0.525,-0.240
6180,-0.555,-0.260
6181,-0.495,-0.155
6182,-0.505,-0.435
6183,-0.585,-0.195
6184,-0.585,-0.330
6185,-0.575,-0.100
6186,-0.480,-0.235
6187,-0.545,-0.605
6188,-0.585,-0.295
6189,-0.560,-0.075
6190,-0.535,-0.375
6191,-0.555,-0.320
6192,-0.560,-0.260
6193,-0.515,-0.310
6194,-0.545,-0.375
6195,-0.540,-0.230
6196,-0.585,-0.210
6197,-0.555,-0.235
6198,-0.525,-0.190
6199,-0.520,-0.510
6200,-0.520,-0.380
6201,-0.525,-0.135
6202,-0.510,-0.270
6203,-0.515,-0.255
6204,-0.420,-0.310
6205,-0.360,-0.210
6206,-0.415,-0.260
6207,-0.345,0.005
6208,-0.270,-0.150
6209,-0.300,0.125
6210,-0.255,-0.400
6211,-0.340,-0.250
6212,-0.350,-0.350
6213,-0.385,-0.260
6214,-0.450,-0.180
6215,-0.525,-0.180
6216,-0.550,-0.355
6217,-0.550,-0.215
6218,-0.500,-0.355
6219,-0.560,-0.450
6220,-0.530,-0.315
6221,-0.520,-0.190
6222,-0.510,-0.300
6223,-0.500,-0.335
6224,-0.605,-0.430
6225,-0.715,-0.265
6226,-0.655,-0.330
6227,-0.460,-0.365
6228,-0.175,-0.820
6229,-0.285,-0.780
6230,-0.635,-0.540
6231,-1.600,0.220
6232,-2.525,-1.280
6233,-3.045,-2.355
6234,-2.910,-2.110
6235,-2.555,-2.020
6236,-2.085,-1.505
6237,-1.320,-0.780
6238,-0.750,-0.495
6239,-0.480,-0.250
6240,-0.375,-0.275
6241,-0.420,-0.055
6242,-0.310,-0.140
6243,-0.300,-0.215
6244,-0.295,-0.145
6245,-0.265,-0.095
6246,-0.255,-0.130
6247,-0.280,-0.115
6248,-0.295,-0.075
6249,-0.230,-0.270
6250,-0.240,-0.215
6251,-0.170,0.125
6252,-0.115,-0.145
6253,-0.080,-0.150
6254,-0.090,0.000
6255,-0.005,0.040
6256,0.050,-0.005
6257,0.065,-0.050
6258,0.150,0.210
6259,0.195,0.235
6260,0.285,0.195
6261,0.350,0.060
6262,0.365,0.290
6263,0.410,0.325
6264,0.410,0.380
6265,0.440,0.435
6266,0.445,0.275
6267,0.445,0.430
6268,0.460,0.360
6269,0.415,0.625
6270,0.450,0.355
6271,0.410,0.440
6272,0.350,0.610
6273,0.245,0.405
6274,0.190,0.490
6275,0.115,0.525
6276,0.035,0.290
6277,-0.030,0.410
6278,-0.075,0.385
6279,-0.130,0.230
6280,-0.200,0.375
6281,-0.175,0.245
6282,-0.245,0.240
6283,-0.270,0.265
6284,-0.225,0.115
6285,-0.250,-0.015
6286,-0.275,0.025
6287,-0.295,0.055
6288,-0.310,-0.040
6289,-0.275,0.005
6290,-0.250,-0.050
6291,-0.300,-0.225
6292,-0.335,-0.045
6293,-0.370,0.010
6294,-0.355,-0.205
6295,-0.320,-0.245
6296,-0.410,-0.095
6297,-0.340,-0.070
6298,-0.345,-0.365
6299,-0.390,-0.135
6300,-0.345,-0.170
6301,-0.360,-0.285
6302,-0.350,-0.280
6303,-0.385,-0.165
6304,-0.395,-0.145
6305,-0.345,-0.100
6306,-0.375,-0.335
6307,-0.420,-0.390
6308,-0.380,-0.145
6309,-0.370,-0.225
6310,-0.355,-0.370
6311,-0.370,-0.225
6312,-0.420,-0.360
6313,-0.365,-0.290
6314,-0.365,-0.345
6315,-0.405,0.010
6316,-0.345,-0.315
6317,-0.385,-0.240
6318,-0.385,-0.345
6319,-0.430,-0.260
6320,-0.380,-0.140
6321,-0.375,-0.165
6322,-0.365,-0.280
6323,-0.265,-0.290
6324,-0.235,-0.135
6325,-0.295,0.060
6326,-0.170,-0.045
6327,-0.185,-0.155
6328,-0.155,-0.190
6329,-0.185,0.060
6330,-0.210,-0.290
6331,-0.280,-0.130
6332,-0.255,-0.220
6333,-0.355,-0.395
6334,-0.440,-0.205
6335,-0.390,-0.145
6336,-0.445,-0.255
6337,-0.490,-0.020
6338,-0.390,-0.245
6339,-0.390,-0.510
6340,-0.435,-0.195
6341,-0.425,-0.165
6342,-0.450,-0.270
6343,-0.590,-0.060
6344,-0.565,-0.355
6345,-0.475,-0.325
6346,-0.090,-0.565
6347,-0.270,-0.760
6348,-0.350,-0.370
6349,-1.245,0.200
6350,-2.185,-0.405
6351,-2.730,-2.085
6352,-2.810,-2.465
6353,-2.520,-2.035
6354,-2.030,-1.570
6355,-1.250,-0.695
6356,-0.695,-0.405
6357,-0.400,-0.245
6358,-0.300,-0.115
6359,-0.250,0.175
6360,-0.200,-0.270
6361,-0.230,-0.300
6362,-0.200,0.090
6363,-0.195,-0.090
6364,-0.205,0.065
6365,-0.175,-0.015
6366,-0.175,0.055
6367,-0.130,-0.105
6368,-0.110,-0.120
6369,-0.110,-0.095
6370,-0.095,0.065
6371,-0.030,0.235
6372,0.000,-0.050
6373,0.030,-0.090
6374,0.105,0.100
6375,0.160,0.210
6376,0.210,0.425
6377,0.300,0.145
6378,0.355,0.200
6379,0.410,0.290
6380,0.430,0.240
6381,0.400,0.505
6382,0.455,0.590
6383,0.510,0.335
6384,0.480,0.320
6385,0.500,0.510
6386,0.510,0.370
6387,0.490,0.595
6388,0.455,0.555
6389,0.450,0.650
6390,0.365,0.300
6391,0.290,0.605
6392,0.195,0.585
6393,0.125,0.615
6394,0.115,0.425
6395,-0.030,0.335
6396,-0.065,0.490
6397,-0.150,0.370
6398,-0.180,0.505
6399,-0.175,0.190
6400,-0.250,0.070
6401,-0.305,0.285
6402,-0.255,0.035
6403,-0.315,0.070
6404,-0.270,0.210
6405,-0.310,0.055
6406,-0.350,-0.035
6407,-0.320,-0.015
6408,-0.345,-0.020
6409,-0.380,-0.110
6410,-0.370,-0.010
6411,-0.365,-0.130
6412,-0.420,-0.220
6413,-0.420,0.045
6414,-0.385,-0.150
6415,-0.410,-0.270
6416,-0.440,-0.190
6417,-0.395,-0.250
6418,-0.400,-0.235
6419,-0.455,-0.090
6420,-0.390,-0.195
6421,-0.405,-0.435
6422,-0.475,-0.030
6423,-0.390,-0.050
6424,-0.450,-0.460
6425,-0.480,-0.185
6426,-0.420,-0.055
6427,-0.405,-0.430
6428,-0.380,-0.080
6429,-0.425,-0.295
6430,-0.445,-0.220
6431,-0.435,-0.275
6432,-0.445,-0.335
6433,-0.425,-0.300
6434,-0.440,0.005
6435,-0.410,-0.120
6436,-0.435,-0.255
6437,-0.420,-0.380
6438,-0.405,-0.240
6439,-0.470,-0.130
6440,-0.375,-0.045
6441,-0.305,-0.255
6442,-0.290,-0.215
6443,-0.265,-0.050
6444,-0.255,-0.065
6445,-0.210,0.025
6446,-0.225,-0.085
6447,-0.245,-0.065
6448,-0.270,-0.155
6449,-0.295,-0.135
6450,-0.380,-0.235
6451,-0.470,-0.170
6452,-0.470,-0.270
6453,-0.495,-0.355
6454,-0.490,-0.210
6455,-0.505,-0.265
6456,-0.465,-0.160
6457,-0.455,-0.270
6458,-0.475,-0.275
6459,-0.515,-0.400
6460,-0.625,-0.285
6461,-0.650,-0.150
6462,-0.565,-0.045
6463,-0.200,-0.655
6464,-0.490,-0.805
6465,-0.635,-0.805
6466,-1.310,0.010
6467,-2.250,-0.375
6468,-2.890,-2.035
6469,-2.945,-2.375
6470,-2.660,-2.155
6471,-2.175,-1.565
6472,-1.415,-0.790
6473,-0.720,-0.465
6474,-0.400,-0.135
6475,-0.320,-0.205
6476,-0.320,0.095
6477,-0.245,-0.050
6478,-0.260,-0.330
6479,-0.270,0.020
6480,-0.225,0.045
6481,-0.220,0.020
6482,-0.185,-0.005
6483,-0.215,0.010
6484,-0.165,-0.075
6485,-0.190,-0.175
6486,-0.150,-0.030
6487,-0.135,0.035
6488,-0.095,0.160
6489,-0.025,0.060
6490,-0.020,0.100
6491,0.025,0.005
6492,0.105,0.325
6493,0.200,0.310
6494,0.250,0.215
6495,0.305,0.165
6496,0.330,0.275
6497,0.415,0.295
6498,0.390,0.385
6499,0.405,0.685
6500,0.450,0.440
6501,0.435,0.525
6502,0.465,0.385
6503,0.470,0.375
6504,0.435,0.525
6505,0.425,0.650
6506,0.390,0.685
6507,0.315,0.535
6508,0.265,0.640
6509,0.175,0.435
6510,0.095,0.550
6511,0.005,0.500
6512,-0.065,0.615
6513,-0.085,0.440
6514,-0.160,0.355
6515,-0.175,0.345
6516,-0.260,0.225
6517,-0.300,0.225
6518,-0.280,0.280
6519,-0.305,0.015
6520,-0.310,0.210
6521,-0.300,0.125
6522,-0.350,-0.010
6523,-0.360,-0.015
6524,-0.395,0.085
6525,-0.410,0.150
6526,-0.340,0.085
6527,-0.355,-0.290
6528,-0.415,-0.135
6529,-0.415,-0.130
6530,-0.440,-0.020
6531,-0.400,0.110
6532,-0.450,-0.220
6533,-0.430,-0.230
6534,-0.445,-0.220
6535,-0.470,-0.140
6536,-0.445,-0.075
6537,-0.395,-0.105
6538,-0.425,-0.405
6539,-0.460,-0.205
6540,-0.475,-0.145
6541,-0.435,-0.185
6542,-0.460,-0.140
6543,-0.450,-0.165
6544,-0.465,-0.215
6545,-0.475,-0.275
6546,-0.470,-0.020
6547,-0.445,-0.200
6548,-0.435,-0.345
6549,-0.460,-0.220
6550,-0.480,-0.120
6551,-0.445,-0.110
6552,-0.410,-0.215
6553,-0.460,-0.310
6554,-0.455,-0.130
6555,-0.430,-0.375
6556,-0.460,-0.035
6557,-0.375,-0.125
6558,-0.310,-0.115
6559,-0.320,-0.245
6560,-0.295,-0.030
6561,-0.260,0.105
6562,-0.210,-0.065
6563,-0.235,0.005
6564,-0.260,-0.210
6565,-0.320,-0.280
6566,-0.325,-0.040
6567,-0.405,-0.275
6568,-0.510,-0.145
6569,-0.510,-0.140
6570,-0.510,-0.260
6571,-0.480,-0.335
6572,-0.550,-0.225
6573,-0.465,-0.175
6574,-0.520,-0.240
6575,-0.490,-0.295
6576,-0.515,-0.210
6577,-0.600,-0.015
6578,-0.600,-0.180
