'sample interval','ECG0','ECG1'
'0.0078125 sec','mV','mV'
0,-0.605,-0.120
1,-0.605,-0.190
2,-0.565,-0.170
3,-0.600,-0.190
4,-0.540,-0.135
5,-0.610,-0.145
6,-0.565,-0.110
7,-0.745,-0.025
8,-0.420,0.360
9,0.050,0.410
10,0.875,0.665
11,1.045,-0.585
12,0.025,-1.545
13,-1.005,-2.195
14,-1.025,-2.615
15,-0.815,-1.880
16,-0.495,-0.860
17,-0.620,-0.115
18,-0.550,-0.045
19,-0.620,0.005
20,-0.510,-0.025
21,-0.615,0.075
22,-0.545,0.010
23,-0.535,0.080
24,-0.550,0.035
25,-0.485,0.140
26,-0.545,0.115
27,-0.435,0.150
28,-0.545,0.140
29,-0.410,0.205
30,-0.500,0.205
31,-0.380,0.255
32,-0.445,0.320
33,-0.305,0.390
34,-0.375,0.450
35,-0.265,0.510
36,-0.325,0.585
37,-0.210,0.635
38,-0.305,0.720
39,-0.190,0.745
40,-0.235,0.795
41,-0.170,0.755
42,-0.250,0.805
43,-0.290,0.700
44,-0.310,0.715
45,-0.420,0.515
46,-0.425,0.485
47,-0.490,0.325
48,-0.470,0.265
49,-0.540,0.135
50,-0.480,0.120
51,-0.580,0.035
52,-0.500,0.030
53,-0.585,0.010
54,-0.500,0.000
55,-0.600,-0.010
56,-0.460,0.015
57,-0.590,0.025
58,-0.465,0.005
59,-0.550,0.035
60,-0.485,0.010
61,-0.540,0.040
62,-0.485,0.005
63,-0.505,0.080
64,-0.455,0.015
65,-0.475,0.065
66,-0.445,0.005
67,-0.485,0.075
68,-0.525,0.005
69,-0.505,0.065
70,-0.515,0.015
71,-0.465,0.075
72,-0.560,0.035
73,-0.470,0.030
74,-0.570,-0.010
75,-0.450,0.000
76,-0.550,-0.010
77,-0.415,0.015
78,-0.550,0.005
79,-0.440,-0.010
80,-0.555,0.020
81,-0.410,-0.030
82,-0.450,0.090
83,-0.335,0.105
84,-0.370,0.205
85,-0.260,0.180
86,-0.280,0.275
87,-0.270,0.145
88,-0.400,0.100
89,-0.370,-0.110
90,-0.465,-0.055
91,-0.490,-0.100
92,-0.550,-0.050
93,-0.600,-0.110
94,-0.530,-0.060
95,-0.585,-0.165
96,-0.535,-0.110
97,-0.565,-0.145
98,-0.485,-0.080
99,-0.575,-0.145
100,-0.540,-0.025
101,-0.615,0.295
102,-0.035,0.470
103,0.565,0.720
104,1.225,-0.320
105,0.355,-1.560
106,-0.655,-2.245
107,-1.250,-2.725
108,-0.730,-2.335
109,-0.520,-1.060
110,-0.445,-0.280
111,-0.625,0.010
112,-0.500,0.000
113,-0.535,0.070
114,-0.475,0.045
115,-0.520,0.110
116,-0.480,0.070
117,-0.475,0.140
118,-0.445,0.120
119,-0.445,0.170
120,-0.480,0.120
121,-0.390,0.225
122,-0.435,0.205
123,-0.365,0.265
124,-0.415,0.310
125,-0.280,0.335
126,-0.395,0.400
127,-0.195,0.455
128,-0.280,0.530
129,-0.115,0.590
130,-0.245,0.680
131,-0.075,0.720
132,-0.155,0.825
133,-0.065,0.800
134,-0.170,0.835
135,-0.120,0.805
136,-0.205,0.820
137,-0.195,0.715
138,-0.295,0.675
139,-0.350,0.525
140,-0.370,0.415
141,-0.450,0.290
142,-0.415,0.245
143,-0.490,0.115
144,-0.405,0.090
145,-0.480,0.005
146,-0.420,0.025
147,-0.530,-0.020
148,-0.400,0.000
149,-0.525,-0.015
150,-0.395,0.000
151,-0.515,-0.005
152,-0.410,0.025
153,-0.495,0.005
154,-0.385,0.035
155,-0.505,0.035
156,-0.375,0.045
157,-0.490,0.055
158,-0.400,0.025
159,-0.500,0.080
160,-0.440,0.020
161,-0.510,0.050
162,-0.445,-0.005
163,-0.465,0.055
164,-0.455,0.020
165,-0.450,0.035
166,-0.495,-0.025
167,-0.475,0.035
168,-0.515,-0.050
169,-0.425,0.000
170,-0.495,-0.065
171,-0.410,0.020
172,-0.575,-0.060
173,-0.445,-0.035
174,-0.540,-0.035
175,-0.335,0.010
176,-0.410,0.080
177,-0.250,0.125
178,-0.375,0.195
179,-0.235,0.185
180,-0.350,0.130
181,-0.330,0.005
182,-0.430,-0.065
183,-0.390,-0.140
184,-0.475,-0.095
185,-0.540,-0.170
186,-0.570,-0.075
187,-0.625,-0.210
188,-0.585,-0.145
189,-0.640,-0.215
190,-0.505,-0.160
191,-0.585,-0.210
192,-0.435,-0.195
193,-0.615,-0.160
194,-0.625,0.050
195,-0.480,0.375
196,0.340,0.465
197,0.990,0.380
198,1.025,-1.120
199,-0.340,-1.910
200,-1.085,-2.595
201,-0.985,-2.685
202,-0.585,-1.530
203,-0.545,-0.565
204,-0.540,-0.135
205,-0.580,0.000
206,-0.525,-0.010
207,-0.550,0.030
208,-0.520,0.010
209,-0.465,0.080
210,-0.505,0.015
211,-0.435,0.080
212,-0.510,0.075
213,-0.425,0.175
214,-0.465,0.125
215,-0.345,0.195
216,-0.420,0.210
217,-0.295,0.280
218,-0.395,0.305
219,-0.230,0.385
220,-0.330,0.380
221,-0.185,0.490
222,-0.215,0.565
223,-0.125,0.605
224,-0.190,0.700
225,-0.065,0.695
226,-0.075,0.795
227,-0.050,0.725
228,-0.110,0.800
229,-0.185,0.735
230,-0.160,0.750
231,-0.225,0.580
232,-0.250,0.585
233,-0.375,0.390
234,-0.340,0.365
235,-0.455,0.240
236,-0.380,0.180
237,-0.535,0.060
238,-0.385,0.025
239,-0.475,0.010
240,-0.385,-0.005
241,-0.490,-0.035
242,-0.365,-0.005
243,-0.455,0.000
244,-0.405,-0.020
245,-0.425,0.015
246,-0.390,-0.010
247,-0.400,0.025
248,-0.400,-0.005
249,-0.370,0.020
250,-0.440,0.030
251,-0.385,0.085
252,-0.430,0.000
253,-0.300,0.035
254,-0.455,0.000
255,-0.325,0.010
256,-0.475,0.000
257,-0.320,-0.030
258,-0.480,-0.020
259,-0.405,-0.025
260,-0.485,-0.010
261,-0.365,-0.090
262,-0.430,-0.010
263,-0.435,-0.090
264,-0.435,-0.065
265,-0.475,-0.080
266,-0.460,-0.040
267,-0.455,-0.105
268,-0.375,-0.080
269,-0.455,-0.120
270,-0.355,-0.070
271,-0.445,-0.035
272,-0.290,-0.010
273,-0.365,0.090
274,-0.255,0.085
275,-0.290,0.150
276,-0.210,0.030
277,-0.370,0.030
278,-0.340,-0.165
279,-0.425,-0.180
280,-0.455,-0.220
281,-0.550,-0.155
282,-0.570,-0.200
283,-0.560,-0.180
284,-0.575,-0.270
285,-0.550,-0.225
286,-0.570,-0.245
287,-0.510,-0.190
288,-0.575,-0.255
289,-0.495,-0.185
290,-0.690,-0.050
291,-0.345,0.305
292,0.120,0.355
293,0.960,0.630
294,1.050,-0.750
295,-0.020,-1.620
296,-1.015,-2.300
297,-0.995,-2.735
298,-0.775,-1.895
299,-0.430,-0.915
300,-0.555,-0.215
301,-0.530,-0.080
302,-0.555,0.005
303,-0.525,-0.055
304,-0.505,0.045
305,-0.530,-0.020
306,-0.485,0.065
307,-0.520,0.010
308,-0.400,0.075
309,-0.500,0.055
310,-0.400,0.100
311,-0.530,0.105
312,-0.365,0.130
313,-0.445,0.180
314,-0.320,0.220
315,-0.405,0.285
316,-0.295,0.330
317,-0.350,0.425
318,-0.230,0.435
319,-0.210,0.615
320,-0.190,0.555
321,-0.165,0.700
322,-0.120,0.675
323,-0.120,0.750
324,-0.145,0.695
325,-0.100,0.755
326,-0.230,0.640
327,-0.190,0.660
328,-0.335,0.540
329,-0.285,0.480
330,-0.455,0.345
331,-0.380,0.255
332,-0.490,0.190
333,-0.390,0.130
334,-0.525,0.040
335,-0.400,0.000
336,-0.500,0.005
337,-0.380,-0.010
338,-0.480,-0.010
339,-0.400,-0.040
340,-0.460,0.010
341,-0.400,-0.045
342,-0.460,0.020
343,-0.450,-0.035
344,-0.415,0.065
345,-0.415,0.030
346,-0.345,0.070
347,-0.390,0.025
348,-0.350,0.095
349,-0.435,0.015
350,-0.385,0.050
351,-0.405,0.040
352,-0.355,0.050
353,-0.490,0.035
354,-0.370,0.055
355,-0.485,0.005
356,-0.350,-0.005
357,-0.450,0.030
358,-0.340,-0.025
359,-0.470,0.010
360,-0.375,0.000
361,-0.460,0.045
362,-0.355,-0.040
363,-0.445,-0.015
364,-0.385,-0.080
365,-0.435,0.000
366,-0.370,-0.035
367,-0.340,0.070
368,-0.335,0.055
369,-0.270,0.215
370,-0.260,0.225
371,-0.140,0.250
372,-0.285,0.120
373,-0.245,0.040
374,-0.385,-0.075
375,-0.305,-0.100
376,-0.470,-0.070
377,-0.420,-0.140
378,-0.535,-0.080
379,-0.480,-0.150
380,-0.535,-0.135
381,-0.465,-0.175
382,-0.530,-0.120
383,-0.450,-0.170
384,-0.475,-0.115
385,-0.465,-0.145
386,-0.585,0.105
387,-0.275,0.390
388,0.385,0.515
389,1.075,0.360
390,1.095,-1.000
391,-0.230,-1.845
392,-0.975,-2.395
393,-0.960,-2.630
394,-0.535,-1.630
395,-0.465,-0.660
396,-0.410,-0.100
397,-0.525,0.000
398,-0.410,0.040
399,-0.490,0.065
400,-0.365,0.050
401,-0.455,0.095
402,-0.370,0.085
403,-0.450,0.105
404,-0.385,0.060
405,-0.445,0.140
406,-0.360,0.110
407,-0.385,0.245
408,-0.380,0.180
409,-0.360,0.295
410,-0.330,0.275
411,-0.270,0.385
412,-0.295,0.385
413,-0.185,0.495
414,-0.200,0.545
415,-0.080,0.650
416,-0.135,0.705
417,-0.060,0.720
418,-0.125,0.750
419,-0.030,0.825
420,-0.145,0.765
421,-0.055,0.770
422,-0.230,0.720
423,-0.180,0.630
424,-0.345,0.615
425,-0.290,0.440
426,-0.415,0.380
427,-0.365,0.195
428,-0.415,0.225
429,-0.420,0.080
430,-0.390,0.070
431,-0.435,0.015
432,-0.410,0.030
433,-0.470,-0.025
434,-0.365,0.035
435,-0.475,-0.015
436,-0.360,0.035
437,-0.490,-0.005
438,-0.360,0.020
439,-0.455,0.035
440,-0.350,0.030
441,-0.480,0.070
442,-0.395,0.020
443,-0.435,0.090
444,-0.365,0.000
445,-0.395,0.075
446,-0.375,0.030
447,-0.380,0.080
448,-0.465,0.000
449,-0.415,0.070
450,-0.430,0.000
451,-0.420,0.065
452,-0.470,0.025
453,-0.370,0.045
454,-0.480,0.010
455,-0.375,0.010
456,-0.505,-0.030
457,-0.395,-0.010
458,-0.475,-0.025
459,-0.380,0.000
460,-0.470,-0.005
461,-0.375,-0.010
462,-0.420,0.005
463,-0.295,0.045
464,-0.370,0.140
465,-0.250,0.200
466,-0.250,0.285
467,-0.175,0.205
468,-0.275,0.220
469,-0.275,0.030
470,-0.375,-0.010
471,-0.350,-0.110
472,-0.425,-0.020
473,-0.495,-0.080
474,-0.475,-0.030
475,-0.525,-0.095
476,-0.445,-0.055
477,-0.520,-0.135
478,-0.375,-0.075
479,-0.495,-0.130
480,-0.395,-0.085
481,-0.570,-0.030
482,-0.500,0.280
483,-0.140,0.475
484,0.690,0.680
485,1.215,-0.130
486,0.720,-1.460
487,-0.600,-2.175
488,-1.040,-2.655
489,-0.785,-2.265
490,-0.375,-1.100
491,-0.445,-0.210
492,-0.460,-0.020
493,-0.470,0.110
494,-0.480,0.055
495,-0.405,0.160
496,-0.430,0.120
497,-0.345,0.175
498,-0.430,0.180
499,-0.335,0.240
500,-0.405,0.190
501,-0.315,0.265
502,-0.405,0.275
503,-0.270,0.305
504,-0.360,0.325
505,-0.195,0.365
506,-0.300,0.435
507,-0.190,0.460
508,-0.215,0.555
509,-0.120,0.575
510,-0.120,0.715
511,-0.075,0.695
512,-0.015,0.825
513,-0.040,0.835
514,0.020,0.940
515,-0.025,0.880
516,0.005,0.925
517,-0.090,0.855
518,-0.085,0.850
519,-0.225,0.710
520,-0.140,0.670
521,-0.305,0.545
522,-0.250,0.475
523,-0.390,0.375
524,-0.300,0.250
525,-0.420,0.225
526,-0.320,0.135
527,-0.410,0.110
528,-0.335,0.065
529,-0.400,0.110
530,-0.330,0.030
531,-0.335,0.090
532,-0.335,0.020
533,-0.340,0.130
534,-0.370,0.060
535,-0.305,0.150
536,-0.380,0.085
537,-0.310,0.145
538,-0.425,0.120
539,-0.300,0.135
540,-0.400,0.080
541,-0.275,0.110
542,-0.435,0.105
543,-0.325,0.075
544,-0.415,0.095
545,-0.340,0.065
546,-0.435,0.095
547,-0.370,0.025
548,-0.395,0.040
549,-0.360,0.015
550,-0.395,0.075
551,-0.415,0.000
552,-0.385,0.075
553,-0.395,0.005
554,-0.360,0.060
555,-0.450,-0.020
556,-0.320,0.060
557,-0.465,-0.005
558,-0.310,0.060
559,-0.345,0.075
560,-0.230,0.095
561,-0.330,0.195
562,-0.250,0.205
563,-0.215,0.330
564,-0.155,0.195
565,-0.230,0.175
566,-0.300,0.030
567,-0.340,0.000
568,-0.410,-0.050
569,-0.390,-0.010
570,-0.535,-0.070
571,-0.445,-0.045
572,-0.590,-0.095
573,-0.415,-0.085
574,-0.510,-0.065
575,-0.420,-0.115
576,-0.535,-0.075
577,-0.410,-0.100
578,-0.530,0.005
579,-0.640,0.215
580,-0.255,0.555
581,0.450,0.590
582,1.235,0.385
583,0.800,-1.035
584,-0.390,-1.700
585,-1.100,-2.390
586,-0.775,-2.275
587,-0.520,-1.310
588,-0.355,-0.390
589,-0.555,0.020
590,-0.420,0.080
591,-0.535,0.130
592,-0.405,0.135
593,-0.500,0.200
594,-0.375,0.125
595,-0.440,0.165
596,-0.345,0.175
597,-0.445,0.230
598,-0.345,0.235
599,-0.445,0.270
600,-0.305,0.260
601,-0.305,0.355
602,-0.290,0.305
603,-0.305,0.470
604,-0.275,0.440
605,-0.190,0.565
606,-0.210,0.585
607,-0.120,0.695
608,-0.135,0.715
609,-0.020,0.810
610,-0.090,0.805
611,0.020,0.895
612,-0.115,0.890
613,0.000,0.895
614,-0.120,0.865
615,-0.050,0.835
616,-0.280,0.770
617,-0.205,0.655
618,-0.360,0.550
619,-0.255,0.435
620,-0.415,0.375
621,-0.335,0.245
622,-0.430,0.255
623,-0.400,0.170
624,-0.430,0.150
625,-0.375,0.070
626,-0.335,0.145
627,-0.370,0.115
628,-0.315,0.155
629,-0.395,0.110
630,-0.345,0.150
631,-0.395,0.120
632,-0.245,0.160
633,-0.410,0.175
634,-0.290,0.195
635,-0.410,0.200
636,-0.290,0.165
637,-0.410,0.190
638,-0.315,0.160
639,-0.405,0.185
640,-0.300,0.120
641,-0.420,0.160
642,-0.380,0.110
643,-0.400,0.170
644,-0.355,0.100
645,-0.355,0.130
646,-0.420,0.085
647,-0.350,0.150
648,-0.420,0.105
649,-0.340,0.100
650,-0.440,0.090
651,-0.345,0.125
652,-0.465,0.075
653,-0.340,0.105
654,-0.335,0.110
655,-0.215,0.195
656,-0.335,0.245
657,-0.200,0.290
658,-0.250,0.330
659,-0.110,0.300
660,-0.240,0.260
661,-0.255,0.085
662,-0.395,0.075
663,-0.325,-0.010
664,-0.430,0.015
665,-0.490,-0.005
666,-0.510,0.030
667,-0.490,-0.025
668,-0.490,-0.015
669,-0.480,-0.070
670,-0.435,-0.005
671,-0.475,-0.050
672,-0.455,-0.005
673,-0.650,0.015
674,-0.475,0.425
675,-0.060,0.520
676,0.815,0.835
677,1.240,-0.055
678,0.540,-1.245
679,-0.725,-1.825
680,-1.050,-2.340
681,-0.830,-2.090
682,-0.425,-0.960
683,-0.525,-0.085
684,-0.420,0.065
685,-0.515,0.150
686,-0.435,0.130
687,-0.510,0.205
688,-0.470,0.180
689,-0.445,0.245
690,-0.435,0.190
691,-0.380,0.270
692,-0.450,0.240
693,-0.365,0.330
694,-0.455,0.270
695,-0.320,0.350
696,-0.425,0.375
697,-0.295,0.410
698,-0.375,0.450
699,-0.210,0.510
700,-0.310,0.585
701,-0.150,0.630
702,-0.240,0.715
703,-0.075,0.765
704,-0.155,0.865
705,-0.025,0.880
706,-0.100,0.955
707,-0.075,0.920
708,-0.115,0.985
709,-0.195,0.840
710,-0.160,0.865
711,-0.250,0.740
712,-0.240,0.720
713,-0.385,0.545
714,-0.355,0.475
715,-0.490,0.365
716,-0.370,0.290
717,-0.485,0.230
718,-0.360,0.200
719,-0.490,0.160
720,-0.335,0.155
721,-0.455,0.160
722,-0.340,0.160
723,-0.460,0.155
724,-0.360,0.170
725,-0.455,0.160
726,-0.345,0.135
727,-0.420,0.210
728,-0.360,0.175
729,-0.345,0.250
730,-0.370,0.205
731,-0.355,0.245
732,-0.350,0.200
733,-0.330,0.260
734,-0.385,0.180
735,-0.335,0.235
736,-0.395,0.200
737,-0.320,0.220
738,-0.380,0.165
739,-0.315,0.215
740,-0.445,0.150
741,-0.300,0.200
742,-0.415,0.210
743,-0.305,0.185
744,-0.465,0.190
745,-0.305,0.145
746,-0.410,0.190
747,-0.310,0.160
748,-0.380,0.205
749,-0.245,0.195
750,-0.250,0.345
751,-0.195,0.330
752,-0.200,0.455
753,-0.145,0.395
754,-0.205,0.340
755,-0.285,0.170
756,-0.315,0.130
757,-0.350,0.080
758,-0.340,0.105
759,-0.505,0.060
760,-0.425,0.115
761,-0.540,0.075
762,-0.380,0.060
763,-0.515,0.060
764,-0.355,0.030
765,-0.500,0.080
766,-0.385,0.025
767,-0.555,0.090
768,-0.475,0.430
769,-0.125,0.650
770,0.700,0.890
771,1.265,0.185
772,0.790,-1.240
773,-0.475,-1.830
774,-1.065,-2.345
775,-0.730,-2.125
776,-0.460,-1.100
777,-0.360,-0.175
778,-0.485,0.100
779,-0.395,0.210
780,-0.480,0.225
781,-0.380,0.265
782,-0.465,0.245
783,-0.365,0.310
784,-0.475,0.285
785,-0.350,0.305
786,-0.465,0.340
787,-0.340,0.365
788,-0.445,0.410
789,-0.285,0.430
790,-0.435,0.455
791,-0.290,0.470
792,-0.395,0.535
793,-0.250,0.555
794,-0.260,0.665
795,-0.200,0.695
796,-0.170,0.825
797,-0.140,0.845
798,-0.115,0.955
799,-0.100,0.955
800,-0.075,1.010
801,-0.120,0.965
802,-0.100,1.000
803,-0.190,0.945
804,-0.160,0.930
805,-0.305,0.765
806,-0.240,0.740
807,-0.440,0.570
808,-0.350,0.475
809,-0.505,0.370
810,-0.355,0.340
811,-0.510,0.305
812,-0.340,0.270
813,-0.485,0.265
814,-0.375,0.150
815,-0.465,0.190
816,-0.385,0.150
817,-0.440,0.190
818,-0.390,0.165
819,-0.435,0.225
820,-0.390,0.180
821,-0.415,0.270
822,-0.435,0.200
823,-0.390,0.240
824,-0.445,0.205
825,-0.320,0.230
826,-0.465,0.255
827,-0.365,0.265
828,-0.505,0.220
829,-0.380,0.205
830,-0.490,0.220
831,-0.390,0.175
832,-0.455,0.205
833,-0.350,0.140
834,-0.475,0.235
835,-0.420,0.185
836,-0.455,0.230
837,-0.470,0.115
838,-0.450,0.225
839,-0.475,0.145
840,-0.405,0.185
841,-0.460,0.155
842,-0.315,0.235
843,-0.400,0.215
844,-0.235,0.335
845,-0.320,0.380
846,-0.155,0.420
847,-0.225,0.400
848,-0.180,0.300
849,-0.370,0.195
850,-0.285,0.045
851,-0.425,0.130
852,-0.470,0.055
853,-0.545,0.120
854,-0.490,0.035
855,-0.500,0.115
856,-0.515,0.030
857,-0.470,0.075
858,-0.520,0.020
859,-0.410,0.070
860,-0.485,0.065
861,-0.485,0.175
862,-0.590,0.520
863,0.050,0.660
864,0.710,0.915
865,1.390,-0.215
866,0.610,-1.370
867,-0.475,-2.040
868,-1.065,-2.455
869,-0.670,-2.015
870,-0.495,-0.780
871,-0.410,-0.075
872,-0.475,0.190
873,-0.465,0.210
874,-0.415,0.290
875,-0.475,0.225
876,-0.370,0.300
877,-0.495,0.310
878,-0.335,0.385
879,-0.475,0.335
880,-0.365,0.370
881,-0.430,0.365
882,-0.290,0.410
883,-0.365,0.415
884,-0.265,0.440
885,-0.375,0.510
886,-0.270,0.540
887,-0.295,0.620
888,-0.160,0.655
889,-0.190,0.775
890,-0.110,0.785
891,-0.085,0.875
892,-0.090,0.865
893,-0.005,0.970
894,-0.055,0.960
895,0.030,1.065
896,-0.075,0.980
897,0.000,1.020
898,-0.155,0.935
899,-0.100,0.875
900,-0.320,0.760
901,-0.255,0.670
902,-0.415,0.545
903,-0.345,0.460
904,-0.465,0.335
905,-0.325,0.295
906,-0.415,0.235
907,-0.355,0.210
908,-0.440,0.205
909,-0.385,0.140
910,-0.385,0.195
911,-0.390,0.155
912,-0.405,0.200
913,-0.380,0.180
914,-0.350,0.255
915,-0.415,0.195
916,-0.375,0.275
917,-0.425,0.185
918,-0.355,0.265
919,-0.475,0.215
920,-0.350,0.220
921,-0.470,0.170
922,-0.350,0.195
923,-0.490,0.145
924,-0.355,0.155
925,-0.490,0.165
926,-0.385,0.155
927,-0.515,0.145
928,-0.380,0.115
929,-0.470,0.110
930,-0.405,0.110
931,-0.495,0.140
932,-0.420,0.100
933,-0.515,0.085
934,-0.410,0.055
935,-0.465,0.125
936,-0.435,0.085
937,-0.385,0.175
938,-0.375,0.140
939,-0.345,0.330
940,-0.345,0.310
941,-0.190,0.400
942,-0.255,0.265
943,-0.280,0.220
944,-0.410,0.030
945,-0.385,0.030
946,-0.500,0.005
947,-0.455,-0.010
948,-0.610,0.015
949,-0.515,0.000
950,-0.600,-0.055
951,-0.500,-0.015
952,-0.600,-0.025
953,-0.510,-0.050
954,-0.570,-0.020
955,-0.485,-0.025
956,-0.715,0.150
957,-0.365,0.500
958,0.125,0.575
959,0.925,0.860
960,1.265,-0.530
961,0.005,-1.385
962,-0.915,-1.930
963,-1.140,-2.490
964,-0.690,-1.705
965,-0.475,-0.770
966,-0.475,-0.005
967,-0.595,0.085
968,-0.500,0.145
969,-0.560,0.150
970,-0.440,0.185
971,-0.555,0.145
972,-0.405,0.215
973,-0.550,0.185
974,-0.430,0.220
975,-0.525,0.260
976,-0.420,0.220
977,-0.465,0.295
978,-0.365,0.260
979,-0.415,0.345
980,-0.350,0.345
981,-0.365,0.495
982,-0.305,0.470
983,-0.295,0.550
984,-0.195,0.610
985,-0.215,0.720
986,-0.135,0.765
987,-0.130,0.875
988,-0.090,0.835
989,-0.105,0.905
990,-0.170,0.880
991,-0.115,0.865
992,-0.205,0.785
993,-0.170,0.790
994,-0.340,0.655
995,-0.280,0.590
996,-0.400,0.450
997,-0.380,0.345
998,-0.520,0.270
999,-0.345,0.205
1000,-0.485,0.140
1001,-0.355,0.155
1002,-0.505,0.135
1003,-0.380,0.120
1004,-0.490,0.155
1005,-0.365,0.120
1006,-0.490,0.145
1007,-0.370,0.155
1008,-0.475,0.200
1009,-0.420,0.160
1010,-0.445,0.185
1011,-0.410,0.140
1012,-0.395,0.205
1013,-0.390,0.155
1014,-0.395,0.200
1015,-0.440,0.150
1016,-0.365,0.200
1017,-0.425,0.140
1018,-0.365,0.220
1019,-0.475,0.125
1020,-0.375,0.165
1021,-0.470,0.120
1022,-0.345,0.140
1023,-0.520,0.100
1024,-0.365,0.145
1025,-0.490,0.105
1026,-0.360,0.085
1027,-0.475,0.125
1028,-0.360,0.085
1029,-0.455,0.080
1030,-0.330,0.090
1031,-0.320,0.225
1032,-0.270,0.240
1033,-0.310,0.335
1034,-0.225,0.340
1035,-0.190,0.290
1036,-0.275,0.165
1037,-0.350,0.100
1038,-0.400,-0.025
1039,-0.370,0.035
1040,-0.515,-0.035
1041,-0.470,0.035
1042,-0.575,0.000
1043,-0.455,0.000
1044,-0.620,-0.040
1045,-0.495,-0.015
1046,-0.570,-0.045
1047,-0.375,-0.015
1048,-0.595,-0.030
1049,-0.575,0.155
1050,-0.400,0.520
1051,0.390,0.595
1052,1.065,0.450
1053,0.985,-1.005
1054,-0.410,-1.720
1055,-1.060,-2.275
1056,-0.970,-2.390
1057,-0.515,-1.275
1058,-0.445,-0.415
1059,-0.480,0.015
1060,-0.550,0.125
1061,-0.525,0.105
1062,-0.530,0.185
1063,-0.495,0.130
1064,-0.495,0.180
1065,-0.470,0.140
1066,-0.475,0.260
1067,-0.500,0.195
1068,-0.440,0.300
1069,-0.445,0.225
1070,-0.375,0.305
1071,-0.430,0.315
1072,-0.325,0.425
1073,-0.435,0.395
1074,-0.250,0.485
1075,-0.355,0.525
1076,-0.205,0.600
1077,-0.280,0.690
1078,-0.145,0.750
1079,-0.180,0.830
1080,-0.100,0.840
1081,-0.160,0.915
1082,-0.065,0.855
1083,-0.185,0.920
1084,-0.170,0.860
1085,-0.230,0.855
1086,-0.265,0.730
1087,-0.330,0.695
1088,-0.390,0.490
1089,-0.385,0.480
1090,-0.480,0.305
1091,-0.430,0.305
1092,-0.525,0.185
1093,-0.410,0.205
1094,-0.530,0.125
1095,-0.420,0.165
1096,-0.540,0.130
1097,-0.415,0.155
1098,-0.485,0.145
1099,-0.370,0.150
1100,-0.490,0.150
1101,-0.370,0.150
1102,-0.485,0.140
1103,-0.390,0.145
1104,-0.445,0.205
1105,-0.375,0.150
1106,-0.445,0.190
1107,-0.390,0.150
1108,-0.430,0.180
1109,-0.355,0.135
1110,-0.420,0.200
1111,-0.420,0.185
1112,-0.430,0.195
1113,-0.435,0.130
1114,-0.385,0.165
1115,-0.445,0.105
1116,-0.375,0.165
1117,-0.455,0.135
1118,-0.390,0.165
1119,-0.470,0.115
1120,-0.380,0.150
1121,-0.460,0.135
1122,-0.320,0.155
1123,-0.395,0.180
1124,-0.245,0.250
1125,-0.330,0.320
1126,-0.225,0.350
1127,-0.250,0.435
1128,-0.150,0.335
1129,-0.255,0.335
1130,-0.295,0.090
1131,-0.365,0.090
1132,-0.380,0.045
1133,-0.435,0.090
1134,-0.495,0.045
1135,-0.500,0.105
1136,-0.540,0.000
1137,-0.460,0.040
1138,-0.515,-0.030
1139,-0.405,0.040
1140,-0.510,0.000
1141,-0.400,0.045
1142,-0.595,0.110
1143,-0.450,0.470
1144,-0.060,0.585
1145,0.755,0.830
1146,1.245,-0.305
1147,0.590,-1.460
1148,-0.645,-2.095
1149,-1.030,-2.495
1150,-0.690,-1.835
1151,-0.380,-0.750
1152,-0.455,-0.005
1153,-0.485,0.090
1154,-0.430,0.230
1155,-0.495,0.170
1156,-0.390,0.285
1157,-0.475,0.245
1158,-0.365,0.300
1159,-0.495,0.285
1160,-0.380,0.305
1161,-0.480,0.275
1162,-0.320,0.330
1163,-0.415,0.365
1164,-0.305,0.380
1165,-0.380,0.420
1166,-0.290,0.435
1167,-0.335,0.520
1168,-0.245,0.515
1169,-0.225,0.685
1170,-0.195,0.670
1171,-0.130,0.780
1172,-0.190,0.780
1173,-0.040,0.930
1174,-0.135,0.905
1175,0.000,0.990
1176,-0.105,0.960
1177,0.000,0.990
1178,-0.135,0.940
1179,-0.085,0.915
1180,-0.275,0.765
1181,-0.230,0.705
1182,-0.390,0.580
1183,-0.310,0.460
1184,-0.435,0.380
1185,-0.330,0.310
1186,-0.465,0.245
1187,-0.390,0.190
1188,-0.445,0.175
1189,-0.390,0.110
1190,-0.425,0.125
1191,-0.345,0.060
1192,-0.385,0.160
1193,-0.380,0.085
1194,-0.335,0.140
1195,-0.415,0.110
1196,-0.360,0.175
1197,-0.460,0.110
1198,-0.330,0.210
1199,-0.420,0.150
1200,-0.280,0.160
1201,-0.430,0.145
1202,-0.335,0.210
1203,-0.475,0.135
1204,-0.345,0.175
1205,-0.480,0.100
1206,-0.330,0.115
1207,-0.400,0.105
1208,-0.355,0.085
1209,-0.415,0.110
1210,-0.365,0.045
1211,-0.380,0.100
1212,-0.385,0.055
1213,-0.410,0.110
1214,-0.435,0.040
1215,-0.385,0.105
1216,-0.410,0.045
1217,-0.260,0.135
1218,-0.330,0.105
1219,-0.230,0.230
1220,-0.340,0.220
1221,-0.120,0.320
1222,-0.220,0.265
1223,-0.155,0.180
1224,-0.330,0.100
1225,-0.270,0.005
1226,-0.365,0.005
1227,-0.385,-0.020
1228,-0.500,0.005
1229,-0.510,-0.020
1230,-0.505,0.005
1231,-0.480,-0.020
1232,-0.485,-0.025
1233,-0.455,-0.090
1234,-0.450,-0.015
1235,-0.470,-0.075
1236,-0.500,0.025
1237,-0.605,0.315
1238,-0.065,0.560
1239,0.615,0.795
1240,1.400,0.035
1241,0.710,-1.235
1242,-0.405,-1.805
1243,-1.125,-2.320
1244,-0.725,-2.120
1245,-0.495,-1.075
1246,-0.320,-0.250
1247,-0.500,0.065
1248,-0.410,0.125
1249,-0.500,0.175
1250,-0.400,0.165
1251,-0.430,0.185
1252,-0.355,0.155
1253,-0.420,0.200
1254,-0.315,0.205
1255,-0.385,0.250
1256,-0.335,0.190
1257,-0.300,0.310
1258,-0.345,0.225
1259,-0.270,0.335
1260,-0.310,0.330
1261,-0.205,0.420
1262,-0.270,0.435
1263,-0.130,0.530
1264,-0.210,0.570
1265,-0.080,0.675
1266,-0.155,0.695
1267,0.010,0.785
1268,-0.060,0.800
1269,0.030,0.850
1270,-0.075,0.825
1271,-0.005,0.805
1272,-0.080,0.820
1273,-0.095,0.735
1274,-0.165,0.705
1275,-0.245,0.545
1276,-0.275,0.505
1277,-0.345,0.360
1278,-0.300,0.340
1279,-0.445,0.220
1280,-0.355,0.200
1281,-0.410,0.095
1282,-0.305,0.135
1283,-0.415,0.085
1284,-0.285,0.100
1285,-0.395,0.050
1286,-0.290,0.100
1287,-0.410,0.080
1288,-0.300,0.055
1289,-0.380,0.075
1290,-0.245,0.080
1291,-0.355,0.130
1292,-0.325,0.105
1293,-0.340,0.155
1294,-0.365,0.095
1295,-0.365,0.140
1296,-0.315,0.100
1297,-0.290,0.145
1298,-0.365,0.065
1299,-0.315,0.155
1300,-0.425,0.055
1301,-0.290,0.120
1302,-0.350,0.060
1303,-0.290,0.100
1304,-0.380,0.005
1305,-0.355,0.080
1306,-0.450,0.020
1307,-0.300,0.050
1308,-0.425,0.020
1309,-0.320,0.015
1310,-0.450,0.045
1311,-0.255,0.080
1312,-0.310,0.110
1313,-0.160,0.195
1314,-0.285,0.255
1315,-0.135,0.255
1316,-0.205,0.215
1317,-0.215,0.095
1318,-0.335,0.005
1319,-0.300,-0.075
1320,-0.370,-0.030
1321,-0.470,-0.135
1322,-0.430,0.000
1323,-0.515,-0.100
1324,-0.460,-0.090
1325,-0.540,-0.165
1326,-0.400,-0.085
1327,-0.485,-0.155
1328,-0.360,-0.070
1329,-0.525,-0.115
1330,-0.505,0.045
1331,-0.440,0.415
1332,0.225,0.475
1333,0.935,0.685
1334,1.325,-0.615
1335,0.130,-1.445
1336,-0.835,-2.055
1337,-1.020,-2.425
1338,-0.560,-1.785
1339,-0.385,-0.770
1340,-0.445,-0.150
1341,-0.460,0.055
1342,-0.470,0.035
1343,-0.405,0.165
1344,-0.470,0.105
1345,-0.310,0.130
1346,-0.460,0.110
1347,-0.335,0.165
1348,-0.455,0.150
1349,-0.340,0.185
1350,-0.440,0.190
1351,-0.280,0.215
1352,-0.365,0.235
1353,-0.260,0.285
1354,-0.340,0.340
1355,-0.165,0.365
1356,-0.240,0.465
1357,-0.205,0.485
1358,-0.215,0.585
1359,-0.130,0.620
1360,-0.075,0.720
1361,-0.090,0.710
1362,-0.010,0.815
1363,-0.055,0.790
1364,0.000,0.870
1365,-0.115,0.790
1366,-0.025,0.825
1367,-0.240,0.705
1368,-0.195,0.655
1369,-0.330,0.540
1370,-0.235,0.420
1371,-0.380,0.300
1372,-0.290,0.280
1373,-0.425,0.190
1374,-0.320,0.145
1375,-0.425,0.125
1376,-0.320,0.100
1377,-0.390,0.100
1378,-0.295,0.100
1379,-0.340,0.145
1380,-0.355,0.095
1381,-0.340,0.160
1382,-0.355,0.090
1383,-0.300,0.165
1384,-0.335,0.135
1385,-0.290,0.220
1386,-0.355,0.125
1387,-0.230,0.170
1388,-0.370,0.120
1389,-0.230,0.160
1390,-0.350,0.135
1391,-0.200,0.175
1392,-0.345,0.155
1393,-0.240,0.135
1394,-0.380,0.145
1395,-0.265,0.110
1396,-0.325,0.160
1397,-0.300,0.090
1398,-0.355,0.135
1399,-0.295,0.085
1400,-0.310,0.110
1401,-0.330,0.060
1402,-0.275,0.115
1403,-0.360,0.045
1404,-0.250,0.070
1405,-0.325,0.055
1406,-0.155,0.165
1407,-0.260,0.210
1408,-0.110,0.340
1409,-0.170,0.325
1410,-0.050,0.270
1411,-0.230,0.195
1412,-0.200,0.060
1413,-0.280,0.000
1414,-0.260,0.010
1415,-0.335,0.040
1416,-0.375,-0.010
1417,-0.405,0.030
1418,-0.445,-0.070
1419,-0.375,-0.050
1420,-0.425,-0.100
1421,-0.345,-0.035
1422,-0.415,-0.095
1423,-0.285,-0.025
1424,-0.515,-0.005
1425,-0.360,0.385
1426,-0.025,0.505
1427,0.805,0.810
1428,1.310,-0.100
1429,0.855,-1.355
1430,-0.470,-1.930
1431,-0.980,-2.415
1432,-0.670,-2.105
1433,-0.365,-1.090
1434,-0.340,-0.190
1435,-0.390,0.015
1436,-0.375,0.125
1437,-0.410,0.080
1438,-0.360,0.160
1439,-0.405,0.110
1440,-0.300,0.185
1441,-0.375,0.165
1442,-0.280,0.170
1443,-0.410,0.170
1444,-0.255,0.235
1445,-0.370,0.240
1446,-0.235,0.275
1447,-0.340,0.320
1448,-0.215,0.345
1449,-0.250,0.385
1450,-0.195,0.415
1451,-0.215,0.535
1452,-0.160,0.555
1453,-0.115,0.700
1454,-0.060,0.685
1455,-0.010,0.810
1456,-0.030,0.775
1457,0.050,0.850
1458,-0.070,0.800
1459,0.060,0.890
1460,-0.105,0.865
1461,-0.015,0.825
1462,-0.170,0.735
1463,-0.140,0.610
1464,-0.260,0.540
1465,-0.265,0.390
1466,-0.310,0.345
1467,-0.335,0.230
1468,-0.320,0.245
1469,-0.370,0.115
1470,-0.295,0.125
1471,-0.390,0.040
1472,-0.285,0.100
1473,-0.420,0.000
1474,-0.245,0.050
1475,-0.385,0.070
1476,-0.305,0.065
1477,-0.375,0.065
1478,-0.290,0.065
1479,-0.340,0.105
1480,-0.310,0.070
1481,-0.290,0.095
1482,-0.295,0.070
1483,-0.295,0.145
1484,-0.315,0.085
1485,-0.275,0.125
1486,-0.355,0.080
1487,-0.270,0.095
1488,-0.385,0.045
1489,-0.260,0.090
1490,-0.390,0.035
1491,-0.275,0.065
1492,-0.415,0.060
1493,-0.280,0.040
1494,-0.420,0.045
1495,-0.270,0.020
1496,-0.385,0.030
1497,-0.300,0.020
1498,-0.355,0.035
1499,-0.280,0.020
1500,-0.260,0.110
1501,-0.200,0.150
1502,-0.195,0.265
1503,-0.170,0.225
1504,-0.080,0.330
1505,-0.130,0.175
1506,-0.170,0.150
1507,-0.290,-0.010
1508,-0.235,0.000
1509,-0.355,-0.045
1510,-0.320,-0.015
1511,-0.475,-0.045
1512,-0.340,0.000
1513,-0.465,-0.060
1514,-0.315,-0.030
1515,-0.470,-0.085
1516,-0.315,-0.070
1517,-0.450,-0.055
1518,-0.360,-0.085
1519,-0.545,0.150
1520,-0.210,0.500
1521,0.320,0.610
1522,1.090,0.420
1523,1.370,-0.995
1524,0.280,-1.860
1525,-0.675,-2.330
1526,-0.830,-2.590
1527,-0.425,-1.640
1528,-0.335,-0.665
1529,-0.320,-0.050
1530,-0.460,0.040
1531,-0.300,0.075
1532,-0.430,0.110
1533,-0.320,0.135
1534,-0.360,0.160
1535,-0.235,0.140
1536,-0.335,0.195
1537,-0.260,0.205
1538,-0.335,0.250
1539,-0.270,0.205
1540,-0.295,0.290
1541,-0.220,0.260
1542,-0.210,0.375
1543,-0.220,0.315
1544,-0.115,0.415
1545,-0.170,0.450
1546,-0.065,0.560
1547,-0.125,0.585
1548,0.040,0.670
1549,-0.005,0.730
1550,0.070,0.815
1551,-0.020,0.825
1552,0.135,0.880
1553,0.010,0.845
1554,0.100,0.845
1555,-0.045,0.825
1556,-0.015,0.725
1557,-0.175,0.665
1558,-0.120,0.560
1559,-0.230,0.490
1560,-0.240,0.315
1561,-0.275,0.280
1562,-0.280,0.145
1563,-0.265,0.170
1564,-0.305,0.065
1565,-0.235,0.080
1566,-0.315,0.005
1567,-0.300,0.050
1568,-0.355,0.010
1569,-0.245,0.070
1570,-0.290,0.005
1571,-0.210,0.055
1572,-0.340,0.025
1573,-0.215,0.095
1574,-0.325,0.095
1575,-0.240,0.075
1576,-0.375,0.080
1577,-0.260,0.095
1578,-0.340,0.060
1579,-0.260,0.060
1580,-0.320,0.060
1581,-0.285,-0.010
1582,-0.320,0.025
1583,-0.310,0.010
1584,-0.330,0.055
1585,-0.325,-0.015
1586,-0.290,0.020
1587,-0.315,-0.020
1588,-0.310,0.000
1589,-0.365,-0.050
1590,-0.265,0.005
1591,-0.340,-0.010
1592,-0.285,-0.005
1593,-0.390,-0.025
1594,-0.155,0.010
1595,-0.290,0.075
1596,-0.105,0.170
1597,-0.235,0.175
1598,-0.035,0.205
1599,-0.150,0.160
1600,-0.155,0.105
1601,-0.290,0.000
1602,-0.220,-0.115
1603,-0.290,-0.055
1604,-0.315,-0.105
1605,-0.415,-0.030
1606,-0.475,-0.170
1607,-0.420,-0.105
1608,-0.415,-0.170
1609,-0.315,-0.135
1610,-0.420,-0.170
1611,-0.305,-0.120
1612,-0.445,-0.135
1613,-0.455,-0.010
1614,-0.430,0.355
1615,0.220,0.485
1616,0.880,0.770
1617,1.405,-0.450
1618,0.220,-1.395
1619,-0.665,-1.995
1620,-1.000,-2.475
1621,-0.505,-1.755
1622,-0.355,-0.820
1623,-0.315,-0.155
1624,-0.410,0.000
1625,-0.380,0.000
1626,-0.410,0.095
1627,-0.365,0.045
1628,-0.290,0.120
1629,-0.360,0.075
1630,-0.315,0.130
1631,-0.345,0.125
1632,-0.290,0.165
1633,-0.320,0.145
1634,-0.225,0.235
1635,-0.260,0.220
1636,-0.130,0.285
1637,-0.255,0.290
1638,-0.120,0.385
1639,-0.210,0.420
1640,-0.025,0.490
1641,-0.130,0.585
1642,0.035,0.625
1643,-0.050,0.705
1644,0.080,0.740
1645,0.015,0.815
1646,0.060,0.770
1647,-0.005,0.815
1648,0.045,0.755
1649,0.010,0.785
1650,-0.035,0.680
1651,-0.110,0.610
1652,-0.230,0.460
1653,-0.185,0.405
1654,-0.255,0.265
1655,-0.210,0.230
1656,-0.325,0.125
1657,-0.250,0.140
1658,-0.390,0.005
1659,-0.255,0.060
1660,-0.380,0.040
1661,-0.240,0.025
1662,-0.370,0.050
1663,-0.205,0.015
1664,-0.310,0.050
1665,-0.250,0.070
1666,-0.320,0.085
1667,-0.215,0.070
1668,-0.280,0.095
1669,-0.320,0.055
1670,-0.275,0.115
1671,-0.230,0.040
1672,-0.265,0.095
1673,-0.310,0.020
1674,-0.235,0.065
1675,-0.300,0.030
1676,-0.220,0.045
1677,-0.330,0.005
1678,-0.225,0.035
1679,-0.350,0.000
1680,-0.270,0.010
1681,-0.280,-0.005
1682,-0.200,-0.040
1683,-0.350,-0.010
1684,-0.245,0.000
1685,-0.345,-0.020
1686,-0.240,-0.070
1687,-0.225,0.005
1688,-0.115,0.005
1689,-0.185,0.145
1690,-0.130,0.130
1691,-0.065,0.220
1692,-0.045,0.140
1693,-0.050,0.115
1694,-0.265,-0.065
1695,-0.220,-0.110
1696,-0.325,-0.180
1697,-0.295,-0.135
1698,-0.455,-0.160
1699,-0.365,-0.145
1700,-0.475,-0.200
1701,-0.335,-0.200
1702,-0.445,-0.225
1703,-0.350,-0.215
1704,-0.435,-0.225
1705,-0.300,-0.170
1706,-0.545,-0.125
1707,-0.415,0.275
1708,-0.010,0.375
1709,0.795,0.660
1710,1.360,-0.290
1711,0.695,-1.460
1712,-0.475,-1.945
1713,-1.040,-2.485
1714,-0.635,-2.170
1715,-0.415,-1.190
1716,-0.295,-0.310
1717,-0.470,-0.085
1718,-0.350,0.005
1719,-0.420,-0.040
1720,-0.320,0.010
1721,-0.410,0.025
1722,-0.270,0.030
1723,-0.420,0.040
1724,-0.285,0.025
1725,-0.370,0.115
1726,-0.260,0.110
1727,-0.300,0.145
1728,-0.260,0.115
1729,-0.260,0.215
1730,-0.240,0.175
1731,-0.190,0.285
1732,-0.255,0.275
1733,-0.105,0.415
1734,-0.140,0.445
1735,-0.035,0.520
1736,-0.095,0.550
1737,0.000,0.675
1738,-0.100,0.660
1739,0.050,0.725
1740,-0.055,0.740
1741,0.055,0.720
1742,-0.085,0.700
1743,-0.030,0.640
1744,-0.160,0.585
1745,-0.150,0.455
1746,-0.240,0.395
1747,-0.275,0.215
1748,-0.320,0.190
1749,-0.345,0.065
1750,-0.310,0.065
1751,-0.335,-0.010
1752,-0.305,0.015
1753,-0.370,-0.055
1754,-0.280,0.010
1755,-0.345,-0.050
1756,-0.235,0.000
1757,-0.360,-0.055
1758,-0.250,0.000
1759,-0.360,0.000
1760,-0.225,0.010
1761,-0.310,0.010
1762,-0.205,-0.025
1763,-0.300,0.000
1764,-0.235,0.010
1765,-0.275,0.055
1766,-0.210,0.015
1767,-0.220,0.095
1768,-0.295,0.020
1769,-0.295,0.065
1770,-0.275,0.025
1771,-0.205,0.080
1772,-0.315,-0.035
1773,-0.155,0.055
1774,-0.305,-0.025
1775,-0.190,0.030
1776,-0.335,0.035
1777,-0.215,-0.005
1778,-0.325,-0.005
1779,-0.230,-0.010
1780,-0.310,0.005
1781,-0.205,-0.010
1782,-0.170,0.090
1783,-0.155,0.120
1784,-0.135,0.220
1785,-0.105,0.210
1786,-0.035,0.270
1787,-0.125,0.145
1788,-0.105,0.080
1789,-0.255,-0.095
1790,-0.175,-0.070
1791,-0.345,-0.110
1792,-0.325,-0.115
1793,-0.465,-0.100
1794,-0.295,-0.070
1795,-0.415,-0.135
1796,-0.315,-0.145
1797,-0.415,-0.135
1798,-0.290,-0.135
1799,-0.360,-0.110
1800,-0.305,-0.090
1801,-0.430,0.235
1802,-0.010,0.400
1803,0.660,0.695
1804,1.305,-0.005
1805,1.025,-1.320
1806,-0.245,-1.985
1807,-0.890,-2.375
1808,-0.695,-2.370
1809,-0.320,-1.165
1810,-0.330,-0.415
1811,-0.305,0.030
1812,-0.410,0.070
1813,-0.275,0.105
1814,-0.410,0.085
1815,-0.230,0.125
1816,-0.355,0.115
1817,-0.220,0.125
1818,-0.340,0.125
1819,-0.235,0.185
1820,-0.325,0.190
1821,-0.195,0.220
1822,-0.280,0.255
1823,-0.185,0.270
1824,-0.230,0.340
1825,-0.195,0.335
1826,-0.160,0.475
1827,-0.145,0.435
1828,-0.080,0.575
1829,-0.080,0.590
1830,0.025,0.705
1831,-0.050,0.705
1832,0.085,0.810
1833,-0.025,0.790
1834,0.105,0.845
1835,-0.040,0.805
1836,0.050,0.810
1837,-0.125,0.695
1838,-0.060,0.670
1839,-0.245,0.520
1840,-0.160,0.435
1841,-0.335,0.325
1842,-0.230,0.235
1843,-0.365,0.190
1844,-0.310,0.120
1845,-0.350,0.090
1846,-0.300,0.005
1847,-0.320,0.050
1848,-0.295,-0.015
1849,-0.300,0.025
1850,-0.305,-0.020
1851,-0.300,0.035
1852,-0.335,-0.025
1853,-0.260,0.055
1854,-0.325,-0.005
1855,-0.240,0.080
1856,-0.365,0.040
1857,-0.250,0.100
1858,-0.365,0.055
1859,-0.240,0.110
1860,-0.385,0.060
1861,-0.275,0.065
1862,-0.410,0.055
1863,-0.285,0.050
1864,-0.385,0.060
1865,-0.320,0.005
1866,-0.400,0.030
1867,-0.280,0.010
1868,-0.335,0.005
1869,-0.270,-0.015
1870,-0.315,0.035
1871,-0.320,0.000
1872,-0.360,0.045
1873,-0.360,0.010
1874,-0.235,0.060
1875,-0.230,0.045
1876,-0.135,0.215
1877,-0.240,0.175
1878,-0.060,0.295
1879,-0.110,0.180
1880,-0.045,0.190
1881,-0.290,0.000
1882,-0.230,-0.055
1883,-0.320,-0.090
1884,-0.295,-0.065
1885,-0.470,-0.110
1886,-0.415,-0.075
1887,-0.500,-0.140
1888,-0.345,-0.110
1889,-0.450,-0.135
1890,-0.340,-0.115
1891,-0.405,-0.115
1892,-0.330,-0.110
1893,-0.520,0.025
1894,-0.310,0.405
1895,0.155,0.460
1896,1.025,0.685
1897,1.400,-0.840
1898,0.350,-1.755
1899,-0.730,-2.305
1900,-0.855,-2.675
1901,-0.565,-1.635
1902,-0.335,-0.640
1903,-0.355,-0.050
1904,-0.390,0.025
1905,-0.410,0.095
1906,-0.420,0.055
1907,-0.375,0.125
1908,-0.385,0.095
1909,-0.275,0.170
1910,-0.385,0.105
1911,-0.280,0.160
1912,-0.370,0.140
1913,-0.225,0.210
1914,-0.350,0.195
1915,-0.205,0.255
1916,-0.300,0.295
1917,-0.115,0.320
1918,-0.210,0.360
1919,-0.090,0.435
1920,-0.170,0.490
1921,-0.025,0.535
1922,-0.110,0.650
1923,0.050,0.670
1924,0.070,0.745
1925,0.095,0.740
1926,0.085,0.825
1927,0.060,0.750
1928,0.110,0.805
1929,-0.045,0.715
1930,-0.015,0.670
1931,-0.175,0.525
1932,-0.100,0.515
1933,-0.245,0.325
1934,-0.195,0.280
1935,-0.330,0.140
1936,-0.235,0.095
1937,-0.365,0.015
1938,-0.215,0.050
1939,-0.300,0.000
1940,-0.160,0.005
1941,-0.385,-0.035
1942,-0.225,-0.025
1943,-0.330,0.020
1944,-0.205,-0.005
1945,-0.265,0.020
1946,-0.245,0.015
1947,-0.290,0.055
1948,-0.225,0.010
1949,-0.255,0.055
1950,-0.245,0.010
1951,-0.255,0.030
1952,-0.285,-0.010
1953,-0.265,0.055
1954,-0.295,-0.040
1955,-0.275,0.015
1956,-0.320,-0.035
1957,-0.270,0.000
1958,-0.340,-0.070
1959,-0.230,-0.020
1960,-0.375,-0.080
1961,-0.250,-0.015
1962,-0.365,-0.075
1963,-0.250,-0.010
1964,-0.415,-0.055
1965,-0.195,-0.040
1966,-0.360,-0.090
1967,-0.260,-0.080
1968,-0.330,-0.060
1969,-0.160,-0.005
1970,-0.215,0.045
1971,-0.190,0.105
1972,-0.190,0.200
1973,-0.030,0.155
1974,-0.075,0.105
1975,-0.205,-0.035
1976,-0.255,-0.095
1977,-0.320,-0.165
1978,-0.285,-0.090
1979,-0.480,-0.155
1980,-0.360,-0.095
1981,-0.475,-0.195
1982,-0.325,-0.120
1983,-0.505,-0.220
1984,-0.350,-0.190
1985,-0.435,-0.200
1986,-0.300,-0.160
1987,-0.480,-0.165
1988,-0.380,0.230
1989,-0.090,0.380
1990,0.675,0.635
1991,1.250,0.095
1992,1.010,-1.230
1993,-0.300,-1.755
1994,-1.035,-2.305
1995,-0.780,-2.325
1996,-0.475,-1.425
1997,-0.250,-0.505
1998,-0.455,-0.100
1999,-0.380,0.015
2000,-0.415,-0.020
2001,-0.325,0.060
2002,-0.445,0.040
2003,-0.260,0.095
2004,-0.380,0.055
2005,-0.280,0.120
2006,-0.370,0.040
2007,-0.225,0.140
2008,-0.380,0.155
2009,-0.210,0.200
2010,-0.265,0.240
2011,-0.205,0.245
2012,-0.240,0.300
2013,-0.115,0.335
2014,-0.105,0.415
2015,-0.035,0.445
2016,-0.070,0.560
2017,0.000,0.605
2018,0.000,0.705
2019,0.030,0.705
2020,0.070,0.800
2021,0.035,0.730
2022,0.065,0.805
2023,-0.015,0.715
2024,0.045,0.730
2025,-0.210,0.570
2026,-0.090,0.560
2027,-0.260,0.425
2028,-0.185,0.340
2029,-0.380,0.245
2030,-0.225,0.175
2031,-0.335,0.115
2032,-0.220,0.075
2033,-0.295,0.070
2034,-0.210,0.050
2035,-0.310,0.045
2036,-0.260,0.015
2037,-0.295,0.080
2038,-0.255,0.030
2039,-0.255,0.080
2040,-0.305,0.045
2041,-0.200,0.125
2042,-0.280,0.045
2043,-0.170,0.135
2044,-0.335,0.070
2045,-0.180,0.115
2046,-0.350,0.080
2047,-0.200,0.125
2048,-0.335,0.100
2049,-0.190,0.105
2050,-0.330,0.085
2051,-0.180,0.035
2052,-0.270,0.080
2053,-0.220,0.035
2054,-0.250,0.090
2055,-0.250,0.055
2056,-0.275,0.075
2057,-0.320,0.010
2058,-0.245,0.070
2059,-0.325,0.025
2060,-0.255,0.070
2061,-0.330,0.030
2062,-0.120,0.075
2063,-0.210,0.100
2064,-0.050,0.195
2065,-0.165,0.235
2066,-0.030,0.290
2067,-0.065,0.295
2068,-0.045,0.160
2069,-0.190,0.080
2070,-0.210,-0.080
2071,-0.240,-0.005
2072,-0.315,-0.070
2073,-0.370,-0.020
2074,-0.435,-0.100
2075,-0.350,-0.080
2076,-0.440,-0.160
2077,-0.285,-0.100
2078,-0.365,-0.140
2079,-0.245,-0.080
2080,-0.390,-0.090
2081,-0.370,-0.065
2082,-0.495,0.230
2083,0.035,0.425
2084,0.700,0.665
2085,1.415,-0.155
2086,0.805,-1.415
2087,-0.455,-2.010
2088,-1.030,-2.465
2089,-0.605,-2.255
2090,-0.360,-1.060
2091,-0.295,-0.315
2092,-0.380,0.030
2093,-0.385,0.000
2094,-0.300,0.085
2095,-0.390,0.020
2096,-0.280,0.110
2097,-0.370,0.070
2098,-0.235,0.130
2099,-0.330,0.095
2100,-0.235,0.160
2101,-0.345,0.170
2102,-0.230,0.185
2103,-0.315,0.230
2104,-0.190,0.250
2105,-0.275,0.275
2106,-0.130,0.370
2107,-0.195,0.430
2108,-0.095,0.445
2109,-0.075,0.555
2110,-0.035,0.570
2111,0.005,0.710
2112,-0.010,0.660
2113,0.025,0.810
2114,0.000,0.780
2115,0.080,0.855
2116,-0.030,0.825
2117,0.040,0.825
2118,-0.095,0.725
2119,-0.065,0.640
2120,-0.210,0.505
2121,-0.120,0.425
2122,-0.270,0.285
2123,-0.200,0.225
2124,-0.320,0.175
2125,-0.260,0.085
2126,-0.320,0.065
2127,-0.290,0.000
2128,-0.275,0.030
2129,-0.255,-0.005
2130,-0.220,0.030
2131,-0.270,-0.020
2132,-0.255,0.030
2133,-0.300,0.005
2134,-0.230,0.100
2135,-0.280,0.010
2136,-0.195,0.100
2137,-0.295,0.035
2138,-0.170,0.120
2139,-0.290,0.025
2140,-0.215,0.080
2141,-0.280,0.050
2142,-0.155,0.085
2143,-0.305,0.055
2144,-0.195,0.060
2145,-0.295,0.070
2146,-0.205,0.060
2147,-0.275,0.060
2148,-0.210,0.060
2149,-0.295,0.080
2150,-0.215,0.040
2151,-0.300,0.025
2152,-0.230,0.020
2153,-0.280,0.065
2154,-0.230,0.000
2155,-0.205,0.065
2156,-0.140,0.075
2157,-0.135,0.230
2158,-0.130,0.210
2159,-0.040,0.355
2160,-0.060,0.250
2161,0.000,0.235
2162,-0.190,0.070
2163,-0.140,0.010
2164,-0.275,-0.050
2165,-0.220,0.010
2166,-0.390,-0.040
2167,-0.290,-0.035
2168,-0.390,-0.065
2169,-0.285,-0.070
2170,-0.355,-0.080
2171,-0.260,-0.080
2172,-0.340,-0.060
2173,-0.245,-0.095
2174,-0.325,0.000
2175,-0.415,0.255
2176,-0.050,0.550
2177,0.565,0.650
2178,1.345,0.145
2179,1.210,-1.390
2180,0.015,-1.935
2181,-0.865,-2.440
2182,-0.570,-2.345
2183,-0.380,-1.215
2184,-0.170,-0.305
2185,-0.370,0.010
2186,-0.235,0.105
2187,-0.335,0.100
2188,-0.210,0.120
2189,-0.280,0.140
2190,-0.220,0.145
2191,-0.305,0.190
2192,-0.215,0.215
2193,-0.245,0.250
2194,-0.210,0.180
2195,-0.215,0.270
2196,-0.210,0.235
2197,-0.160,0.340
2198,-0.170,0.320
2199,-0.135,0.455
2200,-0.125,0.445
2201,-0.020,0.585
2202,-0.070,0.595
2203,0.025,0.705
2204,0.000,0.730
2205,0.080,0.825
2206,0.035,0.820
2207,0.150,0.920
2208,0.035,0.890
2209,0.130,0.910
2210,-0.030,0.875
2211,0.005,0.805
2212,-0.150,0.700
2213,-0.080,0.605
2214,-0.205,0.500
2215,-0.160,0.375
2216,-0.275,0.285
2217,-0.235,0.185
2218,-0.290,0.155
2219,-0.230,0.060
2220,-0.245,0.080
2221,-0.190,0.000
2222,-0.210,0.050
2223,-0.230,-0.005
2224,-0.220,0.045
2225,-0.290,-0.025
2226,-0.175,0.075
2227,-0.280,0.035
2228,-0.140,0.080
2229,-0.265,0.060
2230,-0.145,0.120
2231,-0.270,0.065
2232,-0.185,0.115
2233,-0.285,0.095
2234,-0.170,0.070
2235,-0.250,0.060
2236,-0.175,0.065
2237,-0.295,0.065
2238,-0.265,0.020
2239,-0.265,0.065
2240,-0.220,0.010
2241,-0.220,0.065
2242,-0.305,-0.025
2243,-0.220,0.045
2244,-0.310,-0.025
2245,-0.180,0.030
2246,-0.290,-0.030
2247,-0.200,-0.005
2248,-0.280,-0.005
2249,-0.080,0.025
2250,-0.185,0.090
2251,-0.085,0.145
2252,-0.190,0.220
2253,0.010,0.240
2254,-0.075,0.165
2255,-0.085,0.055
2256,-0.215,-0.035
2257,-0.180,-0.115
2258,-0.250,-0.055
2259,-0.360,-0.140
2260,-0.320,-0.055
2261,-0.380,-0.125
2262,-0.330,-0.085
2263,-0.400,-0.180
2264,-0.265,-0.090
2265,-0.385,-0.190
2266,-0.285,-0.100
2267,-0.360,-0.125
2268,-0.370,0.150
2269,-0.245,0.400
2270,0.470,0.560
2271,1.145,0.450
2272,1.405,-0.995
2273,0.100,-1.700
2274,-0.680,-2.230
2275,-0.790,-2.425
2276,-0.445,-1.620
2277,-0.265,-0.645
2278,-0.275,-0.090
2279,-0.330,0.040
2280,-0.340,0.025
2281,-0.280,0.125
2282,-0.330,0.055
2283,-0.235,0.150
2284,-0.300,0.090
2285,-0.200,0.165
2286,-0.265,0.120
2287,-0.150,0.210
2288,-0.280,0.185
2289,-0.165,0.255
2290,-0.255,0.215
2291,-0.080,0.305
2292,-0.205,0.340
2293,-0.055,0.405
2294,-0.120,0.420
2295,-0.035,0.495
2296,-0.035,0.565
2297,0.020,0.615
2298,0.050,0.720
2299,0.050,0.690
2300,0.110,0.815
2301,0.105,0.795
2302,0.175,0.810
2303,0.035,0.750
2304,0.080,0.760
2305,-0.115,0.655
2306,-0.005,0.630
2307,-0.200,0.475
2308,-0.085,0.410
2309,-0.245,0.280
2310,-0.165,0.220
2311,-0.315,0.150
2312,-0.205,0.095
2313,-0.260,0.085
2314,-0.235,0.050
2315,-0.245,0.075
2316,-0.200,0.020
2317,-0.190,0.075
2318,-0.270,0.020
2319,-0.200,0.070
2320,-0.230,0.010
2321,-0.160,0.105
2322,-0.215,0.060
2323,-0.130,0.115
2324,-0.275,0.040
2325,-0.115,0.145
2326,-0.265,0.065
2327,-0.085,0.125
2328,-0.235,0.085
2329,-0.140,0.075
2330,-0.285,0.045
2331,-0.185,0.060
2332,-0.230,0.070
2333,-0.200,0.015
2334,-0.240,0.055
2335,-0.200,0.000
2336,-0.240,0.040
2337,-0.250,-0.010
2338,-0.260,0.030
2339,-0.250,-0.020
2340,-0.155,0.030
2341,-0.290,-0.045
2342,-0.190,0.005
2343,-0.250,0.000
2344,-0.040,0.055
2345,-0.235,0.115
2346,-0.045,0.180
2347,-0.180,0.220
2348,0.000,0.255
2349,-0.090,0.150
2350,-0.045,0.045
2351,-0.200,-0.055
2352,-0.175,-0.095
2353,-0.255,-0.050
2354,-0.375,-0.110
2355,-0.360,-0.075
2356,-0.395,-0.145
2357,-0.350,-0.140
2358,-0.410,-0.175
2359,-0.245,-0.115
2360,-0.370,-0.190
2361,-0.255,-0.120
2362,-0.435,-0.110
2363,-0.440,0.045
2364,-0.355,0.410
2365,0.305,0.425
2366,1.045,0.770
2367,1.515,-0.725
2368,0.370,-1.495
2369,-0.720,-2.080
2370,-0.930,-2.395
2371,-0.565,-1.975
2372,-0.240,-0.905
2373,-0.305,-0.255
2374,-0.275,0.005
2375,-0.420,0.010
2376,-0.255,0.080
2377,-0.325,0.080
2378,-0.250,0.105
2379,-0.380,0.100
2380,-0.305,0.105
2381,-0.300,0.145
2382,-0.245,0.135
2383,-0.270,0.190
2384,-0.220,0.155
2385,-0.200,0.255
2386,-0.225,0.225
2387,-0.190,0.315
2388,-0.225,0.345
2389,-0.125,0.465
2390,-0.155,0.420
2391,-0.030,0.575
2392,-0.125,0.590
2393,0.095,0.700
2394,0.010,0.690
2395,0.115,0.800
2396,-0.015,0.800
2397,0.100,0.825
2398,-0.010,0.800
2399,0.015,0.795
2400,-0.130,0.720
2401,-0.065,0.625
2402,-0.185,0.530
2403,-0.155,0.410
2404,-0.255,0.335
2405,-0.220,0.210
2406,-0.305,0.190
2407,-0.270,0.100
2408,-0.290,0.115
2409,-0.270,0.050
2410,-0.240,0.075
2411,-0.280,0.040
2412,-0.175,0.085
2413,-0.255,0.000
2414,-0.205,0.080
2415,-0.325,0.050
2416,-0.160,0.105
2417,-0.270,0.065
2418,-0.155,0.120
2419,-0.280,0.095
2420,-0.150,0.165
2421,-0.255,0.130
2422,-0.150,0.145
2423,-0.270,0.115
2424,-0.145,0.105
2425,-0.265,0.120
2426,-0.190,0.095
2427,-0.215,0.115
2428,-0.210,0.045
2429,-0.205,0.105
2430,-0.230,0.055
2431,-0.215,0.100
2432,-0.265,0.035
2433,-0.185,0.085
2434,-0.270,0.010
2435,-0.215,0.070
2436,-0.335,0.000
2437,-0.185,0.075
2438,-0.230,0.070
2439,-0.085,0.145
2440,-0.160,0.185
2441,-0.025,0.275
2442,-0.045,0.295
2443,0.065,0.265
2444,-0.080,0.175
2445,-0.120,0.030
2446,-0.210,-0.025
2447,-0.160,-0.035
2448,-0.255,-0.060
2449,-0.300,-0.055
2450,-0.355,-0.025
2451,-0.335,-0.100
2452,-0.310,-0.055
2453,-0.320,-0.130
2454,-0.270,-0.065
2455,-0.270,-0.115
2456,-0.205,-0.050
2457,-0.395,0.000
2458,-0.200,0.475
2459,0.235,0.440
2460,1.075,0.725
2461,1.445,-0.700
2462,0.605,-1.605
2463,-0.580,-2.195
2464,-0.700,-2.430
2465,-0.475,-1.840
2466,-0.150,-0.765
2467,-0.295,-0.095
2468,-0.230,0.015
2469,-0.285,0.070
2470,-0.235,0.075
2471,-0.270,0.115
2472,-0.165,0.085
2473,-0.255,0.180
2474,-0.240,0.070
2475,-0.185,0.170
2476,-0.200,0.140
2477,-0.130,0.215
2478,-0.220,0.165
2479,-0.100,0.305
2480,-0.185,0.270
2481,-0.080,0.355
2482,-0.160,0.375
2483,-0.020,0.475
2484,-0.075,0.490
2485,0.065,0.595
2486,-0.020,0.635
2487,0.110,0.730
2488,0.055,0.780
2489,0.175,0.815
2490,0.085,0.830
2491,0.140,0.820
2492,0.070,0.870
2493,0.050,0.765
2494,0.030,0.730
2495,-0.070,0.580
2496,-0.050,0.540
2497,-0.210,0.390
2498,-0.140,0.365
2499,-0.275,0.225
2500,-0.160,0.205
2501,-0.305,0.065
2502,-0.170,0.110
2503,-0.295,0.005
2504,-0.155,0.025
2505,-0.260,0.000
2506,-0.155,0.020
2507,-0.230,0.005
2508,-0.160,0.035
2509,-0.215,0.055
2510,-0.160,0.020
2511,-0.180,0.075
2512,-0.195,0.035
2513,-0.145,0.120
2514,-0.195,0.075
2515,-0.140,0.135
2516,-0.220,0.040
2517,-0.140,0.135
2518,-0.235,0.055
2519,-0.140,0.095
2520,-0.245,0.040
2521,-0.150,0.095
2522,-0.270,0.015
2523,-0.140,0.070
2524,-0.265,0.030
2525,-0.165,0.020
2526,-0.270,0.020
2527,-0.175,0.025
2528,-0.220,0.015
2529,-0.160,0.025
2530,-0.210,0.005
2531,-0.110,0.025
2532,-0.105,0.130
2533,-0.055,0.140
2534,-0.080,0.265
2535,0.010,0.275
2536,0.025,0.255
2537,-0.080,0.125
2538,-0.115,0.035
2539,-0.185,-0.060
2540,-0.115,-0.010
2541,-0.295,-0.100
2542,-0.250,-0.005
2543,-0.395,-0.085
2544,-0.270,-0.045
2545,-0.370,-0.120
2546,-0.185,-0.075
2547,-0.300,-0.070
2548,-0.190,-0.060
2549,-0.300,-0.075
2550,-0.310,0.085
2551,-0.275,0.480
2552,0.340,0.575
2553,0.995,0.615
2554,1.450,-0.945
2555,0.370,-1.790
2556,-0.615,-2.350
2557,-0.715,-2.510
2558,-0.415,-1.545
2559,-0.165,-0.520
2560,-0.305,-0.045
2561,-0.250,0.120
2562,-0.340,0.060
2563,-0.225,0.160
2564,-0.295,0.100
2565,-0.180,0.175
2566,-0.290,0.135
2567,-0.160,0.220
2568,-0.255,0.185
2569,-0.145,0.230
2570,-0.250,0.240
2571,-0.125,0.280
2572,-0.220,0.310
2573,-0.080,0.360
2574,-0.145,0.415
2575,-0.080,0.445
2576,-0.080,0.545
2577,0.000,0.570
2578,0.020,0.635
2579,0.040,0.680
2580,0.125,0.780
2581,0.085,0.795
2582,0.195,0.885
2583,0.115,0.860
2584,0.225,0.915
2585,0.065,0.850
2586,0.160,0.855
2587,-0.005,0.735
2588,0.050,0.690
2589,-0.125,0.525
2590,-0.085,0.455
2591,-0.230,0.340
2592,-0.115,0.255
2593,-0.225,0.155
2594,-0.125,0.135
2595,-0.220,0.075
2596,-0.135,0.025
2597,-0.175,0.050
2598,-0.135,0.000
2599,-0.185,0.000
2600,-0.160,-0.015
2601,-0.150,0.065
2602,-0.180,0.005
2603,-0.160,0.110
2604,-0.155,0.030
2605,-0.120,0.125
2606,-0.160,0.065
2607,-0.145,0.085
2608,-0.210,0.015
2609,-0.140,0.100
2610,-0.245,0.040
2611,-0.120,0.030
2612,-0.240,0.010
2613,-0.135,0.020
2614,-0.245,-0.010
2615,-0.155,-0.015
2616,-0.235,-0.045
2617,-0.150,-0.030
2618,-0.240,-0.005
2619,-0.200,-0.045
2620,-0.240,-0.015
2621,-0.190,-0.055
2622,-0.210,-0.035
2623,-0.225,-0.055
2624,-0.125,0.010
2625,-0.120,0.000
2626,-0.035,0.135
2627,-0.145,0.100
2628,0.045,0.225
2629,-0.020,0.105
2630,0.025,0.095
2631,-0.175,-0.030
2632,-0.115,-0.115
2633,-0.260,-0.135
2634,-0.235,-0.115
2635,-0.375,-0.120
2636,-0.285,-0.145
2637,-0.315,-0.130
2638,-0.290,-0.165
2639,-0.270,-0.140
2640,-0.320,-0.210
2641,-0.280,-0.135
2642,-0.340,-0.190
2643,-0.240,-0.095
2644,-0.455,0.190
2645,0.060,0.415
2646,0.565,0.605
2647,1.415,0.120
2648,1.090,-1.270
2649,-0.095,-1.880
2650,-0.875,-2.360
2651,-0.505,-2.265
2652,-0.360,-1.300
2653,-0.185,-0.440
2654,-0.360,-0.085
2655,-0.295,-0.020
2656,-0.320,0.010
2657,-0.235,0.000
2658,-0.210,0.040
2659,-0.235,0.015
2660,-0.185,0.135
2661,-0.315,0.055
2662,-0.200,0.125
2663,-0.230,0.090
2664,-0.050,0.175
2665,-0.225,0.145
2666,-0.065,0.210
2667,-0.200,0.240
2668,-0.035,0.295
2669,-0.190,0.345
2670,-0.005,0.380
2671,-0.020,0.460
2672,0.095,0.510
2673,0.040,0.605
2674,0.095,0.665
2675,0.155,0.720
2676,0.110,0.710
2677,0.185,0.805
2678,0.100,0.710
2679,0.135,0.775
2680,0.005,0.690
2681,0.080,0.660
2682,-0.115,0.510
2683,-0.040,0.465
2684,-0.215,0.320
2685,-0.100,0.215
2686,-0.255,0.120
2687,-0.125,0.105
2688,-0.235,0.025
2689,-0.130,0.000
2690,-0.275,0.010
2691,-0.145,-0.005
2692,-0.200,0.000
2693,-0.175,-0.015
2694,-0.145,0.030
2695,-0.210,-0.035
2696,-0.125,0.040
2697,-0.155,-0.015
2698,-0.090,0.050
2699,-0.220,0.010
2700,-0.115,0.050
2701,-0.230,0.000
2702,-0.120,0.080
2703,-0.215,0.030
2704,-0.070,0.070
2705,-0.265,0.000
2706,-0.110,0.025
2707,-0.240,0.010
2708,-0.100,0.040
2709,-0.260,-0.005
2710,-0.140,0.000
2711,-0.260,0.000
2712,-0.125,0.000
2713,-0.215,-0.005
2714,-0.185,-0.060
2715,-0.200,-0.005
2716,-0.180,-0.050
2717,-0.195,-0.015
2718,-0.190,-0.035
2719,-0.100,0.040
2720,-0.100,0.040
2721,-0.045,0.170
2722,-0.060,0.170
2723,0.070,0.215
2724,-0.065,0.065
2725,-0.055,0.035
2726,-0.220,-0.140
2727,-0.125,-0.075
2728,-0.320,-0.120
2729,-0.220,-0.120
2730,-0.405,-0.160
2731,-0.255,-0.175
2732,-0.370,-0.205
2733,-0.230,-0.180
2734,-0.350,-0.215
2735,-0.205,-0.205
2736,-0.350,-0.200
2737,-0.315,-0.140
2738,-0.425,0.215
2739,0.070,0.370
2740,0.745,0.675
2741,1.445,-0.260
2742,0.890,-1.410
2743,-0.350,-2.025
2744,-0.885,-2.395
2745,-0.590,-2.305
2746,-0.330,-1.220
2747,-0.290,-0.450
2748,-0.260,-0.040
2749,-0.350,-0.070
2750,-0.225,0.000
2751,-0.360,-0.020
2752,-0.205,0.035
2753,-0.345,-0.020
2754,-0.165,0.060
2755,-0.300,0.015
2756,-0.175,0.095
2757,-0.280,0.085
2758,-0.130,0.115
2759,-0.265,0.140
2760,-0.140,0.175
2761,-0.195,0.210
2762,-0.095,0.255
2763,-0.120,0.345
2764,-0.065,0.355
2765,-0.065,0.460
2766,-0.050,0.495
2767,0.025,0.600
2768,0.095,0.625
2769,0.105,0.705
2770,0.035,0.690
2771,0.080,0.775
2772,0.025,0.705
2773,0.075,0.705
2774,-0.095,0.580
2775,-0.005,0.565
2776,-0.215,0.365
2777,-0.100,0.310
2778,-0.270,0.160
2779,-0.135,0.120
2780,-0.285,0.030
2781,-0.175,0.010
2782,-0.300,-0.045
2783,-0.210,-0.065
2784,-0.295,-0.090
2785,-0.180,-0.070
2786,-0.280,-0.065
2787,-0.205,-0.065
2788,-0.310,-0.085
2789,-0.180,-0.050
2790,-0.255,-0.040
2791,-0.180,-0.045
2792,-0.210,-0.005
2793,-0.160,-0.050
2794,-0.185,0.010
2795,-0.215,-0.045
2796,-0.195,0.000
2797,-0.235,-0.010
2798,-0.190,-0.005
2799,-0.245,-0.050
2800,-0.160,0.035
2801,-0.220,-0.055
2802,-0.155,0.005
2803,-0.210,-0.050
2804,-0.155,-0.015
2805,-0.250,-0.075
2806,-0.165,-0.005
2807,-0.260,-0.100
2808,-0.155,-0.035
2809,-0.255,-0.085
2810,-0.175,-0.070
2811,-0.235,-0.040
2812,-0.080,0.010
2813,-0.120,0.060
2814,-0.005,0.120
2815,-0.060,0.215
2816,0.035,0.125
2817,-0.070,0.075
2818,-0.080,-0.095
2819,-0.180,-0.140
2820,-0.170,-0.155
2821,-0.270,-0.135
2822,-0.325,-0.160
2823,-0.340,-0.135
2824,-0.370,-0.200
2825,-0.265,-0.175
2826,-0.340,-0.240
2827,-0.245,-0.180
2828,-0.340,-0.255
2829,-0.220,-0.190
2830,-0.440,-0.075
2831,-0.245,0.305
2832,0.180,0.375
2833,1.050,0.595
2834,1.400,-0.900
2835,0.495,-1.820
2836,-0.685,-2.460
2837,-0.770,-2.665
2838,-0.490,-1.780
2839,-0.145,-0.735
2840,-0.340,-0.170
2841,-0.260,-0.060
2842,-0.315,0.025
2843,-0.255,-0.040
2844,-0.265,0.040
2845,-0.240,-0.010
2846,-0.220,0.030
2847,-0.215,0.020
2848,-0.195,0.075
2849,-0.245,0.065
2850,-0.165,0.155
2851,-0.255,0.105
2852,-0.130,0.170
2853,-0.200,0.195
2854,-0.070,0.290
2855,-0.135,0.285
2856,0.000,0.400
2857,-0.125,0.420
2858,0.045,0.520
2859,-0.070,0.550
2860,0.110,0.640
2861,0.000,0.650
2862,0.155,0.735
2863,0.020,0.710
2864,0.105,0.735
2865,0.010,0.715
2866,-0.015,0.655
2867,-0.085,0.560
2868,-0.080,0.460
2869,-0.180,0.355
2870,-0.195,0.225
2871,-0.260,0.165
2872,-0.270,0.045
2873,-0.265,0.030
2874,-0.285,-0.080
2875,-0.250,-0.050
2876,-0.305,-0.130
2877,-0.205,-0.085
2878,-0.355,-0.150
2879,-0.215,-0.075
2880,-0.355,-0.110
2881,-0.170,-0.040
2882,-0.315,-0.120
2883,-0.175,-0.015
2884,-0.315,-0.075
2885,-0.180,-0.035
2886,-0.310,-0.035
2887,-0.205,-0.030
2888,-0.290,-0.010
2889,-0.225,-0.060
2890,-0.290,-0.015
2891,-0.250,-0.065
2892,-0.280,-0.055
2893,-0.295,-0.090
2894,-0.265,-0.035
2895,-0.335,-0.110
2896,-0.245,-0.060
2897,-0.355,-0.095
2898,-0.225,-0.040
2899,-0.355,-0.110
2900,-0.245,-0.095
2901,-0.365,-0.155
2902,-0.240,-0.075
2903,-0.305,-0.105
2904,-0.130,-0.005
2905,-0.255,-0.005
2906,-0.080,0.115
2907,-0.145,0.150
2908,-0.020,0.120
2909,-0.165,0.050
2910,-0.175,-0.105
2911,-0.275,-0.175
2912,-0.250,-0.210
2913,-0.325,-0.180
2914,-0.370,-0.205
2915,-0.410,-0.160
2916,-0.435,-0.215
2917,-0.390,-0.200
2918,-0.415,-0.250
2919,-0.345,-0.195
2920,-0.390,-0.245
2921,-0.325,-0.180
2922,-0.530,-0.185
2923,-0.340,0.335
2924,-0.045,0.315
2925,0.845,0.745
2926,1.335,-0.740
2927,0.920,-1.735
2928,-0.400,-2.425
2929,-0.885,-2.800
2930,-0.650,-2.175
2931,-0.290,-1.050
2932,-0.295,-0.255
2933,-0.315,-0.075
2934,-0.300,0.035
2935,-0.360,0.000
2936,-0.300,0.065
2937,-0.355,-0.005
2938,-0.270,0.085
2939,-0.340,0.025
2940,-0.190,0.125
2941,-0.320,0.105
2942,-0.165,0.180
2943,-0.315,0.130
2944,-0.185,0.210
2945,-0.270,0.235
2946,-0.135,0.240
2947,-0.150,0.325
2948,-0.080,0.340
2949,-0.095,0.420
2950,-0.025,0.460
2951,0.015,0.540
2952,0.005,0.570
2953,0.055,0.695
2954,0.020,0.700
2955,0.145,0.770
2956,0.060,0.715
2957,0.185,0.775
2958,0.010,0.690
2959,0.070,0.715
2960,-0.080,0.620
2961,-0.015,0.505
2962,-0.155,0.445
2963,-0.155,0.335
2964,-0.225,0.250
2965,-0.245,0.115
2966,-0.235,0.065
2967,-0.270,-0.025
2968,-0.185,0.005
2969,-0.245,-0.090
2970,-0.165,-0.060
2971,-0.290,-0.120
2972,-0.185,-0.055
2973,-0.325,-0.115
2974,-0.185,-0.050
2975,-0.260,-0.050
2976,-0.135,-0.025
2977,-0.235,-0.015
2978,-0.205,-0.020
2979,-0.255,0.005
2980,-0.230,-0.025
2981,-0.255,0.000
2982,-0.260,-0.055
2983,-0.250,-0.005
2984,-0.235,-0.075
2985,-0.205,-0.030
2986,-0.275,-0.105
2987,-0.245,-0.045
2988,-0.315,-0.145
2989,-0.210,-0.050
2990,-0.350,-0.140
2991,-0.205,-0.100
2992,-0.340,-0.160
2993,-0.210,-0.110
2994,-0.310,-0.155
2995,-0.200,-0.120
2996,-0.305,-0.150
2997,-0.195,-0.145
2998,-0.245,-0.080
2999,-0.135,-0.030
3000,-0.150,0.050
3001,-0.065,0.080
3002,-0.065,0.075
3003,-0.095,-0.035
3004,-0.205,-0.095
3005,-0.240,-0.225
3006,-0.200,-0.195
3007,-0.305,-0.270
3008,-0.290,-0.225
3009,-0.425,-0.280
3010,-0.355,-0.220
3011,-0.470,-0.305
3012,-0.310,-0.305
3013,-0.435,-0.305
3014,-0.320,-0.260
3015,-0.390,-0.265
3016,-0.310,-0.190
3017,-0.495,0.025
3018,-0.130,0.275
3019,0.425,0.440
3020,1.230,0.150
3021,1.170,-1.205
3022,-0.055,-1.905
3023,-0.840,-2.345
3024,-0.760,-2.575
3025,-0.440,-1.520
3026,-0.340,-0.725
3027,-0.340,-0.165
3028,-0.450,-0.170
3029,-0.260,-0.085
3030,-0.430,-0.105
3031,-0.250,-0.045
3032,-0.395,-0.085
3033,-0.280,-0.025
3034,-0.375,-0.020
3035,-0.230,-0.005
3036,-0.350,0.005
3037,-0.260,0.045
3038,-0.310,0.030
3039,-0.195,0.080
3040,-0.180,0.135
3041,-0.175,0.120
3042,-0.175,0.215
3043,-0.140,0.250
3044,-0.110,0.315
3045,-0.105,0.360
3046,0.030,0.500
3047,0.000,0.480
3048,0.090,0.590
3049,0.005,0.565
3050,0.085,0.645
3051,-0.045,0.550
3052,0.060,0.640
3053,-0.060,0.490
3054,-0.025,0.465
3055,-0.180,0.320
3056,-0.145,0.280
3057,-0.270,0.115
3058,-0.205,0.070
3059,-0.320,-0.005
3060,-0.240,-0.045
3061,-0.315,-0.070
3062,-0.255,-0.120
3063,-0.270,-0.110
3064,-0.270,-0.145
3065,-0.280,-0.120
3066,-0.275,-0.130
3067,-0.255,-0.095
3068,-0.250,-0.150
3069,-0.220,-0.055
3070,-0.305,-0.140
3071,-0.220,-0.050
3072,-0.300,-0.115
3073,-0.170,-0.070
3074,-0.315,-0.150
3075,-0.225,-0.060
3076,-0.320,-0.120
3077,-0.175,-0.110
3078,-0.300,-0.090
3079,-0.215,-0.110
3080,-0.285,-0.130
3081,-0.210,-0.110
3082,-0.290,-0.120
3083,-0.265,-0.155
3084,-0.300,-0.135
3085,-0.285,-0.155
3086,-0.255,-0.125
3087,-0.270,-0.175
3088,-0.260,-0.150
3089,-0.335,-0.200
3090,-0.235,-0.145
3091,-0.220,-0.180
3092,-0.090,-0.030
3093,-0.220,-0.030
3094,-0.080,0.075
3095,-0.135,0.080
3096,0.035,0.060
3097,-0.145,-0.050
3098,-0.095,-0.160
3099,-0.290,-0.260
3100,-0.215,-0.245
3101,-0.380,-0.265
3102,-0.310,-0.260
3103,-0.435,-0.300
3104,-0.360,-0.340
3105,-0.385,-0.305
3106,-0.330,-0.340
3107,-0.355,-0.290
3108,-0.340,-0.340
3109,-0.340,-0.295
3110,-0.470,-0.230
3111,-0.360,0.225
3112,0.100,0.210
3113,0.925,0.680
3114,1.410,-0.770
3115,0.630,-1.650
3116,-0.650,-2.325
3117,-0.910,-2.700
3118,-0.620,-2.080
3119,-0.245,-0.960
3120,-0.380,-0.320
3121,-0.300,-0.135
3122,-0.405,-0.130
3123,-0.305,-0.105
3124,-0.400,-0.100
3125,-0.305,-0.075
3126,-0.370,-0.075
3127,-0.275,-0.080
3128,-0.320,-0.040
3129,-0.265,-0.065
3130,-0.245,-0.010
3131,-0.305,-0.025
3132,-0.275,0.070
3133,-0.275,0.030
3134,-0.180,0.150
3135,-0.255,0.125
3136,-0.145,0.280
3137,-0.155,0.245
3138,0.005,0.380
3139,-0.115,0.380
3140,0.030,0.515
3141,-0.035,0.525
3142,0.090,0.615
3143,0.000,0.600
3144,0.055,0.625
3145,-0.020,0.605
3146,0.000,0.550
3147,-0.075,0.520
3148,-0.125,0.405
3149,-0.175,0.320
3150,-0.230,0.175
3151,-0.260,0.115
3152,-0.280,0.005
3153,-0.290,-0.025
3154,-0.305,-0.135
3155,-0.275,-0.095
3156,-0.370,-0.230
3157,-0.265,-0.145
3158,-0.335,-0.215
3159,-0.260,-0.140
3160,-0.335,-0.165
3161,-0.240,-0.145
3162,-0.355,-0.200
3163,-0.210,-0.105
3164,-0.355,-0.170
3165,-0.210,-0.145
3166,-0.315,-0.150
3167,-0.235,-0.115
3168,-0.315,-0.130
3169,-0.245,-0.135
3170,-0.305,-0.105
3171,-0.245,-0.135
3172,-0.300,-0.115
3173,-0.275,-0.165
3174,-0.295,-0.115
3175,-0.320,-0.155
3176,-0.295,-0.135
3177,-0.330,-0.180
3178,-0.240,-0.135
3179,-0.340,-0.185
3180,-0.220,-0.105
3181,-0.355,-0.195
3182,-0.220,-0.155
3183,-0.350,-0.180
3184,-0.160,-0.065
3185,-0.285,-0.060
3186,-0.105,0.025
3187,-0.220,0.045
3188,-0.020,0.110
3189,-0.150,0.000
3190,-0.110,-0.070
3191,-0.285,-0.205
3192,-0.220,-0.230
3193,-0.280,-0.215
3194,-0.320,-0.280
3195,-0.385,-0.200
3196,-0.405,-0.285
3197,-0.340,-0.235
3198,-0.395,-0.310
3199,-0.345,-0.215
3200,-0.440,-0.290
3201,-0.295,-0.265
3202,-0.450,-0.275
3203,-0.425,-0.100
3204,-0.390,0.225
3205,0.290,0.340
3206,0.915,0.430
3207,1.470,-0.990
3208,0.435,-1.885
3209,-0.540,-2.465
3210,-0.990,-2.835
3211,-0.595,-2.175
3212,-0.335,-1.035
3213,-0.345,-0.360
3214,-0.375,-0.110
3215,-0.415,-0.110
3216,-0.325,-0.065
3217,-0.370,-0.090
3218,-0.275,-0.020
3219,-0.375,-0.060
3220,-0.230,0.000
3221,-0.350,-0.045
3222,-0.230,0.040
3223,-0.370,0.000
3224,-0.210,0.050
3225,-0.345,0.065
3226,-0.180,0.090
3227,-0.260,0.165
3228,-0.170,0.210
3229,-0.170,0.315
3230,-0.115,0.320
3231,-0.085,0.445
3232,-0.075,0.460
3233,-0.010,0.570
3234,-0.030,0.585
3235,0.055,0.695
3236,-0.015,0.650
3237,0.085,0.730
3238,-0.055,0.670
3239,0.010,0.645
3240,-0.170,0.565
3241,-0.045,0.570
3242,-0.255,0.400
3243,-0.160,0.305
3244,-0.330,0.210
3245,-0.240,0.100
3246,-0.345,0.025
3247,-0.290,-0.060
3248,-0.360,-0.085
3249,-0.325,-0.140
3250,-0.355,-0.105
3251,-0.340,-0.155
3252,-0.320,-0.120
3253,-0.345,-0.150
3254,-0.300,-0.125
3255,-0.350,-0.150
3256,-0.255,-0.080
3257,-0.370,-0.170
3258,-0.245,-0.090
3259,-0.370,-0.130
3260,-0.220,-0.085
3261,-0.365,-0.095
3262,-0.235,-0.080
3263,-0.365,-0.105
3264,-0.295,-0.135
3265,-0.345,-0.145
3266,-0.355,-0.120
3267,-0.350,-0.075
3268,-0.380,-0.160
3269,-0.325,-0.110
3270,-0.400,-0.180
3271,-0.295,-0.125
3272,-0.395,-0.185
3273,-0.290,-0.125
3274,-0.405,-0.185
3275,-0.285,-0.160
3276,-0.400,-0.180
3277,-0.280,-0.135
3278,-0.285,-0.100
3279,-0.215,-0.025
3280,-0.205,0.050
3281,-0.190,0.080
3282,-0.100,0.135
3283,-0.165,-0.005
3284,-0.155,-0.030
3285,-0.315,-0.240
3286,-0.280,-0.195
3287,-0.380,-0.285
3288,-0.415,-0.225
3289,-0.560,-0.265
3290,-0.460,-0.235
3291,-0.515,-0.320
3292,-0.350,-0.280
3293,-0.475,-0.335
3294,-0.345,-0.270
3295,-0.480,-0.305
3296,-0.385,-0.220
3297,-0.545,0.020
3298,-0.155,0.285
3299,0.400,0.505
3300,1.185,-0.220
3301,1.080,-1.610
3302,-0.185,-2.350
3303,-1.045,-2.870
3304,-0.760,-2.665
3305,-0.440,-1.245
3306,-0.375,-0.415
3307,-0.445,-0.140
3308,-0.460,-0.145
3309,-0.430,-0.035
3310,-0.475,-0.080
3311,-0.375,-0.015
3312,-0.430,-0.050
3313,-0.335,0.020
3314,-0.435,0.000
3315,-0.295,0.075
3316,-0.410,0.050
3317,-0.280,0.125
3318,-0.360,0.135
3319,-0.250,0.190
3320,-0.325,0.210
3321,-0.165,0.285
3322,-0.215,0.350
3323,-0.120,0.410
3324,-0.160,0.480
3325,-0.035,0.495
3326,-0.015,0.575
3327,-0.010,0.605
3328,0.020,0.685
3329,0.015,0.640
3330,0.075,0.720
3331,-0.005,0.695
3332,0.040,0.725
3333,-0.105,0.640
3334,-0.070,0.615
3335,-0.225,0.455
3336,-0.150,0.420
3337,-0.310,0.250
3338,-0.240,0.210
3339,-0.370,0.065
3340,-0.280,0.015
3341,-0.385,-0.045
3342,-0.300,-0.065
3343,-0.340,-0.070
3344,-0.280,-0.080
3345,-0.315,-0.080
3346,-0.290,-0.110
3347,-0.270,-0.025
3348,-0.310,-0.075
3349,-0.275,-0.020
3350,-0.320,-0.060
3351,-0.260,0.000
3352,-0.370,-0.040
3353,-0.290,-0.005
3354,-0.365,-0.050
3355,-0.265,-0.030
3356,-0.340,-0.095
3357,-0.235,-0.055
3358,-0.340,-0.115
3359,-0.270,-0.100
3360,-0.395,-0.115
3361,-0.310,-0.135
3362,-0.385,-0.135
3363,-0.310,-0.145
3364,-0.385,-0.140
3365,-0.290,-0.155
3366,-0.345,-0.125
3367,-0.315,-0.140
3368,-0.350,-0.105
3369,-0.330,-0.180
3370,-0.390,-0.120
3371,-0.290,-0.145
3372,-0.260,-0.095
3373,-0.260,-0.055
3374,-0.215,0.030
3375,-0.240,0.045
3376,-0.035,0.100
3377,-0.175,-0.045
3378,-0.165,-0.055
3379,-0.335,-0.220
3380,-0.265,-0.230
3381,-0.415,-0.270
3382,-0.405,-0.255
3383,-0.530,-0.250
3384,-0.420,-0.280
3385,-0.540,-0.330
3386,-0.400,-0.305
3387,-0.480,-0.320
3388,-0.405,-0.320
3389,-0.470,-0.290
3390,-0.410,-0.310
3391,-0.605,-0.030
3392,-0.345,0.285
3393,0.240,0.350
3394,1.010,0.465
3395,1.325,-0.960
3396,0.050,-1.715
3397,-0.840,-2.235
3398,-1.040,-2.720
3399,-0.615,-1.820
3400,-0.500,-0.935
3401,-0.365,-0.250
3402,-0.480,-0.165
3403,-0.405,-0.075
3404,-0.510,-0.125
3405,-0.365,-0.070
3406,-0.460,-0.075
3407,-0.375,-0.050
3408,-0.465,-0.040
3409,-0.365,-0.040
3410,-0.405,0.010
3411,-0.395,-0.015
3412,-0.365,0.060
3413,-0.325,0.005
3414,-0.305,0.125
3415,-0.300,0.105
3416,-0.255,0.210
3417,-0.300,0.185
3418,-0.200,0.320
3419,-0.170,0.350
3420,-0.090,0.460
3421,-0.155,0.515
3422,-0.040,0.580
3423,-0.085,0.590
3424,0.015,0.640
3425,-0.100,0.595
3426,-0.020,0.640
3427,-0.180,0.555
3428,-0.140,0.525
3429,-0.285,0.415
3430,-0.230,0.300
3431,-0.390,0.190
3432,-0.295,0.105
3433,-0.390,0.055
3434,-0.340,-0.035
3435,-0.410,-0.035
3436,-0.320,-0.080
3437,-0.470,-0.075
3438,-0.390,-0.085
3439,-0.400,-0.065
3440,-0.335,-0.100
3441,-0.355,-0.035
3442,-0.355,-0.080
3443,-0.330,-0.020
3444,-0.410,-0.070
3445,-0.320,-0.030
3446,-0.415,-0.045
3447,-0.280,0.000
3448,-0.425,-0.040
3449,-0.260,-0.010
3450,-0.375,-0.030
3451,-0.250,-0.030
3452,-0.370,-0.035
3453,-0.280,-0.015
3454,-0.425,-0.035
3455,-0.300,-0.065
3456,-0.400,-0.055
3457,-0.320,-0.085
3458,-0.390,-0.045
3459,-0.365,-0.075
3460,-0.335,-0.035
3461,-0.395,-0.135
3462,-0.335,-0.075
3463,-0.415,-0.115
3464,-0.315,-0.055
3465,-0.365,-0.095
3466,-0.205,-0.020
3467,-0.325,-0.005
3468,-0.185,0.125
3469,-0.335,0.120
3470,-0.120,0.185
3471,-0.230,0.085
3472,-0.175,0.020
3473,-0.335,-0.100
3474,-0.255,-0.135
3475,-0.355,-0.120
3476,-0.435,-0.205
3477,-0.465,-0.140
3478,-0.480,-0.210
3479,-0.440,-0.195
3480,-0.500,-0.235
3481,-0.410,-0.205
3482,-0.480,-0.230
3483,-0.400,-0.165
3484,-0.470,-0.210
3485,-0.510,-0.010
3486,-0.480,0.300
3487,0.220,0.410
3488,0.900,0.505
3489,1.335,-0.875
3490,0.120,-1.740
3491,-0.770,-2.280
3492,-1.045,-2.680
3493,-0.585,-1.845
3494,-0.385,-0.830
3495,-0.360,-0.170
3496,-0.470,-0.065
3497,-0.425,-0.045
3498,-0.450,0.020
3499,-0.400,-0.060
3500,-0.390,0.055
3501,-0.420,0.010
3502,-0.380,0.075
3503,-0.400,0.040
3504,-0.350,0.095
3505,-0.375,0.035
3506,-0.260,0.135
3507,-0.370,0.100
3508,-0.250,0.200
3509,-0.350,0.205
3510,-0.190,0.295
3511,-0.290,0.305
3512,-0.170,0.405
3513,-0.220,0.470
3514,-0.150,0.510
3515,-0.160,0.595
3516,-0.090,0.605
3517,-0.075,0.690
3518,-0.080,0.685
3519,-0.050,0.770
3520,-0.100,0.655
3521,-0.105,0.720
3522,-0.195,0.570
3523,-0.185,0.525
3524,-0.345,0.370
3525,-0.245,0.310
3526,-0.425,0.180
3527,-0.310,0.130
3528,-0.455,0.060
3529,-0.385,-0.005
3530,-0.440,-0.015
3531,-0.370,-0.065
3532,-0.435,-0.055
3533,-0.420,-0.090
3534,-0.415,-0.055
3535,-0.395,-0.090
3536,-0.375,-0.030
3537,-0.450,-0.095
3538,-0.395,-0.030
3539,-0.425,-0.090
3540,-0.285,-0.020
3541,-0.440,-0.075
3542,-0.290,-0.010
3543,-0.495,-0.070
3544,-0.330,-0.025
3545,-0.480,-0.020
3546,-0.355,-0.045
3547,-0.455,-0.045
3548,-0.355,-0.035
3549,-0.450,-0.060
3550,-0.400,-0.090
3551,-0.430,-0.055
3552,-0.430,-0.105
3553,-0.420,-0.060
3554,-0.410,-0.090
3555,-0.370,-0.065
3556,-0.435,-0.125
3557,-0.350,-0.065
3558,-0.470,-0.140
3559,-0.265,-0.060
3560,-0.365,-0.035
3561,-0.200,0.070
3562,-0.355,0.105
3563,-0.140,0.175
3564,-0.250,0.125
3565,-0.145,0.060
3566,-0.360,-0.080
3567,-0.320,-0.175
3568,-0.435,-0.165
3569,-0.425,-0.180
3570,-0.520,-0.140
3571,-0.555,-0.165
3572,-0.505,-0.145
3573,-0.530,-0.195
3574,-0.470,-0.165
3575,-0.545,-0.215
3576,-0.440,-0.145
3577,-0.555,-0.205
3578,-0.450,-0.105
3579,-0.630,0.145
3580,-0.195,0.435
3581,0.330,0.585
3582,1.140,-0.005
3583,1.110,-1.435
3584,-0.125,-2.090
3585,-1.055,-2.660
3586,-0.850,-2.710
3587,-0.540,-1.345
3588,-0.405,-0.460
3589,-0.495,-0.035
3590,-0.505,-0.025
3591,-0.450,0.025
3592,-0.495,0.025
3593,-0.400,0.095
3594,-0.480,0.025
3595,-0.365,0.105
3596,-0.480,0.065
3597,-0.375,0.120
3598,-0.460,0.110
3599,-0.350,0.135
3600,-0.420,0.160
3601,-0.340,0.170
3602,-0.395,0.275
3603,-0.300,0.310
3604,-0.330,0.390
3605,-0.270,0.425
3606,-0.235,0.515
3607,-0.190,0.535
3608,-0.150,0.685
3609,-0.130,0.675
3610,-0.045,0.780
3611,-0.110,0.775
3612,-0.010,0.815
3613,-0.125,0.775
3614,-0.040,0.805
3615,-0.195,0.710
3616,-0.130,0.685
3617,-0.305,0.545
3618,-0.270,0.450
3619,-0.405,0.315
3620,-0.300,0.230
3621,-0.445,0.140
3622,-0.340,0.090
3623,-0.465,0.040
3624,-0.360,-0.010
3625,-0.465,-0.015
3626,-0.370,-0.055
3627,-0.405,-0.025
3628,-0.390,-0.080
3629,-0.385,0.000
3630,-0.410,-0.030
3631,-0.375,0.015
3632,-0.425,-0.025
3633,-0.355,0.035
3634,-0.405,-0.015
3635,-0.355,0.035
3636,-0.415,-0.015
3637,-0.360,0.040
3638,-0.450,-0.025
3639,-0.365,0.000
3640,-0.465,-0.040
3641,-0.350,-0.005
3642,-0.485,-0.055
3643,-0.360,-0.020
3644,-0.480,-0.055
3645,-0.370,-0.070
3646,-0.480,-0.055
3647,-0.390,-0.090
3648,-0.455,-0.065
3649,-0.400,-0.105
3650,-0.445,-0.085
3651,-0.410,-0.130
3652,-0.350,-0.085
3653,-0.330,-0.040
3654,-0.280,0.080
3655,-0.305,0.100
3656,-0.220,0.190
3657,-0.235,0.120
3658,-0.210,0.100
3659,-0.405,-0.095
3660,-0.360,-0.165
3661,-0.475,-0.190
3662,-0.380,-0.145
3663,-0.570,-0.195
3664,-0.490,-0.170
3665,-0.620,-0.215
3666,-0.505,-0.235
3667,-0.535,-0.225
3668,-0.435,-0.260
3669,-0.520,-0.210
3670,-0.455,-0.195
3671,-0.580,-0.115
3672,-0.555,0.235
3673,-0.200,0.365
3674,0.565,0.645
3675,1.200,-0.490
3676,0.780,-1.685
3677,-0.425,-2.355
3678,-1.080,-2.900
3679,-0.710,-2.305
3680,-0.525,-1.160
3681,-0.425,-0.310
3682,-0.570,-0.140
3683,-0.475,-0.020
3684,-0.550,-0.050
3685,-0.405,0.015
3686,-0.505,-0.020
3687,-0.385,0.045
3688,-0.505,0.020
3689,-0.345,0.065
3690,-0.495,0.065
3691,-0.365,0.110
3692,-0.490,0.095
3693,-0.325,0.155
3694,-0.420,0.185
3695,-0.300,0.245
3696,-0.370,0.280
3697,-0.250,0.335
3698,-0.250,0.415
3699,-0.135,0.475
3700,-0.150,0.555
3701,-0.095,0.580
3702,-0.110,0.690
3703,-0.080,0.695
3704,-0.060,0.735
3705,-0.035,0.695
3706,-0.040,0.750
3707,-0.155,0.670
3708,-0.115,0.650
3709,-0.245,0.515
3710,-0.220,0.485
3711,-0.375,0.340
3712,-0.280,0.295
3713,-0.435,0.120
3714,-0.315,0.145
3715,-0.460,0.010
3716,-0.330,0.010
3717,-0.430,-0.050
3718,-0.305,-0.055
3719,-0.410,-0.045
3720,-0.330,-0.030
3721,-0.425,-0.045
3722,-0.320,-0.040
3723,-0.360,-0.005
3724,-0.310,-0.035
3725,-0.365,0.010
3726,-0.385,-0.030
3727,-0.350,0.000
3728,-0.365,-0.020
3729,-0.320,0.020
3730,-0.415,-0.030
3731,-0.350,0.010
3732,-0.450,-0.070
3733,-0.350,-0.010
3734,-0.465,-0.090
3735,-0.310,-0.030
3736,-0.430,-0.120
3737,-0.325,-0.055
3738,-0.460,-0.130
3739,-0.335,-0.085
3740,-0.415,-0.125
3741,-0.335,-0.090
3742,-0.445,-0.120
3743,-0.320,-0.095
3744,-0.415,-0.100
3745,-0.290,-0.080
3746,-0.330,-0.015
3747,-0.245,0.010
3748,-0.305,0.095
3749,-0.255,0.100
3750,-0.175,0.135
3751,-0.200,0.000
3752,-0.320,-0.060
3753,-0.350,-0.225
3754,-0.365,-0.140
3755,-0.445,-0.220
3756,-0.520,-0.170
3757,-0.525,-0.225
3758,-0.490,-0.200
3759,-0.495,-0.275
3760,-0.490,-0.240
3761,-0.525,-0.280
3762,-0.425,-0.225
3763,-0.535,-0.275
3764,-0.520,-0.145
3765,-0.570,0.170
3766,-0.005,0.335
3767,0.655,0.595
3768,1.300,-0.355
3769,0.365,-1.490
3770,-0.635,-2.085
3771,-1.220,-2.665
3772,-0.720,-2.135
3773,-0.525,-1.090
3774,-0.415,-0.360
3775,-0.545,-0.110
3776,-0.465,-0.140
3777,-0.485,-0.045
3778,-0.465,-0.070
3779,-0.470,-0.030
3780,-0.485,-0.095
3781,-0.425,0.000
3782,-0.455,-0.030
3783,-0.405,0.020
3784,-0.465,0.005
3785,-0.355,0.060
3786,-0.430,0.035
3787,-0.345,0.125
3788,-0.435,0.115
3789,-0.265,0.205
3790,-0.370,0.200
3791,-0.205,0.285
3792,-0.265,0.380
3793,-0.135,0.440
3794,-0.240,0.525
3795,-0.140,0.530
3796,-0.155,0.600
3797,-0.105,0.595
3798,-0.090,0.660
3799,-0.120,0.590
3800,-0.155,0.620
3801,-0.235,0.505
3802,-0.275,0.485
3803,-0.330,0.310
3804,-0.325,0.300
3805,-0.420,0.145
3806,-0.400,0.090
3807,-0.480,0.015
3808,-0.365,-0.005
3809,-0.475,-0.105
3810,-0.365,-0.075
3811,-0.510,-0.120
3812,-0.385,-0.110
3813,-0.505,-0.125
3814,-0.385,-0.090
3815,-0.505,-0.090
3816,-0.360,-0.065
3817,-0.440,-0.065
3818,-0.315,-0.085
3819,-0.450,-0.065
3820,-0.390,-0.100
3821,-0.455,-0.080
3822,-0.410,-0.100
3823,-0.460,-0.060
3824,-0.370,-0.080
3825,-0.405,-0.055
3826,-0.420,-0.100
3827,-0.420,-0.035
3828,-0.430,-0.130
3829,-0.370,-0.060
3830,-0.470,-0.115
3831,-0.385,-0.065
3832,-0.465,-0.125
3833,-0.355,-0.065
3834,-0.485,-0.120
3835,-0.345,-0.080
3836,-0.510,-0.135
3837,-0.370,-0.100
3838,-0.465,-0.105
3839,-0.245,-0.040
3840,-0.350,0.055
3841,-0.210,0.055
3842,-0.320,0.140
3843,-0.200,0.150
3844,-0.200,0.100
3845,-0.290,-0.045
3846,-0.310,-0.120
3847,-0.395,-0.195
3848,-0.340,-0.115
3849,-0.535,-0.205
3850,-0.470,-0.135
3851,-0.620,-0.190
3852,-0.460,-0.175
3853,-0.530,-0.240
3854,-0.400,-0.210
3855,-0.530,-0.210
3856,-0.415,-0.210
3857,-0.540,-0.185
3858,-0.555,-0.020
3859,-0.450,0.350
3860,0.105,0.330
3861,0.915,0.775
3862,1.280,-0.880
3863,0.185,-1.635
3864,-0.875,-2.280
3865,-0.975,-2.665
3866,-0.700,-1.940
3867,-0.360,-0.850
3868,-0.495,-0.230
3869,-0.400,-0.005
3870,-0.535,-0.015
3871,-0.395,0.000
3872,-0.500,0.025
3873,-0.410,0.015
3874,-0.450,0.050
3875,-0.390,0.030
3876,-0.395,0.095
3877,-0.395,0.030
3878,-0.355,0.140
3879,-0.410,0.090
3880,-0.330,0.220
3881,-0.390,0.145
3882,-0.270,0.260
3883,-0.340,0.255
3884,-0.220,0.385
3885,-0.300,0.415
3886,-0.095,0.515
3887,-0.205,0.520
3888,-0.085,0.645
3889,-0.180,0.650
3890,-0.055,0.725
3891,-0.140,0.710
3892,-0.035,0.740
3893,-0.150,0.695
3894,-0.125,0.660
3895,-0.245,0.600
3896,-0.230,0.500
3897,-0.320,0.415
3898,-0.350,0.275
3899,-0.385,0.245
3900,-0.410,0.070
3901,-0.395,0.070
3902,-0.460,-0.055
3903,-0.405,0.000
3904,-0.485,-0.120
3905,-0.400,-0.045
3906,-0.465,-0.135
3907,-0.355,-0.025
3908,-0.465,-0.110
3909,-0.360,-0.045
3910,-0.490,-0.090
3911,-0.335,-0.035
3912,-0.455,-0.075
3913,-0.340,-0.045
3914,-0.460,-0.025
3915,-0.350,-0.055
3916,-0.405,-0.025
3917,-0.360,-0.040
3918,-0.410,-0.030
3919,-0.390,-0.105
3920,-0.415,-0.045
3921,-0.425,-0.100
3922,-0.405,-0.065
3923,-0.430,-0.105
3924,-0.330,-0.050
3925,-0.480,-0.135
3926,-0.345,-0.040
3927,-0.540,-0.110
3928,-0.390,-0.075
3929,-0.480,-0.115
3930,-0.390,-0.125
3931,-0.480,-0.130
3932,-0.325,-0.110
3933,-0.355,-0.045
3934,-0.265,0.020
3935,-0.330,0.085
3936,-0.185,0.120
3937,-0.240,0.100
3938,-0.205,-0.005
3939,-0.305,-0.065
3940,-0.355,-0.210
3941,-0.360,-0.175
3942,-0.440,-0.235
3943,-0.460,-0.180
3944,-0.570,-0.255
3945,-0.505,-0.210
3946,-0.570,-0.320
3947,-0.420,-0.235
3948,-0.550,-0.280
3949,-0.405,-0.230
3950,-0.530,-0.285
3951,-0.475,-0.175
3952,-0.590,0.195
3953,0.000,0.335
3954,0.605,0.585
3955,1.290,-0.610
3956,0.505,-1.765
3957,-0.555,-2.400
3958,-1.135,-2.850
3959,-0.695,-2.305
3960,-0.470,-1.080
3961,-0.405,-0.315
3962,-0.505,-0.115
3963,-0.475,-0.080
3964,-0.450,-0.025
3965,-0.465,-0.070
3966,-0.390,0.025
3967,-0.455,-0.030
3968,-0.355,0.045
3969,-0.440,0.000
3970,-0.320,0.080
3971,-0.430,0.035
3972,-0.280,0.125
3973,-0.420,0.115
3974,-0.250,0.165
3975,-0.345,0.180
3976,-0.180,0.280
3977,-0.280,0.335
3978,-0.160,0.385
3979,-0.195,0.480
3980,-0.140,0.515
3981,-0.105,0.610
3982,-0.075,0.650
3983,-0.015,0.735
3984,-0.060,0.695
3985,-0.015,0.770
3986,-0.095,0.725
3987,-0.050,0.740
3988,-0.185,0.610
3989,-0.120,0.620
3990,-0.300,0.465
3991,-0.235,0.360
3992,-0.420,0.235
3993,-0.285,0.210
3994,-0.440,0.065
3995,-0.340,0.010
3996,-0.455,-0.025
3997,-0.340,-0.080
3998,-0.405,-0.085
3999,-0.320,-0.115
4000,-0.425,-0.090
4001,-0.345,-0.120
4002,-0.400,-0.100
4003,-0.340,-0.085
4004,-0.375,-0.035
4005,-0.360,-0.060
4006,-0.365,0.000
4007,-0.355,-0.060
4008,-0.325,0.025
4009,-0.395,-0.080
4010,-0.335,-0.035
4011,-0.430,-0.085
4012,-0.295,-0.025
4013,-0.435,-0.105
4014,-0.320,-0.050
4015,-0.435,-0.125
4016,-0.370,-0.070
4017,-0.460,-0.115
4018,-0.360,-0.085
4019,-0.470,-0.135
4020,-0.365,-0.115
4021,-0.480,-0.165
4022,-0.365,-0.135
4023,-0.480,-0.150
4024,-0.350,-0.130
4025,-0.380,-0.085
4026,-0.280,-0.065
4027,-0.330,0.010
4028,-0.275,0.040
4029,-0.195,0.140
4030,-0.250,-0.060
4031,-0.310,-0.045
4032,-0.430,-0.260
4033,-0.355,-0.240
4034,-0.470,-0.280
4035,-0.460,-0.265
4036,-0.560,-0.285
4037,-0.490,-0.260
4038,-0.575,-0.330
4039,-0.470,-0.310
4040,-0.580,-0.335
4041,-0.445,-0.300
4042,-0.550,-0.335
4043,-0.455,-0.270
4044,-0.660,-0.060
4045,-0.360,0.240
4046,0.185,0.355
4047,0.940,0.270
4048,1.190,-1.245
4049,0.100,-2.120
4050,-0.870,-2.715
4051,-0.975,-2.970
4052,-0.605,-1.705
4053,-0.465,-0.770
4054,-0.490,-0.245
4055,-0.535,-0.195
4056,-0.480,-0.110
4057,-0.555,-0.165
4058,-0.425,-0.065
4059,-0.530,-0.125
4060,-0.385,-0.055
4061,-0.495,-0.095
4062,-0.395,-0.015
4063,-0.525,-0.050
4064,-0.380,0.010
4065,-0.455,0.045
4066,-0.340,0.050
4067,-0.400,0.095
4068,-0.315,0.135
4069,-0.370,0.205
4070,-0.255,0.260
4071,-0.270,0.325
4072,-0.180,0.395
4073,-0.200,0.470
4074,-0.110,0.490
4075,-0.125,0.585
4076,-0.130,0.570
4077,-0.070,0.640
4078,-0.095,0.560
4079,-0.035,0.650
4080,-0.210,0.515
4081,-0.200,0.500
4082,-0.345,0.365
4083,-0.265,0.315
4084,-0.400,0.145
4085,-0.320,0.105
4086,-0.435,0.000
4087,-0.345,-0.025
4088,-0.525,-0.130
4089,-0.375,-0.150
4090,-0.470,-0.180
4091,-0.330,-0.170
4092,-0.415,-0.190
4093,-0.325,-0.175
4094,-0.420,-0.125
4095,-0.405,-0.195
4096,-0.380,-0.125
4097,-0.380,-0.145
4098,-0.335,-0.060
4099,-0.405,-0.100
4100,-0.320,-0.045
4101,-0.430,-0.140
4102,-0.340,-0.085
4103,-0.460,-0.150
4104,-0.345,-0.115
4105,-0.430,-0.130
4106,-0.335,-0.130
4107,-0.445,-0.170
4108,-0.380,-0.165
4109,-0.450,-0.155
4110,-0.380,-0.230
4111,-0.435,-0.170
4112,-0.445,-0.205
4113,-0.410,-0.160
4114,-0.430,-0.220
4115,-0.375,-0.155
4116,-0.495,-0.225
4117,-0.390,-0.160
4118,-0.475,-0.230
4119,-0.285,-0.165
4120,-0.400,-0.170
4121,-0.200,-0.030
4122,-0.320,-0.040
4123,-0.180,0.040
4124,-0.275,0.000
4125,-0.165,-0.045
4126,-0.390,-0.165
4127,-0.310,-0.280
4128,-0.370,-0.280
4129,-0.420,-0.300
4130,-0.535,-0.290
4131,-0.540,-0.335
4132,-0.480,-0.300
4133,-0.520,-0.380
4134,-0.465,-0.330
4135,-0.530,-0.385
4136,-0.440,-0.305
4137,-0.585,-0.380
4138,-0.435,-0.290
4139,-0.630,-0.050
4140,-0.155,0.255
4141,0.350,0.370
4142,1.220,0.065
4143,0.900,-1.335
4144,-0.205,-1.915
4145,-1.075,-2.490
4146,-0.945,-2.715
4147,-0.685,-1.655
4148,-0.415,-0.820
4149,-0.495,-0.260
4150,-0.475,-0.200
4151,-0.465,-0.130
4152,-0.480,-0.175
4153,-0.420,-0.090
4154,-0.490,-0.150
4155,-0.435,-0.070
4156,-0.470,-0.130
4157,-0.335,-0.080
4158,-0.490,-0.140
4159,-0.320,-0.035
4160,-0.500,-0.075
4161,-0.305,0.000
4162,-0.435,0.035
4163,-0.275,0.065
4164,-0.315,0.100
4165,-0.200,0.135
4166,-0.275,0.200
4167,-0.190,0.260
4168,-0.210,0.350
4169,-0.190,0.365
4170,-0.110,0.475
4171,-0.090,0.470
4172,-0.015,0.525
4173,-0.145,0.475
4174,-0.105,0.520
4175,-0.255,0.415
4176,-0.155,0.420
4177,-0.340,0.335
4178,-0.295,0.220
4179,-0.410,0.135
4180,-0.390,-0.005
4181,-0.455,-0.040
4182,-0.405,-0.170
4183,-0.430,-0.145
4184,-0.490,-0.215
4185,-0.465,-0.205
4186,-0.445,-0.250
4187,-0.405,-0.190
4188,-0.475,-0.250
4189,-0.390,-0.180
4190,-0.510,-0.255
4191,-0.385,-0.195
4192,-0.500,-0.240
4193,-0.345,-0.210
4194,-0.490,-0.205
4195,-0.395,-0.165
4196,-0.485,-0.195
4197,-0.405,-0.200
4198,-0.470,-0.165
4199,-0.365,-0.195
4200,-0.485,-0.175
4201,-0.395,-0.235
4202,-0.475,-0.180
4203,-0.425,-0.250
4204,-0.440,-0.175
4205,-0.455,-0.250
4206,-0.445,-0.220
4207,-0.490,-0.245
4208,-0.470,-0.190
4209,-0.495,-0.265
4210,-0.425,-0.210
4211,-0.545,-0.290
4212,-0.405,-0.220
4213,-0.500,-0.250
4214,-0.330,-0.190
4215,-0.400,-0.110
4216,-0.260,-0.050
4217,-0.380,-0.010
4218,-0.225,0.015
4219,-0.315,-0.030
4220,-0.255,-0.095
4221,-0.415,-0.275
4222,-0.315,-0.295
4223,-0.510,-0.285
4224,-0.490,-0.350
4225,-0.570,-0.270
4226,-0.560,-0.360
4227,-0.530,-0.315
4228,-0.545,-0.375
4229,-0.505,-0.320
4230,-0.600,-0.375
4231,-0.465,-0.340
4232,-0.560,-0.355
4233,-0.545,-0.245
4234,-0.605,0.115
4235,0.020,0.230
4236,0.670,0.490
4237,1.280,-0.665
4238,0.405,-1.745
4239,-0.665,-2.345
4240,-1.200,-2.830
4241,-0.775,-2.350
4242,-0.495,-1.145
4243,-0.450,-0.455
4244,-0.570,-0.170
4245,-0.535,-0.175
4246,-0.490,-0.120
4247,-0.535,-0.165
4248,-0.475,-0.075
4249,-0.540,-0.145
4250,-0.435,-0.050
4251,-0.535,-0.090
4252,-0.395,-0.030
4253,-0.460,-0.070
4254,-0.370,0.035
4255,-0.445,-0.020
4256,-0.330,0.055
4257,-0.410,0.075
4258,-0.305,0.140
4259,-0.370,0.185
4260,-0.210,0.255
4261,-0.310,0.305
4262,-0.160,0.365
4263,-0.230,0.470
4264,-0.105,0.495
4265,-0.180,0.540
4266,-0.085,0.550
4267,-0.200,0.570
4268,-0.150,0.550
4269,-0.215,0.535
4270,-0.225,0.420
4271,-0.330,0.335
4272,-0.345,0.215
4273,-0.385,0.130
4274,-0.390,0.000
4275,-0.410,-0.005
4276,-0.470,-0.165
4277,-0.430,-0.145
4278,-0.490,-0.240
4279,-0.420,-0.200
4280,-0.515,-0.225
4281,-0.390,-0.190
4282,-0.525,-0.240
4283,-0.380,-0.200
4284,-0.520,-0.235
4285,-0.365,-0.200
4286,-0.475,-0.210
4287,-0.350,-0.225
4288,-0.495,-0.195
4289,-0.350,-0.175
4290,-0.455,-0.195
4291,-0.375,-0.215
4292,-0.490,-0.210
4293,-0.420,-0.210
4294,-0.465,-0.200
4295,-0.415,-0.220
4296,-0.425,-0.215
4297,-0.470,-0.250
4298,-0.430,-0.210
4299,-0.490,-0.285
4300,-0.420,-0.230
4301,-0.495,-0.295
4302,-0.405,-0.230
4303,-0.520,-0.295
4304,-0.420,-0.245
4305,-0.550,-0.320
4306,-0.390,-0.250
4307,-0.435,-0.250
4308,-0.295,-0.165
4309,-0.390,-0.100
4310,-0.255,-0.035
4311,-0.300,0.000
4312,-0.215,-0.080
4313,-0.395,-0.135
4314,-0.390,-0.335
4315,-0.460,-0.375
4316,-0.430,-0.380
4317,-0.560,-0.380
4318,-0.565,-0.340
4319,-0.595,-0.335
4320,-0.570,-0.440
4321,-0.550,-0.385
4322,-0.585,-0.445
4323,-0.545,-0.410
4324,-0.590,-0.450
4325,-0.535,-0.380
4326,-0.715,-0.225
4327,-0.380,0.185
4328,0.045,0.185
4329,0.940,0.305
4330,1.105,-1.385
4331,0.010,-2.085
4332,-1.105,-2.830
4333,-0.975,-3.030
4334,-0.740,-1.855
4335,-0.425,-0.810
4336,-0.630,-0.315
4337,-0.525,-0.275
4338,-0.625,-0.240
4339,-0.530,-0.205
4340,-0.580,-0.185
4341,-0.500,-0.175
4342,-0.535,-0.130
4343,-0.475,-0.140
4344,-0.495,-0.065
4345,-0.505,-0.120
4346,-0.440,-0.060
4347,-0.470,-0.065
4348,-0.380,0.035
4349,-0.465,0.005
4350,-0.320,0.120
4351,-0.425,0.130
4352,-0.255,0.260
4353,-0.345,0.270
4354,-0.190,0.385
4355,-0.280,0.395
4356,-0.085,0.510
4357,-0.200,0.535
4358,-0.085,0.585
4359,-0.175,0.620
4360,-0.095,0.620
4361,-0.220,0.600
4362,-0.190,0.520
4363,-0.285,0.485
4364,-0.310,0.310
4365,-0.370,0.255
4366,-0.450,0.110
4367,-0.430,0.060
4368,-0.515,-0.065
4369,-0.455,-0.075
4370,-0.525,-0.170
4371,-0.460,-0.160
4372,-0.535,-0.290
4373,-0.440,-0.210
4374,-0.555,-0.260
4375,-0.385,-0.225
4376,-0.535,-0.230
4377,-0.390,-0.225
4378,-0.525,-0.210
4379,-0.405,-0.205
4380,-0.465,-0.165
4381,-0.430,-0.185
4382,-0.470,-0.170
4383,-0.420,-0.190
4384,-0.470,-0.150
4385,-0.425,-0.190
4386,-0.455,-0.185
4387,-0.480,-0.260
4388,-0.470,-0.200
4389,-0.485,-0.240
4390,-0.415,-0.195
4391,-0.490,-0.305
4392,-0.410,-0.235
4393,-0.510,-0.310
4394,-0.390,-0.255
4395,-0.515,-0.270
4396,-0.390,-0.245
4397,-0.555,-0.285
4398,-0.410,-0.280
4399,-0.505,-0.330
4400,-0.320,-0.255
4401,-0.415,-0.175
4402,-0.270,-0.115
4403,-0.375,-0.030
4404,-0.190,-0.060
4405,-0.295,-0.130
4406,-0.330,-0.250
4407,-0.450,-0.340
4408,-0.435,-0.430
4409,-0.450,-0.350
4410,-0.535,-0.400
4411,-0.550,-0.360
4412,-0.660,-0.475
4413,-0.515,-0.415
4414,-0.595,-0.505
4415,-0.480,-0.455
4416,-0.600,-0.485
4417,-0.435,-0.435
4418,-0.625,-0.470
4419,-0.595,-0.120
4420,-0.410,0.080
4421,0.320,0.275
4422,0.945,-0.145
4423,1.105,-1.585
4424,-0.130,-2.320
4425,-0.990,-3.040
4426,-1.010,-3.090
4427,-0.690,-1.935
4428,-0.470,-0.910
4429,-0.600,-0.465
4430,-0.555,-0.330
4431,-0.605,-0.340
4432,-0.485,-0.260
4433,-0.585,-0.270
4434,-0.435,-0.220
4435,-0.575,-0.260
4436,-0.430,-0.205
4437,-0.550,-0.200
4438,-0.415,-0.185
4439,-0.550,-0.175
4440,-0.395,-0.155
4441,-0.455,-0.090
4442,-0.380,-0.050
4443,-0.435,0.010
4444,-0.385,0.010
4445,-0.310,0.090
4446,-0.350,0.125
4447,-0.275,0.225
4448,-0.280,0.250
4449,-0.145,0.365
4450,-0.225,0.370
4451,-0.110,0.445
4452,-0.190,0.425
4453,-0.110,0.435
4454,-0.245,0.415
4455,-0.150,0.425
4456,-0.295,0.340
4457,-0.245,0.285
4458,-0.445,0.200
4459,-0.350,0.060
4460,-0.485,0.000
4461,-0.415,-0.125
4462,-0.470,-0.155
4463,-0.430,-0.245
4464,-0.435,-0.255
4465,-0.490,-0.360
4466,-0.415,-0.320
4467,-0.535,-0.370
4468,-0.415,-0.320
4469,-0.485,-0.360
4470,-0.355,-0.305
4471,-0.450,-0.305
4472,-0.355,-0.255
4473,-0.540,-0.285
4474,-0.405,-0.280
4475,-0.485,-0.250
4476,-0.370,-0.275
4477,-0.425,-0.235
4478,-0.415,-0.310
4479,-0.415,-0.235
4480,-0.480,-0.335
4481,-0.425,-0.245
4482,-0.495,-0.330
4483,-0.345,-0.270
4484,-0.500,-0.340
4485,-0.415,-0.270
4486,-0.500,-0.355
4487,-0.355,-0.305
4488,-0.505,-0.335
4489,-0.380,-0.315
4490,-0.485,-0.340
4491,-0.365,-0.330
4492,-0.495,-0.325
4493,-0.385,-0.345
4494,-0.435,-0.325
4495,-0.360,-0.340
4496,-0.325,-0.240
4497,-0.350,-0.215
4498,-0.295,-0.105
4499,-0.310,-0.145
4500,-0.125,-0.130
4501,-0.315,-0.245
4502,-0.270,-0.330
4503,-0.470,-0.455
4504,-0.340,-0.405
4505,-0.560,-0.475
4506,-0.495,-0.465
4507,-0.570,-0.475
4508,-0.480,-0.490
4509,-0.585,-0.520
4510,-0.505,-0.505
4511,-0.590,-0.480
4512,-0.495,-0.540
4513,-0.535,-0.485
4514,-0.605,-0.420
4515,-0.575,-0.035
4516,-0.105,0.045
4517,0.635,0.355
4518,1.175,-0.525
4519,0.510,-1.655
4520,-0.695,-2.320
4521,-1.200,-2.840
4522,-0.870,-2.630
4523,-0.445,-1.375
4524,-0.520,-0.670
4525,-0.525,-0.360
4526,-0.630,-0.345
4527,-0.420,-0.330
4528,-0.585,-0.340
4529,-0.440,-0.295
4530,-0.560,-0.290
4531,-0.470,-0.260
4532,-0.525,-0.275
4533,-0.425,-0.275
4534,-0.470,-0.225
4535,-0.390,-0.205
4536,-0.460,-0.185
4537,-0.420,-0.170
4538,-0.440,-0.085
4539,-0.385,-0.115
4540,-0.315,0.000
4541,-0.280,0.010
4542,-0.240,0.130
4543,-0.290,0.125
4544,-0.200,0.265
4545,-0.250,0.225
4546,-0.120,0.330
4547,-0.235,0.280
4548,-0.080,0.365
4549,-0.260,0.300
4550,-0.160,0.300
4551,-0.315,0.235
4552,-0.245,0.170
4553,-0.410,0.050
4554,-0.390,-0.035
4555,-0.505,-0.115
4556,-0.470,-0.235
4557,-0.550,-0.290
4558,-0.510,-0.345
4559,-0.565,-0.360
4560,-0.540,-0.425
4561,-0.520,-0.350
4562,-0.540,-0.435
4563,-0.450,-0.380
4564,-0.535,-0.400
4565,-0.365,-0.345
4566,-0.580,-0.385
4567,-0.460,-0.310
4568,-0.545,-0.340
4569,-0.420,-0.325
4570,-0.550,-0.335
4571,-0.440,-0.320
4572,-0.550,-0.330
4573,-0.420,-0.335
4574,-0.555,-0.325
4575,-0.465,-0.335
4576,-0.545,-0.335
4577,-0.465,-0.365
4578,-0.505,-0.335
4579,-0.460,-0.360
4580,-0.500,-0.340
4581,-0.515,-0.395
4582,-0.495,-0.350
4583,-0.560,-0.415
4584,-0.525,-0.365
4585,-0.545,-0.405
4586,-0.495,-0.370
4587,-0.600,-0.395
4588,-0.475,-0.360
4589,-0.510,-0.380
4590,-0.395,-0.245
4591,-0.475,-0.240
4592,-0.330,-0.125
4593,-0.370,-0.135
4594,-0.225,-0.210
4595,-0.420,-0.320
4596,-0.415,-0.440
4597,-0.550,-0.480
4598,-0.450,-0.475
4599,-0.635,-0.490
4600,-0.595,-0.470
4601,-0.680,-0.470
4602,-0.580,-0.525
4603,-0.620,-0.500
4604,-0.550,-0.525
4605,-0.575,-0.440
4606,-0.525,-0.535
4607,-0.605,-0.465
4608,-0.685,-0.265
4609,-0.345,0.120
4610,0.200,0.105
4611,1.020,0.180
4612,1.085,-1.385
4613,-0.065,-2.060
4614,-1.105,-2.755
4615,-1.000,-2.930
4616,-0.785,-2.010
4617,-0.420,-0.925
4618,-0.565,-0.405
4619,-0.455,-0.310
4620,-0.585,-0.285
4621,-0.495,-0.260
4622,-0.595,-0.265
4623,-0.425,-0.200
4624,-0.485,-0.210
4625,-0.455,-0.210
4626,-0.500,-0.160
4627,-0.485,-0.215
4628,-0.430,-0.105
4629,-0.450,-0.170
4630,-0.350,-0.050
4631,-0.460,-0.105
4632,-0.315,0.000
4633,-0.420,0.000
4634,-0.245,0.095
4635,-0.335,0.130
4636,-0.190,0.235
4637,-0.265,0.300
4638,-0.135,0.365
4639,-0.210,0.390
4640,-0.080,0.435
4641,-0.160,0.460
4642,-0.095,0.445
4643,-0.215,0.470
4644,-0.195,0.390
4645,-0.295,0.315
4646,-0.295,0.200
4647,-0.380,0.125
4648,-0.415,-0.025
4649,-0.415,-0.095
4650,-0.440,-0.185
4651,-0.430,-0.240
4652,-0.495,-0.325
4653,-0.455,-0.305
4654,-0.475,-0.365
4655,-0.425,-0.305
4656,-0.475,-0.390
4657,-0.420,-0.315
4658,-0.500,-0.380
4659,-0.405,-0.330
4660,-0.495,-0.385
4661,-0.375,-0.290
4662,-0.475,-0.335
4663,-0.365,-0.280
4664,-0.480,-0.305
4665,-0.375,-0.310
4666,-0.500,-0.315
4667,-0.390,-0.330
4668,-0.510,-0.335
4669,-0.415,-0.330
4670,-0.495,-0.315
4671,-0.430,-0.365
4672,-0.485,-0.330
4673,-0.480,-0.380
4674,-0.545,-0.355
4675,-0.485,-0.375
4676,-0.430,-0.370
4677,-0.520,-0.465
4678,-0.465,-0.350
4679,-0.545,-0.420
4680,-0.440,-0.385
4681,-0.545,-0.415
4682,-0.365,-0.365
4683,-0.430,-0.350
4684,-0.315,-0.280
4685,-0.420,-0.220
4686,-0.245,-0.145
4687,-0.295,-0.160
4688,-0.230,-0.245
4689,-0.410,-0.365
4690,-0.365,-0.475
4691,-0.475,-0.500
4692,-0.460,-0.500
4693,-0.590,-0.505
4694,-0.570,-0.505
4695,-0.575,-0.485
4696,-0.575,-0.530
4697,-0.545,-0.480
4698,-0.625,-0.590
4699,-0.550,-0.515
4700,-0.600,-0.550
4701,-0.570,-0.450
4702,-0.680,-0.210
4703,-0.190,0.045
4704,0.370,0.210
4705,1.145,-0.455
4706,0.680,-1.840
4707,-0.475,-2.505
4708,-1.305,-3.095
4709,-0.870,-2.870
4710,-0.645,-1.605
4711,-0.465,-0.735
4712,-0.625,-0.400
4713,-0.530,-0.375
4714,-0.595,-0.295
4715,-0.545,-0.335
4716,-0.545,-0.270
4717,-0.490,-0.305
4718,-0.540,-0.255
4719,-0.535,-0.260
4720,-0.505,-0.190
4721,-0.505,-0.230
4722,-0.460,-0.150
4723,-0.515,-0.155
4724,-0.435,-0.075
4725,-0.470,-0.065
4726,-0.335,0.005
4727,-0.410,0.000
4728,-0.260,0.095
4729,-0.355,0.175
4730,-0.175,0.210
4731,-0.275,0.290
4732,-0.140,0.370
4733,-0.225,0.405
4734,-0.095,0.455
4735,-0.200,0.470
4736,-0.145,0.420
4737,-0.220,0.445
4738,-0.195,0.375
4739,-0.290,0.350
4740,-0.365,0.185
4741,-0.385,0.135
4742,-0.480,-0.015
4743,-0.435,-0.055
4744,-0.540,-0.195
4745,-0.410,-0.205
4746,-0.535,-0.300
4747,-0.420,-0.285
4748,-0.530,-0.345
4749,-0.410,-0.330
4750,-0.495,-0.350
4751,-0.410,-0.360
4752,-0.485,-0.335
4753,-0.430,-0.355
4754,-0.470,-0.290
4755,-0.440,-0.360
4756,-0.460,-0.260
4757,-0.445,-0.305
4758,-0.425,-0.235
4759,-0.510,-0.320
4760,-0.385,-0.250
4761,-0.505,-0.360
4762,-0.390,-0.260
4763,-0.540,-0.345
4764,-0.395,-0.285
4765,-0.515,-0.320
4766,-0.390,-0.350
4767,-0.510,-0.355
4768,-0.460,-0.340
4769,-0.530,-0.355
4770,-0.465,-0.390
4771,-0.465,-0.345
4772,-0.470,-0.380
4773,-0.455,-0.370
4774,-0.525,-0.410
4775,-0.480,-0.345
4776,-0.545,-0.390
4777,-0.340,-0.340
4778,-0.450,-0.365
4779,-0.290,-0.180
4780,-0.430,-0.180
4781,-0.220,-0.125
4782,-0.300,-0.195
4783,-0.250,-0.265
4784,-0.455,-0.375
4785,-0.375,-0.460
4786,-0.480,-0.465
4787,-0.480,-0.495
4788,-0.625,-0.455
4789,-0.560,-0.475
4790,-0.630,-0.495
4791,-0.535,-0.550
4792,-0.570,-0.515
4793,-0.535,-0.555
4794,-0.495,-0.495
4795,-0.590,-0.555
4796,-0.620,-0.415
4797,-0.645,-0.085
4798,-0.060,0.035
4799,0.540,0.330
4800,1.325,-0.945
4801,0.395,-2.055
4802,-0.665,-2.780
4803,-1.255,-3.205
4804,-0.780,-2.405
4805,-0.600,-1.300
4806,-0.485,-0.575
4807,-0.660,-0.445
4808,-0.515,-0.385
4809,-0.600,-0.340
4810,-0.515,-0.375
4811,-0.585,-0.335
4812,-0.545,-0.340
4813,-0.535,-0.280
4814,-0.555,-0.290
4815,-0.500,-0.255
4816,-0.575,-0.295
4817,-0.465,-0.190
4818,-0.485,-0.210
4819,-0.380,-0.110
4820,-0.450,-0.175
4821,-0.315,-0.040
4822,-0.435,-0.030
4823,-0.245,0.045
4824,-0.380,0.090
4825,-0.195,0.170
4826,-0.250,0.225
4827,-0.075,0.325
4828,-0.170,0.340
4829,-0.100,0.335
4830,-0.175,0.410
4831,-0.130,0.355
4832,-0.215,0.365
4833,-0.265,0.260
4834,-0.305,0.210
4835,-0.380,0.080
4836,-0.400,0.040
4837,-0.445,-0.130
4838,-0.460,-0.155
4839,-0.540,-0.270
4840,-0.480,-0.275
4841,-0.585,-0.360
4842,-0.440,-0.355
4843,-0.555,-0.460
4844,-0.425,-0.390
4845,-0.520,-0.415
4846,-0.395,-0.360
4847,-0.535,-0.405
4848,-0.410,-0.370
4849,-0.535,-0.355
4850,-0.410,-0.320
4851,-0.525,-0.330
4852,-0.390,-0.340
4853,-0.485,-0.335
4854,-0.445,-0.345
4855,-0.535,-0.335
4856,-0.435,-0.360
4857,-0.495,-0.335
4858,-0.445,-0.395
4859,-0.470,-0.355
4860,-0.470,-0.425
4861,-0.490,-0.385
4862,-0.495,-0.435
4863,-0.425,-0.385
4864,-0.530,-0.465
4865,-0.465,-0.380
4866,-0.530,-0.445
4867,-0.420,-0.375
4868,-0.500,-0.435
4869,-0.390,-0.375
4870,-0.515,-0.425
4871,-0.400,-0.360
4872,-0.420,-0.390
4873,-0.290,-0.305
4874,-0.360,-0.250
4875,-0.295,-0.185
4876,-0.280,-0.155
4877,-0.195,-0.220
4878,-0.335,-0.290
4879,-0.365,-0.445
4880,-0.390,-0.480
4881,-0.430,-0.515
4882,-0.540,-0.480
4883,-0.600,-0.505
4884,-0.490,-0.480
4885,-0.555,-0.565
4886,-0.465,-0.495
4887,-0.620,-0.580
4888,-0.515,-0.505
4889,-0.590,-0.570
4890,-0.450,-0.500
4891,-0.680,-0.440
4892,-0.405,0.000
4893,-0.030,0.020
4894,0.845,0.365
4895,1.175,-0.845
4896,0.335,-1.850
4897,-0.815,-2.450
4898,-1.090,-2.935
4899,-0.780,-2.410
4900,-0.435,-1.285
4901,-0.505,-0.530
4902,-0.525,-0.400
4903,-0.540,-0.330
4904,-0.505,-0.390
4905,-0.485,-0.315
4906,-0.455,-0.345
4907,-0.430,-0.240
4908,-0.500,-0.310
4909,-0.430,-0.220
4910,-0.490,-0.300
4911,-0.405,-0.230
4912,-0.485,-0.230
4913,-0.405,-0.155
4914,-0.460,-0.170
4915,-0.310,-0.100
4916,-0.405,-0.095
4917,-0.270,0.010
4918,-0.390,0.055
4919,-0.270,0.120
4920,-0.315,0.170
4921,-0.160,0.235
4922,-0.235,0.310
4923,-0.140,0.365
4924,-0.265,0.395
4925,-0.145,0.350
4926,-0.255,0.350
4927,-0.245,0.300
4928,-0.380,0.285
4929,-0.410,0.120
4930,-0.415,0.085
4931,-0.535,-0.085
4932,-0.520,-0.140
4933,-0.625,-0.245
4934,-0.540,-0.285
4935,-0.580,-0.335
4936,-0.530,-0.330
4937,-0.605,-0.395
4938,-0.510,-0.365
4939,-0.630,-0.385
4940,-0.540,-0.355
4941,-0.625,-0.400
4942,-0.540,-0.385
4943,-0.640,-0.390
4944,-0.545,-0.385
4945,-0.600,-0.370
4946,-0.530,-0.375
4947,-0.575,-0.325
4948,-0.575,-0.375
4949,-0.530,-0.350
4950,-0.545,-0.365
4951,-0.535,-0.315
4952,-0.590,-0.350
4953,-0.525,-0.300
4954,-0.595,-0.390
4955,-0.530,-0.340
4956,-0.620,-0.370
4957,-0.540,-0.335
4958,-0.615,-0.405
4959,-0.490,-0.370
4960,-0.610,-0.430
4961,-0.525,-0.375
4962,-0.620,-0.385
4963,-0.485,-0.390
4964,-0.610,-0.385
4965,-0.525,-0.400
4966,-0.530,-0.380
4967,-0.405,-0.345
4968,-0.450,-0.240
4969,-0.360,-0.225
4970,-0.355,-0.130
4971,-0.315,-0.145
4972,-0.360,-0.215
4973,-0.435,-0.430
4974,-0.445,-0.440
4975,-0.525,-0.490
4976,-0.495,-0.445
4977,-0.665,-0.515
4978,-0.595,-0.460
4979,-0.710,-0.555
4980,-0.580,-0.490
4981,-0.665,-0.560
4982,-0.555,-0.500
4983,-0.655,-0.505
4984,-0.550,-0.520
4985,-0.695,-0.485
4986,-0.640,-0.190
4987,-0.370,0.050
4988,0.440,0.235
4989,1.060,-0.330
4990,0.855,-1.800
4991,-0.520,-2.375
4992,-1.255,-2.920
4993,-0.965,-2.890
4994,-0.685,-1.665
4995,-0.460,-0.715
4996,-0.605,-0.425
4997,-0.525,-0.275
4998,-0.610,-0.280
4999,-0.485,-0.220
5000,-0.575,-0.295
5001,-0.455,-0.230
5002,-0.545,-0.250
5003,-0.425,-0.185
5004,-0.535,-0.185
5005,-0.410,-0.160
5006,-0.495,-0.130
5007,-0.385,-0.110
5008,-0.485,-0.055
5009,-0.365,-0.030
5010,-0.400,0.050
5011,-0.360,0.020
5012,-0.310,0.195
5013,-0.315,0.175
5014,-0.195,0.330
5015,-0.225,0.290
5016,-0.125,0.430
5017,-0.225,0.420
5018,-0.085,0.500
5019,-0.180,0.465
5020,-0.090,0.515
5021,-0.245,0.460
5022,-0.170,0.430
5023,-0.325,0.300
5024,-0.275,0.240
5025,-0.435,0.125
5026,-0.355,0.010
5027,-0.465,-0.030
5028,-0.425,-0.165
5029,-0.480,-0.165
5030,-0.485,-0.300
5031,-0.435,-0.300
5032,-0.495,-0.370
5033,-0.395,-0.300
5034,-0.495,-0.370
5035,-0.390,-0.315
5036,-0.470,-0.370
5037,-0.335,-0.295
5038,-0.490,-0.355
5039,-0.355,-0.285
5040,-0.455,-0.335
5041,-0.375,-0.290
5042,-0.490,-0.295
5043,-0.380,-0.270
5044,-0.475,-0.305
5045,-0.375,-0.300
5046,-0.440,-0.255
5047,-0.410,-0.330
5048,-0.455,-0.275
5049,-0.450,-0.325
5050,-0.420,-0.290
5051,-0.475,-0.365
5052,-0.420,-0.345
5053,-0.480,-0.385
5054,-0.410,-0.290
5055,-0.530,-0.390
5056,-0.415,-0.340
5057,-0.540,-0.390
5058,-0.375,-0.355
5059,-0.545,-0.395
5060,-0.370,-0.355
5061,-0.445,-0.325
5062,-0.315,-0.280
5063,-0.355,-0.170
5064,-0.315,-0.125
5065,-0.255,-0.080
5066,-0.260,-0.210
5067,-0.290,-0.250
5068,-0.435,-0.440
5069,-0.375,-0.445
5070,-0.515,-0.485
5071,-0.460,-0.495
5072,-0.630,-0.495
5073,-0.535,-0.480
5074,-0.625,-0.500
5075,-0.510,-0.510
5076,-0.590,-0.505
5077,-0.505,-0.515
5078,-0.540,-0.485
5079,-0.550,-0.545
5080,-0.585,-0.390
5081,-0.610,-0.045
5082,-0.070,0.120
5083,0.490,0.355
5084,1.185,-0.825
5085,0.595,-2.070
5086,-0.550,-2.770
5087,-1.190,-3.285
5088,-0.735,-2.585
5089,-0.550,-1.300
5090,-0.475,-0.525
5091,-0.610,-0.360
5092,-0.510,-0.300
5093,-0.585,-0.305
5094,-0.530,-0.290
5095,-0.590,-0.235
5096,-0.490,-0.230
5097,-0.485,-0.170
5098,-0.465,-0.240
5099,-0.470,-0.120
5100,-0.510,-0.190
5101,-0.445,-0.095
5102,-0.475,-0.130
5103,-0.365,-0.065
5104,-0.390,-0.040
5105,-0.265,0.050
5106,-0.365,0.080
5107,-0.235,0.190
5108,-0.280,0.250
5109,-0.155,0.345
5110,-0.255,0.375
5111,-0.085,0.450
5112,-0.140,0.475
5113,-0.015,0.500
5114,-0.115,0.540
5115,-0.060,0.485
5116,-0.175,0.510
5117,-0.155,0.380
5118,-0.270,0.345
5119,-0.305,0.190
5120,-0.355,0.140
5121,-0.395,0.015
5122,-0.415,-0.035
5123,-0.445,-0.190
5124,-0.395,-0.205
5125,-0.455,-0.305
5126,-0.360,-0.285
5127,-0.425,-0.340
5128,-0.345,-0.290
5129,-0.455,-0.320
5130,-0.360,-0.340
5131,-0.470,-0.315
5132,-0.320,-0.295
5133,-0.385,-0.290
5134,-0.300,-0.265
5135,-0.415,-0.245
5136,-0.415,-0.255
5137,-0.440,-0.225
5138,-0.400,-0.285
5139,-0.405,-0.265
5140,-0.410,-0.300
5141,-0.380,-0.265
5142,-0.430,-0.325
5143,-0.320,-0.260
5144,-0.455,-0.350
5145,-0.390,-0.305
5146,-0.485,-0.380
5147,-0.335,-0.340
5148,-0.450,-0.355
5149,-0.390,-0.355
5150,-0.490,-0.355
5151,-0.380,-0.375
5152,-0.500,-0.370
5153,-0.375,-0.370
5154,-0.455,-0.380
5155,-0.375,-0.385
5156,-0.370,-0.330
5157,-0.280,-0.320
5158,-0.300,-0.190
5159,-0.270,-0.195
5160,-0.165,-0.095
5161,-0.175,-0.240
5162,-0.275,-0.210
5163,-0.410,-0.470
5164,-0.370,-0.440
5165,-0.460,-0.465
5166,-0.435,-0.455
5167,-0.575,-0.470
5168,-0.495,-0.455
5169,-0.570,-0.530
5170,-0.430,-0.510
5171,-0.560,-0.545
5172,-0.430,-0.515
5173,-0.540,-0.515
5174,-0.440,-0.490
5175,-0.670,-0.285
5176,-0.315,0.045
5177,0.175,0.085
5178,1.010,0.255
5179,1.180,-1.135
5180,0.090,-1.940
5181,-0.895,-2.570
5182,-1.090,-3.060
5183,-0.680,-2.165
5184,-0.455,-1.235
5185,-0.460,-0.480
5186,-0.530,-0.425
5187,-0.465,-0.310
5188,-0.530,-0.360
5189,-0.445,-0.285
5190,-0.505,-0.355
5191,-0.415,-0.265
5192,-0.510,-0.330
5193,-0.390,-0.285
5194,-0.485,-0.295
5195,-0.370,-0.250
5196,-0.470,-0.235
5197,-0.335,-0.190
5198,-0.410,-0.160
5199,-0.330,-0.155
5200,-0.380,-0.070
5201,-0.290,-0.040
5202,-0.250,0.065
5203,-0.170,0.075
5204,-0.215,0.210
5205,-0.160,0.205
5206,-0.135,0.325
5207,-0.130,0.270
5208,-0.035,0.375
5209,-0.155,0.345
5210,-0.100,0.340
5211,-0.260,0.280
5212,-0.195,0.260
5213,-0.360,0.125
5214,-0.290,0.070
5215,-0.420,-0.055
5216,-0.385,-0.135
5217,-0.525,-0.220
5218,-0.425,-0.315
5219,-0.510,-0.315
5220,-0.410,-0.360
5221,-0.470,-0.365
5222,-0.450,-0.385
5223,-0.500,-0.380
5224,-0.410,-0.415
5225,-0.475,-0.350
5226,-0.435,-0.375
5227,-0.445,-0.300
5228,-0.450,-0.390
5229,-0.425,-0.315
5230,-0.455,-0.380
5231,-0.390,-0.325
5232,-0.465,-0.355
5233,-0.350,-0.340
5234,-0.470,-0.365
5235,-0.410,-0.310
5236,-0.495,-0.370
5237,-0.405,-0.305
5238,-0.520,-0.350
5239,-0.425,-0.360
5240,-0.505,-0.375
5241,-0.365,-0.355
5242,-0.510,-0.360
5243,-0.415,-0.375
5244,-0.520,-0.355
5245,-0.405,-0.420
5246,-0.470,-0.345
5247,-0.445,-0.375
5248,-0.490,-0.340
5249,-0.405,-0.405
5250,-0.390,-0.310
5251,-0.360,-0.330
5252,-0.315,-0.210
5253,-0.345,-0.195
5254,-0.240,-0.065
5255,-0.255,-0.155
5256,-0.215,-0.160
5257,-0.365,-0.330
5258,-0.315,-0.380
5259,-0.445,-0.430
5260,-0.390,-0.375
5261,-0.585,-0.425
5262,-0.500,-0.410
5263,-0.595,-0.460
5264,-0.480,-0.480
5265,-0.550,-0.430
5266,-0.475,-0.490
5267,-0.540,-0.445
5268,-0.515,-0.510
5269,-0.560,-0.420
5270,-0.640,-0.185
5271,-0.250,0.135
5272,0.440,0.240
5273,1.190,-0.025
5274,0.950,-1.505
5275,-0.310,-2.110
5276,-1.215,-2.780
5277,-0.935,-2.835
5278,-0.695,-1.810
5279,-0.345,-0.830
5280,-0.510,-0.380
5281,-0.440,-0.295
5282,-0.555,-0.255
5283,-0.435,-0.265
5284,-0.505,-0.235
5285,-0.400,-0.225
5286,-0.450,-0.215
5287,-0.365,-0.205
5288,-0.455,-0.160
5289,-0.340,-0.200
5290,-0.435,-0.125
5291,-0.345,-0.130
5292,-0.395,-0.060
5293,-0.355,-0.080
5294,-0.315,0.065
5295,-0.310,0.030
5296,-0.235,0.130
5297,-0.275,0.155
5298,-0.145,0.270
5299,-0.185,0.290
5300,-0.075,0.410
5301,-0.160,0.395
5302,-0.055,0.465
5303,-0.120,0.475
5304,-0.045,0.480
5305,-0.210,0.445
5306,-0.115,0.380
5307,-0.290,0.290
5308,-0.240,0.200
5309,-0.385,0.065
5310,-0.320,-0.040
5311,-0.435,-0.080
5312,-0.380,-0.235
5313,-0.445,-0.180
5314,-0.400,-0.280
5315,-0.445,-0.290
5316,-0.450,-0.355
5317,-0.405,-0.280
5318,-0.430,-0.340
5319,-0.365,-0.290
5320,-0.440,-0.320
5321,-0.370,-0.300
5322,-0.435,-0.360
5323,-0.360,-0.295
5324,-0.475,-0.300
5325,-0.335,-0.265
5326,-0.420,-0.260
5327,-0.330,-0.280
5328,-0.430,-0.265
5329,-0.360,-0.310
5330,-0.445,-0.275
5331,-0.405,-0.320
5332,-0.400,-0.245
5333,-0.435,-0.290
5334,-0.400,-0.280
5335,-0.440,-0.345
5336,-0.360,-0.315
5337,-0.460,-0.345
5338,-0.385,-0.295
5339,-0.485,-0.365
5340,-0.370,-0.350
5341,-0.480,-0.355
5342,-0.370,-0.305
5343,-0.470,-0.340
5344,-0.355,-0.350
5345,-0.400,-0.300
5346,-0.285,-0.265
5347,-0.320,-0.170
5348,-0.305,-0.135
5349,-0.235,-0.050
5350,-0.245,-0.140
5351,-0.280,-0.220
5352,-0.345,-0.390
5353,-0.350,-0.405
5354,-0.435,-0.430
5355,-0.435,-0.410
5356,-0.575,-0.440
5357,-0.485,-0.390
5358,-0.610,-0.490
5359,-0.465,-0.435
5360,-0.585,-0.490
5361,-0.440,-0.445
5362,-0.540,-0.485
5363,-0.435,-0.450
5364,-0.610,-0.375
5365,-0.470,0.005
5366,-0.080,0.115
5367,0.695,0.310
5368,1.190,-0.855
5369,0.520,-2.025
5370,-0.660,-2.635
5371,-1.145,-3.110
5372,-0.710,-2.485
5373,-0.485,-1.340
5374,-0.415,-0.515
5375,-0.580,-0.395
5376,-0.425,-0.255
5377,-0.545,-0.285
5378,-0.385,-0.225
5379,-0.515,-0.225
5380,-0.410,-0.180
5381,-0.490,-0.170
5382,-0.380,-0.170
5383,-0.470,-0.125
5384,-0.385,-0.145
5385,-0.420,-0.060
5386,-0.355,-0.080
5387,-0.360,-0.005
5388,-0.335,-0.020
5389,-0.260,0.085
5390,-0.290,0.080
5391,-0.185,0.220
5392,-0.260,0.230
5393,-0.110,0.350
5394,-0.190,0.395
5395,-0.020,0.495
5396,-0.120,0.485
5397,0.010,0.570
5398,-0.130,0.570
5399,-0.030,0.535
5400,-0.160,0.510
5401,-0.100,0.485
5402,-0.275,0.410
5403,-0.230,0.260
5404,-0.335,0.190
5405,-0.350,0.015
5406,-0.390,0.000
5407,-0.410,-0.125
5408,-0.410,-0.155
5409,-0.425,-0.255
5410,-0.380,-0.240
5411,-0.415,-0.300
5412,-0.360,-0.285
5413,-0.435,-0.330
5414,-0.315,-0.310
5415,-0.450,-0.310
5416,-0.290,-0.265
5417,-0.435,-0.300
5418,-0.255,-0.230
5419,-0.425,-0.290
5420,-0.300,-0.240
5421,-0.435,-0.230
5422,-0.305,-0.255
5423,-0.445,-0.225
5424,-0.340,-0.270
5425,-0.450,-0.255
5426,-0.340,-0.285
5427,-0.400,-0.280
5428,-0.350,-0.330
5429,-0.390,-0.305
5430,-0.405,-0.325
5431,-0.390,-0.310
5432,-0.435,-0.370
5433,-0.380,-0.305
5434,-0.425,-0.385
5435,-0.345,-0.335
5436,-0.410,-0.365
5437,-0.345,-0.345
5438,-0.435,-0.385
5439,-0.240,-0.290
5440,-0.380,-0.295
5441,-0.200,-0.170
5442,-0.335,-0.165
5443,-0.120,-0.070
5444,-0.250,-0.150
5445,-0.175,-0.235
5446,-0.355,-0.330
5447,-0.305,-0.445
5448,-0.415,-0.420
5449,-0.405,-0.475
5450,-0.515,-0.445
5451,-0.505,-0.490
5452,-0.535,-0.460
5453,-0.510,-0.530
5454,-0.515,-0.485
5455,-0.495,-0.550
5456,-0.440,-0.475
5457,-0.500,-0.520
5458,-0.540,-0.425
5459,-0.670,-0.095
5460,-0.090,0.090
5461,0.475,0.295
5462,1.290,-0.465
5463,0.780,-1.760
5464,-0.345,-2.450
5465,-1.220,-3.045
5466,-0.800,-2.805
5467,-0.550,-1.560
5468,-0.420,-0.725
5469,-0.540,-0.380
5470,-0.490,-0.325
5471,-0.555,-0.285
5472,-0.460,-0.305
5473,-0.455,-0.240
5474,-0.455,-0.290
5475,-0.470,-0.235
5476,-0.460,-0.260
5477,-0.420,-0.165
5478,-0.480,-0.215
5479,-0.380,-0.145
5480,-0.465,-0.165
5481,-0.350,-0.090
5482,-0.435,-0.105
5483,-0.250,0.000
5484,-0.370,0.010
5485,-0.210,0.115
5486,-0.300,0.145
5487,-0.095,0.235
5488,-0.220,0.285
5489,-0.080,0.360
5490,-0.185,0.375
5491,-0.030,0.420
5492,-0.170,0.425
5493,-0.090,0.395
5494,-0.175,0.395
5495,-0.160,0.325
5496,-0.295,0.280
5497,-0.335,0.140
5498,-0.395,0.080
5499,-0.415,-0.080
5500,-0.440,-0.100
5501,-0.460,-0.185
5502,-0.430,-0.190
5503,-0.460,-0.310
5504,-0.430,-0.260
5505,-0.485,-0.380
5506,-0.440,-0.315
5507,-0.460,-0.335
5508,-0.390,-0.280
5509,-0.475,-0.340
5510,-0.385,-0.285
5511,-0.450,-0.320
5512,-0.360,-0.245
5513,-0.470,-0.275
5514,-0.355,-0.250
5515,-0.490,-0.255
5516,-0.395,-0.265
5517,-0.440,-0.265
5518,-0.375,-0.285
5519,-0.475,-0.270
5520,-0.395,-0.280
5521,-0.450,-0.250
5522,-0.390,-0.305
5523,-0.475,-0.255
5524,-0.430,-0.305
5525,-0.425,-0.280
5526,-0.465,-0.350
5527,-0.435,-0.260
5528,-0.500,-0.360
5529,-0.390,-0.325
5530,-0.510,-0.345
5531,-0.400,-0.310
5532,-0.505,-0.345
5533,-0.365,-0.340
5534,-0.420,-0.340
5535,-0.275,-0.280
5536,-0.390,-0.230
5537,-0.285,-0.175
5538,-0.375,-0.120
5539,-0.140,-0.100
5540,-0.300,-0.180
5541,-0.295,-0.280
5542,-0.445,-0.340
5543,-0.380,-0.465
5544,-0.445,-0.385
5545,-0.450,-0.490
5546,-0.535,-0.370
5547,-0.645,-0.485
5548,-0.550,-0.425
5549,-0.540,-0.520
5550,-0.480,-0.435
5551,-0.540,-0.515
5552,-0.455,-0.430
5553,-0.560,-0.480
5554,-0.600,-0.185
5555,-0.380,0.055
5556,0.400,0.220
5557,1.080,0.010
5558,0.985,-1.330
5559,-0.370,-2.070
5560,-1.015,-2.595
5561,-1.005,-2.835
5562,-0.590,-1.745
5563,-0.510,-0.900
5564,-0.430,-0.410
5565,-0.545,-0.295
5566,-0.460,-0.310
5567,-0.560,-0.255
5568,-0.465,-0.305
5569,-0.510,-0.205
5570,-0.445,-0.250
5571,-0.495,-0.170
5572,-0.435,-0.245
5573,-0.465,-0.155
5574,-0.450,-0.205
5575,-0.430,-0.130
5576,-0.415,-0.140
5577,-0.370,-0.065
5578,-0.420,-0.080
5579,-0.330,0.010
5580,-0.395,0.030
5581,-0.215,0.095
5582,-0.295,0.175
5583,-0.150,0.245
5584,-0.250,0.320
5585,-0.130,0.340
5586,-0.185,0.395
5587,-0.100,0.385
5588,-0.245,0.450
5589,-0.185,0.405
5590,-0.345,0.390
5591,-0.285,0.260
5592,-0.375,0.230
5593,-0.450,0.065
5594,-0.460,0.055
5595,-0.515,-0.135
5596,-0.450,-0.135
5597,-0.530,-0.250
5598,-0.470,-0.230
5599,-0.575,-0.315
5600,-0.465,-0.325
5601,-0.570,-0.350
5602,-0.435,-0.315
5603,-0.575,-0.335
5604,-0.490,-0.310
5605,-0.560,-0.300
5606,-0.440,-0.305
5607,-0.550,-0.280
5608,-0.430,-0.290
5609,-0.525,-0.260
5610,-0.465,-0.285
5611,-0.505,-0.235
5612,-0.445,-0.315
5613,-0.485,-0.245
5614,-0.465,-0.310
5615,-0.465,-0.245
5616,-0.490,-0.315
5617,-0.465,-0.265
5618,-0.515,-0.300
5619,-0.480,-0.255
5620,-0.555,-0.320
5621,-0.460,-0.290
5622,-0.550,-0.360
5623,-0.435,-0.290
5624,-0.560,-0.345
5625,-0.450,-0.305
5626,-0.555,-0.325
5627,-0.430,-0.320
5628,-0.550,-0.305
5629,-0.380,-0.345
5630,-0.425,-0.260
5631,-0.340,-0.225
5632,-0.400,-0.115
5633,-0.295,-0.105
5634,-0.280,-0.070
5635,-0.300,-0.215
5636,-0.380,-0.245
5637,-0.445,-0.430
5638,-0.430,-0.340
5639,-0.525,-0.405
5640,-0.530,-0.375
5641,-0.625,-0.425
5642,-0.550,-0.390
5643,-0.650,-0.460
5644,-0.525,-0.440
5645,-0.590,-0.465
5646,-0.465,-0.445
5647,-0.565,-0.450
5648,-0.490,-0.395
5649,-0.670,-0.130
5650,-0.295,0.150
5651,0.280,0.270
5652,1.055,0.050
5653,1.025,-1.480
5654,-0.285,-2.240
5655,-1.140,-2.835
5656,-0.950,-3.000
5657,-0.590,-1.675
5658,-0.490,-0.825
5659,-0.510,-0.320
5660,-0.590,-0.270
5661,-0.480,-0.185
5662,-0.575,-0.235
5663,-0.420,-0.150
5664,-0.525,-0.180
5665,-0.420,-0.180
5666,-0.525,-0.115
5667,-0.435,-0.175
5668,-0.515,-0.090
5669,-0.440,-0.080
5670,-0.475,0.000
5671,-0.430,-0.045
5672,-0.390,0.050
5673,-0.360,0.025
5674,-0.300,0.185
5675,-0.345,0.120
5676,-0.195,0.270
5677,-0.290,0.280
5678,-0.150,0.445
5679,-0.220,0.455
5680,-0.085,0.535
5681,-0.185,0.540
5682,-0.065,0.580
5683,-0.160,0.580
5684,-0.105,0.555
5685,-0.260,0.545
5686,-0.230,0.450
5687,-0.355,0.360
5688,-0.355,0.205
5689,-0.445,0.155
5690,-0.445,0.020
5691,-0.480,-0.025
5692,-0.435,-0.130
5693,-0.465,-0.135
5694,-0.480,-0.235
5695,-0.415,-0.210
5696,-0.520,-0.290
5697,-0.435,-0.220
5698,-0.525,-0.295
5699,-0.400,-0.260
5700,-0.520,-0.260
5701,-0.385,-0.210
5702,-0.510,-0.260
5703,-0.390,-0.215
5704,-0.515,-0.230
5705,-0.395,-0.215
5706,-0.515,-0.195
5707,-0.400,-0.180
5708,-0.495,-0.205
5709,-0.425,-0.210
5710,-0.510,-0.195
5711,-0.460,-0.270
5712,-0.490,-0.215
5713,-0.485,-0.235
5714,-0.485,-0.195
5715,-0.495,-0.295
5716,-0.465,-0.205
5717,-0.525,-0.315
5718,-0.455,-0.215
5719,-0.560,-0.315
5720,-0.455,-0.250
5721,-0.560,-0.315
5722,-0.430,-0.240
5723,-0.560,-0.310
5724,-0.390,-0.265
5725,-0.445,-0.215
5726,-0.330,-0.145
5727,-0.395,-0.090
5728,-0.290,-0.030
5729,-0.290,-0.005
5730,-0.265,-0.110
5731,-0.415,-0.140
5732,-0.425,-0.360
5733,-0.465,-0.320
5734,-0.510,-0.365
5735,-0.575,-0.335
5736,-0.630,-0.400
5737,-0.600,-0.350
5738,-0.630,-0.485
5739,-0.575,-0.380
5740,-0.610,-0.440
5741,-0.535,-0.400
5742,-0.610,-0.445
5743,-0.545,-0.315
5744,-0.725,-0.075
5745,-0.275,0.215
5746,0.260,0.400
5747,1.070,-0.235
5748,0.840,-1.665
5749,-0.290,-2.410
5750,-1.195,-3.020
5751,-0.875,-2.820
5752,-0.645,-1.460
5753,-0.510,-0.605
5754,-0.640,-0.265
5755,-0.560,-0.230
5756,-0.605,-0.165
5757,-0.505,-0.185
5758,-0.580,-0.140
5759,-0.500,-0.200
5760,-0.540,-0.095
5761,-0.510,-0.140
5762,-0.510,-0.060
5763,-0.540,-0.085
5764,-0.420,0.010
5765,-0.505,-0.030
5766,-0.380,0.080
5767,-0.455,0.045
5768,-0.320,0.135
5769,-0.410,0.155
5770,-0.275,0.215
5771,-0.330,0.300
5772,-0.190,0.395
5773,-0.260,0.460
5774,-0.105,0.490
5775,-0.180,0.565
5776,-0.075,0.580
5777,-0.120,0.595
5778,-0.085,0.585
5779,-0.175,0.615
5780,-0.215,0.470
5781,-0.230,0.520
5782,-0.365,0.345
5783,-0.345,0.290
5784,-0.430,0.130
5785,-0.405,0.075
5786,-0.495,-0.030
5787,-0.395,-0.055
5788,-0.485,-0.190
5789,-0.400,-0.155
5790,-0.515,-0.205
5791,-0.420,-0.215
5792,-0.520,-0.225
5793,-0.360,-0.215
5794,-0.470,-0.235
5795,-0.390,-0.180
5796,-0.490,-0.175
5797,-0.395,-0.180
5798,-0.475,-0.160
5799,-0.385,-0.175
5800,-0.460,-0.145
5801,-0.415,-0.205
5802,-0.445,-0.165
5803,-0.385,-0.220
5804,-0.470,-0.145
5805,-0.410,-0.255
5806,-0.445,-0.205
5807,-0.420,-0.235
5808,-0.435,-0.220
5809,-0.430,-0.315
5810,-0.435,-0.225
5811,-0.490,-0.305
5812,-0.420,-0.225
5813,-0.465,-0.295
5814,-0.430,-0.270
5815,-0.490,-0.320
5816,-0.415,-0.255
5817,-0.505,-0.295
5818,-0.395,-0.290
5819,-0.445,-0.265
5820,-0.295,-0.245
5821,-0.385,-0.175
5822,-0.245,-0.095
5823,-0.370,-0.080
5824,-0.180,-0.040
5825,-0.385,-0.170
5826,-0.300,-0.260
5827,-0.470,-0.335
5828,-0.375,-0.375
5829,-0.540,-0.365
5830,-0.525,-0.440
5831,-0.580,-0.360
5832,-0.580,-0.460
5833,-0.585,-0.430
5834,-0.585,-0.495
5835,-0.580,-0.435
5836,-0.630,-0.490
5837,-0.545,-0.395
5838,-0.620,-0.435
5839,-0.595,-0.130
5840,-0.405,0.090
5841,0.320,0.250
5842,0.955,0.145
5843,1.060,-1.300
5844,-0.380,-1.950
5845,-1.075,-2.575
5846,-1.175,-2.905
5847,-0.715,-1.955
5848,-0.555,-0.985
5849,-0.570,-0.420
5850,-0.640,-0.300
5851,-0.575,-0.290
5852,-0.610,-0.220
5853,-0.590,-0.245
5854,-0.555,-0.185
5855,-0.565,-0.240
5856,-0.520,-0.190
5857,-0.565,-0.235
5858,-0.465,-0.135
5859,-0.550,-0.200
5860,-0.455,-0.100
5861,-0.555,-0.115
5862,-0.385,-0.040
5863,-0.485,-0.030
5864,-0.360,0.030
5865,-0.440,0.090
5866,-0.280,0.150
5867,-0.370,0.190
5868,-0.225,0.295
5869,-0.295,0.370
5870,-0.135,0.375
5871,-0.275,0.435
5872,-0.185,0.430
5873,-0.265,0.445
5874,-0.180,0.410
5875,-0.310,0.405
5876,-0.320,0.295
5877,-0.420,0.260
5878,-0.490,0.105
5879,-0.520,0.055
5880,-0.585,-0.100
5881,-0.520,-0.145
5882,-0.580,-0.220
5883,-0.470,-0.200
5884,-0.605,-0.270
5885,-0.545,-0.235
5886,-0.645,-0.280
5887,-0.465,-0.255
5888,-0.640,-0.275
5889,-0.475,-0.260
5890,-0.605,-0.285
5891,-0.450,-0.235
5892,-0.605,-0.235
5893,-0.485,-0.250
5894,-0.570,-0.235
5895,-0.480,-0.240
5896,-0.515,-0.200
5897,-0.490,-0.245
5898,-0.520,-0.195
5899,-0.575,-0.235
5900,-0.490,-0.170
5901,-0.515,-0.265
5902,-0.510,-0.215
5903,-0.585,-0.250
5904,-0.485,-0.220
5905,-0.570,-0.285
5906,-0.465,-0.230
5907,-0.605,-0.285
5908,-0.435,-0.265
5909,-0.595,-0.315
5910,-0.470,-0.275
5911,-0.600,-0.280
5912,-0.455,-0.275
5913,-0.560,-0.245
5914,-0.485,-0.265
5915,-0.465,-0.205
5916,-0.375,-0.190
5917,-0.370,-0.085
5918,-0.405,-0.065
5919,-0.300,0.005
5920,-0.325,-0.125
5921,-0.360,-0.140
5922,-0.450,-0.350
5923,-0.430,-0.325
5924,-0.550,-0.360
5925,-0.535,-0.340
5926,-0.675,-0.380
5927,-0.550,-0.360
5928,-0.675,-0.420
5929,-0.560,-0.370
5930,-0.660,-0.385
5931,-0.490,-0.385
5932,-0.625,-0.405
5933,-0.510,-0.365
5934,-0.745,-0.195
5935,-0.460,0.115
5936,0.070,0.200
5937,0.875,0.335
5938,1.075,-1.040
5939,-0.060,-1.920
5940,-1.020,-2.500
5941,-1.135,-2.915
5942,-0.735,-1.995
5943,-0.570,-1.060
5944,-0.530,-0.375
5945,-0.625,-0.275
5946,-0.510,-0.170
5947,-0.630,-0.240
5948,-0.475,-0.170
5949,-0.610,-0.185
5950,-0.445,-0.150
5951,-0.570,-0.145
5952,-0.480,-0.135
5953,-0.600,-0.075
5954,-0.425,-0.070
5955,-0.525,-0.040
5956,-0.455,-0.040
5957,-0.515,0.010
5958,-0.445,0.025
5959,-0.410,0.095
5960,-0.375,0.105
5961,-0.305,0.255
5962,-0.355,0.250
5963,-0.220,0.380
5964,-0.310,0.400
5965,-0.165,0.475
5966,-0.265,0.485
5967,-0.130,0.530
5968,-0.245,0.525
5969,-0.170,0.525
5970,-0.295,0.505
5971,-0.300,0.385
5972,-0.390,0.385
5973,-0.415,0.210
5974,-0.440,0.170
5975,-0.545,0.020
5976,-0.485,-0.005
5977,-0.630,-0.145
5978,-0.510,-0.125
5979,-0.600,-0.215
5980,-0.475,-0.245
5981,-0.600,-0.270
5982,-0.470,-0.255
5983,-0.590,-0.290
5984,-0.495,-0.300
5985,-0.560,-0.250
5986,-0.485,-0.265
5987,-0.540,-0.235
5988,-0.475,-0.260
5989,-0.500,-0.250
5990,-0.485,-0.235
5991,-0.480,-0.200
5992,-0.495,-0.230
5993,-0.490,-0.185
5994,-0.555,-0.245
5995,-0.450,-0.210
5996,-0.560,-0.255
5997,-0.445,-0.180
5998,-0.575,-0.250
5999,-0.495,-0.215
6000,-0.580,-0.275
6001,-0.475,-0.240
6002,-0.590,-0.265
6003,-0.460,-0.240
6004,-0.570,-0.275
6005,-0.450,-0.245
6006,-0.565,-0.260
6007,-0.460,-0.285
6008,-0.580,-0.290
6009,-0.455,-0.295
6010,-0.470,-0.225
6011,-0.375,-0.195
6012,-0.375,-0.080
6013,-0.365,-0.080
6014,-0.240,0.030
6015,-0.300,-0.110
6016,-0.390,-0.120
6017,-0.460,-0.350
6018,-0.425,-0.315
6019,-0.530,-0.375
6020,-0.525,-0.315
6021,-0.675,-0.345
6022,-0.570,-0.345
6023,-0.665,-0.435
6024,-0.535,-0.410
6025,-0.640,-0.420
6026,-0.515,-0.400
6027,-0.600,-0.385
6028,-0.535,-0.390
6029,-0.710,-0.160
6030,-0.430,0.155
6031,0.090,0.265
6032,0.830,0.215
6033,1.145,-1.265
6034,0.015,-2.195
6035,-0.940,-2.780
6036,-1.095,-3.095
6037,-0.665,-1.855
6038,-0.520,-0.885
6039,-0.480,-0.330
6040,-0.635,-0.255
6041,-0.520,-0.150
6042,-0.620,-0.195
6043,-0.475,-0.145
6044,-0.585,-0.145
6045,-0.455,-0.110
6046,-0.550,-0.095
6047,-0.485,-0.095
6048,-0.540,-0.065
6049,-0.480,-0.050
6050,-0.485,0.000
6051,-0.425,0.020
6052,-0.440,0.120
6053,-0.385,0.090
6054,-0.360,0.185
6055,-0.330,0.230
6056,-0.285,0.340
6057,-0.250,0.345
6058,-0.190,0.505
6059,-0.205,0.465
6060,-0.105,0.590
6061,-0.170,0.565
6062,-0.055,0.650
6063,-0.180,0.615
6064,-0.085,0.655
6065,-0.260,0.550
6066,-0.185,0.505
6067,-0.360,0.410
6068,-0.315,0.290
6069,-0.460,0.165
6070,-0.405,0.045
6071,-0.495,-0.020
6072,-0.415,-0.115
6073,-0.505,-0.150
6074,-0.425,-0.225
6075,-0.495,-0.210
6076,-0.445,-0.260
6077,-0.470,-0.225
6078,-0.455,-0.270
6079,-0.415,-0.210
6080,-0.510,-0.255
6081,-0.405,-0.200
6082,-0.490,-0.235
6083,-0.400,-0.165
6084,-0.510,-0.220
6085,-0.405,-0.145
6086,-0.520,-0.190
6087,-0.415,-0.165
6088,-0.500,-0.210
6089,-0.400,-0.175
6090,-0.490,-0.225
6091,-0.400,-0.220
6092,-0.515,-0.235
6093,-0.420,-0.225
6094,-0.545,-0.255
6095,-0.490,-0.275
6096,-0.545,-0.260
6097,-0.475,-0.315
6098,-0.500,-0.265
6099,-0.505,-0.340
6100,-0.515,-0.260
6101,-0.505,-0.365
6102,-0.425,-0.255
6103,-0.470,-0.285
6104,-0.380,-0.230
6105,-0.415,-0.235
6106,-0.285,-0.075
6107,-0.370,-0.070
6108,-0.210,-0.050
6109,-0.365,-0.185
6110,-0.345,-0.215
6111,-0.495,-0.375
6112,-0.375,-0.385
6113,-0.510,-0.345
6114,-0.525,-0.400
6115,-0.650,-0.380
6116,-0.580,-0.410
6117,-0.605,-0.380
6118,-0.540,-0.465
6119,-0.615,-0.425
6120,-0.510,-0.470
6121,-0.570,-0.410
6122,-0.600,-0.395
6123,-0.685,0.000
6124,-0.245,0.115
6125,0.430,0.455
6126,1.125,-0.300
6127,0.820,-1.590
6128,-0.490,-2.330
6129,-1.160,-2.860
6130,-1.000,-2.820
6131,-0.555,-1.570
6132,-0.560,-0.720
6133,-0.510,-0.345
6134,-0.635,-0.280
6135,-0.540,-0.215
6136,-0.610,-0.225
6137,-0.485,-0.185
6138,-0.570,-0.220
6139,-0.435,-0.190
6140,-0.555,-0.175
6141,-0.430,-0.155
6142,-0.520,-0.100
6143,-0.430,-0.125
6144,-0.510,-0.075
6145,-0.435,-0.090
6146,-0.390,0.000
6147,-0.390,-0.025
6148,-0.355,0.090
6149,-0.325,0.120
6150,-0.255,0.235
6151,-0.305,0.245
6152,-0.205,0.365
6153,-0.260,0.365
6154,-0.140,0.445
6155,-0.180,0.415
6156,-0.070,0.495
6157,-0.195,0.455
6158,-0.135,0.500
6159,-0.320,0.400
6160,-0.280,0.315
6161,-0.425,0.265
6162,-0.345,0.120
6163,-0.465,0.050
6164,-0.450,-0.080
6165,-0.465,-0.115
6166,-0.495,-0.200
6167,-0.450,-0.160
6168,-0.510,-0.270
6169,-0.430,-0.225
6170,-0.520,-0.295
6171,-0.425,-0.225
6172,-0.525,-0.265
6173,-0.395,-0.205
6174,-0.495,-0.265
6175,-0.380,-0.205
6176,-0.505,-0.225
6177,-0.385,-0.240
6178,-0.500,-0.225
6179,-0.405,-0.230
6180,-0.505,-0.205
6181,-0.415,-0.225
6182,-0.445,-0.205
6183,-0.425,-0.280
6184,-0.450,-0.195
6185,-0.485,-0.280
6186,-0.480,-0.240
6187,-0.525,-0.285
6188,-0.475,-0.230
6189,-0.485,-0.285
6190,-0.440,-0.265
6191,-0.545,-0.345
6192,-0.455,-0.245
6193,-0.505,-0.330
6194,-0.385,-0.280
6195,-0.520,-0.350
6196,-0.415,-0.300
6197,-0.550,-0.340
6198,-0.445,-0.330
6199,-0.465,-0.295
6200,-0.330,-0.255
6201,-0.435,-0.165
6202,-0.325,-0.125
6203,-0.350,-0.050
6204,-0.185,-0.105
6205,-0.320,-0.120
6206,-0.340,-0.300
6207,-0.455,-0.365
6208,-0.455,-0.390
6209,-0.540,-0.355
6210,-0.560,-0.415
6211,-0.565,-0.365
6212,-0.645,-0.445
6213,-0.535,-0.395
6214,-0.605,-0.460
6215,-0.500,-0.390
6216,-0.625,-0.445
6217,-0.505,-0.400
6218,-0.680,-0.370
6219,-0.585,-0.015
6220,-0.250,0.150
6221,0.615,0.395
6222,1.120,-0.440
6223,0.615,-1.620
6224,-0.715,-2.225
6225,-1.275,-2.770
6226,-0.950,-2.640
6227,-0.655,-1.590
6228,-0.465,-0.710
6229,-0.635,-0.405
6230,-0.545,-0.250
6231,-0.630,-0.285
6232,-0.485,-0.215
6233,-0.605,-0.260
6234,-0.485,-0.200
6235,-0.565,-0.200
6236,-0.460,-0.170
6237,-0.605,-0.185
6238,-0.475,-0.150
6239,-0.555,-0.130
6240,-0.440,-0.110
6241,-0.485,-0.060
6242,-0.405,-0.075
6243,-0.425,0.005
6244,-0.385,0.025
6245,-0.335,0.125
6246,-0.345,0.130
6247,-0.240,0.285
6248,-0.305,0.280
6249,-0.185,0.420
6250,-0.295,0.430
6251,-0.130,0.500
6252,-0.285,0.465
6253,-0.130,0.520
6254,-0.295,0.435
6255,-0.195,0.430
6256,-0.380,0.355
6257,-0.315,0.275
6258,-0.500,0.150
6259,-0.435,0.045
6260,-0.535,-0.025
6261,-0.490,-0.120
6262,-0.545,-0.130
6263,-0.530,-0.240
6264,-0.505,-0.220
6265,-0.540,-0.305
6266,-0.500,-0.235
6267,-0.595,-0.300
6268,-0.485,-0.235
6269,-0.555,-0.305
6270,-0.425,-0.235
6271,-0.575,-0.290
6272,-0.420,-0.225
6273,-0.585,-0.270
6274,-0.395,-0.225
6275,-0.540,-0.235
6276,-0.420,-0.255
6277,-0.550,-0.225
6278,-0.480,-0.260
6279,-0.505,-0.190
6280,-0.470,-0.255
6281,-0.465,-0.230
6282,-0.500,-0.270
6283,-0.485,-0.230
6284,-0.530,-0.315
6285,-0.450,-0.230
6286,-0.535,-0.270
6287,-0.445,-0.265
6288,-0.535,-0.315
6289,-0.425,-0.250
6290,-0.545,-0.310
6291,-0.420,-0.305
6292,-0.590,-0.335
6293,-0.425,-0.265
6294,-0.530,-0.270
6295,-0.320,-0.225
6296,-0.430,-0.165
6297,-0.305,-0.115
6298,-0.355,-0.030
6299,-0.265,-0.060
6300,-0.265,-0.075
6301,-0.370,-0.210
6302,-0.390,-0.310
6303,-0.430,-0.385
6304,-0.410,-0.325
6305,-0.580,-0.390
6306,-0.545,-0.330
6307,-0.615,-0.420
6308,-0.535,-0.385
6309,-0.610,-0.445
6310,-0.500,-0.420
6311,-0.650,-0.465
6312,-0.460,-0.410
6313,-0.610,-0.395
6314,-0.605,-0.270
6315,-0.550,0.145
6316,0.175,0.145
6317,0.845,0.270
6318,1.170,-1.325
6319,-0.095,-2.105
6320,-1.035,-2.795
6321,-1.055,-2.955
6322,-0.650,-1.880
6323,-0.485,-0.835
6324,-0.545,-0.365
6325,-0.570,-0.235
6326,-0.560,-0.260
6327,-0.510,-0.185
6328,-0.565,-0.240
6329,-0.485,-0.145
6330,-0.565,-0.190
6331,-0.445,-0.130
6332,-0.545,-0.130
6333,-0.400,-0.080
6334,-0.530,-0.110
6335,-0.390,-0.040
6336,-0.515,-0.070
6337,-0.320,0.000
6338,-0.435,0.050
6339,-0.295,0.135
6340,-0.375,0.185
6341,-0.215,0.250
6342,-0.280,0.345
6343,-0.165,0.405
6344,-0.190,0.455
6345,-0.130,0.495
6346,-0.120,0.550
6347,-0.105,0.520
6348,-0.080,0.560
6349,-0.180,0.500
6350,-0.200,0.495
6351,-0.320,0.365
6352,-0.290,0.325
6353,-0.440,0.150
6354,-0.380,0.110
6355,-0.510,-0.035
6356,-0.415,-0.070
6357,-0.530,-0.220
6358,-0.385,-0.220
6359,-0.565,-0.270
6360,-0.395,-0.275
6361,-0.530,-0.320
6362,-0.385,-0.295
6363,-0.505,-0.280
6364,-0.395,-0.300
6365,-0.500,-0.280
6366,-0.430,-0.290
6367,-0.485,-0.270
6368,-0.430,-0.280
6369,-0.460,-0.220
6370,-0.460,-0.260
6371,-0.445,-0.190
6372,-0.460,-0.265
6373,-0.445,-0.220
6374,-0.465,-0.275
6375,-0.405,-0.230
6376,-0.505,-0.295
6377,-0.415,-0.235
6378,-0.545,-0.330
6379,-0.405,-0.255
6380,-0.570,-0.280
6381,-0.420,-0.265
6382,-0.545,-0.325
6383,-0.430,-0.305
6384,-0.550,-0.320
6385,-0.435,-0.310
6386,-0.550,-0.325
6387,-0.435,-0.320
6388,-0.520,-0.310
6389,-0.335,-0.255
6390,-0.440,-0.190
6391,-0.315,-0.120
6392,-0.360,-0.025
6393,-0.220,-0.050
6394,-0.300,-0.110
6395,-0.370,-0.250
6396,-0.430,-0.365
6397,-0.475,-0.395
6398,-0.465,-0.380
6399,-0.585,-0.515
6400,-0.560,-0.365
6401,-0.630,-0.465
6402,-0.580,-0.400
6403,-0.575,-0.465
6404,-0.510,-0.420
6405,-0.555,-0.470
6406,-0.500,-0.415
6407,-0.665,-0.440
6408,-0.615,-0.050
6409,-0.300,0.135
6410,0.500,0.385
6411,1.065,-0.475
6412,0.945,-1.800
6413,-0.355,-2.510
6414,-1.060,-3.095
6415,-0.940,-2.890
6416,-0.555,-1.540
6417,-0.510,-0.630
6418,-0.490,-0.330
6419,-0.540,-0.250
6420,-0.500,-0.305
6421,-0.515,-0.180
6422,-0.505,-0.245
6423,-0.505,-0.135
6424,-0.485,-0.185
6425,-0.415,-0.135
6426,-0.430,-0.170
6427,-0.355,-0.080
6428,-0.445,-0.120
6429,-0.360,-0.030
6430,-0.460,-0.015
6431,-0.305,0.020
6432,-0.360,0.055
6433,-0.205,0.140
6434,-0.295,0.175
6435,-0.160,0.250
6436,-0.235,0.310
6437,-0.075,0.350
6438,-0.160,0.440
6439,-0.010,0.480
6440,-0.105,0.480
6441,0.005,0.485
6442,-0.115,0.565
6443,-0.105,0.450
6444,-0.210,0.475
6445,-0.225,0.355
6446,-0.260,0.295
6447,-0.320,0.145
6448,-0.335,0.090
6449,-0.405,-0.070
6450,-0.410,-0.090
6451,-0.465,-0.215
6452,-0.390,-0.215
6453,-0.475,-0.300
6454,-0.340,-0.265
6455,-0.415,-0.340
6456,-0.355,-0.305
6457,-0.455,-0.350
6458,-0.320,-0.275
6459,-0.440,-0.300
6460,-0.325,-0.230
6461,-0.480,-0.285
6462,-0.305,-0.240
6463,-0.465,-0.210
6464,-0.285,-0.245
6465,-0.400,-0.235
6466,-0.350,-0.290
6467,-0.440,-0.265
6468,-0.365,-0.300
6469,-0.435,-0.260
6470,-0.395,-0.330
6471,-0.410,-0.290
6472,-0.385,-0.340
6473,-0.395,-0.305
6474,-0.435,-0.350
6475,-0.385,-0.325
6476,-0.465,-0.395
6477,-0.385,-0.365
6478,-0.475,-0.370
6479,-0.370,-0.330
6480,-0.485,-0.410
6481,-0.340,-0.350
6482,-0.505,-0.380
6483,-0.340,-0.350
6484,-0.370,-0.325
6485,-0.240,-0.285
6486,-0.375,-0.200
6487,-0.240,-0.170
6488,-0.270,-0.100
6489,-0.175,-0.245
6490,-0.355,-0.335
6491,-0.330,-0.465
6492,-0.390,-0.445
6493,-0.405,-0.490
6494,-0.445,-0.465
6495,-0.570,-0.515
6496,-0.520,-0.460
6497,-0.595,-0.555
6498,-0.470,-0.515
6499,-0.560,-0.555
6500,-0.460,-0.500
6501,-0.570,-0.535
6502,-0.455,-0.490
6503,-0.685,-0.300
6504,-0.330,0.075
6505,0.165,0.085
6506,1.090,0.320
6507,1.130,-1.275
6508,-0.060,-1.975
6509,-1.115,-2.625
6510,-0.970,-2.950
6511,-0.740,-1.975
6512,-0.395,-1.095
6513,-0.540,-0.430
6514,-0.530,-0.395
6515,-0.530,-0.310
6516,-0.495,-0.360
6517,-0.450,-0.275
6518,-0.465,-0.305
6519,-0.485,-0.280
6520,-0.480,-0.290
6521,-0.410,-0.205
6522,-0.480,-0.260
6523,-0.375,-0.155
6524,-0.430,-0.205
6525,-0.360,-0.110
6526,-0.485,-0.130
6527,-0.275,-0.030
6528,-0.400,0.000
6529,-0.215,0.070
6530,-0.315,0.125
6531,-0.165,0.140
6532,-0.250,0.245
6533,-0.105,0.295
6534,-0.130,0.340
6535,-0.040,0.380
6536,-0.115,0.430
6537,-0.135,0.390
6538,-0.180,0.440
6539,-0.225,0.345
6540,-0.235,0.320
6541,-0.285,0.170
6542,-0.240,0.135
6543,-0.430,-0.020
6544,-0.350,-0.040
6545,-0.470,-0.155
6546,-0.365,-0.185
6547,-0.500,-0.245
6548,-0.370,-0.235
6549,-0.500,-0.315
6550,-0.370,-0.330
6551,-0.445,-0.260
6552,-0.405,-0.320
6553,-0.470,-0.265
6554,-0.385,-0.285
6555,-0.420,-0.205
6556,-0.420,-0.280
6557,-0.390,-0.210
