'sample interval','ECG0','ECG1'
'0.0078125 sec','mV','mV'
0,0.315,-0.360
1,0.310,-0.340
2,0.325,-0.340
3,0.305,-0.325
4,0.325,-0.325
5,0.335,-0.340
6,0.335,-0.335
7,0.315,-0.310
8,0.310,-0.285
9,0.315,-0.295
10,0.320,-0.285
11,0.350,-0.285
12,0.350,-0.305
13,0.325,-0.300
14,0.345,-0.295
15,0.300,-0.290
16,0.340,-0.300
17,0.335,-0.325
18,0.310,-0.340
19,0.300,-0.355
20,0.275,-0.360
21,0.260,-0.375
22,0.245,-0.420
23,0.225,-0.425
24,0.205,-0.475
25,0.175,-0.515
26,0.180,-0.545
27,0.130,-0.575
28,0.115,-0.545
29,0.100,-0.520
30,0.110,-0.500
31,0.080,-0.470
32,0.075,-0.480
33,0.085,-0.470
34,0.075,-0.465
35,0.105,-0.465
36,0.105,-0.435
37,0.150,-0.470
38,0.175,-0.425
39,0.190,-0.440
40,0.180,-0.435
41,0.210,-0.445
42,0.175,-0.420
43,0.175,-0.400
44,0.195,-0.420
45,0.185,-0.430
46,0.185,-0.420
47,0.190,-0.415
48,0.200,-0.435
49,0.180,-0.430
50,0.190,-0.425
51,0.185,-0.430
52,0.175,-0.450
53,0.190,-0.485
54,0.205,-0.500
55,0.190,-0.510
56,0.215,-0.470
57,0.190,-0.480
58,0.210,-0.505
59,0.215,-0.510
60,0.205,-0.525
61,0.220,-0.540
62,0.225,-0.555
63,0.215,-0.515
64,0.250,-0.520
65,0.195,-0.500
66,0.230,-0.475
67,0.240,-0.515
68,0.245,-0.525
69,0.225,-0.515
70,0.205,-0.485
71,0.200,-0.490
72,0.205,-0.510
73,0.250,-0.490
74,0.235,-0.510
75,0.245,-0.505
76,0.220,-0.515
77,0.225,-0.495
78,0.225,-0.485
79,0.225,-0.495
80,0.230,-0.465
81,0.255,-0.485
82,0.240,-0.490
83,0.250,-0.470
84,0.210,-0.430
85,0.255,-0.360
86,0.250,-0.345
87,0.320,-0.325
88,0.315,-0.355
89,0.265,-0.350
90,0.280,-0.335
91,0.275,-0.350
92,0.250,-0.415
93,0.265,-0.480
94,0.300,-0.530
95,0.285,-0.500
96,0.305,-0.530
97,0.275,-0.500
98,0.265,-0.510
99,0.235,-0.490
100,0.250,-0.485
101,0.255,-0.555
102,0.280,-0.275
103,0.295,0.670
104,0.215,1.410
105,-0.090,1.015
106,-0.370,-0.305
107,-0.600,-1.215
108,-0.395,-1.105
109,0.430,-0.740
110,0.545,-0.545
111,0.335,-0.500
112,0.255,-0.460
113,0.285,-0.440
114,0.310,-0.425
115,0.325,-0.435
116,0.350,-0.400
117,0.335,-0.390
118,0.345,-0.370
119,0.325,-0.365
120,0.330,-0.355
121,0.340,-0.355
122,0.340,-0.340
123,0.365,-0.375
124,0.330,-0.365
125,0.360,-0.345
126,0.340,-0.350
127,0.325,-0.315
128,0.320,-0.305
129,0.355,-0.310
130,0.355,-0.315
131,0.370,-0.295
132,0.335,-0.320
133,0.325,-0.310
134,0.300,-0.320
135,0.330,-0.355
136,0.305,-0.385
137,0.275,-0.405
138,0.265,-0.455
139,0.245,-0.465
140,0.215,-0.465
141,0.195,-0.490
142,0.185,-0.515
143,0.175,-0.505
144,0.185,-0.495
145,0.140,-0.485
146,0.130,-0.445
147,0.120,-0.400
148,0.130,-0.385
149,0.085,-0.395
150,0.110,-0.405
151,0.170,-0.435
152,0.145,-0.405
153,0.165,-0.425
154,0.185,-0.405
155,0.195,-0.415
156,0.180,-0.395
157,0.205,-0.400
158,0.200,-0.380
159,0.200,-0.375
160,0.205,-0.380
161,0.210,-0.375
162,0.200,-0.385
163,0.215,-0.385
164,0.220,-0.410
165,0.200,-0.420
166,0.185,-0.390
167,0.215,-0.390
168,0.205,-0.380
169,0.205,-0.405
170,0.205,-0.425
171,0.215,-0.435
172,0.220,-0.445
173,0.215,-0.430
174,0.190,-0.425
175,0.210,-0.395
176,0.210,-0.395
177,0.225,-0.420
178,0.200,-0.460
179,0.195,-0.430
180,0.180,-0.430
181,0.205,-0.420
182,0.215,-0.425
183,0.240,-0.450
184,0.225,-0.420
185,0.225,-0.440
186,0.240,-0.460
187,0.215,-0.425
188,0.200,-0.420
189,0.200,-0.395
190,0.195,-0.420
191,0.190,-0.405
192,0.235,-0.470
193,0.230,-0.465
194,0.215,-0.430
195,0.190,-0.425
196,0.205,-0.415
197,0.180,-0.360
198,0.195,-0.330
199,0.210,-0.335
200,0.245,-0.335
201,0.220,-0.320
202,0.220,-0.295
203,0.235,-0.270
204,0.210,-0.325
205,0.205,-0.385
206,0.210,-0.450
207,0.255,-0.485
208,0.235,-0.460
209,0.215,-0.480
210,0.220,-0.475
211,0.200,-0.490
212,0.215,-0.450
213,0.180,-0.470
214,0.205,-0.545
215,0.195,-0.425
216,0.190,0.355
217,0.140,0.970
218,-0.280,0.690
219,-0.710,-0.140
220,-0.905,-0.915
221,-0.545,-1.065
222,0.490,-0.790
223,0.790,-0.480
224,0.495,-0.380
225,0.295,-0.310
226,0.280,-0.280
227,0.305,-0.300
228,0.300,-0.295
229,0.305,-0.275
230,0.300,-0.270
231,0.280,-0.240
232,0.275,-0.240
233,0.325,-0.225
234,0.320,-0.225
235,0.330,-0.235
236,0.330,-0.260
237,0.330,-0.195
238,0.330,-0.200
239,0.315,-0.195
240,0.325,-0.155
241,0.335,-0.220
242,0.330,-0.205
243,0.320,-0.170
244,0.330,-0.170
245,0.310,-0.160
246,0.300,-0.175
247,0.320,-0.200
248,0.305,-0.225
249,0.265,-0.270
250,0.260,-0.265
251,0.235,-0.280
252,0.195,-0.305
253,0.150,-0.350
254,0.120,-0.385
255,0.090,-0.390
256,0.070,-0.380
257,0.065,-0.395
258,0.030,-0.340
259,0.000,-0.300
260,0.000,-0.320
261,0.020,-0.350
262,0.005,-0.355
263,0.050,-0.340
264,0.055,-0.330
265,0.075,-0.335
266,0.090,-0.315
267,0.120,-0.325
268,0.145,-0.340
269,0.150,-0.330
270,0.145,-0.320
271,0.160,-0.305
272,0.145,-0.300
273,0.140,-0.290
274,0.140,-0.305
275,0.160,-0.310
276,0.160,-0.335
277,0.160,-0.295
278,0.130,-0.315
279,0.125,-0.290
280,0.135,-0.320
281,0.145,-0.345
282,0.140,-0.350
283,0.130,-0.355
284,0.135,-0.355
285,0.155,-0.335
286,0.140,-0.340
287,0.115,-0.365
288,0.140,-0.380
289,0.160,-0.390
290,0.140,-0.395
291,0.155,-0.390
292,0.130,-0.385
293,0.130,-0.355
294,0.130,-0.380
295,0.145,-0.385
296,0.125,-0.410
297,0.175,-0.405
298,0.145,-0.400
299,0.150,-0.395
300,0.170,-0.390
301,0.165,-0.380
302,0.175,-0.390
303,0.185,-0.400
304,0.165,-0.385
305,0.180,-0.370
306,0.150,-0.370
307,0.170,-0.340
308,0.155,-0.330
309,0.165,-0.300
310,0.170,-0.295
311,0.200,-0.260
312,0.205,-0.245
313,0.190,-0.235
314,0.180,-0.225
315,0.195,-0.245
316,0.170,-0.310
317,0.170,-0.400
318,0.250,-0.435
319,0.250,-0.420
320,0.215,-0.395
321,0.185,-0.410
322,0.180,-0.420
323,0.200,-0.425
324,0.210,-0.430
325,0.200,-0.495
326,0.180,-0.470
327,0.175,0.260
328,0.185,1.215
329,-0.080,1.375
330,-0.385,0.405
331,-0.635,-0.770
332,-0.640,-1.150
333,-0.040,-0.895
334,0.520,-0.560
335,0.370,-0.420
336,0.210,-0.390
337,0.210,-0.375
338,0.225,-0.355
339,0.235,-0.340
340,0.225,-0.330
341,0.255,-0.305
342,0.275,-0.285
343,0.275,-0.290
344,0.270,-0.280
345,0.270,-0.270
346,0.265,-0.265
347,0.295,-0.270
348,0.260,-0.240
349,0.285,-0.230
350,0.295,-0.225
351,0.310,-0.220
352,0.325,-0.230
353,0.325,-0.230
354,0.325,-0.200
355,0.310,-0.185
356,0.320,-0.200
357,0.315,-0.180
358,0.310,-0.225
359,0.290,-0.250
360,0.305,-0.260
361,0.270,-0.290
362,0.245,-0.305
363,0.235,-0.310
364,0.220,-0.355
365,0.215,-0.370
366,0.205,-0.405
367,0.195,-0.410
368,0.170,-0.385
369,0.135,-0.355
370,0.115,-0.320
371,0.110,-0.315
372,0.115,-0.305
373,0.115,-0.310
374,0.135,-0.315
375,0.150,-0.300
376,0.165,-0.295
377,0.200,-0.285
378,0.200,-0.275
379,0.220,-0.285
380,0.235,-0.295
381,0.225,-0.280
382,0.220,-0.250
383,0.270,-0.265
384,0.210,-0.240
385,0.215,-0.260
386,0.230,-0.235
387,0.225,-0.275
388,0.225,-0.280
389,0.235,-0.295
390,0.225,-0.270
391,0.235,-0.265
392,0.225,-0.280
393,0.230,-0.310
394,0.225,-0.330
395,0.240,-0.330
396,0.225,-0.305
397,0.225,-0.295
398,0.245,-0.310
399,0.225,-0.315
400,0.240,-0.335
401,0.230,-0.330
402,0.230,-0.340
403,0.195,-0.345
404,0.210,-0.325
405,0.230,-0.320
406,0.235,-0.335
407,0.220,-0.355
408,0.210,-0.380
409,0.200,-0.360
410,0.195,-0.340
411,0.190,-0.340
412,0.205,-0.330
413,0.200,-0.325
414,0.215,-0.335
415,0.225,-0.355
416,0.190,-0.350
417,0.215,-0.340
418,0.205,-0.345
419,0.205,-0.345
420,0.195,-0.320
421,0.195,-0.290
422,0.180,-0.255
423,0.210,-0.235
424,0.235,-0.185
425,0.230,-0.180
426,0.185,-0.185
427,0.220,-0.205
428,0.195,-0.215
429,0.185,-0.290
430,0.210,-0.355
431,0.250,-0.350
432,0.255,-0.355
433,0.235,-0.400
434,0.220,-0.385
435,0.215,-0.395
436,0.215,-0.375
437,0.225,-0.350
438,0.215,-0.435
439,0.215,-0.330
440,0.185,0.380
441,0.190,1.160
442,-0.100,1.125
443,-0.480,0.225
444,-0.740,-0.785
445,-0.715,-0.960
446,0.125,-0.675
447,0.660,-0.415
448,0.455,-0.305
449,0.290,-0.290
450,0.295,-0.250
451,0.290,-0.210
452,0.270,-0.205
453,0.255,-0.210
454,0.285,-0.180
455,0.290,-0.170
456,0.280,-0.170
457,0.320,-0.195
458,0.350,-0.140
459,0.325,-0.125
460,0.315,-0.100
461,0.350,-0.105
462,0.340,-0.120
463,0.370,-0.110
464,0.355,-0.120
465,0.360,-0.085
466,0.345,-0.070
467,0.355,-0.080
468,0.315,-0.080
469,0.380,-0.080
470,0.370,-0.075
471,0.360,-0.080
472,0.360,-0.105
473,0.315,-0.125
474,0.295,-0.150
475,0.265,-0.150
476,0.260,-0.145
477,0.220,-0.190
478,0.200,-0.290
479,0.190,-0.290
480,0.160,-0.280
481,0.125,-0.275
482,0.090,-0.240
483,0.080,-0.195
484,0.060,-0.195
485,0.035,-0.225
486,0.070,-0.255
487,0.095,-0.235
488,0.095,-0.225
489,0.135,-0.230
490,0.170,-0.250
491,0.190,-0.245
492,0.180,-0.300
493,0.215,-0.280
494,0.235,-0.240
495,0.215,-0.245
496,0.230,-0.230
497,0.210,-0.250
498,0.240,-0.285
499,0.245,-0.285
500,0.245,-0.260
501,0.215,-0.235
502,0.230,-0.210
503,0.195,-0.265
504,0.220,-0.255
505,0.215,-0.305
506,0.250,-0.320
507,0.240,-0.310
508,0.220,-0.280
509,0.190,-0.260
510,0.205,-0.295
511,0.200,-0.295
512,0.210,-0.320
513,0.235,-0.335
514,0.205,-0.340
515,0.180,-0.305
516,0.205,-0.325
517,0.210,-0.325
518,0.215,-0.330
519,0.230,-0.360
520,0.230,-0.380
521,0.215,-0.355
522,0.225,-0.355
523,0.220,-0.335
524,0.210,-0.355
525,0.190,-0.375
526,0.210,-0.395
527,0.230,-0.395
528,0.225,-0.375
529,0.195,-0.375
530,0.195,-0.380
531,0.180,-0.385
532,0.200,-0.330
533,0.180,-0.330
534,0.230,-0.295
535,0.250,-0.270
536,0.235,-0.250
537,0.230,-0.230
538,0.205,-0.240
539,0.230,-0.285
540,0.230,-0.380
541,0.220,-0.415
542,0.245,-0.445
543,0.255,-0.445
544,0.235,-0.420
545,0.240,-0.450
546,0.220,-0.435
547,0.205,-0.440
548,0.230,-0.445
549,0.210,-0.540
550,0.210,-0.420
551,0.190,0.300
552,0.140,1.025
553,-0.165,0.870
554,-0.605,-0.040
555,-0.825,-0.865
556,-0.605,-1.145
557,0.345,-0.870
558,0.735,-0.580
559,0.510,-0.405
560,0.295,-0.345
561,0.275,-0.330
562,0.260,-0.320
563,0.300,-0.300
564,0.265,-0.290
565,0.280,-0.270
566,0.315,-0.250
567,0.290,-0.270
568,0.305,-0.275
569,0.310,-0.255
570,0.325,-0.230
571,0.305,-0.215
572,0.300,-0.200
573,0.320,-0.200
574,0.325,-0.220
575,0.320,-0.250
576,0.335,-0.220
577,0.320,-0.215
578,0.330,-0.215
579,0.310,-0.210
580,0.310,-0.235
581,0.310,-0.240
582,0.325,-0.265
583,0.285,-0.290
584,0.245,-0.310
585,0.255,-0.315
586,0.255,-0.335
587,0.230,-0.390
588,0.215,-0.395
589,0.185,-0.440
590,0.180,-0.465
591,0.140,-0.430
592,0.135,-0.385
593,0.135,-0.370
594,0.080,-0.360
595,0.100,-0.330
596,0.100,-0.355
597,0.100,-0.340
598,0.095,-0.340
599,0.170,-0.315
600,0.190,-0.310
601,0.180,-0.335
602,0.195,-0.340
603,0.210,-0.330
604,0.235,-0.315
605,0.240,-0.325
606,0.225,-0.305
607,0.240,-0.275
608,0.235,-0.295
609,0.250,-0.305
610,0.250,-0.320
611,0.265,-0.315
612,0.260,-0.310
613,0.235,-0.315
614,0.235,-0.325
615,0.250,-0.320
616,0.270,-0.325
617,0.280,-0.355
618,0.305,-0.345
619,0.275,-0.335
620,0.285,-0.320
621,0.275,-0.350
622,0.260,-0.335
623,0.280,-0.370
624,0.280,-0.370
625,0.285,-0.350
626,0.300,-0.360
627,0.310,-0.365
628,0.275,-0.380
629,0.280,-0.400
630,0.290,-0.415
631,0.315,-0.410
632,0.295,-0.395
633,0.280,-0.410
634,0.275,-0.385
635,0.315,-0.385
636,0.335,-0.380
637,0.315,-0.390
638,0.330,-0.415
639,0.325,-0.395
640,0.300,-0.400
641,0.310,-0.415
642,0.290,-0.395
643,0.290,-0.400
644,0.310,-0.400
645,0.300,-0.400
646,0.335,-0.385
647,0.305,-0.350
648,0.305,-0.310
649,0.325,-0.270
650,0.360,-0.250
651,0.330,-0.260
652,0.345,-0.315
653,0.350,-0.280
654,0.365,-0.300
655,0.305,-0.370
656,0.360,-0.430
657,0.370,-0.445
658,0.335,-0.470
659,0.355,-0.475
660,0.320,-0.485
661,0.320,-0.475
662,0.300,-0.460
663,0.305,-0.455
664,0.295,-0.515
665,0.335,-0.385
666,0.330,0.470
667,0.280,1.315
668,0.000,1.160
669,-0.320,0.030
670,-0.580,-1.030
671,-0.490,-1.145
672,0.220,-0.815
673,0.615,-0.555
674,0.450,-0.480
675,0.340,-0.430
676,0.340,-0.395
677,0.350,-0.400
678,0.335,-0.400
679,0.350,-0.375
680,0.370,-0.400
681,0.380,-0.380
682,0.375,-0.360
683,0.375,-0.320
684,0.400,-0.345
685,0.390,-0.350
686,0.405,-0.340
687,0.410,-0.350
688,0.415,-0.365
689,0.425,-0.320
690,0.425,-0.330
691,0.425,-0.310
692,0.425,-0.315
693,0.425,-0.300
694,0.440,-0.300
695,0.390,-0.315
696,0.420,-0.315
697,0.385,-0.310
698,0.385,-0.335
699,0.355,-0.360
700,0.350,-0.390
701,0.325,-0.435
702,0.325,-0.450
703,0.295,-0.490
704,0.265,-0.495
705,0.245,-0.505
706,0.215,-0.490
707,0.235,-0.505
708,0.230,-0.455
709,0.215,-0.425
710,0.205,-0.415
711,0.200,-0.380
712,0.195,-0.400
713,0.225,-0.425
714,0.260,-0.425
715,0.295,-0.415
716,0.275,-0.395
717,0.250,-0.380
718,0.260,-0.375
719,0.270,-0.370
720,0.285,-0.380
721,0.300,-0.385
722,0.305,-0.385
723,0.295,-0.350
724,0.295,-0.355
725,0.295,-0.350
726,0.295,-0.365
727,0.255,-0.360
728,0.310,-0.390
729,0.315,-0.370
730,0.325,-0.385
731,0.295,-0.355
732,0.345,-0.365
733,0.330,-0.360
734,0.355,-0.360
735,0.335,-0.365
736,0.350,-0.385
737,0.350,-0.395
738,0.370,-0.370
739,0.350,-0.360
740,0.370,-0.400
741,0.345,-0.415
742,0.355,-0.445
743,0.385,-0.445
744,0.385,-0.430
745,0.345,-0.370
746,0.335,-0.385
747,0.330,-0.385
748,0.325,-0.420
749,0.355,-0.415
750,0.375,-0.395
751,0.355,-0.435
752,0.320,-0.435
753,0.335,-0.435
754,0.335,-0.375
755,0.360,-0.395
756,0.330,-0.415
757,0.320,-0.415
758,0.305,-0.415
759,0.355,-0.410
760,0.295,-0.380
761,0.330,-0.350
762,0.325,-0.315
763,0.330,-0.260
764,0.340,-0.275
765,0.325,-0.325
766,0.345,-0.260
767,0.325,-0.280
768,0.285,-0.310
769,0.305,-0.410
770,0.330,-0.455
771,0.360,-0.445
772,0.310,-0.465
773,0.280,-0.455
774,0.280,-0.465
775,0.305,-0.455
776,0.260,-0.435
777,0.265,-0.480
778,0.270,-0.560
779,0.270,-0.090
780,0.240,0.645
781,0.020,0.880
782,-0.385,0.215
783,-0.840,-0.640
784,-0.775,-1.125
785,0.055,-0.990
786,0.870,-0.675
787,0.715,-0.410
788,0.435,-0.335
789,0.320,-0.300
790,0.350,-0.355
791,0.345,-0.320
792,0.325,-0.305
793,0.350,-0.310
794,0.355,-0.315
795,0.350,-0.320
796,0.365,-0.280
797,0.360,-0.280
798,0.350,-0.270
799,0.375,-0.285
800,0.360,-0.270
801,0.355,-0.250
802,0.340,-0.235
803,0.335,-0.270
804,0.355,-0.255
805,0.370,-0.280
806,0.350,-0.250
807,0.340,-0.255
808,0.355,-0.250
809,0.330,-0.285
810,0.290,-0.250
811,0.310,-0.300
812,0.305,-0.345
813,0.240,-0.330
814,0.220,-0.365
815,0.205,-0.395
816,0.160,-0.430
817,0.155,-0.435
818,0.085,-0.495
819,0.065,-0.485
820,0.050,-0.485
821,0.035,-0.440
822,0.005,-0.430
823,0.000,-0.425
824,0.000,-0.430
825,0.010,-0.450
826,0.040,-0.460
827,0.045,-0.455
828,0.085,-0.440
829,0.090,-0.430
830,0.125,-0.470
831,0.140,-0.440
832,0.160,-0.455
833,0.180,-0.440
834,0.185,-0.460
835,0.155,-0.390
836,0.160,-0.400
837,0.150,-0.420
838,0.180,-0.400
839,0.170,-0.450
840,0.200,-0.465
841,0.175,-0.455
842,0.195,-0.430
843,0.200,-0.420
844,0.190,-0.435
845,0.185,-0.465
846,0.205,-0.510
847,0.195,-0.500
848,0.175,-0.480
849,0.185,-0.450
850,0.215,-0.430
851,0.210,-0.450
852,0.215,-0.475
853,0.210,-0.480
854,0.220,-0.470
855,0.180,-0.445
856,0.230,-0.495
857,0.195,-0.480
858,0.200,-0.465
859,0.215,-0.465
860,0.250,-0.500
861,0.240,-0.490
862,0.210,-0.485
863,0.215,-0.475
864,0.220,-0.445
865,0.230,-0.455
866,0.230,-0.475
867,0.255,-0.460
868,0.245,-0.445
869,0.225,-0.440
870,0.230,-0.440
871,0.220,-0.430
872,0.240,-0.420
873,0.245,-0.395
874,0.255,-0.385
875,0.265,-0.335
876,0.255,-0.320
877,0.250,-0.320
878,0.255,-0.320
879,0.295,-0.305
880,0.260,-0.380
881,0.285,-0.475
882,0.285,-0.515
883,0.255,-0.525
884,0.285,-0.505
885,0.225,-0.505
886,0.220,-0.500
887,0.210,-0.530
888,0.225,-0.515
889,0.240,-0.575
890,0.225,-0.550
891,0.215,0.160
892,0.205,1.135
893,-0.005,1.360
894,-0.340,0.380
895,-0.610,-0.880
896,-0.650,-1.280
897,-0.030,-1.010
898,0.535,-0.650
899,0.420,-0.485
900,0.245,-0.470
901,0.225,-0.445
902,0.265,-0.445
903,0.280,-0.425
904,0.285,-0.430
905,0.265,-0.390
906,0.265,-0.400
907,0.255,-0.380
908,0.275,-0.385
909,0.290,-0.395
910,0.275,-0.390
911,0.280,-0.405
912,0.270,-0.365
913,0.285,-0.365
914,0.285,-0.380
915,0.285,-0.360
916,0.300,-0.390
917,0.320,-0.355
918,0.320,-0.390
919,0.275,-0.355
920,0.265,-0.345
921,0.265,-0.355
922,0.270,-0.365
923,0.250,-0.400
924,0.270,-0.420
925,0.225,-0.435
926,0.225,-0.440
927,0.195,-0.470
928,0.180,-0.495
929,0.150,-0.540
930,0.165,-0.560
931,0.120,-0.590
932,0.125,-0.555
933,0.095,-0.515
934,0.055,-0.470
935,0.070,-0.470
936,0.070,-0.510
937,0.080,-0.480
938,0.060,-0.480
939,0.105,-0.460
940,0.085,-0.445
941,0.120,-0.430
942,0.115,-0.455
943,0.130,-0.450
944,0.155,-0.450
945,0.145,-0.430
946,0.170,-0.435
947,0.150,-0.405
948,0.150,-0.425
949,0.150,-0.405
950,0.145,-0.415
951,0.165,-0.425
952,0.180,-0.415
953,0.165,-0.425
954,0.165,-0.415
955,0.160,-0.420
956,0.150,-0.455
957,0.170,-0.450
958,0.180,-0.460
959,0.175,-0.460
960,0.155,-0.465
961,0.165,-0.490
962,0.165,-0.450
963,0.160,-0.470
964,0.160,-0.460
965,0.170,-0.480
966,0.175,-0.490
967,0.210,-0.475
968,0.170,-0.455
969,0.165,-0.480
970,0.185,-0.480
971,0.185,-0.470
972,0.180,-0.490
973,0.185,-0.505
974,0.180,-0.495
975,0.200,-0.475
976,0.170,-0.470
977,0.175,-0.475
978,0.190,-0.480
979,0.200,-0.520
980,0.195,-0.490
981,0.180,-0.490
982,0.185,-0.460
983,0.200,-0.455
984,0.175,-0.435
985,0.185,-0.475
986,0.185,-0.455
987,0.200,-0.435
988,0.210,-0.385
989,0.215,-0.335
990,0.250,-0.320
991,0.240,-0.295
992,0.240,-0.275
993,0.215,-0.295
994,0.265,-0.335
995,0.225,-0.425
996,0.240,-0.480
997,0.235,-0.460
998,0.260,-0.475
999,0.245,-0.455
1000,0.250,-0.455
1001,0.260,-0.465
1002,0.225,-0.490
1003,0.215,-0.470
1004,0.220,-0.535
1005,0.220,-0.210
1006,0.240,0.735
1007,0.140,1.375
1008,-0.165,0.815
1009,-0.480,-0.425
1010,-0.710,-1.160
1011,-0.395,-0.990
1012,0.375,-0.630
1013,0.505,-0.460
1014,0.330,-0.430
1015,0.260,-0.420
1016,0.280,-0.395
1017,0.285,-0.380
1018,0.260,-0.335
1019,0.295,-0.315
1020,0.285,-0.310
1021,0.310,-0.290
1022,0.275,-0.295
1023,0.320,-0.315
1024,0.330,-0.315
1025,0.305,-0.280
1026,0.290,-0.255
1027,0.305,-0.270
1028,0.350,-0.265
1029,0.355,-0.260
1030,0.370,-0.260
1031,0.335,-0.235
1032,0.335,-0.220
1033,0.335,-0.230
1034,0.310,-0.215
1035,0.335,-0.230
1036,0.310,-0.235
1037,0.315,-0.250
1038,0.295,-0.240
1039,0.300,-0.260
1040,0.270,-0.290
1041,0.255,-0.310
1042,0.260,-0.340
1043,0.190,-0.380
1044,0.155,-0.425
1045,0.120,-0.445
1046,0.100,-0.400
1047,0.070,-0.375
1048,0.090,-0.325
1049,0.030,-0.320
1050,0.020,-0.325
1051,0.025,-0.370
1052,0.020,-0.335
1053,0.065,-0.355
1054,0.055,-0.365
1055,0.090,-0.395
1056,0.095,-0.380
1057,0.135,-0.370
1058,0.135,-0.360
1059,0.165,-0.355
1060,0.150,-0.375
1061,0.155,-0.380
1062,0.140,-0.385
1063,0.175,-0.385
1064,0.190,-0.375
1065,0.195,-0.415
1066,0.165,-0.380
1067,0.175,-0.385
1068,0.170,-0.395
1069,0.165,-0.395
1070,0.150,-0.375
1071,0.165,-0.375
1072,0.165,-0.440
1073,0.175,-0.435
1074,0.160,-0.445
1075,0.160,-0.405
1076,0.145,-0.370
1077,0.155,-0.415
1078,0.185,-0.420
1079,0.180,-0.460
1080,0.195,-0.465
1081,0.140,-0.455
1082,0.155,-0.460
1083,0.135,-0.440
1084,0.180,-0.465
1085,0.150,-0.460
1086,0.165,-0.505
1087,0.175,-0.480
1088,0.175,-0.465
1089,0.180,-0.460
1090,0.175,-0.490
1091,0.140,-0.500
1092,0.145,-0.495
1093,0.170,-0.525
1094,0.175,-0.490
1095,0.185,-0.495
1096,0.160,-0.490
1097,0.170,-0.490
1098,0.135,-0.505
1099,0.170,-0.520
1100,0.165,-0.475
1101,0.180,-0.375
1102,0.180,-0.350
1103,0.190,-0.375
1104,0.180,-0.395
1105,0.185,-0.345
1106,0.195,-0.335
1107,0.195,-0.360
1108,0.155,-0.430
1109,0.155,-0.505
1110,0.200,-0.550
1111,0.230,-0.505
1112,0.205,-0.490
1113,0.200,-0.525
1114,0.150,-0.500
1115,0.155,-0.545
1116,0.170,-0.495
1117,0.165,-0.585
1118,0.130,-0.540
1119,0.155,0.065
1120,0.110,0.810
1121,-0.125,0.835
1122,-0.565,0.055
1123,-0.905,-0.760
1124,-0.740,-1.200
1125,0.075,-0.960
1126,0.740,-0.660
1127,0.605,-0.430
1128,0.295,-0.390
1129,0.195,-0.365
1130,0.225,-0.350
1131,0.240,-0.335
1132,0.220,-0.285
1133,0.235,-0.300
1134,0.250,-0.270
1135,0.250,-0.295
1136,0.265,-0.310
1137,0.240,-0.275
1138,0.230,-0.255
1139,0.235,-0.230
1140,0.265,-0.230
1141,0.275,-0.235
1142,0.295,-0.265
1143,0.305,-0.285
1144,0.270,-0.280
1145,0.260,-0.250
1146,0.280,-0.255
1147,0.250,-0.255
1148,0.290,-0.255
1149,0.270,-0.310
1150,0.295,-0.300
1151,0.280,-0.310
1152,0.215,-0.295
1153,0.235,-0.305
1154,0.165,-0.350
1155,0.150,-0.355
1156,0.150,-0.405
1157,0.125,-0.440
1158,0.090,-0.450
1159,0.030,-0.425
1160,0.050,-0.395
1161,0.035,-0.400
1162,0.010,-0.405
1163,0.005,-0.405
1164,0.050,-0.375
1165,0.020,-0.405
1166,0.050,-0.470
1167,0.055,-0.425
1168,0.100,-0.420
1169,0.135,-0.410
1170,0.130,-0.420
1171,0.150,-0.470
1172,0.170,-0.475
1173,0.140,-0.450
1174,0.200,-0.445
1175,0.165,-0.435
1176,0.190,-0.435
1177,0.200,-0.465
1178,0.200,-0.455
1179,0.165,-0.455
1180,0.165,-0.470
1181,0.170,-0.455
1182,0.185,-0.440
1183,0.185,-0.480
1184,0.185,-0.510
1185,0.180,-0.505
1186,0.185,-0.485
1187,0.185,-0.495
1188,0.185,-0.525
1189,0.195,-0.560
1190,0.185,-0.540
1191,0.220,-0.535
1192,0.180,-0.540
1193,0.175,-0.550
1194,0.160,-0.540
1195,0.190,-0.550
1196,0.185,-0.580
1197,0.170,-0.545
1198,0.220,-0.575
1199,0.210,-0.580
1200,0.210,-0.565
1201,0.195,-0.555
1202,0.155,-0.540
1203,0.180,-0.535
1204,0.180,-0.570
1205,0.195,-0.565
1206,0.200,-0.555
1207,0.190,-0.555
1208,0.170,-0.555
1209,0.130,-0.545
1210,0.190,-0.555
1211,0.150,-0.570
1212,0.185,-0.600
1213,0.205,-0.540
1214,0.165,-0.390
1215,0.160,-0.310
1216,0.205,-0.415
1217,0.195,-0.445
1218,0.230,-0.400
1219,0.260,-0.475
1220,0.200,-0.570
1221,0.175,-0.615
1222,0.145,-0.555
1223,0.180,-0.590
1224,0.195,-0.635
1225,0.245,-0.660
1226,0.215,-0.650
1227,0.215,-0.630
1228,0.180,-0.615
1229,0.160,-0.565
1230,0.170,-0.540
1231,0.190,-0.655
1232,0.145,-0.775
1233,0.170,-0.515
1234,0.205,0.440
1235,0.120,1.260
1236,-0.185,0.960
1237,-0.495,-0.270
1238,-0.730,-1.265
1239,-0.595,-1.260
1240,0.175,-0.925
1241,0.405,-0.640
1242,0.220,-0.600
1243,0.125,-0.605
1244,0.150,-0.575
1245,0.195,-0.555
1246,0.205,-0.500
1247,0.195,-0.505
1248,0.220,-0.500
1249,0.210,-0.500
1250,0.200,-0.510
1251,0.185,-0.465
1252,0.195,-0.450
1253,0.200,-0.445
1254,0.240,-0.480
1255,0.230,-0.520
1256,0.245,-0.465
1257,0.245,-0.445
1258,0.240,-0.415
1259,0.215,-0.415
1260,0.225,-0.390
1261,0.220,-0.390
1262,0.240,-0.420
1263,0.235,-0.400
1264,0.210,-0.390
1265,0.205,-0.385
1266,0.210,-0.375
1267,0.175,-0.385
1268,0.140,-0.415
1269,0.145,-0.485
1270,0.125,-0.505
1271,0.115,-0.510
1272,0.135,-0.550
1273,0.085,-0.575
1274,0.065,-0.570
1275,0.055,-0.550
1276,0.070,-0.575
1277,0.055,-0.610
1278,0.015,-0.590
1279,0.010,-0.490
1280,0.015,-0.455
1281,0.035,-0.455
1282,0.030,-0.450
1283,0.070,-0.475
1284,0.095,-0.515
1285,0.060,-0.505
1286,0.060,-0.505
1287,0.105,-0.505
1288,0.095,-0.470
1289,0.115,-0.465
1290,0.115,-0.465
1291,0.085,-0.465
1292,0.095,-0.440
1293,0.070,-0.435
1294,0.065,-0.430
1295,0.065,-0.450
1296,0.040,-0.440
1297,0.070,-0.415
1298,0.125,-0.445
1299,0.075,-0.550
1300,0.050,-0.480
1301,0.035,-0.460
1302,0.125,-0.530
1303,0.105,-0.600
1304,0.100,-0.565
1305,0.085,-0.555
1306,0.070,-0.530
1307,0.070,-0.470
1308,0.060,-0.455
1309,0.060,-0.490
1310,0.090,-0.520
1311,0.075,-0.525
1312,0.105,-0.515
1313,0.085,-0.525
1314,0.055,-0.500
1315,0.070,-0.485
1316,0.065,-0.460
1317,0.050,-0.495
1318,0.055,-0.530
1319,0.070,-0.480
1320,0.045,-0.505
1321,0.055,-0.530
1322,0.050,-0.530
1323,0.055,-0.485
1324,0.065,-0.530
1325,0.085,-0.600
1326,0.055,-0.525
1327,0.030,-0.480
1328,0.035,-0.455
1329,0.085,-0.420
1330,0.115,-0.405
1331,0.105,-0.405
1332,0.100,-0.425
1333,0.070,-0.415
1334,0.080,-0.440
1335,0.055,-0.520
1336,0.075,-0.520
1337,0.090,-0.530
1338,0.115,-0.565
1339,0.075,-0.570
1340,0.075,-0.560
1341,0.050,-0.540
1342,0.040,-0.520
1343,0.065,-0.565
1344,0.025,-0.645
1345,0.040,-0.370
1346,0.075,0.380
1347,-0.110,0.775
1348,-0.490,0.260
1349,-0.940,-0.480
1350,-1.065,-1.035
1351,-0.500,-1.080
1352,0.465,-0.825
1353,0.565,-0.535
1354,0.295,-0.435
1355,0.105,-0.455
1356,0.120,-0.365
1357,0.105,-0.325
1358,0.135,-0.365
1359,0.160,-0.350
1360,0.215,-0.345
1361,0.180,-0.320
1362,0.150,-0.300
1363,0.190,-0.270
1364,0.160,-0.295
1365,0.175,-0.300
1366,0.195,-0.280
1367,0.205,-0.275
1368,0.195,-0.255
1369,0.200,-0.250
1370,0.180,-0.240
1371,0.195,-0.235
1372,0.210,-0.235
1373,0.215,-0.215
1374,0.200,-0.220
1375,0.225,-0.255
1376,0.185,-0.225
1377,0.165,-0.230
1378,0.170,-0.240
1379,0.160,-0.290
1380,0.160,-0.320
1381,0.130,-0.345
1382,0.105,-0.380
1383,0.075,-0.405
1384,0.025,-0.370
1385,0.000,-0.415
1386,-0.020,-0.395
1387,-0.030,-0.420
1388,-0.035,-0.400
1389,-0.085,-0.350
1390,-0.110,-0.360
1391,-0.070,-0.360
1392,-0.040,-0.375
1393,-0.040,-0.385
1394,-0.015,-0.395
1395,0.030,-0.405
1396,0.030,-0.390
1397,0.045,-0.390
1398,0.050,-0.385
1399,0.060,-0.410
1400,0.070,-0.390
1401,0.130,-0.385
1402,0.080,-0.400
1403,0.085,-0.370
1404,0.090,-0.375
1405,0.100,-0.380
1406,0.070,-0.385
1407,0.115,-0.420
1408,0.160,-0.440
1409,0.115,-0.425
1410,0.100,-0.440
1411,0.100,-0.420
1412,0.105,-0.420
1413,0.125,-0.405
1414,0.125,-0.405
1415,0.125,-0.440
1416,0.145,-0.445
1417,0.145,-0.455
1418,0.120,-0.455
1419,0.130,-0.415
1420,0.125,-0.460
1421,0.130,-0.445
1422,0.150,-0.480
1423,0.160,-0.480
1424,0.155,-0.490
1425,0.165,-0.450
1426,0.140,-0.470
1427,0.150,-0.455
1428,0.140,-0.470
1429,0.150,-0.495
1430,0.160,-0.500
1431,0.160,-0.470
1432,0.140,-0.470
1433,0.125,-0.490
1434,0.140,-0.460
1435,0.165,-0.480
1436,0.150,-0.435
1437,0.160,-0.455
1438,0.160,-0.415
1439,0.185,-0.370
1440,0.205,-0.350
1441,0.180,-0.350
1442,0.170,-0.360
1443,0.205,-0.355
1444,0.200,-0.405
1445,0.195,-0.470
1446,0.205,-0.500
1447,0.185,-0.525
1448,0.190,-0.515
1449,0.175,-0.540
1450,0.180,-0.550
1451,0.155,-0.555
1452,0.170,-0.550
1453,0.135,-0.560
1454,0.155,-0.610
1455,0.175,-0.155
1456,0.185,0.835
1457,0.070,1.365
1458,-0.205,0.605
1459,-0.545,-0.650
1460,-0.700,-1.285
1461,-0.295,-1.115
1462,0.410,-0.775
1463,0.445,-0.570
1464,0.270,-0.565
1465,0.210,-0.520
1466,0.245,-0.525
1467,0.260,-0.490
1468,0.255,-0.450
1469,0.285,-0.440
1470,0.270,-0.440
1471,0.260,-0.460
1472,0.290,-0.450
1473,0.280,-0.430
1474,0.265,-0.420
1475,0.300,-0.405
1476,0.295,-0.425
1477,0.285,-0.430
1478,0.325,-0.415
1479,0.320,-0.405
1480,0.325,-0.390
1481,0.305,-0.380
1482,0.310,-0.365
1483,0.310,-0.380
1484,0.305,-0.365
1485,0.330,-0.365
1486,0.325,-0.375
1487,0.325,-0.400
1488,0.295,-0.420
1489,0.285,-0.420
1490,0.265,-0.460
1491,0.275,-0.495
1492,0.270,-0.510
1493,0.240,-0.540
1494,0.255,-0.575
1495,0.210,-0.575
1496,0.185,-0.555
1497,0.190,-0.535
1498,0.195,-0.525
1499,0.170,-0.480
1500,0.165,-0.490
1501,0.165,-0.475
1502,0.185,-0.465
1503,0.165,-0.445
1504,0.200,-0.440
1505,0.210,-0.430
1506,0.270,-0.455
1507,0.260,-0.450
1508,0.260,-0.440
1509,0.265,-0.440
1510,0.270,-0.415
1511,0.270,-0.415
1512,0.255,-0.400
1513,0.275,-0.410
1514,0.310,-0.420
1515,0.330,-0.430
1516,0.315,-0.380
1517,0.295,-0.395
1518,0.300,-0.390
1519,0.295,-0.400
1520,0.310,-0.420
1521,0.300,-0.440
1522,0.315,-0.445
1523,0.290,-0.460
1524,0.300,-0.430
1525,0.295,-0.440
1526,0.295,-0.445
1527,0.310,-0.450
1528,0.290,-0.460
1529,0.295,-0.470
1530,0.275,-0.450
1531,0.285,-0.460
1532,0.235,-0.460
1533,0.260,-0.445
1534,0.265,-0.470
1535,0.310,-0.475
1536,0.290,-0.500
1537,0.290,-0.475
1538,0.300,-0.475
1539,0.295,-0.465
1540,0.290,-0.480
1541,0.295,-0.465
1542,0.270,-0.480
1543,0.290,-0.480
1544,0.305,-0.515
1545,0.285,-0.485
1546,0.295,-0.445
1547,0.270,-0.395
1548,0.285,-0.380
1549,0.310,-0.350
1550,0.335,-0.375
1551,0.330,-0.365
1552,0.325,-0.350
1553,0.290,-0.310
1554,0.335,-0.315
1555,0.285,-0.425
1556,0.310,-0.480
1557,0.295,-0.525
1558,0.310,-0.510
1559,0.315,-0.520
1560,0.265,-0.480
1561,0.280,-0.515
1562,0.260,-0.490
1563,0.255,-0.510
1564,0.255,-0.590
1565,0.270,-0.540
1566,0.265,0.150
1567,0.215,0.890
1568,-0.085,0.880
1569,-0.510,0.060
1570,-0.835,-0.895
1571,-0.745,-1.110
1572,0.125,-0.845
1573,0.695,-0.535
1574,0.520,-0.440
1575,0.305,-0.390
1576,0.280,-0.375
1577,0.295,-0.340
1578,0.295,-0.375
1579,0.325,-0.350
1580,0.315,-0.335
1581,0.335,-0.330
1582,0.375,-0.295
1583,0.330,-0.300
1584,0.335,-0.320
1585,0.350,-0.330
1586,0.325,-0.300
1587,0.350,-0.290
1588,0.360,-0.285
1589,0.355,-0.260
1590,0.365,-0.250
1591,0.350,-0.250
1592,0.400,-0.260
1593,0.360,-0.270
1594,0.375,-0.255
1595,0.345,-0.255
1596,0.335,-0.245
1597,0.340,-0.235
1598,0.345,-0.260
1599,0.310,-0.325
1600,0.330,-0.330
1601,0.275,-0.340
1602,0.250,-0.370
1603,0.230,-0.430
1604,0.185,-0.410
1605,0.155,-0.435
1606,0.140,-0.435
1607,0.100,-0.420
1608,0.040,-0.405
1609,0.080,-0.385
1610,0.040,-0.380
1611,0.055,-0.400
1612,0.045,-0.410
1613,0.080,-0.415
1614,0.100,-0.420
1615,0.105,-0.410
1616,0.150,-0.415
1617,0.155,-0.410
1618,0.165,-0.385
1619,0.215,-0.400
1620,0.220,-0.435
1621,0.225,-0.405
1622,0.235,-0.405
1623,0.165,-0.375
1624,0.200,-0.400
1625,0.170,-0.430
1626,0.185,-0.405
1627,0.200,-0.370
1628,0.230,-0.405
1629,0.195,-0.415
1630,0.185,-0.420
1631,0.205,-0.420
1632,0.200,-0.410
1633,0.220,-0.440
1634,0.230,-0.465
1635,0.210,-0.470
1636,0.170,-0.475
1637,0.215,-0.425
1638,0.210,-0.430
1639,0.155,-0.420
1640,0.200,-0.440
1641,0.235,-0.460
1642,0.230,-0.475
1643,0.210,-0.465
1644,0.205,-0.455
1645,0.215,-0.445
1646,0.215,-0.440
1647,0.225,-0.460
1648,0.235,-0.455
1649,0.230,-0.475
1650,0.210,-0.445
1651,0.240,-0.440
1652,0.225,-0.445
1653,0.225,-0.415
1654,0.215,-0.390
1655,0.240,-0.385
1656,0.285,-0.330
1657,0.290,-0.335
1658,0.245,-0.305
1659,0.270,-0.290
1660,0.255,-0.295
1661,0.265,-0.320
1662,0.230,-0.400
1663,0.240,-0.425
1664,0.300,-0.465
1665,0.285,-0.440
1666,0.260,-0.435
1667,0.260,-0.415
1668,0.240,-0.435
1669,0.265,-0.420
1670,0.265,-0.445
1671,0.235,-0.525
1672,0.235,-0.325
1673,0.225,0.445
1674,0.185,1.140
1675,-0.135,0.830
1676,-0.540,-0.130
1677,-0.770,-0.920
1678,-0.540,-1.160
1679,0.350,-0.850
1680,0.715,-0.530
1681,0.500,-0.390
1682,0.320,-0.315
1683,0.270,-0.310
1684,0.305,-0.300
1685,0.310,-0.280
1686,0.290,-0.280
1687,0.320,-0.260
1688,0.310,-0.255
1689,0.320,-0.245
1690,0.340,-0.245
1691,0.320,-0.275
1692,0.345,-0.260
1693,0.365,-0.240
1694,0.355,-0.220
1695,0.350,-0.215
1696,0.355,-0.190
1697,0.355,-0.220
1698,0.350,-0.215
1699,0.350,-0.220
1700,0.285,-0.205
1701,0.325,-0.195
1702,0.305,-0.205
1703,0.300,-0.195
1704,0.270,-0.255
1705,0.295,-0.260
1706,0.260,-0.285
1707,0.250,-0.285
1708,0.235,-0.315
1709,0.220,-0.340
1710,0.190,-0.355
1711,0.150,-0.325
1712,0.145,-0.330
1713,0.120,-0.270
1714,0.095,-0.235
1715,0.095,-0.235
1716,0.090,-0.200
1717,0.115,-0.180
1718,0.085,-0.190
1719,0.120,-0.170
1720,0.135,-0.185
1721,0.160,-0.155
1722,0.175,-0.150
1723,0.190,-0.140
1724,0.230,-0.160
1725,0.225,-0.170
1726,0.255,-0.150
1727,0.235,-0.155
1728,0.245,-0.135
1729,0.215,-0.135
1730,0.220,-0.140
1731,0.225,-0.155
1732,0.240,-0.175
1733,0.240,-0.185
1734,0.245,-0.165
1735,0.265,-0.170
1736,0.250,-0.180
1737,0.245,-0.185
1738,0.265,-0.180
1739,0.275,-0.200
1740,0.275,-0.200
1741,0.290,-0.205
1742,0.260,-0.185
1743,0.270,-0.185
1744,0.280,-0.180
1745,0.290,-0.225
1746,0.285,-0.210
1747,0.330,-0.220
1748,0.285,-0.210
1749,0.280,-0.210
1750,0.245,-0.225
1751,0.265,-0.215
1752,0.260,-0.210
1753,0.280,-0.215
1754,0.245,-0.210
1755,0.280,-0.225
1756,0.255,-0.200
1757,0.260,-0.225
1758,0.275,-0.215
1759,0.270,-0.205
1760,0.275,-0.220
1761,0.280,-0.220
1762,0.275,-0.215
1763,0.280,-0.175
1764,0.270,-0.145
1765,0.240,-0.130
1766,0.280,-0.120
1767,0.320,-0.100
1768,0.325,-0.070
1769,0.335,-0.050
1770,0.325,-0.060
1771,0.310,-0.050
1772,0.310,-0.100
1773,0.310,-0.185
1774,0.360,-0.255
1775,0.355,-0.255
1776,0.345,-0.245
1777,0.320,-0.245
1778,0.290,-0.230
1779,0.320,-0.215
1780,0.300,-0.240
1781,0.305,-0.275
1782,0.300,-0.235
1783,0.330,0.400
1784,0.325,1.375
1785,0.110,1.585
1786,-0.210,0.560
1787,-0.485,-0.650
1788,-0.550,-1.000
1789,-0.025,-0.710
1790,0.610,-0.370
1791,0.515,-0.250
1792,0.320,-0.210
1793,0.320,-0.185
1794,0.365,-0.220
1795,0.375,-0.190
1796,0.420,-0.165
1797,0.410,-0.170
1798,0.390,-0.145
1799,0.390,-0.135
1800,0.390,-0.140
1801,0.385,-0.125
1802,0.385,-0.160
1803,0.415,-0.155
1804,0.385,-0.130
1805,0.400,-0.110
1806,0.410,-0.115
1807,0.390,-0.105
1808,0.405,-0.105
1809,0.420,-0.115
1810,0.415,-0.100
1811,0.410,-0.090
1812,0.400,-0.100
1813,0.370,-0.085
1814,0.340,-0.110
1815,0.345,-0.120
1816,0.360,-0.155
1817,0.355,-0.185
1818,0.335,-0.185
1819,0.300,-0.205
1820,0.305,-0.235
1821,0.265,-0.280
1822,0.265,-0.260
1823,0.245,-0.290
1824,0.225,-0.245
1825,0.215,-0.225
1826,0.195,-0.195
1827,0.175,-0.175
1828,0.150,-0.175
1829,0.175,-0.185
1830,0.200,-0.195
1831,0.200,-0.200
1832,0.215,-0.200
1833,0.215,-0.190
1834,0.255,-0.185
1835,0.290,-0.185
1836,0.285,-0.200
1837,0.260,-0.220
1838,0.265,-0.175
1839,0.265,-0.180
1840,0.260,-0.210
1841,0.250,-0.200
1842,0.240,-0.185
1843,0.285,-0.170
1844,0.275,-0.205
1845,0.265,-0.235
1846,0.245,-0.225
1847,0.270,-0.215
1848,0.280,-0.255
1849,0.260,-0.250
1850,0.285,-0.235
1851,0.295,-0.245
1852,0.260,-0.265
1853,0.280,-0.245
1854,0.305,-0.285
1855,0.265,-0.275
1856,0.265,-0.320
1857,0.285,-0.320
1858,0.280,-0.330
1859,0.300,-0.320
1860,0.300,-0.330
1861,0.280,-0.280
1862,0.285,-0.305
1863,0.260,-0.280
1864,0.290,-0.275
1865,0.315,-0.290
1866,0.315,-0.285
1867,0.320,-0.290
1868,0.270,-0.290
1869,0.290,-0.320
1870,0.315,-0.280
1871,0.340,-0.290
1872,0.340,-0.305
1873,0.300,-0.290
1874,0.275,-0.285
1875,0.305,-0.240
1876,0.350,-0.200
1877,0.375,-0.175
1878,0.330,-0.195
1879,0.355,-0.200
1880,0.360,-0.210
1881,0.345,-0.250
1882,0.285,-0.320
1883,0.340,-0.355
1884,0.340,-0.365
1885,0.340,-0.360
1886,0.310,-0.375
1887,0.330,-0.385
1888,0.320,-0.390
1889,0.300,-0.350
1890,0.315,-0.395
1891,0.305,-0.465
1892,0.295,-0.120
1893,0.325,0.620
1894,0.180,0.990
1895,-0.265,0.455
1896,-0.710,-0.345
1897,-0.845,-0.975
1898,-0.365,-0.940
1899,0.745,-0.605
1900,0.855,-0.380
1901,0.580,-0.295
1902,0.400,-0.250
1903,0.380,-0.220
1904,0.410,-0.220
1905,0.410,-0.240
1906,0.435,-0.210
1907,0.450,-0.210
1908,0.470,-0.170
1909,0.445,-0.170
1910,0.465,-0.155
1911,0.475,-0.170
1912,0.460,-0.145
1913,0.470,-0.170
1914,0.460,-0.170
1915,0.470,-0.170
1916,0.450,-0.160
1917,0.460,-0.145
1918,0.445,-0.140
1919,0.470,-0.145
1920,0.475,-0.150
1921,0.465,-0.155
1922,0.495,-0.150
1923,0.470,-0.150
1924,0.450,-0.170
1925,0.400,-0.195
1926,0.405,-0.210
1927,0.405,-0.230
1928,0.390,-0.280
1929,0.350,-0.295
1930,0.305,-0.315
1931,0.290,-0.320
1932,0.245,-0.325
1933,0.210,-0.320
1934,0.220,-0.320
1935,0.180,-0.300
1936,0.185,-0.280
1937,0.150,-0.285
1938,0.175,-0.285
1939,0.185,-0.285
1940,0.210,-0.295
1941,0.235,-0.310
1942,0.260,-0.325
1943,0.290,-0.330
1944,0.290,-0.315
1945,0.275,-0.310
1946,0.295,-0.285
1947,0.300,-0.305
1948,0.295,-0.305
1949,0.295,-0.295
1950,0.330,-0.320
1951,0.320,-0.315
1952,0.295,-0.295
1953,0.310,-0.315
1954,0.320,-0.315
1955,0.285,-0.330
1956,0.300,-0.340
1957,0.330,-0.355
1958,0.310,-0.350
1959,0.270,-0.350
1960,0.310,-0.375
1961,0.295,-0.370
1962,0.300,-0.365
1963,0.285,-0.380
1964,0.320,-0.410
1965,0.330,-0.405
1966,0.295,-0.365
1967,0.300,-0.380
1968,0.320,-0.395
1969,0.305,-0.390
1970,0.310,-0.405
1971,0.330,-0.415
1972,0.295,-0.430
1973,0.280,-0.385
1974,0.300,-0.410
1975,0.290,-0.400
1976,0.305,-0.405
1977,0.330,-0.420
1978,0.320,-0.430
1979,0.320,-0.440
1980,0.290,-0.400
1981,0.290,-0.385
1982,0.315,-0.400
1983,0.310,-0.370
1984,0.355,-0.365
1985,0.375,-0.310
1986,0.350,-0.310
1987,0.340,-0.270
1988,0.345,-0.270
1989,0.340,-0.290
1990,0.335,-0.325
1991,0.330,-0.410
1992,0.335,-0.440
1993,0.340,-0.460
1994,0.345,-0.450
1995,0.335,-0.450
1996,0.330,-0.465
1997,0.310,-0.450
1998,0.345,-0.470
1999,0.340,-0.475
2000,0.320,-0.510
2001,0.320,-0.130
2002,0.315,0.810
2003,0.255,1.465
2004,-0.050,0.860
2005,-0.355,-0.420
2006,-0.545,-1.185
2007,-0.290,-1.065
2008,0.500,-0.680
2009,0.625,-0.450
2010,0.445,-0.425
2011,0.360,-0.395
2012,0.380,-0.395
2013,0.405,-0.345
2014,0.415,-0.350
2015,0.420,-0.320
2016,0.410,-0.320
2017,0.420,-0.325
2018,0.440,-0.315
2019,0.440,-0.310
2020,0.455,-0.315
2021,0.475,-0.290
2022,0.470,-0.270
2023,0.460,-0.265
2024,0.465,-0.275
2025,0.445,-0.265
2026,0.475,-0.275
2027,0.455,-0.270
2028,0.475,-0.245
2029,0.465,-0.250
2030,0.495,-0.225
2031,0.475,-0.260
2032,0.485,-0.245
2033,0.505,-0.280
2034,0.465,-0.290
2035,0.455,-0.310
2036,0.435,-0.325
2037,0.410,-0.365
2038,0.410,-0.375
2039,0.395,-0.420
2040,0.385,-0.420
2041,0.360,-0.440
2042,0.330,-0.400
2043,0.315,-0.395
2044,0.315,-0.365
2045,0.300,-0.335
2046,0.270,-0.360
2047,0.285,-0.340
2048,0.280,-0.340
2049,0.310,-0.345
2050,0.305,-0.335
2051,0.345,-0.340
2052,0.370,-0.335
2053,0.385,-0.335
2054,0.375,-0.355
2055,0.360,-0.335
2056,0.385,-0.330
2057,0.405,-0.305
2058,0.385,-0.320
2059,0.355,-0.290
2060,0.395,-0.320
2061,0.355,-0.315
2062,0.385,-0.325
2063,0.360,-0.320
2064,0.330,-0.305
2065,0.345,-0.320
2066,0.360,-0.320
2067,0.360,-0.335
2068,0.370,-0.340
2069,0.365,-0.375
2070,0.355,-0.355
2071,0.335,-0.360
2072,0.365,-0.355
2073,0.375,-0.370
2074,0.365,-0.400
2075,0.360,-0.385
2076,0.385,-0.385
2077,0.365,-0.400
2078,0.370,-0.375
2079,0.355,-0.390
2080,0.380,-0.390
2081,0.375,-0.405
2082,0.375,-0.425
2083,0.385,-0.415
2084,0.350,-0.405
2085,0.330,-0.405
2086,0.350,-0.410
2087,0.375,-0.415
2088,0.335,-0.440
2089,0.335,-0.460
2090,0.345,-0.455
2091,0.325,-0.420
2092,0.330,-0.420
2093,0.315,-0.390
2094,0.295,-0.390
2095,0.335,-0.320
2096,0.380,-0.330
2097,0.390,-0.340
2098,0.355,-0.315
2099,0.340,-0.295
2100,0.320,-0.335
2101,0.335,-0.440
2102,0.345,-0.495
2103,0.355,-0.510
2104,0.365,-0.520
2105,0.340,-0.500
2106,0.335,-0.485
2107,0.300,-0.460
2108,0.315,-0.465
2109,0.305,-0.520
2110,0.360,-0.610
2111,0.310,-0.310
2112,0.365,0.585
2113,0.255,1.210
2114,-0.060,0.700
2115,-0.470,-0.440
2116,-0.680,-1.160
2117,-0.480,-1.050
2118,0.415,-0.715
2119,0.680,-0.525
2120,0.465,-0.460
2121,0.350,-0.430
2122,0.390,-0.405
2123,0.385,-0.415
2124,0.405,-0.410
2125,0.400,-0.405
2126,0.395,-0.365
2127,0.410,-0.360
2128,0.405,-0.350
2129,0.405,-0.360
2130,0.430,-0.350
2131,0.425,-0.370
2132,0.415,-0.325
2133,0.435,-0.335
2134,0.435,-0.305
2135,0.440,-0.305
2136,0.440,-0.285
2137,0.450,-0.305
2138,0.470,-0.300
2139,0.450,-0.305
2140,0.450,-0.280
2141,0.430,-0.255
2142,0.400,-0.295
2143,0.395,-0.325
2144,0.410,-0.345
2145,0.410,-0.340
2146,0.360,-0.365
2147,0.315,-0.385
2148,0.280,-0.415
2149,0.280,-0.465
2150,0.235,-0.480
2151,0.210,-0.485
2152,0.205,-0.465
2153,0.195,-0.455
2154,0.180,-0.455
2155,0.120,-0.405
2156,0.125,-0.385
2157,0.125,-0.400
2158,0.140,-0.445
2159,0.140,-0.440
2160,0.205,-0.410
2161,0.220,-0.420
2162,0.225,-0.415
2163,0.265,-0.425
2164,0.270,-0.425
2165,0.260,-0.450
2166,0.315,-0.445
2167,0.275,-0.440
2168,0.275,-0.415
2169,0.290,-0.395
2170,0.245,-0.405
2171,0.285,-0.440
2172,0.310,-0.425
2173,0.300,-0.445
2174,0.260,-0.435
2175,0.275,-0.440
2176,0.245,-0.445
2177,0.250,-0.455
2178,0.290,-0.460
2179,0.285,-0.480
2180,0.250,-0.500
2181,0.270,-0.490
2182,0.260,-0.465
2183,0.250,-0.480
2184,0.250,-0.480
2185,0.270,-0.495
2186,0.280,-0.490
2187,0.290,-0.490
2188,0.240,-0.490
2189,0.220,-0.455
2190,0.245,-0.445
2191,0.245,-0.475
2192,0.260,-0.505
2193,0.265,-0.500
2194,0.230,-0.500
2195,0.240,-0.480
2196,0.230,-0.505
2197,0.225,-0.485
2198,0.220,-0.495
2199,0.205,-0.485
2200,0.245,-0.505
2201,0.240,-0.495
2202,0.205,-0.455
2203,0.245,-0.420
2204,0.260,-0.385
2205,0.240,-0.380
2206,0.240,-0.395
2207,0.240,-0.420
2208,0.245,-0.420
2209,0.225,-0.465
2210,0.215,-0.525
2211,0.220,-0.535
2212,0.210,-0.555
2213,0.225,-0.565
2214,0.185,-0.580
2215,0.205,-0.595
2216,0.170,-0.595
2217,0.175,-0.560
2218,0.165,-0.610
2219,0.165,-0.630
2220,0.170,-0.045
2221,0.150,0.715
2222,-0.090,0.760
2223,-0.495,-0.020
2224,-0.925,-0.830
2225,-0.840,-1.255
2226,-0.110,-1.080
2227,0.680,-0.745
2228,0.600,-0.555
2229,0.335,-0.480
2230,0.210,-0.450
2231,0.215,-0.425
2232,0.215,-0.420
2233,0.210,-0.405
2234,0.235,-0.415
2235,0.250,-0.360
2236,0.250,-0.370
2237,0.260,-0.370
2238,0.245,-0.355
2239,0.280,-0.340
2240,0.310,-0.355
2241,0.245,-0.335
2242,0.265,-0.320
2243,0.255,-0.350
2244,0.285,-0.325
2245,0.280,-0.305
2246,0.265,-0.315
2247,0.285,-0.315
2248,0.300,-0.315
2249,0.265,-0.330
2250,0.275,-0.365
2251,0.280,-0.360
2252,0.235,-0.375
2253,0.200,-0.345
2254,0.205,-0.395
2255,0.200,-0.435
2256,0.205,-0.490
2257,0.155,-0.500
2258,0.110,-0.550
2259,0.070,-0.530
2260,0.085,-0.525
2261,0.025,-0.500
2262,0.030,-0.500
2263,0.045,-0.480
2264,0.015,-0.460
2265,0.015,-0.425
2266,0.035,-0.445
2267,0.050,-0.440
2268,0.065,-0.445
2269,0.105,-0.460
2270,0.095,-0.460
2271,0.150,-0.475
2272,0.135,-0.445
2273,0.110,-0.430
2274,0.140,-0.425
2275,0.165,-0.430
2276,0.165,-0.435
2277,0.155,-0.440
2278,0.155,-0.450
2279,0.150,-0.460
2280,0.135,-0.445
2281,0.165,-0.450
2282,0.155,-0.420
2283,0.155,-0.425
2284,0.160,-0.460
2285,0.175,-0.440
2286,0.200,-0.470
2287,0.185,-0.460
2288,0.175,-0.445
2289,0.180,-0.460
2290,0.205,-0.490
2291,0.190,-0.480
2292,0.215,-0.470
2293,0.205,-0.480
2294,0.215,-0.470
2295,0.205,-0.470
2296,0.195,-0.480
2297,0.215,-0.470
2298,0.230,-0.495
2299,0.200,-0.480
2300,0.190,-0.475
2301,0.215,-0.470
2302,0.205,-0.465
2303,0.190,-0.470
2304,0.190,-0.470
2305,0.195,-0.475
2306,0.225,-0.485
2307,0.210,-0.485
2308,0.190,-0.475
2309,0.165,-0.490
2310,0.180,-0.470
2311,0.195,-0.460
2312,0.195,-0.450
2313,0.210,-0.450
2314,0.175,-0.405
2315,0.180,-0.375
2316,0.180,-0.330
2317,0.220,-0.325
2318,0.200,-0.320
2319,0.190,-0.340
2320,0.225,-0.320
2321,0.215,-0.365
2322,0.165,-0.435
2323,0.195,-0.470
2324,0.195,-0.490
2325,0.215,-0.505
2326,0.175,-0.500
2327,0.175,-0.505
2328,0.150,-0.475
2329,0.155,-0.450
2330,0.160,-0.490
2331,0.170,-0.520
2332,0.160,0.045
2333,0.165,0.980
2334,0.005,1.330
2335,-0.325,0.485
2336,-0.635,-0.725
2337,-0.775,-1.150
2338,-0.270,-0.875
2339,0.370,-0.530
2340,0.420,-0.435
2341,0.225,-0.400
2342,0.210,-0.360
2343,0.195,-0.340
2344,0.205,-0.305
2345,0.215,-0.330
2346,0.215,-0.340
2347,0.215,-0.315
2348,0.235,-0.310
2349,0.190,-0.300
2350,0.185,-0.270
2351,0.200,-0.255
2352,0.200,-0.270
2353,0.230,-0.260
2354,0.210,-0.270
2355,0.230,-0.255
2356,0.240,-0.225
2357,0.205,-0.205
2358,0.230,-0.200
2359,0.230,-0.210
2360,0.230,-0.205
2361,0.230,-0.230
2362,0.210,-0.230
2363,0.230,-0.225
2364,0.195,-0.235
2365,0.190,-0.245
2366,0.180,-0.285
2367,0.180,-0.320
2368,0.175,-0.355
2369,0.145,-0.370
2370,0.135,-0.370
2371,0.095,-0.385
2372,0.055,-0.375
2373,0.065,-0.325
2374,0.055,-0.340
2375,0.040,-0.320
2376,0.015,-0.320
2377,0.025,-0.295
2378,-0.005,-0.260
2379,0.010,-0.265
2380,0.050,-0.290
2381,0.075,-0.285
2382,0.060,-0.280
2383,0.110,-0.275
2384,0.085,-0.275
2385,0.100,-0.250
2386,0.090,-0.245
2387,0.090,-0.250
2388,0.115,-0.270
2389,0.100,-0.265
2390,0.105,-0.275
2391,0.105,-0.245
2392,0.110,-0.220
2393,0.125,-0.245
2394,0.090,-0.255
2395,0.130,-0.265
2396,0.140,-0.265
2397,0.150,-0.265
2398,0.130,-0.265
2399,0.110,-0.270
2400,0.125,-0.290
2401,0.145,-0.290
2402,0.135,-0.285
2403,0.130,-0.310
2404,0.145,-0.305
2405,0.105,-0.285
2406,0.115,-0.300
2407,0.145,-0.315
2408,0.120,-0.295
2409,0.145,-0.310
2410,0.125,-0.335
2411,0.160,-0.325
2412,0.150,-0.315
2413,0.165,-0.285
2414,0.145,-0.300
2415,0.175,-0.280
2416,0.175,-0.300
2417,0.185,-0.310
2418,0.195,-0.320
2419,0.175,-0.300
2420,0.155,-0.300
2421,0.165,-0.290
2422,0.170,-0.295
2423,0.150,-0.270
2424,0.185,-0.275
2425,0.180,-0.295
2426,0.185,-0.280
2427,0.170,-0.200
2428,0.170,-0.185
2429,0.205,-0.140
2430,0.205,-0.175
2431,0.185,-0.180
2432,0.180,-0.200
2433,0.200,-0.210
2434,0.210,-0.265
2435,0.175,-0.310
2436,0.195,-0.320
2437,0.220,-0.340
2438,0.200,-0.345
2439,0.185,-0.355
2440,0.150,-0.355
2441,0.140,-0.320
2442,0.125,-0.280
2443,0.130,-0.355
2444,0.160,-0.335
2445,0.150,0.180
2446,0.170,0.935
2447,-0.105,1.005
2448,-0.565,0.320
2449,-0.960,-0.630
2450,-0.960,-0.895
2451,-0.190,-0.650
2452,0.590,-0.395
2453,0.490,-0.260
2454,0.250,-0.245
2455,0.205,-0.210
2456,0.210,-0.190
2457,0.230,-0.185
2458,0.210,-0.200
2459,0.235,-0.190
2460,0.240,-0.170
2461,0.255,-0.165
2462,0.220,-0.140
2463,0.240,-0.120
2464,0.240,-0.135
2465,0.250,-0.115
2466,0.255,-0.125
2467,0.255,-0.135
2468,0.255,-0.150
2469,0.275,-0.150
2470,0.270,-0.115
2471,0.250,-0.090
2472,0.290,-0.075
2473,0.285,-0.100
2474,0.240,-0.105
2475,0.255,-0.155
2476,0.255,-0.145
2477,0.235,-0.120
2478,0.230,-0.150
2479,0.205,-0.175
2480,0.170,-0.205
2481,0.150,-0.260
2482,0.115,-0.280
2483,0.080,-0.310
2484,0.060,-0.310
2485,0.010,-0.335
2486,-0.015,-0.300
2487,0.000,-0.285
2488,-0.035,-0.310
2489,-0.075,-0.285
2490,-0.085,-0.280
2491,-0.080,-0.290
2492,-0.085,-0.285
2493,-0.040,-0.290
2494,-0.035,-0.295
2495,0.000,-0.330
2496,0.040,-0.340
2497,0.040,-0.315
2498,0.040,-0.320
2499,0.085,-0.295
2500,0.060,-0.295
2501,0.085,-0.315
2502,0.090,-0.325
2503,0.085,-0.320
2504,0.080,-0.350
2505,0.065,-0.340
2506,0.045,-0.355
2507,0.045,-0.345
2508,0.055,-0.355
2509,0.080,-0.360
2510,0.070,-0.365
2511,0.065,-0.375
2512,0.075,-0.370
2513,0.050,-0.370
2514,0.050,-0.385
2515,0.065,-0.400
2516,0.115,-0.425
2517,0.095,-0.430
2518,0.080,-0.430
2519,0.080,-0.405
2520,0.070,-0.415
2521,0.050,-0.410
2522,0.075,-0.420
2523,0.080,-0.445
2524,0.085,-0.435
2525,0.095,-0.440
2526,0.065,-0.425
2527,0.075,-0.435
2528,0.095,-0.460
2529,0.105,-0.475
2530,0.095,-0.470
2531,0.085,-0.455
2532,0.065,-0.460
2533,0.065,-0.445
2534,0.075,-0.440
2535,0.065,-0.435
2536,0.075,-0.430
2537,0.070,-0.435
2538,0.080,-0.415
2539,0.105,-0.350
2540,0.135,-0.320
2541,0.165,-0.290
2542,0.130,-0.275
2543,0.125,-0.305
2544,0.125,-0.315
2545,0.135,-0.355
2546,0.130,-0.420
2547,0.150,-0.445
2548,0.160,-0.455
2549,0.160,-0.455
2550,0.125,-0.460
2551,0.140,-0.470
2552,0.120,-0.470
2553,0.120,-0.450
2554,0.100,-0.505
2555,0.115,-0.555
2556,0.110,-0.155
2557,0.130,0.650
2558,-0.015,1.060
2559,-0.395,0.400
2560,-0.840,-0.525
2561,-0.935,-1.130
2562,-0.445,-1.045
2563,0.485,-0.770
2564,0.540,-0.515
2565,0.275,-0.430
2566,0.145,-0.410
2567,0.140,-0.370
2568,0.150,-0.370
2569,0.185,-0.355
2570,0.180,-0.350
2571,0.155,-0.335
2572,0.195,-0.350
2573,0.180,-0.350
2574,0.200,-0.325
2575,0.175,-0.315
2576,0.195,-0.320
2577,0.180,-0.310
2578,0.200,-0.290
2579,0.180,-0.310
2580,0.190,-0.315
2581,0.190,-0.305
2582,0.185,-0.300
2583,0.190,-0.285
2584,0.190,-0.315
2585,0.195,-0.315
2586,0.160,-0.325
2587,0.160,-0.355
2588,0.145,-0.350
2589,0.115,-0.360
2590,0.130,-0.390
2591,0.100,-0.420
2592,0.060,-0.460
2593,0.065,-0.460
2594,0.060,-0.505
2595,0.020,-0.515
2596,0.005,-0.505
2597,-0.005,-0.460
2598,-0.050,-0.455
2599,-0.045,-0.435
2600,-0.045,-0.450
2601,-0.045,-0.405
2602,-0.050,-0.430
2603,-0.065,-0.400
2604,0.000,-0.440
2605,-0.010,-0.430
2606,0.005,-0.440
2607,0.045,-0.460
2608,0.035,-0.460
2609,0.000,-0.445
2610,0.005,-0.445
2611,0.005,-0.435
2612,0.025,-0.425
2613,-0.005,-0.435
2614,0.010,-0.475
2615,0.010,-0.475
2616,0.005,-0.460
2617,-0.015,-0.465
2618,-0.005,-0.455
2619,0.000,-0.485
2620,0.010,-0.490
2621,0.000,-0.500
2622,0.015,-0.510
2623,0.000,-0.515
2624,0.000,-0.465
2625,-0.015,-0.490
2626,0.010,-0.520
2627,0.020,-0.540
2628,0.020,-0.525
2629,0.030,-0.530
2630,-0.010,-0.505
2631,0.000,-0.515
2632,0.005,-0.535
2633,0.030,-0.520
2634,0.010,-0.550
2635,0.025,-0.545
2636,0.010,-0.540
2637,0.020,-0.510
2638,0.020,-0.510
2639,0.020,-0.520
2640,0.020,-0.510
2641,0.045,-0.525
2642,0.030,-0.550
2643,0.015,-0.525
2644,0.005,-0.540
2645,0.000,-0.550
2646,0.020,-0.545
2647,0.020,-0.520
2648,0.045,-0.520
2649,0.010,-0.540
2650,0.005,-0.515
2651,-0.005,-0.530
2652,0.010,-0.490
2653,-0.010,-0.455
2654,0.015,-0.420
2655,0.025,-0.375
2656,0.025,-0.405
2657,0.035,-0.410
2658,0.020,-0.380
2659,0.015,-0.390
2660,0.025,-0.425
2661,-0.010,-0.525
2662,0.015,-0.570
2663,0.040,-0.575
2664,0.020,-0.580
2665,0.000,-0.540
2666,0.005,-0.545
2667,-0.010,-0.520
2668,-0.010,-0.530
2669,0.020,-0.625
2670,0.025,-0.530
2671,0.000,0.245
2672,-0.015,1.120
2673,-0.255,1.045
2674,-0.620,-0.015
2675,-0.885,-1.080
2676,-0.870,-1.250
2677,-0.195,-0.915
2678,0.315,-0.595
2679,0.215,-0.515
2680,0.075,-0.485
2681,0.045,-0.490
2682,0.070,-0.470
2683,0.095,-0.435
2684,0.085,-0.435
2685,0.095,-0.425
2686,0.075,-0.415
2687,0.080,-0.415
2688,0.105,-0.415
2689,0.095,-0.395
2690,0.105,-0.415
2691,0.080,-0.410
2692,0.090,-0.390
2693,0.105,-0.400
2694,0.110,-0.395
2695,0.095,-0.370
2696,0.095,-0.360
2697,0.100,-0.365
2698,0.120,-0.375
2699,0.120,-0.370
2700,0.100,-0.370
2701,0.075,-0.355
2702,0.065,-0.370
2703,0.045,-0.395
2704,0.080,-0.400
2705,0.055,-0.425
2706,0.035,-0.450
2707,-0.005,-0.480
2708,-0.010,-0.470
2709,-0.045,-0.520
2710,-0.050,-0.520
2711,-0.075,-0.540
2712,-0.100,-0.520
2713,-0.100,-0.490
2714,-0.145,-0.455
2715,-0.130,-0.395
2716,-0.170,-0.385
2717,-0.170,-0.385
2718,-0.135,-0.415
2719,-0.100,-0.440
2720,-0.115,-0.445
2721,-0.090,-0.415
2722,-0.095,-0.380
2723,-0.080,-0.385
2724,-0.070,-0.380
2725,-0.055,-0.385
2726,-0.060,-0.400
2727,-0.045,-0.415
2728,-0.075,-0.400
2729,-0.085,-0.370
2730,-0.085,-0.400
2731,-0.080,-0.380
2732,-0.070,-0.405
2733,-0.070,-0.395
2734,-0.085,-0.435
2735,-0.055,-0.395
2736,-0.065,-0.410
2737,-0.060,-0.410
2738,-0.085,-0.405
2739,-0.095,-0.420
2740,-0.070,-0.425
2741,-0.045,-0.450
2742,-0.075,-0.435
2743,-0.095,-0.425
2744,-0.100,-0.410
2745,-0.095,-0.415
2746,-0.075,-0.435
2747,-0.090,-0.465
2748,-0.095,-0.460
2749,-0.090,-0.460
2750,-0.090,-0.450
2751,-0.090,-0.425
2752,-0.105,-0.435
2753,-0.065,-0.420
2754,-0.060,-0.445
2755,-0.070,-0.470
2756,-0.065,-0.440
2757,-0.075,-0.445
2758,-0.095,-0.450
2759,-0.100,-0.430
2760,-0.070,-0.425
2761,-0.050,-0.420
2762,-0.085,-0.440
2763,-0.065,-0.450
2764,-0.070,-0.455
2765,-0.100,-0.410
2766,-0.100,-0.440
2767,-0.085,-0.400
2768,-0.070,-0.370
2769,-0.060,-0.375
2770,-0.045,-0.330
2771,-0.005,-0.325
2772,-0.020,-0.335
2773,-0.050,-0.310
2774,-0.040,-0.315
2775,-0.040,-0.355
2776,-0.035,-0.430
2777,-0.045,-0.425
2778,-0.040,-0.455
2779,-0.035,-0.455
2780,-0.020,-0.465
2781,-0.055,-0.475
2782,-0.055,-0.480
2783,-0.055,-0.445
2784,-0.060,-0.475
2785,-0.110,-0.520
2786,-0.090,-0.150
2787,-0.080,0.570
2788,-0.270,0.845
2789,-0.665,0.280
2790,-1.100,-0.485
2791,-1.215,-1.095
2792,-0.620,-0.950
2793,0.360,-0.665
2794,0.405,-0.410
2795,0.140,-0.320
2796,0.000,-0.315
2797,0.000,-0.310
2798,0.015,-0.280
2799,0.035,-0.250
2800,0.040,-0.200
2801,0.010,-0.225
2802,0.045,-0.225
2803,0.050,-0.195
2804,0.065,-0.200
2805,0.065,-0.170
2806,0.030,-0.150
2807,0.055,-0.120
2808,0.065,-0.125
2809,0.070,-0.120
2810,0.120,-0.105
2811,0.130,-0.080
2812,0.110,-0.070
2813,0.080,-0.040
2814,0.045,-0.035
2815,0.065,-0.025
2816,0.070,-0.025
2817,0.065,-0.060
2818,0.055,-0.055
2819,0.060,-0.070
2820,0.015,-0.075
2821,0.000,-0.075
2822,-0.035,-0.105
2823,-0.065,-0.145
2824,-0.100,-0.140
2825,-0.090,-0.180
2826,-0.150,-0.185
2827,-0.210,-0.180
2828,-0.210,-0.150
2829,-0.240,-0.135
2830,-0.280,-0.125
2831,-0.270,-0.150
2832,-0.240,-0.135
2833,-0.220,-0.145
2834,-0.210,-0.130
2835,-0.180,-0.130
2836,-0.180,-0.130
2837,-0.150,-0.140
2838,-0.115,-0.140
2839,-0.120,-0.150
2840,-0.090,-0.150
2841,-0.120,-0.165
2842,-0.115,-0.145
2843,-0.130,-0.125
2844,-0.125,-0.125
2845,-0.110,-0.135
2846,-0.130,-0.145
2847,-0.095,-0.145
2848,-0.110,-0.150
2849,-0.115,-0.155
2850,-0.110,-0.170
2851,-0.115,-0.180
2852,-0.105,-0.180
2853,-0.110,-0.195
2854,-0.065,-0.160
2855,-0.080,-0.170
2856,-0.110,-0.190
2857,-0.085,-0.180
2858,-0.070,-0.195
2859,-0.080,-0.185
2860,-0.075,-0.200
2861,-0.055,-0.200
2862,-0.075,-0.205
2863,-0.105,-0.190
2864,-0.060,-0.190
2865,-0.075,-0.205
2866,-0.050,-0.195
2867,-0.075,-0.205
2868,-0.090,-0.200
2869,-0.110,-0.205
2870,-0.080,-0.180
2871,-0.100,-0.200
2872,-0.120,-0.185
2873,-0.095,-0.210
2874,-0.075,-0.190
2875,-0.095,-0.220
2876,-0.090,-0.200
2877,-0.095,-0.210
2878,-0.115,-0.220
2879,-0.100,-0.215
2880,-0.100,-0.220
2881,-0.095,-0.195
2882,-0.105,-0.160
2883,-0.090,-0.120
2884,-0.035,-0.075
2885,-0.045,-0.075
2886,-0.070,-0.080
2887,-0.040,-0.085
2888,-0.040,-0.105
2889,-0.050,-0.180
2890,-0.045,-0.215
2891,-0.025,-0.230
2892,-0.040,-0.245
2893,-0.040,-0.255
2894,-0.025,-0.250
2895,-0.045,-0.255
2896,-0.050,-0.255
2897,-0.060,-0.255
2898,-0.035,-0.320
2899,-0.060,-0.210
2900,-0.060,0.535
2901,-0.080,1.520
2902,-0.310,1.445
2903,-0.625,0.325
2904,-0.935,-0.710
2905,-0.940,-0.905
2906,-0.245,-0.615
2907,0.260,-0.335
2908,0.155,-0.245
2909,-0.005,-0.190
2910,-0.020,-0.170
2911,-0.010,-0.160
2912,0.005,-0.135
2913,0.005,-0.120
2914,0.000,-0.135
2915,0.005,-0.135
2916,0.025,-0.135
2917,0.045,-0.120
2918,0.025,-0.135
2919,0.025,-0.095
2920,0.025,-0.090
2921,0.030,-0.080
2922,0.085,-0.065
2923,0.065,-0.080
2924,0.070,-0.070
2925,0.080,-0.080
2926,0.055,-0.060
2927,0.045,-0.060
2928,0.080,-0.075
2929,0.095,-0.070
2930,0.100,-0.065
2931,0.075,-0.095
2932,0.070,-0.080
2933,0.070,-0.080
2934,0.065,-0.120
2935,0.035,-0.150
2936,0.030,-0.195
2937,0.040,-0.195
2938,0.000,-0.205
2939,-0.010,-0.185
2940,-0.015,-0.195
2941,-0.020,-0.185
2942,-0.070,-0.170
2943,-0.070,-0.170
2944,-0.040,-0.155
2945,-0.075,-0.140
2946,-0.075,-0.145
2947,-0.075,-0.105
2948,-0.085,-0.100
2949,-0.010,-0.105
2950,0.000,-0.115
2951,0.010,-0.105
2952,0.020,-0.125
2953,0.015,-0.100
2954,0.010,-0.105
2955,0.010,-0.105
2956,0.025,-0.105
2957,0.025,-0.100
2958,0.060,-0.110
2959,0.055,-0.090
2960,0.025,-0.100
2961,0.025,-0.075
2962,0.020,-0.110
2963,0.005,-0.100
2964,0.020,-0.105
2965,0.020,-0.120
2966,0.025,-0.125
2967,0.035,-0.125
2968,0.010,-0.120
2969,0.005,-0.135
2970,0.025,-0.140
2971,0.050,-0.140
2972,0.060,-0.130
2973,0.065,-0.155
2974,0.025,-0.145
2975,0.045,-0.130
2976,0.030,-0.155
2977,0.035,-0.145
2978,0.055,-0.170
2979,0.050,-0.205
2980,0.055,-0.200
2981,0.055,-0.190
2982,0.050,-0.185
2983,0.040,-0.180
2984,0.045,-0.180
2985,0.055,-0.195
2986,0.065,-0.200
2987,0.065,-0.205
2988,0.060,-0.220
2989,0.045,-0.190
2990,0.055,-0.180
2991,0.025,-0.190
2992,0.045,-0.205
2993,0.035,-0.185
2994,0.060,-0.225
2995,0.020,-0.185
2996,0.015,-0.135
2997,0.025,-0.120
2998,0.065,-0.075
2999,0.105,-0.085
3000,0.065,-0.120
3001,0.055,-0.115
3002,0.050,-0.090
3003,0.030,-0.135
3004,0.020,-0.185
3005,0.045,-0.235
3006,0.060,-0.265
3007,0.060,-0.285
3008,0.060,-0.270
3009,-0.010,-0.290
3010,0.025,-0.285
3011,0.030,-0.265
3012,0.030,-0.290
3013,0.040,-0.345
3014,0.050,0.105
3015,0.065,1.055
3016,-0.070,1.540
3017,-0.410,0.785
3018,-0.755,-0.405
3019,-0.900,-0.955
3020,-0.550,-0.765
3021,0.240,-0.390
3022,0.320,-0.280
3023,0.145,-0.245
3024,0.095,-0.195
3025,0.130,-0.180
3026,0.125,-0.195
3027,0.120,-0.170
3028,0.120,-0.180
3029,0.140,-0.160
3030,0.160,-0.140
3031,0.140,-0.140
3032,0.145,-0.130
3033,0.155,-0.125
3034,0.165,-0.135
3035,0.180,-0.120
3036,0.190,-0.120
3037,0.180,-0.130
3038,0.170,-0.100
3039,0.170,-0.085
3040,0.155,-0.095
3041,0.185,-0.100
3042,0.200,-0.100
3043,0.170,-0.085
3044,0.200,-0.075
3045,0.155,-0.075
3046,0.135,-0.080
3047,0.135,-0.085
3048,0.160,-0.130
3049,0.115,-0.170
3050,0.100,-0.195
3051,0.095,-0.235
3052,0.090,-0.195
3053,0.075,-0.230
3054,0.040,-0.215
3055,0.000,-0.220
3056,-0.005,-0.210
3057,-0.010,-0.200
3058,-0.050,-0.200
3059,-0.045,-0.170
3060,-0.040,-0.150
3061,-0.025,-0.150
3062,-0.005,-0.160
3063,0.020,-0.175
3064,0.045,-0.170
3065,0.035,-0.165
3066,0.040,-0.145
3067,0.075,-0.150
3068,0.095,-0.150
3069,0.130,-0.120
3070,0.125,-0.150
3071,0.150,-0.140
3072,0.135,-0.165
3073,0.115,-0.125
3074,0.150,-0.150
3075,0.120,-0.155
3076,0.150,-0.150
3077,0.145,-0.175
3078,0.160,-0.165
3079,0.170,-0.180
3080,0.160,-0.190
3081,0.155,-0.185
3082,0.150,-0.200
3083,0.150,-0.215
3084,0.170,-0.235
3085,0.165,-0.215
3086,0.165,-0.210
3087,0.130,-0.190
3088,0.160,-0.195
3089,0.175,-0.215
3090,0.145,-0.215
3091,0.170,-0.225
3092,0.150,-0.245
3093,0.115,-0.255
3094,0.140,-0.255
3095,0.140,-0.185
3096,0.110,-0.215
3097,0.125,-0.225
3098,0.135,-0.245
3099,0.135,-0.265
3100,0.120,-0.260
3101,0.115,-0.235
3102,0.075,-0.220
3103,0.110,-0.230
3104,0.060,-0.255
3105,0.085,-0.260
3106,0.105,-0.265
3107,0.100,-0.225
3108,0.115,-0.230
3109,0.085,-0.265
3110,0.060,-0.240
3111,0.070,-0.195
3112,0.100,-0.165
3113,0.125,-0.180
3114,0.105,-0.160
3115,0.105,-0.115
3116,0.065,-0.110
3117,0.075,-0.160
3118,0.075,-0.230
3119,0.090,-0.250
3120,0.120,-0.320
3121,0.105,-0.305
3122,0.115,-0.310
3123,0.055,-0.360
3124,0.060,-0.315
3125,0.045,-0.315
3126,0.055,-0.330
3127,0.050,-0.400
3128,0.055,-0.295
3129,0.040,0.320
3130,-0.020,0.965
3131,-0.330,0.750
3132,-0.785,-0.020
3133,-1.170,-0.735
3134,-0.960,-1.040
3135,0.040,-0.730
3136,0.640,-0.440
3137,0.475,-0.315
3138,0.165,-0.230
3139,0.095,-0.230
3140,0.105,-0.240
3141,0.135,-0.230
3142,0.135,-0.230
3143,0.110,-0.210
3144,0.120,-0.170
3145,0.110,-0.185
3146,0.145,-0.170
3147,0.180,-0.175
3148,0.170,-0.165
3149,0.165,-0.175
3150,0.160,-0.165
3151,0.175,-0.165
3152,0.135,-0.175
3153,0.175,-0.140
3154,0.145,-0.135
3155,0.165,-0.130
3156,0.165,-0.140
3157,0.195,-0.125
3158,0.165,-0.105
3159,0.130,-0.145
3160,0.105,-0.140
3161,0.120,-0.160
3162,0.145,-0.200
3163,0.115,-0.195
3164,0.085,-0.205
3165,0.070,-0.245
3166,0.030,-0.270
3167,-0.010,-0.290
3168,-0.010,-0.295
3169,-0.035,-0.300
3170,-0.045,-0.275
3171,-0.065,-0.245
3172,-0.085,-0.200
3173,-0.115,-0.210
3174,-0.110,-0.210
3175,-0.095,-0.205
3176,-0.070,-0.235
3177,-0.045,-0.255
3178,-0.005,-0.215
3179,0.000,-0.220
3180,0.000,-0.230
3181,0.025,-0.230
3182,0.045,-0.225
3183,0.090,-0.240
3184,0.075,-0.210
3185,0.060,-0.225
3186,0.055,-0.190
3187,0.065,-0.220
3188,0.055,-0.230
3189,0.085,-0.225
3190,0.070,-0.245
3191,0.095,-0.240
3192,0.075,-0.225
3193,0.070,-0.220
3194,0.080,-0.230
3195,0.085,-0.240
3196,0.110,-0.255
3197,0.085,-0.230
3198,0.100,-0.245
3199,0.095,-0.215
3200,0.090,-0.240
3201,0.090,-0.240
3202,0.105,-0.225
3203,0.110,-0.240
3204,0.110,-0.270
3205,0.075,-0.235
3206,0.095,-0.245
3207,0.095,-0.240
3208,0.095,-0.250
3209,0.070,-0.235
3210,0.105,-0.255
3211,0.090,-0.245
3212,0.105,-0.215
3213,0.110,-0.240
3214,0.085,-0.235
3215,0.090,-0.250
3216,0.110,-0.240
3217,0.070,-0.250
3218,0.135,-0.230
3219,0.090,-0.235
3220,0.085,-0.210
3221,0.115,-0.230
3222,0.075,-0.230
3223,0.095,-0.230
3224,0.105,-0.205
3225,0.100,-0.180
3226,0.110,-0.145
3227,0.150,-0.100
3228,0.125,-0.100
3229,0.120,-0.075
3230,0.130,-0.075
3231,0.130,-0.080
3232,0.125,-0.145
3233,0.125,-0.220
3234,0.120,-0.195
3235,0.100,-0.210
3236,0.125,-0.225
3237,0.110,-0.210
3238,0.115,-0.225
3239,0.145,-0.235
3240,0.100,-0.205
3241,0.090,-0.230
3242,0.080,-0.230
3243,0.085,0.315
3244,0.115,1.335
3245,-0.040,1.645
3246,-0.380,0.625
3247,-0.695,-0.555
3248,-0.810,-0.890
3249,-0.295,-0.625
3250,0.350,-0.330
3251,0.320,-0.205
3252,0.175,-0.185
3253,0.125,-0.155
3254,0.165,-0.135
3255,0.155,-0.125
3256,0.150,-0.140
3257,0.140,-0.115
3258,0.160,-0.100
3259,0.170,-0.100
3260,0.175,-0.115
3261,0.155,-0.100
3262,0.160,-0.080
3263,0.150,-0.065
3264,0.170,-0.050
3265,0.170,-0.060
3266,0.195,-0.045
3267,0.190,-0.095
3268,0.185,-0.040
3269,0.180,-0.025
3270,0.165,-0.025
3271,0.180,-0.030
3272,0.170,-0.025
3273,0.155,-0.020
3274,0.185,-0.055
3275,0.175,-0.040
3276,0.165,-0.040
3277,0.165,-0.060
3278,0.145,-0.100
3279,0.135,-0.125
3280,0.120,-0.155
3281,0.095,-0.185
3282,0.075,-0.175
3283,0.085,-0.155
3284,0.045,-0.140
3285,0.045,-0.105
3286,0.055,-0.110
3287,0.040,-0.100
3288,0.025,-0.095
3289,0.020,-0.050
3290,0.035,-0.050
3291,0.035,-0.045
3292,0.060,-0.065
3293,0.100,-0.050
3294,0.110,-0.065
3295,0.135,-0.075
3296,0.125,-0.070
3297,0.135,-0.040
3298,0.140,-0.050
3299,0.125,-0.045
3300,0.125,-0.035
3301,0.140,-0.070
3302,0.125,-0.035
3303,0.115,-0.020
3304,0.150,-0.015
3305,0.125,-0.015
3306,0.100,-0.035
3307,0.125,-0.060
3308,0.120,-0.055
3309,0.125,-0.060
3310,0.175,-0.065
3311,0.145,-0.025
3312,0.145,-0.040
3313,0.145,-0.015
3314,0.165,-0.055
3315,0.175,-0.055
3316,0.195,-0.045
3317,0.195,-0.030
3318,0.185,-0.020
3319,0.175,-0.010
3320,0.175,-0.010
3321,0.195,-0.025
3322,0.215,-0.025
3323,0.215,-0.035
3324,0.215,-0.025
3325,0.225,-0.015
3326,0.185,-0.025
3327,0.195,-0.025
3328,0.205,-0.025
3329,0.225,-0.055
3330,0.230,-0.040
3331,0.210,-0.040
3332,0.220,-0.010
3333,0.210,-0.020
3334,0.220,-0.030
3335,0.235,-0.030
3336,0.250,-0.060
3337,0.255,-0.040
3338,0.230,-0.010
3339,0.215,0.040
3340,0.220,0.075
3341,0.240,0.095
3342,0.275,0.095
3343,0.235,0.070
3344,0.280,0.060
3345,0.290,0.055
3346,0.270,0.020
3347,0.250,-0.070
3348,0.270,-0.090
3349,0.300,-0.070
3350,0.340,-0.100
3351,0.260,-0.110
3352,0.300,-0.065
3353,0.245,-0.060
3354,0.260,-0.050
3355,0.265,-0.125
3356,0.270,-0.045
3357,0.295,0.590
3358,0.255,1.400
3359,0.035,1.430
3360,-0.340,0.490
3361,-0.720,-0.420
3362,-0.770,-0.595
3363,-0.015,-0.340
3364,0.665,-0.105
3365,0.580,-0.040
3366,0.365,0.035
3367,0.345,0.040
3368,0.395,0.010
3369,0.380,0.055
3370,0.410,0.045
3371,0.430,0.045
3372,0.440,0.050
3373,0.445,0.065
3374,0.445,0.085
3375,0.445,0.095
3376,0.460,0.095
3377,0.455,0.095
3378,0.490,0.115
3379,0.485,0.110
3380,0.495,0.105
3381,0.500,0.105
3382,0.465,0.120
3383,0.485,0.165
3384,0.505,0.130
3385,0.500,0.140
3386,0.500,0.115
3387,0.450,0.100
3388,0.455,0.080
3389,0.435,0.070
3390,0.410,0.065
3391,0.400,0.015
3392,0.390,0.010
3393,0.385,-0.015
3394,0.315,-0.045
3395,0.295,-0.040
3396,0.275,-0.070
3397,0.235,-0.080
3398,0.190,-0.080
3399,0.180,-0.065
3400,0.190,-0.040
3401,0.170,-0.040
3402,0.125,-0.035
3403,0.120,-0.055
3404,0.115,-0.060
3405,0.185,-0.085
3406,0.190,-0.105
3407,0.235,-0.060
3408,0.235,-0.055
3409,0.225,-0.060
3410,0.235,-0.075
3411,0.275,-0.085
3412,0.265,-0.075
3413,0.265,-0.100
3414,0.260,-0.100
3415,0.265,-0.055
3416,0.265,-0.060
3417,0.265,-0.070
3418,0.275,-0.090
3419,0.270,-0.105
3420,0.260,-0.100
3421,0.255,-0.095
3422,0.260,-0.100
3423,0.250,-0.100
3424,0.265,-0.130
3425,0.275,-0.125
3426,0.260,-0.150
3427,0.260,-0.135
3428,0.275,-0.135
3429,0.250,-0.120
3430,0.245,-0.145
3431,0.250,-0.165
3432,0.245,-0.155
3433,0.270,-0.145
3434,0.250,-0.130
3435,0.265,-0.145
3436,0.250,-0.165
3437,0.230,-0.140
3438,0.240,-0.165
3439,0.260,-0.155
3440,0.230,-0.180
3441,0.240,-0.170
3442,0.230,-0.130
3443,0.225,-0.145
3444,0.190,-0.155
3445,0.225,-0.165
3446,0.225,-0.140
3447,0.245,-0.175
3448,0.210,-0.170
3449,0.195,-0.125
3450,0.195,-0.070
3451,0.215,-0.040
3452,0.260,-0.030
3453,0.280,-0.045
3454,0.270,-0.040
3455,0.270,-0.040
3456,0.275,-0.040
3457,0.240,-0.100
3458,0.220,-0.140
3459,0.235,-0.155
3460,0.260,-0.195
3461,0.240,-0.185
3462,0.240,-0.200
3463,0.195,-0.180
3464,0.190,-0.155
3465,0.200,-0.150
3466,0.210,-0.190
3467,0.200,-0.210
3468,0.195,0.320
3469,0.175,1.135
3470,-0.030,1.265
3471,-0.415,0.435
3472,-0.845,-0.350
3473,-0.830,-0.810
3474,-0.120,-0.640
3475,0.695,-0.355
3476,0.630,-0.115
3477,0.360,-0.050
3478,0.210,0.000
3479,0.215,0.000
3480,0.215,0.035
3481,0.245,0.010
3482,0.255,0.040
3483,0.280,0.070
3484,0.265,0.090
3485,0.250,0.100
3486,0.265,0.095
3487,0.240,0.115
3488,0.275,0.115
3489,0.295,0.130
3490,0.245,0.130
3491,0.270,0.170
3492,0.285,0.165
3493,0.275,0.150
3494,0.255,0.145
3495,0.280,0.165
3496,0.285,0.150
3497,0.275,0.155
3498,0.260,0.160
3499,0.250,0.150
3500,0.220,0.140
3501,0.200,0.125
3502,0.210,0.075
3503,0.195,0.050
3504,0.175,0.025
3505,0.135,0.020
3506,0.090,0.000
3507,0.060,0.000
3508,0.055,0.000
3509,0.030,0.015
3510,0.030,0.030
3511,0.025,0.055
3512,0.005,0.070
3513,0.005,0.055
3514,0.000,0.045
3515,0.005,0.045
3516,0.035,0.060
3517,0.040,0.040
3518,0.060,0.090
3519,0.050,0.110
3520,0.070,0.100
3521,0.065,0.140
3522,0.100,0.135
3523,0.085,0.135
3524,0.090,0.130
3525,0.065,0.120
3526,0.060,0.165
3527,0.060,0.155
3528,0.060,0.170
3529,0.065,0.155
3530,0.120,0.140
3531,0.100,0.130
3532,0.085,0.130
3533,0.095,0.140
3534,0.105,0.130
3535,0.085,0.140
3536,0.115,0.130
3537,0.095,0.125
3538,0.140,0.120
3539,0.115,0.115
3540,0.130,0.145
3541,0.115,0.135
3542,0.130,0.130
3543,0.120,0.120
3544,0.150,0.115
3545,0.160,0.115
3546,0.160,0.130
3547,0.130,0.155
3548,0.120,0.125
3549,0.135,0.135
3550,0.130,0.135
3551,0.155,0.140
3552,0.160,0.125
3553,0.155,0.140
3554,0.145,0.145
3555,0.155,0.145
3556,0.135,0.150
3557,0.125,0.145
3558,0.145,0.145
3559,0.155,0.150
3560,0.145,0.170
3561,0.155,0.210
3562,0.125,0.230
3563,0.130,0.250
3564,0.155,0.295
3565,0.145,0.300
3566,0.175,0.315
3567,0.180,0.330
3568,0.170,0.360
3569,0.155,0.350
3570,0.150,0.340
3571,0.160,0.265
3572,0.185,0.200
3573,0.195,0.180
3574,0.180,0.180
3575,0.170,0.200
3576,0.155,0.220
3577,0.160,0.210
3578,0.180,0.215
3579,0.195,0.195
3580,0.215,0.135
3581,0.190,0.380
3582,0.185,1.335
3583,0.165,2.210
3584,-0.100,1.995
3585,-0.405,0.670
3586,-0.660,-0.285
3587,-0.605,-0.310
3588,0.100,0.025
3589,0.505,0.265
3590,0.325,0.325
3591,0.250,0.340
3592,0.295,0.340
3593,0.335,0.360
3594,0.310,0.375
3595,0.310,0.395
3596,0.325,0.415
3597,0.285,0.400
3598,0.310,0.410
3599,0.315,0.420
3600,0.320,0.380
3601,0.320,0.400
3602,0.315,0.445
3603,0.335,0.430
3604,0.350,0.415
3605,0.340,0.435
3606,0.355,0.410
3607,0.390,0.435
3608,0.395,0.445
3609,0.360,0.465
3610,0.355,0.450
3611,0.355,0.450
3612,0.325,0.460
3613,0.380,0.445
3614,0.365,0.435
3615,0.350,0.420
3616,0.310,0.415
3617,0.280,0.380
3618,0.255,0.350
3619,0.265,0.325
3620,0.250,0.295
3621,0.235,0.275
3622,0.230,0.270
3623,0.175,0.270
3624,0.165,0.305
3625,0.150,0.335
3626,0.130,0.305
3627,0.150,0.320
3628,0.165,0.335
3629,0.170,0.315
3630,0.175,0.335
3631,0.220,0.340
3632,0.190,0.345
3633,0.230,0.355
3634,0.235,0.335
3635,0.255,0.360
3636,0.260,0.370
3637,0.240,0.375
3638,0.240,0.395
3639,0.215,0.400
3640,0.230,0.400
3641,0.245,0.400
3642,0.235,0.390
3643,0.270,0.405
3644,0.255,0.405
3645,0.205,0.390
3646,0.240,0.380
3647,0.245,0.375
3648,0.275,0.345
3649,0.275,0.340
3650,0.285,0.305
3651,0.285,0.310
3652,0.265,0.305
3653,0.265,0.255
3654,0.260,0.235
3655,0.270,0.230
3656,0.265,0.200
3657,0.295,0.180
3658,0.280,0.205
3659,0.275,0.185
3660,0.275,0.190
3661,0.300,0.180
3662,0.320,0.150
3663,0.320,0.125
3664,0.300,0.130
3665,0.310,0.125
3666,0.285,0.135
3667,0.310,0.150
3668,0.295,0.130
3669,0.315,0.100
3670,0.315,0.070
3671,0.300,0.105
3672,0.295,0.125
3673,0.295,0.105
3674,0.300,0.100
3675,0.320,0.100
3676,0.315,0.130
3677,0.315,0.190
3678,0.355,0.195
3679,0.355,0.190
3680,0.340,0.185
3681,0.295,0.185
3682,0.330,0.195
3683,0.355,0.160
3684,0.345,0.075
3685,0.345,0.020
3686,0.315,-0.005
3687,0.360,0.015
3688,0.370,-0.010
3689,0.355,-0.010
3690,0.370,0.000
3691,0.365,0.015
3692,0.330,-0.015
3693,0.350,-0.100
3694,0.315,0.130
3695,0.320,0.885
3696,0.295,1.505
3697,-0.030,1.165
3698,-0.465,0.185
3699,-0.765,-0.475
3700,-0.555,-0.435
3701,0.385,-0.175
3702,0.755,0.000
3703,0.555,0.035
3704,0.425,0.080
3705,0.420,0.075
3706,0.435,0.105
3707,0.475,0.110
3708,0.440,0.110
3709,0.440,0.100
3710,0.460,0.110
3711,0.465,0.075
3712,0.450,0.100
3713,0.505,0.105
3714,0.470,0.145
3715,0.500,0.160
3716,0.475,0.150
3717,0.495,0.130
3718,0.505,0.140
3719,0.505,0.150
3720,0.525,0.150
3721,0.510,0.155
3722,0.505,0.160
3723,0.510,0.140
3724,0.510,0.125
3725,0.505,0.125
3726,0.500,0.095
3727,0.500,0.085
3728,0.450,0.070
3729,0.450,0.025
3730,0.410,0.010
3731,0.425,-0.020
3732,0.370,-0.040
3733,0.350,-0.050
3734,0.330,-0.055
3735,0.300,-0.060
3736,0.255,-0.035
3737,0.250,-0.030
3738,0.205,-0.030
3739,0.220,-0.045
3740,0.200,-0.035
3741,0.205,-0.070
3742,0.175,-0.070
3743,0.245,-0.060
3744,0.265,-0.055
3745,0.285,-0.080
3746,0.315,-0.090
3747,0.310,-0.115
3748,0.375,-0.085
3749,0.345,-0.095
3750,0.350,-0.110
3751,0.335,-0.095
3752,0.355,-0.085
3753,0.355,-0.110
3754,0.360,-0.145
3755,0.345,-0.155
3756,0.365,-0.150
3757,0.330,-0.105
3758,0.355,-0.135
3759,0.305,-0.145
3760,0.340,-0.175
3761,0.350,-0.215
3762,0.365,-0.205
3763,0.355,-0.185
3764,0.325,-0.200
3765,0.315,-0.200
3766,0.310,-0.235
3767,0.310,-0.260
3768,0.325,-0.270
3769,0.335,-0.270
3770,0.300,-0.285
3771,0.300,-0.265
3772,0.305,-0.275
3773,0.305,-0.300
3774,0.325,-0.295
3775,0.320,-0.305
3776,0.335,-0.345
3777,0.315,-0.340
3778,0.285,-0.310
3779,0.315,-0.350
3780,0.300,-0.330
3781,0.310,-0.360
3782,0.330,-0.380
3783,0.315,-0.390
3784,0.310,-0.350
3785,0.315,-0.355
3786,0.285,-0.310
3787,0.335,-0.305
3788,0.320,-0.250
3789,0.360,-0.230
3790,0.355,-0.260
3791,0.365,-0.255
3792,0.355,-0.220
3793,0.335,-0.270
3794,0.300,-0.330
3795,0.340,-0.365
3796,0.370,-0.415
3797,0.385,-0.415
3798,0.355,-0.430
3799,0.335,-0.400
3800,0.330,-0.410
3801,0.305,-0.395
3802,0.295,-0.420
3803,0.315,-0.510
3804,0.320,-0.420
3805,0.325,0.315
3806,0.265,1.095
3807,0.000,0.865
3808,-0.375,-0.070
3809,-0.665,-0.885
3810,-0.520,-1.090
3811,0.305,-0.845
3812,0.800,-0.570
3813,0.595,-0.420
3814,0.370,-0.390
3815,0.340,-0.390
3816,0.375,-0.355
3817,0.405,-0.365
3818,0.400,-0.355
3819,0.400,-0.325
3820,0.440,-0.320
3821,0.385,-0.335
3822,0.395,-0.335
3823,0.405,-0.325
3824,0.415,-0.335
3825,0.430,-0.345
3826,0.415,-0.335
3827,0.405,-0.320
3828,0.405,-0.315
3829,0.395,-0.315
3830,0.420,-0.320
3831,0.425,-0.325
3832,0.445,-0.325
3833,0.430,-0.335
3834,0.420,-0.330
3835,0.395,-0.330
3836,0.385,-0.345
3837,0.390,-0.345
3838,0.390,-0.385
3839,0.405,-0.425
3840,0.400,-0.455
3841,0.340,-0.445
3842,0.330,-0.460
3843,0.325,-0.490
3844,0.325,-0.525
3845,0.300,-0.495
3846,0.295,-0.495
3847,0.255,-0.480
3848,0.240,-0.445
3849,0.225,-0.435
3850,0.250,-0.430
3851,0.250,-0.435
3852,0.270,-0.440
3853,0.285,-0.450
3854,0.315,-0.445
3855,0.275,-0.470
3856,0.310,-0.470
3857,0.330,-0.445
3858,0.315,-0.430
3859,0.345,-0.460
3860,0.340,-0.460
3861,0.305,-0.455
3862,0.300,-0.455
3863,0.295,-0.455
3864,0.280,-0.445
3865,0.305,-0.450
3866,0.315,-0.465
3867,0.335,-0.480
3868,0.320,-0.490
3869,0.295,-0.465
3870,0.290,-0.485
3871,0.315,-0.465
3872,0.285,-0.505
3873,0.320,-0.515
3874,0.335,-0.540
3875,0.335,-0.525
3876,0.315,-0.510
3877,0.305,-0.510
3878,0.305,-0.530
3879,0.290,-0.530
3880,0.320,-0.565
3881,0.320,-0.580
3882,0.315,-0.555
3883,0.315,-0.540
3884,0.315,-0.535
3885,0.300,-0.535
3886,0.305,-0.555
3887,0.310,-0.595
3888,0.340,-0.600
3889,0.290,-0.595
3890,0.290,-0.570
3891,0.280,-0.575
3892,0.290,-0.605
3893,0.275,-0.595
3894,0.310,-0.620
3895,0.325,-0.625
3896,0.305,-0.610
3897,0.295,-0.615
3898,0.275,-0.595
3899,0.275,-0.605
3900,0.265,-0.555
3901,0.250,-0.545
3902,0.290,-0.500
3903,0.330,-0.500
3904,0.280,-0.495
3905,0.285,-0.485
3906,0.275,-0.480
3907,0.290,-0.490
3908,0.255,-0.575
3909,0.285,-0.650
3910,0.280,-0.675
3911,0.280,-0.690
3912,0.265,-0.675
3913,0.260,-0.680
3914,0.250,-0.680
3915,0.260,-0.695
3916,0.285,-0.700
3917,0.275,-0.755
3918,0.260,-0.665
3919,0.250,0.060
3920,0.270,0.980
3921,0.060,1.050
3922,-0.230,-0.060
3923,-0.540,-1.180
3924,-0.620,-1.410
3925,-0.065,-1.070
3926,0.520,-0.785
3927,0.410,-0.695
3928,0.270,-0.650
3929,0.255,-0.650
3930,0.300,-0.640
3931,0.345,-0.630
3932,0.290,-0.615
3933,0.310,-0.615
3934,0.315,-0.605
3935,0.310,-0.610
3936,0.315,-0.600
3937,0.315,-0.640
3938,0.290,-0.630
3939,0.340,-0.620
3940,0.295,-0.600
3941,0.310,-0.595
3942,0.315,-0.585
3943,0.325,-0.610
3944,0.345,-0.610
3945,0.335,-0.605
3946,0.305,-0.610
3947,0.290,-0.585
3948,0.320,-0.600
3949,0.315,-0.600
3950,0.315,-0.605
3951,0.300,-0.615
3952,0.270,-0.650
3953,0.270,-0.665
3954,0.240,-0.700
3955,0.230,-0.685
3956,0.180,-0.725
3957,0.160,-0.745
3958,0.160,-0.775
3959,0.150,-0.770
3960,0.155,-0.720
3961,0.105,-0.710
3962,0.120,-0.695
3963,0.055,-0.695
3964,0.065,-0.660
3965,0.070,-0.675
3966,0.100,-0.680
3967,0.105,-0.690
3968,0.115,-0.670
3969,0.155,-0.670
3970,0.140,-0.650
3971,0.145,-0.675
3972,0.170,-0.695
3973,0.170,-0.675
3974,0.190,-0.660
3975,0.175,-0.660
3976,0.165,-0.655
3977,0.145,-0.650
3978,0.135,-0.665
3979,0.145,-0.640
3980,0.160,-0.650
3981,0.155,-0.660
3982,0.155,-0.660
3983,0.120,-0.665
3984,0.145,-0.690
3985,0.140,-0.700
3986,0.185,-0.690
3987,0.165,-0.735
3988,0.155,-0.720
3989,0.170,-0.690
3990,0.130,-0.705
3991,0.130,-0.730
3992,0.115,-0.720
3993,0.130,-0.760
3994,0.135,-0.740
3995,0.125,-0.760
3996,0.145,-0.750
3997,0.120,-0.735
3998,0.145,-0.750
3999,0.125,-0.750
4000,0.130,-0.755
4001,0.105,-0.770
4002,0.120,-0.745
4003,0.100,-0.760
4004,0.125,-0.750
4005,0.095,-0.755
4006,0.115,-0.765
4007,0.130,-0.780
4008,0.130,-0.780
4009,0.115,-0.770
4010,0.105,-0.775
4011,0.070,-0.735
4012,0.090,-0.765
4013,0.065,-0.740
4014,0.065,-0.730
4015,0.100,-0.720
4016,0.115,-0.685
4017,0.115,-0.670
4018,0.065,-0.665
4019,0.085,-0.650
4020,0.085,-0.655
4021,0.095,-0.720
4022,0.095,-0.800
4023,0.070,-0.850
4024,0.070,-0.825
4025,0.085,-0.805
4026,0.050,-0.830
4027,0.020,-0.835
4028,0.045,-0.850
4029,0.020,-0.845
4030,0.000,-0.905
4031,0.010,-0.875
4032,-0.025,-0.265
4033,-0.035,0.440
4034,-0.275,0.320
4035,-0.710,-0.430
4036,-1.135,-1.210
4037,-1.065,-1.540
4038,-0.185,-1.285
4039,0.505,-0.980
4040,0.375,-0.820
4041,0.110,-0.750
4042,0.035,-0.740
4043,0.025,-0.770
4044,0.040,-0.725
4045,0.065,-0.705
4046,0.075,-0.700
4047,0.060,-0.700
4048,0.040,-0.705
4049,0.055,-0.705
4050,0.070,-0.690
4051,0.090,-0.675
4052,0.100,-0.675
4053,0.060,-0.665
4054,0.055,-0.645
4055,0.035,-0.660
4056,0.070,-0.685
4057,0.095,-0.660
4058,0.105,-0.640
4059,0.080,-0.640
4060,0.085,-0.625
4061,0.040,-0.650
4062,0.035,-0.650
4063,0.035,-0.660
4064,0.035,-0.690
4065,0.030,-0.715
4066,0.000,-0.735
4067,-0.010,-0.745
4068,-0.040,-0.760
4069,-0.070,-0.790
4070,-0.085,-0.805
4071,-0.100,-0.845
4072,-0.110,-0.825
4073,-0.145,-0.830
4074,-0.220,-0.805
4075,-0.200,-0.775
4076,-0.215,-0.765
4077,-0.230,-0.760
4078,-0.215,-0.805
4079,-0.220,-0.800
4080,-0.190,-0.815
4081,-0.190,-0.815
4082,-0.160,-0.810
4083,-0.125,-0.780
4084,-0.125,-0.795
4085,-0.090,-0.810
4086,-0.060,-0.790
4087,-0.090,-0.805
4088,-0.085,-0.790
4089,-0.080,-0.790
4090,-0.095,-0.765
4091,-0.080,-0.765
4092,-0.060,-0.775
4093,-0.080,-0.795
4094,-0.085,-0.800
4095,-0.105,-0.785
4096,-0.120,-0.780
4097,-0.100,-0.760
4098,-0.090,-0.795
4099,-0.095,-0.810
4100,-0.080,-0.795
4101,-0.080,-0.795
4102,-0.110,-0.795
4103,-0.105,-0.805
4104,-0.110,-0.785
4105,-0.105,-0.830
4106,-0.100,-0.820
4107,-0.090,-0.820
4108,-0.095,-0.815
4109,-0.110,-0.780
4110,-0.115,-0.790
4111,-0.110,-0.795
4112,-0.105,-0.800
4113,-0.090,-0.835
4114,-0.110,-0.810
4115,-0.105,-0.795
4116,-0.110,-0.770
4117,-0.135,-0.780
4118,-0.160,-0.785
4119,-0.140,-0.815
4120,-0.145,-0.810
4121,-0.150,-0.800
4122,-0.150,-0.805
4123,-0.145,-0.775
4124,-0.175,-0.775
4125,-0.180,-0.780
4126,-0.160,-0.760
4127,-0.180,-0.725
4128,-0.155,-0.680
4129,-0.120,-0.625
4130,-0.150,-0.625
4131,-0.170,-0.635
4132,-0.175,-0.635
4133,-0.150,-0.615
4134,-0.180,-0.675
4135,-0.175,-0.730
4136,-0.195,-0.750
4137,-0.185,-0.740
4138,-0.160,-0.750
4139,-0.175,-0.725
4140,-0.200,-0.750
4141,-0.220,-0.770
4142,-0.200,-0.760
4143,-0.255,-0.790
4144,-0.250,-0.730
4145,-0.245,-0.070
4146,-0.220,0.865
4147,-0.410,0.965
4148,-0.745,-0.095
4149,-1.060,-1.160
4150,-1.175,-1.435
4151,-0.625,-1.135
4152,-0.015,-0.845
4153,-0.045,-0.730
4154,-0.230,-0.700
4155,-0.245,-0.690
4156,-0.230,-0.670
4157,-0.230,-0.650
4158,-0.210,-0.635
4159,-0.250,-0.625
4160,-0.220,-0.605
4161,-0.230,-0.645
4162,-0.220,-0.605
4163,-0.225,-0.600
4164,-0.265,-0.590
4165,-0.245,-0.550
4166,-0.250,-0.570
4167,-0.235,-0.565
4168,-0.220,-0.580
4169,-0.220,-0.570
4170,-0.220,-0.560
4171,-0.255,-0.535
4172,-0.250,-0.535
4173,-0.255,-0.515
4174,-0.215,-0.525
4175,-0.235,-0.530
4176,-0.230,-0.520
4177,-0.250,-0.545
4178,-0.280,-0.585
4179,-0.290,-0.580
4180,-0.280,-0.610
4181,-0.345,-0.635
4182,-0.330,-0.685
4183,-0.310,-0.680
4184,-0.365,-0.705
4185,-0.395,-0.675
4186,-0.420,-0.650
4187,-0.435,-0.630
4188,-0.440,-0.620
4189,-0.435,-0.600
4190,-0.455,-0.600
4191,-0.455,-0.600
4192,-0.445,-0.595
4193,-0.425,-0.595
4194,-0.425,-0.555
4195,-0.420,-0.575
4196,-0.385,-0.585
4197,-0.365,-0.590
4198,-0.380,-0.545
4199,-0.370,-0.555
4200,-0.370,-0.565
4201,-0.385,-0.545
4202,-0.365,-0.515
4203,-0.395,-0.540
4204,-0.365,-0.520
4205,-0.385,-0.500
4206,-0.380,-0.495
4207,-0.390,-0.510
4208,-0.415,-0.520
4209,-0.365,-0.520
4210,-0.380,-0.535
4211,-0.385,-0.555
4212,-0.390,-0.535
4213,-0.395,-0.500
4214,-0.390,-0.530
4215,-0.380,-0.515
4216,-0.375,-0.505
4217,-0.380,-0.510
4218,-0.345,-0.490
4219,-0.355,-0.500
4220,-0.365,-0.500
4221,-0.395,-0.470
4222,-0.360,-0.480
4223,-0.355,-0.460
4224,-0.365,-0.485
4225,-0.320,-0.465
4226,-0.340,-0.470
4227,-0.345,-0.480
4228,-0.345,-0.440
4229,-0.360,-0.445
4230,-0.335,-0.455
4231,-0.325,-0.445
4232,-0.320,-0.435
4233,-0.320,-0.435
4234,-0.320,-0.430
4235,-0.355,-0.435
4236,-0.330,-0.425
4237,-0.325,-0.455
4238,-0.340,-0.415
4239,-0.335,-0.430
4240,-0.345,-0.380
4241,-0.335,-0.320
4242,-0.335,-0.300
4243,-0.310,-0.285
4244,-0.315,-0.280
4245,-0.300,-0.310
4246,-0.320,-0.290
4247,-0.310,-0.310
4248,-0.345,-0.380
4249,-0.335,-0.455
4250,-0.305,-0.445
4251,-0.285,-0.475
4252,-0.305,-0.475
4253,-0.310,-0.460
4254,-0.320,-0.455
4255,-0.345,-0.440
4256,-0.315,-0.455
4257,-0.325,-0.510
4258,-0.280,-0.430
4259,-0.310,0.260
4260,-0.300,1.045
4261,-0.530,0.990
4262,-0.945,0.000
4263,-1.295,-0.895
4264,-1.365,-1.010
4265,-0.640,-0.715
4266,0.065,-0.465
4267,-0.060,-0.435
4268,-0.255,-0.380
4269,-0.240,-0.335
4270,-0.250,-0.315
4271,-0.250,-0.320
4272,-0.210,-0.300
4273,-0.225,-0.295
4274,-0.225,-0.275
4275,-0.210,-0.250
4276,-0.245,-0.235
4277,-0.240,-0.180
4278,-0.195,-0.215
4279,-0.175,-0.240
4280,-0.170,-0.230
4281,-0.170,-0.240
4282,-0.165,-0.210
4283,-0.175,-0.175
4284,-0.180,-0.165
4285,-0.180,-0.185
4286,-0.170,-0.160
4287,-0.105,-0.200
4288,-0.160,-0.170
4289,-0.160,-0.165
4290,-0.185,-0.180
4291,-0.205,-0.205
4292,-0.220,-0.245
4293,-0.200,-0.290
4294,-0.215,-0.280
4295,-0.235,-0.295
4296,-0.280,-0.295
4297,-0.310,-0.355
4298,-0.315,-0.360
4299,-0.335,-0.385
4300,-0.365,-0.380
4301,-0.410,-0.340
4302,-0.425,-0.315
4303,-0.440,-0.290
4304,-0.465,-0.305
4305,-0.430,-0.320
4306,-0.415,-0.340
4307,-0.390,-0.335
4308,-0.335,-0.330
4309,-0.355,-0.340
4310,-0.330,-0.325
4311,-0.335,-0.325
4312,-0.290,-0.330
4313,-0.285,-0.345
4314,-0.255,-0.330
4315,-0.255,-0.305
4316,-0.270,-0.300
4317,-0.295,-0.295
4318,-0.305,-0.325
4319,-0.260,-0.340
4320,-0.265,-0.345
4321,-0.280,-0.340
4322,-0.240,-0.350
4323,-0.275,-0.335
4324,-0.270,-0.340
4325,-0.245,-0.360
4326,-0.275,-0.355
4327,-0.275,-0.365
4328,-0.245,-0.415
4329,-0.240,-0.415
4330,-0.240,-0.385
4331,-0.250,-0.415
4332,-0.245,-0.370
4333,-0.265,-0.390
4334,-0.215,-0.410
4335,-0.220,-0.450
4336,-0.230,-0.440
4337,-0.255,-0.430
4338,-0.245,-0.400
4339,-0.210,-0.410
4340,-0.230,-0.430
4341,-0.240,-0.445
4342,-0.200,-0.455
4343,-0.205,-0.455
4344,-0.205,-0.430
4345,-0.200,-0.420
4346,-0.195,-0.460
4347,-0.195,-0.430
4348,-0.205,-0.450
4349,-0.185,-0.445
4350,-0.200,-0.460
4351,-0.185,-0.445
4352,-0.200,-0.395
4353,-0.195,-0.365
4354,-0.165,-0.320
4355,-0.150,-0.355
4356,-0.145,-0.370
4357,-0.165,-0.355
4358,-0.145,-0.300
4359,-0.165,-0.360
4360,-0.165,-0.435
4361,-0.135,-0.450
4362,-0.130,-0.500
4363,-0.090,-0.500
4364,-0.115,-0.515
4365,-0.125,-0.470
4366,-0.160,-0.460
4367,-0.165,-0.465
4368,-0.140,-0.495
4369,-0.155,-0.570
4370,-0.140,-0.295
4371,-0.110,0.490
4372,-0.215,1.020
4373,-0.565,0.410
4374,-1.035,-0.410
4375,-1.270,-1.040
4376,-0.875,-1.050
4377,0.085,-0.775
4378,0.390,-0.520
4379,0.150,-0.405
4380,-0.050,-0.360
4381,-0.105,-0.345
4382,-0.060,-0.330
4383,-0.020,-0.325
4384,-0.020,-0.315
4385,-0.005,-0.315
4386,-0.025,-0.280
4387,-0.010,-0.280
4388,-0.040,-0.250
4389,-0.015,-0.245
4390,0.000,-0.260
4391,0.025,-0.260
4392,0.015,-0.225
4393,0.015,-0.220
4394,0.010,-0.200
4395,0.010,-0.215
4396,0.000,-0.220
4397,0.010,-0.245
4398,0.035,-0.240
4399,0.020,-0.225
4400,0.015,-0.245
4401,0.000,-0.240
4402,0.010,-0.265
4403,-0.015,-0.290
4404,-0.015,-0.320
4405,-0.025,-0.365
4406,-0.050,-0.375
4407,-0.095,-0.395
4408,-0.100,-0.395
4409,-0.125,-0.415
4410,-0.125,-0.420
4411,-0.150,-0.420
4412,-0.170,-0.435
4413,-0.185,-0.425
4414,-0.225,-0.370
4415,-0.220,-0.400
4416,-0.230,-0.380
4417,-0.185,-0.395
4418,-0.155,-0.415
4419,-0.160,-0.415
4420,-0.130,-0.410
4421,-0.145,-0.420
4422,-0.135,-0.415
4423,-0.135,-0.415
4424,-0.120,-0.430
4425,-0.085,-0.445
4426,-0.100,-0.450
4427,-0.110,-0.435
4428,-0.115,-0.440
4429,-0.110,-0.425
4430,-0.115,-0.435
4431,-0.105,-0.465
4432,-0.100,-0.485
4433,-0.090,-0.485
4434,-0.090,-0.485
4435,-0.080,-0.455
4436,-0.090,-0.480
4437,-0.060,-0.495
4438,-0.090,-0.505
4439,-0.070,-0.515
4440,-0.060,-0.490
4441,-0.040,-0.515
4442,-0.050,-0.510
4443,-0.050,-0.520
4444,-0.050,-0.520
4445,-0.045,-0.515
4446,-0.035,-0.545
4447,-0.020,-0.550
4448,-0.050,-0.550
4449,-0.060,-0.540
4450,-0.040,-0.550
4451,-0.040,-0.520
4452,-0.025,-0.545
4453,-0.025,-0.565
4454,-0.025,-0.555
4455,-0.030,-0.545
4456,-0.035,-0.530
4457,-0.045,-0.550
4458,-0.065,-0.550
4459,-0.015,-0.560
4460,0.000,-0.595
4461,0.000,-0.590
4462,-0.010,-0.575
4463,-0.040,-0.565
4464,-0.040,-0.570
4465,-0.025,-0.550
4466,-0.005,-0.530
4467,0.005,-0.520
4468,-0.010,-0.480
4469,0.020,-0.455
4470,0.000,-0.465
4471,0.000,-0.460
4472,0.000,-0.435
4473,0.000,-0.425
4474,0.005,-0.515
4475,0.015,-0.595
4476,0.000,-0.610
4477,0.010,-0.605
4478,0.000,-0.600
4479,0.005,-0.615
4480,-0.030,-0.615
4481,0.005,-0.620
4482,-0.005,-0.640
4483,0.015,-0.665
4484,-0.015,-0.605
4485,-0.025,0.060
4486,-0.020,0.990
4487,-0.150,1.150
4488,-0.485,0.130
4489,-0.770,-0.965
4490,-0.885,-1.275
4491,-0.475,-0.960
4492,0.180,-0.700
4493,0.240,-0.590
4494,0.075,-0.575
4495,0.030,-0.550
4496,0.100,-0.545
4497,0.040,-0.525
4498,0.040,-0.525
4499,0.060,-0.500
4500,0.070,-0.495
4501,0.090,-0.485
4502,0.095,-0.485
4503,0.090,-0.475
4504,0.075,-0.475
4505,0.110,-0.495
4506,0.105,-0.465
4507,0.090,-0.475
4508,0.095,-0.455
4509,0.115,-0.465
4510,0.125,-0.465
4511,0.120,-0.475
4512,0.100,-0.445
4513,0.110,-0.450
4514,0.080,-0.430
4515,0.100,-0.435
4516,0.100,-0.460
4517,0.110,-0.485
4518,0.055,-0.475
4519,0.055,-0.480
4520,0.050,-0.525
4521,0.005,-0.525
4522,0.030,-0.595
4523,0.010,-0.600
4524,0.000,-0.610
4525,-0.025,-0.615
4526,-0.040,-0.590
4527,-0.060,-0.565
4528,-0.070,-0.535
4529,-0.105,-0.540
4530,-0.055,-0.555
4531,-0.065,-0.550
4532,-0.050,-0.540
4533,-0.060,-0.520
4534,-0.055,-0.545
4535,-0.025,-0.540
4536,-0.020,-0.565
4537,-0.015,-0.560
4538,0.000,-0.555
4539,-0.015,-0.550
4540,-0.025,-0.530
4541,-0.005,-0.525
4542,-0.020,-0.520
4543,-0.010,-0.530
4544,-0.005,-0.535
4545,-0.005,-0.550
4546,-0.035,-0.535
4547,-0.010,-0.545
4548,-0.050,-0.540
4549,-0.045,-0.550
4550,-0.055,-0.585
4551,-0.035,-0.610
4552,-0.005,-0.610
4553,-0.030,-0.620
4554,-0.040,-0.615
4555,-0.020,-0.605
4556,-0.040,-0.620
4557,0.000,-0.615
4558,-0.015,-0.635
4559,-0.015,-0.620
4560,0.000,-0.650
4561,-0.035,-0.650
4562,-0.045,-0.655
4563,-0.025,-0.640
4564,-0.030,-0.660
4565,-0.030,-0.665
4566,-0.040,-0.665
4567,-0.030,-0.660
4568,-0.050,-0.670
4569,-0.030,-0.655
4570,-0.010,-0.660
4571,-0.020,-0.675
4572,-0.020,-0.700
4573,-0.005,-0.695
4574,0.000,-0.675
4575,-0.025,-0.680
4576,-0.030,-0.670
4577,-0.030,-0.675
4578,-0.025,-0.695
4579,-0.025,-0.695
4580,-0.010,-0.690
4581,-0.005,-0.675
4582,-0.050,-0.620
4583,-0.050,-0.590
4584,0.000,-0.570
4585,0.010,-0.550
4586,0.000,-0.570
4587,0.000,-0.600
4588,0.020,-0.610
4589,-0.030,-0.630
4590,-0.030,-0.700
4591,-0.025,-0.695
4592,0.005,-0.715
4593,0.005,-0.740
4594,0.000,-0.770
4595,-0.005,-0.735
4596,-0.020,-0.710
4597,-0.025,-0.725
4598,-0.045,-0.800
4599,-0.020,-0.745
4600,0.000,-0.130
4601,-0.025,0.510
4602,-0.295,0.485
4603,-0.745,-0.220
4604,-1.190,-1.055
4605,-1.185,-1.295
4606,-0.395,-1.010
4607,0.425,-0.775
4608,0.355,-0.720
4609,0.125,-0.665
4610,0.005,-0.605
4611,0.010,-0.595
4612,0.055,-0.585
4613,0.055,-0.585
4614,0.045,-0.625
4615,0.065,-0.610
4616,0.085,-0.585
4617,0.060,-0.560
4618,0.060,-0.540
4619,0.045,-0.530
4620,0.045,-0.540
4621,0.090,-0.550
4622,0.115,-0.560
4623,0.110,-0.555
4624,0.105,-0.550
4625,0.070,-0.500
4626,0.080,-0.500
4627,0.125,-0.495
4628,0.095,-0.525
4629,0.130,-0.555
4630,0.110,-0.535
4631,0.075,-0.515
4632,0.050,-0.525
4633,0.040,-0.530
4634,0.045,-0.575
4635,0.010,-0.640
4636,0.000,-0.680
4637,-0.030,-0.675
4638,-0.060,-0.690
4639,-0.125,-0.700
4640,-0.135,-0.715
4641,-0.150,-0.715
4642,-0.175,-0.700
4643,-0.215,-0.705
4644,-0.230,-0.685
4645,-0.220,-0.655
4646,-0.240,-0.665
4647,-0.225,-0.660
4648,-0.215,-0.680
4649,-0.195,-0.710
4650,-0.175,-0.700
4651,-0.140,-0.690
4652,-0.105,-0.695
4653,-0.115,-0.700
4654,-0.145,-0.700
4655,-0.120,-0.680
4656,-0.105,-0.705
4657,-0.120,-0.690
4658,-0.125,-0.715
4659,-0.135,-0.710
4660,-0.145,-0.715
4661,-0.175,-0.725
4662,-0.135,-0.725
4663,-0.155,-0.735
4664,-0.140,-0.755
4665,-0.135,-0.780
4666,-0.185,-0.765
4667,-0.185,-0.775
4668,-0.195,-0.790
4669,-0.190,-0.795
4670,-0.200,-0.790
4671,-0.190,-0.815
4672,-0.230,-0.805
4673,-0.225,-0.810
4674,-0.235,-0.800
4675,-0.240,-0.800
4676,-0.240,-0.840
4677,-0.265,-0.825
4678,-0.260,-0.840
4679,-0.245,-0.840
4680,-0.260,-0.840
4681,-0.265,-0.830
4682,-0.290,-0.835
4683,-0.280,-0.830
4684,-0.290,-0.850
4685,-0.290,-0.845
4686,-0.300,-0.860
4687,-0.330,-0.835
4688,-0.315,-0.840
4689,-0.320,-0.830
4690,-0.330,-0.830
4691,-0.315,-0.815
4692,-0.325,-0.830
4693,-0.315,-0.780
4694,-0.345,-0.775
4695,-0.345,-0.710
4696,-0.330,-0.725
4697,-0.325,-0.690
4698,-0.340,-0.710
4699,-0.310,-0.710
4700,-0.315,-0.735
4701,-0.365,-0.800
4702,-0.380,-0.815
4703,-0.370,-0.850
4704,-0.345,-0.865
4705,-0.355,-0.865
4706,-0.365,-0.885
4707,-0.395,-0.865
4708,-0.400,-0.855
4709,-0.410,-0.830
4710,-0.400,-0.910
4711,-0.400,-0.815
4712,-0.395,-0.100
4713,-0.435,0.675
4714,-0.695,0.485
4715,-1.075,-0.470
4716,-1.465,-1.330
4717,-1.515,-1.570
4718,-0.650,-1.210
4719,-0.030,-0.915
4720,-0.155,-0.820
4721,-0.390,-0.760
4722,-0.430,-0.735
4723,-0.425,-0.715
4724,-0.400,-0.690
4725,-0.405,-0.680
4726,-0.375,-0.685
4727,-0.370,-0.650
4728,-0.390,-0.655
4729,-0.390,-0.640
4730,-0.405,-0.640
4731,-0.425,-0.625
4732,-0.415,-0.620
4733,-0.445,-0.610
4734,-0.405,-0.630
4735,-0.410,-0.610
4736,-0.405,-0.560
4737,-0.395,-0.560
4738,-0.410,-0.570
4739,-0.410,-0.570
4740,-0.400,-0.585
4741,-0.395,-0.580
4742,-0.415,-0.575
4743,-0.410,-0.560
4744,-0.465,-0.570
4745,-0.465,-0.580
4746,-0.475,-0.610
4747,-0.490,-0.645
4748,-0.495,-0.650
4749,-0.490,-0.650
4750,-0.545,-0.670
4751,-0.550,-0.670
4752,-0.595,-0.650
4753,-0.580,-0.645
4754,-0.600,-0.615
4755,-0.615,-0.590
4756,-0.625,-0.575
4757,-0.650,-0.550
4758,-0.665,-0.520
4759,-0.635,-0.540
4760,-0.610,-0.525
4761,-0.585,-0.535
4762,-0.615,-0.505
4763,-0.580,-0.515
4764,-0.580,-0.480
4765,-0.585,-0.480
4766,-0.585,-0.455
4767,-0.545,-0.455
4768,-0.565,-0.480
4769,-0.550,-0.465
4770,-0.570,-0.445
4771,-0.580,-0.435
4772,-0.580,-0.415
4773,-0.570,-0.420
4774,-0.570,-0.410
4775,-0.570,-0.410
4776,-0.570,-0.410
4777,-0.590,-0.380
4778,-0.585,-0.385
4779,-0.585,-0.375
4780,-0.580,-0.365
4781,-0.575,-0.350
4782,-0.570,-0.350
4783,-0.575,-0.320
4784,-0.560,-0.320
4785,-0.585,-0.300
4786,-0.585,-0.330
4787,-0.590,-0.305
4788,-0.565,-0.295
4789,-0.560,-0.320
4790,-0.550,-0.285
4791,-0.560,-0.295
4792,-0.555,-0.265
4793,-0.570,-0.275
4794,-0.540,-0.260
4795,-0.535,-0.265
4796,-0.555,-0.275
4797,-0.560,-0.275
4798,-0.565,-0.235
4799,-0.535,-0.250
4800,-0.575,-0.240
4801,-0.565,-0.260
4802,-0.560,-0.240
4803,-0.565,-0.250
4804,-0.550,-0.240
4805,-0.575,-0.230
4806,-0.600,-0.230
4807,-0.600,-0.215
4808,-0.605,-0.160
4809,-0.585,-0.125
4810,-0.560,-0.105
4811,-0.520,-0.090
4812,-0.550,-0.060
4813,-0.580,-0.045
4814,-0.555,-0.035
4815,-0.580,-0.040
4816,-0.565,-0.160
4817,-0.540,-0.185
4818,-0.545,-0.185
4819,-0.550,-0.170
4820,-0.550,-0.155
4821,-0.565,-0.145
4822,-0.575,-0.150
4823,-0.570,-0.130
4824,-0.535,-0.165
4825,-0.535,-0.225
4826,-0.530,0.145
4827,-0.535,1.090
4828,-0.575,1.755
4829,-0.900,1.165
4830,-1.205,-0.070
4831,-1.455,-0.740
4832,-1.285,-0.610
4833,-0.485,-0.285
4834,-0.205,-0.100
4835,-0.340,-0.070
4836,-0.445,-0.035
4837,-0.425,-0.035
4838,-0.395,0.000
4839,-0.380,0.020
4840,-0.410,0.040
4841,-0.415,0.045
4842,-0.395,0.045
4843,-0.385,0.035
4844,-0.365,0.040
4845,-0.360,0.040
4846,-0.355,0.065
4847,-0.365,0.090
4848,-0.315,0.105
4849,-0.350,0.115
4850,-0.335,0.085
4851,-0.325,0.095
4852,-0.305,0.105
4853,-0.285,0.140
4854,-0.325,0.165
4855,-0.325,0.175
4856,-0.330,0.170
4857,-0.325,0.190
4858,-0.335,0.170
4859,-0.325,0.165
4860,-0.350,0.160
4861,-0.365,0.150
4862,-0.425,0.130
4863,-0.420,0.095
4864,-0.430,0.075
4865,-0.435,0.040
4866,-0.460,0.055
4867,-0.495,0.090
4868,-0.520,0.105
4869,-0.555,0.125
4870,-0.550,0.155
4871,-0.565,0.160
4872,-0.545,0.140
4873,-0.530,0.155
4874,-0.530,0.160
4875,-0.500,0.175
4876,-0.495,0.195
4877,-0.450,0.175
4878,-0.425,0.185
4879,-0.425,0.195
4880,-0.410,0.195
4881,-0.395,0.210
4882,-0.415,0.240
4883,-0.395,0.215
4884,-0.395,0.205
4885,-0.370,0.225
4886,-0.370,0.225
4887,-0.340,0.245
4888,-0.390,0.240
4889,-0.375,0.195
4890,-0.400,0.205
4891,-0.380,0.250
4892,-0.370,0.240
4893,-0.385,0.220
4894,-0.385,0.205
4895,-0.375,0.225
4896,-0.380,0.205
4897,-0.415,0.235
4898,-0.375,0.230
4899,-0.360,0.200
4900,-0.370,0.190
4901,-0.390,0.210
4902,-0.370,0.235
4903,-0.380,0.240
4904,-0.345,0.225
4905,-0.370,0.255
4906,-0.335,0.210
4907,-0.345,0.220
4908,-0.345,0.230
4909,-0.350,0.250
4910,-0.335,0.255
4911,-0.370,0.240
4912,-0.375,0.235
4913,-0.360,0.240
4914,-0.350,0.225
4915,-0.325,0.255
4916,-0.355,0.260
4917,-0.365,0.255
4918,-0.365,0.235
4919,-0.380,0.235
4920,-0.355,0.245
4921,-0.335,0.265
4922,-0.340,0.320
4923,-0.325,0.365
4924,-0.295,0.385
4925,-0.275,0.390
4926,-0.295,0.385
4927,-0.260,0.355
4928,-0.265,0.325
4929,-0.305,0.285
4930,-0.325,0.250
4931,-0.265,0.240
4932,-0.290,0.250
4933,-0.270,0.215
4934,-0.310,0.240
4935,-0.290,0.245
4936,-0.310,0.245
4937,-0.330,0.205
4938,-0.320,0.145
4939,-0.320,0.510
4940,-0.340,1.280
4941,-0.430,1.715
4942,-0.805,1.120
4943,-1.300,0.320
4944,-1.495,-0.255
4945,-1.125,-0.250
4946,-0.105,0.000
4947,0.230,0.215
4948,-0.005,0.300
4949,-0.200,0.360
4950,-0.250,0.385
4951,-0.225,0.425
4952,-0.210,0.450
4953,-0.195,0.455
4954,-0.175,0.460
4955,-0.160,0.455
4956,-0.190,0.470
4957,-0.155,0.470
4958,-0.150,0.480
4959,-0.140,0.510
4960,-0.135,0.500
4961,-0.125,0.500
4962,-0.095,0.515
4963,-0.065,0.535
4964,-0.105,0.535
4965,-0.105,0.540
4966,-0.100,0.530
4967,-0.080,0.560
4968,-0.085,0.580
4969,-0.070,0.565
4970,-0.105,0.585
4971,-0.100,0.585
4972,-0.090,0.555
4973,-0.110,0.545
4974,-0.095,0.520
4975,-0.130,0.485
4976,-0.130,0.455
4977,-0.155,0.440
4978,-0.170,0.455
4979,-0.215,0.450
4980,-0.235,0.455
4981,-0.250,0.465
4982,-0.225,0.475
4983,-0.225,0.460
4984,-0.280,0.495
4985,-0.260,0.490
4986,-0.250,0.500
4987,-0.230,0.520
4988,-0.175,0.515
4989,-0.145,0.490
4990,-0.100,0.505
4991,-0.105,0.495
4992,-0.070,0.495
4993,-0.080,0.520
4994,-0.075,0.515
4995,-0.055,0.520
4996,-0.040,0.520
4997,-0.030,0.530
4998,-0.040,0.535
4999,-0.025,0.565
5000,-0.040,0.550
5001,0.000,0.535
5002,-0.010,0.525
5003,0.000,0.535
5004,0.000,0.525
5005,0.000,0.535
5006,0.000,0.530
5007,0.000,0.540
5008,0.030,0.530
5009,0.030,0.525
5010,0.060,0.535
5011,0.065,0.510
5012,0.020,0.550
5013,0.040,0.530
5014,0.025,0.515
5015,0.055,0.515
5016,0.065,0.505
5017,0.045,0.530
5018,0.070,0.530
5019,0.070,0.530
5020,0.045,0.540
5021,0.080,0.535
5022,0.055,0.500
5023,0.060,0.525
5024,0.080,0.525
5025,0.090,0.525
5026,0.055,0.555
5027,0.055,0.560
5028,0.065,0.570
5029,0.085,0.565
5030,0.120,0.570
5031,0.115,0.580
5032,0.100,0.610
5033,0.070,0.670
5034,0.115,0.675
5035,0.080,0.695
5036,0.110,0.775
5037,0.110,0.795
5038,0.165,0.800
5039,0.155,0.845
5040,0.155,0.855
5041,0.125,0.865
5042,0.130,0.845
5043,0.125,0.785
5044,0.120,0.700
5045,0.125,0.685
5046,0.135,0.680
5047,0.135,0.660
5048,0.110,0.660
5049,0.130,0.675
5050,0.130,0.690
5051,0.140,0.660
5052,0.195,0.590
5053,0.200,0.730
5054,0.195,1.590
5055,0.210,2.460
5056,-0.015,2.440
5057,-0.310,1.235
5058,-0.605,0.185
5059,-0.675,0.070
5060,-0.030,0.385
5061,0.505,0.650
5062,0.395,0.725
5063,0.280,0.750
5064,0.280,0.765
5065,0.315,0.760
5066,0.335,0.780
5067,0.330,0.790
5068,0.320,0.800
5069,0.330,0.805
5070,0.325,0.810
5071,0.335,0.810
5072,0.370,0.800
5073,0.375,0.820
5074,0.390,0.830
5075,0.375,0.840
5076,0.325,0.835
5077,0.345,0.835
5078,0.410,0.830
5079,0.395,0.825
5080,0.375,0.830
5081,0.395,0.845
5082,0.380,0.875
5083,0.360,0.855
5084,0.375,0.840
5085,0.400,0.825
5086,0.430,0.785
5087,0.400,0.770
5088,0.370,0.755
5089,0.365,0.725
5090,0.345,0.680
5091,0.335,0.640
5092,0.320,0.610
5093,0.325,0.605
5094,0.295,0.585
5095,0.280,0.645
5096,0.245,0.640
5097,0.240,0.660
5098,0.225,0.675
5099,0.250,0.670
5100,0.265,0.655
5101,0.245,0.625
5102,0.275,0.660
5103,0.280,0.645
5104,0.280,0.635
5105,0.305,0.645
5106,0.300,0.620
5107,0.345,0.600
5108,0.370,0.610
5109,0.350,0.610
5110,0.345,0.615
5111,0.340,0.605
5112,0.345,0.630
5113,0.360,0.605
5114,0.355,0.600
5115,0.340,0.595
5116,0.340,0.590
5117,0.335,0.590
5118,0.355,0.575
5119,0.365,0.585
5120,0.355,0.535
5121,0.380,0.540
5122,0.390,0.540
5123,0.355,0.550
5124,0.365,0.515
5125,0.365,0.510
5126,0.380,0.505
5127,0.400,0.510
5128,0.430,0.490
5129,0.395,0.480
5130,0.415,0.470
5131,0.410,0.470
5132,0.420,0.475
5133,0.410,0.460
5134,0.440,0.455
5135,0.465,0.425
5136,0.430,0.440
5137,0.420,0.450
5138,0.445,0.445
5139,0.450,0.410
5140,0.440,0.420
5141,0.480,0.400
5142,0.455,0.395
5143,0.450,0.405
5144,0.485,0.375
5145,0.455,0.385
5146,0.460,0.385
5147,0.470,0.375
5148,0.485,0.360
5149,0.470,0.385
5150,0.470,0.435
5151,0.445,0.475
5152,0.500,0.470
5153,0.480,0.480
5154,0.475,0.470
5155,0.495,0.470
5156,0.535,0.410
5157,0.480,0.330
5158,0.475,0.315
5159,0.465,0.275
5160,0.490,0.285
5161,0.500,0.210
5162,0.475,0.220
5163,0.460,0.220
5164,0.465,0.220
5165,0.470,0.225
5166,0.445,0.135
5167,0.455,0.385
5168,0.475,1.250
5169,0.440,1.965
5170,0.190,1.595
5171,-0.165,0.425
5172,-0.450,-0.375
5173,-0.390,-0.350
5174,0.335,-0.045
5175,0.795,0.150
5176,0.670,0.170
5177,0.545,0.190
5178,0.525,0.240
5179,0.550,0.260
5180,0.520,0.240
5181,0.555,0.225
5182,0.550,0.235
5183,0.545,0.235
5184,0.555,0.230
5185,0.575,0.240
5186,0.585,0.280
5187,0.590,0.265
5188,0.575,0.265
5189,0.595,0.260
5190,0.640,0.230
5191,0.610,0.245
5192,0.590,0.245
5193,0.595,0.255
5194,0.600,0.250
5195,0.610,0.250
5196,0.600,0.265
5197,0.610,0.225
5198,0.580,0.215
5199,0.585,0.200
5200,0.585,0.195
5201,0.540,0.145
5202,0.545,0.120
5203,0.535,0.050
5204,0.505,0.035
5205,0.465,0.015
5206,0.440,-0.005
5207,0.415,-0.015
5208,0.380,-0.045
5209,0.380,-0.030
5210,0.350,0.000
5211,0.340,-0.045
5212,0.320,-0.020
5213,0.300,0.005
5214,0.295,-0.005
5215,0.315,-0.040
5216,0.320,-0.055
5217,0.380,-0.120
5218,0.370,-0.110
5219,0.400,-0.090
5220,0.415,-0.090
5221,0.415,-0.090
5222,0.435,-0.095
5223,0.435,-0.105
5224,0.460,-0.130
5225,0.455,-0.130
5226,0.460,-0.140
5227,0.435,-0.155
5228,0.415,-0.110
5229,0.430,-0.130
5230,0.440,-0.155
5231,0.440,-0.140
5232,0.480,-0.175
5233,0.440,-0.185
5234,0.410,-0.190
5235,0.420,-0.180
5236,0.420,-0.235
5237,0.420,-0.225
5238,0.435,-0.250
5239,0.435,-0.245
5240,0.450,-0.270
5241,0.420,-0.250
5242,0.410,-0.260
5243,0.440,-0.260
5244,0.420,-0.285
5245,0.415,-0.320
5246,0.425,-0.310
5247,0.425,-0.280
5248,0.410,-0.280
5249,0.430,-0.280
5250,0.415,-0.305
5251,0.435,-0.295
5252,0.425,-0.370
5253,0.435,-0.355
5254,0.410,-0.300
5255,0.415,-0.305
5256,0.400,-0.340
5257,0.370,-0.330
5258,0.395,-0.345
5259,0.440,-0.355
5260,0.425,-0.360
5261,0.420,-0.330
5262,0.425,-0.265
5263,0.420,-0.230
5264,0.445,-0.250
5265,0.440,-0.245
5266,0.450,-0.250
5267,0.460,-0.275
5268,0.450,-0.290
5269,0.400,-0.350
5270,0.400,-0.400
5271,0.430,-0.405
5272,0.445,-0.435
5273,0.420,-0.470
5274,0.420,-0.495
5275,0.400,-0.455
5276,0.380,-0.470
5277,0.370,-0.475
5278,0.365,-0.540
5279,0.405,-0.425
5280,0.400,0.205
5281,0.365,0.900
5282,0.100,0.680
5283,-0.335,-0.165
5284,-0.750,-0.870
5285,-0.590,-1.120
5286,0.280,-0.875
5287,0.940,-0.605
5288,0.765,-0.465
5289,0.525,-0.415
5290,0.425,-0.390
5291,0.435,-0.385
5292,0.435,-0.395
5293,0.455,-0.350
5294,0.460,-0.380
5295,0.450,-0.380
5296,0.465,-0.370
5297,0.480,-0.360
5298,0.450,-0.365
5299,0.455,-0.355
5300,0.475,-0.340
5301,0.490,-0.380
5302,0.470,-0.375
5303,0.470,-0.370
5304,0.455,-0.350
5305,0.475,-0.320
5306,0.470,-0.360
5307,0.495,-0.350
5308,0.480,-0.360
5309,0.490,-0.380
5310,0.480,-0.395
5311,0.430,-0.385
5312,0.445,-0.415
5313,0.405,-0.410
5314,0.400,-0.475
5315,0.400,-0.515
5316,0.375,-0.555
5317,0.340,-0.550
5318,0.300,-0.570
5319,0.265,-0.570
5320,0.245,-0.600
5321,0.230,-0.595
5322,0.205,-0.585
5323,0.185,-0.555
5324,0.175,-0.560
5325,0.180,-0.545
5326,0.175,-0.565
5327,0.185,-0.570
5328,0.205,-0.570
5329,0.225,-0.590
5330,0.245,-0.595
5331,0.245,-0.595
5332,0.250,-0.595
5333,0.225,-0.580
5334,0.225,-0.570
5335,0.260,-0.595
5336,0.270,-0.600
5337,0.235,-0.595
5338,0.255,-0.585
5339,0.220,-0.595
5340,0.225,-0.600
5341,0.225,-0.605
5342,0.230,-0.610
5343,0.230,-0.630
5344,0.210,-0.640
5345,0.220,-0.620
5346,0.210,-0.635
5347,0.185,-0.670
5348,0.195,-0.650
5349,0.225,-0.665
5350,0.235,-0.715
5351,0.225,-0.685
5352,0.210,-0.675
5353,0.215,-0.670
5354,0.205,-0.675
5355,0.220,-0.705
5356,0.220,-0.710
5357,0.240,-0.690
5358,0.250,-0.720
5359,0.225,-0.705
5360,0.205,-0.740
5361,0.190,-0.720
5362,0.225,-0.705
5363,0.220,-0.725
5364,0.230,-0.725
5365,0.215,-0.730
5366,0.195,-0.750
5367,0.195,-0.735
5368,0.220,-0.740
5369,0.205,-0.725
5370,0.205,-0.745
5371,0.215,-0.755
5372,0.210,-0.755
5373,0.175,-0.745
5374,0.205,-0.740
5375,0.195,-0.715
5376,0.150,-0.665
5377,0.190,-0.675
5378,0.200,-0.650
5379,0.255,-0.640
5380,0.195,-0.610
5381,0.215,-0.600
5382,0.220,-0.620
5383,0.220,-0.660
5384,0.195,-0.720
5385,0.230,-0.785
5386,0.225,-0.775
5387,0.205,-0.770
5388,0.195,-0.780
5389,0.175,-0.805
5390,0.165,-0.790
5391,0.205,-0.780
5392,0.205,-0.830
5393,0.195,-0.825
5394,0.220,-0.250
5395,0.235,0.730
5396,0.085,1.085
5397,-0.230,0.115
5398,-0.585,-1.090
5399,-0.740,-1.460
5400,-0.345,-1.160
5401,0.360,-0.865
5402,0.415,-0.790
5403,0.250,-0.745
5404,0.205,-0.740
5405,0.245,-0.710
5406,0.255,-0.725
5407,0.265,-0.700
5408,0.245,-0.695
5409,0.230,-0.690
5410,0.225,-0.675
5411,0.215,-0.670
5412,0.240,-0.685
5413,0.240,-0.670
5414,0.230,-0.670
5415,0.225,-0.660
5416,0.220,-0.640
5417,0.245,-0.665
5418,0.250,-0.645
5419,0.255,-0.630
5420,0.250,-0.625
5421,0.245,-0.660
5422,0.245,-0.615
5423,0.230,-0.615
5424,0.225,-0.610
5425,0.200,-0.635
5426,0.200,-0.640
5427,0.200,-0.680
5428,0.185,-0.700
5429,0.190,-0.720
5430,0.130,-0.745
5431,0.125,-0.775
5432,0.105,-0.810
5433,0.105,-0.825
5434,0.095,-0.820
5435,0.055,-0.820
5436,0.040,-0.780
5437,0.030,-0.755
5438,0.020,-0.715
5439,-0.010,-0.710
5440,0.000,-0.715
5441,0.000,-0.740
5442,0.005,-0.750
5443,0.025,-0.720
5444,0.035,-0.740
5445,0.050,-0.730
5446,0.065,-0.745
5447,0.080,-0.750
5448,0.070,-0.760
5449,0.035,-0.730
5450,0.040,-0.730
5451,0.025,-0.745
5452,0.020,-0.745
5453,0.025,-0.735
5454,0.025,-0.760
5455,0.045,-0.765
5456,0.005,-0.750
5457,-0.005,-0.755
5458,0.000,-0.740
5459,-0.010,-0.770
5460,0.005,-0.760
5461,0.000,-0.775
5462,0.015,-0.785
5463,0.000,-0.795
5464,-0.005,-0.800
5465,0.005,-0.805
5466,0.000,-0.805
5467,0.020,-0.815
5468,0.025,-0.820
5469,0.025,-0.835
5470,0.015,-0.830
5471,0.000,-0.815
5472,0.005,-0.820
5473,-0.005,-0.830
5474,0.005,-0.835
5475,0.025,-0.840
5476,0.020,-0.860
5477,0.020,-0.855
5478,0.000,-0.855
5479,-0.010,-0.830
5480,0.000,-0.860
5481,-0.005,-0.860
5482,-0.030,-0.895
5483,-0.025,-0.860
5484,-0.005,-0.875
5485,-0.010,-0.865
5486,-0.005,-0.880
5487,-0.050,-0.835
5488,-0.010,-0.875
5489,-0.025,-0.875
5490,-0.035,-0.860
5491,-0.050,-0.775
5492,-0.030,-0.735
5493,-0.005,-0.735
5494,-0.005,-0.755
5495,-0.020,-0.730
5496,-0.020,-0.755
5497,-0.010,-0.775
5498,-0.030,-0.820
5499,-0.045,-0.880
5500,-0.050,-0.875
5501,-0.040,-0.875
5502,-0.025,-0.900
5503,-0.035,-0.920
5504,-0.040,-0.920
5505,-0.060,-0.895
5506,-0.070,-0.860
5507,-0.100,-0.965
5508,-0.090,-0.900
5509,-0.085,-0.260
5510,-0.110,0.390
5511,-0.370,0.255
5512,-0.835,-0.470
5513,-1.260,-1.225
5514,-1.315,-1.445
5515,-0.415,-1.170
5516,0.325,-0.930
5517,0.260,-0.820
5518,0.015,-0.790
5519,-0.075,-0.765
5520,-0.065,-0.720
5521,-0.035,-0.725
5522,-0.050,-0.720
5523,-0.035,-0.710
5524,-0.040,-0.730
5525,-0.010,-0.710
5526,0.000,-0.730
5527,-0.030,-0.715
5528,-0.040,-0.675
5529,-0.045,-0.660
5530,-0.055,-0.690
5531,-0.040,-0.660
5532,-0.020,-0.655
5533,-0.015,-0.670
5534,-0.040,-0.640
5535,-0.055,-0.610
5536,-0.045,-0.625
5537,-0.085,-0.605
5538,-0.070,-0.625
5539,-0.050,-0.630
5540,-0.090,-0.630
5541,-0.135,-0.650
5542,-0.135,-0.655
5543,-0.180,-0.695
5544,-0.185,-0.695
5545,-0.190,-0.710
5546,-0.240,-0.730
5547,-0.310,-0.775
5548,-0.330,-0.765
5549,-0.375,-0.720
5550,-0.355,-0.715
5551,-0.405,-0.720
5552,-0.435,-0.710
5553,-0.480,-0.725
5554,-0.500,-0.700
5555,-0.495,-0.715
5556,-0.485,-0.690
5557,-0.455,-0.705
5558,-0.445,-0.705
5559,-0.405,-0.690
5560,-0.390,-0.710
5561,-0.340,-0.705
5562,-0.385,-0.705
5563,-0.380,-0.695
5564,-0.375,-0.685
5565,-0.370,-0.680
5566,-0.370,-0.685
5567,-0.375,-0.700
5568,-0.370,-0.710
5569,-0.360,-0.670
5570,-0.350,-0.660
5571,-0.390,-0.640
5572,-0.400,-0.680
5573,-0.405,-0.685
5574,-0.415,-0.685
5575,-0.385,-0.675
5576,-0.420,-0.690
5577,-0.405,-0.660
5578,-0.415,-0.670
5579,-0.420,-0.660
5580,-0.420,-0.665
5581,-0.415,-0.655
5582,-0.410,-0.635
5583,-0.435,-0.630
5584,-0.445,-0.590
5585,-0.465,-0.605
5586,-0.480,-0.600
5587,-0.440,-0.595
5588,-0.445,-0.615
5589,-0.445,-0.590
5590,-0.455,-0.585
5591,-0.465,-0.595
5592,-0.505,-0.565
5593,-0.475,-0.560
5594,-0.465,-0.560
5595,-0.455,-0.555
5596,-0.480,-0.535
5597,-0.480,-0.480
5598,-0.465,-0.500
5599,-0.465,-0.500
5600,-0.485,-0.490
5601,-0.480,-0.460
5602,-0.460,-0.475
5603,-0.475,-0.435
5604,-0.475,-0.365
5605,-0.470,-0.305
5606,-0.445,-0.270
5607,-0.450,-0.270
5608,-0.470,-0.295
5609,-0.440,-0.270
5610,-0.425,-0.285
5611,-0.485,-0.340
5612,-0.460,-0.375
5613,-0.445,-0.380
5614,-0.440,-0.390
5615,-0.450,-0.370
5616,-0.440,-0.370
5617,-0.455,-0.355
5618,-0.475,-0.335
5619,-0.465,-0.340
5620,-0.490,-0.410
5621,-0.475,-0.250
5622,-0.450,0.525
5623,-0.475,1.380
5624,-0.770,1.230
5625,-1.125,0.190
5626,-1.435,-0.660
5627,-1.415,-0.875
5628,-0.700,-0.620
5629,-0.045,-0.345
5630,-0.180,-0.220
5631,-0.400,-0.190
5632,-0.445,-0.155
5633,-0.415,-0.130
5634,-0.395,-0.100
5635,-0.390,-0.070
5636,-0.355,-0.100
5637,-0.365,-0.090
5638,-0.360,-0.065
5639,-0.360,-0.040
5640,-0.350,-0.010
5641,-0.340,0.000
5642,-0.350,0.000
5643,-0.315,0.020
5644,-0.295,0.020
5645,-0.305,0.025
5646,-0.290,0.025
5647,-0.285,0.035
5648,-0.290,0.080
5649,-0.320,0.070
5650,-0.310,0.060
5651,-0.300,0.055
5652,-0.290,0.080
5653,-0.280,0.075
5654,-0.290,0.070
5655,-0.300,0.050
5656,-0.330,0.075
5657,-0.290,0.035
5658,-0.310,-0.005
5659,-0.365,-0.020
5660,-0.350,-0.005
5661,-0.385,-0.010
5662,-0.395,0.005
5663,-0.410,0.030
5664,-0.400,0.050
5665,-0.410,0.050
5666,-0.405,0.100
5667,-0.410,0.110
5668,-0.455,0.120
5669,-0.405,0.110
5670,-0.400,0.110
5671,-0.375,0.115
5672,-0.355,0.125
5673,-0.330,0.120
5674,-0.335,0.140
5675,-0.335,0.175
5676,-0.310,0.145
5677,-0.335,0.200
5678,-0.325,0.195
5679,-0.320,0.195
5680,-0.300,0.185
5681,-0.270,0.200
5682,-0.295,0.220
5683,-0.260,0.220
5684,-0.255,0.225
5685,-0.245,0.190
5686,-0.235,0.200
5687,-0.230,0.220
5688,-0.240,0.195
5689,-0.265,0.235
5690,-0.230,0.225
5691,-0.225,0.220
5692,-0.210,0.250
5693,-0.210,0.225
5694,-0.205,0.200
5695,-0.220,0.210
5696,-0.195,0.215
5697,-0.210,0.225
5698,-0.190,0.220
5699,-0.165,0.235
5700,-0.190,0.215
5701,-0.155,0.215
5702,-0.145,0.210
5703,-0.170,0.245
5704,-0.165,0.240
5705,-0.170,0.255
5706,-0.160,0.230
5707,-0.160,0.240
5708,-0.160,0.245
5709,-0.165,0.230
5710,-0.195,0.250
5711,-0.190,0.235
5712,-0.185,0.225
5713,-0.185,0.225
5714,-0.170,0.220
5715,-0.180,0.210
5716,-0.165,0.235
5717,-0.190,0.250
5718,-0.195,0.260
5719,-0.205,0.345
5720,-0.180,0.355
5721,-0.155,0.375
5722,-0.130,0.370
5723,-0.155,0.390
5724,-0.170,0.400
5725,-0.170,0.390
5726,-0.150,0.345
5727,-0.180,0.265
5728,-0.155,0.220
5729,-0.130,0.215
5730,-0.110,0.215
5731,-0.150,0.230
5732,-0.140,0.220
5733,-0.135,0.260
5734,-0.140,0.240
5735,-0.120,0.175
5736,-0.140,0.165
5737,-0.140,0.695
5738,-0.140,1.740
5739,-0.235,2.165
5740,-0.605,1.260
5741,-0.910,0.025
5742,-1.115,-0.410
5743,-0.730,-0.205
5744,0.045,0.120
5745,0.155,0.240
5746,-0.030,0.285
5747,-0.090,0.295
5748,-0.085,0.330
5749,-0.055,0.330
5750,-0.030,0.340
5751,-0.065,0.340
5752,-0.070,0.360
5753,-0.060,0.380
5754,-0.060,0.385
5755,-0.050,0.375
5756,-0.035,0.360
5757,-0.055,0.385
5758,-0.025,0.400
5759,-0.045,0.430
5760,-0.060,0.450
5761,-0.065,0.435
5762,-0.055,0.415
5763,-0.050,0.420
5764,-0.035,0.430
5765,-0.050,0.455
5766,-0.060,0.500
5767,-0.080,0.485
5768,-0.065,0.470
5769,-0.070,0.490
5770,-0.075,0.490
5771,-0.040,0.480
5772,-0.040,0.460
5773,-0.100,0.430
5774,-0.100,0.420
5775,-0.145,0.400
5776,-0.165,0.390
5777,-0.160,0.380
5778,-0.185,0.370
5779,-0.180,0.365
5780,-0.215,0.395
5781,-0.240,0.400
5782,-0.250,0.420
5783,-0.250,0.420
5784,-0.220,0.430
5785,-0.200,0.405
5786,-0.145,0.395
5787,-0.150,0.385
5788,-0.130,0.415
5789,-0.115,0.425
5790,-0.080,0.390
5791,-0.060,0.360
5792,-0.045,0.365
5793,-0.045,0.405
5794,-0.035,0.415
5795,-0.050,0.415
5796,-0.080,0.395
5797,-0.080,0.360
5798,-0.010,0.350
5799,-0.020,0.355
5800,-0.020,0.340
5801,-0.075,0.350
5802,-0.070,0.315
5803,-0.060,0.325
5804,-0.010,0.325
5805,-0.020,0.290
5806,-0.020,0.290
5807,-0.020,0.300
5808,-0.035,0.315
5809,-0.010,0.300
5810,-0.015,0.295
5811,-0.010,0.265
5812,0.005,0.250
5813,0.010,0.250
5814,0.000,0.270
5815,0.000,0.270
5816,-0.005,0.195
5817,0.015,0.230
5818,-0.005,0.260
5819,0.000,0.245
5820,-0.010,0.210
5821,0.030,0.205
5822,0.020,0.210
5823,0.005,0.190
5824,0.005,0.205
5825,0.000,0.155
5826,0.010,0.190
5827,0.010,0.180
5828,-0.005,0.165
5829,-0.010,0.185
5830,0.000,0.190
5831,0.015,0.205
5832,0.000,0.230
5833,0.000,0.210
5834,0.045,0.245
5835,0.065,0.270
5836,0.035,0.280
5837,0.035,0.285
5838,0.045,0.285
5839,0.015,0.225
5840,0.035,0.110
5841,0.070,0.090
5842,0.070,0.055
5843,0.060,0.075
5844,0.075,0.070
5845,0.005,0.060
5846,0.025,0.035
5847,0.020,0.040
5848,0.030,0.035
5849,0.025,-0.035
5850,0.005,0.140
5851,0.010,0.825
5852,-0.010,1.480
5853,-0.300,1.155
5854,-0.745,0.310
5855,-1.100,-0.420
5856,-0.920,-0.605
5857,-0.010,-0.340
5858,0.575,-0.090
5859,0.430,0.040
5860,0.210,0.075
5861,0.115,0.065
5862,0.125,0.095
5863,0.150,0.105
5864,0.145,0.130
5865,0.150,0.115
5866,0.165,0.125
5867,0.170,0.145
5868,0.185,0.125
5869,0.215,0.130
5870,0.215,0.155
5871,0.210,0.170
5872,0.200,0.155
5873,0.195,0.155
5874,0.215,0.155
5875,0.255,0.160
5876,0.255,0.135
5877,0.260,0.165
5878,0.265,0.180
5879,0.255,0.160
5880,0.250,0.180
5881,0.245,0.165
5882,0.255,0.145
5883,0.255,0.125
5884,0.230,0.105
5885,0.215,0.085
5886,0.195,0.075
5887,0.185,0.025
5888,0.150,0.010
5889,0.170,-0.025
5890,0.145,-0.055
5891,0.095,-0.020
5892,0.095,0.000
5893,0.055,0.000
5894,0.055,0.000
5895,0.020,0.010
5896,0.020,0.020
5897,0.055,0.000
5898,0.090,0.010
5899,0.085,0.010
5900,0.125,0.005
5901,0.130,0.000
5902,0.180,-0.005
5903,0.190,-0.010
5904,0.195,0.005
5905,0.195,0.005
5906,0.195,0.020
5907,0.220,0.020
5908,0.225,0.005
5909,0.250,-0.010
5910,0.250,-0.015
5911,0.235,-0.015
5912,0.215,-0.030
5913,0.245,-0.005
5914,0.225,-0.015
5915,0.265,-0.010
5916,0.265,-0.015
5917,0.265,-0.045
5918,0.290,-0.050
5919,0.275,-0.050
5920,0.260,-0.035
5921,0.285,-0.025
5922,0.290,-0.020
5923,0.300,-0.045
5924,0.315,-0.065
5925,0.320,-0.045
5926,0.315,-0.045
5927,0.310,-0.040
5928,0.300,-0.065
5929,0.315,-0.065
5930,0.315,-0.085
5931,0.290,-0.085
5932,0.310,-0.085
5933,0.315,-0.065
5934,0.310,-0.060
5935,0.300,-0.045
5936,0.295,-0.065
5937,0.305,-0.090
5938,0.325,-0.090
5939,0.335,-0.070
5940,0.295,-0.100
5941,0.280,-0.080
5942,0.320,-0.060
5943,0.315,-0.055
5944,0.330,-0.080
5945,0.335,-0.080
5946,0.340,-0.060
5947,0.330,0.000
5948,0.315,0.030
5949,0.325,0.055
5950,0.355,0.040
5951,0.355,0.010
5952,0.360,0.050
5953,0.380,0.035
5954,0.375,0.010
5955,0.350,-0.065
5956,0.355,-0.105
5957,0.350,-0.135
5958,0.365,-0.150
5959,0.360,-0.155
5960,0.360,-0.155
5961,0.340,-0.115
5962,0.315,-0.100
5963,0.310,-0.170
5964,0.330,-0.155
5965,0.330,0.360
5966,0.345,1.320
5967,0.235,1.695
5968,-0.095,0.815
5969,-0.445,-0.365
5970,-0.640,-0.830
5971,-0.290,-0.585
5972,0.530,-0.295
5973,0.615,-0.210
5974,0.380,-0.185
5975,0.335,-0.135
5976,0.345,-0.120
5977,0.370,-0.115
5978,0.390,-0.135
5979,0.380,-0.120
5980,0.375,-0.115
5981,0.375,-0.105
5982,0.385,-0.105
5983,0.375,-0.085
5984,0.375,-0.085
5985,0.400,-0.090
5986,0.400,-0.090
5987,0.395,-0.090
5988,0.405,-0.085
5989,0.420,-0.095
5990,0.415,-0.075
5991,0.435,-0.050
5992,0.430,-0.040
5993,0.420,-0.065
5994,0.440,-0.090
5995,0.420,-0.095
5996,0.390,-0.100
5997,0.375,-0.090
5998,0.360,-0.110
5999,0.360,-0.115
6000,0.370,-0.170
6001,0.365,-0.185
6002,0.360,-0.225
6003,0.335,-0.225
6004,0.295,-0.235
6005,0.270,-0.250
6006,0.245,-0.235
6007,0.265,-0.230
6008,0.255,-0.205
6009,0.245,-0.190
6010,0.230,-0.200
6011,0.200,-0.180
6012,0.210,-0.175
6013,0.210,-0.165
6014,0.255,-0.160
6015,0.270,-0.210
6016,0.305,-0.220
6017,0.280,-0.190
6018,0.285,-0.175
6019,0.320,-0.175
6020,0.285,-0.175
6021,0.295,-0.160
6022,0.310,-0.175
6023,0.320,-0.190
6024,0.300,-0.170
6025,0.295,-0.180
6026,0.285,-0.170
6027,0.285,-0.180
6028,0.310,-0.195
6029,0.320,-0.195
6030,0.295,-0.195
6031,0.310,-0.205
6032,0.310,-0.205
6033,0.315,-0.215
6034,0.320,-0.225
6035,0.300,-0.225
6036,0.330,-0.245
6037,0.370,-0.255
6038,0.335,-0.225
6039,0.355,-0.240
6040,0.350,-0.255
6041,0.345,-0.275
6042,0.365,-0.265
6043,0.370,-0.270
6044,0.360,-0.270
6045,0.370,-0.275
6046,0.355,-0.250
6047,0.345,-0.275
6048,0.330,-0.285
6049,0.355,-0.280
6050,0.350,-0.290
6051,0.350,-0.275
6052,0.335,-0.285
6053,0.340,-0.285
6054,0.335,-0.315
6055,0.330,-0.300
6056,0.350,-0.300
6057,0.350,-0.305
6058,0.345,-0.325
6059,0.365,-0.330
6060,0.345,-0.275
6061,0.305,-0.270
6062,0.315,-0.230
6063,0.340,-0.210
6064,0.375,-0.210
6065,0.375,-0.220
6066,0.360,-0.230
6067,0.345,-0.180
6068,0.330,-0.195
6069,0.335,-0.300
6070,0.300,-0.315
6071,0.350,-0.340
6072,0.355,-0.350
6073,0.320,-0.360
6074,0.300,-0.320
6075,0.315,-0.345
6076,0.280,-0.345
6077,0.275,-0.350
6078,0.295,-0.440
6079,0.290,-0.140
6080,0.300,0.600
6081,0.210,1.020
6082,-0.185,0.540
6083,-0.690,-0.330
6084,-0.925,-0.930
6085,-0.540,-0.840
6086,0.455,-0.550
6087,0.750,-0.360
6088,0.510,-0.315
6089,0.340,-0.275
6090,0.335,-0.280
6091,0.375,-0.250
6092,0.375,-0.250
6093,0.385,-0.255
6094,0.390,-0.240
6095,0.380,-0.235
6096,0.370,-0.230
6097,0.355,-0.220
6098,0.350,-0.240
6099,0.365,-0.275
6100,0.405,-0.260
6101,0.390,-0.235
6102,0.345,-0.230
6103,0.355,-0.220
6104,0.360,-0.245
6105,0.380,-0.260
6106,0.380,-0.255
6107,0.390,-0.245
6108,0.380,-0.225
6109,0.350,-0.215
6110,0.335,-0.240
6111,0.305,-0.275
6112,0.325,-0.280
6113,0.335,-0.290
6114,0.290,-0.330
6115,0.240,-0.370
6116,0.240,-0.365
6117,0.200,-0.400
6118,0.200,-0.425
6119,0.175,-0.485
6120,0.130,-0.450
6121,0.135,-0.425
6122,0.070,-0.410
6123,0.020,-0.410
6124,0.005,-0.440
6125,0.010,-0.435
6126,0.060,-0.460
6127,0.060,-0.460
6128,0.090,-0.460
6129,0.090,-0.465
6130,0.115,-0.460
6131,0.130,-0.470
6132,0.155,-0.460
6133,0.165,-0.480
6134,0.155,-0.505
6135,0.195,-0.485
6136,0.180,-0.480
6137,0.170,-0.480
6138,0.155,-0.480
6139,0.170,-0.480
6140,0.175,-0.525
6141,0.185,-0.520
6142,0.200,-0.505
6143,0.190,-0.490
6144,0.175,-0.505
6145,0.145,-0.525
6146,0.145,-0.535
6147,0.165,-0.530
6148,0.150,-0.535
6149,0.155,-0.560
6150,0.135,-0.555
6151,0.175,-0.555
6152,0.155,-0.550
6153,0.155,-0.570
6154,0.190,-0.555
6155,0.175,-0.575
6156,0.190,-0.560
6157,0.170,-0.550
6158,0.155,-0.525
6159,0.180,-0.545
6160,0.190,-0.540
6161,0.235,-0.570
6162,0.210,-0.570
6163,0.245,-0.560
6164,0.220,-0.535
6165,0.180,-0.520
6166,0.220,-0.515
6167,0.230,-0.520
6168,0.225,-0.515
6169,0.245,-0.515
6170,0.215,-0.525
6171,0.200,-0.500
6172,0.210,-0.475
6173,0.210,-0.430
6174,0.240,-0.390
6175,0.280,-0.395
6176,0.250,-0.410
6177,0.255,-0.420
6178,0.255,-0.395
6179,0.230,-0.425
6180,0.215,-0.505
6181,0.235,-0.540
6182,0.260,-0.570
6183,0.260,-0.580
6184,0.230,-0.585
6185,0.190,-0.570
6186,0.225,-0.560
6187,0.205,-0.535
6188,0.230,-0.635
6189,0.215,-0.660
6190,0.230,-0.140
6191,0.200,0.730
6192,0.035,0.990
6193,-0.310,0.170
6194,-0.705,-0.785
6195,-0.800,-1.285
6196,-0.290,-1.100
6197,0.520,-0.795
6198,0.510,-0.595
6199,0.285,-0.530
6200,0.180,-0.505
6201,0.205,-0.510
6202,0.250,-0.485
6203,0.255,-0.505
6204,0.245,-0.480
6205,0.250,-0.475
6206,0.240,-0.450
6207,0.250,-0.460
6208,0.260,-0.455
6209,0.265,-0.460
6210,0.270,-0.450
6211,0.245,-0.465
6212,0.245,-0.465
6213,0.245,-0.445
6214,0.250,-0.435
6215,0.250,-0.435
6216,0.265,-0.445
6217,0.275,-0.435
6218,0.280,-0.445
6219,0.270,-0.455
6220,0.235,-0.450
6221,0.215,-0.445
6222,0.210,-0.485
6223,0.220,-0.500
6224,0.200,-0.550
6225,0.185,-0.580
6226,0.155,-0.615
6227,0.105,-0.610
6228,0.115,-0.660
6229,0.075,-0.670
6230,0.060,-0.640
6231,0.050,-0.665
6232,0.025,-0.640
6233,0.030,-0.590
6234,0.005,-0.565
6235,-0.010,-0.570
6236,0.000,-0.560
6237,0.020,-0.575
6238,-0.005,-0.600
6239,0.015,-0.610
6240,0.030,-0.590
6241,0.055,-0.575
6242,0.040,-0.570
6243,0.080,-0.555
6244,0.065,-0.525
6245,0.075,-0.535
6246,0.090,-0.535
6247,0.095,-0.520
6248,0.065,-0.520
6249,0.065,-0.530
6250,0.050,-0.540
6251,0.055,-0.520
6252,0.095,-0.535
6253,0.070,-0.545
6254,0.060,-0.535
6255,0.065,-0.545
6256,0.045,-0.525
6257,0.055,-0.540
6258,0.055,-0.570
6259,0.075,-0.580
6260,0.070,-0.590
6261,0.060,-0.560
6262,0.060,-0.565
6263,0.060,-0.585
6264,0.070,-0.575
6265,0.070,-0.605
6266,0.100,-0.600
6267,0.080,-0.615
6268,0.080,-0.600
6269,0.070,-0.590
6270,0.065,-0.605
6271,0.060,-0.585
6272,0.080,-0.600
6273,0.065,-0.600
6274,0.065,-0.605
6275,0.070,-0.630
6276,0.055,-0.600
6277,0.050,-0.605
6278,0.050,-0.595
6279,0.075,-0.605
6280,0.070,-0.595
6281,0.090,-0.625
6282,0.040,-0.595
6283,0.040,-0.565
6284,0.030,-0.525
6285,0.030,-0.495
6286,0.065,-0.455
6287,0.080,-0.465
6288,0.055,-0.475
6289,0.045,-0.465
6290,0.080,-0.440
6291,0.080,-0.510
6292,0.030,-0.575
6293,0.110,-0.620
6294,0.085,-0.625
6295,0.100,-0.650
6296,0.075,-0.645
6297,0.025,-0.615
6298,0.025,-0.595
6299,0.070,-0.565
6300,0.080,-0.625
6301,0.060,-0.605
6302,0.065,0.005
6303,0.050,0.890
6304,-0.095,1.095
6305,-0.425,0.170
6306,-0.780,-0.960
6307,-0.940,-1.280
6308,-0.450,-0.995
6309,0.270,-0.685
6310,0.315,-0.585
6311,0.110,-0.540
6312,0.065,-0.495
6313,0.070,-0.475
6314,0.090,-0.470
6315,0.095,-0.485
6316,0.085,-0.480
6317,0.100,-0.450
6318,0.100,-0.430
6319,0.100,-0.410
6320,0.100,-0.420
6321,0.120,-0.385
6322,0.140,-0.420
6323,0.115,-0.375
6324,0.130,-0.360
6325,0.125,-0.350
6326,0.135,-0.335
6327,0.120,-0.320
6328,0.145,-0.300
6329,0.175,-0.330
6330,0.165,-0.295
6331,0.135,-0.320
6332,0.125,-0.310
6333,0.105,-0.330
6334,0.115,-0.325
6335,0.100,-0.340
6336,0.075,-0.395
6337,0.035,-0.415
6338,0.015,-0.440
6339,0.000,-0.465
6340,-0.040,-0.500
6341,-0.065,-0.520
6342,-0.120,-0.485
6343,-0.110,-0.495
6344,-0.150,-0.485
6345,-0.175,-0.475
6346,-0.215,-0.460
6347,-0.195,-0.455
6348,-0.210,-0.465
6349,-0.200,-0.470
6350,-0.175,-0.485
6351,-0.160,-0.520
6352,-0.115,-0.520
6353,-0.120,-0.490
6354,-0.120,-0.525
6355,-0.115,-0.505
6356,-0.090,-0.495
6357,-0.065,-0.505
6358,-0.115,-0.540
6359,-0.110,-0.535
6360,-0.080,-0.495
6361,-0.085,-0.515
6362,-0.115,-0.500
6363,-0.090,-0.515
6364,-0.095,-0.545
6365,-0.090,-0.520
6366,-0.120,-0.540
6367,-0.115,-0.540
6368,-0.090,-0.535
6369,-0.105,-0.540
6370,-0.110,-0.570
6371,-0.100,-0.575
6372,-0.100,-0.580
6373,-0.105,-0.560
6374,-0.100,-0.565
6375,-0.100,-0.580
6376,-0.110,-0.545
6377,-0.130,-0.585
6378,-0.085,-0.650
6379,-0.095,-0.610
6380,-0.115,-0.550
6381,-0.115,-0.575
6382,-0.110,-0.595
6383,-0.100,-0.610
6384,-0.100,-0.610
6385,-0.070,-0.600
6386,-0.110,-0.625
6387,-0.100,-0.615
6388,-0.160,-0.595
6389,-0.120,-0.605
6390,-0.130,-0.600
6391,-0.115,-0.600
6392,-0.105,-0.610
6393,-0.110,-0.575
6394,-0.135,-0.560
6395,-0.105,-0.535
6396,-0.105,-0.505
6397,-0.115,-0.490
6398,-0.075,-0.470
6399,-0.100,-0.515
6400,-0.095,-0.525
6401,-0.100,-0.620
6402,-0.095,-0.665
6403,-0.100,-0.695
6404,-0.090,-0.670
6405,-0.105,-0.670
6406,-0.085,-0.695
6407,-0.120,-0.700
6408,-0.145,-0.705
6409,-0.160,-0.660
6410,-0.140,-0.755
6411,-0.140,-0.630
6412,-0.130,0.065
6413,-0.150,0.710
6414,-0.435,0.460
6415,-0.905,-0.385
6416,-1.280,-1.140
6417,-1.160,-1.390
6418,-0.255,-1.085
6419,0.385,-0.785
6420,0.220,-0.645
6421,-0.015,-0.585
6422,-0.070,-0.555
6423,-0.035,-0.525
6424,-0.025,-0.505
6425,-0.010,-0.490
6426,-0.040,-0.475
6427,-0.020,-0.480
6428,-0.015,-0.440
6429,-0.005,-0.430
6430,-0.015,-0.425
6431,0.000,-0.385
6432,-0.005,-0.385
6433,0.005,-0.375
6434,0.005,-0.380
6435,0.010,-0.365
6436,0.015,-0.355
6437,0.015,-0.385
6438,0.000,-0.335
6439,0.000,-0.345
6440,-0.005,-0.365
6441,0.000,-0.340
6442,0.005,-0.385
6443,0.010,-0.390
6444,-0.015,-0.395
6445,-0.060,-0.405
6446,-0.065,-0.420
6447,-0.065,-0.440
6448,-0.105,-0.485
6449,-0.090,-0.540
6450,-0.115,-0.565
6451,-0.150,-0.550
6452,-0.175,-0.535
6453,-0.220,-0.510
6454,-0.245,-0.505
6455,-0.235,-0.510
6456,-0.220,-0.495
6457,-0.245,-0.500
6458,-0.255,-0.480
6459,-0.245,-0.470
6460,-0.220,-0.450
6461,-0.190,-0.485
6462,-0.185,-0.480
6463,-0.145,-0.485
6464,-0.140,-0.490
6465,-0.130,-0.485
6466,-0.170,-0.495
6467,-0.155,-0.470
6468,-0.155,-0.480
6469,-0.130,-0.465
6470,-0.105,-0.505
6471,-0.115,-0.510
6472,-0.130,-0.505
6473,-0.115,-0.490
6474,-0.145,-0.485
6475,-0.145,-0.500
6476,-0.115,-0.490
6477,-0.135,-0.520
6478,-0.110,-0.535
6479,-0.115,-0.530
6480,-0.115,-0.525
6481,-0.120,-0.500
6482,-0.125,-0.550
6483,-0.140,-0.550
6484,-0.100,-0.550
6485,-0.115,-0.540
6486,-0.110,-0.535
6487,-0.135,-0.540
6488,-0.125,-0.540
6489,-0.130,-0.545
6490,-0.130,-0.555
6491,-0.130,-0.555
6492,-0.130,-0.550
6493,-0.145,-0.580
6494,-0.140,-0.565
6495,-0.150,-0.535
6496,-0.145,-0.540
6497,-0.145,-0.545
6498,-0.120,-0.550
6499,-0.145,-0.590
6500,-0.155,-0.555
6501,-0.150,-0.545
6502,-0.130,-0.530
6503,-0.155,-0.535
6504,-0.155,-0.510
6505,-0.125,-0.500
6506,-0.120,-0.470
6507,-0.105,-0.440
6508,-0.090,-0.405
6509,-0.130,-0.385
6510,-0.130,-0.390
6511,-0.100,-0.395
6512,-0.130,-0.440
6513,-0.130,-0.530
6514,-0.135,-0.585
6515,-0.110,-0.565
6516,-0.100,-0.565
6517,-0.125,-0.570
6518,-0.145,-0.590
6519,-0.130,-0.605
6520,-0.135,-0.595
6521,-0.120,-0.605
6522,-0.145,-0.650
6523,-0.130,-0.290
6524,-0.135,0.595
6525,-0.160,1.265
6526,-0.475,0.745
6527,-0.815,-0.475
6528,-1.070,-1.255
6529,-0.995,-1.120
6530,-0.160,-0.755
6531,0.160,-0.585
6532,0.000,-0.530
6533,-0.115,-0.490
6534,-0.050,-0.470
6535,-0.090,-0.470
6536,-0.055,-0.465
6537,-0.090,-0.445
6538,-0.080,-0.435
6539,-0.065,-0.425
6540,-0.045,-0.420
6541,-0.030,-0.430
6542,-0.035,-0.400
6543,-0.035,-0.380
6544,-0.050,-0.400
6545,-0.035,-0.370
6546,-0.030,-0.390
6547,-0.025,-0.360
6548,-0.010,-0.370
6549,0.000,-0.365
6550,0.000,-0.330
6551,-0.020,-0.310
6552,0.000,-0.340
6553,0.015,-0.320
6554,-0.025,-0.315
6555,-0.040,-0.335
6556,-0.005,-0.350
6557,-0.035,-0.360
6558,-0.060,-0.360
6559,-0.070,-0.380
6560,-0.085,-0.420
6561,-0.070,-0.480
6562,-0.115,-0.485
6563,-0.135,-0.485
6564,-0.155,-0.475
6565,-0.150,-0.415
6566,-0.185,-0.400
6567,-0.210,-0.390
6568,-0.195,-0.385
6569,-0.215,-0.385
6570,-0.175,-0.385
6571,-0.215,-0.375
6572,-0.190,-0.350
6573,-0.165,-0.370
6574,-0.145,-0.355
6575,-0.130,-0.360
6576,-0.115,-0.350
6577,-0.120,-0.350
6578,-0.135,-0.335
6579,-0.125,-0.305
6580,-0.110,-0.295
6581,-0.130,-0.315
6582,-0.095,-0.330
6583,-0.130,-0.320
6584,-0.095,-0.315
6585,-0.110,-0.310
6586,-0.125,-0.285
6587,-0.120,-0.315
6588,-0.120,-0.325
6589,-0.130,-0.355
6590,-0.105,-0.350
6591,-0.130,-0.340
6592,-0.140,-0.360
6593,-0.120,-0.330
6594,-0.125,-0.335
6595,-0.110,-0.365
6596,-0.105,-0.365
6597,-0.085,-0.360
6598,-0.120,-0.355
6599,-0.100,-0.345
6600,-0.135,-0.355
6601,-0.135,-0.355
6602,-0.125,-0.365
6603,-0.105,-0.385
6604,-0.110,-0.370
6605,-0.105,-0.360
6606,-0.095,-0.360
6607,-0.140,-0.345
6608,-0.095,-0.350
6609,-0.090,-0.350
6610,-0.085,-0.405
6611,-0.115,-0.380
6612,-0.130,-0.375
6613,-0.105,-0.380
6614,-0.120,-0.360
6615,-0.105,-0.360
6616,-0.125,-0.345
6617,-0.140,-0.320
6618,-0.105,-0.265
6619,-0.090,-0.255
6620,-0.110,-0.245
6621,-0.135,-0.250
6622,-0.140,-0.235
6623,-0.120,-0.265
6624,-0.145,-0.325
6625,-0.120,-0.410
6626,-0.105,-0.420
6627,-0.110,-0.420
6628,-0.110,-0.415
6629,-0.140,-0.415
6630,-0.155,-0.400
6631,-0.150,-0.445
6632,-0.130,-0.440
6633,-0.150,-0.480
6634,-0.130,-0.460
6635,-0.155,0.080
6636,-0.145,0.800
6637,-0.360,0.960
6638,-0.800,0.305
6639,-1.210,-0.610
6640,-1.375,-0.995
6641,-0.750,-0.755
6642,0.175,-0.480
6643,0.210,-0.355
6644,-0.010,-0.320
6645,-0.110,-0.295
6646,-0.090,-0.280
6647,-0.065,-0.255
6648,-0.065,-0.240
6649,-0.060,-0.235
6650,-0.070,-0.225
6651,-0.035,-0.225
6652,-0.025,-0.235
6653,-0.020,-0.215
6654,0.000,-0.185
6655,0.000,-0.170
6656,0.000,-0.155
6657,-0.025,-0.160
6658,0.015,-0.145
6659,0.035,-0.175
6660,0.000,-0.175
6661,0.010,-0.160
6662,0.025,-0.125
6663,0.020,-0.125
6664,0.005,-0.100
6665,0.005,-0.120
6666,0.000,-0.150
6667,0.025,-0.170
6668,-0.020,-0.180
6669,-0.030,-0.230
6670,-0.040,-0.250
6671,-0.075,-0.240
6672,-0.110,-0.275
6673,-0.120,-0.345
6674,-0.135,-0.350
6675,-0.210,-0.365
6676,-0.205,-0.315
6677,-0.245,-0.280
6678,-0.265,-0.255
