'sample interval','ECG0','ECG1'
'0.0078125 sec','mV','mV'
0,0.025,0.000
1,0.035,0.000
2,0.060,0.000
3,0.055,0.000
4,0.040,0.000
5,0.100,0.000
6,0.145,-0.020
7,0.135,-0.050
8,0.120,-0.060
9,0.105,-0.065
10,0.085,-0.050
11,0.025,-0.020
12,-0.005,0.000
13,-0.025,0.000
14,-0.030,0.000
15,-0.035,0.000
16,-0.025,0.000
17,-0.025,0.000
18,-0.015,0.000
19,-0.025,0.000
20,-0.050,0.005
21,-0.070,0.070
22,-0.035,0.035
23,0.125,-0.315
24,0.395,-0.845
25,0.540,-1.165
26,0.380,-0.985
27,0.095,-0.505
28,-0.020,-0.170
29,-0.055,-0.025
30,-0.060,0.030
31,-0.050,0.075
32,-0.025,0.100
33,-0.020,0.115
34,-0.020,0.115
35,-0.025,0.115
36,-0.025,0.115
37,-0.030,0.115
38,-0.025,0.115
39,-0.025,0.135
40,-0.025,0.130
41,-0.040,0.130
42,-0.040,0.140
43,-0.040,0.140
44,-0.040,0.140
45,-0.055,0.140
46,-0.065,0.135
47,-0.065,0.135
48,-0.060,0.140
49,-0.060,0.140
50,-0.075,0.140
51,-0.070,0.120
52,-0.065,0.115
53,-0.065,0.110
54,-0.055,0.095
55,-0.050,0.080
56,-0.030,0.075
57,-0.025,0.075
58,-0.025,0.055
59,-0.015,0.045
60,-0.005,0.035
61,0.000,0.020
62,0.000,0.010
63,0.010,0.000
64,0.020,0.000
65,0.030,0.000
66,0.035,0.000
67,0.035,0.000
68,0.045,0.000
69,0.035,0.000
70,0.020,0.000
71,0.020,0.000
72,0.025,0.000
73,0.035,0.000
74,0.030,0.000
75,0.020,0.000
76,0.020,0.000
77,0.025,0.000
78,0.025,0.010
79,0.025,0.015
80,0.015,0.000
81,0.015,0.000
82,0.010,0.010
83,0.015,0.005
84,0.015,0.000
85,0.025,0.000
86,0.020,0.000
87,0.020,0.000
88,0.010,0.000
89,0.010,0.000
90,0.030,0.000
91,0.065,0.000
92,0.090,0.000
93,0.115,0.000
94,0.125,-0.040
95,0.145,-0.060
96,0.140,-0.065
97,0.120,-0.065
98,0.100,-0.040
99,0.060,-0.010
100,0.020,0.000
101,0.000,0.000
102,0.000,0.000
103,0.000,0.000
104,0.000,0.000
105,0.005,0.000
106,0.005,0.000
107,0.010,0.000
108,0.000,0.020
109,-0.010,0.085
110,0.055,0.000
111,0.245,-0.415
112,0.490,-0.950
113,0.560,-1.185
114,0.340,-0.895
115,0.065,-0.415
116,-0.005,-0.120
117,-0.040,0.005
118,-0.065,0.055
119,-0.040,0.100
120,-0.025,0.115
121,-0.040,0.130
122,-0.035,0.135
123,-0.025,0.135
124,-0.050,0.120
125,-0.050,0.135
126,-0.055,0.140
127,-0.050,0.140
128,-0.030,0.140
129,-0.050,0.140
130,-0.060,0.135
131,-0.060,0.135
132,-0.060,0.140
133,-0.065,0.130
134,-0.065,0.130
135,-0.070,0.135
136,-0.055,0.120
137,-0.055,0.115
138,-0.065,0.095
139,-0.080,0.105
140,-0.095,0.095
141,-0.070,0.080
142,-0.065,0.075
143,-0.055,0.070
144,-0.050,0.050
145,-0.060,0.045
146,-0.050,0.045
147,-0.020,0.045
148,-0.005,0.030
149,-0.015,0.005
150,-0.010,0.000
151,0.000,0.000
152,0.000,0.000
153,0.010,0.000
154,0.030,0.000
155,0.035,0.000
156,0.010,0.000
157,0.015,0.000
158,0.025,0.000
159,0.010,0.000
160,0.005,0.000
161,0.035,0.000
162,0.035,0.000
163,0.020,0.000
164,0.015,0.000
165,0.010,0.000
166,0.030,0.000
167,0.025,0.015
168,0.015,0.010
169,0.005,0.000
170,0.010,0.000
171,0.015,0.000
172,0.015,0.015
173,0.005,0.010
174,0.015,0.000
175,0.025,0.000
176,0.030,0.000
177,0.025,0.000
178,0.045,0.000
179,0.045,0.010
180,0.080,0.000
181,0.125,0.000
182,0.150,-0.020
183,0.135,-0.040
184,0.110,-0.045
185,0.105,-0.045
186,0.090,-0.035
187,0.065,-0.010
188,0.020,0.000
189,-0.015,0.010
190,-0.020,0.010
191,-0.015,0.010
192,-0.025,0.015
193,-0.020,0.020
194,-0.010,0.020
195,0.000,0.015
196,-0.015,0.020
197,-0.025,0.050
198,0.045,-0.040
199,0.250,-0.450
200,0.505,-0.940
201,0.540,-1.105
202,0.310,-0.785
203,0.030,-0.330
204,-0.055,-0.075
205,-0.075,0.030
206,-0.075,0.090
207,-0.070,0.130
208,-0.055,0.140
209,-0.055,0.150
210,-0.065,0.145
211,-0.070,0.145
212,-0.070,0.165
213,-0.070,0.165
214,-0.075,0.165
215,-0.045,0.165
216,-0.065,0.145
217,-0.070,0.140
218,-0.070,0.140
219,-0.080,0.145
220,-0.085,0.150
221,-0.080,0.150
222,-0.080,0.150
223,-0.095,0.140
224,-0.110,0.140
225,-0.105,0.140
226,-0.105,0.130
227,-0.100,0.115
228,-0.100,0.115
229,-0.105,0.115
230,-0.105,0.115
231,-0.090,0.110
232,-0.085,0.105
233,-0.095,0.130
234,-0.095,0.145
235,-0.065,0.105
236,-0.030,0.045
237,-0.020,0.010
238,-0.015,0.000
239,-0.005,0.000
240,0.000,0.000
241,0.000,0.000
242,0.000,0.000
243,0.000,0.000
244,0.000,0.000
245,0.005,0.000
246,0.010,0.000
247,0.010,0.000
248,0.015,0.000
249,0.015,0.000
250,0.015,0.005
251,0.010,0.010
252,0.000,0.000
253,0.005,0.005
254,0.010,0.015
255,0.005,0.015
256,0.005,0.020
257,0.005,0.020
258,0.005,0.020
259,0.005,0.010
260,0.005,0.000
261,0.005,0.000
262,0.010,0.000
263,0.010,0.000
264,0.015,0.000
265,0.030,0.015
266,0.035,0.020
267,0.060,0.010
268,0.085,0.000
269,0.100,-0.010
270,0.115,-0.035
271,0.120,-0.050
272,0.110,-0.055
273,0.100,-0.040
274,0.065,-0.015
275,0.020,0.000
276,-0.005,0.000
277,-0.015,0.000
278,-0.020,0.000
279,-0.020,0.000
280,-0.010,0.000
281,-0.010,0.000
282,-0.015,0.000
283,-0.020,0.005
284,-0.035,0.045
285,-0.015,0.055
286,0.125,-0.220
287,0.400,-0.735
288,0.585,-1.145
289,0.475,-1.060
290,0.145,-0.565
291,-0.005,-0.195
292,-0.055,-0.020
293,-0.065,0.045
294,-0.065,0.100
295,-0.060,0.115
296,-0.060,0.115
297,-0.065,0.135
298,-0.060,0.140
299,-0.060,0.140
300,-0.050,0.140
301,-0.055,0.140
302,-0.060,0.140
303,-0.060,0.140
304,-0.065,0.135
305,-0.070,0.135
306,-0.065,0.140
307,-0.065,0.140
308,-0.075,0.140
309,-0.080,0.140
310,-0.085,0.140
311,-0.085,0.140
312,-0.100,0.140
313,-0.095,0.140
314,-0.095,0.120
315,-0.095,0.115
316,-0.085,0.105
317,-0.080,0.095
318,-0.075,0.085
319,-0.065,0.075
320,-0.065,0.065
321,-0.065,0.050
322,-0.060,0.045
323,-0.045,0.040
324,-0.025,0.025
325,-0.020,0.020
326,-0.015,0.010
327,-0.010,0.000
328,0.000,0.000
329,0.000,0.000
330,0.000,0.000
331,0.000,0.000
332,0.010,0.000
333,0.015,0.000
334,0.020,0.000
335,0.015,0.000
336,0.005,0.000
337,0.005,0.000
338,0.000,0.000
339,0.000,0.000
340,0.000,0.000
341,0.000,0.000
342,0.000,0.000
343,0.000,0.000
344,0.000,0.000
345,0.000,0.000
346,0.000,0.000
347,0.000,0.000
348,0.000,0.000
349,0.000,0.000
350,0.000,0.000
351,0.005,0.000
352,0.015,0.000
353,0.030,0.000
354,0.045,0.000
355,0.070,0.000
356,0.090,-0.015
357,0.100,-0.050
358,0.105,-0.065
359,0.105,-0.065
360,0.090,-0.055
361,0.045,-0.035
362,0.005,-0.005
363,-0.015,0.000
364,-0.025,0.000
365,-0.030,0.000
366,-0.035,0.000
367,-0.025,0.000
368,-0.025,0.000
369,-0.030,0.000
370,-0.035,0.000
371,-0.060,0.035
372,-0.045,0.060
373,0.090,-0.200
374,0.355,-0.725
375,0.550,-1.160
376,0.475,-1.120
377,0.145,-0.615
378,-0.010,-0.225
379,-0.060,-0.035
380,-0.080,0.025
381,-0.075,0.085
382,-0.065,0.115
383,-0.065,0.115
384,-0.065,0.120
385,-0.060,0.135
386,-0.065,0.140
387,-0.055,0.140
388,-0.065,0.140
389,-0.075,0.140
390,-0.075,0.140
391,-0.070,0.140
392,-0.070,0.140
393,-0.075,0.140
394,-0.080,0.140
395,-0.085,0.140
396,-0.085,0.140
397,-0.095,0.140
398,-0.100,0.140
399,-0.105,0.140
400,-0.100,0.135
401,-0.100,0.125
402,-0.105,0.115
403,-0.105,0.105
404,-0.095,0.095
405,-0.080,0.095
406,-0.080,0.080
407,-0.075,0.070
408,-0.065,0.065
409,-0.050,0.050
410,-0.040,0.040
411,-0.035,0.025
412,-0.025,0.010
413,-0.015,0.000
414,-0.005,0.000
415,0.000,0.000
416,0.000,0.000
417,0.005,0.000
418,0.010,0.000
419,0.010,0.000
420,0.005,0.000
421,0.005,0.000
422,0.010,0.000
423,0.010,0.000
424,0.010,0.000
425,0.010,0.000
426,0.015,0.000
427,0.015,0.000
428,0.015,0.000
429,0.010,0.000
430,0.010,0.000
431,0.005,0.000
432,0.000,0.000
433,0.000,0.000
434,0.000,0.000
435,0.000,0.000
436,0.000,0.000
437,0.000,0.000
438,0.015,0.000
439,0.020,0.000
440,0.020,0.000
441,0.035,0.000
442,0.065,0.000
443,0.075,0.000
444,0.085,-0.020
445,0.105,-0.040
446,0.120,-0.055
447,0.110,-0.065
448,0.085,-0.050
449,0.040,-0.020
450,0.010,0.000
451,-0.005,0.000
452,-0.020,0.000
453,-0.025,0.000
454,-0.020,0.000
455,-0.015,0.000
456,-0.005,0.000
457,-0.005,0.000
458,-0.025,0.005
459,-0.050,0.055
460,-0.020,0.075
461,0.125,-0.245
462,0.395,-0.800
463,0.555,-1.205
464,0.425,-1.075
465,0.090,-0.540
466,-0.020,-0.185
467,-0.050,-0.015
468,-0.060,0.045
469,-0.075,0.105
470,-0.060,0.110
471,-0.060,0.115
472,-0.045,0.135
473,-0.045,0.140
474,-0.075,0.140
475,-0.065,0.140
476,-0.070,0.140
477,-0.075,0.140
478,-0.075,0.140
479,-0.075,0.140
480,-0.060,0.140
481,-0.065,0.140
482,-0.080,0.140
483,-0.080,0.140
484,-0.085,0.140
485,-0.095,0.140
486,-0.100,0.140
487,-0.105,0.130
488,-0.110,0.120
489,-0.105,0.115
490,-0.105,0.105
491,-0.100,0.100
492,-0.090,0.085
493,-0.080,0.070
494,-0.080,0.070
495,-0.085,0.060
496,-0.080,0.045
497,-0.060,0.045
498,-0.045,0.040
499,-0.035,0.025
500,-0.040,0.020
501,-0.030,0.010
502,-0.010,0.000
503,-0.005,0.000
504,0.000,0.000
505,0.000,0.000
506,0.005,0.000
507,0.020,0.000
508,0.000,0.000
509,0.000,0.000
510,0.010,0.000
511,0.005,0.000
512,-0.005,0.000
513,0.000,0.000
514,0.005,0.000
515,0.000,0.000
516,0.000,0.015
517,0.000,0.020
518,0.000,0.010
519,0.000,0.015
520,0.000,0.020
521,0.000,0.010
522,0.015,0.010
523,0.000,0.010
524,0.000,0.000
525,0.000,0.000
526,0.005,0.000
527,0.010,0.000
528,0.020,0.000
529,0.045,0.000
530,0.055,0.000
531,0.060,0.000
532,0.085,-0.010
533,0.105,-0.035
534,0.125,-0.055
535,0.135,-0.055
536,0.105,-0.045
537,0.075,-0.030
538,0.035,-0.005
539,0.005,0.000
540,-0.005,0.000
541,-0.015,0.000
542,-0.010,0.000
543,0.000,0.000
544,0.000,0.000
545,-0.005,0.000
546,-0.020,0.000
547,-0.015,0.025
548,-0.020,0.100
549,0.050,-0.060
550,0.310,-0.565
551,0.555,-1.095
552,0.555,-1.190
553,0.170,-0.700
554,-0.010,-0.275
555,-0.045,-0.055
556,-0.050,0.030
557,-0.060,0.080
558,-0.045,0.110
559,-0.060,0.130
560,-0.065,0.135
561,-0.065,0.140
562,-0.065,0.135
563,-0.060,0.135
564,-0.030,0.135
565,-0.050,0.135
566,-0.075,0.135
567,-0.075,0.140
568,-0.060,0.135
569,-0.085,0.135
570,-0.080,0.135
571,-0.070,0.120
572,-0.075,0.115
573,-0.075,0.115
574,-0.095,0.125
575,-0.115,0.120
576,-0.110,0.125
577,-0.095,0.120
578,-0.095,0.105
579,-0.115,0.100
580,-0.110,0.085
581,-0.080,0.070
582,-0.075,0.070
583,-0.085,0.070
584,-0.075,0.065
585,-0.055,0.050
586,-0.045,0.035
587,-0.035,0.025
588,-0.020,0.020
589,-0.020,0.015
590,-0.010,0.010
591,0.000,0.000
592,0.010,0.000
593,0.020,0.000
594,0.000,0.000
595,0.005,0.000
596,0.015,0.000
597,0.005,0.000
598,0.005,0.000
599,0.010,0.000
600,0.015,0.005
601,0.015,0.000
602,0.005,0.000
603,0.005,0.010
604,0.010,0.015
605,0.010,0.020
606,0.000,0.020
607,0.005,0.020
608,0.010,0.020
609,0.000,0.020
610,0.000,0.020
611,0.000,0.020
612,0.005,0.010
613,0.010,0.005
614,0.010,0.000
615,0.010,0.000
616,0.015,0.010
617,0.025,0.020
618,0.050,0.020
619,0.075,0.015
620,0.100,0.000
621,0.120,-0.020
622,0.135,-0.045
623,0.145,-0.050
624,0.130,-0.040
625,0.095,-0.020
626,0.050,0.000
627,0.010,0.000
628,-0.010,0.000
629,-0.010,0.000
630,0.000,0.000
631,-0.005,0.000
632,-0.015,0.000
633,-0.015,0.000
634,-0.015,0.000
635,-0.025,0.015
636,-0.040,0.105
637,0.020,0.025
638,0.240,-0.410
639,0.550,-0.975
640,0.620,-1.210
641,0.300,-0.815
642,0.035,-0.345
643,-0.030,-0.085
644,-0.060,0.020
645,-0.080,0.075
646,-0.070,0.115
647,-0.060,0.135
648,-0.065,0.140
649,-0.065,0.140
650,-0.065,0.140
651,-0.065,0.140
652,-0.060,0.140
653,-0.060,0.140
654,-0.060,0.140
655,-0.065,0.140
656,-0.070,0.140
657,-0.075,0.140
658,-0.080,0.140
659,-0.080,0.145
660,-0.075,0.145
661,-0.080,0.140
662,-0.090,0.140
663,-0.090,0.140
664,-0.105,0.140
665,-0.110,0.140
666,-0.095,0.130
667,-0.090,0.115
668,-0.090,0.110
669,-0.085,0.105
670,-0.080,0.085
671,-0.075,0.070
672,-0.070,0.065
673,-0.065,0.060
674,-0.050,0.050
675,-0.045,0.025
676,-0.020,0.020
677,-0.015,0.015
678,-0.010,0.000
679,0.000,0.000
680,0.005,0.000
681,0.010,0.000
682,0.020,0.000
683,0.020,0.000
684,0.025,0.000
685,0.025,0.000
686,0.025,0.000
687,0.030,0.000
688,0.025,0.000
689,0.015,0.000
690,0.015,0.000
691,0.010,0.000
692,0.010,0.000
693,0.010,0.010
694,0.005,0.015
695,0.005,0.015
696,0.005,0.015
697,0.005,0.010
698,0.005,0.015
699,0.010,0.020
700,0.010,0.010
701,0.005,0.000
702,0.005,0.000
703,0.005,0.000
704,0.015,0.000
705,0.030,0.010
706,0.050,0.015
707,0.070,0.005
708,0.090,-0.010
709,0.110,-0.040
710,0.120,-0.050
711,0.110,-0.050
712,0.085,-0.045
713,0.050,-0.020
714,0.005,0.000
715,-0.010,0.000
716,-0.020,0.000
717,-0.015,0.000
718,-0.015,0.000
719,-0.015,0.000
720,-0.025,0.000
721,-0.025,0.000
722,-0.025,0.000
723,-0.040,0.035
724,-0.040,0.105
725,0.095,-0.180
726,0.405,-0.755
727,0.600,-1.215
728,0.485,-1.105
729,0.135,-0.580
730,-0.010,-0.205
731,-0.055,-0.025
732,-0.070,0.035
733,-0.075,0.090
734,-0.065,0.115
735,-0.060,0.135
736,-0.060,0.140
737,-0.060,0.140
738,-0.060,0.140
739,-0.065,0.140
740,-0.065,0.140
741,-0.065,0.140
742,-0.070,0.140
743,-0.075,0.140
744,-0.080,0.140
745,-0.080,0.140
746,-0.085,0.140
747,-0.090,0.140
748,-0.085,0.140
749,-0.090,0.140
750,-0.105,0.140
751,-0.105,0.140
752,-0.105,0.140
753,-0.105,0.130
754,-0.105,0.115
755,-0.100,0.110
756,-0.085,0.095
757,-0.085,0.080
758,-0.080,0.070
759,-0.065,0.075
760,-0.060,0.060
761,-0.055,0.045
762,-0.050,0.040
763,-0.030,0.025
764,-0.020,0.015
765,-0.005,0.005
766,0.000,0.000
767,0.000,0.000
768,0.000,0.000
769,0.000,0.000
770,0.005,0.000
771,0.010,0.000
772,0.020,0.000
773,0.025,0.000
774,0.015,0.000
775,0.010,0.000
776,0.010,0.000
777,0.010,0.000
778,0.010,0.000
779,0.010,0.000
780,0.005,0.000
781,0.000,0.000
782,0.005,0.000
783,0.010,0.005
784,0.010,0.015
785,0.005,0.005
786,0.005,0.000
787,0.005,0.000
788,0.005,0.000
789,0.005,0.000
790,0.005,0.000
791,0.005,0.000
792,0.020,0.000
793,0.040,0.005
794,0.060,0.000
795,0.080,-0.005
796,0.095,-0.030
797,0.115,-0.050
798,0.115,-0.065
799,0.105,-0.060
800,0.080,-0.040
801,0.040,-0.010
802,0.000,0.000
803,-0.015,0.000
804,-0.030,0.000
805,-0.030,0.000
806,-0.030,0.000
807,-0.025,0.000
808,-0.025,0.000
809,-0.030,0.000
810,-0.040,0.000
811,-0.065,0.090
812,-0.010,0.040
813,0.195,-0.400
814,0.490,-0.970
815,0.565,-1.240
816,0.310,-0.895
817,0.050,-0.425
818,-0.035,-0.130
819,-0.070,-0.010
820,-0.070,0.055
821,-0.070,0.105
822,-0.055,0.115
823,-0.055,0.115
824,-0.055,0.115
825,-0.040,0.125
826,-0.040,0.130
827,-0.055,0.135
828,-0.060,0.135
829,-0.065,0.140
830,-0.065,0.140
831,-0.070,0.140
832,-0.080,0.140
833,-0.075,0.140
834,-0.070,0.140
835,-0.080,0.140
836,-0.080,0.140
837,-0.075,0.135
838,-0.080,0.135
839,-0.090,0.130
840,-0.105,0.115
841,-0.105,0.115
842,-0.105,0.105
843,-0.095,0.090
844,-0.070,0.080
845,-0.070,0.070
846,-0.075,0.065
847,-0.070,0.045
848,-0.045,0.040
849,-0.045,0.030
850,-0.050,0.015
851,-0.025,0.005
852,-0.010,0.010
853,-0.025,0.000
854,-0.010,0.000
855,0.000,0.000
856,0.000,0.000
857,0.005,0.000
858,0.010,-0.010
859,0.010,-0.005
860,0.020,0.000
861,0.020,0.000
862,0.010,0.000
863,0.015,0.000
864,0.010,0.000
865,0.010,0.000
866,0.010,0.000
867,0.000,0.000
868,-0.005,0.000
869,0.000,0.000
870,0.005,0.000
871,0.000,0.000
872,0.005,0.000
873,0.000,0.005
874,-0.005,0.000
875,-0.005,0.000
876,0.000,0.000
877,0.000,0.000
878,-0.005,0.000
879,0.000,0.000
880,0.010,0.000
881,0.025,0.000
882,0.035,0.000
883,0.060,0.005
884,0.085,-0.015
885,0.115,-0.050
886,0.110,-0.065
887,0.100,-0.060
888,0.090,-0.045
889,0.055,-0.020
890,0.005,0.000
891,-0.015,0.000
892,-0.020,0.000
893,-0.020,0.000
894,-0.025,0.000
895,-0.020,0.000
896,-0.015,0.000
897,-0.015,0.000
898,-0.020,0.000
899,-0.060,0.065
900,-0.030,0.100
901,0.120,-0.195
902,0.390,-0.760
903,0.560,-1.180
904,0.420,-1.035
905,0.120,-0.560
906,-0.010,-0.210
907,-0.055,-0.035
908,-0.075,0.055
909,-0.075,0.100
910,-0.070,0.125
911,-0.070,0.135
912,-0.070,0.140
913,-0.060,0.140
914,-0.075,0.140
915,-0.090,0.140
916,-0.075,0.140
917,-0.070,0.140
918,-0.080,0.140
919,-0.095,0.140
920,-0.100,0.145
921,-0.080,0.140
922,-0.070,0.140
923,-0.075,0.140
924,-0.095,0.140
925,-0.110,0.140
926,-0.125,0.140
927,-0.120,0.140
928,-0.115,0.135
929,-0.110,0.135
930,-0.110,0.125
931,-0.110,0.105
932,-0.110,0.095
933,-0.105,0.075
934,-0.085,0.075
935,-0.075,0.070
936,-0.065,0.065
937,-0.050,0.045
938,-0.045,0.040
939,-0.045,0.035
940,-0.005,0.010
941,-0.010,0.000
942,-0.005,0.000
943,0.015,0.000
944,0.015,0.000
945,0.010,0.000
946,0.010,0.000
947,-0.010,0.000
948,0.000,0.000
949,0.000,0.000
950,0.005,0.000
951,0.000,0.000
952,-0.005,0.000
953,0.000,0.000
954,0.000,0.000
955,0.000,0.000
956,0.005,0.000
957,0.005,0.000
958,0.005,0.000
959,0.000,0.005
960,0.000,0.005
961,0.005,0.000
962,0.005,0.005
963,0.000,0.010
964,0.005,0.005
965,0.000,0.005
966,-0.005,0.000
967,-0.005,0.000
968,0.005,0.000
969,0.030,0.000
970,0.055,0.010
971,0.065,0.005
972,0.075,-0.005
973,0.100,-0.030
974,0.115,-0.055
975,0.105,-0.055
976,0.095,-0.040
977,0.055,-0.020
978,0.000,0.000
979,-0.015,0.000
980,-0.035,0.000
981,-0.040,0.000
982,-0.030,0.000
983,-0.025,0.000
984,-0.025,0.000
985,-0.030,0.000
986,-0.030,0.000
987,-0.035,0.010
988,-0.045,0.110
989,0.025,-0.015
990,0.260,-0.450
991,0.505,-0.970
992,0.540,-1.135
993,0.255,-0.770
994,0.025,-0.340
995,-0.060,-0.080
996,-0.085,0.020
997,-0.095,0.085
998,-0.090,0.125
999,-0.080,0.140
1000,-0.080,0.140
1001,-0.075,0.140
1002,-0.075,0.145
1003,-0.080,0.145
1004,-0.080,0.155
1005,-0.080,0.155
1006,-0.085,0.145
1007,-0.080,0.150
1008,-0.080,0.145
1009,-0.095,0.140
1010,-0.105,0.140
1011,-0.100,0.140
1012,-0.095,0.140
1013,-0.100,0.140
1014,-0.115,0.140
1015,-0.110,0.140
1016,-0.110,0.135
1017,-0.105,0.130
1018,-0.100,0.115
1019,-0.105,0.110
1020,-0.100,0.105
1021,-0.090,0.095
1022,-0.080,0.090
1023,-0.080,0.070
1024,-0.080,0.070
1025,-0.075,0.050
1026,-0.060,0.045
1027,-0.045,0.045
1028,-0.035,0.040
1029,-0.015,0.020
1030,-0.015,0.015
1031,-0.010,0.000
1032,0.000,0.000
1033,0.000,0.000
1034,0.005,0.000
1035,0.010,0.000
1036,0.015,0.000
1037,0.015,0.000
1038,0.010,0.000
1039,0.010,0.000
1040,0.010,0.000
1041,0.010,0.000
1042,0.010,0.000
1043,0.010,0.000
1044,0.010,0.000
1045,0.000,0.005
1046,0.000,0.010
1047,0.005,0.010
1048,0.010,0.010
1049,0.015,0.005
1050,0.005,0.000
1051,0.005,0.000
1052,0.000,0.005
1053,0.000,0.000
1054,0.000,0.000
1055,0.005,0.000
1056,0.010,0.000
1057,0.025,0.005
1058,0.035,0.015
1059,0.060,0.010
1060,0.075,0.000
1061,0.100,-0.020
1062,0.115,-0.050
1063,0.110,-0.060
1064,0.100,-0.055
1065,0.085,-0.030
1066,0.020,-0.010
1067,0.000,0.000
1068,-0.025,0.000
1069,-0.035,0.000
1070,-0.025,0.000
1071,-0.025,0.000
1072,-0.025,0.000
1073,-0.030,0.000
1074,-0.030,0.000
1075,-0.040,0.005
1076,-0.060,0.100
1077,-0.005,0.025
1078,0.190,-0.385
1079,0.460,-0.925
1080,0.550,-1.180
1081,0.315,-0.890
1082,0.060,-0.430
1083,-0.050,-0.130
1084,-0.085,0.000
1085,-0.100,0.070
1086,-0.095,0.115
1087,-0.090,0.135
1088,-0.095,0.140
1089,-0.085,0.140
1090,-0.080,0.140
1091,-0.080,0.145
1092,-0.085,0.145
1093,-0.080,0.155
1094,-0.080,0.155
1095,-0.085,0.145
1096,-0.085,0.145
1097,-0.085,0.155
1098,-0.090,0.160
1099,-0.105,0.145
1100,-0.105,0.145
1101,-0.110,0.160
1102,-0.120,0.140
1103,-0.120,0.140
1104,-0.120,0.140
1105,-0.120,0.135
1106,-0.115,0.125
1107,-0.115,0.110
1108,-0.115,0.105
1109,-0.110,0.095
1110,-0.090,0.095
1111,-0.085,0.095
1112,-0.095,0.070
1113,-0.090,0.070
1114,-0.070,0.045
1115,-0.065,0.040
1116,-0.050,0.020
1117,-0.030,0.020
1118,-0.025,0.015
1119,-0.020,0.000
1120,-0.015,0.000
1121,-0.005,0.000
1122,0.000,0.000
1123,0.000,0.000
1124,0.000,0.000
1125,0.000,0.000
1126,0.005,0.000
1127,0.005,0.000
1128,0.005,0.000
1129,0.005,0.000
1130,0.000,0.000
1131,0.000,0.000
1132,0.000,0.005
1133,0.000,0.005
1134,0.000,0.010
1135,0.000,0.010
1136,-0.005,0.005
1137,0.000,0.010
1138,0.000,0.010
1139,-0.005,0.000
1140,-0.005,0.000
1141,-0.005,0.000
1142,-0.005,0.000
1143,0.000,0.000
1144,0.000,0.000
1145,0.010,0.000
1146,0.020,0.005
1147,0.045,0.000
1148,0.070,0.000
1149,0.095,-0.025
1150,0.110,-0.050
1151,0.105,-0.065
1152,0.100,-0.065
1153,0.075,-0.050
1154,0.020,-0.020
1155,0.000,0.000
1156,-0.030,0.000
1157,-0.035,0.000
1158,-0.035,0.000
1159,-0.030,0.000
1160,-0.030,0.000
1161,-0.030,0.000
1162,-0.035,0.000
1163,-0.050,0.000
1164,-0.065,0.080
1165,-0.020,0.030
1166,0.165,-0.350
1167,0.435,-0.890
1168,0.550,-1.180
1169,0.340,-0.945
1170,0.080,-0.480
1171,-0.040,-0.160
1172,-0.075,-0.020
1173,-0.080,0.055
1174,-0.075,0.100
1175,-0.070,0.120
1176,-0.075,0.130
1177,-0.075,0.140
1178,-0.075,0.140
1179,-0.070,0.140
1180,-0.075,0.140
1181,-0.080,0.140
1182,-0.085,0.145
1183,-0.095,0.140
1184,-0.090,0.140
1185,-0.080,0.140
1186,-0.090,0.145
1187,-0.105,0.140
1188,-0.100,0.140
1189,-0.095,0.140
1190,-0.110,0.140
1191,-0.115,0.135
1192,-0.120,0.130
1193,-0.120,0.115
1194,-0.120,0.115
1195,-0.120,0.115
1196,-0.110,0.105
1197,-0.105,0.095
1198,-0.090,0.095
1199,-0.085,0.070
1200,-0.085,0.070
1201,-0.080,0.065
1202,-0.070,0.045
1203,-0.060,0.040
1204,-0.050,0.020
1205,-0.040,0.020
1206,-0.030,0.005
1207,-0.015,0.000
1208,-0.005,0.000
1209,-0.005,0.000
1210,-0.010,0.000
1211,-0.010,0.000
1212,-0.005,0.000
1213,0.000,0.000
1214,0.000,0.000
1215,0.000,0.000
1216,0.000,0.000
1217,0.000,0.000
1218,0.005,0.000
1219,0.005,0.000
1220,0.000,0.000
1221,0.000,0.000
1222,0.000,0.000
1223,0.000,0.010
1224,-0.005,0.015
1225,-0.005,0.005
1226,0.000,0.000
1227,0.000,0.000
1228,-0.005,0.000
1229,-0.005,0.000
1230,0.000,0.000
1231,-0.005,0.000
1232,0.000,0.000
1233,0.005,0.000
1234,0.020,0.000
1235,0.030,0.000
1236,0.065,0.000
1237,0.070,-0.005
1238,0.080,-0.025
1239,0.105,-0.055
1240,0.115,-0.060
1241,0.110,-0.065
1242,0.065,-0.045
1243,0.005,-0.010
1244,-0.005,0.000
1245,-0.020,0.000
1246,-0.035,0.000
1247,-0.035,0.000
1248,-0.030,0.000
1249,-0.015,0.000
1250,-0.015,0.000
1251,-0.025,0.000
1252,-0.050,0.025
1253,-0.055,0.085
1254,0.035,-0.075
1255,0.285,-0.560
1256,0.520,-1.060
1257,0.500,-1.155
1258,0.240,-0.785
1259,0.025,-0.345
1260,-0.040,-0.090
1261,-0.065,0.010
1262,-0.070,0.075
1263,-0.070,0.120
1264,-0.070,0.140
1265,-0.070,0.140
1266,-0.080,0.140
1267,-0.075,0.140
1268,-0.065,0.140
1269,-0.070,0.140
1270,-0.065,0.140
1271,-0.065,0.140
1272,-0.085,0.140
1273,-0.085,0.140
1274,-0.085,0.140
1275,-0.100,0.140
1276,-0.100,0.140
1277,-0.080,0.140
1278,-0.085,0.135
1279,-0.105,0.120
1280,-0.110,0.140
1281,-0.120,0.130
1282,-0.115,0.115
1283,-0.105,0.115
1284,-0.110,0.100
1285,-0.090,0.070
1286,-0.085,0.070
1287,-0.085,0.060
1288,-0.080,0.065
1289,-0.075,0.050
1290,-0.065,0.045
1291,-0.065,0.035
1292,-0.050,0.020
1293,-0.025,0.020
1294,-0.010,0.015
1295,-0.010,0.005
1296,-0.015,0.000
1297,-0.005,0.000
1298,0.000,0.000
1299,0.005,0.000
1300,0.005,0.000
1301,0.015,0.000
1302,0.010,0.000
1303,0.000,0.000
1304,0.005,0.000
1305,0.010,0.000
1306,0.000,0.000
1307,0.000,0.000
1308,0.000,0.000
1309,0.000,0.005
1310,0.005,0.015
1311,0.015,0.010
1312,0.000,0.010
1313,-0.010,0.010
1314,-0.005,0.020
1315,0.000,0.015
1316,0.000,0.000
1317,0.000,0.000
1318,-0.010,0.000
1319,-0.005,0.000
1320,0.000,0.000
1321,0.000,0.000
1322,0.005,0.000
1323,0.005,0.000
1324,0.025,0.005
1325,0.060,0.000
1326,0.065,0.000
1327,0.105,-0.020
1328,0.115,-0.045
1329,0.120,-0.060
1330,0.105,-0.065
1331,0.080,-0.050
1332,0.040,-0.020
1333,0.000,0.000
1334,-0.010,0.000
1335,-0.015,0.000
1336,-0.010,0.000
1337,-0.005,0.000
1338,-0.030,0.000
1339,-0.030,0.000
1340,-0.015,0.000
1341,-0.030,0.015
1342,-0.050,0.090
1343,0.005,0.010
1344,0.210,-0.380
1345,0.460,-0.890
1346,0.540,-1.125
1347,0.325,-0.870
1348,0.045,-0.415
1349,-0.040,-0.130
1350,-0.060,0.005
1351,-0.075,0.075
1352,-0.080,0.120
1353,-0.070,0.135
1354,-0.070,0.140
1355,-0.060,0.135
1356,-0.060,0.135
1357,-0.080,0.140
1358,-0.085,0.140
1359,-0.075,0.140
1360,-0.065,0.140
1361,-0.080,0.145
1362,-0.090,0.140
1363,-0.085,0.135
1364,-0.080,0.135
1365,-0.075,0.140
1366,-0.095,0.140
1367,-0.095,0.140
1368,-0.120,0.140
1369,-0.125,0.140
1370,-0.120,0.135
1371,-0.120,0.135
1372,-0.120,0.130
1373,-0.120,0.105
1374,-0.115,0.095
1375,-0.105,0.085
1376,-0.105,0.080
1377,-0.095,0.065
1378,-0.075,0.045
1379,-0.060,0.045
1380,-0.055,0.045
1381,-0.060,0.035
1382,-0.060,0.025
1383,-0.040,0.020
1384,-0.035,0.015
1385,-0.020,0.005
1386,-0.005,0.000
1387,-0.005,0.000
1388,0.000,0.000
1389,0.000,0.000
1390,0.000,0.000
1391,0.005,0.000
1392,0.015,0.000
1393,0.005,0.000
1394,0.000,0.000
1395,0.000,0.000
1396,0.000,0.000
1397,0.000,0.005
1398,0.000,0.020
1399,0.000,0.020
1400,0.000,0.020
1401,0.000,0.020
1402,0.000,0.020
1403,0.000,0.020
1404,0.000,0.020
1405,0.000,0.015
1406,0.000,0.010
1407,0.000,0.015
1408,-0.005,0.010
1409,0.000,0.000
1410,0.005,0.010
1411,0.010,0.000
1412,0.015,0.010
1413,0.035,0.015
1414,0.060,0.020
1415,0.080,0.005
1416,0.110,0.000
1417,0.115,-0.035
1418,0.110,-0.045
1419,0.110,-0.045
1420,0.100,-0.035
1421,0.065,-0.005
1422,0.015,0.000
1423,-0.010,0.000
1424,-0.020,0.000
1425,-0.025,0.000
1426,-0.020,0.000
1427,-0.010,0.000
1428,-0.015,0.000
1429,-0.030,0.000
1430,-0.040,0.015
1431,-0.050,0.085
1432,0.000,0.040
1433,0.185,-0.320
1434,0.460,-0.835
1435,0.580,-1.130
1436,0.395,-0.915
1437,0.085,-0.445
1438,-0.035,-0.145
1439,-0.065,0.000
1440,-0.075,0.075
1441,-0.070,0.120
1442,-0.070,0.140
1443,-0.075,0.140
1444,-0.070,0.140
1445,-0.065,0.140
1446,-0.065,0.140
1447,-0.070,0.145
1448,-0.075,0.150
1449,-0.075,0.150
1450,-0.070,0.145
1451,-0.070,0.150
1452,-0.070,0.145
1453,-0.080,0.140
1454,-0.085,0.145
1455,-0.085,0.140
1456,-0.080,0.140
1457,-0.105,0.140
1458,-0.110,0.140
1459,-0.110,0.140
1460,-0.100,0.135
1461,-0.110,0.120
1462,-0.110,0.115
1463,-0.105,0.100
1464,-0.085,0.095
1465,-0.080,0.080
1466,-0.080,0.070
1467,-0.075,0.070
1468,-0.070,0.055
1469,-0.060,0.045
1470,-0.050,0.045
1471,-0.040,0.035
1472,-0.030,0.025
1473,-0.015,0.015
1474,-0.005,0.005
1475,0.000,0.000
1476,0.000,0.000
1477,0.000,0.000
1478,0.005,0.000
1479,0.005,0.000
1480,0.015,0.000
1481,0.020,0.000
1482,0.020,0.000
1483,0.020,0.000
1484,0.015,0.000
1485,0.010,0.000
1486,0.010,0.000
1487,0.005,0.000
1488,0.000,0.000
1489,0.000,0.015
1490,0.005,0.020
1491,0.005,0.020
1492,0.000,0.015
1493,0.000,0.015
1494,0.005,0.015
1495,0.000,0.010
1496,0.000,0.000
1497,0.000,0.000
1498,0.000,0.005
1499,0.000,0.000
1500,0.015,0.000
1501,0.025,0.010
1502,0.045,0.015
1503,0.070,0.000
1504,0.085,-0.010
1505,0.100,-0.025
1506,0.105,-0.055
1507,0.105,-0.065
1508,0.085,-0.050
1509,0.050,-0.025
1510,0.015,-0.005
1511,0.000,0.000
1512,-0.020,0.000
1513,-0.035,0.000
1514,-0.035,0.000
1515,-0.030,0.000
1516,-0.025,0.000
1517,-0.025,0.000
1518,-0.030,0.000
1519,-0.045,0.040
1520,-0.040,0.075
1521,0.060,-0.125
1522,0.305,-0.625
1523,0.550,-1.105
1524,0.520,-1.145
1525,0.220,-0.705
1526,0.000,-0.280
1527,-0.060,-0.055
1528,-0.080,0.030
1529,-0.085,0.090
1530,-0.070,0.120
1531,-0.070,0.140
1532,-0.075,0.140
1533,-0.075,0.145
1534,-0.070,0.150
1535,-0.065,0.160
1536,-0.080,0.140
1537,-0.080,0.140
1538,-0.080,0.140
1539,-0.070,0.150
1540,-0.085,0.150
1541,-0.090,0.140
1542,-0.100,0.140
1543,-0.105,0.140
1544,-0.105,0.140
1545,-0.105,0.140
1546,-0.110,0.140
1547,-0.115,0.140
1548,-0.115,0.140
1549,-0.120,0.120
1550,-0.115,0.115
1551,-0.110,0.110
1552,-0.105,0.100
1553,-0.105,0.085
1554,-0.090,0.070
1555,-0.080,0.070
1556,-0.070,0.070
1557,-0.065,0.060
1558,-0.060,0.045
1559,-0.055,0.025
1560,-0.040,0.020
1561,-0.025,0.015
1562,-0.020,0.005
1563,-0.010,0.000
1564,-0.005,0.000
1565,0.000,0.000
1566,0.000,0.000
1567,0.000,0.000
1568,0.005,0.000
1569,0.005,0.000
1570,0.010,0.000
1571,0.005,0.000
1572,0.000,0.000
1573,0.000,0.000
1574,0.000,0.000
1575,0.000,0.000
1576,0.005,0.010
1577,0.000,0.000
1578,0.000,0.000
1579,0.000,0.000
1580,0.000,0.000
1581,0.000,0.000
1582,0.000,0.000
1583,0.000,0.000
1584,0.000,0.000
1585,0.000,0.000
1586,0.000,0.000
1587,0.000,0.000
1588,0.005,0.000
1589,0.015,0.000
1590,0.025,0.000
1591,0.040,0.000
1592,0.070,0.000
1593,0.095,-0.020
1594,0.105,-0.050
1595,0.110,-0.065
1596,0.110,-0.065
1597,0.095,-0.050
1598,0.055,-0.025
1599,0.010,-0.005
1600,-0.015,0.000
1601,-0.025,0.000
1602,-0.020,0.000
1603,-0.020,0.000
1604,-0.025,0.000
1605,-0.025,0.000
1606,-0.025,0.000
1607,-0.035,0.005
1608,-0.050,0.050
1609,-0.015,0.055
1610,0.135,-0.270
1611,0.400,-0.820
1612,0.550,-1.205
1613,0.420,-1.055
1614,0.090,-0.535
1615,-0.025,-0.180
1616,-0.080,-0.020
1617,-0.080,0.045
1618,-0.075,0.105
1619,-0.070,0.115
1620,-0.070,0.120
1621,-0.070,0.140
1622,-0.075,0.140
1623,-0.075,0.140
1624,-0.075,0.140
1625,-0.075,0.140
1626,-0.075,0.140
1627,-0.075,0.140
1628,-0.065,0.140
1629,-0.075,0.140
1630,-0.080,0.140
1631,-0.085,0.135
1632,-0.085,0.135
1633,-0.085,0.140
1634,-0.095,0.125
1635,-0.105,0.130
1636,-0.105,0.135
1637,-0.110,0.120
1638,-0.105,0.115
1639,-0.105,0.105
1640,-0.105,0.100
1641,-0.090,0.085
1642,-0.085,0.070
1643,-0.080,0.055
1644,-0.065,0.045
1645,-0.050,0.045
1646,-0.040,0.040
1647,-0.040,0.030
1648,-0.035,0.020
1649,-0.025,0.010
1650,-0.025,0.000
1651,-0.020,0.000
1652,-0.010,0.000
1653,0.000,0.000
1654,0.000,0.000
1655,0.000,0.000
1656,0.005,0.000
1657,0.000,0.000
1658,0.000,0.000
1659,0.000,0.000
1660,0.000,0.000
1661,0.000,0.000
1662,0.010,0.000
1663,0.010,0.000
1664,0.000,0.000
1665,0.000,0.000
1666,0.000,0.000
1667,0.000,0.000
1668,0.000,0.000
1669,0.010,0.000
1670,0.000,0.000
1671,0.000,0.000
1672,0.000,0.000
1673,0.000,0.000
1674,0.000,0.000
1675,0.000,0.000
1676,0.000,0.000
1677,0.000,0.000
1678,0.015,0.000
1679,0.040,0.000
1680,0.060,0.000
1681,0.070,0.000
1682,0.090,-0.020
1683,0.110,-0.050
1684,0.115,-0.065
1685,0.115,-0.070
1686,0.105,-0.060
1687,0.060,-0.035
1688,0.015,-0.020
1689,0.000,-0.020
1690,-0.020,-0.015
1691,-0.030,-0.010
1692,-0.015,-0.005
1693,-0.005,-0.015
1694,-0.015,-0.020
1695,-0.015,-0.010
1696,-0.015,0.000
1697,-0.025,0.040
1698,-0.020,0.085
1699,0.105,-0.185
1700,0.375,-0.725
1701,0.555,-1.190
1702,0.465,-1.130
1703,0.120,-0.600
1704,-0.020,-0.215
1705,-0.065,-0.030
1706,-0.060,0.035
1707,-0.060,0.080
1708,-0.060,0.110
1709,-0.065,0.130
1710,-0.070,0.120
1711,-0.070,0.115
1712,-0.070,0.135
1713,-0.065,0.140
1714,-0.065,0.140
1715,-0.065,0.135
1716,-0.065,0.135
1717,-0.075,0.135
1718,-0.080,0.140
1719,-0.075,0.140
1720,-0.075,0.140
1721,-0.070,0.140
1722,-0.085,0.140
1723,-0.100,0.135
1724,-0.110,0.125
1725,-0.105,0.115
1726,-0.105,0.115
1727,-0.100,0.115
1728,-0.090,0.110
1729,-0.090,0.095
1730,-0.105,0.075
1731,-0.105,0.065
1732,-0.095,0.055
1733,-0.080,0.045
1734,-0.065,0.040
1735,-0.065,0.035
1736,-0.060,0.030
1737,-0.050,0.020
1738,-0.035,0.015
1739,-0.020,0.000
1740,-0.015,0.000
1741,-0.005,0.000
1742,0.000,0.000
1743,0.005,0.000
1744,0.010,0.000
1745,0.005,0.000
1746,0.000,0.000
1747,0.000,0.000
1748,0.010,0.000
1749,0.005,0.000
1750,0.000,0.000
1751,0.000,0.000
1752,0.010,0.000
1753,0.015,0.000
1754,0.000,0.005
1755,0.000,0.005
1756,0.000,0.005
1757,0.005,0.005
1758,0.000,0.005
1759,0.000,0.000
1760,0.000,0.000
1761,0.005,0.000
1762,0.010,0.000
1763,0.010,0.000
1764,0.005,0.000
1765,0.000,0.000
1766,0.005,0.000
1767,0.030,0.000
1768,0.040,0.000
1769,0.045,0.000
1770,0.070,0.000
1771,0.095,-0.010
1772,0.110,-0.040
1773,0.120,-0.055
1774,0.125,-0.065
1775,0.125,-0.060
1776,0.100,-0.045
1777,0.030,-0.015
1778,-0.010,0.000
1779,-0.030,0.000
1780,-0.010,0.000
1781,0.005,0.000
1782,-0.005,0.000
1783,-0.020,0.000
1784,-0.005,0.000
1785,-0.005,0.000
1786,-0.035,0.025
1787,-0.035,0.100
1788,0.065,-0.090
1789,0.330,-0.570
1790,0.590,-1.090
1791,0.560,-1.145
1792,0.205,-0.660
1793,0.000,-0.255
1794,-0.050,-0.045
1795,-0.065,0.030
1796,-0.075,0.090
1797,-0.040,0.110
1798,-0.055,0.130
1799,-0.070,0.135
1800,-0.060,0.135
1801,-0.060,0.135
1802,-0.065,0.140
1803,-0.065,0.140
1804,-0.075,0.140
1805,-0.075,0.140
1806,-0.065,0.140
1807,-0.075,0.140
1808,-0.090,0.140
1809,-0.090,0.140
1810,-0.080,0.140
1811,-0.075,0.130
1812,-0.080,0.130
1813,-0.105,0.135
1814,-0.120,0.140
1815,-0.115,0.130
1816,-0.110,0.115
1817,-0.115,0.115
1818,-0.105,0.105
1819,-0.090,0.090
1820,-0.095,0.085
1821,-0.105,0.090
1822,-0.085,0.075
1823,-0.065,0.060
1824,-0.070,0.045
1825,-0.060,0.040
1826,-0.060,0.035
1827,-0.045,0.020
1828,-0.020,0.015
1829,-0.010,0.000
1830,-0.005,0.000
1831,0.000,0.000
1832,0.005,0.000
1833,0.000,0.000
1834,0.000,0.000
1835,0.005,0.000
1836,0.010,0.000
1837,0.010,0.000
1838,0.010,0.000
1839,0.010,0.000
1840,0.000,0.005
1841,0.000,0.000
1842,0.000,0.010
1843,0.000,0.015
1844,0.000,0.020
1845,0.000,0.020
1846,0.000,0.015
1847,0.000,0.015
1848,0.000,0.020
1849,0.010,0.015
1850,0.005,0.005
1851,-0.005,0.010
1852,0.000,0.010
1853,0.000,0.010
1854,0.000,0.010
1855,0.005,0.010
1856,0.020,0.015
1857,0.040,0.020
1858,0.060,0.020
1859,0.070,0.010
1860,0.085,-0.010
1861,0.110,-0.030
1862,0.115,-0.045
1863,0.105,-0.045
1864,0.090,-0.035
1865,0.055,-0.015
1866,0.010,0.000
1867,0.000,0.000
1868,-0.020,0.000
1869,-0.020,0.000
1870,-0.025,0.000
1871,-0.020,0.000
1872,-0.010,0.000
1873,-0.010,0.000
1874,-0.020,0.000
1875,-0.040,0.035
1876,-0.045,0.120
1877,0.060,-0.105
1878,0.350,-0.650
1879,0.600,-1.145
1880,0.540,-1.130
1881,0.170,-0.625
1882,0.005,-0.235
1883,-0.060,-0.035
1884,-0.070,0.045
1885,-0.075,0.100
1886,-0.065,0.125
1887,-0.065,0.135
1888,-0.070,0.140
1889,-0.070,0.150
1890,-0.075,0.145
1891,-0.080,0.140
1892,-0.070,0.140
1893,-0.075,0.145
1894,-0.075,0.140
1895,-0.075,0.140
1896,-0.075,0.140
1897,-0.075,0.145
1898,-0.080,0.150
1899,-0.080,0.145
1900,-0.090,0.140
1901,-0.095,0.140
1902,-0.095,0.140
1903,-0.105,0.140
1904,-0.105,0.140
1905,-0.105,0.130
1906,-0.095,0.115
1907,-0.080,0.105
1908,-0.080,0.095
1909,-0.090,0.085
1910,-0.085,0.075
1911,-0.075,0.080
1912,-0.075,0.065
1913,-0.065,0.055
1914,-0.055,0.045
1915,-0.045,0.040
1916,-0.025,0.020
1917,-0.015,0.015
1918,-0.005,0.005
1919,0.000,0.005
1920,0.005,0.005
1921,0.005,0.000
1922,0.010,0.000
1923,0.015,0.000
1924,0.020,0.000
1925,0.025,0.000
1926,0.020,0.000
1927,0.020,0.000
1928,0.025,0.000
1929,0.030,0.000
1930,0.020,0.000
1931,0.015,0.000
1932,0.015,0.000
1933,0.015,0.010
1934,0.015,0.015
1935,0.015,0.020
1936,0.015,0.020
1937,0.015,0.010
1938,0.010,0.015
1939,0.010,0.015
1940,0.010,0.005
1941,0.015,0.005
1942,0.015,0.005
1943,0.010,0.000
1944,0.020,0.000
1945,0.035,0.010
1946,0.055,0.020
1947,0.075,0.010
1948,0.095,0.000
1949,0.115,-0.020
1950,0.125,-0.035
1951,0.130,-0.050
1952,0.125,-0.045
1953,0.100,-0.025
1954,0.050,0.000
1955,0.015,0.000
1956,-0.005,0.000
1957,-0.010,0.000
1958,-0.010,0.000
1959,0.000,0.000
1960,-0.010,0.000
1961,-0.005,0.000
1962,-0.005,0.000
1963,-0.015,0.000
1964,-0.055,0.100
1965,0.010,0.005
1966,0.240,-0.445
1967,0.535,-1.015
1968,0.615,-1.230
1969,0.320,-0.850
1970,0.065,-0.390
1971,-0.015,-0.105
1972,-0.035,0.000
1973,-0.045,0.080
1974,-0.050,0.110
1975,-0.055,0.125
1976,-0.045,0.135
1977,-0.050,0.140
1978,-0.055,0.140
1979,-0.055,0.140
1980,-0.055,0.140
1981,-0.055,0.140
1982,-0.055,0.140
1983,-0.060,0.140
1984,-0.065,0.140
1985,-0.065,0.140
1986,-0.070,0.140
1987,-0.070,0.140
1988,-0.070,0.140
1989,-0.075,0.140
1990,-0.080,0.140
1991,-0.090,0.135
1992,-0.095,0.125
1993,-0.085,0.115
1994,-0.080,0.115
1995,-0.085,0.110
1996,-0.075,0.090
1997,-0.070,0.080
1998,-0.070,0.070
1999,-0.065,0.070
2000,-0.060,0.065
2001,-0.055,0.045
2002,-0.035,0.040
2003,-0.030,0.030
2004,-0.025,0.015
2005,-0.015,0.010
2006,-0.005,0.000
2007,0.000,0.000
2008,0.000,0.000
2009,0.005,0.000
2010,0.010,0.000
2011,0.020,0.000
2012,0.015,0.000
2013,0.015,0.000
2014,0.015,0.000
2015,0.015,0.000
2016,0.015,0.000
2017,0.015,0.000
2018,0.020,0.000
2019,0.020,0.000
2020,0.015,0.000
2021,0.015,0.000
2022,0.010,0.000
2023,0.015,0.010
2024,0.010,0.005
2025,0.010,0.000
2026,0.015,0.000
2027,0.015,0.000
2028,0.015,0.000
2029,0.015,0.000
2030,0.010,0.000
2031,0.010,0.000
2032,0.015,0.000
2033,0.025,0.000
2034,0.045,0.000
2035,0.065,0.000
2036,0.080,0.000
2037,0.100,-0.005
2038,0.120,-0.030
2039,0.130,-0.050
2040,0.130,-0.065
2041,0.125,-0.060
2042,0.090,-0.050
2043,0.040,-0.015
2044,0.005,-0.010
2045,-0.005,0.000
2046,-0.005,0.000
2047,0.000,0.000
2048,0.000,0.000
2049,0.000,0.000
2050,-0.005,0.000
2051,-0.005,0.000
2052,-0.015,0.010
2053,-0.040,0.105
2054,0.040,-0.030
2055,0.280,-0.520
2056,0.540,-1.055
2057,0.565,-1.195
2058,0.265,-0.790
2059,0.050,-0.355
2060,-0.025,-0.100
2061,-0.050,0.000
2062,-0.055,0.070
2063,-0.050,0.105
2064,-0.040,0.125
2065,-0.040,0.135
2066,-0.045,0.135
2067,-0.040,0.135
2068,-0.050,0.140
2069,-0.050,0.140
2070,-0.040,0.140
2071,-0.040,0.140
2072,-0.055,0.140
2073,-0.060,0.140
2074,-0.060,0.140
2075,-0.060,0.140
2076,-0.060,0.140
2077,-0.060,0.135
2078,-0.065,0.135
2079,-0.065,0.140
2080,-0.070,0.135
2081,-0.080,0.130
2082,-0.080,0.115
2083,-0.075,0.115
2084,-0.070,0.110
2085,-0.060,0.080
2086,-0.055,0.070
2087,-0.045,0.065
2088,-0.050,0.045
2089,-0.040,0.045
2090,-0.035,0.040
2091,-0.035,0.040
2092,-0.030,0.020
2093,-0.010,0.020
2094,-0.010,0.000
2095,-0.005,0.000
2096,0.000,0.000
2097,0.000,0.000
2098,0.010,0.000
2099,0.015,0.000
2100,0.020,0.000
2101,0.015,0.000
2102,0.015,0.000
2103,0.020,0.000
2104,0.020,0.000
2105,0.025,0.000
2106,0.030,0.000
2107,0.015,0.000
2108,0.010,0.000
2109,0.015,0.000
2110,0.020,0.000
2111,0.010,0.000
2112,0.015,0.000
2113,0.015,0.000
2114,0.010,0.000
2115,0.010,0.000
2116,0.015,0.000
2117,0.015,0.000
2118,0.015,0.000
2119,0.020,0.000
2120,0.020,0.000
2121,0.025,0.000
2122,0.025,0.000
2123,0.040,0.000
2124,0.065,0.000
2125,0.065,0.000
2126,0.090,0.000
2127,0.115,-0.005
2128,0.130,-0.035
2129,0.130,-0.065
2130,0.130,-0.065
2131,0.115,-0.060
2132,0.085,-0.040
2133,0.040,-0.015
2134,0.020,-0.005
2135,0.000,0.000
2136,-0.005,0.000
2137,0.000,0.000
2138,0.000,0.000
2139,0.000,0.000
2140,0.000,-0.010
2141,-0.010,0.000
2142,-0.020,0.030
2143,-0.015,0.095
2144,0.075,-0.110
2145,0.345,-0.630
2146,0.575,-1.115
2147,0.520,-1.125
2148,0.230,-0.705
2149,0.030,-0.290
2150,-0.025,-0.065
2151,-0.040,0.020
2152,-0.050,0.070
2153,-0.050,0.115
2154,-0.055,0.130
2155,-0.050,0.130
2156,-0.045,0.140
2157,-0.050,0.135
2158,-0.045,0.130
2159,-0.055,0.135
2160,-0.055,0.135
2161,-0.045,0.125
2162,-0.050,0.125
2163,-0.060,0.135
2164,-0.060,0.130
2165,-0.065,0.140
2166,-0.075,0.135
2167,-0.070,0.115
2168,-0.070,0.115
2169,-0.085,0.130
2170,-0.075,0.125
2171,-0.090,0.115
2172,-0.085,0.110
2173,-0.080,0.095
2174,-0.085,0.090
2175,-0.090,0.070
2176,-0.070,0.070
2177,-0.070,0.065
2178,-0.070,0.065
2179,-0.065,0.045
2180,-0.050,0.045
2181,-0.025,0.020
2182,-0.020,0.020
2183,-0.015,0.020
2184,0.000,0.005
2185,0.000,0.000
2186,0.000,0.000
2187,0.000,0.000
2188,0.020,0.000
2189,0.030,0.000
2190,0.025,0.000
2191,0.015,0.000
2192,0.015,0.000
2193,0.025,0.000
2194,0.020,0.000
2195,0.020,0.000
2196,0.025,0.000
2197,0.030,0.000
2198,0.025,0.000
2199,0.010,0.005
2200,0.005,0.010
2201,0.020,0.010
2202,0.020,0.015
2203,0.015,0.010
2204,0.015,0.005
2205,0.010,0.015
2206,0.005,0.000
2207,0.025,0.000
2208,0.020,0.000
2209,0.015,0.000
2210,0.015,0.000
2211,0.015,0.000
2212,0.015,0.000
2213,0.030,0.000
2214,0.035,0.000
2215,0.055,0.000
2216,0.075,0.010
2217,0.090,0.000
2218,0.135,-0.035
2219,0.130,-0.040
2220,0.120,-0.045
2221,0.120,-0.045
2222,0.105,-0.030
2223,0.060,0.000
2224,0.015,0.000
2225,-0.005,0.000
2226,-0.010,0.000
2227,0.000,0.000
2228,0.000,0.000
2229,0.000,0.000
2230,0.000,0.000
2231,-0.005,0.000
2232,-0.010,0.025
2233,-0.010,0.100
2234,0.065,-0.025
2235,0.300,-0.460
2236,0.540,-0.970
2237,0.540,-1.120
2238,0.275,-0.785
2239,0.035,-0.345
2240,-0.040,-0.095
2241,-0.055,0.015
2242,-0.060,0.075
2243,-0.060,0.120
2244,-0.060,0.130
2245,-0.060,0.140
2246,-0.050,0.140
2247,-0.050,0.140
2248,-0.060,0.140
2249,-0.060,0.140
2250,-0.050,0.140
2251,-0.060,0.140
2252,-0.070,0.140
2253,-0.070,0.140
2254,-0.080,0.140
2255,-0.085,0.140
2256,-0.085,0.140
2257,-0.085,0.140
2258,-0.105,0.140
2259,-0.105,0.140
2260,-0.100,0.140
2261,-0.100,0.135
2262,-0.100,0.130
2263,-0.105,0.135
2264,-0.105,0.120
2265,-0.085,0.105
2266,-0.085,0.095
2267,-0.075,0.075
2268,-0.055,0.075
2269,-0.065,0.070
2270,-0.060,0.050
2271,-0.055,0.045
2272,-0.045,0.045
2273,-0.035,0.040
2274,-0.025,0.025
2275,-0.010,0.010
2276,0.000,0.000
2277,0.000,0.000
2278,0.000,0.000
2279,-0.005,0.000
2280,-0.005,0.000
2281,0.000,0.000
2282,0.005,0.000
2283,0.000,0.000
2284,0.000,0.000
2285,0.010,0.000
2286,0.010,0.000
2287,0.005,0.000
2288,0.010,0.010
2289,0.010,0.015
2290,0.005,0.010
2291,0.005,0.015
2292,0.005,0.015
2293,0.005,0.020
2294,0.015,0.015
2295,0.000,0.000
2296,0.000,0.005
2297,0.000,0.015
2298,0.000,0.020
2299,0.000,0.015
2300,0.010,0.000
2301,0.005,0.000
2302,0.005,0.000
2303,0.020,0.005
2304,0.035,0.020
2305,0.040,0.020
2306,0.060,0.015
2307,0.070,0.000
2308,0.095,-0.020
2309,0.115,-0.040
2310,0.120,-0.045
2311,0.110,-0.045
2312,0.080,-0.025
2313,0.035,0.000
2314,0.005,0.000
2315,-0.010,0.000
2316,-0.020,0.000
2317,-0.020,0.000
2318,-0.020,0.000
2319,-0.020,0.000
2320,-0.020,0.000
2321,-0.015,0.000
2322,-0.035,0.025
2323,-0.050,0.090
2324,0.025,-0.020
2325,0.255,-0.445
2326,0.515,-0.960
2327,0.565,-1.145
2328,0.325,-0.825
2329,0.050,-0.365
2330,-0.035,-0.090
2331,-0.060,0.020
2332,-0.065,0.085
2333,-0.065,0.130
2334,-0.065,0.140
2335,-0.060,0.140
2336,-0.060,0.150
2337,-0.065,0.160
2338,-0.070,0.150
2339,-0.070,0.165
2340,-0.070,0.165
2341,-0.070,0.165
2342,-0.075,0.165
2343,-0.080,0.165
2344,-0.075,0.165
2345,-0.070,0.165
2346,-0.085,0.165
2347,-0.085,0.165
2348,-0.085,0.150
2349,-0.100,0.160
2350,-0.105,0.165
2351,-0.095,0.140
2352,-0.105,0.140
2353,-0.110,0.120
2354,-0.105,0.115
2355,-0.105,0.110
2356,-0.085,0.100
2357,-0.075,0.100
2358,-0.075,0.080
2359,-0.070,0.070
2360,-0.065,0.070
2361,-0.055,0.055
2362,-0.040,0.045
2363,-0.025,0.025
2364,-0.015,0.020
2365,-0.010,0.015
2366,-0.005,0.005
2367,0.000,0.000
2368,0.000,0.000
2369,0.005,0.000
2370,0.010,0.000
2371,0.020,0.000
2372,0.015,0.000
2373,0.015,0.000
2374,0.015,0.000
2375,0.015,0.000
2376,0.015,0.000
2377,0.015,0.000
2378,0.010,0.000
2379,0.010,0.000
2380,0.010,0.015
2381,0.010,0.015
2382,0.010,0.015
2383,0.005,0.010
2384,0.000,0.005
2385,0.000,0.000
2386,0.005,0.000
2387,0.010,0.000
2388,0.010,0.005
2389,0.005,0.000
2390,0.005,0.000
2391,0.005,0.000
2392,0.015,0.000
2393,0.025,0.000
2394,0.060,0.000
2395,0.080,0.005
2396,0.095,0.000
2397,0.115,-0.020
2398,0.125,-0.050
2399,0.130,-0.060
2400,0.120,-0.065
2401,0.090,-0.040
2402,0.045,-0.010
2403,0.010,0.000
2404,-0.005,0.000
2405,-0.010,0.000
2406,-0.005,0.000
2407,-0.010,0.000
2408,-0.005,0.000
2409,-0.005,0.000
2410,-0.010,0.000
2411,-0.020,0.005
2412,-0.035,0.065
2413,0.000,0.010
2414,0.190,-0.355
2415,0.455,-0.890
2416,0.585,-1.180
2417,0.405,-0.955
2418,0.095,-0.470
2419,-0.020,-0.160
2420,-0.055,-0.015
2421,-0.065,0.050
2422,-0.065,0.095
2423,-0.055,0.115
2424,-0.045,0.135
2425,-0.040,0.140
2426,-0.055,0.140
2427,-0.055,0.140
2428,-0.055,0.140
2429,-0.060,0.140
2430,-0.060,0.140
2431,-0.060,0.140
2432,-0.060,0.140
2433,-0.060,0.140
2434,-0.060,0.140
2435,-0.060,0.140
2436,-0.065,0.140
2437,-0.075,0.140
2438,-0.085,0.140
2439,-0.095,0.130
2440,-0.095,0.135
2441,-0.085,0.120
2442,-0.085,0.110
2443,-0.080,0.110
2444,-0.080,0.095
2445,-0.080,0.080
2446,-0.080,0.070
2447,-0.070,0.070
2448,-0.060,0.070
2449,-0.055,0.050
2450,-0.045,0.040
2451,-0.030,0.030
2452,-0.015,0.020
2453,-0.015,0.010
2454,-0.010,0.005
2455,-0.005,0.000
2456,0.000,0.000
2457,0.005,0.000
2458,0.010,0.000
2459,0.015,0.000
2460,0.020,0.000
2461,0.020,0.000
2462,0.025,0.000
2463,0.025,0.000
2464,0.020,0.000
2465,0.020,0.000
2466,0.020,0.000
2467,0.020,0.000
2468,0.015,0.000
2469,0.010,0.000
2470,0.005,0.000
2471,0.010,0.000
2472,0.010,0.000
2473,0.015,0.000
2474,0.010,0.000
2475,0.010,0.000
2476,0.010,0.000
2477,0.010,0.000
2478,0.010,0.000
2479,0.010,0.000
2480,0.010,0.000
2481,0.010,0.000
2482,0.010,0.000
2483,0.030,0.000
2484,0.050,0.000
2485,0.080,0.000
2486,0.100,-0.015
2487,0.115,-0.040
2488,0.125,-0.060
2489,0.120,-0.065
2490,0.110,-0.065
2491,0.075,-0.040
2492,0.035,-0.015
2493,0.005,0.000
2494,-0.005,0.000
2495,-0.010,0.000
2496,-0.015,0.000
2497,-0.015,0.000
2498,-0.015,0.000
2499,-0.010,0.000
2500,-0.015,0.000
2501,-0.030,0.025
2502,-0.025,0.075
2503,0.050,-0.060
2504,0.275,-0.520
2505,0.525,-1.040
2506,0.545,-1.185
2507,0.290,-0.810
2508,0.025,-0.355
2509,-0.035,-0.105
2510,-0.060,0.010
2511,-0.055,0.065
2512,-0.050,0.115
2513,-0.050,0.115
2514,-0.050,0.120
2515,-0.055,0.140
2516,-0.055,0.140
2517,-0.055,0.140
2518,-0.055,0.140
2519,-0.055,0.140
2520,-0.050,0.140
2521,-0.035,0.140
2522,-0.035,0.130
2523,-0.035,0.130
2524,-0.065,0.115
2525,-0.070,0.130
2526,-0.070,0.135
2527,-0.070,0.140
2528,-0.075,0.130
2529,-0.080,0.130
2530,-0.080,0.120
2531,-0.095,0.115
2532,-0.105,0.110
2533,-0.085,0.110
2534,-0.065,0.090
2535,-0.060,0.070
2536,-0.065,0.070
2537,-0.070,0.070
2538,-0.060,0.055
2539,-0.045,0.045
2540,-0.030,0.035
2541,-0.025,0.025
2542,-0.015,0.015
2543,-0.005,0.005
2544,0.000,0.000
2545,0.000,0.000
2546,0.000,0.000
2547,0.005,0.000
2548,0.015,0.000
2549,0.015,0.000
2550,0.020,0.000
2551,0.020,0.000
2552,0.025,0.000
2553,0.020,0.000
2554,0.025,0.000
2555,0.025,0.000
2556,0.020,0.000
2557,0.020,0.000
2558,0.015,0.000
2559,0.000,0.000
2560,0.010,0.000
2561,0.010,0.000
2562,0.010,0.000
2563,0.010,0.000
2564,0.005,0.000
2565,0.005,0.000
2566,0.010,0.000
2567,0.010,0.000
2568,0.015,0.000
2569,0.005,0.000
2570,0.000,0.000
2571,0.010,0.000
2572,0.020,0.000
2573,0.025,0.000
2574,0.040,0.010
2575,0.065,0.005
2576,0.100,-0.010
2577,0.130,-0.040
2578,0.130,-0.060
2579,0.120,-0.065
2580,0.110,-0.070
2581,0.090,-0.055
2582,0.050,-0.030
2583,0.010,-0.010
2584,-0.005,0.000
2585,-0.015,0.000
2586,-0.010,0.000
2587,-0.005,0.000
2588,0.000,0.000
2589,-0.005,0.000
2590,-0.005,0.000
2591,-0.020,0.015
2592,-0.015,0.065
2593,0.035,0.000
2594,0.225,-0.410
2595,0.505,-0.970
2596,0.580,-1.220
2597,0.330,-0.880
2598,0.045,-0.390
2599,-0.025,-0.120
2600,-0.035,0.000
2601,-0.050,0.060
2602,-0.055,0.110
2603,-0.035,0.115
2604,-0.030,0.115
2605,-0.035,0.135
2606,-0.060,0.120
2607,-0.055,0.130
2608,-0.055,0.135
2609,-0.055,0.140
2610,-0.030,0.115
2611,-0.050,0.135
2612,-0.060,0.140
2613,-0.065,0.140
2614,-0.075,0.140
2615,-0.075,0.140
2616,-0.070,0.140
2617,-0.085,0.140
2618,-0.085,0.125
2619,-0.075,0.115
2620,-0.085,0.115
2621,-0.095,0.115
2622,-0.090,0.105
2623,-0.090,0.100
2624,-0.090,0.085
2625,-0.080,0.070
2626,-0.075,0.070
2627,-0.080,0.070
2628,-0.070,0.055
2629,-0.060,0.045
2630,-0.050,0.040
2631,-0.035,0.030
2632,-0.030,0.015
2633,-0.015,0.010
2634,0.000,0.000
2635,0.000,0.000
2636,0.000,0.000
2637,0.000,0.000
2638,0.015,0.000
2639,0.020,0.000
2640,0.015,0.000
2641,0.015,0.000
2642,0.025,0.000
2643,0.020,0.000
2644,0.015,0.000
2645,0.015,0.000
2646,0.025,0.000
2647,0.030,0.000
2648,0.015,0.000
2649,0.005,0.005
2650,0.005,0.010
2651,0.010,0.015
2652,0.015,0.010
2653,0.015,0.000
2654,0.020,0.000
2655,0.005,0.005
2656,0.005,0.000
2657,0.010,0.000
2658,0.005,0.000
2659,0.015,0.000
2660,0.025,0.000
2661,0.010,0.000
2662,0.020,0.000
2663,0.040,0.000
2664,0.060,0.000
2665,0.075,0.000
2666,0.095,0.000
2667,0.110,-0.015
2668,0.125,-0.045
2669,0.145,-0.060
2670,0.145,-0.060
2671,0.105,-0.040
2672,0.050,-0.010
2673,0.015,0.000
2674,0.005,0.000
2675,0.000,0.000
2676,-0.005,0.000
2677,-0.005,0.000
2678,0.000,0.000
2679,0.005,0.000
2680,0.005,0.000
2681,-0.015,0.015
2682,-0.020,0.075
2683,0.025,0.025
2684,0.230,-0.365
2685,0.545,-0.920
2686,0.585,-1.200
2687,0.315,-0.840
2688,0.035,-0.365
2689,-0.015,-0.100
2690,-0.030,0.005
2691,-0.055,0.075
2692,-0.050,0.110
2693,-0.040,0.115
2694,-0.065,0.135
2695,-0.070,0.140
2696,-0.075,0.140
2697,-0.070,0.140
2698,-0.065,0.140
2699,-0.075,0.140
2700,-0.065,0.140
2701,-0.065,0.140
2702,-0.070,0.140
2703,-0.075,0.135
2704,-0.085,0.135
2705,-0.080,0.140
2706,-0.075,0.140
2707,-0.080,0.140
2708,-0.095,0.140
2709,-0.105,0.140
2710,-0.105,0.135
2711,-0.105,0.120
2712,-0.105,0.115
2713,-0.100,0.110
2714,-0.100,0.100
2715,-0.090,0.095
2716,-0.075,0.085
2717,-0.080,0.075
2718,-0.075,0.070
2719,-0.065,0.060
2720,-0.060,0.045
2721,-0.040,0.040
2722,-0.020,0.025
2723,-0.020,0.020
2724,-0.015,0.020
2725,-0.005,0.015
2726,0.000,0.000
2727,0.005,0.000
2728,0.005,0.000
2729,0.015,0.000
2730,0.015,0.000
2731,0.015,0.000
2732,0.005,0.000
2733,0.005,0.000
2734,0.005,0.000
2735,0.005,0.005
2736,0.005,0.000
2737,0.005,0.000
2738,0.005,0.000
2739,0.010,0.000
2740,0.000,0.015
2741,0.005,0.020
2742,0.010,0.015
2743,0.010,0.000
2744,0.005,0.000
2745,0.005,0.005
2746,0.005,0.015
2747,0.000,0.005
2748,0.000,0.000
2749,0.005,0.000
2750,0.010,0.000
2751,0.015,0.000
2752,0.015,0.000
2753,0.020,0.005
2754,0.040,0.015
2755,0.070,0.010
2756,0.090,-0.005
2757,0.110,-0.030
2758,0.120,-0.050
2759,0.115,-0.055
2760,0.110,-0.050
2761,0.080,-0.020
2762,0.030,0.000
2763,0.000,0.000
2764,-0.020,0.000
2765,-0.020,0.000
2766,-0.020,0.000
2767,-0.015,0.000
2768,-0.010,0.000
2769,-0.005,0.000
2770,-0.015,0.000
2771,-0.040,0.020
2772,-0.045,0.125
2773,0.055,-0.055
2774,0.315,-0.570
2775,0.585,-1.100
2776,0.590,-1.175
2777,0.225,-0.705
2778,0.020,-0.295
2779,-0.040,-0.060
2780,-0.055,0.025
2781,-0.065,0.095
2782,-0.055,0.125
2783,-0.055,0.135
2784,-0.055,0.140
2785,-0.055,0.140
2786,-0.060,0.140
2787,-0.060,0.140
2788,-0.060,0.140
2789,-0.060,0.140
2790,-0.060,0.140
2791,-0.060,0.140
2792,-0.065,0.140
2793,-0.070,0.140
2794,-0.070,0.140
2795,-0.070,0.140
2796,-0.075,0.140
2797,-0.080,0.140
2798,-0.085,0.140
2799,-0.090,0.140
2800,-0.095,0.140
2801,-0.100,0.135
2802,-0.090,0.125
2803,-0.085,0.115
2804,-0.080,0.110
2805,-0.080,0.090
2806,-0.070,0.070
2807,-0.065,0.065
2808,-0.060,0.060
2809,-0.050,0.055
2810,-0.040,0.040
2811,-0.035,0.030
2812,-0.020,0.015
2813,-0.005,0.010
2814,0.000,0.000
2815,0.000,0.000
2816,0.010,0.000
2817,0.010,0.000
2818,0.015,0.000
2819,0.020,0.000
2820,0.025,0.000
2821,0.030,0.000
2822,0.030,0.000
2823,0.025,0.000
2824,0.025,0.000
2825,0.020,0.000
2826,0.015,0.000
2827,0.020,0.000
2828,0.025,0.000
2829,0.020,0.000
2830,0.015,0.000
2831,0.015,0.000
2832,0.015,0.000
2833,0.020,0.000
2834,0.015,0.000
2835,0.015,0.000
2836,0.010,0.000
2837,0.010,0.000
2838,0.015,0.000
2839,0.015,0.000
2840,0.015,0.000
2841,0.020,0.000
2842,0.035,0.000
2843,0.060,0.000
2844,0.080,0.000
2845,0.095,-0.010
2846,0.115,-0.040
2847,0.130,-0.065
2848,0.125,-0.065
2849,0.115,-0.055
2850,0.075,-0.030
2851,0.025,-0.015
2852,0.000,-0.010
2853,-0.010,0.000
2854,-0.015,0.000
2855,-0.015,0.000
2856,-0.015,0.000
2857,-0.015,0.000
2858,-0.015,0.000
2859,-0.015,0.000
2860,-0.030,0.025
2861,-0.035,0.115
2862,0.065,-0.105
2863,0.340,-0.625
2864,0.575,-1.140
2865,0.540,-1.160
2866,0.200,-0.685
2867,0.015,-0.280
2868,-0.045,-0.065
2869,-0.055,0.015
2870,-0.060,0.080
2871,-0.045,0.110
2872,-0.040,0.115
2873,-0.050,0.115
2874,-0.055,0.130
2875,-0.055,0.140
2876,-0.060,0.140
2877,-0.060,0.135
2878,-0.050,0.135
2879,-0.050,0.140
2880,-0.055,0.140
2881,-0.060,0.140
2882,-0.060,0.140
2883,-0.060,0.140
2884,-0.070,0.140
2885,-0.075,0.140
2886,-0.080,0.140
2887,-0.075,0.140
2888,-0.080,0.130
2889,-0.095,0.115
2890,-0.105,0.115
2891,-0.095,0.110
2892,-0.095,0.105
2893,-0.085,0.095
2894,-0.080,0.090
2895,-0.070,0.070
2896,-0.065,0.070
2897,-0.060,0.065
2898,-0.055,0.045
2899,-0.040,0.040
2900,-0.030,0.025
2901,-0.015,0.015
2902,-0.010,0.005
2903,-0.005,0.000
2904,0.000,0.000
2905,0.000,0.000
2906,0.000,0.000
2907,0.005,0.000
2908,0.015,0.000
2909,0.020,0.000
2910,0.020,0.000
2911,0.020,0.000
2912,0.020,0.000
2913,0.025,0.000
2914,0.020,0.000
2915,0.020,0.000
2916,0.020,0.000
2917,0.010,0.005
2918,0.000,0.000
2919,0.000,0.000
2920,0.000,0.005
2921,0.005,0.010
2922,0.005,0.020
2923,0.005,0.010
2924,0.010,0.000
2925,0.010,0.000
2926,0.010,0.000
2927,0.015,0.000
2928,0.010,0.000
2929,0.010,0.000
2930,0.020,0.000
2931,0.030,0.000
2932,0.050,0.000
2933,0.070,0.000
2934,0.095,-0.005
2935,0.115,-0.025
2936,0.130,-0.045
2937,0.130,-0.065
2938,0.125,-0.060
2939,0.115,-0.050
2940,0.075,-0.020
2941,0.010,-0.015
2942,0.000,0.000
2943,-0.010,0.000
2944,-0.010,0.000
2945,-0.005,0.000
2946,-0.005,0.000
2947,-0.005,0.000
2948,-0.005,0.000
2949,-0.015,0.000
2950,-0.035,0.070
2951,0.000,0.055
2952,0.180,-0.315
2953,0.465,-0.885
2954,0.580,-1.220
2955,0.365,-0.965
2956,0.095,-0.500
2957,-0.025,-0.180
2958,-0.055,-0.025
2959,-0.065,0.045
2960,-0.060,0.095
2961,-0.055,0.110
2962,-0.055,0.115
2963,-0.045,0.115
2964,-0.050,0.115
2965,-0.055,0.125
2966,-0.055,0.135
2967,-0.040,0.140
2968,-0.040,0.135
2969,-0.065,0.135
2970,-0.075,0.140
2971,-0.070,0.140
2972,-0.070,0.135
2973,-0.075,0.135
2974,-0.085,0.140
2975,-0.100,0.135
2976,-0.095,0.125
2977,-0.090,0.115
2978,-0.085,0.125
2979,-0.090,0.115
2980,-0.100,0.110
2981,-0.090,0.105
2982,-0.085,0.090
2983,-0.080,0.070
2984,-0.075,0.065
2985,-0.065,0.060
2986,-0.060,0.045
2987,-0.060,0.045
2988,-0.060,0.045
2989,-0.050,0.020
2990,-0.030,0.020
2991,-0.025,0.015
2992,-0.015,0.000
2993,0.000,0.000
2994,0.005,0.000
2995,0.010,0.000
2996,0.010,0.000
2997,0.020,0.000
2998,0.025,0.000
2999,0.025,0.000
3000,0.020,0.000
3001,0.015,0.000
3002,0.020,0.000
3003,0.025,0.000
3004,0.015,0.000
3005,0.020,0.000
3006,0.020,0.000
3007,0.010,0.000
3008,0.005,0.005
3009,0.010,0.015
3010,0.010,0.010
3011,0.015,0.000
3012,0.005,0.005
3013,0.005,0.000
3014,0.020,0.000
3015,0.020,0.000
3016,0.015,0.000
3017,0.010,0.000
3018,0.005,0.000
3019,0.005,0.000
3020,0.015,0.000
3021,0.025,0.000
3022,0.030,0.000
3023,0.040,0.000
3024,0.065,0.000
3025,0.080,0.000
3026,0.100,-0.025
3027,0.135,-0.060
3028,0.120,-0.065
3029,0.105,-0.060
3030,0.095,-0.045
3031,0.045,-0.015
3032,0.010,0.000
3033,-0.010,0.000
3034,-0.015,0.000
3035,-0.020,0.000
3036,-0.015,0.000
3037,-0.010,0.000
3038,-0.005,0.000
3039,-0.015,0.000
3040,-0.025,0.005
3041,-0.040,0.100
3042,0.020,0.000
3043,0.235,-0.430
3044,0.490,-0.965
3045,0.550,-1.160
3046,0.290,-0.850
3047,0.045,-0.405
3048,-0.040,-0.120
3049,-0.050,0.000
3050,-0.060,0.065
3051,-0.070,0.105
3052,-0.065,0.115
3053,-0.070,0.120
3054,-0.065,0.125
3055,-0.065,0.140
3056,-0.075,0.140
3057,-0.070,0.135
3058,-0.065,0.135
3059,-0.070,0.140
3060,-0.075,0.140
3061,-0.070,0.140
3062,-0.070,0.135
3063,-0.080,0.135
3064,-0.095,0.135
3065,-0.080,0.135
3066,-0.095,0.135
3067,-0.125,0.130
3068,-0.115,0.115
3069,-0.105,0.115
3070,-0.100,0.110
3071,-0.105,0.105
3072,-0.115,0.095
3073,-0.115,0.075
3074,-0.085,0.070
3075,-0.085,0.070
3076,-0.100,0.050
3077,-0.085,0.045
3078,-0.055,0.045
3079,-0.065,0.045
3080,-0.070,0.030
3081,-0.055,0.020
3082,-0.015,0.005
3083,-0.020,0.000
3084,-0.015,0.000
3085,-0.010,0.000
3086,-0.005,0.000
3087,0.005,0.000
3088,0.005,0.000
3089,0.000,0.000
3090,0.000,0.000
3091,0.005,0.000
3092,0.020,0.000
3093,0.010,0.000
3094,0.000,0.000
3095,0.000,0.000
3096,0.000,0.000
3097,0.000,0.000
3098,0.000,0.000
3099,0.000,0.005
3100,0.000,0.015
3101,0.000,0.015
3102,-0.005,0.010
3103,0.000,0.010
3104,0.000,0.005
3105,-0.005,0.000
3106,0.000,0.000
3107,-0.005,0.005
3108,-0.005,0.005
3109,-0.005,0.000
3110,0.000,0.000
3111,0.000,0.000
3112,0.015,0.000
3113,0.025,0.000
3114,0.040,0.015
3115,0.060,0.010
3116,0.085,0.000
3117,0.110,-0.030
3118,0.130,-0.040
3119,0.135,-0.055
3120,0.100,-0.045
3121,0.060,-0.015
3122,0.010,0.000
3123,-0.015,0.000
3124,-0.020,0.000
3125,-0.025,0.000
3126,-0.030,0.000
3127,-0.020,0.000
3128,-0.010,0.000
3129,-0.015,0.000
3130,-0.045,0.010
3131,-0.070,0.070
3132,-0.040,0.085
3133,0.095,-0.155
3134,0.365,-0.665
3135,0.555,-1.085
3136,0.450,-1.025
3137,0.165,-0.605
3138,-0.015,-0.230
3139,-0.065,-0.040
3140,-0.080,0.040
3141,-0.080,0.095
3142,-0.080,0.120
3143,-0.080,0.140
3144,-0.085,0.140
3145,-0.075,0.140
3146,-0.075,0.150
3147,-0.080,0.160
3148,-0.100,0.140
3149,-0.095,0.140
3150,-0.095,0.140
3151,-0.090,0.140
3152,-0.095,0.140
3153,-0.095,0.140
3154,-0.105,0.145
3155,-0.105,0.140
3156,-0.105,0.140
3157,-0.110,0.140
3158,-0.110,0.140
3159,-0.115,0.140
3160,-0.115,0.140
3161,-0.115,0.135
3162,-0.110,0.115
3163,-0.110,0.115
3164,-0.105,0.115
3165,-0.095,0.110
3166,-0.100,0.095
3167,-0.100,0.080
3168,-0.085,0.070
3169,-0.065,0.070
3170,-0.060,0.060
3171,-0.055,0.045
3172,-0.045,0.035
3173,-0.030,0.025
3174,-0.020,0.020
3175,-0.010,0.015
3176,-0.005,0.005
3177,0.000,0.000
3178,0.000,0.000
3179,0.005,0.000
3180,0.005,0.000
3181,0.005,0.000
3182,0.010,0.000
3183,0.010,0.000
3184,0.005,0.000
3185,0.005,0.010
3186,0.000,0.020
3187,0.000,0.020
3188,0.000,0.020
3189,0.000,0.020
3190,0.000,0.020
3191,0.000,0.020
3192,0.000,0.020
3193,0.000,0.015
3194,0.000,0.005
3195,0.000,0.010
3196,0.000,0.005
3197,0.000,0.000
3198,0.000,0.000
3199,0.000,0.000
3200,0.005,0.000
3201,0.005,0.000
3202,0.005,0.000
3203,0.020,0.015
3204,0.035,0.020
3205,0.065,0.000
3206,0.095,0.000
3207,0.105,-0.035
3208,0.110,-0.050
3209,0.100,-0.055
3210,0.080,-0.035
3211,0.040,-0.005
3212,0.005,0.000
3213,-0.015,0.000
3214,-0.035,0.000
3215,-0.040,0.000
3216,-0.035,0.000
3217,-0.035,0.000
3218,-0.035,0.000
3219,-0.035,0.000
3220,-0.045,0.010
3221,-0.065,0.070
3222,-0.040,0.060
3223,0.110,-0.220
3224,0.370,-0.745
3225,0.555,-1.140
3226,0.440,-1.045
3227,0.145,-0.580
3228,-0.020,-0.210
3229,-0.070,-0.030
3230,-0.080,0.040
3231,-0.080,0.100
3232,-0.070,0.120
3233,-0.070,0.135
3234,-0.070,0.140
3235,-0.070,0.145
3236,-0.080,0.140
3237,-0.085,0.140
3238,-0.080,0.140
3239,-0.075,0.140
3240,-0.075,0.140
3241,-0.075,0.140
3242,-0.075,0.140
3243,-0.075,0.140
3244,-0.085,0.140
3245,-0.100,0.140
3246,-0.105,0.140
3247,-0.110,0.140
3248,-0.105,0.140
3249,-0.115,0.140
3250,-0.120,0.140
3251,-0.100,0.140
3252,-0.115,0.120
3253,-0.115,0.115
3254,-0.110,0.100
3255,-0.095,0.095
3256,-0.095,0.085
3257,-0.085,0.070
3258,-0.075,0.060
3259,-0.065,0.050
3260,-0.055,0.045
3261,-0.045,0.030
3262,-0.035,0.010
3263,-0.025,0.005
3264,-0.020,0.000
3265,-0.010,0.000
3266,-0.005,0.000
3267,0.000,0.000
3268,0.000,0.000
3269,0.005,0.000
3270,0.005,0.000
3271,0.000,0.000
3272,0.000,0.000
3273,0.010,0.000
3274,0.005,0.000
3275,0.000,0.000
3276,0.000,0.000
3277,0.000,0.000
3278,0.000,0.000
3279,0.000,0.010
3280,0.000,0.005
3281,0.000,0.000
3282,0.000,0.010
3283,0.000,0.000
3284,0.000,0.015
3285,-0.005,0.000
3286,-0.010,0.000
3287,0.000,0.000
3288,-0.010,0.000
3289,-0.005,0.000
3290,-0.005,0.000
3291,0.000,0.000
3292,0.015,0.000
3293,0.020,0.000
3294,0.040,0.000
3295,0.060,0.000
3296,0.090,-0.020
3297,0.100,-0.050
3298,0.105,-0.060
3299,0.095,-0.065
3300,0.080,-0.050
3301,0.040,-0.025
3302,0.000,-0.005
3303,-0.025,0.000
3304,-0.040,0.000
3305,-0.045,0.000
3306,-0.040,0.000
3307,-0.035,0.000
3308,-0.030,0.000
3309,-0.025,0.000
3310,-0.035,0.005
3311,-0.055,0.060
3312,-0.025,0.060
3313,0.125,-0.245
3314,0.385,-0.780
3315,0.545,-1.170
3316,0.415,-1.060
3317,0.100,-0.555
3318,-0.025,-0.195
3319,-0.070,-0.020
3320,-0.080,0.030
3321,-0.075,0.095
3322,-0.070,0.115
3323,-0.070,0.140
3324,-0.070,0.140
3325,-0.070,0.140
3326,-0.070,0.140
3327,-0.075,0.140
3328,-0.075,0.140
3329,-0.075,0.140
3330,-0.075,0.140
3331,-0.075,0.140
3332,-0.075,0.140
3333,-0.080,0.140
3334,-0.080,0.140
3335,-0.095,0.140
3336,-0.100,0.140
3337,-0.090,0.145
3338,-0.100,0.145
3339,-0.110,0.140
3340,-0.115,0.140
3341,-0.115,0.120
3342,-0.110,0.115
3343,-0.105,0.105
3344,-0.095,0.110
3345,-0.080,0.105
3346,-0.080,0.080
3347,-0.080,0.070
3348,-0.070,0.060
3349,-0.050,0.050
3350,-0.035,0.035
3351,-0.025,0.020
3352,-0.015,0.010
3353,-0.005,0.005
3354,0.000,0.000
3355,0.000,0.000
3356,0.000,0.000
3357,0.005,0.000
3358,0.005,0.000
3359,0.005,0.000
3360,0.010,0.000
3361,0.005,0.000
3362,0.005,0.000
3363,0.010,0.000
3364,0.015,0.000
3365,0.010,0.000
3366,0.015,0.000
3367,0.010,0.000
3368,0.000,0.000
3369,0.015,0.000
3370,0.015,0.015
3371,0.000,0.010
3372,0.000,0.010
3373,0.000,0.000
3374,0.000,0.000
3375,0.005,0.000
3376,0.005,0.000
3377,0.000,0.000
3378,0.005,0.000
3379,0.010,0.000
3380,0.000,0.000
3381,0.000,0.000
3382,0.015,0.000
3383,0.035,0.000
3384,0.050,0.010
3385,0.065,0.010
3386,0.090,-0.010
3387,0.115,-0.040
3388,0.125,-0.060
3389,0.125,-0.065
3390,0.115,-0.055
3391,0.080,-0.035
3392,0.035,-0.010
3393,0.000,0.000
3394,-0.010,0.000
3395,-0.010,0.000
3396,-0.015,0.000
3397,-0.015,0.000
3398,-0.015,0.000
3399,-0.015,0.000
3400,-0.015,0.000
3401,-0.030,0.025
3402,-0.045,0.090
3403,0.030,-0.020
3404,0.255,-0.475
3405,0.525,-1.015
3406,0.550,-1.210
3407,0.270,-0.820
3408,0.020,-0.340
3409,-0.035,-0.075
3410,-0.060,0.015
3411,-0.065,0.080
3412,-0.060,0.130
3413,-0.055,0.140
3414,-0.055,0.140
3415,-0.055,0.140
3416,-0.060,0.140
3417,-0.065,0.140
3418,-0.060,0.140
3419,-0.060,0.140
3420,-0.065,0.140
3421,-0.065,0.140
3422,-0.065,0.140
3423,-0.080,0.140
3424,-0.080,0.140
3425,-0.080,0.140
3426,-0.080,0.140
3427,-0.085,0.140
3428,-0.100,0.140
3429,-0.110,0.140
3430,-0.110,0.125
3431,-0.110,0.115
3432,-0.105,0.115
3433,-0.105,0.100
3434,-0.095,0.095
3435,-0.090,0.080
3436,-0.080,0.070
3437,-0.070,0.070
3438,-0.070,0.065
3439,-0.065,0.055
3440,-0.055,0.040
3441,-0.040,0.030
3442,-0.025,0.015
3443,-0.015,0.000
3444,-0.010,0.000
3445,-0.015,0.000
3446,-0.005,0.000
3447,0.015,0.000
3448,0.025,0.000
3449,0.005,0.000
3450,0.005,0.000
3451,0.015,0.000
3452,0.020,0.000
3453,0.025,0.000
3454,0.025,0.000
3455,0.010,0.000
3456,0.010,0.000
3457,0.000,0.000
3458,0.005,0.000
3459,0.015,0.000
3460,0.020,0.005
3461,0.020,0.000
3462,0.015,0.000
3463,0.010,0.010
3464,0.000,0.010
3465,0.010,0.000
3466,0.010,0.000
3467,0.000,0.000
3468,0.000,0.000
3469,0.005,0.000
3470,0.010,0.000
3471,0.015,0.000
3472,0.020,0.000
3473,0.030,0.000
3474,0.020,0.000
3475,0.045,0.000
3476,0.080,0.000
3477,0.110,0.000
3478,0.130,-0.025
3479,0.130,-0.055
3480,0.130,-0.065
3481,0.120,-0.055
3482,0.100,-0.035
3483,0.060,-0.010
3484,0.015,0.000
3485,0.000,0.000
3486,-0.010,0.000
3487,0.000,0.000
3488,0.000,0.000
3489,-0.010,0.000
3490,-0.010,0.000
3491,0.000,0.000
3492,-0.010,0.010
3493,-0.030,0.075
3494,0.025,0.020
3495,0.240,-0.375
3496,0.540,-0.930
3497,0.600,-1.205
3498,0.330,-0.845
3499,0.055,-0.370
3500,-0.030,-0.095
3501,-0.045,0.000
3502,-0.050,0.070
3503,-0.065,0.105
3504,-0.040,0.110
3505,-0.050,0.130
3506,-0.065,0.135
3507,-0.060,0.140
3508,-0.040,0.140
3509,-0.055,0.140
3510,-0.055,0.140
3511,-0.065,0.140
3512,-0.075,0.140
3513,-0.065,0.140
3514,-0.065,0.140
3515,-0.065,0.140
3516,-0.065,0.140
3517,-0.065,0.135
3518,-0.070,0.135
3519,-0.070,0.125
3520,-0.075,0.115
3521,-0.085,0.115
3522,-0.085,0.115
3523,-0.080,0.115
3524,-0.090,0.110
3525,-0.090,0.100
3526,-0.070,0.090
3527,-0.065,0.075
3528,-0.070,0.070
3529,-0.065,0.070
3530,-0.055,0.065
3531,-0.040,0.060
3532,-0.035,0.040
3533,-0.030,0.025
3534,-0.020,0.020
3535,-0.010,0.015
3536,-0.005,0.005
3537,0.000,0.000
3538,0.010,0.000
3539,0.015,0.000
3540,0.010,0.000
3541,0.010,0.000
3542,0.010,0.000
3543,0.015,0.000
3544,0.020,0.000
3545,0.020,0.000
3546,0.020,0.000
3547,0.015,0.000
3548,0.010,0.000
3549,0.010,0.000
3550,0.015,0.000
3551,0.005,0.015
3552,0.005,0.020
3553,0.005,0.020
3554,0.005,0.020
3555,0.005,0.020
3556,0.010,0.020
3557,0.010,0.020
3558,0.010,0.010
3559,0.005,0.010
3560,0.005,0.005
3561,0.010,0.000
3562,0.015,0.000
3563,0.015,0.000
3564,0.015,0.005
3565,0.035,0.015
3566,0.070,0.010
3567,0.100,0.000
3568,0.110,-0.015
3569,0.120,-0.035
3570,0.120,-0.045
3571,0.130,-0.045
3572,0.105,-0.035
3573,0.050,-0.010
3574,0.005,0.000
3575,-0.005,0.000
3576,-0.015,0.000
3577,-0.015,0.000
3578,-0.015,0.000
3579,-0.015,0.000
3580,-0.020,0.000
3581,-0.015,0.000
3582,-0.020,0.005
3583,-0.050,0.095
3584,-0.005,0.060
3585,0.195,-0.350
3586,0.515,-0.920
3587,0.615,-1.210
3588,0.365,-0.895
3589,0.075,-0.405
3590,-0.025,-0.115
3591,-0.060,0.000
3592,-0.075,0.070
3593,-0.065,0.120
3594,-0.065,0.135
3595,-0.065,0.140
3596,-0.060,0.140
3597,-0.060,0.150
3598,-0.065,0.150
3599,-0.065,0.140
3600,-0.065,0.140
3601,-0.065,0.145
3602,-0.060,0.155
3603,-0.065,0.155
3604,-0.075,0.145
3605,-0.080,0.140
3606,-0.080,0.140
3607,-0.080,0.150
3608,-0.080,0.145
3609,-0.095,0.140
3610,-0.105,0.140
3611,-0.105,0.140
3612,-0.105,0.140
3613,-0.105,0.130
3614,-0.105,0.115
3615,-0.100,0.110
3616,-0.090,0.105
3617,-0.090,0.090
3618,-0.085,0.070
3619,-0.080,0.070
3620,-0.075,0.065
3621,-0.065,0.055
3622,-0.050,0.040
3623,-0.035,0.035
3624,-0.030,0.015
3625,-0.020,0.010
3626,-0.010,0.005
3627,-0.005,0.000
3628,0.000,0.000
3629,0.000,0.000
3630,0.010,0.000
3631,0.015,0.000
3632,0.015,0.000
3633,0.015,0.000
3634,0.010,0.000
3635,0.015,0.000
3636,0.010,0.000
3637,0.010,0.000
3638,0.010,0.000
3639,0.010,0.005
3640,0.005,0.010
3641,0.000,0.005
3642,0.000,0.010
3643,0.000,0.015
3644,0.005,0.020
3645,0.005,0.020
3646,0.010,0.020
3647,0.005,0.010
3648,0.000,0.005
3649,0.000,0.000
3650,0.000,0.000
3651,0.005,0.005
3652,0.010,0.000
3653,0.015,0.005
3654,0.030,0.015
3655,0.045,0.010
3656,0.075,0.000
3657,0.100,-0.005
3658,0.110,-0.030
3659,0.120,-0.055
3660,0.120,-0.060
3661,0.110,-0.045
3662,0.070,-0.020
3663,0.025,0.000
3664,0.000,0.000
3665,-0.010,0.000
3666,-0.015,0.000
3667,-0.010,0.000
3668,-0.010,0.000
3669,-0.015,0.000
3670,-0.015,0.000
3671,-0.015,0.000
3672,-0.035,0.035
3673,-0.035,0.120
3674,0.085,-0.135
3675,0.370,-0.695
3676,0.585,-1.155
3677,0.515,-1.115
3678,0.185,-0.640
3679,0.005,-0.250
3680,-0.050,-0.050
3681,-0.060,0.030
3682,-0.060,0.090
3683,-0.055,0.130
3684,-0.045,0.140
3685,-0.050,0.140
3686,-0.060,0.140
3687,-0.060,0.140
3688,-0.060,0.140
3689,-0.060,0.140
3690,-0.055,0.140
3691,-0.055,0.140
3692,-0.055,0.140
3693,-0.055,0.140
3694,-0.065,0.140
3695,-0.060,0.140
3696,-0.060,0.145
3697,-0.070,0.140
3698,-0.080,0.140
3699,-0.080,0.140
3700,-0.085,0.140
3701,-0.080,0.135
3702,-0.080,0.125
3703,-0.080,0.110
3704,-0.075,0.105
3705,-0.070,0.095
3706,-0.070,0.090
3707,-0.065,0.080
3708,-0.060,0.070
3709,-0.055,0.065
3710,-0.045,0.045
3711,-0.030,0.040
3712,-0.025,0.035
3713,-0.015,0.020
3714,-0.005,0.020
3715,-0.005,0.005
3716,0.005,0.000
3717,0.015,0.000
3718,0.020,0.000
3719,0.020,0.000
3720,0.020,0.000
3721,0.025,0.000
3722,0.030,0.000
3723,0.035,0.000
3724,0.035,0.000
3725,0.025,0.000
3726,0.020,0.000
3727,0.020,0.000
3728,0.020,0.000
3729,0.020,0.005
3730,0.020,0.010
3731,0.020,0.015
3732,0.020,0.020
3733,0.015,0.010
3734,0.015,0.005
3735,0.015,0.000
3736,0.015,0.000
3737,0.015,0.000
3738,0.020,0.000
3739,0.015,0.000
3740,0.010,0.000
3741,0.010,0.000
3742,0.015,0.000
3743,0.025,0.000
3744,0.040,0.000
3745,0.060,0.000
3746,0.090,0.000
3747,0.110,-0.005
3748,0.125,-0.035
3749,0.130,-0.065
3750,0.130,-0.065
3751,0.110,-0.060
3752,0.075,-0.030
3753,0.030,0.000
3754,0.005,0.000
3755,0.000,0.000
3756,-0.005,0.000
3757,-0.005,0.000
3758,-0.010,0.000
3759,-0.005,0.000
3760,-0.005,0.000
3761,-0.005,0.000
3762,-0.030,0.030
3763,-0.020,0.115
3764,0.075,-0.110
3765,0.345,-0.645
3766,0.560,-1.130
3767,0.495,-1.130
3768,0.210,-0.695
3769,0.025,-0.290
3770,-0.030,-0.070
3771,-0.040,0.020
3772,-0.045,0.080
3773,-0.040,0.110
3774,-0.040,0.120
3775,-0.035,0.135
3776,-0.035,0.140
3777,-0.030,0.140
3778,-0.035,0.140
3779,-0.045,0.140
3780,-0.050,0.140
3781,-0.050,0.140
3782,-0.055,0.140
3783,-0.055,0.140
3784,-0.055,0.140
3785,-0.055,0.140
3786,-0.065,0.140
3787,-0.065,0.140
3788,-0.065,0.140
3789,-0.070,0.140
3790,-0.070,0.135
3791,-0.070,0.115
3792,-0.070,0.115
3793,-0.070,0.110
3794,-0.070,0.095
3795,-0.065,0.090
3796,-0.060,0.075
3797,-0.060,0.070
3798,-0.060,0.070
3799,-0.055,0.060
3800,-0.040,0.045
3801,-0.030,0.045
3802,-0.025,0.035
3803,-0.010,0.020
3804,-0.005,0.010
3805,0.000,0.000
3806,0.000,0.000
3807,0.020,0.000
3808,0.030,0.000
3809,0.030,0.000
3810,0.030,0.000
3811,0.030,0.000
3812,0.035,0.000
3813,0.035,0.000
3814,0.040,0.000
3815,0.045,0.000
3816,0.045,0.000
3817,0.030,0.000
3818,0.020,0.000
3819,0.025,0.000
3820,0.025,0.010
3821,0.020,0.010
3822,0.015,0.000
3823,0.030,0.000
3824,0.025,0.000
3825,0.020,0.000
3826,0.020,0.000
3827,0.030,0.000
3828,0.025,0.000
3829,0.015,0.000
3830,0.015,0.000
3831,0.020,0.000
3832,0.025,0.000
3833,0.035,0.000
3834,0.065,0.000
3835,0.070,0.000
3836,0.085,0.000
3837,0.110,0.000
3838,0.130,-0.025
3839,0.155,-0.055
3840,0.155,-0.065
3841,0.160,-0.065
3842,0.140,-0.060
3843,0.080,-0.030
3844,0.045,-0.020
3845,0.020,0.000
3846,0.000,0.000
3847,0.000,0.000
3848,0.000,0.000
3849,0.000,0.000
3850,0.015,-0.015
3851,0.010,-0.015
3852,0.000,0.000
3853,-0.020,0.065
3854,0.010,0.055
3855,0.180,-0.265
3856,0.450,-0.810
3857,0.595,-1.170
3858,0.435,-1.000
3859,0.160,-0.545
3860,0.010,-0.195
3861,-0.025,-0.030
3862,-0.030,0.045
3863,-0.030,0.095
3864,-0.020,0.115
3865,-0.010,0.120
3866,-0.020,0.135
3867,-0.025,0.140
3868,-0.025,0.140
3869,-0.040,0.140
3870,-0.040,0.140
3871,-0.035,0.135
3872,-0.025,0.135
3873,-0.025,0.140
3874,-0.035,0.135
3875,-0.025,0.135
3876,-0.035,0.135
3877,-0.045,0.130
3878,-0.050,0.120
3879,-0.065,0.125
3880,-0.065,0.115
3881,-0.060,0.115
3882,-0.060,0.115
3883,-0.065,0.115
3884,-0.075,0.100
3885,-0.060,0.075
3886,-0.060,0.070
3887,-0.040,0.065
3888,-0.025,0.045
3889,-0.035,0.045
3890,-0.040,0.040
3891,-0.025,0.020
3892,-0.025,0.020
3893,-0.020,0.015
3894,0.000,0.000
3895,0.015,0.000
3896,0.020,0.000
3897,0.025,0.000
3898,0.020,0.000
3899,0.020,0.000
3900,0.035,0.000
3901,0.050,-0.010
3902,0.055,-0.005
3903,0.040,0.000
3904,0.030,0.000
3905,0.035,0.000
3906,0.050,0.000
3907,0.055,0.000
3908,0.045,0.000
3909,0.035,0.000
3910,0.035,0.000
3911,0.045,0.000
3912,0.045,0.000
3913,0.030,0.000
3914,0.020,0.000
3915,0.030,0.000
3916,0.030,0.000
3917,0.040,0.000
3918,0.035,0.000
3919,0.035,0.000
3920,0.020,0.000
3921,0.030,0.000
3922,0.020,0.000
3923,0.035,0.000
3924,0.035,0.000
3925,0.055,0.000
3926,0.065,0.000
3927,0.070,0.010
3928,0.085,0.000
3929,0.120,-0.015
3930,0.135,-0.040
3931,0.145,-0.055
3932,0.150,-0.045
3933,0.130,-0.035
3934,0.065,-0.010
3935,0.015,0.000
3936,-0.005,0.000
3937,-0.005,0.000
3938,0.000,0.000
3939,0.000,0.000
3940,0.000,0.000
3941,0.000,0.000
3942,-0.005,0.000
3943,-0.025,0.010
3944,-0.045,0.075
3945,-0.005,0.050
3946,0.165,-0.255
3947,0.440,-0.765
3948,0.585,-1.100
3949,0.410,-0.945
3950,0.115,-0.505
3951,-0.015,-0.170
3952,-0.055,-0.005
3953,-0.065,0.060
3954,-0.065,0.115
3955,-0.050,0.140
3956,-0.060,0.140
3957,-0.060,0.140
3958,-0.060,0.140
3959,-0.060,0.140
3960,-0.060,0.145
3961,-0.065,0.140
3962,-0.055,0.140
3963,-0.055,0.145
3964,-0.075,0.140
3965,-0.070,0.140
3966,-0.070,0.140
3967,-0.080,0.140
3968,-0.080,0.140
3969,-0.080,0.140
3970,-0.090,0.140
3971,-0.095,0.140
3972,-0.085,0.140
3973,-0.100,0.140
3974,-0.095,0.135
3975,-0.085,0.135
3976,-0.100,0.115
3977,-0.100,0.115
3978,-0.090,0.085
3979,-0.080,0.070
3980,-0.075,0.070
3981,-0.065,0.070
3982,-0.050,0.070
3983,-0.045,0.050
3984,-0.035,0.040
3985,-0.020,0.025
3986,-0.010,0.020
3987,-0.005,0.015
3988,0.000,0.005
3989,0.000,0.000
3990,0.005,0.000
3991,0.015,0.000
3992,0.015,0.000
3993,0.015,0.000
3994,0.025,0.000
3995,0.025,0.000
3996,0.020,0.000
3997,0.015,0.000
3998,0.015,0.000
3999,0.015,0.000
4000,0.010,0.005
4001,0.010,0.010
4002,0.005,0.020
4003,0.000,0.020
4004,0.000,0.020
4005,0.000,0.020
4006,0.010,0.020
4007,0.005,0.015
4008,0.000,0.005
4009,0.000,0.000
4010,0.000,0.000
4011,0.000,0.000
4012,0.000,0.000
4013,0.000,0.000
4014,0.000,0.000
4015,0.015,0.000
4016,0.025,0.015
4017,0.050,0.020
4018,0.065,0.000
4019,0.080,-0.010
4020,0.100,-0.030
4021,0.110,-0.040
4022,0.100,-0.045
4023,0.080,-0.045
4024,0.035,-0.015
4025,0.000,0.000
4026,-0.030,0.000
4027,-0.045,0.000
4028,-0.045,0.000
4029,-0.040,0.000
4030,-0.040,0.000
4031,-0.030,0.000
4032,-0.030,0.000
4033,-0.035,0.005
4034,-0.065,0.055
4035,-0.050,0.070
4036,0.085,-0.175
4037,0.335,-0.685
4038,0.530,-1.120
4039,0.445,-1.085
4040,0.150,-0.620
4041,-0.035,-0.225
4042,-0.090,-0.030
4043,-0.105,0.045
4044,-0.105,0.105
4045,-0.095,0.135
4046,-0.085,0.140
4047,-0.100,0.150
4048,-0.110,0.165
4049,-0.110,0.165
4050,-0.105,0.160
4051,-0.100,0.155
4052,-0.105,0.160
4053,-0.105,0.150
4054,-0.105,0.160
4055,-0.105,0.165
4056,-0.110,0.165
4057,-0.110,0.165
4058,-0.115,0.165
4059,-0.120,0.165
4060,-0.125,0.165
4061,-0.130,0.155
4062,-0.135,0.140
4063,-0.135,0.140
4064,-0.135,0.140
4065,-0.140,0.125
4066,-0.135,0.115
4067,-0.130,0.115
4068,-0.125,0.110
4069,-0.125,0.100
4070,-0.120,0.085
4071,-0.110,0.075
4072,-0.110,0.065
4073,-0.105,0.055
4074,-0.085,0.045
4075,-0.075,0.035
4076,-0.065,0.025
4077,-0.055,0.015
4078,-0.045,0.005
4079,-0.035,0.000
4080,-0.030,0.000
4081,-0.025,0.000
4082,-0.020,0.000
4083,-0.015,0.000
4084,-0.015,0.000
4085,-0.015,0.000
4086,-0.015,0.000
4087,-0.020,0.000
4088,-0.020,0.000
4089,-0.020,0.010
4090,-0.020,0.015
4091,-0.020,0.020
4092,-0.025,0.020
4093,-0.025,0.020
4094,-0.025,0.020
4095,-0.030,0.020
4096,-0.030,0.020
4097,-0.030,0.020
4098,-0.025,0.020
4099,-0.020,0.015
4100,-0.020,0.000
4101,-0.020,0.000
4102,-0.025,0.000
4103,-0.015,0.000
4104,-0.010,0.000
4105,0.000,0.000
4106,0.010,0.015
4107,0.015,0.020
4108,0.030,0.005
4109,0.050,-0.020
4110,0.065,-0.045
4111,0.075,-0.055
4112,0.075,-0.055
4113,0.055,-0.040
4114,0.015,-0.010
4115,-0.010,0.000
4116,-0.040,0.000
4117,-0.060,0.000
4118,-0.060,0.000
4119,-0.060,0.000
4120,-0.060,0.000
4121,-0.060,0.000
4122,-0.060,0.000
4123,-0.065,0.005
4124,-0.075,0.060
4125,-0.045,0.070
4126,0.100,-0.250
4127,0.360,-0.795
4128,0.520,-1.180
4129,0.395,-1.040
4130,0.070,-0.530
4131,-0.050,-0.175
4132,-0.095,-0.010
4133,-0.110,0.045
4134,-0.105,0.110
4135,-0.100,0.135
4136,-0.095,0.140
4137,-0.100,0.140
4138,-0.095,0.140
4139,-0.100,0.150
4140,-0.095,0.155
4141,-0.100,0.155
4142,-0.100,0.145
4143,-0.100,0.160
4144,-0.105,0.155
4145,-0.090,0.160
4146,-0.110,0.145
4147,-0.115,0.140
4148,-0.120,0.140
4149,-0.115,0.140
4150,-0.120,0.140
4151,-0.115,0.140
4152,-0.120,0.140
4153,-0.125,0.130
4154,-0.130,0.120
4155,-0.130,0.115
4156,-0.125,0.105
4157,-0.120,0.095
4158,-0.120,0.080
4159,-0.110,0.070
4160,-0.100,0.070
4161,-0.095,0.060
4162,-0.100,0.045
4163,-0.095,0.045
4164,-0.080,0.030
4165,-0.060,0.020
4166,-0.045,0.015
4167,-0.030,0.005
4168,-0.020,0.000
4169,-0.015,0.000
4170,-0.010,0.000
4171,0.000,0.000
4172,0.000,0.000
4173,0.000,0.000
4174,0.000,0.000
4175,0.000,0.000
4176,0.000,0.000
4177,0.000,0.000
4178,0.000,0.000
4179,0.000,0.000
4180,0.000,0.000
4181,0.000,0.015
4182,-0.005,0.015
4183,-0.005,0.020
4184,-0.005,0.020
4185,-0.005,0.020
4186,-0.005,0.020
4187,-0.005,0.015
4188,0.000,0.015
4189,0.000,0.005
4190,0.000,0.000
4191,-0.005,0.000
4192,-0.005,0.000
4193,0.000,0.000
4194,0.000,0.000
4195,0.005,0.000
4196,0.020,0.000
4197,0.045,0.005
4198,0.070,0.000
4199,0.085,-0.010
4200,0.110,-0.040
4201,0.130,-0.065
4202,0.120,-0.075
4203,0.115,-0.075
4204,0.095,-0.050
4205,0.045,-0.025
4206,0.005,-0.010
4207,-0.010,0.000
4208,-0.020,0.000
4209,-0.015,0.000
4210,-0.015,0.000
4211,-0.015,0.000
4212,-0.015,0.000
4213,-0.015,0.000
4214,-0.015,0.010
4215,-0.030,0.060
4216,0.005,0.030
4217,0.195,-0.360
4218,0.460,-0.950
4219,0.550,-1.260
4220,0.340,-0.960
4221,0.040,-0.435
4222,-0.040,-0.130
4223,-0.060,0.000
4224,-0.060,0.045
4225,-0.060,0.105
4226,-0.065,0.110
4227,-0.065,0.130
4228,-0.070,0.135
4229,-0.070,0.140
4230,-0.060,0.140
4231,-0.065,0.140
4232,-0.070,0.140
4233,-0.070,0.140
4234,-0.070,0.140
4235,-0.070,0.140
4236,-0.075,0.140
4237,-0.075,0.140
4238,-0.065,0.135
4239,-0.075,0.135
4240,-0.095,0.130
4241,-0.090,0.120
4242,-0.095,0.125
4243,-0.110,0.125
4244,-0.100,0.115
4245,-0.090,0.105
4246,-0.095,0.095
4247,-0.105,0.085
4248,-0.095,0.070
4249,-0.075,0.070
4250,-0.075,0.060
4251,-0.080,0.045
4252,-0.070,0.040
4253,-0.050,0.030
4254,-0.030,0.020
4255,-0.030,0.015
4256,-0.025,0.010
4257,-0.015,0.000
4258,-0.010,0.000
4259,-0.005,0.000
4260,0.000,0.000
4261,0.005,0.000
4262,0.015,0.000
4263,0.010,0.000
4264,0.010,0.000
4265,0.020,0.000
4266,0.020,0.000
4267,0.010,0.000
4268,0.015,0.000
4269,0.010,0.000
4270,0.010,0.000
4271,0.015,0.000
4272,0.010,0.005
4273,0.005,0.015
4274,0.005,0.015
4275,0.005,0.015
4276,0.005,0.020
4277,0.005,0.010
4278,0.005,0.000
4279,0.010,0.000
4280,0.000,0.000
4281,0.005,0.000
4282,0.015,0.000
4283,0.015,0.000
4284,0.020,0.000
4285,0.015,0.000
4286,0.015,0.000
4287,0.015,0.000
4288,0.030,0.000
4289,0.055,0.000
4290,0.075,0.005
4291,0.095,-0.010
4292,0.115,-0.035
4293,0.140,-0.060
4294,0.155,-0.070
4295,0.120,-0.060
4296,0.075,-0.035
4297,0.045,-0.020
4298,0.015,-0.010
4299,-0.005,0.000
4300,-0.015,0.000
4301,-0.005,0.000
4302,-0.015,0.000
4303,-0.010,0.000
4304,-0.010,0.000
4305,-0.010,0.000
4306,-0.025,0.010
4307,-0.030,0.100
4308,0.030,0.000
4309,0.260,-0.460
4310,0.575,-1.045
4311,0.585,-1.210
4312,0.245,-0.765
4313,0.015,-0.330
4314,-0.045,-0.085
4315,-0.055,0.005
4316,-0.055,0.080
4317,-0.050,0.110
4318,-0.050,0.130
4319,-0.055,0.135
4320,-0.065,0.135
4321,-0.055,0.140
4322,-0.055,0.140
4323,-0.065,0.140
4324,-0.060,0.140
4325,-0.050,0.125
4326,-0.050,0.120
4327,-0.060,0.125
4328,-0.060,0.135
4329,-0.065,0.135
4330,-0.085,0.140
4331,-0.085,0.140
4332,-0.070,0.125
4333,-0.085,0.115
4334,-0.100,0.115
4335,-0.105,0.110
4336,-0.105,0.100
4337,-0.090,0.095
4338,-0.090,0.085
4339,-0.090,0.070
4340,-0.095,0.065
4341,-0.075,0.060
4342,-0.070,0.055
4343,-0.070,0.040
4344,-0.055,0.030
4345,-0.055,0.030
4346,-0.025,0.020
4347,-0.025,0.020
4348,-0.025,0.020
4349,-0.030,0.015
4350,-0.025,0.000
4351,0.000,0.000
4352,0.015,0.000
4353,0.000,0.000
4354,0.000,0.000
4355,0.020,0.000
4356,0.025,0.000
4357,0.020,0.000
4358,0.020,0.000
4359,0.020,0.000
4360,0.025,0.000
4361,0.030,0.000
4362,0.020,0.000
4363,0.020,0.005
4364,0.010,0.015
4365,0.010,0.020
4366,0.025,0.020
4367,0.015,0.020
4368,0.010,0.020
4369,0.010,0.020
4370,0.000,0.020
4371,0.000,0.015
4372,0.005,0.015
4373,0.005,0.015
4374,0.010,0.010
4375,0.005,0.000
4376,0.005,0.000
4377,0.010,0.000
4378,0.015,0.005
4379,0.030,0.020
4380,0.035,0.020
4381,0.050,0.015
4382,0.080,0.005
4383,0.105,-0.005
4384,0.120,-0.035
4385,0.130,-0.045
4386,0.115,-0.040
4387,0.065,-0.025
4388,0.030,0.000
4389,0.000,0.000
4390,-0.025,0.000
4391,-0.030,0.000
4392,-0.025,0.000
4393,-0.020,0.000
4394,-0.015,0.005
4395,-0.015,0.005
4396,-0.020,0.000
4397,-0.030,0.005
4398,-0.055,0.120
4399,-0.005,0.050
4400,0.205,-0.335
4401,0.505,-0.890
4402,0.580,-1.170
4403,0.335,-0.850
4404,0.060,-0.405
4405,-0.035,-0.115
4406,-0.060,0.010
4407,-0.070,0.080
4408,-0.055,0.125
4409,-0.055,0.135
4410,-0.065,0.140
4411,-0.070,0.145
4412,-0.070,0.150
4413,-0.065,0.150
4414,-0.065,0.160
4415,-0.065,0.155
4416,-0.070,0.150
4417,-0.075,0.155
4418,-0.075,0.165
4419,-0.080,0.150
4420,-0.085,0.140
4421,-0.085,0.140
4422,-0.085,0.140
4423,-0.085,0.140
4424,-0.090,0.140
4425,-0.105,0.140
4426,-0.105,0.140
4427,-0.105,0.135
4428,-0.105,0.125
4429,-0.105,0.110
4430,-0.105,0.105
4431,-0.085,0.100
4432,-0.080,0.090
4433,-0.085,0.070
4434,-0.090,0.070
4435,-0.070,0.070
4436,-0.060,0.065
4437,-0.050,0.045
4438,-0.040,0.045
4439,-0.025,0.020
4440,-0.015,0.020
4441,-0.005,0.010
4442,0.000,0.000
4443,0.000,0.000
4444,0.005,0.000
4445,0.015,0.000
4446,0.020,0.000
4447,0.020,0.000
4448,0.020,0.000
4449,0.025,0.000
4450,0.030,0.000
4451,0.025,0.000
4452,0.020,0.000
4453,0.020,0.000
4454,0.020,0.010
4455,0.020,0.015
4456,0.015,0.020
4457,0.015,0.020
4458,0.015,0.020
4459,0.010,0.020
4460,0.010,0.020
4461,0.015,0.020
4462,0.010,0.020
4463,0.010,0.020
4464,0.015,0.010
4465,0.020,0.000
4466,0.020,0.000
4467,0.020,0.000
4468,0.020,0.000
4469,0.040,0.000
4470,0.055,0.015
4471,0.070,0.010
4472,0.090,0.000
4473,0.115,-0.005
4474,0.125,-0.030
4475,0.125,-0.045
4476,0.120,-0.040
4477,0.115,-0.030
4478,0.070,0.000
4479,0.025,0.000
4480,0.000,0.000
4481,-0.005,0.000
4482,-0.010,0.000
4483,-0.010,0.000
4484,-0.010,0.000
4485,-0.010,0.000
4486,-0.005,0.000
4487,-0.005,0.000
4488,-0.025,0.075
4489,-0.010,0.085
4490,0.145,-0.230
4491,0.435,-0.775
4492,0.595,-1.160
4493,0.440,-1.010
4494,0.150,-0.550
4495,0.000,-0.190
4496,-0.045,-0.020
4497,-0.060,0.055
4498,-0.060,0.105
4499,-0.060,0.135
4500,-0.055,0.140
4501,-0.055,0.140
4502,-0.055,0.140
4503,-0.055,0.145
4504,-0.045,0.145
4505,-0.045,0.140
4506,-0.055,0.140
4507,-0.055,0.140
4508,-0.060,0.140
4509,-0.060,0.140
4510,-0.060,0.140
4511,-0.070,0.140
4512,-0.075,0.140
4513,-0.075,0.140
4514,-0.075,0.140
4515,-0.085,0.140
4516,-0.080,0.140
4517,-0.080,0.135
4518,-0.085,0.130
4519,-0.085,0.110
4520,-0.075,0.110
4521,-0.075,0.105
4522,-0.080,0.100
4523,-0.080,0.075
4524,-0.070,0.070
4525,-0.055,0.070
4526,-0.055,0.060
4527,-0.050,0.045
4528,-0.030,0.040
4529,-0.025,0.020
4530,-0.015,0.015
4531,-0.005,0.000
4532,0.000,0.000
4533,0.005,0.000
4534,0.010,0.000
4535,0.020,0.000
4536,0.015,0.000
4537,0.020,0.000
4538,0.020,0.000
4539,0.020,0.000
4540,0.025,0.000
4541,0.025,0.000
4542,0.025,0.000
4543,0.025,0.000
4544,0.020,0.000
4545,0.015,0.000
4546,0.020,0.000
4547,0.020,0.005
4548,0.020,0.010
4549,0.020,0.010
4550,0.010,0.000
4551,0.010,0.000
4552,0.015,0.000
4553,0.020,0.000
4554,0.020,0.000
4555,0.020,0.000
4556,0.020,0.000
4557,0.020,0.000
4558,0.025,0.000
4559,0.035,0.000
4560,0.060,0.000
4561,0.080,0.000
4562,0.100,0.000
4563,0.125,-0.005
4564,0.140,-0.035
4565,0.145,-0.065
4566,0.155,-0.065
4567,0.135,-0.065
4568,0.100,-0.045
4569,0.060,-0.020
4570,0.025,0.000
4571,0.000,0.000
4572,0.000,0.000
4573,0.000,0.000
4574,0.000,0.000
4575,0.000,0.000
4576,0.000,0.000
4577,0.005,0.000
4578,0.000,0.010
4579,-0.015,0.080
4580,0.065,-0.045
4581,0.300,-0.510
4582,0.535,-1.030
4583,0.555,-1.170
4584,0.300,-0.810
4585,0.060,-0.365
4586,-0.010,-0.105
4587,-0.025,0.005
4588,-0.035,0.065
4589,-0.035,0.100
4590,-0.025,0.115
4591,-0.025,0.125
4592,-0.030,0.135
4593,-0.030,0.140
4594,-0.025,0.140
4595,-0.025,0.135
4596,-0.030,0.135
4597,-0.035,0.135
4598,-0.035,0.130
4599,-0.030,0.130
4600,-0.035,0.130
4601,-0.045,0.120
4602,-0.055,0.120
4603,-0.055,0.135
4604,-0.055,0.135
4605,-0.065,0.115
4606,-0.070,0.115
4607,-0.070,0.115
4608,-0.070,0.115
4609,-0.070,0.105
4610,-0.070,0.095
4611,-0.070,0.075
4612,-0.055,0.070
4613,-0.055,0.070
4614,-0.050,0.050
4615,-0.040,0.045
4616,-0.035,0.045
4617,-0.025,0.035
4618,-0.015,0.020
4619,-0.005,0.015
4620,0.000,0.000
4621,0.000,0.000
4622,0.015,0.000
4623,0.025,0.000
4624,0.020,0.000
4625,0.025,0.000
4626,0.035,0.000
4627,0.035,0.000
4628,0.030,0.000
4629,0.030,0.000
4630,0.030,0.000
4631,0.040,0.000
4632,0.040,0.000
4633,0.035,0.000
4634,0.030,0.000
4635,0.030,0.000
4636,0.030,0.000
4637,0.030,0.000
4638,0.030,0.000
4639,0.030,0.000
4640,0.025,0.000
4641,0.020,0.000
4642,0.020,0.000
4643,0.020,0.000
4644,0.030,0.000
4645,0.020,0.000
4646,0.020,0.000
4647,0.020,0.000
4648,0.030,0.000
4649,0.035,0.000
4650,0.065,0.000
4651,0.075,0.000
4652,0.100,0.000
4653,0.115,0.000
4654,0.125,-0.025
4655,0.135,-0.055
4656,0.150,-0.065
4657,0.145,-0.065
4658,0.125,-0.065
4659,0.090,-0.040
4660,0.045,-0.020
4661,0.015,-0.005
4662,0.000,-0.015
4663,0.005,-0.005
4664,0.000,-0.015
4665,0.000,-0.020
4666,0.005,-0.020
4667,0.005,-0.015
4668,0.000,-0.005
4669,-0.005,0.045
4670,0.000,0.070
4671,0.120,-0.160
4672,0.375,-0.680
4673,0.570,-1.135
4674,0.490,-1.115
4675,0.215,-0.685
4676,0.025,-0.275
4677,-0.015,-0.060
4678,-0.030,0.020
4679,-0.030,0.080
4680,-0.020,0.110
4681,-0.010,0.115
4682,-0.010,0.120
4683,-0.025,0.135
4684,-0.025,0.140
4685,-0.025,0.140
4686,-0.030,0.140
4687,-0.035,0.140
4688,-0.030,0.140
4689,-0.030,0.140
4690,-0.025,0.140
4691,-0.025,0.135
4692,-0.030,0.115
4693,-0.045,0.115
4694,-0.050,0.115
4695,-0.050,0.115
4696,-0.055,0.115
4697,-0.060,0.115
4698,-0.065,0.115
4699,-0.060,0.100
4700,-0.065,0.085
4701,-0.055,0.075
4702,-0.050,0.055
4703,-0.045,0.045
4704,-0.045,0.045
4705,-0.035,0.045
4706,-0.025,0.040
4707,-0.020,0.025
4708,-0.015,0.020
4709,-0.005,0.010
4710,0.000,0.000
4711,0.005,0.000
4712,0.005,0.000
4713,0.020,0.000
4714,0.040,0.000
4715,0.040,0.000
4716,0.035,-0.005
4717,0.050,-0.015
4718,0.050,-0.015
4719,0.035,-0.015
4720,0.035,-0.010
4721,0.045,0.000
4722,0.040,0.000
4723,0.040,0.000
4724,0.035,0.000
4725,0.030,0.000
4726,0.025,0.000
4727,0.040,0.000
4728,0.035,0.000
4729,0.025,0.010
4730,0.025,0.000
4731,0.035,0.000
4732,0.020,0.000
4733,0.020,0.000
4734,0.025,0.000
4735,0.040,0.000
4736,0.025,0.000
4737,0.025,0.000
4738,0.035,0.000
4739,0.020,0.000
4740,0.030,0.000
4741,0.060,0.000
4742,0.070,0.000
4743,0.085,0.000
4744,0.105,0.000
4745,0.125,-0.025
4746,0.145,-0.055
4747,0.155,-0.065
4748,0.145,-0.065
4749,0.120,-0.060
4750,0.075,-0.035
4751,0.030,-0.020
4752,0.000,-0.005
4753,-0.005,0.000
4754,0.000,0.000
4755,0.000,-0.005
4756,-0.010,-0.005
4757,-0.010,-0.005
4758,-0.005,-0.005
4759,-0.005,0.000
4760,-0.025,0.050
4761,0.000,0.065
4762,0.140,-0.195
4763,0.390,-0.710
4764,0.570,-1.120
4765,0.450,-1.040
4766,0.140,-0.580
4767,-0.010,-0.220
4768,-0.045,-0.035
4769,-0.060,0.030
4770,-0.060,0.085
4771,-0.055,0.115
4772,-0.045,0.115
4773,-0.045,0.115
4774,-0.065,0.130
4775,-0.065,0.135
4776,-0.060,0.130
4777,-0.050,0.115
4778,-0.055,0.115
4779,-0.055,0.115
4780,-0.055,0.125
4781,-0.065,0.120
4782,-0.065,0.115
4783,-0.050,0.115
4784,-0.075,0.115
4785,-0.095,0.130
4786,-0.105,0.115
4787,-0.095,0.115
4788,-0.105,0.115
4789,-0.115,0.115
4790,-0.105,0.100
4791,-0.090,0.095
4792,-0.090,0.075
4793,-0.095,0.070
4794,-0.100,0.070
4795,-0.080,0.050
4796,-0.065,0.045
4797,-0.065,0.045
4798,-0.055,0.035
4799,-0.040,0.035
4800,-0.030,0.025
4801,-0.015,0.010
4802,-0.005,0.000
4803,-0.005,0.000
4804,0.000,0.000
4805,0.000,0.000
4806,0.005,0.000
4807,0.000,0.000
4808,0.005,0.000
4809,0.020,0.000
4810,0.025,0.000
4811,0.025,0.000
4812,0.020,0.000
4813,0.015,0.000
4814,0.010,0.000
4815,0.010,0.000
4816,0.010,0.000
4817,0.010,0.000
4818,0.005,0.005
4819,0.005,0.005
4820,0.005,0.015
4821,0.010,0.000
4822,0.020,0.000
4823,0.010,0.005
4824,0.010,0.000
4825,0.015,0.000
4826,0.015,0.005
4827,0.015,0.000
4828,0.020,0.000
4829,0.020,0.000
4830,0.015,0.000
4831,0.015,0.000
4832,0.015,0.000
4833,0.030,0.015
4834,0.050,0.015
4835,0.075,0.000
4836,0.105,-0.010
4837,0.120,-0.035
4838,0.125,-0.050
4839,0.125,-0.055
4840,0.115,-0.045
4841,0.085,-0.015
4842,0.030,0.000
4843,0.000,0.000
4844,-0.015,0.000
4845,-0.015,0.000
4846,-0.010,0.000
4847,-0.010,0.000
4848,-0.015,0.000
4849,-0.015,0.000
4850,-0.020,0.000
4851,-0.025,0.050
4852,-0.020,0.080
4853,0.110,-0.165
4854,0.380,-0.670
4855,0.585,-1.105
4856,0.495,-1.055
4857,0.155,-0.570
4858,-0.010,-0.200
4859,-0.050,-0.025
4860,-0.075,0.050
4861,-0.070,0.105
4862,-0.060,0.135
4863,-0.060,0.140
4864,-0.060,0.140
4865,-0.070,0.140
4866,-0.070,0.140
4867,-0.070,0.140
4868,-0.060,0.140
4869,-0.055,0.140
4870,-0.060,0.140
4871,-0.065,0.140
4872,-0.070,0.140
4873,-0.075,0.140
4874,-0.080,0.140
4875,-0.080,0.140
4876,-0.085,0.140
4877,-0.100,0.140
4878,-0.105,0.140
4879,-0.110,0.140
4880,-0.115,0.125
4881,-0.110,0.115
4882,-0.100,0.115
4883,-0.095,0.115
4884,-0.095,0.105
4885,-0.095,0.090
4886,-0.085,0.080
4887,-0.080,0.070
4888,-0.075,0.065
4889,-0.065,0.055
4890,-0.050,0.040
4891,-0.030,0.035
4892,-0.020,0.025
4893,-0.015,0.015
4894,-0.005,0.010
4895,0.000,0.000
4896,0.005,0.000
4897,0.005,0.000
4898,0.010,0.000
4899,0.015,0.000
4900,0.020,0.000
4901,0.015,0.000
4902,0.010,0.000
4903,0.010,0.000
4904,0.010,0.000
4905,0.010,0.000
4906,0.010,0.000
4907,0.010,0.010
4908,0.005,0.000
4909,0.000,0.000
4910,0.000,0.000
4911,0.000,0.000
4912,0.000,0.000
4913,0.000,0.000
4914,0.000,0.000
4915,0.000,0.000
4916,0.000,0.000
4917,0.000,0.000
4918,0.000,0.000
4919,0.000,0.000
4920,0.000,0.000
4921,0.005,0.000
4922,0.015,0.000
4923,0.035,0.005
4924,0.055,0.000
4925,0.080,0.000
4926,0.095,-0.025
4927,0.105,-0.050
4928,0.110,-0.060
4929,0.110,-0.060
4930,0.080,-0.035
4931,0.035,-0.010
4932,0.000,0.000
4933,-0.025,0.000
4934,-0.035,0.000
4935,-0.035,0.000
4936,-0.035,0.000
4937,-0.030,0.000
4938,-0.025,0.000
4939,-0.025,0.000
4940,-0.040,0.015
4941,-0.065,0.075
4942,-0.010,0.035
4943,0.175,-0.350
4944,0.470,-0.910
4945,0.585,-1.220
4946,0.360,-0.920
4947,0.035,-0.405
4948,-0.055,-0.115
4949,-0.075,0.000
4950,-0.080,0.065
4951,-0.085,0.105
4952,-0.070,0.130
4953,-0.070,0.135
4954,-0.075,0.140
4955,-0.075,0.140
4956,-0.070,0.140
4957,-0.070,0.140
4958,-0.070,0.140
4959,-0.080,0.140
4960,-0.085,0.140
4961,-0.085,0.140
4962,-0.085,0.140
4963,-0.080,0.140
4964,-0.080,0.140
4965,-0.090,0.140
4966,-0.100,0.140
4967,-0.110,0.140
4968,-0.115,0.140
4969,-0.115,0.140
4970,-0.110,0.140
4971,-0.105,0.125
4972,-0.105,0.110
4973,-0.095,0.105
4974,-0.090,0.090
4975,-0.090,0.070
4976,-0.075,0.070
4977,-0.065,0.065
4978,-0.060,0.055
4979,-0.055,0.040
4980,-0.050,0.030
4981,-0.035,0.015
4982,-0.025,0.010
4983,-0.010,0.000
4984,0.000,0.000
4985,0.000,0.000
4986,0.000,0.000
4987,0.005,0.000
4988,0.005,0.000
4989,0.015,0.000
4990,0.020,0.000
4991,0.010,0.000
4992,0.010,0.000
4993,0.010,0.000
4994,0.005,0.000
4995,0.005,0.000
4996,0.010,0.000
4997,0.005,0.000
4998,0.000,0.000
4999,0.000,0.000
5000,0.000,0.000
5001,0.005,0.000
5002,0.010,0.015
5003,0.010,0.010
5004,0.000,0.000
5005,0.000,0.000
5006,0.000,0.000
5007,0.000,0.000
5008,0.000,0.000
5009,0.000,0.000
5010,0.000,0.000
5011,0.010,0.000
5012,0.025,0.000
5013,0.035,0.000
5014,0.055,0.000
5015,0.080,-0.005
5016,0.105,-0.020
5017,0.115,-0.045
5018,0.110,-0.060
5019,0.100,-0.060
5020,0.070,-0.045
5021,0.030,-0.020
5022,0.000,0.000
5023,-0.015,0.000
5024,-0.030,0.000
5025,-0.030,0.000
5026,-0.025,0.000
5027,-0.020,0.000
5028,-0.015,0.000
5029,-0.015,0.000
5030,-0.015,0.005
5031,-0.055,0.060
5032,-0.025,0.055
5033,0.140,-0.300
5034,0.445,-0.890
5035,0.585,-1.250
5036,0.385,-0.970
5037,0.055,-0.450
5038,-0.035,-0.155
5039,-0.080,-0.010
5040,-0.085,0.040
5041,-0.075,0.100
5042,-0.065,0.110
5043,-0.065,0.125
5044,-0.065,0.135
5045,-0.065,0.140
5046,-0.070,0.140
5047,-0.075,0.140
5048,-0.080,0.140
5049,-0.080,0.140
5050,-0.070,0.140
5051,-0.070,0.140
5052,-0.080,0.140
5053,-0.085,0.135
5054,-0.090,0.135
5055,-0.080,0.140
5056,-0.080,0.140
5057,-0.080,0.140
5058,-0.085,0.135
5059,-0.095,0.125
5060,-0.105,0.115
5061,-0.095,0.115
5062,-0.085,0.115
5063,-0.080,0.105
5064,-0.075,0.090
5065,-0.070,0.075
5066,-0.070,0.060
5067,-0.065,0.045
5068,-0.060,0.045
5069,-0.055,0.040
5070,-0.050,0.025
5071,-0.025,0.015
5072,-0.020,0.000
5073,-0.015,0.000
5074,-0.005,0.000
5075,0.000,0.000
5076,0.000,0.000
5077,0.005,0.000
5078,0.005,0.000
5079,0.020,-0.015
5080,0.025,-0.005
5081,0.020,-0.005
5082,0.015,0.000
5083,0.010,0.000
5084,0.005,0.000
5085,0.015,0.000
5086,0.020,0.000
5087,0.010,0.000
5088,0.005,0.000
5089,0.015,0.000
5090,0.025,0.000
5091,0.015,0.000
5092,0.010,0.000
5093,0.010,0.000
5094,0.015,0.000
5095,0.015,0.000
5096,0.015,0.000
5097,0.015,0.000
5098,0.010,0.000
5099,0.010,0.000
5100,0.015,0.000
5101,0.025,0.000
5102,0.035,0.000
5103,0.040,0.000
5104,0.045,0.000
5105,0.065,0.000
5106,0.095,-0.005
5107,0.120,-0.025
5108,0.130,-0.050
5109,0.135,-0.065
5110,0.145,-0.065
5111,0.110,-0.055
5112,0.065,-0.030
5113,0.030,-0.010
5114,0.005,0.000
5115,-0.005,-0.015
5116,-0.020,0.000
5117,-0.015,0.000
5118,-0.005,0.000
5119,0.000,0.000
5120,0.000,-0.005
5121,-0.010,0.000
5122,-0.030,0.040
5123,-0.010,0.110
5124,0.095,-0.170
5125,0.395,-0.735
5126,0.580,-1.195
5127,0.465,-1.090
5128,0.155,-0.605
5129,0.010,-0.230
5130,-0.040,-0.045
5131,-0.055,0.025
5132,-0.045,0.080
5133,-0.045,0.105
5134,-0.055,0.125
5135,-0.065,0.135
5136,-0.060,0.140
5137,-0.060,0.140
5138,-0.055,0.130
5139,-0.050,0.130
5140,-0.055,0.135
5141,-0.065,0.140
5142,-0.060,0.140
5143,-0.070,0.135
5144,-0.080,0.135
5145,-0.075,0.130
5146,-0.070,0.130
5147,-0.070,0.130
5148,-0.080,0.125
5149,-0.085,0.115
5150,-0.095,0.115
5151,-0.100,0.115
5152,-0.085,0.110
5153,-0.080,0.100
5154,-0.070,0.080
5155,-0.065,0.070
5156,-0.060,0.070
5157,-0.065,0.065
5158,-0.060,0.060
5159,-0.040,0.045
5160,-0.035,0.030
5161,-0.025,0.020
5162,-0.020,0.015
5163,-0.015,0.010
5164,-0.005,0.005
5165,0.000,0.000
5166,0.000,0.000
5167,0.000,0.000
5168,0.005,0.000
5169,0.020,0.000
5170,0.015,0.000
5171,0.010,0.000
5172,0.025,0.000
5173,0.025,0.000
5174,0.025,0.000
5175,0.020,0.000
5176,0.020,0.000
5177,0.030,0.000
5178,0.025,0.000
5179,0.010,0.010
5180,0.010,0.020
5181,0.015,0.020
5182,0.010,0.015
5183,0.015,0.005
5184,0.020,0.005
5185,0.020,0.015
5186,0.010,0.015
5187,0.005,0.005
5188,0.010,0.000
5189,0.015,0.000
5190,0.025,0.000
5191,0.035,0.000
5192,0.020,0.000
5193,0.000,0.000
5194,0.005,0.000
5195,0.030,0.000
5196,0.035,0.000
5197,0.050,0.015
5198,0.065,0.005
5199,0.095,-0.010
5200,0.135,-0.045
5201,0.170,-0.065
5202,0.140,-0.060
5203,0.105,-0.055
5204,0.070,-0.025
5205,0.020,0.000
5206,0.005,0.000
5207,0.000,0.000
5208,-0.005,0.000
5209,-0.005,0.000
5210,0.000,0.000
5211,0.000,0.000
5212,-0.020,0.000
5213,-0.010,0.000
5214,-0.025,0.035
5215,-0.020,0.115
5216,0.085,-0.085
5217,0.350,-0.575
5218,0.565,-1.065
5219,0.525,-1.110
5220,0.250,-0.705
5221,0.040,-0.300
5222,-0.040,-0.075
5223,-0.060,0.020
5224,-0.045,0.080
5225,-0.040,0.110
5226,-0.040,0.115
5227,-0.050,0.120
5228,-0.070,0.135
5229,-0.065,0.140
5230,-0.050,0.140
5231,-0.040,0.135
5232,-0.055,0.135
5233,-0.055,0.140
5234,-0.055,0.140
5235,-0.060,0.135
5236,-0.060,0.135
5237,-0.060,0.140
5238,-0.070,0.140
5239,-0.090,0.140
5240,-0.105,0.140
5241,-0.080,0.140
5242,-0.070,0.135
5243,-0.100,0.115
5244,-0.105,0.110
5245,-0.085,0.105
5246,-0.085,0.105
5247,-0.090,0.100
5248,-0.105,0.085
5249,-0.080,0.070
5250,-0.075,0.070
5251,-0.060,0.070
5252,-0.060,0.060
5253,-0.045,0.045
5254,-0.035,0.045
5255,-0.020,0.030
5256,-0.005,0.020
5257,-0.005,0.020
5258,0.000,0.000
5259,0.000,0.000
5260,0.000,0.000
5261,0.005,0.000
5262,0.010,0.000
5263,0.015,0.000
5264,0.010,0.000
5265,0.010,0.000
5266,0.015,0.000
5267,0.025,0.000
5268,0.015,0.000
5269,0.005,0.005
5270,0.005,0.010
5271,0.015,0.015
5272,0.015,0.020
5273,0.015,0.020
5274,0.020,0.020
5275,0.015,0.020
5276,0.010,0.015
5277,0.010,0.015
5278,0.015,0.015
5279,0.010,0.020
5280,0.010,0.015
5281,0.005,0.010
5282,0.000,0.000
5283,0.000,0.000
5284,0.005,0.000
5285,0.010,0.000
5286,0.020,0.000
5287,0.025,0.015
5288,0.050,0.020
5289,0.065,0.015
5290,0.100,0.000
5291,0.110,-0.010
5292,0.125,-0.030
5293,0.125,-0.040
5294,0.130,-0.045
5295,0.110,-0.035
5296,0.070,-0.005
5297,0.025,0.000
5298,0.000,0.000
5299,0.000,0.000
5300,-0.010,0.000
5301,-0.015,0.000
5302,-0.015,0.000
5303,-0.015,0.000
5304,-0.010,0.000
5305,-0.015,0.005
5306,-0.035,0.085
5307,0.000,0.060
5308,0.155,-0.260
5309,0.425,-0.785
5310,0.585,-1.140
5311,0.430,-0.985
5312,0.145,-0.530
5313,-0.005,-0.180
5314,-0.050,-0.015
5315,-0.070,0.055
5316,-0.065,0.110
5317,-0.060,0.135
5318,-0.060,0.140
5319,-0.060,0.140
5320,-0.065,0.140
5321,-0.070,0.140
5322,-0.070,0.140
5323,-0.070,0.140
5324,-0.070,0.140
5325,-0.070,0.140
5326,-0.070,0.140
5327,-0.070,0.140
5328,-0.070,0.145
5329,-0.070,0.140
5330,-0.080,0.140
5331,-0.080,0.140
5332,-0.085,0.140
5333,-0.095,0.140
5334,-0.090,0.140
5335,-0.100,0.140
5336,-0.105,0.135
5337,-0.105,0.115
5338,-0.105,0.115
5339,-0.090,0.105
5340,-0.100,0.095
5341,-0.080,0.095
5342,-0.080,0.075
5343,-0.070,0.065
5344,-0.060,0.050
5345,-0.055,0.040
5346,-0.040,0.025
5347,-0.025,0.020
5348,-0.015,0.010
5349,-0.005,0.000
5350,0.000,0.000
5351,0.000,0.000
5352,0.005,0.000
5353,0.010,0.000
5354,0.015,0.000
5355,0.015,0.000
5356,0.015,0.000
5357,0.020,0.000
5358,0.020,0.000
5359,0.010,0.000
5360,0.005,0.000
5361,0.005,0.000
5362,0.005,0.000
5363,0.005,0.000
5364,0.005,0.005
5365,0.005,0.015
5366,0.010,0.005
5367,0.005,0.000
5368,0.005,0.000
5369,0.005,0.000
5370,0.005,0.000
5371,0.010,0.000
5372,0.010,0.000
5373,0.000,0.000
5374,0.000,0.000
5375,0.000,0.000
5376,0.005,0.000
5377,0.015,0.000
5378,0.035,0.000
5379,0.030,0.005
5380,0.050,0.000
5381,0.070,0.000
5382,0.095,-0.035
5383,0.110,-0.055
5384,0.115,-0.060
5385,0.110,-0.060
5386,0.075,-0.035
5387,0.030,-0.010
5388,0.000,0.000
5389,-0.015,0.000
5390,-0.020,0.000
5391,-0.025,0.000
5392,-0.025,0.000
5393,-0.025,0.000
5394,-0.025,0.000
5395,-0.025,0.000
5396,-0.040,0.020
5397,-0.035,0.075
5398,0.035,-0.045
5399,0.245,-0.490
5400,0.495,-0.995
5401,0.525,-1.145
5402,0.285,-0.815
5403,0.025,-0.360
5404,-0.050,-0.095
5405,-0.070,0.015
5406,-0.070,0.070
5407,-0.070,0.110
5408,-0.070,0.120
5409,-0.070,0.135
5410,-0.070,0.140
5411,-0.070,0.140
5412,-0.070,0.140
5413,-0.070,0.140
5414,-0.070,0.140
5415,-0.070,0.140
5416,-0.075,0.140
5417,-0.075,0.140
5418,-0.075,0.140
5419,-0.075,0.140
5420,-0.080,0.140
5421,-0.080,0.140
5422,-0.085,0.140
5423,-0.100,0.140
5424,-0.105,0.140
5425,-0.105,0.130
5426,-0.095,0.115
5427,-0.105,0.110
5428,-0.110,0.105
5429,-0.100,0.095
5430,-0.085,0.075
5431,-0.070,0.070
5432,-0.070,0.070
5433,-0.065,0.055
5434,-0.055,0.045
5435,-0.045,0.040
5436,-0.035,0.025
5437,-0.020,0.020
5438,-0.015,0.010
5439,-0.010,0.000
5440,-0.005,0.000
5441,0.000,0.000
5442,0.005,0.000
5443,0.010,0.000
5444,0.015,0.000
5445,0.015,0.000
5446,0.020,0.000
5447,0.020,0.000
5448,0.015,0.000
5449,0.010,0.000
5450,0.005,0.000
5451,0.005,0.000
5452,0.000,0.000
5453,0.000,0.000
5454,0.000,0.000
5455,0.000,0.000
5456,0.005,0.000
5457,0.000,0.010
5458,0.000,0.000
5459,0.000,0.000
5460,0.000,0.000
5461,0.000,0.000
5462,0.000,0.000
5463,0.000,0.000
5464,0.000,0.000
5465,0.000,0.000
5466,0.000,0.000
5467,0.010,0.000
5468,0.015,0.000
5469,0.025,0.000
5470,0.030,0.000
5471,0.055,0.000
5472,0.070,-0.015
5473,0.090,-0.040
5474,0.105,-0.060
5475,0.110,-0.065
5476,0.100,-0.055
5477,0.075,-0.035
5478,0.035,-0.010
5479,0.005,0.000
5480,-0.015,0.000
5481,-0.025,0.000
5482,-0.025,0.000
5483,-0.020,0.000
5484,-0.020,0.000
5485,-0.020,0.000
5486,-0.015,0.000
5487,-0.030,0.015
5488,-0.055,0.065
5489,0.000,0.000
5490,0.195,-0.385
5491,0.460,-0.920
5492,0.550,-1.180
5493,0.330,-0.915
5494,0.040,-0.420
5495,-0.050,-0.130
5496,-0.070,0.000
5497,-0.070,0.050
5498,-0.070,0.100
5499,-0.070,0.115
5500,-0.065,0.130
5501,-0.065,0.140
5502,-0.070,0.140
5503,-0.065,0.140
5504,-0.065,0.140
5505,-0.060,0.140
5506,-0.070,0.140
5507,-0.070,0.140
5508,-0.070,0.140
5509,-0.075,0.140
5510,-0.080,0.140
5511,-0.080,0.140
5512,-0.090,0.140
5513,-0.100,0.140
5514,-0.105,0.140
5515,-0.110,0.135
5516,-0.110,0.120
5517,-0.105,0.115
5518,-0.105,0.115
5519,-0.110,0.100
5520,-0.100,0.095
5521,-0.085,0.095
5522,-0.075,0.085
5523,-0.080,0.070
5524,-0.075,0.065
5525,-0.060,0.050
5526,-0.050,0.040
5527,-0.030,0.030
5528,-0.015,0.020
5529,-0.010,0.010
5530,-0.005,0.000
5531,0.000,0.000
5532,0.010,0.000
5533,0.015,0.000
5534,0.005,0.000
5535,0.010,0.000
5536,0.025,0.000
5537,0.030,0.000
5538,0.020,0.000
5539,0.020,0.000
5540,0.030,0.000
5541,0.020,0.000
5542,0.020,0.000
5543,0.015,0.000
5544,0.010,0.005
5545,0.005,0.000
5546,0.005,0.020
5547,0.005,0.020
5548,0.000,0.005
5549,0.000,0.000
5550,0.000,0.000
5551,0.000,0.000
5552,0.000,0.000
5553,0.005,0.000
5554,0.005,0.000
5555,-0.005,0.000
5556,-0.005,0.000
5557,0.000,0.000
5558,0.005,0.000
5559,0.020,0.000
5560,0.025,0.000
5561,0.040,0.000
5562,0.065,0.000
5563,0.070,0.000
5564,0.085,-0.015
5565,0.110,-0.045
5566,0.120,-0.060
5567,0.115,-0.065
5568,0.100,-0.055
5569,0.070,-0.030
5570,0.020,-0.010
5571,0.000,0.000
5572,-0.010,0.000
5573,-0.015,0.000
5574,-0.015,0.000
5575,-0.015,0.000
5576,-0.015,0.000
5577,-0.010,0.000
5578,-0.010,0.000
5579,-0.035,0.040
5580,-0.025,0.075
5581,0.110,-0.170
5582,0.370,-0.710
5583,0.565,-1.165
5584,0.480,-1.130
5585,0.130,-0.595
5586,-0.020,-0.215
5587,-0.035,-0.030
5588,-0.040,0.035
5589,-0.060,0.100
5590,-0.045,0.110
5591,-0.040,0.115
5592,-0.045,0.120
5593,-0.055,0.135
5594,-0.050,0.140
5595,-0.040,0.140
5596,-0.050,0.135
5597,-0.055,0.130
5598,-0.060,0.135
5599,-0.060,0.140
5600,-0.060,0.140
5601,-0.065,0.135
5602,-0.070,0.135
5603,-0.065,0.120
5604,-0.065,0.115
5605,-0.075,0.115
5606,-0.080,0.115
5607,-0.085,0.115
5608,-0.090,0.115
5609,-0.085,0.115
5610,-0.075,0.095
5611,-0.065,0.075
5612,-0.060,0.080
5613,-0.065,0.075
5614,-0.075,0.060
5615,-0.060,0.060
5616,-0.055,0.050
5617,-0.065,0.035
5618,-0.060,0.025
5619,-0.040,0.015
5620,-0.020,0.010
5621,-0.015,0.000
5622,0.000,0.000
5623,0.010,0.000
5624,0.005,0.000
5625,0.005,0.000
5626,0.015,0.000
5627,0.015,0.000
5628,0.025,0.000
5629,0.020,0.000
5630,0.020,0.000
5631,0.020,0.000
5632,0.020,0.000
5633,0.010,0.000
5634,0.010,0.000
5635,0.015,0.000
5636,0.010,0.005
5637,0.020,0.005
5638,0.020,0.000
5639,0.010,0.000
5640,0.010,0.000
5641,0.015,0.000
5642,0.020,0.000
5643,0.005,0.010
5644,0.005,0.000
5645,0.015,0.000
5646,0.005,0.000
5647,0.000,0.000
5648,0.010,0.000
5649,0.025,0.000
5650,0.020,0.000
5651,0.010,0.000
5652,0.025,0.000
5653,0.045,0.000
5654,0.070,0.000
5655,0.095,0.000
5656,0.105,-0.015
5657,0.125,-0.045
5658,0.140,-0.065
5659,0.135,-0.065
5660,0.115,-0.055
5661,0.070,-0.035
5662,0.020,-0.010
5663,0.000,0.000
5664,-0.025,0.000
5665,-0.025,0.000
5666,-0.020,0.000
5667,-0.005,0.000
5668,-0.010,0.000
5669,-0.010,0.000
5670,-0.010,0.000
5671,-0.045,0.045
5672,-0.030,0.115
5673,0.105,-0.145
5674,0.405,-0.715
5675,0.615,-1.195
5676,0.470,-1.100
5677,0.120,-0.565
5678,-0.015,-0.220
5679,-0.060,-0.030
5680,-0.075,0.035
5681,-0.065,0.090
5682,-0.060,0.110
5683,-0.075,0.125
5684,-0.075,0.135
5685,-0.075,0.140
5686,-0.070,0.140
5687,-0.065,0.140
5688,-0.070,0.140
5689,-0.075,0.140
5690,-0.065,0.135
5691,-0.070,0.135
5692,-0.080,0.145
5693,-0.090,0.140
5694,-0.100,0.140
5695,-0.105,0.140
5696,-0.105,0.140
5697,-0.105,0.135
5698,-0.105,0.135
5699,-0.115,0.140
5700,-0.125,0.140
5701,-0.120,0.130
5702,-0.115,0.115
5703,-0.115,0.105
5704,-0.110,0.095
5705,-0.105,0.090
5706,-0.100,0.080
5707,-0.090,0.065
5708,-0.090,0.055
5709,-0.075,0.045
5710,-0.065,0.045
5711,-0.060,0.040
5712,-0.030,0.020
5713,-0.020,0.020
5714,-0.015,0.020
5715,0.000,0.015
5716,0.005,0.005
5717,0.000,0.000
5718,0.000,0.000
5719,0.010,0.000
5720,0.015,0.000
5721,0.015,0.000
5722,0.020,0.000
5723,0.015,0.000
5724,0.010,0.000
5725,0.005,0.000
5726,0.005,0.000
5727,0.005,0.010
5728,0.010,0.015
5729,0.005,0.020
5730,0.000,0.020
5731,0.000,0.020
5732,0.000,0.020
5733,0.000,0.020
5734,0.005,0.020
5735,0.000,0.010
5736,0.000,0.005
5737,0.000,0.005
5738,0.005,0.010
5739,0.010,0.010
5740,0.010,0.010
5741,0.005,0.000
5742,0.005,0.000
5743,0.010,0.000
5744,0.025,0.000
5745,0.045,0.010
5746,0.070,0.015
5747,0.090,0.000
5748,0.110,-0.020
5749,0.125,-0.045
5750,0.125,-0.045
5751,0.115,-0.040
5752,0.085,-0.025
5753,0.035,0.000
5754,0.005,0.000
5755,-0.005,0.000
5756,-0.015,0.000
5757,-0.015,0.000
5758,-0.015,0.000
5759,-0.015,0.000
5760,-0.010,0.000
5761,-0.010,0.000
5762,-0.025,0.015
5763,-0.040,0.125
5764,0.020,-0.010
5765,0.260,-0.485
5766,0.540,-1.025
5767,0.580,-1.190
5768,0.270,-0.785
5769,0.045,-0.345
5770,-0.035,-0.090
5771,-0.055,0.010
5772,-0.070,0.080
5773,-0.065,0.120
5774,-0.060,0.135
5775,-0.060,0.140
5776,-0.060,0.140
5777,-0.065,0.140
5778,-0.065,0.140
5779,-0.065,0.140
5780,-0.070,0.140
5781,-0.070,0.140
5782,-0.070,0.140
5783,-0.070,0.140
5784,-0.070,0.140
5785,-0.075,0.140
5786,-0.080,0.140
5787,-0.080,0.140
5788,-0.090,0.140
5789,-0.090,0.140
5790,-0.095,0.140
5791,-0.100,0.140
5792,-0.105,0.135
5793,-0.100,0.130
5794,-0.095,0.115
5795,-0.085,0.115
5796,-0.080,0.110
5797,-0.075,0.095
5798,-0.070,0.090
5799,-0.070,0.070
5800,-0.065,0.065
5801,-0.060,0.045
5802,-0.035,0.040
5803,-0.015,0.030
5804,-0.005,0.020
5805,0.000,0.015
5806,0.000,0.000
5807,0.005,0.000
5808,0.015,0.000
5809,0.020,0.000
5810,0.020,0.000
5811,0.015,0.000
5812,0.015,0.000
5813,0.020,0.000
5814,0.025,0.000
5815,0.020,0.000
5816,0.020,0.000
5817,0.010,0.000
5818,0.005,0.000
5819,0.005,0.000
5820,0.005,0.005
5821,0.005,0.000
5822,0.005,0.000
5823,0.005,0.000
5824,0.005,0.000
5825,0.000,0.000
5826,0.000,0.000
5827,0.005,0.000
5828,0.010,0.000
5829,0.005,0.000
5830,0.000,0.000
5831,0.000,0.000
5832,0.005,0.000
5833,0.020,0.000
5834,0.030,0.000
5835,0.035,0.000
5836,0.055,0.000
5837,0.075,0.000
5838,0.100,-0.025
5839,0.115,-0.050
5840,0.120,-0.050
5841,0.120,-0.050
5842,0.105,-0.045
5843,0.065,-0.025
5844,0.020,0.000
5845,0.000,0.000
5846,-0.015,0.000
5847,-0.020,0.000
5848,-0.015,0.000
5849,-0.015,0.000
5850,-0.015,0.000
5851,-0.015,0.000
5852,-0.015,0.000
5853,-0.040,0.050
5854,-0.025,0.100
5855,0.100,-0.165
5856,0.380,-0.685
5857,0.575,-1.130
5858,0.470,-1.075
5859,0.170,-0.630
5860,0.000,-0.245
5861,-0.055,-0.060
5862,-0.065,0.020
5863,-0.070,0.080
5864,-0.060,0.110
5865,-0.045,0.115
5866,-0.045,0.130
5867,-0.055,0.140
5868,-0.055,0.140
5869,-0.050,0.140
5870,-0.050,0.140
5871,-0.055,0.140
5872,-0.060,0.140
5873,-0.070,0.140
5874,-0.065,0.140
5875,-0.065,0.140
5876,-0.070,0.140
5877,-0.070,0.140
5878,-0.070,0.140
5879,-0.075,0.140
5880,-0.080,0.135
5881,-0.075,0.115
5882,-0.070,0.115
5883,-0.070,0.110
5884,-0.070,0.100
5885,-0.065,0.095
5886,-0.060,0.090
5887,-0.055,0.070
5888,-0.045,0.070
5889,-0.045,0.060
5890,-0.055,0.045
5891,-0.040,0.045
5892,-0.025,0.045
5893,-0.015,0.035
5894,-0.015,0.020
5895,-0.005,0.015
5896,0.000,0.000
5897,0.005,0.000
5898,0.010,0.000
5899,0.015,0.000
5900,0.020,0.000
5901,0.025,0.000
5902,0.020,0.000
5903,0.030,0.000
5904,0.030,0.000
5905,0.025,0.000
5906,0.025,0.000
5907,0.030,0.000
5908,0.030,0.000
5909,0.030,0.000
5910,0.030,0.000
5911,0.025,0.000
5912,0.020,0.000
5913,0.020,0.005
5914,0.020,0.010
5915,0.020,0.005
5916,0.015,0.005
5917,0.010,0.000
5918,0.010,0.000
5919,0.010,0.000
5920,0.010,0.000
5921,0.005,0.000
5922,0.005,0.000
5923,0.005,0.000
5924,0.010,0.000
5925,0.020,0.000
5926,0.030,0.000
5927,0.060,0.000
5928,0.080,0.000
5929,0.115,0.000
5930,0.120,-0.035
5931,0.120,-0.055
5932,0.125,-0.060
5933,0.125,-0.065
5934,0.105,-0.035
5935,0.050,-0.020
5936,0.010,0.000
5937,0.000,0.000
5938,-0.005,0.000
5939,-0.005,0.000
5940,-0.005,0.000
5941,-0.010,0.000
5942,-0.005,0.000
5943,-0.005,0.000
5944,-0.015,0.010
5945,-0.030,0.080
5946,0.025,0.000
5947,0.225,-0.405
5948,0.485,-0.935
5949,0.565,-1.170
5950,0.335,-0.885
5951,0.075,-0.430
5952,-0.030,-0.145
5953,-0.055,-0.010
5954,-0.060,0.050
5955,-0.050,0.095
5956,-0.040,0.115
5957,-0.045,0.120
5958,-0.045,0.130
5959,-0.040,0.135
5960,-0.045,0.135
5961,-0.050,0.135
5962,-0.055,0.135
5963,-0.055,0.140
5964,-0.055,0.140
5965,-0.060,0.140
5966,-0.065,0.140
5967,-0.065,0.140
5968,-0.065,0.140
5969,-0.070,0.140
5970,-0.080,0.140
5971,-0.095,0.140
5972,-0.090,0.140
5973,-0.090,0.135
5974,-0.095,0.135
5975,-0.100,0.120
5976,-0.090,0.115
5977,-0.080,0.080
5978,-0.080,0.075
5979,-0.085,0.070
5980,-0.080,0.070
5981,-0.070,0.045
5982,-0.065,0.045
5983,-0.065,0.045
5984,-0.050,0.025
5985,-0.030,0.020
5986,-0.025,0.020
5987,-0.015,0.010
5988,-0.005,0.000
5989,0.005,0.000
5990,0.005,0.000
5991,0.000,0.000
5992,0.005,0.000
5993,0.015,0.000
5994,0.020,0.000
5995,0.015,0.000
5996,0.015,0.000
5997,0.015,0.000
5998,0.010,0.000
5999,0.010,0.000
6000,0.015,0.000
6001,0.005,0.005
6002,0.005,0.000
6003,0.005,0.000
6004,0.005,0.015
6005,0.010,0.015
6006,0.005,0.015
6007,0.005,0.015
6008,0.015,0.010
6009,0.010,0.005
6010,0.010,0.000
6011,0.005,0.000
6012,0.005,0.000
6013,0.010,0.000
6014,0.010,0.000
6015,0.015,0.000
6016,0.015,0.000
6017,0.020,0.000
6018,0.035,0.000
6019,0.065,0.005
6020,0.070,0.010
6021,0.105,0.000
6022,0.130,-0.025
6023,0.150,-0.040
6024,0.150,-0.060
6025,0.140,-0.065
6026,0.115,-0.040
6027,0.065,-0.005
6028,0.025,0.000
6029,0.000,0.000
6030,0.000,0.000
6031,0.000,0.000
6032,-0.005,0.000
6033,0.000,0.000
6034,0.010,0.000
6035,0.000,0.000
6036,-0.020,0.020
6037,-0.020,0.085
6038,0.040,0.000
6039,0.235,-0.400
6040,0.490,-0.930
6041,0.555,-1.165
6042,0.335,-0.880
6043,0.070,-0.410
6044,0.000,-0.120
6045,-0.035,0.005
6046,-0.050,0.070
6047,-0.055,0.110
6048,-0.025,0.115
6049,-0.030,0.120
6050,-0.050,0.135
6051,-0.040,0.135
6052,-0.045,0.140
6053,-0.065,0.140
6054,-0.050,0.140
6055,-0.040,0.140
6056,-0.045,0.140
6057,-0.065,0.140
6058,-0.060,0.140
6059,-0.060,0.140
6060,-0.065,0.135
6061,-0.070,0.135
6062,-0.070,0.140
6063,-0.065,0.135
6064,-0.065,0.120
6065,-0.075,0.125
6066,-0.090,0.115
6067,-0.100,0.115
6068,-0.090,0.100
6069,-0.080,0.080
6070,-0.065,0.070
6071,-0.070,0.070
6072,-0.075,0.060
6073,-0.055,0.050
6074,-0.045,0.045
6075,-0.035,0.035
6076,-0.020,0.025
6077,-0.015,0.020
6078,-0.010,0.005
6079,0.000,0.000
6080,0.005,0.000
6081,0.010,0.000
6082,0.010,0.000
6083,0.025,0.000
6084,0.035,0.000
6085,0.020,0.000
6086,0.025,0.000
6087,0.035,0.000
6088,0.040,0.000
6089,0.030,0.000
6090,0.030,0.000
6091,0.045,0.000
6092,0.025,0.000
6093,0.020,0.000
6094,0.010,0.015
6095,0.010,0.015
6096,0.020,0.015
6097,0.015,0.015
6098,0.010,0.015
6099,0.025,0.000
6100,0.030,0.000
6101,0.030,0.005
6102,0.030,0.005
6103,0.030,0.000
6104,0.025,0.000
6105,0.015,0.000
6106,0.015,0.000
6107,0.015,0.000
6108,0.025,0.000
6109,0.050,0.000
6110,0.060,0.000
6111,0.065,0.010
6112,0.080,0.000
6113,0.090,0.000
6114,0.115,-0.020
6115,0.135,-0.050
6116,0.125,-0.055
6117,0.125,-0.050
6118,0.100,-0.030
6119,0.045,-0.005
6120,0.000,0.000
6121,-0.015,0.000
6122,-0.010,0.000
6123,-0.005,0.000
6124,-0.010,0.000
6125,-0.020,0.000
6126,-0.020,0.000
6127,-0.020,0.000
6128,-0.030,0.035
6129,-0.035,0.095
6130,0.040,-0.015
6131,0.255,-0.440
6132,0.510,-0.955
6133,0.510,-1.120
6134,0.265,-0.780
6135,0.010,-0.335
6136,-0.055,-0.080
6137,-0.060,0.010
6138,-0.065,0.080
6139,-0.070,0.130
6140,-0.070,0.140
6141,-0.075,0.140
6142,-0.065,0.150
6143,-0.065,0.140
6144,-0.070,0.155
6145,-0.075,0.160
6146,-0.080,0.150
6147,-0.070,0.160
6148,-0.075,0.145
6149,-0.080,0.140
6150,-0.080,0.140
6151,-0.105,0.140
6152,-0.105,0.140
6153,-0.105,0.140
6154,-0.105,0.140
6155,-0.105,0.140
6156,-0.110,0.140
6157,-0.105,0.125
6158,-0.115,0.130
6159,-0.120,0.135
6160,-0.120,0.120
6161,-0.110,0.100
6162,-0.110,0.080
6163,-0.115,0.075
6164,-0.110,0.070
6165,-0.095,0.055
6166,-0.090,0.030
6167,-0.080,0.020
6168,-0.065,0.040
6169,-0.055,0.045
6170,-0.045,0.040
6171,-0.025,0.030
6172,-0.015,0.020
6173,-0.010,0.020
6174,0.000,0.020
6175,0.000,0.020
6176,0.000,0.020
6177,0.000,0.015
6178,0.010,0.000
6179,0.000,0.000
6180,0.000,0.010
6181,0.000,0.020
6182,0.000,0.020
6183,0.000,0.020
6184,0.000,0.020
6185,0.000,0.020
6186,0.000,0.020
6187,0.000,0.025
6188,0.000,0.030
6189,0.000,0.040
6190,0.000,0.030
6191,0.000,0.035
6192,0.000,0.040
6193,0.000,0.020
6194,-0.005,0.020
6195,0.000,0.025
6196,0.000,0.020
6197,0.000,0.020
6198,-0.005,0.020
6199,-0.010,0.020
6200,0.000,0.020
6201,0.005,0.020
6202,0.015,0.020
6203,0.040,0.020
6204,0.075,0.005
6205,0.090,-0.010
6206,0.095,-0.025
6207,0.100,-0.035
6208,0.095,-0.025
6209,0.070,-0.005
6210,0.020,0.000
6211,-0.015,0.000
6212,-0.030,0.000
6213,-0.035,0.005
6214,-0.030,0.005
6215,-0.025,0.015
6216,-0.030,0.010
6217,-0.035,0.005
6218,-0.035,0.020
6219,-0.050,0.060
6220,-0.055,0.115
6221,0.025,-0.035
6222,0.255,-0.500
6223,0.530,-1.020
6224,0.545,-1.145
6225,0.230,-0.725
6226,-0.005,-0.265
6227,-0.070,-0.040
6228,-0.105,0.045
6229,-0.100,0.120
6230,-0.090,0.150
6231,-0.085,0.160
6232,-0.080,0.165
6233,-0.080,0.165
6234,-0.095,0.170
6235,-0.085,0.175
6236,-0.085,0.170
6237,-0.090,0.165
6238,-0.085,0.170
6239,-0.100,0.165
6240,-0.105,0.170
6241,-0.095,0.175
6242,-0.100,0.170
6243,-0.110,0.165
6244,-0.105,0.165
6245,-0.110,0.165
6246,-0.115,0.155
6247,-0.120,0.145
6248,-0.120,0.140
6249,-0.120,0.140
6250,-0.120,0.135
6251,-0.115,0.125
6252,-0.115,0.115
6253,-0.110,0.115
6254,-0.110,0.110
6255,-0.105,0.100
6256,-0.100,0.085
6257,-0.085,0.070
6258,-0.080,0.065
6259,-0.075,0.055
6260,-0.060,0.045
6261,-0.040,0.040
6262,-0.025,0.030
6263,-0.025,0.015
6264,-0.025,0.005
6265,-0.015,0.000
6266,-0.010,0.000
6267,0.000,0.000
6268,0.000,0.000
6269,0.000,0.000
6270,0.005,0.000
6271,0.000,0.000
6272,0.000,0.000
6273,0.000,0.000
6274,0.000,0.000
6275,0.000,0.005
6276,0.000,0.015
6277,0.000,0.020
6278,0.000,0.020
6279,0.000,0.020
6280,-0.010,0.020
6281,-0.010,0.020
6282,-0.005,0.020
6283,-0.005,0.020
6284,-0.010,0.020
6285,-0.010,0.020
6286,-0.010,0.020
6287,-0.005,0.010
6288,-0.010,0.000
6289,-0.010,0.005
6290,0.000,0.010
6291,0.010,0.010
6292,0.020,0.015
6293,0.035,0.010
6294,0.055,0.000
6295,0.080,-0.010
6296,0.085,-0.030
6297,0.080,-0.045
6298,0.080,-0.040
6299,0.050,-0.020
6300,0.015,0.000
6301,-0.010,0.000
6302,-0.035,0.000
6303,-0.040,0.000
6304,-0.040,0.000
6305,-0.040,0.000
6306,-0.035,0.000
6307,-0.035,0.000
6308,-0.040,0.000
6309,-0.050,0.025
6310,-0.070,0.115
6311,0.020,-0.030
6312,0.250,-0.500
6313,0.545,-1.055
6314,0.585,-1.205
6315,0.235,-0.750
6316,0.000,-0.300
6317,-0.080,-0.060
6318,-0.085,0.025
6319,-0.085,0.090
6320,-0.070,0.125
6321,-0.070,0.135
6322,-0.075,0.140
6323,-0.075,0.140
6324,-0.070,0.145
6325,-0.070,0.150
6326,-0.070,0.140
6327,-0.075,0.140
6328,-0.080,0.140
6329,-0.080,0.140
6330,-0.080,0.140
6331,-0.080,0.140
6332,-0.080,0.140
6333,-0.080,0.140
6334,-0.085,0.140
6335,-0.095,0.140
6336,-0.110,0.140
6337,-0.115,0.140
6338,-0.110,0.135
6339,-0.105,0.125
6340,-0.105,0.115
6341,-0.105,0.115
6342,-0.100,0.115
6343,-0.090,0.105
6344,-0.085,0.090
6345,-0.085,0.080
6346,-0.080,0.070
6347,-0.070,0.070
6348,-0.060,0.060
6349,-0.055,0.045
6350,-0.035,0.040
6351,-0.025,0.020
6352,-0.020,0.015
6353,-0.010,0.010
6354,0.000,0.000
6355,0.000,0.000
6356,0.005,0.000
6357,0.010,0.000
6358,0.010,0.000
6359,0.015,0.000
6360,0.015,0.000
6361,0.015,0.000
6362,0.015,0.000
6363,0.020,0.000
6364,0.020,0.000
6365,0.015,0.000
6366,0.010,0.000
6367,0.010,0.000
6368,0.005,0.010
6369,0.015,0.010
6370,0.020,0.005
6371,0.015,0.000
6372,0.010,0.000
6373,0.010,0.000
6374,0.010,0.000
6375,0.015,0.000
6376,0.015,0.000
6377,0.015,0.000
6378,0.015,0.000
6379,0.015,0.000
6380,0.020,0.000
6381,0.040,0.000
6382,0.060,0.000
6383,0.075,0.000
6384,0.105,0.000
6385,0.115,-0.020
6386,0.125,-0.050
6387,0.130,-0.065
6388,0.125,-0.060
6389,0.105,-0.050
6390,0.065,-0.025
6391,0.015,-0.015
6392,0.000,0.000
6393,-0.010,0.000
6394,-0.015,0.000
6395,-0.010,0.000
6396,-0.005,0.000
6397,-0.005,0.000
6398,-0.010,0.000
6399,-0.025,0.000
6400,-0.040,0.050
6401,-0.015,0.075
6402,0.145,-0.240
6403,0.450,-0.815
6404,0.605,-1.210
6405,0.430,-1.020
6406,0.110,-0.525
6407,0.000,-0.190
6408,-0.045,-0.030
6409,-0.045,0.030
6410,-0.040,0.080
6411,-0.035,0.105
6412,-0.030,0.115
6413,-0.030,0.115
6414,-0.035,0.115
6415,-0.035,0.125
6416,-0.035,0.125
6417,-0.030,0.115
6418,-0.030,0.115
6419,-0.035,0.115
6420,-0.040,0.115
6421,-0.035,0.125
6422,-0.050,0.125
6423,-0.065,0.115
6424,-0.060,0.115
6425,-0.060,0.115
6426,-0.060,0.115
6427,-0.070,0.115
6428,-0.080,0.115
6429,-0.075,0.110
6430,-0.065,0.090
6431,-0.065,0.075
6432,-0.060,0.070
6433,-0.060,0.065
6434,-0.065,0.050
6435,-0.060,0.045
6436,-0.055,0.045
6437,-0.055,0.040
6438,-0.050,0.030
6439,-0.030,0.020
6440,-0.020,0.015
6441,-0.005,0.005
6442,0.000,0.000
6443,0.005,0.000
6444,0.010,0.000
6445,0.015,-0.010
6446,0.030,0.000
6447,0.030,0.000
6448,0.030,0.000
6449,0.045,-0.015
6450,0.050,-0.015
6451,0.035,0.000
6452,0.030,0.000
6453,0.035,0.000
6454,0.035,0.000
6455,0.030,0.000
6456,0.020,0.000
6457,0.020,0.000
6458,0.025,0.000
6459,0.020,0.000
6460,0.020,0.000
6461,0.015,0.000
6462,0.015,0.000
6463,0.020,0.000
6464,0.025,0.000
6465,0.030,0.000
6466,0.025,0.000
6467,0.010,0.000
6468,0.005,-0.005
6469,0.020,-0.010
6470,0.020,0.000
6471,0.010,0.000
6472,0.025,0.000
6473,0.040,0.000
6474,0.040,0.000
6475,0.075,0.000
6476,0.100,-0.005
6477,0.115,-0.050
6478,0.140,-0.080
6479,0.155,-0.090
6480,0.150,-0.085
6481,0.120,-0.065
6482,0.065,-0.025
6483,0.005,-0.020
6484,0.000,-0.020
6485,0.000,-0.020
6486,0.000,-0.020
6487,-0.010,-0.005
6488,0.000,-0.015
6489,0.000,-0.020
6490,-0.010,0.000
6491,-0.010,0.000
6492,-0.015,0.070
6493,0.015,0.030
6494,0.195,-0.350
6495,0.495,-0.895
6496,0.600,-1.165
6497,0.355,-0.900
6498,0.080,-0.465
6499,-0.020,-0.165
6500,-0.035,-0.025
6501,-0.035,0.045
6502,-0.030,0.085
6503,-0.040,0.100
6504,-0.055,0.110
6505,-0.050,0.115
6506,-0.050,0.115
6507,-0.050,0.125
6508,-0.050,0.135
6509,-0.060,0.125
6510,-0.055,0.115
6511,-0.050,0.115
6512,-0.045,0.120
6513,-0.055,0.130
6514,-0.075,0.130
6515,-0.075,0.120
6516,-0.065,0.125
6517,-0.080,0.130
6518,-0.075,0.120
6519,-0.080,0.115
6520,-0.100,0.105
6521,-0.080,0.090
6522,-0.080,0.070
6523,-0.080,0.070
6524,-0.090,0.065
6525,-0.075,0.045
6526,-0.090,0.045
6527,-0.085,0.040
6528,-0.070,0.035
6529,-0.045,0.020
6530,-0.050,0.020
6531,-0.040,0.020
6532,-0.035,0.020
6533,-0.030,0.010
6534,-0.015,0.000
6535,0.000,0.000
6536,0.005,0.000
6537,0.015,0.000
6538,0.020,0.000
6539,0.015,0.000
6540,0.020,-0.010
6541,0.050,-0.015
6542,0.040,-0.005
6543,0.020,-0.005
6544,0.025,-0.015
6545,0.020,-0.005
6546,0.020,0.000
6547,0.035,0.000
6548,0.030,0.000
6549,0.010,0.000
6550,0.010,0.000
6551,0.015,0.000
6552,0.015,0.000
6553,0.015,0.000
6554,0.020,0.000
6555,0.030,0.000
6556,0.020,0.000
6557,0.015,0.000
6558,0.025,0.000
6559,0.030,0.000
6560,0.045,0.000
6561,0.025,0.000
6562,0.020,0.000
6563,0.025,0.000
6564,0.025,0.000
6565,0.055,0.000
6566,0.075,0.000
6567,0.115,0.000
6568,0.120,-0.030
6569,0.145,-0.060
6570,0.155,-0.065
6571,0.140,-0.065
6572,0.120,-0.055
6573,0.075,-0.020
6574,0.025,0.000
6575,0.015,0.000
6576,0.000,0.000
6577,-0.020,0.000
6578,-0.015,0.000
6579,-0.015,0.000
6580,0.000,0.000
6581,0.000,0.000
6582,-0.010,0.000
6583,-0.040,0.050
6584,-0.015,0.070
6585,0.135,-0.195
6586,0.420,-0.695
6587,0.580,-1.060
6588,0.440,-0.960
6589,0.150,-0.540
6590,-0.005,-0.185
6591,-0.050,-0.025
6592,-0.070,0.030
6593,-0.080,0.080
6594,-0.070,0.110
6595,-0.060,0.115
6596,-0.065,0.120
6597,-0.065,0.135
6598,-0.055,0.140
6599,-0.050,0.135
6600,-0.070,0.135
6601,-0.080,0.135
6602,-0.080,0.140
6603,-0.075,0.140
6604,-0.070,0.140
6605,-0.065,0.135
6606,-0.075,0.130
6607,-0.090,0.135
6608,-0.085,0.135
6609,-0.100,0.140
6610,-0.085,0.140
6611,-0.095,0.135
6612,-0.115,0.115
6613,-0.110,0.115
6614,-0.105,0.115
6615,-0.110,0.095
6616,-0.100,0.095
6617,-0.095,0.085
6618,-0.085,0.070
6619,-0.075,0.050
6620,-0.060,0.045
6621,-0.060,0.045
6622,-0.065,0.040
6623,-0.045,0.020
6624,-0.030,0.020
6625,-0.015,0.020
6626,-0.005,0.005
6627,0.000,0.000
6628,0.000,0.000
6629,0.005,0.000
6630,0.015,0.000
6631,0.015,0.000
6632,0.020,0.005
6633,0.025,0.000
6634,0.025,-0.010
6635,0.020,-0.010
6636,0.015,0.000
6637,0.010,-0.005
6638,0.005,-0.010
6639,0.005,0.000
6640,0.010,0.000
6641,0.010,0.000
6642,0.010,0.000
6643,0.010,0.000
6644,0.010,0.000
6645,0.010,0.000
6646,0.010,0.005
6647,0.010,0.010
6648,0.015,0.015
6649,0.005,0.000
6650,0.005,0.000
6651,0.005,0.000
6652,0.015,0.000
6653,0.015,0.000
6654,0.025,0.005
6655,0.035,0.010
6656,0.060,0.010
6657,0.070,0.000
6658,0.090,-0.025
6659,0.110,-0.050
6660,0.135,-0.055
6661,0.130,-0.060
6662,0.105,0.000
6663,0.060,0.005
6664,0.010,-0.015
6665,-0.010,-0.005
6666,-0.015,0.000
6667,-0.020,0.000
6668,-0.020,0.000
6669,-0.020,0.000
6670,-0.015,0.000
6671,-0.005,0.000
6672,-0.005,0.010
6673,-0.035,0.085
6674,-0.025,0.075
6675,0.120,-0.220
6676,0.390,-0.730
6677,0.580,-1.120
6678,0.470,-1.015
6679,0.175,-0.525
6680,-0.015,-0.175
6681,-0.065,-0.030
6682,-0.075,0.065
6683,-0.070,0.120
6684,-0.055,0.120
6685,-0.060,0.110
6686,-0.070,0.120
6687,-0.070,0.140
6688,-0.070,0.140
6689,-0.065,0.150
6690,-0.060,0.140
6691,-0.060,0.155
6692,-0.070,0.165
6693,-0.070,0.165
6694,-0.080,0.200
6695,-0.080,0.225
6696,-0.080,0.200
6697,-0.075,0.120
6698,-0.075,0.120
6699,-0.095,0.120
6700,-0.100,0.125
6701,-0.105,0.120
6702,-0.095,0.140
6703,-0.100,0.135
6704,-0.095,0.115
6705,-0.095,0.085
6706,-0.080,0.110
6707,-0.080,0.135
6708,-0.080,0.120
6709,-0.070,0.105
6710,-0.065,0.075
6711,-0.045,0.070
6712,-0.025,0.065
6713,-0.015,0.055
6714,-0.005,0.050
6715,0.000,0.030
6716,-0.005,0.010
6717,-0.005,0.010
6718,0.000,0.005
6719,0.000,0.010
6720,0.005,0.050
6721,0.010,0.045
6722,0.020,-0.005
6723,0.020,-0.020
6724,0.015,-0.015
6725,0.020,-0.005
6726,0.020,0.005
6727,0.015,0.005
6728,0.010,0.000
6729,0.010,0.000
6730,0.015,0.000
6731,0.010,0.000
6732,0.015,0.000
6733,0.010,0.010
6734,0.010,0.025
6735,0.000,0.000
6736,0.010,0.000
6737,0.010,0.020
6738,0.000,0.090
6739,0.000,0.035
6740,0.015,0.000
6741,0.015,-0.040
6742,0.015,-0.025
6743,0.030,0.000
6744,0.040,0.000
6745,0.060,0.005
6746,0.075,0.005
6747,0.085,-0.025
6748,0.110,-0.050
6749,0.100,-0.060
6750,0.115,-0.065
6751,0.125,-0.060
6752,0.100,-0.040
6753,0.035,-0.005
6754,0.000,0.000
6755,-0.015,0.000
6756,-0.015,-0.010
6757,-0.015,-0.020
6758,-0.010,-0.010
6759,-0.005,-0.005
6760,-0.005,-0.010
6761,-0.005,-0.005
6762,-0.015,0.040
6763,-0.035,0.155
6764,0.000,0.095
6765,0.195,-0.355
6766,0.460,-0.960
6767,0.565,-1.240
6768,0.370,-0.980
6769,0.070,-0.485
6770,-0.035,-0.165
6771,-0.065,-0.015
6772,-0.070,0.045
6773,-0.080,0.090
6774,-0.070,0.115
6775,-0.070,0.115
6776,-0.070,0.135
6777,-0.060,0.150
6778,-0.060,0.150
6779,-0.075,0.140
6780,-0.065,0.140
6781,-0.065,0.135
6782,-0.065,0.130
6783,-0.080,0.140
6784,-0.100,0.150
6785,-0.095,0.150
6786,-0.085,0.145
6787,-0.085,0.145
6788,-0.095,0.200
6789,-0.080,0.135
6790,-0.095,0.085
6791,-0.110,0.080
6792,-0.115,0.090
6793,-0.105,0.095
6794,-0.095,0.095
6795,-0.095,0.080
6796,-0.095,0.070
6797,-0.080,0.060
6798,-0.065,0.045
6799,-0.045,0.035
6800,-0.045,0.030
6801,-0.035,0.030
6802,-0.035,0.030
6803,-0.050,0.020
6804,-0.045,0.005
6805,-0.020,0.005
6806,-0.015,0.000
6807,-0.005,-0.010
6808,0.005,-0.010
6809,0.015,0.000
6810,0.010,0.000
6811,0.010,-0.005
6812,0.015,-0.010
6813,0.020,-0.005
6814,0.020,-0.005
6815,0.020,-0.020
6816,0.020,-0.015
6817,0.015,0.000
6818,0.005,0.000
6819,0.005,-0.005
6820,0.020,-0.015
6821,0.020,0.000
6822,0.005,0.000
6823,0.020,0.000
6824,0.010,0.030
6825,0.005,0.005
6826,0.010,-0.030
6827,0.010,-0.020
6828,0.005,-0.015
6829,0.005,-0.015
6830,0.005,-0.020
6831,0.015,-0.015
6832,0.015,0.000
6833,0.010,-0.010
6834,0.020,0.000
6835,0.030,0.000
6836,0.050,0.000
6837,0.075,0.000
6838,0.110,-0.020
6839,0.110,-0.050
6840,0.130,-0.060
6841,0.140,-0.065
6842,0.120,-0.045
6843,0.065,-0.040
6844,0.035,-0.030
6845,0.010,0.000
6846,-0.010,-0.005
6847,-0.015,-0.030
6848,-0.005,-0.025
6849,0.000,-0.020
