'sample interval','ECG0','ECG1'
'0.0078125 sec','mV','mV'
0,-0.045,-0.295
1,-0.020,-0.295
2,-0.020,-0.310
3,0.000,-0.290
4,0.000,-0.285
5,0.000,-0.255
6,-0.005,-0.245
7,0.000,-0.255
8,0.015,-0.260
9,0.010,-0.250
10,0.025,-0.265
11,0.000,-0.235
12,0.005,-0.200
13,-0.010,-0.195
14,0.000,-0.220
15,-0.005,-0.195
16,0.025,-0.200
17,0.015,-0.220
18,-0.010,-0.195
19,0.000,-0.180
20,0.005,-0.200
21,-0.010,-0.200
22,-0.015,-0.260
23,-0.025,-0.265
24,-0.020,-0.310
25,-0.030,-0.300
26,-0.075,-0.325
27,-0.100,-0.370
28,-0.105,-0.415
29,-0.130,-0.425
30,-0.120,-0.405
31,-0.150,-0.355
32,-0.150,-0.285
33,-0.190,-0.290
34,-0.170,-0.290
35,-0.180,-0.300
36,-0.170,-0.285
37,-0.150,-0.250
38,-0.140,-0.250
39,-0.110,-0.235
40,-0.120,-0.240
41,-0.080,-0.260
42,-0.065,-0.285
43,-0.050,-0.270
44,-0.040,-0.225
45,-0.040,-0.220
46,-0.065,-0.250
47,-0.065,-0.250
48,-0.045,-0.285
49,-0.060,-0.245
50,-0.090,-0.260
51,-0.090,-0.245
52,-0.065,-0.270
53,-0.070,-0.265
54,-0.085,-0.295
55,-0.085,-0.310
56,-0.050,-0.300
57,-0.060,-0.300
58,-0.070,-0.310
59,-0.065,-0.315
60,-0.090,-0.320
61,-0.080,-0.335
62,-0.070,-0.325
63,-0.080,-0.320
64,-0.060,-0.330
65,-0.050,-0.330
66,-0.070,-0.315
67,-0.085,-0.325
68,-0.090,-0.330
69,-0.090,-0.325
70,-0.090,-0.345
71,-0.080,-0.325
72,-0.080,-0.335
73,-0.085,-0.320
74,-0.075,-0.330
75,-0.085,-0.355
76,-0.070,-0.340
77,-0.085,-0.355
78,-0.080,-0.315
79,-0.075,-0.325
80,-0.105,-0.315
81,-0.075,-0.330
82,-0.105,-0.305
83,-0.080,-0.280
84,-0.105,-0.255
85,-0.060,-0.205
86,-0.075,-0.200
87,-0.060,-0.170
88,-0.075,-0.215
89,-0.075,-0.225
90,-0.080,-0.305
91,-0.100,-0.365
92,-0.070,-0.380
93,-0.025,-0.370
94,-0.050,-0.385
95,-0.065,-0.395
96,-0.120,-0.410
97,-0.120,-0.385
98,-0.115,-0.355
99,-0.125,-0.425
100,-0.090,-0.290
101,-0.075,0.340
102,-0.105,1.015
103,-0.415,0.820
104,-0.860,0.005
105,-1.235,-0.795
106,-1.075,-0.995
107,-0.130,-0.760
108,0.570,-0.470
109,0.310,-0.315
110,0.040,-0.265
111,-0.090,-0.235
112,-0.065,-0.220
113,-0.045,-0.205
114,-0.060,-0.220
115,-0.045,-0.230
116,-0.030,-0.190
117,-0.045,-0.160
118,-0.035,-0.155
119,-0.030,-0.150
120,-0.015,-0.145
121,0.000,-0.125
122,0.005,-0.130
123,-0.005,-0.125
124,-0.010,-0.095
125,-0.025,-0.085
126,-0.005,-0.080
127,0.000,-0.065
128,0.025,-0.075
129,-0.015,-0.070
130,0.000,-0.100
131,-0.010,-0.065
132,-0.035,-0.085
133,-0.075,-0.075
134,-0.070,-0.125
135,-0.060,-0.160
136,-0.085,-0.185
137,-0.135,-0.195
138,-0.140,-0.220
139,-0.190,-0.255
140,-0.235,-0.290
141,-0.270,-0.315
142,-0.290,-0.295
143,-0.305,-0.265
144,-0.355,-0.240
145,-0.370,-0.240
146,-0.335,-0.235
147,-0.340,-0.245
148,-0.325,-0.230
149,-0.325,-0.270
150,-0.260,-0.255
151,-0.270,-0.245
152,-0.215,-0.285
153,-0.205,-0.270
154,-0.185,-0.275
155,-0.165,-0.295
156,-0.165,-0.265
157,-0.130,-0.255
158,-0.135,-0.275
159,-0.145,-0.285
160,-0.145,-0.280
161,-0.145,-0.295
162,-0.145,-0.290
163,-0.140,-0.295
164,-0.150,-0.260
165,-0.150,-0.275
166,-0.155,-0.285
167,-0.120,-0.330
168,-0.145,-0.335
169,-0.110,-0.345
170,-0.135,-0.320
171,-0.125,-0.320
172,-0.130,-0.335
173,-0.110,-0.345
174,-0.140,-0.340
175,-0.130,-0.360
176,-0.125,-0.350
177,-0.110,-0.345
178,-0.135,-0.345
179,-0.145,-0.355
180,-0.110,-0.345
181,-0.135,-0.365
182,-0.115,-0.360
183,-0.130,-0.355
184,-0.150,-0.375
185,-0.130,-0.365
186,-0.150,-0.370
187,-0.130,-0.405
188,-0.115,-0.410
189,-0.140,-0.380
190,-0.135,-0.370
191,-0.185,-0.385
192,-0.185,-0.380
193,-0.165,-0.330
194,-0.160,-0.305
195,-0.115,-0.260
196,-0.085,-0.260
197,-0.135,-0.240
198,-0.140,-0.255
199,-0.145,-0.240
200,-0.120,-0.305
201,-0.140,-0.385
202,-0.155,-0.440
203,-0.135,-0.420
204,-0.125,-0.450
205,-0.140,-0.425
206,-0.160,-0.425
207,-0.155,-0.430
208,-0.135,-0.415
209,-0.175,-0.450
210,-0.170,-0.510
211,-0.135,-0.015
212,-0.140,0.985
213,-0.245,1.585
214,-0.515,0.840
215,-0.765,-0.515
216,-0.910,-1.140
217,-0.705,-0.960
218,0.000,-0.660
219,0.085,-0.480
220,-0.115,-0.435
221,-0.175,-0.405
222,-0.150,-0.400
223,-0.155,-0.365
224,-0.160,-0.335
225,-0.110,-0.335
226,-0.120,-0.335
227,-0.135,-0.345
228,-0.110,-0.340
229,-0.095,-0.325
230,-0.105,-0.285
231,-0.110,-0.285
232,-0.090,-0.295
233,-0.050,-0.285
234,-0.070,-0.295
235,-0.090,-0.280
236,-0.080,-0.285
237,-0.110,-0.260
238,-0.100,-0.245
239,-0.095,-0.250
240,-0.090,-0.260
241,-0.095,-0.270
242,-0.080,-0.285
243,-0.115,-0.270
244,-0.110,-0.295
245,-0.160,-0.320
246,-0.135,-0.340
247,-0.160,-0.370
248,-0.160,-0.395
249,-0.200,-0.450
250,-0.215,-0.445
251,-0.200,-0.450
252,-0.225,-0.430
253,-0.230,-0.445
254,-0.220,-0.410
255,-0.250,-0.405
256,-0.285,-0.335
257,-0.270,-0.335
258,-0.255,-0.325
259,-0.220,-0.320
260,-0.170,-0.330
261,-0.160,-0.330
262,-0.135,-0.320
263,-0.125,-0.310
264,-0.125,-0.305
265,-0.115,-0.315
266,-0.115,-0.300
267,-0.110,-0.310
268,-0.110,-0.295
269,-0.115,-0.300
270,-0.100,-0.300
271,-0.125,-0.285
272,-0.115,-0.295
273,-0.115,-0.315
274,-0.115,-0.320
275,-0.110,-0.330
276,-0.115,-0.335
277,-0.125,-0.315
278,-0.100,-0.335
279,-0.120,-0.330
280,-0.105,-0.355
281,-0.110,-0.350
282,-0.100,-0.355
283,-0.120,-0.345
284,-0.080,-0.355
285,-0.125,-0.355
286,-0.110,-0.355
287,-0.085,-0.360
288,-0.095,-0.400
289,-0.100,-0.385
290,-0.085,-0.335
291,-0.085,-0.350
292,-0.090,-0.355
293,-0.075,-0.400
294,-0.105,-0.390
295,-0.095,-0.380
296,-0.095,-0.375
297,-0.095,-0.355
298,-0.095,-0.390
299,-0.135,-0.370
300,-0.100,-0.405
301,-0.070,-0.390
302,-0.100,-0.390
303,-0.085,-0.385
304,-0.115,-0.345
305,-0.105,-0.320
306,-0.065,-0.270
307,-0.045,-0.245
308,-0.035,-0.215
309,-0.070,-0.235
310,-0.085,-0.220
311,-0.080,-0.230
312,-0.100,-0.285
313,-0.105,-0.370
314,-0.070,-0.410
315,-0.040,-0.410
316,-0.080,-0.430
317,-0.100,-0.415
318,-0.140,-0.440
319,-0.115,-0.425
320,-0.120,-0.455
321,-0.150,-0.495
322,-0.130,-0.415
323,-0.130,0.395
324,-0.115,1.295
325,-0.285,1.350
326,-0.570,0.235
327,-0.805,-0.925
328,-0.905,-1.055
329,-0.440,-0.740
330,0.100,-0.475
331,0.010,-0.410
332,-0.125,-0.385
333,-0.130,-0.355
334,-0.105,-0.350
335,-0.095,-0.325
336,-0.085,-0.310
337,-0.095,-0.295
338,-0.090,-0.295
339,-0.080,-0.295
340,-0.085,-0.305
341,-0.070,-0.265
342,-0.120,-0.265
343,-0.085,-0.260
344,-0.090,-0.240
345,-0.070,-0.225
346,-0.040,-0.220
347,-0.070,-0.250
348,-0.060,-0.225
349,-0.060,-0.205
350,-0.085,-0.195
351,-0.050,-0.200
352,-0.075,-0.195
353,-0.060,-0.185
354,-0.075,-0.215
355,-0.075,-0.215
356,-0.110,-0.210
357,-0.095,-0.245
358,-0.115,-0.270
359,-0.160,-0.315
360,-0.140,-0.385
361,-0.190,-0.390
362,-0.205,-0.385
363,-0.235,-0.355
364,-0.245,-0.360
365,-0.280,-0.345
366,-0.290,-0.360
367,-0.305,-0.350
368,-0.310,-0.325
369,-0.330,-0.295
370,-0.325,-0.295
371,-0.280,-0.295
372,-0.240,-0.315
373,-0.235,-0.340
374,-0.210,-0.350
375,-0.175,-0.295
376,-0.165,-0.275
377,-0.150,-0.250
378,-0.135,-0.275
379,-0.120,-0.285
380,-0.120,-0.315
381,-0.105,-0.280
382,-0.120,-0.300
383,-0.150,-0.315
384,-0.080,-0.285
385,-0.125,-0.295
386,-0.120,-0.285
387,-0.115,-0.315
388,-0.110,-0.315
389,-0.105,-0.305
390,-0.105,-0.275
391,-0.135,-0.285
392,-0.100,-0.330
393,-0.075,-0.355
394,-0.105,-0.335
395,-0.095,-0.345
396,-0.100,-0.325
397,-0.125,-0.285
398,-0.110,-0.305
399,-0.105,-0.320
400,-0.115,-0.315
401,-0.065,-0.335
402,-0.085,-0.325
403,-0.120,-0.340
404,-0.125,-0.335
405,-0.095,-0.330
406,-0.110,-0.320
407,-0.095,-0.365
408,-0.125,-0.345
409,-0.130,-0.320
410,-0.115,-0.305
411,-0.110,-0.325
412,-0.130,-0.320
413,-0.130,-0.340
414,-0.100,-0.350
415,-0.095,-0.340
416,-0.120,-0.320
417,-0.120,-0.235
418,-0.115,-0.220
419,-0.110,-0.170
420,-0.090,-0.200
421,-0.110,-0.210
422,-0.090,-0.185
423,-0.090,-0.160
424,-0.120,-0.225
425,-0.130,-0.325
426,-0.120,-0.370
427,-0.090,-0.355
428,-0.065,-0.365
429,-0.120,-0.365
430,-0.190,-0.345
431,-0.155,-0.335
432,-0.160,-0.330
433,-0.155,-0.390
434,-0.155,-0.465
435,-0.175,-0.065
436,-0.150,0.735
437,-0.260,1.090
438,-0.635,0.465
439,-1.060,-0.410
440,-1.205,-0.985
441,-0.730,-0.905
442,0.245,-0.640
443,0.435,-0.380
444,0.115,-0.285
445,-0.125,-0.240
446,-0.145,-0.225
447,-0.120,-0.225
448,-0.125,-0.210
449,-0.105,-0.200
450,-0.120,-0.180
451,-0.090,-0.150
452,-0.095,-0.170
453,-0.060,-0.175
454,-0.095,-0.180
455,-0.060,-0.155
456,-0.115,-0.150
457,-0.090,-0.125
458,-0.085,-0.130
459,-0.085,-0.130
460,-0.070,-0.140
461,-0.055,-0.140
462,-0.065,-0.125
463,-0.075,-0.135
464,-0.085,-0.115
465,-0.110,-0.100
466,-0.105,-0.100
467,-0.085,-0.130
468,-0.085,-0.145
469,-0.120,-0.160
470,-0.120,-0.180
471,-0.180,-0.210
472,-0.200,-0.250
473,-0.210,-0.290
474,-0.260,-0.325
475,-0.255,-0.345
476,-0.285,-0.290
477,-0.335,-0.300
478,-0.335,-0.290
479,-0.340,-0.275
480,-0.370,-0.285
481,-0.340,-0.275
482,-0.325,-0.290
483,-0.330,-0.280
484,-0.290,-0.280
485,-0.265,-0.290
486,-0.230,-0.295
487,-0.185,-0.300
488,-0.180,-0.290
489,-0.175,-0.325
490,-0.175,-0.315
491,-0.185,-0.305
492,-0.210,-0.320
493,-0.160,-0.330
494,-0.150,-0.330
495,-0.160,-0.340
496,-0.155,-0.350
497,-0.155,-0.335
498,-0.165,-0.345
499,-0.155,-0.345
500,-0.135,-0.360
501,-0.145,-0.370
502,-0.130,-0.385
503,-0.150,-0.375
504,-0.130,-0.365
505,-0.120,-0.340
506,-0.100,-0.360
507,-0.095,-0.385
508,-0.070,-0.380
509,-0.090,-0.375
510,-0.095,-0.380
511,-0.090,-0.360
512,-0.110,-0.380
513,-0.110,-0.370
514,-0.070,-0.380
515,-0.080,-0.390
516,-0.075,-0.375
517,-0.085,-0.365
518,-0.115,-0.365
519,-0.105,-0.365
520,-0.105,-0.385
521,-0.080,-0.375
522,-0.090,-0.400
523,-0.080,-0.375
524,-0.085,-0.370
525,-0.080,-0.360
526,-0.095,-0.360
527,-0.055,-0.375
528,-0.090,-0.380
529,-0.085,-0.370
530,-0.125,-0.365
531,-0.130,-0.325
532,-0.110,-0.270
533,-0.105,-0.245
534,-0.050,-0.215
535,-0.040,-0.235
536,-0.075,-0.245
537,-0.080,-0.225
538,-0.065,-0.235
539,-0.090,-0.330
540,-0.070,-0.400
541,-0.045,-0.415
542,-0.045,-0.410
543,-0.075,-0.390
544,-0.090,-0.395
545,-0.120,-0.390
546,-0.085,-0.400
547,-0.090,-0.415
548,-0.100,-0.485
549,-0.090,-0.265
550,-0.080,0.640
551,-0.115,1.480
552,-0.335,1.280
553,-0.595,-0.020
554,-0.805,-1.050
555,-0.810,-0.995
556,-0.165,-0.695
557,0.185,-0.420
558,0.005,-0.390
559,-0.125,-0.335
560,-0.095,-0.330
561,-0.075,-0.345
562,-0.085,-0.315
563,-0.080,-0.300
564,-0.080,-0.280
565,-0.075,-0.290
566,-0.060,-0.255
567,-0.075,-0.280
568,-0.065,-0.275
569,-0.050,-0.275
570,-0.070,-0.230
571,-0.045,-0.230
572,-0.105,-0.210
573,-0.060,-0.195
574,-0.070,-0.225
575,-0.050,-0.240
576,-0.085,-0.210
577,-0.110,-0.210
578,-0.095,-0.205
579,-0.080,-0.195
580,-0.105,-0.230
581,-0.115,-0.255
582,-0.105,-0.240
583,-0.155,-0.245
584,-0.145,-0.270
585,-0.135,-0.310
586,-0.155,-0.345
587,-0.180,-0.385
588,-0.190,-0.435
589,-0.205,-0.455
590,-0.235,-0.450
591,-0.240,-0.410
592,-0.240,-0.365
593,-0.260,-0.340
594,-0.240,-0.365
595,-0.280,-0.315
596,-0.250,-0.330
597,-0.240,-0.305
598,-0.220,-0.290
599,-0.190,-0.275
600,-0.195,-0.305
601,-0.160,-0.315
602,-0.135,-0.310
603,-0.115,-0.310
604,-0.145,-0.285
605,-0.155,-0.275
606,-0.155,-0.290
607,-0.150,-0.290
608,-0.140,-0.295
609,-0.115,-0.305
610,-0.145,-0.260
611,-0.120,-0.280
612,-0.130,-0.265
613,-0.125,-0.310
614,-0.120,-0.320
615,-0.115,-0.315
616,-0.105,-0.320
617,-0.145,-0.330
618,-0.140,-0.310
619,-0.150,-0.315
620,-0.100,-0.320
621,-0.115,-0.325
622,-0.125,-0.330
623,-0.125,-0.325
624,-0.115,-0.300
625,-0.125,-0.295
626,-0.115,-0.340
627,-0.115,-0.350
628,-0.095,-0.355
629,-0.095,-0.330
630,-0.085,-0.330
631,-0.090,-0.320
632,-0.080,-0.315
633,-0.115,-0.325
634,-0.110,-0.345
635,-0.095,-0.345
636,-0.085,-0.350
637,-0.070,-0.315
638,-0.080,-0.300
639,-0.095,-0.320
640,-0.085,-0.340
641,-0.030,-0.325
642,-0.085,-0.330
643,-0.085,-0.315
644,-0.090,-0.295
645,-0.075,-0.280
646,-0.090,-0.245
647,-0.055,-0.210
648,-0.050,-0.150
649,-0.020,-0.140
650,-0.050,-0.150
651,-0.040,-0.135
652,-0.015,-0.175
653,-0.040,-0.260
654,-0.040,-0.320
655,-0.025,-0.325
656,-0.015,-0.320
657,-0.025,-0.305
658,-0.045,-0.325
659,-0.060,-0.320
660,-0.065,-0.350
661,-0.045,-0.330
662,-0.055,-0.395
663,-0.085,-0.250
664,-0.070,0.505
665,-0.065,1.210
666,-0.345,1.125
667,-0.710,0.170
668,-0.965,-0.750
669,-0.960,-0.815
670,-0.230,-0.540
671,0.350,-0.285
672,0.200,-0.225
673,-0.025,-0.190
674,-0.045,-0.165
675,-0.035,-0.170
676,-0.030,-0.125
677,-0.030,-0.125
678,-0.040,-0.110
679,-0.030,-0.120
680,-0.020,-0.080
681,-0.030,-0.095
682,0.000,-0.075
683,0.000,-0.070
684,0.000,-0.060
685,0.010,-0.045
686,0.010,-0.060
687,0.015,-0.055
688,0.005,-0.040
689,0.010,-0.010
690,0.000,0.005
691,0.005,-0.005
692,-0.010,0.000
693,0.000,0.020
694,0.005,0.015
695,0.000,0.005
696,-0.015,-0.005
697,-0.045,-0.030
698,-0.065,-0.080
699,-0.090,-0.095
700,-0.080,-0.155
701,-0.120,-0.190
702,-0.175,-0.230
703,-0.205,-0.235
704,-0.205,-0.240
705,-0.270,-0.190
706,-0.270,-0.160
707,-0.310,-0.175
708,-0.340,-0.205
709,-0.355,-0.225
710,-0.340,-0.175
711,-0.355,-0.160
712,-0.315,-0.185
713,-0.285,-0.225
714,-0.260,-0.210
715,-0.215,-0.175
716,-0.195,-0.200
717,-0.185,-0.210
718,-0.170,-0.190
719,-0.190,-0.175
720,-0.160,-0.235
721,-0.170,-0.225
722,-0.165,-0.185
723,-0.125,-0.175
724,-0.135,-0.195
725,-0.160,-0.180
726,-0.175,-0.175
727,-0.155,-0.205
728,-0.145,-0.205
729,-0.160,-0.220
730,-0.160,-0.250
731,-0.140,-0.225
732,-0.170,-0.225
733,-0.130,-0.210
734,-0.145,-0.225
735,-0.135,-0.240
736,-0.155,-0.245
737,-0.160,-0.235
738,-0.135,-0.230
739,-0.135,-0.225
740,-0.150,-0.260
741,-0.145,-0.270
742,-0.120,-0.285
743,-0.140,-0.250
744,-0.120,-0.265
745,-0.125,-0.260
746,-0.150,-0.270
747,-0.130,-0.285
748,-0.110,-0.270
749,-0.125,-0.275
750,-0.125,-0.255
751,-0.115,-0.235
752,-0.120,-0.285
753,-0.150,-0.285
754,-0.115,-0.290
755,-0.125,-0.260
756,-0.140,-0.275
757,-0.150,-0.255
758,-0.145,-0.215
759,-0.150,-0.170
760,-0.115,-0.150
761,-0.065,-0.140
762,-0.065,-0.125
763,-0.100,-0.125
764,-0.115,-0.125
765,-0.110,-0.160
766,-0.100,-0.230
767,-0.100,-0.300
768,-0.100,-0.320
769,-0.080,-0.295
770,-0.070,-0.265
771,-0.080,-0.270
772,-0.125,-0.260
773,-0.095,-0.280
774,-0.105,-0.320
775,-0.105,-0.375
776,-0.115,-0.085
777,-0.085,0.715
778,-0.140,1.265
779,-0.470,0.795
780,-0.860,-0.140
781,-1.115,-0.835
782,-0.800,-0.865
783,0.120,-0.610
784,0.520,-0.315
785,0.230,-0.200
786,0.005,-0.130
787,-0.075,-0.125
788,-0.050,-0.135
789,-0.060,-0.105
790,-0.060,-0.090
791,-0.025,-0.065
792,-0.020,-0.040
793,-0.055,-0.075
794,-0.030,-0.060
795,-0.045,-0.045
796,-0.040,-0.060
797,-0.035,-0.035
798,-0.045,-0.050
799,-0.020,-0.005
800,-0.025,-0.035
801,0.005,-0.025
802,0.000,-0.005
803,-0.025,0.000
804,-0.045,0.010
805,-0.055,-0.005
806,-0.065,-0.015
807,-0.065,-0.010
808,-0.060,-0.025
809,-0.055,-0.045
810,-0.085,-0.030
811,-0.110,-0.080
812,-0.125,-0.145
813,-0.130,-0.165
814,-0.160,-0.230
815,-0.190,-0.240
816,-0.235,-0.230
817,-0.240,-0.230
818,-0.255,-0.220
819,-0.265,-0.205
820,-0.300,-0.185
821,-0.270,-0.205
822,-0.280,-0.175
823,-0.280,-0.185
824,-0.235,-0.170
825,-0.210,-0.185
826,-0.205,-0.190
827,-0.115,-0.205
828,-0.115,-0.210
829,-0.115,-0.205
830,-0.115,-0.185
831,-0.115,-0.195
832,-0.130,-0.205
833,-0.115,-0.195
834,-0.120,-0.215
835,-0.115,-0.210
836,-0.110,-0.210
837,-0.110,-0.200
838,-0.130,-0.220
839,-0.115,-0.220
840,-0.105,-0.255
841,-0.095,-0.275
842,-0.085,-0.275
843,-0.105,-0.255
844,-0.125,-0.250
845,-0.110,-0.250
846,-0.090,-0.250
847,-0.085,-0.280
848,-0.050,-0.300
849,-0.070,-0.265
850,-0.110,-0.275
851,-0.100,-0.295
852,-0.090,-0.305
853,-0.085,-0.335
854,-0.080,-0.305
855,-0.095,-0.280
856,-0.085,-0.260
857,-0.080,-0.275
858,-0.085,-0.285
859,-0.065,-0.315
860,-0.085,-0.305
861,-0.060,-0.330
862,-0.065,-0.315
863,-0.065,-0.290
864,-0.080,-0.285
865,-0.065,-0.280
866,-0.065,-0.300
867,-0.045,-0.300
868,-0.070,-0.315
869,-0.055,-0.315
870,-0.105,-0.285
871,-0.080,-0.310
872,-0.070,-0.290
873,-0.060,-0.265
874,-0.075,-0.205
875,-0.055,-0.190
876,-0.015,-0.140
877,-0.020,-0.155
878,-0.060,-0.140
879,-0.040,-0.150
880,-0.030,-0.190
881,-0.050,-0.270
882,-0.035,-0.320
883,-0.030,-0.325
884,-0.025,-0.320
885,-0.025,-0.325
886,-0.040,-0.320
887,-0.060,-0.320
888,-0.045,-0.315
889,-0.030,-0.330
890,-0.055,-0.375
891,-0.055,0.005
892,-0.015,0.950
893,-0.055,1.620
894,-0.320,1.085
895,-0.590,-0.260
896,-0.790,-1.025
897,-0.710,-0.835
898,0.060,-0.515
899,0.215,-0.315
900,0.055,-0.305
901,-0.045,-0.275
902,-0.025,-0.240
903,-0.010,-0.235
904,-0.005,-0.225
905,0.000,-0.215
906,0.035,-0.200
907,0.025,-0.195
908,0.030,-0.185
909,0.035,-0.180
910,0.030,-0.160
911,0.040,-0.175
912,0.055,-0.135
913,0.085,-0.145
914,0.035,-0.140
915,0.035,-0.145
916,0.005,-0.120
917,0.020,-0.110
918,0.020,-0.110
919,0.025,-0.125
920,0.025,-0.125
921,0.000,-0.125
922,0.015,-0.120
923,-0.015,-0.110
924,-0.015,-0.145
925,-0.030,-0.180
926,-0.025,-0.205
927,-0.045,-0.245
928,-0.030,-0.255
929,-0.090,-0.290
930,-0.085,-0.295
931,-0.115,-0.335
932,-0.105,-0.325
933,-0.120,-0.320
934,-0.125,-0.325
935,-0.160,-0.250
936,-0.170,-0.230
937,-0.175,-0.195
938,-0.165,-0.205
939,-0.135,-0.220
940,-0.115,-0.245
941,-0.105,-0.215
942,-0.070,-0.205
943,-0.070,-0.210
944,-0.055,-0.195
945,-0.050,-0.190
946,-0.060,-0.195
947,-0.020,-0.220
948,-0.030,-0.205
949,-0.015,-0.185
950,-0.015,-0.155
951,-0.035,-0.165
952,-0.045,-0.175
953,-0.045,-0.210
954,-0.030,-0.200
955,-0.050,-0.195
956,-0.065,-0.210
957,-0.065,-0.195
958,-0.055,-0.200
959,-0.050,-0.220
960,-0.060,-0.245
961,-0.040,-0.225
962,-0.055,-0.230
963,-0.055,-0.235
964,-0.085,-0.235
965,-0.065,-0.265
966,-0.075,-0.245
967,-0.040,-0.280
968,-0.045,-0.270
969,-0.035,-0.275
970,-0.030,-0.245
971,-0.050,-0.230
972,-0.075,-0.235
973,-0.040,-0.270
974,-0.040,-0.290
975,-0.045,-0.255
976,-0.065,-0.245
977,-0.075,-0.255
978,-0.095,-0.275
979,-0.075,-0.260
980,-0.035,-0.280
981,-0.080,-0.240
982,-0.040,-0.265
983,-0.070,-0.265
984,-0.060,-0.235
985,-0.040,-0.250
986,-0.040,-0.255
987,-0.020,-0.270
988,-0.070,-0.225
989,-0.070,-0.150
990,-0.040,-0.095
991,0.000,-0.115
992,-0.010,-0.120
993,-0.040,-0.110
994,0.005,-0.150
995,-0.005,-0.230
996,-0.015,-0.305
997,-0.010,-0.290
998,-0.010,-0.295
999,-0.010,-0.300
1000,-0.015,-0.310
1001,-0.040,-0.315
1002,-0.045,-0.305
1003,-0.035,-0.310
1004,-0.045,-0.380
1005,-0.045,-0.365
1006,-0.005,0.235
1007,-0.005,1.005
1008,-0.210,1.140
1009,-0.605,0.410
1010,-1.030,-0.580
1011,-1.100,-0.850
1012,-0.435,-0.630
1013,0.410,-0.370
1014,0.350,-0.270
1015,0.080,-0.200
1016,-0.010,-0.155
1017,0.000,-0.140
1018,0.025,-0.120
1019,0.010,-0.160
1020,0.045,-0.135
1021,0.035,-0.120
1022,0.055,-0.110
1023,0.050,-0.085
1024,0.100,-0.070
1025,0.085,-0.045
1026,0.110,-0.050
1027,0.105,-0.070
1028,0.115,-0.050
1029,0.115,-0.040
1030,0.100,-0.005
1031,0.090,0.015
1032,0.085,0.010
1033,0.110,0.020
1034,0.105,0.000
1035,0.085,-0.005
1036,0.105,0.000
1037,0.070,-0.010
1038,0.080,-0.005
1039,0.045,-0.050
1040,0.060,-0.065
1041,0.030,-0.095
1042,0.000,-0.135
1043,-0.005,-0.180
1044,-0.030,-0.200
1045,-0.055,-0.175
1046,-0.110,-0.220
1047,-0.095,-0.230
1048,-0.150,-0.235
1049,-0.160,-0.215
1050,-0.190,-0.170
1051,-0.215,-0.145
1052,-0.210,-0.135
1053,-0.205,-0.170
1054,-0.170,-0.185
1055,-0.170,-0.190
1056,-0.140,-0.200
1057,-0.095,-0.195
1058,-0.100,-0.160
1059,-0.080,-0.185
1060,-0.040,-0.220
1061,0.000,-0.205
1062,-0.020,-0.185
1063,-0.020,-0.180
1064,-0.045,-0.205
1065,-0.010,-0.200
1066,-0.040,-0.205
1067,-0.040,-0.215
1068,-0.015,-0.205
1069,-0.005,-0.220
1070,-0.045,-0.205
1071,-0.015,-0.200
1072,-0.015,-0.215
1073,0.000,-0.250
1074,-0.010,-0.265
1075,0.005,-0.250
1076,-0.020,-0.260
1077,-0.020,-0.255
1078,-0.035,-0.250
1079,-0.050,-0.240
1080,-0.040,-0.280
1081,-0.010,-0.285
1082,-0.010,-0.305
1083,-0.025,-0.275
1084,-0.015,-0.265
1085,-0.030,-0.290
1086,-0.040,-0.290
1087,-0.020,-0.305
1088,-0.040,-0.325
1089,-0.045,-0.320
1090,-0.065,-0.280
1091,-0.065,-0.300
1092,-0.085,-0.290
1093,-0.070,-0.300
1094,-0.045,-0.310
1095,-0.035,-0.325
1096,-0.080,-0.315
1097,-0.055,-0.300
1098,-0.075,-0.300
1099,-0.080,-0.285
1100,-0.050,-0.265
1101,-0.035,-0.245
1102,-0.020,-0.210
1103,-0.015,-0.180
1104,-0.010,-0.190
1105,-0.030,-0.190
1106,-0.035,-0.185
1107,-0.040,-0.250
1108,-0.040,-0.330
1109,-0.035,-0.390
1110,0.000,-0.360
1111,-0.040,-0.340
1112,-0.045,-0.340
1113,-0.050,-0.335
1114,-0.025,-0.355
1115,-0.065,-0.370
1116,-0.065,-0.395
1117,-0.060,-0.465
1118,-0.075,-0.155
1119,-0.065,0.670
1120,-0.110,1.230
1121,-0.410,0.720
1122,-0.790,-0.300
1123,-0.985,-0.965
1124,-0.705,-0.935
1125,0.190,-0.655
1126,0.410,-0.400
1127,0.115,-0.335
1128,-0.025,-0.300
1129,-0.035,-0.280
1130,0.010,-0.235
1131,-0.015,-0.240
1132,0.010,-0.225
1133,0.005,-0.210
1134,0.005,-0.225
1135,0.015,-0.255
1136,0.015,-0.235
1137,0.015,-0.225
1138,0.010,-0.195
1139,0.005,-0.200
1140,0.015,-0.195
1141,0.035,-0.195
1142,0.040,-0.200
1143,0.005,-0.175
1144,0.005,-0.170
1145,-0.005,-0.155
1146,0.000,-0.145
1147,0.015,-0.160
1148,0.010,-0.195
1149,0.000,-0.180
1150,0.005,-0.195
1151,0.000,-0.230
1152,0.000,-0.240
1153,-0.035,-0.265
1154,-0.020,-0.295
1155,-0.040,-0.330
1156,-0.050,-0.365
1157,-0.075,-0.395
1158,-0.105,-0.365
1159,-0.115,-0.350
1160,-0.125,-0.350
1161,-0.115,-0.340
1162,-0.120,-0.320
1163,-0.140,-0.295
1164,-0.115,-0.270
1165,-0.100,-0.240
1166,-0.090,-0.230
1167,-0.075,-0.235
1168,-0.035,-0.235
1169,0.000,-0.260
1170,0.000,-0.250
1171,0.010,-0.230
1172,0.000,-0.220
1173,0.020,-0.235
1174,0.015,-0.250
1175,0.050,-0.250
1176,0.020,-0.240
1177,0.035,-0.250
1178,0.030,-0.235
1179,0.020,-0.255
1180,-0.005,-0.240
1181,0.005,-0.265
1182,0.015,-0.290
1183,0.000,-0.300
1184,0.005,-0.270
1185,0.000,-0.280
1186,0.020,-0.280
1187,0.010,-0.305
1188,0.010,-0.305
1189,0.030,-0.315
1190,0.050,-0.310
1191,0.020,-0.285
1192,0.040,-0.290
1193,0.050,-0.290
1194,0.060,-0.295
1195,0.040,-0.295
1196,0.025,-0.315
1197,0.060,-0.305
1198,0.035,-0.295
1199,0.015,-0.290
1200,0.025,-0.300
1201,0.040,-0.325
1202,0.050,-0.320
1203,0.035,-0.315
1204,0.045,-0.300
1205,0.035,-0.305
1206,0.025,-0.310
1207,0.005,-0.300
1208,0.030,-0.330
1209,0.035,-0.320
1210,0.030,-0.315
1211,0.030,-0.310
1212,0.025,-0.295
1213,0.005,-0.295
1214,0.040,-0.310
1215,0.005,-0.305
1216,0.035,-0.265
1217,0.050,-0.200
1218,0.050,-0.185
1219,0.080,-0.175
1220,0.035,-0.175
1221,0.025,-0.190
1222,0.045,-0.220
1223,0.015,-0.275
1224,0.005,-0.350
1225,0.035,-0.350
1226,0.035,-0.335
1227,0.025,-0.365
1228,0.020,-0.380
1229,-0.010,-0.380
1230,-0.005,-0.390
1231,-0.010,-0.360
1232,-0.005,-0.400
1233,-0.010,-0.340
1234,0.000,0.355
1235,0.005,1.305
1236,-0.125,1.420
1237,-0.435,0.335
1238,-0.680,-0.880
1239,-0.760,-1.040
1240,-0.315,-0.730
1241,0.255,-0.450
1242,0.180,-0.390
1243,-0.005,-0.340
1244,0.005,-0.295
1245,0.010,-0.290
1246,0.015,-0.275
1247,0.000,-0.280
1248,0.045,-0.280
1249,0.040,-0.285
1250,0.065,-0.245
1251,0.040,-0.215
1252,0.030,-0.230
1253,0.035,-0.200
1254,0.035,-0.235
1255,0.070,-0.240
1256,0.030,-0.245
1257,0.045,-0.215
1258,0.060,-0.210
1259,0.040,-0.200
1260,0.030,-0.190
1261,0.050,-0.205
1262,0.035,-0.215
1263,0.065,-0.215
1264,0.050,-0.195
1265,0.030,-0.170
1266,0.020,-0.200
1267,0.010,-0.250
1268,0.015,-0.280
1269,0.005,-0.310
1270,-0.020,-0.335
1271,-0.005,-0.350
1272,-0.050,-0.365
1273,-0.065,-0.400
1274,-0.095,-0.390
1275,-0.085,-0.390
1276,-0.130,-0.375
1277,-0.145,-0.355
1278,-0.120,-0.335
1279,-0.135,-0.275
1280,-0.130,-0.260
1281,-0.105,-0.270
1282,-0.085,-0.280
1283,-0.045,-0.250
1284,-0.040,-0.255
1285,-0.030,-0.230
1286,0.005,-0.260
1287,-0.005,-0.240
1288,0.040,-0.255
1289,0.035,-0.250
1290,0.055,-0.245
1291,0.025,-0.225
1292,0.035,-0.220
1293,0.035,-0.210
1294,0.050,-0.230
1295,0.025,-0.240
1296,0.075,-0.260
1297,0.040,-0.270
1298,0.050,-0.230
1299,0.050,-0.245
1300,0.015,-0.240
1301,0.035,-0.260
1302,0.055,-0.260
1303,0.055,-0.285
1304,0.040,-0.285
1305,0.055,-0.290
1306,0.030,-0.250
1307,0.040,-0.260
1308,0.040,-0.275
1309,0.065,-0.320
1310,0.075,-0.295
1311,0.075,-0.285
1312,0.065,-0.265
1313,0.035,-0.280
1314,0.020,-0.285
1315,0.035,-0.280
1316,0.055,-0.305
1317,0.040,-0.265
1318,0.030,-0.275
1319,0.010,-0.260
1320,0.030,-0.280
1321,0.030,-0.285
1322,0.015,-0.285
1323,0.005,-0.265
1324,0.015,-0.275
1325,0.040,-0.285
1326,-0.005,-0.270
1327,0.005,-0.260
1328,0.000,-0.260
1329,0.030,-0.275
1330,0.020,-0.275
1331,0.005,-0.215
1332,0.000,-0.160
1333,0.015,-0.120
1334,0.065,-0.120
1335,0.030,-0.135
1336,0.005,-0.145
1337,0.025,-0.155
1338,0.055,-0.200
1339,0.015,-0.270
1340,0.040,-0.300
1341,0.030,-0.290
1342,0.030,-0.330
1343,0.025,-0.315
1344,-0.010,-0.305
1345,0.000,-0.320
1346,-0.025,-0.285
1347,-0.015,-0.355
1348,0.000,-0.385
1349,-0.020,0.080
1350,-0.010,0.840
1351,-0.155,1.035
1352,-0.580,0.370
1353,-1.010,-0.485
1354,-1.095,-0.940
1355,-0.450,-0.775
1356,0.475,-0.530
1357,0.545,-0.345
1358,0.195,-0.255
1359,0.005,-0.190
1360,-0.015,-0.175
1361,0.005,-0.140
1362,0.030,-0.130
1363,0.025,-0.175
1364,0.025,-0.130
1365,0.020,-0.110
1366,0.025,-0.085
1367,0.030,-0.085
1368,0.055,-0.095
1369,0.055,-0.090
1370,0.060,-0.115
1371,0.050,-0.090
1372,0.045,-0.080
1373,0.070,-0.060
1374,0.070,-0.055
1375,0.070,-0.060
1376,0.060,-0.075
1377,0.080,-0.060
1378,0.060,-0.060
1379,0.045,-0.065
1380,0.035,-0.045
1381,0.025,-0.065
1382,0.005,-0.090
1383,0.010,-0.135
1384,0.005,-0.165
1385,-0.015,-0.190
1386,-0.060,-0.205
1387,-0.060,-0.240
1388,-0.115,-0.265
1389,-0.130,-0.320
1390,-0.160,-0.300
1391,-0.205,-0.285
1392,-0.235,-0.225
1393,-0.240,-0.225
1394,-0.290,-0.215
1395,-0.255,-0.240
1396,-0.235,-0.265
1397,-0.205,-0.265
1398,-0.185,-0.260
1399,-0.145,-0.265
1400,-0.125,-0.240
1401,-0.090,-0.255
1402,-0.075,-0.285
1403,-0.015,-0.295
1404,-0.040,-0.290
1405,-0.065,-0.275
1406,-0.050,-0.235
1407,-0.075,-0.270
1408,-0.045,-0.270
1409,-0.015,-0.315
1410,-0.025,-0.295
1411,-0.040,-0.295
1412,-0.040,-0.295
1413,-0.020,-0.300
1414,-0.025,-0.285
1415,-0.030,-0.300
1416,-0.010,-0.330
1417,0.000,-0.335
1418,-0.005,-0.310
1419,-0.005,-0.305
1420,0.000,-0.310
1421,-0.010,-0.320
1422,-0.005,-0.330
1423,0.020,-0.335
1424,0.000,-0.330
1425,-0.015,-0.325
1426,0.020,-0.295
1427,0.020,-0.310
1428,0.000,-0.350
1429,0.015,-0.370
1430,0.015,-0.340
1431,0.035,-0.335
1432,0.010,-0.295
1433,0.015,-0.325
1434,0.010,-0.300
1435,0.020,-0.330
1436,0.005,-0.370
1437,0.015,-0.360
1438,0.010,-0.340
1439,0.005,-0.325
1440,0.010,-0.335
1441,0.010,-0.345
1442,0.020,-0.345
1443,0.040,-0.350
1444,0.020,-0.330
1445,0.015,-0.265
1446,0.020,-0.225
1447,0.040,-0.195
1448,0.065,-0.205
1449,0.055,-0.190
1450,0.035,-0.195
1451,0.060,-0.185
1452,0.065,-0.220
1453,0.035,-0.315
1454,0.025,-0.350
1455,0.045,-0.365
1456,0.060,-0.385
1457,0.030,-0.375
1458,0.020,-0.375
1459,-0.005,-0.350
1460,0.000,-0.340
1461,0.010,-0.380
1462,0.010,-0.440
1463,0.000,0.035
1464,0.025,1.025
1465,-0.075,1.565
1466,-0.340,0.890
1467,-0.620,-0.435
1468,-0.770,-1.035
1469,-0.535,-0.890
1470,0.215,-0.535
1471,0.270,-0.375
1472,0.030,-0.335
1473,-0.020,-0.290
1474,0.000,-0.260
1475,0.025,-0.270
1476,0.025,-0.275
1477,0.020,-0.270
1478,0.005,-0.255
1479,0.050,-0.245
1480,0.020,-0.240
1481,0.030,-0.225
1482,0.045,-0.245
1483,0.050,-0.240
1484,0.035,-0.270
1485,0.050,-0.215
1486,0.030,-0.205
1487,0.025,-0.175
1488,0.020,-0.205
1489,0.025,-0.205
1490,0.035,-0.185
1491,0.020,-0.195
1492,0.035,-0.170
1493,0.000,-0.160
1494,0.000,-0.200
1495,0.005,-0.185
1496,0.015,-0.250
1497,-0.030,-0.265
1498,-0.030,-0.270
1499,-0.035,-0.290
1500,-0.060,-0.340
1501,-0.080,-0.365
1502,-0.070,-0.405
1503,-0.095,-0.435
1504,-0.125,-0.425
1505,-0.110,-0.380
1506,-0.140,-0.330
1507,-0.150,-0.305
1508,-0.135,-0.295
1509,-0.145,-0.325
1510,-0.120,-0.300
1511,-0.120,-0.310
1512,-0.065,-0.285
1513,-0.075,-0.290
1514,-0.060,-0.315
1515,-0.050,-0.300
1516,-0.025,-0.310
1517,-0.020,-0.310
1518,0.000,-0.275
1519,-0.030,-0.260
1520,-0.010,-0.250
1521,-0.010,-0.260
1522,-0.015,-0.290
1523,0.010,-0.295
1524,0.000,-0.265
1525,-0.020,-0.255
1526,0.000,-0.255
1527,-0.015,-0.250
1528,-0.025,-0.265
1529,-0.005,-0.300
1530,0.000,-0.315
1531,0.000,-0.300
1532,0.010,-0.310
1533,-0.010,-0.280
1534,0.000,-0.300
1535,0.010,-0.330
1536,0.000,-0.315
1537,0.025,-0.310
1538,0.010,-0.320
1539,0.000,-0.310
1540,0.010,-0.295
1541,0.000,-0.295
1542,0.025,-0.315
1543,0.040,-0.330
1544,0.035,-0.295
1545,0.025,-0.285
1546,0.005,-0.290
1547,0.015,-0.280
1548,0.010,-0.290
1549,0.035,-0.305
1550,0.040,-0.295
1551,0.025,-0.315
1552,0.030,-0.290
1553,0.040,-0.285
1554,0.040,-0.290
1555,0.005,-0.295
1556,0.070,-0.305
1557,0.045,-0.295
1558,0.035,-0.280
1559,0.040,-0.220
1560,0.000,-0.190
1561,0.040,-0.155
1562,0.075,-0.145
1563,0.070,-0.150
1564,0.060,-0.120
1565,0.065,-0.120
1566,0.055,-0.165
1567,0.035,-0.260
1568,0.060,-0.325
1569,0.065,-0.350
1570,0.065,-0.355
1571,0.050,-0.350
1572,0.015,-0.340
1573,0.000,-0.325
1574,0.025,-0.310
1575,0.020,-0.315
1576,0.045,-0.405
1577,0.030,-0.110
1578,0.010,0.820
1579,0.000,1.555
1580,-0.305,1.080
1581,-0.570,-0.225
1582,-0.775,-0.995
1583,-0.630,-0.815
1584,0.070,-0.495
1585,0.300,-0.300
1586,0.065,-0.265
1587,0.000,-0.225
1588,0.030,-0.235
1589,0.050,-0.230
1590,0.045,-0.210
1591,0.055,-0.215
1592,0.050,-0.190
1593,0.050,-0.160
1594,0.045,-0.170
1595,0.055,-0.170
1596,0.080,-0.180
1597,0.070,-0.180
1598,0.100,-0.155
1599,0.075,-0.145
1600,0.095,-0.115
1601,0.080,-0.120
1602,0.100,-0.120
1603,0.100,-0.115
1604,0.095,-0.085
1605,0.055,-0.085
1606,0.045,-0.045
1607,0.055,-0.075
1608,0.055,-0.050
1609,0.065,-0.085
1610,0.045,-0.090
1611,0.010,-0.110
1612,-0.005,-0.155
1613,-0.040,-0.170
1614,-0.065,-0.190
1615,-0.060,-0.275
1616,-0.085,-0.275
1617,-0.110,-0.300
1618,-0.125,-0.275
1619,-0.180,-0.260
1620,-0.210,-0.240
1621,-0.235,-0.200
1622,-0.195,-0.235
1623,-0.240,-0.225
1624,-0.210,-0.240
1625,-0.210,-0.205
1626,-0.195,-0.190
1627,-0.175,-0.210
1628,-0.145,-0.235
1629,-0.125,-0.245
1630,-0.095,-0.225
1631,-0.060,-0.235
1632,-0.050,-0.210
1633,-0.055,-0.210
1634,-0.080,-0.215
1635,-0.040,-0.240
1636,-0.050,-0.245
1637,-0.040,-0.220
1638,-0.050,-0.215
1639,-0.055,-0.190
1640,-0.065,-0.225
1641,-0.045,-0.260
1642,-0.040,-0.260
1643,-0.015,-0.270
1644,-0.035,-0.245
1645,-0.040,-0.230
1646,-0.055,-0.235
1647,-0.065,-0.255
1648,-0.055,-0.260
1649,-0.035,-0.275
1650,-0.035,-0.290
1651,-0.030,-0.305
1652,-0.005,-0.295
1653,-0.010,-0.290
1654,-0.015,-0.240
1655,-0.040,-0.260
1656,-0.025,-0.295
1657,0.000,-0.295
1658,-0.035,-0.275
1659,-0.040,-0.265
1660,-0.025,-0.280
1661,-0.030,-0.275
1662,-0.030,-0.325
1663,-0.035,-0.305
1664,-0.030,-0.305
1665,-0.020,-0.250
1666,-0.020,-0.240
1667,-0.045,-0.270
1668,-0.030,-0.280
1669,-0.020,-0.295
1670,0.000,-0.290
1671,-0.010,-0.280
1672,-0.010,-0.265
1673,-0.035,-0.205
1674,-0.035,-0.190
1675,-0.005,-0.160
1676,0.045,-0.140
1677,0.020,-0.115
1678,0.000,-0.135
1679,0.000,-0.100
1680,0.000,-0.160
1681,0.005,-0.260
1682,0.005,-0.315
1683,0.045,-0.295
1684,0.045,-0.300
1685,0.010,-0.330
1686,0.005,-0.300
1687,0.000,-0.315
1688,0.005,-0.310
1689,0.010,-0.350
1690,0.000,-0.430
1691,0.015,-0.105
1692,0.000,0.655
1693,-0.085,1.140
1694,-0.415,0.635
1695,-0.865,-0.225
1696,-1.055,-0.880
1697,-0.655,-0.925
1698,0.290,-0.650
1699,0.635,-0.350
1700,0.360,-0.240
1701,0.105,-0.215
1702,0.000,-0.200
1703,0.035,-0.185
1704,0.015,-0.175
1705,0.010,-0.125
1706,0.025,-0.100
1707,0.050,-0.110
1708,0.025,-0.115
1709,0.065,-0.115
1710,0.065,-0.090
1711,0.055,-0.100
1712,0.045,-0.090
1713,0.045,-0.065
1714,0.070,-0.065
1715,0.060,-0.050
1716,0.065,-0.075
1717,0.050,-0.060
1718,0.055,-0.050
1719,0.070,-0.035
1720,0.045,-0.040
1721,0.040,-0.045
1722,0.040,-0.065
1723,0.040,-0.075
1724,-0.005,-0.070
1725,-0.015,-0.095
1726,-0.015,-0.090
1727,-0.020,-0.150
1728,-0.080,-0.175
1729,-0.080,-0.230
1730,-0.110,-0.260
1731,-0.150,-0.265
1732,-0.190,-0.230
1733,-0.185,-0.235
1734,-0.225,-0.205
1735,-0.235,-0.230
1736,-0.210,-0.200
1737,-0.245,-0.220
1738,-0.230,-0.220
1739,-0.205,-0.225
1740,-0.200,-0.220
1741,-0.160,-0.220
1742,-0.130,-0.275
1743,-0.130,-0.280
1744,-0.090,-0.265
1745,-0.115,-0.250
1746,-0.110,-0.275
1747,-0.105,-0.250
1748,-0.075,-0.295
1749,-0.095,-0.290
1750,-0.055,-0.290
1751,-0.080,-0.275
1752,-0.090,-0.300
1753,-0.095,-0.275
1754,-0.055,-0.300
1755,-0.075,-0.305
1756,-0.065,-0.320
1757,-0.075,-0.320
1758,-0.090,-0.320
1759,-0.080,-0.345
1760,-0.085,-0.330
1761,-0.075,-0.365
1762,-0.060,-0.370
1763,-0.040,-0.375
1764,-0.065,-0.375
1765,-0.050,-0.375
1766,-0.055,-0.365
1767,-0.040,-0.380
1768,-0.035,-0.390
1769,-0.035,-0.410
1770,-0.050,-0.390
1771,-0.035,-0.385
1772,-0.065,-0.365
1773,-0.030,-0.355
1774,-0.055,-0.370
1775,-0.005,-0.415
1776,-0.015,-0.410
1777,-0.025,-0.400
1778,-0.050,-0.390
1779,-0.050,-0.390
1780,-0.050,-0.390
1781,-0.030,-0.405
1782,-0.050,-0.405
1783,-0.015,-0.395
1784,-0.025,-0.385
1785,-0.015,-0.410
1786,-0.030,-0.385
1787,-0.035,-0.395
1788,-0.045,-0.385
1789,-0.020,-0.340
1790,-0.050,-0.290
1791,0.000,-0.240
1792,0.020,-0.245
1793,-0.010,-0.215
1794,0.005,-0.240
1795,0.005,-0.250
1796,-0.025,-0.340
1797,-0.035,-0.400
1798,0.000,-0.420
1799,0.000,-0.415
1800,0.005,-0.425
1801,-0.005,-0.420
1802,-0.005,-0.445
1803,-0.005,-0.435
1804,0.005,-0.410
1805,0.000,-0.450
1806,-0.005,-0.345
1807,0.005,0.425
1808,0.020,1.335
1809,-0.175,1.390
1810,-0.480,0.255
1811,-0.695,-0.910
1812,-0.760,-1.015
1813,-0.180,-0.720
1814,0.300,-0.465
1815,0.160,-0.420
1816,0.000,-0.380
1817,0.010,-0.345
1818,0.025,-0.320
1819,0.015,-0.305
1820,0.035,-0.275
1821,0.045,-0.310
1822,0.060,-0.305
1823,0.060,-0.275
1824,0.050,-0.290
1825,0.040,-0.275
1826,0.030,-0.270
1827,0.065,-0.270
1828,0.045,-0.270
1829,0.060,-0.265
1830,0.065,-0.245
1831,0.040,-0.230
1832,0.045,-0.205
1833,0.055,-0.205
1834,0.070,-0.230
1835,0.050,-0.225
1836,0.035,-0.235
1837,0.040,-0.225
1838,0.030,-0.200
1839,0.015,-0.205
1840,0.010,-0.235
1841,0.010,-0.305
1842,0.020,-0.345
1843,-0.005,-0.355
1844,-0.025,-0.380
1845,-0.045,-0.415
1846,-0.070,-0.425
1847,-0.095,-0.425
1848,-0.090,-0.405
1849,-0.100,-0.380
1850,-0.090,-0.360
1851,-0.145,-0.320
1852,-0.125,-0.300
1853,-0.135,-0.315
1854,-0.100,-0.335
1855,-0.100,-0.355
1856,-0.030,-0.340
1857,-0.050,-0.310
1858,-0.055,-0.315
1859,-0.035,-0.315
1860,-0.020,-0.300
1861,-0.005,-0.315
1862,0.000,-0.305
1863,-0.010,-0.305
1864,-0.010,-0.285
1865,-0.035,-0.305
1866,-0.060,-0.280
1867,-0.050,-0.290
1868,-0.020,-0.305
1869,-0.005,-0.325
1870,-0.010,-0.315
1871,-0.030,-0.335
1872,-0.065,-0.300
1873,-0.060,-0.335
1874,-0.030,-0.335
1875,-0.040,-0.365
1876,0.000,-0.370
1877,-0.035,-0.355
1878,-0.050,-0.325
1879,-0.015,-0.355
1880,-0.055,-0.400
1881,-0.030,-0.400
1882,-0.005,-0.400
1883,-0.020,-0.385
1884,-0.035,-0.385
1885,-0.030,-0.370
1886,-0.020,-0.360
1887,-0.065,-0.390
1888,-0.020,-0.405
1889,-0.015,-0.390
1890,-0.010,-0.390
1891,-0.020,-0.385
1892,-0.035,-0.355
1893,-0.005,-0.380
1894,-0.025,-0.375
1895,-0.035,-0.395
1896,-0.025,-0.395
1897,-0.040,-0.390
1898,-0.035,-0.385
1899,-0.055,-0.365
1900,-0.030,-0.385
1901,-0.050,-0.380
1902,-0.030,-0.400
1903,-0.035,-0.375
1904,-0.055,-0.320
1905,-0.075,-0.250
1906,-0.015,-0.220
1907,0.000,-0.245
1908,-0.015,-0.230
1909,0.000,-0.245
1910,0.000,-0.230
1911,-0.040,-0.315
1912,-0.045,-0.390
1913,-0.040,-0.425
1914,-0.010,-0.425
1915,0.000,-0.450
1916,-0.030,-0.420
1917,-0.055,-0.395
1918,-0.025,-0.395
1919,-0.065,-0.405
1920,-0.070,-0.470
1921,-0.010,-0.460
1922,-0.025,0.185
1923,-0.005,0.980
1924,-0.255,1.120
1925,-0.650,0.325
1926,-0.970,-0.715
1927,-1.015,-0.925
1928,-0.315,-0.690
1929,0.385,-0.455
1930,0.255,-0.345
1931,0.025,-0.270
1932,0.005,-0.235
1933,0.035,-0.225
1934,0.050,-0.215
1935,0.055,-0.235
1936,0.050,-0.230
1937,0.055,-0.195
1938,0.045,-0.180
1939,0.055,-0.180
1940,0.075,-0.150
1941,0.090,-0.135
1942,0.110,-0.125
1943,0.100,-0.125
1944,0.085,-0.105
1945,0.090,-0.095
1946,0.085,-0.095
1947,0.075,-0.095
1948,0.075,-0.080
1949,0.095,-0.080
1950,0.095,-0.065
1951,0.070,-0.090
1952,0.070,-0.055
1953,0.075,-0.045
1954,0.040,-0.055
1955,0.015,-0.080
1956,0.000,-0.100
1957,-0.030,-0.110
1958,-0.060,-0.085
1959,-0.040,-0.120
1960,-0.060,-0.130
1961,-0.040,-0.160
1962,-0.095,-0.205
1963,-0.115,-0.275
1964,-0.140,-0.315
1965,-0.130,-0.255
1966,-0.125,-0.240
1967,-0.170,-0.250
1968,-0.200,-0.275
1969,-0.185,-0.330
1970,-0.160,-0.305
1971,-0.155,-0.305
1972,-0.155,-0.315
1973,-0.115,-0.290
1974,-0.070,-0.305
1975,-0.040,-0.310
1976,-0.050,-0.320
1977,-0.010,-0.325
1978,-0.060,-0.325
1979,-0.055,-0.285
1980,-0.035,0.030
1981,-0.090,0.455
1982,-0.240,0.245
1983,-0.675,-0.650
1984,-1.015,-1.035
1985,-0.975,-1.000
1986,-0.220,-0.960
1987,0.635,-0.965
1988,0.580,-0.920
1989,0.450,-0.880
1990,0.550,-0.900
1991,0.710,-0.635
1992,0.750,-0.320
1993,0.605,-0.160
1994,0.515,-0.050
1995,0.485,-0.010
1996,0.245,-0.040
1997,-0.020,-0.015
1998,-0.090,0.050
1999,-0.070,0.055
2000,-0.060,0.000
2001,0.010,-0.065
2002,0.015,-0.075
2003,0.050,-0.055
2004,0.015,-0.030
2005,-0.015,-0.020
2006,-0.045,0.000
2007,-0.045,-0.030
2008,-0.065,-0.020
2009,-0.060,-0.030
2010,-0.075,-0.030
2011,-0.110,-0.010
2012,-0.130,-0.005
2013,-0.155,0.015
2014,-0.210,0.035
2015,-0.225,0.040
2016,-0.235,0.040
2017,-0.270,0.080
2018,-0.310,0.075
2019,-0.375,0.095
2020,-0.415,0.080
2021,-0.455,0.060
2022,-0.475,0.025
2023,-0.460,-0.005
2024,-0.440,-0.035
2025,-0.425,-0.080
2026,-0.405,-0.075
2027,-0.365,-0.120
2028,-0.320,-0.120
2029,-0.315,-0.155
2030,-0.265,-0.215
2031,-0.230,-0.335
2032,-0.190,-0.330
2033,-0.105,-0.360
2034,-0.080,-0.370
2035,-0.090,-0.395
2036,-0.075,-0.390
2037,-0.060,-0.415
2038,-0.055,-0.430
2039,-0.055,-0.430
2040,-0.050,-0.420
2041,-0.055,-0.435
2042,-0.060,-0.415
2043,-0.055,-0.465
2044,-0.045,-0.460
2045,-0.035,-0.455
2046,-0.055,-0.425
2047,-0.065,-0.430
2048,-0.065,-0.435
2049,-0.050,-0.465
2050,-0.040,-0.500
2051,-0.060,0.010
2052,-0.050,0.835
2053,-0.220,1.080
2054,-0.620,0.350
2055,-0.990,-0.655
2056,-1.080,-1.090
2057,-0.545,-0.855
2058,0.285,-0.515
2059,0.355,-0.365
2060,0.125,-0.375
2061,0.025,-0.355
2062,0.075,-0.370
2063,0.120,-0.385
2064,0.120,-0.375
2065,0.095,-0.375
2066,0.090,-0.370
2067,0.075,-0.355
2068,0.065,-0.330
2069,0.070,-0.355
2070,0.045,-0.365
2071,0.080,-0.350
2072,0.060,-0.345
2073,0.065,-0.350
2074,0.065,-0.320
2075,0.065,-0.345
2076,0.050,-0.315
2077,0.080,-0.340
2078,0.075,-0.340
2079,0.075,-0.340
2080,0.040,-0.350
2081,0.050,-0.350
2082,0.055,-0.375
2083,0.045,-0.420
2084,0.025,-0.440
2085,0.030,-0.475
2086,0.000,-0.475
2087,-0.010,-0.495
2088,-0.045,-0.505
2089,-0.055,-0.490
2090,-0.075,-0.475
2091,-0.075,-0.465
2092,-0.090,-0.395
2093,-0.090,-0.360
2094,-0.120,-0.335
2095,-0.135,-0.355
2096,-0.135,-0.350
2097,-0.100,-0.345
2098,-0.070,-0.365
2099,-0.055,-0.355
2100,-0.065,-0.350
2101,-0.045,-0.360
2102,-0.035,-0.375
2103,-0.050,-0.375
2104,-0.030,-0.405
2105,-0.025,-0.400
2106,-0.010,-0.410
2107,-0.045,-0.390
2108,-0.045,-0.370
2109,-0.055,-0.395
2110,-0.025,-0.395
2111,-0.020,-0.410
2112,-0.055,-0.395
2113,-0.010,-0.420
2114,-0.010,-0.385
2115,0.000,-0.425
2116,0.000,-0.415
2117,0.000,-0.430
2118,-0.005,-0.440
2119,0.000,-0.470
2120,-0.015,-0.425
2121,-0.005,-0.400
2122,-0.015,-0.440
2123,0.000,-0.445
2124,0.000,-0.445
2125,0.020,-0.445
2126,0.000,-0.455
2127,-0.025,-0.440
2128,-0.020,-0.430
2129,-0.020,-0.415
2130,0.000,-0.440
2131,0.000,-0.440
2132,0.000,-0.450
2133,0.000,-0.450
2134,-0.020,-0.455
2135,-0.020,-0.445
2136,-0.025,-0.435
2137,0.005,-0.440
2138,0.000,-0.475
2139,-0.015,-0.485
2140,0.000,-0.470
2141,-0.010,-0.455
2142,-0.025,-0.460
2143,-0.025,-0.465
2144,0.020,-0.490
2145,-0.010,-0.495
2146,0.000,-0.480
2147,-0.020,-0.490
2148,-0.025,-0.470
2149,-0.030,-0.450
2150,-0.015,-0.445
2151,0.000,-0.475
2152,0.000,-0.490
2153,-0.005,-0.480
2154,-0.020,-0.470
2155,-0.010,-0.465
2156,0.000,-0.470
2157,-0.015,-0.475
2158,0.000,-0.465
2159,-0.015,-0.500
2160,-0.010,-0.470
2161,-0.020,-0.480
2162,-0.055,-0.440
2163,-0.015,-0.445
2164,0.000,-0.465
2165,-0.015,-0.480
2166,0.000,-0.475
2167,-0.015,-0.475
2168,-0.015,-0.455
2169,-0.030,-0.445
2170,-0.010,-0.450
2171,0.000,-0.475
2172,0.000,-0.490
2173,-0.010,-0.485
2174,0.005,-0.490
2175,-0.040,-0.430
2176,-0.030,-0.460
2177,0.000,-0.445
2178,0.000,-0.475
2179,-0.015,-0.460
2180,-0.030,-0.455
2181,-0.020,-0.465
2182,-0.040,-0.430
2183,-0.020,-0.440
2184,0.000,-0.455
2185,0.000,-0.475
2186,0.000,-0.465
2187,-0.010,-0.470
2188,0.000,-0.420
2189,0.015,-0.405
2190,-0.005,-0.425
2191,0.000,-0.445
2192,0.020,-0.445
2193,0.035,-0.445
2194,0.010,-0.425
2195,0.000,-0.390
2196,0.010,-0.340
2197,0.020,-0.305
2198,0.075,-0.300
2199,0.060,-0.295
2200,0.010,-0.285
2201,0.025,-0.260
2202,0.045,-0.290
2203,0.025,-0.355
2204,0.000,-0.445
2205,0.035,-0.495
2206,0.050,-0.480
2207,0.050,-0.465
2208,0.005,-0.440
2209,0.000,-0.430
2210,0.000,-0.430
2211,0.015,-0.445
2212,0.000,-0.505
2213,0.000,-0.255
2214,-0.010,0.650
2215,-0.035,1.460
2216,-0.295,1.200
2217,-0.560,-0.065
2218,-0.720,-1.075
2219,-0.720,-0.985
2220,0.025,-0.630
2221,0.250,-0.435
2222,0.060,-0.385
2223,-0.035,-0.360
2224,0.010,-0.340
2225,0.015,-0.330
2226,0.050,-0.340
2227,0.035,-0.320
2228,0.045,-0.305
2229,0.045,-0.310
2230,0.045,-0.280
2231,0.065,-0.285
2232,0.050,-0.300
2233,0.060,-0.300
2234,0.075,-0.245
2235,0.060,-0.230
2236,0.060,-0.185
2237,0.090,-0.220
2238,0.070,-0.205
2239,0.095,-0.240
2240,0.070,-0.205
2241,0.065,-0.180
2242,0.045,-0.180
2243,0.030,-0.190
2244,0.025,-0.180
2245,0.020,-0.205
2246,0.035,-0.230
2247,0.010,-0.255
2248,0.000,-0.245
2249,-0.035,-0.245
2250,-0.065,-0.275
2251,-0.110,-0.320
2252,-0.105,-0.370
2253,-0.135,-0.380
2254,-0.175,-0.380
2255,-0.230,-0.345
2256,-0.265,-0.350
2257,-0.310,-0.320
2258,-0.320,-0.320
2259,-0.355,-0.285
2260,-0.330,-0.300
2261,-0.335,-0.295
2262,-0.350,-0.275
2263,-0.300,-0.260
2264,-0.260,-0.270
2265,-0.230,-0.280
2266,-0.200,-0.275
2267,-0.180,-0.310
2268,-0.145,-0.290
2269,-0.135,-0.285
2270,-0.125,-0.270
2271,-0.125,-0.290
2272,-0.095,-0.280
2273,-0.095,-0.290
2274,-0.075,-0.280
2275,-0.085,-0.295
2276,-0.085,-0.275
2277,-0.060,-0.280
2278,-0.065,-0.280
2279,-0.060,-0.350
2280,-0.080,-0.340
2281,-0.075,-0.320
2282,-0.110,-0.310
2283,-0.085,-0.310
2284,-0.085,-0.340
2285,-0.085,-0.365
2286,-0.055,-0.340
2287,-0.045,-0.330
2288,-0.055,-0.320
2289,-0.075,-0.350
2290,-0.070,-0.350
2291,-0.040,-0.365
2292,-0.055,-0.360
2293,-0.030,-0.370
2294,-0.055,-0.375
2295,-0.065,-0.380
2296,-0.045,-0.335
2297,-0.045,-0.330
2298,-0.070,-0.360
2299,-0.030,-0.395
2300,-0.045,-0.380
2301,-0.060,-0.360
2302,-0.035,-0.360
2303,-0.065,-0.340
2304,-0.050,-0.360
2305,-0.055,-0.340
2306,-0.050,-0.360
2307,-0.075,-0.365
2308,-0.040,-0.390
2309,-0.080,-0.365
2310,-0.055,-0.315
2311,-0.060,-0.320
2312,-0.060,-0.390
2313,-0.075,-0.340
2314,-0.040,-0.235
2315,-0.035,-0.185
2316,-0.020,-0.195
2317,-0.045,-0.220
2318,-0.050,-0.215
2319,-0.025,-0.250
2320,-0.040,-0.290
2321,-0.030,-0.350
2322,-0.045,-0.375
2323,-0.025,-0.390
2324,-0.020,-0.395
2325,-0.030,-0.445
2326,-0.040,-0.450
2327,-0.035,-0.420
2328,-0.050,-0.405
2329,-0.065,-0.415
2330,-0.055,-0.430
2331,-0.055,0.005
2332,-0.030,0.790
2333,-0.195,1.065
2334,-0.605,0.395
2335,-1.020,-0.465
2336,-1.055,-1.015
2337,-0.470,-0.930
2338,0.480,-0.645
2339,0.530,-0.405
2340,0.230,-0.310
2341,-0.005,-0.270
2342,-0.025,-0.240
2343,-0.030,-0.230
2344,0.000,-0.205
2345,0.000,-0.205
2346,0.010,-0.205
2347,0.010,-0.215
2348,0.025,-0.205
2349,-0.005,-0.180
2350,0.040,-0.190
2351,0.015,-0.160
2352,0.040,-0.155
2353,0.030,-0.160
2354,0.035,-0.140
2355,0.025,-0.145
2356,0.035,-0.135
2357,0.030,-0.125
2358,0.035,-0.110
2359,0.045,-0.130
2360,0.010,-0.095
2361,0.000,-0.110
2362,0.000,-0.110
2363,-0.020,-0.110
2364,-0.015,-0.130
2365,0.000,-0.200
2366,-0.055,-0.200
2367,-0.080,-0.255
2368,-0.075,-0.270
2369,-0.140,-0.290
2370,-0.135,-0.325
2371,-0.150,-0.350
2372,-0.165,-0.365
2373,-0.215,-0.365
2374,-0.205,-0.360
2375,-0.240,-0.315
2376,-0.245,-0.300
2377,-0.245,-0.290
2378,-0.210,-0.315
2379,-0.210,-0.320
2380,-0.180,-0.300
2381,-0.155,-0.320
2382,-0.140,-0.310
2383,-0.130,-0.320
2384,-0.120,-0.310
2385,-0.100,-0.320
2386,-0.065,-0.350
2387,-0.085,-0.335
2388,-0.105,-0.340
2389,-0.125,-0.320
2390,-0.110,-0.320
2391,-0.090,-0.360
2392,-0.080,-0.375
2393,-0.095,-0.370
2394,-0.110,-0.370
2395,-0.095,-0.370
2396,-0.085,-0.385
2397,-0.075,-0.385
2398,-0.075,-0.395
2399,-0.060,-0.410
2400,-0.060,-0.425
2401,-0.065,-0.430
2402,-0.070,-0.425
2403,-0.070,-0.400
2404,-0.070,-0.400
2405,-0.050,-0.415
2406,-0.045,-0.430
2407,-0.025,-0.435
2408,-0.060,-0.415
2409,-0.030,-0.405
2410,-0.070,-0.410
2411,-0.035,-0.405
2412,-0.050,-0.445
2413,-0.010,-0.465
2414,-0.035,-0.450
2415,-0.025,-0.425
2416,-0.040,-0.395
2417,-0.005,-0.410
2418,-0.020,-0.425
2419,-0.010,-0.445
2420,-0.030,-0.420
2421,-0.010,-0.405
2422,-0.035,-0.425
2423,-0.015,-0.395
2424,-0.025,-0.410
2425,0.000,-0.420
2426,-0.005,-0.430
2427,0.010,-0.425
2428,-0.025,-0.430
2429,-0.015,-0.415
2430,0.005,-0.410
2431,-0.005,-0.365
2432,-0.005,-0.345
2433,0.020,-0.315
2434,0.015,-0.305
2435,0.005,-0.265
2436,0.010,-0.255
2437,0.030,-0.260
2438,0.030,-0.365
2439,0.005,-0.440
2440,0.020,-0.455
2441,0.025,-0.480
2442,0.020,-0.440
2443,-0.005,-0.450
2444,-0.010,-0.445
2445,0.015,-0.450
2446,0.020,-0.440
2447,0.015,-0.505
2448,0.005,-0.470
2449,0.000,0.220
2450,0.000,1.205
2451,-0.110,1.495
2452,-0.415,0.530
2453,-0.640,-0.810
2454,-0.745,-1.090
2455,-0.300,-0.790
2456,0.315,-0.500
2457,0.195,-0.410
2458,0.020,-0.400
2459,0.030,-0.380
2460,0.030,-0.365
2461,0.030,-0.325
2462,0.055,-0.305
2463,0.050,-0.300
2464,0.080,-0.315
2465,0.095,-0.300
2466,0.080,-0.305
2467,0.060,-0.285
2468,0.075,-0.265
2469,0.070,-0.255
2470,0.085,-0.275
2471,0.075,-0.270
2472,0.080,-0.255
2473,0.075,-0.255
2474,0.085,-0.235
2475,0.065,-0.215
2476,0.080,-0.195
2477,0.085,-0.200
2478,0.075,-0.215
2479,0.050,-0.245
2480,0.055,-0.240
2481,0.040,-0.245
2482,0.020,-0.250
2483,0.005,-0.270
2484,0.000,-0.290
2485,0.000,-0.340
2486,-0.015,-0.390
2487,-0.030,-0.405
2488,-0.060,-0.435
2489,-0.080,-0.440
2490,-0.130,-0.430
2491,-0.100,-0.400
2492,-0.100,-0.395
2493,-0.105,-0.375
2494,-0.130,-0.365
2495,-0.105,-0.315
2496,-0.075,-0.330
2497,-0.120,-0.315
2498,-0.050,-0.335
2499,-0.050,-0.360
2500,-0.025,-0.340
2501,-0.035,-0.300
2502,-0.005,-0.300
2503,0.000,-0.305
2504,0.000,-0.305
2505,0.010,-0.305
2506,0.020,-0.335
2507,0.010,-0.310
2508,-0.015,-0.320
2509,0.010,-0.320
2510,0.005,-0.295
2511,0.000,-0.290
2512,0.020,-0.315
2513,0.015,-0.325
2514,0.000,-0.310
2515,-0.005,-0.340
2516,-0.020,-0.320
2517,0.000,-0.330
2518,0.000,-0.365
2519,0.000,-0.385
2520,0.010,-0.360
2521,0.015,-0.360
2522,0.000,-0.350
2523,-0.005,-0.350
2524,-0.005,-0.360
2525,0.015,-0.385
2526,0.000,-0.405
2527,0.000,-0.405
2528,0.005,-0.395
2529,0.000,-0.360
2530,-0.015,-0.360
2531,0.005,-0.375
2532,0.005,-0.370
2533,0.035,-0.390
2534,0.000,-0.395
2535,-0.010,-0.360
2536,0.020,-0.380
2537,-0.010,-0.375
2538,0.005,-0.385
2539,0.025,-0.385
2540,0.010,-0.370
2541,0.015,-0.350
2542,0.000,-0.345
2543,0.015,-0.350
2544,0.010,-0.360
2545,0.025,-0.360
2546,0.020,-0.335
2547,0.010,-0.270
2548,0.030,-0.240
2549,0.065,-0.215
2550,0.050,-0.185
2551,0.055,-0.200
2552,0.055,-0.235
2553,0.075,-0.290
2554,0.040,-0.340
2555,0.055,-0.395
2556,0.065,-0.400
2557,0.065,-0.400
2558,0.065,-0.370
2559,0.055,-0.405
2560,0.050,-0.395
2561,0.025,-0.380
2562,0.050,-0.390
2563,0.040,-0.500
2564,0.030,-0.050
2565,0.075,0.765
2566,-0.080,1.190
2567,-0.445,0.690
2568,-0.805,-0.390
2569,-0.980,-0.925
2570,-0.575,-0.730
2571,0.350,-0.485
2572,0.440,-0.355
2573,0.180,-0.315
2574,0.070,-0.245
2575,0.100,-0.225
2576,0.105,-0.195
2577,0.095,-0.170
2578,0.110,-0.175
2579,0.120,-0.175
2580,0.115,-0.155
2581,0.110,-0.125
2582,0.145,-0.110
2583,0.135,-0.100
2584,0.140,-0.110
2585,0.150,-0.090
2586,0.165,-0.115
2587,0.150,-0.085
2588,0.170,-0.065
2589,0.175,-0.035
2590,0.165,-0.040
2591,0.170,-0.050
2592,0.195,-0.040
2593,0.175,-0.035
2594,0.155,-0.065
2595,0.140,-0.050
2596,0.130,-0.040
2597,0.145,-0.060
2598,0.125,-0.070
2599,0.110,-0.135
2600,0.075,-0.165
2601,0.030,-0.210
2602,0.000,-0.230
2603,-0.030,-0.225
2604,-0.040,-0.265
2605,-0.085,-0.275
2606,-0.085,-0.255
2607,-0.140,-0.265
2608,-0.165,-0.225
2609,-0.175,-0.215
2610,-0.175,-0.215
2611,-0.150,-0.240
2612,-0.105,-0.230
2613,-0.085,-0.280
2614,-0.055,-0.270
2615,-0.060,-0.255
2616,-0.040,-0.270
2617,-0.025,-0.295
2618,0.000,-0.265
2619,0.045,-0.275
2620,0.020,-0.270
2621,0.020,-0.275
2622,0.020,-0.315
2623,0.000,-0.240
2624,0.020,-0.295
2625,0.005,-0.270
2626,0.010,-0.285
2627,-0.005,-0.275
2628,0.010,-0.300
2629,-0.020,-0.305
2630,0.020,-0.345
2631,-0.020,-0.320
2632,0.005,-0.325
2633,0.005,-0.355
2634,0.000,-0.330
2635,0.000,-0.345
2636,0.015,-0.315
2637,0.010,-0.345
2638,0.000,-0.360
2639,0.030,-0.395
2640,0.010,-0.375
2641,0.000,-0.380
2642,0.000,-0.370
2643,0.000,-0.350
2644,-0.005,-0.365
2645,-0.010,-0.370
2646,0.025,-0.400
2647,-0.020,-0.400
2648,-0.020,-0.390
2649,-0.025,-0.410
2650,-0.055,-0.395
2651,-0.025,-0.395
2652,-0.015,-0.420
2653,-0.025,-0.400
2654,-0.010,-0.385
2655,-0.005,-0.390
2656,-0.050,-0.385
2657,-0.050,-0.355
2658,-0.075,-0.310
2659,-0.010,-0.280
2660,0.000,-0.285
2661,0.000,-0.275
2662,-0.020,-0.260
2663,0.000,-0.225
2664,-0.010,-0.285
2665,-0.055,-0.335
2666,0.005,-0.440
2667,0.005,-0.455
2668,-0.010,-0.450
2669,-0.015,-0.435
2670,-0.025,-0.440
2671,-0.065,-0.410
2672,-0.035,-0.440
2673,-0.040,-0.460
2674,-0.020,-0.545
2675,-0.050,-0.370
2676,-0.040,0.395
2677,-0.105,1.085
2678,-0.365,0.785
2679,-0.765,-0.145
2680,-0.995,-0.950
2681,-0.775,-1.065
2682,0.110,-0.800
2683,0.510,-0.530
2684,0.245,-0.405
2685,0.030,-0.350
2686,-0.030,-0.350
2687,-0.005,-0.355
2688,0.010,-0.335
2689,0.020,-0.310
2690,0.020,-0.300
2691,0.045,-0.275
2692,0.010,-0.290
2693,0.040,-0.300
2694,0.030,-0.310
2695,0.015,-0.305
2696,0.030,-0.285
2697,0.015,-0.275
2698,0.015,-0.245
2699,0.030,-0.280
2700,0.020,-0.285
2701,0.030,-0.270
2702,0.025,-0.230
2703,0.020,-0.220
2704,0.000,-0.245
2705,-0.005,-0.250
2706,0.010,-0.275
2707,0.000,-0.270
2708,-0.015,-0.310
2709,-0.010,-0.310
2710,-0.010,-0.335
2711,-0.030,-0.365
2712,-0.060,-0.415
2713,-0.080,-0.435
2714,-0.100,-0.465
2715,-0.105,-0.465
2716,-0.120,-0.450
2717,-0.130,-0.420
2718,-0.145,-0.400
2719,-0.165,-0.395
2720,-0.155,-0.360
2721,-0.150,-0.350
2722,-0.130,-0.330
2723,-0.115,-0.320
2724,-0.095,-0.320
2725,-0.080,-0.355
2726,-0.035,-0.350
2727,-0.025,-0.370
2728,-0.010,-0.340
2729,-0.005,-0.310
2730,-0.010,-0.315
2731,-0.005,-0.335
2732,-0.010,-0.350
2733,-0.010,-0.340
2734,0.000,-0.335
2735,0.000,-0.335
2736,-0.015,-0.335
2737,-0.020,-0.350
2738,-0.015,-0.360
2739,0.000,-0.375
2740,0.000,-0.380
2741,-0.010,-0.375
2742,0.000,-0.360
2743,-0.015,-0.385
2744,-0.025,-0.375
2745,0.010,-0.390
2746,0.010,-0.405
2747,0.025,-0.415
2748,0.000,-0.400
2749,0.000,-0.375
2750,0.025,-0.400
2751,0.040,-0.405
2752,0.045,-0.430
2753,0.000,-0.445
2754,-0.005,-0.410
2755,0.000,-0.375
2756,0.005,-0.370
2757,0.030,-0.380
2758,0.025,-0.400
2759,0.020,-0.415
2760,0.030,-0.410
2761,0.010,-0.415
2762,0.005,-0.405
2763,-0.005,-0.395
2764,-0.005,-0.415
2765,0.010,-0.415
2766,0.010,-0.410
2767,0.010,-0.415
2768,0.015,-0.410
2769,0.010,-0.400
2770,-0.010,-0.405
2771,0.005,-0.410
2772,0.000,-0.375
2773,-0.035,-0.320
2774,0.030,-0.305
2775,0.025,-0.285
2776,0.010,-0.240
2777,0.000,-0.265
2778,0.065,-0.275
2779,0.020,-0.355
2780,0.005,-0.415
2781,0.005,-0.465
2782,0.005,-0.450
2783,0.015,-0.445
2784,0.005,-0.475
2785,0.005,-0.485
2786,-0.020,-0.465
2787,-0.025,-0.465
2788,-0.035,-0.480
2789,-0.035,-0.495
2790,-0.030,0.090
2791,0.000,1.075
2792,-0.145,1.420
2793,-0.440,0.470
2794,-0.660,-0.820
2795,-0.800,-1.125
2796,-0.355,-0.835
2797,0.260,-0.535
2798,0.190,-0.475
2799,-0.005,-0.450
2800,-0.040,-0.415
2801,0.000,-0.375
2802,0.020,-0.365
2803,0.005,-0.325
2804,0.000,-0.335
2805,0.030,-0.340
2806,0.025,-0.350
2807,0.035,-0.310
2808,0.030,-0.305
2809,0.025,-0.295
2810,0.030,-0.310
2811,0.010,-0.290
2812,0.035,-0.300
2813,0.060,-0.290
2814,0.030,-0.265
2815,0.015,-0.250
2816,0.020,-0.245
2817,0.030,-0.260
2818,0.060,-0.275
2819,0.030,-0.285
2820,0.020,-0.280
2821,0.025,-0.265
2822,0.010,-0.295
2823,0.000,-0.295
2824,0.010,-0.315
2825,0.000,-0.365
2826,-0.025,-0.390
2827,-0.060,-0.425
2828,-0.085,-0.430
2829,-0.085,-0.455
2830,-0.155,-0.480
2831,-0.115,-0.460
2832,-0.120,-0.430
2833,-0.120,-0.415
2834,-0.135,-0.360
2835,-0.145,-0.360
2836,-0.145,-0.335
2837,-0.120,-0.320
2838,-0.125,-0.345
2839,-0.070,-0.340
2840,-0.055,-0.320
2841,-0.030,-0.330
2842,-0.030,-0.305
2843,-0.020,-0.305
2844,-0.010,-0.300
2845,0.005,-0.305
2846,0.010,-0.305
2847,0.015,-0.280
2848,0.010,-0.290
2849,0.005,-0.275
2850,0.005,-0.280
2851,0.005,-0.290
2852,0.020,-0.280
2853,0.015,-0.275
2854,0.015,-0.300
2855,0.025,-0.295
2856,0.055,-0.285
2857,0.020,-0.295
2858,0.040,-0.340
2859,0.000,-0.330
2860,0.015,-0.315
2861,0.000,-0.315
2862,0.000,-0.325
2863,0.005,-0.310
2864,0.030,-0.320
2865,0.025,-0.350
2866,0.040,-0.330
2867,0.030,-0.315
2868,0.010,-0.320
2869,0.010,-0.310
2870,0.020,-0.305
2871,0.020,-0.320
2872,0.050,-0.325
2873,0.035,-0.305
2874,0.025,-0.295
2875,0.035,-0.320
2876,0.025,-0.310
2877,0.000,-0.310
2878,0.025,-0.320
2879,0.010,-0.315
2880,0.040,-0.315
2881,0.015,-0.310
2882,0.020,-0.285
2883,0.015,-0.275
2884,0.025,-0.295
2885,0.030,-0.305
2886,0.000,-0.280
2887,0.010,-0.225
2888,0.045,-0.165
2889,0.055,-0.150
2890,0.045,-0.170
2891,0.035,-0.180
2892,0.035,-0.180
2893,0.040,-0.190
2894,0.010,-0.300
2895,0.000,-0.320
2896,0.040,-0.345
2897,0.040,-0.335
2898,0.025,-0.360
2899,-0.015,-0.325
2900,-0.010,-0.330
2901,-0.035,-0.350
2902,-0.020,-0.325
2903,-0.050,-0.430
2904,-0.040,-0.115
2905,-0.020,0.630
2906,-0.115,1.040
2907,-0.490,0.565
2908,-0.990,-0.270
2909,-1.150,-0.885
2910,-0.650,-0.900
2911,0.390,-0.625
2912,0.580,-0.360
2913,0.265,-0.285
2914,0.030,-0.225
2915,-0.030,-0.200
2916,0.000,-0.190
2917,-0.010,-0.185
2918,0.020,-0.190
2919,0.035,-0.195
2920,0.050,-0.155
2921,0.020,-0.130
2922,0.020,-0.135
2923,0.005,-0.135
2924,0.025,-0.110
2925,0.075,-0.155
2926,0.055,-0.130
2927,0.055,-0.120
2928,0.050,-0.090
2929,0.055,-0.075
2930,0.055,-0.080
2931,0.100,-0.080
2932,0.065,-0.090
2933,0.070,-0.110
2934,0.045,-0.070
2935,0.045,-0.055
2936,0.010,-0.100
2937,0.025,-0.115
2938,0.035,-0.155
2939,-0.010,-0.190
2940,-0.050,-0.215
2941,-0.080,-0.220
2942,-0.095,-0.265
2943,-0.105,-0.305
2944,-0.185,-0.330
2945,-0.170,-0.325
2946,-0.220,-0.315
2947,-0.225,-0.300
2948,-0.255,-0.285
2949,-0.275,-0.280
2950,-0.240,-0.290
2951,-0.230,-0.335
2952,-0.195,-0.320
2953,-0.165,-0.280
2954,-0.150,-0.275
2955,-0.120,-0.270
2956,-0.095,-0.250
2957,-0.055,-0.250
2958,-0.020,-0.235
2959,-0.005,-0.205
2960,0.025,-0.150
2961,0.000,-0.195
2962,-0.015,-0.245
2963,-0.015,-0.320
2964,0.025,-0.325
2965,0.050,-0.350
2966,0.050,-0.340
2967,0.035,-0.340
2968,0.035,-0.340
2969,0.000,-0.350
2970,-0.015,-0.335
2971,0.000,-0.385
2972,-0.020,-0.395
2973,-0.025,-0.395
2974,-0.030,-0.375
2975,-0.005,-0.350
2976,-0.005,-0.370
2977,0.000,-0.470
2978,0.020,-0.335
2979,0.010,0.395
2980,-0.030,1.060
2981,-0.365,0.850
2982,-0.750,-0.125
2983,-1.005,-0.910
2984,-0.785,-0.930
2985,0.145,-0.650
2986,0.510,-0.425
2987,0.185,-0.370
2988,0.005,-0.290
2989,0.005,-0.280
2990,0.030,-0.280
2991,0.020,-0.300
2992,0.035,-0.270
2993,0.020,-0.255
2994,0.025,-0.255
2995,0.015,-0.240
2996,0.025,-0.230
2997,0.035,-0.210
2998,0.040,-0.255
2999,0.035,-0.245
3000,0.035,-0.220
3001,0.030,-0.205
3002,0.030,-0.200
3003,0.050,-0.180
3004,0.045,-0.215
3005,0.055,-0.210
3006,0.050,-0.215
3007,0.030,-0.200
3008,0.025,-0.220
3009,0.030,-0.230
3010,0.005,-0.250
3011,0.005,-0.285
3012,0.030,-0.330
3013,0.000,-0.355
3014,-0.025,-0.370
3015,-0.020,-0.400
3016,-0.035,-0.410
3017,-0.045,-0.430
3018,-0.060,-0.415
3019,-0.060,-0.395
3020,-0.075,-0.340
3021,-0.090,-0.290
3022,-0.095,-0.285
3023,-0.110,-0.305
3024,-0.065,-0.320
3025,-0.045,-0.310
3026,-0.040,-0.275
3027,-0.040,-0.295
3028,-0.030,-0.290
3029,-0.025,-0.300
3030,-0.010,-0.315
3031,-0.010,-0.320
3032,0.000,-0.320
3033,-0.010,-0.320
3034,0.010,-0.290
3035,-0.020,-0.300
3036,-0.030,-0.320
3037,-0.035,-0.335
3038,-0.025,-0.350
3039,-0.010,-0.340
3040,-0.020,-0.340
3041,-0.045,-0.310
3042,-0.020,-0.340
3043,-0.020,-0.345
3044,-0.020,-0.380
3045,-0.010,-0.375
3046,0.000,-0.375
3047,-0.035,-0.360
3048,0.000,-0.345
3049,-0.030,-0.360
3050,-0.005,-0.365
3051,0.010,-0.405
3052,0.000,-0.380
3053,0.010,-0.365
3054,-0.005,-0.375
3055,0.000,-0.360
3056,0.005,-0.365
3057,0.030,-0.400
3058,0.020,-0.400
3059,0.010,-0.375
3060,0.005,-0.385
3061,0.015,-0.380
3062,0.020,-0.365
3063,0.025,-0.375
3064,0.015,-0.395
3065,0.025,-0.400
3066,0.010,-0.395
3067,0.040,-0.370
3068,0.035,-0.380
3069,0.055,-0.375
3070,0.030,-0.385
3071,0.040,-0.405
3072,0.025,-0.380
3073,0.020,-0.380
3074,0.000,-0.370
3075,0.010,-0.365
3076,0.045,-0.380
3077,0.025,-0.385
3078,0.035,-0.400
3079,0.045,-0.385
3080,0.025,-0.370
3081,0.025,-0.350
3082,0.030,-0.385
3083,0.020,-0.395
3084,0.030,-0.395
3085,0.045,-0.395
3086,0.035,-0.390
3087,0.010,-0.390
3088,0.030,-0.375
3089,0.035,-0.385
3090,0.055,-0.405
3091,0.035,-0.395
3092,0.045,-0.370
3093,0.000,-0.345
3094,0.015,-0.260
3095,0.040,-0.230
3096,0.080,-0.225
3097,0.075,-0.235
3098,0.060,-0.215
3099,0.090,-0.215
3100,0.090,-0.250
3101,0.050,-0.345
3102,0.045,-0.370
3103,0.075,-0.395
3104,0.100,-0.420
3105,0.065,-0.400
3106,0.055,-0.385
3107,0.050,-0.380
3108,0.055,-0.345
3109,0.060,-0.405
3110,0.085,-0.395
3111,0.060,0.225
3112,0.085,1.205
3113,-0.095,1.485
3114,-0.375,0.510
3115,-0.615,-0.820
3116,-0.730,-1.030
3117,-0.205,-0.730
3118,0.365,-0.455
3119,0.220,-0.395
3120,0.055,-0.345
3121,0.045,-0.315
3122,0.080,-0.310
3123,0.075,-0.295
3124,0.095,-0.295
3125,0.085,-0.265
3126,0.125,-0.270
3127,0.100,-0.230
3128,0.115,-0.205
3129,0.095,-0.215
3130,0.100,-0.240
3131,0.120,-0.245
3132,0.100,-0.235
3133,0.105,-0.205
3134,0.100,-0.180
3135,0.095,-0.165
3136,0.115,-0.160
3137,0.135,-0.195
3138,0.115,-0.180
3139,0.125,-0.190
3140,0.105,-0.170
3141,0.095,-0.145
3142,0.080,-0.190
3143,0.055,-0.215
3144,0.045,-0.220
3145,0.045,-0.255
3146,0.040,-0.270
3147,0.010,-0.290
3148,0.000,-0.315
3149,-0.025,-0.360
3150,-0.055,-0.375
3151,-0.080,-0.375
3152,-0.085,-0.365
3153,-0.120,-0.340
3154,-0.155,-0.315
3155,-0.140,-0.295
3156,-0.135,-0.270
3157,-0.150,-0.265
3158,-0.125,-0.265
3159,-0.120,-0.265
3160,-0.135,-0.255
3161,-0.085,-0.250
3162,-0.075,-0.240
3163,-0.060,-0.230
3164,-0.015,-0.270
3165,-0.005,-0.275
3166,-0.025,-0.255
3167,-0.025,-0.240
3168,-0.035,-0.235
3169,0.020,-0.240
3170,-0.005,-0.235
3171,-0.005,-0.245
3172,0.000,-0.285
3173,-0.005,-0.260
3174,-0.035,-0.260
3175,-0.010,-0.235
3176,-0.020,-0.250
3177,0.000,-0.260
3178,0.005,-0.315
3179,0.000,-0.310
3180,0.000,-0.310
3181,0.015,-0.280
3182,0.000,-0.265
3183,-0.010,-0.295
3184,-0.005,-0.310
3185,0.005,-0.335
3186,0.010,-0.315
3187,0.020,-0.295
3188,0.010,-0.310
3189,-0.005,-0.325
3190,-0.015,-0.320
3191,0.010,-0.330
3192,0.020,-0.315
3193,0.010,-0.300
3194,0.000,-0.330
3195,-0.030,-0.325
3196,-0.005,-0.320
3197,0.020,-0.320
3198,0.035,-0.355
3199,0.020,-0.350
3200,-0.010,-0.335
3201,0.000,-0.305
3202,-0.010,-0.330
3203,-0.010,-0.350
3204,0.020,-0.345
3205,0.015,-0.355
3206,0.005,-0.320
3207,-0.005,-0.335
3208,-0.030,-0.305
3209,-0.015,-0.325
3210,-0.010,-0.300
3211,-0.020,-0.250
3212,0.000,-0.210
3213,0.015,-0.165
3214,0.020,-0.185
3215,0.020,-0.170
3216,-0.010,-0.170
3217,0.005,-0.245
3218,0.000,-0.315
3219,0.000,-0.365
3220,0.020,-0.345
3221,0.020,-0.335
3222,0.000,-0.335
3223,0.000,-0.345
3224,0.000,-0.345
3225,-0.005,-0.340
3226,-0.005,-0.340
3227,-0.010,-0.430
3228,-0.025,-0.205
3229,-0.005,0.530
3230,-0.065,1.100
3231,-0.410,0.760
3232,-0.850,-0.075
3233,-1.095,-0.845
3234,-0.760,-0.900
3235,0.265,-0.645
3236,0.645,-0.360
3237,0.370,-0.250
3238,0.130,-0.210
3239,0.025,-0.185
3240,0.080,-0.175
3241,0.060,-0.140
3242,0.045,-0.150
3243,0.090,-0.145
3244,0.085,-0.150
3245,0.100,-0.145
3246,0.080,-0.115
3247,0.095,-0.090
3248,0.070,-0.075
3249,0.085,-0.075
3250,0.085,-0.075
3251,0.115,-0.105
3252,0.110,-0.080
3253,0.105,-0.055
3254,0.100,-0.065
3255,0.100,-0.045
3256,0.080,-0.045
3257,0.090,-0.050
3258,0.090,-0.055
3259,0.085,-0.075
3260,0.050,-0.075
3261,0.065,-0.055
3262,0.035,-0.080
3263,0.030,-0.120
3264,0.030,-0.155
3265,-0.025,-0.185
3266,-0.035,-0.210
3267,-0.055,-0.235
3268,-0.120,-0.240
3269,-0.120,-0.245
3270,-0.135,-0.270
3271,-0.160,-0.280
3272,-0.165,-0.245
3273,-0.180,-0.230
3274,-0.235,-0.220
3275,-0.200,-0.225
3276,-0.185,-0.230
3277,-0.125,-0.240
3278,-0.100,-0.275
3279,-0.075,-0.270
3280,-0.085,-0.275
3281,-0.055,-0.255
3282,-0.040,-0.260
3283,-0.015,-0.240
3284,-0.020,-0.280
3285,0.000,-0.275
3286,-0.010,-0.260
3287,-0.015,-0.275
3288,-0.025,-0.275
3289,-0.015,-0.295
3290,-0.025,-0.300
3291,0.000,-0.320
3292,-0.035,-0.315
3293,-0.025,-0.345
3294,-0.030,-0.325
3295,-0.025,-0.330
3296,-0.005,-0.345
3297,-0.010,-0.345
3298,-0.010,-0.375
3299,-0.005,-0.355
3300,-0.005,-0.375
3301,-0.015,-0.360
3302,0.010,-0.365
3303,0.000,-0.375
3304,-0.005,-0.395
3305,-0.020,-0.385
3306,0.005,-0.395
3307,-0.010,-0.400
3308,0.005,-0.380
3309,-0.010,-0.390
3310,0.000,-0.395
3311,0.010,-0.420
3312,-0.010,-0.410
3313,-0.010,-0.410
3314,0.000,-0.390
3315,0.000,-0.405
3316,0.005,-0.390
3317,-0.015,-0.410
3318,0.015,-0.420
3319,0.000,-0.425
3320,0.000,-0.410
3321,0.000,-0.400
3322,0.005,-0.390
3323,0.000,-0.395
3324,-0.015,-0.400
3325,0.010,-0.400
3326,-0.020,-0.375
3327,-0.030,-0.300
3328,0.005,-0.280
3329,0.010,-0.270
3330,0.045,-0.270
3331,0.015,-0.270
3332,0.030,-0.270
3333,0.040,-0.255
3334,0.020,-0.330
3335,0.020,-0.390
3336,0.035,-0.430
3337,0.065,-0.455
3338,0.055,-0.445
3339,0.015,-0.435
3340,0.000,-0.445
3341,0.000,-0.425
3342,0.020,-0.415
3343,0.010,-0.465
3344,0.035,-0.455
3345,0.020,0.190
3346,0.045,1.175
3347,-0.130,1.530
3348,-0.415,0.520
3349,-0.645,-0.795
3350,-0.710,-1.105
3351,-0.250,-0.845
3352,0.305,-0.530
3353,0.190,-0.420
3354,0.015,-0.385
3355,0.040,-0.335
3356,0.075,-0.320
3357,0.065,-0.345
3358,0.075,-0.310
3359,0.075,-0.315
3360,0.100,-0.295
3361,0.080,-0.275
3362,0.060,-0.250
3363,0.090,-0.265
3364,0.095,-0.290
3365,0.120,-0.270
3366,0.105,-0.250
3367,0.115,-0.235
3368,0.095,-0.230
3369,0.100,-0.180
3370,0.105,-0.220
3371,0.095,-0.220
3372,0.090,-0.230
3373,0.125,-0.195
3374,0.070,-0.205
3375,0.100,-0.175
3376,0.100,-0.215
3377,0.080,-0.245
3378,0.050,-0.255
3379,0.025,-0.265
3380,0.010,-0.310
3381,0.005,-0.300
3382,-0.005,-0.355
3383,-0.020,-0.385
3384,-0.025,-0.445
3385,-0.040,-0.425
3386,-0.060,-0.430
3387,-0.065,-0.405
3388,-0.100,-0.365
3389,-0.110,-0.315
3390,-0.090,-0.335
3391,-0.060,-0.355
3392,-0.075,-0.340
3393,-0.050,-0.305
3394,-0.030,-0.300
3395,-0.005,-0.305
3396,-0.010,-0.290
3397,0.010,-0.330
3398,-0.005,-0.295
3399,0.025,-0.300
3400,0.005,-0.270
3401,0.020,-0.270
3402,0.010,-0.255
3403,0.020,-0.295
3404,0.015,-0.285
3405,0.020,-0.280
3406,0.000,-0.300
3407,0.000,-0.280
3408,0.000,-0.295
3409,-0.005,-0.315
3410,0.025,-0.335
3411,0.015,-0.350
3412,0.015,-0.335
3413,0.015,-0.350
3414,0.015,-0.300
3415,0.000,-0.355
3416,-0.010,-0.380
3417,0.000,-0.355
3418,0.010,-0.370
3419,0.000,-0.375
3420,0.015,-0.370
3421,0.000,-0.380
3422,0.015,-0.365
3423,0.005,-0.380
3424,0.000,-0.390
3425,0.010,-0.380
3426,0.010,-0.375
3427,-0.005,-0.395
3428,0.020,-0.370
3429,0.010,-0.385
3430,0.020,-0.380
3431,0.000,-0.425
3432,0.025,-0.410
3433,0.000,-0.420
3434,0.000,-0.390
3435,0.005,-0.385
3436,0.000,-0.395
3437,0.000,-0.400
3438,0.010,-0.405
3439,0.020,-0.390
3440,0.015,-0.375
3441,0.005,-0.385
3442,0.005,-0.375
3443,0.015,-0.340
3444,0.025,-0.285
3445,0.030,-0.260
3446,0.045,-0.255
3447,0.010,-0.250
3448,0.005,-0.230
3449,0.045,-0.215
3450,0.020,-0.275
3451,0.025,-0.395
3452,0.015,-0.430
3453,0.030,-0.420
3454,0.025,-0.400
3455,0.010,-0.380
3456,-0.010,-0.400
3457,0.005,-0.425
3458,0.000,-0.395
3459,-0.005,-0.430
3460,-0.005,-0.465
3461,0.005,0.075
3462,0.005,1.005
3463,-0.130,1.420
3464,-0.415,0.640
3465,-0.660,-0.630
3466,-0.775,-1.075
3467,-0.430,-0.785
3468,0.250,-0.480
3469,0.210,-0.385
3470,0.030,-0.345
3471,0.020,-0.355
3472,0.020,-0.325
3473,0.050,-0.285
3474,0.065,-0.265
3475,0.060,-0.250
3476,0.050,-0.230
3477,0.080,-0.245
3478,0.105,-0.270
3479,0.070,-0.245
3480,0.060,-0.180
3481,0.090,-0.165
3482,0.105,-0.150
3483,0.100,-0.145
3484,0.110,-0.155
3485,0.130,-0.120
3486,0.125,-0.125
3487,0.120,-0.105
3488,0.095,-0.095
3489,0.110,-0.090
3490,0.095,-0.115
3491,0.100,-0.135
3492,0.080,-0.120
3493,0.080,-0.100
3494,0.095,-0.080
3495,0.045,-0.120
3496,0.045,-0.155
3497,0.050,-0.215
3498,0.020,-0.290
3499,-0.015,-0.305
3500,-0.065,-0.295
3501,-0.075,-0.300
3502,-0.125,-0.280
3503,-0.130,-0.305
3504,-0.165,-0.285
3505,-0.170,-0.255
3506,-0.205,-0.245
3507,-0.195,-0.235
3508,-0.210,-0.265
3509,-0.180,-0.280
3510,-0.125,-0.280
3511,-0.100,-0.310
3512,-0.070,-0.330
3513,-0.040,-0.290
3514,-0.060,-0.265
3515,-0.025,-0.275
3516,-0.030,-0.285
3517,-0.005,-0.280
3518,0.005,-0.295
3519,0.000,-0.315
3520,-0.005,-0.300
3521,-0.045,-0.290
3522,-0.010,-0.295
3523,-0.015,-0.315
3524,-0.015,-0.330
3525,-0.020,-0.325
3526,-0.020,-0.300
3527,-0.010,-0.285
3528,-0.025,-0.325
3529,-0.040,-0.370
3530,-0.015,-0.370
3531,-0.035,-0.345
3532,-0.025,-0.335
3533,-0.035,-0.325
3534,-0.035,-0.305
3535,-0.020,-0.325
3536,-0.005,-0.370
3537,-0.030,-0.400
3538,-0.030,-0.385
3539,-0.045,-0.345
3540,-0.005,-0.370
3541,-0.035,-0.360
3542,-0.070,-0.350
3543,-0.050,-0.360
3544,-0.025,-0.350
3545,-0.025,-0.350
3546,-0.035,-0.360
3547,-0.035,-0.360
3548,-0.065,-0.355
3549,-0.050,-0.380
3550,-0.040,-0.380
3551,-0.025,-0.355
3552,-0.085,-0.370
3553,-0.065,-0.400
3554,-0.060,-0.390
3555,-0.080,-0.350
3556,-0.055,-0.350
3557,-0.070,-0.305
3558,-0.030,-0.265
3559,-0.040,-0.240
3560,-0.065,-0.245
3561,-0.065,-0.215
3562,-0.055,-0.240
3563,-0.040,-0.280
3564,-0.055,-0.365
3565,-0.075,-0.425
3566,-0.065,-0.435
3567,-0.060,-0.435
3568,-0.040,-0.415
3569,-0.060,-0.405
3570,-0.085,-0.435
3571,-0.100,-0.425
3572,-0.090,-0.410
3573,-0.080,-0.510
3574,-0.100,-0.250
3575,-0.085,0.490
3576,-0.120,1.075
3577,-0.480,0.670
3578,-0.915,-0.235
3579,-1.110,-0.950
3580,-0.755,-1.030
3581,0.270,-0.765
3582,0.550,-0.450
3583,0.270,-0.350
3584,0.040,-0.310
3585,-0.055,-0.265
3586,-0.035,-0.265
3587,-0.055,-0.260
3588,0.000,-0.255
3589,-0.015,-0.240
3590,0.000,-0.240
3591,0.010,-0.245
3592,0.000,-0.220
3593,0.000,-0.205
3594,-0.015,-0.200
3595,0.010,-0.210
3596,0.025,-0.210
3597,0.025,-0.210
3598,0.015,-0.175
3599,0.005,-0.190
3600,0.005,-0.180
3601,0.000,-0.175
3602,0.020,-0.210
3603,0.025,-0.200
3604,0.020,-0.195
3605,-0.015,-0.180
3606,-0.020,-0.200
3607,-0.015,-0.205
3608,-0.020,-0.245
3609,-0.065,-0.270
3610,-0.070,-0.295
3611,-0.075,-0.335
3612,-0.110,-0.355
3613,-0.140,-0.370
3614,-0.135,-0.385
3615,-0.155,-0.405
3616,-0.155,-0.380
3617,-0.175,-0.350
3618,-0.175,-0.335
3619,-0.190,-0.300
3620,-0.185,-0.290
3621,-0.155,-0.300
3622,-0.105,-0.335
3623,-0.090,-0.335
3624,-0.070,-0.330
3625,-0.040,-0.320
3626,-0.040,-0.305
3627,-0.035,-0.330
3628,-0.020,-0.295
3629,-0.005,-0.325
3630,-0.010,-0.320
3631,0.000,-0.305
3632,-0.005,-0.335
3633,-0.025,-0.310
3634,0.000,-0.310
3635,-0.005,-0.335
3636,-0.015,-0.325
3637,-0.040,-0.340
3638,-0.010,-0.325
3639,-0.010,-0.340
3640,-0.005,-0.355
3641,0.005,-0.365
3642,0.000,-0.365
3643,-0.010,-0.365
3644,-0.005,-0.370
3645,-0.015,-0.345
3646,-0.015,-0.355
3647,-0.005,-0.355
3648,0.000,-0.380
3649,-0.010,-0.380
3650,0.010,-0.375
3651,0.000,-0.330
3652,0.000,-0.380
3653,-0.005,-0.380
3654,-0.005,-0.380
3655,0.020,-0.375
3656,0.010,-0.390
3657,-0.005,-0.390
3658,0.000,-0.380
3659,-0.010,-0.360
3660,0.005,-0.380
3661,-0.010,-0.370
3662,0.000,-0.400
3663,0.000,-0.385
3664,0.000,-0.375
3665,0.000,-0.345
3666,0.000,-0.370
3667,-0.010,-0.385
3668,0.025,-0.385
3669,0.000,-0.385
3670,0.000,-0.365
3671,-0.035,-0.355
3672,-0.010,-0.330
3673,-0.025,-0.300
3674,0.000,-0.255
3675,0.010,-0.260
3676,0.045,-0.260
3677,0.005,-0.220
3678,0.000,-0.210
3679,0.000,-0.260
3680,0.000,-0.345
3681,0.010,-0.420
3682,0.000,-0.445
3683,-0.005,-0.445
3684,-0.010,-0.450
3685,-0.025,-0.430
3686,-0.045,-0.425
3687,-0.025,-0.410
3688,0.000,-0.420
3689,-0.045,-0.505
3690,-0.030,-0.290
3691,-0.030,0.645
3692,-0.060,1.505
3693,-0.295,1.275
3694,-0.545,0.000
3695,-0.690,-1.060
3696,-0.690,-1.040
3697,-0.015,-0.725
3698,0.250,-0.495
3699,0.045,-0.420
3700,-0.035,-0.395
3701,-0.015,-0.390
3702,0.015,-0.375
3703,0.000,-0.345
3704,0.000,-0.315
3705,-0.015,-0.305
3706,0.025,-0.325
3707,0.030,-0.325
3708,0.010,-0.295
3709,-0.010,-0.300
3710,0.000,-0.275
3711,0.005,-0.285
3712,0.025,-0.295
3713,0.020,-0.300
3714,0.050,-0.265
3715,0.030,-0.295
3716,0.020,-0.245
3717,0.020,-0.265
3718,0.005,-0.260
3719,0.010,-0.235
3720,0.025,-0.255
3721,0.010,-0.260
3722,0.000,-0.275
3723,0.005,-0.245
3724,-0.005,-0.265
3725,-0.025,-0.300
3726,-0.015,-0.340
3727,-0.050,-0.365
3728,-0.060,-0.400
3729,-0.075,-0.430
3730,-0.090,-0.430
3731,-0.110,-0.470
3732,-0.080,-0.460
3733,-0.105,-0.440
3734,-0.155,-0.420
3735,-0.155,-0.370
3736,-0.130,-0.350
3737,-0.145,-0.330
3738,-0.130,-0.330
3739,-0.105,-0.335
3740,-0.065,-0.335
3741,-0.070,-0.320
3742,-0.030,-0.300
3743,-0.030,-0.320
3744,-0.030,-0.325
3745,-0.020,-0.300
3746,-0.005,-0.300
3747,0.000,-0.290
3748,-0.005,-0.280
3749,-0.005,-0.270
3750,0.010,-0.255
3751,-0.010,-0.250
3752,0.000,-0.265
3753,-0.020,-0.285
3754,0.000,-0.265
3755,-0.025,-0.290
3756,-0.020,-0.265
3757,-0.020,-0.255
3758,-0.035,-0.285
3759,0.000,-0.310
3760,0.005,-0.315
3761,-0.005,-0.320
3762,-0.010,-0.320
3763,-0.015,-0.300
3764,-0.040,-0.290
3765,-0.015,-0.320
3766,-0.010,-0.325
3767,-0.025,-0.335
3768,-0.025,-0.325
3769,-0.045,-0.310
3770,-0.030,-0.320
3771,-0.035,-0.330
3772,-0.040,-0.340
3773,-0.030,-0.320
3774,-0.005,-0.335
3775,-0.060,-0.310
3776,-0.075,-0.305
3777,-0.040,-0.310
3778,-0.040,-0.310
3779,-0.025,-0.310
3780,-0.055,-0.315
3781,-0.055,-0.295
3782,-0.075,-0.295
3783,-0.065,-0.295
3784,-0.060,-0.325
3785,-0.070,-0.320
3786,-0.065,-0.295
3787,-0.075,-0.230
3788,-0.055,-0.170
3789,-0.050,-0.130
3790,-0.060,-0.145
3791,-0.040,-0.175
3792,-0.035,-0.195
3793,-0.050,-0.170
3794,-0.050,-0.235
3795,-0.080,-0.315
3796,-0.080,-0.320
3797,-0.050,-0.355
3798,-0.050,-0.330
3799,-0.065,-0.360
3800,-0.100,-0.340
3801,-0.125,-0.315
3802,-0.110,-0.305
3803,-0.110,-0.375
3804,-0.110,-0.390
3805,-0.080,0.140
3806,-0.120,0.945
3807,-0.360,1.160
3808,-0.740,0.505
3809,-1.075,-0.545
3810,-1.130,-0.930
3811,-0.405,-0.725
3812,0.335,-0.400
3813,0.190,-0.275
3814,-0.090,-0.225
3815,-0.145,-0.215
3816,-0.075,-0.190
3817,-0.055,-0.175
3818,-0.065,-0.160
3819,-0.085,-0.180
3820,-0.075,-0.150
3821,-0.065,-0.140
3822,-0.090,-0.130
3823,-0.060,-0.095
3824,-0.050,-0.120
3825,-0.065,-0.105
3826,-0.050,-0.110
3827,-0.060,-0.090
3828,-0.045,-0.060
3829,-0.050,-0.025
3830,-0.015,-0.050
3831,-0.020,-0.055
3832,-0.025,-0.065
3833,-0.055,-0.040
3834,-0.025,-0.010
3835,-0.075,-0.025
3836,-0.050,-0.050
3837,-0.050,-0.065
3838,-0.050,-0.105
3839,-0.090,-0.100
3840,-0.115,-0.140
3841,-0.145,-0.175
3842,-0.195,-0.215
3843,-0.215,-0.240
3844,-0.225,-0.285
3845,-0.270,-0.305
3846,-0.290,-0.250
3847,-0.305,-0.250
3848,-0.325,-0.245
3849,-0.360,-0.245
3850,-0.335,-0.270
3851,-0.335,-0.260
3852,-0.370,-0.250
3853,-0.345,-0.240
3854,-0.310,-0.250
3855,-0.245,-0.275
3856,-0.195,-0.270
3857,-0.220,-0.260
3858,-0.195,-0.275
3859,-0.170,-0.255
3860,-0.175,-0.250
3861,-0.165,-0.265
3862,-0.150,-0.280
3863,-0.135,-0.255
3864,-0.185,-0.245
3865,-0.170,-0.275
3866,-0.170,-0.280
3867,-0.170,-0.270
3868,-0.150,-0.265
3869,-0.130,-0.245
3870,-0.190,-0.280
3871,-0.185,-0.300
3872,-0.165,-0.310
3873,-0.180,-0.280
3874,-0.145,-0.275
3875,-0.180,-0.270
3876,-0.160,-0.340
3877,-0.155,-0.335
3878,-0.145,-0.285
3879,-0.170,-0.290
3880,-0.150,-0.280
3881,-0.170,-0.295
3882,-0.135,-0.315
3883,-0.125,-0.325
3884,-0.165,-0.320
3885,-0.145,-0.305
3886,-0.150,-0.295
3887,-0.145,-0.305
3888,-0.135,-0.330
3889,-0.150,-0.330
3890,-0.135,-0.325
3891,-0.150,-0.325
3892,-0.135,-0.310
3893,-0.150,-0.310
3894,-0.155,-0.305
3895,-0.130,-0.325
3896,-0.155,-0.325
3897,-0.135,-0.300
3898,-0.185,-0.270
3899,-0.195,-0.250
3900,-0.150,-0.170
3901,-0.130,-0.190
3902,-0.160,-0.200
3903,-0.125,-0.180
3904,-0.155,-0.180
3905,-0.165,-0.235
3906,-0.175,-0.315
3907,-0.145,-0.350
3908,-0.100,-0.370
3909,-0.105,-0.380
3910,-0.150,-0.370
3911,-0.165,-0.340
3912,-0.155,-0.345
3913,-0.155,-0.325
3914,-0.170,-0.375
3915,-0.135,-0.445
3916,-0.160,-0.105
3917,-0.165,0.730
3918,-0.315,1.220
3919,-0.675,0.595
3920,-1.055,-0.360
3921,-1.145,-0.980
3922,-0.590,-0.915
3923,0.355,-0.650
3924,0.335,-0.355
3925,-0.010,-0.265
3926,-0.150,-0.230
3927,-0.145,-0.235
3928,-0.110,-0.255
3929,-0.130,-0.225
3930,-0.120,-0.210
3931,-0.120,-0.200
3932,-0.125,-0.180
3933,-0.130,-0.205
3934,-0.105,-0.180
3935,-0.105,-0.190
3936,-0.115,-0.185
3937,-0.115,-0.150
3938,-0.145,-0.155
3939,-0.125,-0.170
3940,-0.115,-0.170
3941,-0.105,-0.170
3942,-0.125,-0.155
3943,-0.125,-0.150
3944,-0.140,-0.120
3945,-0.130,-0.165
3946,-0.140,-0.175
3947,-0.180,-0.195
3948,-0.180,-0.210
3949,-0.180,-0.205
3950,-0.180,-0.240
3951,-0.195,-0.285
3952,-0.215,-0.300
3953,-0.225,-0.365
3954,-0.240,-0.395
3955,-0.280,-0.390
3956,-0.320,-0.385
3957,-0.325,-0.385
3958,-0.345,-0.365
3959,-0.350,-0.365
3960,-0.320,-0.355
3961,-0.335,-0.305
3962,-0.325,-0.280
3963,-0.315,-0.310
3964,-0.265,-0.305
3965,-0.260,-0.300
3966,-0.245,-0.320
3967,-0.220,-0.310
3968,-0.205,-0.305
3969,-0.200,-0.290
3970,-0.215,-0.325
3971,-0.190,-0.305
3972,-0.190,-0.325
3973,-0.165,-0.315
3974,-0.190,-0.295
3975,-0.210,-0.310
3976,-0.185,-0.295
3977,-0.180,-0.320
3978,-0.185,-0.315
3979,-0.185,-0.310
3980,-0.175,-0.335
3981,-0.170,-0.330
3982,-0.175,-0.305
3983,-0.170,-0.335
3984,-0.170,-0.335
3985,-0.155,-0.370
3986,-0.145,-0.370
3987,-0.150,-0.350
3988,-0.165,-0.345
3989,-0.160,-0.360
3990,-0.170,-0.360
3991,-0.140,-0.365
3992,-0.150,-0.390
3993,-0.125,-0.375
3994,-0.135,-0.360
3995,-0.150,-0.375
3996,-0.155,-0.355
3997,-0.115,-0.365
3998,-0.115,-0.375
3999,-0.135,-0.370
4000,-0.130,-0.360
4001,-0.115,-0.355
4002,-0.140,-0.370
4003,-0.105,-0.365
4004,-0.120,-0.385
4005,-0.105,-0.365
4006,-0.100,-0.380
4007,-0.090,-0.365
4008,-0.095,-0.350
4009,-0.085,-0.350
4010,-0.080,-0.360
4011,-0.100,-0.360
4012,-0.090,-0.310
4013,-0.110,-0.240
4014,-0.065,-0.215
4015,-0.070,-0.190
4016,-0.035,-0.180
4017,-0.045,-0.235
4018,-0.035,-0.190
4019,-0.050,-0.210
4020,-0.060,-0.290
4021,-0.055,-0.355
4022,-0.050,-0.370
4023,-0.030,-0.375
4024,-0.045,-0.395
4025,-0.090,-0.355
4026,-0.095,-0.350
4027,-0.080,-0.345
4028,-0.115,-0.350
4029,-0.095,-0.415
4030,-0.095,-0.210
4031,-0.085,0.725
4032,-0.120,1.600
4033,-0.390,1.265
4034,-0.660,-0.060
4035,-0.800,-1.015
4036,-0.660,-0.930
4037,0.080,-0.615
4038,0.190,-0.380
4039,-0.005,-0.330
4040,-0.110,-0.275
4041,-0.075,-0.275
4042,-0.055,-0.250
4043,-0.035,-0.245
4044,-0.025,-0.235
4045,-0.020,-0.225
4046,-0.055,-0.190
4047,-0.045,-0.200
4048,-0.040,-0.190
4049,-0.040,-0.195
4050,-0.030,-0.195
4051,-0.040,-0.190
4052,-0.055,-0.185
4053,-0.055,-0.165
4054,-0.040,-0.185
4055,-0.040,-0.165
4056,-0.015,-0.175
4057,-0.015,-0.155
4058,-0.005,-0.155
4059,-0.035,-0.140
4060,-0.065,-0.135
4061,-0.060,-0.145
4062,-0.050,-0.180
4063,-0.070,-0.180
4064,-0.100,-0.200
4065,-0.130,-0.215
4066,-0.110,-0.225
4067,-0.130,-0.270
4068,-0.165,-0.325
4069,-0.170,-0.365
4070,-0.175,-0.365
4071,-0.195,-0.370
4072,-0.215,-0.325
4073,-0.230,-0.325
4074,-0.225,-0.275
4075,-0.255,-0.295
4076,-0.260,-0.280
4077,-0.225,-0.280
4078,-0.225,-0.255
4079,-0.205,-0.235
4080,-0.200,-0.230
4081,-0.160,-0.255
4082,-0.130,-0.260
4083,-0.125,-0.270
4084,-0.130,-0.245
4085,-0.140,-0.240
4086,-0.115,-0.230
4087,-0.125,-0.260
4088,-0.090,-0.270
4089,-0.120,-0.250
4090,-0.130,-0.225
4091,-0.125,-0.200
4092,-0.125,-0.230
4093,-0.110,-0.220
4094,-0.130,-0.270
4095,-0.090,-0.260
4096,-0.085,-0.260
4097,-0.115,-0.245
4098,-0.090,-0.265
4099,-0.090,-0.255
4100,-0.090,-0.300
4101,-0.075,-0.280
4102,-0.050,-0.285
4103,-0.060,-0.295
4104,-0.070,-0.275
4105,-0.085,-0.265
4106,-0.080,-0.290
4107,-0.065,-0.320
4108,-0.070,-0.325
4109,-0.075,-0.285
4110,-0.040,-0.270
4111,-0.030,-0.265
4112,-0.060,-0.275
4113,-0.065,-0.290
4114,-0.065,-0.300
4115,-0.045,-0.325
4116,-0.075,-0.300
4117,-0.050,-0.290
4118,-0.055,-0.270
4119,-0.060,-0.260
4120,-0.070,-0.285
4121,-0.035,-0.300
4122,-0.045,-0.310
4123,-0.070,-0.275
4124,-0.080,-0.270
4125,-0.065,-0.250
4126,-0.080,-0.215
4127,-0.055,-0.185
4128,-0.025,-0.140
4129,-0.030,-0.120
4130,-0.075,-0.125
4131,-0.040,-0.115
4132,-0.030,-0.130
4133,-0.035,-0.210
4134,-0.060,-0.265
4135,-0.015,-0.280
4136,0.000,-0.290
4137,0.000,-0.300
4138,-0.020,-0.280
4139,-0.050,-0.290
4140,-0.040,-0.300
4141,-0.035,-0.285
4142,-0.040,-0.310
4143,-0.065,-0.355
4144,-0.075,0.105
4145,-0.055,0.865
4146,-0.275,1.160
4147,-0.695,0.570
4148,-1.075,-0.320
4149,-1.140,-0.855
4150,-0.455,-0.710
4151,0.460,-0.450
4152,0.450,-0.230
4153,0.140,-0.195
4154,-0.010,-0.160
4155,-0.030,-0.155
4156,-0.005,-0.060
4157,0.005,-0.110
4158,0.000,-0.070
4159,0.000,-0.090
4160,0.030,-0.065
4161,0.040,-0.090
4162,0.035,-0.050
4163,0.015,-0.040
4164,0.030,-0.025
4165,0.055,-0.085
4166,0.030,-0.045
4167,0.070,-0.050
4168,0.065,-0.020
4169,0.055,0.000
4170,0.050,-0.015
4171,0.060,0.000
4172,0.040,-0.020
4173,0.040,-0.030
4174,0.045,0.000
4175,0.010,0.015
4176,0.000,-0.020
4177,-0.005,-0.025
4178,-0.005,-0.015
4179,-0.035,-0.050
4180,-0.060,-0.135
4181,-0.080,-0.110
4182,-0.110,-0.195
4183,-0.175,-0.170
4184,-0.205,-0.155
4185,-0.235,-0.225
4186,-0.210,-0.200
4187,-0.270,-0.175
4188,-0.280,-0.175
4189,-0.255,-0.150
4190,-0.280,-0.150
4191,-0.280,-0.160
4192,-0.270,-0.220
4193,-0.205,-0.245
4194,-0.210,-0.200
4195,-0.150,-0.190
4196,-0.115,-0.200
4197,-0.120,-0.240
4198,-0.100,-0.275
4199,-0.105,-0.245
4200,-0.110,-0.225
4201,-0.105,-0.265
4202,-0.095,-0.250
4203,-0.115,-0.275
4204,-0.115,-0.290
4205,-0.090,-0.325
4206,-0.075,-0.295
4207,-0.105,-0.300
4208,-0.115,-0.290
4209,-0.095,-0.300
4210,-0.110,-0.325
4211,-0.105,-0.330
4212,-0.125,-0.335
4213,-0.105,-0.340
4214,-0.115,-0.335
4215,-0.110,-0.325
4216,-0.120,-0.335
4217,-0.080,-0.345
4218,-0.105,-0.355
4219,-0.130,-0.365
4220,-0.110,-0.370
4221,-0.130,-0.340
4222,-0.105,-0.355
4223,-0.080,-0.340
4224,-0.095,-0.370
4225,-0.075,-0.340
4226,-0.075,-0.355
4227,-0.085,-0.360
4228,-0.095,-0.345
4229,-0.100,-0.330
4230,-0.080,-0.360
4231,-0.090,-0.360
4232,-0.070,-0.365
4233,-0.095,-0.375
4234,-0.115,-0.345
4235,-0.100,-0.325
4236,-0.115,-0.325
4237,-0.100,-0.320
4238,-0.090,-0.290
4239,-0.075,-0.265
4240,-0.030,-0.225
4241,-0.060,-0.230
4242,-0.065,-0.210
4243,-0.040,-0.210
4244,-0.050,-0.250
4245,-0.065,-0.340
4246,-0.065,-0.405
4247,-0.065,-0.400
4248,-0.035,-0.400
4249,-0.070,-0.405
4250,-0.090,-0.370
4251,-0.085,-0.385
4252,-0.085,-0.375
4253,-0.095,-0.355
4254,-0.095,-0.445
4255,-0.095,-0.265
4256,-0.070,0.525
4257,-0.120,1.340
4258,-0.430,1.205
4259,-0.730,0.125
4260,-0.910,-0.865
4261,-0.740,-1.005
4262,0.060,-0.755
4263,0.350,-0.450
4264,0.095,-0.360
4265,-0.070,-0.295
4266,-0.055,-0.280
4267,-0.015,-0.255
4268,-0.025,-0.260
4269,-0.020,-0.250
4270,0.000,-0.255
4271,-0.015,-0.235
4272,0.000,-0.255
4273,-0.035,-0.205
4274,-0.005,-0.205
4275,0.000,-0.220
4276,0.020,-0.230
4277,0.025,-0.220
4278,0.035,-0.205
4279,0.020,-0.195
4280,0.020,-0.165
4281,-0.005,-0.165
4282,0.010,-0.135
4283,0.015,-0.180
4284,0.035,-0.170
4285,0.005,-0.175
4286,0.000,-0.180
4287,-0.020,-0.180
4288,-0.030,-0.185
4289,-0.050,-0.205
4290,-0.045,-0.235
4291,-0.035,-0.275
4292,-0.080,-0.285
4293,-0.090,-0.325
4294,-0.095,-0.340
4295,-0.105,-0.375
4296,-0.130,-0.395
4297,-0.130,-0.355
4298,-0.125,-0.360
4299,-0.160,-0.310
4300,-0.170,-0.245
4301,-0.160,-0.245
4302,-0.140,-0.250
4303,-0.125,-0.265
4304,-0.100,-0.265
4305,-0.095,-0.260
4306,-0.060,-0.265
4307,-0.040,-0.230
4308,-0.020,-0.230
4309,-0.005,-0.235
4310,0.015,-0.245
4311,-0.030,-0.245
4312,-0.020,-0.230
4313,-0.035,-0.200
4314,-0.045,-0.220
4315,-0.025,-0.220
4316,0.000,-0.230
4317,-0.005,-0.250
4318,-0.015,-0.250
4319,-0.010,-0.230
4320,-0.010,-0.245
4321,-0.030,-0.240
4322,-0.030,-0.260
4323,-0.015,-0.280
4324,-0.020,-0.295
4325,-0.035,-0.280
4326,-0.030,-0.275
4327,-0.035,-0.260
4328,-0.045,-0.270
4329,-0.015,-0.320
4330,-0.010,-0.325
4331,-0.010,-0.320
4332,0.000,-0.285
4333,-0.035,-0.300
4334,-0.025,-0.300
4335,0.000,-0.315
4336,0.000,-0.340
4337,0.000,-0.340
4338,-0.020,-0.315
4339,-0.010,-0.300
4340,-0.010,-0.335
4341,-0.020,-0.315
4342,-0.005,-0.335
4343,-0.005,-0.350
4344,-0.010,-0.340
4345,-0.010,-0.330
4346,0.000,-0.315
4347,-0.020,-0.320
4348,-0.015,-0.320
4349,0.000,-0.360
4350,0.000,-0.355
4351,0.000,-0.285
4352,-0.010,-0.245
4353,-0.025,-0.190
4354,0.030,-0.195
4355,0.015,-0.190
4356,0.025,-0.175
4357,0.000,-0.175
4358,0.020,-0.175
4359,-0.005,-0.270
4360,0.005,-0.325
4361,0.010,-0.370
4362,0.015,-0.375
4363,0.040,-0.380
4364,-0.010,-0.350
4365,-0.015,-0.335
4366,-0.010,-0.320
4367,-0.015,-0.345
4368,-0.025,-0.405
4369,0.000,-0.315
4370,-0.005,0.535
4371,-0.010,1.475
4372,-0.285,1.410
4373,-0.565,0.195
4374,-0.785,-0.950
4375,-0.695,-1.030
4376,0.035,-0.700
4377,0.275,-0.420
4378,0.095,-0.320
4379,-0.020,-0.285
4380,0.000,-0.285
4381,0.025,-0.285
4382,0.055,-0.280
4383,0.040,-0.250
4384,0.035,-0.240
4385,0.035,-0.205
4386,0.040,-0.215
4387,0.060,-0.210
4388,0.060,-0.215
4389,0.045,-0.230
4390,0.070,-0.205
4391,0.040,-0.170
4392,0.065,-0.155
4393,0.095,-0.160
4394,0.085,-0.165
4395,0.080,-0.150
4396,0.080,-0.145
4397,0.090,-0.120
4398,0.070,-0.105
4399,0.065,-0.125
4400,0.090,-0.120
4401,0.090,-0.160
4402,0.050,-0.145
4403,0.045,-0.160
4404,0.025,-0.155
4405,0.010,-0.190
4406,0.010,-0.235
4407,0.000,-0.295
4408,-0.030,-0.305
4409,-0.065,-0.340
4410,-0.080,-0.325
4411,-0.070,-0.290
4412,-0.085,-0.275
4413,-0.130,-0.250
4414,-0.095,-0.225
4415,-0.090,-0.220
4416,-0.120,-0.225
4417,-0.125,-0.210
4418,-0.110,-0.220
4419,-0.020,-0.230
4420,-0.045,-0.230
4421,-0.015,-0.195
4422,0.015,-0.205
4423,0.040,-0.185
4424,0.005,-0.190
4425,0.005,-0.160
4426,0.035,-0.170
4427,0.040,-0.200
4428,0.025,-0.230
4429,0.010,-0.185
4430,-0.005,-0.170
4431,0.005,-0.190
4432,0.010,-0.180
4433,0.010,-0.215
4434,0.035,-0.225
4435,0.015,-0.225
4436,0.025,-0.200
4437,0.000,-0.190
4438,0.015,-0.205
4439,0.010,-0.240
4440,0.035,-0.255
4441,0.040,-0.260
4442,0.050,-0.225
4443,0.045,-0.225
4444,0.025,-0.210
4445,0.010,-0.240
4446,0.040,-0.265
4447,0.025,-0.270
4448,0.015,-0.255
4449,0.020,-0.230
4450,0.000,-0.230
4451,0.010,-0.260
4452,0.000,-0.275
4453,0.025,-0.280
4454,0.015,-0.305
4455,0.000,-0.275
4456,0.015,-0.270
4457,-0.020,-0.275
4458,0.010,-0.270
4459,0.000,-0.270
4460,0.005,-0.270
4461,0.000,-0.265
4462,-0.035,-0.255
4463,-0.005,-0.265
4464,-0.025,-0.260
4465,0.000,-0.250
4466,-0.035,-0.240
4467,-0.020,-0.165
4468,0.015,-0.105
4469,0.010,-0.115
4470,0.000,-0.155
4471,-0.010,-0.115
4472,0.025,-0.170
4473,0.015,-0.255
4474,-0.005,-0.305
4475,0.005,-0.335
4476,0.005,-0.285
4477,0.000,-0.260
4478,0.000,-0.310
4479,0.000,-0.300
4480,-0.030,-0.295
4481,-0.050,-0.295
4482,-0.025,-0.340
4483,0.000,-0.245
4484,0.000,0.445
4485,-0.100,1.105
4486,-0.460,0.850
4487,-0.965,0.000
4488,-1.125,-0.750
4489,-0.690,-0.915
4490,0.395,-0.640
4491,0.640,-0.370
4492,0.290,-0.260
4493,0.070,-0.195
4494,0.000,-0.145
4495,0.000,-0.125
4496,-0.005,-0.125
4497,0.015,-0.110
4498,0.030,-0.085
4499,0.090,-0.090
4500,0.070,-0.100
4501,0.080,-0.070
4502,0.100,-0.045
4503,0.070,-0.050
4504,0.060,-0.085
4505,0.090,-0.055
4506,0.075,-0.065
4507,0.080,-0.030
4508,0.105,-0.025
4509,0.090,0.000
4510,0.095,-0.035
4511,0.085,-0.065
4512,0.080,-0.060
4513,0.065,-0.020
4514,0.030,-0.005
4515,0.040,0.015
4516,0.045,-0.010
4517,0.020,-0.045
4518,0.020,-0.070
4519,-0.055,-0.095
4520,-0.040,-0.130
4521,-0.080,-0.145
4522,-0.105,-0.160
4523,-0.145,-0.205
4524,-0.175,-0.220
4525,-0.190,-0.225
4526,-0.195,-0.180
4527,-0.230,-0.130
4528,-0.260,-0.130
4529,-0.230,-0.150
4530,-0.205,-0.150
4531,-0.165,-0.175
4532,-0.140,-0.180
4533,-0.120,-0.155
4534,-0.090,-0.175
4535,-0.065,-0.165
4536,-0.035,-0.175
4537,-0.030,-0.195
4538,-0.040,-0.195
4539,-0.035,-0.195
4540,-0.010,-0.180
4541,-0.030,-0.195
4542,-0.040,-0.185
4543,-0.010,-0.200
4544,-0.030,-0.235
4545,0.000,-0.235
4546,-0.025,-0.205
4547,-0.025,-0.200
4548,-0.020,-0.195
4549,0.000,-0.225
4550,-0.010,-0.250
4551,0.000,-0.250
4552,-0.005,-0.235
4553,0.000,-0.230
4554,0.000,-0.215
4555,0.030,-0.245
4556,-0.005,-0.240
4557,0.015,-0.255
4558,0.010,-0.285
4559,0.005,-0.235
4560,-0.005,-0.240
4561,0.015,-0.245
4562,0.000,-0.280
4563,0.020,-0.280
4564,0.000,-0.270
4565,-0.005,-0.270
4566,0.000,-0.245
4567,-0.005,-0.250
4568,0.005,-0.280
4569,0.010,-0.290
4570,0.010,-0.300
4571,-0.015,-0.290
4572,0.000,-0.285
4573,-0.010,-0.250
4574,0.000,-0.275
4575,0.000,-0.300
4576,-0.005,-0.290
4577,-0.010,-0.285
4578,-0.010,-0.225
4579,0.005,-0.180
4580,0.025,-0.135
4581,0.025,-0.150
4582,0.000,-0.165
4583,0.000,-0.160
4584,0.005,-0.145
4585,-0.015,-0.180
4586,-0.005,-0.275
4587,0.025,-0.330
4588,0.015,-0.380
4589,0.000,-0.355
4590,-0.045,-0.335
4591,-0.040,-0.335
4592,-0.060,-0.305
4593,-0.030,-0.320
4594,-0.060,-0.370
4595,-0.035,-0.370
4596,-0.040,0.260
4597,-0.035,1.290
4598,-0.300,1.650
4599,-0.525,0.730
4600,-0.750,-0.590
4601,-0.760,-1.060
4602,-0.175,-0.815
4603,0.320,-0.475
4604,0.115,-0.345
4605,-0.055,-0.285
4606,-0.025,-0.270
4607,0.010,-0.265
4608,0.020,-0.280
4609,0.000,-0.260
4610,0.015,-0.235
4611,0.005,-0.215
4612,0.000,-0.200
4613,0.030,-0.200
4614,0.045,-0.205
4615,0.045,-0.195
4616,0.030,-0.185
4617,0.025,-0.175
4618,0.015,-0.170
4619,0.040,-0.160
4620,0.040,-0.170
4621,0.040,-0.160
4622,0.055,-0.145
4623,0.030,-0.110
4624,0.020,-0.105
4625,0.025,-0.115
4626,0.010,-0.120
4627,0.000,-0.170
4628,-0.005,-0.180
4629,0.005,-0.165
4630,-0.020,-0.165
4631,-0.030,-0.230
4632,-0.010,-0.235
4633,-0.050,-0.285
4634,-0.050,-0.315
4635,-0.055,-0.350
4636,-0.105,-0.325
4637,-0.110,-0.345
4638,-0.110,-0.295
4639,-0.115,-0.290
4640,-0.110,-0.260
4641,-0.100,-0.240
4642,-0.105,-0.215
4643,-0.075,-0.210
4644,-0.070,-0.205
4645,-0.045,-0.190
4646,0.005,-0.220
4647,-0.010,-0.230
4648,-0.010,-0.200
4649,0.010,-0.185
4650,0.020,-0.175
4651,0.010,-0.130
4652,0.055,-0.180
4653,0.025,-0.180
4654,0.015,-0.185
4655,0.035,-0.170
4656,0.020,-0.155
4657,0.015,-0.140
4658,0.025,-0.180
4659,0.035,-0.165
4660,0.025,-0.155
4661,0.010,-0.180
4662,0.010,-0.175
4663,0.020,-0.165
4664,0.025,-0.170
4665,0.030,-0.195
4666,0.035,-0.215
4667,0.030,-0.195
4668,0.050,-0.205
4669,0.025,-0.195
4670,0.035,-0.175
4671,0.055,-0.195
4672,0.050,-0.220
4673,0.035,-0.235
4674,0.045,-0.205
4675,0.040,-0.195
4676,0.015,-0.175
4677,0.050,-0.195
4678,0.065,-0.210
4679,0.075,-0.210
4680,0.055,-0.200
4681,0.060,-0.190
4682,0.065,-0.180
4683,0.045,-0.195
4684,0.050,-0.190
4685,0.105,-0.190
4686,0.050,-0.170
4687,0.040,-0.170
4688,0.025,-0.185
4689,0.010,-0.165
4690,0.040,-0.175
4691,0.045,-0.150
4692,0.070,-0.100
4693,0.065,-0.055
4694,0.105,-0.025
4695,0.035,-0.020
4696,0.075,-0.015
4697,0.080,-0.025
4698,0.090,-0.055
4699,0.070,-0.145
4700,0.060,-0.210
4701,0.055,-0.200
4702,0.070,-0.195
4703,0.070,-0.210
4704,0.050,-0.215
4705,0.050,-0.200
4706,0.040,-0.200
4707,0.020,-0.195
4708,0.025,-0.265
4709,0.020,-0.080
4710,0.075,0.810
4711,0.015,1.625
4712,-0.300,1.500
4713,-0.585,0.270
4714,-0.790,-0.805
4715,-0.675,-0.775
4716,0.115,-0.430
4717,0.335,-0.195
4718,0.085,-0.190
4719,0.000,-0.135
4720,0.005,-0.100
4721,0.035,-0.080
4722,0.030,-0.075
4723,0.060,-0.070
4724,0.065,-0.085
4725,0.045,-0.050
4726,0.065,-0.020
4727,0.060,-0.010
4728,0.035,-0.010
4729,0.070,-0.015
4730,0.080,-0.020
4731,0.055,-0.010
4732,0.075,-0.010
4733,0.080,0.035
4734,0.075,0.040
4735,0.095,0.045
4736,0.120,0.070
4737,0.085,0.065
4738,0.105,0.070
4739,0.070,0.105
4740,0.090,0.085
4741,0.055,0.100
4742,0.055,0.090
4743,0.045,0.030
4744,0.045,0.005
4745,0.000,-0.025
4746,-0.015,-0.020
4747,-0.020,-0.045
4748,-0.050,-0.070
4749,-0.090,-0.120
4750,-0.105,-0.140
4751,-0.105,-0.110
4752,-0.130,-0.035
4753,-0.160,-0.010
4754,-0.175,0.000
4755,-0.170,0.000
4756,-0.155,-0.005
4757,-0.155,-0.025
4758,-0.135,-0.010
4759,-0.115,0.000
4760,-0.080,0.000
4761,-0.050,0.015
4762,-0.015,-0.010
4763,-0.025,0.000
4764,-0.005,0.015
4765,-0.020,0.025
4766,-0.025,0.030
4767,-0.020,0.030
4768,0.000,0.015
4769,0.000,0.040
4770,0.015,0.000
4771,-0.010,0.000
4772,0.005,0.035
4773,0.020,0.070
4774,0.020,0.035
4775,0.000,0.015
4776,0.015,0.025
4777,0.015,0.025
4778,-0.005,0.030
4779,0.000,0.020
4780,0.015,0.025
4781,0.020,0.025
4782,0.025,0.045
4783,0.020,0.055
4784,0.020,0.030
4785,0.010,0.055
4786,0.020,0.055
4787,0.020,0.050
4788,0.035,0.040
4789,0.045,0.040
4790,0.030,0.055
4791,0.035,0.085
4792,0.040,0.080
4793,0.025,0.045
4794,0.050,0.065
4795,0.030,0.070
4796,0.045,0.055
4797,0.020,0.070
4798,0.000,0.095
4799,0.030,0.085
4800,0.030,0.095
4801,0.030,0.075
4802,0.020,0.085
4803,0.010,0.050
4804,0.000,0.120
4805,0.000,0.185
4806,0.035,0.235
4807,0.030,0.245
4808,0.030,0.245
4809,0.055,0.240
4810,0.020,0.245
4811,0.040,0.235
4812,-0.005,0.150
4813,0.040,0.130
4814,0.065,0.085
4815,0.060,0.095
4816,0.020,0.090
4817,0.015,0.035
4818,0.000,0.080
4819,0.000,0.145
4820,0.015,0.165
4821,0.015,0.045
4822,0.015,0.065
4823,0.015,0.765
4824,-0.035,1.525
4825,-0.390,1.445
4826,-0.835,0.610
4827,-1.105,-0.195
4828,-0.820,-0.550
4829,0.205,-0.315
4830,0.685,-0.020
4831,0.400,0.165
4832,0.130,0.230
4833,0.000,0.265
4834,0.045,0.285
4835,0.040,0.265
4836,0.045,0.300
4837,0.045,0.335
4838,0.050,0.370
4839,0.080,0.360
4840,0.075,0.375
4841,0.075,0.360
4842,0.070,0.365
4843,0.020,0.395
4844,0.045,0.385
4845,0.030,0.420
4846,0.045,0.435
4847,0.050,0.430
4848,0.055,0.435
4849,0.060,0.460
4850,0.040,0.495
4851,0.025,0.495
4852,0.025,0.460
4853,0.010,0.450
4854,0.000,0.475
4855,-0.005,0.495
4856,-0.035,0.480
4857,-0.055,0.460
4858,-0.065,0.425
4859,-0.050,0.405
4860,-0.100,0.380
4861,-0.140,0.345
4862,-0.160,0.345
4863,-0.195,0.315
4864,-0.235,0.340
4865,-0.230,0.340
4866,-0.230,0.340
4867,-0.265,0.395
4868,-0.285,0.400
4869,-0.270,0.395
4870,-0.230,0.390
4871,-0.170,0.385
4872,-0.170,0.370
4873,-0.140,0.365
4874,-0.105,0.370
4875,-0.105,0.405
4876,-0.070,0.395
4877,-0.065,0.415
4878,-0.055,0.405
4879,-0.045,0.390
4880,-0.045,0.375
4881,-0.070,0.390
4882,-0.050,0.400
4883,-0.035,0.405
4884,-0.035,0.390
4885,-0.030,0.350
4886,-0.030,0.390
4887,-0.045,0.400
4888,-0.030,0.430
4889,-0.050,0.400
4890,-0.035,0.410
4891,-0.025,0.385
4892,-0.010,0.380
4893,-0.040,0.380
4894,-0.030,0.415
4895,-0.045,0.425
4896,-0.020,0.425
4897,0.000,0.385
4898,0.000,0.390
4899,-0.010,0.400
4900,0.000,0.420
4901,-0.015,0.435
4902,-0.005,0.435
4903,0.000,0.420
4904,0.010,0.425
4905,0.025,0.430
4906,-0.010,0.425
4907,-0.015,0.460
4908,0.000,0.470
4909,0.000,0.470
4910,0.010,0.470
4911,-0.015,0.465
4912,0.000,0.470
4913,-0.005,0.505
4914,0.010,0.520
4915,-0.015,0.510
4916,0.030,0.530
4917,0.005,0.510
4918,0.035,0.540
4919,0.000,0.565
4920,-0.005,0.610
4921,0.000,0.640
4922,0.030,0.685
4923,0.055,0.670
4924,0.015,0.675
4925,0.015,0.700
4926,0.035,0.745
4927,0.000,0.665
4928,0.010,0.585
4929,0.020,0.520
4930,0.040,0.515
4931,0.005,0.540
4932,0.030,0.560
4933,-0.035,0.575
4934,-0.015,0.600
4935,-0.015,0.595
4936,-0.015,0.555
4937,0.000,0.540
4938,-0.010,1.120
4939,0.000,2.130
4940,-0.210,2.595
4941,-0.500,1.850
4942,-0.750,0.475
4943,-0.770,-0.105
4944,-0.290,0.135
4945,0.305,0.445
4946,0.140,0.640
4947,-0.015,0.675
4948,-0.035,0.700
4949,-0.010,0.700
4950,0.010,0.715
4951,0.015,0.760
4952,0.005,0.745
4953,-0.010,0.790
4954,0.005,0.805
4955,0.005,0.810
4956,0.025,0.805
4957,0.010,0.815
4958,0.010,0.835
4959,0.010,0.850
4960,0.020,0.865
4961,0.010,0.845
4962,0.010,0.855
4963,0.005,0.895
4964,0.000,0.915
4965,0.000,0.915
4966,-0.015,0.935
4967,-0.005,0.920
4968,-0.010,0.895
4969,-0.020,0.910
4970,-0.015,0.905
4971,-0.055,0.895
4972,-0.090,0.870
4973,-0.095,0.860
4974,-0.115,0.835
4975,-0.130,0.770
4976,-0.115,0.760
4977,-0.135,0.700
4978,-0.175,0.715
4979,-0.205,0.715
4980,-0.200,0.745
4981,-0.205,0.745
4982,-0.230,0.790
4983,-0.225,0.815
4984,-0.245,0.835
4985,-0.235,0.845
4986,-0.210,0.840
4987,-0.200,0.845
4988,-0.155,0.825
4989,-0.140,0.825
4990,-0.165,0.860
4991,-0.130,0.870
4992,-0.125,0.900
4993,-0.115,0.880
4994,-0.125,0.855
4995,-0.125,0.870
4996,-0.110,0.875
4997,-0.115,0.910
4998,-0.115,0.885
4999,-0.135,0.875
5000,-0.130,0.865
5001,-0.105,0.880
5002,-0.110,0.865
5003,-0.125,0.900
5004,-0.110,0.870
5005,-0.135,0.860
5006,-0.095,0.845
5007,-0.115,0.840
5008,-0.105,0.845
5009,-0.100,0.845
5010,-0.095,0.865
5011,-0.145,0.860
5012,-0.110,0.870
5013,-0.150,0.845
5014,-0.120,0.840
5015,-0.115,0.800
5016,-0.115,0.855
5017,-0.125,0.840
5018,-0.115,0.830
5019,-0.100,0.835
5020,-0.100,0.845
5021,-0.085,0.810
5022,-0.090,0.840
5023,-0.110,0.860
5024,-0.105,0.875
5025,-0.115,0.865
5026,-0.085,0.855
5027,-0.070,0.845
5028,-0.095,0.845
5029,-0.075,0.880
5030,-0.100,0.885
5031,-0.110,0.870
5032,-0.100,0.895
5033,-0.060,0.860
5034,-0.135,0.895
5035,-0.120,0.960
5036,-0.080,1.015
5037,-0.065,1.045
5038,-0.045,1.030
5039,-0.060,1.035
5040,-0.080,1.050
5041,-0.050,1.040
5042,-0.065,0.950
5043,-0.070,0.895
5044,-0.055,0.875
5045,-0.065,0.870
5046,-0.055,0.850
5047,-0.080,0.865
5048,-0.130,0.880
5049,-0.125,0.900
5050,-0.130,0.900
5051,-0.120,0.800
5052,-0.095,0.905
5053,-0.100,1.760
5054,-0.165,2.665
5055,-0.450,2.605
5056,-0.720,1.455
5057,-0.940,0.300
5058,-0.835,0.240
5059,-0.030,0.540
5060,0.230,0.830
5061,0.010,0.880
5062,-0.115,0.935
5063,-0.100,0.950
5064,-0.085,0.990
5065,-0.075,0.975
5066,-0.070,1.010
5067,-0.075,1.025
5068,-0.070,1.050
5069,-0.050,1.065
5070,-0.065,1.050
5071,-0.025,1.085
5072,-0.020,1.075
5073,-0.030,1.085
5074,-0.055,1.125
5075,-0.020,1.120
5076,-0.025,1.110
5077,-0.015,1.135
5078,-0.020,1.125
5079,-0.050,1.145
5080,-0.060,1.160
5081,-0.090,1.195
5082,-0.065,1.175
5083,-0.045,1.160
5084,-0.060,1.155
5085,-0.085,1.100
5086,-0.100,1.095
5087,-0.120,1.070
5088,-0.130,1.055
5089,-0.170,1.030
5090,-0.185,0.995
5091,-0.220,0.935
5092,-0.235,0.925
5093,-0.285,0.910
5094,-0.300,0.935
5095,-0.335,0.945
5096,-0.360,0.960
5097,-0.350,0.950
5098,-0.355,0.945
5099,-0.385,0.965
5100,-0.355,0.955
5101,-0.360,0.945
5102,-0.300,0.965
5103,-0.285,0.940
5104,-0.255,0.930
5105,-0.250,0.915
5106,-0.240,0.915
5107,-0.225,0.910
5108,-0.215,0.895
5109,-0.215,0.905
5110,-0.170,0.915
5111,-0.190,0.875
5112,-0.210,0.865
5113,-0.235,0.900
5114,-0.195,0.895
5115,-0.190,0.870
5116,-0.200,0.870
5117,-0.190,0.855
5118,-0.205,0.830
5119,-0.215,0.850
5120,-0.195,0.845
5121,-0.215,0.880
5122,-0.215,0.855
5123,-0.185,0.820
5124,-0.195,0.820
5125,-0.195,0.820
5126,-0.205,0.825
5127,-0.200,0.855
5128,-0.220,0.815
5129,-0.220,0.780
5130,-0.170,0.780
5131,-0.165,0.760
5132,-0.185,0.780
5133,-0.205,0.840
5134,-0.190,0.835
5135,-0.215,0.795
5136,-0.175,0.775
5137,-0.195,0.775
5138,-0.215,0.775
5139,-0.210,0.765
5140,-0.195,0.805
5141,-0.210,0.800
5142,-0.190,0.765
5143,-0.185,0.770
5144,-0.190,0.785
5145,-0.195,0.760
5146,-0.220,0.810
5147,-0.200,0.850
5148,-0.165,0.875
5149,-0.150,0.890
5150,-0.145,0.885
5151,-0.175,0.865
5152,-0.180,0.900
5153,-0.180,0.890
5154,-0.195,0.815
5155,-0.210,0.745
5156,-0.195,0.695
5157,-0.165,0.655
5158,-0.175,0.670
5159,-0.215,0.670
5160,-0.210,0.680
5161,-0.225,0.710
5162,-0.190,0.690
5163,-0.205,0.660
5164,-0.215,0.560
5165,-0.210,0.915
5166,-0.195,1.760
5167,-0.375,2.220
5168,-0.770,1.640
5169,-1.200,0.715
5170,-1.205,0.090
5171,-0.540,0.080
5172,0.415,0.355
5173,0.385,0.620
5174,0.050,0.705
5175,-0.105,0.725
5176,-0.135,0.745
5177,-0.130,0.795
5178,-0.130,0.820
5179,-0.125,0.810
5180,-0.125,0.785
5181,-0.105,0.780
5182,-0.105,0.780
5183,-0.070,0.790
5184,-0.080,0.825
5185,-0.075,0.825
5186,-0.095,0.800
5187,-0.080,0.810
5188,-0.075,0.805
5189,-0.035,0.825
5190,-0.080,0.815
5191,-0.080,0.830
5192,-0.125,0.860
5193,-0.100,0.790
5194,-0.105,0.800
5195,-0.090,0.785
5196,-0.110,0.825
5197,-0.160,0.885
5198,-0.160,0.785
5199,-0.190,0.765
5200,-0.210,0.690
5201,-0.200,0.600
5202,-0.220,0.615
5203,-0.255,0.580
5204,-0.280,0.350
5205,-0.360,0.435
5206,-0.345,0.500
5207,-0.350,0.475
5208,-0.370,0.390
5209,-0.365,0.465
5210,-0.390,0.570
5211,-0.370,0.495
5212,-0.355,0.535
5213,-0.340,0.560
5214,-0.300,0.530
5215,-0.295,0.435
5216,-0.270,0.505
5217,-0.240,0.530
5218,-0.210,0.535
5219,-0.200,0.465
5220,-0.195,0.425
5221,-0.185,0.415
5222,-0.190,0.545
5223,-0.155,0.585
5224,-0.235,0.640
5225,-0.225,0.505
5226,-0.220,0.270
5227,-0.220,0.515
5228,-0.180,0.415
5229,-0.190,0.420
5230,-0.265,0.520
5231,-0.200,0.465
5232,-0.230,0.195
5233,-0.225,0.250
5234,-0.200,0.185
5235,-0.190,0.345
5236,-0.205,0.140
5237,-0.215,0.140
5238,-0.200,0.205
5239,-0.195,0.165
5240,-0.215,0.210
5241,-0.215,-0.010
5242,-0.200,0.290
5243,-0.165,0.305
5244,-0.195,0.040
5245,-0.250,0.190
5246,-0.205,0.250
5247,-0.125,-0.140
5248,-0.140,-0.110
5249,-0.160,0.040
5250,-0.075,0.020
5251,-0.150,0.055
5252,-0.125,-0.040
5253,-0.125,-0.030
5254,-0.095,-0.085
5255,-0.090,0.010
5256,-0.085,-0.035
5257,-0.130,-0.185
5258,-0.130,-0.130
5259,-0.110,-0.260
5260,-0.135,-0.315
5261,-0.120,-0.285
5262,-0.135,-0.415
5263,-0.185,-0.445
5264,-0.140,-0.520
5265,-0.130,-0.540
5266,-0.085,-0.590
5267,-0.115,-0.625
5268,-0.100,-0.695
5269,-0.115,-0.740
5270,-0.155,-0.865
5271,-0.135,-1.145
5272,-0.140,-1.245
5273,-0.095,-1.190
5274,-0.055,-1.300
5275,-0.150,-1.385
5276,-0.190,-1.335
5277,-0.140,-1.485
5278,-0.145,-1.830
5279,-0.160,-1.735
5280,-0.125,-1.935
5281,-0.135,-1.575
5282,-0.140,-0.710
5283,-0.285,-0.290
5284,-0.540,-0.840
5285,-0.800,-2.235
5286,-1.015,-3.210
5287,-0.705,-3.240
5288,0.090,-2.940
5289,0.015,-3.040
5290,-0.165,-2.800
5291,-0.135,-2.785
5292,-0.145,-2.755
5293,-0.140,-3.120
5294,-0.140,-3.150
5295,-0.155,-3.395
5296,-0.110,-3.340
5297,-0.085,-3.370
5298,-0.115,-3.465
5299,-0.110,-3.545
5300,-0.115,-3.655
5301,-0.080,-3.710
5302,-0.125,-3.705
5303,-0.110,-3.655
5304,-0.105,-3.835
5305,-0.090,-4.000
5306,-0.100,-4.010
5307,-0.055,-3.975
5308,-0.085,-3.890
5309,-0.110,-4.165
5310,-0.145,-4.205
5311,-0.145,-4.160
5312,-0.105,-4.220
5313,-0.110,-4.230
5314,-0.140,-4.195
5315,-0.165,-4.260
5316,-0.185,-4.255
5317,-0.180,-4.380
5318,-0.215,-4.455
5319,-0.200,-4.580
5320,-0.200,-4.535
5321,-0.210,-4.545
5322,-0.225,-4.585
5323,-0.250,-4.640
5324,-0.280,-4.630
5325,-0.275,-4.590
5326,-0.240,-4.640
5327,-0.245,-4.635
5328,-0.250,-4.620
5329,-0.245,-4.635
5330,-0.215,-4.625
5331,-0.205,-4.715
5332,-0.180,-4.645
5333,-0.135,-4.630
5334,-0.130,-4.650
5335,-0.175,-4.685
5336,-0.145,-4.675
5337,-0.125,-4.645
5338,-0.105,-4.635
5339,-0.155,-4.700
5340,-0.120,-4.740
5341,-0.105,-4.735
5342,-0.095,-4.745
5343,-0.105,-4.755
5344,-0.115,-4.755
5345,-0.090,-4.745
5346,-0.075,-4.730
5347,-0.085,-4.750
5348,-0.100,-4.755
5349,-0.090,-4.740
5350,-0.095,-4.735
5351,-0.080,-4.750
5352,-0.085,-4.800
5353,-0.080,-4.780
5354,-0.070,-4.780
5355,-0.085,-4.770
5356,-0.100,-4.805
5357,-0.095,-4.805
5358,-0.065,-4.815
5359,-0.060,-4.800
5360,-0.035,-4.790
5361,-0.030,-4.795
5362,-0.050,-4.795
5363,-0.075,-4.820
5364,-0.065,-4.820
5365,-0.045,-4.815
5366,-0.040,-4.820
5367,-0.030,-4.805
5368,-0.010,-4.810
5369,-0.040,-4.805
5370,-0.055,-4.825
5371,-0.040,-4.830
5372,-0.025,-4.805
5373,-0.010,-4.820
5374,0.000,-4.840
5375,-0.045,-4.840
5376,-0.040,-4.825
5377,-0.035,-4.845
5378,0.000,-4.830
5379,0.035,-4.845
5380,0.035,-4.835
5381,0.015,-4.830
5382,0.005,-4.845
5383,0.015,-4.830
5384,-0.045,-4.850
5385,0.000,-4.845
5386,0.020,-4.835
5387,0.040,-4.850
5388,0.000,-4.845
5389,0.000,-4.835
5390,0.000,-4.850
5391,-0.015,-4.850
5392,0.000,-4.870
5393,0.015,-4.845
5394,0.030,-4.855
5395,0.075,-4.700
5396,-0.160,-4.460
5397,-0.515,-4.715
5398,-0.930,-4.925
5399,-1.075,-4.955
5400,-0.405,-4.880
5401,0.435,-4.890
5402,0.335,-4.865
5403,0.090,-4.825
5404,0.040,-4.810
5405,0.050,-4.805
5406,0.115,-4.810
5407,0.120,-4.815
5408,0.120,-4.800
5409,0.095,-4.830
5410,0.110,-4.810
5411,0.100,-4.785
5412,0.125,-4.810
5413,0.100,-4.820
5414,0.130,-4.820
5415,0.165,-4.790
5416,0.125,-4.790
5417,0.125,-4.770
5418,0.110,-4.770
5419,0.140,-4.750
5420,0.125,-4.785
5421,0.095,-4.730
5422,0.120,-4.740
5423,0.140,-4.750
5424,0.105,-4.725
5425,0.075,-4.720
5426,0.100,-4.705
5427,0.105,-4.715
5428,0.070,-4.730
5429,0.040,-4.730
5430,0.025,-4.725
5431,-0.010,-4.735
5432,-0.040,-4.735
5433,-0.035,-4.740
5434,-0.085,-4.725
5435,-0.095,-4.730
5436,-0.160,-4.755
5437,-0.190,-4.745
5438,-0.215,-4.760
5439,-0.250,-4.775
5440,-0.280,-4.750
5441,-0.230,-4.740
5442,-0.205,-4.745
5443,-0.195,-4.760
5444,-0.155,-4.730
5445,-0.110,-4.740
5446,-0.080,-4.740
5447,-0.055,-4.720
5448,-0.055,-4.710
5449,-0.060,-4.705
5450,-0.030,-4.705
5451,-0.040,-4.685
5452,-0.040,-4.700
5453,-0.035,-4.695
5454,0.000,-4.685
5455,-0.005,-4.680
5456,-0.030,-4.680
5457,-0.035,-4.690
5458,-0.025,-4.670
5459,-0.040,-4.650
5460,-0.020,-4.655
5461,-0.040,-4.645
5462,-0.015,-4.645
5463,-0.030,-4.640
5464,-0.035,-4.625
5465,-0.045,-4.625
5466,-0.080,-4.645
5467,-0.050,-4.610
5468,-0.030,-4.615
5469,-0.075,-4.600
5470,-0.080,-4.620
5471,-0.070,-4.590
5472,-0.090,-4.595
5473,-0.090,-4.590
5474,-0.055,-4.580
5475,-0.040,-4.590
5476,-0.070,-4.590
5477,-0.100,-4.585
5478,-0.080,-4.585
5479,-0.100,-4.575
5480,-0.105,-4.550
5481,-0.060,-4.550
5482,-0.110,-4.565
5483,-0.115,-4.560
5484,-0.135,-4.580
5485,-0.140,-4.580
5486,-0.125,-4.535
5487,-0.120,-4.570
5488,-0.100,-4.530
5489,-0.080,-4.555
5490,-0.135,-4.540
5491,-0.160,-4.525
5492,-0.165,-4.530
5493,-0.160,-4.535
5494,-0.175,-4.540
5495,-0.135,-4.515
5496,-0.115,-4.550
5497,-0.150,-4.525
5498,-0.160,-4.510
5499,-0.180,-4.540
5500,-0.180,-4.540
5501,-0.195,-4.535
5502,-0.170,-4.525
5503,-0.190,-4.525
5504,-0.205,-4.525
5505,-0.190,-4.385
5506,-0.250,-3.920
5507,-0.695,-4.100
5508,-1.255,-4.480
5509,-1.495,-4.630
5510,-1.020,-4.585
5511,0.205,-4.480
5512,0.435,-4.470
5513,0.120,-4.395
5514,-0.060,-4.405
5515,-0.125,-4.390
5516,-0.105,-4.395
5517,-0.110,-4.390
5518,-0.115,-4.390
5519,-0.080,-4.330
5520,-0.095,-4.360
5521,-0.080,-4.340
5522,-0.065,-4.335
5523,-0.060,-4.310
5524,-0.045,-4.320
5525,-0.110,-4.320
5526,-0.070,-4.320
5527,-0.050,-4.285
5528,-0.055,-4.300
5529,-0.085,-4.300
5530,-0.075,-4.295
5531,-0.060,-4.265
5532,-0.080,-4.265
5533,-0.065,-4.245
5534,-0.100,-4.250
5535,-0.075,-4.240
5536,-0.065,-4.240
5537,-0.095,-4.225
5538,-0.120,-4.220
5539,-0.125,-4.215
5540,-0.150,-4.205
5541,-0.145,-4.200
5542,-0.135,-4.250
5543,-0.185,-4.225
5544,-0.170,-4.215
5545,-0.210,-4.205
5546,-0.225,-4.220
5547,-0.225,-4.175
5548,-0.245,-4.130
5549,-0.240,-4.140
5550,-0.230,-4.105
5551,-0.200,-4.060
5552,-0.165,-4.035
5553,-0.120,-3.990
5554,-0.120,-3.965
5555,-0.055,-3.960
5556,-0.055,-3.910
5557,-0.015,-3.895
5558,-0.050,-3.845
5559,-0.035,-3.785
5560,-0.035,-3.720
5561,-0.045,-3.755
5562,-0.065,-3.810
5563,-0.070,-3.745
5564,-0.035,-3.735
5565,-0.065,-3.685
5566,-0.035,-3.625
5567,-0.055,-3.585
5568,-0.055,-3.590
5569,0.000,-3.580
5570,-0.015,-3.530
5571,-0.045,-3.505
5572,-0.040,-3.500
5573,-0.030,-3.420
5574,0.005,-3.360
5575,-0.010,-3.320
5576,-0.010,-3.400
5577,0.020,-3.400
5578,-0.010,-3.355
5579,0.025,-3.300
5580,0.045,-3.240
5581,0.010,-3.215
5582,0.030,-3.195
5583,0.035,-3.170
5584,0.040,-3.160
5585,0.040,-3.100
5586,0.070,-3.070
5587,0.035,-3.005
5588,0.080,-2.880
5589,0.070,-2.970
5590,0.070,-2.965
5591,0.045,-2.805
5592,0.060,-2.895
5593,0.065,-2.910
5594,0.060,-2.790
5595,0.105,-2.810
5596,0.100,-2.755
5597,0.060,-2.710
5598,0.065,-2.670
5599,0.050,-2.590
5600,0.050,-2.515
5601,0.040,-2.445
5602,0.100,-2.370
5603,0.100,-2.365
5604,0.045,-2.295
5605,0.030,-2.265
5606,0.050,-2.170
5607,0.050,-2.185
5608,0.030,-2.285
5609,0.045,-2.295
5610,0.050,-2.285
5611,0.025,-2.240
5612,0.005,-2.180
5613,0.000,-2.140
5614,0.000,-2.125
5615,0.010,-2.090
5616,0.020,-2.165
5617,0.000,-2.095
5618,-0.005,-1.270
5619,-0.005,-0.200
5620,-0.240,-0.015
5621,-0.535,-1.075
5622,-0.780,-2.425
5623,-0.830,-2.635
5624,-0.115,-2.175
5625,0.285,-1.780
5626,0.105,-1.580
5627,-0.045,-1.625
5628,-0.015,-1.635
5629,0.000,-1.610
5630,0.035,-1.525
5631,0.010,-1.465
5632,0.020,-1.410
5633,0.015,-1.345
5634,0.015,-1.300
5635,0.035,-1.320
5636,0.045,-1.290
5637,0.020,-1.235
5638,0.025,-1.190
5639,0.040,-1.170
5640,0.020,-1.125
5641,0.050,-1.110
5642,0.040,-1.065
5643,0.050,-1.040
5644,0.050,-1.000
5645,0.050,-0.980
5646,0.030,-0.945
5647,0.020,-0.920
5648,0.045,-0.925
5649,0.035,-0.955
5650,0.010,-0.910
5651,0.035,-0.885
5652,0.030,-0.865
5653,0.000,-0.855
5654,0.000,-0.895
5655,0.000,-0.930
5656,-0.025,-0.960
5657,-0.020,-0.945
5658,-0.060,-0.940
5659,-0.085,-0.860
5660,-0.085,-0.835
5661,-0.125,-0.795
5662,-0.110,-0.780
5663,-0.095,-0.740
5664,-0.100,-0.710
5665,-0.095,-0.675
5666,-0.075,-0.630
5667,-0.050,-0.620
5668,-0.005,-0.580
5669,0.010,-0.560
5670,0.025,-0.545
5671,0.005,-0.525
5672,0.025,-0.475
5673,0.045,-0.435
5674,0.075,-0.410
5675,0.055,-0.385
5676,0.055,-0.365
5677,0.065,-0.315
5678,0.045,-0.280
5679,0.005,-0.275
5680,0.045,-0.235
5681,0.055,-0.240
5682,0.055,-0.230
5683,0.060,-0.165
5684,0.025,-0.140
5685,0.045,-0.110
5686,0.050,-0.070
5687,0.050,-0.100
5688,0.030,-0.095
5689,0.055,-0.085
5690,0.060,-0.040
5691,0.095,-0.020
5692,0.035,0.005
5693,0.055,0.040
5694,0.075,0.020
5695,0.075,0.020
5696,0.060,0.050
5697,0.065,0.050
5698,0.075,0.045
5699,0.090,0.100
5700,0.100,0.135
5701,0.095,0.175
5702,0.085,0.195
5703,0.060,0.190
5704,0.055,0.170
5705,0.065,0.190
5706,0.070,0.250
5707,0.060,0.300
5708,0.055,0.260
5709,0.055,0.305
5710,0.035,0.360
5711,0.045,0.405
5712,0.050,0.465
5713,0.085,0.505
5714,0.090,0.535
5715,0.070,0.560
5716,0.080,0.580
5717,0.045,0.570
5718,0.045,0.535
5719,0.075,0.520
5720,0.075,0.495
5721,0.105,0.520
5722,0.095,0.510
5723,0.035,0.520
5724,0.005,0.585
5725,0.000,0.615
5726,0.025,0.620
5727,0.020,0.550
5728,0.020,0.690
5729,0.000,1.345
5730,-0.020,2.125
5731,-0.325,2.100
5732,-0.755,1.250
5733,-1.115,0.455
5734,-0.915,0.100
5735,0.065,0.335
5736,0.730,0.640
5737,0.510,0.855
5738,0.195,0.905
5739,0.080,0.935
5740,0.100,0.945
5741,0.135,0.970
5742,0.110,1.000
5743,0.105,1.065
5744,0.055,1.095
5745,0.095,1.120
5746,0.095,1.150
5747,0.110,1.150
5748,0.080,1.155
5749,0.060,1.170
5750,0.065,1.200
5751,0.055,1.250
5752,0.050,1.275
5753,0.065,1.280
5754,0.050,1.275
5755,0.035,1.295
5756,0.060,1.315
5757,0.045,1.330
5758,0.075,1.345
5759,0.025,1.325
5760,0.010,1.315
5761,-0.010,1.340
5762,-0.030,1.350
5763,-0.045,1.355
5764,-0.060,1.330
5765,-0.105,1.320
5766,-0.145,1.295
5767,-0.140,1.250
5768,-0.210,1.260
5769,-0.250,1.275
5770,-0.275,1.310
5771,-0.295,1.335
5772,-0.310,1.395
5773,-0.290,1.350
5774,-0.290,1.315
5775,-0.285,1.365
5776,-0.250,1.390
5777,-0.220,1.410
5778,-0.190,1.395
5779,-0.140,1.395
5780,-0.115,1.385
5781,-0.090,1.400
5782,-0.105,1.420
5783,-0.100,1.445
5784,-0.085,1.460
5785,-0.075,1.485
5786,-0.085,1.460
5787,-0.070,1.465
5788,-0.070,1.470
5789,-0.095,1.495
5790,-0.070,1.475
5791,-0.090,1.500
5792,-0.085,1.475
5793,-0.050,1.465
5794,-0.065,1.450
5795,-0.070,1.455
5796,-0.035,1.495
5797,-0.055,1.480
5798,-0.050,1.470
5799,-0.065,1.425
5800,-0.055,1.420
5801,-0.030,1.420
5802,-0.035,1.455
5803,-0.050,1.475
5804,-0.040,1.455
5805,-0.025,1.430
5806,-0.020,1.410
5807,-0.020,1.415
5808,-0.040,1.425
5809,-0.055,1.430
5810,-0.035,1.445
5811,-0.025,1.450
5812,-0.045,1.430
5813,-0.005,1.430
5814,-0.015,1.430
5815,-0.015,1.455
5816,-0.025,1.480
5817,-0.045,1.470
5818,-0.015,1.435
5819,-0.025,1.450
5820,-0.050,1.490
5821,-0.040,1.515
5822,-0.030,1.575
5823,-0.055,1.605
5824,-0.040,1.655
5825,0.030,1.670
5826,0.025,1.695
5827,0.005,1.745
5828,-0.010,1.735
5829,0.010,1.715
5830,-0.005,1.660
5831,0.000,1.600
5832,0.015,1.580
5833,0.025,1.575
5834,-0.005,1.620
5835,-0.010,1.690
5836,-0.015,1.685
5837,-0.035,1.630
5838,-0.040,1.650
5839,-0.020,1.605
5840,-0.010,1.775
5841,-0.015,2.660
5842,-0.055,3.660
5843,-0.285,3.665
5844,-0.570,2.515
5845,-0.790,1.270
5846,-0.770,1.065
5847,-0.160,1.415
5848,0.265,1.740
5849,0.095,1.815
5850,-0.080,1.905
5851,-0.055,1.930
5852,-0.035,1.955
5853,-0.040,1.985
5854,-0.045,2.050
5855,-0.045,2.080
5856,-0.065,2.085
5857,-0.050,2.100
5858,-0.040,2.120
5859,-0.040,2.160
5860,-0.050,2.175
5861,-0.050,2.210
5862,-0.065,2.255
5863,-0.070,2.230
5864,-0.015,2.225
5865,-0.025,2.245
5866,-0.045,2.240
5867,-0.070,2.310
5868,-0.060,2.310
5869,-0.075,2.295
5870,-0.075,2.335
5871,-0.075,2.325
5872,-0.070,2.315
5873,-0.105,2.325
5874,-0.115,2.315
5875,-0.125,2.310
5876,-0.150,2.280
5877,-0.150,2.225
5878,-0.190,2.160
5879,-0.190,2.120
5880,-0.205,2.120
5881,-0.195,2.125
5882,-0.220,2.115
5883,-0.235,2.165
5884,-0.220,2.130
5885,-0.220,2.140
5886,-0.270,2.185
5887,-0.235,2.215
5888,-0.245,2.230
5889,-0.210,2.185
5890,-0.160,2.185
5891,-0.140,2.175
5892,-0.135,2.220
5893,-0.140,2.220
5894,-0.125,2.235
5895,-0.105,2.245
5896,-0.090,2.255
5897,-0.105,2.280
5898,-0.105,2.275
5899,-0.080,2.265
5900,-0.100,2.290
5901,-0.095,2.290
5902,-0.090,2.305
5903,-0.090,2.280
5904,-0.095,2.260
5905,-0.080,2.280
5906,-0.085,2.260
5907,-0.095,2.260
5908,-0.085,2.215
5909,-0.050,2.210
5910,-0.035,2.210
5911,-0.045,2.175
5912,-0.060,2.170
5913,-0.060,2.185
5914,-0.060,2.185
5915,-0.060,2.190
5916,-0.025,2.195
5917,-0.030,2.180
5918,-0.025,2.185
5919,-0.065,2.220
5920,-0.045,2.220
5921,-0.030,2.205
5922,-0.015,2.195
5923,-0.050,2.185
5924,-0.015,2.190
5925,-0.015,2.190
5926,-0.035,2.200
5927,-0.010,2.155
5928,-0.015,2.150
5929,-0.040,2.140
5930,-0.020,2.125
5931,-0.020,2.130
5932,-0.025,2.165
5933,-0.050,2.155
5934,-0.060,2.240
5935,0.005,2.235
5936,0.005,2.285
5937,0.020,2.280
5938,-0.015,2.300
5939,0.010,2.300
5940,0.015,2.275
5941,-0.010,2.205
5942,0.005,2.145
5943,0.030,2.120
5944,0.025,2.105
5945,-0.005,2.125
5946,-0.015,2.135
5947,-0.005,2.145
5948,-0.010,2.135
5949,0.005,2.120
5950,0.000,2.060
5951,-0.020,2.210
5952,-0.020,3.090
5953,-0.020,4.065
5954,-0.305,3.890
5955,-0.535,2.610
5956,-0.745,1.540
5957,-0.755,1.495
5958,-0.055,1.850
5959,0.275,2.130
5960,0.105,2.160
5961,-0.035,2.195
5962,0.030,2.235
5963,0.045,2.220
5964,0.035,2.220
5965,0.025,2.220
5966,0.050,2.240
5967,0.060,2.250
5968,0.060,2.260
5969,0.060,2.280
5970,0.070,2.290
5971,0.035,2.320
5972,0.040,2.320
5973,0.035,2.300
5974,0.030,2.325
5975,0.065,2.310
5976,0.055,2.350
5977,0.030,2.375
5978,0.065,2.385
5979,0.080,2.385
5980,0.055,2.385
5981,0.055,2.335
5982,0.045,2.320
5983,0.035,2.340
5984,0.000,2.310
5985,-0.005,2.270
5986,-0.010,2.250
5987,-0.015,2.190
5988,-0.035,2.120
5989,-0.080,2.110
5990,-0.090,2.080
5991,-0.115,2.015
5992,-0.165,1.995
5993,-0.150,1.990
5994,-0.200,1.990
5995,-0.255,2.025
5996,-0.225,2.005
5997,-0.220,1.980
5998,-0.260,1.950
5999,-0.220,1.935
6000,-0.225,1.850
6001,-0.165,1.875
6002,-0.120,1.850
6003,-0.115,1.825
6004,-0.100,1.810
6005,-0.115,1.760
6006,-0.095,1.730
6007,-0.075,1.715
6008,-0.060,1.730
6009,-0.080,1.715
6010,-0.065,1.650
6011,-0.110,1.600
6012,-0.100,1.565
6013,-0.050,1.520
6014,-0.090,1.510
6015,-0.075,1.525
6016,-0.075,1.515
6017,-0.105,1.485
6018,-0.090,1.475
6019,-0.050,1.460
6020,-0.085,1.445
6021,-0.070,1.425
6022,-0.110,1.415
6023,-0.095,1.380
6024,-0.090,1.415
6025,-0.090,1.385
6026,-0.070,1.355
6027,-0.095,1.365
6028,-0.115,1.360
6029,-0.090,1.355
6030,-0.095,1.330
6031,-0.100,1.315
6032,-0.095,1.310
6033,-0.090,1.325
6034,-0.070,1.260
6035,-0.075,1.275
6036,-0.110,1.355
6037,-0.105,1.300
6038,-0.090,1.250
6039,-0.080,1.305
6040,-0.065,1.290
6041,-0.090,1.315
6042,-0.085,1.345
6043,-0.065,1.385
6044,-0.020,1.390
6045,-0.030,1.375
6046,-0.040,1.375
6047,-0.040,1.390
6048,-0.050,1.365
6049,-0.075,1.305
6050,-0.055,1.235
6051,-0.055,1.200
6052,0.000,1.175
6053,-0.035,1.195
6054,-0.070,1.190
6055,-0.080,1.200
6056,-0.095,1.170
6057,-0.080,1.180
6058,-0.090,1.080
6059,-0.080,1.120
6060,-0.060,1.765
6061,-0.065,2.550
6062,-0.330,2.515
6063,-0.730,1.665
6064,-1.115,0.810
6065,-0.960,0.410
6066,-0.195,0.595
6067,0.560,0.930
6068,0.450,1.155
6069,0.125,1.240
6070,-0.005,1.230
6071,-0.010,1.240
6072,0.010,1.245
6073,0.015,1.280
6074,0.020,1.270
6075,0.015,1.290
6076,0.045,1.285
6077,0.045,1.275
6078,0.055,1.260
6079,0.075,1.295
6080,0.055,1.325
6081,0.040,1.300
6082,0.070,1.300
6083,0.060,1.275
6084,0.080,1.290
6085,0.065,1.305
6086,0.090,1.310
6087,0.065,1.315
6088,0.070,1.320
6089,0.060,1.300
6090,0.075,1.260
6091,0.065,1.255
6092,0.050,1.230
6093,0.025,1.205
6094,0.005,1.190
6095,-0.020,1.130
6096,-0.025,1.090
6097,-0.030,1.060
6098,-0.035,1.050
6099,-0.080,1.010
6100,-0.090,1.000
6101,-0.130,1.010
6102,-0.135,0.990
6103,-0.135,1.015
6104,-0.120,1.025
6105,-0.150,1.050
6106,-0.165,1.065
6107,-0.110,1.045
6108,-0.090,1.035
6109,-0.045,1.010
6110,-0.010,0.995
6111,0.005,1.005
6112,0.005,1.010
6113,0.005,1.005
6114,0.010,0.990
6115,0.025,0.980
6116,0.035,0.980
6117,0.030,0.970
6118,0.020,0.975
6119,0.020,0.960
6120,0.045,0.945
6121,0.025,0.930
6122,0.030,0.885
6123,0.060,0.900
6124,0.055,0.915
6125,0.015,0.895
6126,0.030,0.885
6127,0.030,0.855
6128,0.040,0.820
6129,0.055,0.825
6130,0.080,0.805
6131,0.045,0.795
6132,0.040,0.795
6133,0.050,0.795
6134,0.060,0.790
6135,0.060,0.770
6136,0.085,0.755
6137,0.095,0.770
6138,0.065,0.755
6139,0.045,0.750
6140,0.050,0.720
6141,0.050,0.710
6142,0.045,0.720
6143,0.070,0.700
6144,0.055,0.705
6145,0.095,0.700
6146,0.060,0.690
6147,0.065,0.675
6148,0.045,0.680
6149,0.085,0.655
6150,0.060,0.665
6151,0.070,0.675
6152,0.055,0.670
6153,0.075,0.675
6154,0.055,0.710
6155,0.085,0.710
6156,0.125,0.740
6157,0.145,0.760
6158,0.080,0.755
6159,0.055,0.765
6160,0.065,0.755
6161,0.080,0.720
6162,0.085,0.625
6163,0.065,0.570
6164,0.095,0.555
6165,0.120,0.555
6166,0.095,0.550
6167,0.080,0.545
6168,0.100,0.510
6169,0.065,0.500
6170,0.050,0.510
6171,0.070,0.450
6172,0.065,0.895
6173,0.095,1.895
6174,0.010,2.590
6175,-0.265,1.935
6176,-0.505,0.530
6177,-0.675,-0.205
6178,-0.505,-0.040
6179,0.200,0.255
6180,0.310,0.440
6181,0.155,0.465
6182,0.055,0.495
6183,0.110,0.510
6184,0.100,0.535
6185,0.135,0.530
6186,0.110,0.535
6187,0.120,0.525
6188,0.150,0.535
6189,0.160,0.535
6190,0.130,0.520
6191,0.140,0.560
6192,0.100,0.535
6193,0.145,0.535
6194,0.175,0.530
6195,0.170,0.520
6196,0.170,0.520
6197,0.175,0.555
6198,0.160,0.565
6199,0.145,0.570
6200,0.195,0.535
6201,0.170,0.545
6202,0.165,0.545
6203,0.180,0.545
6204,0.165,0.530
6205,0.150,0.520
6206,0.145,0.465
6207,0.140,0.435
6208,0.140,0.415
6209,0.100,0.405
6210,0.095,0.385
6211,0.070,0.355
6212,0.060,0.315
6213,0.060,0.300
6214,0.045,0.315
6215,0.040,0.350
6216,0.035,0.390
6217,0.005,0.385
6218,0.020,0.410
6219,0.020,0.390
6220,0.035,0.375
6221,0.060,0.385
6222,0.085,0.370
6223,0.110,0.370
6224,0.105,0.375
6225,0.140,0.370
6226,0.115,0.370
6227,0.140,0.340
6228,0.120,0.370
6229,0.130,0.365
6230,0.130,0.365
6231,0.145,0.355
6232,0.155,0.335
6233,0.140,0.330
6234,0.135,0.320
6235,0.125,0.320
6236,0.135,0.305
6237,0.130,0.295
6238,0.110,0.275
6239,0.145,0.260
6240,0.140,0.270
6241,0.130,0.265
6242,0.160,0.260
6243,0.155,0.260
6244,0.145,0.245
6245,0.170,0.215
6246,0.180,0.210
6247,0.175,0.220
6248,0.170,0.195
6249,0.135,0.215
6250,0.170,0.195
6251,0.140,0.220
6252,0.165,0.170
6253,0.195,0.185
6254,0.155,0.185
6255,0.140,0.200
6256,0.165,0.195
6257,0.150,0.190
6258,0.155,0.180
6259,0.155,0.150
6260,0.155,0.145
6261,0.160,0.140
6262,0.150,0.165
6263,0.120,0.145
6264,0.120,0.145
6265,0.125,0.160
6266,0.110,0.185
6267,0.145,0.230
6268,0.170,0.250
6269,0.165,0.240
6270,0.085,0.220
6271,0.155,0.215
6272,0.160,0.160
6273,0.120,0.110
6274,0.145,0.075
6275,0.135,0.035
6276,0.120,0.025
6277,0.160,0.020
6278,0.135,0.005
6279,0.115,-0.010
6280,0.130,0.035
6281,0.135,0.015
6282,0.110,-0.050
6283,0.150,0.345
6284,0.130,1.185
6285,0.030,1.605
6286,-0.350,0.960
6287,-0.735,-0.080
6288,-0.890,-0.560
6289,-0.465,-0.350
6290,0.500,-0.110
6291,0.530,0.015
6292,0.260,0.040
6293,0.160,0.075
6294,0.160,0.090
6295,0.165,0.110
6296,0.190,0.110
6297,0.195,0.125
6298,0.215,0.115
6299,0.210,0.115
6300,0.220,0.135
6301,0.190,0.130
6302,0.195,0.135
6303,0.205,0.110
6304,0.220,0.120
6305,0.220,0.150
6306,0.225,0.180
6307,0.210,0.155
6308,0.200,0.175
6309,0.255,0.155
6310,0.235,0.150
6311,0.245,0.175
6312,0.250,0.165
6313,0.225,0.160
6314,0.185,0.175
6315,0.215,0.150
6316,0.165,0.120
6317,0.165,0.080
6318,0.140,0.030
6319,0.120,0.020
6320,0.090,0.000
6321,0.070,-0.045
6322,0.030,-0.055
6323,0.005,-0.090
6324,0.000,-0.090
6325,-0.010,-0.085
6326,-0.025,-0.065
6327,-0.065,-0.040
6328,-0.060,-0.055
6329,-0.075,-0.065
6330,-0.040,-0.095
6331,-0.020,-0.080
6332,0.000,-0.055
6333,0.055,-0.070
6334,0.075,-0.095
6335,0.070,-0.140
6336,0.105,-0.120
6337,0.085,-0.080
6338,0.140,-0.095
6339,0.120,-0.100
6340,0.155,-0.130
6341,0.125,-0.120
6342,0.150,-0.130
6343,0.130,-0.145
6344,0.155,-0.155
6345,0.125,-0.125
6346,0.125,-0.135
6347,0.135,-0.155
6348,0.135,-0.200
6349,0.145,-0.225
6350,0.155,-0.195
6351,0.165,-0.155
6352,0.160,-0.170
6353,0.120,-0.220
6354,0.115,-0.240
6355,0.150,-0.225
6356,0.150,-0.210
6357,0.150,-0.240
6358,0.135,-0.215
6359,0.155,-0.240
6360,0.105,-0.245
6361,0.145,-0.275
6362,0.140,-0.280
6363,0.170,-0.280
6364,0.135,-0.255
6365,0.155,-0.255
6366,0.120,-0.265
6367,0.160,-0.295
6368,0.145,-0.290
6369,0.160,-0.290
6370,0.130,-0.280
6371,0.140,-0.255
6372,0.105,-0.260
6373,0.140,-0.285
6374,0.135,-0.285
6375,0.140,-0.240
6376,0.155,-0.180
6377,0.150,-0.165
6378,0.180,-0.175
6379,0.140,-0.165
6380,0.125,-0.195
6381,0.180,-0.215
6382,0.130,-0.285
6383,0.120,-0.320
6384,0.150,-0.330
6385,0.165,-0.345
6386,0.170,-0.380
6387,0.145,-0.395
6388,0.135,-0.385
6389,0.105,-0.360
6390,0.115,-0.370
6391,0.090,-0.425
6392,0.105,-0.400
6393,0.085,0.185
6394,0.105,0.965
6395,-0.115,0.990
6396,-0.550,0.120
6397,-0.930,-0.720
6398,-0.870,-1.045
6399,-0.085,-0.860
6400,0.710,-0.610
6401,0.520,-0.460
6402,0.230,-0.355
6403,0.090,-0.325
6404,0.105,-0.325
6405,0.125,-0.320
6406,0.130,-0.320
6407,0.150,-0.330
6408,0.125,-0.300
6409,0.125,-0.295
6410,0.115,-0.290
6411,0.120,-0.305
6412,0.130,-0.300
6413,0.150,-0.320
6414,0.155,-0.305
6415,0.150,-0.290
6416,0.145,-0.290
6417,0.160,-0.280
6418,0.145,-0.290
6419,0.140,-0.300
6420,0.165,-0.295
6421,0.135,-0.280
6422,0.135,-0.305
6423,0.125,-0.280
6424,0.145,-0.310
6425,0.105,-0.350
6426,0.100,-0.365
6427,0.080,-0.405
6428,0.070,-0.430
6429,0.035,-0.450
6430,0.025,-0.460
6431,0.000,-0.495
6432,-0.010,-0.550
6433,0.000,-0.555
6434,-0.025,-0.555
6435,-0.065,-0.500
6436,-0.100,-0.485
6437,-0.065,-0.470
6438,-0.060,-0.455
6439,-0.030,-0.470
6440,-0.005,-0.480
6441,-0.015,-0.470
6442,0.005,-0.455
6443,0.015,-0.455
6444,0.045,-0.445
6445,0.045,-0.460
6446,0.065,-0.465
6447,0.100,-0.480
6448,0.100,-0.450
6449,0.095,-0.435
6450,0.075,-0.440
6451,0.070,-0.435
6452,0.080,-0.450
6453,0.085,-0.470
6454,0.080,-0.450
6455,0.075,-0.465
6456,0.075,-0.450
6457,0.090,-0.445
6458,0.090,-0.470
6459,0.125,-0.480
6460,0.115,-0.495
6461,0.110,-0.495
6462,0.120,-0.490
6463,0.125,-0.485
6464,0.095,-0.480
6465,0.100,-0.495
6466,0.135,-0.510
6467,0.135,-0.490
6468,0.130,-0.490
6469,0.115,-0.485
6470,0.115,-0.520
6471,0.130,-0.495
6472,0.160,-0.535
6473,0.125,-0.515
6474,0.120,-0.510
6475,0.115,-0.495
6476,0.125,-0.490
6477,0.130,-0.515
6478,0.140,-0.540
6479,0.110,-0.550
6480,0.160,-0.535
6481,0.120,-0.515
6482,0.120,-0.510
6483,0.110,-0.520
6484,0.100,-0.510
6485,0.125,-0.545
6486,0.150,-0.540
6487,0.110,-0.540
6488,0.115,-0.510
6489,0.090,-0.510
6490,0.095,-0.440
6491,0.110,-0.440
6492,0.160,-0.420
6493,0.150,-0.425
6494,0.125,-0.390
6495,0.140,-0.410
6496,0.130,-0.435
6497,0.125,-0.525
6498,0.165,-0.580
6499,0.135,-0.605
6500,0.140,-0.605
6501,0.120,-0.580
6502,0.100,-0.580
6503,0.100,-0.565
6504,0.095,-0.595
6505,0.095,-0.610
6506,0.130,-0.685
6507,0.110,-0.385
6508,0.115,0.545
6509,0.105,1.360
6510,-0.190,0.895
6511,-0.430,-0.470
6512,-0.640,-1.320
6513,-0.565,-1.185
6514,0.110,-0.820
6515,0.365,-0.630
6516,0.195,-0.595
6517,0.085,-0.585
6518,0.100,-0.575
6519,0.110,-0.555
6520,0.105,-0.535
6521,0.095,-0.530
6522,0.080,-0.525
6523,0.100,-0.510
6524,0.105,-0.555
6525,0.105,-0.535
6526,0.110,-0.505
6527,0.095,-0.520
6528,0.095,-0.480
6529,0.115,-0.495
6530,0.120,-0.510
6531,0.095,-0.490
6532,0.120,-0.505
6533,0.125,-0.460
6534,0.100,-0.490
6535,0.110,-0.470
6536,0.115,-0.480
6537,0.085,-0.485
6538,0.090,-0.490
6539,0.085,-0.490
6540,0.055,-0.480
6541,0.050,-0.540
6542,0.030,-0.575
6543,0.035,-0.605
6544,0.015,-0.625
6545,-0.010,-0.665
6546,-0.025,-0.665
6547,-0.040,-0.690
6548,-0.030,-0.705
6549,-0.105,-0.680
6550,-0.100,-0.690
6551,-0.090,-0.640
6552,-0.085,-0.600
6553,-0.105,-0.590
6554,-0.085,-0.555
6555,-0.075,-0.590
6556,-0.055,-0.580
6557,-0.025,-0.595
6558,-0.010,-0.590
6559,0.005,-0.590
6560,0.015,-0.580
6561,0.010,-0.560
6562,0.035,-0.580
6563,0.030,-0.590
6564,0.050,-0.595
6565,0.020,-0.570
6566,0.045,-0.585
6567,0.020,-0.560
6568,0.020,-0.570
6569,0.040,-0.590
6570,0.045,-0.605
6571,0.055,-0.600
6572,0.030,-0.590
6573,0.025,-0.585
6574,0.030,-0.605
6575,0.045,-0.610
6576,0.055,-0.635
6577,0.035,-0.645
6578,0.045,-0.635
