'sample interval','ECG0','ECG1'
'0.0078125 sec','mV','mV'
0,-0.025,-0.025
1,-0.030,-0.025
2,-0.020,-0.025
3,-0.025,-0.025
4,-0.020,-0.025
5,-0.030,-0.030
6,-0.020,-0.030
7,-0.035,-0.035
8,-0.025,-0.040
9,-0.035,-0.040
10,-0.030,-0.035
11,-0.035,-0.035
12,-0.025,-0.030
13,-0.025,-0.030
14,-0.020,-0.020
15,-0.020,-0.010
16,-0.015,0.000
17,-0.010,0.000
18,-0.010,0.000
19,0.000,0.005
20,0.000,0.010
21,0.000,0.015
22,0.000,0.020
23,0.000,0.025
24,0.000,0.025
25,0.000,0.025
26,0.000,0.020
27,0.000,0.020
28,0.000,0.020
29,0.000,0.025
30,0.000,0.025
31,0.000,0.030
32,0.000,0.030
33,0.000,0.030
34,0.000,0.025
35,0.000,0.025
36,0.000,0.025
37,0.000,0.025
38,0.000,0.025
39,0.000,0.030
40,0.005,0.030
41,0.005,0.025
42,0.005,0.025
43,0.005,0.025
44,0.005,0.025
45,0.005,0.025
46,0.005,0.025
47,0.005,0.025
48,0.000,0.025
49,0.000,0.025
50,0.000,0.020
51,0.000,0.020
52,0.000,0.020
53,0.005,0.020
54,0.000,0.020
55,0.005,0.020
56,0.000,0.020
57,0.005,0.025
58,0.000,0.020
59,0.005,0.020
60,0.005,0.020
61,0.010,0.025
62,0.005,0.025
63,0.010,0.025
64,0.010,0.025
65,0.010,0.030
66,0.010,0.025
67,0.005,0.015
68,0.000,0.005
69,0.000,0.005
70,0.000,0.005
71,0.000,0.010
72,0.000,0.010
73,0.000,0.020
74,0.005,0.055
75,0.030,0.175
76,0.140,0.395
77,0.425,0.575
78,0.620,0.525
79,0.520,0.265
80,0.200,0.025
81,-0.015,-0.060
82,-0.075,-0.055
83,-0.070,-0.045
84,-0.065,-0.040
85,-0.050,-0.040
86,-0.060,-0.040
87,-0.045,-0.040
88,-0.055,-0.040
89,-0.045,-0.040
90,-0.055,-0.040
91,-0.050,-0.045
92,-0.055,-0.045
93,-0.050,-0.045
94,-0.050,-0.045
95,-0.050,-0.050
96,-0.050,-0.045
97,-0.055,-0.045
98,-0.050,-0.045
99,-0.050,-0.045
100,-0.050,-0.045
101,-0.050,-0.040
102,-0.045,-0.040
103,-0.050,-0.040
104,-0.045,-0.040
105,-0.045,-0.040
106,-0.045,-0.040
107,-0.045,-0.040
108,-0.045,-0.045
109,-0.045,-0.050
110,-0.050,-0.055
111,-0.050,-0.060
112,-0.055,-0.065
113,-0.050,-0.065
114,-0.055,-0.070
115,-0.050,-0.065
116,-0.055,-0.060
117,-0.045,-0.055
118,-0.040,-0.045
119,-0.035,-0.035
120,-0.030,-0.030
121,-0.025,-0.020
122,-0.020,-0.010
123,-0.015,0.000
124,-0.015,0.000
125,-0.010,0.000
126,0.000,0.000
127,-0.010,0.005
128,0.000,0.010
129,0.000,0.010
130,0.000,0.010
131,0.000,0.010
132,0.000,0.015
133,0.000,0.015
134,0.000,0.020
135,0.000,0.025
136,0.000,0.025
137,0.000,0.025
138,0.000,0.025
139,0.000,0.025
140,0.000,0.025
141,0.000,0.025
142,0.000,0.025
143,0.000,0.020
144,0.000,0.020
145,0.000,0.020
146,0.000,0.020
147,0.000,0.015
148,0.000,0.015
149,0.000,0.015
150,0.000,0.015
151,0.000,0.010
152,0.000,0.010
153,0.000,0.010
154,0.000,0.010
155,0.000,0.010
156,0.000,0.010
157,0.000,0.010
158,0.000,0.010
159,0.000,0.010
160,0.000,0.015
161,0.000,0.025
162,0.005,0.020
163,0.000,0.020
164,0.005,0.020
165,0.000,0.025
166,0.010,0.020
167,0.005,0.015
168,0.000,0.010
169,0.000,0.000
170,-0.005,0.000
171,-0.015,0.000
172,-0.015,0.000
173,-0.015,0.000
174,-0.015,0.005
175,0.000,0.040
176,0.015,0.140
177,0.110,0.320
178,0.340,0.440
179,0.490,0.355
180,0.415,0.120
181,0.200,-0.080
182,0.000,-0.155
183,-0.085,-0.120
184,-0.085,-0.065
185,-0.070,-0.040
186,-0.065,-0.030
187,-0.055,-0.025
188,-0.055,-0.025
189,-0.050,-0.025
190,-0.050,-0.025
191,-0.045,-0.025
192,-0.050,-0.030
193,-0.050,-0.030
194,-0.050,-0.035
195,-0.055,-0.040
196,-0.050,-0.035
197,-0.050,-0.035
198,-0.050,-0.035
199,-0.050,-0.030
200,-0.050,-0.030
201,-0.050,-0.030
202,-0.050,-0.025
203,-0.045,-0.025
204,-0.045,-0.020
205,-0.035,-0.020
206,-0.040,-0.025
207,-0.030,-0.025
208,-0.035,-0.025
209,-0.030,-0.025
210,-0.035,-0.030
211,-0.030,-0.030
212,-0.035,-0.030
213,-0.030,-0.030
214,-0.035,-0.030
215,-0.030,-0.030
216,-0.035,-0.030
217,-0.025,-0.025
218,-0.025,-0.020
219,-0.020,-0.015
220,-0.020,-0.010
221,-0.015,0.000
222,-0.010,0.000
223,0.000,0.005
224,0.000,0.010
225,0.000,0.010
226,0.000,0.015
227,0.000,0.020
228,0.000,0.020
229,0.000,0.020
230,0.000,0.020
231,0.000,0.020
232,0.000,0.020
233,0.000,0.020
234,0.000,0.020
235,0.000,0.020
236,0.000,0.020
237,0.000,0.025
238,0.000,0.025
239,0.000,0.025
240,0.000,0.030
241,0.000,0.030
242,0.000,0.030
243,0.005,0.030
244,0.005,0.030
245,0.005,0.030
246,0.005,0.025
247,0.005,0.025
248,0.000,0.020
249,0.000,0.020
250,0.005,0.025
251,0.005,0.025
252,0.005,0.025
253,0.005,0.025
254,0.000,0.025
255,0.000,0.025
256,0.005,0.025
257,0.000,0.025
258,0.000,0.025
259,0.000,0.025
260,0.005,0.025
261,0.010,0.030
262,0.020,0.030
263,0.010,0.030
264,0.015,0.030
265,0.010,0.030
266,0.025,0.035
267,0.010,0.025
268,0.005,0.020
269,0.000,0.010
270,-0.005,0.000
271,-0.010,0.000
272,-0.005,0.000
273,0.000,0.010
274,0.000,0.025
275,0.015,0.080
276,0.055,0.210
277,0.195,0.375
278,0.415,0.450
279,0.510,0.330
280,0.385,0.105
281,0.145,-0.055
282,-0.035,-0.105
283,-0.080,-0.070
284,-0.065,-0.035
285,-0.060,-0.025
286,-0.040,-0.020
287,-0.045,-0.020
288,-0.035,-0.020
289,-0.045,-0.030
290,-0.040,-0.025
291,-0.045,-0.020
292,-0.035,-0.025
293,-0.045,-0.025
294,-0.035,-0.025
295,-0.040,-0.025
296,-0.040,-0.030
297,-0.045,-0.030
298,-0.040,-0.030
299,-0.040,-0.030
300,-0.035,-0.025
301,-0.035,-0.025
302,-0.035,-0.020
303,-0.030,-0.020
304,-0.035,-0.020
305,-0.030,-0.020
306,-0.030,-0.015
307,-0.020,-0.015
308,-0.025,-0.020
309,-0.025,-0.030
310,-0.035,-0.035
311,-0.020,-0.035
312,-0.030,-0.035
313,-0.025,-0.035
314,-0.025,-0.035
315,-0.020,-0.035
316,-0.025,-0.035
317,-0.020,-0.025
318,-0.020,-0.020
319,-0.015,-0.010
320,-0.010,-0.005
321,-0.005,0.000
322,0.000,0.000
323,0.000,0.005
324,0.000,0.005
325,0.000,0.010
326,0.000,0.020
327,0.000,0.025
328,0.000,0.025
329,0.000,0.020
330,0.000,0.020
331,0.000,0.020
332,0.000,0.020
333,0.000,0.020
334,0.000,0.020
335,0.000,0.020
336,0.000,0.025
337,0.000,0.025
338,0.000,0.025
339,0.000,0.025
340,0.000,0.030
341,0.010,0.025
342,0.000,0.025
343,0.005,0.025
344,0.000,0.025
345,0.000,0.025
346,0.000,0.025
347,0.000,0.025
348,0.005,0.025
349,0.005,0.025
350,0.000,0.025
351,0.000,0.025
352,0.000,0.020
353,0.000,0.020
354,0.000,0.020
355,0.000,0.015
356,0.000,0.015
357,0.000,0.015
358,0.000,0.015
359,0.000,0.020
360,0.000,0.025
361,0.000,0.025
362,0.005,0.025
363,0.010,0.025
364,0.010,0.025
365,0.005,0.025
366,0.005,0.025
367,0.010,0.025
368,0.005,0.025
369,0.005,0.020
370,0.000,0.015
371,0.000,0.000
372,-0.015,0.000
373,-0.015,0.000
374,-0.010,0.000
375,0.000,0.005
376,0.000,0.025
377,0.005,0.065
378,0.040,0.180
379,0.155,0.375
380,0.430,0.480
381,0.540,0.360
382,0.415,0.110
383,0.115,-0.070
384,-0.065,-0.105
385,-0.090,-0.070
386,-0.075,-0.045
387,-0.070,-0.035
388,-0.050,-0.030
389,-0.060,-0.030
390,-0.045,-0.035
391,-0.055,-0.035
392,-0.045,-0.035
393,-0.055,-0.035
394,-0.045,-0.040
395,-0.055,-0.040
396,-0.050,-0.040
397,-0.055,-0.040
398,-0.045,-0.045
399,-0.050,-0.045
400,-0.050,-0.040
401,-0.050,-0.040
402,-0.050,-0.040
403,-0.045,-0.035
404,-0.045,-0.035
405,-0.045,-0.030
406,-0.040,-0.030
407,-0.035,-0.025
408,-0.030,-0.025
409,-0.030,-0.030
410,-0.025,-0.030
411,-0.030,-0.030
412,-0.030,-0.035
413,-0.035,-0.035
414,-0.030,-0.035
415,-0.035,-0.035
416,-0.025,-0.035
417,-0.035,-0.035
418,-0.025,-0.030
419,-0.025,-0.025
420,-0.015,-0.020
421,-0.035,-0.015
422,-0.015,-0.005
423,-0.015,0.000
424,0.000,0.000
425,-0.010,0.005
426,0.000,0.010
427,0.000,0.010
428,0.000,0.010
429,0.000,0.010
430,0.000,0.015
431,0.000,0.020
432,0.000,0.020
433,0.000,0.020
434,0.000,0.020
435,0.000,0.020
436,0.000,0.020
437,0.000,0.020
438,0.000,0.025
439,0.000,0.030
440,0.000,0.025
441,0.000,0.025
442,0.000,0.025
443,0.000,0.025
444,0.000,0.025
445,0.005,0.025
446,0.000,0.025
447,0.000,0.025
448,0.000,0.025
449,0.000,0.025
450,0.000,0.025
451,0.000,0.025
452,0.000,0.025
453,0.000,0.025
454,0.005,0.020
455,0.000,0.015
456,0.000,0.015
457,0.000,0.020
458,0.000,0.020
459,0.000,0.015
460,0.000,0.015
461,0.000,0.015
462,0.000,0.020
463,0.000,0.020
464,0.000,0.020
465,0.000,0.020
466,0.000,0.020
467,0.000,0.020
468,0.000,0.020
469,0.010,0.020
470,0.000,0.020
471,0.010,0.020
472,0.010,0.025
473,0.015,0.025
474,0.000,0.020
475,0.000,0.010
476,0.000,0.005
477,-0.005,0.000
478,-0.010,0.000
479,-0.010,0.000
480,-0.005,0.000
481,0.000,0.010
482,0.000,0.050
483,0.010,0.185
484,0.160,0.410
485,0.440,0.560
486,0.595,0.475
487,0.460,0.220
488,0.170,0.010
489,-0.025,-0.070
490,-0.080,-0.070
491,-0.080,-0.060
492,-0.065,-0.055
493,-0.060,-0.050
494,-0.060,-0.050
495,-0.055,-0.050
496,-0.060,-0.050
497,-0.060,-0.055
498,-0.065,-0.055
499,-0.060,-0.055
500,-0.065,-0.060
501,-0.065,-0.060
502,-0.065,-0.065
503,-0.065,-0.060
504,-0.065,-0.060
505,-0.065,-0.055
506,-0.065,-0.055
507,-0.060,-0.055
508,-0.060,-0.050
509,-0.060,-0.050
510,-0.055,-0.050
511,-0.055,-0.050
512,-0.050,-0.050
513,-0.055,-0.050
514,-0.050,-0.050
515,-0.055,-0.055
516,-0.050,-0.060
517,-0.060,-0.065
518,-0.055,-0.070
519,-0.065,-0.075
520,-0.055,-0.075
521,-0.065,-0.080
522,-0.055,-0.080
523,-0.060,-0.075
524,-0.050,-0.075
525,-0.055,-0.070
526,-0.045,-0.060
527,-0.045,-0.050
528,-0.035,-0.040
529,-0.035,-0.035
530,-0.030,-0.025
531,-0.025,-0.015
532,-0.020,-0.005
533,-0.015,-0.005
534,-0.015,0.000
535,-0.005,0.000
536,0.000,0.005
537,-0.005,0.010
538,0.000,0.015
539,0.000,0.020
540,0.000,0.020
541,0.000,0.025
542,0.000,0.025
543,0.000,0.030
544,0.005,0.035
545,0.000,0.030
546,0.005,0.030
547,0.000,0.030
548,0.005,0.030
549,0.000,0.025
550,0.000,0.025
551,0.000,0.025
552,0.000,0.020
553,0.000,0.020
554,0.000,0.020
555,0.000,0.020
556,0.000,0.020
557,0.000,0.020
558,0.000,0.020
559,0.000,0.020
560,0.000,0.020
561,0.000,0.020
562,0.000,0.015
563,0.000,0.015
564,0.000,0.015
565,0.000,0.015
566,0.000,0.010
567,0.000,0.010
568,0.000,0.015
569,0.000,0.015
570,0.000,0.015
571,0.000,0.015
572,0.000,0.020
573,0.005,0.025
574,0.005,0.020
575,0.005,0.020
576,0.010,0.025
577,0.005,0.025
578,0.005,0.020
579,0.000,0.010
580,0.000,0.000
581,-0.005,0.000
582,-0.010,0.000
583,-0.010,0.000
584,-0.005,0.000
585,0.000,0.010
586,0.005,0.045
587,0.025,0.140
588,0.110,0.310
589,0.340,0.455
590,0.525,0.415
591,0.475,0.195
592,0.230,-0.020
593,-0.010,-0.110
594,-0.100,-0.085
595,-0.070,-0.045
596,-0.065,-0.030
597,-0.045,-0.030
598,-0.050,-0.030
599,-0.040,-0.030
600,-0.045,-0.030
601,-0.040,-0.030
602,-0.045,-0.030
603,-0.045,-0.030
604,-0.050,-0.035
605,-0.040,-0.040
606,-0.045,-0.040
607,-0.045,-0.040
608,-0.045,-0.040
609,-0.045,-0.040
610,-0.045,-0.040
611,-0.045,-0.035
612,-0.040,-0.035
613,-0.040,-0.030
614,-0.035,-0.025
615,-0.035,-0.025
616,-0.030,-0.025
617,-0.035,-0.030
618,-0.030,-0.030
619,-0.030,-0.030
620,-0.030,-0.035
621,-0.030,-0.035
622,-0.030,-0.035
623,-0.030,-0.035
624,-0.035,-0.040
625,-0.030,-0.045
626,-0.035,-0.045
627,-0.030,-0.040
628,-0.035,-0.035
629,-0.025,-0.030
630,-0.020,-0.025
631,-0.015,-0.015
632,-0.015,-0.005
633,-0.010,0.000
634,-0.005,0.000
635,0.000,0.005
636,0.000,0.010
637,0.000,0.010
638,0.000,0.015
639,0.000,0.015
640,0.000,0.015
641,0.000,0.015
642,0.000,0.020
643,0.000,0.020
644,0.000,0.020
645,0.000,0.020
646,0.000,0.020
647,0.000,0.025
648,0.000,0.025
649,0.000,0.025
650,0.000,0.025
651,0.000,0.025
652,0.000,0.030
653,0.000,0.025
654,0.000,0.025
655,0.000,0.025
656,0.000,0.025
657,0.000,0.025
658,0.000,0.025
659,0.005,0.025
660,0.005,0.025
661,0.005,0.025
662,0.005,0.025
663,0.005,0.020
664,0.000,0.020
665,0.000,0.020
666,0.000,0.020
667,0.000,0.020
668,0.000,0.020
669,0.000,0.020
670,0.000,0.020
671,0.000,0.015
672,0.000,0.015
673,0.000,0.015
674,0.000,0.015
675,0.000,0.020
676,0.000,0.020
677,0.000,0.020
678,0.005,0.020
679,0.000,0.025
680,0.010,0.025
681,0.005,0.025
682,0.000,0.020
683,0.000,0.010
684,0.000,0.005
685,-0.010,0.000
686,-0.015,0.000
687,-0.010,0.000
688,-0.010,0.005
689,0.000,0.015
690,0.000,0.055
691,0.025,0.170
692,0.145,0.365
693,0.410,0.490
694,0.540,0.400
695,0.430,0.165
696,0.145,-0.020
697,-0.045,-0.080
698,-0.090,-0.065
699,-0.075,-0.045
700,-0.065,-0.035
701,-0.050,-0.035
702,-0.050,-0.035
703,-0.045,-0.035
704,-0.050,-0.035
705,-0.050,-0.035
706,-0.045,-0.040
707,-0.045,-0.040
708,-0.045,-0.040
709,-0.050,-0.040
710,-0.050,-0.040
711,-0.050,-0.040
712,-0.050,-0.040
713,-0.050,-0.040
714,-0.050,-0.040
715,-0.045,-0.040
716,-0.040,-0.035
717,-0.040,-0.035
718,-0.040,-0.030
719,-0.030,-0.030
720,-0.035,-0.030
721,-0.030,-0.030
722,-0.035,-0.035
723,-0.030,-0.035
724,-0.035,-0.040
725,-0.030,-0.045
726,-0.035,-0.045
727,-0.030,-0.045
728,-0.035,-0.045
729,-0.030,-0.050
730,-0.035,-0.050
731,-0.030,-0.045
732,-0.035,-0.040
733,-0.030,-0.035
734,-0.030,-0.025
735,-0.020,-0.015
736,-0.015,-0.005
737,-0.010,0.000
738,-0.010,0.000
739,-0.005,0.000
740,0.000,0.005
741,0.000,0.010
742,0.000,0.015
743,0.000,0.020
744,0.000,0.020
745,0.000,0.020
746,0.000,0.020
747,0.000,0.020
748,0.000,0.025
749,0.000,0.025
750,0.000,0.025
751,0.005,0.030
752,0.000,0.030
753,0.005,0.035
754,0.000,0.035
755,0.005,0.035
756,0.000,0.035
757,0.010,0.035
758,0.005,0.035
759,0.010,0.030
760,0.005,0.030
761,0.005,0.025
762,0.005,0.025
763,0.005,0.025
764,0.005,0.025
765,0.005,0.025
766,0.000,0.020
767,0.000,0.020
768,0.005,0.020
769,0.000,0.020
770,0.000,0.020
771,0.000,0.020
772,0.000,0.020
773,0.000,0.020
774,0.000,0.020
775,0.000,0.015
776,0.000,0.015
777,0.000,0.015
778,0.000,0.020
779,0.000,0.020
780,0.010,0.025
781,0.005,0.020
782,0.005,0.020
783,0.010,0.025
784,0.015,0.030
785,0.015,0.025
786,0.005,0.020
787,0.000,0.010
788,-0.005,0.005
789,-0.010,0.005
790,-0.005,0.005
791,0.000,0.005
792,0.000,0.005
793,0.000,0.030
794,0.015,0.100
795,0.075,0.245
796,0.255,0.415
797,0.480,0.460
798,0.525,0.300
799,0.340,0.060
800,0.065,-0.075
801,-0.080,-0.090
802,-0.080,-0.055
803,-0.070,-0.035
804,-0.050,-0.025
805,-0.045,-0.025
806,-0.040,-0.025
807,-0.045,-0.025
808,-0.045,-0.025
809,-0.040,-0.025
810,-0.040,-0.030
811,-0.040,-0.030
812,-0.040,-0.030
813,-0.040,-0.030
814,-0.045,-0.035
815,-0.045,-0.035
816,-0.045,-0.035
817,-0.035,-0.030
818,-0.035,-0.030
819,-0.035,-0.025
820,-0.035,-0.025
821,-0.030,-0.025
822,-0.035,-0.025
823,-0.030,-0.020
824,-0.030,-0.020
825,-0.025,-0.015
826,-0.020,-0.015
827,-0.015,-0.015
828,-0.020,-0.020
829,-0.020,-0.025
830,-0.025,-0.025
831,-0.020,-0.025
832,-0.025,-0.025
833,-0.020,-0.025
834,-0.015,-0.020
835,-0.020,-0.020
836,-0.015,-0.015
837,-0.015,-0.010
838,-0.010,-0.005
839,-0.005,0.000
840,0.000,0.005
841,0.000,0.010
842,0.000,0.010
843,0.000,0.015
844,0.000,0.020
845,0.000,0.025
846,0.000,0.025
847,0.000,0.025
848,0.000,0.025
849,0.000,0.025
850,0.000,0.025
851,0.000,0.025
852,0.000,0.025
853,0.000,0.025
854,0.000,0.025
855,0.005,0.030
856,0.000,0.035
857,0.005,0.035
858,0.000,0.030
859,0.005,0.030
860,0.005,0.030
861,0.010,0.030
862,0.005,0.030
863,0.005,0.030
864,0.005,0.030
865,0.005,0.030
866,0.010,0.025
867,0.010,0.025
868,0.005,0.025
869,0.005,0.025
870,0.005,0.030
871,0.005,0.025
872,0.010,0.025
873,0.005,0.020
874,0.000,0.020
875,0.000,0.020
876,0.005,0.025
877,0.005,0.025
878,0.005,0.025
879,0.005,0.020
880,0.000,0.020
881,0.005,0.020
882,0.000,0.025
883,0.010,0.025
884,0.010,0.025
885,0.015,0.025
886,0.010,0.025
887,0.010,0.025
888,0.010,0.025
889,0.020,0.030
890,0.015,0.030
891,0.010,0.025
892,0.005,0.015
893,0.000,0.005
894,0.000,0.005
895,0.000,0.005
896,0.000,0.005
897,0.000,0.005
898,0.000,0.030
899,0.005,0.105
900,0.060,0.305
901,0.310,0.535
902,0.585,0.575
903,0.580,0.365
904,0.315,0.100
905,0.035,-0.035
906,-0.055,-0.060
907,-0.075,-0.050
908,-0.060,-0.050
909,-0.055,-0.045
910,-0.045,-0.040
911,-0.050,-0.040
912,-0.050,-0.040
913,-0.055,-0.045
914,-0.050,-0.045
915,-0.050,-0.050
916,-0.050,-0.050
917,-0.050,-0.050
918,-0.055,-0.050
919,-0.055,-0.050
920,-0.055,-0.050
921,-0.050,-0.050
922,-0.050,-0.045
923,-0.050,-0.045
924,-0.050,-0.040
925,-0.055,-0.040
926,-0.045,-0.035
927,-0.045,-0.035
928,-0.040,-0.035
929,-0.045,-0.035
930,-0.040,-0.040
931,-0.045,-0.040
932,-0.040,-0.045
933,-0.045,-0.050
934,-0.045,-0.055
935,-0.050,-0.060
936,-0.045,-0.070
937,-0.055,-0.070
938,-0.050,-0.070
939,-0.050,-0.070
940,-0.050,-0.065
941,-0.045,-0.060
942,-0.040,-0.055
943,-0.040,-0.045
944,-0.035,-0.040
945,-0.025,-0.025
946,-0.020,-0.020
947,-0.015,-0.005
948,-0.015,0.000
949,0.000,0.000
950,-0.005,0.000
951,0.000,0.005
952,0.000,0.010
953,0.000,0.010
954,0.000,0.015
955,0.000,0.020
956,0.000,0.025
957,0.005,0.030
958,0.000,0.030
959,0.005,0.035
960,0.005,0.040
961,0.005,0.040
962,0.010,0.040
963,0.005,0.035
964,0.010,0.035
965,0.010,0.035
966,0.010,0.035
967,0.005,0.030
968,0.005,0.025
969,0.005,0.025
970,0.005,0.025
971,0.005,0.025
972,0.005,0.025
973,0.000,0.025
974,0.000,0.025
975,0.000,0.025
976,0.000,0.020
977,0.000,0.020
978,0.000,0.020
979,0.000,0.020
980,0.000,0.020
981,0.000,0.020
982,0.000,0.020
983,0.000,0.020
984,0.000,0.020
985,0.000,0.020
986,0.000,0.020
987,0.005,0.025
988,0.010,0.025
989,0.010,0.025
990,0.005,0.025
991,0.010,0.025
992,0.015,0.025
993,0.015,0.030
994,0.010,0.025
995,0.005,0.015
996,0.000,0.005
997,-0.005,0.005
998,-0.005,0.005
999,0.000,0.010
1000,0.000,0.010
1001,0.000,0.025
1002,0.020,0.080
1003,0.055,0.210
1004,0.205,0.385
1005,0.440,0.470
1006,0.535,0.350
1007,0.395,0.120
1008,0.135,-0.045
1009,-0.040,-0.085
1010,-0.085,-0.060
1011,-0.065,-0.035
1012,-0.055,-0.030
1013,-0.045,-0.020
1014,-0.045,-0.020
1015,-0.035,-0.025
1016,-0.045,-0.025
1017,-0.040,-0.030
1018,-0.045,-0.030
1019,-0.045,-0.030
1020,-0.045,-0.030
1021,-0.045,-0.030
1022,-0.045,-0.035
1023,-0.045,-0.030
1024,-0.045,-0.030
1025,-0.045,-0.030
1026,-0.045,-0.030
1027,-0.045,-0.030
1028,-0.035,-0.025
1029,-0.040,-0.025
1030,-0.030,-0.020
1031,-0.035,-0.020
1032,-0.025,-0.015
1033,-0.025,-0.010
1034,-0.015,-0.010
1035,-0.025,-0.015
1036,-0.015,-0.015
1037,-0.015,-0.020
1038,-0.005,-0.020
1039,-0.005,-0.020
1040,-0.010,-0.020
1041,-0.015,-0.025
1042,-0.020,-0.030
1043,-0.030,-0.040
1044,-0.035,-0.045
1045,-0.035,-0.035
1046,-0.030,-0.030
1047,-0.025,-0.020
1048,-0.020,-0.010
1049,-0.015,0.000
1050,-0.010,0.000
1051,-0.005,0.005
1052,0.000,0.010
1053,0.000,0.010
1054,0.000,0.010
1055,0.000,0.010
1056,0.000,0.010
1057,0.000,0.015
1058,0.000,0.020
1059,0.000,0.020
1060,0.000,0.025
1061,0.000,0.050
1062,0.035,0.135
1063,0.085,0.315
1064,0.335,0.520
1065,0.565,0.550
1066,0.595,0.360
1067,0.330,0.125
1068,0.060,0.010
1069,-0.030,0.000
1070,-0.060,-0.020
1071,-0.065,-0.035
1072,-0.055,-0.040
1073,-0.055,-0.040
1074,-0.055,-0.040
1075,-0.055,-0.040
1076,-0.055,-0.040
1077,-0.055,-0.045
1078,-0.055,-0.050
1079,-0.050,-0.045
1080,-0.060,-0.045
1081,-0.055,-0.045
1082,-0.060,-0.045
1083,-0.050,-0.045
1084,-0.055,-0.045
1085,-0.055,-0.045
1086,-0.055,-0.040
1087,-0.045,-0.040
1088,-0.045,-0.040
1089,-0.050,-0.040
1090,-0.045,-0.040
1091,-0.045,-0.040
1092,-0.040,-0.040
1093,-0.045,-0.040
1094,-0.040,-0.045
1095,-0.045,-0.040
1096,-0.045,-0.040
1097,-0.040,-0.040
1098,-0.035,-0.035
1099,-0.030,-0.025
1100,-0.025,-0.015
1101,-0.025,-0.005
1102,-0.020,0.000
1103,-0.005,0.000
1104,0.000,0.010
1105,0.000,0.020
1106,0.000,0.030
1107,0.005,0.030
1108,0.000,0.030
1109,0.005,0.030
1110,0.005,0.035
1111,0.010,0.040
1112,0.005,0.045
1113,0.010,0.045
1114,0.000,0.045
1115,0.010,0.045
1116,0.005,0.045
1117,0.020,0.045
1118,0.005,0.045
1119,0.020,0.045
1120,0.010,0.045
1121,0.010,0.045
1122,0.010,0.045
1123,0.015,0.045
1124,0.010,0.040
1125,0.010,0.035
1126,0.015,0.035
1127,0.010,0.035
1128,0.010,0.030
1129,0.005,0.030
1130,0.005,0.035
1131,0.010,0.030
1132,0.010,0.025
1133,0.010,0.025
1134,0.000,0.025
1135,0.005,0.025
1136,0.000,0.030
1137,0.005,0.025
1138,0.000,0.025
1139,0.005,0.025
1140,0.000,0.025
1141,0.000,0.025
1142,0.000,0.020
1143,0.005,0.015
1144,0.000,0.015
1145,0.000,0.020
1146,0.000,0.025
1147,0.005,0.020
1148,0.005,0.015
1149,0.005,0.015
1150,0.000,0.020
1151,0.005,0.025
1152,0.005,0.025
1153,0.000,0.020
1154,0.000,0.020
1155,0.000,0.015
1156,0.000,0.015
1157,0.000,0.015
1158,0.000,0.015
1159,0.000,0.015
1160,0.000,0.015
1161,0.000,0.015
1162,0.000,0.015
1163,0.000,0.015
1164,0.010,0.015
1165,0.000,0.015
1166,0.010,0.015
1167,0.005,0.015
1168,0.010,0.020
1169,0.005,0.020
1170,0.005,0.010
1171,0.000,0.005
1172,-0.005,0.000
1173,-0.010,0.000
1174,-0.010,0.000
1175,-0.010,0.000
1176,-0.005,0.000
1177,0.000,0.010
1178,0.000,0.045
1179,0.015,0.145
1180,0.110,0.335
1181,0.360,0.500
1182,0.560,0.465
1183,0.485,0.220
1184,0.215,-0.015
1185,-0.025,-0.100
1186,-0.085,-0.080
1187,-0.085,-0.055
1188,-0.065,-0.050
1189,-0.060,-0.045
1190,-0.050,-0.045
1191,-0.060,-0.045
1192,-0.055,-0.045
1193,-0.055,-0.045
1194,-0.050,-0.045
1195,-0.055,-0.045
1196,-0.050,-0.045
1197,-0.050,-0.050
1198,-0.050,-0.050
1199,-0.050,-0.050
1200,-0.055,-0.050
1201,-0.055,-0.050
1202,-0.050,-0.045
1203,-0.045,-0.040
1204,-0.045,-0.040
1205,-0.045,-0.035
1206,-0.045,-0.035
1207,-0.035,-0.035
1208,-0.035,-0.035
1209,-0.030,-0.035
1210,-0.035,-0.035
1211,-0.030,-0.035
1212,-0.035,-0.035
1213,-0.030,-0.035
1214,-0.030,-0.035
1215,-0.025,-0.040
1216,-0.020,-0.040
1217,-0.015,-0.040
1218,-0.010,-0.040
1219,-0.020,-0.045
1220,-0.025,-0.040
1221,-0.025,-0.040
1222,-0.035,-0.045
1223,-0.040,-0.045
1224,-0.035,-0.040
1225,-0.030,-0.030
1226,-0.025,-0.020
1227,-0.020,-0.010
1228,-0.010,0.000
1229,-0.010,0.000
1230,-0.005,0.005
1231,0.000,0.010
1232,0.000,0.010
1233,0.000,0.015
1234,0.000,0.020
1235,0.000,0.025
1236,0.000,0.030
1237,0.000,0.030
1238,0.000,0.030
1239,0.010,0.040
1240,0.010,0.040
1241,0.025,0.025
1242,0.000,0.030
1243,0.040,0.135
1244,0.125,0.395
1245,0.380,0.675
1246,0.580,0.745
1247,0.465,0.530
1248,0.200,0.230
1249,0.005,0.040
1250,-0.055,-0.030
1251,-0.050,-0.050
1252,-0.045,-0.055
1253,-0.045,-0.060
1254,-0.040,-0.060
1255,-0.040,-0.060
1256,-0.040,-0.060
1257,-0.040,-0.065
1258,-0.040,-0.065
1259,-0.040,-0.070
1260,-0.045,-0.070
1261,-0.040,-0.070
1262,-0.045,-0.075
1263,-0.040,-0.075
1264,-0.045,-0.075
1265,-0.040,-0.075
1266,-0.045,-0.075
1267,-0.035,-0.075
1268,-0.040,-0.075
1269,-0.035,-0.080
1270,-0.035,-0.080
1271,-0.030,-0.080
1272,-0.035,-0.085
1273,-0.030,-0.085
1274,-0.035,-0.090
1275,-0.035,-0.090
1276,-0.035,-0.090
1277,-0.035,-0.085
1278,-0.035,-0.080
1279,-0.030,-0.070
1280,-0.030,-0.065
1281,-0.025,-0.055
1282,-0.015,-0.040
1283,-0.015,-0.020
1284,0.000,-0.010
1285,0.000,0.000
1286,0.000,0.005
1287,0.000,0.010
1288,0.000,0.015
1289,0.000,0.020
1290,0.005,0.025
1291,0.000,0.030
1292,0.005,0.030
1293,0.000,0.030
1294,0.000,0.030
1295,0.000,0.030
1296,0.005,0.035
1297,0.000,0.040
1298,0.000,0.035
1299,0.000,0.035
1300,0.000,0.035
1301,0.005,0.035
1302,0.005,0.035
1303,0.005,0.030
1304,0.005,0.030
1305,0.005,0.030
1306,0.005,0.030
1307,0.005,0.025
1308,0.000,0.025
1309,0.000,0.025
1310,0.000,0.025
1311,0.000,0.025
1312,0.000,0.025
1313,0.000,0.025
1314,0.000,0.025
1315,0.000,0.025
1316,0.000,0.025
1317,0.000,0.025
1318,0.000,0.025
1319,0.000,0.025
1320,0.000,0.025
1321,0.000,0.020
1322,0.000,0.020
1323,0.000,0.020
1324,0.000,0.020
1325,0.000,0.020
1326,0.000,0.020
1327,0.000,0.025
1328,0.000,0.020
1329,0.000,0.020
1330,0.000,0.020
1331,0.000,0.020
1332,0.000,0.020
1333,0.000,0.020
1334,0.000,0.020
1335,0.000,0.025
1336,0.000,0.020
1337,0.000,0.020
1338,0.000,0.020
1339,0.000,0.020
1340,0.000,0.020
1341,0.000,0.020
1342,0.000,0.020
1343,0.005,0.025
1344,0.010,0.025
1345,0.005,0.025
1346,0.005,0.025
1347,0.010,0.025
1348,0.015,0.030
1349,0.010,0.030
1350,0.010,0.025
1351,0.000,0.010
1352,0.000,0.000
1353,-0.005,0.000
1354,0.000,0.005
1355,0.000,0.010
1356,0.000,0.010
1357,0.000,0.015
1358,0.005,0.045
1359,0.020,0.140
1360,0.090,0.340
1361,0.360,0.545
1362,0.600,0.550
1363,0.565,0.320
1364,0.275,0.065
1365,0.015,-0.045
1366,-0.065,-0.050
1367,-0.065,-0.045
1368,-0.065,-0.040
1369,-0.040,-0.035
1370,-0.055,-0.035
1371,-0.040,-0.035
1372,-0.050,-0.040
1373,-0.045,-0.045
1374,-0.050,-0.040
1375,-0.050,-0.040
1376,-0.050,-0.045
1377,-0.055,-0.045
1378,-0.055,-0.050
1379,-0.055,-0.050
1380,-0.055,-0.045
1381,-0.055,-0.045
1382,-0.055,-0.045
1383,-0.055,-0.050
1384,-0.050,-0.045
1385,-0.050,-0.040
1386,-0.045,-0.040
1387,-0.045,-0.040
1388,-0.050,-0.040
1389,-0.045,-0.040
1390,-0.045,-0.035
1391,-0.040,-0.035
1392,-0.040,-0.035
1393,-0.035,-0.035
1394,-0.040,-0.035
1395,-0.040,-0.040
1396,-0.040,-0.045
1397,-0.030,-0.045
1398,-0.025,-0.045
1399,-0.015,-0.040
1400,-0.030,-0.040
1401,-0.030,-0.040
1402,-0.030,-0.040
1403,-0.030,-0.040
1404,-0.050,-0.035
1405,-0.035,-0.030
1406,-0.030,-0.015
1407,-0.025,-0.010
1408,-0.025,-0.010
1409,-0.020,-0.010
1410,-0.015,-0.005
1411,-0.015,0.000
1412,-0.010,0.000
1413,-0.010,0.000
1414,-0.005,0.005
1415,-0.010,0.010
1416,0.000,0.010
1417,0.000,0.010
1418,0.000,0.015
1419,0.000,0.020
1420,0.000,0.025
1421,0.000,0.020
1422,0.000,0.030
1423,0.005,0.130
1424,0.120,0.340
1425,0.360,0.540
1426,0.560,0.545
1427,0.505,0.360
1428,0.250,0.150
1429,0.055,0.035
1430,-0.025,-0.010
1431,-0.060,-0.045
1432,-0.070,-0.065
1433,-0.070,-0.070
1434,-0.070,-0.070
1435,-0.070,-0.075
1436,-0.070,-0.075
1437,-0.065,-0.075
1438,-0.065,-0.075
1439,-0.070,-0.080
1440,-0.065,-0.080
1441,-0.075,-0.080
1442,-0.070,-0.080
1443,-0.075,-0.080
1444,-0.070,-0.080
1445,-0.075,-0.080
1446,-0.070,-0.085
1447,-0.075,-0.085
1448,-0.070,-0.085
1449,-0.070,-0.085
1450,-0.070,-0.090
1451,-0.075,-0.090
1452,-0.070,-0.095
1453,-0.075,-0.100
1454,-0.075,-0.105
1455,-0.080,-0.110
1456,-0.080,-0.115
1457,-0.080,-0.115
1458,-0.080,-0.110
1459,-0.070,-0.105
1460,-0.070,-0.095
1461,-0.055,-0.075
1462,-0.055,-0.060
1463,-0.040,-0.045
1464,-0.030,-0.030
1465,-0.020,-0.015
1466,-0.015,0.000
1467,-0.005,0.005
1468,0.000,0.010
1469,0.000,0.015
1470,0.000,0.020
1471,0.005,0.025
1472,0.005,0.025
1473,0.000,0.025
1474,0.000,0.030
1475,0.000,0.030
1476,0.000,0.030
1477,0.000,0.030
1478,0.000,0.030
1479,0.000,0.030
1480,0.005,0.030
1481,0.005,0.030
1482,0.005,0.030
1483,0.005,0.025
1484,0.005,0.025
1485,0.005,0.030
1486,0.005,0.025
1487,0.000,0.025
1488,0.000,0.020
1489,0.000,0.020
1490,0.000,0.020
1491,0.000,0.020
1492,0.000,0.025
1493,0.000,0.025
1494,0.000,0.025
1495,0.000,0.025
1496,0.000,0.025
1497,0.000,0.025
1498,0.000,0.025
1499,0.000,0.020
1500,0.000,0.020
1501,0.000,0.020
1502,0.000,0.020
1503,0.000,0.020
1504,0.000,0.020
1505,0.000,0.020
1506,0.000,0.020
1507,0.000,0.020
1508,0.000,0.020
1509,0.000,0.020
1510,0.000,0.020
1511,0.000,0.020
1512,0.000,0.020
1513,0.000,0.015
1514,0.000,0.015
1515,0.000,0.015
1516,0.000,0.015
1517,0.000,0.015
1518,0.000,0.015
1519,0.000,0.015
1520,0.000,0.015
1521,0.005,0.020
1522,0.005,0.025
1523,0.010,0.025
1524,0.000,0.025
1525,0.010,0.025
1526,0.010,0.025
1527,0.010,0.020
1528,0.000,0.010
1529,0.000,0.005
1530,-0.010,0.000
1531,-0.010,0.000
1532,-0.010,0.000
1533,-0.010,0.000
1534,-0.005,0.005
1535,0.000,0.015
1536,0.000,0.060
1537,0.030,0.185
1538,0.160,0.365
1539,0.410,0.435
1540,0.490,0.295
1541,0.360,0.050
1542,0.125,-0.115
1543,-0.045,-0.145
1544,-0.075,-0.095
1545,-0.080,-0.045
1546,-0.060,-0.030
1547,-0.055,-0.025
1548,-0.045,-0.025
1549,-0.050,-0.025
1550,-0.040,-0.025
1551,-0.050,-0.030
1552,-0.050,-0.030
1553,-0.050,-0.030
1554,-0.045,-0.030
1555,-0.050,-0.035
1556,-0.050,-0.035
1557,-0.050,-0.035
1558,-0.050,-0.035
1559,-0.050,-0.035
1560,-0.050,-0.030
1561,-0.045,-0.030
1562,-0.045,-0.025
1563,-0.040,-0.020
1564,-0.035,-0.020
1565,-0.035,-0.015
1566,-0.030,-0.015
1567,-0.030,-0.010
1568,-0.025,-0.010
1569,-0.030,-0.005
1570,-0.020,-0.005
1571,-0.020,-0.005
1572,-0.015,-0.005
1573,-0.020,-0.005
1574,-0.010,-0.005
1575,-0.005,-0.005
1576,0.000,-0.005
1577,-0.015,-0.010
1578,-0.010,-0.010
1579,-0.015,-0.010
1580,-0.025,-0.010
1581,-0.030,-0.015
1582,-0.020,-0.005
1583,-0.020,0.000
1584,-0.015,0.000
1585,-0.010,0.000
1586,-0.010,0.000
1587,-0.010,0.005
1588,0.000,0.010
1589,0.000,0.010
1590,-0.005,0.010
1591,0.000,0.010
1592,0.000,0.010
1593,0.000,0.010
1594,0.000,0.015
1595,0.000,0.015
1596,0.000,0.020
1597,0.000,0.025
1598,0.000,0.025
1599,0.010,0.035
1600,0.025,0.100
1601,0.085,0.275
1602,0.250,0.530
1603,0.485,0.675
1604,0.540,0.575
1605,0.305,0.315
1606,0.075,0.095
1607,-0.040,-0.005
1608,-0.055,-0.045
1609,-0.055,-0.060
1610,-0.045,-0.065
1611,-0.050,-0.065
1612,-0.050,-0.065
1613,-0.050,-0.065
1614,-0.050,-0.070
1615,-0.050,-0.070
1616,-0.050,-0.075
1617,-0.050,-0.075
1618,-0.050,-0.080
1619,-0.050,-0.080
1620,-0.055,-0.080
1621,-0.045,-0.080
1622,-0.055,-0.080
1623,-0.045,-0.080
1624,-0.055,-0.085
1625,-0.040,-0.080
1626,-0.050,-0.080
1627,-0.040,-0.080
1628,-0.050,-0.085
1629,-0.045,-0.090
1630,-0.050,-0.090
1631,-0.045,-0.095
1632,-0.050,-0.095
1633,-0.045,-0.095
1634,-0.045,-0.095
1635,-0.045,-0.090
1636,-0.045,-0.085
1637,-0.040,-0.075
1638,-0.035,-0.065
1639,-0.025,-0.050
1640,-0.015,-0.035
1641,-0.015,-0.015
1642,-0.005,0.000
1643,0.000,0.000
1644,0.000,0.005
1645,0.000,0.015
1646,0.000,0.020
1647,0.000,0.025
1648,0.000,0.025
1649,0.000,0.025
1650,0.000,0.025
1651,0.000,0.030
1652,0.000,0.030
1653,0.005,0.030
1654,0.000,0.030
1655,0.000,0.030
1656,0.000,0.030
1657,0.000,0.025
1658,0.000,0.025
1659,0.000,0.025
1660,0.000,0.025
1661,0.000,0.025
1662,0.000,0.025
1663,0.000,0.025
1664,0.000,0.025
1665,0.000,0.025
1666,0.000,0.025
1667,0.000,0.025
1668,0.000,0.025
1669,0.000,0.025
1670,0.000,0.025
1671,0.000,0.025
1672,0.000,0.025
1673,0.000,0.025
1674,0.000,0.025
1675,0.000,0.025
1676,0.000,0.020
1677,0.000,0.020
1678,0.000,0.020
1679,0.000,0.020
1680,0.000,0.020
1681,0.000,0.020
1682,0.000,0.020
1683,0.000,0.015
1684,0.000,0.015
1685,0.000,0.015
1686,0.000,0.015
1687,0.000,0.020
1688,0.000,0.020
1689,0.000,0.020
1690,0.000,0.015
1691,0.000,0.010
1692,0.000,0.010
1693,0.000,0.010
1694,0.000,0.015
1695,0.000,0.015
1696,0.000,0.015
1697,0.000,0.015
1698,0.000,0.015
1699,0.000,0.015
1700,0.000,0.015
1701,0.000,0.015
1702,0.005,0.020
1703,0.000,0.020
1704,0.005,0.020
1705,0.000,0.020
1706,0.010,0.025
1707,0.010,0.025
1708,0.010,0.020
1709,0.000,0.015
1710,0.000,0.010
1711,0.000,0.005
1712,0.000,0.005
1713,0.000,0.005
1714,0.000,0.005
1715,0.000,0.005
1716,0.000,0.015
1717,0.005,0.065
1718,0.020,0.215
1719,0.185,0.435
1720,0.460,0.570
1721,0.595,0.465
1722,0.450,0.210
1723,0.170,0.010
1724,-0.020,-0.055
1725,-0.070,-0.060
1726,-0.070,-0.050
1727,-0.055,-0.040
1728,-0.050,-0.035
1729,-0.050,-0.035
1730,-0.045,-0.040
1731,-0.050,-0.040
1732,-0.050,-0.040
1733,-0.050,-0.050
1734,-0.050,-0.050
1735,-0.055,-0.050
1736,-0.055,-0.050
1737,-0.055,-0.050
1738,-0.045,-0.045
1739,-0.050,-0.045
1740,-0.050,-0.045
1741,-0.050,-0.045
1742,-0.055,-0.045
1743,-0.050,-0.040
1744,-0.045,-0.035
1745,-0.045,-0.035
1746,-0.050,-0.035
1747,-0.045,-0.030
1748,-0.040,-0.030
1749,-0.040,-0.030
1750,-0.045,-0.030
1751,-0.035,-0.030
1752,-0.040,-0.035
1753,-0.030,-0.035
1754,-0.035,-0.035
1755,-0.025,-0.035
1756,-0.025,-0.035
1757,-0.010,-0.035
1758,-0.020,-0.035
1759,-0.020,-0.035
1760,-0.030,-0.040
1761,-0.030,-0.040
1762,-0.040,-0.035
1763,-0.040,-0.035
1764,-0.040,-0.030
1765,-0.030,-0.020
1766,-0.030,-0.015
1767,-0.020,-0.010
1768,-0.020,-0.005
1769,-0.020,0.000
1770,-0.010,0.000
1771,-0.010,0.000
1772,-0.005,0.000
1773,0.000,0.005
1774,-0.005,0.010
1775,0.000,0.015
1776,0.000,0.020
1777,0.000,0.025
1778,0.000,0.030
1779,0.005,0.025
1780,0.000,0.030
1781,0.015,0.080
1782,0.045,0.225
1783,0.200,0.460
1784,0.445,0.635
1785,0.600,0.560
1786,0.370,0.300
1787,0.110,0.090
1788,-0.010,0.005
1789,-0.045,-0.030
1790,-0.065,-0.055
1791,-0.065,-0.065
1792,-0.065,-0.065
1793,-0.065,-0.065
1794,-0.065,-0.070
1795,-0.065,-0.070
1796,-0.065,-0.070
1797,-0.065,-0.075
1798,-0.060,-0.075
1799,-0.065,-0.080
1800,-0.060,-0.080
1801,-0.065,-0.080
1802,-0.060,-0.080
1803,-0.065,-0.080
1804,-0.055,-0.080
1805,-0.065,-0.080
1806,-0.055,-0.080
1807,-0.060,-0.080
1808,-0.060,-0.085
1809,-0.060,-0.085
1810,-0.060,-0.090
1811,-0.060,-0.095
1812,-0.060,-0.100
1813,-0.060,-0.100
1814,-0.065,-0.105
1815,-0.065,-0.100
1816,-0.060,-0.100
1817,-0.055,-0.095
1818,-0.050,-0.085
1819,-0.045,-0.075
1820,-0.035,-0.060
1821,-0.030,-0.045
1822,-0.020,-0.030
1823,-0.015,-0.015
1824,-0.005,0.000
1825,0.000,0.000
1826,0.000,0.010
1827,0.000,0.020
1828,0.000,0.025
1829,0.000,0.030
1830,0.005,0.035
1831,0.000,0.035
1832,0.005,0.035
1833,0.000,0.035
1834,0.005,0.040
1835,0.000,0.040
1836,0.005,0.040
1837,0.005,0.045
1838,0.010,0.040
1839,0.005,0.040
1840,0.005,0.040
1841,0.010,0.040
1842,0.010,0.040
1843,0.010,0.035
1844,0.010,0.035
1845,0.010,0.035
1846,0.010,0.035
1847,0.010,0.030
1848,0.005,0.030
1849,0.005,0.030
1850,0.005,0.030
1851,0.005,0.030
1852,0.000,0.030
1853,0.005,0.030
1854,0.000,0.030
1855,0.005,0.030
1856,0.005,0.030
1857,0.000,0.030
1858,0.005,0.030
1859,0.000,0.030
1860,0.005,0.030
1861,0.000,0.025
1862,0.005,0.025
1863,0.000,0.030
1864,0.005,0.025
1865,0.000,0.025
1866,0.005,0.025
1867,0.005,0.025
1868,0.005,0.030
1869,0.005,0.025
1870,0.005,0.025
1871,0.000,0.025
1872,0.000,0.025
1873,0.000,0.025
1874,0.000,0.025
1875,0.000,0.025
1876,0.000,0.025
1877,0.000,0.025
1878,0.000,0.025
1879,0.000,0.025
1880,0.000,0.025
1881,0.000,0.025
1882,0.000,0.025
1883,0.005,0.030
1884,0.010,0.030
1885,0.025,0.035
1886,0.010,0.030
1887,0.015,0.025
1888,0.005,0.025
1889,0.010,0.030
1890,0.010,0.025
1891,0.005,0.020
1892,0.000,0.010
1893,0.000,0.010
1894,0.000,0.005
1895,0.000,0.005
1896,0.000,0.005
1897,0.000,0.010
1898,0.005,0.025
1899,0.015,0.075
1900,0.045,0.190
1901,0.175,0.360
1902,0.405,0.450
1903,0.515,0.345
1904,0.390,0.120
1905,0.145,-0.045
1906,-0.040,-0.095
1907,-0.080,-0.065
1908,-0.070,-0.040
1909,-0.055,-0.035
1910,-0.060,-0.035
1911,-0.045,-0.035
1912,-0.055,-0.035
1913,-0.045,-0.035
1914,-0.050,-0.035
1915,-0.045,-0.035
1916,-0.050,-0.040
1917,-0.050,-0.040
1918,-0.055,-0.045
1919,-0.055,-0.045
1920,-0.055,-0.045
1921,-0.055,-0.045
1922,-0.055,-0.045
1923,-0.055,-0.045
1924,-0.050,-0.040
1925,-0.050,-0.040
1926,-0.045,-0.040
1927,-0.045,-0.035
1928,-0.040,-0.035
1929,-0.040,-0.035
1930,-0.030,-0.035
1931,-0.035,-0.030
1932,-0.025,-0.025
1933,-0.035,-0.025
1934,-0.025,-0.025
1935,-0.030,-0.030
1936,-0.025,-0.035
1937,-0.025,-0.035
1938,-0.015,-0.035
1939,-0.015,-0.035
1940,-0.015,-0.035
1941,-0.020,-0.030
1942,-0.025,-0.030
1943,-0.030,-0.035
1944,-0.035,-0.030
1945,-0.025,-0.025
1946,-0.020,-0.015
1947,-0.020,-0.010
1948,-0.015,0.000
1949,-0.010,0.000
1950,-0.010,0.005
1951,-0.005,0.005
1952,0.000,0.010
1953,0.000,0.010
1954,0.000,0.010
1955,0.000,0.015
1956,0.000,0.015
1957,0.000,0.015
1958,0.000,0.020
1959,0.000,0.025
1960,0.000,0.025
1961,0.000,0.025
1962,0.000,0.025
1963,0.000,0.025
1964,0.020,0.030
1965,0.015,0.090
1966,0.070,0.285
1967,0.260,0.565
1968,0.570,0.690
1969,0.575,0.530
1970,0.310,0.255
1971,0.050,0.065
1972,-0.035,-0.005
1973,-0.055,-0.040
1974,-0.055,-0.055
1975,-0.055,-0.060
1976,-0.055,-0.060
1977,-0.050,-0.060
1978,-0.055,-0.065
1979,-0.050,-0.070
1980,-0.055,-0.065
1981,-0.050,-0.065
1982,-0.055,-0.065
1983,-0.055,-0.065
1984,-0.060,-0.070
1985,-0.060,-0.075
1986,-0.060,-0.070
1987,-0.055,-0.065
1988,-0.050,-0.065
1989,-0.055,-0.070
1990,-0.045,-0.070
1991,-0.050,-0.070
1992,-0.045,-0.065
1993,-0.050,-0.065
1994,-0.045,-0.070
1995,-0.045,-0.070
1996,-0.045,-0.070
1997,-0.045,-0.075
1998,-0.040,-0.080
1999,-0.045,-0.075
2000,-0.040,-0.070
2001,-0.035,-0.060
2002,-0.030,-0.050
2003,-0.030,-0.045
2004,-0.030,-0.040
2005,-0.025,-0.030
2006,-0.025,-0.020
2007,-0.010,-0.010
2008,-0.010,0.000
2009,0.000,0.005
2010,-0.005,0.010
2011,0.000,0.010
2012,-0.005,0.010
2013,0.000,0.015
2014,0.000,0.015
2015,0.000,0.020
2016,0.000,0.020
2017,0.000,0.020
2018,0.000,0.020
2019,0.000,0.020
2020,0.000,0.020
2021,0.000,0.015
2022,0.000,0.015
2023,0.000,0.015
2024,0.000,0.015
2025,0.000,0.010
2026,0.000,0.010
2027,0.000,0.015
2028,0.000,0.010
2029,0.000,0.010
2030,0.000,0.010
2031,0.000,0.010
2032,0.000,0.010
2033,0.000,0.010
2034,-0.005,0.010
2035,0.000,0.010
2036,-0.005,0.010
2037,0.000,0.010
2038,-0.005,0.010
2039,0.000,0.010
2040,0.000,0.010
2041,0.000,0.010
2042,0.000,0.010
2043,0.000,0.010
2044,0.000,0.010
2045,0.000,0.010
2046,0.000,0.010
2047,0.000,0.010
2048,0.000,0.010
2049,0.000,0.010
2050,0.000,0.010
2051,0.000,0.010
2052,0.000,0.010
2053,0.000,0.010
2054,0.000,0.010
2055,0.000,0.010
2056,0.000,0.010
2057,0.000,0.010
2058,0.000,0.010
2059,0.000,0.010
2060,0.000,0.010
2061,0.000,0.010
2062,0.000,0.010
2063,0.000,0.010
2064,0.000,0.010
2065,0.000,0.010
2066,0.000,0.015
2067,0.000,0.015
2068,0.000,0.015
2069,0.000,0.015
2070,0.000,0.020
2071,0.000,0.020
2072,0.000,0.020
2073,0.005,0.020
2074,0.000,0.015
2075,0.000,0.010
2076,0.000,0.000
2077,-0.010,0.000
2078,-0.010,0.000
2079,-0.005,0.000
2080,-0.005,0.000
2081,-0.005,0.005
2082,0.000,0.015
2083,0.000,0.045
2084,0.030,0.135
2085,0.090,0.300
2086,0.335,0.460
2087,0.525,0.415
2088,0.470,0.185
2089,0.195,-0.030
2090,-0.025,-0.105
2091,-0.090,-0.075
2092,-0.070,-0.050
2093,-0.070,-0.040
2094,-0.050,-0.035
2095,-0.055,-0.035
2096,-0.045,-0.035
2097,-0.050,-0.035
2098,-0.045,-0.035
2099,-0.045,-0.035
2100,-0.050,-0.035
2101,-0.050,-0.035
2102,-0.050,-0.040
2103,-0.050,-0.040
2104,-0.050,-0.040
2105,-0.050,-0.040
2106,-0.050,-0.045
2107,-0.045,-0.045
2108,-0.050,-0.040
2109,-0.045,-0.040
2110,-0.045,-0.035
2111,-0.040,-0.035
2112,-0.045,-0.035
2113,-0.040,-0.035
2114,-0.035,-0.035
2115,-0.035,-0.035
2116,-0.030,-0.035
2117,-0.035,-0.035
2118,-0.035,-0.040
2119,-0.040,-0.035
2120,-0.035,-0.035
2121,-0.040,-0.035
2122,-0.035,-0.035
2123,-0.035,-0.040
2124,-0.035,-0.040
2125,-0.035,-0.035
2126,-0.035,-0.030
2127,-0.030,-0.025
2128,-0.025,-0.015
2129,-0.025,-0.015
2130,-0.025,-0.015
2131,-0.025,-0.015
2132,-0.025,-0.010
2133,-0.020,0.000
2134,-0.020,0.000
2135,-0.010,0.000
2136,-0.020,0.000
2137,-0.010,0.000
2138,-0.020,0.005
2139,-0.010,0.005
2140,-0.015,0.010
2141,0.000,0.010
2142,-0.005,0.015
2143,0.000,0.015
2144,0.000,0.015
2145,0.000,0.020
2146,0.000,0.020
2147,0.000,0.025
2148,0.000,0.025
2149,0.000,0.025
2150,0.000,0.025
2151,0.000,0.025
2152,0.000,0.025
2153,0.000,0.025
2154,0.000,0.020
2155,0.000,0.020
2156,0.000,0.020
2157,0.000,0.025
2158,0.000,0.025
2159,0.000,0.020
2160,-0.005,0.015
2161,0.000,0.015
2162,0.000,0.020
2163,0.000,0.020
2164,0.000,0.020
2165,0.000,0.020
2166,-0.005,0.015
2167,0.000,0.010
2168,0.000,0.010
2169,0.000,0.015
2170,-0.005,0.015
2171,0.000,0.015
2172,0.000,0.010
2173,0.000,0.010
2174,-0.005,0.015
2175,0.000,0.010
2176,-0.010,0.010
2177,0.000,0.010
2178,0.000,0.010
2179,0.000,0.010
2180,0.000,0.015
2181,0.000,0.020
2182,0.000,0.020
2183,0.000,0.010
2184,0.000,0.010
2185,0.000,0.020
2186,0.000,0.025
2187,0.000,0.010
2188,0.000,0.000
2189,-0.015,0.000
2190,-0.020,0.000
2191,-0.020,0.005
2192,-0.015,0.000
2193,-0.020,0.000
2194,-0.010,0.005
2195,0.000,0.045
2196,0.010,0.165
2197,0.125,0.375
2198,0.390,0.545
2199,0.580,0.495
2200,0.485,0.250
2201,0.205,0.020
2202,-0.020,-0.075
2203,-0.090,-0.080
2204,-0.085,-0.070
2205,-0.080,-0.065
2206,-0.075,-0.060
2207,-0.070,-0.060
2208,-0.070,-0.060
2209,-0.065,-0.060
2210,-0.065,-0.060
2211,-0.070,-0.065
2212,-0.065,-0.060
2213,-0.070,-0.060
2214,-0.065,-0.065
2215,-0.070,-0.065
2216,-0.065,-0.060
2217,-0.070,-0.060
2218,-0.065,-0.055
2219,-0.070,-0.055
2220,-0.065,-0.055
2221,-0.065,-0.050
2222,-0.055,-0.040
2223,-0.065,-0.040
2224,-0.055,-0.040
2225,-0.060,-0.045
2226,-0.055,-0.045
2227,-0.060,-0.045
2228,-0.055,-0.050
2229,-0.055,-0.055
2230,-0.055,-0.055
2231,-0.060,-0.055
2232,-0.065,-0.060
2233,-0.060,-0.065
2234,-0.060,-0.070
2235,-0.055,-0.070
2236,-0.060,-0.070
2237,-0.055,-0.065
2238,-0.055,-0.060
2239,-0.045,-0.055
2240,-0.045,-0.050
2241,-0.040,-0.040
2242,-0.035,-0.030
2243,-0.035,-0.020
2244,-0.025,-0.010
2245,-0.025,0.000
2246,-0.020,0.000
2247,-0.020,0.000
2248,-0.010,0.005
2249,-0.010,0.005
2250,-0.010,0.010
2251,-0.005,0.010
2252,0.000,0.015
2253,0.000,0.020
2254,0.000,0.020
2255,0.000,0.025
2256,0.000,0.025
2257,0.000,0.025
2258,0.000,0.025
2259,0.000,0.025
2260,0.000,0.025
2261,0.000,0.025
2262,0.000,0.025
2263,0.000,0.025
2264,0.000,0.025
2265,0.000,0.020
2266,0.000,0.020
2267,0.000,0.020
2268,0.000,0.020
2269,0.000,0.020
2270,0.000,0.020
2271,0.000,0.020
2272,0.000,0.020
2273,0.000,0.020
2274,0.000,0.020
2275,0.000,0.020
2276,0.000,0.020
2277,0.000,0.015
2278,0.000,0.015
2279,0.000,0.020
2280,0.000,0.020
2281,0.000,0.020
2282,0.000,0.020
2283,0.000,0.020
2284,0.000,0.020
2285,0.000,0.025
2286,0.000,0.025
2287,0.000,0.025
2288,0.005,0.030
2289,0.005,0.025
2290,0.000,0.025
2291,0.005,0.025
2292,0.005,0.030
2293,0.010,0.030
2294,0.000,0.025
2295,0.005,0.020
2296,0.000,0.010
2297,-0.005,0.010
2298,-0.010,0.010
2299,0.000,0.010
2300,-0.010,0.010
2301,0.000,0.025
2302,0.005,0.070
2303,0.030,0.195
2304,0.170,0.405
2305,0.455,0.500
2306,0.540,0.355
2307,0.380,0.090
2308,0.090,-0.070
2309,-0.065,-0.085
2310,-0.075,-0.055
2311,-0.075,-0.030
2312,-0.050,-0.020
2313,-0.050,-0.015
2314,-0.045,-0.015
2315,-0.050,-0.015
2316,-0.040,-0.015
2317,-0.045,-0.015
2318,-0.040,-0.020
2319,-0.045,-0.020
2320,-0.045,-0.025
2321,-0.045,-0.025
2322,-0.045,-0.030
2323,-0.045,-0.030
2324,-0.045,-0.025
2325,-0.045,-0.025
2326,-0.045,-0.020
2327,-0.040,-0.020
2328,-0.040,-0.020
2329,-0.035,-0.020
2330,-0.035,-0.015
2331,-0.030,-0.015
2332,-0.030,-0.010
2333,-0.020,0.000
2334,-0.010,0.000
2335,-0.010,0.000
2336,-0.010,0.000
2337,-0.010,-0.005
2338,-0.010,-0.005
2339,-0.015,-0.015
2340,-0.010,-0.015
2341,-0.015,-0.015
2342,-0.010,-0.015
2343,-0.015,-0.015
2344,-0.010,-0.010
2345,-0.015,0.000
2346,0.000,0.000
2347,-0.005,0.000
2348,0.000,0.000
2349,0.000,0.005
2350,0.000,0.010
2351,0.000,0.015
2352,0.000,0.020
2353,0.000,0.025
2354,0.000,0.030
2355,0.005,0.030
2356,0.005,0.035
2357,0.005,0.035
2358,0.005,0.035
2359,0.005,0.035
2360,0.000,0.040
2361,0.000,0.040
2362,0.005,0.040
2363,0.005,0.045
2364,0.005,0.045
2365,0.010,0.045
2366,0.005,0.045
2367,0.010,0.050
2368,0.010,0.045
2369,0.010,0.045
2370,0.015,0.045
2371,0.015,0.040
2372,0.015,0.040
2373,0.010,0.040
2374,0.010,0.040
2375,0.005,0.035
2376,0.010,0.030
2377,0.005,0.030
2378,0.010,0.030
2379,0.005,0.030
2380,0.005,0.030
2381,0.005,0.030
2382,0.005,0.030
2383,0.005,0.030
2384,0.005,0.030
2385,0.005,0.030
2386,0.005,0.025
2387,0.000,0.025
2388,0.000,0.025
2389,0.000,0.030
2390,0.000,0.030
2391,0.000,0.030
2392,0.005,0.030
2393,0.020,0.035
2394,0.005,0.030
2395,0.010,0.030
2396,0.010,0.030
2397,0.015,0.035
2398,0.005,0.035
2399,0.005,0.025
2400,0.000,0.015
2401,0.000,0.010
2402,-0.005,0.010
2403,0.000,0.010
2404,0.000,0.015
2405,0.000,0.020
2406,0.000,0.045
2407,0.005,0.135
2408,0.095,0.320
2409,0.330,0.505
2410,0.545,0.510
2411,0.525,0.300
2412,0.275,0.060
2413,0.020,-0.060
2414,-0.070,-0.065
2415,-0.065,-0.045
2416,-0.055,-0.035
2417,-0.045,-0.030
2418,-0.045,-0.030
2419,-0.040,-0.030
2420,-0.040,-0.030
2421,-0.040,-0.030
2422,-0.045,-0.030
2423,-0.040,-0.035
2424,-0.045,-0.035
2425,-0.040,-0.035
2426,-0.045,-0.035
2427,-0.040,-0.035
2428,-0.045,-0.035
2429,-0.045,-0.035
2430,-0.045,-0.035
2431,-0.045,-0.035
2432,-0.045,-0.035
2433,-0.040,-0.035
2434,-0.040,-0.035
2435,-0.040,-0.030
2436,-0.040,-0.030
2437,-0.040,-0.030
2438,-0.035,-0.035
2439,-0.040,-0.040
2440,-0.040,-0.040
2441,-0.045,-0.040
2442,-0.045,-0.040
2443,-0.045,-0.045
2444,-0.045,-0.050
2445,-0.050,-0.055
2446,-0.040,-0.055
2447,-0.045,-0.060
2448,-0.045,-0.055
2449,-0.040,-0.045
2450,-0.035,-0.040
2451,-0.035,-0.030
2452,-0.025,-0.020
2453,-0.025,-0.010
2454,-0.020,-0.005
2455,-0.010,0.000
2456,-0.010,0.000
2457,-0.005,0.005
2458,-0.005,0.010
2459,0.000,0.015
2460,0.000,0.020
2461,0.000,0.025
2462,0.000,0.025
2463,0.000,0.025
2464,0.000,0.030
2465,0.000,0.035
2466,0.000,0.035
2467,0.000,0.040
2468,0.000,0.045
2469,0.000,0.040
2470,0.000,0.040
2471,0.000,0.040
2472,0.005,0.040
2473,0.000,0.040
2474,0.005,0.035
2475,0.000,0.030
2476,0.000,0.030
2477,0.000,0.030
2478,0.000,0.030
2479,0.000,0.030
2480,0.000,0.030
2481,0.000,0.025
2482,0.000,0.025
2483,0.000,0.025
2484,0.000,0.025
2485,0.000,0.025
2486,0.000,0.025
2487,0.000,0.025
2488,0.000,0.025
2489,0.000,0.020
2490,0.000,0.020
2491,0.000,0.020
2492,0.000,0.020
2493,0.000,0.015
2494,0.000,0.015
2495,0.000,0.015
2496,0.000,0.020
2497,0.000,0.025
2498,0.000,0.025
2499,0.000,0.025
2500,0.005,0.025
2501,0.000,0.025
2502,0.005,0.030
2503,0.000,0.025
2504,0.000,0.020
2505,0.000,0.010
2506,-0.005,0.005
2507,-0.015,0.005
2508,-0.010,0.010
2509,-0.010,0.010
2510,-0.005,0.010
2511,0.000,0.030
2512,0.010,0.100
2513,0.055,0.260
2514,0.275,0.445
2515,0.520,0.465
2516,0.515,0.265
2517,0.285,0.010
2518,0.000,-0.100
2519,-0.090,-0.085
2520,-0.085,-0.050
2521,-0.065,-0.040
2522,-0.060,-0.035
2523,-0.045,-0.035
2524,-0.050,-0.030
2525,-0.040,-0.030
2526,-0.050,-0.030
2527,-0.045,-0.030
2528,-0.055,-0.035
2529,-0.045,-0.040
2530,-0.055,-0.040
2531,-0.050,-0.040
2532,-0.055,-0.040
2533,-0.050,-0.040
2534,-0.045,-0.040
2535,-0.045,-0.040
2536,-0.050,-0.035
2537,-0.050,-0.035
2538,-0.045,-0.030
2539,-0.040,-0.025
2540,-0.040,-0.020
2541,-0.040,-0.015
2542,-0.035,-0.015
2543,-0.030,-0.020
2544,-0.035,-0.020
2545,-0.030,-0.025
2546,-0.035,-0.030
2547,-0.030,-0.030
2548,-0.035,-0.030
2549,-0.030,-0.030
2550,-0.035,-0.035
2551,-0.030,-0.035
2552,-0.035,-0.030
2553,-0.020,-0.030
2554,-0.030,-0.025
2555,-0.020,-0.015
2556,-0.025,-0.010
2557,-0.010,0.000
2558,-0.010,0.000
2559,0.000,0.005
2560,-0.005,0.010
2561,0.000,0.010
2562,0.000,0.010
2563,0.000,0.015
2564,0.000,0.020
2565,0.000,0.025
2566,0.000,0.025
2567,0.000,0.025
2568,0.000,0.025
2569,0.000,0.025
2570,0.000,0.025
2571,0.000,0.025
2572,0.000,0.025
2573,0.000,0.030
2574,0.000,0.030
2575,0.000,0.035
2576,0.000,0.035
2577,0.000,0.035
2578,0.000,0.030
2579,0.000,0.030
2580,0.005,0.035
2581,0.000,0.035
2582,0.000,0.035
2583,0.000,0.035
2584,0.000,0.030
2585,0.000,0.025
2586,0.000,0.025
2587,0.000,0.025
2588,0.000,0.025
2589,0.000,0.025
2590,0.000,0.025
2591,0.000,0.025
2592,0.000,0.025
2593,0.000,0.020
2594,0.000,0.020
2595,0.000,0.020
2596,0.000,0.020
2597,0.000,0.020
2598,0.000,0.020
2599,0.000,0.025
2600,0.000,0.025
2601,0.000,0.025
2602,0.005,0.020
2603,0.000,0.020
2604,0.005,0.020
2605,0.005,0.025
2606,0.005,0.030
2607,0.000,0.025
2608,0.000,0.020
2609,0.000,0.015
2610,0.000,0.010
2611,-0.005,0.010
2612,-0.005,0.005
2613,-0.010,0.005
2614,-0.010,0.005
2615,0.000,0.030
2616,0.000,0.120
2617,0.070,0.300
2618,0.305,0.500
2619,0.545,0.535
2620,0.555,0.345
2621,0.315,0.100
2622,0.050,-0.045
2623,-0.070,-0.080
2624,-0.090,-0.070
2625,-0.080,-0.060
2626,-0.065,-0.050
2627,-0.060,-0.050
2628,-0.060,-0.050
2629,-0.065,-0.055
2630,-0.060,-0.055
2631,-0.060,-0.055
2632,-0.055,-0.050
2633,-0.065,-0.050
2634,-0.065,-0.050
2635,-0.065,-0.055
2636,-0.065,-0.060
2637,-0.065,-0.060
2638,-0.060,-0.055
2639,-0.065,-0.055
2640,-0.055,-0.055
2641,-0.065,-0.050
2642,-0.060,-0.045
2643,-0.055,-0.045
2644,-0.055,-0.040
2645,-0.055,-0.035
2646,-0.055,-0.035
2647,-0.050,-0.035
2648,-0.050,-0.040
2649,-0.045,-0.040
2650,-0.055,-0.045
2651,-0.050,-0.050
2652,-0.060,-0.055
2653,-0.045,-0.055
2654,-0.060,-0.055
2655,-0.045,-0.060
2656,-0.060,-0.060
2657,-0.050,-0.060
2658,-0.050,-0.050
2659,-0.040,-0.040
2660,-0.040,-0.030
2661,-0.035,-0.020
2662,-0.030,-0.015
2663,-0.025,-0.005
2664,-0.020,0.000
2665,-0.015,0.000
2666,-0.015,0.000
2667,-0.015,0.000
2668,-0.010,0.005
2669,-0.010,0.010
2670,-0.005,0.010
2671,0.000,0.010
2672,-0.005,0.010
2673,0.000,0.015
2674,0.000,0.020
2675,0.000,0.025
2676,0.000,0.025
2677,0.000,0.030
2678,0.000,0.030
2679,0.005,0.025
2680,0.000,0.025
2681,0.000,0.025
2682,0.000,0.025
2683,0.000,0.030
2684,0.000,0.025
2685,0.000,0.025
2686,0.000,0.025
2687,0.000,0.025
2688,0.000,0.025
2689,0.000,0.025
2690,0.000,0.025
2691,0.000,0.025
2692,0.000,0.025
2693,0.000,0.025
2694,0.000,0.025
2695,0.000,0.025
2696,0.000,0.020
2697,0.000,0.020
2698,0.000,0.020
2699,0.000,0.020
2700,0.000,0.020
2701,0.000,0.020
2702,0.000,0.025
2703,0.000,0.025
2704,0.005,0.030
2705,0.005,0.025
2706,0.005,0.025
2707,0.005,0.030
2708,0.010,0.030
2709,0.005,0.030
2710,0.000,0.025
2711,0.000,0.015
2712,0.000,0.010
2713,-0.010,0.010
2714,-0.005,0.010
2715,-0.005,0.010
2716,-0.005,0.020
2717,0.000,0.045
2718,0.020,0.125
2719,0.095,0.280
2720,0.285,0.415
2721,0.475,0.380
2722,0.445,0.175
2723,0.245,-0.040
2724,0.005,-0.145
2725,-0.095,-0.120
2726,-0.075,-0.060
2727,-0.070,-0.030
2728,-0.050,-0.020
2729,-0.050,-0.020
2730,-0.040,-0.025
2731,-0.050,-0.025
2732,-0.040,-0.020
2733,-0.050,-0.015
2734,-0.040,-0.015
2735,-0.050,-0.020
2736,-0.045,-0.020
2737,-0.050,-0.020
2738,-0.045,-0.020
2739,-0.050,-0.025
2740,-0.050,-0.025
2741,-0.050,-0.020
2742,-0.045,-0.020
2743,-0.045,-0.020
2744,-0.045,-0.015
2745,-0.045,-0.015
2746,-0.045,-0.015
2747,-0.035,-0.010
2748,-0.035,-0.010
2749,-0.035,-0.015
2750,-0.035,-0.015
2751,-0.030,-0.015
2752,-0.035,-0.020
2753,-0.035,-0.025
2754,-0.030,-0.025
2755,-0.035,-0.025
2756,-0.030,-0.025
2757,-0.035,-0.025
2758,-0.030,-0.025
2759,-0.030,-0.020
2760,-0.025,-0.015
2761,-0.020,-0.005
2762,-0.010,0.000
2763,-0.015,0.000
2764,0.000,0.005
2765,0.000,0.010
2766,0.000,0.015
2767,0.000,0.020
2768,0.000,0.020
2769,0.000,0.025
2770,0.000,0.025
2771,0.000,0.025
2772,0.000,0.020
2773,0.000,0.020
2774,0.000,0.020
2775,0.000,0.020
2776,0.000,0.020
2777,0.000,0.020
2778,0.000,0.020
2779,0.000,0.020
2780,0.000,0.025
2781,0.000,0.025
2782,0.000,0.025
2783,0.000,0.025
2784,0.000,0.025
2785,0.000,0.025
2786,0.000,0.025
2787,0.000,0.025
2788,0.000,0.025
2789,0.000,0.020
2790,0.000,0.020
2791,0.000,0.025
2792,0.000,0.025
2793,0.000,0.025
2794,0.000,0.025
2795,0.000,0.025
2796,0.000,0.025
2797,0.000,0.025
2798,0.000,0.025
2799,0.000,0.025
2800,0.000,0.025
2801,0.000,0.025
2802,0.000,0.030
2803,0.005,0.030
2804,0.005,0.030
2805,0.000,0.030
2806,0.000,0.030
2807,0.010,0.030
2808,0.005,0.025
2809,0.005,0.020
2810,0.000,0.010
2811,0.000,0.005
2812,-0.020,0.005
2813,-0.010,0.005
2814,-0.010,0.005
2815,-0.005,0.015
2816,0.000,0.040
2817,0.015,0.110
2818,0.060,0.270
2819,0.265,0.430
2820,0.480,0.415
2821,0.460,0.210
2822,0.270,-0.015
2823,0.035,-0.125
2824,-0.080,-0.115
2825,-0.080,-0.065
2826,-0.070,-0.040
2827,-0.060,-0.030
2828,-0.045,-0.030
2829,-0.055,-0.030
2830,-0.045,-0.030
2831,-0.050,-0.030
2832,-0.050,-0.025
2833,-0.050,-0.025
2834,-0.045,-0.025
2835,-0.045,-0.025
2836,-0.045,-0.025
2837,-0.050,-0.030
2838,-0.050,-0.025
2839,-0.050,-0.025
2840,-0.050,-0.025
2841,-0.045,-0.025
2842,-0.045,-0.025
2843,-0.045,-0.020
2844,-0.045,-0.015
2845,-0.040,-0.015
2846,-0.040,-0.015
2847,-0.035,-0.020
2848,-0.035,-0.020
2849,-0.035,-0.020
2850,-0.035,-0.020
2851,-0.035,-0.025
2852,-0.035,-0.030
2853,-0.035,-0.030
2854,-0.030,-0.035
2855,-0.035,-0.035
2856,-0.030,-0.035
2857,-0.035,-0.030
2858,-0.025,-0.025
2859,-0.035,-0.025
2860,-0.020,-0.015
2861,-0.025,-0.005
2862,-0.010,0.000
2863,-0.010,0.000
2864,0.000,0.005
2865,0.000,0.010
2866,0.000,0.015
2867,0.000,0.020
2868,0.000,0.020
2869,0.000,0.020
2870,0.000,0.020
2871,0.000,0.020
2872,0.000,0.020
2873,0.000,0.020
2874,0.000,0.020
2875,0.000,0.020
2876,0.000,0.025
2877,0.000,0.025
2878,0.000,0.025
2879,0.000,0.025
2880,0.000,0.025
2881,0.000,0.025
2882,0.000,0.025
2883,0.000,0.025
2884,0.000,0.025
2885,0.000,0.025
2886,0.000,0.025
2887,0.000,0.025
2888,0.000,0.025
2889,0.000,0.025
2890,0.000,0.020
2891,0.000,0.020
2892,0.000,0.025
2893,0.000,0.020
2894,0.000,0.020
2895,0.000,0.020
2896,0.000,0.020
2897,0.000,0.020
2898,0.000,0.020
2899,0.000,0.020
2900,0.000,0.020
2901,0.000,0.025
2902,0.000,0.025
2903,0.000,0.025
2904,0.005,0.025
2905,0.005,0.025
2906,0.000,0.025
2907,0.005,0.025
2908,0.005,0.025
2909,0.010,0.030
2910,0.000,0.025
2911,0.000,0.020
2912,-0.005,0.010
2913,-0.010,0.005
2914,-0.010,0.005
2915,0.000,0.005
2916,-0.005,0.005
2917,-0.005,0.015
2918,0.000,0.070
2919,0.035,0.195
2920,0.175,0.390
2921,0.420,0.500
2922,0.555,0.410
2923,0.435,0.175
2924,0.175,-0.020
2925,-0.025,-0.085
2926,-0.085,-0.070
2927,-0.075,-0.050
2928,-0.060,-0.045
2929,-0.050,-0.045
2930,-0.055,-0.045
2931,-0.050,-0.040
2932,-0.055,-0.040
2933,-0.045,-0.040
2934,-0.050,-0.040
2935,-0.045,-0.045
2936,-0.060,-0.050
2937,-0.050,-0.045
2938,-0.060,-0.040
2939,-0.045,-0.040
2940,-0.055,-0.035
2941,-0.045,-0.035
2942,-0.050,-0.035
2943,-0.045,-0.035
2944,-0.050,-0.035
2945,-0.040,-0.030
2946,-0.040,-0.020
2947,-0.035,-0.020
2948,-0.035,-0.020
2949,-0.035,-0.020
2950,-0.035,-0.020
2951,-0.035,-0.020
2952,-0.035,-0.020
2953,-0.035,-0.025
2954,-0.025,-0.020
2955,-0.025,-0.020
2956,-0.020,-0.020
2957,-0.030,-0.025
2958,-0.025,-0.030
2959,-0.025,-0.020
2960,-0.015,-0.015
2961,-0.015,-0.005
2962,-0.010,-0.005
2963,-0.010,0.000
2964,-0.005,0.000
2965,-0.005,0.005
2966,-0.005,0.010
2967,0.000,0.010
2968,0.000,0.015
2969,0.000,0.015
2970,0.000,0.015
2971,0.000,0.020
2972,0.000,0.015
2973,0.000,0.015
2974,0.000,0.020
2975,0.000,0.020
2976,0.000,0.015
2977,0.000,0.015
2978,0.000,0.015
2979,0.000,0.015
2980,0.000,0.020
2981,0.000,0.025
2982,0.000,0.025
2983,0.000,0.025
2984,0.000,0.020
2985,0.000,0.020
2986,0.000,0.020
2987,0.000,0.020
2988,0.000,0.020
2989,0.000,0.020
2990,0.000,0.015
2991,0.000,0.015
2992,0.000,0.020
2993,0.000,0.020
2994,0.000,0.015
2995,0.000,0.015
2996,0.000,0.020
2997,0.000,0.015
2998,0.000,0.015
2999,0.000,0.015
3000,0.000,0.015
3001,0.000,0.015
3002,0.000,0.015
3003,0.000,0.015
3004,0.000,0.015
3005,0.000,0.015
3006,0.000,0.015
3007,0.000,0.015
3008,0.000,0.015
3009,0.000,0.020
3010,0.000,0.015
3011,0.000,0.015
3012,0.000,0.015
3013,0.000,0.015
3014,0.005,0.020
3015,0.000,0.020
3016,0.000,0.015
3017,0.000,0.005
3018,-0.005,0.000
3019,-0.020,0.000
3020,-0.010,0.000
3021,-0.015,0.000
3022,-0.005,0.010
3023,0.000,0.030
3024,0.005,0.105
3025,0.050,0.280
3026,0.275,0.470
3027,0.520,0.475
3028,0.510,0.240
3029,0.245,-0.025
3030,-0.020,-0.130
3031,-0.090,-0.100
3032,-0.085,-0.060
3033,-0.065,-0.045
3034,-0.065,-0.035
3035,-0.045,-0.025
3036,-0.055,-0.025
3037,-0.040,-0.025
3038,-0.050,-0.025
3039,-0.040,-0.025
3040,-0.050,-0.030
3041,-0.040,-0.030
3042,-0.050,-0.030
3043,-0.045,-0.030
3044,-0.050,-0.030
3045,-0.050,-0.030
3046,-0.045,-0.030
3047,-0.045,-0.030
3048,-0.045,-0.025
3049,-0.040,-0.025
3050,-0.040,-0.020
3051,-0.040,-0.020
3052,-0.035,-0.020
3053,-0.035,-0.020
3054,-0.035,-0.020
3055,-0.035,-0.020
3056,-0.035,-0.020
3057,-0.035,-0.020
3058,-0.035,-0.030
3059,-0.030,-0.035
3060,-0.035,-0.035
3061,-0.030,-0.040
3062,-0.035,-0.040
3063,-0.030,-0.040
3064,-0.035,-0.040
3065,-0.030,-0.035
3066,-0.035,-0.030
3067,-0.025,-0.020
3068,-0.025,-0.010
3069,-0.010,0.000
3070,-0.010,0.000
3071,0.000,0.005
3072,-0.005,0.010
3073,0.000,0.010
3074,0.000,0.015
3075,0.000,0.020
3076,0.000,0.020
3077,0.000,0.025
3078,0.000,0.025
3079,0.000,0.025
3080,0.000,0.030
3081,0.000,0.030
3082,0.000,0.035
3083,0.000,0.035
3084,0.000,0.035
3085,0.005,0.040
3086,0.005,0.045
3087,0.005,0.045
3088,0.010,0.045
3089,0.005,0.045
3090,0.010,0.045
3091,0.005,0.040
3092,0.005,0.040
3093,0.000,0.035
3094,0.000,0.035
3095,0.005,0.035
3096,0.000,0.030
3097,0.005,0.030
3098,0.000,0.025
3099,0.000,0.025
3100,0.000,0.030
3101,0.000,0.025
3102,0.000,0.025
3103,0.000,0.025
3104,0.000,0.025
3105,0.005,0.025
3106,0.005,0.025
3107,0.005,0.025
3108,0.000,0.025
3109,0.000,0.020
3110,0.000,0.020
3111,0.000,0.020
3112,0.000,0.025
3113,0.000,0.025
3114,0.010,0.025
3115,0.005,0.025
3116,0.005,0.025
3117,0.005,0.025
3118,0.015,0.030
3119,0.000,0.025
3120,0.005,0.020
3121,0.000,0.010
3122,-0.005,0.010
3123,-0.010,0.010
3124,0.000,0.010
3125,-0.010,0.010
3126,0.000,0.020
3127,0.005,0.070
3128,0.035,0.190
3129,0.175,0.365
3130,0.405,0.450
3131,0.510,0.335
3132,0.380,0.105
3133,0.135,-0.065
3134,-0.045,-0.105
3135,-0.085,-0.075
3136,-0.075,-0.050
3137,-0.060,-0.035
3138,-0.050,-0.030
3139,-0.050,-0.030
3140,-0.045,-0.030
3141,-0.045,-0.030
3142,-0.040,-0.030
3143,-0.045,-0.035
3144,-0.040,-0.030
3145,-0.045,-0.030
3146,-0.040,-0.030
3147,-0.045,-0.030
3148,-0.040,-0.030
3149,-0.045,-0.030
3150,-0.045,-0.025
3151,-0.045,-0.025
3152,-0.035,-0.025
3153,-0.040,-0.020
3154,-0.035,-0.015
3155,-0.030,-0.015
3156,-0.030,-0.015
3157,-0.030,-0.015
3158,-0.030,-0.015
3159,-0.025,-0.010
3160,-0.025,-0.010
3161,-0.015,-0.010
3162,-0.015,-0.015
3163,-0.010,-0.015
3164,-0.005,-0.010
3165,0.000,-0.010
3166,-0.015,-0.015
3167,-0.010,-0.020
3168,-0.025,-0.020
3169,-0.025,-0.025
3170,-0.035,-0.025
3171,-0.030,-0.015
3172,-0.025,-0.005
3173,-0.015,0.000
3174,-0.010,0.000
3175,-0.010,0.005
3176,-0.005,0.010
3177,0.000,0.015
3178,0.000,0.020
3179,0.000,0.020
3180,0.000,0.025
3181,0.000,0.025
3182,0.000,0.025
3183,0.000,0.025
3184,0.000,0.025
3185,0.000,0.030
3186,0.005,0.055
3187,0.035,0.140
3188,0.100,0.315
3189,0.290,0.550
3190,0.555,0.665
3191,0.665,0.530
3192,0.435,0.250
3193,0.120,0.045
3194,-0.030,-0.010
3195,-0.055,-0.030
3196,-0.070,-0.045
3197,-0.055,-0.045
3198,-0.060,-0.045
3199,-0.055,-0.045
3200,-0.060,-0.050
3201,-0.050,-0.050
3202,-0.050,-0.050
3203,-0.055,-0.050
3204,-0.060,-0.055
3205,-0.055,-0.055
3206,-0.060,-0.055
3207,-0.055,-0.055
3208,-0.055,-0.050
3209,-0.055,-0.050
3210,-0.055,-0.050
3211,-0.055,-0.045
3212,-0.045,-0.045
3213,-0.045,-0.045
3214,-0.050,-0.040
3215,-0.050,-0.035
3216,-0.045,-0.035
3217,-0.040,-0.035
3218,-0.040,-0.035
3219,-0.045,-0.035
3220,-0.045,-0.035
3221,-0.045,-0.035
3222,-0.040,-0.035
3223,-0.030,-0.035
3224,-0.035,-0.030
3225,-0.030,-0.015
3226,-0.025,-0.005
3227,-0.015,0.000
3228,-0.015,0.000
3229,-0.010,0.010
3230,-0.005,0.010
3231,0.000,0.015
3232,0.000,0.020
3233,0.000,0.025
3234,0.000,0.025
3235,0.000,0.030
3236,0.000,0.030
3237,0.000,0.035
3238,0.000,0.035
3239,0.000,0.030
3240,0.000,0.030
3241,0.000,0.030
3242,0.000,0.030
3243,0.000,0.030
3244,0.000,0.030
3245,0.000,0.030
3246,0.000,0.030
3247,0.000,0.025
3248,0.000,0.025
3249,0.000,0.025
3250,0.000,0.025
3251,0.000,0.020
3252,0.000,0.020
3253,0.000,0.020
3254,0.000,0.020
3255,0.000,0.020
3256,0.000,0.020
3257,0.000,0.020
3258,0.000,0.020
3259,0.000,0.020
3260,0.000,0.020
3261,0.000,0.020
3262,0.000,0.020
3263,0.000,0.020
3264,0.000,0.020
3265,0.000,0.020
3266,0.000,0.020
3267,0.000,0.020
3268,0.000,0.020
3269,0.000,0.020
3270,0.000,0.020
3271,0.000,0.020
3272,0.000,0.020
3273,0.000,0.020
3274,0.000,0.020
3275,0.000,0.025
3276,0.000,0.020
3277,0.000,0.020
3278,0.000,0.020
3279,0.000,0.025
3280,0.000,0.020
3281,0.000,0.020
3282,0.000,0.020
3283,0.000,0.020
3284,0.000,0.020
3285,0.000,0.020
3286,0.000,0.020
3287,0.000,0.020
3288,0.000,0.020
3289,0.000,0.020
3290,0.005,0.025
3291,0.010,0.025
3292,0.005,0.025
3293,0.010,0.025
3294,0.005,0.025
3295,0.010,0.030
3296,0.005,0.025
3297,0.005,0.015
3298,0.000,0.010
3299,0.000,0.010
3300,-0.005,0.010
3301,0.000,0.010
3302,0.000,0.010
3303,0.000,0.010
3304,0.000,0.030
3305,0.015,0.095
3306,0.060,0.235
3307,0.225,0.400
3308,0.450,0.445
3309,0.505,0.300
3310,0.335,0.065
3311,0.075,-0.075
3312,-0.060,-0.095
3313,-0.075,-0.055
3314,-0.060,-0.030
3315,-0.045,-0.025
3316,-0.040,-0.020
3317,-0.035,-0.015
3318,-0.040,-0.015
3319,-0.035,-0.020
3320,-0.040,-0.020
3321,-0.030,-0.025
3322,-0.040,-0.025
3323,-0.040,-0.030
3324,-0.045,-0.030
3325,-0.035,-0.030
3326,-0.045,-0.030
3327,-0.035,-0.025
3328,-0.045,-0.025
3329,-0.030,-0.025
3330,-0.035,-0.025
3331,-0.030,-0.025
3332,-0.030,-0.020
3333,-0.030,-0.015
3334,-0.025,-0.015
3335,-0.020,-0.010
3336,-0.020,-0.010
3337,-0.020,-0.010
3338,-0.015,-0.005
3339,-0.015,-0.005
3340,-0.010,-0.005
3341,-0.010,-0.010
3342,0.000,-0.010
3343,0.000,-0.010
3344,0.000,-0.010
3345,-0.005,-0.010
3346,-0.010,-0.015
3347,-0.010,-0.010
3348,-0.010,-0.010
3349,-0.020,-0.005
3350,-0.020,-0.005
3351,-0.015,0.000
3352,-0.010,0.000
3353,0.000,0.010
3354,-0.005,0.015
3355,0.000,0.015
3356,0.000,0.020
3357,0.000,0.025
3358,0.000,0.025
3359,0.000,0.025
3360,0.000,0.025
3361,0.000,0.025
3362,0.000,0.025
3363,0.000,0.025
3364,0.000,0.025
3365,0.000,0.025
3366,0.000,0.025
3367,0.000,0.030
3368,0.005,0.030
3369,0.005,0.025
3370,0.025,0.025
3371,0.010,0.070
3372,0.070,0.255
3373,0.230,0.535
3374,0.535,0.670
3375,0.495,0.520
3376,0.255,0.250
3377,0.030,0.065
3378,-0.030,-0.005
3379,-0.055,-0.040
3380,-0.035,-0.045
3381,-0.035,-0.050
3382,-0.035,-0.050
3383,-0.035,-0.055
3384,-0.040,-0.055
3385,-0.040,-0.055
3386,-0.035,-0.055
3387,-0.035,-0.060
3388,-0.040,-0.060
3389,-0.035,-0.060
3390,-0.040,-0.065
3391,-0.035,-0.065
3392,-0.035,-0.065
3393,-0.035,-0.065
3394,-0.035,-0.065
3395,-0.035,-0.065
3396,-0.030,-0.065
3397,-0.030,-0.060
3398,-0.025,-0.060
3399,-0.025,-0.060
3400,-0.020,-0.065
3401,-0.025,-0.070
3402,-0.025,-0.075
3403,-0.035,-0.075
3404,-0.025,-0.075
3405,-0.035,-0.070
3406,-0.025,-0.065
3407,-0.025,-0.060
3408,-0.015,-0.050
3409,-0.015,-0.045
3410,-0.015,-0.030
3411,-0.010,-0.020
3412,-0.005,0.000
3413,0.000,0.005
3414,0.000,0.010
3415,0.000,0.020
3416,0.000,0.025
3417,0.000,0.030
3418,0.005,0.035
3419,0.005,0.040
3420,0.005,0.045
3421,0.005,0.045
3422,0.005,0.040
3423,0.005,0.035
3424,0.000,0.030
3425,0.000,0.030
3426,0.000,0.035
3427,0.005,0.035
3428,0.005,0.030
3429,0.005,0.030
3430,0.000,0.030
3431,0.005,0.030
3432,0.005,0.030
3433,0.000,0.030
3434,0.000,0.030
3435,0.000,0.030
3436,0.005,0.025
3437,0.005,0.025
3438,0.000,0.025
3439,0.000,0.025
3440,0.000,0.025
3441,0.005,0.025
3442,0.005,0.025
3443,0.005,0.025
3444,0.005,0.025
3445,0.000,0.020
3446,0.000,0.020
3447,0.000,0.015
3448,0.000,0.015
3449,0.005,0.020
3450,0.000,0.025
3451,0.000,0.020
3452,0.000,0.020
3453,0.000,0.020
3454,0.000,0.020
3455,0.000,0.020
3456,0.000,0.020
3457,0.005,0.020
3458,0.000,0.020
3459,0.000,0.020
3460,0.000,0.015
3461,0.000,0.015
3462,0.000,0.015
3463,0.000,0.015
3464,0.000,0.015
3465,0.000,0.015
3466,0.000,0.015
3467,0.000,0.020
3468,0.000,0.020
3469,0.000,0.020
3470,0.000,0.020
3471,0.005,0.020
3472,0.010,0.020
3473,0.005,0.020
3474,0.010,0.020
3475,0.005,0.025
3476,0.005,0.020
3477,0.000,0.010
3478,0.000,0.005
3479,0.000,0.000
3480,-0.005,0.000
3481,0.000,0.005
3482,-0.005,0.005
3483,0.000,0.010
3484,0.000,0.020
3485,0.005,0.070
3486,0.030,0.205
3487,0.180,0.410
3488,0.445,0.525
3489,0.565,0.400
3490,0.405,0.130
3491,0.105,-0.060
3492,-0.055,-0.095
3493,-0.075,-0.065
3494,-0.070,-0.040
3495,-0.060,-0.035
3496,-0.045,-0.035
3497,-0.050,-0.035
3498,-0.045,-0.035
3499,-0.050,-0.035
3500,-0.040,-0.035
3501,-0.050,-0.035
3502,-0.040,-0.035
3503,-0.050,-0.035
3504,-0.040,-0.035
3505,-0.050,-0.035
3506,-0.045,-0.035
3507,-0.050,-0.035
3508,-0.045,-0.035
3509,-0.045,-0.030
3510,-0.035,-0.030
3511,-0.040,-0.030
3512,-0.035,-0.025
3513,-0.035,-0.025
3514,-0.035,-0.030
3515,-0.035,-0.030
3516,-0.035,-0.025
3517,-0.030,-0.025
3518,-0.030,-0.025
3519,-0.030,-0.025
3520,-0.030,-0.030
3521,-0.030,-0.030
3522,-0.025,-0.035
3523,-0.025,-0.035
3524,-0.015,-0.035
3525,-0.010,-0.035
3526,-0.015,-0.035
3527,-0.025,-0.035
3528,-0.025,-0.035
3529,-0.035,-0.035
3530,-0.030,-0.035
3531,-0.035,-0.025
3532,-0.025,-0.015
3533,-0.025,-0.010
3534,-0.010,0.000
3535,-0.010,0.005
3536,0.000,0.010
3537,0.000,0.015
3538,0.000,0.020
3539,0.000,0.020
3540,0.000,0.020
3541,0.000,0.025
3542,0.000,0.025
3543,0.000,0.025
3544,0.005,0.030
3545,0.005,0.035
3546,0.010,0.040
3547,0.020,0.035
3548,0.010,0.030
3549,0.025,0.100
3550,0.085,0.315
3551,0.295,0.595
3552,0.555,0.715
3553,0.520,0.570
3554,0.280,0.310
3555,0.080,0.115
3556,-0.015,0.015
3557,-0.040,-0.025
3558,-0.040,-0.040
3559,-0.035,-0.045
3560,-0.035,-0.050
3561,-0.035,-0.055
3562,-0.040,-0.055
3563,-0.040,-0.055
3564,-0.040,-0.060
3565,-0.045,-0.060
3566,-0.045,-0.065
3567,-0.045,-0.065
3568,-0.045,-0.070
3569,-0.045,-0.070
3570,-0.040,-0.070
3571,-0.040,-0.070
3572,-0.045,-0.070
3573,-0.040,-0.070
3574,-0.045,-0.075
3575,-0.040,-0.075
3576,-0.045,-0.075
3577,-0.035,-0.080
3578,-0.050,-0.080
3579,-0.040,-0.080
3580,-0.045,-0.085
3581,-0.040,-0.090
3582,-0.050,-0.085
3583,-0.040,-0.080
3584,-0.050,-0.080
3585,-0.030,-0.080
3586,-0.035,-0.075
3587,-0.025,-0.060
3588,-0.025,-0.045
3589,-0.015,-0.025
3590,-0.015,-0.010
3591,-0.005,0.000
3592,0.000,0.010
3593,0.000,0.015
3594,0.000,0.020
3595,0.000,0.025
3596,0.000,0.030
3597,0.000,0.030
3598,0.000,0.030
3599,0.000,0.030
3600,0.000,0.030
3601,0.000,0.030
3602,0.000,0.030
3603,0.000,0.035
3604,0.005,0.035
3605,0.000,0.030
3606,0.000,0.030
3607,0.005,0.030
3608,0.000,0.030
3609,0.005,0.035
3610,0.000,0.030
3611,0.005,0.030
3612,0.000,0.030
3613,0.000,0.030
3614,0.000,0.025
3615,0.000,0.025
3616,0.000,0.025
3617,0.000,0.025
3618,0.000,0.025
3619,0.000,0.025
3620,0.000,0.025
3621,0.000,0.025
3622,0.000,0.025
3623,0.000,0.020
3624,0.000,0.020
3625,0.000,0.020
3626,0.000,0.020
3627,0.000,0.020
3628,0.000,0.020
3629,0.000,0.020
3630,0.000,0.020
3631,0.000,0.020
3632,0.000,0.020
3633,0.000,0.020
3634,0.000,0.020
3635,0.000,0.020
3636,0.000,0.020
3637,0.000,0.020
3638,0.000,0.020
3639,0.000,0.020
3640,0.000,0.020
3641,0.000,0.020
3642,0.000,0.020
3643,0.000,0.020
3644,0.000,0.020
3645,0.005,0.020
3646,0.000,0.020
3647,0.000,0.020
3648,0.000,0.020
3649,0.000,0.020
3650,0.000,0.020
3651,0.000,0.020
3652,0.010,0.025
3653,0.010,0.020
3654,0.005,0.015
3655,0.000,0.015
3656,0.005,0.015
3657,0.000,0.015
3658,0.000,0.010
3659,0.000,0.005
3660,-0.005,0.000
3661,-0.020,0.000
3662,-0.010,0.000
3663,-0.015,0.000
3664,-0.010,0.000
3665,-0.005,0.000
3666,0.000,0.025
3667,0.000,0.090
3668,0.050,0.270
3669,0.285,0.470
3670,0.535,0.475
3671,0.510,0.255
3672,0.240,0.015
3673,-0.005,-0.085
3674,-0.085,-0.080
3675,-0.075,-0.055
3676,-0.070,-0.040
3677,-0.050,-0.035
3678,-0.055,-0.035
3679,-0.045,-0.035
3680,-0.050,-0.035
3681,-0.045,-0.035
3682,-0.055,-0.035
3683,-0.045,-0.040
3684,-0.045,-0.040
3685,-0.045,-0.040
3686,-0.050,-0.040
3687,-0.045,-0.040
3688,-0.045,-0.040
3689,-0.045,-0.040
3690,-0.045,-0.040
3691,-0.045,-0.035
3692,-0.045,-0.035
3693,-0.040,-0.030
3694,-0.035,-0.030
3695,-0.035,-0.030
3696,-0.035,-0.025
3697,-0.035,-0.025
3698,-0.030,-0.025
3699,-0.030,-0.025
3700,-0.030,-0.025
3701,-0.025,-0.025
3702,-0.025,-0.025
3703,-0.020,-0.030
3704,-0.020,-0.025
3705,-0.010,-0.025
3706,-0.005,-0.025
3707,-0.005,-0.035
3708,-0.025,-0.030
3709,-0.015,-0.030
3710,-0.030,-0.030
3711,-0.030,-0.030
3712,-0.040,-0.030
3713,-0.020,-0.020
3714,-0.020,-0.005
3715,-0.015,0.000
3716,-0.015,0.000
3717,-0.010,0.005
3718,-0.010,0.010
3719,0.000,0.015
3720,0.000,0.015
3721,0.000,0.020
3722,0.000,0.020
3723,0.000,0.025
3724,0.000,0.025
3725,0.000,0.025
3726,0.000,0.025
3727,0.000,0.025
3728,0.000,0.030
3729,0.000,0.030
3730,0.005,0.030
3731,0.010,0.060
3732,0.045,0.195
3733,0.180,0.445
3734,0.445,0.655
3735,0.605,0.630
3736,0.455,0.410
3737,0.185,0.175
3738,0.010,0.040
3739,-0.040,-0.015
3740,-0.060,-0.045
3741,-0.055,-0.055
3742,-0.055,-0.055
3743,-0.050,-0.055
3744,-0.055,-0.060
3745,-0.050,-0.060
3746,-0.055,-0.065
3747,-0.055,-0.065
3748,-0.060,-0.070
3749,-0.060,-0.070
3750,-0.055,-0.075
3751,-0.060,-0.075
3752,-0.055,-0.075
3753,-0.060,-0.075
3754,-0.055,-0.075
3755,-0.055,-0.075
3756,-0.050,-0.075
3757,-0.055,-0.070
3758,-0.045,-0.070
3759,-0.055,-0.070
3760,-0.045,-0.075
3761,-0.055,-0.075
3762,-0.045,-0.080
3763,-0.055,-0.085
3764,-0.045,-0.090
3765,-0.055,-0.090
3766,-0.045,-0.085
3767,-0.045,-0.075
3768,-0.040,-0.065
3769,-0.040,-0.055
3770,-0.035,-0.045
3771,-0.030,-0.030
3772,-0.020,-0.015
3773,-0.015,0.000
3774,-0.010,0.000
3775,0.000,0.010
3776,0.000,0.020
3777,0.000,0.025
3778,0.000,0.025
3779,0.000,0.030
3780,0.000,0.035
3781,0.000,0.035
3782,0.000,0.035
3783,0.000,0.035
3784,0.000,0.035
3785,0.000,0.035
3786,0.000,0.035
3787,0.000,0.030
3788,0.000,0.025
3789,0.000,0.025
3790,0.000,0.025
3791,0.000,0.025
3792,0.000,0.025
3793,0.000,0.025
3794,0.000,0.025
3795,0.000,0.025
3796,0.000,0.025
3797,0.000,0.025
3798,0.000,0.025
3799,0.000,0.025
3800,0.000,0.025
3801,0.000,0.020
3802,0.000,0.020
3803,0.000,0.020
3804,0.000,0.020
3805,0.000,0.020
3806,0.000,0.020
3807,0.000,0.020
3808,0.000,0.020
3809,0.000,0.020
3810,0.000,0.020
3811,0.000,0.020
3812,0.000,0.020
3813,0.000,0.020
3814,0.000,0.020
3815,0.000,0.020
3816,0.000,0.020
3817,0.000,0.015
3818,0.000,0.015
3819,0.000,0.015
3820,0.000,0.015
3821,0.000,0.010
3822,0.000,0.010
3823,0.000,0.015
3824,0.000,0.015
3825,0.000,0.015
3826,0.000,0.015
3827,0.000,0.020
3828,0.000,0.015
3829,0.000,0.015
3830,0.000,0.015
3831,0.000,0.020
3832,0.000,0.030
3833,0.015,0.030
3834,0.010,0.035
3835,0.025,0.035
3836,0.015,0.035
3837,0.025,0.035
3838,0.015,0.040
3839,0.025,0.035
3840,0.015,0.035
3841,0.015,0.025
3842,0.000,0.015
3843,0.000,0.010
3844,0.000,0.010
3845,0.000,0.010
3846,0.000,0.010
3847,0.000,0.015
3848,0.005,0.035
3849,0.025,0.090
3850,0.050,0.230
3851,0.230,0.420
3852,0.480,0.495
3853,0.545,0.355
3854,0.375,0.120
3855,0.100,-0.035
3856,-0.045,-0.065
3857,-0.070,-0.040
3858,-0.055,-0.025
3859,-0.050,-0.020
3860,-0.040,-0.015
3861,-0.040,-0.010
3862,-0.035,-0.010
3863,-0.030,-0.015
3864,-0.035,-0.020
3865,-0.030,-0.020
3866,-0.035,-0.025
3867,-0.035,-0.025
3868,-0.040,-0.020
3869,-0.035,-0.015
3870,-0.035,-0.015
3871,-0.030,-0.020
3872,-0.035,-0.025
3873,-0.035,-0.020
3874,-0.035,-0.015
3875,-0.035,-0.010
3876,-0.030,-0.010
3877,-0.025,-0.010
3878,-0.025,-0.010
3879,-0.025,-0.010
3880,-0.020,-0.005
3881,-0.020,0.000
3882,-0.010,0.000
3883,-0.015,0.000
3884,-0.010,0.000
3885,-0.015,0.000
3886,-0.010,-0.005
3887,-0.010,-0.005
3888,0.000,-0.005
3889,0.000,0.000
3890,0.000,0.000
3891,-0.005,0.000
3892,0.000,0.000
3893,-0.015,0.000
3894,-0.020,0.000
3895,-0.020,0.000
3896,-0.010,0.000
3897,-0.010,0.005
3898,-0.005,0.005
3899,-0.005,0.010
3900,-0.005,0.010
3901,-0.005,0.010
3902,0.000,0.015
3903,0.000,0.015
3904,0.000,0.010
3905,0.000,0.010
3906,-0.005,0.010
3907,0.000,0.010
3908,0.000,0.015
3909,0.000,0.015
3910,0.000,0.015
3911,0.000,0.020
3912,0.000,0.025
3913,0.000,0.025
3914,0.010,0.035
3915,0.015,0.085
3916,0.060,0.220
3917,0.150,0.455
3918,0.395,0.690
3919,0.575,0.700
3920,0.400,0.430
3921,0.120,0.120
3922,-0.055,-0.030
3923,-0.090,-0.075
3924,-0.055,-0.070
3925,-0.050,-0.070
3926,-0.045,-0.070
3927,-0.050,-0.070
3928,-0.055,-0.075
3929,-0.055,-0.080
3930,-0.055,-0.080
3931,-0.055,-0.080
3932,-0.055,-0.080
3933,-0.055,-0.080
3934,-0.055,-0.085
3935,-0.050,-0.080
3936,-0.055,-0.080
3937,-0.045,-0.080
3938,-0.055,-0.080
3939,-0.045,-0.080
3940,-0.050,-0.080
3941,-0.045,-0.080
3942,-0.045,-0.080
3943,-0.045,-0.080
3944,-0.045,-0.085
3945,-0.040,-0.090
3946,-0.045,-0.090
3947,-0.045,-0.090
3948,-0.045,-0.090
3949,-0.040,-0.090
3950,-0.040,-0.085
3951,-0.040,-0.080
3952,-0.035,-0.070
3953,-0.030,-0.065
3954,-0.025,-0.055
3955,-0.020,-0.040
3956,-0.015,-0.025
3957,-0.015,-0.010
3958,-0.010,0.000
3959,-0.005,0.000
3960,-0.005,0.000
3961,0.000,0.010
3962,0.000,0.010
3963,0.000,0.015
3964,0.000,0.015
3965,0.000,0.015
3966,-0.005,0.020
3967,0.000,0.020
3968,0.000,0.020
3969,0.000,0.020
3970,0.000,0.025
3971,0.000,0.025
3972,0.000,0.025
3973,0.000,0.025
3974,0.000,0.020
3975,0.000,0.020
3976,0.000,0.020
3977,0.000,0.020
3978,0.000,0.020
3979,0.000,0.020
3980,0.000,0.020
3981,0.000,0.020
3982,0.000,0.020
3983,0.000,0.015
3984,0.000,0.015
3985,0.000,0.015
3986,0.000,0.020
3987,0.000,0.020
3988,0.000,0.020
3989,0.000,0.020
3990,0.000,0.015
3991,0.000,0.015
3992,0.000,0.020
3993,0.000,0.020
3994,0.000,0.020
3995,0.000,0.020
3996,0.000,0.020
3997,0.000,0.020
3998,0.000,0.020
3999,0.000,0.020
4000,0.000,0.020
4001,0.000,0.020
4002,0.000,0.020
4003,0.000,0.020
4004,0.000,0.015
4005,0.000,0.010
4006,0.000,0.010
4007,-0.005,0.005
4008,0.000,0.005
4009,-0.005,0.005
4010,0.000,0.005
4011,-0.005,0.005
4012,0.000,0.005
4013,-0.010,0.005
4014,0.000,0.005
4015,0.000,0.010
4016,0.000,0.015
4017,0.000,0.015
4018,0.000,0.015
4019,0.000,0.015
4020,0.000,0.020
4021,0.000,0.015
4022,0.000,0.010
4023,-0.005,0.000
4024,-0.015,0.000
4025,-0.020,-0.005
4026,-0.015,0.000
4027,-0.020,0.000
4028,-0.015,0.000
4029,-0.010,0.010
4030,0.000,0.055
4031,0.025,0.165
4032,0.145,0.325
4033,0.355,0.405
4034,0.465,0.300
4035,0.355,0.070
4036,0.135,-0.105
4037,-0.045,-0.150
4038,-0.100,-0.105
4039,-0.085,-0.055
4040,-0.070,-0.040
4041,-0.065,-0.035
4042,-0.055,-0.035
4043,-0.065,-0.035
4044,-0.055,-0.035
4045,-0.065,-0.035
4046,-0.055,-0.035
4047,-0.065,-0.040
4048,-0.055,-0.040
4049,-0.065,-0.040
4050,-0.055,-0.040
4051,-0.065,-0.045
4052,-0.055,-0.040
4053,-0.060,-0.040
4054,-0.055,-0.040
4055,-0.055,-0.035
4056,-0.055,-0.030
4057,-0.050,-0.025
4058,-0.050,-0.020
4059,-0.045,-0.015
4060,-0.045,-0.015
4061,-0.040,-0.010
4062,-0.040,-0.010
4063,-0.035,-0.015
4064,-0.040,-0.010
4065,-0.030,-0.010
4066,-0.040,-0.010
4067,-0.035,-0.010
4068,-0.040,-0.015
4069,-0.035,-0.015
4070,-0.035,-0.015
4071,-0.030,-0.010
4072,-0.035,-0.010
4073,-0.030,-0.005
4074,-0.025,0.000
4075,-0.025,0.000
4076,-0.020,0.000
4077,-0.015,0.000
4078,-0.010,0.005
4079,-0.010,0.010
4080,-0.005,0.015
4081,0.000,0.020
4082,0.000,0.025
4083,0.000,0.025
4084,0.000,0.025
4085,0.000,0.025
4086,0.000,0.025
4087,0.000,0.025
4088,0.000,0.025
4089,0.000,0.025
4090,0.000,0.025
4091,0.000,0.030
4092,0.000,0.035
4093,0.000,0.035
4094,0.000,0.035
4095,0.005,0.040
4096,0.000,0.040
4097,0.005,0.040
4098,0.000,0.035
4099,0.000,0.035
4100,0.000,0.035
4101,0.000,0.030
4102,0.000,0.030
4103,0.000,0.030
4104,0.000,0.025
4105,0.000,0.025
4106,0.000,0.025
4107,0.000,0.025
4108,0.000,0.025
4109,0.000,0.025
4110,0.000,0.025
4111,0.000,0.025
4112,0.000,0.025
4113,0.000,0.020
4114,0.000,0.020
4115,0.000,0.015
4116,0.000,0.015
4117,0.000,0.025
4118,0.005,0.030
4119,0.010,0.025
4120,0.005,0.025
4121,0.010,0.030
4122,0.005,0.030
4123,0.010,0.030
4124,0.010,0.030
4125,0.020,0.035
4126,0.010,0.030
4127,0.020,0.030
4128,0.015,0.030
4129,0.025,0.035
4130,0.015,0.030
4131,0.010,0.025
4132,0.000,0.015
4133,0.000,0.000
4134,-0.005,0.000
4135,0.000,0.000
4136,0.000,0.005
4137,0.000,0.010
4138,0.000,0.025
4139,0.005,0.065
4140,0.040,0.195
4141,0.160,0.380
4142,0.440,0.465
4143,0.515,0.330
4144,0.390,0.075
4145,0.110,-0.085
4146,-0.050,-0.110
4147,-0.075,-0.065
4148,-0.060,-0.035
4149,-0.055,-0.020
4150,-0.040,-0.020
4151,-0.040,-0.020
4152,-0.035,-0.015
4153,-0.040,-0.015
4154,-0.035,-0.020
4155,-0.040,-0.020
4156,-0.040,-0.020
4157,-0.040,-0.025
4158,-0.045,-0.030
4159,-0.045,-0.035
4160,-0.045,-0.035
4161,-0.045,-0.035
4162,-0.045,-0.035
4163,-0.040,-0.035
4164,-0.040,-0.030
4165,-0.035,-0.025
4166,-0.030,-0.025
4167,-0.035,-0.025
4168,-0.030,-0.030
4169,-0.035,-0.030
4170,-0.030,-0.030
4171,-0.035,-0.030
4172,-0.030,-0.035
4173,-0.035,-0.035
4174,-0.025,-0.040
4175,-0.035,-0.045
4176,-0.030,-0.040
4177,-0.040,-0.040
4178,-0.030,-0.040
4179,-0.040,-0.045
4180,-0.030,-0.040
4181,-0.035,-0.035
4182,-0.030,-0.030
4183,-0.030,-0.025
4184,-0.020,-0.015
4185,-0.020,-0.005
4186,-0.015,0.000
4187,-0.015,0.000
4188,-0.010,0.005
4189,-0.005,0.010
4190,-0.005,0.015
4191,0.000,0.015
4192,0.000,0.015
4193,0.000,0.020
4194,0.000,0.020
4195,0.000,0.020
4196,0.000,0.020
4197,0.000,0.025
4198,0.000,0.025
4199,0.000,0.025
4200,0.000,0.025
4201,0.000,0.030
4202,0.000,0.030
4203,0.000,0.030
4204,0.000,0.030
4205,0.000,0.030
4206,0.000,0.030
4207,0.000,0.025
4208,0.000,0.025
4209,0.000,0.025
4210,0.005,0.025
4211,0.000,0.025
4212,0.000,0.025
4213,0.000,0.025
4214,0.000,0.020
4215,0.000,0.020
4216,0.000,0.020
4217,0.000,0.020
4218,0.000,0.025
4219,0.000,0.020
4220,0.000,0.020
4221,0.000,0.015
4222,0.000,0.015
4223,0.000,0.015
4224,0.000,0.015
4225,0.000,0.015
4226,0.000,0.015
4227,0.000,0.020
4228,0.000,0.015
4229,0.000,0.010
4230,0.000,0.010
4231,0.000,0.015
4232,0.000,0.015
4233,0.000,0.015
4234,0.000,0.015
4235,0.000,0.020
4236,0.005,0.020
4237,0.005,0.020
4238,0.005,0.015
4239,0.000,0.005
4240,0.000,0.000
4241,-0.010,0.000
4242,-0.015,0.000
4243,-0.015,0.005
4244,-0.010,0.005
4245,-0.010,0.005
4246,-0.005,0.025
4247,0.000,0.105
4248,0.070,0.290
4249,0.295,0.500
4250,0.540,0.545
4251,0.565,0.355
4252,0.320,0.090
4253,0.050,-0.055
4254,-0.075,-0.085
4255,-0.085,-0.075
4256,-0.090,-0.065
4257,-0.070,-0.060
4258,-0.070,-0.055
4259,-0.070,-0.060
4260,-0.065,-0.060
4261,-0.065,-0.060
4262,-0.070,-0.060
4263,-0.070,-0.060
4264,-0.070,-0.060
4265,-0.065,-0.060
4266,-0.065,-0.060
4267,-0.065,-0.060
4268,-0.065,-0.060
4269,-0.065,-0.060
4270,-0.065,-0.055
4271,-0.065,-0.055
4272,-0.055,-0.055
4273,-0.065,-0.055
4274,-0.055,-0.050
4275,-0.065,-0.050
4276,-0.065,-0.055
4277,-0.075,-0.060
4278,-0.075,-0.065
4279,-0.075,-0.070
4280,-0.075,-0.070
4281,-0.080,-0.075
4282,-0.080,-0.075
4283,-0.085,-0.080
4284,-0.080,-0.085
4285,-0.080,-0.090
4286,-0.085,-0.095
4287,-0.080,-0.085
4288,-0.080,-0.080
4289,-0.075,-0.075
4290,-0.075,-0.070
4291,-0.070,-0.065
4292,-0.065,-0.055
4293,-0.060,-0.045
4294,-0.055,-0.035
4295,-0.045,-0.025
4296,-0.040,-0.020
4297,-0.040,-0.015
4298,-0.030,-0.005
4299,-0.040,0.000
4300,-0.025,0.000
4301,-0.030,0.000
4302,-0.020,0.005
4303,-0.020,0.010
4304,-0.010,0.015
4305,-0.015,0.020
4306,0.000,0.020
4307,-0.005,0.025
4308,0.000,0.025
4309,0.000,0.025
4310,0.000,0.025
4311,0.000,0.025
4312,0.000,0.025
4313,0.000,0.025
4314,0.000,0.025
4315,0.000,0.020
4316,0.000,0.020
4317,0.000,0.020
4318,0.000,0.015
4319,0.000,0.015
4320,0.000,0.015
4321,0.000,0.020
4322,0.000,0.015
4323,0.000,0.015
4324,-0.005,0.015
4325,0.000,0.020
4326,-0.005,0.020
4327,0.000,0.020
4328,-0.005,0.020
4329,0.000,0.020
4330,0.000,0.020
4331,0.000,0.020
4332,0.000,0.020
4333,0.000,0.020
4334,0.000,0.020
4335,0.000,0.020
4336,0.000,0.020
4337,0.000,0.025
4338,0.005,0.025
4339,0.005,0.025
4340,0.005,0.025
4341,0.005,0.025
4342,0.005,0.030
4343,0.005,0.030
4344,0.005,0.025
4345,0.000,0.020
4346,0.000,0.005
4347,-0.005,0.005
4348,-0.015,0.005
4349,0.000,0.010
4350,-0.010,0.010
4351,0.000,0.015
4352,0.000,0.045
4353,0.025,0.135
4354,0.080,0.315
4355,0.345,0.470
4356,0.530,0.425
4357,0.475,0.190
4358,0.205,-0.015
4359,-0.010,-0.100
4360,-0.085,-0.070
4361,-0.075,-0.040
4362,-0.065,-0.025
4363,-0.050,-0.020
4364,-0.050,-0.020
4365,-0.050,-0.020
4366,-0.050,-0.020
4367,-0.045,-0.020
4368,-0.045,-0.025
4369,-0.045,-0.025
4370,-0.045,-0.025
4371,-0.050,-0.025
4372,-0.045,-0.030
4373,-0.045,-0.030
4374,-0.045,-0.030
4375,-0.045,-0.025
4376,-0.045,-0.025
4377,-0.040,-0.025
4378,-0.045,-0.025
4379,-0.040,-0.025
4380,-0.035,-0.020
4381,-0.030,-0.020
4382,-0.035,-0.020
4383,-0.030,-0.020
4384,-0.035,-0.020
4385,-0.030,-0.025
4386,-0.035,-0.030
4387,-0.035,-0.030
4388,-0.040,-0.035
4389,-0.040,-0.040
4390,-0.040,-0.040
4391,-0.040,-0.040
4392,-0.040,-0.040
4393,-0.035,-0.035
4394,-0.030,-0.030
4395,-0.030,-0.030
4396,-0.020,-0.020
4397,-0.020,-0.010
4398,-0.010,-0.005
4399,-0.015,0.000
4400,-0.005,0.000
4401,-0.010,0.005
4402,0.000,0.010
4403,-0.005,0.010
4404,0.000,0.010
4405,-0.005,0.015
4406,0.000,0.015
4407,-0.005,0.015
4408,0.000,0.020
4409,0.000,0.020
4410,0.000,0.020
4411,0.000,0.020
4412,0.000,0.025
4413,0.000,0.025
4414,0.000,0.025
4415,0.000,0.025
4416,0.000,0.025
4417,0.005,0.030
4418,0.005,0.030
4419,0.005,0.030
4420,0.005,0.030
4421,0.005,0.030
4422,0.005,0.030
4423,0.005,0.030
4424,0.000,0.025
4425,0.000,0.025
4426,0.000,0.025
4427,0.000,0.025
4428,0.000,0.025
4429,0.000,0.025
4430,0.000,0.030
4431,0.000,0.025
4432,0.000,0.025
4433,0.000,0.025
4434,0.000,0.025
4435,0.000,0.020
4436,0.000,0.020
4437,0.000,0.020
4438,0.000,0.020
4439,0.000,0.020
4440,0.000,0.020
4441,0.000,0.020
4442,0.000,0.025
4443,0.000,0.025
4444,0.000,0.025
4445,0.000,0.025
4446,0.000,0.025
4447,0.000,0.025
4448,0.000,0.025
4449,0.000,0.015
4450,-0.010,0.005
4451,-0.015,0.005
4452,-0.025,0.005
4453,-0.015,0.005
4454,-0.015,0.010
4455,-0.005,0.020
4456,0.000,0.060
4457,0.015,0.165
4458,0.120,0.365
4459,0.370,0.540
4460,0.575,0.515
4461,0.515,0.285
4462,0.250,0.050
4463,0.005,-0.050
4464,-0.075,-0.060
4465,-0.075,-0.045
4466,-0.065,-0.030
4467,-0.050,-0.025
4468,-0.040,-0.025
4469,-0.050,-0.025
4470,-0.045,-0.025
4471,-0.045,-0.025
4472,-0.045,-0.020
4473,-0.035,-0.015
4474,-0.035,-0.015
4475,-0.035,-0.020
4476,-0.040,-0.025
4477,-0.030,-0.025
4478,-0.035,-0.020
4479,-0.030,-0.015
4480,-0.045,-0.015
4481,-0.030,-0.015
4482,-0.040,-0.015
4483,-0.030,-0.015
4484,-0.035,-0.015
4485,-0.030,-0.015
4486,-0.040,-0.015
4487,-0.030,-0.010
4488,-0.035,-0.010
4489,-0.030,-0.005
4490,-0.035,-0.010
4491,-0.035,-0.015
4492,-0.035,-0.020
4493,-0.035,-0.025
4494,-0.035,-0.030
4495,-0.035,-0.030
4496,-0.030,-0.030
4497,-0.030,-0.030
4498,-0.030,-0.025
4499,-0.030,-0.020
4500,-0.020,-0.010
4501,-0.020,-0.005
4502,-0.015,0.000
4503,-0.010,0.000
4504,-0.010,0.000
4505,-0.005,0.010
4506,-0.005,0.010
4507,0.000,0.010
4508,-0.005,0.010
4509,0.000,0.010
4510,-0.005,0.010
4511,0.000,0.015
4512,-0.005,0.020
4513,0.000,0.020
4514,0.000,0.020
4515,0.000,0.020
4516,0.000,0.025
4517,0.000,0.025
4518,0.000,0.025
4519,0.000,0.025
4520,0.000,0.025
4521,0.000,0.025
4522,0.000,0.025
4523,0.000,0.025
4524,0.000,0.020
4525,0.000,0.020
4526,0.000,0.020
4527,0.000,0.015
4528,0.000,0.015
4529,0.000,0.015
4530,0.000,0.020
4531,0.000,0.020
4532,0.000,0.020
4533,-0.005,0.015
4534,0.000,0.015
4535,0.000,0.015
4536,0.000,0.010
4537,-0.005,0.010
4538,0.000,0.015
4539,0.000,0.015
4540,0.000,0.015
4541,0.000,0.020
4542,0.000,0.020
4543,0.000,0.020
4544,0.000,0.025
4545,0.000,0.025
4546,0.005,0.030
4547,0.015,0.035
4548,0.015,0.035
4549,0.015,0.035
4550,0.015,0.035
4551,0.010,0.035
4552,0.010,0.030
4553,0.000,0.020
4554,0.000,0.015
4555,-0.005,0.010
4556,-0.005,0.010
4557,-0.005,0.010
4558,0.000,0.015
4559,0.000,0.030
4560,0.010,0.075
4561,0.025,0.200
4562,0.170,0.390
4563,0.435,0.490
4564,0.555,0.355
4565,0.395,0.090
4566,0.090,-0.080
4567,-0.070,-0.100
4568,-0.080,-0.060
4569,-0.075,-0.040
4570,-0.055,-0.035
4571,-0.050,-0.030
4572,-0.050,-0.025
4573,-0.045,-0.025
4574,-0.045,-0.030
4575,-0.045,-0.025
4576,-0.050,-0.025
4577,-0.050,-0.025
4578,-0.050,-0.025
4579,-0.045,-0.030
4580,-0.050,-0.035
4581,-0.050,-0.030
4582,-0.050,-0.030
4583,-0.045,-0.030
4584,-0.045,-0.030
4585,-0.045,-0.030
4586,-0.050,-0.025
4587,-0.050,-0.025
4588,-0.040,-0.020
4589,-0.040,-0.020
4590,-0.035,-0.020
4591,-0.040,-0.020
4592,-0.035,-0.025
4593,-0.035,-0.025
4594,-0.035,-0.025
4595,-0.035,-0.030
4596,-0.035,-0.035
4597,-0.040,-0.045
4598,-0.035,-0.045
4599,-0.035,-0.045
4600,-0.040,-0.045
4601,-0.035,-0.040
4602,-0.040,-0.035
4603,-0.030,-0.030
4604,-0.035,-0.025
4605,-0.020,-0.015
4606,-0.020,0.000
4607,-0.010,0.000
4608,-0.020,0.000
4609,-0.005,0.000
4610,-0.010,0.005
4611,0.000,0.005
4612,-0.005,0.010
4613,0.000,0.010
4614,-0.005,0.010
4615,0.000,0.010
4616,-0.005,0.015
4617,0.000,0.015
4618,-0.005,0.015
4619,0.000,0.020
4620,0.000,0.020
4621,0.000,0.020
4622,0.000,0.025
4623,0.000,0.025
4624,0.000,0.020
4625,0.000,0.020
4626,0.000,0.020
4627,0.000,0.025
4628,0.000,0.025
4629,0.000,0.020
4630,0.000,0.020
4631,0.000,0.020
4632,0.000,0.020
4633,0.000,0.020
4634,0.000,0.020
4635,0.000,0.020
4636,0.000,0.020
4637,0.000,0.020
4638,0.000,0.020
4639,0.000,0.020
4640,0.000,0.020
4641,0.000,0.020
4642,0.000,0.020
4643,0.000,0.020
4644,0.000,0.015
4645,0.000,0.015
4646,0.000,0.020
4647,0.000,0.025
4648,0.000,0.025
4649,0.005,0.025
4650,0.000,0.025
4651,0.000,0.025
4652,0.005,0.025
4653,0.005,0.030
4654,0.005,0.025
4655,0.000,0.020
4656,0.000,0.015
4657,-0.010,0.010
4658,-0.010,0.005
4659,-0.010,0.005
4660,-0.005,0.010
4661,-0.005,0.020
4662,0.000,0.055
4663,0.010,0.160
4664,0.125,0.355
4665,0.380,0.515
4666,0.565,0.475
4667,0.500,0.250
4668,0.245,0.025
4669,0.005,-0.065
4670,-0.075,-0.070
4671,-0.080,-0.050
4672,-0.070,-0.045
4673,-0.060,-0.045
4674,-0.055,-0.040
4675,-0.050,-0.035
4676,-0.050,-0.030
4677,-0.055,-0.030
4678,-0.055,-0.030
4679,-0.050,-0.035
4680,-0.050,-0.035
4681,-0.055,-0.035
4682,-0.050,-0.035
4683,-0.055,-0.035
4684,-0.050,-0.040
4685,-0.055,-0.040
4686,-0.045,-0.035
4687,-0.060,-0.030
4688,-0.045,-0.020
4689,-0.055,-0.020
4690,-0.035,-0.020
4691,-0.045,-0.020
4692,-0.035,-0.020
4693,-0.045,-0.020
4694,-0.040,-0.020
4695,-0.040,-0.020
4696,-0.035,-0.020
4697,-0.035,-0.020
4698,-0.035,-0.020
4699,-0.035,-0.020
4700,-0.040,-0.025
4701,-0.035,-0.025
4702,-0.035,-0.030
4703,-0.035,-0.030
4704,-0.035,-0.025
4705,-0.025,-0.015
4706,-0.025,-0.010
4707,-0.020,0.000
4708,-0.020,0.000
4709,-0.010,0.005
4710,-0.010,0.010
4711,-0.005,0.010
4712,-0.005,0.015
4713,0.000,0.015
4714,-0.005,0.015
4715,-0.005,0.015
4716,0.000,0.015
4717,-0.005,0.015
4718,0.000,0.015
4719,0.000,0.020
4720,0.000,0.015
4721,0.000,0.015
4722,0.000,0.015
4723,0.000,0.015
4724,0.000,0.020
4725,0.000,0.020
4726,0.000,0.025
4727,0.000,0.025
4728,0.000,0.025
4729,0.000,0.020
4730,0.000,0.020
4731,0.000,0.015
4732,0.000,0.015
4733,0.000,0.015
4734,0.000,0.020
4735,0.000,0.015
4736,-0.005,0.015
4737,0.000,0.015
4738,0.000,0.015
4739,0.000,0.015
4740,0.000,0.015
4741,0.000,0.015
4742,0.000,0.015
4743,0.000,0.010
4744,0.000,0.010
4745,0.000,0.015
4746,0.000,0.010
4747,0.000,0.010
4748,0.000,0.010
4749,0.000,0.010
4750,0.000,0.010
4751,0.000,0.015
4752,0.000,0.015
4753,0.000,0.015
4754,0.000,0.020
4755,0.000,0.020
4756,0.000,0.020
4757,0.000,0.020
4758,0.000,0.025
4759,0.000,0.020
4760,0.000,0.010
4761,-0.005,0.000
4762,-0.015,0.000
4763,-0.015,0.000
4764,-0.015,0.005
4765,-0.010,0.005
4766,-0.010,0.015
4767,0.000,0.055
4768,0.020,0.170
4769,0.140,0.355
4770,0.385,0.480
4771,0.540,0.390
4772,0.420,0.130
4773,0.140,-0.065
4774,-0.055,-0.110
4775,-0.080,-0.065
4776,-0.070,-0.035
4777,-0.050,-0.020
4778,-0.050,-0.020
4779,-0.050,-0.020
4780,-0.045,-0.020
4781,-0.045,-0.020
4782,-0.045,-0.020
4783,-0.045,-0.020
4784,-0.045,-0.020
4785,-0.045,-0.025
4786,-0.045,-0.025
4787,-0.050,-0.030
4788,-0.040,-0.030
4789,-0.050,-0.030
4790,-0.040,-0.025
4791,-0.045,-0.025
4792,-0.040,-0.020
4793,-0.040,-0.020
4794,-0.035,-0.015
4795,-0.035,-0.010
4796,-0.030,-0.010
4797,-0.035,-0.010
4798,-0.030,-0.010
4799,-0.030,-0.010
4800,-0.030,-0.015
4801,-0.030,-0.015
4802,-0.030,-0.020
4803,-0.030,-0.020
4804,-0.030,-0.025
4805,-0.030,-0.025
4806,-0.030,-0.030
4807,-0.030,-0.030
4808,-0.030,-0.025
4809,-0.025,-0.020
4810,-0.025,-0.015
4811,-0.020,0.000
4812,-0.010,0.000
4813,-0.010,0.000
4814,0.000,0.005
4815,-0.005,0.010
4816,0.000,0.015
4817,0.000,0.020
4818,0.000,0.020
4819,0.000,0.025
4820,0.000,0.025
4821,0.000,0.025
4822,0.000,0.025
4823,0.000,0.025
4824,0.000,0.025
4825,0.000,0.030
4826,0.000,0.030
4827,0.000,0.030
4828,0.000,0.035
4829,0.000,0.040
4830,0.005,0.040
4831,0.005,0.040
4832,0.005,0.045
4833,0.005,0.045
4834,0.000,0.040
4835,0.000,0.040
4836,0.000,0.040
4837,0.005,0.035
4838,0.000,0.035
4839,0.005,0.035
4840,0.000,0.030
4841,0.005,0.030
4842,0.000,0.030
4843,0.000,0.030
4844,0.000,0.030
4845,0.000,0.030
4846,0.000,0.025
4847,0.000,0.025
4848,0.000,0.025
4849,0.000,0.025
4850,0.000,0.025
4851,0.000,0.025
4852,0.000,0.025
4853,0.000,0.025
4854,0.005,0.025
4855,0.005,0.030
4856,0.010,0.030
4857,0.010,0.025
4858,0.005,0.025
4859,0.010,0.030
4860,0.010,0.030
4861,0.010,0.025
4862,0.000,0.020
4863,0.000,0.010
4864,-0.010,0.010
4865,-0.005,0.010
4866,-0.005,0.010
4867,0.000,0.010
4868,-0.005,0.020
4869,0.000,0.050
4870,0.020,0.140
4871,0.100,0.310
4872,0.335,0.465
4873,0.530,0.430
4874,0.485,0.215
4875,0.245,0.000
4876,0.015,-0.090
4877,-0.065,-0.075
4878,-0.070,-0.045
4879,-0.060,-0.030
4880,-0.045,-0.025
4881,-0.045,-0.025
4882,-0.045,-0.020
4883,-0.045,-0.020
4884,-0.040,-0.020
4885,-0.040,-0.020
4886,-0.035,-0.025
4887,-0.035,-0.030
4888,-0.045,-0.025
4889,-0.040,-0.025
4890,-0.040,-0.020
4891,-0.035,-0.020
4892,-0.035,-0.025
4893,-0.030,-0.020
4894,-0.040,-0.010
4895,-0.030,-0.005
4896,-0.035,0.000
4897,-0.025,0.000
4898,-0.030,0.000
4899,-0.025,0.000
4900,-0.025,0.000
4901,-0.025,0.000
4902,-0.020,0.000
4903,-0.015,0.000
4904,-0.020,0.000
4905,-0.020,0.000
4906,-0.020,0.000
4907,-0.020,0.000
4908,-0.015,-0.005
4909,-0.015,-0.005
4910,-0.010,-0.005
4911,-0.015,-0.005
4912,-0.010,0.000
4913,-0.010,0.000
4914,0.000,0.005
4915,0.000,0.005
4916,0.000,0.010
4917,0.000,0.020
4918,0.000,0.025
4919,0.000,0.025
4920,0.000,0.025
4921,0.000,0.025
4922,0.000,0.025
4923,0.000,0.030
4924,0.000,0.030
4925,0.000,0.025
4926,0.000,0.025
4927,0.000,0.025
4928,0.000,0.025
4929,0.000,0.025
4930,0.000,0.025
4931,0.000,0.025
4932,0.000,0.025
4933,0.000,0.025
4934,0.000,0.025
4935,0.000,0.030
4936,0.000,0.030
4937,0.000,0.030
4938,0.000,0.030
4939,0.000,0.025
4940,0.005,0.025
4941,0.000,0.025
4942,0.005,0.025
4943,0.000,0.020
4944,0.000,0.020
4945,0.000,0.020
4946,0.000,0.020
4947,0.000,0.020
4948,0.000,0.015
4949,0.000,0.015
4950,0.000,0.015
4951,0.000,0.015
4952,0.000,0.010
4953,0.000,0.010
4954,0.000,0.015
4955,0.000,0.010
4956,0.000,0.010
4957,0.000,0.010
4958,0.000,0.010
4959,0.000,0.015
4960,0.005,0.020
4961,0.005,0.015
4962,0.000,0.015
4963,0.005,0.015
4964,0.005,0.015
4965,0.005,0.015
4966,0.000,0.010
4967,0.000,0.000
4968,-0.010,0.000
4969,-0.010,0.000
4970,-0.010,0.000
4971,-0.010,0.000
4972,-0.010,0.000
4973,-0.005,0.020
4974,0.000,0.095
4975,0.060,0.260
4976,0.265,0.440
4977,0.495,0.470
4978,0.515,0.275
4979,0.285,0.020
4980,0.020,-0.105
4981,-0.085,-0.100
4982,-0.075,-0.065
4983,-0.070,-0.045
4984,-0.060,-0.040
4985,-0.055,-0.040
4986,-0.050,-0.040
4987,-0.050,-0.040
4988,-0.050,-0.040
4989,-0.050,-0.040
4990,-0.055,-0.040
4991,-0.055,-0.040
4992,-0.065,-0.040
4993,-0.050,-0.040
4994,-0.060,-0.045
4995,-0.050,-0.045
4996,-0.060,-0.040
4997,-0.045,-0.040
4998,-0.055,-0.040
4999,-0.045,-0.035
5000,-0.050,-0.035
5001,-0.045,-0.030
5002,-0.045,-0.025
5003,-0.035,-0.020
5004,-0.035,-0.015
5005,-0.030,-0.015
5006,-0.035,-0.015
5007,-0.035,-0.020
5008,-0.035,-0.025
5009,-0.040,-0.030
5010,-0.040,-0.035
5011,-0.040,-0.040
5012,-0.040,-0.040
5013,-0.040,-0.035
5014,-0.035,-0.035
5015,-0.030,-0.030
5016,-0.030,-0.025
5017,-0.025,-0.015
5018,-0.020,-0.005
5019,-0.015,0.000
5020,-0.010,0.000
5021,0.000,0.010
5022,-0.005,0.010
5023,0.000,0.015
5024,0.000,0.025
5025,0.000,0.025
5026,0.000,0.030
5027,0.000,0.030
5028,0.000,0.030
5029,0.000,0.035
5030,0.000,0.035
5031,0.000,0.035
5032,0.000,0.040
5033,0.005,0.040
5034,0.005,0.040
5035,0.005,0.040
5036,0.005,0.045
5037,0.005,0.045
5038,0.010,0.050
5039,0.010,0.055
5040,0.015,0.050
5041,0.010,0.050
5042,0.015,0.050
5043,0.010,0.045
5044,0.010,0.040
5045,0.005,0.040
5046,0.010,0.040
5047,0.005,0.035
5048,0.010,0.030
5049,0.005,0.030
5050,0.005,0.030
5051,0.005,0.025
5052,0.010,0.025
5053,0.005,0.025
5054,0.010,0.025
5055,0.005,0.025
5056,0.005,0.025
5057,0.005,0.025
5058,0.005,0.025
5059,0.005,0.025
5060,0.005,0.025
5061,0.005,0.025
5062,0.015,0.030
5063,0.015,0.030
5064,0.020,0.025
5065,0.015,0.025
5066,0.020,0.025
5067,0.015,0.025
5068,0.015,0.020
5069,0.000,0.015
5070,0.000,0.005
5071,0.000,0.005
5072,0.000,0.005
5073,0.000,0.010
5074,0.000,0.010
5075,0.000,0.020
5076,0.010,0.055
5077,0.025,0.160
5078,0.130,0.355
5079,0.395,0.485
5080,0.560,0.400
5081,0.450,0.150
5082,0.170,-0.040
5083,-0.025,-0.095
5084,-0.075,-0.065
5085,-0.070,-0.035
5086,-0.050,-0.025
5087,-0.035,-0.020
5088,-0.035,-0.020
5089,-0.035,-0.020
5090,-0.040,-0.020
5091,-0.035,-0.020
5092,-0.040,-0.025
5093,-0.035,-0.030
5094,-0.040,-0.030
5095,-0.040,-0.030
5096,-0.045,-0.035
5097,-0.040,-0.035
5098,-0.040,-0.030
5099,-0.035,-0.030
5100,-0.030,-0.030
5101,-0.035,-0.030
5102,-0.030,-0.025
5103,-0.035,-0.025
5104,-0.030,-0.025
5105,-0.035,-0.025
5106,-0.030,-0.025
5107,-0.035,-0.025
5108,-0.030,-0.025
5109,-0.025,-0.025
5110,-0.025,-0.025
5111,-0.025,-0.025
5112,-0.025,-0.030
5113,-0.030,-0.035
5114,-0.025,-0.035
5115,-0.025,-0.035
5116,-0.025,-0.030
5117,-0.025,-0.020
5118,-0.020,-0.015
5119,-0.010,-0.010
5120,-0.020,-0.010
5121,-0.010,-0.005
5122,-0.010,0.000
5123,0.000,0.005
5124,-0.005,0.010
5125,0.000,0.010
5126,0.000,0.020
5127,0.000,0.025
5128,0.000,0.025
5129,0.000,0.025
5130,0.000,0.025
5131,0.000,0.025
5132,0.000,0.025
5133,0.000,0.020
5134,0.000,0.020
5135,0.000,0.020
5136,0.000,0.020
5137,0.000,0.020
5138,0.000,0.025
5139,0.000,0.025
5140,0.000,0.025
5141,0.000,0.025
5142,0.000,0.025
5143,0.000,0.020
5144,0.000,0.020
5145,0.000,0.020
5146,0.000,0.020
5147,0.000,0.020
5148,0.000,0.020
5149,0.000,0.020
5150,0.000,0.015
5151,0.000,0.015
5152,0.000,0.020
5153,0.005,0.015
5154,0.000,0.015
5155,0.000,0.015
5156,0.000,0.015
5157,0.000,0.010
5158,0.000,0.010
5159,0.000,0.010
5160,0.000,0.010
5161,0.000,0.015
5162,0.000,0.015
5163,0.000,0.015
5164,0.000,0.010
5165,0.000,0.010
5166,0.000,0.010
5167,0.005,0.015
5168,0.005,0.015
5169,0.005,0.015
5170,0.005,0.015
5171,0.000,0.015
5172,0.000,0.015
5173,0.000,0.010
5174,0.000,0.000
5175,-0.010,0.000
5176,-0.010,0.000
5177,-0.010,0.000
5178,-0.005,0.000
5179,0.000,0.010
5180,0.000,0.060
5181,0.020,0.205
5182,0.180,0.420
5183,0.450,0.550
5184,0.595,0.460
5185,0.460,0.205
5186,0.180,0.000
5187,-0.020,-0.070
5188,-0.080,-0.065
5189,-0.080,-0.060
5190,-0.070,-0.055
5191,-0.065,-0.050
5192,-0.060,-0.050
5193,-0.065,-0.050
5194,-0.055,-0.050
5195,-0.065,-0.050
5196,-0.065,-0.055
5197,-0.065,-0.060
5198,-0.065,-0.060
5199,-0.070,-0.060
5200,-0.065,-0.060
5201,-0.070,-0.060
5202,-0.065,-0.060
5203,-0.070,-0.055
5204,-0.060,-0.055
5205,-0.065,-0.055
5206,-0.060,-0.055
5207,-0.065,-0.050
5208,-0.055,-0.050
5209,-0.060,-0.045
5210,-0.055,-0.045
5211,-0.060,-0.045
5212,-0.055,-0.045
5213,-0.055,-0.045
5214,-0.060,-0.050
5215,-0.065,-0.050
5216,-0.060,-0.050
5217,-0.060,-0.055
5218,-0.060,-0.060
5219,-0.055,-0.065
5220,-0.060,-0.065
5221,-0.060,-0.060
5222,-0.055,-0.050
5223,-0.050,-0.040
5224,-0.045,-0.035
5225,-0.035,-0.025
5226,-0.035,-0.010
5227,-0.030,-0.005
5228,-0.020,0.000
5229,-0.015,0.000
5230,-0.010,0.005
5231,-0.010,0.005
5232,-0.005,0.010
5233,-0.005,0.010
5234,0.000,0.015
5235,0.000,0.020
5236,0.000,0.020
5237,0.000,0.025
5238,0.000,0.025
5239,0.000,0.030
5240,0.000,0.030
5241,0.000,0.035
5242,0.005,0.040
5243,0.005,0.040
5244,0.005,0.040
5245,0.005,0.035
5246,0.005,0.035
5247,0.005,0.030
5248,0.000,0.030
5249,0.005,0.030
5250,0.000,0.030
5251,0.005,0.030
5252,0.000,0.030
5253,0.005,0.030
5254,0.000,0.030
5255,0.005,0.030
5256,0.000,0.030
5257,0.005,0.025
5258,0.000,0.025
5259,0.000,0.025
5260,0.000,0.025
5261,0.000,0.025
5262,0.000,0.020
5263,0.000,0.020
5264,0.000,0.020
5265,0.000,0.025
5266,0.005,0.025
5267,0.005,0.030
5268,0.010,0.030
5269,0.005,0.030
5270,0.005,0.030
5271,0.010,0.030
5272,0.010,0.030
5273,0.010,0.025
5274,0.000,0.020
5275,0.000,0.015
5276,-0.005,0.005
5277,-0.010,0.005
5278,-0.005,0.005
5279,0.000,0.010
5280,-0.005,0.020
5281,0.005,0.065
5282,0.040,0.185
5283,0.160,0.355
5284,0.390,0.430
5285,0.500,0.305
5286,0.370,0.055
5287,0.125,-0.120
5288,-0.055,-0.160
5289,-0.090,-0.100
5290,-0.070,-0.045
5291,-0.065,-0.035
5292,-0.055,-0.030
5293,-0.050,-0.025
5294,-0.045,-0.025
5295,-0.045,-0.030
5296,-0.045,-0.030
5297,-0.045,-0.030
5298,-0.045,-0.030
5299,-0.050,-0.035
5300,-0.045,-0.035
5301,-0.055,-0.035
5302,-0.045,-0.030
5303,-0.050,-0.025
5304,-0.040,-0.025
5305,-0.045,-0.025
5306,-0.045,-0.020
5307,-0.045,-0.020
5308,-0.040,-0.020
5309,-0.040,-0.015
5310,-0.035,-0.015
5311,-0.035,-0.015
5312,-0.035,-0.010
5313,-0.030,-0.010
5314,-0.030,-0.015
5315,-0.030,-0.015
5316,-0.030,-0.015
5317,-0.030,-0.020
5318,-0.030,-0.025
5319,-0.030,-0.025
5320,-0.030,-0.025
5321,-0.025,-0.025
5322,-0.025,-0.020
5323,-0.020,-0.015
5324,-0.015,-0.005
5325,-0.015,0.000
5326,-0.005,0.000
5327,-0.005,0.000
5328,0.000,0.010
5329,0.000,0.015
5330,0.000,0.020
5331,0.000,0.020
5332,0.000,0.025
5333,0.000,0.025
5334,0.000,0.025
5335,0.000,0.025
5336,0.000,0.025
5337,0.000,0.020
5338,0.000,0.020
5339,0.000,0.020
5340,0.000,0.025
5341,0.000,0.025
5342,0.000,0.025
5343,0.000,0.025
5344,0.000,0.025
5345,0.005,0.025
5346,0.000,0.030
5347,0.000,0.030
5348,0.000,0.030
5349,0.000,0.030
5350,0.000,0.030
5351,0.000,0.030
5352,0.000,0.030
5353,0.005,0.030
5354,0.000,0.025
5355,0.000,0.025
5356,0.005,0.030
5357,0.000,0.030
5358,0.005,0.030
5359,0.000,0.030
5360,0.005,0.030
5361,0.000,0.030
5362,0.000,0.030
5363,0.000,0.030
5364,0.005,0.030
5365,0.005,0.030
5366,0.015,0.040
5367,0.015,0.040
5368,0.020,0.035
5369,0.010,0.035
5370,0.015,0.040
5371,0.020,0.040
5372,0.015,0.035
5373,0.010,0.020
5374,0.000,0.010
5375,0.000,0.010
5376,-0.010,0.010
5377,0.000,0.010
5378,0.000,0.015
5379,0.000,0.015
5380,0.000,0.055
5381,0.040,0.160
5382,0.130,0.340
5383,0.375,0.460
5384,0.505,0.370
5385,0.430,0.135
5386,0.180,-0.055
5387,-0.010,-0.120
5388,-0.075,-0.085
5389,-0.060,-0.040
5390,-0.055,-0.020
5391,-0.045,-0.015
5392,-0.040,-0.010
5393,-0.035,-0.010
5394,-0.035,-0.015
5395,-0.035,-0.015
5396,-0.035,-0.015
5397,-0.035,-0.015
5398,-0.035,-0.020
5399,-0.035,-0.020
5400,-0.035,-0.015
5401,-0.030,-0.015
5402,-0.035,-0.020
5403,-0.030,-0.020
5404,-0.035,-0.020
5405,-0.030,-0.020
5406,-0.035,-0.015
5407,-0.025,-0.010
5408,-0.030,-0.010
5409,-0.020,-0.010
5410,-0.030,-0.010
5411,-0.020,-0.010
5412,-0.020,-0.010
5413,-0.015,-0.010
5414,-0.020,-0.010
5415,-0.015,-0.010
5416,-0.020,-0.015
5417,-0.020,-0.020
5418,-0.020,-0.020
5419,-0.020,-0.020
5420,-0.020,-0.015
5421,-0.015,-0.010
5422,-0.015,-0.005
5423,-0.015,0.000
5424,-0.010,0.000
5425,-0.005,0.000
5426,0.000,0.005
5427,0.000,0.010
5428,0.000,0.015
5429,0.000,0.020
5430,0.000,0.025
5431,0.000,0.025
5432,0.005,0.025
5433,0.000,0.030
5434,0.005,0.030
5435,0.000,0.030
5436,0.000,0.030
5437,0.000,0.025
5438,0.000,0.025
5439,0.000,0.025
5440,0.000,0.025
5441,0.000,0.025
5442,0.000,0.025
5443,0.005,0.025
5444,0.005,0.025
5445,0.005,0.025
5446,0.005,0.030
5447,0.005,0.025
5448,0.005,0.025
5449,0.005,0.025
5450,0.005,0.025
5451,0.005,0.025
5452,0.000,0.025
5453,0.000,0.025
5454,0.010,0.025
5455,0.000,0.025
5456,0.000,0.025
5457,0.000,0.020
5458,0.005,0.020
5459,0.000,0.020
5460,0.005,0.020
5461,0.000,0.025
5462,0.005,0.025
5463,0.000,0.020
5464,0.000,0.020
5465,0.000,0.020
5466,0.000,0.020
5467,0.000,0.020
5468,0.005,0.025
5469,0.010,0.025
5470,0.010,0.025
5471,0.015,0.025
5472,0.015,0.025
5473,0.015,0.030
5474,0.015,0.025
5475,0.010,0.015
5476,0.000,0.005
5477,0.000,0.005
5478,0.000,0.005
5479,0.000,0.005
5480,0.000,0.010
5481,0.000,0.025
5482,0.010,0.080
5483,0.045,0.220
5484,0.205,0.420
5485,0.465,0.530
5486,0.580,0.420
5487,0.420,0.170
5488,0.145,-0.020
5489,-0.030,-0.075
5490,-0.070,-0.060
5491,-0.070,-0.040
5492,-0.055,-0.035
5493,-0.050,-0.030
5494,-0.040,-0.030
5495,-0.040,-0.030
5496,-0.050,-0.035
5497,-0.050,-0.040
5498,-0.050,-0.040
5499,-0.050,-0.040
5500,-0.050,-0.040
5501,-0.045,-0.040
5502,-0.045,-0.040
5503,-0.045,-0.040
5504,-0.055,-0.040
5505,-0.045,-0.040
5506,-0.050,-0.040
5507,-0.040,-0.035
5508,-0.045,-0.035
5509,-0.035,-0.030
5510,-0.035,-0.030
5511,-0.040,-0.030
5512,-0.050,-0.025
5513,-0.035,-0.020
5514,-0.035,-0.020
5515,-0.030,-0.020
5516,-0.040,-0.025
5517,-0.030,-0.030
5518,-0.040,-0.035
5519,-0.035,-0.035
5520,-0.035,-0.035
5521,-0.030,-0.035
5522,-0.030,-0.035
5523,-0.030,-0.035
5524,-0.030,-0.030
5525,-0.030,-0.020
5526,-0.025,-0.015
5527,-0.020,-0.010
5528,-0.010,-0.005
5529,0.000,0.000
5530,-0.005,0.000
5531,0.000,0.005
5532,0.000,0.005
5533,0.000,0.010
5534,0.000,0.010
5535,0.000,0.010
5536,-0.005,0.010
5537,0.000,0.010
5538,0.000,0.010
5539,0.000,0.015
5540,0.000,0.015
5541,0.000,0.020
5542,0.000,0.020
5543,0.000,0.020
5544,0.000,0.025
5545,0.000,0.020
5546,0.000,0.020
5547,0.000,0.020
5548,0.000,0.025
5549,0.005,0.025
5550,0.010,0.025
5551,0.010,0.025
5552,0.010,0.025
5553,0.005,0.025
5554,0.010,0.025
5555,0.000,0.025
5556,0.000,0.025
5557,0.005,0.020
5558,0.005,0.020
5559,0.000,0.020
5560,0.005,0.020
5561,0.000,0.020
5562,0.005,0.020
5563,0.000,0.020
5564,0.000,0.020
5565,0.000,0.020
5566,0.000,0.020
5567,0.000,0.015
5568,0.000,0.015
5569,0.000,0.015
5570,0.000,0.015
5571,0.005,0.020
5572,0.005,0.025
5573,0.015,0.025
5574,0.010,0.025
5575,0.010,0.025
5576,0.010,0.025
5577,0.015,0.025
5578,0.010,0.025
5579,0.005,0.020
5580,0.000,0.010
5581,0.000,0.005
5582,0.000,0.005
5583,0.000,0.005
5584,0.000,0.005
5585,0.000,0.010
5586,0.010,0.040
5587,0.015,0.130
5588,0.095,0.310
5589,0.325,0.475
5590,0.545,0.435
5591,0.475,0.185
5592,0.215,-0.035
5593,-0.015,-0.110
5594,-0.075,-0.075
5595,-0.070,-0.040
5596,-0.050,-0.030
5597,-0.050,-0.020
5598,-0.035,-0.015
5599,-0.035,-0.015
5600,-0.035,-0.020
5601,-0.035,-0.020
5602,-0.035,-0.020
5603,-0.035,-0.020
5604,-0.035,-0.025
5605,-0.035,-0.025
5606,-0.035,-0.025
5607,-0.030,-0.025
5608,-0.035,-0.025
5609,-0.035,-0.025
5610,-0.035,-0.025
5611,-0.035,-0.025
5612,-0.030,-0.020
5613,-0.035,-0.015
5614,-0.030,-0.015
5615,-0.025,-0.010
5616,-0.020,-0.010
5617,-0.025,-0.010
5618,-0.020,-0.010
5619,-0.020,-0.010
5620,-0.010,-0.015
5621,-0.020,-0.020
5622,-0.020,-0.020
5623,-0.020,-0.020
5624,-0.015,-0.025
5625,-0.020,-0.025
5626,-0.020,-0.025
5627,-0.015,-0.020
5628,-0.010,-0.020
5629,-0.010,-0.015
5630,-0.005,-0.005
5631,0.000,0.000
5632,-0.005,0.000
5633,0.000,0.000
5634,0.000,0.005
5635,0.000,0.010
5636,0.000,0.015
5637,0.000,0.020
5638,0.000,0.020
5639,0.005,0.025
5640,0.000,0.025
5641,0.005,0.025
5642,0.000,0.025
5643,0.000,0.030
5644,0.000,0.030
5645,0.000,0.030
5646,0.000,0.030
5647,0.000,0.030
5648,0.005,0.035
5649,0.010,0.040
5650,0.010,0.040
5651,0.010,0.035
5652,0.010,0.035
5653,0.010,0.035
5654,0.010,0.035
5655,0.010,0.035
5656,0.010,0.030
5657,0.010,0.030
5658,0.005,0.030
5659,0.010,0.030
5660,0.010,0.030
5661,0.010,0.030
5662,0.000,0.025
5663,0.005,0.025
5664,0.000,0.025
5665,0.005,0.025
5666,0.000,0.025
5667,0.005,0.025
5668,0.000,0.025
5669,0.005,0.025
5670,0.000,0.025
5671,0.005,0.025
5672,0.005,0.025
5673,0.005,0.025
5674,0.005,0.030
5675,0.020,0.030
5676,0.010,0.030
5677,0.010,0.030
5678,0.015,0.030
5679,0.020,0.030
5680,0.020,0.025
5681,0.005,0.020
5682,0.000,0.010
5683,0.000,0.010
5684,0.000,0.010
5685,0.000,0.010
5686,0.000,0.010
5687,0.000,0.020
5688,0.010,0.055
5689,0.025,0.160
5690,0.140,0.340
5691,0.375,0.490
5692,0.550,0.450
5693,0.485,0.235
5694,0.235,0.020
5695,0.005,-0.065
5696,-0.070,-0.060
5697,-0.070,-0.045
5698,-0.060,-0.035
5699,-0.050,-0.030
5700,-0.050,-0.025
5701,-0.045,-0.025
5702,-0.045,-0.025
5703,-0.045,-0.035
5704,-0.045,-0.035
5705,-0.050,-0.035
5706,-0.050,-0.035
5707,-0.045,-0.035
5708,-0.045,-0.040
5709,-0.045,-0.035
5710,-0.050,-0.035
5711,-0.050,-0.035
5712,-0.040,-0.035
5713,-0.045,-0.035
5714,-0.030,-0.030
5715,-0.045,-0.025
5716,-0.035,-0.020
5717,-0.040,-0.020
5718,-0.025,-0.020
5719,-0.025,-0.020
5720,-0.030,-0.020
5721,-0.035,-0.025
5722,-0.020,-0.025
5723,-0.030,-0.025
5724,-0.025,-0.025
5725,-0.025,-0.025
5726,-0.025,-0.030
5727,-0.025,-0.035
5728,-0.025,-0.030
5729,-0.020,-0.025
5730,-0.020,-0.025
5731,-0.015,-0.025
5732,-0.020,-0.020
5733,-0.020,-0.015
5734,-0.020,-0.010
5735,-0.010,-0.005
5736,-0.015,0.000
5737,-0.010,0.000
5738,-0.010,0.000
5739,-0.005,0.000
5740,-0.005,0.000
5741,-0.010,0.000
5742,-0.010,0.005
5743,-0.005,0.005
5744,-0.005,0.000
5745,-0.015,0.000
5746,-0.010,0.005
5747,-0.010,0.005
5748,-0.010,0.005
5749,-0.010,0.010
5750,0.000,0.005
5751,-0.010,0.005
5752,0.000,0.005
5753,0.000,0.010
5754,0.000,0.010
5755,0.000,0.010
5756,0.000,0.005
5757,0.000,0.005
5758,0.000,0.010
5759,0.000,0.010
5760,-0.005,0.010
5761,0.000,0.010
5762,0.000,0.010
5763,0.000,0.010
5764,-0.005,0.005
5765,0.000,0.005
5766,0.000,0.005
5767,0.000,0.005
5768,-0.005,0.005
5769,0.000,0.005
5770,-0.005,0.005
5771,0.000,0.000
5772,0.000,0.000
5773,0.000,0.000
5774,0.000,0.000
5775,0.000,0.000
5776,0.000,0.000
5777,0.000,0.000
5778,0.000,0.005
5779,0.000,0.010
5780,0.000,0.005
5781,0.000,0.005
5782,0.000,0.005
5783,0.000,0.010
5784,0.000,0.010
5785,0.000,0.005
5786,-0.005,0.000
5787,-0.015,-0.005
5788,-0.020,-0.010
5789,-0.015,-0.005
5790,-0.020,0.000
5791,-0.010,0.000
5792,-0.010,0.025
5793,0.005,0.110
5794,0.070,0.290
5795,0.310,0.460
5796,0.520,0.435
5797,0.480,0.195
5798,0.200,-0.045
5799,-0.025,-0.135
5800,-0.100,-0.100
5801,-0.075,-0.060
5802,-0.070,-0.045
5803,-0.055,-0.040
5804,-0.055,-0.040
5805,-0.050,-0.040
5806,-0.050,-0.040
5807,-0.055,-0.040
5808,-0.055,-0.040
5809,-0.055,-0.040
5810,-0.050,-0.040
5811,-0.050,-0.040
5812,-0.050,-0.040
5813,-0.055,-0.045
5814,-0.050,-0.045
5815,-0.055,-0.045
5816,-0.045,-0.045
5817,-0.050,-0.040
5818,-0.045,-0.035
5819,-0.045,-0.035
5820,-0.040,-0.025
5821,-0.040,-0.020
5822,-0.035,-0.020
5823,-0.035,-0.020
5824,-0.035,-0.020
5825,-0.035,-0.025
5826,-0.040,-0.025
5827,-0.035,-0.030
5828,-0.035,-0.035
5829,-0.035,-0.040
5830,-0.040,-0.040
5831,-0.035,-0.040
5832,-0.035,-0.040
5833,-0.035,-0.040
5834,-0.035,-0.035
5835,-0.030,-0.030
5836,-0.025,-0.025
5837,-0.025,-0.010
5838,-0.015,0.000
5839,-0.010,0.000
5840,-0.005,0.005
5841,-0.005,0.010
5842,0.000,0.010
5843,0.000,0.015
5844,0.000,0.015
5845,0.000,0.020
5846,0.000,0.020
5847,0.000,0.025
5848,0.000,0.025
5849,0.000,0.025
5850,0.000,0.025
5851,0.000,0.025
5852,0.000,0.030
5853,0.000,0.030
5854,0.000,0.035
5855,0.000,0.040
5856,0.000,0.040
5857,0.010,0.050
5858,0.020,0.055
5859,0.025,0.055
5860,0.025,0.050
5861,0.025,0.050
5862,0.015,0.050
5863,0.020,0.050
5864,0.020,0.045
5865,0.020,0.040
5866,0.015,0.040
5867,0.010,0.035
5868,0.015,0.035
5869,0.015,0.035
5870,0.015,0.035
5871,0.015,0.035
5872,0.015,0.035
5873,0.010,0.035
5874,0.015,0.035
5875,0.010,0.030
5876,0.010,0.025
5877,0.005,0.025
5878,0.005,0.025
5879,0.005,0.025
5880,0.020,0.030
5881,0.025,0.030
5882,0.025,0.025
5883,0.015,0.025
5884,0.025,0.030
5885,0.025,0.030
5886,0.020,0.025
5887,0.010,0.020
5888,0.005,0.010
5889,0.000,0.005
5890,0.000,0.005
5891,0.000,0.005
5892,0.000,0.010
5893,0.000,0.010
5894,0.000,0.040
5895,0.030,0.120
5896,0.085,0.290
5897,0.320,0.450
5898,0.510,0.425
5899,0.490,0.220
5900,0.255,0.005
5901,0.025,-0.090
5902,-0.065,-0.080
5903,-0.070,-0.045
5904,-0.065,-0.030
5905,-0.045,-0.025
5906,-0.040,-0.020
5907,-0.035,-0.020
5908,-0.035,-0.020
5909,-0.035,-0.020
5910,-0.035,-0.020
5911,-0.035,-0.025
5912,-0.040,-0.025
5913,-0.040,-0.030
5914,-0.040,-0.035
5915,-0.040,-0.035
5916,-0.040,-0.030
5917,-0.035,-0.030
5918,-0.035,-0.030
5919,-0.030,-0.030
5920,-0.035,-0.030
5921,-0.030,-0.025
5922,-0.035,-0.020
5923,-0.025,-0.020
5924,-0.025,-0.020
5925,-0.025,-0.020
5926,-0.025,-0.020
5927,-0.020,-0.025
5928,-0.025,-0.025
5929,-0.015,-0.025
5930,-0.020,-0.025
5931,-0.015,-0.025
5932,-0.020,-0.030
5933,-0.020,-0.025
5934,-0.020,-0.020
5935,-0.020,-0.020
5936,-0.020,-0.015
5937,-0.020,-0.015
5938,-0.015,-0.005
5939,-0.015,0.000
5940,0.000,0.000
5941,0.000,0.005
5942,0.000,0.010
5943,0.000,0.020
5944,0.000,0.025
5945,0.000,0.020
5946,0.000,0.020
5947,0.000,0.025
5948,0.000,0.030
5949,0.000,0.025
5950,0.000,0.025
5951,0.000,0.025
5952,0.000,0.025
5953,0.000,0.025
5954,0.000,0.025
5955,0.000,0.025
5956,0.000,0.020
5957,0.000,0.020
5958,0.000,0.020
5959,0.000,0.025
5960,0.000,0.025
5961,0.000,0.025
5962,0.005,0.020
5963,0.005,0.020
5964,0.000,0.020
5965,0.000,0.020
5966,0.000,0.015
5967,0.000,0.015
5968,0.000,0.020
5969,0.000,0.020
5970,0.000,0.020
5971,0.000,0.020
5972,0.000,0.015
5973,0.000,0.015
5974,0.000,0.015
5975,0.000,0.010
5976,0.000,0.010
5977,0.000,0.015
5978,0.000,0.015
5979,0.000,0.015
5980,0.000,0.015
5981,0.000,0.010
5982,0.000,0.010
5983,0.005,0.015
5984,0.005,0.020
5985,0.005,0.020
5986,0.005,0.020
5987,0.005,0.020
5988,0.005,0.020
5989,0.010,0.020
5990,0.000,0.010
5991,0.000,0.005
5992,-0.005,0.000
5993,-0.010,0.000
5994,-0.015,0.000
5995,-0.010,0.000
5996,-0.005,0.000
5997,-0.005,0.020
5998,0.000,0.090
5999,0.050,0.255
6000,0.245,0.465
6001,0.505,0.555
6002,0.585,0.405
6003,0.385,0.145
6004,0.100,-0.030
6005,-0.055,-0.080
6006,-0.080,-0.070
6007,-0.080,-0.055
6008,-0.070,-0.055
6009,-0.065,-0.055
6010,-0.055,-0.055
6011,-0.065,-0.055
6012,-0.065,-0.055
6013,-0.065,-0.055
6014,-0.060,-0.055
6015,-0.060,-0.055
6016,-0.065,-0.055
6017,-0.055,-0.055
6018,-0.055,-0.055
6019,-0.060,-0.055
6020,-0.065,-0.060
6021,-0.055,-0.060
6022,-0.060,-0.055
6023,-0.050,-0.055
6024,-0.060,-0.050
6025,-0.050,-0.050
6026,-0.055,-0.050
6027,-0.045,-0.050
6028,-0.050,-0.045
6029,-0.045,-0.045
6030,-0.055,-0.045
6031,-0.050,-0.045
6032,-0.055,-0.050
6033,-0.050,-0.050
6034,-0.055,-0.055
6035,-0.055,-0.060
6036,-0.060,-0.060
6037,-0.055,-0.060
6038,-0.055,-0.060
6039,-0.055,-0.060
6040,-0.050,-0.055
6041,-0.045,-0.045
6042,-0.040,-0.035
6043,-0.035,-0.025
6044,-0.025,-0.015
6045,-0.020,-0.005
6046,-0.020,0.000
6047,-0.010,0.000
6048,-0.010,0.000
6049,0.000,0.010
6050,-0.005,0.010
6051,0.000,0.015
6052,-0.005,0.015
6053,0.000,0.015
6054,0.000,0.020
6055,0.000,0.025
6056,0.000,0.025
6057,0.000,0.030
6058,0.000,0.035
6059,0.000,0.035
6060,0.000,0.040
6061,0.005,0.040
6062,0.005,0.040
6063,0.005,0.040
6064,0.005,0.035
6065,0.005,0.035
6066,0.010,0.035
6067,0.005,0.030
6068,0.005,0.030
6069,0.000,0.030
6070,0.000,0.030
6071,0.000,0.025
6072,0.000,0.025
6073,0.000,0.025
6074,0.000,0.025
6075,0.000,0.025
6076,0.000,0.025
6077,0.000,0.020
6078,0.000,0.020
6079,0.000,0.020
6080,0.000,0.015
6081,0.000,0.010
6082,0.000,0.010
6083,0.000,0.010
6084,0.000,0.010
6085,0.000,0.010
6086,0.000,0.015
6087,0.000,0.015
6088,0.000,0.015
6089,0.000,0.015
6090,0.000,0.015
6091,0.000,0.020
6092,0.000,0.015
6093,0.000,0.005
6094,0.000,0.000
6095,-0.020,0.000
6096,-0.020,0.000
6097,-0.015,0.000
6098,-0.010,0.000
6099,-0.010,0.010
6100,0.000,0.045
6101,0.010,0.155
6102,0.130,0.345
6103,0.390,0.465
6104,0.530,0.355
6105,0.410,0.105
6106,0.130,-0.075
6107,-0.060,-0.125
6108,-0.090,-0.095
6109,-0.090,-0.060
6110,-0.070,-0.045
6111,-0.060,-0.040
6112,-0.050,-0.040
6113,-0.050,-0.040
6114,-0.050,-0.040
6115,-0.050,-0.040
6116,-0.050,-0.040
6117,-0.050,-0.040
6118,-0.050,-0.040
6119,-0.050,-0.040
6120,-0.055,-0.040
6121,-0.050,-0.040
6122,-0.055,-0.040
6123,-0.055,-0.040
6124,-0.050,-0.040
6125,-0.050,-0.040
6126,-0.050,-0.035
6127,-0.050,-0.035
6128,-0.040,-0.030
6129,-0.040,-0.025
6130,-0.035,-0.025
6131,-0.040,-0.025
6132,-0.030,-0.025
6133,-0.040,-0.030
6134,-0.030,-0.030
6135,-0.035,-0.030
6136,-0.030,-0.035
6137,-0.035,-0.035
6138,-0.030,-0.035
6139,-0.035,-0.035
6140,-0.035,-0.035
6141,-0.030,-0.035
6142,-0.025,-0.030
6143,-0.025,-0.020
6144,-0.025,-0.015
6145,-0.015,-0.005
6146,-0.015,0.000
6147,0.000,0.000
6148,-0.005,0.005
6149,0.000,0.010
6150,0.000,0.015
6151,0.000,0.015
6152,0.000,0.015
6153,0.000,0.020
6154,-0.005,0.020
6155,0.000,0.020
6156,0.000,0.020
6157,0.000,0.020
6158,0.000,0.020
6159,0.000,0.020
6160,0.000,0.020
6161,0.000,0.020
6162,0.000,0.020
6163,0.000,0.025
6164,0.000,0.025
6165,0.000,0.025
6166,0.000,0.025
6167,0.000,0.025
6168,0.000,0.025
6169,0.000,0.020
6170,0.000,0.020
6171,0.000,0.025
6172,0.000,0.025
6173,0.000,0.025
6174,0.000,0.025
6175,0.000,0.025
6176,0.000,0.025
6177,0.000,0.020
6178,0.000,0.020
6179,0.000,0.020
6180,0.000,0.025
6181,0.000,0.020
6182,0.000,0.020
6183,0.000,0.025
6184,0.000,0.025
6185,0.000,0.025
6186,0.000,0.025
6187,0.000,0.025
6188,0.005,0.025
6189,0.005,0.025
6190,0.005,0.025
6191,0.005,0.025
6192,0.005,0.025
6193,0.010,0.030
6194,0.005,0.020
6195,0.000,0.010
6196,0.000,0.005
6197,-0.010,0.005
6198,0.000,0.005
6199,-0.010,0.005
6200,0.000,0.010
6201,0.000,0.030
6202,0.005,0.095
6203,0.045,0.255
6204,0.240,0.455
6205,0.495,0.535
6206,0.570,0.390
6207,0.380,0.140
6208,0.105,-0.025
6209,-0.045,-0.075
6210,-0.080,-0.070
6211,-0.075,-0.060
6212,-0.060,-0.045
6213,-0.050,-0.035
6214,-0.055,-0.035
6215,-0.050,-0.035
6216,-0.055,-0.045
6217,-0.050,-0.045
6218,-0.050,-0.035
6219,-0.045,-0.035
6220,-0.045,-0.035
6221,-0.050,-0.035
6222,-0.050,-0.040
6223,-0.050,-0.035
6224,-0.050,-0.035
6225,-0.055,-0.035
6226,-0.050,-0.030
6227,-0.055,-0.025
6228,-0.035,-0.015
6229,-0.030,0.000
6230,-0.020,0.000
6231,-0.030,0.000
6232,-0.020,0.000
6233,-0.025,0.000
6234,-0.020,-0.005
6235,-0.030,-0.005
6236,-0.025,-0.005
6237,-0.030,-0.010
6238,-0.025,-0.010
6239,-0.025,-0.015
6240,-0.020,-0.015
6241,-0.020,-0.020
6242,-0.025,-0.020
6243,-0.025,-0.015
6244,-0.020,-0.010
6245,-0.020,-0.005
6246,-0.015,0.000
6247,-0.005,0.000
6248,-0.005,0.000
6249,0.000,0.005
6250,0.000,0.010
6251,0.000,0.010
6252,0.000,0.015
6253,0.000,0.020
6254,0.000,0.020
6255,0.000,0.020
6256,0.000,0.020
6257,0.000,0.020
6258,0.000,0.020
6259,0.000,0.025
6260,0.000,0.025
6261,0.000,0.025
6262,0.000,0.030
6263,0.000,0.030
6264,0.000,0.030
6265,0.000,0.035
6266,0.005,0.035
6267,0.005,0.035
6268,0.005,0.030
6269,0.005,0.030
6270,0.005,0.030
6271,0.000,0.025
6272,0.000,0.025
6273,0.000,0.025
6274,0.000,0.025
6275,0.000,0.025
6276,0.000,0.025
6277,0.000,0.025
6278,0.000,0.025
6279,0.000,0.025
6280,0.000,0.020
6281,0.000,0.020
6282,0.000,0.020
6283,0.000,0.020
6284,0.000,0.020
6285,0.000,0.020
6286,0.000,0.020
6287,0.000,0.020
6288,0.000,0.025
6289,0.005,0.025
6290,0.010,0.025
6291,0.010,0.030
6292,0.010,0.030
6293,0.010,0.030
6294,0.015,0.035
6295,0.015,0.030
6296,0.010,0.025
6297,0.005,0.015
6298,0.000,0.005
6299,0.000,0.005
6300,-0.005,0.010
6301,0.000,0.010
6302,0.000,0.015
6303,0.000,0.040
6304,0.020,0.115
6305,0.080,0.260
6306,0.255,0.425
6307,0.495,0.450
6308,0.500,0.265
6309,0.305,0.025
6310,0.025,-0.095
6311,-0.075,-0.090
6312,-0.070,-0.045
6313,-0.055,-0.030
6314,-0.045,-0.020
6315,-0.035,-0.020
6316,-0.035,-0.020
6317,-0.035,-0.020
6318,-0.035,-0.020
6319,-0.035,-0.020
6320,-0.035,-0.020
6321,-0.035,-0.025
6322,-0.040,-0.030
6323,-0.040,-0.030
6324,-0.035,-0.030
6325,-0.035,-0.030
6326,-0.035,-0.025
6327,-0.035,-0.025
6328,-0.030,-0.025
6329,-0.035,-0.025
6330,-0.030,-0.020
6331,-0.030,-0.020
6332,-0.025,-0.015
6333,-0.025,-0.010
6334,-0.020,-0.005
6335,-0.020,-0.005
6336,-0.020,-0.005
6337,-0.020,-0.005
6338,-0.020,-0.010
6339,-0.015,-0.015
6340,-0.020,-0.015
6341,-0.015,-0.020
6342,-0.020,-0.020
6343,-0.015,-0.020
6344,-0.020,-0.020
6345,-0.020,-0.015
6346,-0.015,-0.010
6347,-0.005,0.000
6348,0.000,0.000
6349,0.000,0.000
6350,0.000,0.005
6351,0.000,0.010
6352,0.000,0.020
6353,0.000,0.025
6354,0.000,0.025
6355,0.000,0.030
6356,0.000,0.030
6357,0.000,0.030
6358,0.000,0.030
6359,0.000,0.030
6360,0.005,0.030
6361,0.000,0.025
6362,0.000,0.025
6363,0.000,0.030
6364,0.000,0.030
6365,0.000,0.030
6366,0.000,0.030
6367,0.000,0.035
6368,0.005,0.035
6369,0.005,0.040
6370,0.005,0.035
6371,0.005,0.035
6372,0.005,0.035
6373,0.010,0.035
6374,0.005,0.030
6375,0.005,0.025
6376,0.005,0.025
6377,0.005,0.025
6378,0.000,0.025
6379,0.000,0.025
6380,0.000,0.025
6381,0.000,0.020
6382,0.000,0.020
6383,0.000,0.020
6384,0.005,0.020
6385,0.000,0.025
6386,0.005,0.025
6387,0.000,0.025
6388,0.005,0.025
6389,0.000,0.025
6390,0.010,0.030
6391,0.010,0.025
6392,0.015,0.025
6393,0.010,0.025
6394,0.015,0.025
6395,0.015,0.030
6396,0.020,0.025
6397,0.005,0.015
6398,0.000,0.005
6399,-0.005,0.005
6400,-0.010,0.005
6401,0.000,0.005
6402,0.000,0.005
6403,0.000,0.010
6404,0.000,0.045
6405,0.030,0.135
6406,0.100,0.310
6407,0.355,0.465
6408,0.525,0.420
6409,0.480,0.200
6410,0.225,0.000
6411,0.005,-0.085
6412,-0.070,-0.075
6413,-0.070,-0.045
6414,-0.065,-0.035
6415,-0.045,-0.025
6416,-0.040,-0.025
6417,-0.030,-0.025
6418,-0.035,-0.025
6419,-0.035,-0.025
6420,-0.035,-0.030
6421,-0.035,-0.025
6422,-0.035,-0.025
6423,-0.035,-0.025
6424,-0.035,-0.030
6425,-0.040,-0.030
6426,-0.035,-0.025
6427,-0.035,-0.025
6428,-0.035,-0.025
6429,-0.030,-0.030
6430,-0.035,-0.025
6431,-0.030,-0.025
6432,-0.035,-0.020
6433,-0.020,-0.010
6434,-0.020,-0.005
6435,-0.015,-0.005
6436,-0.020,-0.005
6437,-0.015,-0.010
6438,-0.025,-0.015
6439,-0.010,-0.015
6440,-0.025,-0.015
6441,-0.010,-0.010
6442,-0.010,-0.010
6443,-0.010,-0.010
6444,-0.015,-0.010
6445,-0.015,-0.015
6446,-0.015,-0.015
6447,-0.010,0.000
6448,0.000,0.000
6449,0.000,0.000
6450,0.000,0.000
6451,0.000,0.005
6452,0.000,0.015
6453,0.000,0.020
6454,0.000,0.020
6455,0.000,0.020
6456,0.000,0.020
6457,0.000,0.020
6458,0.005,0.025
6459,0.000,0.025
6460,0.000,0.025
6461,0.000,0.015
6462,0.000,0.015
6463,0.000,0.015
6464,0.000,0.015
6465,0.000,0.020
6466,0.000,0.025
6467,0.000,0.020
6468,0.000,0.015
6469,0.000,0.015
6470,0.000,0.020
6471,0.000,0.025
6472,0.000,0.025
6473,0.000,0.025
6474,0.000,0.025
6475,0.005,0.020
6476,0.000,0.015
6477,0.000,0.015
6478,0.000,0.020
6479,0.000,0.020
6480,0.000,0.015
6481,0.000,0.015
6482,0.000,0.015
6483,0.000,0.020
6484,0.000,0.015
6485,0.000,0.015
6486,0.000,0.015
6487,0.000,0.015
6488,0.000,0.015
6489,0.000,0.015
6490,0.000,0.015
6491,0.000,0.015
6492,0.000,0.015
6493,0.005,0.020
6494,0.010,0.020
6495,0.000,0.020
6496,0.010,0.020
6497,0.010,0.020
6498,0.010,0.020
6499,0.005,0.020
6500,0.000,0.010
6501,0.000,0.000
6502,0.000,0.000
6503,0.000,0.000
6504,0.000,0.000
6505,-0.005,0.000
6506,0.000,0.005
6507,0.000,0.030
6508,0.005,0.135
6509,0.110,0.340
6510,0.350,0.520
6511,0.560,0.510
6512,0.525,0.285
6513,0.265,0.040
6514,0.020,-0.070
6515,-0.075,-0.080
6516,-0.075,-0.065
6517,-0.065,-0.055
6518,-0.055,-0.050
6519,-0.065,-0.050
6520,-0.055,-0.050
6521,-0.060,-0.050
6522,-0.055,-0.050
6523,-0.060,-0.050
6524,-0.055,-0.055
6525,-0.055,-0.055
6526,-0.055,-0.055
6527,-0.060,-0.055
6528,-0.055,-0.055
6529,-0.055,-0.055
6530,-0.055,-0.055
6531,-0.055,-0.055
6532,-0.055,-0.050
6533,-0.050,-0.050
6534,-0.055,-0.045
6535,-0.045,-0.045
6536,-0.055,-0.040
6537,-0.045,-0.040
6538,-0.055,-0.045
6539,-0.045,-0.045
6540,-0.055,-0.050
6541,-0.050,-0.055
6542,-0.055,-0.055
6543,-0.055,-0.060
6544,-0.060,-0.060
6545,-0.055,-0.060
6546,-0.060,-0.065
6547,-0.060,-0.065
6548,-0.055,-0.060
6549,-0.050,-0.055
6550,-0.050,-0.050
6551,-0.045,-0.040
6552,-0.035,-0.025
6553,-0.030,-0.015
6554,-0.020,-0.005
6555,-0.015,0.000
6556,-0.010,0.000
6557,-0.005,0.005
6558,0.000,0.010
6559,0.000,0.015
6560,0.000,0.020
6561,0.000,0.020
6562,0.000,0.025
6563,0.000,0.025
6564,0.000,0.030
6565,0.000,0.035
6566,0.000,0.040
6567,0.010,0.045
6568,0.010,0.055
6569,0.020,0.055
6570,0.010,0.060
6571,0.020,0.060
6572,0.010,0.060
6573,0.020,0.055
6574,0.010,0.055
6575,0.015,0.050
6576,0.010,0.050
6577,0.010,0.045
6578,0.010,0.045
6579,0.010,0.035
6580,0.010,0.030
6581,0.005,0.030
6582,0.005,0.035
6583,0.005,0.035
6584,0.010,0.030
6585,0.005,0.025
6586,0.000,0.025
6587,0.000,0.025
6588,0.005,0.025
6589,0.000,0.025
6590,0.005,0.025
6591,0.000,0.025
6592,0.005,0.025
6593,0.010,0.030
6594,0.015,0.035
6595,0.020,0.030
6596,0.015,0.025
6597,0.015,0.025
6598,0.020,0.030
6599,0.020,0.030
6600,0.010,0.025
6601,0.005,0.015
6602,0.000,0.010
6603,0.000,0.010
6604,0.000,0.010
6605,0.000,0.010
6606,0.000,0.010
6607,0.000,0.030
6608,0.010,0.090
6609,0.060,0.230
6610,0.215,0.395
6611,0.455,0.415
6612,0.475,0.235
6613,0.305,-0.010
6614,0.055,-0.150
6615,-0.085,-0.140
6616,-0.075,-0.070
6617,-0.070,-0.030
6618,-0.045,-0.020
6619,-0.045,-0.010
6620,-0.030,-0.010
6621,-0.045,-0.010
6622,-0.035,-0.015
6623,-0.040,-0.015
6624,-0.035,-0.015
6625,-0.035,-0.020
6626,-0.035,-0.020
6627,-0.040,-0.025
6628,-0.040,-0.020
6629,-0.040,-0.020
6630,-0.040,-0.020
6631,-0.040,-0.020
6632,-0.040,-0.020
6633,-0.035,-0.015
6634,-0.035,-0.010
6635,-0.030,-0.010
6636,-0.030,-0.010
6637,-0.030,-0.005
6638,-0.025,-0.005
6639,-0.025,-0.010
6640,-0.020,-0.010
6641,-0.025,-0.010
6642,-0.020,-0.010
6643,-0.025,-0.010
6644,-0.015,-0.010
6645,-0.025,-0.015
6646,-0.015,-0.015
6647,-0.025,-0.015
6648,-0.015,-0.010
6649,-0.020,-0.005
6650,-0.010,0.000
6651,-0.010,0.000
6652,-0.005,0.005
6653,0.000,0.010
6654,0.000,0.015
6655,0.000,0.020
6656,0.000,0.025
6657,0.000,0.025
6658,0.000,0.025
6659,0.000,0.025
6660,0.000,0.025
6661,0.000,0.025
6662,0.000,0.025
6663,0.000,0.025
6664,0.000,0.020
6665,0.000,0.020
6666,0.000,0.020
6667,0.000,0.025
6668,0.000,0.020
6669,0.000,0.020
6670,0.000,0.020
6671,0.000,0.025
6672,0.000,0.025
6673,0.000,0.030
6674,0.000,0.025
6675,0.005,0.025
6676,0.005,0.025
6677,0.005,0.025
6678,0.000,0.025
6679,0.000,0.025
6680,0.005,0.025
6681,0.005,0.025
6682,0.005,0.025
6683,0.000,0.025
6684,0.000,0.025
6685,0.005,0.025
6686,0.005,0.025
6687,0.000,0.025
6688,0.000,0.025
6689,0.005,0.020
6690,0.000,0.020
6691,0.000,0.020
6692,0.000,0.030
6693,0.010,0.030
6694,0.010,0.025
6695,0.015,0.025
6696,0.010,0.030
6697,0.025,0.030
6698,0.010,0.030
6699,0.015,0.030
6700,0.005,0.020
6701,0.000,0.005
6702,-0.005,0.000
6703,0.000,0.000
6704,0.000,0.005
6705,0.000,0.005
6706,0.000,0.025
6707,0.010,0.075
6708,0.040,0.205
6709,0.190,0.375
6710,0.420,0.430
6711,0.490,0.290
6712,0.350,0.070
6713,0.100,-0.080
6714,-0.055,-0.105
6715,-0.085,-0.065
6716,-0.065,-0.035
6717,-0.055,-0.020
6718,-0.045,-0.015
6719,-0.045,-0.015
6720,-0.040,-0.015
6721,-0.035,-0.020
6722,-0.040,-0.020
6723,-0.040,-0.020
6724,-0.040,-0.020
6725,-0.040,-0.025
6726,-0.045,-0.025
6727,-0.040,-0.025
6728,-0.045,-0.025
6729,-0.045,-0.030
6730,-0.040,-0.030
6731,-0.040,-0.025
6732,-0.035,-0.020
6733,-0.035,-0.020
6734,-0.035,-0.020
6735,-0.030,-0.020
6736,-0.030,-0.015
6737,-0.030,-0.015
6738,-0.025,-0.015
6739,-0.025,-0.020
6740,-0.020,-0.020
6741,-0.025,-0.020
6742,-0.020,-0.020
6743,-0.025,-0.025
6744,-0.020,-0.025
6745,-0.025,-0.025
6746,-0.020,-0.030
6747,-0.025,-0.030
6748,-0.015,-0.025
6749,-0.020,-0.020
6750,-0.010,-0.010
6751,-0.010,0.000
6752,0.000,0.000
6753,-0.005,0.000
6754,0.000,0.000
6755,-0.010,0.000
6756,-0.010,0.005
6757,-0.010,0.005
6758,-0.005,0.005
6759,-0.005,0.010
6760,-0.005,0.010
6761,0.000,0.010
6762,-0.005,0.005
6763,-0.010,0.005
6764,-0.010,0.005
6765,-0.005,0.005
6766,0.000,0.010
6767,-0.005,0.010
6768,0.000,0.010
6769,-0.005,0.010
6770,0.000,0.010
6771,-0.005,0.015
6772,0.000,0.015
6773,0.000,0.015
6774,0.000,0.015
6775,0.000,0.015
6776,0.000,0.015
6777,0.000,0.015
6778,0.000,0.010
6779,0.000,0.010
6780,0.000,0.010
