'sample interval','ECG0','ECG1'
'0.0078125 sec','mV','mV'
0,-0.070,-0.065
1,-0.065,-0.060
2,-0.055,-0.060
3,-0.055,-0.060
4,-0.055,-0.060
5,-0.060,-0.060
6,-0.055,-0.055
7,-0.055,-0.050
8,-0.040,-0.050
9,-0.055,-0.050
10,-0.060,-0.055
11,-0.065,-0.055
12,-0.055,-0.055
13,-0.060,-0.050
14,-0.045,-0.045
15,-0.045,-0.045
16,-0.040,-0.045
17,-0.045,-0.045
18,-0.040,-0.045
19,-0.040,-0.045
20,-0.035,-0.040
21,-0.035,-0.030
22,-0.030,-0.025
23,-0.020,-0.010
24,-0.015,0.000
25,-0.010,0.000
26,-0.010,0.000
27,0.000,0.010
28,0.000,0.020
29,0.000,0.025
30,0.000,0.025
31,0.000,0.025
32,0.000,0.025
33,0.000,0.025
34,0.000,0.025
35,0.000,0.025
36,0.000,0.030
37,0.000,0.030
38,0.000,0.025
39,0.000,0.025
40,0.000,0.025
41,-0.005,0.030
42,0.000,0.030
43,0.000,0.030
44,0.005,0.030
45,0.000,0.030
46,0.000,0.025
47,0.000,0.025
48,0.000,0.025
49,0.000,0.025
50,0.005,0.030
51,0.000,0.025
52,0.000,0.025
53,0.000,0.025
54,0.000,0.025
55,0.000,0.025
56,0.000,0.025
57,0.010,0.025
58,0.005,0.025
59,0.000,0.020
60,0.000,0.020
61,0.000,0.020
62,0.000,0.025
63,0.000,0.025
64,0.000,0.020
65,0.000,0.020
66,0.000,0.020
67,0.000,0.020
68,0.000,0.025
69,0.000,0.020
70,0.000,0.020
71,0.000,0.015
72,0.000,0.015
73,0.000,0.015
74,0.000,0.020
75,0.000,0.020
76,0.000,0.020
77,0.000,0.015
78,0.000,0.015
79,0.000,0.020
80,0.000,0.020
81,0.000,0.020
82,0.000,0.020
83,0.000,0.020
84,0.000,0.020
85,0.000,0.020
86,0.000,0.020
87,0.005,0.025
88,0.000,0.025
89,0.000,0.025
90,0.000,0.025
91,0.010,0.025
92,0.005,0.025
93,0.005,0.025
94,0.000,0.015
95,0.000,0.005
96,-0.010,0.000
97,0.000,0.000
98,-0.010,0.005
99,0.000,0.005
100,0.000,0.010
101,0.005,0.045
102,0.020,0.130
103,0.105,0.295
104,0.315,0.435
105,0.480,0.395
106,0.430,0.185
107,0.210,-0.035
108,-0.005,-0.125
109,-0.085,-0.105
110,-0.070,-0.060
111,-0.050,-0.040
112,-0.045,-0.035
113,-0.045,-0.030
114,-0.045,-0.025
115,-0.035,-0.025
116,-0.030,-0.025
117,-0.025,-0.030
118,-0.045,-0.035
119,-0.045,-0.040
120,-0.060,-0.035
121,-0.045,-0.030
122,-0.045,-0.030
123,-0.030,-0.030
124,-0.050,-0.030
125,-0.040,-0.030
126,-0.040,-0.030
127,-0.040,-0.025
128,-0.045,-0.025
129,-0.035,-0.020
130,-0.025,-0.010
131,-0.015,-0.010
132,-0.025,-0.010
133,-0.035,-0.015
134,-0.030,-0.010
135,-0.025,-0.010
136,-0.015,-0.010
137,-0.025,-0.010
138,-0.015,-0.010
139,-0.015,-0.005
140,-0.005,0.000
141,0.000,0.000
142,0.000,0.000
143,-0.005,-0.005
144,-0.005,-0.005
145,-0.005,0.000
146,-0.005,0.000
147,-0.010,0.000
148,-0.010,0.000
149,-0.005,0.005
150,0.000,0.010
151,0.000,0.020
152,0.000,0.025
153,0.000,0.025
154,0.000,0.025
155,0.000,0.025
156,0.000,0.025
157,0.000,0.025
158,0.000,0.025
159,0.000,0.025
160,0.000,0.020
161,0.000,0.020
162,0.000,0.020
163,0.000,0.020
164,0.000,0.020
165,0.000,0.025
166,0.025,0.060
167,0.040,0.185
168,0.165,0.440
169,0.400,0.680
170,0.645,0.675
171,0.425,0.420
172,0.180,0.170
173,0.015,0.035
174,-0.035,-0.025
175,-0.055,-0.060
176,-0.045,-0.065
177,-0.055,-0.070
178,-0.045,-0.065
179,-0.045,-0.065
180,-0.040,-0.070
181,-0.050,-0.070
182,-0.055,-0.075
183,-0.055,-0.080
184,-0.055,-0.080
185,-0.050,-0.080
186,-0.050,-0.080
187,-0.055,-0.080
188,-0.060,-0.080
189,-0.050,-0.080
190,-0.050,-0.080
191,-0.050,-0.080
192,-0.050,-0.080
193,-0.050,-0.075
194,-0.050,-0.075
195,-0.050,-0.075
196,-0.045,-0.080
197,-0.045,-0.080
198,-0.045,-0.080
199,-0.050,-0.085
200,-0.040,-0.085
201,-0.045,-0.080
202,-0.035,-0.075
203,-0.040,-0.070
204,-0.030,-0.065
205,-0.030,-0.050
206,-0.015,-0.035
207,-0.015,-0.020
208,-0.015,-0.005
209,-0.010,0.000
210,0.000,0.010
211,0.000,0.020
212,0.000,0.025
213,0.000,0.025
214,0.000,0.025
215,0.005,0.030
216,0.000,0.035
217,0.005,0.040
218,0.000,0.035
219,0.000,0.035
220,0.000,0.035
221,0.005,0.035
222,0.000,0.035
223,0.005,0.035
224,0.000,0.035
225,0.000,0.035
226,0.000,0.035
227,0.005,0.035
228,0.000,0.035
229,0.005,0.035
230,0.005,0.035
231,0.005,0.030
232,0.000,0.030
233,0.000,0.030
234,0.000,0.030
235,0.000,0.025
236,0.005,0.025
237,0.000,0.030
238,0.000,0.030
239,0.000,0.030
240,0.000,0.030
241,0.000,0.025
242,0.000,0.025
243,0.000,0.020
244,0.000,0.020
245,0.000,0.020
246,0.000,0.025
247,0.005,0.025
248,0.000,0.025
249,0.000,0.025
250,0.000,0.025
251,0.000,0.025
252,0.000,0.025
253,0.000,0.025
254,0.000,0.025
255,0.000,0.025
256,0.000,0.025
257,0.000,0.025
258,0.000,0.025
259,0.000,0.025
260,0.005,0.025
261,0.005,0.025
262,0.005,0.025
263,0.000,0.020
264,0.000,0.020
265,0.000,0.025
266,0.000,0.025
267,0.000,0.025
268,0.000,0.025
269,0.000,0.025
270,0.010,0.025
271,0.010,0.030
272,0.020,0.035
273,0.015,0.030
274,0.005,0.020
275,0.000,0.010
276,-0.010,0.005
277,-0.015,0.005
278,-0.015,0.005
279,-0.010,0.005
280,0.000,0.015
281,0.000,0.030
282,0.000,0.075
283,0.025,0.200
284,0.155,0.420
285,0.435,0.585
286,0.600,0.515
287,0.475,0.255
288,0.185,0.025
289,-0.015,-0.050
290,-0.070,-0.055
291,-0.070,-0.055
292,-0.055,-0.050
293,-0.060,-0.050
294,-0.050,-0.050
295,-0.060,-0.050
296,-0.045,-0.050
297,-0.060,-0.050
298,-0.045,-0.055
299,-0.055,-0.055
300,-0.045,-0.055
301,-0.060,-0.055
302,-0.045,-0.055
303,-0.065,-0.060
304,-0.055,-0.060
305,-0.065,-0.055
306,-0.050,-0.055
307,-0.060,-0.060
308,-0.050,-0.055
309,-0.050,-0.050
310,-0.040,-0.050
311,-0.050,-0.055
312,-0.060,-0.055
313,-0.055,-0.045
314,-0.055,-0.040
315,-0.045,-0.040
316,-0.045,-0.040
317,-0.040,-0.045
318,-0.040,-0.045
319,-0.035,-0.045
320,-0.040,-0.045
321,-0.035,-0.040
322,-0.025,-0.035
323,-0.020,-0.035
324,-0.020,-0.035
325,-0.030,-0.035
326,-0.030,-0.035
327,-0.035,-0.035
328,-0.025,-0.030
329,-0.030,-0.025
330,-0.025,-0.015
331,-0.035,-0.010
332,-0.030,0.000
333,-0.035,0.000
334,-0.015,0.000
335,-0.010,0.005
336,0.000,0.010
337,-0.005,0.005
338,-0.010,0.005
339,-0.010,0.010
340,-0.005,0.010
341,0.000,0.015
342,0.000,0.015
343,0.000,0.020
344,0.000,0.015
345,0.000,0.020
346,0.000,0.100
347,0.080,0.305
348,0.270,0.565
349,0.540,0.675
350,0.510,0.530
351,0.295,0.290
352,0.085,0.110
353,-0.005,0.000
354,-0.050,-0.050
355,-0.050,-0.070
356,-0.055,-0.075
357,-0.055,-0.080
358,-0.060,-0.080
359,-0.060,-0.085
360,-0.065,-0.085
361,-0.055,-0.085
362,-0.050,-0.085
363,-0.055,-0.085
364,-0.060,-0.090
365,-0.070,-0.095
366,-0.060,-0.090
367,-0.055,-0.090
368,-0.060,-0.090
369,-0.060,-0.085
370,-0.060,-0.085
371,-0.055,-0.085
372,-0.060,-0.085
373,-0.055,-0.085
374,-0.060,-0.085
375,-0.045,-0.090
376,-0.060,-0.095
377,-0.045,-0.100
378,-0.060,-0.100
379,-0.045,-0.095
380,-0.060,-0.090
381,-0.040,-0.085
382,-0.035,-0.080
383,-0.030,-0.075
384,-0.055,-0.070
385,-0.040,-0.055
386,-0.040,-0.035
387,-0.015,-0.015
388,-0.015,0.000
389,0.000,0.000
390,0.000,0.010
391,0.000,0.020
392,0.000,0.025
393,0.000,0.030
394,0.005,0.035
395,0.005,0.040
396,0.005,0.040
397,0.000,0.035
398,0.000,0.035
399,0.000,0.035
400,0.005,0.040
401,0.000,0.040
402,0.005,0.040
403,0.000,0.040
404,0.005,0.040
405,0.000,0.040
406,0.005,0.040
407,0.005,0.035
408,0.000,0.035
409,0.000,0.040
410,0.000,0.040
411,0.005,0.035
412,0.000,0.035
413,0.000,0.035
414,0.000,0.035
415,0.005,0.030
416,0.000,0.030
417,0.000,0.030
418,0.000,0.030
419,0.000,0.030
420,0.005,0.030
421,0.005,0.025
422,0.000,0.025
423,0.000,0.025
424,0.000,0.025
425,0.000,0.025
426,0.000,0.025
427,0.000,0.025
428,0.000,0.025
429,0.000,0.025
430,0.000,0.025
431,0.000,0.025
432,0.005,0.025
433,0.000,0.025
434,0.000,0.025
435,0.000,0.025
436,0.005,0.025
437,0.000,0.025
438,0.000,0.025
439,0.000,0.025
440,0.000,0.025
441,0.000,0.025
442,0.000,0.025
443,0.000,0.025
444,0.000,0.025
445,0.000,0.025
446,0.000,0.025
447,0.000,0.025
448,0.000,0.030
449,0.015,0.035
450,0.015,0.030
451,0.000,0.025
452,0.000,0.025
453,0.005,0.030
454,0.005,0.030
455,0.005,0.030
456,0.010,0.025
457,0.000,0.015
458,0.000,0.005
459,-0.010,0.005
460,0.000,0.005
461,0.000,0.010
462,0.000,0.015
463,0.000,0.020
464,0.010,0.055
465,0.020,0.160
466,0.125,0.355
467,0.390,0.510
468,0.560,0.435
469,0.445,0.175
470,0.150,-0.035
471,-0.045,-0.090
472,-0.080,-0.065
473,-0.055,-0.040
474,-0.055,-0.035
475,-0.040,-0.035
476,-0.040,-0.035
477,-0.030,-0.035
478,-0.045,-0.035
479,-0.040,-0.035
480,-0.050,-0.035
481,-0.040,-0.040
482,-0.045,-0.040
483,-0.040,-0.040
484,-0.040,-0.040
485,-0.035,-0.040
486,-0.040,-0.040
487,-0.040,-0.040
488,-0.045,-0.035
489,-0.040,-0.035
490,-0.040,-0.030
491,-0.040,-0.030
492,-0.040,-0.025
493,-0.035,-0.020
494,-0.030,-0.020
495,-0.030,-0.020
496,-0.025,-0.020
497,-0.025,-0.015
498,-0.020,-0.015
499,-0.015,-0.015
500,-0.025,-0.020
501,-0.025,-0.030
502,-0.035,-0.025
503,-0.020,-0.025
504,-0.025,-0.025
505,-0.010,-0.030
506,-0.030,-0.025
507,-0.010,-0.015
508,-0.020,-0.010
509,-0.005,0.000
510,-0.010,0.000
511,0.000,0.000
512,-0.005,0.005
513,0.000,0.010
514,0.000,0.015
515,0.000,0.020
516,0.000,0.025
517,0.005,0.030
518,0.005,0.030
519,0.005,0.030
520,0.000,0.025
521,0.000,0.025
522,0.000,0.025
523,0.000,0.025
524,0.000,0.025
525,0.000,0.025
526,0.000,0.030
527,0.000,0.030
528,0.000,0.030
529,0.000,0.035
530,0.005,0.040
531,0.005,0.040
532,0.005,0.040
533,0.005,0.035
534,0.000,0.035
535,0.005,0.035
536,0.000,0.035
537,0.005,0.035
538,0.000,0.035
539,0.005,0.030
540,0.000,0.030
541,0.005,0.030
542,0.000,0.030
543,0.000,0.030
544,0.000,0.025
545,0.005,0.025
546,0.005,0.025
547,0.005,0.025
548,0.000,0.025
549,0.000,0.025
550,0.000,0.025
551,0.000,0.025
552,0.010,0.025
553,0.000,0.025
554,0.000,0.025
555,0.000,0.025
556,0.000,0.025
557,0.000,0.020
558,0.000,0.020
559,0.000,0.020
560,0.000,0.025
561,0.000,0.025
562,0.010,0.030
563,0.010,0.030
564,0.010,0.030
565,0.000,0.030
566,0.015,0.030
567,0.010,0.030
568,0.005,0.020
569,0.000,0.015
570,0.000,0.005
571,0.000,0.005
572,-0.005,0.005
573,0.000,0.010
574,0.000,0.010
575,0.000,0.015
576,0.000,0.045
577,0.010,0.145
578,0.105,0.345
579,0.340,0.550
580,0.565,0.570
581,0.540,0.355
582,0.290,0.100
583,0.035,-0.025
584,-0.055,-0.055
585,-0.070,-0.055
586,-0.055,-0.050
587,-0.060,-0.045
588,-0.045,-0.045
589,-0.055,-0.050
590,-0.045,-0.050
591,-0.050,-0.050
592,-0.050,-0.050
593,-0.055,-0.055
594,-0.050,-0.060
595,-0.060,-0.055
596,-0.050,-0.055
597,-0.050,-0.055
598,-0.050,-0.055
599,-0.055,-0.060
600,-0.060,-0.065
601,-0.050,-0.065
602,-0.050,-0.065
603,-0.050,-0.065
604,-0.060,-0.060
605,-0.050,-0.055
606,-0.055,-0.055
607,-0.040,-0.055
608,-0.055,-0.060
609,-0.045,-0.060
610,-0.050,-0.060
611,-0.045,-0.060
612,-0.045,-0.060
613,-0.045,-0.060
614,-0.050,-0.065
615,-0.050,-0.070
616,-0.050,-0.070
617,-0.050,-0.070
618,-0.050,-0.065
619,-0.045,-0.060
620,-0.040,-0.055
621,-0.035,-0.040
622,-0.025,-0.030
623,-0.025,-0.020
624,-0.025,-0.010
625,-0.025,0.000
626,-0.020,0.000
627,-0.010,0.000
628,-0.005,0.000
629,0.000,0.005
630,-0.010,0.005
631,0.000,0.005
632,-0.005,0.010
633,0.000,0.010
634,-0.005,0.010
635,0.000,0.010
636,-0.005,0.015
637,0.000,0.020
638,0.000,0.025
639,0.000,0.025
640,0.000,0.025
641,0.000,0.025
642,0.000,0.025
643,0.000,0.030
644,0.000,0.030
645,0.005,0.025
646,0.000,0.025
647,0.000,0.025
648,0.000,0.025
649,0.000,0.025
650,0.000,0.025
651,0.000,0.020
652,0.000,0.020
653,0.000,0.025
654,0.000,0.020
655,0.000,0.020
656,0.000,0.020
657,0.000,0.020
658,0.000,0.020
659,0.000,0.020
660,0.000,0.020
661,0.000,0.020
662,0.000,0.020
663,0.000,0.020
664,0.000,0.020
665,0.000,0.020
666,0.000,0.015
667,0.000,0.015
668,0.000,0.015
669,0.000,0.020
670,0.005,0.025
671,0.015,0.030
672,0.005,0.025
673,0.005,0.025
674,0.010,0.030
675,0.005,0.025
676,0.000,0.020
677,0.000,0.010
678,0.000,0.005
679,-0.015,0.005
680,0.000,0.005
681,-0.010,0.010
682,0.000,0.015
683,0.000,0.040
684,0.025,0.130
685,0.090,0.325
686,0.365,0.495
687,0.535,0.450
688,0.465,0.210
689,0.190,-0.005
690,-0.005,-0.085
691,-0.075,-0.070
692,-0.065,-0.050
693,-0.065,-0.035
694,-0.050,-0.035
695,-0.045,-0.030
696,-0.035,-0.025
697,-0.035,-0.025
698,-0.040,-0.025
699,-0.040,-0.030
700,-0.045,-0.035
701,-0.040,-0.035
702,-0.040,-0.030
703,-0.040,-0.025
704,-0.040,-0.025
705,-0.040,-0.025
706,-0.045,-0.030
707,-0.045,-0.025
708,-0.040,-0.025
709,-0.035,-0.020
710,-0.030,-0.015
711,-0.030,-0.010
712,-0.025,-0.010
713,-0.030,-0.015
714,-0.025,-0.010
715,-0.030,-0.005
716,-0.015,-0.005
717,-0.020,-0.005
718,0.000,-0.005
719,-0.020,-0.010
720,-0.015,-0.010
721,-0.015,-0.005
722,0.000,-0.005
723,0.000,-0.005
724,0.000,-0.005
725,-0.005,-0.005
726,-0.005,-0.005
727,-0.005,0.000
728,-0.010,0.000
729,-0.015,0.000
730,-0.020,0.000
731,-0.010,0.000
732,-0.005,0.010
733,0.000,0.015
734,0.000,0.020
735,0.000,0.020
736,0.000,0.020
737,0.000,0.020
738,-0.005,0.020
739,0.000,0.020
740,0.000,0.020
741,0.000,0.025
742,-0.005,0.025
743,0.000,0.055
744,0.025,0.155
745,0.120,0.350
746,0.330,0.555
747,0.545,0.590
748,0.560,0.415
749,0.330,0.175
750,0.085,0.035
751,-0.025,0.000
752,-0.055,-0.030
753,-0.065,-0.050
754,-0.065,-0.055
755,-0.065,-0.055
756,-0.060,-0.050
757,-0.055,-0.050
758,-0.050,-0.050
759,-0.050,-0.055
760,-0.065,-0.055
761,-0.055,-0.055
762,-0.060,-0.055
763,-0.045,-0.055
764,-0.065,-0.055
765,-0.045,-0.055
766,-0.065,-0.050
767,-0.045,-0.045
768,-0.055,-0.045
769,-0.030,-0.045
770,-0.050,-0.045
771,-0.050,-0.045
772,-0.050,-0.040
773,-0.030,-0.040
774,-0.040,-0.040
775,-0.045,-0.045
776,-0.050,-0.045
777,-0.040,-0.040
778,-0.030,-0.040
779,-0.030,-0.035
780,-0.035,-0.035
781,-0.040,-0.025
782,-0.025,-0.020
783,-0.020,-0.010
784,-0.010,0.000
785,-0.015,0.000
786,-0.010,0.005
787,-0.005,0.015
788,0.000,0.020
789,0.000,0.025
790,0.000,0.030
791,0.000,0.035
792,0.000,0.035
793,0.005,0.035
794,0.000,0.035
795,0.000,0.035
796,0.000,0.035
797,0.000,0.040
798,0.000,0.040
799,0.000,0.040
800,0.000,0.035
801,0.000,0.035
802,0.000,0.040
803,0.005,0.040
804,0.005,0.045
805,0.005,0.040
806,0.000,0.035
807,0.000,0.035
808,0.000,0.030
809,0.000,0.025
810,0.000,0.025
811,0.000,0.025
812,0.010,0.030
813,0.005,0.030
814,0.005,0.035
815,0.000,0.030
816,0.000,0.025
817,0.000,0.025
818,0.005,0.025
819,0.000,0.025
820,0.000,0.025
821,0.000,0.025
822,0.010,0.025
823,0.000,0.020
824,0.000,0.020
825,0.000,0.015
826,0.000,0.015
827,0.000,0.020
828,0.000,0.025
829,0.005,0.020
830,0.005,0.020
831,0.000,0.015
832,0.000,0.015
833,0.000,0.020
834,0.005,0.025
835,0.000,0.020
836,0.000,0.020
837,0.000,0.020
838,0.000,0.020
839,0.000,0.020
840,0.005,0.015
841,0.000,0.015
842,0.000,0.015
843,0.000,0.020
844,0.000,0.020
845,0.000,0.020
846,0.010,0.015
847,0.000,0.015
848,0.010,0.020
849,0.010,0.025
850,0.025,0.025
851,0.005,0.025
852,0.005,0.025
853,0.005,0.030
854,0.005,0.030
855,0.005,0.020
856,0.000,0.005
857,0.000,0.000
858,0.000,0.000
859,0.000,0.000
860,0.000,0.005
861,0.000,0.010
862,0.000,0.020
863,0.005,0.080
864,0.035,0.250
865,0.240,0.485
866,0.510,0.595
867,0.595,0.445
868,0.390,0.175
869,0.120,0.000
870,-0.025,-0.050
871,-0.065,-0.060
872,-0.070,-0.055
873,-0.060,-0.045
874,-0.055,-0.045
875,-0.050,-0.045
876,-0.050,-0.050
877,-0.055,-0.055
878,-0.050,-0.050
879,-0.045,-0.050
880,-0.045,-0.055
881,-0.060,-0.060
882,-0.070,-0.065
883,-0.065,-0.065
884,-0.060,-0.060
885,-0.055,-0.055
886,-0.050,-0.055
887,-0.050,-0.055
888,-0.055,-0.060
889,-0.050,-0.055
890,-0.050,-0.045
891,-0.030,-0.045
892,-0.045,-0.045
893,-0.045,-0.050
894,-0.055,-0.050
895,-0.040,-0.050
896,-0.055,-0.050
897,-0.035,-0.050
898,-0.050,-0.050
899,-0.030,-0.050
900,-0.035,-0.045
901,-0.020,-0.045
902,-0.040,-0.050
903,-0.025,-0.045
904,-0.025,-0.045
905,-0.030,-0.050
906,-0.030,-0.045
907,-0.030,-0.045
908,-0.040,-0.045
909,-0.045,-0.045
910,-0.035,-0.030
911,-0.025,-0.020
912,-0.015,-0.005
913,-0.015,0.000
914,-0.010,0.000
915,-0.010,0.000
916,0.000,0.005
917,-0.005,0.005
918,-0.005,0.005
919,0.000,0.010
920,-0.005,0.010
921,-0.005,0.010
922,-0.005,0.015
923,0.000,0.020
924,-0.005,0.025
925,0.000,0.020
926,0.000,0.020
927,0.005,0.035
928,0.020,0.145
929,0.130,0.375
930,0.345,0.625
931,0.575,0.685
932,0.465,0.500
933,0.240,0.260
934,0.065,0.090
935,-0.025,-0.005
936,-0.055,-0.060
937,-0.050,-0.070
938,-0.050,-0.070
939,-0.050,-0.070
940,-0.050,-0.075
941,-0.050,-0.075
942,-0.040,-0.075
943,-0.055,-0.075
944,-0.050,-0.080
945,-0.065,-0.080
946,-0.045,-0.080
947,-0.055,-0.080
948,-0.040,-0.080
949,-0.055,-0.085
950,-0.050,-0.080
951,-0.055,-0.080
952,-0.045,-0.080
953,-0.040,-0.075
954,-0.030,-0.075
955,-0.045,-0.075
956,-0.045,-0.075
957,-0.040,-0.075
958,-0.040,-0.075
959,-0.040,-0.080
960,-0.040,-0.080
961,-0.035,-0.080
962,-0.035,-0.075
963,-0.025,-0.070
964,-0.020,-0.065
965,-0.030,-0.060
966,-0.030,-0.050
967,-0.025,-0.035
968,-0.010,-0.020
969,-0.010,-0.005
970,0.000,0.000
971,0.000,0.010
972,0.000,0.020
973,0.000,0.030
974,0.005,0.035
975,0.000,0.035
976,0.005,0.040
977,0.000,0.040
978,0.005,0.040
979,0.000,0.040
980,0.005,0.040
981,0.005,0.035
982,0.005,0.035
983,0.000,0.035
984,0.005,0.035
985,0.005,0.040
986,0.005,0.040
987,0.005,0.040
988,0.005,0.035
989,0.005,0.035
990,0.000,0.040
991,0.010,0.040
992,0.005,0.045
993,0.005,0.040
994,0.000,0.035
995,0.000,0.035
996,0.000,0.030
997,0.005,0.030
998,0.010,0.035
999,0.015,0.035
1000,0.005,0.030
1001,0.000,0.030
1002,0.000,0.030
1003,0.005,0.035
1004,0.005,0.030
1005,0.000,0.025
1006,0.000,0.025
1007,0.000,0.025
1008,0.005,0.025
1009,0.005,0.025
1010,0.005,0.025
1011,0.000,0.025
1012,0.000,0.025
1013,0.000,0.025
1014,0.000,0.025
1015,0.005,0.025
1016,0.005,0.025
1017,0.010,0.025
1018,0.000,0.025
1019,0.000,0.025
1020,0.000,0.025
1021,0.005,0.025
1022,0.000,0.025
1023,0.000,0.020
1024,0.000,0.020
1025,0.000,0.020
1026,0.000,0.020
1027,0.010,0.020
1028,0.000,0.020
1029,0.005,0.020
1030,0.000,0.020
1031,0.005,0.020
1032,0.005,0.025
1033,0.020,0.025
1034,0.005,0.025
1035,0.010,0.025
1036,0.005,0.025
1037,0.005,0.015
1038,0.000,0.005
1039,0.000,0.000
1040,0.000,0.000
1041,0.000,0.000
1042,0.000,0.000
1043,0.000,0.005
1044,0.000,0.020
1045,0.010,0.070
1046,0.045,0.190
1047,0.185,0.380
1048,0.420,0.495
1049,0.535,0.395
1050,0.390,0.155
1051,0.135,-0.025
1052,-0.035,-0.070
1053,-0.065,-0.050
1054,-0.060,-0.035
1055,-0.040,-0.035
1056,-0.050,-0.035
1057,-0.040,-0.035
1058,-0.040,-0.030
1059,-0.030,-0.030
1060,-0.035,-0.030
1061,-0.035,-0.035
1062,-0.040,-0.040
1063,-0.040,-0.040
1064,-0.045,-0.040
1065,-0.040,-0.035
1066,-0.030,-0.030
1067,-0.025,-0.030
1068,-0.020,-0.030
1069,-0.045,-0.035
1070,-0.045,-0.035
1071,-0.050,-0.035
1072,-0.035,-0.035
1073,-0.045,-0.030
1074,-0.025,-0.025
1075,-0.030,-0.025
1076,-0.015,-0.025
1077,-0.030,-0.025
1078,-0.020,-0.020
1079,-0.020,-0.015
1080,-0.005,-0.015
1081,-0.015,-0.015
1082,-0.015,-0.020
1083,-0.020,-0.015
1084,-0.015,-0.010
1085,-0.010,-0.005
1086,-0.005,-0.005
1087,-0.005,-0.005
1088,-0.010,0.000
1089,-0.010,0.000
1090,-0.005,0.000
1091,0.000,0.005
1092,0.000,0.015
1093,0.000,0.020
1094,0.000,0.025
1095,0.000,0.030
1096,0.005,0.030
1097,0.000,0.030
1098,0.000,0.030
1099,0.000,0.030
1100,0.005,0.030
1101,0.000,0.030
1102,0.005,0.025
1103,0.000,0.020
1104,0.000,0.020
1105,0.000,0.015
1106,0.000,0.015
1107,0.000,0.020
1108,0.000,0.025
1109,0.000,0.025
1110,0.000,0.025
1111,0.000,0.025
1112,0.000,0.025
1113,0.005,0.025
1114,0.005,0.025
1115,0.005,0.025
1116,0.000,0.025
1117,0.000,0.025
1118,0.000,0.025
1119,0.000,0.025
1120,0.000,0.025
1121,0.000,0.020
1122,0.000,0.020
1123,0.000,0.020
1124,0.000,0.020
1125,0.005,0.020
1126,0.000,0.015
1127,0.000,0.010
1128,0.000,0.010
1129,0.000,0.015
1130,0.000,0.015
1131,0.000,0.010
1132,0.000,0.010
1133,0.000,0.010
1134,0.000,0.010
1135,0.000,0.010
1136,0.000,0.010
1137,0.000,0.010
1138,0.000,0.005
1139,0.000,0.005
1140,0.000,0.010
1141,0.005,0.010
1142,0.005,0.010
1143,0.000,0.015
1144,0.000,0.015
1145,0.000,0.015
1146,0.000,0.015
1147,0.000,0.010
1148,0.000,0.010
1149,0.000,0.005
1150,0.000,0.000
1151,0.000,-0.005
1152,-0.020,-0.005
1153,0.000,0.000
1154,-0.010,0.000
1155,0.000,0.000
1156,0.000,0.030
1157,0.005,0.145
1158,0.115,0.360
1159,0.400,0.520
1160,0.555,0.440
1161,0.445,0.175
1162,0.160,-0.035
1163,-0.025,-0.105
1164,-0.075,-0.085
1165,-0.070,-0.065
1166,-0.065,-0.060
1167,-0.065,-0.060
1168,-0.065,-0.055
1169,-0.065,-0.055
1170,-0.055,-0.055
1171,-0.055,-0.055
1172,-0.050,-0.055
1173,-0.055,-0.055
1174,-0.055,-0.060
1175,-0.050,-0.055
1176,-0.050,-0.055
1177,-0.055,-0.055
1178,-0.065,-0.060
1179,-0.060,-0.060
1180,-0.060,-0.060
1181,-0.050,-0.055
1182,-0.055,-0.050
1183,-0.045,-0.040
1184,-0.055,-0.040
1185,-0.040,-0.040
1186,-0.050,-0.040
1187,-0.045,-0.040
1188,-0.050,-0.040
1189,-0.040,-0.035
1190,-0.035,-0.035
1191,-0.025,-0.040
1192,-0.035,-0.045
1193,-0.045,-0.050
1194,-0.050,-0.060
1195,-0.050,-0.060
1196,-0.040,-0.060
1197,-0.040,-0.055
1198,-0.025,-0.050
1199,-0.035,-0.045
1200,-0.025,-0.040
1201,-0.025,-0.030
1202,-0.010,-0.015
1203,-0.010,-0.005
1204,0.000,0.000
1205,-0.005,0.000
1206,0.000,0.005
1207,0.000,0.010
1208,0.000,0.010
1209,0.000,0.015
1210,0.000,0.020
1211,0.000,0.020
1212,0.000,0.020
1213,0.000,0.020
1214,0.000,0.020
1215,0.000,0.020
1216,0.000,0.025
1217,0.000,0.025
1218,0.000,0.025
1219,0.005,0.030
1220,0.005,0.035
1221,0.005,0.030
1222,0.000,0.030
1223,0.000,0.030
1224,0.000,0.030
1225,0.005,0.030
1226,0.010,0.030
1227,0.000,0.025
1228,0.000,0.025
1229,0.000,0.025
1230,0.005,0.025
1231,0.000,0.025
1232,0.005,0.025
1233,0.000,0.025
1234,0.005,0.025
1235,0.000,0.025
1236,0.000,0.025
1237,0.000,0.025
1238,0.005,0.025
1239,0.000,0.025
1240,0.000,0.025
1241,0.000,0.020
1242,0.000,0.020
1243,0.000,0.020
1244,0.000,0.020
1245,0.000,0.025
1246,0.005,0.025
1247,0.010,0.030
1248,0.005,0.030
1249,0.010,0.030
1250,0.020,0.030
1251,0.025,0.035
1252,0.010,0.030
1253,0.000,0.020
1254,0.000,0.010
1255,0.000,0.000
1256,-0.005,0.000
1257,-0.005,0.000
1258,-0.005,0.005
1259,-0.005,0.015
1260,0.000,0.055
1261,0.025,0.160
1262,0.135,0.325
1263,0.350,0.435
1264,0.495,0.360
1265,0.405,0.130
1266,0.180,-0.070
1267,-0.020,-0.145
1268,-0.080,-0.105
1269,-0.065,-0.055
1270,-0.050,-0.035
1271,-0.040,-0.025
1272,-0.040,-0.025
1273,-0.040,-0.030
1274,-0.040,-0.030
1275,-0.040,-0.030
1276,-0.040,-0.030
1277,-0.040,-0.025
1278,-0.050,-0.025
1279,-0.035,-0.025
1280,-0.050,-0.030
1281,-0.030,-0.030
1282,-0.045,-0.030
1283,-0.030,-0.030
1284,-0.050,-0.025
1285,-0.030,-0.025
1286,-0.045,-0.025
1287,-0.030,-0.020
1288,-0.040,-0.020
1289,-0.030,-0.020
1290,-0.035,-0.020
1291,-0.025,-0.015
1292,-0.025,-0.015
1293,-0.015,-0.010
1294,-0.015,-0.005
1295,-0.015,0.000
1296,-0.005,0.000
1297,-0.005,-0.005
1298,-0.005,-0.005
1299,-0.005,0.000
1300,0.000,0.000
1301,0.000,0.000
1302,-0.005,-0.005
1303,-0.010,-0.005
1304,-0.015,-0.005
1305,-0.015,0.000
1306,-0.015,0.000
1307,-0.005,0.000
1308,-0.005,0.005
1309,0.000,0.015
1310,0.000,0.020
1311,0.000,0.025
1312,0.000,0.025
1313,0.000,0.020
1314,0.000,0.020
1315,0.000,0.020
1316,0.000,0.020
1317,0.000,0.020
1318,0.000,0.025
1319,0.000,0.055
1320,0.025,0.165
1321,0.125,0.385
1322,0.390,0.590
1323,0.590,0.580
1324,0.545,0.335
1325,0.235,0.100
1326,0.035,0.010
1327,-0.025,-0.010
1328,-0.050,-0.035
1329,-0.065,-0.050
1330,-0.055,-0.055
1331,-0.065,-0.055
1332,-0.050,-0.055
1333,-0.055,-0.055
1334,-0.045,-0.055
1335,-0.060,-0.055
1336,-0.055,-0.060
1337,-0.060,-0.060
1338,-0.060,-0.060
1339,-0.060,-0.065
1340,-0.060,-0.065
1341,-0.060,-0.060
1342,-0.050,-0.050
1343,-0.045,-0.045
1344,-0.050,-0.045
1345,-0.055,-0.050
1346,-0.060,-0.050
1347,-0.050,-0.050
1348,-0.050,-0.050
1349,-0.055,-0.055
1350,-0.055,-0.055
1351,-0.055,-0.050
1352,-0.045,-0.050
1353,-0.040,-0.050
1354,-0.040,-0.045
1355,-0.050,-0.045
1356,-0.035,-0.040
1357,-0.040,-0.030
1358,-0.020,-0.020
1359,-0.035,-0.015
1360,-0.025,-0.005
1361,-0.020,0.000
1362,-0.010,0.005
1363,-0.010,0.015
1364,0.000,0.020
1365,0.000,0.025
1366,0.000,0.025
1367,0.000,0.025
1368,0.000,0.030
1369,0.000,0.030
1370,0.000,0.035
1371,0.005,0.035
1372,0.005,0.035
1373,0.000,0.035
1374,0.000,0.035
1375,0.000,0.035
1376,0.000,0.040
1377,0.000,0.040
1378,0.000,0.035
1379,0.000,0.035
1380,0.000,0.035
1381,0.005,0.035
1382,0.000,0.035
1383,0.000,0.030
1384,0.000,0.030
1385,0.005,0.030
1386,0.000,0.030
1387,0.000,0.030
1388,0.005,0.030
1389,0.000,0.030
1390,0.005,0.025
1391,0.000,0.025
1392,0.000,0.025
1393,0.000,0.025
1394,0.000,0.025
1395,0.000,0.025
1396,0.000,0.025
1397,0.000,0.025
1398,0.000,0.025
1399,0.000,0.025
1400,0.000,0.025
1401,0.005,0.025
1402,0.005,0.025
1403,0.000,0.025
1404,0.000,0.025
1405,0.000,0.025
1406,0.000,0.025
1407,0.005,0.025
1408,0.000,0.025
1409,0.000,0.025
1410,0.000,0.025
1411,0.000,0.025
1412,0.000,0.020
1413,0.000,0.020
1414,0.000,0.020
1415,0.005,0.025
1416,0.000,0.025
1417,0.000,0.025
1418,0.000,0.025
1419,0.000,0.025
1420,0.000,0.025
1421,0.005,0.025
1422,0.000,0.025
1423,0.000,0.025
1424,0.005,0.030
1425,0.005,0.030
1426,0.010,0.030
1427,0.015,0.030
1428,0.015,0.030
1429,0.010,0.020
1430,0.005,0.015
1431,0.000,0.005
1432,0.000,0.000
1433,0.000,0.000
1434,0.000,0.005
1435,0.000,0.010
1436,0.000,0.015
1437,0.005,0.045
1438,0.020,0.140
1439,0.115,0.315
1440,0.335,0.480
1441,0.540,0.455
1442,0.460,0.230
1443,0.215,0.000
1444,-0.020,-0.090
1445,-0.070,-0.070
1446,-0.065,-0.040
1447,-0.050,-0.035
1448,-0.050,-0.030
1449,-0.040,-0.030
1450,-0.045,-0.030
1451,-0.045,-0.030
1452,-0.040,-0.030
1453,-0.040,-0.030
1454,-0.040,-0.035
1455,-0.040,-0.040
1456,-0.035,-0.040
1457,-0.045,-0.040
1458,-0.045,-0.040
1459,-0.050,-0.040
1460,-0.040,-0.035
1461,-0.040,-0.035
1462,-0.025,-0.035
1463,-0.045,-0.035
1464,-0.045,-0.040
1465,-0.045,-0.035
1466,-0.035,-0.030
1467,-0.035,-0.025
1468,-0.025,-0.025
1469,-0.030,-0.025
1470,-0.030,-0.020
1471,-0.030,-0.010
1472,-0.025,-0.010
1473,-0.015,-0.010
1474,-0.015,-0.010
1475,-0.015,-0.010
1476,-0.010,-0.005
1477,0.000,0.000
1478,0.000,0.000
1479,0.000,-0.005
1480,0.000,0.000
1481,0.000,0.000
1482,0.000,0.000
1483,-0.010,0.000
1484,-0.010,0.000
1485,-0.010,0.005
1486,0.000,0.010
1487,-0.005,0.015
1488,0.000,0.020
1489,0.000,0.025
1490,0.000,0.025
1491,0.000,0.025
1492,0.000,0.025
1493,0.000,0.025
1494,0.000,0.025
1495,0.000,0.025
1496,0.000,0.025
1497,-0.005,0.025
1498,0.000,0.025
1499,0.000,0.025
1500,0.000,0.030
1501,0.000,0.035
1502,0.015,0.075
1503,0.050,0.215
1504,0.180,0.465
1505,0.430,0.695
1506,0.605,0.700
1507,0.460,0.465
1508,0.195,0.200
1509,0.020,0.035
1510,-0.045,-0.030
1511,-0.055,-0.055
1512,-0.060,-0.065
1513,-0.055,-0.070
1514,-0.060,-0.070
1515,-0.055,-0.070
1516,-0.050,-0.070
1517,-0.055,-0.070
1518,-0.055,-0.075
1519,-0.060,-0.070
1520,-0.050,-0.070
1521,-0.050,-0.075
1522,-0.045,-0.075
1523,-0.050,-0.070
1524,-0.040,-0.070
1525,-0.055,-0.075
1526,-0.055,-0.075
1527,-0.050,-0.075
1528,-0.045,-0.075
1529,-0.040,-0.075
1530,-0.040,-0.080
1531,-0.045,-0.080
1532,-0.045,-0.075
1533,-0.040,-0.075
1534,-0.040,-0.070
1535,-0.040,-0.070
1536,-0.040,-0.070
1537,-0.015,-0.070
1538,-0.035,-0.070
1539,-0.030,-0.060
1540,-0.035,-0.050
1541,-0.020,-0.040
1542,-0.020,-0.025
1543,0.000,-0.010
1544,-0.010,0.000
1545,0.000,0.005
1546,0.000,0.015
1547,0.000,0.020
1548,0.000,0.025
1549,0.000,0.025
1550,0.000,0.025
1551,0.000,0.030
1552,0.000,0.030
1553,0.000,0.030
1554,0.000,0.035
1555,0.005,0.030
1556,0.000,0.025
1557,0.000,0.025
1558,0.000,0.030
1559,0.000,0.030
1560,0.000,0.025
1561,0.000,0.020
1562,0.000,0.020
1563,0.000,0.020
1564,0.000,0.020
1565,0.000,0.020
1566,0.000,0.015
1567,0.000,0.015
1568,0.000,0.015
1569,0.000,0.015
1570,0.000,0.015
1571,0.000,0.010
1572,0.000,0.010
1573,0.000,0.010
1574,-0.005,0.010
1575,0.000,0.010
1576,0.000,0.010
1577,0.000,0.010
1578,0.000,0.010
1579,0.000,0.010
1580,0.000,0.010
1581,0.000,0.010
1582,0.000,0.010
1583,0.000,0.010
1584,0.000,0.010
1585,0.000,0.010
1586,0.000,0.010
1587,0.000,0.010
1588,0.000,0.010
1589,0.000,0.010
1590,0.000,0.010
1591,0.000,0.010
1592,0.000,0.010
1593,0.000,0.010
1594,0.000,0.010
1595,0.000,0.010
1596,0.000,0.015
1597,0.000,0.010
1598,0.000,0.010
1599,0.000,0.010
1600,0.000,0.010
1601,0.000,0.010
1602,0.000,0.010
1603,0.000,0.015
1604,0.000,0.015
1605,0.000,0.015
1606,0.000,0.020
1607,0.005,0.020
1608,0.010,0.025
1609,0.015,0.025
1610,0.010,0.025
1611,0.005,0.020
1612,0.005,0.010
1613,0.000,0.000
1614,0.000,0.000
1615,-0.005,0.000
1616,0.000,0.000
1617,-0.005,0.000
1618,0.000,0.005
1619,0.000,0.010
1620,0.005,0.035
1621,0.015,0.130
1622,0.100,0.325
1623,0.345,0.495
1624,0.550,0.450
1625,0.455,0.200
1626,0.200,-0.010
1627,-0.020,-0.085
1628,-0.065,-0.065
1629,-0.070,-0.045
1630,-0.050,-0.035
1631,-0.045,-0.030
1632,-0.045,-0.030
1633,-0.045,-0.030
1634,-0.045,-0.035
1635,-0.050,-0.035
1636,-0.055,-0.040
1637,-0.045,-0.040
1638,-0.050,-0.040
1639,-0.045,-0.040
1640,-0.050,-0.040
1641,-0.040,-0.040
1642,-0.040,-0.035
1643,-0.040,-0.035
1644,-0.035,-0.035
1645,-0.040,-0.035
1646,-0.035,-0.035
1647,-0.035,-0.035
1648,-0.030,-0.030
1649,-0.030,-0.025
1650,-0.025,-0.025
1651,-0.035,-0.020
1652,-0.025,-0.020
1653,-0.035,-0.015
1654,-0.025,-0.010
1655,-0.020,-0.010
1656,-0.010,-0.010
1657,-0.015,-0.010
1658,-0.015,-0.010
1659,-0.010,-0.005
1660,-0.005,-0.005
1661,0.000,-0.005
1662,0.000,-0.005
1663,-0.005,-0.010
1664,-0.015,-0.010
1665,0.000,0.000
1666,-0.005,0.000
1667,-0.010,0.000
1668,-0.015,0.000
1669,0.000,0.005
1670,0.000,0.015
1671,0.000,0.020
1672,0.000,0.025
1673,0.000,0.025
1674,0.000,0.025
1675,0.000,0.025
1676,0.000,0.025
1677,0.000,0.025
1678,0.000,0.025
1679,0.000,0.025
1680,0.000,0.025
1681,0.000,0.025
1682,0.000,0.025
1683,0.000,0.025
1684,0.005,0.030
1685,0.015,0.080
1686,0.065,0.225
1687,0.200,0.465
1688,0.440,0.655
1689,0.565,0.615
1690,0.400,0.390
1691,0.165,0.170
1692,0.020,0.045
1693,-0.030,-0.015
1694,-0.055,-0.050
1695,-0.050,-0.060
1696,-0.060,-0.065
1697,-0.050,-0.065
1698,-0.050,-0.060
1699,-0.035,-0.060
1700,-0.045,-0.065
1701,-0.045,-0.070
1702,-0.060,-0.065
1703,-0.040,-0.065
1704,-0.045,-0.070
1705,-0.045,-0.075
1706,-0.055,-0.075
1707,-0.050,-0.075
1708,-0.050,-0.075
1709,-0.050,-0.075
1710,-0.045,-0.075
1711,-0.040,-0.070
1712,-0.040,-0.070
1713,-0.040,-0.070
1714,-0.040,-0.070
1715,-0.040,-0.075
1716,-0.040,-0.080
1717,-0.040,-0.075
1718,-0.020,-0.075
1719,-0.030,-0.075
1720,-0.040,-0.075
1721,-0.045,-0.070
1722,-0.035,-0.060
1723,-0.035,-0.050
1724,-0.025,-0.040
1725,-0.020,-0.030
1726,-0.010,-0.010
1727,-0.005,0.000
1728,-0.005,0.010
1729,0.000,0.015
1730,0.000,0.025
1731,0.000,0.030
1732,0.000,0.035
1733,0.005,0.040
1734,0.005,0.040
1735,0.005,0.045
1736,0.005,0.040
1737,0.005,0.040
1738,0.005,0.040
1739,0.005,0.040
1740,0.000,0.035
1741,0.000,0.035
1742,0.000,0.040
1743,0.000,0.040
1744,0.010,0.035
1745,0.000,0.035
1746,0.005,0.035
1747,0.000,0.035
1748,0.005,0.030
1749,0.000,0.030
1750,0.010,0.030
1751,0.000,0.025
1752,0.000,0.025
1753,0.000,0.020
1754,0.000,0.020
1755,0.000,0.025
1756,0.005,0.025
1757,0.000,0.025
1758,0.000,0.025
1759,0.000,0.025
1760,0.000,0.020
1761,0.000,0.020
1762,0.000,0.020
1763,0.000,0.025
1764,0.000,0.025
1765,0.005,0.025
1766,0.000,0.025
1767,0.000,0.020
1768,0.000,0.015
1769,0.000,0.015
1770,0.000,0.015
1771,0.000,0.020
1772,0.000,0.020
1773,0.000,0.020
1774,0.000,0.020
1775,0.000,0.020
1776,0.000,0.020
1777,0.000,0.015
1778,0.000,0.015
1779,0.000,0.015
1780,0.005,0.020
1781,0.000,0.020
1782,0.000,0.020
1783,0.000,0.020
1784,0.000,0.015
1785,0.000,0.015
1786,0.000,0.015
1787,0.000,0.020
1788,0.000,0.025
1789,0.005,0.025
1790,0.005,0.025
1791,0.010,0.025
1792,0.005,0.025
1793,0.020,0.025
1794,0.015,0.025
1795,0.020,0.025
1796,0.000,0.020
1797,0.000,0.010
1798,-0.015,0.000
1799,-0.010,0.000
1800,-0.010,0.000
1801,0.000,0.000
1802,0.000,0.005
1803,0.000,0.010
1804,0.000,0.055
1805,0.020,0.195
1806,0.165,0.420
1807,0.445,0.580
1808,0.590,0.500
1809,0.460,0.250
1810,0.180,0.035
1811,-0.010,-0.045
1812,-0.070,-0.060
1813,-0.070,-0.060
1814,-0.065,-0.055
1815,-0.060,-0.055
1816,-0.055,-0.055
1817,-0.055,-0.055
1818,-0.050,-0.055
1819,-0.050,-0.055
1820,-0.055,-0.055
1821,-0.055,-0.060
1822,-0.065,-0.060
1823,-0.055,-0.065
1824,-0.065,-0.070
1825,-0.055,-0.065
1826,-0.060,-0.065
1827,-0.045,-0.060
1828,-0.050,-0.060
1829,-0.045,-0.060
1830,-0.060,-0.060
1831,-0.055,-0.055
1832,-0.060,-0.055
1833,-0.045,-0.050
1834,-0.045,-0.050
1835,-0.040,-0.050
1836,-0.045,-0.050
1837,-0.040,-0.050
1838,-0.040,-0.050
1839,-0.040,-0.055
1840,-0.045,-0.055
1841,-0.040,-0.055
1842,-0.040,-0.055
1843,-0.050,-0.055
1844,-0.045,-0.060
1845,-0.050,-0.060
1846,-0.040,-0.055
1847,-0.050,-0.055
1848,-0.035,-0.050
1849,-0.035,-0.040
1850,-0.020,-0.025
1851,-0.020,-0.020
1852,-0.015,-0.010
1853,-0.010,0.000
1854,-0.005,0.000
1855,-0.005,0.005
1856,-0.005,0.010
1857,0.000,0.015
1858,0.000,0.015
1859,0.000,0.015
1860,0.000,0.015
1861,0.000,0.020
1862,0.000,0.020
1863,0.005,0.025
1864,0.005,0.025
1865,0.005,0.030
1866,0.005,0.030
1867,0.005,0.035
1868,0.010,0.040
1869,0.010,0.045
1870,0.010,0.045
1871,0.005,0.045
1872,0.010,0.045
1873,0.005,0.045
1874,0.010,0.045
1875,0.010,0.045
1876,0.025,0.040
1877,0.005,0.040
1878,0.015,0.040
1879,0.005,0.035
1880,0.010,0.030
1881,0.000,0.030
1882,0.010,0.030
1883,0.000,0.030
1884,0.000,0.025
1885,0.000,0.025
1886,0.005,0.025
1887,0.005,0.025
1888,0.005,0.020
1889,0.000,0.020
1890,0.000,0.015
1891,0.000,0.015
1892,0.000,0.015
1893,0.005,0.015
1894,0.000,0.015
1895,0.000,0.015
1896,0.000,0.015
1897,0.000,0.015
1898,0.000,0.015
1899,0.000,0.015
1900,0.000,0.020
1901,0.005,0.025
1902,0.005,0.020
1903,0.005,0.020
1904,0.010,0.020
1905,0.015,0.025
1906,0.015,0.020
1907,0.000,0.015
1908,0.000,0.010
1909,0.000,0.000
1910,0.000,0.000
1911,-0.005,0.000
1912,0.000,0.000
1913,-0.005,0.000
1914,0.000,0.015
1915,0.000,0.065
1916,0.040,0.205
1917,0.200,0.410
1918,0.470,0.510
1919,0.550,0.365
1920,0.365,0.095
1921,0.065,-0.065
1922,-0.075,-0.085
1923,-0.075,-0.060
1924,-0.075,-0.045
1925,-0.040,-0.035
1926,-0.040,-0.030
1927,-0.035,-0.030
1928,-0.045,-0.035
1929,-0.030,-0.035
1930,-0.040,-0.035
1931,-0.035,-0.035
1932,-0.045,-0.035
1933,-0.035,-0.040
1934,-0.045,-0.040
1935,-0.035,-0.040
1936,-0.035,-0.040
1937,-0.030,-0.040
1938,-0.035,-0.040
1939,-0.035,-0.040
1940,-0.040,-0.035
1941,-0.035,-0.035
1942,-0.035,-0.035
1943,-0.030,-0.030
1944,-0.030,-0.025
1945,-0.025,-0.025
1946,-0.020,-0.025
1947,-0.020,-0.025
1948,-0.025,-0.025
1949,-0.025,-0.025
1950,-0.025,-0.025
1951,-0.015,-0.025
1952,-0.025,-0.025
1953,-0.020,-0.030
1954,-0.025,-0.035
1955,-0.010,-0.035
1956,-0.020,-0.030
1957,-0.015,-0.025
1958,-0.020,-0.015
1959,0.000,-0.010
1960,-0.015,0.000
1961,0.000,0.000
1962,-0.005,0.005
1963,0.000,0.005
1964,0.000,0.015
1965,0.000,0.020
1966,0.000,0.020
1967,0.000,0.020
1968,0.000,0.020
1969,0.000,0.025
1970,0.000,0.025
1971,0.000,0.025
1972,0.000,0.025
1973,0.000,0.025
1974,0.000,0.025
1975,0.000,0.025
1976,0.000,0.025
1977,0.000,0.025
1978,0.000,0.025
1979,0.000,0.025
1980,0.000,0.025
1981,0.000,0.030
1982,0.005,0.030
1983,0.000,0.030
1984,0.005,0.025
1985,0.005,0.025
1986,0.000,0.025
1987,0.000,0.025
1988,0.000,0.025
1989,0.005,0.025
1990,0.000,0.025
1991,0.000,0.025
1992,0.000,0.025
1993,0.005,0.025
1994,0.000,0.025
1995,0.000,0.025
1996,0.000,0.025
1997,0.000,0.025
1998,0.000,0.020
1999,0.000,0.020
2000,0.000,0.020
2001,0.000,0.020
2002,0.000,0.020
2003,0.000,0.020
2004,0.000,0.020
2005,0.000,0.020
2006,0.005,0.020
2007,0.000,0.020
2008,0.010,0.020
2009,0.000,0.020
2010,0.020,0.020
2011,0.010,0.025
2012,0.010,0.025
2013,0.000,0.020
2014,0.000,0.010
2015,0.000,0.005
2016,0.000,0.000
2017,-0.010,0.000
2018,-0.005,0.000
2019,-0.005,0.005
2020,0.000,0.015
2021,0.005,0.070
2022,0.035,0.210
2023,0.200,0.415
2024,0.455,0.530
2025,0.550,0.415
2026,0.385,0.170
2027,0.120,-0.005
2028,-0.035,-0.065
2029,-0.075,-0.055
2030,-0.070,-0.045
2031,-0.060,-0.040
2032,-0.050,-0.040
2033,-0.050,-0.040
2034,-0.040,-0.040
2035,-0.050,-0.045
2036,-0.045,-0.045
2037,-0.055,-0.040
2038,-0.045,-0.040
2039,-0.040,-0.040
2040,-0.030,-0.045
2041,-0.050,-0.045
2042,-0.050,-0.045
2043,-0.055,-0.050
2044,-0.050,-0.050
2045,-0.050,-0.045
2046,-0.045,-0.040
2047,-0.045,-0.040
2048,-0.045,-0.040
2049,-0.040,-0.040
2050,-0.040,-0.040
2051,-0.035,-0.040
2052,-0.035,-0.035
2053,-0.025,-0.035
2054,-0.035,-0.030
2055,-0.025,-0.025
2056,-0.030,-0.025
2057,-0.015,-0.025
2058,-0.020,-0.020
2059,-0.005,-0.020
2060,-0.010,-0.020
2061,0.000,-0.020
2062,-0.010,-0.020
2063,-0.005,-0.010
2064,-0.005,-0.005
2065,-0.005,-0.005
2066,-0.015,-0.005
2067,-0.015,-0.005
2068,-0.020,0.000
2069,-0.010,0.000
2070,0.000,0.005
2071,0.000,0.015
2072,0.000,0.010
2073,-0.010,0.010
2074,-0.005,0.015
2075,0.000,0.015
2076,0.000,0.015
2077,-0.005,0.010
2078,-0.010,0.010
2079,0.000,0.015
2080,-0.005,0.040
2081,0.010,0.110
2082,0.070,0.280
2083,0.250,0.520
2084,0.505,0.665
2085,0.665,0.570
2086,0.450,0.295
2087,0.150,0.085
2088,-0.025,0.000
2089,-0.070,-0.045
2090,-0.085,-0.065
2091,-0.065,-0.065
2092,-0.075,-0.065
2093,-0.070,-0.070
2094,-0.080,-0.070
2095,-0.075,-0.070
2096,-0.075,-0.070
2097,-0.070,-0.075
2098,-0.070,-0.075
2099,-0.065,-0.080
2100,-0.065,-0.080
2101,-0.070,-0.080
2102,-0.070,-0.075
2103,-0.065,-0.075
2104,-0.060,-0.075
2105,-0.065,-0.070
2106,-0.065,-0.070
2107,-0.065,-0.065
2108,-0.055,-0.065
2109,-0.060,-0.065
2110,-0.060,-0.060
2111,-0.060,-0.060
2112,-0.055,-0.060
2113,-0.055,-0.060
2114,-0.060,-0.060
2115,-0.050,-0.055
2116,-0.050,-0.055
2117,-0.045,-0.050
2118,-0.045,-0.045
2119,-0.035,-0.040
2120,-0.035,-0.030
2121,-0.025,-0.020
2122,-0.025,-0.010
2123,-0.020,0.000
2124,-0.015,0.000
2125,-0.010,0.000
2126,-0.005,0.010
2127,0.000,0.010
2128,0.000,0.015
2129,0.000,0.015
2130,0.000,0.015
2131,-0.005,0.020
2132,0.000,0.020
2133,0.000,0.025
2134,0.000,0.025
2135,-0.005,0.025
2136,0.000,0.025
2137,-0.005,0.025
2138,0.000,0.025
2139,0.000,0.025
2140,0.000,0.025
2141,0.000,0.025
2142,0.000,0.025
2143,0.000,0.025
2144,0.000,0.025
2145,0.000,0.025
2146,0.000,0.025
2147,0.000,0.020
2148,0.000,0.020
2149,0.000,0.020
2150,0.000,0.015
2151,0.000,0.015
2152,0.000,0.015
2153,0.000,0.015
2154,0.000,0.015
2155,0.000,0.015
2156,0.000,0.015
2157,0.000,0.015
2158,0.000,0.015
2159,-0.005,0.015
2160,0.000,0.010
2161,0.000,0.010
2162,0.000,0.010
2163,-0.010,0.010
2164,0.000,0.010
2165,-0.010,0.010
2166,0.000,0.010
2167,0.000,0.010
2168,0.000,0.010
2169,0.000,0.015
2170,0.000,0.010
2171,0.000,0.010
2172,0.000,0.010
2173,0.000,0.015
2174,0.000,0.015
2175,0.000,0.015
2176,0.000,0.015
2177,0.000,0.010
2178,0.000,0.010
2179,0.000,0.010
2180,0.000,0.010
2181,0.000,0.015
2182,0.000,0.015
2183,0.000,0.010
2184,-0.005,0.010
2185,0.000,0.010
2186,0.000,0.015
2187,0.005,0.015
2188,0.000,0.020
2189,0.000,0.020
2190,0.000,0.020
2191,0.005,0.025
2192,0.000,0.025
2193,0.000,0.020
2194,0.000,0.010
2195,0.000,0.000
2196,-0.010,0.000
2197,-0.015,0.000
2198,-0.015,0.000
2199,-0.010,0.000
2200,0.000,0.010
2201,0.000,0.030
2202,0.005,0.090
2203,0.055,0.235
2204,0.230,0.420
2205,0.470,0.470
2206,0.505,0.305
2207,0.310,0.065
2208,0.040,-0.070
2209,-0.070,-0.085
2210,-0.075,-0.060
2211,-0.055,-0.045
2212,-0.055,-0.045
2213,-0.045,-0.040
2214,-0.055,-0.040
2215,-0.040,-0.040
2216,-0.050,-0.045
2217,-0.040,-0.045
2218,-0.055,-0.050
2219,-0.045,-0.050
2220,-0.055,-0.045
2221,-0.040,-0.040
2222,-0.050,-0.040
2223,-0.050,-0.040
2224,-0.050,-0.045
2225,-0.050,-0.040
2226,-0.050,-0.040
2227,-0.050,-0.040
2228,-0.050,-0.040
2229,-0.045,-0.035
2230,-0.040,-0.035
2231,-0.040,-0.030
2232,-0.030,-0.030
2233,-0.035,-0.030
2234,-0.035,-0.025
2235,-0.030,-0.020
2236,-0.020,-0.020
2237,-0.020,-0.020
2238,-0.020,-0.020
2239,-0.020,-0.020
2240,-0.015,-0.020
2241,-0.010,-0.015
2242,-0.005,-0.015
2243,0.000,-0.015
2244,0.000,-0.015
2245,-0.005,-0.010
2246,-0.015,-0.010
2247,-0.015,-0.015
2248,-0.025,-0.010
2249,-0.015,-0.005
2250,-0.015,0.000
2251,-0.005,0.005
2252,0.000,0.010
2253,0.000,0.015
2254,0.000,0.020
2255,0.000,0.020
2256,0.000,0.020
2257,0.000,0.020
2258,0.000,0.020
2259,0.000,0.020
2260,0.000,0.015
2261,0.000,0.015
2262,0.000,0.015
2263,-0.005,0.015
2264,0.000,0.020
2265,0.000,0.020
2266,0.000,0.025
2267,0.000,0.025
2268,0.010,0.105
2269,0.075,0.320
2270,0.300,0.595
2271,0.575,0.710
2272,0.565,0.565
2273,0.330,0.310
2274,0.105,0.115
2275,-0.015,0.010
2276,-0.045,-0.040
2277,-0.050,-0.060
2278,-0.060,-0.075
2279,-0.070,-0.075
2280,-0.060,-0.075
2281,-0.050,-0.070
2282,-0.055,-0.070
2283,-0.065,-0.075
2284,-0.065,-0.080
2285,-0.065,-0.080
2286,-0.060,-0.080
2287,-0.055,-0.080
2288,-0.055,-0.080
2289,-0.060,-0.075
2290,-0.050,-0.075
2291,-0.060,-0.075
2292,-0.055,-0.075
2293,-0.060,-0.075
2294,-0.045,-0.075
2295,-0.060,-0.075
2296,-0.045,-0.075
2297,-0.055,-0.080
2298,-0.050,-0.080
2299,-0.055,-0.080
2300,-0.040,-0.080
2301,-0.050,-0.080
2302,-0.050,-0.080
2303,-0.050,-0.075
2304,-0.050,-0.075
2305,-0.045,-0.070
2306,-0.045,-0.065
2307,-0.035,-0.055
2308,-0.025,-0.035
2309,-0.015,-0.015
2310,-0.015,0.000
2311,0.000,0.000
2312,-0.005,0.010
2313,0.000,0.015
2314,-0.005,0.020
2315,0.000,0.025
2316,0.000,0.025
2317,0.000,0.030
2318,0.000,0.030
2319,0.000,0.030
2320,0.000,0.030
2321,0.000,0.030
2322,0.000,0.030
2323,0.000,0.025
2324,0.000,0.025
2325,0.000,0.025
2326,0.000,0.025
2327,0.000,0.030
2328,0.000,0.025
2329,0.000,0.025
2330,0.000,0.025
2331,0.000,0.025
2332,0.000,0.025
2333,0.000,0.025
2334,0.000,0.025
2335,0.000,0.025
2336,0.000,0.025
2337,0.000,0.025
2338,0.000,0.020
2339,0.000,0.020
2340,0.000,0.020
2341,0.000,0.015
2342,-0.005,0.015
2343,0.000,0.020
2344,0.000,0.015
2345,0.000,0.015
2346,-0.010,0.015
2347,0.000,0.015
2348,0.000,0.015
2349,0.000,0.015
2350,0.000,0.015
2351,0.000,0.015
2352,0.000,0.015
2353,0.000,0.010
2354,0.000,0.010
2355,0.000,0.010
2356,-0.005,0.010
2357,-0.005,0.010
2358,0.000,0.010
2359,0.000,0.010
2360,0.000,0.010
2361,0.000,0.010
2362,0.000,0.015
2363,0.000,0.015
2364,0.000,0.015
2365,0.000,0.010
2366,0.000,0.010
2367,-0.005,0.010
2368,-0.005,0.010
2369,0.000,0.010
2370,0.000,0.015
2371,0.000,0.020
2372,0.000,0.020
2373,0.000,0.020
2374,0.000,0.025
2375,0.000,0.020
2376,0.000,0.015
2377,0.000,0.010
2378,0.000,0.005
2379,0.000,0.000
2380,-0.015,0.000
2381,-0.015,0.000
2382,-0.015,0.000
2383,0.000,0.005
2384,0.000,0.020
2385,0.000,0.065
2386,0.025,0.190
2387,0.160,0.395
2388,0.450,0.500
2389,0.540,0.345
2390,0.365,0.060
2391,0.065,-0.105
2392,-0.070,-0.115
2393,-0.080,-0.070
2394,-0.065,-0.045
2395,-0.060,-0.035
2396,-0.035,-0.030
2397,-0.050,-0.030
2398,-0.045,-0.030
2399,-0.055,-0.035
2400,-0.045,-0.035
2401,-0.045,-0.035
2402,-0.030,-0.030
2403,-0.040,-0.030
2404,-0.050,-0.040
2405,-0.060,-0.040
2406,-0.055,-0.040
2407,-0.050,-0.040
2408,-0.050,-0.040
2409,-0.050,-0.040
2410,-0.050,-0.035
2411,-0.050,-0.035
2412,-0.050,-0.035
2413,-0.045,-0.030
2414,-0.040,-0.025
2415,-0.035,-0.020
2416,-0.030,-0.020
2417,-0.035,-0.025
2418,-0.030,-0.025
2419,-0.035,-0.020
2420,-0.020,-0.015
2421,-0.025,-0.015
2422,-0.015,-0.020
2423,-0.030,-0.020
2424,-0.015,-0.015
2425,-0.020,-0.010
2426,0.000,-0.010
2427,-0.010,-0.015
2428,-0.010,-0.020
2429,-0.025,-0.020
2430,-0.025,-0.020
2431,-0.025,-0.015
2432,-0.020,-0.010
2433,-0.020,0.000
2434,-0.015,0.000
2435,0.000,0.010
2436,0.000,0.015
2437,0.000,0.015
2438,0.000,0.015
2439,0.000,0.015
2440,0.000,0.020
2441,0.000,0.020
2442,0.000,0.020
2443,0.000,0.020
2444,-0.005,0.020
2445,0.000,0.020
2446,-0.005,0.020
2447,0.000,0.020
2448,0.000,0.020
2449,0.000,0.035
2450,0.025,0.135
2451,0.120,0.365
2452,0.330,0.630
2453,0.535,0.725
2454,0.495,0.570
2455,0.255,0.295
2456,0.050,0.080
2457,-0.030,-0.020
2458,-0.045,-0.060
2459,-0.055,-0.075
2460,-0.060,-0.080
2461,-0.065,-0.080
2462,-0.065,-0.080
2463,-0.065,-0.075
2464,-0.060,-0.070
2465,-0.045,-0.070
2466,-0.055,-0.075
2467,-0.055,-0.080
2468,-0.065,-0.080
2469,-0.050,-0.080
2470,-0.055,-0.080
2471,-0.050,-0.085
2472,-0.070,-0.090
2473,-0.055,-0.090
2474,-0.070,-0.095
2475,-0.060,-0.095
2476,-0.070,-0.090
2477,-0.050,-0.090
2478,-0.055,-0.095
2479,-0.055,-0.100
2480,-0.065,-0.105
2481,-0.050,-0.100
2482,-0.050,-0.100
2483,-0.050,-0.100
2484,-0.050,-0.100
2485,-0.050,-0.100
2486,-0.050,-0.090
2487,-0.045,-0.080
2488,-0.035,-0.065
2489,-0.030,-0.055
2490,-0.025,-0.040
2491,-0.020,-0.015
2492,-0.005,0.000
2493,0.000,0.005
2494,0.000,0.015
2495,0.000,0.025
2496,0.000,0.035
2497,0.000,0.040
2498,0.000,0.040
2499,0.005,0.040
2500,0.000,0.040
2501,0.005,0.045
2502,0.000,0.040
2503,0.005,0.040
2504,0.000,0.040
2505,0.000,0.040
2506,0.000,0.045
2507,0.005,0.045
2508,0.005,0.040
2509,0.000,0.035
2510,0.000,0.035
2511,0.000,0.040
2512,0.000,0.040
2513,0.005,0.040
2514,0.005,0.035
2515,0.005,0.035
2516,0.005,0.035
2517,0.005,0.035
2518,0.005,0.035
2519,0.000,0.035
2520,0.010,0.035
2521,0.000,0.035
2522,0.005,0.030
2523,0.000,0.030
2524,0.000,0.025
2525,0.000,0.025
2526,0.000,0.025
2527,0.000,0.030
2528,0.010,0.030
2529,0.000,0.030
2530,0.000,0.030
2531,0.000,0.030
2532,0.000,0.025
2533,0.000,0.025
2534,0.000,0.025
2535,0.000,0.025
2536,0.000,0.025
2537,0.005,0.025
2538,0.005,0.025
2539,0.005,0.025
2540,0.000,0.025
2541,0.000,0.025
2542,0.000,0.025
2543,0.000,0.025
2544,0.000,0.025
2545,0.000,0.025
2546,0.000,0.025
2547,0.000,0.025
2548,0.000,0.025
2549,0.000,0.025
2550,0.000,0.025
2551,0.005,0.030
2552,0.020,0.030
2553,0.005,0.030
2554,0.005,0.030
2555,0.000,0.030
2556,0.005,0.030
2557,0.000,0.025
2558,0.000,0.015
2559,0.000,0.005
2560,0.000,0.005
2561,-0.010,0.005
2562,-0.005,0.005
2563,-0.005,0.010
2564,0.000,0.010
2565,0.000,0.035
2566,0.010,0.100
2567,0.050,0.250
2568,0.235,0.435
2569,0.475,0.475
2570,0.485,0.285
2571,0.295,0.040
2572,0.045,-0.080
2573,-0.055,-0.080
2574,-0.075,-0.050
2575,-0.055,-0.030
2576,-0.050,-0.020
2577,-0.040,-0.020
2578,-0.045,-0.020
2579,-0.045,-0.025
2580,-0.045,-0.025
2581,-0.035,-0.025
2582,-0.040,-0.025
2583,-0.050,-0.030
2584,-0.045,-0.030
2585,-0.045,-0.025
2586,-0.040,-0.025
2587,-0.050,-0.030
2588,-0.050,-0.035
2589,-0.045,-0.035
2590,-0.040,-0.030
2591,-0.040,-0.030
2592,-0.040,-0.030
2593,-0.050,-0.025
2594,-0.050,-0.025
2595,-0.035,-0.020
2596,-0.035,-0.020
2597,-0.030,-0.020
2598,-0.035,-0.020
2599,-0.025,-0.020
2600,-0.035,-0.020
2601,-0.025,-0.025
2602,-0.035,-0.025
2603,-0.025,-0.025
2604,-0.030,-0.025
2605,-0.020,-0.025
2606,-0.035,-0.030
2607,-0.020,-0.025
2608,-0.020,-0.020
2609,-0.015,-0.020
2610,-0.025,-0.010
2611,-0.015,-0.005
2612,-0.015,0.000
2613,-0.010,0.000
2614,-0.005,0.005
2615,0.000,0.010
2616,0.000,0.015
2617,0.000,0.020
2618,0.000,0.025
2619,0.000,0.025
2620,0.000,0.025
2621,0.000,0.025
2622,0.000,0.025
2623,0.000,0.025
2624,0.000,0.025
2625,0.000,0.025
2626,0.000,0.025
2627,0.000,0.025
2628,0.000,0.025
2629,0.000,0.030
2630,0.000,0.030
2631,0.005,0.030
2632,0.000,0.030
2633,0.000,0.030
2634,0.000,0.025
2635,0.000,0.025
2636,0.000,0.025
2637,0.005,0.030
2638,0.005,0.030
2639,0.000,0.030
2640,0.000,0.030
2641,0.000,0.030
2642,0.000,0.025
2643,0.000,0.025
2644,0.000,0.025
2645,0.000,0.025
2646,0.000,0.025
2647,0.000,0.025
2648,0.000,0.025
2649,0.000,0.020
2650,0.000,0.020
2651,0.000,0.020
2652,0.005,0.025
2653,0.000,0.020
2654,0.000,0.015
2655,-0.005,0.015
2656,0.000,0.020
2657,0.000,0.020
2658,0.000,0.020
2659,0.000,0.015
2660,0.000,0.015
2661,0.000,0.020
2662,0.005,0.025
2663,0.005,0.030
2664,0.005,0.025
2665,0.000,0.025
2666,0.000,0.025
2667,0.005,0.025
2668,0.005,0.025
2669,0.005,0.020
2670,0.000,0.010
2671,-0.005,0.000
2672,-0.015,0.000
2673,-0.010,0.000
2674,0.000,0.005
2675,-0.005,0.005
2676,0.000,0.035
2677,0.005,0.115
2678,0.065,0.290
2679,0.280,0.505
2680,0.545,0.545
2681,0.535,0.345
2682,0.305,0.080
2683,0.025,-0.050
2684,-0.070,-0.070
2685,-0.090,-0.060
2686,-0.065,-0.050
2687,-0.060,-0.045
2688,-0.045,-0.045
2689,-0.060,-0.045
2690,-0.055,-0.050
2691,-0.055,-0.050
2692,-0.045,-0.040
2693,-0.045,-0.040
2694,-0.045,-0.040
2695,-0.050,-0.045
2696,-0.060,-0.045
2697,-0.050,-0.045
2698,-0.050,-0.040
2699,-0.050,-0.040
2700,-0.055,-0.040
2701,-0.045,-0.035
2702,-0.045,-0.035
2703,-0.040,-0.035
2704,-0.045,-0.035
2705,-0.040,-0.035
2706,-0.040,-0.035
2707,-0.035,-0.035
2708,-0.035,-0.030
2709,-0.035,-0.030
2710,-0.035,-0.030
2711,-0.035,-0.035
2712,-0.035,-0.040
2713,-0.040,-0.045
2714,-0.040,-0.045
2715,-0.035,-0.045
2716,-0.030,-0.045
2717,-0.030,-0.045
2718,-0.025,-0.045
2719,-0.035,-0.040
2720,-0.025,-0.030
2721,-0.015,-0.020
2722,-0.015,-0.015
2723,-0.015,-0.005
2724,-0.015,0.000
2725,0.000,0.005
2726,0.000,0.010
2727,0.000,0.010
2728,-0.005,0.015
2729,0.000,0.015
2730,0.000,0.020
2731,0.000,0.020
2732,-0.005,0.020
2733,0.000,0.015
2734,-0.005,0.015
2735,0.000,0.015
2736,0.000,0.020
2737,0.000,0.025
2738,0.000,0.025
2739,0.000,0.025
2740,0.000,0.025
2741,0.000,0.025
2742,0.005,0.030
2743,0.005,0.030
2744,0.000,0.025
2745,0.000,0.025
2746,0.000,0.025
2747,0.000,0.025
2748,0.000,0.025
2749,0.000,0.025
2750,0.000,0.020
2751,0.000,0.020
2752,0.000,0.020
2753,0.000,0.020
2754,0.000,0.020
2755,0.000,0.025
2756,0.000,0.025
2757,0.000,0.020
2758,0.000,0.020
2759,0.000,0.020
2760,0.000,0.015
2761,0.000,0.015
2762,0.000,0.015
2763,0.000,0.020
2764,0.000,0.015
2765,0.000,0.015
2766,0.000,0.020
2767,0.000,0.020
2768,0.000,0.020
2769,0.000,0.020
2770,0.000,0.020
2771,0.005,0.025
2772,0.000,0.020
2773,0.000,0.020
2774,0.000,0.020
2775,0.000,0.025
2776,0.020,0.025
2777,0.005,0.025
2778,0.005,0.020
2779,0.000,0.010
2780,0.000,0.000
2781,-0.015,0.000
2782,0.000,0.000
2783,-0.015,0.005
2784,-0.005,0.010
2785,0.000,0.040
2786,0.020,0.130
2787,0.100,0.310
2788,0.335,0.475
2789,0.510,0.445
2790,0.465,0.230
2791,0.215,0.010
2792,0.000,-0.080
2793,-0.070,-0.070
2794,-0.065,-0.040
2795,-0.050,-0.030
2796,-0.040,-0.025
2797,-0.040,-0.025
2798,-0.040,-0.025
2799,-0.040,-0.025
2800,-0.040,-0.025
2801,-0.040,-0.030
2802,-0.040,-0.030
2803,-0.040,-0.030
2804,-0.040,-0.030
2805,-0.050,-0.035
2806,-0.040,-0.030
2807,-0.045,-0.030
2808,-0.030,-0.030
2809,-0.040,-0.030
2810,-0.040,-0.035
2811,-0.050,-0.030
2812,-0.030,-0.025
2813,-0.035,-0.020
2814,-0.020,-0.020
2815,-0.035,-0.020
2816,-0.030,-0.025
2817,-0.035,-0.025
2818,-0.025,-0.020
2819,-0.025,-0.015
2820,-0.015,-0.015
2821,-0.020,-0.015
2822,-0.025,-0.020
2823,-0.020,-0.020
2824,-0.010,-0.015
2825,0.000,-0.015
2826,0.000,-0.015
2827,0.000,-0.015
2828,-0.010,-0.015
2829,0.000,-0.010
2830,-0.010,-0.010
2831,-0.015,-0.015
2832,-0.020,-0.005
2833,-0.015,0.000
2834,-0.010,0.000
2835,-0.005,0.005
2836,0.000,0.010
2837,0.000,0.015
2838,-0.005,0.010
2839,-0.005,0.010
2840,-0.005,0.010
2841,-0.005,0.015
2842,0.000,0.020
2843,-0.005,0.020
2844,0.000,0.020
2845,-0.005,0.030
2846,0.010,0.085
2847,0.050,0.220
2848,0.180,0.440
2849,0.425,0.610
2850,0.585,0.560
2851,0.480,0.320
2852,0.180,0.100
2853,0.010,0.010
2854,-0.045,-0.020
2855,-0.065,-0.050
2856,-0.060,-0.055
2857,-0.045,-0.060
2858,-0.065,-0.060
2859,-0.055,-0.060
2860,-0.060,-0.055
2861,-0.040,-0.055
2862,-0.065,-0.055
2863,-0.060,-0.060
2864,-0.070,-0.060
2865,-0.050,-0.055
2866,-0.055,-0.055
2867,-0.055,-0.060
2868,-0.060,-0.060
2869,-0.050,-0.060
2870,-0.050,-0.055
2871,-0.050,-0.055
2872,-0.050,-0.055
2873,-0.055,-0.055
2874,-0.055,-0.055
2875,-0.055,-0.055
2876,-0.050,-0.055
2877,-0.045,-0.050
2878,-0.035,-0.050
2879,-0.035,-0.050
2880,-0.040,-0.050
2881,-0.040,-0.055
2882,-0.040,-0.050
2883,-0.035,-0.045
2884,-0.040,-0.040
2885,-0.030,-0.030
2886,-0.020,-0.020
2887,-0.015,-0.010
2888,-0.020,0.000
2889,-0.010,0.000
2890,-0.015,0.005
2891,0.000,0.015
2892,0.000,0.025
2893,0.000,0.020
2894,0.000,0.020
2895,0.000,0.020
2896,0.000,0.025
2897,0.000,0.025
2898,0.000,0.025
2899,0.000,0.025
2900,0.000,0.025
2901,0.000,0.025
2902,0.000,0.025
2903,0.000,0.025
2904,0.000,0.025
2905,0.000,0.025
2906,0.000,0.025
2907,0.000,0.025
2908,0.000,0.025
2909,0.000,0.025
2910,0.000,0.025
2911,0.000,0.020
2912,0.000,0.020
2913,0.000,0.020
2914,0.010,0.025
2915,0.000,0.020
2916,0.000,0.020
2917,0.000,0.020
2918,0.000,0.020
2919,0.000,0.020
2920,0.000,0.020
2921,0.000,0.020
2922,0.000,0.020
2923,0.000,0.020
2924,0.000,0.020
2925,0.000,0.020
2926,0.000,0.015
2927,0.000,0.015
2928,0.000,0.015
2929,0.000,0.015
2930,0.000,0.015
2931,0.000,0.015
2932,0.000,0.015
2933,0.000,0.015
2934,0.000,0.015
2935,0.000,0.015
2936,0.000,0.015
2937,0.000,0.015
2938,0.000,0.015
2939,-0.005,0.015
2940,0.000,0.015
2941,0.000,0.015
2942,0.000,0.015
2943,0.000,0.015
2944,0.005,0.015
2945,0.000,0.015
2946,0.000,0.015
2947,0.000,0.020
2948,0.000,0.020
2949,0.000,0.020
2950,0.000,0.020
2951,0.000,0.020
2952,0.000,0.025
2953,0.005,0.025
2954,0.000,0.025
2955,0.000,0.025
2956,0.000,0.025
2957,0.000,0.025
2958,0.000,0.025
2959,0.005,0.020
2960,0.000,0.010
2961,0.000,0.005
2962,-0.005,0.005
2963,-0.005,0.005
2964,0.000,0.010
2965,0.000,0.020
2966,0.005,0.060
2967,0.025,0.175
2968,0.140,0.380
2969,0.385,0.545
2970,0.570,0.505
2971,0.475,0.270
2972,0.210,0.040
2973,-0.005,-0.045
2974,-0.060,-0.055
2975,-0.070,-0.050
2976,-0.055,-0.045
2977,-0.050,-0.040
2978,-0.050,-0.040
2979,-0.050,-0.040
2980,-0.050,-0.040
2981,-0.050,-0.045
2982,-0.050,-0.045
2983,-0.045,-0.040
2984,-0.050,-0.040
2985,-0.050,-0.040
2986,-0.060,-0.040
2987,-0.045,-0.040
2988,-0.055,-0.045
2989,-0.040,-0.040
2990,-0.055,-0.040
2991,-0.040,-0.045
2992,-0.055,-0.045
2993,-0.035,-0.035
2994,-0.040,-0.035
2995,-0.040,-0.035
2996,-0.045,-0.035
2997,-0.030,-0.030
2998,-0.035,-0.030
2999,-0.030,-0.030
3000,-0.035,-0.030
3001,-0.030,-0.030
3002,-0.030,-0.030
3003,-0.020,-0.025
3004,-0.020,-0.025
3005,-0.020,-0.030
3006,-0.015,-0.020
3007,-0.010,-0.020
3008,-0.005,-0.015
3009,-0.005,-0.015
3010,-0.010,-0.015
3011,-0.020,-0.020
3012,-0.030,-0.020
3013,-0.020,-0.010
3014,-0.020,0.000
3015,-0.015,0.000
3016,-0.020,0.000
3017,-0.010,0.010
3018,-0.010,0.015
3019,0.000,0.015
3020,0.000,0.015
3021,0.000,0.015
3022,-0.005,0.010
3023,0.000,0.010
3024,-0.005,0.015
3025,0.000,0.020
3026,0.000,0.020
3027,0.000,0.020
3028,0.000,0.025
3029,0.000,0.025
3030,0.000,0.025
3031,0.015,0.045
3032,0.020,0.145
3033,0.105,0.375
3034,0.340,0.640
3035,0.585,0.690
3036,0.480,0.485
3037,0.225,0.230
3038,0.050,0.065
3039,-0.035,-0.020
3040,-0.055,-0.060
3041,-0.065,-0.070
3042,-0.055,-0.075
3043,-0.060,-0.075
3044,-0.050,-0.075
3045,-0.060,-0.080
3046,-0.050,-0.080
3047,-0.055,-0.080
3048,-0.055,-0.080
3049,-0.060,-0.080
3050,-0.060,-0.080
3051,-0.060,-0.080
3052,-0.060,-0.080
3053,-0.055,-0.080
3054,-0.060,-0.080
3055,-0.055,-0.075
3056,-0.050,-0.075
3057,-0.045,-0.075
3058,-0.040,-0.075
3059,-0.050,-0.080
3060,-0.050,-0.080
3061,-0.055,-0.080
3062,-0.050,-0.085
3063,-0.050,-0.085
3064,-0.045,-0.080
3065,-0.045,-0.080
3066,-0.030,-0.080
3067,-0.040,-0.080
3068,-0.035,-0.075
3069,-0.040,-0.070
3070,-0.020,-0.055
3071,-0.025,-0.040
3072,0.000,-0.030
3073,-0.020,-0.015
3074,-0.005,0.000
3075,-0.005,0.000
3076,0.000,0.010
3077,0.000,0.020
3078,0.000,0.025
3079,0.005,0.025
3080,0.005,0.030
3081,0.000,0.030
3082,0.000,0.030
3083,0.005,0.035
3084,0.000,0.035
3085,0.000,0.030
3086,0.000,0.030
3087,0.005,0.035
3088,0.000,0.035
3089,0.000,0.035
3090,0.000,0.035
3091,0.000,0.035
3092,0.000,0.030
3093,0.005,0.030
3094,0.005,0.035
3095,0.000,0.035
3096,0.005,0.030
3097,0.000,0.030
3098,0.000,0.030
3099,0.000,0.030
3100,0.000,0.030
3101,0.000,0.025
3102,0.000,0.025
3103,0.000,0.030
3104,0.000,0.025
3105,0.000,0.025
3106,0.000,0.025
3107,0.000,0.025
3108,0.000,0.025
3109,0.005,0.025
3110,0.005,0.025
3111,0.000,0.025
3112,0.000,0.025
3113,0.000,0.025
3114,0.000,0.025
3115,0.010,0.025
3116,0.000,0.025
3117,0.000,0.025
3118,0.000,0.025
3119,0.000,0.025
3120,0.000,0.025
3121,0.005,0.025
3122,0.000,0.025
3123,0.000,0.025
3124,0.000,0.025
3125,0.000,0.025
3126,0.000,0.025
3127,0.000,0.025
3128,0.000,0.025
3129,0.000,0.025
3130,0.000,0.025
3131,0.000,0.025
3132,0.000,0.025
3133,0.000,0.025
3134,0.000,0.025
3135,0.005,0.030
3136,0.005,0.030
3137,0.005,0.030
3138,0.010,0.030
3139,0.010,0.030
3140,0.010,0.035
3141,0.015,0.030
3142,0.000,0.020
3143,0.000,0.010
3144,-0.005,0.010
3145,0.000,0.010
3146,0.000,0.010
3147,0.000,0.015
3148,-0.005,0.025
3149,0.005,0.060
3150,0.020,0.155
3151,0.110,0.330
3152,0.345,0.490
3153,0.545,0.445
3154,0.455,0.205
3155,0.190,-0.005
3156,-0.030,-0.080
3157,-0.070,-0.060
3158,-0.070,-0.045
3159,-0.050,-0.035
3160,-0.040,-0.030
3161,-0.040,-0.030
3162,-0.035,-0.030
3163,-0.035,-0.025
3164,-0.030,-0.025
3165,-0.035,-0.025
3166,-0.040,-0.025
3167,-0.050,-0.030
3168,-0.045,-0.035
3169,-0.055,-0.035
3170,-0.045,-0.030
3171,-0.040,-0.025
3172,-0.030,-0.025
3173,-0.040,-0.030
3174,-0.040,-0.035
3175,-0.040,-0.030
3176,-0.035,-0.025
3177,-0.035,-0.025
3178,-0.035,-0.025
3179,-0.030,-0.025
3180,-0.030,-0.020
3181,-0.025,-0.020
3182,-0.025,-0.020
3183,-0.025,-0.020
3184,-0.025,-0.020
3185,-0.030,-0.025
3186,-0.025,-0.020
3187,-0.020,-0.015
3188,-0.010,-0.015
3189,-0.020,-0.015
3190,-0.010,-0.015
3191,-0.015,-0.020
3192,-0.015,-0.020
3193,-0.025,-0.015
3194,-0.010,-0.005
3195,-0.015,0.000
3196,0.000,0.000
3197,-0.005,0.005
3198,0.000,0.015
3199,0.000,0.020
3200,0.005,0.025
3201,0.000,0.025
3202,0.005,0.025
3203,0.000,0.030
3204,0.000,0.025
3205,0.000,0.025
3206,0.000,0.025
3207,0.000,0.025
3208,0.000,0.025
3209,0.000,0.025
3210,0.000,0.025
3211,0.000,0.025
3212,0.000,0.025
3213,0.000,0.030
3214,0.000,0.030
3215,0.000,0.030
3216,0.000,0.030
3217,0.005,0.035
3218,0.000,0.035
3219,0.005,0.035
3220,0.000,0.035
3221,0.005,0.030
3222,0.005,0.030
3223,0.000,0.030
3224,0.005,0.030
3225,0.000,0.030
3226,0.005,0.030
3227,0.000,0.030
3228,0.000,0.030
3229,0.000,0.030
3230,0.010,0.030
3231,0.010,0.030
3232,0.005,0.025
3233,0.000,0.025
3234,0.000,0.025
3235,0.000,0.025
3236,0.000,0.025
3237,0.000,0.025
3238,0.005,0.025
3239,0.000,0.020
3240,0.000,0.020
3241,0.000,0.025
3242,0.000,0.025
3243,0.000,0.025
3244,0.000,0.025
3245,0.000,0.025
3246,0.000,0.025
3247,0.020,0.030
3248,0.010,0.025
3249,0.010,0.025
3250,0.010,0.030
3251,0.020,0.035
3252,0.005,0.030
3253,0.010,0.030
3254,0.000,0.025
3255,0.000,0.015
3256,-0.005,0.010
3257,0.000,0.010
3258,-0.005,0.010
3259,0.000,0.015
3260,0.000,0.035
3261,0.015,0.110
3262,0.070,0.280
3263,0.265,0.490
3264,0.515,0.570
3265,0.570,0.410
3266,0.360,0.155
3267,0.090,-0.005
3268,-0.045,-0.055
3269,-0.070,-0.050
3270,-0.060,-0.040
3271,-0.045,-0.040
3272,-0.050,-0.040
3273,-0.040,-0.040
3274,-0.040,-0.040
3275,-0.030,-0.040
3276,-0.040,-0.045
3277,-0.035,-0.050
3278,-0.055,-0.045
3279,-0.040,-0.040
3280,-0.035,-0.040
3281,-0.025,-0.040
3282,-0.050,-0.045
3283,-0.050,-0.050
3284,-0.050,-0.050
3285,-0.050,-0.045
3286,-0.050,-0.045
3287,-0.040,-0.040
3288,-0.040,-0.040
3289,-0.040,-0.045
3290,-0.045,-0.040
3291,-0.045,-0.040
3292,-0.030,-0.035
3293,-0.030,-0.035
3294,-0.025,-0.035
3295,-0.040,-0.035
3296,-0.030,-0.040
3297,-0.040,-0.045
3298,-0.035,-0.050
3299,-0.035,-0.045
3300,-0.025,-0.045
3301,-0.030,-0.045
3302,-0.030,-0.045
3303,-0.035,-0.035
3304,-0.025,-0.025
3305,-0.020,-0.020
3306,-0.010,-0.010
3307,-0.005,0.000
3308,-0.010,0.000
3309,-0.005,0.000
3310,-0.005,0.005
3311,0.000,0.015
3312,0.000,0.020
3313,0.000,0.020
3314,0.000,0.015
3315,0.000,0.015
3316,0.000,0.015
3317,0.000,0.020
3318,0.000,0.020
3319,0.000,0.020
3320,0.000,0.020
3321,0.000,0.020
3322,0.000,0.025
3323,0.000,0.030
3324,0.000,0.030
3325,0.000,0.030
3326,0.000,0.025
3327,0.000,0.025
3328,0.005,0.025
3329,0.000,0.025
3330,0.005,0.030
3331,0.005,0.030
3332,0.005,0.030
3333,0.000,0.025
3334,0.000,0.025
3335,0.000,0.025
3336,0.000,0.025
3337,0.000,0.025
3338,0.000,0.025
3339,0.005,0.025
3340,0.005,0.025
3341,0.005,0.020
3342,0.000,0.020
3343,0.000,0.020
3344,0.000,0.025
3345,0.000,0.020
3346,0.000,0.020
3347,0.000,0.020
3348,0.000,0.020
3349,0.000,0.020
3350,0.000,0.020
3351,0.005,0.025
3352,0.010,0.025
3353,0.005,0.025
3354,0.005,0.025
3355,0.000,0.025
3356,0.005,0.025
3357,0.005,0.025
3358,0.010,0.030
3359,0.000,0.030
3360,0.010,0.025
3361,0.000,0.015
3362,0.000,0.005
3363,-0.005,0.005
3364,0.000,0.005
3365,0.000,0.010
3366,0.000,0.010
3367,0.000,0.035
3368,0.010,0.100
3369,0.050,0.260
3370,0.265,0.470
3371,0.535,0.505
3372,0.525,0.305
3373,0.295,0.045
3374,0.020,-0.075
3375,-0.065,-0.075
3376,-0.075,-0.050
3377,-0.045,-0.040
3378,-0.045,-0.035
3379,-0.030,-0.030
3380,-0.040,-0.025
3381,-0.025,-0.025
3382,-0.035,-0.030
3383,-0.030,-0.030
3384,-0.040,-0.035
3385,-0.035,-0.040
3386,-0.035,-0.040
3387,-0.040,-0.040
3388,-0.040,-0.040
3389,-0.040,-0.040
3390,-0.040,-0.040
3391,-0.040,-0.040
3392,-0.040,-0.035
3393,-0.035,-0.035
3394,-0.030,-0.030
3395,-0.030,-0.030
3396,-0.035,-0.035
3397,-0.035,-0.035
3398,-0.035,-0.030
3399,-0.030,-0.020
3400,-0.030,-0.015
3401,-0.020,-0.015
3402,-0.020,-0.015
3403,-0.010,-0.015
3404,-0.015,-0.015
3405,0.000,-0.010
3406,-0.005,-0.005
3407,0.000,-0.005
3408,0.000,-0.005
3409,0.000,-0.010
3410,0.000,-0.005
3411,0.000,-0.005
3412,-0.010,-0.005
3413,-0.010,0.000
3414,-0.010,0.000
3415,-0.005,0.000
3416,0.000,0.010
3417,0.000,0.015
3418,0.000,0.015
3419,0.000,0.020
3420,0.000,0.020
3421,0.000,0.020
3422,0.000,0.020
3423,0.000,0.020
3424,0.000,0.020
3425,0.000,0.020
3426,0.000,0.020
3427,0.000,0.045
3428,0.035,0.115
3429,0.080,0.280
3430,0.260,0.500
3431,0.495,0.610
3432,0.595,0.500
3433,0.415,0.260
3434,0.140,0.075
3435,0.000,0.000
3436,-0.050,-0.025
3437,-0.065,-0.045
3438,-0.060,-0.055
3439,-0.055,-0.055
3440,-0.050,-0.055
3441,-0.055,-0.055
3442,-0.060,-0.060
3443,-0.055,-0.060
3444,-0.055,-0.060
3445,-0.055,-0.060
3446,-0.055,-0.060
3447,-0.055,-0.060
3448,-0.055,-0.060
3449,-0.055,-0.060
3450,-0.050,-0.055
3451,-0.055,-0.055
3452,-0.045,-0.055
3453,-0.055,-0.050
3454,-0.040,-0.050
3455,-0.045,-0.050
3456,-0.030,-0.050
3457,-0.045,-0.050
3458,-0.035,-0.050
3459,-0.040,-0.045
3460,-0.025,-0.040
3461,-0.040,-0.040
3462,-0.030,-0.040
3463,-0.035,-0.035
3464,-0.025,-0.035
3465,-0.030,-0.035
3466,-0.025,-0.025
3467,-0.020,-0.015
3468,-0.015,-0.005
3469,-0.015,0.000
3470,-0.010,0.000
3471,0.000,0.010
3472,0.000,0.015
3473,0.000,0.020
3474,0.000,0.025
3475,0.000,0.025
3476,0.000,0.025
3477,0.000,0.025
3478,0.000,0.030
3479,0.000,0.030
3480,0.000,0.025
3481,0.000,0.025
3482,0.000,0.030
3483,0.000,0.030
3484,0.005,0.030
3485,0.000,0.030
3486,0.000,0.030
3487,0.000,0.030
3488,0.000,0.030
3489,0.000,0.025
3490,0.000,0.025
3491,0.000,0.030
3492,0.005,0.030
3493,0.000,0.025
3494,0.000,0.025
3495,0.000,0.020
3496,0.000,0.020
3497,0.000,0.020
3498,0.005,0.020
3499,0.005,0.020
3500,0.000,0.015
3501,0.000,0.015
3502,0.000,0.015
3503,0.000,0.015
3504,0.000,0.015
3505,0.000,0.015
3506,0.000,0.015
3507,0.000,0.015
3508,0.000,0.015
3509,0.000,0.015
3510,0.000,0.015
3511,0.000,0.010
3512,0.000,0.010
3513,0.000,0.010
3514,0.000,0.010
3515,0.000,0.010
3516,0.000,0.010
3517,0.000,0.010
3518,0.000,0.010
3519,0.000,0.010
3520,0.000,0.010
3521,0.000,0.010
3522,0.000,0.010
3523,0.000,0.010
3524,0.000,0.010
3525,0.000,0.010
3526,0.000,0.010
3527,0.000,0.010
3528,0.000,0.010
3529,0.000,0.010
3530,0.000,0.010
3531,0.000,0.010
3532,0.000,0.010
3533,0.000,0.015
3534,0.000,0.020
3535,0.005,0.020
3536,0.000,0.020
3537,0.010,0.020
3538,0.000,0.015
3539,0.000,0.010
3540,0.000,0.005
3541,0.000,0.000
3542,0.000,0.000
3543,0.000,0.000
3544,-0.010,0.000
3545,-0.010,0.000
3546,-0.005,0.005
3547,0.000,0.015
3548,0.000,0.065
3549,0.020,0.210
3550,0.200,0.440
3551,0.470,0.560
3552,0.570,0.430
3553,0.395,0.175
3554,0.125,-0.005
3555,-0.040,-0.060
3556,-0.075,-0.065
3557,-0.075,-0.060
3558,-0.055,-0.055
3559,-0.055,-0.050
3560,-0.050,-0.050
3561,-0.050,-0.050
3562,-0.050,-0.050
3563,-0.050,-0.050
3564,-0.050,-0.050
3565,-0.045,-0.050
3566,-0.050,-0.050
3567,-0.050,-0.060
3568,-0.060,-0.060
3569,-0.060,-0.060
3570,-0.060,-0.060
3571,-0.055,-0.055
3572,-0.055,-0.055
3573,-0.050,-0.050
3574,-0.050,-0.050
3575,-0.050,-0.050
3576,-0.045,-0.045
3577,-0.040,-0.045
3578,-0.040,-0.040
3579,-0.050,-0.040
3580,-0.045,-0.035
3581,-0.050,-0.035
3582,-0.030,-0.035
3583,-0.035,-0.035
3584,-0.025,-0.035
3585,-0.035,-0.035
3586,-0.025,-0.035
3587,-0.025,-0.035
3588,0.000,-0.030
3589,-0.005,-0.030
3590,-0.010,-0.030
3591,-0.020,-0.035
3592,-0.020,-0.035
3593,-0.030,-0.035
3594,-0.035,-0.030
3595,-0.035,-0.020
3596,-0.020,-0.005
3597,-0.010,0.000
3598,-0.005,0.000
3599,0.000,0.005
3600,0.000,0.010
3601,0.000,0.010
3602,-0.005,0.010
3603,0.000,0.010
3604,0.000,0.015
3605,0.000,0.015
3606,0.000,0.015
3607,0.000,0.015
3608,0.000,0.015
3609,0.000,0.015
3610,0.000,0.025
3611,0.005,0.025
3612,0.005,0.030
3613,0.005,0.080
3614,0.055,0.245
3615,0.220,0.505
3616,0.475,0.675
3617,0.560,0.600
3618,0.355,0.365
3619,0.125,0.150
3620,0.015,0.025
3621,-0.045,-0.035
3622,-0.050,-0.065
3623,-0.050,-0.075
3624,-0.055,-0.080
3625,-0.055,-0.080
3626,-0.055,-0.080
3627,-0.055,-0.080
3628,-0.060,-0.080
3629,-0.050,-0.080
3630,-0.060,-0.085
3631,-0.055,-0.090
3632,-0.060,-0.085
3633,-0.040,-0.085
3634,-0.060,-0.085
3635,-0.055,-0.090
3636,-0.065,-0.090
3637,-0.050,-0.085
3638,-0.060,-0.085
3639,-0.055,-0.085
3640,-0.065,-0.085
3641,-0.055,-0.090
3642,-0.055,-0.090
3643,-0.055,-0.090
3644,-0.055,-0.095
3645,-0.050,-0.095
3646,-0.055,-0.100
3647,-0.060,-0.105
3648,-0.055,-0.100
3649,-0.050,-0.095
3650,-0.045,-0.085
3651,-0.045,-0.075
3652,-0.040,-0.060
3653,-0.030,-0.045
3654,-0.020,-0.025
3655,-0.015,-0.005
3656,-0.010,0.000
3657,0.000,0.010
3658,0.000,0.020
3659,0.000,0.025
3660,0.000,0.030
3661,0.000,0.035
3662,0.000,0.040
3663,0.005,0.040
3664,0.000,0.040
3665,0.010,0.035
3666,0.000,0.030
3667,0.000,0.030
3668,0.000,0.035
3669,0.015,0.035
3670,0.005,0.035
3671,0.005,0.035
3672,0.000,0.035
3673,0.005,0.035
3674,0.005,0.035
3675,0.005,0.035
3676,0.005,0.030
3677,0.005,0.030
3678,0.005,0.035
3679,0.005,0.035
3680,0.005,0.030
3681,0.000,0.030
3682,0.005,0.030
3683,0.005,0.030
3684,0.010,0.035
3685,0.005,0.035
3686,0.005,0.030
3687,0.005,0.025
3688,0.000,0.025
3689,0.000,0.025
3690,0.000,0.025
3691,0.000,0.025
3692,0.005,0.030
3693,0.005,0.030
3694,0.000,0.025
3695,0.000,0.025
3696,0.000,0.025
3697,0.000,0.025
3698,0.000,0.025
3699,0.000,0.025
3700,0.000,0.025
3701,0.005,0.025
3702,0.005,0.025
3703,0.005,0.025
3704,0.000,0.025
3705,0.000,0.025
3706,0.000,0.025
3707,0.000,0.025
3708,0.005,0.025
3709,0.000,0.025
3710,0.000,0.025
3711,0.000,0.025
3712,0.010,0.025
3713,0.000,0.025
3714,0.020,0.030
3715,0.005,0.030
3716,0.025,0.030
3717,0.010,0.035
3718,0.020,0.030
3719,0.000,0.025
3720,0.000,0.015
3721,0.000,0.010
3722,0.000,0.005
3723,-0.005,0.005
3724,0.000,0.005
3725,0.000,0.005
3726,0.000,0.020
3727,0.005,0.060
3728,0.035,0.170
3729,0.150,0.345
3730,0.370,0.450
3731,0.495,0.355
3732,0.395,0.125
3733,0.165,-0.065
3734,-0.020,-0.125
3735,-0.070,-0.090
3736,-0.060,-0.045
3737,-0.050,-0.030
3738,-0.035,-0.025
3739,-0.035,-0.020
3740,-0.035,-0.020
3741,-0.040,-0.020
3742,-0.030,-0.020
3743,-0.040,-0.025
3744,-0.035,-0.030
3745,-0.045,-0.035
3746,-0.035,-0.035
3747,-0.045,-0.030
3748,-0.035,-0.025
3749,-0.045,-0.025
3750,-0.030,-0.025
3751,-0.040,-0.025
3752,-0.040,-0.020
3753,-0.035,-0.020
3754,-0.030,-0.015
3755,-0.030,-0.015
3756,-0.030,-0.010
3757,-0.020,-0.005
3758,-0.020,-0.005
3759,-0.020,-0.005
3760,-0.035,-0.010
3761,-0.025,-0.010
3762,-0.025,-0.010
3763,-0.010,-0.005
3764,-0.020,-0.005
3765,-0.005,-0.005
3766,-0.020,-0.005
3767,-0.015,-0.010
3768,-0.020,-0.010
3769,-0.015,-0.005
3770,-0.015,-0.005
3771,-0.005,0.000
3772,-0.005,0.000
3773,0.000,0.005
3774,0.000,0.010
3775,0.000,0.015
3776,0.000,0.020
3777,0.000,0.025
3778,0.005,0.030
3779,0.005,0.030
3780,0.005,0.030
3781,0.005,0.030
3782,0.005,0.030
3783,0.000,0.030
3784,0.000,0.030
3785,0.010,0.030
3786,0.005,0.025
3787,0.000,0.025
3788,0.000,0.025
3789,0.000,0.025
3790,0.000,0.025
3791,0.000,0.030
3792,0.000,0.030
3793,0.005,0.030
3794,0.000,0.030
3795,0.005,0.030
3796,0.000,0.030
3797,0.010,0.035
3798,0.005,0.035
3799,0.020,0.040
3800,0.005,0.035
3801,0.005,0.030
3802,0.005,0.030
3803,0.005,0.035
3804,0.005,0.030
3805,0.005,0.025
3806,0.005,0.025
3807,0.005,0.025
3808,0.005,0.025
3809,0.000,0.025
3810,0.000,0.025
3811,0.005,0.025
3812,0.005,0.025
3813,0.000,0.025
3814,0.000,0.025
3815,0.000,0.025
3816,0.000,0.020
3817,0.000,0.020
3818,0.005,0.020
3819,0.005,0.020
3820,0.000,0.020
3821,0.000,0.020
3822,0.010,0.025
3823,0.020,0.030
3824,0.015,0.025
3825,0.010,0.025
3826,0.005,0.025
3827,0.010,0.025
3828,0.005,0.020
3829,0.000,0.015
3830,0.000,0.000
3831,0.000,0.000
3832,0.000,0.000
3833,0.000,0.005
3834,0.000,0.005
3835,0.000,0.020
3836,0.010,0.070
3837,0.040,0.210
3838,0.200,0.415
3839,0.465,0.510
3840,0.550,0.350
3841,0.340,0.070
3842,0.060,-0.080
3843,-0.080,-0.090
3844,-0.055,-0.050
3845,-0.055,-0.035
3846,-0.035,-0.035
3847,-0.045,-0.035
3848,-0.040,-0.035
3849,-0.045,-0.035
3850,-0.040,-0.030
3851,-0.040,-0.030
3852,-0.030,-0.030
3853,-0.040,-0.035
3854,-0.045,-0.035
3855,-0.045,-0.035
3856,-0.035,-0.035
3857,-0.030,-0.035
3858,-0.030,-0.035
3859,-0.035,-0.035
3860,-0.040,-0.035
3861,-0.035,-0.035
3862,-0.035,-0.030
3863,-0.035,-0.030
3864,-0.030,-0.025
3865,-0.030,-0.020
3866,-0.020,-0.020
3867,-0.020,-0.020
3868,-0.020,-0.020
3869,-0.030,-0.025
3870,-0.015,-0.030
3871,-0.025,-0.030
3872,-0.015,-0.030
3873,-0.025,-0.030
3874,-0.015,-0.035
3875,-0.025,-0.035
3876,-0.015,-0.035
3877,-0.020,-0.030
3878,-0.015,-0.025
3879,-0.015,-0.015
3880,-0.010,-0.005
3881,-0.005,0.000
3882,-0.005,0.000
3883,-0.005,0.000
3884,0.000,0.005
3885,0.000,0.015
3886,0.000,0.020
3887,0.000,0.025
3888,0.000,0.025
3889,0.000,0.025
3890,0.000,0.025
3891,0.000,0.025
3892,0.000,0.025
3893,0.000,0.025
3894,0.000,0.025
3895,0.000,0.025
3896,0.000,0.025
3897,0.000,0.025
3898,0.000,0.030
3899,0.000,0.030
3900,0.000,0.030
3901,0.005,0.030
3902,0.000,0.035
3903,0.000,0.040
3904,0.000,0.035
3905,0.000,0.035
3906,0.000,0.030
3907,0.000,0.030
3908,0.005,0.025
3909,0.000,0.025
3910,0.000,0.025
3911,0.000,0.025
3912,0.000,0.025
3913,0.000,0.025
3914,0.000,0.025
3915,0.000,0.020
3916,0.000,0.020
3917,0.000,0.020
3918,0.000,0.020
3919,0.000,0.020
3920,0.000,0.020
3921,0.000,0.020
3922,0.000,0.020
3923,0.005,0.020
3924,0.000,0.015
3925,0.000,0.015
3926,0.000,0.015
3927,0.005,0.015
3928,0.000,0.015
3929,0.005,0.020
3930,0.005,0.025
3931,0.010,0.025
3932,0.005,0.025
3933,0.010,0.025
3934,0.015,0.025
3935,0.015,0.030
3936,0.015,0.025
3937,0.005,0.015
3938,0.000,0.005
3939,-0.005,0.005
3940,0.000,0.005
3941,0.000,0.010
3942,0.000,0.010
3943,0.000,0.025
3944,0.010,0.080
3945,0.040,0.225
3946,0.205,0.445
3947,0.465,0.560
3948,0.570,0.445
3949,0.405,0.190
3950,0.130,0.000
3951,-0.030,-0.055
3952,-0.070,-0.045
3953,-0.055,-0.035
3954,-0.045,-0.035
3955,-0.035,-0.035
3956,-0.040,-0.035
3957,-0.035,-0.040
3958,-0.045,-0.040
3959,-0.045,-0.040
3960,-0.045,-0.040
3961,-0.045,-0.040
3962,-0.045,-0.040
3963,-0.045,-0.045
3964,-0.050,-0.045
3965,-0.055,-0.040
3966,-0.045,-0.040
3967,-0.040,-0.040
3968,-0.030,-0.040
3969,-0.045,-0.040
3970,-0.030,-0.040
3971,-0.045,-0.040
3972,-0.030,-0.040
3973,-0.045,-0.035
3974,-0.030,-0.035
3975,-0.035,-0.035
3976,-0.030,-0.030
3977,-0.035,-0.030
3978,-0.025,-0.025
3979,-0.025,-0.025
3980,-0.010,-0.030
3981,-0.020,-0.030
3982,-0.010,-0.030
3983,-0.005,-0.020
3984,0.000,-0.020
3985,0.000,-0.020
3986,-0.005,-0.025
3987,-0.010,-0.025
3988,-0.010,-0.025
3989,-0.015,-0.020
3990,-0.020,-0.015
3991,-0.010,-0.005
3992,-0.005,0.000
3993,-0.005,0.000
3994,0.000,0.010
3995,-0.005,0.015
3996,0.000,0.015
3997,-0.005,0.015
3998,0.000,0.015
3999,-0.005,0.015
4000,0.000,0.015
4001,-0.005,0.015
4002,0.000,0.015
4003,0.000,0.030
4004,0.015,0.070
4005,0.045,0.190
4006,0.165,0.410
4007,0.410,0.605
4008,0.630,0.590
4009,0.510,0.355
4010,0.210,0.125
4011,0.010,0.025
4012,-0.040,-0.015
4013,-0.065,-0.050
4014,-0.065,-0.055
4015,-0.055,-0.060
4016,-0.055,-0.060
4017,-0.050,-0.060
4018,-0.060,-0.065
4019,-0.055,-0.065
4020,-0.055,-0.070
4021,-0.050,-0.070
4022,-0.060,-0.070
4023,-0.065,-0.075
4024,-0.065,-0.075
4025,-0.060,-0.075
4026,-0.060,-0.070
4027,-0.055,-0.065
4028,-0.055,-0.065
4029,-0.050,-0.065
4030,-0.055,-0.065
4031,-0.055,-0.060
4032,-0.050,-0.055
4033,-0.040,-0.055
4034,-0.035,-0.060
4035,-0.045,-0.060
4036,-0.045,-0.065
4037,-0.050,-0.065
4038,-0.040,-0.060
4039,-0.040,-0.055
4040,-0.040,-0.050
4041,-0.035,-0.040
4042,-0.030,-0.035
4043,-0.020,-0.025
4044,-0.020,-0.015
4045,-0.015,-0.005
4046,-0.015,0.000
4047,0.000,0.000
4048,-0.005,0.010
4049,0.000,0.020
4050,0.000,0.025
4051,0.000,0.025
4052,0.000,0.025
4053,0.000,0.030
4054,0.000,0.030
4055,0.000,0.030
4056,0.000,0.030
4057,0.000,0.030
4058,0.000,0.030
4059,0.000,0.030
4060,0.000,0.035
4061,0.000,0.035
4062,0.005,0.035
4063,0.005,0.035
4064,0.005,0.030
4065,0.005,0.025
4066,0.005,0.025
4067,0.000,0.025
4068,0.000,0.025
4069,0.005,0.025
4070,0.005,0.025
4071,0.000,0.025
4072,0.000,0.020
4073,0.000,0.020
4074,0.000,0.020
4075,0.000,0.015
4076,0.000,0.015
4077,0.000,0.015
4078,0.000,0.015
4079,0.000,0.015
4080,0.000,0.020
4081,0.000,0.015
4082,0.000,0.015
4083,0.000,0.015
4084,0.000,0.015
4085,0.000,0.015
4086,0.000,0.015
4087,0.000,0.015
4088,0.000,0.010
4089,0.000,0.010
4090,0.000,0.015
4091,0.000,0.015
4092,0.000,0.015
4093,0.000,0.015
4094,0.000,0.015
4095,0.000,0.010
4096,0.005,0.010
4097,0.000,0.010
4098,0.000,0.010
4099,0.000,0.010
4100,0.000,0.010
4101,0.000,0.015
4102,0.000,0.015
4103,0.000,0.015
4104,0.000,0.010
4105,0.000,0.010
4106,0.000,0.010
4107,0.000,0.010
4108,0.000,0.010
4109,0.000,0.010
4110,0.000,0.010
4111,0.000,0.015
4112,0.005,0.020
4113,0.015,0.025
4114,0.015,0.025
4115,0.005,0.025
4116,0.005,0.025
4117,0.005,0.015
4118,0.000,0.010
4119,0.000,0.000
4120,0.000,0.000
4121,-0.005,0.000
4122,0.000,0.000
4123,-0.005,0.000
4124,0.000,0.010
4125,0.005,0.035
4126,0.020,0.110
4127,0.085,0.275
4128,0.295,0.455
4129,0.500,0.470
4130,0.495,0.275
4131,0.265,0.035
4132,0.020,-0.075
4133,-0.075,-0.070
4134,-0.060,-0.045
4135,-0.060,-0.035
4136,-0.040,-0.035
4137,-0.040,-0.035
4138,-0.040,-0.035
4139,-0.040,-0.035
4140,-0.035,-0.035
4141,-0.040,-0.035
4142,-0.045,-0.040
4143,-0.045,-0.040
4144,-0.050,-0.040
4145,-0.045,-0.040
4146,-0.045,-0.040
4147,-0.040,-0.040
4148,-0.040,-0.040
4149,-0.040,-0.040
4150,-0.045,-0.035
4151,-0.035,-0.035
4152,-0.040,-0.035
4153,-0.035,-0.035
4154,-0.035,-0.035
4155,-0.025,-0.030
4156,-0.030,-0.030
4157,-0.025,-0.030
4158,-0.025,-0.025
4159,-0.020,-0.020
4160,-0.015,-0.015
4161,-0.010,-0.015
4162,-0.010,-0.020
4163,-0.015,-0.020
4164,-0.015,-0.015
4165,-0.005,-0.010
4166,0.000,-0.010
4167,0.000,-0.010
4168,-0.010,-0.015
4169,-0.010,-0.010
4170,-0.015,-0.010
4171,-0.015,-0.005
4172,-0.020,0.000
4173,-0.010,0.000
4174,-0.005,0.005
4175,0.000,0.010
4176,0.000,0.015
4177,0.000,0.020
4178,0.000,0.025
4179,0.000,0.025
4180,0.000,0.025
4181,0.000,0.025
4182,0.000,0.025
4183,0.000,0.025
4184,0.000,0.025
4185,0.000,0.025
4186,0.000,0.025
4187,0.000,0.025
4188,0.000,0.025
4189,0.000,0.025
4190,0.000,0.025
4191,0.010,0.040
4192,0.025,0.140
4193,0.120,0.370
4194,0.355,0.620
4195,0.595,0.685
4196,0.535,0.510
4197,0.280,0.270
4198,0.080,0.100
4199,-0.020,0.005
4200,-0.055,-0.040
4201,-0.060,-0.055
4202,-0.050,-0.060
4203,-0.055,-0.065
4204,-0.060,-0.065
4205,-0.055,-0.070
4206,-0.055,-0.070
4207,-0.050,-0.075
4208,-0.060,-0.075
4209,-0.055,-0.075
4210,-0.065,-0.080
4211,-0.055,-0.080
4212,-0.060,-0.075
4213,-0.050,-0.075
4214,-0.060,-0.075
4215,-0.050,-0.080
4216,-0.060,-0.080
4217,-0.055,-0.075
4218,-0.050,-0.075
4219,-0.050,-0.075
4220,-0.050,-0.080
4221,-0.050,-0.080
4222,-0.045,-0.080
4223,-0.040,-0.080
4224,-0.040,-0.080
4225,-0.050,-0.080
4226,-0.045,-0.075
4227,-0.045,-0.065
4228,-0.025,-0.065
4229,-0.045,-0.060
4230,-0.030,-0.055
4231,-0.035,-0.040
4232,-0.015,-0.025
4233,-0.020,-0.005
4234,-0.005,0.000
4235,-0.005,0.010
4236,0.000,0.015
4237,0.000,0.020
4238,0.000,0.025
4239,0.000,0.030
4240,0.000,0.030
4241,0.000,0.035
4242,0.000,0.035
4243,0.000,0.035
4244,0.000,0.035
4245,0.005,0.040
4246,0.000,0.040
4247,0.000,0.035
4248,0.000,0.035
4249,0.000,0.035
4250,0.000,0.035
4251,0.000,0.030
4252,0.000,0.030
4253,0.000,0.030
4254,0.000,0.030
4255,0.000,0.030
4256,0.000,0.025
4257,0.000,0.025
4258,0.000,0.020
4259,0.000,0.020
4260,0.000,0.020
4261,0.000,0.025
4262,0.005,0.025
4263,0.000,0.025
4264,0.000,0.025
4265,0.000,0.020
4266,0.000,0.020
4267,0.000,0.020
4268,0.000,0.015
4269,0.000,0.015
4270,0.000,0.020
4271,0.000,0.015
4272,0.000,0.010
4273,0.000,0.010
4274,0.000,0.015
4275,0.000,0.015
4276,0.000,0.015
4277,0.000,0.010
4278,0.000,0.010
4279,0.000,0.010
4280,0.000,0.010
4281,0.000,0.010
4282,0.000,0.010
4283,0.000,0.010
4284,0.000,0.010
4285,0.000,0.010
4286,0.000,0.010
4287,0.000,0.010
4288,0.000,0.010
4289,0.000,0.010
4290,0.000,0.010
4291,0.000,0.010
4292,0.000,0.010
4293,0.000,0.010
4294,0.000,0.010
4295,0.000,0.010
4296,0.000,0.010
4297,0.000,0.010
4298,0.000,0.010
4299,0.005,0.015
4300,0.005,0.020
4301,0.005,0.015
4302,0.000,0.010
4303,0.000,0.005
4304,0.000,0.000
4305,0.000,0.000
4306,-0.015,0.000
4307,0.000,0.000
4308,-0.010,0.000
4309,0.000,0.005
4310,0.000,0.020
4311,0.010,0.100
4312,0.050,0.295
4313,0.320,0.500
4314,0.545,0.500
4315,0.510,0.270
4316,0.225,0.020
4317,0.000,-0.080
4318,-0.080,-0.075
4319,-0.075,-0.060
4320,-0.065,-0.045
4321,-0.050,-0.040
4322,-0.045,-0.040
4323,-0.045,-0.040
4324,-0.045,-0.040
4325,-0.050,-0.045
4326,-0.045,-0.045
4327,-0.050,-0.040
4328,-0.045,-0.040
4329,-0.050,-0.045
4330,-0.045,-0.050
4331,-0.045,-0.050
4332,-0.050,-0.050
4333,-0.050,-0.045
4334,-0.050,-0.045
4335,-0.045,-0.045
4336,-0.045,-0.040
4337,-0.035,-0.040
4338,-0.040,-0.040
4339,-0.030,-0.035
4340,-0.035,-0.030
4341,-0.025,-0.025
4342,-0.030,-0.025
4343,-0.020,-0.030
4344,-0.035,-0.030
4345,-0.030,-0.025
4346,-0.025,-0.025
4347,-0.020,-0.030
4348,-0.030,-0.035
4349,-0.030,-0.040
4350,-0.030,-0.040
4351,-0.025,-0.035
4352,-0.020,-0.035
4353,-0.025,-0.035
4354,-0.015,-0.025
4355,-0.015,-0.020
4356,-0.010,-0.010
4357,-0.015,-0.005
4358,0.000,0.000
4359,-0.005,0.000
4360,0.000,0.005
4361,0.000,0.010
4362,0.000,0.015
4363,0.000,0.020
4364,0.000,0.025
4365,0.000,0.025
4366,0.000,0.025
4367,0.000,0.025
4368,0.000,0.025
4369,0.000,0.025
4370,0.000,0.030
4371,0.000,0.030
4372,0.000,0.030
4373,0.005,0.030
4374,0.005,0.035
4375,0.005,0.035
4376,0.010,0.040
4377,0.010,0.045
4378,0.010,0.040
4379,0.010,0.040
4380,0.005,0.040
4381,0.000,0.035
4382,0.000,0.035
4383,0.000,0.035
4384,0.005,0.035
4385,0.000,0.030
4386,0.010,0.025
4387,0.000,0.025
4388,0.005,0.025
4389,0.000,0.025
4390,0.000,0.025
4391,0.000,0.025
4392,0.000,0.025
4393,0.000,0.025
4394,0.000,0.020
4395,0.000,0.020
4396,0.000,0.020
4397,0.000,0.020
4398,0.000,0.025
4399,0.000,0.025
4400,0.000,0.025
4401,0.005,0.020
4402,0.000,0.020
4403,0.000,0.015
4404,0.000,0.015
4405,0.000,0.015
4406,0.000,0.015
4407,0.000,0.020
4408,0.005,0.020
4409,0.005,0.015
4410,0.000,0.015
4411,0.005,0.015
4412,0.005,0.015
4413,0.005,0.020
4414,0.005,0.010
4415,0.000,0.000
4416,-0.010,0.000
4417,-0.010,0.000
4418,-0.005,0.000
4419,-0.005,0.000
4420,0.000,0.005
4421,0.000,0.030
4422,0.010,0.095
4423,0.065,0.250
4424,0.260,0.435
4425,0.485,0.475
4426,0.505,0.300
4427,0.285,0.055
4428,0.020,-0.070
4429,-0.080,-0.080
4430,-0.075,-0.060
4431,-0.060,-0.045
4432,-0.050,-0.045
4433,-0.045,-0.040
4434,-0.055,-0.040
4435,-0.045,-0.045
4436,-0.055,-0.045
4437,-0.045,-0.045
4438,-0.055,-0.045
4439,-0.040,-0.045
4440,-0.060,-0.050
4441,-0.045,-0.050
4442,-0.055,-0.050
4443,-0.035,-0.050
4444,-0.050,-0.050
4445,-0.040,-0.045
4446,-0.040,-0.045
4447,-0.035,-0.045
4448,-0.040,-0.040
4449,-0.040,-0.035
4450,-0.035,-0.030
4451,-0.030,-0.030
4452,-0.030,-0.030
4453,-0.035,-0.030
4454,-0.030,-0.030
4455,-0.030,-0.030
4456,-0.025,-0.035
4457,-0.030,-0.035
4458,-0.030,-0.040
4459,-0.025,-0.040
4460,-0.025,-0.040
4461,-0.025,-0.040
4462,-0.030,-0.045
4463,-0.025,-0.040
4464,-0.030,-0.035
4465,-0.020,-0.030
4466,-0.025,-0.020
4467,-0.010,-0.005
4468,-0.010,0.000
4469,0.000,0.000
4470,-0.010,0.000
4471,0.000,0.010
4472,0.000,0.015
4473,0.000,0.020
4474,0.000,0.020
4475,0.000,0.020
4476,0.000,0.020
4477,0.000,0.020
4478,0.000,0.020
4479,0.000,0.020
4480,0.000,0.020
4481,0.000,0.020
4482,0.000,0.020
4483,0.000,0.020
4484,0.000,0.020
4485,0.000,0.020
4486,0.000,0.025
4487,0.000,0.025
4488,0.000,0.025
4489,0.000,0.025
4490,0.000,0.025
4491,0.000,0.025
4492,0.000,0.025
4493,0.000,0.025
4494,0.000,0.025
4495,0.000,0.025
4496,0.000,0.025
4497,0.000,0.025
4498,0.000,0.025
4499,0.000,0.025
4500,0.000,0.025
4501,0.000,0.020
4502,0.000,0.020
4503,0.000,0.020
4504,0.000,0.020
4505,0.000,0.020
4506,0.000,0.020
4507,0.000,0.020
4508,0.000,0.020
4509,0.000,0.015
4510,0.000,0.015
4511,0.000,0.015
4512,0.000,0.015
4513,0.000,0.020
4514,0.000,0.020
4515,0.000,0.025
4516,0.000,0.025
4517,0.000,0.020
4518,0.000,0.020
4519,0.000,0.020
4520,0.000,0.025
4521,0.000,0.030
4522,0.005,0.025
4523,0.000,0.020
4524,0.000,0.005
4525,-0.015,0.000
4526,-0.015,0.000
4527,-0.015,0.005
4528,0.000,0.010
4529,0.000,0.025
4530,0.000,0.080
4531,0.020,0.240
4532,0.215,0.475
4533,0.500,0.590
4534,0.585,0.450
4535,0.395,0.185
4536,0.110,0.000
4537,-0.045,-0.060
4538,-0.085,-0.065
4539,-0.065,-0.055
4540,-0.060,-0.050
4541,-0.050,-0.050
4542,-0.055,-0.050
4543,-0.055,-0.050
4544,-0.055,-0.050
4545,-0.055,-0.050
4546,-0.050,-0.055
4547,-0.055,-0.055
4548,-0.050,-0.055
4549,-0.060,-0.060
4550,-0.060,-0.065
4551,-0.060,-0.060
4552,-0.055,-0.055
4553,-0.060,-0.055
4554,-0.055,-0.055
4555,-0.055,-0.055
4556,-0.055,-0.050
4557,-0.055,-0.050
4558,-0.050,-0.045
4559,-0.045,-0.040
4560,-0.040,-0.040
4561,-0.030,-0.040
4562,-0.045,-0.040
4563,-0.045,-0.040
4564,-0.055,-0.045
4565,-0.040,-0.040
4566,-0.045,-0.040
4567,-0.030,-0.040
4568,-0.035,-0.045
4569,-0.015,-0.040
4570,-0.020,-0.040
4571,-0.010,-0.040
4572,-0.035,-0.040
4573,-0.015,-0.035
4574,-0.025,-0.035
4575,-0.020,-0.035
4576,-0.035,-0.025
4577,-0.025,-0.015
4578,-0.025,-0.005
4579,-0.020,0.000
4580,-0.015,0.000
4581,-0.005,0.005
4582,-0.005,0.005
4583,-0.010,0.005
4584,-0.010,0.000
4585,-0.015,0.000
4586,-0.010,0.000
4587,-0.010,0.005
4588,-0.005,0.010
4589,0.000,0.030
4590,0.010,0.085
4591,0.050,0.215
4592,0.185,0.415
4593,0.425,0.545
4594,0.550,0.475
4595,0.430,0.275
4596,0.165,0.100
4597,0.010,0.015
4598,-0.045,-0.020
4599,-0.065,-0.050
4600,-0.065,-0.060
4601,-0.055,-0.060
4602,-0.065,-0.060
4603,-0.050,-0.060
4604,-0.060,-0.060
4605,-0.055,-0.055
4606,-0.060,-0.055
4607,-0.060,-0.055
4608,-0.060,-0.060
4609,-0.060,-0.060
4610,-0.055,-0.060
4611,-0.055,-0.060
4612,-0.050,-0.060
4613,-0.060,-0.060
4614,-0.050,-0.060
4615,-0.055,-0.060
4616,-0.045,-0.055
4617,-0.050,-0.055
4618,-0.045,-0.055
4619,-0.055,-0.050
4620,-0.040,-0.050
4621,-0.040,-0.050
4622,-0.030,-0.050
4623,-0.040,-0.050
4624,-0.035,-0.050
4625,-0.040,-0.050
4626,-0.035,-0.045
4627,-0.035,-0.040
4628,-0.030,-0.030
4629,-0.025,-0.020
4630,-0.020,-0.010
4631,-0.015,0.000
4632,-0.010,0.000
4633,0.000,0.005
4634,0.000,0.015
4635,0.000,0.020
4636,0.000,0.025
4637,0.000,0.025
4638,0.000,0.030
4639,0.000,0.030
4640,0.000,0.025
4641,0.000,0.025
4642,0.000,0.025
4643,0.000,0.030
4644,0.000,0.025
4645,0.000,0.025
4646,0.000,0.025
4647,0.000,0.030
4648,0.000,0.030
4649,0.000,0.030
4650,0.000,0.030
4651,0.000,0.030
4652,0.000,0.030
4653,0.000,0.030
4654,0.000,0.025
4655,0.000,0.025
4656,0.000,0.025
4657,0.000,0.025
4658,0.000,0.025
4659,0.000,0.025
4660,0.000,0.025
4661,0.000,0.025
4662,0.000,0.025
4663,0.000,0.025
4664,0.000,0.025
4665,0.000,0.020
4666,0.000,0.020
4667,0.000,0.020
4668,0.000,0.020
4669,0.000,0.020
4670,0.000,0.015
4671,0.000,0.015
4672,0.000,0.015
4673,0.000,0.015
4674,0.000,0.015
4675,0.000,0.020
4676,0.000,0.020
4677,0.000,0.015
4678,0.000,0.015
4679,0.000,0.015
4680,0.000,0.020
4681,0.000,0.020
4682,0.000,0.020
4683,0.000,0.015
4684,0.000,0.015
4685,0.000,0.015
4686,0.000,0.020
4687,0.000,0.020
4688,0.000,0.020
4689,0.000,0.015
4690,0.000,0.015
4691,0.000,0.015
4692,0.000,0.020
4693,0.000,0.020
4694,0.000,0.020
4695,0.000,0.020
4696,0.000,0.020
4697,0.000,0.020
4698,0.000,0.020
4699,0.005,0.025
4700,0.000,0.025
4701,0.005,0.025
4702,0.000,0.025
4703,0.000,0.020
4704,0.000,0.010
4705,0.000,0.005
4706,-0.010,0.000
4707,-0.005,0.000
4708,-0.010,0.000
4709,-0.005,0.005
4710,0.000,0.020
4711,0.005,0.060
4712,0.025,0.175
4713,0.150,0.360
4714,0.385,0.485
4715,0.520,0.405
4716,0.405,0.180
4717,0.155,-0.010
4718,-0.030,-0.080
4719,-0.080,-0.070
4720,-0.070,-0.055
4721,-0.055,-0.045
4722,-0.050,-0.040
4723,-0.045,-0.035
4724,-0.050,-0.035
4725,-0.040,-0.035
4726,-0.050,-0.035
4727,-0.040,-0.035
4728,-0.050,-0.035
4729,-0.040,-0.035
4730,-0.050,-0.035
4731,-0.040,-0.040
4732,-0.050,-0.040
4733,-0.050,-0.040
4734,-0.050,-0.040
4735,-0.045,-0.040
4736,-0.040,-0.040
4737,-0.040,-0.035
4738,-0.040,-0.035
4739,-0.040,-0.035
4740,-0.040,-0.030
4741,-0.040,-0.030
4742,-0.030,-0.025
4743,-0.030,-0.025
4744,-0.015,-0.030
4745,-0.030,-0.030
4746,-0.020,-0.030
4747,-0.030,-0.030
4748,-0.025,-0.030
4749,-0.025,-0.030
4750,-0.015,-0.030
4751,-0.025,-0.035
4752,-0.015,-0.030
4753,-0.015,-0.030
4754,-0.015,-0.030
4755,-0.015,-0.020
4756,-0.010,-0.005
4757,-0.005,0.000
4758,-0.005,0.000
4759,0.000,0.000
4760,0.000,0.010
4761,0.000,0.015
4762,0.000,0.020
4763,0.000,0.025
4764,0.000,0.025
4765,0.000,0.025
4766,0.000,0.025
4767,0.000,0.025
4768,0.000,0.025
4769,0.000,0.025
4770,0.000,0.025
4771,0.000,0.025
4772,0.000,0.025
4773,0.000,0.025
4774,0.000,0.025
4775,0.000,0.025
4776,0.000,0.025
4777,0.000,0.025
4778,0.000,0.030
4779,0.000,0.030
4780,0.005,0.030
4781,0.000,0.030
4782,0.000,0.030
4783,0.000,0.025
4784,0.000,0.025
4785,0.000,0.025
4786,0.000,0.030
4787,0.000,0.030
4788,0.000,0.025
4789,0.000,0.025
4790,0.000,0.025
4791,0.000,0.025
4792,0.000,0.025
4793,0.000,0.020
4794,0.000,0.020
4795,0.000,0.020
4796,0.000,0.020
4797,0.000,0.020
4798,0.000,0.020
4799,0.000,0.015
4800,-0.005,0.015
4801,-0.005,0.015
4802,0.000,0.015
4803,0.000,0.015
4804,0.000,0.015
4805,0.000,0.020
4806,0.000,0.020
4807,0.000,0.020
4808,0.000,0.025
4809,0.000,0.020
4810,0.000,0.020
4811,0.000,0.020
4812,0.005,0.025
4813,0.005,0.025
4814,0.000,0.020
4815,0.000,0.015
4816,0.000,0.005
4817,-0.010,0.000
4818,-0.015,0.000
4819,-0.015,0.005
4820,-0.010,0.005
4821,0.000,0.010
4822,0.000,0.035
4823,0.005,0.135
4824,0.080,0.355
4825,0.375,0.565
4826,0.590,0.545
4827,0.530,0.300
4828,0.230,0.055
4829,0.020,-0.045
4830,-0.070,-0.065
4831,-0.075,-0.065
4832,-0.075,-0.055
4833,-0.055,-0.055
4834,-0.055,-0.055
4835,-0.055,-0.055
4836,-0.060,-0.055
4837,-0.060,-0.055
4838,-0.060,-0.055
4839,-0.060,-0.055
4840,-0.060,-0.055
4841,-0.065,-0.055
4842,-0.065,-0.055
4843,-0.060,-0.050
4844,-0.055,-0.050
4845,-0.050,-0.050
4846,-0.050,-0.050
4847,-0.055,-0.050
4848,-0.055,-0.050
4849,-0.055,-0.045
4850,-0.055,-0.045
4851,-0.045,-0.040
4852,-0.050,-0.040
4853,-0.045,-0.040
4854,-0.055,-0.040
4855,-0.040,-0.045
4856,-0.050,-0.045
4857,-0.040,-0.050
4858,-0.050,-0.055
4859,-0.040,-0.060
4860,-0.050,-0.060
4861,-0.045,-0.065
4862,-0.050,-0.065
4863,-0.045,-0.065
4864,-0.055,-0.065
4865,-0.050,-0.060
4866,-0.045,-0.050
4867,-0.035,-0.040
4868,-0.025,-0.025
4869,-0.020,-0.015
4870,-0.010,-0.005
4871,-0.015,0.000
4872,-0.010,0.000
4873,-0.010,0.005
4874,0.000,0.010
4875,0.000,0.015
4876,0.000,0.015
4877,-0.005,0.015
4878,0.000,0.015
4879,-0.005,0.015
4880,0.000,0.015
4881,-0.005,0.015
4882,0.000,0.020
4883,0.000,0.025
4884,0.000,0.025
4885,0.000,0.025
4886,0.000,0.025
4887,0.000,0.030
4888,0.000,0.030
4889,0.000,0.030
4890,0.000,0.030
4891,0.000,0.030
4892,0.000,0.025
4893,0.005,0.025
4894,0.000,0.025
4895,0.000,0.025
4896,0.000,0.025
4897,0.000,0.025
4898,0.000,0.025
4899,0.000,0.025
4900,0.000,0.025
4901,0.000,0.025
4902,0.010,0.025
4903,0.000,0.025
4904,0.000,0.025
4905,0.000,0.025
4906,0.000,0.025
4907,0.000,0.025
4908,0.000,0.025
4909,0.000,0.025
4910,0.000,0.025
4911,0.000,0.025
4912,0.000,0.025
4913,0.000,0.025
4914,0.010,0.030
4915,0.010,0.030
4916,0.010,0.030
4917,0.010,0.030
4918,0.010,0.030
4919,0.005,0.025
4920,0.000,0.020
4921,0.000,0.010
4922,-0.005,0.005
4923,-0.010,0.005
4924,-0.010,0.005
4925,-0.005,0.005
4926,0.000,0.025
4927,0.015,0.085
4928,0.060,0.230
4929,0.220,0.395
4930,0.435,0.435
4931,0.475,0.280
4932,0.305,0.040
4933,0.070,-0.105
4934,-0.060,-0.120
4935,-0.085,-0.070
4936,-0.065,-0.035
4937,-0.055,-0.020
4938,-0.040,-0.015
4939,-0.045,-0.015
4940,-0.040,-0.015
4941,-0.040,-0.015
4942,-0.040,-0.015
4943,-0.045,-0.020
4944,-0.040,-0.025
4945,-0.040,-0.025
4946,-0.050,-0.030
4947,-0.050,-0.035
4948,-0.060,-0.030
4949,-0.045,-0.025
4950,-0.045,-0.025
4951,-0.040,-0.025
4952,-0.055,-0.025
4953,-0.045,-0.030
4954,-0.050,-0.025
4955,-0.035,-0.020
4956,-0.045,-0.015
4957,-0.030,-0.015
4958,-0.040,-0.015
4959,-0.030,-0.015
4960,-0.035,-0.010
4961,-0.020,-0.010
4962,-0.025,-0.010
4963,-0.015,-0.015
4964,-0.020,-0.015
4965,-0.010,-0.010
4966,-0.005,-0.005
4967,0.000,-0.005
4968,-0.005,-0.010
4969,-0.015,-0.015
4970,-0.015,-0.015
4971,-0.020,-0.015
4972,-0.020,-0.010
4973,-0.020,-0.005
4974,-0.010,0.000
4975,0.000,0.005
4976,-0.005,0.015
4977,0.000,0.015
4978,0.000,0.020
4979,0.000,0.020
4980,0.000,0.020
4981,0.000,0.020
4982,-0.005,0.020
4983,0.000,0.020
4984,0.000,0.020
4985,0.000,0.025
4986,0.000,0.065
4987,0.040,0.185
4988,0.140,0.405
4989,0.405,0.605
4990,0.585,0.590
4991,0.535,0.355
4992,0.210,0.115
4993,0.020,0.015
4994,-0.025,-0.005
4995,-0.060,-0.035
4996,-0.065,-0.050
4997,-0.065,-0.050
4998,-0.060,-0.050
4999,-0.060,-0.050
5000,-0.060,-0.055
5001,-0.065,-0.055
5002,-0.055,-0.055
5003,-0.065,-0.055
5004,-0.055,-0.060
5005,-0.065,-0.060
5006,-0.060,-0.060
5007,-0.065,-0.065
5008,-0.065,-0.065
5009,-0.065,-0.065
5010,-0.060,-0.060
5011,-0.060,-0.055
5012,-0.055,-0.055
5013,-0.055,-0.060
5014,-0.055,-0.060
5015,-0.055,-0.060
5016,-0.055,-0.060
5017,-0.055,-0.060
5018,-0.055,-0.060
5019,-0.045,-0.060
5020,-0.050,-0.060
5021,-0.050,-0.060
5022,-0.050,-0.055
5023,-0.045,-0.045
5024,-0.040,-0.040
5025,-0.035,-0.035
5026,-0.035,-0.030
5027,-0.035,-0.015
5028,-0.010,0.000
5029,-0.005,0.005
5030,0.000,0.010
5031,-0.015,0.015
5032,0.000,0.020
5033,0.000,0.025
5034,0.000,0.025
5035,0.000,0.025
5036,0.000,0.025
5037,-0.005,0.025
5038,0.000,0.025
5039,0.000,0.025
5040,0.000,0.030
5041,0.000,0.030
5042,0.000,0.025
5043,0.000,0.025
5044,0.000,0.030
5045,0.000,0.035
5046,0.000,0.030
5047,0.000,0.030
5048,0.000,0.030
5049,0.000,0.030
5050,0.000,0.030
5051,0.000,0.030
5052,0.000,0.025
5053,0.000,0.025
5054,0.000,0.025
5055,0.000,0.025
5056,0.000,0.025
5057,0.000,0.025
5058,0.000,0.025
5059,0.000,0.025
5060,0.000,0.025
5061,0.000,0.025
5062,0.000,0.025
5063,0.000,0.025
5064,0.000,0.020
5065,0.000,0.020
5066,0.000,0.020
5067,0.000,0.020
5068,0.000,0.020
5069,0.000,0.020
5070,0.000,0.015
5071,0.000,0.015
5072,0.000,0.020
5073,0.000,0.020
5074,0.000,0.020
5075,0.000,0.015
5076,0.000,0.015
5077,0.000,0.015
5078,0.000,0.015
5079,0.000,0.015
5080,0.000,0.015
5081,0.000,0.015
5082,0.000,0.015
5083,0.000,0.015
5084,-0.005,0.015
5085,0.000,0.015
5086,0.000,0.015
5087,0.000,0.015
5088,-0.005,0.010
5089,0.000,0.010
5090,0.000,0.015
5091,0.000,0.015
5092,0.000,0.020
5093,0.000,0.020
5094,0.000,0.020
5095,0.000,0.025
5096,0.000,0.020
5097,0.000,0.010
5098,0.000,0.000
5099,-0.005,0.000
5100,-0.015,0.000
5101,-0.015,0.000
5102,-0.015,0.000
5103,-0.015,0.000
5104,-0.005,0.010
5105,0.000,0.050
5106,0.015,0.155
5107,0.120,0.335
5108,0.350,0.480
5109,0.520,0.415
5110,0.410,0.175
5111,0.160,-0.025
5112,-0.045,-0.090
5113,-0.070,-0.065
5114,-0.070,-0.040
5115,-0.050,-0.040
5116,-0.060,-0.040
5117,-0.045,-0.035
5118,-0.055,-0.035
5119,-0.050,-0.035
5120,-0.055,-0.040
5121,-0.050,-0.040
5122,-0.050,-0.040
5123,-0.055,-0.040
5124,-0.055,-0.040
5125,-0.055,-0.040
5126,-0.055,-0.040
5127,-0.055,-0.045
5128,-0.055,-0.045
5129,-0.060,-0.045
5130,-0.050,-0.045
5131,-0.050,-0.040
5132,-0.045,-0.040
5133,-0.050,-0.035
5134,-0.040,-0.035
5135,-0.045,-0.030
5136,-0.030,-0.025
5137,-0.030,-0.025
5138,-0.030,-0.025
5139,-0.035,-0.030
5140,-0.035,-0.030
5141,-0.035,-0.030
5142,-0.035,-0.035
5143,-0.030,-0.035
5144,-0.030,-0.030
5145,-0.025,-0.025
5146,-0.025,-0.025
5147,-0.015,-0.025
5148,-0.015,-0.020
5149,-0.015,-0.015
5150,-0.020,-0.010
5151,-0.015,0.000
5152,-0.015,0.000
5153,-0.010,0.005
5154,0.000,0.010
5155,-0.005,0.015
5156,0.000,0.020
5157,0.000,0.025
5158,0.000,0.025
5159,0.000,0.025
5160,0.000,0.025
5161,0.000,0.025
5162,0.000,0.020
5163,-0.005,0.020
5164,0.000,0.020
5165,-0.005,0.020
5166,0.000,0.025
5167,0.000,0.025
5168,0.000,0.025
5169,0.000,0.025
5170,0.000,0.025
5171,0.000,0.025
5172,0.000,0.030
5173,0.000,0.030
5174,0.000,0.030
5175,0.000,0.030
5176,0.000,0.025
5177,0.000,0.025
5178,0.000,0.025
5179,0.005,0.025
5180,0.000,0.025
5181,0.000,0.025
5182,0.000,0.025
5183,0.000,0.025
5184,0.000,0.025
5185,0.000,0.020
5186,0.000,0.020
5187,0.000,0.020
5188,0.000,0.020
5189,0.000,0.020
5190,0.000,0.020
5191,0.000,0.020
5192,0.000,0.020
5193,0.000,0.020
5194,0.000,0.020
5195,0.000,0.020
5196,0.000,0.020
5197,0.000,0.020
5198,0.000,0.020
5199,0.000,0.015
5200,0.000,0.015
5201,0.000,0.015
5202,0.000,0.020
5203,0.000,0.025
5204,0.005,0.025
5205,0.000,0.025
5206,0.000,0.025
5207,0.000,0.025
5208,0.000,0.025
5209,0.000,0.020
5210,0.000,0.010
5211,0.000,0.005
5212,-0.015,0.005
5213,0.000,0.005
5214,-0.010,0.010
5215,0.000,0.010
5216,-0.005,0.025
5217,0.000,0.110
5218,0.060,0.320
5219,0.300,0.555
5220,0.555,0.610
5221,0.575,0.410
5222,0.325,0.140
5223,0.070,-0.015
5224,-0.050,-0.060
5225,-0.085,-0.070
5226,-0.075,-0.060
5227,-0.065,-0.050
5228,-0.060,-0.050
5229,-0.065,-0.050
5230,-0.060,-0.050
5231,-0.060,-0.050
5232,-0.065,-0.055
5233,-0.065,-0.055
5234,-0.065,-0.060
5235,-0.065,-0.055
5236,-0.065,-0.055
5237,-0.055,-0.055
5238,-0.060,-0.055
5239,-0.055,-0.060
5240,-0.070,-0.060
5241,-0.055,-0.055
5242,-0.065,-0.055
5243,-0.055,-0.055
5244,-0.065,-0.055
5245,-0.055,-0.055
5246,-0.060,-0.055
5247,-0.045,-0.055
5248,-0.060,-0.055
5249,-0.050,-0.055
5250,-0.060,-0.055
5251,-0.050,-0.055
5252,-0.050,-0.055
5253,-0.055,-0.065
5254,-0.060,-0.070
5255,-0.055,-0.075
5256,-0.055,-0.080
5257,-0.055,-0.075
5258,-0.050,-0.065
5259,-0.055,-0.065
5260,-0.045,-0.055
5261,-0.050,-0.045
5262,-0.040,-0.035
5263,-0.035,-0.025
5264,-0.020,-0.010
5265,-0.020,-0.005
5266,-0.015,0.000
5267,-0.015,0.000
5268,-0.010,0.000
5269,-0.010,0.005
5270,-0.010,0.005
5271,0.000,0.005
5272,-0.005,0.005
5273,-0.005,0.005
5274,-0.005,0.010
5275,0.000,0.010
5276,0.000,0.015
5277,0.000,0.020
5278,0.000,0.025
5279,0.000,0.025
5280,0.000,0.025
5281,0.000,0.025
5282,0.000,0.030
5283,0.000,0.030
5284,0.000,0.025
5285,0.000,0.025
5286,0.000,0.025
5287,0.000,0.025
5288,0.000,0.025
5289,0.000,0.025
5290,0.005,0.025
5291,0.000,0.025
5292,0.000,0.020
5293,0.000,0.020
5294,0.000,0.020
5295,0.000,0.020
5296,0.000,0.020
5297,0.000,0.020
5298,0.000,0.020
5299,0.000,0.015
5300,0.000,0.015
5301,0.000,0.015
5302,0.000,0.015
5303,0.000,0.010
5304,0.000,0.010
5305,0.000,0.015
5306,0.000,0.015
5307,0.000,0.015
5308,0.000,0.015
5309,0.000,0.015
5310,0.005,0.020
5311,0.005,0.025
5312,0.000,0.020
5313,0.000,0.020
5314,0.000,0.025
5315,0.005,0.025
5316,0.005,0.020
5317,0.000,0.010
5318,-0.005,0.000
5319,-0.010,0.000
5320,-0.010,0.000
5321,-0.010,0.000
5322,0.000,0.005
5323,-0.005,0.020
5324,0.010,0.075
5325,0.035,0.210
5326,0.195,0.405
5327,0.440,0.495
5328,0.530,0.350
5329,0.350,0.090
5330,0.075,-0.070
5331,-0.070,-0.085
5332,-0.070,-0.055
5333,-0.065,-0.035
5334,-0.055,-0.030
5335,-0.040,-0.025
5336,-0.040,-0.025
5337,-0.040,-0.025
5338,-0.045,-0.025
5339,-0.040,-0.025
5340,-0.045,-0.025
5341,-0.035,-0.030
5342,-0.045,-0.030
5343,-0.040,-0.030
5344,-0.050,-0.035
5345,-0.040,-0.035
5346,-0.045,-0.035
5347,-0.040,-0.030
5348,-0.040,-0.025
5349,-0.030,-0.025
5350,-0.030,-0.025
5351,-0.030,-0.020
5352,-0.035,-0.020
5353,-0.030,-0.015
5354,-0.025,-0.015
5355,-0.025,-0.015
5356,-0.020,-0.015
5357,-0.025,-0.010
5358,-0.020,-0.005
5359,-0.015,-0.005
5360,-0.010,-0.005
5361,-0.005,-0.010
5362,-0.005,-0.010
5363,0.000,-0.005
5364,0.000,-0.005
5365,0.000,-0.005
5366,-0.005,-0.005
5367,0.000,-0.005
5368,-0.005,-0.005
5369,-0.005,-0.005
5370,-0.025,0.000
5371,0.000,0.000
5372,-0.005,0.010
5373,0.000,0.010
5374,0.000,0.015
5375,0.000,0.020
5376,0.000,0.025
5377,0.000,0.025
5378,0.000,0.025
5379,0.000,0.025
5380,0.000,0.025
5381,0.000,0.020
5382,0.000,0.020
5383,0.000,0.035
5384,0.010,0.085
5385,0.050,0.225
5386,0.195,0.455
5387,0.435,0.635
5388,0.610,0.590
5389,0.495,0.355
5390,0.220,0.135
5391,0.030,0.035
5392,-0.035,-0.005
5393,-0.065,-0.035
5394,-0.060,-0.045
5395,-0.060,-0.045
5396,-0.055,-0.045
5397,-0.055,-0.045
5398,-0.055,-0.050
5399,-0.055,-0.050
5400,-0.060,-0.055
5401,-0.060,-0.055
5402,-0.060,-0.055
5403,-0.050,-0.055
5404,-0.055,-0.055
5405,-0.050,-0.055
5406,-0.060,-0.055
5407,-0.060,-0.055
5408,-0.060,-0.055
5409,-0.050,-0.050
5410,-0.050,-0.050
5411,-0.050,-0.050
5412,-0.050,-0.050
5413,-0.050,-0.050
5414,-0.050,-0.050
5415,-0.050,-0.050
5416,-0.040,-0.045
5417,-0.045,-0.045
5418,-0.030,-0.045
5419,-0.040,-0.045
5420,-0.030,-0.045
5421,-0.040,-0.040
5422,-0.030,-0.035
5423,-0.035,-0.025
5424,-0.010,-0.015
5425,-0.015,0.000
5426,0.000,0.000
5427,-0.010,0.000
5428,0.000,0.010
5429,0.000,0.015
5430,0.000,0.020
5431,0.000,0.025
5432,0.000,0.025
5433,0.000,0.030
5434,0.000,0.030
5435,0.000,0.030
5436,0.000,0.030
5437,0.000,0.030
5438,0.000,0.025
5439,0.000,0.025
5440,0.000,0.025
5441,0.000,0.025
5442,0.000,0.030
5443,0.000,0.030
5444,0.000,0.030
5445,0.000,0.030
5446,0.000,0.030
5447,0.000,0.030
5448,0.000,0.025
5449,0.000,0.025
5450,0.000,0.025
5451,0.000,0.025
5452,0.000,0.025
5453,0.000,0.025
5454,0.000,0.025
5455,0.000,0.025
5456,0.000,0.025
5457,0.000,0.020
5458,0.000,0.020
5459,0.000,0.015
5460,0.000,0.015
5461,0.000,0.020
5462,0.000,0.020
5463,0.000,0.020
5464,0.000,0.020
5465,0.000,0.020
5466,0.000,0.020
5467,0.000,0.020
5468,0.000,0.015
5469,0.000,0.015
5470,0.000,0.015
5471,0.000,0.015
5472,-0.005,0.015
5473,0.000,0.015
5474,0.000,0.020
5475,0.000,0.015
5476,0.000,0.015
5477,0.000,0.020
5478,0.000,0.020
5479,0.000,0.020
5480,0.000,0.020
5481,0.000,0.015
5482,0.000,0.015
5483,0.000,0.015
5484,0.000,0.020
5485,0.000,0.020
5486,0.000,0.020
5487,0.000,0.020
5488,0.000,0.020
5489,0.000,0.020
5490,0.000,0.025
5491,0.005,0.025
5492,0.005,0.025
5493,0.005,0.030
5494,0.000,0.030
5495,0.010,0.025
5496,0.000,0.020
5497,0.000,0.015
5498,-0.005,0.005
5499,0.000,0.005
5500,-0.005,0.005
5501,0.000,0.010
5502,-0.010,0.010
5503,0.000,0.020
5504,0.000,0.050
5505,0.005,0.150
5506,0.095,0.385
5507,0.400,0.605
5508,0.615,0.575
5509,0.535,0.315
5510,0.225,0.065
5511,0.010,-0.045
5512,-0.055,-0.060
5513,-0.065,-0.050
5514,-0.055,-0.050
5515,-0.055,-0.045
5516,-0.050,-0.045
5517,-0.055,-0.045
5518,-0.050,-0.045
5519,-0.055,-0.045
5520,-0.050,-0.045
5521,-0.055,-0.045
5522,-0.050,-0.045
5523,-0.055,-0.045
5524,-0.050,-0.050
5525,-0.050,-0.045
5526,-0.050,-0.040
5527,-0.050,-0.040
5528,-0.055,-0.050
5529,-0.055,-0.050
5530,-0.060,-0.045
5531,-0.050,-0.040
5532,-0.055,-0.035
5533,-0.040,-0.030
5534,-0.040,-0.025
5535,-0.035,-0.025
5536,-0.040,-0.030
5537,-0.040,-0.030
5538,-0.040,-0.025
5539,-0.035,-0.020
5540,-0.025,-0.015
5541,-0.025,-0.020
5542,-0.030,-0.025
5543,-0.025,-0.020
5544,-0.010,-0.015
5545,-0.005,-0.015
5546,0.000,-0.020
5547,-0.010,-0.020
5548,-0.010,-0.010
5549,-0.025,-0.010
5550,-0.010,-0.010
5551,-0.030,-0.005
5552,0.000,0.000
5553,-0.010,0.000
5554,0.000,0.010
5555,0.000,0.015
5556,0.000,0.010
5557,0.000,0.010
5558,0.000,0.015
5559,0.000,0.020
5560,0.000,0.020
5561,0.000,0.015
5562,0.000,0.010
5563,0.000,0.010
5564,0.000,0.015
5565,0.000,0.020
5566,0.000,0.020
5567,0.000,0.025
5568,0.000,0.030
5569,0.015,0.090
5570,0.065,0.250
5571,0.205,0.510
5572,0.455,0.730
5573,0.610,0.725
5574,0.480,0.490
5575,0.215,0.205
5576,0.020,0.025
5577,-0.060,-0.060
5578,-0.065,-0.095
5579,-0.075,-0.105
5580,-0.065,-0.110
5581,-0.070,-0.110
5582,-0.065,-0.110
5583,-0.070,-0.105
5584,-0.070,-0.105
5585,-0.070,-0.105
5586,-0.070,-0.110
5587,-0.075,-0.110
5588,-0.070,-0.110
5589,-0.070,-0.110
5590,-0.070,-0.110
5591,-0.070,-0.110
5592,-0.070,-0.110
5593,-0.075,-0.110
5594,-0.075,-0.110
5595,-0.065,-0.105
5596,-0.065,-0.105
5597,-0.060,-0.105
5598,-0.070,-0.110
5599,-0.070,-0.115
5600,-0.070,-0.115
5601,-0.060,-0.110
5602,-0.065,-0.110
5603,-0.060,-0.110
5604,-0.065,-0.110
5605,-0.055,-0.100
5606,-0.055,-0.095
5607,-0.050,-0.085
5608,-0.040,-0.070
5609,-0.025,-0.055
5610,-0.030,-0.040
5611,-0.025,-0.025
5612,-0.015,-0.015
5613,-0.015,-0.005
5614,-0.010,0.000
5615,-0.005,0.010
5616,0.000,0.015
5617,0.000,0.020
5618,0.000,0.020
5619,0.000,0.025
5620,0.000,0.020
5621,0.000,0.020
5622,0.000,0.020
5623,0.000,0.025
5624,0.000,0.025
5625,0.000,0.025
5626,0.000,0.025
5627,0.000,0.025
5628,0.000,0.020
5629,0.000,0.020
5630,-0.005,0.025
5631,0.000,0.025
5632,-0.005,0.025
5633,0.000,0.025
5634,0.000,0.025
5635,0.000,0.025
5636,0.000,0.025
5637,0.000,0.020
5638,0.000,0.020
5639,0.000,0.025
5640,0.000,0.025
5641,0.000,0.025
5642,0.000,0.020
5643,0.000,0.020
5644,0.000,0.020
5645,0.000,0.025
5646,0.000,0.020
5647,0.000,0.020
5648,0.000,0.020
5649,0.000,0.020
5650,0.000,0.025
5651,0.000,0.020
5652,0.000,0.020
5653,0.000,0.025
5654,0.000,0.025
5655,0.000,0.025
5656,0.000,0.025
5657,0.000,0.025
5658,0.000,0.025
5659,0.000,0.025
5660,0.000,0.025
5661,0.000,0.025
5662,0.000,0.025
5663,0.000,0.025
5664,0.000,0.025
5665,0.005,0.025
5666,0.005,0.025
5667,0.000,0.025
5668,0.000,0.025
5669,0.000,0.025
5670,0.000,0.025
5671,0.000,0.025
5672,0.005,0.025
5673,0.005,0.030
5674,0.015,0.030
5675,0.010,0.030
5676,0.015,0.035
5677,0.010,0.035
5678,0.025,0.035
5679,0.005,0.030
5680,0.010,0.025
5681,0.000,0.015
5682,0.000,0.010
5683,-0.005,0.010
5684,0.000,0.010
5685,0.000,0.015
5686,0.000,0.020
5687,0.005,0.045
5688,0.025,0.135
5689,0.100,0.300
5690,0.320,0.450
5691,0.500,0.425
5692,0.455,0.215
5693,0.220,0.000
5694,0.005,-0.090
5695,-0.070,-0.075
5696,-0.070,-0.040
5697,-0.050,-0.025
5698,-0.040,-0.015
5699,-0.030,-0.010
5700,-0.030,-0.010
5701,-0.035,-0.015
5702,-0.035,-0.020
5703,-0.035,-0.020
5704,-0.030,-0.020
5705,-0.040,-0.025
5706,-0.030,-0.025
5707,-0.040,-0.025
5708,-0.025,-0.025
5709,-0.040,-0.025
5710,-0.030,-0.030
5711,-0.045,-0.030
5712,-0.030,-0.025
5713,-0.040,-0.025
5714,-0.030,-0.020
5715,-0.035,-0.015
5716,-0.025,-0.015
5717,-0.025,-0.010
5718,-0.025,-0.010
5719,-0.025,-0.010
5720,-0.020,-0.010
5721,-0.020,-0.010
5722,-0.020,-0.010
5723,-0.020,-0.010
5724,-0.020,-0.010
5725,-0.015,-0.010
5726,-0.015,-0.010
5727,0.000,-0.005
5728,-0.010,-0.005
5729,0.000,-0.005
5730,-0.010,-0.005
5731,-0.005,-0.005
5732,-0.005,0.000
5733,-0.005,0.000
5734,-0.005,0.000
5735,0.000,0.010
5736,0.000,0.020
5737,0.005,0.025
5738,0.000,0.025
5739,0.000,0.025
5740,0.005,0.030
5741,0.005,0.035
5742,0.010,0.035
5743,0.005,0.035
5744,0.005,0.030
5745,0.005,0.030
5746,0.005,0.030
5747,0.005,0.030
5748,0.005,0.030
5749,0.000,0.030
5750,0.000,0.030
5751,0.000,0.030
5752,0.000,0.030
5753,0.005,0.030
5754,0.000,0.030
5755,0.010,0.035
5756,0.000,0.035
5757,0.005,0.035
5758,0.000,0.035
5759,0.015,0.035
5760,0.005,0.035
5761,0.010,0.035
5762,0.000,0.035
5763,0.010,0.035
5764,0.005,0.030
5765,0.005,0.030
5766,0.000,0.030
5767,0.000,0.025
5768,0.000,0.025
5769,0.005,0.025
5770,0.005,0.025
5771,0.005,0.025
5772,0.005,0.025
5773,0.005,0.025
5774,0.005,0.025
5775,0.005,0.025
5776,0.005,0.020
5777,0.000,0.020
5778,0.000,0.020
5779,0.000,0.020
5780,0.000,0.020
5781,0.000,0.025
5782,0.005,0.025
5783,0.005,0.025
5784,0.010,0.030
5785,0.015,0.030
5786,0.015,0.030
5787,0.020,0.030
5788,0.005,0.025
5789,0.010,0.020
5790,0.000,0.015
5791,0.000,0.010
5792,-0.005,0.005
5793,0.000,0.005
5794,-0.005,0.005
5795,0.000,0.010
5796,0.000,0.035
5797,0.010,0.100
5798,0.055,0.250
5799,0.235,0.450
5800,0.505,0.500
5801,0.520,0.310
5802,0.310,0.045
5803,0.020,-0.075
5804,-0.070,-0.080
5805,-0.070,-0.045
5806,-0.045,-0.030
5807,-0.045,-0.025
5808,-0.030,-0.020
5809,-0.040,-0.015
5810,-0.025,-0.010
5811,-0.040,-0.010
5812,-0.030,-0.015
5813,-0.040,-0.020
5814,-0.030,-0.025
5815,-0.040,-0.025
5816,-0.035,-0.025
5817,-0.035,-0.025
5818,-0.030,-0.025
5819,-0.035,-0.030
5820,-0.035,-0.030
5821,-0.035,-0.030
5822,-0.035,-0.030
5823,-0.035,-0.025
5824,-0.035,-0.020
5825,-0.030,-0.015
5826,-0.030,-0.015
5827,-0.025,-0.015
5828,-0.025,-0.015
5829,-0.020,-0.015
5830,-0.015,-0.015
5831,-0.020,-0.020
5832,-0.025,-0.025
5833,-0.030,-0.025
5834,-0.020,-0.025
5835,-0.025,-0.030
5836,-0.010,-0.030
5837,-0.025,-0.025
5838,-0.010,-0.025
5839,-0.020,-0.020
5840,-0.010,-0.015
5841,-0.020,-0.010
5842,0.000,0.000
5843,-0.005,0.000
5844,0.000,0.005
5845,0.000,0.010
5846,0.000,0.010
5847,0.000,0.015
5848,0.000,0.020
5849,0.000,0.025
5850,0.000,0.025
5851,0.000,0.025
5852,0.000,0.025
5853,0.000,0.025
5854,0.000,0.020
5855,0.000,0.020
5856,0.000,0.025
5857,0.000,0.020
5858,-0.005,0.010
5859,0.000,0.010
5860,-0.005,0.015
5861,0.000,0.020
5862,0.000,0.025
5863,0.000,0.030
5864,0.000,0.035
5865,0.005,0.035
5866,0.000,0.030
5867,0.000,0.030
5868,0.000,0.030
5869,0.000,0.025
5870,0.000,0.025
5871,0.000,0.025
5872,0.000,0.020
5873,0.000,0.020
5874,0.000,0.020
5875,0.000,0.020
5876,0.000,0.015
5877,0.000,0.010
5878,0.000,0.010
5879,0.000,0.020
5880,0.000,0.025
5881,0.000,0.030
5882,0.005,0.025
5883,0.000,0.015
5884,0.000,0.010
5885,0.000,0.020
5886,0.000,0.030
5887,0.005,0.025
5888,0.000,0.025
5889,0.005,0.025
5890,0.000,0.025
5891,0.005,0.025
5892,0.000,0.030
5893,0.020,0.030
5894,0.010,0.030
5895,0.010,0.030
5896,0.005,0.030
5897,0.005,0.020
5898,0.000,0.010
5899,-0.005,0.005
5900,-0.010,0.005
5901,0.000,0.005
5902,0.000,0.010
5903,-0.005,0.015
5904,0.000,0.065
5905,0.020,0.210
5906,0.175,0.435
5907,0.455,0.575
5908,0.575,0.475
5909,0.415,0.225
5910,0.145,0.025
5911,-0.020,-0.040
5912,-0.065,-0.045
5913,-0.060,-0.045
5914,-0.055,-0.050
5915,-0.045,-0.040
5916,-0.035,-0.030
5917,-0.030,-0.030
5918,-0.050,-0.040
5919,-0.040,-0.050
5920,-0.050,-0.045
5921,-0.045,-0.030
5922,-0.040,-0.025
5923,-0.035,-0.045
5924,-0.065,-0.060
5925,-0.045,-0.050
5926,-0.045,-0.050
5927,-0.065,-0.055
5928,-0.060,-0.050
5929,-0.050,-0.040
5930,-0.045,-0.035
5931,-0.040,-0.015
5932,-0.010,-0.015
5933,-0.040,-0.030
5934,-0.045,-0.050
5935,-0.065,-0.050
5936,-0.040,-0.040
5937,-0.040,-0.025
5938,-0.020,-0.025
5939,-0.040,-0.050
5940,-0.050,-0.050
5941,-0.030,-0.030
5942,-0.020,-0.030
5943,-0.025,-0.035
5944,-0.010,-0.035
5945,-0.015,-0.045
5946,-0.030,-0.040
5947,-0.020,-0.030
5948,-0.015,-0.035
5949,-0.040,-0.050
5950,-0.050,-0.040
5951,-0.030,-0.015
5952,-0.035,-0.005
5953,-0.020,0.000
5954,-0.015,-0.010
5955,-0.030,-0.015
5956,-0.025,-0.005
5957,-0.025,-0.005
5958,-0.040,-0.025
5959,-0.060,-0.035
5960,-0.040,-0.020
5961,-0.020,0.000
5962,-0.015,0.000
5963,-0.020,0.015
5964,0.000,0.065
5965,0.035,0.180
5966,0.150,0.380
5967,0.385,0.555
5968,0.610,0.505
5969,0.440,0.270
5970,0.160,0.080
5971,-0.010,0.000
5972,-0.090,-0.065
5973,-0.130,-0.080
5974,-0.040,-0.065
5975,-0.050,-0.060
5976,-0.070,-0.085
5977,-0.110,-0.110
5978,-0.115,-0.115
5979,-0.105,-0.080
5980,-0.075,-0.070
5981,-0.070,-0.090
5982,-0.115,-0.095
5983,-0.065,-0.075
5984,-0.065,-0.085
5985,-0.100,-0.095
5986,-0.080,-0.095
5987,-0.080,-0.090
5988,-0.095,-0.070
5989,-0.050,-0.060
5990,-0.055,-0.080
5991,-0.070,-0.085
5992,-0.070,-0.075
5993,-0.075,-0.075
5994,-0.065,-0.085
5995,-0.065,-0.085
5996,-0.080,-0.075
5997,-0.065,-0.075
5998,-0.060,-0.080
5999,-0.055,-0.060
6000,-0.025,-0.050
6001,-0.055,-0.065
6002,-0.075,-0.085
6003,-0.070,-0.070
6004,-0.060,-0.030
6005,-0.010,-0.005
6006,-0.015,-0.025
6007,-0.045,-0.030
6008,-0.025,-0.005
6009,-0.010,0.000
6010,-0.025,-0.020
6011,-0.040,-0.010
6012,-0.030,0.000
6013,-0.030,-0.015
6014,-0.065,-0.005
6015,0.010,0.000
6016,-0.055,-0.010
6017,0.000,0.000
6018,-0.045,0.000
6019,-0.025,0.000
6020,-0.035,0.000
6021,-0.010,-0.010
6022,-0.070,-0.015
6023,-0.020,0.005
6024,0.005,0.000
6025,-0.055,-0.020
6026,-0.050,0.000
6027,-0.010,0.010
6028,-0.010,0.000
6029,0.000,0.000
6030,-0.005,-0.010
6031,-0.050,-0.020
6032,-0.055,-0.015
6033,-0.025,0.000
6034,-0.010,0.010
6035,0.000,0.000
6036,0.000,-0.015
6037,-0.020,-0.010
6038,-0.030,0.000
6039,-0.035,-0.005
6040,-0.045,-0.010
6041,-0.015,-0.005
6042,-0.005,0.000
6043,-0.020,0.000
6044,-0.010,0.000
6045,-0.015,-0.010
6046,-0.040,-0.020
6047,-0.020,0.000
6048,0.000,0.005
6049,-0.010,-0.015
6050,-0.055,-0.025
6051,-0.020,0.000
6052,0.000,0.005
6053,-0.010,-0.005
6054,-0.025,0.000
6055,0.000,0.010
6056,0.000,0.005
6057,-0.030,-0.015
6058,-0.060,-0.005
6059,-0.020,0.010
6060,0.005,0.005
6061,-0.035,0.000
6062,0.005,0.000
6063,0.010,0.000
6064,-0.025,0.000
6065,0.000,0.020
6066,-0.005,0.000
6067,-0.025,0.000
6068,-0.005,0.010
6069,-0.015,0.025
6070,0.015,0.015
6071,0.000,-0.005
6072,-0.035,-0.005
6073,-0.005,0.015
6074,0.015,0.020
6075,-0.010,0.025
6076,0.005,0.055
6077,0.020,0.035
6078,0.000,-0.015
6079,-0.030,-0.025
6080,-0.020,0.005
6081,0.000,0.020
6082,-0.010,0.015
6083,-0.015,0.010
6084,-0.020,0.015
6085,0.005,0.030
6086,0.020,0.070
6087,0.015,0.185
6088,0.140,0.385
6089,0.405,0.515
6090,0.535,0.405
6091,0.380,0.150
6092,0.100,-0.020
6093,-0.080,-0.050
6094,-0.045,-0.025
6095,-0.065,-0.030
6096,-0.045,-0.035
6097,-0.065,-0.020
6098,-0.055,-0.020
6099,-0.055,-0.040
6100,-0.035,-0.045
6101,-0.075,-0.035
6102,-0.050,-0.020
6103,-0.025,-0.020
6104,-0.025,-0.035
6105,-0.050,-0.040
6106,-0.080,-0.025
6107,-0.020,-0.005
6108,-0.020,-0.030
6109,-0.045,-0.055
6110,-0.070,-0.040
6111,-0.020,-0.010
6112,-0.055,-0.020
6113,-0.065,-0.040
6114,-0.080,-0.020
6115,-0.035,0.000
6116,0.000,-0.005
6117,-0.025,-0.035
6118,-0.060,-0.035
6119,-0.030,-0.005
6120,0.000,0.010
6121,0.000,0.010
6122,-0.030,0.000
6123,-0.030,-0.005
6124,-0.005,-0.025
6125,-0.015,-0.015
6126,-0.005,0.000
6127,0.000,0.000
6128,0.000,-0.015
6129,-0.010,-0.010
6130,-0.015,0.000
6131,0.010,0.015
6132,0.020,0.005
6133,-0.015,0.000
6134,-0.030,0.000
6135,0.000,0.000
6136,-0.010,0.000
6137,0.000,0.025
6138,0.015,0.030
6139,0.000,0.025
6140,0.000,0.010
6141,-0.025,-0.005
6142,-0.060,0.000
6143,0.025,0.025
6144,0.000,0.000
6145,-0.020,0.000
6146,0.025,0.035
6147,0.030,0.030
6148,-0.010,0.000
6149,0.000,0.000
6150,-0.045,0.030
6151,0.040,0.040
6152,-0.005,0.040
6153,0.015,0.210
6154,0.220,0.530
6155,0.540,0.705
6156,0.615,0.595
6157,0.400,0.345
6158,0.130,0.140
6159,-0.030,0.020
6160,-0.055,-0.050
6161,-0.060,-0.080
6162,-0.040,-0.075
6163,-0.025,-0.055
6164,-0.045,-0.055
6165,-0.050,-0.055
6166,-0.035,-0.060
6167,-0.055,-0.070
6168,-0.060,-0.075
6169,-0.025,-0.080
6170,-0.050,-0.090
6171,-0.065,-0.085
6172,-0.055,-0.065
6173,-0.020,-0.050
6174,-0.015,-0.055
6175,-0.045,-0.085
6176,-0.085,-0.105
6177,-0.055,-0.100
6178,-0.045,-0.085
6179,-0.020,-0.075
6180,-0.055,-0.080
6181,-0.055,-0.080
6182,-0.020,-0.060
6183,0.000,-0.055
6184,-0.045,-0.080
6185,-0.045,-0.100
6186,-0.020,-0.095
6187,-0.055,-0.070
6188,0.000,-0.055
6189,-0.030,-0.055
6190,0.000,-0.040
6191,0.000,-0.040
6192,-0.005,-0.055
6193,-0.010,-0.040
6194,0.005,-0.015
6195,-0.005,-0.015
6196,0.000,-0.015
6197,-0.010,0.000
6198,-0.010,0.000
6199,0.000,0.005
6200,0.000,0.010
6201,0.040,0.020
6202,0.025,0.005
6203,-0.020,0.000
6204,-0.010,0.000
6205,0.000,0.005
6206,-0.005,0.000
6207,0.000,0.010
6208,0.030,0.025
6209,0.040,0.015
6210,-0.005,-0.005
6211,-0.035,-0.010
6212,-0.025,0.000
6213,0.010,0.015
6214,0.030,0.010
6215,0.000,0.000
6216,0.000,0.000
6217,0.000,-0.010
6218,-0.005,-0.020
6219,-0.010,-0.005
6220,0.000,0.010
6221,-0.010,0.005
6222,0.005,-0.015
6223,-0.015,-0.025
6224,0.020,-0.005
6225,0.000,0.000
6226,0.005,0.000
6227,0.000,0.000
6228,-0.010,-0.030
6229,-0.045,-0.025
6230,0.000,-0.015
6231,-0.010,-0.010
6232,0.060,-0.005
6233,0.005,-0.010
6234,-0.035,-0.020
6235,-0.030,-0.010
6236,0.000,0.000
6237,0.030,0.000
6238,-0.005,0.000
6239,0.000,-0.005
6240,0.005,-0.010
6241,0.005,-0.015
6242,-0.005,-0.015
6243,0.000,-0.020
6244,-0.020,-0.025
6245,0.000,-0.005
6246,0.025,0.000
6247,0.000,-0.025
6248,-0.030,-0.025
6249,-0.005,0.000
6250,0.015,0.010
6251,0.015,0.000
6252,0.000,-0.040
6253,-0.025,-0.055
6254,-0.015,-0.020
6255,0.000,0.000
6256,0.000,0.000
6257,0.010,0.000
6258,0.025,0.005
6259,0.015,0.015
6260,0.010,0.005
6261,0.000,-0.010
6262,-0.005,-0.020
6263,-0.015,0.000
6264,0.010,0.010
6265,0.020,-0.015
6266,0.000,-0.040
6267,0.000,-0.030
6268,-0.020,-0.010
6269,0.005,-0.005
6270,0.000,0.000
6271,0.000,0.055
6272,0.035,0.230
6273,0.260,0.420
6274,0.475,0.465
6275,0.530,0.295
6276,0.290,0.055
6277,0.055,-0.080
6278,-0.075,-0.110
6279,-0.095,-0.080
6280,-0.050,-0.060
6281,-0.040,-0.055
6282,-0.040,-0.045
6283,-0.055,-0.055
6284,-0.070,-0.060
6285,-0.025,-0.045
6286,0.000,-0.055
6287,-0.030,-0.080
6288,-0.065,-0.085
6289,-0.045,-0.065
6290,-0.030,-0.050
6291,-0.030,-0.045
6292,-0.040,-0.055
6293,-0.050,-0.055
6294,-0.030,-0.055
6295,-0.025,-0.060
6296,-0.040,-0.070
6297,-0.045,-0.055
6298,-0.040,-0.035
6299,-0.010,-0.025
6300,-0.030,-0.035
6301,-0.030,-0.035
6302,-0.015,-0.035
6303,-0.015,-0.030
6304,-0.020,-0.020
6305,0.000,-0.015
6306,-0.010,-0.015
6307,0.000,-0.020
6308,-0.005,-0.035
6309,-0.015,-0.015
6310,0.000,0.010
6311,0.030,0.000
6312,0.005,-0.015
6313,0.025,-0.020
6314,0.000,-0.015
6315,0.005,0.000
6316,0.020,0.000
6317,-0.005,-0.020
6318,-0.025,-0.010
6319,0.005,0.010
6320,0.015,0.005
6321,0.000,0.005
6322,0.010,0.005
6323,0.000,0.000
6324,0.000,0.000
6325,0.005,0.000
6326,0.000,-0.015
6327,-0.030,-0.010
6328,-0.010,0.015
6329,0.005,0.030
6330,0.025,0.015
6331,0.010,0.000
6332,0.000,0.000
6333,-0.005,0.010
6334,0.005,0.025
6335,0.030,0.040
6336,0.040,0.120
6337,0.110,0.320
6338,0.310,0.565
6339,0.535,0.665
6340,0.535,0.525
6341,0.275,0.265
6342,0.030,0.055
6343,-0.070,-0.060
6344,-0.090,-0.105
6345,-0.055,-0.085
6346,-0.020,-0.060
6347,-0.030,-0.055
6348,-0.050,-0.060
6349,-0.050,-0.075
6350,-0.045,-0.090
6351,-0.085,-0.095
6352,-0.035,-0.090
6353,-0.060,-0.075
6354,-0.015,-0.070
6355,-0.045,-0.070
6356,-0.025,-0.075
6357,-0.050,-0.080
6358,-0.050,-0.080
6359,-0.060,-0.065
6360,-0.020,-0.070
6361,-0.060,-0.075
6362,-0.025,-0.055
6363,-0.025,-0.055
6364,-0.020,-0.070
6365,-0.020,-0.060
6366,-0.020,-0.055
6367,-0.025,-0.060
6368,-0.035,-0.055
6369,-0.015,-0.045
6370,-0.020,-0.055
6371,-0.015,-0.055
6372,0.000,-0.040
6373,0.000,-0.035
6374,-0.015,-0.035
6375,0.000,-0.020
6376,0.000,-0.005
6377,0.000,0.000
6378,-0.005,0.000
6379,-0.010,0.000
6380,0.000,0.005
6381,0.015,0.020
6382,0.000,0.010
6383,-0.025,0.005
6384,0.000,0.015
6385,0.005,0.025
6386,0.010,0.035
6387,0.000,0.030
6388,0.000,0.025
6389,-0.005,0.020
6390,0.000,0.015
6391,-0.005,0.020
6392,0.005,0.040
6393,0.000,0.035
6394,-0.005,0.030
6395,0.000,0.025
6396,0.000,0.010
6397,-0.020,0.000
6398,-0.035,0.015
6399,0.010,0.050
6400,-0.010,0.060
6401,0.040,0.040
6402,-0.005,0.015
6403,0.005,0.010
6404,-0.005,0.005
6405,0.005,0.005
6406,-0.015,0.035
6407,0.025,0.040
6408,0.000,0.020
6409,0.000,0.010
6410,0.000,0.010
6411,0.000,0.015
6412,0.000,0.025
6413,0.000,0.035
6414,0.000,0.025
6415,-0.005,0.010
6416,0.000,0.005
6417,0.000,0.010
6418,-0.005,0.030
6419,0.010,0.035
6420,0.010,0.020
6421,0.000,0.010
6422,0.000,0.020
6423,0.015,0.025
6424,0.025,0.020
6425,0.005,0.015
6426,0.000,0.015
6427,-0.005,0.020
6428,0.000,0.025
6429,0.000,0.015
6430,-0.020,0.010
6431,0.000,0.010
6432,0.000,0.015
6433,0.010,0.015
6434,0.000,0.015
6435,0.005,0.020
6436,0.000,0.025
6437,0.020,0.015
6438,-0.005,0.005
6439,0.000,0.005
6440,-0.015,0.015
6441,0.000,0.025
6442,0.000,0.025
6443,0.005,0.030
6444,0.010,0.040
6445,0.025,0.035
6446,0.025,0.010
6447,-0.010,0.010
6448,0.000,0.030
6449,0.000,0.020
6450,-0.005,0.000
6451,0.000,0.005
6452,0.015,0.010
6453,-0.010,0.000
6454,-0.005,0.000
6455,-0.010,0.020
6456,0.005,0.085
6457,0.030,0.220
6458,0.200,0.405
6459,0.440,0.490
6460,0.525,0.385
6461,0.385,0.175
6462,0.135,0.015
6463,-0.035,-0.040
6464,-0.070,-0.040
6465,-0.065,-0.045
6466,-0.070,-0.050
6467,-0.055,-0.025
6468,-0.035,-0.005
6469,-0.015,0.000
6470,-0.030,-0.015
6471,-0.035,-0.030
6472,-0.030,-0.035
6473,-0.040,-0.040
6474,-0.040,-0.030
6475,-0.030,-0.005
6476,-0.005,-0.010
6477,-0.040,-0.035
6478,-0.050,-0.030
6479,-0.035,-0.015
6480,-0.015,-0.025
6481,-0.045,-0.030
6482,-0.010,-0.005
6483,-0.015,0.000
6484,0.000,-0.010
6485,-0.045,-0.010
6486,-0.010,-0.005
6487,-0.030,-0.005
6488,-0.010,0.000
6489,-0.010,0.005
6490,0.010,0.000
6491,-0.010,0.000
6492,-0.010,-0.005
6493,-0.020,0.000
6494,0.000,0.005
6495,-0.010,0.000
6496,-0.020,0.000
6497,0.000,0.005
6498,-0.005,0.005
6499,0.010,0.015
6500,0.015,0.025
6501,0.010,0.015
6502,-0.005,0.000
6503,-0.010,0.010
6504,0.005,0.040
6505,0.020,0.045
6506,0.005,0.025
6507,0.000,0.020
6508,0.005,0.030
6509,0.010,0.035
6510,0.005,0.040
6511,0.000,0.040
6512,0.005,0.030
6513,0.010,0.035
6514,0.020,0.045
6515,0.005,0.035
6516,0.000,0.025
6517,-0.005,0.030
6518,0.015,0.035
6519,0.020,0.030
6520,0.005,0.050
6521,0.045,0.070
6522,0.005,0.050
6523,0.000,0.020
6524,-0.005,0.015
6525,0.000,0.035
6526,0.015,0.050
6527,0.020,0.040
6528,0.005,0.030
6529,0.005,0.030
6530,0.010,0.025
6531,0.010,0.020
6532,-0.005,0.020
6533,0.005,0.035
6534,0.005,0.040
6535,0.005,0.010
6536,-0.020,0.000
6537,0.000,0.015
6538,0.005,0.035
6539,0.005,0.035
6540,0.020,0.020
6541,-0.005,0.015
6542,0.000,0.015
6543,0.000,0.010
6544,-0.005,0.010
6545,-0.005,0.020
6546,0.000,0.025
6547,0.000,0.015
6548,0.000,0.005
6549,0.000,0.005
6550,0.000,0.010
6551,0.005,0.015
6552,0.000,0.030
6553,0.005,0.040
6554,0.010,0.030
6555,0.010,0.015
6556,0.000,0.020
6557,0.020,0.025
6558,0.000,0.025
6559,0.005,0.025
6560,0.005,0.020
6561,0.000,0.005
6562,-0.005,0.000
6563,-0.010,0.000
6564,-0.010,0.015
6565,0.000,0.015
6566,-0.015,0.000
6567,-0.015,0.005
6568,-0.005,0.110
6569,0.065,0.300
6570,0.255,0.505
6571,0.540,0.535
6572,0.535,0.320
6573,0.280,0.050
6574,-0.025,-0.080
6575,-0.100,-0.055
6576,-0.060,-0.020
6577,-0.050,-0.020
6578,-0.035,-0.025
6579,-0.045,-0.040
6580,-0.050,-0.050
6581,-0.060,-0.040
6582,-0.040,-0.015
6583,-0.025,-0.005
6584,-0.015,-0.005
6585,-0.020,-0.020
6586,-0.040,-0.035
6587,-0.045,-0.030
6588,-0.045,-0.020
6589,-0.050,-0.025
6590,-0.040,-0.035
6591,-0.035,-0.040
6592,-0.045,-0.040
6593,-0.040,-0.025
6594,-0.020,-0.015
6595,-0.020,-0.005
6596,-0.025,0.000
6597,-0.015,0.000
6598,0.000,-0.005
6599,-0.010,-0.020
6600,-0.025,-0.020
6601,-0.015,-0.010
6602,-0.010,0.005
6603,0.000,0.015
6604,0.000,-0.005
6605,-0.015,-0.025
6606,0.000,-0.025
6607,-0.015,-0.025
6608,-0.040,-0.010
6609,0.005,0.005
6610,0.025,0.000
6611,-0.010,-0.025
6612,-0.010,-0.025
6613,-0.025,0.000
6614,0.010,0.015
6615,0.000,0.020
6616,0.000,0.015
6617,0.000,0.015
6618,0.000,0.015
6619,0.000,0.015
6620,0.000,0.015
6621,0.000,0.015
6622,0.000,0.005
6623,0.000,0.005
6624,-0.010,0.035
6625,0.020,0.045
6626,0.000,0.020
6627,0.000,0.015
6628,0.015,0.025
6629,0.005,0.030
6630,0.000,0.040
6631,0.005,0.035
6632,0.005,0.020
6633,0.000,0.015
6634,0.000,0.015
6635,0.000,0.020
6636,0.000,0.025
6637,0.005,0.020
6638,0.000,0.005
6639,0.000,0.000
6640,-0.005,0.010
6641,0.000,0.030
6642,0.005,0.040
6643,0.005,0.035
6644,0.005,0.025
6645,0.000,0.005
6646,0.000,-0.005
6647,-0.015,0.000
6648,-0.010,0.015
6649,0.005,0.025
6650,0.005,0.015
6651,0.000,0.010
6652,-0.005,0.010
6653,0.000,0.015
6654,0.005,0.015
6655,0.000,0.015
6656,0.000,0.015
6657,0.000,0.015
6658,0.000,0.010
6659,-0.010,0.020
6660,0.010,0.025
6661,0.015,0.010
6662,-0.015,0.015
6663,0.020,0.035
6664,0.005,0.035
6665,0.025,0.025
6666,0.005,0.015
6667,0.000,0.010
6668,-0.015,0.015
6669,0.005,0.020
6670,0.000,0.015
6671,-0.005,0.005
6672,-0.010,0.000
6673,-0.015,0.000
6674,-0.005,0.010
6675,0.005,0.055
6676,0.030,0.170
6677,0.135,0.360
6678,0.375,0.510
6679,0.535,0.455
6680,0.435,0.225
6681,0.170,0.020
6682,-0.030,-0.045
6683,-0.070,-0.025
6684,-0.050,-0.020
6685,-0.050,-0.040
6686,-0.055,-0.050
6687,-0.045,-0.050
6688,-0.060,-0.045
6689,-0.040,-0.030
6690,-0.035,-0.020
6691,-0.025,-0.020
6692,-0.050,-0.040
6693,-0.045,-0.045
6694,-0.040,-0.030
6695,-0.035,-0.030
6696,-0.060,-0.025
6697,-0.020,-0.025
6698,-0.035,-0.025
6699,-0.035,-0.025
6700,-0.045,-0.030
6701,-0.035,-0.020
6702,-0.025,-0.020
6703,-0.040,-0.025
6704,-0.015,-0.010
6705,-0.015,0.000
6706,-0.020,0.000
6707,-0.010,-0.005
6708,-0.005,-0.025
6709,-0.035,-0.010
6710,-0.005,0.005
6711,0.000,0.000
6712,0.000,0.000
6713,0.000,0.005
6714,0.000,0.000
6715,0.000,-0.010
6716,0.000,-0.005
6717,0.015,0.010
6718,0.020,0.010
6719,0.000,0.005
6720,0.000,0.005
6721,-0.005,0.000
6722,-0.015,0.000
6723,0.000,0.000
6724,-0.005,0.015
6725,0.000,0.035
6726,0.005,0.035
6727,-0.005,0.015
6728,-0.015,0.010
6729,0.000,0.015
6730,-0.005,0.000
6731,-0.015,0.005
6732,-0.010,0.030
6733,0.005,0.045
6734,0.000,0.035
6735,0.005,0.055
6736,0.035,0.130
6737,0.070,0.265
6738,0.235,0.485
6739,0.480,0.670
6740,0.730,0.590
6741,0.430,0.280
6742,0.110,0.065
6743,-0.055,0.000
6744,-0.065,-0.040
6745,-0.090,-0.070
6746,-0.085,-0.045
6747,-0.040,-0.020
6748,-0.040,-0.040
6749,-0.060,-0.045
6750,-0.045,-0.045
6751,-0.050,-0.055
6752,-0.055,-0.060
6753,-0.060,-0.055
6754,-0.065,-0.055
6755,-0.055,-0.055
6756,-0.060,-0.055
6757,-0.055,-0.045
6758,-0.045,-0.035
6759,-0.040,-0.040
6760,-0.050,-0.035
6761,-0.035,-0.035
6762,-0.035,-0.035
6763,-0.040,-0.035
6764,-0.025,-0.025
6765,-0.020,-0.020
6766,-0.020,-0.025
6767,-0.020,-0.025
6768,-0.025,-0.015
6769,-0.010,-0.005
6770,-0.005,-0.015
6771,-0.030,-0.030
6772,-0.020,-0.010
6773,-0.005,0.005
6774,0.000,0.000
6775,0.000,0.000
6776,0.000,-0.005
6777,-0.010,0.000
6778,-0.005,0.000
