'sample interval','ECG0','ECG1'
'0.0078125 sec','mV','mV'
0,-0.095,0.000
1,-0.095,0.000
2,-0.095,0.000
3,-0.075,0.000
4,-0.075,0.000
5,-0.070,0.000
6,-0.050,0.000
7,-0.045,0.000
8,-0.025,0.010
9,-0.015,0.010
10,0.000,0.025
11,0.000,0.025
12,0.020,0.025
13,0.040,0.035
14,0.105,0.050
15,0.095,0.070
16,0.085,0.085
17,0.095,0.100
18,0.105,0.115
19,0.115,0.125
20,0.115,0.130
21,0.115,0.125
22,0.180,0.110
23,0.240,0.105
24,0.205,0.105
25,0.145,0.090
26,0.105,0.085
27,0.065,0.075
28,0.010,0.055
29,0.070,0.030
30,0.095,0.045
31,0.035,0.055
32,-0.070,0.045
33,-0.095,0.025
34,-0.090,0.000
35,-0.080,0.000
36,-0.085,0.000
37,-0.090,0.000
38,-0.075,0.000
39,-0.070,0.020
40,-0.060,0.030
41,-0.065,0.025
42,-0.060,0.025
43,-0.060,0.030
44,-0.065,0.030
45,-0.080,0.000
46,-0.070,0.000
47,-0.065,0.010
48,-0.055,0.020
49,-0.080,0.005
50,-0.110,-0.015
51,-0.140,-0.035
52,-0.135,-0.035
53,-0.135,-0.025
54,-0.140,-0.035
55,-0.140,-0.040
56,-0.130,-0.040
57,-0.130,-0.030
58,-0.135,-0.030
59,-0.140,-0.035
60,-0.145,-0.040
61,-0.155,-0.040
62,-0.090,0.000
63,0.200,0.115
64,0.665,0.265
65,0.945,0.340
66,0.695,0.295
67,0.190,0.240
68,-0.060,0.260
69,-0.120,0.235
70,-0.165,0.155
71,-0.170,0.105
72,-0.155,0.085
73,-0.140,0.070
74,-0.115,0.040
75,-0.110,0.010
76,-0.095,0.000
77,-0.095,0.000
78,-0.095,0.000
79,-0.095,0.000
80,-0.090,-0.005
81,-0.080,0.000
82,-0.065,0.000
83,-0.055,0.005
84,-0.040,0.005
85,-0.035,0.005
86,-0.025,0.010
87,-0.015,0.010
88,0.000,0.015
89,0.010,0.025
90,0.025,0.030
91,0.060,0.040
92,0.065,0.055
93,0.080,0.065
94,0.090,0.080
95,0.135,0.100
96,0.120,0.125
97,0.100,0.125
98,0.095,0.120
99,0.085,0.100
100,0.070,0.085
101,0.055,0.075
102,0.030,0.060
103,0.005,0.050
104,0.015,0.035
105,0.080,0.025
106,0.090,0.035
107,0.000,0.030
108,-0.080,0.020
109,-0.085,0.015
110,-0.050,0.005
111,-0.030,0.000
112,-0.070,0.000
113,-0.095,-0.005
114,-0.085,0.000
115,-0.070,0.000
116,-0.085,0.000
117,-0.070,0.000
118,-0.070,0.015
119,-0.070,0.015
120,-0.055,0.025
121,-0.055,0.015
122,-0.085,0.000
123,-0.085,-0.005
124,-0.080,-0.005
125,-0.065,0.005
126,-0.075,0.010
127,-0.100,-0.010
128,-0.135,-0.035
129,-0.145,-0.050
130,-0.150,-0.055
131,-0.145,-0.055
132,-0.145,-0.050
133,-0.140,-0.060
134,-0.145,-0.055
135,-0.150,-0.045
136,-0.150,-0.050
137,-0.145,-0.055
138,-0.150,-0.065
139,-0.140,-0.040
140,0.030,0.030
141,0.470,0.190
142,0.880,0.320
143,0.875,0.305
144,0.370,0.225
145,0.000,0.230
146,-0.095,0.220
147,-0.155,0.145
148,-0.185,0.090
149,-0.170,0.065
150,-0.145,0.055
151,-0.130,0.025
152,-0.125,0.000
153,-0.110,-0.015
154,-0.095,-0.025
155,-0.095,-0.030
156,-0.095,-0.040
157,-0.090,-0.035
158,-0.075,-0.025
159,-0.030,-0.025
160,-0.015,-0.010
161,-0.065,-0.010
162,-0.035,-0.010
163,0.010,-0.010
164,0.045,-0.005
165,0.030,0.000
166,0.000,0.005
167,0.000,0.005
168,0.030,0.005
169,0.055,0.005
170,0.170,0.015
171,0.230,0.040
172,0.270,0.060
173,0.175,0.090
174,0.230,0.100
175,0.210,0.110
176,0.080,0.105
177,0.030,0.090
178,0.025,0.075
179,0.015,0.050
180,0.100,0.030
181,0.125,0.010
182,0.070,0.020
183,0.065,0.010
184,0.040,0.005
185,0.040,0.010
186,0.060,0.005
187,0.045,0.005
188,0.000,0.000
189,0.020,-0.005
190,0.040,0.000
191,-0.025,0.005
192,-0.015,0.000
193,0.060,-0.005
194,0.070,0.000
195,0.055,0.010
196,0.045,0.025
197,0.025,0.030
198,0.000,0.020
199,-0.005,0.005
200,-0.010,0.000
201,0.005,-0.005
202,0.030,0.005
203,0.030,0.000
204,0.010,-0.005
205,0.000,-0.045
206,0.000,-0.050
207,-0.010,-0.035
208,-0.045,-0.020
209,-0.180,-0.045
210,-0.030,-0.080
211,-0.020,-0.045
212,-0.125,-0.045
213,-0.185,-0.075
214,-0.165,-0.080
215,-0.165,-0.085
216,-0.175,-0.085
217,-0.050,-0.035
218,0.345,0.105
219,0.845,0.265
220,0.965,0.285
221,0.615,0.180
222,0.150,0.215
223,-0.080,0.235
224,-0.040,0.160
225,-0.010,0.120
226,-0.020,0.080
227,-0.040,0.065
228,-0.015,0.045
229,0.000,0.010
230,0.000,-0.005
231,0.005,-0.010
232,0.010,-0.015
233,0.020,-0.015
234,0.030,-0.015
235,0.030,-0.020
236,0.035,-0.020
237,0.040,-0.020
238,0.050,-0.010
239,0.055,0.000
240,0.060,-0.005
241,0.070,0.000
242,0.085,0.000
243,0.105,0.000
244,0.145,0.015
245,0.160,0.020
246,0.175,0.010
247,0.205,0.010
248,0.210,0.070
249,0.205,0.075
250,0.140,0.130
251,0.075,0.105
252,0.070,0.100
253,0.080,0.055
254,0.060,0.060
255,0.050,0.050
256,0.115,0.020
257,0.185,0.025
258,0.135,0.025
259,0.110,0.040
260,0.090,0.015
261,0.085,0.010
262,0.080,0.000
263,0.060,-0.010
264,0.055,-0.015
265,0.040,-0.015
266,0.035,-0.015
267,0.030,-0.020
268,0.030,-0.005
269,0.030,0.000
270,0.045,0.000
271,0.050,0.000
272,0.055,-0.015
273,0.050,-0.020
274,0.050,0.000
275,0.045,0.000
276,0.035,-0.030
277,0.030,-0.030
278,0.030,-0.015
279,0.045,-0.010
280,0.045,-0.015
281,0.020,-0.040
282,0.000,-0.075
283,-0.005,-0.085
284,-0.015,-0.065
285,-0.020,-0.095
286,-0.030,-0.105
287,-0.090,-0.050
288,-0.180,-0.070
289,-0.100,-0.095
290,-0.030,-0.090
291,-0.130,-0.090
292,-0.045,-0.120
293,0.000,-0.090
294,0.065,-0.035
295,0.425,0.065
296,0.915,0.260
297,1.005,0.330
298,0.685,0.215
299,0.110,0.185
300,0.030,0.210
301,-0.015,0.170
302,-0.055,0.075
303,-0.050,0.020
304,-0.030,0.015
305,-0.020,0.025
306,-0.010,-0.005
307,-0.040,-0.035
308,-0.130,-0.045
309,-0.135,-0.045
310,-0.115,-0.055
311,0.000,-0.070
312,0.035,-0.060
313,-0.040,-0.055
314,-0.050,-0.045
315,-0.075,-0.045
316,-0.085,-0.055
317,-0.040,-0.065
318,0.065,-0.065
319,0.120,-0.040
320,0.100,-0.015
321,0.090,-0.010
322,0.105,-0.005
323,0.135,0.000
324,0.095,0.015
325,0.025,0.030
326,0.055,0.040
327,0.100,0.060
328,0.100,0.080
329,0.085,0.080
330,0.095,0.085
331,0.065,0.065
332,0.080,0.045
333,0.065,0.030
334,0.030,0.025
335,0.055,0.010
336,0.020,0.005
337,-0.015,0.000
338,-0.045,0.000
339,0.000,-0.010
340,0.000,0.000
341,-0.050,-0.020
342,-0.050,-0.020
343,-0.050,-0.020
344,-0.060,-0.025
345,-0.065,-0.030
346,-0.060,-0.025
347,-0.050,-0.010
348,-0.045,0.000
349,-0.045,0.000
350,-0.050,0.000
351,-0.035,0.000
352,-0.035,0.005
353,-0.080,0.000
354,-0.105,-0.020
355,-0.085,-0.030
356,-0.030,-0.035
357,0.005,-0.015
358,0.000,-0.025
359,-0.070,-0.050
360,-0.140,-0.060
361,-0.175,-0.065
362,-0.185,-0.070
363,-0.175,-0.075
364,-0.175,-0.075
365,-0.175,-0.075
366,-0.170,-0.080
367,-0.170,-0.075
368,-0.165,-0.075
369,-0.175,-0.085
370,-0.185,-0.090
371,-0.085,-0.035
372,0.255,0.085
373,0.740,0.235
374,0.940,0.285
375,0.590,0.220
376,0.030,0.165
377,-0.100,0.220
378,-0.160,0.155
379,-0.195,0.085
380,-0.190,0.055
381,-0.175,0.030
382,-0.160,0.020
383,-0.145,-0.010
384,-0.135,-0.045
385,-0.120,-0.045
386,-0.120,-0.045
387,-0.110,-0.045
388,-0.105,-0.045
389,-0.100,-0.035
390,-0.100,-0.040
391,-0.100,-0.040
392,-0.085,-0.040
393,-0.085,-0.035
394,-0.065,-0.035
395,-0.050,-0.030
396,-0.035,-0.025
397,-0.010,-0.020
398,0.000,-0.010
399,0.000,0.000
400,0.020,0.005
401,0.040,0.020
402,0.065,0.025
403,0.080,0.030
404,0.085,0.050
405,0.095,0.070
406,0.145,0.070
407,0.215,0.060
408,0.215,0.070
409,0.190,0.070
410,0.145,0.055
411,0.110,0.040
412,0.070,0.030
413,0.010,0.020
414,0.040,0.000
415,0.040,0.000
416,0.055,0.000
417,0.025,-0.005
418,0.035,0.000
419,-0.005,-0.005
420,-0.015,-0.005
421,0.040,-0.025
422,0.040,-0.015
423,0.035,0.000
424,0.035,0.000
425,0.030,0.015
426,-0.015,0.015
427,0.005,0.000
428,0.075,0.020
429,0.065,0.025
430,0.010,0.015
431,0.000,-0.005
432,0.035,0.000
433,0.035,0.000
434,0.055,0.005
435,0.000,-0.020
436,0.000,-0.045
437,-0.030,-0.060
438,-0.045,-0.065
439,-0.025,-0.055
440,-0.045,-0.055
441,-0.040,-0.055
442,-0.030,-0.055
443,-0.055,-0.060
444,-0.105,-0.065
445,-0.140,-0.065
446,-0.135,-0.075
447,-0.130,-0.075
448,-0.050,-0.035
449,0.265,0.085
450,0.725,0.230
451,0.955,0.285
452,0.660,0.225
453,0.160,0.175
454,-0.040,0.215
455,-0.105,0.180
456,-0.155,0.090
457,-0.155,0.055
458,-0.150,0.035
459,-0.145,0.015
460,-0.125,-0.020
461,-0.110,-0.040
462,-0.095,-0.055
463,-0.095,-0.060
464,-0.095,-0.055
465,-0.100,-0.065
466,-0.095,-0.060
467,-0.090,-0.050
468,-0.075,-0.045
469,-0.065,-0.060
470,-0.045,-0.050
471,-0.035,-0.050
472,-0.005,-0.025
473,0.015,-0.040
474,0.020,-0.020
475,0.010,-0.015
476,0.010,-0.015
477,0.065,0.000
478,0.155,0.010
479,0.200,0.025
480,0.225,0.050
481,0.230,0.075
482,0.210,0.100
483,0.185,0.090
484,0.150,0.090
485,0.055,0.080
486,0.010,0.050
487,0.000,0.030
488,0.000,0.010
489,0.000,-0.005
490,-0.010,-0.015
491,-0.020,-0.015
492,-0.020,-0.025
493,-0.005,-0.040
494,0.005,-0.045
495,0.025,-0.040
496,0.010,-0.020
497,-0.060,-0.020
498,-0.110,-0.030
499,-0.110,-0.035
500,-0.105,-0.040
501,-0.095,-0.040
502,-0.095,-0.040
503,-0.090,-0.035
504,-0.080,-0.025
505,-0.075,-0.025
506,-0.085,-0.025
507,-0.085,-0.025
508,-0.095,-0.045
509,-0.090,-0.065
510,-0.085,-0.045
511,-0.075,-0.025
512,-0.105,-0.045
513,-0.135,-0.090
514,-0.165,-0.090
515,-0.165,-0.080
516,-0.165,-0.095
517,-0.070,-0.100
518,-0.135,-0.085
519,-0.045,-0.095
520,-0.030,-0.080
521,-0.020,-0.080
522,-0.035,-0.075
523,-0.075,-0.060
524,-0.035,-0.055
525,0.040,-0.025
526,0.340,0.085
527,0.785,0.250
528,0.995,0.325
529,0.745,0.260
530,0.290,0.210
531,0.050,0.235
532,0.000,0.210
533,-0.020,0.145
534,-0.030,0.105
535,-0.020,0.085
536,-0.005,0.070
537,0.000,0.030
538,0.000,-0.005
539,0.000,-0.015
540,0.005,-0.010
541,0.015,-0.010
542,0.020,-0.010
543,0.030,-0.010
544,0.035,-0.005
545,0.040,0.000
546,0.050,0.000
547,0.055,0.000
548,0.065,0.000
549,0.075,0.000
550,0.095,0.000
551,0.105,0.010
552,0.135,0.025
553,0.155,0.030
554,0.165,0.025
555,0.180,0.045
556,0.200,0.060
557,0.220,0.075
558,0.225,0.095
559,0.220,0.105
560,0.220,0.120
561,0.195,0.105
562,0.190,0.095
563,0.155,0.080
564,0.135,0.065
565,0.115,0.045
566,0.105,0.030
567,0.035,0.025
568,0.060,0.015
569,0.015,0.015
570,-0.070,0.005
571,-0.075,-0.015
572,0.000,-0.025
573,0.015,-0.025
574,0.000,-0.035
575,0.015,-0.030
576,0.000,-0.020
577,-0.025,-0.005
578,-0.020,0.000
579,-0.065,-0.005
580,-0.105,0.000
581,-0.085,-0.005
582,-0.080,-0.005
583,-0.095,-0.015
584,-0.095,-0.020
585,-0.085,-0.040
586,-0.045,-0.035
587,-0.035,-0.030
588,-0.020,-0.040
589,-0.045,-0.030
590,-0.130,-0.060
591,-0.200,-0.085
592,-0.185,-0.100
593,-0.175,-0.100
594,-0.170,-0.105
595,-0.125,-0.100
596,-0.165,-0.100
597,-0.165,-0.100
598,-0.165,-0.100
599,-0.135,-0.105
600,-0.035,-0.105
601,-0.035,-0.100
602,0.025,-0.030
603,0.270,0.075
604,0.740,0.230
605,0.955,0.285
606,0.580,0.195
607,0.095,0.155
608,-0.025,0.200
609,-0.120,0.160
610,-0.205,0.090
611,-0.180,0.045
612,-0.180,0.025
613,-0.175,0.005
614,-0.165,-0.025
615,-0.140,-0.055
616,-0.115,-0.075
617,-0.115,-0.070
618,-0.125,-0.065
619,-0.120,-0.065
620,-0.110,-0.070
621,-0.105,-0.070
622,-0.100,-0.075
623,-0.090,-0.070
624,-0.080,-0.065
625,-0.075,-0.065
626,-0.070,-0.060
627,-0.050,-0.050
628,-0.025,-0.045
629,0.000,-0.045
630,0.000,-0.040
631,0.010,-0.020
632,0.025,-0.015
633,0.050,0.000
634,0.055,0.015
635,0.070,0.030
636,0.080,0.040
637,0.090,0.055
638,0.075,0.050
639,0.055,0.030
640,0.015,0.015
641,0.000,0.000
642,-0.005,-0.010
643,-0.020,-0.015
644,-0.045,-0.020
645,-0.050,-0.035
646,-0.060,-0.040
647,-0.070,-0.045
648,-0.085,-0.055
649,-0.090,-0.065
650,-0.095,-0.070
651,-0.100,-0.070
652,-0.100,-0.075
653,-0.105,-0.080
654,-0.105,-0.075
655,-0.100,-0.055
656,-0.095,-0.045
657,-0.095,-0.045
658,-0.085,-0.035
659,-0.075,-0.030
660,-0.080,-0.035
661,-0.090,-0.055
662,-0.095,-0.065
663,-0.095,-0.060
664,-0.090,-0.050
665,-0.100,-0.060
666,-0.125,-0.085
667,-0.155,-0.110
668,-0.175,-0.120
669,-0.175,-0.120
670,-0.175,-0.125
671,-0.170,-0.125
672,-0.170,-0.130
673,-0.170,-0.130
674,-0.170,-0.125
675,-0.170,-0.120
676,-0.170,-0.120
677,-0.185,-0.130
678,-0.180,-0.115
679,-0.020,-0.040
680,0.425,0.115
681,0.900,0.235
682,0.945,0.230
683,0.320,0.105
684,-0.050,0.145
685,-0.105,0.165
686,-0.165,0.090
687,-0.200,0.040
688,-0.190,0.005
689,-0.175,-0.010
690,-0.155,-0.035
691,-0.140,-0.065
692,-0.130,-0.090
693,-0.130,-0.095
694,-0.125,-0.085
695,-0.120,-0.085
696,-0.110,-0.090
697,-0.110,-0.090
698,-0.100,-0.085
699,-0.095,-0.085
700,-0.090,-0.080
701,-0.080,-0.080
702,-0.060,-0.075
703,-0.045,-0.075
704,-0.030,-0.070
705,-0.010,-0.065
706,0.000,-0.060
707,0.005,-0.050
708,0.020,-0.035
709,0.035,-0.025
710,0.045,-0.010
711,0.060,0.005
712,0.080,0.015
713,0.080,0.025
714,0.075,0.025
715,0.060,0.025
716,0.040,0.010
717,0.010,0.000
718,0.000,-0.015
719,-0.010,-0.025
720,-0.025,-0.045
721,-0.045,-0.050
722,-0.065,-0.065
723,-0.075,-0.070
724,-0.075,-0.070
725,-0.085,-0.075
726,-0.090,-0.080
727,-0.095,-0.085
728,-0.100,-0.090
729,-0.095,-0.095
730,-0.095,-0.090
731,-0.100,-0.085
732,-0.095,-0.075
733,-0.095,-0.060
734,-0.095,-0.060
735,-0.080,-0.055
736,-0.080,-0.050
737,-0.090,-0.065
738,-0.110,-0.090
739,-0.105,-0.090
740,-0.065,-0.080
741,-0.065,-0.070
742,-0.110,-0.090
743,-0.145,-0.120
744,-0.170,-0.135
745,-0.175,-0.145
746,-0.175,-0.150
747,-0.180,-0.145
748,-0.180,-0.140
749,-0.175,-0.140
750,-0.165,-0.140
751,-0.160,-0.135
752,-0.160,-0.135
753,-0.165,-0.135
754,-0.180,-0.135
755,-0.100,-0.085
756,0.200,0.020
757,0.680,0.175
758,0.950,0.245
759,0.690,0.175
760,0.085,0.100
761,-0.100,0.155
762,-0.140,0.110
763,-0.195,0.040
764,-0.200,0.000
765,-0.175,-0.010
766,-0.160,-0.025
767,-0.140,-0.060
768,-0.140,-0.085
769,-0.125,-0.095
770,-0.125,-0.100
771,-0.115,-0.100
772,-0.110,-0.100
773,-0.105,-0.105
774,-0.100,-0.105
775,-0.095,-0.095
776,-0.095,-0.095
777,-0.090,-0.095
778,-0.070,-0.085
779,-0.055,-0.090
780,-0.035,-0.080
781,-0.015,-0.075
782,0.000,-0.060
783,0.000,-0.055
784,0.020,-0.040
785,0.045,-0.025
786,0.060,-0.015
787,0.065,0.000
788,0.080,0.005
789,0.090,0.020
790,0.090,0.025
791,0.075,0.020
792,0.055,0.015
793,0.035,0.005
794,0.005,0.000
795,0.000,-0.020
796,-0.005,-0.040
797,-0.015,-0.040
798,-0.030,-0.050
799,-0.050,-0.060
800,-0.070,-0.070
801,-0.080,-0.080
802,-0.080,-0.075
803,-0.090,-0.085
804,-0.095,-0.095
805,-0.095,-0.095
806,-0.095,-0.090
807,-0.095,-0.080
808,-0.090,-0.070
809,-0.085,-0.070
810,-0.080,-0.070
811,-0.080,-0.065
812,-0.070,-0.050
813,-0.070,-0.050
814,-0.090,-0.070
815,-0.095,-0.085
816,-0.085,-0.085
817,-0.075,-0.075
818,-0.080,-0.075
819,-0.115,-0.105
820,-0.140,-0.125
821,-0.165,-0.130
822,-0.160,-0.135
823,-0.160,-0.135
824,-0.160,-0.140
825,-0.155,-0.130
826,-0.150,-0.130
827,-0.150,-0.130
828,-0.155,-0.130
829,-0.155,-0.135
830,-0.170,-0.135
831,-0.145,-0.110
832,0.040,-0.025
833,0.465,0.115
834,0.880,0.230
835,0.850,0.220
836,0.370,0.135
837,-0.035,0.125
838,-0.110,0.150
839,-0.165,0.085
840,-0.190,0.035
841,-0.175,0.005
842,-0.150,-0.005
843,-0.135,-0.030
844,-0.125,-0.065
845,-0.120,-0.090
846,-0.115,-0.095
847,-0.110,-0.095
848,-0.105,-0.095
849,-0.100,-0.090
850,-0.095,-0.090
851,-0.090,-0.085
852,-0.085,-0.080
853,-0.070,-0.080
854,-0.065,-0.080
855,-0.055,-0.080
856,-0.040,-0.080
857,-0.010,-0.065
858,0.000,-0.055
859,0.010,-0.045
860,0.020,-0.045
861,0.045,-0.030
862,0.065,-0.010
863,0.080,0.000
864,0.090,0.010
865,0.095,0.015
866,0.095,0.025
867,0.095,0.035
868,0.085,0.030
869,0.060,0.010
870,0.030,0.000
871,0.015,-0.005
872,0.005,-0.015
873,-0.005,-0.035
874,-0.015,-0.045
875,-0.025,-0.045
876,-0.040,-0.060
877,-0.055,-0.070
878,-0.065,-0.065
879,-0.070,-0.070
880,-0.080,-0.075
881,-0.080,-0.075
882,-0.090,-0.080
883,-0.095,-0.080
884,-0.085,-0.075
885,-0.070,-0.060
886,-0.070,-0.055
887,-0.070,-0.050
888,-0.065,-0.045
889,-0.055,-0.040
890,-0.070,-0.045
891,-0.080,-0.060
892,-0.080,-0.070
893,-0.070,-0.070
894,-0.070,-0.070
895,-0.085,-0.080
896,-0.120,-0.110
897,-0.130,-0.125
898,-0.155,-0.120
899,-0.140,-0.110
900,-0.145,-0.115
901,-0.150,-0.120
902,-0.155,-0.120
903,-0.150,-0.125
904,-0.150,-0.120
905,-0.150,-0.120
906,-0.155,-0.125
907,-0.160,-0.115
908,-0.105,-0.075
909,0.160,0.025
910,0.635,0.175
911,0.940,0.250
912,0.715,0.195
913,0.205,0.135
914,-0.055,0.165
915,-0.125,0.145
916,-0.170,0.080
917,-0.180,0.035
918,-0.170,0.010
919,-0.155,-0.005
920,-0.135,-0.035
921,-0.120,-0.060
922,-0.115,-0.075
923,-0.110,-0.075
924,-0.105,-0.080
925,-0.100,-0.085
926,-0.095,-0.085
927,-0.095,-0.090
928,-0.090,-0.085
929,-0.075,-0.075
930,-0.065,-0.075
931,-0.060,-0.070
932,-0.040,-0.065
933,-0.020,-0.060
934,-0.010,-0.055
935,0.000,-0.050
936,0.000,-0.045
937,0.025,-0.025
938,0.050,-0.020
939,0.050,-0.015
940,0.080,0.000
941,0.090,0.015
942,0.095,0.030
943,0.095,0.040
944,0.095,0.035
945,0.065,0.025
946,0.050,0.010
947,0.025,0.000
948,0.005,-0.015
949,0.000,-0.020
950,-0.005,-0.030
951,-0.030,-0.045
952,-0.045,-0.055
953,-0.050,-0.050
954,-0.060,-0.060
955,-0.075,-0.075
956,-0.080,-0.075
957,-0.090,-0.080
958,-0.095,-0.085
959,-0.095,-0.085
960,-0.100,-0.085
961,-0.095,-0.080
962,-0.085,-0.070
963,-0.080,-0.065
964,-0.085,-0.065
965,-0.085,-0.060
966,-0.080,-0.065
967,-0.095,-0.080
968,-0.100,-0.090
969,-0.090,-0.090
970,-0.090,-0.075
971,-0.095,-0.080
972,-0.115,-0.105
973,-0.150,-0.135
974,-0.170,-0.140
975,-0.170,-0.135
976,-0.165,-0.135
977,-0.165,-0.140
978,-0.165,-0.140
979,-0.170,-0.135
980,-0.170,-0.140
981,-0.165,-0.140
982,-0.160,-0.140
983,-0.175,-0.145
984,-0.200,-0.150
985,-0.090,-0.085
986,0.295,0.040
987,0.825,0.185
988,0.975,0.225
989,0.505,0.155
990,0.025,0.155
991,-0.120,0.160
992,-0.190,0.070
993,-0.210,0.010
994,-0.200,-0.005
995,-0.180,-0.025
996,-0.170,-0.050
997,-0.155,-0.075
998,-0.140,-0.095
999,-0.130,-0.105
1000,-0.130,-0.115
1001,-0.125,-0.115
1002,-0.115,-0.110
1003,-0.110,-0.105
1004,-0.100,-0.105
1005,-0.095,-0.105
1006,-0.090,-0.110
1007,-0.080,-0.100
1008,-0.065,-0.095
1009,-0.050,-0.095
1010,-0.030,-0.085
1011,-0.010,-0.075
1012,0.000,-0.075
1013,0.010,-0.070
1014,0.020,-0.060
1015,0.040,-0.050
1016,0.055,-0.035
1017,0.070,-0.020
1018,0.085,0.000
1019,0.095,0.015
1020,0.090,0.015
1021,0.085,0.010
1022,0.060,0.005
1023,0.050,0.000
1024,0.010,-0.020
1025,0.000,-0.030
1026,-0.005,-0.045
1027,-0.020,-0.060
1028,-0.040,-0.070
1029,-0.060,-0.080
1030,-0.075,-0.090
1031,-0.080,-0.090
1032,-0.080,-0.095
1033,-0.090,-0.110
1034,-0.095,-0.110
1035,-0.100,-0.095
1036,-0.095,-0.085
1037,-0.095,-0.085
1038,-0.095,-0.080
1039,-0.095,-0.080
1040,-0.085,-0.075
1041,-0.090,-0.075
1042,-0.100,-0.085
1043,-0.115,-0.100
1044,-0.110,-0.105
1045,-0.100,-0.100
1046,-0.095,-0.095
1047,-0.105,-0.095
1048,-0.140,-0.125
1049,-0.165,-0.150
1050,-0.180,-0.160
1051,-0.180,-0.155
1052,-0.180,-0.150
1053,-0.175,-0.150
1054,-0.175,-0.150
1055,-0.180,-0.150
1056,-0.180,-0.155
1057,-0.180,-0.160
1058,-0.180,-0.160
1059,-0.185,-0.160
1060,-0.185,-0.160
1061,-0.060,-0.100
1062,0.345,0.015
1063,0.885,0.155
1064,0.965,0.210
1065,0.415,0.135
1066,-0.080,0.125
1067,-0.185,0.120
1068,-0.230,0.025
1069,-0.235,-0.015
1070,-0.215,-0.035
1071,-0.195,-0.055
1072,-0.170,-0.085
1073,-0.165,-0.110
1074,-0.150,-0.130
1075,-0.140,-0.135
1076,-0.130,-0.135
1077,-0.130,-0.135
1078,-0.125,-0.130
1079,-0.115,-0.130
1080,-0.100,-0.130
1081,-0.095,-0.130
1082,-0.090,-0.130
1083,-0.080,-0.130
1084,-0.070,-0.120
1085,-0.055,-0.120
1086,-0.035,-0.110
1087,-0.010,-0.110
1088,0.000,-0.105
1089,0.010,-0.095
1090,0.025,-0.085
1091,0.040,-0.075
1092,0.055,-0.055
1093,0.070,-0.040
1094,0.075,-0.020
1095,0.080,-0.010
1096,0.085,0.000
1097,0.070,0.000
1098,0.055,-0.010
1099,0.030,-0.020
1100,0.010,-0.040
1101,0.000,-0.050
1102,-0.010,-0.065
1103,-0.025,-0.075
1104,-0.050,-0.085
1105,-0.070,-0.095
1106,-0.080,-0.105
1107,-0.095,-0.110
1108,-0.095,-0.110
1109,-0.095,-0.120
1110,-0.095,-0.120
1111,-0.100,-0.120
1112,-0.100,-0.115
1113,-0.100,-0.105
1114,-0.095,-0.095
1115,-0.090,-0.095
1116,-0.090,-0.100
1117,-0.090,-0.085
1118,-0.095,-0.095
1119,-0.115,-0.115
1120,-0.105,-0.105
1121,-0.100,-0.100
1122,-0.095,-0.090
1123,-0.100,-0.095
1124,-0.135,-0.125
1125,-0.155,-0.145
1126,-0.165,-0.150
1127,-0.160,-0.155
1128,-0.165,-0.160
1129,-0.165,-0.160
1130,-0.165,-0.150
1131,-0.170,-0.150
1132,-0.170,-0.150
1133,-0.165,-0.150
1134,-0.160,-0.155
1135,-0.180,-0.165
1136,-0.180,-0.160
1137,-0.030,-0.085
1138,0.370,0.045
1139,0.845,0.190
1140,0.920,0.225
1141,0.505,0.165
1142,-0.010,0.145
1143,-0.120,0.155
1144,-0.185,0.065
1145,-0.205,0.015
1146,-0.200,0.000
1147,-0.175,-0.025
1148,-0.165,-0.065
1149,-0.130,-0.080
1150,-0.125,-0.110
1151,-0.110,-0.105
1152,-0.120,-0.100
1153,-0.100,-0.095
1154,-0.100,-0.085
1155,-0.095,-0.090
1156,-0.095,-0.095
1157,-0.080,-0.090
1158,-0.075,-0.120
1159,-0.055,-0.090
1160,-0.050,-0.095
1161,-0.030,-0.080
1162,-0.005,-0.075
1163,0.000,-0.065
1164,0.000,-0.075
1165,0.020,-0.065
1166,0.045,-0.045
1167,0.060,-0.025
1168,0.075,-0.010
1169,0.090,0.000
1170,0.095,0.000
1171,0.095,0.020
1172,0.095,0.015
1173,0.090,0.015
1174,0.085,0.025
1175,0.060,0.015
1176,0.030,0.000
1177,0.005,-0.010
1178,0.000,-0.020
1179,-0.010,-0.060
1180,-0.035,-0.090
1181,-0.045,-0.075
1182,-0.055,-0.075
1183,-0.060,-0.065
1184,-0.075,-0.085
1185,-0.085,-0.100
1186,-0.085,-0.115
1187,-0.090,-0.075
1188,-0.095,-0.080
1189,-0.095,-0.075
1190,-0.095,-0.070
1191,-0.090,-0.070
1192,-0.085,-0.075
1193,-0.085,-0.075
1194,-0.075,-0.090
1195,-0.075,-0.090
1196,-0.075,-0.065
1197,-0.095,-0.100
1198,-0.095,-0.090
1199,-0.095,-0.095
1200,-0.075,-0.090
1201,-0.080,-0.070
1202,-0.105,-0.120
1203,-0.140,-0.120
1204,-0.150,-0.135
1205,-0.160,-0.125
1206,-0.150,-0.135
1207,-0.150,-0.140
1208,-0.150,-0.155
1209,-0.150,-0.170
1210,-0.150,-0.115
1211,-0.150,-0.100
1212,-0.150,-0.135
1213,-0.165,-0.180
1214,-0.135,-0.155
1215,0.090,-0.065
1216,0.555,0.090
1217,0.925,0.250
1218,0.810,0.240
1219,0.315,0.145
1220,-0.045,0.115
1221,-0.115,0.110
1222,-0.165,0.075
1223,-0.190,0.035
1224,-0.180,-0.025
1225,-0.160,-0.060
1226,-0.150,-0.050
1227,-0.140,-0.070
1228,-0.120,-0.065
1229,-0.115,-0.110
1230,-0.105,-0.115
1231,-0.095,-0.140
1232,-0.095,-0.100
1233,-0.095,-0.110
1234,-0.090,-0.130
1235,-0.085,-0.130
1236,-0.075,-0.100
1237,-0.060,-0.055
1238,-0.045,-0.130
1239,-0.030,-0.135
1240,0.000,-0.080
1241,0.000,-0.075
1242,0.000,-0.070
1243,0.025,-0.050
1244,0.045,-0.075
1245,0.060,-0.030
1246,0.080,-0.015
1247,0.090,-0.030
1248,0.095,-0.025
1249,0.095,0.010
1250,0.100,0.005
1251,0.090,0.005
1252,0.070,0.000
1253,0.040,-0.015
1254,0.015,-0.030
1255,0.000,-0.050
1256,-0.005,-0.065
1257,-0.010,-0.060
1258,-0.025,-0.065
1259,-0.040,-0.125
1260,-0.050,-0.110
1261,-0.060,-0.045
1262,-0.070,-0.115
1263,-0.080,-0.135
1264,-0.085,-0.090
1265,-0.090,-0.120
1266,-0.095,-0.170
1267,-0.095,-0.135
1268,-0.090,-0.080
1269,-0.085,-0.060
1270,-0.080,-0.120
1271,-0.080,-0.150
1272,-0.075,-0.105
1273,-0.065,-0.070
1274,-0.070,-0.095
1275,-0.090,-0.125
1276,-0.090,-0.175
1277,-0.085,-0.110
1278,-0.085,-0.045
1279,-0.085,-0.135
1280,-0.100,-0.130
1281,-0.120,-0.150
1282,-0.145,-0.185
1283,-0.145,-0.185
1284,-0.150,-0.215
1285,-0.145,-0.140
1286,-0.145,-0.160
1287,-0.150,-0.155
1288,-0.145,-0.235
1289,-0.145,-0.210
1290,-0.150,-0.145
1291,-0.165,-0.130
1292,-0.140,-0.160
1293,0.075,-0.095
1294,0.535,0.055
1295,0.910,0.225
1296,0.845,0.215
1297,0.335,0.140
1298,-0.015,0.060
1299,-0.115,0.080
1300,-0.170,0.050
1301,-0.180,-0.005
1302,-0.165,-0.030
1303,-0.155,-0.060
1304,-0.145,-0.055
1305,-0.130,-0.100
1306,-0.115,-0.155
1307,-0.100,-0.135
1308,-0.100,-0.100
1309,-0.095,-0.165
1310,-0.095,-0.170
1311,-0.090,-0.140
1312,-0.080,-0.125
1313,-0.070,-0.085
1314,-0.065,-0.115
1315,-0.050,-0.105
1316,-0.045,-0.150
1317,-0.025,-0.125
1318,-0.005,-0.110
1319,0.025,-0.085
1320,0.030,-0.085
1321,0.125,-0.050
1322,0.220,-0.090
1323,0.065,-0.015
1324,0.060,-0.055
1325,0.085,0.010
1326,0.090,-0.015
1327,0.115,-0.025
1328,0.105,0.010
1329,0.085,-0.005
1330,0.075,0.010
1331,0.045,-0.025
1332,0.020,-0.045
1333,0.000,-0.045
1334,0.000,-0.060
1335,0.000,-0.055
1336,0.015,-0.070
1337,-0.005,-0.115
1338,-0.050,-0.125
1339,-0.065,-0.110
1340,-0.065,-0.090
1341,-0.070,-0.060
1342,-0.075,-0.080
1343,-0.075,-0.145
1344,-0.085,-0.145
1345,-0.085,-0.100
1346,-0.080,-0.065
1347,-0.075,-0.050
1348,-0.070,-0.100
1349,-0.070,-0.145
1350,-0.060,-0.115
1351,-0.050,-0.030
1352,-0.055,-0.065
1353,-0.080,-0.090
1354,-0.070,-0.080
1355,-0.060,-0.075
1356,-0.060,-0.065
1357,-0.080,-0.100
1358,-0.105,-0.180
1359,-0.140,-0.160
1360,-0.145,-0.115
1361,-0.135,-0.185
1362,-0.135,-0.110
1363,-0.145,-0.155
1364,-0.135,-0.250
1365,-0.140,-0.130
1366,-0.140,-0.125
1367,-0.140,-0.075
1368,-0.135,-0.120
1369,-0.145,-0.175
1370,-0.130,-0.150
1371,0.090,-0.080
1372,0.585,0.150
1373,0.945,0.250
1374,0.835,0.225
1375,0.250,0.095
1376,-0.035,0.110
1377,-0.105,0.160
1378,-0.065,0.020
1379,-0.005,0.000
1380,0.000,0.050
1381,0.000,0.030
1382,0.000,-0.025
1383,0.010,-0.045
1384,0.020,-0.050
1385,0.030,-0.090
1386,0.035,-0.080
1387,0.040,-0.050
1388,0.040,-0.045
1389,0.045,-0.040
1390,0.060,-0.065
1391,0.075,-0.080
1392,0.075,-0.095
1393,0.085,-0.080
1394,0.095,-0.025
1395,0.110,-0.010
1396,0.125,-0.010
1397,0.150,-0.040
1398,0.170,-0.040
1399,0.190,-0.005
1400,0.195,0.005
1401,0.155,0.010
1402,0.070,0.005
1403,0.080,0.050
1404,0.095,0.035
1405,0.110,0.015
1406,0.095,0.030
1407,0.100,0.000
1408,0.095,0.005
1409,0.080,-0.005
1410,0.040,0.025
1411,0.030,-0.040
1412,0.005,-0.025
1413,0.010,-0.020
1414,0.010,-0.130
1415,0.010,-0.090
1416,0.050,-0.010
1417,0.085,-0.025
1418,0.085,-0.055
1419,0.070,-0.025
1420,0.060,-0.035
1421,0.050,-0.030
1422,0.040,-0.105
1423,0.045,-0.065
1424,0.050,-0.025
1425,0.060,-0.045
1426,0.065,-0.025
1427,0.060,0.005
1428,0.060,0.000
1429,0.065,-0.035
1430,0.055,-0.010
1431,0.050,0.000
1432,0.060,-0.025
1433,0.065,-0.035
1434,0.065,-0.065
1435,0.050,-0.080
1436,0.015,-0.040
1437,0.000,-0.035
1438,0.000,-0.055
1439,0.000,-0.080
1440,0.000,-0.090
1441,0.000,-0.100
1442,0.000,-0.085
1443,0.000,-0.095
1444,0.000,-0.070
1445,0.000,-0.090
1446,0.000,-0.055
1447,-0.005,-0.080
1448,0.015,-0.085
1449,0.290,0.055
1450,0.820,0.240
1451,1.015,0.350
1452,0.880,0.205
1453,0.255,0.140
1454,0.055,0.220
1455,0.000,0.140
1456,-0.030,0.125
1457,-0.035,0.090
1458,-0.010,0.080
1459,0.000,0.025
1460,0.000,-0.050
1461,0.000,-0.020
1462,0.000,0.000
1463,0.000,-0.030
1464,0.000,-0.055
1465,0.000,-0.035
1466,0.000,-0.045
1467,-0.010,-0.040
1468,-0.020,-0.055
1469,-0.030,-0.050
1470,-0.045,-0.045
1471,-0.050,-0.040
1472,-0.050,-0.050
1473,-0.030,-0.060
1474,-0.005,-0.040
1475,0.000,-0.030
1476,0.020,-0.015
1477,0.045,-0.010
1478,0.060,-0.025
1479,0.065,-0.005
1480,0.080,0.030
1481,0.095,0.035
1482,0.100,0.050
1483,0.095,0.045
1484,0.090,0.010
1485,0.080,0.010
1486,0.060,0.015
1487,0.040,0.040
1488,0.010,0.005
1489,0.000,0.000
1490,0.000,-0.020
1491,-0.025,-0.115
1492,-0.035,-0.030
1493,-0.050,-0.050
1494,-0.050,0.000
1495,-0.060,-0.100
1496,-0.065,-0.005
1497,-0.070,0.000
1498,-0.090,-0.045
1499,-0.095,-0.140
1500,-0.095,-0.090
1501,-0.090,-0.010
1502,-0.085,-0.045
1503,-0.075,-0.040
1504,-0.080,-0.025
1505,-0.080,-0.030
1506,-0.075,-0.055
1507,-0.065,-0.025
1508,-0.080,-0.025
1509,-0.085,-0.045
1510,-0.080,-0.045
1511,-0.070,-0.040
1512,-0.070,-0.040
1513,-0.090,-0.055
1514,-0.115,-0.085
1515,-0.140,-0.115
1516,-0.150,-0.110
1517,-0.150,-0.090
1518,-0.150,-0.105
1519,-0.145,-0.100
1520,-0.145,-0.090
1521,-0.145,-0.100
1522,-0.140,-0.100
1523,-0.140,-0.110
1524,-0.155,-0.120
1525,-0.160,-0.090
1526,-0.065,-0.030
1527,0.280,0.050
1528,0.800,0.175
1529,0.995,0.305
1530,0.775,0.235
1531,0.180,0.195
1532,0.000,0.215
1533,-0.130,0.155
1534,-0.205,0.090
1535,-0.185,0.055
1536,-0.170,0.055
1537,-0.150,0.020
1538,-0.130,-0.025
1539,-0.105,-0.055
1540,-0.105,-0.060
1541,-0.100,-0.065
1542,-0.095,-0.055
1543,-0.095,-0.045
1544,-0.095,-0.050
1545,-0.085,-0.070
1546,-0.085,-0.045
1547,-0.060,-0.050
1548,-0.020,-0.050
1549,0.005,-0.035
1550,0.025,-0.020
1551,0.090,-0.025
1552,0.150,-0.010
1553,0.165,0.000
1554,0.175,0.000
1555,0.195,0.020
1556,0.205,0.055
1557,0.215,0.055
1558,0.225,0.060
1559,0.240,0.090
1560,0.250,0.110
1561,0.250,0.095
1562,0.240,0.090
1563,0.225,0.100
1564,0.195,0.085
1565,0.165,0.070
1566,0.150,0.040
1567,0.135,0.020
1568,0.115,0.010
1569,0.090,0.010
1570,0.090,0.020
1571,0.085,0.005
1572,0.075,0.000
1573,0.060,-0.025
1574,0.050,-0.020
1575,0.045,-0.010
1576,0.030,0.000
1577,0.030,0.000
1578,0.025,-0.015
1579,0.025,-0.015
1580,-0.095,-0.015
1581,0.050,-0.010
1582,0.000,0.010
1583,-0.090,0.000
1584,-0.085,0.000
1585,-0.065,-0.015
1586,-0.050,-0.045
1587,-0.020,-0.055
1588,0.030,-0.050
1589,0.025,-0.020
1590,-0.065,-0.040
1591,-0.145,-0.110
1592,-0.125,-0.140
1593,-0.095,-0.095
1594,-0.135,-0.070
1595,-0.170,-0.075
1596,-0.170,-0.090
1597,-0.125,-0.120
1598,-0.030,-0.120
1599,0.005,-0.105
1600,0.000,-0.100
1601,-0.005,-0.100
1602,-0.035,-0.100
1603,-0.105,-0.065
1604,-0.030,0.000
1605,0.395,0.120
1606,0.860,0.240
1607,0.885,0.240
1608,0.420,0.170
1609,-0.045,0.170
1610,-0.140,0.165
1611,-0.195,0.060
1612,-0.210,0.035
1613,-0.200,0.020
1614,-0.185,0.000
1615,-0.180,-0.010
1616,-0.155,-0.040
1617,-0.135,-0.045
1618,-0.135,-0.065
1619,-0.130,-0.080
1620,-0.125,-0.080
1621,-0.120,-0.085
1622,-0.120,-0.070
1623,-0.105,-0.080
1624,-0.100,-0.070
1625,-0.095,-0.045
1626,-0.085,-0.050
1627,-0.065,-0.055
1628,-0.050,-0.045
1629,-0.025,-0.040
1630,-0.005,-0.040
1631,0.000,-0.025
1632,0.010,-0.015
1633,0.040,-0.020
1634,0.050,-0.005
1635,0.060,0.000
1636,0.075,0.010
1637,0.090,0.035
1638,0.095,0.050
1639,0.090,0.050
1640,0.075,0.040
1641,0.060,0.035
1642,0.035,0.020
1643,0.010,0.005
1644,0.055,0.000
1645,0.055,-0.005
1646,-0.035,-0.010
1647,-0.065,-0.030
1648,-0.070,-0.040
1649,-0.075,-0.035
1650,-0.075,-0.050
1651,-0.090,-0.055
1652,-0.095,-0.060
1653,-0.100,-0.065
1654,-0.105,-0.055
1655,-0.105,-0.055
1656,-0.110,-0.065
1657,-0.095,-0.045
1658,-0.095,-0.045
1659,-0.095,-0.045
1660,-0.095,-0.025
1661,-0.095,-0.025
1662,-0.120,-0.055
1663,-0.130,-0.075
1664,-0.130,-0.075
1665,-0.110,-0.060
1666,-0.105,-0.055
1667,-0.115,-0.055
1668,-0.165,-0.095
1669,-0.175,-0.095
1670,-0.180,-0.095
1671,-0.185,-0.100
1672,-0.185,-0.105
1673,-0.185,-0.105
1674,-0.190,-0.105
1675,-0.185,-0.105
1676,-0.180,-0.105
1677,-0.180,-0.105
1678,-0.185,-0.105
1679,-0.200,-0.100
1680,-0.165,-0.080
1681,0.075,0.000
1682,0.580,0.140
1683,0.930,0.245
1684,0.750,0.240
1685,0.225,0.200
1686,-0.110,0.195
1687,-0.190,0.155
1688,-0.230,0.075
1689,-0.225,0.035
1690,-0.205,0.020
1691,-0.190,0.000
1692,-0.180,-0.025
1693,-0.160,-0.040
1694,-0.150,-0.050
1695,-0.145,-0.055
1696,-0.135,-0.060
1697,-0.125,-0.060
1698,-0.115,-0.055
1699,-0.105,-0.055
1700,-0.105,-0.055
1701,-0.100,-0.050
1702,-0.090,-0.040
1703,-0.080,-0.035
1704,-0.055,-0.035
1705,-0.045,-0.035
1706,-0.020,-0.030
1707,-0.005,-0.025
1708,0.000,-0.015
1709,0.010,-0.010
1710,0.035,-0.005
1711,0.050,0.005
1712,0.065,0.010
1713,0.070,0.030
1714,0.085,0.055
1715,0.090,0.080
1716,0.085,0.075
1717,0.065,0.055
1718,0.045,0.055
1719,0.020,0.050
1720,0.000,0.035
1721,-0.005,0.015
1722,-0.020,0.000
1723,-0.040,-0.005
1724,-0.055,-0.010
1725,-0.070,-0.020
1726,-0.085,-0.030
1727,-0.095,-0.030
1728,-0.095,-0.035
1729,-0.100,-0.045
1730,-0.105,-0.045
1731,-0.110,-0.045
1732,-0.110,-0.040
1733,-0.105,-0.025
1734,-0.100,-0.020
1735,-0.100,-0.020
1736,-0.100,-0.015
1737,-0.100,-0.010
1738,-0.105,-0.020
1739,-0.120,-0.035
1740,-0.120,-0.050
1741,-0.115,-0.045
1742,-0.100,-0.030
1743,-0.110,-0.040
1744,-0.135,-0.055
1745,-0.170,-0.085
1746,-0.185,-0.095
1747,-0.190,-0.090
1748,-0.195,-0.070
1749,-0.200,-0.075
1750,-0.195,-0.075
1751,-0.185,-0.075
1752,-0.185,-0.080
1753,-0.175,-0.070
1754,-0.185,-0.075
1755,-0.190,-0.080
1756,-0.195,-0.080
1757,-0.070,-0.035
1758,0.335,0.085
1759,0.830,0.235
1760,0.950,0.300
1761,0.460,0.215
1762,0.005,0.210
1763,-0.145,0.205
1764,-0.195,0.135
1765,-0.215,0.075
1766,-0.205,0.040
1767,-0.190,0.020
1768,-0.170,0.000
1769,-0.145,-0.015
1770,-0.135,-0.035
1771,-0.120,-0.050
1772,-0.110,-0.050
1773,-0.110,-0.050
1774,-0.105,-0.050
1775,-0.100,-0.040
1776,-0.090,-0.030
1777,-0.085,-0.035
1778,-0.080,-0.030
1779,-0.065,-0.035
1780,-0.050,-0.025
1781,-0.030,-0.020
1782,-0.015,-0.010
1783,0.000,-0.010
1784,0.000,-0.005
1785,0.015,0.000
1786,0.035,0.010
1787,0.065,0.030
1788,0.115,0.050
1789,0.260,0.055
1790,0.275,0.100
1791,0.260,0.125
1792,0.255,0.135
1793,0.210,0.135
1794,0.215,0.135
1795,0.205,0.110
1796,0.185,0.110
1797,0.040,0.110
1798,-0.025,0.070
1799,-0.025,0.020
1800,0.015,0.030
1801,0.070,0.015
1802,0.100,0.025
1803,0.080,0.030
1804,0.075,0.030
1805,0.070,0.035
1806,0.055,0.035
1807,0.045,0.015
1808,0.035,0.015
1809,0.035,0.025
1810,0.035,0.025
1811,0.045,0.040
1812,0.050,0.050
1813,0.045,0.045
1814,0.045,0.050
1815,0.055,0.070
1816,0.065,0.075
1817,0.050,0.050
1818,0.030,0.040
1819,0.040,0.035
1820,0.055,0.040
1821,0.070,0.055
1822,0.045,0.035
1823,0.010,0.010
1824,0.000,0.000
1825,0.000,0.000
1826,0.000,0.000
1827,0.000,0.000
1828,0.000,-0.005
1829,0.000,0.000
1830,0.000,0.000
1831,0.000,0.005
1832,-0.020,0.000
1833,-0.030,-0.005
1834,-0.150,0.000
1835,-0.115,0.010
1836,0.295,0.140
1837,0.840,0.300
1838,0.995,0.370
1839,0.545,0.290
1840,0.040,0.245
1841,-0.080,0.250
1842,-0.115,0.185
1843,-0.125,0.125
1844,-0.145,0.095
1845,-0.155,0.090
1846,-0.150,0.060
1847,-0.115,0.025
1848,-0.105,0.005
1849,-0.120,-0.005
1850,-0.115,-0.015
1851,-0.105,-0.005
1852,-0.095,0.000
1853,-0.095,0.000
1854,-0.090,0.000
1855,-0.080,0.000
1856,-0.075,0.000
1857,-0.070,0.000
1858,-0.060,0.000
1859,-0.045,0.005
1860,-0.025,0.000
1861,-0.010,0.000
1862,0.000,0.010
1863,0.015,0.030
1864,0.025,0.035
1865,0.040,0.050
1866,0.060,0.065
1867,0.075,0.085
1868,0.085,0.090
1869,0.090,0.105
1870,0.095,0.125
1871,0.085,0.120
1872,0.075,0.110
1873,0.045,0.090
1874,0.020,0.075
1875,0.000,0.055
1876,-0.005,0.050
1877,-0.030,0.030
1878,-0.050,0.025
1879,-0.060,0.015
1880,-0.065,0.015
1881,-0.075,0.005
1882,-0.080,0.010
1883,-0.080,0.010
1884,-0.095,0.000
1885,-0.100,0.000
1886,-0.105,-0.005
1887,-0.110,-0.010
1888,-0.110,-0.005
1889,-0.095,0.005
1890,-0.100,0.005
1891,-0.095,0.005
1892,-0.095,0.010
1893,-0.095,0.005
1894,-0.095,0.005
1895,-0.110,0.000
1896,-0.120,-0.005
1897,-0.110,-0.010
1898,-0.100,0.000
1899,-0.100,0.000
1900,-0.125,-0.020
1901,-0.160,-0.045
1902,-0.180,-0.070
1903,-0.185,-0.065
1904,-0.175,-0.045
1905,-0.170,-0.035
1906,-0.170,-0.035
1907,-0.180,-0.045
1908,-0.180,-0.050
1909,-0.180,-0.050
1910,-0.180,-0.060
1911,-0.175,-0.055
1912,-0.185,-0.055
1913,-0.065,0.000
1914,0.325,0.130
1915,0.865,0.270
1916,0.965,0.340
1917,0.490,0.290
1918,-0.060,0.260
1919,-0.165,0.260
1920,-0.225,0.150
1921,-0.240,0.090
1922,-0.215,0.070
1923,-0.190,0.060
1924,-0.185,0.025
1925,-0.160,0.000
1926,-0.140,0.000
1927,-0.130,0.000
1928,-0.130,-0.010
1929,-0.125,-0.010
1930,-0.120,-0.010
1931,-0.115,-0.015
1932,-0.105,-0.020
1933,-0.095,-0.010
1934,-0.095,-0.010
1935,-0.080,-0.005
1936,-0.060,-0.005
1937,-0.035,0.005
1938,-0.020,0.005
1939,-0.005,0.005
1940,0.005,0.015
1941,0.015,0.030
1942,0.040,0.035
1943,0.060,0.030
1944,0.065,0.030
1945,0.070,0.060
1946,0.085,0.105
1947,0.090,0.105
1948,0.090,0.095
1949,0.080,0.090
1950,0.060,0.090
1951,0.040,0.095
1952,0.010,0.055
1953,0.000,0.050
1954,-0.020,0.040
1955,-0.035,0.015
1956,-0.030,0.015
1957,-0.055,0.010
1958,-0.075,-0.015
1959,-0.095,-0.070
1960,-0.095,0.000
1961,-0.095,0.000
1962,-0.100,-0.025
1963,-0.105,-0.055
1964,-0.105,-0.025
1965,-0.110,0.025
1966,-0.100,-0.005
1967,-0.105,-0.010
1968,-0.105,-0.040
1969,-0.100,-0.015
1970,-0.100,-0.010
1971,-0.120,-0.010
1972,-0.125,-0.010
1973,-0.125,-0.010
1974,-0.120,-0.010
1975,-0.120,-0.015
1976,-0.125,-0.025
1977,-0.160,-0.115
1978,-0.185,-0.120
1979,-0.190,-0.055
1980,-0.195,-0.055
1981,-0.200,-0.075
1982,-0.200,-0.125
1983,-0.190,-0.175
1984,-0.190,-0.110
1985,-0.185,-0.075
1986,-0.185,-0.095
1987,-0.190,-0.075
1988,-0.195,-0.075
1989,-0.175,-0.100
1990,0.005,-0.065
1991,0.450,0.085
1992,0.895,0.190
1993,0.855,0.260
1994,0.345,0.185
1995,-0.100,0.200
1996,-0.195,0.150
1997,-0.235,0.070
1998,-0.235,0.095
1999,-0.210,0.020
2000,-0.190,-0.040
2001,-0.180,-0.025
2002,-0.150,-0.025
2003,-0.125,-0.085
2004,-0.125,-0.145
2005,-0.125,-0.055
2006,-0.125,-0.060
2007,-0.105,-0.135
2008,-0.105,-0.160
2009,-0.095,-0.165
2010,-0.095,0.000
2011,-0.085,-0.030
2012,-0.080,-0.125
2013,-0.050,-0.050
2014,-0.030,-0.075
2015,-0.005,-0.105
2016,0.000,-0.055
2017,0.010,-0.075
2018,0.030,-0.040
2019,0.060,-0.010
2020,0.070,-0.030
2021,0.075,-0.050
2022,0.090,0.000
2023,0.100,0.040
2024,0.100,0.035
2025,0.095,0.025
2026,0.085,0.030
2027,0.075,0.025
2028,0.045,0.025
2029,0.020,0.020
2030,0.005,0.000
2031,0.000,0.000
2032,-0.015,0.005
2033,-0.040,-0.005
2034,-0.050,-0.015
2035,-0.055,-0.050
2036,-0.065,-0.135
2037,-0.070,-0.040
2038,-0.085,0.015
2039,-0.085,-0.020
2040,-0.090,0.000
2041,-0.095,-0.015
2042,-0.090,-0.010
2043,-0.080,-0.015
2044,-0.080,-0.045
2045,-0.080,0.000
2046,-0.080,-0.015
2047,-0.070,0.000
2048,-0.095,0.000
2049,-0.095,0.000
2050,-0.095,0.000
2051,-0.075,-0.015
2052,-0.065,0.000
2053,-0.080,0.000
2054,-0.110,-0.010
2055,-0.130,-0.020
2056,-0.135,-0.045
2057,-0.150,-0.030
2058,-0.140,-0.035
2059,-0.140,-0.040
2060,-0.130,-0.030
2061,-0.130,-0.035
2062,-0.130,-0.025
2063,-0.130,-0.035
2064,-0.125,-0.050
2065,-0.145,-0.025
2066,-0.140,0.000
2067,0.015,0.050
2068,0.450,0.170
2069,0.875,0.290
2070,0.930,0.340
2071,0.515,0.285
2072,0.065,0.240
2073,-0.060,0.240
2074,-0.130,0.185
2075,-0.180,0.125
2076,-0.170,0.090
2077,-0.155,0.065
2078,-0.125,0.030
2079,-0.110,0.000
2080,-0.100,-0.010
2081,-0.095,-0.005
2082,-0.090,-0.035
2083,-0.080,-0.025
2084,-0.065,-0.020
2085,-0.060,0.000
2086,-0.050,-0.020
2087,-0.050,-0.020
2088,-0.020,0.000
2089,-0.015,0.000
2090,0.000,0.000
2091,0.000,0.000
2092,0.055,0.005
2093,0.140,0.000
2094,0.175,0.025
2095,0.215,0.030
2096,0.250,0.055
2097,0.255,0.080
2098,0.225,0.105
2099,0.115,0.115
2100,0.125,0.110
2101,0.135,0.115
2102,0.125,0.110
2103,0.125,0.115
2104,0.120,0.105
2105,0.145,0.090
2106,0.205,0.075
2107,0.220,0.065
2108,0.180,0.070
2109,0.150,0.070
2110,0.160,0.055
2111,0.150,0.050
2112,0.125,0.040
2113,0.115,0.030
2114,0.110,0.035
2115,0.105,0.035
2116,0.100,0.030
2117,0.095,0.030
2118,0.090,0.030
2119,0.075,0.030
2120,0.070,0.035
2121,0.080,0.035
2122,0.080,0.040
2123,0.065,0.055
2124,0.080,0.070
2125,-0.015,0.070
2126,-0.015,0.040
2127,-0.030,0.035
2128,-0.070,0.005
2129,-0.050,0.005
2130,-0.010,0.005
2131,-0.040,0.005
2132,-0.040,0.010
2133,-0.080,-0.020
2134,-0.090,-0.020
2135,-0.095,-0.030
2136,-0.100,-0.030
2137,-0.100,-0.030
2138,-0.100,-0.035
2139,-0.095,-0.030
2140,-0.095,-0.030
2141,-0.095,-0.030
2142,-0.095,-0.015
2143,-0.100,-0.025
2144,-0.120,-0.030
2145,-0.020,0.005
2146,0.315,0.130
2147,0.795,0.285
2148,0.985,0.355
2149,0.635,0.285
2150,0.155,0.250
2151,-0.045,0.260
2152,-0.095,0.210
2153,-0.130,0.145
2154,-0.130,0.110
2155,-0.110,0.100
2156,-0.095,0.075
2157,-0.085,0.045
2158,-0.070,0.020
2159,-0.060,0.010
2160,-0.055,0.010
2161,-0.050,0.010
2162,-0.050,0.010
2163,-0.035,0.010
2164,-0.030,0.010
2165,-0.020,0.010
2166,-0.015,0.010
2167,-0.010,0.015
2168,-0.005,0.020
2169,0.000,0.025
2170,0.000,0.020
2171,0.030,0.025
2172,0.045,0.035
2173,0.080,0.050
2174,0.085,0.055
2175,0.105,0.070
2176,0.115,0.085
2177,0.130,0.095
2178,0.145,0.115
2179,0.150,0.130
2180,0.135,0.135
2181,0.135,0.135
2182,0.125,0.130
2183,0.105,0.120
2184,0.090,0.095
2185,0.160,0.095
2186,0.085,0.075
2187,0.140,0.070
2188,0.155,0.080
2189,0.075,0.085
2190,0.000,0.075
2191,-0.015,0.060
2192,-0.005,0.035
2193,-0.025,0.020
2194,-0.030,0.025
2195,-0.040,0.020
2196,-0.040,0.015
2197,-0.040,0.015
2198,-0.040,0.015
2199,-0.035,0.025
2200,-0.040,0.035
2201,-0.035,0.035
2202,0.000,0.035
2203,0.085,0.040
2204,0.140,0.070
2205,0.105,0.070
2206,0.075,0.050
2207,0.065,0.050
2208,0.070,0.060
2209,0.025,0.070
2210,-0.035,0.055
2211,-0.065,0.020
2212,-0.090,0.000
2213,-0.110,-0.010
2214,-0.120,-0.020
2215,-0.110,-0.020
2216,-0.100,-0.020
2217,-0.105,-0.020
2218,-0.100,-0.015
2219,-0.110,-0.025
2220,-0.105,-0.020
2221,-0.115,-0.025
2222,-0.125,-0.040
2223,-0.110,-0.005
2224,0.125,0.085
2225,0.625,0.245
2226,0.965,0.370
2227,0.830,0.325
2228,0.250,0.235
2229,-0.025,0.260
2230,-0.100,0.245
2231,-0.150,0.175
2232,-0.150,0.130
2233,-0.140,0.105
2234,-0.120,0.085
2235,-0.105,0.050
2236,-0.095,0.025
2237,-0.090,0.020
2238,-0.090,0.010
2239,-0.085,0.005
2240,-0.080,0.005
2241,-0.075,0.010
2242,-0.075,0.005
2243,-0.070,0.005
2244,-0.055,0.010
2245,-0.035,0.015
2246,-0.020,0.020
2247,-0.005,0.035
2248,0.000,0.035
2249,0.000,0.035
2250,0.010,0.050
2251,0.030,0.055
2252,0.050,0.055
2253,0.070,0.070
2254,0.095,0.080
2255,0.095,0.090
2256,0.115,0.105
2257,0.120,0.120
2258,0.125,0.120
2259,0.115,0.140
2260,0.100,0.130
2261,0.085,0.120
2262,0.065,0.115
2263,0.040,0.090
2264,0.020,0.080
2265,0.005,0.065
2266,0.000,0.055
2267,-0.005,0.035
2268,-0.020,0.035
2269,-0.025,0.030
2270,-0.040,0.025
2271,-0.045,0.025
2272,-0.060,0.015
2273,-0.065,0.015
2274,-0.075,0.015
2275,-0.075,0.010
2276,-0.075,0.010
2277,-0.070,0.005
2278,-0.065,0.005
2279,-0.055,0.035
2280,-0.055,0.050
2281,-0.050,0.040
2282,-0.050,0.035
2283,-0.065,0.025
2284,-0.075,0.020
2285,-0.065,0.030
2286,-0.055,0.025
2287,-0.050,0.025
2288,-0.060,0.025
2289,-0.095,0.000
2290,-0.125,-0.020
2291,-0.140,-0.030
2292,-0.140,-0.030
2293,-0.135,-0.025
2294,-0.140,-0.025
2295,-0.140,-0.045
2296,-0.140,-0.050
2297,-0.130,-0.030
2298,-0.140,-0.020
2299,-0.140,-0.045
2300,-0.150,-0.045
2301,-0.135,-0.010
2302,0.065,0.060
2303,0.560,0.230
2304,0.980,0.360
2305,0.895,0.315
2306,0.230,0.205
2307,-0.055,0.260
2308,-0.120,0.225
2309,-0.175,0.160
2310,-0.180,0.120
2311,-0.160,0.105
2312,-0.140,0.080
2313,-0.130,0.035
2314,-0.115,0.005
2315,-0.120,-0.020
2316,-0.115,-0.015
2317,-0.110,0.000
2318,-0.095,0.000
2319,-0.095,-0.005
2320,-0.090,0.000
2321,-0.085,0.000
2322,-0.070,-0.010
2323,-0.065,-0.005
2324,-0.050,0.000
2325,-0.030,0.000
2326,-0.015,0.000
2327,-0.005,0.010
2328,0.005,0.015
2329,0.015,0.025
2330,0.035,0.030
2331,0.055,0.050
2332,0.070,0.055
2333,0.085,0.070
2334,0.090,0.080
2335,0.095,0.105
2336,0.095,0.105
2337,0.095,0.105
2338,0.090,0.110
2339,0.075,0.100
2340,0.050,0.075
2341,0.020,0.060
2342,0.005,0.060
2343,0.000,0.030
2344,-0.010,0.030
2345,-0.025,0.025
2346,0.025,0.000
2347,0.020,0.000
2348,-0.010,0.010
2349,0.070,0.000
2350,0.055,0.005
2351,0.035,0.040
2352,0.000,0.010
2353,0.030,0.005
2354,0.055,0.020
2355,0.055,0.035
2356,0.050,0.040
2357,0.050,0.050
2358,0.060,0.065
2359,0.065,0.070
2360,0.065,0.055
2361,0.055,0.055
2362,0.040,0.045
2363,0.040,0.040
2364,0.045,0.050
2365,0.055,0.050
2366,0.040,0.040
2367,0.010,0.015
2368,0.000,0.000
2369,0.000,0.000
2370,0.000,0.000
2371,-0.005,0.000
2372,-0.010,0.000
2373,-0.005,0.000
2374,0.000,-0.005
2375,-0.005,0.000
2376,-0.005,0.000
2377,-0.010,-0.010
2378,-0.010,0.000
2379,0.015,0.020
2380,0.240,0.100
2381,0.690,0.255
2382,1.005,0.380
2383,0.905,0.360
2384,0.370,0.260
2385,0.050,0.290
2386,0.000,0.280
2387,-0.035,0.215
2388,-0.035,0.165
2389,-0.025,0.130
2390,-0.010,0.125
2391,0.000,0.085
2392,0.000,0.045
2393,0.000,0.040
2394,0.000,0.035
2395,0.015,0.040
2396,0.015,0.035
2397,0.020,0.035
2398,0.025,0.035
2399,0.035,0.050
2400,0.035,0.040
2401,0.045,0.035
2402,0.060,0.050
2403,0.080,0.060
2404,0.085,0.065
2405,0.105,0.075
2406,0.120,0.080
2407,0.150,0.085
2408,0.175,0.090
2409,0.195,0.100
2410,0.205,0.115
2411,0.210,0.135
2412,0.225,0.150
2413,0.230,0.160
2414,0.200,0.175
2415,0.130,0.185
2416,0.085,0.155
2417,0.085,0.130
2418,0.100,0.110
2419,0.085,0.105
2420,0.005,0.095
2421,0.000,0.075
2422,0.000,0.055
2423,0.045,0.040
2424,0.100,0.055
2425,0.080,0.060
2426,0.055,0.055
2427,0.050,0.050
2428,0.035,0.050
2429,0.035,0.055
2430,0.020,0.050
2431,0.000,0.045
2432,0.005,0.030
2433,0.030,0.045
2434,0.035,0.075
2435,0.040,0.080
2436,-0.030,0.070
2437,0.035,0.070
2438,0.050,0.075
2439,0.030,0.065
2440,0.020,0.050
2441,0.020,0.050
2442,0.030,0.060
2443,0.035,0.065
2444,0.015,0.040
2445,0.000,0.010
2446,-0.020,0.000
2447,-0.025,0.000
2448,-0.025,0.000
2449,-0.030,0.000
2450,-0.020,0.000
2451,-0.020,-0.005
2452,-0.020,0.000
2453,-0.030,0.005
2454,-0.030,0.005
2455,-0.035,0.000
2456,-0.045,0.000
2457,0.010,0.025
2458,0.280,0.125
2459,0.730,0.280
2460,1.000,0.380
2461,0.805,0.345
2462,0.290,0.265
2463,0.000,0.295
2464,-0.055,0.245
2465,-0.045,0.175
2466,-0.060,0.135
2467,-0.060,0.110
2468,-0.105,0.085
2469,-0.025,0.050
2470,-0.095,0.045
2471,-0.105,0.015
2472,-0.015,0.020
2473,-0.075,0.010
2474,-0.050,0.020
2475,-0.035,0.000
2476,0.030,0.010
2477,0.030,0.025
2478,0.025,0.030
2479,0.025,0.030
2480,0.040,0.035
2481,0.050,0.040
2482,0.065,0.045
2483,0.080,0.050
2484,0.090,0.060
2485,0.070,0.065
2486,0.115,0.075
2487,0.150,0.090
2488,0.080,0.115
2489,0.030,0.115
2490,0.040,0.120
2491,0.065,0.120
2492,0.065,0.120
2493,0.055,0.120
2494,0.105,0.115
2495,0.095,0.110
2496,0.015,0.095
2497,0.000,0.065
2498,0.025,0.055
2499,0.035,0.050
2500,0.000,0.040
2501,-0.030,0.040
2502,-0.070,0.030
2503,-0.100,0.020
2504,-0.085,0.010
2505,-0.035,0.000
2506,0.045,0.000
2507,0.025,0.010
2508,0.000,0.010
2509,0.000,0.015
2510,0.000,0.015
2511,0.000,0.025
2512,0.005,0.055
2513,0.000,0.065
2514,-0.035,0.065
2515,-0.095,0.055
2516,0.015,0.045
2517,-0.125,0.035
2518,-0.155,0.005
2519,-0.130,0.000
2520,-0.120,0.000
2521,-0.110,0.000
2522,-0.135,-0.015
2523,-0.070,-0.055
2524,-0.010,-0.050
2525,-0.035,-0.030
2526,-0.190,-0.020
2527,-0.220,-0.035
2528,-0.205,-0.040
2529,-0.195,-0.045
2530,-0.195,-0.050
2531,-0.190,-0.050
2532,-0.150,-0.060
2533,-0.060,-0.065
2534,-0.090,-0.035
2535,-0.095,0.010
2536,0.230,0.115
2537,0.755,0.255
2538,0.990,0.315
2539,0.665,0.265
2540,0.130,0.240
2541,-0.145,0.255
2542,-0.190,0.200
2543,-0.185,0.130
2544,-0.210,0.090
2545,-0.140,0.060
2546,-0.060,0.050
2547,-0.150,0.025
2548,-0.190,0.000
2549,-0.175,-0.015
2550,-0.130,-0.030
2551,-0.050,-0.030
2552,-0.155,-0.015
2553,-0.160,-0.025
2554,-0.145,-0.025
2555,-0.120,-0.025
2556,-0.090,-0.025
2557,0.040,-0.020
2558,0.050,0.000
2559,0.040,0.015
2560,0.040,0.020
2561,0.055,0.020
2562,0.055,0.025
2563,0.025,0.035
2564,0.005,0.050
2565,0.000,0.045
2566,0.000,0.040
2567,0.020,0.050
2568,0.035,0.065
2569,0.075,0.065
2570,0.205,0.080
2571,0.220,0.090
2572,0.190,0.100
2573,0.155,0.090
2574,0.120,0.080
2575,0.060,0.075
2576,-0.035,0.055
2577,-0.085,0.030
2578,-0.090,0.010
2579,-0.010,-0.005
2580,-0.020,0.000
2581,-0.105,-0.005
2582,-0.120,-0.015
2583,-0.070,-0.030
2584,-0.030,-0.025
2585,-0.095,-0.020
2586,-0.150,-0.030
2587,-0.135,-0.030
2588,-0.140,-0.025
2589,-0.130,-0.020
2590,-0.120,-0.010
2591,-0.110,-0.010
2592,-0.090,-0.005
2593,-0.065,0.000
2594,-0.095,-0.005
2595,-0.150,-0.025
2596,-0.145,-0.035
2597,-0.135,-0.030
2598,-0.120,-0.025
2599,-0.125,-0.025
2600,-0.160,-0.055
2601,-0.200,-0.085
2602,-0.205,-0.095
2603,-0.210,-0.095
2604,-0.205,-0.095
2605,-0.205,-0.085
2606,-0.210,-0.090
2607,-0.210,-0.095
2608,-0.210,-0.095
2609,-0.210,-0.085
2610,-0.200,-0.085
2611,-0.210,-0.085
2612,-0.205,-0.070
2613,-0.035,0.000
2614,0.405,0.135
2615,0.845,0.255
2616,0.850,0.260
2617,0.325,0.170
2618,-0.025,0.170
2619,-0.055,0.185
2620,-0.165,0.135
2621,-0.240,0.075
2622,-0.235,0.030
2623,-0.220,0.005
2624,-0.205,-0.010
2625,-0.190,-0.030
2626,-0.175,-0.045
2627,-0.160,-0.050
2628,-0.160,-0.055
2629,-0.155,-0.055
2630,-0.150,-0.060
2631,-0.150,-0.070
2632,-0.145,-0.065
2633,-0.135,-0.065
2634,-0.125,-0.060
2635,-0.120,-0.055
2636,-0.100,-0.050
2637,-0.090,-0.040
2638,-0.070,-0.040
2639,-0.060,-0.035
2640,-0.030,-0.020
2641,-0.010,-0.010
2642,0.000,-0.010
2643,0.000,-0.005
2644,0.020,0.015
2645,0.030,0.025
2646,0.035,0.040
2647,0.040,0.050
2648,0.040,0.055
2649,0.015,0.045
2650,0.005,0.040
2651,0.000,0.020
2652,-0.015,0.005
2653,-0.020,0.000
2654,-0.050,0.000
2655,-0.070,-0.020
2656,-0.090,-0.030
2657,-0.095,-0.040
2658,-0.105,-0.045
2659,-0.110,-0.050
2660,-0.115,-0.045
2661,-0.120,-0.050
2662,-0.130,-0.060
2663,-0.135,-0.065
2664,-0.140,-0.065
2665,-0.140,-0.065
2666,-0.135,-0.055
2667,-0.125,-0.040
2668,-0.115,-0.035
2669,-0.120,-0.030
2670,-0.110,-0.020
2671,-0.110,-0.020
2672,-0.130,-0.040
2673,-0.140,-0.060
2674,-0.135,-0.065
2675,-0.125,-0.065
2676,-0.135,-0.065
2677,-0.145,-0.080
2678,-0.180,-0.095
2679,-0.200,-0.110
2680,-0.210,-0.110
2681,-0.205,-0.110
2682,-0.205,-0.120
2683,-0.205,-0.120
2684,-0.205,-0.120
2685,-0.205,-0.115
2686,-0.205,-0.120
2687,-0.205,-0.120
2688,-0.215,-0.130
2689,-0.225,-0.130
2690,-0.165,-0.075
2691,0.160,0.055
2692,0.690,0.210
2693,0.970,0.270
2694,0.600,0.185
2695,0.045,0.145
2696,-0.130,0.190
2697,-0.195,0.130
2698,-0.225,0.070
2699,-0.235,0.030
2700,-0.215,0.010
2701,-0.200,0.000
2702,-0.185,-0.030
2703,-0.170,-0.060
2704,-0.160,-0.070
2705,-0.160,-0.075
2706,-0.155,-0.080
2707,-0.150,-0.070
2708,-0.150,-0.075
2709,-0.150,-0.080
2710,-0.140,-0.075
2711,-0.130,-0.070
2712,-0.120,-0.070
2713,-0.105,-0.060
2714,-0.090,-0.050
2715,-0.070,-0.050
2716,-0.055,-0.050
2717,-0.040,-0.045
2718,-0.015,-0.030
2719,0.000,-0.020
2720,0.005,-0.005
2721,0.020,0.000
2722,0.020,0.005
2723,0.030,0.010
2724,0.040,0.035
2725,0.045,0.045
2726,0.045,0.050
2727,0.025,0.035
2728,0.005,0.025
2729,0.000,0.005
2730,-0.015,0.000
2731,-0.045,-0.010
2732,-0.060,-0.020
2733,-0.070,-0.025
2734,-0.085,-0.045
2735,-0.095,-0.050
2736,-0.095,-0.050
2737,-0.105,-0.050
2738,-0.115,-0.060
2739,-0.125,-0.065
2740,-0.130,-0.070
2741,-0.130,-0.075
2742,-0.135,-0.065
2743,-0.130,-0.060
2744,-0.125,-0.045
2745,-0.120,-0.040
2746,-0.115,-0.040
2747,-0.105,-0.030
2748,-0.100,-0.030
2749,-0.115,-0.040
2750,-0.135,-0.060
2751,-0.130,-0.065
2752,-0.115,-0.060
2753,-0.105,-0.055
2754,-0.130,-0.065
2755,-0.165,-0.085
2756,-0.190,-0.105
2757,-0.200,-0.110
2758,-0.195,-0.110
2759,-0.205,-0.120
2760,-0.205,-0.120
2761,-0.205,-0.120
2762,-0.205,-0.120
2763,-0.200,-0.110
2764,-0.200,-0.110
2765,-0.200,-0.115
2766,-0.210,-0.120
2767,-0.185,-0.090
2768,0.010,-0.015
2769,0.465,0.130
2770,0.910,0.250
2771,0.870,0.235
2772,0.225,0.115
2773,-0.110,0.155
2774,-0.160,0.155
2775,-0.210,0.085
2776,-0.220,0.050
2777,-0.205,0.010
2778,-0.195,0.000
2779,-0.185,-0.030
2780,-0.170,-0.060
2781,-0.160,-0.070
2782,-0.160,-0.080
2783,-0.145,-0.080
2784,-0.140,-0.075
2785,-0.130,-0.075
2786,-0.135,-0.075
2787,-0.125,-0.080
2788,-0.120,-0.075
2789,-0.110,-0.075
2790,-0.095,-0.075
2791,-0.090,-0.070
2792,-0.075,-0.055
2793,-0.055,-0.050
2794,-0.035,-0.050
2795,-0.020,-0.050
2796,-0.005,-0.030
2797,0.000,-0.015
2798,0.010,-0.010
2799,0.020,-0.005
2800,0.035,0.010
2801,0.055,0.030
2802,0.060,0.040
2803,0.055,0.040
2804,0.045,0.040
2805,0.025,0.025
2806,0.000,0.015
2807,-0.005,0.000
2808,-0.030,-0.010
2809,-0.045,-0.020
2810,-0.075,-0.045
2811,-0.080,-0.045
2812,-0.095,-0.055
2813,-0.095,-0.055
2814,-0.100,-0.055
2815,-0.105,-0.065
2816,-0.120,-0.070
2817,-0.120,-0.075
2818,-0.125,-0.080
2819,-0.130,-0.075
2820,-0.130,-0.075
2821,-0.120,-0.060
2822,-0.110,-0.050
2823,-0.115,-0.055
2824,-0.110,-0.045
2825,-0.100,-0.030
2826,-0.100,-0.035
2827,-0.115,-0.055
2828,-0.120,-0.065
2829,-0.120,-0.065
2830,-0.105,-0.055
2831,-0.115,-0.060
2832,-0.150,-0.085
2833,-0.185,-0.110
2834,-0.195,-0.120
2835,-0.195,-0.125
2836,-0.185,-0.120
2837,-0.185,-0.120
2838,-0.185,-0.115
2839,-0.185,-0.115
2840,-0.195,-0.120
2841,-0.195,-0.125
2842,-0.190,-0.125
2843,-0.195,-0.125
2844,-0.190,-0.110
2845,-0.055,-0.045
2846,0.315,0.075
2847,0.785,0.210
2848,0.900,0.235
2849,0.465,0.150
2850,-0.045,0.125
2851,-0.150,0.170
2852,-0.195,0.100
2853,-0.220,0.040
2854,-0.210,0.000
2855,-0.205,0.000
2856,-0.185,-0.020
2857,-0.185,-0.060
2858,-0.155,-0.075
2859,-0.145,-0.075
2860,-0.130,-0.080
2861,-0.130,-0.080
2862,-0.135,-0.085
2863,-0.135,-0.085
2864,-0.115,-0.075
2865,-0.105,-0.075
2866,-0.100,-0.070
2867,-0.095,-0.070
2868,-0.080,-0.070
2869,-0.065,-0.065
2870,-0.045,-0.050
2871,-0.025,-0.045
2872,-0.010,-0.040
2873,0.000,-0.035
2874,0.000,-0.025
2875,0.020,-0.010
2876,0.035,0.000
2877,0.045,0.010
2878,0.060,0.025
2879,0.070,0.040
2880,0.065,0.045
2881,0.055,0.040
2882,0.035,0.030
2883,0.015,0.025
2884,0.000,0.010
2885,0.000,0.000
2886,-0.015,-0.010
2887,-0.035,-0.015
2888,-0.055,-0.025
2889,-0.075,-0.040
2890,-0.085,-0.050
2891,-0.095,-0.050
2892,-0.095,-0.060
2893,-0.105,-0.065
2894,-0.105,-0.070
2895,-0.110,-0.070
2896,-0.110,-0.070
2897,-0.115,-0.065
2898,-0.105,-0.045
2899,-0.105,-0.045
2900,-0.110,-0.050
2901,-0.110,-0.055
2902,-0.110,-0.055
2903,-0.105,-0.045
2904,-0.125,-0.060
2905,-0.130,-0.070
2906,-0.115,-0.065
2907,-0.095,-0.055
2908,-0.110,-0.055
2909,-0.145,-0.085
2910,-0.180,-0.115
2911,-0.190,-0.120
2912,-0.195,-0.110
2913,-0.195,-0.115
2914,-0.195,-0.120
2915,-0.185,-0.115
2916,-0.190,-0.120
2917,-0.195,-0.125
2918,-0.195,-0.120
2919,-0.190,-0.120
2920,-0.200,-0.125
2921,-0.200,-0.115
2922,-0.065,-0.055
2923,0.325,0.070
2924,0.795,0.205
2925,0.915,0.245
2926,0.495,0.205
2927,0.000,0.185
2928,-0.155,0.185
2929,-0.215,0.095
2930,-0.245,0.030
2931,-0.220,0.010
2932,-0.200,0.000
2933,-0.185,-0.015
2934,-0.175,-0.045
2935,-0.160,-0.065
2936,-0.155,-0.075
2937,-0.140,-0.075
2938,-0.145,-0.080
2939,-0.135,-0.085
2940,-0.130,-0.080
2941,-0.105,-0.070
2942,-0.100,-0.070
2943,-0.095,-0.065
2944,-0.095,-0.065
2945,-0.075,-0.065
2946,-0.065,-0.065
2947,-0.045,-0.050
2948,-0.025,-0.045
2949,0.000,-0.030
2950,0.000,-0.020
2951,0.020,-0.015
2952,0.035,-0.010
2953,0.050,0.000
2954,0.065,0.020
2955,0.080,0.035
2956,0.090,0.055
2957,0.085,0.060
2958,0.070,0.055
2959,0.055,0.045
2960,0.035,0.030
2961,0.010,0.015
2962,0.000,0.005
2963,-0.015,0.000
2964,-0.030,-0.005
2965,-0.050,-0.015
2966,-0.065,-0.025
2967,-0.080,-0.035
2968,-0.090,-0.040
2969,-0.095,-0.040
2970,-0.100,-0.045
2971,-0.110,-0.055
2972,-0.110,-0.055
2973,-0.105,-0.050
2974,-0.105,-0.045
2975,-0.100,-0.040
2976,-0.095,-0.040
2977,-0.095,-0.035
2978,-0.095,-0.025
2979,-0.100,-0.030
2980,-0.125,-0.055
2981,-0.125,-0.060
2982,-0.115,-0.055
2983,-0.100,-0.030
2984,-0.110,-0.030
2985,-0.145,-0.070
2986,-0.170,-0.095
2987,-0.185,-0.095
2988,-0.180,-0.095
2989,-0.180,-0.095
2990,-0.180,-0.095
2991,-0.185,-0.095
2992,-0.180,-0.090
2993,-0.185,-0.090
2994,-0.180,-0.085
2995,-0.185,-0.090
2996,-0.190,-0.100
2997,-0.205,-0.100
2998,-0.110,-0.055
2999,0.240,0.050
3000,0.750,0.195
3001,0.955,0.270
3002,0.565,0.240
3003,0.065,0.220
3004,-0.150,0.200
3005,-0.210,0.130
3006,-0.230,0.065
3007,-0.215,0.035
3008,-0.195,0.015
3009,-0.175,0.000
3010,-0.160,-0.025
3011,-0.145,-0.045
3012,-0.135,-0.055
3013,-0.125,-0.055
3014,-0.120,-0.055
3015,-0.110,-0.050
3016,-0.105,-0.050
3017,-0.100,-0.045
3018,-0.095,-0.040
3019,-0.090,-0.040
3020,-0.080,-0.035
3021,-0.070,-0.025
3022,-0.045,-0.025
3023,-0.030,-0.025
3024,0.000,-0.020
3025,0.000,-0.015
3026,0.010,-0.010
3027,0.030,0.000
3028,0.050,0.010
3029,0.055,0.015
3030,0.075,0.035
3031,0.090,0.055
3032,0.095,0.070
3033,0.100,0.090
3034,0.090,0.085
3035,0.085,0.085
3036,0.055,0.065
3037,0.035,0.045
3038,0.010,0.035
3039,0.000,0.030
3040,-0.015,0.015
3041,-0.025,0.005
3042,-0.035,0.005
3043,-0.045,-0.005
3044,-0.060,-0.005
3045,-0.070,-0.010
3046,-0.080,-0.015
3047,-0.085,-0.015
3048,-0.090,-0.020
3049,-0.095,-0.015
3050,-0.095,-0.005
3051,-0.085,0.000
3052,-0.075,0.000
3053,-0.080,0.000
3054,-0.075,0.010
3055,-0.075,0.010
3056,-0.085,0.000
3057,-0.095,-0.015
3058,-0.090,-0.020
3059,-0.080,-0.005
3060,-0.070,0.005
3061,-0.080,0.000
3062,-0.115,-0.030
3063,-0.140,-0.040
3064,-0.155,-0.045
3065,-0.145,-0.045
3066,-0.150,-0.050
3067,-0.150,-0.050
3068,-0.145,-0.045
3069,-0.135,-0.045
3070,-0.135,-0.050
3071,-0.135,-0.045
3072,-0.140,-0.045
3073,-0.155,-0.055
3074,-0.160,-0.040
3075,0.025,0.025
3076,0.520,0.200
3077,0.945,0.335
3078,0.940,0.350
3079,0.360,0.265
3080,0.005,0.270
3081,-0.095,0.255
3082,-0.155,0.165
3083,-0.180,0.110
3084,-0.165,0.085
3085,-0.145,0.070
3086,-0.125,0.045
3087,-0.110,0.015
3088,-0.100,0.005
3089,-0.095,0.000
3090,-0.085,0.000
3091,-0.080,0.000
3092,-0.070,0.005
3093,-0.065,0.000
3094,-0.060,0.005
3095,-0.050,0.015
3096,-0.040,0.015
3097,-0.030,0.020
3098,-0.020,0.025
3099,-0.005,0.030
3100,0.000,0.030
3101,0.015,0.030
3102,0.035,0.040
3103,0.055,0.055
3104,0.075,0.060
3105,0.090,0.075
3106,0.105,0.090
3107,0.110,0.100
3108,0.120,0.110
3109,0.125,0.135
3110,0.120,0.135
3111,0.110,0.135
3112,0.100,0.135
3113,0.080,0.110
3114,0.055,0.085
3115,0.030,0.080
3116,0.020,0.065
3117,0.000,0.065
3118,0.000,0.060
3119,0.000,0.040
3120,-0.005,0.040
3121,-0.025,0.035
3122,-0.035,0.025
3123,-0.045,0.025
3124,-0.050,0.015
3125,-0.060,0.010
3126,-0.055,0.010
3127,-0.065,0.010
3128,-0.055,0.015
3129,-0.045,0.025
3130,-0.040,0.030
3131,-0.045,0.035
3132,-0.040,0.035
3133,-0.040,0.040
3134,-0.050,0.030
3135,-0.065,0.015
3136,-0.065,0.020
3137,-0.045,0.030
3138,-0.035,0.035
3139,-0.055,0.025
3140,-0.085,0.000
3141,-0.105,-0.015
3142,-0.110,-0.020
3143,-0.115,-0.020
3144,-0.110,-0.020
3145,-0.110,-0.020
3146,-0.110,-0.020
3147,-0.120,-0.020
3148,-0.115,-0.020
3149,-0.115,-0.020
3150,-0.120,-0.020
3151,-0.130,-0.030
3152,-0.095,0.000
3153,0.155,0.085
3154,0.675,0.270
3155,1.000,0.390
3156,0.865,0.350
3157,0.170,0.245
3158,-0.040,0.295
3159,-0.095,0.260
3160,-0.145,0.185
3161,-0.150,0.125
3162,-0.135,0.095
3163,-0.120,0.095
3164,-0.105,0.065
3165,-0.095,0.035
3166,-0.090,0.015
3167,-0.075,0.015
3168,-0.070,0.015
3169,-0.065,0.015
3170,-0.065,0.015
3171,-0.065,0.010
3172,-0.055,0.010
3173,-0.045,0.015
3174,-0.035,0.020
3175,-0.020,0.015
3176,-0.010,0.020
3177,0.000,0.030
3178,0.005,0.045
3179,0.020,0.045
3180,0.040,0.040
3181,0.055,0.055
3182,0.075,0.065
3183,0.090,0.075
3184,0.100,0.095
3185,0.105,0.110
3186,0.120,0.130
3187,0.130,0.145
3188,0.120,0.145
3189,0.110,0.130
3190,0.095,0.125
3191,0.075,0.110
3192,0.045,0.090
3193,0.030,0.080
3194,0.005,0.070
3195,0.000,0.050
3196,-0.005,0.035
3197,-0.010,0.030
3198,-0.020,0.030
3199,-0.025,0.025
3200,-0.050,0.020
3201,-0.050,0.010
3202,-0.055,0.005
3203,-0.055,0.005
3204,-0.065,0.000
3205,-0.060,0.000
3206,-0.060,0.010
3207,-0.050,0.035
3208,-0.045,0.045
3209,-0.040,0.050
3210,-0.030,0.055
3211,-0.035,0.045
3212,-0.050,0.030
3213,-0.065,0.015
3214,-0.060,0.010
3215,-0.040,0.015
3216,-0.030,0.025
3217,-0.055,0.020
3218,-0.080,0.000
3219,-0.100,-0.015
3220,-0.110,-0.020
3221,-0.115,-0.020
3222,-0.120,-0.025
3223,-0.120,-0.025
3224,-0.110,-0.020
3225,-0.110,-0.025
3226,-0.115,-0.030
3227,-0.110,-0.025
3228,-0.115,-0.025
3229,-0.125,-0.030
3230,-0.060,0.005
3231,0.230,0.125
3232,0.720,0.290
3233,0.980,0.360
3234,0.750,0.300
3235,0.140,0.220
3236,-0.050,0.275
3237,-0.110,0.225
3238,-0.160,0.150
3239,-0.155,0.110
3240,-0.130,0.090
3241,-0.120,0.060
3242,-0.105,0.025
3243,-0.105,0.000
3244,-0.095,0.000
3245,-0.090,0.000
3246,-0.085,-0.005
3247,-0.085,-0.010
3248,-0.070,-0.005
3249,-0.065,0.000
3250,-0.055,0.000
3251,-0.050,0.000
3252,-0.040,0.005
3253,-0.030,0.010
3254,-0.015,0.005
3255,0.000,0.010
3256,0.000,0.010
3257,0.015,0.010
3258,0.040,0.020
3259,0.060,0.045
3260,0.075,0.055
3261,0.090,0.065
3262,0.095,0.080
3263,0.105,0.095
3264,0.110,0.110
3265,0.115,0.120
3266,0.105,0.115
3267,0.095,0.110
3268,0.080,0.100
3269,0.060,0.080
3270,0.035,0.060
3271,0.005,0.050
3272,0.000,0.040
3273,0.000,0.030
3274,-0.010,0.020
3275,-0.020,0.015
3276,-0.030,0.010
3277,-0.040,0.000
3278,-0.050,0.000
3279,-0.050,-0.005
3280,-0.040,-0.005
3281,-0.075,-0.010
3282,-0.075,-0.015
3283,-0.070,-0.010
3284,-0.065,-0.005
3285,-0.050,0.005
3286,-0.050,0.005
3287,-0.050,0.015
3288,-0.045,0.025
3289,-0.045,0.030
3290,-0.070,0.000
3291,-0.075,-0.005
3292,-0.070,0.000
3293,-0.055,0.005
3294,-0.055,0.005
3295,-0.070,-0.005
3296,-0.110,-0.025
3297,-0.120,-0.045
3298,-0.130,-0.050
3299,-0.130,-0.050
3300,-0.130,-0.050
3301,-0.135,-0.060
3302,-0.140,-0.065
3303,-0.135,-0.065
3304,-0.135,-0.065
3305,-0.130,-0.065
3306,-0.140,-0.070
3307,-0.140,-0.050
3308,0.000,0.010
3309,0.390,0.145
3310,0.835,0.285
3311,0.935,0.310
3312,0.545,0.235
3313,0.035,0.200
3314,-0.095,0.230
3315,-0.145,0.170
3316,-0.175,0.105
3317,-0.160,0.070
3318,-0.155,0.050
3319,-0.135,0.020
3320,-0.125,0.000
3321,-0.105,-0.020
3322,-0.100,-0.030
3323,-0.095,-0.035
3324,-0.090,-0.030
3325,-0.090,-0.030
3326,-0.090,-0.030
3327,-0.080,-0.030
3328,-0.080,-0.025
3329,-0.065,-0.025
3330,-0.060,-0.020
3331,-0.045,-0.020
3332,-0.025,-0.020
3333,-0.010,-0.015
3334,0.000,-0.005
3335,0.010,0.000
3336,0.030,0.000
3337,0.045,0.015
3338,0.065,0.030
3339,0.085,0.035
3340,0.090,0.050
3341,0.095,0.075
3342,0.105,0.085
3343,0.100,0.090
3344,0.095,0.090
3345,0.080,0.080
3346,0.060,0.065
3347,0.030,0.045
3348,0.005,0.030
3349,0.000,0.025
3350,0.000,0.020
3351,-0.015,0.005
3352,-0.030,0.000
3353,-0.035,-0.010
3354,-0.050,-0.010
3355,-0.055,-0.015
3356,-0.070,-0.025
3357,-0.070,-0.025
3358,-0.080,-0.025
3359,-0.080,-0.035
3360,-0.090,-0.030
3361,-0.085,-0.025
3362,-0.075,-0.010
3363,-0.075,-0.010
3364,-0.075,-0.010
3365,-0.070,0.000
3366,-0.065,0.000
3367,-0.070,0.000
3368,-0.085,-0.025
3369,-0.090,-0.025
3370,-0.070,-0.020
3371,-0.065,-0.020
3372,-0.065,-0.025
3373,-0.105,-0.055
3374,-0.130,-0.080
3375,-0.145,-0.080
3376,-0.150,-0.090
3377,-0.150,-0.085
3378,-0.145,-0.085
3379,-0.145,-0.080
3380,-0.140,-0.080
3381,-0.140,-0.080
3382,-0.145,-0.080
3383,-0.145,-0.085
3384,-0.160,-0.085
3385,-0.125,-0.060
3386,0.115,0.035
3387,0.630,0.180
3388,0.960,0.295
3389,0.820,0.280
3390,0.310,0.200
3391,-0.045,0.200
3392,-0.130,0.195
3393,-0.125,0.120
3394,-0.070,0.075
3395,-0.095,0.065
3396,-0.175,0.040
3397,-0.155,0.000
3398,-0.130,-0.030
3399,-0.115,-0.050
3400,-0.105,-0.050
3401,-0.105,-0.050
3402,-0.100,-0.050
3403,-0.100,-0.060
3404,-0.095,-0.050
3405,-0.090,-0.050
3406,-0.070,-0.050
3407,-0.015,-0.045
3408,0.105,-0.025
3409,0.105,-0.005
3410,0.030,0.005
3411,0.010,0.000
3412,0.030,0.000
3413,0.020,0.000
3414,0.010,0.000
3415,0.035,0.005
3416,0.065,0.010
3417,0.105,0.015
3418,0.260,0.045
3419,0.280,0.080
3420,0.165,0.110
3421,0.110,0.095
3422,0.180,0.080
3423,0.180,0.090
3424,0.190,0.065
3425,0.190,0.055
3426,0.150,0.050
3427,0.105,0.035
3428,0.015,0.035
3429,-0.045,0.015
3430,-0.050,-0.005
3431,-0.035,-0.010
3432,-0.050,-0.015
3433,-0.075,-0.030
3434,-0.080,-0.040
3435,-0.085,-0.035
3436,-0.080,-0.035
3437,-0.090,-0.040
3438,-0.050,-0.040
3439,0.035,-0.030
3440,0.085,-0.005
3441,0.025,0.005
3442,-0.030,0.000
3443,0.075,0.000
3444,0.085,0.010
3445,0.060,0.010
3446,0.010,0.000
3447,-0.075,0.000
3448,-0.115,-0.010
3449,-0.085,0.000
3450,-0.100,-0.035
3451,-0.120,-0.070
3452,-0.090,-0.090
3453,0.000,-0.075
3454,-0.145,-0.080
3455,-0.075,-0.070
3456,0.000,-0.080
3457,-0.115,-0.055
3458,-0.020,-0.080
3459,0.000,-0.075
3460,0.000,-0.070
3461,-0.100,-0.055
3462,-0.195,-0.055
3463,-0.065,-0.005
3464,0.355,0.120
3465,0.845,0.260
3466,0.965,0.285
3467,0.485,0.180
3468,0.035,0.175
3469,-0.110,0.190
3470,-0.170,0.130
3471,-0.195,0.070
3472,-0.180,0.040
3473,-0.085,0.015
3474,-0.005,0.000
3475,0.000,-0.010
3476,0.000,-0.020
3477,0.005,-0.020
3478,0.010,-0.025
3479,0.010,-0.025
3480,0.015,-0.030
3481,0.020,-0.030
3482,0.020,-0.030
3483,0.030,-0.030
3484,0.040,-0.025
3485,0.055,-0.015
3486,0.050,-0.015
3487,0.050,-0.010
3488,0.055,-0.005
3489,0.070,0.000
3490,0.085,0.000
3491,0.070,0.005
3492,0.010,0.005
3493,0.015,0.005
3494,0.050,0.015
3495,0.070,0.030
3496,0.105,0.035
3497,0.120,0.055
3498,0.195,0.070
3499,0.070,0.070
3500,0.140,0.050
3501,0.040,0.050
3502,0.090,0.005
3503,0.120,0.005
3504,0.135,0.010
3505,-0.010,0.010
3506,-0.005,-0.020
3507,0.075,-0.030
3508,0.075,-0.020
3509,-0.030,-0.020
3510,-0.075,-0.025
3511,-0.070,-0.045
3512,-0.055,-0.050
3513,0.005,-0.060
3514,0.000,-0.050
3515,-0.085,-0.050
3516,-0.090,-0.055
3517,-0.020,-0.040
3518,0.000,-0.030
3519,0.025,-0.025
3520,0.045,-0.015
3521,0.040,-0.005
3522,0.030,-0.010
3523,0.005,-0.030
3524,0.005,-0.040
3525,0.010,-0.030
3526,0.020,-0.015
3527,0.005,-0.025
3528,-0.045,-0.050
3529,-0.115,-0.075
3530,-0.125,-0.085
3531,-0.130,-0.100
3532,-0.035,-0.090
3533,-0.120,-0.085
3534,-0.170,-0.085
3535,-0.200,-0.100
3536,-0.190,-0.115
3537,-0.190,-0.120
3538,-0.190,-0.120
3539,-0.185,-0.125
3540,-0.055,-0.095
3541,0.200,0.020
3542,0.790,0.185
3543,1.010,0.290
3544,0.720,0.220
3545,0.080,0.160
3546,-0.095,0.195
3547,-0.195,0.125
3548,-0.235,0.045
3549,-0.220,0.010
3550,-0.195,0.000
3551,-0.190,-0.015
3552,-0.175,-0.050
3553,-0.155,-0.070
3554,-0.140,-0.080
3555,-0.125,-0.085
3556,-0.130,-0.090
3557,-0.130,-0.090
3558,-0.120,-0.085
3559,-0.110,-0.085
3560,-0.100,-0.085
3561,-0.095,-0.085
3562,-0.080,-0.080
3563,-0.070,-0.075
3564,-0.065,-0.075
3565,-0.045,-0.070
3566,-0.020,-0.065
3567,-0.005,-0.055
3568,0.000,-0.050
3569,0.015,-0.045
3570,0.035,-0.030
3571,0.050,-0.015
3572,0.060,-0.005
3573,0.080,0.000
3574,0.100,0.020
3575,0.120,0.040
3576,0.170,0.040
3577,0.055,0.035
3578,0.035,0.010
3579,0.015,0.000
3580,0.045,-0.010
3581,0.000,-0.010
3582,-0.040,-0.030
3583,-0.020,-0.045
3584,-0.045,-0.050
3585,-0.080,-0.055
3586,-0.090,-0.065
3587,-0.095,-0.070
3588,-0.095,-0.075
3589,-0.105,-0.090
3590,-0.115,-0.095
3591,-0.115,-0.090
3592,-0.110,-0.080
3593,-0.110,-0.075
3594,-0.060,-0.075
3595,-0.005,-0.070
3596,-0.035,-0.055
3597,0.000,-0.055
3598,-0.070,-0.045
3599,-0.160,-0.075
3600,-0.140,-0.085
3601,-0.115,-0.080
3602,-0.105,-0.070
3603,-0.115,-0.085
3604,-0.150,-0.110
3605,-0.185,-0.130
3606,-0.195,-0.135
3607,-0.195,-0.130
3608,-0.190,-0.130
3609,-0.190,-0.135
3610,-0.185,-0.135
3611,-0.185,-0.135
3612,-0.185,-0.140
3613,-0.185,-0.140
3614,-0.190,-0.140
3615,-0.195,-0.135
3616,-0.165,-0.120
3617,0.065,-0.040
3618,0.550,0.095
3619,0.960,0.215
3620,0.850,0.225
3621,0.215,0.165
3622,-0.120,0.175
3623,-0.200,0.125
3624,-0.250,0.030
3625,-0.245,0.000
3626,-0.210,-0.020
3627,-0.195,-0.035
3628,-0.170,-0.065
3629,-0.160,-0.085
3630,-0.145,-0.095
3631,-0.145,-0.100
3632,-0.130,-0.105
3633,-0.125,-0.105
3634,-0.120,-0.105
3635,-0.120,-0.105
3636,-0.100,-0.100
3637,-0.095,-0.095
3638,-0.095,-0.100
3639,-0.080,-0.100
3640,-0.065,-0.080
3641,-0.045,-0.075
3642,-0.020,-0.080
3643,-0.005,-0.075
3644,0.005,-0.060
3645,0.020,-0.050
3646,0.035,-0.050
3647,0.055,-0.040
3648,0.065,-0.020
3649,0.075,-0.005
3650,0.085,0.000
3651,0.085,0.010
3652,0.085,0.020
3653,0.070,0.020
3654,0.050,0.010
3655,0.025,0.000
3656,0.010,-0.010
3657,0.000,-0.020
3658,-0.010,-0.030
3659,-0.040,-0.050
3660,-0.050,-0.065
3661,-0.065,-0.070
3662,-0.075,-0.075
3663,-0.085,-0.085
3664,-0.095,-0.085
3665,-0.095,-0.085
3666,-0.095,-0.085
3667,-0.100,-0.080
3668,-0.095,-0.075
3669,-0.095,-0.065
3670,-0.095,-0.065
3671,-0.095,-0.065
3672,-0.095,-0.060
3673,-0.095,-0.050
3674,-0.100,-0.065
3675,-0.115,-0.095
3676,-0.110,-0.090
3677,-0.095,-0.075
3678,-0.095,-0.070
3679,-0.110,-0.085
3680,-0.145,-0.115
3681,-0.165,-0.125
3682,-0.175,-0.130
3683,-0.180,-0.130
3684,-0.180,-0.130
3685,-0.180,-0.130
3686,-0.170,-0.130
3687,-0.175,-0.130
3688,-0.180,-0.135
3689,-0.175,-0.130
3690,-0.175,-0.125
3691,-0.185,-0.125
3692,-0.155,-0.105
3693,0.070,-0.020
3694,0.550,0.120
3695,0.940,0.240
3696,0.825,0.240
3697,0.310,0.175
3698,-0.075,0.170
3699,-0.165,0.140
3700,-0.210,0.055
3701,-0.220,0.010
3702,-0.200,0.000
3703,-0.180,-0.015
3704,-0.165,-0.045
3705,-0.140,-0.060
3706,-0.125,-0.075
3707,-0.120,-0.075
3708,-0.120,-0.080
3709,-0.110,-0.080
3710,-0.105,-0.080
3711,-0.095,-0.085
3712,-0.095,-0.085
3713,-0.090,-0.080
3714,-0.090,-0.080
3715,-0.065,-0.070
3716,-0.050,-0.065
3717,-0.030,-0.065
3718,-0.010,-0.055
3719,0.000,-0.050
3720,0.000,-0.040
3721,0.020,-0.030
3722,0.040,-0.025
3723,0.060,-0.010
3724,0.075,0.005
3725,0.085,0.020
3726,0.090,0.035
3727,0.095,0.045
3728,0.095,0.050
3729,0.085,0.040
3730,0.070,0.030
3731,0.040,0.020
3732,0.010,0.005
3733,0.000,-0.005
3734,0.000,-0.015
3735,-0.010,-0.020
3736,-0.025,-0.025
3737,-0.040,-0.030
3738,-0.050,-0.040
3739,-0.060,-0.050
3740,-0.070,-0.050
3741,-0.080,-0.055
3742,-0.090,-0.065
3743,-0.095,-0.070
3744,-0.095,-0.075
3745,-0.095,-0.070
3746,-0.090,-0.060
3747,-0.085,-0.045
3748,-0.085,-0.040
3749,-0.085,-0.040
3750,-0.075,-0.035
3751,-0.080,-0.035
3752,-0.095,-0.045
3753,-0.100,-0.075
3754,-0.090,-0.065
3755,-0.080,-0.050
3756,-0.070,-0.045
3757,-0.095,-0.065
3758,-0.125,-0.095
3759,-0.155,-0.105
3760,-0.150,-0.110
3761,-0.150,-0.110
3762,-0.150,-0.110
3763,-0.150,-0.110
3764,-0.150,-0.115
3765,-0.155,-0.120
3766,-0.160,-0.120
3767,-0.155,-0.120
3768,-0.165,-0.120
3769,-0.155,-0.110
3770,0.020,-0.040
3771,0.470,0.100
3772,0.885,0.230
3773,0.900,0.240
3774,0.420,0.170
3775,-0.005,0.165
3776,-0.125,0.165
3777,-0.175,0.085
3778,-0.200,0.025
3779,-0.195,0.005
3780,-0.175,-0.005
3781,-0.160,-0.030
3782,-0.145,-0.060
3783,-0.130,-0.080
3784,-0.120,-0.085
3785,-0.115,-0.085
3786,-0.105,-0.085
3787,-0.100,-0.085
3788,-0.095,-0.085
3789,-0.095,-0.090
3790,-0.090,-0.085
3791,-0.085,-0.085
3792,-0.065,-0.080
3793,-0.060,-0.075
3794,-0.040,-0.075
3795,-0.020,-0.065
3796,0.000,-0.060
3797,0.005,-0.050
3798,0.010,-0.050
3799,0.035,-0.045
3800,0.055,-0.030
3801,0.070,-0.015
3802,0.075,-0.010
3803,0.085,0.010
3804,0.090,0.020
3805,0.095,0.030
3806,0.080,0.025
3807,0.070,0.015
3808,0.040,0.000
3809,0.025,0.000
3810,0.005,-0.015
3811,0.000,-0.035
3812,-0.020,-0.045
3813,-0.035,-0.055
3814,-0.055,-0.070
3815,-0.065,-0.075
3816,-0.080,-0.085
3817,-0.090,-0.090
3818,-0.095,-0.095
3819,-0.100,-0.100
3820,-0.110,-0.105
3821,-0.110,-0.100
3822,-0.110,-0.100
3823,-0.105,-0.095
3824,-0.095,-0.080
3825,-0.095,-0.075
3826,-0.095,-0.075
3827,-0.100,-0.080
3828,-0.100,-0.075
3829,-0.110,-0.085
3830,-0.125,-0.105
3831,-0.115,-0.105
3832,-0.105,-0.090
3833,-0.095,-0.085
3834,-0.115,-0.100
3835,-0.150,-0.135
3836,-0.185,-0.150
3837,-0.185,-0.150
3838,-0.185,-0.150
3839,-0.185,-0.150
3840,-0.190,-0.150
3841,-0.180,-0.150
3842,-0.185,-0.150
3843,-0.185,-0.150
3844,-0.180,-0.150
3845,-0.180,-0.155
3846,-0.205,-0.155
3847,-0.115,-0.115
3848,0.270,0.005
3849,0.805,0.150
3850,0.980,0.230
3851,0.550,0.175
3852,0.050,0.160
3853,-0.150,0.145
3854,-0.220,0.065
3855,-0.245,0.000
3856,-0.225,-0.015
3857,-0.205,-0.035
3858,-0.190,-0.060
3859,-0.170,-0.090
3860,-0.155,-0.115
3861,-0.150,-0.120
3862,-0.145,-0.120
3863,-0.135,-0.125
3864,-0.125,-0.120
3865,-0.115,-0.120
3866,-0.110,-0.120
3867,-0.105,-0.120
3868,-0.095,-0.120
3869,-0.080,-0.115
3870,-0.075,-0.110
3871,-0.055,-0.105
3872,-0.035,-0.095
3873,-0.015,-0.090
3874,0.000,-0.095
3875,0.005,-0.080
3876,0.020,-0.075
3877,0.035,-0.070
3878,0.055,-0.045
3879,0.060,-0.030
3880,0.080,-0.015
3881,0.085,0.000
3882,0.085,0.010
3883,0.080,0.010
3884,0.070,0.000
3885,0.040,0.000
3886,0.020,-0.015
3887,0.000,-0.040
3888,-0.010,-0.055
3889,-0.025,-0.065
3890,-0.040,-0.080
3891,-0.065,-0.085
3892,-0.080,-0.090
3893,-0.085,-0.095
3894,-0.090,-0.100
3895,-0.100,-0.105
3896,-0.115,-0.120
3897,-0.110,-0.120
3898,-0.110,-0.110
3899,-0.100,-0.100
3900,-0.100,-0.100
3901,-0.105,-0.100
3902,-0.105,-0.095
3903,-0.110,-0.095
3904,-0.115,-0.100
3905,-0.130,-0.110
3906,-0.140,-0.125
3907,-0.125,-0.115
3908,-0.115,-0.105
3909,-0.115,-0.100
3910,-0.135,-0.115
3911,-0.170,-0.145
3912,-0.180,-0.160
3913,-0.190,-0.160
3914,-0.190,-0.160
3915,-0.200,-0.160
3916,-0.190,-0.160
3917,-0.190,-0.170
3918,-0.190,-0.175
3919,-0.185,-0.165
3920,-0.185,-0.165
3921,-0.195,-0.170
3922,-0.205,-0.180
3923,-0.155,-0.140
3924,0.175,-0.040
3925,0.770,0.110
3926,1.015,0.220
3927,0.665,0.195
3928,0.015,0.135
3929,-0.170,0.135
3930,-0.225,0.055
3931,-0.250,-0.005
3932,-0.235,-0.030
3933,-0.200,-0.040
3934,-0.195,-0.075
3935,-0.170,-0.105
3936,-0.155,-0.115
3937,-0.140,-0.125
3938,-0.140,-0.130
3939,-0.135,-0.135
3940,-0.125,-0.130
3941,-0.115,-0.130
3942,-0.110,-0.130
3943,-0.100,-0.130
3944,-0.095,-0.125
3945,-0.085,-0.125
3946,-0.075,-0.125
3947,-0.055,-0.115
3948,-0.035,-0.110
3949,-0.015,-0.105
3950,0.000,-0.095
3951,0.010,-0.085
3952,0.025,-0.075
3953,0.040,-0.070
3954,0.055,-0.060
3955,0.070,-0.045
3956,0.075,-0.025
3957,0.085,0.000
3958,0.085,0.000
3959,0.080,0.000
3960,0.060,0.000
3961,0.035,-0.015
3962,0.010,-0.025
3963,0.000,-0.030
3964,-0.010,-0.055
3965,-0.025,-0.070
3966,-0.050,-0.085
3967,-0.060,-0.090
3968,-0.075,-0.100
3969,-0.075,-0.100
3970,-0.090,-0.100
3971,-0.095,-0.115
3972,-0.095,-0.115
3973,-0.100,-0.115
3974,-0.115,-0.120
3975,-0.105,-0.100
3976,-0.095,-0.085
3977,-0.095,-0.090
3978,-0.100,-0.095
3979,-0.100,-0.085
3980,-0.095,-0.085
3981,-0.100,-0.085
3982,-0.115,-0.105
3983,-0.120,-0.110
3984,-0.105,-0.105
3985,-0.095,-0.095
3986,-0.100,-0.100
3987,-0.130,-0.120
3988,-0.160,-0.145
3989,-0.175,-0.155
3990,-0.180,-0.155
3991,-0.180,-0.150
3992,-0.180,-0.150
3993,-0.180,-0.145
3994,-0.175,-0.140
3995,-0.170,-0.140
3996,-0.165,-0.140
3997,-0.160,-0.145
3998,-0.180,-0.150
3999,-0.165,-0.145
4000,0.010,-0.085
4001,0.460,0.055
4002,0.925,0.195
4003,0.910,0.235
4004,0.375,0.165
4005,-0.070,0.155
4006,-0.150,0.150
4007,-0.210,0.045
4008,-0.215,0.000
4009,-0.200,-0.025
4010,-0.175,-0.030
4011,-0.165,-0.060
4012,-0.135,-0.080
4013,-0.130,-0.090
4014,-0.120,-0.100
4015,-0.120,-0.105
4016,-0.110,-0.110
4017,-0.100,-0.110
4018,-0.095,-0.105
4019,-0.095,-0.105
4020,-0.075,-0.100
4021,-0.075,-0.100
4022,-0.060,-0.100
4023,-0.045,-0.085
4024,-0.030,-0.090
4025,-0.010,-0.085
4026,0.000,-0.080
4027,0.000,-0.080
4028,0.020,-0.070
4029,0.040,-0.055
4030,0.055,-0.045
4031,0.070,-0.025
4032,0.085,-0.010
4033,0.090,0.000
4034,0.115,0.015
4035,0.125,0.025
4036,0.095,0.020
4037,0.065,0.010
4038,0.050,0.000
4039,0.025,-0.010
4040,0.010,-0.025
4041,0.020,-0.050
4042,0.035,-0.050
4043,0.030,-0.050
4044,0.000,-0.055
4045,-0.015,-0.075
4046,-0.040,-0.080
4047,0.015,-0.085
4048,0.060,-0.070
4049,-0.030,-0.075
4050,0.035,-0.075
4051,0.000,-0.075
4052,0.005,-0.090
4053,0.000,-0.065
4054,-0.050,-0.070
4055,0.000,-0.060
4056,-0.070,-0.060
4057,-0.005,-0.060
4058,-0.030,-0.060
4059,0.000,-0.050
4060,0.000,-0.070
4061,0.030,-0.075
4062,0.045,-0.070
4063,0.060,-0.055
4064,0.045,-0.050
4065,-0.050,-0.050
4066,-0.155,-0.085
4067,-0.170,-0.115
4068,-0.160,-0.125
4069,-0.150,-0.130
4070,-0.150,-0.135
4071,-0.155,-0.135
4072,-0.150,-0.140
4073,-0.140,-0.150
4074,-0.135,-0.135
4075,-0.140,-0.125
4076,-0.155,-0.135
4077,-0.135,-0.125
4078,0.045,-0.060
4079,0.480,0.070
4080,0.900,0.215
4081,0.880,0.245
4082,0.425,0.165
4083,-0.025,0.140
4084,-0.115,0.140
4085,-0.165,0.070
4086,-0.195,0.010
4087,-0.180,-0.010
4088,-0.165,-0.030
4089,-0.145,-0.055
4090,-0.135,-0.085
4091,-0.110,-0.095
4092,-0.115,-0.100
4093,-0.105,-0.105
4094,-0.105,-0.115
4095,-0.100,-0.110
4096,-0.095,-0.110
4097,-0.085,-0.095
4098,-0.075,-0.095
4099,-0.070,-0.095
4100,-0.055,-0.085
4101,-0.040,-0.085
4102,-0.025,-0.085
4103,-0.010,-0.085
4104,0.000,-0.075
4105,0.005,-0.060
4106,0.025,-0.055
4107,0.035,-0.055
4108,0.055,-0.035
4109,0.070,-0.015
4110,0.085,0.000
4111,0.095,0.005
4112,0.100,0.030
4113,0.095,0.030
4114,0.090,0.025
4115,0.075,0.020
4116,0.055,0.005
4117,0.030,0.000
4118,0.010,-0.010
4119,0.000,-0.030
4120,-0.005,-0.045
4121,-0.025,-0.050
4122,-0.035,-0.060
4123,-0.040,-0.070
4124,-0.055,-0.075
4125,-0.060,-0.075
4126,-0.075,-0.080
4127,-0.085,-0.090
4128,-0.095,-0.085
4129,-0.095,-0.085
4130,-0.095,-0.100
4131,-0.085,-0.095
4132,-0.075,-0.090
4133,0.030,-0.080
4134,0.070,-0.045
4135,0.065,-0.035
4136,0.060,-0.025
4137,0.060,-0.025
4138,0.055,-0.025
4139,0.010,-0.040
4140,-0.065,-0.040
4141,-0.115,-0.055
4142,-0.095,-0.060
4143,-0.095,-0.065
4144,-0.105,-0.090
4145,-0.135,-0.120
4146,-0.145,-0.135
4147,-0.160,-0.135
4148,-0.155,-0.125
4149,-0.150,-0.125
4150,-0.145,-0.130
4151,-0.145,-0.135
4152,-0.150,-0.125
4153,-0.150,-0.130
4154,-0.160,-0.140
4155,-0.170,-0.140
4156,-0.085,-0.095
4157,0.235,0.005
4158,0.715,0.160
4159,0.970,0.250
4160,0.670,0.195
4161,0.150,0.135
4162,-0.090,0.150
4163,-0.140,0.115
4164,-0.180,0.045
4165,-0.185,0.010
4166,-0.170,-0.005
4167,-0.155,-0.020
4168,-0.135,-0.050
4169,-0.130,-0.080
4170,-0.115,-0.085
4171,-0.105,-0.095
4172,-0.095,-0.095
4173,-0.095,-0.095
4174,-0.095,-0.095
4175,-0.090,-0.090
4176,-0.080,-0.085
4177,-0.075,-0.080
4178,-0.065,-0.075
4179,-0.060,-0.080
4180,-0.035,-0.080
4181,-0.020,-0.075
4182,-0.005,-0.065
4183,0.000,-0.060
4184,0.010,-0.050
4185,0.035,-0.040
4186,0.045,-0.030
4187,0.060,-0.020
4188,0.075,0.000
4189,0.090,0.000
4190,0.095,0.020
4191,0.095,0.030
4192,0.090,0.030
4193,0.075,0.015
4194,0.045,0.000
4195,0.025,0.000
4196,0.005,-0.005
4197,0.000,-0.025
4198,-0.005,-0.030
4199,-0.020,-0.040
4200,-0.035,-0.055
4201,-0.050,-0.060
4202,-0.060,-0.060
4203,-0.070,-0.065
4204,-0.075,-0.080
4205,-0.080,-0.090
4206,-0.085,-0.080
4207,-0.095,-0.080
4208,-0.095,-0.080
4209,-0.095,-0.085
4210,-0.095,-0.080
4211,-0.095,-0.075
4212,-0.090,-0.065
4213,-0.085,-0.065
4214,-0.090,-0.055
4215,-0.075,-0.055
4216,-0.085,-0.055
4217,-0.095,-0.070
4218,-0.095,-0.085
4219,-0.085,-0.080
4220,-0.075,-0.075
4221,-0.075,-0.070
4222,-0.100,-0.095
4223,-0.135,-0.120
4224,-0.165,-0.135
4225,-0.160,-0.125
4226,-0.160,-0.125
4227,-0.160,-0.130
4228,-0.160,-0.135
4229,-0.155,-0.130
4230,-0.155,-0.130
4231,-0.160,-0.125
4232,-0.160,-0.125
4233,-0.175,-0.130
4234,-0.120,-0.095
4235,0.140,0.000
4236,0.640,0.150
4237,0.950,0.250
4238,0.760,0.205
4239,0.225,0.135
4240,-0.075,0.145
4241,-0.155,0.120
4242,-0.190,0.065
4243,-0.190,0.025
4244,-0.175,0.000
4245,-0.155,-0.010
4246,-0.145,-0.035
4247,-0.130,-0.065
4248,-0.115,-0.080
4249,-0.105,-0.090
4250,-0.100,-0.090
4251,-0.095,-0.085
4252,-0.095,-0.085
4253,-0.095,-0.090
4254,-0.090,-0.080
4255,-0.080,-0.080
4256,-0.070,-0.080
4257,-0.060,-0.080
4258,-0.045,-0.075
4259,-0.025,-0.070
4260,-0.005,-0.065
4261,0.000,-0.070
4262,0.005,-0.050
4263,0.025,-0.040
4264,0.050,-0.035
4265,0.060,-0.020
4266,0.080,0.000
4267,0.085,0.000
4268,0.090,0.020
4269,0.095,0.030
4270,0.095,0.035
4271,0.080,0.025
4272,0.060,0.005
4273,0.030,0.000
4274,0.015,-0.010
4275,0.000,-0.015
4276,-0.005,-0.035
4277,-0.025,-0.040
4278,-0.040,-0.045
4279,-0.050,-0.060
4280,-0.060,-0.070
4281,-0.070,-0.075
4282,-0.075,-0.070
4283,-0.085,-0.075
4284,-0.090,-0.080
4285,-0.095,-0.085
4286,-0.100,-0.090
4287,-0.095,-0.085
4288,-0.095,-0.080
4289,-0.090,-0.070
4290,-0.090,-0.070
4291,-0.085,-0.065
4292,-0.070,-0.055
4293,-0.065,-0.050
4294,-0.075,-0.060
4295,-0.095,-0.080
4296,-0.095,-0.095
4297,-0.085,-0.090
4298,-0.070,-0.075
4299,-0.080,-0.075
4300,-0.110,-0.105
4301,-0.135,-0.125
4302,-0.150,-0.140
4303,-0.150,-0.135
4304,-0.150,-0.130
4305,-0.155,-0.130
4306,-0.150,-0.140
4307,-0.150,-0.140
4308,-0.150,-0.135
4309,-0.150,-0.135
4310,-0.150,-0.135
4311,-0.165,-0.145
4312,-0.110,-0.105
4313,0.205,0.010
4314,0.740,0.170
4315,0.990,0.250
4316,0.700,0.180
4317,0.115,0.120
4318,-0.095,0.150
4319,-0.155,0.100
4320,-0.190,0.040
4321,-0.185,0.010
4322,-0.170,-0.005
4323,-0.150,-0.030
4324,-0.135,-0.060
4325,-0.120,-0.085
4326,-0.120,-0.100
4327,-0.115,-0.105
4328,-0.105,-0.105
4329,-0.095,-0.105
4330,-0.095,-0.100
4331,-0.090,-0.095
4332,-0.080,-0.095
4333,-0.075,-0.095
4334,-0.065,-0.090
4335,-0.055,-0.085
4336,-0.035,-0.075
4337,-0.010,-0.065
4338,0.000,-0.060
4339,0.000,-0.050
4340,0.015,-0.045
4341,0.040,-0.035
4342,0.055,-0.025
4343,0.075,-0.020
4344,0.085,0.000
4345,0.095,0.005
4346,0.095,0.025
4347,0.095,0.030
4348,0.095,0.030
4349,0.115,0.025
4350,0.095,0.015
4351,0.065,0.000
4352,0.050,-0.005
4353,0.040,-0.010
4354,0.015,-0.020
4355,0.000,-0.040
4356,0.000,-0.045
4357,0.000,-0.050
4358,-0.015,-0.060
4359,-0.020,-0.065
4360,-0.015,-0.065
4361,-0.015,-0.065
4362,-0.025,-0.065
4363,-0.055,-0.070
4364,-0.065,-0.075
4365,-0.060,-0.075
4366,-0.050,-0.065
4367,-0.045,-0.055
4368,-0.035,-0.050
4369,-0.005,-0.060
4370,0.025,-0.040
4371,0.000,-0.030
4372,-0.035,-0.050
4373,-0.035,-0.075
4374,0.010,-0.075
4375,0.065,-0.060
4376,0.070,-0.045
4377,0.035,-0.055
4378,0.005,-0.075
4379,0.000,-0.095
4380,0.000,-0.095
4381,0.000,-0.095
4382,0.000,-0.095
4383,-0.045,-0.090
4384,-0.140,-0.095
4385,-0.070,-0.120
4386,0.000,-0.105
4387,-0.025,-0.095
4388,-0.155,-0.095
4389,-0.200,-0.110
4390,-0.030,-0.055
4391,0.405,0.075
4392,0.925,0.230
4393,1.000,0.250
4394,0.525,0.135
4395,0.015,0.140
4396,-0.060,0.175
4397,-0.125,0.090
4398,-0.135,0.040
4399,-0.130,0.010
4400,-0.105,0.000
4401,-0.090,-0.025
4402,-0.060,-0.055
4403,-0.050,-0.070
4404,-0.025,-0.080
4405,0.000,-0.080
4406,0.025,-0.070
4407,0.025,-0.070
4408,0.025,-0.065
4409,0.025,-0.065
4410,0.035,-0.055
4411,0.050,-0.050
4412,0.040,-0.050
4413,0.050,-0.045
4414,0.020,-0.045
4415,0.035,-0.045
4416,0.080,-0.035
4417,0.065,-0.030
4418,0.045,-0.025
4419,0.025,-0.015
4420,0.040,-0.020
4421,0.055,-0.010
4422,0.105,0.000
4423,0.165,0.010
4424,0.110,0.035
4425,0.085,0.035
4426,0.065,0.025
4427,0.055,0.005
4428,0.130,-0.010
4429,0.195,-0.005
4430,0.150,-0.005
4431,0.115,-0.010
4432,0.090,-0.015
4433,0.055,-0.025
4434,0.075,-0.035
4435,0.060,-0.035
4436,0.030,-0.030
4437,0.010,-0.050
4438,0.020,-0.050
4439,0.015,-0.060
4440,-0.050,-0.050
4441,-0.105,-0.075
4442,-0.080,-0.080
4443,-0.085,-0.080
4444,-0.030,-0.080
4445,0.000,-0.055
4446,-0.075,-0.050
4447,-0.085,-0.045
4448,-0.090,-0.050
4449,0.010,-0.070
4450,0.040,-0.075
4451,0.030,-0.070
4452,0.025,-0.060
4453,0.030,-0.050
4454,0.025,-0.050
4455,0.005,-0.070
4456,-0.010,-0.090
4457,-0.035,-0.095
4458,-0.050,-0.105
4459,-0.050,-0.105
4460,-0.050,-0.105
4461,-0.060,-0.110
4462,-0.070,-0.110
4463,-0.075,-0.110
4464,-0.065,-0.110
4465,-0.070,-0.115
4466,-0.090,-0.115
4467,-0.040,-0.075
4468,0.280,0.035
4469,0.765,0.185
4470,0.995,0.250
4471,0.780,0.190
4472,0.220,0.120
4473,0.015,0.175
4474,-0.035,0.125
4475,-0.140,0.060
4476,-0.145,0.015
4477,-0.035,0.000
4478,-0.045,-0.010
4479,-0.180,-0.040
4480,-0.035,-0.095
4481,-0.030,-0.075
4482,-0.155,-0.080
4483,-0.150,-0.090
4484,-0.130,-0.095
4485,-0.120,-0.100
4486,-0.110,-0.105
4487,-0.100,-0.110
4488,-0.095,-0.105
4489,-0.095,-0.105
4490,-0.080,-0.105
4491,-0.065,-0.100
4492,-0.050,-0.100
4493,-0.035,-0.085
4494,-0.005,-0.075
4495,0.000,-0.065
4496,0.010,-0.055
4497,0.035,-0.045
4498,0.045,-0.030
4499,0.055,-0.015
4500,0.070,0.000
4501,0.080,0.005
4502,0.085,0.010
4503,0.070,0.005
4504,0.050,0.000
4505,0.030,-0.005
4506,0.005,-0.020
4507,0.000,-0.030
4508,-0.010,-0.045
4509,-0.025,-0.055
4510,-0.045,-0.065
4511,-0.060,-0.075
4512,-0.070,-0.085
4513,-0.080,-0.085
4514,-0.085,-0.085
4515,-0.095,-0.100
4516,-0.100,-0.100
4517,-0.105,-0.105
4518,-0.105,-0.100
4519,-0.115,-0.095
4520,-0.105,-0.095
4521,-0.100,-0.090
4522,-0.095,-0.080
4523,-0.100,-0.080
4524,-0.095,-0.075
4525,-0.095,-0.075
4526,-0.090,-0.070
4527,-0.105,-0.090
4528,-0.105,-0.100
4529,-0.105,-0.105
4530,-0.090,-0.090
4531,-0.100,-0.095
4532,-0.120,-0.115
4533,-0.155,-0.135
4534,-0.170,-0.140
4535,-0.175,-0.145
4536,-0.165,-0.150
4537,-0.165,-0.150
4538,-0.165,-0.150
4539,-0.165,-0.150
4540,-0.165,-0.150
4541,-0.165,-0.150
4542,-0.175,-0.155
4543,-0.185,-0.150
4544,-0.130,-0.125
4545,0.125,-0.025
4546,0.600,0.120
4547,0.945,0.210
4548,0.765,0.170
4549,0.235,0.095
4550,-0.095,0.115
4551,-0.160,0.105
4552,-0.200,0.040
4553,-0.210,0.000
4554,-0.195,-0.015
4555,-0.185,-0.035
4556,-0.165,-0.070
4557,-0.145,-0.100
4558,-0.125,-0.115
4559,-0.120,-0.120
4560,-0.115,-0.125
4561,-0.110,-0.120
4562,-0.100,-0.115
4563,-0.100,-0.120
4564,-0.095,-0.120
4565,-0.090,-0.120
4566,-0.085,-0.120
4567,-0.075,-0.115
4568,-0.065,-0.110
4569,-0.040,-0.105
4570,-0.015,-0.100
4571,0.000,-0.095
4572,0.000,-0.080
4573,0.015,-0.070
4574,0.030,-0.060
4575,0.050,-0.045
4576,0.055,-0.040
4577,0.075,-0.020
4578,0.085,0.000
4579,0.085,0.000
4580,0.080,0.000
4581,0.070,0.000
4582,0.045,-0.005
4583,0.030,-0.020
4584,0.010,-0.030
4585,0.000,-0.040
4586,-0.010,-0.055
4587,-0.020,-0.065
4588,-0.040,-0.075
4589,-0.055,-0.085
4590,-0.065,-0.095
4591,-0.070,-0.095
4592,-0.075,-0.095
4593,-0.085,-0.105
4594,-0.095,-0.115
4595,-0.095,-0.110
4596,-0.095,-0.105
4597,-0.100,-0.105
4598,-0.100,-0.100
4599,-0.085,-0.090
4600,-0.090,-0.075
4601,-0.090,-0.075
4602,-0.085,-0.070
4603,-0.070,-0.070
4604,-0.090,-0.090
4605,-0.095,-0.110
4606,-0.090,-0.105
4607,-0.080,-0.095
4608,-0.080,-0.095
4609,-0.105,-0.120
4610,-0.150,-0.145
4611,-0.160,-0.150
4612,-0.165,-0.155
4613,-0.165,-0.160
4614,-0.165,-0.160
4615,-0.170,-0.160
4616,-0.160,-0.160
4617,-0.160,-0.155
4618,-0.155,-0.150
4619,-0.155,-0.150
4620,-0.170,-0.155
4621,-0.145,-0.125
4622,0.080,-0.040
4623,0.555,0.105
4624,0.920,0.205
4625,0.830,0.180
4626,0.310,0.105
4627,-0.045,0.115
4628,-0.135,0.110
4629,-0.185,0.045
4630,-0.195,0.000
4631,-0.185,-0.015
4632,-0.165,-0.040
4633,-0.155,-0.070
4634,-0.145,-0.100
4635,-0.125,-0.110
4636,-0.110,-0.110
4637,-0.105,-0.110
4638,-0.105,-0.110
4639,-0.095,-0.110
4640,-0.095,-0.110
4641,-0.095,-0.110
4642,-0.090,-0.105
4643,-0.075,-0.100
4644,-0.060,-0.095
4645,-0.055,-0.100
4646,-0.040,-0.095
4647,-0.015,-0.090
4648,0.000,-0.080
4649,0.000,-0.070
4650,0.020,-0.065
4651,0.035,-0.050
4652,0.060,-0.040
4653,0.065,-0.030
4654,0.075,-0.010
4655,0.085,0.000
4656,0.090,0.010
4657,0.095,0.015
4658,0.080,0.005
4659,0.055,0.000
4660,0.035,-0.010
4661,0.015,-0.025
4662,0.000,-0.040
4663,-0.005,-0.050
4664,-0.015,-0.060
4665,-0.030,-0.070
4666,-0.045,-0.080
4667,-0.055,-0.085
4668,-0.065,-0.085
4669,-0.070,-0.085
4670,-0.075,-0.095
4671,-0.085,-0.100
4672,-0.095,-0.105
4673,-0.095,-0.100
4674,-0.095,-0.095
4675,-0.090,-0.085
4676,-0.085,-0.075
4677,-0.080,-0.075
4678,-0.075,-0.070
4679,-0.075,-0.065
4680,-0.070,-0.065
4681,-0.085,-0.085
4682,-0.095,-0.100
4683,-0.090,-0.095
4684,-0.075,-0.080
4685,-0.075,-0.080
4686,-0.100,-0.110
4687,-0.135,-0.135
4688,-0.150,-0.140
4689,-0.155,-0.140
4690,-0.155,-0.140
4691,-0.155,-0.140
4692,-0.155,-0.140
4693,-0.155,-0.140
4694,-0.155,-0.140
4695,-0.155,-0.145
4696,-0.155,-0.150
4697,-0.165,-0.150
4698,-0.150,-0.120
4699,0.100,-0.030
4700,0.615,0.125
4701,0.960,0.230
4702,0.835,0.190
4703,0.230,0.100
4704,-0.060,0.135
4705,-0.140,0.115
4706,-0.185,0.050
4707,-0.195,0.005
4708,-0.190,-0.020
4709,-0.165,-0.035
4710,-0.145,-0.060
4711,-0.130,-0.085
4712,-0.120,-0.100
4713,-0.105,-0.100
4714,-0.100,-0.100
4715,-0.095,-0.100
4716,-0.095,-0.100
4717,-0.095,-0.100
4718,-0.085,-0.095
4719,-0.080,-0.095
4720,-0.070,-0.095
4721,-0.060,-0.090
4722,-0.040,-0.080
4723,-0.025,-0.080
4724,-0.010,-0.075
4725,0.000,-0.070
4726,0.005,-0.055
4727,0.025,-0.050
4728,0.040,-0.040
4729,0.060,-0.030
4730,0.075,-0.010
4731,0.095,0.000
4732,0.095,0.010
4733,0.090,0.030
4734,0.090,0.025
4735,0.090,0.020
4736,0.060,0.005
4737,0.045,0.000
4738,0.015,-0.010
4739,0.000,-0.025
4740,-0.005,-0.040
4741,-0.015,-0.045
4742,-0.025,-0.050
4743,-0.040,-0.060
4744,-0.045,-0.070
4745,-0.060,-0.075
4746,-0.070,-0.090
4747,-0.075,-0.095
4748,-0.080,-0.095
4749,-0.090,-0.100
4750,-0.095,-0.090
4751,-0.085,-0.080
4752,-0.085,-0.075
4753,-0.080,-0.070
4754,-0.075,-0.070
4755,-0.070,-0.060
4756,-0.070,-0.060
4757,-0.075,-0.070
4758,-0.085,-0.085
4759,-0.085,-0.095
4760,-0.075,-0.090
4761,-0.070,-0.080
4762,-0.075,-0.080
4763,-0.105,-0.105
4764,-0.135,-0.130
4765,-0.150,-0.135
4766,-0.155,-0.135
4767,-0.155,-0.140
4768,-0.155,-0.140
4769,-0.160,-0.145
4770,-0.155,-0.140
4771,-0.150,-0.135
4772,-0.150,-0.135
4773,-0.155,-0.140
4774,-0.165,-0.135
4775,-0.125,-0.100
4776,0.170,0.005
4777,0.720,0.160
4778,1.015,0.255
4779,0.805,0.175
4780,0.110,0.100
4781,-0.085,0.160
4782,-0.150,0.105
4783,-0.195,0.040
4784,-0.190,0.000
4785,-0.190,-0.020
4786,-0.165,-0.040
4787,-0.145,-0.065
4788,-0.130,-0.085
4789,-0.120,-0.100
4790,-0.110,-0.105
4791,-0.110,-0.105
4792,-0.100,-0.105
4793,-0.095,-0.105
4794,-0.085,-0.100
4795,-0.080,-0.100
4796,-0.075,-0.095
4797,-0.065,-0.095
4798,-0.050,-0.090
4799,-0.035,-0.085
4800,-0.020,-0.080
4801,-0.005,-0.075
4802,0.000,-0.070
4803,0.015,-0.060
4804,0.040,-0.045
4805,0.060,-0.040
4806,0.070,-0.030
4807,0.080,-0.015
4808,0.095,0.000
4809,0.095,0.010
4810,0.095,0.020
4811,0.095,0.025
4812,0.085,0.020
4813,0.065,0.000
4814,0.045,0.000
4815,0.020,-0.020
4816,0.000,-0.030
4817,0.000,-0.040
4818,-0.015,-0.050
4819,-0.030,-0.060
4820,-0.045,-0.070
4821,-0.055,-0.070
4822,-0.060,-0.075
4823,-0.070,-0.090
4824,-0.075,-0.090
4825,-0.080,-0.090
4826,-0.090,-0.095
4827,-0.085,-0.090
4828,-0.085,-0.085
4829,-0.085,-0.075
4830,-0.090,-0.075
4831,-0.085,-0.080
4832,-0.085,-0.075
4833,-0.085,-0.075
4834,-0.100,-0.090
4835,-0.100,-0.100
4836,-0.095,-0.100
4837,-0.085,-0.090
4838,-0.090,-0.090
4839,-0.110,-0.115
4840,-0.140,-0.135
4841,-0.155,-0.140
4842,-0.165,-0.140
4843,-0.170,-0.140
4844,-0.165,-0.140
4845,-0.160,-0.145
4846,-0.160,-0.145
4847,-0.165,-0.150
4848,-0.165,-0.145
4849,-0.165,-0.145
4850,-0.175,-0.150
4851,-0.150,-0.125
4852,0.085,-0.050
4853,0.570,0.090
4854,0.970,0.200
4855,0.855,0.215
4856,0.265,0.150
4857,-0.090,0.165
4858,-0.170,0.125
4859,-0.215,0.025
4860,-0.225,-0.010
4861,-0.195,-0.025
4862,-0.175,-0.040
4863,-0.160,-0.080
4864,-0.155,-0.100
4865,-0.135,-0.110
4866,-0.125,-0.115
4867,-0.115,-0.120
4868,-0.110,-0.120
4869,-0.105,-0.120
4870,-0.100,-0.120
4871,-0.095,-0.120
4872,-0.095,-0.110
4873,-0.075,-0.100
4874,-0.065,-0.100
4875,-0.050,-0.100
4876,-0.030,-0.095
4877,-0.010,-0.085
4878,0.000,-0.085
4879,0.010,-0.080
4880,0.025,-0.075
4881,0.050,-0.060
4882,0.070,-0.045
4883,0.085,-0.035
4884,0.090,-0.020
4885,0.095,-0.005
4886,0.095,0.000
4887,0.090,0.005
4888,0.075,0.000
4889,0.055,-0.005
4890,0.040,-0.010
4891,0.020,-0.020
4892,0.000,-0.040
4893,0.000,-0.045
4894,-0.015,-0.055
4895,-0.035,-0.070
4896,-0.050,-0.080
4897,-0.055,-0.085
4898,-0.065,-0.095
4899,-0.080,-0.105
4900,-0.095,-0.105
4901,-0.095,-0.105
4902,-0.095,-0.100
4903,-0.095,-0.095
4904,-0.095,-0.090
4905,-0.095,-0.080
4906,-0.095,-0.080
4907,-0.095,-0.080
4908,-0.090,-0.080
4909,-0.095,-0.080
4910,-0.100,-0.105
4911,-0.105,-0.105
4912,-0.095,-0.100
4913,-0.095,-0.085
4914,-0.100,-0.100
4915,-0.145,-0.130
4916,-0.165,-0.145
4917,-0.175,-0.150
4918,-0.175,-0.150
4919,-0.165,-0.150
4920,-0.165,-0.150
4921,-0.170,-0.155
4922,-0.170,-0.155
4923,-0.165,-0.150
4924,-0.170,-0.150
4925,-0.180,-0.155
4926,-0.185,-0.145
4927,-0.065,-0.095
4928,0.320,0.010
4929,0.795,0.155
4930,0.960,0.230
4931,0.585,0.195
4932,0.040,0.145
4933,-0.155,0.130
4934,-0.210,0.055
4935,-0.230,0.000
4936,-0.210,-0.020
4937,-0.190,-0.040
4938,-0.170,-0.055
4939,-0.150,-0.085
4940,-0.130,-0.110
4941,-0.120,-0.120
4942,-0.105,-0.115
4943,-0.100,-0.110
4944,-0.095,-0.115
4945,-0.095,-0.110
4946,-0.090,-0.110
4947,-0.080,-0.105
4948,-0.070,-0.105
4949,-0.065,-0.105
4950,-0.045,-0.100
4951,-0.025,-0.095
4952,-0.010,-0.095
4953,0.000,-0.080
4954,0.010,-0.075
4955,0.035,-0.070
4956,0.050,-0.065
4957,0.065,-0.055
4958,0.080,-0.040
4959,0.090,-0.020
4960,0.095,-0.005
4961,0.100,0.005
4962,0.100,0.010
4963,0.095,0.010
4964,0.085,0.005
4965,0.070,0.000
4966,0.040,-0.005
4967,0.010,-0.025
4968,0.000,-0.045
4969,-0.005,-0.055
4970,-0.020,-0.070
4971,-0.030,-0.075
4972,-0.045,-0.075
4973,-0.055,-0.085
4974,-0.070,-0.090
4975,-0.080,-0.090
4976,-0.085,-0.090
4977,-0.085,-0.100
4978,-0.095,-0.105
4979,-0.095,-0.095
4980,-0.090,-0.085
4981,-0.080,-0.075
4982,-0.085,-0.075
4983,-0.080,-0.070
4984,-0.075,-0.065
4985,-0.075,-0.070
4986,-0.095,-0.090
4987,-0.095,-0.095
4988,-0.090,-0.090
4989,-0.075,-0.075
4990,-0.085,-0.080
4991,-0.110,-0.105
4992,-0.150,-0.140
4993,-0.150,-0.140
4994,-0.155,-0.130
4995,-0.155,-0.130
4996,-0.155,-0.135
4997,-0.155,-0.135
4998,-0.155,-0.135
4999,-0.140,-0.125
5000,-0.140,-0.125
5001,-0.150,-0.130
5002,-0.170,-0.135
5003,-0.090,-0.100
5004,0.260,0.015
5005,0.775,0.180
5006,0.990,0.265
5007,0.660,0.210
5008,0.145,0.160
5009,-0.090,0.160
5010,-0.155,0.105
5011,-0.190,0.035
5012,-0.190,0.000
5013,-0.170,-0.010
5014,-0.145,-0.025
5015,-0.125,-0.055
5016,-0.110,-0.080
5017,-0.095,-0.095
5018,-0.095,-0.095
5019,-0.095,-0.095
5020,-0.090,-0.085
5021,-0.080,-0.085
5022,-0.080,-0.080
5023,-0.075,-0.080
5024,-0.060,-0.080
5025,-0.045,-0.075
5026,-0.035,-0.070
5027,-0.015,-0.065
5028,-0.010,-0.070
5029,0.000,-0.050
5030,0.010,-0.045
5031,0.030,-0.040
5032,0.055,-0.025
5033,0.075,-0.020
5034,0.220,-0.010
5035,0.260,0.000
5036,0.240,0.040
5037,0.170,0.065
5038,0.135,0.050
5039,0.180,0.055
5040,0.125,0.050
5041,0.190,0.050
5042,0.055,0.035
5043,0.000,0.010
5044,0.000,-0.005
5045,0.000,-0.015
5046,-0.005,-0.025
5047,-0.020,-0.040
5048,-0.025,-0.050
5049,-0.040,-0.055
5050,-0.055,-0.060
5051,-0.065,-0.065
5052,-0.070,-0.070
5053,-0.075,-0.075
5054,-0.085,-0.075
5055,-0.090,-0.075
5056,-0.085,-0.070
5057,-0.080,-0.060
5058,-0.075,-0.050
5059,-0.075,-0.050
5060,-0.070,-0.045
5061,-0.065,-0.040
5062,-0.070,-0.040
5063,-0.085,-0.060
5064,-0.090,-0.075
5065,-0.080,-0.065
5066,-0.070,-0.050
5067,-0.075,-0.055
5068,-0.100,-0.080
5069,-0.130,-0.105
5070,-0.145,-0.110
5071,-0.150,-0.115
5072,-0.150,-0.120
5073,-0.150,-0.115
5074,-0.140,-0.105
5075,-0.140,-0.105
5076,-0.140,-0.105
5077,-0.140,-0.105
5078,-0.140,-0.105
5079,-0.160,-0.115
5080,-0.105,-0.095
5081,0.210,0.010
5082,0.765,0.195
5083,0.995,0.285
5084,0.725,0.220
5085,0.130,0.150
5086,-0.080,0.190
5087,-0.145,0.135
5088,-0.190,0.065
5089,-0.185,0.025
5090,-0.170,0.010
5091,-0.150,-0.005
5092,-0.135,-0.040
5093,-0.115,-0.060
5094,-0.110,-0.065
5095,-0.100,-0.070
5096,-0.095,-0.075
5097,-0.095,-0.080
5098,-0.080,-0.080
5099,-0.070,-0.075
5100,-0.050,-0.070
5101,-0.020,-0.060
5102,-0.010,-0.055
5103,0.000,-0.050
5104,0.030,-0.035
5105,0.035,-0.030
5106,0.030,-0.030
5107,0.045,-0.025
5108,0.065,0.000
5109,0.075,-0.010
5110,0.055,0.000
5111,0.135,0.000
5112,0.170,0.010
5113,0.135,0.055
5114,0.075,0.065
5115,0.090,0.060
5116,0.090,0.055
5117,0.085,0.045
5118,0.060,0.035
5119,0.045,0.020
5120,0.020,0.005
5121,0.005,-0.010
5122,0.000,-0.010
5123,-0.005,-0.015
5124,0.035,-0.020
5125,-0.020,-0.025
5126,-0.015,-0.040
5127,-0.060,-0.040
5128,-0.070,-0.045
5129,-0.035,-0.050
5130,-0.070,-0.055
5131,-0.085,-0.055
5132,-0.090,-0.060
5133,-0.095,-0.055
5134,-0.050,-0.050
5135,-0.045,-0.030
5136,-0.030,-0.025
5137,-0.030,-0.015
5138,-0.060,-0.015
5139,-0.085,-0.025
5140,-0.090,-0.040
5141,-0.095,-0.060
5142,-0.085,-0.060
5143,-0.080,-0.055
5144,-0.080,-0.055
5145,-0.100,-0.065
5146,-0.130,-0.090
5147,-0.145,-0.100
5148,-0.155,-0.100
5149,-0.155,-0.100
5150,-0.150,-0.100
5151,-0.145,-0.095
5152,-0.145,-0.095
5153,-0.145,-0.100
5154,-0.145,-0.095
5155,-0.145,-0.095
5156,-0.165,-0.110
5157,-0.130,-0.070
5158,0.120,0.010
5159,0.640,0.180
5160,1.000,0.295
5161,0.910,0.250
5162,0.345,0.130
5163,0.060,0.225
5164,0.000,0.215
5165,-0.055,0.120
5166,-0.055,0.080
5167,-0.035,0.060
5168,-0.020,0.050
5169,-0.125,0.025
5170,-0.150,-0.005
5171,-0.130,-0.035
5172,-0.020,-0.050
5173,0.000,-0.030
5174,-0.085,-0.035
5175,-0.105,-0.040
5176,-0.090,-0.040
5177,-0.085,-0.045
5178,-0.075,-0.045
5179,-0.065,-0.040
5180,-0.050,-0.030
5181,-0.035,-0.025
5182,-0.020,-0.025
5183,-0.005,-0.025
5184,0.000,-0.025
5185,0.010,-0.015
5186,0.050,-0.005
5187,0.150,0.000
5188,0.220,0.020
5189,0.190,0.055
5190,0.180,0.080
5191,0.175,0.090
5192,0.160,0.095
5193,0.155,0.105
5194,0.215,0.100
5195,0.200,0.090
5196,0.110,0.085
5197,0.000,0.055
5198,0.000,0.025
5199,-0.010,0.005
5200,-0.020,0.000
5201,-0.030,0.000
5202,-0.040,-0.010
5203,-0.025,-0.020
5204,0.085,-0.010
5205,0.000,0.000
5206,-0.065,-0.010
5207,-0.100,-0.020
5208,-0.065,-0.025
5209,0.020,-0.030
5210,0.045,-0.010
5211,0.035,0.000
5212,0.035,0.020
5213,0.035,0.025
5214,0.035,0.030
5215,0.035,0.035
5216,0.040,0.035
5217,0.025,0.020
5218,0.015,0.005
5219,0.025,0.005
5220,0.035,0.015
5221,0.040,0.015
5222,0.015,0.000
5223,-0.005,-0.015
5224,-0.020,-0.030
5225,-0.030,-0.025
5226,-0.025,-0.025
5227,-0.025,-0.030
5228,-0.025,-0.035
5229,-0.025,-0.035
5230,-0.020,-0.030
5231,-0.020,-0.030
5232,-0.025,-0.030
5233,-0.035,-0.025
5234,-0.020,-0.010
5235,0.125,0.070
5236,0.490,0.215
5237,0.950,0.315
5238,0.915,0.325
5239,0.455,0.230
5240,-0.005,0.245
5241,-0.100,0.250
5242,-0.140,0.165
5243,-0.140,0.120
5244,-0.130,0.090
5245,-0.110,0.060
5246,-0.095,0.025
5247,-0.085,0.000
5248,-0.085,0.000
5249,-0.070,0.000
5250,-0.070,-0.005
5251,-0.060,-0.010
5252,-0.060,-0.010
5253,-0.055,-0.020
5254,-0.045,0.000
5255,-0.030,0.000
5256,-0.060,0.000
5257,-0.070,0.000
5258,-0.055,0.000
5259,-0.035,0.000
5260,-0.015,0.005
5261,0.000,0.005
5262,0.005,0.015
5263,0.015,0.020
5264,0.035,0.030
5265,0.050,0.040
5266,0.070,0.060
5267,0.080,0.080
5268,0.095,0.085
5269,0.100,0.100
5270,0.090,0.115
5271,0.075,0.110
5272,0.055,0.095
5273,0.030,0.065
5274,0.010,0.055
5275,0.000,0.055
5276,-0.005,0.040
5277,-0.015,0.025
5278,-0.030,0.025
5279,-0.040,0.015
5280,-0.050,0.005
5281,-0.045,-0.005
5282,-0.030,0.005
5283,-0.025,0.005
5284,-0.020,0.000
5285,-0.020,-0.005
5286,-0.020,0.010
5287,-0.030,0.010
5288,-0.025,0.010
5289,-0.020,0.020
5290,-0.015,0.030
5291,-0.010,0.030
5292,-0.005,0.050
5293,-0.010,0.055
5294,-0.020,0.025
5295,-0.035,0.000
5296,-0.025,0.005
5297,-0.010,0.000
5298,-0.015,0.020
5299,-0.080,0.020
5300,-0.140,-0.015
5301,-0.170,-0.035
5302,-0.165,-0.035
5303,-0.165,-0.045
5304,-0.100,-0.050
5305,-0.030,-0.030
5306,0.000,-0.020
5307,-0.110,-0.015
5308,-0.110,-0.035
5309,-0.030,-0.075
5310,-0.005,-0.045
5311,0.000,0.010
5312,0.140,0.085
5313,0.550,0.225
5314,0.925,0.365
5315,0.950,0.350
5316,0.590,0.265
5317,0.120,0.280
5318,0.000,0.290
5319,-0.030,0.230
5320,-0.090,0.165
5321,-0.175,0.085
5322,-0.205,0.070
5323,-0.175,0.090
5324,-0.145,0.060
5325,-0.135,0.015
5326,-0.120,-0.005
5327,-0.115,-0.025
5328,-0.080,-0.035
5329,0.065,0.000
5330,0.055,0.015
5331,0.045,0.025
5332,0.050,0.015
5333,0.055,0.025
5334,0.060,0.030
5335,0.075,0.035
5336,0.090,0.010
5337,0.095,0.080
5338,0.125,0.070
5339,0.145,0.075
5340,0.160,0.060
5341,0.180,0.035
5342,0.195,0.055
5343,0.210,0.095
5344,0.215,0.105
5345,0.225,0.150
5346,0.230,0.155
5347,0.230,0.165
5348,0.215,0.140
5349,0.195,0.100
5350,0.165,0.105
5351,0.145,0.100
5352,0.130,0.070
5353,0.110,0.055
5354,0.095,0.080
5355,0.075,0.090
5356,-0.015,0.050
5357,-0.095,0.005
5358,-0.090,0.000
5359,-0.090,0.000
5360,-0.045,-0.025
5361,0.040,-0.010
5362,0.065,-0.010
5363,0.025,-0.020
5364,-0.045,0.000
5365,-0.135,-0.025
5366,-0.070,0.065
5367,0.005,0.045
5368,-0.080,-0.020
5369,-0.070,0.000
5370,-0.050,0.025
5371,-0.100,0.015
5372,-0.100,0.030
5373,-0.080,-0.020
5374,-0.075,-0.030
5375,-0.055,0.000
5376,-0.085,-0.040
5377,-0.105,-0.010
5378,-0.140,-0.085
5379,-0.165,-0.070
5380,-0.180,-0.085
5381,-0.160,-0.050
5382,-0.175,-0.050
5383,-0.170,-0.090
5384,-0.165,-0.085
5385,-0.150,-0.085
5386,-0.160,-0.080
5387,-0.170,-0.090
5388,-0.185,-0.030
5389,-0.020,0.000
5390,0.425,0.090
5391,0.865,0.255
5392,1.015,0.315
5393,0.700,0.220
5394,0.230,0.205
5395,0.015,0.255
5396,-0.030,0.220
5397,-0.060,0.140
5398,-0.060,0.075
5399,-0.045,0.055
5400,-0.025,0.055
5401,-0.005,0.030
5402,0.000,0.005
5403,0.000,-0.020
5404,0.000,-0.025
5405,0.005,0.010
5406,0.010,0.000
5407,0.010,-0.030
5408,0.010,-0.040
5409,0.025,-0.010
5410,0.030,-0.010
5411,0.035,-0.015
5412,0.050,0.005
5413,0.070,0.045
5414,0.085,-0.025
5415,0.100,0.000
5416,0.115,0.020
5417,0.140,0.020
5418,0.170,0.010
5419,0.175,0.015
5420,0.190,0.035
5421,0.195,0.050
5422,0.210,0.110
5423,0.210,0.080
5424,0.210,0.105
5425,0.130,0.130
5426,0.025,0.075
5427,0.055,0.060
5428,0.155,0.030
5429,0.155,0.020
5430,0.125,0.030
5431,0.000,0.065
5432,-0.010,0.010
5433,0.005,0.000
5434,-0.065,0.000
5435,-0.100,-0.015
5436,-0.095,-0.020
5437,-0.100,-0.035
5438,-0.105,-0.045
5439,-0.115,-0.040
5440,-0.120,-0.050
5441,-0.110,-0.065
5442,-0.105,-0.045
5443,-0.110,-0.030
5444,-0.105,-0.025
5445,-0.050,0.000
5446,0.005,-0.010
5447,-0.065,0.000
5448,-0.140,0.000
5449,-0.145,-0.020
5450,-0.130,-0.025
5451,-0.115,-0.045
5452,-0.105,-0.050
5453,-0.120,-0.030
5454,-0.110,-0.050
5455,-0.160,-0.060
5456,-0.200,-0.075
5457,-0.195,-0.080
5458,-0.190,-0.095
5459,-0.195,-0.125
5460,-0.195,-0.135
5461,-0.200,-0.045
5462,-0.200,-0.045
5463,-0.200,-0.080
5464,-0.200,-0.070
5465,-0.210,-0.080
5466,-0.145,-0.065
5467,0.200,0.055
5468,0.755,0.220
5469,0.985,0.300
5470,0.635,0.230
5471,0.070,0.190
5472,-0.155,0.220
5473,-0.150,0.140
5474,-0.120,0.085
5475,-0.140,0.045
5476,-0.095,0.025
5477,-0.055,0.010
5478,-0.085,0.005
5479,-0.165,-0.005
5480,-0.190,-0.025
5481,-0.170,-0.035
5482,-0.150,-0.045
5483,-0.140,-0.055
5484,-0.140,-0.065
5485,-0.130,-0.055
5486,-0.115,-0.045
5487,-0.100,-0.045
5488,-0.095,-0.050
5489,-0.090,-0.050
5490,-0.080,-0.050
5491,-0.055,-0.035
5492,-0.035,-0.005
5493,-0.005,-0.030
5494,0.000,-0.030
5495,0.010,0.000
5496,0.025,0.000
5497,0.040,0.015
5498,0.050,0.010
5499,0.065,0.045
5500,0.065,0.060
5501,0.070,0.050
5502,0.050,0.040
5503,0.045,0.105
5504,0.030,0.070
5505,0.005,0.035
5506,-0.005,0.025
5507,-0.025,0.015
5508,-0.050,0.010
5509,-0.010,-0.015
5510,-0.010,0.000
5511,-0.085,-0.005
5512,-0.100,-0.020
5513,-0.105,-0.040
5514,-0.120,-0.030
5515,-0.110,-0.025
5516,-0.100,-0.045
5517,-0.110,-0.035
5518,-0.120,-0.035
5519,-0.115,-0.010
5520,-0.110,-0.010
5521,-0.105,-0.025
5522,-0.070,-0.020
5523,-0.035,0.000
5524,-0.055,-0.015
5525,-0.090,-0.040
5526,-0.095,-0.025
5527,-0.090,-0.015
5528,-0.090,-0.020
5529,-0.130,-0.035
5530,-0.175,-0.060
5531,-0.195,-0.085
5532,-0.190,-0.095
5533,-0.165,-0.095
5534,-0.170,-0.075
5535,-0.175,-0.075
5536,-0.180,-0.075
5537,-0.190,-0.070
5538,-0.190,-0.085
5539,-0.185,-0.090
5540,-0.185,-0.120
5541,-0.200,-0.075
5542,-0.150,-0.035
5543,0.140,0.025
5544,0.705,0.185
5545,1.010,0.275
5546,0.780,0.255
5547,0.045,0.210
5548,-0.160,0.220
5549,-0.220,0.165
5550,-0.250,0.075
5551,-0.240,0.020
5552,-0.205,0.030
5553,-0.200,0.015
5554,-0.180,-0.005
5555,-0.160,-0.040
5556,-0.140,-0.045
5557,-0.145,-0.065
5558,-0.135,-0.040
5559,-0.130,-0.045
5560,-0.120,-0.045
5561,-0.115,-0.045
5562,-0.105,-0.030
5563,-0.095,-0.025
5564,-0.090,-0.035
5565,-0.075,-0.025
5566,-0.060,-0.025
5567,-0.040,-0.045
5568,-0.020,-0.030
5569,-0.005,-0.005
5570,0.000,0.000
5571,0.015,0.000
5572,0.035,0.010
5573,0.045,0.015
5574,0.055,0.020
5575,0.065,0.055
5576,0.075,0.060
5577,0.085,0.065
5578,0.075,0.075
5579,0.050,0.065
5580,0.025,0.060
5581,0.005,0.040
5582,0.000,0.040
5583,-0.010,0.015
5584,-0.030,0.000
5585,-0.050,-0.025
5586,-0.055,0.010
5587,-0.080,-0.005
5588,-0.085,-0.050
5589,-0.090,-0.020
5590,-0.045,0.000
5591,-0.065,-0.025
5592,0.030,-0.060
5593,0.000,-0.020
5594,0.020,0.000
5595,-0.070,0.020
5596,-0.140,-0.025
5597,-0.085,-0.015
5598,-0.025,0.005
5599,0.025,-0.015
5600,0.010,-0.010
5601,-0.045,-0.025
5602,-0.010,-0.035
5603,0.020,0.000
5604,0.010,0.010
5605,0.000,-0.010
5606,-0.020,-0.030
5607,-0.040,-0.045
5608,-0.050,-0.050
5609,-0.050,-0.060
5610,-0.045,-0.080
5611,-0.045,-0.055
5612,-0.045,-0.030
5613,-0.045,-0.050
5614,-0.045,-0.050
5615,-0.040,-0.050
5616,-0.045,-0.060
5617,-0.065,-0.065
5618,0.005,-0.015
5619,0.325,0.090
5620,0.800,0.235
5621,1.005,0.320
5622,0.815,0.285
5623,0.245,0.215
5624,0.000,0.250
5625,-0.045,0.220
5626,-0.090,0.140
5627,-0.090,0.075
5628,-0.070,0.045
5629,-0.040,0.010
5630,-0.025,0.000
5631,-0.075,0.000
5632,-0.175,-0.020
5633,0.015,-0.020
5634,0.015,-0.025
5635,0.015,-0.025
5636,0.000,-0.040
5637,0.005,-0.025
5638,0.010,-0.020
5639,0.025,0.005
5640,0.035,0.000
5641,0.050,0.000
5642,0.065,-0.010
5643,0.080,0.000
5644,0.100,0.005
5645,0.115,0.000
5646,0.130,0.005
5647,0.140,0.020
5648,0.165,0.040
5649,0.180,0.040
5650,0.185,0.045
5651,0.185,0.065
5652,0.190,0.085
5653,0.180,0.100
5654,0.165,0.105
5655,0.160,0.090
5656,0.140,0.065
5657,0.120,0.060
5658,0.100,0.065
5659,0.095,0.025
5660,0.085,0.025
5661,0.065,0.035
5662,0.020,0.020
5663,0.000,0.000
5664,0.065,0.000
5665,0.045,0.000
5666,0.025,-0.010
5667,-0.030,0.020
5668,-0.150,0.000
5669,-0.035,-0.050
5670,0.040,-0.040
5671,0.015,0.000
5672,0.015,0.000
5673,0.020,0.010
5674,0.020,0.025
5675,0.020,0.025
5676,0.025,0.015
5677,0.015,0.015
5678,0.000,0.000
5679,0.000,0.000
5680,0.020,0.000
5681,0.025,0.005
5682,0.015,0.005
5683,0.000,-0.015
5684,-0.020,-0.025
5685,-0.030,-0.035
5686,-0.035,-0.050
5687,-0.040,-0.055
5688,-0.030,-0.045
5689,-0.030,-0.030
5690,-0.030,-0.030
5691,-0.030,-0.040
5692,-0.030,-0.040
5693,-0.030,-0.035
5694,-0.050,-0.040
5695,0.000,-0.020
5696,0.290,0.080
5697,0.745,0.220
5698,1.005,0.315
5699,0.800,0.305
5700,0.320,0.250
5701,0.015,0.255
5702,-0.030,0.225
5703,-0.075,0.155
5704,-0.080,0.110
5705,-0.060,0.080
5706,-0.040,0.065
5707,-0.030,0.030
5708,-0.010,0.000
5709,0.000,-0.015
5710,0.000,-0.020
5711,0.000,-0.015
5712,0.000,0.000
5713,0.000,0.000
5714,0.005,0.000
5715,0.010,0.000
5716,0.020,0.000
5717,0.030,0.000
5718,0.045,0.000
5719,0.050,0.000
5720,0.065,0.010
5721,0.085,0.015
5722,0.105,0.025
5723,0.120,0.025
5724,0.140,0.040
5725,0.165,0.055
5726,0.040,0.075
5727,0.010,0.065
5728,0.025,0.065
5729,0.045,0.075
5730,0.040,0.075
5731,0.035,0.070
5732,0.020,0.055
5733,0.040,0.040
5734,0.075,0.045
5735,0.095,0.030
5736,0.105,0.025
5737,0.030,0.025
5738,-0.040,0.010
5739,0.010,0.000
5740,0.070,0.000
5741,0.010,0.015
5742,-0.090,0.010
5743,-0.140,-0.010
5744,-0.130,-0.030
5745,-0.130,-0.035
5746,-0.130,-0.030
5747,-0.130,-0.040
5748,-0.130,-0.035
5749,-0.120,-0.020
5750,-0.105,-0.020
5751,-0.100,-0.030
5752,-0.100,-0.010
5753,-0.105,0.005
5754,-0.080,0.000
5755,-0.080,-0.010
5756,-0.145,-0.025
5757,-0.130,-0.020
5758,-0.125,-0.015
5759,-0.120,-0.020
5760,-0.160,-0.050
5761,-0.185,-0.075
5762,-0.190,-0.075
5763,-0.180,-0.075
5764,-0.180,-0.080
5765,-0.170,-0.070
5766,-0.200,-0.070
5767,-0.130,-0.075
5768,-0.185,-0.080
5769,-0.200,-0.060
5770,-0.205,-0.060
5771,-0.205,-0.070
5772,-0.185,-0.060
5773,0.030,0.010
5774,0.530,0.170
5775,0.915,0.290
5776,0.835,0.270
5777,0.295,0.190
5778,-0.035,0.195
5779,-0.145,0.190
5780,-0.230,0.115
5781,-0.245,0.055
5782,-0.225,0.035
5783,-0.210,0.020
5784,-0.195,0.000
5785,-0.185,-0.035
5786,-0.170,-0.045
5787,-0.160,-0.045
5788,-0.155,-0.045
5789,-0.150,-0.045
5790,-0.140,-0.040
5791,-0.135,-0.040
5792,-0.140,-0.040
5793,-0.125,-0.030
5794,-0.120,-0.025
5795,-0.100,-0.020
5796,-0.090,-0.020
5797,-0.075,-0.020
5798,-0.060,-0.015
5799,-0.040,-0.015
5800,-0.010,0.000
5801,0.000,0.000
5802,0.000,0.015
5803,0.015,0.025
5804,0.035,0.040
5805,0.040,0.045
5806,0.055,0.075
5807,0.060,0.085
5808,0.055,0.090
5809,0.030,0.080
5810,0.015,0.065
5811,0.000,0.055
5812,0.000,0.040
5813,-0.015,0.020
5814,-0.040,0.015
5815,-0.055,0.010
5816,-0.070,0.005
5817,-0.085,0.000
5818,-0.095,0.000
5819,-0.095,-0.010
5820,-0.105,-0.025
5821,-0.115,-0.035
5822,-0.125,-0.035
5823,-0.130,-0.035
5824,-0.125,-0.035
5825,-0.125,-0.030
5826,-0.120,-0.020
5827,-0.105,-0.015
5828,-0.105,-0.010
5829,-0.105,-0.010
5830,-0.110,-0.015
5831,-0.115,-0.020
5832,-0.130,-0.035
5833,-0.130,-0.045
5834,-0.115,-0.040
5835,-0.105,-0.025
5836,-0.110,-0.030
5837,-0.150,-0.060
5838,-0.180,-0.085
5839,-0.195,-0.085
5840,-0.195,-0.085
5841,-0.195,-0.085
5842,-0.195,-0.085
5843,-0.195,-0.085
5844,-0.195,-0.085
5845,-0.195,-0.095
5846,-0.195,-0.095
5847,-0.200,-0.105
5848,-0.205,-0.110
5849,-0.205,-0.080
5850,-0.005,-0.005
5851,0.490,0.150
5852,0.925,0.275
5853,0.895,0.270
5854,0.275,0.160
5855,-0.075,0.185
5856,-0.180,0.175
5857,-0.225,0.105
5858,-0.240,0.050
5859,-0.220,0.025
5860,-0.205,0.005
5861,-0.190,-0.015
5862,-0.180,-0.040
5863,-0.165,-0.055
5864,-0.155,-0.050
5865,-0.145,-0.050
5866,-0.140,-0.050
5867,-0.135,-0.055
5868,-0.130,-0.050
5869,-0.125,-0.050
5870,-0.120,-0.055
5871,-0.110,-0.055
5872,-0.100,-0.045
5873,-0.085,-0.035
5874,-0.070,-0.030
5875,-0.050,-0.025
5876,-0.030,-0.015
5877,-0.010,-0.010
5878,0.000,-0.005
5879,0.000,0.000
5880,0.005,0.005
5881,0.025,0.025
5882,0.040,0.040
5883,0.050,0.060
5884,0.050,0.065
5885,0.050,0.075
5886,0.035,0.060
5887,0.020,0.050
5888,0.000,0.040
5889,0.000,0.025
5890,-0.025,0.005
5891,-0.040,0.000
5892,-0.060,-0.005
5893,-0.065,-0.010
5894,-0.080,-0.015
5895,-0.090,-0.025
5896,-0.095,-0.035
5897,-0.100,-0.040
5898,-0.105,-0.045
5899,-0.120,-0.050
5900,-0.120,-0.045
5901,-0.120,-0.045
5902,-0.110,-0.045
5903,-0.110,-0.040
5904,-0.110,-0.030
5905,-0.105,-0.025
5906,-0.100,-0.020
5907,-0.100,-0.020
5908,-0.105,-0.025
5909,-0.115,-0.040
5910,-0.120,-0.050
5911,-0.115,-0.045
5912,-0.100,-0.040
5913,-0.105,-0.045
5914,-0.140,-0.065
5915,-0.170,-0.090
5916,-0.185,-0.100
5917,-0.185,-0.100
5918,-0.190,-0.100
5919,-0.190,-0.100
5920,-0.190,-0.100
5921,-0.190,-0.100
5922,-0.190,-0.100
5923,-0.185,-0.105
5924,-0.195,-0.105
5925,-0.205,-0.110
5926,-0.185,-0.080
5927,0.000,-0.010
5928,0.480,0.140
5929,0.955,0.275
5930,0.935,0.265
5931,0.255,0.135
5932,-0.100,0.175
5933,-0.175,0.175
5934,-0.215,0.100
5935,-0.225,0.050
5936,-0.205,0.025
5937,-0.200,0.010
5938,-0.180,-0.010
5939,-0.160,-0.035
5940,-0.150,-0.050
5941,-0.150,-0.060
5942,-0.135,-0.065
5943,-0.130,-0.055
5944,-0.130,-0.055
5945,-0.120,-0.060
5946,-0.110,-0.065
5947,-0.100,-0.055
5948,-0.095,-0.055
5949,-0.090,-0.055
5950,-0.075,-0.050
5951,-0.060,-0.050
5952,-0.045,-0.045
5953,-0.025,-0.035
5954,-0.005,-0.025
5955,0.000,-0.020
5956,0.005,-0.015
5957,0.020,-0.005
5958,0.040,0.010
5959,0.055,0.025
5960,0.060,0.035
5961,0.060,0.045
5962,0.060,0.050
5963,0.050,0.050
5964,0.025,0.035
5965,0.005,0.020
5966,0.000,0.005
5967,-0.010,0.000
5968,-0.025,-0.015
5969,-0.045,-0.020
5970,-0.050,-0.025
5971,-0.065,-0.030
5972,-0.075,-0.040
5973,-0.090,-0.045
5974,-0.090,-0.045
5975,-0.095,-0.050
5976,-0.095,-0.055
5977,-0.105,-0.060
5978,-0.110,-0.065
5979,-0.105,-0.050
5980,-0.100,-0.035
5981,-0.095,-0.035
5982,-0.095,-0.030
5983,-0.095,-0.025
5984,-0.095,-0.020
5985,-0.095,-0.025
5986,-0.110,-0.050
5987,-0.105,-0.060
5988,-0.100,-0.050
5989,-0.095,-0.045
5990,-0.100,-0.050
5991,-0.130,-0.070
5992,-0.160,-0.090
5993,-0.180,-0.100
5994,-0.180,-0.105
5995,-0.175,-0.100
5996,-0.170,-0.100
5997,-0.165,-0.105
5998,-0.165,-0.105
5999,-0.165,-0.100
6000,-0.165,-0.100
6001,-0.175,-0.105
6002,-0.190,-0.100
6003,-0.140,-0.080
6004,0.170,0.000
6005,0.705,0.160
6006,1.010,0.290
6007,0.910,0.280
6008,0.430,0.190
6009,0.050,0.215
6010,-0.005,0.225
6011,-0.065,0.140
6012,-0.090,0.100
6013,-0.190,0.075
6014,-0.210,0.025
6015,-0.170,0.000
6016,-0.160,-0.040
6017,-0.135,-0.060
6018,-0.120,-0.055
6019,-0.105,-0.055
6020,-0.105,-0.055
6021,-0.100,-0.050
6022,-0.100,-0.050
6023,-0.095,-0.055
6024,-0.095,-0.055
6025,-0.080,-0.045
6026,-0.080,-0.045
6027,-0.060,-0.045
6028,-0.040,-0.040
6029,-0.020,-0.035
6030,0.000,-0.035
6031,0.000,-0.025
6032,0.010,-0.020
6033,0.020,-0.010
6034,0.035,0.000
6035,0.045,0.010
6036,0.060,0.025
6037,0.070,0.045
6038,0.075,0.060
6039,0.070,0.055
6040,0.060,0.045
6041,0.040,0.035
6042,0.020,0.015
6043,0.005,0.005
6044,-0.005,0.000
6045,-0.015,-0.010
6046,-0.030,-0.020
6047,-0.045,-0.030
6048,-0.060,-0.030
6049,-0.065,-0.030
6050,-0.070,-0.050
6051,-0.085,-0.055
6052,-0.095,-0.060
6053,-0.095,-0.065
6054,-0.100,-0.065
6055,-0.105,-0.065
6056,-0.100,-0.060
6057,-0.095,-0.045
6058,-0.090,-0.030
6059,-0.090,-0.030
6060,-0.095,-0.030
6061,-0.085,-0.025
6062,-0.085,-0.025
6063,-0.100,-0.060
6064,-0.095,-0.065
6065,-0.095,-0.055
6066,-0.085,-0.045
6067,-0.100,-0.060
6068,-0.125,-0.080
6069,-0.160,-0.100
6070,-0.170,-0.105
6071,-0.170,-0.105
6072,-0.165,-0.105
6073,-0.165,-0.105
6074,-0.165,-0.105
6075,-0.170,-0.105
6076,-0.170,-0.110
6077,-0.165,-0.110
6078,-0.170,-0.115
6079,-0.185,-0.115
6080,-0.150,-0.085
6081,0.105,0.000
6082,0.595,0.145
6083,0.955,0.250
6084,0.790,0.235
6085,0.265,0.175
6086,-0.095,0.175
6087,-0.180,0.140
6088,-0.220,0.060
6089,-0.225,0.025
6090,-0.200,0.000
6091,-0.185,-0.005
6092,-0.165,-0.035
6093,-0.145,-0.065
6094,-0.125,-0.075
6095,-0.125,-0.075
6096,-0.120,-0.080
6097,-0.115,-0.075
6098,-0.100,-0.075
6099,-0.100,-0.075
6100,-0.095,-0.075
6101,-0.090,-0.075
6102,-0.080,-0.070
6103,-0.075,-0.070
6104,-0.055,-0.065
6105,-0.040,-0.055
6106,-0.015,-0.050
6107,0.000,-0.040
6108,0.005,-0.040
6109,0.020,-0.030
6110,0.035,-0.025
6111,0.055,-0.010
6112,0.065,0.000
6113,0.075,0.010
6114,0.090,0.025
6115,0.095,0.045
6116,0.090,0.040
6117,0.085,0.040
6118,0.065,0.030
6119,0.040,0.015
6120,0.015,0.000
6121,0.000,-0.015
6122,-0.010,-0.020
6123,-0.020,-0.025
6124,-0.035,-0.035
6125,-0.045,-0.045
6126,-0.060,-0.050
6127,-0.070,-0.055
6128,-0.075,-0.060
6129,-0.085,-0.065
6130,-0.095,-0.070
6131,-0.095,-0.070
6132,-0.095,-0.065
6133,-0.095,-0.060
6134,-0.095,-0.050
6135,-0.095,-0.050
6136,-0.090,-0.050
6137,-0.090,-0.045
6138,-0.095,-0.045
6139,-0.110,-0.075
6140,-0.110,-0.075
6141,-0.095,-0.070
6142,-0.090,-0.065
6143,-0.060,-0.080
6144,0.050,-0.095
6145,0.000,-0.095
6146,0.000,-0.085
6147,-0.005,-0.080
6148,-0.010,-0.080
6149,-0.015,-0.085
6150,-0.015,-0.085
6151,-0.015,-0.085
6152,-0.015,-0.085
6153,-0.015,-0.080
6154,-0.015,-0.080
6155,-0.035,-0.090
6156,-0.025,-0.070
6157,0.185,0.000
6158,0.675,0.145
6159,0.965,0.265
6160,0.920,0.280
6161,0.445,0.225
6162,0.065,0.215
6163,-0.035,0.180
6164,-0.080,0.100
6165,-0.080,0.050
6166,-0.060,0.030
6167,-0.035,0.010
6168,-0.010,-0.010
6169,0.000,-0.035
6170,0.000,-0.045
6171,0.000,-0.050
6172,0.000,-0.050
6173,0.010,-0.050
6174,0.010,-0.050
6175,0.015,-0.045
6176,0.025,-0.040
6177,0.040,-0.040
6178,0.050,-0.045
6179,0.060,-0.040
6180,0.080,-0.040
6181,0.095,-0.035
6182,0.105,-0.025
6183,0.135,-0.020
6184,0.155,-0.015
6185,0.180,-0.010
6186,0.195,-0.005
6187,0.200,0.000
6188,0.210,0.010
6189,0.215,0.025
6190,0.220,0.040
6191,0.230,0.065
6192,0.235,0.070
6193,0.220,0.070
6194,0.205,0.065
6195,0.185,0.050
6196,0.160,0.035
6197,0.130,0.015
6198,0.115,0.010
6199,0.100,0.000
6200,0.090,0.000
6201,0.075,-0.010
6202,0.065,-0.020
6203,0.055,-0.025
6204,0.045,-0.030
6205,0.035,-0.035
6206,0.030,-0.040
6207,0.030,-0.030
6208,0.035,-0.020
6209,0.040,-0.010
6210,0.045,-0.010
6211,0.040,-0.015
6212,0.040,-0.010
6213,0.040,-0.010
6214,0.025,-0.025
6215,0.020,-0.045
6216,0.030,-0.040
6217,0.030,-0.025
6218,0.040,-0.020
6219,0.020,-0.030
6220,0.000,-0.060
6221,-0.010,-0.075
6222,-0.010,-0.075
6223,-0.015,-0.080
6224,-0.015,-0.075
6225,-0.015,-0.075
6226,-0.015,-0.080
6227,-0.015,-0.080
6228,-0.010,-0.070
6229,-0.010,-0.070
6230,-0.010,-0.070
6231,-0.040,-0.085
6232,-0.015,-0.055
6233,0.250,0.030
6234,0.805,0.200
6235,1.000,0.305
6236,0.890,0.285
6237,0.305,0.230
6238,0.035,0.240
6239,-0.040,0.170
6240,-0.085,0.095
6241,-0.065,0.060
6242,-0.045,0.040
6243,-0.025,0.010
6244,-0.015,-0.005
6245,0.000,-0.020
6246,0.000,-0.025
6247,0.005,-0.035
6248,0.010,-0.040
6249,0.015,-0.040
6250,0.020,-0.040
6251,0.025,-0.040
6252,0.035,-0.035
6253,0.045,-0.030
6254,0.055,-0.025
6255,0.070,-0.025
6256,0.085,-0.020
6257,0.100,-0.010
6258,0.110,-0.010
6259,0.130,-0.005
6260,0.150,0.000
6261,0.170,0.000
6262,0.195,0.010
6263,0.205,0.025
6264,0.205,0.025
6265,0.210,0.050
6266,0.225,0.065
6267,0.235,0.090
6268,0.225,0.090
6269,0.215,0.085
6270,0.200,0.080
6271,0.185,0.060
6272,0.165,0.050
6273,0.140,0.035
6274,0.120,0.030
6275,0.105,0.015
6276,0.090,0.000
6277,0.080,0.000
6278,0.065,0.000
6279,0.055,-0.005
6280,0.040,-0.010
6281,0.040,-0.015
6282,0.030,-0.025
6283,0.025,-0.020
6284,0.015,-0.020
6285,0.025,-0.010
6286,0.035,0.000
6287,0.045,0.000
6288,0.045,0.000
6289,0.045,0.000
6290,0.050,0.000
6291,0.035,-0.005
6292,0.015,-0.025
6293,0.020,-0.025
6294,0.040,-0.010
6295,0.045,0.000
6296,0.020,-0.020
6297,0.000,-0.050
6298,-0.010,-0.065
6299,-0.010,-0.060
6300,-0.010,-0.060
6301,-0.010,-0.065
6302,-0.005,-0.055
6303,-0.005,-0.055
6304,-0.010,-0.055
6305,-0.010,-0.060
6306,-0.010,-0.055
6307,-0.010,-0.055
6308,-0.025,-0.065
6309,0.030,-0.025
6310,0.355,0.075
6311,0.885,0.255
6312,1.010,0.340
6313,0.840,0.275
6314,0.195,0.205
6315,0.015,0.245
6316,-0.020,0.175
6317,-0.065,0.105
6318,-0.050,0.065
6319,-0.030,0.055
6320,-0.010,0.035
6321,-0.010,0.000
6322,0.000,-0.020
6323,0.000,-0.025
6324,0.005,-0.025
6325,0.010,-0.035
6326,0.015,-0.030
6327,0.020,-0.025
6328,0.025,-0.025
6329,0.035,-0.025
6330,0.045,-0.025
6331,0.060,-0.020
6332,0.065,-0.020
6333,0.075,-0.015
6334,0.090,-0.010
6335,0.110,0.000
6336,0.130,0.000
6337,0.145,0.000
6338,0.150,0.010
6339,0.095,0.025
6340,0.100,0.020
6341,0.215,0.030
6342,0.225,0.055
6343,0.225,0.080
6344,0.220,0.085
6345,0.215,0.080
6346,0.205,0.075
6347,0.180,0.070
6348,0.150,0.055
6349,0.150,0.045
6350,0.120,0.025
6351,0.100,0.015
6352,0.090,0.010
6353,0.075,0.000
6354,0.060,-0.010
6355,0.050,-0.015
6356,0.045,-0.015
6357,0.025,-0.020
6358,0.010,-0.020
6359,0.000,-0.025
6360,-0.025,-0.020
6361,-0.100,-0.035
6362,0.015,-0.040
6363,0.035,-0.010
6364,-0.055,-0.005
6365,0.015,-0.020
6366,0.050,-0.015
6367,0.040,0.000
6368,-0.050,-0.015
6369,-0.020,-0.030
6370,-0.100,-0.040
6371,-0.055,-0.055
6372,0.040,-0.040
6373,0.040,-0.035
6374,0.005,-0.060
6375,-0.010,-0.075
6376,-0.025,-0.080
6377,-0.020,-0.075
6378,-0.020,-0.075
6379,-0.025,-0.075
6380,-0.025,-0.075
6381,-0.020,-0.075
6382,-0.020,-0.075
6383,-0.015,-0.075
6384,-0.020,-0.075
6385,-0.055,-0.075
6386,-0.055,-0.045
6387,0.165,0.035
6388,0.660,0.185
6389,0.995,0.300
6390,0.770,0.255
6391,0.165,0.150
6392,-0.085,0.175
6393,-0.150,0.155
6394,-0.155,0.065
6395,-0.215,0.030
6396,-0.205,0.005
6397,-0.175,0.000
6398,-0.165,-0.040
6399,-0.155,-0.070
6400,-0.150,-0.075
6401,-0.130,-0.075
6402,-0.130,-0.075
6403,-0.130,-0.080
6404,-0.125,-0.080
6405,-0.080,-0.080
6406,-0.065,-0.080
6407,-0.035,-0.055
6408,-0.040,-0.065
6409,0.055,-0.060
6410,0.090,-0.045
6411,0.055,-0.030
6412,0.085,-0.025
6413,0.115,-0.015
6414,0.135,0.000
6415,0.145,0.000
6416,0.160,0.005
6417,0.175,0.015
6418,0.170,0.040
6419,0.140,0.045
6420,0.175,0.050
6421,0.215,0.065
6422,0.210,0.070
6423,0.195,0.065
6424,0.180,0.060
6425,0.160,0.050
6426,0.105,0.040
6427,0.025,0.020
6428,0.000,0.000
6429,0.000,-0.010
6430,0.005,-0.020
6431,0.045,-0.030
6432,0.070,-0.030
6433,0.030,-0.035
6434,0.050,-0.035
6435,0.035,-0.035
6436,0.020,-0.040
6437,0.015,-0.035
6438,0.015,-0.030
6439,0.015,-0.025
6440,0.020,-0.015
6441,0.030,-0.010
6442,0.030,-0.005
6443,0.030,0.000
6444,0.035,0.000
6445,0.030,0.000
6446,0.010,-0.025
6447,0.010,-0.035
6448,0.020,-0.030
6449,0.025,-0.020
6450,0.020,-0.030
6451,0.000,-0.055
6452,-0.015,-0.075
6453,-0.040,-0.080
6454,-0.030,-0.075
6455,-0.025,-0.075
6456,-0.020,-0.075
6457,-0.025,-0.075
6458,-0.020,-0.075
6459,-0.025,-0.075
6460,-0.025,-0.080
6461,-0.030,-0.080
6462,-0.045,-0.085
6463,-0.015,-0.055
6464,0.220,0.025
6465,0.675,0.170
6466,0.985,0.285
6467,0.870,0.270
6468,0.430,0.195
6469,0.045,0.190
6470,-0.015,0.190
6471,-0.060,0.120
6472,-0.075,0.070
6473,-0.060,0.045
6474,-0.040,0.025
6475,-0.025,0.000
6476,-0.010,-0.025
6477,-0.005,-0.045
6478,0.000,-0.045
6479,0.000,-0.040
6480,0.000,-0.040
6481,0.005,-0.040
6482,0.010,-0.040
6483,0.015,-0.040
6484,0.025,-0.040
6485,0.025,-0.040
6486,0.045,-0.040
6487,0.050,-0.030
6488,0.075,-0.015
6489,0.090,-0.015
6490,0.100,-0.005
6491,0.115,0.000
6492,0.140,0.000
6493,0.145,0.000
6494,0.160,0.015
6495,0.170,0.030
6496,0.180,0.040
6497,0.190,0.055
6498,0.195,0.065
6499,0.190,0.070
6500,0.180,0.065
6501,0.160,0.050
6502,0.135,0.040
6503,0.115,0.030
6504,0.100,0.015
6505,0.080,0.005
6506,0.060,0.000
6507,0.055,0.000
6508,0.045,-0.010
6509,0.030,-0.020
6510,0.025,-0.025
6511,0.015,-0.025
6512,0.005,-0.035
6513,0.000,-0.040
6514,0.000,-0.040
6515,0.000,-0.040
6516,0.000,-0.030
6517,0.000,-0.020
6518,0.005,-0.015
6519,0.010,-0.015
6520,0.010,-0.010
6521,0.005,-0.010
6522,0.000,-0.015
6523,0.000,-0.040
6524,0.000,-0.035
6525,0.000,-0.030
6526,0.000,-0.030
6527,0.000,-0.040
6528,-0.025,-0.070
6529,-0.045,-0.080
6530,-0.060,-0.085
6531,-0.060,-0.085
6532,-0.055,-0.085
6533,-0.055,-0.085
6534,-0.060,-0.085
6535,-0.055,-0.085
6536,-0.060,-0.085
6537,-0.065,-0.085
6538,-0.065,-0.090
6539,-0.080,-0.095
6540,-0.055,-0.065
6541,0.165,0.015
6542,0.650,0.165
6543,0.955,0.285
6544,0.900,0.270
6545,0.415,0.190
6546,0.055,0.190
6547,-0.045,0.180
6548,-0.085,0.115
6549,-0.095,0.065
6550,-0.080,0.040
6551,-0.060,0.025
6552,-0.045,0.000
6553,-0.030,-0.025
6554,-0.025,-0.050
6555,-0.015,-0.050
6556,-0.010,-0.050
6557,-0.010,-0.050
6558,-0.005,-0.055
6559,0.000,-0.050
6560,0.000,-0.050
6561,0.000,-0.045
6562,0.000,-0.040
6563,0.015,-0.035
6564,0.030,-0.030
6565,0.045,-0.025
6566,0.065,-0.020
6567,0.085,-0.015
6568,0.095,-0.010
6569,0.115,0.000
6570,0.135,0.000
6571,0.140,0.005
6572,0.155,0.025
6573,0.160,0.040
6574,0.175,0.060
6575,0.180,0.070
6576,0.180,0.075
6577,0.170,0.070
6578,0.155,0.060
6579,0.125,0.045
6580,0.105,0.035
6581,0.095,0.020
6582,0.075,0.010
6583,0.055,0.000
6584,0.040,0.000
6585,0.030,-0.010
6586,0.020,-0.015
6587,0.010,-0.025
6588,0.000,-0.030
6589,0.000,-0.035
6590,0.000,-0.040
6591,0.000,-0.040
6592,-0.070,-0.030
6593,-0.155,-0.025
6594,-0.160,-0.040
6595,-0.130,-0.040
6596,-0.105,-0.055
6597,-0.030,-0.055
6598,0.045,-0.030
6599,0.020,-0.030
6600,0.000,-0.045
6601,0.000,-0.045
6602,0.000,-0.035
6603,0.000,-0.030
6604,-0.005,-0.045
6605,-0.030,-0.070
6606,-0.055,-0.085
6607,-0.070,-0.085
6608,-0.065,-0.090
6609,-0.065,-0.090
6610,-0.065,-0.090
6611,-0.070,-0.085
6612,-0.070,-0.085
6613,-0.065,-0.085
6614,-0.065,-0.085
6615,-0.065,-0.090
6616,-0.080,-0.095
6617,-0.070,-0.065
6618,0.150,0.015
6619,0.665,0.180
6620,0.975,0.285
6621,0.930,0.260
6622,0.360,0.165
6623,0.040,0.195
6624,-0.055,0.180
6625,-0.095,0.110
6626,-0.095,0.065
6627,-0.085,0.040
6628,-0.075,0.020
6629,-0.055,0.000
6630,-0.040,-0.025
6631,-0.030,-0.040
6632,-0.025,-0.050
6633,-0.015,-0.050
6634,-0.010,-0.050
6635,-0.005,-0.050
6636,0.000,-0.050
6637,0.000,-0.050
6638,0.000,-0.040
6639,0.000,-0.035
6640,0.005,-0.035
6641,0.020,-0.035
6642,0.035,-0.030
6643,0.055,-0.020
