'sample interval','ECG0','ECG1'
'0.0078125 sec','mV','mV'
0,-0.135,-0.110
1,-0.135,-0.105
2,-0.120,-0.085
3,-0.120,-0.080
4,-0.100,-0.075
5,-0.100,-0.075
6,-0.100,-0.070
7,-0.100,-0.070
8,-0.120,-0.075
9,-0.140,-0.100
10,-0.135,-0.110
11,-0.125,-0.100
12,-0.105,-0.085
13,-0.110,-0.085
14,-0.145,-0.110
15,-0.170,-0.130
16,-0.180,-0.140
17,-0.185,-0.135
18,-0.185,-0.135
19,-0.180,-0.140
20,-0.180,-0.140
21,-0.170,-0.140
22,-0.175,-0.140
23,-0.175,-0.140
24,-0.175,-0.140
25,-0.175,-0.125
26,-0.065,-0.075
27,0.270,0.030
28,0.735,0.160
29,0.890,0.180
30,0.500,0.090
31,-0.020,0.060
32,-0.125,0.140
33,-0.140,0.115
34,-0.175,0.055
35,-0.175,0.030
36,-0.165,0.010
37,-0.155,-0.010
38,-0.155,-0.045
39,-0.150,-0.085
40,-0.140,-0.095
41,-0.135,-0.095
42,-0.125,-0.095
43,-0.120,-0.095
44,-0.115,-0.095
45,-0.095,-0.095
46,-0.095,-0.085
47,-0.085,-0.080
48,-0.075,-0.080
49,-0.050,-0.075
50,-0.040,-0.075
51,-0.015,-0.065
52,0.000,-0.065
53,0.015,-0.045
54,0.040,-0.040
55,0.075,-0.025
56,0.100,-0.020
57,0.130,-0.005
58,0.160,0.000
59,0.190,0.010
60,0.200,0.025
61,0.200,0.035
62,0.200,0.045
63,0.185,0.055
64,0.160,0.045
65,0.125,0.030
66,0.095,0.015
67,0.060,0.000
68,0.025,-0.010
69,0.005,-0.030
70,0.000,-0.040
71,-0.020,-0.050
72,-0.040,-0.060
73,-0.055,-0.075
74,-0.070,-0.080
75,-0.075,-0.085
76,-0.095,-0.095
77,-0.095,-0.100
78,-0.105,-0.100
79,-0.110,-0.110
80,-0.120,-0.115
81,-0.125,-0.110
82,-0.135,-0.120
83,-0.140,-0.120
84,-0.145,-0.125
85,-0.150,-0.130
86,-0.150,-0.130
87,-0.150,-0.125
88,-0.140,-0.110
89,-0.135,-0.105
90,-0.120,-0.095
91,-0.120,-0.095
92,-0.115,-0.095
93,-0.115,-0.095
94,-0.115,-0.090
95,-0.135,-0.100
96,-0.165,-0.125
97,-0.170,-0.135
98,-0.145,-0.115
99,-0.125,-0.105
100,-0.125,-0.105
101,-0.150,-0.125
102,-0.175,-0.145
103,-0.190,-0.150
104,-0.190,-0.150
105,-0.190,-0.150
106,-0.185,-0.150
107,-0.185,-0.150
108,-0.185,-0.150
109,-0.185,-0.150
110,-0.185,-0.150
111,-0.185,-0.150
112,-0.185,-0.135
113,-0.085,-0.085
114,0.245,0.025
115,0.715,0.160
116,0.895,0.180
117,0.515,0.085
118,-0.020,0.040
119,-0.130,0.130
120,-0.145,0.115
121,-0.180,0.055
122,-0.180,0.025
123,-0.160,0.000
124,-0.155,0.000
125,-0.155,-0.045
126,-0.150,-0.085
127,-0.145,-0.105
128,-0.140,-0.105
129,-0.140,-0.110
130,-0.125,-0.105
131,-0.120,-0.105
132,-0.110,-0.100
133,-0.095,-0.100
134,-0.095,-0.095
135,-0.080,-0.090
136,-0.060,-0.080
137,-0.040,-0.080
138,-0.020,-0.080
139,-0.005,-0.075
140,0.010,-0.060
141,0.040,-0.050
142,0.075,-0.045
143,0.100,-0.030
144,0.130,-0.015
145,0.160,-0.005
146,0.175,0.000
147,0.190,0.015
148,0.195,0.025
149,0.195,0.035
150,0.180,0.035
151,0.150,0.030
152,0.120,0.015
153,0.090,0.000
154,0.060,-0.005
155,0.020,-0.025
156,0.000,-0.035
157,0.000,-0.050
158,-0.020,-0.060
159,-0.045,-0.075
160,-0.060,-0.080
161,-0.075,-0.085
162,-0.085,-0.100
163,-0.095,-0.110
164,-0.100,-0.105
165,-0.105,-0.105
166,-0.120,-0.110
167,-0.125,-0.120
168,-0.130,-0.120
169,-0.135,-0.120
170,-0.145,-0.120
171,-0.145,-0.125
172,-0.150,-0.130
173,-0.155,-0.130
174,-0.155,-0.130
175,-0.145,-0.120
176,-0.140,-0.110
177,-0.120,-0.095
178,-0.120,-0.090
179,-0.120,-0.090
180,-0.120,-0.090
181,-0.115,-0.090
182,-0.125,-0.095
183,-0.155,-0.120
184,-0.155,-0.135
185,-0.135,-0.115
186,-0.115,-0.100
187,-0.115,-0.105
188,-0.145,-0.135
189,-0.175,-0.155
190,-0.185,-0.155
191,-0.185,-0.155
192,-0.180,-0.160
193,-0.180,-0.155
194,-0.175,-0.150
195,-0.175,-0.150
196,-0.170,-0.150
197,-0.170,-0.150
198,-0.175,-0.150
199,-0.170,-0.135
200,-0.050,-0.075
201,0.305,0.040
202,0.765,0.165
203,0.890,0.170
204,0.455,0.070
205,-0.050,0.040
206,-0.120,0.135
207,-0.140,0.100
208,-0.175,0.040
209,-0.160,0.020
210,-0.150,0.000
211,-0.145,-0.015
212,-0.145,-0.065
213,-0.140,-0.095
214,-0.130,-0.100
215,-0.125,-0.105
216,-0.125,-0.105
217,-0.110,-0.110
218,-0.105,-0.110
219,-0.100,-0.105
220,-0.095,-0.100
221,-0.080,-0.100
222,-0.065,-0.095
223,-0.050,-0.085
224,-0.035,-0.080
225,-0.015,-0.075
226,0.000,-0.060
227,0.025,-0.055
228,0.055,-0.050
229,0.085,-0.045
230,0.120,-0.030
231,0.150,-0.020
232,0.170,-0.010
233,0.190,0.000
234,0.200,0.005
235,0.205,0.015
236,0.200,0.025
237,0.180,0.025
238,0.155,0.025
239,0.125,0.015
240,0.090,0.000
241,0.060,-0.015
242,0.030,-0.025
243,0.005,-0.040
244,0.000,-0.055
245,-0.015,-0.070
246,-0.030,-0.070
247,-0.050,-0.080
248,-0.065,-0.090
249,-0.080,-0.100
250,-0.085,-0.100
251,-0.095,-0.105
252,-0.100,-0.105
253,-0.110,-0.115
254,-0.110,-0.120
255,-0.120,-0.120
256,-0.120,-0.120
257,-0.130,-0.125
258,-0.135,-0.125
259,-0.135,-0.125
260,-0.140,-0.120
261,-0.140,-0.120
262,-0.130,-0.110
263,-0.120,-0.100
264,-0.105,-0.085
265,-0.105,-0.085
266,-0.100,-0.090
267,-0.100,-0.080
268,-0.105,-0.090
269,-0.135,-0.105
270,-0.150,-0.125
271,-0.135,-0.125
272,-0.115,-0.110
273,-0.105,-0.100
274,-0.125,-0.115
275,-0.150,-0.135
276,-0.170,-0.145
277,-0.180,-0.150
278,-0.180,-0.150
279,-0.175,-0.150
280,-0.170,-0.150
281,-0.165,-0.145
282,-0.165,-0.140
283,-0.165,-0.140
284,-0.160,-0.140
285,-0.170,-0.145
286,-0.150,-0.130
287,0.030,-0.055
288,0.460,0.070
289,0.875,0.165
290,0.815,0.125
291,0.245,0.055
292,-0.120,0.090
293,-0.125,0.150
294,-0.160,0.085
295,-0.175,0.040
296,-0.155,0.025
297,-0.145,0.005
298,-0.140,-0.020
299,-0.135,-0.055
300,-0.130,-0.070
301,-0.120,-0.080
302,-0.120,-0.090
303,-0.100,-0.095
304,-0.100,-0.085
305,-0.095,-0.085
306,-0.095,-0.085
307,-0.070,-0.080
308,-0.055,-0.075
309,-0.035,-0.065
310,-0.025,-0.065
311,-0.005,-0.055
312,0.000,-0.040
313,0.030,-0.035
314,0.060,-0.030
315,0.090,-0.020
316,0.125,-0.010
317,0.155,0.000
318,0.185,0.000
319,0.205,0.010
320,0.220,0.030
321,0.230,0.040
322,0.225,0.055
323,0.215,0.060
324,0.200,0.070
325,0.180,0.060
326,0.150,0.045
327,0.115,0.030
328,0.090,0.020
329,0.060,0.010
330,0.030,0.000
331,0.010,-0.010
332,0.000,-0.020
333,0.000,-0.025
334,-0.020,-0.035
335,-0.025,-0.035
336,-0.040,-0.045
337,-0.040,-0.045
338,-0.055,-0.050
339,-0.065,-0.055
340,-0.075,-0.055
341,-0.080,-0.060
342,-0.085,-0.060
343,-0.090,-0.065
344,-0.095,-0.065
345,-0.095,-0.065
346,-0.095,-0.060
347,-0.095,-0.050
348,-0.095,-0.035
349,-0.080,-0.025
350,-0.075,-0.020
351,-0.075,-0.030
352,-0.075,-0.030
353,-0.075,-0.030
354,-0.090,-0.035
355,-0.110,-0.060
356,-0.105,-0.065
357,-0.090,-0.045
358,-0.075,-0.030
359,-0.075,-0.030
360,-0.095,-0.050
361,-0.120,-0.065
362,-0.130,-0.065
363,-0.130,-0.065
364,-0.130,-0.070
365,-0.125,-0.065
366,-0.125,-0.065
367,-0.125,-0.065
368,-0.125,-0.065
369,-0.120,-0.060
370,-0.120,-0.065
371,-0.130,-0.060
372,-0.075,-0.025
373,0.195,0.050
374,0.680,0.185
375,0.950,0.230
376,0.655,0.180
377,0.060,0.150
378,-0.100,0.235
379,-0.120,0.220
380,-0.150,0.145
381,-0.145,0.120
382,-0.105,0.105
383,-0.100,0.080
384,-0.095,0.045
385,-0.095,0.010
386,-0.080,0.005
387,-0.080,0.000
388,-0.070,0.000
389,-0.070,0.000
390,-0.055,0.000
391,-0.045,0.005
392,-0.030,0.005
393,-0.020,0.010
394,0.000,0.015
395,0.000,0.020
396,0.000,0.025
397,0.025,0.035
398,0.055,0.040
399,0.085,0.050
400,0.110,0.060
401,0.145,0.070
402,0.185,0.085
403,0.210,0.095
404,0.230,0.105
405,0.250,0.115
406,0.265,0.130
407,0.275,0.145
408,0.270,0.155
409,0.255,0.170
410,0.235,0.175
411,0.210,0.160
412,0.180,0.145
413,0.145,0.125
414,0.110,0.115
415,0.085,0.105
416,0.070,0.090
417,0.040,0.075
418,0.025,0.065
419,0.005,0.060
420,0.000,0.055
421,0.000,0.050
422,0.000,0.050
423,-0.015,0.045
424,-0.020,0.035
425,-0.030,0.035
426,-0.040,0.030
427,-0.040,0.030
428,-0.055,0.025
429,-0.065,0.020
430,-0.070,0.020
431,-0.070,0.025
432,-0.070,0.030
433,-0.060,0.030
434,-0.055,0.045
435,-0.040,0.055
436,-0.040,0.055
437,-0.040,0.055
438,-0.040,0.055
439,-0.045,0.055
440,-0.070,0.030
441,-0.080,0.015
442,-0.065,0.025
443,-0.040,0.045
444,-0.040,0.050
445,-0.060,0.030
446,-0.085,0.005
447,-0.095,0.005
448,-0.095,0.010
449,-0.095,0.010
450,-0.095,0.010
451,-0.095,0.010
452,-0.095,0.010
453,-0.095,0.010
454,-0.095,0.010
455,-0.095,0.010
456,-0.095,0.015
457,-0.060,0.040
458,0.145,0.110
459,0.595,0.255
460,0.955,0.330
461,0.815,0.285
462,0.235,0.220
463,-0.055,0.275
464,-0.065,0.315
465,-0.090,0.255
466,-0.095,0.215
467,-0.080,0.195
468,-0.070,0.170
469,-0.065,0.130
470,-0.065,0.090
471,-0.050,0.075
472,-0.050,0.075
473,-0.040,0.065
474,-0.035,0.060
475,-0.025,0.065
476,-0.010,0.070
477,0.000,0.075
478,0.000,0.080
479,0.000,0.080
480,0.010,0.085
481,0.025,0.085
482,0.050,0.095
483,0.075,0.100
484,0.100,0.110
485,0.130,0.120
486,0.165,0.130
487,0.195,0.140
488,0.225,0.155
489,0.250,0.175
490,0.275,0.190
491,0.290,0.200
492,0.300,0.215
493,0.300,0.230
494,0.285,0.230
495,0.260,0.225
496,0.225,0.220
497,0.195,0.205
498,0.165,0.185
499,0.130,0.165
500,0.100,0.145
501,0.080,0.130
502,0.055,0.120
503,0.035,0.110
504,0.015,0.105
505,0.005,0.095
506,0.000,0.090
507,0.000,0.080
508,-0.010,0.075
509,-0.015,0.070
510,-0.020,0.060
511,-0.040,0.060
512,-0.040,0.060
513,-0.045,0.055
514,-0.045,0.055
515,-0.055,0.055
516,-0.060,0.055
517,-0.065,0.055
518,-0.065,0.055
519,-0.065,0.060
520,-0.040,0.070
521,-0.040,0.090
522,-0.030,0.095
523,-0.030,0.090
524,-0.025,0.090
525,-0.035,0.090
526,-0.055,0.070
527,-0.070,0.055
528,-0.060,0.055
529,-0.040,0.070
530,-0.040,0.075
531,-0.060,0.060
532,-0.085,0.040
533,-0.095,0.025
534,-0.095,0.025
535,-0.095,0.025
536,-0.095,0.025
537,-0.095,0.025
538,-0.095,0.030
539,-0.095,0.030
540,-0.095,0.030
541,-0.095,0.025
542,-0.095,0.025
543,-0.070,0.040
544,0.095,0.115
545,0.520,0.260
546,0.935,0.370
547,0.880,0.335
548,0.335,0.245
549,-0.050,0.270
550,-0.055,0.345
551,-0.085,0.285
552,-0.105,0.235
553,-0.090,0.205
554,-0.085,0.190
555,-0.085,0.155
556,-0.090,0.105
557,-0.075,0.085
558,-0.070,0.080
559,-0.065,0.080
560,-0.060,0.075
561,-0.050,0.075
562,-0.045,0.075
563,-0.030,0.075
564,-0.030,0.080
565,-0.010,0.085
566,0.000,0.090
567,0.000,0.100
568,0.010,0.105
569,0.030,0.110
570,0.060,0.115
571,0.090,0.125
572,0.115,0.135
573,0.150,0.145
574,0.185,0.160
575,0.210,0.180
576,0.225,0.200
577,0.245,0.210
578,0.260,0.225
579,0.255,0.235
580,0.245,0.240
581,0.225,0.240
582,0.200,0.235
583,0.170,0.225
584,0.135,0.210
585,0.105,0.190
586,0.075,0.165
587,0.050,0.150
588,0.025,0.145
589,0.005,0.135
590,0.000,0.115
591,0.000,0.110
592,-0.020,0.105
593,-0.025,0.100
594,-0.040,0.095
595,-0.045,0.090
596,-0.060,0.085
597,-0.070,0.075
598,-0.075,0.075
599,-0.080,0.075
600,-0.090,0.075
601,-0.095,0.075
602,-0.095,0.075
603,-0.095,0.075
604,-0.095,0.075
605,-0.095,0.075
606,-0.095,0.085
607,-0.080,0.105
608,-0.075,0.110
609,-0.075,0.105
610,-0.075,0.105
611,-0.075,0.115
612,-0.080,0.110
613,-0.105,0.080
614,-0.110,0.070
615,-0.100,0.075
616,-0.080,0.095
617,-0.080,0.100
618,-0.100,0.085
619,-0.120,0.070
620,-0.135,0.060
621,-0.140,0.060
622,-0.140,0.060
623,-0.140,0.065
624,-0.135,0.065
625,-0.135,0.065
626,-0.140,0.065
627,-0.130,0.070
628,-0.130,0.070
629,-0.135,0.075
630,-0.085,0.110
631,0.165,0.210
632,0.640,0.370
633,0.955,0.430
634,0.735,0.345
635,0.110,0.270
636,-0.090,0.360
637,-0.095,0.370
638,-0.130,0.300
639,-0.135,0.260
640,-0.120,0.255
641,-0.120,0.225
642,-0.120,0.180
643,-0.115,0.140
644,-0.100,0.125
645,-0.095,0.115
646,-0.095,0.115
647,-0.095,0.115
648,-0.085,0.120
649,-0.075,0.120
650,-0.065,0.125
651,-0.050,0.135
652,-0.035,0.140
653,-0.015,0.150
654,0.000,0.155
655,0.000,0.160
656,0.020,0.175
657,0.050,0.190
658,0.080,0.200
659,0.110,0.210
660,0.140,0.220
661,0.175,0.230
662,0.195,0.240
663,0.210,0.250
664,0.225,0.270
665,0.235,0.285
666,0.230,0.295
667,0.220,0.300
668,0.205,0.305
669,0.185,0.295
670,0.155,0.280
671,0.115,0.260
672,0.090,0.250
673,0.065,0.230
674,0.040,0.225
675,0.010,0.210
676,0.000,0.200
677,0.000,0.195
678,-0.005,0.190
679,-0.020,0.175
680,-0.030,0.170
681,-0.045,0.160
682,-0.055,0.155
683,-0.060,0.145
684,-0.070,0.145
685,-0.075,0.145
686,-0.080,0.140
687,-0.085,0.135
688,-0.090,0.135
689,-0.095,0.135
690,-0.095,0.135
691,-0.095,0.135
692,-0.095,0.140
693,-0.080,0.150
694,-0.080,0.165
695,-0.065,0.175
696,-0.065,0.180
697,-0.060,0.190
698,-0.065,0.185
699,-0.080,0.165
700,-0.095,0.145
701,-0.095,0.140
702,-0.080,0.150
703,-0.075,0.165
704,-0.080,0.165
705,-0.100,0.135
706,-0.125,0.115
707,-0.135,0.110
708,-0.135,0.110
709,-0.130,0.115
710,-0.125,0.110
711,-0.125,0.110
712,-0.135,0.110
713,-0.130,0.110
714,-0.115,0.115
715,-0.115,0.115
716,-0.120,0.125
717,-0.005,0.190
718,0.350,0.320
719,0.830,0.460
720,0.945,0.455
721,0.500,0.355
722,-0.025,0.335
723,-0.075,0.450
724,-0.105,0.395
725,-0.125,0.335
726,-0.125,0.310
727,-0.105,0.290
728,-0.105,0.260
729,-0.100,0.215
730,-0.095,0.185
731,-0.095,0.165
732,-0.095,0.155
733,-0.085,0.150
734,-0.075,0.160
735,-0.070,0.165
736,-0.055,0.160
737,-0.050,0.165
738,-0.035,0.175
739,-0.020,0.180
740,-0.005,0.185
741,0.000,0.190
742,0.015,0.200
743,0.040,0.210
744,0.065,0.215
745,0.100,0.225
746,0.130,0.235
747,0.160,0.240
748,0.190,0.255
749,0.210,0.265
750,0.225,0.280
751,0.240,0.300
752,0.240,0.310
753,0.235,0.315
754,0.220,0.320
755,0.200,0.315
756,0.170,0.300
757,0.135,0.285
758,0.100,0.270
759,0.075,0.250
760,0.050,0.230
761,0.025,0.220
762,0.000,0.205
763,0.000,0.190
764,0.000,0.180
765,-0.025,0.170
766,-0.030,0.165
767,-0.045,0.150
768,-0.045,0.150
769,-0.065,0.145
770,-0.065,0.145
771,-0.070,0.140
772,-0.075,0.135
773,-0.085,0.120
774,-0.090,0.130
775,-0.090,0.130
776,-0.095,0.130
777,-0.095,0.125
778,-0.095,0.130
779,-0.095,0.135
780,-0.075,0.145
781,-0.065,0.150
782,-0.065,0.155
783,-0.065,0.155
784,-0.065,0.150
785,-0.075,0.140
786,-0.095,0.120
787,-0.100,0.105
788,-0.090,0.115
789,-0.075,0.130
790,-0.075,0.130
791,-0.090,0.115
792,-0.115,0.095
793,-0.130,0.080
794,-0.135,0.080
795,-0.130,0.080
796,-0.130,0.085
797,-0.125,0.080
798,-0.125,0.080
799,-0.125,0.080
800,-0.125,0.085
801,-0.130,0.080
802,-0.125,0.085
803,-0.075,0.125
804,0.175,0.220
805,0.650,0.380
806,0.980,0.440
807,0.755,0.360
808,0.105,0.265
809,-0.080,0.370
810,-0.085,0.375
811,-0.120,0.300
812,-0.130,0.270
813,-0.115,0.245
814,-0.105,0.225
815,-0.100,0.180
816,-0.100,0.140
817,-0.095,0.120
818,-0.095,0.110
819,-0.080,0.105
820,-0.080,0.105
821,-0.065,0.110
822,-0.065,0.105
823,-0.050,0.105
824,-0.040,0.105
825,-0.025,0.115
826,-0.010,0.115
827,0.000,0.115
828,0.000,0.125
829,0.025,0.135
830,0.055,0.140
831,0.085,0.145
832,0.120,0.155
833,0.150,0.170
834,0.180,0.185
835,0.205,0.190
836,0.225,0.205
837,0.240,0.220
838,0.245,0.230
839,0.240,0.235
840,0.230,0.240
841,0.210,0.235
842,0.185,0.220
843,0.155,0.205
844,0.115,0.190
845,0.090,0.170
846,0.060,0.150
847,0.035,0.135
848,0.005,0.115
849,0.000,0.110
850,0.000,0.095
851,0.000,0.085
852,-0.025,0.075
853,-0.030,0.070
854,-0.040,0.060
855,-0.050,0.055
856,-0.060,0.055
857,-0.065,0.055
858,-0.075,0.045
859,-0.080,0.035
860,-0.090,0.030
861,-0.095,0.030
862,-0.095,0.030
863,-0.095,0.025
864,-0.095,0.030
865,-0.090,0.040
866,-0.075,0.050
867,-0.075,0.055
868,-0.070,0.055
869,-0.075,0.055
870,-0.070,0.055
871,-0.080,0.050
872,-0.095,0.025
873,-0.105,0.005
874,-0.095,0.015
875,-0.085,0.030
876,-0.085,0.030
877,-0.095,0.015
878,-0.120,0.000
879,-0.140,-0.010
880,-0.145,-0.015
881,-0.140,-0.015
882,-0.135,-0.015
883,-0.135,-0.015
884,-0.135,-0.015
885,-0.135,-0.010
886,-0.130,-0.010
887,-0.125,-0.010
888,-0.130,-0.010
889,-0.100,0.010
890,0.105,0.085
891,0.570,0.245
892,0.965,0.315
893,0.835,0.255
894,0.190,0.160
895,-0.080,0.250
896,-0.080,0.285
897,-0.120,0.210
898,-0.125,0.175
899,-0.120,0.140
900,-0.105,0.120
901,-0.100,0.080
902,-0.095,0.045
903,-0.095,0.025
904,-0.085,0.015
905,-0.080,0.010
906,-0.070,0.010
907,-0.060,0.015
908,-0.050,0.015
909,-0.040,0.020
910,-0.025,0.025
911,-0.020,0.030
912,-0.005,0.030
913,0.000,0.035
914,0.010,0.040
915,0.040,0.050
916,0.065,0.055
917,0.090,0.065
918,0.120,0.070
919,0.160,0.080
920,0.190,0.090
921,0.215,0.095
922,0.235,0.110
923,0.250,0.125
924,0.260,0.135
925,0.260,0.140
926,0.250,0.150
927,0.225,0.140
928,0.205,0.125
929,0.170,0.110
930,0.140,0.100
931,0.105,0.080
932,0.080,0.060
933,0.050,0.050
934,0.030,0.035
935,0.010,0.025
936,0.000,0.020
937,0.000,0.005
938,0.000,0.000
939,-0.010,0.000
940,-0.015,0.000
941,-0.035,-0.010
942,-0.040,-0.015
943,-0.050,-0.015
944,-0.055,-0.015
945,-0.065,-0.020
946,-0.075,-0.025
947,-0.080,-0.020
948,-0.080,-0.025
949,-0.085,-0.030
950,-0.080,-0.020
951,-0.065,-0.005
952,-0.055,0.000
953,-0.050,0.000
954,-0.050,0.000
955,-0.045,0.000
956,-0.055,0.000
957,-0.075,-0.005
958,-0.090,-0.030
959,-0.085,-0.035
960,-0.070,-0.020
961,-0.060,-0.010
962,-0.065,-0.015
963,-0.085,-0.035
964,-0.105,-0.055
965,-0.120,-0.065
966,-0.115,-0.060
967,-0.110,-0.050
968,-0.110,-0.045
969,-0.110,-0.045
970,-0.105,-0.050
971,-0.105,-0.045
972,-0.105,-0.045
973,-0.110,-0.050
974,-0.120,-0.045
975,-0.050,-0.005
976,0.245,0.080
977,0.770,0.220
978,0.990,0.235
979,0.620,0.165
980,0.000,0.135
981,-0.085,0.235
982,-0.110,0.195
983,-0.125,0.125
984,-0.115,0.110
985,-0.095,0.095
986,-0.095,0.055
987,-0.095,0.015
988,-0.085,-0.005
989,-0.075,-0.015
990,-0.070,-0.025
991,-0.060,-0.030
992,-0.050,-0.025
993,-0.040,-0.020
994,-0.030,-0.025
995,-0.020,-0.020
996,-0.005,-0.020
997,0.000,-0.010
998,0.000,-0.010
999,0.010,-0.010
1000,0.040,0.000
1001,0.070,0.000
1002,0.095,0.005
1003,0.125,0.010
1004,0.165,0.015
1005,0.195,0.030
1006,0.220,0.035
1007,0.240,0.040
1008,0.255,0.055
1009,0.275,0.070
1010,0.275,0.080
1011,0.275,0.095
1012,0.255,0.100
1013,0.230,0.095
1014,0.205,0.090
1015,0.170,0.070
1016,0.135,0.050
1017,0.105,0.040
1018,0.085,0.020
1019,0.055,0.000
1020,0.025,0.000
1021,0.010,-0.005
1022,0.000,-0.015
1023,0.000,-0.025
1024,0.000,-0.025
1025,-0.010,-0.030
1026,-0.015,-0.030
1027,-0.030,-0.040
1028,-0.035,-0.045
1029,-0.045,-0.045
1030,-0.050,-0.050
1031,-0.060,-0.050
1032,-0.065,-0.055
1033,-0.070,-0.060
1034,-0.070,-0.060
1035,-0.070,-0.050
1036,-0.055,-0.035
1037,-0.050,-0.030
1038,-0.045,-0.030
1039,-0.045,-0.030
1040,-0.050,-0.030
1041,-0.055,-0.035
1042,-0.070,-0.045
1043,-0.090,-0.065
1044,-0.085,-0.075
1045,-0.065,-0.055
1046,-0.055,-0.050
1047,-0.065,-0.060
1048,-0.090,-0.085
1049,-0.110,-0.100
1050,-0.120,-0.100
1051,-0.115,-0.100
1052,-0.115,-0.100
1053,-0.110,-0.100
1054,-0.105,-0.095
1055,-0.110,-0.095
1056,-0.110,-0.090
1057,-0.110,-0.085
1058,-0.110,-0.085
1059,-0.120,-0.085
1060,-0.045,-0.050
1061,0.270,0.040
1062,0.785,0.175
1063,0.980,0.200
1064,0.575,0.120
1065,-0.010,0.105
1066,-0.095,0.200
1067,-0.115,0.150
1068,-0.135,0.085
1069,-0.120,0.065
1070,-0.100,0.055
1071,-0.095,0.025
1072,-0.095,-0.010
1073,-0.085,-0.035
1074,-0.085,-0.050
1075,-0.075,-0.055
1076,-0.070,-0.065
1077,-0.055,-0.065
1078,-0.050,-0.065
1079,-0.035,-0.060
1080,-0.030,-0.055
1081,-0.020,-0.050
1082,-0.005,-0.050
1083,0.000,-0.040
1084,0.005,-0.040
1085,0.025,-0.030
1086,0.055,-0.015
1087,0.085,-0.010
1088,0.115,-0.005
1089,0.145,0.000
1090,0.185,0.010
1091,0.210,0.020
1092,0.225,0.025
1093,0.245,0.030
1094,0.255,0.045
1095,0.265,0.065
1096,0.260,0.070
1097,0.245,0.075
1098,0.220,0.070
1099,0.195,0.055
1100,0.160,0.040
1101,0.125,0.025
1102,0.095,0.010
1103,0.080,0.000
1104,0.050,-0.010
1105,0.025,-0.020
1106,0.000,-0.040
1107,0.000,-0.045
1108,0.000,-0.055
1109,-0.015,-0.055
1110,-0.025,-0.065
1111,-0.030,-0.070
1112,-0.040,-0.070
1113,-0.050,-0.075
1114,-0.070,-0.075
1115,-0.075,-0.075
1116,-0.075,-0.080
1117,-0.080,-0.080
1118,-0.090,-0.085
1119,-0.085,-0.085
1120,-0.085,-0.075
1121,-0.080,-0.070
1122,-0.065,-0.060
1123,-0.060,-0.055
1124,-0.060,-0.050
1125,-0.065,-0.055
1126,-0.065,-0.060
1127,-0.075,-0.065
1128,-0.090,-0.085
1129,-0.095,-0.095
1130,-0.080,-0.080
1131,-0.070,-0.065
1132,-0.070,-0.065
1133,-0.090,-0.090
1134,-0.110,-0.110
1135,-0.120,-0.115
1136,-0.125,-0.115
1137,-0.125,-0.110
1138,-0.130,-0.115
1139,-0.125,-0.110
1140,-0.125,-0.115
1141,-0.120,-0.110
1142,-0.120,-0.110
1143,-0.120,-0.110
1144,-0.130,-0.110
1145,-0.090,-0.070
1146,0.140,0.000
1147,0.635,0.150
1148,0.980,0.220
1149,0.785,0.145
1150,0.120,0.070
1151,-0.095,0.165
1152,-0.095,0.180
1153,-0.115,0.100
1154,-0.120,0.070
1155,-0.120,0.045
1156,-0.105,0.025
1157,-0.105,-0.005
1158,-0.095,-0.040
1159,-0.095,-0.055
1160,-0.085,-0.060
1161,-0.085,-0.070
1162,-0.075,-0.070
1163,-0.070,-0.070
1164,-0.055,-0.065
1165,-0.055,-0.065
1166,-0.040,-0.060
1167,-0.025,-0.055
1168,-0.010,-0.045
1169,0.000,-0.040
1170,0.005,-0.040
1171,0.020,-0.030
1172,0.050,-0.025
1173,0.085,-0.015
1174,0.110,-0.010
1175,0.145,0.000
1176,0.180,0.005
1177,0.205,0.020
1178,0.220,0.030
1179,0.230,0.045
1180,0.240,0.055
1181,0.235,0.065
1182,0.225,0.070
1183,0.205,0.065
1184,0.185,0.060
1185,0.150,0.050
1186,0.115,0.030
1187,0.085,0.010
1188,0.060,0.000
1189,0.030,-0.010
1190,0.005,-0.020
1191,0.000,-0.035
1192,0.000,-0.040
1193,-0.020,-0.050
1194,-0.030,-0.060
1195,-0.040,-0.065
1196,-0.050,-0.070
1197,-0.060,-0.070
1198,-0.070,-0.075
1199,-0.080,-0.085
1200,-0.090,-0.085
1201,-0.095,-0.085
1202,-0.095,-0.085
1203,-0.100,-0.085
1204,-0.105,-0.090
1205,-0.105,-0.095
1206,-0.105,-0.090
1207,-0.095,-0.080
1208,-0.095,-0.070
1209,-0.085,-0.060
1210,-0.080,-0.060
1211,-0.080,-0.060
1212,-0.080,-0.060
1213,-0.085,-0.060
1214,-0.105,-0.075
1215,-0.110,-0.095
1216,-0.105,-0.095
1217,-0.090,-0.080
1218,-0.085,-0.070
1219,-0.105,-0.085
1220,-0.130,-0.110
1221,-0.150,-0.125
1222,-0.150,-0.120
1223,-0.150,-0.120
1224,-0.150,-0.125
1225,-0.145,-0.120
1226,-0.140,-0.120
1227,-0.140,-0.120
1228,-0.140,-0.120
1229,-0.140,-0.120
1230,-0.145,-0.115
1231,-0.125,-0.090
1232,0.040,-0.030
1233,0.485,0.120
1234,0.935,0.225
1235,0.895,0.180
1236,0.260,0.065
1237,-0.080,0.125
1238,-0.090,0.190
1239,-0.120,0.115
1240,-0.145,0.070
1241,-0.130,0.045
1242,-0.120,0.025
1243,-0.110,0.000
1244,-0.110,-0.035
1245,-0.100,-0.060
1246,-0.095,-0.070
1247,-0.095,-0.075
1248,-0.095,-0.075
1249,-0.080,-0.075
1250,-0.075,-0.075
1251,-0.065,-0.070
1252,-0.055,-0.065
1253,-0.040,-0.065
1254,-0.025,-0.055
1255,-0.010,-0.050
1256,0.000,-0.045
1257,0.005,-0.045
1258,0.035,-0.035
1259,0.065,-0.025
1260,0.095,-0.015
1261,0.125,-0.005
1262,0.155,0.000
1263,0.180,0.010
1264,0.205,0.020
1265,0.215,0.035
1266,0.225,0.045
1267,0.230,0.060
1268,0.220,0.070
1269,0.200,0.065
1270,0.180,0.055
1271,0.155,0.045
1272,0.110,0.030
1273,0.085,0.010
1274,0.055,0.000
1275,0.030,-0.015
1276,0.005,-0.025
1277,0.000,-0.035
1278,-0.010,-0.045
1279,-0.020,-0.050
1280,-0.030,-0.065
1281,-0.045,-0.065
1282,-0.050,-0.070
1283,-0.065,-0.070
1284,-0.070,-0.075
1285,-0.090,-0.090
1286,-0.095,-0.095
1287,-0.095,-0.095
1288,-0.095,-0.095
1289,-0.100,-0.095
1290,-0.105,-0.100
1291,-0.115,-0.100
1292,-0.110,-0.095
1293,-0.110,-0.090
1294,-0.095,-0.080
1295,-0.095,-0.070
1296,-0.085,-0.065
1297,-0.085,-0.065
1298,-0.080,-0.065
1299,-0.080,-0.065
1300,-0.095,-0.075
1301,-0.115,-0.100
1302,-0.115,-0.110
1303,-0.100,-0.090
1304,-0.085,-0.080
1305,-0.090,-0.080
1306,-0.115,-0.105
1307,-0.140,-0.125
1308,-0.155,-0.130
1309,-0.155,-0.130
1310,-0.155,-0.130
1311,-0.150,-0.125
1312,-0.150,-0.125
1313,-0.150,-0.125
1314,-0.145,-0.125
1315,-0.150,-0.125
1316,-0.140,-0.120
1317,-0.155,-0.120
1318,-0.090,-0.080
1319,0.200,0.015
1320,0.720,0.180
1321,0.995,0.215
1322,0.655,0.110
1323,0.010,0.050
1324,-0.090,0.170
1325,-0.105,0.155
1326,-0.145,0.090
1327,-0.150,0.055
1328,-0.135,0.035
1329,-0.125,0.010
1330,-0.125,-0.025
1331,-0.115,-0.055
1332,-0.105,-0.070
1333,-0.095,-0.075
1334,-0.095,-0.080
1335,-0.095,-0.080
1336,-0.085,-0.080
1337,-0.075,-0.080
1338,-0.075,-0.075
1339,-0.060,-0.065
1340,-0.045,-0.065
1341,-0.030,-0.065
1342,-0.015,-0.065
1343,0.000,-0.050
1344,0.015,-0.045
1345,0.040,-0.035
1346,0.070,-0.030
1347,0.100,-0.020
1348,0.130,-0.010
1349,0.160,0.000
1350,0.185,0.005
1351,0.205,0.015
1352,0.215,0.030
1353,0.220,0.045
1354,0.215,0.055
1355,0.205,0.060
1356,0.185,0.055
1357,0.160,0.045
1358,0.125,0.030
1359,0.095,0.010
1360,0.065,0.000
1361,0.040,-0.005
1362,0.005,-0.025
1363,0.000,-0.030
1364,-0.010,-0.050
1365,-0.015,-0.055
1366,-0.025,-0.060
1367,-0.035,-0.065
1368,-0.050,-0.070
1369,-0.060,-0.075
1370,-0.075,-0.080
1371,-0.080,-0.090
1372,-0.090,-0.095
1373,-0.095,-0.100
1374,-0.095,-0.100
1375,-0.100,-0.100
1376,-0.110,-0.105
1377,-0.115,-0.105
1378,-0.115,-0.105
1379,-0.120,-0.105
1380,-0.110,-0.095
1381,-0.100,-0.080
1382,-0.095,-0.075
1383,-0.095,-0.075
1384,-0.095,-0.075
1385,-0.090,-0.075
1386,-0.090,-0.075
1387,-0.110,-0.090
1388,-0.125,-0.115
1389,-0.115,-0.115
1390,-0.095,-0.090
1391,-0.090,-0.085
1392,-0.105,-0.100
1393,-0.135,-0.125
1394,-0.155,-0.135
1395,-0.155,-0.135
1396,-0.155,-0.140
1397,-0.155,-0.140
1398,-0.150,-0.135
1399,-0.150,-0.135
1400,-0.155,-0.145
1401,-0.150,-0.140
1402,-0.150,-0.140
1403,-0.160,-0.140
1404,-0.155,-0.130
1405,-0.025,-0.070
1406,0.370,0.065
1407,0.880,0.200
1408,0.960,0.180
1409,0.380,0.055
1410,-0.050,0.070
1411,-0.090,0.165
1412,-0.130,0.110
1413,-0.155,0.060
1414,-0.140,0.040
1415,-0.140,0.015
1416,-0.135,-0.005
1417,-0.135,-0.045
1418,-0.115,-0.070
1419,-0.115,-0.085
1420,-0.105,-0.095
1421,-0.105,-0.095
1422,-0.095,-0.095
1423,-0.095,-0.095
1424,-0.085,-0.090
1425,-0.075,-0.090
1426,-0.060,-0.080
1427,-0.045,-0.075
1428,-0.030,-0.075
1429,-0.015,-0.065
1430,0.000,-0.060
1431,0.015,-0.050
1432,0.040,-0.045
1433,0.070,-0.035
1434,0.105,-0.025
1435,0.135,-0.015
1436,0.170,0.000
1437,0.190,0.000
1438,0.205,0.010
1439,0.210,0.025
1440,0.215,0.040
1441,0.205,0.045
1442,0.195,0.045
1443,0.170,0.040
1444,0.140,0.025
1445,0.105,0.005
1446,0.080,0.000
1447,0.040,-0.015
1448,0.020,-0.025
1449,0.000,-0.050
1450,0.000,-0.060
1451,-0.015,-0.060
1452,-0.025,-0.070
1453,-0.045,-0.085
1454,-0.060,-0.090
1455,-0.065,-0.095
1456,-0.075,-0.095
1457,-0.085,-0.105
1458,-0.090,-0.110
1459,-0.095,-0.105
1460,-0.095,-0.105
1461,-0.100,-0.110
1462,-0.105,-0.115
1463,-0.110,-0.120
1464,-0.115,-0.120
1465,-0.115,-0.115
1466,-0.115,-0.110
1467,-0.105,-0.100
1468,-0.095,-0.085
1469,-0.085,-0.080
1470,-0.085,-0.080
1471,-0.085,-0.075
1472,-0.090,-0.080
1473,-0.095,-0.085
1474,-0.110,-0.100
1475,-0.115,-0.115
1476,-0.100,-0.100
1477,-0.095,-0.090
1478,-0.095,-0.090
1479,-0.115,-0.115
1480,-0.140,-0.135
1481,-0.155,-0.140
1482,-0.160,-0.140
1483,-0.160,-0.140
1484,-0.155,-0.140
1485,-0.155,-0.145
1486,-0.150,-0.145
1487,-0.150,-0.140
1488,-0.150,-0.140
1489,-0.140,-0.140
1490,-0.160,-0.145
1491,-0.110,-0.100
1492,0.130,-0.010
1493,0.635,0.145
1494,0.995,0.205
1495,0.765,0.120
1496,0.100,0.035
1497,-0.080,0.135
1498,-0.105,0.145
1499,-0.135,0.075
1500,-0.145,0.040
1501,-0.130,0.020
1502,-0.130,0.000
1503,-0.125,-0.030
1504,-0.120,-0.070
1505,-0.105,-0.090
1506,-0.105,-0.095
1507,-0.100,-0.100
1508,-0.095,-0.105
1509,-0.095,-0.100
1510,-0.085,-0.100
1511,-0.080,-0.100
1512,-0.070,-0.095
1513,-0.055,-0.095
1514,-0.035,-0.095
1515,-0.025,-0.090
1516,-0.010,-0.080
1517,0.000,-0.075
1518,0.015,-0.065
1519,0.050,-0.060
1520,0.085,-0.050
1521,0.120,-0.035
1522,0.145,-0.025
1523,0.175,-0.010
1524,0.195,0.000
1525,0.210,0.005
1526,0.210,0.020
1527,0.215,0.035
1528,0.205,0.035
1529,0.190,0.035
1530,0.160,0.020
1531,0.130,0.005
1532,0.090,0.000
1533,0.060,-0.020
1534,0.030,-0.035
1535,0.000,-0.050
1536,0.000,-0.060
1537,0.000,-0.065
1538,-0.015,-0.070
1539,-0.040,-0.080
1540,-0.045,-0.085
1541,-0.060,-0.090
1542,-0.065,-0.095
1543,-0.080,-0.105
1544,-0.085,-0.110
1545,-0.090,-0.115
1546,-0.095,-0.110
1547,-0.100,-0.120
1548,-0.105,-0.120
1549,-0.110,-0.120
1550,-0.110,-0.120
1551,-0.115,-0.125
1552,-0.115,-0.120
1553,-0.105,-0.110
1554,-0.095,-0.100
1555,-0.095,-0.090
1556,-0.095,-0.090
1557,-0.095,-0.090
1558,-0.095,-0.085
1559,-0.100,-0.090
1560,-0.115,-0.115
1561,-0.125,-0.130
1562,-0.115,-0.125
1563,-0.100,-0.115
1564,-0.095,-0.105
1565,-0.100,-0.110
1566,-0.125,-0.135
1567,-0.150,-0.150
1568,-0.150,-0.150
1569,-0.150,-0.150
1570,-0.150,-0.150
1571,-0.145,-0.150
1572,-0.140,-0.145
1573,-0.140,-0.145
1574,-0.140,-0.150
1575,-0.140,-0.150
1576,-0.155,-0.150
1577,-0.150,-0.135
1578,-0.005,-0.075
1579,0.440,0.050
1580,0.920,0.150
1581,0.885,0.110
1582,0.270,0.035
1583,-0.085,0.085
1584,-0.120,0.130
1585,-0.155,0.075
1586,-0.165,0.040
1587,-0.140,0.015
1588,-0.130,0.000
1589,-0.125,-0.035
1590,-0.115,-0.065
1591,-0.100,-0.085
1592,-0.100,-0.095
1593,-0.095,-0.100
1594,-0.095,-0.105
1595,-0.080,-0.095
1596,-0.075,-0.100
1597,-0.065,-0.100
1598,-0.050,-0.095
1599,-0.035,-0.085
1600,-0.020,-0.085
1601,-0.010,-0.080
1602,0.000,-0.075
1603,0.015,-0.070
1604,0.040,-0.065
1605,0.070,-0.055
1606,0.105,-0.045
1607,0.140,-0.035
1608,0.175,-0.025
1609,0.195,-0.020
1610,0.215,-0.005
1611,0.230,0.000
1612,0.230,0.015
1613,0.225,0.025
1614,0.220,0.035
1615,0.215,0.030
1616,0.190,0.025
1617,0.150,0.010
1618,0.115,0.000
1619,0.090,-0.010
1620,0.060,-0.030
1621,0.030,-0.045
1622,0.000,-0.050
1623,0.000,-0.060
1624,0.000,-0.065
1625,-0.015,-0.070
1626,-0.035,-0.080
1627,-0.040,-0.085
1628,-0.050,-0.090
1629,-0.060,-0.095
1630,-0.075,-0.100
1631,-0.080,-0.105
1632,-0.090,-0.105
1633,-0.095,-0.110
1634,-0.095,-0.110
1635,-0.095,-0.110
1636,-0.095,-0.110
1637,-0.100,-0.110
1638,-0.095,-0.110
1639,-0.095,-0.095
1640,-0.085,-0.085
1641,-0.085,-0.085
1642,-0.085,-0.090
1643,-0.080,-0.095
1644,-0.080,-0.095
1645,-0.100,-0.105
1646,-0.110,-0.125
1647,-0.100,-0.120
1648,-0.085,-0.100
1649,-0.075,-0.090
1650,-0.090,-0.105
1651,-0.110,-0.125
1652,-0.130,-0.140
1653,-0.135,-0.135
1654,-0.130,-0.135
1655,-0.125,-0.135
1656,-0.125,-0.135
1657,-0.125,-0.140
1658,-0.125,-0.140
1659,-0.120,-0.130
1660,-0.120,-0.130
1661,-0.125,-0.130
1662,-0.140,-0.125
1663,-0.035,-0.080
1664,0.375,0.035
1665,0.885,0.140
1666,0.945,0.135
1667,0.370,0.075
1668,-0.055,0.110
1669,-0.120,0.160
1670,-0.140,0.100
1671,-0.145,0.060
1672,-0.115,0.045
1673,-0.105,0.025
1674,-0.095,0.000
1675,-0.095,-0.035
1676,-0.085,-0.055
1677,-0.080,-0.070
1678,-0.075,-0.075
1679,-0.075,-0.075
1680,-0.060,-0.075
1681,-0.050,-0.070
1682,-0.035,-0.070
1683,-0.025,-0.065
1684,-0.010,-0.055
1685,0.000,-0.055
1686,0.000,-0.050
1687,0.010,-0.045
1688,0.035,-0.040
1689,0.065,-0.035
1690,0.090,-0.025
1691,0.115,-0.015
1692,0.150,-0.010
1693,0.180,-0.005
1694,0.210,0.000
1695,0.230,0.010
1696,0.240,0.025
1697,0.240,0.035
1698,0.250,0.050
1699,0.235,0.055
1700,0.225,0.055
1701,0.200,0.050
1702,0.175,0.045
1703,0.130,0.020
1704,0.105,0.005
1705,0.075,0.000
1706,0.050,-0.010
1707,0.025,-0.025
1708,0.005,-0.035
1709,0.000,-0.040
1710,0.000,-0.050
1711,-0.015,-0.060
1712,-0.020,-0.065
1713,-0.035,-0.065
1714,-0.045,-0.070
1715,-0.055,-0.075
1716,-0.065,-0.080
1717,-0.075,-0.085
1718,-0.080,-0.085
1719,-0.085,-0.090
1720,-0.090,-0.095
1721,-0.095,-0.085
1722,-0.095,-0.080
1723,-0.085,-0.075
1724,-0.080,-0.065
1725,-0.070,-0.055
1726,-0.065,-0.055
1727,-0.070,-0.055
1728,-0.075,-0.060
1729,-0.085,-0.065
1730,-0.105,-0.090
1731,-0.115,-0.105
1732,-0.100,-0.090
1733,-0.085,-0.075
1734,-0.075,-0.070
1735,-0.095,-0.090
1736,-0.120,-0.110
1737,-0.135,-0.120
1738,-0.135,-0.120
1739,-0.135,-0.120
1740,-0.130,-0.120
1741,-0.130,-0.125
1742,-0.130,-0.125
1743,-0.130,-0.125
1744,-0.125,-0.120
1745,-0.125,-0.120
1746,-0.130,-0.120
1747,-0.120,-0.095
1748,0.055,-0.040
1749,0.535,0.115
1750,0.970,0.205
1751,0.855,0.155
1752,0.195,0.065
1753,-0.080,0.140
1754,-0.105,0.175
1755,-0.130,0.110
1756,-0.145,0.070
1757,-0.125,0.050
1758,-0.115,0.030
1759,-0.100,0.005
1760,-0.100,-0.030
1761,-0.090,-0.055
1762,-0.085,-0.070
1763,-0.075,-0.065
1764,-0.075,-0.065
1765,-0.065,-0.070
1766,-0.055,-0.065
1767,-0.045,-0.055
1768,-0.035,-0.055
1769,-0.020,-0.050
1770,-0.005,-0.040
1771,0.000,-0.040
1772,0.010,-0.035
1773,0.035,-0.025
1774,0.065,-0.020
1775,0.095,-0.015
1776,0.120,-0.005
1777,0.155,0.000
1778,0.185,0.010
1779,0.205,0.030
1780,0.215,0.030
1781,0.240,0.045
1782,0.250,0.060
1783,0.250,0.080
1784,0.235,0.080
1785,0.215,0.080
1786,0.195,0.075
1787,0.165,0.055
1788,0.125,0.035
1789,0.090,0.020
1790,0.060,0.000
1791,0.035,0.000
1792,0.015,-0.015
1793,0.000,-0.020
1794,0.000,-0.030
1795,-0.005,-0.035
1796,-0.010,-0.040
1797,-0.035,-0.060
1798,-0.040,-0.065
1799,-0.055,-0.065
1800,-0.060,-0.070
1801,-0.075,-0.075
1802,-0.080,-0.075
1803,-0.090,-0.080
1804,-0.090,-0.085
1805,-0.090,-0.085
1806,-0.095,-0.080
1807,-0.095,-0.080
1808,-0.095,-0.070
1809,-0.085,-0.065
1810,-0.075,-0.055
1811,-0.070,-0.045
1812,-0.070,-0.045
1813,-0.075,-0.045
1814,-0.075,-0.050
1815,-0.085,-0.055
1816,-0.100,-0.075
1817,-0.100,-0.085
1818,-0.085,-0.075
1819,-0.075,-0.055
1820,-0.080,-0.055
1821,-0.105,-0.080
1822,-0.125,-0.100
1823,-0.130,-0.100
1824,-0.130,-0.095
1825,-0.125,-0.105
1826,-0.125,-0.105
1827,-0.125,-0.100
1828,-0.120,-0.100
1829,-0.120,-0.100
1830,-0.120,-0.100
1831,-0.125,-0.105
1832,-0.125,-0.100
1833,-0.060,-0.060
1834,0.265,0.045
1835,0.800,0.200
1836,0.995,0.225
1837,0.560,0.120
1838,0.000,0.085
1839,-0.085,0.190
1840,-0.100,0.160
1841,-0.130,0.100
1842,-0.135,0.070
1843,-0.120,0.050
1844,-0.110,0.030
1845,-0.105,-0.005
1846,-0.105,-0.035
1847,-0.095,-0.055
1848,-0.090,-0.060
1849,-0.080,-0.060
1850,-0.075,-0.060
1851,-0.065,-0.065
1852,-0.055,-0.055
1853,-0.045,-0.055
1854,-0.040,-0.050
1855,-0.025,-0.040
1856,-0.005,-0.040
1857,0.000,-0.035
1858,0.010,-0.025
1859,0.035,-0.020
1860,0.065,-0.010
1861,0.095,0.000
1862,0.125,0.005
1863,0.155,0.005
1864,0.180,0.015
1865,0.205,0.025
1866,0.220,0.040
1867,0.230,0.055
1868,0.235,0.070
1869,0.230,0.085
1870,0.215,0.080
1871,0.200,0.075
1872,0.170,0.065
1873,0.135,0.045
1874,0.100,0.030
1875,0.075,0.015
1876,0.040,0.000
1877,0.020,0.000
1878,0.000,-0.015
1879,0.000,-0.020
1880,-0.010,-0.025
1881,-0.020,-0.035
1882,-0.035,-0.045
1883,-0.040,-0.050
1884,-0.060,-0.060
1885,-0.065,-0.065
1886,-0.075,-0.065
1887,-0.080,-0.070
1888,-0.090,-0.070
1889,-0.095,-0.075
1890,-0.095,-0.075
1891,-0.100,-0.075
1892,-0.105,-0.080
1893,-0.105,-0.080
1894,-0.095,-0.070
1895,-0.095,-0.055
1896,-0.085,-0.045
1897,-0.085,-0.040
1898,-0.080,-0.040
1899,-0.075,-0.040
1900,-0.075,-0.040
1901,-0.095,-0.050
1902,-0.115,-0.075
1903,-0.115,-0.080
1904,-0.090,-0.065
1905,-0.080,-0.050
1906,-0.080,-0.050
1907,-0.095,-0.075
1908,-0.130,-0.100
1909,-0.135,-0.105
1910,-0.130,-0.100
1911,-0.130,-0.100
1912,-0.130,-0.105
1913,-0.130,-0.100
1914,-0.130,-0.100
1915,-0.125,-0.100
1916,-0.125,-0.100
1917,-0.130,-0.095
1918,-0.135,-0.090
1919,-0.040,-0.040
1920,0.325,0.085
1921,0.850,0.230
1922,0.975,0.235
1923,0.465,0.110
1924,-0.015,0.105
1925,-0.080,0.210
1926,-0.105,0.160
1927,-0.135,0.110
1928,-0.130,0.080
1929,-0.125,0.055
1930,-0.115,0.035
1931,-0.110,0.000
1932,-0.095,-0.025
1933,-0.095,-0.045
1934,-0.085,-0.050
1935,-0.080,-0.050
1936,-0.070,-0.045
1937,-0.065,-0.045
1938,-0.055,-0.040
1939,-0.045,-0.035
1940,-0.035,-0.030
1941,-0.020,-0.030
1942,-0.005,-0.025
1943,0.000,-0.020
1944,0.005,-0.015
1945,0.030,-0.005
1946,0.060,0.000
1947,0.095,0.005
1948,0.125,0.010
1949,0.155,0.025
1950,0.185,0.040
1951,0.205,0.050
1952,0.220,0.065
1953,0.230,0.075
1954,0.230,0.090
1955,0.225,0.105
1956,0.220,0.105
1957,0.195,0.090
1958,0.170,0.085
1959,0.130,0.065
1960,0.100,0.055
1961,0.065,0.030
1962,0.040,0.020
1963,0.015,0.005
1964,0.000,0.000
1965,0.000,-0.005
1966,-0.010,-0.010
1967,-0.025,-0.020
1968,-0.035,-0.025
1969,-0.050,-0.035
1970,-0.060,-0.040
1971,-0.070,-0.045
1972,-0.075,-0.050
1973,-0.085,-0.050
1974,-0.090,-0.055
1975,-0.095,-0.055
1976,-0.095,-0.060
1977,-0.095,-0.065
1978,-0.100,-0.065
1979,-0.095,-0.065
1980,-0.095,-0.055
1981,-0.090,-0.045
1982,-0.085,-0.030
1983,-0.075,-0.025
1984,-0.070,-0.025
1985,-0.070,-0.025
1986,-0.075,-0.025
1987,-0.090,-0.045
1988,-0.105,-0.065
1989,-0.105,-0.070
1990,-0.085,-0.050
1991,-0.075,-0.040
1992,-0.080,-0.045
1993,-0.105,-0.075
1994,-0.125,-0.095
1995,-0.135,-0.095
1996,-0.135,-0.095
1997,-0.135,-0.095
1998,-0.130,-0.095
1999,-0.130,-0.095
2000,-0.125,-0.090
2001,-0.125,-0.085
2002,-0.130,-0.085
2003,-0.130,-0.085
2004,-0.135,-0.070
2005,0.000,-0.010
2006,0.425,0.130
2007,0.910,0.255
2008,0.930,0.225
2009,0.350,0.110
2010,-0.040,0.140
2011,-0.080,0.215
2012,-0.115,0.155
2013,-0.130,0.110
2014,-0.125,0.080
2015,-0.110,0.060
2016,-0.105,0.030
2017,-0.095,0.000
2018,-0.095,-0.025
2019,-0.095,-0.035
2020,-0.085,-0.040
2021,-0.075,-0.040
2022,-0.075,-0.040
2023,-0.065,-0.040
2024,-0.055,-0.040
2025,-0.045,-0.030
2026,-0.035,-0.025
2027,-0.020,-0.020
2028,-0.005,-0.020
2029,0.000,-0.015
2030,0.015,-0.010
2031,0.040,-0.005
2032,0.070,0.000
2033,0.100,0.010
2034,0.130,0.020
2035,0.170,0.035
2036,0.190,0.050
2037,0.205,0.065
2038,0.210,0.070
2039,0.230,0.085
2040,0.225,0.095
2041,0.220,0.105
2042,0.205,0.105
2043,0.195,0.100
2044,0.155,0.080
2045,0.130,0.065
2046,0.090,0.050
2047,0.060,0.030
2048,0.030,0.015
2049,0.015,0.005
2050,0.000,0.000
2051,-0.005,-0.005
2052,-0.015,-0.010
2053,-0.025,-0.015
2054,-0.040,-0.020
2055,-0.050,-0.030
2056,-0.060,-0.035
2057,-0.070,-0.040
2058,-0.075,-0.045
2059,-0.085,-0.050
2060,-0.095,-0.055
2061,-0.095,-0.060
2062,-0.095,-0.060
2063,-0.100,-0.065
2064,-0.100,-0.065
2065,-0.100,-0.065
2066,-0.095,-0.050
2067,-0.095,-0.040
2068,-0.085,-0.030
2069,-0.080,-0.030
2070,-0.075,-0.030
2071,-0.075,-0.030
2072,-0.085,-0.035
2073,-0.100,-0.055
2074,-0.105,-0.070
2075,-0.090,-0.060
2076,-0.075,-0.045
2077,-0.070,-0.040
2078,-0.085,-0.055
2079,-0.110,-0.080
2080,-0.135,-0.095
2081,-0.135,-0.090
2082,-0.135,-0.085
2083,-0.135,-0.100
2084,-0.135,-0.100
2085,-0.130,-0.095
2086,-0.130,-0.095
2087,-0.125,-0.095
2088,-0.125,-0.095
2089,-0.145,-0.090
2090,-0.100,-0.050
2091,0.140,0.020
2092,0.655,0.195
2093,0.990,0.250
2094,0.735,0.170
2095,0.100,0.085
2096,-0.070,0.185
2097,-0.095,0.185
2098,-0.130,0.120
2099,-0.140,0.085
2100,-0.120,0.060
2101,-0.105,0.035
2102,-0.105,0.005
2103,-0.105,-0.020
2104,-0.095,-0.045
2105,-0.095,-0.050
2106,-0.095,-0.055
2107,-0.085,-0.060
2108,-0.080,-0.055
2109,-0.070,-0.055
2110,-0.055,-0.050
2111,-0.045,-0.045
2112,-0.035,-0.045
2113,-0.015,-0.040
2114,0.000,-0.035
2115,0.005,-0.030
2116,0.020,-0.025
2117,0.050,-0.015
2118,0.080,-0.005
2119,0.110,0.000
2120,0.140,0.005
2121,0.175,0.010
2122,0.200,0.025
2123,0.210,0.035
2124,0.230,0.055
2125,0.230,0.065
2126,0.225,0.080
2127,0.220,0.085
2128,0.200,0.080
2129,0.170,0.065
2130,0.135,0.050
2131,0.105,0.040
2132,0.080,0.020
2133,0.050,0.000
2134,0.025,0.000
2135,0.005,-0.005
2136,0.000,-0.015
2137,0.000,-0.025
2138,-0.020,-0.040
2139,-0.025,-0.040
2140,-0.050,-0.050
2141,-0.055,-0.060
2142,-0.070,-0.065
2143,-0.075,-0.070
2144,-0.085,-0.070
2145,-0.090,-0.080
2146,-0.095,-0.085
2147,-0.100,-0.085
2148,-0.105,-0.085
2149,-0.110,-0.090
2150,-0.110,-0.085
2151,-0.100,-0.080
2152,-0.095,-0.070
2153,-0.095,-0.065
2154,-0.095,-0.065
2155,-0.085,-0.065
2156,-0.075,-0.065
2157,-0.080,-0.065
2158,-0.100,-0.080
2159,-0.120,-0.105
2160,-0.115,-0.110
2161,-0.095,-0.090
2162,-0.085,-0.075
2163,-0.085,-0.075
2164,-0.110,-0.105
2165,-0.135,-0.120
2166,-0.145,-0.125
2167,-0.140,-0.125
2168,-0.135,-0.120
2169,-0.135,-0.120
2170,-0.135,-0.125
2171,-0.135,-0.125
2172,-0.130,-0.125
2173,-0.130,-0.125
2174,-0.150,-0.125
2175,-0.145,-0.100
2176,-0.005,-0.055
2177,0.440,0.105
2178,0.920,0.210
2179,0.910,0.165
2180,0.295,0.065
2181,-0.055,0.115
2182,-0.095,0.170
2183,-0.120,0.110
2184,-0.130,0.070
2185,-0.130,0.045
2186,-0.120,0.020
2187,-0.120,-0.005
2188,-0.105,-0.040
2189,-0.105,-0.070
2190,-0.095,-0.080
2191,-0.095,-0.085
2192,-0.090,-0.085
2193,-0.090,-0.085
2194,-0.080,-0.080
2195,-0.070,-0.080
2196,-0.055,-0.070
2197,-0.035,-0.065
2198,-0.025,-0.065
2199,-0.010,-0.060
2200,0.000,-0.050
2201,0.015,-0.045
2202,0.040,-0.040
2203,0.075,-0.030
2204,0.105,-0.020
2205,0.135,-0.010
2206,0.165,-0.005
2207,0.190,0.000
2208,0.215,0.010
2209,0.230,0.025
2210,0.240,0.040
2211,0.235,0.040
2212,0.225,0.055
2213,0.205,0.055
2214,0.190,0.050
2215,0.145,0.030
2216,0.120,0.020
2217,0.085,0.000
2218,0.065,-0.005
2219,0.025,-0.020
2220,0.005,-0.030
2221,0.000,-0.040
2222,0.000,-0.045
2223,-0.020,-0.065
2224,-0.025,-0.065
2225,-0.040,-0.065
2226,-0.055,-0.075
2227,-0.075,-0.085
2228,-0.080,-0.090
2229,-0.085,-0.090
2230,-0.090,-0.100
2231,-0.095,-0.105
2232,-0.100,-0.100
2233,-0.100,-0.100
2234,-0.105,-0.105
2235,-0.100,-0.105
2236,-0.095,-0.100
2237,-0.085,-0.085
2238,-0.080,-0.075
2239,-0.080,-0.075
2240,-0.080,-0.075
2241,-0.080,-0.075
2242,-0.085,-0.075
2243,-0.105,-0.095
2244,-0.115,-0.115
2245,-0.100,-0.110
2246,-0.085,-0.090
2247,-0.085,-0.085
2248,-0.095,-0.100
2249,-0.120,-0.125
2250,-0.140,-0.130
2251,-0.140,-0.135
2252,-0.140,-0.135
2253,-0.135,-0.135
2254,-0.130,-0.130
2255,-0.130,-0.130
2256,-0.130,-0.130
2257,-0.125,-0.130
2258,-0.125,-0.130
2259,-0.135,-0.130
2260,-0.125,-0.105
2261,0.060,-0.045
2262,0.560,0.090
2263,0.970,0.165
2264,0.795,0.110
2265,0.150,0.055
2266,-0.090,0.130
2267,-0.120,0.140
2268,-0.150,0.070
2269,-0.145,0.045
2270,-0.125,0.030
2271,-0.110,0.010
2272,-0.110,-0.020
2273,-0.100,-0.055
2274,-0.095,-0.075
2275,-0.090,-0.085
2276,-0.090,-0.090
2277,-0.085,-0.095
2278,-0.070,-0.090
2279,-0.060,-0.085
2280,-0.050,-0.085
2281,-0.040,-0.075
2282,-0.025,-0.075
2283,-0.010,-0.070
2284,0.000,-0.065
2285,0.005,-0.060
2286,0.030,-0.050
2287,0.065,-0.045
2288,0.090,-0.040
2289,0.120,-0.030
2290,0.155,-0.020
2291,0.190,-0.010
2292,0.210,-0.005
2293,0.230,0.000
2294,0.245,0.005
2295,0.250,0.025
2296,0.250,0.035
2297,0.240,0.040
2298,0.210,0.045
2299,0.190,0.040
2300,0.150,0.020
2301,0.120,0.010
2302,0.090,0.000
2303,0.065,-0.010
2304,0.040,-0.025
2305,0.010,-0.035
2306,0.000,-0.045
2307,0.000,-0.060
2308,-0.005,-0.065
2309,-0.020,-0.070
2310,-0.035,-0.075
2311,-0.040,-0.080
2312,-0.050,-0.090
2313,-0.070,-0.090
2314,-0.075,-0.090
2315,-0.080,-0.095
2316,-0.085,-0.100
2317,-0.090,-0.100
2318,-0.095,-0.090
2319,-0.095,-0.085
2320,-0.080,-0.075
2321,-0.075,-0.075
2322,-0.065,-0.065
2323,-0.065,-0.065
2324,-0.060,-0.065
2325,-0.065,-0.065
2326,-0.075,-0.070
2327,-0.090,-0.080
2328,-0.100,-0.095
2329,-0.090,-0.090
2330,-0.075,-0.075
2331,-0.070,-0.070
2332,-0.085,-0.085
2333,-0.110,-0.110
2334,-0.130,-0.125
2335,-0.130,-0.120
2336,-0.130,-0.120
2337,-0.125,-0.120
2338,-0.125,-0.125
2339,-0.125,-0.125
2340,-0.120,-0.120
2341,-0.120,-0.125
2342,-0.125,-0.125
2343,-0.130,-0.120
2344,-0.115,-0.095
2345,0.065,-0.035
2346,0.550,0.100
2347,0.970,0.180
2348,0.830,0.135
2349,0.175,0.065
2350,-0.080,0.145
2351,-0.110,0.155
2352,-0.130,0.090
2353,-0.135,0.055
2354,-0.110,0.035
2355,-0.105,0.010
2356,-0.100,-0.010
2357,-0.095,-0.040
2358,-0.095,-0.060
2359,-0.085,-0.070
2360,-0.080,-0.075
2361,-0.070,-0.075
2362,-0.065,-0.075
2363,-0.055,-0.070
2364,-0.045,-0.070
2365,-0.030,-0.060
2366,-0.015,-0.060
2367,-0.005,-0.055
2368,0.000,-0.045
2369,0.010,-0.035
2370,0.035,-0.030
2371,0.065,-0.025
2372,0.095,-0.015
2373,0.125,-0.005
2374,0.155,0.000
2375,0.185,0.005
2376,0.215,0.015
2377,0.235,0.025
2378,0.250,0.040
2379,0.250,0.055
2380,0.240,0.065
2381,0.230,0.075
2382,0.215,0.070
2383,0.190,0.060
2384,0.160,0.050
2385,0.125,0.040
2386,0.090,0.020
2387,0.065,0.000
2388,0.040,-0.005
2389,0.010,-0.020
2390,0.000,-0.025
2391,0.000,-0.035
2392,0.000,-0.045
2393,-0.015,-0.050
2394,-0.035,-0.060
2395,-0.045,-0.065
2396,-0.055,-0.070
2397,-0.060,-0.075
2398,-0.070,-0.075
2399,-0.080,-0.080
2400,-0.090,-0.085
2401,-0.085,-0.085
2402,-0.090,-0.085
2403,-0.095,-0.085
2404,-0.095,-0.080
2405,-0.085,-0.065
2406,-0.075,-0.050
2407,-0.075,-0.050
2408,-0.070,-0.050
2409,-0.065,-0.050
2410,-0.075,-0.050
2411,-0.085,-0.065
2412,-0.095,-0.085
2413,-0.090,-0.085
2414,-0.075,-0.070
2415,-0.065,-0.065
2416,-0.075,-0.070
2417,-0.100,-0.090
2418,-0.115,-0.105
2419,-0.125,-0.110
2420,-0.125,-0.115
2421,-0.120,-0.105
2422,-0.120,-0.105
2423,-0.120,-0.110
2424,-0.115,-0.105
2425,-0.110,-0.105
2426,-0.115,-0.105
2427,-0.110,-0.105
2428,-0.120,-0.100
2429,-0.015,-0.045
2430,0.365,0.070
2431,0.880,0.220
2432,0.985,0.210
2433,0.445,0.105
2434,-0.040,0.105
2435,-0.085,0.200
2436,-0.105,0.140
2437,-0.125,0.090
2438,-0.115,0.065
2439,-0.105,0.050
2440,-0.095,0.020
2441,-0.095,-0.010
2442,-0.095,-0.040
2443,-0.080,-0.055
2444,-0.075,-0.060
2445,-0.070,-0.065
2446,-0.055,-0.055
2447,-0.050,-0.050
2448,-0.040,-0.050
2449,-0.035,-0.055
2450,-0.020,-0.045
2451,0.000,-0.040
2452,0.000,-0.040
2453,0.005,-0.040
2454,0.020,-0.030
2455,0.050,-0.020
2456,0.080,-0.010
2457,0.105,-0.005
2458,0.145,0.000
2459,0.180,0.005
2460,0.200,0.020
2461,0.210,0.030
2462,0.225,0.045
2463,0.240,0.060
2464,0.245,0.070
2465,0.235,0.080
2466,0.220,0.080
2467,0.200,0.075
2468,0.175,0.065
2469,0.140,0.055
2470,0.110,0.035
2471,0.080,0.020
2472,0.055,0.005
2473,0.020,-0.010
2474,0.005,-0.015
2475,0.000,-0.020
2476,0.000,-0.025
2477,-0.015,-0.035
2478,-0.020,-0.040
2479,-0.040,-0.045
2480,-0.045,-0.055
2481,-0.060,-0.065
2482,-0.065,-0.065
2483,-0.075,-0.065
2484,-0.080,-0.070
2485,-0.090,-0.075
2486,-0.095,-0.075
2487,-0.095,-0.075
2488,-0.095,-0.075
2489,-0.095,-0.070
2490,-0.085,-0.060
2491,-0.075,-0.055
2492,-0.070,-0.045
2493,-0.075,-0.045
2494,-0.075,-0.045
2495,-0.075,-0.045
2496,-0.085,-0.055
2497,-0.100,-0.075
2498,-0.105,-0.085
2499,-0.085,-0.065
2500,-0.075,-0.050
2501,-0.080,-0.055
2502,-0.105,-0.080
2503,-0.125,-0.105
2504,-0.125,-0.105
2505,-0.125,-0.100
2506,-0.125,-0.100
2507,-0.120,-0.100
2508,-0.120,-0.095
2509,-0.120,-0.095
2510,-0.120,-0.095
2511,-0.115,-0.095
2512,-0.115,-0.090
2513,-0.120,-0.080
2514,-0.035,-0.035
2515,0.310,0.075
2516,0.835,0.235
2517,1.000,0.235
2518,0.515,0.120
2519,-0.015,0.105
2520,-0.080,0.215
2521,-0.100,0.170
2522,-0.135,0.110
2523,-0.115,0.085
2524,-0.105,0.060
2525,-0.105,0.035
2526,-0.105,0.000
2527,-0.095,-0.025
2528,-0.095,-0.040
2529,-0.090,-0.045
2530,-0.090,-0.050
2531,-0.070,-0.045
2532,-0.055,-0.045
2533,-0.045,-0.040
2534,-0.040,-0.040
2535,-0.025,-0.040
2536,-0.010,-0.035
2537,0.000,-0.030
2538,0.000,-0.025
2539,0.015,-0.020
2540,0.045,-0.010
2541,0.075,-0.005
2542,0.100,0.000
2543,0.125,0.005
2544,0.155,0.020
2545,0.185,0.030
2546,0.205,0.040
2547,0.215,0.055
2548,0.230,0.070
2549,0.240,0.085
2550,0.235,0.090
2551,0.220,0.095
2552,0.200,0.085
2553,0.170,0.080
2554,0.140,0.060
2555,0.105,0.045
2556,0.080,0.025
2557,0.055,0.015
2558,0.025,0.005
2559,0.000,0.000
2560,0.000,-0.015
2561,0.000,-0.015
2562,-0.015,-0.020
2563,-0.025,-0.035
2564,-0.040,-0.040
2565,-0.045,-0.040
2566,-0.050,-0.045
2567,-0.065,-0.050
2568,-0.075,-0.055
2569,-0.080,-0.060
2570,-0.080,-0.055
2571,-0.090,-0.060
2572,-0.095,-0.065
2573,-0.095,-0.065
2574,-0.095,-0.050
2575,-0.090,-0.045
2576,-0.075,-0.035
2577,-0.070,-0.025
2578,-0.065,-0.025
2579,-0.065,-0.025
2580,-0.065,-0.030
2581,-0.075,-0.040
2582,-0.090,-0.055
2583,-0.100,-0.070
2584,-0.090,-0.060
2585,-0.075,-0.040
2586,-0.075,-0.035
2587,-0.095,-0.055
2588,-0.125,-0.080
2589,-0.135,-0.090
2590,-0.135,-0.090
2591,-0.130,-0.090
2592,-0.125,-0.095
2593,-0.125,-0.095
2594,-0.125,-0.090
2595,-0.125,-0.090
2596,-0.125,-0.085
2597,-0.125,-0.085
2598,-0.125,-0.080
2599,-0.080,-0.045
2600,0.190,0.045
2601,0.705,0.210
2602,1.005,0.255
2603,0.695,0.155
2604,0.050,0.085
2605,-0.075,0.200
2606,-0.095,0.200
2607,-0.130,0.120
2608,-0.130,0.085
2609,-0.120,0.065
2610,-0.110,0.040
2611,-0.110,0.005
2612,-0.105,-0.020
2613,-0.100,-0.040
2614,-0.095,-0.045
2615,-0.095,-0.050
2616,-0.085,-0.050
2617,-0.075,-0.045
2618,-0.065,-0.040
2619,-0.055,-0.040
2620,-0.040,-0.035
2621,-0.025,-0.030
2622,-0.005,-0.020
2623,0.000,-0.010
2624,0.005,-0.010
2625,0.025,-0.005
2626,0.055,0.000
2627,0.080,0.005
2628,0.110,0.010
2629,0.140,0.025
2630,0.170,0.040
2631,0.195,0.050
2632,0.210,0.060
2633,0.220,0.070
2634,0.230,0.085
2635,0.225,0.095
2636,0.215,0.105
2637,0.195,0.100
2638,0.170,0.085
2639,0.135,0.075
2640,0.105,0.055
2641,0.075,0.035
2642,0.050,0.020
2643,0.025,0.005
2644,0.000,0.000
2645,0.000,-0.010
2646,-0.005,-0.015
2647,-0.015,-0.020
2648,-0.030,-0.030
2649,-0.045,-0.040
2650,-0.050,-0.045
2651,-0.060,-0.050
2652,-0.070,-0.060
2653,-0.075,-0.065
2654,-0.090,-0.065
2655,-0.090,-0.065
2656,-0.095,-0.065
2657,-0.095,-0.070
2658,-0.095,-0.075
2659,-0.095,-0.065
2660,-0.095,-0.055
2661,-0.085,-0.045
2662,-0.080,-0.035
2663,-0.070,-0.030
2664,-0.070,-0.035
2665,-0.075,-0.035
2666,-0.080,-0.040
2667,-0.095,-0.055
2668,-0.110,-0.075
2669,-0.105,-0.080
2670,-0.085,-0.060
2671,-0.080,-0.050
2672,-0.090,-0.060
2673,-0.120,-0.085
2674,-0.145,-0.100
2675,-0.145,-0.100
2676,-0.135,-0.095
2677,-0.130,-0.095
2678,-0.130,-0.095
2679,-0.130,-0.095
2680,-0.125,-0.095
2681,-0.125,-0.095
2682,-0.125,-0.100
2683,-0.125,-0.095
2684,-0.120,-0.070
2685,0.040,0.000
2686,0.480,0.140
2687,0.945,0.250
2688,0.910,0.205
2689,0.265,0.080
2690,-0.065,0.135
2691,-0.085,0.205
2692,-0.115,0.130
2693,-0.130,0.090
2694,-0.125,0.060
2695,-0.120,0.040
2696,-0.120,0.010
2697,-0.110,-0.010
2698,-0.100,-0.035
2699,-0.095,-0.050
2700,-0.095,-0.050
2701,-0.090,-0.050
2702,-0.075,-0.055
2703,-0.070,-0.055
2704,-0.055,-0.050
2705,-0.045,-0.045
2706,-0.035,-0.040
2707,-0.020,-0.040
2708,-0.005,-0.030
2709,0.000,-0.020
2710,0.015,-0.015
2711,0.045,-0.010
2712,0.070,0.000
2713,0.100,0.005
2714,0.130,0.010
2715,0.160,0.025
2716,0.185,0.040
2717,0.205,0.050
2718,0.220,0.060
2719,0.230,0.075
2720,0.230,0.090
2721,0.225,0.095
2722,0.205,0.090
2723,0.185,0.085
2724,0.155,0.065
2725,0.115,0.050
2726,0.090,0.030
2727,0.055,0.010
2728,0.035,0.000
2729,0.005,0.000
2730,0.000,-0.015
2731,0.000,-0.025
2732,-0.010,-0.030
2733,-0.025,-0.035
2734,-0.035,-0.040
2735,-0.050,-0.050
2736,-0.060,-0.050
2737,-0.070,-0.060
2738,-0.075,-0.065
2739,-0.090,-0.065
2740,-0.095,-0.070
2741,-0.095,-0.070
2742,-0.095,-0.075
2743,-0.095,-0.075
2744,-0.100,-0.070
2745,-0.095,-0.070
2746,-0.085,-0.055
2747,-0.080,-0.045
2748,-0.075,-0.045
2749,-0.075,-0.040
2750,-0.070,-0.040
2751,-0.075,-0.040
2752,-0.090,-0.055
2753,-0.105,-0.075
2754,-0.105,-0.080
2755,-0.090,-0.065
2756,-0.080,-0.055
2757,-0.090,-0.060
2758,-0.115,-0.090
2759,-0.135,-0.115
2760,-0.135,-0.115
2761,-0.135,-0.115
2762,-0.130,-0.110
2763,-0.130,-0.110
2764,-0.130,-0.110
2765,-0.130,-0.110
2766,-0.125,-0.105
2767,-0.125,-0.105
2768,-0.130,-0.105
2769,-0.130,-0.090
2770,-0.010,-0.025
2771,0.365,0.100
2772,0.865,0.230
2773,0.970,0.220
2774,0.425,0.095
2775,-0.045,0.100
2776,-0.080,0.200
2777,-0.105,0.145
2778,-0.135,0.095
2779,-0.130,0.065
2780,-0.125,0.040
2781,-0.115,0.015
2782,-0.115,-0.015
2783,-0.110,-0.035
2784,-0.100,-0.050
2785,-0.090,-0.055
2786,-0.085,-0.055
2787,-0.070,-0.050
2788,-0.070,-0.050
2789,-0.060,-0.050
2790,-0.050,-0.050
2791,-0.035,-0.045
2792,-0.020,-0.045
2793,-0.010,-0.040
2794,0.000,-0.030
2795,0.005,-0.025
2796,0.030,-0.020
2797,0.065,-0.015
2798,0.095,-0.005
2799,0.120,0.000
2800,0.155,0.010
2801,0.180,0.025
2802,0.200,0.035
2803,0.215,0.050
2804,0.220,0.060
2805,0.225,0.065
2806,0.220,0.080
2807,0.205,0.080
2808,0.180,0.070
2809,0.150,0.055
2810,0.115,0.040
2811,0.095,0.025
2812,0.060,0.010
2813,0.035,0.000
2814,0.005,-0.010
2815,0.000,-0.020
2816,0.000,-0.025
2817,-0.015,-0.030
2818,-0.030,-0.040
2819,-0.035,-0.045
2820,-0.050,-0.050
2821,-0.065,-0.060
2822,-0.075,-0.065
2823,-0.080,-0.070
2824,-0.090,-0.070
2825,-0.095,-0.075
2826,-0.095,-0.080
2827,-0.100,-0.080
2828,-0.105,-0.085
2829,-0.110,-0.085
2830,-0.105,-0.075
2831,-0.095,-0.070
2832,-0.085,-0.055
2833,-0.090,-0.050
2834,-0.085,-0.050
2835,-0.085,-0.050
2836,-0.085,-0.050
2837,-0.095,-0.060
2838,-0.115,-0.080
2839,-0.115,-0.090
2840,-0.095,-0.075
2841,-0.085,-0.065
2842,-0.085,-0.065
2843,-0.105,-0.085
2844,-0.130,-0.105
2845,-0.140,-0.110
2846,-0.145,-0.110
2847,-0.140,-0.105
2848,-0.135,-0.105
2849,-0.135,-0.110
2850,-0.135,-0.110
2851,-0.130,-0.105
2852,-0.130,-0.105
2853,-0.140,-0.110
2854,-0.150,-0.105
2855,-0.085,-0.065
2856,0.210,0.030
2857,0.745,0.175
2858,0.995,0.195
2859,0.580,0.110
2860,-0.010,0.080
2861,-0.105,0.185
2862,-0.135,0.145
2863,-0.155,0.085
2864,-0.140,0.060
2865,-0.130,0.035
2866,-0.120,0.015
2867,-0.120,-0.015
2868,-0.100,-0.040
2869,-0.095,-0.060
2870,-0.095,-0.065
2871,-0.095,-0.065
2872,-0.085,-0.065
2873,-0.075,-0.065
2874,-0.065,-0.065
2875,-0.055,-0.055
2876,-0.040,-0.045
2877,-0.025,-0.040
2878,-0.010,-0.040
2879,0.000,-0.030
2880,0.005,-0.030
2881,0.030,-0.025
2882,0.065,-0.020
2883,0.095,-0.010
2884,0.125,0.000
2885,0.160,0.000
2886,0.190,0.005
2887,0.210,0.020
2888,0.225,0.035
2889,0.235,0.045
2890,0.230,0.060
2891,0.220,0.065
2892,0.215,0.075
2893,0.200,0.070
2894,0.170,0.065
2895,0.130,0.040
2896,0.105,0.025
2897,0.075,0.010
2898,0.045,0.000
2899,0.010,-0.010
2900,0.000,-0.020
2901,0.000,-0.030
2902,-0.005,-0.030
2903,-0.020,-0.040
2904,-0.035,-0.045
2905,-0.040,-0.050
2906,-0.060,-0.060
2907,-0.065,-0.065
2908,-0.070,-0.070
2909,-0.080,-0.075
2910,-0.090,-0.075
2911,-0.095,-0.080
2912,-0.100,-0.085
2913,-0.095,-0.075
2914,-0.095,-0.075
2915,-0.095,-0.070
2916,-0.095,-0.060
2917,-0.085,-0.050
2918,-0.085,-0.055
2919,-0.080,-0.055
2920,-0.080,-0.060
2921,-0.090,-0.065
2922,-0.105,-0.085
2923,-0.115,-0.100
2924,-0.100,-0.090
2925,-0.090,-0.070
2926,-0.085,-0.070
2927,-0.105,-0.085
2928,-0.130,-0.110
2929,-0.145,-0.120
2930,-0.135,-0.120
2931,-0.135,-0.120
2932,-0.135,-0.120
2933,-0.135,-0.120
2934,-0.140,-0.120
2935,-0.140,-0.120
2936,-0.135,-0.115
2937,-0.130,-0.115
2938,-0.145,-0.120
2939,-0.130,-0.095
2940,0.040,-0.045
2941,0.495,0.085
2942,0.945,0.175
2943,0.850,0.135
2944,0.180,0.080
2945,-0.110,0.150
2946,-0.135,0.165
2947,-0.160,0.095
2948,-0.165,0.060
2949,-0.130,0.045
2950,-0.120,0.025
2951,-0.120,-0.005
2952,-0.110,-0.040
2953,-0.100,-0.060
2954,-0.095,-0.070
2955,-0.090,-0.075
2956,-0.090,-0.075
2957,-0.080,-0.075
2958,-0.070,-0.070
2959,-0.060,-0.065
2960,-0.045,-0.060
2961,-0.030,-0.060
2962,-0.010,-0.055
2963,0.000,-0.045
2964,0.005,-0.040
2965,0.020,-0.040
2966,0.045,-0.030
2967,0.080,-0.020
2968,0.110,-0.015
2969,0.140,-0.005
2970,0.175,0.000
2971,0.200,0.005
2972,0.210,0.020
2973,0.225,0.030
2974,0.235,0.040
2975,0.235,0.060
2976,0.220,0.065
2977,0.195,0.060
2978,0.170,0.055
2979,0.140,0.050
2980,0.110,0.030
2981,0.080,0.010
2982,0.050,0.000
2983,0.020,0.000
2984,0.000,-0.015
2985,0.000,-0.030
2986,-0.010,-0.040
2987,-0.020,-0.040
2988,-0.030,-0.045
2989,-0.050,-0.060
2990,-0.060,-0.065
2991,-0.070,-0.065
2992,-0.080,-0.070
2993,-0.090,-0.075
2994,-0.095,-0.080
2995,-0.095,-0.080
2996,-0.100,-0.085
2997,-0.100,-0.085
2998,-0.100,-0.080
2999,-0.095,-0.080
3000,-0.085,-0.065
3001,-0.085,-0.065
3002,-0.085,-0.060
3003,-0.085,-0.060
3004,-0.085,-0.060
3005,-0.090,-0.060
3006,-0.110,-0.080
3007,-0.120,-0.100
3008,-0.115,-0.095
3009,-0.095,-0.080
3010,-0.090,-0.075
3011,-0.105,-0.085
3012,-0.130,-0.110
3013,-0.155,-0.125
3014,-0.160,-0.125
3015,-0.155,-0.125
3016,-0.155,-0.125
3017,-0.150,-0.125
3018,-0.150,-0.120
3019,-0.150,-0.120
3020,-0.145,-0.120
3021,-0.145,-0.120
3022,-0.150,-0.120
3023,-0.145,-0.110
3024,-0.025,-0.060
3025,0.345,0.050
3026,0.845,0.185
3027,0.935,0.175
3028,0.390,0.090
3029,-0.090,0.095
3030,-0.105,0.190
3031,-0.135,0.125
3032,-0.150,0.080
3033,-0.140,0.055
3034,-0.130,0.035
3035,-0.120,0.005
3036,-0.120,-0.020
3037,-0.105,-0.045
3038,-0.105,-0.065
3039,-0.095,-0.065
3040,-0.095,-0.070
3041,-0.090,-0.060
3042,-0.085,-0.060
3043,-0.070,-0.060
3044,-0.065,-0.055
3045,-0.045,-0.050
3046,-0.030,-0.050
3047,-0.015,-0.040
3048,0.000,-0.030
3049,0.005,-0.020
3050,0.030,-0.020
3051,0.060,-0.010
3052,0.090,0.000
3053,0.125,0.005
3054,0.160,0.015
3055,0.185,0.025
3056,0.210,0.045
3057,0.230,0.055
3058,0.235,0.065
3059,0.240,0.075
3060,0.230,0.085
3061,0.220,0.090
3062,0.195,0.085
3063,0.170,0.070
3064,0.130,0.050
3065,0.105,0.045
3066,0.075,0.020
3067,0.040,0.005
3068,0.010,0.000
3069,0.000,-0.010
3070,0.000,-0.020
3071,-0.015,-0.030
3072,-0.025,-0.045
3073,-0.030,-0.040
3074,-0.050,-0.045
3075,-0.060,-0.050
3076,-0.065,-0.060
3077,-0.075,-0.065
3078,-0.090,-0.065
3079,-0.095,-0.070
3080,-0.095,-0.070
3081,-0.100,-0.075
3082,-0.100,-0.075
3083,-0.100,-0.070
3084,-0.095,-0.065
3085,-0.095,-0.050
3086,-0.080,-0.035
3087,-0.080,-0.035
3088,-0.075,-0.030
3089,-0.075,-0.030
3090,-0.075,-0.030
3091,-0.090,-0.045
3092,-0.110,-0.065
3093,-0.105,-0.070
3094,-0.090,-0.050
3095,-0.080,-0.040
3096,-0.085,-0.045
3097,-0.105,-0.065
3098,-0.130,-0.090
3099,-0.140,-0.095
3100,-0.145,-0.095
3101,-0.140,-0.095
3102,-0.135,-0.090
3103,-0.135,-0.090
3104,-0.135,-0.090
3105,-0.130,-0.090
3106,-0.130,-0.090
3107,-0.130,-0.085
3108,-0.140,-0.085
3109,-0.045,-0.035
3110,0.280,0.070
3111,0.785,0.230
3112,0.980,0.235
3113,0.555,0.140
3114,-0.015,0.105
3115,-0.080,0.220
3116,-0.100,0.175
3117,-0.130,0.110
3118,-0.130,0.085
3119,-0.120,0.065
3120,-0.110,0.040
3121,-0.110,0.005
3122,-0.100,-0.020
3123,-0.095,-0.025
3124,-0.095,-0.040
3125,-0.095,-0.040
3126,-0.080,-0.035
3127,-0.075,-0.030
3128,-0.065,-0.030
3129,-0.055,-0.030
3130,-0.035,-0.020
3131,-0.020,-0.010
3132,-0.005,-0.010
3133,0.000,-0.010
3134,0.010,0.000
3135,0.030,0.005
3136,0.060,0.010
3137,0.090,0.020
3138,0.120,0.030
3139,0.155,0.035
3140,0.185,0.045
3141,0.210,0.060
3142,0.225,0.075
3143,0.235,0.085
3144,0.235,0.095
3145,0.230,0.105
3146,0.220,0.110
3147,0.195,0.105
3148,0.170,0.090
3149,0.130,0.070
3150,0.105,0.060
3151,0.080,0.035
3152,0.050,0.025
3153,0.020,0.010
3154,0.000,0.005
3155,0.000,0.000
3156,-0.005,0.000
3157,-0.020,-0.015
3158,-0.025,-0.015
3159,-0.035,-0.020
3160,-0.045,-0.025
3161,-0.060,-0.025
3162,-0.070,-0.030
3163,-0.075,-0.030
3164,-0.080,-0.035
3165,-0.085,-0.040
3166,-0.090,-0.045
3167,-0.095,-0.050
3168,-0.095,-0.050
3169,-0.095,-0.050
3170,-0.095,-0.045
3171,-0.085,-0.030
3172,-0.080,-0.020
3173,-0.075,-0.015
3174,-0.080,-0.015
3175,-0.075,-0.015
3176,-0.075,-0.015
3177,-0.090,-0.025
3178,-0.110,-0.050
3179,-0.105,-0.055
3180,-0.085,-0.035
3181,-0.075,-0.020
3182,-0.080,-0.030
3183,-0.105,-0.050
3184,-0.130,-0.070
3185,-0.140,-0.075
3186,-0.135,-0.075
3187,-0.135,-0.075
3188,-0.135,-0.070
3189,-0.135,-0.070
3190,-0.135,-0.075
3191,-0.130,-0.070
3192,-0.125,-0.070
3193,-0.125,-0.070
3194,-0.140,-0.060
3195,-0.030,-0.010
3196,0.335,0.115
3197,0.835,0.260
3198,0.975,0.250
3199,0.490,0.145
3200,-0.045,0.135
3201,-0.070,0.250
3202,-0.100,0.190
3203,-0.130,0.130
3204,-0.120,0.110
3205,-0.110,0.085
3206,-0.110,0.050
3207,-0.105,0.015
3208,-0.095,-0.010
3209,-0.095,-0.015
3210,-0.095,-0.020
3211,-0.085,-0.020
3212,-0.080,-0.020
3213,-0.070,-0.015
3214,-0.065,-0.015
3215,-0.055,-0.015
3216,-0.035,-0.010
3217,-0.020,0.000
3218,-0.010,0.000
3219,0.000,0.000
3220,0.010,0.000
3221,0.035,0.005
3222,0.065,0.015
3223,0.090,0.025
3224,0.120,0.035
3225,0.155,0.050
3226,0.185,0.055
3227,0.205,0.070
3228,0.220,0.085
3229,0.235,0.100
3230,0.235,0.115
3231,0.230,0.120
3232,0.215,0.125
3233,0.195,0.120
3234,0.170,0.105
3235,0.135,0.085
3236,0.100,0.070
3237,0.080,0.055
3238,0.045,0.035
3239,0.020,0.020
3240,0.000,0.005
3241,0.000,0.000
3242,0.000,0.000
3243,-0.015,0.000
3244,-0.025,-0.010
3245,-0.045,-0.015
3246,-0.050,-0.020
3247,-0.065,-0.020
3248,-0.070,-0.025
3249,-0.080,-0.035
3250,-0.085,-0.035
3251,-0.090,-0.040
3252,-0.095,-0.045
3253,-0.095,-0.045
3254,-0.095,-0.050
3255,-0.100,-0.050
3256,-0.095,-0.040
3257,-0.090,-0.030
3258,-0.080,-0.020
3259,-0.075,-0.015
3260,-0.080,-0.015
3261,-0.075,-0.010
3262,-0.075,-0.010
3263,-0.090,-0.025
3264,-0.110,-0.045
3265,-0.105,-0.050
3266,-0.090,-0.035
3267,-0.080,-0.025
3268,-0.085,-0.030
3269,-0.110,-0.050
3270,-0.135,-0.075
3271,-0.145,-0.075
3272,-0.150,-0.080
3273,-0.145,-0.080
3274,-0.140,-0.075
3275,-0.135,-0.075
3276,-0.135,-0.080
3277,-0.135,-0.075
3278,-0.130,-0.075
3279,-0.140,-0.070
3280,-0.140,-0.060
3281,-0.040,-0.010
3282,0.310,0.105
3283,0.815,0.260
3284,0.980,0.260
3285,0.505,0.140
3286,-0.030,0.130
3287,-0.075,0.245
3288,-0.100,0.190
3289,-0.130,0.130
3290,-0.125,0.105
3291,-0.115,0.085
3292,-0.115,0.055
3293,-0.115,0.015
3294,-0.105,-0.005
3295,-0.095,-0.015
3296,-0.095,-0.020
3297,-0.090,-0.025
3298,-0.090,-0.025
3299,-0.075,-0.025
3300,-0.070,-0.025
3301,-0.055,-0.015
3302,-0.050,-0.010
3303,-0.035,-0.010
3304,-0.015,-0.010
3305,-0.005,0.000
3306,0.005,0.000
3307,0.020,0.005
3308,0.050,0.015
3309,0.085,0.025
3310,0.115,0.035
3311,0.145,0.045
3312,0.175,0.055
3313,0.200,0.070
3314,0.210,0.080
3315,0.225,0.090
3316,0.230,0.105
3317,0.225,0.115
3318,0.210,0.120
3319,0.190,0.115
3320,0.155,0.100
3321,0.125,0.080
3322,0.095,0.065
3323,0.075,0.045
3324,0.035,0.030
3325,0.010,0.015
3326,0.000,0.005
3327,0.000,0.000
3328,-0.015,0.000
3329,-0.020,-0.005
3330,-0.035,-0.010
3331,-0.045,-0.015
3332,-0.060,-0.020
3333,-0.070,-0.025
3334,-0.075,-0.030
3335,-0.080,-0.030
3336,-0.090,-0.035
3337,-0.095,-0.040
3338,-0.095,-0.045
3339,-0.095,-0.045
3340,-0.100,-0.050
3341,-0.105,-0.040
3342,-0.100,-0.040
3343,-0.095,-0.025
3344,-0.085,-0.015
3345,-0.080,-0.015
3346,-0.080,-0.010
3347,-0.075,-0.010
3348,-0.075,-0.015
3349,-0.095,-0.030
3350,-0.110,-0.045
3351,-0.110,-0.055
3352,-0.095,-0.045
3353,-0.090,-0.030
3354,-0.095,-0.030
3355,-0.115,-0.055
3356,-0.140,-0.075
3357,-0.150,-0.085
3358,-0.155,-0.080
3359,-0.150,-0.080
3360,-0.150,-0.085
3361,-0.150,-0.085
3362,-0.150,-0.085
3363,-0.145,-0.085
3364,-0.140,-0.085
3365,-0.150,-0.080
3366,-0.155,-0.075
3367,-0.060,-0.020
3368,0.280,0.095
3369,0.790,0.245
3370,0.990,0.250
3371,0.515,0.125
3372,-0.025,0.105
3373,-0.085,0.220
3374,-0.110,0.175
3375,-0.150,0.115
3376,-0.135,0.090
3377,-0.130,0.070
3378,-0.120,0.045
3379,-0.120,0.005
3380,-0.110,-0.015
3381,-0.105,-0.030
3382,-0.100,-0.035
3383,-0.100,-0.040
3384,-0.090,-0.030
3385,-0.085,-0.035
3386,-0.080,-0.035
3387,-0.070,-0.030
3388,-0.055,-0.030
3389,-0.040,-0.020
3390,-0.030,-0.015
3391,-0.010,-0.010
3392,0.000,-0.005
3393,0.015,0.000
3394,0.040,0.000
3395,0.075,0.010
3396,0.105,0.025
3397,0.135,0.035
3398,0.165,0.045
3399,0.190,0.060
3400,0.205,0.070
3401,0.215,0.085
3402,0.220,0.100
3403,0.205,0.110
3404,0.200,0.110
3405,0.180,0.100
3406,0.155,0.090
3407,0.110,0.065
3408,0.090,0.050
3409,0.055,0.035
3410,0.035,0.025
3411,0.000,0.000
3412,0.000,0.000
3413,-0.010,-0.010
3414,-0.010,-0.015
3415,-0.025,-0.020
3416,-0.040,-0.025
3417,-0.050,-0.035
3418,-0.060,-0.040
3419,-0.075,-0.045
3420,-0.080,-0.050
3421,-0.090,-0.055
3422,-0.095,-0.055
3423,-0.095,-0.060
3424,-0.100,-0.065
3425,-0.105,-0.065
3426,-0.110,-0.070
3427,-0.115,-0.070
3428,-0.105,-0.060
3429,-0.095,-0.045
3430,-0.095,-0.030
3431,-0.095,-0.030
3432,-0.095,-0.035
3433,-0.085,-0.030
3434,-0.090,-0.030
3435,-0.105,-0.035
3436,-0.130,-0.065
3437,-0.135,-0.075
3438,-0.110,-0.060
3439,-0.095,-0.050
3440,-0.100,-0.055
3441,-0.130,-0.075
3442,-0.155,-0.095
3443,-0.170,-0.100
3444,-0.165,-0.100
3445,-0.165,-0.095
3446,-0.160,-0.095
3447,-0.155,-0.095
3448,-0.160,-0.095
3449,-0.160,-0.095
3450,-0.155,-0.095
3451,-0.155,-0.095
3452,-0.165,-0.090
3453,-0.090,-0.045
3454,0.220,0.060
3455,0.755,0.225
3456,0.995,0.235
3457,0.565,0.125
3458,-0.015,0.090
3459,-0.090,0.215
3460,-0.125,0.175
3461,-0.150,0.115
3462,-0.145,0.085
3463,-0.130,0.060
3464,-0.130,0.035
3465,-0.125,0.000
3466,-0.120,-0.025
3467,-0.105,-0.040
3468,-0.105,-0.050
3469,-0.100,-0.055
3470,-0.095,-0.055
3471,-0.095,-0.050
3472,-0.085,-0.050
3473,-0.075,-0.040
3474,-0.065,-0.040
3475,-0.050,-0.030
3476,-0.030,-0.030
3477,-0.015,-0.025
3478,-0.005,-0.015
3479,0.010,-0.005
3480,0.040,0.000
3481,0.075,0.000
3482,0.100,0.005
3483,0.130,0.015
3484,0.160,0.025
3485,0.185,0.030
3486,0.200,0.045
3487,0.210,0.060
3488,0.220,0.070
3489,0.215,0.085
3490,0.205,0.085
3491,0.185,0.080
3492,0.150,0.075
3493,0.120,0.055
3494,0.090,0.040
3495,0.060,0.025
3496,0.025,0.010
3497,0.000,0.000
3498,0.000,-0.005
3499,-0.005,-0.015
3500,-0.020,-0.020
3501,-0.040,-0.030
3502,-0.050,-0.035
3503,-0.070,-0.045
3504,-0.075,-0.045
3505,-0.085,-0.050
3506,-0.090,-0.055
3507,-0.095,-0.060
3508,-0.095,-0.065
3509,-0.105,-0.070
3510,-0.110,-0.075
3511,-0.120,-0.075
3512,-0.120,-0.075
3513,-0.120,-0.075
3514,-0.115,-0.060
3515,-0.100,-0.050
3516,-0.095,-0.040
3517,-0.095,-0.040
3518,-0.095,-0.040
3519,-0.095,-0.040
3520,-0.100,-0.040
3521,-0.120,-0.055
3522,-0.140,-0.075
3523,-0.125,-0.075
3524,-0.105,-0.060
3525,-0.100,-0.050
3526,-0.115,-0.060
3527,-0.140,-0.085
3528,-0.160,-0.100
3529,-0.170,-0.100
3530,-0.170,-0.100
3531,-0.165,-0.095
3532,-0.165,-0.095
3533,-0.160,-0.105
3534,-0.160,-0.105
3535,-0.155,-0.100
3536,-0.155,-0.100
3537,-0.165,-0.100
3538,-0.165,-0.090
3539,-0.040,-0.040
3540,0.380,0.085
3541,0.885,0.190
3542,0.910,0.170
3543,0.300,0.090
3544,-0.095,0.130
3545,-0.135,0.190
3546,-0.165,0.115
3547,-0.180,0.075
3548,-0.155,0.065
3549,-0.140,0.040
3550,-0.140,0.010
3551,-0.130,-0.025
3552,-0.120,-0.045
3553,-0.105,-0.050
3554,-0.105,-0.060
3555,-0.095,-0.060
3556,-0.095,-0.060
3557,-0.085,-0.050
3558,-0.080,-0.050
3559,-0.065,-0.045
3560,-0.050,-0.045
3561,-0.030,-0.035
3562,-0.010,-0.030
3563,0.000,-0.025
3564,0.010,-0.015
3565,0.035,-0.010
3566,0.065,0.000
3567,0.095,0.000
3568,0.130,0.010
3569,0.160,0.015
3570,0.185,0.025
3571,0.205,0.035
3572,0.220,0.050
3573,0.230,0.060
3574,0.230,0.070
3575,0.220,0.075
3576,0.205,0.080
3577,0.185,0.075
3578,0.155,0.065
3579,0.120,0.050
3580,0.090,0.030
3581,0.060,0.020
3582,0.030,0.010
3583,0.005,0.000
3584,0.000,-0.010
3585,0.000,-0.010
3586,-0.015,-0.020
3587,-0.025,-0.025
3588,-0.045,-0.040
3589,-0.050,-0.040
3590,-0.065,-0.045
3591,-0.070,-0.050
3592,-0.075,-0.055
3593,-0.080,-0.055
3594,-0.090,-0.060
3595,-0.095,-0.065
3596,-0.100,-0.070
3597,-0.100,-0.070
3598,-0.100,-0.065
3599,-0.095,-0.055
3600,-0.095,-0.045
3601,-0.090,-0.035
3602,-0.085,-0.035
3603,-0.085,-0.035
3604,-0.085,-0.035
3605,-0.090,-0.035
3606,-0.100,-0.050
3607,-0.115,-0.070
3608,-0.115,-0.070
3609,-0.095,-0.055
3610,-0.090,-0.045
3611,-0.100,-0.055
3612,-0.130,-0.085
3613,-0.150,-0.100
3614,-0.150,-0.095
3615,-0.150,-0.095
3616,-0.145,-0.095
3617,-0.140,-0.095
3618,-0.140,-0.090
3619,-0.145,-0.085
3620,-0.140,-0.085
3621,-0.140,-0.085
3622,-0.145,-0.085
3623,-0.150,-0.080
3624,-0.050,-0.040
3625,0.335,0.075
3626,0.855,0.205
3627,0.955,0.200
3628,0.380,0.110
3629,-0.065,0.125
3630,-0.115,0.210
3631,-0.150,0.140
3632,-0.160,0.095
3633,-0.140,0.070
3634,-0.130,0.060
3635,-0.125,0.025
3636,-0.120,-0.010
3637,-0.110,-0.035
3638,-0.095,-0.040
3639,-0.095,-0.045
3640,-0.095,-0.050
3641,-0.085,-0.055
3642,-0.075,-0.045
3643,-0.060,-0.040
3644,-0.050,-0.040
3645,-0.035,-0.030
3646,-0.020,-0.025
3647,-0.005,-0.020
3648,0.000,-0.020
3649,0.010,-0.020
3650,0.035,-0.010
3651,0.070,0.000
3652,0.100,0.000
3653,0.125,0.005
3654,0.160,0.020
3655,0.195,0.035
3656,0.205,0.045
3657,0.225,0.055
3658,0.240,0.070
3659,0.240,0.085
3660,0.240,0.095
3661,0.220,0.100
3662,0.200,0.095
3663,0.170,0.085
3664,0.140,0.065
3665,0.100,0.045
3666,0.085,0.030
3667,0.050,0.015
3668,0.030,0.010
3669,0.000,0.000
3670,0.000,-0.005
3671,0.000,-0.015
3672,-0.010,-0.020
3673,-0.025,-0.030
3674,-0.035,-0.040
3675,-0.045,-0.040
3676,-0.050,-0.040
3677,-0.065,-0.045
3678,-0.070,-0.050
3679,-0.080,-0.050
3680,-0.090,-0.050
3681,-0.095,-0.050
3682,-0.095,-0.060
3683,-0.095,-0.065
3684,-0.095,-0.060
3685,-0.095,-0.050
3686,-0.080,-0.040
3687,-0.065,-0.030
3688,-0.065,-0.030
3689,-0.065,-0.025
3690,-0.070,-0.025
3691,-0.075,-0.030
3692,-0.090,-0.045
3693,-0.100,-0.065
3694,-0.090,-0.055
3695,-0.075,-0.035
3696,-0.065,-0.025
3697,-0.080,-0.040
3698,-0.105,-0.065
3699,-0.125,-0.080
3700,-0.125,-0.080
3701,-0.125,-0.080
3702,-0.130,-0.085
3703,-0.125,-0.080
3704,-0.120,-0.080
3705,-0.120,-0.075
3706,-0.120,-0.075
3707,-0.120,-0.080
3708,-0.125,-0.075
3709,-0.110,-0.050
3710,0.040,0.000
3711,0.505,0.145
3712,0.960,0.265
3713,0.915,0.225
3714,0.270,0.115
3715,-0.055,0.170
3716,-0.080,0.220
3717,-0.100,0.150
3718,-0.120,0.110
3719,-0.100,0.090
3720,-0.095,0.065
3721,-0.095,0.040
3722,-0.095,0.005
3723,-0.085,-0.010
3724,-0.075,-0.025
3725,-0.075,-0.030
3726,-0.075,-0.040
3727,-0.065,-0.040
3728,-0.050,-0.030
3729,-0.045,-0.030
3730,-0.035,-0.030
3731,-0.020,-0.025
3732,-0.005,-0.020
3733,0.000,-0.010
3734,0.010,-0.005
3735,0.035,0.000
3736,0.060,0.000
3737,0.090,0.010
3738,0.115,0.015
3739,0.150,0.025
3740,0.185,0.040
3741,0.205,0.050
3742,0.225,0.060
3743,0.250,0.075
3744,0.255,0.085
3745,0.260,0.100
3746,0.250,0.110
3747,0.230,0.105
3748,0.205,0.095
3749,0.175,0.080
3750,0.140,0.065
3751,0.115,0.050
3752,0.080,0.030
3753,0.055,0.020
3754,0.030,0.000
3755,0.010,0.000
3756,0.000,-0.010
3757,0.000,-0.015
3758,0.000,-0.020
3759,-0.020,-0.030
3760,-0.025,-0.035
3761,-0.035,-0.040
3762,-0.040,-0.040
3763,-0.060,-0.045
3764,-0.065,-0.055
3765,-0.070,-0.060
3766,-0.075,-0.060
3767,-0.085,-0.065
3768,-0.090,-0.070
3769,-0.090,-0.070
3770,-0.085,-0.065
3771,-0.090,-0.065
3772,-0.080,-0.050
3773,-0.065,-0.035
3774,-0.055,-0.025
3775,-0.050,-0.030
3776,-0.050,-0.030
3777,-0.050,-0.025
3778,-0.065,-0.040
3779,-0.085,-0.060
3780,-0.090,-0.075
3781,-0.075,-0.065
3782,-0.060,-0.045
3783,-0.065,-0.045
3784,-0.085,-0.065
3785,-0.110,-0.085
3786,-0.120,-0.095
3787,-0.125,-0.095
3788,-0.125,-0.095
3789,-0.120,-0.090
3790,-0.110,-0.090
3791,-0.115,-0.090
3792,-0.110,-0.090
3793,-0.110,-0.095
3794,-0.110,-0.095
3795,-0.120,-0.090
3796,-0.080,-0.055
3797,0.190,0.030
3798,0.730,0.205
3799,1.005,0.250
3800,0.695,0.160
3801,0.080,0.100
3802,-0.055,0.210
3803,-0.085,0.185
3804,-0.110,0.120
3805,-0.110,0.085
3806,-0.100,0.060
3807,-0.095,0.040
3808,-0.095,0.005
3809,-0.095,-0.020
3810,-0.085,-0.040
3811,-0.080,-0.045
3812,-0.075,-0.050
3813,-0.070,-0.050
3814,-0.060,-0.050
3815,-0.050,-0.040
3816,-0.045,-0.045
3817,-0.030,-0.040
3818,-0.010,-0.035
3819,-0.005,-0.030
3820,0.000,-0.030
3821,0.010,-0.025
3822,0.035,-0.020
3823,0.065,-0.010
3824,0.095,0.000
3825,0.120,0.000
3826,0.160,0.010
3827,0.190,0.020
3828,0.210,0.035
3829,0.230,0.045
3830,0.245,0.060
3831,0.255,0.070
3832,0.255,0.085
3833,0.235,0.085
3834,0.220,0.085
3835,0.195,0.075
3836,0.165,0.055
3837,0.125,0.040
3838,0.095,0.020
3839,0.075,0.010
3840,0.040,0.000
3841,0.025,-0.005
3842,0.000,-0.015
3843,0.000,-0.020
3844,0.000,-0.025
3845,-0.010,-0.040
3846,-0.025,-0.045
3847,-0.030,-0.050
3848,-0.045,-0.055
3849,-0.055,-0.065
3850,-0.065,-0.070
3851,-0.070,-0.070
3852,-0.080,-0.075
3853,-0.085,-0.075
3854,-0.090,-0.075
3855,-0.095,-0.080
3856,-0.095,-0.080
3857,-0.095,-0.080
3858,-0.085,-0.075
3859,-0.075,-0.060
3860,-0.065,-0.045
3861,-0.065,-0.040
3862,-0.065,-0.040
3863,-0.065,-0.040
3864,-0.065,-0.040
3865,-0.080,-0.060
3866,-0.095,-0.080
3867,-0.095,-0.080
3868,-0.080,-0.065
3869,-0.070,-0.055
3870,-0.075,-0.060
3871,-0.095,-0.080
3872,-0.120,-0.095
3873,-0.125,-0.100
3874,-0.125,-0.105
3875,-0.125,-0.105
3876,-0.120,-0.105
3877,-0.115,-0.105
3878,-0.120,-0.110
3879,-0.120,-0.110
3880,-0.120,-0.110
3881,-0.125,-0.105
3882,-0.135,-0.100
3883,-0.050,-0.050
3884,0.305,0.070
3885,0.825,0.225
3886,0.985,0.230
3887,0.515,0.120
3888,0.020,0.105
3889,-0.060,0.200
3890,-0.090,0.160
3891,-0.120,0.100
3892,-0.105,0.070
3893,-0.100,0.050
3894,-0.095,0.030
3895,-0.095,-0.005
3896,-0.095,-0.030
3897,-0.090,-0.040
3898,-0.080,-0.050
3899,-0.075,-0.055
3900,-0.065,-0.050
3901,-0.065,-0.050
3902,-0.050,-0.055
3903,-0.040,-0.050
3904,-0.030,-0.045
3905,-0.015,-0.040
3906,-0.005,-0.040
3907,0.000,-0.035
3908,0.010,-0.020
3909,0.040,-0.015
3910,0.070,-0.010
3911,0.100,0.000
3912,0.130,0.000
3913,0.170,0.010
3914,0.195,0.020
3915,0.215,0.035
3916,0.235,0.055
3917,0.250,0.065
3918,0.255,0.080
3919,0.245,0.085
3920,0.235,0.090
3921,0.205,0.085
3922,0.190,0.075
3923,0.145,0.055
3924,0.110,0.040
3925,0.085,0.020
3926,0.065,0.015
3927,0.035,0.000
3928,0.015,-0.005
3929,0.000,-0.015
3930,0.000,-0.020
3931,0.000,-0.030
3932,-0.015,-0.035
3933,-0.020,-0.045
3934,-0.035,-0.050
3935,-0.050,-0.055
3936,-0.055,-0.060
3937,-0.060,-0.065
3938,-0.070,-0.065
3939,-0.075,-0.065
3940,-0.085,-0.070
3941,-0.090,-0.070
3942,-0.090,-0.070
3943,-0.095,-0.075
3944,-0.095,-0.070
3945,-0.085,-0.060
3946,-0.075,-0.050
3947,-0.065,-0.045
3948,-0.060,-0.040
3949,-0.055,-0.035
3950,-0.050,-0.035
3951,-0.060,-0.040
3952,-0.075,-0.050
3953,-0.095,-0.075
3954,-0.095,-0.080
3955,-0.075,-0.060
3956,-0.055,-0.050
3957,-0.070,-0.055
3958,-0.100,-0.080
3959,-0.120,-0.100
3960,-0.130,-0.100
3961,-0.125,-0.100
3962,-0.115,-0.095
3963,-0.115,-0.095
3964,-0.115,-0.095
3965,-0.115,-0.095
3966,-0.120,-0.095
3967,-0.120,-0.095
3968,-0.130,-0.105
3969,-0.130,-0.080
3970,-0.005,-0.020
3971,0.420,0.125
3972,0.890,0.235
3973,0.940,0.215
3974,0.385,0.100
3975,-0.005,0.135
3976,-0.065,0.200
3977,-0.095,0.155
3978,-0.120,0.105
3979,-0.110,0.080
3980,-0.100,0.060
3981,-0.100,0.030
3982,-0.095,0.000
3983,-0.090,-0.020
3984,-0.090,-0.035
3985,-0.080,-0.045
3986,-0.075,-0.050
3987,-0.065,-0.045
3988,-0.055,-0.045
3989,-0.050,-0.045
3990,-0.040,-0.045
3991,-0.025,-0.040
3992,-0.015,-0.030
3993,-0.005,-0.025
3994,0.005,-0.020
3995,0.020,-0.010
3996,0.040,-0.005
3997,0.065,0.000
3998,0.100,0.005
3999,0.130,0.020
4000,0.165,0.025
4001,0.195,0.035
4002,0.215,0.045
4003,0.235,0.065
4004,0.250,0.075
4005,0.250,0.085
4006,0.235,0.095
4007,0.225,0.095
4008,0.200,0.090
4009,0.165,0.075
4010,0.135,0.055
4011,0.110,0.050
4012,0.085,0.030
4013,0.050,0.015
4014,0.030,0.000
4015,0.010,0.000
4016,0.000,-0.005
4017,0.000,-0.015
4018,-0.005,-0.020
4019,-0.020,-0.030
4020,-0.030,-0.035
4021,-0.045,-0.040
4022,-0.050,-0.045
4023,-0.065,-0.050
4024,-0.070,-0.055
4025,-0.080,-0.060
4026,-0.085,-0.065
4027,-0.085,-0.065
4028,-0.090,-0.065
4029,-0.095,-0.065
4030,-0.095,-0.070
4031,-0.095,-0.065
4032,-0.090,-0.055
4033,-0.080,-0.045
4034,-0.075,-0.035
4035,-0.065,-0.030
4036,-0.055,-0.030
4037,-0.060,-0.030
4038,-0.075,-0.040
4039,-0.100,-0.055
4040,-0.105,-0.075
4041,-0.090,-0.065
4042,-0.075,-0.050
4043,-0.070,-0.045
4044,-0.090,-0.060
4045,-0.120,-0.090
4046,-0.140,-0.100
4047,-0.135,-0.100
4048,-0.130,-0.095
4049,-0.130,-0.095
4050,-0.130,-0.095
4051,-0.130,-0.095
4052,-0.125,-0.090
4053,-0.125,-0.090
4054,-0.120,-0.090
4055,-0.135,-0.095
4056,-0.105,-0.055
4057,0.120,0.025
4058,0.615,0.185
4059,0.965,0.250
4060,0.765,0.175
4061,0.175,0.095
4062,-0.045,0.175
4063,-0.090,0.195
4064,-0.120,0.135
4065,-0.130,0.090
4066,-0.120,0.065
4067,-0.110,0.040
4068,-0.110,0.010
4069,-0.105,-0.015
4070,-0.100,-0.035
4071,-0.095,-0.045
4072,-0.095,-0.050
4073,-0.085,-0.045
4074,-0.080,-0.045
4075,-0.070,-0.050
4076,-0.060,-0.045
4077,-0.045,-0.040
4078,-0.030,-0.040
4079,-0.020,-0.035
4080,-0.005,-0.030
4081,0.000,-0.025
4082,0.010,-0.015
4083,0.040,-0.010
4084,0.075,0.000
4085,0.105,0.005
4086,0.140,0.020
4087,0.170,0.020
4088,0.195,0.035
4089,0.210,0.050
4090,0.230,0.060
4091,0.240,0.070
4092,0.235,0.085
4093,0.225,0.090
4094,0.205,0.085
4095,0.185,0.080
4096,0.150,0.065
4097,0.115,0.055
4098,0.090,0.030
4099,0.060,0.015
4100,0.025,0.000
4101,0.010,0.000
4102,0.000,-0.015
4103,0.000,-0.020
4104,-0.010,-0.035
4105,-0.020,-0.030
4106,-0.040,-0.040
4107,-0.050,-0.045
4108,-0.060,-0.050
4109,-0.065,-0.055
4110,-0.075,-0.060
4111,-0.085,-0.065
4112,-0.090,-0.070
4113,-0.095,-0.065
4114,-0.095,-0.070
4115,-0.100,-0.075
4116,-0.105,-0.070
4117,-0.100,-0.060
4118,-0.095,-0.060
4119,-0.095,-0.050
4120,-0.085,-0.035
4121,-0.080,-0.030
4122,-0.080,-0.040
4123,-0.080,-0.040
4124,-0.090,-0.045
4125,-0.105,-0.055
4126,-0.120,-0.075
4127,-0.105,-0.075
4128,-0.090,-0.060
4129,-0.080,-0.045
4130,-0.095,-0.055
4131,-0.125,-0.080
4132,-0.150,-0.100
4133,-0.150,-0.100
4134,-0.145,-0.095
4135,-0.140,-0.095
4136,-0.135,-0.100
4137,-0.135,-0.095
4138,-0.135,-0.095
4139,-0.135,-0.095
4140,-0.135,-0.100
4141,-0.140,-0.100
4142,-0.140,-0.080
4143,0.035,-0.015
4144,0.490,0.115
4145,0.920,0.210
4146,0.825,0.165
4147,0.230,0.095
4148,-0.065,0.155
4149,-0.120,0.175
4150,-0.145,0.120
4151,-0.155,0.085
4152,-0.135,0.065
4153,-0.125,0.040
4154,-0.120,0.015
4155,-0.110,-0.015
4156,-0.105,-0.040
4157,-0.100,-0.050
4158,-0.095,-0.050
4159,-0.085,-0.050
4160,-0.080,-0.050
4161,-0.075,-0.050
4162,-0.065,-0.050
4163,-0.050,-0.050
4164,-0.040,-0.045
4165,-0.020,-0.040
4166,-0.005,-0.035
4167,0.000,-0.030
4168,0.010,-0.025
4169,0.040,-0.020
4170,0.070,-0.010
4171,0.105,0.000
4172,0.145,0.000
4173,0.170,0.005
4174,0.195,0.020
4175,0.215,0.035
4176,0.235,0.050
4177,0.235,0.055
4178,0.240,0.070
4179,0.225,0.075
4180,0.215,0.080
4181,0.185,0.065
4182,0.165,0.060
4183,0.120,0.045
4184,0.095,0.035
4185,0.060,0.005
4186,0.035,0.000
4187,0.005,-0.010
4188,0.000,-0.015
4189,0.000,-0.030
4190,-0.010,-0.035
4191,-0.020,-0.035
4192,-0.025,-0.040
4193,-0.040,-0.040
4194,-0.050,-0.050
4195,-0.060,-0.050
4196,-0.070,-0.050
4197,-0.080,-0.060
4198,-0.085,-0.065
4199,-0.090,-0.065
4200,-0.095,-0.065
4201,-0.095,-0.070
4202,-0.095,-0.070
4203,-0.095,-0.060
4204,-0.090,-0.045
4205,-0.080,-0.040
4206,-0.075,-0.040
4207,-0.075,-0.040
4208,-0.075,-0.040
4209,-0.080,-0.040
4210,-0.095,-0.050
4211,-0.110,-0.070
4212,-0.105,-0.075
4213,-0.090,-0.055
4214,-0.080,-0.045
4215,-0.085,-0.055
4216,-0.110,-0.075
4217,-0.135,-0.095
4218,-0.140,-0.095
4219,-0.135,-0.095
4220,-0.135,-0.095
4221,-0.135,-0.095
4222,-0.130,-0.095
4223,-0.130,-0.090
4224,-0.135,-0.085
4225,-0.130,-0.085
4226,-0.135,-0.095
4227,-0.145,-0.085
4228,-0.065,-0.055
4229,0.295,0.055
4230,0.800,0.170
4231,0.945,0.190
4232,0.465,0.130
4233,0.005,0.140
4234,-0.110,0.195
4235,-0.135,0.150
4236,-0.150,0.100
4237,-0.130,0.075
4238,-0.120,0.055
4239,-0.110,0.025
4240,-0.100,0.000
4241,-0.095,-0.020
4242,-0.090,-0.035
4243,-0.080,-0.045
4244,-0.075,-0.040
4245,-0.065,-0.040
4246,-0.060,-0.040
4247,-0.050,-0.040
4248,-0.035,-0.035
4249,-0.020,-0.030
4250,-0.005,-0.025
4251,0.000,-0.020
4252,0.005,-0.015
4253,0.030,-0.010
4254,0.055,-0.005
4255,0.085,0.000
4256,0.115,0.000
4257,0.150,0.010
4258,0.175,0.015
4259,0.205,0.030
4260,0.220,0.040
4261,0.245,0.055
4262,0.255,0.070
4263,0.255,0.085
4264,0.250,0.095
4265,0.245,0.100
4266,0.220,0.095
4267,0.200,0.085
4268,0.165,0.070
4269,0.130,0.055
4270,0.095,0.035
4271,0.070,0.025
4272,0.050,0.010
4273,0.025,0.005
4274,0.010,0.000
4275,0.000,-0.010
4276,0.000,-0.015
4277,-0.005,-0.015
4278,-0.015,-0.020
4279,-0.030,-0.030
4280,-0.035,-0.035
4281,-0.050,-0.040
4282,-0.055,-0.045
4283,-0.060,-0.050
4284,-0.070,-0.050
4285,-0.075,-0.055
4286,-0.080,-0.060
4287,-0.080,-0.060
4288,-0.075,-0.060
4289,-0.065,-0.045
4290,-0.055,-0.025
4291,-0.050,-0.020
4292,-0.050,-0.025
4293,-0.045,-0.020
4294,-0.050,-0.020
4295,-0.070,-0.035
4296,-0.085,-0.055
4297,-0.090,-0.070
4298,-0.070,-0.050
4299,-0.055,-0.035
4300,-0.055,-0.035
4301,-0.090,-0.055
4302,-0.105,-0.080
4303,-0.115,-0.080
4304,-0.110,-0.080
4305,-0.110,-0.080
4306,-0.100,-0.075
4307,-0.100,-0.080
4308,-0.100,-0.080
4309,-0.100,-0.075
4310,-0.095,-0.075
4311,-0.100,-0.075
4312,-0.110,-0.075
4313,-0.070,-0.045
4314,0.220,0.050
4315,0.725,0.200
4316,0.975,0.235
4317,0.650,0.160
4318,0.100,0.125
4319,-0.055,0.205
4320,-0.085,0.190
4321,-0.105,0.135
4322,-0.100,0.105
4323,-0.095,0.085
4324,-0.090,0.060
4325,-0.085,0.020
4326,-0.075,-0.010
4327,-0.070,-0.025
4328,-0.070,-0.030
4329,-0.060,-0.030
4330,-0.050,-0.030
4331,-0.045,-0.025
4332,-0.035,-0.025
4333,-0.020,-0.030
4334,-0.010,-0.020
4335,-0.005,-0.015
4336,0.000,-0.010
4337,0.005,-0.005
4338,0.030,0.000
4339,0.060,0.005
4340,0.085,0.005
4341,0.110,0.015
4342,0.150,0.025
4343,0.185,0.035
4344,0.205,0.050
4345,0.230,0.055
4346,0.260,0.070
4347,0.275,0.085
4348,0.280,0.105
4349,0.275,0.110
4350,0.260,0.120
4351,0.235,0.115
4352,0.210,0.105
4353,0.185,0.090
4354,0.145,0.065
4355,0.115,0.055
4356,0.090,0.035
4357,0.060,0.015
4358,0.035,0.005
4359,0.025,0.000
4360,0.000,0.000
4361,0.000,-0.010
4362,0.000,-0.020
4363,-0.005,-0.025
4364,-0.020,-0.030
4365,-0.025,-0.035
4366,-0.035,-0.040
4367,-0.040,-0.040
4368,-0.050,-0.045
4369,-0.060,-0.050
4370,-0.070,-0.050
4371,-0.075,-0.050
4372,-0.075,-0.055
4373,-0.080,-0.055
4374,-0.080,-0.050
4375,-0.070,-0.045
4376,-0.055,-0.030
4377,-0.045,-0.020
4378,-0.040,-0.020
4379,-0.040,-0.020
4380,-0.040,-0.020
4381,-0.050,-0.025
4382,-0.075,-0.045
4383,-0.090,-0.065
4384,-0.070,-0.055
4385,-0.050,-0.030
4386,-0.050,-0.030
4387,-0.060,-0.040
4388,-0.095,-0.075
4389,-0.110,-0.080
4390,-0.110,-0.085
4391,-0.105,-0.085
4392,-0.105,-0.085
4393,-0.105,-0.080
4394,-0.100,-0.080
4395,-0.100,-0.080
4396,-0.095,-0.075
4397,-0.095,-0.075
4398,-0.105,-0.080
4399,-0.085,-0.050
4400,0.135,0.020
4401,0.625,0.180
4402,0.965,0.250
4403,0.795,0.195
4404,0.220,0.115
4405,-0.025,0.190
4406,-0.065,0.205
4407,-0.090,0.145
4408,-0.095,0.110
4409,-0.095,0.085
4410,-0.085,0.065
4411,-0.085,0.030
4412,-0.075,0.000
4413,-0.075,-0.015
4414,-0.065,-0.030
4415,-0.065,-0.035
4416,-0.055,-0.035
4417,-0.040,-0.030
4418,-0.035,-0.035
4419,-0.025,-0.030
4420,-0.010,-0.025
4421,0.000,-0.020
4422,0.000,-0.015
4423,0.000,-0.010
4424,0.015,-0.005
4425,0.045,0.000
4426,0.075,0.000
4427,0.105,0.010
4428,0.140,0.015
4429,0.170,0.025
4430,0.200,0.040
4431,0.220,0.055
4432,0.245,0.070
4433,0.260,0.080
4434,0.270,0.095
4435,0.260,0.105
4436,0.255,0.110
4437,0.220,0.105
4438,0.205,0.105
4439,0.165,0.085
4440,0.130,0.065
4441,0.105,0.055
4442,0.085,0.040
4443,0.050,0.015
4444,0.030,0.015
4445,0.005,0.000
4446,0.000,-0.005
4447,0.000,-0.010
4448,-0.010,-0.015
4449,-0.020,-0.020
4450,-0.035,-0.025
4451,-0.045,-0.030
4452,-0.050,-0.040
4453,-0.060,-0.045
4454,-0.070,-0.045
4455,-0.075,-0.050
4456,-0.080,-0.050
4457,-0.080,-0.050
4458,-0.085,-0.050
4459,-0.095,-0.050
4460,-0.095,-0.055
4461,-0.090,-0.050
4462,-0.075,-0.040
4463,-0.055,-0.030
4464,-0.050,-0.025
4465,-0.050,-0.025
4466,-0.045,-0.025
4467,-0.045,-0.025
4468,-0.060,-0.035
4469,-0.090,-0.055
4470,-0.090,-0.065
4471,-0.070,-0.045
4472,-0.055,-0.035
4473,-0.055,-0.030
4474,-0.085,-0.055
4475,-0.110,-0.080
4476,-0.120,-0.085
4477,-0.115,-0.085
4478,-0.110,-0.085
4479,-0.110,-0.085
4480,-0.115,-0.085
4481,-0.105,-0.085
4482,-0.105,-0.080
4483,-0.100,-0.075
4484,-0.105,-0.075
4485,-0.115,-0.070
4486,-0.030,-0.025
4487,0.325,0.100
4488,0.805,0.230
4489,0.965,0.250
4490,0.535,0.145
4491,0.060,0.130
4492,-0.065,0.210
4493,-0.090,0.190
4494,-0.110,0.130
4495,-0.110,0.100
4496,-0.100,0.075
4497,-0.095,0.045
4498,-0.095,0.015
4499,-0.085,-0.010
4500,-0.075,-0.025
4501,-0.065,-0.030
4502,-0.060,-0.030
4503,-0.055,-0.030
4504,-0.045,-0.030
4505,-0.035,-0.030
4506,-0.025,-0.025
4507,-0.015,-0.025
4508,-0.005,-0.020
4509,0.000,-0.015
4510,0.000,-0.010
4511,0.020,-0.005
4512,0.050,0.000
4513,0.085,0.005
4514,0.110,0.015
4515,0.145,0.030
4516,0.175,0.035
4517,0.205,0.050
4518,0.210,0.060
4519,0.235,0.080
4520,0.250,0.090
4521,0.250,0.105
4522,0.245,0.115
4523,0.235,0.115
4524,0.210,0.110
4525,0.180,0.090
4526,0.145,0.080
4527,0.110,0.055
4528,0.090,0.040
4529,0.060,0.035
4530,0.035,0.020
4531,0.010,0.010
4532,0.000,0.000
4533,0.000,-0.005
4534,-0.005,-0.010
4535,-0.020,-0.015
4536,-0.025,-0.020
4537,-0.045,-0.025
4538,-0.055,-0.030
4539,-0.060,-0.035
4540,-0.065,-0.035
4541,-0.070,-0.040
4542,-0.080,-0.045
4543,-0.080,-0.050
4544,-0.085,-0.050
4545,-0.085,-0.050
4546,-0.095,-0.050
4547,-0.090,-0.045
4548,-0.085,-0.035
4549,-0.075,-0.025
4550,-0.060,-0.015
4551,-0.055,-0.010
4552,-0.055,-0.010
4553,-0.055,-0.005
4554,-0.065,-0.020
4555,-0.080,-0.030
4556,-0.095,-0.050
4557,-0.090,-0.050
4558,-0.070,-0.035
4559,-0.065,-0.025
4560,-0.070,-0.030
4561,-0.105,-0.060
4562,-0.125,-0.080
4563,-0.130,-0.080
4564,-0.120,-0.080
4565,-0.120,-0.080
4566,-0.115,-0.080
4567,-0.115,-0.075
4568,-0.105,-0.075
4569,-0.115,-0.075
4570,-0.110,-0.075
4571,-0.120,-0.075
4572,-0.105,-0.055
4573,0.050,0.005
4574,0.490,0.155
4575,0.900,0.245
4576,0.870,0.210
4577,0.325,0.115
4578,-0.010,0.165
4579,-0.080,0.210
4580,-0.105,0.165
4581,-0.120,0.120
4582,-0.115,0.090
4583,-0.105,0.070
4584,-0.100,0.040
4585,-0.095,0.005
4586,-0.095,-0.015
4587,-0.090,-0.025
4588,-0.085,-0.030
4589,-0.080,-0.030
4590,-0.075,-0.030
4591,-0.065,-0.035
4592,-0.050,-0.030
4593,-0.040,-0.025
4594,-0.025,-0.020
4595,-0.015,-0.015
4596,0.000,-0.010
4597,0.000,-0.005
4598,0.015,0.000
4599,0.040,0.000
4600,0.070,0.015
4601,0.105,0.020
4602,0.135,0.035
4603,0.165,0.040
4604,0.195,0.060
4605,0.210,0.065
4606,0.230,0.080
4607,0.240,0.090
4608,0.240,0.105
4609,0.235,0.110
4610,0.220,0.110
4611,0.200,0.100
4612,0.165,0.080
4613,0.130,0.065
4614,0.095,0.050
4615,0.070,0.035
4616,0.045,0.025
4617,0.020,0.010
4618,0.000,0.000
4619,0.000,0.000
4620,-0.010,-0.005
4621,-0.015,-0.010
4622,-0.030,-0.020
4623,-0.040,-0.025
4624,-0.045,-0.035
4625,-0.050,-0.040
4626,-0.060,-0.045
4627,-0.075,-0.050
4628,-0.080,-0.050
4629,-0.085,-0.050
4630,-0.085,-0.050
4631,-0.095,-0.050
4632,-0.095,-0.055
4633,-0.095,-0.050
4634,-0.090,-0.045
4635,-0.085,-0.035
4636,-0.075,-0.025
4637,-0.065,-0.015
4638,-0.065,-0.015
4639,-0.065,-0.015
4640,-0.065,-0.015
4641,-0.065,-0.015
4642,-0.095,-0.030
4643,-0.095,-0.055
4644,-0.090,-0.045
4645,-0.070,-0.025
4646,-0.065,-0.020
4647,-0.080,-0.040
4648,-0.115,-0.075
4649,-0.130,-0.080
4650,-0.130,-0.080
4651,-0.130,-0.075
4652,-0.125,-0.075
4653,-0.120,-0.080
4654,-0.110,-0.080
4655,-0.110,-0.075
4656,-0.110,-0.075
4657,-0.110,-0.075
4658,-0.120,-0.070
4659,-0.070,-0.035
4660,0.200,0.055
4661,0.680,0.210
4662,0.955,0.260
4663,0.680,0.175
4664,0.160,0.120
4665,-0.045,0.200
4666,-0.075,0.210
4667,-0.105,0.145
4668,-0.110,0.110
4669,-0.105,0.090
4670,-0.095,0.065
4671,-0.095,0.025
4672,-0.090,-0.005
4673,-0.085,-0.015
4674,-0.080,-0.020
4675,-0.075,-0.025
4676,-0.070,-0.030
4677,-0.065,-0.030
4678,-0.055,-0.025
4679,-0.040,-0.025
4680,-0.035,-0.020
4681,-0.020,-0.020
4682,-0.005,-0.015
4683,0.000,-0.005
4684,0.015,0.000
4685,0.035,0.000
4686,0.065,0.005
4687,0.095,0.015
4688,0.125,0.025
4689,0.155,0.040
4690,0.195,0.050
4691,0.210,0.060
4692,0.235,0.085
4693,0.240,0.090
4694,0.255,0.105
4695,0.250,0.115
4696,0.245,0.125
4697,0.215,0.115
4698,0.200,0.105
4699,0.165,0.090
4700,0.130,0.070
4701,0.100,0.050
4702,0.075,0.035
4703,0.045,0.025
4704,0.020,0.010
4705,0.000,0.000
4706,0.000,0.000
4707,-0.005,-0.010
4708,-0.015,-0.015
4709,-0.030,-0.025
4710,-0.040,-0.030
4711,-0.050,-0.030
4712,-0.060,-0.035
4713,-0.070,-0.040
4714,-0.080,-0.045
4715,-0.085,-0.050
4716,-0.085,-0.050
4717,-0.095,-0.050
4718,-0.095,-0.055
4719,-0.095,-0.050
4720,-0.095,-0.050
4721,-0.090,-0.040
4722,-0.080,-0.030
4723,-0.070,-0.025
4724,-0.070,-0.020
4725,-0.070,-0.020
4726,-0.065,-0.020
4727,-0.070,-0.020
4728,-0.095,-0.035
4729,-0.115,-0.065
4730,-0.105,-0.065
4731,-0.090,-0.040
4732,-0.070,-0.020
4733,-0.075,-0.020
4734,-0.100,-0.050
4735,-0.130,-0.070
4736,-0.130,-0.075
4737,-0.130,-0.070
4738,-0.130,-0.070
4739,-0.130,-0.075
4740,-0.130,-0.075
4741,-0.125,-0.075
4742,-0.125,-0.075
4743,-0.120,-0.075
4744,-0.130,-0.075
4745,-0.130,-0.050
4746,-0.005,-0.010
4747,0.390,0.125
4748,0.840,0.240
4749,0.905,0.225
4750,0.415,0.135
4751,0.010,0.160
4752,-0.080,0.220
4753,-0.105,0.185
4754,-0.125,0.130
4755,-0.115,0.100
4756,-0.105,0.075
4757,-0.105,0.045
4758,-0.100,0.015
4759,-0.095,-0.005
4760,-0.095,-0.020
4761,-0.090,-0.025
4762,-0.080,-0.030
4763,-0.075,-0.030
4764,-0.070,-0.025
4765,-0.055,-0.020
4766,-0.035,-0.020
4767,-0.030,-0.015
4768,-0.015,-0.010
4769,0.000,-0.005
4770,0.000,0.000
4771,0.015,0.000
4772,0.045,0.005
4773,0.080,0.020
4774,0.100,0.025
4775,0.135,0.030
4776,0.170,0.045
4777,0.205,0.065
4778,0.215,0.070
4779,0.230,0.080
4780,0.245,0.090
4781,0.250,0.105
4782,0.245,0.115
4783,0.230,0.120
4784,0.205,0.110
4785,0.175,0.095
4786,0.140,0.080
4787,0.110,0.055
4788,0.085,0.040
4789,0.055,0.035
4790,0.030,0.025
4791,0.005,0.015
4792,0.000,0.005
4793,0.000,0.000
4794,-0.005,-0.005
4795,-0.030,-0.010
4796,-0.040,-0.015
4797,-0.045,-0.020
4798,-0.050,-0.020
4799,-0.065,-0.025
4800,-0.075,-0.030
4801,-0.075,-0.030
4802,-0.085,-0.030
4803,-0.085,-0.030
4804,-0.095,-0.035
4805,-0.095,-0.035
4806,-0.095,-0.035
4807,-0.095,-0.030
4808,-0.085,-0.025
4809,-0.075,-0.010
4810,-0.070,-0.010
4811,-0.070,-0.010
4812,-0.075,-0.010
4813,-0.075,-0.015
4814,-0.090,-0.020
4815,-0.105,-0.045
4816,-0.100,-0.050
4817,-0.085,-0.035
4818,-0.075,-0.020
4819,-0.080,-0.025
4820,-0.105,-0.055
4821,-0.130,-0.065
4822,-0.130,-0.065
4823,-0.130,-0.065
4824,-0.130,-0.065
4825,-0.130,-0.065
4826,-0.125,-0.060
4827,-0.125,-0.060
4828,-0.120,-0.065
4829,-0.120,-0.065
4830,-0.130,-0.065
4831,-0.135,-0.045
4832,0.010,0.000
4833,0.430,0.125
4834,0.865,0.220
4835,0.855,0.210
4836,0.340,0.155
4837,-0.020,0.195
4838,-0.110,0.230
4839,-0.135,0.180
4840,-0.140,0.130
4841,-0.120,0.110
4842,-0.105,0.090
4843,-0.100,0.055
4844,-0.095,0.020
4845,-0.090,0.000
4846,-0.085,-0.005
4847,-0.075,-0.010
4848,-0.070,-0.010
4849,-0.065,-0.015
4850,-0.055,-0.010
4851,-0.045,-0.010
4852,-0.030,-0.010
4853,-0.020,-0.005
4854,0.000,0.000
4855,0.000,0.000
4856,0.010,0.005
4857,0.030,0.005
4858,0.060,0.015
4859,0.085,0.020
4860,0.120,0.030
4861,0.155,0.035
4862,0.190,0.050
4863,0.210,0.065
4864,0.235,0.080
4865,0.245,0.080
4866,0.255,0.100
4867,0.260,0.115
4868,0.250,0.120
4869,0.235,0.120
4870,0.205,0.120
4871,0.180,0.110
4872,0.150,0.090
4873,0.115,0.080
4874,0.090,0.060
4875,0.065,0.055
4876,0.035,0.040
4877,0.015,0.025
4878,0.000,0.015
4879,0.000,0.010
4880,0.000,0.005
4881,-0.010,0.000
4882,-0.020,0.000
4883,-0.035,-0.005
4884,-0.040,-0.010
4885,-0.050,-0.010
4886,-0.055,-0.010
4887,-0.065,-0.015
4888,-0.065,-0.015
4889,-0.075,-0.020
4890,-0.080,-0.025
4891,-0.085,-0.025
4892,-0.080,-0.020
4893,-0.075,-0.010
4894,-0.065,-0.005
4895,-0.050,0.000
4896,-0.050,0.000
4897,-0.050,0.000
4898,-0.050,0.000
4899,-0.060,0.000
4900,-0.085,-0.015
4901,-0.095,-0.040
4902,-0.090,-0.035
4903,-0.065,-0.015
4904,-0.065,-0.010
4905,-0.075,-0.020
4906,-0.110,-0.055
4907,-0.115,-0.060
4908,-0.120,-0.065
4909,-0.120,-0.060
4910,-0.120,-0.060
4911,-0.110,-0.055
4912,-0.110,-0.055
4913,-0.110,-0.050
4914,-0.110,-0.055
4915,-0.110,-0.060
4916,-0.125,-0.065
4917,-0.100,-0.035
4918,0.120,0.030
4919,0.590,0.165
4920,0.925,0.230
4921,0.740,0.180
4922,0.205,0.135
4923,-0.060,0.195
4924,-0.100,0.215
4925,-0.120,0.160
4926,-0.125,0.120
4927,-0.105,0.100
4928,-0.095,0.080
4929,-0.095,0.045
4930,-0.090,0.010
4931,-0.085,-0.005
4932,-0.080,-0.015
4933,-0.070,-0.015
4934,-0.065,-0.020
4935,-0.055,-0.020
4936,-0.050,-0.015
4937,-0.035,-0.010
4938,-0.020,-0.010
4939,-0.010,-0.005
4940,0.000,0.000
4941,0.000,0.000
4942,0.015,0.000
4943,0.045,0.010
4944,0.080,0.015
4945,0.105,0.030
4946,0.140,0.040
4947,0.165,0.045
4948,0.200,0.065
4949,0.225,0.075
4950,0.245,0.080
4951,0.250,0.090
4952,0.270,0.110
4953,0.265,0.115
4954,0.260,0.125
4955,0.235,0.125
4956,0.210,0.120
4957,0.180,0.105
4958,0.145,0.090
4959,0.105,0.070
4960,0.085,0.055
4961,0.055,0.040
4962,0.035,0.025
4963,0.010,0.010
4964,0.000,0.005
4965,0.000,0.000
4966,-0.005,0.000
4967,-0.015,-0.010
4968,-0.025,-0.015
4969,-0.040,-0.015
4970,-0.045,-0.025
4971,-0.055,-0.030
4972,-0.065,-0.035
4973,-0.075,-0.040
4974,-0.080,-0.040
4975,-0.085,-0.040
4976,-0.090,-0.045
4977,-0.090,-0.040
4978,-0.085,-0.035
4979,-0.080,-0.025
4980,-0.070,-0.015
4981,-0.065,-0.010
4982,-0.055,-0.010
4983,-0.055,-0.010
4984,-0.050,-0.010
4985,-0.060,-0.010
4986,-0.080,-0.020
4987,-0.105,-0.050
4988,-0.100,-0.045
4989,-0.075,-0.025
4990,-0.065,-0.010
4991,-0.075,-0.015
4992,-0.100,-0.045
4993,-0.115,-0.060
4994,-0.120,-0.065
4995,-0.125,-0.065
4996,-0.125,-0.065
4997,-0.120,-0.065
4998,-0.120,-0.065
4999,-0.120,-0.065
5000,-0.120,-0.065
5001,-0.115,-0.065
5002,-0.125,-0.065
5003,-0.115,-0.045
5004,0.015,0.000
5005,0.430,0.140
5006,0.860,0.250
5007,0.900,0.240
5008,0.415,0.155
5009,0.010,0.180
5010,-0.080,0.230
5011,-0.095,0.195
5012,-0.115,0.140
5013,-0.110,0.110
5014,-0.095,0.095
5015,-0.095,0.065
5016,-0.095,0.025
5017,-0.090,0.000
5018,-0.085,-0.010
5019,-0.080,-0.020
5020,-0.075,-0.020
5021,-0.070,-0.020
5022,-0.060,-0.015
5023,-0.045,-0.015
5024,-0.040,-0.015
5025,-0.025,-0.010
5026,-0.015,0.000
5027,0.000,0.000
5028,0.000,0.000
5029,0.010,0.005
5030,0.040,0.010
5031,0.085,0.025
5032,0.105,0.035
5033,0.140,0.050
5034,0.175,0.060
5035,0.200,0.065
5036,0.220,0.075
5037,0.235,0.090
5038,0.245,0.105
5039,0.255,0.120
5040,0.245,0.125
5041,0.230,0.125
5042,0.205,0.120
5043,0.175,0.110
5044,0.140,0.090
5045,0.105,0.080
5046,0.080,0.060
5047,0.050,0.040
5048,0.025,0.030
5049,0.005,0.020
5050,0.000,0.005
5051,-0.005,0.000
5052,-0.015,0.000
5053,-0.030,-0.005
5054,-0.045,-0.015
5055,-0.055,-0.020
5056,-0.070,-0.025
5057,-0.075,-0.030
5058,-0.085,-0.040
5059,-0.090,-0.040
5060,-0.095,-0.040
5061,-0.095,-0.045
5062,-0.095,-0.045
5063,-0.095,-0.045
5064,-0.105,-0.045
5065,-0.105,-0.045
5066,-0.105,-0.040
5067,-0.095,-0.030
5068,-0.080,-0.015
5069,-0.080,-0.015
5070,-0.080,-0.015
5071,-0.075,-0.015
5072,-0.075,-0.015
5073,-0.095,-0.025
5074,-0.115,-0.055
5075,-0.105,-0.050
5076,-0.090,-0.030
5077,-0.085,-0.020
5078,-0.085,-0.030
5079,-0.125,-0.065
5080,-0.140,-0.070
5081,-0.150,-0.075
5082,-0.150,-0.075
5083,-0.150,-0.080
5084,-0.140,-0.075
5085,-0.150,-0.075
5086,-0.140,-0.075
5087,-0.140,-0.075
5088,-0.140,-0.080
5089,-0.150,-0.080
5090,-0.135,-0.055
5091,0.050,0.000
5092,0.480,0.145
5093,0.880,0.240
5094,0.830,0.210
5095,0.320,0.125
5096,-0.035,0.165
5097,-0.100,0.210
5098,-0.125,0.160
5099,-0.150,0.110
5100,-0.140,0.090
5101,-0.125,0.070
5102,-0.120,0.040
5103,-0.125,0.005
5104,-0.115,-0.015
5105,-0.105,-0.025
5106,-0.100,-0.030
5107,-0.100,-0.035
5108,-0.090,-0.030
5109,-0.085,-0.030
5110,-0.070,-0.030
5111,-0.065,-0.025
5112,-0.050,-0.020
5113,-0.035,-0.015
5114,-0.015,-0.010
5115,0.000,-0.005
5116,0.005,0.000
5117,0.025,0.000
5118,0.060,0.015
5119,0.085,0.015
5120,0.115,0.025
5121,0.145,0.030
5122,0.175,0.045
5123,0.195,0.050
5124,0.205,0.065
5125,0.210,0.085
5126,0.215,0.095
5127,0.210,0.100
5128,0.195,0.100
5129,0.175,0.095
5130,0.135,0.080
5131,0.100,0.065
5132,0.070,0.045
5133,0.045,0.030
5134,0.015,0.015
5135,0.000,0.005
5136,-0.005,0.000
5137,-0.020,-0.005
5138,-0.035,-0.015
5139,-0.050,-0.025
5140,-0.060,-0.035
5141,-0.070,-0.040
5142,-0.075,-0.040
5143,-0.085,-0.050
5144,-0.095,-0.050
5145,-0.105,-0.060
5146,-0.105,-0.065
5147,-0.110,-0.065
5148,-0.120,-0.070
5149,-0.120,-0.075
5150,-0.130,-0.075
5151,-0.130,-0.075
5152,-0.130,-0.070
5153,-0.125,-0.060
5154,-0.115,-0.055
5155,-0.095,-0.040
5156,-0.095,-0.040
5157,-0.095,-0.035
5158,-0.095,-0.030
5159,-0.095,-0.030
5160,-0.115,-0.045
5161,-0.135,-0.075
5162,-0.130,-0.070
5163,-0.105,-0.055
5164,-0.100,-0.045
5165,-0.100,-0.045
5166,-0.135,-0.080
5167,-0.160,-0.090
5168,-0.175,-0.100
5169,-0.180,-0.100
5170,-0.170,-0.095
5171,-0.165,-0.095
5172,-0.165,-0.095
5173,-0.165,-0.095
5174,-0.160,-0.095
5175,-0.160,-0.095
5176,-0.170,-0.100
5177,-0.165,-0.080
5178,0.000,-0.015
5179,0.405,0.110
5180,0.835,0.220
5181,0.845,0.195
5182,0.360,0.105
5183,-0.030,0.130
5184,-0.115,0.185
5185,-0.140,0.145
5186,-0.160,0.100
5187,-0.155,0.075
5188,-0.150,0.050
5189,-0.150,0.020
5190,-0.140,-0.010
5191,-0.130,-0.035
5192,-0.125,-0.050
5193,-0.120,-0.055
5194,-0.115,-0.050
5195,-0.105,-0.050
5196,-0.095,-0.050
5197,-0.090,-0.045
5198,-0.085,-0.040
5199,-0.075,-0.035
5200,-0.060,-0.030
5201,-0.045,-0.025
5202,-0.020,-0.020
5203,0.000,-0.010
5204,0.000,-0.010
5205,0.025,-0.005
5206,0.055,0.000
5207,0.090,0.005
5208,0.120,0.020
5209,0.145,0.025
5210,0.175,0.045
5211,0.195,0.055
5212,0.200,0.070
5213,0.205,0.080
5214,0.205,0.090
5215,0.185,0.095
5216,0.160,0.080
5217,0.125,0.065
5218,0.095,0.050
5219,0.060,0.035
5220,0.030,0.020
5221,0.005,0.005
5222,0.000,0.000
5223,-0.015,-0.005
5224,-0.035,-0.010
5225,-0.050,-0.015
5226,-0.065,-0.020
5227,-0.075,-0.025
5228,-0.085,-0.030
5229,-0.095,-0.040
5230,-0.100,-0.045
5231,-0.105,-0.045
5232,-0.110,-0.050
5233,-0.120,-0.050
5234,-0.125,-0.060
5235,-0.135,-0.065
5236,-0.135,-0.065
5237,-0.140,-0.065
5238,-0.140,-0.065
5239,-0.135,-0.065
5240,-0.125,-0.045
5241,-0.115,-0.035
5242,-0.105,-0.035
5243,-0.110,-0.045
5244,-0.115,-0.045
5245,-0.125,-0.050
5246,-0.130,-0.050
5247,-0.155,-0.065
5248,-0.170,-0.080
5249,-0.150,-0.080
5250,-0.120,-0.060
5251,-0.105,-0.045
5252,-0.105,-0.045
5253,-0.135,-0.065
5254,-0.165,-0.090
5255,-0.170,-0.095
5256,-0.170,-0.095
5257,-0.165,-0.095
5258,-0.165,-0.095
5259,-0.165,-0.095
5260,-0.165,-0.090
5261,-0.160,-0.085
5262,-0.165,-0.090
5263,-0.170,-0.085
5264,-0.160,-0.065
5265,0.000,0.000
5266,0.400,0.135
5267,0.830,0.245
5268,0.855,0.220
5269,0.385,0.130
5270,-0.020,0.145
5271,-0.100,0.210
5272,-0.130,0.170
5273,-0.160,0.110
5274,-0.155,0.085
5275,-0.145,0.060
5276,-0.140,0.040
5277,-0.135,0.005
5278,-0.130,-0.015
5279,-0.125,-0.030
5280,-0.120,-0.040
5281,-0.100,-0.040
5282,-0.095,-0.040
5283,-0.095,-0.040
5284,-0.090,-0.035
5285,-0.075,-0.030
5286,-0.065,-0.025
5287,-0.045,-0.025
5288,-0.040,-0.020
5289,-0.005,-0.010
5290,0.000,-0.005
5291,0.005,0.000
5292,0.035,0.000
5293,0.075,0.010
5294,0.095,0.025
5295,0.135,0.030
5296,0.165,0.045
5297,0.195,0.060
5298,0.200,0.075
5299,0.215,0.085
5300,0.210,0.100
5301,0.205,0.110
5302,0.200,0.115
5303,0.175,0.100
5304,0.135,0.085
5305,0.105,0.075
5306,0.070,0.060
5307,0.035,0.035
5308,0.010,0.025
5309,0.000,0.015
5310,-0.010,0.005
5311,-0.030,0.000
5312,-0.045,-0.015
5313,-0.050,-0.020
5314,-0.065,-0.020
5315,-0.070,-0.020
5316,-0.085,-0.025
5317,-0.085,-0.030
5318,-0.095,-0.035
5319,-0.095,-0.035
5320,-0.100,-0.045
5321,-0.105,-0.050
5322,-0.110,-0.045
5323,-0.105,-0.045
5324,-0.120,-0.055
5325,-0.120,-0.050
5326,-0.120,-0.045
5327,-0.105,-0.040
5328,-0.100,-0.035
5329,-0.095,-0.020
5330,-0.095,-0.020
5331,-0.095,-0.020
5332,-0.095,-0.020
5333,-0.095,-0.020
5334,-0.100,-0.025
5335,-0.130,-0.055
5336,-0.120,-0.060
5337,-0.100,-0.040
5338,-0.095,-0.025
5339,-0.100,-0.035
5340,-0.130,-0.065
5341,-0.155,-0.075
5342,-0.160,-0.080
5343,-0.160,-0.080
5344,-0.160,-0.085
5345,-0.160,-0.085
5346,-0.160,-0.085
5347,-0.160,-0.085
5348,-0.160,-0.085
5349,-0.160,-0.085
5350,-0.165,-0.080
5351,-0.145,-0.055
5352,0.025,0.005
5353,0.440,0.140
5354,0.850,0.240
5355,0.820,0.200
5356,0.335,0.115
5357,-0.045,0.150
5358,-0.110,0.210
5359,-0.135,0.165
5360,-0.160,0.110
5361,-0.155,0.085
5362,-0.140,0.065
5363,-0.140,0.030
5364,-0.135,0.000
5365,-0.130,-0.030
5366,-0.120,-0.030
5367,-0.115,-0.040
5368,-0.100,-0.040
5369,-0.100,-0.040
5370,-0.095,-0.035
5371,-0.090,-0.030
5372,-0.075,-0.030
5373,-0.065,-0.025
5374,-0.040,-0.020
5375,-0.025,-0.015
5376,-0.005,-0.015
5377,0.000,-0.010
5378,0.015,0.000
5379,0.045,0.000
5380,0.085,0.010
5381,0.110,0.015
5382,0.140,0.030
5383,0.170,0.045
5384,0.195,0.055
5385,0.200,0.060
5386,0.205,0.080
5387,0.220,0.095
5388,0.210,0.105
5389,0.200,0.110
5390,0.170,0.100
5391,0.140,0.090
5392,0.110,0.070
5393,0.080,0.055
5394,0.050,0.040
5395,0.020,0.025
5396,0.000,0.010
5397,-0.005,0.000
5398,-0.015,-0.005
5399,-0.030,-0.015
5400,-0.050,-0.020
5401,-0.065,-0.025
5402,-0.070,-0.030
5403,-0.080,-0.035
5404,-0.090,-0.035
5405,-0.095,-0.045
5406,-0.095,-0.050
5407,-0.105,-0.055
5408,-0.120,-0.055
5409,-0.120,-0.055
5410,-0.130,-0.060
5411,-0.130,-0.065
5412,-0.130,-0.065
5413,-0.130,-0.060
5414,-0.125,-0.055
5415,-0.100,-0.040
5416,-0.100,-0.035
5417,-0.100,-0.035
5418,-0.100,-0.035
5419,-0.100,-0.035
5420,-0.115,-0.045
5421,-0.140,-0.060
5422,-0.150,-0.075
5423,-0.120,-0.055
5424,-0.100,-0.045
5425,-0.100,-0.040
5426,-0.130,-0.060
5427,-0.160,-0.090
5428,-0.175,-0.095
5429,-0.175,-0.095
5430,-0.175,-0.095
5431,-0.180,-0.100
5432,-0.170,-0.100
5433,-0.170,-0.100
5434,-0.170,-0.100
5435,-0.170,-0.095
5436,-0.170,-0.095
5437,-0.180,-0.085
5438,-0.105,-0.050
5439,0.200,0.045
5440,0.670,0.170
5441,0.895,0.200
5442,0.565,0.135
5443,0.055,0.120
5444,-0.140,0.175
5445,-0.165,0.170
5446,-0.190,0.100
5447,-0.180,0.075
5448,-0.165,0.055
5449,-0.150,0.030
5450,-0.145,0.000
5451,-0.135,-0.030
5452,-0.125,-0.045
5453,-0.120,-0.050
5454,-0.115,-0.050
5455,-0.105,-0.050
5456,-0.100,-0.045
5457,-0.095,-0.040
5458,-0.090,-0.040
5459,-0.080,-0.040
5460,-0.065,-0.035
5461,-0.040,-0.025
5462,-0.015,-0.025
5463,0.000,-0.025
5464,0.000,-0.020
5465,0.030,-0.010
5466,0.075,0.000
5467,0.095,0.000
5468,0.125,0.005
5469,0.155,0.015
5470,0.185,0.025
5471,0.200,0.035
5472,0.210,0.055
5473,0.215,0.065
5474,0.210,0.080
5475,0.200,0.085
5476,0.180,0.080
5477,0.150,0.070
5478,0.120,0.055
5479,0.085,0.040
5480,0.060,0.020
5481,0.030,0.005
5482,0.005,0.000
5483,0.000,-0.010
5484,-0.015,-0.020
5485,-0.030,-0.030
5486,-0.045,-0.040
5487,-0.060,-0.040
5488,-0.070,-0.050
5489,-0.080,-0.055
5490,-0.090,-0.055
5491,-0.095,-0.055
5492,-0.100,-0.070
5493,-0.105,-0.075
5494,-0.105,-0.075
5495,-0.115,-0.075
5496,-0.115,-0.075
5497,-0.125,-0.075
5498,-0.120,-0.070
5499,-0.115,-0.060
5500,-0.105,-0.055
5501,-0.100,-0.050
5502,-0.100,-0.050
5503,-0.100,-0.060
5504,-0.100,-0.060
5505,-0.115,-0.060
5506,-0.135,-0.070
5507,-0.160,-0.100
5508,-0.150,-0.095
5509,-0.110,-0.070
5510,-0.105,-0.065
5511,-0.125,-0.075
5512,-0.155,-0.100
5513,-0.175,-0.110
5514,-0.180,-0.110
5515,-0.170,-0.105
5516,-0.170,-0.115
5517,-0.165,-0.120
5518,-0.165,-0.115
5519,-0.165,-0.110
5520,-0.165,-0.110
5521,-0.170,-0.110
5522,-0.175,-0.110
5523,-0.155,-0.095
5524,0.025,-0.030
5525,0.455,0.085
5526,0.855,0.170
5527,0.775,0.150
5528,0.265,0.110
5529,-0.095,0.140
5530,-0.155,0.165
5531,-0.180,0.105
5532,-0.180,0.065
5533,-0.165,0.040
5534,-0.150,0.020
5535,-0.145,-0.005
5536,-0.135,-0.040
5537,-0.130,-0.065
5538,-0.125,-0.075
5539,-0.115,-0.080
5540,-0.110,-0.080
5541,-0.100,-0.080
5542,-0.095,-0.075
5543,-0.090,-0.070
5544,-0.080,-0.065
5545,-0.065,-0.065
5546,-0.050,-0.065
5547,-0.035,-0.065
5548,-0.015,-0.050
5549,0.000,-0.045
5550,0.010,-0.040
5551,0.055,-0.025
5552,0.085,-0.025
5553,0.110,-0.015
5554,0.135,0.000
5555,0.165,0.000
5556,0.190,0.005
5557,0.200,0.025
5558,0.205,0.035
5559,0.205,0.050
5560,0.205,0.055
5561,0.185,0.060
5562,0.160,0.050
5563,0.125,0.040
5564,0.095,0.025
5565,0.065,0.010
5566,0.035,0.000
5567,0.010,-0.015
5568,0.000,-0.025
5569,-0.010,-0.040
5570,-0.030,-0.050
5571,-0.045,-0.055
5572,-0.055,-0.065
5573,-0.070,-0.070
5574,-0.080,-0.080
5575,-0.085,-0.085
5576,-0.095,-0.095
5577,-0.095,-0.095
5578,-0.110,-0.105
5579,-0.115,-0.105
5580,-0.120,-0.105
5581,-0.120,-0.105
5582,-0.130,-0.110
5583,-0.130,-0.105
5584,-0.125,-0.100
5585,-0.120,-0.095
5586,-0.100,-0.080
5587,-0.100,-0.080
5588,-0.100,-0.075
5589,-0.100,-0.075
5590,-0.100,-0.080
5591,-0.120,-0.090
5592,-0.140,-0.115
5593,-0.145,-0.120
5594,-0.110,-0.105
5595,-0.100,-0.095
5596,-0.100,-0.095
5597,-0.140,-0.115
5598,-0.165,-0.130
5599,-0.175,-0.135
5600,-0.170,-0.135
5601,-0.170,-0.135
5602,-0.170,-0.135
5603,-0.170,-0.135
5604,-0.165,-0.140
5605,-0.165,-0.140
5606,-0.165,-0.140
5607,-0.170,-0.145
5608,-0.170,-0.135
5609,-0.095,-0.100
5610,0.190,-0.005
5611,0.655,0.125
5612,0.910,0.170
5613,0.605,0.105
5614,0.080,0.070
5615,-0.130,0.125
5616,-0.140,0.140
5617,-0.165,0.075
5618,-0.165,0.045
5619,-0.155,0.020
5620,-0.145,0.000
5621,-0.140,-0.035
5622,-0.135,-0.065
5623,-0.135,-0.085
5624,-0.125,-0.095
5625,-0.120,-0.095
5626,-0.105,-0.095
5627,-0.100,-0.095
5628,-0.095,-0.095
5629,-0.090,-0.090
5630,-0.075,-0.085
5631,-0.060,-0.080
5632,-0.045,-0.080
5633,-0.025,-0.075
5634,0.000,-0.065
5635,0.000,-0.065
5636,0.020,-0.050
5637,0.060,-0.040
5638,0.085,-0.035
5639,0.115,-0.025
5640,0.145,-0.010
5641,0.185,0.000
5642,0.200,0.005
5643,0.205,0.015
5644,0.210,0.030
5645,0.210,0.045
5646,0.200,0.050
5647,0.185,0.040
5648,0.155,0.035
5649,0.125,0.020
5650,0.090,0.005
5651,0.060,-0.005
5652,0.025,-0.025
5653,0.000,-0.040
5654,-0.005,-0.045
5655,-0.020,-0.060
5656,-0.035,-0.070
5657,-0.050,-0.075
5658,-0.060,-0.075
5659,-0.075,-0.085
5660,-0.085,-0.090
5661,-0.095,-0.100
5662,-0.095,-0.100
5663,-0.100,-0.110
5664,-0.115,-0.115
5665,-0.120,-0.115
5666,-0.120,-0.115
5667,-0.125,-0.120
5668,-0.135,-0.120
5669,-0.130,-0.120
5670,-0.125,-0.110
5671,-0.120,-0.100
5672,-0.110,-0.095
5673,-0.100,-0.080
5674,-0.100,-0.080
5675,-0.095,-0.080
5676,-0.095,-0.085
5677,-0.100,-0.090
5678,-0.130,-0.110
5679,-0.135,-0.130
5680,-0.125,-0.120
5681,-0.100,-0.105
5682,-0.105,-0.100
5683,-0.130,-0.120
5684,-0.165,-0.145
5685,-0.175,-0.155
5686,-0.180,-0.150
5687,-0.175,-0.150
5688,-0.175,-0.150
5689,-0.180,-0.155
5690,-0.170,-0.150
5691,-0.170,-0.150
5692,-0.170,-0.150
5693,-0.170,-0.150
5694,-0.175,-0.140
5695,-0.110,-0.105
5696,0.155,-0.015
5697,0.610,0.115
5698,0.905,0.170
5699,0.665,0.100
5700,0.135,0.045
5701,-0.110,0.100
5702,-0.130,0.130
5703,-0.155,0.070
5704,-0.165,0.035
5705,-0.155,0.015
5706,-0.150,-0.005
5707,-0.140,-0.035
5708,-0.140,-0.075
5709,-0.135,-0.095
5710,-0.125,-0.105
5711,-0.120,-0.105
5712,-0.115,-0.105
5713,-0.100,-0.105
5714,-0.095,-0.100
5715,-0.090,-0.095
5716,-0.075,-0.095
5717,-0.070,-0.090
5718,-0.055,-0.085
5719,-0.040,-0.080
5720,-0.015,-0.075
5721,0.000,-0.070
5722,0.010,-0.060
5723,0.040,-0.050
5724,0.080,-0.040
5725,0.105,-0.030
5726,0.140,-0.015
5727,0.165,-0.005
5728,0.190,0.000
5729,0.200,0.005
5730,0.205,0.025
5731,0.205,0.035
5732,0.195,0.040
5733,0.175,0.035
5734,0.145,0.025
5735,0.115,0.010
5736,0.090,0.000
5737,0.055,-0.010
5738,0.020,-0.030
5739,0.005,-0.045
5740,-0.005,-0.055
5741,-0.025,-0.070
5742,-0.040,-0.085
5743,-0.055,-0.090
5744,-0.070,-0.095
5745,-0.080,-0.100
5746,-0.090,-0.110
5747,-0.095,-0.110
5748,-0.100,-0.110
5749,-0.105,-0.120
5750,-0.120,-0.125
5751,-0.125,-0.130
5752,-0.125,-0.130
5753,-0.135,-0.130
5754,-0.135,-0.135
5755,-0.135,-0.135
5756,-0.130,-0.125
5757,-0.125,-0.115
5758,-0.115,-0.100
5759,-0.115,-0.095
5760,-0.100,-0.095
5761,-0.100,-0.100
5762,-0.105,-0.095
5763,-0.115,-0.095
5764,-0.140,-0.115
5765,-0.165,-0.145
5766,-0.145,-0.140
5767,-0.120,-0.115
5768,-0.105,-0.100
5769,-0.120,-0.110
5770,-0.155,-0.140
5771,-0.175,-0.150
5772,-0.185,-0.155
5773,-0.180,-0.155
5774,-0.180,-0.155
5775,-0.180,-0.155
5776,-0.180,-0.155
5777,-0.175,-0.160
5778,-0.175,-0.160
5779,-0.170,-0.155
5780,-0.175,-0.155
5781,-0.160,-0.135
5782,0.000,-0.070
5783,0.380,0.050
5784,0.810,0.160
5785,0.845,0.145
5786,0.380,0.055
5787,-0.050,0.060
5788,-0.115,0.135
5789,-0.140,0.095
5790,-0.170,0.045
5791,-0.165,0.015
5792,-0.155,0.000
5793,-0.150,-0.025
5794,-0.145,-0.070
5795,-0.140,-0.090
5796,-0.130,-0.100
5797,-0.125,-0.105
5798,-0.120,-0.105
5799,-0.110,-0.110
5800,-0.105,-0.105
5801,-0.095,-0.100
5802,-0.090,-0.095
5803,-0.080,-0.095
5804,-0.070,-0.100
5805,-0.050,-0.090
5806,-0.030,-0.085
5807,0.000,-0.075
5808,0.000,-0.070
5809,0.025,-0.055
5810,0.055,-0.050
5811,0.085,-0.040
5812,0.110,-0.030
5813,0.145,-0.015
5814,0.165,-0.010
5815,0.185,0.000
5816,0.200,0.010
5817,0.205,0.025
5818,0.200,0.035
5819,0.185,0.035
5820,0.155,0.025
5821,0.120,0.015
5822,0.090,0.000
5823,0.055,-0.015
5824,0.025,-0.030
5825,0.005,-0.045
5826,0.000,-0.055
5827,-0.020,-0.070
5828,-0.045,-0.080
5829,-0.055,-0.085
5830,-0.065,-0.095
5831,-0.075,-0.100
5832,-0.095,-0.110
5833,-0.095,-0.110
5834,-0.100,-0.120
5835,-0.105,-0.125
5836,-0.120,-0.130
5837,-0.120,-0.130
5838,-0.125,-0.130
5839,-0.125,-0.130
5840,-0.140,-0.135
5841,-0.140,-0.135
5842,-0.135,-0.130
5843,-0.130,-0.125
5844,-0.125,-0.120
5845,-0.115,-0.105
5846,-0.105,-0.100
5847,-0.105,-0.095
5848,-0.100,-0.095
5849,-0.100,-0.100
5850,-0.110,-0.100
5851,-0.135,-0.130
5852,-0.140,-0.140
5853,-0.125,-0.130
5854,-0.105,-0.110
5855,-0.110,-0.110
5856,-0.130,-0.130
5857,-0.160,-0.150
5858,-0.170,-0.160
5859,-0.175,-0.160
5860,-0.175,-0.160
5861,-0.175,-0.160
5862,-0.175,-0.160
5863,-0.175,-0.160
5864,-0.175,-0.160
5865,-0.170,-0.160
5866,-0.175,-0.160
5867,-0.180,-0.145
5868,-0.090,-0.100
5869,0.215,0.000
5870,0.675,0.130
5871,0.905,0.165
5872,0.580,0.080
5873,0.050,0.040
5874,-0.115,0.115
5875,-0.120,0.125
5876,-0.160,0.065
5877,-0.170,0.025
5878,-0.155,0.005
5879,-0.155,-0.015
5880,-0.140,-0.045
5881,-0.145,-0.090
5882,-0.130,-0.105
5883,-0.125,-0.100
5884,-0.110,-0.100
5885,-0.105,-0.105
5886,-0.095,-0.105
5887,-0.095,-0.100
5888,-0.095,-0.100
5889,-0.085,-0.100
5890,-0.070,-0.095
5891,-0.050,-0.085
5892,-0.025,-0.080
5893,-0.010,-0.080
5894,0.000,-0.070
5895,0.020,-0.050
5896,0.055,-0.035
5897,0.085,-0.030
5898,0.110,-0.015
5899,0.145,0.000
5900,0.170,0.000
5901,0.190,0.010
5902,0.200,0.020
5903,0.205,0.030
5904,0.205,0.035
5905,0.190,0.020
5906,0.150,-0.005
5907,0.105,-0.030
5908,0.075,-0.040
5909,0.045,-0.045
5910,0.015,-0.060
5911,0.000,-0.070
5912,0.000,-0.060
5913,0.000,-0.050
5914,0.000,-0.035
5915,0.000,-0.030
5916,-0.020,-0.035
5917,-0.045,-0.045
5918,-0.065,-0.060
5919,-0.080,-0.075
5920,-0.095,-0.085
5921,-0.095,-0.095
5922,-0.105,-0.095
5923,-0.115,-0.095
5924,-0.115,-0.100
5925,-0.125,-0.100
5926,-0.130,-0.105
5927,-0.130,-0.105
5928,-0.130,-0.105
5929,-0.130,-0.105
5930,-0.135,-0.105
5931,-0.135,-0.105
5932,-0.135,-0.105
5933,-0.130,-0.100
5934,-0.135,-0.100
5935,-0.135,-0.105
5936,-0.135,-0.105
5937,-0.130,-0.095
5938,-0.135,-0.100
5939,-0.130,-0.100
5940,-0.125,-0.080
5941,-0.010,-0.015
5942,0.320,0.095
5943,0.760,0.220
5944,0.905,0.210
5945,0.500,0.110
5946,0.035,0.090
5947,-0.080,0.185
5948,-0.090,0.185
5949,-0.120,0.115
5950,-0.120,0.075
5951,-0.115,0.045
5952,-0.110,0.020
5953,-0.110,-0.010
5954,-0.105,-0.040
5955,-0.105,-0.060
5956,-0.100,-0.065
5957,-0.095,-0.065
5958,-0.095,-0.070
5959,-0.090,-0.070
5960,-0.085,-0.070
5961,-0.070,-0.065
5962,-0.060,-0.060
5963,-0.045,-0.055
5964,-0.025,-0.050
5965,-0.005,-0.040
5966,0.000,-0.040
5967,0.010,-0.035
5968,0.040,-0.020
5969,0.080,-0.010
5970,0.100,0.000
5971,0.125,0.000
5972,0.155,0.005
5973,0.180,0.030
5974,0.190,0.030
5975,0.200,0.045
5976,0.200,0.055
5977,0.195,0.060
5978,0.180,0.060
5979,0.145,0.050
5980,0.115,0.035
5981,0.085,0.015
5982,0.055,0.000
5983,0.015,-0.015
5984,0.000,-0.030
5985,-0.010,-0.045
5986,-0.030,-0.055
5987,-0.055,-0.070
5988,-0.070,-0.075
5989,-0.085,-0.085
5990,-0.095,-0.090
5991,-0.100,-0.095
5992,-0.105,-0.100
5993,-0.110,-0.105
5994,-0.120,-0.105
5995,-0.125,-0.105
5996,-0.135,-0.110
5997,-0.135,-0.110
5998,-0.135,-0.115
5999,-0.135,-0.115
6000,-0.145,-0.115
6001,-0.145,-0.115
6002,-0.145,-0.110
6003,-0.140,-0.110
6004,-0.145,-0.115
6005,-0.145,-0.115
6006,-0.145,-0.115
6007,-0.145,-0.115
6008,-0.145,-0.120
6009,-0.150,-0.115
6010,-0.135,-0.100
6011,-0.130,-0.090
6012,-0.110,-0.075
6013,-0.105,-0.070
6014,-0.105,-0.075
6015,-0.100,-0.075
6016,-0.095,-0.075
6017,-0.100,-0.075
6018,-0.130,-0.090
6019,-0.145,-0.110
6020,-0.130,-0.100
6021,-0.100,-0.080
6022,-0.095,-0.075
6023,-0.120,-0.095
6024,-0.145,-0.120
6025,-0.165,-0.125
6026,-0.165,-0.125
6027,-0.165,-0.120
6028,-0.165,-0.125
6029,-0.160,-0.125
6030,-0.160,-0.125
6031,-0.150,-0.120
6032,-0.155,-0.120
6033,-0.160,-0.125
6034,-0.155,-0.105
6035,-0.035,-0.050
6036,0.330,0.060
6037,0.780,0.170
6038,0.880,0.175
6039,0.450,0.100
6040,0.000,0.100
6041,-0.110,0.165
6042,-0.130,0.135
6043,-0.160,0.080
6044,-0.145,0.055
6045,-0.135,0.030
6046,-0.135,0.005
6047,-0.130,-0.020
6048,-0.125,-0.050
6049,-0.120,-0.075
6050,-0.115,-0.075
6051,-0.100,-0.070
6052,-0.095,-0.070
6053,-0.090,-0.070
6054,-0.075,-0.065
6055,-0.070,-0.060
6056,-0.055,-0.055
6057,-0.030,-0.050
6058,-0.025,-0.045
6059,-0.005,-0.040
6060,0.000,-0.030
6061,0.010,-0.030
6062,0.050,-0.020
6063,0.085,-0.010
6064,0.105,0.000
6065,0.140,0.000
6066,0.175,0.005
6067,0.205,0.025
6068,0.220,0.035
6069,0.235,0.050
6070,0.240,0.055
6071,0.245,0.070
6072,0.230,0.075
6073,0.210,0.070
6074,0.190,0.065
6075,0.160,0.055
6076,0.125,0.040
6077,0.095,0.025
6078,0.060,0.010
6079,0.030,0.000
6080,0.015,-0.005
6081,0.000,-0.015
6082,0.000,-0.025
6083,-0.005,-0.030
6084,-0.020,-0.035
6085,-0.035,-0.040
6086,-0.045,-0.050
6087,-0.060,-0.050
6088,-0.070,-0.050
6089,-0.080,-0.060
6090,-0.095,-0.070
6091,-0.095,-0.070
6092,-0.100,-0.075
6093,-0.100,-0.075
6094,-0.120,-0.080
6095,-0.120,-0.080
6096,-0.125,-0.080
6097,-0.130,-0.085
6098,-0.130,-0.080
6099,-0.120,-0.070
6100,-0.115,-0.065
6101,-0.100,-0.055
6102,-0.100,-0.055
6103,-0.100,-0.055
6104,-0.095,-0.050
6105,-0.095,-0.050
6106,-0.120,-0.065
6107,-0.140,-0.090
6108,-0.130,-0.085
6109,-0.110,-0.070
6110,-0.100,-0.055
6111,-0.115,-0.070
6112,-0.135,-0.090
6113,-0.160,-0.105
6114,-0.165,-0.110
6115,-0.170,-0.105
6116,-0.165,-0.105
6117,-0.160,-0.105
6118,-0.160,-0.100
6119,-0.160,-0.105
6120,-0.155,-0.100
6121,-0.160,-0.105
6122,-0.170,-0.100
6123,-0.110,-0.070
6124,0.160,0.010
6125,0.620,0.130
6126,0.890,0.180
6127,0.615,0.135
6128,0.090,0.110
6129,-0.140,0.170
6130,-0.160,0.170
6131,-0.185,0.100
6132,-0.175,0.075
6133,-0.150,0.055
6134,-0.140,0.030
6135,-0.140,-0.005
6136,-0.130,-0.030
6137,-0.120,-0.045
6138,-0.105,-0.050
6139,-0.105,-0.060
6140,-0.095,-0.060
6141,-0.090,-0.055
6142,-0.085,-0.050
6143,-0.080,-0.050
6144,-0.070,-0.050
6145,-0.055,-0.045
6146,-0.030,-0.040
6147,-0.020,-0.040
6148,0.000,-0.035
6149,0.005,-0.030
6150,0.040,-0.020
6151,0.070,-0.015
6152,0.095,0.000
6153,0.125,0.000
6154,0.160,0.010
6155,0.185,0.020
6156,0.205,0.030
6157,0.215,0.040
6158,0.220,0.055
6159,0.210,0.065
6160,0.205,0.070
6161,0.190,0.070
6162,0.160,0.060
6163,0.130,0.050
6164,0.095,0.035
6165,0.070,0.020
6166,0.040,0.005
6167,0.010,0.000
6168,0.000,-0.005
6169,-0.005,-0.015
6170,-0.020,-0.020
6171,-0.030,-0.030
6172,-0.045,-0.035
6173,-0.060,-0.040
6174,-0.065,-0.045
6175,-0.070,-0.050
6176,-0.085,-0.060
6177,-0.095,-0.060
6178,-0.095,-0.060
6179,-0.095,-0.065
6180,-0.105,-0.070
6181,-0.110,-0.070
6182,-0.110,-0.070
6183,-0.120,-0.075
6184,-0.120,-0.075
6185,-0.115,-0.070
6186,-0.105,-0.065
6187,-0.105,-0.065
6188,-0.100,-0.050
6189,-0.095,-0.045
6190,-0.095,-0.045
6191,-0.095,-0.045
6192,-0.095,-0.045
6193,-0.105,-0.060
6194,-0.130,-0.085
6195,-0.120,-0.080
6196,-0.105,-0.075
6197,-0.095,-0.055
6198,-0.100,-0.065
6199,-0.125,-0.085
6200,-0.155,-0.100
6201,-0.160,-0.105
6202,-0.160,-0.105
6203,-0.155,-0.105
6204,-0.155,-0.105
6205,-0.160,-0.105
6206,-0.155,-0.105
6207,-0.150,-0.105
6208,-0.155,-0.105
6209,-0.160,-0.100
6210,-0.105,-0.070
6211,0.145,0.010
6212,0.600,0.140
6213,0.900,0.200
6214,0.670,0.145
6215,0.125,0.105
6216,-0.120,0.160
6217,-0.130,0.180
6218,-0.160,0.110
6219,-0.155,0.080
6220,-0.145,0.060
6221,-0.130,0.035
6222,-0.125,0.000
6223,-0.120,-0.030
6224,-0.115,-0.050
6225,-0.105,-0.060
6226,-0.100,-0.060
6227,-0.095,-0.065
6228,-0.090,-0.060
6229,-0.085,-0.055
6230,-0.080,-0.055
6231,-0.065,-0.050
6232,-0.045,-0.045
6233,-0.030,-0.045
6234,-0.010,-0.040
6235,0.000,-0.025
6236,0.010,-0.020
6237,0.035,-0.020
6238,0.075,-0.010
6239,0.100,0.000
6240,0.140,0.010
6241,0.165,0.020
6242,0.195,0.035
6243,0.215,0.045
6244,0.225,0.055
6245,0.230,0.065
6246,0.230,0.080
6247,0.215,0.085
6248,0.200,0.085
6249,0.175,0.070
6250,0.135,0.055
6251,0.105,0.045
6252,0.075,0.030
6253,0.045,0.015
6254,0.015,0.000
6255,0.000,0.000
6256,0.000,-0.010
6257,-0.015,-0.020
6258,-0.025,-0.025
6259,-0.040,-0.030
6260,-0.050,-0.040
6261,-0.065,-0.040
6262,-0.070,-0.050
6263,-0.080,-0.055
6264,-0.090,-0.055
6265,-0.095,-0.065
6266,-0.100,-0.065
6267,-0.100,-0.065
6268,-0.100,-0.065
6269,-0.110,-0.065
6270,-0.110,-0.065
6271,-0.115,-0.060
6272,-0.100,-0.050
6273,-0.095,-0.045
6274,-0.085,-0.030
6275,-0.090,-0.035
6276,-0.095,-0.040
6277,-0.095,-0.045
6278,-0.100,-0.060
6279,-0.110,-0.060
6280,-0.130,-0.060
6281,-0.145,-0.085
6282,-0.130,-0.075
6283,-0.100,-0.055
6284,-0.095,-0.040
6285,-0.105,-0.050
6286,-0.130,-0.075
6287,-0.150,-0.085
6288,-0.155,-0.085
6289,-0.155,-0.085
6290,-0.155,-0.090
6291,-0.150,-0.085
6292,-0.150,-0.085
6293,-0.145,-0.085
6294,-0.145,-0.085
6295,-0.150,-0.085
6296,-0.145,-0.070
6297,-0.060,-0.035
6298,0.235,0.060
6299,0.695,0.200
6300,0.920,0.245
6301,0.605,0.165
6302,0.065,0.125
6303,-0.105,0.190
6304,-0.110,0.195
6305,-0.140,0.125
6306,-0.145,0.095
6307,-0.135,0.065
6308,-0.130,0.040
6309,-0.125,0.010
6310,-0.120,-0.015
6311,-0.115,-0.035
6312,-0.105,-0.045
6313,-0.100,-0.045
6314,-0.095,-0.045
6315,-0.095,-0.045
6316,-0.095,-0.045
6317,-0.075,-0.030
6318,-0.070,-0.030
6319,-0.050,-0.030
6320,-0.035,-0.025
6321,-0.010,-0.020
6322,0.000,-0.020
6323,0.005,-0.010
6324,0.025,-0.005
6325,0.065,0.000
6326,0.090,0.015
6327,0.125,0.025
6328,0.155,0.030
6329,0.185,0.045
6330,0.200,0.060
6331,0.210,0.070
6332,0.215,0.085
6333,0.210,0.100
6334,0.200,0.105
6335,0.185,0.095
6336,0.160,0.085
6337,0.125,0.070
6338,0.090,0.055
6339,0.060,0.040
6340,0.025,0.020
6341,0.005,0.005
6342,0.000,0.000
6343,-0.010,-0.005
6344,-0.030,-0.015
6345,-0.045,-0.020
6346,-0.065,-0.030
6347,-0.065,-0.040
6348,-0.080,-0.045
6349,-0.080,-0.050
6350,-0.095,-0.050
6351,-0.095,-0.055
6352,-0.105,-0.065
6353,-0.105,-0.065
6354,-0.115,-0.065
6355,-0.120,-0.065
6356,-0.125,-0.075
6357,-0.125,-0.075
6358,-0.125,-0.075
6359,-0.125,-0.070
6360,-0.125,-0.065
6361,-0.110,-0.050
6362,-0.100,-0.045
6363,-0.095,-0.030
6364,-0.095,-0.035
6365,-0.095,-0.035
6366,-0.095,-0.035
6367,-0.115,-0.050
6368,-0.135,-0.070
6369,-0.125,-0.070
6370,-0.105,-0.050
6371,-0.095,-0.040
6372,-0.100,-0.055
6373,-0.135,-0.080
6374,-0.155,-0.095
6375,-0.160,-0.095
6376,-0.165,-0.095
6377,-0.165,-0.100
6378,-0.155,-0.095
6379,-0.155,-0.095
6380,-0.155,-0.095
6381,-0.155,-0.100
6382,-0.160,-0.100
6383,-0.165,-0.090
6384,-0.095,-0.055
6385,0.180,0.040
6386,0.640,0.180
6387,0.920,0.230
6388,0.650,0.150
6389,0.085,0.095
6390,-0.105,0.170
6391,-0.110,0.185
6392,-0.145,0.115
6393,-0.155,0.080
6394,-0.140,0.060
6395,-0.135,0.040
6396,-0.135,0.010
6397,-0.130,-0.020
6398,-0.120,-0.040
6399,-0.115,-0.050
6400,-0.105,-0.050
6401,-0.105,-0.050
6402,-0.095,-0.050
6403,-0.095,-0.050
6404,-0.085,-0.050
6405,-0.075,-0.045
6406,-0.060,-0.035
6407,-0.045,-0.030
6408,-0.020,-0.020
6409,0.000,-0.020
6410,0.005,-0.005
6411,0.030,0.000
6412,0.065,0.000
6413,0.090,0.005
6414,0.120,0.020
6415,0.155,0.030
6416,0.185,0.040
6417,0.200,0.055
6418,0.205,0.065
6419,0.215,0.080
6420,0.210,0.095
6421,0.200,0.095
6422,0.185,0.090
6423,0.155,0.080
6424,0.120,0.065
6425,0.090,0.050
6426,0.065,0.030
6427,0.035,0.015
6428,0.015,0.005
6429,0.000,0.000
6430,-0.005,-0.010
6431,-0.020,-0.020
6432,-0.030,-0.030
6433,-0.045,-0.030
6434,-0.055,-0.040
6435,-0.070,-0.050
6436,-0.075,-0.050
6437,-0.090,-0.050
6438,-0.095,-0.055
6439,-0.100,-0.055
6440,-0.100,-0.060
6441,-0.105,-0.060
6442,-0.115,-0.070
6443,-0.115,-0.070
6444,-0.115,-0.070
6445,-0.115,-0.070
6446,-0.120,-0.070
6447,-0.105,-0.060
6448,-0.100,-0.050
6449,-0.095,-0.030
6450,-0.095,-0.030
6451,-0.090,-0.030
6452,-0.085,-0.030
6453,-0.085,-0.030
6454,-0.110,-0.045
6455,-0.120,-0.065
6456,-0.110,-0.060
6457,-0.090,-0.040
6458,-0.090,-0.035
6459,-0.105,-0.055
6460,-0.135,-0.080
6461,-0.150,-0.095
6462,-0.155,-0.095
6463,-0.145,-0.095
6464,-0.145,-0.095
6465,-0.145,-0.090
6466,-0.140,-0.085
6467,-0.145,-0.095
6468,-0.140,-0.090
6469,-0.145,-0.085
6470,-0.145,-0.080
6471,-0.050,-0.035
6472,0.265,0.075
6473,0.735,0.215
6474,0.930,0.235
6475,0.580,0.150
6476,0.025,0.110
6477,-0.080,0.205
6478,-0.105,0.190
6479,-0.135,0.120
6480,-0.135,0.090
6481,-0.120,0.075
6482,-0.115,0.050
6483,-0.110,0.010
6484,-0.105,-0.020
6485,-0.095,-0.040
6486,-0.095,-0.040
6487,-0.095,-0.040
6488,-0.085,-0.045
6489,-0.075,-0.040
6490,-0.065,-0.030
6491,-0.060,-0.030
6492,-0.040,-0.030
6493,-0.025,-0.015
6494,-0.010,-0.015
6495,0.000,-0.010
6496,0.000,0.000
6497,0.025,0.000
6498,0.055,0.005
6499,0.085,0.015
6500,0.120,0.025
6501,0.155,0.035
6502,0.185,0.045
6503,0.205,0.055
6504,0.220,0.070
6505,0.235,0.080
6506,0.245,0.095
6507,0.235,0.105
6508,0.220,0.110
6509,0.205,0.105
6510,0.175,0.090
6511,0.135,0.075
6512,0.105,0.060
6513,0.080,0.045
6514,0.055,0.030
6515,0.025,0.015
6516,0.010,0.000
6517,0.000,0.000
6518,0.000,0.000
6519,-0.015,-0.015
6520,-0.025,-0.025
6521,-0.040,-0.030
6522,-0.045,-0.035
6523,-0.055,-0.040
6524,-0.070,-0.045
6525,-0.080,-0.050
6526,-0.080,-0.050
6527,-0.090,-0.055
6528,-0.090,-0.055
6529,-0.095,-0.055
6530,-0.095,-0.050
6531,-0.095,-0.045
6532,-0.080,-0.035
6533,-0.070,-0.025
6534,-0.050,-0.020
6535,-0.065,-0.020
6536,-0.070,-0.025
6537,-0.080,-0.045
6538,-0.090,-0.050
6539,-0.100,-0.060
6540,-0.115,-0.065
6541,-0.135,-0.085
6542,-0.115,-0.080
6543,-0.090,-0.055
6544,-0.075,-0.040
6545,-0.085,-0.045
6546,-0.105,-0.065
6547,-0.120,-0.080
6548,-0.125,-0.080
6549,-0.130,-0.080
6550,-0.130,-0.080
6551,-0.125,-0.085
6552,-0.120,-0.080
6553,-0.125,-0.075
6554,-0.120,-0.075
6555,-0.120,-0.075
6556,-0.110,-0.060
6557,0.010,0.000
6558,0.370,0.115
6559,0.820,0.250
6560,0.920,0.250
6561,0.490,0.145
6562,0.000,0.135
6563,-0.060,0.235
6564,-0.090,0.195
6565,-0.115,0.125
6566,-0.105,0.105
6567,-0.095,0.080
6568,-0.095,0.050
6569,-0.095,0.000
6570,-0.090,-0.015
6571,-0.090,-0.020
6572,-0.080,-0.025
6573,-0.080,-0.030
6574,-0.070,-0.035
6575,-0.060,-0.030
6576,-0.050,-0.030
6577,-0.040,-0.025
6578,-0.025,-0.020
6579,-0.005,-0.010
6580,0.000,-0.010
6581,0.000,0.000
6582,0.015,0.000
6583,0.045,0.010
6584,0.080,0.015
6585,0.105,0.020
6586,0.135,0.030
6587,0.170,0.040
6588,0.195,0.055
6589,0.215,0.065
6590,0.235,0.075
6591,0.245,0.095
6592,0.255,0.110
6593,0.250,0.115
6594,0.230,0.120
6595,0.205,0.110
6596,0.180,0.095
6597,0.145,0.075
6598,0.110,0.060
6599,0.080,0.045
6600,0.060,0.035
6601,0.035,0.020
6602,0.010,0.000
6603,0.000,0.000
6604,0.000,-0.005
6605,0.000,-0.010
6606,-0.020,-0.020
6607,-0.020,-0.020
6608,-0.030,-0.030
6609,-0.035,-0.035
6610,-0.050,-0.040
6611,-0.055,-0.040
6612,-0.065,-0.040
6613,-0.070,-0.040
6614,-0.075,-0.040
6615,-0.080,-0.040
6616,-0.080,-0.040
6617,-0.085,-0.045
6618,-0.085,-0.040
