'sample interval','ECG0','ECG1'
'0.0078125 sec','mV','mV'
0,-0.040,0.165
1,-0.015,0.170
2,0.000,0.175
3,0.000,0.170
4,-0.005,0.160
5,-0.005,0.160
6,0.000,0.165
7,0.000,0.170
8,0.005,0.175
9,0.010,0.170
10,0.000,0.170
11,0.000,0.170
12,0.005,0.170
13,0.010,0.175
14,0.000,0.175
15,-0.010,0.195
16,-0.010,0.225
17,0.000,0.245
18,0.015,0.255
19,0.025,0.255
20,0.030,0.255
21,0.020,0.245
22,0.005,0.230
23,-0.005,0.205
24,-0.005,0.190
25,0.000,0.180
26,0.000,0.170
27,-0.015,0.145
28,-0.035,0.115
29,-0.025,0.090
30,-0.005,0.070
31,0.000,0.060
32,-0.005,0.065
33,-0.030,0.080
34,-0.050,0.085
35,-0.055,0.085
36,-0.050,0.090
37,0.010,0.165
38,0.185,0.350
39,0.445,0.620
40,0.605,0.855
41,0.520,0.900
42,0.275,0.745
43,0.065,0.490
44,-0.015,0.300
45,-0.020,0.205
46,-0.020,0.170
47,-0.020,0.155
48,-0.020,0.140
49,-0.020,0.135
50,-0.025,0.135
51,-0.035,0.140
52,-0.040,0.140
53,-0.025,0.155
54,-0.010,0.160
55,-0.010,0.160
56,-0.010,0.160
57,0.000,0.160
58,-0.005,0.165
59,-0.015,0.160
60,-0.025,0.160
61,-0.030,0.170
62,-0.040,0.170
63,-0.040,0.170
64,-0.035,0.175
65,-0.030,0.180
66,-0.020,0.180
67,-0.020,0.180
68,-0.020,0.180
69,-0.025,0.180
70,-0.030,0.175
71,-0.030,0.165
72,-0.025,0.165
73,-0.010,0.160
74,0.000,0.150
75,-0.010,0.135
76,-0.050,0.125
77,-0.080,0.120
78,-0.090,0.110
79,-0.100,0.100
80,-0.095,0.100
81,-0.095,0.100
82,-0.100,0.100
83,-0.100,0.105
84,-0.090,0.105
85,-0.070,0.100
86,-0.040,0.100
87,-0.025,0.100
88,-0.035,0.105
89,-0.040,0.110
90,-0.040,0.110
91,-0.040,0.115
92,-0.035,0.120
93,-0.030,0.120
94,-0.015,0.120
95,-0.005,0.125
96,-0.005,0.125
97,-0.005,0.120
98,-0.010,0.115
99,-0.010,0.115
100,-0.015,0.110
101,-0.015,0.110
102,-0.015,0.110
103,-0.020,0.100
104,-0.030,0.095
105,-0.025,0.085
106,-0.025,0.080
107,-0.025,0.075
108,-0.020,0.070
109,-0.010,0.070
110,0.000,0.085
111,0.000,0.105
112,-0.010,0.125
113,-0.030,0.135
114,-0.030,0.140
115,-0.010,0.135
116,0.000,0.130
117,0.000,0.120
118,-0.015,0.100
119,-0.030,0.075
120,-0.030,0.055
121,-0.030,0.050
122,-0.035,0.040
123,-0.040,0.020
124,-0.055,0.000
125,-0.060,-0.035
126,-0.055,-0.050
127,-0.040,-0.050
128,-0.040,-0.050
129,-0.050,-0.035
130,-0.055,-0.040
131,-0.060,-0.050
132,-0.055,-0.035
133,0.035,0.055
134,0.265,0.270
135,0.515,0.550
136,0.580,0.735
137,0.420,0.715
138,0.180,0.525
139,0.015,0.285
140,-0.050,0.120
141,-0.065,0.040
142,-0.070,0.010
143,-0.065,0.000
144,-0.055,-0.005
145,-0.050,-0.015
146,-0.050,-0.020
147,-0.060,-0.015
148,-0.065,-0.015
149,-0.060,-0.020
150,-0.055,-0.015
151,-0.050,-0.010
152,-0.040,-0.010
153,-0.025,-0.005
154,-0.025,0.000
155,-0.050,0.000
156,-0.065,0.000
157,-0.055,0.000
158,-0.055,0.000
159,-0.050,0.005
160,-0.045,0.005
161,-0.040,0.005
162,-0.035,0.010
163,-0.035,0.010
164,-0.045,0.010
165,-0.040,0.010
166,-0.040,0.010
167,-0.050,0.010
168,-0.045,0.005
169,-0.040,0.000
170,-0.040,0.000
171,-0.040,0.000
172,-0.060,-0.005
173,-0.085,-0.010
174,-0.095,-0.010
175,-0.110,-0.010
176,-0.115,-0.015
177,-0.115,-0.020
178,-0.105,-0.015
179,-0.100,-0.015
180,-0.090,-0.010
181,-0.075,-0.010
182,-0.065,-0.010
183,-0.060,-0.005
184,-0.050,-0.005
185,-0.040,-0.005
186,-0.030,-0.005
187,-0.015,0.000
188,-0.005,0.000
189,0.000,0.005
190,0.000,0.005
191,-0.010,0.005
192,-0.010,0.005
193,0.000,0.010
194,0.000,0.010
195,0.000,0.010
196,0.000,0.010
197,0.000,0.005
198,0.000,0.000
199,0.000,0.000
200,0.000,0.000
201,0.000,0.000
202,0.000,0.000
203,0.000,-0.005
204,0.000,-0.010
205,0.000,-0.005
206,0.000,0.000
207,0.005,0.010
208,0.010,0.025
209,0.005,0.035
210,0.000,0.050
211,0.005,0.050
212,0.010,0.050
213,0.000,0.045
214,0.000,0.035
215,-0.015,0.010
216,-0.030,0.000
217,-0.030,-0.010
218,-0.030,-0.020
219,-0.025,-0.050
220,-0.025,-0.080
221,-0.030,-0.115
222,-0.035,-0.135
223,-0.040,-0.140
224,-0.045,-0.135
225,-0.045,-0.135
226,-0.050,-0.135
227,-0.055,-0.140
228,-0.050,-0.135
229,0.015,-0.065
230,0.195,0.110
231,0.430,0.365
232,0.565,0.580
233,0.480,0.625
234,0.255,0.495
235,0.055,0.275
236,-0.040,0.090
237,-0.055,-0.005
238,-0.035,-0.045
239,-0.025,-0.060
240,-0.045,-0.070
241,-0.065,-0.080
242,-0.065,-0.080
243,-0.055,-0.080
244,-0.050,-0.080
245,-0.040,-0.075
246,-0.035,-0.065
247,-0.035,-0.065
248,-0.040,-0.060
249,-0.040,-0.055
250,-0.040,-0.045
251,-0.035,-0.035
252,-0.020,-0.035
253,-0.020,-0.035
254,-0.030,-0.035
255,-0.040,-0.035
256,-0.040,-0.035
257,-0.040,-0.035
258,-0.030,-0.030
259,-0.025,-0.025
260,-0.025,-0.025
261,-0.020,-0.030
262,-0.010,-0.030
263,-0.010,-0.025
264,-0.015,-0.025
265,-0.020,-0.025
266,-0.050,-0.035
267,-0.075,-0.040
268,-0.085,-0.040
269,-0.085,-0.050
270,-0.090,-0.060
271,-0.095,-0.065
272,-0.100,-0.070
273,-0.095,-0.065
274,-0.090,-0.065
275,-0.090,-0.060
276,-0.090,-0.050
277,-0.075,-0.045
278,-0.060,-0.040
279,-0.045,-0.035
280,-0.035,-0.030
281,-0.030,-0.025
282,-0.010,-0.020
283,0.015,-0.015
284,0.035,-0.010
285,0.000,-0.005
286,-0.045,0.000
287,-0.050,0.000
288,-0.035,-0.005
289,-0.020,-0.005
290,-0.010,-0.005
291,-0.010,-0.005
292,-0.010,-0.005
293,-0.010,-0.010
294,-0.010,-0.015
295,-0.010,-0.015
296,-0.010,-0.015
297,-0.010,-0.015
298,-0.015,-0.015
299,-0.015,-0.015
300,-0.015,-0.020
301,-0.010,-0.020
302,-0.010,-0.020
303,-0.010,-0.005
304,0.000,0.005
305,0.000,0.020
306,0.005,0.025
307,0.005,0.035
308,0.005,0.040
309,-0.005,0.040
310,-0.010,0.030
311,0.000,0.005
312,0.000,-0.010
313,-0.015,-0.015
314,-0.030,-0.020
315,-0.040,-0.030
316,-0.050,-0.055
317,-0.060,-0.085
318,-0.055,-0.115
319,-0.035,-0.130
320,-0.035,-0.125
321,-0.055,-0.120
322,-0.075,-0.115
323,-0.070,-0.115
324,-0.065,-0.120
325,-0.040,-0.090
326,0.060,0.010
327,0.270,0.225
328,0.505,0.490
329,0.565,0.660
330,0.395,0.625
331,0.140,0.430
332,-0.025,0.205
333,-0.075,0.055
334,-0.070,-0.005
335,-0.055,-0.030
336,-0.055,-0.040
337,-0.055,-0.055
338,-0.065,-0.060
339,-0.075,-0.055
340,-0.070,-0.050
341,-0.060,-0.040
342,-0.050,-0.040
343,-0.040,-0.040
344,-0.040,-0.040
345,-0.040,-0.030
346,-0.040,-0.025
347,-0.050,-0.025
348,-0.050,-0.025
349,-0.035,-0.020
350,-0.035,-0.020
351,-0.045,-0.020
352,-0.050,-0.020
353,-0.055,-0.020
354,-0.055,-0.020
355,-0.055,-0.015
356,-0.050,-0.015
357,-0.040,-0.015
358,-0.040,-0.020
359,-0.045,-0.025
360,-0.050,-0.030
361,-0.060,-0.030
362,-0.065,-0.035
363,-0.070,-0.040
364,-0.075,-0.050
365,-0.085,-0.065
366,-0.095,-0.075
367,-0.095,-0.085
368,-0.095,-0.090
369,-0.100,-0.090
370,-0.110,-0.090
371,-0.115,-0.085
372,-0.110,-0.080
373,-0.100,-0.070
374,-0.095,-0.070
375,-0.085,-0.065
376,-0.070,-0.060
377,-0.060,-0.045
378,-0.050,-0.035
379,-0.040,-0.040
380,-0.035,-0.045
381,-0.035,-0.035
382,-0.035,-0.030
383,-0.035,-0.035
384,-0.035,-0.035
385,-0.030,-0.030
386,-0.030,-0.030
387,-0.030,-0.030
388,-0.035,-0.040
389,-0.030,-0.050
390,-0.020,-0.055
391,-0.015,-0.050
392,-0.010,-0.050
393,-0.020,-0.055
394,-0.045,-0.060
395,-0.065,-0.075
396,-0.060,-0.080
397,-0.050,-0.080
398,-0.050,-0.075
399,-0.040,-0.060
400,-0.025,-0.035
401,-0.005,-0.025
402,0.000,-0.025
403,-0.010,-0.020
404,-0.030,-0.020
405,-0.040,-0.020
406,-0.040,-0.030
407,-0.040,-0.055
408,-0.045,-0.080
409,-0.055,-0.090
410,-0.055,-0.090
411,-0.055,-0.105
412,-0.060,-0.145
413,-0.070,-0.185
414,-0.080,-0.215
415,-0.080,-0.220
416,-0.075,-0.215
417,-0.070,-0.210
418,-0.070,-0.210
419,-0.080,-0.215
420,-0.085,-0.215
421,-0.050,-0.175
422,0.075,-0.050
423,0.315,0.175
424,0.535,0.455
425,0.550,0.615
426,0.360,0.550
427,0.145,0.310
428,0.000,0.070
429,-0.085,-0.060
430,-0.115,-0.120
431,-0.100,-0.140
432,-0.090,-0.150
433,-0.090,-0.160
434,-0.095,-0.165
435,-0.090,-0.170
436,-0.090,-0.175
437,-0.090,-0.175
438,-0.085,-0.160
439,-0.080,-0.150
440,-0.080,-0.155
441,-0.075,-0.160
442,-0.065,-0.150
443,-0.065,-0.140
444,-0.070,-0.140
445,-0.075,-0.145
446,-0.070,-0.135
447,-0.055,-0.135
448,-0.040,-0.140
449,-0.035,-0.145
450,-0.040,-0.140
451,-0.060,-0.135
452,-0.080,-0.135
453,-0.085,-0.135
454,-0.080,-0.135
455,-0.075,-0.130
456,-0.065,-0.130
457,-0.050,-0.140
458,-0.055,-0.145
459,-0.085,-0.150
460,-0.105,-0.150
461,-0.110,-0.150
462,-0.135,-0.150
463,-0.140,-0.155
464,-0.135,-0.160
465,-0.130,-0.165
466,-0.125,-0.160
467,-0.120,-0.155
468,-0.115,-0.150
469,-0.115,-0.150
470,-0.115,-0.150
471,-0.105,-0.145
472,-0.095,-0.130
473,-0.085,-0.120
474,-0.080,-0.120
475,-0.060,-0.120
476,-0.030,-0.120
477,-0.005,-0.120
478,-0.010,-0.120
479,-0.030,-0.110
480,-0.065,-0.105
481,-0.075,-0.100
482,-0.060,-0.095
483,-0.040,-0.095
484,-0.030,-0.095
485,-0.030,-0.105
486,-0.035,-0.110
487,-0.035,-0.115
488,-0.030,-0.120
489,-0.030,-0.120
490,-0.035,-0.130
491,-0.035,-0.135
492,-0.020,-0.135
493,-0.010,-0.130
494,-0.005,-0.110
495,-0.005,-0.085
496,-0.015,-0.055
497,-0.030,-0.045
498,-0.040,-0.035
499,-0.040,-0.030
500,-0.045,-0.030
501,-0.060,-0.035
502,-0.060,-0.060
503,-0.050,-0.095
504,-0.050,-0.105
505,-0.060,-0.100
506,-0.065,-0.120
507,-0.060,-0.155
508,-0.050,-0.190
509,-0.035,-0.215
510,-0.040,-0.225
511,-0.070,-0.225
512,-0.070,-0.225
513,-0.050,-0.220
514,-0.060,-0.215
515,-0.095,-0.220
516,-0.080,-0.205
517,0.025,-0.100
518,0.250,0.105
519,0.490,0.375
520,0.555,0.555
521,0.395,0.530
522,0.155,0.345
523,0.000,0.120
524,-0.050,-0.020
525,-0.055,-0.095
526,-0.050,-0.135
527,-0.050,-0.155
528,-0.045,-0.170
529,-0.020,-0.165
530,-0.020,-0.155
531,-0.055,-0.145
532,-0.080,-0.145
533,-0.065,-0.145
534,-0.045,-0.140
535,-0.040,-0.135
536,-0.030,-0.125
537,-0.020,-0.120
538,-0.025,-0.110
539,-0.045,-0.110
540,-0.050,-0.120
541,-0.035,-0.115
542,-0.015,-0.110
543,-0.010,-0.110
544,-0.015,-0.110
545,-0.020,-0.100
546,-0.030,-0.100
547,-0.030,-0.100
548,-0.020,-0.100
549,-0.015,-0.105
550,-0.005,-0.105
551,0.005,-0.110
552,0.000,-0.105
553,-0.060,-0.105
554,-0.110,-0.105
555,-0.110,-0.105
556,-0.100,-0.120
557,-0.095,-0.125
558,-0.100,-0.130
559,-0.105,-0.140
560,-0.105,-0.145
561,-0.110,-0.150
562,-0.110,-0.150
563,-0.085,-0.145
564,-0.055,-0.140
565,-0.035,-0.135
566,-0.030,-0.120
567,-0.030,-0.105
568,-0.040,-0.100
569,-0.055,-0.095
570,-0.055,-0.095
571,-0.040,-0.090
572,-0.025,-0.090
573,-0.020,-0.090
574,-0.015,-0.090
575,-0.010,-0.090
576,0.000,-0.090
577,0.010,-0.090
578,0.020,-0.085
579,0.015,-0.080
580,0.000,-0.070
581,-0.030,-0.065
582,-0.035,-0.065
583,-0.025,-0.080
584,-0.025,-0.090
585,-0.030,-0.100
586,-0.035,-0.110
587,-0.035,-0.120
588,-0.030,-0.115
589,-0.030,-0.110
590,-0.035,-0.090
591,-0.025,-0.065
592,0.000,-0.040
593,0.025,-0.030
594,0.010,-0.020
595,-0.005,-0.020
596,0.005,-0.020
597,0.010,-0.025
598,-0.010,-0.035
599,-0.060,-0.060
600,-0.080,-0.085
601,-0.070,-0.095
602,-0.060,-0.105
603,-0.060,-0.130
604,-0.065,-0.160
605,-0.065,-0.190
606,-0.070,-0.200
607,-0.070,-0.200
608,-0.070,-0.195
609,-0.070,-0.180
610,-0.070,-0.170
611,-0.070,-0.170
612,-0.055,-0.155
613,0.035,-0.055
614,0.260,0.130
615,0.535,0.380
616,0.625,0.560
617,0.450,0.555
618,0.185,0.370
619,-0.010,0.135
620,-0.110,-0.020
621,-0.125,-0.090
622,-0.090,-0.110
623,-0.055,-0.120
624,-0.045,-0.130
625,-0.070,-0.135
626,-0.095,-0.135
627,-0.090,-0.130
628,-0.065,-0.125
629,-0.060,-0.115
630,-0.070,-0.105
631,-0.045,-0.090
632,-0.010,-0.090
633,0.000,-0.085
634,-0.035,-0.070
635,-0.075,-0.065
636,-0.110,-0.065
637,-0.075,-0.065
638,0.000,-0.040
639,0.000,-0.010
640,-0.045,-0.015
641,-0.075,-0.045
642,-0.100,-0.065
643,-0.100,-0.070
644,-0.065,-0.075
645,-0.020,-0.075
646,0.040,-0.080
647,0.075,-0.070
648,0.000,-0.055
649,-0.135,-0.050
650,-0.185,-0.055
651,-0.155,-0.065
652,-0.130,-0.075
653,-0.130,-0.080
654,-0.130,-0.085
655,-0.135,-0.080
656,-0.145,-0.080
657,-0.135,-0.085
658,-0.115,-0.085
659,-0.090,-0.075
660,-0.085,-0.065
661,-0.075,-0.050
662,-0.050,-0.035
663,-0.035,-0.015
664,-0.060,0.000
665,-0.090,-0.010
666,-0.075,-0.025
667,-0.050,-0.035
668,-0.040,-0.035
669,-0.055,-0.030
670,-0.065,-0.015
671,-0.045,0.000
672,-0.030,0.000
673,-0.030,0.000
674,-0.025,-0.005
675,-0.020,-0.005
676,-0.025,-0.005
677,-0.030,-0.005
678,-0.030,0.000
679,-0.025,0.000
680,-0.025,0.000
681,-0.025,-0.005
682,-0.020,-0.010
683,-0.015,-0.010
684,0.000,-0.005
685,0.060,0.000
686,0.075,0.005
687,0.025,0.020
688,-0.045,0.035
689,-0.085,0.045
690,-0.085,0.045
691,-0.055,0.050
692,-0.025,0.055
693,-0.015,0.025
694,-0.020,0.005
695,-0.035,-0.005
696,-0.040,-0.005
697,-0.040,-0.005
698,-0.035,-0.020
699,-0.030,-0.055
700,-0.020,-0.085
701,0.000,-0.110
702,-0.010,-0.130
703,-0.050,-0.135
704,-0.075,-0.120
705,-0.070,-0.110
706,-0.045,-0.115
707,-0.020,-0.105
708,0.030,-0.025
709,0.165,0.145
710,0.390,0.400
711,0.575,0.625
712,0.545,0.675
713,0.310,0.540
714,0.040,0.320
715,-0.095,0.125
716,-0.110,0.025
717,-0.080,0.000
718,-0.065,-0.020
719,-0.070,-0.045
720,-0.085,-0.055
721,-0.070,-0.045
722,-0.060,-0.040
723,-0.060,-0.035
724,-0.060,-0.030
725,-0.070,-0.020
726,-0.070,-0.010
727,-0.055,0.000
728,-0.045,0.020
729,-0.055,0.025
730,-0.045,0.000
731,-0.005,-0.020
732,0.015,-0.020
733,-0.010,-0.015
734,-0.070,-0.015
735,-0.095,-0.020
736,-0.075,-0.010
737,-0.065,0.000
738,-0.065,0.000
739,-0.055,0.005
740,-0.050,0.000
741,-0.045,0.000
742,-0.045,0.005
743,-0.045,0.000
744,-0.050,0.000
745,-0.060,0.000
746,-0.075,-0.005
747,-0.090,-0.010
748,-0.100,-0.020
749,-0.085,-0.025
750,-0.065,-0.015
751,-0.070,-0.015
752,-0.110,-0.040
753,-0.140,-0.055
754,-0.115,-0.045
755,-0.080,-0.030
756,-0.075,-0.020
757,-0.090,-0.015
758,-0.090,-0.010
759,-0.075,-0.010
760,-0.055,-0.005
761,-0.045,0.000
762,-0.040,0.005
763,-0.010,0.000
764,0.005,0.000
765,-0.030,0.005
766,-0.065,0.015
767,-0.040,0.030
768,-0.030,0.030
769,-0.035,0.015
770,-0.040,0.005
771,-0.005,0.000
772,0.005,-0.005
773,-0.025,-0.010
774,-0.065,-0.005
775,-0.075,-0.005
776,-0.055,-0.010
777,-0.035,-0.010
778,-0.015,0.000
779,-0.010,0.005
780,0.000,0.020
781,0.010,0.035
782,0.010,0.040
783,0.020,0.050
784,0.025,0.055
785,-0.005,0.060
786,-0.055,0.055
787,-0.070,0.035
788,-0.055,0.010
789,-0.035,0.000
790,-0.015,-0.010
791,0.000,-0.020
792,-0.020,-0.035
793,-0.070,-0.050
794,-0.085,-0.065
795,-0.070,-0.075
796,-0.055,-0.105
797,-0.050,-0.130
798,-0.055,-0.135
799,-0.050,-0.130
800,-0.045,-0.130
801,-0.030,-0.115
802,0.050,-0.040
803,0.280,0.135
804,0.545,0.415
805,0.635,0.655
806,0.485,0.705
807,0.240,0.560
808,0.040,0.305
809,-0.050,0.105
810,-0.060,0.010
811,-0.060,-0.010
812,-0.045,-0.030
813,-0.040,-0.040
814,-0.035,-0.045
815,-0.035,-0.035
816,-0.040,-0.025
817,-0.035,-0.025
818,-0.015,-0.035
819,-0.010,-0.040
820,-0.025,-0.025
821,-0.030,-0.005
822,-0.005,0.000
823,0.015,0.000
824,-0.020,0.000
825,-0.075,0.005
826,-0.075,0.000
827,-0.050,-0.005
828,-0.030,0.000
829,-0.015,0.000
830,-0.020,0.000
831,-0.015,0.000
832,-0.005,0.000
833,0.000,0.005
834,-0.005,0.010
835,0.000,0.020
836,0.005,0.015
837,-0.010,0.010
838,-0.015,0.005
839,-0.005,0.015
840,-0.040,0.040
841,-0.090,0.080
842,-0.105,0.085
843,-0.095,0.025
844,-0.080,-0.025
845,-0.065,-0.040
846,-0.075,-0.025
847,-0.085,-0.010
848,-0.075,-0.005
849,-0.060,0.000
850,-0.050,0.005
851,-0.045,0.005
852,-0.045,0.010
853,-0.040,0.030
854,-0.030,0.040
855,-0.020,0.050
856,-0.020,0.050
857,-0.025,0.040
858,-0.030,0.030
859,0.000,0.040
860,0.080,0.070
861,0.125,0.080
862,0.035,0.065
863,-0.065,0.050
864,-0.080,0.060
865,-0.055,0.065
866,-0.035,0.040
867,-0.030,0.015
868,-0.030,0.015
869,-0.020,0.020
870,-0.015,0.020
871,-0.015,0.020
872,-0.020,0.030
873,-0.015,0.040
874,-0.005,0.050
875,0.000,0.065
876,0.000,0.085
877,-0.005,0.095
878,0.000,0.100
879,0.010,0.105
880,0.045,0.115
881,0.070,0.120
882,0.035,0.115
883,-0.025,0.080
884,-0.045,0.040
885,-0.020,0.030
886,0.000,0.030
887,-0.015,0.020
888,-0.035,0.000
889,-0.035,-0.025
890,-0.035,-0.045
891,-0.040,-0.035
892,-0.030,-0.025
893,0.020,-0.030
894,0.120,-0.035
895,0.090,-0.040
896,-0.080,-0.050
897,-0.155,-0.020
898,-0.010,0.095
899,0.290,0.345
900,0.570,0.615
901,0.585,0.730
902,0.370,0.635
903,0.140,0.405
904,0.005,0.190
905,-0.030,0.070
906,-0.035,0.030
907,-0.030,0.015
908,-0.020,0.015
909,-0.005,0.000
910,0.005,-0.010
911,0.000,-0.020
912,0.000,-0.015
913,0.000,-0.005
914,-0.030,0.000
915,-0.075,0.000
916,-0.080,0.000
917,-0.050,0.000
918,-0.030,0.005
919,-0.010,0.010
920,0.000,0.020
921,0.000,0.025
922,0.000,0.030
923,0.000,0.030
924,0.000,0.030
925,-0.010,0.025
926,-0.005,0.015
927,0.025,0.015
928,0.110,0.035
929,0.170,0.070
930,0.080,0.085
931,-0.070,0.065
932,-0.130,0.040
933,-0.095,0.010
934,-0.055,0.000
935,-0.055,0.000
936,-0.065,0.000
937,-0.060,0.000
938,-0.050,0.000
939,-0.050,0.000
940,-0.050,0.000
941,-0.055,0.000
942,-0.055,0.015
943,-0.045,0.025
944,-0.045,0.020
945,-0.025,0.015
946,0.000,0.020
947,0.010,0.025
948,0.010,0.020
949,0.025,0.020
950,0.020,0.025
951,-0.015,0.040
952,-0.045,0.070
953,-0.035,0.085
954,-0.010,0.095
955,0.000,0.080
956,0.010,0.060
957,0.015,0.050
958,0.020,0.060
959,0.035,0.070
960,0.050,0.070
961,0.065,0.070
962,0.085,0.075
963,0.060,0.070
964,0.000,0.065
965,-0.025,0.070
966,-0.015,0.070
967,0.000,0.065
968,0.000,0.060
969,0.010,0.050
970,0.015,0.060
971,0.020,0.080
972,0.030,0.100
973,0.050,0.105
974,0.080,0.115
975,0.110,0.115
976,0.135,0.120
977,0.100,0.145
978,-0.015,0.145
979,-0.085,0.095
980,-0.065,0.045
981,-0.035,0.035
982,-0.020,0.025
983,0.000,-0.015
984,0.000,-0.050
985,-0.005,-0.055
986,-0.015,-0.035
987,-0.015,-0.035
988,0.000,-0.030
989,0.020,-0.025
990,0.040,-0.030
991,0.015,-0.035
992,0.030,0.025
993,0.200,0.205
994,0.470,0.470
995,0.635,0.680
996,0.560,0.750
997,0.320,0.655
998,0.095,0.420
999,-0.015,0.180
1000,-0.030,0.050
1001,-0.015,0.010
1002,-0.010,0.010
1003,-0.015,0.010
1004,-0.020,0.010
1005,-0.010,0.010
1006,0.000,0.005
1007,0.000,0.005
1008,-0.010,0.015
1009,-0.005,0.030
1010,0.020,0.050
1011,0.045,0.075
1012,0.030,0.070
1013,-0.005,0.040
1014,-0.020,0.020
1015,0.000,0.030
1016,0.000,0.045
1017,-0.015,0.050
1018,-0.030,0.045
1019,-0.025,0.040
1020,-0.010,0.040
1021,-0.005,0.055
1022,-0.010,0.065
1023,-0.005,0.095
1024,0.005,0.120
1025,0.065,0.085
1026,0.070,0.025
1027,0.000,0.015
1028,-0.040,0.045
1029,-0.020,0.090
1030,-0.035,0.090
1031,-0.055,0.030
1032,-0.040,0.000
1033,-0.035,-0.010
1034,-0.050,-0.005
1035,-0.070,0.000
1036,-0.060,0.010
1037,-0.055,0.015
1038,-0.065,0.020
1039,-0.070,0.020
1040,-0.050,0.020
1041,-0.020,0.025
1042,0.020,0.030
1043,0.060,0.040
1044,0.050,0.055
1045,0.030,0.050
1046,0.050,0.040
1047,0.075,0.040
1048,0.045,0.065
1049,-0.015,0.105
1050,-0.060,0.110
1051,-0.060,0.075
1052,-0.030,0.040
1053,-0.010,0.030
1054,0.000,0.040
1055,0.010,0.035
1056,0.005,0.035
1057,0.005,0.035
1058,0.010,0.035
1059,0.025,0.040
1060,0.025,0.055
1061,0.050,0.055
1062,0.085,0.060
1063,0.025,0.120
1064,-0.080,0.155
1065,-0.095,0.100
1066,-0.040,0.035
1067,-0.020,0.030
1068,-0.020,0.050
1069,0.000,0.090
1070,0.035,0.095
1071,0.025,0.065
1072,-0.015,0.035
1073,-0.045,0.030
1074,-0.045,0.030
1075,-0.045,0.035
1076,-0.045,0.005
1077,-0.045,-0.020
1078,-0.045,-0.035
1079,-0.045,-0.050
1080,-0.030,-0.075
1081,-0.030,-0.075
1082,-0.050,-0.065
1083,-0.065,-0.080
1084,-0.070,-0.095
1085,0.000,-0.055
1086,0.155,0.050
1087,0.345,0.215
1088,0.485,0.425
1089,0.540,0.610
1090,0.440,0.665
1091,0.235,0.525
1092,0.050,0.285
1093,-0.025,0.095
1094,-0.040,0.015
1095,-0.035,-0.010
1096,-0.040,-0.035
1097,-0.050,-0.050
1098,-0.045,-0.050
1099,-0.020,-0.045
1100,0.030,-0.030
1101,0.105,-0.030
1102,0.040,-0.030
1103,-0.120,-0.010
1104,-0.170,0.005
1105,-0.090,0.015
1106,-0.025,0.000
1107,-0.015,-0.005
1108,0.010,0.000
1109,0.070,-0.030
1110,0.030,-0.070
1111,-0.065,-0.075
1112,-0.080,-0.055
1113,-0.050,-0.035
1114,-0.005,-0.020
1115,0.005,-0.020
1116,-0.015,-0.020
1117,-0.040,-0.015
1118,-0.040,-0.005
1119,-0.025,0.000
1120,-0.025,0.005
1121,-0.025,0.015
1122,-0.010,0.005
1123,0.000,-0.015
1124,0.025,-0.040
1125,0.045,-0.060
1126,0.000,-0.055
1127,-0.050,-0.050
1128,-0.080,-0.055
1129,-0.130,-0.060
1130,-0.175,-0.045
1131,-0.155,-0.025
1132,-0.100,-0.005
1133,-0.070,0.000
1134,-0.065,0.000
1135,-0.050,-0.010
1136,-0.030,-0.005
1137,-0.010,0.000
1138,0.005,-0.010
1139,0.055,-0.035
1140,0.115,-0.040
1141,0.095,-0.015
1142,-0.025,0.010
1143,-0.100,0.040
1144,-0.055,0.040
1145,0.025,0.020
1146,0.080,0.015
1147,0.055,0.020
1148,0.015,0.015
1149,0.020,0.015
1150,0.050,0.045
1151,0.045,0.060
1152,0.025,0.040
1153,0.000,0.015
1154,-0.015,0.010
1155,-0.025,0.035
1156,-0.025,0.050
1157,0.005,0.045
1158,0.050,0.050
1159,0.070,0.075
1160,0.060,0.085
1161,0.060,0.105
1162,0.030,0.115
1163,0.005,0.120
1164,0.035,0.145
1165,0.060,0.130
1166,0.010,0.060
1167,-0.015,0.000
1168,0.000,-0.010
1169,0.020,0.000
1170,0.005,0.000
1171,-0.005,-0.015
1172,0.005,-0.050
1173,0.020,-0.070
1174,0.010,-0.075
1175,-0.035,-0.055
1176,-0.065,-0.040
1177,-0.035,-0.040
1178,0.015,-0.060
1179,0.045,-0.045
1180,0.100,0.050
1181,0.250,0.255
1182,0.495,0.535
1183,0.655,0.740
1184,0.560,0.740
1185,0.305,0.560
1186,0.090,0.325
1187,-0.015,0.155
1188,-0.035,0.080
1189,-0.010,0.045
1190,-0.015,0.010
1191,-0.050,0.000
1192,-0.025,0.000
1193,0.065,0.000
1194,0.125,0.025
1195,0.060,0.050
1196,-0.045,0.055
1197,-0.095,0.040
1198,-0.075,0.040
1199,-0.030,0.050
1200,0.000,0.065
1201,0.010,0.070
1202,0.005,0.065
1203,0.045,0.080
1204,0.080,0.095
1205,0.040,0.100
1206,-0.015,0.100
1207,-0.025,0.105
1208,0.000,0.115
1209,0.040,0.120
1210,0.045,0.125
1211,0.020,0.130
1212,0.005,0.145
1213,0.000,0.160
1214,-0.005,0.165
1215,0.000,0.165
1216,0.035,0.175
1217,0.035,0.195
1218,-0.005,0.195
1219,-0.040,0.175
1220,-0.030,0.160
1221,-0.015,0.150
1222,-0.020,0.135
1223,-0.020,0.135
1224,-0.005,0.155
1225,-0.010,0.195
1226,-0.035,0.215
1227,-0.015,0.210
1228,0.040,0.205
1229,0.035,0.220
1230,-0.010,0.240
1231,-0.020,0.250
1232,0.010,0.265
1233,0.060,0.285
1234,0.090,0.305
1235,0.080,0.305
1236,0.080,0.310
1237,0.085,0.340
1238,0.060,0.350
1239,0.040,0.350
1240,0.090,0.350
1241,0.140,0.370
1242,0.105,0.380
1243,0.065,0.380
1244,0.070,0.365
1245,0.075,0.365
1246,0.040,0.370
1247,0.035,0.370
1248,0.070,0.370
1249,0.110,0.370
1250,0.115,0.390
1251,0.095,0.425
1252,0.075,0.450
1253,0.065,0.465
1254,0.060,0.490
1255,0.070,0.510
1256,0.105,0.515
1257,0.130,0.500
1258,0.135,0.475
1259,0.140,0.445
1260,0.140,0.430
1261,0.110,0.445
1262,0.065,0.455
1263,0.030,0.430
1264,0.030,0.390
1265,0.085,0.360
1266,0.130,0.355
1267,0.065,0.370
1268,0.000,0.370
1269,0.025,0.375
1270,0.045,0.385
1271,0.035,0.380
1272,0.090,0.380
1273,0.180,0.415
1274,0.245,0.520
1275,0.375,0.735
1276,0.600,0.980
1277,0.700,1.020
1278,0.555,1.015
1279,0.315,0.965
1280,0.135,0.745
1281,0.075,0.600
1282,0.120,0.550
1283,0.150,0.550
1284,0.085,0.570
1285,0.020,0.550
1286,0.015,0.500
1287,0.025,0.470
1288,0.050,0.495
1289,0.090,0.535
1290,0.120,0.540
1291,0.115,0.525
1292,0.110,0.525
1293,0.095,0.550
1294,0.065,0.580
1295,0.045,0.590
1296,0.030,0.600
1297,0.035,0.635
1298,0.065,0.680
1299,0.120,0.710
1300,0.170,0.730
1301,0.170,0.695
1302,0.120,0.620
1303,0.070,0.570
1304,0.050,0.570
1305,0.065,0.595
1306,0.090,0.625
1307,0.110,0.660
1308,0.110,0.700
1309,0.095,0.710
1310,0.075,0.690
1311,0.050,0.685
1312,0.055,0.700
1313,0.075,0.700
1314,0.090,0.690
1315,0.110,0.710
1316,0.120,0.785
1317,0.085,0.845
1318,0.020,0.775
1319,-0.015,0.650
1320,0.005,0.645
1321,0.060,0.750
1322,0.105,0.780
1323,0.115,0.710
1324,0.120,0.665
1325,0.135,0.690
1326,0.165,0.715
1327,0.190,0.715
1328,0.175,0.720
1329,0.120,0.780
1330,0.115,0.815
1331,0.145,0.820
1332,0.145,0.835
1333,0.145,0.845
1334,0.200,0.845
1335,0.230,0.895
1336,0.165,0.945
1337,0.110,0.890
1338,0.110,0.790
1339,0.125,0.760
1340,0.140,0.785
1341,0.160,0.810
1342,0.190,0.830
1343,0.190,0.855
1344,0.180,0.870
1345,0.170,0.870
1346,0.175,0.880
1347,0.185,0.915
1348,0.200,0.940
1349,0.210,0.950
1350,0.205,0.950
1351,0.190,0.950
1352,0.195,0.935
1353,0.240,0.900
1354,0.260,0.860
1355,0.190,0.835
1356,0.130,0.845
1357,0.140,0.875
1358,0.155,0.905
1359,0.155,0.925
1360,0.160,0.885
1361,0.180,0.780
1362,0.205,0.700
1363,0.210,0.680
1364,0.225,0.690
1365,0.240,0.720
1366,0.290,0.775
1367,0.455,0.925
1368,0.670,1.010
1369,0.845,1.020
1370,0.860,1.020
1371,0.650,1.020
1372,0.390,1.020
1373,0.250,1.000
1374,0.230,0.945
1375,0.240,0.955
1376,0.245,0.950
1377,0.245,0.875
1378,0.250,0.835
1379,0.255,0.830
1380,0.275,0.820
1381,0.295,0.800
1382,0.285,0.800
1383,0.265,0.830
1384,0.265,0.850
1385,0.255,0.855
1386,0.230,0.865
1387,0.225,0.895
1388,0.245,0.950
1389,0.250,0.995
1390,0.235,0.990
1391,0.225,0.915
1392,0.225,0.830
1393,0.240,0.805
1394,0.255,0.820
1395,0.265,0.840
1396,0.265,0.850
1397,0.265,0.855
1398,0.260,0.855
1399,0.250,0.855
1400,0.250,0.870
1401,0.260,0.875
1402,0.285,0.875
1403,0.300,0.870
1404,0.265,0.855
1405,0.210,0.850
1406,0.185,0.855
1407,0.185,0.855
1408,0.205,0.855
1409,0.205,0.835
1410,0.190,0.800
1411,0.175,0.780
1412,0.175,0.790
1413,0.185,0.815
1414,0.210,0.825
1415,0.225,0.855
1416,0.230,0.880
1417,0.245,0.845
1418,0.255,0.800
1419,0.255,0.805
1420,0.255,0.815
1421,0.265,0.800
1422,0.270,0.795
1423,0.265,0.790
1424,0.260,0.795
1425,0.280,0.805
1426,0.290,0.810
1427,0.280,0.810
1428,0.280,0.805
1429,0.270,0.800
1430,0.270,0.795
1431,0.280,0.795
1432,0.315,0.795
1433,0.345,0.800
1434,0.360,0.790
1435,0.345,0.775
1436,0.275,0.785
1437,0.215,0.810
1438,0.220,0.825
1439,0.245,0.805
1440,0.260,0.795
1441,0.260,0.820
1442,0.270,0.850
1443,0.270,0.840
1444,0.265,0.810
1445,0.270,0.800
1446,0.265,0.785
1447,0.260,0.705
1448,0.250,0.635
1449,0.235,0.630
1450,0.230,0.620
1451,0.230,0.590
1452,0.265,0.555
1453,0.315,0.540
1454,0.300,0.540
1455,0.220,0.560
1456,0.180,0.560
1457,0.175,0.545
1458,0.155,0.535
1459,0.175,0.595
1460,0.315,0.790
1461,0.570,0.975
1462,0.810,1.020
1463,0.850,1.020
1464,0.675,1.020
1465,0.430,0.940
1466,0.260,0.770
1467,0.200,0.640
1468,0.195,0.580
1469,0.200,0.560
1470,0.205,0.550
1471,0.215,0.540
1472,0.225,0.540
1473,0.235,0.540
1474,0.220,0.525
1475,0.185,0.530
1476,0.165,0.575
1477,0.160,0.620
1478,0.170,0.600
1479,0.170,0.530
1480,0.180,0.470
1481,0.195,0.455
1482,0.215,0.475
1483,0.220,0.510
1484,0.180,0.530
1485,0.140,0.530
1486,0.130,0.520
1487,0.150,0.495
1488,0.180,0.465
1489,0.180,0.450
1490,0.170,0.450
1491,0.160,0.465
1492,0.165,0.465
1493,0.160,0.450
1494,0.160,0.445
1495,0.140,0.440
1496,0.140,0.435
1497,0.140,0.425
1498,0.135,0.405
1499,0.120,0.390
1500,0.105,0.380
1501,0.095,0.375
1502,0.085,0.375
1503,0.075,0.375
1504,0.075,0.380
1505,0.075,0.390
1506,0.090,0.415
1507,0.110,0.425
1508,0.125,0.405
1509,0.135,0.405
1510,0.125,0.430
1511,0.120,0.440
1512,0.135,0.410
1513,0.155,0.365
1514,0.165,0.345
1515,0.165,0.355
1516,0.155,0.370
1517,0.155,0.365
1518,0.165,0.365
1519,0.160,0.360
1520,0.155,0.360
1521,0.150,0.370
1522,0.150,0.390
1523,0.155,0.395
1524,0.155,0.370
1525,0.155,0.355
1526,0.155,0.340
1527,0.150,0.320
1528,0.150,0.320
1529,0.165,0.340
1530,0.195,0.350
1531,0.195,0.350
1532,0.170,0.375
1533,0.165,0.410
1534,0.180,0.430
1535,0.185,0.415
1536,0.165,0.385
1537,0.135,0.370
1538,0.125,0.370
1539,0.130,0.325
1540,0.135,0.225
1541,0.140,0.155
1542,0.130,0.140
1543,0.125,0.140
1544,0.135,0.125
1545,0.165,0.105
1546,0.165,0.100
1547,0.115,0.100
1548,0.070,0.105
1549,0.060,0.095
1550,0.065,0.090
1551,0.080,0.095
1552,0.145,0.165
1553,0.305,0.335
1554,0.555,0.590
1555,0.735,0.845
1556,0.700,0.955
1557,0.485,0.835
1558,0.260,0.545
1559,0.130,0.280
1560,0.100,0.160
1561,0.100,0.145
1562,0.110,0.125
1563,0.105,0.100
1564,0.095,0.105
1565,0.085,0.125
1566,0.065,0.115
1567,0.055,0.090
1568,0.055,0.080
1569,0.070,0.080
1570,0.070,0.075
1571,0.070,0.070
1572,0.070,0.070
1573,0.065,0.075
1574,0.065,0.075
1575,0.065,0.075
1576,0.065,0.105
1577,0.065,0.150
1578,0.065,0.130
1579,0.065,0.065
1580,0.065,0.045
1581,0.065,0.070
1582,0.065,0.095
1583,0.075,0.115
1584,0.070,0.115
1585,0.050,0.070
1586,0.045,0.010
1587,0.045,-0.025
1588,0.055,-0.025
1589,0.080,-0.005
1590,0.095,0.000
1591,0.075,-0.005
1592,0.035,-0.010
1593,0.005,-0.015
1594,-0.005,-0.020
1595,-0.020,-0.045
1596,-0.035,-0.045
1597,-0.030,-0.025
1598,-0.015,-0.010
1599,0.000,-0.010
1600,0.015,-0.020
1601,0.020,-0.040
1602,0.025,-0.055
1603,0.035,-0.065
1604,0.040,-0.055
1605,0.045,-0.030
1606,0.065,-0.010
1607,0.100,-0.010
1608,0.100,-0.040
1609,0.075,-0.060
1610,0.060,-0.050
1611,0.065,-0.020
1612,0.060,0.000
1613,0.055,0.020
1614,0.060,0.015
1615,0.070,-0.020
1616,0.075,-0.100
1617,0.080,-0.145
1618,0.080,-0.145
1619,0.090,-0.130
1620,0.090,-0.110
1621,0.075,-0.080
1622,0.060,-0.040
1623,0.060,-0.020
1624,0.090,-0.025
1625,0.100,-0.030
1626,0.085,-0.050
1627,0.060,-0.070
1628,0.055,-0.070
1629,0.055,-0.045
1630,0.055,-0.035
1631,0.060,-0.075
1632,0.050,-0.165
1633,0.045,-0.225
1634,0.030,-0.245
1635,0.025,-0.260
1636,0.020,-0.280
1637,0.015,-0.290
1638,0.010,-0.280
1639,0.010,-0.275
1640,0.015,-0.270
1641,0.015,-0.270
1642,0.020,-0.270
1643,0.060,-0.240
1644,0.200,-0.120
1645,0.440,0.100
1646,0.655,0.345
1647,0.690,0.465
1648,0.515,0.410
1649,0.270,0.220
1650,0.095,0.000
1651,0.030,-0.150
1652,0.025,-0.215
1653,0.025,-0.250
1654,0.030,-0.265
1655,0.030,-0.270
1656,0.030,-0.275
1657,0.025,-0.280
1658,0.025,-0.275
1659,0.030,-0.275
1660,0.035,-0.275
1661,0.035,-0.280
1662,0.035,-0.275
1663,0.045,-0.255
1664,0.060,-0.240
1665,0.060,-0.220
1666,0.055,-0.195
1667,0.040,-0.215
1668,0.035,-0.265
1669,0.040,-0.285
1670,0.045,-0.280
1671,0.050,-0.260
1672,0.060,-0.250
1673,0.080,-0.250
1674,0.085,-0.250
1675,0.075,-0.255
1676,0.065,-0.245
1677,0.060,-0.245
1678,0.060,-0.250
1679,0.050,-0.255
1680,0.040,-0.260
1681,0.025,-0.265
1682,0.015,-0.260
1683,0.010,-0.260
1684,0.010,-0.265
1685,0.010,-0.280
1686,0.010,-0.290
1687,0.010,-0.295
1688,0.005,-0.295
1689,0.000,-0.305
1690,0.000,-0.300
1691,0.000,-0.295
1692,0.010,-0.285
1693,0.020,-0.275
1694,0.030,-0.275
1695,0.035,-0.270
1696,0.045,-0.265
1697,0.045,-0.260
1698,0.045,-0.260
1699,0.045,-0.265
1700,0.055,-0.260
1701,0.060,-0.250
1702,0.065,-0.250
1703,0.070,-0.250
1704,0.075,-0.245
1705,0.080,-0.240
1706,0.085,-0.240
1707,0.085,-0.250
1708,0.085,-0.260
1709,0.095,-0.260
1710,0.100,-0.260
1711,0.095,-0.270
1712,0.085,-0.280
1713,0.075,-0.285
1714,0.070,-0.270
1715,0.070,-0.250
1716,0.080,-0.235
1717,0.080,-0.230
1718,0.070,-0.230
1719,0.065,-0.225
1720,0.065,-0.225
1721,0.065,-0.240
1722,0.055,-0.265
1723,0.045,-0.285
1724,0.035,-0.300
1725,0.030,-0.320
1726,0.030,-0.345
1727,0.020,-0.365
1728,0.015,-0.395
1729,0.010,-0.415
1730,0.000,-0.425
1731,-0.010,-0.435
1732,-0.020,-0.425
1733,-0.015,-0.420
1734,-0.015,-0.425
1735,-0.005,-0.420
1736,0.040,-0.360
1737,0.190,-0.195
1738,0.440,0.055
1739,0.620,0.295
1740,0.580,0.380
1741,0.355,0.260
1742,0.140,0.025
1743,0.035,-0.170
1744,0.010,-0.290
1745,0.010,-0.345
1746,0.005,-0.370
1747,0.005,-0.380
1748,0.005,-0.390
1749,0.005,-0.390
1750,0.005,-0.390
1751,0.005,-0.385
1752,0.010,-0.375
1753,0.015,-0.360
1754,0.020,-0.360
1755,0.015,-0.360
1756,0.015,-0.355
1757,0.025,-0.345
1758,0.030,-0.340
1759,0.035,-0.340
1760,0.030,-0.345
1761,0.020,-0.360
1762,0.015,-0.365
1763,0.010,-0.365
1764,0.005,-0.360
1765,0.005,-0.350
1766,0.005,-0.345
1767,0.010,-0.345
1768,0.010,-0.350
1769,0.005,-0.350
1770,0.000,-0.350
1771,0.000,-0.350
1772,0.000,-0.355
1773,0.000,-0.360
1774,-0.010,-0.360
1775,-0.020,-0.355
1776,-0.030,-0.360
1777,-0.025,-0.390
1778,-0.025,-0.410
1779,-0.035,-0.415
1780,-0.040,-0.410
1781,-0.040,-0.395
1782,-0.030,-0.385
1783,-0.020,-0.385
1784,-0.010,-0.385
1785,-0.010,-0.380
1786,-0.005,-0.365
1787,0.000,-0.355
1788,0.000,-0.350
1789,0.010,-0.340
1790,0.015,-0.330
1791,0.020,-0.330
1792,0.020,-0.330
1793,0.020,-0.330
1794,0.025,-0.335
1795,0.030,-0.340
1796,0.035,-0.340
1797,0.030,-0.330
1798,0.025,-0.330
1799,0.025,-0.330
1800,0.020,-0.330
1801,0.010,-0.335
1802,0.015,-0.340
1803,0.020,-0.345
1804,0.025,-0.340
1805,0.020,-0.325
1806,0.015,-0.310
1807,0.020,-0.290
1808,0.035,-0.275
1809,0.040,-0.270
1810,0.045,-0.270
1811,0.040,-0.265
1812,0.030,-0.265
1813,0.025,-0.285
1814,0.020,-0.315
1815,0.020,-0.335
1816,0.015,-0.340
1817,0.010,-0.345
1818,0.005,-0.370
1819,0.000,-0.400
1820,0.000,-0.435
1821,0.000,-0.455
1822,0.000,-0.470
1823,0.000,-0.470
1824,0.000,-0.465
1825,-0.005,-0.455
1826,-0.015,-0.450
1827,-0.020,-0.445
1828,-0.005,-0.425
1829,0.095,-0.320
1830,0.315,-0.105
1831,0.555,0.160
1832,0.620,0.335
1833,0.450,0.300
1834,0.205,0.100
1835,0.050,-0.125
1836,0.000,-0.270
1837,0.000,-0.335
1838,-0.005,-0.385
1839,-0.015,-0.410
1840,-0.025,-0.410
1841,-0.030,-0.400
1842,-0.035,-0.375
1843,-0.025,-0.365
1844,-0.015,-0.370
1845,-0.010,-0.380
1846,-0.010,-0.385
1847,-0.010,-0.375
1848,-0.005,-0.365
1849,0.000,-0.360
1850,0.000,-0.350
1851,0.000,-0.340
1852,0.000,-0.325
1853,0.000,-0.325
1854,0.000,-0.325
1855,-0.005,-0.335
1856,-0.010,-0.340
1857,-0.015,-0.345
1858,-0.015,-0.350
1859,-0.010,-0.345
1860,0.000,-0.330
1861,0.000,-0.325
1862,0.000,-0.330
1863,0.000,-0.335
1864,-0.005,-0.340
1865,-0.015,-0.350
1866,-0.025,-0.350
1867,-0.030,-0.345
1868,-0.030,-0.345
1869,-0.030,-0.345
1870,-0.040,-0.355
1871,-0.050,-0.370
1872,-0.060,-0.370
1873,-0.070,-0.360
1874,-0.070,-0.360
1875,-0.065,-0.355
1876,-0.050,-0.345
1877,-0.035,-0.340
1878,-0.035,-0.335
1879,-0.035,-0.325
1880,-0.035,-0.315
1881,-0.030,-0.310
1882,-0.020,-0.310
1883,-0.005,-0.315
1884,0.000,-0.305
1885,0.000,-0.300
1886,0.000,-0.300
1887,0.000,-0.295
1888,0.000,-0.295
1889,0.000,-0.295
1890,0.000,-0.300
1891,0.000,-0.300
1892,-0.005,-0.300
1893,-0.005,-0.305
1894,-0.005,-0.305
1895,-0.005,-0.305
1896,-0.005,-0.310
1897,-0.005,-0.300
1898,-0.005,-0.280
1899,-0.005,-0.265
1900,-0.005,-0.255
1901,0.000,-0.240
1902,0.000,-0.230
1903,-0.005,-0.225
1904,-0.005,-0.225
1905,-0.005,-0.245
1906,-0.010,-0.285
1907,-0.025,-0.310
1908,-0.040,-0.315
1909,-0.040,-0.315
1910,-0.045,-0.340
1911,-0.045,-0.380
1912,-0.050,-0.415
1913,-0.060,-0.430
1914,-0.065,-0.430
1915,-0.075,-0.430
1916,-0.075,-0.425
1917,-0.075,-0.420
1918,-0.080,-0.425
1919,-0.090,-0.440
1920,-0.065,-0.410
1921,0.065,-0.265
1922,0.305,-0.020
1923,0.530,0.230
1924,0.545,0.375
1925,0.350,0.325
1926,0.115,0.120
1927,-0.025,-0.105
1928,-0.080,-0.260
1929,-0.085,-0.325
1930,-0.085,-0.345
1931,-0.090,-0.360
1932,-0.095,-0.380
1933,-0.095,-0.385
1934,-0.090,-0.385
1935,-0.085,-0.375
1936,-0.085,-0.375
1937,-0.090,-0.370
1938,-0.090,-0.365
1939,-0.085,-0.360
1940,-0.085,-0.355
1941,-0.075,-0.350
1942,-0.075,-0.345
1943,-0.075,-0.345
1944,-0.075,-0.360
1945,-0.080,-0.365
1946,-0.075,-0.355
1947,-0.070,-0.350
1948,-0.070,-0.350
1949,-0.070,-0.355
1950,-0.075,-0.350
1951,-0.075,-0.340
1952,-0.075,-0.340
1953,-0.075,-0.340
1954,-0.080,-0.345
1955,-0.080,-0.350
1956,-0.090,-0.350
1957,-0.100,-0.350
1958,-0.110,-0.355
1959,-0.115,-0.355
1960,-0.125,-0.350
1961,-0.130,-0.335
1962,-0.130,-0.335
1963,-0.135,-0.360
1964,-0.140,-0.370
1965,-0.145,-0.365
1966,-0.140,-0.355
1967,-0.120,-0.350
1968,-0.115,-0.350
1969,-0.115,-0.340
1970,-0.105,-0.325
1971,-0.090,-0.325
1972,-0.085,-0.325
1973,-0.085,-0.315
1974,-0.080,-0.305
1975,-0.070,-0.295
1976,-0.060,-0.285
1977,-0.050,-0.280
1978,-0.045,-0.285
1979,-0.040,-0.285
1980,-0.040,-0.280
1981,-0.045,-0.270
1982,-0.035,-0.260
1983,-0.030,-0.260
1984,-0.030,-0.270
1985,-0.030,-0.270
1986,-0.040,-0.265
1987,-0.040,-0.265
1988,-0.040,-0.275
1989,-0.040,-0.265
1990,-0.040,-0.245
1991,-0.035,-0.220
1992,-0.035,-0.200
1993,-0.030,-0.190
1994,-0.025,-0.185
1995,-0.025,-0.175
1996,-0.025,-0.175
1997,-0.035,-0.195
1998,-0.040,-0.225
1999,-0.045,-0.250
2000,-0.050,-0.255
2001,-0.055,-0.260
2002,-0.055,-0.285
2003,-0.055,-0.315
2004,-0.065,-0.345
2005,-0.075,-0.360
2006,-0.075,-0.360
2007,-0.080,-0.360
2008,-0.075,-0.350
2009,-0.070,-0.345
2010,-0.070,-0.350
2011,-0.075,-0.355
2012,-0.045,-0.300
2013,0.075,-0.165
2014,0.315,0.075
2015,0.520,0.335
2016,0.525,0.460
2017,0.325,0.390
2018,0.105,0.175
2019,-0.025,-0.030
2020,-0.065,-0.165
2021,-0.065,-0.225
2022,-0.065,-0.245
2023,-0.070,-0.255
2024,-0.070,-0.265
2025,-0.060,-0.275
2026,-0.060,-0.280
2027,-0.060,-0.275
2028,-0.070,-0.270
2029,-0.065,-0.265
2030,-0.060,-0.260
2031,-0.055,-0.250
2032,-0.055,-0.235
2033,-0.060,-0.220
2034,-0.055,-0.210
2035,-0.045,-0.210
2036,-0.045,-0.210
2037,-0.040,-0.220
2038,-0.040,-0.215
2039,-0.040,-0.215
2040,-0.050,-0.215
2041,-0.050,-0.215
2042,-0.050,-0.210
2043,-0.045,-0.205
2044,-0.045,-0.200
2045,-0.045,-0.200
2046,-0.050,-0.205
2047,-0.060,-0.210
2048,-0.060,-0.220
2049,-0.060,-0.220
2050,-0.065,-0.220
2051,-0.075,-0.220
2052,-0.085,-0.220
2053,-0.100,-0.225
2054,-0.105,-0.230
2055,-0.110,-0.235
2056,-0.110,-0.250
2057,-0.115,-0.245
2058,-0.105,-0.240
2059,-0.095,-0.235
2060,-0.080,-0.220
2061,-0.070,-0.205
2062,-0.060,-0.205
2063,-0.055,-0.205
2064,-0.045,-0.205
2065,-0.040,-0.210
2066,-0.040,-0.200
2067,-0.030,-0.195
2068,-0.020,-0.185
2069,-0.015,-0.175
2070,-0.015,-0.165
2071,-0.025,-0.160
2072,-0.025,-0.160
2073,-0.010,-0.175
2074,0.000,-0.185
2075,0.000,-0.185
2076,-0.005,-0.190
2077,-0.010,-0.190
2078,-0.015,-0.190
2079,-0.025,-0.195
2080,-0.020,-0.195
2081,-0.015,-0.190
2082,-0.015,-0.185
2083,-0.020,-0.170
2084,-0.020,-0.150
2085,-0.010,-0.130
2086,0.000,-0.120
2087,0.000,-0.120
2088,0.000,-0.125
2089,0.000,-0.130
2090,-0.010,-0.140
2091,-0.015,-0.160
2092,-0.020,-0.195
2093,-0.025,-0.205
2094,-0.025,-0.210
2095,-0.030,-0.220
2096,-0.035,-0.250
2097,-0.040,-0.285
2098,-0.045,-0.315
2099,-0.050,-0.320
2100,-0.050,-0.305
2101,-0.050,-0.300
2102,-0.045,-0.300
2103,-0.050,-0.315
2104,-0.065,-0.335
2105,-0.035,-0.300
2106,0.080,-0.160
2107,0.295,0.075
2108,0.495,0.335
2109,0.520,0.475
2110,0.360,0.415
2111,0.145,0.205
2112,0.005,-0.020
2113,-0.045,-0.155
2114,-0.050,-0.210
2115,-0.045,-0.240
2116,-0.050,-0.260
2117,-0.060,-0.270
2118,-0.055,-0.270
2119,-0.055,-0.270
2120,-0.055,-0.270
2121,-0.055,-0.265
2122,-0.045,-0.250
2123,-0.040,-0.245
2124,-0.045,-0.245
2125,-0.050,-0.240
2126,-0.045,-0.235
2127,-0.040,-0.230
2128,-0.040,-0.225
2129,-0.040,-0.225
2130,-0.040,-0.220
2131,-0.040,-0.215
2132,-0.045,-0.215
2133,-0.040,-0.220
2134,-0.040,-0.220
2135,-0.040,-0.220
2136,-0.040,-0.220
2137,-0.040,-0.220
2138,-0.040,-0.220
2139,-0.040,-0.220
2140,-0.045,-0.220
2141,-0.050,-0.225
2142,-0.055,-0.220
2143,-0.060,-0.220
2144,-0.070,-0.235
2145,-0.085,-0.245
2146,-0.090,-0.250
2147,-0.095,-0.255
2148,-0.100,-0.265
2149,-0.100,-0.270
2150,-0.105,-0.270
2151,-0.100,-0.265
2152,-0.090,-0.260
2153,-0.080,-0.250
2154,-0.065,-0.240
2155,-0.060,-0.240
2156,-0.050,-0.235
2157,-0.040,-0.230
2158,-0.035,-0.225
2159,-0.025,-0.225
2160,-0.020,-0.225
2161,-0.020,-0.220
2162,-0.030,-0.215
2163,-0.025,-0.210
2164,-0.010,-0.210
2165,-0.005,-0.220
2166,-0.010,-0.215
2167,-0.010,-0.210
2168,-0.015,-0.210
2169,-0.010,-0.220
2170,-0.010,-0.230
2171,-0.005,-0.235
2172,-0.005,-0.240
2173,-0.015,-0.245
2174,-0.020,-0.240
2175,-0.015,-0.230
2176,-0.015,-0.215
2177,-0.010,-0.190
2178,-0.005,-0.170
2179,0.000,-0.165
2180,0.000,-0.170
2181,0.000,-0.175
2182,0.000,-0.180
2183,-0.015,-0.205
2184,-0.020,-0.230
2185,-0.025,-0.235
2186,-0.030,-0.240
2187,-0.030,-0.255
2188,-0.040,-0.285
2189,-0.050,-0.325
2190,-0.060,-0.350
2191,-0.060,-0.360
2192,-0.055,-0.360
2193,-0.050,-0.370
2194,-0.050,-0.375
2195,-0.055,-0.380
2196,-0.065,-0.390
2197,-0.070,-0.380
2198,-0.020,-0.315
2199,0.130,-0.135
2200,0.365,0.115
2201,0.525,0.345
2202,0.470,0.410
2203,0.260,0.295
2204,0.065,0.080
2205,-0.035,-0.120
2206,-0.060,-0.245
2207,-0.055,-0.295
2208,-0.050,-0.310
2209,-0.060,-0.320
2210,-0.070,-0.335
2211,-0.065,-0.345
2212,-0.065,-0.340
2213,-0.065,-0.330
2214,-0.065,-0.325
2215,-0.060,-0.330
2216,-0.055,-0.325
2217,-0.055,-0.320
2218,-0.055,-0.310
2219,-0.060,-0.310
2220,-0.060,-0.305
2221,-0.050,-0.305
2222,-0.045,-0.305
2223,-0.045,-0.310
2224,-0.050,-0.310
2225,-0.050,-0.315
2226,-0.050,-0.305
2227,-0.050,-0.300
2228,-0.050,-0.300
2229,-0.050,-0.295
2230,-0.055,-0.295
2231,-0.060,-0.295
2232,-0.060,-0.310
2233,-0.060,-0.325
2234,-0.065,-0.335
2235,-0.075,-0.340
2236,-0.085,-0.345
2237,-0.090,-0.350
2238,-0.100,-0.360
2239,-0.110,-0.365
2240,-0.115,-0.360
2241,-0.115,-0.345
2242,-0.115,-0.340
2243,-0.115,-0.355
2244,-0.110,-0.365
2245,-0.110,-0.370
2246,-0.100,-0.365
2247,-0.085,-0.355
2248,-0.080,-0.345
2249,-0.075,-0.335
2250,-0.070,-0.315
2251,-0.060,-0.305
2252,-0.050,-0.310
2253,-0.045,-0.305
2254,-0.045,-0.305
2255,-0.045,-0.310
2256,-0.040,-0.315
2257,-0.035,-0.320
2258,-0.035,-0.315
2259,-0.045,-0.305
2260,-0.045,-0.305
2261,-0.040,-0.320
2262,-0.035,-0.325
2263,-0.035,-0.330
2264,-0.040,-0.330
2265,-0.040,-0.330
2266,-0.035,-0.330
2267,-0.040,-0.325
2268,-0.045,-0.305
2269,-0.045,-0.290
2270,-0.040,-0.270
2271,-0.035,-0.255
2272,-0.035,-0.245
2273,-0.030,-0.250
2274,-0.030,-0.260
2275,-0.045,-0.280
2276,-0.055,-0.305
2277,-0.065,-0.320
2278,-0.065,-0.330
2279,-0.065,-0.345
2280,-0.075,-0.365
2281,-0.090,-0.390
2282,-0.100,-0.420
2283,-0.100,-0.435
2284,-0.095,-0.435
2285,-0.095,-0.420
2286,-0.100,-0.410
2287,-0.105,-0.425
2288,-0.105,-0.445
2289,-0.085,-0.430
2290,-0.010,-0.350
2291,0.160,-0.175
2292,0.395,0.070
2293,0.535,0.295
2294,0.460,0.375
2295,0.240,0.255
2296,0.030,0.020
2297,-0.065,-0.175
2298,-0.090,-0.285
2299,-0.085,-0.325
2300,-0.085,-0.350
2301,-0.085,-0.370
2302,-0.085,-0.370
2303,-0.090,-0.370
2304,-0.095,-0.370
2305,-0.090,-0.370
2306,-0.090,-0.370
2307,-0.085,-0.360
2308,-0.075,-0.345
2309,-0.070,-0.335
2310,-0.070,-0.325
2311,-0.070,-0.310
2312,-0.070,-0.310
2313,-0.070,-0.310
2314,-0.070,-0.315
2315,-0.065,-0.305
2316,-0.060,-0.305
2317,-0.055,-0.305
2318,-0.055,-0.310
2319,-0.055,-0.315
2320,-0.050,-0.305
2321,-0.050,-0.305
2322,-0.050,-0.300
2323,-0.055,-0.295
2324,-0.060,-0.295
2325,-0.065,-0.300
2326,-0.070,-0.310
2327,-0.075,-0.320
2328,-0.090,-0.320
2329,-0.100,-0.315
2330,-0.105,-0.310
2331,-0.105,-0.315
2332,-0.110,-0.315
2333,-0.115,-0.310
2334,-0.115,-0.305
2335,-0.110,-0.305
2336,-0.105,-0.305
2337,-0.100,-0.300
2338,-0.095,-0.295
2339,-0.080,-0.285
2340,-0.065,-0.280
2341,-0.060,-0.285
2342,-0.050,-0.280
2343,-0.040,-0.265
2344,-0.025,-0.255
2345,-0.025,-0.255
2346,-0.025,-0.250
2347,-0.025,-0.235
2348,-0.020,-0.230
2349,-0.015,-0.230
2350,-0.005,-0.235
2351,0.000,-0.225
2352,0.000,-0.225
2353,-0.005,-0.230
2354,-0.010,-0.250
2355,-0.015,-0.255
2356,-0.010,-0.245
2357,0.000,-0.245
2358,0.000,-0.245
2359,-0.005,-0.235
2360,-0.015,-0.230
2361,-0.015,-0.220
2362,-0.005,-0.200
2363,0.000,-0.185
2364,0.000,-0.170
2365,0.000,-0.160
2366,0.000,-0.160
2367,0.005,-0.165
2368,0.000,-0.180
2369,-0.010,-0.200
2370,-0.015,-0.220
2371,0.000,-0.235
2372,0.010,-0.255
2373,0.005,-0.275
2374,-0.030,-0.300
2375,-0.070,-0.325
2376,-0.075,-0.345
2377,-0.065,-0.350
2378,-0.065,-0.355
2379,-0.060,-0.360
2380,-0.055,-0.355
2381,-0.055,-0.355
2382,-0.065,-0.370
2383,-0.040,-0.330
2384,0.085,-0.180
2385,0.320,0.060
2386,0.545,0.315
2387,0.535,0.445
2388,0.330,0.360
2389,0.095,0.120
2390,-0.035,-0.085
2391,-0.075,-0.210
2392,-0.075,-0.270
2393,-0.075,-0.290
2394,-0.075,-0.290
2395,-0.080,-0.290
2396,-0.080,-0.290
2397,-0.075,-0.295
2398,-0.075,-0.300
2399,-0.085,-0.305
2400,-0.090,-0.290
2401,-0.080,-0.285
2402,-0.080,-0.285
2403,-0.080,-0.290
2404,-0.070,-0.290
2405,-0.060,-0.280
2406,-0.060,-0.265
2407,-0.070,-0.260
2408,-0.080,-0.265
2409,-0.060,-0.270
2410,-0.020,-0.265
2411,0.005,-0.265
2412,-0.005,-0.260
2413,-0.075,-0.250
2414,-0.145,-0.240
2415,-0.155,-0.235
2416,-0.130,-0.245
2417,-0.105,-0.255
2418,-0.095,-0.265
2419,-0.095,-0.260
2420,-0.100,-0.250
2421,-0.105,-0.250
2422,-0.110,-0.265
2423,-0.120,-0.280
2424,-0.125,-0.280
2425,-0.130,-0.300
2426,-0.140,-0.305
2427,-0.150,-0.285
2428,-0.145,-0.285
2429,-0.125,-0.280
2430,-0.070,-0.265
2431,-0.040,-0.240
2432,-0.065,-0.210
2433,-0.110,-0.210
2434,-0.135,-0.235
2435,-0.130,-0.240
2436,-0.105,-0.220
2437,-0.085,-0.200
2438,-0.070,-0.205
2439,-0.065,-0.210
2440,-0.065,-0.210
2441,-0.060,-0.200
2442,-0.055,-0.200
2443,-0.050,-0.205
2444,-0.050,-0.205
2445,-0.050,-0.200
2446,-0.045,-0.200
2447,-0.045,-0.200
2448,-0.045,-0.205
2449,-0.050,-0.210
2450,-0.045,-0.210
2451,-0.040,-0.205
2452,-0.040,-0.205
2453,-0.035,-0.210
2454,-0.025,-0.205
2455,-0.005,-0.195
2456,0.000,-0.180
2457,-0.020,-0.165
2458,-0.065,-0.145
2459,-0.080,-0.120
2460,-0.075,-0.110
2461,-0.065,-0.125
2462,-0.050,-0.160
2463,-0.050,-0.190
2464,-0.055,-0.210
2465,-0.060,-0.220
2466,-0.065,-0.230
2467,-0.070,-0.240
2468,-0.075,-0.270
2469,-0.080,-0.305
2470,-0.085,-0.315
2471,-0.090,-0.310
2472,-0.085,-0.305
2473,-0.085,-0.300
2474,-0.085,-0.300
2475,-0.085,-0.305
2476,-0.090,-0.325
2477,-0.010,-0.270
2478,0.190,-0.090
2479,0.455,0.180
2480,0.570,0.420
2481,0.460,0.475
2482,0.235,0.345
2483,0.030,0.115
2484,-0.080,-0.070
2485,-0.105,-0.185
2486,-0.095,-0.230
2487,-0.080,-0.250
2488,-0.075,-0.255
2489,-0.075,-0.260
2490,-0.075,-0.265
2491,-0.075,-0.255
2492,-0.075,-0.240
2493,-0.070,-0.230
2494,-0.070,-0.230
2495,-0.070,-0.220
2496,-0.070,-0.205
2497,-0.070,-0.195
2498,-0.055,-0.210
2499,-0.035,-0.225
2500,-0.035,-0.220
2501,-0.055,-0.205
2502,-0.080,-0.195
2503,-0.080,-0.210
2504,-0.065,-0.215
2505,-0.050,-0.200
2506,-0.050,-0.190
2507,-0.050,-0.190
2508,-0.055,-0.200
2509,-0.065,-0.195
2510,-0.070,-0.185
2511,-0.060,-0.185
2512,-0.055,-0.185
2513,-0.075,-0.190
2514,-0.100,-0.200
2515,-0.105,-0.210
2516,-0.105,-0.210
2517,-0.110,-0.210
2518,-0.110,-0.220
2519,-0.115,-0.230
2520,-0.105,-0.240
2521,-0.095,-0.245
2522,-0.085,-0.245
2523,-0.085,-0.230
2524,-0.105,-0.220
2525,-0.110,-0.205
2526,-0.090,-0.205
2527,-0.070,-0.210
2528,-0.065,-0.210
2529,-0.055,-0.210
2530,-0.055,-0.195
2531,-0.055,-0.160
2532,-0.040,-0.150
2533,-0.025,-0.175
2534,-0.015,-0.195
2535,0.000,-0.195
2536,0.000,-0.185
2537,-0.010,-0.175
2538,-0.025,-0.170
2539,-0.030,-0.165
2540,-0.030,-0.160
2541,-0.035,-0.160
2542,-0.030,-0.175
2543,-0.030,-0.185
2544,-0.025,-0.190
2545,-0.020,-0.200
2546,-0.020,-0.200
2547,-0.025,-0.180
2548,-0.025,-0.150
2549,-0.030,-0.125
2550,-0.025,-0.120
2551,-0.015,-0.115
2552,0.000,-0.110
2553,0.005,-0.095
2554,0.005,-0.095
2555,0.000,-0.125
2556,-0.010,-0.165
2557,0.000,-0.200
2558,0.010,-0.210
2559,-0.025,-0.210
2560,-0.080,-0.220
2561,-0.090,-0.240
2562,-0.095,-0.275
2563,-0.080,-0.300
2564,-0.075,-0.310
2565,-0.065,-0.305
2566,-0.060,-0.295
2567,-0.060,-0.290
2568,-0.065,-0.295
2569,-0.050,-0.300
2570,0.020,-0.245
2571,0.200,-0.065
2572,0.430,0.205
2573,0.565,0.440
2574,0.490,0.495
2575,0.280,0.370
2576,0.100,0.145
2577,0.005,-0.045
2578,-0.055,-0.155
2579,-0.100,-0.200
2580,-0.110,-0.225
2581,-0.100,-0.225
2582,-0.090,-0.225
2583,-0.080,-0.240
2584,-0.070,-0.250
2585,-0.070,-0.240
2586,-0.070,-0.235
2587,-0.075,-0.230
2588,-0.065,-0.220
2589,-0.055,-0.210
2590,-0.050,-0.205
2591,-0.055,-0.205
2592,-0.065,-0.200
2593,-0.060,-0.185
2594,-0.060,-0.170
2595,-0.055,-0.170
2596,-0.050,-0.180
2597,-0.025,-0.175
2598,0.000,-0.160
2599,0.000,-0.165
2600,-0.020,-0.185
2601,-0.060,-0.180
2602,-0.090,-0.165
2603,-0.090,-0.165
2604,-0.085,-0.160
2605,-0.080,-0.145
2606,-0.075,-0.135
2607,-0.075,-0.150
2608,-0.080,-0.175
2609,-0.085,-0.180
2610,-0.090,-0.185
2611,-0.100,-0.180
2612,-0.110,-0.175
2613,-0.115,-0.175
2614,-0.120,-0.185
2615,-0.120,-0.190
2616,-0.110,-0.180
2617,-0.090,-0.170
2618,-0.065,-0.170
2619,-0.060,-0.160
2620,-0.065,-0.140
2621,-0.055,-0.130
2622,-0.040,-0.130
2623,-0.020,-0.140
2624,0.005,-0.150
2625,0.010,-0.140
2626,-0.010,-0.125
2627,-0.030,-0.115
2628,-0.040,-0.105
2629,-0.045,-0.095
2630,-0.025,-0.095
2631,-0.005,-0.110
2632,0.000,-0.120
2633,0.000,-0.115
2634,0.000,-0.115
2635,0.000,-0.115
2636,0.000,-0.115
2637,0.005,-0.115
2638,0.000,-0.110
2639,0.000,-0.105
2640,0.000,-0.105
2641,0.000,-0.100
2642,0.010,-0.075
2643,0.020,-0.055
2644,0.020,-0.055
2645,0.005,-0.055
2646,0.000,-0.055
2647,0.000,-0.035
2648,0.000,-0.035
2649,0.000,-0.055
2650,0.000,-0.095
2651,0.000,-0.115
2652,0.000,-0.130
2653,0.000,-0.140
2654,0.000,-0.155
2655,-0.020,-0.175
2656,-0.040,-0.205
2657,-0.045,-0.215
2658,-0.050,-0.215
2659,-0.055,-0.215
2660,-0.045,-0.220
2661,-0.040,-0.225
2662,-0.045,-0.225
2663,-0.035,-0.210
2664,0.040,-0.125
2665,0.235,0.060
2666,0.475,0.335
2667,0.580,0.540
2668,0.475,0.540
2669,0.260,0.370
2670,0.070,0.155
2671,-0.045,-0.005
2672,-0.070,-0.090
2673,-0.045,-0.120
2674,-0.050,-0.145
2675,-0.090,-0.160
2676,-0.100,-0.175
2677,-0.090,-0.165
2678,-0.090,-0.145
2679,-0.090,-0.115
2680,-0.080,-0.115
2681,-0.060,-0.135
2682,-0.050,-0.125
2683,-0.030,-0.105
2684,0.035,-0.110
2685,0.065,-0.120
2686,-0.010,-0.135
2687,-0.080,-0.140
2688,-0.085,-0.140
2689,-0.085,-0.125
2690,-0.065,-0.115
2691,-0.030,-0.115
2692,-0.015,-0.100
2693,-0.030,-0.095
2694,-0.035,-0.095
2695,-0.040,-0.090
2696,-0.040,-0.090
2697,-0.045,-0.090
2698,-0.045,-0.090
2699,-0.050,-0.090
2700,-0.050,-0.100
2701,-0.025,-0.130
2702,-0.015,-0.150
2703,-0.005,-0.150
2704,0.010,-0.140
2705,-0.020,-0.100
2706,-0.125,-0.070
2707,-0.200,-0.080
2708,-0.195,-0.120
2709,-0.160,-0.145
2710,-0.135,-0.150
2711,-0.115,-0.140
2712,-0.100,-0.120
2713,-0.090,-0.105
2714,-0.085,-0.095
2715,-0.080,-0.085
2716,-0.070,-0.080
2717,-0.065,-0.080
2718,-0.070,-0.075
2719,-0.065,-0.060
2720,-0.050,-0.060
2721,-0.015,-0.055
2722,0.005,-0.045
2723,-0.020,-0.035
2724,-0.080,-0.030
2725,-0.100,-0.040
2726,-0.075,-0.065
2727,-0.050,-0.075
2728,-0.045,-0.065
2729,-0.035,-0.065
2730,0.065,-0.080
2731,0.155,-0.085
2732,0.015,-0.060
2733,-0.165,-0.035
2734,-0.195,-0.055
2735,-0.150,-0.070
2736,-0.100,-0.055
2737,-0.060,-0.025
2738,-0.040,-0.005
2739,-0.040,-0.005
2740,-0.040,0.000
2741,-0.040,0.005
2742,-0.035,0.000
2743,-0.030,-0.015
2744,-0.035,-0.040
2745,-0.045,-0.050
2746,-0.035,-0.065
2747,-0.005,-0.100
2748,0.015,-0.125
2749,0.010,-0.135
2750,-0.035,-0.130
2751,-0.115,-0.120
2752,-0.155,-0.130
2753,-0.125,-0.160
2754,-0.100,-0.195
2755,-0.095,-0.215
2756,-0.090,-0.220
2757,-0.080,-0.215
2758,-0.040,-0.165
2759,0.085,-0.020
2760,0.320,0.220
2761,0.550,0.495
2762,0.580,0.645
2763,0.380,0.585
2764,0.135,0.370
2765,0.000,0.130
2766,-0.030,-0.020
2767,-0.070,-0.080
2768,-0.095,-0.075
2769,-0.085,-0.040
2770,-0.085,-0.025
2771,-0.080,-0.050
2772,-0.070,-0.110
2773,-0.050,-0.150
2774,-0.045,-0.150
2775,-0.020,-0.145
2776,0.030,-0.125
2777,0.035,-0.095
2778,-0.055,-0.065
2779,-0.110,-0.070
2780,-0.080,-0.095
2781,-0.050,-0.090
2782,-0.035,-0.075
2783,-0.025,-0.075
2784,-0.020,-0.075
2785,-0.020,-0.045
2786,-0.020,-0.030
2787,-0.010,-0.055
2788,0.000,-0.085
2789,0.005,-0.085
2790,0.045,-0.065
2791,0.075,-0.045
2792,0.030,-0.035
2793,-0.050,-0.035
2794,-0.095,-0.035
2795,-0.075,-0.040
2796,-0.045,-0.070
2797,-0.035,-0.100
2798,-0.045,-0.110
2799,-0.025,-0.105
2800,0.020,-0.115
2801,0.055,-0.115
2802,0.015,-0.095
2803,-0.055,-0.085
2804,-0.085,-0.085
2805,-0.070,-0.090
2806,-0.040,-0.085
2807,-0.010,-0.065
2808,0.010,-0.055
2809,0.050,-0.045
2810,0.070,0.005
2811,0.050,0.040
2812,0.050,0.030
2813,0.070,-0.005
2814,0.075,-0.015
2815,0.160,-0.045
2816,0.345,-0.100
2817,0.330,-0.110
2818,0.085,-0.065
2819,-0.040,-0.005
2820,0.000,0.005
2821,0.050,0.000
2822,0.075,-0.030
2823,0.075,-0.065
2824,0.060,-0.065
2825,0.065,-0.045
2826,0.090,-0.045
2827,0.100,-0.035
2828,0.100,-0.010
2829,0.120,0.015
2830,0.145,0.060
2831,0.140,0.050
2832,0.125,0.000
2833,0.135,-0.035
2834,0.150,-0.025
2835,0.135,0.000
2836,0.145,0.000
2837,0.170,-0.015
2838,0.175,-0.030
2839,0.170,-0.020
2840,0.190,-0.025
2841,0.185,-0.055
2842,0.155,-0.065
2843,0.150,-0.065
2844,0.170,-0.095
2845,0.175,-0.155
2846,0.170,-0.175
2847,0.165,-0.175
2848,0.205,-0.185
2849,0.305,-0.185
2850,0.370,-0.185
2851,0.300,-0.180
2852,0.220,-0.115
2853,0.330,0.025
2854,0.615,0.235
2855,0.890,0.505
2856,0.935,0.700
2857,0.735,0.640
2858,0.480,0.385
2859,0.330,0.120
2860,0.305,-0.030
2861,0.330,-0.080
2862,0.375,-0.095
2863,0.420,-0.100
2864,0.430,-0.115
2865,0.435,-0.155
2866,0.405,-0.150
2867,0.320,-0.110
2868,0.285,-0.085
2869,0.315,-0.060
2870,0.350,-0.050
2871,0.380,-0.080
2872,0.410,-0.110
2873,0.425,-0.105
2874,0.435,-0.070
2875,0.440,-0.030
2876,0.445,-0.020
2877,0.450,-0.055
2878,0.455,-0.095
2879,0.460,-0.105
2880,0.480,-0.090
2881,0.505,-0.070
2882,0.535,-0.060
2883,0.545,-0.045
2884,0.525,-0.020
2885,0.505,-0.005
2886,0.510,0.000
2887,0.520,0.000
2888,0.510,-0.010
2889,0.495,-0.055
2890,0.495,-0.090
2891,0.505,-0.105
2892,0.520,-0.100
2893,0.515,-0.080
2894,0.505,-0.070
2895,0.505,-0.065
2896,0.510,-0.050
2897,0.515,-0.050
2898,0.530,-0.070
2899,0.570,-0.085
2900,0.600,-0.080
2901,0.585,-0.060
2902,0.550,-0.040
2903,0.545,-0.005
2904,0.605,0.000
2905,0.695,-0.005
2906,0.715,0.000
2907,0.650,0.020
2908,0.615,0.000
2909,0.630,-0.045
2910,0.660,-0.050
2911,0.680,-0.015
2912,0.685,0.000
2913,0.690,-0.005
2914,0.690,-0.010
2915,0.700,-0.005
2916,0.705,0.000
2917,0.700,0.005
2918,0.700,0.000
2919,0.700,0.000
2920,0.700,0.010
2921,0.700,0.025
2922,0.700,0.010
2923,0.705,-0.015
2924,0.710,-0.025
2925,0.720,-0.005
2926,0.740,0.010
2927,0.775,0.025
2928,0.795,0.045
2929,0.780,0.065
2930,0.750,0.070
2931,0.735,0.065
2932,0.735,0.050
2933,0.730,0.035
2934,0.720,0.015
2935,0.700,-0.005
2936,0.700,-0.035
2937,0.705,-0.065
2938,0.705,-0.095
2939,0.695,-0.115
2940,0.695,-0.110
2941,0.705,-0.110
2942,0.705,-0.120
2943,0.700,-0.120
2944,0.695,-0.110
2945,0.690,-0.110
2946,0.690,-0.125
2947,0.755,-0.075
2948,0.915,0.095
2949,1.010,0.380
2950,1.020,0.630
2951,1.020,0.695
2952,0.990,0.565
2953,0.835,0.320
2954,0.730,0.115
2955,0.695,0.015
2956,0.690,-0.025
2957,0.700,-0.055
2958,0.710,-0.080
2959,0.705,-0.090
2960,0.695,-0.095
2961,0.705,-0.085
2962,0.720,-0.055
2963,0.725,-0.030
2964,0.730,-0.015
2965,0.755,0.000
2966,0.760,0.000
2967,0.720,-0.025
2968,0.670,-0.060
2969,0.655,-0.075
2970,0.670,-0.055
2971,0.680,-0.030
2972,0.685,-0.020
2973,0.675,-0.020
2974,0.665,-0.015
2975,0.665,-0.010
2976,0.665,-0.010
2977,0.660,-0.020
2978,0.650,-0.015
2979,0.625,0.000
2980,0.610,0.010
2981,0.615,0.005
2982,0.615,0.000
2983,0.605,-0.015
2984,0.590,-0.025
2985,0.580,-0.030
2986,0.565,-0.035
2987,0.560,-0.045
2988,0.550,-0.060
2989,0.540,-0.075
2990,0.535,-0.085
2991,0.535,-0.085
2992,0.560,-0.055
2993,0.600,-0.030
2994,0.605,-0.015
2995,0.560,-0.005
2996,0.530,-0.015
2997,0.550,-0.040
2998,0.580,-0.050
2999,0.600,-0.025
3000,0.600,-0.005
3001,0.600,0.000
3002,0.610,0.010
3003,0.610,0.020
3004,0.610,0.015
3005,0.615,0.005
3006,0.625,0.000
3007,0.630,0.000
3008,0.625,0.000
3009,0.620,0.005
3010,0.620,0.005
3011,0.620,0.015
3012,0.625,0.010
3013,0.625,0.000
3014,0.625,0.000
3015,0.640,0.000
3016,0.645,-0.010
3017,0.625,-0.015
3018,0.585,0.000
3019,0.570,0.020
3020,0.580,0.025
3021,0.600,0.025
3022,0.625,0.050
3023,0.630,0.075
3024,0.625,0.070
3025,0.625,0.070
3026,0.630,0.075
3027,0.625,0.065
3028,0.620,0.025
3029,0.610,0.000
3030,0.610,0.000
3031,0.605,-0.010
3032,0.600,-0.045
3033,0.595,-0.100
3034,0.595,-0.125
3035,0.600,-0.125
3036,0.585,-0.105
3037,0.565,-0.100
3038,0.560,-0.110
3039,0.565,-0.120
3040,0.565,-0.110
3041,0.580,-0.085
3042,0.680,-0.015
3043,0.880,0.165
3044,0.995,0.455
3045,1.020,0.670
3046,1.005,0.670
3047,0.825,0.480
3048,0.585,0.245
3049,0.495,0.080
3050,0.520,0.000
3051,0.565,-0.030
3052,0.585,-0.035
3053,0.595,-0.020
3054,0.590,-0.020
3055,0.585,-0.055
3056,0.585,-0.100
3057,0.590,-0.115
3058,0.585,-0.100
3059,0.575,-0.070
3060,0.565,-0.035
3061,0.560,-0.015
3062,0.555,-0.010
3063,0.550,-0.010
3064,0.550,-0.020
3065,0.555,-0.050
3066,0.570,-0.075
3067,0.580,-0.070
3068,0.575,-0.065
3069,0.570,-0.050
3070,0.560,0.000
3071,0.560,0.015
3072,0.565,-0.020
3073,0.565,-0.075
3074,0.560,-0.090
3075,0.545,-0.070
3076,0.530,-0.035
3077,0.515,-0.030
3078,0.515,-0.055
3079,0.510,-0.070
3080,0.495,-0.050
3081,0.485,-0.040
3082,0.485,-0.055
3083,0.485,-0.080
3084,0.480,-0.090
3085,0.470,-0.065
3086,0.460,-0.035
3087,0.460,-0.030
3088,0.465,-0.030
3089,0.480,-0.050
3090,0.490,-0.085
3091,0.505,-0.105
3092,0.535,-0.110
3093,0.560,-0.095
3094,0.540,-0.075
3095,0.520,-0.060
3096,0.530,-0.055
3097,0.540,-0.040
3098,0.520,-0.025
3099,0.505,-0.010
3100,0.515,0.000
3101,0.550,0.000
3102,0.565,-0.025
3103,0.560,-0.055
3104,0.555,-0.050
3105,0.555,-0.040
3106,0.550,-0.050
3107,0.530,-0.050
3108,0.515,-0.035
3109,0.505,-0.025
3110,0.505,-0.050
3111,0.510,-0.070
3112,0.510,-0.060
3113,0.510,-0.020
3114,0.515,-0.010
3115,0.520,-0.035
3116,0.535,-0.040
3117,0.540,-0.025
3118,0.505,-0.010
3119,0.460,-0.005
3120,0.440,-0.005
3121,0.430,-0.025
3122,0.430,-0.035
3123,0.425,-0.055
3124,0.430,-0.085
3125,0.435,-0.090
3126,0.450,-0.090
3127,0.465,-0.135
3128,0.455,-0.205
3129,0.440,-0.235
3130,0.445,-0.210
3131,0.425,-0.165
3132,0.370,-0.140
3133,0.345,-0.160
3134,0.375,-0.195
3135,0.460,-0.135
3136,0.635,0.060
3137,0.865,0.335
3138,1.000,0.555
3139,0.940,0.600
3140,0.730,0.470
3141,0.495,0.255
3142,0.360,0.095
3143,0.335,0.030
3144,0.340,0.000
3145,0.335,-0.050
3146,0.350,-0.120
3147,0.370,-0.165
3148,0.360,-0.175
3149,0.330,-0.155
3150,0.325,-0.145
3151,0.330,-0.135
3152,0.335,-0.120
3153,0.335,-0.095
3154,0.340,-0.060
3155,0.350,-0.025
3156,0.340,-0.010
3157,0.330,-0.010
3158,0.330,-0.030
3159,0.340,-0.085
3160,0.345,-0.120
3161,0.345,-0.130
3162,0.355,-0.125
3163,0.360,-0.095
3164,0.360,-0.075
3165,0.350,-0.065
3166,0.330,-0.045
3167,0.325,-0.035
3168,0.325,-0.040
3169,0.325,-0.045
3170,0.325,-0.040
3171,0.325,-0.035
3172,0.305,-0.035
3173,0.290,-0.040
3174,0.275,-0.045
3175,0.275,-0.060
3176,0.275,-0.085
3177,0.265,-0.105
3178,0.255,-0.110
3179,0.255,-0.100
3180,0.265,-0.090
3181,0.275,-0.080
3182,0.280,-0.075
3183,0.280,-0.090
3184,0.285,-0.100
3185,0.300,-0.080
3186,0.315,-0.055
3187,0.315,-0.035
3188,0.325,-0.025
3189,0.350,-0.015
3190,0.365,-0.015
3191,0.385,-0.035
3192,0.400,-0.030
3193,0.365,-0.015
3194,0.305,-0.035
3195,0.285,-0.065
3196,0.315,-0.060
3197,0.350,-0.040
3198,0.350,-0.020
3199,0.350,0.000
3200,0.360,0.005
3201,0.360,-0.015
3202,0.365,-0.055
3203,0.375,-0.060
3204,0.355,-0.045
3205,0.315,-0.035
3206,0.320,-0.035
3207,0.335,-0.005
3208,0.345,0.030
3209,0.350,0.035
3210,0.360,0.025
3211,0.370,0.010
3212,0.375,0.000
3213,0.380,0.000
3214,0.375,-0.005
3215,0.365,-0.025
3216,0.365,-0.050
3217,0.350,-0.065
3218,0.300,-0.055
3219,0.255,-0.040
3220,0.245,-0.045
3221,0.260,-0.080
3222,0.270,-0.115
3223,0.270,-0.140
3224,0.260,-0.155
3225,0.260,-0.165
3226,0.260,-0.165
3227,0.270,-0.150
3228,0.275,-0.135
3229,0.300,-0.105
3230,0.400,-0.025
3231,0.580,0.145
3232,0.795,0.415
3233,0.925,0.645
3234,0.840,0.665
3235,0.600,0.475
3236,0.390,0.215
3237,0.345,0.035
3238,0.375,-0.040
3239,0.295,-0.080
3240,0.165,-0.075
3241,0.135,-0.070
3242,0.185,-0.090
3243,0.220,-0.105
3244,0.225,-0.090
3245,0.230,-0.075
3246,0.245,-0.060
3247,0.290,-0.045
3248,0.335,-0.040
3249,0.330,-0.035
3250,0.280,-0.020
3251,0.225,-0.040
3252,0.200,-0.080
3253,0.210,-0.100
3254,0.240,-0.085
3255,0.265,-0.065
3256,0.245,-0.045
3257,0.225,-0.040
3258,0.250,-0.055
3259,0.270,-0.060
3260,0.230,-0.035
3261,0.175,0.005
3262,0.155,0.045
3263,0.165,0.035
3264,0.175,-0.025
3265,0.180,-0.075
3266,0.180,-0.090
3267,0.205,-0.080
3268,0.260,-0.085
3269,0.285,-0.090
3270,0.205,-0.070
3271,0.085,-0.045
3272,0.045,-0.040
3273,0.075,-0.045
3274,0.100,-0.055
3275,0.110,-0.045
3276,0.130,-0.030
3277,0.145,-0.055
3278,0.130,-0.080
3279,0.105,-0.070
3280,0.130,-0.040
3281,0.210,-0.015
3282,0.260,-0.010
3283,0.270,-0.005
3284,0.280,-0.005
3285,0.265,0.000
3286,0.200,0.015
3287,0.185,0.050
3288,0.235,0.065
3289,0.200,0.050
3290,0.135,0.000
3291,0.240,-0.040
3292,0.335,-0.025
3293,0.190,0.015
3294,0.030,0.040
3295,0.020,0.035
3296,0.065,0.020
3297,0.100,0.015
3298,0.145,0.005
3299,0.205,0.000
3300,0.210,0.015
3301,0.135,0.050
3302,0.085,0.080
3303,0.085,0.125
3304,0.100,0.165
3305,0.125,0.170
3306,0.145,0.140
3307,0.155,0.115
3308,0.165,0.085
3309,0.155,0.050
3310,0.130,0.035
3311,0.100,0.030
3312,0.080,0.030
3313,0.085,0.045
3314,0.105,0.050
3315,0.100,0.025
3316,0.075,0.000
3317,0.050,-0.005
3318,0.055,0.000
3319,0.080,0.020
3320,0.070,0.040
3321,0.050,0.060
3322,0.075,0.070
3323,0.135,0.085
3324,0.250,0.175
3325,0.460,0.395
3326,0.715,0.680
3327,0.795,0.880
3328,0.620,0.875
3329,0.350,0.680
3330,0.165,0.440
3331,0.105,0.265
3332,0.105,0.185
3333,0.110,0.160
3334,0.120,0.140
3335,0.145,0.115
3336,0.145,0.110
3337,0.100,0.115
3338,0.080,0.140
3339,0.090,0.160
3340,0.110,0.170
3341,0.115,0.175
3342,0.115,0.170
3343,0.115,0.155
3344,0.120,0.150
3345,0.125,0.160
3346,0.120,0.170
3347,0.105,0.175
3348,0.085,0.175
3349,0.085,0.180
3350,0.115,0.200
3351,0.165,0.220
3352,0.160,0.230
3353,0.105,0.235
3354,0.075,0.245
3355,0.100,0.220
3356,0.135,0.180
3357,0.145,0.165
3358,0.140,0.170
3359,0.135,0.190
3360,0.115,0.205
3361,0.100,0.195
3362,0.120,0.165
3363,0.200,0.140
3364,0.195,0.135
3365,0.065,0.135
3366,-0.005,0.135
3367,-0.005,0.145
3368,-0.015,0.150
3369,-0.015,0.145
3370,0.000,0.140
3371,0.020,0.120
3372,0.040,0.120
3373,0.090,0.140
3374,0.125,0.145
3375,0.080,0.155
3376,0.005,0.195
3377,0.000,0.230
3378,0.020,0.210
3379,0.045,0.195
3380,0.065,0.230
3381,0.100,0.210
3382,0.150,0.135
3383,0.185,0.095
3384,0.160,0.100
3385,0.065,0.125
3386,-0.020,0.140
3387,-0.030,0.135
3388,0.000,0.130
3389,0.035,0.140
3390,0.095,0.150
3391,0.185,0.140
3392,0.250,0.150
3393,0.170,0.185
3394,-0.005,0.205
3395,-0.085,0.210
3396,-0.035,0.240
3397,0.015,0.270
3398,0.030,0.255
3399,0.035,0.200
3400,0.040,0.145
3401,0.050,0.115
3402,0.100,0.125
3403,0.170,0.125
3404,0.095,0.105
3405,-0.055,0.095
3406,-0.105,0.095
3407,-0.045,0.065
3408,0.025,0.025
3409,0.060,0.035
3410,0.030,0.075
3411,0.035,0.075
3412,0.095,0.030
3413,0.030,-0.005
3414,-0.140,-0.005
3415,-0.190,0.025
3416,-0.015,0.135
3417,0.310,0.350
3418,0.635,0.635
3419,0.710,0.845
3420,0.470,0.860
3421,0.145,0.680
3422,-0.020,0.395
3423,-0.030,0.165
3424,-0.015,0.065
3425,-0.045,0.040
3426,-0.055,0.025
3427,0.050,0.015
3428,0.105,0.060
3429,-0.045,0.145
3430,-0.210,0.180
3431,-0.215,0.125
3432,-0.125,0.045
3433,-0.005,0.015
3434,0.080,0.030
3435,0.050,0.055
3436,-0.030,0.075
3437,-0.035,0.100
3438,-0.020,0.115
3439,-0.055,0.120
3440,-0.080,0.105
3441,-0.020,0.090
3442,0.030,0.095
3443,-0.005,0.120
3444,-0.110,0.135
3445,-0.150,0.155
3446,-0.110,0.165
3447,-0.075,0.120
3448,-0.075,0.075
3449,-0.075,0.075
3450,-0.075,0.080
3451,-0.035,0.080
3452,-0.010,0.080
3453,-0.095,0.110
3454,-0.105,0.110
3455,-0.060,0.100
3456,-0.115,0.150
3457,-0.135,0.160
3458,-0.130,0.090
3459,-0.200,0.030
3460,-0.235,0.035
3461,-0.200,0.040
3462,-0.135,0.040
3463,-0.070,0.040
3464,-0.010,0.040
3465,0.075,0.035
3466,0.085,0.055
3467,-0.115,0.130
3468,-0.300,0.205
3469,-0.240,0.215
3470,-0.090,0.185
3471,-0.035,0.150
3472,-0.055,0.130
3473,-0.070,0.110
3474,-0.085,0.080
3475,-0.115,0.065
3476,-0.075,0.075
3477,0.005,0.095
3478,0.010,0.110
3479,-0.055,0.135
3480,-0.085,0.155
3481,-0.025,0.155
3482,-0.005,0.145
3483,-0.090,0.165
3484,-0.145,0.170
3485,-0.080,0.140
3486,-0.035,0.110
3487,-0.085,0.125
3488,-0.115,0.165
3489,-0.105,0.185
3490,-0.075,0.160
3491,-0.030,0.145
3492,0.000,0.145
3493,-0.050,0.160
3494,-0.150,0.165
3495,-0.160,0.145
3496,-0.105,0.115
3497,-0.065,0.095
3498,-0.020,0.090
3499,-0.020,0.090
3500,-0.100,0.065
3501,-0.150,0.010
3502,-0.170,-0.025
3503,-0.200,-0.020
3504,-0.175,0.015
3505,-0.125,0.000
3506,-0.110,-0.045
3507,-0.090,-0.025
3508,-0.030,0.060
3509,0.045,0.135
3510,0.140,0.260
3511,0.320,0.530
3512,0.495,0.790
3513,0.470,0.830
3514,0.260,0.680
3515,0.030,0.465
3516,-0.120,0.270
3517,-0.175,0.150
3518,-0.155,0.120
3519,-0.125,0.125
3520,-0.110,0.135
3521,-0.085,0.110
3522,-0.090,0.075
3523,-0.150,0.070
3524,-0.175,0.045
3525,-0.100,0.010
3526,-0.060,0.010
3527,-0.115,0.070
3528,-0.120,0.170
3529,-0.065,0.250
3530,-0.065,0.245
3531,-0.185,0.165
3532,-0.240,0.065
3533,-0.125,0.020
3534,0.030,0.055
3535,0.015,0.070
3536,-0.170,0.050
3537,-0.280,0.055
3538,-0.205,0.075
3539,-0.060,0.100
3540,0.060,0.165
3541,-0.025,0.205
3542,-0.235,0.130
3543,-0.180,0.070
3544,-0.010,0.145
3545,-0.010,0.180
3546,-0.140,0.115
3547,-0.190,0.115
3548,-0.205,0.155
3549,-0.205,0.105
3550,-0.160,0.010
3551,-0.205,-0.035
3552,-0.300,-0.035
3553,-0.275,-0.025
3554,-0.160,0.000
3555,-0.095,0.065
3556,-0.115,0.090
3557,-0.115,0.080
3558,-0.070,0.145
3559,-0.060,0.305
3560,-0.060,0.375
3561,-0.095,0.245
3562,-0.215,0.050
3563,-0.265,-0.060
3564,-0.140,-0.095
3565,-0.025,-0.070
3566,-0.055,0.000
3567,-0.125,0.105
3568,-0.150,0.190
3569,-0.145,0.210
3570,-0.105,0.205
3571,-0.070,0.160
3572,-0.060,0.075
3573,-0.010,0.030
3574,-0.070,0.010
3575,-0.310,-0.010
3576,-0.375,0.000
3577,-0.250,0.040
3578,-0.160,0.100
3579,-0.095,0.155
3580,-0.015,0.150
3581,-0.005,0.080
3582,-0.035,0.150
3583,0.000,0.440
3584,0.060,0.485
3585,0.000,0.185
3586,-0.215,0.115
3587,-0.365,0.225
3588,-0.325,0.090
3589,-0.200,-0.100
3590,-0.015,-0.095
3591,0.085,-0.005
3592,-0.095,0.050
3593,-0.335,0.070
3594,-0.355,0.070
3595,-0.240,0.045
3596,-0.100,0.010
3597,-0.090,0.030
3598,-0.185,0.085
3599,-0.210,0.035
3600,-0.075,-0.080
3601,0.000,-0.115
3602,-0.160,0.000
3603,-0.195,0.260
3604,0.150,0.580
3605,0.575,0.815
3606,0.660,0.885
3607,0.335,0.770
3608,-0.120,0.500
3609,-0.375,0.225
3610,-0.355,0.110
3611,-0.215,0.065
3612,-0.140,0.000
3613,-0.235,0.005
3614,-0.385,0.045
3615,-0.345,0.010
3616,-0.160,-0.035
3617,-0.130,-0.005
3618,-0.255,0.075
3619,-0.275,0.185
3620,-0.195,0.270
3621,-0.195,0.220
3622,-0.370,0.055
3623,-0.475,0.005
3624,-0.290,0.065
3625,-0.090,0.090
3626,-0.095,0.080
3627,-0.255,0.080
3628,-0.310,0.105
3629,-0.140,0.130
3630,-0.100,0.110
3631,-0.320,0.070
3632,-0.450,0.100
3633,-0.390,0.145
3634,-0.300,0.130
3635,-0.175,0.060
3636,-0.120,0.030
3637,-0.250,0.060
3638,-0.370,0.135
3639,-0.350,0.240
3640,-0.285,0.330
3641,-0.270,0.340
3642,-0.315,0.230
3643,-0.400,0.115
3644,-0.390,0.100
3645,-0.275,0.080
3646,-0.230,0.000
3647,-0.340,-0.040
3648,-0.450,-0.020
3649,-0.415,0.020
3650,-0.245,0.140
3651,-0.080,0.345
3652,-0.115,0.460
3653,-0.345,0.350
3654,-0.465,0.105
3655,-0.365,-0.065
3656,-0.245,-0.045
3657,-0.185,0.120
3658,-0.160,0.265
3659,-0.215,0.255
3660,-0.315,0.125
3661,-0.380,0.045
3662,-0.360,0.070
3663,-0.275,0.120
3664,-0.205,0.165
3665,-0.160,0.225
3666,-0.075,0.325
3667,0.000,0.415
3668,-0.045,0.375
3669,-0.205,0.195
3670,-0.395,0.050
3671,-0.495,0.075
3672,-0.385,0.155
3673,-0.270,0.155
3674,-0.220,0.130
3675,-0.180,0.190
3676,-0.160,0.325
3677,-0.160,0.415
3678,-0.150,0.315
3679,-0.220,0.165
3680,-0.300,0.160
3681,-0.290,0.220
3682,-0.220,0.185
3683,-0.160,0.090
3684,-0.230,0.060
3685,-0.370,0.115
3686,-0.390,0.135
3687,-0.300,0.110
3688,-0.240,0.085
3689,-0.245,0.050
3690,-0.290,0.030
3691,-0.320,0.015
3692,-0.315,-0.050
3693,-0.265,-0.080
3694,-0.130,0.090
3695,0.105,0.400
3696,0.310,0.700
3697,0.365,0.905
3698,0.260,0.920
3699,0.030,0.685
3700,-0.210,0.355
3701,-0.255,0.170
3702,-0.175,0.110
3703,-0.220,0.105
3704,-0.325,0.145
3705,-0.360,0.155
3706,-0.335,0.070
3707,-0.300,-0.005
3708,-0.335,-0.025
3709,-0.380,0.010
3710,-0.340,0.090
3711,-0.265,0.150
3712,-0.215,0.155
3713,-0.230,0.110
3714,-0.315,0.035
3715,-0.325,0.025
3716,-0.250,0.040
3717,-0.190,0.040
3718,-0.195,0.055
3719,-0.180,0.105
3720,-0.210,0.155
3721,-0.335,0.225
3722,-0.390,0.290
3723,-0.310,0.235
3724,-0.245,0.055
3725,-0.280,-0.075
3726,-0.335,-0.080
3727,-0.345,-0.020
3728,-0.335,0.030
3729,-0.295,0.100
3730,-0.220,0.135
3731,-0.170,0.085
3732,-0.240,0.005
3733,-0.345,-0.005
3734,-0.335,0.050
3735,-0.290,0.085
3736,-0.340,0.025
3737,-0.425,-0.015
3738,-0.435,0.020
3739,-0.365,0.055
3740,-0.310,0.020
3741,-0.315,0.015
3742,-0.320,0.090
3743,-0.295,0.120
3744,-0.305,0.050
3745,-0.330,-0.030
3746,-0.310,-0.040
3747,-0.270,0.025
3748,-0.250,0.080
3749,-0.225,0.040
3750,-0.190,0.015
3751,-0.120,0.060
3752,-0.125,0.100
3753,-0.265,0.090
3754,-0.340,0.105
3755,-0.295,0.115
3756,-0.250,0.080
3757,-0.225,0.080
3758,-0.220,0.115
3759,-0.195,0.060
3760,-0.130,-0.005
3761,-0.095,-0.015
3762,-0.140,0.000
3763,-0.230,0.060
3764,-0.300,0.120
3765,-0.335,0.120
3766,-0.335,0.130
3767,-0.290,0.160
3768,-0.220,0.085
3769,-0.170,-0.045
3770,-0.165,-0.060
3771,-0.170,0.040
3772,-0.165,0.160
3773,-0.210,0.200
3774,-0.260,0.090
3775,-0.265,-0.080
3776,-0.270,-0.150
3777,-0.290,-0.150
3778,-0.285,-0.180
3779,-0.265,-0.180
3780,-0.220,-0.125
3781,-0.160,-0.115
3782,-0.180,-0.150
3783,-0.275,-0.145
3784,-0.305,-0.080
3785,-0.250,0.000
3786,-0.150,0.045
3787,0.005,0.160
3788,0.220,0.390
3789,0.370,0.580
3790,0.315,0.600
3791,0.090,0.455
3792,-0.075,0.245
3793,-0.140,0.065
3794,-0.215,-0.020
3795,-0.320,-0.040
3796,-0.325,-0.065
3797,-0.280,-0.080
3798,-0.265,-0.035
3799,-0.265,-0.015
3800,-0.255,-0.105
3801,-0.200,-0.205
3802,-0.160,-0.175
3803,-0.150,-0.075
3804,-0.140,-0.055
3805,-0.125,-0.100
3806,-0.180,-0.070
3807,-0.315,-0.010
3808,-0.390,-0.040
3809,-0.350,-0.085
3810,-0.270,-0.100
3811,-0.225,-0.110
3812,-0.205,-0.135
3813,-0.210,-0.150
3814,-0.235,-0.120
3815,-0.245,-0.090
3816,-0.225,-0.080
3817,-0.190,-0.035
3818,-0.145,0.040
3819,-0.130,0.045
3820,-0.180,-0.015
3821,-0.260,-0.070
3822,-0.295,-0.135
3823,-0.280,-0.225
3824,-0.275,-0.240
3825,-0.270,-0.195
3826,-0.270,-0.175
3827,-0.270,-0.170
3828,-0.265,-0.135
3829,-0.220,-0.060
3830,-0.180,-0.055
3831,-0.210,-0.150
3832,-0.280,-0.190
3833,-0.320,-0.115
3834,-0.310,-0.065
3835,-0.260,-0.095
3836,-0.220,-0.130
3837,-0.205,-0.115
3838,-0.210,-0.055
3839,-0.215,-0.045
3840,-0.215,-0.120
3841,-0.195,-0.145
3842,-0.120,-0.135
3843,-0.080,-0.135
3844,-0.155,-0.055
3845,-0.215,0.040
3846,-0.195,-0.010
3847,-0.185,-0.155
3848,-0.185,-0.185
3849,-0.150,-0.115
3850,-0.130,-0.070
3851,-0.145,-0.075
3852,-0.165,-0.085
3853,-0.175,-0.070
3854,-0.175,-0.075
3855,-0.170,-0.100
3856,-0.160,-0.105
3857,-0.130,-0.080
3858,-0.085,-0.035
3859,-0.065,0.000
3860,-0.125,-0.010
3861,-0.195,-0.050
3862,-0.210,-0.080
3863,-0.190,-0.095
3864,-0.175,-0.075
3865,-0.165,-0.035
3866,-0.160,-0.070
3867,-0.130,-0.180
3868,-0.090,-0.265
3869,-0.125,-0.270
3870,-0.225,-0.230
3871,-0.260,-0.220
3872,-0.220,-0.205
3873,-0.215,-0.125
3874,-0.230,-0.150
3875,-0.215,-0.270
3876,-0.165,-0.255
3877,-0.115,-0.175
3878,-0.105,-0.200
3879,-0.010,-0.120
3880,0.255,0.170
3881,0.495,0.485
3882,0.480,0.610
3883,0.220,0.545
3884,-0.040,0.345
3885,-0.180,0.070
3886,-0.200,-0.150
3887,-0.155,-0.205
3888,-0.135,-0.185
3889,-0.170,-0.160
3890,-0.205,-0.050
3891,-0.205,0.060
3892,-0.185,-0.010
3893,-0.180,-0.225
3894,-0.190,-0.330
3895,-0.195,-0.300
3896,-0.195,-0.245
3897,-0.200,-0.215
3898,-0.195,-0.180
3899,-0.180,-0.130
3900,-0.165,-0.110
3901,-0.165,-0.110
3902,-0.165,-0.065
3903,-0.165,-0.015
3904,-0.170,-0.055
3905,-0.155,-0.165
3906,-0.115,-0.235
3907,-0.110,-0.235
3908,-0.165,-0.210
3909,-0.220,-0.175
3910,-0.215,-0.100
3911,-0.190,-0.040
3912,-0.180,-0.060
3913,-0.180,-0.130
3914,-0.185,-0.135
3915,-0.195,-0.045
3916,-0.220,-0.015
3917,-0.245,-0.105
3918,-0.240,-0.225
3919,-0.215,-0.295
3920,-0.200,-0.270
3921,-0.210,-0.215
3922,-0.230,-0.170
3923,-0.240,-0.150
3924,-0.240,-0.180
3925,-0.230,-0.210
3926,-0.205,-0.180
3927,-0.130,-0.095
3928,-0.115,-0.015
3929,-0.195,-0.015
3930,-0.245,-0.135
3931,-0.225,-0.225
3932,-0.195,-0.195
3933,-0.170,-0.130
3934,-0.165,-0.065
3935,-0.165,-0.020
3936,-0.165,-0.020
3937,-0.150,-0.060
3938,-0.135,-0.115
3939,-0.130,-0.160
3940,-0.135,-0.165
3941,-0.140,-0.135
3942,-0.140,-0.095
3943,-0.145,-0.060
3944,-0.150,-0.060
3945,-0.145,-0.105
3946,-0.110,-0.115
3947,-0.045,-0.015
3948,-0.040,0.085
3949,-0.125,0.040
3950,-0.195,-0.040
3951,-0.185,-0.025
3952,-0.135,-0.010
3953,-0.105,-0.070
3954,-0.105,-0.135
3955,-0.120,-0.170
3956,-0.115,-0.185
3957,-0.100,-0.180
3958,-0.100,-0.165
3959,-0.110,-0.130
3960,-0.130,-0.135
3961,-0.140,-0.175
3962,-0.120,-0.165
3963,-0.055,-0.200
3964,-0.050,-0.255
3965,-0.150,-0.185
3966,-0.215,-0.150
3967,-0.190,-0.185
3968,-0.160,-0.180
3969,-0.085,-0.185
3970,0.090,-0.140
3971,0.375,0.095
3972,0.580,0.385
3973,0.520,0.525
3974,0.285,0.455
3975,0.055,0.230
3976,-0.065,0.000
3977,-0.065,-0.105
3978,0.005,-0.055
3979,0.030,0.050
3980,-0.055,0.020
3981,-0.155,-0.135
3982,-0.185,-0.235
3983,-0.165,-0.275
3984,-0.140,-0.295
3985,-0.115,-0.275
3986,-0.100,-0.240
3987,-0.090,-0.210
3988,-0.085,-0.185
3989,-0.075,-0.170
3990,-0.070,-0.145
3991,-0.060,-0.100
3992,-0.055,-0.090
3993,-0.060,-0.135
3994,-0.055,-0.155
3995,-0.035,-0.125
3996,0.005,-0.070
3997,0.050,0.010
3998,0.020,0.030
3999,-0.080,-0.095
4000,-0.140,-0.260
4001,-0.110,-0.280
4002,-0.070,-0.200
4003,-0.050,-0.155
4004,-0.050,-0.180
4005,-0.055,-0.190
4006,-0.055,-0.165
4007,-0.055,-0.145
4008,-0.060,-0.135
4009,-0.070,-0.095
4010,-0.080,-0.055
4011,-0.080,-0.030
4012,-0.085,-0.040
4013,-0.075,-0.150
4014,-0.070,-0.255
4015,-0.065,-0.260
4016,-0.060,-0.225
4017,-0.060,-0.190
4018,-0.055,-0.165
4019,-0.050,-0.135
4020,-0.040,-0.090
4021,-0.020,-0.075
4022,-0.010,-0.090
4023,-0.005,-0.085
4024,0.015,-0.040
4025,0.035,-0.040
4026,0.015,-0.060
4027,-0.020,-0.010
4028,-0.030,0.050
4029,-0.010,0.035
4030,0.005,-0.040
4031,0.015,-0.115
4032,0.020,-0.145
4033,0.025,-0.120
4034,0.025,-0.070
4035,0.025,-0.035
4036,0.025,-0.030
4037,0.025,-0.040
4038,0.025,-0.040
4039,0.025,-0.025
4040,0.025,0.000
4041,0.030,0.020
4042,0.040,0.050
4043,0.055,0.075
4044,0.090,0.100
4045,0.150,0.130
4046,0.170,0.125
4047,0.065,0.050
4048,-0.030,-0.055
4049,-0.020,-0.125
4050,0.025,-0.125
4051,0.035,-0.100
4052,0.020,-0.095
4053,0.010,-0.120
4054,0.010,-0.135
4055,0.005,-0.140
4056,0.005,-0.130
4057,0.000,-0.115
4058,0.000,-0.095
4059,0.000,-0.075
4060,0.000,-0.075
4061,0.015,-0.025
4062,0.115,0.140
4063,0.330,0.360
4064,0.565,0.555
4065,0.635,0.665
4066,0.500,0.600
4067,0.280,0.395
4068,0.080,0.180
4069,-0.010,0.050
4070,-0.030,0.000
4071,-0.020,-0.010
4072,-0.010,-0.015
4073,-0.010,-0.020
4074,-0.015,-0.025
4075,-0.015,-0.025
4076,-0.020,-0.015
4077,-0.015,0.000
4078,-0.010,0.000
4079,-0.005,0.005
4080,0.000,0.005
4081,0.000,0.015
4082,0.010,0.030
4083,0.020,0.035
4084,0.000,0.030
4085,-0.025,0.025
4086,-0.025,0.015
4087,-0.015,0.010
4088,-0.005,0.015
4089,-0.005,0.030
4090,-0.005,0.040
4091,-0.005,0.050
4092,-0.010,0.065
4093,-0.020,0.065
4094,-0.030,0.060
4095,-0.035,0.060
4096,-0.035,0.060
4097,-0.035,0.055
4098,-0.040,0.045
4099,-0.055,0.045
4100,-0.065,0.045
4101,-0.070,0.045
4102,-0.085,0.035
4103,-0.095,0.025
4104,-0.100,0.030
4105,-0.100,0.035
4106,-0.105,0.030
4107,-0.100,0.030
4108,-0.095,0.045
4109,-0.090,0.050
4110,-0.090,0.055
4111,-0.080,0.055
4112,-0.060,0.070
4113,-0.045,0.085
4114,-0.035,0.090
4115,-0.035,0.100
4116,-0.035,0.105
4117,-0.030,0.110
4118,-0.030,0.115
4119,-0.030,0.130
4120,-0.025,0.140
4121,-0.020,0.135
4122,-0.020,0.130
4123,-0.025,0.120
4124,-0.020,0.100
4125,-0.020,0.100
4126,-0.025,0.105
4127,-0.030,0.100
4128,-0.035,0.095
4129,-0.035,0.085
4130,-0.030,0.085
4131,-0.025,0.100
4132,-0.015,0.120
4133,-0.015,0.150
4134,-0.025,0.165
4135,-0.030,0.160
4136,-0.025,0.160
4137,-0.020,0.155
4138,-0.020,0.140
4139,-0.025,0.105
4140,-0.040,0.070
4141,-0.045,0.055
4142,-0.050,0.055
4143,-0.050,0.045
4144,-0.065,0.035
4145,-0.075,0.005
4146,-0.080,-0.020
4147,-0.080,-0.025
4148,-0.080,-0.020
4149,-0.085,-0.020
4150,-0.085,-0.020
4151,-0.090,-0.025
4152,-0.095,-0.020
4153,-0.050,0.025
4154,0.095,0.185
4155,0.320,0.455
4156,0.490,0.705
4157,0.465,0.790
4158,0.275,0.680
4159,0.075,0.450
4160,-0.040,0.245
4161,-0.070,0.125
4162,-0.065,0.070
4163,-0.070,0.035
4164,-0.085,0.010
4165,-0.095,0.000
4166,-0.100,0.000
4167,-0.100,0.000
4168,-0.110,0.000
4169,-0.115,0.000
4170,-0.110,0.005
4171,-0.110,0.010
4172,-0.110,0.030
4173,-0.115,0.045
4174,-0.115,0.045
4175,-0.115,0.050
4176,-0.110,0.050
4177,-0.110,0.025
4178,-0.110,0.025
4179,-0.115,0.045
4180,-0.120,0.060
4181,-0.120,0.050
4182,-0.120,0.040
4183,-0.115,0.035
4184,-0.115,0.040
4185,-0.120,0.045
4186,-0.135,0.025
4187,-0.140,0.010
4188,-0.145,0.015
4189,-0.140,0.020
4190,-0.145,0.025
4191,-0.160,0.010
4192,-0.165,0.000
4193,-0.175,0.000
4194,-0.185,0.010
4195,-0.195,0.020
4196,-0.205,0.010
4197,-0.215,0.000
4198,-0.205,0.000
4199,-0.195,0.000
4200,-0.180,0.000
4201,-0.175,0.000
4202,-0.170,0.005
4203,-0.165,0.015
4204,-0.155,0.040
4205,-0.145,0.060
4206,-0.140,0.050
4207,-0.140,0.040
4208,-0.150,0.045
4209,-0.145,0.055
4210,-0.140,0.060
4211,-0.125,0.070
4212,-0.125,0.070
4213,-0.125,0.055
4214,-0.140,0.050
4215,-0.145,0.065
4216,-0.145,0.060
4217,-0.140,0.050
4218,-0.130,0.070
4219,-0.130,0.075
4220,-0.130,0.055
4221,-0.135,0.055
4222,-0.135,0.070
4223,-0.130,0.090
4224,-0.120,0.115
4225,-0.120,0.115
4226,-0.120,0.120
4227,-0.130,0.145
4228,-0.135,0.140
4229,-0.140,0.110
4230,-0.145,0.075
4231,-0.145,0.045
4232,-0.145,0.045
4233,-0.155,0.055
4234,-0.165,0.045
4235,-0.170,0.020
4236,-0.175,0.000
4237,-0.175,-0.020
4238,-0.180,-0.040
4239,-0.185,-0.045
4240,-0.180,-0.035
4241,-0.180,-0.035
4242,-0.190,-0.035
4243,-0.185,-0.020
4244,-0.115,0.035
4245,0.050,0.190
4246,0.285,0.430
4247,0.440,0.660
4248,0.380,0.755
4249,0.175,0.665
4250,-0.030,0.455
4251,-0.145,0.245
4252,-0.175,0.110
4253,-0.170,0.050
4254,-0.170,0.025
4255,-0.170,0.015
4256,-0.165,0.025
4257,-0.165,0.030
4258,-0.170,0.015
4259,-0.170,0.015
4260,-0.165,0.025
4261,-0.165,0.025
4262,-0.160,0.035
4263,-0.155,0.045
4264,-0.155,0.055
4265,-0.155,0.065
4266,-0.165,0.050
4267,-0.165,0.035
4268,-0.165,0.045
4269,-0.165,0.060
4270,-0.165,0.075
4271,-0.160,0.080
4272,-0.155,0.065
4273,-0.155,0.045
4274,-0.155,0.045
4275,-0.160,0.065
4276,-0.165,0.070
4277,-0.160,0.060
4278,-0.160,0.060
4279,-0.165,0.065
4280,-0.175,0.065
4281,-0.185,0.055
4282,-0.200,0.055
4283,-0.210,0.050
4284,-0.210,0.040
4285,-0.210,0.030
4286,-0.220,0.030
4287,-0.230,0.025
4288,-0.235,0.020
4289,-0.230,0.015
4290,-0.220,0.020
4291,-0.210,0.035
4292,-0.200,0.055
4293,-0.195,0.070
4294,-0.190,0.095
4295,-0.180,0.100
4296,-0.170,0.100
4297,-0.155,0.100
4298,-0.150,0.110
4299,-0.145,0.110
4300,-0.140,0.100
4301,-0.135,0.100
4302,-0.130,0.105
4303,-0.130,0.115
4304,-0.140,0.125
4305,-0.135,0.130
4306,-0.130,0.125
4307,-0.125,0.125
4308,-0.125,0.125
4309,-0.125,0.125
4310,-0.125,0.125
4311,-0.130,0.120
4312,-0.135,0.115
4313,-0.140,0.125
4314,-0.140,0.150
4315,-0.130,0.170
4316,-0.125,0.185
4317,-0.115,0.195
4318,-0.115,0.185
4319,-0.115,0.180
4320,-0.125,0.185
4321,-0.130,0.180
4322,-0.130,0.145
4323,-0.130,0.110
4324,-0.140,0.105
4325,-0.145,0.110
4326,-0.150,0.090
4327,-0.155,0.065
4328,-0.155,0.035
4329,-0.160,0.015
4330,-0.165,0.015
4331,-0.170,0.015
4332,-0.170,0.025
4333,-0.170,0.020
4334,-0.175,0.010
4335,-0.180,0.015
4336,-0.145,0.055
4337,-0.020,0.185
4338,0.195,0.430
4339,0.390,0.700
4340,0.395,0.825
4341,0.205,0.745
4342,0.000,0.530
4343,-0.125,0.315
4344,-0.165,0.190
4345,-0.180,0.120
4346,-0.185,0.085
4347,-0.180,0.085
4348,-0.175,0.080
4349,-0.170,0.070
4350,-0.165,0.065
4351,-0.165,0.065
4352,-0.170,0.080
4353,-0.170,0.080
4354,-0.170,0.085
4355,-0.170,0.100
4356,-0.170,0.105
4357,-0.170,0.105
4358,-0.170,0.105
4359,-0.165,0.115
4360,-0.165,0.125
4361,-0.165,0.130
4362,-0.165,0.120
4363,-0.165,0.110
4364,-0.165,0.115
4365,-0.165,0.120
4366,-0.165,0.120
4367,-0.165,0.125
4368,-0.165,0.120
4369,-0.165,0.115
4370,-0.170,0.115
4371,-0.175,0.115
4372,-0.185,0.110
4373,-0.200,0.100
4374,-0.205,0.085
4375,-0.205,0.075
4376,-0.210,0.080
4377,-0.220,0.090
4378,-0.230,0.090
4379,-0.235,0.080
4380,-0.235,0.075
4381,-0.235,0.080
4382,-0.230,0.085
4383,-0.220,0.085
4384,-0.205,0.090
4385,-0.195,0.105
4386,-0.185,0.115
4387,-0.175,0.120
4388,-0.170,0.130
4389,-0.165,0.145
4390,-0.155,0.155
4391,-0.150,0.160
4392,-0.150,0.165
4393,-0.145,0.175
4394,-0.140,0.175
4395,-0.140,0.175
4396,-0.125,0.175
4397,-0.120,0.175
4398,-0.125,0.175
4399,-0.130,0.180
4400,-0.135,0.180
4401,-0.135,0.160
4402,-0.135,0.145
4403,-0.135,0.145
4404,-0.140,0.150
4405,-0.140,0.160
4406,-0.130,0.170
4407,-0.120,0.190
4408,-0.120,0.210
4409,-0.120,0.220
4410,-0.120,0.230
4411,-0.125,0.235
4412,-0.125,0.225
4413,-0.130,0.205
4414,-0.140,0.175
4415,-0.150,0.145
4416,-0.155,0.135
4417,-0.155,0.130
4418,-0.155,0.115
4419,-0.155,0.085
4420,-0.160,0.045
4421,-0.170,0.025
4422,-0.175,0.020
4423,-0.175,0.020
4424,-0.170,0.025
4425,-0.170,0.025
4426,-0.175,0.020
4427,-0.185,0.015
4428,-0.140,0.075
4429,-0.005,0.230
4430,0.215,0.485
4431,0.410,0.750
4432,0.385,0.850
4433,0.180,0.735
4434,-0.030,0.500
4435,-0.150,0.280
4436,-0.175,0.160
4437,-0.170,0.100
4438,-0.170,0.075
4439,-0.170,0.075
4440,-0.175,0.080
4441,-0.175,0.075
4442,-0.175,0.070
4443,-0.175,0.060
4444,-0.175,0.060
4445,-0.170,0.060
4446,-0.160,0.060
4447,-0.160,0.055
4448,-0.160,0.075
4449,-0.160,0.095
4450,-0.165,0.080
4451,-0.160,0.060
4452,-0.155,0.055
4453,-0.155,0.055
4454,-0.155,0.055
4455,-0.160,0.060
4456,-0.155,0.070
4457,-0.155,0.090
4458,-0.160,0.095
4459,-0.165,0.085
4460,-0.160,0.065
4461,-0.160,0.060
4462,-0.160,0.065
4463,-0.175,0.065
4464,-0.185,0.050
4465,-0.195,0.035
4466,-0.205,0.030
4467,-0.210,0.035
4468,-0.220,0.030
4469,-0.225,0.015
4470,-0.230,0.010
4471,-0.235,0.010
4472,-0.240,0.005
4473,-0.235,0.000
4474,-0.225,0.000
4475,-0.210,0.000
4476,-0.190,0.020
4477,-0.185,0.035
4478,-0.185,0.035
4479,-0.180,0.030
4480,-0.180,0.030
4481,-0.170,0.030
4482,-0.150,0.040
4483,-0.135,0.050
4484,-0.135,0.050
4485,-0.135,0.050
4486,-0.135,0.060
4487,-0.135,0.060
4488,-0.140,0.060
4489,-0.135,0.050
4490,-0.135,0.040
4491,-0.145,0.030
4492,-0.150,0.015
4493,-0.145,0.015
4494,-0.135,0.030
4495,-0.135,0.030
4496,-0.140,0.025
4497,-0.145,0.030
4498,-0.140,0.055
4499,-0.140,0.065
4500,-0.135,0.060
4501,-0.125,0.065
4502,-0.115,0.070
4503,-0.115,0.070
4504,-0.120,0.055
4505,-0.130,0.035
4506,-0.140,0.015
4507,-0.145,0.000
4508,-0.150,0.000
4509,-0.155,0.000
4510,-0.155,-0.035
4511,-0.160,-0.080
4512,-0.170,-0.115
4513,-0.180,-0.125
4514,-0.180,-0.115
4515,-0.175,-0.115
4516,-0.160,-0.120
4517,-0.160,-0.125
4518,-0.155,-0.140
4519,-0.140,-0.130
4520,-0.065,-0.040
4521,0.115,0.150
4522,0.365,0.420
4523,0.475,0.650
4524,0.345,0.685
4525,0.110,0.515
4526,-0.070,0.250
4527,-0.155,0.055
4528,-0.165,-0.025
4529,-0.160,-0.055
4530,-0.155,-0.055
4531,-0.155,-0.055
4532,-0.150,-0.075
4533,-0.150,-0.090
4534,-0.155,-0.095
4535,-0.155,-0.100
4536,-0.150,-0.090
4537,-0.145,-0.075
4538,-0.145,-0.070
4539,-0.140,-0.060
4540,-0.140,-0.060
4541,-0.140,-0.065
4542,-0.140,-0.065
4543,-0.140,-0.065
4544,-0.135,-0.060
4545,-0.130,-0.055
4546,-0.125,-0.060
4547,-0.120,-0.070
4548,-0.120,-0.065
4549,-0.120,-0.060
4550,-0.120,-0.055
4551,-0.125,-0.050
4552,-0.125,-0.050
4553,-0.135,-0.050
4554,-0.140,-0.060
4555,-0.145,-0.065
4556,-0.150,-0.065
4557,-0.155,-0.070
4558,-0.160,-0.090
4559,-0.160,-0.100
4560,-0.170,-0.100
4561,-0.185,-0.100
4562,-0.190,-0.110
4563,-0.195,-0.110
4564,-0.190,-0.105
4565,-0.185,-0.095
4566,-0.180,-0.085
4567,-0.170,-0.070
4568,-0.160,-0.070
4569,-0.145,-0.070
4570,-0.130,-0.060
4571,-0.120,-0.045
4572,-0.115,-0.035
4573,-0.110,-0.035
4574,-0.105,-0.035
4575,-0.095,-0.025
4576,-0.090,-0.015
4577,-0.075,-0.010
4578,-0.070,-0.010
4579,-0.070,-0.015
4580,-0.070,-0.015
4581,-0.075,-0.015
4582,-0.070,-0.020
4583,-0.055,-0.030
4584,-0.055,-0.035
4585,-0.065,-0.045
4586,-0.070,-0.050
4587,-0.075,-0.040
4588,-0.070,-0.025
4589,-0.065,-0.015
4590,-0.065,-0.005
4591,-0.060,0.005
4592,-0.055,0.025
4593,-0.045,0.035
4594,-0.045,0.045
4595,-0.045,0.045
4596,-0.050,0.035
4597,-0.060,0.015
4598,-0.070,-0.015
4599,-0.080,-0.040
4600,-0.075,-0.045
4601,-0.075,-0.050
4602,-0.085,-0.080
4603,-0.095,-0.115
4604,-0.105,-0.140
4605,-0.105,-0.145
4606,-0.105,-0.145
4607,-0.100,-0.140
4608,-0.100,-0.130
4609,-0.100,-0.120
4610,-0.110,-0.125
4611,-0.105,-0.125
4612,-0.015,-0.035
4613,0.175,0.165
4614,0.410,0.435
4615,0.495,0.630
4616,0.365,0.630
4617,0.145,0.465
4618,-0.015,0.245
4619,-0.085,0.080
4620,-0.090,0.000
4621,-0.090,-0.040
4622,-0.095,-0.060
4623,-0.100,-0.065
4624,-0.105,-0.070
4625,-0.105,-0.075
4626,-0.105,-0.080
4627,-0.100,-0.080
4628,-0.095,-0.070
4629,-0.090,-0.060
4630,-0.085,-0.050
4631,-0.085,-0.040
4632,-0.080,-0.035
4633,-0.075,-0.025
4634,-0.075,-0.020
4635,-0.080,-0.020
4636,-0.080,-0.025
4637,-0.075,-0.035
4638,-0.075,-0.030
4639,-0.080,-0.020
4640,-0.085,-0.020
4641,-0.080,-0.020
4642,-0.080,-0.020
4643,-0.085,-0.020
4644,-0.090,-0.030
4645,-0.090,-0.035
4646,-0.095,-0.035
4647,-0.100,-0.035
4648,-0.110,-0.040
4649,-0.115,-0.030
4650,-0.120,-0.030
4651,-0.120,-0.050
4652,-0.130,-0.070
4653,-0.135,-0.075
4654,-0.140,-0.075
4655,-0.145,-0.075
4656,-0.145,-0.080
4657,-0.140,-0.080
4658,-0.135,-0.070
4659,-0.130,-0.060
4660,-0.115,-0.055
4661,-0.095,-0.040
4662,-0.080,-0.025
4663,-0.080,-0.020
4664,-0.075,-0.020
4665,-0.070,-0.010
4666,-0.065,-0.005
4667,-0.060,0.000
4668,-0.060,0.005
4669,-0.055,0.015
4670,-0.055,0.020
4671,-0.055,0.015
4672,-0.055,0.010
4673,-0.050,0.010
4674,-0.040,0.015
4675,-0.040,0.010
4676,-0.040,0.000
4677,-0.045,0.000
4678,-0.060,0.000
4679,-0.070,-0.005
4680,-0.065,0.000
4681,-0.055,0.010
4682,-0.045,0.030
4683,-0.040,0.040
4684,-0.040,0.040
4685,-0.040,0.045
4686,-0.040,0.070
4687,-0.040,0.075
4688,-0.040,0.050
4689,-0.045,0.020
4690,-0.055,0.010
4691,-0.060,0.005
4692,-0.070,0.000
4693,-0.075,-0.015
4694,-0.075,-0.035
4695,-0.080,-0.060
4696,-0.085,-0.095
4697,-0.095,-0.120
4698,-0.100,-0.125
4699,-0.090,-0.115
4700,-0.085,-0.110
4701,-0.085,-0.110
4702,-0.090,-0.110
4703,-0.090,-0.090
4704,-0.020,-0.015
4705,0.145,0.160
4706,0.375,0.425
4707,0.490,0.640
4708,0.400,0.675
4709,0.190,0.525
4710,0.010,0.300
4711,-0.070,0.120
4712,-0.090,0.025
4713,-0.090,-0.015
4714,-0.090,-0.040
4715,-0.095,-0.050
4716,-0.090,-0.050
4717,-0.090,-0.045
4718,-0.090,-0.040
4719,-0.085,-0.030
4720,-0.085,-0.025
4721,-0.085,-0.025
4722,-0.080,-0.020
4723,-0.075,-0.015
4724,-0.075,-0.005
4725,-0.080,0.000
4726,-0.090,0.000
4727,-0.085,-0.005
4728,-0.080,-0.005
4729,-0.080,-0.005
4730,-0.070,-0.005
4731,-0.065,0.000
4732,-0.065,0.000
4733,-0.070,0.000
4734,-0.075,0.000
4735,-0.080,0.000
4736,-0.080,0.000
4737,-0.080,0.000
4738,-0.080,0.000
4739,-0.085,0.000
4740,-0.095,-0.005
4741,-0.105,0.000
4742,-0.110,0.000
4743,-0.115,-0.010
4744,-0.120,-0.030
4745,-0.125,-0.050
4746,-0.140,-0.060
4747,-0.150,-0.065
4748,-0.150,-0.055
4749,-0.145,-0.045
4750,-0.140,-0.035
4751,-0.135,-0.025
4752,-0.125,-0.015
4753,-0.110,0.000
4754,-0.100,0.000
4755,-0.090,0.010
4756,-0.080,0.015
4757,-0.065,0.020
4758,-0.065,0.020
4759,-0.060,0.020
4760,-0.055,0.025
4761,-0.050,0.030
4762,-0.050,0.030
4763,-0.045,0.040
4764,-0.040,0.050
4765,-0.040,0.050
4766,-0.040,0.040
4767,-0.045,0.035
4768,-0.045,0.040
4769,-0.045,0.035
4770,-0.045,0.030
4771,-0.050,0.025
4772,-0.055,0.025
4773,-0.050,0.040
4774,-0.035,0.060
4775,-0.025,0.085
4776,-0.025,0.100
4777,-0.030,0.095
4778,-0.035,0.095
4779,-0.040,0.095
4780,-0.040,0.095
4781,-0.040,0.080
4782,-0.040,0.050
4783,-0.045,0.030
4784,-0.055,0.015
4785,-0.065,0.000
4786,-0.080,-0.025
4787,-0.085,-0.050
4788,-0.085,-0.070
4789,-0.085,-0.075
4790,-0.090,-0.080
4791,-0.095,-0.075
4792,-0.095,-0.060
4793,-0.100,-0.065
4794,-0.105,-0.080
4795,-0.065,-0.040
4796,0.050,0.090
4797,0.260,0.330
4798,0.450,0.585
4799,0.470,0.720
4800,0.310,0.650
4801,0.100,0.445
4802,-0.030,0.225
4803,-0.085,0.080
4804,-0.095,0.010
4805,-0.100,-0.005
4806,-0.110,-0.015
4807,-0.105,-0.040
4808,-0.105,-0.045
4809,-0.105,-0.035
4810,-0.100,-0.030
4811,-0.100,-0.025
4812,-0.095,-0.020
4813,-0.095,-0.015
4814,-0.095,-0.010
4815,-0.100,-0.010
4816,-0.105,-0.015
4817,-0.105,-0.015
4818,-0.100,-0.020
4819,-0.095,-0.015
4820,-0.085,0.000
4821,-0.085,0.000
4822,-0.085,0.000
4823,-0.090,0.000
4824,-0.095,0.000
4825,-0.090,0.000
4826,-0.090,0.005
4827,-0.095,0.005
4828,-0.105,0.000
4829,-0.105,-0.010
4830,-0.100,-0.015
4831,-0.100,-0.020
4832,-0.110,-0.020
4833,-0.120,-0.020
4834,-0.130,-0.020
4835,-0.135,-0.025
4836,-0.140,-0.025
4837,-0.145,-0.030
4838,-0.150,-0.055
4839,-0.155,-0.070
4840,-0.155,-0.065
4841,-0.150,-0.050
4842,-0.135,-0.035
4843,-0.115,-0.030
4844,-0.095,-0.025
4845,-0.090,-0.015
4846,-0.095,-0.015
4847,-0.090,-0.010
4848,-0.085,0.000
4849,-0.080,0.000
4850,-0.075,0.005
4851,-0.075,0.010
4852,-0.075,0.005
4853,-0.075,0.000
4854,-0.070,0.000
4855,-0.060,0.000
4856,-0.060,0.005
4857,-0.060,0.010
4858,-0.060,0.015
4859,-0.060,0.005
4860,-0.060,0.000
4861,-0.060,-0.015
4862,-0.065,-0.010
4863,-0.060,0.000
4864,-0.060,0.020
4865,-0.055,0.035
4866,-0.050,0.035
4867,-0.050,0.030
4868,-0.050,0.035
4869,-0.050,0.045
4870,-0.050,0.045
4871,-0.050,0.025
4872,-0.050,0.000
4873,-0.055,-0.010
4874,-0.060,-0.005
4875,-0.065,-0.010
4876,-0.080,-0.040
4877,-0.085,-0.080
4878,-0.085,-0.115
4879,-0.085,-0.130
4880,-0.090,-0.135
4881,-0.095,-0.125
4882,-0.095,-0.115
4883,-0.095,-0.110
4884,-0.100,-0.115
4885,-0.095,-0.120
4886,-0.045,-0.080
4887,0.095,0.045
4888,0.320,0.285
4889,0.500,0.540
4890,0.485,0.670
4891,0.305,0.610
4892,0.085,0.405
4893,-0.045,0.180
4894,-0.090,0.040
4895,-0.085,-0.005
4896,-0.080,-0.030
4897,-0.090,-0.050
4898,-0.090,-0.065
4899,-0.085,-0.070
4900,-0.080,-0.065
4901,-0.080,-0.060
4902,-0.080,-0.050
4903,-0.080,-0.050
4904,-0.075,-0.045
4905,-0.070,-0.035
4906,-0.065,-0.025
4907,-0.065,-0.015
4908,-0.055,-0.015
4909,-0.055,-0.020
4910,-0.065,-0.025
4911,-0.070,-0.020
4912,-0.065,-0.010
4913,-0.065,-0.010
4914,-0.065,-0.015
4915,-0.055,-0.010
4916,-0.055,-0.005
4917,-0.055,-0.005
4918,-0.060,0.000
4919,-0.065,0.000
4920,-0.070,0.000
4921,-0.070,-0.010
4922,-0.075,-0.020
4923,-0.085,-0.025
4924,-0.100,-0.025
4925,-0.110,-0.020
4926,-0.115,-0.020
4927,-0.115,-0.025
4928,-0.115,-0.025
4929,-0.115,-0.030
4930,-0.120,-0.035
4931,-0.130,-0.040
4932,-0.125,-0.035
4933,-0.115,-0.025
4934,-0.100,-0.010
4935,-0.090,0.000
4936,-0.080,0.000
4937,-0.075,0.000
4938,-0.070,0.005
4939,-0.055,0.020
4940,-0.045,0.035
4941,-0.035,0.045
4942,-0.030,0.045
4943,-0.030,0.045
4944,-0.025,0.045
4945,-0.020,0.045
4946,-0.020,0.045
4947,-0.020,0.045
4948,-0.015,0.055
4949,-0.005,0.055
4950,-0.005,0.055
4951,-0.010,0.050
4952,-0.020,0.050
4953,-0.025,0.045
4954,-0.025,0.045
4955,-0.020,0.060
4956,-0.015,0.080
4957,0.000,0.095
4958,0.000,0.110
4959,-0.005,0.125
4960,-0.005,0.130
4961,-0.005,0.135
4962,-0.010,0.125
4963,-0.010,0.110
4964,-0.015,0.080
4965,-0.015,0.055
4966,-0.025,0.050
4967,-0.035,0.040
4968,-0.040,0.025
4969,-0.040,0.005
4970,-0.040,-0.015
4971,-0.045,-0.030
4972,-0.055,-0.030
4973,-0.065,-0.030
4974,-0.060,-0.025
4975,-0.060,-0.020
4976,-0.060,-0.025
4977,-0.050,-0.025
4978,-0.010,0.015
4979,0.125,0.170
4980,0.350,0.435
4981,0.520,0.680
4982,0.480,0.755
4983,0.275,0.635
4984,0.065,0.405
4985,-0.040,0.195
4986,-0.065,0.080
4987,-0.055,0.030
4988,-0.055,0.010
4989,-0.055,0.010
4990,-0.065,0.005
4991,-0.070,0.005
4992,-0.070,0.005
4993,-0.060,0.005
4994,-0.060,0.005
4995,-0.060,0.015
4996,-0.060,0.020
4997,-0.065,0.025
4998,-0.070,0.025
4999,-0.070,0.030
5000,-0.065,0.040
5001,-0.050,0.045
5002,-0.045,0.045
5003,-0.045,0.045
5004,-0.045,0.040
5005,-0.045,0.040
5006,-0.050,0.040
5007,-0.060,0.045
5008,-0.065,0.050
5009,-0.065,0.045
5010,-0.055,0.040
5011,-0.055,0.035
5012,-0.055,0.035
5013,-0.065,0.035
5014,-0.075,0.030
5015,-0.085,0.025
5016,-0.095,0.020
5017,-0.105,0.015
5018,-0.110,0.010
5019,-0.110,0.005
5020,-0.115,0.000
5021,-0.120,0.000
5022,-0.120,0.000
5023,-0.115,0.000
5024,-0.110,0.005
5025,-0.100,0.015
5026,-0.085,0.025
5027,-0.070,0.035
5028,-0.065,0.030
5029,-0.055,0.030
5030,-0.040,0.045
5031,-0.035,0.055
5032,-0.035,0.055
5033,-0.030,0.060
5034,-0.030,0.070
5035,-0.030,0.075
5036,-0.030,0.070
5037,-0.030,0.065
5038,-0.020,0.075
5039,-0.010,0.085
5040,-0.010,0.085
5041,-0.015,0.065
5042,-0.020,0.055
5043,-0.025,0.050
5044,-0.030,0.050
5045,-0.030,0.055
5046,-0.030,0.055
5047,-0.030,0.065
5048,-0.025,0.085
5049,-0.015,0.105
5050,-0.015,0.115
5051,-0.010,0.120
5052,-0.005,0.125
5053,-0.005,0.130
5054,-0.010,0.125
5055,-0.020,0.095
5056,-0.030,0.060
5057,-0.035,0.035
5058,-0.040,0.025
5059,-0.040,0.020
5060,-0.040,0.005
5061,-0.045,-0.015
5062,-0.060,-0.045
5063,-0.075,-0.065
5064,-0.075,-0.070
5065,-0.070,-0.065
5066,-0.065,-0.055
5067,-0.060,-0.050
5068,-0.060,-0.050
5069,-0.065,-0.060
5070,-0.020,0.000
5071,0.125,0.160
5072,0.365,0.430
5073,0.530,0.675
5074,0.465,0.735
5075,0.240,0.600
5076,0.035,0.355
5077,-0.065,0.150
5078,-0.070,0.045
5079,-0.055,0.010
5080,-0.055,0.000
5081,-0.070,-0.010
5082,-0.080,-0.020
5083,-0.070,-0.020
5084,-0.065,-0.010
5085,-0.065,-0.015
5086,-0.065,-0.025
5087,-0.065,-0.025
5088,-0.070,-0.015
5089,-0.070,-0.010
5090,-0.065,0.000
5091,-0.065,0.005
5092,-0.065,0.010
5093,-0.060,0.005
5094,-0.060,0.000
5095,-0.070,0.000
5096,-0.075,0.000
5097,-0.070,0.000
5098,-0.065,0.000
5099,-0.065,0.000
5100,-0.065,0.000
5101,-0.065,0.000
5102,-0.065,0.010
5103,-0.065,0.010
5104,-0.075,0.005
5105,-0.080,0.000
5106,-0.090,-0.010
5107,-0.100,-0.015
5108,-0.110,-0.020
5109,-0.110,-0.030
5110,-0.110,-0.040
5111,-0.120,-0.060
5112,-0.125,-0.060
5113,-0.135,-0.060
5114,-0.145,-0.060
5115,-0.140,-0.055
5116,-0.125,-0.045
5117,-0.110,-0.045
5118,-0.100,-0.045
5119,-0.095,-0.040
5120,-0.095,-0.030
5121,-0.090,-0.025
5122,-0.085,-0.020
5123,-0.075,-0.010
5124,-0.065,0.000
5125,-0.055,0.000
5126,-0.050,0.000
5127,-0.050,0.000
5128,-0.045,0.000
5129,-0.045,0.000
5130,-0.045,0.000
5131,-0.045,0.000
5132,-0.045,0.000
5133,-0.045,-0.005
5134,-0.045,-0.015
5135,-0.050,-0.020
5136,-0.055,-0.020
5137,-0.055,-0.020
5138,-0.055,-0.010
5139,-0.050,0.000
5140,-0.045,0.010
5141,-0.040,0.020
5142,-0.040,0.020
5143,-0.040,0.025
5144,-0.040,0.035
5145,-0.040,0.045
5146,-0.040,0.035
5147,-0.045,0.005
5148,-0.055,-0.015
5149,-0.065,-0.030
5150,-0.070,-0.040
5151,-0.070,-0.060
5152,-0.075,-0.080
5153,-0.080,-0.115
5154,-0.090,-0.145
5155,-0.095,-0.155
5156,-0.090,-0.150
5157,-0.090,-0.145
5158,-0.090,-0.145
5159,-0.105,-0.150
5160,-0.105,-0.150
5161,-0.085,-0.125
5162,0.010,-0.020
5163,0.230,0.180
5164,0.470,0.465
5165,0.530,0.645
5166,0.375,0.625
5167,0.145,0.425
5168,-0.015,0.180
5169,-0.080,0.020
5170,-0.090,-0.045
5171,-0.095,-0.080
5172,-0.095,-0.095
5173,-0.100,-0.095
5174,-0.095,-0.095
5175,-0.095,-0.105
5176,-0.095,-0.105
5177,-0.100,-0.100
5178,-0.095,-0.100
5179,-0.090,-0.100
5180,-0.090,-0.095
5181,-0.085,-0.085
5182,-0.080,-0.070
5183,-0.080,-0.050
5184,-0.080,-0.040
5185,-0.075,-0.035
5186,-0.075,-0.050
5187,-0.070,-0.060
5188,-0.070,-0.060
5189,-0.075,-0.060
5190,-0.080,-0.060
5191,-0.075,-0.065
5192,-0.070,-0.060
5193,-0.070,-0.055
5194,-0.070,-0.050
5195,-0.080,-0.045
5196,-0.090,-0.045
5197,-0.095,-0.060
5198,-0.100,-0.065
5199,-0.105,-0.070
5200,-0.110,-0.080
5201,-0.125,-0.080
5202,-0.130,-0.080
5203,-0.130,-0.080
5204,-0.135,-0.085
5205,-0.135,-0.085
5206,-0.135,-0.085
5207,-0.125,-0.080
5208,-0.125,-0.080
5209,-0.120,-0.065
5210,-0.105,-0.055
5211,-0.080,-0.045
5212,-0.070,-0.040
5213,-0.065,-0.030
5214,-0.060,-0.015
5215,-0.050,-0.010
5216,-0.045,-0.010
5217,-0.040,0.000
5218,-0.035,0.000
5219,-0.030,0.010
5220,-0.030,0.015
5221,-0.025,0.010
5222,-0.020,0.005
5223,-0.020,0.005
5224,-0.020,0.005
5225,-0.025,0.000
5226,-0.030,0.000
5227,-0.035,0.005
5228,-0.030,0.005
5229,-0.025,0.000
5230,-0.020,0.005
5231,-0.020,0.020
5232,-0.025,0.045
5233,-0.025,0.065
5234,-0.020,0.075
5235,-0.020,0.080
5236,-0.020,0.085
5237,-0.020,0.090
5238,-0.020,0.080
5239,-0.020,0.055
5240,-0.025,0.035
5241,-0.040,0.020
5242,-0.045,0.005
5243,-0.045,0.000
5244,-0.050,0.000
5245,-0.060,-0.015
5246,-0.070,-0.045
5247,-0.070,-0.070
5248,-0.070,-0.080
5249,-0.065,-0.080
5250,-0.060,-0.075
5251,-0.060,-0.070
5252,-0.065,-0.080
5253,-0.070,-0.075
5254,0.000,0.005
5255,0.185,0.205
5256,0.425,0.480
5257,0.525,0.680
5258,0.400,0.690
5259,0.185,0.530
5260,0.020,0.305
5261,-0.050,0.130
5262,-0.065,0.040
5263,-0.065,0.005
5264,-0.065,0.000
5265,-0.070,-0.005
5266,-0.070,-0.005
5267,-0.070,-0.005
5268,-0.070,-0.005
5269,-0.070,-0.005
5270,-0.070,-0.005
5271,-0.065,0.000
5272,-0.060,0.000
5273,-0.055,0.005
5274,-0.055,0.010
5275,-0.055,0.020
5276,-0.055,0.030
5277,-0.055,0.035
5278,-0.055,0.030
5279,-0.055,0.025
5280,-0.055,0.025
5281,-0.055,0.025
5282,-0.060,0.020
5283,-0.055,0.020
5284,-0.055,0.030
5285,-0.055,0.030
5286,-0.055,0.030
5287,-0.060,0.035
5288,-0.065,0.030
5289,-0.075,0.025
5290,-0.080,0.010
5291,-0.080,0.005
5292,-0.090,0.000
5293,-0.095,0.000
5294,-0.105,0.000
5295,-0.110,0.000
5296,-0.115,-0.010
5297,-0.115,-0.015
5298,-0.120,-0.015
5299,-0.125,-0.010
5300,-0.120,0.000
5301,-0.105,0.000
5302,-0.090,0.010
5303,-0.075,0.020
5304,-0.070,0.025
5305,-0.065,0.025
5306,-0.055,0.035
5307,-0.045,0.040
5308,-0.035,0.045
5309,-0.030,0.045
5310,-0.030,0.045
5311,-0.030,0.050
5312,-0.030,0.065
5313,-0.025,0.070
5314,-0.020,0.065
5315,-0.020,0.065
5316,-0.020,0.065
5317,-0.030,0.065
5318,-0.030,0.060
5319,-0.030,0.055
5320,-0.035,0.045
5321,-0.035,0.045
5322,-0.035,0.050
5323,-0.025,0.060
5324,-0.015,0.080
5325,-0.010,0.100
5326,-0.015,0.115
5327,-0.010,0.120
5328,-0.010,0.120
5329,-0.015,0.120
5330,-0.020,0.115
5331,-0.030,0.105
5332,-0.035,0.070
5333,-0.040,0.040
5334,-0.040,0.025
5335,-0.040,0.020
5336,-0.045,0.010
5337,-0.050,-0.005
5338,-0.055,-0.040
5339,-0.060,-0.060
5340,-0.065,-0.065
5341,-0.065,-0.065
5342,-0.065,-0.065
5343,-0.060,-0.065
5344,-0.075,-0.070
5345,-0.080,-0.070
5346,-0.025,-0.015
5347,0.120,0.145
5348,0.345,0.405
5349,0.495,0.635
5350,0.445,0.705
5351,0.250,0.585
5352,0.060,0.365
5353,-0.040,0.170
5354,-0.070,0.055
5355,-0.065,0.010
5356,-0.060,0.000
5357,-0.060,-0.005
5358,-0.065,-0.010
5359,-0.070,-0.020
5360,-0.075,-0.025
5361,-0.070,-0.025
5362,-0.070,-0.020
5363,-0.065,-0.015
5364,-0.060,-0.005
5365,-0.050,0.000
5366,-0.050,0.000
5367,-0.055,0.000
5368,-0.060,0.000
5369,-0.060,0.000
5370,-0.055,0.000
5371,-0.050,0.000
5372,-0.045,0.000
5373,-0.045,0.000
5374,-0.045,0.005
5375,-0.050,0.000
5376,-0.055,0.000
5377,-0.055,0.000
5378,-0.050,0.000
5379,-0.050,0.000
5380,-0.055,0.000
5381,-0.065,-0.010
5382,-0.070,-0.015
5383,-0.080,-0.020
5384,-0.090,-0.020
5385,-0.100,-0.035
5386,-0.110,-0.045
5387,-0.115,-0.050
5388,-0.115,-0.055
5389,-0.120,-0.060
5390,-0.125,-0.065
5391,-0.115,-0.055
5392,-0.105,-0.045
5393,-0.095,-0.030
5394,-0.075,-0.020
5395,-0.060,-0.020
5396,-0.045,-0.020
5397,-0.035,-0.020
5398,-0.030,-0.010
5399,-0.030,0.000
5400,-0.030,0.005
5401,-0.025,0.000
5402,-0.025,0.000
5403,-0.020,0.005
5404,-0.020,0.010
5405,-0.015,0.015
5406,-0.015,0.020
5407,-0.015,0.015
5408,-0.015,0.010
5409,-0.010,0.005
5410,-0.010,0.000
5411,-0.010,0.000
5412,-0.010,0.000
5413,-0.015,0.000
5414,-0.020,0.000
5415,-0.020,0.005
5416,-0.020,0.030
5417,-0.015,0.045
5418,-0.010,0.045
5419,-0.005,0.045
5420,-0.005,0.045
5421,-0.005,0.050
5422,-0.010,0.045
5423,-0.020,0.030
5424,-0.025,0.010
5425,-0.030,-0.005
5426,-0.035,-0.020
5427,-0.040,-0.030
5428,-0.045,-0.045
5429,-0.045,-0.075
5430,-0.055,-0.110
5431,-0.060,-0.135
5432,-0.065,-0.135
5433,-0.060,-0.135
5434,-0.060,-0.135
5435,-0.065,-0.135
5436,-0.065,-0.140
5437,-0.055,-0.130
5438,0.000,-0.060
5439,0.150,0.100
5440,0.370,0.360
5441,0.510,0.595
5442,0.460,0.655
5443,0.270,0.510
5444,0.080,0.280
5445,-0.025,0.090
5446,-0.060,-0.005
5447,-0.065,-0.050
5448,-0.065,-0.070
5449,-0.070,-0.085
5450,-0.070,-0.100
5451,-0.065,-0.095
5452,-0.060,-0.095
5453,-0.065,-0.095
5454,-0.065,-0.090
5455,-0.060,-0.085
5456,-0.050,-0.075
5457,-0.045,-0.075
5458,-0.045,-0.085
5459,-0.045,-0.080
5460,-0.045,-0.070
5461,-0.045,-0.055
5462,-0.045,-0.055
5463,-0.045,-0.065
5464,-0.050,-0.075
5465,-0.045,-0.070
5466,-0.040,-0.070
5467,-0.040,-0.070
5468,-0.040,-0.070
5469,-0.040,-0.065
5470,-0.045,-0.070
5471,-0.050,-0.075
5472,-0.060,-0.075
5473,-0.070,-0.075
5474,-0.075,-0.085
5475,-0.080,-0.100
5476,-0.090,-0.115
5477,-0.095,-0.125
5478,-0.095,-0.120
5479,-0.105,-0.105
5480,-0.115,-0.110
5481,-0.120,-0.130
5482,-0.115,-0.140
5483,-0.115,-0.140
5484,-0.110,-0.125
5485,-0.095,-0.105
5486,-0.080,-0.095
5487,-0.070,-0.095
5488,-0.060,-0.085
5489,-0.050,-0.075
5490,-0.040,-0.070
5491,-0.040,-0.075
5492,-0.035,-0.075
5493,-0.035,-0.065
5494,-0.030,-0.050
5495,-0.020,-0.040
5496,-0.005,-0.040
5497,0.000,-0.040
5498,-0.005,-0.045
5499,-0.010,-0.045
5500,-0.015,-0.050
5501,-0.010,-0.055
5502,0.000,-0.055
5503,0.000,-0.055
5504,0.000,-0.055
5505,0.000,-0.045
5506,0.000,-0.030
5507,0.000,-0.010
5508,0.000,0.000
5509,0.000,0.005
5510,0.005,0.010
5511,0.010,0.015
5512,0.010,0.015
5513,0.010,0.020
5514,0.005,0.010
5515,0.000,-0.005
5516,-0.005,-0.025
5517,-0.010,-0.030
5518,-0.010,-0.045
5519,-0.015,-0.075
5520,-0.025,-0.105
5521,-0.030,-0.130
5522,-0.035,-0.145
5523,-0.035,-0.150
5524,-0.025,-0.135
5525,-0.025,-0.120
5526,-0.025,-0.120
5527,-0.035,-0.125
5528,-0.020,-0.120
5529,0.050,-0.055
5530,0.225,0.115
5531,0.445,0.360
5532,0.560,0.575
5533,0.470,0.635
5534,0.255,0.510
5535,0.070,0.295
5536,-0.015,0.095
5537,-0.030,-0.010
5538,-0.030,-0.050
5539,-0.030,-0.070
5540,-0.035,-0.085
5541,-0.030,-0.080
5542,-0.025,-0.060
5543,-0.025,-0.060
5544,-0.025,-0.075
5545,-0.025,-0.085
5546,-0.020,-0.080
5547,-0.020,-0.075
5548,-0.020,-0.065
5549,-0.015,-0.045
5550,-0.015,-0.030
5551,-0.015,-0.030
5552,-0.015,-0.035
5553,-0.020,-0.050
5554,-0.010,-0.050
5555,0.000,-0.035
5556,0.000,-0.025
5557,0.000,-0.025
5558,0.000,-0.025
5559,0.000,-0.030
5560,-0.005,-0.035
5561,-0.010,-0.040
5562,-0.015,-0.035
5563,-0.020,-0.025
5564,-0.020,-0.025
5565,-0.025,-0.030
5566,-0.035,-0.035
5567,-0.045,-0.035
5568,-0.060,-0.045
5569,-0.070,-0.050
5570,-0.065,-0.060
5571,-0.060,-0.065
5572,-0.060,-0.065
5573,-0.070,-0.060
5574,-0.065,-0.045
5575,-0.050,-0.035
5576,-0.040,-0.030
5577,-0.035,-0.025
5578,-0.030,-0.015
5579,-0.020,-0.005
5580,-0.010,0.000
5581,-0.005,0.000
5582,0.000,0.000
5583,0.000,0.010
5584,0.005,0.015
5585,0.015,0.015
5586,0.015,0.015
5587,0.015,0.015
5588,0.015,0.020
5589,0.015,0.030
5590,0.015,0.030
5591,0.020,0.035
5592,0.010,0.040
5593,0.010,0.035
5594,0.015,0.020
5595,0.020,0.015
5596,0.010,0.020
5597,0.005,0.025
5598,0.005,0.035
5599,0.010,0.050
5600,0.015,0.065
5601,0.020,0.080
5602,0.025,0.095
5603,0.025,0.105
5604,0.025,0.110
5605,0.025,0.105
5606,0.020,0.090
5607,0.010,0.070
5608,0.010,0.045
5609,0.010,0.025
5610,0.010,0.010
5611,0.005,0.000
5612,0.000,-0.015
5613,0.000,-0.040
5614,0.000,-0.060
5615,-0.005,-0.065
5616,-0.010,-0.060
5617,-0.010,-0.050
5618,-0.005,-0.045
5619,-0.005,-0.055
5620,-0.015,-0.055
5621,0.000,-0.015
5622,0.105,0.105
5623,0.320,0.330
5624,0.530,0.585
5625,0.560,0.710
5626,0.380,0.645
5627,0.155,0.435
5628,0.015,0.210
5629,-0.020,0.075
5630,-0.025,0.015
5631,-0.020,0.000
5632,-0.020,0.000
5633,-0.020,0.000
5634,-0.020,-0.005
5635,-0.025,-0.015
5636,-0.015,-0.010
5637,-0.005,-0.005
5638,0.000,0.000
5639,0.000,0.000
5640,-0.005,0.005
5641,0.000,0.010
5642,0.000,0.015
5643,0.000,0.020
5644,0.000,0.020
5645,0.000,0.020
5646,0.000,0.020
5647,0.000,0.020
5648,0.000,0.020
5649,-0.005,0.025
5650,-0.010,0.020
5651,-0.015,0.020
5652,-0.005,0.020
5653,0.000,0.020
5654,0.000,0.015
5655,-0.005,0.010
5656,-0.010,0.010
5657,-0.020,0.010
5658,-0.025,0.005
5659,-0.035,0.000
5660,-0.040,-0.005
5661,-0.045,-0.005
5662,-0.055,-0.005
5663,-0.060,-0.020
5664,-0.070,-0.020
5665,-0.070,-0.015
5666,-0.065,-0.010
5667,-0.060,-0.005
5668,-0.050,0.000
5669,-0.040,0.005
5670,-0.025,0.010
5671,-0.015,0.015
5672,-0.005,0.025
5673,0.000,0.030
5674,0.005,0.040
5675,0.005,0.045
5676,0.005,0.050
5677,0.010,0.065
5678,0.015,0.075
5679,0.015,0.085
5680,0.015,0.090
5681,0.020,0.080
5682,0.020,0.080
5683,0.025,0.080
5684,0.025,0.085
5685,0.025,0.085
5686,0.025,0.075
5687,0.025,0.075
5688,0.025,0.085
5689,0.025,0.090
5690,0.025,0.095
5691,0.025,0.105
5692,0.025,0.125
5693,0.025,0.140
5694,0.035,0.150
5695,0.045,0.160
5696,0.045,0.165
5697,0.040,0.165
5698,0.025,0.145
5699,0.020,0.115
5700,0.020,0.090
5701,0.020,0.085
5702,0.020,0.075
5703,0.015,0.055
5704,0.005,0.030
5705,0.000,0.010
5706,0.000,0.000
5707,0.000,-0.010
5708,0.000,-0.015
5709,0.000,-0.010
5710,0.000,0.000
5711,0.000,0.000
5712,-0.005,-0.010
5713,0.020,0.020
5714,0.155,0.165
5715,0.385,0.420
5716,0.575,0.680
5717,0.555,0.775
5718,0.345,0.665
5719,0.140,0.435
5720,0.030,0.225
5721,0.000,0.115
5722,0.000,0.070
5723,0.000,0.050
5724,0.000,0.030
5725,0.000,0.025
5726,0.000,0.030
5727,0.005,0.035
5728,0.000,0.035
5729,0.000,0.030
5730,0.000,0.035
5731,0.000,0.040
5732,0.000,0.045
5733,0.005,0.050
5734,0.005,0.050
5735,0.010,0.055
5736,0.005,0.060
5737,0.005,0.060
5738,0.005,0.065
5739,0.010,0.060
5740,0.010,0.060
5741,0.010,0.055
5742,0.010,0.055
5743,0.015,0.055
5744,0.010,0.060
5745,0.005,0.055
5746,0.005,0.050
5747,0.005,0.050
5748,0.000,0.045
5749,0.000,0.045
5750,-0.005,0.040
5751,-0.015,0.035
5752,-0.025,0.020
5753,-0.035,0.000
5754,-0.040,0.000
5755,-0.050,0.000
5756,-0.055,0.000
5757,-0.050,0.000
5758,-0.045,0.000
5759,-0.035,0.005
5760,-0.035,0.015
5761,-0.030,0.015
5762,-0.015,0.030
5763,0.000,0.040
5764,0.000,0.045
5765,0.005,0.060
5766,0.010,0.080
5767,0.015,0.090
5768,0.020,0.095
5769,0.020,0.095
5770,0.025,0.105
5771,0.020,0.110
5772,0.020,0.115
5773,0.025,0.110
5774,0.030,0.105
5775,0.030,0.110
5776,0.030,0.115
5777,0.025,0.120
5778,0.025,0.110
5779,0.025,0.100
5780,0.020,0.095
5781,0.020,0.095
5782,0.020,0.095
5783,0.020,0.110
5784,0.025,0.135
5785,0.030,0.160
5786,0.030,0.170
5787,0.035,0.170
5788,0.035,0.175
5789,0.035,0.180
5790,0.030,0.170
5791,0.030,0.140
5792,0.025,0.110
5793,0.020,0.090
5794,0.015,0.085
5795,0.010,0.080
5796,0.010,0.060
5797,0.005,0.030
5798,0.005,0.005
5799,0.000,0.000
5800,0.000,0.000
5801,0.000,0.000
5802,0.000,0.000
5803,0.000,0.000
5804,0.000,0.005
5805,0.000,0.010
5806,0.070,0.105
5807,0.260,0.325
5808,0.495,0.595
5809,0.570,0.765
5810,0.430,0.725
5811,0.205,0.540
5812,0.050,0.315
5813,-0.005,0.165
5814,-0.005,0.090
5815,0.000,0.060
5816,0.000,0.040
5817,-0.005,0.035
5818,-0.010,0.035
5819,-0.005,0.040
5820,0.000,0.035
5821,0.000,0.035
5822,0.000,0.040
5823,0.000,0.045
5824,0.000,0.050
5825,0.000,0.055
5826,0.000,0.070
5827,0.000,0.080
5828,0.005,0.065
5829,0.000,0.050
5830,0.000,0.045
5831,0.000,0.055
5832,0.000,0.050
5833,0.000,0.045
5834,0.000,0.040
5835,0.000,0.040
5836,-0.005,0.040
5837,0.000,0.050
5838,0.000,0.045
5839,0.000,0.035
5840,0.000,0.025
5841,-0.015,0.020
5842,-0.020,0.015
5843,-0.030,0.010
5844,-0.035,0.005
5845,-0.040,0.000
5846,-0.050,0.000
5847,-0.065,-0.015
5848,-0.070,-0.030
5849,-0.055,-0.020
5850,-0.050,-0.005
5851,-0.050,-0.005
5852,-0.050,-0.005
5853,-0.040,0.000
5854,-0.035,0.000
5855,-0.025,0.000
5856,-0.010,0.015
5857,0.000,0.020
5858,0.000,0.025
5859,0.005,0.030
5860,0.005,0.035
5861,0.005,0.035
5862,0.010,0.035
5863,0.010,0.045
5864,0.010,0.045
5865,0.010,0.035
5866,0.010,0.030
5867,0.010,0.035
5868,0.005,0.035
5869,0.005,0.030
5870,0.010,0.030
5871,0.005,0.030
5872,0.000,0.020
5873,0.000,0.015
5874,0.005,0.020
5875,0.010,0.035
5876,0.010,0.045
5877,0.010,0.055
5878,0.015,0.060
5879,0.015,0.075
5880,0.015,0.080
5881,0.015,0.090
5882,0.010,0.095
5883,0.005,0.060
5884,0.000,0.020
5885,0.000,0.020
5886,0.000,0.015
5887,0.000,0.000
5888,-0.005,-0.020
5889,-0.010,-0.045
5890,-0.015,-0.065
5891,-0.025,-0.085
5892,-0.030,-0.090
5893,-0.025,-0.065
5894,-0.010,-0.065
5895,-0.010,-0.085
5896,-0.020,-0.100
5897,-0.010,-0.080
5898,0.070,0.005
5899,0.265,0.205
5900,0.495,0.460
5901,0.570,0.640
5902,0.445,0.645
5903,0.235,0.490
5904,0.060,0.265
5905,-0.010,0.090
5906,-0.025,0.005
5907,-0.020,-0.015
5908,-0.020,-0.025
5909,-0.025,-0.025
5910,-0.020,-0.025
5911,-0.015,-0.035
5912,-0.015,-0.050
5913,-0.020,-0.060
5914,-0.020,-0.065
5915,-0.015,-0.060
5916,-0.015,-0.050
5917,-0.010,-0.035
5918,-0.005,-0.030
5919,0.000,-0.030
5920,0.000,-0.025
5921,0.000,-0.025
5922,0.000,-0.025
5923,0.000,-0.035
5924,0.000,-0.040
5925,0.000,-0.035
5926,0.000,-0.035
5927,0.000,-0.035
5928,0.000,-0.030
5929,-0.010,-0.030
5930,-0.005,-0.030
5931,-0.005,-0.030
5932,-0.005,-0.030
5933,-0.005,-0.030
5934,-0.015,-0.045
5935,-0.025,-0.060
5936,-0.030,-0.070
5937,-0.035,-0.075
5938,-0.040,-0.075
5939,-0.045,-0.080
5940,-0.055,-0.085
5941,-0.060,-0.085
5942,-0.065,-0.080
5943,-0.065,-0.080
5944,-0.055,-0.075
5945,-0.040,-0.065
5946,-0.025,-0.050
5947,-0.015,-0.035
5948,-0.010,-0.025
5949,-0.005,-0.025
5950,0.000,-0.020
5951,0.005,-0.010
5952,0.015,-0.005
5953,0.020,-0.005
5954,0.025,0.000
5955,0.025,0.005
5956,0.025,0.010
5957,0.025,0.010
5958,0.025,0.005
5959,0.025,0.005
5960,0.025,0.005
5961,0.020,0.010
5962,0.020,0.005
5963,0.020,0.000
5964,0.020,0.000
5965,0.020,0.000
5966,0.020,0.000
5967,0.015,0.000
5968,0.015,0.005
5969,0.015,0.025
5970,0.020,0.045
5971,0.030,0.060
5972,0.040,0.065
5973,0.045,0.065
5974,0.040,0.065
5975,0.030,0.060
5976,0.020,0.045
5977,0.015,0.020
5978,0.015,0.005
5979,0.015,0.000
5980,0.015,-0.015
5981,0.005,-0.045
5982,0.000,-0.075
5983,0.000,-0.100
5984,0.000,-0.120
5985,0.000,-0.120
5986,0.000,-0.105
5987,0.000,-0.090
5988,0.000,-0.090
5989,-0.010,-0.100
5990,-0.005,-0.095
5991,0.060,-0.015
5992,0.235,0.180
5993,0.455,0.445
5994,0.545,0.625
5995,0.440,0.620
5996,0.235,0.460
5997,0.070,0.250
5998,0.000,0.085
5999,-0.010,0.010
6000,-0.005,-0.010
6001,0.000,-0.020
6002,0.000,-0.030
6003,0.000,-0.050
6004,-0.005,-0.065
6005,0.000,-0.055
6006,0.000,-0.040
6007,0.000,-0.025
6008,0.000,-0.025
6009,0.000,-0.025
6010,0.000,-0.025
6011,0.000,-0.025
6012,0.000,-0.020
6013,0.000,-0.010
6014,0.000,-0.010
6015,0.000,-0.010
6016,0.005,-0.015
6017,0.005,-0.015
6018,0.005,-0.015
6019,0.000,-0.020
6020,0.000,-0.025
6021,0.000,-0.020
6022,0.000,-0.015
6023,0.000,-0.015
6024,0.000,-0.020
6025,0.000,-0.015
6026,-0.005,-0.015
6027,-0.015,-0.020
6028,-0.025,-0.025
6029,-0.040,-0.025
6030,-0.050,-0.040
6031,-0.055,-0.050
6032,-0.055,-0.060
6033,-0.060,-0.050
6034,-0.060,-0.040
6035,-0.060,-0.045
6036,-0.055,-0.050
6037,-0.045,-0.035
6038,-0.040,-0.020
6039,-0.030,0.000
6040,-0.025,0.005
6041,-0.010,0.010
6042,0.000,0.015
6043,0.000,0.020
6044,0.005,0.020
6045,0.005,0.035
6046,0.010,0.050
6047,0.015,0.060
6048,0.010,0.060
6049,0.010,0.065
6050,0.010,0.065
6051,0.015,0.060
6052,0.020,0.055
6053,0.015,0.055
6054,0.010,0.060
6055,0.010,0.055
6056,0.010,0.055
6057,0.010,0.050
6058,0.010,0.050
6059,0.010,0.050
6060,0.010,0.050
6061,0.010,0.070
6062,0.010,0.105
6063,0.010,0.125
6064,0.010,0.135
6065,0.015,0.145
6066,0.020,0.160
6067,0.025,0.165
6068,0.020,0.150
6069,0.010,0.125
6070,0.010,0.095
6071,0.005,0.075
6072,0.000,0.060
6073,0.000,0.050
6074,-0.005,0.030
6075,-0.015,0.005
6076,-0.020,-0.005
6077,-0.025,-0.015
6078,-0.025,-0.020
6079,-0.020,-0.015
6080,-0.015,-0.010
6081,-0.020,-0.005
6082,-0.030,0.000
6083,-0.010,0.025
6084,0.080,0.125
6085,0.265,0.335
6086,0.460,0.595
6087,0.510,0.745
6088,0.360,0.695
6089,0.155,0.505
6090,0.015,0.295
6091,-0.030,0.155
6092,-0.035,0.090
6093,-0.035,0.060
6094,-0.035,0.045
6095,-0.030,0.040
6096,-0.030,0.025
6097,-0.035,0.010
6098,-0.030,0.020
6099,-0.030,0.035
6100,-0.030,0.045
6101,-0.030,0.065
6102,-0.030,0.075
6103,-0.030,0.080
6104,-0.035,0.070
6105,-0.035,0.065
6106,-0.035,0.065
6107,-0.035,0.070
6108,-0.035,0.065
6109,-0.035,0.055
6110,-0.030,0.055
6111,-0.025,0.055
6112,-0.025,0.050
6113,-0.030,0.045
6114,-0.030,0.045
6115,-0.025,0.050
6116,-0.025,0.055
6117,-0.035,0.060
6118,-0.040,0.050
6119,-0.045,0.040
6120,-0.055,0.030
6121,-0.070,0.030
6122,-0.080,0.030
6123,-0.085,0.025
6124,-0.090,0.020
6125,-0.095,0.010
6126,-0.095,0.010
6127,-0.100,0.010
6128,-0.100,0.020
6129,-0.095,0.030
6130,-0.085,0.030
6131,-0.075,0.040
6132,-0.065,0.045
6133,-0.050,0.060
6134,-0.040,0.080
6135,-0.035,0.095
6136,-0.020,0.100
6137,-0.020,0.105
6138,-0.020,0.115
6139,-0.015,0.125
6140,-0.010,0.130
6141,-0.005,0.130
6142,-0.005,0.135
6143,0.000,0.140
6144,0.000,0.150
6145,0.000,0.155
6146,0.000,0.160
6147,0.000,0.155
6148,0.000,0.145
6149,0.000,0.145
6150,0.000,0.145
6151,0.000,0.155
6152,0.000,0.165
6153,0.000,0.185
6154,0.005,0.205
6155,0.010,0.225
6156,0.015,0.245
6157,0.020,0.265
6158,0.020,0.280
6159,0.025,0.275
6160,0.025,0.255
6161,0.020,0.230
6162,0.015,0.210
6163,0.010,0.190
6164,0.010,0.185
6165,0.010,0.175
6166,0.005,0.160
6167,0.000,0.125
6168,0.000,0.090
6169,0.000,0.080
6170,0.000,0.095
6171,0.000,0.110
6172,0.000,0.105
6173,-0.005,0.105
6174,-0.005,0.100
6175,0.010,0.115
6176,0.095,0.210
6177,0.285,0.410
6178,0.500,0.660
6179,0.565,0.840
6180,0.415,0.835
6181,0.195,0.660
6182,0.035,0.430
6183,-0.010,0.270
6184,-0.005,0.215
6185,0.000,0.190
6186,0.000,0.165
6187,0.000,0.150
6188,0.000,0.150
6189,0.000,0.160
6190,0.005,0.165
6191,0.005,0.165
6192,0.000,0.170
6193,0.000,0.175
6194,0.000,0.185
6195,0.005,0.195
6196,0.010,0.210
6197,0.010,0.215
6198,0.010,0.220
6199,0.010,0.210
6200,0.010,0.200
6201,0.010,0.195
6202,0.010,0.190
6203,0.010,0.190
6204,0.005,0.190
6205,0.005,0.200
6206,0.005,0.210
6207,0.005,0.215
6208,0.005,0.210
6209,0.005,0.205
6210,0.000,0.195
6211,0.000,0.185
6212,-0.010,0.185
6213,-0.020,0.185
6214,-0.025,0.180
6215,-0.025,0.175
6216,-0.035,0.170
6217,-0.040,0.165
6218,-0.045,0.165
6219,-0.050,0.165
6220,-0.045,0.170
6221,-0.040,0.175
6222,-0.025,0.180
6223,-0.010,0.190
6224,-0.010,0.195
6225,-0.005,0.200
6226,0.000,0.210
6227,0.010,0.225
6228,0.010,0.245
6229,0.015,0.255
6230,0.015,0.255
6231,0.020,0.260
6232,0.025,0.255
6233,0.025,0.255
6234,0.025,0.255
6235,0.025,0.260
6236,0.025,0.265
6237,0.025,0.255
6238,0.030,0.255
6239,0.030,0.250
6240,0.030,0.250
6241,0.025,0.250
6242,0.025,0.255
6243,0.025,0.255
6244,0.025,0.250
6245,0.025,0.250
6246,0.025,0.260
6247,0.025,0.280
6248,0.030,0.305
6249,0.030,0.320
6250,0.040,0.325
6251,0.045,0.325
6252,0.055,0.325
6253,0.050,0.325
6254,0.035,0.310
6255,0.025,0.290
6256,0.025,0.265
6257,0.020,0.250
6258,0.020,0.245
6259,0.020,0.225
6260,0.015,0.200
6261,0.005,0.170
6262,0.000,0.160
6263,0.000,0.155
6264,0.005,0.150
6265,0.005,0.150
6266,0.000,0.145
6267,0.000,0.135
6268,0.000,0.130
6269,0.030,0.190
6270,0.170,0.350
6271,0.400,0.615
6272,0.575,0.860
6273,0.505,0.905
6274,0.290,0.760
6275,0.100,0.530
6276,0.010,0.340
6277,0.000,0.245
6278,0.000,0.210
6279,0.005,0.200
6280,0.005,0.190
6281,0.000,0.180
6282,0.000,0.170
6283,0.000,0.165
6284,0.000,0.170
6285,0.005,0.180
6286,0.005,0.185
6287,0.005,0.195
6288,0.005,0.205
6289,0.005,0.205
6290,0.010,0.205
6291,0.010,0.210
6292,0.010,0.225
6293,0.005,0.225
6294,0.005,0.215
6295,0.010,0.200
6296,0.010,0.195
6297,0.010,0.195
6298,0.010,0.200
6299,0.010,0.200
6300,0.010,0.200
6301,0.010,0.200
6302,0.010,0.200
6303,0.005,0.195
6304,0.000,0.195
6305,0.000,0.190
6306,0.000,0.180
6307,-0.005,0.170
6308,-0.010,0.165
6309,-0.020,0.160
6310,-0.030,0.155
6311,-0.035,0.155
6312,-0.035,0.165
6313,-0.035,0.170
6314,-0.030,0.170
6315,-0.025,0.175
6316,-0.010,0.180
6317,0.000,0.180
6318,0.000,0.180
6319,0.005,0.200
6320,0.015,0.215
6321,0.020,0.225
6322,0.025,0.235
6323,0.030,0.240
6324,0.030,0.245
6325,0.040,0.250
6326,0.045,0.255
6327,0.040,0.255
6328,0.040,0.260
6329,0.045,0.255
6330,0.040,0.245
6331,0.035,0.235
6332,0.035,0.230
6333,0.040,0.230
6334,0.035,0.230
6335,0.030,0.230
6336,0.030,0.230
6337,0.030,0.235
6338,0.035,0.240
6339,0.040,0.235
6340,0.035,0.235
6341,0.035,0.245
6342,0.035,0.260
6343,0.040,0.275
6344,0.050,0.290
6345,0.055,0.295
6346,0.045,0.275
6347,0.035,0.240
6348,0.035,0.215
6349,0.040,0.210
6350,0.040,0.200
6351,0.025,0.170
6352,0.020,0.135
6353,0.015,0.110
6354,0.005,0.090
6355,0.005,0.080
6356,0.005,0.070
6357,0.000,0.065
6358,0.000,0.065
6359,0.000,0.055
6360,-0.005,0.045
6361,-0.005,0.060
6362,0.070,0.145
6363,0.255,0.350
6364,0.485,0.620
6365,0.585,0.800
6366,0.470,0.795
6367,0.250,0.635
6368,0.080,0.410
6369,0.005,0.240
6370,0.000,0.155
6371,0.000,0.120
6372,0.000,0.100
6373,0.000,0.085
6374,0.000,0.075
6375,0.005,0.075
6376,0.000,0.075
6377,0.000,0.085
6378,0.000,0.100
6379,0.000,0.110
6380,0.000,0.110
6381,0.005,0.105
6382,0.005,0.105
6383,0.005,0.100
6384,0.005,0.095
6385,0.000,0.095
6386,0.000,0.090
6387,0.005,0.090
6388,0.010,0.090
6389,0.010,0.090
6390,0.010,0.075
6391,0.005,0.070
6392,0.005,0.075
6393,0.005,0.075
6394,0.000,0.070
6395,0.000,0.060
6396,0.000,0.045
6397,0.000,0.045
6398,-0.010,0.040
6399,-0.020,0.035
6400,-0.030,0.035
6401,-0.030,0.030
6402,-0.035,0.020
6403,-0.040,0.020
6404,-0.045,0.015
6405,-0.050,0.005
6406,-0.040,0.005
6407,-0.030,0.015
6408,-0.030,0.015
6409,-0.025,0.015
6410,-0.010,0.035
6411,-0.005,0.050
6412,0.000,0.060
6413,0.005,0.065
6414,0.010,0.065
6415,0.015,0.065
6416,0.020,0.070
6417,0.025,0.075
6418,0.025,0.085
6419,0.030,0.090
6420,0.025,0.090
6421,0.030,0.095
6422,0.035,0.100
6423,0.045,0.085
6424,0.045,0.060
6425,0.040,0.055
6426,0.035,0.060
6427,0.035,0.060
6428,0.030,0.060
6429,0.030,0.060
6430,0.030,0.075
6431,0.035,0.090
6432,0.040,0.110
6433,0.040,0.125
6434,0.050,0.140
6435,0.055,0.145
6436,0.060,0.150
6437,0.060,0.150
6438,0.055,0.145
6439,0.050,0.130
6440,0.030,0.105
6441,0.030,0.080
6442,0.040,0.060
6443,0.040,0.055
6444,0.035,0.040
6445,0.020,0.015
6446,0.015,-0.005
6447,0.010,-0.025
6448,0.010,-0.030
6449,0.015,-0.025
6450,0.015,-0.020
6451,0.015,-0.025
6452,0.010,-0.045
6453,0.025,-0.030
6454,0.115,0.050
6455,0.300,0.240
6456,0.510,0.500
6457,0.575,0.685
6458,0.445,0.695
6459,0.235,0.530
6460,0.075,0.300
6461,0.005,0.130
6462,0.000,0.050
6463,0.000,0.020
6464,0.000,0.005
6465,0.000,0.000
6466,0.000,-0.010
6467,0.005,-0.005
6468,0.000,-0.005
6469,0.000,0.000
6470,0.000,0.000
6471,0.005,0.000
6472,0.005,0.000
6473,0.005,0.005
6474,0.000,0.010
6475,0.000,0.010
6476,0.005,0.005
6477,0.005,0.000
6478,0.005,0.000
6479,0.005,0.000
6480,0.015,0.000
6481,0.010,-0.015
6482,0.010,-0.015
6483,0.010,0.000
6484,0.010,0.000
6485,0.010,0.000
6486,0.010,0.000
6487,0.005,0.000
6488,0.005,0.000
6489,0.005,-0.015
6490,0.000,-0.025
6491,0.000,-0.030
6492,-0.010,-0.040
6493,-0.020,-0.055
6494,-0.030,-0.060
6495,-0.035,-0.060
6496,-0.040,-0.050
6497,-0.045,-0.040
6498,-0.040,-0.025
6499,-0.035,-0.025
6500,-0.025,-0.030
6501,-0.010,-0.040
6502,-0.005,-0.030
6503,-0.010,-0.025
6504,-0.005,-0.010
6505,0.005,0.000
6506,0.015,0.005
6507,0.020,0.005
6508,0.020,0.010
6509,0.020,0.010
6510,0.020,0.005
6511,0.020,0.000
6512,0.025,0.000
6513,0.035,0.010
6514,0.035,0.005
6515,0.035,0.005
6516,0.030,0.005
6517,0.025,0.005
6518,0.025,0.010
6519,0.025,0.005
6520,0.025,0.000
6521,0.020,0.000
6522,0.015,0.000
6523,0.015,0.005
6524,0.020,0.015
6525,0.030,0.030
6526,0.040,0.045
6527,0.035,0.050
6528,0.030,0.060
6529,0.030,0.060
6530,0.035,0.070
6531,0.040,0.075
6532,0.030,0.050
6533,0.025,0.025
6534,0.025,0.015
6535,0.020,0.000
6536,0.010,-0.020
6537,0.005,-0.045
6538,0.005,-0.070
6539,0.005,-0.095
6540,0.005,-0.105
6541,0.005,-0.105
6542,0.005,-0.095
6543,0.000,-0.090
6544,0.000,-0.090
6545,0.000,-0.095
6546,0.020,-0.065
6547,0.120,0.040
6548,0.320,0.255
6549,0.510,0.495
6550,0.540,0.630
6551,0.385,0.585
6552,0.180,0.400
6553,0.040,0.190
6554,-0.005,0.055
6555,-0.005,0.005
6556,0.000,-0.010
6557,-0.005,-0.030
6558,0.000,-0.040
6559,0.000,-0.045
6560,0.000,-0.050
6561,0.000,-0.045
6562,0.000,-0.030
6563,0.005,-0.020
6564,0.000,-0.020
6565,0.000,-0.020
6566,0.000,-0.020
6567,0.000,-0.015
6568,0.000,0.000
6569,0.005,0.000
6570,0.010,0.000
6571,0.010,0.000
6572,0.010,-0.005
6573,0.010,-0.010
6574,0.010,-0.015
6575,0.010,-0.005
6576,0.010,-0.005
6577,0.010,-0.005
6578,0.010,-0.010
6579,0.010,-0.010
6580,0.005,-0.010
6581,0.000,-0.010
6582,0.000,-0.010
6583,0.000,-0.015
6584,-0.005,-0.030
6585,-0.015,-0.035
6586,-0.020,-0.040
6587,-0.025,-0.045
6588,-0.035,-0.055
6589,-0.050,-0.055
6590,-0.045,-0.045
6591,-0.035,-0.035
6592,-0.030,-0.035
6593,-0.020,-0.035
6594,-0.005,-0.030
6595,0.000,-0.015
6596,0.000,0.000
6597,0.005,0.000
6598,0.010,0.010
6599,0.020,0.015
6600,0.025,0.020
6601,0.025,0.025
6602,0.025,0.030
6603,0.035,0.040
6604,0.035,0.045
6605,0.030,0.040
6606,0.030,0.035
6607,0.030,0.030
6608,0.035,0.025
6609,0.035,0.020
6610,0.035,0.020
6611,0.030,0.020
6612,0.025,0.025
6613,0.025,0.025
6614,0.025,0.025
6615,0.025,0.030
6616,0.030,0.025
6617,0.025,0.030
6618,0.025,0.055
6619,0.025,0.080
6620,0.035,0.100
6621,0.045,0.110
6622,0.055,0.105
6623,0.055,0.095
6624,0.045,0.080
6625,0.030,0.055
6626,0.025,0.035
6627,0.025,0.025
6628,0.025,0.015
6629,0.020,0.005
6630,0.010,-0.020
6631,0.005,-0.045
6632,0.005,-0.065
6633,0.005,-0.070
6634,0.005,-0.070
6635,0.005,-0.075
6636,0.010,-0.070
6637,0.010,-0.070
6638,0.005,-0.070
6639,0.035,-0.030
6640,0.160,0.100
6641,0.365,0.345
6642,0.535,0.590
6643,0.525,0.680
6644,0.340,0.570
6645,0.140,0.355
6646,0.030,0.160
6647,0.005,0.050
6648,0.005,0.005
6649,0.010,-0.005
6650,0.005,-0.015
6651,0.005,-0.025
6652,0.000,-0.025
6653,0.000,-0.025
6654,0.000,-0.020
6655,0.005,-0.010
6656,0.005,-0.010
6657,0.005,-0.010
6658,0.005,-0.010
6659,0.005,-0.010
6660,0.010,0.000
6661,0.010,0.000
6662,0.010,-0.005
6663,0.010,-0.010
6664,0.015,-0.005
6665,0.020,-0.005
6666,0.015,-0.005
6667,0.010,-0.010
6668,0.010,-0.020
6669,0.015,-0.025
6670,0.010,-0.015
6671,0.010,-0.010
6672,0.010,-0.010
6673,0.010,-0.015
6674,0.005,-0.020
6675,0.000,-0.030
6676,0.000,-0.045
6677,-0.010,-0.055
6678,-0.015,-0.060
6679,-0.020,-0.065
6680,-0.030,-0.060
6681,-0.030,-0.065
6682,-0.030,-0.075
6683,-0.035,-0.070
6684,-0.035,-0.065
6685,-0.025,-0.065
6686,-0.015,-0.065
6687,-0.010,-0.060
6688,0.000,-0.050
6689,0.005,-0.030
6690,0.015,-0.010
6691,0.020,-0.005
6692,0.020,-0.005
6693,0.020,0.000
