'sample interval','ECG0','ECG1'
'0.0078125 sec','mV','mV'
0,0.340,0.005
1,0.265,-0.050
2,0.230,-0.110
3,0.215,-0.125
4,0.205,-0.220
5,0.215,-0.240
6,0.190,-0.190
7,0.180,-0.160
8,0.155,-0.210
9,0.160,-0.185
10,0.165,-0.255
11,0.165,-0.275
12,0.165,-0.220
13,0.175,-0.180
14,0.180,-0.180
15,0.215,-0.165
16,0.200,-0.175
17,0.170,-0.145
18,0.250,-0.170
19,0.285,-0.055
20,0.265,0.045
21,0.205,0.250
22,0.170,0.295
23,0.150,0.225
24,0.105,0.050
25,0.110,-0.145
26,0.110,-0.270
27,0.075,-0.390
28,0.070,-0.500
29,0.080,-0.465
30,0.080,-0.405
31,0.115,-0.495
32,0.055,-0.475
33,0.035,-0.485
34,0.010,-0.510
35,0.035,-0.460
36,0.035,-0.475
37,0.020,-0.455
38,0.150,-0.215
39,-0.135,-0.195
40,-1.475,0.235
41,-2.175,1.580
42,-2.385,0.615
43,-2.130,-0.290
44,-1.135,-0.390
45,-0.385,-0.995
46,0.090,-0.730
47,0.245,-0.420
48,0.290,-0.275
49,0.340,-0.310
50,0.355,-0.345
51,0.345,-0.370
52,0.340,-0.385
53,0.375,-0.335
54,0.400,-0.315
55,0.415,-0.255
56,0.420,-0.215
57,0.440,-0.195
58,0.515,-0.260
59,0.415,-0.280
60,0.435,-0.325
61,0.475,-0.340
62,0.495,-0.355
63,0.510,-0.300
64,0.525,-0.285
65,0.525,-0.315
66,0.520,-0.325
67,0.495,-0.340
68,0.480,-0.355
69,0.425,-0.340
70,0.395,-0.265
71,0.330,-0.215
72,0.260,-0.165
73,0.270,-0.165
74,0.270,-0.155
75,0.235,-0.185
76,0.225,-0.260
77,0.185,-0.325
78,0.215,-0.305
79,0.200,-0.305
80,0.190,-0.250
81,0.195,-0.205
82,0.180,-0.200
83,0.125,-0.215
84,0.165,-0.215
85,0.095,-0.360
86,0.120,-0.355
87,0.125,-0.345
88,0.115,-0.290
89,0.120,-0.245
90,0.150,-0.215
91,0.230,-0.180
92,0.245,-0.200
93,0.260,-0.140
94,0.215,0.015
95,0.185,0.040
96,0.090,0.075
97,0.035,0.090
98,0.030,-0.050
99,0.030,-0.190
100,0.045,-0.340
101,0.010,-0.460
102,0.000,-0.545
103,0.000,-0.545
104,-0.010,-0.530
105,0.000,-0.525
106,0.010,-0.420
107,0.020,-0.420
108,0.000,-0.365
109,0.000,-0.415
110,-0.005,-0.460
111,-0.055,-0.420
112,0.080,-0.280
113,-0.270,-0.380
114,-1.505,-0.180
115,-2.295,0.925
116,-2.540,0.600
117,-2.385,-0.415
118,-1.460,-0.480
119,-0.625,-0.940
120,-0.085,-0.875
121,0.210,-0.555
122,0.290,-0.300
123,0.290,-0.270
124,0.225,-0.220
125,0.260,-0.120
126,0.325,-0.165
127,0.310,-0.225
128,0.280,-0.215
129,0.285,-0.190
130,0.340,-0.175
131,0.330,-0.120
132,0.350,-0.090
133,0.405,-0.120
134,0.460,-0.100
135,0.475,-0.110
136,0.435,-0.170
137,0.370,-0.200
138,0.400,-0.195
139,0.415,-0.155
140,0.435,-0.120
141,0.395,-0.115
142,0.420,-0.090
143,0.365,-0.025
144,0.315,-0.030
145,0.295,-0.015
146,0.240,0.055
147,0.195,0.005
148,0.170,0.000
149,0.100,0.035
150,0.070,0.060
151,0.080,0.060
152,0.085,0.015
153,0.090,-0.040
154,0.045,-0.075
155,0.045,-0.090
156,0.045,-0.115
157,0.070,-0.105
158,0.040,-0.055
159,0.035,-0.055
160,0.105,-0.085
161,0.180,-0.085
162,0.045,-0.080
163,0.020,-0.205
164,0.030,-0.200
165,0.070,-0.140
166,0.155,-0.120
167,0.165,-0.070
168,0.190,0.095
169,0.155,0.160
170,0.140,0.305
171,0.025,0.300
172,-0.015,0.200
173,-0.015,0.105
174,0.020,0.035
175,0.030,-0.135
176,-0.035,-0.290
177,-0.035,-0.345
178,-0.060,-0.325
179,-0.070,-0.275
180,-0.055,-0.320
181,-0.045,-0.375
182,-0.045,-0.350
183,-0.025,-0.360
184,-0.015,-0.305
185,-0.045,-0.245
186,0.000,-0.240
187,-0.040,-0.185
188,0.025,-0.030
189,-0.985,-0.240
190,-2.120,0.275
191,-2.500,1.115
192,-2.630,-0.010
193,-2.355,-0.620
194,-1.240,-0.540
195,-0.380,-0.710
196,0.120,-0.455
197,0.275,-0.280
198,0.230,-0.140
199,0.250,-0.120
200,0.310,-0.070
201,0.325,-0.095
202,0.295,-0.070
203,0.295,-0.010
204,0.310,0.035
205,0.345,0.050
206,0.375,0.060
207,0.400,0.035
208,0.405,-0.005
209,0.460,-0.010
210,0.435,0.000
211,0.430,0.000
212,0.500,0.050
213,0.555,0.020
214,0.490,0.040
215,0.465,0.115
216,0.520,0.025
217,0.455,-0.030
218,0.460,-0.020
219,0.435,0.015
220,0.375,0.070
221,0.315,0.175
222,0.285,0.215
223,0.265,0.250
224,0.235,0.275
225,0.175,0.155
226,0.160,0.040
227,0.145,0.030
228,0.150,0.010
229,0.070,0.015
230,0.100,0.065
231,0.095,0.040
232,0.120,0.005
233,0.130,-0.030
234,0.135,-0.020
235,0.075,-0.075
236,0.045,-0.105
237,0.075,-0.120
238,0.145,-0.155
239,0.110,-0.145
240,0.075,-0.075
241,0.125,-0.060
242,0.190,-0.030
243,0.205,-0.005
244,0.170,-0.040
245,0.215,0.065
246,0.180,0.225
247,0.120,0.305
248,0.065,0.340
249,0.030,0.255
250,0.040,0.140
251,0.040,0.020
252,0.035,-0.180
253,0.030,-0.355
254,0.000,-0.410
255,-0.030,-0.415
256,-0.010,-0.425
257,-0.060,-0.385
258,-0.040,-0.300
259,0.000,-0.255
260,0.000,-0.235
261,-0.035,-0.305
262,-0.040,-0.360
263,-0.035,-0.385
264,0.065,-0.230
265,-0.505,-0.300
266,-1.830,0.070
267,-2.470,1.050
268,-2.640,0.075
269,-2.540,-0.805
270,-1.635,-0.490
271,-0.580,-0.855
272,0.005,-0.735
273,0.150,-0.485
274,0.205,-0.295
275,0.215,-0.260
276,0.260,-0.235
277,0.305,-0.205
278,0.305,-0.150
279,0.320,-0.230
280,0.320,-0.335
281,0.360,-0.295
282,0.345,-0.300
283,0.350,-0.270
284,0.370,-0.185
285,0.425,-0.235
286,0.410,-0.220
287,0.440,-0.285
288,0.460,-0.335
289,0.435,-0.350
290,0.465,-0.310
291,0.480,-0.365
292,0.485,-0.330
293,0.475,-0.255
294,0.480,-0.220
295,0.460,-0.290
296,0.415,-0.185
297,0.345,-0.290
298,0.270,-0.245
299,0.265,-0.220
300,0.245,-0.215
301,0.220,-0.145
302,0.220,-0.175
303,0.125,-0.240
304,0.125,-0.325
305,0.130,-0.325
306,0.125,-0.295
307,0.125,-0.335
308,0.130,-0.390
309,0.130,-0.325
310,0.130,-0.320
311,0.120,-0.320
312,0.115,-0.335
313,0.115,-0.315
314,0.100,-0.370
315,0.115,-0.395
316,0.130,-0.400
317,0.100,-0.305
318,0.115,-0.290
319,0.190,-0.215
320,0.260,-0.210
321,0.265,-0.120
322,0.200,0.010
323,0.110,0.000
324,0.115,-0.010
325,0.040,-0.080
326,0.070,-0.160
327,0.060,-0.320
328,0.070,-0.440
329,0.075,-0.530
330,0.000,-0.680
331,-0.010,-0.675
332,0.005,-0.655
333,0.020,-0.665
334,0.065,-0.650
335,0.030,-0.565
336,0.035,-0.580
337,0.060,-0.575
338,0.040,-0.555
339,0.090,-0.505
340,0.085,-0.390
341,-0.995,-0.345
342,-2.000,0.760
343,-2.355,1.355
344,-2.290,-0.225
345,-1.845,-0.345
346,-0.745,-0.840
347,-0.150,-1.055
348,0.220,-0.755
349,0.300,-0.580
350,0.385,-0.540
351,0.290,-0.530
352,0.310,-0.470
353,0.330,-0.410
354,0.350,-0.400
355,0.375,-0.405
356,0.415,-0.445
357,0.435,-0.435
358,0.435,-0.420
359,0.440,-0.445
360,0.405,-0.495
361,0.460,-0.420
362,0.500,-0.405
363,0.505,-0.460
364,0.560,-0.470
365,0.605,-0.505
366,0.460,-0.540
367,0.415,-0.515
368,0.420,-0.535
369,0.410,-0.470
370,0.440,-0.370
371,0.345,-0.330
372,0.325,-0.355
373,0.285,-0.345
374,0.240,-0.340
375,0.195,-0.335
376,0.190,-0.320
377,0.210,-0.330
378,0.225,-0.255
379,0.190,-0.305
380,0.115,-0.340
381,0.115,-0.315
382,0.135,-0.335
383,0.135,-0.415
384,0.145,-0.370
385,0.175,-0.285
386,0.090,-0.335
387,0.130,-0.375
388,0.145,-0.360
389,0.105,-0.370
390,0.155,-0.395
391,0.155,-0.400
392,0.170,-0.385
393,0.180,-0.385
394,0.220,-0.260
395,0.210,-0.065
396,0.150,0.075
397,0.080,0.075
398,0.045,-0.010
399,0.020,-0.235
400,0.035,-0.345
401,0.040,-0.455
402,-0.030,-0.655
403,-0.065,-0.660
404,0.000,-0.630
405,0.005,-0.580
406,-0.015,-0.590
407,-0.045,-0.625
408,-0.030,-0.640
409,-0.045,-0.620
410,-0.060,-0.545
411,-0.040,-0.480
412,0.000,-0.425
413,0.040,-0.370
414,-1.010,-0.480
415,-2.050,0.215
416,-2.485,0.945
417,-2.530,-0.420
418,-1.980,-0.555
419,-0.850,-0.935
420,-0.220,-0.950
421,0.220,-0.625
422,0.280,-0.355
423,0.265,-0.320
424,0.265,-0.310
425,0.290,-0.265
426,0.340,-0.250
427,0.390,-0.245
428,0.375,-0.125
429,0.375,-0.140
430,0.360,-0.145
431,0.390,-0.125
432,0.430,-0.110
433,0.455,-0.130
434,0.445,-0.165
435,0.470,-0.155
436,0.480,-0.170
437,0.495,-0.125
438,0.550,-0.115
439,0.540,-0.085
440,0.580,-0.085
441,0.485,-0.105
442,0.440,-0.125
443,0.400,-0.080
444,0.375,0.030
445,0.335,0.125
446,0.265,0.070
447,0.250,0.080
448,0.215,0.115
449,0.180,0.045
450,0.165,0.000
451,0.175,-0.060
452,0.175,-0.095
453,0.095,-0.070
454,0.125,-0.035
455,0.190,-0.055
456,0.135,-0.060
457,0.120,-0.110
458,0.125,-0.110
459,0.120,-0.125
460,0.125,-0.160
461,0.150,-0.155
462,0.130,-0.075
463,0.210,-0.040
464,0.270,-0.035
465,0.290,0.020
466,0.310,0.135
467,0.285,0.165
468,0.185,0.290
469,0.175,0.305
470,0.145,0.320
471,0.100,0.285
472,0.095,0.110
473,0.175,-0.060
474,0.125,-0.260
475,0.035,-0.320
476,0.060,-0.285
477,0.075,-0.280
478,0.060,-0.235
479,0.050,-0.145
480,0.060,-0.090
481,0.080,-0.065
482,0.055,-0.080
483,0.045,-0.190
484,0.120,-0.120
485,-0.070,-0.100
486,-1.425,-0.080
487,-2.255,0.890
488,-2.535,0.955
489,-2.465,-0.570
490,-1.555,-0.215
491,-0.450,-0.725
492,0.050,-0.575
493,0.295,-0.270
494,0.335,-0.035
495,0.325,0.045
496,0.400,0.065
497,0.415,0.085
498,0.430,0.160
499,0.425,0.135
500,0.415,0.065
501,0.420,0.065
502,0.465,0.105
503,0.470,0.110
504,0.495,0.160
505,0.600,0.120
506,0.540,0.115
507,0.505,0.065
508,0.490,0.030
509,0.540,-0.005
510,0.545,0.020
511,0.535,0.045
512,0.540,0.125
513,0.500,0.135
514,0.495,0.195
515,0.455,0.195
516,0.410,0.195
517,0.395,0.165
518,0.325,0.180
519,0.280,0.150
520,0.240,0.210
521,0.225,0.175
522,0.235,0.175
523,0.240,0.125
524,0.180,0.080
525,0.140,0.010
526,0.170,-0.045
527,0.150,-0.075
528,0.135,-0.055
529,0.140,-0.025
530,0.155,-0.040
531,0.185,-0.025
532,0.165,-0.090
533,0.155,-0.090
534,0.170,-0.150
535,0.225,-0.105
536,0.255,-0.015
537,0.195,0.065
538,0.245,0.165
539,0.240,0.260
540,0.210,0.375
541,0.150,0.345
542,0.100,0.255
543,0.070,0.165
544,0.080,0.000
545,0.095,-0.195
546,0.085,-0.300
547,0.095,-0.280
548,0.070,-0.310
549,0.090,-0.345
550,0.035,-0.350
551,0.030,-0.395
552,0.045,-0.375
553,0.040,-0.400
554,0.140,-0.285
555,0.075,-0.275
556,0.040,-0.205
557,0.095,0.000
558,-0.940,-0.150
559,-2.040,0.700
560,-2.480,1.235
561,-2.425,-0.190
562,-1.560,-0.165
563,-0.540,-0.655
564,-0.050,-0.775
565,0.270,-0.470
566,0.305,-0.240
567,0.330,-0.240
568,0.345,-0.250
569,0.365,-0.205
570,0.385,-0.185
571,0.465,-0.165
572,0.495,-0.165
573,0.365,-0.130
574,0.385,-0.125
575,0.435,-0.200
576,0.470,-0.200
577,0.465,-0.240
578,0.515,-0.200
579,0.545,-0.245
580,0.530,-0.265
581,0.555,-0.240
582,0.585,-0.220
583,0.590,-0.240
584,0.610,-0.295
585,0.500,-0.290
586,0.505,-0.280
587,0.480,-0.240
588,0.480,-0.200
589,0.400,-0.145
590,0.390,-0.075
591,0.360,-0.085
592,0.325,-0.100
593,0.275,-0.125
594,0.260,-0.165
595,0.290,-0.215
596,0.230,-0.170
597,0.245,-0.140
598,0.225,-0.140
599,0.210,-0.140
600,0.215,-0.105
601,0.235,-0.150
602,0.215,-0.215
603,0.195,-0.205
604,0.205,-0.200
605,0.215,-0.160
606,0.210,-0.155
607,0.225,-0.135
608,0.215,-0.115
609,0.265,-0.065
610,0.325,-0.050
611,0.345,-0.020
612,0.345,0.050
613,0.250,0.240
614,0.185,0.250
615,0.165,0.330
616,0.150,0.220
617,0.130,0.070
618,0.150,-0.115
619,0.110,-0.300
620,0.085,-0.425
621,0.105,-0.465
622,0.090,-0.470
623,0.065,-0.380
624,0.105,-0.340
625,0.110,-0.355
626,0.100,-0.330
627,0.080,-0.310
628,0.060,-0.315
629,0.070,-0.330
630,0.140,-0.260
631,0.085,-0.165
632,-1.085,-0.075
633,-2.030,0.710
634,-2.380,1.470
635,-2.430,0.220
636,-1.835,-0.040
637,-0.695,-0.585
638,-0.125,-0.805
639,0.265,-0.570
640,0.325,-0.315
641,0.365,-0.140
642,0.405,-0.035
643,0.480,-0.075
644,0.420,-0.105
645,0.440,-0.095
646,0.445,-0.125
647,0.470,-0.120
648,0.480,-0.115
649,0.460,-0.120
650,0.460,-0.065
651,0.505,-0.070
652,0.540,-0.070
653,0.575,-0.090
654,0.535,-0.100
655,0.515,-0.170
656,0.560,-0.215
657,0.530,-0.230
658,0.515,-0.210
659,0.530,-0.205
660,0.500,-0.180
661,0.485,-0.140
662,0.465,-0.140
663,0.375,-0.095
664,0.320,-0.075
665,0.285,-0.025
666,0.275,-0.070
667,0.290,-0.085
668,0.290,-0.005
669,0.270,0.015
670,0.260,0.025
671,0.260,-0.050
672,0.255,-0.110
673,0.165,-0.130
674,0.200,-0.140
675,0.200,-0.125
676,0.190,-0.105
677,0.205,-0.045
678,0.220,-0.070
679,0.225,-0.040
680,0.170,-0.040
681,0.145,-0.150
682,0.170,-0.170
683,0.180,-0.100
684,0.260,-0.075
685,0.290,-0.030
686,0.290,0.025
687,0.260,0.110
688,0.255,0.265
689,0.225,0.235
690,0.140,0.175
691,0.100,0.070
692,0.075,-0.005
693,0.080,-0.110
694,0.100,-0.230
695,0.095,-0.350
696,0.055,-0.400
697,0.035,-0.390
698,0.025,-0.400
699,0.035,-0.405
700,0.055,-0.405
701,0.020,-0.430
702,0.010,-0.385
703,0.005,-0.340
704,0.045,-0.315
705,0.035,-0.310
706,0.165,-0.170
707,-0.635,-0.295
708,-1.920,0.080
709,-2.375,1.140
710,-2.525,0.880
711,-2.420,-0.265
712,-1.510,-0.150
713,-0.550,-0.755
714,-0.025,-0.705
715,0.210,-0.505
716,0.275,-0.295
717,0.305,-0.290
718,0.335,-0.320
719,0.360,-0.290
720,0.375,-0.245
721,0.365,-0.175
722,0.410,-0.155
723,0.440,-0.155
724,0.420,-0.155
725,0.400,-0.155
726,0.380,-0.185
727,0.465,-0.175
728,0.485,-0.160
729,0.530,-0.150
730,0.540,-0.185
731,0.550,-0.185
732,0.570,-0.170
733,0.560,-0.190
734,0.580,-0.190
735,0.530,-0.245
736,0.525,-0.220
737,0.545,-0.190
738,0.450,-0.130
739,0.400,-0.030
740,0.350,0.040
741,0.340,0.075
742,0.270,0.070
743,0.250,0.025
744,0.235,-0.030
745,0.220,-0.090
746,0.230,-0.145
747,0.190,-0.110
748,0.170,-0.110
749,0.175,-0.080
750,0.175,-0.120
751,0.175,-0.165
752,0.230,-0.185
753,0.180,-0.240
754,0.085,-0.240
755,0.100,-0.240
756,0.115,-0.205
757,0.105,-0.165
758,0.115,-0.175
759,0.140,-0.140
760,0.195,-0.085
761,0.245,-0.110
762,0.240,-0.115
763,0.230,-0.065
764,0.215,0.110
765,0.180,0.220
766,0.125,0.195
767,0.080,0.130
768,0.035,0.000
769,0.045,-0.175
770,0.045,-0.335
771,0.005,-0.470
772,0.000,-0.505
773,0.000,-0.530
774,0.000,-0.450
775,0.000,-0.415
776,0.020,-0.405
777,0.015,-0.375
778,0.020,-0.385
779,0.000,-0.385
780,-0.010,-0.405
781,0.040,-0.375
782,0.055,-0.325
783,-0.535,-0.315
784,-1.865,-0.050
785,-2.445,0.995
786,-2.630,0.950
787,-2.525,-0.490
788,-1.780,-0.355
789,-0.715,-0.930
790,-0.045,-0.835
791,0.250,-0.585
792,0.265,-0.340
793,0.270,-0.270
794,0.325,-0.215
795,0.345,-0.195
796,0.330,-0.155
797,0.280,-0.140
798,0.300,-0.280
799,0.325,-0.265
800,0.380,-0.210
801,0.375,-0.135
802,0.365,-0.090
803,0.405,-0.100
804,0.445,-0.140
805,0.450,-0.140
806,0.475,-0.200
807,0.475,-0.240
808,0.490,-0.220
809,0.515,-0.225
810,0.515,-0.170
811,0.490,-0.130
812,0.500,-0.115
813,0.545,-0.070
814,0.370,-0.030
815,0.305,-0.020
816,0.260,0.025
817,0.255,0.145
818,0.220,0.040
819,0.180,-0.005
820,0.160,0.010
821,0.155,0.010
822,0.125,-0.035
823,0.140,-0.120
824,0.105,-0.155
825,0.080,-0.205
826,0.070,-0.215
827,0.110,-0.215
828,0.105,-0.185
829,0.090,-0.165
830,0.100,-0.185
831,0.140,-0.170
832,0.160,-0.155
833,0.010,-0.255
834,0.010,-0.265
835,0.065,-0.260
836,0.100,-0.255
837,0.165,-0.100
838,0.185,-0.135
839,0.200,-0.015
840,0.195,0.135
841,0.145,0.255
842,0.080,0.185
843,0.020,0.125
844,0.000,0.005
845,0.030,-0.125
846,0.040,-0.255
847,0.015,-0.320
848,0.005,-0.425
849,0.015,-0.450
850,-0.010,-0.465
851,0.055,-0.455
852,0.035,-0.475
853,-0.075,-0.475
854,-0.040,-0.415
855,-0.035,-0.385
856,-0.030,-0.365
857,0.025,-0.330
858,0.170,-0.160
859,-0.395,-0.320
860,-1.810,-0.090
861,-2.490,0.880
862,-2.670,-0.070
863,-2.380,-0.695
864,-1.245,-0.595
865,-0.410,-0.895
866,0.130,-0.645
867,0.315,-0.350
868,0.325,-0.220
869,0.355,-0.275
870,0.290,-0.200
871,0.270,-0.150
872,0.320,-0.145
873,0.320,-0.105
874,0.375,-0.070
875,0.395,-0.070
876,0.405,-0.070
877,0.435,-0.125
878,0.430,-0.165
879,0.435,-0.135
880,0.435,-0.175
881,0.495,-0.155
882,0.590,-0.110
883,0.510,-0.130
884,0.440,-0.135
885,0.445,-0.130
886,0.450,-0.185
887,0.460,-0.200
888,0.445,-0.125
889,0.395,-0.015
890,0.360,-0.020
891,0.285,0.030
892,0.240,0.055
893,0.220,0.050
894,0.200,-0.065
895,0.145,-0.150
896,0.140,-0.180
897,0.095,-0.195
898,0.100,-0.170
899,0.065,-0.155
900,0.075,-0.175
901,0.085,-0.200
902,0.085,-0.240
903,0.085,-0.315
904,0.105,-0.325
905,0.115,-0.340
906,0.080,-0.350
907,0.075,-0.350
908,0.090,-0.345
909,0.060,-0.350
910,0.105,-0.335
911,0.190,-0.305
912,0.185,-0.290
913,0.190,-0.170
914,0.150,-0.025
915,0.080,0.100
916,0.050,0.090
917,0.035,0.040
918,0.020,-0.070
919,0.000,-0.210
920,0.030,-0.475
921,-0.005,-0.645
922,0.000,-0.705
923,-0.050,-0.700
924,-0.060,-0.615
925,-0.075,-0.605
926,-0.015,-0.545
927,-0.020,-0.565
928,-0.040,-0.615
929,-0.045,-0.620
930,-0.070,-0.645
931,0.010,-0.580
932,0.075,-0.390
933,-1.010,-0.495
934,-2.180,0.300
935,-2.615,0.935
936,-2.575,-0.595
937,-1.850,-0.520
938,-0.785,-1.075
939,-0.160,-1.090
940,0.220,-0.830
941,0.220,-0.545
942,0.295,-0.495
943,0.340,-0.460
944,0.335,-0.415
945,0.335,-0.440
946,0.340,-0.515
947,0.330,-0.500
948,0.330,-0.515
949,0.335,-0.455
950,0.375,-0.430
951,0.420,-0.425
952,0.400,-0.440
953,0.430,-0.470
954,0.450,-0.525
955,0.480,-0.555
956,0.525,-0.540
957,0.530,-0.560
958,0.520,-0.565
959,0.565,-0.470
960,0.530,-0.510
961,0.460,-0.440
962,0.400,-0.435
963,0.380,-0.515
964,0.345,-0.445
965,0.305,-0.360
966,0.285,-0.305
967,0.300,-0.335
968,0.230,-0.350
969,0.185,-0.440
970,0.205,-0.485
971,0.155,-0.525
972,0.140,-0.475
973,0.200,-0.430
974,0.160,-0.435
975,0.145,-0.430
976,0.175,-0.380
977,0.185,-0.350
978,0.200,-0.390
979,0.150,-0.430
980,0.180,-0.470
981,0.200,-0.520
982,0.140,-0.450
983,0.155,-0.400
984,0.245,-0.395
985,0.300,-0.310
986,0.295,-0.230
987,0.265,-0.130
988,0.235,-0.035
989,0.185,-0.040
990,0.150,-0.130
991,0.125,-0.245
992,0.140,-0.385
993,0.150,-0.535
994,0.130,-0.660
995,0.090,-0.725
996,0.085,-0.795
997,0.095,-0.805
998,0.090,-0.795
999,0.055,-0.695
1000,0.000,-0.700
1001,0.020,-0.695
1002,0.060,-0.695
1003,0.050,-0.710
1004,0.085,-0.635
1005,0.170,-0.520
1006,-1.015,-0.530
1007,-2.045,0.700
1008,-2.405,1.155
1009,-2.300,-0.380
1010,-1.505,-0.425
1011,-0.510,-1.105
1012,0.000,-1.225
1013,0.280,-0.970
1014,0.255,-0.710
1015,0.280,-0.650
1016,0.300,-0.585
1017,0.315,-0.545
1018,0.350,-0.550
1019,0.340,-0.570
1020,0.355,-0.575
1021,0.360,-0.545
1022,0.400,-0.595
1023,0.390,-0.565
1024,0.460,-0.505
1025,0.420,-0.440
1026,0.435,-0.480
1027,0.455,-0.470
1028,0.475,-0.555
1029,0.475,-0.570
1030,0.525,-0.590
1031,0.470,-0.555
1032,0.425,-0.510
1033,0.400,-0.510
1034,0.365,-0.480
1035,0.360,-0.400
1036,0.305,-0.385
1037,0.215,-0.375
1038,0.210,-0.395
1039,0.155,-0.350
1040,0.170,-0.320
1041,0.155,-0.285
1042,0.120,-0.315
1043,0.155,-0.315
1044,0.115,-0.315
1045,0.055,-0.390
1046,0.060,-0.450
1047,0.060,-0.440
1048,0.080,-0.495
1049,0.090,-0.485
1050,0.135,-0.440
1051,0.135,-0.425
1052,0.095,-0.435
1053,0.025,-0.425
1054,0.005,-0.515
1055,0.050,-0.540
1056,0.110,-0.470
1057,0.190,-0.415
1058,0.180,-0.345
1059,0.130,-0.185
1060,0.105,-0.065
1061,0.085,-0.030
1062,0.050,-0.090
1063,0.005,-0.225
1064,-0.015,-0.300
1065,-0.020,-0.440
1066,-0.015,-0.555
1067,-0.015,-0.645
1068,0.000,-0.680
1069,0.060,-0.670
1070,0.005,-0.650
1071,-0.050,-0.650
1072,-0.035,-0.640
1073,-0.030,-0.635
1074,-0.040,-0.630
1075,-0.025,-0.580
1076,0.000,-0.485
1077,0.090,-0.345
1078,-0.300,-0.360
1079,-1.710,-0.395
1080,-2.525,0.580
1081,-2.720,0.000
1082,-2.555,-0.980
1083,-1.625,-0.635
1084,-0.590,-1.090
1085,0.055,-0.860
1086,0.205,-0.580
1087,0.265,-0.425
1088,0.310,-0.420
1089,0.315,-0.410
1090,0.355,-0.365
1091,0.345,-0.345
1092,0.370,-0.275
1093,0.365,-0.220
1094,0.350,-0.205
1095,0.365,-0.185
1096,0.430,-0.225
1097,0.420,-0.250
1098,0.415,-0.265
1099,0.475,-0.295
1100,0.470,-0.290
1101,0.500,-0.250
1102,0.540,-0.185
1103,0.590,-0.145
1104,0.585,-0.225
1105,0.550,-0.230
1106,0.490,-0.225
1107,0.475,-0.205
1108,0.435,-0.155
1109,0.425,-0.060
1110,0.360,-0.030
1111,0.290,0.035
1112,0.260,0.035
1113,0.270,0.020
1114,0.210,-0.080
1115,0.185,-0.155
1116,0.155,-0.130
1117,0.155,-0.155
1118,0.165,-0.220
1119,0.150,-0.165
1120,0.145,-0.160
1121,0.135,-0.200
1122,0.200,-0.200
1123,0.165,-0.250
1124,0.085,-0.265
1125,0.085,-0.295
1126,0.115,-0.300
1127,0.135,-0.260
1128,0.145,-0.300
1129,0.155,-0.210
1130,0.225,-0.160
1131,0.295,-0.210
1132,0.215,-0.160
1133,0.255,-0.090
1134,0.185,0.065
1135,0.110,0.185
1136,0.100,0.190
1137,0.135,0.150
1138,0.095,0.055
1139,0.040,-0.145
1140,0.045,-0.335
1141,0.025,-0.440
1142,0.010,-0.500
1143,0.035,-0.450
1144,0.025,-0.480
1145,0.035,-0.480
1146,0.055,-0.440
1147,0.015,-0.390
1148,0.000,-0.355
1149,0.010,-0.335
1150,0.000,-0.435
1151,0.035,-0.365
1152,0.215,-0.250
1153,-0.685,-0.395
1154,-2.040,0.020
1155,-2.595,1.015
1156,-2.690,-0.140
1157,-2.280,-0.615
1158,-1.135,-0.630
1159,-0.330,-0.950
1160,0.135,-0.685
1161,0.245,-0.425
1162,0.295,-0.310
1163,0.300,-0.190
1164,0.360,-0.130
1165,0.385,-0.075
1166,0.440,-0.065
1167,0.345,-0.115
1168,0.340,-0.125
1169,0.380,-0.105
1170,0.405,-0.105
1171,0.430,-0.115
1172,0.465,-0.025
1173,0.500,-0.025
1174,0.530,-0.015
1175,0.490,-0.020
1176,0.500,-0.120
1177,0.505,-0.155
1178,0.535,-0.170
1179,0.535,-0.140
1180,0.545,-0.115
1181,0.560,-0.070
1182,0.510,-0.045
1183,0.440,-0.040
1184,0.425,-0.040
1185,0.365,0.005
1186,0.290,0.020
1187,0.235,-0.015
1188,0.225,0.000
1189,0.220,0.000
1190,0.185,0.005
1191,0.185,0.010
1192,0.165,-0.020
1193,0.160,-0.050
1194,0.090,-0.170
1195,0.140,-0.200
1196,0.065,-0.220
1197,0.105,-0.255
1198,0.125,-0.225
1199,0.155,-0.210
1200,0.135,-0.230
1201,0.130,-0.215
1202,0.120,-0.225
1203,0.090,-0.290
1204,0.120,-0.335
1205,0.130,-0.305
1206,0.215,-0.260
1207,0.255,-0.205
1208,0.255,-0.040
1209,0.245,-0.005
1210,0.235,0.105
1211,0.165,0.225
1212,0.130,0.165
1213,0.085,0.045
1214,0.070,-0.055
1215,0.075,-0.200
1216,0.065,-0.320
1217,0.050,-0.400
1218,0.065,-0.460
1219,0.060,-0.470
1220,0.055,-0.475
1221,0.025,-0.545
1222,0.035,-0.555
1223,0.070,-0.535
1224,0.040,-0.505
1225,0.015,-0.455
1226,0.040,-0.435
1227,0.040,-0.360
1228,0.145,-0.240
1229,-0.105,-0.180
1230,-1.375,-0.255
1231,-2.295,0.600
1232,-2.650,0.905
1233,-2.535,-0.510
1234,-1.705,-0.285
1235,-0.690,-0.755
1236,-0.070,-0.880
1237,0.325,-0.595
1238,0.405,-0.400
1239,0.340,-0.390
1240,0.330,-0.355
1241,0.365,-0.280
1242,0.370,-0.275
1243,0.410,-0.175
1244,0.445,-0.130
1245,0.485,-0.175
1246,0.495,-0.155
1247,0.505,-0.205
1248,0.515,-0.280
1249,0.535,-0.290
1250,0.575,-0.280
1251,0.625,-0.280
1252,0.585,-0.270
1253,0.610,-0.215
1254,0.650,-0.215
1255,0.675,-0.260
1256,0.660,-0.235
1257,0.645,-0.250
1258,0.630,-0.275
1259,0.620,-0.235
1260,0.610,-0.275
1261,0.525,-0.255
1262,0.465,-0.150
1263,0.440,-0.110
1264,0.420,-0.005
1265,0.395,-0.035
1266,0.400,-0.180
1267,0.300,-0.215
1268,0.305,-0.185
1269,0.295,-0.110
1270,0.240,-0.050
1271,0.270,-0.125
1272,0.285,-0.175
1273,0.275,-0.185
1274,0.270,-0.155
1275,0.275,-0.145
1276,0.290,-0.110
1277,0.275,-0.170
1278,0.230,-0.190
1279,0.235,-0.115
1280,0.250,-0.100
1281,0.295,-0.140
1282,0.210,-0.140
1283,0.260,-0.140
1284,0.285,-0.065
1285,0.345,-0.085
1286,0.355,-0.080
1287,0.380,0.000
1288,0.320,0.220
1289,0.245,0.285
1290,0.230,0.275
1291,0.225,0.175
1292,0.220,0.035
1293,0.170,-0.150
1294,0.155,-0.320
1295,0.155,-0.405
1296,0.135,-0.450
1297,0.135,-0.440
1298,0.125,-0.390
1299,0.085,-0.400
1300,0.110,-0.385
1301,0.095,-0.425
1302,0.090,-0.475
1303,0.115,-0.550
1304,0.055,-0.520
1305,0.055,-0.475
1306,0.240,-0.230
1307,-0.250,-0.225
1308,-1.560,0.065
1309,-2.280,1.285
1310,-2.470,0.840
1311,-2.175,-0.260
1312,-1.110,-0.395
1313,-0.465,-0.970
1314,0.000,-0.975
1315,0.270,-0.635
1316,0.310,-0.375
1317,0.345,-0.385
1318,0.340,-0.380
1319,0.345,-0.350
1320,0.375,-0.340
1321,0.365,-0.355
1322,0.380,-0.430
1323,0.325,-0.380
1324,0.360,-0.275
1325,0.425,-0.250
1326,0.470,-0.280
1327,0.490,-0.260
1328,0.430,-0.305
1329,0.440,-0.335
1330,0.490,-0.345
1331,0.500,-0.380
1332,0.485,-0.355
1333,0.490,-0.350
1334,0.505,-0.355
1335,0.475,-0.325
1336,0.440,-0.315
1337,0.410,-0.325
1338,0.380,-0.280
1339,0.290,-0.185
1340,0.245,-0.225
1341,0.225,-0.190
1342,0.205,-0.085
1343,0.170,0.000
1344,0.180,-0.065
1345,0.180,-0.155
1346,0.125,-0.160
1347,0.110,-0.195
1348,0.105,-0.220
1349,0.095,-0.195
1350,0.120,-0.170
1351,0.155,-0.170
1352,0.135,-0.160
1353,0.080,-0.195
1354,0.060,-0.225
1355,0.080,-0.215
1356,0.095,-0.340
1357,0.080,-0.325
1358,0.075,-0.325
1359,0.095,-0.245
1360,0.135,-0.155
1361,0.165,-0.180
1362,0.195,-0.150
1363,0.220,-0.020
1364,0.120,0.100
1365,0.075,0.125
1366,0.075,0.100
1367,0.020,0.045
1368,0.030,-0.015
1369,0.060,-0.125
1370,0.010,-0.220
1371,-0.005,-0.380
1372,0.040,-0.515
1373,0.030,-0.515
1374,-0.025,-0.490
1375,-0.025,-0.450
1376,0.000,-0.420
1377,-0.020,-0.345
1378,-0.005,-0.300
1379,0.000,-0.300
1380,0.000,-0.320
1381,0.035,-0.310
1382,0.120,-0.230
1383,-1.090,-0.425
1384,-2.310,0.260
1385,-2.700,1.070
1386,-2.735,-0.395
1387,-2.280,-0.510
1388,-1.085,-0.590
1389,-0.250,-0.800
1390,0.120,-0.650
1391,0.220,-0.390
1392,0.255,-0.290
1393,0.270,-0.215
1394,0.310,-0.170
1395,0.325,-0.105
1396,0.350,-0.025
1397,0.385,-0.075
1398,0.395,-0.040
1399,0.355,-0.080
1400,0.330,-0.075
1401,0.385,-0.035
1402,0.455,-0.115
1403,0.450,-0.045
1404,0.460,0.000
1405,0.465,-0.005
1406,0.490,-0.010
1407,0.535,-0.025
1408,0.530,-0.045
1409,0.520,-0.075
1410,0.505,-0.095
1411,0.475,0.000
1412,0.500,0.005
1413,0.430,0.080
1414,0.320,0.180
1415,0.285,0.210
1416,0.260,0.155
1417,0.185,0.155
1418,0.190,0.115
1419,0.155,0.020
1420,0.125,0.035
1421,0.105,0.045
1422,0.105,0.040
1423,0.095,0.015
1424,0.115,-0.005
1425,0.090,-0.020
1426,0.105,-0.075
1427,0.105,-0.140
1428,0.035,-0.135
1429,0.080,-0.080
1430,0.115,-0.020
1431,0.130,-0.080
1432,0.095,-0.125
1433,0.080,-0.105
1434,0.115,-0.145
1435,0.160,-0.120
1436,0.190,-0.035
1437,0.195,0.080
1438,0.190,0.220
1439,0.095,0.320
1440,0.090,0.365
1441,0.025,0.295
1442,-0.030,0.190
1443,-0.015,-0.010
1444,0.010,-0.240
1445,-0.020,-0.405
1446,-0.050,-0.435
1447,-0.070,-0.345
1448,-0.040,-0.270
1449,0.000,-0.295
1450,0.000,-0.335
1451,-0.065,-0.280
1452,-0.100,-0.365
1453,-0.095,-0.390
1454,-0.070,-0.315
1455,0.025,-0.215
1456,-0.245,-0.130
1457,-1.645,-0.210
1458,-2.490,0.720
1459,-2.760,0.895
1460,-2.630,-0.575
1461,-1.605,-0.525
1462,-0.570,-0.900
1463,0.005,-0.715
1464,0.185,-0.415
1465,0.240,-0.130
1466,0.265,-0.075
1467,0.280,-0.070
1468,0.280,-0.065
1469,0.275,-0.075
1470,0.300,-0.070
1471,0.300,-0.025
1472,0.350,-0.045
1473,0.385,-0.030
1474,0.375,-0.025
1475,0.380,-0.005
1476,0.425,-0.005
1477,0.435,-0.040
1478,0.400,-0.080
1479,0.435,-0.055
1480,0.430,-0.125
1481,0.455,-0.145
1482,0.475,-0.060
1483,0.475,-0.010
1484,0.460,-0.005
1485,0.400,0.000
1486,0.350,-0.030
1487,0.265,-0.005
1488,0.255,-0.015
1489,0.210,0.010
1490,0.155,0.055
1491,0.115,0.055
1492,0.115,0.040
1493,0.115,-0.005
1494,0.125,-0.155
1495,0.085,-0.190
1496,0.075,-0.150
1497,0.055,-0.160
1498,0.080,-0.120
1499,0.090,-0.155
1500,0.100,-0.160
1501,0.090,-0.205
1502,0.085,-0.235
1503,0.155,-0.195
1504,0.105,-0.280
1505,0.070,-0.310
1506,0.065,-0.245
1507,0.135,-0.165
1508,0.225,-0.095
1509,0.255,-0.005
1510,0.240,0.075
1511,0.130,0.160
1512,0.020,0.205
1513,0.040,0.185
1514,0.030,0.000
1515,0.045,-0.060
1516,0.080,-0.260
1517,0.055,-0.335
1518,0.020,-0.470
1519,0.000,-0.505
1520,-0.005,-0.585
1521,0.010,-0.500
1522,-0.020,-0.480
1523,-0.005,-0.505
1524,0.030,-0.445
1525,0.000,-0.425
1526,-0.020,-0.455
1527,0.000,-0.390
1528,0.090,-0.260
1529,-0.755,-0.370
1530,-2.045,0.200
1531,-2.560,1.185
1532,-2.590,-0.115
1533,-2.105,-0.245
1534,-0.860,-0.570
1535,-0.145,-0.880
1536,0.340,-0.685
1537,0.260,-0.480
1538,0.260,-0.410
1539,0.310,-0.355
1540,0.315,-0.330
1541,0.345,-0.325
1542,0.320,-0.350
1543,0.320,-0.290
1544,0.370,-0.255
1545,0.400,-0.260
1546,0.410,-0.290
1547,0.425,-0.320
1548,0.490,-0.350
1549,0.545,-0.225
1550,0.505,-0.190
1551,0.530,-0.330
1552,0.535,-0.370
1553,0.535,-0.315
1554,0.585,-0.390
1555,0.620,-0.410
1556,0.515,-0.460
1557,0.450,-0.405
1558,0.390,-0.280
1559,0.395,-0.270
1560,0.350,-0.225
1561,0.340,-0.175
1562,0.285,-0.175
1563,0.275,-0.215
1564,0.280,-0.260
1565,0.235,-0.245
1566,0.200,-0.160
1567,0.175,-0.185
1568,0.250,-0.315
1569,0.230,-0.300
1570,0.150,-0.335
1571,0.120,-0.345
1572,0.130,-0.295
1573,0.165,-0.300
1574,0.165,-0.265
1575,0.180,-0.180
1576,0.165,-0.215
1577,0.160,-0.250
1578,0.165,-0.325
1579,0.140,-0.280
1580,0.210,-0.305
1581,0.325,-0.300
1582,0.270,-0.295
1583,0.205,-0.135
1584,0.220,0.005
1585,0.190,0.055
1586,0.140,0.065
1587,0.105,-0.055
1588,0.105,-0.175
1589,0.090,-0.355
1590,0.030,-0.505
1591,0.025,-0.595
1592,0.030,-0.630
1593,0.080,-0.625
1594,0.065,-0.635
1595,-0.010,-0.665
1596,-0.025,-0.720
1597,-0.025,-0.785
1598,-0.010,-0.750
1599,0.000,-0.695
1600,0.030,-0.690
1601,0.070,-0.570
1602,-0.085,-0.515
1603,-1.285,-0.465
1604,-2.195,0.395
1605,-2.530,1.060
1606,-2.375,-0.340
1607,-1.460,-0.515
1608,-0.540,-1.070
1609,-0.090,-1.120
1610,0.190,-0.865
1611,0.200,-0.605
1612,0.255,-0.630
1613,0.280,-0.615
1614,0.290,-0.565
1615,0.305,-0.525
1616,0.305,-0.515
1617,0.305,-0.465
1618,0.320,-0.425
1619,0.380,-0.410
1620,0.345,-0.455
1621,0.350,-0.445
1622,0.370,-0.440
1623,0.400,-0.445
1624,0.460,-0.445
1625,0.415,-0.375
1626,0.395,-0.440
1627,0.430,-0.455
1628,0.445,-0.445
1629,0.410,-0.490
1630,0.410,-0.505
1631,0.345,-0.425
1632,0.295,-0.450
1633,0.280,-0.370
1634,0.250,-0.295
1635,0.200,-0.235
1636,0.170,-0.210
1637,0.160,-0.225
1638,0.145,-0.295
1639,0.150,-0.320
1640,0.230,-0.250
1641,0.100,-0.310
1642,0.055,-0.290
1643,0.085,-0.255
1644,0.080,-0.300
1645,0.130,-0.325
1646,0.105,-0.370
1647,0.095,-0.370
1648,0.115,-0.360
1649,0.110,-0.370
1650,0.075,-0.420
1651,0.075,-0.370
1652,0.080,-0.390
1653,0.095,-0.340
1654,0.140,-0.320
1655,0.180,-0.385
1656,0.180,-0.335
1657,0.175,-0.245
1658,0.135,-0.130
1659,0.020,-0.040
1660,0.020,-0.010
1661,-0.010,-0.045
1662,-0.020,-0.190
1663,0.000,-0.320
1664,0.005,-0.595
1665,-0.030,-0.670
1666,-0.080,-0.765
1667,-0.055,-0.735
1668,-0.065,-0.710
1669,-0.045,-0.660
1670,0.000,-0.615
1671,-0.050,-0.560
1672,-0.080,-0.555
1673,-0.065,-0.705
1674,-0.090,-0.705
1675,-0.050,-0.575
1676,0.075,-0.460
1677,-0.930,-0.595
1678,-2.155,-0.190
1679,-2.655,0.695
1680,-2.715,-0.335
1681,-2.450,-0.855
1682,-1.360,-0.660
1683,-0.515,-1.135
1684,0.005,-0.920
1685,0.175,-0.690
1686,0.215,-0.530
1687,0.210,-0.395
1688,0.210,-0.415
1689,0.230,-0.390
1690,0.245,-0.370
1691,0.250,-0.445
1692,0.300,-0.435
1693,0.300,-0.400
1694,0.305,-0.400
1695,0.320,-0.370
1696,0.315,-0.325
1697,0.325,-0.285
1698,0.355,-0.300
1699,0.385,-0.355
1700,0.410,-0.410
1701,0.430,-0.420
1702,0.435,-0.375
1703,0.425,-0.370
1704,0.465,-0.380
1705,0.450,-0.320
1706,0.345,-0.330
1707,0.335,-0.305
1708,0.305,-0.285
1709,0.250,-0.250
1710,0.175,-0.225
1711,0.165,-0.210
1712,0.130,-0.205
1713,0.080,-0.240
1714,0.060,-0.235
1715,0.075,-0.240
1716,0.055,-0.290
1717,0.060,-0.315
1718,0.075,-0.355
1719,0.030,-0.425
1720,0.000,-0.455
1721,0.000,-0.475
1722,0.020,-0.475
1723,0.020,-0.405
1724,0.065,-0.385
1725,0.100,-0.380
1726,0.000,-0.395
1727,0.030,-0.490
1728,0.030,-0.510
1729,0.000,-0.495
1730,0.025,-0.465
1731,0.095,-0.410
1732,0.135,-0.265
1733,0.165,-0.225
1734,0.135,-0.145
1735,0.070,0.000
1736,0.010,0.000
1737,0.000,-0.100
1738,-0.060,-0.215
1739,-0.025,-0.320
1740,-0.010,-0.450
1741,-0.065,-0.500
1742,-0.105,-0.595
1743,-0.105,-0.710
1744,-0.120,-0.680
1745,-0.120,-0.690
1746,-0.100,-0.660
1747,-0.125,-0.605
1748,-0.120,-0.715
1749,-0.140,-0.665
1750,-0.090,-0.595
1751,-0.095,-0.590
1752,-0.050,-0.520
1753,-0.165,-0.410
1754,-1.385,-0.600
1755,-2.310,0.115
1756,-2.665,0.605
1757,-2.670,-0.725
1758,-2.325,-1.010
1759,-1.105,-0.935
1760,-0.285,-1.045
1761,0.090,-0.795
1762,0.150,-0.520
1763,0.220,-0.455
1764,0.250,-0.460
1765,0.200,-0.480
1766,0.215,-0.435
1767,0.255,-0.415
1768,0.255,-0.375
1769,0.255,-0.315
1770,0.285,-0.290
1771,0.305,-0.310
1772,0.330,-0.375
1773,0.330,-0.405
1774,0.370,-0.410
1775,0.350,-0.410
1776,0.380,-0.415
1777,0.390,-0.375
1778,0.430,-0.370
1779,0.410,-0.345
1780,0.365,-0.355
1781,0.380,-0.365
1782,0.355,-0.365
1783,0.350,-0.390
1784,0.345,-0.350
1785,0.285,-0.350
1786,0.245,-0.235
1787,0.200,-0.195
1788,0.165,-0.180
1789,0.150,-0.185
1790,0.115,-0.255
1791,0.130,-0.330
1792,0.070,-0.360
1793,0.015,-0.385
1794,0.045,-0.365
1795,0.055,-0.385
1796,0.060,-0.385
1797,0.020,-0.415
1798,0.040,-0.360
1799,0.035,-0.455
1800,0.015,-0.495
1801,0.025,-0.485
1802,0.035,-0.530
1803,0.035,-0.510
1804,0.035,-0.475
1805,0.025,-0.445
1806,0.045,-0.410
1807,0.085,-0.385
1808,0.170,-0.425
1809,0.200,-0.430
1810,0.165,-0.335
1811,0.065,-0.170
1812,0.040,-0.065
1813,0.010,0.010
1814,0.020,0.000
1815,0.040,-0.160
1816,-0.030,-0.355
1817,-0.060,-0.495
1818,-0.105,-0.615
1819,-0.095,-0.750
1820,-0.090,-0.805
1821,-0.050,-0.780
1822,-0.045,-0.725
1823,-0.090,-0.680
1824,-0.060,-0.670
1825,-0.045,-0.720
1826,-0.060,-0.700
1827,-0.065,-0.715
1828,-0.090,-0.775
1829,0.005,-0.625
1830,-0.225,-0.515
1831,-1.420,-0.530
1832,-2.180,0.320
1833,-2.525,1.030
1834,-2.450,-0.445
1835,-1.750,-0.380
1836,-0.650,-0.945
1837,-0.100,-1.140
1838,0.190,-0.965
1839,0.170,-0.690
1840,0.205,-0.635
1841,0.250,-0.565
1842,0.290,-0.535
1843,0.290,-0.525
1844,0.275,-0.505
1845,0.295,-0.565
1846,0.310,-0.580
1847,0.340,-0.550
1848,0.355,-0.535
1849,0.375,-0.500
1850,0.355,-0.460
1851,0.390,-0.495
1852,0.445,-0.505
1853,0.435,-0.480
1854,0.455,-0.615
1855,0.450,-0.650
1856,0.460,-0.640
1857,0.530,-0.615
1858,0.490,-0.610
1859,0.410,-0.525
1860,0.365,-0.525
1861,0.345,-0.515
1862,0.340,-0.490
1863,0.310,-0.530
1864,0.275,-0.510
1865,0.235,-0.470
1866,0.185,-0.495
1867,0.180,-0.460
1868,0.170,-0.445
1869,0.220,-0.430
1870,0.175,-0.385
1871,0.125,-0.420
1872,0.090,-0.555
1873,0.135,-0.560
1874,0.195,-0.555
1875,0.175,-0.480
1876,0.125,-0.415
1877,0.160,-0.410
1878,0.140,-0.370
1879,0.115,-0.410
1880,0.135,-0.445
1881,0.130,-0.470
1882,0.110,-0.495
1883,0.135,-0.430
1884,0.190,-0.385
1885,0.215,-0.325
1886,0.250,-0.315
1887,0.235,-0.220
1888,0.210,-0.045
1889,0.140,-0.055
1890,0.090,-0.085
1891,0.050,-0.250
1892,0.065,-0.345
1893,0.090,-0.460
1894,0.150,-0.535
1895,0.095,-0.615
1896,-0.020,-0.655
1897,-0.020,-0.655
1898,-0.005,-0.755
1899,0.000,-0.740
1900,0.015,-0.730
1901,0.045,-0.715
1902,0.015,-0.735
1903,-0.050,-0.670
1904,-0.065,-0.635
1905,0.040,-0.530
1906,-0.210,-0.545
1907,-1.545,-0.340
1908,-2.240,0.790
1909,-2.460,0.605
1910,-2.295,-0.550
1911,-1.450,-0.435
1912,-0.550,-1.030
1913,0.000,-1.000
1914,0.215,-0.735
1915,0.250,-0.560
1916,0.240,-0.585
1917,0.260,-0.580
1918,0.275,-0.545
1919,0.325,-0.515
1920,0.285,-0.455
1921,0.290,-0.385
1922,0.315,-0.360
1923,0.345,-0.380
1924,0.360,-0.370
1925,0.350,-0.445
1926,0.340,-0.450
1927,0.345,-0.435
1928,0.385,-0.415
1929,0.420,-0.410
1930,0.425,-0.425
1931,0.430,-0.460
1932,0.395,-0.475
1933,0.365,-0.460
1934,0.310,-0.500
1935,0.285,-0.465
1936,0.270,-0.390
1937,0.285,-0.270
1938,0.165,-0.260
1939,0.145,-0.260
1940,0.125,-0.245
1941,0.110,-0.200
1942,0.085,-0.305
1943,0.070,-0.305
1944,0.075,-0.315
1945,0.060,-0.345
1946,0.070,-0.300
1947,0.085,-0.290
1948,0.050,-0.315
1949,0.045,-0.305
1950,0.080,-0.330
1951,0.045,-0.345
1952,0.070,-0.445
1953,0.055,-0.450
1954,0.055,-0.400
1955,0.010,-0.380
1956,0.040,-0.315
1957,0.105,-0.355
1958,0.135,-0.335
1959,0.120,-0.305
1960,0.105,-0.235
1961,0.140,-0.070
1962,0.005,-0.060
1963,-0.030,-0.045
1964,-0.025,-0.105
1965,-0.035,-0.155
1966,0.005,-0.360
1967,-0.065,-0.590
1968,-0.105,-0.720
1969,-0.105,-0.740
1970,-0.090,-0.695
1971,-0.085,-0.570
1972,-0.070,-0.555
1973,-0.050,-0.600
1974,-0.040,-0.570
1975,-0.010,-0.570
1976,-0.085,-0.610
1977,-0.100,-0.595
1978,-0.020,-0.450
1979,-0.925,-0.535
1980,-2.130,0.005
1981,-2.540,0.995
1982,-2.620,-0.125
1983,-2.265,-0.795
1984,-1.085,-0.835
1985,-0.295,-1.115
1986,0.125,-0.860
1987,0.195,-0.555
1988,0.165,-0.415
1989,0.220,-0.370
1990,0.245,-0.345
1991,0.270,-0.325
1992,0.265,-0.355
1993,0.285,-0.340
1994,0.300,-0.355
1995,0.305,-0.310
1996,0.355,-0.260
1997,0.380,-0.210
1998,0.395,-0.200
1999,0.385,-0.260
2000,0.400,-0.295
2001,0.405,-0.315
2002,0.415,-0.310
2003,0.450,-0.345
2004,0.490,-0.250
2005,0.470,-0.210
2006,0.430,-0.205
2007,0.395,-0.205
2008,0.380,-0.165
2009,0.375,-0.190
2010,0.235,-0.140
2011,0.180,-0.065
2012,0.165,-0.005
2013,0.135,0.000
2014,0.130,-0.055
2015,0.125,-0.145
2016,0.130,-0.135
2017,0.135,-0.250
2018,0.080,-0.275
2019,0.030,-0.300
2020,0.075,-0.275
2021,0.080,-0.240
2022,0.155,-0.225
2023,0.165,-0.225
2024,0.085,-0.270
2025,0.020,-0.275
2026,0.055,-0.340
2027,0.060,-0.335
2028,0.075,-0.285
2029,0.130,-0.215
2030,0.240,-0.190
2031,0.250,-0.150
2032,0.230,-0.060
2033,0.170,0.035
2034,0.075,0.175
2035,0.100,0.100
2036,0.050,0.000
2037,-0.020,-0.055
2038,-0.010,-0.110
2039,0.000,-0.255
2040,-0.005,-0.510
2041,-0.025,-0.575
2042,-0.030,-0.560
2043,-0.015,-0.535
2044,-0.005,-0.520
2045,0.035,-0.470
2046,-0.030,-0.410
2047,-0.035,-0.440
2048,-0.055,-0.390
2049,-0.020,-0.410
2050,0.110,-0.315
2051,-0.255,-0.345
2052,-1.640,-0.340
2053,-2.385,0.635
2054,-2.590,0.165
2055,-2.360,-0.715
2056,-1.320,-0.500
2057,-0.440,-0.895
2058,0.080,-0.740
2059,0.245,-0.515
2060,0.290,-0.350
2061,0.250,-0.270
2062,0.255,-0.285
2063,0.255,-0.230
2064,0.320,-0.175
2065,0.330,-0.170
2066,0.350,-0.130
2067,0.330,-0.205
2068,0.290,-0.195
2069,0.350,-0.250
2070,0.380,-0.220
2071,0.415,-0.165
2072,0.485,-0.115
2073,0.480,-0.145
2074,0.425,-0.245
2075,0.430,-0.225
2076,0.445,-0.245
2077,0.430,-0.275
2078,0.455,-0.305
2079,0.440,-0.235
2080,0.370,-0.140
2081,0.275,-0.060
2082,0.240,-0.050
2083,0.220,-0.045
2084,0.190,-0.045
2085,0.145,-0.045
2086,0.170,-0.210
2087,0.115,-0.205
2088,0.025,-0.175
2089,0.010,-0.120
2090,0.025,-0.195
2091,0.050,-0.255
2092,0.080,-0.340
2093,0.100,-0.345
2094,0.045,-0.370
2095,-0.010,-0.350
2096,0.010,-0.345
2097,0.045,-0.320
2098,0.070,-0.305
2099,0.070,-0.285
2100,0.090,-0.320
2101,0.090,-0.400
2102,0.145,-0.420
2103,0.165,-0.355
2104,0.170,-0.260
2105,0.165,-0.055
2106,0.135,0.100
2107,0.155,0.050
2108,0.060,0.010
2109,-0.040,-0.070
2110,-0.070,-0.255
2111,0.000,-0.475
2112,-0.010,-0.580
2113,-0.045,-0.635
2114,-0.040,-0.635
2115,0.000,-0.650
2116,0.000,-0.605
2117,-0.040,-0.625
2118,-0.020,-0.680
2119,-0.065,-0.665
2120,-0.075,-0.700
2121,-0.070,-0.700
2122,-0.060,-0.630
2123,0.040,-0.415
2124,-0.585,-0.475
2125,-1.850,-0.260
2126,-2.450,0.825
2127,-2.605,0.230
2128,-2.385,-0.930
2129,-1.300,-0.750
2130,-0.405,-1.205
2131,0.125,-1.000
2132,0.270,-0.720
2133,0.285,-0.545
2134,0.280,-0.505
2135,0.265,-0.540
2136,0.265,-0.625
2137,0.290,-0.590
2138,0.340,-0.580
2139,0.340,-0.515
2140,0.320,-0.460
2141,0.345,-0.525
2142,0.380,-0.535
2143,0.435,-0.505
2144,0.450,-0.555
2145,0.485,-0.530
2146,0.500,-0.580
2147,0.515,-0.610
2148,0.495,-0.610
2149,0.535,-0.585
2150,0.550,-0.560
2151,0.535,-0.490
2152,0.490,-0.550
2153,0.435,-0.580
2154,0.425,-0.550
2155,0.405,-0.555
2156,0.390,-0.435
2157,0.320,-0.380
2158,0.240,-0.360
2159,0.225,-0.360
2160,0.225,-0.420
2161,0.235,-0.545
2162,0.195,-0.560
2163,0.140,-0.550
2164,0.135,-0.535
2165,0.155,-0.505
2166,0.165,-0.495
2167,0.195,-0.520
2168,0.165,-0.490
2169,0.155,-0.480
2170,0.155,-0.500
2171,0.170,-0.490
2172,0.130,-0.510
2173,0.160,-0.510
2174,0.230,-0.470
2175,0.195,-0.440
2176,0.140,-0.380
2177,0.225,-0.305
2178,0.255,-0.375
2179,0.250,-0.320
2180,0.260,-0.230
2181,0.215,-0.145
2182,0.165,-0.080
2183,0.130,-0.125
2184,0.095,-0.190
2185,0.105,-0.325
2186,0.110,-0.535
2187,0.110,-0.690
2188,0.105,-0.770
2189,0.065,-0.755
2190,0.085,-0.730
2191,0.080,-0.695
2192,0.005,-0.685
2193,0.010,-0.685
2194,0.020,-0.700
2195,0.060,-0.665
2196,0.055,-0.725
2197,0.045,-0.680
2198,0.150,-0.545
2199,-0.155,-0.565
2200,-1.305,-0.405
2201,-2.045,0.750
2202,-2.335,1.065
2203,-2.130,-0.240
2204,-1.240,-0.380
2205,-0.530,-1.030
2206,-0.085,-1.145
2207,0.280,-0.985
2208,0.310,-0.710
2209,0.255,-0.585
2210,0.305,-0.515
2211,0.325,-0.520
2212,0.345,-0.515
2213,0.355,-0.495
2214,0.395,-0.575
2215,0.385,-0.505
2216,0.315,-0.500
2217,0.355,-0.455
2218,0.390,-0.450
2219,0.415,-0.415
2220,0.475,-0.495
2221,0.520,-0.490
2222,0.525,-0.500
2223,0.500,-0.570
2224,0.430,-0.570
2225,0.450,-0.565
2226,0.460,-0.555
2227,0.460,-0.540
2228,0.470,-0.525
2229,0.470,-0.465
2230,0.405,-0.400
2231,0.345,-0.490
2232,0.305,-0.490
2233,0.280,-0.465
2234,0.250,-0.470
2235,0.205,-0.475
2236,0.215,-0.415
2237,0.255,-0.405
2238,0.205,-0.435
2239,0.150,-0.430
2240,0.130,-0.495
2241,0.120,-0.545
2242,0.135,-0.540
2243,0.150,-0.465
2244,0.155,-0.505
2245,0.110,-0.525
2246,0.095,-0.445
2247,0.140,-0.520
2248,0.125,-0.540
2249,0.090,-0.580
2250,0.095,-0.595
2251,0.115,-0.615
2252,0.165,-0.595
2253,0.175,-0.515
2254,0.170,-0.485
2255,0.160,-0.440
2256,0.150,-0.330
2257,0.130,-0.185
2258,0.080,-0.160
2259,0.055,-0.190
2260,0.000,-0.370
2261,0.000,-0.475
2262,-0.015,-0.550
2263,-0.035,-0.660
2264,-0.045,-0.770
2265,-0.045,-0.785
2266,-0.050,-0.790
2267,-0.025,-0.845
2268,-0.030,-0.810
2269,-0.090,-0.845
2270,-0.100,-0.840
2271,-0.065,-0.745
2272,-0.075,-0.730
2273,-0.065,-0.705
2274,-0.040,-0.640
2275,0.080,-0.545
2276,-0.415,-0.665
2277,-1.690,-0.495
2278,-2.325,0.480
2279,-2.515,0.325
2280,-2.380,-0.895
2281,-1.675,-0.585
2282,-0.645,-1.070
2283,-0.070,-1.075
2284,0.165,-0.855
2285,0.185,-0.630
2286,0.215,-0.590
2287,0.225,-0.585
2288,0.265,-0.565
2289,0.270,-0.490
2290,0.295,-0.445
2291,0.310,-0.405
2292,0.290,-0.415
2293,0.310,-0.430
2294,0.320,-0.455
2295,0.390,-0.505
2296,0.365,-0.465
2297,0.345,-0.470
2298,0.370,-0.455
2299,0.420,-0.415
2300,0.430,-0.430
2301,0.465,-0.395
2302,0.450,-0.440
2303,0.425,-0.490
2304,0.390,-0.460
2305,0.405,-0.465
2306,0.385,-0.415
2307,0.315,-0.340
2308,0.370,-0.260
2309,0.300,-0.230
2310,0.180,-0.270
2311,0.155,-0.220
2312,0.130,-0.250
2313,0.100,-0.290
2314,0.115,-0.335
2315,0.145,-0.370
2316,0.140,-0.340
2317,0.100,-0.310
2318,0.055,-0.320
2319,0.065,-0.330
2320,0.075,-0.395
2321,0.060,-0.420
2322,0.105,-0.425
2323,0.120,-0.450
2324,0.075,-0.430
2325,0.040,-0.405
2326,0.035,-0.395
2327,0.040,-0.355
2328,0.075,-0.410
2329,0.120,-0.450
2330,0.110,-0.425
2331,0.155,-0.370
2332,0.210,-0.330
2333,0.205,-0.275
2334,0.175,-0.070
2335,0.055,0.000
2336,0.025,-0.060
2337,-0.015,-0.125
2338,-0.040,-0.240
2339,-0.040,-0.400
2340,-0.025,-0.575
2341,-0.055,-0.640
2342,-0.050,-0.775
2343,-0.040,-0.705
2344,-0.075,-0.655
2345,-0.040,-0.620
2346,-0.015,-0.570
2347,-0.015,-0.605
2348,-0.045,-0.700
2349,-0.095,-0.675
2350,-0.080,-0.645
2351,-0.070,-0.605
2352,0.030,-0.385
2353,-0.790,-0.505
2354,-1.950,-0.120
2355,-2.410,0.820
2356,-2.535,0.080
2357,-2.350,-0.975
2358,-1.330,-0.780
2359,-0.440,-1.095
2360,0.070,-0.930
2361,0.215,-0.605
2362,0.235,-0.460
2363,0.250,-0.400
2364,0.270,-0.350
2365,0.320,-0.315
2366,0.375,-0.395
2367,0.260,-0.435
2368,0.230,-0.435
2369,0.300,-0.420
2370,0.310,-0.325
2371,0.360,-0.275
2372,0.375,-0.240
2373,0.450,-0.280
2374,0.445,-0.340
2375,0.400,-0.390
2376,0.420,-0.415
2377,0.440,-0.405
2378,0.495,-0.355
2379,0.460,-0.260
2380,0.440,-0.315
2381,0.410,-0.375
2382,0.410,-0.325
2383,0.360,-0.305
2384,0.320,-0.300
2385,0.270,-0.225
2386,0.250,-0.160
2387,0.250,-0.135
2388,0.155,-0.180
2389,0.135,-0.150
2390,0.135,-0.210
2391,0.130,-0.210
2392,0.070,-0.295
2393,0.120,-0.310
2394,0.075,-0.425
2395,0.065,-0.410
2396,0.080,-0.350
2397,0.105,-0.310
2398,0.120,-0.315
2399,0.130,-0.390
2400,0.120,-0.405
2401,0.105,-0.460
2402,0.075,-0.465
2403,0.065,-0.455
2404,0.115,-0.400
2405,0.180,-0.365
2406,0.205,-0.335
2407,0.225,-0.290
2408,0.255,-0.150
2409,0.250,-0.005
2410,0.155,-0.025
2411,0.130,-0.045
2412,0.065,-0.065
2413,0.015,-0.130
2414,0.025,-0.220
2415,0.065,-0.370
2416,0.035,-0.495
2417,0.005,-0.615
2418,0.010,-0.640
2419,-0.005,-0.660
2420,0.020,-0.630
2421,0.010,-0.555
2422,0.010,-0.540
2423,0.000,-0.565
2424,0.005,-0.575
2425,0.000,-0.550
2426,0.020,-0.520
2427,0.130,-0.400
2428,-0.590,-0.600
2429,-1.775,-0.380
2430,-2.385,0.640
2431,-2.515,0.295
2432,-2.305,-0.825
2433,-1.160,-0.600
2434,-0.370,-1.020
2435,0.125,-0.945
2436,0.250,-0.690
2437,0.275,-0.530
2438,0.280,-0.480
2439,0.305,-0.435
2440,0.345,-0.380
2441,0.360,-0.380
2442,0.370,-0.375
2443,0.310,-0.375
2444,0.335,-0.380
2445,0.340,-0.400
2446,0.345,-0.395
2447,0.365,-0.400
2448,0.440,-0.445
2449,0.450,-0.445
2450,0.460,-0.480
2451,0.485,-0.430
2452,0.505,-0.410
2453,0.495,-0.485
2454,0.500,-0.545
2455,0.495,-0.530
2456,0.465,-0.505
2457,0.420,-0.480
2458,0.410,-0.370
2459,0.430,-0.320
2460,0.360,-0.275
2461,0.240,-0.285
2462,0.175,-0.375
2463,0.180,-0.385
2464,0.180,-0.385
2465,0.175,-0.370
2466,0.155,-0.375
2467,0.175,-0.465
2468,0.130,-0.455
2469,0.115,-0.430
2470,0.120,-0.435
2471,0.110,-0.525
2472,0.130,-0.495
2473,0.105,-0.485
2474,0.140,-0.500
2475,0.135,-0.460
2476,0.100,-0.460
2477,0.080,-0.425
2478,0.085,-0.420
2479,0.125,-0.345
2480,0.205,-0.405
2481,0.200,-0.490
2482,0.205,-0.375
2483,0.185,-0.210
2484,0.155,-0.015
2485,0.125,0.025
2486,0.100,-0.040
2487,0.085,-0.200
2488,0.085,-0.370
2489,0.015,-0.475
2490,0.000,-0.595
2491,0.010,-0.600
2492,0.015,-0.610
2493,0.045,-0.655
2494,0.075,-0.675
2495,0.140,-0.700
2496,-0.010,-0.735
2497,0.000,-0.650
2498,-0.015,-0.665
2499,0.000,-0.705
2500,0.000,-0.660
2501,0.155,-0.475
2502,-0.455,-0.460
2503,-1.705,0.080
2504,-2.280,1.240
2505,-2.405,0.210
2506,-2.080,-0.555
2507,-0.965,-0.665
2508,-0.220,-1.085
2509,0.225,-0.855
2510,0.245,-0.560
2511,0.295,-0.500
2512,0.320,-0.525
2513,0.320,-0.580
2514,0.365,-0.570
2515,0.315,-0.545
2516,0.335,-0.500
2517,0.345,-0.395
2518,0.370,-0.350
2519,0.385,-0.355
2520,0.480,-0.435
2521,0.375,-0.480
2522,0.425,-0.485
2523,0.440,-0.465
2524,0.450,-0.470
2525,0.480,-0.460
2526,0.470,-0.465
2527,0.525,-0.510
2528,0.525,-0.540
2529,0.515,-0.500
2530,0.455,-0.525
2531,0.410,-0.520
2532,0.365,-0.470
2533,0.315,-0.430
2534,0.285,-0.320
2535,0.310,-0.285
2536,0.305,-0.310
2537,0.220,-0.355
2538,0.220,-0.435
2539,0.230,-0.435
2540,0.215,-0.435
2541,0.175,-0.430
2542,0.190,-0.410
2543,0.200,-0.360
2544,0.240,-0.415
2545,0.245,-0.390
2546,0.155,-0.425
2547,0.130,-0.445
2548,0.120,-0.440
2549,0.115,-0.485
2550,0.140,-0.530
2551,0.190,-0.505
2552,0.140,-0.480
2553,0.170,-0.420
2554,0.215,-0.375
2555,0.250,-0.305
2556,0.240,-0.295
2557,0.230,-0.135
2558,0.090,-0.160
2559,0.020,-0.190
2560,0.015,-0.225
2561,0.020,-0.310
2562,0.090,-0.445
2563,0.080,-0.540
2564,0.000,-0.710
2565,-0.035,-0.805
2566,-0.040,-0.805
2567,-0.025,-0.740
2568,0.005,-0.710
2569,0.000,-0.605
2570,-0.045,-0.625
2571,-0.060,-0.620
2572,-0.040,-0.615
2573,-0.020,-0.635
2574,0.090,-0.505
2575,-0.830,-0.560
2576,-1.990,-0.105
2577,-2.365,0.860
2578,-2.465,0.185
2579,-2.095,-0.615
2580,-0.875,-0.830
2581,-0.195,-1.090
2582,0.160,-0.900
2583,0.175,-0.635
2584,0.230,-0.550
2585,0.245,-0.515
2586,0.280,-0.460
2587,0.275,-0.365
2588,0.260,-0.255
2589,0.280,-0.360
2590,0.310,-0.400
2591,0.330,-0.405
2592,0.355,-0.395
2593,0.400,-0.385
2594,0.310,-0.385
2595,0.305,-0.355
2596,0.355,-0.330
2597,0.400,-0.335
2598,0.430,-0.350
2599,0.465,-0.395
2600,0.435,-0.400
2601,0.385,-0.420
2602,0.320,-0.420
2603,0.330,-0.390
2604,0.285,-0.330
2605,0.270,-0.255
2606,0.280,-0.185
2607,0.210,-0.130
2608,0.150,-0.155
2609,0.105,-0.220
2610,0.085,-0.230
2611,0.105,-0.250
2612,0.115,-0.240
2613,0.070,-0.185
2614,0.050,-0.160
2615,0.065,-0.210
2616,0.055,-0.245
2617,0.105,-0.330
2618,0.085,-0.355
2619,0.060,-0.355
2620,0.025,-0.360
2621,0.070,-0.335
2622,0.085,-0.300
2623,0.105,-0.280
2624,0.105,-0.325
2625,0.070,-0.300
2626,0.080,-0.305
2627,0.135,-0.280
2628,0.150,-0.180
2629,0.195,-0.065
2630,0.150,0.040
2631,0.070,0.100
2632,0.030,0.085
2633,0.005,0.005
2634,0.000,-0.090
2635,0.020,-0.255
2636,0.005,-0.460
2637,-0.060,-0.590
2638,-0.040,-0.565
2639,-0.040,-0.560
2640,-0.015,-0.500
2641,0.020,-0.420
2642,-0.025,-0.400
2643,-0.050,-0.355
2644,-0.065,-0.475
2645,-0.050,-0.505
2646,-0.030,-0.475
2647,0.035,-0.345
2648,-0.265,-0.250
2649,-1.535,-0.305
2650,-2.225,0.480
2651,-2.470,0.900
2652,-2.395,-0.620
2653,-1.600,-0.570
2654,-0.625,-0.910
2655,-0.030,-0.835
2656,0.205,-0.560
2657,0.265,-0.250
2658,0.325,-0.160
2659,0.325,-0.135
2660,0.285,-0.125
2661,0.305,-0.115
2662,0.370,-0.065
2663,0.340,-0.115
2664,0.335,-0.120
2665,0.335,-0.070
2666,0.385,-0.075
2667,0.450,-0.050
2668,0.460,-0.025
2669,0.465,-0.060
2670,0.475,-0.075
2671,0.490,-0.115
2672,0.485,-0.135
2673,0.455,-0.125
2674,0.480,-0.065
2675,0.490,-0.005
2676,0.490,0.000
2677,0.470,-0.010
2678,0.420,-0.035
2679,0.370,-0.010
2680,0.320,0.005
2681,0.265,0.065
2682,0.230,0.160
2683,0.230,0.120
2684,0.205,0.060
2685,0.170,0.010
2686,0.170,0.015
2687,0.140,-0.040
2688,0.110,-0.060
2689,0.140,-0.035
2690,0.105,-0.065
2691,0.075,-0.130
2692,0.090,-0.090
2693,0.110,-0.070
2694,0.130,-0.095
2695,0.110,-0.135
2696,0.095,-0.215
2697,0.095,-0.250
2698,0.100,-0.245
2699,0.110,-0.185
2700,0.110,-0.085
2701,0.180,-0.110
2702,0.225,-0.065
2703,0.240,0.005
2704,0.245,0.115
2705,0.200,0.250
2706,0.125,0.290
2707,0.070,0.240
2708,0.025,0.170
2709,0.045,0.105
2710,0.040,0.000
2711,0.075,-0.160
2712,0.035,-0.340
2713,0.000,-0.410
2714,0.020,-0.420
2715,0.015,-0.405
2716,-0.035,-0.395
2717,0.000,-0.300
2718,0.000,-0.280
2719,0.005,-0.280
2720,0.035,-0.285
2721,0.020,-0.295
2722,0.030,-0.295
2723,0.055,-0.190
2724,-0.815,-0.340
2725,-1.940,0.020
2726,-2.345,0.925
2727,-2.515,0.450
2728,-2.250,-0.685
2729,-1.180,-0.470
2730,-0.370,-0.860
2731,0.135,-0.695
2732,0.195,-0.510
2733,0.225,-0.305
2734,0.270,-0.225
2735,0.285,-0.235
2736,0.295,-0.165
2737,0.305,-0.095
2738,0.365,-0.085
2739,0.330,-0.150
2740,0.340,-0.145
2741,0.360,-0.215
2742,0.355,-0.240
2743,0.380,-0.215
2744,0.435,-0.170
2745,0.475,-0.105
2746,0.440,-0.120
2747,0.460,-0.215
2748,0.465,-0.270
2749,0.470,-0.330
2750,0.480,-0.300
2751,0.495,-0.250
2752,0.570,-0.330
2753,0.485,-0.285
2754,0.430,-0.245
2755,0.405,-0.200
2756,0.380,-0.170
2757,0.330,-0.105
2758,0.315,-0.150
2759,0.255,-0.210
2760,0.240,-0.195
2761,0.200,-0.210
2762,0.175,-0.190
2763,0.140,-0.170
2764,0.135,-0.165
2765,0.140,-0.205
2766,0.145,-0.290
2767,0.125,-0.370
2768,0.110,-0.405
2769,0.105,-0.365
2770,0.145,-0.345
2771,0.130,-0.320
2772,0.110,-0.300
2773,0.085,-0.300
2774,0.100,-0.300
2775,0.120,-0.305
2776,0.120,-0.360
2777,0.140,-0.355
2778,0.170,-0.275
2779,0.180,-0.320
2780,0.195,-0.260
2781,0.195,-0.120
2782,0.215,0.085
2783,0.185,0.175
2784,0.130,0.115
2785,0.060,0.055
2786,0.040,-0.095
2787,0.075,-0.245
2788,0.070,-0.400
2789,0.070,-0.500
2790,0.040,-0.490
2791,0.095,-0.490
2792,0.130,-0.530
2793,0.025,-0.500
2794,0.005,-0.565
2795,0.005,-0.615
2796,0.000,-0.585
2797,0.030,-0.560
2798,0.035,-0.405
2799,0.045,-0.390
2800,0.085,-0.450
2801,0.165,-0.250
2802,-0.765,-0.340
2803,-1.825,0.225
2804,-2.245,1.320
2805,-2.345,0.335
2806,-2.040,-0.400
2807,-1.030,-0.405
2808,-0.305,-0.890
2809,0.180,-0.780
2810,0.300,-0.500
2811,0.360,-0.365
2812,0.365,-0.380
2813,0.345,-0.395
2814,0.350,-0.425
2815,0.330,-0.410
2816,0.350,-0.350
2817,0.385,-0.290
2818,0.440,-0.260
2819,0.410,-0.225
2820,0.390,-0.265
2821,0.415,-0.290
2822,0.450,-0.375
2823,0.500,-0.350
2824,0.500,-0.365
2825,0.500,-0.310
2826,0.510,-0.250
2827,0.535,-0.325
2828,0.550,-0.320
2829,0.550,-0.360
2830,0.565,-0.440
2831,0.540,-0.410
2832,0.505,-0.375
2833,0.385,-0.330
2834,0.355,-0.240
2835,0.340,-0.200
2836,0.310,-0.185
2837,0.310,-0.175
2838,0.330,-0.170
2839,0.285,-0.215
2840,0.250,-0.290
2841,0.210,-0.255
2842,0.205,-0.295
2843,0.195,-0.325
2844,0.175,-0.245
2845,0.220,-0.200
2846,0.245,-0.160
2847,0.180,-0.160
2848,0.170,-0.215
2849,0.180,-0.335
2850,0.150,-0.320
2851,0.175,-0.315
2852,0.175,-0.295
2853,0.160,-0.250
2854,0.160,-0.245
2855,0.165,-0.260
2856,0.260,-0.260
2857,0.335,-0.280
2858,0.280,-0.255
2859,0.195,-0.165
2860,0.155,-0.005
2861,0.120,0.100
2862,0.115,0.075
2863,0.045,-0.050
2864,0.080,-0.150
2865,0.070,-0.285
2866,0.065,-0.450
2867,0.010,-0.600
2868,-0.005,-0.625
2869,0.040,-0.640
2870,0.060,-0.595
2871,-0.010,-0.555
2872,0.000,-0.535
2873,-0.015,-0.530
2874,-0.020,-0.555
2875,-0.010,-0.590
2876,-0.005,-0.585
2877,0.000,-0.570
2878,0.105,-0.385
2879,-0.765,-0.425
2880,-2.000,0.050
2881,-2.380,1.230
2882,-2.485,0.625
2883,-2.185,-0.450
2884,-1.080,-0.560
2885,-0.340,-1.045
2886,0.105,-0.885
2887,0.205,-0.600
2888,0.245,-0.380
2889,0.290,-0.335
2890,0.325,-0.285
2891,0.360,-0.240
2892,0.300,-0.185
2893,0.310,-0.315
2894,0.350,-0.360
2895,0.325,-0.320
2896,0.340,-0.275
2897,0.370,-0.215
2898,0.410,-0.230
2899,0.430,-0.200
2900,0.420,-0.245
2901,0.460,-0.290
2902,0.450,-0.315
2903,0.430,-0.310
2904,0.470,-0.335
2905,0.440,-0.285
2906,0.390,-0.235
2907,0.415,-0.190
2908,0.385,-0.220
2909,0.375,-0.240
2910,0.355,-0.180
2911,0.230,-0.130
2912,0.180,-0.095
2913,0.155,-0.045
2914,0.180,0.015
2915,0.205,0.015
2916,0.225,-0.040
2917,0.170,-0.080
2918,0.140,-0.070
2919,0.130,-0.120
2920,0.120,-0.130
2921,0.115,-0.125
2922,0.150,-0.145
2923,0.140,-0.105
2924,0.145,-0.055
2925,0.100,-0.065
2926,0.120,-0.110
2927,0.130,-0.115
2928,0.110,-0.145
2929,0.140,-0.170
2930,0.140,-0.200
2931,0.185,-0.105
2932,0.225,-0.065
2933,0.275,-0.015
2934,0.280,0.145
2935,0.225,0.195
2936,0.110,0.200
2937,0.090,0.195
2938,0.055,0.115
2939,0.035,0.030
2940,0.085,-0.060
2941,0.065,-0.220
2942,0.050,-0.330
2943,0.050,-0.365
2944,0.055,-0.385
2945,0.050,-0.360
2946,0.015,-0.335
2947,0.015,-0.340
2948,0.035,-0.315
2949,0.055,-0.290
2950,0.030,-0.255
2951,0.000,-0.235
2952,0.065,-0.195
2953,-0.050,-0.125
2954,-1.310,-0.335
2955,-2.215,0.350
2956,-2.560,0.985
2957,-2.545,-0.355
2958,-1.830,-0.410
2959,-0.690,-0.690
2960,-0.020,-0.655
2961,0.300,-0.460
2962,0.275,-0.235
2963,0.330,-0.190
2964,0.360,-0.105
2965,0.355,-0.095
2966,0.345,-0.035
2967,0.380,0.005
2968,0.410,0.040
2969,0.410,0.025
2970,0.410,0.005
2971,0.425,0.000
2972,0.445,0.000
2973,0.495,-0.055
2974,0.505,-0.030
2975,0.560,0.005
2976,0.590,0.015
2977,0.550,0.115
2978,0.530,0.015
2979,0.545,-0.090
2980,0.545,-0.095
2981,0.500,-0.060
2982,0.490,0.000
2983,0.445,0.060
2984,0.435,0.130
2985,0.330,0.155
2986,0.290,0.115
2987,0.265,0.110
2988,0.265,0.075
2989,0.170,0.075
2990,0.135,0.045
2991,0.170,0.035
2992,0.130,-0.010
2993,0.155,-0.020
2994,0.150,-0.010
2995,0.180,-0.035
2996,0.115,-0.130
2997,0.080,-0.210
2998,0.120,-0.200
2999,0.120,-0.165
3000,0.120,-0.145
3001,0.115,-0.180
3002,0.150,-0.190
3003,0.105,-0.160
3004,0.110,-0.155
3005,0.200,-0.115
3006,0.240,-0.135
3007,0.260,-0.090
3008,0.265,0.040
3009,0.200,0.320
3010,0.135,0.300
3011,0.105,0.270
3012,0.065,0.195
3013,0.060,-0.035
3014,0.085,-0.250
3015,0.075,-0.400
3016,0.010,-0.445
3017,0.000,-0.360
3018,0.015,-0.270
3019,0.015,-0.290
3020,0.030,-0.375
3021,0.010,-0.380
3022,0.005,-0.375
3023,0.015,-0.330
3024,0.010,-0.355
3025,0.050,-0.250
3026,0.035,-0.125
3027,-1.225,-0.285
3028,-2.260,0.530
3029,-2.615,0.905
3030,-2.615,-0.805
3031,-2.145,-0.665
3032,-0.805,-0.865
3033,-0.090,-0.830
3034,0.225,-0.490
3035,0.245,-0.195
3036,0.290,-0.140
3037,0.315,-0.120
3038,0.330,-0.095
3039,0.330,-0.095
3040,0.355,-0.105
3041,0.310,-0.135
3042,0.315,-0.115
3043,0.350,-0.055
3044,0.400,-0.045
3045,0.420,-0.010
3046,0.420,-0.060
3047,0.425,-0.095
3048,0.460,-0.150
3049,0.510,-0.175
3050,0.510,-0.160
3051,0.515,-0.150
3052,0.475,-0.065
3053,0.485,-0.060
3054,0.470,-0.035
3055,0.450,-0.095
3056,0.425,-0.105
3057,0.340,-0.100
3058,0.310,-0.095
3059,0.265,-0.040
3060,0.210,0.015
3061,0.195,0.030
3062,0.185,-0.020
3063,0.170,-0.070
3064,0.125,-0.110
3065,0.110,-0.160
3066,0.120,-0.250
3067,0.120,-0.265
3068,0.140,-0.285
3069,0.120,-0.240
3070,0.125,-0.165
3071,0.065,-0.245
3072,0.055,-0.330
3073,0.060,-0.395
3074,0.075,-0.400
3075,0.065,-0.370
3076,0.105,-0.340
3077,0.145,-0.265
3078,0.195,-0.200
3079,0.215,-0.160
3080,0.230,-0.100
3081,0.185,0.015
3082,0.115,0.100
3083,0.105,0.115
3084,0.045,0.040
3085,0.000,-0.060
3086,0.025,-0.150
3087,0.065,-0.320
3088,0.005,-0.550
3089,0.015,-0.585
3090,-0.020,-0.625
3091,0.000,-0.660
3092,0.000,-0.640
3093,-0.040,-0.620
3094,-0.050,-0.525
3095,0.000,-0.465
3096,0.000,-0.430
3097,-0.015,-0.365
3098,0.060,-0.325
3099,-0.275,-0.365
3100,-1.615,-0.255
3101,-2.330,0.950
3102,-2.605,0.950
3103,-2.455,-0.430
3104,-1.465,-0.320
3105,-0.445,-0.865
3106,0.110,-0.855
3107,0.260,-0.575
3108,0.215,-0.470
3109,0.235,-0.425
3110,0.265,-0.445
3111,0.305,-0.455
3112,0.330,-0.420
3113,0.355,-0.330
3114,0.375,-0.315
3115,0.395,-0.310
3116,0.365,-0.335
3117,0.395,-0.425
3118,0.415,-0.395
3119,0.395,-0.420
3120,0.435,-0.395
3121,0.475,-0.385
3122,0.440,-0.385
3123,0.455,-0.365
3124,0.470,-0.410
3125,0.490,-0.485
3126,0.435,-0.475
3127,0.435,-0.450
3128,0.425,-0.455
3129,0.365,-0.355
3130,0.320,-0.325
3131,0.320,-0.325
3132,0.240,-0.330
3133,0.215,-0.330
3134,0.175,-0.320
3135,0.155,-0.345
3136,0.175,-0.370
3137,0.185,-0.420
3138,0.150,-0.350
3139,0.140,-0.335
3140,0.080,-0.375
3141,0.060,-0.370
3142,0.070,-0.380
3143,0.085,-0.400
3144,0.095,-0.425
3145,0.120,-0.355
3146,0.110,-0.295
3147,0.110,-0.300
3148,0.140,-0.305
3149,0.085,-0.370
3150,0.075,-0.365
3151,0.140,-0.340
3152,0.185,-0.370
3153,0.200,-0.260
3154,0.230,-0.160
3155,0.175,0.040
3156,0.085,0.065
3157,0.045,0.040
3158,0.010,-0.085
3159,0.025,-0.265
3160,0.020,-0.385
3161,-0.005,-0.550
3162,-0.025,-0.640
3163,-0.015,-0.645
3164,-0.015,-0.590
3165,-0.005,-0.555
3166,-0.010,-0.555
3167,-0.060,-0.570
3168,-0.070,-0.620
3169,-0.055,-0.635
3170,-0.045,-0.600
3171,-0.045,-0.575
3172,0.045,-0.500
3173,-0.390,-0.420
3174,-1.755,-0.125
3175,-2.345,1.025
3176,-2.555,1.060
3177,-2.380,-0.420
3178,-1.370,-0.335
3179,-0.495,-0.985
3180,-0.010,-0.985
3181,0.150,-0.660
3182,0.180,-0.410
3183,0.225,-0.390
3184,0.285,-0.370
3185,0.310,-0.380
3186,0.305,-0.365
3187,0.290,-0.325
3188,0.275,-0.340
3189,0.260,-0.310
3190,0.290,-0.295
3191,0.330,-0.270
3192,0.375,-0.245
3193,0.435,-0.210
3194,0.405,-0.235
3195,0.335,-0.340
3196,0.370,-0.370
3197,0.380,-0.385
3198,0.400,-0.380
3199,0.370,-0.290
3200,0.385,-0.265
3201,0.400,-0.260
3202,0.360,-0.245
3203,0.270,-0.270
3204,0.210,-0.260
3205,0.170,-0.230
3206,0.200,-0.170
3207,0.120,-0.075
3208,0.050,-0.035
3209,0.045,-0.095
3210,0.075,-0.075
3211,0.085,-0.095
3212,0.080,-0.130
3213,0.025,-0.195
3214,0.040,-0.195
3215,0.015,-0.215
3216,0.005,-0.175
3217,0.030,-0.180
3218,0.055,-0.195
3219,0.110,-0.195
3220,0.085,-0.225
3221,-0.040,-0.215
3222,-0.050,-0.260
3223,-0.025,-0.300
3224,-0.005,-0.305
3225,0.045,-0.295
3226,0.115,-0.190
3227,0.175,-0.110
3228,0.220,-0.005
3229,0.090,0.065
3230,0.000,0.180
3231,-0.015,0.130
3232,-0.030,0.035
3233,-0.050,-0.025
3234,-0.010,-0.100
3235,0.005,-0.210
3236,-0.025,-0.340
3237,-0.105,-0.420
3238,-0.095,-0.410
3239,-0.070,-0.415
3240,-0.090,-0.475
3241,-0.095,-0.470
3242,-0.085,-0.445
3243,-0.090,-0.430
3244,-0.055,-0.340
3245,-0.085,-0.345
3246,-0.110,-0.325
3247,-0.035,-0.245
3248,-0.155,-0.205
3249,-1.380,-0.390
3250,-2.280,0.200
3251,-2.640,0.940
3252,-2.670,-0.190
3253,-2.180,-0.615
3254,-1.035,-0.680
3255,-0.275,-0.815
3256,0.080,-0.620
3257,0.165,-0.385
3258,0.215,-0.240
3259,0.220,-0.185
3260,0.205,-0.225
3261,0.230,-0.210
3262,0.240,-0.170
3263,0.255,-0.090
3264,0.300,0.015
3265,0.330,-0.065
3266,0.305,-0.115
3267,0.325,-0.085
3268,0.335,-0.125
3269,0.340,-0.125
3270,0.365,-0.110
3271,0.385,-0.100
3272,0.420,-0.090
3273,0.430,-0.105
3274,0.485,-0.110
3275,0.500,-0.090
3276,0.440,-0.100
3277,0.395,-0.110
3278,0.380,-0.070
3279,0.355,-0.050
3280,0.315,-0.035
3281,0.320,-0.010
3282,0.235,0.075
3283,0.155,0.135
3284,0.135,0.130
3285,0.140,0.105
3286,0.090,0.000
3287,0.100,-0.125
3288,0.055,-0.110
3289,0.055,-0.100
3290,0.040,-0.130
3291,0.025,-0.110
3292,0.045,-0.115
3293,0.065,-0.135
3294,0.080,-0.160
3295,0.030,-0.220
3296,0.030,-0.265
3297,0.010,-0.295
3298,-0.015,-0.285
3299,0.000,-0.240
3300,0.045,-0.200
3301,0.040,-0.205
3302,0.100,-0.175
3303,0.170,-0.145
3304,0.155,-0.120
3305,0.150,-0.055
3306,0.115,0.135
3307,0.060,0.205
3308,0.085,0.170
3309,0.005,0.160
3310,-0.015,0.095
3311,-0.010,-0.070
3312,-0.015,-0.275
3313,-0.045,-0.370
3314,-0.055,-0.485
3315,-0.030,-0.500
3316,-0.015,-0.480
3317,-0.040,-0.490
3318,-0.100,-0.425
3319,-0.065,-0.350
3320,-0.060,-0.330
3321,-0.065,-0.315
3322,-0.065,-0.370
3323,-0.040,-0.350
3324,0.055,-0.290
3325,-0.095,-0.220
3326,-1.445,-0.445
3327,-2.395,0.330
3328,-2.680,0.975
3329,-2.695,-0.595
3330,-2.270,-0.760
3331,-1.020,-0.765
3332,-0.280,-0.975
3333,0.100,-0.740
3334,0.170,-0.435
3335,0.205,-0.310
3336,0.200,-0.280
3337,0.230,-0.220
3338,0.280,-0.170
3339,0.295,-0.160
3340,0.260,-0.145
3341,0.320,-0.195
3342,0.290,-0.230
3343,0.260,-0.160
3344,0.295,-0.280
3345,0.345,-0.300
3346,0.360,-0.230
3347,0.405,-0.210
3348,0.470,-0.210
3349,0.450,-0.220
3350,0.415,-0.235
3351,0.415,-0.340
3352,0.435,-0.385
3353,0.445,-0.375
3354,0.435,-0.350
3355,0.430,-0.300
3356,0.410,-0.250
3357,0.330,-0.240
3358,0.275,-0.230
3359,0.260,-0.175
3360,0.210,-0.185
3361,0.180,-0.195
3362,0.125,-0.210
3363,0.110,-0.350
3364,0.070,-0.400
3365,0.040,-0.325
3366,0.070,-0.320
3367,0.040,-0.365
3368,0.050,-0.415
3369,0.020,-0.425
3370,0.055,-0.445
3371,0.025,-0.445
3372,0.020,-0.460
3373,0.015,-0.460
3374,0.020,-0.425
3375,0.055,-0.430
3376,0.065,-0.420
3377,0.020,-0.410
3378,0.045,-0.470
3379,0.025,-0.430
3380,0.090,-0.455
3381,0.130,-0.365
3382,0.140,-0.315
3383,0.095,-0.130
3384,0.030,0.010
3385,0.015,0.035
3386,-0.005,-0.050
3387,0.010,-0.235
3388,-0.015,-0.395
3389,-0.075,-0.525
3390,-0.095,-0.690
3391,-0.070,-0.820
3392,-0.070,-0.775
3393,-0.040,-0.700
3394,-0.010,-0.670
3395,-0.065,-0.630
3396,-0.045,-0.705
3397,-0.030,-0.770
3398,-0.105,-0.740
3399,-0.085,-0.755
3400,-0.070,-0.745
3401,0.005,-0.655
3402,-0.225,-0.455
3403,-1.485,-0.325
3404,-2.320,0.715
3405,-2.630,1.165
3406,-2.550,-0.285
3407,-1.850,-0.515
3408,-0.705,-1.010
3409,-0.085,-1.205
3410,0.165,-0.935
3411,0.180,-0.655
3412,0.240,-0.510
3413,0.285,-0.505
3414,0.235,-0.540
3415,0.260,-0.595
3416,0.280,-0.600
3417,0.275,-0.565
3418,0.245,-0.605
3419,0.280,-0.605
3420,0.325,-0.520
3421,0.360,-0.510
3422,0.410,-0.500
3423,0.375,-0.525
3424,0.390,-0.525
3425,0.420,-0.565
3426,0.480,-0.590
3427,0.470,-0.575
3428,0.415,-0.665
3429,0.470,-0.630
3430,0.480,-0.575
3431,0.445,-0.560
3432,0.410,-0.635
3433,0.325,-0.645
3434,0.325,-0.595
3435,0.265,-0.520
3436,0.245,-0.515
3437,0.210,-0.485
3438,0.180,-0.425
3439,0.205,-0.445
3440,0.195,-0.465
3441,0.150,-0.485
3442,0.145,-0.515
3443,0.150,-0.590
3444,0.135,-0.615
3445,0.130,-0.595
3446,0.090,-0.545
3447,0.085,-0.465
3448,0.125,-0.485
3449,0.160,-0.470
3450,0.175,-0.480
3451,0.095,-0.570
3452,0.050,-0.605
3453,0.060,-0.610
3454,0.070,-0.595
3455,0.195,-0.550
3456,0.245,-0.500
3457,0.220,-0.390
3458,0.190,-0.375
3459,0.135,-0.190
3460,0.085,-0.220
3461,0.080,-0.260
3462,0.030,-0.375
3463,0.000,-0.460
3464,0.030,-0.525
3465,0.015,-0.660
3466,-0.020,-0.750
3467,-0.040,-0.825
3468,-0.025,-0.870
3469,-0.040,-0.895
3470,-0.040,-0.850
3471,-0.050,-0.845
3472,-0.065,-0.765
3473,-0.055,-0.760
3474,-0.025,-0.730
3475,-0.035,-0.725
3476,0.010,-0.610
3477,-0.170,-0.565
3478,-1.560,-0.600
3479,-2.365,0.425
3480,-2.610,1.030
3481,-2.535,-0.490
3482,-1.645,-0.530
3483,-0.590,-1.055
3484,0.000,-1.060
3485,0.195,-0.815
3486,0.205,-0.560
3487,0.220,-0.580
3488,0.240,-0.560
3489,0.295,-0.535
3490,0.290,-0.490
3491,0.275,-0.460
3492,0.280,-0.415
3493,0.295,-0.390
3494,0.320,-0.370
3495,0.350,-0.405
3496,0.290,-0.460
3497,0.335,-0.435
3498,0.310,-0.430
3499,0.375,-0.435
3500,0.410,-0.410
3501,0.395,-0.410
3502,0.380,-0.385
3503,0.380,-0.410
3504,0.345,-0.495
3505,0.335,-0.505
3506,0.320,-0.465
3507,0.230,-0.425
3508,0.215,-0.360
3509,0.175,-0.255
3510,0.150,-0.220
3511,0.080,-0.200
3512,0.075,-0.190
3513,0.090,-0.240
3514,0.060,-0.300
3515,0.030,-0.315
3516,0.055,-0.315
3517,0.065,-0.265
3518,0.110,-0.245
3519,0.075,-0.280
3520,0.035,-0.305
3521,0.050,-0.285
3522,0.035,-0.400
3523,0.065,-0.450
3524,0.025,-0.445
3525,0.030,-0.455
3526,0.020,-0.375
3527,0.060,-0.365
3528,0.130,-0.330
3529,0.200,-0.325
3530,0.200,-0.305
3531,0.175,-0.230
3532,0.070,-0.070
3533,0.025,-0.010
3534,0.000,-0.035
3535,-0.040,-0.095
3536,-0.045,-0.145
3537,-0.020,-0.325
3538,-0.055,-0.480
3539,-0.075,-0.700
3540,-0.065,-0.740
3541,-0.075,-0.690
3542,-0.070,-0.660
3543,-0.065,-0.560
3544,-0.020,-0.520
3545,-0.075,-0.545
3546,-0.065,-0.540
3547,-0.050,-0.540
3548,-0.070,-0.520
3549,-0.005,-0.410
3550,-0.980,-0.565
3551,-2.185,-0.130
3552,-2.620,0.820
3553,-2.720,-0.065
3554,-2.285,-0.850
3555,-1.045,-0.875
3556,-0.240,-1.060
3557,0.135,-0.800
3558,0.205,-0.525
3559,0.225,-0.395
3560,0.275,-0.215
3561,0.330,-0.205
3562,0.260,-0.290
3563,0.235,-0.270
3564,0.235,-0.255
3565,0.305,-0.270
3566,0.315,-0.240
3567,0.350,-0.235
3568,0.370,-0.150
3569,0.435,-0.135
3570,0.445,-0.150
3571,0.470,-0.165
3572,0.460,-0.250
3573,0.495,-0.275
3574,0.485,-0.235
3575,0.515,-0.225
3576,0.450,-0.220
3577,0.430,-0.155
3578,0.445,-0.130
3579,0.400,-0.100
3580,0.350,-0.090
3581,0.275,-0.065
3582,0.260,-0.090
3583,0.220,-0.040
3584,0.160,-0.035
3585,0.110,-0.015
3586,0.115,-0.045
3587,0.120,-0.140
3588,0.115,-0.105
3589,0.100,-0.240
3590,0.060,-0.270
3591,0.045,-0.285
3592,0.050,-0.295
3593,0.040,-0.240
3594,0.080,-0.250
3595,0.095,-0.255
3596,0.020,-0.260
3597,0.045,-0.300
3598,0.040,-0.380
3599,0.045,-0.340
3600,0.075,-0.320
3601,0.160,-0.310
3602,0.185,-0.170
3603,0.235,-0.005
3604,0.195,0.120
3605,0.075,0.185
3606,0.005,0.215
3607,-0.050,0.120
3608,-0.005,-0.080
3609,-0.030,-0.225
3610,-0.050,-0.420
3611,-0.015,-0.505
3612,-0.025,-0.505
3613,-0.020,-0.480
3614,-0.070,-0.460
3615,-0.075,-0.515
3616,-0.065,-0.525
3617,-0.070,-0.490
3618,-0.070,-0.465
3619,-0.080,-0.385
3620,-0.075,-0.370
3621,0.000,-0.205
3622,-0.190,-0.175
3623,-1.590,-0.385
3624,-2.505,0.565
3625,-2.730,0.435
3626,-2.635,-1.020
3627,-1.835,-0.555
3628,-0.660,-0.955
3629,-0.005,-0.800
3630,0.190,-0.535
3631,0.210,-0.355
3632,0.215,-0.325
3633,0.205,-0.315
3634,0.235,-0.310
3635,0.245,-0.295
3636,0.235,-0.270
3637,0.245,-0.205
3638,0.290,-0.190
3639,0.315,-0.175
3640,0.335,-0.215
3641,0.310,-0.275
3642,0.340,-0.325
3643,0.350,-0.325
3644,0.380,-0.355
3645,0.425,-0.305
3646,0.430,-0.310
3647,0.435,-0.365
3648,0.440,-0.325
3649,0.460,-0.315
3650,0.405,-0.325
3651,0.360,-0.340
3652,0.345,-0.325
3653,0.305,-0.280
3654,0.240,-0.245
3655,0.200,-0.235
3656,0.160,-0.200
3657,0.180,-0.255
3658,0.140,-0.315
3659,0.060,-0.375
3660,0.055,-0.380
3661,0.055,-0.410
3662,0.015,-0.450
3663,0.030,-0.345
3664,0.050,-0.325
3665,0.055,-0.395
3666,0.055,-0.435
3667,0.025,-0.430
3668,0.055,-0.460
3669,0.065,-0.510
3670,0.045,-0.500
3671,0.070,-0.500
3672,0.045,-0.450
3673,0.105,-0.360
3674,0.170,-0.335
3675,0.195,-0.320
3676,0.210,-0.285
3677,0.170,-0.180
3678,0.155,-0.010
3679,0.075,-0.005
3680,0.000,-0.065
3681,-0.045,-0.070
3682,-0.010,-0.225
3683,0.000,-0.340
3684,-0.005,-0.490
3685,-0.035,-0.655
3686,-0.035,-0.730
3687,-0.040,-0.770
3688,-0.005,-0.720
3689,0.005,-0.705
3690,-0.010,-0.610
3691,-0.010,-0.620
3692,-0.020,-0.580
3693,0.000,-0.600
3694,-0.025,-0.665
3695,-0.020,-0.535
3696,-0.160,-0.445
3697,-1.440,-0.340
3698,-2.265,0.710
3699,-2.570,1.020
3700,-2.460,-0.320
3701,-1.695,-0.260
3702,-0.640,-0.840
3703,-0.055,-1.085
3704,0.200,-0.795
3705,0.245,-0.575
3706,0.310,-0.605
3707,0.295,-0.530
3708,0.305,-0.480
3709,0.305,-0.465
3710,0.290,-0.435
3711,0.310,-0.460
3712,0.360,-0.505
3713,0.350,-0.525
3714,0.370,-0.445
3715,0.390,-0.485
3716,0.410,-0.440
3717,0.435,-0.420
3718,0.455,-0.410
3719,0.420,-0.445
3720,0.440,-0.515
3721,0.430,-0.625
3722,0.445,-0.620
3723,0.460,-0.600
3724,0.475,-0.585
3725,0.450,-0.505
3726,0.415,-0.490
3727,0.345,-0.470
3728,0.300,-0.405
3729,0.290,-0.410
3730,0.230,-0.405
3731,0.210,-0.415
3732,0.215,-0.380
3733,0.240,-0.420
3734,0.180,-0.435
3735,0.110,-0.425
3736,0.115,-0.380
3737,0.125,-0.390
3738,0.125,-0.395
3739,0.130,-0.410
3740,0.150,-0.465
3741,0.140,-0.460
3742,0.135,-0.435
3743,0.135,-0.415
3744,0.110,-0.370
3745,0.100,-0.375
3746,0.090,-0.375
3747,0.095,-0.395
3748,0.115,-0.445
3749,0.150,-0.465
3750,0.185,-0.470
3751,0.175,-0.420
3752,0.170,-0.255
3753,0.160,-0.155
3754,0.110,-0.095
3755,0.075,-0.110
3756,0.035,-0.150
3757,-0.050,-0.295
3758,-0.040,-0.500
3759,-0.035,-0.655
3760,-0.070,-0.775
3761,-0.130,-0.810
3762,-0.135,-0.745
3763,-0.115,-0.740
3764,-0.110,-0.725
3765,-0.110,-0.720
3766,-0.125,-0.785
3767,-0.130,-0.775
3768,-0.135,-0.720
3769,-0.125,-0.715
3770,-0.125,-0.645
3771,-0.055,-0.505
3772,-0.360,-0.440
3773,-1.660,-0.350
3774,-2.435,0.625
3775,-2.720,1.080
3776,-2.610,-0.475
3777,-1.895,-0.485
3778,-0.835,-0.990
3779,-0.190,-1.100
3780,0.080,-0.805
3781,0.100,-0.485
3782,0.175,-0.435
3783,0.200,-0.430
3784,0.185,-0.430
3785,0.190,-0.420
3786,0.195,-0.385
3787,0.215,-0.380
3788,0.240,-0.370
3789,0.240,-0.280
3790,0.250,-0.305
3791,0.245,-0.320
3792,0.290,-0.325
3793,0.310,-0.370
3794,0.330,-0.400
3795,0.335,-0.390
3796,0.320,-0.420
3797,0.330,-0.385
3798,0.320,-0.310
3799,0.350,-0.350
3800,0.300,-0.375
3801,0.275,-0.335
3802,0.255,-0.310
3803,0.180,-0.270
3804,0.145,-0.265
3805,0.115,-0.245
3806,0.110,-0.165
3807,0.070,-0.140
3808,0.070,-0.140
3809,0.050,-0.125
3810,0.030,-0.140
3811,0.065,-0.170
3812,0.060,-0.190
3813,-0.005,-0.240
3814,-0.015,-0.235
3815,0.005,-0.220
3816,0.010,-0.190
3817,0.045,-0.175
3818,0.060,-0.160
3819,0.000,-0.200
3820,-0.015,-0.245
3821,-0.005,-0.310
3822,-0.005,-0.290
3823,-0.020,-0.290
3824,0.010,-0.305
3825,0.085,-0.230
3826,0.170,-0.185
3827,0.130,-0.160
3828,0.110,-0.055
3829,0.065,0.030
3830,0.035,0.135
3831,0.000,0.095
3832,-0.065,0.085
3833,-0.085,0.005
3834,-0.085,0.000
3835,-0.055,-0.150
3836,-0.050,-0.350
3837,-0.080,-0.455
3838,-0.065,-0.510
3839,-0.110,-0.505
3840,-0.120,-0.470
3841,-0.105,-0.410
3842,-0.035,-0.465
3843,-0.045,-0.390
3844,-0.160,-0.265
3845,-0.175,-0.335
3846,-0.140,-0.345
3847,-0.100,-0.325
3848,-0.110,-0.185
3849,-1.120,-0.295
3850,-2.265,0.075
3851,-2.695,0.950
3852,-2.800,0.360
3853,-2.495,-0.650
3854,-1.375,-0.510
3855,-0.480,-0.840
3856,0.025,-0.620
3857,0.180,-0.450
3858,0.235,-0.235
3859,0.190,-0.200
3860,0.140,-0.155
3861,0.200,-0.090
3862,0.225,-0.035
3863,0.220,0.015
3864,0.285,0.000
3865,0.270,-0.030
3866,0.260,-0.080
3867,0.280,-0.095
3868,0.290,-0.050
3869,0.325,-0.055
3870,0.375,-0.035
3871,0.390,0.040
3872,0.405,-0.010
3873,0.440,-0.080
3874,0.410,-0.065
3875,0.405,-0.055
3876,0.420,-0.080
3877,0.350,-0.050
3878,0.320,-0.035
3879,0.295,-0.050
3880,0.275,0.020
3881,0.260,0.090
3882,0.230,0.130
3883,0.115,0.150
3884,0.080,0.105
3885,0.045,0.025
3886,0.050,0.055
3887,0.025,-0.025
3888,0.015,-0.050
3889,0.035,-0.035
3890,0.060,0.010
3891,-0.020,-0.040
3892,-0.070,-0.100
3893,-0.040,-0.165
3894,0.015,-0.255
3895,0.000,-0.270
3896,-0.050,-0.245
3897,-0.065,-0.235
3898,-0.045,-0.140
3899,-0.010,-0.165
3900,0.005,-0.200
3901,-0.025,-0.185
3902,0.010,-0.190
3903,0.055,-0.155
3904,0.110,-0.120
3905,0.120,0.050
3906,0.060,0.185
3907,-0.055,0.275
3908,-0.095,0.330
3909,-0.095,0.170
3910,-0.125,-0.005
3911,-0.100,-0.165
3912,-0.075,-0.335
3913,-0.135,-0.425
3914,-0.170,-0.470
3915,-0.155,-0.465
3916,-0.120,-0.390
3917,-0.105,-0.370
3918,-0.125,-0.345
3919,-0.155,-0.325
3920,-0.145,-0.370
3921,-0.155,-0.385
3922,-0.190,-0.350
3923,-0.175,-0.380
3924,-0.020,-0.210
3925,-0.985,-0.360
3926,-2.190,-0.020
3927,-2.705,1.030
3928,-2.830,0.035
3929,-2.510,-0.785
3930,-1.405,-0.715
3931,-0.575,-1.010
3932,-0.040,-0.760
3933,0.080,-0.420
3934,0.125,-0.150
3935,0.145,-0.135
3936,0.210,-0.155
3937,0.250,-0.155
3938,0.215,-0.165
3939,0.145,-0.235
3940,0.165,-0.205
3941,0.225,-0.160
3942,0.245,-0.130
3943,0.235,-0.075
3944,0.275,-0.060
3945,0.315,-0.120
3946,0.305,-0.095
3947,0.330,-0.130
3948,0.340,-0.240
3949,0.360,-0.255
3950,0.385,-0.255
3951,0.420,-0.270
3952,0.390,-0.195
3953,0.335,-0.170
3954,0.325,-0.165
3955,0.290,-0.120
3956,0.280,-0.140
3957,0.230,-0.185
3958,0.125,-0.135
3959,0.110,-0.105
3960,0.100,-0.095
3961,0.040,-0.080
3962,0.045,-0.110
3963,0.050,-0.170
3964,0.035,-0.195
3965,0.015,-0.215
3966,-0.010,-0.270
3967,0.000,-0.320
3968,0.015,-0.350
3969,0.055,-0.310
3970,0.000,-0.225
3971,-0.040,-0.290
3972,0.000,-0.295
3973,0.000,-0.280
3974,0.000,-0.280
3975,-0.005,-0.330
3976,-0.020,-0.315
3977,0.035,-0.310
3978,0.090,-0.200
3979,0.115,-0.140
3980,0.125,-0.070
3981,0.065,0.060
3982,0.005,0.160
3983,-0.040,0.080
3984,-0.060,0.005
3985,-0.095,-0.055
3986,-0.075,-0.275
3987,-0.065,-0.425
3988,-0.105,-0.535
3989,-0.110,-0.535
3990,-0.120,-0.520
3991,-0.080,-0.530
3992,-0.155,-0.590
3993,-0.160,-0.600
3994,-0.135,-0.650
3995,-0.120,-0.590
3996,-0.110,-0.525
3997,-0.100,-0.485
3998,-0.050,-0.435
3999,-0.095,-0.310
4000,-1.105,-0.485
4001,-2.125,0.205
4002,-2.575,1.340
4003,-2.555,0.120
4004,-1.910,-0.280
4005,-0.780,-0.755
4006,-0.240,-1.010
4007,0.115,-0.710
4008,0.140,-0.515
4009,0.175,-0.465
4010,0.185,-0.460
4011,0.220,-0.440
4012,0.175,-0.455
4013,0.150,-0.415
4014,0.160,-0.310
4015,0.210,-0.365
4016,0.235,-0.320
4017,0.260,-0.440
4018,0.265,-0.475
4019,0.300,-0.455
4020,0.265,-0.445
4021,0.300,-0.435
4022,0.315,-0.375
4023,0.340,-0.410
4024,0.385,-0.460
4025,0.365,-0.440
4026,0.310,-0.510
4027,0.305,-0.565
4028,0.245,-0.560
4029,0.205,-0.480
4030,0.195,-0.445
4031,0.145,-0.350
4032,0.130,-0.300
4033,0.070,-0.220
4034,0.085,-0.330
4035,0.070,-0.410
4036,0.085,-0.435
4037,0.025,-0.405
4038,0.025,-0.470
4039,0.010,-0.385
4040,0.025,-0.330
4041,0.030,-0.335
4042,0.055,-0.340
4043,0.020,-0.360
4044,0.000,-0.340
4045,-0.015,-0.390
4046,0.000,-0.360
4047,0.010,-0.375
4048,-0.010,-0.390
4049,-0.020,-0.360
4050,-0.035,-0.345
4051,0.020,-0.295
4052,0.065,-0.360
4053,0.075,-0.295
4054,0.005,-0.170
4055,0.000,-0.040
4056,-0.045,-0.035
4057,-0.060,-0.105
4058,-0.115,-0.210
4059,-0.100,-0.350
4060,-0.150,-0.515
4061,-0.180,-0.680
4062,-0.155,-0.790
4063,-0.210,-0.765
4064,-0.225,-0.685
4065,-0.215,-0.670
4066,-0.200,-0.695
4067,-0.170,-0.700
4068,-0.205,-0.660
4069,-0.230,-0.640
4070,-0.230,-0.680
4071,-0.220,-0.685
4072,-0.110,-0.565
4073,-1.135,-0.605
4074,-2.335,0.280
4075,-2.775,1.265
4076,-2.720,-0.345
4077,-2.215,-0.400
4078,-0.990,-0.895
4079,-0.255,-1.115
4080,-0.010,-0.800
4081,0.060,-0.525
4082,0.045,-0.445
4083,0.120,-0.420
4084,0.135,-0.375
4085,0.120,-0.320
4086,0.120,-0.335
4087,0.135,-0.425
4088,0.120,-0.430
4089,0.160,-0.370
4090,0.165,-0.275
4091,0.200,-0.220
4092,0.260,-0.240
4093,0.265,-0.340
4094,0.280,-0.310
4095,0.275,-0.345
4096,0.205,-0.345
4097,0.230,-0.315
4098,0.220,-0.410
4099,0.195,-0.355
4100,0.235,-0.300
4101,0.185,-0.245
4102,0.130,-0.195
4103,0.055,-0.110
4104,0.025,-0.195
4105,-0.010,-0.255
4106,-0.010,-0.205
4107,-0.025,-0.130
4108,-0.045,-0.080
4109,-0.020,-0.105
4110,-0.055,-0.120
4111,-0.130,-0.120
4112,-0.115,-0.180
4113,-0.085,-0.195
4114,-0.100,-0.205
4115,-0.080,-0.255
4116,-0.065,-0.165
4117,-0.045,-0.225
4118,-0.080,-0.180
4119,-0.100,-0.220
4120,-0.100,-0.250
4121,-0.095,-0.290
4122,-0.050,-0.265
4123,0.020,-0.225
4124,0.000,-0.130
4125,0.005,-0.015
4126,-0.025,0.075
4127,-0.030,0.210
4128,-0.055,0.265
4129,-0.085,0.105
4130,-0.240,-0.075
4131,-0.240,-0.140
4132,-0.190,-0.290
4133,-0.210,-0.370
4134,-0.225,-0.405
4135,-0.225,-0.475
4136,-0.170,-0.430
4137,-0.160,-0.425
4138,-0.235,-0.410
4139,-0.240,-0.445
4140,-0.210,-0.410
4141,-0.140,-0.395
4142,-0.270,-0.350
4143,-0.255,-0.290
4144,-0.180,-0.130
4145,-1.205,-0.320
4146,-2.385,0.190
4147,-2.805,1.130
4148,-2.865,-0.020
4149,-2.495,-0.705
4150,-1.335,-0.690
4151,-0.475,-0.850
4152,-0.045,-0.555
4153,0.030,-0.235
4154,0.055,-0.180
4155,0.085,-0.140
4156,0.125,-0.215
4157,0.085,-0.180
4158,0.095,-0.115
4159,0.095,-0.075
4160,0.140,-0.005
4161,0.180,-0.015
4162,0.230,-0.030
4163,0.225,-0.020
4164,0.225,-0.040
4165,0.225,-0.025
4166,0.215,-0.075
4167,0.255,-0.170
4168,0.285,-0.105
4169,0.265,-0.045
4170,0.295,-0.050
4171,0.275,-0.045
4172,0.265,-0.070
4173,0.235,-0.065
4174,0.195,-0.050
4175,0.180,-0.025
4176,0.145,0.045
4177,0.060,0.095
4178,0.035,0.175
4179,0.000,0.135
4180,-0.055,0.100
4181,-0.045,-0.025
4182,-0.075,-0.095
4183,-0.090,-0.155
4184,-0.120,-0.140
4185,-0.125,-0.150
4186,-0.115,-0.100
4187,-0.105,-0.070
4188,-0.090,-0.110
4189,-0.075,-0.170
4190,-0.115,-0.210
4191,-0.130,-0.240
4192,-0.125,-0.245
4193,-0.115,-0.260
4194,-0.100,-0.200
4195,-0.050,-0.140
4196,0.030,-0.230
4197,0.010,-0.150
4198,-0.005,-0.080
4199,-0.020,-0.025
4200,-0.060,0.135
4201,-0.130,0.210
4202,-0.145,0.135
4203,-0.170,0.090
4204,-0.180,0.060
4205,-0.180,-0.100
4206,-0.190,-0.275
4207,-0.195,-0.425
4208,-0.205,-0.490
4209,-0.185,-0.440
4210,-0.255,-0.460
4211,-0.265,-0.465
4212,-0.225,-0.440
4213,-0.210,-0.345
4214,-0.165,-0.350
4215,-0.225,-0.310
4216,-0.245,-0.280
4217,-0.200,-0.280
4218,-0.455,-0.245
4219,-1.785,-0.315
4220,-2.580,0.655
4221,-2.855,1.000
4222,-2.780,-0.610
4223,-2.075,-0.475
4224,-0.905,-0.845
4225,-0.180,-0.810
4226,0.065,-0.545
4227,0.035,-0.280
4228,0.045,-0.240
4229,0.085,-0.260
4230,0.120,-0.290
4231,0.100,-0.195
4232,0.120,-0.110
4233,0.185,-0.105
4234,0.155,-0.155
4235,0.145,-0.250
4236,0.125,-0.310
4237,0.160,-0.270
4238,0.195,-0.260
4239,0.220,-0.250
4240,0.225,-0.205
4241,0.255,-0.240
4242,0.310,-0.255
4243,0.325,-0.275
4244,0.350,-0.320
4245,0.310,-0.320
4246,0.265,-0.320
4247,0.225,-0.320
4248,0.220,-0.320
4249,0.185,-0.190
4250,0.200,-0.160
4251,0.120,-0.110
4252,0.040,-0.195
4253,0.030,-0.250
4254,0.005,-0.260
4255,0.000,-0.260
4256,-0.025,-0.315
4257,-0.070,-0.335
4258,-0.080,-0.270
4259,-0.060,-0.315
4260,-0.055,-0.340
4261,-0.065,-0.305
4262,-0.065,-0.330
4263,-0.105,-0.395
4264,-0.105,-0.435
4265,-0.090,-0.420
4266,-0.095,-0.380
4267,-0.075,-0.305
4268,-0.080,-0.230
4269,-0.010,-0.300
4270,-0.005,-0.345
4271,-0.065,-0.205
4272,-0.060,-0.240
4273,-0.040,-0.390
4274,-0.030,-0.290
4275,-0.020,-0.135
4276,-0.060,0.025
4277,-0.100,0.060
4278,-0.140,0.030
4279,-0.170,-0.085
4280,-0.160,-0.260
4281,-0.190,-0.440
4282,-0.215,-0.600
4283,-0.200,-0.710
4284,-0.190,-0.685
4285,-0.225,-0.630
4286,-0.220,-0.650
4287,-0.195,-0.590
4288,-0.105,-0.555
4289,-0.125,-0.625
4290,-0.280,-0.660
4291,-0.255,-0.615
4292,-0.250,-0.640
4293,-0.080,-0.515
4294,-0.550,-0.430
4295,-1.665,-0.310
4296,-2.365,0.720
4297,-2.640,1.225
4298,-2.520,-0.160
4299,-1.715,-0.350
4300,-0.785,-0.970
4301,-0.320,-1.155
4302,0.020,-0.925
4303,0.095,-0.555
4304,0.095,-0.460
4305,0.120,-0.460
4306,0.130,-0.465
4307,0.110,-0.480
4308,0.115,-0.510
4309,0.140,-0.520
4310,0.115,-0.520
4311,0.125,-0.480
4312,0.150,-0.375
4313,0.190,-0.380
4314,0.250,-0.420
4315,0.265,-0.495
4316,0.255,-0.490
4317,0.220,-0.505
4318,0.255,-0.450
4319,0.275,-0.450
4320,0.290,-0.600
4321,0.310,-0.600
4322,0.310,-0.520
4323,0.330,-0.535
4324,0.285,-0.520
4325,0.195,-0.430
4326,0.145,-0.435
4327,0.125,-0.510
4328,0.090,-0.475
4329,0.095,-0.385
4330,0.110,-0.380
4331,0.080,-0.305
4332,0.005,-0.260
4333,0.000,-0.365
4334,-0.055,-0.425
4335,-0.065,-0.475
4336,-0.050,-0.475
4337,-0.035,-0.425
4338,-0.035,-0.390
4339,0.000,-0.440
4340,-0.010,-0.360
4341,-0.035,-0.335
4342,-0.040,-0.330
4343,-0.025,-0.285
4344,-0.015,-0.350
4345,0.010,-0.455
4346,-0.065,-0.480
4347,-0.090,-0.445
4348,-0.030,-0.380
4349,0.045,-0.365
4350,0.060,-0.340
4351,0.055,-0.225
4352,0.075,-0.115
4353,-0.030,-0.050
4354,-0.100,-0.110
4355,-0.150,-0.185
4356,-0.165,-0.240
4357,-0.115,-0.395
4358,-0.115,-0.490
4359,-0.075,-0.520
4360,-0.155,-0.620
4361,-0.205,-0.690
4362,-0.235,-0.690
4363,-0.225,-0.695
4364,-0.215,-0.685
4365,-0.210,-0.660
4366,-0.140,-0.630
4367,-0.175,-0.530
4368,-0.245,-0.485
4369,-0.215,-0.560
4370,-0.115,-0.460
4371,-0.200,-0.385
4372,-1.440,-0.480
4373,-2.365,0.355
4374,-2.655,1.105
4375,-2.630,-0.360
4376,-1.895,-0.330
4377,-0.940,-0.880
4378,-0.360,-0.995
4379,0.035,-0.730
4380,0.060,-0.480
4381,0.050,-0.395
4382,0.060,-0.380
4383,0.060,-0.375
4384,0.070,-0.325
4385,0.090,-0.200
4386,0.145,-0.220
4387,0.150,-0.265
4388,0.145,-0.240
4389,0.175,-0.230
4390,0.165,-0.215
4391,0.220,-0.195
4392,0.170,-0.280
4393,0.210,-0.260
4394,0.245,-0.300
4395,0.235,-0.270
4396,0.280,-0.255
4397,0.260,-0.255
4398,0.245,-0.250
4399,0.210,-0.290
4400,0.205,-0.325
4401,0.195,-0.320
4402,0.130,-0.245
4403,0.085,-0.180
4404,0.065,-0.120
4405,0.010,-0.105
4406,-0.030,-0.115
4407,-0.035,-0.105
4408,-0.065,-0.115
4409,-0.075,-0.185
4410,-0.035,-0.235
4411,-0.095,-0.255
4412,-0.115,-0.210
4413,-0.115,-0.190
4414,-0.100,-0.180
4415,-0.090,-0.160
4416,-0.105,-0.295
4417,-0.120,-0.340
4418,-0.125,-0.330
4419,-0.135,-0.310
4420,-0.140,-0.330
4421,-0.115,-0.310
4422,-0.100,-0.270
4423,-0.110,-0.295
4424,0.000,-0.275
4425,-0.005,-0.260
4426,-0.070,-0.240
4427,-0.055,-0.170
4428,-0.060,-0.020
4429,-0.085,0.105
4430,-0.100,0.045
4431,-0.160,0.000
4432,-0.185,-0.075
4433,-0.170,-0.210
4434,-0.155,-0.390
4435,-0.155,-0.505
4436,-0.230,-0.615
4437,-0.200,-0.655
4438,-0.210,-0.635
4439,-0.235,-0.565
4440,-0.200,-0.530
4441,-0.190,-0.540
4442,-0.235,-0.505
4443,-0.215,-0.550
4444,-0.230,-0.585
4445,-0.175,-0.485
4446,-0.160,-0.450
4447,-0.505,-0.535
4448,-1.830,-0.450
4449,-2.550,0.615
4450,-2.750,0.515
4451,-2.710,-0.805
4452,-2.070,-0.560
4453,-0.935,-0.935
4454,-0.245,-0.980
4455,0.005,-0.730
4456,0.060,-0.455
4457,0.090,-0.425
4458,0.100,-0.365
4459,0.110,-0.300
4460,0.210,-0.290
4461,0.115,-0.360
4462,0.105,-0.335
4463,0.125,-0.295
4464,0.130,-0.295
4465,0.165,-0.330
4466,0.215,-0.295
4467,0.275,-0.270
4468,0.290,-0.275
4469,0.275,-0.270
4470,0.290,-0.310
4471,0.320,-0.360
4472,0.360,-0.370
4473,0.345,-0.365
4474,0.295,-0.285
4475,0.290,-0.230
4476,0.280,-0.290
4477,0.280,-0.220
4478,0.270,-0.205
4479,0.230,-0.165
4480,0.100,-0.200
4481,0.005,-0.150
4482,0.000,-0.200
4483,-0.010,-0.165
4484,-0.020,-0.185
4485,-0.015,-0.220
4486,-0.040,-0.250
4487,-0.040,-0.295
4488,-0.040,-0.370
4489,-0.075,-0.400
4490,-0.075,-0.390
4491,-0.080,-0.395
4492,-0.070,-0.380
4493,-0.065,-0.380
4494,-0.040,-0.375
4495,0.005,-0.385
4496,-0.070,-0.415
4497,-0.105,-0.455
4498,-0.115,-0.445
4499,-0.040,-0.370
4500,0.005,-0.395
4501,0.050,-0.280
4502,0.050,-0.160
4503,0.020,0.005
4504,-0.030,0.070
4505,-0.145,-0.020
4506,-0.205,-0.205
4507,-0.170,-0.275
4508,-0.140,-0.410
4509,-0.185,-0.525
4510,-0.135,-0.580
4511,-0.175,-0.585
4512,-0.195,-0.585
4513,-0.215,-0.580
4514,-0.230,-0.610
4515,-0.205,-0.605
4516,-0.230,-0.565
4517,-0.225,-0.535
4518,-0.220,-0.465
4519,-0.220,-0.430
4520,-0.090,-0.390
4521,-0.485,-0.420
4522,-1.965,-0.310
4523,-2.615,0.800
4524,-2.785,0.315
4525,-2.615,-0.885
4526,-1.625,-0.595
4527,-0.655,-0.985
4528,-0.065,-0.780
4529,0.045,-0.485
4530,0.090,-0.340
4531,0.130,-0.325
4532,0.140,-0.325
4533,0.150,-0.265
4534,0.135,-0.305
4535,0.160,-0.275
4536,0.155,-0.240
4537,0.165,-0.190
4538,0.185,-0.160
4539,0.200,-0.150
4540,0.240,-0.190
4541,0.260,-0.225
4542,0.285,-0.260
4543,0.290,-0.255
4544,0.325,-0.275
4545,0.335,-0.190
4546,0.340,-0.180
4547,0.380,-0.105
4548,0.320,-0.130
4549,0.250,-0.190
4550,0.220,-0.205
4551,0.170,-0.205
4552,0.120,-0.140
4553,0.095,-0.040
4554,0.050,0.005
4555,0.045,0.000
4556,0.020,-0.020
4557,0.005,-0.080
4558,-0.010,-0.150
4559,-0.035,-0.145
4560,-0.025,-0.200
4561,-0.015,-0.195
4562,-0.045,-0.210
4563,-0.060,-0.220
4564,-0.010,-0.280
4565,-0.015,-0.255
4566,-0.010,-0.285
4567,-0.030,-0.315
4568,-0.050,-0.345
4569,-0.115,-0.345
4570,-0.095,-0.325
4571,-0.060,-0.285
4572,-0.025,-0.225
4573,0.065,-0.200
4574,0.065,-0.155
4575,0.045,0.020
4576,0.020,0.045
4577,-0.055,0.095
4578,-0.055,0.050
4579,-0.095,0.040
4580,-0.085,-0.015
4581,-0.085,-0.160
4582,-0.130,-0.295
4583,-0.165,-0.440
4584,-0.140,-0.475
4585,-0.145,-0.450
4586,-0.200,-0.500
4587,-0.190,-0.475
4588,-0.155,-0.350
4589,-0.170,-0.295
4590,-0.170,-0.295
4591,-0.175,-0.345
4592,-0.135,-0.415
4593,-0.050,-0.295
4594,-0.680,-0.355
4595,-1.930,-0.215
4596,-2.565,0.770
4597,-2.745,0.360
4598,-2.510,-0.730
4599,-1.395,-0.555
4600,-0.510,-0.870
4601,0.030,-0.645
4602,0.135,-0.400
4603,0.125,-0.270
4604,0.135,-0.155
4605,0.150,-0.165
4606,0.180,-0.095
4607,0.210,-0.040
4608,0.240,-0.015
4609,0.290,0.000
4610,0.250,-0.010
4611,0.240,0.020
4612,0.255,-0.045
4613,0.300,-0.035
4614,0.350,-0.015
4615,0.350,0.040
4616,0.385,0.010
4617,0.380,-0.035
4618,0.400,0.000
4619,0.410,-0.030
4620,0.345,-0.025
4621,0.355,-0.070
4622,0.340,-0.105
4623,0.305,-0.030
4624,0.255,0.105
4625,0.205,0.105
4626,0.155,0.150
4627,0.110,0.170
4628,0.090,0.070
4629,0.070,-0.005
4630,0.025,-0.020
4631,-0.015,-0.050
4632,0.010,0.000
4633,0.000,0.025
4634,0.025,-0.075
4635,0.000,-0.095
4636,-0.025,-0.070
4637,-0.025,-0.155
4638,-0.020,-0.210
4639,0.020,-0.205
4640,0.005,-0.255
4641,-0.045,-0.185
4642,-0.005,-0.170
4643,0.000,-0.210
4644,0.030,-0.195
4645,0.060,-0.225
4646,0.050,-0.175
4647,0.075,-0.070
4648,0.070,-0.010
4649,0.050,0.215
4650,0.000,0.270
4651,-0.025,0.255
4652,-0.105,0.190
4653,-0.090,0.065
4654,-0.095,-0.215
4655,-0.105,-0.390
4656,-0.135,-0.490
4657,-0.140,-0.530
4658,-0.110,-0.475
4659,-0.085,-0.410
4660,-0.095,-0.370
4661,-0.115,-0.350
4662,-0.150,-0.370
4663,-0.150,-0.400
4664,-0.145,-0.435
4665,-0.145,-0.465
4666,-0.030,-0.320
4667,-0.455,-0.230
4668,-1.835,-0.245
4669,-2.565,0.865
4670,-2.750,0.185
4671,-2.580,-0.865
4672,-1.625,-0.395
4673,-0.590,-0.950
4674,-0.035,-0.820
4675,0.065,-0.525
4676,0.125,-0.345
4677,0.130,-0.230
4678,0.155,-0.210
4679,0.185,-0.235
4680,0.175,-0.315
4681,0.175,-0.320
4682,0.210,-0.300
4683,0.240,-0.275
4684,0.225,-0.285
4685,0.235,-0.235
4686,0.270,-0.260
4687,0.310,-0.360
4688,0.335,-0.375
4689,0.330,-0.370
4690,0.335,-0.380
4691,0.390,-0.390
4692,0.375,-0.390
4693,0.345,-0.340
4694,0.390,-0.315
4695,0.355,-0.340
4696,0.270,-0.315
4697,0.260,-0.255
4698,0.215,-0.355
4699,0.165,-0.340
4700,0.150,-0.300
4701,0.115,-0.290
4702,0.075,-0.270
4703,0.030,-0.285
4704,0.025,-0.270
4705,0.010,-0.305
4706,0.015,-0.430
4707,0.000,-0.380
4708,0.005,-0.345
4709,0.000,-0.395
4710,0.000,-0.350
4711,0.000,-0.320
4712,0.055,-0.335
4713,0.050,-0.410
4714,-0.010,-0.360
4715,-0.050,-0.445
4716,-0.040,-0.465
4717,-0.040,-0.485
4718,0.010,-0.460
4719,0.050,-0.365
4720,0.065,-0.250
4721,0.090,-0.260
4722,0.070,-0.180
4723,0.075,-0.100
4724,0.030,-0.035
4725,0.000,-0.040
4726,-0.065,-0.110
4727,-0.065,-0.140
4728,-0.045,-0.245
4729,-0.035,-0.405
4730,-0.055,-0.525
4731,-0.030,-0.630
4732,-0.020,-0.620
4733,-0.110,-0.635
4734,-0.120,-0.695
4735,-0.120,-0.665
4736,-0.065,-0.680
4737,-0.070,-0.625
4738,0.005,-0.590
4739,-0.010,-0.600
4740,-0.130,-0.500
4741,-0.010,-0.375
4742,-0.775,-0.440
4743,-1.955,0.150
4744,-2.380,1.515
4745,-2.500,0.805
4746,-2.135,-0.330
4747,-1.010,-0.495
4748,-0.360,-1.070
4749,0.075,-0.935
4750,0.160,-0.690
4751,0.170,-0.585
4752,0.190,-0.555
4753,0.200,-0.575
4754,0.230,-0.520
4755,0.195,-0.430
4756,0.185,-0.470
4757,0.205,-0.500
4758,0.250,-0.470
4759,0.260,-0.495
4760,0.300,-0.505
4761,0.290,-0.485
4762,0.320,-0.505
4763,0.330,-0.540
4764,0.310,-0.525
4765,0.365,-0.515
4766,0.390,-0.515
4767,0.395,-0.570
4768,0.370,-0.615
4769,0.340,-0.630
4770,0.305,-0.665
4771,0.280,-0.620
4772,0.260,-0.585
4773,0.220,-0.495
4774,0.175,-0.435
4775,0.140,-0.380
4776,0.115,-0.400
4777,0.055,-0.405
4778,0.045,-0.450
4779,0.045,-0.440
4780,0.040,-0.435
4781,0.010,-0.415
4782,-0.005,-0.365
4783,-0.030,-0.370
4784,0.000,-0.415
4785,-0.015,-0.385
4786,-0.030,-0.405
4787,-0.010,-0.475
4788,-0.030,-0.480
4789,-0.005,-0.460
4790,-0.010,-0.475
4791,-0.040,-0.415
4792,-0.035,-0.425
4793,-0.015,-0.390
4794,0.025,-0.400
4795,0.050,-0.380
4796,0.035,-0.385
4797,0.015,-0.340
4798,0.015,-0.205
4799,0.000,-0.035
4800,-0.045,0.035
4801,-0.075,0.050
4802,-0.110,-0.020
4803,-0.115,-0.130
4804,-0.130,-0.250
4805,-0.140,-0.500
4806,-0.140,-0.620
4807,-0.170,-0.605
4808,-0.185,-0.575
4809,-0.205,-0.555
4810,-0.190,-0.500
4811,-0.160,-0.470
4812,-0.165,-0.465
4813,-0.165,-0.460
4814,-0.170,-0.440
4815,-0.190,-0.450
4816,-0.165,-0.445
4817,-0.050,-0.325
4818,-0.955,-0.435
4819,-2.130,-0.105
4820,-2.555,0.860
4821,-2.685,0.565
4822,-2.500,-0.685
4823,-1.430,-0.500
4824,-0.660,-0.960
4825,-0.155,-0.830
4826,0.040,-0.555
4827,0.085,-0.310
4828,0.140,-0.190
4829,0.175,-0.185
4830,0.195,-0.130
4831,0.185,-0.085
4832,0.200,-0.100
4833,0.220,-0.100
4834,0.230,-0.120
4835,0.220,-0.085
4836,0.235,-0.090
4837,0.240,-0.030
4838,0.340,-0.015
4839,0.395,0.000
4840,0.290,0.020
4841,0.300,-0.005
4842,0.325,-0.030
4843,0.340,-0.090
4844,0.330,-0.095
4845,0.350,-0.070
4846,0.370,-0.010
4847,0.365,0.025
4848,0.345,0.080
4849,0.320,0.085
4850,0.250,0.100
4851,0.165,0.090
4852,0.155,0.135
4853,0.135,0.090
4854,0.115,0.070
4855,0.040,0.085
4856,0.045,0.075
4857,0.055,0.085
4858,0.000,0.080
4859,0.000,0.040
4860,-0.005,0.005
4861,0.000,-0.010
4862,0.000,-0.030
4863,0.005,-0.040
4864,0.005,-0.110
4865,0.000,-0.070
4866,0.000,-0.075
4867,0.025,-0.070
4868,0.055,-0.075
4869,0.000,-0.150
4870,0.000,-0.195
4871,-0.020,-0.135
4872,0.050,-0.125
4873,0.095,-0.110
4874,0.095,0.045
4875,0.115,0.155
4876,0.090,0.280
4877,0.025,0.360
4878,-0.020,0.330
4879,-0.050,0.260
4880,-0.085,0.105
4881,-0.050,-0.055
4882,-0.065,-0.205
4883,-0.080,-0.225
4884,-0.115,-0.275
4885,-0.100,-0.305
4886,-0.080,-0.280
4887,-0.110,-0.260
4888,-0.120,-0.280
4889,-0.110,-0.260
4890,-0.130,-0.255
4891,-0.135,-0.230
4892,-0.140,-0.165
4893,-0.110,-0.125
4894,0.025,0.060
4895,-0.475,-0.055
4896,-1.740,-0.080
4897,-2.505,0.850
4898,-2.690,0.470
4899,-2.455,-0.635
4900,-1.450,-0.365
4901,-0.645,-0.805
4902,-0.075,-0.605
4903,0.170,-0.310
4904,0.165,-0.035
4905,0.155,0.015
4906,0.205,-0.035
4907,0.210,0.000
4908,0.235,0.045
4909,0.210,0.045
4910,0.215,0.100
4911,0.235,0.175
4912,0.260,0.175
4913,0.280,0.175
4914,0.300,0.200
4915,0.305,0.100
4916,0.300,0.050
4917,0.320,0.075
4918,0.360,0.145
4919,0.385,0.050
4920,0.395,0.045
4921,0.385,0.055
4922,0.380,0.055
4923,0.360,0.090
4924,0.330,0.035
4925,0.295,0.050
4926,0.270,0.075
4927,0.215,0.090
4928,0.170,0.140
4929,0.120,0.230
4930,0.110,0.225
4931,0.085,0.200
4932,0.035,0.205
4933,0.000,0.120
4934,0.025,0.075
4935,0.020,0.070
4936,-0.050,-0.045
4937,-0.050,-0.025
4938,-0.045,-0.015
4939,-0.025,-0.040
4940,-0.050,-0.055
4941,-0.030,-0.105
4942,-0.025,-0.165
4943,-0.030,-0.190
4944,-0.035,-0.225
4945,-0.005,-0.240
4946,-0.020,-0.230
4947,-0.045,-0.120
4948,0.010,-0.135
4949,0.045,-0.085
4950,0.075,-0.010
4951,0.130,0.000
4952,0.070,0.005
4953,0.035,0.170
4954,-0.005,0.215
4955,0.000,0.220
4956,-0.080,0.205
4957,-0.140,0.035
4958,-0.085,-0.135
4959,-0.080,-0.265
4960,-0.115,-0.390
4961,-0.140,-0.455
4962,-0.135,-0.495
4963,-0.130,-0.460
4964,-0.120,-0.440
4965,-0.120,-0.425
4966,-0.130,-0.390
4967,-0.135,-0.370
4968,-0.150,-0.330
4969,-0.145,-0.385
4970,-0.140,-0.395
4971,0.005,-0.220
4972,-1.110,-0.375
4973,-2.240,0.405
4974,-2.600,1.410
4975,-2.600,-0.110
4976,-2.165,-0.315
4977,-1.020,-0.475
4978,-0.320,-0.845
4979,0.055,-0.705
4980,0.110,-0.410
4981,0.175,-0.355
4982,0.180,-0.320
4983,0.195,-0.265
4984,0.205,-0.215
4985,0.215,-0.220
4986,0.260,-0.190
4987,0.250,-0.240
4988,0.210,-0.310
4989,0.260,-0.265
4990,0.275,-0.285
4991,0.335,-0.295
4992,0.325,-0.270
4993,0.360,-0.285
4994,0.370,-0.265
4995,0.395,-0.220
4996,0.420,-0.300
4997,0.415,-0.395
4998,0.420,-0.405
4999,0.420,-0.410
5000,0.420,-0.425
5001,0.370,-0.405
5002,0.325,-0.385
5003,0.265,-0.245
5004,0.250,-0.240
5005,0.175,-0.270
5006,0.155,-0.315
5007,0.115,-0.300
5008,0.100,-0.310
5009,0.100,-0.330
5010,0.095,-0.300
5011,0.090,-0.320
5012,0.115,-0.305
5013,0.050,-0.275
5014,0.035,-0.350
5015,0.055,-0.335
5016,0.010,-0.315
5017,0.030,-0.300
5018,0.040,-0.290
5019,0.025,-0.255
5020,0.030,-0.275
5021,0.045,-0.250
5022,0.005,-0.280
5023,0.000,-0.380
5024,0.035,-0.395
5025,0.085,-0.360
5026,0.125,-0.315
5027,0.135,-0.230
5028,0.155,-0.045
5029,0.095,0.150
5030,0.030,0.090
5031,0.000,-0.040
5032,-0.010,-0.175
5033,-0.065,-0.315
5034,-0.070,-0.470
5035,-0.065,-0.540
5036,-0.140,-0.655
5037,-0.100,-0.625
5038,-0.120,-0.585
5039,-0.145,-0.590
5040,-0.155,-0.605
5041,-0.160,-0.600
5042,-0.170,-0.615
5043,-0.160,-0.615
5044,-0.105,-0.600
5045,-0.125,-0.540
5046,-0.090,-0.360
5047,-0.785,-0.500
5048,-1.985,-0.155
5049,-2.465,1.005
5050,-2.595,0.430
5051,-2.190,-0.410
5052,-1.050,-0.700
5053,-0.455,-1.105
5054,-0.035,-0.925
5055,0.065,-0.595
5056,0.130,-0.430
5057,0.170,-0.405
5058,0.110,-0.395
5059,0.105,-0.430
5060,0.095,-0.400
5061,0.150,-0.375
5062,0.130,-0.350
5063,0.105,-0.280
5064,0.135,-0.275
5065,0.195,-0.280
5066,0.200,-0.300
5067,0.205,-0.350
5068,0.250,-0.385
5069,0.240,-0.435
5070,0.310,-0.480
5071,0.205,-0.455
5072,0.145,-0.425
5073,0.205,-0.420
5074,0.190,-0.425
5075,0.135,-0.415
5076,0.100,-0.455
5077,0.070,-0.425
5078,0.080,-0.365
5079,0.080,-0.310
5080,0.060,-0.225
5081,0.030,-0.225
5082,-0.025,-0.190
5083,-0.085,-0.200
5084,-0.065,-0.220
5085,-0.090,-0.240
5086,-0.095,-0.305
5087,-0.090,-0.315
5088,-0.055,-0.345
5089,-0.060,-0.315
5090,-0.045,-0.330
5091,-0.045,-0.320
5092,-0.065,-0.355
5093,-0.100,-0.385
5094,-0.070,-0.420
5095,-0.125,-0.455
5096,-0.145,-0.390
5097,-0.035,-0.390
5098,0.000,-0.330
5099,0.025,-0.230
5100,-0.025,-0.105
5101,-0.070,0.010
5102,-0.095,-0.095
5103,-0.130,-0.160
5104,-0.085,-0.250
5105,-0.155,-0.350
5106,-0.125,-0.470
5107,-0.095,-0.640
5108,-0.205,-0.655
5109,-0.290,-0.630
5110,-0.280,-0.635
5111,-0.285,-0.640
5112,-0.240,-0.585
5113,-0.225,-0.495
5114,-0.200,-0.520
5115,-0.165,-0.545
5116,-0.215,-0.540
5117,-0.190,-0.485
5118,-0.180,-0.380
5119,-1.485,-0.610
5120,-2.375,0.105
5121,-2.655,0.950
5122,-2.680,-0.360
5123,-2.015,-0.180
5124,-1.095,-0.925
5125,-0.410,-0.970
5126,-0.015,-0.750
5127,0.085,-0.415
5128,0.095,-0.395
5129,0.115,-0.440
5130,0.125,-0.410
5131,0.145,-0.350
5132,0.175,-0.265
5133,0.195,-0.210
5134,0.160,-0.170
5135,0.250,-0.180
5136,0.230,-0.220
5137,0.230,-0.240
5138,0.360,-0.195
5139,0.335,-0.120
5140,0.355,-0.265
5141,0.225,-0.295
5142,0.300,-0.245
5143,0.350,-0.235
5144,0.340,-0.265
5145,0.345,-0.270
5146,0.350,-0.265
5147,0.295,-0.230
5148,0.270,-0.175
5149,0.305,-0.025
5150,0.355,0.010
5151,0.050,0.050
5152,-0.005,0.095
5153,0.000,-0.065
5154,0.070,-0.170
5155,0.050,-0.140
5156,0.095,-0.160
5157,0.055,-0.180
5158,-0.020,-0.140
5159,-0.030,-0.135
5160,-0.040,-0.180
5161,0.000,-0.135
5162,-0.055,-0.180
5163,-0.090,-0.225
5164,-0.090,-0.305
5165,0.115,-0.330
5166,0.020,-0.330
5167,-0.040,-0.300
5168,-0.070,-0.260
5169,-0.065,-0.240
5170,0.015,-0.250
5171,0.060,-0.120
5172,-0.005,-0.090
5173,0.050,0.000
5174,0.065,-0.005
5175,-0.025,0.095
5176,-0.010,0.170
5177,-0.035,0.095
5178,-0.135,0.025
5179,-0.020,-0.125
5180,-0.055,-0.225
5181,-0.190,-0.430
5182,-0.085,-0.455
5183,0.075,-0.515
5184,-0.050,-0.420
5185,-0.210,-0.480
5186,-0.235,-0.435
5187,-0.180,-0.330
5188,-0.145,-0.310
5189,-0.065,-0.290
5190,-0.050,-0.505
5191,-0.165,-0.430
5192,-0.360,-0.370
5193,-1.725,-0.295
5194,-2.520,0.820
5195,-2.725,1.015
5196,-2.665,-0.505
5197,-1.860,-0.525
5198,-0.710,-0.925
5199,0.015,-0.840
5200,0.325,-0.570
5201,0.280,-0.340
5202,0.190,-0.275
5203,0.150,-0.205
5204,0.135,-0.145
5205,0.225,-0.155
5206,0.235,-0.155
5207,0.335,-0.180
5208,0.200,-0.130
5209,0.240,-0.165
5210,0.275,-0.260
5211,0.320,-0.150
5212,0.395,0.010
5213,0.410,-0.140
5214,0.380,-0.225
5215,0.410,-0.330
5216,0.545,-0.335
5217,0.455,-0.300
5218,0.425,-0.280
5219,0.405,-0.200
5220,0.395,-0.250
5221,0.370,-0.205
5222,0.340,-0.020
5223,0.365,0.000
5224,0.255,-0.170
5225,0.085,-0.325
5226,0.155,-0.330
5227,0.130,-0.325
5228,0.245,-0.175
5229,0.195,-0.285
5230,-0.075,-0.265
5231,0.005,-0.260
5232,0.005,-0.330
5233,-0.045,-0.240
5234,0.100,-0.420
5235,0.210,-0.175
5236,-0.035,-0.190
5237,-0.020,-0.035
5238,-0.050,-0.305
5239,-0.105,-0.695
5240,0.035,-0.685
5241,0.010,-0.475
5242,-0.020,-0.490
5243,0.090,-0.455
5244,0.040,-0.395
5245,0.085,-0.085
5246,0.070,-0.430
5247,0.175,-0.375
5248,-0.010,-0.175
5249,-0.005,0.000
5250,0.015,-0.090
5251,0.040,-0.040
5252,-0.020,0.040
5253,0.090,-0.180
5254,0.255,-0.310
5255,0.170,-0.435
5256,-0.130,-0.570
5257,-0.170,-0.725
5258,-0.155,-0.725
5259,-0.100,-0.690
5260,-0.130,-0.760
5261,-0.065,-0.610
5262,-0.025,-0.685
5263,0.055,-0.825
5264,0.145,-0.585
5265,-0.125,-0.445
5266,-0.275,-0.410
5267,-0.140,-0.360
5268,-0.410,-0.525
5269,-1.745,-0.305
5270,-2.350,1.240
5271,-2.435,0.650
5272,-2.340,-0.745
5273,-1.340,-0.725
5274,-0.570,-1.130
5275,-0.110,-1.130
5276,0.055,-0.705
5277,0.245,-0.540
5278,0.015,-0.610
5279,-0.060,-0.630
5280,0.080,-0.590
5281,0.060,-0.545
5282,0.065,-0.585
5283,0.190,-0.605
5284,0.175,-0.680
5285,0.160,-0.765
5286,0.230,-0.650
5287,0.370,-0.635
5288,0.395,-0.550
5289,0.440,-0.410
5290,0.010,-0.405
5291,0.235,-0.700
5292,0.280,-0.705
5293,0.255,-0.670
5294,0.190,-0.925
5295,0.115,-0.725
5296,0.235,-0.670
5297,0.295,-0.680
5298,0.345,-0.655
5299,0.165,-0.440
5300,-0.080,-0.465
5301,-0.025,-0.380
5302,0.005,-0.415
5303,-0.050,-0.705
5304,0.000,-0.845
5305,0.035,-0.740
5306,-0.120,-0.725
5307,-0.165,-0.630
5308,0.010,-0.680
5309,-0.010,-0.560
5310,-0.365,-0.580
5311,-0.245,-0.625
5312,-0.215,-0.785
5313,-0.295,-0.720
5314,-0.250,-0.640
5315,-0.270,-0.730
5316,-0.255,-0.770
5317,-0.140,-0.535
5318,-0.275,-0.920
5319,-0.270,-0.820
5320,-0.200,-0.595
5321,0.245,-0.615
5322,0.145,-0.775
5323,-0.175,-0.700
5324,-0.135,-0.635
5325,-0.405,-0.740
5326,-0.380,-0.425
5327,-0.365,-0.210
5328,-0.315,-0.260
5329,-0.285,-0.380
5330,-0.105,-0.525
5331,-0.220,-0.660
5332,-0.215,-0.880
5333,-0.405,-1.065
5334,-0.450,-0.950
5335,-0.210,-0.965
5336,-0.175,-0.990
5337,-0.180,-1.090
5338,-0.220,-0.990
5339,-0.080,-0.875
5340,-0.325,-0.750
5341,-0.505,-0.845
5342,-0.515,-0.995
5343,-0.410,-0.950
5344,-0.200,-0.825
5345,-0.700,-0.715
5346,-1.905,-0.525
5347,-2.555,0.315
5348,-2.745,0.190
5349,-2.575,-1.110
5350,-1.670,-0.980
5351,-0.770,-1.520
5352,-0.170,-1.365
5353,0.140,-1.095
5354,-0.015,-0.875
5355,0.110,-0.745
5356,0.025,-0.830
5357,-0.075,-0.645
5358,-0.090,-0.600
5359,0.000,-0.760
5360,0.030,-0.740
5361,0.135,-0.730
5362,0.120,-0.715
5363,0.165,-0.710
5364,0.200,-0.660
5365,0.245,-0.635
5366,0.310,-0.605
5367,0.505,-0.505
5368,0.330,-0.510
5369,0.255,-0.780
5370,0.245,-0.725
5371,0.415,-0.780
5372,0.220,-0.700
5373,0.230,-0.675
5374,0.240,-0.715
5375,0.285,-0.630
5376,0.260,-0.635
5377,0.235,-0.580
5378,0.210,-0.550
5379,0.115,-0.515
5380,0.040,-0.500
5381,0.010,-0.460
5382,0.045,-0.310
5383,0.030,-0.300
5384,-0.005,-0.530
5385,0.000,-0.580
5386,0.090,-0.580
5387,0.255,-0.545
5388,0.080,-0.485
5389,-0.315,-0.470
5390,-0.395,-0.515
5391,-0.270,-0.435
5392,-0.175,-0.325
5393,-0.130,-0.180
5394,-0.130,-0.260
5395,-0.130,-0.605
5396,-0.110,-0.590
5397,-0.110,-0.520
5398,-0.085,-0.410
5399,-0.025,-0.305
5400,0.000,-0.255
5401,0.010,0.100
5402,-0.025,0.065
5403,-0.090,0.000
5404,-0.125,0.140
5405,-0.195,0.070
5406,-0.180,-0.185
5407,-0.200,-0.310
5408,-0.200,-0.390
5409,-0.190,-0.430
5410,-0.195,-0.395
5411,-0.150,-0.285
5412,-0.155,-0.320
5413,0.020,-0.400
5414,0.055,-0.445
5415,-0.380,-0.465
5416,-0.360,-0.370
5417,-0.285,-0.345
5418,-0.220,-0.310
5419,-0.280,-0.240
5420,-0.250,-0.155
5421,-0.225,-0.010
5422,-1.500,-0.140
5423,-2.430,0.610
5424,-2.740,0.995
5425,-2.735,-0.415
5426,-2.310,-0.615
5427,-1.195,-0.775
5428,-0.420,-0.765
5429,0.025,-0.470
5430,0.265,-0.175
5431,0.305,0.060
5432,0.075,0.005
5433,0.080,0.075
5434,0.140,0.000
5435,0.125,0.000
5436,0.150,-0.015
5437,0.230,0.100
5438,0.310,0.190
5439,0.420,0.235
5440,0.350,0.400
5441,0.165,0.100
5442,0.215,-0.035
5443,0.180,-0.025
5444,0.195,0.155
5445,0.295,0.280
5446,0.355,0.350
5447,0.425,0.185
5448,0.490,0.355
5449,0.520,0.220
5450,0.440,0.215
5451,0.310,0.030
5452,0.205,-0.025
5453,0.165,0.100
5454,0.180,0.200
5455,0.230,0.420
5456,0.250,0.590
5457,0.255,0.460
5458,-0.010,0.275
5459,0.040,0.080
5460,0.090,0.040
5461,-0.220,0.115
5462,-0.115,0.015
5463,-0.155,0.065
5464,-0.080,0.030
5465,-0.060,0.340
5466,0.075,0.350
5467,-0.020,-0.005
5468,-0.030,-0.070
5469,-0.030,-0.085
5470,-0.050,-0.270
5471,-0.075,-0.195
5472,-0.090,-0.190
5473,-0.115,-0.075
5474,-0.110,-0.030
5475,-0.055,0.085
5476,-0.010,0.015
5477,0.210,0.345
5478,0.025,0.155
5479,-0.115,-0.085
5480,0.015,0.275
5481,0.055,0.380
5482,-0.095,0.415
5483,-0.120,0.270
5484,-0.195,0.225
5485,-0.155,0.065
5486,-0.095,-0.105
5487,-0.190,-0.250
5488,-0.160,-0.300
5489,-0.135,-0.305
5490,-0.090,-0.260
5491,-0.140,-0.150
5492,-0.200,-0.160
5493,-0.185,-0.130
5494,-0.140,-0.110
5495,-0.190,-0.075
5496,-0.210,-0.120
5497,-0.180,-0.195
5498,-0.110,-0.005
5499,-1.020,-0.100
5500,-2.335,0.395
5501,-2.815,1.245
5502,-2.845,-0.265
5503,-2.490,-0.580
5504,-1.180,-0.450
5505,-0.395,-0.650
5506,0.050,-0.390
5507,0.110,0.040
5508,0.140,0.120
5509,0.165,0.080
5510,0.175,0.090
5511,0.185,0.150
5512,0.220,0.215
5513,0.220,0.240
5514,0.215,0.240
5515,0.235,0.260
5516,0.245,0.265
5517,0.245,0.290
5518,0.245,0.355
5519,0.290,0.380
5520,0.325,0.355
5521,0.340,0.365
5522,0.375,0.315
5523,0.345,0.270
5524,0.385,0.285
5525,0.385,0.290
5526,0.375,0.280
5527,0.335,0.360
5528,0.340,0.385
5529,0.275,0.395
5530,0.200,0.405
5531,0.145,0.400
5532,0.100,0.355
5533,0.030,0.380
5534,0.020,0.375
5535,-0.005,0.425
5536,-0.020,0.480
5537,-0.035,0.460
5538,-0.055,0.330
5539,-0.045,0.320
5540,-0.065,0.230
5541,-0.075,0.155
5542,-0.065,0.185
5543,-0.065,0.105
5544,-0.070,0.115
5545,-0.080,0.110
5546,-0.050,0.075
5547,-0.060,0.085
5548,-0.045,0.070
5549,-0.105,0.000
5550,-0.105,-0.030
5551,-0.070,0.015
5552,-0.010,0.060
5553,0.020,0.125
5554,0.030,0.260
5555,0.040,0.395
5556,-0.035,0.535
5557,-0.080,0.505
5558,-0.140,0.450
5559,-0.155,0.295
5560,-0.130,0.150
5561,-0.125,-0.025
5562,-0.160,-0.180
5563,-0.145,-0.245
5564,-0.170,-0.220
5565,-0.170,-0.220
5566,-0.170,-0.205
5567,-0.165,-0.260
5568,-0.180,-0.335
5569,-0.165,-0.295
5570,-0.185,-0.210
5571,-0.185,-0.220
5572,-0.140,-0.180
5573,-0.045,0.000
5574,-0.935,-0.150
5575,-2.220,0.390
5576,-2.705,1.325
5577,-2.770,-0.030
5578,-2.310,-0.275
5579,-1.110,-0.460
5580,-0.365,-0.790
5581,0.040,-0.505
5582,0.100,-0.150
5583,0.115,-0.195
5584,0.135,-0.185
5585,0.135,-0.235
5586,0.120,-0.255
5587,0.150,-0.160
5588,0.155,-0.220
5589,0.165,-0.145
5590,0.185,-0.055
5591,0.235,-0.040
5592,0.250,-0.115
5593,0.240,-0.165
5594,0.240,-0.240
5595,0.270,-0.255
5596,0.305,-0.245
5597,0.330,-0.280
5598,0.345,-0.330
5599,0.365,-0.310
5600,0.340,-0.235
5601,0.330,-0.250
5602,0.275,-0.310
5603,0.255,-0.335
5604,0.215,-0.325
5605,0.165,-0.325
5606,0.115,-0.280
5607,0.085,-0.130
5608,0.060,-0.170
5609,0.045,-0.200
5610,0.015,-0.230
5611,0.000,-0.265
5612,-0.020,-0.320
5613,-0.045,-0.335
5614,-0.015,-0.330
5615,-0.065,-0.245
5616,-0.025,-0.125
5617,-0.030,-0.240
5618,-0.050,-0.305
5619,-0.065,-0.330
5620,-0.070,-0.355
5621,-0.090,-0.325
5622,-0.085,-0.390
5623,-0.080,-0.395
5624,-0.085,-0.355
5625,-0.065,-0.295
5626,-0.005,-0.225
5627,0.055,-0.165
5628,0.040,-0.170
5629,0.055,-0.145
5630,0.030,0.020
5631,-0.020,0.120
5632,-0.030,0.085
5633,-0.085,0.055
5634,-0.065,-0.065
5635,-0.060,-0.245
5636,-0.100,-0.355
5637,-0.135,-0.600
5638,-0.135,-0.595
5639,-0.145,-0.605
5640,-0.135,-0.590
5641,-0.145,-0.500
5642,-0.150,-0.405
5643,-0.130,-0.495
5644,-0.150,-0.480
5645,-0.165,-0.450
5646,-0.150,-0.480
5647,-0.090,-0.350
5648,-0.500,-0.280
5649,-1.865,0.050
5650,-2.490,1.405
5651,-2.665,0.935
5652,-2.350,-0.270
5653,-1.135,-0.590
5654,-0.480,-1.015
5655,-0.010,-0.805
5656,0.090,-0.520
5657,0.115,-0.330
5658,0.140,-0.190
5659,0.165,-0.170
5660,0.165,-0.080
5661,0.190,-0.140
5662,0.200,-0.310
5663,0.180,-0.180
5664,0.195,-0.210
5665,0.215,-0.190
5666,0.255,-0.185
5667,0.260,-0.095
5668,0.275,-0.040
5669,0.295,-0.035
5670,0.325,-0.015
5671,0.320,-0.115
5672,0.300,-0.270
5673,0.295,-0.300
5674,0.295,-0.255
5675,0.260,-0.160
5676,0.220,-0.045
5677,0.210,0.000
5678,0.155,-0.010
5679,0.105,0.120
5680,0.065,0.055
5681,0.020,0.020
5682,0.010,-0.055
5683,0.005,-0.025
5684,-0.005,0.105
5685,0.005,0.110
5686,0.005,0.105
5687,0.000,0.090
5688,0.000,0.035
5689,-0.020,-0.010
5690,-0.030,0.175
5691,-0.010,0.030
5692,-0.015,-0.230
5693,-0.025,-0.080
5694,-0.025,-0.030
5695,-0.005,-0.015
5696,-0.035,-0.180
5697,-0.040,-0.230
5698,-0.055,-0.155
5699,-0.005,-0.135
5700,0.040,-0.080
5701,0.055,0.050
5702,0.040,0.260
5703,0.035,0.530
5704,-0.060,0.600
5705,-0.070,0.265
5706,-0.125,0.045
5707,-0.135,0.010
5708,-0.115,-0.090
5709,-0.135,-0.210
5710,-0.150,-0.240
5711,-0.160,-0.270
5712,-0.140,-0.235
5713,-0.165,-0.130
5714,-0.150,-0.210
5715,-0.145,-0.330
5716,-0.165,-0.280
5717,-0.160,-0.265
5718,-0.165,-0.270
5719,-0.180,-0.170
5720,-0.125,-0.015
5721,-0.200,0.060
5722,-1.555,-0.085
5723,-2.510,0.720
5724,-2.815,1.160
5725,-2.780,-0.460
5726,-2.190,-0.550
5727,-0.970,-0.660
5728,-0.245,-0.660
5729,0.080,-0.325
5730,0.110,0.035
5731,0.135,0.030
5732,0.155,-0.050
5733,0.170,-0.040
5734,0.170,0.005
5735,0.170,0.090
5736,0.190,0.125
5737,0.190,0.240
5738,0.215,0.265
5739,0.265,0.155
5740,0.260,0.190
5741,0.270,0.080
5742,0.330,-0.055
5743,0.335,0.050
5744,0.365,0.055
5745,0.380,0.060
5746,0.405,0.120
5747,0.425,0.225
5748,0.395,0.405
5749,0.390,0.225
5750,0.355,-0.025
5751,0.325,-0.125
5752,0.275,0.045
5753,0.250,0.170
5754,0.205,0.330
5755,0.150,0.385
5756,0.130,0.280
5757,0.100,0.215
5758,0.060,0.280
5759,0.030,0.400
5760,0.025,0.115
5761,0.025,0.000
5762,0.035,0.220
5763,0.035,-0.125
5764,0.035,-0.130
5765,0.020,-0.035
5766,0.025,0.040
5767,0.015,-0.040
5768,0.020,-0.025
5769,-0.010,-0.010
5770,0.000,-0.025
5771,0.000,-0.115
5772,0.010,-0.025
5773,0.015,0.010
5774,0.050,0.080
5775,0.120,0.090
5776,0.120,0.065
5777,0.110,0.075
5778,0.085,0.235
5779,0.020,0.415
5780,-0.010,0.445
5781,-0.060,0.435
5782,-0.095,0.415
5783,-0.075,0.265
5784,-0.040,0.070
5785,-0.085,-0.145
5786,-0.115,-0.315
5787,-0.120,-0.265
5788,-0.130,-0.245
5789,-0.110,-0.215
5790,-0.110,-0.165
5791,-0.100,-0.110
5792,-0.105,-0.060
5793,-0.075,-0.120
5794,-0.125,-0.125
5795,-0.105,-0.120
5796,-0.020,-0.070
5797,-0.350,-0.100
5798,-1.750,-0.070
5799,-2.585,0.965
5800,-2.815,0.600
5801,-2.540,-0.730
5802,-1.300,-0.405
5803,-0.550,-0.875
5804,-0.060,-0.720
5805,0.140,-0.190
5806,0.190,-0.015
5807,0.225,0.000
5808,0.195,-0.040
5809,0.220,-0.070
5810,0.215,-0.055
5811,0.250,0.020
5812,0.245,0.025
5813,0.245,0.000
5814,0.265,0.010
5815,0.300,0.000
5816,0.330,0.010
5817,0.335,0.050
5818,0.350,0.095
5819,0.375,0.080
5820,0.370,0.020
5821,0.400,-0.050
5822,0.395,-0.080
5823,0.390,-0.085
5824,0.400,-0.095
5825,0.405,-0.080
5826,0.350,-0.005
5827,0.355,0.105
5828,0.290,0.205
5829,0.215,0.175
5830,0.190,0.035
5831,0.275,0.120
5832,0.235,0.145
5833,0.110,-0.020
5834,-0.100,-0.150
5835,-0.195,-0.150
5836,-0.120,-0.060
5837,-0.085,-0.090
5838,-0.055,-0.160
5839,-0.060,-0.135
5840,-0.040,-0.075
5841,-0.065,-0.090
5842,0.005,-0.050
5843,0.020,0.090
5844,-0.040,-0.200
5845,-0.030,-0.455
5846,0.015,-0.385
5847,0.055,-0.445
5848,0.015,-0.500
5849,0.230,-0.485
5850,-0.095,-0.340
5851,-0.160,-0.280
5852,0.000,-0.195
5853,0.050,-0.200
5854,0.075,-0.105
5855,0.020,0.035
5856,-0.030,0.050
5857,-0.070,0.055
5858,-0.075,-0.015
5859,-0.160,-0.185
5860,-0.075,-0.450
5861,0.060,-0.420
5862,-0.090,-0.505
5863,0.035,-0.605
5864,0.005,-0.620
5865,-0.230,-0.750
5866,-0.235,-0.750
5867,-0.275,-0.890
5868,-0.285,-0.840
5869,-0.225,-0.795
5870,-0.185,-0.655
5871,-0.165,-0.615
5872,-0.100,-0.620
5873,0.045,-0.370
5874,-0.445,-0.520
5875,-1.895,-0.535
5876,-2.650,0.605
5877,-2.840,0.450
5878,-2.700,-0.855
5879,-2.310,-0.760
5880,-1.060,-1.180
5881,-0.255,-1.305
5882,0.115,-1.000
5883,0.205,-0.670
5884,0.315,-0.580
5885,0.140,-0.585
5886,0.110,-0.630
5887,0.050,-0.635
5888,0.190,-0.740
5889,0.150,-0.640
5890,0.175,-0.580
5891,0.245,-0.630
5892,0.235,-0.660
5893,0.290,-0.680
5894,0.310,-0.675
5895,0.290,-0.635
5896,0.315,-0.675
5897,0.360,-0.725
5898,0.355,-0.720
5899,0.595,-0.710
5900,0.495,-0.660
5901,0.215,-0.665
5902,0.310,-0.705
5903,0.330,-0.740
5904,0.310,-0.695
5905,0.325,-0.700
5906,0.215,-0.650
5907,0.155,-0.745
5908,0.125,-0.660
5909,0.110,-0.580
5910,0.095,-0.565
5911,0.075,-0.545
5912,0.055,-0.435
5913,0.045,-0.625
5914,0.000,-0.810
5915,-0.005,-0.710
5916,-0.005,-0.680
5917,-0.030,-0.715
5918,-0.025,-0.700
5919,-0.030,-0.715
5920,-0.055,-0.720
5921,-0.030,-0.700
5922,0.010,-0.735
5923,0.005,-0.785
5924,0.030,-0.745
5925,-0.025,-0.750
5926,-0.185,-0.715
5927,-0.180,-0.700
5928,-0.130,-0.690
5929,-0.035,-0.655
5930,0.005,-0.640
5931,0.005,-0.670
5932,-0.005,-0.575
5933,-0.010,-0.425
5934,-0.070,-0.320
5935,-0.075,-0.335
5936,-0.095,-0.410
5937,-0.070,-0.520
5938,0.000,-0.645
5939,-0.065,-0.795
5940,-0.140,-0.950
5941,-0.125,-1.035
5942,-0.315,-1.000
5943,-0.335,-0.965
5944,-0.275,-0.940
5945,-0.230,-0.900
5946,-0.220,-0.890
5947,-0.200,-0.865
5948,-0.190,-0.880
5949,-0.195,-0.915
5950,-0.210,-0.915
5951,-0.155,-0.785
5952,-0.380,-0.765
5953,-1.775,-0.550
5954,-2.505,0.685
5955,-2.710,0.770
5956,-2.510,-0.445
5957,-1.470,-0.600
5958,-0.765,-1.315
5959,-0.325,-1.425
5960,-0.010,-1.100
5961,0.015,-0.835
5962,0.060,-0.750
5963,0.090,-0.695
5964,0.205,-0.685
5965,0.260,-0.670
5966,0.115,-0.645
5967,0.015,-0.650
5968,0.035,-0.660
5969,0.050,-0.640
5970,0.100,-0.615
5971,0.125,-0.575
5972,0.135,-0.555
5973,0.195,-0.560
5974,0.180,-0.580
5975,0.190,-0.645
5976,0.195,-0.690
5977,0.195,-0.715
5978,0.205,-0.735
5979,0.195,-0.715
5980,0.145,-0.665
5981,0.160,-0.640
5982,0.255,-0.645
5983,0.080,-0.645
5984,-0.030,-0.610
5985,-0.080,-0.570
5986,-0.170,-0.520
5987,-0.135,-0.475
5988,-0.115,-0.430
5989,-0.100,-0.395
5990,-0.090,-0.405
5991,-0.105,-0.400
5992,-0.085,-0.420
5993,-0.120,-0.475
5994,-0.130,-0.515
5995,-0.135,-0.530
5996,-0.135,-0.525
5997,-0.115,-0.540
5998,-0.135,-0.505
5999,-0.140,-0.495
6000,-0.120,-0.490
6001,-0.125,-0.500
6002,-0.150,-0.535
6003,-0.125,-0.565
6004,-0.085,-0.555
6005,-0.040,-0.525
6006,-0.020,-0.465
6007,-0.050,-0.325
6008,-0.065,-0.185
6009,-0.100,-0.060
6010,-0.145,-0.105
6011,-0.195,-0.215
6012,-0.220,-0.375
6013,-0.210,-0.425
6014,-0.195,-0.575
6015,-0.110,-0.710
6016,-0.095,-0.745
6017,-0.315,-0.730
6018,-0.325,-0.690
6019,-0.280,-0.660
6020,-0.275,-0.670
6021,-0.250,-0.675
6022,-0.230,-0.675
6023,-0.225,-0.650
6024,-0.230,-0.610
6025,-0.235,-0.545
6026,-0.140,-0.430
6027,-0.295,-0.380
6028,-1.580,-0.505
6029,-2.535,0.340
6030,-2.810,0.665
6031,-2.745,-0.725
6032,-1.990,-0.595
6033,-0.940,-1.175
6034,-0.275,-1.015
6035,0.155,-0.740
6036,0.080,-0.415
6037,0.085,-0.360
6038,0.090,-0.350
6039,0.105,-0.350
6040,0.115,-0.320
6041,0.170,-0.315
6042,0.175,-0.265
6043,0.195,-0.175
6044,0.220,-0.165
6045,0.240,-0.165
6046,0.260,-0.155
6047,0.280,-0.210
6048,0.305,-0.255
6049,0.335,-0.260
6050,0.355,-0.265
6051,0.390,-0.225
6052,0.405,-0.185
6053,0.530,-0.195
6054,0.415,-0.190
6055,0.250,-0.190
6056,0.260,-0.185
6057,0.265,-0.180
6058,0.240,-0.115
6059,0.175,-0.080
6060,0.145,-0.005
6061,0.120,0.010
6062,0.070,0.000
6063,0.060,-0.015
6064,0.025,-0.080
6065,0.010,-0.180
6066,-0.010,-0.195
6067,-0.020,-0.230
6068,-0.035,-0.250
6069,-0.030,-0.210
6070,-0.015,-0.210
6071,-0.020,-0.220
6072,-0.035,-0.245
6073,-0.035,-0.250
6074,-0.050,-0.325
6075,-0.040,-0.340
6076,-0.045,-0.330
6077,-0.045,-0.305
6078,-0.040,-0.285
6079,-0.040,-0.250
6080,0.005,-0.230
6081,0.070,-0.190
6082,0.075,-0.175
6083,0.070,-0.110
6084,0.045,0.075
6085,-0.015,0.145
6086,-0.070,0.150
6087,-0.135,0.160
6088,-0.130,0.060
6089,-0.085,-0.090
6090,-0.095,-0.270
6091,-0.165,-0.410
6092,-0.200,-0.510
6093,-0.185,-0.505
6094,-0.175,-0.485
6095,-0.135,-0.425
6096,-0.130,-0.370
6097,-0.145,-0.360
6098,-0.190,-0.355
6099,-0.200,-0.340
6100,-0.190,-0.390
6101,-0.145,-0.315
6102,-0.185,-0.210
6103,-1.595,-0.375
6104,-2.590,0.625
6105,-2.895,0.760
6106,-2.815,-0.745
6107,-2.070,-0.485
6108,-0.810,-0.885
6109,-0.105,-0.830
6110,0.120,-0.495
6111,0.140,-0.270
6112,0.125,-0.185
6113,0.180,-0.100
6114,0.205,-0.045
6115,0.215,-0.035
6116,0.205,-0.035
6117,0.230,-0.040
6118,0.220,-0.070
6119,0.260,-0.040
6120,0.275,-0.040
6121,0.275,0.025
6122,0.330,0.040
6123,0.365,0.040
6124,0.370,0.005
6125,0.400,-0.005
6126,0.385,-0.035
6127,0.395,-0.090
6128,0.415,-0.095
6129,0.405,-0.065
6130,0.385,0.000
6131,0.345,0.020
6132,0.290,0.050
6133,0.240,0.105
6134,0.195,0.090
6135,0.140,0.070
6136,0.075,0.045
6137,0.075,0.040
6138,0.055,0.020
6139,0.015,0.040
6140,0.005,0.010
6141,0.015,-0.010
6142,-0.005,-0.070
6143,-0.025,-0.130
6144,-0.035,-0.155
6145,-0.040,-0.200
6146,-0.040,-0.200
6147,-0.010,-0.180
6148,-0.010,-0.170
6149,0.005,-0.180
6150,0.000,-0.195
6151,-0.015,-0.245
6152,-0.035,-0.265
6153,-0.010,-0.260
6154,0.035,-0.225
6155,0.110,-0.165
6156,0.105,-0.070
6157,0.130,0.040
6158,0.105,0.200
6159,0.020,0.260
6160,-0.015,0.195
6161,-0.090,0.105
6162,-0.090,-0.015
6163,-0.055,-0.145
6164,-0.080,-0.290
6165,-0.085,-0.370
6166,-0.080,-0.410
6167,-0.100,-0.400
6168,-0.085,-0.400
6169,-0.120,-0.430
6170,-0.120,-0.470
6171,-0.125,-0.460
6172,-0.115,-0.440
6173,-0.135,-0.385
6174,-0.125,-0.360
6175,-0.040,-0.285
6176,-0.400,-0.270
6177,-1.805,-0.220
6178,-2.615,0.860
6179,-2.880,0.645
6180,-2.725,-0.695
6181,-1.870,-0.480
6182,-0.720,-0.870
6183,-0.040,-0.770
6184,0.115,-0.455
6185,0.150,-0.345
6186,0.185,-0.300
6187,0.195,-0.295
6188,0.225,-0.300
6189,0.215,-0.275
6190,0.260,-0.230
6191,0.290,-0.230
6192,0.305,-0.240
6193,0.250,-0.260
6194,0.285,-0.275
6195,0.330,-0.265
6196,0.320,-0.305
6197,0.355,-0.330
6198,0.365,-0.305
6199,0.395,-0.300
6200,0.435,-0.225
6201,0.440,-0.260
6202,0.450,-0.340
6203,0.440,-0.370
6204,0.420,-0.425
6205,0.380,-0.450
6206,0.340,-0.375
6207,0.265,-0.285
6208,0.225,-0.200
6209,0.195,-0.175
6210,0.150,-0.170
6211,0.110,-0.210
6212,0.075,-0.260
6213,0.040,-0.350
6214,0.010,-0.380
6215,0.000,-0.425
6216,-0.005,-0.435
6217,-0.005,-0.360
6218,-0.010,-0.360
6219,-0.010,-0.355
6220,-0.020,-0.340
6221,-0.025,-0.400
6222,-0.035,-0.445
6223,-0.030,-0.420
6224,-0.050,-0.440
6225,-0.040,-0.445
6226,-0.065,-0.415
6227,-0.045,-0.365
6228,-0.035,-0.320
6229,0.045,-0.410
6230,0.070,-0.330
6231,0.055,-0.245
6232,0.070,-0.215
6233,0.035,-0.040
6234,-0.020,0.015
6235,-0.040,0.000
6236,-0.070,-0.165
6237,-0.055,-0.295
6238,-0.070,-0.345
6239,-0.100,-0.510
6240,-0.135,-0.665
6241,-0.115,-0.675
6242,-0.120,-0.605
6243,-0.115,-0.615
6244,-0.115,-0.640
6245,-0.095,-0.590
6246,-0.120,-0.605
6247,-0.150,-0.610
6248,-0.150,-0.615
6249,-0.130,-0.610
6250,-0.035,-0.490
6251,-0.445,-0.455
6252,-1.810,-0.010
6253,-2.425,1.440
6254,-2.675,1.185
6255,-2.425,-0.230
6256,-1.375,-0.465
6257,-0.570,-1.080
6258,-0.065,-1.020
6259,0.105,-0.735
6260,0.120,-0.545
6261,0.145,-0.520
6262,0.190,-0.510
6263,0.170,-0.485
6264,0.200,-0.480
6265,0.185,-0.505
6266,0.185,-0.500
6267,0.195,-0.515
6268,0.225,-0.485
6269,0.220,-0.420
6270,0.235,-0.390
6271,0.285,-0.405
6272,0.270,-0.410
6273,0.330,-0.450
6274,0.330,-0.510
6275,0.340,-0.535
6276,0.325,-0.545
6277,0.325,-0.540
6278,0.320,-0.510
6279,0.290,-0.475
6280,0.275,-0.470
6281,0.230,-0.440
6282,0.185,-0.400
6283,0.130,-0.375
6284,0.070,-0.325
6285,0.060,-0.295
6286,0.050,-0.285
6287,0.005,-0.225
6288,0.030,-0.225
6289,0.015,-0.215
6290,0.000,-0.260
6291,-0.005,-0.300
6292,-0.020,-0.315
6293,-0.020,-0.300
6294,-0.015,-0.315
6295,-0.030,-0.285
6296,-0.015,-0.270
6297,-0.015,-0.240
6298,-0.015,-0.255
6299,-0.020,-0.285
6300,-0.045,-0.325
6301,-0.035,-0.365
6302,-0.045,-0.350
6303,0.000,-0.340
6304,0.070,-0.270
6305,0.045,-0.215
6306,0.065,-0.135
6307,0.060,-0.030
6308,0.015,0.095
6309,-0.055,0.120
6310,-0.115,0.080
6311,-0.145,0.005
6312,-0.090,-0.070
6313,-0.035,-0.145
6314,-0.150,-0.285
6315,-0.170,-0.395
6316,-0.150,-0.385
6317,-0.155,-0.400
6318,-0.145,-0.420
6319,-0.130,-0.430
6320,-0.145,-0.395
6321,-0.130,-0.375
6322,-0.145,-0.320
6323,-0.160,-0.270
6324,-0.150,-0.250
6325,-0.100,-0.225
6326,-0.100,-0.120
6327,-1.185,-0.295
6328,-2.300,0.285
6329,-2.725,1.145
6330,-2.750,0.090
6331,-2.500,-0.625
6332,-1.505,-0.295
6333,-0.600,-0.710
6334,-0.010,-0.535
6335,0.110,-0.245
6336,0.150,-0.140
6337,0.180,-0.160
6338,0.185,-0.145
6339,0.225,-0.090
6340,0.225,-0.070
6341,0.230,0.000
6342,0.265,0.020
6343,0.270,0.055
6344,0.265,0.055
6345,0.290,0.025
6346,0.300,0.000
6347,0.305,-0.025
6348,0.345,-0.015
6349,0.360,0.000
6350,0.385,0.015
6351,0.380,0.040
6352,0.400,0.020
6353,0.405,0.015
6354,0.405,0.010
6355,0.380,0.010
6356,0.415,-0.015
6357,0.450,0.030
6358,0.315,0.055
6359,0.100,0.185
6360,0.015,0.245
6361,0.045,0.235
6362,0.055,0.240
6363,0.045,0.185
6364,0.005,0.115
6365,0.015,0.090
6366,0.005,0.055
6367,0.000,0.015
6368,0.005,0.025
6369,-0.015,0.045
6370,0.000,0.025
6371,0.000,-0.005
6372,-0.015,-0.005
6373,-0.005,-0.045
6374,0.030,-0.090
6375,0.085,-0.100
6376,0.000,-0.100
6377,0.000,-0.085
6378,-0.090,-0.045
6379,-0.145,-0.025
6380,-0.060,-0.035
6381,0.005,0.005
6382,0.075,-0.010
6383,0.070,0.025
6384,0.075,0.090
6385,0.030,0.250
6386,-0.025,0.335
6387,-0.045,0.370
6388,-0.080,0.330
6389,-0.100,0.235
6390,-0.080,0.065
6391,-0.100,-0.130
6392,-0.120,-0.295
6393,-0.110,-0.365
6394,-0.095,-0.345
6395,-0.105,-0.325
6396,-0.115,-0.265
6397,-0.095,-0.240
6398,-0.025,-0.235
6399,-0.185,-0.200
6400,-0.205,-0.230
6401,-0.195,-0.245
6402,-0.195,-0.230
6403,-0.045,-0.100
6404,-0.460,-0.135
6405,-1.725,-0.120
6406,-2.545,0.765
6407,-2.820,0.775
6408,-2.695,-0.540
6409,-1.945,-0.360
6410,-0.905,-0.785
6411,-0.235,-0.730
6412,0.065,-0.430
6413,0.125,-0.145
6414,0.160,-0.055
6415,0.175,0.005
6416,0.215,0.015
6417,0.225,0.040
6418,0.215,0.045
6419,0.235,0.020
6420,0.225,0.000
6421,0.225,0.030
6422,0.295,0.035
6423,0.290,0.110
6424,0.350,0.140
6425,0.360,0.100
6426,0.350,0.090
6427,0.250,0.090
6428,0.290,0.035
6429,0.330,0.000
6430,0.345,0.000
6431,0.340,-0.020
6432,0.340,-0.005
6433,0.335,0.015
6434,0.305,0.025
6435,0.270,0.075
6436,0.210,0.100
6437,0.145,0.090
6438,0.130,0.095
6439,0.070,0.100
6440,0.050,0.090
6441,0.065,0.085
6442,0.015,0.070
6443,0.010,0.045
6444,0.000,0.000
6445,-0.005,-0.015
6446,0.020,-0.065
6447,0.075,-0.165
6448,-0.075,-0.160
6449,-0.100,-0.160
6450,-0.125,-0.090
6451,-0.100,-0.085
6452,-0.065,-0.085
6453,-0.080,-0.095
6454,-0.070,-0.150
6455,-0.070,-0.200
6456,-0.090,-0.230
6457,-0.065,-0.215
6458,-0.050,-0.195
6459,0.005,-0.160
6460,0.040,-0.065
6461,0.055,0.000
6462,0.030,0.105
6463,-0.005,0.245
6464,-0.060,0.220
6465,-0.095,0.170
6466,-0.145,0.060
6467,-0.095,-0.020
6468,-0.115,-0.195
6469,-0.110,-0.295
6470,-0.100,-0.400
6471,-0.150,-0.450
6472,-0.185,-0.485
6473,-0.205,-0.535
6474,-0.240,-0.535
6475,-0.215,-0.535
6476,-0.200,-0.545
6477,-0.175,-0.495
6478,-0.195,-0.430
6479,-0.190,-0.430
6480,-0.150,-0.405
6481,-0.090,-0.295
6482,-0.940,-0.380
6483,-2.160,0.140
6484,-2.635,1.360
6485,-2.765,0.485
6486,-2.500,-0.445
6487,-1.400,-0.345
6488,-0.575,-0.885
6489,-0.015,-0.820
6490,0.095,-0.550
6491,0.110,-0.435
6492,0.115,-0.420
6493,0.135,-0.440
6494,0.120,-0.455
6495,0.130,-0.495
6496,0.170,-0.450
6497,0.195,-0.355
6498,0.190,-0.400
6499,0.215,-0.350
6500,0.245,-0.370
6501,0.245,-0.390
6502,0.235,-0.460
6503,0.275,-0.505
6504,0.290,-0.525
6505,0.325,-0.465
6506,0.295,-0.480
6507,0.320,-0.490
6508,0.320,-0.600
6509,0.335,-0.595
6510,0.330,-0.515
6511,0.265,-0.520
6512,0.230,-0.575
6513,0.235,-0.520
6514,0.275,-0.550
6515,0.065,-0.485
6516,0.010,-0.395
6517,0.025,-0.445
6518,0.015,-0.445
6519,0.020,-0.460
6520,-0.005,-0.500
6521,-0.025,-0.525
6522,-0.025,-0.505
6523,-0.025,-0.535
6524,-0.025,-0.445
6525,-0.025,-0.460
6526,-0.015,-0.465
6527,-0.020,-0.380
6528,-0.020,-0.440
6529,-0.060,-0.480
6530,-0.055,-0.525
6531,-0.040,-0.480
6532,-0.050,-0.475
6533,-0.090,-0.470
6534,-0.020,-0.450
6535,-0.035,-0.420
6536,0.000,-0.405
6537,0.035,-0.425
6538,0.045,-0.410
6539,0.045,-0.305
6540,0.035,-0.180
6541,-0.005,-0.120
6542,-0.035,-0.130
6543,-0.050,-0.115
6544,-0.065,-0.285
6545,-0.080,-0.410
6546,-0.090,-0.560
6547,-0.110,-0.710
6548,-0.145,-0.815
6549,-0.160,-0.820
6550,-0.110,-0.710
6551,-0.135,-0.710
6552,-0.135,-0.740
6553,-0.130,-0.755
6554,-0.160,-0.690
6555,-0.170,-0.720
6556,-0.175,-0.765
6557,-0.170,-0.740
6558,-0.040,-0.605
6559,-0.725,-0.515
6560,-1.915,0.150
6561,-2.370,1.580
6562,-2.500,1.020
6563,-2.105,-0.380
6564,-1.015,-0.910
6565,-0.480,-1.310
6566,-0.050,-1.140
6567,0.060,-0.900
6568,0.090,-0.725
6569,0.100,-0.670
6570,0.130,-0.625
6571,0.140,-0.650
6572,0.155,-0.650
6573,0.135,-0.765
6574,0.185,-0.630
6575,0.180,-0.630
6576,0.185,-0.635
6577,0.200,-0.595
6578,0.220,-0.580
6579,0.240,-0.650
6580,0.235,-0.645
6581,0.265,-0.675
6582,0.265,-0.720
6583,0.255,-0.805
6584,0.265,-0.800
6585,0.285,-0.815
6586,0.225,-0.800
6587,0.200,-0.830
6588,0.190,-0.810
6589,0.165,-0.770
6590,0.110,-0.720
6591,0.070,-0.775
6592,0.015,-0.760
6593,0.020,-0.730
6594,0.000,-0.675
6595,0.010,-0.640
6596,0.000,-0.600
6597,-0.020,-0.595
6598,-0.040,-0.535
6599,-0.030,-0.595
6600,-0.055,-0.695
6601,-0.060,-0.665
6602,-0.050,-0.655
6603,-0.045,-0.615
6604,-0.055,-0.535
6605,-0.040,-0.495
6606,-0.050,-0.555
6607,-0.085,-0.635
6608,-0.115,-0.740
6609,-0.130,-0.800
6610,-0.115,-0.760
6611,-0.075,-0.730
6612,-0.020,-0.545
6613,0.000,-0.540
6614,0.030,-0.480
6615,0.010,-0.335
6616,0.000,-0.295
6617,-0.110,-0.375
6618,-0.120,-0.365
6619,-0.165,-0.395
6620,-0.120,-0.540
6621,-0.145,-0.625
6622,-0.185,-0.745
6623,-0.205,-0.900
6624,-0.195,-0.895
6625,-0.210,-0.870
6626,-0.230,-0.905
6627,-0.205,-0.970
6628,-0.225,-0.910
6629,-0.220,-0.970
6630,-0.225,-0.960
6631,-0.220,-0.865
6632,-0.190,-0.875
6633,-0.125,-0.740
6634,-0.325,-0.610
6635,-1.660,-0.110
6636,-2.215,1.360
6637,-2.420,1.525
6638,-2.220,-0.370
6639,-1.280,-0.935
6640,-0.630,-1.475
6641,-0.190,-1.370
6642,0.005,-1.040
6643,0.015,-0.855
6644,0.025,-0.855
6645,0.020,-0.855
6646,0.040,-0.775
6647,0.065,-0.910
6648,0.080,-0.865
6649,0.095,-0.720
6650,0.125,-0.745
6651,0.150,-0.780
6652,0.135,-0.680
6653,0.155,-0.805
6654,0.175,-0.850
6655,0.190,-0.840
6656,0.200,-0.900
6657,0.205,-0.800
6658,0.215,-0.760
