'sample interval','ECG0','ECG1'
'0.0078125 sec','mV','mV'
0,-0.105,0.080
1,-0.090,0.075
2,-0.090,0.080
3,-0.105,0.070
4,-0.125,0.065
5,-0.140,0.070
6,-0.135,0.060
7,-0.140,0.060
8,-0.145,0.065
9,-0.140,0.050
10,-0.150,0.055
11,-0.155,0.065
12,-0.140,0.050
13,-0.140,0.045
14,-0.140,0.050
15,-0.140,0.065
16,-0.145,0.055
17,-0.145,0.060
18,-0.140,0.055
19,-0.115,0.055
20,-0.125,0.050
21,-0.110,0.040
22,-0.125,0.065
23,-0.130,0.060
24,-0.105,0.050
25,-0.110,0.065
26,-0.110,0.060
27,-0.115,0.065
28,-0.130,0.075
29,-0.125,0.070
30,-0.135,0.055
31,-0.130,0.065
32,-0.135,0.060
33,-0.140,0.055
34,-0.145,0.040
35,-0.155,0.055
36,-0.170,0.050
37,-0.140,0.050
38,-0.145,0.045
39,-0.170,0.045
40,-0.165,0.045
41,-0.170,0.045
42,-0.180,0.050
43,-0.170,0.040
44,-0.165,0.035
45,-0.180,0.050
46,-0.180,0.040
47,-0.190,0.055
48,-0.185,0.050
49,-0.185,0.045
50,-0.195,0.050
51,-0.190,0.050
52,-0.185,0.055
53,-0.195,0.045
54,-0.190,0.040
55,-0.190,0.035
56,-0.185,0.020
57,-0.190,0.045
58,-0.190,0.055
59,-0.185,0.055
60,-0.165,0.060
61,-0.145,0.055
62,-0.145,0.065
63,-0.165,0.055
64,-0.170,0.045
65,-0.175,0.040
66,-0.185,0.030
67,-0.175,0.020
68,-0.175,0.025
69,-0.165,0.015
70,-0.175,0.010
71,-0.170,0.025
72,-0.165,0.035
73,-0.165,0.030
74,-0.190,0.045
75,-0.205,0.040
76,-0.205,0.045
77,-0.190,0.050
78,-0.190,0.050
79,-0.185,0.040
80,-0.185,0.045
81,-0.205,0.050
82,-0.255,0.055
83,-0.160,0.065
84,0.210,0.070
85,0.635,0.030
86,0.920,-0.010
87,0.675,-0.145
88,-0.115,-0.245
89,-0.575,-0.255
90,-0.520,-0.140
91,-0.345,-0.010
92,-0.260,0.075
93,-0.235,0.105
94,-0.235,0.095
95,-0.240,0.085
96,-0.230,0.070
97,-0.240,0.065
98,-0.230,0.065
99,-0.235,0.055
100,-0.245,0.065
101,-0.240,0.055
102,-0.235,0.055
103,-0.230,0.060
104,-0.240,0.055
105,-0.250,0.065
106,-0.245,0.065
107,-0.240,0.065
108,-0.230,0.065
109,-0.235,0.070
110,-0.250,0.070
111,-0.240,0.080
112,-0.240,0.075
113,-0.235,0.075
114,-0.220,0.085
115,-0.215,0.080
116,-0.210,0.090
117,-0.210,0.080
118,-0.215,0.075
119,-0.200,0.090
120,-0.185,0.080
121,-0.170,0.085
122,-0.160,0.070
123,-0.155,0.075
124,-0.125,0.075
125,-0.100,0.065
126,-0.090,0.070
127,-0.100,0.065
128,-0.090,0.075
129,-0.100,0.050
130,-0.105,0.060
131,-0.105,0.050
132,-0.105,0.055
133,-0.125,0.050
134,-0.145,0.055
135,-0.140,0.055
136,-0.145,0.050
137,-0.130,0.060
138,-0.135,0.055
139,-0.150,0.060
140,-0.160,0.055
141,-0.155,0.050
142,-0.140,0.065
143,-0.140,0.065
144,-0.130,0.065
145,-0.135,0.065
146,-0.135,0.055
147,-0.140,0.060
148,-0.125,0.065
149,-0.120,0.055
150,-0.120,0.060
151,-0.120,0.065
152,-0.130,0.065
153,-0.125,0.050
154,-0.110,0.050
155,-0.115,0.060
156,-0.110,0.070
157,-0.120,0.070
158,-0.145,0.075
159,-0.145,0.065
160,-0.145,0.060
161,-0.140,0.055
162,-0.140,0.065
163,-0.155,0.070
164,-0.180,0.060
165,-0.170,0.040
166,-0.170,0.040
167,-0.170,0.045
168,-0.180,0.055
169,-0.185,0.050
170,-0.190,0.055
171,-0.180,0.045
172,-0.180,0.050
173,-0.175,0.055
174,-0.185,0.045
175,-0.185,0.040
176,-0.200,0.040
177,-0.190,0.045
178,-0.195,0.045
179,-0.205,0.040
180,-0.205,0.050
181,-0.205,0.030
182,-0.185,0.040
183,-0.200,0.040
184,-0.195,0.055
185,-0.185,0.035
186,-0.175,0.030
187,-0.175,0.045
188,-0.170,0.060
189,-0.155,0.055
190,-0.155,0.050
191,-0.170,0.055
192,-0.165,0.050
193,-0.190,0.030
194,-0.185,0.000
195,-0.205,0.020
196,-0.180,0.020
197,-0.190,0.030
198,-0.160,0.030
199,-0.175,0.035
200,-0.195,0.045
201,-0.210,0.060
202,-0.210,0.055
203,-0.195,0.050
204,-0.210,0.050
205,-0.215,0.045
206,-0.210,0.045
207,-0.205,0.030
208,-0.225,0.040
209,-0.260,0.045
210,-0.190,0.065
211,0.140,0.080
212,0.550,0.035
213,0.870,0.000
214,0.660,-0.110
215,-0.095,-0.220
216,-0.575,-0.235
217,-0.570,-0.140
218,-0.400,-0.010
219,-0.285,0.065
220,-0.230,0.085
221,-0.240,0.100
222,-0.230,0.090
223,-0.250,0.080
224,-0.250,0.075
225,-0.255,0.065
226,-0.255,0.070
227,-0.245,0.075
228,-0.250,0.060
229,-0.250,0.065
230,-0.265,0.055
231,-0.260,0.065
232,-0.260,0.070
233,-0.255,0.070
234,-0.245,0.070
235,-0.240,0.070
236,-0.250,0.070
237,-0.250,0.075
238,-0.240,0.080
239,-0.230,0.070
240,-0.240,0.085
241,-0.245,0.085
242,-0.230,0.090
243,-0.220,0.090
244,-0.215,0.085
245,-0.195,0.090
246,-0.190,0.095
247,-0.195,0.090
248,-0.180,0.085
249,-0.160,0.075
250,-0.150,0.075
251,-0.125,0.080
252,-0.115,0.070
253,-0.120,0.075
254,-0.100,0.070
255,-0.090,0.075
256,-0.090,0.060
257,-0.090,0.070
258,-0.110,0.070
259,-0.125,0.055
260,-0.130,0.055
261,-0.145,0.060
262,-0.130,0.065
263,-0.130,0.065
264,-0.145,0.060
265,-0.160,0.060
266,-0.135,0.050
267,-0.145,0.065
268,-0.135,0.060
269,-0.135,0.055
270,-0.145,0.045
271,-0.150,0.060
272,-0.150,0.065
273,-0.155,0.055
274,-0.125,0.050
275,-0.120,0.045
276,-0.125,0.065
277,-0.125,0.060
278,-0.115,0.050
279,-0.115,0.065
280,-0.115,0.065
281,-0.120,0.060
282,-0.115,0.060
283,-0.120,0.055
284,-0.125,0.060
285,-0.130,0.055
286,-0.125,0.055
287,-0.130,0.070
288,-0.155,0.065
289,-0.160,0.065
290,-0.155,0.050
291,-0.145,0.050
292,-0.150,0.060
293,-0.155,0.045
294,-0.160,0.060
295,-0.155,0.050
296,-0.170,0.050
297,-0.165,0.040
298,-0.160,0.055
299,-0.155,0.050
300,-0.180,0.050
301,-0.170,0.045
302,-0.180,0.050
303,-0.170,0.035
304,-0.170,0.050
305,-0.180,0.050
306,-0.180,0.040
307,-0.185,0.040
308,-0.185,0.050
309,-0.170,0.040
310,-0.175,0.050
311,-0.175,0.055
312,-0.200,0.035
313,-0.180,0.040
314,-0.170,0.045
315,-0.155,0.035
316,-0.140,0.045
317,-0.165,0.060
318,-0.155,0.065
319,-0.150,0.065
320,-0.170,0.040
321,-0.180,0.035
322,-0.160,0.015
323,-0.190,0.025
324,-0.180,0.020
325,-0.180,0.020
326,-0.160,0.030
327,-0.150,0.035
328,-0.160,0.040
329,-0.180,0.050
330,-0.195,0.055
331,-0.195,0.050
332,-0.205,0.050
333,-0.180,0.040
334,-0.180,0.040
335,-0.175,0.055
336,-0.200,0.060
337,-0.240,0.050
338,-0.165,0.055
339,0.225,0.070
340,0.650,0.050
341,0.925,-0.020
342,0.665,-0.120
343,-0.105,-0.235
344,-0.545,-0.235
345,-0.525,-0.120
346,-0.350,-0.015
347,-0.245,0.080
348,-0.215,0.100
349,-0.235,0.105
350,-0.235,0.100
351,-0.210,0.085
352,-0.225,0.090
353,-0.225,0.085
354,-0.245,0.090
355,-0.235,0.085
356,-0.220,0.080
357,-0.220,0.085
358,-0.220,0.080
359,-0.240,0.065
360,-0.235,0.065
361,-0.240,0.080
362,-0.230,0.070
363,-0.230,0.075
364,-0.250,0.080
365,-0.235,0.090
366,-0.225,0.085
367,-0.245,0.100
368,-0.220,0.100
369,-0.220,0.090
370,-0.220,0.090
371,-0.215,0.110
372,-0.205,0.110
373,-0.205,0.110
374,-0.200,0.090
375,-0.175,0.090
376,-0.170,0.105
377,-0.170,0.095
378,-0.150,0.110
379,-0.135,0.095
380,-0.100,0.090
381,-0.080,0.105
382,-0.090,0.090
383,-0.090,0.090
384,-0.100,0.100
385,-0.095,0.080
386,-0.100,0.080
387,-0.100,0.075
388,-0.120,0.065
389,-0.110,0.075
390,-0.125,0.070
391,-0.120,0.070
392,-0.130,0.070
393,-0.125,0.075
394,-0.140,0.080
395,-0.140,0.070
396,-0.125,0.075
397,-0.130,0.070
398,-0.125,0.075
399,-0.125,0.070
400,-0.130,0.090
401,-0.120,0.075
402,-0.135,0.065
403,-0.115,0.085
404,-0.115,0.085
405,-0.110,0.090
406,-0.110,0.080
407,-0.120,0.085
408,-0.120,0.095
409,-0.105,0.085
410,-0.110,0.085
411,-0.110,0.085
412,-0.110,0.085
413,-0.135,0.080
414,-0.140,0.080
415,-0.135,0.090
416,-0.120,0.080
417,-0.125,0.070
418,-0.140,0.080
419,-0.150,0.060
420,-0.145,0.070
421,-0.150,0.075
422,-0.155,0.070
423,-0.140,0.060
424,-0.165,0.060
425,-0.175,0.070
426,-0.195,0.065
427,-0.185,0.065
428,-0.175,0.055
429,-0.165,0.060
430,-0.170,0.070
431,-0.190,0.075
432,-0.175,0.065
433,-0.180,0.065
434,-0.175,0.065
435,-0.165,0.060
436,-0.175,0.060
437,-0.180,0.045
438,-0.190,0.045
439,-0.180,0.055
440,-0.170,0.045
441,-0.170,0.045
442,-0.155,0.050
443,-0.145,0.055
444,-0.145,0.060
445,-0.135,0.060
446,-0.150,0.065
447,-0.155,0.045
448,-0.175,0.035
449,-0.180,0.040
450,-0.175,0.020
451,-0.165,0.010
452,-0.150,0.025
453,-0.165,0.020
454,-0.155,0.020
455,-0.170,0.025
456,-0.175,0.045
457,-0.180,0.055
458,-0.185,0.070
459,-0.200,0.045
460,-0.205,0.050
461,-0.185,0.050
462,-0.195,0.055
463,-0.175,0.050
464,-0.180,0.045
465,-0.205,0.055
466,-0.225,0.065
467,0.005,0.095
468,0.395,0.070
469,0.790,0.015
470,0.850,-0.050
471,0.270,-0.160
472,-0.430,-0.245
473,-0.580,-0.195
474,-0.430,-0.060
475,-0.275,0.040
476,-0.215,0.095
477,-0.220,0.100
478,-0.225,0.090
479,-0.230,0.080
480,-0.225,0.080
481,-0.230,0.080
482,-0.225,0.075
483,-0.235,0.075
484,-0.235,0.065
485,-0.235,0.055
486,-0.225,0.060
487,-0.230,0.055
488,-0.230,0.065
489,-0.230,0.065
490,-0.240,0.060
491,-0.240,0.085
492,-0.240,0.075
493,-0.240,0.080
494,-0.220,0.080
495,-0.220,0.075
496,-0.225,0.080
497,-0.230,0.095
498,-0.220,0.090
499,-0.205,0.095
500,-0.205,0.095
501,-0.205,0.090
502,-0.190,0.095
503,-0.205,0.090
504,-0.185,0.085
505,-0.170,0.100
506,-0.155,0.090
507,-0.140,0.100
508,-0.130,0.085
509,-0.115,0.090
510,-0.100,0.080
511,-0.090,0.075
512,-0.100,0.085
513,-0.100,0.080
514,-0.110,0.075
515,-0.120,0.075
516,-0.115,0.070
517,-0.125,0.075
518,-0.130,0.070
519,-0.150,0.070
520,-0.135,0.075
521,-0.145,0.075
522,-0.135,0.070
523,-0.135,0.070
524,-0.130,0.080
525,-0.140,0.075
526,-0.145,0.075
527,-0.135,0.080
528,-0.130,0.070
529,-0.120,0.060
530,-0.120,0.070
531,-0.125,0.060
532,-0.120,0.065
533,-0.120,0.070
534,-0.095,0.070
535,-0.105,0.070
536,-0.105,0.075
537,-0.115,0.075
538,-0.120,0.075
539,-0.120,0.070
540,-0.110,0.065
541,-0.110,0.065
542,-0.125,0.070
543,-0.140,0.065
544,-0.140,0.065
545,-0.145,0.060
546,-0.145,0.065
547,-0.135,0.065
548,-0.150,0.065
549,-0.145,0.065
550,-0.170,0.050
551,-0.170,0.055
552,-0.155,0.075
553,-0.160,0.060
554,-0.155,0.075
555,-0.180,0.065
556,-0.185,0.070
557,-0.170,0.065
558,-0.165,0.065
559,-0.160,0.060
560,-0.180,0.065
561,-0.180,0.055
562,-0.195,0.060
563,-0.195,0.070
564,-0.175,0.060
565,-0.180,0.065
566,-0.195,0.045
567,-0.200,0.055
568,-0.185,0.050
569,-0.180,0.035
570,-0.155,0.055
571,-0.145,0.060
572,-0.155,0.070
573,-0.150,0.060
574,-0.150,0.060
575,-0.160,0.035
576,-0.160,0.025
577,-0.160,0.015
578,-0.170,0.005
579,-0.180,0.015
580,-0.175,0.020
581,-0.155,0.010
582,-0.140,0.025
583,-0.170,0.050
584,-0.195,0.045
585,-0.205,0.050
586,-0.200,0.035
587,-0.170,0.045
588,-0.180,0.045
589,-0.180,0.030
590,-0.175,0.035
591,-0.190,0.040
592,-0.220,0.035
593,-0.120,0.060
594,0.225,0.065
595,0.650,0.020
596,0.875,-0.020
597,0.570,-0.165
598,-0.195,-0.245
599,-0.555,-0.235
600,-0.480,-0.125
601,-0.305,-0.005
602,-0.230,0.065
603,-0.225,0.095
604,-0.225,0.090
605,-0.205,0.070
606,-0.210,0.075
607,-0.215,0.070
608,-0.220,0.055
609,-0.230,0.055
610,-0.225,0.050
611,-0.215,0.050
612,-0.225,0.065
613,-0.230,0.055
614,-0.235,0.050
615,-0.230,0.050
616,-0.235,0.055
617,-0.230,0.060
618,-0.230,0.060
619,-0.230,0.070
620,-0.235,0.065
621,-0.235,0.070
622,-0.220,0.075
623,-0.220,0.065
624,-0.210,0.070
625,-0.220,0.075
626,-0.210,0.080
627,-0.200,0.055
628,-0.185,0.075
629,-0.175,0.075
630,-0.170,0.075
631,-0.170,0.070
632,-0.150,0.060
633,-0.130,0.070
634,-0.105,0.060
635,-0.085,0.060
636,-0.085,0.060
637,-0.090,0.065
638,-0.095,0.050
639,-0.085,0.050
640,-0.075,0.055
641,-0.080,0.045
642,-0.095,0.065
643,-0.120,0.055
644,-0.115,0.045
645,-0.115,0.045
646,-0.110,0.055
647,-0.115,0.055
648,-0.115,0.050
649,-0.125,0.070
650,-0.125,0.040
651,-0.110,0.045
652,-0.105,0.050
653,-0.115,0.050
654,-0.125,0.050
655,-0.110,0.045
656,-0.105,0.045
657,-0.090,0.050
658,-0.090,0.045
659,-0.085,0.055
660,-0.090,0.040
661,-0.090,0.055
662,-0.080,0.050
663,-0.085,0.050
664,-0.080,0.050
665,-0.080,0.045
666,-0.105,0.045
667,-0.090,0.045
668,-0.110,0.030
669,-0.095,0.045
670,-0.100,0.040
671,-0.105,0.040
672,-0.120,0.030
673,-0.110,0.040
674,-0.110,0.040
675,-0.115,0.045
676,-0.120,0.030
677,-0.130,0.035
678,-0.120,0.045
679,-0.130,0.030
680,-0.135,0.035
681,-0.125,0.020
682,-0.130,0.015
683,-0.125,0.030
684,-0.140,0.010
685,-0.130,0.015
686,-0.140,0.015
687,-0.130,0.025
688,-0.145,0.025
689,-0.160,0.025
690,-0.145,0.020
691,-0.145,0.025
692,-0.145,0.020
693,-0.145,0.010
694,-0.130,0.020
695,-0.145,0.020
696,-0.140,0.020
697,-0.115,0.020
698,-0.110,0.040
699,-0.110,0.040
700,-0.105,0.035
701,-0.115,0.030
702,-0.145,0.020
703,-0.135,0.005
704,-0.140,0.000
705,-0.130,0.000
706,-0.120,-0.005
707,-0.130,0.000
708,-0.130,0.000
709,-0.125,0.000
710,-0.120,0.020
711,-0.135,0.020
712,-0.155,0.020
713,-0.165,0.015
714,-0.170,0.015
715,-0.160,0.015
716,-0.145,0.015
717,-0.130,0.015
718,-0.160,0.010
719,-0.185,0.010
720,-0.155,0.010
721,0.135,0.025
722,0.575,0.005
723,0.885,-0.040
724,0.760,-0.150
725,0.005,-0.265
726,-0.515,-0.290
727,-0.540,-0.200
728,-0.360,-0.085
729,-0.230,0.020
730,-0.195,0.055
731,-0.210,0.055
732,-0.210,0.050
733,-0.195,0.030
734,-0.185,0.035
735,-0.195,0.045
736,-0.200,0.035
737,-0.205,0.025
738,-0.210,0.030
739,-0.215,0.030
740,-0.200,0.035
741,-0.205,0.035
742,-0.200,0.030
743,-0.210,0.030
744,-0.200,0.030
745,-0.215,0.020
746,-0.215,0.020
747,-0.205,0.020
748,-0.200,0.045
749,-0.220,0.040
750,-0.215,0.030
751,-0.190,0.035
752,-0.180,0.040
753,-0.185,0.040
754,-0.185,0.045
755,-0.185,0.050
756,-0.180,0.035
757,-0.165,0.045
758,-0.150,0.035
759,-0.135,0.030
760,-0.135,0.035
761,-0.120,0.030
762,-0.105,0.030
763,-0.095,0.030
764,-0.075,0.025
765,-0.070,0.010
766,-0.075,0.015
767,-0.085,0.010
768,-0.095,0.015
769,-0.090,0.020
770,-0.085,0.020
771,-0.110,0.010
772,-0.110,0.020
773,-0.125,0.020
774,-0.115,0.020
775,-0.115,0.025
776,-0.110,0.020
777,-0.115,0.010
778,-0.115,0.015
779,-0.125,0.005
780,-0.130,0.015
781,-0.105,0.005
782,-0.100,0.005
783,-0.110,0.010
784,-0.115,0.005
785,-0.105,0.000
786,-0.100,0.000
787,-0.085,0.005
788,-0.095,0.020
789,-0.095,0.030
790,-0.105,0.015
791,-0.085,0.025
792,-0.095,0.025
793,-0.105,0.020
794,-0.095,0.015
795,-0.100,0.020
796,-0.120,0.025
797,-0.120,0.015
798,-0.125,0.030
799,-0.125,0.015
800,-0.120,0.010
801,-0.125,0.015
802,-0.140,0.010
803,-0.150,0.020
804,-0.145,0.015
805,-0.140,0.010
806,-0.140,0.015
807,-0.155,0.015
808,-0.160,0.005
809,-0.165,0.005
810,-0.160,0.000
811,-0.160,0.010
812,-0.150,0.010
813,-0.145,0.005
814,-0.170,0.005
815,-0.170,0.000
816,-0.175,0.005
817,-0.160,0.000
818,-0.165,0.000
819,-0.165,0.000
820,-0.185,0.000
821,-0.180,0.000
822,-0.180,0.005
823,-0.155,0.000
824,-0.140,0.000
825,-0.140,0.010
826,-0.135,0.025
827,-0.155,0.010
828,-0.145,0.005
829,-0.150,0.000
830,-0.165,-0.005
831,-0.180,-0.015
832,-0.180,-0.030
833,-0.170,-0.015
834,-0.165,-0.015
835,-0.160,-0.020
836,-0.140,-0.010
837,-0.165,0.000
838,-0.195,-0.005
839,-0.195,0.005
840,-0.200,0.000
841,-0.185,-0.005
842,-0.190,0.000
843,-0.185,0.000
844,-0.185,-0.010
845,-0.190,-0.005
846,-0.210,0.000
847,-0.150,0.015
848,0.120,0.035
849,0.505,-0.005
850,0.800,-0.035
851,0.710,-0.135
852,0.040,-0.245
853,-0.515,-0.285
854,-0.555,-0.220
855,-0.385,-0.095
856,-0.265,-0.005
857,-0.215,0.030
858,-0.225,0.035
859,-0.215,0.025
860,-0.220,0.015
861,-0.240,0.005
862,-0.240,0.005
863,-0.235,0.010
864,-0.235,0.010
865,-0.240,0.015
866,-0.240,0.005
867,-0.235,0.000
868,-0.240,0.000
869,-0.250,0.005
870,-0.235,0.005
871,-0.240,0.005
872,-0.235,0.005
873,-0.250,0.000
874,-0.235,0.000
875,-0.230,0.015
876,-0.220,0.010
877,-0.220,0.020
878,-0.225,0.015
879,-0.225,0.015
880,-0.230,0.030
881,-0.210,0.020
882,-0.200,0.025
883,-0.200,0.015
884,-0.200,0.020
885,-0.190,0.015
886,-0.185,0.020
887,-0.165,0.015
888,-0.135,0.010
889,-0.110,0.000
890,-0.125,0.005
891,-0.105,0.000
892,-0.100,0.000
893,-0.100,0.000
894,-0.105,0.000
895,-0.110,0.005
896,-0.150,0.010
897,-0.140,0.010
898,-0.130,0.000
899,-0.145,0.005
900,-0.145,0.005
901,-0.155,0.000
902,-0.155,0.000
903,-0.155,0.000
904,-0.150,0.005
905,-0.140,0.000
906,-0.140,0.005
907,-0.140,0.005
908,-0.140,0.005
909,-0.145,0.000
910,-0.125,0.005
911,-0.120,0.000
912,-0.110,0.000
913,-0.105,0.000
914,-0.120,0.000
915,-0.105,0.005
916,-0.100,0.010
917,-0.100,0.000
918,-0.110,0.000
919,-0.110,0.000
920,-0.135,0.000
921,-0.130,-0.005
922,-0.125,0.000
923,-0.130,-0.010
924,-0.125,0.000
925,-0.140,-0.005
926,-0.155,0.000
927,-0.160,0.000
928,-0.140,0.000
929,-0.135,-0.010
930,-0.145,0.000
931,-0.155,0.000
932,-0.160,-0.010
933,-0.155,-0.010
934,-0.155,0.000
935,-0.165,-0.010
936,-0.160,-0.005
937,-0.175,-0.005
938,-0.175,-0.010
939,-0.165,-0.005
940,-0.180,-0.005
941,-0.170,-0.015
942,-0.170,-0.025
943,-0.175,-0.010
944,-0.185,-0.015
945,-0.185,-0.015
946,-0.170,-0.015
947,-0.160,-0.010
948,-0.195,0.000
949,-0.185,-0.005
950,-0.200,-0.010
951,-0.180,-0.015
952,-0.155,-0.015
953,-0.145,-0.010
954,-0.155,0.005
955,-0.160,0.000
956,-0.160,-0.010
957,-0.170,-0.020
958,-0.155,-0.030
959,-0.165,-0.040
960,-0.170,-0.020
961,-0.170,-0.035
962,-0.170,-0.045
963,-0.170,-0.045
964,-0.160,-0.045
965,-0.175,-0.020
966,-0.190,-0.015
967,-0.200,0.000
968,-0.195,-0.025
969,-0.185,-0.015
970,-0.185,-0.020
971,-0.180,-0.020
972,-0.180,-0.025
973,-0.205,-0.020
974,-0.225,-0.020
975,-0.180,-0.005
976,0.130,0.000
977,0.545,-0.040
978,0.855,-0.075
979,0.715,-0.190
980,0.000,-0.295
981,-0.550,-0.340
982,-0.545,-0.245
983,-0.365,-0.125
984,-0.250,-0.030
985,-0.235,0.010
986,-0.240,0.025
987,-0.230,0.000
988,-0.220,0.005
989,-0.230,0.000
990,-0.235,0.000
991,-0.240,0.010
992,-0.245,-0.005
993,-0.240,-0.005
994,-0.230,0.000
995,-0.230,0.000
996,-0.240,-0.005
997,-0.265,0.005
998,-0.255,-0.005
999,-0.230,0.005
1000,-0.235,0.000
1001,-0.230,0.000
1002,-0.240,0.010
1003,-0.260,0.000
1004,-0.235,0.000
1005,-0.235,0.015
1006,-0.240,0.015
1007,-0.245,0.015
1008,-0.235,0.010
1009,-0.235,0.005
1010,-0.235,0.015
1011,-0.205,0.005
1012,-0.210,0.015
1013,-0.185,0.005
1014,-0.180,0.010
1015,-0.170,0.005
1016,-0.150,0.005
1017,-0.125,0.000
1018,-0.100,0.000
1019,-0.105,0.000
1020,-0.075,0.005
1021,-0.105,-0.005
1022,-0.105,0.000
1023,-0.105,0.000
1024,-0.125,-0.010
1025,-0.115,0.000
1026,-0.135,0.000
1027,-0.140,0.000
1028,-0.135,0.000
1029,-0.140,0.000
1030,-0.130,0.000
1031,-0.130,0.005
1032,-0.150,0.000
1033,-0.145,0.000
1034,-0.135,0.000
1035,-0.130,0.000
1036,-0.125,0.000
1037,-0.135,0.005
1038,-0.140,0.000
1039,-0.130,-0.005
1040,-0.120,0.000
1041,-0.120,0.005
1042,-0.110,0.000
1043,-0.120,0.025
1044,-0.110,0.000
1045,-0.115,0.000
1046,-0.115,0.000
1047,-0.105,0.000
1048,-0.115,0.000
1049,-0.135,0.000
1050,-0.130,0.000
1051,-0.140,-0.005
1052,-0.140,0.000
1053,-0.135,0.000
1054,-0.145,0.000
1055,-0.150,0.000
1056,-0.160,0.000
1057,-0.145,0.000
1058,-0.150,0.000
1059,-0.180,-0.005
1060,-0.155,0.000
1061,-0.180,-0.010
1062,-0.180,-0.010
1063,-0.175,-0.015
1064,-0.180,0.000
1065,-0.170,-0.025
1066,-0.180,-0.020
1067,-0.180,-0.005
1068,-0.185,0.000
1069,-0.180,0.000
1070,-0.180,-0.005
1071,-0.185,-0.015
1072,-0.185,-0.020
1073,-0.190,-0.010
1074,-0.200,-0.015
1075,-0.200,-0.005
1076,-0.185,-0.015
1077,-0.180,-0.005
1078,-0.180,0.000
1079,-0.175,-0.005
1080,-0.170,-0.010
1081,-0.165,-0.005
1082,-0.160,0.005
1083,-0.160,0.005
1084,-0.160,-0.010
1085,-0.190,-0.015
1086,-0.190,-0.030
1087,-0.190,-0.045
1088,-0.180,-0.050
1089,-0.185,-0.040
1090,-0.185,-0.050
1091,-0.190,-0.035
1092,-0.190,-0.050
1093,-0.195,-0.020
1094,-0.205,-0.025
1095,-0.210,-0.015
1096,-0.220,-0.025
1097,-0.225,-0.015
1098,-0.220,-0.040
1099,-0.205,-0.025
1100,-0.205,-0.030
1101,-0.205,-0.030
1102,-0.240,-0.025
1103,-0.175,-0.010
1104,0.180,0.000
1105,0.605,-0.035
1106,0.835,-0.085
1107,0.545,-0.195
1108,-0.215,-0.295
1109,-0.635,-0.315
1110,-0.585,-0.200
1111,-0.370,-0.085
1112,-0.260,0.000
1113,-0.245,0.020
1114,-0.255,0.020
1115,-0.260,0.005
1116,-0.250,0.010
1117,-0.245,0.005
1118,-0.240,0.000
1119,-0.240,-0.005
1120,-0.255,0.000
1121,-0.260,0.000
1122,-0.265,-0.010
1123,-0.260,0.005
1124,-0.255,0.000
1125,-0.250,-0.005
1126,-0.265,-0.005
1127,-0.290,-0.015
1128,-0.265,-0.005
1129,-0.260,-0.005
1130,-0.255,0.000
1131,-0.255,0.000
1132,-0.250,0.000
1133,-0.265,0.000
1134,-0.255,0.000
1135,-0.235,0.005
1136,-0.235,0.000
1137,-0.240,-0.005
1138,-0.245,0.000
1139,-0.245,-0.015
1140,-0.230,0.000
1141,-0.215,-0.005
1142,-0.190,-0.010
1143,-0.195,0.000
1144,-0.180,-0.010
1145,-0.165,-0.010
1146,-0.155,-0.010
1147,-0.120,-0.025
1148,-0.125,-0.020
1149,-0.130,-0.015
1150,-0.140,-0.010
1151,-0.155,-0.015
1152,-0.150,-0.010
1153,-0.155,-0.010
1154,-0.150,-0.020
1155,-0.160,-0.005
1156,-0.175,-0.010
1157,-0.165,-0.015
1158,-0.155,0.000
1159,-0.170,-0.005
1160,-0.155,-0.020
1161,-0.175,-0.015
1162,-0.165,-0.015
1163,-0.155,-0.020
1164,-0.150,-0.010
1165,-0.140,-0.010
1166,-0.140,-0.015
1167,-0.155,-0.015
1168,-0.140,-0.020
1169,-0.140,-0.015
1170,-0.125,-0.005
1171,-0.120,-0.020
1172,-0.125,-0.015
1173,-0.135,-0.015
1174,-0.140,-0.025
1175,-0.135,-0.020
1176,-0.125,-0.020
1177,-0.140,-0.020
1178,-0.140,-0.020
1179,-0.145,-0.020
1180,-0.170,-0.005
1181,-0.170,-0.025
1182,-0.150,-0.020
1183,-0.160,-0.025
1184,-0.160,-0.015
1185,-0.170,-0.020
1186,-0.170,-0.025
1187,-0.175,-0.025
1188,-0.170,-0.015
1189,-0.160,-0.025
1190,-0.170,-0.020
1191,-0.185,-0.015
1192,-0.195,-0.015
1193,-0.190,-0.025
1194,-0.185,-0.040
1195,-0.190,-0.040
1196,-0.185,-0.035
1197,-0.205,-0.025
1198,-0.185,-0.040
1199,-0.175,-0.025
1200,-0.190,-0.035
1201,-0.190,-0.030
1202,-0.190,-0.030
1203,-0.200,-0.025
1204,-0.205,-0.030
1205,-0.180,-0.030
1206,-0.175,-0.025
1207,-0.170,-0.020
1208,-0.180,-0.005
1209,-0.175,-0.005
1210,-0.165,-0.015
1211,-0.165,-0.015
1212,-0.180,-0.045
1213,-0.180,-0.055
1214,-0.185,-0.060
1215,-0.180,-0.060
1216,-0.200,-0.080
1217,-0.165,-0.055
1218,-0.170,-0.045
1219,-0.170,-0.045
1220,-0.205,-0.045
1221,-0.215,-0.040
1222,-0.225,-0.055
1223,-0.200,-0.040
1224,-0.200,-0.035
1225,-0.210,-0.045
1226,-0.210,-0.050
1227,-0.205,-0.045
1228,-0.225,-0.060
1229,-0.220,-0.035
1230,0.015,-0.005
1231,0.420,-0.035
1232,0.765,-0.065
1233,0.785,-0.155
1234,0.225,-0.265
1235,-0.445,-0.340
1236,-0.580,-0.305
1237,-0.425,-0.155
1238,-0.290,-0.040
1239,-0.240,0.005
1240,-0.240,0.025
1241,-0.235,0.010
1242,-0.240,0.000
1243,-0.240,-0.005
1244,-0.250,0.000
1245,-0.250,0.000
1246,-0.245,-0.015
1247,-0.230,-0.015
1248,-0.240,-0.020
1249,-0.235,-0.010
1250,-0.265,-0.015
1251,-0.260,-0.020
1252,-0.245,-0.005
1253,-0.250,0.000
1254,-0.240,-0.005
1255,-0.240,0.000
1256,-0.255,-0.005
1257,-0.265,0.000
1258,-0.255,0.000
1259,-0.240,0.000
1260,-0.230,0.000
1261,-0.250,0.010
1262,-0.235,-0.005
1263,-0.230,0.000
1264,-0.215,0.000
1265,-0.205,0.005
1266,-0.215,0.000
1267,-0.210,-0.010
1268,-0.190,-0.015
1269,-0.180,-0.005
1270,-0.150,-0.010
1271,-0.140,-0.025
1272,-0.130,-0.025
1273,-0.125,-0.015
1274,-0.110,-0.020
1275,-0.110,-0.020
1276,-0.110,-0.015
1277,-0.130,-0.020
1278,-0.125,-0.020
1279,-0.140,-0.015
1280,-0.160,-0.025
1281,-0.150,-0.015
1282,-0.140,-0.010
1283,-0.150,-0.015
1284,-0.150,-0.010
1285,-0.165,-0.010
1286,-0.160,-0.020
1287,-0.135,-0.025
1288,-0.130,-0.010
1289,-0.150,-0.010
1290,-0.140,-0.010
1291,-0.140,-0.020
1292,-0.135,-0.005
1293,-0.130,-0.010
1294,-0.130,-0.010
1295,-0.120,0.000
1296,-0.120,-0.010
1297,-0.115,0.000
1298,-0.120,0.000
1299,-0.115,-0.005
1300,-0.110,-0.025
1301,-0.120,-0.015
1302,-0.120,-0.005
1303,-0.110,-0.005
1304,-0.130,-0.005
1305,-0.125,0.000
1306,-0.135,-0.010
1307,-0.135,-0.025
1308,-0.150,-0.015
1309,-0.150,-0.010
1310,-0.145,-0.015
1311,-0.140,-0.010
1312,-0.145,-0.005
1313,-0.145,0.000
1314,-0.145,-0.010
1315,-0.150,-0.005
1316,-0.170,0.000
1317,-0.155,-0.020
1318,-0.155,-0.025
1319,-0.160,-0.020
1320,-0.170,-0.010
1321,-0.180,-0.025
1322,-0.180,-0.015
1323,-0.160,-0.015
1324,-0.175,-0.025
1325,-0.170,-0.020
1326,-0.185,-0.020
1327,-0.180,-0.020
1328,-0.180,-0.020
1329,-0.180,-0.015
1330,-0.170,-0.010
1331,-0.180,-0.020
1332,-0.170,-0.030
1333,-0.160,-0.015
1334,-0.150,-0.005
1335,-0.125,-0.005
1336,-0.130,-0.005
1337,-0.135,-0.010
1338,-0.150,-0.025
1339,-0.155,-0.035
1340,-0.165,-0.035
1341,-0.150,-0.050
1342,-0.165,-0.055
1343,-0.160,-0.050
1344,-0.155,-0.055
1345,-0.155,-0.050
1346,-0.155,-0.040
1347,-0.165,-0.015
1348,-0.185,-0.010
1349,-0.195,-0.025
1350,-0.190,-0.020
1351,-0.200,-0.030
1352,-0.195,-0.025
1353,-0.175,-0.035
1354,-0.185,-0.040
1355,-0.215,-0.040
1356,-0.225,-0.020
1357,-0.035,-0.020
1358,0.360,-0.015
1359,0.740,-0.060
1360,0.890,-0.135
1361,0.460,-0.245
1362,-0.295,-0.340
1363,-0.575,-0.305
1364,-0.475,-0.185
1365,-0.300,-0.065
1366,-0.200,0.000
1367,-0.225,0.025
1368,-0.225,0.010
1369,-0.220,0.000
1370,-0.225,-0.005
1371,-0.215,0.000
1372,-0.215,0.000
1373,-0.235,-0.015
1374,-0.225,-0.015
1375,-0.230,-0.020
1376,-0.220,-0.010
1377,-0.230,-0.010
1378,-0.225,0.000
1379,-0.230,-0.025
1380,-0.240,-0.005
1381,-0.225,-0.010
1382,-0.215,0.000
1383,-0.225,0.000
1384,-0.225,0.000
1385,-0.230,0.010
1386,-0.245,0.000
1387,-0.235,0.005
1388,-0.220,0.020
1389,-0.215,0.030
1390,-0.215,0.025
1391,-0.210,0.010
1392,-0.215,0.005
1393,-0.205,0.000
1394,-0.190,0.000
1395,-0.180,0.000
1396,-0.170,-0.010
1397,-0.145,0.000
1398,-0.150,0.000
1399,-0.120,0.000
1400,-0.105,0.000
1401,-0.100,-0.005
1402,-0.100,0.000
1403,-0.090,-0.010
1404,-0.105,-0.010
1405,-0.100,-0.010
1406,-0.115,-0.005
1407,-0.115,-0.015
1408,-0.130,0.000
1409,-0.130,-0.010
1410,-0.150,-0.010
1411,-0.140,0.000
1412,-0.135,-0.005
1413,-0.120,-0.005
1414,-0.135,-0.010
1415,-0.140,-0.005
1416,-0.140,-0.005
1417,-0.130,0.000
1418,-0.130,-0.005
1419,-0.130,0.000
1420,-0.125,-0.005
1421,-0.130,-0.005
1422,-0.100,-0.010
1423,-0.110,-0.015
1424,-0.110,0.000
1425,-0.100,0.000
1426,-0.110,0.000
1427,-0.100,-0.005
1428,-0.105,0.000
1429,-0.100,-0.005
1430,-0.110,0.000
1431,-0.105,0.000
1432,-0.135,0.000
1433,-0.140,0.000
1434,-0.135,0.000
1435,-0.130,0.000
1436,-0.135,-0.010
1437,-0.140,-0.005
1438,-0.150,-0.005
1439,-0.140,-0.005
1440,-0.160,-0.005
1441,-0.150,-0.010
1442,-0.155,0.000
1443,-0.150,-0.020
1444,-0.150,-0.005
1445,-0.160,-0.005
1446,-0.170,0.000
1447,-0.165,-0.010
1448,-0.160,0.000
1449,-0.160,0.005
1450,-0.160,0.000
1451,-0.170,0.000
1452,-0.170,-0.010
1453,-0.155,0.000
1454,-0.160,-0.005
1455,-0.165,-0.005
1456,-0.170,0.000
1457,-0.170,-0.005
1458,-0.175,0.000
1459,-0.170,0.000
1460,-0.150,-0.010
1461,-0.135,0.005
1462,-0.135,0.005
1463,-0.145,0.005
1464,-0.145,0.005
1465,-0.145,0.010
1466,-0.160,-0.005
1467,-0.160,-0.025
1468,-0.170,-0.030
1469,-0.170,-0.040
1470,-0.160,-0.020
1471,-0.145,-0.015
1472,-0.135,0.000
1473,-0.160,-0.015
1474,-0.190,-0.010
1475,-0.180,-0.020
1476,-0.200,-0.010
1477,-0.190,-0.015
1478,-0.190,0.000
1479,-0.190,-0.015
1480,-0.190,-0.015
1481,-0.190,-0.010
1482,-0.215,-0.015
1483,-0.165,-0.020
1484,0.100,0.000
1485,0.480,-0.015
1486,0.740,-0.060
1487,0.585,-0.135
1488,-0.070,-0.245
1489,-0.535,-0.300
1490,-0.540,-0.210
1491,-0.370,-0.085
1492,-0.250,0.000
1493,-0.220,0.035
1494,-0.215,0.020
1495,-0.215,0.015
1496,-0.225,0.015
1497,-0.230,0.005
1498,-0.230,-0.005
1499,-0.225,0.000
1500,-0.220,0.000
1501,-0.220,-0.015
1502,-0.225,0.000
1503,-0.235,-0.010
1504,-0.235,-0.015
1505,-0.220,0.000
1506,-0.220,0.000
1507,-0.240,0.000
1508,-0.240,0.015
1509,-0.235,0.000
1510,-0.235,0.000
1511,-0.230,0.005
1512,-0.220,0.000
1513,-0.220,0.010
1514,-0.215,0.010
1515,-0.220,0.010
1516,-0.210,0.010
1517,-0.200,0.010
1518,-0.195,0.025
1519,-0.190,0.015
1520,-0.190,0.020
1521,-0.190,0.000
1522,-0.180,0.000
1523,-0.140,0.005
1524,-0.125,0.000
1525,-0.120,0.000
1526,-0.110,0.005
1527,-0.110,0.010
1528,-0.115,0.000
1529,-0.100,0.005
1530,-0.095,0.000
1531,-0.130,0.010
1532,-0.130,0.005
1533,-0.135,0.000
1534,-0.140,0.005
1535,-0.140,0.000
1536,-0.135,0.000
1537,-0.145,0.000
1538,-0.150,0.000
1539,-0.140,-0.010
1540,-0.150,0.010
1541,-0.150,0.010
1542,-0.140,0.015
1543,-0.130,0.005
1544,-0.135,0.005
1545,-0.150,0.010
1546,-0.135,0.005
1547,-0.120,-0.005
1548,-0.105,0.005
1549,-0.100,0.000
1550,-0.110,0.015
1551,-0.105,0.000
1552,-0.095,0.010
1553,-0.100,0.020
1554,-0.085,0.020
1555,-0.110,0.030
1556,-0.125,0.025
1557,-0.140,0.010
1558,-0.120,0.000
1559,-0.110,0.005
1560,-0.130,0.000
1561,-0.140,0.015
1562,-0.150,0.010
1563,-0.165,0.000
1564,-0.160,0.010
1565,-0.145,0.000
1566,-0.145,0.010
1567,-0.155,0.010
1568,-0.165,0.010
1569,-0.170,0.010
1570,-0.160,0.005
1571,-0.160,0.005
1572,-0.150,0.010
1573,-0.175,0.005
1574,-0.170,0.000
1575,-0.175,0.010
1576,-0.175,0.010
1577,-0.170,0.000
1578,-0.160,-0.005
1579,-0.180,0.010
1580,-0.175,0.000
1581,-0.185,0.000
1582,-0.170,0.000
1583,-0.160,0.010
1584,-0.160,0.010
1585,-0.170,0.010
1586,-0.175,0.000
1587,-0.170,-0.005
1588,-0.130,0.005
1589,-0.140,0.020
1590,-0.140,0.025
1591,-0.140,0.015
1592,-0.150,0.000
1593,-0.170,0.000
1594,-0.170,-0.010
1595,-0.155,-0.020
1596,-0.155,-0.020
1597,-0.160,-0.020
1598,-0.155,-0.015
1599,-0.160,-0.020
1600,-0.150,0.000
1601,-0.165,0.000
1602,-0.185,0.000
1603,-0.200,-0.005
1604,-0.185,-0.015
1605,-0.205,0.000
1606,-0.190,-0.005
1607,-0.190,-0.020
1608,-0.185,-0.005
1609,-0.215,-0.005
1610,-0.230,-0.010
1611,-0.040,0.015
1612,0.345,0.000
1613,0.715,-0.020
1614,0.840,-0.110
1615,0.360,-0.230
1616,-0.350,-0.320
1617,-0.575,-0.290
1618,-0.455,-0.150
1619,-0.275,-0.035
1620,-0.220,0.040
1621,-0.240,0.060
1622,-0.240,0.040
1623,-0.230,0.025
1624,-0.235,0.030
1625,-0.210,0.025
1626,-0.235,0.030
1627,-0.230,0.025
1628,-0.230,0.010
1629,-0.235,0.010
1630,-0.235,0.010
1631,-0.235,0.005
1632,-0.250,0.000
1633,-0.235,0.005
1634,-0.240,0.005
1635,-0.235,0.015
1636,-0.220,0.020
1637,-0.235,0.025
1638,-0.230,0.020
1639,-0.240,0.025
1640,-0.235,0.025
1641,-0.210,0.025
1642,-0.200,0.030
1643,-0.225,0.035
1644,-0.230,0.045
1645,-0.215,0.025
1646,-0.200,0.035
1647,-0.200,0.025
1648,-0.180,0.035
1649,-0.175,0.020
1650,-0.155,0.005
1651,-0.145,0.015
1652,-0.135,0.020
1653,-0.115,0.020
1654,-0.105,0.010
1655,-0.090,0.000
1656,-0.090,0.005
1657,-0.095,0.000
1658,-0.105,0.010
1659,-0.105,0.005
1660,-0.120,0.000
1661,-0.125,0.000
1662,-0.130,0.005
1663,-0.125,0.005
1664,-0.145,0.005
1665,-0.130,0.000
1666,-0.130,0.000
1667,-0.130,0.000
1668,-0.140,0.000
1669,-0.125,0.000
1670,-0.130,0.000
1671,-0.130,0.015
1672,-0.125,0.010
1673,-0.125,0.000
1674,-0.120,0.005
1675,-0.120,0.015
1676,-0.120,0.015
1677,-0.115,0.020
1678,-0.105,0.010
1679,-0.090,0.020
1680,-0.095,0.025
1681,-0.095,0.035
1682,-0.095,0.035
1683,-0.095,0.025
1684,-0.095,0.025
1685,-0.105,0.015
1686,-0.130,0.015
1687,-0.130,0.015
1688,-0.135,0.025
1689,-0.130,0.000
1690,-0.125,0.015
1691,-0.130,0.025
1692,-0.140,0.000
1693,-0.140,0.015
1694,-0.155,0.015
1695,-0.155,0.015
1696,-0.145,0.010
1697,-0.160,0.020
1698,-0.155,0.010
1699,-0.145,0.020
1700,-0.160,0.030
1701,-0.160,0.010
1702,-0.150,0.015
1703,-0.150,0.025
1704,-0.165,0.010
1705,-0.150,0.030
1706,-0.150,0.025
1707,-0.145,0.025
1708,-0.160,0.020
1709,-0.155,0.015
1710,-0.170,0.010
1711,-0.165,0.025
1712,-0.165,0.020
1713,-0.150,0.015
1714,-0.130,0.020
1715,-0.130,0.025
1716,-0.125,0.030
1717,-0.130,0.035
1718,-0.125,0.040
1719,-0.125,0.025
1720,-0.135,0.010
1721,-0.155,0.000
1722,-0.160,-0.010
1723,-0.155,0.000
1724,-0.140,0.000
1725,-0.135,0.000
1726,-0.125,0.000
1727,-0.145,0.010
1728,-0.150,0.015
1729,-0.175,0.010
1730,-0.160,0.005
1731,-0.175,0.010
1732,-0.165,0.005
1733,-0.165,0.010
1734,-0.170,0.000
1735,-0.170,0.000
1736,-0.185,0.000
1737,-0.195,0.000
1738,-0.020,0.020
1739,0.375,0.000
1740,0.740,-0.025
1741,0.835,-0.105
1742,0.360,-0.210
1743,-0.340,-0.290
1744,-0.570,-0.275
1745,-0.460,-0.135
1746,-0.295,-0.040
1747,-0.210,0.040
1748,-0.200,0.040
1749,-0.205,0.035
1750,-0.205,0.030
1751,-0.220,0.020
1752,-0.225,0.025
1753,-0.215,0.020
1754,-0.195,0.015
1755,-0.210,0.015
1756,-0.210,0.000
1757,-0.225,0.005
1758,-0.215,0.015
1759,-0.225,0.000
1760,-0.220,0.010
1761,-0.205,0.000
1762,-0.200,0.025
1763,-0.230,0.015
1764,-0.220,0.020
1765,-0.220,0.015
1766,-0.195,0.020
1767,-0.195,0.035
1768,-0.200,0.025
1769,-0.210,0.025
1770,-0.195,0.020
1771,-0.200,0.020
1772,-0.175,0.020
1773,-0.170,0.030
1774,-0.180,0.030
1775,-0.180,0.010
1776,-0.165,0.005
1777,-0.150,0.010
1778,-0.125,0.010
1779,-0.125,0.020
1780,-0.120,0.005
1781,-0.100,0.000
1782,-0.095,0.000
1783,-0.090,-0.005
1784,-0.085,0.000
1785,-0.095,0.005
1786,-0.110,0.000
1787,-0.120,0.000
1788,-0.130,-0.005
1789,-0.130,0.000
1790,-0.120,0.000
1791,-0.125,0.000
1792,-0.155,0.000
1793,-0.135,0.000
1794,-0.145,0.000
1795,-0.120,0.000
1796,-0.115,0.005
1797,-0.115,0.015
1798,-0.125,0.005
1799,-0.115,0.010
1800,-0.110,0.000
1801,-0.095,0.010
1802,-0.095,0.005
1803,-0.085,0.010
1804,-0.105,0.010
1805,-0.095,0.005
1806,-0.080,0.010
1807,-0.075,0.010
1808,-0.085,0.005
1809,-0.085,0.020
1810,-0.115,0.005
1811,-0.100,0.010
1812,-0.100,0.000
1813,-0.105,0.025
1814,-0.115,0.020
1815,-0.115,0.015
1816,-0.125,0.020
1817,-0.130,0.010
1818,-0.125,0.010
1819,-0.135,0.010
1820,-0.130,0.000
1821,-0.150,0.005
1822,-0.155,0.000
1823,-0.135,0.010
1824,-0.135,0.000
1825,-0.135,0.010
1826,-0.135,0.005
1827,-0.140,0.005
1828,-0.150,0.010
1829,-0.155,0.000
1830,-0.150,0.010
1831,-0.150,0.010
1832,-0.160,0.005
1833,-0.150,0.000
1834,-0.155,0.010
1835,-0.160,0.010
1836,-0.155,0.000
1837,-0.140,0.010
1838,-0.150,0.000
1839,-0.145,0.005
1840,-0.155,0.000
1841,-0.130,0.000
1842,-0.115,0.010
1843,-0.100,0.015
1844,-0.115,0.015
1845,-0.125,0.020
1846,-0.130,0.000
1847,-0.140,0.000
1848,-0.150,-0.020
1849,-0.135,-0.025
1850,-0.125,-0.015
1851,-0.130,-0.025
1852,-0.135,-0.020
1853,-0.135,-0.015
1854,-0.120,-0.010
1855,-0.140,0.000
1856,-0.160,0.005
1857,-0.170,0.000
1858,-0.175,0.000
1859,-0.150,-0.020
1860,-0.145,-0.025
1861,-0.140,-0.025
1862,-0.155,-0.015
1863,-0.205,-0.015
1864,-0.150,0.000
1865,0.150,0.005
1866,0.565,-0.015
1867,0.865,-0.045
1868,0.740,-0.175
1869,0.030,-0.285
1870,-0.490,-0.330
1871,-0.520,-0.240
1872,-0.330,-0.110
1873,-0.230,-0.010
1874,-0.195,0.035
1875,-0.200,0.035
1876,-0.205,0.020
1877,-0.200,0.005
1878,-0.200,0.000
1879,-0.195,0.005
1880,-0.210,0.000
1881,-0.205,0.000
1882,-0.205,0.005
1883,-0.195,0.000
1884,-0.215,0.000
1885,-0.205,0.000
1886,-0.215,0.000
1887,-0.215,0.000
1888,-0.215,0.010
1889,-0.220,0.005
1890,-0.210,0.010
1891,-0.205,0.015
1892,-0.220,0.020
1893,-0.210,0.020
1894,-0.210,0.015
1895,-0.195,0.025
1896,-0.195,0.045
1897,-0.175,0.035
1898,-0.185,0.035
1899,-0.185,0.050
1900,-0.180,0.035
1901,-0.180,0.040
1902,-0.150,0.025
1903,-0.130,0.020
1904,-0.130,0.020
1905,-0.115,0.020
1906,-0.105,0.020
1907,-0.080,0.015
1908,-0.075,0.020
1909,-0.055,0.005
1910,-0.065,0.000
1911,-0.075,0.005
1912,-0.075,0.010
1913,-0.075,0.005
1914,-0.080,0.000
1915,-0.100,0.010
1916,-0.110,0.005
1917,-0.115,0.005
1918,-0.110,0.005
1919,-0.105,0.000
1920,-0.100,0.000
1921,-0.110,0.010
1922,-0.105,0.010
1923,-0.100,0.015
1924,-0.100,0.020
1925,-0.080,0.010
1926,-0.105,0.025
1927,-0.100,0.010
1928,-0.085,0.020
1929,-0.095,0.025
1930,-0.080,0.035
1931,-0.075,0.025
1932,-0.065,0.030
1933,-0.055,0.035
1934,-0.070,0.030
1935,-0.060,0.045
1936,-0.060,0.040
1937,-0.060,0.040
1938,-0.070,0.045
1939,-0.080,0.035
1940,-0.075,0.025
1941,-0.080,0.035
1942,-0.090,0.040
1943,-0.090,0.025
1944,-0.095,0.025
1945,-0.100,0.030
1946,-0.095,0.025
1947,-0.110,0.025
1948,-0.100,0.020
1949,-0.105,0.010
1950,-0.100,0.030
1951,-0.110,0.010
1952,-0.105,0.015
1953,-0.110,0.015
1954,-0.100,0.015
1955,-0.105,0.020
1956,-0.100,0.020
1957,-0.115,0.025
1958,-0.120,0.025
1959,-0.115,0.025
1960,-0.130,0.020
1961,-0.100,0.015
1962,-0.115,0.000
1963,-0.115,0.015
1964,-0.130,0.020
1965,-0.125,0.020
1966,-0.110,0.015
1967,-0.105,0.010
1968,-0.105,0.010
1969,-0.080,0.020
1970,-0.095,0.020
1971,-0.100,0.035
1972,-0.090,0.025
1973,-0.085,0.020
1974,-0.100,0.015
1975,-0.115,0.000
1976,-0.105,0.000
1977,-0.100,-0.020
1978,-0.080,-0.010
1979,-0.085,0.000
1980,-0.090,-0.010
1981,-0.080,0.005
1982,-0.125,0.015
1983,-0.120,0.005
1984,-0.145,0.000
1985,-0.120,0.000
1986,-0.125,0.005
1987,-0.135,0.000
1988,-0.120,0.000
1989,-0.130,0.000
1990,-0.140,0.005
1991,-0.160,0.010
1992,-0.035,0.020
1993,0.325,0.005
1994,0.715,-0.015
1995,0.935,-0.080
1996,0.585,-0.200
1997,-0.155,-0.290
1998,-0.515,-0.290
1999,-0.445,-0.175
2000,-0.280,-0.070
2001,-0.180,0.025
2002,-0.170,0.040
2003,-0.165,0.040
2004,-0.160,0.030
2005,-0.175,0.020
2006,-0.165,0.025
2007,-0.180,0.020
2008,-0.170,0.020
2009,-0.160,0.005
2010,-0.175,0.015
2011,-0.165,0.010
2012,-0.180,0.005
2013,-0.185,0.010
2014,-0.170,0.000
2015,-0.170,0.005
2016,-0.170,0.020
2017,-0.185,0.010
2018,-0.195,0.020
2019,-0.180,0.000
2020,-0.170,0.025
2021,-0.175,0.025
2022,-0.165,0.020
2023,-0.175,0.020
2024,-0.160,0.040
2025,-0.160,0.030
2026,-0.160,0.035
2027,-0.160,0.040
2028,-0.140,0.025
2029,-0.145,0.025
2030,-0.140,0.025
2031,-0.120,0.025
2032,-0.110,0.015
2033,-0.095,0.015
2034,-0.085,0.025
2035,-0.075,0.005
2036,-0.070,0.010
2037,-0.060,0.020
2038,-0.055,0.010
2039,-0.055,0.010
2040,-0.080,0.005
2041,-0.095,0.005
2042,-0.100,0.005
2043,-0.075,0.010
2044,-0.085,0.000
2045,-0.105,0.000
2046,-0.120,0.000
2047,-0.120,0.000
2048,-0.115,0.000
2049,-0.105,-0.005
2050,-0.090,0.005
2051,-0.095,0.010
2052,-0.100,0.010
2053,-0.095,0.000
2054,-0.090,0.005
2055,-0.075,0.010
2056,-0.065,0.020
2057,-0.070,0.030
2058,-0.080,0.015
2059,-0.075,0.025
2060,-0.070,0.015
2061,-0.055,0.030
2062,-0.040,0.030
2063,-0.055,0.035
2064,-0.075,0.020
2065,-0.075,0.030
2066,-0.070,0.020
2067,-0.080,0.015
2068,-0.075,0.025
2069,-0.085,0.010
2070,-0.080,0.015
2071,-0.090,0.015
2072,-0.090,0.010
2073,-0.090,0.005
2074,-0.095,0.000
2075,-0.100,0.005
2076,-0.115,0.005
2077,-0.110,0.000
2078,-0.110,0.000
2079,-0.110,0.000
2080,-0.105,-0.010
2081,-0.110,-0.010
2082,-0.120,0.000
2083,-0.110,0.000
2084,-0.110,-0.010
2085,-0.100,-0.010
2086,-0.130,0.000
2087,-0.120,0.000
2088,-0.120,-0.005
2089,-0.130,-0.010
2090,-0.125,0.000
2091,-0.125,-0.005
2092,-0.120,-0.010
2093,-0.120,-0.005
2094,-0.130,-0.005
2095,-0.120,0.000
2096,-0.085,0.000
2097,-0.085,0.000
2098,-0.085,0.000
2099,-0.095,0.000
2100,-0.105,-0.005
2101,-0.110,-0.025
2102,-0.105,-0.030
2103,-0.095,-0.025
2104,-0.105,-0.030
2105,-0.120,-0.035
2106,-0.100,-0.030
2107,-0.100,-0.030
2108,-0.100,-0.015
2109,-0.105,-0.010
2110,-0.130,0.000
2111,-0.140,-0.010
2112,-0.140,-0.010
2113,-0.130,-0.005
2114,-0.130,-0.015
2115,-0.115,-0.010
2116,-0.115,-0.005
2117,-0.160,-0.015
2118,-0.145,-0.005
2119,0.085,0.005
2120,0.500,-0.020
2121,0.815,-0.050
2122,0.755,-0.145
2123,0.130,-0.240
2124,-0.440,-0.310
2125,-0.515,-0.240
2126,-0.340,-0.115
2127,-0.195,-0.025
2128,-0.160,0.010
2129,-0.175,0.020
2130,-0.170,0.015
2131,-0.170,0.000
2132,-0.160,0.000
2133,-0.165,0.000
2134,-0.185,-0.025
2135,-0.165,-0.005
2136,-0.170,0.005
2137,-0.170,0.000
2138,-0.170,0.000
2139,-0.165,0.005
2140,-0.195,0.000
2141,-0.180,0.000
2142,-0.195,0.010
2143,-0.180,0.000
2144,-0.175,0.010
2145,-0.175,0.015
2146,-0.185,0.015
2147,-0.175,0.000
2148,-0.175,0.005
2149,-0.165,0.010
2150,-0.145,0.030
2151,-0.155,0.025
2152,-0.165,0.025
2153,-0.155,0.020
2154,-0.140,0.025
2155,-0.125,0.025
2156,-0.105,0.020
2157,-0.125,0.015
2158,-0.105,0.010
2159,-0.105,0.000
2160,-0.080,0.010
2161,-0.065,0.000
2162,-0.055,0.005
2163,-0.065,0.020
2164,-0.065,0.005
2165,-0.080,0.005
2166,-0.070,0.005
2167,-0.075,0.000
2168,-0.085,-0.005
2169,-0.100,0.000
2170,-0.110,-0.010
2171,-0.105,0.000
2172,-0.105,-0.015
2173,-0.100,0.000
2174,-0.090,-0.010
2175,-0.100,-0.005
2176,-0.100,0.005
2177,-0.115,0.000
2178,-0.095,0.015
2179,-0.090,0.010
2180,-0.090,0.015
2181,-0.090,0.000
2182,-0.100,0.015
2183,-0.075,0.005
2184,-0.075,0.015
2185,-0.065,0.010
2186,-0.060,0.010
2187,-0.060,0.005
2188,-0.070,0.005
2189,-0.070,0.000
2190,-0.055,0.005
2191,-0.065,0.010
2192,-0.070,0.020
2193,-0.095,0.010
2194,-0.090,0.000
2195,-0.090,0.010
2196,-0.080,0.005
2197,-0.100,0.020
2198,-0.115,0.025
2199,-0.105,0.015
2200,-0.105,0.000
2201,-0.110,0.015
2202,-0.095,0.015
2203,-0.110,0.010
2204,-0.100,0.010
2205,-0.125,0.005
2206,-0.115,0.015
2207,-0.120,0.010
2208,-0.105,0.015
2209,-0.105,0.000
2210,-0.120,0.005
2211,-0.125,0.020
2212,-0.120,0.000
2213,-0.120,0.010
2214,-0.120,0.005
2215,-0.120,0.005
2216,-0.120,0.005
2217,-0.110,0.010
2218,-0.115,0.000
2219,-0.115,0.005
2220,-0.110,0.010
2221,-0.090,0.005
2222,-0.090,0.010
2223,-0.085,0.020
2224,-0.070,0.025
2225,-0.080,0.030
2226,-0.070,0.010
2227,-0.080,0.010
2228,-0.095,0.000
2229,-0.100,0.000
2230,-0.095,-0.005
2231,-0.090,-0.010
2232,-0.090,-0.015
2233,-0.095,-0.010
2234,-0.095,-0.005
2235,-0.105,0.000
2236,-0.115,0.005
2237,-0.120,0.015
2238,-0.120,0.005
2239,-0.135,0.005
2240,-0.130,0.000
2241,-0.135,0.000
2242,-0.120,0.000
2243,-0.110,0.000
2244,-0.135,0.000
2245,-0.170,0.000
2246,0.025,0.000
2247,0.450,0.000
2248,0.830,-0.015
2249,0.915,-0.110
2250,0.380,-0.230
2251,-0.330,-0.310
2252,-0.525,-0.275
2253,-0.395,-0.135
2254,-0.225,-0.030
2255,-0.155,0.040
2256,-0.170,0.070
2257,-0.190,0.055
2258,-0.180,0.025
2259,-0.175,0.020
2260,-0.155,0.020
2261,-0.160,0.015
2262,-0.175,0.020
2263,-0.190,0.015
2264,-0.190,0.010
2265,-0.190,0.020
2266,-0.180,0.020
2267,-0.185,0.010
2268,-0.200,0.005
2269,-0.200,0.005
2270,-0.215,0.020
2271,-0.210,0.015
2272,-0.210,0.025
2273,-0.195,0.020
2274,-0.205,0.025
2275,-0.210,0.025
2276,-0.205,0.025
2277,-0.195,0.030
2278,-0.190,0.020
2279,-0.170,0.020
2280,-0.195,0.045
2281,-0.175,0.030
2282,-0.175,0.015
2283,-0.180,0.010
2284,-0.160,0.020
2285,-0.140,0.015
2286,-0.125,0.010
2287,-0.120,0.000
2288,-0.105,-0.005
2289,-0.090,0.000
2290,-0.070,0.000
2291,-0.075,0.000
2292,-0.080,0.000
2293,-0.100,-0.005
2294,-0.110,0.000
2295,-0.100,-0.005
2296,-0.100,-0.005
2297,-0.110,0.000
2298,-0.135,-0.005
2299,-0.140,0.000
2300,-0.140,-0.015
2301,-0.140,-0.005
2302,-0.115,-0.005
2303,-0.125,0.000
2304,-0.150,0.000
2305,-0.130,-0.005
2306,-0.135,-0.015
2307,-0.125,-0.005
2308,-0.110,0.000
2309,-0.115,0.005
2310,-0.125,0.000
2311,-0.120,0.000
2312,-0.105,0.010
2313,-0.095,0.005
2314,-0.090,0.005
2315,-0.090,0.005
2316,-0.095,0.000
2317,-0.095,0.000
2318,-0.105,0.000
2319,-0.105,0.000
2320,-0.110,0.000
2321,-0.110,0.000
2322,-0.120,0.005
2323,-0.125,0.005
2324,-0.135,0.005
2325,-0.130,0.010
2326,-0.115,-0.005
2327,-0.130,0.005
2328,-0.140,0.010
2329,-0.140,0.000
2330,-0.145,0.005
2331,-0.145,0.000
2332,-0.135,0.000
2333,-0.155,0.000
2334,-0.160,0.000
2335,-0.150,0.000
2336,-0.150,0.015
2337,-0.150,0.015
2338,-0.145,0.010
2339,-0.170,0.010
2340,-0.155,0.005
2341,-0.160,0.015
2342,-0.155,0.025
2343,-0.160,0.000
2344,-0.160,0.010
2345,-0.155,0.020
2346,-0.165,0.020
2347,-0.165,0.015
2348,-0.130,0.015
2349,-0.120,0.020
2350,-0.125,0.035
2351,-0.130,0.040
2352,-0.145,0.015
2353,-0.135,0.000
2354,-0.150,0.000
2355,-0.140,-0.005
2356,-0.140,-0.015
2357,-0.155,-0.005
2358,-0.150,-0.005
2359,-0.150,-0.005
2360,-0.145,0.000
2361,-0.140,-0.010
2362,-0.160,0.000
2363,-0.185,0.000
2364,-0.190,0.005
2365,-0.180,0.000
2366,-0.185,0.000
2367,-0.165,0.000
2368,-0.170,0.000
2369,-0.180,0.005
2370,-0.210,-0.010
2371,-0.210,0.000
2372,0.020,0.020
2373,0.430,0.005
2374,0.740,-0.020
2375,0.770,-0.110
2376,0.210,-0.210
2377,-0.435,-0.290
2378,-0.565,-0.240
2379,-0.415,-0.130
2380,-0.275,-0.025
2381,-0.220,0.025
2382,-0.225,0.025
2383,-0.220,0.010
2384,-0.220,0.025
2385,-0.215,0.010
2386,-0.235,0.010
2387,-0.240,0.000
2388,-0.215,0.000
2389,-0.230,0.000
2390,-0.220,0.000
2391,-0.225,0.000
2392,-0.230,0.000
2393,-0.235,0.005
2394,-0.235,0.000
2395,-0.230,0.010
2396,-0.220,0.000
2397,-0.220,0.010
2398,-0.230,0.010
2399,-0.235,0.010
2400,-0.215,0.020
2401,-0.205,0.020
2402,-0.210,0.015
2403,-0.210,0.005
2404,-0.220,0.005
2405,-0.200,0.005
2406,-0.210,0.010
2407,-0.195,0.000
2408,-0.185,0.000
2409,-0.180,0.000
2410,-0.195,0.010
2411,-0.185,0.000
2412,-0.160,-0.005
2413,-0.115,-0.010
2414,-0.130,-0.015
2415,-0.140,0.000
2416,-0.135,-0.010
2417,-0.130,-0.010
2418,-0.125,-0.020
2419,-0.135,-0.015
2420,-0.145,-0.010
2421,-0.165,-0.010
2422,-0.170,-0.020
2423,-0.160,-0.010
2424,-0.185,-0.015
2425,-0.175,-0.020
2426,-0.175,-0.010
2427,-0.180,-0.025
2428,-0.180,-0.025
2429,-0.180,-0.015
2430,-0.175,-0.020
2431,-0.165,-0.030
2432,-0.160,-0.020
2433,-0.155,-0.015
2434,-0.165,-0.010
2435,-0.145,-0.015
2436,-0.145,-0.005
2437,-0.130,0.000
2438,-0.125,0.000
2439,-0.135,0.000
2440,-0.135,0.000
2441,-0.125,0.000
2442,-0.115,-0.005
2443,-0.135,0.000
2444,-0.145,0.000
2445,-0.160,0.000
2446,-0.155,0.000
2447,-0.155,0.005
2448,-0.155,0.005
2449,-0.155,0.005
2450,-0.160,0.000
2451,-0.180,0.000
2452,-0.165,0.000
2453,-0.175,0.000
2454,-0.175,0.000
2455,-0.170,0.000
2456,-0.175,-0.005
2457,-0.190,-0.005
2458,-0.185,0.000
2459,-0.190,-0.005
2460,-0.185,0.005
2461,-0.175,0.000
2462,-0.185,0.000
2463,-0.200,0.000
2464,-0.205,0.000
2465,-0.195,0.000
2466,-0.205,0.005
2467,-0.180,0.000
2468,-0.190,0.000
2469,-0.205,0.000
2470,-0.200,0.000
2471,-0.190,0.010
2472,-0.195,0.000
2473,-0.180,0.000
2474,-0.190,0.005
2475,-0.180,0.000
2476,-0.150,0.005
2477,-0.150,0.010
2478,-0.145,0.015
2479,-0.150,0.000
2480,-0.165,0.010
2481,-0.185,-0.020
2482,-0.175,-0.030
2483,-0.165,-0.025
2484,-0.150,-0.020
2485,-0.140,-0.025
2486,-0.160,-0.010
2487,-0.165,-0.015
2488,-0.165,-0.005
2489,-0.170,0.000
2490,-0.170,0.015
2491,-0.185,0.015
2492,-0.215,0.005
2493,-0.200,-0.010
2494,-0.175,-0.005
2495,-0.185,-0.010
2496,-0.175,0.000
2497,-0.205,-0.005
2498,-0.195,0.005
2499,0.095,0.020
2500,0.535,0.000
2501,0.860,-0.050
2502,0.760,-0.165
2503,0.075,-0.270
2504,-0.495,-0.330
2505,-0.550,-0.240
2506,-0.390,-0.110
2507,-0.260,-0.020
2508,-0.235,0.030
2509,-0.240,0.035
2510,-0.250,0.025
2511,-0.250,0.020
2512,-0.245,0.010
2513,-0.245,0.000
2514,-0.240,-0.005
2515,-0.255,0.000
2516,-0.260,0.000
2517,-0.265,0.000
2518,-0.255,0.000
2519,-0.265,0.000
2520,-0.240,0.000
2521,-0.250,0.000
2522,-0.245,-0.005
2523,-0.265,0.005
2524,-0.250,0.000
2525,-0.245,0.005
2526,-0.250,0.005
2527,-0.260,0.020
2528,-0.260,0.000
2529,-0.245,0.000
2530,-0.230,0.020
2531,-0.230,0.015
2532,-0.220,0.020
2533,-0.230,0.005
2534,-0.230,0.010
2535,-0.220,0.000
2536,-0.205,0.005
2537,-0.185,0.000
2538,-0.165,0.000
2539,-0.175,0.000
2540,-0.160,0.000
2541,-0.120,0.000
2542,-0.120,0.000
2543,-0.115,0.000
2544,-0.120,0.005
2545,-0.135,-0.015
2546,-0.150,-0.020
2547,-0.135,-0.010
2548,-0.145,-0.015
2549,-0.155,-0.015
2550,-0.150,-0.020
2551,-0.175,-0.015
2552,-0.180,0.000
2553,-0.170,-0.010
2554,-0.165,-0.025
2555,-0.155,-0.010
2556,-0.155,-0.015
2557,-0.175,-0.010
2558,-0.180,-0.025
2559,-0.155,-0.025
2560,-0.140,-0.010
2561,-0.155,-0.015
2562,-0.155,-0.005
2563,-0.155,-0.010
2564,-0.150,-0.020
2565,-0.150,-0.020
2566,-0.115,0.000
2567,-0.110,0.000
2568,-0.135,0.005
2569,-0.135,-0.005
2570,-0.130,0.000
2571,-0.135,-0.015
2572,-0.130,0.000
2573,-0.125,0.000
2574,-0.145,0.005
2575,-0.150,0.000
2576,-0.150,0.000
2577,-0.150,-0.005
2578,-0.130,0.000
2579,-0.125,-0.005
2580,-0.160,0.000
2581,-0.165,0.005
2582,-0.160,0.000
2583,-0.160,0.000
2584,-0.145,0.000
2585,-0.160,0.015
2586,-0.160,0.000
2587,-0.165,0.000
2588,-0.165,-0.005
2589,-0.175,-0.010
2590,-0.160,0.000
2591,-0.155,0.000
2592,-0.165,0.000
2593,-0.185,0.000
2594,-0.180,0.000
2595,-0.155,-0.005
2596,-0.180,-0.015
2597,-0.180,0.000
2598,-0.185,0.000
2599,-0.190,-0.005
2600,-0.190,-0.010
2601,-0.175,0.000
2602,-0.160,0.000
2603,-0.135,-0.010
2604,-0.160,0.000
2605,-0.155,0.010
2606,-0.170,0.000
2607,-0.145,0.005
2608,-0.145,0.000
2609,-0.160,-0.015
2610,-0.175,-0.025
2611,-0.170,-0.035
2612,-0.165,-0.010
2613,-0.170,-0.025
2614,-0.160,-0.030
2615,-0.160,-0.035
2616,-0.170,-0.020
2617,-0.185,-0.020
2618,-0.200,0.000
2619,-0.175,0.000
2620,-0.170,-0.010
2621,-0.165,0.000
2622,-0.185,-0.010
2623,-0.195,-0.010
2624,-0.195,-0.030
2625,-0.210,-0.020
2626,-0.205,0.000
2627,0.045,0.025
2628,0.460,0.010
2629,0.805,-0.035
2630,0.770,-0.135
2631,0.090,-0.245
2632,-0.510,-0.310
2633,-0.575,-0.250
2634,-0.400,-0.125
2635,-0.280,-0.015
2636,-0.245,0.025
2637,-0.240,0.015
2638,-0.235,0.015
2639,-0.240,0.005
2640,-0.250,0.000
2641,-0.225,0.010
2642,-0.250,0.000
2643,-0.245,0.000
2644,-0.240,0.000
2645,-0.250,0.000
2646,-0.270,-0.005
2647,-0.265,-0.020
2648,-0.260,-0.020
2649,-0.265,-0.025
2650,-0.260,-0.030
2651,-0.260,-0.020
2652,-0.265,-0.020
2653,-0.265,-0.015
2654,-0.275,-0.020
2655,-0.255,-0.010
2656,-0.245,-0.015
2657,-0.250,-0.005
2658,-0.260,-0.015
2659,-0.255,-0.005
2660,-0.250,-0.010
2661,-0.225,-0.010
2662,-0.225,-0.015
2663,-0.235,-0.010
2664,-0.230,-0.030
2665,-0.220,-0.035
2666,-0.180,-0.030
2667,-0.170,-0.035
2668,-0.155,-0.020
2669,-0.165,-0.025
2670,-0.150,-0.030
2671,-0.150,-0.035
2672,-0.140,-0.035
2673,-0.130,-0.030
2674,-0.160,-0.040
2675,-0.180,-0.035
2676,-0.175,-0.030
2677,-0.175,-0.025
2678,-0.180,-0.030
2679,-0.170,-0.040
2680,-0.190,-0.035
2681,-0.210,-0.030
2682,-0.200,-0.040
2683,-0.195,-0.050
2684,-0.195,-0.025
2685,-0.195,-0.035
2686,-0.195,-0.030
2687,-0.195,-0.020
2688,-0.195,-0.015
2689,-0.185,-0.020
2690,-0.180,-0.030
2691,-0.170,-0.025
2692,-0.180,-0.020
2693,-0.175,-0.020
2694,-0.170,0.000
2695,-0.175,-0.020
2696,-0.170,-0.020
2697,-0.170,-0.015
2698,-0.185,-0.010
2699,-0.185,-0.015
2700,-0.185,-0.010
2701,-0.185,0.000
2702,-0.190,0.010
2703,-0.185,0.005
2704,-0.195,0.005
2705,-0.175,0.000
2706,-0.190,0.000
2707,-0.190,0.010
2708,-0.190,0.000
2709,-0.210,0.000
2710,-0.215,0.000
2711,-0.205,0.000
2712,-0.200,0.000
2713,-0.205,0.000
2714,-0.210,-0.005
2715,-0.220,0.000
2716,-0.215,0.000
2717,-0.230,-0.005
2718,-0.200,0.000
2719,-0.200,-0.005
2720,-0.210,0.000
2721,-0.210,0.000
2722,-0.220,0.005
2723,-0.225,0.000
2724,-0.220,0.000
2725,-0.220,0.000
2726,-0.215,0.000
2727,-0.210,0.000
2728,-0.210,0.000
2729,-0.200,0.000
2730,-0.175,0.000
2731,-0.170,0.020
2732,-0.185,0.025
2733,-0.190,0.025
2734,-0.185,0.015
2735,-0.210,0.000
2736,-0.195,0.000
2737,-0.205,-0.015
2738,-0.205,-0.010
2739,-0.200,-0.015
2740,-0.205,-0.020
2741,-0.185,-0.010
2742,-0.195,-0.010
2743,-0.190,0.000
2744,-0.220,0.005
2745,-0.240,0.010
2746,-0.245,0.005
2747,-0.220,0.000
2748,-0.215,0.000
2749,-0.215,0.000
2750,-0.220,-0.005
2751,-0.235,0.000
2752,-0.265,0.015
2753,-0.060,0.010
2754,0.355,0.000
2755,0.730,-0.015
2756,0.755,-0.105
2757,0.170,-0.220
2758,-0.475,-0.300
2759,-0.595,-0.255
2760,-0.460,-0.130
2761,-0.320,-0.030
2762,-0.265,0.030
2763,-0.270,0.035
2764,-0.260,0.030
2765,-0.265,0.030
2766,-0.250,0.005
2767,-0.250,0.000
2768,-0.265,0.005
2769,-0.265,0.000
2770,-0.260,-0.005
2771,-0.255,0.000
2772,-0.265,-0.005
2773,-0.275,0.000
2774,-0.275,0.000
2775,-0.285,-0.005
2776,-0.285,0.000
2777,-0.275,-0.005
2778,-0.270,-0.005
2779,-0.285,0.000
2780,-0.280,0.000
2781,-0.270,0.000
2782,-0.260,0.000
2783,-0.260,0.010
2784,-0.255,0.010
2785,-0.270,0.010
2786,-0.250,0.015
2787,-0.260,0.015
2788,-0.255,0.010
2789,-0.240,0.000
2790,-0.235,0.000
2791,-0.220,0.005
2792,-0.210,0.000
2793,-0.195,0.000
2794,-0.175,-0.005
2795,-0.165,-0.005
2796,-0.150,-0.005
2797,-0.150,-0.015
2798,-0.155,-0.010
2799,-0.160,-0.015
2800,-0.160,-0.010
2801,-0.165,-0.020
2802,-0.175,-0.010
2803,-0.185,-0.015
2804,-0.195,-0.025
2805,-0.195,-0.025
2806,-0.185,-0.010
2807,-0.180,-0.010
2808,-0.190,-0.025
2809,-0.190,-0.020
2810,-0.190,-0.015
2811,-0.185,-0.005
2812,-0.190,-0.010
2813,-0.185,-0.005
2814,-0.185,-0.010
2815,-0.185,-0.010
2816,-0.185,-0.020
2817,-0.175,-0.005
2818,-0.165,-0.015
2819,-0.160,-0.015
2820,-0.170,-0.005
2821,-0.160,-0.005
2822,-0.160,-0.010
2823,-0.150,-0.015
2824,-0.150,0.000
2825,-0.175,0.000
2826,-0.175,-0.005
2827,-0.185,0.000
2828,-0.175,0.000
2829,-0.170,-0.010
2830,-0.175,0.000
2831,-0.185,0.000
2832,-0.180,0.000
2833,-0.195,0.000
2834,-0.195,0.000
2835,-0.180,0.000
2836,-0.195,0.000
2837,-0.190,-0.005
2838,-0.195,0.000
2839,-0.210,0.005
2840,-0.200,0.000
2841,-0.195,0.005
2842,-0.185,0.000
2843,-0.200,-0.005
2844,-0.200,0.005
2845,-0.210,0.005
2846,-0.195,0.000
2847,-0.185,0.005
2848,-0.195,0.000
2849,-0.215,0.000
2850,-0.210,0.000
2851,-0.210,0.000
2852,-0.205,-0.005
2853,-0.195,0.000
2854,-0.190,0.000
2855,-0.200,0.000
2856,-0.200,-0.005
2857,-0.170,0.000
2858,-0.165,-0.005
2859,-0.160,0.010
2860,-0.150,0.005
2861,-0.160,0.000
2862,-0.180,0.000
2863,-0.190,-0.025
2864,-0.180,-0.025
2865,-0.165,-0.015
2866,-0.175,-0.025
2867,-0.180,-0.020
2868,-0.170,-0.020
2869,-0.190,-0.025
2870,-0.190,0.000
2871,-0.195,0.000
2872,-0.205,-0.010
2873,-0.210,-0.015
2874,-0.210,-0.015
2875,-0.195,-0.015
2876,-0.190,-0.015
2877,-0.190,0.000
2878,-0.195,-0.005
2879,-0.240,-0.005
2880,-0.165,0.000
2881,0.210,0.025
2882,0.610,-0.015
2883,0.905,-0.065
2884,0.635,-0.195
2885,-0.100,-0.290
2886,-0.555,-0.320
2887,-0.540,-0.215
2888,-0.365,-0.095
2889,-0.240,-0.010
2890,-0.235,0.030
2891,-0.240,0.035
2892,-0.255,0.025
2893,-0.245,0.025
2894,-0.230,0.005
2895,-0.235,0.000
2896,-0.245,0.000
2897,-0.250,0.000
2898,-0.265,0.000
2899,-0.245,0.000
2900,-0.235,-0.005
2901,-0.260,-0.010
2902,-0.250,-0.005
2903,-0.270,-0.010
2904,-0.265,-0.005
2905,-0.255,-0.005
2906,-0.245,-0.015
2907,-0.260,-0.010
2908,-0.260,-0.010
2909,-0.255,-0.005
2910,-0.255,0.010
2911,-0.250,0.000
2912,-0.235,0.005
2913,-0.225,0.010
2914,-0.245,0.010
2915,-0.250,0.010
2916,-0.250,0.000
2917,-0.235,0.000
2918,-0.215,-0.005
2919,-0.205,0.000
2920,-0.195,-0.005
2921,-0.180,-0.015
2922,-0.185,-0.020
2923,-0.140,-0.030
2924,-0.150,-0.020
2925,-0.140,-0.025
2926,-0.145,-0.035
2927,-0.140,-0.030
2928,-0.165,-0.030
2929,-0.145,-0.035
2930,-0.165,-0.030
2931,-0.180,-0.030
2932,-0.190,-0.025
2933,-0.195,-0.020
2934,-0.190,-0.030
2935,-0.175,-0.030
2936,-0.180,-0.015
2937,-0.180,-0.010
2938,-0.190,-0.030
2939,-0.190,-0.010
2940,-0.180,-0.025
2941,-0.180,-0.010
2942,-0.180,-0.010
2943,-0.180,0.000
2944,-0.185,-0.020
2945,-0.175,-0.005
2946,-0.180,0.000
2947,-0.160,-0.015
2948,-0.160,0.000
2949,-0.165,0.000
2950,-0.160,-0.010
2951,-0.170,0.000
2952,-0.155,0.000
2953,-0.155,0.000
2954,-0.170,-0.010
2955,-0.180,-0.010
2956,-0.180,-0.010
2957,-0.180,0.000
2958,-0.180,-0.005
2959,-0.180,0.000
2960,-0.180,0.000
2961,-0.200,0.000
2962,-0.205,-0.005
2963,-0.195,-0.025
2964,-0.185,-0.010
2965,-0.175,-0.015
2966,-0.195,-0.015
2967,-0.205,-0.015
2968,-0.205,-0.020
2969,-0.200,-0.010
2970,-0.195,0.000
2971,-0.190,-0.005
2972,-0.190,0.000
2973,-0.200,-0.010
2974,-0.215,-0.020
2975,-0.205,-0.020
2976,-0.195,-0.030
2977,-0.190,-0.015
2978,-0.200,-0.010
2979,-0.225,-0.020
2980,-0.215,-0.020
2981,-0.205,-0.015
2982,-0.200,-0.010
2983,-0.195,0.000
2984,-0.180,0.000
2985,-0.165,0.000
2986,-0.180,0.015
2987,-0.165,0.015
2988,-0.160,0.010
2989,-0.175,0.000
2990,-0.195,-0.005
2991,-0.180,-0.020
2992,-0.200,-0.025
2993,-0.190,-0.030
2994,-0.165,-0.020
2995,-0.175,-0.015
2996,-0.185,-0.005
2997,-0.195,0.000
2998,-0.210,0.000
2999,-0.215,0.000
3000,-0.200,0.000
3001,-0.200,0.000
3002,-0.210,-0.010
3003,-0.210,-0.010
3004,-0.200,-0.005
3005,-0.215,-0.010
3006,-0.235,-0.020
3007,-0.165,0.005
3008,0.160,0.015
3009,0.555,0.000
3010,0.775,-0.055
3011,0.525,-0.160
3012,-0.185,-0.240
3013,-0.580,-0.275
3014,-0.555,-0.185
3015,-0.370,-0.080
3016,-0.260,-0.005
3017,-0.230,0.025
3018,-0.230,0.020
3019,-0.235,0.010
3020,-0.240,0.020
3021,-0.255,0.005
3022,-0.265,0.005
3023,-0.240,0.005
3024,-0.240,0.000
3025,-0.260,0.000
3026,-0.270,0.000
3027,-0.270,0.000
3028,-0.260,-0.010
3029,-0.250,-0.015
3030,-0.245,0.005
3031,-0.255,0.000
3032,-0.260,0.000
3033,-0.260,0.000
3034,-0.245,0.000
3035,-0.245,0.005
3036,-0.235,0.000
3037,-0.245,0.000
3038,-0.255,0.005
3039,-0.230,0.020
3040,-0.235,0.015
3041,-0.225,0.010
3042,-0.205,0.015
3043,-0.215,0.015
3044,-0.215,0.015
3045,-0.215,0.005
3046,-0.200,0.000
3047,-0.180,0.000
3048,-0.165,0.000
3049,-0.155,0.000
3050,-0.145,0.000
3051,-0.140,0.000
3052,-0.135,-0.005
3053,-0.130,-0.005
3054,-0.135,-0.005
3055,-0.150,-0.005
3056,-0.150,-0.015
3057,-0.160,-0.015
3058,-0.175,-0.015
3059,-0.160,-0.010
3060,-0.185,-0.010
3061,-0.200,-0.020
3062,-0.195,-0.010
3063,-0.185,-0.005
3064,-0.180,-0.015
3065,-0.190,-0.010
3066,-0.180,-0.005
3067,-0.195,-0.010
3068,-0.175,0.000
3069,-0.175,0.000
3070,-0.160,0.000
3071,-0.155,0.000
3072,-0.175,-0.015
3073,-0.165,-0.005
3074,-0.165,-0.005
3075,-0.145,0.000
3076,-0.145,0.000
3077,-0.150,0.000
3078,-0.140,0.010
3079,-0.155,0.000
3080,-0.155,0.000
3081,-0.155,0.000
3082,-0.145,0.000
3083,-0.150,0.010
3084,-0.175,0.020
3085,-0.175,0.005
3086,-0.175,0.020
3087,-0.175,0.020
3088,-0.165,0.010
3089,-0.160,0.015
3090,-0.185,0.015
3091,-0.185,0.010
3092,-0.195,0.020
3093,-0.200,0.025
3094,-0.180,0.010
3095,-0.180,0.020
3096,-0.185,0.030
3097,-0.200,0.010
3098,-0.210,0.020
3099,-0.185,0.025
3100,-0.190,0.015
3101,-0.185,0.025
3102,-0.185,0.030
3103,-0.195,0.015
3104,-0.205,0.015
3105,-0.195,0.010
3106,-0.185,0.020
3107,-0.180,0.020
3108,-0.195,0.015
3109,-0.210,0.005
3110,-0.200,0.020
3111,-0.200,0.025
3112,-0.170,0.020
3113,-0.160,0.010
3114,-0.165,0.040
3115,-0.180,0.035
3116,-0.155,0.040
3117,-0.170,0.030
3118,-0.180,0.025
3119,-0.180,0.015
3120,-0.170,0.010
3121,-0.170,0.010
3122,-0.185,0.010
3123,-0.165,0.005
3124,-0.155,0.020
3125,-0.165,0.030
3126,-0.170,0.030
3127,-0.190,0.035
3128,-0.190,0.035
3129,-0.175,0.025
3130,-0.185,0.020
3131,-0.170,0.020
3132,-0.180,0.010
3133,-0.170,0.015
3134,-0.180,0.030
3135,-0.215,0.015
3136,-0.055,0.045
3137,0.355,0.040
3138,0.725,0.005
3139,0.910,-0.050
3140,0.480,-0.190
3141,-0.270,-0.270
3142,-0.570,-0.265
3143,-0.470,-0.130
3144,-0.305,-0.020
3145,-0.230,0.050
3146,-0.215,0.080
3147,-0.225,0.075
3148,-0.220,0.055
3149,-0.230,0.050
3150,-0.245,0.060
3151,-0.245,0.030
3152,-0.235,0.035
3153,-0.240,0.035
3154,-0.225,0.025
3155,-0.245,0.005
3156,-0.250,0.030
3157,-0.255,0.025
3158,-0.240,0.025
3159,-0.235,0.030
3160,-0.230,0.025
3161,-0.245,0.025
3162,-0.245,0.020
3163,-0.245,0.030
3164,-0.250,0.030
3165,-0.255,0.045
3166,-0.225,0.035
3167,-0.225,0.055
3168,-0.240,0.050
3169,-0.235,0.050
3170,-0.230,0.060
3171,-0.215,0.045
3172,-0.200,0.045
3173,-0.185,0.050
3174,-0.200,0.035
3175,-0.195,0.025
3176,-0.175,0.015
3177,-0.140,0.005
3178,-0.140,0.015
3179,-0.125,0.020
3180,-0.125,0.015
3181,-0.125,0.000
3182,-0.125,0.005
3183,-0.120,0.005
3184,-0.125,0.000
3185,-0.140,0.005
3186,-0.165,0.005
3187,-0.170,0.000
3188,-0.155,0.000
3189,-0.150,0.000
3190,-0.155,0.000
3191,-0.180,0.005
3192,-0.165,0.000
3193,-0.170,0.000
3194,-0.165,0.010
3195,-0.165,0.000
3196,-0.160,0.005
3197,-0.165,0.000
3198,-0.160,0.005
3199,-0.155,0.010
3200,-0.175,0.005
3201,-0.145,0.010
3202,-0.150,0.005
3203,-0.150,0.015
3204,-0.150,0.010
3205,-0.145,0.000
3206,-0.135,0.005
3207,-0.125,0.000
3208,-0.130,0.015
3209,-0.155,0.025
3210,-0.165,0.005
3211,-0.160,0.005
3212,-0.155,0.025
3213,-0.150,0.015
3214,-0.160,0.020
3215,-0.165,0.015
3216,-0.180,0.025
3217,-0.165,0.025
3218,-0.165,0.020
3219,-0.175,0.010
3220,-0.180,0.030
3221,-0.180,0.015
3222,-0.195,0.025
3223,-0.175,0.025
3224,-0.175,0.015
3225,-0.160,0.015
3226,-0.180,0.020
3227,-0.190,0.020
3228,-0.180,0.015
3229,-0.180,0.015
3230,-0.165,0.025
3231,-0.180,0.030
3232,-0.175,0.035
3233,-0.190,0.020
3234,-0.180,0.025
3235,-0.185,0.030
3236,-0.170,0.015
3237,-0.180,0.020
3238,-0.185,0.030
3239,-0.190,0.010
3240,-0.160,0.020
3241,-0.145,0.025
3242,-0.145,0.035
3243,-0.150,0.045
3244,-0.155,0.040
3245,-0.160,0.020
3246,-0.175,0.010
3247,-0.170,0.005
3248,-0.165,-0.005
3249,-0.150,0.000
3250,-0.170,0.000
3251,-0.165,0.000
3252,-0.165,0.000
3253,-0.160,0.010
3254,-0.175,0.010
3255,-0.175,0.025
3256,-0.195,0.015
3257,-0.200,0.010
3258,-0.205,0.010
3259,-0.180,0.015
3260,-0.170,-0.005
3261,-0.175,0.005
3262,-0.220,0.015
3263,-0.205,0.025
3264,0.070,0.045
3265,0.525,0.025
3266,0.840,-0.010
3267,0.710,-0.110
3268,0.005,-0.220
3269,-0.520,-0.275
3270,-0.560,-0.195
3271,-0.375,-0.080
3272,-0.260,0.005
3273,-0.220,0.040
3274,-0.225,0.050
3275,-0.235,0.050
3276,-0.230,0.040
3277,-0.225,0.035
3278,-0.225,0.020
3279,-0.245,0.020
3280,-0.250,0.020
3281,-0.255,0.005
3282,-0.255,0.015
3283,-0.260,0.010
3284,-0.240,0.005
3285,-0.265,0.015
3286,-0.250,0.005
3287,-0.260,0.010
3288,-0.240,0.020
3289,-0.245,0.015
3290,-0.250,0.025
3291,-0.255,0.010
3292,-0.265,0.025
3293,-0.260,0.015
3294,-0.240,0.030
3295,-0.240,0.035
3296,-0.235,0.035
3297,-0.240,0.035
3298,-0.225,0.035
3299,-0.235,0.035
3300,-0.225,0.035
3301,-0.210,0.030
3302,-0.210,0.040
3303,-0.200,0.015
3304,-0.180,0.010
3305,-0.180,0.020
3306,-0.150,0.010
3307,-0.140,0.015
3308,-0.140,0.010
3309,-0.145,0.015
3310,-0.155,0.010
3311,-0.150,0.015
3312,-0.160,0.000
3313,-0.165,0.005
3314,-0.190,0.000
3315,-0.195,-0.005
3316,-0.205,0.000
3317,-0.200,0.010
3318,-0.185,0.005
3319,-0.200,0.010
3320,-0.205,0.005
3321,-0.205,0.010
3322,-0.200,0.000
3323,-0.185,0.010
3324,-0.195,0.000
3325,-0.175,0.015
3326,-0.180,0.010
3327,-0.170,0.020
3328,-0.165,0.005
3329,-0.160,0.000
3330,-0.155,0.020
3331,-0.150,0.035
3332,-0.165,0.030
3333,-0.155,0.035
3334,-0.165,0.040
3335,-0.170,0.040
3336,-0.155,0.035
3337,-0.175,0.030
3338,-0.185,0.035
3339,-0.180,0.045
3340,-0.165,0.035
3341,-0.175,0.040
3342,-0.190,0.025
3343,-0.180,0.045
3344,-0.200,0.045
3345,-0.210,0.040
3346,-0.200,0.070
3347,-0.195,0.035
3348,-0.200,0.055
3349,-0.210,0.040
3350,-0.200,0.060
3351,-0.195,0.050
3352,-0.185,0.040
3353,-0.180,0.050
3354,-0.180,0.055
3355,-0.180,0.055
3356,-0.190,0.050
3357,-0.195,0.065
3358,-0.190,0.050
3359,-0.180,0.065
3360,-0.190,0.055
3361,-0.200,0.050
3362,-0.200,0.055
3363,-0.185,0.055
3364,-0.180,0.060
3365,-0.170,0.065
3366,-0.160,0.055
3367,-0.150,0.070
3368,-0.160,0.070
3369,-0.145,0.080
3370,-0.145,0.085
3371,-0.145,0.065
3372,-0.180,0.065
3373,-0.185,0.045
3374,-0.180,0.030
3375,-0.175,0.025
3376,-0.155,0.025
3377,-0.150,0.020
3378,-0.160,0.035
3379,-0.160,0.055
3380,-0.165,0.030
3381,-0.190,0.055
3382,-0.195,0.055
3383,-0.180,0.045
3384,-0.195,0.055
3385,-0.185,0.055
3386,-0.180,0.060
3387,-0.180,0.050
3388,-0.180,0.055
3389,-0.215,0.050
3390,-0.035,0.075
3391,0.350,0.070
3392,0.750,0.040
3393,0.895,-0.045
3394,0.430,-0.155
3395,-0.315,-0.250
3396,-0.560,-0.225
3397,-0.440,-0.105
3398,-0.290,0.015
3399,-0.220,0.080
3400,-0.210,0.105
3401,-0.215,0.095
3402,-0.215,0.095
3403,-0.220,0.080
3404,-0.235,0.095
3405,-0.230,0.075
3406,-0.220,0.075
3407,-0.225,0.065
3408,-0.230,0.070
3409,-0.245,0.065
3410,-0.245,0.060
3411,-0.230,0.060
3412,-0.230,0.055
3413,-0.220,0.075
3414,-0.255,0.060
3415,-0.250,0.065
3416,-0.255,0.055
3417,-0.240,0.060
3418,-0.240,0.065
3419,-0.250,0.070
3420,-0.250,0.070
3421,-0.250,0.065
3422,-0.235,0.065
3423,-0.225,0.060
3424,-0.225,0.060
3425,-0.215,0.075
3426,-0.210,0.065
3427,-0.210,0.055
3428,-0.195,0.055
3429,-0.180,0.045
3430,-0.175,0.045
3431,-0.145,0.045
3432,-0.145,0.050
3433,-0.130,0.050
3434,-0.115,0.030
3435,-0.095,0.045
3436,-0.105,0.050
3437,-0.120,0.045
3438,-0.140,0.050
3439,-0.145,0.040
3440,-0.160,0.045
3441,-0.155,0.045
3442,-0.150,0.040
3443,-0.165,0.040
3444,-0.165,0.035
3445,-0.170,0.035
3446,-0.175,0.025
3447,-0.155,0.025
3448,-0.170,0.035
3449,-0.160,0.040
3450,-0.180,0.040
3451,-0.180,0.045
3452,-0.165,0.030
3453,-0.160,0.025
3454,-0.150,0.040
3455,-0.160,0.040
3456,-0.155,0.040
3457,-0.150,0.040
3458,-0.150,0.040
3459,-0.140,0.045
3460,-0.140,0.040
3461,-0.145,0.025
3462,-0.145,0.050
3463,-0.150,0.035
3464,-0.155,0.045
3465,-0.150,0.040
3466,-0.160,0.030
3467,-0.165,0.045
3468,-0.175,0.040
3469,-0.170,0.045
3470,-0.175,0.035
3471,-0.175,0.035
3472,-0.175,0.055
3473,-0.190,0.035
3474,-0.180,0.040
3475,-0.175,0.045
3476,-0.160,0.055
3477,-0.160,0.035
3478,-0.175,0.050
3479,-0.175,0.040
3480,-0.190,0.045
3481,-0.180,0.045
3482,-0.180,0.045
3483,-0.170,0.050
3484,-0.175,0.050
3485,-0.165,0.045
3486,-0.185,0.050
3487,-0.190,0.040
3488,-0.185,0.040
3489,-0.165,0.035
3490,-0.175,0.050
3491,-0.175,0.045
3492,-0.185,0.035
3493,-0.175,0.045
3494,-0.160,0.035
3495,-0.125,0.045
3496,-0.140,0.070
3497,-0.145,0.070
3498,-0.145,0.060
3499,-0.160,0.050
3500,-0.155,0.030
3501,-0.155,0.010
3502,-0.160,0.025
3503,-0.165,0.025
3504,-0.155,0.020
3505,-0.155,0.015
3506,-0.145,0.025
3507,-0.155,0.035
3508,-0.160,0.040
3509,-0.190,0.050
3510,-0.185,0.050
3511,-0.190,0.040
3512,-0.175,0.040
3513,-0.170,0.045
3514,-0.175,0.045
3515,-0.175,0.030
3516,-0.205,0.055
3517,-0.225,0.040
3518,-0.050,0.055
3519,0.330,0.050
3520,0.720,0.020
3521,0.865,-0.035
3522,0.400,-0.170
3523,-0.320,-0.260
3524,-0.550,-0.240
3525,-0.425,-0.105
3526,-0.265,0.005
3527,-0.220,0.075
3528,-0.225,0.085
3529,-0.220,0.080
3530,-0.210,0.075
3531,-0.205,0.065
3532,-0.220,0.065
3533,-0.210,0.055
3534,-0.230,0.050
3535,-0.220,0.055
3536,-0.220,0.040
3537,-0.225,0.040
3538,-0.240,0.055
3539,-0.235,0.040
3540,-0.235,0.030
3541,-0.230,0.055
3542,-0.235,0.050
3543,-0.240,0.040
3544,-0.235,0.035
3545,-0.235,0.045
3546,-0.240,0.040
3547,-0.245,0.040
3548,-0.235,0.055
3549,-0.225,0.050
3550,-0.225,0.050
3551,-0.225,0.055
3552,-0.235,0.045
3553,-0.230,0.045
3554,-0.200,0.040
3555,-0.210,0.050
3556,-0.210,0.050
3557,-0.195,0.020
3558,-0.190,0.020
3559,-0.175,0.020
3560,-0.145,0.010
3561,-0.130,0.010
3562,-0.130,0.015
3563,-0.140,0.025
3564,-0.135,0.015
3565,-0.140,0.020
3566,-0.135,0.020
3567,-0.145,0.015
3568,-0.165,0.015
3569,-0.180,0.000
3570,-0.190,0.005
3571,-0.195,0.005
3572,-0.185,0.005
3573,-0.195,0.010
3574,-0.195,0.010
3575,-0.205,0.010
3576,-0.205,0.010
3577,-0.175,0.020
3578,-0.175,0.015
3579,-0.185,0.010
3580,-0.185,0.005
3581,-0.170,0.010
3582,-0.160,0.020
3583,-0.155,0.010
3584,-0.140,0.010
3585,-0.155,0.025
3586,-0.155,0.020
3587,-0.160,0.025
3588,-0.155,0.025
3589,-0.145,0.025
3590,-0.155,0.025
3591,-0.150,0.020
3592,-0.165,0.025
3593,-0.170,0.015
3594,-0.180,0.030
3595,-0.185,0.030
3596,-0.185,0.015
3597,-0.185,0.015
3598,-0.205,0.020
3599,-0.200,0.020
3600,-0.200,0.030
3601,-0.200,0.030
3602,-0.185,0.030
3603,-0.195,0.025
3604,-0.190,0.030
3605,-0.200,0.025
3606,-0.195,0.030
3607,-0.180,0.025
3608,-0.200,0.035
3609,-0.195,0.040
3610,-0.205,0.040
3611,-0.195,0.040
3612,-0.200,0.045
3613,-0.180,0.035
3614,-0.185,0.040
3615,-0.195,0.050
3616,-0.195,0.045
3617,-0.195,0.050
3618,-0.180,0.050
3619,-0.160,0.050
3620,-0.170,0.050
3621,-0.155,0.045
3622,-0.165,0.055
3623,-0.155,0.060
3624,-0.145,0.060
3625,-0.140,0.050
3626,-0.150,0.055
3627,-0.160,0.025
3628,-0.170,0.025
3629,-0.175,0.020
3630,-0.165,0.005
3631,-0.150,0.010
3632,-0.155,0.015
3633,-0.155,0.015
3634,-0.170,0.025
3635,-0.180,0.035
3636,-0.180,0.035
3637,-0.185,0.020
3638,-0.165,0.020
3639,-0.165,0.015
3640,-0.160,0.020
3641,-0.175,0.025
3642,-0.180,0.030
3643,-0.210,0.020
3644,-0.130,0.025
3645,0.200,0.040
3646,0.645,0.005
3647,0.880,-0.030
3648,0.555,-0.145
3649,-0.230,-0.235
3650,-0.565,-0.240
3651,-0.490,-0.145
3652,-0.295,-0.015
3653,-0.220,0.065
3654,-0.190,0.090
3655,-0.215,0.080
3656,-0.210,0.075
3657,-0.200,0.065
3658,-0.215,0.060
3659,-0.210,0.060
3660,-0.200,0.055
3661,-0.215,0.055
3662,-0.210,0.045
3663,-0.225,0.040
3664,-0.215,0.045
3665,-0.205,0.050
3666,-0.220,0.050
3667,-0.220,0.040
3668,-0.235,0.040
3669,-0.235,0.040
3670,-0.235,0.040
3671,-0.225,0.050
3672,-0.225,0.055
3673,-0.220,0.045
3674,-0.220,0.050
3675,-0.210,0.060
3676,-0.215,0.065
3677,-0.200,0.050
3678,-0.195,0.050
3679,-0.180,0.045
3680,-0.195,0.050
3681,-0.200,0.050
3682,-0.180,0.040
3683,-0.155,0.030
3684,-0.135,0.040
3685,-0.120,0.035
3686,-0.110,0.030
3687,-0.115,0.030
3688,-0.100,0.040
3689,-0.085,0.025
3690,-0.070,0.020
3691,-0.095,0.020
3692,-0.110,0.015
3693,-0.130,0.030
3694,-0.130,0.015
3695,-0.130,0.030
3696,-0.135,0.020
3697,-0.145,0.025
3698,-0.150,0.010
3699,-0.145,0.000
3700,-0.155,0.005
3701,-0.155,0.000
3702,-0.145,0.000
3703,-0.145,0.000
3704,-0.155,0.000
3705,-0.150,0.000
3706,-0.150,0.005
3707,-0.130,0.000
3708,-0.135,0.005
3709,-0.130,0.015
3710,-0.135,0.010
3711,-0.125,0.010
3712,-0.130,0.015
3713,-0.115,0.015
3714,-0.110,0.040
3715,-0.120,0.020
3716,-0.120,0.025
3717,-0.115,0.030
3718,-0.135,0.035
3719,-0.135,0.030
3720,-0.145,0.025
3721,-0.145,0.025
3722,-0.160,0.020
3723,-0.150,0.040
3724,-0.145,0.025
3725,-0.145,0.035
3726,-0.160,0.035
3727,-0.160,0.035
3728,-0.165,0.035
3729,-0.175,0.035
3730,-0.160,0.035
3731,-0.150,0.035
3732,-0.165,0.045
3733,-0.155,0.035
3734,-0.155,0.045
3735,-0.170,0.050
3736,-0.160,0.040
3737,-0.170,0.035
3738,-0.165,0.050
3739,-0.165,0.045
3740,-0.165,0.045
3741,-0.170,0.040
3742,-0.150,0.045
3743,-0.150,0.045
3744,-0.160,0.055
3745,-0.165,0.050
3746,-0.160,0.055
3747,-0.145,0.055
3748,-0.130,0.050
3749,-0.115,0.065
3750,-0.130,0.070
3751,-0.130,0.080
3752,-0.120,0.060
3753,-0.135,0.055
3754,-0.145,0.035
3755,-0.145,0.040
3756,-0.135,0.025
3757,-0.150,0.025
3758,-0.160,0.025
3759,-0.140,0.020
3760,-0.150,0.030
3761,-0.140,0.045
3762,-0.155,0.035
3763,-0.170,0.035
3764,-0.180,0.040
3765,-0.180,0.045
3766,-0.160,0.045
3767,-0.150,0.035
3768,-0.150,0.045
3769,-0.160,0.040
3770,-0.190,0.050
3771,-0.190,0.055
3772,0.040,0.075
3773,0.475,0.060
3774,0.840,0.030
3775,0.885,-0.075
3776,0.285,-0.210
3777,-0.420,-0.270
3778,-0.550,-0.220
3779,-0.385,-0.095
3780,-0.235,0.010
3781,-0.205,0.070
3782,-0.200,0.090
3783,-0.200,0.075
3784,-0.205,0.070
3785,-0.205,0.060
3786,-0.210,0.060
3787,-0.225,0.060
3788,-0.215,0.045
3789,-0.205,0.045
3790,-0.210,0.045
3791,-0.225,0.045
3792,-0.230,0.045
3793,-0.225,0.040
3794,-0.225,0.055
3795,-0.200,0.040
3796,-0.220,0.055
3797,-0.215,0.040
3798,-0.235,0.045
3799,-0.225,0.045
3800,-0.230,0.045
3801,-0.210,0.050
3802,-0.210,0.060
3803,-0.215,0.060
3804,-0.215,0.055
3805,-0.210,0.055
3806,-0.195,0.045
3807,-0.175,0.035
3808,-0.180,0.050
3809,-0.200,0.050
3810,-0.175,0.035
3811,-0.175,0.030
3812,-0.150,0.035
3813,-0.125,0.030
3814,-0.120,0.040
3815,-0.110,0.025
3816,-0.105,0.020
3817,-0.100,0.010
3818,-0.105,0.010
3819,-0.100,0.015
3820,-0.120,0.025
3821,-0.135,0.015
3822,-0.150,0.025
3823,-0.150,0.020
3824,-0.155,0.010
3825,-0.145,0.015
3826,-0.140,0.015
3827,-0.155,0.010
3828,-0.160,0.005
3829,-0.160,0.015
3830,-0.140,0.005
3831,-0.140,0.020
3832,-0.150,0.020
3833,-0.155,0.020
3834,-0.150,0.020
3835,-0.155,0.010
3836,-0.140,0.015
3837,-0.120,0.025
3838,-0.125,0.025
3839,-0.145,0.030
3840,-0.145,0.010
3841,-0.140,0.020
3842,-0.135,0.015
3843,-0.125,0.025
3844,-0.150,0.030
3845,-0.155,0.030
3846,-0.155,0.030
3847,-0.150,0.025
3848,-0.155,0.030
3849,-0.165,0.030
3850,-0.175,0.030
3851,-0.180,0.015
3852,-0.190,0.030
3853,-0.175,0.020
3854,-0.180,0.020
3855,-0.185,0.040
3856,-0.195,0.015
3857,-0.195,0.025
3858,-0.200,0.025
3859,-0.175,0.035
3860,-0.170,0.020
3861,-0.160,0.040
3862,-0.195,0.035
3863,-0.190,0.045
3864,-0.195,0.040
3865,-0.175,0.035
3866,-0.160,0.045
3867,-0.175,0.035
3868,-0.185,0.045
3869,-0.185,0.045
3870,-0.180,0.045
3871,-0.175,0.050
3872,-0.165,0.045
3873,-0.175,0.045
3874,-0.175,0.045
3875,-0.165,0.060
3876,-0.155,0.075
3877,-0.145,0.075
3878,-0.130,0.070
3879,-0.155,0.065
3880,-0.170,0.045
3881,-0.185,0.025
3882,-0.160,0.030
3883,-0.155,0.025
3884,-0.155,0.035
3885,-0.170,0.030
3886,-0.170,0.020
3887,-0.170,0.035
3888,-0.170,0.050
3889,-0.190,0.035
3890,-0.185,0.040
3891,-0.185,0.045
3892,-0.195,0.050
3893,-0.185,0.045
3894,-0.185,0.045
3895,-0.180,0.040
3896,-0.210,0.040
3897,-0.190,0.050
3898,0.055,0.080
3899,0.455,0.055
3900,0.755,0.015
3901,0.725,-0.060
3902,0.130,-0.155
3903,-0.480,-0.220
3904,-0.580,-0.190
3905,-0.410,-0.080
3906,-0.265,0.015
3907,-0.205,0.085
3908,-0.215,0.085
3909,-0.235,0.080
3910,-0.230,0.060
3911,-0.235,0.055
3912,-0.210,0.055
3913,-0.220,0.050
3914,-0.225,0.055
3915,-0.230,0.040
3916,-0.230,0.030
3917,-0.210,0.040
3918,-0.220,0.030
3919,-0.220,0.030
3920,-0.230,0.035
3921,-0.245,0.025
3922,-0.235,0.035
3923,-0.220,0.030
3924,-0.225,0.030
3925,-0.240,0.040
3926,-0.235,0.045
3927,-0.240,0.050
3928,-0.240,0.055
3929,-0.230,0.050
3930,-0.205,0.045
3931,-0.200,0.035
3932,-0.210,0.035
3933,-0.205,0.040
3934,-0.205,0.030
3935,-0.185,0.020
3936,-0.165,0.025
3937,-0.170,0.020
3938,-0.155,0.020
3939,-0.155,0.020
3940,-0.140,0.010
3941,-0.125,0.020
3942,-0.105,0.015
3943,-0.115,0.020
3944,-0.140,0.015
3945,-0.150,0.020
3946,-0.155,0.015
3947,-0.155,0.000
3948,-0.155,0.010
3949,-0.160,0.010
3950,-0.170,0.005
3951,-0.175,0.010
3952,-0.175,0.010
3953,-0.165,0.000
3954,-0.170,0.010
3955,-0.155,0.015
3956,-0.175,0.000
3957,-0.170,0.000
3958,-0.165,0.005
3959,-0.155,0.015
3960,-0.145,0.010
3961,-0.145,0.010
3962,-0.155,0.015
3963,-0.140,0.010
3964,-0.135,0.020
3965,-0.120,0.020
3966,-0.125,0.040
3967,-0.140,0.025
3968,-0.135,0.030
3969,-0.125,0.025
3970,-0.150,0.025
3971,-0.140,0.020
3972,-0.140,0.020
3973,-0.155,0.015
3974,-0.165,0.025
3975,-0.170,0.025
3976,-0.165,0.025
3977,-0.165,0.015
3978,-0.170,0.020
3979,-0.195,0.015
3980,-0.195,0.015
3981,-0.185,0.025
3982,-0.180,0.020
3983,-0.175,0.015
3984,-0.180,0.030
3985,-0.200,0.015
3986,-0.195,0.035
3987,-0.200,0.025
3988,-0.175,0.030
3989,-0.170,0.020
3990,-0.190,0.035
3991,-0.200,0.025
3992,-0.195,0.030
3993,-0.180,0.030
3994,-0.175,0.035
3995,-0.175,0.035
3996,-0.195,0.035
3997,-0.190,0.030
3998,-0.185,0.040
3999,-0.185,0.025
4000,-0.175,0.035
4001,-0.145,0.030
4002,-0.140,0.035
4003,-0.145,0.045
4004,-0.140,0.050
4005,-0.145,0.060
4006,-0.135,0.050
4007,-0.150,0.040
4008,-0.155,0.015
4009,-0.165,0.015
4010,-0.160,0.020
4011,-0.170,0.015
4012,-0.130,0.010
4013,-0.140,0.015
4014,-0.135,0.020
4015,-0.160,0.035
4016,-0.170,0.040
4017,-0.185,0.040
4018,-0.170,0.040
4019,-0.170,0.045
4020,-0.175,0.030
4021,-0.170,0.025
4022,-0.175,0.035
4023,-0.175,0.030
4024,-0.210,0.050
4025,-0.135,0.050
4026,0.190,0.070
4027,0.610,0.025
4028,0.895,-0.015
4029,0.695,-0.125
4030,-0.040,-0.240
4031,-0.505,-0.270
4032,-0.495,-0.170
4033,-0.320,-0.040
4034,-0.220,0.040
4035,-0.190,0.085
4036,-0.195,0.080
4037,-0.200,0.065
4038,-0.200,0.060
4039,-0.210,0.040
4040,-0.210,0.040
4041,-0.210,0.045
4042,-0.200,0.040
4043,-0.200,0.050
4044,-0.210,0.035
4045,-0.225,0.045
4046,-0.225,0.040
4047,-0.220,0.040
4048,-0.215,0.045
4049,-0.205,0.045
4050,-0.210,0.035
4051,-0.225,0.050
4052,-0.230,0.055
4053,-0.210,0.050
4054,-0.210,0.060
4055,-0.230,0.065
4056,-0.230,0.065
4057,-0.240,0.065
4058,-0.230,0.060
4059,-0.220,0.065
4060,-0.205,0.055
4061,-0.210,0.055
4062,-0.205,0.045
4063,-0.200,0.045
4064,-0.195,0.045
4065,-0.185,0.035
4066,-0.150,0.030
4067,-0.130,0.030
4068,-0.125,0.035
4069,-0.135,0.030
4070,-0.130,0.035
4071,-0.115,0.035
4072,-0.100,0.025
4073,-0.110,0.040
4074,-0.125,0.030
4075,-0.140,0.015
4076,-0.150,0.025
4077,-0.160,0.020
4078,-0.140,0.040
4079,-0.155,0.020
4080,-0.170,0.030
4081,-0.175,0.020
4082,-0.175,0.035
4083,-0.175,0.020
4084,-0.170,0.015
4085,-0.155,0.020
4086,-0.160,0.020
4087,-0.175,0.015
4088,-0.170,0.010
4089,-0.160,0.015
4090,-0.155,0.015
4091,-0.155,0.000
4092,-0.155,0.015
4093,-0.150,0.010
4094,-0.150,0.010
4095,-0.155,0.015
4096,-0.155,0.010
4097,-0.140,0.030
4098,-0.160,0.015
4099,-0.170,0.030
4100,-0.170,0.015
4101,-0.165,0.010
4102,-0.160,0.025
4103,-0.180,0.015
4104,-0.170,0.005
4105,-0.185,0.005
4106,-0.190,0.010
4107,-0.185,0.015
4108,-0.180,0.010
4109,-0.190,0.015
4110,-0.205,0.000
4111,-0.190,0.015
4112,-0.200,0.015
4113,-0.190,0.005
4114,-0.190,0.025
4115,-0.185,0.010
4116,-0.195,0.015
4117,-0.175,0.015
4118,-0.200,0.025
4119,-0.185,0.005
4120,-0.190,0.025
4121,-0.180,0.020
4122,-0.185,0.025
4123,-0.200,0.030
4124,-0.195,0.040
4125,-0.195,0.025
4126,-0.185,0.035
4127,-0.185,0.040
4128,-0.190,0.040
4129,-0.175,0.030
4130,-0.150,0.045
4131,-0.145,0.065
4132,-0.140,0.065
4133,-0.150,0.060
4134,-0.155,0.055
4135,-0.185,0.040
4136,-0.170,0.015
4137,-0.160,0.020
4138,-0.160,0.020
4139,-0.150,0.020
4140,-0.160,0.020
4141,-0.155,0.025
4142,-0.165,0.035
4143,-0.175,0.035
4144,-0.185,0.040
4145,-0.190,0.050
4146,-0.200,0.040
4147,-0.205,0.045
4148,-0.205,0.025
4149,-0.190,0.035
4150,-0.180,0.035
4151,-0.195,0.030
4152,-0.245,0.045
4153,-0.150,0.050
4154,0.195,0.055
4155,0.610,0.035
4156,0.865,-0.005
4157,0.570,-0.130
4158,-0.230,-0.240
4159,-0.590,-0.250
4160,-0.520,-0.145
4161,-0.320,-0.020
4162,-0.220,0.050
4163,-0.220,0.085
4164,-0.245,0.085
4165,-0.250,0.080
4166,-0.235,0.055
4167,-0.240,0.055
4168,-0.235,0.060
4169,-0.240,0.055
4170,-0.260,0.045
4171,-0.260,0.030
4172,-0.240,0.045
4173,-0.250,0.050
4174,-0.235,0.035
4175,-0.250,0.045
4176,-0.240,0.050
4177,-0.270,0.045
4178,-0.270,0.045
4179,-0.255,0.045
4180,-0.240,0.045
4181,-0.260,0.045
4182,-0.245,0.055
4183,-0.260,0.040
4184,-0.240,0.050
4185,-0.245,0.055
4186,-0.250,0.055
4187,-0.235,0.050
4188,-0.255,0.050
4189,-0.240,0.045
4190,-0.225,0.030
4191,-0.220,0.025
4192,-0.200,0.020
4193,-0.185,0.020
4194,-0.170,0.015
4195,-0.170,0.025
4196,-0.150,0.010
4197,-0.145,0.000
4198,-0.140,0.000
4199,-0.160,0.015
4200,-0.160,0.015
4201,-0.165,0.005
4202,-0.165,0.000
4203,-0.165,0.005
4204,-0.175,0.000
4205,-0.200,0.015
4206,-0.195,0.005
4207,-0.200,0.005
4208,-0.190,0.000
4209,-0.185,0.005
4210,-0.195,0.005
4211,-0.200,0.000
4212,-0.205,0.000
4213,-0.185,0.000
4214,-0.180,0.005
4215,-0.180,0.005
4216,-0.190,0.005
4217,-0.180,0.005
4218,-0.190,0.015
4219,-0.170,0.005
4220,-0.160,0.005
4221,-0.170,0.005
4222,-0.165,0.010
4223,-0.190,0.010
4224,-0.170,0.010
4225,-0.170,0.010
4226,-0.170,0.000
4227,-0.175,0.000
4228,-0.190,0.005
4229,-0.200,0.015
4230,-0.200,0.005
4231,-0.205,0.010
4232,-0.195,0.010
4233,-0.205,0.005
4234,-0.210,0.005
4235,-0.220,0.000
4236,-0.215,0.000
4237,-0.215,0.000
4238,-0.220,0.000
4239,-0.215,0.015
4240,-0.225,0.010
4241,-0.220,0.005
4242,-0.245,0.000
4243,-0.235,0.000
4244,-0.225,0.000
4245,-0.220,0.000
4246,-0.230,0.005
4247,-0.245,0.015
4248,-0.220,-0.005
4249,-0.220,0.010
4250,-0.225,0.015
4251,-0.220,0.000
4252,-0.225,0.005
4253,-0.225,0.015
4254,-0.190,0.010
4255,-0.180,0.020
4256,-0.160,0.030
4257,-0.185,0.045
4258,-0.185,0.035
4259,-0.180,0.025
4260,-0.195,0.020
4261,-0.185,0.010
4262,-0.175,0.005
4263,-0.190,0.010
4264,-0.205,0.005
4265,-0.195,0.010
4266,-0.165,0.015
4267,-0.175,0.025
4268,-0.190,0.035
4269,-0.220,0.035
4270,-0.220,0.020
4271,-0.210,0.025
4272,-0.215,0.020
4273,-0.210,0.010
4274,-0.210,0.025
4275,-0.205,0.015
4276,-0.235,0.025
4277,-0.250,0.025
4278,-0.080,0.040
4279,0.320,0.040
4280,0.705,0.015
4281,0.810,-0.055
4282,0.305,-0.165
4283,-0.405,-0.255
4284,-0.605,-0.225
4285,-0.480,-0.105
4286,-0.310,0.000
4287,-0.235,0.065
4288,-0.250,0.075
4289,-0.260,0.080
4290,-0.250,0.065
4291,-0.240,0.055
4292,-0.240,0.055
4293,-0.250,0.050
4294,-0.260,0.050
4295,-0.255,0.045
4296,-0.255,0.035
4297,-0.260,0.030
4298,-0.260,0.035
4299,-0.265,0.040
4300,-0.270,0.045
4301,-0.265,0.035
4302,-0.260,0.030
4303,-0.260,0.040
4304,-0.280,0.040
4305,-0.285,0.040
4306,-0.280,0.040
4307,-0.250,0.035
4308,-0.235,0.030
4309,-0.250,0.050
4310,-0.245,0.050
4311,-0.250,0.035
4312,-0.235,0.040
4313,-0.235,0.040
4314,-0.220,0.040
4315,-0.205,0.045
4316,-0.205,0.025
4317,-0.190,0.035
4318,-0.165,0.025
4319,-0.155,0.030
4320,-0.150,0.030
4321,-0.130,0.015
4322,-0.135,0.010
4323,-0.140,0.010
4324,-0.145,0.015
4325,-0.145,0.010
4326,-0.140,0.015
4327,-0.155,0.010
4328,-0.175,0.010
4329,-0.185,0.010
4330,-0.185,0.005
4331,-0.180,0.015
4332,-0.175,0.000
4333,-0.185,0.010
4334,-0.190,0.005
4335,-0.190,0.000
4336,-0.195,0.005
4337,-0.180,0.000
4338,-0.170,-0.005
4339,-0.165,0.000
4340,-0.165,0.000
4341,-0.180,0.005
4342,-0.170,0.015
4343,-0.160,0.000
4344,-0.150,0.015
4345,-0.155,0.010
4346,-0.170,0.020
4347,-0.175,0.005
4348,-0.180,0.010
4349,-0.150,0.005
4350,-0.160,0.010
4351,-0.170,0.015
4352,-0.165,0.025
4353,-0.195,0.010
4354,-0.195,0.005
4355,-0.195,0.005
4356,-0.190,0.005
4357,-0.190,0.005
4358,-0.210,0.005
4359,-0.200,0.020
4360,-0.200,0.015
4361,-0.190,0.025
4362,-0.210,0.015
4363,-0.220,0.010
4364,-0.220,0.010
4365,-0.210,0.020
4366,-0.205,0.015
4367,-0.210,0.015
4368,-0.200,0.015
4369,-0.220,0.025
4370,-0.220,0.025
4371,-0.220,0.015
4372,-0.210,0.015
4373,-0.190,0.025
4374,-0.190,0.030
4375,-0.205,0.030
4376,-0.215,0.030
4377,-0.205,0.025
4378,-0.205,0.025
4379,-0.200,0.035
4380,-0.190,0.020
4381,-0.175,0.025
4382,-0.170,0.035
4383,-0.155,0.045
4384,-0.155,0.055
4385,-0.145,0.060
4386,-0.155,0.055
4387,-0.165,0.030
4388,-0.190,0.035
4389,-0.185,0.015
4390,-0.165,0.020
4391,-0.160,0.015
4392,-0.155,0.015
4393,-0.155,0.010
4394,-0.155,0.015
4395,-0.175,0.045
4396,-0.190,0.055
4397,-0.175,0.045
4398,-0.185,0.050
4399,-0.180,0.050
4400,-0.195,0.040
4401,-0.180,0.045
4402,-0.175,0.045
4403,-0.175,0.040
4404,-0.210,0.035
4405,-0.145,0.055
4406,0.180,0.065
4407,0.585,0.035
4408,0.885,-0.005
4409,0.710,-0.125
4410,-0.010,-0.220
4411,-0.515,-0.265
4412,-0.525,-0.170
4413,-0.345,-0.045
4414,-0.235,0.035
4415,-0.195,0.095
4416,-0.200,0.085
4417,-0.220,0.075
4418,-0.220,0.080
4419,-0.220,0.065
4420,-0.205,0.060
4421,-0.205,0.065
4422,-0.215,0.060
4423,-0.225,0.060
4424,-0.230,0.055
4425,-0.230,0.055
4426,-0.220,0.065
4427,-0.215,0.060
4428,-0.230,0.065
4429,-0.255,0.060
4430,-0.235,0.050
4431,-0.240,0.050
4432,-0.230,0.060
4433,-0.225,0.055
4434,-0.230,0.055
4435,-0.230,0.060
4436,-0.235,0.060
4437,-0.210,0.085
4438,-0.220,0.075
4439,-0.205,0.065
4440,-0.200,0.065
4441,-0.195,0.060
4442,-0.190,0.065
4443,-0.185,0.060
4444,-0.175,0.055
4445,-0.150,0.050
4446,-0.145,0.045
4447,-0.135,0.055
4448,-0.125,0.040
4449,-0.115,0.035
4450,-0.105,0.035
4451,-0.105,0.030
4452,-0.110,0.035
4453,-0.130,0.035
4454,-0.140,0.015
4455,-0.135,0.020
4456,-0.125,0.040
4457,-0.165,0.030
4458,-0.165,0.035
4459,-0.190,0.025
4460,-0.175,0.025
4461,-0.165,0.025
4462,-0.160,0.030
4463,-0.155,0.035
4464,-0.160,0.025
4465,-0.180,0.025
4466,-0.155,0.025
4467,-0.160,0.025
4468,-0.145,0.040
4469,-0.145,0.035
4470,-0.150,0.020
4471,-0.155,0.040
4472,-0.135,0.030
4473,-0.140,0.040
4474,-0.130,0.030
4475,-0.140,0.045
4476,-0.155,0.030
4477,-0.155,0.030
4478,-0.145,0.030
4479,-0.140,0.035
4480,-0.160,0.045
4481,-0.165,0.040
4482,-0.185,0.050
4483,-0.175,0.035
4484,-0.175,0.030
4485,-0.175,0.035
4486,-0.180,0.040
4487,-0.180,0.025
4488,-0.185,0.030
4489,-0.200,0.035
4490,-0.185,0.035
4491,-0.190,0.040
4492,-0.180,0.035
4493,-0.190,0.030
4494,-0.200,0.030
4495,-0.200,0.035
4496,-0.200,0.035
4497,-0.195,0.025
4498,-0.200,0.035
4499,-0.185,0.040
4500,-0.205,0.045
4501,-0.205,0.045
4502,-0.210,0.035
4503,-0.195,0.035
4504,-0.195,0.045
4505,-0.190,0.035
4506,-0.205,0.040
4507,-0.200,0.050
4508,-0.170,0.040
4509,-0.160,0.045
4510,-0.155,0.080
4511,-0.175,0.085
4512,-0.165,0.080
4513,-0.170,0.065
4514,-0.175,0.055
4515,-0.165,0.045
4516,-0.180,0.040
4517,-0.170,0.030
4518,-0.180,0.055
4519,-0.170,0.040
4520,-0.160,0.060
4521,-0.145,0.055
4522,-0.170,0.075
4523,-0.195,0.080
4524,-0.210,0.075
4525,-0.215,0.080
4526,-0.205,0.080
4527,-0.180,0.080
4528,-0.180,0.075
4529,-0.195,0.075
4530,-0.215,0.070
4531,-0.225,0.090
4532,-0.065,0.100
4533,0.295,0.080
4534,0.665,0.055
4535,0.815,0.005
4536,0.430,-0.105
4537,-0.260,-0.190
4538,-0.570,-0.195
4539,-0.490,-0.090
4540,-0.300,0.010
4541,-0.220,0.090
4542,-0.220,0.115
4543,-0.215,0.110
4544,-0.205,0.105
4545,-0.195,0.100
4546,-0.205,0.090
4547,-0.235,0.085
4548,-0.215,0.095
4549,-0.225,0.085
4550,-0.225,0.085
4551,-0.210,0.085
4552,-0.215,0.085
4553,-0.220,0.080
4554,-0.225,0.085
4555,-0.230,0.080
4556,-0.220,0.085
4557,-0.210,0.080
4558,-0.215,0.075
4559,-0.220,0.085
4560,-0.225,0.085
4561,-0.215,0.085
4562,-0.205,0.080
4563,-0.195,0.095
4564,-0.205,0.095
4565,-0.200,0.100
4566,-0.215,0.085
4567,-0.195,0.090
4568,-0.180,0.090
4569,-0.165,0.100
4570,-0.170,0.090
4571,-0.150,0.090
4572,-0.140,0.080
4573,-0.130,0.075
4574,-0.115,0.075
4575,-0.105,0.070
4576,-0.105,0.075
4577,-0.115,0.075
4578,-0.120,0.075
4579,-0.130,0.075
4580,-0.125,0.065
4581,-0.125,0.060
4582,-0.135,0.060
4583,-0.150,0.055
4584,-0.160,0.050
4585,-0.155,0.050
4586,-0.155,0.060
4587,-0.150,0.070
4588,-0.150,0.060
4589,-0.170,0.060
4590,-0.165,0.065
4591,-0.160,0.055
4592,-0.135,0.060
4593,-0.150,0.065
4594,-0.160,0.065
4595,-0.150,0.075
4596,-0.145,0.065
4597,-0.130,0.065
4598,-0.120,0.080
4599,-0.130,0.070
4600,-0.120,0.080
4601,-0.130,0.070
4602,-0.120,0.080
4603,-0.135,0.065
4604,-0.130,0.070
4605,-0.130,0.070
4606,-0.140,0.075
4607,-0.150,0.065
4608,-0.170,0.075
4609,-0.145,0.070
4610,-0.145,0.065
4611,-0.125,0.075
4612,-0.155,0.060
4613,-0.170,0.070
4614,-0.180,0.060
4615,-0.165,0.060
4616,-0.170,0.060
4617,-0.170,0.075
4618,-0.170,0.070
4619,-0.195,0.070
4620,-0.190,0.060
4621,-0.190,0.070
4622,-0.170,0.070
4623,-0.180,0.065
4624,-0.180,0.070
4625,-0.200,0.060
4626,-0.190,0.085
4627,-0.190,0.065
4628,-0.185,0.065
4629,-0.190,0.060
4630,-0.180,0.070
4631,-0.195,0.060
4632,-0.200,0.065
4633,-0.185,0.080
4634,-0.170,0.075
4635,-0.180,0.070
4636,-0.170,0.080
4637,-0.155,0.085
4638,-0.140,0.095
4639,-0.140,0.110
4640,-0.130,0.085
4641,-0.130,0.090
4642,-0.155,0.080
4643,-0.165,0.070
4644,-0.155,0.050
4645,-0.150,0.055
4646,-0.140,0.050
4647,-0.140,0.050
4648,-0.140,0.050
4649,-0.125,0.050
4650,-0.130,0.065
4651,-0.155,0.090
4652,-0.155,0.080
4653,-0.160,0.070
4654,-0.170,0.070
4655,-0.175,0.065
4656,-0.170,0.065
4657,-0.160,0.065
4658,-0.155,0.070
4659,-0.190,0.060
4660,-0.205,0.075
4661,0.020,0.100
4662,0.445,0.085
4663,0.835,0.045
4664,0.875,-0.040
4665,0.290,-0.160
4666,-0.405,-0.240
4667,-0.555,-0.180
4668,-0.390,-0.050
4669,-0.235,0.055
4670,-0.195,0.120
4671,-0.200,0.125
4672,-0.215,0.120
4673,-0.220,0.105
4674,-0.220,0.095
4675,-0.220,0.090
4676,-0.190,0.070
4677,-0.195,0.085
4678,-0.205,0.100
4679,-0.225,0.080
4680,-0.220,0.090
4681,-0.205,0.090
4682,-0.210,0.070
4683,-0.205,0.075
4684,-0.225,0.080
4685,-0.225,0.075
4686,-0.220,0.080
4687,-0.200,0.080
4688,-0.200,0.095
4689,-0.200,0.090
4690,-0.225,0.095
4691,-0.230,0.080
4692,-0.225,0.085
4693,-0.200,0.100
4694,-0.195,0.095
4695,-0.200,0.080
4696,-0.195,0.090
4697,-0.185,0.090
4698,-0.170,0.070
4699,-0.150,0.085
4700,-0.135,0.085
4701,-0.120,0.075
4702,-0.120,0.070
4703,-0.125,0.065
4704,-0.100,0.060
4705,-0.085,0.060
4706,-0.080,0.065
4707,-0.095,0.060
4708,-0.110,0.055
4709,-0.120,0.045
4710,-0.125,0.050
4711,-0.110,0.055
4712,-0.140,0.040
4713,-0.150,0.040
4714,-0.150,0.040
4715,-0.130,0.035
4716,-0.145,0.045
4717,-0.145,0.045
4718,-0.140,0.040
4719,-0.135,0.050
4720,-0.150,0.055
4721,-0.140,0.050
4722,-0.140,0.060
4723,-0.135,0.065
4724,-0.140,0.045
4725,-0.140,0.055
4726,-0.140,0.045
4727,-0.130,0.050
4728,-0.130,0.060
4729,-0.110,0.055
4730,-0.125,0.040
4731,-0.120,0.055
4732,-0.125,0.070
4733,-0.135,0.045
4734,-0.135,0.055
4735,-0.130,0.055
4736,-0.135,0.060
4737,-0.145,0.050
4738,-0.170,0.055
4739,-0.165,0.055
4740,-0.150,0.040
4741,-0.155,0.035
4742,-0.175,0.050
4743,-0.200,0.045
4744,-0.175,0.045
4745,-0.185,0.055
4746,-0.170,0.050
4747,-0.185,0.050
4748,-0.190,0.045
4749,-0.200,0.045
4750,-0.200,0.040
4751,-0.200,0.045
4752,-0.190,0.040
4753,-0.185,0.055
4754,-0.190,0.060
4755,-0.200,0.045
4756,-0.200,0.030
4757,-0.200,0.050
4758,-0.190,0.050
4759,-0.205,0.045
4760,-0.185,0.045
4761,-0.200,0.035
4762,-0.215,0.040
4763,-0.175,0.045
4764,-0.155,0.045
4765,-0.145,0.070
4766,-0.160,0.085
4767,-0.170,0.065
4768,-0.160,0.055
4769,-0.165,0.060
4770,-0.160,0.055
4771,-0.160,0.040
4772,-0.180,0.045
4773,-0.165,0.045
4774,-0.155,0.050
4775,-0.135,0.060
4776,-0.140,0.075
4777,-0.160,0.075
4778,-0.195,0.090
4779,-0.190,0.085
4780,-0.180,0.080
4781,-0.175,0.075
4782,-0.160,0.080
4783,-0.170,0.075
4784,-0.170,0.075
4785,-0.200,0.080
4786,-0.215,0.095
4787,-0.060,0.105
4788,0.330,0.095
4789,0.715,0.060
4790,0.825,-0.010
4791,0.300,-0.110
4792,-0.400,-0.205
4793,-0.565,-0.185
4794,-0.430,-0.050
4795,-0.275,0.055
4796,-0.215,0.135
4797,-0.230,0.130
4798,-0.225,0.115
4799,-0.210,0.115
4800,-0.220,0.110
4801,-0.215,0.110
4802,-0.230,0.095
4803,-0.220,0.090
4804,-0.230,0.100
4805,-0.220,0.090
4806,-0.210,0.085
4807,-0.230,0.085
4808,-0.235,0.095
4809,-0.235,0.095
4810,-0.220,0.095
4811,-0.215,0.095
4812,-0.215,0.095
4813,-0.220,0.105
4814,-0.220,0.095
4815,-0.215,0.110
4816,-0.220,0.115
4817,-0.215,0.115
4818,-0.210,0.115
4819,-0.220,0.110
4820,-0.215,0.110
4821,-0.205,0.115
4822,-0.200,0.105
4823,-0.180,0.105
4824,-0.195,0.100
4825,-0.195,0.095
4826,-0.160,0.090
4827,-0.140,0.085
4828,-0.135,0.095
4829,-0.130,0.080
4830,-0.110,0.085
4831,-0.115,0.090
4832,-0.125,0.080
4833,-0.135,0.075
4834,-0.140,0.075
4835,-0.145,0.065
4836,-0.160,0.060
4837,-0.175,0.065
4838,-0.175,0.060
4839,-0.180,0.055
4840,-0.180,0.060
4841,-0.175,0.060
4842,-0.190,0.060
4843,-0.200,0.060
4844,-0.185,0.055
4845,-0.185,0.055
4846,-0.170,0.065
4847,-0.170,0.060
4848,-0.180,0.070
4849,-0.175,0.070
4850,-0.155,0.070
4851,-0.145,0.070
4852,-0.145,0.065
4853,-0.145,0.070
4854,-0.145,0.060
4855,-0.150,0.065
4856,-0.145,0.065
4857,-0.145,0.070
4858,-0.155,0.060
4859,-0.165,0.065
4860,-0.165,0.070
4861,-0.175,0.060
4862,-0.195,0.060
4863,-0.175,0.060
4864,-0.170,0.070
4865,-0.185,0.070
4866,-0.185,0.070
4867,-0.190,0.065
4868,-0.190,0.065
4869,-0.195,0.065
4870,-0.190,0.070
4871,-0.200,0.070
4872,-0.210,0.070
4873,-0.210,0.065
4874,-0.210,0.065
4875,-0.195,0.080
4876,-0.215,0.075
4877,-0.210,0.070
4878,-0.215,0.075
4879,-0.220,0.070
4880,-0.215,0.065
4881,-0.200,0.065
4882,-0.210,0.065
4883,-0.215,0.075
4884,-0.210,0.065
4885,-0.210,0.070
4886,-0.220,0.065
4887,-0.200,0.070
4888,-0.200,0.070
4889,-0.185,0.075
4890,-0.180,0.075
4891,-0.180,0.085
4892,-0.160,0.085
4893,-0.175,0.080
4894,-0.180,0.070
4895,-0.190,0.065
4896,-0.175,0.060
4897,-0.180,0.050
4898,-0.175,0.060
4899,-0.180,0.045
4900,-0.165,0.060
4901,-0.180,0.080
4902,-0.180,0.075
4903,-0.200,0.090
4904,-0.190,0.095
4905,-0.190,0.080
4906,-0.195,0.095
4907,-0.205,0.090
4908,-0.205,0.085
4909,-0.190,0.085
4910,-0.180,0.090
4911,-0.215,0.095
4912,-0.160,0.100
4913,0.180,0.105
4914,0.600,0.075
4915,0.865,0.020
4916,0.635,-0.090
4917,-0.060,-0.185
4918,-0.520,-0.220
4919,-0.525,-0.110
4920,-0.345,-0.005
4921,-0.240,0.095
4922,-0.195,0.125
4923,-0.210,0.125
4924,-0.240,0.130
4925,-0.220,0.115
4926,-0.230,0.095
4927,-0.220,0.095
4928,-0.215,0.095
4929,-0.225,0.090
4930,-0.230,0.095
4931,-0.235,0.100
4932,-0.240,0.095
4933,-0.225,0.095
4934,-0.235,0.100
4935,-0.220,0.095
4936,-0.230,0.090
4937,-0.240,0.090
4938,-0.240,0.085
4939,-0.230,0.100
4940,-0.230,0.105
4941,-0.220,0.105
4942,-0.235,0.115
4943,-0.240,0.100
4944,-0.235,0.095
4945,-0.215,0.100
4946,-0.205,0.110
4947,-0.200,0.120
4948,-0.215,0.115
4949,-0.200,0.095
4950,-0.190,0.085
4951,-0.175,0.085
4952,-0.150,0.085
4953,-0.145,0.100
4954,-0.140,0.080
4955,-0.115,0.075
4956,-0.115,0.075
4957,-0.110,0.085
4958,-0.110,0.075
4959,-0.110,0.070
4960,-0.135,0.070
4961,-0.145,0.060
4962,-0.155,0.060
4963,-0.155,0.070
4964,-0.165,0.060
4965,-0.145,0.065
4966,-0.165,0.070
4967,-0.170,0.065
4968,-0.185,0.065
4969,-0.175,0.055
4970,-0.170,0.065
4971,-0.175,0.050
4972,-0.175,0.055
4973,-0.180,0.065
4974,-0.170,0.055
4975,-0.175,0.070
4976,-0.155,0.070
4977,-0.160,0.060
4978,-0.160,0.080
4979,-0.165,0.065
4980,-0.145,0.070
4981,-0.145,0.070
4982,-0.140,0.070
4983,-0.140,0.075
4984,-0.140,0.070
4985,-0.165,0.080
4986,-0.160,0.075
4987,-0.170,0.070
4988,-0.155,0.090
4989,-0.175,0.085
4990,-0.185,0.070
4991,-0.180,0.055
4992,-0.175,0.060
4993,-0.180,0.070
4994,-0.175,0.070
4995,-0.185,0.065
4996,-0.195,0.075
4997,-0.195,0.085
4998,-0.205,0.080
4999,-0.205,0.070
5000,-0.185,0.065
5001,-0.200,0.080
5002,-0.200,0.075
5003,-0.190,0.070
5004,-0.200,0.070
5005,-0.195,0.075
5006,-0.205,0.055
5007,-0.195,0.055
5008,-0.210,0.065
5009,-0.220,0.055
5010,-0.215,0.055
5011,-0.205,0.055
5012,-0.215,0.060
5013,-0.215,0.055
5014,-0.220,0.070
5015,-0.210,0.065
5016,-0.175,0.060
5017,-0.160,0.070
5018,-0.155,0.075
5019,-0.160,0.090
5020,-0.180,0.090
5021,-0.180,0.075
5022,-0.180,0.065
5023,-0.170,0.060
5024,-0.170,0.050
5025,-0.175,0.050
5026,-0.175,0.050
5027,-0.170,0.055
5028,-0.170,0.070
5029,-0.165,0.080
5030,-0.180,0.080
5031,-0.200,0.090
5032,-0.215,0.085
5033,-0.205,0.075
5034,-0.195,0.085
5035,-0.180,0.070
5036,-0.185,0.080
5037,-0.190,0.080
5038,-0.200,0.075
5039,-0.225,0.070
5040,-0.080,0.110
5041,0.305,0.095
5042,0.695,0.075
5043,0.890,0.005
5044,0.490,-0.110
5045,-0.260,-0.205
5046,-0.560,-0.195
5047,-0.460,-0.070
5048,-0.305,0.035
5049,-0.225,0.135
5050,-0.230,0.160
5051,-0.225,0.145
5052,-0.210,0.135
5053,-0.220,0.125
5054,-0.225,0.125
5055,-0.230,0.125
5056,-0.245,0.120
5057,-0.235,0.120
5058,-0.225,0.110
5059,-0.230,0.125
5060,-0.230,0.120
5061,-0.250,0.115
5062,-0.250,0.115
5063,-0.255,0.115
5064,-0.230,0.130
5065,-0.235,0.125
5066,-0.245,0.140
5067,-0.245,0.135
5068,-0.235,0.130
5069,-0.235,0.130
5070,-0.240,0.135
5071,-0.225,0.140
5072,-0.225,0.135
5073,-0.235,0.135
5074,-0.220,0.140
5075,-0.220,0.135
5076,-0.200,0.125
5077,-0.200,0.130
5078,-0.175,0.130
5079,-0.190,0.130
5080,-0.180,0.130
5081,-0.150,0.120
5082,-0.120,0.115
5083,-0.135,0.120
5084,-0.125,0.115
5085,-0.125,0.115
5086,-0.140,0.110
5087,-0.140,0.110
5088,-0.135,0.120
5089,-0.150,0.110
5090,-0.170,0.105
5091,-0.185,0.090
5092,-0.175,0.100
5093,-0.180,0.100
5094,-0.165,0.090
5095,-0.175,0.085
5096,-0.185,0.095
5097,-0.180,0.085
5098,-0.180,0.085
5099,-0.170,0.085
5100,-0.195,0.095
5101,-0.190,0.080
5102,-0.190,0.090
5103,-0.185,0.090
5104,-0.180,0.095
5105,-0.175,0.090
5106,-0.175,0.090
5107,-0.160,0.105
5108,-0.175,0.095
5109,-0.180,0.095
5110,-0.165,0.085
5111,-0.165,0.100
5112,-0.155,0.085
5113,-0.160,0.095
5114,-0.195,0.095
5115,-0.200,0.085
5116,-0.195,0.085
5117,-0.195,0.090
5118,-0.195,0.095
5119,-0.200,0.080
5120,-0.200,0.105
5121,-0.215,0.085
5122,-0.225,0.095
5123,-0.215,0.090
5124,-0.200,0.090
5125,-0.215,0.100
5126,-0.225,0.095
5127,-0.235,0.080
5128,-0.225,0.085
5129,-0.215,0.080
5130,-0.215,0.075
5131,-0.230,0.085
5132,-0.245,0.085
5133,-0.235,0.090
5134,-0.235,0.080
5135,-0.225,0.090
5136,-0.225,0.100
5137,-0.220,0.085
5138,-0.225,0.090
5139,-0.245,0.090
5140,-0.235,0.100
5141,-0.225,0.070
5142,-0.205,0.075
5143,-0.190,0.105
5144,-0.210,0.110
5145,-0.195,0.105
5146,-0.190,0.115
5147,-0.185,0.100
5148,-0.220,0.110
5149,-0.220,0.090
5150,-0.215,0.075
5151,-0.215,0.075
5152,-0.205,0.090
5153,-0.210,0.075
5154,-0.180,0.075
5155,-0.200,0.095
5156,-0.220,0.115
5157,-0.230,0.120
5158,-0.220,0.110
5159,-0.220,0.110
5160,-0.215,0.110
5161,-0.220,0.120
5162,-0.220,0.115
5163,-0.215,0.105
5164,-0.230,0.120
5165,-0.250,0.125
5166,-0.095,0.145
5167,0.260,0.135
5168,0.645,0.110
5169,0.785,0.045
5170,0.375,-0.045
5171,-0.340,-0.140
5172,-0.595,-0.130
5173,-0.510,-0.030
5174,-0.325,0.070
5175,-0.250,0.145
5176,-0.230,0.165
5177,-0.250,0.170
5178,-0.245,0.155
5179,-0.250,0.150
5180,-0.255,0.135
5181,-0.250,0.145
5182,-0.240,0.140
5183,-0.250,0.140
5184,-0.245,0.140
5185,-0.265,0.135
5186,-0.265,0.125
5187,-0.265,0.135
5188,-0.265,0.140
5189,-0.245,0.130
5190,-0.260,0.140
5191,-0.260,0.150
5192,-0.265,0.140
5193,-0.260,0.155
5194,-0.245,0.160
5195,-0.240,0.150
5196,-0.245,0.150
5197,-0.250,0.155
5198,-0.235,0.160
5199,-0.230,0.160
5200,-0.220,0.150
5201,-0.205,0.155
5202,-0.215,0.145
5203,-0.215,0.140
5204,-0.195,0.135
5205,-0.175,0.140
5206,-0.175,0.120
5207,-0.155,0.120
5208,-0.140,0.125
5209,-0.145,0.125
5210,-0.140,0.115
5211,-0.145,0.120
5212,-0.125,0.125
5213,-0.140,0.130
5214,-0.165,0.125
5215,-0.170,0.110
5216,-0.175,0.105
5217,-0.170,0.115
5218,-0.175,0.115
5219,-0.175,0.125
5220,-0.175,0.115
5221,-0.195,0.105
5222,-0.180,0.110
5223,-0.180,0.115
5224,-0.180,0.115
5225,-0.175,0.100
5226,-0.175,0.110
5227,-0.175,0.110
5228,-0.175,0.115
5229,-0.160,0.110
5230,-0.155,0.115
5231,-0.150,0.110
5232,-0.155,0.125
5233,-0.165,0.115
5234,-0.145,0.095
5235,-0.140,0.105
5236,-0.140,0.115
5237,-0.140,0.110
5238,-0.170,0.115
5239,-0.165,0.110
5240,-0.160,0.105
5241,-0.160,0.100
5242,-0.165,0.105
5243,-0.185,0.120
5244,-0.190,0.120
5245,-0.195,0.110
5246,-0.195,0.100
5247,-0.185,0.105
5248,-0.180,0.100
5249,-0.195,0.105
5250,-0.215,0.110
5251,-0.220,0.090
5252,-0.220,0.110
5253,-0.195,0.105
5254,-0.210,0.105
5255,-0.210,0.095
5256,-0.215,0.115
5257,-0.200,0.095
5258,-0.205,0.105
5259,-0.200,0.105
5260,-0.190,0.100
5261,-0.210,0.105
5262,-0.210,0.120
5263,-0.210,0.115
5264,-0.215,0.120
5265,-0.215,0.125
5266,-0.190,0.105
5267,-0.215,0.100
5268,-0.210,0.095
5269,-0.195,0.110
5270,-0.180,0.105
5271,-0.160,0.120
5272,-0.160,0.125
5273,-0.170,0.130
5274,-0.170,0.120
5275,-0.180,0.110
5276,-0.195,0.090
5277,-0.175,0.080
5278,-0.180,0.090
5279,-0.185,0.090
5280,-0.195,0.085
5281,-0.165,0.075
5282,-0.170,0.090
5283,-0.160,0.115
5284,-0.190,0.120
5285,-0.195,0.135
5286,-0.205,0.120
5287,-0.205,0.120
5288,-0.180,0.120
5289,-0.185,0.120
5290,-0.180,0.110
5291,-0.195,0.110
5292,-0.230,0.110
5293,-0.195,0.130
5294,0.110,0.165
5295,0.535,0.130
5296,0.880,0.080
5297,0.780,-0.025
5298,0.075,-0.140
5299,-0.485,-0.185
5300,-0.530,-0.100
5301,-0.355,0.025
5302,-0.245,0.130
5303,-0.220,0.175
5304,-0.215,0.190
5305,-0.215,0.175
5306,-0.215,0.170
5307,-0.210,0.165
5308,-0.225,0.145
5309,-0.225,0.150
5310,-0.210,0.155
5311,-0.215,0.145
5312,-0.215,0.150
5313,-0.215,0.150
5314,-0.225,0.155
5315,-0.235,0.145
5316,-0.240,0.150
5317,-0.240,0.150
5318,-0.205,0.160
5319,-0.225,0.160
5320,-0.230,0.165
5321,-0.215,0.160
5322,-0.220,0.165
5323,-0.200,0.165
5324,-0.210,0.160
5325,-0.210,0.180
5326,-0.205,0.170
5327,-0.200,0.170
5328,-0.195,0.170
5329,-0.175,0.160
5330,-0.175,0.165
5331,-0.170,0.155
5332,-0.155,0.150
5333,-0.135,0.145
5334,-0.120,0.145
5335,-0.100,0.145
5336,-0.090,0.135
5337,-0.090,0.130
5338,-0.100,0.125
5339,-0.090,0.125
5340,-0.095,0.130
5341,-0.095,0.125
5342,-0.105,0.135
5343,-0.140,0.125
5344,-0.135,0.125
5345,-0.140,0.115
5346,-0.135,0.110
5347,-0.125,0.110
5348,-0.135,0.115
5349,-0.145,0.110
5350,-0.160,0.115
5351,-0.140,0.115
5352,-0.125,0.115
5353,-0.130,0.115
5354,-0.140,0.105
5355,-0.140,0.110
5356,-0.135,0.120
5357,-0.135,0.125
5358,-0.110,0.110
5359,-0.115,0.115
5360,-0.120,0.120
5361,-0.125,0.115
5362,-0.120,0.120
5363,-0.125,0.120
5364,-0.115,0.125
5365,-0.115,0.120
5366,-0.130,0.120
5367,-0.140,0.120
5368,-0.125,0.115
5369,-0.130,0.125
5370,-0.130,0.110
5371,-0.140,0.115
5372,-0.150,0.120
5373,-0.160,0.110
5374,-0.165,0.110
5375,-0.150,0.120
5376,-0.135,0.110
5377,-0.155,0.110
5378,-0.160,0.110
5379,-0.180,0.120
5380,-0.175,0.110
5381,-0.165,0.110
5382,-0.165,0.110
5383,-0.165,0.115
5384,-0.180,0.110
5385,-0.185,0.110
5386,-0.185,0.120
5387,-0.175,0.115
5388,-0.180,0.115
5389,-0.170,0.115
5390,-0.175,0.120
5391,-0.180,0.115
5392,-0.175,0.105
5393,-0.160,0.120
5394,-0.185,0.110
5395,-0.170,0.105
5396,-0.165,0.110
5397,-0.140,0.115
5398,-0.140,0.130
5399,-0.145,0.150
5400,-0.135,0.135
5401,-0.145,0.120
5402,-0.155,0.115
5403,-0.160,0.115
5404,-0.150,0.100
5405,-0.150,0.105
5406,-0.145,0.100
5407,-0.150,0.090
5408,-0.155,0.100
5409,-0.145,0.105
5410,-0.140,0.115
5411,-0.165,0.125
5412,-0.155,0.115
5413,-0.175,0.120
5414,-0.170,0.125
5415,-0.160,0.120
5416,-0.140,0.130
5417,-0.145,0.120
5418,-0.155,0.130
5419,-0.190,0.130
5420,-0.075,0.135
5421,0.290,0.145
5422,0.700,0.115
5423,0.915,0.065
5424,0.550,-0.045
5425,-0.210,-0.125
5426,-0.535,-0.145
5427,-0.455,-0.035
5428,-0.265,0.075
5429,-0.190,0.160
5430,-0.185,0.190
5431,-0.195,0.180
5432,-0.185,0.160
5433,-0.185,0.165
5434,-0.180,0.165
5435,-0.180,0.155
5436,-0.180,0.140
5437,-0.180,0.150
5438,-0.195,0.140
5439,-0.195,0.140
5440,-0.200,0.140
5441,-0.190,0.140
5442,-0.210,0.135
5443,-0.205,0.145
5444,-0.205,0.145
5445,-0.185,0.155
5446,-0.180,0.150
5447,-0.175,0.160
5448,-0.190,0.160
5449,-0.175,0.155
5450,-0.175,0.160
5451,-0.165,0.165
5452,-0.165,0.160
5453,-0.160,0.165
5454,-0.155,0.165
5455,-0.165,0.150
5456,-0.160,0.165
5457,-0.155,0.165
5458,-0.145,0.160
5459,-0.130,0.145
5460,-0.115,0.145
5461,-0.115,0.130
5462,-0.090,0.135
5463,-0.070,0.140
5464,-0.040,0.130
5465,-0.055,0.125
5466,-0.065,0.120
5467,-0.090,0.115
5468,-0.095,0.120
5469,-0.095,0.120
5470,-0.100,0.115
5471,-0.110,0.115
5472,-0.125,0.115
5473,-0.120,0.115
5474,-0.135,0.115
5475,-0.115,0.110
5476,-0.125,0.120
5477,-0.130,0.105
5478,-0.125,0.105
5479,-0.115,0.105
5480,-0.105,0.105
5481,-0.110,0.115
5482,-0.110,0.105
5483,-0.120,0.110
5484,-0.120,0.120
5485,-0.105,0.120
5486,-0.110,0.125
5487,-0.090,0.110
5488,-0.095,0.120
5489,-0.100,0.115
5490,-0.115,0.115
5491,-0.115,0.125
5492,-0.115,0.105
5493,-0.110,0.100
5494,-0.130,0.110
5495,-0.140,0.115
5496,-0.155,0.110
5497,-0.150,0.120
5498,-0.135,0.120
5499,-0.135,0.125
5500,-0.145,0.120
5501,-0.160,0.120
5502,-0.170,0.125
5503,-0.165,0.125
5504,-0.160,0.115
5505,-0.165,0.115
5506,-0.145,0.115
5507,-0.170,0.115
5508,-0.170,0.120
5509,-0.175,0.110
5510,-0.155,0.120
5511,-0.155,0.115
5512,-0.165,0.120
5513,-0.160,0.110
5514,-0.175,0.120
5515,-0.155,0.125
5516,-0.160,0.115
5517,-0.150,0.115
5518,-0.160,0.120
5519,-0.170,0.120
5520,-0.170,0.130
5521,-0.175,0.125
5522,-0.150,0.120
5523,-0.140,0.120
5524,-0.135,0.125
5525,-0.140,0.145
5526,-0.125,0.150
5527,-0.120,0.150
5528,-0.125,0.130
5529,-0.140,0.130
5530,-0.150,0.115
5531,-0.145,0.100
5532,-0.145,0.105
5533,-0.140,0.115
5534,-0.135,0.105
5535,-0.125,0.095
5536,-0.115,0.115
5537,-0.145,0.130
5538,-0.160,0.130
5539,-0.160,0.115
5540,-0.140,0.125
5541,-0.145,0.135
5542,-0.145,0.140
5543,-0.155,0.125
5544,-0.145,0.130
5545,-0.135,0.135
5546,-0.180,0.125
5547,-0.100,0.140
5548,0.210,0.165
5549,0.600,0.145
5550,0.905,0.095
5551,0.805,0.005
5552,0.140,-0.095
5553,-0.415,-0.155
5554,-0.495,-0.085
5555,-0.345,0.030
5556,-0.220,0.130
5557,-0.160,0.190
5558,-0.160,0.190
5559,-0.160,0.180
5560,-0.175,0.175
5561,-0.165,0.165
5562,-0.175,0.165
5563,-0.175,0.155
5564,-0.150,0.155
5565,-0.165,0.150
5566,-0.180,0.150
5567,-0.185,0.145
5568,-0.175,0.130
5569,-0.170,0.150
5570,-0.165,0.145
5571,-0.170,0.140
5572,-0.185,0.155
5573,-0.190,0.150
5574,-0.185,0.150
5575,-0.175,0.155
5576,-0.180,0.165
5577,-0.170,0.160
5578,-0.175,0.175
5579,-0.185,0.165
5580,-0.160,0.170
5581,-0.155,0.165
5582,-0.160,0.165
5583,-0.135,0.160
5584,-0.140,0.150
5585,-0.130,0.145
5586,-0.115,0.155
5587,-0.110,0.145
5588,-0.090,0.140
5589,-0.080,0.125
5590,-0.070,0.130
5591,-0.060,0.130
5592,-0.060,0.120
5593,-0.045,0.135
5594,-0.050,0.125
5595,-0.065,0.120
5596,-0.080,0.115
5597,-0.090,0.120
5598,-0.085,0.105
5599,-0.085,0.110
5600,-0.095,0.105
5601,-0.095,0.115
5602,-0.105,0.115
5603,-0.100,0.110
5604,-0.100,0.115
5605,-0.095,0.100
5606,-0.090,0.100
5607,-0.090,0.095
5608,-0.100,0.105
5609,-0.115,0.105
5610,-0.090,0.115
5611,-0.095,0.115
5612,-0.090,0.115
5613,-0.100,0.110
5614,-0.095,0.115
5615,-0.090,0.100
5616,-0.070,0.095
5617,-0.070,0.105
5618,-0.070,0.100
5619,-0.095,0.100
5620,-0.095,0.095
5621,-0.100,0.090
5622,-0.100,0.095
5623,-0.105,0.105
5624,-0.095,0.105
5625,-0.115,0.115
5626,-0.110,0.110
5627,-0.130,0.090
5628,-0.105,0.095
5629,-0.120,0.085
5630,-0.120,0.100
5631,-0.120,0.095
5632,-0.130,0.100
5633,-0.135,0.105
5634,-0.125,0.100
5635,-0.125,0.095
5636,-0.130,0.095
5637,-0.125,0.085
5638,-0.145,0.105
5639,-0.130,0.095
5640,-0.150,0.105
5641,-0.140,0.100
5642,-0.135,0.090
5643,-0.150,0.090
5644,-0.155,0.095
5645,-0.155,0.090
5646,-0.155,0.110
5647,-0.135,0.095
5648,-0.140,0.105
5649,-0.145,0.100
5650,-0.145,0.105
5651,-0.140,0.105
5652,-0.100,0.100
5653,-0.105,0.095
5654,-0.095,0.110
5655,-0.110,0.125
5656,-0.105,0.110
5657,-0.110,0.110
5658,-0.110,0.100
5659,-0.115,0.085
5660,-0.120,0.080
5661,-0.130,0.085
5662,-0.120,0.085
5663,-0.125,0.070
5664,-0.110,0.085
5665,-0.115,0.090
5666,-0.120,0.105
5667,-0.150,0.125
5668,-0.155,0.120
5669,-0.155,0.120
5670,-0.125,0.115
5671,-0.130,0.105
5672,-0.140,0.110
5673,-0.130,0.125
5674,-0.150,0.120
5675,-0.170,0.130
5676,-0.020,0.140
5677,0.375,0.130
5678,0.755,0.115
5679,0.960,0.040
5680,0.525,-0.070
5681,-0.220,-0.155
5682,-0.495,-0.135
5683,-0.375,-0.035
5684,-0.220,0.075
5685,-0.170,0.155
5686,-0.150,0.170
5687,-0.150,0.165
5688,-0.140,0.155
5689,-0.140,0.160
5690,-0.155,0.155
5691,-0.160,0.135
5692,-0.165,0.140
5693,-0.145,0.135
5694,-0.155,0.135
5695,-0.150,0.140
5696,-0.180,0.155
5697,-0.170,0.140
5698,-0.170,0.135
5699,-0.165,0.130
5700,-0.160,0.135
5701,-0.130,0.135
5702,-0.180,0.160
5703,-0.180,0.150
5704,-0.170,0.130
5705,-0.165,0.155
5706,-0.155,0.165
5707,-0.155,0.165
5708,-0.150,0.175
5709,-0.155,0.160
5710,-0.140,0.165
5711,-0.140,0.145
5712,-0.120,0.160
5713,-0.125,0.150
5714,-0.100,0.150
5715,-0.100,0.150
5716,-0.085,0.125
5717,-0.065,0.130
5718,-0.055,0.135
5719,-0.060,0.135
5720,-0.045,0.130
5721,-0.045,0.140
5722,-0.055,0.135
5723,-0.065,0.125
5724,-0.055,0.115
5725,-0.080,0.120
5726,-0.080,0.105
5727,-0.095,0.120
5728,-0.090,0.120
5729,-0.085,0.125
5730,-0.095,0.105
5731,-0.115,0.115
5732,-0.110,0.110
5733,-0.100,0.105
5734,-0.090,0.125
5735,-0.090,0.095
5736,-0.105,0.100
5737,-0.105,0.100
5738,-0.105,0.120
5739,-0.110,0.095
5740,-0.075,0.085
5741,-0.080,0.090
5742,-0.095,0.110
5743,-0.090,0.095
5744,-0.100,0.090
5745,-0.085,0.090
5746,-0.085,0.095
5747,-0.080,0.085
5748,-0.105,0.095
5749,-0.110,0.095
5750,-0.120,0.100
5751,-0.115,0.090
5752,-0.115,0.090
5753,-0.115,0.090
5754,-0.130,0.085
5755,-0.130,0.085
5756,-0.140,0.090
5757,-0.140,0.090
5758,-0.140,0.080
5759,-0.140,0.090
5760,-0.150,0.095
5761,-0.135,0.095
5762,-0.150,0.085
5763,-0.150,0.095
5764,-0.140,0.090
5765,-0.140,0.095
5766,-0.170,0.090
5767,-0.160,0.085
5768,-0.165,0.085
5769,-0.170,0.090
5770,-0.165,0.085
5771,-0.175,0.090
5772,-0.175,0.100
5773,-0.160,0.090
5774,-0.165,0.100
5775,-0.160,0.100
5776,-0.150,0.090
5777,-0.150,0.100
5778,-0.135,0.095
5779,-0.135,0.100
5780,-0.125,0.110
5781,-0.125,0.125
5782,-0.105,0.130
5783,-0.120,0.115
5784,-0.150,0.095
5785,-0.150,0.075
5786,-0.145,0.075
5787,-0.125,0.075
5788,-0.125,0.065
5789,-0.145,0.080
5790,-0.140,0.080
5791,-0.130,0.080
5792,-0.145,0.095
5793,-0.155,0.110
5794,-0.160,0.110
5795,-0.175,0.105
5796,-0.175,0.095
5797,-0.155,0.110
5798,-0.155,0.095
5799,-0.145,0.100
5800,-0.160,0.080
5801,-0.200,0.095
5802,-0.075,0.115
5803,0.295,0.120
5804,0.675,0.095
5805,0.840,0.035
5806,0.435,-0.050
5807,-0.280,-0.145
5808,-0.540,-0.140
5809,-0.445,-0.040
5810,-0.265,0.065
5811,-0.190,0.140
5812,-0.170,0.155
5813,-0.190,0.160
5814,-0.180,0.140
5815,-0.185,0.130
5816,-0.175,0.130
5817,-0.170,0.130
5818,-0.160,0.120
5819,-0.195,0.125
5820,-0.180,0.110
5821,-0.185,0.130
5822,-0.170,0.120
5823,-0.185,0.130
5824,-0.195,0.125
5825,-0.195,0.110
5826,-0.180,0.130
5827,-0.185,0.130
5828,-0.185,0.130
5829,-0.180,0.125
5830,-0.175,0.150
5831,-0.175,0.140
5832,-0.185,0.145
5833,-0.170,0.135
5834,-0.155,0.130
5835,-0.155,0.135
5836,-0.155,0.130
5837,-0.155,0.130
5838,-0.160,0.115
5839,-0.145,0.115
5840,-0.140,0.125
5841,-0.105,0.110
5842,-0.115,0.120
5843,-0.095,0.110
5844,-0.080,0.110
5845,-0.070,0.115
5846,-0.055,0.110
5847,-0.055,0.100
5848,-0.080,0.100
5849,-0.100,0.100
5850,-0.100,0.080
5851,-0.105,0.095
5852,-0.100,0.090
5853,-0.115,0.110
5854,-0.125,0.090
5855,-0.130,0.085
5856,-0.120,0.085
5857,-0.120,0.095
5858,-0.120,0.085
5859,-0.125,0.090
5860,-0.140,0.090
5861,-0.130,0.090
5862,-0.125,0.075
5863,-0.115,0.090
5864,-0.115,0.090
5865,-0.120,0.070
5866,-0.110,0.080
5867,-0.110,0.085
5868,-0.105,0.085
5869,-0.085,0.085
5870,-0.095,0.080
5871,-0.090,0.095
5872,-0.100,0.100
5873,-0.095,0.095
5874,-0.120,0.085
5875,-0.100,0.085
5876,-0.115,0.095
5877,-0.120,0.095
5878,-0.145,0.090
5879,-0.135,0.090
5880,-0.145,0.085
5881,-0.135,0.100
5882,-0.150,0.100
5883,-0.150,0.100
5884,-0.160,0.095
5885,-0.160,0.100
5886,-0.150,0.080
5887,-0.155,0.095
5888,-0.155,0.075
5889,-0.165,0.090
5890,-0.175,0.085
5891,-0.165,0.085
5892,-0.170,0.080
5893,-0.165,0.085
5894,-0.160,0.080
5895,-0.180,0.095
5896,-0.185,0.075
5897,-0.185,0.085
5898,-0.170,0.080
5899,-0.170,0.085
5900,-0.180,0.090
5901,-0.190,0.115
5902,-0.195,0.100
5903,-0.190,0.095
5904,-0.180,0.100
5905,-0.180,0.115
5906,-0.175,0.105
5907,-0.150,0.100
5908,-0.165,0.115
5909,-0.150,0.120
5910,-0.160,0.130
5911,-0.155,0.115
5912,-0.175,0.090
5913,-0.175,0.090
5914,-0.155,0.080
5915,-0.180,0.075
5916,-0.160,0.075
5917,-0.155,0.075
5918,-0.160,0.090
5919,-0.170,0.090
5920,-0.175,0.105
5921,-0.185,0.115
5922,-0.195,0.115
5923,-0.190,0.095
5924,-0.195,0.090
5925,-0.180,0.105
5926,-0.185,0.110
5927,-0.170,0.105
5928,-0.170,0.105
5929,-0.215,0.115
5930,-0.085,0.130
5931,0.290,0.145
5932,0.700,0.095
5933,0.970,0.045
5934,0.700,-0.050
5935,-0.050,-0.155
5936,-0.505,-0.180
5937,-0.515,-0.080
5938,-0.330,0.045
5939,-0.225,0.140
5940,-0.200,0.185
5941,-0.200,0.170
5942,-0.215,0.160
5943,-0.220,0.155
5944,-0.220,0.140
5945,-0.190,0.135
5946,-0.195,0.140
5947,-0.195,0.140
5948,-0.210,0.135
5949,-0.220,0.155
5950,-0.215,0.145
5951,-0.210,0.140
5952,-0.200,0.140
5953,-0.215,0.135
5954,-0.220,0.135
5955,-0.225,0.130
5956,-0.215,0.140
5957,-0.215,0.135
5958,-0.205,0.145
5959,-0.200,0.150
5960,-0.200,0.150
5961,-0.205,0.140
5962,-0.190,0.140
5963,-0.170,0.145
5964,-0.175,0.150
5965,-0.165,0.150
5966,-0.180,0.145
5967,-0.170,0.130
5968,-0.155,0.135
5969,-0.145,0.130
5970,-0.115,0.140
5971,-0.110,0.130
5972,-0.085,0.130
5973,-0.100,0.120
5974,-0.080,0.125
5975,-0.065,0.120
5976,-0.075,0.120
5977,-0.100,0.110
5978,-0.100,0.105
5979,-0.115,0.115
5980,-0.105,0.115
5981,-0.115,0.110
5982,-0.125,0.105
5983,-0.135,0.105
5984,-0.135,0.110
5985,-0.130,0.115
5986,-0.125,0.100
5987,-0.120,0.115
5988,-0.140,0.115
5989,-0.140,0.115
5990,-0.140,0.105
5991,-0.125,0.115
5992,-0.125,0.110
5993,-0.120,0.115
5994,-0.130,0.090
5995,-0.125,0.090
5996,-0.130,0.100
5997,-0.120,0.090
5998,-0.110,0.095
5999,-0.100,0.095
6000,-0.115,0.110
6001,-0.120,0.100
6002,-0.125,0.110
6003,-0.125,0.105
6004,-0.130,0.105
6005,-0.130,0.100
6006,-0.135,0.095
6007,-0.155,0.105
6008,-0.160,0.105
6009,-0.165,0.110
6010,-0.170,0.095
6011,-0.175,0.105
6012,-0.175,0.105
6013,-0.175,0.090
6014,-0.180,0.095
6015,-0.175,0.100
6016,-0.175,0.100
6017,-0.180,0.090
6018,-0.180,0.085
6019,-0.180,0.095
6020,-0.175,0.085
6021,-0.170,0.100
6022,-0.180,0.105
6023,-0.190,0.100
6024,-0.190,0.085
6025,-0.190,0.090
6026,-0.190,0.090
6027,-0.200,0.095
6028,-0.190,0.100
6029,-0.200,0.095
6030,-0.205,0.105
6031,-0.200,0.095
6032,-0.195,0.100
6033,-0.185,0.110
6034,-0.180,0.115
6035,-0.165,0.105
6036,-0.170,0.125
6037,-0.165,0.130
6038,-0.155,0.140
6039,-0.155,0.115
6040,-0.165,0.105
6041,-0.170,0.085
6042,-0.195,0.085
6043,-0.185,0.090
6044,-0.185,0.080
6045,-0.175,0.085
6046,-0.160,0.085
6047,-0.165,0.095
6048,-0.190,0.110
6049,-0.200,0.120
6050,-0.210,0.120
6051,-0.205,0.110
6052,-0.195,0.115
6053,-0.200,0.110
6054,-0.190,0.105
6055,-0.185,0.120
6056,-0.190,0.120
6057,-0.215,0.125
6058,-0.160,0.120
6059,0.160,0.130
6060,0.575,0.115
6061,0.865,0.080
6062,0.730,-0.015
6063,0.005,-0.110
6064,-0.510,-0.160
6065,-0.535,-0.090
6066,-0.370,0.020
6067,-0.250,0.125
6068,-0.210,0.160
6069,-0.215,0.180
6070,-0.205,0.165
6071,-0.200,0.145
6072,-0.215,0.155
6073,-0.220,0.150
6074,-0.210,0.150
6075,-0.205,0.140
6076,-0.210,0.140
6077,-0.200,0.140
6078,-0.225,0.145
6079,-0.220,0.135
6080,-0.225,0.150
6081,-0.215,0.150
6082,-0.215,0.135
6083,-0.220,0.155
6084,-0.220,0.150
6085,-0.225,0.150
6086,-0.210,0.145
6087,-0.215,0.160
6088,-0.205,0.155
6089,-0.195,0.160
6090,-0.200,0.150
6091,-0.210,0.170
6092,-0.200,0.175
6093,-0.190,0.165
6094,-0.185,0.165
6095,-0.195,0.150
6096,-0.190,0.145
6097,-0.175,0.145
6098,-0.165,0.145
6099,-0.120,0.145
6100,-0.115,0.140
6101,-0.095,0.135
6102,-0.100,0.130
6103,-0.110,0.125
6104,-0.095,0.125
6105,-0.100,0.125
6106,-0.100,0.125
6107,-0.130,0.125
6108,-0.135,0.135
6109,-0.140,0.140
6110,-0.130,0.135
6111,-0.140,0.130
6112,-0.155,0.125
6113,-0.165,0.130
6114,-0.160,0.125
6115,-0.160,0.120
6116,-0.155,0.120
6117,-0.140,0.110
6118,-0.145,0.115
6119,-0.160,0.125
6120,-0.165,0.115
6121,-0.140,0.115
6122,-0.140,0.115
6123,-0.150,0.130
6124,-0.135,0.120
6125,-0.145,0.115
6126,-0.150,0.110
6127,-0.135,0.115
6128,-0.130,0.115
6129,-0.135,0.115
6130,-0.145,0.120
6131,-0.150,0.130
6132,-0.145,0.120
6133,-0.155,0.125
6134,-0.155,0.115
6135,-0.160,0.105
6136,-0.170,0.110
6137,-0.190,0.115
6138,-0.190,0.110
6139,-0.190,0.105
6140,-0.175,0.100
6141,-0.165,0.115
6142,-0.180,0.115
6143,-0.200,0.120
6144,-0.195,0.105
6145,-0.195,0.105
6146,-0.185,0.105
6147,-0.175,0.110
6148,-0.195,0.105
6149,-0.220,0.105
6150,-0.200,0.115
6151,-0.205,0.110
6152,-0.200,0.110
6153,-0.195,0.100
6154,-0.200,0.115
6155,-0.210,0.100
6156,-0.210,0.095
6157,-0.200,0.100
6158,-0.195,0.105
6159,-0.200,0.110
6160,-0.205,0.100
6161,-0.205,0.110
6162,-0.200,0.115
6163,-0.175,0.120
6164,-0.145,0.105
6165,-0.155,0.130
6166,-0.160,0.135
6167,-0.160,0.130
6168,-0.170,0.135
6169,-0.170,0.100
6170,-0.165,0.100
6171,-0.165,0.090
6172,-0.180,0.080
6173,-0.175,0.095
6174,-0.175,0.085
6175,-0.165,0.095
6176,-0.150,0.090
6177,-0.175,0.110
6178,-0.190,0.120
6179,-0.210,0.120
6180,-0.195,0.105
6181,-0.195,0.120
6182,-0.180,0.115
6183,-0.190,0.120
6184,-0.180,0.100
6185,-0.205,0.105
6186,-0.235,0.115
6187,-0.150,0.125
6188,0.225,0.145
6189,0.640,0.105
6190,0.885,0.065
6191,0.560,-0.050
6192,-0.195,-0.140
6193,-0.535,-0.170
6194,-0.465,-0.065
6195,-0.295,0.040
6196,-0.215,0.140
6197,-0.210,0.170
6198,-0.220,0.175
6199,-0.200,0.160
6200,-0.205,0.140
6201,-0.205,0.140
6202,-0.215,0.150
6203,-0.210,0.135
6204,-0.210,0.135
6205,-0.220,0.135
6206,-0.205,0.140
6207,-0.210,0.130
6208,-0.235,0.140
6209,-0.220,0.145
6210,-0.225,0.135
6211,-0.230,0.145
6212,-0.220,0.145
6213,-0.225,0.150
6214,-0.220,0.135
6215,-0.220,0.140
6216,-0.220,0.145
6217,-0.205,0.160
6218,-0.200,0.155
6219,-0.205,0.160
6220,-0.195,0.155
6221,-0.210,0.155
6222,-0.195,0.155
6223,-0.175,0.150
6224,-0.170,0.150
6225,-0.150,0.145
6226,-0.160,0.140
6227,-0.150,0.135
6228,-0.130,0.115
6229,-0.100,0.120
6230,-0.090,0.120
6231,-0.090,0.115
6232,-0.070,0.120
6233,-0.100,0.100
6234,-0.105,0.115
6235,-0.100,0.110
6236,-0.105,0.115
6237,-0.130,0.115
6238,-0.125,0.110
6239,-0.135,0.105
6240,-0.130,0.090
6241,-0.125,0.100
6242,-0.130,0.095
6243,-0.125,0.095
6244,-0.135,0.105
6245,-0.125,0.110
6246,-0.130,0.105
6247,-0.120,0.110
6248,-0.125,0.105
6249,-0.120,0.105
6250,-0.120,0.110
6251,-0.120,0.100
6252,-0.120,0.090
6253,-0.110,0.105
6254,-0.105,0.110
6255,-0.105,0.100
6256,-0.125,0.095
6257,-0.130,0.090
6258,-0.120,0.090
6259,-0.115,0.085
6260,-0.120,0.095
6261,-0.130,0.090
6262,-0.130,0.090
6263,-0.135,0.095
6264,-0.130,0.095
6265,-0.130,0.090
6266,-0.140,0.085
6267,-0.150,0.085
6268,-0.160,0.095
6269,-0.150,0.095
6270,-0.150,0.090
6271,-0.140,0.085
6272,-0.145,0.090
6273,-0.165,0.105
6274,-0.150,0.105
6275,-0.140,0.095
6276,-0.165,0.105
6277,-0.150,0.110
6278,-0.160,0.110
6279,-0.160,0.105
6280,-0.165,0.095
6281,-0.160,0.095
6282,-0.155,0.095
6283,-0.165,0.090
6284,-0.160,0.085
6285,-0.160,0.085
6286,-0.170,0.085
6287,-0.155,0.095
6288,-0.155,0.100
6289,-0.165,0.095
6290,-0.170,0.095
6291,-0.145,0.095
6292,-0.130,0.090
6293,-0.115,0.110
6294,-0.120,0.110
6295,-0.120,0.105
6296,-0.140,0.090
6297,-0.155,0.080
6298,-0.150,0.070
6299,-0.145,0.065
6300,-0.140,0.070
6301,-0.140,0.080
6302,-0.145,0.085
6303,-0.145,0.080
6304,-0.145,0.075
6305,-0.155,0.095
6306,-0.160,0.100
6307,-0.165,0.100
6308,-0.165,0.095
6309,-0.170,0.095
6310,-0.150,0.100
6311,-0.140,0.110
6312,-0.150,0.105
6313,-0.180,0.100
6314,-0.200,0.115
6315,0.055,0.145
6316,0.500,0.120
6317,0.855,0.090
6318,0.850,0.000
6319,0.215,-0.110
6320,-0.425,-0.190
6321,-0.530,-0.110
6322,-0.355,0.000
6323,-0.220,0.115
6324,-0.190,0.155
6325,-0.185,0.170
6326,-0.190,0.165
6327,-0.175,0.145
6328,-0.170,0.145
6329,-0.170,0.145
6330,-0.180,0.140
6331,-0.175,0.145
6332,-0.180,0.135
6333,-0.185,0.135
6334,-0.190,0.130
6335,-0.180,0.140
6336,-0.195,0.150
6337,-0.190,0.140
6338,-0.200,0.135
6339,-0.195,0.140
6340,-0.195,0.135
6341,-0.175,0.135
6342,-0.185,0.140
6343,-0.185,0.160
6344,-0.185,0.135
6345,-0.185,0.140
6346,-0.165,0.140
6347,-0.155,0.150
6348,-0.160,0.160
6349,-0.165,0.150
6350,-0.165,0.145
6351,-0.150,0.145
6352,-0.140,0.140
6353,-0.110,0.120
6354,-0.115,0.130
6355,-0.100,0.125
6356,-0.075,0.115
6357,-0.070,0.105
6358,-0.055,0.125
6359,-0.050,0.110
6360,-0.065,0.115
6361,-0.050,0.115
6362,-0.075,0.110
6363,-0.070,0.115
6364,-0.085,0.120
6365,-0.090,0.115
6366,-0.105,0.105
6367,-0.105,0.110
6368,-0.105,0.110
6369,-0.100,0.110
6370,-0.105,0.110
6371,-0.105,0.115
6372,-0.110,0.105
6373,-0.110,0.115
6374,-0.105,0.110
6375,-0.095,0.110
6376,-0.100,0.110
6377,-0.100,0.120
6378,-0.110,0.110
6379,-0.095,0.105
6380,-0.095,0.120
6381,-0.085,0.105
6382,-0.075,0.105
6383,-0.095,0.105
6384,-0.090,0.105
6385,-0.100,0.100
6386,-0.095,0.095
6387,-0.095,0.100
6388,-0.115,0.105
6389,-0.115,0.105
6390,-0.125,0.100
6391,-0.130,0.105
6392,-0.115,0.105
6393,-0.125,0.110
6394,-0.135,0.120
6395,-0.145,0.095
6396,-0.150,0.105
6397,-0.145,0.105
6398,-0.150,0.095
6399,-0.145,0.095
6400,-0.135,0.105
6401,-0.145,0.080
6402,-0.130,0.095
6403,-0.155,0.095
6404,-0.150,0.095
6405,-0.150,0.110
6406,-0.150,0.105
6407,-0.150,0.115
6408,-0.160,0.110
6409,-0.145,0.095
6410,-0.140,0.110
6411,-0.145,0.110
6412,-0.165,0.120
6413,-0.160,0.105
6414,-0.160,0.115
6415,-0.150,0.115
6416,-0.135,0.105
6417,-0.125,0.120
6418,-0.125,0.115
6419,-0.105,0.130
6420,-0.125,0.135
6421,-0.110,0.125
6422,-0.125,0.115
6423,-0.150,0.110
6424,-0.170,0.085
6425,-0.155,0.085
6426,-0.135,0.085
6427,-0.135,0.085
6428,-0.120,0.085
6429,-0.125,0.100
6430,-0.125,0.100
6431,-0.155,0.105
6432,-0.150,0.110
6433,-0.150,0.110
6434,-0.160,0.105
6435,-0.150,0.105
6436,-0.145,0.105
6437,-0.160,0.115
6438,-0.150,0.105
6439,-0.170,0.100
6440,-0.170,0.105
6441,-0.025,0.135
6442,0.355,0.120
6443,0.710,0.095
6444,0.850,0.030
6445,0.440,-0.055
6446,-0.260,-0.125
6447,-0.530,-0.165
6448,-0.440,-0.040
6449,-0.270,0.065
6450,-0.170,0.125
6451,-0.150,0.155
6452,-0.155,0.160
6453,-0.150,0.145
6454,-0.160,0.140
6455,-0.160,0.135
6456,-0.145,0.135
6457,-0.150,0.135
6458,-0.155,0.135
6459,-0.170,0.135
6460,-0.155,0.130
6461,-0.170,0.130
6462,-0.170,0.130
6463,-0.145,0.140
6464,-0.160,0.150
6465,-0.175,0.135
6466,-0.165,0.145
6467,-0.175,0.140
6468,-0.150,0.120
6469,-0.140,0.130
6470,-0.145,0.140
6471,-0.170,0.150
6472,-0.160,0.140
6473,-0.140,0.140
6474,-0.130,0.145
6475,-0.140,0.145
6476,-0.135,0.135
6477,-0.135,0.135
6478,-0.135,0.135
6479,-0.105,0.135
6480,-0.085,0.130
6481,-0.070,0.135
6482,-0.070,0.135
6483,-0.055,0.120
6484,-0.050,0.125
6485,-0.040,0.125
6486,-0.025,0.120
6487,-0.040,0.120
6488,-0.045,0.110
6489,-0.065,0.095
6490,-0.075,0.120
6491,-0.075,0.095
6492,-0.075,0.110
6493,-0.090,0.105
6494,-0.090,0.095
6495,-0.095,0.100
6496,-0.105,0.105
6497,-0.090,0.100
6498,-0.085,0.100
6499,-0.085,0.120
6500,-0.100,0.100
6501,-0.090,0.105
6502,-0.090,0.100
6503,-0.075,0.100
6504,-0.065,0.095
6505,-0.065,0.100
6506,-0.070,0.095
6507,-0.065,0.110
6508,-0.060,0.105
6509,-0.050,0.090
6510,-0.045,0.090
6511,-0.040,0.105
6512,-0.065,0.095
6513,-0.075,0.085
6514,-0.080,0.085
6515,-0.085,0.090
6516,-0.075,0.085
6517,-0.090,0.090
6518,-0.100,0.085
6519,-0.110,0.090
6520,-0.110,0.085
6521,-0.100,0.080
6522,-0.090,0.085
6523,-0.110,0.095
6524,-0.130,0.075
6525,-0.115,0.075
6526,-0.125,0.080
6527,-0.125,0.085
6528,-0.125,0.085
6529,-0.120,0.075
6530,-0.120,0.090
6531,-0.140,0.100
6532,-0.135,0.100
6533,-0.125,0.080
6534,-0.115,0.080
6535,-0.130,0.085
6536,-0.130,0.080
6537,-0.140,0.085
6538,-0.130,0.080
6539,-0.130,0.085
6540,-0.125,0.090
6541,-0.130,0.075
6542,-0.125,0.085
6543,-0.150,0.095
6544,-0.150,0.095
6545,-0.120,0.095
6546,-0.100,0.105
6547,-0.105,0.100
6548,-0.110,0.110
6549,-0.110,0.115
6550,-0.090,0.110
6551,-0.110,0.095
6552,-0.115,0.095
6553,-0.110,0.085
6554,-0.115,0.075
6555,-0.130,0.075
6556,-0.120,0.080
6557,-0.110,0.075
6558,-0.100,0.075
6559,-0.115,0.100
6560,-0.135,0.105
6561,-0.150,0.110
6562,-0.145,0.095
6563,-0.130,0.095
6564,-0.135,0.085
6565,-0.135,0.095
6566,-0.140,0.095
6567,-0.125,0.095
6568,-0.155,0.100
6569,-0.160,0.095
6570,0.040,0.130
6571,0.450,0.105
6572,0.830,0.090
6573,0.890,0.000
6574,0.290,-0.095
6575,-0.350,-0.175
6576,-0.485,-0.140
6577,-0.330,-0.010
6578,-0.180,0.085
6579,-0.165,0.155
6580,-0.155,0.155
6581,-0.150,0.150
6582,-0.150,0.145
6583,-0.150,0.140
6584,-0.150,0.135
6585,-0.150,0.140
6586,-0.140,0.140
6587,-0.140,0.140
6588,-0.150,0.140
6589,-0.170,0.130
6590,-0.150,0.125
6591,-0.160,0.135
6592,-0.140,0.150
6593,-0.155,0.150
6594,-0.140,0.140
6595,-0.130,0.145
6596,-0.160,0.140
6597,-0.145,0.145
6598,-0.145,0.145
6599,-0.130,0.150
6600,-0.130,0.150
6601,-0.130,0.145
6602,-0.120,0.150
6603,-0.110,0.145
6604,-0.110,0.150
6605,-0.110,0.145
6606,-0.110,0.145
6607,-0.090,0.135
6608,-0.075,0.150
6609,-0.050,0.135
6610,-0.040,0.140
6611,-0.035,0.135
6612,-0.035,0.125
6613,-0.025,0.130
6614,0.000,0.120
6615,0.000,0.120
6616,-0.020,0.140
6617,-0.040,0.125
6618,-0.040,0.115
6619,-0.035,0.110
6620,-0.050,0.125
6621,-0.055,0.105
6622,-0.055,0.100
6623,-0.070,0.100
6624,-0.065,0.100
6625,-0.060,0.100
6626,-0.060,0.110
6627,-0.060,0.105
6628,-0.055,0.100
6629,-0.060,0.105
6630,-0.050,0.100
6631,-0.050,0.090
6632,-0.055,0.110
6633,-0.065,0.105
6634,-0.040,0.095
6635,-0.045,0.090
6636,-0.060,0.105
6637,-0.040,0.100
6638,-0.030,0.100
6639,-0.040,0.110
6640,-0.060,0.100
6641,-0.070,0.105
6642,-0.070,0.095
6643,-0.070,0.100
6644,-0.065,0.105
6645,-0.055,0.105
6646,-0.075,0.115
6647,-0.085,0.100
6648,-0.095,0.105
6649,-0.100,0.100
6650,-0.090,0.100
6651,-0.080,0.110
6652,-0.095,0.110
6653,-0.100,0.095
6654,-0.110,0.090
6655,-0.100,0.090
6656,-0.100,0.090
6657,-0.105,0.095
6658,-0.105,0.110
6659,-0.105,0.075
6660,-0.120,0.095
6661,-0.095,0.095
6662,-0.115,0.095
6663,-0.110,0.095
6664,-0.115,0.085
6665,-0.130,0.085
6666,-0.115,0.090
6667,-0.120,0.080
6668,-0.120,0.095
6669,-0.115,0.075
6670,-0.120,0.070
6671,-0.115,0.090
6672,-0.110,0.090
6673,-0.085,0.105
6674,-0.075,0.110
6675,-0.090,0.120
6676,-0.105,0.115
6677,-0.095,0.100
6678,-0.105,0.115
