'sample interval','ECG0','ECG1'
'0.0078125 sec','mV','mV'
0,-0.100,0.060
1,-0.105,0.080
2,-0.120,0.080
3,-0.085,0.065
4,-0.085,0.095
5,-0.090,0.100
6,-0.065,0.120
7,-0.055,0.125
8,-0.040,0.120
9,-0.050,0.130
10,-0.055,0.135
11,-0.060,0.155
12,-0.045,0.175
13,-0.030,0.165
14,-0.005,0.175
15,0.025,0.170
16,0.040,0.175
17,0.065,0.160
18,0.110,0.130
19,0.125,0.130
20,0.145,0.090
21,0.155,0.050
22,0.200,0.035
23,0.215,-0.010
24,0.235,-0.020
25,0.270,-0.035
26,0.295,-0.055
27,0.290,-0.060
28,0.310,-0.065
29,0.320,-0.075
30,0.325,-0.095
31,0.340,-0.080
32,0.340,-0.065
33,0.330,-0.075
34,0.350,-0.080
35,0.335,-0.080
36,0.340,-0.080
37,0.365,-0.075
38,0.365,-0.060
39,0.410,-0.030
40,0.490,-0.010
41,0.540,-0.020
42,0.585,-0.010
43,0.605,-0.010
44,0.530,-0.095
45,0.435,-0.125
46,0.320,-0.120
47,0.215,-0.090
48,0.155,-0.060
49,0.155,-0.060
50,0.145,-0.075
51,0.150,-0.080
52,0.130,-0.090
53,0.110,-0.070
54,0.095,-0.090
55,0.095,-0.070
56,0.080,-0.095
57,0.090,-0.100
58,0.085,-0.100
59,0.075,-0.100
60,0.040,-0.110
61,0.045,-0.115
62,0.075,-0.110
63,0.170,-0.130
64,0.340,-0.150
65,0.435,-0.290
66,0.520,-0.425
67,0.520,-0.690
68,0.715,-1.140
69,1.315,-1.760
70,1.470,-2.090
71,0.555,-1.475
72,-0.070,-0.640
73,-0.190,-0.250
74,-0.215,-0.025
75,-0.255,0.070
76,-0.270,0.085
77,-0.270,0.090
78,-0.285,0.105
79,-0.310,0.105
80,-0.315,0.095
81,-0.320,0.110
82,-0.320,0.110
83,-0.350,0.130
84,-0.345,0.115
85,-0.355,0.100
86,-0.355,0.100
87,-0.365,0.135
88,-0.375,0.175
89,-0.375,0.170
90,-0.375,0.175
91,-0.360,0.195
92,-0.365,0.170
93,-0.340,0.165
94,-0.310,0.170
95,-0.310,0.145
96,-0.290,0.120
97,-0.265,0.090
98,-0.245,0.065
99,-0.225,0.045
100,-0.195,0.000
101,-0.170,-0.010
102,-0.135,-0.025
103,-0.110,-0.050
104,-0.090,-0.060
105,-0.065,-0.075
106,-0.070,-0.085
107,-0.055,-0.075
108,-0.040,-0.075
109,-0.045,-0.075
110,-0.035,-0.090
111,-0.035,-0.065
112,-0.015,-0.060
113,0.000,-0.070
114,0.015,-0.035
115,0.065,-0.015
116,0.130,0.025
117,0.180,0.020
118,0.230,0.015
119,0.225,0.000
120,0.195,-0.060
121,0.085,-0.120
122,-0.015,-0.080
123,-0.110,-0.060
124,-0.160,-0.030
125,-0.170,-0.025
126,-0.160,-0.050
127,-0.145,-0.050
128,-0.145,-0.070
129,-0.135,-0.065
130,-0.110,-0.065
131,-0.090,-0.080
132,-0.115,-0.060
133,-0.100,-0.080
134,-0.100,-0.090
135,-0.105,-0.085
136,-0.100,-0.090
137,-0.095,-0.060
138,-0.075,-0.075
139,0.020,-0.085
140,0.160,-0.105
141,0.260,-0.190
142,0.350,-0.350
143,0.380,-0.595
144,0.495,-1.045
145,1.060,-1.625
146,1.490,-2.070
147,0.790,-1.660
148,-0.025,-0.640
149,-0.220,-0.215
150,-0.230,0.005
151,-0.270,0.135
152,-0.285,0.165
153,-0.290,0.175
154,-0.300,0.155
155,-0.305,0.175
156,-0.295,0.175
157,-0.325,0.190
158,-0.320,0.185
159,-0.320,0.180
160,-0.340,0.210
161,-0.340,0.205
162,-0.330,0.215
163,-0.340,0.230
164,-0.360,0.210
165,-0.370,0.255
166,-0.365,0.235
167,-0.350,0.250
168,-0.335,0.230
169,-0.300,0.220
170,-0.285,0.205
171,-0.295,0.190
172,-0.275,0.195
173,-0.265,0.135
174,-0.230,0.135
175,-0.215,0.095
176,-0.175,0.050
177,-0.160,0.025
178,-0.120,0.020
179,-0.110,0.000
180,-0.085,-0.015
181,-0.065,-0.025
182,-0.050,-0.025
183,-0.045,-0.040
184,-0.035,-0.020
185,-0.025,-0.030
186,-0.005,-0.025
187,0.005,-0.020
188,0.025,0.000
189,0.045,0.000
190,0.060,0.015
191,0.150,0.070
192,0.215,0.065
193,0.245,0.060
194,0.275,0.030
195,0.250,-0.010
196,0.145,-0.070
197,0.050,-0.085
198,-0.045,-0.045
199,-0.095,0.000
200,-0.145,0.005
201,-0.130,0.005
202,-0.115,-0.025
203,-0.115,-0.025
204,-0.100,-0.025
205,-0.105,-0.035
206,-0.100,-0.040
207,-0.110,-0.055
208,-0.110,-0.055
209,-0.100,-0.080
210,-0.095,-0.100
211,-0.095,-0.080
212,-0.095,-0.075
213,-0.100,-0.095
214,-0.040,-0.100
215,0.080,-0.110
216,0.230,-0.175
217,0.310,-0.300
218,0.345,-0.460
219,0.375,-0.820
220,0.765,-1.360
221,1.380,-1.950
222,1.145,-2.040
223,0.215,-1.125
224,-0.195,-0.450
225,-0.255,-0.130
226,-0.285,0.045
227,-0.315,0.135
228,-0.310,0.145
229,-0.325,0.150
230,-0.320,0.140
231,-0.330,0.175
232,-0.320,0.170
233,-0.320,0.160
234,-0.350,0.190
235,-0.345,0.185
236,-0.340,0.190
237,-0.360,0.205
238,-0.355,0.220
239,-0.360,0.210
240,-0.355,0.220
241,-0.365,0.240
242,-0.360,0.250
243,-0.345,0.260
244,-0.340,0.230
245,-0.315,0.240
246,-0.300,0.205
247,-0.295,0.210
248,-0.260,0.175
249,-0.255,0.150
250,-0.225,0.120
251,-0.210,0.080
252,-0.190,0.040
253,-0.150,0.015
254,-0.135,0.000
255,-0.095,-0.005
256,-0.090,-0.030
257,-0.075,-0.040
258,-0.055,-0.035
259,-0.055,-0.010
260,-0.045,-0.025
261,-0.040,-0.015
262,-0.010,-0.015
263,0.015,0.000
264,0.010,0.000
265,0.085,0.050
266,0.160,0.060
267,0.215,0.095
268,0.250,0.080
269,0.245,0.045
270,0.185,-0.010
271,0.080,-0.020
272,-0.010,-0.035
273,-0.090,0.010
274,-0.115,0.045
275,-0.110,0.050
276,-0.105,0.020
277,-0.085,0.000
278,-0.080,0.000
279,-0.070,0.010
280,-0.070,0.015
281,-0.085,0.015
282,-0.080,-0.005
283,-0.060,0.000
284,-0.065,-0.025
285,-0.065,-0.005
286,-0.060,-0.020
287,-0.060,-0.025
288,-0.030,-0.020
289,0.060,-0.025
290,0.215,-0.070
291,0.325,-0.185
292,0.370,-0.335
293,0.380,-0.625
294,0.565,-1.080
295,1.175,-1.720
296,1.440,-2.110
297,0.585,-1.510
298,-0.080,-0.545
299,-0.240,-0.170
300,-0.250,0.025
301,-0.270,0.145
302,-0.280,0.175
303,-0.285,0.170
304,-0.285,0.175
305,-0.295,0.180
306,-0.300,0.180
307,-0.305,0.200
308,-0.315,0.210
309,-0.315,0.205
310,-0.305,0.200
311,-0.315,0.205
312,-0.330,0.215
313,-0.320,0.245
314,-0.325,0.220
315,-0.340,0.235
316,-0.310,0.275
317,-0.310,0.270
318,-0.295,0.265
319,-0.260,0.275
320,-0.255,0.235
321,-0.225,0.215
322,-0.205,0.190
323,-0.190,0.170
324,-0.150,0.145
325,-0.125,0.090
326,-0.120,0.065
327,-0.100,0.045
328,-0.055,0.020
329,-0.040,-0.005
330,-0.020,-0.005
331,-0.005,-0.005
332,0.000,-0.020
333,0.020,-0.030
334,0.030,-0.020
335,0.010,-0.015
336,0.025,0.005
337,0.030,0.010
338,0.025,0.000
339,0.055,0.000
340,0.070,0.000
341,0.095,0.025
342,0.170,0.055
343,0.255,0.045
344,0.305,0.030
345,0.310,0.045
346,0.270,-0.020
347,0.160,-0.095
348,0.065,-0.090
349,-0.025,-0.050
350,-0.060,0.000
351,-0.050,-0.010
352,-0.035,-0.015
353,-0.025,-0.045
354,-0.015,-0.040
355,-0.005,-0.040
356,0.000,-0.040
357,0.005,-0.040
358,0.020,-0.030
359,0.020,-0.035
360,0.030,-0.045
361,0.040,-0.050
362,0.050,-0.075
363,0.045,-0.065
364,0.090,-0.060
365,0.190,-0.085
366,0.355,-0.090
367,0.480,-0.210
368,0.550,-0.370
369,0.540,-0.605
370,0.695,-1.060
371,1.265,-1.675
372,1.470,-2.080
373,0.680,-1.545
374,0.085,-0.650
375,-0.050,-0.225
376,-0.060,0.010
377,-0.125,0.140
378,-0.150,0.170
379,-0.145,0.140
380,-0.140,0.130
381,-0.130,0.150
382,-0.155,0.175
383,-0.145,0.165
384,-0.150,0.170
385,-0.175,0.175
386,-0.165,0.170
387,-0.145,0.170
388,-0.170,0.170
389,-0.175,0.190
390,-0.180,0.205
391,-0.175,0.215
392,-0.160,0.210
393,-0.145,0.225
394,-0.150,0.235
395,-0.130,0.230
396,-0.100,0.200
397,-0.090,0.210
398,-0.070,0.170
399,-0.055,0.165
400,-0.030,0.130
401,-0.005,0.105
402,0.020,0.100
403,0.060,0.065
404,0.080,0.035
405,0.130,0.020
406,0.135,0.010
407,0.160,0.000
408,0.165,0.000
409,0.180,0.000
410,0.185,-0.005
411,0.185,0.000
412,0.190,0.000
413,0.185,0.010
414,0.175,0.000
415,0.205,0.015
416,0.220,0.020
417,0.220,0.035
418,0.270,0.055
419,0.355,0.090
420,0.400,0.090
421,0.455,0.070
422,0.445,0.065
423,0.390,-0.005
424,0.290,-0.040
425,0.190,-0.050
426,0.070,-0.015
427,0.060,-0.005
428,0.060,0.000
429,0.055,-0.025
430,0.070,-0.040
431,0.070,-0.010
432,0.070,-0.030
433,0.075,-0.030
434,0.075,-0.055
435,0.070,-0.060
436,0.055,-0.045
437,0.060,-0.045
438,0.055,-0.055
439,0.045,-0.060
440,0.040,-0.055
441,0.075,-0.045
442,0.170,-0.065
443,0.330,-0.110
444,0.450,-0.215
445,0.520,-0.375
446,0.555,-0.595
447,0.645,-1.020
448,1.240,-1.620
449,1.525,-2.035
450,0.700,-1.635
451,0.005,-0.665
452,-0.140,-0.205
453,-0.185,0.010
454,-0.215,0.135
455,-0.230,0.160
456,-0.240,0.175
457,-0.255,0.160
458,-0.265,0.175
459,-0.270,0.165
460,-0.275,0.170
461,-0.285,0.165
462,-0.300,0.175
463,-0.320,0.185
464,-0.320,0.210
465,-0.340,0.190
466,-0.345,0.215
467,-0.365,0.225
468,-0.370,0.215
469,-0.355,0.220
470,-0.355,0.230
471,-0.345,0.210
472,-0.320,0.200
473,-0.310,0.180
474,-0.305,0.175
475,-0.270,0.155
476,-0.255,0.130
477,-0.235,0.105
478,-0.210,0.070
479,-0.175,0.040
480,-0.155,0.030
481,-0.130,0.000
482,-0.095,0.000
483,-0.085,-0.020
484,-0.060,-0.025
485,-0.045,-0.020
486,-0.020,-0.035
487,-0.035,-0.040
488,-0.010,-0.020
489,-0.005,-0.025
490,0.010,-0.010
491,0.040,-0.010
492,0.065,-0.005
493,0.085,0.000
494,0.155,0.020
495,0.210,0.075
496,0.265,0.040
497,0.290,0.055
498,0.265,0.000
499,0.185,-0.050
500,0.090,-0.070
501,0.005,-0.060
502,-0.085,-0.020
503,-0.115,0.000
504,-0.100,0.000
505,-0.095,0.000
506,-0.085,-0.015
507,-0.085,-0.025
508,-0.060,-0.035
509,-0.040,-0.045
510,-0.080,-0.050
511,-0.085,-0.050
512,-0.090,-0.035
513,-0.075,-0.050
514,-0.065,-0.075
515,-0.075,-0.060
516,-0.055,-0.065
517,-0.025,-0.045
518,0.080,-0.070
519,0.230,-0.120
520,0.330,-0.225
521,0.365,-0.370
522,0.370,-0.655
523,0.605,-1.120
524,1.235,-1.735
525,1.385,-2.075
526,0.535,-1.470
527,-0.075,-0.580
528,-0.215,-0.170
529,-0.230,0.040
530,-0.255,0.160
531,-0.260,0.195
532,-0.260,0.200
533,-0.265,0.205
534,-0.230,0.205
535,-0.265,0.215
536,-0.265,0.220
537,-0.260,0.230
538,-0.270,0.245
539,-0.265,0.250
540,-0.255,0.240
541,-0.280,0.260
542,-0.295,0.270
543,-0.295,0.265
544,-0.295,0.290
545,-0.285,0.265
546,-0.275,0.285
547,-0.280,0.270
548,-0.290,0.275
549,-0.265,0.265
550,-0.245,0.235
551,-0.220,0.225
552,-0.210,0.175
553,-0.190,0.155
554,-0.170,0.115
555,-0.135,0.105
556,-0.125,0.085
557,-0.100,0.045
558,-0.085,0.025
559,-0.055,0.025
560,-0.035,0.000
561,-0.030,0.005
562,-0.020,0.000
563,-0.010,0.000
564,-0.005,0.000
565,0.000,0.000
566,0.030,0.005
567,0.045,0.010
568,0.050,0.030
569,0.135,0.055
570,0.215,0.075
571,0.260,0.065
572,0.255,0.090
573,0.220,0.040
574,0.140,-0.015
575,0.045,-0.040
576,-0.060,0.015
577,-0.135,0.025
578,-0.140,0.060
579,-0.120,0.030
580,-0.105,0.020
581,-0.090,0.005
582,-0.065,-0.015
583,-0.070,-0.010
584,-0.075,-0.010
585,-0.070,-0.035
586,-0.050,-0.025
587,-0.055,-0.040
588,-0.060,-0.035
589,-0.065,-0.040
590,-0.050,-0.030
591,-0.045,-0.045
592,0.010,-0.040
593,0.115,-0.060
594,0.250,-0.125
595,0.325,-0.245
596,0.360,-0.420
597,0.375,-0.760
598,0.715,-1.270
599,1.360,-1.930
600,1.165,-2.085
601,0.225,-1.215
602,-0.195,-0.465
603,-0.260,-0.145
604,-0.275,0.045
605,-0.305,0.135
606,-0.310,0.155
607,-0.325,0.145
608,-0.330,0.150
609,-0.325,0.150
610,-0.335,0.160
611,-0.345,0.175
612,-0.345,0.195
613,-0.350,0.175
614,-0.370,0.195
615,-0.375,0.205
616,-0.385,0.215
617,-0.380,0.235
618,-0.395,0.250
619,-0.390,0.260
620,-0.370,0.245
621,-0.375,0.225
622,-0.350,0.230
623,-0.340,0.220
624,-0.305,0.195
625,-0.285,0.185
626,-0.265,0.170
627,-0.245,0.140
628,-0.210,0.095
629,-0.190,0.070
630,-0.180,0.055
631,-0.150,0.030
632,-0.120,0.015
633,-0.085,0.000
634,-0.070,-0.030
635,-0.075,0.000
636,-0.065,-0.020
637,-0.060,-0.020
638,-0.055,-0.015
639,-0.050,-0.020
640,-0.020,-0.005
641,0.000,0.000
642,0.005,0.010
643,0.025,0.030
644,0.120,0.050
645,0.160,0.060
646,0.205,0.065
647,0.215,0.060
648,0.170,-0.010
649,0.065,-0.065
650,-0.025,-0.070
651,-0.115,-0.005
652,-0.160,0.015
653,-0.150,0.005
654,-0.140,-0.010
655,-0.125,0.000
656,-0.110,-0.010
657,-0.090,-0.010
658,-0.095,-0.030
659,-0.090,-0.020
660,-0.080,-0.025
661,-0.080,-0.035
662,-0.085,-0.035
663,-0.070,-0.035
664,-0.080,-0.020
665,-0.055,-0.035
666,-0.015,-0.035
667,0.070,-0.020
668,0.250,-0.055
669,0.355,-0.140
670,0.435,-0.320
671,0.425,-0.565
672,0.560,-1.015
673,1.125,-1.620
674,1.420,-2.080
675,0.700,-1.680
676,0.015,-0.670
677,-0.160,-0.210
678,-0.180,0.035
679,-0.215,0.150
680,-0.220,0.190
681,-0.240,0.185
682,-0.235,0.185
683,-0.245,0.190
684,-0.230,0.195
685,-0.245,0.195
686,-0.255,0.200
687,-0.240,0.195
688,-0.270,0.200
689,-0.260,0.205
690,-0.255,0.215
691,-0.250,0.220
692,-0.255,0.220
693,-0.260,0.220
694,-0.270,0.210
695,-0.250,0.215
696,-0.230,0.230
697,-0.210,0.215
698,-0.195,0.190
699,-0.165,0.190
700,-0.165,0.165
701,-0.145,0.135
702,-0.140,0.105
703,-0.085,0.080
704,-0.065,0.060
705,-0.040,0.040
706,-0.010,0.000
707,0.000,-0.015
708,0.055,-0.030
709,0.080,-0.045
710,0.070,-0.030
711,0.085,-0.050
712,0.095,-0.040
713,0.110,-0.040
714,0.100,-0.035
715,0.095,-0.015
716,0.120,-0.015
717,0.125,-0.025
718,0.135,-0.030
719,0.150,-0.005
720,0.230,0.015
721,0.310,0.035
722,0.350,0.030
723,0.380,0.025
724,0.365,-0.005
725,0.275,-0.080
726,0.175,-0.105
727,0.080,-0.070
728,0.005,-0.035
729,0.015,-0.025
730,0.025,-0.045
731,0.035,-0.055
732,0.045,-0.080
733,0.060,-0.080
734,0.075,-0.100
735,0.090,-0.100
736,0.080,-0.105
737,0.080,-0.105
738,0.070,-0.115
739,0.085,-0.110
740,0.080,-0.120
741,0.085,-0.110
742,0.100,-0.105
743,0.170,-0.105
744,0.330,-0.140
745,0.465,-0.200
746,0.585,-0.335
747,0.625,-0.495
748,0.630,-0.875
749,1.040,-1.390
750,1.560,-1.975
751,1.085,-1.920
752,0.230,-0.960
753,-0.010,-0.390
754,-0.015,-0.115
755,-0.050,0.065
756,-0.070,0.110
757,-0.075,0.120
758,-0.090,0.105
759,-0.095,0.115
760,-0.105,0.120
761,-0.105,0.130
762,-0.100,0.125
763,-0.110,0.135
764,-0.110,0.145
765,-0.125,0.145
766,-0.120,0.170
767,-0.165,0.170
768,-0.180,0.200
769,-0.150,0.195
770,-0.175,0.180
771,-0.165,0.190
772,-0.160,0.195
773,-0.160,0.185
774,-0.145,0.170
775,-0.140,0.150
776,-0.145,0.140
777,-0.125,0.135
778,-0.110,0.100
779,-0.115,0.080
780,-0.105,0.035
781,-0.080,0.015
782,-0.070,-0.015
783,-0.055,-0.020
784,-0.035,-0.035
785,-0.035,-0.060
786,-0.020,-0.050
787,-0.025,-0.060
788,-0.030,-0.045
789,-0.020,-0.050
790,-0.040,-0.045
791,-0.040,-0.030
792,-0.030,-0.020
793,0.000,-0.030
794,0.000,0.000
795,0.010,-0.005
796,0.090,0.025
797,0.160,0.035
798,0.200,0.035
799,0.235,0.050
800,0.205,0.000
801,0.120,-0.060
802,0.005,-0.080
803,-0.090,-0.065
804,-0.155,-0.020
805,-0.180,0.000
806,-0.180,-0.020
807,-0.155,-0.050
808,-0.155,-0.055
809,-0.135,-0.040
810,-0.145,-0.050
811,-0.130,-0.055
812,-0.130,-0.060
813,-0.130,-0.050
814,-0.130,-0.080
815,-0.155,-0.080
816,-0.140,-0.080
817,-0.155,-0.080
818,-0.120,-0.075
819,-0.080,-0.085
820,0.040,-0.100
821,0.185,-0.160
822,0.265,-0.280
823,0.305,-0.440
824,0.340,-0.795
825,0.705,-1.305
826,1.305,-1.910
827,1.080,-1.980
828,0.100,-1.060
829,-0.305,-0.375
830,-0.320,-0.095
831,-0.365,0.065
832,-0.370,0.140
833,-0.400,0.120
834,-0.400,0.145
835,-0.390,0.145
836,-0.405,0.140
837,-0.415,0.130
838,-0.430,0.150
839,-0.425,0.160
840,-0.435,0.175
841,-0.450,0.185
842,-0.445,0.185
843,-0.445,0.185
844,-0.425,0.190
845,-0.470,0.200
846,-0.470,0.200
847,-0.465,0.210
848,-0.440,0.215
849,-0.425,0.210
850,-0.410,0.205
851,-0.390,0.200
852,-0.380,0.160
853,-0.350,0.130
854,-0.355,0.105
855,-0.330,0.060
856,-0.290,0.030
857,-0.275,0.000
858,-0.255,0.000
859,-0.215,-0.035
860,-0.205,-0.040
861,-0.200,-0.065
862,-0.190,-0.045
863,-0.185,-0.070
864,-0.180,-0.070
865,-0.175,-0.055
866,-0.160,-0.050
867,-0.145,-0.040
868,-0.110,-0.050
869,-0.105,-0.020
870,-0.095,-0.005
871,-0.015,0.025
872,0.045,0.050
873,0.110,0.010
874,0.125,0.010
875,0.100,-0.035
876,0.000,-0.080
877,-0.110,-0.105
878,-0.205,-0.075
879,-0.285,-0.020
880,-0.280,-0.025
881,-0.280,-0.050
882,-0.280,-0.065
883,-0.275,-0.060
884,-0.255,-0.065
885,-0.245,-0.065
886,-0.255,-0.060
887,-0.255,-0.075
888,-0.240,-0.070
889,-0.245,-0.090
890,-0.260,-0.085
891,-0.245,-0.080
892,-0.235,-0.085
893,-0.200,-0.100
894,-0.130,-0.095
895,-0.010,-0.090
896,0.095,-0.170
897,0.205,-0.320
898,0.205,-0.485
899,0.230,-0.840
900,0.645,-1.400
901,1.225,-2.015
902,0.915,-2.035
903,-0.010,-1.090
904,-0.340,-0.410
905,-0.380,-0.110
906,-0.415,0.060
907,-0.440,0.125
908,-0.430,0.140
909,-0.440,0.135
910,-0.450,0.155
911,-0.465,0.160
912,-0.470,0.170
913,-0.490,0.165
914,-0.495,0.190
915,-0.495,0.165
916,-0.520,0.200
917,-0.520,0.185
918,-0.515,0.200
919,-0.500,0.200
920,-0.505,0.190
921,-0.505,0.200
922,-0.500,0.220
923,-0.495,0.215
924,-0.480,0.220
925,-0.455,0.210
926,-0.440,0.195
927,-0.435,0.185
928,-0.410,0.170
929,-0.400,0.140
930,-0.360,0.090
931,-0.340,0.060
932,-0.330,0.025
933,-0.300,0.005
934,-0.255,-0.015
935,-0.210,-0.030
936,-0.210,-0.035
937,-0.180,-0.035
938,-0.175,-0.040
939,-0.175,-0.050
940,-0.175,-0.050
941,-0.170,-0.030
942,-0.150,-0.020
943,-0.105,-0.015
944,-0.100,0.005
945,-0.060,0.020
946,0.020,0.030
947,0.075,0.045
948,0.115,0.050
949,0.105,0.015
950,0.045,-0.050
951,-0.025,-0.090
952,-0.135,-0.100
953,-0.225,-0.040
954,-0.270,-0.005
955,-0.275,-0.020
956,-0.285,-0.035
957,-0.255,-0.060
958,-0.265,-0.070
959,-0.245,-0.080
960,-0.250,-0.085
961,-0.250,-0.070
962,-0.250,-0.090
963,-0.215,-0.090
964,-0.235,-0.100
965,-0.235,-0.110
966,-0.235,-0.110
967,-0.230,-0.085
968,-0.210,-0.080
969,-0.120,-0.100
970,0.025,-0.140
971,0.130,-0.220
972,0.180,-0.390
973,0.190,-0.620
974,0.320,-1.060
975,0.890,-1.665
976,1.300,-2.150
977,0.605,-1.750
978,-0.190,-0.750
979,-0.395,-0.290
980,-0.405,-0.040
981,-0.455,0.070
982,-0.455,0.085
983,-0.465,0.095
984,-0.470,0.095
985,-0.475,0.090
986,-0.475,0.115
987,-0.475,0.115
988,-0.495,0.125
989,-0.495,0.125
990,-0.505,0.120
991,-0.505,0.135
992,-0.525,0.155
993,-0.525,0.150
994,-0.540,0.155
995,-0.520,0.165
996,-0.530,0.170
997,-0.510,0.155
998,-0.500,0.160
999,-0.490,0.165
1000,-0.490,0.150
1001,-0.475,0.145
1002,-0.450,0.120
1003,-0.430,0.100
1004,-0.420,0.050
1005,-0.395,0.020
1006,-0.360,-0.025
1007,-0.345,-0.040
1008,-0.315,-0.070
1009,-0.285,-0.080
1010,-0.270,-0.090
1011,-0.260,-0.105
1012,-0.240,-0.090
1013,-0.235,-0.090
1014,-0.220,-0.090
1015,-0.235,-0.080
1016,-0.230,-0.085
1017,-0.190,-0.070
1018,-0.175,-0.100
1019,-0.155,-0.065
1020,-0.105,-0.010
1021,-0.025,0.000
1022,0.035,0.010
1023,0.065,0.000
1024,0.075,-0.020
1025,0.000,-0.095
1026,-0.095,-0.150
1027,-0.180,-0.115
1028,-0.270,-0.075
1029,-0.320,-0.040
1030,-0.305,-0.050
1031,-0.295,-0.085
1032,-0.275,-0.095
1033,-0.270,-0.115
1034,-0.270,-0.135
1035,-0.270,-0.125
1036,-0.270,-0.120
1037,-0.265,-0.110
1038,-0.280,-0.115
1039,-0.250,-0.120
1040,-0.255,-0.135
1041,-0.265,-0.140
1042,-0.240,-0.150
1043,-0.230,-0.150
1044,-0.145,-0.140
1045,0.000,-0.150
1046,0.105,-0.280
1047,0.155,-0.425
1048,0.190,-0.655
1049,0.290,-1.085
1050,0.860,-1.685
1051,1.245,-2.145
1052,0.595,-1.785
1053,-0.160,-0.790
1054,-0.380,-0.330
1055,-0.395,-0.075
1056,-0.435,0.040
1057,-0.440,0.075
1058,-0.445,0.080
1059,-0.460,0.085
1060,-0.465,0.100
1061,-0.460,0.095
1062,-0.475,0.120
1063,-0.470,0.120
1064,-0.475,0.110
1065,-0.480,0.115
1066,-0.480,0.120
1067,-0.480,0.155
1068,-0.460,0.140
1069,-0.465,0.130
1070,-0.475,0.130
1071,-0.455,0.150
1072,-0.435,0.155
1073,-0.430,0.155
1074,-0.395,0.140
1075,-0.385,0.130
1076,-0.365,0.115
1077,-0.350,0.100
1078,-0.325,0.085
1079,-0.325,0.055
1080,-0.300,0.005
1081,-0.260,-0.025
1082,-0.240,-0.045
1083,-0.215,-0.070
1084,-0.195,-0.090
1085,-0.180,-0.105
1086,-0.155,-0.105
1087,-0.140,-0.125
1088,-0.140,-0.125
1089,-0.120,-0.140
1090,-0.130,-0.140
1091,-0.110,-0.130
1092,-0.115,-0.130
1093,-0.105,-0.140
1094,-0.080,-0.115
1095,-0.065,-0.105
1096,-0.045,-0.105
1097,0.005,-0.075
1098,0.090,-0.060
1099,0.140,-0.055
1100,0.180,-0.045
1101,0.170,-0.090
1102,0.100,-0.180
1103,0.000,-0.190
1104,-0.070,-0.180
1105,-0.175,-0.155
1106,-0.205,-0.130
1107,-0.180,-0.145
1108,-0.175,-0.160
1109,-0.175,-0.170
1110,-0.140,-0.195
1111,-0.115,-0.180
1112,-0.120,-0.180
1113,-0.125,-0.190
1114,-0.120,-0.195
1115,-0.095,-0.205
1116,-0.110,-0.200
1117,-0.125,-0.195
1118,-0.125,-0.190
1119,-0.110,-0.195
1120,-0.080,-0.215
1121,0.000,-0.225
1122,0.160,-0.255
1123,0.300,-0.320
1124,0.395,-0.510
1125,0.405,-0.725
1126,0.500,-1.135
1127,1.010,-1.695
1128,1.360,-2.195
1129,0.640,-1.815
1130,-0.045,-0.840
1131,-0.220,-0.385
1132,-0.235,-0.105
1133,-0.285,-0.005
1134,-0.305,0.015
1135,-0.300,0.000
1136,-0.305,0.020
1137,-0.295,0.005
1138,-0.305,0.000
1139,-0.310,0.000
1140,-0.300,0.020
1141,-0.295,0.010
1142,-0.315,0.025
1143,-0.325,0.045
1144,-0.325,0.055
1145,-0.310,0.055
1146,-0.315,0.050
1147,-0.325,0.055
1148,-0.305,0.060
1149,-0.310,0.070
1150,-0.290,0.070
1151,-0.275,0.060
1152,-0.270,0.065
1153,-0.245,0.040
1154,-0.200,0.015
1155,-0.185,0.015
1156,-0.160,-0.015
1157,-0.140,-0.040
1158,-0.110,-0.085
1159,-0.095,-0.105
1160,-0.060,-0.125
1161,-0.050,-0.140
1162,-0.025,-0.160
1163,0.000,-0.155
1164,0.010,-0.165
1165,0.015,-0.150
1166,0.025,-0.165
1167,0.030,-0.145
1168,0.035,-0.155
1169,0.030,-0.140
1170,0.065,-0.140
1171,0.065,-0.155
1172,0.080,-0.140
1173,0.105,-0.125
1174,0.120,-0.120
1175,0.185,-0.090
1176,0.255,-0.060
1177,0.320,-0.070
1178,0.365,-0.085
1179,0.375,-0.125
1180,0.270,-0.190
1181,0.185,-0.220
1182,0.065,-0.200
1183,0.010,-0.150
1184,0.000,-0.135
1185,0.000,-0.145
1186,0.035,-0.160
1187,0.030,-0.170
1188,0.030,-0.165
1189,0.035,-0.170
1190,0.060,-0.175
1191,0.045,-0.155
1192,0.040,-0.155
1193,0.040,-0.175
1194,0.040,-0.185
1195,0.030,-0.155
1196,0.050,-0.155
1197,0.065,-0.175
1198,0.090,-0.165
1199,0.205,-0.185
1200,0.360,-0.240
1201,0.470,-0.375
1202,0.525,-0.530
1203,0.515,-0.815
1204,0.760,-1.265
1205,1.335,-1.860
1206,1.265,-2.075
1207,0.350,-1.310
1208,-0.130,-0.560
1209,-0.195,-0.245
1210,-0.235,-0.045
1211,-0.290,0.030
1212,-0.300,0.045
1213,-0.320,0.050
1214,-0.345,0.030
1215,-0.350,0.070
1216,-0.375,0.070
1217,-0.380,0.055
1218,-0.405,0.075
1219,-0.420,0.070
1220,-0.430,0.095
1221,-0.435,0.090
1222,-0.450,0.070
1223,-0.465,0.080
1224,-0.470,0.105
1225,-0.465,0.125
1226,-0.475,0.110
1227,-0.475,0.120
1228,-0.455,0.110
1229,-0.450,0.110
1230,-0.460,0.100
1231,-0.430,0.095
1232,-0.400,0.065
1233,-0.395,0.045
1234,-0.385,0.000
1235,-0.350,-0.030
1236,-0.340,-0.065
1237,-0.325,-0.085
1238,-0.275,-0.110
1239,-0.260,-0.125
1240,-0.230,-0.140
1241,-0.200,-0.140
1242,-0.185,-0.150
1243,-0.190,-0.160
1244,-0.190,-0.150
1245,-0.185,-0.130
1246,-0.195,-0.150
1247,-0.190,-0.135
1248,-0.180,-0.150
1249,-0.140,-0.140
1250,-0.135,-0.130
1251,-0.110,-0.110
1252,-0.045,-0.075
1253,0.025,-0.075
1254,0.055,-0.060
1255,0.090,-0.075
1256,0.055,-0.140
1257,-0.025,-0.190
1258,-0.130,-0.215
1259,-0.235,-0.175
1260,-0.285,-0.130
1261,-0.300,-0.100
1262,-0.310,-0.125
1263,-0.290,-0.145
1264,-0.305,-0.150
1265,-0.295,-0.150
1266,-0.280,-0.160
1267,-0.270,-0.170
1268,-0.275,-0.175
1269,-0.290,-0.175
1270,-0.270,-0.190
1271,-0.280,-0.200
1272,-0.275,-0.185
1273,-0.270,-0.190
1274,-0.265,-0.190
1275,-0.215,-0.170
1276,-0.060,-0.190
1277,0.050,-0.250
1278,0.135,-0.380
1279,0.180,-0.550
1280,0.210,-0.920
1281,0.600,-1.440
1282,1.215,-2.050
1283,0.970,-2.105
1284,0.020,-1.140
1285,-0.380,-0.480
1286,-0.440,-0.185
1287,-0.460,-0.015
1288,-0.480,0.050
1289,-0.480,0.055
1290,-0.490,0.065
1291,-0.490,0.070
1292,-0.505,0.075
1293,-0.515,0.085
1294,-0.505,0.090
1295,-0.515,0.100
1296,-0.520,0.095
1297,-0.530,0.105
1298,-0.525,0.120
1299,-0.535,0.110
1300,-0.550,0.130
1301,-0.560,0.155
1302,-0.550,0.155
1303,-0.535,0.155
1304,-0.535,0.135
1305,-0.515,0.140
1306,-0.495,0.130
1307,-0.485,0.130
1308,-0.470,0.120
1309,-0.455,0.095
1310,-0.435,0.060
1311,-0.410,0.030
1312,-0.395,-0.005
1313,-0.355,-0.025
1314,-0.340,-0.040
1315,-0.325,-0.035
1316,-0.300,-0.075
1317,-0.280,-0.085
1318,-0.260,-0.100
1319,-0.250,-0.090
1320,-0.230,-0.070
1321,-0.200,-0.090
1322,-0.205,-0.100
1323,-0.230,-0.095
1324,-0.210,-0.085
1325,-0.165,-0.060
1326,-0.145,-0.060
1327,-0.110,-0.040
1328,-0.050,-0.020
1329,0.025,0.005
1330,0.050,-0.025
1331,0.070,-0.025
1332,0.020,-0.080
1333,-0.065,-0.130
1334,-0.165,-0.150
1335,-0.260,-0.115
1336,-0.305,-0.055
1337,-0.325,-0.060
1338,-0.340,-0.070
1339,-0.295,-0.105
1340,-0.305,-0.110
1341,-0.300,-0.130
1342,-0.290,-0.130
1343,-0.295,-0.120
1344,-0.275,-0.145
1345,-0.275,-0.150
1346,-0.280,-0.140
1347,-0.285,-0.155
1348,-0.265,-0.160
1349,-0.275,-0.170
1350,-0.250,-0.150
1351,-0.215,-0.155
1352,-0.070,-0.185
1353,0.045,-0.255
1354,0.125,-0.375
1355,0.165,-0.570
1356,0.200,-0.930
1357,0.565,-1.450
1358,1.190,-2.045
1359,0.990,-2.130
1360,0.040,-1.210
1361,-0.380,-0.495
1362,-0.465,-0.190
1363,-0.480,-0.005
1364,-0.490,0.060
1365,-0.480,0.070
1366,-0.500,0.060
1367,-0.500,0.080
1368,-0.515,0.075
1369,-0.525,0.080
1370,-0.515,0.085
1371,-0.530,0.100
1372,-0.535,0.100
1373,-0.535,0.090
1374,-0.540,0.105
1375,-0.550,0.095
1376,-0.545,0.115
1377,-0.560,0.120
1378,-0.550,0.125
1379,-0.570,0.125
1380,-0.555,0.120
1381,-0.535,0.115
1382,-0.520,0.125
1383,-0.525,0.100
1384,-0.500,0.065
1385,-0.485,0.055
1386,-0.485,0.025
1387,-0.430,0.000
1388,-0.415,-0.030
1389,-0.375,-0.065
1390,-0.355,-0.075
1391,-0.340,-0.120
1392,-0.310,-0.110
1393,-0.295,-0.130
1394,-0.290,-0.120
1395,-0.275,-0.135
1396,-0.270,-0.115
1397,-0.265,-0.120
1398,-0.255,-0.120
1399,-0.240,-0.125
1400,-0.200,-0.110
1401,-0.205,-0.100
1402,-0.150,-0.070
1403,-0.045,-0.040
1404,-0.010,-0.025
1405,0.035,-0.040
1406,0.060,-0.035
1407,0.000,-0.125
1408,-0.080,-0.175
1409,-0.180,-0.165
1410,-0.290,-0.115
1411,-0.330,-0.080
1412,-0.340,-0.055
1413,-0.305,-0.090
1414,-0.315,-0.105
1415,-0.295,-0.115
1416,-0.275,-0.130
1417,-0.275,-0.130
1418,-0.275,-0.135
1419,-0.260,-0.130
1420,-0.280,-0.145
1421,-0.275,-0.140
1422,-0.275,-0.145
1423,-0.275,-0.150
1424,-0.280,-0.145
1425,-0.265,-0.155
1426,-0.205,-0.140
1427,-0.095,-0.140
1428,0.035,-0.195
1429,0.165,-0.335
1430,0.165,-0.510
1431,0.175,-0.830
1432,0.495,-1.365
1433,1.135,-1.975
1434,1.075,-2.150
1435,0.145,-1.295
1436,-0.340,-0.555
1437,-0.435,-0.210
1438,-0.450,-0.015
1439,-0.480,0.065
1440,-0.480,0.080
1441,-0.485,0.090
1442,-0.485,0.065
1443,-0.495,0.095
1444,-0.495,0.110
1445,-0.500,0.130
1446,-0.510,0.145
1447,-0.515,0.140
1448,-0.515,0.135
1449,-0.535,0.145
1450,-0.540,0.160
1451,-0.540,0.140
1452,-0.535,0.160
1453,-0.535,0.185
1454,-0.535,0.155
1455,-0.505,0.170
1456,-0.485,0.180
1457,-0.480,0.170
1458,-0.470,0.150
1459,-0.445,0.125
1460,-0.400,0.100
1461,-0.400,0.075
1462,-0.390,0.060
1463,-0.325,0.020
1464,-0.315,0.000
1465,-0.280,-0.035
1466,-0.245,-0.065
1467,-0.230,-0.075
1468,-0.205,-0.090
1469,-0.175,-0.100
1470,-0.175,-0.100
1471,-0.170,-0.100
1472,-0.145,-0.090
1473,-0.150,-0.090
1474,-0.150,-0.075
1475,-0.155,-0.075
1476,-0.130,-0.090
1477,-0.120,-0.070
1478,-0.080,-0.090
1479,-0.020,-0.045
1480,0.045,-0.025
1481,0.105,-0.015
1482,0.160,-0.020
1483,0.150,-0.050
1484,0.075,-0.140
1485,-0.025,-0.155
1486,-0.115,-0.150
1487,-0.195,-0.080
1488,-0.235,-0.070
1489,-0.225,-0.085
1490,-0.215,-0.110
1491,-0.190,-0.095
1492,-0.175,-0.105
1493,-0.190,-0.125
1494,-0.180,-0.125
1495,-0.165,-0.140
1496,-0.155,-0.140
1497,-0.140,-0.135
1498,-0.130,-0.135
1499,-0.140,-0.150
1500,-0.135,-0.120
1501,-0.130,-0.145
1502,-0.100,-0.145
1503,0.015,-0.150
1504,0.165,-0.205
1505,0.290,-0.305
1506,0.360,-0.460
1507,0.355,-0.740
1508,0.515,-1.180
1509,1.055,-1.785
1510,1.315,-2.160
1511,0.550,-1.625
1512,-0.100,-0.700
1513,-0.245,-0.300
1514,-0.265,-0.050
1515,-0.315,0.030
1516,-0.335,0.060
1517,-0.345,0.035
1518,-0.340,0.060
1519,-0.365,0.050
1520,-0.370,0.080
1521,-0.365,0.070
1522,-0.355,0.065
1523,-0.360,0.065
1524,-0.365,0.065
1525,-0.370,0.070
1526,-0.390,0.070
1527,-0.380,0.090
1528,-0.390,0.090
1529,-0.385,0.100
1530,-0.395,0.095
1531,-0.375,0.100
1532,-0.355,0.090
1533,-0.355,0.085
1534,-0.310,0.085
1535,-0.310,0.075
1536,-0.290,0.060
1537,-0.270,0.030
1538,-0.225,0.000
1539,-0.205,-0.025
1540,-0.160,-0.050
1541,-0.140,-0.090
1542,-0.110,-0.125
1543,-0.095,-0.130
1544,-0.080,-0.150
1545,-0.050,-0.165
1546,-0.020,-0.155
1547,-0.010,-0.165
1548,-0.015,-0.160
1549,0.000,-0.150
1550,-0.015,-0.170
1551,-0.015,-0.135
1552,-0.005,-0.130
1553,-0.005,-0.140
1554,0.015,-0.150
1555,0.020,-0.155
1556,0.040,-0.120
1557,0.100,-0.105
1558,0.190,-0.105
1559,0.260,-0.095
1560,0.290,-0.105
1561,0.280,-0.140
1562,0.195,-0.210
1563,0.080,-0.210
1564,0.000,-0.210
1565,-0.065,-0.180
1566,-0.095,-0.160
1567,-0.070,-0.175
1568,-0.055,-0.190
1569,-0.035,-0.185
1570,-0.025,-0.185
1571,-0.035,-0.215
1572,-0.005,-0.200
1573,-0.015,-0.210
1574,-0.020,-0.190
1575,-0.025,-0.215
1576,-0.010,-0.190
1577,0.000,-0.175
1578,-0.010,-0.190
1579,0.000,-0.195
1580,0.020,-0.210
1581,0.190,-0.230
1582,0.325,-0.290
1583,0.450,-0.410
1584,0.525,-0.595
1585,0.515,-0.890
1586,0.760,-1.375
1587,1.340,-1.970
1588,1.260,-2.155
1589,0.365,-1.335
1590,-0.075,-0.565
1591,-0.160,-0.245
1592,-0.170,-0.070
1593,-0.230,0.000
1594,-0.250,0.000
1595,-0.245,0.000
1596,-0.260,0.000
1597,-0.285,0.030
1598,-0.295,0.025
1599,-0.305,0.020
1600,-0.305,0.025
1601,-0.315,0.020
1602,-0.340,0.050
1603,-0.360,0.050
1604,-0.375,0.050
1605,-0.395,0.070
1606,-0.415,0.070
1607,-0.430,0.090
1608,-0.425,0.090
1609,-0.435,0.075
1610,-0.425,0.055
1611,-0.410,0.055
1612,-0.395,0.055
1613,-0.385,0.025
1614,-0.380,0.000
1615,-0.365,0.000
1616,-0.345,-0.015
1617,-0.325,-0.070
1618,-0.325,-0.100
1619,-0.290,-0.120
1620,-0.265,-0.160
1621,-0.240,-0.150
1622,-0.225,-0.165
1623,-0.205,-0.180
1624,-0.190,-0.195
1625,-0.180,-0.180
1626,-0.175,-0.185
1627,-0.160,-0.180
1628,-0.175,-0.185
1629,-0.165,-0.190
1630,-0.165,-0.170
1631,-0.145,-0.165
1632,-0.140,-0.185
1633,-0.095,-0.145
1634,-0.015,-0.125
1635,0.030,-0.100
1636,0.065,-0.115
1637,0.090,-0.110
1638,0.060,-0.175
1639,-0.020,-0.230
1640,-0.105,-0.245
1641,-0.205,-0.205
1642,-0.280,-0.155
1643,-0.305,-0.155
1644,-0.300,-0.155
1645,-0.285,-0.175
1646,-0.285,-0.220
1647,-0.270,-0.200
1648,-0.280,-0.225
1649,-0.275,-0.225
1650,-0.255,-0.235
1651,-0.270,-0.230
1652,-0.265,-0.230
1653,-0.265,-0.245
1654,-0.265,-0.255
1655,-0.280,-0.245
1656,-0.250,-0.250
1657,-0.205,-0.230
1658,-0.075,-0.245
1659,0.055,-0.300
1660,0.130,-0.445
1661,0.165,-0.610
1662,0.165,-0.945
1663,0.500,-1.450
1664,1.180,-2.065
1665,1.080,-2.210
1666,0.080,-1.265
1667,-0.365,-0.595
1668,-0.440,-0.280
1669,-0.465,-0.105
1670,-0.480,-0.015
1671,-0.465,0.000
1672,-0.485,0.005
1673,-0.500,0.025
1674,-0.500,0.020
1675,-0.500,0.025
1676,-0.505,0.030
1677,-0.515,0.030
1678,-0.520,0.055
1679,-0.525,0.040
1680,-0.535,0.050
1681,-0.540,0.065
1682,-0.540,0.065
1683,-0.555,0.085
1684,-0.550,0.100
1685,-0.530,0.095
1686,-0.545,0.110
1687,-0.530,0.100
1688,-0.515,0.090
1689,-0.500,0.090
1690,-0.490,0.070
1691,-0.480,0.040
1692,-0.460,0.015
1693,-0.440,-0.015
1694,-0.420,-0.055
1695,-0.375,-0.080
1696,-0.340,-0.120
1697,-0.330,-0.130
1698,-0.295,-0.160
1699,-0.270,-0.155
1700,-0.260,-0.180
1701,-0.260,-0.150
1702,-0.235,-0.150
1703,-0.245,-0.145
1704,-0.240,-0.155
1705,-0.240,-0.135
1706,-0.225,-0.120
1707,-0.185,-0.115
1708,-0.180,-0.120
1709,-0.165,-0.090
1710,-0.095,-0.070
1711,-0.010,-0.050
1712,0.040,-0.065
1713,0.060,-0.045
1714,0.025,-0.105
1715,-0.035,-0.180
1716,-0.125,-0.210
1717,-0.230,-0.175
1718,-0.325,-0.110
1719,-0.335,-0.110
1720,-0.320,-0.125
1721,-0.295,-0.140
1722,-0.290,-0.140
1723,-0.275,-0.165
1724,-0.270,-0.165
1725,-0.270,-0.170
1726,-0.265,-0.160
1727,-0.260,-0.180
1728,-0.265,-0.190
1729,-0.280,-0.190
1730,-0.260,-0.190
1731,-0.270,-0.190
1732,-0.245,-0.185
1733,-0.220,-0.180
1734,-0.100,-0.185
1735,0.040,-0.235
1736,0.130,-0.375
1737,0.165,-0.525
1738,0.160,-0.835
1739,0.395,-1.335
1740,1.025,-1.955
1741,1.165,-2.245
1742,0.295,-1.470
1743,-0.310,-0.625
1744,-0.425,-0.290
1745,-0.445,-0.070
1746,-0.485,0.020
1747,-0.505,0.025
1748,-0.515,0.045
1749,-0.515,0.035
1750,-0.515,0.050
1751,-0.525,0.055
1752,-0.525,0.040
1753,-0.525,0.060
1754,-0.540,0.055
1755,-0.550,0.065
1756,-0.560,0.070
1757,-0.555,0.085
1758,-0.570,0.080
1759,-0.565,0.090
1760,-0.560,0.105
1761,-0.550,0.105
1762,-0.540,0.095
1763,-0.535,0.110
1764,-0.520,0.090
1765,-0.500,0.085
1766,-0.485,0.070
1767,-0.465,0.050
1768,-0.445,0.010
1769,-0.420,-0.005
1770,-0.390,-0.035
1771,-0.385,-0.065
1772,-0.350,-0.100
1773,-0.335,-0.130
1774,-0.310,-0.145
1775,-0.300,-0.140
1776,-0.275,-0.175
1777,-0.265,-0.165
1778,-0.260,-0.150
1779,-0.235,-0.170
1780,-0.235,-0.150
1781,-0.250,-0.160
1782,-0.235,-0.155
1783,-0.210,-0.145
1784,-0.190,-0.135
1785,-0.170,-0.100
1786,-0.055,-0.115
1787,-0.025,-0.100
1788,0.030,-0.085
1789,0.030,-0.100
1790,-0.005,-0.185
1791,-0.100,-0.240
1792,-0.205,-0.225
1793,-0.305,-0.170
1794,-0.360,-0.120
1795,-0.380,-0.125
1796,-0.360,-0.145
1797,-0.330,-0.180
1798,-0.320,-0.190
1799,-0.325,-0.180
1800,-0.315,-0.200
1801,-0.315,-0.195
1802,-0.315,-0.195
1803,-0.310,-0.190
1804,-0.290,-0.205
1805,-0.275,-0.205
1806,-0.265,-0.195
1807,-0.270,-0.185
1808,-0.245,-0.185
1809,-0.205,-0.190
1810,-0.055,-0.220
1811,0.055,-0.280
1812,0.155,-0.425
1813,0.190,-0.600
1814,0.205,-0.980
1815,0.585,-1.545
1816,1.205,-2.145
1817,0.950,-2.125
1818,0.030,-1.135
1819,-0.340,-0.480
1820,-0.400,-0.185
1821,-0.430,-0.005
1822,-0.440,0.055
1823,-0.450,0.065
1824,-0.430,0.075
1825,-0.445,0.075
1826,-0.455,0.060
1827,-0.450,0.070
1828,-0.475,0.070
1829,-0.455,0.085
1830,-0.455,0.080
1831,-0.450,0.065
1832,-0.470,0.070
1833,-0.470,0.080
1834,-0.480,0.075
1835,-0.470,0.110
1836,-0.470,0.100
1837,-0.445,0.115
1838,-0.450,0.105
1839,-0.445,0.095
1840,-0.440,0.105
1841,-0.400,0.095
1842,-0.400,0.065
1843,-0.360,0.015
1844,-0.370,0.005
1845,-0.315,-0.010
1846,-0.290,-0.055
1847,-0.275,-0.095
1848,-0.240,-0.115
1849,-0.210,-0.115
1850,-0.175,-0.130
1851,-0.150,-0.155
1852,-0.160,-0.150
1853,-0.125,-0.145
1854,-0.110,-0.140
1855,-0.100,-0.160
1856,-0.105,-0.170
1857,-0.085,-0.150
1858,-0.095,-0.135
1859,-0.090,-0.150
1860,-0.075,-0.125
1861,-0.045,-0.135
1862,-0.035,-0.110
1863,0.040,-0.080
1864,0.090,-0.060
1865,0.170,-0.075
1866,0.195,-0.085
1867,0.165,-0.140
1868,0.080,-0.220
1869,-0.015,-0.195
1870,-0.125,-0.175
1871,-0.195,-0.135
1872,-0.200,-0.130
1873,-0.175,-0.150
1874,-0.175,-0.175
1875,-0.130,-0.180
1876,-0.130,-0.190
1877,-0.125,-0.200
1878,-0.140,-0.205
1879,-0.120,-0.205
1880,-0.135,-0.205
1881,-0.140,-0.230
1882,-0.115,-0.215
1883,-0.120,-0.210
1884,-0.115,-0.210
1885,-0.100,-0.225
1886,-0.050,-0.220
1887,0.075,-0.240
1888,0.230,-0.325
1889,0.365,-0.450
1890,0.430,-0.635
1891,0.445,-0.975
1892,0.755,-1.495
1893,1.305,-2.095
1894,1.015,-2.040
1895,0.135,-1.030
1896,-0.150,-0.480
1897,-0.215,-0.190
1898,-0.270,-0.045
1899,-0.265,0.000
1900,-0.280,0.000
1901,-0.275,-0.010
1902,-0.275,-0.010
1903,-0.295,-0.010
1904,-0.310,0.000
1905,-0.315,0.000
1906,-0.285,0.000
1907,-0.295,0.015
1908,-0.310,0.020
1909,-0.310,0.015
1910,-0.310,0.015
1911,-0.325,0.045
1912,-0.335,0.050
1913,-0.335,0.050
1914,-0.345,0.050
1915,-0.320,0.035
1916,-0.310,0.045
1917,-0.290,0.030
1918,-0.280,0.010
1919,-0.260,0.005
1920,-0.240,-0.015
1921,-0.225,-0.040
1922,-0.195,-0.070
1923,-0.190,-0.090
1924,-0.140,-0.120
1925,-0.125,-0.140
1926,-0.110,-0.135
1927,-0.085,-0.160
1928,-0.075,-0.180
1929,-0.070,-0.190
1930,-0.045,-0.185
1931,-0.060,-0.160
1932,-0.045,-0.160
1933,-0.035,-0.175
1934,-0.030,-0.155
1935,-0.035,-0.155
1936,-0.050,-0.145
1937,-0.040,-0.165
1938,-0.040,-0.145
1939,-0.030,-0.140
1940,0.005,-0.110
1941,0.095,-0.080
1942,0.110,-0.085
1943,0.165,-0.090
1944,0.165,-0.090
1945,0.120,-0.170
1946,0.010,-0.210
1947,-0.075,-0.175
1948,-0.180,-0.155
1949,-0.250,-0.110
1950,-0.255,-0.105
1951,-0.240,-0.125
1952,-0.235,-0.150
1953,-0.230,-0.155
1954,-0.250,-0.155
1955,-0.245,-0.165
1956,-0.250,-0.160
1957,-0.260,-0.150
1958,-0.255,-0.175
1959,-0.240,-0.150
1960,-0.235,-0.160
1961,-0.245,-0.160
1962,-0.240,-0.160
1963,-0.210,-0.155
1964,-0.155,-0.160
1965,-0.010,-0.185
1966,0.100,-0.300
1967,0.180,-0.440
1968,0.230,-0.685
1969,0.300,-1.120
1970,0.820,-1.685
1971,1.280,-2.120
1972,0.675,-1.735
1973,-0.190,-0.785
1974,-0.440,-0.345
1975,-0.465,-0.090
1976,-0.490,0.030
1977,-0.495,0.080
1978,-0.490,0.075
1979,-0.490,0.080
1980,-0.510,0.085
1981,-0.525,0.095
1982,-0.525,0.110
1983,-0.525,0.115
1984,-0.540,0.120
1985,-0.535,0.125
1986,-0.545,0.145
1987,-0.555,0.125
1988,-0.545,0.140
1989,-0.545,0.150
1990,-0.575,0.175
1991,-0.570,0.160
1992,-0.570,0.170
1993,-0.570,0.180
1994,-0.535,0.155
1995,-0.535,0.145
1996,-0.535,0.140
1997,-0.520,0.115
1998,-0.505,0.100
1999,-0.480,0.070
2000,-0.470,0.045
2001,-0.430,-0.005
2002,-0.385,-0.035
2003,-0.380,-0.050
2004,-0.355,-0.070
2005,-0.335,-0.105
2006,-0.320,-0.105
2007,-0.310,-0.095
2008,-0.320,-0.115
2009,-0.295,-0.095
2010,-0.290,-0.090
2011,-0.300,-0.110
2012,-0.300,-0.110
2013,-0.305,-0.095
2014,-0.280,-0.085
2015,-0.250,-0.085
2016,-0.245,-0.075
2017,-0.175,-0.035
2018,-0.095,-0.010
2019,-0.060,-0.025
2020,-0.020,-0.020
2021,-0.005,-0.045
2022,-0.090,-0.125
2023,-0.170,-0.170
2024,-0.270,-0.150
2025,-0.355,-0.105
2026,-0.390,-0.070
2027,-0.410,-0.080
2028,-0.385,-0.100
2029,-0.385,-0.120
2030,-0.375,-0.120
2031,-0.375,-0.115
2032,-0.355,-0.115
2033,-0.355,-0.135
2034,-0.350,-0.135
2035,-0.355,-0.145
2036,-0.345,-0.150
2037,-0.355,-0.150
2038,-0.370,-0.135
2039,-0.375,-0.145
2040,-0.335,-0.145
2041,-0.255,-0.155
2042,-0.100,-0.205
2043,0.000,-0.300
2044,0.045,-0.455
2045,0.070,-0.715
2046,0.175,-1.165
2047,0.745,-1.795
2048,1.155,-2.245
2049,0.470,-1.730
2050,-0.315,-0.735
2051,-0.510,-0.340
2052,-0.530,-0.095
2053,-0.565,0.015
2054,-0.590,0.060
2055,-0.590,0.065
2056,-0.600,0.070
2057,-0.620,0.070
2058,-0.615,0.085
2059,-0.640,0.090
2060,-0.625,0.100
2061,-0.630,0.095
2062,-0.630,0.110
2063,-0.635,0.110
2064,-0.645,0.125
2065,-0.650,0.130
2066,-0.640,0.150
2067,-0.655,0.145
2068,-0.650,0.150
2069,-0.640,0.150
2070,-0.640,0.140
2071,-0.630,0.150
2072,-0.625,0.150
2073,-0.600,0.125
2074,-0.580,0.100
2075,-0.555,0.075
2076,-0.525,0.045
2077,-0.500,0.005
2078,-0.485,-0.005
2079,-0.470,-0.030
2080,-0.460,-0.050
2081,-0.420,-0.070
2082,-0.400,-0.075
2083,-0.395,-0.095
2084,-0.355,-0.090
2085,-0.335,-0.090
2086,-0.335,-0.090
2087,-0.320,-0.085
2088,-0.350,-0.070
2089,-0.330,-0.075
2090,-0.295,-0.080
2091,-0.285,-0.075
2092,-0.280,-0.050
2093,-0.220,-0.015
2094,-0.130,0.005
2095,-0.090,0.000
2096,-0.065,-0.015
2097,-0.070,-0.035
2098,-0.145,-0.115
2099,-0.230,-0.115
2100,-0.340,-0.090
2101,-0.415,-0.045
2102,-0.435,-0.045
2103,-0.415,-0.055
2104,-0.410,-0.065
2105,-0.410,-0.090
2106,-0.390,-0.100
2107,-0.355,-0.090
2108,-0.380,-0.095
2109,-0.355,-0.105
2110,-0.340,-0.125
2111,-0.350,-0.110
2112,-0.350,-0.130
2113,-0.360,-0.115
2114,-0.370,-0.115
2115,-0.355,-0.090
2116,-0.340,-0.125
2117,-0.240,-0.135
2118,-0.095,-0.170
2119,0.020,-0.270
2120,0.065,-0.445
2121,0.080,-0.725
2122,0.210,-1.195
2123,0.780,-1.805
2124,1.120,-2.195
2125,0.425,-1.635
2126,-0.330,-0.690
2127,-0.535,-0.300
2128,-0.560,-0.065
2129,-0.585,0.040
2130,-0.615,0.085
2131,-0.600,0.075
2132,-0.590,0.080
2133,-0.615,0.095
2134,-0.620,0.105
2135,-0.635,0.115
2136,-0.650,0.100
2137,-0.635,0.110
2138,-0.640,0.100
2139,-0.640,0.115
2140,-0.670,0.110
2141,-0.670,0.125
2142,-0.665,0.140
2143,-0.675,0.130
2144,-0.670,0.145
2145,-0.650,0.135
2146,-0.625,0.125
2147,-0.595,0.125
2148,-0.595,0.100
2149,-0.575,0.110
2150,-0.570,0.075
2151,-0.525,0.050
2152,-0.505,0.010
2153,-0.475,-0.010
2154,-0.440,-0.050
2155,-0.425,-0.085
2156,-0.405,-0.095
2157,-0.380,-0.135
2158,-0.350,-0.135
2159,-0.360,-0.130
2160,-0.330,-0.130
2161,-0.330,-0.140
2162,-0.310,-0.150
2163,-0.315,-0.120
2164,-0.305,-0.110
2165,-0.310,-0.125
2166,-0.305,-0.115
2167,-0.280,-0.120
2168,-0.270,-0.100
2169,-0.260,-0.100
2170,-0.155,-0.075
2171,-0.095,-0.045
2172,-0.030,-0.080
2173,-0.010,-0.040
2174,-0.035,-0.105
2175,-0.110,-0.200
2176,-0.220,-0.230
2177,-0.295,-0.195
2178,-0.365,-0.130
2179,-0.395,-0.145
2180,-0.375,-0.125
2181,-0.345,-0.175
2182,-0.345,-0.165
2183,-0.340,-0.175
2184,-0.350,-0.155
2185,-0.335,-0.170
2186,-0.330,-0.160
2187,-0.320,-0.170
2188,-0.310,-0.180
2189,-0.285,-0.180
2190,-0.275,-0.180
2191,-0.285,-0.180
2192,-0.285,-0.205
2193,-0.235,-0.190
2194,-0.105,-0.200
2195,0.040,-0.270
2196,0.165,-0.380
2197,0.230,-0.555
2198,0.230,-0.870
2199,0.425,-1.355
2200,1.000,-2.000
2201,1.065,-2.180
2202,0.180,-1.315
2203,-0.280,-0.600
2204,-0.380,-0.245
2205,-0.390,-0.050
2206,-0.450,0.025
2207,-0.450,0.045
2208,-0.455,0.035
2209,-0.475,0.050
2210,-0.460,0.050
2211,-0.460,0.045
2212,-0.485,0.055
2213,-0.475,0.070
2214,-0.450,0.080
2215,-0.465,0.050
2216,-0.475,0.065
2217,-0.475,0.095
2218,-0.470,0.090
2219,-0.455,0.090
2220,-0.470,0.105
2221,-0.465,0.105
2222,-0.470,0.115
2223,-0.440,0.110
2224,-0.430,0.105
2225,-0.410,0.085
2226,-0.380,0.075
2227,-0.345,0.055
2228,-0.330,0.000
2229,-0.315,0.000
2230,-0.305,-0.040
2231,-0.260,-0.060
2232,-0.230,-0.085
2233,-0.200,-0.110
2234,-0.170,-0.140
2235,-0.160,-0.145
2236,-0.110,-0.130
2237,-0.115,-0.130
2238,-0.120,-0.130
2239,-0.100,-0.140
2240,-0.110,-0.120
2241,-0.090,-0.130
2242,-0.090,-0.110
2243,-0.080,-0.100
2244,-0.100,-0.105
2245,-0.090,-0.120
2246,-0.075,-0.125
2247,-0.070,-0.115
2248,-0.055,-0.080
2249,0.020,-0.060
2250,0.100,-0.040
2251,0.140,-0.050
2252,0.175,-0.055
2253,0.145,-0.100
2254,0.050,-0.170
2255,-0.020,-0.200
2256,-0.100,-0.170
2257,-0.165,-0.140
2258,-0.170,-0.130
2259,-0.190,-0.150
2260,-0.190,-0.155
2261,-0.175,-0.175
2262,-0.170,-0.170
2263,-0.190,-0.150
2264,-0.175,-0.170
2265,-0.190,-0.170
2266,-0.210,-0.160
2267,-0.215,-0.195
2268,-0.235,-0.185
2269,-0.235,-0.185
2270,-0.245,-0.185
2271,-0.250,-0.185
2272,-0.210,-0.175
2273,-0.065,-0.220
2274,0.040,-0.275
2275,0.155,-0.425
2276,0.195,-0.615
2277,0.195,-0.970
2278,0.565,-1.500
2279,1.120,-2.075
2280,0.735,-1.920
2281,-0.200,-0.880
2282,-0.505,-0.410
2283,-0.565,-0.140
2284,-0.620,0.000
2285,-0.640,0.015
2286,-0.665,0.055
2287,-0.680,0.050
2288,-0.685,0.060
2289,-0.710,0.050
2290,-0.710,0.050
2291,-0.725,0.050
2292,-0.730,0.080
2293,-0.740,0.080
2294,-0.775,0.100
2295,-0.780,0.080
2296,-0.790,0.095
2297,-0.805,0.110
2298,-0.800,0.125
2299,-0.800,0.115
2300,-0.785,0.105
2301,-0.790,0.115
2302,-0.785,0.120
2303,-0.755,0.110
2304,-0.755,0.120
2305,-0.745,0.080
2306,-0.730,0.055
2307,-0.715,0.025
2308,-0.670,0.010
2309,-0.660,-0.020
2310,-0.640,-0.050
2311,-0.605,-0.080
2312,-0.605,-0.080
2313,-0.575,-0.100
2314,-0.560,-0.125
2315,-0.550,-0.105
2316,-0.520,-0.125
2317,-0.505,-0.110
2318,-0.500,-0.125
2319,-0.500,-0.110
2320,-0.510,-0.100
2321,-0.480,-0.085
2322,-0.475,-0.095
2323,-0.480,-0.080
2324,-0.450,-0.105
2325,-0.440,-0.080
2326,-0.375,-0.045
2327,-0.290,-0.015
2328,-0.230,-0.015
2329,-0.200,-0.040
2330,-0.195,-0.055
2331,-0.260,-0.160
2332,-0.340,-0.170
2333,-0.445,-0.155
2334,-0.535,-0.105
2335,-0.570,-0.090
2336,-0.570,-0.080
2337,-0.580,-0.105
2338,-0.565,-0.130
2339,-0.555,-0.130
2340,-0.540,-0.140
2341,-0.525,-0.135
2342,-0.535,-0.160
2343,-0.530,-0.145
2344,-0.520,-0.155
2345,-0.520,-0.155
2346,-0.495,-0.135
2347,-0.515,-0.135
2348,-0.505,-0.125
2349,-0.480,-0.150
2350,-0.375,-0.170
2351,-0.245,-0.175
2352,-0.125,-0.325
2353,-0.075,-0.485
2354,-0.060,-0.775
2355,0.110,-1.225
2356,0.730,-1.855
2357,0.975,-2.135
2358,0.160,-1.400
2359,-0.500,-0.580
2360,-0.655,-0.245
2361,-0.680,-0.055
2362,-0.710,0.045
2363,-0.735,0.045
2364,-0.720,0.070
2365,-0.735,0.065
2366,-0.735,0.085
2367,-0.720,0.090
2368,-0.750,0.100
2369,-0.745,0.125
2370,-0.755,0.110
2371,-0.765,0.105
2372,-0.760,0.125
2373,-0.770,0.125
2374,-0.770,0.120
2375,-0.780,0.130
2376,-0.785,0.145
2377,-0.785,0.155
2378,-0.775,0.135
2379,-0.760,0.150
2380,-0.765,0.130
2381,-0.760,0.110
2382,-0.740,0.090
2383,-0.720,0.060
2384,-0.690,0.025
2385,-0.665,0.010
2386,-0.630,-0.020
2387,-0.600,-0.045
2388,-0.595,-0.080
2389,-0.555,-0.095
2390,-0.535,-0.115
2391,-0.520,-0.130
2392,-0.485,-0.150
2393,-0.470,-0.140
2394,-0.470,-0.140
2395,-0.455,-0.145
2396,-0.455,-0.135
2397,-0.465,-0.140
2398,-0.465,-0.135
2399,-0.425,-0.125
2400,-0.395,-0.120
2401,-0.365,-0.115
2402,-0.355,-0.115
2403,-0.255,-0.065
2404,-0.220,-0.055
2405,-0.180,-0.065
2406,-0.150,-0.080
2407,-0.195,-0.160
2408,-0.290,-0.215
2409,-0.385,-0.195
2410,-0.465,-0.165
2411,-0.545,-0.140
2412,-0.530,-0.130
2413,-0.525,-0.155
2414,-0.520,-0.180
2415,-0.500,-0.155
2416,-0.515,-0.175
2417,-0.505,-0.195
2418,-0.500,-0.200
2419,-0.500,-0.190
2420,-0.485,-0.195
2421,-0.520,-0.185
2422,-0.505,-0.195
2423,-0.505,-0.205
2424,-0.490,-0.205
2425,-0.490,-0.200
2426,-0.410,-0.235
2427,-0.295,-0.235
2428,-0.155,-0.350
2429,-0.090,-0.490
2430,-0.060,-0.700
2431,-0.020,-1.105
2432,0.365,-1.680
2433,0.995,-2.220
2434,0.675,-2.035
2435,-0.260,-0.960
2436,-0.595,-0.450
2437,-0.655,-0.205
2438,-0.670,-0.040
2439,-0.695,0.000
2440,-0.720,0.020
2441,-0.720,0.015
2442,-0.740,0.025
2443,-0.735,0.030
2444,-0.720,0.045
2445,-0.725,0.045
2446,-0.740,0.040
2447,-0.740,0.045
2448,-0.740,0.055
2449,-0.745,0.060
2450,-0.760,0.070
2451,-0.765,0.075
2452,-0.770,0.090
2453,-0.765,0.085
2454,-0.760,0.070
2455,-0.745,0.085
2456,-0.715,0.100
2457,-0.710,0.080
2458,-0.690,0.060
2459,-0.680,0.055
2460,-0.645,0.015
2461,-0.615,-0.005
2462,-0.600,-0.030
2463,-0.605,-0.070
2464,-0.565,-0.110
2465,-0.535,-0.125
2466,-0.505,-0.135
2467,-0.485,-0.185
2468,-0.470,-0.195
2469,-0.440,-0.195
2470,-0.430,-0.185
2471,-0.420,-0.170
2472,-0.410,-0.190
2473,-0.405,-0.160
2474,-0.400,-0.145
2475,-0.385,-0.160
2476,-0.370,-0.140
2477,-0.345,-0.150
2478,-0.340,-0.105
2479,-0.255,-0.095
2480,-0.200,-0.065
2481,-0.140,-0.085
2482,-0.100,-0.095
2483,-0.115,-0.135
2484,-0.190,-0.210
2485,-0.275,-0.230
2486,-0.370,-0.190
2487,-0.450,-0.140
2488,-0.465,-0.145
2489,-0.445,-0.160
2490,-0.435,-0.170
2491,-0.430,-0.170
2492,-0.420,-0.200
2493,-0.405,-0.195
2494,-0.405,-0.205
2495,-0.405,-0.205
2496,-0.400,-0.200
2497,-0.400,-0.210
2498,-0.380,-0.210
2499,-0.385,-0.230
2500,-0.380,-0.230
2501,-0.395,-0.210
2502,-0.355,-0.240
2503,-0.235,-0.255
2504,-0.080,-0.300
2505,0.000,-0.435
2506,0.040,-0.610
2507,0.055,-0.940
2508,0.265,-1.470
2509,0.910,-2.075
2510,1.015,-2.250
2511,0.135,-1.410
2512,-0.425,-0.665
2513,-0.530,-0.330
2514,-0.550,-0.120
2515,-0.585,-0.045
2516,-0.585,-0.030
2517,-0.595,-0.010
2518,-0.620,-0.020
2519,-0.625,-0.010
2520,-0.630,-0.020
2521,-0.630,-0.005
2522,-0.630,0.010
2523,-0.645,0.005
2524,-0.655,0.000
2525,-0.660,0.005
2526,-0.675,0.010
2527,-0.680,0.010
2528,-0.690,0.030
2529,-0.675,0.045
2530,-0.650,0.045
2531,-0.635,0.035
2532,-0.655,0.025
2533,-0.605,0.010
2534,-0.585,0.005
2535,-0.570,0.000
2536,-0.555,-0.035
2537,-0.530,-0.060
2538,-0.510,-0.080
2539,-0.500,-0.115
2540,-0.470,-0.155
2541,-0.430,-0.200
2542,-0.410,-0.220
2543,-0.385,-0.240
2544,-0.375,-0.270
2545,-0.355,-0.255
2546,-0.340,-0.255
2547,-0.335,-0.260
2548,-0.330,-0.250
2549,-0.320,-0.255
2550,-0.330,-0.265
2551,-0.330,-0.250
2552,-0.310,-0.260
2553,-0.270,-0.260
2554,-0.240,-0.255
2555,-0.235,-0.245
2556,-0.160,-0.215
2557,-0.095,-0.165
2558,-0.035,-0.190
2559,-0.005,-0.190
2560,-0.015,-0.240
2561,-0.095,-0.315
2562,-0.175,-0.345
2563,-0.280,-0.315
2564,-0.350,-0.255
2565,-0.385,-0.230
2566,-0.375,-0.255
2567,-0.345,-0.285
2568,-0.345,-0.275
2569,-0.330,-0.295
2570,-0.320,-0.290
2571,-0.295,-0.290
2572,-0.285,-0.305
2573,-0.270,-0.295
2574,-0.265,-0.285
2575,-0.270,-0.310
2576,-0.245,-0.305
2577,-0.255,-0.305
2578,-0.250,-0.325
2579,-0.210,-0.310
2580,-0.080,-0.310
2581,0.075,-0.390
2582,0.180,-0.520
2583,0.250,-0.640
2584,0.260,-1.000
2585,0.415,-1.475
2586,1.030,-2.110
2587,1.180,-2.335
2588,0.360,-1.465
2589,-0.190,-0.710
2590,-0.340,-0.380
2591,-0.350,-0.170
2592,-0.390,-0.085
2593,-0.375,-0.070
2594,-0.370,-0.070
2595,-0.405,-0.075
2596,-0.420,-0.075
2597,-0.420,-0.060
2598,-0.410,-0.055
2599,-0.390,-0.045
2600,-0.395,-0.055
2601,-0.385,-0.050
2602,-0.400,-0.045
2603,-0.395,-0.035
2604,-0.410,-0.025
2605,-0.400,-0.030
2606,-0.415,-0.005
2607,-0.395,-0.010
2608,-0.395,-0.020
2609,-0.385,0.000
2610,-0.375,0.000
2611,-0.350,-0.020
2612,-0.335,-0.040
2613,-0.325,-0.080
2614,-0.285,-0.085
2615,-0.260,-0.115
2616,-0.230,-0.155
2617,-0.185,-0.175
2618,-0.175,-0.210
2619,-0.125,-0.230
2620,-0.100,-0.250
2621,-0.075,-0.270
2622,-0.060,-0.265
2623,-0.055,-0.280
2624,-0.030,-0.285
2625,-0.035,-0.270
2626,-0.010,-0.265
2627,-0.015,-0.290
2628,0.000,-0.275
2629,-0.010,-0.250
2630,-0.025,-0.245
2631,-0.005,-0.245
2632,0.020,-0.255
2633,0.045,-0.250
2634,0.050,-0.210
2635,0.150,-0.200
2636,0.240,-0.200
2637,0.290,-0.195
2638,0.320,-0.210
2639,0.305,-0.285
2640,0.205,-0.330
2641,0.140,-0.340
2642,0.050,-0.325
2643,-0.015,-0.265
2644,-0.025,-0.265
2645,0.020,-0.305
2646,0.040,-0.315
2647,0.065,-0.305
2648,0.070,-0.330
2649,0.090,-0.315
2650,0.085,-0.320
2651,0.095,-0.340
2652,0.085,-0.310
2653,0.100,-0.305
2654,0.110,-0.325
2655,0.125,-0.320
2656,0.125,-0.320
2657,0.155,-0.335
2658,0.215,-0.340
2659,0.355,-0.350
2660,0.520,-0.430
2661,0.660,-0.605
2662,0.725,-0.820
2663,0.730,-1.180
2664,1.070,-1.740
2665,1.640,-2.280
2666,1.265,-2.085
2667,0.350,-1.080
2668,0.110,-0.595
2669,0.100,-0.320
2670,0.045,-0.180
2671,0.030,-0.155
2672,0.025,-0.145
2673,0.015,-0.140
2674,0.035,-0.135
2675,0.030,-0.110
2676,0.025,-0.130
2677,0.015,-0.130
2678,-0.005,-0.130
2679,-0.010,-0.115
2680,-0.050,-0.115
2681,-0.060,-0.115
2682,-0.075,-0.105
2683,-0.085,-0.095
2684,-0.135,-0.100
2685,-0.145,-0.070
2686,-0.175,-0.070
2687,-0.185,-0.070
2688,-0.180,-0.070
2689,-0.200,-0.040
2690,-0.185,-0.065
2691,-0.220,-0.090
2692,-0.215,-0.110
2693,-0.220,-0.135
2694,-0.230,-0.165
2695,-0.210,-0.210
2696,-0.195,-0.230
2697,-0.200,-0.245
2698,-0.195,-0.260
2699,-0.175,-0.280
2700,-0.160,-0.300
2701,-0.130,-0.305
2702,-0.120,-0.300
2703,-0.130,-0.285
2704,-0.130,-0.310
2705,-0.125,-0.310
2706,-0.150,-0.290
2707,-0.130,-0.305
2708,-0.140,-0.280
2709,-0.155,-0.280
2710,-0.120,-0.265
2711,-0.095,-0.260
2712,-0.085,-0.245
2713,-0.010,-0.235
2714,0.045,-0.200
2715,0.080,-0.235
2716,0.085,-0.235
2717,0.065,-0.300
2718,0.000,-0.350
2719,-0.090,-0.335
2720,-0.180,-0.325
2721,-0.250,-0.265
2722,-0.280,-0.250
2723,-0.275,-0.270
2724,-0.260,-0.280
2725,-0.235,-0.315
2726,-0.235,-0.305
2727,-0.225,-0.325
2728,-0.220,-0.320
2729,-0.210,-0.335
2730,-0.215,-0.300
2731,-0.210,-0.325
2732,-0.240,-0.305
2733,-0.220,-0.320
2734,-0.225,-0.310
2735,-0.210,-0.310
2736,-0.155,-0.310
2737,-0.030,-0.330
2738,0.115,-0.415
2739,0.200,-0.580
2740,0.210,-0.785
2741,0.270,-1.175
2742,0.705,-1.755
2743,1.290,-2.295
2744,0.950,-2.060
2745,-0.010,-1.060
2746,-0.350,-0.565
2747,-0.395,-0.275
2748,-0.410,-0.150
2749,-0.455,-0.105
2750,-0.445,-0.095
2751,-0.455,-0.075
2752,-0.470,-0.090
2753,-0.460,-0.060
2754,-0.480,-0.060
2755,-0.475,-0.055
2756,-0.485,-0.060
2757,-0.500,-0.050
2758,-0.510,-0.020
2759,-0.510,-0.025
2760,-0.510,-0.015
2761,-0.530,-0.010
2762,-0.530,-0.010
2763,-0.530,0.000
2764,-0.525,-0.010
2765,-0.500,-0.005
2766,-0.500,-0.015
2767,-0.490,-0.030
2768,-0.470,-0.050
2769,-0.460,-0.045
2770,-0.450,-0.080
2771,-0.430,-0.125
2772,-0.390,-0.150
2773,-0.380,-0.190
2774,-0.340,-0.210
2775,-0.305,-0.215
2776,-0.285,-0.240
2777,-0.275,-0.260
2778,-0.240,-0.265
2779,-0.250,-0.280
2780,-0.230,-0.280
2781,-0.220,-0.260
2782,-0.205,-0.265
2783,-0.185,-0.260
2784,-0.195,-0.255
2785,-0.165,-0.265
2786,-0.140,-0.250
2787,-0.115,-0.220
2788,-0.035,-0.180
2789,0.025,-0.180
2790,0.065,-0.190
2791,0.075,-0.190
2792,0.045,-0.275
2793,-0.060,-0.340
2794,-0.135,-0.315
2795,-0.250,-0.280
2796,-0.335,-0.230
2797,-0.320,-0.255
2798,-0.320,-0.240
2799,-0.310,-0.285
2800,-0.305,-0.285
2801,-0.305,-0.315
2802,-0.295,-0.310
2803,-0.305,-0.305
2804,-0.320,-0.320
2805,-0.315,-0.310
2806,-0.310,-0.315
2807,-0.305,-0.340
2808,-0.305,-0.340
2809,-0.310,-0.355
2810,-0.305,-0.345
2811,-0.245,-0.330
2812,-0.120,-0.335
2813,0.010,-0.415
2814,0.085,-0.585
2815,0.110,-0.765
2816,0.120,-1.180
2817,0.520,-1.755
2818,1.150,-2.335
2819,0.965,-2.195
2820,0.000,-1.160
2821,-0.420,-0.600
2822,-0.495,-0.320
2823,-0.525,-0.160
2824,-0.540,-0.110
2825,-0.540,-0.080
2826,-0.540,-0.075
2827,-0.535,-0.060
2828,-0.545,-0.075
2829,-0.555,-0.060
2830,-0.570,-0.050
2831,-0.560,-0.040
2832,-0.560,-0.035
2833,-0.570,-0.055
2834,-0.580,-0.020
2835,-0.590,-0.040
2836,-0.595,-0.010
2837,-0.595,-0.005
2838,-0.610,-0.010
2839,-0.585,0.000
2840,-0.590,0.000
2841,-0.580,-0.005
2842,-0.575,-0.015
2843,-0.565,-0.025
2844,-0.545,-0.040
2845,-0.530,-0.070
2846,-0.510,-0.105
2847,-0.490,-0.120
2848,-0.470,-0.160
2849,-0.425,-0.200
2850,-0.395,-0.220
2851,-0.355,-0.230
2852,-0.340,-0.240
2853,-0.320,-0.265
2854,-0.300,-0.270
2855,-0.285,-0.265
2856,-0.280,-0.260
2857,-0.270,-0.255
2858,-0.275,-0.230
2859,-0.270,-0.240
2860,-0.270,-0.230
2861,-0.235,-0.205
2862,-0.230,-0.210
2863,-0.210,-0.205
2864,-0.140,-0.180
2865,-0.030,-0.150
2866,-0.005,-0.150
2867,0.045,-0.145
2868,0.055,-0.180
2869,-0.010,-0.265
2870,-0.080,-0.295
2871,-0.185,-0.280
2872,-0.275,-0.215
2873,-0.335,-0.210
2874,-0.345,-0.220
2875,-0.325,-0.230
2876,-0.320,-0.255
2877,-0.305,-0.265
2878,-0.295,-0.285
2879,-0.295,-0.280
2880,-0.295,-0.270
2881,-0.295,-0.285
2882,-0.290,-0.285
2883,-0.285,-0.295
2884,-0.290,-0.285
2885,-0.300,-0.290
2886,-0.305,-0.280
2887,-0.285,-0.285
2888,-0.220,-0.290
2889,-0.075,-0.325
2890,0.045,-0.440
2891,0.110,-0.600
2892,0.130,-0.885
2893,0.225,-1.330
2894,0.750,-1.960
2895,1.220,-2.385
2896,0.655,-1.860
2897,-0.205,-0.900
2898,-0.435,-0.485
2899,-0.470,-0.245
2900,-0.495,-0.110
2901,-0.520,-0.050
2902,-0.540,-0.080
2903,-0.540,-0.070
2904,-0.550,-0.040
2905,-0.555,-0.035
2906,-0.570,-0.040
2907,-0.575,-0.025
2908,-0.575,-0.025
2909,-0.580,-0.040
2910,-0.565,-0.025
2911,-0.565,-0.020
2912,-0.585,-0.010
2913,-0.580,0.000
2914,-0.585,0.000
2915,-0.595,0.000
2916,-0.600,-0.005
2917,-0.590,0.005
2918,-0.600,0.000
2919,-0.570,-0.020
2920,-0.550,-0.025
2921,-0.535,-0.025
2922,-0.520,-0.060
2923,-0.500,-0.090
2924,-0.490,-0.160
2925,-0.470,-0.180
2926,-0.440,-0.240
2927,-0.410,-0.265
2928,-0.395,-0.275
2929,-0.375,-0.275
2930,-0.340,-0.290
2931,-0.350,-0.300
2932,-0.345,-0.295
2933,-0.335,-0.290
2934,-0.330,-0.310
2935,-0.315,-0.300
2936,-0.320,-0.285
2937,-0.300,-0.285
2938,-0.260,-0.290
2939,-0.265,-0.260
2940,-0.230,-0.260
2941,-0.160,-0.220
2942,-0.085,-0.210
2943,-0.035,-0.215
2944,-0.025,-0.215
2945,-0.025,-0.305
2946,-0.115,-0.340
2947,-0.210,-0.335
2948,-0.325,-0.310
2949,-0.400,-0.270
2950,-0.410,-0.265
2951,-0.405,-0.280
2952,-0.365,-0.310
2953,-0.335,-0.310
2954,-0.340,-0.320
2955,-0.330,-0.335
2956,-0.320,-0.330
2957,-0.315,-0.340
2958,-0.295,-0.350
2959,-0.290,-0.355
2960,-0.280,-0.355
2961,-0.280,-0.340
2962,-0.310,-0.350
2963,-0.295,-0.345
2964,-0.225,-0.350
2965,-0.065,-0.380
2966,0.055,-0.450
2967,0.175,-0.625
2968,0.215,-0.825
2969,0.195,-1.225
2970,0.560,-1.820
2971,1.125,-2.365
2972,0.865,-2.170
2973,-0.005,-1.180
2974,-0.345,-0.640
2975,-0.400,-0.345
2976,-0.450,-0.175
2977,-0.470,-0.140
2978,-0.480,-0.135
2979,-0.490,-0.140
2980,-0.490,-0.145
2981,-0.475,-0.125
2982,-0.460,-0.110
2983,-0.460,-0.130
2984,-0.475,-0.110
2985,-0.475,-0.120
2986,-0.470,-0.095
2987,-0.480,-0.095
2988,-0.480,-0.090
2989,-0.485,-0.080
2990,-0.485,-0.080
2991,-0.475,-0.070
2992,-0.480,-0.075
2993,-0.455,-0.060
2994,-0.430,-0.060
2995,-0.415,-0.060
2996,-0.415,-0.090
2997,-0.375,-0.100
2998,-0.350,-0.135
2999,-0.330,-0.160
3000,-0.295,-0.190
3001,-0.250,-0.220
3002,-0.230,-0.260
3003,-0.195,-0.260
3004,-0.160,-0.280
3005,-0.145,-0.315
3006,-0.140,-0.325
3007,-0.120,-0.345
3008,-0.080,-0.330
3009,-0.075,-0.335
3010,-0.075,-0.350
3011,-0.045,-0.315
3012,-0.050,-0.330
3013,-0.045,-0.300
3014,-0.060,-0.310
3015,-0.045,-0.300
3016,-0.025,-0.300
3017,-0.010,-0.310
3018,0.000,-0.300
3019,0.040,-0.270
3020,0.140,-0.260
3021,0.210,-0.250
3022,0.260,-0.270
3023,0.300,-0.270
3024,0.275,-0.350
3025,0.190,-0.390
3026,0.115,-0.375
3027,0.040,-0.345
3028,-0.010,-0.335
3029,0.000,-0.335
3030,0.015,-0.340
3031,0.030,-0.370
3032,0.055,-0.375
3033,0.075,-0.375
3034,0.090,-0.380
3035,0.095,-0.395
3036,0.105,-0.390
3037,0.105,-0.400
3038,0.130,-0.400
3039,0.125,-0.400
3040,0.125,-0.385
3041,0.160,-0.380
3042,0.190,-0.385
3043,0.265,-0.400
3044,0.440,-0.440
3045,0.600,-0.545
3046,0.710,-0.715
3047,0.735,-0.960
3048,0.780,-1.360
3049,1.260,-1.965
3050,1.685,-2.390
3051,0.990,-1.885
3052,0.265,-0.955
3053,0.105,-0.600
3054,0.075,-0.340
3055,0.055,-0.215
3056,0.010,-0.180
3057,0.000,-0.210
3058,0.000,-0.210
3059,-0.015,-0.190
3060,-0.045,-0.190
3061,-0.075,-0.185
3062,-0.100,-0.175
3063,-0.155,-0.165
3064,-0.190,-0.165
3065,-0.225,-0.170
3066,-0.280,-0.175
3067,-0.310,-0.165
3068,-0.350,-0.150
3069,-0.385,-0.130
3070,-0.420,-0.135
3071,-0.445,-0.100
3072,-0.465,-0.120
3073,-0.495,-0.105
3074,-0.490,-0.085
3075,-0.505,-0.125
3076,-0.500,-0.125
3077,-0.500,-0.150
3078,-0.505,-0.185
3079,-0.470,-0.215
3080,-0.470,-0.250
3081,-0.455,-0.270
3082,-0.430,-0.305
3083,-0.410,-0.305
3084,-0.385,-0.345
3085,-0.370,-0.345
3086,-0.360,-0.350
3087,-0.360,-0.345
3088,-0.360,-0.360
3089,-0.365,-0.350
3090,-0.360,-0.350
3091,-0.385,-0.325
3092,-0.365,-0.330
3093,-0.365,-0.320
3094,-0.350,-0.285
3095,-0.325,-0.305
3096,-0.295,-0.270
3097,-0.220,-0.275
3098,-0.130,-0.250
3099,-0.105,-0.255
3100,-0.080,-0.265
3101,-0.120,-0.330
3102,-0.195,-0.395
3103,-0.300,-0.390
3104,-0.405,-0.345
3105,-0.480,-0.290
3106,-0.510,-0.290
3107,-0.510,-0.325
3108,-0.480,-0.340
3109,-0.465,-0.350
3110,-0.450,-0.355
3111,-0.450,-0.345
3112,-0.440,-0.355
3113,-0.440,-0.335
3114,-0.440,-0.365
3115,-0.430,-0.330
3116,-0.445,-0.350
3117,-0.435,-0.325
3118,-0.450,-0.345
3119,-0.435,-0.335
3120,-0.375,-0.345
3121,-0.230,-0.350
3122,-0.110,-0.435
3123,-0.005,-0.580
3124,0.020,-0.770
3125,0.040,-1.125
3126,0.375,-1.660
3127,0.995,-2.225
3128,0.920,-2.210
3129,-0.060,-1.245
3130,-0.510,-0.660
3131,-0.590,-0.375
3132,-0.610,-0.195
3133,-0.660,-0.120
3134,-0.635,-0.110
3135,-0.645,-0.130
3136,-0.660,-0.120
3137,-0.665,-0.115
3138,-0.655,-0.110
3139,-0.670,-0.105
3140,-0.685,-0.110
3141,-0.690,-0.105
3142,-0.710,-0.080
3143,-0.710,-0.060
3144,-0.710,-0.070
3145,-0.725,-0.050
3146,-0.720,-0.060
3147,-0.735,-0.050
3148,-0.735,-0.045
3149,-0.725,-0.035
3150,-0.705,-0.045
3151,-0.710,-0.070
3152,-0.700,-0.065
3153,-0.685,-0.105
3154,-0.655,-0.115
3155,-0.630,-0.140
3156,-0.605,-0.180
3157,-0.585,-0.190
3158,-0.570,-0.240
3159,-0.545,-0.265
3160,-0.500,-0.290
3161,-0.475,-0.285
3162,-0.460,-0.300
3163,-0.445,-0.315
3164,-0.420,-0.325
3165,-0.430,-0.315
3166,-0.420,-0.315
3167,-0.410,-0.295
3168,-0.410,-0.305
3169,-0.395,-0.290
3170,-0.350,-0.290
3171,-0.325,-0.280
3172,-0.305,-0.265
3173,-0.255,-0.260
3174,-0.170,-0.225
3175,-0.140,-0.240
3176,-0.090,-0.240
3177,-0.110,-0.275
3178,-0.165,-0.355
3179,-0.260,-0.390
3180,-0.365,-0.375
3181,-0.455,-0.300
3182,-0.500,-0.275
3183,-0.485,-0.295
3184,-0.475,-0.310
3185,-0.460,-0.340
3186,-0.460,-0.345
3187,-0.455,-0.330
3188,-0.445,-0.365
3189,-0.445,-0.365
3190,-0.460,-0.380
3191,-0.455,-0.375
3192,-0.465,-0.385
3193,-0.475,-0.370
3194,-0.465,-0.370
3195,-0.455,-0.380
3196,-0.430,-0.380
3197,-0.345,-0.385
3198,-0.190,-0.430
3199,-0.080,-0.545
3200,-0.020,-0.700
3201,-0.005,-0.955
3202,0.055,-1.380
3203,0.570,-2.015
3204,1.085,-2.460
3205,0.585,-1.945
3206,-0.305,-0.980
3207,-0.580,-0.555
3208,-0.635,-0.310
3209,-0.670,-0.190
3210,-0.690,-0.150
3211,-0.680,-0.165
3212,-0.695,-0.155
3213,-0.695,-0.135
3214,-0.695,-0.125
3215,-0.700,-0.130
3216,-0.690,-0.105
3217,-0.690,-0.115
3218,-0.695,-0.105
3219,-0.705,-0.095
3220,-0.710,-0.080
3221,-0.700,-0.070
3222,-0.735,-0.065
3223,-0.730,-0.065
3224,-0.720,-0.070
3225,-0.730,-0.075
3226,-0.720,-0.050
3227,-0.690,-0.065
3228,-0.675,-0.070
3229,-0.670,-0.095
3230,-0.655,-0.105
3231,-0.625,-0.125
3232,-0.610,-0.165
3233,-0.580,-0.195
3234,-0.550,-0.230
3235,-0.530,-0.255
3236,-0.500,-0.295
3237,-0.480,-0.300
3238,-0.485,-0.290
3239,-0.440,-0.320
3240,-0.420,-0.310
3241,-0.415,-0.330
3242,-0.400,-0.315
3243,-0.390,-0.305
3244,-0.390,-0.320
3245,-0.395,-0.310
3246,-0.380,-0.280
3247,-0.325,-0.300
3248,-0.305,-0.285
3249,-0.300,-0.260
3250,-0.215,-0.240
3251,-0.150,-0.220
3252,-0.105,-0.215
3253,-0.085,-0.225
3254,-0.100,-0.285
3255,-0.200,-0.360
3256,-0.290,-0.360
3257,-0.380,-0.345
3258,-0.465,-0.280
3259,-0.455,-0.260
3260,-0.440,-0.300
3261,-0.420,-0.320
3262,-0.415,-0.320
3263,-0.400,-0.340
3264,-0.380,-0.350
3265,-0.390,-0.350
3266,-0.380,-0.330
3267,-0.380,-0.330
3268,-0.390,-0.340
3269,-0.390,-0.350
3270,-0.400,-0.350
3271,-0.395,-0.345
3272,-0.380,-0.345
3273,-0.355,-0.345
3274,-0.245,-0.370
3275,-0.100,-0.410
3276,-0.015,-0.550
3277,0.045,-0.730
3278,0.070,-1.025
3279,0.250,-1.540
3280,0.850,-2.155
3281,1.115,-2.415
3282,0.290,-1.640
3283,-0.395,-0.840
3284,-0.550,-0.495
3285,-0.560,-0.255
3286,-0.590,-0.180
3287,-0.590,-0.155
3288,-0.610,-0.155
3289,-0.620,-0.140
3290,-0.600,-0.135
3291,-0.610,-0.135
3292,-0.620,-0.125
3293,-0.625,-0.110
3294,-0.635,-0.125
3295,-0.650,-0.110
3296,-0.650,-0.110
3297,-0.645,-0.100
3298,-0.650,-0.095
3299,-0.650,-0.105
3300,-0.655,-0.080
3301,-0.660,-0.085
3302,-0.640,-0.080
3303,-0.640,-0.075
3304,-0.590,-0.070
3305,-0.570,-0.115
3306,-0.545,-0.105
3307,-0.525,-0.135
3308,-0.505,-0.170
3309,-0.480,-0.195
3310,-0.475,-0.230
3311,-0.445,-0.270
3312,-0.415,-0.330
3313,-0.385,-0.330
3314,-0.365,-0.350
3315,-0.320,-0.365
3316,-0.325,-0.370
3317,-0.320,-0.365
3318,-0.300,-0.375
3319,-0.300,-0.380
3320,-0.305,-0.355
3321,-0.300,-0.360
3322,-0.290,-0.350
3323,-0.285,-0.335
3324,-0.295,-0.325
3325,-0.285,-0.355
3326,-0.265,-0.315
3327,-0.255,-0.315
3328,-0.200,-0.320
3329,-0.105,-0.300
3330,-0.030,-0.300
3331,0.005,-0.310
3332,0.010,-0.335
3333,-0.015,-0.405
3334,-0.125,-0.430
3335,-0.195,-0.425
3336,-0.290,-0.385
3337,-0.340,-0.325
3338,-0.350,-0.365
3339,-0.325,-0.380
3340,-0.325,-0.405
3341,-0.310,-0.400
3342,-0.300,-0.395
3343,-0.285,-0.415
3344,-0.270,-0.410
3345,-0.280,-0.390
3346,-0.290,-0.395
3347,-0.255,-0.395
3348,-0.235,-0.405
3349,-0.245,-0.415
3350,-0.235,-0.415
3351,-0.195,-0.415
3352,-0.125,-0.420
3353,0.045,-0.475
3354,0.175,-0.580
3355,0.285,-0.720
3356,0.275,-1.005
3357,0.360,-1.440
3358,0.865,-2.055
3359,1.230,-2.425
3360,0.550,-1.835
3361,-0.135,-0.930
3362,-0.325,-0.565
3363,-0.345,-0.320
3364,-0.350,-0.225
3365,-0.390,-0.195
3366,-0.400,-0.195
3367,-0.390,-0.170
3368,-0.395,-0.175
3369,-0.395,-0.170
3370,-0.390,-0.165
3371,-0.390,-0.155
3372,-0.390,-0.170
3373,-0.385,-0.160
3374,-0.400,-0.165
3375,-0.420,-0.170
3376,-0.390,-0.155
3377,-0.390,-0.145
3378,-0.385,-0.140
3379,-0.360,-0.115
3380,-0.375,-0.125
3381,-0.350,-0.115
3382,-0.340,-0.130
3383,-0.315,-0.120
3384,-0.300,-0.150
3385,-0.260,-0.140
3386,-0.245,-0.170
3387,-0.215,-0.210
3388,-0.185,-0.230
3389,-0.180,-0.250
3390,-0.165,-0.295
3391,-0.115,-0.335
3392,-0.050,-0.340
3393,-0.030,-0.360
3394,-0.005,-0.375
3395,-0.005,-0.375
3396,0.000,-0.390
3397,0.020,-0.365
3398,0.030,-0.360
3399,0.045,-0.365
3400,0.055,-0.350
3401,0.055,-0.350
3402,0.040,-0.345
3403,0.045,-0.345
3404,0.055,-0.360
3405,0.090,-0.350
3406,0.110,-0.340
3407,0.115,-0.315
3408,0.185,-0.305
3409,0.300,-0.295
3410,0.370,-0.280
3411,0.400,-0.300
3412,0.395,-0.335
3413,0.310,-0.420
3414,0.230,-0.445
3415,0.140,-0.425
3416,0.090,-0.385
3417,0.070,-0.380
3418,0.075,-0.405
3419,0.100,-0.395
3420,0.105,-0.425
3421,0.130,-0.425
3422,0.135,-0.415
3423,0.135,-0.405
3424,0.135,-0.410
3425,0.135,-0.430
3426,0.145,-0.415
3427,0.130,-0.430
3428,0.110,-0.425
3429,0.130,-0.430
3430,0.140,-0.450
3431,0.165,-0.425
3432,0.265,-0.470
3433,0.440,-0.530
3434,0.560,-0.660
3435,0.605,-0.825
3436,0.590,-1.170
3437,0.830,-1.700
3438,1.425,-2.290
3439,1.230,-2.215
3440,0.255,-1.240
3441,-0.135,-0.725
3442,-0.220,-0.420
3443,-0.275,-0.265
3444,-0.315,-0.190
3445,-0.370,-0.205
3446,-0.380,-0.205
3447,-0.405,-0.200
3448,-0.420,-0.185
3449,-0.440,-0.190
3450,-0.460,-0.195
3451,-0.485,-0.185
3452,-0.515,-0.185
3453,-0.540,-0.175
3454,-0.550,-0.160
3455,-0.580,-0.160
3456,-0.585,-0.150
3457,-0.585,-0.140
3458,-0.600,-0.120
3459,-0.600,-0.140
3460,-0.595,-0.120
3461,-0.600,-0.120
3462,-0.595,-0.130
3463,-0.575,-0.150
3464,-0.565,-0.165
3465,-0.540,-0.180
3466,-0.525,-0.215
3467,-0.520,-0.250
3468,-0.495,-0.290
3469,-0.475,-0.310
3470,-0.435,-0.340
3471,-0.405,-0.360
3472,-0.380,-0.375
3473,-0.380,-0.385
3474,-0.355,-0.390
3475,-0.335,-0.395
3476,-0.350,-0.380
3477,-0.330,-0.375
3478,-0.300,-0.370
3479,-0.305,-0.375
3480,-0.305,-0.375
3481,-0.285,-0.375
3482,-0.285,-0.370
3483,-0.245,-0.360
3484,-0.255,-0.350
3485,-0.200,-0.305
3486,-0.125,-0.270
3487,-0.070,-0.280
3488,-0.025,-0.305
3489,-0.025,-0.325
3490,-0.085,-0.405
3491,-0.165,-0.440
3492,-0.275,-0.415
3493,-0.370,-0.340
3494,-0.405,-0.345
3495,-0.400,-0.345
3496,-0.395,-0.355
3497,-0.390,-0.370
3498,-0.395,-0.360
3499,-0.385,-0.380
3500,-0.380,-0.375
3501,-0.390,-0.370
3502,-0.385,-0.380
3503,-0.370,-0.385
3504,-0.385,-0.390
3505,-0.380,-0.405
3506,-0.365,-0.410
3507,-0.365,-0.415
3508,-0.345,-0.415
3509,-0.270,-0.400
3510,-0.130,-0.425
3511,-0.015,-0.545
3512,0.055,-0.690
3513,0.065,-0.940
3514,0.135,-1.380
3515,0.660,-1.995
3516,1.160,-2.425
3517,0.660,-1.910
3518,-0.285,-0.990
3519,-0.525,-0.570
3520,-0.565,-0.335
3521,-0.605,-0.215
3522,-0.580,-0.170
3523,-0.590,-0.165
3524,-0.600,-0.160
3525,-0.585,-0.155
3526,-0.600,-0.150
3527,-0.595,-0.145
3528,-0.615,-0.130
3529,-0.620,-0.125
3530,-0.620,-0.105
3531,-0.630,-0.115
3532,-0.645,-0.105
3533,-0.655,-0.095
3534,-0.675,-0.095
3535,-0.660,-0.095
3536,-0.660,-0.060
3537,-0.660,-0.080
3538,-0.655,-0.075
3539,-0.635,-0.070
3540,-0.630,-0.080
3541,-0.620,-0.115
3542,-0.610,-0.135
3543,-0.590,-0.145
3544,-0.585,-0.175
3545,-0.550,-0.235
3546,-0.550,-0.255
3547,-0.505,-0.290
3548,-0.485,-0.310
3549,-0.445,-0.320
3550,-0.425,-0.365
3551,-0.400,-0.360
3552,-0.390,-0.350
3553,-0.380,-0.365
3554,-0.380,-0.360
3555,-0.370,-0.345
3556,-0.360,-0.360
3557,-0.355,-0.340
3558,-0.370,-0.345
3559,-0.325,-0.380
3560,-0.305,-0.345
3561,-0.310,-0.325
3562,-0.250,-0.295
3563,-0.170,-0.250
3564,-0.125,-0.285
3565,-0.075,-0.280
3566,-0.095,-0.335
3567,-0.155,-0.405
3568,-0.255,-0.405
3569,-0.345,-0.410
3570,-0.415,-0.345
3571,-0.450,-0.345
3572,-0.465,-0.350
3573,-0.450,-0.360
3574,-0.440,-0.385
3575,-0.445,-0.385
3576,-0.420,-0.395
3577,-0.440,-0.390
3578,-0.415,-0.405
3579,-0.420,-0.410
3580,-0.430,-0.390
3581,-0.420,-0.405
3582,-0.410,-0.415
3583,-0.415,-0.420
3584,-0.415,-0.410
3585,-0.380,-0.415
3586,-0.300,-0.435
3587,-0.155,-0.455
3588,-0.070,-0.600
3589,-0.005,-0.770
3590,0.000,-1.080
3591,0.165,-1.600
3592,0.755,-2.220
3593,1.075,-2.500
3594,0.295,-1.765
3595,-0.415,-0.905
3596,-0.580,-0.525
3597,-0.610,-0.330
3598,-0.655,-0.205
3599,-0.645,-0.195
3600,-0.670,-0.190
3601,-0.660,-0.185
3602,-0.670,-0.180
3603,-0.665,-0.160
3604,-0.685,-0.160
3605,-0.690,-0.145
3606,-0.700,-0.150
3607,-0.695,-0.130
3608,-0.710,-0.120
3609,-0.705,-0.110
3610,-0.715,-0.115
3611,-0.710,-0.095
3612,-0.695,-0.080
3613,-0.710,-0.090
3614,-0.690,-0.085
3615,-0.680,-0.085
3616,-0.660,-0.095
3617,-0.665,-0.085
3618,-0.630,-0.130
3619,-0.620,-0.140
3620,-0.605,-0.170
3621,-0.580,-0.190
3622,-0.560,-0.215
3623,-0.535,-0.250
3624,-0.515,-0.290
3625,-0.470,-0.305
3626,-0.445,-0.320
3627,-0.435,-0.310
3628,-0.405,-0.320
3629,-0.395,-0.350
3630,-0.380,-0.345
3631,-0.385,-0.340
3632,-0.390,-0.320
3633,-0.365,-0.335
3634,-0.345,-0.315
3635,-0.345,-0.340
3636,-0.335,-0.340
3637,-0.295,-0.315
3638,-0.270,-0.315
3639,-0.210,-0.270
3640,-0.135,-0.270
3641,-0.095,-0.260
3642,-0.040,-0.250
3643,-0.045,-0.315
3644,-0.125,-0.400
3645,-0.215,-0.405
3646,-0.310,-0.375
3647,-0.415,-0.330
3648,-0.440,-0.315
3649,-0.440,-0.320
3650,-0.410,-0.365
3651,-0.410,-0.375
3652,-0.385,-0.365
3653,-0.370,-0.355
3654,-0.365,-0.370
3655,-0.335,-0.390
3656,-0.335,-0.410
3657,-0.340,-0.405
3658,-0.320,-0.395
3659,-0.320,-0.400
3660,-0.325,-0.400
3661,-0.315,-0.390
3662,-0.300,-0.395
3663,-0.195,-0.405
3664,-0.020,-0.460
3665,0.090,-0.575
3666,0.145,-0.750
3667,0.155,-1.060
3668,0.275,-1.560
3669,0.875,-2.185
3670,1.180,-2.465
3671,0.355,-1.680
3672,-0.275,-0.885
3673,-0.410,-0.535
3674,-0.435,-0.305
3675,-0.475,-0.215
3676,-0.495,-0.205
3677,-0.505,-0.185
3678,-0.505,-0.180
3679,-0.490,-0.200
3680,-0.480,-0.195
3681,-0.480,-0.190
3682,-0.495,-0.195
3683,-0.515,-0.185
3684,-0.500,-0.180
3685,-0.495,-0.170
3686,-0.495,-0.185
3687,-0.510,-0.170
3688,-0.510,-0.155
3689,-0.495,-0.155
3690,-0.495,-0.170
3691,-0.485,-0.160
3692,-0.465,-0.140
3693,-0.450,-0.140
3694,-0.425,-0.165
3695,-0.420,-0.185
3696,-0.400,-0.205
3697,-0.365,-0.240
3698,-0.335,-0.260
3699,-0.310,-0.320
3700,-0.285,-0.330
3701,-0.265,-0.355
3702,-0.225,-0.370
3703,-0.215,-0.390
3704,-0.185,-0.420
3705,-0.160,-0.430
3706,-0.155,-0.425
3707,-0.140,-0.425
3708,-0.135,-0.420
3709,-0.140,-0.425
3710,-0.135,-0.405
3711,-0.135,-0.385
3712,-0.125,-0.400
3713,-0.115,-0.400
3714,-0.135,-0.395
3715,-0.110,-0.400
3716,-0.085,-0.370
3717,-0.090,-0.365
3718,-0.025,-0.350
3719,0.075,-0.335
3720,0.130,-0.355
3721,0.190,-0.355
3722,0.180,-0.400
3723,0.125,-0.460
3724,0.045,-0.500
3725,-0.060,-0.450
3726,-0.140,-0.420
3727,-0.165,-0.395
3728,-0.135,-0.405
3729,-0.115,-0.430
3730,-0.105,-0.450
3731,-0.075,-0.455
3732,-0.075,-0.465
3733,-0.070,-0.445
3734,-0.060,-0.460
3735,-0.065,-0.460
3736,-0.035,-0.490
3737,-0.030,-0.465
3738,-0.030,-0.465
3739,0.000,-0.465
3740,-0.005,-0.465
3741,0.040,-0.480
3742,0.170,-0.505
3743,0.340,-0.550
3744,0.485,-0.690
3745,0.590,-0.845
3746,0.610,-1.185
3747,0.785,-1.675
3748,1.375,-2.280
3749,1.350,-2.340
3750,0.440,-1.410
3751,0.040,-0.810
3752,0.005,-0.485
3753,0.010,-0.315
3754,-0.040,-0.245
3755,-0.020,-0.245
3756,0.005,-0.240
3757,0.000,-0.245
3758,0.020,-0.235
3759,0.030,-0.230
3760,0.005,-0.205
3761,0.030,-0.210
3762,0.040,-0.205
3763,0.045,-0.200
3764,0.040,-0.210
3765,0.045,-0.200
3766,0.060,-0.195
3767,0.075,-0.180
3768,0.070,-0.180
3769,0.090,-0.165
3770,0.080,-0.160
3771,0.115,-0.170
3772,0.115,-0.175
3773,0.150,-0.185
3774,0.165,-0.205
3775,0.165,-0.210
3776,0.195,-0.250
3777,0.175,-0.260
3778,0.180,-0.305
3779,0.185,-0.340
3780,0.220,-0.380
3781,0.205,-0.390
3782,0.210,-0.415
3783,0.220,-0.420
3784,0.205,-0.435
3785,0.175,-0.425
3786,0.160,-0.440
3787,0.115,-0.410
3788,0.085,-0.430
3789,0.050,-0.410
3790,0.010,-0.415
3791,-0.030,-0.415
3792,-0.050,-0.415
3793,-0.105,-0.380
3794,-0.120,-0.395
3795,-0.130,-0.400
3796,-0.115,-0.375
3797,-0.075,-0.365
3798,-0.035,-0.335
3799,0.015,-0.340
3800,0.020,-0.360
3801,0.000,-0.410
3802,-0.095,-0.485
3803,-0.200,-0.475
3804,-0.320,-0.440
3805,-0.405,-0.375
3806,-0.445,-0.400
3807,-0.455,-0.410
3808,-0.470,-0.415
3809,-0.455,-0.420
3810,-0.445,-0.445
3811,-0.460,-0.455
3812,-0.460,-0.470
3813,-0.455,-0.460
3814,-0.470,-0.450
3815,-0.470,-0.450
3816,-0.460,-0.455
3817,-0.475,-0.460
3818,-0.490,-0.455
3819,-0.465,-0.460
3820,-0.435,-0.465
3821,-0.305,-0.480
3822,-0.165,-0.555
3823,-0.075,-0.715
3824,-0.025,-0.905
3825,0.010,-1.250
3826,0.350,-1.800
3827,0.985,-2.340
3828,0.845,-2.230
3829,-0.145,-1.325
3830,-0.610,-0.770
3831,-0.680,-0.500
3832,-0.685,-0.335
3833,-0.730,-0.255
3834,-0.725,-0.240
3835,-0.740,-0.230
3836,-0.740,-0.225
3837,-0.750,-0.220
3838,-0.740,-0.230
3839,-0.755,-0.215
3840,-0.775,-0.205
3841,-0.770,-0.200
3842,-0.790,-0.185
3843,-0.790,-0.190
3844,-0.790,-0.170
3845,-0.795,-0.175
3846,-0.825,-0.175
3847,-0.800,-0.170
3848,-0.795,-0.145
3849,-0.785,-0.135
3850,-0.795,-0.130
3851,-0.780,-0.140
3852,-0.770,-0.165
3853,-0.755,-0.185
3854,-0.740,-0.200
3855,-0.710,-0.225
3856,-0.700,-0.275
3857,-0.670,-0.310
3858,-0.650,-0.330
3859,-0.610,-0.360
3860,-0.595,-0.375
3861,-0.570,-0.390
3862,-0.550,-0.375
3863,-0.535,-0.385
3864,-0.510,-0.420
3865,-0.510,-0.410
3866,-0.505,-0.400
3867,-0.495,-0.400
3868,-0.505,-0.375
3869,-0.500,-0.365
3870,-0.490,-0.365
3871,-0.470,-0.335
3872,-0.445,-0.345
3873,-0.410,-0.330
3874,-0.305,-0.295
3875,-0.255,-0.280
3876,-0.205,-0.300
3877,-0.185,-0.305
3878,-0.185,-0.385
3879,-0.290,-0.415
3880,-0.390,-0.415
3881,-0.485,-0.360
3882,-0.560,-0.320
3883,-0.560,-0.340
3884,-0.555,-0.345
3885,-0.535,-0.380
3886,-0.535,-0.370
3887,-0.515,-0.390
3888,-0.510,-0.395
3889,-0.510,-0.395
3890,-0.505,-0.385
3891,-0.510,-0.375
3892,-0.500,-0.380
3893,-0.510,-0.390
3894,-0.510,-0.400
3895,-0.500,-0.390
3896,-0.495,-0.380
3897,-0.430,-0.390
3898,-0.315,-0.435
3899,-0.165,-0.500
3900,-0.090,-0.650
3901,-0.050,-0.830
3902,-0.030,-1.215
3903,0.290,-1.805
3904,0.935,-2.400
3905,0.925,-2.320
3906,-0.085,-1.310
3907,-0.580,-0.715
3908,-0.665,-0.415
3909,-0.675,-0.255
3910,-0.710,-0.180
3911,-0.710,-0.165
3912,-0.715,-0.145
3913,-0.730,-0.140
3914,-0.750,-0.140
3915,-0.735,-0.120
3916,-0.745,-0.125
3917,-0.755,-0.110
3918,-0.760,-0.095
3919,-0.745,-0.095
3920,-0.755,-0.080
3921,-0.770,-0.105
3922,-0.760,-0.080
3923,-0.770,-0.080
3924,-0.745,-0.080
3925,-0.740,-0.070
3926,-0.760,-0.065
3927,-0.755,-0.060
3928,-0.745,-0.075
3929,-0.725,-0.075
3930,-0.700,-0.105
3931,-0.675,-0.125
3932,-0.685,-0.140
3933,-0.645,-0.180
3934,-0.625,-0.220
3935,-0.595,-0.245
3936,-0.565,-0.250
3937,-0.545,-0.300
3938,-0.520,-0.315
3939,-0.485,-0.320
3940,-0.485,-0.325
3941,-0.485,-0.340
3942,-0.470,-0.345
3943,-0.460,-0.345
3944,-0.460,-0.330
3945,-0.445,-0.325
3946,-0.445,-0.340
3947,-0.440,-0.310
3948,-0.415,-0.310
3949,-0.410,-0.325
3950,-0.395,-0.310
3951,-0.305,-0.280
3952,-0.255,-0.270
3953,-0.210,-0.260
3954,-0.175,-0.275
3955,-0.205,-0.350
3956,-0.300,-0.410
3957,-0.405,-0.405
3958,-0.515,-0.360
3959,-0.560,-0.335
3960,-0.580,-0.315
3961,-0.565,-0.340
3962,-0.535,-0.370
3963,-0.510,-0.365
3964,-0.505,-0.380
3965,-0.525,-0.375
3966,-0.505,-0.380
3967,-0.490,-0.390
3968,-0.525,-0.395
3969,-0.485,-0.395
3970,-0.500,-0.385
3971,-0.505,-0.375
3972,-0.500,-0.380
3973,-0.500,-0.390
3974,-0.465,-0.405
3975,-0.330,-0.425
3976,-0.190,-0.490
3977,-0.115,-0.645
3978,-0.075,-0.830
3979,-0.055,-1.230
3980,0.260,-1.805
3981,0.885,-2.375
3982,0.825,-2.305
3983,-0.120,-1.315
3984,-0.600,-0.715
3985,-0.690,-0.415
3986,-0.705,-0.255
3987,-0.735,-0.200
3988,-0.735,-0.185
3989,-0.740,-0.180
3990,-0.760,-0.175
3991,-0.760,-0.170
3992,-0.765,-0.150
3993,-0.760,-0.155
3994,-0.780,-0.135
3995,-0.790,-0.145
3996,-0.770,-0.105
3997,-0.785,-0.110
3998,-0.785,-0.110
3999,-0.795,-0.105
4000,-0.780,-0.100
4001,-0.780,-0.090
4002,-0.785,-0.095
4003,-0.770,-0.085
4004,-0.760,-0.105
4005,-0.740,-0.095
4006,-0.700,-0.105
4007,-0.665,-0.140
4008,-0.655,-0.160
4009,-0.620,-0.175
4010,-0.595,-0.220
4011,-0.575,-0.240
4012,-0.540,-0.275
4013,-0.515,-0.305
4014,-0.475,-0.305
4015,-0.455,-0.335
4016,-0.445,-0.330
4017,-0.420,-0.340
4018,-0.415,-0.370
4019,-0.390,-0.350
4020,-0.370,-0.355
4021,-0.365,-0.345
4022,-0.375,-0.345
4023,-0.365,-0.320
4024,-0.365,-0.315
4025,-0.360,-0.315
4026,-0.335,-0.320
4027,-0.330,-0.305
4028,-0.320,-0.315
4029,-0.275,-0.290
4030,-0.190,-0.275
4031,-0.120,-0.245
4032,-0.075,-0.285
4033,-0.065,-0.290
4034,-0.060,-0.375
4035,-0.200,-0.415
4036,-0.270,-0.410
4037,-0.355,-0.380
4038,-0.410,-0.335
4039,-0.415,-0.355
4040,-0.410,-0.380
4041,-0.375,-0.375
4042,-0.365,-0.405
4043,-0.350,-0.405
4044,-0.335,-0.400
4045,-0.345,-0.390
4046,-0.345,-0.405
4047,-0.315,-0.415
4048,-0.315,-0.405
4049,-0.290,-0.410
4050,-0.275,-0.400
4051,-0.260,-0.410
4052,-0.260,-0.400
4053,-0.180,-0.425
4054,-0.015,-0.435
4055,0.125,-0.555
4056,0.245,-0.690
4057,0.280,-0.930
4058,0.305,-1.340
4059,0.720,-1.940
4060,1.220,-2.410
4061,0.735,-2.020
4062,-0.070,-1.075
4063,-0.310,-0.645
4064,-0.315,-0.385
4065,-0.365,-0.240
4066,-0.400,-0.200
4067,-0.375,-0.205
4068,-0.360,-0.210
4069,-0.380,-0.210
4070,-0.360,-0.200
4071,-0.380,-0.205
4072,-0.365,-0.210
4073,-0.360,-0.195
4074,-0.350,-0.225
4075,-0.360,-0.205
4076,-0.330,-0.205
4077,-0.315,-0.205
4078,-0.335,-0.190
4079,-0.330,-0.200
4080,-0.335,-0.195
4081,-0.310,-0.170
4082,-0.290,-0.205
4083,-0.255,-0.200
4084,-0.250,-0.205
4085,-0.235,-0.200
4086,-0.235,-0.230
4087,-0.180,-0.245
4088,-0.160,-0.260
4089,-0.125,-0.315
4090,-0.095,-0.345
4091,-0.085,-0.380
4092,-0.050,-0.385
4093,-0.020,-0.395
4094,0.000,-0.425
4095,0.025,-0.445
4096,0.045,-0.445
4097,0.065,-0.450
4098,0.065,-0.450
4099,0.080,-0.445
4100,0.085,-0.425
4101,0.100,-0.435
4102,0.095,-0.435
4103,0.090,-0.420
4104,0.090,-0.420
4105,0.095,-0.395
4106,0.105,-0.410
4107,0.150,-0.420
4108,0.155,-0.420
4109,0.175,-0.380
4110,0.265,-0.350
4111,0.315,-0.350
4112,0.385,-0.355
4113,0.445,-0.360
4114,0.430,-0.420
4115,0.345,-0.495
4116,0.280,-0.515
4117,0.195,-0.485
4118,0.125,-0.440
4119,0.115,-0.415
4120,0.135,-0.455
4121,0.150,-0.485
4122,0.160,-0.465
4123,0.165,-0.450
4124,0.175,-0.490
4125,0.165,-0.475
4126,0.155,-0.490
4127,0.155,-0.505
4128,0.145,-0.500
4129,0.145,-0.485
4130,0.115,-0.495
4131,0.100,-0.475
4132,0.100,-0.470
4133,0.125,-0.495
4134,0.230,-0.485
4135,0.355,-0.585
4136,0.445,-0.720
4137,0.490,-0.885
4138,0.470,-1.250
4139,0.735,-1.805
4140,1.335,-2.350
4141,1.075,-2.235
4142,0.080,-1.240
4143,-0.290,-0.740
4144,-0.365,-0.435
4145,-0.405,-0.260
4146,-0.470,-0.225
4147,-0.485,-0.220
4148,-0.510,-0.205
4149,-0.540,-0.210
4150,-0.550,-0.205
4151,-0.565,-0.175
4152,-0.580,-0.175
4153,-0.595,-0.180
4154,-0.615,-0.175
4155,-0.650,-0.165
4156,-0.655,-0.165
4157,-0.660,-0.145
4158,-0.660,-0.145
4159,-0.690,-0.160
4160,-0.675,-0.145
4161,-0.680,-0.150
4162,-0.670,-0.130
4163,-0.685,-0.140
4164,-0.665,-0.150
4165,-0.675,-0.170
4166,-0.635,-0.175
4167,-0.625,-0.200
4168,-0.615,-0.235
4169,-0.585,-0.250
4170,-0.575,-0.310
4171,-0.520,-0.345
4172,-0.510,-0.380
4173,-0.490,-0.390
4174,-0.465,-0.410
4175,-0.450,-0.415
4176,-0.425,-0.430
4177,-0.405,-0.405
4178,-0.395,-0.415
4179,-0.385,-0.415
4180,-0.375,-0.435
4181,-0.380,-0.390
4182,-0.395,-0.405
4183,-0.380,-0.430
4184,-0.390,-0.405
4185,-0.335,-0.390
4186,-0.330,-0.380
4187,-0.320,-0.360
4188,-0.240,-0.335
4189,-0.180,-0.310
4190,-0.125,-0.335
4191,-0.095,-0.355
4192,-0.120,-0.425
4193,-0.185,-0.480
4194,-0.290,-0.475
4195,-0.380,-0.425
4196,-0.465,-0.380
4197,-0.470,-0.390
4198,-0.465,-0.410
4199,-0.485,-0.425
4200,-0.450,-0.455
4201,-0.450,-0.435
4202,-0.435,-0.445
4203,-0.430,-0.455
4204,-0.440,-0.460
4205,-0.460,-0.460
4206,-0.450,-0.465
4207,-0.450,-0.470
4208,-0.445,-0.460
4209,-0.445,-0.470
4210,-0.430,-0.485
4211,-0.385,-0.475
4212,-0.255,-0.490
4213,-0.145,-0.570
4214,-0.045,-0.715
4215,0.000,-0.900
4216,0.010,-1.290
4217,0.340,-1.830
4218,0.965,-2.395
4219,0.920,-2.345
4220,-0.055,-1.345
4221,-0.540,-0.770
4222,-0.615,-0.495
4223,-0.625,-0.340
4224,-0.655,-0.235
4225,-0.655,-0.240
4226,-0.665,-0.225
4227,-0.680,-0.205
4228,-0.680,-0.205
4229,-0.675,-0.210
4230,-0.685,-0.205
4231,-0.700,-0.185
4232,-0.705,-0.190
4233,-0.705,-0.185
4234,-0.730,-0.175
4235,-0.725,-0.190
4236,-0.730,-0.160
4237,-0.730,-0.160
4238,-0.755,-0.155
4239,-0.730,-0.145
4240,-0.725,-0.145
4241,-0.710,-0.145
4242,-0.705,-0.145
4243,-0.695,-0.160
4244,-0.725,-0.185
4245,-0.685,-0.190
4246,-0.655,-0.230
4247,-0.640,-0.250
4248,-0.605,-0.320
4249,-0.585,-0.345
4250,-0.560,-0.365
4251,-0.550,-0.390
4252,-0.525,-0.410
4253,-0.510,-0.410
4254,-0.490,-0.415
4255,-0.495,-0.415
4256,-0.485,-0.415
4257,-0.485,-0.415
4258,-0.470,-0.400
4259,-0.460,-0.405
4260,-0.465,-0.390
4261,-0.445,-0.390
4262,-0.410,-0.375
4263,-0.390,-0.355
4264,-0.380,-0.345
4265,-0.285,-0.305
4266,-0.210,-0.310
4267,-0.155,-0.325
4268,-0.160,-0.350
4269,-0.240,-0.420
4270,-0.320,-0.465
4271,-0.415,-0.440
4272,-0.510,-0.395
4273,-0.555,-0.360
4274,-0.545,-0.345
4275,-0.520,-0.360
4276,-0.520,-0.400
4277,-0.505,-0.400
4278,-0.510,-0.405
4279,-0.490,-0.410
4280,-0.485,-0.405
4281,-0.470,-0.395
4282,-0.490,-0.390
4283,-0.475,-0.425
4284,-0.475,-0.410
4285,-0.470,-0.400
4286,-0.480,-0.425
4287,-0.460,-0.410
4288,-0.395,-0.425
4289,-0.220,-0.450
4290,-0.105,-0.570
4291,-0.050,-0.720
4292,-0.025,-0.990
4293,0.050,-1.455
4294,0.585,-2.065
4295,1.050,-2.475
4296,0.480,-1.900
4297,-0.360,-1.000
4298,-0.615,-0.610
4299,-0.645,-0.360
4300,-0.675,-0.230
4301,-0.695,-0.200
4302,-0.705,-0.180
4303,-0.710,-0.195
4304,-0.715,-0.175
4305,-0.710,-0.160
4306,-0.730,-0.150
4307,-0.725,-0.130
4308,-0.745,-0.140
4309,-0.740,-0.125
4310,-0.740,-0.125
4311,-0.735,-0.140
4312,-0.745,-0.110
4313,-0.730,-0.090
4314,-0.735,-0.080
4315,-0.725,-0.070
4316,-0.740,-0.090
4317,-0.725,-0.075
4318,-0.720,-0.085
4319,-0.710,-0.100
4320,-0.680,-0.110
4321,-0.680,-0.130
4322,-0.660,-0.175
4323,-0.635,-0.205
4324,-0.630,-0.225
4325,-0.600,-0.255
4326,-0.565,-0.285
4327,-0.545,-0.310
4328,-0.520,-0.345
4329,-0.515,-0.350
4330,-0.490,-0.355
4331,-0.495,-0.370
4332,-0.490,-0.360
4333,-0.495,-0.350
4334,-0.485,-0.340
4335,-0.480,-0.365
4336,-0.470,-0.355
4337,-0.465,-0.350
4338,-0.445,-0.345
4339,-0.425,-0.340
4340,-0.415,-0.325
4341,-0.365,-0.300
4342,-0.290,-0.300
4343,-0.260,-0.300
4344,-0.225,-0.305
4345,-0.220,-0.360
4346,-0.305,-0.415
4347,-0.410,-0.445
4348,-0.500,-0.405
4349,-0.565,-0.385
4350,-0.630,-0.340
4351,-0.595,-0.370
4352,-0.590,-0.375
4353,-0.575,-0.375
4354,-0.550,-0.395
4355,-0.525,-0.400
4356,-0.505,-0.405
4357,-0.505,-0.420
4358,-0.500,-0.415
4359,-0.480,-0.425
4360,-0.475,-0.415
4361,-0.480,-0.425
4362,-0.490,-0.410
4363,-0.475,-0.415
4364,-0.425,-0.415
4365,-0.315,-0.420
4366,-0.160,-0.485
4367,-0.030,-0.605
4368,0.015,-0.770
4369,0.000,-1.120
4370,0.195,-1.625
4371,0.795,-2.285
4372,0.930,-2.455
4373,0.045,-1.510
4374,-0.485,-0.805
4375,-0.580,-0.460
4376,-0.600,-0.280
4377,-0.655,-0.200
4378,-0.655,-0.200
4379,-0.645,-0.185
4380,-0.640,-0.190
4381,-0.640,-0.195
4382,-0.650,-0.185
4383,-0.640,-0.175
4384,-0.645,-0.170
4385,-0.645,-0.175
4386,-0.635,-0.175
4387,-0.630,-0.170
4388,-0.650,-0.160
4389,-0.630,-0.155
4390,-0.670,-0.145
4391,-0.655,-0.115
4392,-0.650,-0.110
4393,-0.630,-0.135
4394,-0.610,-0.120
4395,-0.590,-0.120
4396,-0.590,-0.135
4397,-0.565,-0.150
4398,-0.510,-0.145
4399,-0.485,-0.205
4400,-0.460,-0.220
4401,-0.425,-0.240
4402,-0.405,-0.275
4403,-0.370,-0.305
4404,-0.325,-0.330
4405,-0.300,-0.330
4406,-0.295,-0.345
4407,-0.290,-0.330
4408,-0.255,-0.340
4409,-0.245,-0.345
4410,-0.250,-0.345
4411,-0.220,-0.345
4412,-0.230,-0.320
4413,-0.225,-0.315
4414,-0.225,-0.310
4415,-0.225,-0.295
4416,-0.220,-0.290
4417,-0.140,-0.305
4418,-0.160,-0.280
4419,-0.160,-0.270
4420,-0.090,-0.275
4421,0.000,-0.270
4422,0.085,-0.270
4423,0.125,-0.265
4424,0.125,-0.290
4425,0.075,-0.375
4426,-0.015,-0.395
4427,-0.100,-0.380
4428,-0.160,-0.335
4429,-0.190,-0.320
4430,-0.175,-0.340
4431,-0.140,-0.375
4432,-0.110,-0.375
4433,-0.085,-0.370
4434,-0.085,-0.365
4435,-0.060,-0.380
4436,-0.070,-0.390
4437,-0.050,-0.370
4438,-0.025,-0.385
4439,-0.010,-0.380
4440,-0.005,-0.375
4441,-0.005,-0.375
4442,0.010,-0.380
4443,0.075,-0.380
4444,0.180,-0.415
4445,0.345,-0.465
4446,0.495,-0.585
4447,0.605,-0.760
4448,0.615,-1.080
4449,0.805,-1.550
4450,1.390,-2.150
4451,1.385,-2.235
4452,0.470,-1.360
4453,0.050,-0.790
4454,0.000,-0.440
4455,0.000,-0.250
4456,-0.035,-0.175
4457,-0.020,-0.155
4458,-0.025,-0.170
4459,-0.025,-0.165
4460,-0.015,-0.170
4461,0.005,-0.170
4462,0.000,-0.175
4463,0.005,-0.170
4464,-0.005,-0.150
4465,-0.005,-0.170
4466,-0.010,-0.180
4467,-0.020,-0.170
4468,-0.025,-0.150
4469,-0.030,-0.145
4470,-0.055,-0.125
4471,-0.035,-0.125
4472,-0.045,-0.150
4473,-0.055,-0.140
4474,-0.045,-0.145
4475,-0.055,-0.155
4476,-0.040,-0.180
4477,-0.065,-0.190
4478,-0.085,-0.235
4479,-0.080,-0.250
4480,-0.110,-0.285
4481,-0.115,-0.315
4482,-0.120,-0.340
4483,-0.140,-0.350
4484,-0.155,-0.355
4485,-0.150,-0.380
4486,-0.160,-0.395
4487,-0.185,-0.375
4488,-0.185,-0.380
4489,-0.210,-0.370
4490,-0.245,-0.370
4491,-0.255,-0.360
4492,-0.270,-0.345
4493,-0.295,-0.345
4494,-0.315,-0.325
4495,-0.300,-0.320
4496,-0.290,-0.335
4497,-0.270,-0.315
4498,-0.255,-0.300
4499,-0.180,-0.275
4500,-0.140,-0.295
4501,-0.100,-0.275
4502,-0.090,-0.295
4503,-0.145,-0.385
4504,-0.245,-0.415
4505,-0.345,-0.400
4506,-0.440,-0.355
4507,-0.505,-0.320
4508,-0.515,-0.325
4509,-0.510,-0.350
4510,-0.505,-0.370
4511,-0.490,-0.365
4512,-0.480,-0.365
4513,-0.475,-0.385
4514,-0.480,-0.390
4515,-0.475,-0.390
4516,-0.475,-0.380
4517,-0.475,-0.385
4518,-0.490,-0.380
4519,-0.475,-0.365
4520,-0.485,-0.390
4521,-0.450,-0.390
4522,-0.380,-0.370
4523,-0.235,-0.395
4524,-0.130,-0.505
4525,-0.035,-0.655
4526,0.000,-0.895
4527,0.085,-1.310
4528,0.590,-1.910
4529,1.080,-2.325
4530,0.520,-1.865
4531,-0.360,-0.965
4532,-0.600,-0.550
4533,-0.650,-0.285
4534,-0.660,-0.150
4535,-0.685,-0.110
4536,-0.685,-0.110
4537,-0.690,-0.105
4538,-0.695,-0.100
4539,-0.675,-0.080
4540,-0.695,-0.065
4541,-0.715,-0.060
4542,-0.725,-0.080
4543,-0.720,-0.040
4544,-0.725,-0.035
4545,-0.715,-0.035
4546,-0.730,-0.025
4547,-0.745,-0.025
4548,-0.760,-0.025
4549,-0.745,0.000
4550,-0.745,-0.015
4551,-0.730,0.020
4552,-0.715,-0.010
4553,-0.700,-0.045
4554,-0.685,-0.040
4555,-0.675,-0.060
4556,-0.665,-0.100
4557,-0.640,-0.125
4558,-0.605,-0.170
4559,-0.560,-0.185
4560,-0.540,-0.215
4561,-0.525,-0.235
4562,-0.505,-0.260
4563,-0.495,-0.270
4564,-0.460,-0.295
4565,-0.460,-0.275
4566,-0.440,-0.270
4567,-0.445,-0.265
4568,-0.440,-0.265
4569,-0.440,-0.270
4570,-0.425,-0.265
4571,-0.405,-0.250
4572,-0.355,-0.235
4573,-0.355,-0.230
4574,-0.315,-0.195
4575,-0.220,-0.175
4576,-0.175,-0.185
4577,-0.155,-0.180
4578,-0.130,-0.185
4579,-0.150,-0.265
4580,-0.240,-0.310
4581,-0.335,-0.310
4582,-0.440,-0.265
4583,-0.495,-0.220
4584,-0.500,-0.200
4585,-0.490,-0.245
4586,-0.495,-0.260
4587,-0.480,-0.260
4588,-0.490,-0.275
4589,-0.475,-0.275
4590,-0.480,-0.295
4591,-0.470,-0.280
4592,-0.475,-0.275
4593,-0.480,-0.280
4594,-0.485,-0.295
4595,-0.475,-0.285
4596,-0.495,-0.295
4597,-0.475,-0.300
4598,-0.425,-0.305
4599,-0.315,-0.315
4600,-0.180,-0.405
4601,-0.070,-0.540
4602,-0.050,-0.735
4603,-0.035,-1.090
4604,0.245,-1.640
4605,0.885,-2.255
4606,0.870,-2.255
4607,-0.115,-1.275
4608,-0.595,-0.660
4609,-0.665,-0.350
4610,-0.690,-0.165
4611,-0.710,-0.085
4612,-0.735,-0.085
4613,-0.735,-0.090
4614,-0.735,-0.080
4615,-0.720,-0.060
4616,-0.725,-0.055
4617,-0.720,-0.045
4618,-0.745,-0.060
4619,-0.745,-0.045
4620,-0.765,-0.040
4621,-0.770,-0.030
4622,-0.780,-0.010
4623,-0.795,-0.015
4624,-0.785,0.005
4625,-0.785,0.000
4626,-0.780,0.015
4627,-0.770,0.005
4628,-0.775,0.000
4629,-0.770,-0.025
4630,-0.750,-0.005
4631,-0.735,-0.025
4632,-0.715,-0.055
4633,-0.690,-0.050
4634,-0.670,-0.095
4635,-0.650,-0.130
4636,-0.640,-0.170
4637,-0.615,-0.190
4638,-0.595,-0.210
4639,-0.560,-0.235
4640,-0.530,-0.260
4641,-0.505,-0.265
4642,-0.500,-0.260
4643,-0.495,-0.245
4644,-0.500,-0.245
4645,-0.495,-0.260
4646,-0.485,-0.245
4647,-0.440,-0.235
4648,-0.400,-0.230
4649,-0.425,-0.205
4650,-0.360,-0.185
4651,-0.295,-0.165
4652,-0.225,-0.155
4653,-0.205,-0.155
4654,-0.200,-0.205
4655,-0.275,-0.275
4656,-0.375,-0.290
4657,-0.460,-0.275
4658,-0.550,-0.230
4659,-0.570,-0.200
4660,-0.555,-0.200
4661,-0.545,-0.230
4662,-0.520,-0.250
4663,-0.500,-0.250
4664,-0.510,-0.235
4665,-0.500,-0.255
4666,-0.490,-0.245
4667,-0.505,-0.250
4668,-0.480,-0.245
4669,-0.505,-0.260
4670,-0.490,-0.260
4671,-0.475,-0.260
4672,-0.490,-0.270
4673,-0.460,-0.260
4674,-0.370,-0.265
4675,-0.230,-0.310
4676,-0.130,-0.405
4677,-0.045,-0.555
4678,-0.045,-0.845
4679,0.040,-1.320
4680,0.585,-1.950
4681,1.020,-2.325
4682,0.405,-1.745
4683,-0.410,-0.850
4684,-0.635,-0.445
4685,-0.670,-0.200
4686,-0.690,-0.065
4687,-0.715,-0.035
4688,-0.715,-0.030
4689,-0.710,-0.045
4690,-0.720,-0.015
4691,-0.710,-0.030
4692,-0.735,-0.005
4693,-0.735,-0.010
4694,-0.760,0.000
4695,-0.765,0.000
4696,-0.765,0.010
4697,-0.785,0.035
4698,-0.795,0.030
4699,-0.805,0.050
4700,-0.805,0.060
4701,-0.780,0.060
4702,-0.775,0.060
4703,-0.760,0.060
4704,-0.760,0.045
4705,-0.735,0.045
4706,-0.715,0.020
4707,-0.680,0.015
4708,-0.675,0.000
4709,-0.655,-0.035
4710,-0.625,-0.050
4711,-0.595,-0.100
4712,-0.585,-0.145
4713,-0.555,-0.140
4714,-0.515,-0.180
4715,-0.480,-0.195
4716,-0.460,-0.205
4717,-0.450,-0.215
4718,-0.440,-0.195
4719,-0.430,-0.200
4720,-0.425,-0.200
4721,-0.415,-0.205
4722,-0.415,-0.195
4723,-0.420,-0.190
4724,-0.420,-0.195
4725,-0.400,-0.170
4726,-0.390,-0.170
4727,-0.345,-0.180
4728,-0.255,-0.170
4729,-0.190,-0.160
4730,-0.120,-0.170
4731,-0.105,-0.175
4732,-0.150,-0.240
4733,-0.235,-0.290
4734,-0.315,-0.295
4735,-0.415,-0.275
4736,-0.490,-0.220
4737,-0.480,-0.235
4738,-0.475,-0.250
4739,-0.415,-0.240
4740,-0.430,-0.280
4741,-0.420,-0.255
4742,-0.405,-0.275
4743,-0.415,-0.275
4744,-0.385,-0.275
4745,-0.390,-0.300
4746,-0.370,-0.280
4747,-0.360,-0.280
4748,-0.375,-0.285
4749,-0.345,-0.285
4750,-0.320,-0.285
4751,-0.275,-0.305
4752,-0.105,-0.305
4753,0.060,-0.405
4754,0.165,-0.545
4755,0.220,-0.735
4756,0.205,-1.125
4757,0.525,-1.705
4758,1.145,-2.230
4759,0.755,-2.025
4760,-0.105,-1.005
4761,-0.365,-0.545
4762,-0.385,-0.250
4763,-0.435,-0.100
4764,-0.425,-0.050
4765,-0.420,-0.060
4766,-0.435,-0.075
4767,-0.420,-0.075
4768,-0.400,-0.075
4769,-0.385,-0.060
4770,-0.390,-0.055
4771,-0.395,-0.050
4772,-0.390,-0.040
4773,-0.350,-0.040
4774,-0.350,-0.040
4775,-0.355,-0.035
4776,-0.345,-0.035
4777,-0.320,-0.015
4778,-0.310,-0.015
4779,-0.300,-0.010
4780,-0.275,-0.015
4781,-0.260,-0.020
4782,-0.250,0.000
4783,-0.230,-0.025
4784,-0.185,-0.035
4785,-0.155,-0.050
4786,-0.125,-0.090
4787,-0.090,-0.115
4788,-0.065,-0.135
4789,-0.030,-0.180
4790,0.010,-0.185
4791,0.030,-0.220
4792,0.090,-0.230
4793,0.100,-0.225
4794,0.140,-0.225
4795,0.145,-0.235
4796,0.150,-0.240
4797,0.165,-0.215
4798,0.170,-0.245
4799,0.170,-0.230
4800,0.210,-0.230
4801,0.200,-0.190
4802,0.165,-0.170
4803,0.205,-0.205
4804,0.225,-0.210
4805,0.235,-0.200
4806,0.270,-0.190
4807,0.355,-0.145
4808,0.430,-0.140
4809,0.480,-0.130
4810,0.520,-0.155
4811,0.480,-0.220
4812,0.380,-0.265
4813,0.305,-0.265
4814,0.220,-0.220
4815,0.145,-0.200
4816,0.155,-0.225
4817,0.180,-0.260
4818,0.185,-0.260
4819,0.190,-0.270
4820,0.180,-0.275
4821,0.190,-0.275
4822,0.180,-0.290
4823,0.165,-0.255
4824,0.150,-0.270
4825,0.130,-0.245
4826,0.110,-0.275
4827,0.075,-0.270
4828,0.065,-0.260
4829,0.050,-0.285
4830,0.100,-0.280
4831,0.210,-0.305
4832,0.325,-0.400
4833,0.405,-0.550
4834,0.445,-0.765
4835,0.495,-1.180
4836,0.965,-1.770
4837,1.385,-2.175
4838,0.655,-1.645
4839,-0.155,-0.775
4840,-0.335,-0.405
4841,-0.360,-0.165
4842,-0.430,-0.045
4843,-0.465,-0.015
4844,-0.470,-0.035
4845,-0.515,-0.015
4846,-0.525,-0.020
4847,-0.545,-0.020
4848,-0.560,0.000
4849,-0.580,-0.005
4850,-0.590,0.000
4851,-0.600,0.000
4852,-0.625,0.000
4853,-0.640,0.015
4854,-0.655,0.010
4855,-0.670,0.025
4856,-0.675,0.040
4857,-0.690,0.040
4858,-0.705,0.040
4859,-0.695,0.045
4860,-0.680,0.040
4861,-0.680,0.020
4862,-0.660,0.005
4863,-0.670,-0.015
4864,-0.630,-0.035
4865,-0.615,-0.060
4866,-0.585,-0.105
4867,-0.550,-0.130
4868,-0.540,-0.165
4869,-0.505,-0.175
4870,-0.510,-0.210
4871,-0.470,-0.230
4872,-0.445,-0.240
4873,-0.420,-0.245
4874,-0.420,-0.230
4875,-0.435,-0.235
4876,-0.425,-0.230
4877,-0.420,-0.220
4878,-0.410,-0.205
4879,-0.405,-0.195
4880,-0.395,-0.220
4881,-0.370,-0.200
4882,-0.345,-0.200
4883,-0.335,-0.175
4884,-0.255,-0.155
4885,-0.185,-0.135
4886,-0.155,-0.160
4887,-0.115,-0.150
4888,-0.130,-0.225
4889,-0.200,-0.295
4890,-0.280,-0.295
4891,-0.385,-0.255
4892,-0.475,-0.195
4893,-0.510,-0.210
4894,-0.495,-0.195
4895,-0.480,-0.210
4896,-0.475,-0.220
4897,-0.470,-0.225
4898,-0.445,-0.230
4899,-0.470,-0.240
4900,-0.470,-0.230
4901,-0.480,-0.265
4902,-0.465,-0.240
4903,-0.445,-0.245
4904,-0.450,-0.250
4905,-0.440,-0.245
4906,-0.450,-0.255
4907,-0.390,-0.270
4908,-0.245,-0.270
4909,-0.130,-0.340
4910,-0.060,-0.505
4911,-0.020,-0.690
4912,0.005,-1.105
4913,0.405,-1.685
4914,0.995,-2.205
4915,0.730,-1.995
4916,-0.210,-1.030
4917,-0.570,-0.525
4918,-0.620,-0.235
4919,-0.650,-0.085
4920,-0.670,-0.025
4921,-0.675,-0.005
4922,-0.680,0.000
4923,-0.675,-0.005
4924,-0.665,0.010
4925,-0.680,0.010
4926,-0.695,0.025
4927,-0.710,0.045
4928,-0.700,0.030
4929,-0.710,0.040
4930,-0.710,0.055
4931,-0.720,0.060
4932,-0.725,0.055
4933,-0.730,0.070
4934,-0.730,0.080
4935,-0.720,0.065
4936,-0.700,0.090
4937,-0.710,0.085
4938,-0.685,0.070
4939,-0.695,0.055
4940,-0.665,0.045
4941,-0.650,0.020
4942,-0.630,0.005
4943,-0.600,-0.035
4944,-0.590,-0.080
4945,-0.565,-0.110
4946,-0.535,-0.120
4947,-0.520,-0.155
4948,-0.490,-0.195
4949,-0.455,-0.200
4950,-0.455,-0.200
4951,-0.435,-0.200
4952,-0.420,-0.220
4953,-0.410,-0.185
4954,-0.410,-0.205
4955,-0.380,-0.190
4956,-0.370,-0.190
4957,-0.335,-0.180
4958,-0.305,-0.180
4959,-0.305,-0.145
4960,-0.235,-0.110
4961,-0.150,-0.120
4962,-0.110,-0.130
4963,-0.095,-0.125
4964,-0.085,-0.160
4965,-0.180,-0.250
4966,-0.245,-0.240
4967,-0.335,-0.250
4968,-0.425,-0.190
4969,-0.435,-0.165
4970,-0.445,-0.185
4971,-0.420,-0.200
4972,-0.415,-0.220
4973,-0.400,-0.210
4974,-0.390,-0.220
4975,-0.400,-0.220
4976,-0.380,-0.240
4977,-0.400,-0.220
4978,-0.390,-0.230
4979,-0.395,-0.235
4980,-0.395,-0.235
4981,-0.400,-0.230
4982,-0.380,-0.245
4983,-0.370,-0.255
4984,-0.250,-0.265
4985,-0.120,-0.350
4986,-0.040,-0.470
4987,0.000,-0.625
4988,0.000,-1.015
4989,0.210,-1.560
4990,0.845,-2.200
4991,0.925,-2.295
4992,-0.045,-1.300
4993,-0.580,-0.625
4994,-0.660,-0.320
4995,-0.685,-0.140
4996,-0.720,-0.075
4997,-0.715,-0.045
4998,-0.740,-0.035
4999,-0.740,-0.025
5000,-0.755,-0.025
5001,-0.750,-0.005
5002,-0.775,0.000
5003,-0.770,0.015
5004,-0.775,0.015
5005,-0.785,0.020
5006,-0.775,0.020
5007,-0.780,0.005
5008,-0.800,0.030
5009,-0.780,0.030
5010,-0.810,0.050
5011,-0.795,0.045
5012,-0.760,0.045
5013,-0.765,0.040
5014,-0.735,0.055
5015,-0.720,0.030
5016,-0.715,0.030
5017,-0.690,0.010
5018,-0.680,-0.020
5019,-0.655,-0.055
5020,-0.655,-0.075
5021,-0.605,-0.125
5022,-0.555,-0.145
5023,-0.525,-0.185
5024,-0.500,-0.190
5025,-0.510,-0.200
5026,-0.490,-0.220
5027,-0.455,-0.230
5028,-0.445,-0.215
5029,-0.450,-0.210
5030,-0.445,-0.225
5031,-0.445,-0.230
5032,-0.415,-0.195
5033,-0.370,-0.195
5034,-0.385,-0.170
5035,-0.345,-0.165
5036,-0.235,-0.120
5037,-0.180,-0.115
5038,-0.140,-0.120
5039,-0.155,-0.195
5040,-0.210,-0.255
5041,-0.320,-0.285
5042,-0.405,-0.265
5043,-0.490,-0.205
5044,-0.520,-0.210
5045,-0.525,-0.220
5046,-0.490,-0.235
5047,-0.470,-0.240
5048,-0.450,-0.240
5049,-0.450,-0.260
5050,-0.430,-0.245
5051,-0.415,-0.245
5052,-0.405,-0.265
5053,-0.400,-0.255
5054,-0.390,-0.260
5055,-0.370,-0.255
5056,-0.355,-0.285
5057,-0.355,-0.265
5058,-0.285,-0.260
5059,-0.160,-0.265
5060,0.000,-0.335
5061,0.105,-0.460
5062,0.200,-0.645
5063,0.200,-0.965
5064,0.360,-1.450
5065,0.935,-2.065
5066,1.015,-2.230
5067,0.175,-1.390
5068,-0.295,-0.695
5069,-0.390,-0.350
5070,-0.410,-0.145
5071,-0.455,-0.060
5072,-0.455,-0.065
5073,-0.470,-0.070
5074,-0.440,-0.060
5075,-0.425,-0.055
5076,-0.450,-0.045
5077,-0.435,-0.035
5078,-0.440,-0.050
5079,-0.470,-0.050
5080,-0.445,-0.055
5081,-0.435,-0.035
5082,-0.420,-0.055
5083,-0.425,-0.050
5084,-0.430,-0.015
5085,-0.425,-0.030
5086,-0.390,-0.025
5087,-0.370,-0.020
5088,-0.350,-0.030
5089,-0.350,-0.020
5090,-0.310,-0.030
5091,-0.290,-0.035
5092,-0.245,-0.055
5093,-0.220,-0.095
5094,-0.190,-0.140
5095,-0.140,-0.160
5096,-0.100,-0.195
5097,-0.105,-0.220
5098,-0.050,-0.235
5099,-0.020,-0.255
5100,0.005,-0.280
5101,0.020,-0.265
5102,0.065,-0.280
5103,0.070,-0.310
5104,0.090,-0.270
5105,0.110,-0.260
5106,0.105,-0.275
5107,0.115,-0.280
5108,0.100,-0.260
5109,0.100,-0.280
5110,0.125,-0.265
5111,0.145,-0.275
5112,0.170,-0.260
5113,0.215,-0.245
5114,0.290,-0.225
5115,0.380,-0.215
5116,0.420,-0.215
5117,0.490,-0.200
5118,0.440,-0.295
5119,0.365,-0.320
5120,0.310,-0.345
5121,0.190,-0.310
5122,0.155,-0.290
5123,0.140,-0.315
5124,0.190,-0.335
5125,0.210,-0.335
5126,0.240,-0.335
5127,0.245,-0.330
5128,0.275,-0.350
5129,0.280,-0.360
5130,0.280,-0.360
5131,0.280,-0.355
5132,0.290,-0.360
5133,0.300,-0.355
5134,0.290,-0.350
5135,0.300,-0.370
5136,0.320,-0.355
5137,0.405,-0.360
5138,0.560,-0.415
5139,0.695,-0.500
5140,0.830,-0.625
5141,0.895,-0.860
5142,0.945,-1.270
5143,1.415,-1.875
5144,1.815,-2.305
5145,1.025,-1.755
5146,0.335,-0.920
5147,0.185,-0.535
5148,0.185,-0.280
5149,0.125,-0.140
5150,0.080,-0.125
5151,0.070,-0.120
5152,0.050,-0.110
5153,0.035,-0.100
5154,0.025,-0.095
5155,0.005,-0.100
5156,-0.010,-0.100
5157,-0.040,-0.090
5158,-0.070,-0.055
5159,-0.115,-0.075
5160,-0.155,-0.055
5161,-0.180,-0.055
5162,-0.225,-0.050
5163,-0.240,-0.025
5164,-0.280,-0.035
5165,-0.285,-0.015
5166,-0.300,-0.030
5167,-0.295,-0.020
5168,-0.310,-0.035
5169,-0.315,-0.050
5170,-0.310,-0.075
5171,-0.300,-0.095
5172,-0.300,-0.105
5173,-0.285,-0.140
5174,-0.285,-0.190
5175,-0.265,-0.225
5176,-0.265,-0.245
5177,-0.260,-0.265
5178,-0.245,-0.265
5179,-0.230,-0.275
5180,-0.240,-0.270
5181,-0.235,-0.260
5182,-0.240,-0.270
5183,-0.230,-0.260
5184,-0.235,-0.265
5185,-0.235,-0.260
5186,-0.235,-0.255
5187,-0.210,-0.260
5188,-0.200,-0.240
5189,-0.175,-0.225
5190,-0.155,-0.190
5191,-0.065,-0.150
5192,-0.015,-0.185
5193,0.020,-0.160
5194,0.015,-0.205
5195,-0.045,-0.280
5196,-0.120,-0.315
5197,-0.240,-0.300
5198,-0.330,-0.245
5199,-0.380,-0.220
5200,-0.390,-0.235
5201,-0.400,-0.285
5202,-0.385,-0.275
5203,-0.380,-0.270
5204,-0.390,-0.285
5205,-0.390,-0.290
5206,-0.370,-0.295
5207,-0.395,-0.280
5208,-0.385,-0.315
5209,-0.400,-0.310
5210,-0.395,-0.305
5211,-0.395,-0.300
5212,-0.400,-0.320
5213,-0.365,-0.320
5214,-0.260,-0.325
5215,-0.110,-0.370
5216,-0.025,-0.495
5217,0.035,-0.655
5218,0.050,-0.950
5219,0.230,-1.450
5220,0.840,-2.075
5221,1.065,-2.310
5222,0.210,-1.560
5223,-0.470,-0.760
5224,-0.605,-0.420
5225,-0.610,-0.210
5226,-0.665,-0.105
5227,-0.660,-0.090
5228,-0.675,-0.085
5229,-0.675,-0.040
5230,-0.680,-0.055
5231,-0.665,-0.050
5232,-0.670,-0.040
5233,-0.675,-0.050
5234,-0.690,-0.040
5235,-0.705,-0.030
5236,-0.715,-0.025
5237,-0.730,-0.015
5238,-0.735,0.000
5239,-0.755,0.000
5240,-0.745,0.000
5241,-0.750,0.000
5242,-0.740,0.000
5243,-0.735,0.000
5244,-0.735,0.005
5245,-0.715,0.000
5246,-0.695,-0.025
5247,-0.685,-0.060
5248,-0.680,-0.070
5249,-0.655,-0.115
5250,-0.625,-0.145
5251,-0.605,-0.165
5252,-0.595,-0.200
5253,-0.560,-0.235
5254,-0.530,-0.255
5255,-0.505,-0.275
5256,-0.500,-0.290
5257,-0.475,-0.290
5258,-0.475,-0.295
5259,-0.470,-0.285
5260,-0.470,-0.290
5261,-0.465,-0.280
5262,-0.445,-0.260
5263,-0.435,-0.260
5264,-0.405,-0.235
5265,-0.395,-0.225
5266,-0.325,-0.200
5267,-0.255,-0.165
5268,-0.215,-0.175
5269,-0.195,-0.205
5270,-0.195,-0.245
5271,-0.275,-0.330
5272,-0.355,-0.315
5273,-0.445,-0.285
5274,-0.540,-0.230
5275,-0.555,-0.225
5276,-0.550,-0.235
5277,-0.520,-0.250
5278,-0.510,-0.265
5279,-0.515,-0.280
5280,-0.515,-0.285
5281,-0.495,-0.280
5282,-0.500,-0.275
5283,-0.500,-0.280
5284,-0.505,-0.290
5285,-0.515,-0.295
5286,-0.510,-0.300
5287,-0.510,-0.305
5288,-0.500,-0.295
5289,-0.445,-0.310
5290,-0.305,-0.330
5291,-0.185,-0.370
5292,-0.100,-0.525
5293,-0.090,-0.680
5294,-0.090,-1.065
5295,0.210,-1.605
5296,0.855,-2.220
5297,0.795,-2.245
5298,-0.115,-1.335
5299,-0.620,-0.690
5300,-0.710,-0.360
5301,-0.725,-0.160
5302,-0.750,-0.100
5303,-0.750,-0.065
5304,-0.760,-0.050
5305,-0.745,-0.040
5306,-0.745,-0.035
5307,-0.745,-0.020
5308,-0.735,-0.030
5309,-0.725,-0.030
5310,-0.740,-0.015
5311,-0.725,-0.015
5312,-0.720,-0.015
5313,-0.750,0.005
5314,-0.745,0.005
5315,-0.735,0.010
5316,-0.740,0.020
5317,-0.720,0.030
5318,-0.695,0.025
5319,-0.665,0.035
5320,-0.630,0.015
5321,-0.615,0.015
5322,-0.585,-0.005
5323,-0.560,-0.015
5324,-0.530,-0.060
5325,-0.515,-0.080
5326,-0.465,-0.115
5327,-0.465,-0.140
5328,-0.430,-0.170
5329,-0.375,-0.175
5330,-0.325,-0.205
5331,-0.310,-0.230
5332,-0.295,-0.230
5333,-0.275,-0.225
5334,-0.275,-0.245
5335,-0.260,-0.245
5336,-0.230,-0.245
5337,-0.235,-0.245
5338,-0.235,-0.230
5339,-0.240,-0.215
5340,-0.235,-0.220
5341,-0.205,-0.205
5342,-0.160,-0.200
5343,-0.150,-0.195
5344,-0.095,-0.200
5345,0.015,-0.155
5346,0.065,-0.160
5347,0.125,-0.160
5348,0.165,-0.180
5349,0.095,-0.255
5350,0.005,-0.290
5351,-0.075,-0.285
5352,-0.160,-0.230
5353,-0.155,-0.210
5354,-0.145,-0.215
5355,-0.075,-0.240
5356,-0.070,-0.255
5357,-0.040,-0.290
5358,-0.025,-0.285
5359,-0.040,-0.295
5360,-0.005,-0.265
5361,0.030,-0.270
5362,0.050,-0.310
5363,0.040,-0.280
5364,0.075,-0.290
5365,0.080,-0.275
5366,0.110,-0.305
5367,0.160,-0.310
5368,0.280,-0.315
5369,0.430,-0.385
5370,0.595,-0.520
5371,0.705,-0.675
5372,0.705,-0.985
5373,0.880,-1.495
5374,1.495,-2.090
5375,1.500,-2.225
5376,0.540,-1.300
5377,0.140,-0.705
5378,0.100,-0.400
5379,0.110,-0.195
5380,0.050,-0.095
5381,0.070,-0.095
5382,0.070,-0.110
5383,0.080,-0.135
5384,0.110,-0.120
5385,0.105,-0.120
5386,0.100,-0.125
5387,0.095,-0.100
5388,0.125,-0.125
5389,0.115,-0.105
5390,0.120,-0.100
5391,0.115,-0.110
5392,0.125,-0.075
5393,0.135,-0.070
5394,0.140,-0.080
5395,0.130,-0.040
5396,0.140,-0.055
5397,0.175,-0.050
5398,0.175,-0.060
5399,0.200,-0.070
5400,0.215,-0.095
5401,0.225,-0.085
5402,0.250,-0.125
5403,0.245,-0.150
5404,0.270,-0.180
5405,0.310,-0.215
5406,0.340,-0.230
5407,0.355,-0.265
5408,0.390,-0.265
5409,0.410,-0.295
5410,0.410,-0.300
5411,0.425,-0.310
5412,0.400,-0.310
5413,0.405,-0.295
5414,0.415,-0.290
5415,0.395,-0.285
5416,0.390,-0.290
5417,0.400,-0.285
5418,0.375,-0.290
5419,0.385,-0.290
5420,0.385,-0.270
5421,0.385,-0.255
5422,0.450,-0.225
5423,0.510,-0.205
5424,0.570,-0.210
5425,0.600,-0.215
5426,0.555,-0.270
5427,0.450,-0.325
5428,0.345,-0.335
5429,0.240,-0.300
5430,0.150,-0.255
5431,0.125,-0.255
5432,0.125,-0.280
5433,0.130,-0.300
5434,0.135,-0.300
5435,0.120,-0.325
5436,0.120,-0.300
5437,0.085,-0.315
5438,0.070,-0.310
5439,0.080,-0.320
5440,0.045,-0.285
5441,0.005,-0.300
5442,-0.010,-0.300
5443,-0.015,-0.295
5444,-0.010,-0.285
5445,0.040,-0.300
5446,0.150,-0.330
5447,0.275,-0.440
5448,0.355,-0.575
5449,0.385,-0.800
5450,0.455,-1.225
5451,0.965,-1.800
5452,1.385,-2.220
5453,0.680,-1.780
5454,-0.145,-0.890
5455,-0.390,-0.490
5456,-0.395,-0.245
5457,-0.450,-0.110
5458,-0.485,-0.080
5459,-0.500,-0.075
5460,-0.500,-0.055
5461,-0.530,-0.045
5462,-0.540,-0.055
5463,-0.580,-0.045
5464,-0.580,-0.055
5465,-0.600,-0.045
5466,-0.630,-0.025
5467,-0.640,-0.015
5468,-0.665,-0.015
5469,-0.685,-0.020
5470,-0.710,0.000
5471,-0.715,0.015
5472,-0.715,0.030
5473,-0.710,0.010
5474,-0.715,0.015
5475,-0.725,0.010
5476,-0.705,0.015
5477,-0.700,0.000
5478,-0.685,-0.015
5479,-0.660,-0.045
5480,-0.650,-0.090
5481,-0.625,-0.100
5482,-0.610,-0.160
5483,-0.595,-0.180
5484,-0.570,-0.225
5485,-0.540,-0.240
5486,-0.545,-0.255
5487,-0.550,-0.250
5488,-0.525,-0.270
5489,-0.515,-0.260
5490,-0.505,-0.260
5491,-0.500,-0.265
5492,-0.500,-0.255
5493,-0.510,-0.250
5494,-0.485,-0.245
5495,-0.460,-0.245
5496,-0.445,-0.215
5497,-0.360,-0.175
5498,-0.285,-0.170
5499,-0.245,-0.200
5500,-0.215,-0.180
5501,-0.225,-0.215
5502,-0.325,-0.295
5503,-0.400,-0.300
5504,-0.500,-0.280
5505,-0.595,-0.240
5506,-0.625,-0.215
5507,-0.600,-0.240
5508,-0.620,-0.235
5509,-0.585,-0.245
5510,-0.585,-0.250
5511,-0.585,-0.270
5512,-0.570,-0.280
5513,-0.575,-0.295
5514,-0.570,-0.295
5515,-0.570,-0.295
5516,-0.570,-0.295
5517,-0.580,-0.295
5518,-0.605,-0.310
5519,-0.585,-0.310
5520,-0.540,-0.305
5521,-0.395,-0.335
5522,-0.260,-0.375
5523,-0.195,-0.535
5524,-0.145,-0.695
5525,-0.135,-1.070
5526,0.170,-1.630
5527,0.800,-2.225
5528,0.720,-2.225
5529,-0.255,-1.275
5530,-0.675,-0.650
5531,-0.750,-0.340
5532,-0.775,-0.155
5533,-0.820,-0.075
5534,-0.810,-0.060
5535,-0.825,-0.045
5536,-0.835,-0.045
5537,-0.845,-0.045
5538,-0.835,-0.055
5539,-0.820,-0.025
5540,-0.835,-0.005
5541,-0.825,-0.020
5542,-0.850,-0.015
5543,-0.825,0.000
5544,-0.855,0.000
5545,-0.855,0.010
5546,-0.855,0.010
5547,-0.860,0.020
5548,-0.855,0.040
5549,-0.850,0.050
5550,-0.850,0.025
5551,-0.825,0.010
5552,-0.825,0.000
5553,-0.810,-0.005
5554,-0.770,-0.015
5555,-0.750,-0.055
5556,-0.730,-0.105
5557,-0.695,-0.125
5558,-0.660,-0.145
5559,-0.655,-0.190
5560,-0.630,-0.195
5561,-0.605,-0.225
5562,-0.585,-0.230
5563,-0.580,-0.230
5564,-0.585,-0.250
5565,-0.590,-0.235
5566,-0.560,-0.245
5567,-0.525,-0.255
5568,-0.505,-0.220
5569,-0.480,-0.245
5570,-0.450,-0.220
5571,-0.410,-0.170
5572,-0.315,-0.165
5573,-0.270,-0.165
5574,-0.240,-0.145
5575,-0.255,-0.185
5576,-0.320,-0.260
5577,-0.410,-0.290
5578,-0.505,-0.255
5579,-0.585,-0.210
5580,-0.610,-0.195
5581,-0.610,-0.200
5582,-0.560,-0.220
5583,-0.560,-0.230
5584,-0.545,-0.250
5585,-0.495,-0.240
5586,-0.475,-0.235
5587,-0.505,-0.240
5588,-0.480,-0.240
5589,-0.455,-0.240
5590,-0.445,-0.275
5591,-0.430,-0.260
5592,-0.430,-0.285
5593,-0.430,-0.280
5594,-0.350,-0.285
5595,-0.220,-0.295
5596,-0.070,-0.370
5597,0.065,-0.495
5598,0.120,-0.650
5599,0.125,-1.010
5600,0.380,-1.525
5601,0.965,-2.120
5602,0.865,-2.205
5603,0.000,-1.325
5604,-0.430,-0.655
5605,-0.460,-0.325
5606,-0.435,-0.145
5607,-0.465,-0.080
5608,-0.495,-0.080
5609,-0.470,-0.060
5610,-0.455,-0.080
5611,-0.460,-0.085
5612,-0.430,-0.080
5613,-0.410,-0.075
5614,-0.390,-0.075
5615,-0.405,-0.070
5616,-0.390,-0.065
5617,-0.395,-0.080
5618,-0.380,-0.065
5619,-0.375,-0.035
5620,-0.375,-0.045
5621,-0.370,-0.035
5622,-0.350,-0.025
5623,-0.330,-0.025
5624,-0.320,-0.025
5625,-0.280,-0.030
5626,-0.240,-0.045
5627,-0.225,-0.060
5628,-0.180,-0.070
5629,-0.120,-0.110
5630,-0.085,-0.165
5631,-0.075,-0.160
5632,-0.020,-0.235
5633,-0.015,-0.230
5634,0.005,-0.280
5635,0.040,-0.280
5636,0.060,-0.280
5637,0.085,-0.300
5638,0.110,-0.315
5639,0.120,-0.310
5640,0.135,-0.310
5641,0.145,-0.305
5642,0.175,-0.310
5643,0.175,-0.320
5644,0.170,-0.300
5645,0.220,-0.305
5646,0.230,-0.280
5647,0.250,-0.255
5648,0.335,-0.245
5649,0.415,-0.235
5650,0.465,-0.225
5651,0.465,-0.225
5652,0.440,-0.330
5653,0.370,-0.365
5654,0.285,-0.350
5655,0.210,-0.340
5656,0.170,-0.285
5657,0.145,-0.305
5658,0.190,-0.315
5659,0.225,-0.335
5660,0.250,-0.335
5661,0.255,-0.340
5662,0.280,-0.340
5663,0.285,-0.325
5664,0.280,-0.340
5665,0.285,-0.340
5666,0.310,-0.355
5667,0.300,-0.340
5668,0.285,-0.335
5669,0.295,-0.335
5670,0.335,-0.335
5671,0.440,-0.360
5672,0.610,-0.375
5673,0.760,-0.480
5674,0.870,-0.640
5675,0.900,-0.900
5676,0.945,-1.280
5677,1.450,-1.865
5678,1.810,-2.295
5679,1.015,-1.795
5680,0.325,-0.945
5681,0.175,-0.555
5682,0.180,-0.275
5683,0.135,-0.150
5684,0.115,-0.120
5685,0.100,-0.095
5686,0.085,-0.085
5687,0.065,-0.090
5688,0.050,-0.075
5689,0.050,-0.080
5690,0.025,-0.075
5691,0.020,-0.080
5692,0.000,-0.050
5693,-0.050,-0.050
5694,-0.075,-0.035
5695,-0.100,-0.020
5696,-0.105,-0.030
5697,-0.135,-0.025
5698,-0.155,0.000
5699,-0.185,0.000
5700,-0.185,-0.010
5701,-0.190,0.000
5702,-0.205,0.000
5703,-0.215,-0.020
5704,-0.230,-0.025
5705,-0.225,-0.060
5706,-0.205,-0.080
5707,-0.225,-0.120
5708,-0.215,-0.155
5709,-0.215,-0.190
5710,-0.205,-0.210
5711,-0.205,-0.235
5712,-0.210,-0.245
5713,-0.195,-0.235
5714,-0.200,-0.240
5715,-0.200,-0.230
5716,-0.190,-0.235
5717,-0.210,-0.245
5718,-0.215,-0.240
5719,-0.230,-0.220
5720,-0.235,-0.245
5721,-0.260,-0.240
5722,-0.245,-0.215
5723,-0.200,-0.220
5724,-0.215,-0.200
5725,-0.190,-0.175
5726,-0.115,-0.150
5727,-0.070,-0.160
5728,-0.030,-0.165
5729,-0.025,-0.160
5730,-0.080,-0.250
5731,-0.165,-0.290
5732,-0.275,-0.275
5733,-0.355,-0.225
5734,-0.435,-0.200
5735,-0.450,-0.205
5736,-0.445,-0.235
5737,-0.440,-0.215
5738,-0.440,-0.225
5739,-0.435,-0.245
5740,-0.430,-0.265
5741,-0.415,-0.260
5742,-0.435,-0.260
5743,-0.440,-0.265
5744,-0.440,-0.270
5745,-0.445,-0.285
5746,-0.455,-0.265
5747,-0.460,-0.255
5748,-0.395,-0.265
5749,-0.270,-0.275
5750,-0.120,-0.350
5751,-0.040,-0.485
5752,-0.005,-0.645
5753,0.015,-0.980
5754,0.315,-1.505
5755,0.920,-2.110
5756,0.935,-2.190
5757,-0.055,-1.315
5758,-0.575,-0.650
5759,-0.645,-0.345
5760,-0.675,-0.125
5761,-0.700,-0.060
5762,-0.700,-0.035
5763,-0.705,-0.020
5764,-0.730,-0.015
5765,-0.740,-0.015
5766,-0.745,-0.010
5767,-0.750,0.000
5768,-0.775,0.000
5769,-0.775,0.015
5770,-0.760,0.005
5771,-0.780,0.010
5772,-0.785,0.000
5773,-0.810,0.035
5774,-0.810,0.030
5775,-0.805,0.040
5776,-0.800,0.045
5777,-0.790,0.050
5778,-0.795,0.050
5779,-0.775,0.035
5780,-0.765,0.045
5781,-0.760,0.025
5782,-0.765,0.000
5783,-0.735,-0.015
5784,-0.725,-0.055
5785,-0.690,-0.100
5786,-0.675,-0.135
5787,-0.645,-0.170
5788,-0.625,-0.170
5789,-0.595,-0.200
5790,-0.580,-0.200
5791,-0.560,-0.195
5792,-0.560,-0.210
5793,-0.540,-0.205
5794,-0.535,-0.205
5795,-0.515,-0.210
5796,-0.495,-0.220
5797,-0.475,-0.190
5798,-0.440,-0.170
5799,-0.355,-0.120
5800,-0.310,-0.120
5801,-0.255,-0.115
5802,-0.240,-0.125
5803,-0.275,-0.210
5804,-0.395,-0.215
5805,-0.480,-0.220
5806,-0.560,-0.195
5807,-0.615,-0.160
5808,-0.640,-0.165
5809,-0.615,-0.165
5810,-0.605,-0.195
5811,-0.585,-0.200
5812,-0.580,-0.210
5813,-0.575,-0.225
5814,-0.565,-0.205
5815,-0.560,-0.195
5816,-0.565,-0.210
5817,-0.575,-0.225
5818,-0.560,-0.235
5819,-0.565,-0.240
5820,-0.560,-0.235
5821,-0.515,-0.250
5822,-0.415,-0.235
5823,-0.270,-0.265
5824,-0.170,-0.375
5825,-0.140,-0.515
5826,-0.120,-0.810
5827,0.020,-1.295
5828,0.610,-1.920
5829,0.925,-2.295
5830,0.175,-1.660
5831,-0.540,-0.780
5832,-0.705,-0.390
5833,-0.705,-0.165
5834,-0.750,-0.030
5835,-0.780,-0.020
5836,-0.800,-0.005
5837,-0.795,0.010
5838,-0.775,0.000
5839,-0.780,0.000
5840,-0.770,0.015
5841,-0.810,0.040
5842,-0.800,0.035
5843,-0.805,0.040
5844,-0.825,0.060
5845,-0.825,0.060
5846,-0.835,0.050
5847,-0.820,0.045
5848,-0.815,0.055
5849,-0.815,0.050
5850,-0.780,0.045
5851,-0.770,0.040
5852,-0.765,0.045
5853,-0.740,0.015
5854,-0.715,0.015
5855,-0.695,-0.010
5856,-0.675,-0.025
5857,-0.655,-0.080
5858,-0.600,-0.115
5859,-0.565,-0.150
5860,-0.545,-0.165
5861,-0.505,-0.215
5862,-0.505,-0.200
5863,-0.460,-0.205
5864,-0.425,-0.235
5865,-0.430,-0.220
5866,-0.410,-0.230
5867,-0.415,-0.240
5868,-0.385,-0.235
5869,-0.385,-0.230
5870,-0.390,-0.205
5871,-0.380,-0.220
5872,-0.335,-0.215
5873,-0.315,-0.215
5874,-0.305,-0.200
5875,-0.215,-0.190
5876,-0.135,-0.145
5877,-0.085,-0.150
5878,-0.035,-0.150
5879,-0.025,-0.180
5880,-0.080,-0.255
5881,-0.200,-0.280
5882,-0.275,-0.265
5883,-0.355,-0.195
5884,-0.360,-0.195
5885,-0.345,-0.210
5886,-0.300,-0.230
5887,-0.295,-0.275
5888,-0.260,-0.260
5889,-0.250,-0.265
5890,-0.215,-0.275
5891,-0.180,-0.290
5892,-0.190,-0.285
5893,-0.185,-0.305
5894,-0.170,-0.305
5895,-0.160,-0.290
5896,-0.155,-0.315
5897,-0.130,-0.315
5898,-0.040,-0.315
5899,0.060,-0.340
5900,0.225,-0.400
5901,0.365,-0.505
5902,0.455,-0.685
5903,0.460,-1.040
5904,0.760,-1.560
5905,1.320,-2.150
5906,1.050,-2.120
5907,0.140,-1.185
5908,-0.125,-0.675
5909,-0.155,-0.355
5910,-0.150,-0.165
5911,-0.180,-0.080
5912,-0.185,-0.095
5913,-0.195,-0.100
5914,-0.185,-0.100
5915,-0.160,-0.090
5916,-0.140,-0.085
5917,-0.140,-0.085
5918,-0.125,-0.085
5919,-0.130,-0.085
5920,-0.115,-0.075
5921,-0.115,-0.065
5922,-0.120,-0.070
5923,-0.155,-0.075
5924,-0.120,-0.055
5925,-0.090,-0.045
5926,-0.080,-0.030
5927,-0.090,-0.030
5928,-0.075,-0.045
5929,-0.055,-0.040
5930,-0.010,-0.065
5931,-0.030,-0.070
5932,0.000,-0.105
5933,0.015,-0.120
5934,0.040,-0.140
5935,0.065,-0.175
5936,0.080,-0.200
5937,0.105,-0.225
5938,0.125,-0.255
5939,0.130,-0.260
5940,0.160,-0.270
5941,0.165,-0.285
5942,0.155,-0.265
5943,0.170,-0.280
5944,0.170,-0.280
5945,0.170,-0.275
5946,0.155,-0.260
5947,0.150,-0.235
5948,0.160,-0.260
5949,0.180,-0.265
5950,0.150,-0.250
5951,0.175,-0.230
5952,0.205,-0.180
5953,0.285,-0.175
5954,0.325,-0.180
5955,0.355,-0.170
5956,0.325,-0.215
5957,0.245,-0.295
5958,0.150,-0.300
5959,0.050,-0.275
5960,-0.045,-0.230
5961,-0.085,-0.210
5962,-0.090,-0.225
5963,-0.075,-0.225
5964,-0.090,-0.230
5965,-0.095,-0.235
5966,-0.095,-0.240
5967,-0.105,-0.235
5968,-0.135,-0.245
5969,-0.150,-0.260
5970,-0.155,-0.240
5971,-0.170,-0.235
5972,-0.200,-0.250
5973,-0.225,-0.255
5974,-0.225,-0.250
5975,-0.190,-0.235
5976,-0.035,-0.275
5977,0.105,-0.340
5978,0.190,-0.480
5979,0.230,-0.645
5980,0.265,-1.000
5981,0.680,-1.540
5982,1.205,-2.115
5983,0.775,-1.980
5984,-0.170,-1.050
5985,-0.485,-0.535
5986,-0.530,-0.230
5987,-0.570,-0.090
5988,-0.610,-0.020
5989,-0.615,-0.005
5990,-0.615,0.000
5991,-0.650,0.020
5992,-0.645,0.000
5993,-0.640,0.005
5994,-0.670,0.000
5995,-0.690,0.005
5996,-0.700,0.025
5997,-0.735,0.015
5998,-0.740,0.015
5999,-0.740,0.035
6000,-0.760,0.040
6001,-0.765,0.045
6002,-0.760,0.035
6003,-0.760,0.055
6004,-0.760,0.060
6005,-0.755,0.035
6006,-0.745,0.030
6007,-0.715,0.030
6008,-0.705,0.015
6009,-0.695,-0.005
6010,-0.675,-0.030
6011,-0.665,-0.070
6012,-0.635,-0.115
6013,-0.635,-0.140
6014,-0.595,-0.170
6015,-0.585,-0.185
6016,-0.555,-0.195
6017,-0.550,-0.210
6018,-0.530,-0.220
6019,-0.505,-0.225
6020,-0.500,-0.225
6021,-0.495,-0.220
6022,-0.490,-0.215
6023,-0.480,-0.215
6024,-0.470,-0.205
6025,-0.455,-0.205
6026,-0.430,-0.170
6027,-0.375,-0.165
6028,-0.295,-0.115
6029,-0.265,-0.130
6030,-0.220,-0.135
6031,-0.235,-0.160
6032,-0.320,-0.240
6033,-0.395,-0.260
6034,-0.510,-0.220
6035,-0.590,-0.195
6036,-0.605,-0.160
6037,-0.615,-0.175
6038,-0.615,-0.205
6039,-0.610,-0.190
6040,-0.590,-0.215
6041,-0.590,-0.225
6042,-0.575,-0.235
6043,-0.580,-0.235
6044,-0.580,-0.225
6045,-0.570,-0.245
6046,-0.550,-0.235
6047,-0.555,-0.245
6048,-0.575,-0.240
6049,-0.570,-0.240
6050,-0.510,-0.240
6051,-0.380,-0.275
6052,-0.240,-0.340
6053,-0.180,-0.460
6054,-0.150,-0.635
6055,-0.110,-0.995
6056,0.245,-1.560
6057,0.860,-2.155
6058,0.730,-2.165
6059,-0.255,-1.185
6060,-0.670,-0.565
6061,-0.720,-0.290
6062,-0.735,-0.105
6063,-0.770,-0.040
6064,-0.765,-0.010
6065,-0.770,0.005
6066,-0.770,0.005
6067,-0.775,0.030
6068,-0.785,0.025
6069,-0.795,0.025
6070,-0.810,0.050
6071,-0.800,0.035
6072,-0.805,0.055
6073,-0.805,0.045
6074,-0.820,0.065
6075,-0.820,0.085
6076,-0.830,0.065
6077,-0.835,0.065
6078,-0.810,0.080
6079,-0.810,0.090
6080,-0.800,0.085
6081,-0.815,0.105
6082,-0.785,0.075
6083,-0.770,0.060
6084,-0.740,0.015
6085,-0.725,-0.010
6086,-0.695,-0.025
6087,-0.655,-0.090
6088,-0.645,-0.110
6089,-0.620,-0.145
6090,-0.595,-0.155
6091,-0.575,-0.175
6092,-0.540,-0.165
6093,-0.525,-0.160
6094,-0.525,-0.170
6095,-0.500,-0.150
6096,-0.520,-0.155
6097,-0.485,-0.150
6098,-0.445,-0.130
6099,-0.435,-0.135
6100,-0.415,-0.120
6101,-0.345,-0.075
6102,-0.270,-0.040
6103,-0.220,-0.035
6104,-0.185,-0.030
6105,-0.195,-0.075
6106,-0.275,-0.155
6107,-0.365,-0.190
6108,-0.475,-0.160
6109,-0.545,-0.105
6110,-0.575,-0.095
6111,-0.580,-0.100
6112,-0.550,-0.130
6113,-0.550,-0.145
6114,-0.535,-0.155
6115,-0.520,-0.155
6116,-0.520,-0.160
6117,-0.510,-0.160
6118,-0.510,-0.165
6119,-0.510,-0.165
6120,-0.505,-0.175
6121,-0.500,-0.190
6122,-0.520,-0.165
6123,-0.490,-0.210
6124,-0.440,-0.195
6125,-0.320,-0.210
6126,-0.180,-0.295
6127,-0.090,-0.430
6128,-0.065,-0.625
6129,-0.030,-0.970
6130,0.325,-1.530
6131,0.940,-2.145
6132,0.770,-2.105
6133,-0.165,-1.165
6134,-0.595,-0.540
6135,-0.670,-0.235
6136,-0.685,-0.050
6137,-0.700,0.020
6138,-0.695,0.030
6139,-0.715,0.045
6140,-0.725,0.035
6141,-0.730,0.060
6142,-0.735,0.060
6143,-0.725,0.080
6144,-0.720,0.070
6145,-0.715,0.070
6146,-0.735,0.105
6147,-0.735,0.090
6148,-0.745,0.110
6149,-0.755,0.115
6150,-0.760,0.110
6151,-0.745,0.125
6152,-0.745,0.130
6153,-0.740,0.115
6154,-0.735,0.110
6155,-0.720,0.095
6156,-0.720,0.085
6157,-0.695,0.060
6158,-0.680,0.035
6159,-0.650,0.000
6160,-0.630,-0.020
6161,-0.620,-0.060
6162,-0.570,-0.085
6163,-0.565,-0.115
6164,-0.545,-0.140
6165,-0.510,-0.140
6166,-0.510,-0.170
6167,-0.495,-0.165
6168,-0.490,-0.205
6169,-0.495,-0.180
6170,-0.490,-0.185
6171,-0.485,-0.160
6172,-0.455,-0.175
6173,-0.410,-0.160
6174,-0.430,-0.160
6175,-0.380,-0.105
6176,-0.320,-0.090
6177,-0.260,-0.065
6178,-0.210,-0.090
6179,-0.215,-0.065
6180,-0.260,-0.150
6181,-0.355,-0.205
6182,-0.455,-0.195
6183,-0.555,-0.160
6184,-0.620,-0.105
6185,-0.575,-0.125
6186,-0.550,-0.150
6187,-0.540,-0.175
6188,-0.525,-0.180
6189,-0.505,-0.175
6190,-0.515,-0.175
6191,-0.505,-0.185
6192,-0.510,-0.180
6193,-0.490,-0.190
6194,-0.485,-0.190
6195,-0.460,-0.190
6196,-0.480,-0.200
6197,-0.460,-0.215
6198,-0.430,-0.200
6199,-0.320,-0.220
6200,-0.160,-0.255
6201,-0.030,-0.365
6202,0.045,-0.510
6203,0.070,-0.750
6204,0.160,-1.215
6205,0.655,-1.830
6206,1.025,-2.250
6207,0.310,-1.735
6208,-0.400,-0.800
6209,-0.525,-0.415
6210,-0.490,-0.175
6211,-0.540,-0.030
6212,-0.540,0.005
6213,-0.555,0.005
6214,-0.555,0.005
6215,-0.550,0.010
6216,-0.535,0.015
6217,-0.510,0.005
6218,-0.515,0.015
6219,-0.510,0.020
6220,-0.500,0.030
6221,-0.500,0.035
6222,-0.485,0.035
6223,-0.480,0.050
6224,-0.465,0.045
6225,-0.450,0.055
6226,-0.455,0.075
6227,-0.420,0.065
6228,-0.400,0.060
6229,-0.365,0.060
6230,-0.330,0.030
6231,-0.315,0.040
6232,-0.275,0.020
6233,-0.240,0.000
6234,-0.235,-0.015
6235,-0.215,-0.060
6236,-0.185,-0.070
6237,-0.130,-0.115
6238,-0.120,-0.155
6239,-0.125,-0.180
6240,-0.075,-0.190
6241,-0.045,-0.205
6242,-0.035,-0.200
6243,-0.045,-0.190
6244,-0.010,-0.175
6245,0.000,-0.195
6246,-0.010,-0.175
6247,0.000,-0.170
6248,0.000,-0.180
6249,0.020,-0.175
6250,0.040,-0.155
6251,0.025,-0.170
6252,0.095,-0.145
6253,0.195,-0.110
6254,0.290,-0.105
6255,0.315,-0.125
6256,0.345,-0.120
6257,0.285,-0.215
6258,0.210,-0.250
6259,0.120,-0.225
6260,0.050,-0.190
6261,0.020,-0.180
6262,0.030,-0.190
6263,0.035,-0.205
6264,0.050,-0.225
6265,0.095,-0.220
6266,0.120,-0.225
6267,0.115,-0.245
6268,0.105,-0.225
6269,0.125,-0.250
6270,0.145,-0.240
6271,0.175,-0.245
6272,0.160,-0.225
6273,0.160,-0.240
6274,0.170,-0.235
6275,0.205,-0.240
6276,0.325,-0.275
6277,0.475,-0.305
6278,0.630,-0.415
6279,0.725,-0.555
6280,0.765,-0.835
6281,0.865,-1.255
6282,1.425,-1.855
6283,1.515,-2.170
6284,0.645,-1.540
6285,0.150,-0.790
6286,0.075,-0.425
6287,0.080,-0.180
6288,0.015,-0.065
6289,0.000,-0.045
6290,-0.010,-0.035
6291,-0.020,-0.035
6292,-0.030,-0.030
6293,-0.045,-0.050
6294,-0.055,-0.030
6295,-0.085,-0.035
6296,-0.080,-0.030
6297,-0.100,-0.020
6298,-0.130,-0.010
6299,-0.140,-0.015
6300,-0.145,0.000
6301,-0.175,0.000
6302,-0.195,0.015
6303,-0.225,0.020
6304,-0.235,0.020
6305,-0.235,0.040
6306,-0.250,0.025
6307,-0.260,0.020
6308,-0.255,0.010
6309,-0.270,-0.005
6310,-0.260,-0.020
6311,-0.260,-0.070
6312,-0.265,-0.105
6313,-0.255,-0.130
6314,-0.235,-0.150
6315,-0.220,-0.170
6316,-0.205,-0.195
6317,-0.200,-0.200
6318,-0.205,-0.190
6319,-0.190,-0.195
6320,-0.190,-0.205
6321,-0.205,-0.175
6322,-0.195,-0.180
6323,-0.185,-0.185
6324,-0.190,-0.170
6325,-0.180,-0.150
6326,-0.165,-0.165
6327,-0.155,-0.150
6328,-0.125,-0.130
6329,-0.065,-0.110
6330,0.000,-0.090
6331,0.020,-0.110
6332,0.045,-0.100
6333,0.020,-0.160
6334,-0.070,-0.240
6335,-0.140,-0.215
6336,-0.250,-0.200
6337,-0.325,-0.140
6338,-0.365,-0.120
6339,-0.340,-0.150
6340,-0.340,-0.145
6341,-0.335,-0.180
6342,-0.320,-0.180
6343,-0.315,-0.185
6344,-0.290,-0.190
6345,-0.295,-0.180
6346,-0.300,-0.180
6347,-0.295,-0.195
6348,-0.290,-0.175
6349,-0.295,-0.195
6350,-0.290,-0.185
6351,-0.275,-0.180
6352,-0.185,-0.190
6353,-0.040,-0.215
6354,0.070,-0.295
6355,0.150,-0.440
6356,0.175,-0.660
6357,0.280,-1.135
6358,0.860,-1.750
6359,1.290,-2.210
6360,0.590,-1.735
6361,-0.235,-0.785
6362,-0.450,-0.360
6363,-0.455,-0.120
6364,-0.495,0.000
6365,-0.515,0.025
6366,-0.515,0.045
6367,-0.525,0.045
6368,-0.520,0.065
6369,-0.540,0.055
6370,-0.540,0.065
6371,-0.565,0.085
6372,-0.575,0.085
6373,-0.570,0.085
6374,-0.575,0.075
6375,-0.570,0.100
6376,-0.575,0.095
6377,-0.605,0.125
6378,-0.585,0.120
6379,-0.605,0.120
6380,-0.590,0.135
6381,-0.575,0.120
6382,-0.545,0.105
6383,-0.535,0.095
6384,-0.520,0.085
6385,-0.500,0.045
6386,-0.490,0.030
6387,-0.470,0.000
6388,-0.435,-0.035
6389,-0.415,-0.045
6390,-0.395,-0.090
6391,-0.365,-0.115
6392,-0.355,-0.110
6393,-0.330,-0.130
6394,-0.310,-0.140
6395,-0.305,-0.135
6396,-0.285,-0.120
6397,-0.260,-0.150
6398,-0.265,-0.140
6399,-0.220,-0.110
6400,-0.190,-0.135
6401,-0.180,-0.130
6402,-0.150,-0.095
6403,-0.055,-0.075
6404,-0.010,-0.040
6405,0.020,-0.055
6406,0.040,-0.055
6407,-0.015,-0.140
6408,-0.090,-0.205
6409,-0.195,-0.190
6410,-0.295,-0.145
6411,-0.370,-0.115
6412,-0.370,-0.130
6413,-0.360,-0.150
6414,-0.345,-0.165
6415,-0.340,-0.170
6416,-0.345,-0.190
6417,-0.335,-0.195
6418,-0.345,-0.215
6419,-0.325,-0.205
6420,-0.330,-0.215
6421,-0.340,-0.220
6422,-0.340,-0.235
6423,-0.320,-0.225
6424,-0.320,-0.245
6425,-0.295,-0.255
6426,-0.220,-0.255
6427,-0.085,-0.290
6428,0.040,-0.375
6429,0.095,-0.535
6430,0.110,-0.780
6431,0.230,-1.245
6432,0.770,-1.865
6433,1.175,-2.305
6434,0.575,-1.870
6435,-0.245,-0.915
6436,-0.455,-0.480
6437,-0.470,-0.205
6438,-0.505,-0.075
6439,-0.535,-0.035
6440,-0.540,-0.040
6441,-0.540,-0.020
6442,-0.540,-0.020
6443,-0.520,-0.020
6444,-0.545,0.000
6445,-0.545,0.000
6446,-0.545,0.005
6447,-0.560,0.000
6448,-0.570,0.010
6449,-0.570,0.030
6450,-0.590,0.030
6451,-0.585,0.060
6452,-0.575,0.035
6453,-0.580,0.055
6454,-0.565,0.070
6455,-0.555,0.045
6456,-0.555,0.045
6457,-0.525,0.035
6458,-0.515,0.025
6459,-0.500,0.020
6460,-0.490,-0.015
6461,-0.480,-0.045
6462,-0.460,-0.085
6463,-0.430,-0.130
6464,-0.415,-0.150
6465,-0.380,-0.175
6466,-0.350,-0.195
6467,-0.325,-0.205
6468,-0.305,-0.210
6469,-0.300,-0.210
6470,-0.295,-0.220
6471,-0.295,-0.215
6472,-0.260,-0.200
6473,-0.225,-0.175
6474,-0.200,-0.175
6475,-0.190,-0.135
6476,-0.090,-0.115
6477,-0.040,-0.080
6478,-0.005,-0.080
6479,0.005,-0.085
6480,-0.020,-0.145
6481,-0.115,-0.195
6482,-0.190,-0.200
6483,-0.270,-0.140
6484,-0.355,-0.110
6485,-0.360,-0.125
6486,-0.350,-0.135
6487,-0.335,-0.155
6488,-0.325,-0.160
6489,-0.305,-0.165
6490,-0.305,-0.185
6491,-0.285,-0.175
6492,-0.285,-0.175
6493,-0.285,-0.180
6494,-0.280,-0.185
6495,-0.300,-0.205
6496,-0.300,-0.215
6497,-0.295,-0.200
6498,-0.265,-0.205
6499,-0.205,-0.210
6500,-0.050,-0.235
6501,0.045,-0.340
6502,0.115,-0.490
6503,0.130,-0.710
6504,0.220,-1.145
6505,0.720,-1.755
6506,1.230,-2.300
6507,0.725,-1.975
6508,-0.170,-0.965
6509,-0.425,-0.475
6510,-0.455,-0.190
6511,-0.500,-0.060
6512,-0.500,0.000
6513,-0.490,0.000
