'sample interval','ECG0','ECG1'
'0.0078125 sec','mV','mV'
0,-0.530,-0.270
1,-0.505,-0.250
2,-0.505,-0.260
3,-0.510,-0.245
4,-0.505,-0.225
5,-0.510,-0.230
6,-0.500,-0.215
7,-0.505,-0.200
8,-0.505,-0.190
9,-0.510,-0.190
10,-0.500,-0.175
11,-0.495,-0.175
12,-0.490,-0.165
13,-0.480,-0.180
14,-0.470,-0.165
15,-0.485,-0.175
16,-0.465,-0.180
17,-0.450,-0.185
18,-0.430,-0.190
19,-0.410,-0.180
20,-0.395,-0.190
21,-0.395,-0.195
22,-0.370,-0.210
23,-0.365,-0.190
24,-0.375,-0.205
25,-0.375,-0.205
26,-0.375,-0.200
27,-0.380,-0.190
28,-0.385,-0.215
29,-0.400,-0.205
30,-0.400,-0.190
31,-0.405,-0.205
32,-0.400,-0.195
33,-0.395,-0.190
34,-0.390,-0.190
35,-0.375,-0.185
36,-0.385,-0.175
37,-0.385,-0.180
38,-0.380,-0.195
39,-0.355,-0.175
40,-0.345,-0.170
41,-0.355,-0.155
42,-0.340,-0.155
43,-0.340,-0.175
44,-0.335,-0.150
45,-0.335,-0.150
46,-0.330,-0.145
47,-0.325,-0.155
48,-0.330,-0.140
49,-0.320,-0.145
50,-0.340,-0.150
51,-0.345,-0.150
52,-0.340,-0.140
53,-0.320,-0.140
54,-0.340,-0.140
55,-0.345,-0.145
56,-0.340,-0.150
57,-0.335,-0.145
58,-0.320,-0.145
59,-0.340,-0.135
60,-0.335,-0.135
61,-0.315,-0.135
62,-0.340,-0.145
63,-0.315,-0.145
64,-0.325,-0.145
65,-0.315,-0.145
66,-0.305,-0.140
67,-0.310,-0.130
68,-0.320,-0.130
69,-0.320,-0.125
70,-0.325,-0.135
71,-0.335,-0.125
72,-0.320,-0.110
73,-0.330,-0.120
74,-0.320,-0.105
75,-0.320,-0.115
76,-0.315,-0.105
77,-0.320,-0.110
78,-0.315,-0.100
79,-0.310,-0.100
80,-0.310,-0.095
81,-0.305,-0.095
82,-0.275,-0.075
83,-0.260,-0.070
84,-0.250,-0.055
85,-0.240,-0.030
86,-0.245,-0.035
87,-0.250,-0.045
88,-0.270,-0.055
89,-0.260,-0.075
90,-0.245,-0.075
91,-0.255,-0.080
92,-0.250,-0.070
93,-0.255,-0.075
94,-0.250,-0.080
95,-0.250,-0.050
96,-0.265,-0.050
97,-0.275,-0.025
98,-0.275,-0.015
99,-0.265,-0.025
100,-0.260,-0.020
101,-0.255,-0.020
102,-0.245,-0.025
103,-0.240,0.000
104,-0.240,-0.005
105,-0.255,-0.015
106,-0.235,0.000
107,-0.105,0.030
108,0.200,0.015
109,0.495,-0.015
110,0.560,-0.215
111,0.030,-0.405
112,-0.495,-0.525
113,-0.555,-0.465
114,-0.415,-0.300
115,-0.285,-0.120
116,-0.270,0.000
117,-0.265,0.050
118,-0.270,0.060
119,-0.270,0.070
120,-0.260,0.070
121,-0.265,0.070
122,-0.255,0.070
123,-0.255,0.070
124,-0.245,0.100
125,-0.240,0.095
126,-0.255,0.090
127,-0.250,0.105
128,-0.255,0.105
129,-0.250,0.095
130,-0.250,0.105
131,-0.225,0.125
132,-0.240,0.130
133,-0.230,0.140
134,-0.240,0.145
135,-0.240,0.145
136,-0.235,0.160
137,-0.225,0.170
138,-0.225,0.170
139,-0.220,0.175
140,-0.215,0.180
141,-0.210,0.175
142,-0.195,0.170
143,-0.190,0.180
144,-0.170,0.180
145,-0.165,0.180
146,-0.140,0.165
147,-0.140,0.165
148,-0.110,0.160
149,-0.110,0.150
150,-0.100,0.140
151,-0.090,0.155
152,-0.095,0.150
153,-0.100,0.150
154,-0.105,0.145
155,-0.110,0.150
156,-0.120,0.135
157,-0.115,0.140
158,-0.095,0.140
159,-0.105,0.160
160,-0.090,0.145
161,-0.080,0.150
162,-0.095,0.140
163,-0.090,0.160
164,-0.075,0.160
165,-0.090,0.150
166,-0.090,0.165
167,-0.075,0.170
168,-0.065,0.170
169,-0.075,0.180
170,-0.070,0.165
171,-0.060,0.145
172,-0.050,0.150
173,-0.060,0.155
174,-0.055,0.145
175,-0.055,0.155
176,-0.045,0.155
177,-0.045,0.160
178,-0.045,0.170
179,-0.045,0.160
180,-0.055,0.165
181,0.065,0.175
182,0.355,0.175
183,0.650,0.085
184,0.740,-0.055
185,0.255,-0.255
186,-0.355,-0.360
187,-0.365,-0.305
188,-0.185,-0.145
189,-0.100,0.035
190,-0.105,0.150
191,-0.115,0.195
192,-0.110,0.175
193,-0.110,0.180
194,-0.115,0.175
195,-0.120,0.180
196,-0.120,0.180
197,-0.135,0.185
198,-0.130,0.185
199,-0.135,0.185
200,-0.135,0.195
201,-0.140,0.190
202,-0.130,0.195
203,-0.140,0.210
204,-0.130,0.210
205,-0.130,0.215
206,-0.115,0.215
207,-0.120,0.225
208,-0.115,0.225
209,-0.120,0.240
210,-0.120,0.255
211,-0.125,0.255
212,-0.110,0.260
213,-0.115,0.265
214,-0.105,0.260
215,-0.090,0.265
216,-0.110,0.255
217,-0.095,0.255
218,-0.075,0.240
219,-0.050,0.235
220,-0.025,0.225
221,-0.020,0.215
222,-0.010,0.220
223,-0.005,0.210
224,-0.005,0.215
225,-0.005,0.200
226,-0.015,0.195
227,-0.015,0.190
228,-0.005,0.185
229,-0.020,0.195
230,-0.020,0.190
231,-0.030,0.190
232,-0.025,0.185
233,-0.025,0.185
234,-0.015,0.170
235,-0.010,0.175
236,-0.015,0.185
237,-0.015,0.180
238,-0.020,0.180
239,-0.015,0.180
240,-0.010,0.180
241,0.000,0.180
242,0.000,0.190
243,-0.005,0.190
244,0.005,0.195
245,0.000,0.200
246,0.010,0.195
247,0.005,0.195
248,0.010,0.210
249,0.015,0.210
250,0.015,0.200
251,0.025,0.210
252,0.015,0.195
253,0.000,0.210
254,0.000,0.210
255,0.000,0.210
256,0.015,0.205
257,0.005,0.215
258,0.000,0.210
259,-0.005,0.205
260,0.000,0.195
261,0.000,0.205
262,0.000,0.190
263,0.000,0.215
264,0.000,0.200
265,0.000,0.205
266,0.010,0.215
267,0.005,0.215
268,0.000,0.220
269,0.005,0.210
270,0.020,0.220
271,0.015,0.215
272,0.015,0.225
273,0.005,0.200
274,0.015,0.205
275,0.005,0.215
276,0.005,0.210
277,0.000,0.215
278,0.000,0.215
279,-0.005,0.215
280,0.000,0.205
281,0.005,0.210
282,0.000,0.205
283,0.010,0.215
284,0.005,0.230
285,0.005,0.220
286,0.010,0.215
287,0.010,0.215
288,0.020,0.215
289,0.020,0.215
290,0.035,0.210
291,0.025,0.200
292,0.030,0.215
293,0.020,0.220
294,0.025,0.210
295,0.015,0.215
296,0.025,0.205
297,0.015,0.205
298,0.015,0.205
299,0.015,0.220
300,0.020,0.220
301,0.010,0.215
302,0.010,0.210
303,0.010,0.210
304,0.015,0.220
305,0.020,0.215
306,0.010,0.225
307,0.015,0.220
308,0.015,0.220
309,0.020,0.220
310,0.025,0.210
311,0.030,0.200
312,0.030,0.210
313,0.035,0.205
314,0.015,0.195
315,0.015,0.210
316,0.030,0.205
317,0.035,0.200
318,0.045,0.205
319,0.050,0.225
320,0.040,0.220
321,0.030,0.220
322,0.040,0.230
323,0.020,0.205
324,0.020,0.180
325,0.035,0.165
326,0.020,0.185
327,0.035,0.165
328,0.035,0.165
329,0.035,0.170
330,0.035,0.180
331,0.050,0.195
332,0.020,0.215
333,0.020,0.205
334,0.015,0.210
335,0.030,0.215
336,0.020,0.190
337,0.030,0.215
338,0.035,0.210
339,0.025,0.210
340,0.015,0.215
341,0.020,0.225
342,0.140,0.250
343,0.440,0.250
344,0.735,0.180
345,0.795,0.000
346,0.265,-0.220
347,-0.270,-0.345
348,-0.320,-0.290
349,-0.185,-0.115
350,-0.055,0.075
351,-0.045,0.200
352,-0.045,0.250
353,-0.045,0.265
354,-0.035,0.260
355,-0.035,0.270
356,-0.035,0.265
357,-0.045,0.260
358,-0.055,0.270
359,-0.045,0.275
360,-0.055,0.265
361,-0.060,0.270
362,-0.055,0.280
363,-0.060,0.280
364,-0.060,0.285
365,-0.080,0.285
366,-0.075,0.295
367,-0.075,0.295
368,-0.075,0.300
369,-0.060,0.300
370,-0.065,0.310
371,-0.055,0.315
372,-0.060,0.330
373,-0.055,0.345
374,-0.040,0.335
375,-0.040,0.340
376,-0.040,0.330
377,-0.040,0.335
378,-0.035,0.340
379,-0.020,0.335
380,-0.015,0.340
381,-0.010,0.335
382,0.000,0.330
383,0.020,0.320
384,0.010,0.320
385,0.030,0.315
386,0.055,0.310
387,0.075,0.305
388,0.070,0.300
389,0.085,0.290
390,0.090,0.295
391,0.080,0.280
392,0.070,0.280
393,0.075,0.275
394,0.070,0.270
395,0.070,0.270
396,0.075,0.280
397,0.060,0.270
398,0.060,0.270
399,0.070,0.270
400,0.070,0.270
401,0.070,0.275
402,0.060,0.265
403,0.070,0.260
404,0.075,0.255
405,0.065,0.260
406,0.070,0.265
407,0.065,0.275
408,0.080,0.265
409,0.090,0.265
410,0.085,0.290
411,0.080,0.270
412,0.095,0.285
413,0.095,0.285
414,0.090,0.285
415,0.095,0.280
416,0.095,0.285
417,0.100,0.295
418,0.100,0.280
419,0.080,0.275
420,0.065,0.275
421,0.070,0.285
422,0.070,0.285
423,0.055,0.275
424,0.060,0.275
425,0.050,0.265
426,0.045,0.275
427,0.030,0.275
428,0.045,0.275
429,0.035,0.270
430,0.035,0.260
431,0.025,0.255
432,0.040,0.265
433,0.030,0.260
434,0.035,0.255
435,0.030,0.255
436,0.040,0.255
437,0.030,0.260
438,0.045,0.255
439,0.040,0.250
440,0.035,0.250
441,0.030,0.235
442,0.040,0.250
443,0.030,0.245
444,0.040,0.250
445,0.030,0.230
446,0.020,0.235
447,0.005,0.240
448,0.045,0.225
449,0.045,0.225
450,0.040,0.235
451,0.025,0.250
452,0.050,0.235
453,0.030,0.230
454,0.020,0.220
455,0.030,0.205
456,0.040,0.190
457,0.035,0.195
458,0.040,0.180
459,0.030,0.180
460,0.035,0.170
461,0.025,0.190
462,0.015,0.200
463,0.000,0.210
464,0.000,0.215
465,0.000,0.200
466,0.000,0.210
467,-0.020,0.205
468,-0.005,0.185
469,-0.005,0.190
470,-0.015,0.195
471,-0.030,0.190
472,0.000,0.205
473,0.180,0.225
474,0.510,0.205
475,0.790,0.115
476,0.620,-0.080
477,-0.040,-0.255
478,-0.390,-0.330
479,-0.340,-0.220
480,-0.155,-0.050
481,-0.065,0.110
482,-0.065,0.170
483,-0.075,0.200
484,-0.075,0.195
485,-0.070,0.200
486,-0.085,0.195
487,-0.080,0.190
488,-0.095,0.180
489,-0.095,0.185
490,-0.105,0.180
491,-0.095,0.180
492,-0.100,0.180
493,-0.105,0.190
494,-0.110,0.185
495,-0.105,0.185
496,-0.105,0.190
497,-0.095,0.185
498,-0.100,0.200
499,-0.105,0.195
500,-0.110,0.205
501,-0.110,0.215
502,-0.100,0.220
503,-0.100,0.220
504,-0.095,0.225
505,-0.100,0.230
506,-0.100,0.230
507,-0.095,0.235
508,-0.085,0.220
509,-0.085,0.215
510,-0.085,0.205
511,-0.070,0.205
512,-0.060,0.205
513,-0.060,0.190
514,-0.050,0.180
515,-0.035,0.170
516,-0.010,0.170
517,-0.015,0.165
518,-0.005,0.165
519,-0.010,0.155
520,-0.010,0.155
521,-0.035,0.130
522,-0.040,0.145
523,-0.025,0.125
524,-0.030,0.135
525,-0.025,0.130
526,-0.020,0.120
527,-0.005,0.120
528,-0.020,0.110
529,-0.020,0.120
530,-0.035,0.110
531,-0.040,0.110
532,-0.045,0.120
533,-0.025,0.110
534,-0.025,0.125
535,-0.030,0.125
536,-0.035,0.105
537,-0.035,0.100
538,-0.030,0.100
539,-0.020,0.095
540,-0.010,0.090
541,-0.010,0.085
542,0.000,0.080
543,0.000,0.095
544,-0.005,0.085
545,-0.005,0.080
546,-0.015,0.090
547,0.135,0.095
548,0.440,0.085
549,0.715,-0.015
550,0.825,-0.225
551,0.345,-0.450
552,-0.315,-0.540
553,-0.330,-0.505
554,-0.185,-0.350
555,-0.085,-0.105
556,-0.090,0.045
557,-0.105,0.100
558,-0.110,0.095
559,-0.095,0.090
560,-0.095,0.095
561,-0.100,0.095
562,-0.095,0.085
563,-0.100,0.090
564,-0.105,0.095
565,-0.110,0.090
566,-0.105,0.085
567,-0.110,0.090
568,-0.110,0.095
569,-0.115,0.105
570,-0.125,0.095
571,-0.135,0.105
572,-0.135,0.110
573,-0.130,0.135
574,-0.145,0.140
575,-0.155,0.145
576,-0.140,0.160
577,-0.145,0.145
578,-0.145,0.165
579,-0.125,0.160
580,-0.145,0.150
581,-0.120,0.150
582,-0.115,0.145
583,-0.120,0.135
584,-0.095,0.130
585,-0.085,0.125
586,-0.080,0.115
587,-0.060,0.115
588,-0.050,0.100
589,-0.040,0.090
590,-0.035,0.095
591,-0.055,0.075
592,-0.065,0.070
593,-0.065,0.055
594,-0.080,0.055
595,-0.085,0.045
596,-0.085,0.040
597,-0.095,0.035
598,-0.090,0.035
599,-0.105,0.030
600,-0.105,0.030
601,-0.100,0.025
602,-0.080,0.040
603,-0.085,0.030
604,-0.080,0.035
605,-0.085,0.025
606,-0.075,0.035
607,-0.075,0.035
608,-0.080,0.040
609,-0.055,0.050
610,-0.085,0.050
611,-0.075,0.055
612,-0.100,0.060
613,-0.090,0.045
614,-0.095,0.035
615,-0.085,0.035
616,-0.090,0.030
617,-0.075,0.045
618,-0.110,0.035
619,-0.095,0.045
620,-0.105,0.050
621,-0.100,0.040
622,-0.120,0.045
623,-0.090,0.040
624,-0.090,0.040
625,-0.100,0.045
626,-0.105,0.045
627,-0.090,0.035
628,-0.105,0.055
629,-0.110,0.045
630,-0.115,0.045
631,-0.110,0.060
632,-0.105,0.060
633,-0.105,0.050
634,-0.120,0.055
635,-0.120,0.060
636,-0.110,0.050
637,-0.100,0.055
638,-0.110,0.065
639,-0.100,0.065
640,-0.115,0.080
641,-0.115,0.080
642,-0.100,0.080
643,-0.105,0.085
644,-0.100,0.080
645,-0.090,0.085
646,-0.095,0.090
647,-0.090,0.080
648,-0.095,0.090
649,-0.090,0.090
650,-0.095,0.090
651,-0.085,0.085
652,-0.095,0.090
653,-0.100,0.070
654,-0.100,0.095
655,-0.095,0.085
656,-0.110,0.085
657,-0.100,0.090
658,-0.095,0.100
659,-0.100,0.080
660,-0.090,0.080
661,-0.115,0.090
662,-0.115,0.085
663,-0.110,0.090
664,-0.115,0.085
665,-0.095,0.085
666,-0.100,0.090
667,-0.100,0.100
668,-0.095,0.085
669,-0.085,0.095
670,-0.090,0.090
671,-0.090,0.095
672,-0.090,0.085
673,-0.105,0.075
674,-0.085,0.085
675,-0.095,0.090
676,-0.095,0.095
677,-0.090,0.095
678,-0.100,0.095
679,-0.085,0.095
680,-0.100,0.085
681,-0.080,0.090
682,-0.090,0.100
683,-0.070,0.100
684,-0.075,0.105
685,-0.070,0.105
686,-0.075,0.110
687,-0.070,0.120
688,-0.065,0.120
689,-0.080,0.100
690,-0.090,0.100
691,-0.085,0.080
692,-0.075,0.045
693,-0.080,0.065
694,-0.085,0.060
695,-0.090,0.060
696,-0.085,0.060
697,-0.100,0.075
698,-0.110,0.070
699,-0.130,0.085
700,-0.115,0.085
701,-0.125,0.070
702,-0.130,0.080
703,-0.120,0.090
704,-0.120,0.085
705,-0.130,0.080
706,-0.105,0.070
707,-0.120,0.075
708,-0.015,0.095
709,0.250,0.095
710,0.545,0.045
711,0.610,-0.090
712,0.075,-0.285
713,-0.455,-0.420
714,-0.500,-0.390
715,-0.350,-0.225
716,-0.220,-0.055
717,-0.205,0.030
718,-0.200,0.085
719,-0.205,0.090
720,-0.200,0.095
721,-0.210,0.085
722,-0.210,0.095
723,-0.220,0.080
724,-0.215,0.075
725,-0.220,0.090
726,-0.215,0.090
727,-0.205,0.090
728,-0.220,0.100
729,-0.225,0.090
730,-0.220,0.090
731,-0.240,0.090
732,-0.245,0.095
733,-0.225,0.100
734,-0.240,0.100
735,-0.250,0.110
736,-0.245,0.100
737,-0.255,0.105
738,-0.260,0.130
739,-0.255,0.130
740,-0.245,0.115
741,-0.235,0.130
742,-0.250,0.125
743,-0.235,0.135
744,-0.230,0.135
745,-0.225,0.115
746,-0.220,0.125
747,-0.210,0.105
748,-0.190,0.105
749,-0.170,0.105
750,-0.155,0.100
751,-0.145,0.090
752,-0.140,0.080
753,-0.120,0.080
754,-0.120,0.080
755,-0.115,0.065
756,-0.130,0.060
757,-0.135,0.055
758,-0.145,0.050
759,-0.150,0.060
760,-0.150,0.050
761,-0.150,0.045
762,-0.150,0.040
763,-0.155,0.050
764,-0.155,0.050
765,-0.160,0.045
766,-0.150,0.050
767,-0.150,0.055
768,-0.150,0.050
769,-0.135,0.050
770,-0.135,0.060
771,-0.130,0.060
772,-0.115,0.045
773,-0.115,0.035
774,-0.110,0.050
775,-0.115,0.045
776,-0.110,0.050
777,-0.105,0.050
778,-0.110,0.050
779,-0.115,0.060
780,-0.115,0.040
781,-0.125,0.045
782,-0.120,0.045
783,-0.130,0.045
784,-0.130,0.030
785,-0.135,0.035
786,-0.135,0.025
787,-0.145,0.010
788,-0.135,0.015
789,-0.140,0.015
790,-0.135,0.015
791,-0.140,0.000
792,-0.145,0.000
793,-0.145,0.005
794,-0.150,0.000
795,-0.155,0.000
796,-0.145,0.000
797,-0.155,-0.005
798,-0.175,0.000
799,-0.170,-0.010
800,-0.180,-0.005
801,-0.175,-0.020
802,-0.170,-0.015
803,-0.175,-0.010
804,-0.170,-0.010
805,-0.155,-0.010
806,-0.170,-0.015
807,-0.180,-0.020
808,-0.185,0.000
809,-0.185,-0.020
810,-0.170,-0.020
811,-0.180,-0.015
812,-0.155,-0.020
813,-0.180,-0.015
814,-0.170,-0.015
815,-0.170,-0.020
816,-0.145,-0.020
817,-0.160,-0.020
818,-0.160,-0.020
819,-0.160,-0.010
820,-0.170,-0.025
821,-0.185,-0.040
822,-0.180,-0.060
823,-0.180,-0.070
824,-0.180,-0.075
825,-0.170,-0.085
826,-0.180,-0.090
827,-0.170,-0.100
828,-0.160,-0.075
829,-0.190,-0.080
830,-0.200,-0.070
831,-0.200,-0.060
832,-0.210,-0.080
833,-0.205,-0.085
834,-0.215,-0.090
835,-0.215,-0.085
836,-0.220,-0.070
837,-0.230,-0.090
838,-0.235,-0.095
839,-0.235,-0.080
840,-0.115,-0.055
841,0.160,-0.070
842,0.485,-0.115
843,0.605,-0.290
844,0.145,-0.505
845,-0.460,-0.655
846,-0.585,-0.640
847,-0.470,-0.475
848,-0.325,-0.285
849,-0.290,-0.145
850,-0.295,-0.090
851,-0.290,-0.080
852,-0.290,-0.095
853,-0.290,-0.070
854,-0.290,-0.080
855,-0.300,-0.080
856,-0.295,-0.070
857,-0.295,-0.070
858,-0.300,-0.075
859,-0.305,-0.080
860,-0.305,-0.065
861,-0.315,-0.065
862,-0.325,-0.070
863,-0.340,-0.045
864,-0.325,-0.060
865,-0.315,-0.060
866,-0.330,-0.050
867,-0.320,-0.040
868,-0.330,-0.035
869,-0.325,-0.035
870,-0.325,-0.020
871,-0.330,-0.010
872,-0.310,-0.010
873,-0.315,0.000
874,-0.295,-0.015
875,-0.315,-0.020
876,-0.315,-0.020
877,-0.310,-0.025
878,-0.295,-0.035
879,-0.285,-0.035
880,-0.285,-0.030
881,-0.270,-0.050
882,-0.260,-0.045
883,-0.255,-0.045
884,-0.240,-0.060
885,-0.225,-0.055
886,-0.240,-0.070
887,-0.230,-0.080
888,-0.240,-0.075
889,-0.240,-0.080
890,-0.250,-0.100
891,-0.245,-0.100
892,-0.240,-0.100
893,-0.240,-0.100
894,-0.230,-0.105
895,-0.225,-0.105
896,-0.230,-0.115
897,-0.235,-0.095
898,-0.225,-0.105
899,-0.220,-0.105
900,-0.225,-0.095
901,-0.230,-0.105
902,-0.230,-0.105
903,-0.215,-0.085
904,-0.225,-0.090
905,-0.210,-0.095
906,-0.185,-0.095
907,-0.195,-0.095
908,-0.200,-0.080
909,-0.190,-0.070
910,-0.190,-0.075
911,-0.190,-0.075
912,-0.200,-0.070
913,-0.195,-0.055
914,-0.190,-0.060
915,-0.195,-0.065
916,-0.195,-0.060
917,-0.195,-0.070
918,-0.190,-0.060
919,-0.195,-0.060
920,-0.205,-0.070
921,-0.205,-0.075
922,-0.210,-0.070
923,-0.215,-0.070
924,-0.220,-0.070
925,-0.220,-0.065
926,-0.225,-0.070
927,-0.225,-0.065
928,-0.220,-0.065
929,-0.210,-0.065
930,-0.210,-0.070
931,-0.225,-0.065
932,-0.230,-0.060
933,-0.230,-0.060
934,-0.220,-0.060
935,-0.215,-0.065
936,-0.210,-0.055
937,-0.230,-0.060
938,-0.225,-0.045
939,-0.215,-0.045
940,-0.210,-0.065
941,-0.210,-0.055
942,-0.215,-0.055
943,-0.205,-0.055
944,-0.210,-0.050
945,-0.200,-0.040
946,-0.210,-0.030
947,-0.190,-0.025
948,-0.190,-0.025
949,-0.190,-0.040
950,-0.190,-0.030
951,-0.205,-0.045
952,-0.210,-0.065
953,-0.195,-0.060
954,-0.195,-0.070
955,-0.195,-0.060
956,-0.180,-0.075
957,-0.180,-0.055
958,-0.200,-0.055
959,-0.200,-0.040
960,-0.205,-0.040
961,-0.210,-0.040
962,-0.220,-0.040
963,-0.230,-0.050
964,-0.230,-0.055
965,-0.225,-0.040
966,-0.220,-0.030
967,-0.245,-0.050
968,-0.245,-0.045
969,-0.200,-0.030
970,-0.010,-0.005
971,0.295,-0.035
972,0.550,-0.120
973,0.370,-0.310
974,-0.255,-0.490
975,-0.585,-0.555
976,-0.540,-0.460
977,-0.370,-0.275
978,-0.275,-0.130
979,-0.270,-0.040
980,-0.275,-0.015
981,-0.280,-0.010
982,-0.280,-0.020
983,-0.270,-0.010
984,-0.285,-0.010
985,-0.295,-0.005
986,-0.310,-0.005
987,-0.290,0.000
988,-0.300,-0.010
989,-0.315,-0.010
990,-0.295,-0.005
991,-0.310,0.000
992,-0.315,0.000
993,-0.310,-0.005
994,-0.310,0.000
995,-0.305,0.000
996,-0.320,0.005
997,-0.300,0.030
998,-0.300,0.035
999,-0.290,0.025
1000,-0.305,0.035
1001,-0.300,0.050
1002,-0.300,0.055
1003,-0.305,0.050
1004,-0.290,0.055
1005,-0.285,0.050
1006,-0.285,0.045
1007,-0.280,0.060
1008,-0.255,0.045
1009,-0.240,0.035
1010,-0.230,0.040
1011,-0.220,0.035
1012,-0.200,0.025
1013,-0.200,0.030
1014,-0.185,0.020
1015,-0.190,0.020
1016,-0.190,0.010
1017,-0.195,0.025
1018,-0.190,0.010
1019,-0.200,0.010
1020,-0.205,0.000
1021,-0.200,0.020
1022,-0.205,0.015
1023,-0.210,0.010
1024,-0.205,0.020
1025,-0.210,0.020
1026,-0.210,0.025
1027,-0.230,0.020
1028,-0.220,0.025
1029,-0.210,0.030
1030,-0.220,0.025
1031,-0.200,0.030
1032,-0.200,0.025
1033,-0.180,0.030
1034,-0.190,0.035
1035,-0.175,0.030
1036,-0.180,0.030
1037,-0.175,0.040
1038,-0.165,0.045
1039,-0.150,0.050
1040,-0.155,0.050
1041,-0.150,0.060
1042,-0.150,0.050
1043,-0.135,0.050
1044,-0.150,0.055
1045,-0.150,0.065
1046,-0.150,0.055
1047,-0.170,0.055
1048,-0.175,0.060
1049,-0.175,0.060
1050,-0.170,0.055
1051,-0.185,0.060
1052,-0.175,0.050
1053,-0.180,0.055
1054,-0.175,0.040
1055,-0.175,0.045
1056,-0.175,0.045
1057,-0.180,0.055
1058,-0.165,0.060
1059,-0.165,0.060
1060,-0.175,0.055
1061,-0.170,0.055
1062,-0.165,0.060
1063,-0.155,0.050
1064,-0.155,0.055
1065,-0.160,0.050
1066,-0.175,0.055
1067,-0.170,0.040
1068,-0.165,0.050
1069,-0.175,0.050
1070,-0.175,0.050
1071,-0.170,0.050
1072,-0.165,0.040
1073,-0.145,0.040
1074,-0.140,0.045
1075,-0.135,0.050
1076,-0.140,0.075
1077,-0.130,0.065
1078,-0.135,0.055
1079,-0.150,0.055
1080,-0.140,0.030
1081,-0.135,0.020
1082,-0.140,0.020
1083,-0.130,0.020
1084,-0.140,0.010
1085,-0.140,0.005
1086,-0.140,0.025
1087,-0.175,0.015
1088,-0.175,0.025
1089,-0.180,0.040
1090,-0.185,0.025
1091,-0.195,0.030
1092,-0.185,0.025
1093,-0.185,0.020
1094,-0.190,0.020
1095,-0.175,0.015
1096,-0.195,0.020
1097,-0.170,0.020
1098,0.030,0.045
1099,0.375,0.015
1100,0.675,-0.065
1101,0.565,-0.270
1102,-0.085,-0.470
1103,-0.495,-0.550
1104,-0.500,-0.465
1105,-0.345,-0.270
1106,-0.240,-0.095
1107,-0.225,0.000
1108,-0.245,0.050
1109,-0.250,0.055
1110,-0.245,0.045
1111,-0.250,0.055
1112,-0.270,0.045
1113,-0.255,0.045
1114,-0.250,0.045
1115,-0.245,0.045
1116,-0.255,0.050
1117,-0.265,0.055
1118,-0.260,0.055
1119,-0.265,0.055
1120,-0.265,0.055
1121,-0.255,0.060
1122,-0.250,0.070
1123,-0.250,0.075
1124,-0.250,0.075
1125,-0.240,0.095
1126,-0.245,0.090
1127,-0.245,0.100
1128,-0.255,0.095
1129,-0.235,0.115
1130,-0.250,0.110
1131,-0.260,0.125
1132,-0.250,0.135
1133,-0.245,0.125
1134,-0.235,0.115
1135,-0.210,0.110
1136,-0.200,0.110
1137,-0.185,0.110
1138,-0.180,0.100
1139,-0.170,0.095
1140,-0.160,0.090
1141,-0.145,0.090
1142,-0.130,0.090
1143,-0.120,0.070
1144,-0.140,0.075
1145,-0.145,0.065
1146,-0.150,0.055
1147,-0.145,0.045
1148,-0.160,0.050
1149,-0.155,0.055
1150,-0.160,0.045
1151,-0.150,0.045
1152,-0.170,0.050
1153,-0.165,0.045
1154,-0.160,0.045
1155,-0.160,0.045
1156,-0.155,0.045
1157,-0.145,0.055
1158,-0.150,0.055
1159,-0.140,0.050
1160,-0.140,0.060
1161,-0.120,0.065
1162,-0.110,0.065
1163,-0.110,0.075
1164,-0.100,0.080
1165,-0.090,0.085
1166,-0.095,0.080
1167,-0.100,0.085
1168,-0.100,0.105
1169,-0.105,0.085
1170,-0.100,0.085
1171,-0.110,0.065
1172,-0.120,0.080
1173,-0.125,0.080
1174,-0.115,0.080
1175,-0.115,0.085
1176,-0.110,0.075
1177,-0.115,0.080
1178,-0.120,0.075
1179,-0.120,0.080
1180,-0.120,0.070
1181,-0.120,0.075
1182,-0.120,0.085
1183,-0.125,0.070
1184,-0.110,0.080
1185,-0.110,0.070
1186,-0.115,0.085
1187,-0.120,0.075
1188,-0.120,0.070
1189,-0.115,0.085
1190,-0.115,0.065
1191,-0.120,0.080
1192,-0.135,0.070
1193,-0.125,0.075
1194,-0.120,0.075
1195,-0.125,0.075
1196,-0.130,0.075
1197,-0.130,0.080
1198,-0.110,0.080
1199,-0.105,0.095
1200,-0.090,0.110
1201,-0.100,0.105
1202,-0.085,0.110
1203,-0.080,0.120
1204,-0.085,0.110
1205,-0.090,0.090
1206,-0.095,0.085
1207,-0.085,0.070
1208,-0.090,0.060
1209,-0.100,0.060
1210,-0.085,0.070
1211,-0.080,0.075
1212,-0.110,0.085
1213,-0.130,0.085
1214,-0.130,0.095
1215,-0.130,0.100
1216,-0.120,0.095
1217,-0.135,0.085
1218,-0.135,0.090
1219,-0.130,0.085
1220,-0.140,0.075
1221,-0.150,0.080
1222,-0.130,0.080
1223,-0.085,0.085
1224,0.130,0.115
1225,0.440,0.075
1226,0.665,-0.020
1227,0.405,-0.210
1228,-0.220,-0.380
1229,-0.480,-0.425
1230,-0.415,-0.310
1231,-0.245,-0.125
1232,-0.190,0.010
1233,-0.175,0.065
1234,-0.200,0.100
1235,-0.195,0.095
1236,-0.200,0.095
1237,-0.180,0.085
1238,-0.185,0.085
1239,-0.195,0.105
1240,-0.200,0.090
1241,-0.195,0.085
1242,-0.200,0.095
1243,-0.195,0.090
1244,-0.195,0.085
1245,-0.190,0.100
1246,-0.190,0.100
1247,-0.190,0.105
1248,-0.180,0.095
1249,-0.190,0.100
1250,-0.190,0.110
1251,-0.195,0.120
1252,-0.200,0.125
1253,-0.205,0.125
1254,-0.210,0.125
1255,-0.190,0.130
1256,-0.200,0.130
1257,-0.195,0.135
1258,-0.180,0.145
1259,-0.170,0.135
1260,-0.160,0.135
1261,-0.165,0.120
1262,-0.145,0.135
1263,-0.120,0.130
1264,-0.115,0.115
1265,-0.095,0.110
1266,-0.090,0.105
1267,-0.075,0.110
1268,-0.070,0.100
1269,-0.080,0.090
1270,-0.090,0.080
1271,-0.075,0.085
1272,-0.095,0.085
1273,-0.115,0.075
1274,-0.125,0.070
1275,-0.135,0.070
1276,-0.130,0.065
1277,-0.125,0.070
1278,-0.135,0.070
1279,-0.135,0.075
1280,-0.125,0.070
1281,-0.115,0.070
1282,-0.135,0.075
1283,-0.130,0.055
1284,-0.115,0.075
1285,-0.080,0.080
1286,-0.095,0.085
1287,-0.100,0.070
1288,-0.095,0.085
1289,-0.090,0.075
1290,-0.090,0.085
1291,-0.090,0.080
1292,-0.090,0.085
1293,-0.080,0.100
1294,-0.080,0.080
1295,-0.085,0.085
1296,-0.080,0.080
1297,-0.085,0.080
1298,-0.080,0.085
1299,-0.090,0.075
1300,-0.095,0.090
1301,-0.105,0.090
1302,-0.100,0.085
1303,-0.100,0.085
1304,-0.105,0.085
1305,-0.095,0.090
1306,-0.090,0.080
1307,-0.100,0.085
1308,-0.100,0.070
1309,-0.095,0.090
1310,-0.105,0.075
1311,-0.100,0.090
1312,-0.100,0.080
1313,-0.105,0.085
1314,-0.115,0.080
1315,-0.135,0.075
1316,-0.125,0.080
1317,-0.125,0.075
1318,-0.115,0.070
1319,-0.115,0.070
1320,-0.105,0.070
1321,-0.115,0.065
1322,-0.105,0.065
1323,-0.115,0.070
1324,-0.115,0.065
1325,-0.115,0.065
1326,-0.080,0.075
1327,-0.070,0.085
1328,-0.065,0.100
1329,-0.055,0.100
1330,-0.080,0.085
1331,-0.095,0.065
1332,-0.090,0.055
1333,-0.085,0.030
1334,-0.080,0.040
1335,-0.090,0.040
1336,-0.090,0.035
1337,-0.080,0.030
1338,-0.080,0.040
1339,-0.090,0.055
1340,-0.110,0.065
1341,-0.110,0.070
1342,-0.120,0.075
1343,-0.120,0.045
1344,-0.125,0.055
1345,-0.110,0.060
1346,-0.115,0.050
1347,-0.120,0.055
1348,-0.130,0.055
1349,-0.125,0.055
1350,-0.035,0.080
1351,0.255,0.100
1352,0.575,0.020
1353,0.720,-0.125
1354,0.265,-0.355
1355,-0.345,-0.495
1356,-0.480,-0.500
1357,-0.370,-0.320
1358,-0.240,-0.135
1359,-0.200,0.005
1360,-0.205,0.055
1361,-0.205,0.080
1362,-0.210,0.075
1363,-0.215,0.075
1364,-0.210,0.070
1365,-0.200,0.075
1366,-0.220,0.075
1367,-0.215,0.070
1368,-0.200,0.075
1369,-0.190,0.080
1370,-0.205,0.070
1371,-0.195,0.090
1372,-0.195,0.090
1373,-0.205,0.095
1374,-0.195,0.100
1375,-0.190,0.110
1376,-0.200,0.115
1377,-0.195,0.110
1378,-0.205,0.125
1379,-0.210,0.135
1380,-0.225,0.125
1381,-0.210,0.140
1382,-0.200,0.150
1383,-0.195,0.150
1384,-0.190,0.135
1385,-0.175,0.130
1386,-0.180,0.130
1387,-0.180,0.135
1388,-0.170,0.135
1389,-0.145,0.130
1390,-0.135,0.125
1391,-0.135,0.125
1392,-0.115,0.120
1393,-0.095,0.105
1394,-0.095,0.120
1395,-0.095,0.100
1396,-0.105,0.105
1397,-0.115,0.085
1398,-0.125,0.095
1399,-0.150,0.080
1400,-0.145,0.080
1401,-0.140,0.070
1402,-0.130,0.085
1403,-0.120,0.090
1404,-0.115,0.095
1405,-0.110,0.090
1406,-0.125,0.075
1407,-0.125,0.080
1408,-0.125,0.085
1409,-0.135,0.085
1410,-0.110,0.085
1411,-0.100,0.105
1412,-0.110,0.115
1413,-0.095,0.095
1414,-0.090,0.075
1415,-0.080,0.080
1416,-0.080,0.070
1417,-0.085,0.070
1418,-0.085,0.080
1419,-0.070,0.055
1420,-0.075,0.070
1421,-0.075,0.070
1422,-0.075,0.075
1423,-0.075,0.075
1424,-0.020,0.085
1425,0.240,0.090
1426,0.540,0.035
1427,0.775,-0.115
1428,0.540,-0.345
1429,-0.190,-0.535
1430,-0.410,-0.550
1431,-0.285,-0.440
1432,-0.155,-0.190
1433,-0.120,0.005
1434,-0.140,0.100
1435,-0.145,0.110
1436,-0.140,0.115
1437,-0.135,0.100
1438,-0.150,0.110
1439,-0.160,0.110
1440,-0.160,0.105
1441,-0.170,0.105
1442,-0.160,0.115
1443,-0.160,0.125
1444,-0.155,0.115
1445,-0.155,0.120
1446,-0.155,0.130
1447,-0.155,0.140
1448,-0.160,0.130
1449,-0.165,0.150
1450,-0.160,0.155
1451,-0.160,0.160
1452,-0.145,0.165
1453,-0.150,0.180
1454,-0.155,0.190
1455,-0.155,0.170
1456,-0.150,0.190
1457,-0.155,0.175
1458,-0.145,0.200
1459,-0.130,0.185
1460,-0.115,0.185
1461,-0.115,0.165
1462,-0.115,0.155
1463,-0.095,0.150
1464,-0.080,0.150
1465,-0.070,0.130
1466,-0.055,0.120
1467,-0.055,0.105
1468,-0.065,0.100
1469,-0.070,0.090
1470,-0.085,0.095
1471,-0.095,0.075
1472,-0.080,0.075
1473,-0.095,0.075
1474,-0.100,0.075
1475,-0.100,0.070
1476,-0.110,0.065
1477,-0.105,0.060
1478,-0.115,0.065
1479,-0.100,0.060
1480,-0.105,0.055
1481,-0.100,0.060
1482,-0.110,0.055
1483,-0.105,0.055
1484,-0.105,0.055
1485,-0.100,0.060
1486,-0.095,0.045
1487,-0.090,0.055
1488,-0.085,0.060
1489,-0.095,0.055
1490,-0.085,0.065
1491,-0.095,0.040
1492,-0.095,0.060
1493,-0.075,0.060
1494,-0.080,0.060
1495,-0.090,0.055
1496,-0.100,0.060
1497,-0.105,0.055
1498,-0.095,0.050
1499,-0.105,0.050
1500,-0.090,0.055
1501,-0.100,0.045
1502,-0.105,0.040
1503,-0.115,0.040
1504,-0.115,0.040
1505,-0.105,0.035
1506,-0.115,0.040
1507,-0.110,0.045
1508,-0.120,0.045
1509,-0.120,0.025
1510,-0.115,0.030
1511,-0.125,0.040
1512,-0.120,0.025
1513,-0.120,0.030
1514,-0.105,0.035
1515,-0.110,0.035
1516,-0.100,0.035
1517,-0.110,0.035
1518,-0.095,0.040
1519,-0.105,0.045
1520,-0.100,0.035
1521,-0.105,0.040
1522,-0.120,0.030
1523,-0.115,0.040
1524,-0.110,0.025
1525,-0.120,0.035
1526,-0.115,0.035
1527,-0.115,0.035
1528,-0.115,0.030
1529,-0.110,0.030
1530,-0.110,0.010
1531,-0.110,0.025
1532,-0.110,0.015
1533,-0.115,0.020
1534,-0.115,0.025
1535,-0.090,0.035
1536,-0.095,0.050
1537,-0.090,0.035
1538,-0.080,0.025
1539,-0.090,0.030
1540,-0.080,0.020
1541,-0.090,0.035
1542,-0.080,0.025
1543,-0.085,0.025
1544,-0.080,0.025
1545,-0.095,0.015
1546,-0.095,0.015
1547,-0.105,0.005
1548,-0.095,0.025
1549,-0.090,0.015
1550,-0.075,0.020
1551,-0.085,0.025
1552,-0.090,0.030
1553,-0.090,0.020
1554,-0.100,0.010
1555,-0.085,0.025
1556,-0.085,0.020
1557,-0.080,0.020
1558,-0.080,0.000
1559,-0.060,0.010
1560,-0.050,0.015
1561,-0.050,0.015
1562,-0.075,0.030
1563,-0.050,0.035
1564,-0.065,0.020
1565,-0.075,0.000
1566,-0.085,-0.005
1567,-0.085,-0.020
1568,-0.075,-0.020
1569,-0.085,-0.040
1570,-0.065,-0.040
1571,-0.070,-0.020
1572,-0.075,-0.035
1573,-0.095,-0.010
1574,-0.100,-0.005
1575,-0.100,0.000
1576,-0.095,-0.015
1577,-0.095,-0.015
1578,-0.090,-0.020
1579,-0.080,-0.015
1580,-0.065,-0.025
1581,-0.090,-0.025
1582,-0.105,-0.025
1583,-0.050,-0.005
1584,0.185,0.005
1585,0.495,-0.025
1586,0.730,-0.140
1587,0.465,-0.360
1588,-0.205,-0.510
1589,-0.480,-0.565
1590,-0.400,-0.455
1591,-0.230,-0.270
1592,-0.175,-0.110
1593,-0.180,-0.035
1594,-0.185,-0.010
1595,-0.200,-0.025
1596,-0.175,-0.035
1597,-0.175,-0.025
1598,-0.185,-0.040
1599,-0.180,-0.040
1600,-0.190,-0.045
1601,-0.195,-0.030
1602,-0.195,-0.050
1603,-0.210,-0.055
1604,-0.215,-0.060
1605,-0.210,-0.040
1606,-0.225,-0.045
1607,-0.215,-0.050
1608,-0.235,-0.035
1609,-0.235,-0.045
1610,-0.225,-0.045
1611,-0.235,-0.050
1612,-0.235,-0.035
1613,-0.235,-0.030
1614,-0.225,-0.025
1615,-0.215,-0.025
1616,-0.215,-0.020
1617,-0.215,-0.020
1618,-0.210,-0.025
1619,-0.195,-0.025
1620,-0.200,-0.040
1621,-0.170,-0.025
1622,-0.170,-0.040
1623,-0.160,-0.050
1624,-0.155,-0.055
1625,-0.135,-0.070
1626,-0.120,-0.070
1627,-0.105,-0.080
1628,-0.100,-0.085
1629,-0.095,-0.085
1630,-0.085,-0.100
1631,-0.075,-0.115
1632,-0.090,-0.110
1633,-0.080,-0.130
1634,-0.100,-0.130
1635,-0.095,-0.135
1636,-0.100,-0.135
1637,-0.105,-0.140
1638,-0.105,-0.140
1639,-0.100,-0.135
1640,-0.085,-0.135
1641,-0.095,-0.140
1642,-0.100,-0.135
1643,-0.100,-0.130
1644,-0.105,-0.135
1645,-0.090,-0.130
1646,-0.090,-0.140
1647,-0.095,-0.140
1648,-0.095,-0.135
1649,-0.085,-0.130
1650,-0.080,-0.130
1651,-0.085,-0.125
1652,-0.080,-0.145
1653,-0.065,-0.140
1654,-0.065,-0.125
1655,-0.075,-0.120
1656,-0.090,-0.130
1657,-0.085,-0.135
1658,-0.095,-0.130
1659,-0.075,-0.140
1660,-0.075,-0.135
1661,-0.070,-0.140
1662,-0.070,-0.150
1663,-0.090,-0.140
1664,-0.085,-0.160
1665,-0.090,-0.160
1666,-0.095,-0.160
1667,-0.095,-0.155
1668,-0.095,-0.150
1669,-0.110,-0.145
1670,-0.115,-0.160
1671,-0.100,-0.150
1672,-0.100,-0.150
1673,-0.090,-0.150
1674,-0.090,-0.160
1675,-0.100,-0.150
1676,-0.090,-0.155
1677,-0.115,-0.150
1678,-0.095,-0.150
1679,-0.100,-0.165
1680,-0.090,-0.145
1681,-0.075,-0.145
1682,-0.070,-0.150
1683,-0.085,-0.155
1684,-0.085,-0.150
1685,-0.090,-0.145
1686,-0.090,-0.145
1687,-0.085,-0.145
1688,-0.075,-0.140
1689,-0.060,-0.145
1690,-0.065,-0.140
1691,-0.060,-0.125
1692,-0.055,-0.120
1693,-0.050,-0.115
1694,-0.060,-0.125
1695,-0.065,-0.130
1696,-0.065,-0.155
1697,-0.070,-0.160
1698,-0.065,-0.165
1699,-0.055,-0.175
1700,-0.050,-0.170
1701,-0.045,-0.170
1702,-0.045,-0.160
1703,-0.075,-0.155
1704,-0.085,-0.135
1705,-0.075,-0.120
1706,-0.080,-0.125
1707,-0.080,-0.125
1708,-0.075,-0.145
1709,-0.075,-0.120
1710,-0.085,-0.115
1711,-0.090,-0.115
1712,-0.100,-0.120
1713,-0.055,-0.085
1714,0.150,-0.065
1715,0.480,-0.115
1716,0.710,-0.215
1717,0.495,-0.420
1718,-0.130,-0.595
1719,-0.440,-0.640
1720,-0.380,-0.530
1721,-0.235,-0.345
1722,-0.135,-0.205
1723,-0.135,-0.110
1724,-0.130,-0.075
1725,-0.140,-0.065
1726,-0.135,-0.060
1727,-0.130,-0.075
1728,-0.125,-0.060
1729,-0.130,-0.055
1730,-0.135,-0.050
1731,-0.140,-0.050
1732,-0.150,-0.050
1733,-0.155,-0.045
1734,-0.155,-0.040
1735,-0.150,-0.040
1736,-0.155,-0.035
1737,-0.165,-0.050
1738,-0.160,-0.025
1739,-0.160,-0.020
1740,-0.160,-0.020
1741,-0.155,-0.015
1742,-0.155,0.005
1743,-0.155,0.010
1744,-0.150,0.015
1745,-0.155,0.010
1746,-0.145,0.020
1747,-0.135,0.025
1748,-0.150,0.015
1749,-0.135,0.020
1750,-0.120,0.020
1751,-0.120,0.015
1752,-0.120,0.020
1753,-0.100,0.000
1754,-0.090,0.020
1755,-0.085,0.005
1756,-0.070,0.000
1757,-0.055,0.000
1758,-0.055,-0.005
1759,-0.060,-0.005
1760,-0.075,-0.010
1761,-0.080,-0.005
1762,-0.100,-0.005
1763,-0.100,-0.010
1764,-0.070,-0.015
1765,-0.075,-0.005
1766,-0.065,-0.005
1767,-0.065,-0.015
1768,-0.065,-0.010
1769,-0.075,-0.015
1770,-0.070,0.000
1771,-0.100,0.000
1772,-0.085,-0.005
1773,-0.070,0.005
1774,-0.080,0.015
1775,-0.080,0.025
1776,-0.070,0.020
1777,-0.065,0.000
1778,-0.075,0.000
1779,-0.075,-0.005
1780,-0.060,0.000
1781,-0.060,0.000
1782,-0.045,0.010
1783,-0.060,0.005
1784,-0.045,0.005
1785,-0.040,0.005
1786,-0.045,0.020
1787,-0.005,0.015
1788,0.215,0.030
1789,0.500,-0.020
1790,0.710,-0.145
1791,0.495,-0.315
1792,-0.200,-0.490
1793,-0.375,-0.505
1794,-0.230,-0.375
1795,-0.100,-0.195
1796,-0.080,-0.020
1797,-0.100,0.040
1798,-0.090,0.045
1799,-0.085,0.055
1800,-0.100,0.045
1801,-0.095,0.040
1802,-0.095,0.050
1803,-0.095,0.060
1804,-0.095,0.070
1805,-0.085,0.075
1806,-0.075,0.080
1807,-0.080,0.065
1808,-0.080,0.080
1809,-0.075,0.080
1810,-0.075,0.085
1811,-0.090,0.095
1812,-0.080,0.090
1813,-0.080,0.100
1814,-0.090,0.115
1815,-0.080,0.120
1816,-0.075,0.125
1817,-0.075,0.130
1818,-0.080,0.125
1819,-0.080,0.135
1820,-0.085,0.135
1821,-0.090,0.135
1822,-0.070,0.145
1823,-0.055,0.130
1824,-0.050,0.120
1825,-0.035,0.120
1826,-0.015,0.120
1827,0.000,0.095
1828,0.005,0.090
1829,0.005,0.090
1830,0.020,0.080
1831,0.000,0.065
1832,0.000,0.055
1833,-0.020,0.055
1834,-0.025,0.055
1835,-0.030,0.065
1836,-0.045,0.045
1837,-0.050,0.050
1838,-0.050,0.045
1839,-0.045,0.035
1840,-0.055,0.035
1841,-0.050,0.045
1842,-0.065,0.025
1843,-0.035,0.035
1844,-0.055,0.035
1845,-0.040,0.035
1846,-0.045,0.050
1847,-0.020,0.050
1848,-0.005,0.050
1849,0.000,0.050
1850,-0.010,0.060
1851,-0.005,0.050
1852,-0.010,0.060
1853,-0.010,0.050
1854,-0.020,0.055
1855,-0.015,0.060
1856,-0.015,0.065
1857,-0.020,0.050
1858,-0.045,0.055
1859,-0.035,0.050
1860,-0.030,0.050
1861,-0.045,0.050
1862,-0.050,0.055
1863,-0.045,0.055
1864,-0.055,0.050
1865,-0.050,0.050
1866,-0.065,0.045
1867,-0.065,0.040
1868,-0.050,0.040
1869,-0.050,0.030
1870,-0.065,0.025
1871,-0.060,0.025
1872,-0.060,0.015
1873,-0.070,0.025
1874,-0.070,0.020
1875,-0.075,0.030
1876,-0.070,0.010
1877,-0.075,0.020
1878,-0.090,0.020
1879,-0.085,0.015
1880,-0.080,0.010
1881,-0.065,0.020
1882,-0.085,0.005
1883,-0.085,0.000
1884,-0.080,0.000
1885,-0.080,0.000
1886,-0.075,0.005
1887,-0.080,0.000
1888,-0.085,0.005
1889,-0.075,0.015
1890,-0.065,0.005
1891,-0.080,0.000
1892,-0.080,0.010
1893,-0.075,0.000
1894,-0.075,0.000
1895,-0.080,0.000
1896,-0.080,-0.010
1897,-0.075,0.005
1898,-0.075,0.000
1899,-0.085,0.005
1900,-0.100,0.000
1901,-0.090,0.000
1902,-0.095,-0.005
1903,-0.090,-0.010
1904,-0.100,-0.005
1905,-0.095,-0.010
1906,-0.100,0.000
1907,-0.105,0.000
1908,-0.095,-0.005
1909,-0.100,-0.010
1910,-0.090,0.000
1911,-0.090,0.000
1912,-0.085,0.000
1913,-0.090,-0.005
1914,-0.090,0.000
1915,-0.100,0.000
1916,-0.085,-0.010
1917,-0.100,-0.010
1918,-0.080,-0.015
1919,-0.090,-0.010
1920,-0.095,-0.015
1921,-0.100,-0.005
1922,-0.095,-0.010
1923,-0.090,-0.010
1924,-0.070,-0.005
1925,-0.065,-0.010
1926,-0.070,0.005
1927,-0.065,0.020
1928,-0.065,0.005
1929,-0.070,0.010
1930,-0.075,-0.005
1931,-0.070,-0.010
1932,-0.060,-0.030
1933,-0.055,-0.030
1934,-0.065,-0.035
1935,-0.070,-0.050
1936,-0.060,-0.045
1937,-0.070,-0.025
1938,-0.070,-0.010
1939,-0.085,0.000
1940,-0.080,0.000
1941,-0.080,-0.005
1942,-0.090,0.000
1943,-0.090,-0.005
1944,-0.085,-0.005
1945,-0.090,-0.010
1946,-0.080,-0.010
1947,-0.105,0.000
1948,-0.015,0.005
1949,0.235,0.020
1950,0.550,-0.040
1951,0.760,-0.170
1952,0.445,-0.375
1953,-0.200,-0.525
1954,-0.440,-0.555
1955,-0.370,-0.425
1956,-0.210,-0.255
1957,-0.160,-0.090
1958,-0.160,-0.010
1959,-0.170,0.020
1960,-0.175,0.025
1961,-0.185,0.005
1962,-0.185,0.005
1963,-0.195,0.000
1964,-0.195,0.000
1965,-0.195,0.000
1966,-0.200,0.005
1967,-0.205,0.005
1968,-0.215,0.000
1969,-0.205,0.000
1970,-0.215,0.005
1971,-0.210,0.005
1972,-0.225,0.025
1973,-0.225,0.020
1974,-0.225,0.025
1975,-0.210,0.030
1976,-0.210,0.040
1977,-0.200,0.040
1978,-0.205,0.060
1979,-0.205,0.065
1980,-0.215,0.065
1981,-0.195,0.070
1982,-0.190,0.065
1983,-0.200,0.070
1984,-0.190,0.065
1985,-0.195,0.080
1986,-0.175,0.065
1987,-0.170,0.060
1988,-0.155,0.065
1989,-0.140,0.065
1990,-0.130,0.065
1991,-0.115,0.045
1992,-0.095,0.045
1993,-0.105,0.035
1994,-0.075,0.035
1995,-0.075,0.030
1996,-0.065,0.035
1997,-0.065,0.020
1998,-0.075,0.020
1999,-0.080,0.035
2000,-0.090,0.025
2001,-0.100,0.040
2002,-0.110,0.035
2003,-0.095,0.030
2004,-0.110,0.040
2005,-0.110,0.040
2006,-0.115,0.045
2007,-0.105,0.040
2008,-0.115,0.045
2009,-0.110,0.060
2010,-0.110,0.055
2011,-0.100,0.060
2012,-0.105,0.065
2013,-0.105,0.075
2014,-0.100,0.075
2015,-0.080,0.090
2016,-0.080,0.100
2017,-0.075,0.110
2018,-0.075,0.100
2019,-0.070,0.110
2020,-0.075,0.120
2021,-0.075,0.120
2022,-0.085,0.110
2023,-0.085,0.125
2024,-0.075,0.130
2025,-0.100,0.140
2026,-0.105,0.120
2027,-0.105,0.130
2028,-0.110,0.125
2029,-0.110,0.135
2030,-0.115,0.145
2031,-0.110,0.150
2032,-0.120,0.140
2033,-0.115,0.150
2034,-0.120,0.140
2035,-0.110,0.150
2036,-0.110,0.165
2037,-0.100,0.165
2038,-0.100,0.165
2039,-0.100,0.155
2040,-0.115,0.165
2041,-0.110,0.175
2042,-0.120,0.165
2043,-0.120,0.165
2044,-0.110,0.170
2045,-0.115,0.180
2046,-0.120,0.165
2047,-0.120,0.160
2048,-0.125,0.160
2049,-0.135,0.150
2050,-0.125,0.145
2051,-0.125,0.160
2052,-0.115,0.155
2053,-0.090,0.150
2054,-0.090,0.160
2055,-0.100,0.175
2056,-0.095,0.175
2057,-0.075,0.185
2058,-0.090,0.165
2059,-0.100,0.150
2060,-0.090,0.135
2061,-0.085,0.120
2062,-0.085,0.110
2063,-0.080,0.115
2064,-0.085,0.105
2065,-0.085,0.115
2066,-0.095,0.120
2067,-0.115,0.130
2068,-0.130,0.125
2069,-0.140,0.130
2070,-0.125,0.130
2071,-0.130,0.125
2072,-0.130,0.125
2073,-0.130,0.115
2074,-0.130,0.115
2075,-0.125,0.120
2076,-0.140,0.115
2077,-0.095,0.135
2078,0.070,0.145
2079,0.375,0.125
2080,0.630,0.040
2081,0.440,-0.145
2082,-0.185,-0.325
2083,-0.495,-0.380
2084,-0.430,-0.290
2085,-0.260,-0.115
2086,-0.190,0.020
2087,-0.195,0.085
2088,-0.210,0.090
2089,-0.220,0.085
2090,-0.220,0.080
2091,-0.225,0.080
2092,-0.225,0.075
2093,-0.210,0.075
2094,-0.230,0.070
2095,-0.235,0.075
2096,-0.235,0.060
2097,-0.250,0.040
2098,-0.235,0.040
2099,-0.240,0.040
2100,-0.230,0.035
2101,-0.235,0.030
2102,-0.240,0.035
2103,-0.240,0.035
2104,-0.245,0.030
2105,-0.255,0.025
2106,-0.265,0.025
2107,-0.260,0.035
2108,-0.285,0.035
2109,-0.280,0.035
2110,-0.285,0.030
2111,-0.285,0.020
2112,-0.270,0.035
2113,-0.280,0.020
2114,-0.275,0.015
2115,-0.270,0.000
2116,-0.260,-0.010
2117,-0.265,-0.020
2118,-0.240,-0.020
2119,-0.255,-0.040
2120,-0.225,-0.050
2121,-0.215,-0.060
2122,-0.210,-0.070
2123,-0.205,-0.080
2124,-0.215,-0.085
2125,-0.225,-0.105
2126,-0.240,-0.110
2127,-0.250,-0.130
2128,-0.255,-0.135
2129,-0.260,-0.140
2130,-0.290,-0.135
2131,-0.300,-0.160
2132,-0.305,-0.160
2133,-0.305,-0.170
2134,-0.300,-0.170
2135,-0.315,-0.185
2136,-0.315,-0.185
2137,-0.310,-0.195
2138,-0.315,-0.180
2139,-0.320,-0.205
2140,-0.310,-0.200
2141,-0.305,-0.210
2142,-0.300,-0.215
2143,-0.305,-0.220
2144,-0.300,-0.220
2145,-0.290,-0.210
2146,-0.295,-0.225
2147,-0.300,-0.230
2148,-0.295,-0.230
2149,-0.305,-0.230
2150,-0.315,-0.240
2151,-0.325,-0.240
2152,-0.320,-0.250
2153,-0.315,-0.240
2154,-0.325,-0.240
2155,-0.340,-0.240
2156,-0.340,-0.255
2157,-0.340,-0.260
2158,-0.360,-0.260
2159,-0.350,-0.265
2160,-0.355,-0.265
2161,-0.370,-0.270
2162,-0.370,-0.285
2163,-0.365,-0.285
2164,-0.375,-0.285
2165,-0.375,-0.290
2166,-0.380,-0.295
2167,-0.380,-0.290
2168,-0.390,-0.295
2169,-0.395,-0.290
2170,-0.400,-0.300
2171,-0.405,-0.305
2172,-0.390,-0.310
2173,-0.410,-0.310
2174,-0.420,-0.310
2175,-0.425,-0.320
2176,-0.430,-0.320
2177,-0.420,-0.315
2178,-0.415,-0.325
2179,-0.430,-0.325
2180,-0.425,-0.330
2181,-0.430,-0.335
2182,-0.415,-0.340
2183,-0.395,-0.305
2184,-0.390,-0.310
2185,-0.405,-0.315
2186,-0.400,-0.305
2187,-0.400,-0.320
2188,-0.415,-0.345
2189,-0.415,-0.360
2190,-0.415,-0.365
2191,-0.415,-0.375
2192,-0.420,-0.375
2193,-0.425,-0.375
2194,-0.435,-0.360
2195,-0.450,-0.360
2196,-0.460,-0.340
2197,-0.460,-0.335
2198,-0.460,-0.330
2199,-0.465,-0.340
2200,-0.475,-0.350
2201,-0.460,-0.355
2202,-0.465,-0.345
2203,-0.470,-0.355
2204,-0.470,-0.360
2205,-0.460,-0.355
2206,-0.360,-0.330
2207,-0.055,-0.330
2208,0.285,-0.370
2209,0.375,-0.535
2210,-0.140,-0.740
2211,-0.705,-0.865
2212,-0.775,-0.825
2213,-0.670,-0.680
2214,-0.560,-0.520
2215,-0.535,-0.375
2216,-0.555,-0.350
2217,-0.565,-0.330
2218,-0.555,-0.330
2219,-0.550,-0.340
2220,-0.560,-0.340
2221,-0.570,-0.345
2222,-0.560,-0.340
2223,-0.565,-0.335
2224,-0.575,-0.320
2225,-0.575,-0.320
2226,-0.565,-0.335
2227,-0.570,-0.330
2228,-0.580,-0.330
2229,-0.565,-0.320
2230,-0.550,-0.305
2231,-0.570,-0.305
2232,-0.570,-0.300
2233,-0.575,-0.295
2234,-0.585,-0.300
2235,-0.590,-0.285
2236,-0.600,-0.275
2237,-0.595,-0.260
2238,-0.580,-0.270
2239,-0.585,-0.260
2240,-0.565,-0.260
2241,-0.580,-0.250
2242,-0.560,-0.250
2243,-0.565,-0.265
2244,-0.560,-0.270
2245,-0.550,-0.270
2246,-0.540,-0.280
2247,-0.525,-0.280
2248,-0.505,-0.275
2249,-0.495,-0.275
2250,-0.495,-0.300
2251,-0.485,-0.295
2252,-0.485,-0.315
2253,-0.495,-0.310
2254,-0.510,-0.315
2255,-0.515,-0.325
2256,-0.520,-0.325
2257,-0.535,-0.330
2258,-0.535,-0.350
2259,-0.530,-0.350
2260,-0.545,-0.360
2261,-0.540,-0.335
2262,-0.545,-0.335
2263,-0.535,-0.360
2264,-0.535,-0.335
2265,-0.540,-0.340
2266,-0.535,-0.340
2267,-0.525,-0.345
2268,-0.500,-0.340
2269,-0.515,-0.340
2270,-0.505,-0.340
2271,-0.495,-0.320
2272,-0.500,-0.325
2273,-0.505,-0.320
2274,-0.490,-0.320
2275,-0.485,-0.315
2276,-0.500,-0.315
2277,-0.495,-0.315
2278,-0.495,-0.320
2279,-0.490,-0.305
2280,-0.495,-0.310
2281,-0.495,-0.305
2282,-0.505,-0.305
2283,-0.505,-0.300
2284,-0.510,-0.300
2285,-0.515,-0.295
2286,-0.510,-0.280
2287,-0.520,-0.280
2288,-0.500,-0.280
2289,-0.500,-0.270
2290,-0.510,-0.270
2291,-0.505,-0.265
2292,-0.510,-0.270
2293,-0.510,-0.255
2294,-0.500,-0.255
2295,-0.505,-0.250
2296,-0.505,-0.245
2297,-0.500,-0.255
2298,-0.515,-0.240
2299,-0.520,-0.230
2300,-0.510,-0.230
2301,-0.505,-0.230
2302,-0.500,-0.235
2303,-0.495,-0.235
2304,-0.470,-0.235
2305,-0.490,-0.235
2306,-0.475,-0.215
2307,-0.470,-0.220
2308,-0.455,-0.190
2309,-0.440,-0.185
2310,-0.430,-0.180
2311,-0.425,-0.185
2312,-0.445,-0.180
2313,-0.455,-0.180
2314,-0.440,-0.200
2315,-0.440,-0.205
2316,-0.440,-0.210
2317,-0.440,-0.210
2318,-0.425,-0.210
2319,-0.445,-0.200
2320,-0.450,-0.180
2321,-0.445,-0.160
2322,-0.445,-0.145
2323,-0.445,-0.140
2324,-0.440,-0.150
2325,-0.435,-0.145
2326,-0.435,-0.140
2327,-0.420,-0.150
2328,-0.425,-0.140
2329,-0.435,-0.145
2330,-0.410,-0.125
2331,-0.335,-0.110
2332,-0.065,-0.095
2333,0.240,-0.140
2334,0.405,-0.250
2335,0.035,-0.440
2336,-0.545,-0.565
2337,-0.710,-0.580
2338,-0.640,-0.450
2339,-0.495,-0.270
2340,-0.455,-0.145
2341,-0.455,-0.080
2342,-0.455,-0.070
2343,-0.450,-0.080
2344,-0.450,-0.070
2345,-0.450,-0.060
2346,-0.455,-0.060
2347,-0.450,-0.070
2348,-0.435,-0.065
2349,-0.430,-0.060
2350,-0.440,-0.060
2351,-0.420,-0.050
2352,-0.405,-0.045
2353,-0.410,-0.035
2354,-0.410,-0.035
2355,-0.405,-0.030
2356,-0.405,-0.035
2357,-0.410,-0.025
2358,-0.395,-0.025
2359,-0.410,-0.010
2360,-0.400,0.005
2361,-0.405,0.000
2362,-0.395,0.005
2363,-0.395,0.010
2364,-0.385,0.020
2365,-0.395,0.025
2366,-0.380,0.025
2367,-0.365,0.015
2368,-0.355,0.015
2369,-0.360,0.010
2370,-0.350,0.010
2371,-0.315,0.015
2372,-0.315,0.010
2373,-0.290,0.005
2374,-0.285,0.000
2375,-0.270,0.000
2376,-0.265,-0.015
2377,-0.270,0.000
2378,-0.275,-0.005
2379,-0.270,-0.015
2380,-0.280,-0.020
2381,-0.285,-0.020
2382,-0.290,-0.015
2383,-0.290,-0.005
2384,-0.295,-0.010
2385,-0.295,-0.015
2386,-0.295,-0.020
2387,-0.290,-0.015
2388,-0.295,-0.010
2389,-0.290,0.000
2390,-0.290,-0.010
2391,-0.290,-0.015
2392,-0.270,0.000
2393,-0.270,0.000
2394,-0.265,0.000
2395,-0.250,0.000
2396,-0.245,0.000
2397,-0.245,0.000
2398,-0.235,0.010
2399,-0.225,0.010
2400,-0.225,0.020
2401,-0.230,0.010
2402,-0.230,0.015
2403,-0.235,0.025
2404,-0.235,0.030
2405,-0.230,0.030
2406,-0.225,0.020
2407,-0.225,0.020
2408,-0.225,0.025
2409,-0.230,0.030
2410,-0.225,0.035
2411,-0.225,0.040
2412,-0.230,0.045
2413,-0.220,0.040
2414,-0.225,0.040
2415,-0.205,0.040
2416,-0.205,0.030
2417,-0.200,0.045
2418,-0.205,0.050
2419,-0.205,0.045
2420,-0.205,0.055
2421,-0.210,0.055
2422,-0.215,0.050
2423,-0.205,0.045
2424,-0.210,0.060
2425,-0.220,0.055
2426,-0.220,0.055
2427,-0.220,0.040
2428,-0.205,0.065
2429,-0.215,0.065
2430,-0.210,0.060
2431,-0.200,0.075
2432,-0.190,0.085
2433,-0.175,0.075
2434,-0.160,0.085
2435,-0.160,0.105
2436,-0.140,0.095
2437,-0.125,0.100
2438,-0.135,0.080
2439,-0.150,0.080
2440,-0.130,0.070
2441,-0.135,0.055
2442,-0.130,0.050
2443,-0.130,0.060
2444,-0.125,0.055
2445,-0.125,0.055
2446,-0.140,0.065
2447,-0.145,0.085
2448,-0.145,0.095
2449,-0.135,0.105
2450,-0.140,0.085
2451,-0.135,0.090
2452,-0.135,0.090
2453,-0.130,0.090
2454,-0.130,0.115
2455,-0.125,0.100
2456,-0.140,0.125
2457,-0.035,0.135
2458,0.215,0.155
2459,0.545,0.110
2460,0.775,-0.015
2461,0.465,-0.210
2462,-0.170,-0.360
2463,-0.415,-0.375
2464,-0.345,-0.270
2465,-0.200,-0.085
2466,-0.140,0.060
2467,-0.160,0.140
2468,-0.165,0.155
2469,-0.160,0.145
2470,-0.160,0.160
2471,-0.160,0.150
2472,-0.155,0.155
2473,-0.165,0.150
2474,-0.165,0.145
2475,-0.155,0.150
2476,-0.150,0.155
2477,-0.155,0.165
2478,-0.130,0.145
2479,-0.145,0.155
2480,-0.150,0.155
2481,-0.135,0.175
2482,-0.135,0.175
2483,-0.125,0.175
2484,-0.130,0.190
2485,-0.125,0.200
2486,-0.125,0.200
2487,-0.125,0.190
2488,-0.140,0.210
2489,-0.120,0.210
2490,-0.120,0.215
2491,-0.105,0.220
2492,-0.095,0.220
2493,-0.080,0.220
2494,-0.085,0.210
2495,-0.065,0.200
2496,-0.070,0.205
2497,-0.040,0.185
2498,-0.035,0.180
2499,-0.005,0.165
2500,0.005,0.135
2501,0.020,0.145
2502,0.030,0.140
2503,0.025,0.130
2504,0.020,0.125
2505,0.010,0.130
2506,0.015,0.115
2507,0.010,0.110
2508,0.005,0.095
2509,-0.010,0.085
2510,0.000,0.080
2511,-0.005,0.075
2512,0.000,0.070
2513,0.000,0.060
2514,0.005,0.065
2515,0.005,0.055
2516,0.005,0.045
2517,0.005,0.030
2518,0.015,0.040
2519,0.010,0.035
2520,0.025,0.020
2521,0.055,0.015
2522,0.050,0.025
2523,0.050,0.020
2524,0.050,0.005
2525,0.070,0.005
2526,0.075,0.000
2527,0.075,0.000
2528,0.075,0.000
2529,0.080,-0.005
2530,0.070,0.000
2531,0.065,-0.015
2532,0.075,-0.025
2533,0.065,-0.025
2534,0.070,-0.020
2535,0.080,-0.010
2536,0.075,-0.020
2537,0.075,-0.030
2538,0.085,-0.050
2539,0.080,-0.050
2540,0.085,-0.050
2541,0.095,-0.065
2542,0.095,-0.070
2543,0.095,-0.070
2544,0.095,-0.085
2545,0.090,-0.090
2546,0.095,-0.095
2547,0.090,-0.115
2548,0.095,-0.110
2549,0.095,-0.120
2550,0.090,-0.125
2551,0.090,-0.125
2552,0.100,-0.130
2553,0.095,-0.145
2554,0.100,-0.150
2555,0.105,-0.155
2556,0.105,-0.165
2557,0.110,-0.155
2558,0.125,-0.165
2559,0.135,-0.170
2560,0.125,-0.165
2561,0.120,-0.155
2562,0.140,-0.155
2563,0.155,-0.175
2564,0.140,-0.175
2565,0.130,-0.205
2566,0.145,-0.225
2567,0.135,-0.220
2568,0.145,-0.240
2569,0.150,-0.240
2570,0.155,-0.255
2571,0.155,-0.245
2572,0.145,-0.240
2573,0.135,-0.240
2574,0.120,-0.235
2575,0.120,-0.245
2576,0.135,-0.255
2577,0.145,-0.255
2578,0.140,-0.255
2579,0.145,-0.270
2580,0.150,-0.265
2581,0.140,-0.285
2582,0.170,-0.275
2583,0.405,-0.255
2584,0.725,-0.290
2585,0.975,-0.395
2586,0.805,-0.590
2587,0.170,-0.765
2588,-0.150,-0.835
2589,-0.110,-0.735
2590,0.050,-0.555
2591,0.105,-0.410
2592,0.135,-0.335
2593,0.130,-0.320
2594,0.125,-0.325
2595,0.110,-0.330
2596,0.130,-0.345
2597,0.105,-0.345
2598,0.105,-0.340
2599,0.105,-0.350
2600,0.115,-0.360
2601,0.105,-0.355
2602,0.110,-0.355
2603,0.115,-0.355
2604,0.110,-0.370
2605,0.100,-0.350
2606,0.115,-0.365
2607,0.120,-0.365
2608,0.135,-0.360
2609,0.120,-0.345
2610,0.130,-0.350
2611,0.135,-0.335
2612,0.130,-0.330
2613,0.140,-0.330
2614,0.135,-0.320
2615,0.135,-0.335
2616,0.135,-0.335
2617,0.140,-0.330
2618,0.160,-0.345
2619,0.165,-0.355
2620,0.175,-0.355
2621,0.190,-0.365
2622,0.195,-0.365
2623,0.210,-0.375
2624,0.205,-0.390
2625,0.215,-0.390
2626,0.225,-0.400
2627,0.245,-0.405
2628,0.245,-0.400
2629,0.225,-0.420
2630,0.225,-0.430
2631,0.225,-0.430
2632,0.195,-0.445
2633,0.205,-0.440
2634,0.205,-0.440
2635,0.200,-0.450
2636,0.200,-0.450
2637,0.205,-0.450
2638,0.195,-0.445
2639,0.185,-0.450
2640,0.190,-0.465
2641,0.190,-0.455
2642,0.200,-0.460
2643,0.185,-0.470
2644,0.190,-0.460
2645,0.190,-0.455
2646,0.195,-0.455
2647,0.195,-0.460
2648,0.200,-0.455
2649,0.225,-0.455
2650,0.200,-0.460
2651,0.220,-0.445
2652,0.230,-0.450
2653,0.210,-0.445
2654,0.230,-0.455
2655,0.225,-0.450
2656,0.215,-0.445
2657,0.205,-0.440
2658,0.205,-0.440
2659,0.200,-0.455
2660,0.205,-0.450
2661,0.200,-0.460
2662,0.195,-0.450
2663,0.190,-0.445
2664,0.200,-0.450
2665,0.185,-0.445
2666,0.195,-0.460
2667,0.185,-0.440
2668,0.180,-0.450
2669,0.180,-0.455
2670,0.180,-0.450
2671,0.185,-0.440
2672,0.190,-0.455
2673,0.195,-0.460
2674,0.185,-0.435
2675,0.185,-0.445
2676,0.185,-0.430
2677,0.175,-0.425
2678,0.170,-0.435
2679,0.175,-0.445
2680,0.170,-0.430
2681,0.195,-0.425
2682,0.200,-0.430
2683,0.200,-0.410
2684,0.200,-0.395
2685,0.210,-0.405
2686,0.190,-0.405
2687,0.190,-0.425
2688,0.200,-0.430
2689,0.185,-0.435
2690,0.180,-0.440
2691,0.190,-0.430
2692,0.195,-0.435
2693,0.210,-0.450
2694,0.195,-0.440
2695,0.185,-0.420
2696,0.175,-0.400
2697,0.165,-0.410
2698,0.160,-0.400
2699,0.170,-0.395
2700,0.155,-0.400
2701,0.155,-0.400
2702,0.170,-0.405
2703,0.170,-0.395
2704,0.155,-0.390
2705,0.185,-0.375
2706,0.365,-0.350
2707,0.680,-0.360
2708,0.935,-0.430
2709,0.825,-0.590
2710,0.175,-0.715
2711,-0.215,-0.790
2712,-0.160,-0.700
2713,0.025,-0.545
2714,0.120,-0.430
2715,0.130,-0.365
2716,0.125,-0.325
2717,0.120,-0.325
2718,0.120,-0.325
2719,0.110,-0.315
2720,0.110,-0.330
2721,0.105,-0.315
2722,0.095,-0.310
2723,0.095,-0.305
2724,0.090,-0.300
2725,0.075,-0.310
2726,0.065,-0.310
2727,0.070,-0.295
2728,0.050,-0.300
2729,0.050,-0.300
2730,0.060,-0.285
2731,0.055,-0.285
2732,0.045,-0.280
2733,0.050,-0.260
2734,0.055,-0.255
2735,0.060,-0.265
2736,0.060,-0.245
2737,0.065,-0.245
2738,0.055,-0.235
2739,0.060,-0.230
2740,0.065,-0.225
2741,0.070,-0.225
2742,0.075,-0.230
2743,0.085,-0.215
2744,0.095,-0.215
2745,0.105,-0.220
2746,0.110,-0.215
2747,0.115,-0.230
2748,0.135,-0.225
2749,0.140,-0.230
2750,0.140,-0.230
2751,0.150,-0.240
2752,0.130,-0.235
2753,0.120,-0.225
2754,0.130,-0.235
2755,0.125,-0.240
2756,0.110,-0.240
2757,0.120,-0.245
2758,0.125,-0.245
2759,0.115,-0.245
2760,0.105,-0.235
2761,0.110,-0.235
2762,0.115,-0.230
2763,0.100,-0.230
2764,0.100,-0.225
2765,0.090,-0.225
2766,0.105,-0.225
2767,0.095,-0.220
2768,0.105,-0.215
2769,0.110,-0.215
2770,0.110,-0.220
2771,0.095,-0.220
2772,0.105,-0.195
2773,0.110,-0.210
2774,0.105,-0.200
2775,0.110,-0.190
2776,0.100,-0.200
2777,0.105,-0.190
2778,0.115,-0.180
2779,0.125,-0.190
2780,0.115,-0.190
2781,0.110,-0.185
2782,0.105,-0.185
2783,0.080,-0.175
2784,0.105,-0.175
2785,0.080,-0.160
2786,0.090,-0.160
2787,0.080,-0.165
2788,0.075,-0.170
2789,0.065,-0.160
2790,0.060,-0.160
2791,0.055,-0.160
2792,0.050,-0.155
2793,0.070,-0.155
2794,0.055,-0.150
2795,0.045,-0.150
2796,0.060,-0.150
2797,0.050,-0.145
2798,0.050,-0.155
2799,0.050,-0.135
2800,0.050,-0.135
2801,0.050,-0.135
2802,0.060,-0.125
2803,0.050,-0.125
2804,0.045,-0.115
2805,0.050,-0.115
2806,0.055,-0.115
2807,0.075,-0.105
2808,0.080,-0.095
2809,0.070,-0.085
2810,0.070,-0.075
2811,0.065,-0.090
2812,0.055,-0.090
2813,0.055,-0.100
2814,0.065,-0.100
2815,0.050,-0.115
2816,0.065,-0.120
2817,0.055,-0.110
2818,0.050,-0.110
2819,0.060,-0.090
2820,0.050,-0.080
2821,0.040,-0.065
2822,0.035,-0.050
2823,0.030,-0.055
2824,0.035,-0.060
2825,0.030,-0.055
2826,0.030,-0.055
2827,0.030,-0.050
2828,0.035,-0.040
2829,0.025,-0.040
2830,0.025,-0.035
2831,0.080,-0.010
2832,0.310,0.005
2833,0.630,-0.025
2834,0.870,-0.130
2835,0.650,-0.325
2836,-0.010,-0.475
2837,-0.295,-0.515
2838,-0.255,-0.405
2839,-0.095,-0.230
2840,-0.030,-0.075
2841,-0.030,0.015
2842,-0.040,0.035
2843,-0.020,0.050
2844,-0.035,0.055
2845,-0.030,0.055
2846,-0.025,0.055
2847,-0.025,0.065
2848,-0.030,0.075
2849,-0.020,0.070
2850,-0.040,0.065
2851,-0.040,0.075
2852,-0.045,0.085
2853,-0.060,0.080
2854,-0.045,0.085
2855,-0.050,0.090
2856,-0.050,0.100
2857,-0.045,0.095
2858,-0.050,0.105
2859,-0.050,0.125
2860,-0.050,0.135
2861,-0.055,0.150
2862,-0.050,0.140
2863,-0.040,0.150
2864,-0.020,0.165
2865,-0.030,0.150
2866,-0.015,0.155
2867,-0.020,0.170
2868,-0.020,0.155
2869,0.000,0.160
2870,0.000,0.160
2871,0.010,0.165
2872,0.020,0.155
2873,0.025,0.150
2874,0.035,0.150
2875,0.035,0.140
2876,0.030,0.150
2877,0.025,0.140
2878,0.020,0.140
2879,0.020,0.135
2880,0.010,0.135
2881,0.000,0.125
2882,-0.005,0.120
2883,-0.010,0.120
2884,0.005,0.120
2885,-0.005,0.135
2886,0.000,0.135
2887,0.000,0.145
2888,0.000,0.135
2889,0.005,0.140
2890,0.000,0.135
2891,0.005,0.135
2892,0.000,0.135
2893,0.000,0.150
2894,0.020,0.145
2895,0.000,0.150
2896,0.000,0.160
2897,0.015,0.155
2898,0.010,0.160
2899,0.020,0.170
2900,0.000,0.170
2901,0.015,0.170
2902,0.010,0.180
2903,0.010,0.185
2904,0.005,0.175
2905,0.005,0.185
2906,0.005,0.190
2907,0.015,0.180
2908,0.005,0.195
2909,0.015,0.200
2910,0.000,0.200
2911,-0.005,0.195
2912,-0.005,0.210
2913,-0.005,0.210
2914,-0.010,0.220
2915,-0.015,0.215
2916,-0.020,0.235
2917,-0.015,0.220
2918,-0.010,0.230
2919,-0.005,0.240
2920,-0.005,0.240
2921,-0.010,0.235
2922,-0.020,0.240
2923,-0.040,0.230
2924,-0.035,0.240
2925,-0.010,0.250
2926,-0.015,0.255
2927,-0.025,0.260
2928,-0.010,0.255
2929,-0.015,0.255
2930,0.000,0.260
2931,0.000,0.260
2932,0.000,0.290
2933,-0.010,0.305
2934,-0.015,0.300
2935,0.000,0.290
2936,-0.030,0.300
2937,-0.030,0.285
2938,-0.020,0.270
2939,-0.020,0.265
2940,-0.020,0.255
2941,-0.010,0.260
2942,0.000,0.265
2943,0.000,0.275
2944,-0.015,0.270
2945,-0.035,0.290
2946,-0.045,0.300
2947,-0.025,0.305
2948,-0.035,0.310
2949,-0.020,0.310
2950,-0.020,0.305
2951,-0.035,0.320
2952,-0.035,0.315
2953,-0.035,0.310
2954,-0.040,0.320
2955,0.015,0.345
2956,0.220,0.370
2957,0.515,0.325
2958,0.730,0.210
2959,0.465,0.025
2960,-0.170,-0.110
2961,-0.395,-0.140
2962,-0.300,-0.025
2963,-0.125,0.135
2964,-0.085,0.280
2965,-0.070,0.335
2966,-0.090,0.365
2967,-0.075,0.370
2968,-0.080,0.375
2969,-0.080,0.380
2970,-0.070,0.375
2971,-0.075,0.390
2972,-0.080,0.380
2973,-0.075,0.375
2974,-0.085,0.380
2975,-0.090,0.375
2976,-0.085,0.400
2977,-0.090,0.395
2978,-0.090,0.395
2979,-0.090,0.385
2980,-0.085,0.395
2981,-0.100,0.405
2982,-0.105,0.410
2983,-0.090,0.430
2984,-0.105,0.420
2985,-0.105,0.435
2986,-0.100,0.435
2987,-0.100,0.440
2988,-0.080,0.440
2989,-0.080,0.445
2990,-0.070,0.450
2991,-0.070,0.445
2992,-0.070,0.445
2993,-0.050,0.435
2994,-0.045,0.430
2995,-0.035,0.405
2996,-0.025,0.420
2997,-0.015,0.425
2998,-0.015,0.420
2999,-0.005,0.410
3000,-0.010,0.415
3001,-0.005,0.395
3002,-0.005,0.395
3003,-0.010,0.375
3004,-0.030,0.375
3005,-0.035,0.370
3006,-0.040,0.375
3007,-0.045,0.370
3008,-0.055,0.370
3009,-0.055,0.370
3010,-0.050,0.375
3011,-0.065,0.360
3012,-0.055,0.360
3013,-0.070,0.365
3014,-0.055,0.370
3015,-0.060,0.365
3016,-0.055,0.365
3017,-0.065,0.365
3018,-0.060,0.360
3019,-0.060,0.370
3020,-0.050,0.355
3021,-0.065,0.365
3022,-0.055,0.365
3023,-0.040,0.355
3024,-0.040,0.360
3025,-0.030,0.365
3026,-0.045,0.375
3027,-0.030,0.350
3028,-0.045,0.365
3029,-0.040,0.350
3030,-0.030,0.355
3031,-0.040,0.345
3032,-0.045,0.350
3033,-0.045,0.345
3034,-0.055,0.345
3035,-0.050,0.340
3036,-0.040,0.345
3037,-0.055,0.340
3038,-0.065,0.340
3039,-0.070,0.335
3040,-0.080,0.340
3041,-0.075,0.330
3042,-0.075,0.340
3043,-0.070,0.335
3044,-0.080,0.330
3045,-0.075,0.340
3046,-0.080,0.320
3047,-0.080,0.315
3048,-0.080,0.320
3049,-0.080,0.325
3050,-0.090,0.320
3051,-0.085,0.320
3052,-0.080,0.325
3053,-0.080,0.325
3054,-0.075,0.315
3055,-0.070,0.310
3056,-0.065,0.320
3057,-0.040,0.325
3058,-0.055,0.340
3059,-0.055,0.335
3060,-0.060,0.335
3061,-0.080,0.330
3062,-0.070,0.315
3063,-0.080,0.285
3064,-0.075,0.285
3065,-0.085,0.275
3066,-0.080,0.280
3067,-0.075,0.270
3068,-0.075,0.280
3069,-0.080,0.295
3070,-0.100,0.305
3071,-0.110,0.300
3072,-0.105,0.315
3073,-0.095,0.295
3074,-0.095,0.295
3075,-0.095,0.305
3076,-0.095,0.310
3077,-0.080,0.305
3078,-0.100,0.305
3079,-0.115,0.310
3080,-0.060,0.320
3081,0.155,0.335
3082,0.470,0.310
3083,0.720,0.190
3084,0.565,-0.020
3085,-0.055,-0.180
3086,-0.420,-0.250
3087,-0.395,-0.155
3088,-0.235,0.020
3089,-0.155,0.200
3090,-0.165,0.295
3091,-0.160,0.315
3092,-0.155,0.325
3093,-0.145,0.325
3094,-0.150,0.330
3095,-0.155,0.315
3096,-0.145,0.320
3097,-0.145,0.330
3098,-0.155,0.320
3099,-0.155,0.330
3100,-0.150,0.335
3101,-0.150,0.335
3102,-0.150,0.330
3103,-0.170,0.330
3104,-0.170,0.350
3105,-0.175,0.340
3106,-0.165,0.350
3107,-0.165,0.360
3108,-0.170,0.370
3109,-0.170,0.375
3110,-0.160,0.365
3111,-0.160,0.385
3112,-0.155,0.390
3113,-0.150,0.390
3114,-0.140,0.395
3115,-0.135,0.390
3116,-0.130,0.390
3117,-0.120,0.375
3118,-0.115,0.370
3119,-0.100,0.375
3120,-0.090,0.360
3121,-0.080,0.360
3122,-0.070,0.365
3123,-0.065,0.355
3124,-0.070,0.345
3125,-0.065,0.335
3126,-0.055,0.330
3127,-0.065,0.325
3128,-0.060,0.325
3129,-0.080,0.315
3130,-0.080,0.305
3131,-0.080,0.300
3132,-0.075,0.290
3133,-0.100,0.305
3134,-0.090,0.290
3135,-0.090,0.290
3136,-0.080,0.295
3137,-0.075,0.285
3138,-0.075,0.285
3139,-0.075,0.285
3140,-0.085,0.290
3141,-0.075,0.290
3142,-0.075,0.290
3143,-0.080,0.290
3144,-0.070,0.295
3145,-0.070,0.285
3146,-0.075,0.290
3147,-0.065,0.295
3148,-0.065,0.300
3149,-0.055,0.295
3150,-0.050,0.295
3151,-0.055,0.310
3152,-0.040,0.295
3153,-0.055,0.310
3154,-0.060,0.300
3155,-0.060,0.305
3156,-0.050,0.300
3157,-0.055,0.305
3158,-0.065,0.305
3159,-0.075,0.300
3160,-0.060,0.305
3161,-0.075,0.305
3162,-0.080,0.305
3163,-0.090,0.310
3164,-0.075,0.300
3165,-0.090,0.315
3166,-0.080,0.305
3167,-0.090,0.300
3168,-0.090,0.305
3169,-0.090,0.310
3170,-0.085,0.305
3171,-0.090,0.305
3172,-0.095,0.310
3173,-0.080,0.305
3174,-0.095,0.305
3175,-0.095,0.310
3176,-0.075,0.320
3177,-0.080,0.325
3178,-0.070,0.315
3179,-0.060,0.310
3180,-0.055,0.310
3181,-0.060,0.335
3182,-0.050,0.355
3183,-0.055,0.355
3184,-0.040,0.340
3185,-0.055,0.335
3186,-0.075,0.315
3187,-0.075,0.295
3188,-0.075,0.295
3189,-0.070,0.295
3190,-0.075,0.300
3191,-0.065,0.290
3192,-0.070,0.300
3193,-0.085,0.300
3194,-0.090,0.325
3195,-0.110,0.335
3196,-0.100,0.340
3197,-0.080,0.330
3198,-0.090,0.320
3199,-0.080,0.320
3200,-0.085,0.315
3201,-0.075,0.335
3202,-0.090,0.345
3203,-0.080,0.320
3204,-0.015,0.355
3205,0.235,0.360
3206,0.520,0.310
3207,0.675,0.175
3208,0.310,-0.005
3209,-0.300,-0.145
3210,-0.440,-0.155
3211,-0.315,-0.010
3212,-0.155,0.170
3213,-0.130,0.280
3214,-0.135,0.330
3215,-0.140,0.355
3216,-0.130,0.355
3217,-0.110,0.355
3218,-0.125,0.365
3219,-0.125,0.365
3220,-0.125,0.335
3221,-0.135,0.365
3222,-0.125,0.360
3223,-0.120,0.355
3224,-0.135,0.360
3225,-0.145,0.345
3226,-0.135,0.350
3227,-0.145,0.345
3228,-0.145,0.360
3229,-0.135,0.370
3230,-0.130,0.365
3231,-0.135,0.370
3232,-0.140,0.380
3233,-0.130,0.385
3234,-0.140,0.385
3235,-0.125,0.395
3236,-0.130,0.395
3237,-0.115,0.400
3238,-0.105,0.400
3239,-0.100,0.400
3240,-0.090,0.395
3241,-0.080,0.400
3242,-0.065,0.400
3243,-0.055,0.380
3244,-0.040,0.370
3245,-0.030,0.370
3246,-0.020,0.370
3247,-0.030,0.360
3248,-0.020,0.365
3249,-0.015,0.345
3250,-0.025,0.350
3251,-0.030,0.330
3252,-0.040,0.325
3253,-0.030,0.335
3254,-0.035,0.340
3255,-0.040,0.325
3256,-0.055,0.330
3257,-0.065,0.325
3258,-0.060,0.315
3259,-0.045,0.325
3260,-0.055,0.320
3261,-0.040,0.325
3262,-0.045,0.315
3263,-0.055,0.310
3264,-0.050,0.310
3265,-0.045,0.305
3266,-0.055,0.310
3267,-0.060,0.305
3268,-0.050,0.305
3269,-0.045,0.315
3270,-0.050,0.305
3271,-0.045,0.310
3272,-0.045,0.305
3273,-0.040,0.295
3274,-0.035,0.305
3275,-0.030,0.300
3276,-0.040,0.295
3277,-0.035,0.295
3278,-0.045,0.295
3279,-0.030,0.300
3280,-0.030,0.305
3281,-0.035,0.295
3282,-0.055,0.285
3283,-0.055,0.285
3284,-0.060,0.280
3285,-0.075,0.275
3286,-0.075,0.280
3287,-0.070,0.280
3288,-0.070,0.270
3289,-0.085,0.265
3290,-0.090,0.265
3291,-0.080,0.270
3292,-0.080,0.265
3293,-0.080,0.255
3294,-0.090,0.265
3295,-0.085,0.250
3296,-0.090,0.265
3297,-0.090,0.250
3298,-0.090,0.260
3299,-0.075,0.255
3300,-0.075,0.250
3301,-0.080,0.245
3302,-0.080,0.250
3303,-0.070,0.250
3304,-0.050,0.260
3305,-0.045,0.265
3306,-0.045,0.270
3307,-0.040,0.275
3308,-0.045,0.260
3309,-0.065,0.260
3310,-0.075,0.235
3311,-0.075,0.225
3312,-0.060,0.215
3313,-0.055,0.205
3314,-0.065,0.200
3315,-0.055,0.195
3316,-0.065,0.195
3317,-0.070,0.210
3318,-0.080,0.235
3319,-0.090,0.230
3320,-0.085,0.220
3321,-0.080,0.225
3322,-0.080,0.220
3323,-0.085,0.220
3324,-0.085,0.220
3325,-0.085,0.210
3326,-0.085,0.205
3327,-0.105,0.215
3328,-0.060,0.225
3329,0.165,0.235
3330,0.490,0.205
3331,0.755,0.095
3332,0.600,-0.130
3333,-0.060,-0.295
3334,-0.420,-0.355
3335,-0.405,-0.245
3336,-0.250,-0.065
3337,-0.170,0.105
3338,-0.160,0.190
3339,-0.160,0.230
3340,-0.165,0.240
3341,-0.150,0.235
3342,-0.170,0.220
3343,-0.150,0.230
3344,-0.160,0.220
3345,-0.160,0.210
3346,-0.155,0.215
3347,-0.160,0.215
3348,-0.160,0.220
3349,-0.165,0.225
3350,-0.165,0.220
3351,-0.160,0.230
3352,-0.160,0.240
3353,-0.145,0.245
3354,-0.155,0.235
3355,-0.150,0.250
3356,-0.150,0.260
3357,-0.145,0.255
3358,-0.150,0.265
3359,-0.140,0.265
3360,-0.150,0.285
3361,-0.140,0.280
3362,-0.130,0.290
3363,-0.120,0.285
3364,-0.110,0.285
3365,-0.100,0.275
3366,-0.090,0.280
3367,-0.075,0.260
3368,-0.070,0.255
3369,-0.070,0.260
3370,-0.065,0.250
3371,-0.060,0.245
3372,-0.030,0.235
3373,-0.035,0.215
3374,-0.025,0.220
3375,-0.035,0.220
3376,-0.045,0.200
3377,-0.055,0.210
3378,-0.050,0.205
3379,-0.075,0.195
3380,-0.080,0.185
3381,-0.070,0.195
3382,-0.060,0.185
3383,-0.055,0.185
3384,-0.060,0.190
3385,-0.060,0.180
3386,-0.055,0.190
3387,-0.060,0.180
3388,-0.060,0.165
3389,-0.065,0.175
3390,-0.050,0.180
3391,-0.050,0.180
3392,-0.055,0.175
3393,-0.050,0.175
3394,-0.040,0.175
3395,-0.030,0.180
3396,-0.025,0.170
3397,-0.025,0.180
3398,-0.025,0.175
3399,-0.020,0.175
3400,-0.025,0.170
3401,-0.020,0.170
3402,-0.030,0.180
3403,-0.015,0.180
3404,-0.015,0.180
3405,-0.015,0.170
3406,-0.020,0.175
3407,-0.035,0.165
3408,-0.035,0.170
3409,-0.030,0.155
3410,-0.025,0.170
3411,-0.035,0.165
3412,-0.045,0.160
3413,-0.060,0.150
3414,-0.060,0.145
3415,-0.050,0.135
3416,-0.060,0.140
3417,-0.050,0.140
3418,-0.065,0.135
3419,-0.060,0.135
3420,-0.055,0.130
3421,-0.060,0.135
3422,-0.070,0.135
3423,-0.050,0.135
3424,-0.050,0.130
3425,-0.055,0.125
3426,-0.065,0.135
3427,-0.060,0.135
3428,-0.045,0.140
3429,-0.040,0.155
3430,-0.040,0.165
3431,-0.035,0.175
3432,-0.035,0.175
3433,-0.045,0.175
3434,-0.050,0.155
3435,-0.055,0.140
3436,-0.045,0.130
3437,-0.050,0.125
3438,-0.050,0.115
3439,-0.045,0.115
3440,-0.035,0.110
3441,-0.030,0.135
3442,-0.055,0.150
3443,-0.065,0.155
3444,-0.060,0.165
3445,-0.060,0.160
3446,-0.065,0.145
3447,-0.060,0.155
3448,-0.065,0.160
3449,-0.060,0.160
3450,-0.060,0.155
3451,-0.075,0.155
3452,-0.080,0.155
3453,0.005,0.190
3454,0.255,0.190
3455,0.560,0.145
3456,0.725,0.020
3457,0.320,-0.200
3458,-0.290,-0.355
3459,-0.390,-0.330
3460,-0.305,-0.170
3461,-0.155,0.000
3462,-0.120,0.145
3463,-0.115,0.200
3464,-0.120,0.215
3465,-0.110,0.215
3466,-0.125,0.215
3467,-0.125,0.210
3468,-0.120,0.205
3469,-0.135,0.215
3470,-0.110,0.210
3471,-0.115,0.215
3472,-0.115,0.210
3473,-0.140,0.215
3474,-0.135,0.210
3475,-0.125,0.210
3476,-0.140,0.220
3477,-0.130,0.215
3478,-0.125,0.225
3479,-0.120,0.225
3480,-0.130,0.230
3481,-0.135,0.250
3482,-0.110,0.260
3483,-0.120,0.255
3484,-0.115,0.285
3485,-0.105,0.275
3486,-0.090,0.285
3487,-0.090,0.285
3488,-0.070,0.280
3489,-0.075,0.290
3490,-0.060,0.290
3491,-0.050,0.280
3492,-0.030,0.270
3493,-0.025,0.275
3494,-0.025,0.260
3495,-0.020,0.260
3496,-0.005,0.250
3497,-0.005,0.240
3498,0.010,0.235
3499,0.000,0.245
3500,-0.005,0.235
3501,-0.030,0.230
3502,-0.020,0.220
3503,-0.020,0.230
3504,-0.035,0.230
3505,-0.045,0.215
3506,-0.035,0.210
3507,-0.025,0.205
3508,-0.040,0.215
3509,-0.035,0.205
3510,-0.040,0.220
3511,-0.035,0.220
3512,-0.030,0.195
3513,-0.050,0.185
3514,-0.030,0.195
3515,-0.040,0.200
3516,-0.030,0.190
3517,-0.025,0.190
3518,-0.025,0.190
3519,-0.025,0.185
3520,-0.015,0.205
3521,-0.010,0.195
3522,0.000,0.200
3523,0.000,0.195
3524,0.000,0.190
3525,0.010,0.195
3526,0.005,0.195
3527,0.000,0.185
3528,0.000,0.195
3529,0.000,0.195
3530,-0.010,0.185
3531,-0.015,0.190
3532,-0.005,0.190
3533,-0.015,0.185
3534,-0.020,0.185
3535,-0.025,0.185
3536,-0.030,0.180
3537,-0.025,0.185
3538,-0.040,0.170
3539,-0.035,0.180
3540,-0.030,0.175
3541,-0.020,0.155
3542,-0.040,0.185
3543,-0.035,0.165
3544,-0.035,0.150
3545,-0.025,0.165
3546,-0.030,0.155
3547,-0.040,0.155
3548,-0.030,0.155
3549,-0.040,0.140
3550,-0.040,0.135
3551,-0.025,0.135
3552,-0.015,0.145
3553,-0.005,0.150
3554,-0.010,0.165
3555,-0.015,0.165
3556,-0.010,0.160
3557,-0.030,0.150
3558,-0.035,0.150
3559,-0.045,0.115
3560,-0.035,0.100
3561,-0.035,0.100
3562,-0.040,0.100
3563,-0.040,0.095
3564,-0.040,0.120
3565,-0.040,0.125
3566,-0.040,0.130
3567,-0.045,0.140
3568,-0.050,0.130
3569,-0.055,0.135
3570,-0.055,0.120
3571,-0.055,0.115
3572,-0.050,0.120
3573,-0.055,0.105
3574,-0.050,0.115
3575,-0.060,0.110
3576,-0.055,0.115
3577,0.115,0.140
3578,0.440,0.120
3579,0.730,0.040
3580,0.715,-0.150
3581,0.125,-0.345
3582,-0.355,-0.425
3583,-0.395,-0.360
3584,-0.255,-0.195
3585,-0.135,-0.025
3586,-0.105,0.080
3587,-0.110,0.120
3588,-0.130,0.135
3589,-0.125,0.120
3590,-0.115,0.115
3591,-0.120,0.120
3592,-0.120,0.110
3593,-0.130,0.110
3594,-0.115,0.115
3595,-0.130,0.105
3596,-0.135,0.105
3597,-0.140,0.105
3598,-0.150,0.105
3599,-0.150,0.105
3600,-0.150,0.090
3601,-0.150,0.090
3602,-0.150,0.085
3603,-0.145,0.095
3604,-0.150,0.105
3605,-0.155,0.110
3606,-0.140,0.125
3607,-0.130,0.115
3608,-0.125,0.140
3609,-0.130,0.145
3610,-0.120,0.145
3611,-0.110,0.145
3612,-0.100,0.130
3613,-0.105,0.135
3614,-0.095,0.130
3615,-0.085,0.110
3616,-0.070,0.120
3617,-0.065,0.105
3618,-0.040,0.100
3619,-0.035,0.085
3620,-0.030,0.085
3621,-0.025,0.070
3622,-0.015,0.065
3623,-0.025,0.045
3624,-0.030,0.040
3625,-0.035,0.040
3626,-0.030,0.005
3627,-0.045,0.005
3628,-0.040,0.005
3629,-0.035,0.015
3630,-0.050,0.000
3631,-0.040,0.000
3632,-0.050,-0.010
3633,-0.050,-0.010
3634,-0.055,-0.010
3635,-0.040,-0.025
3636,-0.055,-0.040
3637,-0.055,-0.050
3638,-0.060,-0.040
3639,-0.040,-0.045
3640,-0.060,-0.050
3641,-0.045,-0.055
3642,-0.050,-0.060
3643,-0.030,-0.055
3644,-0.025,-0.060
3645,-0.050,-0.075
3646,-0.035,-0.065
3647,-0.040,-0.075
3648,-0.035,-0.080
3649,-0.040,-0.080
3650,-0.015,-0.080
3651,-0.025,-0.085
3652,-0.025,-0.100
3653,-0.030,-0.110
3654,-0.020,-0.110
3655,-0.045,-0.120
3656,-0.045,-0.115
3657,-0.055,-0.115
3658,-0.055,-0.125
3659,-0.065,-0.145
3660,-0.070,-0.145
3661,-0.090,-0.130
3662,-0.085,-0.145
3663,-0.085,-0.155
3664,-0.090,-0.170
3665,-0.100,-0.175
3666,-0.090,-0.175
3667,-0.080,-0.190
3668,-0.105,-0.180
3669,-0.110,-0.200
3670,-0.115,-0.195
3671,-0.110,-0.195
3672,-0.100,-0.210
3673,-0.100,-0.225
3674,-0.105,-0.220
3675,-0.120,-0.230
3676,-0.120,-0.235
3677,-0.105,-0.245
3678,-0.095,-0.255
3679,-0.100,-0.240
3680,-0.105,-0.240
3681,-0.100,-0.250
3682,-0.115,-0.250
3683,-0.125,-0.270
3684,-0.135,-0.285
3685,-0.120,-0.315
3686,-0.130,-0.325
3687,-0.135,-0.335
3688,-0.135,-0.345
3689,-0.135,-0.345
3690,-0.145,-0.345
3691,-0.165,-0.360
3692,-0.160,-0.350
3693,-0.165,-0.345
3694,-0.180,-0.355
3695,-0.185,-0.365
3696,-0.190,-0.375
3697,-0.190,-0.375
3698,-0.190,-0.380
3699,-0.190,-0.395
3700,-0.205,-0.380
3701,-0.200,-0.395
3702,-0.095,-0.375
3703,0.205,-0.370
3704,0.510,-0.435
3705,0.610,-0.595
3706,0.120,-0.805
3707,-0.455,-0.935
3708,-0.545,-0.910
3709,-0.450,-0.755
3710,-0.310,-0.595
3711,-0.285,-0.470
3712,-0.290,-0.425
3713,-0.285,-0.410
3714,-0.280,-0.420
3715,-0.285,-0.420
3716,-0.285,-0.420
3717,-0.290,-0.420
3718,-0.290,-0.430
3719,-0.300,-0.460
3720,-0.295,-0.450
3721,-0.310,-0.445
3722,-0.320,-0.455
3723,-0.325,-0.460
3724,-0.335,-0.460
3725,-0.325,-0.470
3726,-0.330,-0.450
3727,-0.345,-0.460
3728,-0.335,-0.455
3729,-0.350,-0.450
3730,-0.345,-0.445
3731,-0.360,-0.460
3732,-0.355,-0.445
3733,-0.345,-0.440
3734,-0.350,-0.440
3735,-0.335,-0.445
3736,-0.335,-0.445
3737,-0.340,-0.450
3738,-0.335,-0.450
3739,-0.330,-0.465
3740,-0.325,-0.480
3741,-0.305,-0.485
3742,-0.300,-0.485
3743,-0.300,-0.500
3744,-0.295,-0.510
3745,-0.275,-0.510
3746,-0.265,-0.510
3747,-0.275,-0.520
3748,-0.290,-0.540
3749,-0.295,-0.550
3750,-0.285,-0.555
3751,-0.305,-0.560
3752,-0.320,-0.560
3753,-0.320,-0.575
3754,-0.325,-0.575
3755,-0.325,-0.570
3756,-0.325,-0.580
3757,-0.330,-0.585
3758,-0.340,-0.585
3759,-0.320,-0.580
3760,-0.335,-0.595
3761,-0.330,-0.600
3762,-0.335,-0.595
3763,-0.340,-0.595
3764,-0.340,-0.590
3765,-0.345,-0.595
3766,-0.345,-0.590
3767,-0.345,-0.595
3768,-0.330,-0.595
3769,-0.330,-0.610
3770,-0.335,-0.590
3771,-0.335,-0.605
3772,-0.340,-0.600
3773,-0.340,-0.605
3774,-0.335,-0.600
3775,-0.330,-0.595
3776,-0.335,-0.595
3777,-0.325,-0.605
3778,-0.335,-0.615
3779,-0.330,-0.605
3780,-0.340,-0.610
3781,-0.340,-0.610
3782,-0.335,-0.615
3783,-0.355,-0.610
3784,-0.370,-0.610
3785,-0.360,-0.620
3786,-0.360,-0.610
3787,-0.365,-0.615
3788,-0.360,-0.615
3789,-0.365,-0.615
3790,-0.375,-0.620
3791,-0.385,-0.625
3792,-0.385,-0.620
3793,-0.370,-0.620
3794,-0.395,-0.620
3795,-0.395,-0.605
3796,-0.390,-0.610
3797,-0.375,-0.615
3798,-0.375,-0.620
3799,-0.370,-0.615
3800,-0.365,-0.620
3801,-0.350,-0.620
3802,-0.360,-0.600
3803,-0.350,-0.590
3804,-0.355,-0.590
3805,-0.350,-0.595
3806,-0.360,-0.600
3807,-0.375,-0.610
3808,-0.375,-0.630
3809,-0.360,-0.635
3810,-0.375,-0.640
3811,-0.380,-0.635
3812,-0.375,-0.655
3813,-0.370,-0.640
3814,-0.390,-0.630
3815,-0.405,-0.620
3816,-0.410,-0.610
3817,-0.415,-0.610
3818,-0.410,-0.605
3819,-0.405,-0.605
3820,-0.400,-0.595
3821,-0.400,-0.605
3822,-0.390,-0.605
3823,-0.395,-0.595
3824,-0.400,-0.590
3825,-0.340,-0.560
3826,-0.065,-0.560
3827,0.255,-0.595
3828,0.420,-0.705
3829,0.010,-0.860
3830,-0.595,-0.985
3831,-0.760,-0.985
3832,-0.655,-0.870
3833,-0.520,-0.715
3834,-0.475,-0.610
3835,-0.470,-0.570
3836,-0.475,-0.550
3837,-0.480,-0.545
3838,-0.480,-0.545
3839,-0.495,-0.540
3840,-0.480,-0.550
3841,-0.480,-0.545
3842,-0.490,-0.545
3843,-0.485,-0.540
3844,-0.490,-0.530
3845,-0.485,-0.515
3846,-0.485,-0.525
3847,-0.480,-0.505
3848,-0.480,-0.515
3849,-0.500,-0.490
3850,-0.495,-0.490
3851,-0.505,-0.485
3852,-0.500,-0.465
3853,-0.500,-0.460
3854,-0.500,-0.455
3855,-0.505,-0.455
3856,-0.500,-0.440
3857,-0.510,-0.430
3858,-0.510,-0.420
3859,-0.505,-0.410
3860,-0.500,-0.420
3861,-0.490,-0.420
3862,-0.475,-0.410
3863,-0.455,-0.420
3864,-0.450,-0.425
3865,-0.435,-0.420
3866,-0.425,-0.420
3867,-0.410,-0.410
3868,-0.395,-0.405
3869,-0.405,-0.415
3870,-0.405,-0.410
3871,-0.410,-0.405
3872,-0.400,-0.410
3873,-0.410,-0.415
3874,-0.405,-0.420
3875,-0.420,-0.410
3876,-0.425,-0.410
3877,-0.415,-0.410
3878,-0.425,-0.410
3879,-0.420,-0.400
3880,-0.420,-0.400
3881,-0.415,-0.385
3882,-0.400,-0.390
3883,-0.400,-0.385
3884,-0.395,-0.390
3885,-0.380,-0.390
3886,-0.380,-0.385
3887,-0.385,-0.355
3888,-0.385,-0.365
3889,-0.375,-0.365
3890,-0.375,-0.360
3891,-0.365,-0.355
3892,-0.375,-0.345
3893,-0.360,-0.365
3894,-0.370,-0.345
3895,-0.355,-0.345
3896,-0.350,-0.340
3897,-0.350,-0.340
3898,-0.355,-0.335
3899,-0.355,-0.340
3900,-0.355,-0.325
3901,-0.360,-0.325
3902,-0.370,-0.315
3903,-0.355,-0.315
3904,-0.355,-0.320
3905,-0.340,-0.310
3906,-0.345,-0.310
3907,-0.350,-0.305
3908,-0.350,-0.305
3909,-0.345,-0.305
3910,-0.335,-0.300
3911,-0.345,-0.295
3912,-0.345,-0.290
3913,-0.355,-0.275
3914,-0.350,-0.285
3915,-0.350,-0.275
3916,-0.350,-0.270
3917,-0.365,-0.275
3918,-0.345,-0.280
3919,-0.365,-0.275
3920,-0.350,-0.265
3921,-0.345,-0.260
3922,-0.340,-0.265
3923,-0.350,-0.260
3924,-0.345,-0.250
3925,-0.335,-0.255
3926,-0.325,-0.255
3927,-0.315,-0.235
3928,-0.310,-0.220
3929,-0.305,-0.225
3930,-0.295,-0.215
3931,-0.300,-0.210
3932,-0.305,-0.215
3933,-0.315,-0.240
3934,-0.315,-0.240
3935,-0.320,-0.245
3936,-0.320,-0.250
3937,-0.310,-0.235
3938,-0.310,-0.230
3939,-0.315,-0.220
3940,-0.320,-0.215
3941,-0.325,-0.200
3942,-0.340,-0.200
3943,-0.325,-0.200
3944,-0.335,-0.195
3945,-0.320,-0.190
3946,-0.315,-0.185
3947,-0.315,-0.185
3948,-0.305,-0.175
3949,-0.325,-0.165
3950,-0.315,-0.165
3951,-0.160,-0.135
3952,0.160,-0.155
3953,0.485,-0.205
3954,0.520,-0.375
3955,-0.010,-0.560
3956,-0.530,-0.655
3957,-0.585,-0.605
3958,-0.490,-0.445
3959,-0.370,-0.285
3960,-0.340,-0.160
3961,-0.335,-0.105
3962,-0.350,-0.100
3963,-0.350,-0.095
3964,-0.345,-0.090
3965,-0.340,-0.095
3966,-0.330,-0.090
3967,-0.320,-0.090
3968,-0.320,-0.085
3969,-0.315,-0.070
3970,-0.310,-0.060
3971,-0.330,-0.060
3972,-0.315,-0.050
3973,-0.320,-0.040
3974,-0.325,-0.050
3975,-0.325,-0.030
3976,-0.320,-0.030
3977,-0.320,-0.010
3978,-0.315,-0.005
3979,-0.320,0.005
3980,-0.315,0.005
3981,-0.310,0.010
3982,-0.300,0.030
3983,-0.295,0.030
3984,-0.295,0.040
3985,-0.290,0.045
3986,-0.280,0.055
3987,-0.265,0.050
3988,-0.245,0.045
3989,-0.245,0.045
3990,-0.230,0.045
3991,-0.230,0.040
3992,-0.200,0.040
3993,-0.190,0.035
3994,-0.170,0.045
3995,-0.165,0.030
3996,-0.160,0.035
3997,-0.175,0.040
3998,-0.175,0.030
3999,-0.175,0.030
4000,-0.175,0.045
4001,-0.175,0.030
4002,-0.180,0.045
4003,-0.175,0.025
4004,-0.175,0.040
4005,-0.185,0.055
4006,-0.170,0.045
4007,-0.160,0.055
4008,-0.155,0.065
4009,-0.150,0.060
4010,-0.145,0.070
4011,-0.145,0.075
4012,-0.145,0.080
4013,-0.135,0.085
4014,-0.115,0.080
4015,-0.115,0.100
4016,-0.110,0.100
4017,-0.105,0.105
4018,-0.120,0.120
4019,-0.115,0.100
4020,-0.100,0.120
4021,-0.100,0.115
4022,-0.100,0.135
4023,-0.095,0.140
4024,-0.090,0.135
4025,-0.100,0.140
4026,-0.100,0.145
4027,-0.095,0.155
4028,-0.095,0.150
4029,-0.075,0.145
4030,-0.085,0.160
4031,-0.085,0.155
4032,-0.080,0.165
4033,-0.075,0.165
4034,-0.060,0.180
4035,-0.070,0.165
4036,-0.070,0.175
4037,-0.080,0.180
4038,-0.080,0.190
4039,-0.085,0.185
4040,-0.080,0.185
4041,-0.085,0.175
4042,-0.075,0.185
4043,-0.075,0.185
4044,-0.070,0.195
4045,-0.070,0.195
4046,-0.065,0.195
4047,-0.065,0.210
4048,-0.060,0.215
4049,-0.050,0.205
4050,-0.030,0.220
4051,-0.025,0.225
4052,-0.010,0.250
4053,-0.020,0.260
4054,-0.005,0.255
4055,-0.005,0.255
4056,-0.020,0.220
4057,-0.030,0.215
4058,-0.030,0.220
4059,-0.040,0.215
4060,-0.035,0.235
4061,-0.025,0.220
4062,-0.020,0.215
4063,-0.030,0.225
4064,-0.045,0.255
4065,-0.045,0.270
4066,-0.055,0.270
4067,-0.045,0.260
4068,-0.060,0.260
4069,-0.040,0.260
4070,-0.030,0.260
4071,-0.025,0.260
4072,-0.025,0.270
4073,-0.020,0.265
4074,0.000,0.285
4075,0.190,0.315
4076,0.520,0.295
4077,0.770,0.190
4078,0.570,0.005
4079,-0.060,-0.145
4080,-0.340,-0.205
4081,-0.300,-0.095
4082,-0.140,0.070
4083,-0.070,0.215
4084,-0.070,0.300
4085,-0.060,0.320
4086,-0.070,0.330
4087,-0.065,0.340
4088,-0.055,0.330
4089,-0.070,0.335
4090,-0.060,0.335
4091,-0.065,0.330
4092,-0.050,0.340
4093,-0.050,0.335
4094,-0.070,0.345
4095,-0.055,0.345
4096,-0.060,0.345
4097,-0.065,0.335
4098,-0.060,0.360
4099,-0.055,0.365
4100,-0.065,0.370
4101,-0.060,0.380
4102,-0.055,0.390
4103,-0.055,0.385
4104,-0.070,0.395
4105,-0.055,0.400
4106,-0.045,0.415
4107,-0.045,0.415
4108,-0.035,0.410
4109,-0.035,0.420
4110,-0.015,0.415
4111,-0.010,0.420
4112,0.005,0.415
4113,0.000,0.415
4114,0.015,0.420
4115,0.025,0.410
4116,0.050,0.400
4117,0.045,0.395
4118,0.065,0.395
4119,0.070,0.395
4120,0.070,0.395
4121,0.065,0.390
4122,0.055,0.380
4123,0.060,0.375
4124,0.055,0.385
4125,0.045,0.385
4126,0.040,0.375
4127,0.040,0.380
4128,0.045,0.390
4129,0.055,0.390
4130,0.045,0.400
4131,0.055,0.390
4132,0.055,0.395
4133,0.055,0.395
4134,0.060,0.395
4135,0.075,0.405
4136,0.070,0.400
4137,0.075,0.410
4138,0.090,0.400
4139,0.075,0.425
4140,0.090,0.400
4141,0.075,0.405
4142,0.090,0.425
4143,0.095,0.425
4144,0.110,0.415
4145,0.105,0.425
4146,0.110,0.425
4147,0.100,0.420
4148,0.100,0.420
4149,0.100,0.420
4150,0.110,0.420
4151,0.105,0.420
4152,0.100,0.425
4153,0.100,0.425
4154,0.105,0.420
4155,0.105,0.425
4156,0.100,0.415
4157,0.100,0.410
4158,0.095,0.430
4159,0.090,0.420
4160,0.105,0.420
4161,0.090,0.400
4162,0.095,0.420
4163,0.095,0.415
4164,0.090,0.395
4165,0.085,0.410
4166,0.090,0.415
4167,0.090,0.400
4168,0.085,0.400
4169,0.085,0.400
4170,0.090,0.400
4171,0.090,0.385
4172,0.110,0.390
4173,0.105,0.390
4174,0.120,0.395
4175,0.145,0.395
4176,0.135,0.405
4177,0.120,0.415
4178,0.130,0.410
4179,0.130,0.410
4180,0.110,0.405
4181,0.105,0.380
4182,0.105,0.365
4183,0.110,0.360
4184,0.105,0.340
4185,0.110,0.350
4186,0.110,0.345
4187,0.125,0.365
4188,0.100,0.375
4189,0.085,0.380
4190,0.075,0.390
4191,0.075,0.380
4192,0.080,0.375
4193,0.080,0.380
4194,0.085,0.370
4195,0.085,0.355
4196,0.080,0.365
4197,0.070,0.365
4198,0.075,0.365
4199,0.245,0.395
4200,0.585,0.370
4201,0.905,0.290
4202,0.875,0.070
4203,0.240,-0.110
4204,-0.235,-0.190
4205,-0.250,-0.120
4206,-0.115,0.035
4207,-0.005,0.210
4208,0.005,0.335
4209,-0.005,0.375
4210,0.000,0.380
4211,0.000,0.365
4212,0.000,0.370
4213,0.000,0.375
4214,0.000,0.365
4215,0.005,0.360
4216,0.000,0.350
4217,-0.005,0.355
4218,-0.010,0.360
4219,-0.015,0.360
4220,-0.005,0.370
4221,-0.015,0.355
4222,-0.015,0.365
4223,-0.025,0.370
4224,-0.035,0.390
4225,-0.025,0.380
4226,-0.025,0.395
4227,-0.020,0.375
4228,-0.020,0.400
4229,-0.010,0.405
4230,-0.010,0.425
4231,-0.010,0.430
4232,-0.010,0.430
4233,0.000,0.430
4234,0.005,0.430
4235,0.010,0.425
4236,0.020,0.420
4237,0.035,0.415
4238,0.045,0.410
4239,0.055,0.400
4240,0.070,0.385
4241,0.075,0.385
4242,0.090,0.365
4243,0.090,0.375
4244,0.085,0.360
4245,0.075,0.355
4246,0.080,0.340
4247,0.075,0.345
4248,0.065,0.330
4249,0.055,0.320
4250,0.065,0.325
4251,0.050,0.315
4252,0.045,0.325
4253,0.040,0.315
4254,0.050,0.310
4255,0.060,0.310
4256,0.060,0.300
4257,0.055,0.315
4258,0.050,0.320
4259,0.070,0.315
4260,0.065,0.320
4261,0.065,0.315
4262,0.075,0.315
4263,0.075,0.315
4264,0.065,0.315
4265,0.070,0.345
4266,0.080,0.315
4267,0.090,0.315
4268,0.095,0.325
4269,0.095,0.315
4270,0.085,0.325
4271,0.080,0.310
4272,0.090,0.310
4273,0.090,0.305
4274,0.100,0.320
4275,0.100,0.320
4276,0.095,0.320
4277,0.095,0.315
4278,0.090,0.310
4279,0.090,0.315
4280,0.085,0.305
4281,0.085,0.310
4282,0.080,0.315
4283,0.080,0.305
4284,0.080,0.305
4285,0.060,0.315
4286,0.065,0.310
4287,0.075,0.310
4288,0.055,0.305
4289,0.070,0.315
4290,0.060,0.315
4291,0.070,0.310
4292,0.070,0.310
4293,0.065,0.310
4294,0.060,0.315
4295,0.070,0.315
4296,0.085,0.300
4297,0.090,0.310
4298,0.110,0.305
4299,0.105,0.320
4300,0.105,0.335
4301,0.110,0.345
4302,0.115,0.330
4303,0.105,0.330
4304,0.090,0.310
4305,0.095,0.295
4306,0.085,0.285
4307,0.090,0.280
4308,0.100,0.285
4309,0.100,0.280
4310,0.095,0.270
4311,0.085,0.295
4312,0.065,0.300
4313,0.055,0.305
4314,0.060,0.325
4315,0.065,0.305
4316,0.070,0.295
4317,0.070,0.295
4318,0.070,0.305
4319,0.070,0.290
4320,0.075,0.295
4321,0.060,0.300
4322,0.095,0.305
4323,0.335,0.330
4324,0.645,0.290
4325,0.845,0.155
4326,0.525,-0.050
4327,-0.090,-0.215
4328,-0.270,-0.245
4329,-0.185,-0.085
4330,-0.040,0.095
4331,0.010,0.225
4332,0.015,0.300
4333,0.000,0.305
4334,0.000,0.305
4335,0.000,0.310
4336,0.000,0.310
4337,0.010,0.305
4338,0.015,0.315
4339,0.015,0.310
4340,0.020,0.310
4341,0.005,0.310
4342,0.005,0.315
4343,0.005,0.305
4344,0.000,0.305
4345,0.000,0.300
4346,-0.015,0.315
4347,-0.010,0.315
4348,-0.015,0.320
4349,0.000,0.330
4350,0.000,0.335
4351,0.000,0.340
4352,0.000,0.315
4353,-0.005,0.335
4354,0.005,0.345
4355,0.000,0.340
4356,0.005,0.340
4357,0.005,0.325
4358,0.025,0.325
4359,0.045,0.330
4360,0.050,0.330
4361,0.055,0.325
4362,0.060,0.315
4363,0.090,0.315
4364,0.090,0.300
4365,0.105,0.295
4366,0.110,0.280
4367,0.105,0.275
4368,0.085,0.275
4369,0.090,0.275
4370,0.090,0.265
4371,0.075,0.265
4372,0.070,0.245
4373,0.060,0.250
4374,0.060,0.260
4375,0.055,0.245
4376,0.050,0.255
4377,0.055,0.245
4378,0.050,0.260
4379,0.075,0.260
4380,0.085,0.270
4381,0.080,0.245
4382,0.080,0.250
4383,0.085,0.260
4384,0.095,0.255
4385,0.085,0.250
4386,0.090,0.250
4387,0.105,0.250
4388,0.095,0.240
4389,0.095,0.255
4390,0.105,0.265
4391,0.115,0.255
4392,0.120,0.260
4393,0.120,0.265
4394,0.120,0.265
4395,0.110,0.255
4396,0.120,0.265
4397,0.120,0.270
4398,0.115,0.255
4399,0.115,0.260
4400,0.115,0.255
4401,0.110,0.265
4402,0.105,0.250
4403,0.115,0.245
4404,0.110,0.245
4405,0.100,0.250
4406,0.095,0.250
4407,0.090,0.250
4408,0.095,0.245
4409,0.095,0.235
4410,0.080,0.230
4411,0.070,0.225
4412,0.075,0.230
4413,0.080,0.225
4414,0.080,0.220
4415,0.075,0.215
4416,0.085,0.220
4417,0.080,0.220
4418,0.075,0.215
4419,0.085,0.215
4420,0.100,0.220
4421,0.115,0.225
4422,0.120,0.235
4423,0.130,0.245
4424,0.120,0.235
4425,0.125,0.220
4426,0.115,0.210
4427,0.100,0.190
4428,0.115,0.165
4429,0.115,0.170
4430,0.100,0.160
4431,0.095,0.160
4432,0.095,0.140
4433,0.105,0.145
4434,0.105,0.170
4435,0.090,0.180
4436,0.075,0.180
4437,0.080,0.170
4438,0.095,0.170
4439,0.080,0.175
4440,0.080,0.175
4441,0.090,0.165
4442,0.080,0.165
4443,0.080,0.145
4444,0.070,0.150
4445,0.185,0.175
4446,0.470,0.170
4447,0.805,0.120
4448,0.925,-0.045
4449,0.465,-0.265
4450,-0.130,-0.380
4451,-0.270,-0.375
4452,-0.165,-0.210
4453,-0.010,-0.030
4454,0.010,0.095
4455,0.000,0.140
4456,0.000,0.150
4457,0.000,0.155
4458,0.000,0.150
4459,0.000,0.145
4460,-0.005,0.150
4461,-0.010,0.150
4462,-0.015,0.140
4463,-0.010,0.150
4464,-0.015,0.140
4465,-0.015,0.135
4466,-0.020,0.140
4467,-0.020,0.135
4468,-0.020,0.145
4469,-0.020,0.150
4470,-0.015,0.165
4471,-0.020,0.165
4472,-0.020,0.160
4473,-0.030,0.165
4474,-0.020,0.180
4475,-0.020,0.185
4476,-0.020,0.180
4477,-0.020,0.200
4478,-0.015,0.215
4479,-0.005,0.205
4480,0.000,0.195
4481,-0.005,0.190
4482,0.000,0.190
4483,0.010,0.185
4484,0.035,0.195
4485,0.040,0.170
4486,0.060,0.170
4487,0.075,0.170
4488,0.085,0.160
4489,0.085,0.145
4490,0.090,0.145
4491,0.080,0.135
4492,0.075,0.135
4493,0.070,0.130
4494,0.040,0.120
4495,0.040,0.110
4496,0.035,0.100
4497,0.030,0.105
4498,0.040,0.105
4499,0.040,0.100
4500,0.045,0.105
4501,0.035,0.095
4502,0.040,0.095
4503,0.040,0.085
4504,0.050,0.100
4505,0.060,0.100
4506,0.055,0.095
4507,0.065,0.090
4508,0.065,0.105
4509,0.075,0.090
4510,0.080,0.090
4511,0.080,0.105
4512,0.095,0.110
4513,0.090,0.120
4514,0.090,0.100
4515,0.100,0.100
4516,0.090,0.105
4517,0.090,0.105
4518,0.105,0.110
4519,0.100,0.115
4520,0.090,0.100
4521,0.095,0.100
4522,0.090,0.085
4523,0.090,0.105
4524,0.090,0.100
4525,0.105,0.105
4526,0.110,0.105
4527,0.095,0.090
4528,0.100,0.105
4529,0.095,0.105
4530,0.095,0.105
4531,0.085,0.100
4532,0.090,0.100
4533,0.085,0.100
4534,0.080,0.105
4535,0.090,0.095
4536,0.075,0.100
4537,0.085,0.095
4538,0.080,0.085
4539,0.090,0.095
4540,0.080,0.095
4541,0.085,0.095
4542,0.075,0.100
4543,0.070,0.105
4544,0.090,0.110
4545,0.125,0.110
4546,0.115,0.110
4547,0.115,0.135
4548,0.130,0.130
4549,0.115,0.130
4550,0.110,0.125
4551,0.115,0.105
4552,0.120,0.095
4553,0.125,0.085
4554,0.125,0.090
4555,0.110,0.080
4556,0.115,0.080
4557,0.105,0.095
4558,0.100,0.105
4559,0.075,0.120
4560,0.075,0.110
4561,0.075,0.115
4562,0.080,0.115
4563,0.075,0.120
4564,0.095,0.105
4565,0.085,0.110
4566,0.075,0.095
4567,0.070,0.110
4568,0.090,0.120
4569,0.215,0.150
4570,0.490,0.135
4571,0.775,0.075
4572,0.800,-0.095
4573,0.275,-0.310
4574,-0.190,-0.410
4575,-0.215,-0.340
4576,-0.090,-0.165
4577,0.010,-0.005
4578,0.030,0.105
4579,0.020,0.140
4580,0.020,0.145
4581,0.025,0.145
4582,0.025,0.140
4583,0.025,0.135
4584,0.020,0.130
4585,0.025,0.135
4586,0.015,0.155
4587,0.020,0.140
4588,0.015,0.140
4589,0.020,0.145
4590,0.020,0.145
4591,0.015,0.150
4592,0.030,0.135
4593,0.030,0.160
4594,0.020,0.160
4595,0.015,0.165
4596,0.030,0.165
4597,0.020,0.180
4598,0.025,0.185
4599,0.025,0.195
4600,0.015,0.195
4601,0.035,0.195
4602,0.015,0.205
4603,0.050,0.200
4604,0.040,0.185
4605,0.055,0.195
4606,0.050,0.190
4607,0.075,0.200
4608,0.085,0.190
4609,0.100,0.190
4610,0.115,0.190
4611,0.120,0.160
4612,0.115,0.160
4613,0.145,0.160
4614,0.135,0.150
4615,0.130,0.160
4616,0.120,0.150
4617,0.115,0.140
4618,0.100,0.145
4619,0.095,0.145
4620,0.095,0.145
4621,0.095,0.135
4622,0.100,0.130
4623,0.075,0.135
4624,0.100,0.130
4625,0.085,0.135
4626,0.110,0.135
4627,0.090,0.135
4628,0.090,0.150
4629,0.115,0.150
4630,0.110,0.145
4631,0.105,0.135
4632,0.115,0.140
4633,0.115,0.150
4634,0.130,0.150
4635,0.130,0.145
4636,0.125,0.145
4637,0.130,0.135
4638,0.125,0.160
4639,0.130,0.145
4640,0.145,0.150
4641,0.140,0.160
4642,0.145,0.165
4643,0.145,0.150
4644,0.135,0.160
4645,0.145,0.165
4646,0.125,0.160
4647,0.135,0.170
4648,0.130,0.180
4649,0.125,0.175
4650,0.135,0.180
4651,0.145,0.180
4652,0.145,0.180
4653,0.145,0.180
4654,0.130,0.175
4655,0.140,0.185
4656,0.145,0.190
4657,0.130,0.185
4658,0.135,0.185
4659,0.125,0.185
4660,0.120,0.195
4661,0.120,0.185
4662,0.120,0.175
4663,0.135,0.175
4664,0.125,0.190
4665,0.125,0.165
4666,0.130,0.170
4667,0.150,0.170
4668,0.160,0.185
4669,0.150,0.205
4670,0.155,0.210
4671,0.170,0.195
4672,0.155,0.185
4673,0.140,0.185
4674,0.125,0.170
4675,0.135,0.155
4676,0.120,0.145
4677,0.135,0.155
4678,0.120,0.140
4679,0.130,0.145
4680,0.130,0.150
4681,0.115,0.165
4682,0.105,0.175
4683,0.100,0.170
4684,0.095,0.170
4685,0.105,0.165
4686,0.105,0.155
4687,0.110,0.165
4688,0.105,0.160
4689,0.105,0.175
4690,0.095,0.155
4691,0.115,0.170
4692,0.280,0.200
4693,0.600,0.160
4694,0.915,0.090
4695,0.815,-0.110
4696,0.170,-0.290
4697,-0.220,-0.370
4698,-0.215,-0.290
4699,-0.050,-0.105
4700,0.030,0.060
4701,0.040,0.155
4702,0.030,0.170
4703,0.035,0.180
4704,0.040,0.180
4705,0.030,0.180
4706,0.030,0.175
4707,0.030,0.180
4708,0.015,0.175
4709,0.010,0.165
4710,0.025,0.165
4711,0.030,0.160
4712,0.030,0.165
4713,0.040,0.160
4714,0.020,0.180
4715,0.020,0.165
4716,0.010,0.165
4717,0.020,0.175
4718,0.020,0.165
4719,0.010,0.185
4720,0.005,0.185
4721,0.015,0.195
4722,0.005,0.195
4723,0.025,0.210
4724,0.025,0.210
4725,0.025,0.205
4726,0.035,0.215
4727,0.040,0.210
4728,0.045,0.205
4729,0.065,0.195
4730,0.060,0.195
4731,0.085,0.190
4732,0.090,0.190
4733,0.110,0.180
4734,0.110,0.170
4735,0.110,0.185
4736,0.125,0.160
4737,0.120,0.170
4738,0.105,0.170
4739,0.115,0.165
4740,0.085,0.135
4741,0.090,0.145
4742,0.065,0.120
4743,0.085,0.120
4744,0.070,0.120
4745,0.075,0.120
4746,0.080,0.130
4747,0.080,0.130
4748,0.080,0.125
4749,0.070,0.120
4750,0.080,0.130
4751,0.085,0.125
4752,0.095,0.130
4753,0.095,0.140
4754,0.095,0.130
4755,0.105,0.125
4756,0.105,0.135
4757,0.115,0.135
4758,0.115,0.130
4759,0.125,0.130
4760,0.120,0.140
4761,0.115,0.145
4762,0.110,0.150
4763,0.115,0.135
4764,0.115,0.140
4765,0.115,0.145
4766,0.120,0.145
4767,0.105,0.145
4768,0.115,0.145
4769,0.105,0.145
4770,0.110,0.145
4771,0.110,0.160
4772,0.120,0.150
4773,0.115,0.160
4774,0.120,0.160
4775,0.115,0.160
4776,0.130,0.160
4777,0.125,0.165
4778,0.125,0.165
4779,0.130,0.160
4780,0.115,0.165
4781,0.120,0.170
4782,0.120,0.165
4783,0.110,0.170
4784,0.120,0.165
4785,0.120,0.170
4786,0.130,0.160
4787,0.115,0.175
4788,0.125,0.175
4789,0.125,0.170
4790,0.140,0.175
4791,0.140,0.175
4792,0.165,0.180
4793,0.175,0.195
4794,0.165,0.205
4795,0.165,0.190
4796,0.150,0.190
4797,0.145,0.180
4798,0.150,0.155
4799,0.145,0.150
4800,0.145,0.130
4801,0.145,0.135
4802,0.150,0.135
4803,0.135,0.150
4804,0.130,0.155
4805,0.115,0.165
4806,0.110,0.185
4807,0.115,0.180
4808,0.115,0.175
4809,0.115,0.185
4810,0.115,0.185
4811,0.120,0.170
4812,0.110,0.185
4813,0.120,0.180
4814,0.110,0.190
4815,0.145,0.205
4816,0.355,0.230
4817,0.660,0.200
4818,0.920,0.080
4819,0.735,-0.140
4820,0.090,-0.290
4821,-0.215,-0.345
4822,-0.180,-0.235
4823,-0.025,-0.040
4824,0.045,0.100
4825,0.050,0.200
4826,0.040,0.220
4827,0.050,0.230
4828,0.045,0.225
4829,0.040,0.220
4830,0.035,0.220
4831,0.045,0.220
4832,0.045,0.235
4833,0.040,0.240
4834,0.040,0.235
4835,0.040,0.245
4836,0.050,0.250
4837,0.055,0.260
4838,0.035,0.240
4839,0.045,0.260
4840,0.035,0.270
4841,0.035,0.270
4842,0.030,0.280
4843,0.030,0.285
4844,0.025,0.290
4845,0.020,0.300
4846,0.010,0.300
4847,0.030,0.315
4848,0.040,0.320
4849,0.040,0.320
4850,0.040,0.320
4851,0.040,0.325
4852,0.060,0.320
4853,0.070,0.335
4854,0.075,0.325
4855,0.085,0.320
4856,0.110,0.320
4857,0.140,0.320
4858,0.125,0.295
4859,0.140,0.310
4860,0.145,0.300
4861,0.135,0.300
4862,0.130,0.305
4863,0.130,0.295
4864,0.120,0.295
4865,0.100,0.295
4866,0.100,0.280
4867,0.090,0.290
4868,0.070,0.290
4869,0.065,0.290
4870,0.090,0.280
4871,0.085,0.280
4872,0.085,0.295
4873,0.075,0.295
4874,0.080,0.295
4875,0.085,0.295
4876,0.115,0.295
4877,0.105,0.305
4878,0.105,0.300
4879,0.115,0.310
4880,0.120,0.315
4881,0.115,0.300
4882,0.120,0.320
4883,0.135,0.305
4884,0.135,0.325
4885,0.140,0.305
4886,0.135,0.330
4887,0.120,0.320
4888,0.130,0.320
4889,0.135,0.330
4890,0.130,0.320
4891,0.135,0.340
4892,0.115,0.330
4893,0.135,0.330
4894,0.125,0.330
4895,0.130,0.340
4896,0.130,0.335
4897,0.140,0.345
4898,0.140,0.345
4899,0.135,0.350
4900,0.145,0.350
4901,0.130,0.345
4902,0.130,0.345
4903,0.125,0.355
4904,0.130,0.355
4905,0.110,0.355
4906,0.125,0.355
4907,0.125,0.360
4908,0.125,0.370
4909,0.125,0.370
4910,0.115,0.365
4911,0.130,0.370
4912,0.145,0.375
4913,0.145,0.385
4914,0.150,0.390
4915,0.170,0.395
4916,0.165,0.400
4917,0.175,0.420
4918,0.190,0.420
4919,0.180,0.420
4920,0.170,0.410
4921,0.170,0.395
4922,0.175,0.375
4923,0.180,0.375
4924,0.165,0.375
4925,0.155,0.370
4926,0.170,0.360
4927,0.150,0.390
4928,0.145,0.400
4929,0.140,0.400
4930,0.130,0.410
4931,0.130,0.405
4932,0.125,0.405
4933,0.125,0.405
4934,0.135,0.410
4935,0.125,0.410
4936,0.120,0.415
4937,0.115,0.420
4938,0.130,0.430
4939,0.240,0.455
4940,0.530,0.440
4941,0.835,0.380
4942,0.870,0.225
4943,0.340,0.035
4944,-0.185,-0.065
4945,-0.250,-0.040
4946,-0.105,0.125
4947,0.035,0.295
4948,0.050,0.400
4949,0.050,0.435
4950,0.035,0.430
4951,0.045,0.450
4952,0.040,0.430
4953,0.035,0.440
4954,0.025,0.420
4955,0.025,0.420
4956,0.015,0.435
4957,0.025,0.430
4958,0.015,0.430
4959,0.015,0.435
4960,0.010,0.435
4961,0.000,0.435
4962,0.000,0.450
4963,0.010,0.440
4964,0.005,0.450
4965,-0.005,0.445
4966,-0.010,0.455
4967,-0.005,0.445
4968,-0.015,0.460
4969,-0.020,0.480
4970,-0.005,0.480
4971,-0.005,0.470
4972,-0.005,0.485
4973,-0.005,0.475
4974,0.000,0.475
4975,-0.005,0.465
4976,0.005,0.470
4977,0.020,0.465
4978,0.020,0.460
4979,0.040,0.435
4980,0.060,0.435
4981,0.070,0.435
4982,0.070,0.410
4983,0.070,0.420
4984,0.075,0.405
4985,0.065,0.415
4986,0.060,0.390
4987,0.040,0.385
4988,0.025,0.380
4989,0.025,0.375
4990,0.015,0.355
4991,0.030,0.360
4992,0.025,0.365
4993,0.010,0.350
4994,0.000,0.350
4995,0.005,0.345
4996,0.000,0.345
4997,0.010,0.340
4998,0.010,0.340
4999,0.005,0.335
5000,0.015,0.335
5001,0.020,0.320
5002,0.015,0.320
5003,0.010,0.315
5004,0.010,0.320
5005,0.010,0.300
5006,0.020,0.315
5007,0.015,0.330
5008,0.015,0.320
5009,0.015,0.305
5010,0.020,0.290
5011,0.005,0.305
5012,0.000,0.305
5013,-0.015,0.290
5014,-0.010,0.275
5015,-0.030,0.300
5016,-0.020,0.290
5017,-0.020,0.290
5018,-0.020,0.285
5019,-0.030,0.280
5020,-0.025,0.275
5021,-0.030,0.280
5022,-0.035,0.260
5023,-0.035,0.265
5024,-0.050,0.265
5025,-0.065,0.260
5026,-0.055,0.250
5027,-0.060,0.255
5028,-0.065,0.240
5029,-0.075,0.245
5030,-0.075,0.245
5031,-0.090,0.230
5032,-0.090,0.240
5033,-0.090,0.225
5034,-0.095,0.235
5035,-0.100,0.230
5036,-0.090,0.230
5037,-0.105,0.225
5038,-0.090,0.230
5039,-0.070,0.230
5040,-0.070,0.245
5041,-0.075,0.250
5042,-0.060,0.240
5043,-0.080,0.230
5044,-0.085,0.215
5045,-0.095,0.195
5046,-0.100,0.175
5047,-0.090,0.175
5048,-0.105,0.170
5049,-0.110,0.165
5050,-0.115,0.165
5051,-0.125,0.170
5052,-0.130,0.175
5053,-0.135,0.200
5054,-0.145,0.190
5055,-0.160,0.185
5056,-0.170,0.180
5057,-0.165,0.160
5058,-0.170,0.165
5059,-0.170,0.170
5060,-0.175,0.170
5061,-0.180,0.160
5062,-0.165,0.170
5063,-0.070,0.180
5064,0.225,0.185
5065,0.540,0.125
5066,0.660,-0.035
5067,0.210,-0.235
5068,-0.370,-0.365
5069,-0.500,-0.350
5070,-0.415,-0.210
5071,-0.295,-0.050
5072,-0.255,0.085
5073,-0.275,0.135
5074,-0.275,0.155
5075,-0.280,0.150
5076,-0.285,0.140
5077,-0.280,0.130
5078,-0.290,0.145
5079,-0.290,0.125
5080,-0.295,0.130
5081,-0.285,0.120
5082,-0.295,0.125
5083,-0.290,0.115
5084,-0.290,0.125
5085,-0.305,0.125
5086,-0.305,0.135
5087,-0.310,0.140
5088,-0.315,0.150
5089,-0.320,0.165
5090,-0.320,0.150
5091,-0.320,0.160
5092,-0.330,0.155
5093,-0.335,0.160
5094,-0.335,0.170
5095,-0.320,0.175
5096,-0.330,0.180
5097,-0.335,0.170
5098,-0.330,0.175
5099,-0.325,0.165
5100,-0.335,0.160
5101,-0.320,0.155
5102,-0.315,0.160
5103,-0.310,0.135
5104,-0.295,0.125
5105,-0.280,0.120
5106,-0.280,0.125
5107,-0.270,0.100
5108,-0.275,0.105
5109,-0.285,0.090
5110,-0.285,0.090
5111,-0.300,0.080
5112,-0.320,0.070
5113,-0.330,0.060
5114,-0.325,0.060
5115,-0.330,0.060
5116,-0.335,0.060
5117,-0.340,0.060
5118,-0.320,0.050
5119,-0.350,0.050
5120,-0.345,0.060
5121,-0.340,0.050
5122,-0.340,0.045
5123,-0.345,0.045
5124,-0.330,0.055
5125,-0.325,0.055
5126,-0.320,0.050
5127,-0.330,0.045
5128,-0.315,0.045
5129,-0.320,0.045
5130,-0.310,0.050
5131,-0.315,0.050
5132,-0.310,0.055
5133,-0.320,0.045
5134,-0.315,0.055
5135,-0.325,0.055
5136,-0.305,0.050
5137,-0.320,0.045
5138,-0.315,0.060
5139,-0.330,0.050
5140,-0.335,0.055
5141,-0.340,0.065
5142,-0.345,0.060
5143,-0.350,0.055
5144,-0.345,0.045
5145,-0.345,0.060
5146,-0.345,0.050
5147,-0.335,0.050
5148,-0.330,0.050
5149,-0.335,0.050
5150,-0.330,0.055
5151,-0.320,0.065
5152,-0.325,0.045
5153,-0.340,0.060
5154,-0.340,0.060
5155,-0.345,0.050
5156,-0.345,0.045
5157,-0.330,0.060
5158,-0.350,0.050
5159,-0.320,0.070
5160,-0.320,0.060
5161,-0.315,0.050
5162,-0.305,0.060
5163,-0.295,0.065
5164,-0.295,0.075
5165,-0.295,0.095
5166,-0.280,0.090
5167,-0.280,0.080
5168,-0.295,0.060
5169,-0.280,0.040
5170,-0.275,0.040
5171,-0.270,0.035
5172,-0.280,0.035
5173,-0.275,0.030
5174,-0.265,0.025
5175,-0.280,0.040
5176,-0.280,0.055
5177,-0.290,0.060
5178,-0.290,0.060
5179,-0.315,0.050
5180,-0.305,0.055
5181,-0.290,0.045
5182,-0.290,0.035
5183,-0.300,0.035
5184,-0.285,0.035
5185,-0.300,0.035
5186,-0.295,0.035
5187,-0.225,0.045
5188,0.025,0.065
5189,0.385,0.005
5190,0.540,-0.110
5191,0.110,-0.285
5192,-0.495,-0.405
5193,-0.610,-0.415
5194,-0.490,-0.280
5195,-0.345,-0.130
5196,-0.310,-0.035
5197,-0.305,0.005
5198,-0.310,0.015
5199,-0.305,0.005
5200,-0.310,0.010
5201,-0.310,0.000
5202,-0.315,0.000
5203,-0.320,-0.005
5204,-0.310,-0.010
5205,-0.330,-0.015
5206,-0.325,-0.020
5207,-0.330,-0.020
5208,-0.340,-0.040
5209,-0.330,-0.030
5210,-0.320,-0.030
5211,-0.315,-0.040
5212,-0.315,-0.040
5213,-0.310,-0.050
5214,-0.310,-0.055
5215,-0.320,-0.050
5216,-0.325,-0.065
5217,-0.325,-0.060
5218,-0.320,-0.065
5219,-0.320,-0.070
5220,-0.325,-0.060
5221,-0.320,-0.090
5222,-0.310,-0.095
5223,-0.310,-0.090
5224,-0.290,-0.115
5225,-0.305,-0.120
5226,-0.290,-0.145
5227,-0.270,-0.150
5228,-0.265,-0.170
5229,-0.260,-0.180
5230,-0.250,-0.185
5231,-0.235,-0.210
5232,-0.240,-0.225
5233,-0.230,-0.240
5234,-0.235,-0.255
5235,-0.245,-0.265
5236,-0.245,-0.270
5237,-0.260,-0.290
5238,-0.260,-0.305
5239,-0.270,-0.310
5240,-0.270,-0.325
5241,-0.275,-0.340
5242,-0.285,-0.340
5243,-0.270,-0.355
5244,-0.285,-0.365
5245,-0.285,-0.380
5246,-0.285,-0.390
5247,-0.270,-0.395
5248,-0.280,-0.405
5249,-0.280,-0.415
5250,-0.280,-0.425
5251,-0.265,-0.430
5252,-0.245,-0.455
5253,-0.245,-0.450
5254,-0.235,-0.460
5255,-0.255,-0.475
5256,-0.245,-0.480
5257,-0.245,-0.490
5258,-0.245,-0.490
5259,-0.255,-0.515
5260,-0.265,-0.515
5261,-0.260,-0.525
5262,-0.270,-0.535
5263,-0.285,-0.535
5264,-0.275,-0.560
5265,-0.290,-0.565
5266,-0.295,-0.575
5267,-0.305,-0.575
5268,-0.300,-0.595
5269,-0.315,-0.595
5270,-0.310,-0.610
5271,-0.330,-0.615
5272,-0.320,-0.625
5273,-0.315,-0.635
5274,-0.330,-0.655
5275,-0.320,-0.670
5276,-0.335,-0.670
5277,-0.335,-0.680
5278,-0.340,-0.670
5279,-0.345,-0.685
5280,-0.350,-0.695
5281,-0.345,-0.700
5282,-0.355,-0.700
5283,-0.355,-0.710
5284,-0.355,-0.720
5285,-0.365,-0.735
5286,-0.370,-0.735
5287,-0.350,-0.735
5288,-0.345,-0.735
5289,-0.345,-0.735
5290,-0.360,-0.725
5291,-0.355,-0.740
5292,-0.365,-0.750
5293,-0.375,-0.770
5294,-0.370,-0.790
5295,-0.360,-0.815
5296,-0.360,-0.820
5297,-0.355,-0.820
5298,-0.350,-0.830
5299,-0.360,-0.840
5300,-0.355,-0.845
5301,-0.375,-0.840
5302,-0.405,-0.830
5303,-0.395,-0.835
5304,-0.405,-0.850
5305,-0.400,-0.860
5306,-0.415,-0.855
5307,-0.415,-0.865
5308,-0.420,-0.865
5309,-0.415,-0.875
5310,-0.430,-0.875
5311,-0.410,-0.875
5312,-0.240,-0.845
5313,0.100,-0.880
5314,0.420,-0.965
5315,0.355,-1.185
5316,-0.300,-1.390
5317,-0.720,-1.505
5318,-0.715,-1.415
5319,-0.580,-1.235
5320,-0.500,-1.075
5321,-0.500,-0.970
5322,-0.500,-0.925
5323,-0.530,-0.930
5324,-0.525,-0.920
5325,-0.525,-0.935
5326,-0.530,-0.940
5327,-0.530,-0.945
5328,-0.540,-0.945
5329,-0.560,-0.945
5330,-0.550,-0.950
5331,-0.580,-0.950
5332,-0.580,-0.950
5333,-0.580,-0.940
5334,-0.590,-0.960
5335,-0.585,-0.955
5336,-0.600,-0.960
5337,-0.595,-0.950
5338,-0.600,-0.970
5339,-0.600,-0.945
5340,-0.590,-0.940
5341,-0.595,-0.945
5342,-0.580,-0.940
5343,-0.590,-0.940
5344,-0.585,-0.945
5345,-0.600,-0.950
5346,-0.585,-0.950
5347,-0.590,-0.950
5348,-0.580,-0.950
5349,-0.580,-0.955
5350,-0.570,-0.965
5351,-0.565,-0.985
5352,-0.560,-0.985
5353,-0.550,-0.985
5354,-0.555,-0.995
5355,-0.545,-1.010
5356,-0.545,-1.000
5357,-0.550,-1.025
5358,-0.550,-1.035
5359,-0.565,-1.020
5360,-0.570,-1.035
5361,-0.580,-1.045
5362,-0.570,-1.050
5363,-0.580,-1.065
5364,-0.580,-1.065
5365,-0.570,-1.055
5366,-0.585,-1.065
5367,-0.595,-1.065
5368,-0.600,-1.075
5369,-0.590,-1.070
5370,-0.590,-1.070
5371,-0.590,-1.060
5372,-0.595,-1.050
5373,-0.590,-1.050
5374,-0.590,-1.050
5375,-0.595,-1.055
5376,-0.600,-1.045
5377,-0.590,-1.040
5378,-0.585,-1.040
5379,-0.590,-1.045
5380,-0.590,-1.020
5381,-0.590,-1.030
5382,-0.575,-1.030
5383,-0.585,-1.030
5384,-0.580,-1.030
5385,-0.575,-1.020
5386,-0.575,-1.010
5387,-0.575,-1.035
5388,-0.580,-1.015
5389,-0.595,-1.020
5390,-0.585,-1.010
5391,-0.585,-1.015
5392,-0.585,-1.005
5393,-0.585,-1.015
5394,-0.600,-1.000
5395,-0.590,-1.000
5396,-0.595,-1.000
5397,-0.590,-1.000
5398,-0.600,-1.005
5399,-0.590,-1.005
5400,-0.600,-1.000
5401,-0.600,-1.000
5402,-0.600,-0.995
5403,-0.600,-0.990
5404,-0.605,-1.000
5405,-0.595,-0.975
5406,-0.585,-0.985
5407,-0.580,-0.980
5408,-0.580,-0.975
5409,-0.575,-0.970
5410,-0.565,-0.960
5411,-0.555,-0.940
5412,-0.555,-0.940
5413,-0.540,-0.925
5414,-0.555,-0.910
5415,-0.535,-0.930
5416,-0.560,-0.935
5417,-0.570,-0.945
5418,-0.550,-0.950
5419,-0.555,-0.955
5420,-0.530,-0.945
5421,-0.550,-0.950
5422,-0.545,-0.940
5423,-0.545,-0.915
5424,-0.560,-0.900
5425,-0.555,-0.880
5426,-0.560,-0.885
5427,-0.555,-0.870
5428,-0.540,-0.875
5429,-0.530,-0.885
5430,-0.540,-0.880
5431,-0.520,-0.865
5432,-0.530,-0.870
5433,-0.530,-0.850
5434,-0.520,-0.845
5435,-0.430,-0.795
5436,-0.160,-0.795
5437,0.140,-0.835
5438,0.280,-0.975
5439,-0.205,-1.170
5440,-0.775,-1.290
5441,-0.845,-1.275
5442,-0.745,-1.110
5443,-0.600,-0.955
5444,-0.560,-0.820
5445,-0.550,-0.785
5446,-0.560,-0.765
5447,-0.565,-0.760
5448,-0.565,-0.750
5449,-0.565,-0.745
5450,-0.560,-0.745
5451,-0.555,-0.740
5452,-0.545,-0.740
5453,-0.540,-0.725
5454,-0.555,-0.720
5455,-0.545,-0.710
5456,-0.545,-0.705
5457,-0.550,-0.685
5458,-0.535,-0.690
5459,-0.535,-0.685
5460,-0.555,-0.680
5461,-0.550,-0.675
5462,-0.535,-0.665
5463,-0.540,-0.640
5464,-0.535,-0.620
5465,-0.535,-0.630
5466,-0.530,-0.615
5467,-0.520,-0.635
5468,-0.515,-0.605
5469,-0.510,-0.605
5470,-0.485,-0.610
5471,-0.480,-0.615
5472,-0.465,-0.615
5473,-0.450,-0.610
5474,-0.450,-0.615
5475,-0.425,-0.605
5476,-0.425,-0.605
5477,-0.420,-0.615
5478,-0.390,-0.605
5479,-0.395,-0.615
5480,-0.385,-0.605
5481,-0.385,-0.615
5482,-0.390,-0.620
5483,-0.375,-0.620
5484,-0.395,-0.630
5485,-0.395,-0.620
5486,-0.400,-0.625
5487,-0.405,-0.635
5488,-0.405,-0.640
5489,-0.395,-0.635
5490,-0.400,-0.640
5491,-0.410,-0.650
5492,-0.390,-0.660
5493,-0.385,-0.655
5494,-0.370,-0.650
5495,-0.375,-0.655
5496,-0.370,-0.655
5497,-0.355,-0.640
5498,-0.355,-0.645
5499,-0.345,-0.655
5500,-0.345,-0.640
5501,-0.335,-0.640
5502,-0.335,-0.640
5503,-0.330,-0.635
5504,-0.315,-0.640
5505,-0.315,-0.635
5506,-0.315,-0.630
5507,-0.305,-0.620
5508,-0.310,-0.635
5509,-0.310,-0.640
5510,-0.305,-0.630
5511,-0.300,-0.650
5512,-0.300,-0.640
5513,-0.300,-0.655
5514,-0.300,-0.655
5515,-0.280,-0.660
5516,-0.285,-0.665
5517,-0.280,-0.670
5518,-0.285,-0.665
5519,-0.275,-0.665
5520,-0.275,-0.675
5521,-0.275,-0.675
5522,-0.270,-0.670
5523,-0.265,-0.685
5524,-0.270,-0.685
5525,-0.270,-0.695
5526,-0.255,-0.690
5527,-0.255,-0.680
5528,-0.260,-0.680
5529,-0.255,-0.685
5530,-0.245,-0.690
5531,-0.245,-0.695
5532,-0.245,-0.700
5533,-0.245,-0.700
5534,-0.220,-0.715
5535,-0.205,-0.720
5536,-0.200,-0.705
5537,-0.180,-0.695
5538,-0.185,-0.700
5539,-0.185,-0.700
5540,-0.205,-0.710
5541,-0.200,-0.725
5542,-0.190,-0.745
5543,-0.190,-0.760
5544,-0.180,-0.760
5545,-0.180,-0.770
5546,-0.180,-0.770
5547,-0.180,-0.780
5548,-0.190,-0.775
5549,-0.190,-0.750
5550,-0.190,-0.750
5551,-0.205,-0.760
5552,-0.205,-0.760
5553,-0.200,-0.755
5554,-0.195,-0.775
5555,-0.195,-0.760
5556,-0.195,-0.760
5557,-0.200,-0.770
5558,-0.190,-0.780
5559,-0.090,-0.745
5560,0.215,-0.745
5561,0.555,-0.790
5562,0.730,-0.950
5563,0.270,-1.175
5564,-0.340,-1.330
5565,-0.465,-1.335
5566,-0.400,-1.180
5567,-0.255,-0.995
5568,-0.225,-0.840
5569,-0.235,-0.795
5570,-0.245,-0.780
5571,-0.240,-0.775
5572,-0.235,-0.775
5573,-0.245,-0.785
5574,-0.245,-0.785
5575,-0.245,-0.790
5576,-0.245,-0.790
5577,-0.255,-0.785
5578,-0.255,-0.795
5579,-0.245,-0.800
5580,-0.240,-0.800
5581,-0.235,-0.805
5582,-0.240,-0.785
5583,-0.235,-0.790
5584,-0.235,-0.780
5585,-0.235,-0.785
5586,-0.225,-0.780
5587,-0.240,-0.760
5588,-0.240,-0.750
5589,-0.235,-0.750
5590,-0.235,-0.760
5591,-0.230,-0.740
5592,-0.230,-0.745
5593,-0.230,-0.745
5594,-0.230,-0.730
5595,-0.230,-0.735
5596,-0.205,-0.745
5597,-0.200,-0.745
5598,-0.190,-0.760
5599,-0.185,-0.760
5600,-0.165,-0.785
5601,-0.150,-0.780
5602,-0.130,-0.785
5603,-0.130,-0.795
5604,-0.120,-0.795
5605,-0.140,-0.800
5606,-0.145,-0.805
5607,-0.140,-0.820
5608,-0.155,-0.830
5609,-0.145,-0.820
5610,-0.160,-0.825
5611,-0.165,-0.835
5612,-0.185,-0.830
5613,-0.195,-0.840
5614,-0.185,-0.845
5615,-0.190,-0.845
5616,-0.190,-0.840
5617,-0.200,-0.855
5618,-0.185,-0.845
5619,-0.180,-0.840
5620,-0.190,-0.845
5621,-0.180,-0.830
5622,-0.170,-0.830
5623,-0.175,-0.840
5624,-0.155,-0.825
5625,-0.140,-0.835
5626,-0.145,-0.835
5627,-0.130,-0.820
5628,-0.150,-0.830
5629,-0.155,-0.810
5630,-0.140,-0.815
5631,-0.145,-0.825
5632,-0.150,-0.815
5633,-0.140,-0.800
5634,-0.150,-0.810
5635,-0.150,-0.810
5636,-0.150,-0.815
5637,-0.155,-0.800
5638,-0.165,-0.790
5639,-0.155,-0.795
5640,-0.155,-0.795
5641,-0.160,-0.790
5642,-0.160,-0.790
5643,-0.160,-0.785
5644,-0.145,-0.790
5645,-0.150,-0.795
5646,-0.160,-0.785
5647,-0.145,-0.790
5648,-0.145,-0.780
5649,-0.150,-0.785
5650,-0.150,-0.780
5651,-0.145,-0.770
5652,-0.135,-0.770
5653,-0.135,-0.765
5654,-0.135,-0.755
5655,-0.125,-0.755
5656,-0.135,-0.750
5657,-0.145,-0.735
5658,-0.140,-0.740
5659,-0.105,-0.730
5660,-0.120,-0.710
5661,-0.120,-0.700
5662,-0.115,-0.700
5663,-0.120,-0.690
5664,-0.135,-0.700
5665,-0.130,-0.710
5666,-0.125,-0.725
5667,-0.120,-0.730
5668,-0.120,-0.730
5669,-0.115,-0.735
5670,-0.095,-0.735
5671,-0.095,-0.730
5672,-0.105,-0.695
5673,-0.120,-0.685
5674,-0.120,-0.675
5675,-0.110,-0.670
5676,-0.115,-0.665
5677,-0.115,-0.660
5678,-0.110,-0.655
5679,-0.105,-0.640
5680,-0.110,-0.635
5681,-0.110,-0.635
5682,-0.110,-0.620
5683,0.000,-0.585
5684,0.285,-0.580
5685,0.600,-0.635
5686,0.695,-0.775
5687,0.210,-0.965
5688,-0.335,-1.090
5689,-0.400,-1.075
5690,-0.290,-0.915
5691,-0.140,-0.745
5692,-0.115,-0.625
5693,-0.110,-0.575
5694,-0.115,-0.550
5695,-0.125,-0.545
5696,-0.115,-0.550
5697,-0.110,-0.520
5698,-0.105,-0.530
5699,-0.125,-0.525
5700,-0.110,-0.520
5701,-0.120,-0.510
5702,-0.125,-0.500
5703,-0.140,-0.495
5704,-0.135,-0.485
5705,-0.120,-0.485
5706,-0.145,-0.490
5707,-0.130,-0.485
5708,-0.130,-0.465
5709,-0.120,-0.450
5710,-0.120,-0.435
5711,-0.125,-0.430
5712,-0.120,-0.410
5713,-0.120,-0.400
5714,-0.095,-0.395
5715,-0.090,-0.375
5716,-0.090,-0.375
5717,-0.080,-0.375
5718,-0.075,-0.350
5719,-0.065,-0.350
5720,-0.065,-0.355
5721,-0.045,-0.335
5722,-0.040,-0.350
5723,-0.030,-0.330
5724,-0.030,-0.310
5725,-0.015,-0.325
5726,0.000,-0.325
5727,0.000,-0.310
5728,0.005,-0.315
5729,0.000,-0.320
5730,0.010,-0.315
5731,0.015,-0.305
5732,0.000,-0.300
5733,-0.010,-0.300
5734,0.000,-0.285
5735,-0.015,-0.280
5736,-0.005,-0.290
5737,-0.010,-0.285
5738,0.000,-0.280
5739,-0.005,-0.275
5740,-0.010,-0.270
5741,-0.005,-0.260
5742,-0.010,-0.270
5743,0.000,-0.250
5744,0.000,-0.235
5745,0.000,-0.240
5746,-0.005,-0.235
5747,-0.010,-0.225
5748,-0.005,-0.220
5749,0.000,-0.205
5750,0.005,-0.195
5751,0.010,-0.170
5752,0.010,-0.165
5753,0.015,-0.155
5754,0.000,-0.160
5755,0.015,-0.145
5756,0.010,-0.145
5757,0.025,-0.140
5758,0.020,-0.140
5759,0.010,-0.110
5760,0.020,-0.125
5761,0.010,-0.120
5762,0.015,-0.095
5763,0.020,-0.105
5764,0.015,-0.090
5765,0.010,-0.075
5766,0.010,-0.065
5767,0.000,-0.050
5768,0.000,-0.040
5769,0.000,-0.040
5770,0.000,-0.045
5771,0.005,-0.025
5772,0.000,-0.020
5773,0.000,-0.030
5774,0.000,-0.005
5775,0.000,-0.005
5776,0.000,0.000
5777,-0.005,-0.005
5778,-0.005,0.015
5779,0.000,0.010
5780,0.010,0.025
5781,0.010,0.020
5782,0.030,0.035
5783,0.040,0.050
5784,0.050,0.065
5785,0.030,0.080
5786,0.040,0.095
5787,0.050,0.095
5788,0.035,0.075
5789,0.025,0.085
5790,0.035,0.070
5791,0.035,0.070
5792,0.040,0.090
5793,0.045,0.090
5794,0.035,0.095
5795,0.030,0.120
5796,0.035,0.130
5797,0.015,0.145
5798,0.010,0.155
5799,0.005,0.160
5800,0.015,0.150
5801,0.030,0.165
5802,0.035,0.165
5803,0.045,0.175
5804,0.050,0.185
5805,0.035,0.195
5806,0.070,0.225
5807,0.260,0.250
5808,0.615,0.235
5809,0.930,0.160
5810,0.840,-0.015
5811,0.180,-0.175
5812,-0.235,-0.230
5813,-0.255,-0.150
5814,-0.120,0.015
5815,0.000,0.170
5816,0.000,0.280
5817,-0.010,0.315
5818,-0.005,0.350
5819,-0.010,0.345
5820,-0.015,0.345
5821,-0.005,0.355
5822,-0.005,0.375
5823,0.015,0.365
5824,0.005,0.360
5825,0.010,0.365
5826,0.005,0.375
5827,0.005,0.375
5828,0.000,0.400
5829,0.000,0.410
5830,0.005,0.410
5831,0.010,0.435
5832,0.000,0.440
5833,-0.005,0.455
5834,0.000,0.455
5835,0.000,0.470
5836,0.000,0.480
5837,-0.005,0.495
5838,0.000,0.515
5839,0.005,0.535
5840,0.020,0.540
5841,0.020,0.535
5842,0.020,0.550
5843,0.025,0.550
5844,0.055,0.560
5845,0.075,0.545
5846,0.095,0.555
5847,0.110,0.555
5848,0.120,0.555
5849,0.135,0.550
5850,0.145,0.550
5851,0.145,0.550
5852,0.155,0.555
5853,0.150,0.545
5854,0.125,0.555
5855,0.130,0.555
5856,0.120,0.560
5857,0.120,0.565
5858,0.115,0.570
5859,0.120,0.565
5860,0.125,0.565
5861,0.125,0.570
5862,0.120,0.575
5863,0.130,0.590
5864,0.125,0.590
5865,0.145,0.585
5866,0.135,0.595
5867,0.145,0.590
5868,0.155,0.600
5869,0.170,0.595
5870,0.165,0.605
5871,0.165,0.615
5872,0.170,0.615
5873,0.175,0.615
5874,0.180,0.615
5875,0.170,0.640
5876,0.170,0.635
5877,0.170,0.630
5878,0.170,0.645
5879,0.180,0.650
5880,0.170,0.655
5881,0.165,0.650
5882,0.175,0.660
5883,0.165,0.660
5884,0.165,0.665
5885,0.165,0.675
5886,0.175,0.675
5887,0.175,0.680
5888,0.185,0.690
5889,0.175,0.695
5890,0.170,0.695
5891,0.170,0.705
5892,0.175,0.715
5893,0.175,0.715
5894,0.190,0.730
5895,0.155,0.720
5896,0.170,0.725
5897,0.175,0.735
5898,0.170,0.740
5899,0.180,0.745
5900,0.180,0.755
5901,0.180,0.755
5902,0.175,0.755
5903,0.180,0.765
5904,0.210,0.765
5905,0.205,0.780
5906,0.220,0.810
5907,0.225,0.825
5908,0.230,0.820
5909,0.235,0.810
5910,0.205,0.825
5911,0.210,0.795
5912,0.225,0.800
5913,0.225,0.790
5914,0.220,0.805
5915,0.220,0.810
5916,0.245,0.805
5917,0.235,0.830
5918,0.220,0.850
5919,0.190,0.865
5920,0.210,0.870
5921,0.210,0.865
5922,0.210,0.865
5923,0.215,0.870
5924,0.220,0.880
5925,0.230,0.875
5926,0.230,0.885
5927,0.215,0.895
5928,0.260,0.900
5929,0.440,0.945
5930,0.755,0.920
5931,1.040,0.845
5932,0.920,0.630
5933,0.290,0.445
5934,-0.055,0.370
5935,-0.040,0.475
5936,0.100,0.675
5937,0.195,0.830
5938,0.205,0.920
5939,0.210,0.965
5940,0.210,0.970
5941,0.215,0.970
5942,0.215,0.985
5943,0.215,0.975
5944,0.215,0.985
5945,0.215,0.980
5946,0.210,1.000
5947,0.225,1.000
5948,0.225,1.005
5949,0.235,1.020
5950,0.215,1.005
5951,0.245,1.015
5952,0.240,1.020
5953,0.240,1.025
5954,0.250,1.035
5955,0.250,1.040
5956,0.250,1.060
5957,0.245,1.055
5958,0.250,1.070
5959,0.245,1.075
5960,0.235,1.080
5961,0.245,1.075
5962,0.255,1.085
5963,0.260,1.080
5964,0.260,1.095
5965,0.285,1.090
5966,0.300,1.085
5967,0.300,1.085
5968,0.315,1.065
5969,0.320,1.075
5970,0.355,1.070
5971,0.380,1.065
5972,0.390,1.060
5973,0.390,1.055
5974,0.395,1.050
5975,0.390,1.060
5976,0.375,1.050
5977,0.380,1.065
5978,0.375,1.040
5979,0.355,1.045
5980,0.355,1.045
5981,0.345,1.045
5982,0.350,1.040
5983,0.345,1.030
5984,0.355,1.045
5985,0.345,1.040
5986,0.345,1.025
5987,0.340,1.035
5988,0.355,1.035
5989,0.355,1.050
5990,0.370,1.055
5991,0.375,1.050
5992,0.380,1.060
5993,0.380,1.050
5994,0.385,1.050
5995,0.400,1.055
5996,0.395,1.075
5997,0.400,1.065
5998,0.390,1.060
5999,0.405,1.060
6000,0.385,1.060
6001,0.390,1.055
6002,0.390,1.065
6003,0.385,1.065
6004,0.385,1.050
6005,0.390,1.060
6006,0.385,1.055
6007,0.380,1.050
6008,0.385,1.045
6009,0.370,1.055
6010,0.360,1.065
6011,0.370,1.060
6012,0.380,1.055
6013,0.375,1.060
6014,0.375,1.065
6015,0.380,1.045
6016,0.380,1.045
6017,0.380,1.060
6018,0.365,1.045
6019,0.370,1.045
6020,0.375,1.055
6021,0.370,1.060
6022,0.360,1.050
6023,0.345,1.050
6024,0.350,1.060
6025,0.360,1.040
6026,0.370,1.050
6027,0.385,1.055
6028,0.390,1.050
6029,0.385,1.070
6030,0.385,1.065
6031,0.380,1.065
6032,0.390,1.060
6033,0.380,1.040
6034,0.390,1.025
6035,0.385,1.020
6036,0.385,1.010
6037,0.380,1.010
6038,0.385,1.015
6039,0.375,1.005
6040,0.380,1.035
6041,0.365,1.035
6042,0.350,1.045
6043,0.345,1.045
6044,0.335,1.035
6045,0.330,1.035
6046,0.335,1.025
6047,0.350,1.035
6048,0.350,1.030
6049,0.355,1.025
6050,0.335,1.035
6051,0.355,1.050
6052,0.525,1.070
6053,0.865,1.035
6054,1.170,0.970
6055,1.105,0.750
6056,0.475,0.555
6057,0.015,0.470
6058,0.000,0.540
6059,0.165,0.725
6060,0.285,0.890
6061,0.295,1.005
6062,0.300,1.025
6063,0.285,1.040
6064,0.290,1.050
6065,0.285,1.050
6066,0.290,1.045
6067,0.295,1.035
6068,0.290,1.035
6069,0.285,1.030
6070,0.275,1.030
6071,0.280,1.030
6072,0.280,1.030
6073,0.280,1.035
6074,0.300,1.035
6075,0.300,1.040
6076,0.290,1.055
6077,0.275,1.050
6078,0.290,1.045
6079,0.275,1.040
6080,0.305,1.060
6081,0.275,1.065
6082,0.270,1.055
6083,0.280,1.070
6084,0.265,1.065
6085,0.275,1.070
6086,0.285,1.065
6087,0.290,1.065
6088,0.295,1.060
6089,0.305,1.035
6090,0.305,1.040
6091,0.325,1.040
6092,0.340,1.030
6093,0.360,1.015
6094,0.390,1.020
6095,0.380,1.010
6096,0.390,1.010
6097,0.395,0.995
6098,0.390,0.975
6099,0.385,0.975
6100,0.380,0.970
6101,0.375,0.950
6102,0.365,0.950
6103,0.370,0.940
6104,0.355,0.945
6105,0.335,0.945
6106,0.355,0.940
6107,0.350,0.940
6108,0.350,0.930
6109,0.345,0.925
6110,0.355,0.925
6111,0.350,0.930
6112,0.350,0.925
6113,0.345,0.925
6114,0.360,0.925
6115,0.360,0.920
6116,0.360,0.910
6117,0.370,0.930
6118,0.380,0.920
6119,0.380,0.915
6120,0.385,0.915
6121,0.375,0.920
6122,0.380,0.920
6123,0.380,0.915
6124,0.375,0.905
6125,0.370,0.905
6126,0.375,0.910
6127,0.370,0.905
6128,0.355,0.900
6129,0.350,0.890
6130,0.345,0.880
6131,0.355,0.880
6132,0.345,0.875
6133,0.335,0.875
6134,0.335,0.870
6135,0.340,0.870
6136,0.350,0.855
6137,0.335,0.860
6138,0.335,0.860
6139,0.330,0.860
6140,0.330,0.860
6141,0.330,0.840
6142,0.325,0.840
6143,0.330,0.840
6144,0.330,0.830
6145,0.315,0.820
6146,0.325,0.830
6147,0.300,0.830
6148,0.320,0.835
6149,0.315,0.825
6150,0.330,0.820
6151,0.350,0.820
6152,0.340,0.825
6153,0.340,0.830
6154,0.360,0.820
6155,0.360,0.830
6156,0.345,0.805
6157,0.340,0.790
6158,0.345,0.780
6159,0.345,0.770
6160,0.340,0.760
6161,0.340,0.755
6162,0.345,0.760
6163,0.345,0.750
6164,0.320,0.775
6165,0.295,0.770
6166,0.290,0.770
6167,0.290,0.765
6168,0.295,0.765
6169,0.290,0.755
6170,0.295,0.755
6171,0.305,0.760
6172,0.295,0.760
6173,0.280,0.750
6174,0.295,0.750
6175,0.420,0.770
6176,0.710,0.765
6177,1.005,0.710
6178,1.060,0.520
6179,0.545,0.305
6180,0.010,0.170
6181,-0.040,0.210
6182,0.075,0.390
6183,0.225,0.565
6184,0.235,0.700
6185,0.230,0.730
6186,0.220,0.730
6187,0.225,0.750
6188,0.240,0.725
6189,0.235,0.735
6190,0.225,0.720
6191,0.240,0.735
6192,0.215,0.720
6193,0.220,0.725
6194,0.215,0.715
6195,0.225,0.715
6196,0.225,0.725
6197,0.235,0.720
6198,0.235,0.715
6199,0.225,0.720
6200,0.230,0.730
6201,0.225,0.735
6202,0.225,0.740
6203,0.220,0.735
6204,0.225,0.735
6205,0.225,0.740
6206,0.230,0.755
6207,0.235,0.740
6208,0.240,0.745
6209,0.230,0.740
6210,0.245,0.735
6211,0.260,0.740
6212,0.265,0.745
6213,0.255,0.725
6214,0.270,0.730
6215,0.290,0.700
6216,0.310,0.705
6217,0.315,0.700
6218,0.325,0.685
6219,0.325,0.685
6220,0.320,0.660
6221,0.315,0.665
6222,0.300,0.655
6223,0.305,0.645
6224,0.280,0.630
6225,0.280,0.630
6226,0.270,0.615
6227,0.260,0.630
6228,0.265,0.610
6229,0.265,0.595
6230,0.265,0.595
6231,0.260,0.600
6232,0.260,0.595
6233,0.255,0.600
6234,0.260,0.585
6235,0.275,0.580
6236,0.275,0.575
6237,0.270,0.585
6238,0.280,0.575
6239,0.290,0.575
6240,0.280,0.575
6241,0.285,0.565
6242,0.285,0.570
6243,0.290,0.565
6244,0.290,0.560
6245,0.285,0.555
6246,0.280,0.545
6247,0.275,0.550
6248,0.280,0.545
6249,0.275,0.555
6250,0.265,0.540
6251,0.275,0.535
6252,0.270,0.520
6253,0.260,0.535
6254,0.260,0.530
6255,0.255,0.515
6256,0.260,0.520
6257,0.265,0.525
6258,0.250,0.510
6259,0.260,0.510
6260,0.250,0.490
6261,0.245,0.500
6262,0.250,0.495
6263,0.240,0.485
6264,0.240,0.480
6265,0.230,0.480
6266,0.230,0.480
6267,0.220,0.475
6268,0.210,0.470
6269,0.210,0.470
6270,0.220,0.455
6271,0.225,0.450
6272,0.230,0.450
6273,0.240,0.460
6274,0.235,0.460
6275,0.250,0.480
6276,0.250,0.465
6277,0.255,0.475
6278,0.240,0.445
6279,0.235,0.430
6280,0.240,0.415
6281,0.250,0.405
6282,0.245,0.400
6283,0.245,0.380
6284,0.240,0.390
6285,0.240,0.405
6286,0.220,0.410
6287,0.205,0.420
6288,0.200,0.415
6289,0.200,0.410
6290,0.195,0.415
6291,0.205,0.390
6292,0.195,0.395
6293,0.195,0.395
6294,0.195,0.400
6295,0.195,0.390
6296,0.190,0.400
6297,0.300,0.415
6298,0.580,0.405
6299,0.865,0.345
6300,0.900,0.200
6301,0.345,0.040
6302,-0.145,-0.090
6303,-0.160,-0.035
6304,-0.005,0.125
6305,0.130,0.260
6306,0.145,0.355
6307,0.140,0.375
6308,0.125,0.385
6309,0.135,0.370
6310,0.130,0.360
6311,0.130,0.355
6312,0.120,0.335
6313,0.135,0.350
6314,0.130,0.345
6315,0.120,0.350
6316,0.110,0.350
6317,0.120,0.340
6318,0.110,0.340
6319,0.120,0.335
6320,0.120,0.330
6321,0.105,0.330
6322,0.105,0.335
6323,0.105,0.325
6324,0.105,0.325
6325,0.105,0.320
6326,0.100,0.330
6327,0.105,0.335
6328,0.100,0.335
6329,0.085,0.330
6330,0.090,0.310
6331,0.100,0.320
6332,0.105,0.305
6333,0.105,0.310
6334,0.115,0.290
6335,0.125,0.280
6336,0.135,0.290
6337,0.140,0.265
6338,0.160,0.265
6339,0.165,0.235
6340,0.190,0.235
6341,0.185,0.220
6342,0.175,0.210
6343,0.170,0.190
6344,0.165,0.195
6345,0.155,0.175
6346,0.140,0.165
6347,0.135,0.150
6348,0.120,0.135
6349,0.115,0.135
6350,0.105,0.120
6351,0.105,0.105
6352,0.095,0.100
6353,0.095,0.100
6354,0.100,0.070
6355,0.090,0.065
6356,0.085,0.065
6357,0.085,0.060
6358,0.090,0.060
6359,0.105,0.045
6360,0.115,0.050
6361,0.115,0.030
6362,0.110,0.010
6363,0.120,0.015
6364,0.115,0.000
6365,0.120,0.000
6366,0.120,0.000
6367,0.115,-0.015
6368,0.105,-0.020
6369,0.095,-0.030
6370,0.085,-0.040
6371,0.095,-0.045
6372,0.080,-0.070
6373,0.070,-0.080
6374,0.070,-0.080
6375,0.065,-0.095
6376,0.050,-0.110
6377,0.060,-0.120
6378,0.050,-0.125
6379,0.030,-0.125
6380,0.035,-0.140
6381,0.035,-0.160
6382,0.035,-0.175
6383,0.025,-0.190
6384,0.010,-0.190
6385,0.000,-0.210
6386,0.000,-0.225
6387,-0.005,-0.240
6388,-0.015,-0.245
6389,-0.020,-0.275
6390,-0.030,-0.280
6391,-0.045,-0.290
6392,-0.045,-0.310
6393,-0.045,-0.320
6394,-0.050,-0.335
6395,-0.055,-0.345
6396,-0.040,-0.365
6397,-0.040,-0.370
6398,-0.060,-0.360
6399,-0.055,-0.380
6400,-0.040,-0.395
6401,-0.065,-0.440
6402,-0.080,-0.455
6403,-0.070,-0.480
6404,-0.085,-0.505
6405,-0.085,-0.520
6406,-0.095,-0.525
6407,-0.095,-0.550
6408,-0.105,-0.560
6409,-0.110,-0.555
6410,-0.140,-0.540
6411,-0.155,-0.550
6412,-0.165,-0.575
6413,-0.170,-0.580
6414,-0.170,-0.595
6415,-0.185,-0.600
6416,-0.180,-0.615
6417,-0.190,-0.625
6418,-0.200,-0.630
6419,-0.205,-0.655
6420,-0.130,-0.645
6421,0.095,-0.635
6422,0.460,-0.695
6423,0.650,-0.840
6424,0.265,-1.055
6425,-0.385,-1.225
6426,-0.565,-1.250
6427,-0.500,-1.115
6428,-0.350,-0.970
6429,-0.315,-0.825
6430,-0.315,-0.775
6431,-0.335,-0.760
6432,-0.345,-0.755
6433,-0.355,-0.770
6434,-0.370,-0.790
6435,-0.360,-0.785
6436,-0.375,-0.810
6437,-0.390,-0.810
6438,-0.405,-0.805
6439,-0.410,-0.815
6440,-0.410,-0.825
6441,-0.425,-0.845
6442,-0.440,-0.830
6443,-0.445,-0.830
6444,-0.425,-0.840
6445,-0.425,-0.860
6446,-0.450,-0.835
6447,-0.455,-0.830
6448,-0.455,-0.830
6449,-0.455,-0.840
6450,-0.465,-0.845
6451,-0.475,-0.850
6452,-0.470,-0.850
6453,-0.480,-0.835
6454,-0.485,-0.845
6455,-0.480,-0.865
6456,-0.480,-0.865
6457,-0.475,-0.875
6458,-0.470,-0.880
6459,-0.465,-0.895
6460,-0.445,-0.905
6461,-0.440,-0.910
6462,-0.440,-0.920
6463,-0.440,-0.925
6464,-0.425,-0.930
6465,-0.425,-0.950
6466,-0.420,-0.970
6467,-0.430,-0.980
6468,-0.440,-0.975
6469,-0.455,-0.990
6470,-0.475,-0.990
6471,-0.475,-1.005
6472,-0.480,-1.010
6473,-0.490,-1.035
6474,-0.495,-1.030
6475,-0.495,-1.035
6476,-0.510,-1.025
6477,-0.520,-1.025
6478,-0.520,-1.045
6479,-0.525,-1.060
6480,-0.525,-1.060
6481,-0.510,-1.055
6482,-0.510,-1.055
6483,-0.525,-1.065
6484,-0.520,-1.065
6485,-0.530,-1.055
6486,-0.525,-1.065
6487,-0.510,-1.055
6488,-0.500,-1.065
6489,-0.505,-1.060
6490,-0.500,-1.060
6491,-0.520,-1.070
6492,-0.515,-1.060
6493,-0.520,-1.070
6494,-0.525,-1.060
6495,-0.520,-1.065
6496,-0.520,-1.075
6497,-0.550,-1.065
6498,-0.550,-1.065
6499,-0.555,-1.070
6500,-0.560,-1.070
6501,-0.570,-1.065
6502,-0.585,-1.075
6503,-0.580,-1.075
6504,-0.580,-1.075
6505,-0.585,-1.080
6506,-0.585,-1.075
6507,-0.595,-1.085
6508,-0.580,-1.080
6509,-0.580,-1.085
6510,-0.595,-1.090
6511,-0.600,-1.090
6512,-0.600,-1.075
6513,-0.605,-1.090
6514,-0.610,-1.080
6515,-0.605,-1.075
6516,-0.605,-1.085
6517,-0.615,-1.070
6518,-0.595,-1.085
6519,-0.595,-1.070
6520,-0.610,-1.065
6521,-0.605,-1.060
6522,-0.595,-1.060
6523,-0.620,-1.060
6524,-0.615,-1.080
6525,-0.615,-1.090
6526,-0.620,-1.105
6527,-0.635,-1.105
6528,-0.630,-1.115
6529,-0.620,-1.110
6530,-0.620,-1.120
6531,-0.620,-1.110
6532,-0.625,-1.085
6533,-0.645,-1.090
6534,-0.640,-1.075
6535,-0.650,-1.075
6536,-0.655,-1.070
6537,-0.645,-1.085
6538,-0.660,-1.060
6539,-0.655,-1.070
6540,-0.640,-1.050
6541,-0.660,-1.060
6542,-0.645,-1.045
6543,-0.525,-1.010
6544,-0.230,-1.025
6545,0.070,-1.080
6546,0.090,-1.220
6547,-0.490,-1.385
6548,-0.940,-1.495
6549,-0.945,-1.445
6550,-0.825,-1.280
6551,-0.720,-1.135
6552,-0.715,-1.050
6553,-0.700,-1.005
6554,-0.685,-1.000
6555,-0.695,-0.990
6556,-0.695,-0.985
6557,-0.705,-0.985
6558,-0.705,-0.975
6559,-0.705,-0.970
6560,-0.700,-0.965
6561,-0.700,-0.960
6562,-0.710,-0.960
6563,-0.720,-0.950
6564,-0.725,-0.955
6565,-0.725,-0.945
6566,-0.720,-0.935
6567,-0.725,-0.925
6568,-0.715,-0.910
6569,-0.720,-0.920
6570,-0.730,-0.905
6571,-0.710,-0.900
6572,-0.705,-0.880
6573,-0.695,-0.885
6574,-0.690,-0.875
6575,-0.700,-0.855
6576,-0.685,-0.855
6577,-0.685,-0.850
6578,-0.675,-0.845
6579,-0.660,-0.845
6580,-0.660,-0.845
6581,-0.655,-0.825
6582,-0.640,-0.835
6583,-0.630,-0.830
6584,-0.620,-0.825
6585,-0.615,-0.830
6586,-0.585,-0.815
6587,-0.575,-0.825
6588,-0.575,-0.815
6589,-0.580,-0.825
6590,-0.585,-0.820
6591,-0.595,-0.820
6592,-0.600,-0.805
6593,-0.600,-0.805
6594,-0.585,-0.805
6595,-0.600,-0.805
6596,-0.600,-0.795
6597,-0.590,-0.805
6598,-0.600,-0.795
6599,-0.590,-0.780
6600,-0.590,-0.775
6601,-0.590,-0.775
6602,-0.590,-0.770
6603,-0.600,-0.760
6604,-0.605,-0.760
6605,-0.585,-0.750
6606,-0.580,-0.745
6607,-0.580,-0.735
6608,-0.580,-0.735
6609,-0.570,-0.740
6610,-0.560,-0.735
6611,-0.565,-0.715
6612,-0.560,-0.700
6613,-0.555,-0.705
6614,-0.560,-0.690
6615,-0.545,-0.675
6616,-0.550,-0.685
6617,-0.550,-0.685
6618,-0.540,-0.680
6619,-0.555,-0.670
6620,-0.555,-0.670
6621,-0.550,-0.665
6622,-0.555,-0.655
6623,-0.565,-0.645
6624,-0.560,-0.655
6625,-0.555,-0.630
6626,-0.570,-0.640
6627,-0.565,-0.625
6628,-0.565,-0.625
6629,-0.565,-0.635
6630,-0.565,-0.625
6631,-0.560,-0.625
6632,-0.570,-0.595
6633,-0.560,-0.605
6634,-0.575,-0.600
6635,-0.560,-0.590
6636,-0.560,-0.595
6637,-0.545,-0.585
6638,-0.545,-0.590
6639,-0.540,-0.580
6640,-0.550,-0.565
6641,-0.530,-0.565
6642,-0.515,-0.555
6643,-0.520,-0.535
6644,-0.520,-0.520
6645,-0.520,-0.525
6646,-0.530,-0.530
6647,-0.535,-0.530
6648,-0.520,-0.550
6649,-0.530,-0.545
6650,-0.520,-0.550
6651,-0.525,-0.540
6652,-0.520,-0.540
6653,-0.525,-0.530
6654,-0.515,-0.520
6655,-0.525,-0.500
6656,-0.540,-0.485
6657,-0.535,-0.465
6658,-0.525,-0.480
6659,-0.520,-0.480
6660,-0.520,-0.470
6661,-0.515,-0.460
6662,-0.525,-0.470
6663,-0.515,-0.455
6664,-0.515,-0.440
6665,-0.520,-0.425
6666,-0.375,-0.400
6667,-0.065,-0.390
6668,0.280,-0.455
6669,0.370,-0.620
6670,-0.165,-0.795
6671,-0.740,-0.905
6672,-0.825,-0.870
6673,-0.700,-0.715
6674,-0.575,-0.545
6675,-0.540,-0.410
6676,-0.555,-0.345
6677,-0.550,-0.330
6678,-0.550,-0.320
6679,-0.550,-0.330
6680,-0.550,-0.315
6681,-0.540,-0.310
6682,-0.540,-0.300
6683,-0.545,-0.295
6684,-0.540,-0.290
6685,-0.555,-0.285
6686,-0.545,-0.275
6687,-0.555,-0.265
6688,-0.550,-0.260
6689,-0.555,-0.240
6690,-0.550,-0.220
6691,-0.540,-0.220
6692,-0.545,-0.205
6693,-0.535,-0.190
6694,-0.545,-0.175
6695,-0.530,-0.170
6696,-0.520,-0.150
6697,-0.520,-0.115
6698,-0.515,-0.130
6699,-0.510,-0.115
6700,-0.490,-0.105
6701,-0.480,-0.100
6702,-0.460,-0.100
6703,-0.445,-0.080
6704,-0.440,-0.090
6705,-0.420,-0.075
6706,-0.415,-0.075
