'sample interval','ECG0','ECG1'
'0.0078125 sec','mV','mV'
0,-1.310,-1.025
1,-1.355,-1.050
2,-1.410,-1.070
3,-1.475,-1.090
4,-1.510,-1.115
5,-1.520,-1.115
6,-1.565,-1.155
7,-1.585,-1.185
8,-1.670,-1.225
9,-1.670,-1.230
10,-1.690,-1.255
11,-1.680,-1.290
12,-1.620,-1.320
13,-1.535,-1.315
14,-1.475,-1.320
15,-1.430,-1.295
16,-1.355,-1.280
17,-1.290,-1.245
18,-1.190,-1.185
19,-1.110,-1.165
20,-1.030,-1.110
21,-0.975,-1.090
22,-0.985,-1.010
23,-0.970,-1.005
24,-0.930,-0.995
25,-0.905,-0.975
26,-0.885,-0.985
27,-0.870,-0.960
28,-0.890,-0.980
29,-0.935,-0.995
30,-0.935,-0.970
31,-0.925,-0.965
32,-0.900,-0.995
33,-0.915,-1.015
34,-0.920,-1.010
35,-0.945,-1.020
36,-0.975,-1.040
37,-0.950,-1.045
38,-0.960,-1.030
39,-0.930,-1.045
40,-0.950,-1.050
41,-0.940,-1.080
42,-0.965,-1.060
43,-0.980,-1.105
44,-0.975,-1.080
45,-0.950,-1.065
46,-0.945,-1.065
47,-0.955,-1.085
48,-0.975,-1.100
49,-0.960,-1.080
50,-0.985,-1.090
51,-0.990,-1.095
52,-0.955,-1.075
53,-0.940,-1.105
54,-0.945,-1.110
55,-0.990,-1.115
56,-1.000,-1.125
57,-1.000,-1.125
58,-0.985,-1.140
59,-0.985,-1.140
60,-0.975,-1.100
61,-0.970,-1.120
62,-0.980,-1.100
63,-0.945,-1.125
64,-0.915,-1.100
65,-0.830,-1.095
66,-0.815,-1.060
67,-0.840,-1.025
68,-0.845,-1.035
69,-0.870,-1.085
70,-0.885,-1.155
71,-0.910,-1.225
72,-0.910,-1.225
73,-0.935,-1.165
74,-0.980,-1.165
75,-1.025,-1.145
76,-1.030,-1.165
77,-1.000,-1.165
78,-0.935,-1.135
79,-0.720,-1.040
80,-0.240,-1.000
81,0.125,-1.175
82,-0.040,-1.550
83,-1.475,-2.165
84,-2.465,-2.720
85,-2.360,-3.095
86,-1.965,-2.880
87,-1.445,-2.240
88,-1.160,-1.730
89,-1.090,-1.355
90,-1.105,-1.190
91,-1.075,-1.130
92,-1.065,-1.100
93,-1.065,-1.105
94,-1.070,-1.095
95,-1.095,-1.095
96,-1.115,-1.060
97,-1.100,-1.085
98,-1.115,-1.080
99,-1.085,-1.070
100,-1.085,-1.075
101,-1.130,-1.080
102,-1.140,-1.080
103,-1.145,-1.070
104,-1.185,-1.080
105,-1.190,-1.085
106,-1.230,-1.090
107,-1.255,-1.095
108,-1.320,-1.105
109,-1.360,-1.120
110,-1.385,-1.150
111,-1.455,-1.180
112,-1.475,-1.170
113,-1.495,-1.195
114,-1.515,-1.205
115,-1.580,-1.235
116,-1.655,-1.265
117,-1.695,-1.280
118,-1.710,-1.295
119,-1.700,-1.325
120,-1.700,-1.355
121,-1.690,-1.365
122,-1.695,-1.380
123,-1.585,-1.360
124,-1.525,-1.360
125,-1.420,-1.365
126,-1.315,-1.315
127,-1.225,-1.265
128,-1.160,-1.265
129,-1.120,-1.205
130,-1.025,-1.145
131,-0.975,-1.085
132,-0.925,-1.030
133,-0.860,-1.010
134,-0.860,-0.980
135,-0.890,-0.930
136,-0.890,-0.935
137,-0.880,-0.940
138,-0.875,-0.920
139,-0.845,-0.940
140,-0.835,-0.950
141,-0.840,-0.950
142,-0.890,-0.960
143,-0.890,-0.950
144,-0.885,-0.935
145,-0.870,-0.975
146,-0.860,-0.980
147,-0.875,-0.965
148,-0.840,-0.960
149,-0.850,-0.975
150,-0.895,-0.965
151,-0.875,-0.990
152,-0.855,-0.975
153,-0.835,-0.975
154,-0.840,-0.980
155,-0.865,-0.980
156,-0.870,-0.980
157,-0.850,-0.970
158,-0.845,-0.985
159,-0.825,-0.980
160,-0.810,-0.980
161,-0.815,-0.990
162,-0.845,-0.940
163,-0.860,-0.965
164,-0.840,-0.955
165,-0.830,-0.965
166,-0.810,-0.935
167,-0.815,-0.965
168,-0.815,-0.970
169,-0.820,-0.945
170,-0.830,-0.955
171,-0.820,-0.935
172,-0.775,-0.930
173,-0.755,-0.920
174,-0.685,-0.890
175,-0.670,-0.845
176,-0.655,-0.795
177,-0.635,-0.800
178,-0.695,-0.855
179,-0.665,-0.910
180,-0.690,-1.005
181,-0.730,-1.020
182,-0.785,-1.025
183,-0.830,-0.970
184,-0.865,-0.955
185,-0.840,-0.970
186,-0.810,-0.990
187,-0.765,-0.970
188,-0.690,-0.870
189,-0.365,-0.815
190,0.140,-0.860
191,0.305,-1.155
192,-0.480,-1.720
193,-1.930,-2.400
194,-2.250,-2.825
195,-1.975,-2.945
196,-1.450,-2.430
197,-1.030,-1.800
198,-0.910,-1.315
199,-0.875,-1.070
200,-0.860,-0.990
201,-0.860,-0.940
202,-0.860,-0.905
203,-0.875,-0.925
204,-0.865,-0.900
205,-0.850,-0.880
206,-0.835,-0.880
207,-0.845,-0.880
208,-0.845,-0.865
209,-0.880,-0.860
210,-0.900,-0.840
211,-0.930,-0.850
212,-0.900,-0.855
213,-0.895,-0.805
214,-0.935,-0.835
215,-0.945,-0.860
216,-0.990,-0.850
217,-1.040,-0.870
218,-1.075,-0.855
219,-1.085,-0.880
220,-1.130,-0.900
221,-1.185,-0.915
222,-1.245,-0.920
223,-1.295,-0.945
224,-1.335,-0.980
225,-1.370,-0.960
226,-1.375,-0.975
227,-1.400,-1.040
228,-1.440,-1.030
229,-1.470,-1.085
230,-1.470,-1.105
231,-1.435,-1.105
232,-1.400,-1.110
233,-1.270,-1.105
234,-1.195,-1.100
235,-1.105,-1.095
236,-1.030,-1.065
237,-0.950,-1.020
238,-0.850,-0.975
239,-0.770,-0.930
240,-0.675,-0.880
241,-0.625,-0.830
242,-0.625,-0.780
243,-0.630,-0.735
244,-0.600,-0.705
245,-0.560,-0.665
246,-0.520,-0.635
247,-0.500,-0.645
248,-0.515,-0.640
249,-0.520,-0.620
250,-0.545,-0.615
251,-0.530,-0.615
252,-0.510,-0.640
253,-0.505,-0.625
254,-0.475,-0.630
255,-0.470,-0.635
256,-0.465,-0.610
257,-0.470,-0.605
258,-0.440,-0.605
259,-0.450,-0.620
260,-0.405,-0.605
261,-0.395,-0.625
262,-0.365,-0.610
263,-0.380,-0.590
264,-0.365,-0.585
265,-0.355,-0.580
266,-0.320,-0.545
267,-0.255,-0.560
268,-0.250,-0.555
269,-0.275,-0.535
270,-0.255,-0.515
271,-0.235,-0.510
272,-0.210,-0.500
273,-0.165,-0.490
274,-0.140,-0.485
275,-0.130,-0.455
276,-0.140,-0.430
277,-0.110,-0.435
278,-0.080,-0.435
279,-0.075,-0.395
280,-0.015,-0.355
281,0.035,-0.320
282,0.085,-0.280
283,0.120,-0.280
284,0.185,-0.235
285,0.245,-0.130
286,0.300,-0.080
287,0.370,-0.070
288,0.355,-0.085
289,0.365,-0.110
290,0.335,-0.160
291,0.350,-0.195
292,0.330,-0.105
293,0.345,-0.030
294,0.345,-0.015
295,0.365,0.025
296,0.395,0.045
297,0.470,0.090
298,0.615,0.205
299,0.990,0.290
300,1.510,0.295
301,1.720,0.015
302,0.870,-0.495
303,-0.475,-1.050
304,-0.645,-1.460
305,-0.300,-1.505
306,0.275,-1.000
307,0.590,-0.370
308,0.740,0.150
309,0.795,0.420
310,0.815,0.535
311,0.855,0.590
312,0.885,0.635
313,0.925,0.675
314,0.955,0.730
315,0.985,0.785
316,1.005,0.830
317,1.020,0.855
318,1.040,0.895
319,1.075,0.905
320,1.105,0.950
321,1.155,0.995
322,1.195,1.020
323,1.160,1.045
324,1.170,1.095
325,1.165,1.105
326,1.195,1.125
327,1.205,1.185
328,1.195,1.210
329,1.180,1.205
330,1.135,1.230
331,1.140,1.245
332,1.165,1.285
333,1.165,1.270
334,1.155,1.285
335,1.120,1.285
336,1.100,1.320
337,1.065,1.295
338,1.100,1.335
339,1.130,1.360
340,1.200,1.370
341,1.255,1.390
342,1.335,1.385
343,1.400,1.400
344,1.480,1.440
345,1.585,1.500
346,1.715,1.535
347,1.845,1.620
348,1.930,1.720
349,2.015,1.780
350,2.030,1.815
351,2.095,1.910
352,2.170,1.990
353,2.215,2.050
354,2.250,2.125
355,2.270,2.145
356,2.285,2.160
357,2.290,2.190
358,2.325,2.200
359,2.355,2.225
360,2.400,2.245
361,2.415,2.290
362,2.395,2.300
363,2.370,2.305
364,2.415,2.320
365,2.440,2.335
366,2.475,2.355
367,2.500,2.370
368,2.510,2.390
369,2.520,2.400
370,2.525,2.390
371,2.535,2.410
372,2.580,2.450
373,2.620,2.455
374,2.610,2.505
375,2.645,2.515
376,2.620,2.520
377,2.640,2.540
378,2.660,2.560
379,2.695,2.560
380,2.715,2.590
381,2.710,2.610
382,2.730,2.625
383,2.715,2.620
384,2.725,2.635
385,2.760,2.635
386,2.795,2.630
387,2.795,2.645
388,2.815,2.685
389,2.800,2.690
390,2.815,2.705
391,2.860,2.700
392,2.920,2.740
393,2.965,2.770
394,2.965,2.840
395,2.980,2.840
396,2.960,2.815
397,2.950,2.795
398,2.955,2.735
399,2.965,2.720
400,2.940,2.710
401,2.920,2.790
402,2.885,2.775
403,2.865,2.790
404,2.880,2.780
405,2.930,2.775
406,3.010,2.835
407,3.140,2.940
408,3.540,2.950
409,3.730,2.785
410,3.430,2.490
411,2.320,2.060
412,1.890,1.645
413,2.065,1.410
414,2.445,1.655
415,2.760,2.100
416,2.875,2.475
417,2.910,2.730
418,2.930,2.820
419,2.960,2.855
420,2.950,2.900
421,2.925,2.905
422,2.950,2.875
423,2.925,2.900
424,2.925,2.890
425,2.935,2.885
426,2.920,2.890
427,2.930,2.890
428,2.920,2.910
429,2.915,2.895
430,2.895,2.880
431,2.880,2.865
432,2.875,2.880
433,2.855,2.885
434,2.835,2.895
435,2.800,2.870
436,2.755,2.870
437,2.720,2.855
438,2.690,2.830
439,2.660,2.805
440,2.610,2.800
441,2.590,2.805
442,2.545,2.785
443,2.495,2.750
444,2.460,2.735
445,2.450,2.695
446,2.425,2.675
447,2.405,2.665
448,2.390,2.650
449,2.405,2.630
450,2.420,2.630
451,2.465,2.600
452,2.560,2.615
453,2.600,2.615
454,2.640,2.610
455,2.705,2.665
456,2.735,2.690
457,2.795,2.685
458,2.830,2.730
459,2.865,2.770
460,2.885,2.800
461,2.895,2.815
462,2.910,2.840
463,2.900,2.845
464,2.895,2.830
465,2.915,2.855
466,2.900,2.845
467,2.905,2.835
468,2.875,2.810
469,2.860,2.805
470,2.845,2.775
471,2.845,2.760
472,2.835,2.770
473,2.815,2.765
474,2.840,2.740
475,2.805,2.735
476,2.790,2.720
477,2.780,2.705
478,2.770,2.700
479,2.790,2.685
480,2.780,2.690
481,2.785,2.700
482,2.760,2.700
483,2.740,2.675
484,2.725,2.660
485,2.740,2.655
486,2.735,2.645
487,2.730,2.635
488,2.720,2.615
489,2.700,2.595
490,2.710,2.570
491,2.685,2.555
492,2.700,2.565
493,2.700,2.580
494,2.675,2.565
495,2.650,2.550
496,2.635,2.535
497,2.630,2.520
498,2.615,2.530
499,2.630,2.515
500,2.625,2.500
501,2.635,2.510
502,2.655,2.515
503,2.675,2.550
504,2.660,2.555
505,2.675,2.550
506,2.660,2.545
507,2.650,2.505
508,2.650,2.415
509,2.590,2.400
510,2.530,2.360
511,2.500,2.400
512,2.475,2.400
513,2.470,2.385
514,2.495,2.380
515,2.465,2.385
516,2.535,2.380
517,2.655,2.455
518,2.990,2.465
519,3.175,2.300
520,2.945,1.885
521,1.840,1.320
522,1.230,0.860
523,1.350,0.505
524,1.775,0.780
525,2.110,1.315
526,2.255,1.780
527,2.310,2.135
528,2.325,2.230
529,2.290,2.260
530,2.260,2.255
531,2.250,2.250
532,2.250,2.245
533,2.255,2.255
534,2.230,2.240
535,2.220,2.250
536,2.220,2.235
537,2.180,2.230
538,2.145,2.190
539,2.135,2.180
540,2.125,2.180
541,2.095,2.165
542,2.070,2.160
543,2.020,2.130
544,1.990,2.095
545,1.945,2.055
546,1.930,2.070
547,1.890,2.065
548,1.820,2.010
549,1.795,1.990
550,1.720,1.975
551,1.660,1.930
552,1.610,1.895
553,1.570,1.880
554,1.565,1.840
555,1.510,1.820
556,1.430,1.815
557,1.400,1.750
558,1.375,1.725
559,1.340,1.695
560,1.370,1.670
561,1.400,1.645
562,1.450,1.615
563,1.490,1.595
564,1.545,1.590
565,1.610,1.615
566,1.675,1.640
567,1.750,1.660
568,1.795,1.690
569,1.815,1.715
570,1.820,1.735
571,1.820,1.760
572,1.830,1.745
573,1.835,1.760
574,1.840,1.775
575,1.820,1.785
576,1.835,1.770
577,1.780,1.730
578,1.755,1.740
579,1.735,1.695
580,1.745,1.705
581,1.740,1.680
582,1.710,1.660
583,1.660,1.635
584,1.655,1.625
585,1.640,1.625
586,1.635,1.595
587,1.630,1.605
588,1.605,1.585
589,1.595,1.570
590,1.590,1.565
591,1.565,1.520
592,1.555,1.520
593,1.540,1.485
594,1.535,1.485
595,1.525,1.485
596,1.510,1.475
597,1.470,1.440
598,1.445,1.445
599,1.450,1.400
600,1.445,1.415
601,1.440,1.390
602,1.430,1.410
603,1.410,1.385
604,1.370,1.370
605,1.360,1.315
606,1.345,1.295
607,1.350,1.275
608,1.335,1.290
609,1.330,1.255
610,1.305,1.250
611,1.280,1.240
612,1.300,1.210
613,1.350,1.245
614,1.390,1.245
615,1.375,1.300
616,1.350,1.275
617,1.310,1.230
618,1.280,1.180
619,1.260,1.095
620,1.210,1.045
621,1.205,1.060
622,1.130,1.090
623,1.090,1.080
624,1.055,1.055
625,1.035,1.010
626,1.065,1.005
627,1.120,1.025
628,1.355,1.095
629,1.750,1.070
630,1.905,0.830
631,1.465,0.300
632,0.140,-0.320
633,-0.360,-0.860
634,-0.140,-1.140
635,0.335,-0.725
636,0.690,-0.065
637,0.795,0.455
638,0.815,0.755
639,0.785,0.830
640,0.790,0.860
641,0.815,0.860
642,0.800,0.835
643,0.770,0.870
644,0.745,0.835
645,0.695,0.835
646,0.690,0.830
647,0.675,0.800
648,0.675,0.805
649,0.655,0.800
650,0.615,0.785
651,0.610,0.785
652,0.535,0.745
653,0.490,0.715
654,0.460,0.685
655,0.440,0.680
656,0.410,0.655
657,0.345,0.630
658,0.290,0.605
659,0.220,0.580
660,0.145,0.560
661,0.095,0.520
662,0.060,0.485
663,0.000,0.460
664,-0.070,0.430
665,-0.120,0.375
666,-0.180,0.315
667,-0.225,0.285
668,-0.220,0.275
669,-0.235,0.235
670,-0.205,0.200
671,-0.205,0.150
672,-0.165,0.135
673,-0.105,0.135
674,-0.005,0.115
675,0.075,0.125
676,0.130,0.145
677,0.190,0.185
678,0.230,0.220
679,0.250,0.240
680,0.285,0.275
681,0.330,0.310
682,0.335,0.355
683,0.305,0.355
684,0.320,0.355
685,0.285,0.335
686,0.270,0.340
687,0.255,0.330
688,0.240,0.280
689,0.245,0.275
690,0.210,0.255
691,0.175,0.240
692,0.145,0.210
693,0.125,0.200
694,0.120,0.175
695,0.140,0.145
696,0.110,0.135
697,0.090,0.120
698,0.055,0.100
699,0.060,0.065
700,0.050,0.065
701,0.045,0.035
702,0.040,0.025
703,0.000,0.000
704,-0.040,-0.015
705,-0.040,-0.020
706,-0.070,-0.040
707,-0.060,-0.075
708,-0.065,-0.085
709,-0.065,-0.105
710,-0.085,-0.110
711,-0.100,-0.115
712,-0.145,-0.155
713,-0.165,-0.165
714,-0.160,-0.180
715,-0.145,-0.185
716,-0.160,-0.195
717,-0.220,-0.210
718,-0.245,-0.250
719,-0.255,-0.235
720,-0.230,-0.215
721,-0.210,-0.255
722,-0.150,-0.245
723,-0.115,-0.175
724,-0.140,-0.145
725,-0.180,-0.190
726,-0.205,-0.255
727,-0.200,-0.285
728,-0.240,-0.405
729,-0.290,-0.445
730,-0.325,-0.465
731,-0.410,-0.405
732,-0.430,-0.455
733,-0.455,-0.435
734,-0.430,-0.470
735,-0.400,-0.470
736,-0.350,-0.405
737,-0.100,-0.325
738,0.400,-0.360
739,0.650,-0.630
740,-0.070,-1.070
741,-1.485,-1.665
742,-1.925,-2.285
743,-1.730,-2.465
744,-1.180,-1.950
745,-0.835,-1.425
746,-0.685,-0.915
747,-0.660,-0.680
748,-0.665,-0.605
749,-0.665,-0.575
750,-0.685,-0.600
751,-0.710,-0.615
752,-0.715,-0.615
753,-0.730,-0.620
754,-0.730,-0.610
755,-0.750,-0.625
756,-0.755,-0.650
757,-0.800,-0.640
758,-0.840,-0.655
759,-0.860,-0.680
760,-0.870,-0.690
761,-0.890,-0.700
762,-0.920,-0.740
763,-0.960,-0.735
764,-1.000,-0.755
765,-1.045,-0.800
766,-1.100,-0.795
767,-1.160,-0.830
768,-1.205,-0.855
769,-1.245,-0.885
770,-1.315,-0.920
771,-1.390,-0.970
772,-1.380,-0.930
773,-1.455,-0.975
774,-1.515,-1.030
775,-1.555,-1.060
776,-1.545,-1.095
777,-1.600,-1.135
778,-1.630,-1.170
779,-1.585,-1.215
780,-1.530,-1.235
781,-1.485,-1.205
782,-1.425,-1.205
783,-1.330,-1.220
784,-1.285,-1.175
785,-1.220,-1.140
786,-1.115,-1.080
787,-1.040,-1.070
788,-1.015,-1.005
789,-0.990,-0.975
790,-0.940,-0.940
791,-0.950,-0.915
792,-0.970,-0.920
793,-0.940,-0.930
794,-0.890,-0.930
795,-0.905,-0.930
796,-0.950,-0.945
797,-0.985,-0.965
798,-0.980,-0.990
799,-0.990,-1.020
800,-0.975,-1.010
801,-0.960,-0.995
802,-1.000,-1.025
803,-1.005,-1.050
804,-1.030,-1.040
805,-1.065,-1.060
806,-1.075,-1.090
807,-1.040,-1.075
808,-1.010,-1.090
809,-1.035,-1.115
810,-1.080,-1.090
811,-1.090,-1.105
812,-1.080,-1.080
813,-1.120,-1.120
814,-1.085,-1.100
815,-1.055,-1.140
816,-1.080,-1.145
817,-1.140,-1.160
818,-1.160,-1.160
819,-1.150,-1.180
820,-1.130,-1.160
821,-1.130,-1.185
822,-1.125,-1.195
823,-1.160,-1.210
824,-1.180,-1.200
825,-1.145,-1.190
826,-1.200,-1.185
827,-1.195,-1.210
828,-1.170,-1.195
829,-1.155,-1.205
830,-1.095,-1.220
831,-1.100,-1.165
832,-1.085,-1.145
833,-1.060,-1.115
834,-1.060,-1.140
835,-1.040,-1.185
836,-1.070,-1.270
837,-1.160,-1.325
838,-1.245,-1.345
839,-1.290,-1.315
840,-1.320,-1.325
841,-1.280,-1.315
842,-1.300,-1.320
843,-1.280,-1.360
844,-1.220,-1.305
845,-1.045,-1.195
846,-0.465,-1.165
847,-0.055,-1.335
848,-0.450,-1.670
849,-2.035,-2.330
850,-2.785,-2.905
851,-2.685,-3.195
852,-2.415,-3.005
853,-1.900,-2.510
854,-1.635,-2.045
855,-1.500,-1.575
856,-1.465,-1.420
857,-1.455,-1.370
858,-1.485,-1.370
859,-1.495,-1.365
860,-1.490,-1.375
861,-1.460,-1.370
862,-1.450,-1.360
863,-1.495,-1.355
864,-1.510,-1.375
865,-1.530,-1.380
866,-1.555,-1.400
867,-1.555,-1.400
868,-1.535,-1.425
869,-1.565,-1.385
870,-1.605,-1.405
871,-1.645,-1.430
872,-1.705,-1.420
873,-1.740,-1.440
874,-1.755,-1.450
875,-1.765,-1.495
876,-1.815,-1.480
877,-1.860,-1.485
878,-1.940,-1.535
879,-2.010,-1.605
880,-2.065,-1.630
881,-2.085,-1.645
882,-2.085,-1.665
883,-2.135,-1.695
884,-2.205,-1.725
885,-2.245,-1.775
886,-2.250,-1.765
887,-2.225,-1.785
888,-2.165,-1.805
889,-2.110,-1.795
890,-2.060,-1.785
891,-1.995,-1.760
892,-1.905,-1.700
893,-1.790,-1.655
894,-1.690,-1.590
895,-1.595,-1.545
896,-1.515,-1.520
897,-1.450,-1.430
898,-1.440,-1.415
899,-1.390,-1.375
900,-1.355,-1.355
901,-1.305,-1.365
902,-1.305,-1.345
903,-1.320,-1.350
904,-1.320,-1.350
905,-1.325,-1.380
906,-1.330,-1.375
907,-1.340,-1.370
908,-1.295,-1.405
909,-1.280,-1.395
910,-1.300,-1.405
911,-1.325,-1.435
912,-1.340,-1.425
913,-1.325,-1.410
914,-1.350,-1.430
915,-1.335,-1.400
916,-1.315,-1.415
917,-1.310,-1.415
918,-1.340,-1.410
919,-1.370,-1.455
920,-1.340,-1.445
921,-1.325,-1.455
922,-1.325,-1.430
923,-1.325,-1.405
924,-1.320,-1.420
925,-1.345,-1.445
926,-1.345,-1.455
927,-1.330,-1.445
928,-1.320,-1.440
929,-1.280,-1.435
930,-1.275,-1.445
931,-1.285,-1.435
932,-1.295,-1.440
933,-1.315,-1.450
934,-1.325,-1.435
935,-1.290,-1.440
936,-1.270,-1.480
937,-1.265,-1.475
938,-1.305,-1.460
939,-1.275,-1.455
940,-1.205,-1.470
941,-1.120,-1.410
942,-1.075,-1.335
943,-1.080,-1.340
944,-1.095,-1.390
945,-1.095,-1.450
946,-1.110,-1.510
947,-1.180,-1.525
948,-1.220,-1.575
949,-1.255,-1.560
950,-1.285,-1.555
951,-1.325,-1.535
952,-1.325,-1.555
953,-1.280,-1.575
954,-1.185,-1.525
955,-0.975,-1.400
956,-0.465,-1.435
957,-0.165,-1.575
958,-0.450,-2.115
959,-2.010,-2.870
960,-2.865,-3.320
961,-2.680,-3.680
962,-2.175,-3.360
963,-1.695,-2.755
964,-1.490,-2.160
965,-1.435,-1.715
966,-1.365,-1.585
967,-1.390,-1.555
968,-1.380,-1.550
969,-1.350,-1.540
970,-1.385,-1.515
971,-1.395,-1.500
972,-1.395,-1.490
973,-1.390,-1.510
974,-1.410,-1.515
975,-1.395,-1.500
976,-1.385,-1.485
977,-1.415,-1.490
978,-1.450,-1.485
979,-1.450,-1.495
980,-1.470,-1.515
981,-1.505,-1.495
982,-1.515,-1.550
983,-1.545,-1.550
984,-1.575,-1.545
985,-1.640,-1.540
986,-1.695,-1.560
987,-1.745,-1.600
988,-1.790,-1.600
989,-1.800,-1.625
990,-1.865,-1.685
991,-1.950,-1.735
992,-2.025,-1.780
993,-2.060,-1.790
994,-2.085,-1.805
995,-2.090,-1.830
996,-2.070,-1.855
997,-2.060,-1.865
998,-2.035,-1.900
999,-1.980,-1.900
1000,-1.895,-1.890
1001,-1.795,-1.860
1002,-1.630,-1.760
1003,-1.510,-1.735
1004,-1.450,-1.670
1005,-1.365,-1.595
1006,-1.300,-1.560
1007,-1.245,-1.480
1008,-1.170,-1.445
1009,-1.125,-1.410
1010,-1.110,-1.380
1011,-1.120,-1.365
1012,-1.150,-1.375
1013,-1.135,-1.390
1014,-1.125,-1.365
1015,-1.115,-1.360
1016,-1.130,-1.345
1017,-1.115,-1.365
1018,-1.130,-1.370
1019,-1.175,-1.365
1020,-1.135,-1.390
1021,-1.135,-1.395
1022,-1.110,-1.375
1023,-1.115,-1.360
1024,-1.100,-1.345
1025,-1.125,-1.340
1026,-1.125,-1.350
1027,-1.125,-1.355
1028,-1.085,-1.370
1029,-1.090,-1.335
1030,-1.100,-1.370
1031,-1.085,-1.380
1032,-1.110,-1.380
1033,-1.100,-1.375
1034,-1.085,-1.360
1035,-1.055,-1.360
1036,-1.040,-1.340
1037,-1.065,-1.330
1038,-1.070,-1.360
1039,-1.065,-1.355
1040,-1.080,-1.330
1041,-1.095,-1.350
1042,-1.060,-1.330
1043,-1.045,-1.340
1044,-1.040,-1.340
1045,-1.070,-1.355
1046,-1.045,-1.330
1047,-1.040,-1.330
1048,-0.925,-1.305
1049,-0.870,-1.265
1050,-0.865,-1.180
1051,-0.855,-1.205
1052,-0.880,-1.245
1053,-0.840,-1.285
1054,-0.880,-1.315
1055,-0.950,-1.330
1056,-0.975,-1.380
1057,-1.025,-1.345
1058,-1.070,-1.350
1059,-1.095,-1.350
1060,-1.090,-1.365
1061,-1.050,-1.365
1062,-0.940,-1.300
1063,-0.680,-1.190
1064,-0.125,-1.230
1065,0.100,-1.455
1066,-0.335,-2.015
1067,-1.880,-2.735
1068,-2.510,-3.205
1069,-2.230,-3.485
1070,-1.710,-3.045
1071,-1.310,-2.310
1072,-1.160,-1.735
1073,-1.120,-1.440
1074,-1.095,-1.345
1075,-1.095,-1.310
1076,-1.070,-1.285
1077,-1.080,-1.260
1078,-1.080,-1.265
1079,-1.110,-1.245
1080,-1.095,-1.250
1081,-1.125,-1.255
1082,-1.100,-1.230
1083,-1.100,-1.265
1084,-1.105,-1.245
1085,-1.140,-1.250
1086,-1.165,-1.235
1087,-1.175,-1.200
1088,-1.200,-1.220
1089,-1.220,-1.240
1090,-1.220,-1.250
1091,-1.240,-1.265
1092,-1.325,-1.285
1093,-1.380,-1.280
1094,-1.420,-1.290
1095,-1.440,-1.300
1096,-1.470,-1.320
1097,-1.515,-1.335
1098,-1.575,-1.385
1099,-1.595,-1.380
1100,-1.670,-1.405
1101,-1.695,-1.420
1102,-1.700,-1.445
1103,-1.720,-1.480
1104,-1.700,-1.490
1105,-1.715,-1.480
1106,-1.695,-1.510
1107,-1.605,-1.515
1108,-1.515,-1.500
1109,-1.395,-1.470
1110,-1.295,-1.445
1111,-1.225,-1.385
1112,-1.170,-1.340
1113,-1.070,-1.285
1114,-1.010,-1.225
1115,-0.970,-1.160
1116,-0.925,-1.130
1117,-0.895,-1.110
1118,-0.890,-1.070
1119,-0.910,-1.060
1120,-0.915,-1.050
1121,-0.900,-1.050
1122,-0.900,-1.020
1123,-0.860,-1.040
1124,-0.890,-1.025
1125,-0.915,-1.030
1126,-0.920,-1.025
1127,-0.925,-1.030
1128,-0.940,-1.010
1129,-0.920,-1.045
1130,-0.900,-1.050
1131,-0.920,-1.055
1132,-0.930,-1.025
1133,-0.910,-1.025
1134,-0.920,-1.020
1135,-0.895,-1.020
1136,-0.890,-1.025
1137,-0.930,-1.015
1138,-0.930,-1.030
1139,-0.940,-1.025
1140,-0.965,-1.020
1141,-0.945,-0.985
1142,-0.905,-0.980
1143,-0.890,-0.990
1144,-0.870,-1.005
1145,-0.875,-0.985
1146,-0.915,-0.985
1147,-0.905,-0.970
1148,-0.930,-0.980
1149,-0.905,-0.985
1150,-0.875,-0.965
1151,-0.865,-0.945
1152,-0.895,-0.960
1153,-0.900,-0.940
1154,-0.890,-0.950
1155,-0.855,-0.930
1156,-0.765,-0.910
1157,-0.725,-0.895
1158,-0.705,-0.830
1159,-0.690,-0.815
1160,-0.695,-0.810
1161,-0.695,-0.860
1162,-0.720,-0.880
1163,-0.745,-0.880
1164,-0.790,-0.935
1165,-0.835,-0.915
1166,-0.910,-0.905
1167,-0.940,-0.890
1168,-0.935,-0.890
1169,-0.905,-0.910
1170,-0.790,-0.855
1171,-0.620,-0.750
1172,-0.085,-0.745
1173,0.290,-0.840
1174,0.175,-1.270
1175,-1.265,-1.795
1176,-2.190,-2.330
1177,-2.145,-2.700
1178,-1.800,-2.530
1179,-1.285,-1.915
1180,-1.055,-1.445
1181,-0.965,-1.085
1182,-0.955,-0.910
1183,-0.935,-0.850
1184,-0.920,-0.835
1185,-0.920,-0.815
1186,-0.930,-0.790
1187,-0.935,-0.800
1188,-0.935,-0.775
1189,-0.935,-0.765
1190,-0.905,-0.740
1191,-0.900,-0.745
1192,-0.930,-0.755
1193,-0.955,-0.735
1194,-0.995,-0.725
1195,-0.995,-0.755
1196,-0.985,-0.730
1197,-1.000,-0.755
1198,-1.025,-0.760
1199,-1.055,-0.765
1200,-1.120,-0.750
1201,-1.155,-0.780
1202,-1.190,-0.780
1203,-1.210,-0.790
1204,-1.245,-0.805
1205,-1.270,-0.815
1206,-1.340,-0.835
1207,-1.385,-0.870
1208,-1.425,-0.890
1209,-1.450,-0.885
1210,-1.440,-0.925
1211,-1.465,-0.940
1212,-1.485,-0.980
1213,-1.485,-0.965
1214,-1.495,-1.010
1215,-1.450,-0.975
1216,-1.355,-1.025
1217,-1.280,-1.015
1218,-1.185,-1.035
1219,-1.115,-0.950
1220,-1.060,-0.920
1221,-0.985,-0.860
1222,-0.940,-0.810
1223,-0.875,-0.730
1224,-0.790,-0.730
1225,-0.775,-0.685
1226,-0.765,-0.630
1227,-0.780,-0.630
1228,-0.780,-0.615
1229,-0.760,-0.605
1230,-0.715,-0.610
1231,-0.715,-0.625
1232,-0.740,-0.595
1233,-0.780,-0.610
1234,-0.805,-0.625
1235,-0.760,-0.605
1236,-0.760,-0.575
1237,-0.730,-0.610
1238,-0.725,-0.600
1239,-0.735,-0.580
1240,-0.760,-0.580
1241,-0.755,-0.590
1242,-0.750,-0.585
1243,-0.755,-0.590
1244,-0.725,-0.590
1245,-0.740,-0.580
1246,-0.730,-0.585
1247,-0.740,-0.580
1248,-0.765,-0.615
1249,-0.740,-0.610
1250,-0.735,-0.625
1251,-0.725,-0.600
1252,-0.730,-0.600
1253,-0.740,-0.595
1254,-0.760,-0.590
1255,-0.760,-0.600
1256,-0.750,-0.570
1257,-0.705,-0.600
1258,-0.710,-0.595
1259,-0.720,-0.590
1260,-0.740,-0.555
1261,-0.745,-0.555
1262,-0.685,-0.570
1263,-0.585,-0.555
1264,-0.555,-0.520
1265,-0.550,-0.430
1266,-0.540,-0.445
1267,-0.535,-0.485
1268,-0.495,-0.515
1269,-0.520,-0.535
1270,-0.555,-0.545
1271,-0.640,-0.595
1272,-0.680,-0.575
1273,-0.735,-0.550
1274,-0.755,-0.565
1275,-0.725,-0.570
1276,-0.670,-0.560
1277,-0.580,-0.545
1278,-0.365,-0.395
1279,0.205,-0.375
1280,0.615,-0.575
1281,0.195,-0.870
1282,-1.305,-1.340
1283,-1.850,-1.870
1284,-1.770,-2.165
1285,-1.390,-1.835
1286,-1.000,-1.360
1287,-0.855,-0.985
1288,-0.775,-0.690
1289,-0.755,-0.560
1290,-0.740,-0.520
1291,-0.725,-0.505
1292,-0.735,-0.470
1293,-0.720,-0.475
1294,-0.740,-0.465
1295,-0.770,-0.470
1296,-0.765,-0.475
1297,-0.715,-0.465
1298,-0.735,-0.480
1299,-0.775,-0.460
1300,-0.820,-0.435
1301,-0.805,-0.450
1302,-0.795,-0.455
1303,-0.790,-0.470
1304,-0.855,-0.485
1305,-0.835,-0.475
1306,-0.965,-0.515
1307,-1.005,-0.535
1308,-1.000,-0.535
1309,-1.010,-0.545
1310,-1.040,-0.580
1311,-1.085,-0.585
1312,-1.135,-0.565
1313,-1.175,-0.610
1314,-1.205,-0.605
1315,-1.230,-0.625
1316,-1.250,-0.645
1317,-1.270,-0.675
1318,-1.265,-0.710
1319,-1.275,-0.710
1320,-1.270,-0.715
1321,-1.210,-0.750
1322,-1.125,-0.730
1323,-1.065,-0.730
1324,-0.985,-0.700
1325,-0.930,-0.700
1326,-0.875,-0.630
1327,-0.815,-0.585
1328,-0.735,-0.555
1329,-0.685,-0.535
1330,-0.630,-0.500
1331,-0.600,-0.470
1332,-0.585,-0.440
1333,-0.535,-0.440
1334,-0.545,-0.420
1335,-0.540,-0.410
1336,-0.505,-0.420
1337,-0.535,-0.435
1338,-0.545,-0.450
1339,-0.525,-0.465
1340,-0.520,-0.475
1341,-0.600,-0.465
1342,-0.575,-0.460
1343,-0.540,-0.455
1344,-0.550,-0.480
1345,-0.570,-0.480
1346,-0.545,-0.465
1347,-0.570,-0.500
1348,-0.620,-0.485
1349,-0.590,-0.465
1350,-0.535,-0.465
1351,-0.565,-0.490
1352,-0.575,-0.475
1353,-0.580,-0.490
1354,-0.585,-0.500
1355,-0.595,-0.490
1356,-0.595,-0.500
1357,-0.545,-0.490
1358,-0.560,-0.500
1359,-0.595,-0.470
1360,-0.590,-0.485
1361,-0.555,-0.515
1362,-0.585,-0.525
1363,-0.550,-0.535
1364,-0.545,-0.500
1365,-0.565,-0.505
1366,-0.585,-0.510
1367,-0.590,-0.520
1368,-0.560,-0.495
1369,-0.530,-0.505
1370,-0.460,-0.485
1371,-0.395,-0.485
1372,-0.425,-0.405
1373,-0.410,-0.360
1374,-0.360,-0.395
1375,-0.360,-0.435
1376,-0.320,-0.445
1377,-0.375,-0.455
1378,-0.465,-0.480
1379,-0.515,-0.475
1380,-0.575,-0.465
1381,-0.610,-0.475
1382,-0.590,-0.485
1383,-0.565,-0.500
1384,-0.465,-0.480
1385,-0.390,-0.395
1386,0.010,-0.295
1387,0.590,-0.400
1388,0.670,-0.640
1389,-0.545,-1.040
1390,-1.555,-1.545
1391,-1.655,-1.875
1392,-1.475,-1.885
1393,-1.045,-1.475
1394,-0.780,-1.085
1395,-0.720,-0.720
1396,-0.680,-0.520
1397,-0.630,-0.470
1398,-0.625,-0.450
1399,-0.630,-0.445
1400,-0.645,-0.425
1401,-0.660,-0.415
1402,-0.660,-0.390
1403,-0.615,-0.410
1404,-0.595,-0.405
1405,-0.660,-0.415
1406,-0.635,-0.405
1407,-0.665,-0.425
1408,-0.700,-0.420
1409,-0.690,-0.410
1410,-0.685,-0.455
1411,-0.690,-0.420
1412,-0.730,-0.425
1413,-0.765,-0.425
1414,-0.795,-0.410
1415,-0.840,-0.445
1416,-0.840,-0.470
1417,-0.895,-0.480
1418,-0.960,-0.465
1419,-0.970,-0.470
1420,-1.000,-0.495
1421,-1.055,-0.485
1422,-1.105,-0.470
1423,-1.105,-0.495
1424,-1.110,-0.540
1425,-1.155,-0.520
1426,-1.155,-0.550
1427,-1.145,-0.565
1428,-1.115,-0.575
1429,-1.070,-0.565
1430,-0.990,-0.555
1431,-0.905,-0.565
1432,-0.840,-0.535
1433,-0.770,-0.495
1434,-0.740,-0.465
1435,-0.685,-0.440
1436,-0.605,-0.420
1437,-0.550,-0.390
1438,-0.530,-0.390
1439,-0.525,-0.350
1440,-0.500,-0.315
1441,-0.430,-0.300
1442,-0.440,-0.320
1443,-0.425,-0.295
1444,-0.415,-0.320
1445,-0.430,-0.285
1446,-0.435,-0.315
1447,-0.450,-0.325
1448,-0.445,-0.295
1449,-0.430,-0.350
1450,-0.400,-0.370
1451,-0.395,-0.350
1452,-0.435,-0.380
1453,-0.445,-0.340
1454,-0.465,-0.365
1455,-0.450,-0.360
1456,-0.430,-0.360
1457,-0.470,-0.375
1458,-0.445,-0.375
1459,-0.400,-0.360
1460,-0.450,-0.355
1461,-0.465,-0.370
1462,-0.455,-0.370
1463,-0.400,-0.390
1464,-0.415,-0.405
1465,-0.445,-0.405
1466,-0.455,-0.395
1467,-0.465,-0.415
1468,-0.445,-0.410
1469,-0.450,-0.400
1470,-0.420,-0.405
1471,-0.420,-0.430
1472,-0.435,-0.435
1473,-0.490,-0.420
1474,-0.480,-0.400
1475,-0.460,-0.405
1476,-0.460,-0.420
1477,-0.450,-0.410
1478,-0.390,-0.445
1479,-0.350,-0.410
1480,-0.310,-0.390
1481,-0.295,-0.350
1482,-0.320,-0.305
1483,-0.300,-0.335
1484,-0.215,-0.395
1485,-0.205,-0.405
1486,-0.270,-0.420
1487,-0.345,-0.420
1488,-0.410,-0.455
1489,-0.490,-0.430
1490,-0.480,-0.440
1491,-0.475,-0.455
1492,-0.435,-0.465
1493,-0.395,-0.435
1494,-0.280,-0.345
1495,0.085,-0.285
1496,0.630,-0.340
1497,0.795,-0.535
1498,-0.155,-0.950
1499,-1.340,-1.420
1500,-1.610,-1.800
1501,-1.470,-1.910
1502,-1.005,-1.520
1503,-0.690,-1.130
1504,-0.600,-0.795
1505,-0.545,-0.545
1506,-0.505,-0.470
1507,-0.530,-0.430
1508,-0.540,-0.405
1509,-0.530,-0.420
1510,-0.535,-0.395
1511,-0.495,-0.360
1512,-0.520,-0.370
1513,-0.525,-0.365
1514,-0.540,-0.365
1515,-0.550,-0.355
1516,-0.570,-0.395
1517,-0.560,-0.355
1518,-0.555,-0.370
1519,-0.555,-0.365
1520,-0.585,-0.375
1521,-0.625,-0.365
1522,-0.640,-0.390
1523,-0.685,-0.400
1524,-0.700,-0.375
1525,-0.745,-0.390
1526,-0.785,-0.400
1527,-0.800,-0.405
1528,-0.875,-0.425
1529,-0.905,-0.430
1530,-0.930,-0.435
1531,-0.955,-0.450
1532,-0.995,-0.470
1533,-1.030,-0.470
1534,-1.065,-0.485
1535,-1.060,-0.515
1536,-1.085,-0.525
1537,-1.015,-0.535
1538,-0.965,-0.555
1539,-0.895,-0.525
1540,-0.805,-0.500
1541,-0.765,-0.460
1542,-0.705,-0.460
1543,-0.630,-0.430
1544,-0.560,-0.405
1545,-0.500,-0.375
1546,-0.430,-0.325
1547,-0.410,-0.315
1548,-0.400,-0.295
1549,-0.365,-0.280
1550,-0.340,-0.275
1551,-0.300,-0.270
1552,-0.275,-0.285
1553,-0.270,-0.300
1554,-0.295,-0.275
1555,-0.285,-0.290
1556,-0.300,-0.295
1557,-0.275,-0.315
1558,-0.250,-0.315
1559,-0.255,-0.300
1560,-0.285,-0.315
1561,-0.350,-0.305
1562,-0.325,-0.320
1563,-0.340,-0.340
1564,-0.290,-0.345
1565,-0.265,-0.340
1566,-0.280,-0.355
1567,-0.315,-0.365
1568,-0.305,-0.360
1569,-0.320,-0.355
1570,-0.320,-0.350
1571,-0.270,-0.345
1572,-0.280,-0.340
1573,-0.285,-0.355
1574,-0.325,-0.360
1575,-0.310,-0.355
1576,-0.320,-0.355
1577,-0.305,-0.345
1578,-0.290,-0.380
1579,-0.280,-0.345
1580,-0.285,-0.360
1581,-0.275,-0.360
1582,-0.310,-0.370
1583,-0.315,-0.375
1584,-0.285,-0.380
1585,-0.265,-0.370
1586,-0.220,-0.380
1587,-0.290,-0.400
1588,-0.270,-0.385
1589,-0.200,-0.360
1590,-0.150,-0.350
1591,-0.090,-0.320
1592,-0.085,-0.255
1593,-0.090,-0.270
1594,-0.090,-0.330
1595,-0.070,-0.360
1596,-0.115,-0.400
1597,-0.190,-0.415
1598,-0.185,-0.455
1599,-0.240,-0.415
1600,-0.270,-0.400
1601,-0.310,-0.420
1602,-0.285,-0.450
1603,-0.260,-0.460
1604,-0.140,-0.350
1605,0.275,-0.290
1606,0.790,-0.360
1607,0.910,-0.690
1608,-0.100,-1.205
1609,-1.290,-1.685
1610,-1.445,-2.070
1611,-1.145,-2.020
1612,-0.690,-1.575
1613,-0.455,-1.120
1614,-0.395,-0.700
1615,-0.375,-0.510
1616,-0.365,-0.460
1617,-0.350,-0.435
1618,-0.330,-0.410
1619,-0.310,-0.390
1620,-0.350,-0.390
1621,-0.335,-0.375
1622,-0.345,-0.365
1623,-0.360,-0.370
1624,-0.390,-0.380
1625,-0.350,-0.380
1626,-0.355,-0.365
1627,-0.400,-0.400
1628,-0.415,-0.395
1629,-0.445,-0.370
1630,-0.455,-0.385
1631,-0.465,-0.365
1632,-0.480,-0.395
1633,-0.530,-0.420
1634,-0.590,-0.445
1635,-0.610,-0.430
1636,-0.665,-0.465
1637,-0.690,-0.475
1638,-0.725,-0.495
1639,-0.755,-0.505
1640,-0.775,-0.500
1641,-0.875,-0.550
1642,-0.915,-0.530
1643,-0.930,-0.555
1644,-0.950,-0.585
1645,-0.925,-0.615
1646,-0.910,-0.630
1647,-0.885,-0.655
1648,-0.855,-0.660
1649,-0.785,-0.640
1650,-0.710,-0.655
1651,-0.610,-0.620
1652,-0.525,-0.620
1653,-0.435,-0.570
1654,-0.395,-0.510
1655,-0.340,-0.480
1656,-0.280,-0.445
1657,-0.240,-0.405
1658,-0.190,-0.375
1659,-0.165,-0.340
1660,-0.145,-0.315
1661,-0.160,-0.340
1662,-0.155,-0.315
1663,-0.170,-0.295
1664,-0.155,-0.285
1665,-0.120,-0.280
1666,-0.145,-0.330
1667,-0.140,-0.315
1668,-0.160,-0.300
1669,-0.170,-0.320
1670,-0.175,-0.350
1671,-0.130,-0.355
1672,-0.135,-0.340
1673,-0.145,-0.345
1674,-0.150,-0.365
1675,-0.150,-0.360
1676,-0.150,-0.345
1677,-0.160,-0.350
1678,-0.130,-0.340
1679,-0.130,-0.345
1680,-0.120,-0.335
1681,-0.140,-0.335
1682,-0.135,-0.340
1683,-0.145,-0.350
1684,-0.140,-0.370
1685,-0.105,-0.360
1686,-0.085,-0.360
1687,-0.110,-0.345
1688,-0.125,-0.380
1689,-0.125,-0.370
1690,-0.140,-0.370
1691,-0.115,-0.405
1692,-0.085,-0.385
1693,-0.095,-0.360
1694,-0.120,-0.360
1695,-0.125,-0.365
1696,-0.105,-0.355
1697,-0.100,-0.365
1698,-0.020,-0.350
1699,0.060,-0.350
1700,0.075,-0.290
1701,0.070,-0.230
1702,0.055,-0.250
1703,0.060,-0.320
1704,0.100,-0.320
1705,0.050,-0.345
1706,0.000,-0.405
1707,-0.035,-0.405
1708,-0.120,-0.390
1709,-0.140,-0.390
1710,-0.150,-0.380
1711,-0.085,-0.390
1712,-0.030,-0.390
1713,0.065,-0.305
1714,0.465,-0.265
1715,0.885,-0.325
1716,0.920,-0.765
1717,-0.075,-1.400
1718,-1.255,-1.855
1719,-1.320,-2.245
1720,-0.920,-2.150
1721,-0.505,-1.595
1722,-0.305,-1.030
1723,-0.205,-0.600
1724,-0.175,-0.430
1725,-0.155,-0.395
1726,-0.135,-0.365
1727,-0.160,-0.360
1728,-0.195,-0.355
1729,-0.205,-0.320
1730,-0.175,-0.330
1731,-0.190,-0.300
1732,-0.160,-0.310
1733,-0.160,-0.300
1734,-0.185,-0.310
1735,-0.230,-0.315
1736,-0.225,-0.295
1737,-0.255,-0.310
1738,-0.270,-0.315
1739,-0.275,-0.330
1740,-0.305,-0.315
1741,-0.345,-0.320
1742,-0.395,-0.340
1743,-0.420,-0.360
1744,-0.480,-0.395
1745,-0.505,-0.400
1746,-0.520,-0.430
1747,-0.555,-0.455
1748,-0.640,-0.465
1749,-0.695,-0.485
1750,-0.725,-0.540
1751,-0.745,-0.540
1752,-0.755,-0.540
1753,-0.760,-0.570
1754,-0.775,-0.575
1755,-0.795,-0.595
1756,-0.775,-0.615
1757,-0.700,-0.600
1758,-0.620,-0.640
1759,-0.495,-0.645
1760,-0.400,-0.605
1761,-0.320,-0.570
1762,-0.265,-0.540
1763,-0.190,-0.480
1764,-0.160,-0.460
1765,-0.080,-0.410
1766,-0.065,-0.355
1767,-0.045,-0.345
1768,-0.050,-0.320
1769,-0.035,-0.280
1770,-0.025,-0.255
1771,-0.025,-0.265
1772,-0.005,-0.255
1773,0.015,-0.250
1774,-0.010,-0.275
1775,-0.030,-0.275
1776,-0.035,-0.280
1777,-0.020,-0.285
1778,-0.040,-0.295
1779,-0.005,-0.275
1780,0.000,-0.300
1781,-0.015,-0.305
1782,-0.045,-0.305
1783,-0.040,-0.305
1784,-0.025,-0.295
1785,-0.015,-0.305
1786,0.015,-0.305
1787,0.015,-0.295
1788,-0.005,-0.315
1789,-0.005,-0.295
1790,-0.015,-0.310
1791,-0.005,-0.325
1792,0.005,-0.295
1793,0.005,-0.330
1794,0.025,-0.310
1795,0.015,-0.310
1796,0.000,-0.310
1797,-0.005,-0.335
1798,0.005,-0.335
1799,0.040,-0.310
1800,0.025,-0.310
1801,0.025,-0.300
1802,0.015,-0.320
1803,0.010,-0.310
1804,0.015,-0.300
1805,0.050,-0.295
1806,0.115,-0.290
1807,0.180,-0.270
1808,0.220,-0.220
1809,0.200,-0.175
1810,0.185,-0.150
1811,0.210,-0.215
1812,0.255,-0.260
1813,0.200,-0.275
1814,0.140,-0.315
1815,0.080,-0.355
1816,0.040,-0.280
1817,0.000,-0.290
1818,0.005,-0.300
1819,0.025,-0.310
1820,0.065,-0.305
1821,0.160,-0.260
1822,0.485,-0.180
1823,0.975,-0.230
1824,1.125,-0.570
1825,0.435,-1.185
1826,-0.915,-1.725
1827,-1.210,-2.125
1828,-0.850,-2.170
1829,-0.430,-1.660
1830,-0.170,-1.055
1831,-0.090,-0.620
1832,-0.010,-0.400
1833,0.000,-0.330
1834,0.000,-0.295
1835,0.005,-0.315
1836,-0.005,-0.300
1837,-0.050,-0.270
1838,-0.045,-0.255
1839,0.000,-0.250
1840,0.000,-0.250
1841,-0.020,-0.260
1842,-0.035,-0.265
1843,-0.045,-0.230
1844,-0.075,-0.260
1845,-0.100,-0.255
1846,-0.075,-0.265
1847,-0.075,-0.280
1848,-0.125,-0.270
1849,-0.180,-0.250
1850,-0.220,-0.270
1851,-0.245,-0.310
1852,-0.280,-0.310
1853,-0.285,-0.325
1854,-0.360,-0.330
1855,-0.405,-0.325
1856,-0.480,-0.400
1857,-0.505,-0.375
1858,-0.535,-0.435
1859,-0.540,-0.475
1860,-0.575,-0.475
1861,-0.615,-0.495
1862,-0.640,-0.545
1863,-0.600,-0.570
1864,-0.575,-0.560
1865,-0.505,-0.565
1866,-0.410,-0.600
1867,-0.315,-0.595
1868,-0.230,-0.550
1869,-0.170,-0.510
1870,-0.095,-0.460
1871,-0.030,-0.415
1872,0.030,-0.375
1873,0.055,-0.370
1874,0.070,-0.310
1875,0.045,-0.300
1876,0.060,-0.260
1877,0.090,-0.245
1878,0.090,-0.245
1879,0.130,-0.235
1880,0.105,-0.235
1881,0.105,-0.250
1882,0.080,-0.245
1883,0.050,-0.240
1884,0.045,-0.260
1885,0.080,-0.275
1886,0.065,-0.275
1887,0.080,-0.290
1888,0.070,-0.295
1889,0.050,-0.285
1890,0.040,-0.295
1891,0.055,-0.320
1892,0.090,-0.300
1893,0.095,-0.300
1894,0.075,-0.305
1895,0.075,-0.275
1896,0.055,-0.290
1897,0.065,-0.285
1898,0.080,-0.295
1899,0.070,-0.290
1900,0.065,-0.300
1901,0.055,-0.295
1902,0.045,-0.315
1903,0.050,-0.330
1904,0.015,-0.305
1905,0.070,-0.290
1906,0.075,-0.305
1907,0.085,-0.295
1908,0.085,-0.310
1909,0.080,-0.300
1910,0.060,-0.295
1911,0.080,-0.300
1912,0.120,-0.300
1913,0.170,-0.300
1914,0.210,-0.285
1915,0.200,-0.195
1916,0.230,-0.180
1917,0.235,-0.215
1918,0.285,-0.220
1919,0.310,-0.280
1920,0.235,-0.300
1921,0.140,-0.325
1922,0.045,-0.310
1923,0.010,-0.320
1924,0.020,-0.295
1925,0.045,-0.305
1926,0.075,-0.325
1927,0.155,-0.305
1928,0.295,-0.190
1929,0.845,-0.150
1930,1.275,-0.305
1931,1.000,-0.685
1932,-0.360,-1.145
1933,-1.075,-1.565
1934,-0.990,-1.840
1935,-0.680,-1.660
1936,-0.270,-1.210
1937,-0.085,-0.800
1938,-0.010,-0.435
1939,0.050,-0.330
1940,0.065,-0.275
1941,0.015,-0.280
1942,0.000,-0.245
1943,-0.005,-0.240
1944,-0.005,-0.255
1945,0.000,-0.250
1946,0.005,-0.260
1947,0.010,-0.270
1948,0.000,-0.265
1949,-0.020,-0.255
1950,-0.025,-0.250
1951,-0.075,-0.255
1952,-0.070,-0.250
1953,-0.070,-0.270
1954,-0.105,-0.265
1955,-0.160,-0.270
1956,-0.195,-0.280
1957,-0.240,-0.320
1958,-0.260,-0.320
1959,-0.265,-0.340
1960,-0.305,-0.355
1961,-0.370,-0.380
1962,-0.450,-0.400
1963,-0.495,-0.415
1964,-0.520,-0.430
1965,-0.565,-0.460
1966,-0.550,-0.450
1967,-0.575,-0.475
1968,-0.590,-0.480
1969,-0.610,-0.500
1970,-0.555,-0.545
1971,-0.525,-0.560
1972,-0.445,-0.580
1973,-0.360,-0.555
1974,-0.285,-0.540
1975,-0.240,-0.500
1976,-0.160,-0.450
1977,-0.090,-0.430
1978,-0.025,-0.370
1979,0.055,-0.330
1980,0.085,-0.315
1981,0.115,-0.285
1982,0.135,-0.235
1983,0.130,-0.205
1984,0.115,-0.210
1985,0.150,-0.175
1986,0.165,-0.195
1987,0.180,-0.195
1988,0.145,-0.160
1989,0.115,-0.170
1990,0.115,-0.210
1991,0.115,-0.210
1992,0.140,-0.220
1993,0.150,-0.225
1994,0.135,-0.235
1995,0.105,-0.210
1996,0.125,-0.230
1997,0.130,-0.235
1998,0.125,-0.245
1999,0.120,-0.235
2000,0.125,-0.235
2001,0.140,-0.250
2002,0.110,-0.280
2003,0.080,-0.275
2004,0.100,-0.260
2005,0.105,-0.255
2006,0.125,-0.260
2007,0.135,-0.265
2008,0.145,-0.260
2009,0.125,-0.275
2010,0.110,-0.260
2011,0.115,-0.265
2012,0.115,-0.250
2013,0.150,-0.260
2014,0.155,-0.255
2015,0.130,-0.260
2016,0.140,-0.245
2017,0.145,-0.265
2018,0.130,-0.250
2019,0.150,-0.250
2020,0.230,-0.265
2021,0.290,-0.245
2022,0.305,-0.175
2023,0.290,-0.140
2024,0.320,-0.140
2025,0.345,-0.190
2026,0.375,-0.205
2027,0.325,-0.225
2028,0.265,-0.270
2029,0.180,-0.310
2030,0.135,-0.290
2031,0.115,-0.265
2032,0.105,-0.270
2033,0.160,-0.280
2034,0.195,-0.290
2035,0.285,-0.215
2036,0.570,-0.125
2037,1.080,-0.180
2038,1.260,-0.470
2039,0.475,-0.930
2040,-0.805,-1.420
2041,-1.080,-1.795
2042,-0.850,-1.920
2043,-0.410,-1.520
2044,-0.095,-1.045
2045,0.015,-0.615
2046,0.050,-0.345
2047,0.110,-0.245
2048,0.095,-0.240
2049,0.095,-0.220
2050,0.070,-0.205
2051,0.040,-0.215
2052,0.070,-0.195
2053,0.070,-0.195
2054,0.090,-0.220
2055,0.075,-0.195
2056,0.055,-0.175
2057,0.040,-0.185
2058,0.025,-0.195
2059,0.020,-0.185
2060,0.035,-0.185
2061,0.010,-0.175
2062,-0.005,-0.170
2063,-0.045,-0.185
2064,-0.095,-0.185
2065,-0.120,-0.200
2066,-0.145,-0.220
2067,-0.190,-0.235
2068,-0.240,-0.250
2069,-0.260,-0.260
2070,-0.360,-0.280
2071,-0.390,-0.325
2072,-0.450,-0.335
2073,-0.430,-0.355
2074,-0.455,-0.395
2075,-0.485,-0.415
2076,-0.515,-0.455
2077,-0.560,-0.470
2078,-0.540,-0.505
2079,-0.490,-0.480
2080,-0.410,-0.520
2081,-0.335,-0.525
2082,-0.225,-0.495
2083,-0.175,-0.485
2084,-0.100,-0.425
2085,-0.020,-0.390
2086,0.040,-0.330
2087,0.110,-0.290
2088,0.170,-0.260
2089,0.205,-0.230
2090,0.195,-0.195
2091,0.230,-0.150
2092,0.210,-0.140
2093,0.235,-0.120
2094,0.255,-0.130
2095,0.255,-0.120
2096,0.245,-0.085
2097,0.235,-0.115
2098,0.230,-0.140
2099,0.225,-0.150
2100,0.235,-0.150
2101,0.235,-0.160
2102,0.235,-0.165
2103,0.220,-0.160
2104,0.205,-0.165
2105,0.205,-0.175
2106,0.210,-0.175
2107,0.210,-0.185
2108,0.195,-0.180
2109,0.215,-0.165
2110,0.215,-0.155
2111,0.185,-0.160
2112,0.205,-0.170
2113,0.180,-0.180
2114,0.205,-0.190
2115,0.215,-0.210
2116,0.220,-0.205
2117,0.175,-0.205
2118,0.165,-0.220
2119,0.170,-0.205
2120,0.170,-0.210
2121,0.195,-0.195
2122,0.180,-0.200
2123,0.190,-0.205
2124,0.170,-0.205
2125,0.140,-0.205
2126,0.170,-0.200
2127,0.180,-0.210
2128,0.220,-0.245
2129,0.280,-0.225
2130,0.345,-0.150
2131,0.320,-0.125
2132,0.320,-0.110
2133,0.340,-0.135
2134,0.390,-0.190
2135,0.405,-0.210
2136,0.305,-0.230
2137,0.205,-0.305
2138,0.175,-0.270
2139,0.105,-0.240
2140,0.095,-0.250
2141,0.140,-0.265
2142,0.160,-0.240
2143,0.235,-0.215
2144,0.370,-0.135
2145,0.870,-0.120
2146,1.220,-0.275
2147,1.060,-0.775
2148,-0.245,-1.360
2149,-1.065,-1.790
2150,-1.020,-2.110
2151,-0.555,-1.835
2152,-0.175,-1.280
2153,-0.035,-0.770
2154,0.055,-0.410
2155,0.085,-0.335
2156,0.080,-0.275
2157,0.030,-0.235
2158,0.040,-0.235
2159,0.035,-0.260
2160,0.020,-0.225
2161,0.055,-0.225
2162,0.055,-0.210
2163,0.035,-0.195
2164,0.015,-0.190
2165,0.000,-0.170
2166,-0.015,-0.170
2167,-0.035,-0.190
2168,-0.015,-0.180
2169,-0.040,-0.185
2170,-0.090,-0.200
2171,-0.125,-0.220
2172,-0.155,-0.205
2173,-0.180,-0.230
2174,-0.235,-0.250
2175,-0.230,-0.245
2176,-0.295,-0.300
2177,-0.335,-0.320
2178,-0.410,-0.335
2179,-0.440,-0.340
2180,-0.470,-0.395
2181,-0.465,-0.395
2182,-0.500,-0.430
2183,-0.545,-0.450
2184,-0.585,-0.490
2185,-0.595,-0.495
2186,-0.545,-0.520
2187,-0.500,-0.500
2188,-0.405,-0.525
2189,-0.330,-0.530
2190,-0.240,-0.505
2191,-0.170,-0.475
2192,-0.095,-0.445
2193,-0.015,-0.390
2194,0.050,-0.315
2195,0.120,-0.285
2196,0.140,-0.245
2197,0.160,-0.195
2198,0.140,-0.190
2199,0.150,-0.145
2200,0.175,-0.125
2201,0.190,-0.145
2202,0.175,-0.135
2203,0.170,-0.090
2204,0.180,-0.095
2205,0.145,-0.105
2206,0.130,-0.115
2207,0.155,-0.120
2208,0.170,-0.125
2209,0.165,-0.150
2210,0.145,-0.160
2211,0.105,-0.180
2212,0.125,-0.165
2213,0.115,-0.165
2214,0.125,-0.165
2215,0.120,-0.170
2216,0.125,-0.185
2217,0.135,-0.160
2218,0.120,-0.180
2219,0.100,-0.135
2220,0.105,-0.140
2221,0.135,-0.160
2222,0.135,-0.170
2223,0.120,-0.185
2224,0.090,-0.170
2225,0.100,-0.145
2226,0.095,-0.160
2227,0.120,-0.165
2228,0.150,-0.150
2229,0.130,-0.155
2230,0.105,-0.165
2231,0.080,-0.170
2232,0.100,-0.185
2233,0.105,-0.145
2234,0.135,-0.150
2235,0.155,-0.205
2236,0.170,-0.195
2237,0.225,-0.165
2238,0.240,-0.085
2239,0.260,-0.045
2240,0.265,-0.075
2241,0.320,-0.090
2242,0.350,-0.125
2243,0.260,-0.115
2244,0.175,-0.185
2245,0.085,-0.185
2246,0.070,-0.175
2247,0.045,-0.150
2248,0.055,-0.170
2249,0.080,-0.190
2250,0.160,-0.170
2251,0.260,-0.090
2252,0.645,0.000
2253,1.165,-0.080
2254,1.270,-0.415
2255,0.115,-0.830
2256,-0.980,-1.345
2257,-1.115,-1.680
2258,-0.890,-1.635
2259,-0.420,-1.230
2260,-0.175,-0.820
2261,-0.045,-0.415
2262,-0.005,-0.225
2263,-0.020,-0.165
2264,-0.020,-0.150
2265,-0.025,-0.125
2266,-0.030,-0.085
2267,-0.030,-0.090
2268,-0.065,-0.090
2269,-0.055,-0.090
2270,-0.025,-0.080
2271,-0.055,-0.095
2272,-0.085,-0.100
2273,-0.075,-0.055
2274,-0.050,-0.050
2275,-0.105,-0.070
2276,-0.090,-0.065
2277,-0.125,-0.075
2278,-0.170,-0.075
2279,-0.205,-0.065
2280,-0.250,-0.060
2281,-0.245,-0.065
2282,-0.295,-0.115
2283,-0.330,-0.090
2284,-0.380,-0.115
2285,-0.445,-0.145
2286,-0.480,-0.145
2287,-0.490,-0.150
2288,-0.525,-0.220
2289,-0.555,-0.215
2290,-0.615,-0.210
2291,-0.630,-0.215
2292,-0.650,-0.225
2293,-0.620,-0.260
2294,-0.575,-0.275
2295,-0.510,-0.270
2296,-0.455,-0.280
2297,-0.390,-0.250
2298,-0.315,-0.220
2299,-0.250,-0.170
2300,-0.165,-0.115
2301,-0.050,-0.080
2302,-0.005,-0.025
2303,0.035,0.000
2304,0.065,0.065
2305,0.070,0.110
2306,0.070,0.105
2307,0.125,0.145
2308,0.150,0.155
2309,0.170,0.180
2310,0.165,0.190
2311,0.155,0.210
2312,0.150,0.200
2313,0.140,0.185
2314,0.155,0.185
2315,0.165,0.185
2316,0.180,0.180
2317,0.135,0.200
2318,0.130,0.190
2319,0.155,0.175
2320,0.140,0.170
2321,0.175,0.205
2322,0.175,0.215
2323,0.175,0.205
2324,0.155,0.220
2325,0.150,0.215
2326,0.170,0.205
2327,0.170,0.200
2328,0.185,0.225
2329,0.185,0.235
2330,0.195,0.235
2331,0.165,0.240
2332,0.155,0.250
2333,0.175,0.260
2334,0.195,0.260
2335,0.195,0.280
2336,0.220,0.265
2337,0.225,0.270
2338,0.180,0.265
2339,0.180,0.240
2340,0.200,0.255
2341,0.210,0.245
2342,0.245,0.280
2343,0.260,0.265
2344,0.275,0.275
2345,0.330,0.330
2346,0.355,0.410
2347,0.360,0.410
2348,0.405,0.385
2349,0.415,0.360
2350,0.465,0.340
2351,0.360,0.340
2352,0.295,0.290
2353,0.260,0.260
2354,0.230,0.275
2355,0.225,0.290
2356,0.205,0.285
2357,0.210,0.285
2358,0.240,0.295
2359,0.340,0.375
2360,0.720,0.475
2361,1.270,0.405
2362,1.435,0.060
2363,0.570,-0.375
2364,-0.780,-0.895
2365,-1.040,-1.295
2366,-0.825,-1.370
2367,-0.365,-0.905
2368,0.000,-0.440
2369,0.095,-0.005
2370,0.150,0.220
2371,0.140,0.300
2372,0.120,0.350
2373,0.120,0.345
2374,0.130,0.390
2375,0.175,0.405
2376,0.150,0.385
2377,0.150,0.410
2378,0.110,0.400
2379,0.095,0.400
2380,0.100,0.405
2381,0.125,0.410
2382,0.120,0.410
2383,0.105,0.395
2384,0.040,0.375
2385,0.020,0.375
2386,-0.020,0.365
2387,-0.040,0.360
2388,-0.050,0.335
2389,-0.080,0.320
2390,-0.140,0.295
2391,-0.225,0.310
2392,-0.270,0.295
2393,-0.315,0.265
2394,-0.355,0.230
2395,-0.380,0.220
2396,-0.425,0.200
2397,-0.455,0.185
2398,-0.505,0.175
2399,-0.530,0.140
2400,-0.545,0.125
2401,-0.510,0.100
2402,-0.485,0.070
2403,-0.435,0.045
2404,-0.380,0.040
2405,-0.305,0.070
2406,-0.230,0.120
2407,-0.155,0.120
2408,-0.040,0.155
2409,0.060,0.200
2410,0.110,0.290
2411,0.130,0.320
2412,0.175,0.355
2413,0.220,0.405
2414,0.250,0.425
2415,0.290,0.440
2416,0.295,0.445
2417,0.270,0.425
2418,0.250,0.435
2419,0.270,0.475
2420,0.260,0.470
2421,0.270,0.470
2422,0.300,0.450
2423,0.270,0.430
2424,0.250,0.450
2425,0.240,0.435
2426,0.240,0.430
2427,0.260,0.410
2428,0.275,0.430
2429,0.265,0.405
2430,0.260,0.425
2431,0.235,0.410
2432,0.230,0.405
2433,0.245,0.410
2434,0.240,0.395
2435,0.255,0.395
2436,0.270,0.395
2437,0.260,0.405
2438,0.250,0.395
2439,0.250,0.375
2440,0.235,0.395
2441,0.240,0.400
2442,0.250,0.400
2443,0.255,0.375
2444,0.240,0.370
2445,0.230,0.355
2446,0.250,0.360
2447,0.260,0.375
2448,0.275,0.385
2449,0.265,0.370
2450,0.260,0.375
2451,0.255,0.370
2452,0.270,0.385
2453,0.315,0.395
2454,0.405,0.400
2455,0.465,0.455
2456,0.455,0.495
2457,0.455,0.480
2458,0.440,0.415
2459,0.475,0.370
2460,0.415,0.365
2461,0.350,0.325
2462,0.280,0.305
2463,0.255,0.335
2464,0.190,0.325
2465,0.180,0.315
2466,0.205,0.300
2467,0.275,0.310
2468,0.390,0.365
2469,0.755,0.445
2470,1.215,0.375
2471,1.335,-0.035
2472,0.500,-0.695
2473,-0.890,-1.215
2474,-1.085,-1.675
2475,-0.700,-1.670
2476,-0.210,-1.095
2477,0.010,-0.510
2478,0.125,-0.010
2479,0.135,0.190
2480,0.150,0.265
2481,0.170,0.290
2482,0.160,0.270
2483,0.165,0.265
2484,0.135,0.295
2485,0.135,0.290
2486,0.130,0.295
2487,0.130,0.305
2488,0.135,0.300
2489,0.115,0.295
2490,0.110,0.300
2491,0.065,0.325
2492,0.065,0.320
2493,0.030,0.325
2494,0.015,0.280
2495,0.000,0.295
2496,-0.035,0.265
2497,-0.050,0.260
2498,-0.105,0.210
2499,-0.155,0.205
2500,-0.210,0.185
2501,-0.240,0.145
2502,-0.285,0.160
2503,-0.340,0.115
2504,-0.400,0.080
2505,-0.455,0.065
2506,-0.465,0.015
2507,-0.515,-0.005
2508,-0.525,-0.015
2509,-0.520,-0.075
2510,-0.540,-0.095
2511,-0.540,-0.090
2512,-0.475,-0.140
2513,-0.385,-0.165
2514,-0.275,-0.155
2515,-0.190,-0.155
2516,-0.100,-0.080
2517,-0.025,-0.040
2518,0.010,-0.010
2519,0.080,0.050
2520,0.145,0.100
2521,0.160,0.140
2522,0.190,0.170
2523,0.200,0.175
2524,0.175,0.205
2525,0.165,0.210
2526,0.185,0.220
2527,0.200,0.225
2528,0.210,0.230
2529,0.190,0.200
2530,0.180,0.205
2531,0.145,0.185
2532,0.150,0.175
2533,0.150,0.170
2534,0.145,0.130
2535,0.165,0.115
2536,0.165,0.145
2537,0.125,0.130
2538,0.120,0.070
2539,0.105,0.100
2540,0.120,0.085
2541,0.115,0.110
2542,0.130,0.085
2543,0.145,0.045
2544,0.130,0.050
2545,0.100,0.045
2546,0.080,0.060
2547,0.105,0.055
2548,0.105,0.040
2549,0.100,0.055
2550,0.110,0.020
2551,0.060,0.010
2552,0.075,0.010
2553,0.075,0.010
2554,0.085,0.010
2555,0.110,0.010
2556,0.095,-0.005
2557,0.075,0.000
2558,0.055,0.015
2559,0.060,-0.010
2560,0.095,-0.020
2561,0.095,-0.010
2562,0.170,-0.015
2563,0.230,0.010
2564,0.190,0.050
2565,0.215,0.095
2566,0.235,0.055
2567,0.250,0.020
2568,0.290,0.000
2569,0.195,-0.030
2570,0.100,-0.105
2571,0.060,-0.090
2572,0.020,-0.110
2573,-0.020,-0.075
2574,0.005,-0.070
2575,0.045,-0.105
2576,0.075,-0.085
2577,0.170,0.010
2578,0.580,0.035
2579,1.075,-0.050
2580,1.195,-0.440
2581,0.045,-0.960
2582,-1.115,-1.475
2583,-1.225,-1.885
2584,-0.940,-1.795
2585,-0.455,-1.295
2586,-0.180,-0.785
2587,-0.060,-0.355
2588,-0.070,-0.190
2589,-0.040,-0.155
2590,-0.065,-0.110
2591,-0.070,-0.115
2592,-0.075,-0.105
2593,-0.070,-0.115
2594,-0.055,-0.095
2595,-0.080,-0.110
2596,-0.070,-0.115
2597,-0.100,-0.130
2598,-0.105,-0.120
2599,-0.125,-0.115
2600,-0.120,-0.140
2601,-0.125,-0.125
2602,-0.160,-0.135
2603,-0.175,-0.140
2604,-0.235,-0.180
2605,-0.265,-0.215
2606,-0.320,-0.175
2607,-0.335,-0.200
2608,-0.350,-0.235
2609,-0.405,-0.255
2610,-0.470,-0.275
2611,-0.530,-0.280
2612,-0.575,-0.320
2613,-0.630,-0.335
2614,-0.635,-0.360
2615,-0.635,-0.415
2616,-0.695,-0.425
2617,-0.740,-0.460
2618,-0.760,-0.475
2619,-0.765,-0.515
2620,-0.755,-0.545
2621,-0.670,-0.550
2622,-0.620,-0.590
2623,-0.535,-0.585
2624,-0.440,-0.565
2625,-0.410,-0.500
2626,-0.380,-0.520
2627,-0.265,-0.450
2628,-0.170,-0.425
2629,-0.120,-0.355
2630,-0.075,-0.280
2631,-0.050,-0.260
2632,-0.060,-0.270
2633,-0.050,-0.250
2634,-0.040,-0.215
2635,-0.015,-0.220
2636,0.000,-0.205
2637,-0.015,-0.205
2638,0.000,-0.215
2639,-0.030,-0.240
2640,-0.040,-0.240
2641,-0.020,-0.265
2642,-0.050,-0.305
2643,-0.050,-0.285
2644,-0.040,-0.285
2645,-0.070,-0.290
2646,-0.070,-0.310
2647,-0.070,-0.315
2648,-0.030,-0.345
2649,-0.035,-0.340
2650,-0.070,-0.335
2651,-0.100,-0.330
2652,-0.095,-0.345
2653,-0.075,-0.335
2654,-0.050,-0.360
2655,-0.085,-0.360
2656,-0.090,-0.350
2657,-0.100,-0.370
2658,-0.120,-0.380
2659,-0.100,-0.375
2660,-0.090,-0.395
2661,-0.110,-0.375
2662,-0.080,-0.380
2663,-0.095,-0.365
2664,-0.125,-0.385
2665,-0.115,-0.380
2666,-0.125,-0.415
2667,-0.135,-0.405
2668,-0.105,-0.380
2669,-0.085,-0.415
2670,-0.115,-0.415
2671,-0.100,-0.425
2672,-0.055,-0.415
2673,-0.005,-0.400
2674,-0.015,-0.360
2675,0.015,-0.350
2676,0.040,-0.355
2677,0.045,-0.405
2678,0.065,-0.420
2679,0.005,-0.420
2680,-0.090,-0.470
2681,-0.135,-0.480
2682,-0.140,-0.475
2683,-0.185,-0.465
2684,-0.200,-0.460
2685,-0.180,-0.500
2686,-0.175,-0.490
2687,-0.085,-0.420
2688,0.260,-0.320
2689,0.905,-0.375
2690,1.140,-0.625
2691,0.185,-1.035
2692,-1.130,-1.560
2693,-1.445,-2.000
2694,-1.260,-2.080
2695,-0.795,-1.675
2696,-0.425,-1.250
2697,-0.300,-0.865
2698,-0.290,-0.635
2699,-0.300,-0.560
2700,-0.275,-0.520
2701,-0.285,-0.495
2702,-0.260,-0.485
2703,-0.265,-0.495
2704,-0.280,-0.475
2705,-0.300,-0.490
2706,-0.315,-0.470
2707,-0.315,-0.480
2708,-0.310,-0.475
2709,-0.305,-0.470
2710,-0.320,-0.490
2711,-0.345,-0.500
2712,-0.370,-0.510
2713,-0.405,-0.505
2714,-0.440,-0.515
2715,-0.460,-0.545
2716,-0.490,-0.565
2717,-0.545,-0.570
2718,-0.605,-0.595
2719,-0.665,-0.610
2720,-0.695,-0.610
2721,-0.750,-0.640
2722,-0.765,-0.680
2723,-0.780,-0.685
2724,-0.830,-0.680
2725,-0.885,-0.715
2726,-0.935,-0.740
2727,-0.950,-0.765
2728,-0.985,-0.780
2729,-0.970,-0.840
2730,-0.935,-0.830
2731,-0.895,-0.870
2732,-0.850,-0.875
2733,-0.785,-0.865
2734,-0.700,-0.855
2735,-0.635,-0.830
2736,-0.525,-0.810
2737,-0.465,-0.755
2738,-0.405,-0.685
2739,-0.345,-0.650
2740,-0.290,-0.620
2741,-0.265,-0.585
2742,-0.250,-0.575
2743,-0.205,-0.540
2744,-0.180,-0.535
2745,-0.190,-0.540
2746,-0.205,-0.535
2747,-0.225,-0.540
2748,-0.220,-0.560
2749,-0.180,-0.565
2750,-0.185,-0.560
2751,-0.205,-0.570
2752,-0.230,-0.585
2753,-0.235,-0.605
2754,-0.225,-0.600
2755,-0.220,-0.605
2756,-0.225,-0.635
2757,-0.240,-0.605
2758,-0.260,-0.620
2759,-0.265,-0.610
2760,-0.275,-0.615
2761,-0.270,-0.590
2762,-0.215,-0.600
2763,-0.210,-0.615
2764,-0.240,-0.625
2765,-0.250,-0.645
2766,-0.270,-0.670
2767,-0.290,-0.655
2768,-0.280,-0.655
2769,-0.270,-0.680
2770,-0.260,-0.665
2771,-0.280,-0.675
2772,-0.295,-0.675
2773,-0.315,-0.670
2774,-0.300,-0.660
2775,-0.285,-0.640
2776,-0.295,-0.675
2777,-0.270,-0.655
2778,-0.290,-0.660
2779,-0.335,-0.655
2780,-0.335,-0.675
2781,-0.310,-0.680
2782,-0.250,-0.680
2783,-0.205,-0.665
2784,-0.160,-0.610
2785,-0.170,-0.535
2786,-0.175,-0.550
2787,-0.140,-0.640
2788,-0.110,-0.655
2789,-0.160,-0.670
2790,-0.240,-0.720
2791,-0.305,-0.740
2792,-0.350,-0.725
2793,-0.375,-0.700
2794,-0.390,-0.725
2795,-0.370,-0.765
2796,-0.350,-0.760
2797,-0.230,-0.685
2798,0.065,-0.595
2799,0.585,-0.660
2800,0.720,-1.025
2801,-0.235,-1.630
2802,-1.495,-2.140
2803,-1.715,-2.700
2804,-1.365,-2.595
2805,-0.835,-1.970
2806,-0.565,-1.410
2807,-0.490,-0.975
2808,-0.460,-0.800
2809,-0.455,-0.750
2810,-0.450,-0.725
2811,-0.470,-0.730
2812,-0.470,-0.735
2813,-0.495,-0.705
2814,-0.485,-0.700
2815,-0.480,-0.705
2816,-0.485,-0.710
2817,-0.490,-0.710
2818,-0.530,-0.720
2819,-0.545,-0.720
2820,-0.560,-0.685
2821,-0.580,-0.700
2822,-0.580,-0.725
2823,-0.605,-0.700
2824,-0.625,-0.730
2825,-0.690,-0.725
2826,-0.740,-0.750
2827,-0.775,-0.770
2828,-0.815,-0.780
2829,-0.850,-0.815
2830,-0.895,-0.865
2831,-0.950,-0.865
2832,-1.010,-0.870
2833,-1.040,-0.900
2834,-1.095,-0.915
2835,-1.105,-0.935
2836,-1.130,-0.970
2837,-1.165,-0.990
2838,-1.180,-1.020
2839,-1.170,-1.045
2840,-1.165,-1.055
2841,-1.070,-1.050
2842,-0.975,-1.070
2843,-0.880,-1.060
2844,-0.815,-1.025
2845,-0.720,-0.985
2846,-0.665,-0.930
2847,-0.575,-0.870
2848,-0.510,-0.800
2849,-0.450,-0.770
2850,-0.410,-0.705
2851,-0.405,-0.685
2852,-0.385,-0.650
2853,-0.360,-0.660
2854,-0.355,-0.640
2855,-0.365,-0.625
2856,-0.380,-0.630
2857,-0.370,-0.635
2858,-0.400,-0.660
2859,-0.425,-0.650
2860,-0.440,-0.675
2861,-0.400,-0.670
2862,-0.380,-0.665
2863,-0.390,-0.665
2864,-0.400,-0.685
2865,-0.435,-0.690
2866,-0.425,-0.710
2867,-0.430,-0.705
2868,-0.410,-0.705
2869,-0.425,-0.705
2870,-0.430,-0.715
2871,-0.435,-0.710
2872,-0.435,-0.715
2873,-0.430,-0.715
2874,-0.400,-0.735
2875,-0.400,-0.730
2876,-0.425,-0.715
2877,-0.425,-0.725
2878,-0.435,-0.715
2879,-0.460,-0.740
2880,-0.430,-0.745
2881,-0.430,-0.740
2882,-0.415,-0.720
2883,-0.430,-0.755
2884,-0.445,-0.750
2885,-0.475,-0.730
2886,-0.470,-0.740
2887,-0.445,-0.740
2888,-0.430,-0.740
2889,-0.435,-0.755
2890,-0.435,-0.735
2891,-0.420,-0.725
2892,-0.335,-0.720
2893,-0.300,-0.670
2894,-0.290,-0.615
2895,-0.275,-0.635
2896,-0.295,-0.705
2897,-0.310,-0.725
2898,-0.375,-0.780
2899,-0.415,-0.845
2900,-0.470,-0.835
2901,-0.500,-0.795
2902,-0.510,-0.780
2903,-0.535,-0.795
2904,-0.540,-0.805
2905,-0.535,-0.815
2906,-0.395,-0.715
2907,-0.065,-0.675
2908,0.445,-0.725
2909,0.600,-1.085
2910,-0.165,-1.690
2911,-1.550,-2.290
2912,-1.945,-2.830
2913,-1.655,-2.860
2914,-1.085,-2.185
2915,-0.740,-1.585
2916,-0.635,-1.090
2917,-0.635,-0.875
2918,-0.670,-0.825
2919,-0.635,-0.820
2920,-0.625,-0.785
2921,-0.630,-0.750
2922,-0.635,-0.775
2923,-0.620,-0.760
2924,-0.660,-0.770
2925,-0.685,-0.750
2926,-0.700,-0.750
2927,-0.700,-0.730
2928,-0.695,-0.750
2929,-0.685,-0.760
2930,-0.730,-0.755
2931,-0.760,-0.775
2932,-0.785,-0.765
2933,-0.830,-0.775
2934,-0.825,-0.795
2935,-0.860,-0.825
2936,-0.900,-0.835
2937,-0.960,-0.835
2938,-1.015,-0.865
2939,-1.065,-0.885
2940,-1.110,-0.910
2941,-1.155,-0.925
2942,-1.195,-0.965
2943,-1.220,-0.985
2944,-1.270,-0.970
2945,-1.310,-1.030
2946,-1.330,-1.045
2947,-1.345,-1.095
2948,-1.305,-1.110
2949,-1.305,-1.140
2950,-1.245,-1.135
2951,-1.210,-1.180
2952,-1.135,-1.155
2953,-1.055,-1.140
2954,-0.945,-1.120
2955,-0.850,-1.065
2956,-0.775,-1.015
2957,-0.760,-0.955
2958,-0.720,-0.920
2959,-0.645,-0.860
2960,-0.615,-0.840
2961,-0.585,-0.810
2962,-0.575,-0.760
2963,-0.570,-0.740
2964,-0.585,-0.720
2965,-0.585,-0.755
2966,-0.620,-0.740
2967,-0.625,-0.735
2968,-0.595,-0.765
2969,-0.580,-0.770
2970,-0.595,-0.750
2971,-0.620,-0.780
2972,-0.620,-0.760
2973,-0.625,-0.790
2974,-0.645,-0.785
2975,-0.580,-0.810
2976,-0.615,-0.810
2977,-0.630,-0.800
2978,-0.675,-0.830
2979,-0.655,-0.805
2980,-0.630,-0.825
2981,-0.635,-0.815
2982,-0.655,-0.820
2983,-0.620,-0.850
2984,-0.640,-0.880
2985,-0.665,-0.870
2986,-0.650,-0.860
2987,-0.665,-0.880
2988,-0.670,-0.870
2989,-0.660,-0.880
2990,-0.660,-0.895
2991,-0.670,-0.845
2992,-0.645,-0.890
2993,-0.660,-0.880
2994,-0.660,-0.890
2995,-0.645,-0.885
2996,-0.655,-0.890
2997,-0.665,-0.845
2998,-0.680,-0.885
2999,-0.650,-0.865
3000,-0.630,-0.860
3001,-0.570,-0.830
3002,-0.495,-0.790
3003,-0.505,-0.760
3004,-0.515,-0.755
3005,-0.530,-0.775
3006,-0.530,-0.815
3007,-0.505,-0.895
3008,-0.580,-0.930
3009,-0.620,-0.920
3010,-0.640,-0.935
3011,-0.690,-0.880
3012,-0.740,-0.885
3013,-0.745,-0.905
3014,-0.745,-0.900
3015,-0.635,-0.890
3016,-0.505,-0.790
3017,-0.035,-0.710
3018,0.415,-0.845
3019,0.460,-1.195
3020,-0.745,-1.640
3021,-1.890,-2.240
3022,-2.010,-2.670
3023,-1.730,-2.550
3024,-1.160,-1.960
3025,-0.935,-1.550
3026,-0.870,-1.095
3027,-0.830,-0.975
3028,-0.825,-0.940
3029,-0.810,-0.930
3030,-0.820,-0.885
3031,-0.835,-0.885
3032,-0.845,-0.915
3033,-0.840,-0.890
3034,-0.820,-0.900
3035,-0.845,-0.885
3036,-0.860,-0.900
3037,-0.865,-0.895
3038,-0.890,-0.880
3039,-0.905,-0.890
3040,-0.930,-0.890
3041,-0.945,-0.905
3042,-0.970,-0.935
3043,-0.980,-0.935
3044,-1.010,-0.930
3045,-1.050,-0.930
3046,-1.120,-0.945
3047,-1.175,-0.935
3048,-1.210,-0.970
3049,-1.250,-1.020
3050,-1.275,-1.015
3051,-1.295,-1.025
3052,-1.385,-1.040
3053,-1.390,-1.075
3054,-1.460,-1.075
3055,-1.470,-1.105
3056,-1.475,-1.140
3057,-1.480,-1.170
3058,-1.465,-1.175
3059,-1.475,-1.210
3060,-1.410,-1.205
3061,-1.310,-1.205
3062,-1.215,-1.190
3063,-1.150,-1.145
3064,-1.080,-1.120
3065,-1.065,-1.090
3066,-0.975,-1.025
3067,-0.905,-0.985
3068,-0.840,-0.945
3069,-0.780,-0.910
3070,-0.760,-0.860
3071,-0.745,-0.830
3072,-0.715,-0.825
3073,-0.710,-0.790
3074,-0.730,-0.805
3075,-0.675,-0.825
3076,-0.695,-0.815
3077,-0.705,-0.800
3078,-0.715,-0.815
3079,-0.730,-0.800
3080,-0.750,-0.835
3081,-0.740,-0.825
3082,-0.725,-0.830
3083,-0.720,-0.840
3084,-0.720,-0.830
3085,-0.735,-0.840
3086,-0.740,-0.840
3087,-0.750,-0.845
3088,-0.730,-0.840
3089,-0.705,-0.830
3090,-0.705,-0.845
3091,-0.715,-0.820
3092,-0.745,-0.820
3093,-0.710,-0.850
3094,-0.715,-0.830
3095,-0.705,-0.830
3096,-0.695,-0.830
3097,-0.690,-0.815
3098,-0.735,-0.840
3099,-0.735,-0.820
3100,-0.710,-0.805
3101,-0.700,-0.830
3102,-0.680,-0.830
3103,-0.680,-0.825
3104,-0.695,-0.830
3105,-0.700,-0.825
3106,-0.690,-0.835
3107,-0.685,-0.845
3108,-0.675,-0.830
3109,-0.670,-0.830
3110,-0.625,-0.860
3111,-0.545,-0.810
3112,-0.560,-0.780
3113,-0.525,-0.740
3114,-0.535,-0.735
3115,-0.505,-0.755
3116,-0.520,-0.780
3117,-0.530,-0.875
3118,-0.590,-0.905
3119,-0.660,-0.905
3120,-0.715,-0.860
3121,-0.715,-0.885
3122,-0.695,-0.890
3123,-0.700,-0.895
3124,-0.660,-0.875
3125,-0.600,-0.825
3126,-0.320,-0.720
3127,0.225,-0.755
3128,0.520,-1.030
3129,-0.010,-1.460
3130,-1.445,-2.055
3131,-2.090,-2.590
3132,-1.955,-2.765
3133,-1.420,-2.265
3134,-0.950,-1.725
3135,-0.790,-1.240
3136,-0.740,-0.980
3137,-0.720,-0.870
3138,-0.730,-0.860
3139,-0.730,-0.830
3140,-0.730,-0.820
3141,-0.710,-0.785
3142,-0.710,-0.815
3143,-0.720,-0.775
3144,-0.740,-0.790
3145,-0.755,-0.800
3146,-0.755,-0.805
3147,-0.760,-0.805
3148,-0.740,-0.810
3149,-0.775,-0.815
3150,-0.790,-0.795
3151,-0.835,-0.810
3152,-0.850,-0.810
3153,-0.890,-0.820
3154,-0.925,-0.845
3155,-0.955,-0.830
3156,-1.005,-0.875
3157,-1.050,-0.885
3158,-1.090,-0.895
3159,-1.160,-0.915
3160,-1.195,-0.960
3161,-1.210,-0.990
3162,-1.255,-1.005
3163,-1.275,-1.040
3164,-1.335,-1.035
3165,-1.385,-1.070
3166,-1.390,-1.080
3167,-1.375,-1.110
3168,-1.315,-1.150
3169,-1.270,-1.145
3170,-1.205,-1.140
3171,-1.150,-1.155
3172,-1.080,-1.105
3173,-0.990,-1.080
3174,-0.875,-1.045
3175,-0.780,-1.000
3176,-0.725,-0.915
3177,-0.670,-0.895
3178,-0.625,-0.815
3179,-0.600,-0.810
3180,-0.580,-0.770
3181,-0.525,-0.765
3182,-0.505,-0.750
3183,-0.510,-0.715
3184,-0.530,-0.715
3185,-0.535,-0.720
3186,-0.545,-0.730
3187,-0.560,-0.710
3188,-0.510,-0.730
3189,-0.495,-0.730
3190,-0.520,-0.730
3191,-0.545,-0.745
3192,-0.535,-0.760
3193,-0.545,-0.755
3194,-0.530,-0.740
3195,-0.515,-0.770
3196,-0.525,-0.760
3197,-0.545,-0.765
3198,-0.575,-0.770
3199,-0.555,-0.750
3200,-0.545,-0.765
3201,-0.530,-0.745
3202,-0.495,-0.765
3203,-0.525,-0.755
3204,-0.525,-0.755
3205,-0.555,-0.740
3206,-0.545,-0.760
3207,-0.540,-0.755
3208,-0.515,-0.740
3209,-0.500,-0.765
3210,-0.520,-0.765
3211,-0.540,-0.755
3212,-0.540,-0.745
3213,-0.540,-0.745
3214,-0.540,-0.735
3215,-0.505,-0.730
3216,-0.490,-0.755
3217,-0.520,-0.750
3218,-0.515,-0.720
3219,-0.530,-0.740
3220,-0.485,-0.720
3221,-0.385,-0.705
3222,-0.300,-0.640
3223,-0.325,-0.590
3224,-0.360,-0.600
3225,-0.365,-0.635
3226,-0.360,-0.670
3227,-0.365,-0.755
3228,-0.400,-0.795
3229,-0.415,-0.775
3230,-0.460,-0.750
3231,-0.510,-0.730
3232,-0.530,-0.735
3233,-0.540,-0.735
3234,-0.500,-0.730
3235,-0.390,-0.700
3236,-0.190,-0.595
3237,0.290,-0.620
3238,0.575,-0.800
3239,0.360,-1.360
3240,-1.060,-2.000
3241,-1.950,-2.555
3242,-1.830,-2.885
3243,-1.270,-2.385
3244,-0.820,-1.765
3245,-0.680,-1.215
3246,-0.580,-0.860
3247,-0.550,-0.745
3248,-0.545,-0.705
3249,-0.535,-0.705
3250,-0.540,-0.680
3251,-0.550,-0.675
3252,-0.575,-0.675
3253,-0.580,-0.665
3254,-0.560,-0.670
3255,-0.545,-0.680
3256,-0.545,-0.650
3257,-0.565,-0.655
3258,-0.625,-0.630
3259,-0.630,-0.630
3260,-0.640,-0.650
3261,-0.650,-0.640
3262,-0.655,-0.655
3263,-0.700,-0.660
3264,-0.745,-0.680
3265,-0.780,-0.705
3266,-0.825,-0.730
3267,-0.880,-0.750
3268,-0.915,-0.740
3269,-0.940,-0.775
3270,-0.980,-0.790
3271,-1.030,-0.810
3272,-1.105,-0.845
3273,-1.155,-0.865
3274,-1.195,-0.870
3275,-1.190,-0.910
3276,-1.190,-0.940
3277,-1.190,-0.955
3278,-1.220,-0.990
3279,-1.200,-0.995
3280,-1.140,-1.015
3281,-1.030,-1.000
3282,-0.925,-0.995
3283,-0.825,-0.960
3284,-0.780,-0.930
3285,-0.685,-0.880
3286,-0.605,-0.820
3287,-0.560,-0.750
3288,-0.475,-0.685
3289,-0.435,-0.660
3290,-0.410,-0.620
3291,-0.420,-0.580
3292,-0.430,-0.585
3293,-0.405,-0.555
3294,-0.390,-0.510
3295,-0.380,-0.515
3296,-0.355,-0.540
3297,-0.390,-0.520
3298,-0.395,-0.520
3299,-0.385,-0.525
3300,-0.395,-0.530
3301,-0.380,-0.540
3302,-0.340,-0.545
3303,-0.345,-0.535
3304,-0.350,-0.540
3305,-0.360,-0.535
3306,-0.375,-0.535
3307,-0.350,-0.560
3308,-0.315,-0.555
3309,-0.280,-0.495
3310,-0.290,-0.495
3311,-0.295,-0.495
3312,-0.320,-0.515
3313,-0.305,-0.505
3314,-0.290,-0.470
3315,-0.245,-0.480
3316,-0.255,-0.450
3317,-0.255,-0.450
3318,-0.260,-0.440
3319,-0.245,-0.445
3320,-0.215,-0.425
3321,-0.200,-0.400
3322,-0.175,-0.405
3323,-0.165,-0.390
3324,-0.155,-0.355
3325,-0.200,-0.360
3326,-0.145,-0.315
3327,-0.140,-0.290
3328,-0.105,-0.285
3329,-0.065,-0.260
3330,-0.020,-0.250
3331,0.045,-0.190
3332,0.085,-0.120
3333,0.115,-0.055
3334,0.175,-0.045
3335,0.175,-0.050
3336,0.210,-0.035
3337,0.190,-0.130
3338,0.120,-0.160
3339,0.085,-0.120
3340,0.090,-0.040
3341,0.100,0.005
3342,0.135,0.035
3343,0.160,0.020
3344,0.200,0.060
3345,0.270,0.155
3346,0.440,0.270
3347,0.970,0.285
3348,1.335,0.110
3349,1.280,-0.345
3350,-0.160,-0.890
3351,-1.035,-1.345
3352,-0.870,-1.620
3353,-0.370,-1.215
3354,0.070,-0.620
3355,0.320,-0.060
3356,0.385,0.300
3357,0.400,0.455
3358,0.415,0.540
3359,0.470,0.575
3360,0.495,0.630
3361,0.520,0.670
3362,0.545,0.705
3363,0.570,0.735
3364,0.555,0.770
3365,0.570,0.810
3366,0.630,0.835
3367,0.640,0.850
3368,0.660,0.900
3369,0.685,0.945
3370,0.655,0.965
3371,0.630,0.985
3372,0.650,0.995
3373,0.650,1.020
3374,0.645,1.040
3375,0.625,1.080
3376,0.630,1.060
3377,0.600,1.080
3378,0.560,1.095
3379,0.515,1.070
3380,0.520,1.070
3381,0.495,1.095
3382,0.480,1.130
3383,0.480,1.140
3384,0.455,1.130
3385,0.430,1.130
3386,0.440,1.125
3387,0.500,1.140
3388,0.550,1.150
3389,0.645,1.145
3390,0.695,1.185
3391,0.790,1.185
3392,0.900,1.245
3393,1.055,1.310
3394,1.135,1.380
3395,1.255,1.450
3396,1.310,1.540
3397,1.375,1.615
3398,1.420,1.675
3399,1.485,1.755
3400,1.565,1.795
3401,1.575,1.830
3402,1.595,1.875
3403,1.615,1.905
3404,1.600,1.945
3405,1.630,1.945
3406,1.640,1.980
3407,1.685,1.985
3408,1.715,2.015
3409,1.730,2.025
3410,1.730,2.055
3411,1.715,2.050
3412,1.735,2.060
3413,1.770,2.075
3414,1.785,2.065
3415,1.800,2.125
3416,1.770,2.120
3417,1.785,2.160
3418,1.815,2.135
3419,1.855,2.175
3420,1.890,2.185
3421,1.870,2.205
3422,1.890,2.225
3423,1.890,2.230
3424,1.890,2.240
3425,1.910,2.255
3426,1.945,2.260
3427,1.950,2.275
3428,1.965,2.320
3429,2.000,2.335
3430,1.975,2.315
3431,1.995,2.340
3432,2.005,2.350
3433,2.035,2.370
3434,2.045,2.395
3435,2.065,2.375
3436,2.075,2.405
3437,2.055,2.420
3438,2.090,2.430
3439,2.170,2.425
3440,2.225,2.485
3441,2.235,2.560
3442,2.265,2.550
3443,2.240,2.540
3444,2.220,2.500
3445,2.245,2.455
3446,2.225,2.425
3447,2.215,2.425
3448,2.195,2.490
3449,2.160,2.500
3450,2.125,2.515
3451,2.125,2.490
3452,2.165,2.510
3453,2.250,2.545
3454,2.375,2.660
3455,2.795,2.675
3456,3.135,2.545
3457,3.025,2.255
3458,1.760,1.770
3459,1.005,1.355
3460,1.130,1.090
3461,1.490,1.365
3462,1.910,1.800
3463,2.085,2.205
3464,2.165,2.465
3465,2.165,2.550
3466,2.195,2.605
3467,2.200,2.625
3468,2.195,2.640
3469,2.195,2.645
3470,2.190,2.645
3471,2.195,2.655
3472,2.200,2.660
3473,2.215,2.655
3474,2.240,2.670
3475,2.215,2.680
3476,2.175,2.670
3477,2.155,2.655
3478,2.130,2.660
3479,2.165,2.660
3480,2.155,2.660
3481,2.085,2.665
3482,2.055,2.650
3483,2.005,2.625
3484,1.990,2.605
3485,1.960,2.590
3486,1.925,2.560
3487,1.885,2.550
3488,1.850,2.540
3489,1.795,2.530
3490,1.735,2.510
3491,1.690,2.485
3492,1.690,2.480
3493,1.685,2.470
3494,1.680,2.455
3495,1.660,2.445
3496,1.635,2.430
3497,1.655,2.420
3498,1.735,2.400
3499,1.815,2.420
3500,1.885,2.405
3501,1.980,2.445
3502,2.010,2.455
3503,2.065,2.465
3504,2.125,2.500
3505,2.180,2.545
3506,2.245,2.585
3507,2.270,2.615
3508,2.265,2.630
3509,2.285,2.630
3510,2.295,2.640
3511,2.290,2.625
3512,2.305,2.635
3513,2.315,2.640
3514,2.295,2.610
3515,2.260,2.605
3516,2.265,2.625
3517,2.265,2.605
3518,2.265,2.595
3519,2.280,2.590
3520,2.270,2.565
3521,2.250,2.590
3522,2.225,2.535
3523,2.210,2.535
3524,2.205,2.530
3525,2.205,2.525
3526,2.205,2.535
3527,2.200,2.535
3528,2.200,2.535
3529,2.180,2.515
3530,2.160,2.505
3531,2.170,2.500
3532,2.175,2.485
3533,2.175,2.450
3534,2.155,2.460
3535,2.140,2.460
3536,2.110,2.440
3537,2.090,2.450
3538,2.105,2.435
3539,2.115,2.430
3540,2.090,2.435
3541,2.100,2.445
3542,2.095,2.435
3543,2.045,2.400
3544,2.040,2.400
3545,2.060,2.390
3546,2.065,2.415
3547,2.035,2.375
3548,2.045,2.365
3549,2.045,2.360
3550,2.080,2.370
3551,2.115,2.405
3552,2.115,2.415
3553,2.115,2.400
3554,2.085,2.390
3555,2.075,2.300
3556,2.030,2.215
3557,1.970,2.210
3558,1.935,2.225
3559,1.910,2.245
3560,1.880,2.245
3561,1.875,2.235
3562,1.860,2.210
3563,1.860,2.190
3564,1.955,2.245
3565,2.220,2.285
3566,2.570,2.230
3567,2.685,1.930
3568,2.050,1.380
3569,0.830,0.845
3570,0.485,0.370
3571,0.770,0.305
3572,1.245,0.840
3573,1.560,1.425
3574,1.660,1.840
3575,1.675,2.030
3576,1.660,2.065
3577,1.650,2.090
3578,1.640,2.065
3579,1.635,2.065
3580,1.630,2.065
3581,1.635,2.085
3582,1.590,2.075
3583,1.575,2.045
3584,1.555,2.035
3585,1.535,2.020
3586,1.520,2.010
3587,1.505,2.015
3588,1.490,2.000
3589,1.445,2.000
3590,1.405,1.965
3591,1.355,1.965
3592,1.320,1.920
3593,1.295,1.920
3594,1.245,1.910
3595,1.195,1.865
3596,1.110,1.860
3597,1.050,1.830
3598,1.005,1.805
3599,0.945,1.785
3600,0.910,1.730
3601,0.870,1.730
3602,0.810,1.695
3603,0.745,1.660
3604,0.685,1.620
3605,0.695,1.560
3606,0.670,1.520
3607,0.695,1.525
3608,0.725,1.500
3609,0.785,1.480
3610,0.835,1.470
3611,0.890,1.445
3612,0.965,1.475
3613,1.070,1.515
3614,1.125,1.515
3615,1.190,1.560
3616,1.205,1.580
3617,1.220,1.615
3618,1.250,1.635
3619,1.270,1.660
3620,1.330,1.660
3621,1.310,1.660
3622,1.280,1.675
3623,1.240,1.680
3624,1.235,1.635
3625,1.225,1.620
3626,1.210,1.630
3627,1.220,1.630
3628,1.200,1.600
3629,1.160,1.575
3630,1.135,1.560
3631,1.110,1.545
3632,1.115,1.520
3633,1.105,1.505
3634,1.100,1.470
3635,1.065,1.460
3636,1.065,1.435
3637,1.030,1.390
3638,1.035,1.400
3639,1.050,1.415
3640,1.015,1.375
3641,1.005,1.365
3642,1.000,1.335
3643,0.970,1.330
3644,0.940,1.300
3645,0.935,1.295
3646,0.925,1.295
3647,0.920,1.275
3648,0.910,1.290
3649,0.905,1.270
3650,0.855,1.240
3651,0.830,1.230
3652,0.830,1.210
3653,0.855,1.185
3654,0.835,1.190
3655,0.810,1.170
3656,0.795,1.170
3657,0.780,1.145
3658,0.785,1.100
3659,0.775,1.090
3660,0.845,1.075
3661,0.875,1.110
3662,0.865,1.130
3663,0.835,1.120
3664,0.800,1.080
3665,0.760,1.015
3666,0.795,0.955
3667,0.765,0.890
3668,0.735,0.905
3669,0.635,0.905
3670,0.580,0.885
3671,0.530,0.870
3672,0.540,0.835
3673,0.575,0.845
3674,0.625,0.855
3675,0.760,0.920
3676,1.140,0.880
3677,1.435,0.705
3678,1.360,0.180
3679,0.130,-0.450
3680,-0.850,-1.025
3681,-0.785,-1.430
3682,-0.340,-1.070
3683,0.075,-0.405
3684,0.245,0.170
3685,0.300,0.530
3686,0.325,0.635
3687,0.300,0.635
3688,0.280,0.635
3689,0.250,0.645
3690,0.220,0.625
3691,0.220,0.620
3692,0.205,0.595
3693,0.180,0.595
3694,0.195,0.580
3695,0.180,0.580
3696,0.145,0.560
3697,0.100,0.555
3698,0.070,0.545
3699,0.040,0.520
3700,0.025,0.510
3701,0.000,0.480
3702,-0.030,0.460
3703,-0.100,0.410
3704,-0.145,0.405
3705,-0.210,0.375
3706,-0.235,0.350
3707,-0.285,0.310
3708,-0.365,0.275
3709,-0.410,0.245
3710,-0.505,0.210
3711,-0.565,0.180
3712,-0.600,0.115
3713,-0.610,0.090
3714,-0.665,0.055
3715,-0.725,0.025
3716,-0.740,-0.015
3717,-0.730,-0.065
3718,-0.700,-0.080
3719,-0.650,-0.100
3720,-0.580,-0.160
3721,-0.490,-0.145
3722,-0.385,-0.125
3723,-0.370,-0.090
3724,-0.310,-0.075
3725,-0.230,-0.050
3726,-0.185,0.005
3727,-0.135,0.050
3728,-0.140,0.085
3729,-0.100,0.105
3730,-0.140,0.105
3731,-0.120,0.105
3732,-0.130,0.125
3733,-0.135,0.130
3734,-0.135,0.135
3735,-0.185,0.130
3736,-0.200,0.090
3737,-0.210,0.065
3738,-0.240,0.015
3739,-0.210,0.020
3740,-0.190,0.000
3741,-0.215,0.000
3742,-0.270,-0.020
3743,-0.295,-0.060
3744,-0.295,-0.050
3745,-0.300,-0.080
3746,-0.285,-0.085
3747,-0.270,-0.110
3748,-0.280,-0.125
3749,-0.295,-0.135
3750,-0.365,-0.155
3751,-0.340,-0.175
3752,-0.365,-0.190
3753,-0.325,-0.200
3754,-0.365,-0.220
3755,-0.380,-0.215
3756,-0.390,-0.235
3757,-0.395,-0.270
3758,-0.435,-0.280
3759,-0.425,-0.265
3760,-0.415,-0.280
3761,-0.425,-0.310
3762,-0.460,-0.325
3763,-0.485,-0.310
3764,-0.465,-0.360
3765,-0.490,-0.360
3766,-0.495,-0.380
3767,-0.470,-0.370
3768,-0.465,-0.390
3769,-0.430,-0.380
3770,-0.415,-0.355
3771,-0.395,-0.320
3772,-0.380,-0.340
3773,-0.360,-0.370
3774,-0.405,-0.380
3775,-0.400,-0.450
3776,-0.520,-0.555
3777,-0.550,-0.540
3778,-0.585,-0.555
3779,-0.635,-0.530
3780,-0.590,-0.540
3781,-0.605,-0.585
3782,-0.645,-0.585
3783,-0.595,-0.585
3784,-0.515,-0.505
3785,-0.125,-0.435
3786,0.400,-0.555
3787,0.525,-0.900
3788,-0.605,-1.345
3789,-1.875,-1.985
3790,-2.100,-2.500
3791,-1.865,-2.410
3792,-1.265,-1.780
3793,-0.915,-1.315
3794,-0.830,-0.945
3795,-0.810,-0.730
3796,-0.850,-0.715
3797,-0.825,-0.710
3798,-0.825,-0.690
3799,-0.895,-0.710
3800,-0.865,-0.695
3801,-0.860,-0.700
3802,-0.870,-0.730
3803,-0.905,-0.760
3804,-0.965,-0.740
3805,-0.970,-0.765
3806,-0.945,-0.790
3807,-0.965,-0.805
3808,-0.985,-0.805
3809,-1.045,-0.810
3810,-1.090,-0.830
3811,-1.125,-0.835
3812,-1.150,-0.865
3813,-1.180,-0.870
3814,-1.215,-0.895
3815,-1.265,-0.935
3816,-1.350,-0.970
3817,-1.410,-0.990
3818,-1.455,-1.030
3819,-1.525,-1.055
3820,-1.520,-1.060
3821,-1.575,-1.095
3822,-1.615,-1.110
3823,-1.715,-1.185
3824,-1.740,-1.175
3825,-1.710,-1.190
3826,-1.680,-1.265
3827,-1.655,-1.280
3828,-1.615,-1.255
3829,-1.570,-1.260
3830,-1.505,-1.255
3831,-1.430,-1.250
3832,-1.360,-1.200
3833,-1.235,-1.145
3834,-1.170,-1.155
3835,-1.105,-1.085
3836,-1.125,-1.045
3837,-1.075,-1.010
3838,-1.020,-1.005
3839,-1.000,-0.980
3840,-1.000,-1.015
3841,-0.985,-0.980
3842,-1.010,-0.960
3843,-1.010,-1.010
3844,-1.025,-1.000
3845,-1.030,-0.995
3846,-1.025,-1.015
3847,-1.000,-1.030
3848,-1.025,-1.035
3849,-1.055,-1.025
3850,-1.085,-1.055
3851,-1.095,-1.060
3852,-1.080,-1.060
3853,-1.065,-1.095
3854,-1.070,-1.090
3855,-1.090,-1.065
3856,-1.105,-1.095
3857,-1.135,-1.110
3858,-1.080,-1.110
3859,-1.100,-1.100
3860,-1.100,-1.110
3861,-1.090,-1.120
3862,-1.095,-1.135
3863,-1.095,-1.135
3864,-1.135,-1.160
3865,-1.140,-1.145
3866,-1.135,-1.140
3867,-1.100,-1.155
3868,-1.100,-1.155
3869,-1.115,-1.155
3870,-1.120,-1.155
3871,-1.130,-1.190
3872,-1.115,-1.190
3873,-1.115,-1.190
3874,-1.125,-1.180
3875,-1.115,-1.205
3876,-1.125,-1.185
3877,-1.140,-1.175
3878,-1.120,-1.180
3879,-1.065,-1.180
3880,-0.975,-1.160
3881,-0.955,-1.090
3882,-0.960,-1.080
3883,-0.975,-1.100
3884,-1.015,-1.140
3885,-0.990,-1.250
3886,-1.025,-1.295
3887,-1.030,-1.310
3888,-1.100,-1.285
3889,-1.160,-1.245
3890,-1.180,-1.255
3891,-1.185,-1.265
3892,-1.165,-1.250
3893,-1.100,-1.235
3894,-0.995,-1.150
3895,-0.615,-1.125
3896,-0.115,-1.250
3897,0.000,-1.610
3898,-1.105,-2.185
3899,-2.450,-2.855
3900,-2.595,-3.260
3901,-2.310,-3.205
3902,-1.745,-2.605
3903,-1.435,-1.970
3904,-1.300,-1.515
3905,-1.245,-1.375
3906,-1.230,-1.310
3907,-1.190,-1.290
3908,-1.210,-1.275
3909,-1.230,-1.260
3910,-1.220,-1.260
3911,-1.225,-1.260
3912,-1.230,-1.250
3913,-1.250,-1.270
3914,-1.235,-1.270
3915,-1.240,-1.270
3916,-1.295,-1.255
3917,-1.290,-1.270
3918,-1.315,-1.280
3919,-1.345,-1.285
3920,-1.360,-1.310
3921,-1.365,-1.310
3922,-1.430,-1.340
3923,-1.475,-1.340
3924,-1.535,-1.360
3925,-1.570,-1.355
3926,-1.605,-1.395
3927,-1.675,-1.405
3928,-1.710,-1.475
3929,-1.780,-1.520
3930,-1.830,-1.520
3931,-1.900,-1.555
3932,-1.960,-1.625
3933,-1.965,-1.650
3934,-1.985,-1.710
3935,-1.990,-1.725
3936,-2.000,-1.730
3937,-1.995,-1.765
3938,-1.930,-1.800
3939,-1.850,-1.775
3940,-1.720,-1.725
3941,-1.600,-1.695
3942,-1.530,-1.655
3943,-1.460,-1.595
3944,-1.365,-1.545
3945,-1.305,-1.465
3946,-1.245,-1.425
3947,-1.140,-1.395
3948,-1.145,-1.365
3949,-1.155,-1.360
3950,-1.130,-1.315
3951,-1.125,-1.310
3952,-1.115,-1.310
3953,-1.085,-1.310
3954,-1.080,-1.295
3955,-1.100,-1.290
3956,-1.115,-1.290
3957,-1.125,-1.320
3958,-1.105,-1.325
3959,-1.120,-1.360
3960,-1.100,-1.350
3961,-1.090,-1.355
3962,-1.100,-1.360
3963,-1.145,-1.365
3964,-1.135,-1.385
3965,-1.155,-1.375
3966,-1.120,-1.360
3967,-1.075,-1.365
3968,-1.065,-1.325
3969,-1.105,-1.355
3970,-1.105,-1.360
3971,-1.115,-1.355
3972,-1.115,-1.360
3973,-1.090,-1.375
3974,-1.080,-1.385
3975,-1.095,-1.380
3976,-1.110,-1.400
3977,-1.105,-1.360
3978,-1.100,-1.365
3979,-1.120,-1.395
3980,-1.075,-1.380
3981,-1.065,-1.365
3982,-1.095,-1.365
3983,-1.115,-1.380
3984,-1.100,-1.390
3985,-1.090,-1.355
3986,-1.060,-1.365
3987,-1.050,-1.385
3988,-1.050,-1.380
3989,-1.015,-1.375
3990,-0.980,-1.320
3991,-0.915,-1.255
3992,-0.895,-1.210
3993,-0.880,-1.235
3994,-0.920,-1.260
3995,-0.930,-1.320
3996,-0.950,-1.405
3997,-1.000,-1.430
3998,-1.050,-1.415
3999,-1.050,-1.360
4000,-1.050,-1.370
4001,-1.075,-1.365
4002,-1.045,-1.375
4003,-1.030,-1.355
4004,-0.920,-1.255
4005,-0.550,-1.190
4006,-0.035,-1.285
4007,0.070,-1.760
4008,-0.775,-2.390
4009,-2.240,-3.055
4010,-2.545,-3.575
4011,-2.160,-3.445
4012,-1.615,-2.760
4013,-1.210,-2.055
4014,-1.085,-1.570
4015,-1.090,-1.400
4016,-1.080,-1.360
4017,-1.110,-1.305
4018,-1.120,-1.280
4019,-1.075,-1.280
4020,-1.060,-1.275
4021,-1.080,-1.265
4022,-1.080,-1.265
4023,-1.110,-1.285
4024,-1.115,-1.260
4025,-1.130,-1.250
4026,-1.120,-1.260
4027,-1.100,-1.250
4028,-1.130,-1.245
4029,-1.155,-1.265
4030,-1.185,-1.250
4031,-1.215,-1.260
4032,-1.245,-1.285
4033,-1.260,-1.265
4034,-1.300,-1.290
4035,-1.360,-1.325
4036,-1.425,-1.320
4037,-1.485,-1.385
4038,-1.550,-1.375
4039,-1.560,-1.405
4040,-1.565,-1.440
4041,-1.620,-1.460
4042,-1.645,-1.480
4043,-1.720,-1.525
4044,-1.735,-1.535
4045,-1.765,-1.570
4046,-1.730,-1.605
4047,-1.655,-1.615
4048,-1.610,-1.630
4049,-1.515,-1.610
4050,-1.440,-1.580
4051,-1.360,-1.550
4052,-1.215,-1.485
4053,-1.145,-1.455
4054,-1.060,-1.425
4055,-0.990,-1.350
4056,-0.940,-1.290
4057,-0.920,-1.250
4058,-0.915,-1.210
4059,-0.915,-1.175
4060,-0.875,-1.170
4061,-0.845,-1.175
4062,-0.870,-1.155
4063,-0.870,-1.145
4064,-0.885,-1.155
4065,-0.900,-1.160
4066,-0.885,-1.175
4067,-0.885,-1.190
4068,-0.885,-1.180
4069,-0.895,-1.190
4070,-0.905,-1.210
4071,-0.925,-1.190
4072,-0.920,-1.190
4073,-0.865,-1.200
4074,-0.915,-1.200
4075,-0.905,-1.180
4076,-0.900,-1.180
4077,-0.940,-1.205
4078,-0.895,-1.165
4079,-0.900,-1.150
4080,-0.895,-1.170
4081,-0.870,-1.195
4082,-0.875,-1.170
4083,-0.900,-1.170
4084,-0.910,-1.175
4085,-0.895,-1.180
4086,-0.880,-1.180
4087,-0.880,-1.170
4088,-0.875,-1.170
4089,-0.895,-1.175
4090,-0.905,-1.165
4091,-0.880,-1.150
4092,-0.885,-1.145
4093,-0.850,-1.155
4094,-0.840,-1.155
4095,-0.855,-1.150
4096,-0.865,-1.140
4097,-0.885,-1.165
4098,-0.870,-1.110
4099,-0.810,-1.135
4100,-0.745,-1.095
4101,-0.695,-1.025
4102,-0.690,-0.995
4103,-0.705,-1.030
4104,-0.735,-1.085
4105,-0.725,-1.155
4106,-0.770,-1.200
4107,-0.790,-1.230
4108,-0.815,-1.170
4109,-0.855,-1.125
4110,-0.885,-1.125
4111,-0.895,-1.120
4112,-0.905,-1.140
4113,-0.805,-1.100
4114,-0.660,-0.985
4115,-0.290,-0.975
4116,0.225,-1.050
4117,0.410,-1.410
4118,-0.635,-1.890
4119,-2.010,-2.485
4120,-2.275,-2.930
4121,-2.005,-2.890
4122,-1.490,-2.310
4123,-1.095,-1.780
4124,-1.005,-1.330
4125,-0.935,-1.140
4126,-0.925,-1.060
4127,-0.915,-1.045
4128,-0.875,-1.005
4129,-0.870,-0.985
4130,-0.920,-0.995
4131,-0.920,-0.980
4132,-0.930,-0.990
4133,-0.920,-0.970
4134,-0.905,-0.965
4135,-0.885,-0.930
4136,-0.900,-0.970
4137,-0.940,-0.950
4138,-0.930,-0.955
4139,-0.970,-0.975
4140,-0.965,-0.965
4141,-0.975,-0.975
4142,-0.995,-1.000
4143,-1.025,-0.975
4144,-1.085,-0.985
4145,-1.145,-0.985
4146,-1.195,-1.005
4147,-1.205,-1.030
4148,-1.240,-1.030
4149,-1.270,-1.075
4150,-1.300,-1.080
4151,-1.385,-1.125
4152,-1.430,-1.130
4153,-1.465,-1.150
4154,-1.495,-1.190
4155,-1.480,-1.205
4156,-1.460,-1.225
4157,-1.435,-1.265
4158,-1.410,-1.265
4159,-1.330,-1.255
4160,-1.280,-1.250
4161,-1.155,-1.230
4162,-1.080,-1.200
4163,-1.005,-1.170
4164,-0.960,-1.110
4165,-0.875,-1.060
4166,-0.830,-1.005
4167,-0.775,-0.960
4168,-0.720,-0.940
4169,-0.660,-0.895
4170,-0.645,-0.870
4171,-0.635,-0.855
4172,-0.650,-0.860
4173,-0.670,-0.860
4174,-0.645,-0.830
4175,-0.650,-0.840
4176,-0.645,-0.865
4177,-0.655,-0.885
4178,-0.660,-0.870
4179,-0.680,-0.875
4180,-0.675,-0.875
4181,-0.660,-0.865
4182,-0.670,-0.850
4183,-0.655,-0.895
4184,-0.685,-0.880
4185,-0.705,-0.900
4186,-0.670,-0.865
4187,-0.700,-0.860
4188,-0.700,-0.855
4189,-0.640,-0.860
4190,-0.645,-0.865
4191,-0.680,-0.855
4192,-0.685,-0.850
4193,-0.680,-0.870
4194,-0.710,-0.905
4195,-0.695,-0.885
4196,-0.650,-0.905
4197,-0.670,-0.880
4198,-0.690,-0.880
4199,-0.675,-0.895
4200,-0.670,-0.910
4201,-0.715,-0.940
4202,-0.655,-0.880
4203,-0.660,-0.900
4204,-0.660,-0.895
4205,-0.705,-0.875
4206,-0.680,-0.840
4207,-0.700,-0.875
4208,-0.660,-0.875
4209,-0.615,-0.865
4210,-0.580,-0.825
4211,-0.505,-0.780
4212,-0.535,-0.745
4213,-0.545,-0.725
4214,-0.495,-0.740
4215,-0.545,-0.820
4216,-0.530,-0.880
4217,-0.580,-0.900
4218,-0.590,-0.910
4219,-0.690,-0.840
4220,-0.685,-0.830
4221,-0.725,-0.820
4222,-0.670,-0.850
4223,-0.650,-0.855
4224,-0.585,-0.805
4225,-0.480,-0.670
4226,-0.020,-0.645
4227,0.520,-0.760
4228,0.540,-1.025
4229,-0.700,-1.515
4230,-1.765,-2.070
4231,-1.945,-2.475
4232,-1.725,-2.305
4233,-1.185,-1.755
4234,-0.925,-1.345
4235,-0.815,-0.980
4236,-0.735,-0.860
4237,-0.745,-0.810
4238,-0.740,-0.770
4239,-0.735,-0.745
4240,-0.765,-0.780
4241,-0.750,-0.745
4242,-0.780,-0.755
4243,-0.760,-0.750
4244,-0.775,-0.725
4245,-0.765,-0.735
4246,-0.750,-0.705
4247,-0.785,-0.700
4248,-0.835,-0.740
4249,-0.815,-0.700
4250,-0.815,-0.700
4251,-0.830,-0.680
4252,-0.900,-0.680
4253,-0.940,-0.720
4254,-0.955,-0.710
4255,-0.985,-0.725
4256,-1.035,-0.730
4257,-1.045,-0.755
4258,-1.090,-0.755
4259,-1.125,-0.755
4260,-1.190,-0.780
4261,-1.225,-0.790
4262,-1.260,-0.795
4263,-1.285,-0.815
4264,-1.275,-0.800
4265,-1.280,-0.820
4266,-1.330,-0.880
4267,-1.310,-0.855
4268,-1.250,-0.895
4269,-1.180,-0.860
4270,-1.095,-0.865
4271,-1.000,-0.825
4272,-0.975,-0.790
4273,-0.890,-0.770
4274,-0.845,-0.730
4275,-0.780,-0.705
4276,-0.670,-0.625
4277,-0.655,-0.620
4278,-0.630,-0.575
4279,-0.615,-0.575
4280,-0.605,-0.575
4281,-0.565,-0.560
4282,-0.550,-0.545
4283,-0.560,-0.560
4284,-0.565,-0.585
4285,-0.555,-0.555
4286,-0.585,-0.560
4287,-0.580,-0.560
4288,-0.585,-0.565
4289,-0.535,-0.580
4290,-0.540,-0.585
4291,-0.540,-0.560
4292,-0.585,-0.585
4293,-0.605,-0.580
4294,-0.605,-0.580
4295,-0.545,-0.565
4296,-0.520,-0.560
4297,-0.545,-0.550
4298,-0.575,-0.560
4299,-0.550,-0.545
4300,-0.570,-0.560
4301,-0.595,-0.545
4302,-0.540,-0.540
4303,-0.540,-0.550
4304,-0.555,-0.580
4305,-0.575,-0.545
4306,-0.590,-0.550
4307,-0.555,-0.570
4308,-0.550,-0.540
4309,-0.535,-0.570
4310,-0.550,-0.580
4311,-0.560,-0.570
4312,-0.585,-0.580
4313,-0.580,-0.575
4314,-0.515,-0.555
4315,-0.545,-0.565
4316,-0.550,-0.555
4317,-0.570,-0.570
4318,-0.545,-0.575
4319,-0.550,-0.545
4320,-0.480,-0.565
4321,-0.445,-0.525
4322,-0.410,-0.480
4323,-0.360,-0.475
4324,-0.380,-0.500
4325,-0.395,-0.495
4326,-0.395,-0.585
4327,-0.415,-0.585
4328,-0.545,-0.630
4329,-0.550,-0.605
4330,-0.550,-0.585
4331,-0.565,-0.570
4332,-0.600,-0.585
4333,-0.600,-0.585
4334,-0.500,-0.560
4335,-0.390,-0.425
4336,-0.020,-0.385
4337,0.590,-0.460
4338,0.700,-0.740
4339,-0.420,-1.195
4340,-1.615,-1.675
4341,-1.820,-2.100
4342,-1.600,-2.065
4343,-1.080,-1.540
4344,-0.765,-1.150
4345,-0.715,-0.770
4346,-0.660,-0.590
4347,-0.645,-0.555
4348,-0.635,-0.535
4349,-0.600,-0.495
4350,-0.630,-0.510
4351,-0.615,-0.480
4352,-0.640,-0.515
4353,-0.655,-0.485
4354,-0.650,-0.525
4355,-0.675,-0.500
4356,-0.630,-0.495
4357,-0.640,-0.510
4358,-0.690,-0.480
4359,-0.695,-0.450
4360,-0.700,-0.485
4361,-0.735,-0.490
4362,-0.740,-0.495
4363,-0.745,-0.520
4364,-0.815,-0.535
4365,-0.850,-0.510
4366,-0.895,-0.505
4367,-0.945,-0.520
4368,-0.995,-0.530
4369,-1.010,-0.505
4370,-1.065,-0.555
4371,-1.135,-0.590
4372,-1.175,-0.585
4373,-1.190,-0.600
4374,-1.200,-0.605
4375,-1.225,-0.615
4376,-1.180,-0.610
4377,-1.160,-0.640
4378,-1.140,-0.635
4379,-1.095,-0.630
4380,-1.020,-0.630
4381,-0.900,-0.575
4382,-0.810,-0.545
4383,-0.770,-0.525
4384,-0.710,-0.500
4385,-0.695,-0.450
4386,-0.645,-0.420
4387,-0.600,-0.395
4388,-0.535,-0.400
4389,-0.510,-0.375
4390,-0.490,-0.380
4391,-0.480,-0.385
4392,-0.485,-0.335
4393,-0.525,-0.350
4394,-0.475,-0.380
4395,-0.470,-0.365
4396,-0.425,-0.375
4397,-0.455,-0.400
4398,-0.470,-0.390
4399,-0.485,-0.380
4400,-0.505,-0.415
4401,-0.470,-0.400
4402,-0.490,-0.390
4403,-0.485,-0.385
4404,-0.470,-0.420
4405,-0.480,-0.450
4406,-0.490,-0.435
4407,-0.490,-0.450
4408,-0.495,-0.430
4409,-0.480,-0.395
4410,-0.460,-0.420
4411,-0.475,-0.415
4412,-0.490,-0.420
4413,-0.505,-0.415
4414,-0.495,-0.425
4415,-0.465,-0.400
4416,-0.470,-0.445
4417,-0.435,-0.430
4418,-0.490,-0.430
4419,-0.510,-0.415
4420,-0.530,-0.430
4421,-0.490,-0.445
4422,-0.445,-0.415
4423,-0.425,-0.445
4424,-0.460,-0.435
4425,-0.470,-0.430
4426,-0.475,-0.430
4427,-0.490,-0.430
4428,-0.490,-0.435
4429,-0.450,-0.420
4430,-0.415,-0.390
4431,-0.385,-0.400
4432,-0.400,-0.390
4433,-0.315,-0.335
4434,-0.305,-0.290
4435,-0.290,-0.315
4436,-0.265,-0.355
4437,-0.310,-0.390
4438,-0.310,-0.460
4439,-0.345,-0.470
4440,-0.385,-0.480
4441,-0.415,-0.425
4442,-0.475,-0.440
4443,-0.455,-0.445
4444,-0.425,-0.455
4445,-0.440,-0.445
4446,-0.400,-0.430
4447,-0.265,-0.335
4448,0.230,-0.310
4449,0.710,-0.445
4450,0.595,-0.855
4451,-0.770,-1.430
4452,-1.690,-1.890
4453,-1.690,-2.250
4454,-1.340,-1.885
4455,-0.870,-1.375
4456,-0.620,-0.945
4457,-0.555,-0.630
4458,-0.555,-0.515
4459,-0.545,-0.470
4460,-0.525,-0.470
4461,-0.550,-0.460
4462,-0.535,-0.445
4463,-0.505,-0.445
4464,-0.515,-0.455
4465,-0.560,-0.460
4466,-0.575,-0.425
4467,-0.565,-0.430
4468,-0.570,-0.425
4469,-0.570,-0.415
4470,-0.580,-0.430
4471,-0.600,-0.410
4472,-0.645,-0.415
4473,-0.655,-0.400
4474,-0.690,-0.425
4475,-0.705,-0.425
4476,-0.715,-0.445
4477,-0.775,-0.440
4478,-0.810,-0.455
4479,-0.890,-0.470
4480,-0.940,-0.495
4481,-0.975,-0.520
4482,-1.005,-0.520
4483,-1.045,-0.550
4484,-1.055,-0.545
4485,-1.105,-0.560
4486,-1.160,-0.590
4487,-1.205,-0.610
4488,-1.195,-0.650
4489,-1.145,-0.680
4490,-1.085,-0.690
4491,-1.010,-0.695
4492,-0.935,-0.695
4493,-0.865,-0.650
4494,-0.795,-0.630
4495,-0.695,-0.605
4496,-0.625,-0.575
4497,-0.540,-0.515
4498,-0.505,-0.480
4499,-0.470,-0.455
4500,-0.420,-0.455
4501,-0.410,-0.385
4502,-0.370,-0.355
4503,-0.320,-0.360
4504,-0.310,-0.350
4505,-0.340,-0.350
4506,-0.345,-0.350
4507,-0.350,-0.370
4508,-0.360,-0.360
4509,-0.350,-0.350
4510,-0.325,-0.350
4511,-0.345,-0.370
4512,-0.355,-0.390
4513,-0.350,-0.390
4514,-0.345,-0.380
4515,-0.355,-0.370
4516,-0.330,-0.390
4517,-0.320,-0.380
4518,-0.340,-0.385
4519,-0.325,-0.380
4520,-0.350,-0.410
4521,-0.335,-0.375
4522,-0.340,-0.385
4523,-0.330,-0.400
4524,-0.305,-0.415
4525,-0.310,-0.415
4526,-0.345,-0.375
4527,-0.335,-0.400
4528,-0.340,-0.425
4529,-0.325,-0.415
4530,-0.310,-0.430
4531,-0.305,-0.430
4532,-0.300,-0.410
4533,-0.360,-0.390
4534,-0.360,-0.400
4535,-0.345,-0.430
4536,-0.325,-0.425
4537,-0.300,-0.430
4538,-0.295,-0.440
4539,-0.315,-0.420
4540,-0.305,-0.415
4541,-0.355,-0.390
4542,-0.305,-0.400
4543,-0.230,-0.415
4544,-0.180,-0.380
4545,-0.145,-0.320
4546,-0.150,-0.290
4547,-0.140,-0.305
4548,-0.150,-0.360
4549,-0.135,-0.370
4550,-0.130,-0.410
4551,-0.195,-0.470
4552,-0.235,-0.455
4553,-0.290,-0.425
4554,-0.320,-0.420
4555,-0.320,-0.415
4556,-0.290,-0.440
4557,-0.280,-0.420
4558,-0.140,-0.355
4559,0.110,-0.280
4560,0.615,-0.330
4561,0.830,-0.675
4562,0.260,-1.300
4563,-1.230,-1.810
4564,-1.655,-2.285
4565,-1.410,-2.290
4566,-0.865,-1.705
4567,-0.565,-1.175
4568,-0.410,-0.690
4569,-0.385,-0.500
4570,-0.345,-0.455
4571,-0.335,-0.420
4572,-0.325,-0.400
4573,-0.370,-0.380
4574,-0.395,-0.380
4575,-0.365,-0.385
4576,-0.335,-0.380
4577,-0.340,-0.405
4578,-0.370,-0.355
4579,-0.385,-0.365
4580,-0.410,-0.355
4581,-0.445,-0.365
4582,-0.445,-0.340
4583,-0.450,-0.355
4584,-0.435,-0.370
4585,-0.450,-0.375
4586,-0.525,-0.380
4587,-0.590,-0.385
4588,-0.610,-0.400
4589,-0.655,-0.395
4590,-0.665,-0.415
4591,-0.680,-0.435
4592,-0.735,-0.485
4593,-0.795,-0.480
4594,-0.855,-0.545
4595,-0.895,-0.540
4596,-0.925,-0.575
4597,-0.945,-0.590
4598,-0.970,-0.620
4599,-0.965,-0.625
4600,-0.985,-0.650
4601,-0.945,-0.665
4602,-0.870,-0.675
4603,-0.775,-0.670
4604,-0.670,-0.685
4605,-0.575,-0.670
4606,-0.520,-0.615
4607,-0.450,-0.555
4608,-0.375,-0.540
4609,-0.315,-0.470
4610,-0.240,-0.435
4611,-0.220,-0.380
4612,-0.195,-0.380
4613,-0.210,-0.365
4614,-0.190,-0.310
4615,-0.185,-0.315
4616,-0.180,-0.300
4617,-0.165,-0.310
4618,-0.175,-0.300
4619,-0.185,-0.295
4620,-0.190,-0.315
4621,-0.215,-0.310
4622,-0.210,-0.305
4623,-0.185,-0.335
4624,-0.190,-0.345
4625,-0.150,-0.335
4626,-0.205,-0.365
4627,-0.225,-0.335
4628,-0.230,-0.345
4629,-0.235,-0.365
4630,-0.180,-0.320
4631,-0.170,-0.375
4632,-0.190,-0.370
4633,-0.225,-0.340
4634,-0.205,-0.345
4635,-0.190,-0.340
4636,-0.225,-0.335
4637,-0.200,-0.340
4638,-0.185,-0.355
4639,-0.215,-0.355
4640,-0.215,-0.335
4641,-0.200,-0.330
4642,-0.215,-0.345
4643,-0.170,-0.345
4644,-0.170,-0.350
4645,-0.195,-0.380
4646,-0.195,-0.355
4647,-0.175,-0.340
4648,-0.185,-0.340
4649,-0.175,-0.320
4650,-0.135,-0.340
4651,-0.140,-0.340
4652,-0.125,-0.325
4653,-0.085,-0.330
4654,0.000,-0.285
4655,0.010,-0.220
4656,-0.005,-0.175
4657,0.040,-0.205
4658,0.045,-0.255
4659,0.040,-0.275
4660,-0.040,-0.325
4661,-0.115,-0.375
4662,-0.130,-0.330
4663,-0.175,-0.310
4664,-0.145,-0.320
4665,-0.150,-0.325
4666,-0.150,-0.340
4667,-0.115,-0.310
4668,0.040,-0.195
4669,0.505,-0.180
4670,0.925,-0.325
4671,0.945,-0.900
4672,-0.240,-1.480
4673,-1.445,-1.915
4674,-1.490,-2.315
4675,-1.020,-1.995
4676,-0.560,-1.395
4677,-0.265,-0.870
4678,-0.160,-0.460
4679,-0.170,-0.305
4680,-0.175,-0.265
4681,-0.165,-0.240
4682,-0.170,-0.225
4683,-0.155,-0.225
4684,-0.130,-0.210
4685,-0.130,-0.210
4686,-0.145,-0.215
4687,-0.185,-0.200
4688,-0.195,-0.150
4689,-0.190,-0.150
4690,-0.175,-0.140
4691,-0.140,-0.140
4692,-0.155,-0.160
4693,-0.215,-0.145
4694,-0.220,-0.130
4695,-0.260,-0.160
4696,-0.295,-0.155
4697,-0.275,-0.135
4698,-0.305,-0.175
4699,-0.395,-0.200
4700,-0.440,-0.200
4701,-0.495,-0.235
4702,-0.545,-0.220
4703,-0.570,-0.235
4704,-0.590,-0.265
4705,-0.615,-0.290
4706,-0.645,-0.300
4707,-0.675,-0.320
4708,-0.720,-0.355
4709,-0.760,-0.375
4710,-0.725,-0.400
4711,-0.665,-0.405
4712,-0.595,-0.420
4713,-0.515,-0.415
4714,-0.445,-0.380
4715,-0.370,-0.380
4716,-0.240,-0.335
4717,-0.115,-0.285
4718,-0.045,-0.255
4719,-0.045,-0.175
4720,-0.010,-0.115
4721,0.020,-0.085
4722,0.045,-0.025
4723,0.055,-0.010
4724,0.090,0.015
4725,0.075,0.035
4726,0.095,0.055
4727,0.055,0.050
4728,0.055,0.065
4729,0.050,0.065
4730,0.095,0.080
4731,0.085,0.070
4732,0.060,0.070
4733,0.080,0.070
4734,0.045,0.075
4735,0.040,0.090
4736,0.055,0.065
4737,0.050,0.085
4738,0.040,0.085
4739,0.040,0.060
4740,0.070,0.065
4741,0.035,0.085
4742,0.030,0.075
4743,0.045,0.100
4744,0.065,0.080
4745,0.055,0.080
4746,0.050,0.095
4747,0.045,0.090
4748,0.040,0.080
4749,0.045,0.070
4750,0.035,0.075
4751,0.070,0.095
4752,0.070,0.095
4753,0.050,0.120
4754,0.035,0.105
4755,0.070,0.105
4756,0.045,0.130
4757,0.050,0.150
4758,0.080,0.120
4759,0.095,0.130
4760,0.095,0.135
4761,0.050,0.115
4762,0.095,0.135
4763,0.160,0.155
4764,0.230,0.210
4765,0.275,0.270
4766,0.260,0.265
4767,0.245,0.210
4768,0.295,0.185
4769,0.265,0.175
4770,0.180,0.140
4771,0.135,0.110
4772,0.110,0.150
4773,0.055,0.145
4774,0.050,0.155
4775,0.040,0.120
4776,0.065,0.135
4777,0.170,0.185
4778,0.335,0.270
4779,0.905,0.270
4780,1.250,0.050
4781,1.090,-0.370
4782,-0.450,-0.960
4783,-1.235,-1.360
4784,-1.110,-1.610
4785,-0.670,-1.235
4786,-0.235,-0.725
4787,-0.075,-0.270
4788,-0.020,0.070
4789,-0.005,0.155
4790,0.010,0.190
4791,0.020,0.205
4792,0.040,0.230
4793,0.005,0.230
4794,0.000,0.245
4795,0.000,0.240
4796,-0.005,0.220
4797,-0.020,0.220
4798,0.020,0.245
4799,0.000,0.230
4800,-0.035,0.250
4801,-0.055,0.265
4802,-0.065,0.220
4803,-0.085,0.230
4804,-0.085,0.245
4805,-0.115,0.225
4806,-0.150,0.220
4807,-0.195,0.205
4808,-0.245,0.180
4809,-0.295,0.175
4810,-0.350,0.140
4811,-0.355,0.125
4812,-0.375,0.120
4813,-0.445,0.090
4814,-0.510,0.060
4815,-0.540,0.055
4816,-0.585,0.000
4817,-0.600,0.000
4818,-0.600,-0.030
4819,-0.580,-0.060
4820,-0.575,-0.065
4821,-0.550,-0.085
4822,-0.465,-0.090
4823,-0.360,-0.060
4824,-0.305,-0.075
4825,-0.190,-0.055
4826,-0.115,-0.005
4827,-0.095,0.065
4828,-0.025,0.110
4829,0.035,0.165
4830,0.085,0.205
4831,0.100,0.230
4832,0.140,0.260
4833,0.155,0.310
4834,0.150,0.335
4835,0.150,0.340
4836,0.155,0.325
4837,0.130,0.335
4838,0.135,0.335
4839,0.155,0.330
4840,0.165,0.310
4841,0.110,0.295
4842,0.090,0.280
4843,0.115,0.265
4844,0.115,0.260
4845,0.130,0.250
4846,0.125,0.260
4847,0.115,0.240
4848,0.100,0.255
4849,0.090,0.260
4850,0.065,0.260
4851,0.095,0.245
4852,0.120,0.220
4853,0.105,0.225
4854,0.100,0.230
4855,0.055,0.230
4856,0.090,0.220
4857,0.095,0.200
4858,0.110,0.225
4859,0.090,0.195
4860,0.100,0.225
4861,0.075,0.195
4862,0.065,0.210
4863,0.075,0.190
4864,0.100,0.200
4865,0.110,0.210
4866,0.090,0.180
4867,0.075,0.230
4868,0.070,0.205
4869,0.065,0.185
4870,0.105,0.175
4871,0.180,0.225
4872,0.270,0.255
4873,0.255,0.285
4874,0.265,0.320
4875,0.250,0.230
4876,0.270,0.200
4877,0.285,0.205
4878,0.195,0.160
4879,0.145,0.120
4880,0.085,0.145
4881,0.035,0.155
4882,0.025,0.155
4883,0.040,0.125
4884,0.075,0.150
4885,0.145,0.200
4886,0.380,0.320
4887,0.960,0.275
4888,1.265,0.005
4889,0.775,-0.435
4890,-0.700,-1.020
4891,-1.255,-1.445
4892,-1.115,-1.570
4893,-0.705,-1.190
4894,-0.295,-0.720
4895,-0.100,-0.260
4896,-0.045,-0.005
4897,-0.040,0.105
4898,-0.020,0.110
4899,-0.005,0.150
4900,-0.025,0.145
4901,-0.025,0.150
4902,-0.040,0.175
4903,-0.045,0.140
4904,-0.005,0.155
4905,-0.020,0.160
4906,-0.015,0.155
4907,-0.045,0.170
4908,-0.095,0.155
4909,-0.090,0.150
4910,-0.085,0.130
4911,-0.115,0.140
4912,-0.125,0.130
4913,-0.180,0.125
4914,-0.225,0.125
4915,-0.270,0.090
4916,-0.320,0.065
4917,-0.365,0.045
4918,-0.385,0.035
4919,-0.425,-0.005
4920,-0.510,-0.005
4921,-0.560,-0.035
4922,-0.600,-0.090
4923,-0.640,-0.100
4924,-0.625,-0.115
4925,-0.650,-0.135
4926,-0.655,-0.170
4927,-0.645,-0.175
4928,-0.650,-0.185
4929,-0.600,-0.200
4930,-0.445,-0.210
4931,-0.390,-0.205
4932,-0.315,-0.165
4933,-0.230,-0.135
4934,-0.165,-0.095
4935,-0.115,-0.050
4936,-0.035,-0.015
4937,0.040,0.030
4938,0.080,0.055
4939,0.105,0.085
4940,0.115,0.135
4941,0.125,0.140
4942,0.140,0.125
4943,0.155,0.125
4944,0.165,0.115
4945,0.160,0.135
4946,0.120,0.115
4947,0.110,0.075
4948,0.110,0.080
4949,0.105,0.075
4950,0.135,0.075
4951,0.120,0.085
4952,0.105,0.060
4953,0.105,0.010
4954,0.080,0.005
4955,0.095,0.005
4956,0.080,0.015
4957,0.070,0.030
4958,0.090,0.020
4959,0.080,-0.015
4960,0.065,0.000
4961,0.065,0.015
4962,0.075,-0.010
4963,0.085,-0.005
4964,0.075,-0.020
4965,0.070,-0.045
4966,0.050,-0.060
4967,0.030,-0.050
4968,0.055,-0.055
4969,0.050,-0.050
4970,0.085,-0.055
4971,0.060,-0.040
4972,0.060,-0.040
4973,0.055,-0.065
4974,0.035,-0.065
4975,0.025,-0.050
4976,0.065,-0.030
4977,0.095,-0.060
4978,0.105,-0.050
4979,0.165,-0.015
4980,0.180,-0.020
4981,0.195,0.040
4982,0.185,0.045
4983,0.240,-0.005
4984,0.250,-0.045
4985,0.230,-0.060
4986,0.100,-0.095
4987,0.025,-0.135
4988,-0.010,-0.115
4989,-0.020,-0.080
4990,-0.005,-0.110
4991,0.000,-0.120
4992,0.005,-0.135
4993,0.045,-0.070
4994,0.260,0.015
4995,0.765,-0.025
4996,1.055,-0.315
4997,0.745,-0.905
4998,-0.710,-1.490
4999,-1.410,-1.950
5000,-1.255,-2.110
5001,-0.755,-1.630
5002,-0.355,-1.055
5003,-0.145,-0.540
5004,-0.095,-0.270
5005,-0.090,-0.195
5006,-0.130,-0.165
5007,-0.140,-0.130
5008,-0.130,-0.140
5009,-0.140,-0.130
5010,-0.105,-0.110
5011,-0.135,-0.095
5012,-0.160,-0.090
5013,-0.165,-0.095
5014,-0.195,-0.080
5015,-0.190,-0.095
5016,-0.180,-0.095
5017,-0.170,-0.100
5018,-0.195,-0.095
5019,-0.230,-0.070
5020,-0.275,-0.130
5021,-0.305,-0.145
5022,-0.320,-0.155
5023,-0.365,-0.175
5024,-0.380,-0.185
5025,-0.450,-0.210
5026,-0.515,-0.240
5027,-0.555,-0.255
5028,-0.595,-0.275
5029,-0.660,-0.310
5030,-0.675,-0.330
5031,-0.700,-0.365
5032,-0.735,-0.390
5033,-0.790,-0.415
5034,-0.815,-0.420
5035,-0.810,-0.440
5036,-0.720,-0.465
5037,-0.690,-0.485
5038,-0.615,-0.470
5039,-0.540,-0.465
5040,-0.450,-0.470
5041,-0.375,-0.420
5042,-0.325,-0.405
5043,-0.215,-0.355
5044,-0.120,-0.295
5045,-0.075,-0.265
5046,-0.065,-0.200
5047,-0.060,-0.170
5048,-0.010,-0.135
5049,0.000,-0.105
5050,0.015,-0.115
5051,0.010,-0.085
5052,0.005,-0.065
5053,-0.030,-0.080
5054,-0.020,-0.095
5055,-0.015,-0.105
5056,-0.030,-0.090
5057,-0.005,-0.130
5058,-0.020,-0.130
5059,-0.045,-0.145
5060,-0.085,-0.135
5061,-0.055,-0.155
5062,-0.035,-0.160
5063,-0.025,-0.155
5064,-0.050,-0.165
5065,-0.035,-0.175
5066,-0.040,-0.170
5067,-0.055,-0.140
5068,-0.040,-0.170
5069,-0.035,-0.150
5070,-0.030,-0.160
5071,-0.030,-0.170
5072,-0.025,-0.175
5073,-0.050,-0.175
5074,-0.070,-0.170
5075,-0.070,-0.180
5076,-0.040,-0.200
5077,-0.025,-0.175
5078,-0.015,-0.180
5079,-0.040,-0.200
5080,-0.050,-0.180
5081,-0.065,-0.185
5082,-0.070,-0.200
5083,-0.040,-0.180
5084,-0.025,-0.215
5085,-0.025,-0.195
5086,-0.025,-0.210
5087,0.025,-0.190
5088,0.115,-0.140
5089,0.115,-0.090
5090,0.135,-0.060
5091,0.160,-0.070
5092,0.165,-0.120
5093,0.170,-0.140
5094,0.090,-0.150
5095,0.030,-0.215
5096,-0.020,-0.220
5097,-0.040,-0.180
5098,-0.055,-0.190
5099,-0.070,-0.190
5100,-0.100,-0.205
5101,-0.035,-0.170
5102,0.050,-0.070
5103,0.430,-0.035
5104,0.935,-0.140
5105,1.075,-0.565
5106,0.215,-1.130
5107,-1.135,-1.595
5108,-1.410,-2.010
5109,-1.105,-1.890
5110,-0.590,-1.375
5111,-0.250,-0.815
5112,-0.135,-0.360
5113,-0.120,-0.170
5114,-0.105,-0.090
5115,-0.105,-0.070
5116,-0.100,-0.030
5117,-0.075,-0.020
5118,-0.050,-0.005
5119,-0.070,0.000
5120,-0.105,0.025
5121,-0.090,0.010
5122,-0.075,0.000
5123,-0.105,0.025
5124,-0.080,0.035
5125,-0.075,0.060
5126,-0.100,0.055
5127,-0.135,0.065
5128,-0.145,0.045
5129,-0.170,0.045
5130,-0.190,0.050
5131,-0.230,0.035
5132,-0.250,0.025
5133,-0.295,-0.010
5134,-0.355,-0.005
5135,-0.405,-0.010
5136,-0.415,-0.020
5137,-0.460,-0.045
5138,-0.475,-0.080
5139,-0.495,-0.065
5140,-0.580,-0.100
5141,-0.620,-0.145
5142,-0.635,-0.140
5143,-0.625,-0.190
5144,-0.615,-0.170
5145,-0.570,-0.175
5146,-0.505,-0.210
5147,-0.440,-0.180
5148,-0.360,-0.170
5149,-0.255,-0.150
5150,-0.135,-0.085
5151,-0.050,-0.025
5152,0.020,0.045
5153,0.075,0.100
5154,0.105,0.165
5155,0.170,0.220
5156,0.210,0.255
5157,0.245,0.290
5158,0.270,0.325
5159,0.250,0.335
5160,0.245,0.380
5161,0.250,0.385
5162,0.265,0.395
5163,0.260,0.395
5164,0.290,0.415
5165,0.285,0.405
5166,0.285,0.390
5167,0.245,0.395
5168,0.255,0.395
5169,0.245,0.405
5170,0.290,0.410
5171,0.310,0.415
5172,0.305,0.405
5173,0.265,0.425
5174,0.285,0.400
5175,0.295,0.410
5176,0.300,0.400
5177,0.335,0.430
5178,0.350,0.455
5179,0.340,0.450
5180,0.305,0.455
5181,0.275,0.445
5182,0.305,0.475
5183,0.325,0.445
5184,0.370,0.470
5185,0.355,0.470
5186,0.330,0.460
5187,0.345,0.460
5188,0.320,0.480
5189,0.325,0.490
5190,0.350,0.490
5191,0.340,0.500
5192,0.360,0.485
5193,0.370,0.505
5194,0.390,0.520
5195,0.480,0.575
5196,0.530,0.630
5197,0.575,0.690
5198,0.595,0.670
5199,0.555,0.595
5200,0.600,0.580
5201,0.510,0.565
5202,0.440,0.515
5203,0.400,0.520
5204,0.365,0.565
5205,0.345,0.535
5206,0.345,0.545
5207,0.325,0.545
5208,0.380,0.550
5209,0.470,0.655
5210,0.865,0.675
5211,1.315,0.605
5212,1.455,0.115
5213,0.555,-0.530
5214,-0.795,-1.055
5215,-0.950,-1.460
5216,-0.580,-1.255
5217,-0.110,-0.635
5218,0.185,-0.075
5219,0.260,0.370
5220,0.265,0.515
5221,0.275,0.580
5222,0.275,0.625
5223,0.320,0.640
5224,0.305,0.640
5225,0.295,0.610
5226,0.275,0.650
5227,0.250,0.620
5228,0.235,0.640
5229,0.250,0.650
5230,0.250,0.665
5231,0.240,0.675
5232,0.245,0.660
5233,0.190,0.655
5234,0.180,0.670
5235,0.175,0.650
5236,0.140,0.645
5237,0.120,0.630
5238,0.085,0.635
5239,0.040,0.620
5240,-0.025,0.605
5241,-0.085,0.590
5242,-0.100,0.545
5243,-0.135,0.515
5244,-0.195,0.515
5245,-0.220,0.480
5246,-0.285,0.465
5247,-0.350,0.430
5248,-0.370,0.405
5249,-0.375,0.380
5250,-0.360,0.375
5251,-0.380,0.330
5252,-0.325,0.290
5253,-0.280,0.300
5254,-0.215,0.295
5255,-0.120,0.330
5256,-0.015,0.350
5257,0.095,0.365
5258,0.170,0.450
5259,0.205,0.485
5260,0.245,0.525
5261,0.330,0.595
5262,0.370,0.640
5263,0.410,0.670
5264,0.420,0.725
5265,0.405,0.720
5266,0.370,0.730
5267,0.380,0.750
5268,0.360,0.750
5269,0.385,0.725
5270,0.380,0.770
5271,0.380,0.755
5272,0.405,0.720
5273,0.325,0.705
5274,0.345,0.720
5275,0.360,0.720
5276,0.370,0.695
5277,0.385,0.700
5278,0.385,0.675
5279,0.345,0.660
5280,0.325,0.665
5281,0.325,0.675
5282,0.340,0.675
5283,0.385,0.680
5284,0.360,0.675
5285,0.355,0.660
5286,0.330,0.655
5287,0.305,0.630
5288,0.335,0.655
5289,0.350,0.640
5290,0.350,0.615
5291,0.350,0.630
5292,0.340,0.625
5293,0.290,0.630
5294,0.330,0.645
5295,0.310,0.620
5296,0.320,0.615
5297,0.335,0.595
5298,0.350,0.630
5299,0.330,0.605
5300,0.320,0.580
5301,0.360,0.585
5302,0.400,0.615
5303,0.495,0.670
5304,0.500,0.700
5305,0.510,0.670
5306,0.485,0.635
5307,0.505,0.610
5308,0.510,0.560
5309,0.415,0.540
5310,0.355,0.485
5311,0.315,0.520
5312,0.275,0.540
5313,0.225,0.510
5314,0.250,0.485
5315,0.265,0.505
5316,0.365,0.545
5317,0.565,0.690
5318,1.070,0.610
5319,1.420,0.380
5320,1.235,-0.040
5321,-0.185,-0.610
5322,-0.995,-1.055
5323,-0.895,-1.275
5324,-0.525,-0.950
5325,-0.115,-0.455
5326,0.055,0.005
5327,0.140,0.315
5328,0.165,0.405
5329,0.170,0.455
5330,0.215,0.490
5331,0.235,0.470
5332,0.185,0.450
5333,0.155,0.475
5334,0.175,0.490
5335,0.120,0.480
5336,0.120,0.465
5337,0.135,0.475
5338,0.130,0.465
5339,0.130,0.445
5340,0.110,0.460
5341,0.070,0.435
5342,0.045,0.440
5343,0.040,0.450
5344,0.020,0.435
5345,-0.035,0.410
5346,-0.100,0.400
5347,-0.140,0.355
5348,-0.170,0.330
5349,-0.250,0.265
5350,-0.270,0.250
5351,-0.335,0.205
5352,-0.380,0.155
5353,-0.435,0.160
5354,-0.440,0.125
5355,-0.510,0.085
5356,-0.520,0.065
5357,-0.540,0.045
5358,-0.580,0.025
5359,-0.620,-0.005
5360,-0.535,-0.040
5361,-0.475,-0.050
5362,-0.420,-0.050
5363,-0.355,-0.055
5364,-0.230,-0.020
5365,-0.185,0.015
5366,-0.170,0.080
5367,-0.075,0.115
5368,-0.005,0.175
5369,0.035,0.205
5370,0.080,0.250
5371,0.110,0.245
5372,0.130,0.290
5373,0.130,0.320
5374,0.140,0.325
5375,0.145,0.345
5376,0.140,0.350
5377,0.160,0.335
5378,0.145,0.315
5379,0.105,0.315
5380,0.080,0.325
5381,0.100,0.295
5382,0.105,0.275
5383,0.090,0.260
5384,0.105,0.270
5385,0.090,0.275
5386,0.085,0.235
5387,0.085,0.230
5388,0.035,0.230
5389,0.065,0.180
5390,0.095,0.165
5391,0.065,0.170
5392,0.065,0.180
5393,0.045,0.185
5394,0.070,0.190
5395,0.030,0.180
5396,0.045,0.190
5397,0.055,0.180
5398,0.055,0.175
5399,0.030,0.165
5400,0.030,0.135
5401,0.015,0.135
5402,0.040,0.115
5403,0.030,0.130
5404,0.015,0.125
5405,0.035,0.095
5406,0.005,0.115
5407,0.015,0.110
5408,-0.005,0.090
5409,0.065,0.085
5410,0.160,0.140
5411,0.145,0.180
5412,0.175,0.180
5413,0.205,0.155
5414,0.195,0.105
5415,0.205,0.115
5416,0.145,0.100
5417,0.075,0.005
5418,0.060,0.045
5419,-0.020,0.050
5420,-0.060,0.035
5421,-0.055,-0.010
5422,-0.025,-0.005
5423,0.065,0.025
5424,0.165,0.125
5425,0.580,0.190
5426,1.080,0.040
5427,1.185,-0.265
5428,-0.010,-0.735
5429,-1.105,-1.240
5430,-1.185,-1.565
5431,-0.955,-1.460
5432,-0.495,-1.005
5433,-0.275,-0.570
5434,-0.180,-0.235
5435,-0.120,-0.095
5436,-0.120,-0.055
5437,-0.095,-0.040
5438,-0.120,-0.045
5439,-0.145,-0.035
5440,-0.150,-0.050
5441,-0.165,-0.030
5442,-0.165,-0.060
5443,-0.150,-0.065
5444,-0.120,-0.045
5445,-0.180,-0.045
5446,-0.225,-0.070
5447,-0.210,-0.070
5448,-0.235,-0.080
5449,-0.220,-0.080
5450,-0.270,-0.115
5451,-0.340,-0.090
5452,-0.365,-0.095
5453,-0.390,-0.120
5454,-0.440,-0.130
5455,-0.470,-0.135
5456,-0.495,-0.160
5457,-0.545,-0.195
5458,-0.605,-0.215
5459,-0.665,-0.235
5460,-0.705,-0.230
5461,-0.740,-0.290
5462,-0.775,-0.315
5463,-0.765,-0.335
5464,-0.815,-0.370
5465,-0.820,-0.395
5466,-0.800,-0.410
5467,-0.770,-0.425
5468,-0.715,-0.445
5469,-0.630,-0.445
5470,-0.550,-0.425
5471,-0.490,-0.390
5472,-0.405,-0.355
5473,-0.340,-0.345
5474,-0.310,-0.295
5475,-0.215,-0.245
5476,-0.125,-0.200
5477,-0.110,-0.170
5478,-0.095,-0.160
5479,-0.075,-0.135
5480,-0.065,-0.155
5481,-0.070,-0.160
5482,-0.075,-0.140
5483,-0.040,-0.150
5484,-0.055,-0.150
5485,-0.085,-0.170
5486,-0.100,-0.155
5487,-0.090,-0.190
5488,-0.080,-0.195
5489,-0.080,-0.200
5490,-0.080,-0.225
5491,-0.070,-0.200
5492,-0.100,-0.215
5493,-0.145,-0.245
5494,-0.115,-0.230
5495,-0.115,-0.230
5496,-0.090,-0.260
5497,-0.085,-0.250
5498,-0.105,-0.245
5499,-0.125,-0.280
5500,-0.135,-0.255
5501,-0.130,-0.265
5502,-0.105,-0.275
5503,-0.070,-0.285
5504,-0.090,-0.320
5505,-0.120,-0.295
5506,-0.135,-0.275
5507,-0.140,-0.305
5508,-0.130,-0.310
5509,-0.110,-0.295
5510,-0.090,-0.325
5511,-0.065,-0.315
5512,-0.125,-0.320
5513,-0.160,-0.315
5514,-0.135,-0.335
5515,-0.125,-0.335
5516,-0.065,-0.330
5517,0.000,-0.325
5518,0.055,-0.235
5519,0.005,-0.195
5520,0.035,-0.200
5521,0.035,-0.285
5522,0.100,-0.315
5523,0.070,-0.310
5524,0.000,-0.360
5525,-0.085,-0.375
5526,-0.130,-0.325
5527,-0.155,-0.355
5528,-0.180,-0.360
5529,-0.150,-0.385
5530,-0.110,-0.395
5531,-0.020,-0.300
5532,0.230,-0.210
5533,0.745,-0.310
5534,0.975,-0.655
5535,0.345,-1.170
5536,-1.090,-1.725
5537,-1.500,-2.165
5538,-1.265,-2.170
5539,-0.800,-1.680
5540,-0.435,-1.175
5541,-0.340,-0.725
5542,-0.275,-0.495
5543,-0.270,-0.400
5544,-0.245,-0.390
5545,-0.230,-0.365
5546,-0.290,-0.385
5547,-0.265,-0.345
5548,-0.260,-0.355
5549,-0.290,-0.370
5550,-0.280,-0.345
5551,-0.255,-0.360
5552,-0.310,-0.350
5553,-0.350,-0.355
5554,-0.345,-0.365
5555,-0.355,-0.365
5556,-0.360,-0.350
5557,-0.360,-0.370
5558,-0.410,-0.380
5559,-0.455,-0.395
5560,-0.505,-0.415
5561,-0.535,-0.410
5562,-0.570,-0.445
5563,-0.595,-0.475
5564,-0.635,-0.505
5565,-0.705,-0.530
5566,-0.755,-0.555
5567,-0.810,-0.570
5568,-0.860,-0.600
5569,-0.870,-0.615
5570,-0.900,-0.635
5571,-0.900,-0.670
5572,-0.975,-0.670
5573,-0.950,-0.730
5574,-0.945,-0.765
5575,-0.885,-0.760
5576,-0.800,-0.740
5577,-0.705,-0.755
5578,-0.645,-0.740
5579,-0.550,-0.690
5580,-0.500,-0.650
5581,-0.400,-0.620
5582,-0.300,-0.555
5583,-0.215,-0.515
5584,-0.200,-0.475
5585,-0.160,-0.425
5586,-0.140,-0.415
5587,-0.130,-0.390
5588,-0.135,-0.380
5589,-0.110,-0.365
5590,-0.100,-0.370
5591,-0.115,-0.360
5592,-0.105,-0.390
5593,-0.150,-0.395
5594,-0.155,-0.415
5595,-0.125,-0.395
5596,-0.110,-0.390
5597,-0.120,-0.415
5598,-0.125,-0.415
5599,-0.135,-0.435
5600,-0.170,-0.430
5601,-0.175,-0.445
5602,-0.150,-0.460
5603,-0.120,-0.460
5604,-0.155,-0.450
5605,-0.150,-0.475
5606,-0.180,-0.490
5607,-0.155,-0.455
5608,-0.160,-0.455
5609,-0.175,-0.480
5610,-0.135,-0.490
5611,-0.140,-0.495
5612,-0.145,-0.465
5613,-0.175,-0.490
5614,-0.205,-0.535
5615,-0.175,-0.520
5616,-0.160,-0.535
5617,-0.160,-0.510
5618,-0.160,-0.530
5619,-0.175,-0.515
5620,-0.200,-0.525
5621,-0.190,-0.530
5622,-0.195,-0.545
5623,-0.135,-0.520
5624,-0.100,-0.525
5625,-0.030,-0.515
5626,-0.015,-0.435
5627,-0.040,-0.390
5628,-0.020,-0.435
5629,-0.010,-0.480
5630,0.035,-0.515
5631,-0.015,-0.520
5632,-0.105,-0.580
5633,-0.175,-0.580
5634,-0.210,-0.550
5635,-0.230,-0.520
5636,-0.240,-0.555
5637,-0.195,-0.570
5638,-0.160,-0.575
5639,-0.075,-0.475
5640,0.120,-0.425
5641,0.645,-0.465
5642,0.865,-0.775
5643,0.660,-1.355
5644,-0.710,-1.900
5645,-1.530,-2.275
5646,-1.375,-2.510
5647,-0.860,-2.060
5648,-0.510,-1.405
5649,-0.370,-0.900
5650,-0.310,-0.645
5651,-0.290,-0.570
5652,-0.290,-0.545
5653,-0.315,-0.540
5654,-0.315,-0.530
5655,-0.330,-0.495
5656,-0.345,-0.490
5657,-0.305,-0.480
5658,-0.305,-0.480
5659,-0.330,-0.490
5660,-0.355,-0.510
5661,-0.375,-0.510
5662,-0.390,-0.475
5663,-0.400,-0.480
5664,-0.385,-0.495
5665,-0.415,-0.535
5666,-0.475,-0.500
5667,-0.500,-0.475
5668,-0.525,-0.490
5669,-0.560,-0.485
5670,-0.595,-0.515
5671,-0.620,-0.525
5672,-0.650,-0.555
5673,-0.695,-0.555
5674,-0.765,-0.595
5675,-0.805,-0.620
5676,-0.855,-0.635
5677,-0.860,-0.670
5678,-0.895,-0.740
5679,-0.925,-0.715
5680,-0.955,-0.745
5681,-0.980,-0.775
5682,-0.960,-0.785
5683,-0.925,-0.805
5684,-0.860,-0.790
5685,-0.755,-0.825
5686,-0.660,-0.790
5687,-0.580,-0.750
5688,-0.475,-0.715
5689,-0.385,-0.650
5690,-0.315,-0.610
5691,-0.255,-0.540
5692,-0.220,-0.525
5693,-0.200,-0.490
5694,-0.170,-0.460
5695,-0.155,-0.430
5696,-0.140,-0.410
5697,-0.125,-0.385
5698,-0.095,-0.385
5699,-0.115,-0.390
5700,-0.130,-0.405
5701,-0.150,-0.395
5702,-0.170,-0.400
5703,-0.175,-0.410
5704,-0.195,-0.440
5705,-0.165,-0.450
5706,-0.155,-0.435
5707,-0.190,-0.435
5708,-0.165,-0.445
5709,-0.190,-0.455
5710,-0.185,-0.460
5711,-0.180,-0.450
5712,-0.160,-0.465
5713,-0.170,-0.465
5714,-0.220,-0.470
5715,-0.220,-0.460
5716,-0.190,-0.450
5717,-0.180,-0.490
5718,-0.165,-0.475
5719,-0.140,-0.480
5720,-0.165,-0.505
5721,-0.205,-0.485
5722,-0.200,-0.485
5723,-0.215,-0.490
5724,-0.185,-0.480
5725,-0.170,-0.490
5726,-0.180,-0.520
5727,-0.200,-0.510
5728,-0.210,-0.505
5729,-0.195,-0.480
5730,-0.215,-0.465
5731,-0.185,-0.490
5732,-0.130,-0.495
5733,-0.070,-0.465
5734,-0.050,-0.430
5735,-0.085,-0.350
5736,-0.070,-0.365
5737,0.000,-0.435
5738,0.035,-0.460
5739,0.010,-0.445
5740,-0.070,-0.480
5741,-0.200,-0.550
5742,-0.220,-0.520
5743,-0.260,-0.505
5744,-0.230,-0.510
5745,-0.220,-0.535
5746,-0.180,-0.510
5747,-0.120,-0.515
5748,0.040,-0.405
5749,0.530,-0.420
5750,0.915,-0.630
5751,0.735,-1.070
5752,-0.665,-1.605
5753,-1.480,-2.065
5754,-1.435,-2.290
5755,-1.015,-1.920
5756,-0.595,-1.435
5757,-0.390,-0.960
5758,-0.280,-0.665
5759,-0.285,-0.575
5760,-0.295,-0.530
5761,-0.325,-0.515
5762,-0.315,-0.500
5763,-0.305,-0.480
5764,-0.285,-0.450
5765,-0.290,-0.450
5766,-0.305,-0.440
5767,-0.325,-0.470
5768,-0.325,-0.455
5769,-0.345,-0.470
5770,-0.345,-0.450
5771,-0.340,-0.450
5772,-0.380,-0.450
5773,-0.385,-0.440
5774,-0.420,-0.450
5775,-0.485,-0.460
5776,-0.480,-0.485
5777,-0.520,-0.460
5778,-0.550,-0.480
5779,-0.595,-0.535
5780,-0.650,-0.535
5781,-0.680,-0.575
5782,-0.745,-0.580
5783,-0.775,-0.610
5784,-0.795,-0.600
5785,-0.825,-0.650
5786,-0.870,-0.675
5787,-0.920,-0.690
5788,-0.955,-0.715
5789,-0.960,-0.725
5790,-0.935,-0.735
5791,-0.880,-0.765
5792,-0.815,-0.770
5793,-0.765,-0.760
5794,-0.675,-0.770
5795,-0.585,-0.725
5796,-0.525,-0.680
5797,-0.425,-0.640
5798,-0.335,-0.585
5799,-0.290,-0.530
5800,-0.255,-0.465
5801,-0.210,-0.460
5802,-0.195,-0.405
5803,-0.175,-0.355
5804,-0.145,-0.330
5805,-0.130,-0.300
5806,-0.105,-0.300
5807,-0.145,-0.305
5808,-0.170,-0.305
5809,-0.190,-0.320
5810,-0.155,-0.325
5811,-0.130,-0.305
5812,-0.135,-0.330
5813,-0.150,-0.330
5814,-0.170,-0.345
5815,-0.155,-0.335
5816,-0.150,-0.370
5817,-0.145,-0.350
5818,-0.155,-0.355
5819,-0.140,-0.345
5820,-0.135,-0.355
5821,-0.150,-0.360
5822,-0.195,-0.365
5823,-0.195,-0.365
5824,-0.170,-0.350
5825,-0.135,-0.350
5826,-0.145,-0.350
5827,-0.145,-0.350
5828,-0.135,-0.355
5829,-0.170,-0.400
5830,-0.135,-0.350
5831,-0.130,-0.385
5832,-0.135,-0.345
5833,-0.165,-0.360
5834,-0.165,-0.375
5835,-0.165,-0.360
5836,-0.150,-0.345
5837,-0.120,-0.355
5838,-0.085,-0.355
5839,-0.075,-0.335
5840,-0.025,-0.310
5841,-0.015,-0.260
5842,-0.005,-0.260
5843,0.045,-0.260
5844,0.075,-0.320
5845,0.110,-0.335
5846,0.020,-0.310
5847,-0.050,-0.400
5848,-0.115,-0.400
5849,-0.165,-0.345
5850,-0.155,-0.375
5851,-0.130,-0.400
5852,-0.155,-0.400
5853,-0.105,-0.380
5854,-0.040,-0.290
5855,0.310,-0.220
5856,0.895,-0.270
5857,1.120,-0.560
5858,0.165,-0.970
5859,-1.115,-1.495
5860,-1.380,-1.870
5861,-1.205,-1.845
5862,-0.705,-1.385
5863,-0.390,-0.995
5864,-0.280,-0.610
5865,-0.240,-0.450
5866,-0.235,-0.370
5867,-0.240,-0.345
5868,-0.255,-0.340
5869,-0.245,-0.330
5870,-0.210,-0.320
5871,-0.225,-0.315
5872,-0.250,-0.315
5873,-0.250,-0.330
5874,-0.270,-0.335
5875,-0.300,-0.345
5876,-0.290,-0.320
5877,-0.280,-0.310
5878,-0.295,-0.320
5879,-0.320,-0.330
5880,-0.375,-0.335
5881,-0.410,-0.345
5882,-0.445,-0.360
5883,-0.455,-0.345
5884,-0.480,-0.380
5885,-0.555,-0.405
5886,-0.595,-0.410
5887,-0.645,-0.410
5888,-0.695,-0.445
5889,-0.720,-0.460
5890,-0.740,-0.475
5891,-0.760,-0.470
5892,-0.810,-0.495
5893,-0.865,-0.540
5894,-0.905,-0.530
5895,-0.900,-0.530
5896,-0.880,-0.565
5897,-0.820,-0.585
5898,-0.775,-0.610
5899,-0.745,-0.600
5900,-0.675,-0.555
5901,-0.600,-0.545
5902,-0.520,-0.525
5903,-0.420,-0.480
5904,-0.330,-0.420
5905,-0.270,-0.375
5906,-0.240,-0.320
5907,-0.200,-0.310
5908,-0.175,-0.285
5909,-0.130,-0.230
5910,-0.070,-0.230
5911,-0.065,-0.245
5912,-0.070,-0.200
5913,-0.085,-0.200
5914,-0.050,-0.225
5915,-0.070,-0.220
5916,-0.070,-0.220
5917,-0.035,-0.230
5918,-0.060,-0.240
5919,-0.090,-0.225
5920,-0.120,-0.205
5921,-0.100,-0.225
5922,-0.105,-0.235
5923,-0.060,-0.215
5924,-0.060,-0.240
5925,-0.080,-0.250
5926,-0.100,-0.235
5927,-0.110,-0.240
5928,-0.115,-0.235
5929,-0.100,-0.230
5930,-0.055,-0.235
5931,-0.040,-0.230
5932,-0.080,-0.215
5933,-0.100,-0.220
5934,-0.080,-0.235
5935,-0.105,-0.230
5936,-0.050,-0.230
5937,-0.050,-0.220
5938,-0.070,-0.220
5939,-0.080,-0.230
5940,-0.090,-0.220
5941,-0.090,-0.235
5942,-0.075,-0.220
5943,-0.050,-0.235
5944,-0.030,-0.250
5945,-0.030,-0.225
5946,-0.040,-0.230
5947,-0.010,-0.215
5948,0.045,-0.185
5949,0.105,-0.135
5950,0.120,-0.090
5951,0.145,-0.065
5952,0.150,-0.115
5953,0.155,-0.165
5954,0.120,-0.170
5955,0.050,-0.230
5956,0.005,-0.245
5957,-0.015,-0.205
5958,-0.045,-0.210
5959,-0.110,-0.220
5960,-0.095,-0.220
5961,-0.060,-0.215
5962,0.010,-0.160
5963,0.255,-0.090
5964,0.795,-0.145
5965,1.075,-0.410
5966,0.715,-0.960
5967,-0.755,-1.495
5968,-1.415,-1.905
5969,-1.240,-2.060
5970,-0.770,-1.630
5971,-0.335,-1.105
5972,-0.175,-0.590
5973,-0.135,-0.315
5974,-0.130,-0.240
5975,-0.135,-0.205
5976,-0.090,-0.175
5977,-0.100,-0.190
5978,-0.105,-0.155
5979,-0.110,-0.165
5980,-0.095,-0.170
5981,-0.085,-0.165
5982,-0.135,-0.180
5983,-0.095,-0.160
5984,-0.085,-0.135
5985,-0.130,-0.125
5986,-0.165,-0.135
5987,-0.185,-0.135
5988,-0.205,-0.130
5989,-0.205,-0.155
5990,-0.220,-0.170
5991,-0.245,-0.165
5992,-0.310,-0.165
5993,-0.375,-0.175
5994,-0.440,-0.215
5995,-0.470,-0.225
5996,-0.510,-0.270
5997,-0.525,-0.305
5998,-0.595,-0.285
5999,-0.635,-0.295
6000,-0.680,-0.345
6001,-0.735,-0.380
6002,-0.755,-0.390
6003,-0.745,-0.420
6004,-0.755,-0.445
6005,-0.740,-0.450
6006,-0.705,-0.475
6007,-0.665,-0.490
6008,-0.605,-0.485
6009,-0.515,-0.480
6010,-0.370,-0.435
6011,-0.285,-0.395
6012,-0.230,-0.330
6013,-0.175,-0.260
6014,-0.115,-0.235
6015,-0.040,-0.175
6016,0.020,-0.145
6017,0.025,-0.110
6018,0.035,-0.090
6019,0.045,-0.065
6020,0.050,-0.055
6021,0.040,-0.020
6022,0.055,-0.050
6023,0.055,-0.045
6024,0.050,-0.055
6025,0.030,-0.055
6026,0.015,-0.065
6027,-0.005,-0.075
6028,0.005,-0.095
6029,0.010,-0.085
6030,0.035,-0.100
6031,0.045,-0.095
6032,0.000,-0.090
6033,-0.010,-0.080
6034,0.000,-0.115
6035,0.005,-0.110
6036,0.015,-0.125
6037,0.015,-0.120
6038,0.020,-0.125
6039,-0.005,-0.080
6040,-0.020,-0.080
6041,-0.010,-0.125
6042,0.000,-0.100
6043,0.020,-0.115
6044,0.025,-0.105
6045,0.000,-0.095
6046,-0.020,-0.090
6047,-0.030,-0.105
6048,-0.025,-0.110
6049,0.000,-0.080
6050,0.000,-0.100
6051,0.025,-0.100
6052,0.000,-0.115
6053,-0.010,-0.075
6054,-0.005,-0.110
6055,0.065,-0.090
6056,0.140,-0.075
6057,0.195,-0.010
6058,0.165,0.035
6059,0.170,-0.010
6060,0.150,-0.055
6061,0.195,-0.095
6062,0.140,-0.085
6063,0.070,-0.130
6064,0.020,-0.120
6065,-0.015,-0.105
6066,-0.055,-0.085
6067,-0.050,-0.115
6068,-0.035,-0.130
6069,0.025,-0.120
6070,0.175,-0.025
6071,0.590,0.005
6072,1.035,-0.140
6073,1.045,-0.630
6074,0.015,-1.205
6075,-1.240,-1.670
6076,-1.340,-2.075
6077,-0.905,-1.835
6078,-0.400,-1.240
6079,-0.220,-0.660
6080,-0.105,-0.250
6081,-0.100,-0.150
6082,-0.050,-0.115
6083,-0.060,-0.055
6084,-0.065,-0.040
6085,-0.070,-0.040
6086,-0.120,-0.035
6087,-0.115,-0.030
6088,-0.110,-0.030
6089,-0.090,-0.015
6090,-0.100,-0.020
6091,-0.110,-0.015
6092,-0.125,-0.005
6093,-0.165,-0.035
6094,-0.185,-0.020
6095,-0.195,-0.020
6096,-0.190,-0.020
6097,-0.220,-0.050
6098,-0.270,-0.060
6099,-0.340,-0.040
6100,-0.400,-0.045
6101,-0.385,-0.095
6102,-0.435,-0.115
6103,-0.480,-0.130
6104,-0.525,-0.140
6105,-0.585,-0.185
6106,-0.615,-0.210
6107,-0.655,-0.265
6108,-0.660,-0.275
6109,-0.685,-0.275
6110,-0.730,-0.305
6111,-0.715,-0.345
6112,-0.725,-0.370
6113,-0.660,-0.390
6114,-0.585,-0.400
6115,-0.505,-0.385
6116,-0.405,-0.350
6117,-0.330,-0.340
6118,-0.245,-0.270
6119,-0.190,-0.245
6120,-0.110,-0.215
6121,-0.055,-0.170
6122,-0.005,-0.095
6123,0.000,-0.070
6124,0.045,-0.010
6125,0.045,-0.005
6126,0.000,0.000
6127,0.035,0.005
6128,0.050,0.020
6129,0.050,0.025
6130,0.045,0.000
6131,0.025,0.000
6132,-0.010,0.000
6133,0.000,-0.010
6134,0.010,-0.005
6135,0.015,-0.040
6136,0.005,-0.055
6137,0.005,-0.025
6138,0.030,-0.045
6139,0.010,-0.045
6140,0.000,-0.040
6141,-0.015,-0.040
6142,0.000,-0.025
6143,0.025,-0.010
6144,0.000,-0.035
6145,-0.020,-0.085
6146,-0.040,-0.075
6147,-0.005,-0.055
6148,0.005,-0.065
6149,0.045,-0.070
6150,0.020,-0.080
6151,0.000,-0.065
6152,-0.040,-0.045
6153,-0.050,-0.075
6154,-0.045,-0.070
6155,0.000,-0.075
6156,0.010,-0.075
6157,-0.005,-0.060
6158,-0.040,-0.075
6159,-0.005,-0.050
6160,-0.020,-0.045
6161,-0.005,-0.055
6162,0.040,-0.040
6163,0.150,0.005
6164,0.150,0.065
6165,0.140,0.080
6166,0.150,0.015
6167,0.170,-0.020
6168,0.195,-0.040
6169,0.130,-0.040
6170,0.040,-0.110
6171,0.000,-0.080
6172,-0.040,-0.055
6173,-0.070,-0.085
6174,-0.055,-0.080
6175,-0.040,-0.110
6176,0.040,-0.075
6177,0.165,0.065
6178,0.605,0.075
6179,1.075,-0.055
6180,1.080,-0.410
6181,-0.190,-0.870
6182,-1.195,-1.330
6183,-1.205,-1.630
6184,-0.945,-1.465
6185,-0.500,-1.015
6186,-0.270,-0.600
6187,-0.180,-0.210
6188,-0.155,-0.110
6189,-0.120,-0.040
6190,-0.110,-0.030
6191,-0.130,-0.040
6192,-0.135,-0.020
6193,-0.130,0.005
6194,-0.105,0.010
6195,-0.115,0.000
6196,-0.100,0.000
6197,-0.120,0.010
6198,-0.175,0.005
6199,-0.185,0.010
6200,-0.195,0.005
6201,-0.190,0.000
6202,-0.195,0.005
6203,-0.225,0.000
6204,-0.235,-0.015
6205,-0.315,-0.015
6206,-0.340,-0.030
6207,-0.335,-0.025
6208,-0.415,-0.060
6209,-0.445,-0.065
6210,-0.510,-0.070
6211,-0.520,-0.090
6212,-0.555,-0.100
6213,-0.620,-0.135
6214,-0.670,-0.135
6215,-0.685,-0.160
6216,-0.710,-0.175
6217,-0.720,-0.180
6218,-0.755,-0.235
6219,-0.750,-0.235
6220,-0.730,-0.275
6221,-0.685,-0.280
6222,-0.590,-0.285
6223,-0.510,-0.275
6224,-0.430,-0.225
6225,-0.350,-0.190
6226,-0.290,-0.185
6227,-0.260,-0.130
6228,-0.145,-0.055
6229,-0.065,0.000
6230,-0.065,0.020
6231,-0.030,0.055
6232,0.000,0.075
6233,-0.020,0.100
6234,0.025,0.115
6235,0.055,0.080
6236,0.040,0.065
6237,0.035,0.085
6238,0.060,0.080
6239,0.035,0.070
6240,0.025,0.095
6241,0.025,0.085
6242,0.025,0.070
6243,0.030,0.060
6244,0.010,0.045
6245,0.000,0.070
6246,-0.030,0.030
6247,0.000,0.045
6248,0.010,0.050
6249,0.000,0.040
6250,0.015,0.060
6251,0.000,0.060
6252,-0.015,0.070
6253,-0.010,0.045
6254,-0.050,0.025
6255,-0.015,0.060
6256,-0.005,0.060
6257,-0.015,0.055
6258,-0.010,0.060
6259,-0.015,0.040
6260,-0.020,0.045
6261,-0.020,0.050
6262,0.000,0.040
6263,-0.010,0.005
6264,-0.015,0.015
6265,-0.005,0.010
6266,-0.035,0.000
6267,-0.040,0.000
6268,-0.030,0.000
6269,0.010,0.000
6270,0.070,0.010
6271,0.135,0.085
6272,0.110,0.130
6273,0.125,0.120
6274,0.130,0.080
6275,0.200,0.050
6276,0.210,0.020
6277,0.105,0.020
6278,0.020,-0.030
6279,-0.035,0.010
6280,-0.070,0.000
6281,-0.070,-0.005
6282,-0.030,-0.050
6283,0.005,-0.025
6284,0.035,0.015
6285,0.185,0.130
6286,0.650,0.110
6287,1.075,-0.015
6288,1.085,-0.380
6289,-0.180,-0.860
6290,-1.220,-1.290
6291,-1.250,-1.620
6292,-0.980,-1.455
6293,-0.480,-0.980
6294,-0.245,-0.560
6295,-0.135,-0.180
6296,-0.105,-0.025
6297,-0.100,0.010
6298,-0.095,0.055
6299,-0.080,0.070
6300,-0.110,0.035
6301,-0.105,0.040
6302,-0.080,0.045
6303,-0.105,0.045
6304,-0.110,0.060
6305,-0.115,0.060
6306,-0.145,0.060
6307,-0.150,0.060
6308,-0.160,0.065
6309,-0.125,0.065
6310,-0.160,0.040
6311,-0.180,0.060
6312,-0.265,0.030
6313,-0.290,0.035
6314,-0.330,0.035
6315,-0.340,0.025
6316,-0.400,0.005
6317,-0.455,-0.005
6318,-0.520,-0.045
6319,-0.545,-0.065
6320,-0.565,-0.080
6321,-0.620,-0.090
6322,-0.640,-0.110
6323,-0.675,-0.140
6324,-0.705,-0.150
6325,-0.745,-0.170
6326,-0.760,-0.165
6327,-0.740,-0.225
6328,-0.670,-0.225
6329,-0.615,-0.225
6330,-0.550,-0.235
6331,-0.490,-0.215
6332,-0.415,-0.190
6333,-0.310,-0.155
6334,-0.235,-0.095
6335,-0.160,-0.060
6336,-0.060,-0.025
6337,-0.010,0.040
6338,0.020,0.070
6339,0.040,0.100
6340,0.055,0.120
6341,0.100,0.140
6342,0.155,0.155
6343,0.150,0.150
6344,0.125,0.140
6345,0.135,0.155
6346,0.130,0.160
6347,0.120,0.135
6348,0.120,0.110
6349,0.155,0.125
6350,0.135,0.080
6351,0.100,0.105
6352,0.085,0.075
6353,0.095,0.080
6354,0.105,0.080
6355,0.110,0.095
6356,0.140,0.045
6357,0.125,0.045
6358,0.100,0.060
6359,0.095,0.070
6360,0.095,0.055
6361,0.115,0.070
6362,0.120,0.035
6363,0.115,0.055
6364,0.105,0.030
6365,0.090,0.020
6366,0.100,0.045
6367,0.130,0.055
6368,0.140,0.060
6369,0.145,0.060
6370,0.110,0.050
6371,0.095,0.045
6372,0.095,0.035
6373,0.115,0.040
6374,0.100,0.030
6375,0.120,0.060
6376,0.130,0.065
6377,0.140,0.045
6378,0.160,0.060
6379,0.270,0.105
6380,0.260,0.170
6381,0.270,0.215
6382,0.305,0.125
6383,0.325,0.085
6384,0.335,0.085
6385,0.225,0.050
6386,0.185,0.005
6387,0.105,0.005
6388,0.110,0.015
6389,0.095,0.010
6390,0.070,-0.015
6391,0.070,-0.020
6392,0.150,-0.010
6393,0.265,0.085
6394,0.680,0.140
6395,1.145,-0.005
6396,1.180,-0.485
6397,0.045,-1.070
6398,-1.200,-1.540
6399,-1.250,-1.935
6400,-0.870,-1.740
6401,-0.350,-1.165
6402,-0.100,-0.630
6403,0.015,-0.200
6404,0.000,-0.035
6405,0.000,-0.025
6406,0.015,0.005
6407,0.015,0.015
6408,0.035,0.035
6409,0.020,0.025
6410,0.000,0.035
6411,-0.025,0.035
6412,-0.020,0.050
6413,-0.030,0.060
6414,-0.030,0.055
6415,0.000,0.045
6416,-0.020,0.040
6417,-0.045,0.065
6418,-0.100,0.015
6419,-0.120,0.030
6420,-0.155,0.030
6421,-0.150,0.000
6422,-0.190,0.020
6423,-0.240,0.000
6424,-0.300,-0.025
6425,-0.345,-0.035
6426,-0.395,-0.060
6427,-0.440,-0.075
6428,-0.455,-0.095
6429,-0.510,-0.150
6430,-0.575,-0.155
6431,-0.620,-0.180
6432,-0.650,-0.190
6433,-0.675,-0.225
6434,-0.660,-0.260
6435,-0.615,-0.285
6436,-0.580,-0.285
6437,-0.515,-0.300
6438,-0.455,-0.315
6439,-0.360,-0.300
6440,-0.265,-0.265
6441,-0.150,-0.220
6442,-0.040,-0.160
6443,0.005,-0.110
6444,0.065,-0.070
6445,0.105,-0.020
6446,0.130,0.000
6447,0.170,0.040
6448,0.195,0.065
6449,0.195,0.100
6450,0.200,0.120
6451,0.180,0.135
6452,0.160,0.120
6453,0.175,0.125
6454,0.195,0.120
6455,0.185,0.115
6456,0.175,0.120
6457,0.140,0.120
6458,0.140,0.115
6459,0.160,0.100
6460,0.165,0.065
6461,0.185,0.060
6462,0.200,0.085
6463,0.160,0.080
6464,0.150,0.070
6465,0.165,0.065
6466,0.125,0.075
6467,0.170,0.065
6468,0.185,0.050
6469,0.165,0.060
6470,0.135,0.065
6471,0.110,0.045
6472,0.145,0.030
6473,0.145,0.030
6474,0.160,0.045
6475,0.175,0.040
6476,0.135,0.035
6477,0.110,0.015
6478,0.105,0.030
6479,0.120,0.025
6480,0.130,0.000
6481,0.135,0.025
6482,0.110,0.030
6483,0.105,0.020
6484,0.160,0.035
6485,0.195,0.045
6486,0.235,0.045
6487,0.290,0.110
6488,0.270,0.150
6489,0.285,0.140
6490,0.290,0.075
6491,0.295,0.040
6492,0.215,0.030
6493,0.160,-0.040
6494,0.155,-0.015
6495,0.110,0.005
6496,0.040,-0.005
6497,0.005,-0.025
6498,0.040,-0.030
6499,0.055,-0.020
6500,0.145,0.095
6501,0.565,0.120
6502,1.050,0.000
6503,1.170,-0.395
6504,0.100,-0.920
6505,-1.220,-1.435
6506,-1.325,-1.850
6507,-1.000,-1.735
6508,-0.465,-1.170
6509,-0.215,-0.655
6510,-0.125,-0.260
6511,-0.130,-0.060
6512,-0.100,-0.005
6513,-0.075,0.005
6514,-0.045,0.010
6515,-0.080,0.020
6516,-0.095,0.035
6517,-0.085,0.030
6518,-0.110,0.015
6519,-0.125,0.020
6520,-0.085,0.010
6521,-0.080,0.000
6522,-0.105,0.000
6523,-0.180,-0.015
6524,-0.200,0.010
6525,-0.200,0.015
6526,-0.205,-0.005
6527,-0.240,0.000
6528,-0.215,-0.015
6529,-0.275,-0.020
6530,-0.360,-0.075
6531,-0.410,-0.085
6532,-0.455,-0.105
6533,-0.495,-0.115
6534,-0.520,-0.140
6535,-0.570,-0.165
6536,-0.630,-0.180
6537,-0.715,-0.210
6538,-0.755,-0.215
6539,-0.760,-0.245
6540,-0.825,-0.270
6541,-0.815,-0.280
6542,-0.795,-0.315
6543,-0.785,-0.335
6544,-0.695,-0.390
6545,-0.645,-0.335
6546,-0.585,-0.360
6547,-0.465,-0.335
6548,-0.395,-0.315
6549,-0.280,-0.215
6550,-0.295,-0.215
6551,-0.200,-0.115
6552,-0.150,-0.065
6553,-0.080,-0.050
6554,-0.030,-0.045
6555,-0.050,-0.015
6556,-0.025,0.010
6557,-0.015,0.015
6558,-0.050,0.055
6559,-0.050,0.060
6560,-0.045,0.075
6561,-0.030,0.050
6562,-0.050,0.060
6563,-0.070,0.075
6564,-0.090,0.055
6565,-0.080,-0.005
6566,-0.075,0.000
6567,-0.075,0.065
6568,-0.060,0.020
6569,-0.100,0.045
6570,-0.085,0.000
6571,-0.105,-0.070
6572,-0.130,0.060
6573,-0.080,0.025
