'sample interval','ECG0','ECG1'
'0.0078125 sec','mV','mV'
0,-0.035,0.770
1,-0.040,0.720
2,0.000,0.750
3,0.005,0.765
4,0.015,0.760
5,0.080,0.770
6,0.050,0.755
7,0.000,0.740
8,0.055,0.755
9,0.035,0.695
10,0.015,0.730
11,-0.025,0.750
12,0.045,0.670
13,0.090,0.755
14,0.040,0.695
15,0.140,0.640
16,0.180,0.645
17,0.030,0.730
18,0.040,0.710
19,0.100,0.685
20,0.200,0.690
21,0.295,0.755
22,0.395,0.740
23,0.260,0.755
24,0.260,0.720
25,0.230,0.635
26,0.170,0.670
27,0.195,0.600
28,0.170,0.620
29,0.085,0.665
30,0.055,0.575
31,0.170,0.565
32,0.205,0.595
33,0.305,0.725
34,0.815,0.665
35,1.490,0.615
36,1.755,0.050
37,0.525,-0.870
38,-0.920,-1.275
39,-1.040,-1.645
40,-0.630,-1.315
41,-0.105,-0.590
42,0.040,-0.010
43,0.170,0.430
44,0.150,0.515
45,0.040,0.710
46,0.085,0.535
47,0.095,0.515
48,0.135,0.590
49,0.175,0.580
50,0.105,0.625
51,0.170,0.620
52,0.200,0.575
53,0.085,0.655
54,0.030,0.615
55,0.075,0.555
56,0.060,0.565
57,0.095,0.565
58,0.025,0.575
59,-0.030,0.560
60,-0.090,0.460
61,-0.175,0.475
62,-0.120,0.470
63,-0.095,0.465
64,-0.150,0.530
65,-0.205,0.480
66,-0.220,0.385
67,-0.360,0.445
68,-0.340,0.380
69,-0.345,0.300
70,-0.245,0.205
71,-0.300,0.280
72,-0.315,0.305
73,-0.300,0.270
74,-0.280,0.315
75,-0.180,0.265
76,-0.075,0.290
77,0.025,0.245
78,0.160,0.375
79,0.170,0.325
80,0.160,0.430
81,0.310,0.415
82,0.385,0.470
83,0.325,0.500
84,0.360,0.455
85,0.385,0.480
86,0.410,0.530
87,0.445,0.455
88,0.420,0.425
89,0.515,0.395
90,0.435,0.485
91,0.405,0.430
92,0.410,0.420
93,0.370,0.415
94,0.375,0.410
95,0.410,0.340
96,0.455,0.305
97,0.445,0.370
98,0.300,0.380
99,0.410,0.365
100,0.435,0.315
101,0.430,0.395
102,0.420,0.285
103,0.400,0.345
104,0.395,0.255
105,0.450,0.285
106,0.390,0.270
107,0.380,0.285
108,0.435,0.210
109,0.410,0.315
110,0.410,0.260
111,0.405,0.230
112,0.380,0.260
113,0.475,0.255
114,0.520,0.240
115,0.535,0.215
116,0.390,0.220
117,0.430,0.310
118,0.435,0.250
119,0.380,0.220
120,0.525,0.215
121,0.600,0.205
122,0.635,0.255
123,0.640,0.275
124,0.615,0.240
125,0.640,0.230
126,0.695,0.120
127,0.585,0.115
128,0.595,0.050
129,0.530,0.115
130,0.460,0.130
131,0.515,0.100
132,0.580,0.095
133,0.500,0.105
134,0.580,0.100
135,0.905,0.190
136,1.645,0.235
137,2.370,0.085
138,2.110,-0.575
139,0.330,-1.425
140,-0.510,-1.820
141,-0.330,-1.830
142,0.090,-1.350
143,0.450,-0.780
144,0.575,-0.390
145,0.755,-0.080
146,0.760,0.090
147,0.570,0.065
148,0.710,-0.035
149,0.790,-0.005
150,0.820,0.060
151,0.785,0.115
152,0.845,0.070
153,0.910,0.075
154,0.815,0.140
155,0.820,0.040
156,0.880,0.005
157,0.920,0.030
158,0.895,0.050
159,0.880,0.015
160,0.850,0.025
161,0.795,0.060
162,0.725,-0.055
163,0.665,-0.025
164,0.825,-0.020
165,0.925,-0.060
166,0.875,-0.095
167,0.875,-0.085
168,0.845,-0.115
169,0.820,-0.120
170,0.840,-0.125
171,0.725,-0.205
172,0.735,-0.245
173,0.735,-0.270
174,0.735,-0.230
175,0.715,-0.280
176,0.810,-0.280
177,0.875,-0.275
178,1.005,-0.165
179,1.005,-0.165
180,1.075,-0.215
181,1.225,-0.160
182,1.345,-0.110
183,1.235,-0.050
184,1.335,-0.085
185,1.425,-0.115
186,1.315,-0.025
187,1.325,-0.085
188,1.385,-0.110
189,1.350,-0.110
190,1.385,-0.125
191,1.455,-0.135
192,1.390,-0.155
193,1.350,-0.080
194,1.385,-0.100
195,1.360,-0.115
196,1.395,-0.205
197,1.335,-0.115
198,1.290,-0.150
199,1.320,-0.165
200,1.325,-0.200
201,1.375,-0.170
202,1.365,-0.135
203,1.340,-0.190
204,1.370,-0.200
205,1.325,-0.210
206,1.325,-0.195
207,1.365,-0.215
208,1.425,-0.170
209,1.290,-0.175
210,1.315,-0.270
211,1.270,-0.275
212,1.290,-0.280
213,1.330,-0.295
214,1.395,-0.275
215,1.325,-0.265
216,1.380,-0.245
217,1.395,-0.245
218,1.400,-0.230
219,1.380,-0.305
220,1.295,-0.345
221,1.385,-0.330
222,1.505,-0.285
223,1.520,-0.250
224,1.480,-0.240
225,1.480,-0.250
226,1.490,-0.230
227,1.555,-0.275
228,1.550,-0.370
229,1.555,-0.370
230,1.450,-0.385
231,1.265,-0.365
232,1.320,-0.390
233,1.355,-0.375
234,1.375,-0.395
235,1.475,-0.370
236,1.580,-0.290
237,2.150,-0.230
238,2.825,-0.275
239,3.050,-0.485
240,1.675,-1.090
241,0.350,-1.720
242,0.200,-1.890
243,0.455,-1.765
244,0.975,-1.395
245,1.165,-0.990
246,1.290,-0.655
247,1.380,-0.460
248,1.375,-0.400
249,1.305,-0.390
250,1.320,-0.385
251,1.390,-0.400
252,1.445,-0.340
253,1.390,-0.320
254,1.365,-0.380
255,1.255,-0.430
256,1.230,-0.425
257,1.305,-0.405
258,1.280,-0.380
259,1.260,-0.285
260,1.120,-0.315
261,1.100,-0.470
262,1.040,-0.460
263,1.070,-0.440
264,1.040,-0.425
265,1.005,-0.410
266,0.945,-0.445
267,0.895,-0.485
268,0.835,-0.500
269,0.790,-0.505
270,0.785,-0.455
271,0.785,-0.420
272,0.640,-0.575
273,0.650,-0.610
274,0.615,-0.590
275,0.600,-0.575
276,0.670,-0.590
277,0.755,-0.550
278,0.825,-0.575
279,0.865,-0.530
280,0.945,-0.520
281,1.025,-0.500
282,1.050,-0.455
283,1.175,-0.455
284,1.255,-0.435
285,1.255,-0.405
286,1.260,-0.400
287,1.305,-0.380
288,1.330,-0.365
289,1.330,-0.385
290,1.345,-0.350
291,1.330,-0.350
292,1.325,-0.350
293,1.285,-0.390
294,1.300,-0.375
295,1.290,-0.375
296,1.300,-0.370
297,1.235,-0.415
298,1.230,-0.415
299,1.235,-0.440
300,1.140,-0.460
301,1.090,-0.425
302,1.155,-0.430
303,1.200,-0.445
304,0.985,-0.435
305,1.025,-0.415
306,0.985,-0.465
307,0.945,-0.450
308,0.990,-0.440
309,0.985,-0.495
310,0.965,-0.465
311,1.000,-0.435
312,0.990,-0.570
313,0.975,-0.560
314,0.975,-0.505
315,1.030,-0.475
316,0.935,-0.585
317,0.960,-0.570
318,0.945,-0.540
319,0.950,-0.545
320,0.890,-0.570
321,0.875,-0.525
322,0.870,-0.540
323,0.900,-0.510
324,0.935,-0.555
325,0.950,-0.475
326,0.870,-0.430
327,0.860,-0.410
328,0.835,-0.435
329,0.860,-0.400
330,0.815,-0.525
331,0.735,-0.650
332,0.670,-0.760
333,0.605,-0.685
334,0.600,-0.680
335,0.610,-0.665
336,0.500,-0.650
337,0.540,-0.610
338,0.675,-0.515
339,1.095,-0.500
340,1.660,-0.545
341,1.680,-1.090
342,0.080,-1.745
343,-0.985,-2.145
344,-0.980,-2.320
345,-0.600,-2.060
346,-0.165,-1.570
347,0.050,-1.105
348,0.070,-0.805
349,0.030,-0.675
350,0.045,-0.635
351,0.055,-0.590
352,0.085,-0.590
353,0.095,-0.590
354,0.055,-0.580
355,0.000,-0.540
356,0.005,-0.570
357,0.005,-0.595
358,0.005,-0.595
359,-0.070,-0.525
360,-0.095,-0.450
361,-0.115,-0.540
362,-0.175,-0.615
363,-0.240,-0.595
364,-0.285,-0.560
365,-0.300,-0.555
366,-0.355,-0.550
367,-0.400,-0.475
368,-0.500,-0.135
369,-0.545,-0.320
370,-0.575,-0.770
371,-0.535,-0.970
372,-0.745,-1.005
373,-0.765,-0.915
374,-0.830,-0.840
375,-0.855,-0.780
376,-0.870,-0.815
377,-0.850,-0.795
378,-0.795,-0.820
379,-0.780,-0.710
380,-0.705,-0.590
381,-0.645,-0.805
382,-0.490,-0.610
383,-0.465,-0.140
384,-0.295,-0.715
385,-0.235,-0.850
386,-0.195,-0.985
387,-0.155,-0.770
388,-0.080,-0.690
389,-0.105,-0.570
390,-0.080,-0.520
391,0.060,-0.500
392,-0.065,-0.500
393,-0.120,-0.450
394,-0.085,-0.400
395,-0.100,-0.275
396,-0.085,-0.190
397,-0.105,-0.645
398,-0.110,-0.515
399,-0.100,-0.455
400,-0.075,-0.655
401,-0.115,-0.725
402,-0.100,-0.730
403,-0.120,-0.645
404,-0.120,-0.480
405,-0.065,-0.365
406,-0.060,-0.610
407,-0.010,-0.565
408,-0.290,-0.400
409,-0.145,-0.510
410,-0.185,-0.620
411,-0.150,-0.255
412,-0.170,-0.655
413,-0.160,-0.840
414,-0.170,-0.590
415,-0.170,-0.640
416,-0.165,-0.735
417,-0.155,-0.530
418,-0.145,-0.485
419,-0.245,-0.570
420,-0.240,-0.525
421,-0.175,-0.635
422,-0.195,-0.725
423,-0.140,-0.390
424,-0.210,-0.225
425,-0.095,-0.610
426,0.025,-0.545
427,0.070,-0.685
428,0.010,-0.525
429,0.065,-0.430
430,-0.135,-0.575
431,-0.010,-0.605
432,0.080,-0.635
433,0.040,-0.575
434,0.010,-0.430
435,-0.055,-0.665
436,0.000,-0.835
437,-0.090,-0.695
438,-0.045,-0.735
439,0.050,-0.535
440,0.625,-0.430
441,1.085,-0.440
442,1.390,-1.225
443,0.230,-2.060
444,-1.250,-2.435
445,-1.420,-2.685
446,-0.910,-2.535
447,-0.550,-1.750
448,-0.425,-1.095
449,-0.370,-0.840
450,-0.350,-0.705
451,-0.270,-0.650
452,-0.380,-0.470
453,-0.345,-0.720
454,-0.300,-0.515
455,-0.405,-0.415
456,-0.400,-0.580
457,-0.415,-0.635
458,-0.440,-0.165
459,-0.510,-0.430
460,-0.445,-0.925
461,-0.410,-0.820
462,-0.585,-0.595
463,-0.570,-0.570
464,-0.655,-0.515
465,-0.640,-0.435
466,-0.705,-0.490
467,-0.620,-0.505
468,-0.915,-0.700
469,-0.990,-0.680
470,-0.995,-0.230
471,-1.090,-0.350
472,-1.055,-1.050
473,-1.200,-0.805
474,-1.105,-0.570
475,-1.350,-0.435
476,-1.290,-1.270
477,-1.325,-1.090
478,-1.345,-0.885
479,-1.360,-0.815
480,-1.330,-0.865
481,-1.260,-0.870
482,-1.250,-0.835
483,-1.165,-0.835
484,-0.945,-0.740
485,-0.835,-0.700
486,-0.830,-0.670
487,-0.615,-0.365
488,-0.735,-0.545
489,-0.655,-0.515
490,-0.575,-0.805
491,-0.525,-0.315
492,-0.515,-0.715
493,-0.600,-0.675
494,-0.690,-0.580
495,-0.570,-0.545
496,-0.600,-0.525
497,-0.530,-0.435
498,-0.690,-0.470
499,-0.775,-0.565
500,-0.705,-0.585
501,-0.645,-0.545
502,-0.660,-0.665
503,-0.675,-0.700
504,-0.625,-0.575
505,-0.620,-0.550
506,-0.760,-0.540
507,-0.760,-0.595
508,-0.780,-0.650
509,-0.750,-0.665
510,-0.625,-0.565
511,-0.665,-0.595
512,-0.865,-0.555
513,-0.705,-0.655
514,-0.790,-0.770
515,-0.805,-0.670
516,-0.695,-0.580
517,-0.635,-0.685
518,-0.615,-0.605
519,-0.795,-0.680
520,-0.790,-0.775
521,-0.745,-0.695
522,-0.645,-0.645
523,-0.570,-0.640
524,-0.590,-0.595
525,-0.515,-0.535
526,-0.515,-0.480
527,-0.470,-0.680
528,-0.335,-0.690
529,-0.305,-0.635
530,-0.340,-0.545
531,-0.300,-0.605
532,-0.410,-0.815
533,-0.360,-0.765
534,-0.660,-0.480
535,-0.565,-0.740
536,-0.475,-0.730
537,-0.510,-0.755
538,-0.625,-0.685
539,-0.410,-0.630
540,-0.040,-0.535
541,0.555,-0.565
542,1.005,-0.740
543,0.730,-1.465
544,-0.995,-2.070
545,-1.830,-2.610
546,-1.545,-2.665
547,-1.090,-1.920
548,-0.680,-1.540
549,-0.585,-1.070
550,-0.560,-0.660
551,-0.565,-0.755
552,-0.455,-0.715
553,-0.395,-0.600
554,-0.385,-0.610
555,-0.465,-0.625
556,-0.400,-0.565
557,-0.595,-0.540
558,-0.565,-0.570
559,-0.520,-0.515
560,-0.520,-0.530
561,-0.520,-0.595
562,-0.505,-0.575
563,-0.515,-0.565
564,-0.635,-0.620
565,-0.640,-0.595
566,-0.645,-0.550
567,-0.685,-0.585
568,-0.800,-0.575
569,-0.815,-0.680
570,-0.865,-0.655
571,-1.035,-0.660
572,-0.990,-0.695
573,-1.055,-0.730
574,-1.115,-0.710
575,-1.075,-0.740
576,-1.340,-0.725
577,-1.270,-0.760
578,-1.200,-0.735
579,-1.025,-0.945
580,-1.265,-0.905
581,-1.195,-0.885
582,-0.980,-0.845
583,-0.980,-0.840
584,-0.885,-0.795
585,-0.715,-0.695
586,-0.605,-0.675
587,-0.620,-0.685
588,-0.580,-0.595
589,-0.475,-0.535
590,-0.585,-0.555
591,-0.370,-0.515
592,-0.490,-0.550
593,-0.470,-0.515
594,-0.520,-0.495
595,-0.540,-0.420
596,-0.590,-0.605
597,-0.565,-0.595
598,-0.545,-0.615
599,-0.500,-0.570
600,-0.515,-0.495
601,-0.560,-0.495
602,-0.585,-0.575
603,-0.455,-0.625
604,-0.515,-0.615
605,-0.680,-0.550
606,-0.670,-0.565
607,-0.620,-0.595
608,-0.605,-0.680
609,-0.615,-0.610
610,-0.575,-0.600
611,-0.555,-0.600
612,-0.535,-0.570
613,-0.720,-0.570
614,-0.615,-0.575
615,-0.680,-0.630
616,-0.605,-0.580
617,-0.650,-0.605
618,-0.655,-0.580
619,-0.650,-0.595
620,-0.680,-0.550
621,-0.615,-0.600
622,-0.580,-0.540
623,-0.545,-0.575
624,-0.625,-0.515
625,-0.625,-0.575
626,-0.590,-0.470
627,-0.480,-0.405
628,-0.475,-0.440
629,-0.480,-0.460
630,-0.410,-0.545
631,-0.560,-0.600
632,-0.580,-0.565
633,-0.550,-0.560
634,-0.770,-0.575
635,-0.665,-0.570
636,-0.625,-0.555
637,-0.620,-0.590
638,-0.500,-0.540
639,-0.255,-0.415
640,0.480,-0.400
641,0.990,-0.560
642,0.495,-1.130
643,-1.210,-1.695
644,-1.965,-2.100
645,-1.860,-2.220
646,-1.335,-1.695
647,-0.870,-1.350
648,-0.655,-0.970
649,-0.745,-0.665
650,-0.680,-0.535
651,-0.660,-0.515
652,-0.675,-0.495
653,-0.735,-0.490
654,-0.680,-0.490
655,-0.625,-0.405
656,-0.650,-0.455
657,-0.725,-0.450
658,-0.715,-0.465
659,-0.660,-0.525
660,-0.640,-0.440
661,-0.650,-0.445
662,-0.780,-0.435
663,-0.820,-0.385
664,-0.835,-0.450
665,-0.835,-0.405
666,-0.845,-0.445
667,-0.830,-0.485
668,-1.055,-0.530
669,-1.025,-0.500
670,-1.100,-0.495
671,-1.140,-0.565
672,-1.150,-0.475
673,-1.190,-0.530
674,-1.185,-0.510
675,-1.265,-0.510
676,-1.360,-0.590
677,-1.315,-0.680
678,-1.245,-0.650
679,-1.175,-0.630
680,-1.105,-0.605
681,-0.975,-0.610
682,-0.990,-0.565
683,-0.840,-0.430
684,-0.785,-0.570
685,-0.610,-0.475
686,-0.665,-0.380
687,-0.525,-0.380
688,-0.440,-0.350
689,-0.390,-0.345
690,-0.340,-0.290
691,-0.430,-0.335
692,-0.465,-0.355
693,-0.350,-0.315
694,-0.340,-0.320
695,-0.365,-0.265
696,-0.355,-0.305
697,-0.385,-0.325
698,-0.360,-0.305
699,-0.370,-0.305
700,-0.340,-0.360
701,-0.405,-0.345
702,-0.410,-0.305
703,-0.325,-0.325
704,-0.365,-0.330
705,-0.420,-0.345
706,-0.425,-0.325
707,-0.430,-0.335
708,-0.465,-0.355
709,-0.410,-0.365
710,-0.390,-0.350
711,-0.395,-0.335
712,-0.415,-0.325
713,-0.480,-0.350
714,-0.420,-0.340
715,-0.405,-0.345
716,-0.455,-0.345
717,-0.415,-0.355
718,-0.420,-0.260
719,-0.430,-0.330
720,-0.435,-0.295
721,-0.490,-0.350
722,-0.450,-0.390
723,-0.375,-0.365
724,-0.465,-0.325
725,-0.525,-0.300
726,-0.535,-0.265
727,-0.475,-0.230
728,-0.545,-0.105
729,-0.460,-0.230
730,-0.390,-0.385
731,-0.535,-0.430
732,-0.540,-0.395
733,-0.585,-0.390
734,-0.575,-0.360
735,-0.720,-0.345
736,-0.660,-0.425
737,-0.600,-0.405
738,-0.540,-0.385
739,-0.425,-0.270
740,0.085,-0.260
741,0.565,-0.310
742,0.710,-0.755
743,-0.560,-1.480
744,-1.765,-1.980
745,-1.925,-2.415
746,-1.490,-2.030
747,-1.035,-1.395
748,-0.810,-0.970
749,-0.755,-0.635
750,-0.690,-0.390
751,-0.630,-0.340
752,-0.730,-0.310
753,-0.760,-0.325
754,-0.720,-0.295
755,-0.750,-0.280
756,-0.810,-0.320
757,-0.830,-0.265
758,-0.830,-0.255
759,-0.785,-0.325
760,-0.840,-0.310
761,-0.810,-0.300
762,-0.795,-0.335
763,-0.805,-0.275
764,-0.970,-0.270
765,-0.930,-0.280
766,-0.970,-0.275
767,-1.025,-0.260
768,-1.020,-0.290
769,-1.075,-0.330
770,-1.220,-0.410
771,-1.160,-0.335
772,-1.265,-0.385
773,-1.290,-0.520
774,-1.350,-0.485
775,-1.425,-0.445
776,-1.460,-0.480
777,-1.450,-0.580
778,-1.410,-0.580
779,-1.430,-0.555
780,-1.410,-0.590
781,-1.340,-0.585
782,-1.160,-0.525
783,-1.150,-0.505
784,-1.035,-0.555
785,-0.890,-0.480
786,-0.890,-0.395
787,-0.780,-0.355
788,-0.680,-0.340
789,-0.635,-0.305
790,-0.620,-0.285
791,-0.525,-0.265
792,-0.485,-0.195
793,-0.500,-0.200
794,-0.510,-0.220
795,-0.450,-0.265
796,-0.525,-0.175
797,-0.525,-0.205
798,-0.455,-0.260
799,-0.500,-0.260
800,-0.530,-0.200
801,-0.575,-0.235
802,-0.575,-0.240
803,-0.550,-0.220
804,-0.610,-0.255
805,-0.495,-0.220
806,-0.530,-0.245
807,-0.585,-0.330
808,-0.545,-0.295
809,-0.575,-0.315
810,-0.500,-0.250
811,-0.480,-0.270
812,-0.480,-0.180
813,-0.600,-0.285
814,-0.640,-0.335
815,-0.550,-0.280
816,-0.560,-0.335
817,-0.555,-0.300
818,-0.530,-0.290
819,-0.520,-0.295
820,-0.470,-0.285
821,-0.495,-0.315
822,-0.455,-0.350
823,-0.545,-0.305
824,-0.530,-0.255
825,-0.495,-0.270
826,-0.460,-0.235
827,-0.365,-0.215
828,-0.380,-0.195
829,-0.325,-0.180
830,-0.305,-0.225
831,-0.270,-0.360
832,-0.335,-0.340
833,-0.485,-0.325
834,-0.475,-0.295
835,-0.490,-0.375
836,-0.520,-0.380
837,-0.540,-0.355
838,-0.500,-0.340
839,-0.460,-0.325
840,-0.375,-0.295
841,0.150,-0.255
842,0.735,-0.295
843,0.975,-0.870
844,0.000,-1.635
845,-1.520,-2.115
846,-1.900,-2.570
847,-1.405,-2.275
848,-0.880,-1.515
849,-0.680,-0.965
850,-0.555,-0.515
851,-0.585,-0.330
852,-0.590,-0.375
853,-0.630,-0.300
854,-0.610,-0.235
855,-0.530,-0.295
856,-0.580,-0.265
857,-0.610,-0.255
858,-0.600,-0.290
859,-0.605,-0.250
860,-0.585,-0.200
861,-0.505,-0.180
862,-0.685,-0.175
863,-0.670,-0.200
864,-0.795,-0.270
865,-0.795,-0.210
866,-0.815,-0.225
867,-0.815,-0.245
868,-0.825,-0.215
869,-0.855,-0.340
870,-0.950,-0.325
871,-1.010,-0.330
872,-1.040,-0.405
873,-0.975,-0.435
874,-1.205,-0.385
875,-1.240,-0.405
876,-1.255,-0.450
877,-1.285,-0.515
878,-1.320,-0.480
879,-1.340,-0.535
880,-1.265,-0.560
881,-1.195,-0.520
882,-1.150,-0.485
883,-0.995,-0.540
884,-0.925,-0.510
885,-0.855,-0.495
886,-0.700,-0.430
887,-0.600,-0.375
888,-0.545,-0.360
889,-0.485,-0.260
890,-0.400,-0.215
891,-0.405,-0.200
892,-0.430,-0.165
893,-0.380,-0.245
894,-0.370,-0.215
895,-0.375,-0.080
896,-0.380,-0.215
897,-0.280,-0.250
898,-0.395,-0.230
899,-0.400,-0.275
900,-0.370,-0.260
901,-0.460,-0.240
902,-0.470,-0.240
903,-0.455,-0.255
904,-0.405,-0.250
905,-0.370,-0.255
906,-0.400,-0.295
907,-0.410,-0.310
908,-0.450,-0.275
909,-0.465,-0.310
910,-0.425,-0.335
911,-0.395,-0.325
912,-0.375,-0.295
913,-0.410,-0.295
914,-0.415,-0.285
915,-0.435,-0.310
916,-0.380,-0.340
917,-0.390,-0.305
918,-0.370,-0.270
919,-0.405,-0.285
920,-0.420,-0.315
921,-0.450,-0.280
922,-0.465,-0.335
923,-0.380,-0.275
924,-0.300,-0.230
925,-0.335,-0.330
926,-0.280,-0.295
927,-0.225,-0.220
928,-0.235,-0.185
929,-0.215,-0.195
930,-0.215,-0.220
931,-0.090,-0.355
932,-0.275,-0.345
933,-0.355,-0.345
934,-0.365,-0.270
935,-0.370,-0.315
936,-0.330,-0.320
937,-0.320,-0.325
938,-0.295,-0.365
939,-0.150,-0.315
940,0.205,-0.235
941,0.870,-0.220
942,1.085,-0.665
943,0.340,-1.600
944,-1.270,-2.120
945,-1.605,-2.480
946,-1.235,-2.225
947,-0.740,-1.555
948,-0.425,-0.900
949,-0.325,-0.535
950,-0.285,-0.355
951,-0.280,-0.310
952,-0.255,-0.280
953,-0.310,-0.285
954,-0.290,-0.305
955,-0.310,-0.280
956,-0.315,-0.185
957,-0.375,-0.245
958,-0.395,-0.255
959,-0.420,-0.190
960,-0.460,-0.220
961,-0.485,-0.165
962,-0.410,-0.230
963,-0.375,-0.225
964,-0.520,-0.185
965,-0.615,-0.215
966,-0.615,-0.180
967,-0.570,-0.205
968,-0.680,-0.215
969,-0.810,-0.270
970,-0.830,-0.330
971,-0.835,-0.295
972,-0.855,-0.345
973,-0.925,-0.320
974,-0.970,-0.390
975,-0.995,-0.410
976,-1.145,-0.390
977,-0.975,-0.395
978,-0.990,-0.445
979,-0.915,-0.460
980,-0.810,-0.455
981,-0.695,-0.495
982,-0.660,-0.450
983,-0.495,-0.425
984,-0.490,-0.380
985,-0.375,-0.270
986,-0.245,-0.280
987,-0.180,-0.240
988,-0.130,-0.165
989,-0.100,-0.185
990,-0.095,-0.180
991,-0.140,-0.140
992,-0.100,-0.100
993,-0.095,-0.130
994,-0.115,-0.150
995,-0.100,-0.165
996,-0.115,-0.145
997,-0.160,-0.145
998,-0.185,-0.150
999,-0.175,-0.130
1000,-0.220,-0.120
1001,-0.185,-0.165
1002,-0.210,-0.175
1003,-0.245,-0.190
1004,-0.275,-0.200
1005,-0.215,-0.180
1006,-0.240,-0.200
1007,-0.225,-0.185
1008,-0.285,-0.180
1009,-0.330,-0.170
1010,-0.350,-0.220
1011,-0.330,-0.195
1012,-0.270,-0.140
1013,-0.320,-0.160
1014,-0.315,-0.165
1015,-0.310,-0.225
1016,-0.140,-0.120
1017,-0.130,-0.145
1018,-0.120,-0.230
1019,-0.095,-0.190
1020,-0.185,-0.215
1021,-0.220,-0.170
1022,-0.155,-0.120
1023,-0.090,-0.145
1024,-0.035,-0.105
1025,0.005,-0.065
1026,-0.070,0.020
1027,-0.075,-0.030
1028,-0.110,-0.060
1029,-0.090,-0.150
1030,-0.110,-0.155
1031,-0.215,-0.155
1032,-0.400,-0.105
1033,-0.340,-0.100
1034,-0.360,-0.095
1035,-0.355,-0.100
1036,-0.290,-0.175
1037,-0.240,-0.155
1038,-0.090,0.010
1039,0.530,0.030
1040,0.975,-0.075
1041,0.975,-0.530
1042,-0.620,-1.145
1043,-1.675,-1.625
1044,-1.625,-1.895
1045,-1.325,-1.495
1046,-0.810,-0.995
1047,-0.625,-0.520
1048,-0.545,-0.220
1049,-0.510,-0.075
1050,-0.480,-0.045
1051,-0.580,0.045
1052,-0.515,-0.015
1053,-0.535,-0.010
1054,-0.510,0.010
1055,-0.445,0.035
1056,-0.495,0.065
1057,-0.525,0.065
1058,-0.600,0.055
1059,-0.655,0.000
1060,-0.640,0.010
1061,-0.595,0.040
1062,-0.560,0.055
1063,-0.715,0.095
1064,-0.745,0.075
1065,-0.765,0.020
1066,-0.885,0.090
1067,-0.860,0.045
1068,-0.985,0.015
1069,-1.000,0.005
1070,-1.085,0.030
1071,-1.240,-0.045
1072,-1.225,-0.020
1073,-1.255,-0.010
1074,-1.260,-0.085
1075,-1.310,-0.055
1076,-1.370,-0.030
1077,-1.340,-0.150
1078,-1.285,-0.140
1079,-1.205,-0.100
1080,-1.235,-0.080
1081,-1.110,-0.045
1082,-0.950,-0.040
1083,-1.015,0.000
1084,-0.900,0.045
1085,-0.835,0.135
1086,-0.760,0.120
1087,-0.635,0.175
1088,-0.615,0.220
1089,-0.570,0.255
1090,-0.625,0.245
1091,-0.655,0.280
1092,-0.595,0.250
1093,-0.570,0.255
1094,-0.550,0.220
1095,-0.590,0.260
1096,-0.640,0.280
1097,-0.615,0.260
1098,-0.545,0.305
1099,-0.610,0.285
1100,-0.665,0.300
1101,-0.675,0.290
1102,-0.685,0.310
1103,-0.730,0.295
1104,-0.720,0.275
1105,-0.675,0.265
1106,-0.650,0.320
1107,-0.645,0.355
1108,-0.730,0.315
1109,-0.790,0.310
1110,-0.740,0.335
1111,-0.705,0.295
1112,-0.800,0.300
1113,-0.860,0.325
1114,-0.900,0.300
1115,-0.920,0.385
1116,-1.015,0.380
1117,-0.985,0.360
1118,-1.010,0.405
1119,-1.090,0.320
1120,-1.105,0.305
1121,-1.095,0.425
1122,-1.075,0.350
1123,-1.010,0.380
1124,-0.970,0.430
1125,-0.930,0.560
1126,-0.930,0.565
1127,-0.955,0.580
1128,-0.970,0.520
1129,-0.950,0.475
1130,-0.935,0.405
1131,-1.005,0.450
1132,-1.055,0.450
1133,-1.160,0.480
1134,-1.180,0.445
1135,-1.160,0.510
1136,-1.075,0.500
1137,-1.060,0.540
1138,-0.870,0.650
1139,-0.385,0.660
1140,0.085,0.540
1141,0.145,-0.020
1142,-1.145,-0.725
1143,-2.295,-1.325
1144,-2.470,-1.620
1145,-2.150,-1.185
1146,-1.660,-0.560
1147,-1.420,0.005
1148,-1.340,0.455
1149,-1.295,0.675
1150,-1.235,0.635
1151,-1.285,0.680
1152,-1.385,0.770
1153,-1.345,0.740
1154,-1.325,0.775
1155,-1.285,0.825
1156,-1.315,0.775
1157,-1.285,0.835
1158,-1.300,0.800
1159,-1.385,0.845
1160,-1.375,0.820
1161,-1.365,0.885
1162,-1.375,0.865
1163,-1.415,0.855
1164,-1.460,0.845
1165,-1.485,0.870
1166,-1.490,0.815
1167,-1.550,0.865
1168,-1.625,0.830
1169,-1.645,0.820
1170,-1.685,0.815
1171,-1.740,0.770
1172,-1.780,0.700
1173,-1.805,0.730
1174,-1.805,0.720
1175,-1.900,0.645
1176,-1.960,0.630
1177,-1.915,0.710
1178,-1.850,0.620
1179,-1.765,0.585
1180,-1.650,0.645
1181,-1.550,0.605
1182,-1.465,0.695
1183,-1.420,0.745
1184,-1.310,0.830
1185,-1.185,0.940
1186,-1.090,0.965
1187,-1.010,0.960
1188,-0.995,1.030
1189,-0.965,1.095
1190,-0.930,1.095
1191,-0.945,1.015
1192,-0.855,1.085
1193,-0.855,1.080
1194,-0.870,1.105
1195,-0.920,1.095
1196,-0.960,1.145
1197,-0.940,1.080
1198,-0.900,1.140
1199,-0.880,1.135
1200,-0.865,1.150
1201,-0.925,1.105
1202,-0.880,1.010
1203,-0.790,0.995
1204,-0.865,1.000
1205,-0.930,1.005
1206,-0.900,1.045
1207,-0.940,1.025
1208,-0.930,1.015
1209,-0.895,1.080
1210,-0.855,1.015
1211,-0.800,1.030
1212,-0.810,1.025
1213,-0.825,1.065
1214,-0.870,1.025
1215,-0.865,0.990
1216,-0.835,1.060
1217,-0.835,1.060
1218,-0.790,1.010
1219,-0.790,1.035
1220,-0.750,1.100
1221,-0.740,1.070
1222,-0.785,1.015
1223,-0.715,1.055
1224,-0.665,1.080
1225,-0.620,1.195
1226,-0.645,1.205
1227,-0.590,1.080
1228,-0.625,1.095
1229,-0.550,1.045
1230,-0.665,1.035
1231,-0.710,1.090
1232,-0.725,1.020
1233,-0.725,1.030
1234,-0.705,1.035
1235,-0.710,0.995
1236,-0.635,1.040
1237,-0.595,1.060
1238,-0.370,1.155
1239,0.265,1.145
1240,0.595,0.805
1241,0.295,-0.160
1242,-1.350,-0.820
1243,-1.930,-1.205
1244,-1.665,-1.150
1245,-1.190,-0.485
1246,-0.885,0.285
1247,-0.750,0.800
1248,-0.750,1.030
1249,-0.690,1.080
1250,-0.750,1.155
1251,-0.780,1.185
1252,-0.770,1.170
1253,-0.740,1.120
1254,-0.700,1.160
1255,-0.705,1.140
1256,-0.675,1.110
1257,-0.720,1.155
1258,-0.775,1.190
1259,-0.755,1.155
1260,-0.790,1.145
1261,-0.855,1.200
1262,-0.815,1.290
1263,-0.880,1.100
1264,-0.925,1.165
1265,-0.965,1.120
1266,-0.960,1.095
1267,-1.020,1.095
1268,-1.060,1.095
1269,-1.130,1.070
1270,-1.175,1.095
1271,-1.210,1.030
1272,-1.205,0.960
1273,-1.245,0.955
1274,-1.275,0.950
1275,-1.325,0.875
1276,-1.330,0.875
1277,-1.240,0.885
1278,-1.210,0.900
1279,-1.125,0.805
1280,-0.955,0.840
1281,-0.875,0.920
1282,-0.730,1.020
1283,-0.520,0.970
1284,-0.400,1.055
1285,-0.340,1.140
1286,-0.270,1.180
1287,-0.255,1.185
1288,-0.200,1.270
1289,-0.170,1.285
1290,-0.105,1.255
1291,-0.005,1.200
1292,-0.020,1.200
1293,-0.020,1.205
1294,-0.050,1.270
1295,-0.120,1.205
1296,-0.055,1.195
1297,0.000,1.245
1298,-0.010,1.220
1299,0.000,1.210
1300,-0.040,1.140
1301,-0.035,1.125
1302,0.010,1.155
1303,0.050,1.170
1304,0.000,1.135
1305,0.000,1.100
1306,0.040,1.175
1307,0.055,1.165
1308,0.030,1.110
1309,0.035,1.130
1310,0.115,1.050
1311,0.100,1.105
1312,0.120,1.120
1313,0.120,1.095
1314,0.145,1.090
1315,0.180,1.125
1316,0.375,1.100
1317,0.350,1.085
1318,0.355,1.135
1319,0.355,1.070
1320,0.395,1.090
1321,0.415,1.090
1322,0.485,1.165
1323,0.535,1.110
1324,0.570,1.100
1325,0.585,1.205
1326,0.560,1.200
1327,0.610,1.145
1328,0.630,1.070
1329,0.625,1.020
1330,0.595,0.990
1331,0.575,1.015
1332,0.485,1.085
1333,0.400,1.055
1334,0.445,0.990
1335,0.485,1.060
1336,0.620,1.010
1337,0.715,1.080
1338,1.170,1.125
1339,1.755,1.075
1340,1.870,0.630
1341,0.475,-0.135
1342,-0.740,-0.720
1343,-0.670,-0.895
1344,-0.305,-0.625
1345,0.130,-0.050
1346,0.350,0.480
1347,0.490,0.830
1348,0.535,0.960
1349,0.515,1.025
1350,0.520,1.040
1351,0.520,1.025
1352,0.515,0.995
1353,0.530,1.045
1354,0.585,1.000
1355,0.555,0.995
1356,0.485,1.045
1357,0.515,1.010
1358,0.490,1.005
1359,0.465,1.010
1360,0.545,1.035
1361,0.530,0.990
1362,0.390,0.930
1363,0.395,0.940
1364,0.320,0.930
1365,0.270,0.955
1366,0.230,0.960
1367,0.200,0.925
1368,0.145,0.905
1369,0.115,0.850
1370,0.000,0.800
1371,0.015,0.740
1372,-0.005,0.770
1373,-0.090,0.700
1374,-0.145,0.700
1375,-0.170,0.645
1376,-0.180,0.650
1377,-0.090,0.685
1378,-0.040,0.610
1379,0.060,0.615
1380,0.165,0.585
1381,0.275,0.670
1382,0.345,0.660
1383,0.460,0.750
1384,0.560,0.805
1385,0.565,0.820
1386,0.625,0.825
1387,0.640,0.855
1388,0.690,0.825
1389,0.730,0.850
1390,0.785,0.925
1391,0.760,0.905
1392,0.765,0.810
1393,0.710,0.930
1394,0.740,0.910
1395,0.735,0.905
1396,0.775,0.765
1397,0.775,0.850
1398,0.725,0.825
1399,0.655,0.795
1400,0.725,0.835
1401,0.630,0.785
1402,0.675,0.775
1403,0.705,0.820
1404,0.665,0.760
1405,0.665,0.710
1406,0.640,0.775
1407,0.605,0.780
1408,0.645,0.795
1409,0.670,0.730
1410,0.670,0.745
1411,0.700,0.680
1412,0.655,0.740
1413,0.630,0.675
1414,0.635,0.715
1415,0.670,0.685
1416,0.590,0.725
1417,0.620,0.740
1418,0.620,0.705
1419,0.630,0.675
1420,0.610,0.670
1421,0.630,0.725
1422,0.680,0.655
1423,0.750,0.720
1424,0.740,0.765
1425,0.775,0.770
1426,0.810,0.675
1427,0.780,0.690
1428,0.765,0.640
1429,0.705,0.620
1430,0.715,0.585
1431,0.660,0.610
1432,0.545,0.590
1433,0.470,0.570
1434,0.610,0.565
1435,0.675,0.595
1436,0.690,0.675
1437,1.065,0.750
1438,1.620,0.645
1439,1.885,0.355
1440,1.155,-0.275
1441,-0.370,-0.875
1442,-0.695,-1.250
1443,-0.505,-1.180
1444,-0.025,-0.675
1445,0.315,-0.195
1446,0.445,0.275
1447,0.510,0.505
1448,0.505,0.490
1449,0.475,0.495
1450,0.480,0.565
1451,0.535,0.545
1452,0.525,0.595
1453,0.505,0.480
1454,0.505,0.575
1455,0.445,0.560
1456,0.445,0.565
1457,0.395,0.530
1458,0.365,0.550
1459,0.390,0.545
1460,0.395,0.575
1461,0.325,0.515
1462,0.235,0.455
1463,0.225,0.430
1464,0.180,0.460
1465,0.120,0.450
1466,0.060,0.405
1467,0.010,0.410
1468,-0.065,0.350
1469,-0.100,0.305
1470,-0.215,0.300
1471,-0.245,0.290
1472,-0.275,0.225
1473,-0.285,0.170
1474,-0.335,0.100
1475,-0.390,0.180
1476,-0.385,0.125
1477,-0.285,0.105
1478,-0.220,0.045
1479,-0.185,0.065
1480,-0.170,0.115
1481,-0.070,0.150
1482,-0.020,0.220
1483,0.020,0.250
1484,0.015,0.335
1485,0.020,0.355
1486,0.055,0.350
1487,0.050,0.370
1488,0.110,0.445
1489,0.130,0.410
1490,0.125,0.420
1491,0.090,0.485
1492,0.140,0.420
1493,0.140,0.375
1494,0.070,0.345
1495,0.005,0.380
1496,0.005,0.350
1497,0.020,0.275
1498,0.020,0.380
1499,-0.010,0.370
1500,-0.010,0.290
1501,-0.010,0.345
1502,-0.050,0.255
1503,-0.005,0.250
1504,-0.045,0.335
1505,-0.010,0.250
1506,-0.075,0.220
1507,-0.070,0.275
1508,-0.080,0.245
1509,-0.030,0.240
1510,-0.080,0.210
1511,-0.090,0.130
1512,-0.095,0.180
1513,-0.080,0.165
1514,-0.100,0.185
1515,-0.060,0.220
1516,-0.100,0.155
1517,-0.120,0.180
1518,-0.120,0.120
1519,-0.110,0.155
1520,-0.120,0.135
1521,-0.035,0.085
1522,0.025,0.160
1523,0.015,0.225
1524,0.035,0.255
1525,0.015,0.210
1526,-0.010,0.155
1527,-0.010,0.110
1528,-0.035,0.060
1529,-0.085,0.010
1530,-0.165,0.050
1531,-0.215,0.145
1532,-0.195,0.040
1533,-0.200,0.040
1534,-0.175,0.015
1535,-0.045,0.055
1536,0.195,0.110
1537,0.775,0.035
1538,1.035,-0.250
1539,0.750,-1.190
1540,-0.935,-1.820
1541,-1.560,-2.305
1542,-1.270,-2.210
1543,-0.770,-1.575
1544,-0.450,-0.850
1545,-0.295,-0.330
1546,-0.290,-0.125
1547,-0.255,-0.010
1548,-0.250,-0.010
1549,-0.370,-0.005
1550,-0.360,0.040
1551,-0.335,0.060
1552,-0.305,0.060
1553,-0.300,-0.045
1554,-0.330,-0.040
1555,-0.375,-0.035
1556,-0.355,0.025
1557,-0.420,0.020
1558,-0.415,0.055
1559,-0.385,0.090
1560,-0.495,-0.040
1561,-0.550,-0.035
1562,-0.610,0.000
1563,-0.680,-0.055
1564,-0.705,-0.105
1565,-0.755,-0.020
1566,-0.825,0.000
1567,-0.920,-0.140
1568,-0.995,-0.165
1569,-1.010,-0.160
1570,-1.045,-0.180
1571,-1.075,-0.215
1572,-1.150,-0.260
1573,-1.180,-0.250
1574,-1.185,-0.340
1575,-1.190,-0.335
1576,-1.145,-0.325
1577,-1.080,-0.305
1578,-0.925,-0.280
1579,-0.880,-0.280
1580,-0.745,-0.245
1581,-0.655,-0.235
1582,-0.545,-0.115
1583,-0.450,-0.065
1584,-0.355,-0.030
1585,-0.365,-0.030
1586,-0.350,-0.020
1587,-0.330,0.000
1588,-0.310,0.010
1589,-0.315,-0.050
1590,-0.290,0.000
1591,-0.325,-0.010
1592,-0.310,-0.020
1593,-0.330,-0.090
1594,-0.315,-0.015
1595,-0.330,-0.100
1596,-0.340,-0.075
1597,-0.330,-0.035
1598,-0.370,-0.130
1599,-0.390,-0.135
1600,-0.385,-0.115
1601,-0.335,-0.175
1602,-0.360,-0.120
1603,-0.350,-0.150
1604,-0.365,-0.135
1605,-0.335,-0.150
1606,-0.350,-0.170
1607,-0.345,-0.225
1608,-0.305,-0.220
1609,-0.335,-0.235
1610,-0.400,-0.255
1611,-0.410,-0.240
1612,-0.395,-0.215
1613,-0.370,-0.240
1614,-0.360,-0.275
1615,-0.355,-0.255
1616,-0.380,-0.220
1617,-0.390,-0.240
1618,-0.385,-0.245
1619,-0.355,-0.245
1620,-0.235,-0.260
1621,-0.225,-0.255
1622,-0.235,-0.125
1623,-0.240,-0.090
1624,-0.245,-0.290
1625,-0.260,-0.195
1626,-0.200,-0.195
1627,-0.260,-0.320
1628,-0.320,-0.375
1629,-0.390,-0.280
1630,-0.415,-0.325
1631,-0.485,-0.335
1632,-0.435,-0.360
1633,-0.390,-0.360
1634,-0.310,-0.330
1635,-0.135,-0.250
1636,0.405,-0.245
1637,0.820,-0.530
1638,0.715,-1.455
1639,-0.845,-2.090
1640,-1.805,-2.670
1641,-1.715,-2.800
1642,-1.125,-2.010
1643,-0.700,-1.285
1644,-0.565,-0.755
1645,-0.525,-0.420
1646,-0.535,-0.325
1647,-0.500,-0.395
1648,-0.565,-0.320
1649,-0.545,-0.375
1650,-0.560,-0.345
1651,-0.575,-0.350
1652,-0.560,-0.325
1653,-0.580,-0.300
1654,-0.580,-0.295
1655,-0.635,-0.320
1656,-0.635,-0.340
1657,-0.630,-0.260
1658,-0.645,-0.300
1659,-0.715,-0.365
1660,-0.735,-0.345
1661,-0.770,-0.315
1662,-0.795,-0.365
1663,-0.880,-0.395
1664,-0.915,-0.385
1665,-0.990,-0.420
1666,-1.045,-0.440
1667,-1.115,-0.445
1668,-1.145,-0.525
1669,-1.210,-0.590
1670,-1.255,-0.615
1671,-1.275,-0.590
1672,-1.315,-0.625
1673,-1.365,-0.685
1674,-1.330,-0.660
1675,-1.275,-0.680
1676,-1.185,-0.695
1677,-1.100,-0.710
1678,-1.025,-0.665
1679,-0.960,-0.595
1680,-0.870,-0.515
1681,-0.735,-0.565
1682,-0.645,-0.465
1683,-0.545,-0.405
1684,-0.520,-0.315
1685,-0.500,-0.360
1686,-0.485,-0.350
1687,-0.445,-0.305
1688,-0.425,-0.275
1689,-0.430,-0.325
1690,-0.435,-0.290
1691,-0.435,-0.305
1692,-0.445,-0.345
1693,-0.465,-0.330
1694,-0.410,-0.350
1695,-0.400,-0.360
1696,-0.410,-0.355
1697,-0.480,-0.370
1698,-0.490,-0.410
1699,-0.500,-0.375
1700,-0.485,-0.385
1701,-0.450,-0.430
1702,-0.480,-0.405
1703,-0.500,-0.325
1704,-0.465,-0.385
1705,-0.450,-0.440
1706,-0.530,-0.370
1707,-0.480,-0.370
1708,-0.420,-0.385
1709,-0.465,-0.430
1710,-0.505,-0.405
1711,-0.495,-0.360
1712,-0.505,-0.445
1713,-0.470,-0.500
1714,-0.485,-0.435
1715,-0.490,-0.450
1716,-0.455,-0.410
1717,-0.455,-0.475
1718,-0.430,-0.435
1719,-0.405,-0.460
1720,-0.305,-0.435
1721,-0.215,-0.405
1722,-0.240,-0.360
1723,-0.235,-0.330
1724,-0.080,-0.310
1725,0.000,-0.410
1726,-0.045,-0.550
1727,-0.095,-0.470
1728,-0.135,-0.550
1729,-0.185,-0.455
1730,-0.205,-0.505
1731,-0.210,-0.540
1732,-0.200,-0.540
1733,-0.180,-0.485
1734,-0.010,-0.475
1735,0.310,-0.415
1736,0.890,-0.490
1737,1.190,-0.860
1738,0.530,-1.590
1739,-1.120,-2.205
1740,-1.515,-2.510
1741,-1.220,-2.370
1742,-0.700,-1.815
1743,-0.425,-1.230
1744,-0.275,-0.830
1745,-0.235,-0.640
1746,-0.205,-0.550
1747,-0.155,-0.510
1748,-0.230,-0.515
1749,-0.225,-0.525
1750,-0.230,-0.535
1751,-0.245,-0.460
1752,-0.225,-0.460
1753,-0.225,-0.555
1754,-0.250,-0.470
1755,-0.155,-0.470
1756,-0.070,-0.465
1757,-0.115,-0.500
1758,-0.075,-0.485
1759,-0.060,-0.500
1760,-0.090,-0.475
1761,-0.155,-0.530
1762,-0.280,-0.540
1763,-0.255,-0.535
1764,-0.365,-0.500
1765,-0.405,-0.610
1766,-0.500,-0.630
1767,-0.500,-0.645
1768,-0.570,-0.740
1769,-0.650,-0.740
1770,-0.655,-0.735
1771,-0.665,-0.790
1772,-0.740,-0.750
1773,-0.720,-0.745
1774,-0.680,-0.845
1775,-0.670,-0.820
1776,-0.615,-0.825
1777,-0.495,-0.855
1778,-0.410,-0.780
1779,-0.305,-0.720
1780,-0.170,-0.680
1781,-0.090,-0.645
1782,-0.025,-0.560
1783,0.055,-0.500
1784,0.100,-0.490
1785,0.120,-0.470
1786,0.145,-0.490
1787,0.120,-0.485
1788,0.130,-0.460
1789,0.125,-0.445
1790,0.150,-0.415
1791,0.145,-0.460
1792,0.095,-0.480
1793,0.100,-0.455
1794,0.120,-0.520
1795,0.125,-0.460
1796,0.105,-0.465
1797,0.120,-0.555
1798,0.090,-0.565
1799,0.020,-0.490
1800,0.030,-0.520
1801,0.060,-0.545
1802,0.090,-0.490
1803,0.085,-0.465
1804,0.050,-0.540
1805,0.040,-0.520
1806,0.050,-0.490
1807,0.045,-0.500
1808,0.065,-0.535
1809,0.090,-0.550
1810,0.040,-0.495
1811,0.010,-0.585
1812,0.060,-0.450
1813,0.035,-0.550
1814,0.045,-0.555
1815,0.050,-0.495
1816,0.035,-0.565
1817,0.055,-0.580
1818,0.115,-0.550
1819,0.145,-0.455
1820,0.180,-0.340
1821,0.160,-0.440
1822,0.150,-0.460
1823,0.185,-0.425
1824,0.215,-0.530
1825,0.145,-0.545
1826,0.145,-0.540
1827,0.055,-0.540
1828,-0.025,-0.510
1829,-0.025,-0.485
1830,-0.040,-0.570
1831,-0.025,-0.540
1832,0.075,-0.520
1833,0.300,-0.430
1834,0.915,-0.405
1835,1.260,-0.525
1836,1.130,-1.130
1837,-0.510,-1.780
1838,-1.320,-2.135
1839,-1.220,-2.250
1840,-0.745,-1.890
1841,-0.305,-1.440
1842,-0.140,-0.970
1843,-0.080,-0.730
1844,-0.065,-0.615
1845,-0.010,-0.560
1846,-0.035,-0.545
1847,-0.065,-0.485
1848,-0.090,-0.510
1849,-0.080,-0.555
1850,-0.105,-0.475
1851,-0.090,-0.480
1852,-0.110,-0.550
1853,-0.100,-0.525
1854,-0.170,-0.510
1855,-0.155,-0.485
1856,-0.140,-0.475
1857,-0.165,-0.530
1858,-0.220,-0.545
1859,-0.300,-0.490
1860,-0.385,-0.550
1861,-0.395,-0.565
1862,-0.460,-0.555
1863,-0.490,-0.615
1864,-0.570,-0.605
1865,-0.665,-0.680
1866,-0.720,-0.670
1867,-0.780,-0.700
1868,-0.815,-0.775
1869,-0.815,-0.775
1870,-0.865,-0.785
1871,-0.875,-0.810
1872,-0.885,-0.905
1873,-0.925,-0.905
1874,-0.915,-0.835
1875,-0.835,-0.770
1876,-0.785,-0.845
1877,-0.725,-0.750
1878,-0.630,-0.710
1879,-0.600,-0.620
1880,-0.515,-0.615
1881,-0.445,-0.555
1882,-0.455,-0.465
1883,-0.485,-0.470
1884,-0.470,-0.400
1885,-0.490,-0.455
1886,-0.510,-0.455
1887,-0.505,-0.385
1888,-0.515,-0.420
1889,-0.535,-0.450
1890,-0.510,-0.440
1891,-0.525,-0.400
1892,-0.520,-0.505
1893,-0.550,-0.390
1894,-0.540,-0.465
1895,-0.550,-0.475
1896,-0.560,-0.470
1897,-0.620,-0.465
1898,-0.645,-0.485
1899,-0.595,-0.460
1900,-0.605,-0.525
1901,-0.610,-0.495
1902,-0.615,-0.440
1903,-0.640,-0.475
1904,-0.660,-0.510
1905,-0.635,-0.530
1906,-0.650,-0.480
1907,-0.630,-0.510
1908,-0.650,-0.525
1909,-0.640,-0.435
1910,-0.655,-0.465
1911,-0.655,-0.530
1912,-0.675,-0.530
1913,-0.650,-0.480
1914,-0.630,-0.530
1915,-0.630,-0.500
1916,-0.610,-0.490
1917,-0.575,-0.440
1918,-0.505,-0.495
1919,-0.460,-0.335
1920,-0.445,-0.310
1921,-0.450,-0.420
1922,-0.495,-0.445
1923,-0.475,-0.465
1924,-0.585,-0.545
1925,-0.560,-0.550
1926,-0.610,-0.475
1927,-0.670,-0.505
1928,-0.675,-0.455
1929,-0.690,-0.550
1930,-0.680,-0.555
1931,-0.555,-0.420
1932,-0.240,-0.440
1933,0.295,-0.445
1934,0.640,-0.805
1935,0.215,-1.660
1936,-1.420,-2.235
1937,-2.170,-2.790
1938,-1.845,-2.675
1939,-1.250,-1.915
1940,-0.905,-1.275
1941,-0.780,-0.745
1942,-0.780,-0.485
1943,-0.770,-0.555
1944,-0.690,-0.535
1945,-0.705,-0.430
1946,-0.745,-0.385
1947,-0.750,-0.470
1948,-0.765,-0.455
1949,-0.745,-0.370
1950,-0.755,-0.390
1951,-0.755,-0.510
1952,-0.805,-0.440
1953,-0.800,-0.350
1954,-0.830,-0.350
1955,-0.855,-0.420
1956,-0.890,-0.435
1957,-0.880,-0.355
1958,-0.905,-0.390
1959,-0.935,-0.455
1960,-1.040,-0.445
1961,-1.115,-0.435
1962,-1.180,-0.445
1963,-1.200,-0.500
1964,-1.240,-0.540
1965,-1.275,-0.570
1966,-1.360,-0.550
1967,-1.400,-0.630
1968,-1.410,-0.610
1969,-1.425,-0.575
1970,-1.435,-0.610
1971,-1.410,-0.620
1972,-1.395,-0.715
1973,-1.355,-0.720
1974,-1.230,-0.665
1975,-1.120,-0.595
1976,-0.980,-0.555
1977,-0.910,-0.515
1978,-0.845,-0.515
1979,-0.775,-0.445
1980,-0.705,-0.365
1981,-0.670,-0.385
1982,-0.600,-0.340
1983,-0.565,-0.305
1984,-0.575,-0.325
1985,-0.590,-0.270
1986,-0.540,-0.280
1987,-0.545,-0.375
1988,-0.535,-0.305
1989,-0.550,-0.265
1990,-0.585,-0.315
1991,-0.585,-0.330
1992,-0.610,-0.325
1993,-0.600,-0.300
1994,-0.575,-0.370
1995,-0.555,-0.400
1996,-0.595,-0.345
1997,-0.610,-0.350
1998,-0.615,-0.350
1999,-0.625,-0.385
2000,-0.605,-0.325
2001,-0.605,-0.380
2002,-0.610,-0.360
2003,-0.595,-0.340
2004,-0.630,-0.380
2005,-0.645,-0.375
2006,-0.635,-0.415
2007,-0.600,-0.405
2008,-0.585,-0.395
2009,-0.615,-0.415
2010,-0.610,-0.400
2011,-0.615,-0.390
2012,-0.605,-0.420
2013,-0.600,-0.380
2014,-0.595,-0.375
2015,-0.570,-0.380
2016,-0.570,-0.410
2017,-0.475,-0.360
2018,-0.465,-0.320
2019,-0.450,-0.235
2020,-0.410,-0.270
2021,-0.425,-0.285
2022,-0.450,-0.355
2023,-0.485,-0.465
2024,-0.520,-0.425
2025,-0.570,-0.420
2026,-0.575,-0.405
2027,-0.630,-0.425
2028,-0.620,-0.375
2029,-0.615,-0.410
2030,-0.600,-0.425
2031,-0.365,-0.320
2032,0.225,-0.355
2033,0.675,-0.565
2034,0.640,-1.360
2035,-0.910,-1.995
2036,-1.980,-2.595
2037,-1.905,-2.650
2038,-1.290,-1.955
2039,-0.855,-1.275
2040,-0.725,-0.725
2041,-0.685,-0.480
2042,-0.670,-0.435
2043,-0.655,-0.385
2044,-0.645,-0.315
2045,-0.635,-0.355
2046,-0.640,-0.350
2047,-0.675,-0.325
2048,-0.660,-0.375
2049,-0.650,-0.335
2050,-0.670,-0.280
2051,-0.655,-0.210
2052,-0.690,-0.295
2053,-0.720,-0.255
2054,-0.745,-0.300
2055,-0.765,-0.335
2056,-0.820,-0.315
2057,-0.825,-0.315
2058,-0.845,-0.320
2059,-0.915,-0.320
2060,-0.980,-0.390
2061,-1.065,-0.345
2062,-1.100,-0.385
2063,-1.125,-0.430
2064,-1.150,-0.475
2065,-1.220,-0.480
2066,-1.245,-0.530
2067,-1.265,-0.540
2068,-1.325,-0.530
2069,-1.315,-0.595
2070,-1.305,-0.615
2071,-1.235,-0.580
2072,-1.230,-0.565
2073,-1.115,-0.570
2074,-1.010,-0.605
2075,-0.890,-0.515
2076,-0.785,-0.430
2077,-0.650,-0.415
2078,-0.605,-0.390
2079,-0.515,-0.320
2080,-0.490,-0.215
2081,-0.435,-0.200
2082,-0.425,-0.220
2083,-0.390,-0.165
2084,-0.370,-0.175
2085,-0.385,-0.210
2086,-0.430,-0.240
2087,-0.390,-0.255
2088,-0.370,-0.190
2089,-0.410,-0.220
2090,-0.455,-0.175
2091,-0.400,-0.220
2092,-0.410,-0.280
2093,-0.410,-0.270
2094,-0.405,-0.260
2095,-0.395,-0.320
2096,-0.375,-0.275
2097,-0.440,-0.205
2098,-0.445,-0.295
2099,-0.435,-0.175
2100,-0.420,-0.275
2101,-0.400,-0.270
2102,-0.425,-0.265
2103,-0.415,-0.325
2104,-0.420,-0.310
2105,-0.400,-0.260
2106,-0.380,-0.275
2107,-0.385,-0.290
2108,-0.385,-0.300
2109,-0.375,-0.205
2110,-0.380,-0.315
2111,-0.395,-0.335
2112,-0.370,-0.260
2113,-0.355,-0.340
2114,-0.275,-0.315
2115,-0.260,-0.215
2116,-0.190,-0.195
2117,-0.175,-0.075
2118,-0.095,-0.205
2119,-0.105,-0.280
2120,-0.090,-0.320
2121,-0.150,-0.370
2122,-0.195,-0.310
2123,-0.210,-0.320
2124,-0.230,-0.330
2125,-0.260,-0.325
2126,-0.235,-0.345
2127,-0.195,-0.380
2128,-0.130,-0.370
2129,-0.015,-0.295
2130,0.520,-0.235
2131,1.075,-0.305
2132,1.275,-0.980
2133,-0.070,-1.690
2134,-1.420,-2.130
2135,-1.430,-2.305
2136,-0.940,-1.895
2137,-0.440,-1.335
2138,-0.250,-0.760
2139,-0.170,-0.450
2140,-0.175,-0.365
2141,-0.065,-0.390
2142,-0.055,-0.295
2143,0.010,-0.290
2144,0.030,-0.300
2145,0.020,-0.240
2146,-0.025,-0.355
2147,-0.015,-0.340
2148,-0.070,-0.250
2149,-0.115,-0.260
2150,-0.115,-0.270
2151,-0.120,-0.300
2152,-0.170,-0.305
2153,-0.210,-0.300
2154,-0.245,-0.345
2155,-0.270,-0.310
2156,-0.300,-0.345
2157,-0.350,-0.335
2158,-0.440,-0.390
2159,-0.445,-0.350
2160,-0.320,-0.390
2161,-0.380,-0.495
2162,-0.365,-0.460
2163,-0.415,-0.465
2164,-0.490,-0.500
2165,-0.555,-0.590
2166,-0.540,-0.585
2167,-0.555,-0.580
2168,-0.595,-0.570
2169,-0.490,-0.670
2170,-0.425,-0.655
2171,-0.395,-0.595
2172,-0.285,-0.540
2173,-0.185,-0.565
2174,-0.090,-0.460
2175,0.020,-0.390
2176,0.105,-0.405
2177,0.145,-0.345
2178,0.200,-0.205
2179,0.185,-0.260
2180,0.200,-0.295
2181,0.235,-0.180
2182,0.260,-0.175
2183,0.270,-0.200
2184,0.260,-0.190
2185,0.265,-0.250
2186,0.210,-0.180
2187,0.235,-0.240
2188,0.220,-0.195
2189,0.255,-0.240
2190,0.210,-0.270
2191,0.160,-0.225
2192,0.185,-0.225
2193,0.175,-0.250
2194,0.210,-0.270
2195,0.185,-0.245
2196,0.210,-0.250
2197,0.150,-0.265
2198,0.185,-0.235
2199,0.155,-0.240
2200,0.205,-0.310
2201,0.160,-0.270
2202,0.165,-0.225
2203,0.140,-0.295
2204,0.145,-0.300
2205,0.130,-0.240
2206,0.180,-0.295
2207,0.155,-0.270
2208,0.165,-0.300
2209,0.165,-0.270
2210,0.160,-0.275
2211,0.145,-0.325
2212,0.195,-0.235
2213,0.230,-0.170
2214,0.285,-0.160
2215,0.270,-0.170
2216,0.290,-0.100
2217,0.270,-0.170
2218,0.300,-0.200
2219,0.325,-0.280
2220,0.230,-0.275
2221,0.185,-0.310
2222,0.115,-0.240
2223,0.120,-0.220
2224,0.090,-0.210
2225,0.165,-0.325
2226,0.125,-0.305
2227,0.205,-0.220
2228,0.525,-0.150
2229,1.125,-0.190
2230,1.450,-0.380
2231,0.845,-0.955
2232,-0.715,-1.605
2233,-1.230,-1.895
2234,-1.035,-1.840
2235,-0.570,-1.425
2236,-0.180,-0.985
2237,-0.035,-0.565
2238,0.055,-0.350
2239,0.025,-0.240
2240,0.050,-0.215
2241,-0.020,-0.220
2242,0.010,-0.240
2243,0.000,-0.195
2244,0.005,-0.220
2245,0.000,-0.205
2246,0.025,-0.215
2247,-0.010,-0.185
2248,-0.035,-0.150
2249,-0.070,-0.175
2250,-0.010,-0.175
2251,-0.030,-0.175
2252,-0.090,-0.190
2253,-0.170,-0.190
2254,-0.200,-0.160
2255,-0.225,-0.250
2256,-0.300,-0.285
2257,-0.330,-0.210
2258,-0.400,-0.285
2259,-0.465,-0.310
2260,-0.520,-0.340
2261,-0.575,-0.385
2262,-0.650,-0.410
2263,-0.640,-0.375
2264,-0.645,-0.405
2265,-0.690,-0.465
2266,-0.760,-0.430
2267,-0.710,-0.445
2268,-0.710,-0.510
2269,-0.655,-0.470
2270,-0.545,-0.505
2271,-0.470,-0.460
2272,-0.385,-0.445
2273,-0.325,-0.375
2274,-0.205,-0.325
2275,-0.135,-0.280
2276,-0.065,-0.185
2277,-0.030,-0.215
2278,0.015,-0.170
2279,0.015,-0.060
2280,0.055,-0.135
2281,0.035,-0.140
2282,0.095,-0.080
2283,0.095,-0.115
2284,0.055,-0.085
2285,0.025,-0.105
2286,0.050,-0.150
2287,-0.035,-0.180
2288,-0.070,-0.145
2289,-0.045,-0.110
2290,-0.055,-0.175
2291,-0.095,-0.160
2292,-0.110,-0.145
2293,-0.110,-0.145
2294,-0.100,-0.105
2295,-0.075,-0.180
2296,-0.075,-0.190
2297,-0.100,-0.170
2298,-0.125,-0.135
2299,-0.145,-0.190
2300,-0.260,-0.245
2301,-0.290,-0.205
2302,-0.470,-0.195
2303,-0.490,-0.160
2304,-0.520,-0.160
2305,-0.535,-0.135
2306,-0.510,-0.215
2307,-0.495,-0.165
2308,-0.500,-0.160
2309,-0.505,-0.160
2310,-0.600,-0.195
2311,-0.635,-0.210
2312,-0.645,-0.130
2313,-0.550,-0.120
2314,-0.435,-0.145
2315,-0.485,-0.090
2316,-0.470,-0.070
2317,-0.495,-0.145
2318,-0.510,-0.210
2319,-0.495,-0.165
2320,-0.500,-0.160
2321,-0.575,-0.240
2322,-0.650,-0.215
2323,-0.715,-0.180
2324,-0.720,-0.200
2325,-0.715,-0.210
2326,-0.660,-0.190
2327,-0.560,-0.060
2328,-0.365,0.000
2329,0.220,-0.135
2330,0.565,-0.370
2331,0.275,-1.160
2332,-1.355,-1.740
2333,-2.145,-2.310
2334,-2.020,-2.220
2335,-1.415,-1.545
2336,-0.990,-0.905
2337,-0.845,-0.485
2338,-0.830,-0.255
2339,-0.795,-0.130
2340,-0.730,-0.200
2341,-0.770,-0.170
2342,-0.805,-0.130
2343,-0.790,-0.100
2344,-0.805,-0.145
2345,-0.790,-0.065
2346,-0.795,-0.105
2347,-0.805,-0.115
2348,-0.865,-0.060
2349,-0.905,-0.055
2350,-0.860,-0.150
2351,-0.840,-0.040
2352,-0.895,-0.105
2353,-0.945,-0.145
2354,-1.000,-0.105
2355,-1.075,-0.085
2356,-1.095,-0.070
2357,-1.120,-0.140
2358,-1.175,-0.165
2359,-1.260,-0.205
2360,-1.295,-0.240
2361,-1.355,-0.230
2362,-1.415,-0.265
2363,-1.460,-0.265
2364,-1.460,-0.240
2365,-1.505,-0.345
2366,-1.535,-0.350
2367,-1.510,-0.340
2368,-1.485,-0.460
2369,-1.440,-0.390
2370,-1.335,-0.330
2371,-1.230,-0.305
2372,-1.125,-0.300
2373,-1.035,-0.275
2374,-0.950,-0.220
2375,-0.860,-0.140
2376,-0.770,-0.060
2377,-0.685,-0.055
2378,-0.695,0.000
2379,-0.715,0.080
2380,-0.675,0.010
2381,-0.670,0.035
2382,-0.650,0.045
2383,-0.625,0.000
2384,-0.670,0.025
2385,-0.680,0.035
2386,-0.755,0.000
2387,-0.755,0.005
2388,-0.700,0.000
2389,-0.745,-0.045
2390,-0.765,0.000
2391,-0.765,-0.045
2392,-0.740,0.000
2393,-0.735,-0.030
2394,-0.765,-0.050
2395,-0.750,-0.015
2396,-0.740,-0.035
2397,-0.740,-0.075
2398,-0.745,-0.045
2399,-0.760,-0.055
2400,-0.805,-0.050
2401,-0.760,-0.040
2402,-0.750,-0.080
2403,-0.775,-0.055
2404,-0.775,-0.060
2405,-0.795,-0.175
2406,-0.770,-0.065
2407,-0.750,-0.035
2408,-0.755,-0.045
2409,-0.755,-0.070
2410,-0.775,-0.075
2411,-0.785,-0.055
2412,-0.710,-0.095
2413,-0.655,-0.075
2414,-0.625,0.025
2415,-0.625,0.025
2416,-0.605,-0.040
2417,-0.655,-0.075
2418,-0.665,-0.125
2419,-0.685,-0.070
2420,-0.705,-0.170
2421,-0.780,-0.195
2422,-0.835,-0.155
2423,-0.850,-0.155
2424,-0.805,-0.180
2425,-0.805,-0.120
2426,-0.670,-0.005
2427,-0.315,0.015
2428,0.295,-0.135
2429,0.595,-0.645
2430,-0.150,-1.420
2431,-1.885,-2.060
2432,-2.235,-2.520
2433,-1.790,-2.100
2434,-1.210,-1.215
2435,-0.980,-0.700
2436,-0.870,-0.265
2437,-0.890,-0.155
2438,-0.905,-0.100
2439,-0.870,-0.035
2440,-0.865,-0.010
2441,-0.875,-0.060
2442,-0.900,0.000
2443,-0.915,-0.020
2444,-0.890,-0.015
2445,-0.880,0.000
2446,-0.915,0.025
2447,-0.925,-0.025
2448,-0.935,-0.065
2449,-0.990,0.030
2450,-0.970,0.005
2451,-1.005,-0.035
2452,-1.035,-0.025
2453,-1.100,-0.010
2454,-1.135,-0.045
2455,-1.175,-0.070
2456,-1.200,0.000
2457,-1.240,-0.120
2458,-1.285,-0.155
2459,-1.370,-0.175
2460,-1.435,-0.210
2461,-1.485,-0.230
2462,-1.485,-0.255
2463,-1.500,-0.260
2464,-1.495,-0.310
2465,-1.505,-0.375
2466,-1.510,-0.365
2467,-1.430,-0.355
2468,-1.350,-0.290
2469,-1.220,-0.240
2470,-1.105,-0.195
2471,-0.990,-0.150
2472,-0.885,-0.120
2473,-0.830,-0.125
2474,-0.785,0.000
2475,-0.685,0.065
2476,-0.625,0.030
2477,-0.595,0.120
2478,-0.605,0.115
2479,-0.600,0.125
2480,-0.605,0.045
2481,-0.580,0.050
2482,-0.570,0.090
2483,-0.555,0.125
2484,-0.590,0.010
2485,-0.610,0.050
2486,-0.630,0.135
2487,-0.625,0.010
2488,-0.655,-0.010
2489,-0.610,0.050
2490,-0.625,-0.015
2491,-0.645,0.020
2492,-0.700,0.065
2493,-0.680,0.040
2494,-0.660,0.005
2495,-0.640,-0.025
2496,-0.660,0.030
2497,-0.675,0.040
2498,-0.685,0.025
2499,-0.685,0.000
2500,-0.685,-0.025
2501,-0.670,0.000
2502,-0.670,-0.070
2503,-0.715,0.000
2504,-0.685,0.030
2505,-0.665,-0.050
2506,-0.635,-0.030
2507,-0.655,-0.025
2508,-0.655,-0.030
2509,-0.630,0.050
2510,-0.575,-0.010
2511,-0.500,-0.030
2512,-0.480,0.080
2513,-0.440,0.110
2514,-0.445,0.115
2515,-0.415,-0.015
2516,-0.445,-0.080
2517,-0.550,-0.100
2518,-0.625,-0.150
2519,-0.600,-0.065
2520,-0.645,-0.075
2521,-0.640,-0.095
2522,-0.605,-0.090
2523,-0.600,-0.100
2524,-0.490,-0.055
2525,-0.085,0.035
2526,0.500,0.000
2527,0.910,-0.465
2528,0.250,-1.280
2529,-1.455,-1.900
2530,-1.990,-2.270
2531,-1.595,-1.990
2532,-0.970,-1.260
2533,-0.680,-0.765
2534,-0.590,-0.350
2535,-0.580,-0.125
2536,-0.575,-0.045
2537,-0.510,-0.080
2538,-0.510,-0.065
2539,-0.510,-0.065
2540,-0.520,-0.065
2541,-0.535,0.000
2542,-0.525,-0.005
2543,-0.525,-0.045
2544,-0.470,-0.045
2545,-0.560,-0.070
2546,-0.565,-0.015
2547,-0.600,-0.015
2548,-0.605,0.010
2549,-0.650,0.000
2550,-0.670,-0.070
2551,-0.705,-0.010
2552,-0.720,-0.090
2553,-0.790,-0.115
2554,-0.865,-0.100
2555,-0.925,-0.135
2556,-0.950,-0.165
2557,-1.025,-0.210
2558,-1.020,-0.160
2559,-0.890,-0.180
2560,-0.885,-0.300
2561,-0.955,-0.340
2562,-0.965,-0.285
2563,-0.945,-0.385
2564,-0.900,-0.350
2565,-0.865,-0.310
2566,-0.800,-0.315
2567,-0.690,-0.335
2568,-0.570,-0.320
2569,-0.470,-0.260
2570,-0.320,-0.180
2571,-0.130,-0.155
2572,-0.030,-0.085
2573,0.010,-0.070
2574,0.050,-0.030
2575,0.120,0.015
2576,0.145,0.035
2577,0.135,0.040
2578,0.140,0.055
2579,0.095,-0.035
2580,0.140,-0.005
2581,0.120,0.045
2582,0.140,0.000
2583,0.125,-0.025
2584,0.120,-0.040
2585,0.105,-0.005
2586,0.055,0.000
2587,0.075,-0.025
2588,0.145,0.010
2589,0.170,-0.050
2590,0.080,-0.035
2591,0.065,-0.060
2592,0.085,-0.045
2593,0.095,-0.015
2594,0.125,-0.060
2595,0.130,-0.070
2596,0.110,-0.080
2597,0.115,-0.075
2598,0.045,-0.025
2599,0.110,-0.035
2600,0.115,-0.055
2601,0.140,-0.065
2602,0.145,-0.045
2603,0.165,-0.050
2604,0.125,-0.055
2605,0.110,-0.145
2606,0.130,-0.105
2607,0.115,-0.050
2608,0.150,0.000
2609,0.235,0.040
2610,0.230,0.050
2611,0.280,0.060
2612,0.270,0.045
2613,0.285,0.045
2614,0.310,-0.050
2615,0.310,-0.155
2616,0.240,-0.140
2617,0.130,-0.105
2618,0.065,-0.015
2619,0.055,-0.045
2620,0.095,-0.060
2621,0.120,-0.050
2622,0.185,-0.115
2623,0.315,-0.015
2624,0.795,0.040
2625,1.315,0.000
2626,1.505,-0.475
2627,0.130,-1.120
2628,-1.100,-1.605
2629,-1.165,-1.770
2630,-0.805,-1.470
2631,-0.305,-1.050
2632,-0.035,-0.585
2633,0.035,-0.230
2634,0.030,-0.050
2635,0.040,-0.085
2636,0.045,-0.035
2637,0.050,0.020
2638,0.070,0.045
2639,0.040,-0.010
2640,0.045,-0.015
2641,0.045,-0.025
2642,-0.010,-0.030
2643,0.000,0.005
2644,0.005,0.000
2645,0.030,-0.005
2646,-0.025,-0.005
2647,-0.015,-0.010
2648,-0.075,0.035
2649,-0.115,-0.020
2650,-0.185,-0.005
2651,-0.200,-0.050
2652,-0.270,-0.115
2653,-0.325,-0.085
2654,-0.395,-0.070
2655,-0.475,-0.080
2656,-0.505,-0.185
2657,-0.495,-0.190
2658,-0.550,-0.180
2659,-0.585,-0.175
2660,-0.625,-0.250
2661,-0.670,-0.325
2662,-0.680,-0.305
2663,-0.675,-0.305
2664,-0.590,-0.315
2665,-0.525,-0.300
2666,-0.405,-0.295
2667,-0.320,-0.195
2668,-0.280,-0.255
2669,-0.160,-0.210
2670,-0.050,-0.105
2671,0.010,-0.100
2672,0.080,-0.065
2673,0.080,0.000
2674,0.090,0.020
2675,0.105,0.070
2676,0.165,0.115
2677,0.185,0.020
2678,0.175,0.015
2679,0.170,0.030
2680,0.150,0.000
2681,0.125,-0.025
2682,0.135,0.025
2683,0.135,0.045
2684,0.120,0.005
2685,0.110,0.005
2686,0.070,0.000
2687,0.085,-0.010
2688,0.045,0.030
2689,0.085,0.000
2690,0.070,-0.045
2691,0.060,-0.020
2692,0.025,0.000
2693,0.060,0.010
2694,0.045,-0.055
2695,0.055,-0.025
2696,0.070,0.030
2697,0.075,0.005
2698,0.035,-0.050
2699,0.070,-0.050
2700,0.035,-0.010
2701,0.025,0.000
2702,0.070,-0.015
2703,0.055,-0.045
2704,-0.070,-0.060
2705,-0.090,0.010
2706,-0.070,0.035
2707,-0.040,-0.035
2708,0.050,0.005
2709,0.065,0.150
2710,0.060,0.085
2711,0.045,0.060
2712,0.020,0.050
2713,0.025,0.015
2714,-0.090,-0.045
2715,-0.315,-0.090
2716,-0.360,0.000
2717,-0.385,-0.020
2718,-0.445,-0.025
2719,-0.440,-0.075
2720,-0.405,-0.060
2721,-0.305,0.000
2722,-0.040,0.070
2723,0.460,0.025
2724,0.785,-0.205
2725,0.665,-0.935
2726,-0.960,-1.530
2727,-1.815,-2.000
2728,-1.660,-2.050
2729,-1.040,-1.390
2730,-0.685,-0.840
2731,-0.550,-0.325
2732,-0.515,-0.110
2733,-0.470,0.000
2734,-0.465,0.025
2735,-0.475,-0.015
2736,-0.520,0.000
2737,-0.530,0.050
2738,-0.540,0.095
2739,-0.510,0.000
2740,-0.540,0.040
2741,-0.535,0.060
2742,-0.590,0.055
2743,-0.600,0.045
2744,-0.630,0.070
2745,-0.620,0.040
2746,-0.655,0.055
2747,-0.665,0.015
2748,-0.750,0.020
2749,-0.780,0.000
2750,-0.860,-0.075
2751,-0.915,-0.035
2752,-0.945,-0.055
2753,-0.990,-0.060
2754,-1.105,-0.115
2755,-1.120,-0.170
2756,-1.190,-0.230
2757,-1.215,-0.270
2758,-1.220,-0.265
2759,-1.255,-0.230
2760,-1.250,-0.305
2761,-1.250,-0.310
2762,-1.195,-0.295
2763,-1.165,-0.330
2764,-1.050,-0.290
2765,-0.920,-0.265
2766,-0.800,-0.220
2767,-0.735,-0.165
2768,-0.635,-0.120
2769,-0.560,-0.025
2770,-0.455,0.020
2771,-0.435,0.015
2772,-0.390,0.035
2773,-0.385,0.080
2774,-0.385,0.075
2775,-0.370,0.095
2776,-0.325,0.125
2777,-0.365,0.100
2778,-0.365,0.065
2779,-0.380,0.070
2780,-0.385,0.060
2781,-0.410,0.055
2782,-0.390,0.030
2783,-0.365,0.025
2784,-0.375,0.050
2785,-0.415,0.045
2786,-0.440,0.035
2787,-0.405,0.030
2788,-0.415,0.040
2789,-0.450,0.005
2790,-0.430,0.025
2791,-0.420,0.030
2792,-0.450,0.005
2793,-0.440,0.045
2794,-0.465,0.025
2795,-0.400,0.005
2796,-0.410,-0.005
2797,-0.415,-0.005
2798,-0.475,0.000
2799,-0.450,-0.075
2800,-0.500,-0.030
2801,-0.470,0.000
2802,-0.440,0.015
2803,-0.445,0.035
2804,-0.500,-0.060
2805,-0.425,-0.045
2806,-0.335,-0.005
2807,-0.330,0.085
2808,-0.285,0.135
2809,-0.315,0.090
2810,-0.370,0.025
2811,-0.365,0.015
2812,-0.365,-0.085
2813,-0.420,-0.095
2814,-0.435,-0.045
2815,-0.495,-0.010
2816,-0.495,0.000
2817,-0.535,-0.085
2818,-0.520,-0.110
2819,-0.430,-0.010
2820,-0.260,0.060
2821,0.260,-0.030
2822,0.700,-0.150
2823,0.820,-0.870
2824,-0.580,-1.620
2825,-1.835,-2.155
2826,-1.845,-2.330
2827,-1.290,-1.805
2828,-0.840,-1.085
2829,-0.650,-0.540
2830,-0.615,-0.220
2831,-0.600,-0.100
2832,-0.595,-0.050
2833,-0.585,-0.025
2834,-0.575,-0.020
2835,-0.585,-0.045
2836,-0.640,-0.100
2837,-0.625,-0.030
2838,-0.635,0.020
2839,-0.615,-0.010
2840,-0.635,-0.060
2841,-0.640,-0.040
2842,-0.710,0.020
2843,-0.720,0.005
2844,-0.780,-0.045
2845,-0.745,-0.065
2846,-0.760,-0.055
2847,-0.810,-0.030
2848,-0.885,-0.115
2849,-0.945,-0.115
2850,-1.000,-0.135
2851,-1.040,-0.130
2852,-1.090,-0.160
2853,-1.135,-0.220
2854,-1.190,-0.205
2855,-1.225,-0.220
2856,-1.280,-0.335
2857,-1.285,-0.355
2858,-1.265,-0.315
2859,-1.275,-0.330
2860,-1.270,-0.360
2861,-1.235,-0.365
2862,-1.100,-0.310
2863,-1.010,-0.290
2864,-0.865,-0.290
2865,-0.755,-0.260
2866,-0.675,-0.210
2867,-0.560,-0.135
2868,-0.545,-0.015
2869,-0.465,0.000
2870,-0.400,0.060
2871,-0.360,0.055
2872,-0.370,0.000
2873,-0.370,0.030
2874,-0.350,0.070
2875,-0.350,0.000
2876,-0.330,0.055
2877,-0.355,0.045
2878,-0.325,0.025
2879,-0.380,0.015
2880,-0.385,0.025
2881,-0.355,0.030
2882,-0.380,0.025
2883,-0.350,-0.010
2884,-0.375,-0.020
2885,-0.350,-0.015
2886,-0.420,-0.035
2887,-0.420,-0.020
2888,-0.370,-0.030
2889,-0.325,-0.110
2890,-0.325,-0.070
2891,-0.320,-0.090
2892,-0.365,-0.095
2893,-0.300,-0.045
2894,-0.300,-0.070
2895,-0.270,-0.035
2896,-0.245,-0.055
2897,-0.245,-0.075
2898,-0.235,-0.105
2899,-0.245,-0.030
2900,-0.225,-0.165
2901,-0.195,-0.110
2902,-0.190,-0.010
2903,-0.200,-0.060
2904,-0.160,-0.170
2905,-0.085,-0.070
2906,-0.055,-0.010
2907,-0.050,0.005
2908,-0.035,0.015
2909,-0.025,-0.070
2910,-0.040,-0.175
2911,-0.115,-0.155
2912,-0.140,-0.155
2913,-0.200,-0.135
2914,-0.200,-0.055
2915,-0.150,-0.110
2916,-0.010,-0.170
2917,0.000,-0.145
2918,0.065,-0.150
2919,0.290,-0.040
2920,0.890,-0.070
2921,1.310,-0.185
2922,1.270,-0.900
2923,-0.390,-1.565
2924,-1.415,-2.010
2925,-1.230,-2.050
2926,-0.740,-1.620
2927,-0.275,-1.030
2928,-0.120,-0.520
2929,-0.110,-0.205
2930,-0.025,-0.190
2931,0.055,-0.140
2932,0.065,-0.140
2933,0.105,-0.130
2934,0.110,-0.085
2935,0.125,-0.065
2936,0.075,-0.135
2937,0.015,-0.055
2938,0.040,-0.030
2939,0.030,-0.125
2940,0.070,-0.130
2941,0.010,-0.120
2942,0.000,-0.090
2943,-0.075,-0.110
2944,-0.050,-0.110
2945,-0.080,-0.120
2946,-0.135,-0.140
2947,-0.215,-0.105
2948,-0.300,-0.160
2949,-0.365,-0.170
2950,-0.390,-0.180
2951,-0.415,-0.210
2952,-0.450,-0.270
2953,-0.525,-0.330
2954,-0.635,-0.310
2955,-0.600,-0.380
2956,-0.685,-0.430
2957,-0.640,-0.410
2958,-0.590,-0.425
2959,-0.550,-0.445
2960,-0.520,-0.370
2961,-0.440,-0.410
2962,-0.345,-0.355
2963,-0.195,-0.370
2964,-0.050,-0.320
2965,0.015,-0.265
2966,0.035,-0.175
2967,0.095,-0.135
2968,0.190,-0.090
2969,0.210,-0.105
2970,0.270,-0.090
2971,0.305,-0.055
2972,0.255,-0.040
2973,0.260,-0.045
2974,0.240,-0.055
2975,0.230,-0.035
2976,0.250,-0.065
2977,0.235,-0.045
2978,0.235,-0.010
2979,0.225,-0.090
2980,0.160,-0.135
2981,0.160,-0.095
2982,0.175,-0.050
2983,0.205,-0.080
2984,0.235,-0.100
2985,0.210,-0.090
2986,0.170,-0.145
2987,0.145,-0.110
2988,0.170,-0.040
2989,0.175,-0.110
2990,0.210,-0.225
2991,0.160,-0.110
2992,0.140,-0.080
2993,0.195,-0.095
2994,0.220,-0.150
2995,0.200,-0.115
2996,0.210,-0.130
2997,0.170,-0.130
2998,0.175,-0.110
2999,0.145,-0.110
3000,0.170,-0.110
3001,0.225,-0.060
3002,0.280,-0.105
3003,0.300,-0.050
3004,0.310,0.005
3005,0.340,-0.065
3006,0.335,-0.140
3007,0.360,-0.070
3008,0.330,-0.125
3009,0.255,-0.130
3010,0.215,-0.115
3011,0.145,-0.135
3012,0.110,-0.165
3013,0.140,-0.170
3014,0.160,-0.145
3015,0.185,-0.165
3016,0.315,-0.080
3017,0.695,-0.075
3018,1.225,-0.060
3019,1.465,-0.435
3020,0.415,-1.220
3021,-1.030,-1.710
3022,-1.255,-1.965
3023,-0.935,-1.780
3024,-0.370,-1.295
3025,-0.050,-0.755
3026,0.055,-0.315
3027,0.055,-0.200
3028,0.025,-0.155
3029,0.030,-0.130
3030,0.015,-0.160
3031,0.030,-0.070
3032,0.055,-0.065
3033,0.065,-0.120
3034,0.030,-0.135
3035,0.000,-0.135
3036,-0.010,-0.060
3037,-0.045,-0.085
3038,-0.045,-0.110
3039,-0.065,-0.120
3040,-0.150,-0.190
3041,-0.320,-0.180
3042,-0.365,-0.125
3043,-0.420,-0.120
3044,-0.465,-0.190
3045,-0.495,-0.195
3046,-0.565,-0.200
3047,-0.640,-0.230
3048,-0.725,-0.270
3049,-0.775,-0.230
3050,-0.810,-0.370
3051,-0.835,-0.385
3052,-0.895,-0.355
3053,-0.945,-0.415
3054,-0.940,-0.465
3055,-0.965,-0.470
3056,-0.925,-0.485
3057,-0.845,-0.465
3058,-0.780,-0.470
3059,-0.725,-0.445
3060,-0.645,-0.410
3061,-0.605,-0.355
3062,-0.495,-0.280
3063,-0.395,-0.225
3064,-0.300,-0.185
3065,-0.275,-0.215
3066,-0.240,-0.110
3067,-0.215,-0.070
3068,-0.190,-0.100
3069,-0.145,-0.090
3070,-0.145,-0.050
3071,-0.165,-0.065
3072,-0.160,-0.020
3073,-0.185,-0.100
3074,-0.185,-0.060
3075,-0.180,-0.055
3076,-0.215,-0.045
3077,-0.235,-0.110
3078,-0.270,-0.080
3079,-0.300,-0.070
3080,-0.310,-0.065
3081,-0.270,-0.090
3082,-0.300,-0.110
3083,-0.290,-0.080
3084,-0.320,-0.105
3085,-0.330,-0.110
3086,-0.340,-0.140
3087,-0.315,-0.120
3088,-0.315,-0.115
3089,-0.300,-0.110
3090,-0.325,-0.060
3091,-0.345,-0.125
3092,-0.325,-0.165
3093,-0.320,-0.110
3094,-0.305,-0.135
3095,-0.320,-0.120
3096,-0.315,-0.130
3097,-0.365,-0.090
3098,-0.355,-0.120
3099,-0.310,-0.155
3100,-0.250,-0.105
3101,-0.185,-0.090
3102,-0.185,0.015
3103,-0.190,-0.005
3104,-0.200,-0.060
3105,-0.190,-0.060
3106,-0.145,-0.135
3107,-0.200,-0.160
3108,-0.260,-0.160
3109,-0.310,-0.090
3110,-0.355,-0.170
3111,-0.360,-0.170
3112,-0.290,-0.180
3113,-0.290,-0.175
3114,-0.155,-0.110
3115,0.185,-0.060
3116,0.755,-0.095
3117,1.030,-0.640
3118,0.325,-1.370
3119,-1.270,-1.850
3120,-1.685,-2.365
3121,-1.295,-2.115
3122,-0.775,-1.400
3123,-0.530,-0.785
3124,-0.410,-0.395
3125,-0.370,-0.175
3126,-0.370,-0.110
3127,-0.375,-0.135
3128,-0.405,-0.080
3129,-0.395,-0.070
3130,-0.405,-0.080
3131,-0.370,-0.045
3132,-0.360,-0.110
3133,-0.380,-0.060
3134,-0.430,-0.080
3135,-0.445,-0.070
3136,-0.475,-0.035
3137,-0.480,-0.040
3138,-0.495,-0.025
3139,-0.535,-0.010
3140,-0.600,-0.020
3141,-0.660,-0.060
3142,-0.700,-0.095
3143,-0.740,-0.075
3144,-0.765,-0.105
3145,-0.840,-0.190
3146,-0.890,-0.180
3147,-0.950,-0.185
3148,-1.010,-0.210
3149,-1.050,-0.175
3150,-1.050,-0.265
3151,-1.095,-0.295
3152,-1.115,-0.310
3153,-1.125,-0.325
3154,-1.105,-0.310
3155,-1.065,-0.325
3156,-0.960,-0.345
3157,-0.840,-0.380
3158,-0.745,-0.300
3159,-0.660,-0.240
3160,-0.555,-0.225
3161,-0.470,-0.135
3162,-0.325,-0.040
3163,-0.285,0.000
3164,-0.250,0.000
3165,-0.250,0.000
3166,-0.240,0.040
3167,-0.240,0.035
3168,-0.200,0.040
3169,-0.150,0.095
3170,-0.180,0.090
3171,-0.185,0.000
3172,-0.200,0.030
3173,-0.190,0.030
3174,-0.195,0.030
3175,-0.185,0.005
3176,-0.180,0.045
3177,-0.210,-0.030
3178,-0.270,0.005
3179,-0.305,0.000
3180,-0.325,-0.070
3181,-0.300,-0.055
3182,-0.270,-0.050
3183,-0.295,-0.065
3184,-0.335,-0.065
3185,-0.340,-0.060
3186,-0.345,-0.060
3187,-0.340,-0.100
3188,-0.310,-0.105
3189,-0.290,-0.060
3190,-0.305,-0.065
3191,-0.315,-0.065
3192,-0.305,-0.060
3193,-0.310,-0.055
3194,-0.315,-0.070
3195,-0.315,-0.075
3196,-0.350,-0.020
3197,-0.355,-0.035
3198,-0.290,-0.080
3199,-0.200,-0.100
3200,-0.150,-0.025
3201,-0.175,0.015
3202,-0.180,0.005
3203,-0.185,-0.010
3204,-0.205,-0.040
3205,-0.190,-0.120
3206,-0.200,-0.135
3207,-0.220,-0.160
3208,-0.315,-0.085
3209,-0.335,-0.065
3210,-0.345,-0.170
3211,-0.270,-0.200
3212,-0.205,-0.165
3213,-0.035,-0.055
3214,0.415,-0.050
3215,0.920,-0.145
3216,1.145,-0.695
3217,0.210,-1.470
3218,-1.320,-1.955
3219,-1.445,-2.345
3220,-0.870,-1.980
3221,-0.360,-1.340
3222,-0.135,-0.750
3223,-0.020,-0.315
3224,0.005,-0.235
3225,0.025,-0.180
3226,0.015,-0.180
3227,0.010,-0.130
3228,0.000,-0.105
3229,-0.035,-0.110
3230,-0.005,-0.110
3231,0.010,-0.095
3232,0.010,-0.045
3233,0.000,-0.070
3234,-0.015,-0.055
3235,-0.070,-0.090
3236,-0.100,-0.060
3237,-0.095,-0.065
3238,-0.135,-0.090
3239,-0.155,-0.095
3240,-0.235,-0.090
3241,-0.255,-0.100
3242,-0.270,-0.120
3243,-0.320,-0.125
3244,-0.370,-0.110
3245,-0.430,-0.220
3246,-0.530,-0.180
3247,-0.565,-0.270
3248,-0.625,-0.235
3249,-0.650,-0.285
3250,-0.655,-0.260
3251,-0.660,-0.305
3252,-0.715,-0.335
3253,-0.715,-0.375
3254,-0.660,-0.355
3255,-0.595,-0.310
3256,-0.480,-0.280
3257,-0.365,-0.305
3258,-0.295,-0.235
3259,-0.210,-0.215
3260,-0.135,-0.170
3261,-0.100,-0.115
3262,-0.035,-0.065
3263,-0.010,-0.030
3264,-0.005,-0.040
3265,0.000,0.015
3266,-0.025,-0.025
3267,-0.005,0.005
3268,-0.015,0.045
3269,0.005,0.000
3270,0.015,-0.025
3271,-0.065,-0.030
3272,-0.085,-0.080
3273,-0.050,-0.025
3274,-0.075,-0.070
3275,-0.075,-0.065
3276,-0.080,-0.070
3277,-0.090,-0.070
3278,-0.125,-0.075
3279,-0.190,-0.100
3280,-0.140,-0.105
3281,-0.110,-0.100
3282,-0.160,-0.105
3283,-0.165,-0.105
3284,-0.185,-0.110
3285,-0.200,-0.135
3286,-0.210,-0.120
3287,-0.175,-0.140
3288,-0.150,-0.120
3289,-0.195,-0.150
3290,-0.220,-0.140
3291,-0.230,-0.150
3292,-0.240,-0.125
3293,-0.185,-0.110
3294,-0.160,-0.130
3295,-0.200,-0.120
3296,-0.240,-0.090
3297,-0.185,-0.105
3298,-0.135,-0.035
3299,-0.055,-0.030
3300,-0.075,-0.055
3301,-0.100,-0.060
3302,-0.170,-0.070
3303,-0.155,-0.140
3304,-0.195,-0.165
3305,-0.215,-0.190
3306,-0.280,-0.140
3307,-0.325,-0.150
3308,-0.330,-0.155
3309,-0.365,-0.155
3310,-0.255,-0.165
3311,-0.190,-0.120
3312,0.140,-0.025
3313,0.770,-0.060
3314,1.090,-0.300
3315,0.275,-0.875
3316,-1.240,-1.440
3317,-1.690,-1.745
3318,-1.470,-1.750
3319,-0.940,-1.310
3320,-0.615,-0.855
3321,-0.525,-0.425
3322,-0.515,-0.245
3323,-0.495,-0.145
3324,-0.460,-0.140
3325,-0.410,-0.150
3326,-0.455,-0.145
3327,-0.540,-0.130
3328,-0.485,-0.130
3329,-0.525,-0.105
3330,-0.480,-0.100
3331,-0.520,-0.075
3332,-0.495,-0.065
3333,-0.530,-0.115
3334,-0.550,-0.085
3335,-0.535,-0.065
3336,-0.575,-0.070
3337,-0.635,-0.075
3338,-0.670,-0.125
3339,-0.740,-0.155
3340,-0.820,-0.145
3341,-0.870,-0.155
3342,-0.915,-0.150
3343,-0.955,-0.170
3344,-0.990,-0.185
3345,-1.030,-0.240
3346,-1.120,-0.240
3347,-1.140,-0.260
3348,-1.195,-0.295
3349,-1.175,-0.265
3350,-1.195,-0.325
3351,-1.205,-0.335
3352,-1.210,-0.330
3353,-1.150,-0.320
3354,-1.060,-0.315
3355,-0.950,-0.275
3356,-0.845,-0.265
3357,-0.730,-0.175
3358,-0.695,-0.075
3359,-0.640,-0.065
3360,-0.590,-0.095
3361,-0.505,-0.045
3362,-0.455,-0.045
3363,-0.420,-0.010
3364,-0.425,0.005
3365,-0.420,0.000
3366,-0.400,0.010
3367,-0.355,0.020
3368,-0.350,0.010
3369,-0.320,0.000
3370,-0.350,-0.010
3371,-0.365,0.000
3372,-0.445,-0.010
3373,-0.465,0.000
3374,-0.440,-0.005
3375,-0.430,-0.005
3376,-0.420,-0.020
3377,-0.440,-0.005
3378,-0.470,-0.010
3379,-0.425,-0.020
3380,-0.350,-0.025
3381,-0.340,-0.010
3382,-0.370,-0.005
3383,-0.405,-0.050
3384,-0.465,-0.020
3385,-0.475,0.000
3386,-0.405,-0.025
3387,-0.395,-0.030
3388,-0.390,-0.025
3389,-0.410,-0.040
3390,-0.440,0.000
3391,-0.395,0.010
3392,-0.395,-0.015
3393,-0.350,-0.035
3394,-0.380,0.000
3395,-0.330,0.020
3396,-0.325,0.045
3397,-0.270,0.050
3398,-0.235,0.090
3399,-0.180,0.075
3400,-0.220,0.055
3401,-0.195,0.005
3402,-0.310,-0.040
3403,-0.300,-0.085
3404,-0.325,-0.095
3405,-0.475,0.010
3406,-0.445,-0.040
3407,-0.445,-0.055
3408,-0.475,-0.090
3409,-0.445,-0.050
3410,-0.245,0.075
3411,0.240,0.105
3412,0.650,-0.055
3413,0.585,-0.630
3414,-0.990,-1.310
3415,-1.900,-1.785
3416,-1.875,-2.075
3417,-1.330,-1.560
3418,-0.795,-0.960
3419,-0.610,-0.450
3420,-0.585,-0.130
3421,-0.585,-0.050
3422,-0.550,-0.045
3423,-0.545,-0.015
3424,-0.545,0.000
3425,-0.495,0.035
3426,-0.580,0.065
3427,-0.630,0.050
3428,-0.615,0.035
3429,-0.630,0.055
3430,-0.695,0.090
3431,-0.675,0.055
3432,-0.650,0.055
3433,-0.805,0.120
3434,-0.815,0.070
3435,-0.830,0.020
3436,-0.870,0.085
3437,-0.880,0.030
3438,-0.955,0.015
3439,-0.975,0.000
3440,-1.070,0.000
3441,-1.160,0.000
3442,-1.325,-0.040
3443,-1.395,-0.075
3444,-1.455,-0.110
3445,-1.520,-0.145
3446,-1.555,-0.185
3447,-1.565,-0.205
3448,-1.575,-0.240
3449,-1.515,-0.260
3450,-1.520,-0.260
3451,-1.520,-0.260
3452,-1.465,-0.250
3453,-1.390,-0.270
3454,-1.300,-0.245
3455,-1.205,-0.125
3456,-1.130,-0.100
3457,-1.100,-0.070
3458,-1.040,-0.015
3459,-1.060,0.030
3460,-1.000,0.055
3461,-0.915,0.075
3462,-0.870,0.075
3463,-0.850,0.100
3464,-0.935,0.110
3465,-0.985,0.070
3466,-0.935,0.080
3467,-0.930,0.055
3468,-0.930,0.055
3469,-0.940,0.030
3470,-0.970,0.065
3471,-0.975,0.055
3472,-0.990,0.050
3473,-0.960,0.045
3474,-0.925,0.045
3475,-0.940,0.045
3476,-1.030,0.060
3477,-1.020,0.035
3478,-1.015,0.045
3479,-0.940,0.010
3480,-0.930,0.020
3481,-0.980,0.030
3482,-0.970,0.005
3483,-1.005,0.025
3484,-0.985,0.020
3485,-0.955,0.040
3486,-0.945,0.005
3487,-0.955,0.015
3488,-0.960,0.005
3489,-1.025,0.035
3490,-1.005,0.050
3491,-0.975,0.015
3492,-0.990,0.015
3493,-0.955,0.030
3494,-0.950,0.010
3495,-0.945,0.015
3496,-0.935,0.070
3497,-0.995,0.145
3498,-0.990,0.180
3499,-1.010,0.100
3500,-0.985,0.075
3501,-1.045,0.000
3502,-1.075,-0.030
3503,-1.165,-0.045
3504,-1.150,-0.005
3505,-1.155,0.000
3506,-1.105,0.000
3507,-1.170,-0.010
3508,-1.100,0.005
3509,-0.930,0.040
3510,-0.525,0.090
3511,-0.080,0.030
3512,0.170,-0.625
3513,-0.865,-1.480
3514,-2.330,-2.100
3515,-2.525,-2.525
3516,-2.085,-2.215
3517,-1.565,-1.470
3518,-1.310,-0.750
3519,-1.240,-0.365
3520,-1.230,-0.250
3521,-1.140,-0.205
3522,-1.095,-0.160
3523,-1.035,-0.160
3524,-1.040,-0.160
3525,-1.060,-0.155
3526,-1.125,-0.150
3527,-1.090,-0.125
3528,-1.100,-0.125
3529,-1.115,-0.115
3530,-1.065,-0.135
3531,-1.095,-0.120
3532,-1.115,-0.125
3533,-1.115,-0.130
3534,-1.180,-0.120
3535,-1.215,-0.130
3536,-1.230,-0.170
3537,-1.285,-0.185
3538,-1.330,-0.175
3539,-1.405,-0.190
3540,-1.430,-0.215
3541,-1.430,-0.245
3542,-1.510,-0.255
3543,-1.590,-0.290
3544,-1.585,-0.315
3545,-1.685,-0.390
3546,-1.705,-0.370
3547,-1.730,-0.425
3548,-1.675,-0.420
3549,-1.625,-0.425
3550,-1.580,-0.425
3551,-1.555,-0.390
3552,-1.455,-0.365
3553,-1.405,-0.350
3554,-1.265,-0.305
3555,-1.160,-0.250
3556,-1.060,-0.225
3557,-1.000,-0.165
3558,-0.960,-0.120
3559,-0.870,-0.125
3560,-0.800,-0.090
3561,-0.850,-0.100
3562,-0.805,-0.090
3563,-0.770,-0.135
3564,-0.790,-0.060
3565,-0.760,-0.105
3566,-0.755,-0.120
3567,-0.755,-0.130
3568,-0.745,-0.150
3569,-0.780,-0.170
3570,-0.795,-0.195
3571,-0.735,-0.180
3572,-0.735,-0.180
3573,-0.765,-0.205
3574,-0.735,-0.205
3575,-0.765,-0.195
3576,-0.790,-0.230
3577,-0.785,-0.225
3578,-0.740,-0.235
3579,-0.715,-0.230
3580,-0.690,-0.235
3581,-0.660,-0.235
3582,-0.690,-0.250
3583,-0.785,-0.215
3584,-0.825,-0.230
3585,-0.765,-0.250
3586,-0.745,-0.245
3587,-0.740,-0.230
3588,-0.710,-0.260
3589,-0.745,-0.230
3590,-0.755,-0.235
3591,-0.720,-0.240
3592,-0.605,-0.215
3593,-0.530,-0.100
3594,-0.460,-0.020
3595,-0.490,0.055
3596,-0.485,0.075
3597,-0.490,0.045
3598,-0.440,0.005
3599,-0.435,-0.060
3600,-0.490,-0.115
3601,-0.610,-0.090
3602,-0.570,-0.065
3603,-0.590,-0.070
3604,-0.685,-0.090
3605,-0.660,-0.100
3606,-0.690,-0.155
3607,-0.580,-0.170
3608,-0.065,-0.150
3609,0.450,-0.215
3610,0.610,-0.740
3611,-0.625,-1.600
3612,-2.020,-2.220
3613,-2.115,-2.560
3614,-1.610,-2.225
3615,-1.080,-1.525
3616,-0.825,-0.950
3617,-0.705,-0.545
3618,-0.715,-0.410
3619,-0.615,-0.380
3620,-0.525,-0.375
3621,-0.380,-0.350
3622,-0.250,-0.305
3623,-0.245,-0.315
3624,-0.250,-0.290
3625,-0.245,-0.300
3626,-0.300,-0.300
3627,-0.340,-0.290
3628,-0.370,-0.310
3629,-0.360,-0.360
3630,-0.420,-0.365
3631,-0.435,-0.325
3632,-0.470,-0.400
3633,-0.480,-0.355
3634,-0.505,-0.380
3635,-0.570,-0.385
3636,-0.545,-0.390
3637,-0.630,-0.420
3638,-0.800,-0.465
3639,-0.835,-0.450
3640,-0.845,-0.495
3641,-0.865,-0.500
3642,-0.880,-0.555
3643,-0.885,-0.525
3644,-0.800,-0.590
3645,-0.845,-0.600
3646,-0.785,-0.625
3647,-0.700,-0.635
3648,-0.690,-0.590
3649,-0.660,-0.610
3650,-0.590,-0.615
3651,-0.470,-0.540
3652,-0.300,-0.535
3653,-0.180,-0.490
3654,-0.185,-0.385
3655,-0.175,-0.340
3656,-0.060,-0.305
3657,0.030,-0.290
3658,0.100,-0.180
3659,0.155,-0.155
3660,0.260,-0.110
3661,0.290,0.005
3662,0.270,0.040
3663,0.155,0.055
3664,0.170,0.035
3665,0.125,0.000
3666,0.155,-0.025
3667,0.225,0.020
3668,0.185,0.030
3669,0.060,0.015
3670,0.000,0.015
3671,0.110,0.010
3672,0.075,0.020
3673,0.095,0.010
3674,0.070,0.015
3675,0.065,0.010
3676,0.075,-0.005
3677,0.130,-0.025
3678,0.150,-0.020
3679,0.120,0.000
3680,0.065,-0.010
3681,0.035,-0.020
3682,-0.005,-0.035
3683,0.040,-0.035
3684,0.020,-0.045
3685,0.025,-0.020
3686,0.030,-0.040
3687,0.000,0.010
3688,0.000,-0.005
3689,0.020,-0.025
3690,0.050,0.010
3691,0.115,0.025
3692,0.180,0.050
3693,0.105,0.090
3694,0.060,0.055
3695,0.085,0.045
3696,0.165,0.000
3697,0.075,-0.060
3698,0.030,-0.075
3699,-0.050,-0.080
3700,-0.025,-0.065
3701,-0.130,-0.065
3702,-0.095,-0.065
3703,-0.030,-0.100
3704,0.020,-0.075
3705,0.200,0.035
3706,0.825,0.085
3707,1.290,0.005
3708,1.145,-0.435
3709,-0.365,-1.145
3710,-1.385,-1.585
3711,-1.370,-1.855
3712,-0.910,-1.585
3713,-0.420,-1.065
3714,-0.215,-0.575
3715,-0.160,-0.250
3716,-0.160,-0.075
3717,-0.145,-0.045
3718,-0.105,-0.005
3719,-0.120,-0.010
3720,-0.230,0.025
3721,-0.205,0.015
3722,-0.165,0.010
3723,-0.135,0.015
3724,-0.185,0.000
3725,-0.210,0.015
3726,-0.195,0.020
3727,-0.235,0.000
3728,-0.270,0.035
3729,-0.235,0.045
3730,-0.345,0.020
3731,-0.350,0.005
3732,-0.415,0.000
3733,-0.500,-0.015
3734,-0.525,-0.040
3735,-0.535,-0.060
3736,-0.750,-0.060
3737,-0.950,-0.095
3738,-1.230,-0.165
3739,-1.360,-0.280
3740,-1.625,-0.375
3741,-1.850,-0.440
3742,-1.960,-0.420
3743,-2.040,-0.495
3744,-2.030,-0.610
3745,-2.085,-0.670
3746,-2.090,-0.695
3747,-1.965,-0.745
3748,-1.870,-0.705
3749,-1.800,-0.665
3750,-1.740,-0.630
3751,-1.730,-0.605
3752,-1.735,-0.570
3753,-1.705,-0.545
3754,-1.725,-0.580
3755,-1.660,-0.640
3756,-1.590,-0.570
3757,-1.410,-0.590
3758,-1.300,-0.625
3759,-1.195,-0.605
3760,-1.245,-0.565
3761,-1.260,-0.580
3762,-1.225,-0.605
3763,-1.260,-0.610
3764,-1.305,-0.625
3765,-1.365,-0.645
3766,-1.400,-0.625
3767,-1.460,-0.600
3768,-1.665,-0.615
3769,-1.775,-0.610
3770,-1.800,-0.645
3771,-1.810,-0.570
3772,-1.845,-0.590
3773,-1.800,-0.555
3774,-1.770,-0.555
3775,-1.775,-0.525
3776,-1.815,-0.550
3777,-1.615,-0.520
3778,-1.475,-0.510
3779,-1.390,-0.460
3780,-1.310,-0.465
3781,-1.375,-0.410
3782,-1.300,-0.370
3783,-1.265,-0.345
3784,-1.265,-0.395
3785,-1.295,-0.335
3786,-1.225,-0.365
3787,-1.140,-0.370
3788,-1.085,-0.310
3789,-1.050,-0.300
3790,-0.965,-0.275
3791,-0.800,-0.255
3792,-0.825,-0.190
3793,-1.030,-0.150
3794,-0.935,-0.215
3795,-0.990,-0.280
3796,-0.915,-0.265
3797,-0.985,-0.345
3798,-1.060,-0.360
3799,-1.160,-0.325
3800,-1.585,-0.265
3801,-1.915,-0.275
3802,-2.040,-0.315
3803,-1.970,-0.305
3804,-1.945,-0.320
3805,-1.850,-0.220
3806,-1.395,-0.200
3807,-1.075,-0.300
3808,-1.285,-0.900
3809,-2.540,-1.865
3810,-3.440,-2.465
3811,-3.445,-2.800
3812,-3.080,-2.530
3813,-2.690,-1.900
3814,-2.510,-1.210
3815,-2.350,-0.795
3816,-2.260,-0.575
3817,-2.250,-0.555
3818,-2.325,-0.540
3819,-2.295,-0.520
3820,-2.280,-0.500
3821,-2.250,-0.490
3822,-2.180,-0.515
3823,-2.230,-0.500
3824,-2.255,-0.450
3825,-2.220,-0.460
3826,-2.225,-0.485
3827,-2.265,-0.470
3828,-2.185,-0.460
3829,-2.200,-0.480
3830,-2.325,-0.465
3831,-2.305,-0.495
3832,-2.295,-0.505
3833,-2.325,-0.500
3834,-2.360,-0.525
3835,-2.405,-0.525
3836,-2.435,-0.585
3837,-2.455,-0.580
3838,-2.460,-0.600
3839,-2.510,-0.640
3840,-2.620,-0.665
3841,-2.575,-0.750
3842,-2.575,-0.705
3843,-2.645,-0.720
3844,-2.650,-0.765
3845,-2.585,-0.780
3846,-2.560,-0.795
3847,-2.480,-0.725
3848,-2.325,-0.735
3849,-2.250,-0.715
3850,-2.265,-0.615
3851,-2.110,-0.605
3852,-2.015,-0.575
3853,-1.980,-0.500
3854,-1.900,-0.460
3855,-1.825,-0.420
3856,-1.800,-0.395
3857,-1.815,-0.360
3858,-1.765,-0.365
3859,-1.750,-0.350
3860,-1.685,-0.350
3861,-1.725,-0.335
3862,-1.765,-0.360
3863,-1.695,-0.345
3864,-1.665,-0.370
3865,-1.680,-0.325
3866,-1.605,-0.410
3867,-1.550,-0.345
3868,-1.545,-0.305
3869,-1.595,-0.280
3870,-1.580,-0.285
3871,-1.500,-0.280
3872,-1.475,-0.285
3873,-1.425,-0.210
3874,-1.440,-0.145
3875,-1.450,-0.120
3876,-1.420,-0.120
3877,-1.380,-0.105
3878,-1.380,-0.120
3879,-1.345,-0.095
3880,-1.370,-0.090
3881,-1.375,-0.100
3882,-1.330,-0.115
3883,-1.310,-0.090
3884,-1.250,-0.090
3885,-1.280,-0.095
3886,-1.290,-0.085
3887,-1.315,-0.095
3888,-1.245,-0.105
3889,-1.215,-0.090
3890,-1.120,-0.085
3891,-1.015,-0.045
3892,-1.050,0.040
3893,-1.070,0.045
3894,-1.055,-0.005
3895,-1.075,-0.065
3896,-1.060,-0.140
3897,-1.050,-0.180
3898,-1.140,-0.145
3899,-1.220,-0.095
3900,-1.230,-0.105
3901,-1.200,-0.080
3902,-1.150,-0.095
3903,-1.115,-0.085
3904,-0.940,-0.005
3905,-0.415,-0.070
3906,-0.060,-0.120
3907,-0.065,-0.835
3908,-1.570,-1.745
3909,-2.550,-2.345
3910,-2.355,-2.670
3911,-1.825,-2.195
3912,-1.365,-1.290
3913,-1.260,-0.640
3914,-1.195,-0.310
3915,-1.140,-0.200
3916,-1.145,-0.165
3917,-1.140,-0.160
3918,-1.130,-0.115
3919,-1.110,-0.105
3920,-1.155,-0.105
3921,-1.135,-0.105
3922,-1.130,-0.120
3923,-1.190,-0.100
3924,-1.160,-0.105
3925,-1.190,-0.055
3926,-1.160,-0.080
3927,-1.185,-0.055
3928,-1.180,-0.060
3929,-1.200,-0.085
3930,-1.220,-0.055
3931,-1.225,-0.065
3932,-1.310,-0.050
3933,-1.340,-0.085
3934,-1.350,-0.095
3935,-1.355,-0.115
3936,-1.420,-0.125
3937,-1.510,-0.145
3938,-1.490,-0.170
3939,-1.510,-0.155
3940,-1.585,-0.165
3941,-1.595,-0.185
3942,-1.570,-0.240
3943,-1.570,-0.270
3944,-1.535,-0.240
3945,-1.390,-0.255
3946,-1.335,-0.245
3947,-1.255,-0.210
3948,-1.165,-0.155
3949,-1.065,-0.075
3950,-0.955,-0.050
3951,-0.870,0.000
3952,-0.790,0.005
3953,-0.725,0.055
3954,-0.730,0.100
3955,-0.720,0.110
3956,-0.665,0.050
3957,-0.630,0.065
3958,-0.660,0.080
3959,-0.675,0.105
3960,-0.645,0.080
3961,-0.675,0.055
3962,-0.670,0.050
3963,-0.620,0.060
3964,-0.595,0.025
3965,-0.615,0.000
3966,-0.725,0.035
3967,-0.665,0.020
3968,-0.670,0.005
3969,-0.640,0.020
3970,-0.640,0.005
3971,-0.660,0.000
3972,-0.675,0.000
3973,-0.645,0.010
3974,-0.650,0.015
3975,-0.650,0.005
3976,-0.630,0.000
3977,-0.670,-0.010
3978,-0.690,0.000
3979,-0.750,0.000
3980,-0.715,-0.005
3981,-0.700,-0.035
3982,-0.705,-0.030
3983,-0.705,-0.060
3984,-0.705,-0.025
3985,-0.710,0.010
3986,-0.695,0.000
3987,-0.570,0.005
3988,-0.515,0.000
3989,-0.535,0.070
3990,-0.650,0.105
3991,-0.570,0.075
3992,-0.575,0.010
3993,-0.535,0.000
3994,-0.590,-0.095
3995,-0.615,-0.095
3996,-0.705,-0.085
3997,-0.805,-0.045
3998,-0.840,-0.055
3999,-0.850,-0.070
4000,-0.755,-0.060
4001,-0.580,-0.065
4002,-0.220,0.040
4003,0.320,0.220
4004,0.740,0.240
4005,0.505,-0.200
4006,-1.060,-0.970
4007,-1.830,-1.465
4008,-1.605,-1.680
4009,-1.180,-1.355
4010,-0.770,-0.790
4011,-0.635,-0.250
4012,-0.640,0.105
4013,-0.625,0.195
4014,-0.560,0.220
4015,-0.530,0.255
4016,-0.590,0.295
4017,-0.590,0.270
4018,-0.535,0.265
4019,-0.455,0.235
4020,-0.565,0.255
4021,-0.565,0.270
4022,-0.525,0.305
4023,-0.490,0.290
4024,-0.505,0.285
4025,-0.500,0.275
4026,-0.520,0.280
4027,-0.545,0.285
4028,-0.545,0.265
4029,-0.545,0.265
4030,-0.590,0.215
4031,-0.615,0.225
4032,-0.660,0.190
4033,-0.710,0.190
4034,-0.675,0.140
4035,-0.600,0.170
4036,-0.365,0.145
4037,-0.150,0.080
4038,0.010,0.035
4039,0.070,0.030
4040,0.075,0.010
4041,0.100,-0.005
4042,0.170,-0.005
4043,0.315,-0.005
4044,0.395,-0.010
4045,0.470,0.045
4046,0.585,0.065
4047,0.720,0.085
4048,0.875,0.135
4049,1.090,0.200
4050,1.235,0.250
4051,1.325,0.250
4052,1.390,0.260
4053,1.440,0.255
4054,1.440,0.270
4055,1.505,0.285
4056,1.535,0.245
4057,1.520,0.265
4058,1.510,0.275
4059,1.480,0.250
4060,1.540,0.235
4061,1.575,0.265
4062,1.445,0.270
4063,1.385,0.260
4064,1.425,0.190
4065,1.425,0.170
4066,1.455,0.210
4067,1.475,0.230
4068,1.500,0.185
4069,1.465,0.210
4070,1.505,0.195
4071,1.525,0.235
4072,1.400,0.205
4073,1.400,0.130
4074,1.465,0.150
4075,1.480,0.150
4076,1.450,0.195
4077,1.430,0.160
4078,1.405,0.160
4079,1.455,0.175
4080,1.450,0.155
4081,1.415,0.180
4082,1.435,0.150
4083,1.465,0.175
4084,1.450,0.155
4085,1.480,0.160
4086,1.485,0.180
4087,1.485,0.285
4088,1.575,0.295
4089,1.545,0.255
4090,1.545,0.225
4091,1.550,0.140
4092,1.515,0.065
4093,1.505,0.030
4094,1.455,0.085
4095,1.340,0.130
4096,1.320,0.105
4097,1.330,0.085
4098,1.405,0.115
4099,1.545,0.135
4100,1.830,0.245
4101,2.360,0.270
4102,2.625,0.155
4103,2.070,-0.310
4104,0.560,-0.925
4105,-0.020,-1.340
4106,0.185,-1.520
4107,0.650,-1.290
4108,1.050,-0.780
4109,1.225,-0.340
4110,1.235,-0.015
4111,1.225,0.230
4112,1.290,0.120
4113,1.300,0.070
4114,1.270,0.105
4115,1.275,0.135
4116,1.250,0.135
4117,1.215,0.170
4118,1.190,0.190
4119,1.275,0.185
4120,1.290,0.190
4121,1.210,0.200
4122,1.160,0.180
4123,1.135,0.200
4124,1.075,0.175
4125,1.070,0.225
4126,1.045,0.195
4127,1.010,0.165
4128,0.925,0.150
4129,0.870,0.095
4130,0.820,0.095
4131,0.755,0.085
4132,0.770,0.075
4133,0.680,0.055
4134,0.600,0.035
4135,0.605,0.020
4136,0.540,-0.035
4137,0.480,-0.015
4138,0.475,-0.005
4139,0.490,-0.060
4140,0.515,-0.040
4141,0.555,-0.085
4142,0.665,-0.070
4143,0.710,-0.035
4144,0.780,-0.010
4145,0.900,0.015
4146,1.000,0.070
4147,1.045,0.115
4148,1.030,0.180
4149,1.120,0.185
4150,1.170,0.220
4151,1.205,0.245
4152,1.100,0.215
4153,0.975,0.240
4154,0.980,0.245
4155,1.040,0.210
4156,0.990,0.235
4157,0.975,0.270
4158,0.955,0.240
4159,0.945,0.230
4160,0.955,0.225
4161,0.920,0.225
4162,0.920,0.275
4163,0.905,0.245
4164,0.835,0.220
4165,0.850,0.235
4166,0.815,0.235
4167,0.810,0.215
4168,0.830,0.230
4169,0.845,0.225
4170,0.830,0.240
4171,0.815,0.275
4172,0.850,0.190
4173,0.840,0.200
4174,0.835,0.230
4175,0.830,0.275
4176,0.830,0.190
4177,0.770,0.090
4178,0.755,0.125
4179,0.795,0.080
4180,0.815,0.135
4181,0.850,0.130
4182,0.805,0.175
4183,0.790,0.140
4184,0.875,0.160
4185,0.955,0.185
4186,0.930,0.270
4187,0.965,0.290
4188,0.975,0.280
4189,0.895,0.240
4190,0.900,0.195
4191,0.865,0.065
4192,0.815,0.095
4193,0.785,0.125
4194,0.760,0.110
4195,0.680,0.125
4196,0.695,0.115
4197,0.760,0.050
4198,0.830,0.130
4199,1.165,0.225
4200,1.600,0.225
4201,1.670,-0.120
4202,0.775,-1.045
4203,-0.650,-1.590
4204,-0.730,-2.080
4205,-0.105,-2.060
4206,0.300,-1.360
4207,0.585,-0.635
4208,0.645,-0.060
4209,0.675,0.100
4210,0.645,0.065
4211,0.655,0.105
4212,0.650,0.155
4213,0.655,0.115
4214,0.680,0.090
4215,0.675,0.170
4216,0.645,0.180
4217,0.630,0.215
4218,0.630,0.270
4219,0.655,0.175
4220,0.610,0.230
4221,0.605,0.215
4222,0.540,0.200
4223,0.530,0.215
4224,0.505,0.125
4225,0.480,0.210
4226,0.445,0.095
4227,0.360,0.145
4228,0.355,0.170
4229,0.295,0.135
4230,0.155,0.105
4231,0.145,0.035
4232,0.140,0.040
4233,0.095,0.005
4234,0.060,0.010
4235,0.020,0.025
4236,-0.020,0.010
4237,0.020,0.000
4238,0.095,0.000
4239,0.120,-0.040
4240,0.195,0.005
4241,0.225,0.130
4242,0.385,0.075
4243,0.495,0.040
4244,0.595,0.180
4245,0.675,0.150
4246,0.695,0.175
4247,0.745,0.200
4248,0.825,0.290
4249,0.865,0.300
4250,0.840,0.215
4251,0.870,0.230
4252,0.895,0.250
4253,0.890,0.185
4254,0.885,0.110
4255,0.895,0.160
4256,0.865,0.155
4257,0.860,0.145
4258,0.895,0.135
4259,0.865,0.100
4260,0.865,0.110
4261,0.885,0.145
4262,0.835,0.160
4263,0.945,0.190
4264,0.865,0.135
4265,0.845,0.050
4266,0.850,0.105
4267,0.850,0.170
4268,0.840,0.120
4269,0.885,0.115
4270,0.860,0.185
4271,0.840,0.060
4272,0.875,0.020
4273,0.915,0.055
4274,0.860,0.050
4275,0.815,0.090
4276,0.885,0.075
4277,0.845,0.070
4278,0.810,0.070
4279,0.815,0.035
4280,0.785,0.140
4281,0.840,0.080
4282,0.925,0.075
4283,0.985,0.020
4284,0.955,0.075
4285,0.940,0.135
4286,0.955,0.160
4287,0.975,0.135
4288,1.010,0.100
4289,0.875,0.075
4290,0.865,-0.020
4291,0.790,-0.015
4292,0.750,0.065
4293,0.785,0.000
4294,0.840,0.025
4295,0.805,0.000
4296,0.885,0.050
4297,1.195,0.090
4298,1.615,0.060
4299,1.735,-0.105
4300,1.035,-0.870
4301,-0.500,-1.550
4302,-0.775,-2.010
4303,-0.310,-2.175
4304,0.225,-1.610
4305,0.480,-0.940
4306,0.585,-0.350
4307,0.605,-0.075
4308,0.605,-0.045
4309,0.620,0.005
4310,0.605,0.035
4311,0.580,0.070
4312,0.610,0.025
4313,0.600,0.065
4314,0.605,0.075
4315,0.575,0.080
4316,0.490,0.050
4317,0.490,0.040
4318,0.520,0.035
4319,0.520,0.065
4320,0.495,0.105
4321,0.390,0.100
4322,0.365,0.040
4323,0.325,0.005
4324,0.305,0.010
4325,0.255,0.005
4326,0.225,0.025
4327,0.125,0.005
4328,0.010,0.025
4329,-0.020,-0.035
4330,-0.095,-0.125
4331,-0.195,-0.155
4332,-0.195,-0.115
4333,-0.300,-0.140
4334,-0.365,-0.130
4335,-0.380,-0.160
4336,-0.365,-0.175
4337,-0.310,-0.225
4338,-0.255,-0.205
4339,-0.160,-0.175
4340,-0.060,-0.140
4341,-0.040,-0.090
4342,0.025,-0.045
4343,0.120,-0.005
4344,0.200,0.000
4345,0.260,0.045
4346,0.305,0.070
4347,0.305,0.095
4348,0.300,0.100
4349,0.290,0.115
4350,0.330,0.085
4351,0.305,0.090
4352,0.290,0.060
4353,0.260,0.055
4354,0.215,0.060
4355,0.185,0.025
4356,0.205,0.030
4357,0.210,0.015
4358,0.195,0.030
4359,0.185,0.025
4360,0.165,0.000
4361,0.170,0.005
4362,0.180,0.010
4363,0.180,0.000
4364,0.170,-0.005
4365,0.150,-0.005
4366,0.130,0.000
4367,0.055,-0.015
4368,0.040,0.000
4369,0.095,-0.040
4370,0.115,-0.030
4371,0.100,-0.015
4372,0.055,-0.005
4373,0.030,-0.005
4374,0.045,-0.030
4375,0.035,-0.010
4376,0.060,-0.005
4377,0.035,-0.010
4378,0.030,-0.010
4379,0.030,-0.020
4380,0.060,-0.035
4381,0.130,-0.020
4382,0.160,0.015
4383,0.185,0.075
4384,0.150,0.090
4385,0.155,0.055
4386,0.130,0.005
4387,0.105,-0.040
4388,0.040,-0.080
4389,0.030,-0.110
4390,-0.045,-0.075
4391,-0.075,-0.040
4392,-0.100,-0.060
4393,-0.090,-0.070
4394,-0.010,-0.075
4395,0.120,-0.060
4396,0.520,0.030
4397,0.950,0.000
4398,1.095,-0.230
4399,0.070,-1.085
4400,-1.425,-1.735
4401,-1.550,-2.215
4402,-0.965,-2.215
4403,-0.470,-1.625
4404,-0.265,-0.905
4405,-0.200,-0.380
4406,-0.195,-0.130
4407,-0.170,-0.065
4408,-0.155,-0.060
4409,-0.140,-0.035
4410,-0.170,0.000
4411,-0.185,0.010
4412,-0.165,-0.010
4413,-0.130,0.000
4414,-0.145,0.045
4415,-0.160,0.020
4416,-0.245,0.035
4417,-0.285,0.015
4418,-0.270,0.025
4419,-0.290,0.000
4420,-0.245,0.020
4421,-0.295,0.040
4422,-0.345,0.030
4423,-0.400,0.000
4424,-0.475,-0.030
4425,-0.500,-0.050
4426,-0.535,-0.070
4427,-0.560,-0.070
4428,-0.615,-0.100
4429,-0.650,-0.105
4430,-0.675,-0.140
4431,-0.710,-0.170
4432,-0.715,-0.185
4433,-0.640,-0.220
4434,-0.670,-0.160
4435,-0.615,-0.215
4436,-0.600,-0.235
4437,-0.535,-0.210
4438,-0.460,-0.200
4439,-0.365,-0.170
4440,-0.230,-0.095
4441,-0.145,-0.060
4442,-0.075,-0.025
4443,-0.015,0.005
4444,0.000,0.035
4445,0.050,0.045
4446,0.125,0.055
4447,0.145,0.045
4448,0.100,0.040
4449,0.090,0.040
4450,0.120,0.035
4451,0.155,0.015
4452,0.140,0.020
4453,0.120,0.000
4454,0.120,0.000
4455,0.120,-0.025
4456,0.120,-0.035
4457,0.130,-0.040
4458,0.210,-0.050
4459,0.300,-0.015
4460,0.280,-0.035
4461,0.255,-0.015
4462,0.265,-0.025
4463,0.310,-0.045
4464,0.330,-0.040
4465,0.430,-0.035
4466,0.455,-0.045
4467,0.435,-0.055
4468,0.405,-0.060
4469,0.435,-0.040
4470,0.455,-0.055
4471,0.480,-0.075
4472,0.435,-0.065
4473,0.375,-0.075
4474,0.380,-0.110
4475,0.385,-0.120
4476,0.410,-0.120
4477,0.430,-0.120
4478,0.430,-0.095
4479,0.435,-0.080
4480,0.480,-0.055
4481,0.505,-0.045
4482,0.510,0.000
4483,0.530,-0.015
4484,0.525,-0.050
4485,0.480,-0.075
4486,0.440,-0.155
4487,0.405,-0.180
4488,0.345,-0.160
4489,0.335,-0.130
4490,0.320,-0.140
4491,0.350,-0.155
4492,0.365,-0.145
4493,0.475,-0.125
4494,0.840,-0.010
4495,1.375,-0.010
4496,1.585,-0.130
4497,0.770,-0.600
4498,-0.710,-1.225
4499,-1.000,-1.645
4500,-0.655,-1.795
4501,-0.155,-1.470
4502,0.110,-1.020
4503,0.245,-0.565
4504,0.255,-0.285
4505,0.230,-0.195
4506,0.260,-0.120
4507,0.280,-0.105
4508,0.295,-0.105
4509,0.255,-0.100
4510,0.240,-0.055
4511,0.210,-0.090
4512,0.210,-0.090
4513,0.200,-0.095
4514,0.190,-0.100
4515,0.165,-0.090
4516,0.150,-0.110
4517,0.120,-0.100
4518,0.080,-0.105
4519,0.050,-0.100
4520,0.035,-0.110
4521,-0.045,-0.110
4522,-0.095,-0.125
4523,-0.120,-0.135
4524,-0.170,-0.160
4525,-0.210,-0.170
4526,-0.260,-0.195
4527,-0.255,-0.210
4528,-0.330,-0.230
4529,-0.365,-0.255
4530,-0.420,-0.295
4531,-0.420,-0.295
4532,-0.380,-0.345
4533,-0.375,-0.350
4534,-0.340,-0.335
4535,-0.260,-0.315
4536,-0.235,-0.320
4537,-0.140,-0.285
4538,-0.045,-0.250
4539,0.060,-0.225
4540,0.140,-0.175
4541,0.175,-0.100
4542,0.225,-0.065
4543,0.220,-0.035
4544,0.315,-0.035
4545,0.310,-0.030
4546,0.295,0.010
4547,0.305,-0.005
4548,0.305,0.000
4549,0.290,-0.010
4550,0.290,-0.020
4551,0.270,-0.030
4552,0.260,-0.025
4553,0.240,-0.030
4554,0.215,-0.030
4555,0.180,-0.035
4556,0.195,-0.030
4557,0.205,-0.050
4558,0.225,-0.030
4559,0.220,-0.030
4560,0.210,-0.050
4561,0.195,-0.035
4562,0.170,-0.055
4563,0.180,-0.040
4564,0.195,-0.035
4565,0.200,-0.060
4566,0.180,-0.050
4567,0.180,-0.040
4568,0.150,-0.065
4569,0.150,-0.065
4570,0.170,-0.065
4571,0.165,-0.055
4572,0.135,-0.040
4573,0.075,-0.045
4574,-0.005,-0.090
4575,-0.075,-0.070
4576,-0.030,-0.055
4577,0.035,-0.045
4578,0.025,-0.025
4579,0.020,0.055
4580,0.005,0.055
4581,-0.025,0.000
4582,-0.005,-0.025
4583,-0.030,-0.080
4584,-0.100,-0.115
4585,-0.135,-0.125
4586,-0.240,-0.075
4587,-0.300,-0.075
4588,-0.395,-0.080
4589,-0.370,-0.075
4590,-0.290,-0.070
4591,-0.110,-0.025
4592,0.355,0.030
4593,0.660,-0.005
4594,0.400,-0.430
4595,-1.085,-1.115
4596,-1.865,-1.715
4597,-1.740,-2.105
4598,-1.190,-1.825
4599,-0.765,-1.255
4600,-0.585,-0.720
4601,-0.515,-0.315
4602,-0.505,-0.130
4603,-0.540,-0.120
4604,-0.525,-0.070
4605,-0.555,-0.050
4606,-0.570,-0.030
4607,-0.560,-0.030
4608,-0.550,-0.035
4609,-0.545,-0.025
4610,-0.560,-0.025
4611,-0.620,-0.025
4612,-0.650,-0.020
4613,-0.665,-0.015
4614,-0.665,-0.030
4615,-0.680,-0.015
4616,-0.715,-0.040
4617,-0.765,-0.040
4618,-0.840,-0.060
4619,-0.885,-0.085
4620,-0.920,-0.070
4621,-0.945,-0.105
4622,-1.010,-0.150
4623,-1.080,-0.155
4624,-1.145,-0.185
4625,-1.165,-0.225
4626,-1.205,-0.225
4627,-1.220,-0.265
4628,-1.235,-0.305
4629,-1.255,-0.300
4630,-1.255,-0.315
4631,-1.210,-0.340
4632,-1.190,-0.335
4633,-1.105,-0.310
4634,-1.010,-0.275
4635,-0.905,-0.285
4636,-0.810,-0.195
4637,-0.715,-0.150
4638,-0.675,-0.100
4639,-0.585,-0.055
4640,-0.535,-0.015
4641,-0.520,0.000
4642,-0.495,0.010
4643,-0.480,0.020
4644,-0.450,0.060
4645,-0.450,0.040
4646,-0.410,0.085
4647,-0.440,0.130
4648,-0.480,0.115
4649,-0.520,0.030
4650,-0.500,0.015
4651,-0.465,0.010
4652,-0.505,0.040
4653,-0.530,0.025
4654,-0.555,0.025
4655,-0.595,0.045
4656,-0.575,0.040
4657,-0.585,0.000
4658,-0.555,-0.005
4659,-0.550,0.000
4660,-0.550,0.045
4661,-0.575,-0.015
4662,-0.630,-0.015
4663,-0.610,-0.040
4664,-0.585,-0.050
4665,-0.575,-0.010
4666,-0.585,0.000
4667,-0.580,-0.015
4668,-0.610,0.000
4669,-0.575,-0.010
4670,-0.600,0.005
4671,-0.560,0.010
4672,-0.585,-0.010
4673,-0.565,0.000
4674,-0.550,0.000
4675,-0.525,-0.015
4676,-0.420,-0.005
4677,-0.390,0.045
4678,-0.385,0.090
4679,-0.400,0.120
4680,-0.440,0.065
4681,-0.470,-0.005
4682,-0.500,-0.075
4683,-0.510,-0.065
4684,-0.535,-0.040
4685,-0.585,-0.010
4686,-0.600,-0.040
4687,-0.595,-0.045
4688,-0.580,-0.045
4689,-0.455,-0.025
4690,-0.110,0.050
4691,0.370,0.000
4692,0.585,-0.080
4693,-0.070,-0.925
4694,-1.755,-1.685
4695,-2.170,-2.230
4696,-1.685,-2.435
4697,-1.020,-1.825
4698,-0.770,-1.110
4699,-0.685,-0.485
4700,-0.685,-0.170
4701,-0.660,-0.050
4702,-0.630,-0.040
4703,-0.635,-0.020
4704,-0.625,0.010
4705,-0.650,0.005
4706,-0.640,0.005
4707,-0.665,0.045
4708,-0.710,0.065
4709,-0.695,0.020
4710,-0.705,0.055
4711,-0.720,0.040
4712,-0.750,0.050
4713,-0.775,0.040
4714,-0.790,0.005
4715,-0.800,0.010
4716,-0.840,0.010
4717,-0.910,-0.005
4718,-0.960,0.000
4719,-1.015,-0.020
4720,-1.060,-0.030
4721,-1.095,-0.070
4722,-1.120,-0.115
4723,-1.175,-0.135
4724,-1.205,-0.140
4725,-1.255,-0.160
4726,-1.265,-0.150
4727,-1.285,-0.190
4728,-1.265,-0.220
4729,-1.250,-0.255
4730,-1.235,-0.245
4731,-1.180,-0.240
4732,-1.090,-0.255
4733,-0.990,-0.205
4734,-0.885,-0.160
4735,-0.780,-0.100
4736,-0.705,-0.055
4737,-0.635,-0.025
4738,-0.580,0.025
4739,-0.530,-0.020
4740,-0.470,0.000
4741,-0.430,0.010
4742,-0.435,0.045
4743,-0.430,0.035
4744,-0.425,0.040
4745,-0.415,0.050
4746,-0.435,0.050
4747,-0.435,0.030
4748,-0.420,0.005
4749,-0.440,-0.005
4750,-0.445,0.000
4751,-0.455,0.005
4752,-0.475,0.010
4753,-0.455,-0.020
4754,-0.425,-0.030
4755,-0.470,0.010
4756,-0.460,0.020
4757,-0.450,-0.030
4758,-0.470,0.040
4759,-0.445,0.000
4760,-0.430,-0.040
4761,-0.455,-0.040
4762,-0.490,-0.035
4763,-0.470,-0.015
4764,-0.465,-0.025
4765,-0.460,-0.080
4766,-0.460,-0.060
4767,-0.475,-0.065
4768,-0.485,-0.025
4769,-0.480,-0.040
4770,-0.465,-0.040
4771,-0.450,-0.035
4772,-0.430,-0.015
4773,-0.390,-0.010
4774,-0.335,-0.020
4775,-0.305,-0.010
4776,-0.295,0.075
4777,-0.310,0.070
4778,-0.320,0.000
4779,-0.315,-0.015
4780,-0.370,-0.075
4781,-0.400,-0.105
4782,-0.460,-0.150
4783,-0.505,-0.085
4784,-0.500,-0.090
4785,-0.480,-0.080
4786,-0.470,-0.105
4787,-0.400,-0.095
4788,-0.145,-0.055
4789,0.385,-0.020
4790,0.715,-0.095
4791,0.305,-0.660
4792,-1.330,-1.475
4793,-1.990,-2.105
4794,-1.675,-2.395
4795,-1.010,-1.900
4796,-0.670,-1.235
4797,-0.530,-0.610
4798,-0.505,-0.265
4799,-0.515,-0.105
4800,-0.540,-0.090
4801,-0.500,-0.075
4802,-0.520,-0.030
4803,-0.505,-0.010
4804,-0.480,0.005
4805,-0.520,-0.020
4806,-0.550,0.000
4807,-0.550,0.010
4808,-0.545,0.020
4809,-0.545,0.025
4810,-0.555,0.005
4811,-0.585,0.000
4812,-0.625,0.020
4813,-0.640,0.000
4814,-0.660,0.000
4815,-0.690,-0.005
4816,-0.680,-0.035
4817,-0.730,-0.070
4818,-0.835,-0.075
4819,-0.885,-0.095
4820,-0.930,-0.135
4821,-0.980,-0.100
4822,-0.970,-0.180
4823,-1.000,-0.215
4824,-1.045,-0.230
4825,-1.075,-0.240
4826,-1.045,-0.290
4827,-1.015,-0.300
4828,-0.975,-0.290
4829,-0.885,-0.300
4830,-0.820,-0.295
4831,-0.735,-0.265
4832,-0.670,-0.235
4833,-0.520,-0.180
4834,-0.445,-0.130
4835,-0.380,-0.090
4836,-0.325,-0.055
4837,-0.300,-0.075
4838,-0.285,-0.050
4839,-0.235,0.000
4840,-0.210,0.005
4841,-0.200,-0.010
4842,-0.235,0.000
4843,-0.215,-0.020
4844,-0.215,-0.030
4845,-0.220,-0.070
4846,-0.240,-0.055
4847,-0.220,-0.020
4848,-0.215,-0.030
4849,-0.210,-0.070
4850,-0.225,-0.080
4851,-0.255,-0.080
4852,-0.240,-0.045
4853,-0.215,-0.075
4854,-0.225,-0.055
4855,-0.240,-0.060
4856,-0.230,-0.070
4857,-0.235,-0.085
4858,-0.190,-0.100
4859,-0.175,-0.105
4860,-0.210,-0.090
4861,-0.230,-0.135
4862,-0.205,-0.120
4863,-0.190,-0.130
4864,-0.230,-0.095
4865,-0.250,-0.115
4866,-0.260,-0.125
4867,-0.205,-0.120
4868,-0.255,-0.110
4869,-0.270,-0.115
4870,-0.235,-0.130
4871,-0.150,-0.110
4872,-0.095,-0.095
4873,-0.095,-0.040
4874,-0.105,0.000
4875,-0.140,-0.015
4876,-0.130,-0.070
4877,-0.105,-0.110
4878,-0.130,-0.180
4879,-0.155,-0.210
4880,-0.210,-0.175
4881,-0.265,-0.140
4882,-0.275,-0.155
4883,-0.245,-0.150
4884,-0.205,-0.185
4885,-0.060,-0.140
4886,0.215,-0.065
4887,0.755,-0.015
4888,1.100,-0.100
4889,0.415,-0.575
4890,-1.010,-1.225
4891,-1.355,-1.695
4892,-1.065,-1.905
4893,-0.555,-1.620
4894,-0.120,-1.150
4895,0.015,-0.675
4896,0.085,-0.340
4897,0.115,-0.215
4898,0.105,-0.155
4899,0.095,-0.145
4900,0.060,-0.155
4901,0.090,-0.110
4902,0.090,-0.135
4903,0.095,-0.125
4904,0.100,-0.095
4905,0.100,-0.100
4906,0.070,-0.105
4907,0.025,-0.095
4908,-0.015,-0.110
4909,0.000,-0.105
4910,0.005,-0.095
4911,-0.030,-0.110
4912,-0.085,-0.115
4913,-0.145,-0.130
4914,-0.210,-0.125
4915,-0.225,-0.145
4916,-0.280,-0.165
4917,-0.295,-0.210
4918,-0.355,-0.230
4919,-0.425,-0.235
4920,-0.470,-0.270
4921,-0.520,-0.275
4922,-0.520,-0.300
4923,-0.525,-0.325
4924,-0.555,-0.350
4925,-0.565,-0.360
4926,-0.535,-0.385
4927,-0.485,-0.395
4928,-0.395,-0.390
4929,-0.305,-0.370
4930,-0.180,-0.300
4931,-0.115,-0.235
4932,-0.055,-0.225
4933,0.015,-0.160
4934,0.090,-0.140
4935,0.160,-0.125
4936,0.180,-0.065
4937,0.200,-0.065
4938,0.215,-0.025
4939,0.230,-0.035
4940,0.220,-0.010
4941,0.230,-0.010
4942,0.235,-0.020
4943,0.200,-0.050
4944,0.175,-0.075
4945,0.170,-0.065
4946,0.155,-0.070
4947,0.135,-0.070
4948,0.065,-0.040
4949,-0.010,-0.065
4950,-0.025,-0.080
4951,-0.020,-0.060
4952,-0.040,-0.090
4953,-0.020,-0.080
4954,-0.040,-0.065
4955,-0.045,-0.070
4956,-0.055,-0.100
4957,-0.055,-0.100
4958,-0.085,-0.130
4959,-0.100,-0.095
4960,-0.085,-0.110
4961,-0.090,-0.080
4962,-0.105,-0.095
4963,-0.225,-0.090
4964,-0.280,-0.105
4965,-0.280,-0.125
4966,-0.290,-0.105
4967,-0.255,-0.100
4968,-0.255,-0.100
4969,-0.225,-0.095
4970,-0.205,-0.095
4971,-0.180,-0.085
4972,-0.140,0.000
4973,-0.105,0.035
4974,-0.120,-0.040
4975,-0.115,-0.105
4976,-0.180,-0.155
4977,-0.245,-0.180
4978,-0.280,-0.180
4979,-0.335,-0.135
4980,-0.345,-0.125
4981,-0.340,-0.125
4982,-0.325,-0.145
4983,-0.260,-0.140
4984,-0.085,-0.100
4985,0.380,-0.015
4986,0.725,-0.045
4987,0.600,-0.405
4988,-0.850,-1.140
4989,-1.820,-1.715
4990,-1.725,-2.145
4991,-1.145,-1.955
4992,-0.670,-1.435
4993,-0.470,-0.840
4994,-0.450,-0.415
4995,-0.445,-0.200
4996,-0.460,-0.140
4997,-0.405,-0.100
4998,-0.400,-0.105
4999,-0.415,-0.100
5000,-0.430,-0.090
5001,-0.445,-0.085
5002,-0.470,-0.090
5003,-0.495,-0.075
5004,-0.495,-0.105
5005,-0.495,-0.065
5006,-0.510,-0.085
5007,-0.550,-0.090
5008,-0.585,-0.085
5009,-0.630,-0.070
5010,-0.650,-0.095
5011,-0.695,-0.115
5012,-0.725,-0.085
5013,-0.790,-0.160
5014,-0.855,-0.155
5015,-0.905,-0.195
5016,-0.950,-0.215
5017,-0.970,-0.230
5018,-1.005,-0.260
5019,-1.055,-0.300
5020,-1.110,-0.300
5021,-1.150,-0.335
5022,-1.175,-0.365
5023,-1.150,-0.365
5024,-1.095,-0.400
5025,-1.050,-0.420
5026,-0.980,-0.445
5027,-0.915,-0.410
5028,-0.785,-0.385
5029,-0.675,-0.345
5030,-0.565,-0.260
5031,-0.490,-0.195
5032,-0.430,-0.155
5033,-0.360,-0.145
5034,-0.360,-0.090
5035,-0.300,-0.065
5036,-0.265,-0.030
5037,-0.255,0.000
5038,-0.295,0.015
5039,-0.305,0.030
5040,-0.320,-0.015
5041,-0.300,-0.045
5042,-0.275,-0.030
5043,-0.280,-0.040
5044,-0.295,-0.030
5045,-0.315,-0.030
5046,-0.350,-0.065
5047,-0.355,-0.065
5048,-0.320,-0.065
5049,-0.325,-0.040
5050,-0.305,-0.095
5051,-0.320,-0.060
5052,-0.320,-0.055
5053,-0.335,-0.075
5054,-0.310,-0.050
5055,-0.310,-0.040
5056,-0.310,-0.095
5057,-0.350,-0.070
5058,-0.315,-0.045
5059,-0.315,-0.080
5060,-0.295,-0.035
5061,-0.315,-0.070
5062,-0.305,-0.085
5063,-0.315,-0.070
5064,-0.310,-0.060
5065,-0.310,-0.070
5066,-0.280,-0.060
5067,-0.250,-0.045
5068,-0.180,0.000
5069,-0.155,0.005
5070,-0.165,0.040
5071,-0.140,0.055
5072,-0.175,0.025
5073,-0.145,0.015
5074,-0.170,-0.065
5075,-0.215,-0.105
5076,-0.300,-0.120
5077,-0.320,-0.070
5078,-0.355,-0.085
5079,-0.330,-0.070
5080,-0.305,-0.100
5081,-0.215,-0.060
5082,-0.100,-0.045
5083,0.365,0.010
5084,0.765,-0.015
5085,0.710,-0.415
5086,-0.690,-1.295
5087,-1.670,-1.915
5088,-1.510,-2.340
5089,-0.945,-2.165
5090,-0.560,-1.440
5091,-0.410,-0.755
5092,-0.370,-0.305
5093,-0.350,-0.110
5094,-0.380,-0.055
5095,-0.360,-0.055
5096,-0.340,-0.055
5097,-0.370,-0.060
5098,-0.340,0.000
5099,-0.340,0.005
5100,-0.380,0.005
5101,-0.395,-0.005
5102,-0.420,0.000
5103,-0.425,0.030
5104,-0.425,0.045
5105,-0.460,0.020
5106,-0.495,0.005
5107,-0.540,0.000
5108,-0.585,0.005
5109,-0.625,0.000
5110,-0.650,0.000
5111,-0.710,-0.025
5112,-0.770,-0.075
5113,-0.830,-0.125
5114,-0.880,-0.120
5115,-0.935,-0.165
5116,-0.955,-0.160
5117,-0.980,-0.200
5118,-1.005,-0.190
5119,-1.065,-0.215
5120,-1.060,-0.255
5121,-1.050,-0.290
5122,-0.975,-0.315
5123,-0.885,-0.315
5124,-0.795,-0.275
5125,-0.690,-0.230
5126,-0.630,-0.190
5127,-0.515,-0.165
5128,-0.415,-0.090
5129,-0.335,-0.070
5130,-0.295,-0.060
5131,-0.265,-0.015
5132,-0.245,0.020
5133,-0.230,0.020
5134,-0.200,0.020
5135,-0.180,0.020
5136,-0.195,0.025
5137,-0.220,0.100
5138,-0.255,0.035
5139,-0.265,-0.015
5140,-0.245,-0.030
5141,-0.245,0.000
5142,-0.240,-0.005
5143,-0.260,-0.005
5144,-0.310,-0.015
5145,-0.280,-0.025
5146,-0.305,-0.065
5147,-0.280,-0.010
5148,-0.240,-0.070
5149,-0.255,-0.050
5150,-0.280,-0.045
5151,-0.290,-0.045
5152,-0.310,-0.085
5153,-0.275,-0.075
5154,-0.245,-0.065
5155,-0.255,-0.070
5156,-0.260,-0.045
5157,-0.295,-0.070
5158,-0.295,-0.105
5159,-0.295,-0.085
5160,-0.265,-0.065
5161,-0.275,-0.080
5162,-0.270,-0.075
5163,-0.285,-0.040
5164,-0.245,-0.050
5165,-0.175,-0.090
5166,-0.095,-0.025
5167,-0.110,0.070
5168,-0.100,0.035
5169,-0.150,0.015
5170,-0.145,-0.010
5171,-0.205,-0.085
5172,-0.205,-0.115
5173,-0.230,-0.100
5174,-0.265,-0.080
5175,-0.330,-0.085
5176,-0.335,-0.090
5177,-0.315,-0.070
5178,-0.235,-0.080
5179,-0.055,-0.105
5180,0.400,-0.005
5181,0.790,-0.075
5182,0.785,-0.445
5183,-0.585,-1.285
5184,-1.740,-1.955
5185,-1.610,-2.400
5186,-1.010,-2.180
5187,-0.605,-1.485
5188,-0.440,-0.845
5189,-0.390,-0.380
5190,-0.400,-0.195
5191,-0.360,-0.115
5192,-0.325,-0.065
5193,-0.315,-0.060
5194,-0.340,-0.020
5195,-0.345,-0.010
5196,-0.385,0.000
5197,-0.355,0.000
5198,-0.335,-0.015
5199,-0.350,0.010
5200,-0.355,-0.005
5201,-0.370,0.000
5202,-0.385,0.030
5203,-0.385,0.010
5204,-0.395,0.000
5205,-0.460,0.005
5206,-0.515,0.000
5207,-0.560,-0.030
5208,-0.595,-0.055
5209,-0.655,-0.085
5210,-0.680,-0.075
5211,-0.740,-0.140
5212,-0.780,-0.165
5213,-0.835,-0.200
5214,-0.895,-0.220
5215,-0.935,-0.220
5216,-0.930,-0.245
5217,-0.945,-0.280
5218,-0.955,-0.300
5219,-0.935,-0.290
5220,-0.820,-0.315
5221,-0.725,-0.310
5222,-0.625,-0.270
5223,-0.495,-0.270
5224,-0.405,-0.210
5225,-0.340,-0.140
5226,-0.290,-0.095
5227,-0.230,-0.030
5228,-0.185,-0.050
5229,-0.140,-0.020
5230,-0.140,0.010
5231,-0.115,0.030
5232,-0.125,0.050
5233,-0.100,0.050
5234,-0.090,0.050
5235,-0.075,0.040
5236,-0.080,-0.015
5237,-0.075,0.010
5238,-0.095,0.005
5239,-0.085,0.000
5240,-0.100,-0.015
5241,-0.070,-0.020
5242,-0.060,-0.010
5243,-0.075,-0.015
5244,-0.115,-0.040
5245,-0.120,-0.030
5246,-0.135,-0.015
5247,-0.100,-0.010
5248,-0.090,-0.055
5249,-0.105,-0.075
5250,-0.095,-0.030
5251,-0.110,-0.065
5252,-0.110,-0.110
5253,-0.160,-0.065
5254,-0.140,-0.060
5255,-0.120,-0.070
5256,-0.130,-0.090
5257,-0.125,-0.090
5258,-0.125,-0.050
5259,-0.145,-0.075
5260,-0.130,-0.095
5261,-0.080,-0.095
5262,-0.110,-0.060
5263,-0.055,-0.045
5264,-0.025,-0.030
5265,-0.015,-0.020
5266,0.000,0.020
5267,0.025,0.000
5268,0.010,-0.035
5269,-0.010,-0.055
5270,-0.095,-0.110
5271,-0.105,-0.190
5272,-0.145,-0.180
5273,-0.205,-0.085
5274,-0.205,-0.080
5275,-0.190,-0.140
5276,-0.180,-0.155
5277,-0.075,-0.130
5278,0.240,-0.040
5279,0.810,0.015
5280,1.110,-0.055
5281,0.465,-0.490
5282,-1.020,-1.185
5283,-1.565,-1.715
5284,-1.385,-1.925
5285,-0.875,-1.715
5286,-0.415,-1.215
5287,-0.170,-0.745
5288,-0.090,-0.345
5289,-0.095,-0.200
5290,0.100,-0.125
5291,0.120,-0.100
5292,0.135,-0.090
5293,0.140,-0.065
5294,0.110,-0.025
5295,0.120,-0.105
5296,0.085,-0.105
5297,0.100,-0.085
5298,0.100,-0.065
5299,0.085,-0.015
5300,0.065,-0.040
5301,0.045,-0.065
5302,0.030,-0.075
5303,-0.015,-0.070
5304,-0.045,-0.075
5305,-0.070,-0.050
5306,-0.105,-0.050
5307,-0.205,-0.115
5308,-0.260,-0.135
5309,-0.335,-0.130
5310,-0.370,-0.220
5311,-0.390,-0.215
5312,-0.425,-0.230
5313,-0.475,-0.285
5314,-0.530,-0.240
5315,-0.565,-0.265
5316,-0.595,-0.325
5317,-0.550,-0.365
5318,-0.495,-0.385
5319,-0.455,-0.350
5320,-0.385,-0.365
5321,-0.315,-0.345
5322,-0.240,-0.335
5323,-0.130,-0.265
5324,0.000,-0.180
5325,0.050,-0.195
5326,0.105,-0.110
5327,0.140,-0.040
5328,0.165,-0.065
5329,0.210,-0.020
5330,0.260,0.000
5331,0.290,-0.010
5332,0.280,0.010
5333,0.255,0.000
5334,0.235,0.000
5335,0.255,0.085
5336,0.255,-0.010
5337,0.250,-0.030
5338,0.210,-0.010
5339,0.210,0.000
5340,0.145,-0.005
5341,0.175,0.010
5342,0.205,-0.035
5343,0.190,-0.010
5344,0.170,-0.045
5345,0.180,-0.020
5346,0.160,-0.010
5347,0.135,-0.025
5348,0.140,-0.060
5349,0.125,-0.035
5350,0.145,0.000
5351,0.145,-0.065
5352,0.120,-0.040
5353,0.110,-0.025
5354,0.075,-0.020
5355,0.070,-0.075
5356,0.080,-0.050
5357,0.095,-0.040
5358,0.065,-0.010
5359,0.065,-0.045
5360,0.070,-0.075
5361,0.100,-0.055
5362,0.175,-0.045
5363,0.225,-0.015
5364,0.230,0.080
5365,0.215,0.080
5366,0.195,0.055
5367,0.235,0.015
5368,0.205,-0.090
5369,0.155,-0.130
5370,0.095,-0.115
5371,0.035,-0.080
5372,0.015,-0.040
5373,0.000,-0.060
5374,0.020,-0.115
5375,0.065,-0.110
5376,0.115,-0.065
5377,0.530,0.050
5378,0.915,0.010
5379,0.890,-0.205
5380,-0.375,-0.890
5381,-1.370,-1.495
5382,-1.375,-1.870
5383,-0.960,-1.850
5384,-0.540,-1.395
5385,-0.330,-0.895
5386,-0.255,-0.415
5387,-0.235,-0.180
5388,-0.235,-0.140
5389,-0.255,-0.105
5390,-0.390,-0.080
5391,-0.420,-0.050
5392,-0.430,-0.055
5393,-0.420,0.000
5394,-0.445,-0.035
5395,-0.445,-0.090
5396,-0.500,-0.075
5397,-0.505,-0.050
5398,-0.520,-0.020
5399,-0.530,0.000
5400,-0.530,0.005
5401,-0.575,-0.010
5402,-0.635,-0.035
5403,-0.715,-0.095
5404,-0.780,-0.070
5405,-0.830,-0.085
5406,-0.870,-0.070
5407,-0.940,-0.115
5408,-0.980,-0.150
5409,-1.100,-0.185
5410,-1.130,-0.185
5411,-1.175,-0.185
5412,-1.190,-0.245
5413,-1.220,-0.280
5414,-1.240,-0.330
5415,-1.225,-0.365
5416,-1.205,-0.370
5417,-1.135,-0.380
5418,-1.055,-0.360
5419,-0.945,-0.350
5420,-0.840,-0.300
5421,-0.755,-0.305
5422,-0.675,-0.230
5423,-0.600,-0.160
5424,-0.520,-0.105
5425,-0.435,-0.020
5426,-0.390,0.000
5427,-0.375,0.005
5428,-0.380,0.050
5429,-0.355,0.060
5430,-0.335,0.025
5431,-0.350,0.060
5432,-0.355,0.070
5433,-0.375,0.035
5434,-0.405,0.020
5435,-0.405,0.040
5436,-0.400,0.045
5437,-0.385,0.060
5438,-0.410,0.030
5439,-0.405,0.045
5440,-0.430,0.040
5441,-0.440,0.020
5442,-0.430,0.000
5443,-0.400,0.005
5444,-0.420,0.035
5445,-0.435,0.060
5446,-0.465,0.020
5447,-0.495,0.000
5448,-0.480,0.035
5449,-0.445,0.020
5450,-0.450,0.020
5451,-0.460,0.000
5452,-0.460,0.025
5453,-0.460,0.035
5454,-0.475,0.035
5455,-0.450,0.035
5456,-0.440,0.040
5457,-0.420,0.020
5458,-0.420,0.050
5459,-0.370,0.045
5460,-0.300,0.035
5461,-0.250,0.100
5462,-0.240,0.155
5463,-0.265,0.145
5464,-0.285,0.090
5465,-0.290,0.045
5466,-0.315,0.005
5467,-0.345,-0.030
5468,-0.385,-0.090
5469,-0.430,-0.035
5470,-0.450,-0.020
5471,-0.445,-0.030
5472,-0.425,-0.005
5473,-0.285,-0.015
5474,0.045,0.025
5475,0.490,0.035
5476,0.675,-0.095
5477,0.000,-0.855
5478,-1.420,-1.645
5479,-1.820,-2.205
5480,-1.370,-2.340
5481,-0.810,-1.810
5482,-0.570,-1.100
5483,-0.525,-0.455
5484,-0.495,-0.110
5485,-0.515,-0.090
5486,-0.505,-0.040
5487,-0.465,0.000
5488,-0.465,0.015
5489,-0.500,0.045
5490,-0.505,0.015
5491,-0.485,0.055
5492,-0.525,0.055
5493,-0.495,0.005
5494,-0.520,0.015
5495,-0.540,0.065
5496,-0.580,0.080
5497,-0.625,0.045
5498,-0.615,0.045
5499,-0.630,0.055
5500,-0.660,0.090
5501,-0.725,0.065
5502,-0.790,0.055
5503,-0.855,0.000
5504,-0.910,-0.045
5505,-0.935,-0.080
5506,-1.005,-0.035
5507,-1.045,-0.135
5508,-1.095,-0.140
5509,-1.160,-0.110
5510,-1.185,-0.175
5511,-1.190,-0.190
5512,-1.145,-0.235
5513,-1.130,-0.290
5514,-1.060,-0.245
5515,-0.990,-0.230
5516,-0.905,-0.190
5517,-0.775,-0.210
5518,-0.640,-0.165
5519,-0.540,-0.100
5520,-0.465,-0.080
5521,-0.430,-0.050
5522,-0.385,0.010
5523,-0.345,0.015
5524,-0.295,0.055
5525,-0.255,0.070
5526,-0.285,0.100
5527,-0.275,0.135
5528,-0.265,0.030
5529,-0.290,0.030
5530,-0.270,0.025
5531,-0.250,0.060
5532,-0.265,0.045
5533,-0.295,0.045
5534,-0.315,0.030
5535,-0.320,0.005
5536,-0.295,0.000
5537,-0.285,0.015
5538,-0.265,0.020
5539,-0.310,0.055
5540,-0.330,0.055
5541,-0.320,-0.005
5542,-0.320,-0.035
5543,-0.290,-0.020
5544,-0.315,-0.020
5545,-0.295,0.020
5546,-0.295,0.025
5547,-0.310,-0.070
5548,-0.320,-0.045
5549,-0.310,-0.015
5550,-0.290,-0.040
5551,-0.285,-0.070
5552,-0.310,-0.040
5553,-0.325,0.010
5554,-0.325,-0.015
5555,-0.300,-0.070
5556,-0.260,-0.030
5557,-0.205,-0.010
5558,-0.145,-0.055
5559,-0.140,0.005
5560,-0.150,0.020
5561,-0.160,0.055
5562,-0.145,0.060
5563,-0.165,-0.085
5564,-0.215,-0.110
5565,-0.260,-0.075
5566,-0.320,-0.040
5567,-0.345,-0.060
5568,-0.340,-0.105
5569,-0.305,-0.045
5570,-0.280,-0.115
5571,-0.170,-0.090
5572,0.170,0.010
5573,0.680,0.000
5574,0.840,-0.240
5575,-0.140,-1.130
5576,-1.470,-1.845
5577,-1.640,-2.305
5578,-1.140,-2.220
5579,-0.680,-1.600
5580,-0.460,-0.880
5581,-0.355,-0.330
5582,-0.355,-0.115
5583,-0.335,-0.055
5584,-0.335,0.010
5585,-0.360,-0.015
5586,-0.340,0.000
5587,-0.315,0.020
5588,-0.300,0.055
5589,-0.340,0.055
5590,-0.350,0.075
5591,-0.395,0.095
5592,-0.395,0.045
5593,-0.405,0.065
5594,-0.415,0.070
5595,-0.430,0.025
5596,-0.480,0.045
5597,-0.525,0.065
5598,-0.570,0.050
5599,-0.600,0.005
5600,-0.635,-0.015
5601,-0.680,0.000
5602,-0.740,-0.010
5603,-0.820,-0.070
5604,-0.885,-0.065
5605,-0.910,-0.050
5606,-0.940,-0.210
5607,-0.950,-0.200
5608,-1.025,-0.215
5609,-1.025,-0.210
5610,-1.025,-0.235
5611,-0.980,-0.235
5612,-0.905,-0.275
5613,-0.785,-0.270
5614,-0.725,-0.275
5615,-0.600,-0.215
5616,-0.500,-0.130
5617,-0.405,-0.050
5618,-0.295,-0.015
5619,-0.165,-0.010
5620,-0.090,0.000
5621,-0.060,0.050
5622,-0.070,0.085
5623,-0.060,0.085
5624,0.000,0.100
5625,0.000,0.110
5626,0.000,0.120
5627,0.000,0.130
5628,0.005,0.040
5629,0.000,0.045
5630,0.000,0.050
5631,0.015,0.060
5632,0.000,0.025
5633,-0.010,0.010
5634,-0.025,0.030
5635,-0.055,0.000
5636,-0.045,-0.015
5637,-0.025,0.000
5638,0.005,0.025
5639,-0.015,0.000
5640,-0.025,-0.010
5641,-0.050,0.005
5642,-0.060,0.010
5643,-0.055,-0.055
5644,-0.050,-0.070
5645,-0.055,-0.050
5646,-0.045,-0.060
5647,-0.055,-0.060
5648,-0.080,-0.030
5649,-0.060,-0.005
5650,-0.025,-0.060
5651,-0.020,-0.065
5652,-0.005,-0.050
5653,-0.040,-0.045
5654,-0.015,-0.085
5655,0.065,-0.060
5656,0.125,-0.020
5657,0.140,0.075
5658,0.125,0.050
5659,0.090,0.065
5660,0.100,-0.060
5661,0.075,-0.080
5662,0.055,-0.105
5663,0.030,-0.155
5664,-0.015,-0.120
5665,-0.055,-0.080
5666,-0.045,-0.070
5667,-0.020,-0.080
5668,0.050,-0.100
5669,0.200,-0.060
5670,0.615,0.025
5671,1.060,0.000
5672,1.105,-0.250
5673,-0.165,-1.035
5674,-1.270,-1.690
5675,-1.220,-2.040
5676,-0.750,-1.935
5677,-0.320,-1.405
5678,-0.150,-0.815
5679,-0.100,-0.410
5680,-0.080,-0.155
5681,-0.050,-0.120
5682,-0.015,-0.030
5683,-0.005,0.000
5684,-0.040,-0.035
5685,-0.055,-0.075
5686,-0.070,-0.015
5687,-0.060,-0.030
5688,-0.060,-0.005
5689,-0.095,-0.030
5690,-0.125,0.035
5691,-0.140,-0.060
5692,-0.165,-0.070
5693,-0.170,-0.055
5694,-0.190,-0.015
5695,-0.265,-0.030
5696,-0.285,-0.035
5697,-0.340,-0.060
5698,-0.390,-0.075
5699,-0.430,-0.075
5700,-0.450,-0.130
5701,-0.505,-0.180
5702,-0.575,-0.225
5703,-0.640,-0.250
5704,-0.660,-0.235
5705,-0.685,-0.235
5706,-0.685,-0.305
5707,-0.665,-0.340
5708,-0.655,-0.340
5709,-0.645,-0.330
5710,-0.585,-0.375
5711,-0.460,-0.370
5712,-0.325,-0.275
5713,-0.240,-0.190
5714,-0.135,-0.185
5715,-0.070,-0.145
5716,0.000,-0.115
5717,0.045,-0.035
5718,0.110,0.035
5719,0.160,0.070
5720,0.190,0.045
5721,0.190,0.020
5722,0.175,0.010
5723,0.190,0.035
5724,0.210,0.050
5725,0.220,0.050
5726,0.210,0.085
5727,0.200,0.035
5728,0.170,0.040
5729,0.150,0.020
5730,0.160,-0.030
5731,0.150,-0.055
5732,0.150,-0.030
5733,0.160,0.000
5734,0.165,-0.005
5735,0.155,-0.010
5736,0.145,-0.015
5737,0.195,0.020
5738,0.210,0.000
5739,0.210,-0.030
5740,0.180,-0.010
5741,0.200,-0.060
5742,0.330,-0.080
5743,0.420,-0.085
5744,0.480,-0.050
5745,0.475,-0.020
5746,0.470,-0.070
5747,0.460,-0.070
5748,0.485,-0.005
5749,0.485,-0.085
5750,0.485,-0.100
5751,0.515,-0.070
5752,0.535,-0.040
5753,0.565,-0.010
5754,0.550,0.005
5755,0.560,0.020
5756,0.575,-0.025
5757,0.590,-0.005
5758,0.555,-0.080
5759,0.500,-0.120
5760,0.455,-0.140
5761,0.395,-0.130
5762,0.395,-0.105
5763,0.395,-0.115
5764,0.415,-0.150
5765,0.490,-0.140
5766,0.620,-0.030
5767,0.935,0.000
5768,1.280,-0.065
5769,1.280,-0.245
5770,0.315,-0.840
5771,-0.535,-1.455
5772,-0.615,-1.855
5773,-0.345,-1.795
5774,0.000,-1.290
5775,0.235,-0.820
5776,0.330,-0.440
5777,0.360,-0.250
5778,0.340,-0.155
5779,0.345,-0.115
5780,0.340,-0.105
5781,0.365,-0.120
5782,0.380,-0.075
5783,0.350,-0.070
5784,0.335,-0.110
5785,0.320,-0.130
5786,0.335,-0.100
5787,0.305,-0.045
5788,0.295,-0.045
5789,0.270,-0.090
5790,0.255,-0.055
5791,0.185,-0.040
5792,0.160,-0.080
5793,0.140,-0.085
5794,0.100,-0.095
5795,0.010,-0.140
5796,-0.020,-0.115
5797,-0.090,-0.125
5798,-0.160,-0.130
5799,-0.185,-0.225
5800,-0.215,-0.260
5801,-0.260,-0.260
5802,-0.320,-0.280
5803,-0.325,-0.280
5804,-0.325,-0.300
5805,-0.330,-0.315
5806,-0.285,-0.360
5807,-0.245,-0.310
5808,-0.155,-0.330
5809,-0.075,-0.340
5810,-0.015,-0.335
5811,0.080,-0.245
5812,0.180,-0.220
5813,0.265,-0.155
5814,0.320,-0.115
5815,0.380,-0.035
5816,0.410,-0.035
5817,0.445,-0.040
5818,0.440,-0.045
5819,0.490,-0.015
5820,0.475,-0.020
5821,0.455,-0.010
5822,0.435,0.035
5823,0.415,0.050
5824,0.400,-0.025
5825,0.410,-0.075
5826,0.390,-0.035
5827,0.390,0.005
5828,0.375,-0.015
5829,0.285,-0.005
5830,0.250,0.010
5831,0.250,0.000
5832,0.260,-0.065
5833,0.250,-0.005
5834,0.255,-0.030
5835,0.215,-0.020
5836,0.190,-0.060
5837,0.205,-0.045
5838,0.200,0.005
5839,0.195,0.005
5840,0.185,-0.020
5841,0.160,-0.060
5842,0.130,-0.035
5843,0.140,-0.005
5844,0.105,-0.055
5845,-0.005,-0.035
5846,-0.015,-0.025
5847,-0.010,-0.015
5848,-0.025,-0.005
5849,0.000,0.025
5850,0.045,-0.020
5851,0.085,0.010
5852,0.105,0.080
5853,0.090,0.120
5854,0.085,0.080
5855,0.085,0.010
5856,0.060,-0.040
5857,0.025,-0.050
5858,-0.010,-0.035
5859,-0.050,-0.045
5860,-0.090,-0.080
5861,-0.140,-0.105
5862,-0.100,-0.080
5863,-0.050,-0.085
5864,0.090,0.035
5865,0.430,0.105
5866,0.820,0.015
5867,0.910,-0.190
5868,0.270,-0.935
5869,-1.125,-1.545
5870,-1.450,-1.955
5871,-1.075,-2.095
5872,-0.550,-1.575
5873,-0.365,-0.945
5874,-0.245,-0.425
5875,-0.225,-0.185
5876,-0.190,-0.090
5877,-0.180,-0.075
5878,-0.200,-0.025
5879,-0.225,0.015
5880,-0.235,-0.010
5881,-0.220,0.000
5882,-0.250,0.020
5883,-0.260,0.015
5884,-0.285,0.030
5885,-0.300,-0.005
5886,-0.345,0.000
5887,-0.335,0.040
5888,-0.380,-0.010
5889,-0.410,0.000
5890,-0.430,-0.005
5891,-0.465,0.035
5892,-0.525,0.000
5893,-0.575,-0.070
5894,-0.620,-0.065
5895,-0.660,-0.105
5896,-0.720,-0.150
5897,-0.790,-0.155
5898,-0.855,-0.190
5899,-0.920,-0.210
5900,-0.965,-0.175
5901,-0.990,-0.240
5902,-0.985,-0.315
5903,-0.995,-0.320
5904,-0.995,-0.340
5905,-0.965,-0.370
5906,-0.890,-0.395
5907,-0.815,-0.350
5908,-0.695,-0.325
5909,-0.565,-0.270
5910,-0.490,-0.250
5911,-0.410,-0.230
5912,-0.330,-0.090
5913,-0.275,-0.025
5914,-0.205,-0.005
5915,-0.170,-0.010
5916,-0.150,-0.005
5917,-0.160,0.030
5918,-0.150,0.025
5919,-0.145,0.025
5920,-0.080,0.025
5921,-0.085,0.030
5922,-0.100,0.060
5923,-0.120,0.065
5924,-0.140,0.010
5925,-0.140,0.040
5926,-0.150,0.000
5927,-0.155,-0.010
5928,-0.170,-0.020
5929,-0.205,-0.010
5930,-0.210,-0.025
5931,-0.210,-0.035
5932,-0.190,-0.005
5933,-0.195,0.035
5934,-0.170,0.020
5935,-0.180,0.000
5936,-0.175,-0.045
5937,-0.175,-0.045
5938,-0.200,-0.030
5939,-0.170,-0.010
5940,-0.175,-0.020
5941,-0.195,-0.005
5942,-0.195,-0.010
5943,-0.195,0.015
5944,-0.200,-0.015
5945,-0.195,-0.085
5946,-0.180,-0.065
5947,-0.155,-0.035
5948,-0.125,-0.045
5949,-0.065,-0.030
5950,-0.010,0.030
5951,-0.040,0.065
5952,-0.005,0.085
5953,-0.010,0.050
5954,-0.020,0.030
5955,-0.070,-0.050
5956,-0.110,-0.130
5957,-0.135,-0.140
5958,-0.155,-0.050
5959,-0.195,-0.080
5960,-0.195,-0.070
5961,-0.170,-0.040
5962,-0.115,-0.070
5963,0.075,-0.025
5964,0.485,0.020
5965,0.780,-0.030
5966,0.710,-0.525
5967,-0.475,-1.395
5968,-1.415,-1.950
5969,-1.305,-2.370
5970,-0.795,-2.130
5971,-0.425,-1.405
5972,-0.300,-0.770
5973,-0.240,-0.300
5974,-0.245,-0.115
5975,-0.215,-0.050
5976,-0.215,0.000
5977,-0.175,0.025
5978,-0.145,0.015
5979,-0.140,0.020
5980,-0.160,0.030
5981,-0.180,0.045
5982,-0.195,0.075
5983,-0.180,0.005
5984,-0.195,0.005
5985,-0.225,0.040
5986,-0.235,0.025
5987,-0.290,0.065
5988,-0.325,0.025
5989,-0.355,0.015
5990,-0.400,0.045
5991,-0.445,-0.025
5992,-0.500,0.000
5993,-0.565,-0.060
5994,-0.615,-0.085
5995,-0.665,-0.065
5996,-0.700,-0.065
5997,-0.740,-0.110
5998,-0.795,-0.190
5999,-0.865,-0.215
6000,-0.885,-0.195
6001,-0.875,-0.260
6002,-0.835,-0.255
6003,-0.805,-0.235
6004,-0.745,-0.225
6005,-0.670,-0.260
6006,-0.550,-0.205
6007,-0.440,-0.215
6008,-0.355,-0.155
6009,-0.260,-0.100
6010,-0.200,0.005
6011,-0.165,0.015
6012,-0.135,0.000
6013,-0.085,0.035
6014,-0.050,0.100
6015,-0.015,0.025
6016,-0.040,0.015
6017,-0.030,0.080
6018,-0.020,0.095
6019,-0.035,0.010
6020,-0.040,0.025
6021,-0.015,0.055
6022,-0.030,0.000
6023,-0.035,0.030
6024,-0.065,0.055
6025,-0.095,-0.015
6026,-0.075,-0.025
6027,-0.060,-0.010
6028,-0.060,-0.035
6029,-0.055,-0.020
6030,-0.095,-0.040
6031,-0.115,-0.050
6032,-0.095,-0.040
6033,-0.085,0.000
6034,-0.070,-0.025
6035,-0.110,-0.080
6036,-0.135,-0.120
6037,-0.120,-0.070
6038,-0.115,-0.050
6039,-0.095,-0.075
6040,-0.090,-0.050
6041,-0.125,-0.065
6042,-0.135,-0.080
6043,-0.095,-0.050
6044,-0.110,-0.035
6045,-0.060,-0.125
6046,-0.005,-0.085
6047,0.025,-0.050
6048,0.020,0.000
6049,0.030,0.040
6050,0.030,0.030
6051,0.060,-0.025
6052,0.070,-0.050
6053,0.030,-0.125
6054,-0.035,-0.195
6055,-0.085,-0.155
6056,-0.110,-0.100
6057,-0.130,-0.120
6058,-0.095,-0.055
6059,-0.060,-0.150
6060,0.050,-0.175
6061,0.465,-0.020
6062,0.895,-0.095
6063,1.040,-0.335
6064,-0.035,-1.230
6065,-1.295,-1.875
6066,-1.370,-2.355
6067,-0.935,-2.370
6068,-0.470,-1.695
6069,-0.240,-0.945
6070,-0.185,-0.455
6071,-0.180,-0.230
6072,-0.160,-0.150
6073,-0.155,-0.105
6074,-0.185,-0.140
6075,-0.175,-0.110
6076,-0.175,-0.070
6077,-0.150,-0.090
6078,-0.200,-0.060
6079,-0.225,-0.020
6080,-0.240,-0.105
6081,-0.240,-0.085
6082,-0.275,-0.035
6083,-0.265,-0.135
6084,-0.285,-0.105
6085,-0.330,-0.105
6086,-0.395,-0.100
6087,-0.460,-0.075
6088,-0.485,-0.125
6089,-0.515,-0.205
6090,-0.565,-0.155
6091,-0.615,-0.200
6092,-0.705,-0.225
6093,-0.765,-0.270
6094,-0.785,-0.300
6095,-0.810,-0.285
6096,-0.850,-0.330
6097,-0.845,-0.400
6098,-0.875,-0.345
6099,-0.865,-0.355
6100,-0.815,-0.445
6101,-0.790,-0.435
6102,-0.675,-0.380
6103,-0.560,-0.295
6104,-0.465,-0.320
6105,-0.365,-0.285
6106,-0.265,-0.130
6107,-0.195,-0.130
6108,-0.095,-0.085
6109,-0.065,-0.115
6110,-0.040,-0.095
6111,-0.015,0.000
6112,-0.010,-0.015
6113,-0.005,-0.055
6114,0.000,-0.005
6115,0.020,-0.040
6116,-0.005,-0.055
6117,-0.005,-0.070
6118,-0.020,-0.070
6119,-0.020,-0.085
6120,-0.025,-0.050
6121,-0.015,-0.085
6122,-0.030,-0.105
6123,-0.060,-0.140
6124,-0.050,-0.080
6125,-0.030,-0.065
6126,-0.035,-0.165
6127,-0.030,-0.160
6128,-0.025,-0.120
6129,-0.080,-0.155
6130,-0.090,-0.130
6131,-0.075,-0.115
6132,-0.090,-0.115
6133,-0.085,-0.115
6134,-0.070,-0.155
6135,-0.085,-0.155
6136,-0.120,-0.180
6137,-0.105,-0.110
6138,-0.095,-0.110
6139,-0.080,-0.130
6140,-0.090,-0.155
6141,-0.100,-0.230
6142,-0.135,-0.175
6143,-0.100,-0.155
6144,-0.030,-0.120
6145,0.020,-0.100
6146,0.000,-0.015
6147,-0.015,0.000
6148,-0.085,-0.065
6149,-0.085,-0.135
6150,-0.130,-0.205
6151,-0.160,-0.270
6152,-0.210,-0.240
6153,-0.240,-0.175
6154,-0.270,-0.200
6155,-0.280,-0.235
6156,-0.270,-0.140
6157,-0.150,-0.160
6158,0.090,-0.185
6159,0.585,-0.165
6160,0.800,-0.245
6161,0.430,-0.805
6162,-1.165,-1.595
6163,-1.835,-2.155
6164,-1.550,-2.420
6165,-0.970,-1.965
6166,-0.650,-1.325
6167,-0.540,-0.780
6168,-0.500,-0.410
6169,-0.460,-0.230
6170,-0.440,-0.195
6171,-0.435,-0.170
6172,-0.430,-0.185
6173,-0.440,-0.185
6174,-0.460,-0.180
6175,-0.465,-0.130
6176,-0.445,-0.110
6177,-0.440,-0.150
6178,-0.445,-0.150
6179,-0.490,-0.140
6180,-0.490,-0.165
6181,-0.505,-0.145
6182,-0.505,-0.110
6183,-0.530,-0.135
6184,-0.575,-0.170
6185,-0.620,-0.140
6186,-0.680,-0.230
6187,-0.745,-0.245
6188,-0.775,-0.210
6189,-0.800,-0.295
6190,-0.860,-0.290
6191,-0.915,-0.295
6192,-1.000,-0.340
6193,-0.995,-0.325
6194,-1.035,-0.385
6195,-1.040,-0.480
6196,-1.020,-0.480
6197,-1.030,-0.450
6198,-1.020,-0.460
6199,-0.925,-0.460
6200,-0.830,-0.445
6201,-0.740,-0.420
6202,-0.645,-0.325
6203,-0.545,-0.305
6204,-0.470,-0.340
6205,-0.380,-0.240
6206,-0.315,-0.190
6207,-0.270,-0.155
6208,-0.235,-0.155
6209,-0.210,-0.095
6210,-0.235,-0.095
6211,-0.225,-0.050
6212,-0.230,-0.105
6213,-0.205,-0.145
6214,-0.170,-0.160
6215,-0.205,-0.130
6216,-0.215,-0.155
6217,-0.220,-0.150
6218,-0.255,-0.120
6219,-0.240,-0.130
6220,-0.195,-0.135
6221,-0.230,-0.180
6222,-0.225,-0.160
6223,-0.245,-0.125
6224,-0.220,-0.180
6225,-0.245,-0.195
6226,-0.200,-0.130
6227,-0.230,-0.125
6228,-0.200,-0.195
6229,-0.205,-0.165
6230,-0.255,-0.140
6231,-0.245,-0.200
6232,-0.225,-0.205
6233,-0.200,-0.205
6234,-0.155,-0.175
6235,-0.215,-0.175
6236,-0.225,-0.160
6237,-0.205,-0.160
6238,-0.210,-0.145
6239,-0.170,-0.200
6240,-0.130,-0.200
6241,-0.100,-0.185
6242,-0.065,-0.145
6243,-0.050,-0.130
6244,-0.020,-0.100
6245,0.000,-0.100
6246,-0.015,-0.130
6247,-0.050,-0.165
6248,-0.135,-0.240
6249,-0.125,-0.275
6250,-0.165,-0.235
6251,-0.170,-0.175
6252,-0.210,-0.255
6253,-0.195,-0.265
6254,-0.150,-0.215
6255,-0.045,-0.180
6256,0.310,-0.080
6257,0.840,-0.120
6258,1.085,-0.260
6259,0.155,-0.840
6260,-1.250,-1.515
6261,-1.545,-1.940
6262,-1.210,-2.020
6263,-0.695,-1.590
6264,-0.340,-1.105
6265,-0.160,-0.675
6266,-0.125,-0.335
6267,-0.140,-0.210
6268,-0.100,-0.235
6269,-0.095,-0.230
6270,-0.055,-0.180
6271,-0.085,-0.165
6272,-0.070,-0.200
6273,-0.090,-0.190
6274,-0.130,-0.200
6275,-0.120,-0.190
6276,-0.120,-0.125
6277,-0.125,-0.200
6278,-0.155,-0.175
6279,-0.180,-0.130
6280,-0.230,-0.140
6281,-0.270,-0.195
6282,-0.305,-0.200
6283,-0.360,-0.255
6284,-0.420,-0.195
6285,-0.520,-0.250
6286,-0.580,-0.320
6287,-0.620,-0.280
6288,-0.670,-0.310
6289,-0.695,-0.390
6290,-0.745,-0.395
6291,-0.770,-0.410
6292,-0.820,-0.395
6293,-0.845,-0.440
6294,-0.815,-0.530
6295,-0.850,-0.490
6296,-0.865,-0.460
6297,-0.810,-0.515
6298,-0.770,-0.505
6299,-0.665,-0.480
6300,-0.570,-0.395
6301,-0.450,-0.290
6302,-0.370,-0.325
6303,-0.330,-0.270
6304,-0.315,-0.235
6305,-0.250,-0.150
6306,-0.225,-0.130
6307,-0.190,-0.145
6308,-0.160,-0.110
6309,-0.170,-0.070
6310,-0.190,-0.100
6311,-0.220,-0.130
6312,-0.200,-0.145
6313,-0.190,-0.135
6314,-0.175,-0.120
6315,-0.185,-0.150
6316,-0.210,-0.165
6317,-0.215,-0.150
6318,-0.215,-0.160
6319,-0.220,-0.155
6320,-0.205,-0.155
6321,-0.235,-0.130
6322,-0.235,-0.150
6323,-0.250,-0.250
6324,-0.270,-0.220
6325,-0.285,-0.190
6326,-0.250,-0.180
6327,-0.260,-0.185
6328,-0.260,-0.145
6329,-0.275,-0.080
6330,-0.270,-0.190
6331,-0.240,-0.225
6332,-0.240,-0.210
6333,-0.235,-0.225
6334,-0.265,-0.205
6335,-0.265,-0.235
6336,-0.290,-0.210
6337,-0.235,-0.140
6338,-0.155,-0.125
6339,-0.060,-0.225
6340,-0.075,-0.175
6341,-0.060,-0.060
6342,-0.095,-0.095
6343,-0.085,-0.110
6344,-0.065,-0.170
6345,-0.095,-0.210
6346,-0.135,-0.275
6347,-0.195,-0.310
6348,-0.275,-0.255
6349,-0.290,-0.265
6350,-0.225,-0.245
6351,-0.160,-0.230
6352,-0.065,-0.225
6353,0.210,-0.160
6354,0.660,-0.205
6355,0.890,-0.325
6356,0.400,-1.115
6357,-1.190,-1.875
6358,-1.565,-2.415
6359,-1.150,-2.520
6360,-0.585,-2.035
6361,-0.300,-1.265
6362,-0.200,-0.695
6363,-0.130,-0.370
6364,-0.105,-0.265
6365,-0.120,-0.235
6366,-0.135,-0.195
6367,-0.130,-0.170
6368,-0.145,-0.125
6369,-0.145,-0.215
6370,-0.150,-0.200
6371,-0.125,-0.165
6372,-0.175,-0.155
6373,-0.190,-0.225
6374,-0.190,-0.210
6375,-0.170,-0.185
6376,-0.075,-0.155
6377,0.070,-0.125
6378,0.045,-0.095
6379,-0.060,-0.290
6380,-0.075,-0.220
6381,-0.125,-0.240
6382,-0.160,-0.270
6383,-0.200,-0.250
6384,-0.280,-0.250
6385,-0.310,-0.265
6386,-0.395,-0.255
6387,-0.440,-0.305
6388,-0.455,-0.375
6389,-0.425,-0.395
6390,-0.465,-0.440
6391,-0.485,-0.425
6392,-0.500,-0.410
6393,-0.455,-0.400
6394,-0.370,-0.415
6395,-0.200,-0.375
6396,-0.090,-0.365
6397,-0.055,-0.305
6398,0.045,-0.275
6399,0.100,-0.305
6400,0.180,-0.245
6401,0.245,-0.195
6402,0.310,-0.120
6403,0.315,-0.115
6404,0.350,-0.155
6405,0.340,-0.125
6406,0.360,-0.190
6407,0.400,-0.170
6408,0.400,-0.170
6409,0.350,-0.160
6410,0.350,-0.215
6411,0.345,-0.205
6412,0.330,-0.190
6413,0.320,-0.230
6414,0.350,-0.205
6415,0.315,-0.305
6416,0.310,-0.290
6417,0.280,-0.215
6418,0.285,-0.225
6419,0.295,-0.335
6420,0.295,-0.305
6421,0.295,-0.260
6422,0.250,-0.275
6423,0.260,-0.290
6424,0.215,-0.345
6425,0.215,-0.295
6426,0.245,-0.315
6427,0.255,-0.295
6428,0.220,-0.350
6429,0.285,-0.335
6430,0.250,-0.300
6431,0.225,-0.340
6432,0.215,-0.355
6433,0.230,-0.380
6434,0.280,-0.365
6435,0.260,-0.345
6436,0.305,-0.350
6437,0.300,-0.315
6438,0.380,-0.225
6439,0.390,-0.265
6440,0.415,-0.320
6441,0.365,-0.285
6442,0.405,-0.305
6443,0.315,-0.380
6444,0.290,-0.385
6445,0.215,-0.350
6446,0.235,-0.230
6447,0.205,-0.395
6448,0.155,-0.420
6449,0.175,-0.395
6450,0.235,-0.375
6451,0.365,-0.290
6452,0.830,-0.220
6453,1.310,-0.225
6454,1.360,-0.385
6455,0.200,-1.085
6456,-1.060,-1.675
6457,-1.125,-1.990
6458,-0.810,-2.030
6459,-0.325,-1.590
6460,-0.030,-1.120
6461,0.030,-0.695
6462,0.045,-0.445
6463,0.045,-0.400
6464,0.045,-0.390
6465,0.070,-0.360
6466,0.070,-0.285
6467,0.045,-0.290
6468,0.005,-0.275
6469,0.000,-0.335
6470,0.000,-0.305
6471,0.030,-0.225
6472,-0.010,-0.280
6473,-0.055,-0.330
6474,-0.090,-0.340
6475,-0.120,-0.320
6476,-0.150,-0.265
6477,-0.150,-0.275
6478,-0.210,-0.275
6479,-0.280,-0.275
6480,-0.365,-0.355
6481,-0.425,-0.395
6482,-0.475,-0.365
6483,-0.540,-0.345
6484,-0.560,-0.385
6485,-0.620,-0.360
6486,-0.710,-0.420
6487,-0.760,-0.465
6488,-0.800,-0.515
6489,-0.835,-0.495
6490,-0.790,-0.460
6491,-0.780,-0.520
6492,-0.770,-0.645
6493,-0.720,-0.585
6494,-0.675,-0.545
6495,-0.570,-0.505
6496,-0.440,-0.425
6497,-0.365,-0.440
6498,-0.290,-0.385
6499,-0.240,-0.360
6500,-0.195,-0.265
6501,-0.150,-0.295
6502,-0.105,-0.285
6503,-0.085,-0.165
6504,-0.215,-0.220
6505,-0.250,-0.210
6506,-0.260,-0.230
6507,-0.285,-0.175
6508,-0.290,-0.230
6509,-0.415,-0.235
6510,-0.430,-0.240
6511,-0.445,-0.260
6512,-0.480,-0.250
6513,-0.485,-0.235
6514,-0.485,-0.250
6515,-0.485,-0.215
6516,-0.505,-0.245
6517,-0.520,-0.285
6518,-0.530,-0.255
6519,-0.540,-0.265
6520,-0.520,-0.220
6521,-0.515,-0.265
6522,-0.535,-0.260
6523,-0.580,-0.220
6524,-0.580,-0.160
6525,-0.600,-0.300
6526,-0.590,-0.315
6527,-0.575,-0.305
6528,-0.565,-0.235
6529,-0.595,-0.225
6530,-0.655,-0.155
6531,-0.635,-0.185
6532,-0.645,-0.340
6533,-0.625,-0.310
6534,-0.605,-0.270
6535,-0.580,-0.250
6536,-0.550,-0.200
6537,-0.545,-0.275
6538,-0.575,-0.200
6539,-0.540,-0.125
6540,-0.550,-0.220
6541,-0.570,-0.285
6542,-0.610,-0.310
6543,-0.650,-0.340
6544,-0.685,-0.375
6545,-0.760,-0.315
6546,-0.795,-0.230
6547,-0.760,-0.215
6548,-0.745,-0.440
6549,-0.710,-0.390
6550,-0.560,-0.275
6551,-0.120,-0.195
6552,0.190,-0.285
6553,0.145,-0.800
6554,-1.210,-1.615
6555,-2.275,-2.520
