'sample interval','ECG0','ECG1'
'0.0078125 sec','mV','mV'
0,-0.055,-0.015
1,-0.020,-0.010
2,-0.005,-0.025
3,0.000,-0.040
4,0.060,-0.065
5,0.075,-0.055
6,0.105,-0.095
7,0.110,-0.120
8,0.145,-0.140
9,0.145,-0.150
10,0.125,-0.145
11,0.100,-0.150
12,0.050,-0.140
13,0.015,-0.135
14,-0.050,-0.110
15,-0.075,-0.085
16,-0.125,-0.040
17,-0.175,-0.020
18,-0.175,0.010
19,-0.205,0.025
20,-0.220,0.040
21,-0.210,0.035
22,-0.240,0.055
23,-0.240,0.050
24,-0.235,0.060
25,-0.255,0.075
26,-0.240,0.075
27,-0.265,0.070
28,-0.250,0.080
29,-0.260,0.070
30,-0.260,0.090
31,-0.265,0.090
32,-0.250,0.100
33,-0.250,0.100
34,-0.250,0.090
35,-0.250,0.100
36,-0.235,0.110
37,-0.230,0.105
38,-0.220,0.095
39,-0.225,0.105
40,-0.225,0.110
41,-0.240,0.105
42,-0.260,0.100
43,-0.250,0.105
44,-0.260,0.105
45,-0.260,0.125
46,-0.260,0.095
47,-0.270,0.100
48,-0.265,0.085
49,-0.280,0.125
50,-0.280,0.115
51,-0.290,0.115
52,-0.275,0.115
53,-0.285,0.100
54,-0.285,0.115
55,-0.285,0.115
56,-0.290,0.120
57,-0.295,0.105
58,-0.310,0.135
59,-0.300,0.115
60,-0.285,0.115
61,-0.300,0.115
62,-0.300,0.125
63,-0.300,0.140
64,-0.305,0.150
65,-0.310,0.145
66,-0.295,0.145
67,-0.310,0.160
68,-0.290,0.155
69,-0.300,0.165
70,-0.305,0.150
71,-0.320,0.175
72,-0.310,0.160
73,-0.305,0.175
74,-0.320,0.160
75,-0.295,0.150
76,-0.300,0.175
77,-0.275,0.185
78,-0.240,0.190
79,-0.220,0.210
80,-0.215,0.255
81,-0.215,0.265
82,-0.205,0.280
83,-0.240,0.215
84,-0.240,0.165
85,-0.230,0.145
86,-0.235,0.140
87,-0.250,0.150
88,-0.290,0.165
89,-0.310,0.195
90,-0.300,0.190
91,-0.305,0.200
92,-0.285,0.190
93,-0.295,0.200
94,-0.255,0.190
95,0.000,0.270
96,0.470,0.345
97,0.615,0.340
98,0.070,0.265
99,-0.300,0.295
100,-0.390,0.490
101,-0.440,0.830
102,-0.535,1.080
103,-0.575,1.015
104,-0.435,0.920
105,-0.310,0.855
106,-0.290,0.590
107,-0.270,0.410
108,-0.245,0.355
109,-0.230,0.335
110,-0.230,0.290
111,-0.220,0.265
112,-0.200,0.250
113,-0.185,0.250
114,-0.185,0.245
115,-0.160,0.230
116,-0.150,0.220
117,-0.125,0.235
118,-0.120,0.200
119,-0.105,0.210
120,-0.080,0.205
121,-0.055,0.190
122,-0.015,0.160
123,0.005,0.155
124,0.040,0.125
125,0.050,0.125
126,0.080,0.090
127,0.100,0.085
128,0.090,0.085
129,0.070,0.070
130,0.055,0.065
131,0.000,0.090
132,-0.030,0.090
133,-0.085,0.115
134,-0.125,0.140
135,-0.150,0.185
136,-0.180,0.220
137,-0.205,0.250
138,-0.230,0.260
139,-0.240,0.295
140,-0.260,0.285
141,-0.260,0.275
142,-0.270,0.285
143,-0.265,0.295
144,-0.275,0.305
145,-0.275,0.300
146,-0.265,0.305
147,-0.295,0.290
148,-0.285,0.305
149,-0.300,0.330
150,-0.275,0.325
151,-0.285,0.310
152,-0.275,0.315
153,-0.270,0.325
154,-0.275,0.350
155,-0.275,0.330
156,-0.275,0.340
157,-0.270,0.340
158,-0.275,0.340
159,-0.270,0.320
160,-0.290,0.315
161,-0.300,0.320
162,-0.310,0.330
163,-0.300,0.325
164,-0.320,0.325
165,-0.320,0.305
166,-0.325,0.315
167,-0.340,0.310
168,-0.320,0.295
169,-0.330,0.335
170,-0.330,0.335
171,-0.340,0.325
172,-0.340,0.335
173,-0.345,0.330
174,-0.325,0.345
175,-0.330,0.325
176,-0.335,0.335
177,-0.350,0.315
178,-0.335,0.330
179,-0.345,0.330
180,-0.365,0.325
181,-0.380,0.335
182,-0.365,0.340
183,-0.360,0.345
184,-0.350,0.355
185,-0.360,0.345
186,-0.355,0.335
187,-0.355,0.335
188,-0.355,0.335
189,-0.370,0.355
190,-0.360,0.345
191,-0.355,0.360
192,-0.350,0.350
193,-0.360,0.335
194,-0.350,0.340
195,-0.315,0.370
196,-0.300,0.365
197,-0.290,0.400
198,-0.280,0.410
199,-0.280,0.430
200,-0.310,0.355
201,-0.320,0.320
202,-0.290,0.325
203,-0.310,0.300
204,-0.320,0.305
205,-0.345,0.330
206,-0.390,0.370
207,-0.390,0.365
208,-0.360,0.345
209,-0.355,0.345
210,-0.360,0.360
211,-0.315,0.355
212,-0.050,0.405
213,0.435,0.510
214,0.595,0.485
215,0.040,0.385
216,-0.325,0.405
217,-0.430,0.610
218,-0.455,0.935
219,-0.570,1.195
220,-0.590,1.170
221,-0.485,1.080
222,-0.355,1.015
223,-0.330,0.735
224,-0.315,0.570
225,-0.285,0.505
226,-0.270,0.450
227,-0.260,0.425
228,-0.255,0.390
229,-0.260,0.365
230,-0.240,0.385
231,-0.225,0.350
232,-0.200,0.340
233,-0.185,0.335
234,-0.170,0.325
235,-0.165,0.320
236,-0.135,0.305
237,-0.110,0.295
238,-0.065,0.295
239,-0.045,0.260
240,-0.020,0.265
241,0.025,0.240
242,0.065,0.205
243,0.065,0.205
244,0.070,0.190
245,0.085,0.175
246,0.045,0.165
247,0.020,0.145
248,-0.015,0.150
249,-0.035,0.175
250,-0.085,0.190
251,-0.140,0.220
252,-0.185,0.230
253,-0.215,0.270
254,-0.245,0.280
255,-0.260,0.290
256,-0.265,0.315
257,-0.285,0.325
258,-0.290,0.355
259,-0.290,0.355
260,-0.295,0.350
261,-0.300,0.355
262,-0.300,0.345
263,-0.315,0.345
264,-0.295,0.345
265,-0.325,0.335
266,-0.300,0.335
267,-0.295,0.345
268,-0.315,0.325
269,-0.300,0.340
270,-0.285,0.335
271,-0.280,0.320
272,-0.280,0.310
273,-0.285,0.315
274,-0.270,0.300
275,-0.270,0.300
276,-0.275,0.300
277,-0.290,0.270
278,-0.300,0.290
279,-0.295,0.275
280,-0.290,0.270
281,-0.280,0.270
282,-0.315,0.280
283,-0.310,0.270
284,-0.305,0.250
285,-0.315,0.245
286,-0.315,0.255
287,-0.335,0.245
288,-0.330,0.235
289,-0.345,0.255
290,-0.320,0.240
291,-0.340,0.230
292,-0.345,0.235
293,-0.335,0.245
294,-0.330,0.225
295,-0.340,0.230
296,-0.355,0.230
297,-0.340,0.240
298,-0.325,0.230
299,-0.340,0.230
300,-0.330,0.225
301,-0.340,0.225
302,-0.350,0.230
303,-0.345,0.235
304,-0.330,0.215
305,-0.335,0.225
306,-0.350,0.200
307,-0.350,0.205
308,-0.330,0.215
309,-0.335,0.215
310,-0.350,0.205
311,-0.310,0.215
312,-0.290,0.220
313,-0.285,0.245
314,-0.280,0.260
315,-0.275,0.280
316,-0.300,0.290
317,-0.300,0.225
318,-0.285,0.170
319,-0.300,0.140
320,-0.275,0.185
321,-0.305,0.160
322,-0.305,0.160
323,-0.390,0.175
324,-0.380,0.160
325,-0.360,0.165
326,-0.365,0.155
327,-0.365,0.170
328,-0.375,0.165
329,-0.225,0.200
330,0.185,0.285
331,0.580,0.295
332,0.435,0.255
333,-0.140,0.180
334,-0.420,0.265
335,-0.445,0.500
336,-0.535,0.830
337,-0.585,0.995
338,-0.595,0.900
339,-0.465,0.850
340,-0.360,0.785
341,-0.320,0.475
342,-0.310,0.340
343,-0.290,0.300
344,-0.275,0.240
345,-0.250,0.210
346,-0.250,0.200
347,-0.240,0.160
348,-0.210,0.170
349,-0.205,0.150
350,-0.185,0.140
351,-0.170,0.125
352,-0.155,0.110
353,-0.140,0.110
354,-0.110,0.095
355,-0.090,0.085
356,-0.065,0.065
357,-0.015,0.075
358,0.015,0.040
359,0.020,-0.005
360,0.060,-0.010
361,0.085,-0.030
362,0.080,-0.040
363,0.105,-0.060
364,0.090,-0.085
365,0.060,-0.075
366,0.015,-0.070
367,-0.015,-0.060
368,-0.070,-0.045
369,-0.110,-0.005
370,-0.150,0.000
371,-0.175,0.030
372,-0.185,0.055
373,-0.220,0.080
374,-0.220,0.090
375,-0.245,0.085
376,-0.235,0.100
377,-0.235,0.080
378,-0.245,0.105
379,-0.235,0.085
380,-0.250,0.105
381,-0.260,0.085
382,-0.250,0.090
383,-0.255,0.085
384,-0.260,0.070
385,-0.255,0.100
386,-0.245,0.090
387,-0.230,0.085
388,-0.245,0.085
389,-0.205,0.085
390,-0.210,0.095
391,-0.205,0.065
392,-0.230,0.080
393,-0.225,0.070
394,-0.210,0.065
395,-0.220,0.075
396,-0.225,0.060
397,-0.225,0.065
398,-0.235,0.060
399,-0.230,0.050
400,-0.235,0.030
401,-0.265,0.035
402,-0.250,0.030
403,-0.245,0.005
404,-0.270,-0.005
405,-0.265,-0.010
406,-0.265,0.015
407,-0.265,0.000
408,-0.245,0.000
409,-0.270,0.000
410,-0.275,-0.010
411,-0.275,-0.015
412,-0.275,-0.010
413,-0.260,-0.015
414,-0.275,-0.025
415,-0.270,-0.025
416,-0.270,-0.020
417,-0.285,-0.025
418,-0.285,-0.030
419,-0.295,-0.005
420,-0.290,-0.035
421,-0.290,-0.040
422,-0.300,-0.040
423,-0.290,-0.015
424,-0.280,-0.040
425,-0.305,-0.050
426,-0.295,-0.065
427,-0.295,-0.050
428,-0.290,-0.055
429,-0.280,-0.075
430,-0.285,-0.070
431,-0.285,-0.050
432,-0.235,-0.040
433,-0.240,-0.050
434,-0.210,-0.025
435,-0.210,0.000
436,-0.200,0.005
437,-0.210,0.020
438,-0.230,-0.020
439,-0.245,-0.095
440,-0.225,-0.100
441,-0.220,-0.135
442,-0.245,-0.120
443,-0.275,-0.110
444,-0.310,-0.105
445,-0.310,-0.090
446,-0.325,-0.085
447,-0.310,-0.090
448,-0.305,-0.090
449,-0.310,-0.090
450,-0.225,-0.095
451,0.140,-0.015
452,0.575,0.010
453,0.580,0.005
454,0.000,-0.090
455,-0.310,-0.015
456,-0.355,0.200
457,-0.435,0.505
458,-0.560,0.710
459,-0.550,0.685
460,-0.385,0.650
461,-0.275,0.430
462,-0.265,0.125
463,-0.240,0.000
464,-0.235,-0.075
465,-0.210,-0.155
466,-0.200,-0.205
467,-0.190,-0.235
468,-0.195,-0.315
469,-0.155,-0.345
470,-0.155,-0.375
471,-0.140,-0.410
472,-0.130,-0.415
473,-0.105,-0.455
474,-0.085,-0.470
475,-0.060,-0.495
476,-0.030,-0.505
477,0.015,-0.520
478,0.035,-0.595
479,0.055,-0.670
480,0.090,-0.730
481,0.120,-0.755
482,0.135,-0.790
483,0.150,-0.860
484,0.135,-0.920
485,0.115,-0.945
486,0.075,-0.915
487,0.020,-1.000
488,0.000,-1.040
489,-0.075,-1.045
490,-0.095,-1.075
491,-0.145,-1.065
492,-0.155,-1.075
493,-0.165,-1.040
494,-0.200,-1.085
495,-0.210,-1.095
496,-0.215,-1.100
497,-0.205,-1.120
498,-0.205,-1.150
499,-0.220,-1.145
500,-0.210,-1.180
501,-0.230,-1.200
502,-0.215,-1.195
503,-0.225,-1.230
504,-0.225,-1.265
505,-0.235,-1.270
506,-0.215,-1.250
507,-0.200,-1.220
508,-0.205,-1.360
509,-0.215,-1.340
510,-0.200,-1.370
511,-0.195,-1.365
512,-0.185,-1.380
513,-0.195,-1.395
514,-0.185,-1.405
515,-0.190,-1.460
516,-0.215,-1.480
517,-0.210,-1.510
518,-0.220,-1.515
519,-0.210,-1.485
520,-0.235,-1.600
521,-0.235,-1.630
522,-0.230,-1.660
523,-0.240,-1.670
524,-0.245,-1.695
525,-0.255,-1.735
526,-0.255,-1.780
527,-0.240,-1.745
528,-0.255,-1.820
529,-0.265,-1.855
530,-0.245,-1.880
531,-0.265,-1.915
532,-0.260,-1.955
533,-0.275,-1.975
534,-0.275,-2.010
535,-0.280,-2.020
536,-0.260,-2.015
537,-0.275,-2.065
538,-0.275,-2.065
539,-0.290,-2.130
540,-0.280,-2.090
541,-0.270,-2.135
542,-0.280,-2.175
543,-0.280,-2.205
544,-0.290,-2.235
545,-0.280,-2.225
546,-0.280,-2.185
547,-0.280,-2.220
548,-0.275,-2.215
549,-0.270,-2.230
550,-0.265,-2.270
551,-0.225,-2.290
552,-0.225,-2.205
553,-0.190,-2.195
554,-0.185,-2.230
555,-0.190,-2.205
556,-0.190,-2.230
557,-0.220,-2.345
558,-0.215,-2.335
559,-0.235,-2.435
560,-0.235,-2.425
561,-0.255,-2.415
562,-0.295,-2.400
563,-0.305,-2.420
564,-0.310,-2.430
565,-0.305,-2.445
566,-0.300,-2.425
567,-0.290,-2.440
568,-0.220,-2.420
569,0.095,-2.360
570,0.550,-2.280
571,0.630,-2.315
572,0.035,-2.410
573,-0.300,-2.340
574,-0.375,-2.140
575,-0.420,-1.815
576,-0.525,-1.525
577,-0.575,-1.575
578,-0.425,-1.655
579,-0.290,-1.690
580,-0.270,-1.970
581,-0.260,-2.105
582,-0.240,-2.120
583,-0.235,-2.165
584,-0.220,-2.180
585,-0.195,-2.225
586,-0.185,-2.210
587,-0.190,-2.225
588,-0.165,-2.245
589,-0.150,-2.225
590,-0.150,-2.205
591,-0.135,-2.200
592,-0.120,-2.215
593,-0.065,-2.145
594,-0.050,-2.255
595,-0.035,-2.270
596,0.005,-2.260
597,0.055,-2.230
598,0.095,-2.265
599,0.105,-2.285
600,0.125,-2.275
601,0.145,-2.300
602,0.135,-2.325
603,0.125,-2.300
604,0.095,-2.280
605,0.065,-2.270
606,0.010,-2.190
607,-0.010,-2.250
608,-0.080,-2.230
609,-0.100,-2.145
610,-0.135,-2.050
611,-0.165,-2.100
612,-0.170,-2.140
613,-0.190,-2.140
614,-0.200,-2.130
615,-0.195,-2.115
616,-0.210,-2.095
617,-0.210,-2.080
618,-0.205,-2.130
619,-0.205,-2.105
620,-0.230,-2.100
621,-0.225,-2.090
622,-0.210,-2.080
623,-0.225,-2.055
624,-0.225,-2.100
625,-0.195,-2.050
626,-0.200,-1.995
627,-0.190,-2.040
628,-0.185,-2.095
629,-0.165,-2.055
630,-0.180,-2.060
631,-0.185,-2.035
632,-0.170,-2.025
633,-0.185,-2.045
634,-0.185,-2.045
635,-0.180,-1.990
636,-0.175,-2.010
637,-0.205,-2.010
638,-0.215,-1.980
639,-0.210,-1.950
640,-0.210,-1.980
641,-0.205,-2.015
642,-0.215,-1.970
643,-0.210,-1.990
644,-0.225,-1.950
645,-0.230,-1.955
646,-0.225,-1.990
647,-0.220,-1.955
648,-0.225,-1.970
649,-0.220,-1.970
650,-0.230,-1.950
651,-0.230,-1.940
652,-0.225,-1.895
653,-0.240,-1.945
654,-0.225,-1.930
655,-0.225,-1.940
656,-0.210,-1.925
657,-0.230,-1.900
658,-0.230,-1.890
659,-0.235,-1.895
660,-0.245,-1.860
661,-0.225,-1.850
662,-0.230,-1.855
663,-0.230,-1.840
664,-0.230,-1.825
665,-0.245,-1.855
666,-0.245,-1.805
667,-0.220,-1.780
668,-0.185,-1.730
669,-0.170,-1.760
670,-0.175,-1.740
671,-0.175,-1.670
672,-0.185,-1.650
673,-0.210,-1.670
674,-0.200,-1.710
675,-0.190,-1.715
676,-0.190,-1.665
677,-0.215,-1.655
678,-0.265,-1.710
679,-0.270,-1.715
680,-0.255,-1.650
681,-0.235,-1.640
682,-0.265,-1.695
683,-0.265,-1.635
684,-0.200,-1.520
685,0.215,-1.540
686,0.640,-1.535
687,0.570,-1.470
688,-0.015,-1.610
689,-0.290,-1.610
690,-0.345,-1.320
691,-0.410,-0.965
692,-0.520,-0.770
693,-0.515,-0.805
694,-0.395,-0.850
695,-0.300,-0.975
696,-0.270,-1.230
697,-0.235,-1.365
698,-0.240,-1.395
699,-0.200,-1.435
700,-0.225,-1.440
701,-0.230,-1.370
702,-0.215,-1.415
703,-0.175,-1.370
704,-0.150,-1.320
705,-0.090,-1.380
706,-0.180,-1.440
707,-0.175,-1.450
708,-0.115,-1.410
709,-0.130,-1.410
710,-0.150,-1.375
711,-0.090,-1.365
712,-0.075,-1.235
713,-0.055,-1.335
714,-0.010,-1.385
715,0.010,-1.410
716,0.035,-1.320
717,0.050,-1.315
718,0.050,-1.355
719,0.080,-1.355
720,0.025,-1.210
721,-0.060,-1.270
722,-0.085,-1.275
723,-0.170,-1.195
724,-0.195,-1.010
725,-0.220,-1.200
726,-0.240,-1.170
727,-0.220,-1.030
728,-0.245,-0.960
729,-0.325,-0.980
730,-0.385,-0.860
731,-0.350,-0.835
732,-0.340,-0.780
733,-0.365,-0.805
734,-0.300,-0.760
735,-0.325,-0.710
736,-0.335,-0.685
737,-0.295,-0.630
738,-0.325,-0.695
739,-0.370,-0.630
740,-0.350,-0.545
741,-0.315,-0.600
742,-0.360,-0.460
743,-0.305,-0.495
744,-0.330,-0.515
745,-0.280,-0.385
746,-0.295,-0.485
747,-0.370,-0.475
748,-0.380,-0.425
749,-0.340,-0.360
750,-0.360,-0.160
751,-0.320,-0.395
752,-0.305,-0.290
753,-0.285,-0.340
754,-0.255,-0.265
755,-0.365,-0.315
756,-0.430,-0.280
757,-0.375,-0.175
758,-0.375,0.015
759,-0.305,-0.105
760,-0.370,-0.355
761,-0.440,-0.170
762,-0.385,-0.160
763,-0.375,-0.110
764,-0.375,0.020
765,-0.335,-0.070
766,-0.395,0.145
767,-0.385,0.090
768,-0.395,0.070
769,-0.355,-0.015
770,-0.375,0.045
771,-0.400,-0.085
772,-0.340,0.125
773,-0.405,0.125
774,-0.435,0.355
775,-0.460,0.415
776,-0.410,0.150
777,-0.365,0.365
778,-0.415,0.250
779,-0.435,0.125
780,-0.390,0.225
781,-0.330,0.475
782,-0.410,0.280
783,-0.450,0.280
784,-0.300,0.680
785,-0.285,0.835
786,-0.340,0.305
787,-0.375,0.310
788,-0.400,0.445
789,-0.435,0.375
790,-0.415,0.405
791,-0.360,0.575
792,-0.370,0.600
793,-0.370,0.925
794,-0.390,0.575
795,-0.435,0.560
796,-0.405,0.460
797,-0.490,0.485
798,-0.480,0.390
799,-0.475,0.515
800,-0.465,0.645
801,-0.260,0.760
802,0.180,0.920
803,0.530,1.110
804,0.175,0.820
805,-0.345,0.460
806,-0.495,0.735
807,-0.580,1.010
808,-0.675,1.360
809,-0.750,1.475
810,-0.695,1.360
811,-0.510,1.470
812,-0.440,1.170
813,-0.445,0.895
814,-0.400,0.960
815,-0.360,0.820
816,-0.340,0.505
817,-0.380,0.550
818,-0.365,0.620
819,-0.370,0.625
820,-0.350,0.650
821,-0.350,0.620
822,-0.325,0.620
823,-0.310,0.575
824,-0.305,0.570
825,-0.260,0.710
826,-0.225,0.585
827,-0.220,0.395
828,-0.190,0.405
829,-0.175,0.420
830,-0.165,0.425
831,-0.105,0.415
832,-0.115,0.410
833,-0.150,0.405
834,-0.130,0.390
835,-0.130,0.500
836,-0.145,0.605
837,-0.170,0.200
838,-0.235,0.140
839,-0.295,0.190
840,-0.365,0.270
841,-0.415,0.315
842,-0.470,0.350
843,-0.510,0.370
844,-0.545,0.420
845,-0.575,0.530
846,-0.575,0.460
847,-0.590,0.345
848,-0.590,0.350
849,-0.615,0.385
850,-0.615,0.375
851,-0.605,0.370
852,-0.615,0.370
853,-0.630,0.405
854,-0.620,0.435
855,-0.605,0.555
856,-0.585,0.375
857,-0.570,0.335
858,-0.570,0.385
859,-0.560,0.355
860,-0.550,0.350
861,-0.555,0.350
862,-0.580,0.350
863,-0.580,0.375
864,-0.580,0.370
865,-0.565,0.410
866,-0.550,0.425
867,-0.540,0.395
868,-0.555,0.385
869,-0.550,0.385
870,-0.555,0.410
871,-0.575,0.410
872,-0.575,0.440
873,-0.565,0.420
874,-0.575,0.440
875,-0.570,0.465
876,-0.585,0.445
877,-0.570,0.480
878,-0.560,0.510
879,-0.560,0.510
880,-0.570,0.495
881,-0.560,0.535
882,-0.590,0.520
883,-0.610,0.530
884,-0.595,0.530
885,-0.580,0.580
886,-0.570,0.570
887,-0.615,0.575
888,-0.590,0.595
889,-0.595,0.615
890,-0.595,0.630
891,-0.580,0.620
892,-0.585,0.630
893,-0.585,0.635
894,-0.580,0.645
895,-0.580,0.635
896,-0.585,0.665
897,-0.590,0.655
898,-0.595,0.675
899,-0.580,0.675
900,-0.545,0.680
901,-0.540,0.715
902,-0.545,0.745
903,-0.520,0.785
904,-0.530,0.800
905,-0.540,0.760
906,-0.560,0.685
907,-0.555,0.665
908,-0.545,0.660
909,-0.550,0.670
910,-0.575,0.680
911,-0.615,0.705
912,-0.610,0.745
913,-0.620,0.745
914,-0.615,0.750
915,-0.600,0.765
916,-0.605,0.765
917,-0.540,0.805
918,-0.210,0.890
919,0.235,0.920
920,0.270,0.880
921,-0.330,0.770
922,-0.615,0.875
923,-0.670,1.120
924,-0.745,1.455
925,-0.825,1.700
926,-0.850,1.610
927,-0.710,1.510
928,-0.610,1.445
929,-0.575,1.155
930,-0.570,1.030
931,-0.545,0.975
932,-0.535,0.910
933,-0.525,0.880
934,-0.525,0.865
935,-0.510,0.835
936,-0.480,0.820
937,-0.465,0.815
938,-0.475,0.820
939,-0.465,0.810
940,-0.455,0.800
941,-0.410,0.805
942,-0.405,0.790
943,-0.385,0.780
944,-0.350,0.745
945,-0.315,0.725
946,-0.290,0.720
947,-0.250,0.685
948,-0.235,0.670
949,-0.220,0.660
950,-0.205,0.625
951,-0.210,0.620
952,-0.215,0.605
953,-0.245,0.610
954,-0.280,0.610
955,-0.320,0.600
956,-0.355,0.635
957,-0.405,0.660
958,-0.440,0.685
959,-0.475,0.755
960,-0.485,0.740
961,-0.515,0.765
962,-0.505,0.805
963,-0.530,0.825
964,-0.535,0.835
965,-0.525,0.830
966,-0.535,0.825
967,-0.530,0.840
968,-0.530,0.840
969,-0.550,0.840
970,-0.540,0.830
971,-0.545,0.840
972,-0.530,0.845
973,-0.530,0.875
974,-0.525,0.860
975,-0.510,0.880
976,-0.520,0.895
977,-0.495,0.870
978,-0.500,0.875
979,-0.500,0.880
980,-0.495,0.865
981,-0.510,0.870
982,-0.515,0.870
983,-0.505,0.885
984,-0.505,0.890
985,-0.510,0.865
986,-0.525,0.900
987,-0.520,0.880
988,-0.515,0.885
989,-0.505,0.880
990,-0.525,0.885
991,-0.520,0.880
992,-0.510,0.895
993,-0.515,0.880
994,-0.505,0.885
995,-0.500,0.860
996,-0.520,0.885
997,-0.510,0.875
998,-0.520,0.890
999,-0.490,0.880
1000,-0.505,0.865
1001,-0.505,0.870
1002,-0.505,0.875
1003,-0.495,0.875
1004,-0.510,0.880
1005,-0.500,0.860
1006,-0.495,0.875
1007,-0.510,0.855
1008,-0.500,0.860
1009,-0.485,0.855
1010,-0.485,0.865
1011,-0.480,0.850
1012,-0.485,0.855
1013,-0.470,0.840
1014,-0.475,0.840
1015,-0.455,0.845
1016,-0.430,0.860
1017,-0.410,0.890
1018,-0.390,0.925
1019,-0.395,0.930
1020,-0.390,0.945
1021,-0.425,0.850
1022,-0.415,0.825
1023,-0.410,0.780
1024,-0.425,0.790
1025,-0.430,0.810
1026,-0.465,0.800
1027,-0.495,0.805
1028,-0.490,0.820
1029,-0.480,0.790
1030,-0.485,0.800
1031,-0.465,0.805
1032,-0.460,0.805
1033,-0.240,0.840
1034,0.210,0.920
1035,0.500,0.915
1036,0.075,0.830
1037,-0.395,0.810
1038,-0.525,0.985
1039,-0.555,1.265
1040,-0.650,1.585
1041,-0.695,1.615
1042,-0.625,1.485
1043,-0.450,1.445
1044,-0.435,1.210
1045,-0.415,1.000
1046,-0.400,0.915
1047,-0.395,0.870
1048,-0.375,0.820
1049,-0.370,0.790
1050,-0.370,0.790
1051,-0.350,0.740
1052,-0.335,0.740
1053,-0.330,0.755
1054,-0.325,0.725
1055,-0.305,0.715
1056,-0.290,0.720
1057,-0.260,0.690
1058,-0.235,0.665
1059,-0.195,0.665
1060,-0.170,0.640
1061,-0.155,0.610
1062,-0.140,0.585
1063,-0.110,0.555
1064,-0.075,0.525
1065,-0.080,0.520
1066,-0.090,0.495
1067,-0.090,0.480
1068,-0.125,0.465
1069,-0.155,0.480
1070,-0.185,0.490
1071,-0.235,0.520
1072,-0.280,0.540
1073,-0.300,0.600
1074,-0.340,0.620
1075,-0.365,0.655
1076,-0.365,0.675
1077,-0.365,0.685
1078,-0.385,0.695
1079,-0.380,0.705
1080,-0.385,0.685
1081,-0.400,0.705
1082,-0.410,0.705
1083,-0.400,0.730
1084,-0.410,0.695
1085,-0.415,0.715
1086,-0.390,0.705
1087,-0.400,0.705
1088,-0.400,0.705
1089,-0.385,0.705
1090,-0.375,0.705
1091,-0.380,0.710
1092,-0.375,0.710
1093,-0.370,0.720
1094,-0.385,0.700
1095,-0.380,0.720
1096,-0.385,0.715
1097,-0.380,0.710
1098,-0.385,0.685
1099,-0.380,0.700
1100,-0.390,0.690
1101,-0.390,0.680
1102,-0.400,0.675
1103,-0.400,0.670
1104,-0.410,0.675
1105,-0.420,0.660
1106,-0.415,0.675
1107,-0.395,0.680
1108,-0.405,0.670
1109,-0.390,0.665
1110,-0.420,0.675
1111,-0.405,0.660
1112,-0.395,0.650
1113,-0.410,0.670
1114,-0.420,0.670
1115,-0.410,0.650
1116,-0.420,0.655
1117,-0.405,0.675
1118,-0.420,0.660
1119,-0.430,0.670
1120,-0.435,0.655
1121,-0.425,0.650
1122,-0.405,0.645
1123,-0.420,0.650
1124,-0.420,0.660
1125,-0.405,0.670
1126,-0.415,0.660
1127,-0.395,0.645
1128,-0.390,0.645
1129,-0.365,0.680
1130,-0.340,0.670
1131,-0.330,0.695
1132,-0.330,0.725
1133,-0.335,0.700
1134,-0.360,0.630
1135,-0.380,0.605
1136,-0.355,0.580
1137,-0.365,0.575
1138,-0.380,0.585
1139,-0.425,0.585
1140,-0.440,0.590
1141,-0.450,0.590
1142,-0.435,0.595
1143,-0.425,0.580
1144,-0.425,0.605
1145,-0.375,0.595
1146,-0.080,0.670
1147,0.385,0.710
1148,0.560,0.670
1149,0.020,0.570
1150,-0.370,0.600
1151,-0.490,0.770
1152,-0.500,1.045
1153,-0.605,1.355
1154,-0.660,1.350
1155,-0.570,1.260
1156,-0.425,1.210
1157,-0.400,0.960
1158,-0.365,0.765
1159,-0.360,0.675
1160,-0.350,0.630
1161,-0.335,0.600
1162,-0.325,0.565
1163,-0.320,0.560
1164,-0.295,0.535
1165,-0.310,0.525
1166,-0.270,0.505
1167,-0.260,0.505
1168,-0.235,0.495
1169,-0.220,0.470
1170,-0.195,0.460
1171,-0.180,0.460
1172,-0.150,0.420
1173,-0.110,0.400
1174,-0.115,0.375
1175,-0.070,0.370
1176,-0.050,0.315
1177,-0.030,0.310
1178,-0.010,0.285
1179,-0.010,0.275
1180,-0.045,0.250
1181,-0.080,0.255
1182,-0.115,0.275
1183,-0.155,0.270
1184,-0.210,0.310
1185,-0.250,0.320
1186,-0.280,0.340
1187,-0.300,0.380
1188,-0.325,0.380
1189,-0.330,0.390
1190,-0.355,0.420
1191,-0.355,0.420
1192,-0.375,0.425
1193,-0.375,0.450
1194,-0.360,0.425
1195,-0.370,0.440
1196,-0.365,0.450
1197,-0.385,0.425
1198,-0.365,0.430
1199,-0.370,0.440
1200,-0.360,0.445
1201,-0.350,0.435
1202,-0.365,0.450
1203,-0.335,0.430
1204,-0.345,0.440
1205,-0.355,0.420
1206,-0.345,0.435
1207,-0.350,0.425
1208,-0.325,0.415
1209,-0.340,0.400
1210,-0.330,0.410
1211,-0.340,0.415
1212,-0.355,0.395
1213,-0.350,0.405
1214,-0.350,0.395
1215,-0.345,0.390
1216,-0.355,0.375
1217,-0.365,0.375
1218,-0.365,0.380
1219,-0.375,0.365
1220,-0.370,0.360
1221,-0.370,0.370
1222,-0.370,0.380
1223,-0.375,0.365
1224,-0.375,0.350
1225,-0.365,0.355
1226,-0.365,0.350
1227,-0.390,0.370
1228,-0.370,0.355
1229,-0.355,0.345
1230,-0.370,0.345
1231,-0.355,0.345
1232,-0.350,0.335
1233,-0.360,0.330
1234,-0.355,0.330
1235,-0.355,0.325
1236,-0.350,0.345
1237,-0.355,0.315
1238,-0.340,0.335
1239,-0.340,0.325
1240,-0.340,0.325
1241,-0.295,0.305
1242,-0.285,0.330
1243,-0.260,0.365
1244,-0.270,0.385
1245,-0.270,0.385
1246,-0.290,0.310
1247,-0.300,0.280
1248,-0.295,0.250
1249,-0.300,0.250
1250,-0.300,0.265
1251,-0.335,0.285
1252,-0.365,0.275
1253,-0.345,0.295
1254,-0.360,0.275
1255,-0.340,0.285
1256,-0.325,0.270
1257,-0.310,0.300
1258,-0.030,0.345
1259,0.440,0.390
1260,0.705,0.380
1261,0.205,0.270
1262,-0.250,0.265
1263,-0.360,0.435
1264,-0.405,0.710
1265,-0.505,1.010
1266,-0.570,1.035
1267,-0.475,0.915
1268,-0.320,0.880
1269,-0.285,0.655
1270,-0.260,0.445
1271,-0.250,0.380
1272,-0.225,0.325
1273,-0.215,0.295
1274,-0.200,0.280
1275,-0.200,0.255
1276,-0.175,0.225
1277,-0.165,0.205
1278,-0.150,0.205
1279,-0.145,0.200
1280,-0.135,0.195
1281,-0.120,0.195
1282,-0.090,0.170
1283,-0.060,0.145
1284,-0.035,0.140
1285,-0.005,0.135
1286,0.025,0.115
1287,0.060,0.090
1288,0.075,0.070
1289,0.085,0.060
1290,0.125,0.005
1291,0.115,0.020
1292,0.125,-0.010
1293,0.085,-0.020
1294,0.055,-0.005
1295,0.010,-0.010
1296,-0.030,0.000
1297,-0.055,0.035
1298,-0.115,0.035
1299,-0.145,0.075
1300,-0.160,0.100
1301,-0.195,0.115
1302,-0.200,0.120
1303,-0.210,0.140
1304,-0.210,0.135
1305,-0.235,0.125
1306,-0.210,0.155
1307,-0.245,0.150
1308,-0.230,0.130
1309,-0.225,0.140
1310,-0.240,0.135
1311,-0.240,0.145
1312,-0.240,0.130
1313,-0.235,0.140
1314,-0.220,0.145
1315,-0.220,0.120
1316,-0.225,0.140
1317,-0.220,0.125
1318,-0.210,0.140
1319,-0.220,0.115
1320,-0.205,0.105
1321,-0.210,0.115
1322,-0.225,0.110
1323,-0.225,0.110
1324,-0.225,0.105
1325,-0.240,0.090
1326,-0.250,0.125
1327,-0.250,0.100
1328,-0.260,0.095
1329,-0.265,0.100
1330,-0.265,0.090
1331,-0.260,0.080
1332,-0.265,0.090
1333,-0.275,0.095
1334,-0.275,0.100
1335,-0.275,0.070
1336,-0.290,0.085
1337,-0.285,0.080
1338,-0.275,0.065
1339,-0.300,0.075
1340,-0.285,0.070
1341,-0.285,0.070
1342,-0.285,0.070
1343,-0.275,0.070
1344,-0.290,0.055
1345,-0.290,0.055
1346,-0.280,0.065
1347,-0.290,0.060
1348,-0.295,0.050
1349,-0.285,0.060
1350,-0.275,0.050
1351,-0.285,0.060
1352,-0.290,0.055
1353,-0.290,0.055
1354,-0.280,0.060
1355,-0.270,0.065
1356,-0.245,0.055
1357,-0.220,0.085
1358,-0.200,0.090
1359,-0.200,0.120
1360,-0.195,0.120
1361,-0.215,0.090
1362,-0.235,0.015
1363,-0.220,-0.025
1364,-0.220,-0.005
1365,-0.250,-0.005
1366,-0.265,-0.010
1367,-0.285,0.010
1368,-0.305,0.015
1369,-0.305,0.030
1370,-0.290,0.020
1371,-0.275,0.010
1372,-0.285,0.010
1373,-0.200,0.040
1374,0.155,0.115
1375,0.595,0.140
1376,0.560,0.115
1377,0.000,0.000
1378,-0.305,0.105
1379,-0.330,0.340
1380,-0.425,0.660
1381,-0.530,0.845
1382,-0.515,0.750
1383,-0.360,0.670
1384,-0.275,0.575
1385,-0.255,0.320
1386,-0.230,0.195
1387,-0.215,0.170
1388,-0.200,0.110
1389,-0.200,0.060
1390,-0.180,0.040
1391,-0.165,0.025
1392,-0.155,0.015
1393,-0.150,0.005
1394,-0.135,-0.005
1395,-0.130,0.000
1396,-0.110,-0.010
1397,-0.090,-0.035
1398,-0.075,-0.050
1399,-0.045,-0.070
1400,-0.035,-0.085
1401,0.000,-0.090
1402,0.040,-0.105
1403,0.055,-0.145
1404,0.085,-0.140
1405,0.090,-0.170
1406,0.120,-0.190
1407,0.125,-0.195
1408,0.105,-0.225
1409,0.080,-0.235
1410,0.070,-0.225
1411,0.015,-0.215
1412,-0.015,-0.215
1413,-0.050,-0.170
1414,-0.105,-0.140
1415,-0.115,-0.100
1416,-0.155,-0.070
1417,-0.160,-0.050
1418,-0.210,-0.040
1419,-0.205,-0.035
1420,-0.185,-0.030
1421,-0.215,-0.040
1422,-0.210,-0.025
1423,-0.200,-0.015
1424,-0.215,-0.035
1425,-0.215,-0.025
1426,-0.230,-0.010
1427,-0.215,-0.015
1428,-0.210,-0.025
1429,-0.210,-0.020
1430,-0.215,-0.015
1431,-0.230,-0.010
1432,-0.215,-0.020
1433,-0.215,-0.025
1434,-0.190,-0.025
1435,-0.205,-0.030
1436,-0.215,-0.030
1437,-0.210,-0.045
1438,-0.220,-0.045
1439,-0.220,-0.045
1440,-0.240,-0.055
1441,-0.235,-0.055
1442,-0.245,-0.055
1443,-0.260,-0.070
1444,-0.260,-0.070
1445,-0.255,-0.070
1446,-0.260,-0.075
1447,-0.270,-0.080
1448,-0.275,-0.085
1449,-0.285,-0.080
1450,-0.280,-0.085
1451,-0.295,-0.095
1452,-0.285,-0.075
1453,-0.275,-0.100
1454,-0.275,-0.095
1455,-0.270,-0.100
1456,-0.285,-0.095
1457,-0.285,-0.100
1458,-0.280,-0.095
1459,-0.290,-0.085
1460,-0.295,-0.085
1461,-0.305,-0.085
1462,-0.285,-0.105
1463,-0.300,-0.095
1464,-0.285,-0.095
1465,-0.300,-0.105
1466,-0.290,-0.090
1467,-0.280,-0.085
1468,-0.280,-0.090
1469,-0.285,-0.090
1470,-0.300,-0.105
1471,-0.290,-0.080
1472,-0.270,-0.085
1473,-0.235,-0.075
1474,-0.215,-0.040
1475,-0.225,-0.025
1476,-0.215,0.000
1477,-0.235,-0.015
1478,-0.245,-0.105
1479,-0.250,-0.135
1480,-0.240,-0.150
1481,-0.255,-0.140
1482,-0.270,-0.140
1483,-0.300,-0.120
1484,-0.345,-0.090
1485,-0.325,-0.080
1486,-0.320,-0.105
1487,-0.310,-0.090
1488,-0.300,-0.085
1489,-0.265,-0.085
1490,0.035,-0.020
1491,0.475,0.005
1492,0.605,-0.035
1493,0.010,-0.140
1494,-0.305,-0.060
1495,-0.385,0.135
1496,-0.445,0.435
1497,-0.545,0.730
1498,-0.545,0.660
1499,-0.445,0.575
1500,-0.320,0.515
1501,-0.280,0.235
1502,-0.270,0.105
1503,-0.255,0.045
1504,-0.240,0.010
1505,-0.225,-0.020
1506,-0.230,-0.045
1507,-0.200,-0.055
1508,-0.185,-0.075
1509,-0.185,-0.075
1510,-0.180,-0.070
1511,-0.175,-0.075
1512,-0.140,-0.080
1513,-0.110,-0.110
1514,-0.105,-0.110
1515,-0.080,-0.115
1516,-0.050,-0.140
1517,0.000,-0.160
1518,0.015,-0.180
1519,0.035,-0.200
1520,0.065,-0.230
1521,0.065,-0.230
1522,0.075,-0.275
1523,0.070,-0.285
1524,0.045,-0.275
1525,0.010,-0.270
1526,-0.015,-0.270
1527,-0.065,-0.260
1528,-0.100,-0.235
1529,-0.150,-0.205
1530,-0.165,-0.180
1531,-0.210,-0.150
1532,-0.230,-0.120
1533,-0.245,-0.120
1534,-0.260,-0.070
1535,-0.285,-0.085
1536,-0.260,-0.100
1537,-0.260,-0.065
1538,-0.275,-0.100
1539,-0.295,-0.075
1540,-0.285,-0.080
1541,-0.285,-0.070
1542,-0.275,-0.050
1543,-0.275,-0.065
1544,-0.275,-0.060
1545,-0.275,-0.065
1546,-0.280,-0.055
1547,-0.265,-0.050
1548,-0.280,-0.050
1549,-0.290,-0.050
1550,-0.280,-0.070
1551,-0.275,-0.070
1552,-0.285,-0.070
1553,-0.285,-0.080
1554,-0.280,-0.080
1555,-0.295,-0.085
1556,-0.275,-0.080
1557,-0.310,-0.085
1558,-0.305,-0.090
1559,-0.305,-0.085
1560,-0.315,-0.070
1561,-0.320,-0.085
1562,-0.325,-0.100
1563,-0.315,-0.105
1564,-0.320,-0.090
1565,-0.320,-0.085
1566,-0.335,-0.100
1567,-0.325,-0.105
1568,-0.325,-0.115
1569,-0.330,-0.120
1570,-0.330,-0.110
1571,-0.320,-0.115
1572,-0.340,-0.125
1573,-0.335,-0.120
1574,-0.340,-0.130
1575,-0.355,-0.130
1576,-0.340,-0.125
1577,-0.360,-0.135
1578,-0.345,-0.125
1579,-0.345,-0.150
1580,-0.360,-0.140
1581,-0.345,-0.165
1582,-0.350,-0.145
1583,-0.365,-0.150
1584,-0.345,-0.145
1585,-0.330,-0.130
1586,-0.300,-0.095
1587,-0.290,-0.115
1588,-0.290,-0.080
1589,-0.290,-0.055
1590,-0.300,-0.090
1591,-0.310,-0.160
1592,-0.305,-0.190
1593,-0.310,-0.195
1594,-0.310,-0.190
1595,-0.330,-0.180
1596,-0.375,-0.150
1597,-0.405,-0.135
1598,-0.385,-0.145
1599,-0.360,-0.155
1600,-0.375,-0.155
1601,-0.360,-0.145
1602,-0.350,-0.105
1603,-0.080,-0.060
1604,0.390,-0.025
1605,0.605,-0.060
1606,0.090,-0.155
1607,-0.340,-0.140
1608,-0.430,0.055
1609,-0.470,0.335
1610,-0.565,0.620
1611,-0.620,0.625
1612,-0.505,0.525
1613,-0.380,0.465
1614,-0.365,0.215
1615,-0.335,0.055
1616,-0.325,-0.010
1617,-0.310,-0.060
1618,-0.275,-0.090
1619,-0.295,-0.125
1620,-0.275,-0.125
1621,-0.275,-0.140
1622,-0.245,-0.145
1623,-0.235,-0.170
1624,-0.225,-0.160
1625,-0.195,-0.175
1626,-0.175,-0.195
1627,-0.170,-0.200
1628,-0.125,-0.200
1629,-0.095,-0.230
1630,-0.050,-0.255
1631,-0.020,-0.255
1632,0.000,-0.295
1633,0.005,-0.315
1634,0.030,-0.320
1635,0.030,-0.350
1636,0.030,-0.335
1637,0.000,-0.355
1638,-0.015,-0.360
1639,-0.065,-0.320
1640,-0.120,-0.305
1641,-0.175,-0.280
1642,-0.195,-0.255
1643,-0.250,-0.220
1644,-0.250,-0.195
1645,-0.275,-0.175
1646,-0.295,-0.155
1647,-0.300,-0.160
1648,-0.320,-0.135
1649,-0.305,-0.140
1650,-0.320,-0.145
1651,-0.325,-0.120
1652,-0.335,-0.120
1653,-0.315,-0.120
1654,-0.320,-0.120
1655,-0.335,-0.130
1656,-0.345,-0.115
1657,-0.335,-0.110
1658,-0.325,-0.110
1659,-0.320,-0.120
1660,-0.320,-0.125
1661,-0.310,-0.110
1662,-0.310,-0.100
1663,-0.305,-0.135
1664,-0.305,-0.100
1665,-0.305,-0.110
1666,-0.310,-0.115
1667,-0.300,-0.135
1668,-0.305,-0.150
1669,-0.320,-0.130
1670,-0.325,-0.130
1671,-0.325,-0.130
1672,-0.330,-0.130
1673,-0.340,-0.130
1674,-0.345,-0.130
1675,-0.340,-0.135
1676,-0.340,-0.145
1677,-0.350,-0.140
1678,-0.360,-0.130
1679,-0.350,-0.145
1680,-0.365,-0.150
1681,-0.350,-0.160
1682,-0.375,-0.145
1683,-0.375,-0.145
1684,-0.345,-0.135
1685,-0.355,-0.160
1686,-0.365,-0.150
1687,-0.360,-0.165
1688,-0.370,-0.160
1689,-0.375,-0.155
1690,-0.365,-0.145
1691,-0.380,-0.160
1692,-0.385,-0.145
1693,-0.375,-0.160
1694,-0.385,-0.145
1695,-0.380,-0.165
1696,-0.385,-0.165
1697,-0.390,-0.170
1698,-0.385,-0.150
1699,-0.365,-0.170
1700,-0.365,-0.150
1701,-0.325,-0.155
1702,-0.325,-0.130
1703,-0.310,-0.120
1704,-0.295,-0.095
1705,-0.335,-0.080
1706,-0.350,-0.190
1707,-0.345,-0.210
1708,-0.340,-0.240
1709,-0.340,-0.245
1710,-0.360,-0.225
1711,-0.380,-0.210
1712,-0.410,-0.195
1713,-0.420,-0.165
1714,-0.415,-0.190
1715,-0.405,-0.200
1716,-0.415,-0.200
1717,-0.405,-0.180
1718,-0.190,-0.130
1719,0.265,-0.050
1720,0.570,-0.085
1721,0.165,-0.150
1722,-0.335,-0.190
1723,-0.470,-0.015
1724,-0.500,0.265
1725,-0.605,0.590
1726,-0.680,0.605
1727,-0.590,0.485
1728,-0.440,0.455
1729,-0.400,0.220
1730,-0.390,0.045
1731,-0.365,-0.025
1732,-0.345,-0.070
1733,-0.335,-0.120
1734,-0.310,-0.135
1735,-0.310,-0.160
1736,-0.290,-0.160
1737,-0.285,-0.175
1738,-0.275,-0.170
1739,-0.245,-0.180
1740,-0.235,-0.190
1741,-0.220,-0.215
1742,-0.200,-0.205
1743,-0.180,-0.230
1744,-0.145,-0.230
1745,-0.120,-0.245
1746,-0.075,-0.295
1747,-0.060,-0.300
1748,-0.045,-0.335
1749,-0.020,-0.345
1750,0.000,-0.345
1751,0.005,-0.380
1752,0.000,-0.390
1753,-0.050,-0.395
1754,-0.075,-0.385
1755,-0.110,-0.365
1756,-0.150,-0.330
1757,-0.185,-0.315
1758,-0.245,-0.275
1759,-0.265,-0.225
1760,-0.290,-0.210
1761,-0.295,-0.195
1762,-0.300,-0.180
1763,-0.310,-0.170
1764,-0.305,-0.155
1765,-0.310,-0.145
1766,-0.315,-0.145
1767,-0.300,-0.135
1768,-0.320,-0.130
1769,-0.320,-0.140
1770,-0.335,-0.140
1771,-0.330,-0.120
1772,-0.320,-0.105
1773,-0.315,-0.125
1774,-0.320,-0.115
1775,-0.315,-0.125
1776,-0.310,-0.125
1777,-0.310,-0.115
1778,-0.285,-0.115
1779,-0.295,-0.135
1780,-0.290,-0.110
1781,-0.285,-0.130
1782,-0.300,-0.115
1783,-0.305,-0.130
1784,-0.325,-0.140
1785,-0.345,-0.140
1786,-0.345,-0.140
1787,-0.355,-0.130
1788,-0.345,-0.140
1789,-0.340,-0.135
1790,-0.340,-0.135
1791,-0.345,-0.145
1792,-0.335,-0.150
1793,-0.330,-0.135
1794,-0.350,-0.125
1795,-0.345,-0.150
1796,-0.355,-0.130
1797,-0.335,-0.135
1798,-0.345,-0.145
1799,-0.340,-0.140
1800,-0.370,-0.150
1801,-0.360,-0.145
1802,-0.360,-0.165
1803,-0.360,-0.170
1804,-0.360,-0.165
1805,-0.355,-0.160
1806,-0.355,-0.145
1807,-0.345,-0.165
1808,-0.365,-0.155
1809,-0.340,-0.160
1810,-0.350,-0.160
1811,-0.340,-0.155
1812,-0.350,-0.145
1813,-0.355,-0.170
1814,-0.355,-0.135
1815,-0.340,-0.165
1816,-0.350,-0.170
1817,-0.335,-0.140
1818,-0.300,-0.135
1819,-0.285,-0.135
1820,-0.270,-0.105
1821,-0.275,-0.060
1822,-0.275,-0.065
1823,-0.310,-0.130
1824,-0.320,-0.200
1825,-0.310,-0.235
1826,-0.310,-0.235
1827,-0.340,-0.215
1828,-0.365,-0.215
1829,-0.420,-0.195
1830,-0.415,-0.195
1831,-0.420,-0.180
1832,-0.405,-0.180
1833,-0.395,-0.190
1834,-0.405,-0.210
1835,-0.290,-0.160
1836,0.055,-0.100
1837,0.515,-0.045
1838,0.455,-0.110
1839,-0.150,-0.215
1840,-0.410,-0.100
1841,-0.465,0.115
1842,-0.550,0.445
1843,-0.630,0.650
1844,-0.635,0.560
1845,-0.495,0.490
1846,-0.380,0.385
1847,-0.360,0.120
1848,-0.355,0.000
1849,-0.340,-0.045
1850,-0.330,-0.080
1851,-0.320,-0.115
1852,-0.295,-0.145
1853,-0.295,-0.155
1854,-0.290,-0.170
1855,-0.260,-0.170
1856,-0.270,-0.195
1857,-0.240,-0.180
1858,-0.225,-0.220
1859,-0.215,-0.205
1860,-0.195,-0.210
1861,-0.165,-0.230
1862,-0.140,-0.255
1863,-0.095,-0.265
1864,-0.080,-0.300
1865,-0.060,-0.310
1866,-0.045,-0.330
1867,0.000,-0.345
1868,0.000,-0.380
1869,0.005,-0.375
1870,0.005,-0.420
1871,-0.025,-0.415
1872,-0.065,-0.415
1873,-0.095,-0.400
1874,-0.145,-0.360
1875,-0.190,-0.345
1876,-0.225,-0.315
1877,-0.245,-0.270
1878,-0.280,-0.235
1879,-0.300,-0.215
1880,-0.295,-0.200
1881,-0.315,-0.185
1882,-0.330,-0.175
1883,-0.315,-0.165
1884,-0.320,-0.175
1885,-0.335,-0.165
1886,-0.340,-0.170
1887,-0.350,-0.145
1888,-0.335,-0.140
1889,-0.330,-0.135
1890,-0.335,-0.150
1891,-0.325,-0.145
1892,-0.320,-0.140
1893,-0.320,-0.110
1894,-0.305,-0.125
1895,-0.295,-0.110
1896,-0.290,-0.115
1897,-0.290,-0.120
1898,-0.290,-0.105
1899,-0.305,-0.135
1900,-0.295,-0.115
1901,-0.305,-0.120
1902,-0.300,-0.115
1903,-0.305,-0.120
1904,-0.320,-0.125
1905,-0.305,-0.115
1906,-0.310,-0.115
1907,-0.320,-0.130
1908,-0.315,-0.130
1909,-0.315,-0.125
1910,-0.325,-0.125
1911,-0.320,-0.130
1912,-0.340,-0.125
1913,-0.340,-0.135
1914,-0.340,-0.135
1915,-0.340,-0.150
1916,-0.350,-0.130
1917,-0.340,-0.135
1918,-0.315,-0.120
1919,-0.335,-0.145
1920,-0.315,-0.125
1921,-0.325,-0.125
1922,-0.325,-0.135
1923,-0.310,-0.135
1924,-0.340,-0.135
1925,-0.330,-0.105
1926,-0.325,-0.135
1927,-0.325,-0.140
1928,-0.340,-0.130
1929,-0.330,-0.120
1930,-0.320,-0.135
1931,-0.335,-0.135
1932,-0.335,-0.120
1933,-0.325,-0.125
1934,-0.320,-0.140
1935,-0.300,-0.115
1936,-0.260,-0.110
1937,-0.265,-0.115
1938,-0.255,-0.080
1939,-0.250,-0.055
1940,-0.260,-0.050
1941,-0.270,-0.135
1942,-0.290,-0.155
1943,-0.275,-0.190
1944,-0.270,-0.175
1945,-0.305,-0.190
1946,-0.330,-0.180
1947,-0.345,-0.150
1948,-0.370,-0.145
1949,-0.355,-0.155
1950,-0.345,-0.160
1951,-0.350,-0.165
1952,-0.335,-0.145
1953,-0.100,-0.095
1954,0.335,-0.030
1955,0.575,-0.055
1956,0.120,-0.150
1957,-0.305,-0.170
1958,-0.405,0.020
1959,-0.465,0.295
1960,-0.555,0.595
1961,-0.625,0.610
1962,-0.520,0.485
1963,-0.375,0.490
1964,-0.320,0.210
1965,-0.305,0.015
1966,-0.300,-0.020
1967,-0.285,-0.065
1968,-0.290,-0.115
1969,-0.265,-0.140
1970,-0.245,-0.160
1971,-0.240,-0.180
1972,-0.230,-0.175
1973,-0.210,-0.190
1974,-0.195,-0.175
1975,-0.175,-0.175
1976,-0.160,-0.180
1977,-0.140,-0.205
1978,-0.110,-0.215
1979,-0.085,-0.240
1980,-0.050,-0.245
1981,-0.020,-0.275
1982,0.005,-0.270
1983,0.035,-0.300
1984,0.060,-0.320
1985,0.065,-0.335
1986,0.085,-0.360
1987,0.065,-0.375
1988,0.030,-0.375
1989,-0.005,-0.380
1990,-0.040,-0.365
1991,-0.090,-0.340
1992,-0.120,-0.325
1993,-0.180,-0.295
1994,-0.200,-0.270
1995,-0.230,-0.220
1996,-0.250,-0.200
1997,-0.260,-0.175
1998,-0.260,-0.170
1999,-0.270,-0.155
2000,-0.270,-0.165
2001,-0.275,-0.135
2002,-0.290,-0.165
2003,-0.280,-0.165
2004,-0.285,-0.140
2005,-0.295,-0.155
2006,-0.280,-0.140
2007,-0.285,-0.140
2008,-0.275,-0.140
2009,-0.280,-0.130
2010,-0.270,-0.120
2011,-0.280,-0.140
2012,-0.265,-0.150
2013,-0.270,-0.135
2014,-0.255,-0.140
2015,-0.260,-0.145
2016,-0.260,-0.140
2017,-0.270,-0.135
2018,-0.265,-0.150
2019,-0.265,-0.145
2020,-0.250,-0.150
2021,-0.260,-0.150
2022,-0.260,-0.145
2023,-0.275,-0.135
2024,-0.280,-0.145
2025,-0.280,-0.145
2026,-0.270,-0.155
2027,-0.275,-0.160
2028,-0.275,-0.155
2029,-0.280,-0.155
2030,-0.275,-0.130
2031,-0.260,-0.150
2032,-0.270,-0.155
2033,-0.270,-0.150
2034,-0.285,-0.155
2035,-0.280,-0.145
2036,-0.280,-0.170
2037,-0.285,-0.140
2038,-0.285,-0.140
2039,-0.280,-0.165
2040,-0.285,-0.155
2041,-0.280,-0.160
2042,-0.280,-0.165
2043,-0.270,-0.175
2044,-0.270,-0.160
2045,-0.290,-0.170
2046,-0.285,-0.160
2047,-0.285,-0.180
2048,-0.290,-0.170
2049,-0.275,-0.150
2050,-0.265,-0.170
2051,-0.280,-0.150
2052,-0.245,-0.150
2053,-0.210,-0.155
2054,-0.195,-0.135
2055,-0.180,-0.115
2056,-0.175,-0.085
2057,-0.190,-0.105
2058,-0.215,-0.175
2059,-0.215,-0.210
2060,-0.210,-0.225
2061,-0.205,-0.235
2062,-0.235,-0.220
2063,-0.255,-0.215
2064,-0.280,-0.200
2065,-0.300,-0.170
2066,-0.295,-0.190
2067,-0.280,-0.190
2068,-0.255,-0.175
2069,-0.235,-0.155
2070,-0.015,-0.130
2071,0.470,-0.050
2072,0.715,-0.085
2073,0.230,-0.190
2074,-0.220,-0.180
2075,-0.320,0.015
2076,-0.375,0.310
2077,-0.465,0.585
2078,-0.515,0.570
2079,-0.405,0.470
2080,-0.270,0.425
2081,-0.250,0.170
2082,-0.220,0.005
2083,-0.215,-0.055
2084,-0.200,-0.100
2085,-0.180,-0.155
2086,-0.165,-0.175
2087,-0.165,-0.195
2088,-0.145,-0.205
2089,-0.140,-0.230
2090,-0.130,-0.230
2091,-0.095,-0.230
2092,-0.100,-0.245
2093,-0.070,-0.265
2094,-0.040,-0.280
2095,-0.035,-0.280
2096,-0.005,-0.290
2097,0.025,-0.310
2098,0.050,-0.320
2099,0.075,-0.340
2100,0.095,-0.370
2101,0.130,-0.395
2102,0.125,-0.425
2103,0.135,-0.435
2104,0.130,-0.440
2105,0.090,-0.435
2106,0.055,-0.440
2107,0.010,-0.430
2108,-0.025,-0.425
2109,-0.070,-0.380
2110,-0.130,-0.355
2111,-0.165,-0.315
2112,-0.180,-0.300
2113,-0.200,-0.270
2114,-0.195,-0.255
2115,-0.200,-0.225
2116,-0.215,-0.245
2117,-0.220,-0.215
2118,-0.235,-0.235
2119,-0.230,-0.225
2120,-0.240,-0.220
2121,-0.250,-0.225
2122,-0.250,-0.210
2123,-0.245,-0.205
2124,-0.250,-0.220
2125,-0.235,-0.200
2126,-0.230,-0.200
2127,-0.245,-0.180
2128,-0.225,-0.190
2129,-0.220,-0.200
2130,-0.215,-0.205
2131,-0.215,-0.220
2132,-0.205,-0.205
2133,-0.220,-0.210
2134,-0.210,-0.200
2135,-0.215,-0.210
2136,-0.210,-0.200
2137,-0.225,-0.200
2138,-0.235,-0.210
2139,-0.235,-0.220
2140,-0.235,-0.210
2141,-0.255,-0.205
2142,-0.245,-0.210
2143,-0.245,-0.200
2144,-0.255,-0.215
2145,-0.245,-0.205
2146,-0.240,-0.210
2147,-0.240,-0.210
2148,-0.250,-0.210
2149,-0.230,-0.200
2150,-0.245,-0.210
2151,-0.255,-0.215
2152,-0.260,-0.210
2153,-0.245,-0.195
2154,-0.245,-0.205
2155,-0.260,-0.205
2156,-0.255,-0.190
2157,-0.240,-0.205
2158,-0.260,-0.210
2159,-0.250,-0.205
2160,-0.260,-0.190
2161,-0.260,-0.195
2162,-0.260,-0.205
2163,-0.255,-0.195
2164,-0.260,-0.200
2165,-0.265,-0.195
2166,-0.260,-0.180
2167,-0.250,-0.205
2168,-0.250,-0.200
2169,-0.235,-0.205
2170,-0.235,-0.205
2171,-0.215,-0.175
2172,-0.210,-0.150
2173,-0.190,-0.145
2174,-0.205,-0.120
2175,-0.215,-0.160
2176,-0.255,-0.250
2177,-0.230,-0.270
2178,-0.225,-0.280
2179,-0.245,-0.265
2180,-0.260,-0.265
2181,-0.290,-0.250
2182,-0.305,-0.225
2183,-0.295,-0.215
2184,-0.290,-0.240
2185,-0.280,-0.235
2186,-0.300,-0.215
2187,-0.250,-0.205
2188,0.045,-0.135
2189,0.520,-0.085
2190,0.625,-0.120
2191,0.055,-0.245
2192,-0.295,-0.190
2193,-0.350,0.045
2194,-0.430,0.365
2195,-0.520,0.620
2196,-0.560,0.545
2197,-0.410,0.435
2198,-0.280,0.390
2199,-0.265,0.105
2200,-0.225,-0.035
2201,-0.240,-0.075
2202,-0.235,-0.130
2203,-0.205,-0.170
2204,-0.195,-0.210
2205,-0.200,-0.205
2206,-0.185,-0.215
2207,-0.160,-0.230
2208,-0.145,-0.240
2209,-0.140,-0.235
2210,-0.120,-0.250
2211,-0.105,-0.270
2212,-0.080,-0.280
2213,-0.065,-0.290
2214,-0.025,-0.300
2215,0.000,-0.335
2216,0.015,-0.350
2217,0.035,-0.385
2218,0.080,-0.400
2219,0.095,-0.435
2220,0.100,-0.445
2221,0.100,-0.470
2222,0.075,-0.465
2223,0.045,-0.455
2224,0.000,-0.455
2225,-0.055,-0.450
2226,-0.100,-0.425
2227,-0.140,-0.375
2228,-0.175,-0.360
2229,-0.200,-0.335
2230,-0.215,-0.290
2231,-0.215,-0.275
2232,-0.240,-0.255
2233,-0.245,-0.255
2234,-0.250,-0.250
2235,-0.255,-0.245
2236,-0.255,-0.240
2237,-0.270,-0.265
2238,-0.260,-0.250
2239,-0.280,-0.245
2240,-0.260,-0.245
2241,-0.285,-0.250
2242,-0.265,-0.230
2243,-0.265,-0.220
2244,-0.260,-0.225
2245,-0.245,-0.235
2246,-0.250,-0.215
2247,-0.245,-0.220
2248,-0.255,-0.230
2249,-0.250,-0.215
2250,-0.250,-0.230
2251,-0.255,-0.230
2252,-0.270,-0.235
2253,-0.260,-0.230
2254,-0.260,-0.245
2255,-0.270,-0.245
2256,-0.295,-0.240
2257,-0.300,-0.235
2258,-0.290,-0.235
2259,-0.280,-0.250
2260,-0.295,-0.225
2261,-0.285,-0.230
2262,-0.310,-0.250
2263,-0.300,-0.210
2264,-0.290,-0.260
2265,-0.285,-0.230
2266,-0.280,-0.235
2267,-0.305,-0.245
2268,-0.300,-0.235
2269,-0.285,-0.240
2270,-0.300,-0.225
2271,-0.290,-0.235
2272,-0.280,-0.230
2273,-0.290,-0.235
2274,-0.290,-0.220
2275,-0.285,-0.245
2276,-0.280,-0.235
2277,-0.285,-0.225
2278,-0.285,-0.235
2279,-0.275,-0.230
2280,-0.270,-0.225
2281,-0.265,-0.245
2282,-0.270,-0.245
2283,-0.275,-0.225
2284,-0.275,-0.220
2285,-0.255,-0.230
2286,-0.260,-0.230
2287,-0.235,-0.205
2288,-0.220,-0.190
2289,-0.210,-0.160
2290,-0.205,-0.140
2291,-0.210,-0.140
2292,-0.245,-0.205
2293,-0.265,-0.260
2294,-0.235,-0.275
2295,-0.240,-0.285
2296,-0.255,-0.260
2297,-0.295,-0.250
2298,-0.335,-0.240
2299,-0.335,-0.240
2300,-0.325,-0.235
2301,-0.315,-0.230
2302,-0.315,-0.225
2303,-0.320,-0.240
2304,-0.170,-0.200
2305,0.240,-0.120
2306,0.615,-0.125
2307,0.365,-0.185
2308,-0.175,-0.270
2309,-0.365,-0.115
2310,-0.400,0.135
2311,-0.475,0.485
2312,-0.565,0.625
2313,-0.530,0.495
2314,-0.385,0.465
2315,-0.305,0.290
2316,-0.270,0.045
2317,-0.260,-0.045
2318,-0.240,-0.095
2319,-0.230,-0.155
2320,-0.220,-0.195
2321,-0.215,-0.200
2322,-0.215,-0.235
2323,-0.190,-0.235
2324,-0.190,-0.250
2325,-0.170,-0.255
2326,-0.165,-0.265
2327,-0.145,-0.270
2328,-0.135,-0.270
2329,-0.105,-0.295
2330,-0.090,-0.290
2331,-0.050,-0.320
2332,-0.020,-0.320
2333,0.030,-0.335
2334,0.060,-0.375
2335,0.070,-0.410
2336,0.070,-0.430
2337,0.060,-0.410
2338,0.040,-0.420
2339,0.005,-0.435
2340,-0.010,-0.430
2341,-0.070,-0.430
2342,-0.110,-0.430
2343,-0.160,-0.395
2344,-0.195,-0.350
2345,-0.240,-0.305
2346,-0.255,-0.255
2347,-0.285,-0.260
2348,-0.295,-0.250
2349,-0.310,-0.255
2350,-0.305,-0.245
2351,-0.315,-0.240
2352,-0.320,-0.270
2353,-0.315,-0.230
2354,-0.325,-0.200
2355,-0.325,-0.240
2356,-0.350,-0.210
2357,-0.345,-0.175
2358,-0.335,-0.200
2359,-0.335,-0.290
2360,-0.320,-0.260
2361,-0.340,-0.255
2362,-0.310,-0.250
2363,-0.315,-0.240
2364,-0.310,-0.240
2365,-0.325,-0.245
2366,-0.320,-0.220
2367,-0.295,-0.240
2368,-0.300,-0.160
2369,-0.300,-0.195
2370,-0.295,-0.300
2371,-0.325,-0.300
2372,-0.315,-0.310
2373,-0.335,-0.310
2374,-0.335,-0.320
2375,-0.325,-0.305
2376,-0.340,-0.300
2377,-0.325,-0.280
2378,-0.330,-0.320
2379,-0.330,-0.325
2380,-0.355,-0.345
2381,-0.350,-0.345
2382,-0.355,-0.335
2383,-0.365,-0.335
2384,-0.350,-0.355
2385,-0.330,-0.375
2386,-0.370,-0.360
2387,-0.350,-0.360
2388,-0.355,-0.320
2389,-0.345,-0.325
2390,-0.345,-0.325
2391,-0.320,-0.360
2392,-0.355,-0.335
2393,-0.355,-0.335
2394,-0.335,-0.325
2395,-0.320,-0.330
2396,-0.345,-0.335
2397,-0.350,-0.325
2398,-0.360,-0.330
2399,-0.345,-0.315
2400,-0.320,-0.300
2401,-0.295,-0.300
2402,-0.270,-0.270
2403,-0.260,-0.265
2404,-0.260,-0.240
2405,-0.285,-0.265
2406,-0.315,-0.320
2407,-0.280,-0.310
2408,-0.260,-0.290
2409,-0.230,-0.320
2410,-0.310,-0.335
2411,-0.355,-0.315
2412,-0.355,-0.310
2413,-0.335,-0.305
2414,-0.340,-0.320
2415,-0.325,-0.305
2416,-0.330,-0.325
2417,-0.260,-0.265
2418,0.090,-0.220
2419,0.565,-0.190
2420,0.600,-0.205
2421,0.005,-0.325
2422,-0.325,-0.225
2423,-0.405,-0.050
2424,-0.465,0.210
2425,-0.545,0.445
2426,-0.585,0.400
2427,-0.455,0.365
2428,-0.335,0.350
2429,-0.300,0.070
2430,-0.305,-0.075
2431,-0.270,-0.180
2432,-0.275,-0.215
2433,-0.215,-0.210
2434,-0.195,-0.260
2435,-0.240,-0.305
2436,-0.235,-0.320
2437,-0.220,-0.305
2438,-0.195,-0.315
2439,-0.175,-0.330
2440,-0.140,-0.335
2441,-0.125,-0.330
2442,-0.125,-0.365
2443,-0.065,-0.370
2444,-0.015,-0.365
2445,0.000,-0.385
2446,0.040,-0.395
2447,0.055,-0.440
2448,0.045,-0.445
2449,0.090,-0.450
2450,0.105,-0.450
2451,0.130,-0.465
2452,0.110,-0.485
2453,0.115,-0.485
2454,0.075,-0.490
2455,-0.045,-0.495
2456,-0.070,-0.460
2457,-0.145,-0.435
2458,-0.185,-0.415
2459,-0.210,-0.395
2460,-0.230,-0.350
2461,-0.295,-0.335
2462,-0.325,-0.295
2463,-0.350,-0.285
2464,-0.350,-0.305
2465,-0.355,-0.265
2466,-0.365,-0.265
2467,-0.350,-0.275
2468,-0.350,-0.270
2469,-0.365,-0.270
2470,-0.370,-0.255
2471,-0.345,-0.255
2472,-0.375,-0.245
2473,-0.355,-0.245
2474,-0.375,-0.240
2475,-0.375,-0.245
2476,-0.380,-0.260
2477,-0.360,-0.245
2478,-0.310,-0.240
2479,-0.280,-0.250
2480,-0.385,-0.265
2481,-0.370,-0.240
2482,-0.365,-0.225
2483,-0.385,-0.255
2484,-0.385,-0.255
2485,-0.380,-0.270
2486,-0.355,-0.240
2487,-0.355,-0.275
2488,-0.370,-0.245
2489,-0.365,-0.240
2490,-0.385,-0.240
2491,-0.390,-0.255
2492,-0.360,-0.240
2493,-0.410,-0.240
2494,-0.315,-0.245
2495,-0.340,-0.240
2496,-0.410,-0.240
2497,-0.415,-0.230
2498,-0.400,-0.240
2499,-0.345,-0.230
2500,-0.405,-0.230
2501,-0.405,-0.220
2502,-0.340,-0.255
2503,-0.390,-0.250
2504,-0.370,-0.250
2505,-0.330,-0.250
2506,-0.320,-0.220
2507,-0.305,-0.205
2508,-0.295,-0.185
2509,-0.310,-0.190
2510,-0.340,-0.260
2511,-0.340,-0.260
2512,-0.310,-0.265
2513,-0.300,-0.235
2514,-0.310,-0.250
2515,-0.400,-0.210
2516,-0.410,-0.215
2517,-0.375,-0.235
2518,-0.380,-0.255
2519,-0.390,-0.235
2520,-0.445,-0.250
2521,-0.385,-0.220
2522,-0.105,-0.170
2523,0.450,-0.100
2524,0.710,-0.110
2525,0.135,-0.185
2526,-0.355,-0.200
2527,-0.405,-0.070
2528,-0.470,0.180
2529,-0.575,0.375
2530,-0.595,0.410
2531,-0.465,0.435
2532,-0.315,0.385
2533,-0.310,0.120
2534,-0.285,-0.065
2535,-0.260,-0.125
2536,-0.255,-0.165
2537,-0.230,-0.215
2538,-0.245,-0.245
2539,-0.225,-0.260
2540,-0.185,-0.260
2541,-0.190,-0.240
2542,-0.155,-0.285
2543,-0.140,-0.300
2544,-0.140,-0.310
2545,-0.105,-0.315
2546,-0.040,-0.325
2547,0.000,-0.315
2548,0.040,-0.360
2549,0.005,-0.370
2550,0.035,-0.350
2551,0.080,-0.360
2552,0.110,-0.420
2553,0.155,-0.440
2554,0.185,-0.455
2555,0.170,-0.445
2556,0.135,-0.450
2557,0.095,-0.440
2558,0.065,-0.405
2559,0.000,-0.395
2560,-0.065,-0.430
2561,-0.105,-0.385
2562,-0.140,-0.330
2563,-0.210,-0.305
2564,-0.200,-0.290
2565,-0.205,-0.250
2566,-0.230,-0.250
2567,-0.240,-0.265
2568,-0.215,-0.215
2569,-0.210,-0.220
2570,-0.215,-0.220
2571,-0.200,-0.210
2572,-0.215,-0.165
2573,-0.210,-0.195
2574,-0.215,-0.195
2575,-0.205,-0.185
2576,-0.195,-0.180
2577,-0.170,-0.195
2578,-0.205,-0.220
2579,-0.225,-0.185
2580,-0.210,-0.190
2581,-0.200,-0.195
2582,-0.160,-0.190
2583,-0.170,-0.210
2584,-0.140,-0.165
2585,-0.135,-0.210
2586,-0.150,-0.210
2587,-0.160,-0.200
2588,-0.205,-0.225
2589,-0.190,-0.210
2590,-0.180,-0.200
2591,-0.190,-0.205
2592,-0.190,-0.240
2593,-0.195,-0.240
2594,-0.145,-0.240
2595,-0.195,-0.250
2596,-0.235,-0.245
2597,-0.240,-0.250
2598,-0.230,-0.240
2599,-0.190,-0.230
2600,-0.210,-0.235
2601,-0.230,-0.205
2602,-0.195,-0.235
2603,-0.210,-0.210
2604,-0.225,-0.260
2605,-0.175,-0.230
2606,-0.195,-0.220
2607,-0.225,-0.260
2608,-0.185,-0.250
2609,-0.225,-0.245
2610,-0.230,-0.235
2611,-0.245,-0.260
2612,-0.240,-0.255
2613,-0.225,-0.245
2614,-0.215,-0.250
2615,-0.200,-0.250
2616,-0.160,-0.210
2617,-0.140,-0.200
2618,-0.120,-0.245
2619,-0.135,-0.205
2620,-0.155,-0.175
2621,-0.185,-0.170
2622,-0.180,-0.290
2623,-0.195,-0.290
2624,-0.170,-0.275
2625,-0.190,-0.260
2626,-0.215,-0.250
2627,-0.240,-0.260
2628,-0.255,-0.235
2629,-0.225,-0.200
2630,-0.240,-0.215
2631,-0.235,-0.265
2632,-0.205,-0.275
2633,-0.130,-0.245
2634,0.235,-0.185
2635,0.720,-0.120
2636,0.555,-0.145
2637,-0.035,-0.210
2638,-0.290,-0.115
2639,-0.295,0.075
2640,-0.335,0.335
2641,-0.445,0.550
2642,-0.440,0.460
2643,-0.270,0.425
2644,-0.245,0.295
2645,-0.135,0.000
2646,-0.170,-0.070
2647,-0.150,-0.110
2648,-0.150,-0.160
2649,-0.115,-0.160
2650,-0.120,-0.190
2651,-0.110,-0.205
2652,-0.085,-0.245
2653,-0.075,-0.265
2654,-0.065,-0.275
2655,-0.005,-0.265
2656,-0.005,-0.275
2657,0.030,-0.280
2658,0.015,-0.300
2659,0.070,-0.310
2660,0.135,-0.305
2661,0.145,-0.335
2662,0.205,-0.345
2663,0.210,-0.395
2664,0.245,-0.380
2665,0.280,-0.380
2666,0.245,-0.430
2667,0.225,-0.430
2668,0.195,-0.405
2669,0.195,-0.390
2670,0.065,-0.385
2671,0.030,-0.370
2672,0.010,-0.360
2673,-0.020,-0.305
2674,-0.055,-0.255
2675,-0.040,-0.230
2676,-0.040,-0.245
2677,-0.040,-0.250
2678,-0.105,-0.225
2679,-0.120,-0.200
2680,-0.100,-0.215
2681,-0.075,-0.195
2682,-0.070,-0.205
2683,-0.115,-0.215
2684,-0.110,-0.195
2685,-0.110,-0.205
2686,-0.065,-0.190
2687,-0.060,-0.195
2688,-0.130,-0.175
2689,-0.100,-0.155
2690,-0.080,-0.190
2691,-0.085,-0.175
2692,-0.085,-0.165
2693,-0.085,-0.185
2694,-0.085,-0.185
2695,-0.075,-0.185
2696,-0.100,-0.220
2697,-0.075,-0.185
2698,-0.050,-0.190
2699,-0.070,-0.180
2700,-0.145,-0.195
2701,-0.140,-0.185
2702,-0.135,-0.195
2703,-0.105,-0.190
2704,-0.140,-0.200
2705,-0.135,-0.190
2706,-0.115,-0.205
2707,-0.105,-0.180
2708,-0.120,-0.220
2709,-0.155,-0.200
2710,-0.165,-0.185
2711,-0.160,-0.170
2712,-0.190,-0.225
2713,-0.175,-0.220
2714,-0.165,-0.215
2715,-0.145,-0.205
2716,-0.145,-0.195
2717,-0.140,-0.190
2718,-0.120,-0.215
2719,-0.180,-0.210
2720,-0.225,-0.210
2721,-0.210,-0.215
2722,-0.170,-0.200
2723,-0.200,-0.240
2724,-0.150,-0.215
2725,-0.150,-0.220
2726,-0.145,-0.225
2727,-0.125,-0.215
2728,-0.180,-0.235
2729,-0.175,-0.205
2730,-0.095,-0.180
2731,-0.120,-0.130
2732,-0.125,-0.155
2733,-0.180,-0.275
2734,-0.170,-0.305
2735,-0.075,-0.300
2736,-0.150,-0.310
2737,-0.190,-0.285
2738,-0.225,-0.280
2739,-0.275,-0.295
2740,-0.205,-0.285
2741,-0.200,-0.285
2742,-0.230,-0.295
2743,-0.230,-0.295
2744,-0.180,-0.265
2745,0.145,-0.215
2746,0.600,-0.145
2747,0.720,-0.160
2748,0.115,-0.265
2749,-0.245,-0.210
2750,-0.310,-0.040
2751,-0.360,0.235
2752,-0.410,0.490
2753,-0.510,0.510
2754,-0.345,0.425
2755,-0.210,0.380
2756,-0.220,0.085
2757,-0.185,-0.095
2758,-0.165,-0.135
2759,-0.210,-0.165
2760,-0.155,-0.235
2761,-0.130,-0.280
2762,-0.135,-0.265
2763,-0.150,-0.290
2764,-0.130,-0.300
2765,-0.120,-0.295
2766,-0.120,-0.325
2767,-0.090,-0.335
2768,-0.075,-0.340
2769,-0.065,-0.340
2770,-0.005,-0.340
2771,0.025,-0.350
2772,0.045,-0.365
2773,0.090,-0.385
2774,0.170,-0.410
2775,0.175,-0.420
2776,0.125,-0.445
2777,0.190,-0.440
2778,0.145,-0.450
2779,0.120,-0.465
2780,0.115,-0.465
2781,0.075,-0.455
2782,0.025,-0.435
2783,-0.020,-0.410
2784,-0.060,-0.390
2785,-0.100,-0.355
2786,-0.105,-0.305
2787,-0.140,-0.305
2788,-0.155,-0.280
2789,-0.170,-0.265
2790,-0.150,-0.230
2791,-0.160,-0.240
2792,-0.165,-0.255
2793,-0.180,-0.220
2794,-0.160,-0.225
2795,-0.150,-0.235
2796,-0.170,-0.195
2797,-0.155,-0.240
2798,-0.185,-0.230
2799,-0.125,-0.185
2800,-0.135,-0.175
2801,-0.130,-0.215
2802,-0.170,-0.200
2803,-0.115,-0.205
2804,-0.130,-0.175
2805,-0.120,-0.200
2806,-0.135,-0.200
2807,-0.145,-0.215
2808,-0.140,-0.190
2809,-0.130,-0.200
2810,-0.125,-0.200
2811,-0.135,-0.205
2812,-0.135,-0.200
2813,-0.135,-0.200
2814,-0.160,-0.200
2815,-0.140,-0.220
2816,-0.150,-0.220
2817,-0.155,-0.215
2818,-0.140,-0.205
2819,-0.145,-0.205
2820,-0.175,-0.210
2821,-0.175,-0.200
2822,-0.175,-0.195
2823,-0.165,-0.170
2824,-0.175,-0.200
2825,-0.185,-0.205
2826,-0.180,-0.195
2827,-0.165,-0.175
2828,-0.185,-0.170
2829,-0.180,-0.175
2830,-0.195,-0.155
2831,-0.185,-0.175
2832,-0.205,-0.175
2833,-0.170,-0.155
2834,-0.185,-0.165
2835,-0.190,-0.175
2836,-0.190,-0.170
2837,-0.200,-0.165
2838,-0.185,-0.160
2839,-0.185,-0.180
2840,-0.185,-0.150
2841,-0.155,-0.120
2842,-0.140,-0.095
2843,-0.135,-0.070
2844,-0.130,-0.090
2845,-0.145,-0.155
2846,-0.170,-0.190
2847,-0.150,-0.190
2848,-0.155,-0.195
2849,-0.200,-0.175
2850,-0.255,-0.155
2851,-0.255,-0.155
2852,-0.265,-0.180
2853,-0.250,-0.160
2854,-0.275,-0.150
2855,-0.270,-0.175
2856,-0.195,-0.145
2857,0.145,-0.075
2858,0.615,-0.030
2859,0.645,-0.050
2860,0.010,-0.130
2861,-0.335,-0.060
2862,-0.370,0.100
2863,-0.430,0.380
2864,-0.490,0.655
2865,-0.535,0.620
2866,-0.420,0.505
2867,-0.300,0.415
2868,-0.255,0.200
2869,-0.250,0.040
2870,-0.230,0.005
2871,-0.230,-0.050
2872,-0.220,-0.070
2873,-0.235,-0.040
2874,-0.200,-0.145
2875,-0.170,-0.140
2876,-0.165,-0.140
2877,-0.170,-0.135
2878,-0.150,-0.100
2879,-0.135,-0.145
2880,-0.130,-0.150
2881,-0.080,-0.145
2882,-0.075,-0.135
2883,-0.040,-0.175
2884,0.000,-0.160
2885,0.010,-0.165
2886,0.060,-0.180
2887,0.095,-0.200
2888,0.105,-0.215
2889,0.135,-0.230
2890,0.110,-0.250
2891,0.130,-0.235
2892,0.060,-0.255
2893,0.045,-0.245
2894,-0.005,-0.230
2895,-0.025,-0.200
2896,-0.075,-0.170
2897,-0.110,-0.155
2898,-0.140,-0.115
2899,-0.170,-0.075
2900,-0.190,-0.040
2901,-0.200,-0.060
2902,-0.220,-0.010
2903,-0.200,0.000
2904,-0.195,0.000
2905,-0.220,-0.010
2906,-0.230,0.000
2907,-0.235,0.015
2908,-0.230,0.010
2909,-0.220,0.020
2910,-0.205,0.020
2911,-0.220,0.005
2912,-0.210,0.020
2913,-0.210,0.030
2914,-0.200,0.025
2915,-0.200,0.045
2916,-0.175,0.040
2917,-0.175,0.060
2918,-0.165,0.030
2919,-0.175,0.015
2920,-0.190,0.015
2921,-0.180,0.040
2922,-0.185,0.045
2923,-0.185,0.035
2924,-0.195,0.045
2925,-0.215,0.030
2926,-0.185,0.045
2927,-0.220,0.045
2928,-0.190,0.070
2929,-0.220,0.080
2930,-0.215,0.055
2931,-0.190,0.055
2932,-0.220,0.065
2933,-0.220,0.065
2934,-0.205,0.080
2935,-0.205,0.075
2936,-0.200,0.080
2937,-0.215,0.065
2938,-0.205,0.075
2939,-0.215,0.100
2940,-0.210,0.050
2941,-0.205,0.075
2942,-0.210,0.100
2943,-0.210,0.065
2944,-0.215,0.055
2945,-0.210,0.080
2946,-0.200,0.095
2947,-0.190,0.090
2948,-0.210,0.050
2949,-0.225,0.070
2950,-0.215,0.070
2951,-0.200,0.080
2952,-0.190,0.075
2953,-0.180,0.065
2954,-0.145,0.095
2955,-0.135,0.110
2956,-0.115,0.140
2957,-0.130,0.165
2958,-0.145,0.145
2959,-0.155,0.040
2960,-0.145,0.035
2961,-0.150,0.020
2962,-0.150,0.045
2963,-0.155,0.010
2964,-0.220,0.030
2965,-0.235,0.045
2966,-0.225,0.065
2967,-0.230,0.045
2968,-0.210,0.070
2969,-0.220,0.065
2970,-0.145,0.090
2971,0.185,0.090
2972,0.650,0.150
2973,0.650,0.115
2974,0.050,0.070
2975,-0.260,0.115
2976,-0.310,0.335
2977,-0.355,0.595
2978,-0.440,0.815
2979,-0.440,0.750
2980,-0.305,0.685
2981,-0.215,0.600
2982,-0.195,0.350
2983,-0.155,0.205
2984,-0.145,0.160
2985,-0.135,0.095
2986,-0.130,0.065
2987,-0.110,0.055
2988,-0.110,0.035
2989,-0.100,0.015
2990,-0.085,0.000
2991,-0.085,-0.005
2992,-0.060,-0.010
2993,-0.055,-0.035
2994,-0.025,-0.055
2995,-0.025,-0.065
2996,0.000,-0.060
2997,0.035,-0.095
2998,0.065,-0.100
2999,0.090,-0.135
3000,0.130,-0.175
3001,0.155,-0.185
3002,0.175,-0.190
3003,0.195,-0.180
3004,0.185,-0.235
3005,0.175,-0.260
3006,0.130,-0.250
3007,0.095,-0.240
3008,0.050,-0.215
3009,0.000,-0.215
3010,-0.055,-0.210
3011,-0.075,-0.165
3012,-0.105,-0.135
3013,-0.115,-0.115
3014,-0.120,-0.075
3015,-0.130,-0.125
3016,-0.145,-0.075
3017,-0.160,-0.080
3018,-0.155,-0.075
3019,-0.165,-0.075
3020,-0.175,-0.090
3021,-0.170,-0.095
3022,-0.160,-0.090
3023,-0.175,-0.105
3024,-0.155,-0.085
3025,-0.175,-0.090
3026,-0.160,-0.085
3027,-0.135,-0.120
3028,-0.135,-0.105
3029,-0.160,-0.095
3030,-0.145,-0.110
3031,-0.140,-0.075
3032,-0.130,-0.105
3033,-0.130,-0.130
3034,-0.130,-0.130
3035,-0.135,-0.155
3036,-0.145,-0.125
3037,-0.170,-0.125
3038,-0.160,-0.160
3039,-0.155,-0.160
3040,-0.175,-0.160
3041,-0.160,-0.185
3042,-0.160,-0.155
3043,-0.195,-0.150
3044,-0.205,-0.190
3045,-0.165,-0.175
3046,-0.185,-0.170
3047,-0.180,-0.195
3048,-0.190,-0.150
3049,-0.175,-0.185
3050,-0.175,-0.180
3051,-0.165,-0.180
3052,-0.175,-0.180
3053,-0.175,-0.155
3054,-0.190,-0.185
3055,-0.210,-0.165
3056,-0.185,-0.185
3057,-0.165,-0.105
3058,-0.190,-0.100
3059,-0.170,-0.105
3060,-0.165,-0.080
3061,-0.175,-0.115
3062,-0.190,-0.100
3063,-0.175,-0.080
3064,-0.140,-0.145
3065,-0.140,-0.090
3066,-0.130,-0.095
3067,-0.145,-0.120
3068,-0.125,-0.095
3069,-0.140,-0.145
3070,-0.090,-0.085
3071,-0.105,-0.065
3072,-0.130,-0.100
3073,-0.135,-0.215
3074,-0.110,-0.220
3075,-0.100,-0.265
3076,-0.080,-0.260
3077,-0.165,-0.255
3078,-0.205,-0.200
3079,-0.200,-0.265
3080,-0.210,-0.235
3081,-0.185,-0.280
3082,-0.215,-0.270
3083,-0.215,-0.230
3084,-0.090,-0.235
3085,0.225,-0.150
3086,0.645,-0.155
3087,0.530,-0.125
3088,0.000,-0.220
3089,-0.245,-0.145
3090,-0.300,0.115
3091,-0.350,0.385
3092,-0.470,0.630
3093,-0.410,0.465
3094,-0.260,0.450
3095,-0.175,0.295
3096,-0.130,0.000
3097,-0.135,-0.075
3098,-0.120,-0.125
3099,-0.115,-0.195
3100,-0.085,-0.225
3101,-0.065,-0.275
3102,-0.065,-0.265
3103,-0.060,-0.290
3104,-0.025,-0.315
3105,-0.050,-0.325
3106,-0.020,-0.355
3107,0.000,-0.345
3108,0.015,-0.360
3109,0.015,-0.355
3110,0.065,-0.360
3111,0.075,-0.380
3112,0.105,-0.435
3113,0.155,-0.450
3114,0.190,-0.455
3115,0.165,-0.470
3116,0.230,-0.475
3117,0.190,-0.485
3118,0.180,-0.465
3119,0.185,-0.515
3120,0.140,-0.500
3121,0.085,-0.475
3122,0.040,-0.450
3123,0.005,-0.385
3124,-0.030,-0.365
3125,-0.065,-0.340
3126,-0.080,-0.315
3127,-0.120,-0.275
3128,-0.090,-0.240
3129,-0.125,-0.265
3130,-0.140,-0.235
3131,-0.130,-0.215
3132,-0.125,-0.225
3133,-0.140,-0.205
3134,-0.150,-0.230
3135,-0.125,-0.210
3136,-0.175,-0.210
3137,-0.140,-0.185
3138,-0.125,-0.195
3139,-0.125,-0.165
3140,-0.115,-0.195
3141,-0.125,-0.165
3142,-0.120,-0.165
3143,-0.105,-0.190
3144,-0.120,-0.195
3145,-0.110,-0.185
3146,-0.085,-0.195
3147,-0.115,-0.185
3148,-0.105,-0.185
3149,-0.105,-0.180
3150,-0.120,-0.200
3151,-0.130,-0.190
3152,-0.110,-0.180
3153,-0.130,-0.165
3154,-0.140,-0.205
3155,-0.140,-0.180
3156,-0.115,-0.180
3157,-0.145,-0.175
3158,-0.150,-0.195
3159,-0.125,-0.175
3160,-0.125,-0.185
3161,-0.140,-0.145
3162,-0.165,-0.175
3163,-0.155,-0.155
3164,-0.120,-0.175
3165,-0.135,-0.180
3166,-0.135,-0.170
3167,-0.135,-0.195
3168,-0.150,-0.155
3169,-0.150,-0.170
3170,-0.140,-0.170
3171,-0.175,-0.155
3172,-0.125,-0.165
3173,-0.150,-0.185
3174,-0.120,-0.120
3175,-0.135,-0.175
3176,-0.155,-0.145
3177,-0.140,-0.160
3178,-0.110,-0.160
3179,-0.100,-0.150
3180,-0.090,-0.125
3181,-0.070,-0.080
3182,-0.060,-0.050
3183,-0.065,-0.080
3184,-0.090,-0.115
3185,-0.090,-0.140
3186,-0.080,-0.205
3187,-0.055,-0.175
3188,-0.120,-0.185
3189,-0.130,-0.135
3190,-0.160,-0.145
3191,-0.165,-0.125
3192,-0.150,-0.160
3193,-0.140,-0.120
3194,-0.170,-0.160
3195,-0.175,-0.135
3196,0.030,-0.070
3197,0.475,0.000
3198,0.755,0.010
3199,0.390,-0.025
3200,-0.125,-0.090
3201,-0.265,0.040
3202,-0.280,0.300
3203,-0.315,0.660
3204,-0.415,0.720
3205,-0.330,0.640
3206,-0.125,0.565
3207,-0.120,0.455
3208,-0.100,0.140
3209,-0.070,0.000
3210,-0.040,0.035
3211,-0.025,-0.015
3212,-0.025,-0.065
3213,-0.015,-0.045
3214,0.030,-0.095
3215,0.055,-0.035
3216,0.105,-0.005
3217,0.030,-0.055
3218,0.045,-0.080
3219,0.095,-0.110
3220,0.095,-0.065
3221,0.205,-0.130
3222,0.210,-0.090
3223,0.260,-0.165
3224,0.320,-0.110
3225,0.230,-0.175
3226,0.215,-0.175
3227,0.305,-0.215
3228,0.240,-0.210
3229,0.200,-0.190
3230,0.275,-0.235
3231,0.230,-0.210
3232,0.160,-0.210
3233,0.115,-0.190
3234,0.125,-0.180
3235,0.055,-0.130
3236,0.005,-0.120
3237,0.020,-0.065
3238,-0.070,-0.055
3239,-0.115,-0.030
3240,-0.070,-0.010
3241,-0.020,-0.035
3242,-0.075,-0.025
3243,-0.165,0.000
3244,-0.135,0.000
3245,-0.110,-0.005
3246,-0.105,0.010
3247,-0.155,-0.020
3248,-0.170,0.000
3249,-0.175,-0.015
3250,-0.125,-0.030
3251,-0.125,-0.050
3252,-0.150,-0.030
3253,-0.110,-0.055
3254,-0.055,-0.055
3255,-0.125,-0.095
3256,-0.195,-0.100
3257,-0.145,-0.085
3258,-0.165,-0.070
3259,-0.155,-0.150
3260,-0.135,-0.115
3261,-0.190,-0.140
3262,-0.150,-0.175
3263,-0.140,-0.220
3264,-0.210,-0.220
3265,-0.220,-0.190
3266,-0.170,-0.200
3267,-0.195,-0.255
3268,-0.275,-0.250
3269,-0.255,-0.260
3270,-0.185,-0.235
3271,-0.225,-0.225
3272,-0.200,-0.240
3273,-0.215,-0.260
3274,-0.245,-0.260
3275,-0.240,-0.250
3276,-0.235,-0.250
3277,-0.265,-0.225
3278,-0.270,-0.225
3279,-0.300,-0.205
3280,-0.275,-0.230
3281,-0.235,-0.235
3282,-0.200,-0.220
3283,-0.330,-0.230
3284,-0.310,-0.215
3285,-0.275,-0.225
3286,-0.275,-0.200
3287,-0.270,-0.205
3288,-0.305,-0.200
3289,-0.295,-0.180
3290,-0.225,-0.175
3291,-0.255,-0.105
3292,-0.265,-0.090
3293,-0.205,-0.040
3294,-0.200,-0.105
3295,-0.265,-0.175
3296,-0.235,-0.190
3297,-0.230,-0.190
3298,-0.325,-0.200
3299,-0.330,-0.170
3300,-0.385,-0.165
3301,-0.360,-0.140
3302,-0.295,-0.185
3303,-0.295,-0.195
3304,-0.370,-0.170
3305,-0.435,-0.130
3306,-0.230,-0.085
3307,0.225,0.000
3308,0.625,0.050
3309,0.290,0.055
3310,-0.230,0.040
3311,-0.425,0.220
3312,-0.535,0.455
3313,-0.570,0.845
3314,-0.715,1.065
3315,-0.700,0.985
3316,-0.505,0.945
3317,-0.315,0.830
3318,-0.240,0.535
3319,-0.315,0.415
3320,-0.345,0.365
3321,-0.370,0.320
3322,-0.315,0.265
3323,-0.305,0.250
3324,-0.280,0.260
3325,-0.235,0.270
3326,-0.190,0.280
3327,-0.130,0.305
3328,-0.260,0.385
3329,-0.175,0.470
3330,-0.220,0.550
3331,-0.155,0.590
3332,-0.175,0.640
3333,-0.110,0.670
3334,-0.120,0.730
3335,-0.075,0.775
3336,-0.080,0.840
3337,-0.010,0.860
3338,0.055,0.895
3339,-0.035,0.945
3340,-0.055,0.980
3341,-0.015,1.050
3342,-0.005,1.100
3343,-0.065,1.150
3344,-0.135,1.195
3345,-0.175,1.265
3346,-0.215,1.290
3347,-0.250,1.350
3348,-0.295,1.400
3349,-0.345,1.460
3350,-0.320,1.490
3351,-0.360,1.540
3352,-0.290,1.560
3353,-0.320,1.585
3354,-0.345,1.590
3355,-0.335,1.620
3356,-0.365,1.675
3357,-0.395,1.720
3358,-0.420,1.845
3359,-0.405,2.015
3360,-0.365,2.160
3361,-0.380,2.245
3362,-0.365,2.305
3363,-0.350,2.375
3364,-0.320,2.445
3365,-0.250,2.550
3366,-0.325,2.630
3367,-0.420,2.680
3368,-0.435,2.715
3369,-0.390,2.800
3370,-0.360,2.865
3371,-0.440,2.925
3372,-0.420,2.970
3373,-0.405,3.015
3374,-0.335,3.040
3375,-0.340,3.045
3376,-0.515,3.075
3377,-0.540,3.080
3378,-0.415,3.125
3379,-0.440,3.155
3380,-0.520,3.130
3381,-0.490,3.120
3382,-0.410,3.135
3383,-0.375,3.130
3384,-0.380,3.110
3385,-0.345,3.100
3386,-0.610,3.105
3387,-0.605,3.120
3388,-0.580,3.165
3389,-0.545,3.130
3390,-0.450,3.150
3391,-0.460,3.140
3392,-0.420,3.115
3393,-0.475,3.105
3394,-0.560,3.075
3395,-0.565,3.085
3396,-0.585,3.090
3397,-0.530,3.085
3398,-0.525,3.055
3399,-0.495,3.045
3400,-0.470,3.050
3401,-0.395,3.055
3402,-0.520,3.075
3403,-0.500,3.095
3404,-0.460,3.140
3405,-0.435,3.120
3406,-0.525,3.000
3407,-0.525,2.930
3408,-0.495,2.945
3409,-0.460,2.925
3410,-0.440,2.925
3411,-0.600,2.920
3412,-0.645,2.920
3413,-0.580,2.945
3414,-0.575,2.915
3415,-0.625,2.895
3416,-0.620,2.905
3417,-0.650,2.910
3418,-0.280,2.960
3419,0.205,3.040
3420,0.250,3.040
3421,-0.350,2.930
3422,-0.685,2.995
3423,-0.710,3.185
3424,-0.730,3.465
3425,-0.855,3.775
3426,-0.955,3.715
3427,-0.800,3.560
3428,-0.670,3.515
3429,-0.585,3.210
3430,-0.560,2.965
3431,-0.540,2.915
3432,-0.565,2.835
3433,-0.545,2.800
3434,-0.575,2.785
3435,-0.545,2.770
3436,-0.530,2.760
3437,-0.530,2.730
3438,-0.510,2.690
3439,-0.460,2.735
3440,-0.420,2.700
3441,-0.455,2.670
3442,-0.385,2.645
3443,-0.270,2.655
3444,-0.400,2.625
3445,-0.375,2.600
3446,-0.340,2.590
3447,-0.290,2.590
3448,-0.250,2.550
3449,-0.170,2.540
3450,-0.180,2.530
3451,-0.105,2.490
3452,-0.115,2.495
3453,-0.295,2.450
3454,-0.300,2.465
3455,-0.300,2.495
3456,-0.330,2.490
3457,-0.475,2.500
3458,-0.375,2.520
3459,-0.375,2.555
3460,-0.555,2.545
3461,-0.505,2.555
3462,-0.425,2.565
3463,-0.490,2.555
3464,-0.460,2.540
3465,-0.540,2.500
3466,-0.495,2.535
3467,-0.525,2.530
3468,-0.495,2.540
3469,-0.415,2.535
3470,-0.510,2.510
3471,-0.630,2.495
3472,-0.565,2.510
3473,-0.480,2.520
3474,-0.420,2.510
3475,-0.465,2.485
3476,-0.515,2.455
3477,-0.460,2.445
3478,-0.480,2.455
3479,-0.470,2.430
3480,-0.410,2.410
3481,-0.440,2.405
3482,-0.410,2.390
3483,-0.575,2.370
3484,-0.445,2.390
3485,-0.440,2.380
3486,-0.490,2.360
3487,-0.400,2.355
3488,-0.525,2.335
3489,-0.610,2.295
3490,-0.490,2.315
3491,-0.460,2.305
3492,-0.515,2.295
3493,-0.520,2.305
3494,-0.465,2.305
3495,-0.475,2.295
3496,-0.515,2.270
3497,-0.545,2.295
3498,-0.545,2.295
3499,-0.470,2.305
3500,-0.585,2.285
3501,-0.480,2.285
3502,-0.465,2.290
3503,-0.560,2.265
3504,-0.540,2.270
3505,-0.460,2.270
3506,-0.430,2.255
3507,-0.590,2.245
3508,-0.520,2.235
3509,-0.545,2.290
3510,-0.540,2.240
3511,-0.510,2.270
3512,-0.475,2.275
3513,-0.445,2.290
3514,-0.390,2.305
3515,-0.400,2.330
3516,-0.425,2.295
3517,-0.510,2.235
3518,-0.510,2.175
3519,-0.500,2.165
3520,-0.540,2.195
3521,-0.495,2.210
3522,-0.530,2.220
3523,-0.545,2.200
3524,-0.515,2.210
3525,-0.510,2.180
3526,-0.570,2.190
3527,-0.535,2.180
3528,-0.505,2.195
3529,-0.205,2.275
3530,0.220,2.315
3531,0.245,2.335
3532,-0.275,2.265
3533,-0.575,2.315
3534,-0.620,2.490
3535,-0.695,2.755
3536,-0.725,3.125
3537,-0.890,3.050
3538,-0.765,2.855
3539,-0.550,2.825
3540,-0.505,2.540
3541,-0.585,2.310
3542,-0.420,2.250
3543,-0.510,2.180
3544,-0.450,2.125
3545,-0.410,2.075
3546,-0.365,2.105
3547,-0.370,2.115
3548,-0.485,1.970
3549,-0.445,1.890
3550,-0.410,1.810
3551,-0.370,1.740
3552,-0.375,1.640
3553,-0.335,1.530
3554,-0.295,1.465
3555,-0.235,1.360
3556,-0.210,1.335
3557,-0.250,1.155
3558,-0.160,1.005
3559,-0.120,0.920
3560,-0.155,0.830
3561,-0.145,0.750
3562,-0.100,0.705
3563,-0.160,0.645
3564,-0.145,0.610
3565,-0.260,0.565
3566,-0.255,0.570
3567,-0.315,0.810
3568,-0.290,0.885
3569,-0.305,0.805
3570,-0.275,0.460
3571,-0.350,0.420
3572,-0.440,0.375
3573,-0.335,0.455
3574,-0.420,0.405
3575,-0.505,0.515
3576,-0.445,0.670
3577,-0.405,1.045
3578,-0.400,0.720
3579,-0.360,0.715
3580,-0.345,0.665
3581,-0.435,0.305
3582,-0.340,0.340
3583,-0.390,0.405
3584,-0.440,0.475
3585,-0.435,0.600
3586,-0.460,0.905
3587,-0.395,0.720
3588,-0.340,0.615
3589,-0.295,0.490
3590,-0.435,0.425
3591,-0.445,0.440
3592,-0.420,0.485
3593,-0.370,0.810
3594,-0.395,0.525
3595,-0.415,0.440
3596,-0.390,0.685
3597,-0.415,0.690
3598,-0.380,0.415
3599,-0.440,0.495
3600,-0.405,0.820
3601,-0.475,0.635
3602,-0.400,0.725
3603,-0.415,0.805
3604,-0.420,0.635
3605,-0.390,0.780
3606,-0.345,0.805
3607,-0.350,0.865
3608,-0.430,0.795
3609,-0.375,0.880
3610,-0.405,1.075
3611,-0.390,0.840
3612,-0.370,0.800
3613,-0.350,0.955
3614,-0.405,0.905
3615,-0.420,0.845
3616,-0.400,0.995
3617,-0.380,1.110
3618,-0.340,1.205
3619,-0.275,1.000
3620,-0.340,0.990
3621,-0.360,1.125
3622,-0.360,1.095
3623,-0.315,1.255
3624,-0.300,1.300
3625,-0.195,1.225
3626,-0.260,1.180
3627,-0.340,0.975
3628,-0.300,0.835
3629,-0.330,0.795
3630,-0.260,0.665
3631,-0.350,0.475
3632,-0.375,0.165
3633,-0.370,0.225
3634,-0.410,0.165
3635,-0.290,0.125
3636,-0.375,0.240
3637,-0.410,0.090
3638,-0.205,0.155
3639,0.145,0.285
3640,0.485,0.300
3641,0.325,0.240
3642,-0.300,0.030
3643,-0.435,0.150
3644,-0.515,0.400
3645,-0.605,0.635
3646,-0.650,0.830
3647,-0.605,0.700
3648,-0.600,0.500
3649,-0.320,0.390
3650,-0.375,0.050
3651,-0.415,-0.140
3652,-0.370,-0.220
3653,-0.290,-0.380
3654,-0.165,-0.500
3655,-0.170,-0.610
3656,-0.255,-0.805
3657,-0.245,-0.880
3658,-0.305,-0.945
3659,-0.130,-1.090
3660,-0.150,-1.195
3661,-0.185,-1.320
3662,-0.115,-1.410
3663,-0.125,-1.575
3664,-0.065,-1.730
3665,-0.020,-1.865
3666,-0.005,-2.025
3667,-0.020,-2.225
3668,0.100,-2.385
3669,0.050,-2.500
3670,0.215,-2.765
3671,-0.010,-2.935
3672,0.115,-3.095
3673,0.135,-3.155
3674,0.075,-3.280
3675,0.065,-3.375
3676,0.005,-3.425
3677,0.025,-3.460
3678,-0.125,-3.460
3679,-0.165,-3.480
3680,-0.110,-3.510
3681,-0.085,-3.520
3682,-0.120,-3.510
3683,-0.150,-3.525
3684,-0.140,-3.545
3685,-0.120,-3.515
3686,-0.150,-3.525
3687,-0.180,-3.540
3688,-0.175,-3.530
3689,-0.195,-3.525
3690,-0.100,-3.535
3691,-0.180,-3.525
3692,-0.160,-3.525
3693,-0.060,-3.520
3694,-0.125,-3.510
3695,-0.160,-3.500
3696,-0.090,-3.495
3697,-0.180,-3.500
3698,-0.155,-3.490
3699,-0.075,-3.485
3700,-0.070,-3.490
3701,-0.095,-3.485
3702,-0.145,-3.470
3703,-0.045,-3.475
3704,-0.095,-3.460
3705,-0.115,-3.475
3706,-0.180,-3.450
3707,-0.150,-3.465
3708,-0.160,-3.455
3709,-0.125,-3.445
3710,-0.145,-3.430
3711,-0.135,-3.440
3712,-0.095,-3.455
3713,-0.115,-3.445
3714,0.025,-3.430
3715,-0.115,-3.450
3716,-0.205,-3.435
3717,-0.135,-3.425
3718,-0.090,-3.425
3719,-0.095,-3.420
3720,-0.135,-3.415
3721,-0.140,-3.425
3722,-0.085,-3.415
3723,-0.020,-3.420
3724,-0.125,-3.420
3725,-0.175,-3.410
3726,-0.120,-3.400
3727,-0.145,-3.415
3728,-0.125,-3.410
3729,-0.070,-3.420
3730,0.000,-3.385
3731,0.000,-3.410
3732,-0.055,-3.400
3733,-0.030,-3.385
3734,-0.030,-3.385
3735,-0.050,-3.385
3736,-0.025,-3.400
3737,0.020,-3.400
3738,-0.035,-3.400
3739,-0.090,-3.395
3740,-0.090,-3.375
3741,-0.140,-3.370
3742,-0.145,-3.370
3743,-0.100,-3.385
3744,-0.095,-3.390
3745,-0.065,-3.375
3746,-0.005,-3.385
3747,0.335,-3.385
3748,0.730,-3.380
3749,0.760,-3.385
3750,0.060,-3.360
3751,-0.235,-3.380
3752,-0.340,-3.355
3753,-0.345,-3.380
3754,-0.410,-3.365
3755,-0.435,-3.355
3756,-0.280,-3.360
3757,-0.115,-3.345
3758,-0.045,-3.355
3759,-0.025,-3.355
3760,-0.015,-3.360
3761,-0.080,-3.385
3762,-0.050,-3.360
3763,0.085,-3.375
3764,0.020,-3.370
3765,0.000,-3.365
3766,0.020,-3.375
3767,-0.035,-3.380
3768,0.020,-3.375
3769,0.030,-3.365
3770,0.080,-3.375
3771,0.150,-3.365
3772,0.180,-3.355
3773,0.145,-3.365
3774,0.150,-3.355
3775,0.215,-3.370
3776,0.235,-3.390
3777,0.205,-3.370
3778,0.300,-3.350
3779,0.265,-3.370
3780,0.250,-3.360
3781,0.245,-3.355
3782,0.230,-3.360
3783,0.185,-3.355
3784,0.135,-3.345
3785,0.075,-3.335
3786,0.045,-3.340
3787,0.075,-3.335
3788,0.055,-3.325
3789,0.030,-3.345
3790,-0.010,-3.320
3791,-0.090,-3.325
3792,-0.065,-3.325
3793,-0.040,-3.295
3794,-0.020,-3.295
3795,-0.055,-3.300
3796,-0.005,-3.315
3797,-0.035,-3.295
3798,-0.055,-3.290
3799,-0.030,-3.290
3800,-0.005,-3.295
3801,-0.050,-3.280
3802,-0.050,-3.290
3803,-0.055,-3.265
3804,-0.075,-3.270
3805,-0.010,-3.270
3806,0.010,-3.260
3807,-0.045,-3.265
3808,-0.055,-3.255
3809,-0.050,-3.240
3810,0.005,-3.225
3811,-0.055,-3.220
3812,-0.070,-3.230
3813,-0.045,-3.215
3814,-0.025,-3.230
3815,-0.050,-3.220
3816,-0.065,-3.185
3817,-0.010,-3.205
3818,-0.065,-3.205
3819,-0.100,-3.200
3820,-0.085,-3.185
3821,-0.070,-3.190
3822,-0.060,-3.180
3823,-0.005,-3.170
3824,-0.070,-3.165
3825,-0.055,-3.180
3826,-0.185,-3.155
3827,-0.115,-3.155
3828,-0.095,-3.155
3829,-0.080,-3.145
3830,-0.055,-3.140
3831,-0.035,-3.125
3832,-0.050,-3.110
3833,-0.095,-3.130
3834,-0.060,-3.100
3835,-0.050,-3.105
3836,-0.040,-3.095
3837,-0.020,-3.065
3838,0.025,-3.075
3839,0.025,-3.060
3840,-0.020,-3.060
3841,0.005,-3.060
3842,0.025,-3.040
3843,-0.005,-3.030
3844,0.000,-3.040
3845,0.005,-3.010
3846,0.000,-3.015
3847,0.025,-3.010
3848,-0.070,-3.010
3849,-0.060,-3.000
3850,-0.095,-3.015
3851,-0.090,-2.985
3852,-0.090,-2.990
3853,-0.110,-2.985
3854,0.000,-2.980
3855,0.335,-2.970
3856,0.745,-2.970
3857,0.690,-2.965
3858,0.110,-2.955
3859,-0.125,-2.955
3860,-0.205,-2.935
3861,-0.210,-2.915
3862,-0.315,-2.930
3863,-0.380,-2.920
3864,-0.285,-2.910
3865,-0.100,-2.920
3866,-0.055,-2.900
3867,-0.050,-2.905
3868,0.000,-2.885
3869,0.040,-2.865
3870,0.065,-2.860
3871,0.010,-2.870
3872,0.035,-2.860
3873,0.000,-2.850
3874,0.010,-2.830
3875,0.060,-2.850
3876,0.050,-2.830
3877,0.040,-2.820
3878,0.110,-2.825
3879,0.120,-2.795
3880,0.125,-2.800
3881,0.160,-2.815
3882,0.205,-2.800
3883,0.215,-2.790
3884,0.350,-2.795
3885,0.260,-2.805
3886,0.190,-2.775
3887,0.285,-2.770
3888,0.280,-2.765
3889,0.235,-2.755
3890,0.225,-2.725
3891,0.210,-2.745
3892,0.160,-2.745
3893,0.080,-2.740
3894,0.035,-2.725
3895,0.010,-2.730
3896,0.000,-2.705
3897,-0.010,-2.705
3898,-0.030,-2.700
3899,-0.070,-2.700
3900,-0.025,-2.680
3901,-0.035,-2.680
3902,-0.045,-2.645
3903,-0.070,-2.685
3904,-0.090,-2.685
3905,-0.095,-2.670
3906,-0.120,-2.665
3907,-0.050,-2.660
3908,-0.090,-2.630
3909,-0.060,-2.650
3910,-0.050,-2.650
3911,-0.070,-2.640
3912,-0.070,-2.615
3913,-0.125,-2.605
3914,-0.065,-2.620
3915,-0.050,-2.605
3916,-0.030,-2.600
3917,-0.045,-2.600
3918,-0.075,-2.575
3919,-0.060,-2.585
3920,-0.085,-2.575
3921,-0.065,-2.580
3922,-0.045,-2.555
3923,-0.105,-2.550
3924,-0.070,-2.550
3925,-0.075,-2.545
3926,-0.145,-2.535
3927,-0.115,-2.530
3928,-0.080,-2.515
3929,-0.125,-2.505
3930,-0.115,-2.520
3931,-0.135,-2.520
3932,-0.065,-2.505
3933,-0.050,-2.495
3934,-0.165,-2.495
3935,-0.160,-2.485
3936,-0.125,-2.470
3937,-0.120,-2.450
3938,-0.125,-2.475
3939,-0.095,-2.460
3940,-0.160,-2.470
3941,-0.140,-2.450
3942,-0.160,-2.450
3943,-0.035,-2.460
3944,-0.170,-2.455
3945,-0.125,-2.430
3946,-0.060,-2.445
3947,-0.100,-2.435
3948,-0.060,-2.420
3949,-0.035,-2.410
3950,-0.015,-2.420
3951,-0.010,-2.410
3952,-0.020,-2.400
3953,0.010,-2.385
3954,-0.045,-2.385
3955,-0.120,-2.380
3956,-0.100,-2.370
3957,-0.120,-2.365
3958,-0.135,-2.350
3959,-0.045,-2.345
3960,-0.115,-2.340
3961,-0.130,-2.340
3962,-0.075,-2.325
3963,0.055,-2.320
3964,0.415,-2.305
3965,0.750,-2.285
3966,0.565,-2.310
3967,0.015,-2.265
3968,-0.180,-2.280
3969,-0.305,-2.290
3970,-0.360,-2.295
3971,-0.405,-2.280
3972,-0.405,-2.290
3973,-0.225,-2.275
3974,-0.100,-2.260
3975,-0.060,-2.270
3976,-0.020,-2.265
3977,-0.045,-2.260
3978,-0.060,-2.250
3979,0.010,-2.235
3980,-0.065,-2.235
3981,-0.085,-2.235
3982,-0.025,-2.215
3983,-0.010,-2.205
3984,0.030,-2.195
3985,0.030,-2.195
3986,0.040,-2.200
3987,0.065,-2.205
3988,0.110,-2.185
3989,0.140,-2.180
3990,0.115,-2.155
3991,0.135,-2.140
3992,0.190,-2.130
3993,0.240,-2.115
3994,0.225,-2.140
3995,0.265,-2.125
3996,0.295,-2.095
3997,0.260,-2.100
3998,0.230,-2.090
3999,0.225,-2.075
4000,0.190,-2.065
4001,0.165,-2.060
4002,0.145,-2.080
4003,0.005,-2.045
4004,0.005,-2.045
4005,-0.030,-2.035
4006,-0.040,-2.050
4007,-0.030,-2.030
4008,-0.015,-2.025
4009,-0.040,-2.025
4010,-0.040,-1.995
4011,0.000,-1.995
4012,-0.070,-1.980
4013,-0.090,-1.990
4014,-0.025,-1.995
4015,-0.055,-1.965
4016,-0.055,-1.965
4017,-0.060,-1.945
4018,-0.075,-1.945
4019,-0.085,-1.940
4020,-0.030,-1.930
4021,-0.035,-1.925
4022,-0.050,-1.930
4023,-0.070,-1.920
4024,-0.065,-1.895
4025,-0.080,-1.900
4026,-0.085,-1.885
4027,-0.080,-1.870
4028,-0.080,-1.895
4029,-0.060,-1.880
4030,-0.095,-1.845
4031,-0.140,-1.860
4032,-0.120,-1.855
4033,-0.110,-1.820
4034,-0.110,-1.840
4035,-0.100,-1.850
4036,-0.090,-1.805
4037,-0.090,-1.815
4038,-0.095,-1.830
4039,-0.075,-1.815
4040,-0.205,-1.800
4041,-0.155,-1.795
4042,-0.140,-1.785
4043,-0.130,-1.765
4044,-0.150,-1.765
4045,-0.145,-1.735
4046,-0.125,-1.740
4047,-0.125,-1.725
4048,-0.115,-1.710
4049,-0.125,-1.710
4050,-0.100,-1.690
4051,-0.150,-1.680
4052,-0.190,-1.670
4053,-0.115,-1.655
4054,-0.105,-1.670
4055,-0.100,-1.680
4056,-0.095,-1.655
4057,-0.140,-1.640
4058,-0.085,-1.625
4059,-0.055,-1.645
4060,-0.085,-1.620
4061,-0.120,-1.615
4062,-0.105,-1.610
4063,-0.090,-1.605
4064,-0.110,-1.615
4065,-0.165,-1.605
4066,-0.160,-1.590
4067,-0.230,-1.590
4068,-0.210,-1.575
4069,-0.180,-1.580
4070,-0.190,-1.555
4071,-0.180,-1.555
4072,0.060,-1.550
4073,0.490,-1.555
4074,0.685,-1.550
4075,0.170,-1.535
4076,-0.240,-1.525
4077,-0.330,-1.515
4078,-0.370,-1.520
4079,-0.480,-1.480
4080,-0.495,-1.485
4081,-0.510,-1.490
4082,-0.290,-1.485
4083,-0.190,-1.480
4084,-0.150,-1.470
4085,-0.140,-1.470
4086,-0.165,-1.475
4087,-0.105,-1.465
4088,-0.080,-1.470
4089,-0.190,-1.455
4090,-0.135,-1.440
4091,-0.070,-1.430
4092,-0.080,-1.435
4093,-0.065,-1.430
4094,-0.030,-1.405
4095,-0.055,-1.390
4096,-0.015,-1.385
4097,0.040,-1.375
4098,0.045,-1.360
4099,0.060,-1.360
4100,0.075,-1.360
4101,0.080,-1.355
4102,0.125,-1.360
4103,0.165,-1.345
4104,0.200,-1.345
4105,0.200,-1.335
4106,0.190,-1.335
4107,0.185,-1.315
4108,0.115,-1.320
4109,0.085,-1.320
4110,0.010,-1.320
4111,-0.025,-1.310
4112,-0.005,-1.295
4113,-0.085,-1.315
4114,-0.030,-1.295
4115,-0.085,-1.305
4116,-0.135,-1.295
4117,-0.150,-1.270
4118,-0.155,-1.275
4119,-0.140,-1.280
4120,-0.120,-1.260
4121,-0.125,-1.270
4122,-0.135,-1.255
4123,-0.145,-1.250
4124,-0.075,-1.250
4125,-0.145,-1.260
4126,-0.140,-1.235
4127,-0.160,-1.240
4128,-0.135,-1.245
4129,-0.115,-1.215
4130,-0.105,-1.225
4131,-0.090,-1.225
4132,-0.135,-1.230
4133,-0.105,-1.220
4134,-0.120,-1.215
4135,-0.115,-1.205
4136,-0.150,-1.210
4137,-0.125,-1.205
4138,-0.100,-1.180
4139,-0.120,-1.185
4140,-0.150,-1.180
4141,-0.170,-1.185
4142,-0.155,-1.185
4143,-0.150,-1.165
4144,-0.115,-1.155
4145,-0.190,-1.155
4146,-0.160,-1.155
4147,-0.165,-1.145
4148,-0.130,-1.145
4149,-0.130,-1.145
4150,-0.190,-1.160
4151,-0.205,-1.140
4152,-0.165,-1.145
4153,-0.155,-1.135
4154,-0.190,-1.135
4155,-0.225,-1.145
4156,-0.195,-1.135
4157,-0.155,-1.120
4158,-0.160,-1.100
4159,-0.180,-1.135
4160,-0.240,-1.130
4161,-0.175,-1.135
4162,-0.200,-1.090
4163,-0.115,-1.100
4164,-0.165,-1.105
4165,-0.150,-1.095
4166,-0.065,-1.095
4167,-0.080,-1.065
4168,-0.155,-1.040
4169,-0.125,-1.100
4170,-0.125,-1.110
4171,-0.130,-1.085
4172,-0.145,-1.080
4173,-0.150,-1.065
4174,-0.235,-1.045
4175,-0.155,-1.050
4176,-0.185,-1.060
4177,-0.165,-1.065
4178,-0.280,-1.010
4179,-0.220,-1.065
4180,-0.040,-1.040
4181,0.415,-0.995
4182,0.775,-0.975
4183,0.325,-0.980
4184,-0.140,-1.035
4185,-0.295,-0.990
4186,-0.295,-0.830
4187,-0.475,-0.630
4188,-0.465,-0.425
4189,-0.535,-0.510
4190,-0.345,-0.585
4191,-0.165,-0.680
4192,-0.245,-0.895
4193,-0.195,-0.965
4194,-0.170,-0.955
4195,-0.105,-0.950
4196,-0.130,-0.985
4197,-0.160,-0.990
4198,-0.110,-0.985
4199,-0.030,-0.970
4200,-0.080,-0.970
4201,-0.135,-0.990
4202,-0.095,-0.985
4203,0.025,-0.935
4204,-0.025,-0.965
4205,0.040,-0.985
4206,0.060,-0.990
4207,0.015,-0.990
4208,0.165,-0.970
4209,0.080,-0.955
4210,0.095,-0.965
4211,0.200,-0.965
4212,0.175,-0.985
4213,0.160,-0.990
4214,0.140,-0.985
4215,0.100,-0.980
4216,0.065,-0.985
4217,0.050,-0.960
4218,0.000,-0.960
4219,-0.005,-0.950
4220,-0.090,-0.915
4221,-0.135,-0.940
4222,-0.050,-0.915
4223,-0.125,-0.895
4224,-0.105,-0.910
4225,-0.215,-0.890
4226,-0.190,-0.875
4227,-0.120,-0.835
4228,-0.110,-0.830
4229,-0.165,-0.835
4230,-0.160,-0.845
4231,-0.150,-0.785
4232,-0.115,-0.810
4233,-0.090,-0.805
4234,-0.085,-0.795
4235,-0.130,-0.805
4236,-0.215,-0.830
4237,-0.120,-0.810
4238,-0.135,-0.790
4239,-0.160,-0.805
4240,-0.105,-0.795
4241,-0.070,-0.800
4242,-0.065,-0.760
4243,-0.175,-0.790
4244,-0.130,-0.825
4245,-0.130,-0.745
4246,-0.125,-0.800
4247,-0.140,-0.765
4248,-0.155,-0.750
4249,-0.140,-0.725
4250,-0.125,-0.745
4251,-0.190,-0.765
4252,-0.105,-0.740
4253,-0.220,-0.705
4254,-0.225,-0.735
4255,-0.155,-0.725
4256,-0.170,-0.715
4257,-0.155,-0.735
4258,-0.075,-0.715
4259,-0.215,-0.685
4260,-0.170,-0.695
4261,-0.165,-0.675
4262,-0.220,-0.680
4263,-0.190,-0.695
4264,-0.200,-0.695
4265,-0.160,-0.645
4266,-0.200,-0.655
4267,-0.185,-0.700
4268,-0.160,-0.670
4269,-0.145,-0.655
4270,-0.105,-0.655
4271,-0.130,-0.625
4272,-0.080,-0.625
4273,-0.110,-0.580
4274,-0.150,-0.560
4275,-0.090,-0.515
4276,-0.100,-0.585
4277,-0.145,-0.610
4278,-0.110,-0.645
4279,-0.150,-0.620
4280,-0.110,-0.600
4281,-0.095,-0.590
4282,-0.245,-0.555
4283,-0.250,-0.605
4284,-0.205,-0.570
4285,-0.230,-0.590
4286,-0.245,-0.580
4287,-0.255,-0.545
4288,-0.085,-0.550
4289,0.345,-0.455
4290,0.710,-0.410
4291,0.520,-0.415
4292,-0.075,-0.480
4293,-0.275,-0.365
4294,-0.395,-0.150
4295,-0.485,0.125
4296,-0.540,0.435
4297,-0.540,0.340
4298,-0.325,0.255
4299,-0.285,0.195
4300,-0.220,-0.120
4301,-0.170,-0.250
4302,-0.110,-0.280
4303,-0.150,-0.310
4304,-0.150,-0.380
4305,-0.075,-0.335
4306,-0.125,-0.360
4307,-0.110,-0.355
4308,-0.125,-0.295
4309,-0.080,-0.370
4310,-0.070,-0.355
4311,-0.030,-0.355
4312,0.025,-0.345
4313,0.000,-0.390
4314,0.030,-0.375
4315,0.080,-0.345
4316,0.040,-0.395
4317,0.110,-0.410
4318,0.130,-0.385
4319,0.130,-0.380
4320,0.150,-0.395
4321,0.215,-0.420
4322,0.220,-0.400
4323,0.120,-0.430
4324,0.075,-0.420
4325,0.045,-0.380
4326,0.000,-0.320
4327,-0.055,-0.325
4328,-0.115,-0.270
4329,-0.120,-0.220
4330,-0.110,-0.205
4331,-0.145,-0.175
4332,-0.110,-0.170
4333,-0.120,-0.145
4334,-0.125,-0.135
4335,-0.165,-0.125
4336,-0.140,-0.100
4337,-0.170,-0.085
4338,-0.145,-0.075
4339,-0.155,-0.040
4340,-0.170,-0.030
4341,-0.160,-0.030
4342,-0.130,-0.010
4343,-0.165,-0.005
4344,-0.130,0.005
4345,-0.165,0.035
4346,-0.135,0.015
4347,-0.120,0.060
4348,-0.135,0.035
4349,-0.145,0.045
4350,-0.090,0.045
4351,-0.130,0.050
4352,-0.155,0.070
4353,-0.090,0.050
4354,-0.170,0.050
4355,-0.175,0.060
4356,-0.140,0.105
4357,-0.110,0.100
4358,-0.165,0.090
4359,-0.155,0.105
4360,-0.145,0.085
4361,-0.135,0.100
4362,-0.125,0.130
4363,-0.080,0.115
4364,-0.140,0.110
4365,-0.190,0.125
4366,-0.160,0.145
4367,-0.155,0.125
4368,-0.155,0.125
4369,-0.155,0.160
4370,-0.140,0.145
4371,-0.120,0.175
4372,-0.140,0.160
4373,-0.115,0.155
4374,-0.140,0.175
4375,-0.175,0.180
4376,-0.160,0.185
4377,-0.140,0.190
4378,-0.105,0.215
4379,-0.095,0.225
4380,-0.065,0.265
4381,-0.070,0.320
4382,-0.050,0.335
4383,-0.080,0.340
4384,-0.065,0.295
4385,-0.050,0.230
4386,-0.025,0.205
4387,-0.070,0.195
4388,-0.060,0.255
4389,-0.090,0.235
4390,-0.105,0.245
4391,-0.130,0.240
4392,-0.190,0.220
4393,-0.185,0.230
4394,-0.175,0.275
4395,-0.165,0.280
4396,0.015,0.360
4397,0.475,0.410
4398,0.790,0.445
4399,0.390,0.450
4400,-0.075,0.425
4401,-0.270,0.540
4402,-0.300,0.750
4403,-0.460,1.060
4404,-0.510,1.200
4405,-0.440,1.075
4406,-0.240,1.045
4407,-0.130,0.910
4408,-0.085,0.645
4409,-0.110,0.555
4410,-0.060,0.470
4411,-0.010,0.480
4412,-0.055,0.445
4413,-0.035,0.435
4414,-0.055,0.445
4415,-0.005,0.420
4416,-0.040,0.380
4417,-0.030,0.400
4418,0.030,0.410
4419,0.020,0.365
4420,0.045,0.420
4421,0.090,0.420
4422,0.115,0.415
4423,0.150,0.385
4424,0.120,0.375
4425,0.150,0.375
4426,0.205,0.350
4427,0.195,0.330
4428,0.250,0.315
4429,0.240,0.315
4430,0.255,0.315
4431,0.200,0.305
4432,0.175,0.305
4433,0.140,0.310
4434,0.105,0.345
4435,0.070,0.390
4436,0.000,0.375
4437,0.010,0.445
4438,-0.005,0.455
4439,-0.050,0.465
4440,-0.080,0.505
4441,-0.085,0.520
4442,-0.060,0.535
4443,-0.055,0.545
4444,-0.070,0.565
4445,-0.065,0.580
4446,-0.080,0.565
4447,-0.105,0.585
4448,-0.055,0.610
4449,-0.090,0.605
4450,-0.060,0.615
4451,-0.035,0.600
4452,-0.060,0.620
4453,-0.095,0.630
4454,-0.050,0.640
4455,-0.050,0.665
4456,-0.035,0.650
4457,-0.040,0.655
4458,-0.030,0.650
4459,-0.045,0.645
4460,-0.015,0.650
4461,-0.035,0.685
4462,-0.070,0.640
4463,-0.035,0.640
4464,-0.040,0.650
4465,-0.025,0.675
4466,-0.035,0.650
4467,-0.055,0.645
4468,-0.070,0.665
4469,-0.090,0.670
4470,-0.075,0.690
4471,-0.045,0.695
4472,-0.060,0.700
4473,-0.080,0.715
4474,-0.040,0.720
4475,-0.085,0.720
4476,-0.060,0.715
4477,-0.040,0.760
4478,-0.040,0.760
4479,-0.060,0.760
4480,-0.095,0.780
4481,-0.075,0.775
4482,-0.100,0.785
4483,-0.040,0.790
4484,-0.040,0.795
4485,-0.060,0.805
4486,-0.065,0.810
4487,-0.025,0.795
4488,-0.005,0.830
4489,0.020,0.845
4490,0.015,0.880
4491,0.015,0.900
4492,0.030,0.920
4493,0.030,0.870
4494,0.025,0.820
4495,0.000,0.795
4496,-0.025,0.765
4497,-0.010,0.780
4498,-0.045,0.795
4499,-0.080,0.800
4500,-0.080,0.800
4501,-0.065,0.785
4502,-0.040,0.785
4503,-0.045,0.780
4504,-0.040,0.785
4505,0.090,0.800
4506,0.460,0.880
4507,0.780,0.900
4508,0.495,0.905
4509,0.000,0.870
4510,-0.175,0.980
4511,-0.215,1.155
4512,-0.300,1.425
4513,-0.320,1.635
4514,-0.335,1.510
4515,-0.180,1.425
4516,-0.055,1.340
4517,-0.015,1.065
4518,0.000,0.975
4519,0.030,0.910
4520,0.060,0.880
4521,0.025,0.860
4522,0.090,0.855
4523,0.000,0.820
4524,0.065,0.795
4525,0.075,0.810
4526,0.090,0.810
4527,0.115,0.770
4528,0.120,0.800
4529,0.125,0.790
4530,0.150,0.780
4531,0.170,0.775
4532,0.215,0.750
4533,0.255,0.740
4534,0.260,0.720
4535,0.265,0.715
4536,0.265,0.695
4537,0.305,0.690
4538,0.305,0.660
4539,0.305,0.665
4540,0.325,0.640
4541,0.290,0.635
4542,0.215,0.630
4543,0.185,0.655
4544,0.195,0.670
4545,0.095,0.685
4546,0.050,0.715
4547,0.035,0.725
4548,-0.020,0.755
4549,0.000,0.785
4550,-0.010,0.815
4551,0.015,0.805
4552,-0.035,0.795
4553,-0.040,0.805
4554,-0.015,0.815
4555,-0.030,0.830
4556,-0.045,0.820
4557,-0.050,0.835
4558,-0.045,0.845
4559,0.000,0.835
4560,0.000,0.830
4561,-0.055,0.835
4562,-0.045,0.835
4563,-0.045,0.855
4564,-0.005,0.880
4565,0.015,0.845
4566,0.005,0.855
4567,-0.005,0.830
4568,0.015,0.850
4569,0.005,0.845
4570,-0.035,0.845
4571,-0.040,0.860
4572,-0.010,0.855
4573,-0.060,0.850
4574,-0.090,0.860
4575,-0.060,0.855
4576,-0.060,0.865
4577,-0.050,0.860
4578,-0.055,0.865
4579,-0.055,0.845
4580,-0.030,0.840
4581,-0.045,0.860
4582,-0.080,0.855
4583,-0.050,0.865
4584,-0.070,0.865
4585,-0.050,0.860
4586,-0.050,0.860
4587,-0.095,0.870
4588,-0.095,0.865
4589,-0.045,0.865
4590,-0.070,0.865
4591,-0.105,0.870
4592,-0.095,0.850
4593,-0.095,0.865
4594,-0.070,0.860
4595,-0.065,0.870
4596,-0.070,0.870
4597,-0.060,0.865
4598,0.000,0.855
4599,-0.030,0.915
4600,0.000,0.935
4601,0.005,0.985
4602,-0.025,0.955
4603,-0.010,0.895
4604,0.015,0.855
4605,-0.060,0.820
4606,-0.035,0.835
4607,-0.040,0.865
4608,-0.080,0.865
4609,-0.085,0.850
4610,-0.085,0.835
4611,-0.075,0.805
4612,-0.070,0.830
4613,-0.115,0.815
4614,-0.105,0.860
4615,0.100,0.890
4616,0.540,0.960
4617,0.750,0.965
4618,0.360,0.965
4619,-0.070,0.975
4620,-0.180,1.105
4621,-0.270,1.310
4622,-0.390,1.625
4623,-0.400,1.735
4624,-0.385,1.550
4625,-0.140,1.475
4626,-0.095,1.330
4627,-0.105,1.080
4628,-0.035,0.995
4629,-0.005,0.950
4630,-0.025,0.885
4631,-0.010,0.885
4632,-0.005,0.850
4633,0.015,0.800
4634,0.020,0.820
4635,0.085,0.780
4636,0.035,0.780
4637,0.015,0.750
4638,0.085,0.745
4639,0.095,0.740
4640,0.120,0.725
4641,0.135,0.715
4642,0.190,0.690
4643,0.215,0.665
4644,0.230,0.635
4645,0.280,0.605
4646,0.315,0.590
4647,0.315,0.570
4648,0.320,0.565
4649,0.240,0.520
4650,0.225,0.555
4651,0.205,0.555
4652,0.180,0.555
4653,0.100,0.570
4654,0.040,0.565
4655,0.045,0.605
4656,0.005,0.625
4657,0.000,0.655
4658,0.005,0.665
4659,0.015,0.665
4660,-0.045,0.670
4661,-0.030,0.675
4662,0.000,0.715
4663,-0.030,0.695
4664,-0.055,0.685
4665,-0.045,0.695
4666,-0.010,0.690
4667,-0.055,0.695
4668,-0.055,0.680
4669,-0.065,0.695
4670,-0.030,0.680
4671,-0.035,0.675
4672,-0.005,0.690
4673,0.010,0.660
4674,-0.075,0.640
4675,-0.050,0.645
4676,-0.025,0.640
4677,-0.030,0.650
4678,-0.030,0.650
4679,-0.060,0.640
4680,-0.060,0.645
4681,-0.055,0.655
4682,-0.065,0.645
4683,-0.040,0.635
4684,-0.040,0.640
4685,-0.100,0.620
4686,-0.085,0.635
4687,-0.090,0.630
4688,-0.135,0.620
4689,-0.130,0.595
4690,-0.130,0.640
4691,-0.125,0.620
4692,-0.090,0.645
4693,-0.085,0.655
4694,-0.095,0.620
4695,-0.085,0.620
4696,-0.055,0.620
4697,-0.120,0.635
4698,-0.125,0.630
4699,-0.105,0.625
4700,-0.145,0.630
4701,-0.140,0.650
4702,-0.125,0.640
4703,-0.085,0.630
4704,-0.125,0.625
4705,-0.115,0.615
4706,-0.090,0.635
4707,-0.075,0.660
4708,-0.040,0.680
4709,-0.030,0.710
4710,-0.060,0.750
4711,-0.060,0.680
4712,-0.110,0.620
4713,-0.090,0.580
4714,-0.075,0.580
4715,-0.115,0.590
4716,-0.120,0.630
4717,-0.110,0.625
4718,-0.155,0.610
4719,-0.165,0.590
4720,-0.175,0.585
4721,-0.175,0.600
4722,-0.140,0.615
4723,0.005,0.640
4724,0.370,0.715
4725,0.705,0.745
4726,0.445,0.755
4727,-0.090,0.755
4728,-0.245,0.835
4729,-0.330,1.045
4730,-0.385,1.360
4731,-0.495,1.530
4732,-0.485,1.395
4733,-0.265,1.335
4734,-0.135,1.260
4735,-0.115,0.970
4736,-0.100,0.850
4737,-0.045,0.810
4738,-0.080,0.780
4739,-0.060,0.750
4740,-0.055,0.740
4741,-0.075,0.725
4742,-0.015,0.720
4743,0.030,0.710
4744,-0.035,0.695
4745,0.000,0.675
4746,0.025,0.700
4747,0.055,0.700
4748,0.035,0.665
4749,0.085,0.665
4750,0.120,0.650
4751,0.145,0.640
4752,0.180,0.650
4753,0.190,0.610
4754,0.235,0.600
4755,0.235,0.575
4756,0.255,0.570
4757,0.200,0.575
4758,0.150,0.565
4759,0.180,0.590
4760,0.120,0.590
4761,0.070,0.620
4762,0.060,0.645
4763,0.000,0.695
4764,-0.035,0.730
4765,-0.055,0.765
4766,-0.065,0.820
4767,-0.085,0.830
4768,-0.080,0.860
4769,-0.070,0.860
4770,-0.095,0.860
4771,-0.070,0.875
4772,-0.110,0.920
4773,-0.090,0.900
4774,-0.095,0.925
4775,-0.135,0.935
4776,-0.065,0.955
4777,-0.085,0.965
4778,-0.135,0.970
4779,-0.065,0.980
4780,-0.065,1.025
4781,-0.110,1.025
4782,-0.100,1.045
4783,-0.070,1.060
4784,-0.080,1.060
4785,-0.085,1.085
4786,-0.090,1.080
4787,-0.080,1.095
4788,-0.125,1.100
4789,-0.095,1.120
4790,-0.085,1.120
4791,-0.125,1.130
4792,-0.110,1.130
4793,-0.145,1.155
4794,-0.200,1.170
4795,-0.155,1.220
4796,-0.125,1.195
4797,-0.180,1.205
4798,-0.145,1.210
4799,-0.160,1.215
4800,-0.165,1.225
4801,-0.190,1.220
4802,-0.200,1.265
4803,-0.190,1.285
4804,-0.175,1.270
4805,-0.195,1.270
4806,-0.205,1.295
4807,-0.150,1.305
4808,-0.155,1.320
4809,-0.170,1.300
4810,-0.210,1.335
4811,-0.205,1.350
4812,-0.220,1.355
4813,-0.175,1.340
4814,-0.190,1.345
4815,-0.175,1.380
4816,-0.140,1.420
4817,-0.120,1.450
4818,-0.100,1.475
4819,-0.135,1.500
4820,-0.155,1.375
4821,-0.135,1.305
4822,-0.140,1.300
4823,-0.160,1.330
4824,-0.220,1.330
4825,-0.250,1.360
4826,-0.225,1.355
4827,-0.240,1.350
4828,-0.180,1.330
4829,-0.200,1.350
4830,-0.215,1.345
4831,-0.150,1.355
4832,0.170,1.420
4833,0.570,1.495
4834,0.510,1.500
4835,-0.025,1.400
4836,-0.255,1.485
4837,-0.355,1.725
4838,-0.445,2.010
4839,-0.580,2.235
4840,-0.570,2.120
4841,-0.325,2.050
4842,-0.175,1.970
4843,-0.195,1.655
4844,-0.175,1.535
4845,-0.140,1.525
4846,-0.190,1.455
4847,-0.130,1.400
4848,-0.145,1.385
4849,-0.125,1.345
4850,-0.080,1.350
4851,-0.080,1.315
4852,-0.065,1.290
4853,-0.100,1.280
4854,-0.085,1.280
4855,-0.005,1.285
4856,-0.040,1.260
4857,0.005,1.260
4858,0.045,1.230
4859,0.050,1.225
4860,0.105,1.235
4861,0.105,1.165
4862,0.180,1.155
4863,0.140,1.160
4864,0.145,1.130
4865,0.175,1.120
4866,0.120,1.125
4867,0.065,1.080
4868,0.040,1.100
4869,0.060,1.120
4870,-0.010,1.135
4871,-0.045,1.175
4872,-0.120,1.185
4873,-0.125,1.220
4874,-0.150,1.235
4875,-0.160,1.255
4876,-0.180,1.245
4877,-0.195,1.245
4878,-0.190,1.250
4879,-0.215,1.255
4880,-0.195,1.245
4881,-0.165,1.245
4882,-0.245,1.245
4883,-0.235,1.270
4884,-0.200,1.260
4885,-0.190,1.265
4886,-0.150,1.270
4887,-0.260,1.240
4888,-0.185,1.260
4889,-0.130,1.295
4890,-0.150,1.225
4891,-0.175,1.205
4892,-0.185,1.225
4893,-0.170,1.215
4894,-0.165,1.205
4895,-0.185,1.205
4896,-0.170,1.210
4897,-0.165,1.185
4898,-0.170,1.185
4899,-0.150,1.185
4900,-0.185,1.180
4901,-0.175,1.175
4902,-0.155,1.165
4903,-0.220,1.170
4904,-0.220,1.140
4905,-0.225,1.160
4906,-0.185,1.150
4907,-0.215,1.145
4908,-0.150,1.140
4909,-0.220,1.125
4910,-0.235,1.110
4911,-0.240,1.120
4912,-0.220,1.115
4913,-0.215,1.125
4914,-0.220,1.100
4915,-0.250,1.100
4916,-0.225,1.115
4917,-0.210,1.120
4918,-0.245,1.090
4919,-0.210,1.115
4920,-0.200,1.085
4921,-0.230,1.085
4922,-0.195,1.120
4923,-0.190,1.120
4924,-0.180,1.140
4925,-0.180,1.160
4926,-0.130,1.180
4927,-0.180,1.080
4928,-0.175,1.010
4929,-0.180,1.020
4930,-0.220,1.010
4931,-0.235,1.035
4932,-0.275,1.045
4933,-0.275,1.030
4934,-0.265,1.025
4935,-0.265,1.005
4936,-0.290,1.000
4937,-0.260,1.015
4938,-0.270,0.990
4939,-0.080,1.020
4940,0.310,1.080
4941,0.605,1.110
4942,0.270,1.105
4943,-0.210,1.070
4944,-0.350,1.185
4945,-0.460,1.330
4946,-0.505,1.630
4947,-0.620,1.865
4948,-0.585,1.725
4949,-0.405,1.645
4950,-0.270,1.510
4951,-0.265,1.230
4952,-0.235,1.130
4953,-0.235,1.085
4954,-0.245,1.045
4955,-0.175,1.010
4956,-0.225,0.990
4957,-0.210,0.965
4958,-0.185,0.985
4959,-0.190,0.950
4960,-0.175,0.935
4961,-0.135,0.920
4962,-0.125,0.900
4963,-0.090,0.890
4964,-0.055,0.870
4965,-0.035,0.835
4966,-0.050,0.815
4967,0.000,0.785
4968,0.030,0.765
4969,0.060,0.720
4970,0.115,0.730
4971,0.095,0.725
4972,0.090,0.670
4973,0.125,0.685
4974,0.040,0.685
4975,-0.010,0.650
4976,-0.060,0.660
4977,-0.090,0.700
4978,-0.115,0.740
4979,-0.160,0.750
4980,-0.195,0.770
4981,-0.220,0.785
4982,-0.185,0.805
4983,-0.235,0.820
4984,-0.300,0.830
4985,-0.255,0.835
4986,-0.230,0.865
4987,-0.225,0.850
4988,-0.250,0.850
4989,-0.260,0.855
4990,-0.245,0.865
4991,-0.265,0.860
4992,-0.255,0.870
4993,-0.300,0.855
4994,-0.240,0.880
4995,-0.210,0.900
4996,-0.195,0.875
4997,-0.210,0.860
4998,-0.145,0.890
4999,-0.225,0.880
5000,-0.230,0.880
5001,-0.225,0.880
5002,-0.220,0.875
5003,-0.235,0.880
5004,-0.200,0.885
5005,-0.170,0.865
5006,-0.205,0.890
5007,-0.270,0.895
5008,-0.245,0.890
5009,-0.195,0.900
5010,-0.235,0.895
5011,-0.265,0.900
5012,-0.245,0.885
5013,-0.230,0.915
5014,-0.200,0.870
5015,-0.210,0.865
5016,-0.320,0.870
5017,-0.285,0.870
5018,-0.275,0.875
5019,-0.260,0.870
5020,-0.255,0.855
5021,-0.245,0.845
5022,-0.250,0.850
5023,-0.250,0.845
5024,-0.260,0.825
5025,-0.255,0.835
5026,-0.265,0.835
5027,-0.285,0.820
5028,-0.275,0.815
5029,-0.205,0.855
5030,-0.210,0.840
5031,-0.280,0.805
5032,-0.185,0.830
5033,-0.185,0.875
5034,-0.225,0.900
5035,-0.220,0.945
5036,-0.175,0.935
5037,-0.180,0.845
5038,-0.175,0.800
5039,-0.185,0.770
5040,-0.190,0.785
5041,-0.195,0.790
5042,-0.230,0.795
5043,-0.325,0.805
5044,-0.300,0.805
5045,-0.285,0.810
5046,-0.220,0.810
5047,-0.275,0.800
5048,-0.315,0.830
5049,-0.090,0.865
5050,0.360,0.970
5051,0.630,0.975
5052,0.265,0.950
5053,-0.300,0.895
5054,-0.435,1.030
5055,-0.430,1.250
5056,-0.520,1.555
5057,-0.595,1.735
5058,-0.595,1.590
5059,-0.360,1.515
5060,-0.300,1.380
5061,-0.285,1.065
5062,-0.230,0.970
5063,-0.225,0.895
5064,-0.185,0.850
5065,-0.190,0.800
5066,-0.220,0.770
5067,-0.215,0.760
5068,-0.180,0.745
5069,-0.175,0.735
5070,-0.140,0.700
5071,-0.150,0.695
5072,-0.145,0.685
5073,-0.110,0.685
5074,-0.040,0.680
5075,-0.010,0.655
5076,-0.085,0.660
5077,-0.040,0.620
5078,0.030,0.615
5079,0.080,0.595
5080,0.075,0.575
5081,0.115,0.570
5082,0.110,0.565
5083,0.085,0.510
5084,0.030,0.535
5085,0.005,0.520
5086,0.000,0.525
5087,-0.050,0.565
5088,-0.115,0.595
5089,-0.165,0.590
5090,-0.185,0.645
5091,-0.240,0.660
5092,-0.250,0.700
5093,-0.245,0.725
5094,-0.245,0.755
5095,-0.280,0.745
5096,-0.280,0.780
5097,-0.235,0.820
5098,-0.205,0.800
5099,-0.310,0.850
5100,-0.275,0.840
5101,-0.325,0.870
5102,-0.310,0.845
5103,-0.295,0.815
5104,-0.305,0.825
5105,-0.300,0.865
5106,-0.240,0.865
5107,-0.265,0.900
5108,-0.305,0.895
5109,-0.280,0.905
5110,-0.250,0.920
5111,-0.245,0.915
5112,-0.295,0.910
5113,-0.270,0.945
5114,-0.295,0.955
5115,-0.305,0.940
5116,-0.290,1.000
5117,-0.240,1.030
5118,-0.245,0.995
5119,-0.325,0.995
5120,-0.315,0.995
5121,-0.325,1.065
5122,-0.325,1.090
5123,-0.365,1.050
5124,-0.370,1.065
5125,-0.335,1.070
5126,-0.335,1.080
5127,-0.305,1.105
5128,-0.320,1.090
5129,-0.300,1.095
5130,-0.300,1.110
5131,-0.355,1.115
5132,-0.325,1.125
5133,-0.315,1.155
5134,-0.335,1.155
5135,-0.335,1.150
5136,-0.325,1.155
5137,-0.295,1.175
5138,-0.315,1.150
5139,-0.345,1.205
5140,-0.280,1.235
5141,-0.245,1.245
5142,-0.245,1.280
5143,-0.275,1.325
5144,-0.245,1.325
5145,-0.285,1.240
5146,-0.270,1.210
5147,-0.275,1.200
5148,-0.275,1.230
5149,-0.285,1.215
5150,-0.340,1.240
5151,-0.375,1.235
5152,-0.365,1.250
5153,-0.400,1.250
5154,-0.355,1.215
5155,-0.355,1.225
5156,-0.345,1.225
5157,-0.065,1.305
5158,0.335,1.360
5159,0.505,1.355
5160,0.015,1.330
5161,-0.375,1.320
5162,-0.480,1.480
5163,-0.575,1.740
5164,-0.635,2.190
5165,-0.690,2.185
5166,-0.560,1.970
5167,-0.380,1.935
5168,-0.340,1.635
5169,-0.300,1.385
5170,-0.280,1.335
5171,-0.275,1.250
5172,-0.265,1.200
5173,-0.230,1.180
5174,-0.270,1.155
5175,-0.250,1.100
5176,-0.235,1.115
5177,-0.210,1.105
5178,-0.170,1.065
5179,-0.180,1.040
5180,-0.190,1.035
5181,-0.150,0.995
5182,-0.095,0.985
5183,-0.070,0.975
5184,-0.065,0.940
5185,-0.035,0.885
5186,-0.020,0.880
5187,0.000,0.845
5188,0.015,0.810
5189,0.015,0.775
5190,0.030,0.740
5191,0.005,0.755
5192,-0.010,0.745
5193,-0.045,0.710
5194,-0.100,0.715
5195,-0.150,0.730
5196,-0.200,0.755
5197,-0.230,0.760
5198,-0.255,0.800
5199,-0.295,0.815
5200,-0.315,0.820
5201,-0.355,0.830
5202,-0.320,0.825
5203,-0.295,0.840
5204,-0.280,0.820
5205,-0.290,0.780
5206,-0.320,0.805
5207,-0.330,0.775
5208,-0.330,0.770
5209,-0.290,0.775
5210,-0.325,0.755
5211,-0.320,0.760
5212,-0.320,0.745
5213,-0.325,0.730
5214,-0.340,0.705
5215,-0.315,0.710
5216,-0.295,0.675
5217,-0.285,0.665
5218,-0.280,0.635
5219,-0.315,0.640
5220,-0.315,0.625
5221,-0.290,0.595
5222,-0.300,0.585
5223,-0.335,0.535
5224,-0.340,0.515
5225,-0.330,0.495
5226,-0.330,0.440
5227,-0.340,0.425
5228,-0.335,0.395
5229,-0.315,0.360
5230,-0.305,0.315
5231,-0.330,0.295
5232,-0.315,0.240
5233,-0.315,0.205
5234,-0.355,0.185
5235,-0.360,0.165
5236,-0.360,0.150
5237,-0.360,0.085
5238,-0.355,0.060
5239,-0.355,0.050
5240,-0.330,0.030
5241,-0.315,0.000
5242,-0.320,-0.045
5243,-0.320,-0.040
5244,-0.305,-0.080
5245,-0.270,-0.090
5246,-0.250,-0.100
5247,-0.310,-0.115
5248,-0.270,-0.090
5249,-0.220,-0.055
5250,-0.240,-0.055
5251,-0.240,-0.210
5252,-0.250,-0.245
5253,-0.245,-0.255
5254,-0.255,-0.280
5255,-0.245,-0.270
5256,-0.275,-0.220
5257,-0.370,-0.245
5258,-0.365,-0.235
5259,-0.340,-0.225
5260,-0.310,-0.250
5261,-0.340,-0.245
5262,-0.270,-0.210
5263,0.045,-0.190
5264,0.510,-0.125
5265,0.550,-0.135
5266,-0.080,-0.170
5267,-0.365,-0.100
5268,-0.445,0.070
5269,-0.560,0.305
5270,-0.635,0.610
5271,-0.650,0.585
5272,-0.455,0.465
5273,-0.275,0.375
5274,-0.275,0.105
5275,-0.240,-0.035
5276,-0.185,-0.095
5277,-0.255,-0.175
5278,-0.195,-0.205
5279,-0.210,-0.220
5280,-0.200,-0.235
5281,-0.200,-0.250
5282,-0.165,-0.250
5283,-0.175,-0.275
5284,-0.135,-0.280
5285,-0.100,-0.300
5286,-0.105,-0.315
5287,-0.050,-0.335
5288,0.000,-0.345
5289,0.010,-0.330
5290,0.045,-0.400
5291,0.065,-0.425
5292,0.050,-0.440
5293,0.095,-0.465
5294,0.100,-0.505
5295,0.150,-0.505
5296,0.085,-0.530
5297,0.035,-0.560
5298,0.020,-0.530
5299,-0.020,-0.530
5300,-0.020,-0.520
5301,-0.115,-0.510
5302,-0.100,-0.490
5303,-0.130,-0.450
5304,-0.210,-0.415
5305,-0.170,-0.410
5306,-0.200,-0.415
5307,-0.215,-0.430
5308,-0.205,-0.415
5309,-0.230,-0.410
5310,-0.205,-0.395
5311,-0.230,-0.410
5312,-0.200,-0.415
5313,-0.215,-0.400
5314,-0.200,-0.430
5315,-0.195,-0.430
5316,-0.210,-0.435
5317,-0.185,-0.415
5318,-0.210,-0.445
5319,-0.270,-0.445
5320,-0.230,-0.445
5321,-0.235,-0.435
5322,-0.225,-0.450
5323,-0.200,-0.455
5324,-0.185,-0.465
5325,-0.170,-0.465
5326,-0.175,-0.465
5327,-0.255,-0.485
5328,-0.235,-0.490
5329,-0.210,-0.475
5330,-0.255,-0.480
5331,-0.235,-0.485
5332,-0.220,-0.495
5333,-0.200,-0.465
5334,-0.180,-0.480
5335,-0.260,-0.480
5336,-0.230,-0.505
5337,-0.200,-0.465
5338,-0.220,-0.485
5339,-0.245,-0.450
5340,-0.210,-0.460
5341,-0.250,-0.460
5342,-0.260,-0.470
5343,-0.210,-0.470
5344,-0.235,-0.460
5345,-0.245,-0.480
5346,-0.245,-0.460
5347,-0.230,-0.455
5348,-0.245,-0.470
5349,-0.230,-0.485
5350,-0.205,-0.460
5351,-0.120,-0.470
5352,-0.195,-0.430
5353,-0.190,-0.400
5354,-0.155,-0.365
5355,-0.130,-0.330
5356,-0.200,-0.390
5357,-0.150,-0.455
5358,-0.170,-0.490
5359,-0.235,-0.450
5360,-0.225,-0.485
5361,-0.240,-0.470
5362,-0.265,-0.445
5363,-0.245,-0.455
5364,-0.230,-0.455
5365,-0.250,-0.465
5366,-0.260,-0.465
5367,-0.265,-0.450
5368,-0.030,-0.395
5369,0.390,-0.315
5370,0.645,-0.290
5371,0.250,-0.325
5372,-0.225,-0.345
5373,-0.370,-0.235
5374,-0.445,-0.045
5375,-0.435,0.240
5376,-0.565,0.470
5377,-0.550,0.320
5378,-0.310,0.305
5379,-0.240,0.170
5380,-0.255,-0.145
5381,-0.185,-0.240
5382,-0.165,-0.275
5383,-0.135,-0.320
5384,-0.110,-0.340
5385,-0.080,-0.365
5386,-0.135,-0.375
5387,-0.155,-0.390
5388,-0.110,-0.390
5389,-0.075,-0.390
5390,-0.045,-0.395
5391,-0.060,-0.405
5392,-0.005,-0.410
5393,0.000,-0.420
5394,0.045,-0.430
5395,0.060,-0.445
5396,0.055,-0.455
5397,0.120,-0.495
5398,0.195,-0.480
5399,0.135,-0.520
5400,0.135,-0.565
5401,0.170,-0.530
5402,0.185,-0.540
5403,0.120,-0.580
5404,0.100,-0.585
5405,0.050,-0.570
5406,-0.010,-0.540
5407,-0.015,-0.525
5408,-0.080,-0.480
5409,-0.075,-0.450
5410,-0.125,-0.435
5411,-0.170,-0.415
5412,-0.160,-0.405
5413,-0.140,-0.355
5414,-0.165,-0.360
5415,-0.135,-0.355
5416,-0.180,-0.345
5417,-0.175,-0.355
5418,-0.195,-0.355
5419,-0.150,-0.365
5420,-0.170,-0.335
5421,-0.150,-0.355
5422,-0.150,-0.355
5423,-0.185,-0.360
5424,-0.145,-0.325
5425,-0.180,-0.340
5426,-0.195,-0.335
5427,-0.165,-0.325
5428,-0.190,-0.330
5429,-0.150,-0.330
5430,-0.130,-0.340
5431,-0.140,-0.345
5432,-0.160,-0.355
5433,-0.175,-0.340
5434,-0.190,-0.345
5435,-0.175,-0.350
5436,-0.220,-0.335
5437,-0.220,-0.360
5438,-0.175,-0.365
5439,-0.205,-0.345
5440,-0.190,-0.350
5441,-0.160,-0.360
5442,-0.250,-0.370
5443,-0.230,-0.360
5444,-0.195,-0.350
5445,-0.245,-0.340
5446,-0.255,-0.350
5447,-0.250,-0.350
5448,-0.235,-0.355
5449,-0.245,-0.375
5450,-0.250,-0.385
5451,-0.255,-0.380
5452,-0.255,-0.355
5453,-0.250,-0.365
5454,-0.265,-0.400
5455,-0.250,-0.400
5456,-0.235,-0.395
5457,-0.235,-0.380
5458,-0.210,-0.345
5459,-0.215,-0.325
5460,-0.165,-0.305
5461,-0.160,-0.295
5462,-0.200,-0.395
5463,-0.220,-0.430
5464,-0.220,-0.440
5465,-0.195,-0.395
5466,-0.220,-0.395
5467,-0.285,-0.390
5468,-0.255,-0.390
5469,-0.260,-0.370
5470,-0.300,-0.405
5471,-0.305,-0.385
5472,-0.295,-0.395
5473,-0.225,-0.380
5474,-0.030,-0.345
5475,0.430,-0.285
5476,0.665,-0.275
5477,0.165,-0.320
5478,-0.315,-0.350
5479,-0.430,-0.235
5480,-0.440,-0.035
5481,-0.540,0.210
5482,-0.575,0.395
5483,-0.510,0.300
5484,-0.370,0.240
5485,-0.290,0.150
5486,-0.275,-0.140
5487,-0.265,-0.235
5488,-0.235,-0.285
5489,-0.245,-0.330
5490,-0.220,-0.370
5491,-0.180,-0.375
5492,-0.165,-0.385
5493,-0.190,-0.420
5494,-0.190,-0.410
5495,-0.135,-0.410
5496,-0.135,-0.430
5497,-0.110,-0.430
5498,-0.105,-0.435
5499,-0.100,-0.470
5500,-0.080,-0.495
5501,-0.055,-0.495
5502,0.000,-0.505
5503,0.045,-0.520
5504,0.055,-0.545
5505,0.100,-0.580
5506,0.135,-0.595
5507,0.115,-0.610
5508,0.170,-0.635
5509,0.070,-0.620
5510,0.015,-0.655
5511,-0.005,-0.635
5512,-0.075,-0.615
5513,-0.070,-0.595
5514,-0.105,-0.570
5515,-0.155,-0.530
5516,-0.180,-0.500
5517,-0.215,-0.510
5518,-0.245,-0.465
5519,-0.220,-0.460
5520,-0.200,-0.470
5521,-0.235,-0.470
5522,-0.260,-0.465
5523,-0.255,-0.455
5524,-0.245,-0.455
5525,-0.275,-0.425
5526,-0.220,-0.445
5527,-0.225,-0.440
5528,-0.255,-0.430
5529,-0.260,-0.440
5530,-0.225,-0.435
5531,-0.190,-0.455
5532,-0.190,-0.455
5533,-0.200,-0.440
5534,-0.215,-0.445
5535,-0.225,-0.430
5536,-0.230,-0.460
5537,-0.215,-0.470
5538,-0.195,-0.465
5539,-0.230,-0.470
5540,-0.220,-0.460
5541,-0.205,-0.460
5542,-0.220,-0.460
5543,-0.265,-0.450
5544,-0.245,-0.470
5545,-0.235,-0.475
5546,-0.255,-0.455
5547,-0.215,-0.455
5548,-0.250,-0.455
5549,-0.280,-0.465
5550,-0.275,-0.460
5551,-0.260,-0.485
5552,-0.250,-0.490
5553,-0.245,-0.435
5554,-0.255,-0.455
5555,-0.290,-0.475
5556,-0.255,-0.475
5557,-0.270,-0.480
5558,-0.275,-0.475
5559,-0.275,-0.475
5560,-0.285,-0.495
5561,-0.295,-0.465
5562,-0.270,-0.470
5563,-0.255,-0.475
5564,-0.265,-0.490
5565,-0.200,-0.475
5566,-0.170,-0.440
5567,-0.160,-0.425
5568,-0.220,-0.410
5569,-0.190,-0.415
5570,-0.225,-0.500
5571,-0.215,-0.540
5572,-0.200,-0.565
5573,-0.185,-0.555
5574,-0.275,-0.570
5575,-0.265,-0.540
5576,-0.315,-0.535
5577,-0.320,-0.535
5578,-0.305,-0.565
5579,-0.290,-0.565
5580,-0.280,-0.550
5581,-0.285,-0.560
5582,-0.125,-0.540
5583,0.295,-0.455
5584,0.645,-0.420
5585,0.335,-0.415
5586,-0.210,-0.485
5587,-0.390,-0.395
5588,-0.485,-0.240
5589,-0.530,0.015
5590,-0.615,0.280
5591,-0.610,0.190
5592,-0.400,0.075
5593,-0.285,0.040
5594,-0.265,-0.230
5595,-0.250,-0.360
5596,-0.225,-0.430
5597,-0.200,-0.465
5598,-0.220,-0.495
5599,-0.215,-0.510
5600,-0.190,-0.550
5601,-0.170,-0.555
5602,-0.145,-0.550
5603,-0.120,-0.565
5604,-0.100,-0.565
5605,-0.180,-0.590
5606,-0.110,-0.595
5607,-0.070,-0.570
5608,-0.015,-0.620
5609,-0.005,-0.620
5610,0.030,-0.635
5611,0.065,-0.660
5612,0.165,-0.675
5613,0.100,-0.695
5614,0.090,-0.720
5615,0.140,-0.735
5616,0.090,-0.730
5617,0.025,-0.720
5618,0.025,-0.725
5619,-0.035,-0.695
5620,-0.085,-0.675
5621,-0.125,-0.640
5622,-0.135,-0.615
5623,-0.140,-0.590
5624,-0.160,-0.575
5625,-0.200,-0.545
5626,-0.210,-0.525
5627,-0.215,-0.525
5628,-0.230,-0.515
5629,-0.220,-0.530
5630,-0.230,-0.515
5631,-0.205,-0.490
5632,-0.240,-0.500
5633,-0.235,-0.490
5634,-0.240,-0.480
5635,-0.220,-0.465
5636,-0.220,-0.460
5637,-0.215,-0.455
5638,-0.210,-0.450
5639,-0.245,-0.460
5640,-0.215,-0.460
5641,-0.205,-0.445
5642,-0.195,-0.455
5643,-0.200,-0.465
5644,-0.210,-0.470
5645,-0.200,-0.460
5646,-0.180,-0.475
5647,-0.185,-0.465
5648,-0.210,-0.470
5649,-0.200,-0.470
5650,-0.220,-0.470
5651,-0.245,-0.465
5652,-0.195,-0.465
5653,-0.230,-0.470
5654,-0.245,-0.475
5655,-0.235,-0.500
5656,-0.205,-0.465
5657,-0.255,-0.480
5658,-0.260,-0.460
5659,-0.240,-0.460
5660,-0.220,-0.465
5661,-0.235,-0.475
5662,-0.260,-0.470
5663,-0.290,-0.475
5664,-0.260,-0.475
5665,-0.255,-0.485
5666,-0.260,-0.455
5667,-0.265,-0.460
5668,-0.280,-0.460
5669,-0.260,-0.475
5670,-0.240,-0.465
5671,-0.255,-0.475
5672,-0.225,-0.455
5673,-0.205,-0.435
5674,-0.195,-0.405
5675,-0.180,-0.360
5676,-0.160,-0.350
5677,-0.140,-0.395
5678,-0.175,-0.470
5679,-0.220,-0.500
5680,-0.215,-0.530
5681,-0.225,-0.550
5682,-0.255,-0.505
5683,-0.285,-0.485
5684,-0.290,-0.500
5685,-0.315,-0.485
5686,-0.305,-0.485
5687,-0.290,-0.470
5688,-0.285,-0.485
5689,-0.185,-0.475
5690,0.185,-0.395
5691,0.540,-0.355
5692,0.435,-0.320
5693,-0.150,-0.400
5694,-0.425,-0.315
5695,-0.460,-0.170
5696,-0.510,0.110
5697,-0.590,0.380
5698,-0.590,0.295
5699,-0.430,0.195
5700,-0.295,0.160
5701,-0.260,-0.110
5702,-0.250,-0.265
5703,-0.235,-0.325
5704,-0.210,-0.370
5705,-0.185,-0.420
5706,-0.200,-0.450
5707,-0.220,-0.450
5708,-0.205,-0.465
5709,-0.205,-0.485
5710,-0.195,-0.475
5711,-0.175,-0.500
5712,-0.135,-0.495
5713,-0.110,-0.505
5714,-0.105,-0.520
5715,-0.105,-0.555
5716,-0.065,-0.540
5717,0.000,-0.555
5718,0.025,-0.595
5719,0.000,-0.595
5720,0.035,-0.620
5721,0.060,-0.635
5722,0.085,-0.660
5723,0.070,-0.660
5724,0.000,-0.665
5725,-0.060,-0.680
5726,-0.075,-0.645
5727,-0.115,-0.635
5728,-0.165,-0.610
5729,-0.170,-0.580
5730,-0.245,-0.560
5731,-0.245,-0.515
5732,-0.280,-0.480
5733,-0.265,-0.485
5734,-0.260,-0.465
5735,-0.320,-0.450
5736,-0.295,-0.430
5737,-0.315,-0.425
5738,-0.320,-0.460
5739,-0.300,-0.435
5740,-0.285,-0.440
5741,-0.300,-0.450
5742,-0.300,-0.430
5743,-0.325,-0.425
5744,-0.290,-0.435
5745,-0.290,-0.420
5746,-0.290,-0.410
5747,-0.265,-0.420
5748,-0.280,-0.440
5749,-0.275,-0.430
5750,-0.315,-0.450
5751,-0.305,-0.450
5752,-0.285,-0.430
5753,-0.295,-0.430
5754,-0.310,-0.450
5755,-0.295,-0.435
5756,-0.315,-0.445
5757,-0.320,-0.455
5758,-0.335,-0.455
5759,-0.310,-0.460
5760,-0.315,-0.460
5761,-0.335,-0.460
5762,-0.330,-0.460
5763,-0.325,-0.445
5764,-0.320,-0.455
5765,-0.315,-0.460
5766,-0.325,-0.440
5767,-0.315,-0.460
5768,-0.330,-0.460
5769,-0.335,-0.485
5770,-0.330,-0.470
5771,-0.325,-0.470
5772,-0.350,-0.475
5773,-0.335,-0.485
5774,-0.350,-0.455
5775,-0.350,-0.480
5776,-0.345,-0.495
5777,-0.345,-0.480
5778,-0.325,-0.460
5779,-0.315,-0.475
5780,-0.280,-0.470
5781,-0.255,-0.455
5782,-0.260,-0.420
5783,-0.230,-0.390
5784,-0.250,-0.375
5785,-0.255,-0.465
5786,-0.290,-0.525
5787,-0.290,-0.540
5788,-0.285,-0.535
5789,-0.275,-0.545
5790,-0.325,-0.535
5791,-0.395,-0.525
5792,-0.380,-0.530
5793,-0.375,-0.545
5794,-0.355,-0.560
5795,-0.385,-0.525
5796,-0.375,-0.525
5797,-0.135,-0.465
5798,0.305,-0.395
5799,0.485,-0.365
5800,-0.005,-0.390
5801,-0.410,-0.375
5802,-0.490,-0.255
5803,-0.530,-0.050
5804,-0.635,0.265
5805,-0.665,0.310
5806,-0.555,0.175
5807,-0.390,0.160
5808,-0.350,-0.015
5809,-0.330,-0.250
5810,-0.315,-0.320
5811,-0.305,-0.370
5812,-0.250,-0.425
5813,-0.265,-0.435
5814,-0.265,-0.465
5815,-0.220,-0.470
5816,-0.205,-0.480
5817,-0.195,-0.500
5818,-0.225,-0.490
5819,-0.215,-0.505
5820,-0.205,-0.515
5821,-0.160,-0.520
5822,-0.100,-0.510
5823,-0.100,-0.550
5824,-0.060,-0.565
5825,-0.025,-0.580
5826,0.005,-0.570
5827,0.015,-0.600
5828,0.030,-0.595
5829,0.040,-0.635
5830,0.035,-0.650
5831,0.000,-0.665
5832,-0.025,-0.670
5833,-0.060,-0.645
5834,-0.110,-0.660
5835,-0.135,-0.610
5836,-0.175,-0.610
5837,-0.255,-0.580
5838,-0.255,-0.535
5839,-0.255,-0.525
5840,-0.285,-0.515
5841,-0.305,-0.500
5842,-0.295,-0.485
5843,-0.310,-0.475
5844,-0.310,-0.460
5845,-0.320,-0.465
5846,-0.320,-0.495
5847,-0.285,-0.480
5848,-0.285,-0.465
5849,-0.330,-0.480
5850,-0.360,-0.465
5851,-0.330,-0.450
5852,-0.360,-0.450
5853,-0.365,-0.480
5854,-0.330,-0.465
5855,-0.325,-0.455
5856,-0.310,-0.460
5857,-0.340,-0.460
5858,-0.305,-0.470
5859,-0.290,-0.475
5860,-0.305,-0.470
5861,-0.315,-0.490
5862,-0.305,-0.470
5863,-0.285,-0.465
5864,-0.300,-0.465
5865,-0.310,-0.480
5866,-0.320,-0.480
5867,-0.340,-0.485
5868,-0.345,-0.495
5869,-0.355,-0.465
5870,-0.345,-0.465
5871,-0.320,-0.495
5872,-0.335,-0.495
5873,-0.330,-0.485
5874,-0.340,-0.495
5875,-0.340,-0.485
5876,-0.360,-0.500
5877,-0.370,-0.500
5878,-0.365,-0.495
5879,-0.385,-0.500
5880,-0.365,-0.510
5881,-0.370,-0.515
5882,-0.340,-0.520
5883,-0.330,-0.490
5884,-0.365,-0.500
5885,-0.335,-0.525
5886,-0.315,-0.535
5887,-0.320,-0.480
5888,-0.300,-0.480
5889,-0.280,-0.450
5890,-0.280,-0.415
5891,-0.305,-0.390
5892,-0.305,-0.500
5893,-0.275,-0.545
5894,-0.295,-0.555
5895,-0.300,-0.555
5896,-0.345,-0.555
5897,-0.365,-0.545
5898,-0.410,-0.520
5899,-0.395,-0.550
5900,-0.380,-0.535
5901,-0.385,-0.525
5902,-0.355,-0.535
5903,-0.325,-0.510
5904,-0.055,-0.465
5905,0.410,-0.415
5906,0.565,-0.385
5907,0.020,-0.400
5908,-0.420,-0.410
5909,-0.495,-0.285
5910,-0.535,-0.085
5911,-0.625,0.175
5912,-0.655,0.260
5913,-0.555,0.195
5914,-0.380,0.170
5915,-0.335,-0.030
5916,-0.320,-0.285
5917,-0.315,-0.355
5918,-0.280,-0.395
5919,-0.300,-0.450
5920,-0.265,-0.480
5921,-0.250,-0.520
5922,-0.260,-0.515
5923,-0.255,-0.525
5924,-0.255,-0.505
5925,-0.195,-0.535
5926,-0.180,-0.540
5927,-0.185,-0.550
5928,-0.155,-0.555
5929,-0.125,-0.555
5930,-0.070,-0.565
5931,-0.035,-0.585
5932,-0.025,-0.600
5933,0.025,-0.640
5934,0.050,-0.650
5935,0.040,-0.685
5936,0.025,-0.685
5937,0.040,-0.700
5938,0.055,-0.695
5939,-0.010,-0.700
5940,-0.075,-0.705
5941,-0.110,-0.685
5942,-0.160,-0.650
5943,-0.230,-0.650
5944,-0.245,-0.610
5945,-0.265,-0.615
5946,-0.260,-0.585
5947,-0.270,-0.575
5948,-0.295,-0.565
5949,-0.295,-0.545
5950,-0.310,-0.535
5951,-0.335,-0.515
5952,-0.325,-0.515
5953,-0.295,-0.525
5954,-0.335,-0.535
5955,-0.350,-0.520
5956,-0.355,-0.545
5957,-0.330,-0.525
5958,-0.340,-0.525
5959,-0.345,-0.520
5960,-0.315,-0.505
5961,-0.335,-0.515
5962,-0.330,-0.505
5963,-0.330,-0.530
5964,-0.320,-0.525
5965,-0.315,-0.520
5966,-0.330,-0.535
5967,-0.330,-0.530
5968,-0.345,-0.535
5969,-0.350,-0.545
5970,-0.340,-0.545
5971,-0.340,-0.545
5972,-0.375,-0.550
5973,-0.385,-0.560
5974,-0.365,-0.545
5975,-0.365,-0.550
5976,-0.365,-0.560
5977,-0.370,-0.545
5978,-0.395,-0.560
5979,-0.385,-0.550
5980,-0.390,-0.545
5981,-0.380,-0.555
5982,-0.375,-0.545
5983,-0.395,-0.550
5984,-0.395,-0.540
5985,-0.360,-0.545
5986,-0.380,-0.555
5987,-0.405,-0.575
5988,-0.410,-0.550
5989,-0.410,-0.535
5990,-0.395,-0.540
5991,-0.400,-0.555
5992,-0.400,-0.540
5993,-0.380,-0.540
5994,-0.340,-0.540
5995,-0.330,-0.530
5996,-0.320,-0.500
5997,-0.310,-0.470
5998,-0.295,-0.455
5999,-0.355,-0.540
6000,-0.350,-0.590
6001,-0.340,-0.600
6002,-0.345,-0.605
6003,-0.365,-0.575
6004,-0.385,-0.580
6005,-0.405,-0.575
6006,-0.430,-0.565
6007,-0.410,-0.560
6008,-0.415,-0.580
6009,-0.425,-0.550
6010,-0.380,-0.560
6011,-0.135,-0.510
6012,0.280,-0.460
6013,0.525,-0.425
6014,0.160,-0.410
6015,-0.375,-0.475
6016,-0.480,-0.385
6017,-0.530,-0.215
6018,-0.615,0.015
6019,-0.665,0.240
6020,-0.650,0.180
6021,-0.495,0.130
6022,-0.380,0.085
6023,-0.365,-0.150
6024,-0.350,-0.335
6025,-0.340,-0.380
6026,-0.315,-0.410
6027,-0.280,-0.475
6028,-0.295,-0.480
6029,-0.285,-0.495
6030,-0.275,-0.485
6031,-0.240,-0.500
6032,-0.235,-0.490
6033,-0.205,-0.515
6034,-0.180,-0.525
6035,-0.155,-0.525
6036,-0.155,-0.545
6037,-0.105,-0.565
6038,-0.130,-0.565
6039,-0.080,-0.595
6040,-0.015,-0.580
6041,0.005,-0.610
6042,0.030,-0.635
6043,0.045,-0.655
6044,0.050,-0.685
6045,0.040,-0.680
6046,0.000,-0.685
6047,-0.040,-0.700
6048,-0.055,-0.675
6049,-0.105,-0.680
6050,-0.170,-0.645
6051,-0.235,-0.645
6052,-0.245,-0.600
6053,-0.260,-0.580
6054,-0.270,-0.545
6055,-0.275,-0.540
6056,-0.315,-0.530
6057,-0.315,-0.525
6058,-0.320,-0.480
6059,-0.315,-0.515
6060,-0.310,-0.495
6061,-0.285,-0.500
6062,-0.325,-0.510
6063,-0.300,-0.490
6064,-0.320,-0.480
6065,-0.300,-0.480
6066,-0.295,-0.470
6067,-0.275,-0.490
6068,-0.265,-0.470
6069,-0.295,-0.460
6070,-0.295,-0.470
6071,-0.280,-0.460
6072,-0.285,-0.465
6073,-0.270,-0.480
6074,-0.270,-0.470
6075,-0.265,-0.480
6076,-0.310,-0.480
6077,-0.285,-0.470
6078,-0.270,-0.470
6079,-0.290,-0.480
6080,-0.270,-0.480
6081,-0.295,-0.490
6082,-0.295,-0.470
6083,-0.310,-0.470
6084,-0.310,-0.465
6085,-0.310,-0.460
6086,-0.330,-0.475
6087,-0.335,-0.445
6088,-0.335,-0.460
6089,-0.325,-0.475
6090,-0.305,-0.450
6091,-0.305,-0.485
6092,-0.345,-0.495
6093,-0.320,-0.495
6094,-0.325,-0.485
6095,-0.330,-0.495
6096,-0.305,-0.490
6097,-0.330,-0.495
6098,-0.315,-0.485
6099,-0.320,-0.500
6100,-0.350,-0.500
6101,-0.355,-0.490
6102,-0.335,-0.480
6103,-0.320,-0.465
6104,-0.300,-0.470
6105,-0.270,-0.465
6106,-0.270,-0.425
6107,-0.270,-0.400
6108,-0.250,-0.365
6109,-0.245,-0.380
6110,-0.280,-0.470
6111,-0.265,-0.515
6112,-0.260,-0.530
6113,-0.290,-0.520
6114,-0.300,-0.510
6115,-0.360,-0.495
6116,-0.355,-0.495
6117,-0.345,-0.490
6118,-0.360,-0.495
6119,-0.375,-0.520
6120,-0.360,-0.490
6121,-0.235,-0.455
6122,0.155,-0.405
6123,0.515,-0.340
6124,0.295,-0.330
6125,-0.260,-0.355
6126,-0.465,-0.325
6127,-0.500,-0.165
6128,-0.590,0.130
6129,-0.615,0.360
6130,-0.545,0.245
6131,-0.410,0.185
6132,-0.365,0.070
6133,-0.310,-0.150
6134,-0.290,-0.265
6135,-0.285,-0.320
6136,-0.255,-0.350
6137,-0.235,-0.410
6138,-0.230,-0.420
6139,-0.220,-0.435
6140,-0.215,-0.475
6141,-0.200,-0.450
6142,-0.155,-0.470
6143,-0.160,-0.455
6144,-0.150,-0.465
6145,-0.130,-0.475
6146,-0.080,-0.490
6147,-0.075,-0.485
6148,-0.055,-0.525
6149,-0.005,-0.520
6150,0.025,-0.520
6151,0.045,-0.565
6152,0.080,-0.575
6153,0.090,-0.595
6154,0.075,-0.600
6155,0.075,-0.600
6156,0.045,-0.615
6157,0.020,-0.610
6158,-0.040,-0.605
6159,-0.075,-0.585
6160,-0.110,-0.575
6161,-0.135,-0.515
6162,-0.175,-0.500
6163,-0.205,-0.460
6164,-0.210,-0.430
6165,-0.210,-0.420
6166,-0.200,-0.405
6167,-0.215,-0.385
6168,-0.215,-0.380
6169,-0.210,-0.385
6170,-0.210,-0.365
6171,-0.225,-0.395
6172,-0.230,-0.365
6173,-0.215,-0.380
6174,-0.210,-0.365
6175,-0.205,-0.360
6176,-0.235,-0.365
6177,-0.235,-0.350
6178,-0.205,-0.375
6179,-0.210,-0.375
6180,-0.165,-0.355
6181,-0.180,-0.355
6182,-0.185,-0.360
6183,-0.195,-0.375
6184,-0.170,-0.365
6185,-0.195,-0.375
6186,-0.215,-0.405
6187,-0.210,-0.380
6188,-0.225,-0.375
6189,-0.210,-0.365
6190,-0.200,-0.360
6191,-0.225,-0.350
6192,-0.200,-0.355
6193,-0.195,-0.375
6194,-0.215,-0.360
6195,-0.230,-0.350
6196,-0.195,-0.365
6197,-0.210,-0.375
6198,-0.230,-0.380
6199,-0.230,-0.375
6200,-0.225,-0.385
6201,-0.240,-0.370
6202,-0.225,-0.370
6203,-0.225,-0.375
6204,-0.215,-0.385
6205,-0.215,-0.405
6206,-0.205,-0.385
6207,-0.210,-0.395
6208,-0.225,-0.380
6209,-0.220,-0.400
6210,-0.215,-0.395
6211,-0.200,-0.380
6212,-0.210,-0.395
6213,-0.175,-0.375
6214,-0.175,-0.385
6215,-0.135,-0.375
6216,-0.120,-0.320
6217,-0.110,-0.295
6218,-0.155,-0.275
6219,-0.165,-0.300
6220,-0.160,-0.385
6221,-0.155,-0.425
6222,-0.145,-0.425
6223,-0.175,-0.415
6224,-0.240,-0.430
6225,-0.235,-0.420
6226,-0.240,-0.425
6227,-0.240,-0.405
6228,-0.235,-0.425
6229,-0.245,-0.415
6230,-0.250,-0.410
6231,-0.115,-0.370
6232,0.295,-0.300
6233,0.610,-0.280
6234,0.345,-0.240
6235,-0.170,-0.285
6236,-0.355,-0.185
6237,-0.385,-0.025
6238,-0.500,0.275
6239,-0.545,0.455
6240,-0.465,0.350
6241,-0.290,0.305
6242,-0.210,0.170
6243,-0.155,-0.075
6244,-0.170,-0.195
6245,-0.170,-0.235
6246,-0.160,-0.275
6247,-0.115,-0.315
6248,-0.120,-0.320
6249,-0.120,-0.355
6250,-0.115,-0.350
6251,-0.090,-0.340
6252,-0.075,-0.350
6253,-0.065,-0.375
6254,-0.035,-0.385
6255,-0.015,-0.395
6256,0.005,-0.405
6257,0.020,-0.385
6258,0.070,-0.415
6259,0.100,-0.435
6260,0.125,-0.455
6261,0.170,-0.470
6262,0.175,-0.485
6263,0.185,-0.510
6264,0.195,-0.520
6265,0.195,-0.535
6266,0.130,-0.545
6267,0.090,-0.525
6268,0.045,-0.525
6269,0.000,-0.485
6270,-0.025,-0.485
6271,-0.065,-0.430
6272,-0.060,-0.405
6273,-0.095,-0.375
6274,-0.145,-0.345
6275,-0.145,-0.335
6276,-0.120,-0.320
6277,-0.120,-0.310
6278,-0.140,-0.320
6279,-0.145,-0.315
6280,-0.145,-0.295
6281,-0.150,-0.295
6282,-0.150,-0.310
6283,-0.120,-0.290
6284,-0.145,-0.290
6285,-0.120,-0.280
6286,-0.120,-0.280
6287,-0.130,-0.270
6288,-0.095,-0.260
6289,-0.110,-0.265
6290,-0.120,-0.255
6291,-0.100,-0.245
6292,-0.100,-0.235
6293,-0.135,-0.205
6294,-0.105,-0.225
6295,-0.090,-0.225
6296,-0.120,-0.200
6297,-0.065,-0.220
6298,-0.085,-0.210
6299,-0.140,-0.220
6300,-0.130,-0.235
6301,-0.140,-0.200
6302,-0.120,-0.190
6303,-0.140,-0.210
6304,-0.135,-0.200
6305,-0.135,-0.205
6306,-0.110,-0.200
6307,-0.130,-0.180
6308,-0.150,-0.205
6309,-0.155,-0.205
6310,-0.155,-0.185
6311,-0.140,-0.190
6312,-0.125,-0.185
6313,-0.115,-0.200
6314,-0.140,-0.195
6315,-0.160,-0.180
6316,-0.135,-0.190
6317,-0.120,-0.205
6318,-0.135,-0.180
6319,-0.135,-0.185
6320,-0.130,-0.155
6321,-0.105,-0.145
6322,-0.085,-0.120
6323,-0.045,-0.080
6324,-0.050,-0.035
6325,-0.065,-0.030
6326,-0.080,0.000
6327,-0.040,-0.030
6328,-0.065,-0.080
6329,-0.090,-0.090
6330,-0.080,-0.095
6331,-0.115,-0.070
6332,-0.135,-0.035
6333,-0.170,0.000
6334,-0.185,-0.025
6335,-0.195,-0.005
6336,-0.155,0.025
6337,-0.140,0.035
6338,-0.140,0.045
6339,0.010,0.105
6340,0.465,0.170
6341,0.775,0.220
6342,0.520,0.225
6343,-0.055,0.190
6344,-0.250,0.295
6345,-0.295,0.440
6346,-0.380,0.715
6347,-0.455,0.985
6348,-0.445,0.935
6349,-0.280,0.885
6350,-0.165,0.865
6351,-0.140,0.645
6352,-0.135,0.455
6353,-0.130,0.425
6354,-0.095,0.415
6355,-0.115,0.395
6356,-0.095,0.380
6357,-0.080,0.390
6358,-0.080,0.395
6359,-0.065,0.370
6360,-0.055,0.380
6361,-0.035,0.395
6362,-0.005,0.410
6363,0.020,0.415
6364,0.000,0.395
6365,0.030,0.380
6366,0.085,0.415
6367,0.140,0.415
6368,0.180,0.410
6369,0.150,0.395
6370,0.205,0.370
6371,0.220,0.380
6372,0.210,0.410
6373,0.140,0.375
6374,0.130,0.365
6375,0.095,0.375
6376,0.025,0.385
6377,-0.010,0.415
6378,-0.045,0.460
6379,-0.050,0.515
6380,-0.115,0.580
6381,-0.165,0.550
6382,-0.150,0.535
6383,-0.170,0.575
6384,-0.170,0.590
6385,-0.200,0.605
6386,-0.220,0.625
6387,-0.180,0.645
6388,-0.175,0.650
6389,-0.210,0.615
6390,-0.215,0.615
6391,-0.185,0.615
6392,-0.190,0.640
6393,-0.190,0.640
6394,-0.180,0.645
6395,-0.200,0.650
6396,-0.205,0.650
6397,-0.170,0.665
6398,-0.165,0.655
6399,-0.180,0.650
6400,-0.175,0.635
6401,-0.180,0.665
6402,-0.190,0.665
6403,-0.170,0.645
6404,-0.180,0.685
6405,-0.200,0.675
6406,-0.195,0.685
6407,-0.195,0.685
6408,-0.180,0.715
6409,-0.210,0.655
6410,-0.205,0.665
6411,-0.205,0.650
6412,-0.195,0.670
6413,-0.205,0.660
6414,-0.220,0.670
6415,-0.220,0.670
6416,-0.200,0.670
6417,-0.225,0.675
6418,-0.190,0.680
6419,-0.205,0.665
6420,-0.250,0.685
6421,-0.210,0.660
6422,-0.180,0.675
6423,-0.205,0.660
6424,-0.195,0.660
6425,-0.260,0.635
6426,-0.245,0.660
6427,-0.225,0.645
6428,-0.200,0.645
6429,-0.195,0.650
6430,-0.170,0.625
6431,-0.155,0.650
6432,-0.155,0.675
6433,-0.130,0.705
6434,-0.145,0.720
6435,-0.180,0.725
6436,-0.185,0.620
6437,-0.155,0.605
6438,-0.150,0.600
6439,-0.170,0.585
6440,-0.210,0.555
6441,-0.250,0.550
6442,-0.245,0.585
6443,-0.245,0.595
6444,-0.225,0.570
6445,-0.220,0.575
6446,-0.260,0.585
6447,-0.185,0.605
6448,0.195,0.670
6449,0.655,0.730
6450,0.640,0.695
6451,0.025,0.645
6452,-0.300,0.660
6453,-0.375,0.800
6454,-0.435,1.030
6455,-0.500,1.350
6456,-0.505,1.375
6457,-0.360,1.280
6458,-0.215,1.225
6459,-0.195,0.980
6460,-0.150,0.760
6461,-0.165,0.705
6462,-0.135,0.660
6463,-0.125,0.605
6464,-0.140,0.590
6465,-0.140,0.585
6466,-0.095,0.555
6467,-0.070,0.545
6468,-0.010,0.530
6469,-0.075,0.520
6470,-0.075,0.495
6471,-0.030,0.485
6472,-0.015,0.485
6473,0.000,0.480
6474,0.045,0.465
6475,0.090,0.445
6476,0.130,0.425
6477,0.160,0.405
6478,0.180,0.365
6479,0.190,0.365
6480,0.205,0.340
6481,0.175,0.315
6482,0.160,0.300
6483,0.110,0.315
6484,0.060,0.340
6485,0.010,0.315
6486,-0.025,0.260
6487,-0.065,0.320
6488,-0.085,0.335
6489,-0.140,0.330
6490,-0.155,0.390
6491,-0.155,0.395
6492,-0.155,0.440
6493,-0.165,0.420
6494,-0.190,0.420
6495,-0.200,0.410
6496,-0.190,0.385
6497,-0.185,0.410
6498,-0.175,0.400
6499,-0.215,0.410
6500,-0.195,0.405
6501,-0.205,0.415
6502,-0.205,0.440
6503,-0.190,0.425
6504,-0.160,0.435
6505,-0.195,0.415
6506,-0.185,0.415
6507,-0.190,0.430
6508,-0.175,0.420
6509,-0.170,0.440
6510,-0.150,0.435
6511,-0.205,0.415
6512,-0.185,0.415
6513,-0.195,0.425
6514,-0.200,0.420
6515,-0.190,0.425
6516,-0.180,0.410
6517,-0.205,0.385
6518,-0.190,0.385
6519,-0.200,0.440
6520,-0.215,0.375
6521,-0.215,0.370
6522,-0.225,0.380
6523,-0.210,0.370
6524,-0.195,0.385
6525,-0.220,0.370
6526,-0.205,0.325
6527,-0.230,0.345
6528,-0.230,0.350
6529,-0.205,0.360
6530,-0.220,0.360
6531,-0.230,0.330
6532,-0.205,0.350
6533,-0.185,0.340
6534,-0.200,0.315
6535,-0.210,0.340
6536,-0.210,0.315
6537,-0.195,0.300
6538,-0.215,0.305
6539,-0.200,0.290
6540,-0.185,0.315
6541,-0.150,0.310
6542,-0.120,0.310
6543,-0.090,0.335
6544,-0.125,0.345
6545,-0.130,0.345
6546,-0.115,0.330
6547,-0.105,0.270
6548,-0.105,0.230
6549,-0.135,0.215
6550,-0.145,0.215
6551,-0.205,0.200
6552,-0.200,0.250
6553,-0.210,0.235
6554,-0.200,0.220
6555,-0.210,0.220
6556,-0.165,0.210
6557,-0.175,0.220
6558,-0.050,0.235
6559,0.360,0.300
6560,0.675,0.340
