'sample interval','ECG0','ECG1'
'0.0078125 sec','mV','mV'
0,-0.185,-0.115
1,-0.175,-0.115
2,-0.125,-0.065
3,-0.115,-0.085
4,-0.135,-0.115
5,-0.025,-0.075
6,0.005,-0.105
7,-0.065,-0.125
8,-0.105,-0.125
9,-0.135,-0.125
10,-0.165,-0.135
11,-0.205,-0.145
12,-0.205,-0.135
13,-0.215,-0.145
14,-0.205,-0.125
15,-0.215,-0.135
16,-0.205,-0.135
17,-0.195,-0.125
18,-0.215,-0.125
19,-0.215,-0.135
20,-0.195,-0.135
21,-0.195,-0.125
22,-0.185,-0.135
23,-0.195,-0.125
24,-0.175,-0.125
25,-0.115,-0.095
26,-0.285,0.045
27,-0.615,0.045
28,-0.425,-0.055
29,1.055,-0.865
30,2.235,-0.515
31,2.755,-0.435
32,2.055,-0.525
33,0.385,-0.225
34,-0.105,-0.035
35,-0.045,-0.015
36,-0.085,-0.045
37,-0.145,-0.045
38,-0.185,-0.045
39,-0.215,-0.045
40,-0.225,-0.045
41,-0.205,-0.045
42,-0.225,-0.045
43,-0.225,-0.055
44,-0.215,-0.065
45,-0.215,-0.055
46,-0.195,-0.055
47,-0.195,-0.065
48,-0.195,-0.065
49,-0.165,-0.045
50,-0.165,-0.055
51,-0.155,-0.065
52,-0.135,-0.065
53,-0.125,-0.055
54,-0.105,-0.045
55,-0.095,-0.055
56,-0.065,-0.055
57,-0.025,-0.045
58,0.005,-0.045
59,0.035,-0.055
60,0.095,-0.035
61,0.135,-0.035
62,0.185,-0.025
63,0.235,-0.045
64,0.285,-0.035
65,0.335,-0.015
66,0.375,-0.015
67,0.405,-0.015
68,0.435,0.015
69,0.435,0.025
70,0.375,0.035
71,0.275,0.015
72,0.175,0.005
73,0.075,-0.005
74,-0.035,-0.025
75,-0.115,-0.055
76,-0.165,-0.045
77,-0.195,-0.055
78,-0.215,-0.035
79,-0.225,-0.065
80,-0.235,-0.055
81,-0.215,-0.035
82,-0.235,-0.045
83,-0.235,-0.045
84,-0.225,-0.035
85,-0.225,-0.045
86,-0.215,-0.035
87,-0.225,-0.045
88,-0.225,-0.045
89,-0.195,-0.025
90,-0.215,-0.035
91,-0.225,-0.045
92,-0.215,-0.055
93,-0.215,-0.045
94,-0.215,-0.045
95,-0.225,-0.065
96,-0.215,-0.055
97,-0.215,-0.045
98,-0.225,-0.065
99,-0.235,-0.075
100,-0.245,-0.065
101,-0.245,-0.065
102,-0.245,-0.075
103,-0.255,-0.085
104,-0.255,-0.075
105,-0.235,-0.075
106,-0.255,-0.075
107,-0.265,-0.085
108,-0.255,-0.085
109,-0.255,-0.095
110,-0.245,-0.085
111,-0.265,-0.095
112,-0.255,-0.095
113,-0.235,-0.075
114,-0.255,-0.075
115,-0.255,-0.075
116,-0.245,-0.085
117,-0.195,-0.035
118,-0.145,-0.025
119,-0.165,-0.075
120,-0.135,-0.065
121,-0.025,-0.045
122,-0.105,-0.105
123,-0.165,-0.095
124,-0.195,-0.105
125,-0.205,-0.125
126,-0.235,-0.095
127,-0.255,-0.095
128,-0.255,-0.105
129,-0.235,-0.095
130,-0.255,-0.095
131,-0.255,-0.105
132,-0.265,-0.105
133,-0.255,-0.105
134,-0.245,-0.095
135,-0.255,-0.105
136,-0.245,-0.095
137,-0.235,-0.095
138,-0.215,-0.095
139,-0.205,-0.025
140,-0.445,0.145
141,-0.705,0.195
142,-0.135,-0.555
143,1.615,-1.345
144,2.515,-0.565
145,2.755,-0.575
146,1.045,-0.275
147,-0.095,-0.015
148,-0.095,0.045
149,-0.125,0.015
150,-0.185,0.005
151,-0.245,-0.005
152,-0.255,0.005
153,-0.245,0.025
154,-0.265,0.015
155,-0.275,0.005
156,-0.265,0.015
157,-0.265,0.015
158,-0.245,0.025
159,-0.255,0.005
160,-0.235,0.015
161,-0.215,0.035
162,-0.225,0.025
163,-0.225,0.015
164,-0.205,0.025
165,-0.185,0.025
166,-0.165,0.035
167,-0.165,0.025
168,-0.135,0.035
169,-0.085,0.055
170,-0.075,0.045
171,-0.055,0.045
172,-0.005,0.055
173,0.035,0.075
174,0.095,0.085
175,0.145,0.075
176,0.205,0.085
177,0.275,0.105
178,0.315,0.105
179,0.355,0.095
180,0.415,0.105
181,0.445,0.115
182,0.455,0.125
183,0.385,0.105
184,0.305,0.095
185,0.205,0.075
186,0.075,0.035
187,-0.055,0.005
188,-0.135,-0.015
189,-0.175,-0.005
190,-0.205,-0.015
191,-0.225,-0.035
192,-0.235,-0.035
193,-0.225,-0.025
194,-0.235,-0.035
195,-0.235,-0.045
196,-0.225,-0.035
197,-0.225,-0.025
198,-0.225,-0.025
199,-0.235,-0.035
200,-0.225,-0.035
201,-0.215,-0.005
202,-0.215,-0.015
203,-0.225,-0.025
204,-0.215,-0.015
205,-0.205,-0.025
206,-0.205,-0.015
207,-0.225,-0.025
208,-0.215,-0.025
209,-0.195,-0.015
210,-0.225,-0.035
211,-0.235,-0.045
212,-0.225,-0.045
213,-0.225,-0.045
214,-0.235,-0.045
215,-0.245,-0.065
216,-0.235,-0.065
217,-0.215,-0.045
218,-0.235,-0.065
219,-0.245,-0.075
220,-0.235,-0.065
221,-0.235,-0.075
222,-0.235,-0.065
223,-0.245,-0.075
224,-0.245,-0.075
225,-0.215,-0.065
226,-0.235,-0.065
227,-0.255,-0.085
228,-0.235,-0.075
229,-0.225,-0.075
230,-0.225,-0.065
231,-0.225,-0.065
232,-0.235,-0.085
233,-0.175,-0.025
234,-0.135,-0.015
235,-0.145,-0.065
236,-0.105,-0.045
237,-0.015,-0.045
238,-0.055,-0.085
239,-0.135,-0.085
240,-0.165,-0.085
241,-0.165,-0.095
242,-0.205,-0.085
243,-0.235,-0.085
244,-0.235,-0.105
245,-0.235,-0.105
246,-0.225,-0.085
247,-0.225,-0.105
248,-0.215,-0.095
249,-0.205,-0.085
250,-0.225,-0.095
251,-0.225,-0.105
252,-0.225,-0.095
253,-0.225,-0.095
254,-0.205,-0.085
255,-0.195,-0.095
256,-0.155,-0.045
257,-0.345,0.155
258,-0.675,0.165
259,-0.375,-0.265
260,1.285,-1.235
261,2.345,-0.685
262,2.815,-0.485
263,1.865,-0.525
264,0.255,-0.095
265,-0.085,0.055
266,-0.055,0.025
267,-0.135,0.005
268,-0.185,0.005
269,-0.215,-0.005
270,-0.225,0.005
271,-0.235,-0.005
272,-0.225,0.005
273,-0.205,0.015
274,-0.215,0.005
275,-0.235,-0.015
276,-0.225,-0.005
277,-0.205,0.005
278,-0.205,0.015
279,-0.205,-0.005
280,-0.185,-0.005
281,-0.155,0.015
282,-0.165,0.005
283,-0.155,-0.005
284,-0.125,0.005
285,-0.105,0.005
286,-0.085,0.005
287,-0.055,0.005
288,-0.025,0.015
289,0.025,0.035
290,0.055,0.035
291,0.105,0.025
292,0.175,0.035
293,0.225,0.045
294,0.275,0.045
295,0.315,0.055
296,0.375,0.055
297,0.425,0.085
298,0.455,0.075
299,0.485,0.065
300,0.485,0.075
301,0.415,0.065
302,0.315,0.055
303,0.195,0.025
304,0.075,0.005
305,-0.005,-0.015
306,-0.095,-0.025
307,-0.145,-0.065
308,-0.155,-0.065
309,-0.165,-0.065
310,-0.185,-0.055
311,-0.195,-0.075
312,-0.205,-0.065
313,-0.165,-0.045
314,-0.175,-0.055
315,-0.195,-0.065
316,-0.175,-0.065
317,-0.175,-0.055
318,-0.175,-0.045
319,-0.185,-0.065
320,-0.175,-0.065
321,-0.155,-0.045
322,-0.165,-0.055
323,-0.185,-0.075
324,-0.165,-0.075
325,-0.175,-0.065
326,-0.175,-0.065
327,-0.185,-0.085
328,-0.185,-0.095
329,-0.175,-0.075
330,-0.185,-0.085
331,-0.185,-0.105
332,-0.195,-0.085
333,-0.195,-0.095
334,-0.195,-0.105
335,-0.205,-0.115
336,-0.205,-0.105
337,-0.195,-0.105
338,-0.195,-0.105
339,-0.195,-0.115
340,-0.185,-0.115
341,-0.185,-0.105
342,-0.195,-0.115
343,-0.205,-0.125
344,-0.195,-0.125
345,-0.155,-0.095
346,-0.195,-0.135
347,-0.165,-0.105
348,-0.125,-0.085
349,-0.125,-0.115
350,-0.065,-0.085
351,0.035,-0.115
352,-0.045,-0.145
353,-0.105,-0.115
354,-0.135,-0.145
355,-0.165,-0.145
356,-0.195,-0.115
357,-0.195,-0.145
358,-0.195,-0.145
359,-0.205,-0.145
360,-0.195,-0.135
361,-0.175,-0.115
362,-0.185,-0.135
363,-0.195,-0.145
364,-0.185,-0.135
365,-0.175,-0.135
366,-0.165,-0.135
367,-0.175,-0.145
368,-0.145,-0.145
369,-0.095,-0.115
370,-0.265,0.035
371,-0.625,0.035
372,-0.415,-0.135
373,1.005,-0.965
374,2.205,-0.585
375,2.725,-0.415
376,2.225,-0.575
377,0.435,-0.245
378,-0.095,-0.045
379,-0.045,-0.025
380,-0.095,-0.055
381,-0.145,-0.055
382,-0.175,-0.065
383,-0.185,-0.065
384,-0.185,-0.055
385,-0.165,-0.045
386,-0.195,-0.065
387,-0.195,-0.065
388,-0.185,-0.065
389,-0.185,-0.065
390,-0.165,-0.065
391,-0.175,-0.085
392,-0.145,-0.065
393,-0.135,-0.065
394,-0.135,-0.065
395,-0.125,-0.075
396,-0.115,-0.065
397,-0.105,-0.055
398,-0.075,-0.055
399,-0.045,-0.075
400,-0.035,-0.065
401,0.015,-0.035
402,0.035,-0.045
403,0.065,-0.065
404,0.115,-0.065
405,0.165,-0.045
406,0.215,-0.045
407,0.255,-0.055
408,0.305,-0.055
409,0.365,-0.025
410,0.395,-0.035
411,0.425,-0.035
412,0.465,-0.025
413,0.465,-0.005
414,0.415,0.005
415,0.325,-0.015
416,0.225,-0.015
417,0.095,-0.025
418,-0.015,-0.045
419,-0.075,-0.075
420,-0.135,-0.075
421,-0.165,-0.065
422,-0.175,-0.075
423,-0.185,-0.075
424,-0.175,-0.075
425,-0.175,-0.055
426,-0.185,-0.075
427,-0.195,-0.075
428,-0.195,-0.065
429,-0.175,-0.065
430,-0.175,-0.065
431,-0.175,-0.085
432,-0.175,-0.065
433,-0.165,-0.055
434,-0.165,-0.065
435,-0.175,-0.085
436,-0.175,-0.075
437,-0.185,-0.075
438,-0.175,-0.075
439,-0.185,-0.095
440,-0.175,-0.095
441,-0.165,-0.075
442,-0.195,-0.085
443,-0.195,-0.105
444,-0.205,-0.115
445,-0.195,-0.105
446,-0.195,-0.105
447,-0.215,-0.115
448,-0.205,-0.105
449,-0.185,-0.085
450,-0.205,-0.115
451,-0.215,-0.125
452,-0.205,-0.115
453,-0.205,-0.105
454,-0.205,-0.105
455,-0.205,-0.115
456,-0.215,-0.115
457,-0.215,-0.135
458,-0.235,-0.145
459,-0.175,-0.095
460,-0.125,-0.085
461,-0.055,-0.075
462,-0.045,-0.115
463,-0.105,-0.125
464,-0.135,-0.125
465,-0.155,-0.135
466,-0.195,-0.125
467,-0.225,-0.125
468,-0.215,-0.135
469,-0.215,-0.125
470,-0.205,-0.125
471,-0.205,-0.135
472,-0.205,-0.135
473,-0.185,-0.105
474,-0.205,-0.115
475,-0.205,-0.135
476,-0.185,-0.115
477,-0.185,-0.125
478,-0.155,-0.105
479,-0.285,0.035
480,-0.625,0.045
481,-0.495,-0.045
482,0.945,-0.915
483,2.245,-0.595
484,2.815,-0.435
485,2.165,-0.535
486,0.355,-0.235
487,-0.135,-0.055
488,-0.035,-0.025
489,-0.075,-0.025
490,-0.155,-0.045
491,-0.185,-0.055
492,-0.205,-0.055
493,-0.205,-0.045
494,-0.215,-0.035
495,-0.225,-0.055
496,-0.215,-0.055
497,-0.195,-0.035
498,-0.205,-0.045
499,-0.205,-0.055
500,-0.195,-0.055
501,-0.185,-0.055
502,-0.175,-0.045
503,-0.165,-0.055
504,-0.155,-0.055
505,-0.105,-0.035
506,-0.125,-0.045
507,-0.115,-0.055
508,-0.095,-0.045
509,-0.065,-0.035
510,-0.035,-0.025
511,-0.015,-0.035
512,0.025,-0.025
513,0.095,-0.005
514,0.125,-0.005
515,0.185,-0.015
516,0.225,-0.005
517,0.275,0.005
518,0.325,0.015
519,0.365,0.005
520,0.405,0.035
521,0.445,0.055
522,0.415,0.055
523,0.345,0.045
524,0.255,0.035
525,0.135,0.015
526,0.015,-0.005
527,-0.075,-0.035
528,-0.145,-0.045
529,-0.175,-0.045
530,-0.195,-0.055
531,-0.205,-0.075
532,-0.215,-0.055
533,-0.195,-0.055
534,-0.205,-0.055
535,-0.215,-0.055
536,-0.195,-0.055
537,-0.185,-0.035
538,-0.195,-0.045
539,-0.195,-0.055
540,-0.185,-0.045
541,-0.175,-0.035
542,-0.175,-0.045
543,-0.175,-0.045
544,-0.185,-0.045
545,-0.185,-0.055
546,-0.175,-0.055
547,-0.185,-0.055
548,-0.185,-0.065
549,-0.175,-0.065
550,-0.185,-0.065
551,-0.195,-0.075
552,-0.195,-0.085
553,-0.195,-0.075
554,-0.205,-0.075
555,-0.215,-0.085
556,-0.215,-0.085
557,-0.215,-0.085
558,-0.205,-0.075
559,-0.215,-0.085
560,-0.215,-0.085
561,-0.195,-0.085
562,-0.205,-0.085
563,-0.215,-0.095
564,-0.205,-0.085
565,-0.205,-0.095
566,-0.205,-0.075
567,-0.205,-0.105
568,-0.195,-0.095
569,-0.185,-0.085
570,-0.195,-0.075
571,-0.205,-0.085
572,-0.195,-0.085
573,-0.125,-0.035
574,-0.085,-0.005
575,-0.115,-0.065
576,-0.045,-0.055
577,0.045,-0.045
578,-0.045,-0.095
579,-0.105,-0.095
580,-0.135,-0.115
581,-0.145,-0.115
582,-0.175,-0.085
583,-0.185,-0.095
584,-0.195,-0.105
585,-0.175,-0.085
586,-0.195,-0.095
587,-0.205,-0.105
588,-0.185,-0.095
589,-0.185,-0.095
590,-0.185,-0.095
591,-0.195,-0.105
592,-0.175,-0.095
593,-0.135,-0.075
594,-0.225,0.115
595,-0.635,0.145
596,-0.525,-0.035
597,0.965,-1.155
598,2.205,-0.975
599,2.715,-0.505
600,2.435,-0.585
601,0.665,-0.175
602,-0.075,0.035
603,-0.045,0.035
604,-0.105,0.015
605,-0.155,0.015
606,-0.185,0.005
607,-0.205,-0.005
608,-0.215,0.005
609,-0.205,0.025
610,-0.205,0.015
611,-0.215,0.005
612,-0.205,0.005
613,-0.195,0.005
614,-0.195,0.025
615,-0.185,0.005
616,-0.175,0.005
617,-0.155,0.035
618,-0.155,0.025
619,-0.155,0.015
620,-0.135,0.025
621,-0.105,0.035
622,-0.095,0.035
623,-0.075,0.025
624,-0.045,0.045
625,-0.015,0.055
626,0.025,0.055
627,0.055,0.065
628,0.105,0.065
629,0.165,0.085
630,0.215,0.095
631,0.265,0.085
632,0.315,0.105
633,0.375,0.115
634,0.415,0.125
635,0.455,0.115
636,0.495,0.125
637,0.485,0.135
638,0.425,0.115
639,0.325,0.085
640,0.215,0.055
641,0.115,0.055
642,0.005,0.015
643,-0.075,-0.015
644,-0.125,-0.015
645,-0.155,-0.015
646,-0.165,-0.025
647,-0.185,-0.035
648,-0.175,-0.045
649,-0.175,-0.035
650,-0.185,-0.025
651,-0.185,-0.045
652,-0.175,-0.035
653,-0.175,-0.025
654,-0.165,-0.015
655,-0.175,-0.035
656,-0.165,-0.025
657,-0.155,-0.015
658,-0.165,-0.025
659,-0.175,-0.025
660,-0.165,-0.025
661,-0.165,-0.025
662,-0.175,-0.025
663,-0.175,-0.025
664,-0.165,-0.025
665,-0.155,-0.025
666,-0.165,-0.025
667,-0.185,-0.055
668,-0.175,-0.055
669,-0.185,-0.055
670,-0.185,-0.045
671,-0.195,-0.055
672,-0.195,-0.065
673,-0.175,-0.055
674,-0.185,-0.065
675,-0.195,-0.075
676,-0.185,-0.075
677,-0.195,-0.075
678,-0.185,-0.075
679,-0.195,-0.085
680,-0.195,-0.085
681,-0.155,-0.065
682,-0.195,-0.075
683,-0.195,-0.075
684,-0.175,-0.075
685,-0.115,-0.015
686,-0.085,-0.015
687,-0.125,-0.075
688,-0.015,-0.035
689,0.035,-0.045
690,-0.045,-0.085
691,-0.095,-0.085
692,-0.135,-0.105
693,-0.135,-0.105
694,-0.185,-0.095
695,-0.195,-0.105
696,-0.195,-0.115
697,-0.195,-0.095
698,-0.185,-0.085
699,-0.195,-0.105
700,-0.195,-0.105
701,-0.195,-0.105
702,-0.185,-0.105
703,-0.185,-0.115
704,-0.185,-0.105
705,-0.165,-0.095
706,-0.155,-0.105
707,-0.135,-0.025
708,-0.435,0.125
709,-0.655,0.145
710,0.005,-0.565
711,1.665,-1.335
712,2.515,-0.545
713,2.835,-0.515
714,1.465,-0.465
715,0.065,-0.085
716,-0.055,0.025
717,-0.045,0.015
718,-0.125,0.005
719,-0.175,-0.015
720,-0.195,-0.005
721,-0.195,0.005
722,-0.205,0.005
723,-0.205,-0.005
724,-0.195,-0.005
725,-0.195,-0.005
726,-0.195,-0.005
727,-0.195,-0.015
728,-0.185,-0.005
729,-0.175,0.015
730,-0.165,0.005
731,-0.175,-0.005
732,-0.155,0.005
733,-0.135,0.015
734,-0.115,0.005
735,-0.115,-0.005
736,-0.095,0.005
737,-0.055,0.025
738,-0.035,0.025
739,-0.005,0.025
740,0.035,0.045
741,0.085,0.045
742,0.125,0.055
743,0.175,0.045
744,0.235,0.045
745,0.295,0.075
746,0.345,0.075
747,0.385,0.055
748,0.425,0.065
749,0.475,0.085
750,0.495,0.095
751,0.465,0.075
752,0.385,0.065
753,0.285,0.065
754,0.155,0.035
755,0.045,-0.005
756,-0.035,-0.015
757,-0.095,-0.025
758,-0.125,-0.035
759,-0.165,-0.055
760,-0.165,-0.055
761,-0.155,-0.045
762,-0.165,-0.055
763,-0.175,-0.055
764,-0.175,-0.055
765,-0.175,-0.045
766,-0.165,-0.045
767,-0.175,-0.055
768,-0.165,-0.045
769,-0.165,-0.035
770,-0.155,-0.045
771,-0.155,-0.045
772,-0.155,-0.045
773,-0.155,-0.045
774,-0.155,-0.045
775,-0.165,-0.055
776,-0.165,-0.045
777,-0.155,-0.035
778,-0.165,-0.055
779,-0.175,-0.075
780,-0.165,-0.065
781,-0.165,-0.075
782,-0.175,-0.075
783,-0.185,-0.085
784,-0.175,-0.085
785,-0.165,-0.085
786,-0.195,-0.095
787,-0.205,-0.105
788,-0.195,-0.105
789,-0.185,-0.105
790,-0.185,-0.095
791,-0.195,-0.115
792,-0.185,-0.105
793,-0.175,-0.095
794,-0.185,-0.105
795,-0.195,-0.105
796,-0.175,-0.115
797,-0.135,-0.075
798,-0.105,-0.045
799,-0.115,-0.105
800,-0.065,-0.075
801,0.045,-0.055
802,-0.025,-0.105
803,-0.085,-0.115
804,-0.105,-0.115
805,-0.135,-0.125
806,-0.175,-0.105
807,-0.185,-0.125
808,-0.175,-0.135
809,-0.175,-0.125
810,-0.185,-0.125
811,-0.185,-0.135
812,-0.185,-0.135
813,-0.175,-0.125
814,-0.185,-0.115
815,-0.195,-0.125
816,-0.185,-0.125
817,-0.145,-0.115
818,-0.165,-0.125
819,-0.165,-0.135
820,-0.135,-0.115
821,-0.125,-0.065
822,-0.405,0.075
823,-0.635,0.085
824,-0.225,-0.235
825,1.505,-1.145
826,2.485,-0.485
827,2.815,-0.495
828,1.335,-0.485
829,-0.005,-0.105
830,-0.045,0.015
831,-0.055,-0.025
832,-0.125,-0.035
833,-0.145,-0.035
834,-0.175,-0.045
835,-0.185,-0.055
836,-0.185,-0.045
837,-0.195,-0.045
838,-0.185,-0.035
839,-0.175,-0.045
840,-0.185,-0.045
841,-0.165,-0.025
842,-0.155,-0.045
843,-0.165,-0.065
844,-0.145,-0.045
845,-0.145,-0.045
846,-0.125,-0.045
847,-0.115,-0.055
848,-0.105,-0.055
849,-0.055,-0.035
850,-0.065,-0.035
851,-0.045,-0.055
852,-0.005,-0.045
853,0.025,-0.035
854,0.065,-0.025
855,0.105,-0.045
856,0.155,-0.035
857,0.215,-0.005
858,0.275,-0.025
859,0.305,-0.035
860,0.375,-0.015
861,0.415,-0.015
862,0.455,-0.005
863,0.495,-0.005
864,0.505,0.005
865,0.485,0.035
866,0.405,0.015
867,0.285,-0.005
868,0.175,-0.005
869,0.055,-0.025
870,-0.025,-0.045
871,-0.095,-0.075
872,-0.125,-0.065
873,-0.125,-0.065
874,-0.155,-0.055
875,-0.165,-0.075
876,-0.165,-0.075
877,-0.175,-0.065
878,-0.155,-0.065
879,-0.155,-0.065
880,-0.145,-0.065
881,-0.135,-0.055
882,-0.145,-0.065
883,-0.155,-0.075
884,-0.135,-0.065
885,-0.135,-0.065
886,-0.135,-0.065
887,-0.145,-0.075
888,-0.145,-0.075
889,-0.145,-0.065
890,-0.155,-0.075
891,-0.165,-0.085
892,-0.165,-0.075
893,-0.165,-0.075
894,-0.165,-0.095
895,-0.185,-0.105
896,-0.185,-0.105
897,-0.175,-0.105
898,-0.185,-0.105
899,-0.195,-0.115
900,-0.175,-0.115
901,-0.185,-0.095
902,-0.185,-0.105
903,-0.195,-0.125
904,-0.195,-0.115
905,-0.185,-0.105
906,-0.185,-0.105
907,-0.205,-0.125
908,-0.175,-0.105
909,-0.185,-0.125
910,-0.135,-0.065
911,-0.105,-0.065
912,-0.125,-0.105
913,-0.055,-0.065
914,0.035,-0.075
915,-0.045,-0.135
916,-0.095,-0.105
917,-0.115,-0.115
918,-0.145,-0.145
919,-0.185,-0.125
920,-0.195,-0.135
921,-0.205,-0.125
922,-0.195,-0.115
923,-0.205,-0.135
924,-0.195,-0.125
925,-0.195,-0.115
926,-0.195,-0.125
927,-0.205,-0.135
928,-0.195,-0.135
929,-0.185,-0.125
930,-0.185,-0.125
931,-0.185,-0.135
932,-0.165,-0.125
933,-0.165,-0.115
934,-0.145,-0.105
935,-0.115,-0.105
936,-0.305,0.045
937,-0.585,0.075
938,-0.355,-0.055
939,1.175,-0.935
940,2.315,-0.575
941,2.835,-0.435
942,1.935,-0.535
943,0.245,-0.225
944,-0.085,-0.045
945,-0.025,-0.005
946,-0.105,-0.035
947,-0.155,-0.045
948,-0.165,-0.055
949,-0.165,-0.045
950,-0.175,-0.045
951,-0.205,-0.045
952,-0.195,-0.045
953,-0.175,-0.045
954,-0.185,-0.055
955,-0.185,-0.055
956,-0.175,-0.045
957,-0.155,-0.055
958,-0.155,-0.055
959,-0.155,-0.065
960,-0.135,-0.055
961,-0.105,-0.045
962,-0.105,-0.045
963,-0.095,-0.055
964,-0.075,-0.045
965,-0.045,-0.045
966,-0.035,-0.035
967,0.005,-0.045
968,0.035,-0.045
969,0.095,-0.025
970,0.125,-0.035
971,0.175,-0.035
972,0.225,-0.035
973,0.275,-0.025
974,0.325,-0.015
975,0.345,-0.025
976,0.405,-0.025
977,0.475,0.005
978,0.495,0.005
979,0.475,0.005
980,0.405,0.005
981,0.315,0.015
982,0.195,-0.005
983,0.075,-0.025
984,-0.025,-0.035
985,-0.075,-0.035
986,-0.125,-0.055
987,-0.165,-0.065
988,-0.165,-0.055
989,-0.175,-0.055
990,-0.185,-0.055
991,-0.185,-0.065
992,-0.175,-0.055
993,-0.165,-0.045
994,-0.175,-0.045
995,-0.175,-0.055
996,-0.165,-0.055
997,-0.165,-0.045
998,-0.155,-0.035
999,-0.165,-0.035
1000,-0.155,-0.045
1001,-0.145,-0.025
1002,-0.165,-0.055
1003,-0.185,-0.055
1004,-0.175,-0.055
1005,-0.165,-0.055
1006,-0.175,-0.055
1007,-0.185,-0.065
1008,-0.185,-0.065
1009,-0.165,-0.055
1010,-0.195,-0.065
1011,-0.205,-0.085
1012,-0.205,-0.085
1013,-0.205,-0.085
1014,-0.205,-0.085
1015,-0.205,-0.095
1016,-0.205,-0.085
1017,-0.185,-0.075
1018,-0.215,-0.085
1019,-0.215,-0.095
1020,-0.205,-0.105
1021,-0.205,-0.095
1022,-0.205,-0.085
1023,-0.205,-0.085
1024,-0.215,-0.105
1025,-0.135,-0.045
1026,-0.115,-0.035
1027,-0.145,-0.085
1028,-0.075,-0.065
1029,0.005,-0.085
1030,-0.075,-0.115
1031,-0.165,-0.095
1032,-0.155,-0.115
1033,-0.155,-0.115
1034,-0.215,-0.085
1035,-0.235,-0.115
1036,-0.235,-0.125
1037,-0.225,-0.115
1038,-0.225,-0.105
1039,-0.235,-0.125
1040,-0.235,-0.115
1041,-0.215,-0.095
1042,-0.225,-0.105
1043,-0.235,-0.115
1044,-0.225,-0.115
1045,-0.215,-0.125
1046,-0.205,-0.105
1047,-0.205,-0.105
1048,-0.195,-0.095
1049,-0.145,-0.065
1050,-0.265,0.105
1051,-0.645,0.105
1052,-0.585,0.095
1053,0.535,-0.835
1054,1.945,-1.165
1055,2.585,-0.485
1056,2.605,-0.575
1057,0.705,-0.235
1058,-0.125,-0.005
1059,-0.075,0.025
1060,-0.105,-0.015
1061,-0.185,-0.015
1062,-0.215,-0.015
1063,-0.245,-0.015
1064,-0.245,-0.015
1065,-0.215,0.005
1066,-0.245,-0.005
1067,-0.245,-0.025
1068,-0.245,-0.015
1069,-0.235,-0.015
1070,-0.225,-0.025
1071,-0.225,-0.035
1072,-0.205,-0.025
1073,-0.185,-0.005
1074,-0.195,-0.015
1075,-0.185,-0.025
1076,-0.155,-0.025
1077,-0.145,-0.025
1078,-0.125,-0.005
1079,-0.115,-0.015
1080,-0.075,-0.015
1081,-0.025,0.005
1082,-0.015,0.005
1083,0.015,-0.005
1084,0.075,0.005
1085,0.135,0.015
1086,0.185,0.015
1087,0.235,0.015
1088,0.295,0.025
1089,0.355,0.025
1090,0.405,0.035
1091,0.435,0.025
1092,0.475,0.045
1093,0.445,0.045
1094,0.385,0.045
1095,0.285,0.025
1096,0.185,0.005
1097,0.075,0.005
1098,-0.035,-0.025
1099,-0.125,-0.065
1100,-0.165,-0.055
1101,-0.205,-0.065
1102,-0.205,-0.075
1103,-0.235,-0.095
1104,-0.225,-0.065
1105,-0.215,-0.055
1106,-0.225,-0.075
1107,-0.235,-0.075
1108,-0.225,-0.075
1109,-0.215,-0.065
1110,-0.215,-0.065
1111,-0.225,-0.065
1112,-0.215,-0.065
1113,-0.185,-0.055
1114,-0.215,-0.065
1115,-0.215,-0.075
1116,-0.215,-0.075
1117,-0.205,-0.055
1118,-0.205,-0.065
1119,-0.215,-0.075
1120,-0.215,-0.065
1121,-0.195,-0.055
1122,-0.225,-0.075
1123,-0.235,-0.095
1124,-0.225,-0.095
1125,-0.215,-0.085
1126,-0.235,-0.085
1127,-0.235,-0.105
1128,-0.235,-0.095
1129,-0.225,-0.085
1130,-0.235,-0.095
1131,-0.245,-0.125
1132,-0.235,-0.115
1133,-0.225,-0.105
1134,-0.235,-0.115
1135,-0.245,-0.135
1136,-0.235,-0.115
1137,-0.235,-0.105
1138,-0.245,-0.115
1139,-0.265,-0.155
1140,-0.205,-0.085
1141,-0.155,-0.085
1142,-0.135,-0.075
1143,-0.075,-0.105
1144,-0.075,-0.135
1145,-0.155,-0.105
1146,-0.185,-0.135
1147,-0.205,-0.155
1148,-0.235,-0.115
1149,-0.255,-0.115
1150,-0.245,-0.125
1151,-0.245,-0.135
1152,-0.245,-0.115
1153,-0.235,-0.115
1154,-0.235,-0.115
1155,-0.245,-0.125
1156,-0.245,-0.125
1157,-0.235,-0.115
1158,-0.235,-0.115
1159,-0.235,-0.125
1160,-0.225,-0.115
1161,-0.215,-0.115
1162,-0.205,-0.115
1163,-0.195,-0.125
1164,-0.165,-0.085
1165,-0.345,0.095
1166,-0.655,0.115
1167,-0.395,-0.135
1168,1.215,-1.065
1169,2.285,-0.655
1170,2.795,-0.455
1171,1.805,-0.525
1172,0.175,-0.165
1173,-0.115,-0.005
1174,-0.075,0.005
1175,-0.135,-0.035
1176,-0.185,-0.025
1177,-0.215,-0.025
1178,-0.235,-0.025
1179,-0.245,-0.035
1180,-0.245,-0.035
1181,-0.245,-0.045
1182,-0.235,-0.025
1183,-0.255,-0.045
1184,-0.235,-0.035
1185,-0.215,-0.015
1186,-0.225,-0.035
1187,-0.235,-0.035
1188,-0.215,-0.035
1189,-0.205,-0.025
1190,-0.195,-0.025
1191,-0.195,-0.035
1192,-0.155,-0.025
1193,-0.135,-0.025
1194,-0.125,-0.015
1195,-0.105,-0.015
1196,-0.075,-0.005
1197,-0.035,-0.005
1198,0.005,0.005
1199,0.045,-0.005
1200,0.095,0.005
1201,0.165,0.035
1202,0.195,0.035
1203,0.235,0.015
1204,0.295,0.025
1205,0.345,0.045
1206,0.395,0.055
1207,0.415,0.055
1208,0.425,0.055
1209,0.385,0.075
1210,0.285,0.055
1211,0.175,0.025
1212,0.065,0.005
1213,-0.045,-0.015
1214,-0.125,-0.025
1215,-0.185,-0.055
1216,-0.215,-0.055
1217,-0.215,-0.055
1218,-0.235,-0.065
1219,-0.245,-0.065
1220,-0.235,-0.065
1221,-0.225,-0.055
1222,-0.235,-0.045
1223,-0.235,-0.065
1224,-0.225,-0.055
1225,-0.215,-0.035
1226,-0.215,-0.045
1227,-0.215,-0.055
1228,-0.215,-0.055
1229,-0.195,-0.055
1230,-0.205,-0.055
1231,-0.225,-0.065
1232,-0.205,-0.055
1233,-0.195,-0.055
1234,-0.215,-0.065
1235,-0.225,-0.085
1236,-0.215,-0.075
1237,-0.215,-0.065
1238,-0.215,-0.075
1239,-0.235,-0.105
1240,-0.225,-0.095
1241,-0.215,-0.075
1242,-0.235,-0.095
1243,-0.245,-0.105
1244,-0.235,-0.105
1245,-0.245,-0.105
1246,-0.235,-0.095
1247,-0.245,-0.115
1248,-0.245,-0.115
1249,-0.235,-0.105
1250,-0.245,-0.115
1251,-0.245,-0.115
1252,-0.235,-0.115
1253,-0.245,-0.105
1254,-0.225,-0.115
1255,-0.235,-0.125
1256,-0.225,-0.115
1257,-0.215,-0.095
1258,-0.235,-0.095
1259,-0.225,-0.125
1260,-0.205,-0.095
1261,-0.145,-0.065
1262,-0.145,-0.075
1263,-0.135,-0.075
1264,-0.015,-0.075
1265,-0.045,-0.135
1266,-0.165,-0.125
1267,-0.185,-0.145
1268,-0.185,-0.145
1269,-0.215,-0.115
1270,-0.225,-0.125
1271,-0.235,-0.145
1272,-0.235,-0.135
1273,-0.215,-0.115
1274,-0.225,-0.125
1275,-0.235,-0.135
1276,-0.225,-0.125
1277,-0.225,-0.125
1278,-0.225,-0.125
1279,-0.225,-0.135
1280,-0.215,-0.125
1281,-0.195,-0.115
1282,-0.195,-0.125
1283,-0.195,-0.135
1284,-0.165,-0.115
1285,-0.155,-0.005
1286,-0.505,0.105
1287,-0.655,0.095
1288,0.275,-0.815
1289,1.765,-1.325
1290,2.505,-0.555
1291,2.735,-0.605
1292,1.385,-0.415
1293,0.045,-0.045
1294,-0.055,0.025
1295,-0.075,-0.015
1296,-0.125,-0.035
1297,-0.165,-0.015
1298,-0.215,-0.015
1299,-0.225,-0.035
1300,-0.235,-0.025
1301,-0.225,-0.025
1302,-0.225,-0.025
1303,-0.235,-0.035
1304,-0.225,-0.025
1305,-0.205,-0.025
1306,-0.215,-0.025
1307,-0.215,-0.045
1308,-0.205,-0.035
1309,-0.185,-0.025
1310,-0.175,-0.015
1311,-0.175,-0.025
1312,-0.145,-0.025
1313,-0.105,-0.005
1314,-0.115,-0.005
1315,-0.105,-0.015
1316,-0.055,0.005
1317,-0.035,-0.005
1318,0.005,0.015
1319,0.035,0.005
1320,0.085,0.025
1321,0.155,0.045
1322,0.185,0.045
1323,0.235,0.035
1324,0.285,0.045
1325,0.335,0.055
1326,0.385,0.055
1327,0.415,0.065
1328,0.455,0.065
1329,0.455,0.075
1330,0.405,0.065
1331,0.295,0.025
1332,0.185,0.005
1333,0.055,-0.025
1334,-0.045,-0.045
1335,-0.125,-0.065
1336,-0.175,-0.075
1337,-0.185,-0.065
1338,-0.205,-0.085
1339,-0.215,-0.095
1340,-0.215,-0.095
1341,-0.215,-0.085
1342,-0.215,-0.095
1343,-0.225,-0.095
1344,-0.205,-0.095
1345,-0.195,-0.075
1346,-0.205,-0.075
1347,-0.205,-0.095
1348,-0.195,-0.085
1349,-0.195,-0.075
1350,-0.195,-0.065
1351,-0.195,-0.085
1352,-0.195,-0.085
1353,-0.185,-0.075
1354,-0.185,-0.095
1355,-0.205,-0.095
1356,-0.195,-0.095
1357,-0.215,-0.115
1358,-0.205,-0.105
1359,-0.215,-0.125
1360,-0.215,-0.125
1361,-0.215,-0.115
1362,-0.215,-0.125
1363,-0.235,-0.135
1364,-0.225,-0.135
1365,-0.225,-0.125
1366,-0.215,-0.125
1367,-0.225,-0.145
1368,-0.225,-0.145
1369,-0.215,-0.135
1370,-0.225,-0.135
1371,-0.225,-0.145
1372,-0.225,-0.145
1373,-0.215,-0.125
1374,-0.225,-0.135
1375,-0.215,-0.145
1376,-0.215,-0.145
1377,-0.205,-0.125
1378,-0.205,-0.145
1379,-0.215,-0.145
1380,-0.155,-0.095
1381,-0.125,-0.115
1382,-0.125,-0.105
1383,-0.015,-0.105
1384,-0.035,-0.165
1385,-0.135,-0.155
1386,-0.165,-0.155
1387,-0.175,-0.175
1388,-0.185,-0.145
1389,-0.215,-0.145
1390,-0.215,-0.155
1391,-0.215,-0.165
1392,-0.205,-0.165
1393,-0.195,-0.155
1394,-0.205,-0.165
1395,-0.215,-0.165
1396,-0.205,-0.155
1397,-0.205,-0.145
1398,-0.195,-0.145
1399,-0.195,-0.165
1400,-0.185,-0.155
1401,-0.165,-0.135
1402,-0.175,-0.145
1403,-0.155,-0.155
1404,-0.145,-0.025
1405,-0.505,0.065
1406,-0.645,0.075
1407,0.165,-0.765
1408,1.705,-1.355
1409,2.535,-0.545
1410,2.775,-0.595
1411,1.375,-0.485
1412,0.085,-0.115
1413,-0.045,-0.005
1414,-0.045,-0.025
1415,-0.125,-0.055
1416,-0.175,-0.055
1417,-0.185,-0.035
1418,-0.215,-0.045
1419,-0.225,-0.065
1420,-0.215,-0.055
1421,-0.215,-0.055
1422,-0.215,-0.045
1423,-0.215,-0.055
1424,-0.205,-0.055
1425,-0.185,-0.045
1426,-0.195,-0.045
1427,-0.185,-0.055
1428,-0.165,-0.045
1429,-0.155,-0.045
1430,-0.145,-0.045
1431,-0.135,-0.045
1432,-0.115,-0.045
1433,-0.095,-0.015
1434,-0.065,-0.025
1435,-0.045,-0.015
1436,-0.005,-0.025
1437,0.025,-0.005
1438,0.085,0.005
1439,0.125,0.005
1440,0.175,0.005
1441,0.245,0.015
1442,0.295,0.025
1443,0.355,0.015
1444,0.405,0.035
1445,0.455,0.045
1446,0.485,0.065
1447,0.475,0.045
1448,0.425,0.045
1449,0.365,0.045
1450,0.245,0.015
1451,0.125,-0.015
1452,0.015,-0.035
1453,-0.065,-0.055
1454,-0.135,-0.065
1455,-0.185,-0.085
1456,-0.185,-0.085
1457,-0.205,-0.085
1458,-0.205,-0.095
1459,-0.225,-0.105
1460,-0.215,-0.085
1461,-0.205,-0.085
1462,-0.195,-0.075
1463,-0.215,-0.095
1464,-0.205,-0.085
1465,-0.185,-0.065
1466,-0.195,-0.075
1467,-0.195,-0.075
1468,-0.195,-0.075
1469,-0.195,-0.075
1470,-0.195,-0.075
1471,-0.205,-0.085
1472,-0.195,-0.085
1473,-0.185,-0.075
1474,-0.205,-0.085
1475,-0.205,-0.095
1476,-0.205,-0.095
1477,-0.205,-0.095
1478,-0.205,-0.085
1479,-0.215,-0.115
1480,-0.215,-0.105
1481,-0.195,-0.105
1482,-0.215,-0.105
1483,-0.225,-0.125
1484,-0.225,-0.125
1485,-0.215,-0.115
1486,-0.215,-0.115
1487,-0.225,-0.135
1488,-0.215,-0.125
1489,-0.205,-0.105
1490,-0.215,-0.125
1491,-0.225,-0.135
1492,-0.215,-0.135
1493,-0.205,-0.135
1494,-0.205,-0.145
1495,-0.215,-0.135
1496,-0.215,-0.145
1497,-0.185,-0.125
1498,-0.205,-0.115
1499,-0.175,-0.095
1500,-0.125,-0.085
1501,-0.135,-0.085
1502,-0.025,-0.065
1503,0.005,-0.145
1504,-0.115,-0.155
1505,-0.125,-0.135
1506,-0.155,-0.145
1507,-0.165,-0.135
1508,-0.195,-0.135
1509,-0.205,-0.145
1510,-0.185,-0.145
1511,-0.195,-0.145
1512,-0.195,-0.145
1513,-0.175,-0.135
1514,-0.195,-0.145
1515,-0.195,-0.155
1516,-0.185,-0.135
1517,-0.175,-0.145
1518,-0.165,-0.135
1519,-0.155,-0.145
1520,-0.145,-0.145
1521,-0.125,-0.125
1522,-0.115,-0.065
1523,-0.385,0.065
1524,-0.605,0.085
1525,-0.145,-0.385
1526,1.485,-1.245
1527,2.425,-0.545
1528,2.815,-0.505
1529,1.655,-0.535
1530,0.145,-0.145
1531,-0.055,-0.015
1532,-0.025,-0.025
1533,-0.085,-0.045
1534,-0.145,-0.035
1535,-0.175,-0.055
1536,-0.175,-0.035
1537,-0.175,-0.025
1538,-0.185,-0.035
1539,-0.195,-0.045
1540,-0.185,-0.045
1541,-0.185,-0.055
1542,-0.185,-0.025
1543,-0.185,-0.045
1544,-0.175,-0.035
1545,-0.135,-0.015
1546,-0.155,-0.025
1547,-0.145,-0.045
1548,-0.125,-0.035
1549,-0.105,-0.035
1550,-0.095,-0.035
1551,-0.075,-0.025
1552,-0.055,-0.025
1553,-0.015,-0.015
1554,0.015,-0.015
1555,0.035,-0.025
1556,0.085,-0.015
1557,0.135,-0.005
1558,0.175,0.015
1559,0.225,-0.005
1560,0.285,0.005
1561,0.345,0.025
1562,0.395,0.015
1563,0.435,0.025
1564,0.475,0.045
1565,0.505,0.055
1566,0.465,0.055
1567,0.375,0.045
1568,0.285,0.035
1569,0.195,0.025
1570,0.065,-0.005
1571,-0.035,-0.035
1572,-0.095,-0.045
1573,-0.135,-0.035
1574,-0.165,-0.045
1575,-0.185,-0.055
1576,-0.185,-0.055
1577,-0.185,-0.045
1578,-0.185,-0.035
1579,-0.185,-0.055
1580,-0.185,-0.045
1581,-0.185,-0.035
1582,-0.185,-0.035
1583,-0.185,-0.035
1584,-0.165,-0.025
1585,-0.155,-0.025
1586,-0.155,-0.035
1587,-0.165,-0.045
1588,-0.165,-0.025
1589,-0.175,-0.025
1590,-0.165,-0.025
1591,-0.175,-0.035
1592,-0.175,-0.045
1593,-0.155,-0.025
1594,-0.165,-0.045
1595,-0.185,-0.065
1596,-0.185,-0.055
1597,-0.185,-0.065
1598,-0.185,-0.045
1599,-0.195,-0.075
1600,-0.195,-0.075
1601,-0.165,-0.045
1602,-0.195,-0.075
1603,-0.215,-0.075
1604,-0.195,-0.085
1605,-0.195,-0.085
1606,-0.195,-0.075
1607,-0.205,-0.095
1608,-0.205,-0.085
1609,-0.175,-0.075
1610,-0.195,-0.075
1611,-0.205,-0.095
1612,-0.185,-0.075
1613,-0.185,-0.085
1614,-0.185,-0.075
1615,-0.185,-0.095
1616,-0.175,-0.065
1617,-0.095,-0.025
1618,-0.095,-0.035
1619,-0.105,-0.045
1620,0.025,-0.035
1621,-0.025,-0.105
1622,-0.125,-0.085
1623,-0.145,-0.095
1624,-0.145,-0.095
1625,-0.145,-0.065
1626,-0.175,-0.075
1627,-0.195,-0.095
1628,-0.185,-0.085
1629,-0.185,-0.085
1630,-0.175,-0.075
1631,-0.185,-0.075
1632,-0.175,-0.085
1633,-0.175,-0.065
1634,-0.175,-0.075
1635,-0.185,-0.085
1636,-0.165,-0.085
1637,-0.155,-0.085
1638,-0.135,-0.065
1639,-0.115,-0.055
1640,-0.255,0.135
1641,-0.615,0.155
1642,-0.415,-0.165
1643,1.195,-1.225
1644,2.365,-0.705
1645,2.875,-0.475
1646,1.875,-0.495
1647,0.305,-0.115
1648,-0.045,0.045
1649,0.005,0.055
1650,-0.075,0.025
1651,-0.145,0.005
1652,-0.165,0.005
1653,-0.175,0.005
1654,-0.185,0.025
1655,-0.195,0.005
1656,-0.185,0.005
1657,-0.155,0.025
1658,-0.175,0.015
1659,-0.185,0.005
1660,-0.175,0.005
1661,-0.175,0.005
1662,-0.155,0.025
1663,-0.145,0.015
1664,-0.135,0.005
1665,-0.105,0.035
1666,-0.105,0.035
1667,-0.095,0.015
1668,-0.065,0.025
1669,-0.035,0.035
1670,-0.005,0.045
1671,0.015,0.035
1672,0.055,0.045
1673,0.115,0.065
1674,0.155,0.065
1675,0.215,0.065
1676,0.265,0.065
1677,0.325,0.085
1678,0.375,0.085
1679,0.405,0.075
1680,0.465,0.085
1681,0.515,0.115
1682,0.515,0.115
1683,0.475,0.095
1684,0.405,0.085
1685,0.305,0.075
1686,0.185,0.045
1687,0.055,0.025
1688,-0.035,-0.005
1689,-0.075,-0.005
1690,-0.125,-0.025
1691,-0.165,-0.045
1692,-0.165,-0.045
1693,-0.175,-0.045
1694,-0.175,-0.035
1695,-0.175,-0.045
1696,-0.175,-0.045
1697,-0.155,-0.035
1698,-0.175,-0.035
1699,-0.175,-0.045
1700,-0.165,-0.035
1701,-0.165,-0.025
1702,-0.165,-0.025
1703,-0.165,-0.035
1704,-0.165,-0.035
1705,-0.155,-0.035
1706,-0.165,-0.035
1707,-0.165,-0.045
1708,-0.155,-0.045
1709,-0.175,-0.045
1710,-0.175,-0.045
1711,-0.175,-0.065
1712,-0.175,-0.065
1713,-0.175,-0.055
1714,-0.185,-0.065
1715,-0.195,-0.075
1716,-0.185,-0.075
1717,-0.195,-0.075
1718,-0.185,-0.075
1719,-0.205,-0.105
1720,-0.195,-0.095
1721,-0.175,-0.075
1722,-0.205,-0.085
1723,-0.205,-0.105
1724,-0.195,-0.095
1725,-0.195,-0.085
1726,-0.185,-0.095
1727,-0.195,-0.105
1728,-0.185,-0.105
1729,-0.175,-0.075
1730,-0.185,-0.085
1731,-0.175,-0.105
1732,-0.175,-0.095
1733,-0.115,-0.045
1734,-0.095,-0.045
1735,-0.095,-0.105
1736,-0.015,-0.065
1737,0.035,-0.085
1738,-0.055,-0.105
1739,-0.125,-0.115
1740,-0.125,-0.125
1741,-0.135,-0.115
1742,-0.165,-0.085
1743,-0.195,-0.125
1744,-0.195,-0.125
1745,-0.175,-0.105
1746,-0.185,-0.115
1747,-0.195,-0.125
1748,-0.195,-0.125
1749,-0.185,-0.115
1750,-0.195,-0.105
1751,-0.195,-0.115
1752,-0.185,-0.115
1753,-0.155,-0.105
1754,-0.165,-0.105
1755,-0.155,-0.115
1756,-0.125,-0.085
1757,-0.215,0.095
1758,-0.595,0.115
1759,-0.555,-0.035
1760,0.785,-1.085
1761,2.145,-0.945
1762,2.765,-0.455
1763,2.365,-0.615
1764,0.605,-0.215
1765,-0.095,-0.005
1766,-0.035,0.035
1767,-0.085,-0.015
1768,-0.145,-0.015
1769,-0.165,-0.005
1770,-0.185,-0.005
1771,-0.195,-0.025
1772,-0.185,-0.015
1773,-0.195,-0.015
1774,-0.185,-0.015
1775,-0.195,-0.025
1776,-0.185,-0.015
1777,-0.175,-0.005
1778,-0.185,-0.025
1779,-0.175,-0.015
1780,-0.165,-0.005
1781,-0.155,-0.005
1782,-0.135,-0.005
1783,-0.135,-0.015
1784,-0.095,-0.005
1785,-0.065,0.015
1786,-0.065,0.005
1787,-0.035,0.005
1788,-0.005,0.005
1789,0.025,0.015
1790,0.065,0.025
1791,0.105,0.025
1792,0.165,0.025
1793,0.225,0.045
1794,0.275,0.045
1795,0.315,0.045
1796,0.375,0.045
1797,0.425,0.065
1798,0.475,0.075
1799,0.505,0.075
1800,0.495,0.065
1801,0.455,0.085
1802,0.355,0.055
1803,0.235,0.025
1804,0.115,0.005
1805,0.015,-0.015
1806,-0.055,-0.025
1807,-0.115,-0.055
1808,-0.145,-0.055
1809,-0.155,-0.055
1810,-0.165,-0.065
1811,-0.185,-0.075
1812,-0.175,-0.065
1813,-0.175,-0.065
1814,-0.175,-0.065
1815,-0.185,-0.075
1816,-0.165,-0.055
1817,-0.155,-0.045
1818,-0.155,-0.055
1819,-0.175,-0.065
1820,-0.155,-0.065
1821,-0.155,-0.055
1822,-0.165,-0.055
1823,-0.175,-0.065
1824,-0.165,-0.065
1825,-0.145,-0.055
1826,-0.165,-0.065
1827,-0.175,-0.085
1828,-0.175,-0.085
1829,-0.175,-0.085
1830,-0.175,-0.085
1831,-0.185,-0.095
1832,-0.185,-0.095
1833,-0.165,-0.085
1834,-0.185,-0.105
1835,-0.195,-0.115
1836,-0.185,-0.105
1837,-0.185,-0.125
1838,-0.195,-0.115
1839,-0.195,-0.125
1840,-0.185,-0.125
1841,-0.175,-0.105
1842,-0.185,-0.125
1843,-0.195,-0.125
1844,-0.185,-0.125
1845,-0.185,-0.125
1846,-0.185,-0.115
1847,-0.165,-0.105
1848,-0.165,-0.125
1849,-0.095,-0.055
1850,-0.085,-0.065
1851,-0.115,-0.125
1852,-0.005,-0.085
1853,0.045,-0.105
1854,-0.035,-0.145
1855,-0.115,-0.125
1856,-0.115,-0.145
1857,-0.135,-0.145
1858,-0.165,-0.125
1859,-0.165,-0.135
1860,-0.195,-0.165
1861,-0.195,-0.155
1862,-0.185,-0.145
1863,-0.185,-0.135
1864,-0.195,-0.145
1865,-0.195,-0.145
1866,-0.185,-0.135
1867,-0.185,-0.135
1868,-0.195,-0.145
1869,-0.185,-0.145
1870,-0.175,-0.135
1871,-0.165,-0.135
1872,-0.155,-0.145
1873,-0.135,-0.145
1874,-0.165,0.035
1875,-0.535,0.055
1876,-0.595,0.005
1877,0.605,-1.045
1878,2.105,-1.015
1879,2.805,-0.495
1880,2.195,-0.625
1881,0.415,-0.175
1882,-0.075,-0.025
1883,-0.005,-0.015
1884,-0.055,-0.045
1885,-0.115,-0.055
1886,-0.145,-0.035
1887,-0.175,-0.055
1888,-0.185,-0.055
1889,-0.165,-0.035
1890,-0.185,-0.045
1891,-0.195,-0.055
1892,-0.175,-0.055
1893,-0.165,-0.045
1894,-0.155,-0.035
1895,-0.165,-0.045
1896,-0.155,-0.045
1897,-0.135,-0.025
1898,-0.125,-0.025
1899,-0.125,-0.035
1900,-0.105,-0.025
1901,-0.085,-0.015
1902,-0.065,-0.025
1903,-0.045,-0.025
1904,-0.015,-0.005
1905,0.025,0.015
1906,0.045,0.005
1907,0.065,-0.005
1908,0.135,0.015
1909,0.175,0.015
1910,0.245,0.035
1911,0.285,0.015
1912,0.355,0.025
1913,0.415,0.055
1914,0.445,0.055
1915,0.475,0.045
1916,0.505,0.045
1917,0.475,0.055
1918,0.405,0.045
1919,0.275,0.005
1920,0.155,-0.005
1921,0.055,-0.015
1922,-0.055,-0.055
1923,-0.125,-0.075
1924,-0.145,-0.075
1925,-0.165,-0.085
1926,-0.175,-0.075
1927,-0.185,-0.085
1928,-0.185,-0.085
1929,-0.175,-0.085
1930,-0.185,-0.085
1931,-0.185,-0.095
1932,-0.185,-0.085
1933,-0.175,-0.065
1934,-0.175,-0.075
1935,-0.175,-0.085
1936,-0.165,-0.075
1937,-0.145,-0.055
1938,-0.165,-0.065
1939,-0.175,-0.085
1940,-0.165,-0.075
1941,-0.165,-0.075
1942,-0.165,-0.075
1943,-0.175,-0.095
1944,-0.165,-0.085
1945,-0.165,-0.075
1946,-0.175,-0.095
1947,-0.195,-0.115
1948,-0.185,-0.115
1949,-0.185,-0.115
1950,-0.195,-0.105
1951,-0.195,-0.125
1952,-0.195,-0.125
1953,-0.185,-0.105
1954,-0.195,-0.115
1955,-0.205,-0.125
1956,-0.195,-0.125
1957,-0.205,-0.115
1958,-0.195,-0.105
1959,-0.205,-0.125
1960,-0.205,-0.115
1961,-0.175,-0.095
1962,-0.165,-0.105
1963,-0.135,-0.065
1964,-0.105,-0.085
1965,-0.125,-0.105
1966,-0.015,-0.085
1967,0.015,-0.115
1968,-0.075,-0.135
1969,-0.105,-0.125
1970,-0.145,-0.145
1971,-0.155,-0.155
1972,-0.195,-0.135
1973,-0.185,-0.145
1974,-0.215,-0.145
1975,-0.215,-0.155
1976,-0.205,-0.135
1977,-0.185,-0.125
1978,-0.205,-0.145
1979,-0.215,-0.145
1980,-0.205,-0.145
1981,-0.205,-0.145
1982,-0.195,-0.135
1983,-0.195,-0.155
1984,-0.185,-0.145
1985,-0.155,-0.135
1986,-0.155,-0.135
1987,-0.145,-0.135
1988,-0.155,0.025
1989,-0.545,0.055
1990,-0.625,0.015
1991,0.415,-0.965
1992,1.925,-1.175
1993,2.685,-0.465
1994,2.605,-0.635
1995,0.755,-0.285
1996,-0.105,-0.045
1997,-0.055,-0.005
1998,-0.085,-0.025
1999,-0.155,-0.045
2000,-0.185,-0.045
2001,-0.185,-0.035
2002,-0.215,-0.035
2003,-0.215,-0.045
2004,-0.215,-0.045
2005,-0.205,-0.035
2006,-0.205,-0.035
2007,-0.205,-0.045
2008,-0.195,-0.035
2009,-0.175,-0.025
2010,-0.175,-0.035
2011,-0.175,-0.045
2012,-0.165,-0.045
2013,-0.155,-0.025
2014,-0.135,-0.025
2015,-0.135,-0.035
2016,-0.105,-0.025
2017,-0.065,-0.005
2018,-0.065,-0.005
2019,-0.045,-0.025
2020,-0.005,-0.015
2021,0.025,-0.005
2022,0.075,0.015
2023,0.125,-0.005
2024,0.195,0.015
2025,0.265,0.035
2026,0.305,0.005
2027,0.345,0.005
2028,0.405,0.025
2029,0.435,0.035
2030,0.475,0.055
2031,0.475,0.045
2032,0.435,0.045
2033,0.365,0.055
2034,0.245,0.025
2035,0.115,-0.005
2036,0.015,-0.035
2037,-0.085,-0.055
2038,-0.145,-0.055
2039,-0.185,-0.075
2040,-0.185,-0.075
2041,-0.185,-0.075
2042,-0.205,-0.075
2043,-0.215,-0.095
2044,-0.215,-0.095
2045,-0.205,-0.085
2046,-0.205,-0.075
2047,-0.215,-0.085
2048,-0.205,-0.095
2049,-0.185,-0.065
2050,-0.185,-0.065
2051,-0.185,-0.085
2052,-0.185,-0.075
2053,-0.185,-0.075
2054,-0.185,-0.065
2055,-0.205,-0.085
2056,-0.185,-0.085
2057,-0.175,-0.075
2058,-0.195,-0.085
2059,-0.205,-0.095
2060,-0.205,-0.095
2061,-0.215,-0.105
2062,-0.205,-0.105
2063,-0.215,-0.115
2064,-0.215,-0.115
2065,-0.205,-0.095
2066,-0.225,-0.105
2067,-0.225,-0.125
2068,-0.225,-0.135
2069,-0.225,-0.125
2070,-0.225,-0.115
2071,-0.235,-0.125
2072,-0.235,-0.135
2073,-0.215,-0.115
2074,-0.225,-0.115
2075,-0.235,-0.125
2076,-0.215,-0.135
2077,-0.165,-0.085
2078,-0.155,-0.095
2079,-0.175,-0.135
2080,-0.075,-0.105
2081,0.005,-0.115
2082,-0.105,-0.135
2083,-0.155,-0.135
2084,-0.165,-0.165
2085,-0.195,-0.145
2086,-0.225,-0.135
2087,-0.245,-0.155
2088,-0.245,-0.145
2089,-0.215,-0.125
2090,-0.235,-0.135
2091,-0.255,-0.145
2092,-0.235,-0.135
2093,-0.235,-0.135
2094,-0.225,-0.125
2095,-0.235,-0.135
2096,-0.235,-0.135
2097,-0.215,-0.115
2098,-0.225,-0.135
2099,-0.225,-0.135
2100,-0.205,-0.135
2101,-0.185,-0.125
2102,-0.145,-0.085
2103,-0.345,0.035
2104,-0.645,0.055
2105,-0.275,-0.185
2106,1.265,-1.025
2107,2.335,-0.485
2108,2.815,-0.435
2109,1.725,-0.535
2110,0.115,-0.185
2111,-0.125,-0.035
2112,-0.065,-0.035
2113,-0.105,-0.035
2114,-0.175,-0.045
2115,-0.215,-0.065
2116,-0.225,-0.055
2117,-0.235,-0.055
2118,-0.235,-0.055
2119,-0.245,-0.075
2120,-0.225,-0.065
2121,-0.205,-0.045
2122,-0.215,-0.055
2123,-0.215,-0.065
2124,-0.205,-0.065
2125,-0.195,-0.065
2126,-0.185,-0.055
2127,-0.185,-0.075
2128,-0.165,-0.065
2129,-0.125,-0.055
2130,-0.125,-0.055
2131,-0.115,-0.065
2132,-0.085,-0.055
2133,-0.065,-0.065
2134,-0.035,-0.045
2135,-0.015,-0.055
2136,0.045,-0.035
2137,0.095,-0.035
2138,0.135,-0.035
2139,0.185,-0.035
2140,0.245,-0.035
2141,0.305,-0.015
2142,0.355,-0.025
2143,0.395,-0.015
2144,0.435,-0.005
2145,0.445,0.025
2146,0.405,0.025
2147,0.315,0.015
2148,0.215,0.025
2149,0.105,0.005
2150,0.005,-0.015
2151,-0.095,-0.045
2152,-0.145,-0.035
2153,-0.165,-0.025
2154,-0.205,-0.035
2155,-0.215,-0.055
2156,-0.215,-0.055
2157,-0.235,-0.055
2158,-0.215,-0.045
2159,-0.235,-0.055
2160,-0.215,-0.055
2161,-0.205,-0.035
2162,-0.215,-0.035
2163,-0.215,-0.045
2164,-0.205,-0.035
2165,-0.205,-0.035
2166,-0.195,-0.025
2167,-0.205,-0.045
2168,-0.195,-0.035
2169,-0.175,-0.025
2170,-0.195,-0.045
2171,-0.205,-0.045
2172,-0.205,-0.055
2173,-0.205,-0.055
2174,-0.205,-0.055
2175,-0.225,-0.075
2176,-0.215,-0.075
2177,-0.205,-0.065
2178,-0.225,-0.085
2179,-0.235,-0.085
2180,-0.235,-0.085
2181,-0.235,-0.095
2182,-0.235,-0.085
2183,-0.245,-0.095
2184,-0.245,-0.085
2185,-0.215,-0.075
2186,-0.235,-0.105
2187,-0.245,-0.105
2188,-0.235,-0.085
2189,-0.235,-0.085
2190,-0.215,-0.075
2191,-0.175,-0.055
2192,-0.135,-0.025
2193,-0.135,-0.045
2194,-0.125,-0.075
2195,-0.015,-0.055
2196,-0.045,-0.095
2197,-0.105,-0.105
2198,-0.135,-0.085
2199,-0.185,-0.125
2200,-0.185,-0.125
2201,-0.205,-0.075
2202,-0.225,-0.115
2203,-0.255,-0.125
2204,-0.245,-0.115
2205,-0.235,-0.105
2206,-0.225,-0.105
2207,-0.245,-0.115
2208,-0.235,-0.115
2209,-0.225,-0.095
2210,-0.235,-0.105
2211,-0.235,-0.105
2212,-0.225,-0.105
2213,-0.215,-0.105
2214,-0.205,-0.105
2215,-0.195,-0.115
2216,-0.165,-0.065
2217,-0.325,0.145
2218,-0.655,0.155
2219,-0.405,-0.175
2220,1.085,-1.175
2221,2.255,-0.775
2222,2.765,-0.475
2223,2.065,-0.555
2224,0.335,-0.125
2225,-0.085,0.025
2226,-0.065,0.005
2227,-0.145,-0.025
2228,-0.185,-0.025
2229,-0.215,-0.025
2230,-0.225,-0.015
2231,-0.245,-0.025
2232,-0.235,-0.025
2233,-0.215,-0.005
2234,-0.235,-0.015
2235,-0.245,-0.035
2236,-0.235,-0.025
2237,-0.225,-0.025
2238,-0.205,-0.015
2239,-0.205,-0.025
2240,-0.185,-0.025
2241,-0.175,-0.015
2242,-0.175,-0.015
2243,-0.165,-0.025
2244,-0.135,-0.015
2245,-0.125,0.005
2246,-0.095,0.005
2247,-0.085,-0.005
2248,-0.045,0.015
2249,0.005,0.025
2250,0.045,0.025
2251,0.085,0.015
2252,0.145,0.025
2253,0.215,0.055
2254,0.265,0.045
2255,0.315,0.025
2256,0.365,0.055
2257,0.415,0.065
2258,0.465,0.065
2259,0.455,0.065
2260,0.425,0.065
2261,0.345,0.065
2262,0.235,0.045
2263,0.095,0.005
2264,-0.015,-0.005
2265,-0.085,-0.015
2266,-0.155,-0.045
2267,-0.195,-0.055
2268,-0.205,-0.055
2269,-0.225,-0.055
2270,-0.225,-0.055
2271,-0.235,-0.075
2272,-0.235,-0.065
2273,-0.225,-0.045
2274,-0.225,-0.055
2275,-0.225,-0.065
2276,-0.225,-0.055
2277,-0.215,-0.055
2278,-0.215,-0.045
2279,-0.215,-0.045
2280,-0.215,-0.055
2281,-0.195,-0.045
2282,-0.205,-0.045
2283,-0.215,-0.065
2284,-0.205,-0.055
2285,-0.205,-0.055
2286,-0.205,-0.055
2287,-0.215,-0.065
2288,-0.215,-0.065
2289,-0.195,-0.055
2290,-0.225,-0.065
2291,-0.235,-0.085
2292,-0.225,-0.085
2293,-0.235,-0.085
2294,-0.225,-0.085
2295,-0.235,-0.105
2296,-0.235,-0.095
2297,-0.215,-0.085
2298,-0.235,-0.095
2299,-0.245,-0.105
2300,-0.235,-0.105
2301,-0.235,-0.105
2302,-0.235,-0.095
2303,-0.235,-0.115
2304,-0.235,-0.105
2305,-0.205,-0.065
2306,-0.225,-0.095
2307,-0.185,-0.065
2308,-0.145,-0.035
2309,-0.155,-0.075
2310,-0.125,-0.075
2311,-0.015,-0.085
2312,-0.065,-0.115
2313,-0.105,-0.095
2314,-0.155,-0.115
2315,-0.185,-0.135
2316,-0.215,-0.105
2317,-0.225,-0.115
2318,-0.245,-0.135
2319,-0.255,-0.135
2320,-0.245,-0.115
2321,-0.225,-0.105
2322,-0.245,-0.115
2323,-0.265,-0.125
2324,-0.255,-0.115
2325,-0.245,-0.125
2326,-0.235,-0.115
2327,-0.245,-0.125
2328,-0.225,-0.125
2329,-0.205,-0.105
2330,-0.215,-0.105
2331,-0.215,-0.125
2332,-0.175,-0.085
2333,-0.305,0.125
2334,-0.675,0.135
2335,-0.445,-0.205
2336,1.105,-1.225
2337,2.315,-0.725
2338,2.805,-0.495
2339,1.925,-0.555
2340,0.245,-0.115
2341,-0.115,0.025
2342,-0.095,0.015
2343,-0.155,-0.025
2344,-0.205,-0.025
2345,-0.215,-0.005
2346,-0.245,-0.015
2347,-0.255,-0.025
2348,-0.255,-0.025
2349,-0.245,-0.015
2350,-0.245,-0.015
2351,-0.245,-0.025
2352,-0.245,-0.025
2353,-0.215,-0.025
2354,-0.225,-0.015
2355,-0.225,-0.025
2356,-0.205,-0.015
2357,-0.195,-0.015
2358,-0.185,-0.005
2359,-0.175,-0.015
2360,-0.155,-0.015
2361,-0.115,0.005
2362,-0.115,0.005
2363,-0.095,-0.005
2364,-0.045,0.005
2365,-0.015,0.015
2366,0.025,0.025
2367,0.075,0.025
2368,0.125,0.035
2369,0.205,0.055
2370,0.235,0.045
2371,0.285,0.035
2372,0.345,0.045
2373,0.395,0.055
2374,0.445,0.075
2375,0.455,0.065
2376,0.415,0.065
2377,0.345,0.075
2378,0.235,0.045
2379,0.095,0.005
2380,-0.015,-0.015
2381,-0.095,-0.025
2382,-0.155,-0.035
2383,-0.205,-0.065
2384,-0.225,-0.075
2385,-0.225,-0.065
2386,-0.235,-0.055
2387,-0.235,-0.075
2388,-0.235,-0.065
2389,-0.235,-0.055
2390,-0.235,-0.055
2391,-0.245,-0.065
2392,-0.235,-0.055
2393,-0.225,-0.045
2394,-0.225,-0.045
2395,-0.235,-0.055
2396,-0.225,-0.055
2397,-0.225,-0.055
2398,-0.225,-0.045
2399,-0.225,-0.055
2400,-0.225,-0.065
2401,-0.215,-0.045
2402,-0.225,-0.055
2403,-0.235,-0.075
2404,-0.225,-0.075
2405,-0.235,-0.085
2406,-0.235,-0.075
2407,-0.245,-0.085
2408,-0.245,-0.095
2409,-0.235,-0.085
2410,-0.245,-0.105
2411,-0.255,-0.115
2412,-0.255,-0.105
2413,-0.255,-0.105
2414,-0.255,-0.105
2415,-0.265,-0.125
2416,-0.255,-0.115
2417,-0.245,-0.095
2418,-0.245,-0.105
2419,-0.255,-0.125
2420,-0.245,-0.115
2421,-0.235,-0.115
2422,-0.235,-0.105
2423,-0.255,-0.115
2424,-0.235,-0.105
2425,-0.205,-0.105
2426,-0.185,-0.055
2427,-0.165,-0.065
2428,-0.175,-0.105
2429,-0.095,-0.075
2430,-0.025,-0.085
2431,-0.105,-0.135
2432,-0.155,-0.125
2433,-0.175,-0.125
2434,-0.185,-0.125
2435,-0.245,-0.125
2436,-0.235,-0.125
2437,-0.255,-0.135
2438,-0.245,-0.115
2439,-0.255,-0.125
2440,-0.235,-0.125
2441,-0.215,-0.105
2442,-0.245,-0.115
2443,-0.255,-0.125
2444,-0.245,-0.125
2445,-0.245,-0.115
2446,-0.235,-0.105
2447,-0.245,-0.125
2448,-0.215,-0.115
2449,-0.195,-0.095
2450,-0.195,-0.115
2451,-0.175,-0.115
2452,-0.235,0.095
2453,-0.655,0.115
2454,-0.515,-0.095
2455,0.955,-1.175
2456,2.165,-0.945
2457,2.715,-0.455
2458,2.265,-0.605
2459,0.515,-0.205
2460,-0.115,-0.005
2461,-0.055,0.015
2462,-0.115,-0.005
2463,-0.185,-0.015
2464,-0.215,-0.015
2465,-0.225,-0.005
2466,-0.235,-0.005
2467,-0.245,-0.025
2468,-0.235,-0.015
2469,-0.235,-0.015
2470,-0.235,-0.015
2471,-0.235,-0.025
2472,-0.225,-0.015
2473,-0.205,-0.005
2474,-0.205,-0.005
2475,-0.205,-0.025
2476,-0.195,-0.015
2477,-0.175,-0.005
2478,-0.165,-0.005
2479,-0.145,-0.005
2480,-0.125,0.005
2481,-0.085,0.005
2482,-0.075,0.015
2483,-0.055,0.005
2484,-0.015,0.015
2485,0.035,0.035
2486,0.085,0.045
2487,0.125,0.035
2488,0.185,0.045
2489,0.255,0.055
2490,0.305,0.065
2491,0.345,0.055
2492,0.405,0.065
2493,0.445,0.075
2494,0.475,0.085
2495,0.455,0.065
2496,0.385,0.065
2497,0.305,0.055
2498,0.165,0.025
2499,0.065,-0.005
2500,-0.015,-0.015
2501,-0.095,-0.035
2502,-0.145,-0.045
2503,-0.175,-0.055
2504,-0.195,-0.065
2505,-0.195,-0.055
2506,-0.205,-0.065
2507,-0.205,-0.075
2508,-0.205,-0.065
2509,-0.195,-0.065
2510,-0.205,-0.055
2511,-0.195,-0.075
2512,-0.195,-0.065
2513,-0.195,-0.055
2514,-0.195,-0.055
2515,-0.195,-0.055
2516,-0.185,-0.055
2517,-0.175,-0.055
2518,-0.185,-0.045
2519,-0.195,-0.065
2520,-0.195,-0.065
2521,-0.185,-0.055
2522,-0.185,-0.065
2523,-0.195,-0.085
2524,-0.185,-0.085
2525,-0.185,-0.085
2526,-0.195,-0.075
2527,-0.205,-0.105
2528,-0.205,-0.095
2529,-0.185,-0.095
2530,-0.205,-0.095
2531,-0.215,-0.105
2532,-0.205,-0.105
2533,-0.205,-0.105
2534,-0.205,-0.115
2535,-0.225,-0.115
2536,-0.215,-0.105
2537,-0.185,-0.095
2538,-0.195,-0.095
2539,-0.215,-0.115
2540,-0.205,-0.115
2541,-0.195,-0.115
2542,-0.195,-0.105
2543,-0.195,-0.095
2544,-0.195,-0.125
2545,-0.145,-0.065
2546,-0.125,-0.055
2547,-0.135,-0.105
2548,-0.065,-0.075
2549,0.025,-0.085
2550,-0.045,-0.115
2551,-0.105,-0.105
2552,-0.145,-0.135
2553,-0.145,-0.105
2554,-0.185,-0.105
2555,-0.195,-0.125
2556,-0.205,-0.125
2557,-0.195,-0.115
2558,-0.195,-0.105
2559,-0.195,-0.125
2560,-0.195,-0.125
2561,-0.185,-0.105
2562,-0.195,-0.115
2563,-0.195,-0.125
2564,-0.185,-0.115
2565,-0.185,-0.105
2566,-0.165,-0.115
2567,-0.165,-0.115
2568,-0.165,-0.115
2569,-0.125,-0.095
2570,-0.145,-0.005
2571,-0.515,0.035
2572,-0.565,0.085
2573,0.305,-0.555
2574,1.795,-1.025
2575,2.565,-0.405
2576,2.685,-0.505
2577,1.125,-0.425
2578,-0.035,-0.105
2579,-0.045,0.005
2580,-0.045,-0.005
2581,-0.095,-0.025
2582,-0.135,-0.025
2583,-0.175,-0.035
2584,-0.175,-0.035
2585,-0.165,-0.015
2586,-0.175,-0.025
2587,-0.185,-0.035
2588,-0.175,-0.035
2589,-0.165,-0.025
2590,-0.165,-0.025
2591,-0.165,-0.045
2592,-0.165,-0.025
2593,-0.145,-0.015
2594,-0.145,-0.025
2595,-0.135,-0.035
2596,-0.115,-0.025
2597,-0.105,-0.015
2598,-0.095,-0.005
2599,-0.075,-0.025
2600,-0.055,-0.015
2601,-0.015,0.005
2602,0.005,0.005
2603,0.035,-0.005
2604,0.075,0.005
2605,0.125,0.005
2606,0.175,0.005
2607,0.215,0.015
2608,0.275,0.015
2609,0.345,0.035
2610,0.375,0.035
2611,0.415,0.025
2612,0.455,0.035
2613,0.485,0.065
2614,0.455,0.075
2615,0.375,0.045
2616,0.285,0.045
2617,0.195,0.045
2618,0.055,0.025
2619,-0.045,-0.015
2620,-0.105,-0.025
2621,-0.135,-0.035
2622,-0.175,-0.035
2623,-0.185,-0.045
2624,-0.185,-0.045
2625,-0.175,-0.025
2626,-0.185,-0.035
2627,-0.195,-0.035
2628,-0.185,-0.035
2629,-0.175,-0.015
2630,-0.185,-0.025
2631,-0.175,-0.025
2632,-0.175,-0.015
2633,-0.155,-0.015
2634,-0.165,-0.015
2635,-0.175,-0.025
2636,-0.165,-0.025
2637,-0.175,-0.025
2638,-0.165,-0.025
2639,-0.185,-0.035
2640,-0.175,-0.035
2641,-0.155,-0.025
2642,-0.185,-0.035
2643,-0.195,-0.055
2644,-0.185,-0.055
2645,-0.195,-0.055
2646,-0.195,-0.045
2647,-0.205,-0.055
2648,-0.205,-0.075
2649,-0.195,-0.055
2650,-0.205,-0.055
2651,-0.215,-0.065
2652,-0.215,-0.065
2653,-0.205,-0.075
2654,-0.205,-0.065
2655,-0.215,-0.075
2656,-0.205,-0.075
2657,-0.185,-0.055
2658,-0.205,-0.065
2659,-0.205,-0.085
2660,-0.195,-0.075
2661,-0.195,-0.065
2662,-0.195,-0.065
2663,-0.195,-0.075
2664,-0.185,-0.065
2665,-0.175,-0.055
2666,-0.175,-0.045
2667,-0.195,-0.095
2668,-0.135,-0.035
2669,-0.105,-0.025
2670,-0.105,-0.035
2671,-0.095,-0.045
2672,0.035,-0.045
2673,0.005,-0.075
2674,-0.105,-0.075
2675,-0.145,-0.095
2676,-0.145,-0.105
2677,-0.175,-0.065
2678,-0.175,-0.085
2679,-0.195,-0.095
2680,-0.195,-0.095
2681,-0.185,-0.065
2682,-0.195,-0.085
2683,-0.195,-0.085
2684,-0.195,-0.075
2685,-0.185,-0.075
2686,-0.185,-0.075
2687,-0.185,-0.085
2688,-0.185,-0.075
2689,-0.165,-0.065
2690,-0.155,-0.075
2691,-0.145,-0.085
2692,-0.125,-0.015
2693,-0.345,0.165
2694,-0.625,0.195
2695,-0.255,-0.245
2696,1.305,-1.245
2697,2.355,-0.715
2698,2.815,-0.465
2699,1.745,-0.485
2700,0.215,-0.065
2701,-0.045,0.055
2702,-0.025,0.055
2703,-0.095,0.005
2704,-0.155,0.025
2705,-0.175,0.025
2706,-0.195,0.015
2707,-0.205,0.005
2708,-0.205,0.015
2709,-0.205,0.025
2710,-0.195,0.025
2711,-0.205,0.025
2712,-0.195,0.015
2713,-0.185,0.035
2714,-0.185,0.025
2715,-0.185,0.015
2716,-0.165,0.025
2717,-0.155,0.025
2718,-0.145,0.045
2719,-0.135,0.025
2720,-0.115,0.035
2721,-0.085,0.045
2722,-0.075,0.045
2723,-0.055,0.035
2724,-0.025,0.045
2725,0.015,0.055
2726,0.055,0.065
2727,0.095,0.065
2728,0.145,0.075
2729,0.215,0.095
2730,0.255,0.095
2731,0.295,0.085
2732,0.355,0.085
2733,0.415,0.105
2734,0.455,0.115
2735,0.475,0.105
2736,0.485,0.105
2737,0.445,0.115
2738,0.345,0.095
2739,0.215,0.055
2740,0.105,0.025
2741,0.005,0.005
2742,-0.075,-0.005
2743,-0.145,-0.035
2744,-0.165,-0.035
2745,-0.175,-0.035
2746,-0.185,-0.045
2747,-0.195,-0.055
2748,-0.195,-0.045
2749,-0.195,-0.045
2750,-0.185,-0.035
2751,-0.205,-0.055
2752,-0.195,-0.045
2753,-0.175,-0.015
2754,-0.195,-0.025
2755,-0.185,-0.045
2756,-0.175,-0.035
2757,-0.175,-0.025
2758,-0.175,-0.025
2759,-0.185,-0.035
2760,-0.175,-0.035
2761,-0.165,-0.025
2762,-0.175,-0.045
2763,-0.185,-0.045
2764,-0.175,-0.045
2765,-0.185,-0.055
2766,-0.185,-0.065
2767,-0.195,-0.075
2768,-0.195,-0.075
2769,-0.185,-0.065
2770,-0.195,-0.075
2771,-0.205,-0.095
2772,-0.205,-0.095
2773,-0.205,-0.085
2774,-0.205,-0.075
2775,-0.215,-0.095
2776,-0.215,-0.095
2777,-0.195,-0.095
2778,-0.205,-0.095
2779,-0.205,-0.115
2780,-0.195,-0.105
2781,-0.215,-0.095
2782,-0.185,-0.095
2783,-0.195,-0.105
2784,-0.195,-0.105
2785,-0.185,-0.085
2786,-0.165,-0.075
2787,-0.185,-0.105
2788,-0.135,-0.055
2789,-0.105,-0.055
2790,-0.125,-0.095
2791,-0.045,-0.065
2792,0.025,-0.075
2793,-0.035,-0.095
2794,-0.115,-0.105
2795,-0.145,-0.125
2796,-0.135,-0.125
2797,-0.175,-0.095
2798,-0.175,-0.105
2799,-0.205,-0.135
2800,-0.205,-0.125
2801,-0.185,-0.095
2802,-0.185,-0.105
2803,-0.195,-0.125
2804,-0.185,-0.115
2805,-0.175,-0.115
2806,-0.175,-0.105
2807,-0.175,-0.115
2808,-0.175,-0.125
2809,-0.155,-0.105
2810,-0.155,-0.115
2811,-0.145,-0.115
2812,-0.105,-0.065
2813,-0.315,0.115
2814,-0.625,0.115
2815,-0.265,-0.235
2816,1.305,-1.165
2817,2.365,-0.655
2818,2.805,-0.455
2819,1.945,-0.585
2820,0.335,-0.145
2821,-0.055,0.015
2822,-0.015,0.015
2823,-0.085,-0.025
2824,-0.135,-0.025
2825,-0.165,-0.015
2826,-0.185,-0.025
2827,-0.195,-0.025
2828,-0.175,-0.025
2829,-0.185,-0.025
2830,-0.175,-0.025
2831,-0.185,-0.035
2832,-0.165,-0.025
2833,-0.155,-0.025
2834,-0.155,-0.015
2835,-0.155,-0.025
2836,-0.135,-0.025
2837,-0.135,-0.025
2838,-0.105,-0.025
2839,-0.095,-0.025
2840,-0.065,-0.025
2841,-0.045,-0.015
2842,-0.045,-0.015
2843,-0.025,-0.025
2844,0.025,-0.005
2845,0.055,0.005
2846,0.105,-0.005
2847,0.145,-0.005
2848,0.205,0.015
2849,0.265,0.025
2850,0.325,0.015
2851,0.365,0.005
2852,0.415,0.025
2853,0.465,0.035
2854,0.505,0.045
2855,0.525,0.045
2856,0.525,0.035
2857,0.475,0.055
2858,0.375,0.035
2859,0.255,-0.005
2860,0.135,-0.015
2861,0.035,-0.035
2862,-0.035,-0.045
2863,-0.095,-0.055
2864,-0.125,-0.075
2865,-0.135,-0.055
2866,-0.165,-0.085
2867,-0.175,-0.095
2868,-0.165,-0.085
2869,-0.175,-0.075
2870,-0.165,-0.075
2871,-0.175,-0.085
2872,-0.165,-0.075
2873,-0.135,-0.055
2874,-0.155,-0.075
2875,-0.165,-0.085
2876,-0.155,-0.065
2877,-0.135,-0.065
2878,-0.145,-0.055
2879,-0.145,-0.065
2880,-0.145,-0.065
2881,-0.145,-0.065
2882,-0.145,-0.075
2883,-0.165,-0.085
2884,-0.155,-0.085
2885,-0.155,-0.095
2886,-0.155,-0.095
2887,-0.165,-0.095
2888,-0.175,-0.105
2889,-0.155,-0.095
2890,-0.175,-0.105
2891,-0.185,-0.115
2892,-0.175,-0.115
2893,-0.175,-0.115
2894,-0.175,-0.105
2895,-0.185,-0.125
2896,-0.175,-0.125
2897,-0.165,-0.105
2898,-0.175,-0.115
2899,-0.185,-0.125
2900,-0.175,-0.115
2901,-0.175,-0.115
2902,-0.155,-0.105
2903,-0.185,-0.145
2904,-0.165,-0.115
2905,-0.105,-0.065
2906,-0.105,-0.105
2907,-0.085,-0.105
2908,0.045,-0.105
2909,-0.005,-0.135
2910,-0.105,-0.125
2911,-0.125,-0.135
2912,-0.155,-0.155
2913,-0.155,-0.115
2914,-0.175,-0.125
2915,-0.185,-0.145
2916,-0.185,-0.135
2917,-0.185,-0.115
2918,-0.175,-0.125
2919,-0.185,-0.135
2920,-0.175,-0.125
2921,-0.175,-0.115
2922,-0.175,-0.115
2923,-0.175,-0.125
2924,-0.155,-0.125
2925,-0.145,-0.115
2926,-0.125,-0.125
2927,-0.115,-0.115
2928,-0.195,0.005
2929,-0.535,0.035
2930,-0.515,0.025
2931,0.575,-0.695
2932,1.955,-0.715
2933,2.675,-0.385
2934,2.525,-0.515
2935,0.775,-0.345
2936,-0.075,-0.075
2937,0.005,0.005
2938,-0.035,-0.035
2939,-0.115,-0.055
2940,-0.145,-0.035
2941,-0.165,-0.045
2942,-0.165,-0.045
2943,-0.175,-0.055
2944,-0.175,-0.055
2945,-0.155,-0.045
2946,-0.175,-0.055
2947,-0.175,-0.055
2948,-0.155,-0.055
2949,-0.155,-0.055
2950,-0.145,-0.045
2951,-0.155,-0.065
2952,-0.135,-0.065
2953,-0.115,-0.055
2954,-0.105,-0.055
2955,-0.085,-0.065
2956,-0.055,-0.045
2957,-0.045,-0.045
2958,-0.025,-0.045
2959,-0.005,-0.065
2960,0.045,-0.035
2961,0.075,-0.025
2962,0.115,-0.035
2963,0.155,-0.055
2964,0.215,-0.035
2965,0.265,-0.035
2966,0.315,-0.025
2967,0.355,-0.025
2968,0.395,-0.025
2969,0.465,-0.005
2970,0.485,-0.015
2971,0.485,-0.005
2972,0.445,0.005
2973,0.365,0.005
2974,0.255,-0.005
2975,0.145,-0.015
2976,0.045,-0.025
2977,-0.015,-0.035
2978,-0.095,-0.055
2979,-0.145,-0.075
2980,-0.155,-0.075
2981,-0.175,-0.065
2982,-0.175,-0.055
2983,-0.185,-0.065
2984,-0.175,-0.055
2985,-0.175,-0.045
2986,-0.175,-0.055
2987,-0.185,-0.055
2988,-0.175,-0.045
2989,-0.165,-0.035
2990,-0.175,-0.035
2991,-0.175,-0.045
2992,-0.175,-0.045
2993,-0.165,-0.025
2994,-0.175,-0.055
2995,-0.185,-0.055
2996,-0.175,-0.045
2997,-0.175,-0.055
2998,-0.185,-0.055
2999,-0.195,-0.065
3000,-0.195,-0.065
3001,-0.175,-0.055
3002,-0.205,-0.065
3003,-0.215,-0.085
3004,-0.215,-0.085
3005,-0.215,-0.075
3006,-0.225,-0.065
3007,-0.235,-0.085
3008,-0.225,-0.085
3009,-0.215,-0.075
3010,-0.235,-0.085
3011,-0.235,-0.095
3012,-0.225,-0.095
3013,-0.225,-0.095
3014,-0.225,-0.085
3015,-0.235,-0.095
3016,-0.225,-0.095
3017,-0.205,-0.075
3018,-0.225,-0.085
3019,-0.245,-0.115
3020,-0.205,-0.085
3021,-0.135,-0.045
3022,-0.135,-0.065
3023,-0.105,-0.065
3024,-0.015,-0.105
3025,-0.125,-0.115
3026,-0.175,-0.095
3027,-0.195,-0.115
3028,-0.195,-0.125
3029,-0.215,-0.095
3030,-0.245,-0.105
3031,-0.235,-0.115
3032,-0.225,-0.105
3033,-0.235,-0.095
3034,-0.225,-0.095
3035,-0.235,-0.105
3036,-0.225,-0.105
3037,-0.225,-0.095
3038,-0.215,-0.095
3039,-0.225,-0.105
3040,-0.195,-0.095
3041,-0.145,-0.065
3042,-0.305,0.135
3043,-0.685,0.165
3044,-0.425,-0.175
3045,1.245,-1.255
3046,2.375,-0.665
3047,2.825,-0.535
3048,1.545,-0.425
3049,0.055,-0.035
3050,-0.085,0.055
3051,-0.095,0.015
3052,-0.155,0.005
3053,-0.205,0.005
3054,-0.225,0.005
3055,-0.235,-0.005
3056,-0.245,-0.005
3057,-0.225,0.015
3058,-0.235,0.005
3059,-0.245,0.005
3060,-0.235,-0.005
3061,-0.225,0.005
3062,-0.225,0.005
3063,-0.225,0.005
3064,-0.215,-0.005
3065,-0.205,-0.005
3066,-0.195,0.015
3067,-0.195,0.005
3068,-0.175,0.015
3069,-0.155,0.015
3070,-0.135,0.025
3071,-0.125,0.015
3072,-0.095,0.025
3073,-0.065,0.045
3074,-0.035,0.045
3075,-0.005,0.045
3076,0.045,0.045
3077,0.095,0.065
3078,0.155,0.075
3079,0.205,0.075
3080,0.255,0.065
3081,0.325,0.085
3082,0.365,0.095
3083,0.405,0.085
3084,0.445,0.105
3085,0.425,0.105
3086,0.365,0.085
3087,0.255,0.055
3088,0.145,0.025
3089,0.035,0.015
3090,-0.085,-0.015
3091,-0.165,-0.045
3092,-0.205,-0.045
3093,-0.225,-0.035
3094,-0.235,-0.045
3095,-0.245,-0.055
3096,-0.245,-0.055
3097,-0.235,-0.045
3098,-0.235,-0.045
3099,-0.235,-0.055
3100,-0.235,-0.045
3101,-0.225,-0.045
3102,-0.235,-0.035
3103,-0.235,-0.045
3104,-0.235,-0.035
3105,-0.205,-0.025
3106,-0.225,-0.035
3107,-0.225,-0.045
3108,-0.225,-0.045
3109,-0.235,-0.035
3110,-0.225,-0.045
3111,-0.235,-0.055
3112,-0.235,-0.045
3113,-0.215,-0.045
3114,-0.235,-0.055
3115,-0.255,-0.085
3116,-0.245,-0.075
3117,-0.245,-0.075
3118,-0.245,-0.075
3119,-0.265,-0.095
3120,-0.245,-0.085
3121,-0.225,-0.075
3122,-0.255,-0.085
3123,-0.255,-0.105
3124,-0.255,-0.105
3125,-0.265,-0.105
3126,-0.255,-0.095
3127,-0.265,-0.105
3128,-0.255,-0.095
3129,-0.235,-0.085
3130,-0.245,-0.095
3131,-0.245,-0.115
3132,-0.245,-0.105
3133,-0.235,-0.075
3134,-0.225,-0.105
3135,-0.205,-0.075
3136,-0.155,-0.055
3137,-0.145,-0.065
3138,-0.135,-0.075
3139,-0.025,-0.075
3140,-0.085,-0.105
3141,-0.135,-0.095
3142,-0.155,-0.095
3143,-0.185,-0.135
3144,-0.215,-0.105
3145,-0.215,-0.095
3146,-0.235,-0.135
3147,-0.245,-0.135
3148,-0.245,-0.115
3149,-0.245,-0.115
3150,-0.225,-0.105
3151,-0.245,-0.135
3152,-0.235,-0.125
3153,-0.205,-0.105
3154,-0.215,-0.115
3155,-0.205,-0.125
3156,-0.185,-0.125
3157,-0.165,-0.035
3158,-0.465,0.075
3159,-0.685,0.095
3160,0.005,-0.625
3161,1.545,-1.185
3162,2.455,-0.445
3163,2.755,-0.545
3164,1.285,-0.425
3165,0.005,-0.085
3166,-0.095,0.005
3167,-0.075,-0.015
3168,-0.145,-0.025
3169,-0.185,-0.015
3170,-0.235,-0.025
3171,-0.245,-0.035
3172,-0.245,-0.025
3173,-0.245,-0.025
3174,-0.235,-0.015
3175,-0.235,-0.035
3176,-0.235,-0.025
3177,-0.215,-0.015
3178,-0.225,-0.025
3179,-0.215,-0.035
3180,-0.195,-0.035
3181,-0.195,-0.025
3182,-0.175,-0.015
3183,-0.185,-0.035
3184,-0.165,-0.025
3185,-0.105,-0.005
3186,-0.115,-0.015
3187,-0.095,-0.035
3188,-0.065,-0.015
3189,-0.035,-0.015
3190,0.005,-0.005
3191,0.035,-0.015
3192,0.095,-0.005
3193,0.165,0.005
3194,0.225,0.005
3195,0.265,-0.005
3196,0.315,0.005
3197,0.365,0.015
3198,0.425,0.015
3199,0.445,0.025
3200,0.465,0.025
3201,0.465,0.045
3202,0.375,0.035
3203,0.295,0.005
3204,0.175,0.005
3205,0.055,-0.015
3206,-0.025,-0.025
3207,-0.115,-0.055
3208,-0.155,-0.045
3209,-0.175,-0.035
3210,-0.205,-0.055
3211,-0.225,-0.075
3212,-0.215,-0.065
3213,-0.215,-0.055
3214,-0.205,-0.055
3215,-0.215,-0.065
3216,-0.195,-0.055
3217,-0.175,-0.035
3218,-0.195,-0.045
3219,-0.205,-0.055
3220,-0.195,-0.045
3221,-0.185,-0.045
3222,-0.175,-0.045
3223,-0.195,-0.045
3224,-0.205,-0.045
3225,-0.185,-0.035
3226,-0.205,-0.055
3227,-0.205,-0.075
3228,-0.205,-0.065
3229,-0.205,-0.075
3230,-0.215,-0.065
3231,-0.215,-0.085
3232,-0.215,-0.085
3233,-0.225,-0.075
3234,-0.225,-0.075
3235,-0.235,-0.095
3236,-0.235,-0.095
3237,-0.225,-0.095
3238,-0.235,-0.085
3239,-0.235,-0.085
3240,-0.235,-0.095
3241,-0.215,-0.075
3242,-0.235,-0.095
3243,-0.245,-0.105
3244,-0.225,-0.095
3245,-0.245,-0.125
3246,-0.265,-0.115
3247,-0.195,-0.075
3248,-0.155,-0.075
3249,-0.085,-0.045
3250,-0.065,-0.095
3251,-0.135,-0.105
3252,-0.155,-0.095
3253,-0.185,-0.135
3254,-0.215,-0.105
3255,-0.255,-0.095
3256,-0.245,-0.115
3257,-0.225,-0.095
3258,-0.245,-0.105
3259,-0.235,-0.115
3260,-0.225,-0.105
3261,-0.215,-0.095
3262,-0.235,-0.095
3263,-0.225,-0.115
3264,-0.215,-0.105
3265,-0.195,-0.095
3266,-0.205,-0.095
3267,-0.175,-0.085
3268,-0.295,0.045
3269,-0.625,0.055
3270,-0.495,-0.045
3271,0.905,-0.885
3272,2.195,-0.495
3273,2.795,-0.395
3274,2.025,-0.495
3275,0.265,-0.205
3276,-0.145,-0.025
3277,-0.065,-0.005
3278,-0.105,-0.035
3279,-0.185,-0.055
3280,-0.205,-0.045
3281,-0.205,-0.025
3282,-0.235,-0.035
3283,-0.235,-0.045
3284,-0.225,-0.045
3285,-0.235,-0.045
3286,-0.235,-0.045
3287,-0.225,-0.055
3288,-0.225,-0.045
3289,-0.205,-0.045
3290,-0.205,-0.055
3291,-0.195,-0.075
3292,-0.175,-0.065
3293,-0.175,-0.065
3294,-0.155,-0.045
3295,-0.135,-0.065
3296,-0.115,-0.065
3297,-0.085,-0.045
3298,-0.085,-0.045
3299,-0.055,-0.055
3300,-0.015,-0.055
3301,0.025,-0.055
3302,0.095,-0.045
3303,0.115,-0.055
3304,0.175,-0.055
3305,0.245,-0.035
3306,0.285,-0.035
3307,0.305,-0.045
3308,0.355,-0.035
3309,0.405,-0.025
3310,0.425,-0.005
3311,0.395,-0.015
3312,0.355,-0.015
3313,0.275,0.005
3314,0.145,-0.015
3315,0.035,-0.045
3316,-0.045,-0.045
3317,-0.125,-0.065
3318,-0.165,-0.065
3319,-0.205,-0.075
3320,-0.215,-0.075
3321,-0.205,-0.055
3322,-0.225,-0.065
3323,-0.225,-0.075
3324,-0.215,-0.065
3325,-0.215,-0.055
3326,-0.205,-0.045
3327,-0.215,-0.075
3328,-0.205,-0.055
3329,-0.185,-0.045
3330,-0.205,-0.045
3331,-0.205,-0.065
3332,-0.195,-0.055
3333,-0.205,-0.055
3334,-0.205,-0.055
3335,-0.215,-0.075
3336,-0.215,-0.085
3337,-0.195,-0.055
3338,-0.215,-0.075
3339,-0.225,-0.095
3340,-0.225,-0.085
3341,-0.235,-0.085
3342,-0.235,-0.085
3343,-0.255,-0.095
3344,-0.245,-0.105
3345,-0.225,-0.085
3346,-0.245,-0.105
3347,-0.255,-0.125
3348,-0.255,-0.115
3349,-0.255,-0.115
3350,-0.255,-0.115
3351,-0.265,-0.125
3352,-0.255,-0.115
3353,-0.245,-0.105
3354,-0.255,-0.105
3355,-0.285,-0.155
3356,-0.275,-0.135
3357,-0.185,-0.075
3358,-0.145,-0.045
3359,-0.105,-0.105
3360,-0.115,-0.125
3361,-0.155,-0.095
3362,-0.195,-0.135
3363,-0.225,-0.145
3364,-0.245,-0.115
3365,-0.265,-0.125
3366,-0.255,-0.125
3367,-0.255,-0.135
3368,-0.255,-0.125
3369,-0.235,-0.115
3370,-0.255,-0.125
3371,-0.265,-0.125
3372,-0.245,-0.125
3373,-0.255,-0.125
3374,-0.235,-0.115
3375,-0.205,-0.125
3376,-0.255,0.045
3377,-0.615,0.095
3378,-0.655,0.055
3379,0.415,-0.865
3380,1.925,-0.975
3381,2.595,-0.495
3382,2.685,-0.545
3383,0.915,-0.305
3384,-0.155,-0.055
3385,-0.105,0.025
3386,-0.145,-0.015
3387,-0.205,-0.035
3388,-0.245,-0.035
3389,-0.265,-0.025
3390,-0.275,-0.025
3391,-0.285,-0.035
3392,-0.285,-0.025
3393,-0.275,-0.025
3394,-0.285,-0.025
3395,-0.275,-0.045
3396,-0.265,-0.025
3397,-0.255,-0.025
3398,-0.255,-0.025
3399,-0.255,-0.045
3400,-0.235,-0.035
3401,-0.205,-0.025
3402,-0.205,-0.025
3403,-0.205,-0.025
3404,-0.185,-0.025
3405,-0.165,-0.015
3406,-0.145,-0.005
3407,-0.135,-0.015
3408,-0.095,-0.005
3409,-0.075,0.005
3410,-0.025,0.025
3411,0.005,0.015
3412,0.065,0.015
3413,0.115,0.015
3414,0.165,0.025
3415,0.215,0.025
3416,0.265,0.035
3417,0.315,0.045
3418,0.365,0.045
3419,0.385,0.045
3420,0.365,0.055
3421,0.295,0.045
3422,0.195,0.035
3423,0.095,-0.005
3424,-0.015,-0.025
3425,-0.105,-0.045
3426,-0.165,-0.045
3427,-0.215,-0.065
3428,-0.245,-0.075
3429,-0.245,-0.075
3430,-0.255,-0.075
3431,-0.265,-0.075
3432,-0.255,-0.085
3433,-0.255,-0.075
3434,-0.255,-0.065
3435,-0.255,-0.065
3436,-0.245,-0.065
3437,-0.245,-0.065
3438,-0.245,-0.045
3439,-0.255,-0.065
3440,-0.235,-0.065
3441,-0.245,-0.055
3442,-0.235,-0.055
3443,-0.255,-0.065
3444,-0.245,-0.065
3445,-0.245,-0.065
3446,-0.245,-0.055
3447,-0.255,-0.075
3448,-0.255,-0.075
3449,-0.255,-0.075
3450,-0.265,-0.085
3451,-0.275,-0.085
3452,-0.275,-0.095
3453,-0.275,-0.085
3454,-0.275,-0.095
3455,-0.295,-0.105
3456,-0.285,-0.105
3457,-0.265,-0.085
3458,-0.275,-0.095
3459,-0.285,-0.105
3460,-0.275,-0.105
3461,-0.275,-0.115
3462,-0.275,-0.095
3463,-0.285,-0.115
3464,-0.275,-0.115
3465,-0.255,-0.095
3466,-0.265,-0.105
3467,-0.265,-0.115
3468,-0.195,-0.055
3469,-0.165,-0.045
3470,-0.185,-0.085
3471,-0.125,-0.085
3472,-0.065,-0.095
3473,-0.115,-0.115
3474,-0.175,-0.105
3475,-0.215,-0.125
3476,-0.225,-0.135
3477,-0.265,-0.105
3478,-0.265,-0.125
3479,-0.285,-0.135
3480,-0.285,-0.125
3481,-0.265,-0.115
3482,-0.275,-0.125
3483,-0.285,-0.135
3484,-0.275,-0.125
3485,-0.275,-0.125
3486,-0.265,-0.125
3487,-0.265,-0.135
3488,-0.245,-0.125
3489,-0.215,-0.005
3490,-0.495,0.125
3491,-0.725,0.135
3492,-0.285,-0.515
3493,1.395,-1.375
3494,2.385,-0.655
3495,2.775,-0.565
3496,1.795,-0.505
3497,0.155,-0.075
3498,-0.155,0.025
3499,-0.155,-0.015
3500,-0.205,-0.015
3501,-0.255,-0.015
3502,-0.265,-0.015
3503,-0.295,-0.035
3504,-0.295,-0.025
3505,-0.285,-0.005
3506,-0.295,-0.015
3507,-0.305,-0.025
3508,-0.295,-0.035
3509,-0.275,-0.025
3510,-0.265,-0.015
3511,-0.275,-0.035
3512,-0.255,-0.015
3513,-0.235,-0.005
3514,-0.245,-0.005
3515,-0.235,-0.015
3516,-0.205,-0.005
3517,-0.195,0.005
3518,-0.175,0.015
3519,-0.165,0.005
3520,-0.135,0.005
3521,-0.085,0.035
3522,-0.065,0.025
3523,-0.025,0.035
3524,0.025,0.045
3525,0.095,0.055
3526,0.135,0.065
3527,0.175,0.065
3528,0.245,0.045
3529,0.305,0.085
3530,0.355,0.085
3531,0.395,0.085
3532,0.415,0.085
3533,0.395,0.085
3534,0.325,0.065
3535,0.215,0.045
3536,0.105,0.025
3537,0.015,0.015
3538,-0.095,-0.035
3539,-0.165,-0.055
3540,-0.195,-0.055
3541,-0.225,-0.055
3542,-0.235,-0.055
3543,-0.245,-0.065
3544,-0.235,-0.065
3545,-0.215,-0.055
3546,-0.235,-0.055
3547,-0.255,-0.085
3548,-0.235,-0.065
3549,-0.235,-0.065
3550,-0.225,-0.045
3551,-0.225,-0.055
3552,-0.225,-0.045
3553,-0.205,-0.035
3554,-0.215,-0.045
3555,-0.235,-0.055
3556,-0.225,-0.045
3557,-0.225,-0.045
3558,-0.215,-0.055
3559,-0.225,-0.065
3560,-0.215,-0.055
3561,-0.205,-0.045
3562,-0.215,-0.065
3563,-0.235,-0.085
3564,-0.225,-0.075
3565,-0.225,-0.075
3566,-0.225,-0.075
3567,-0.235,-0.085
3568,-0.235,-0.085
3569,-0.225,-0.085
3570,-0.225,-0.095
3571,-0.235,-0.095
3572,-0.225,-0.095
3573,-0.235,-0.095
3574,-0.225,-0.095
3575,-0.215,-0.095
3576,-0.205,-0.085
3577,-0.165,-0.045
3578,-0.125,-0.015
3579,-0.135,-0.055
3580,-0.145,-0.075
3581,-0.005,-0.055
3582,-0.025,-0.075
3583,-0.095,-0.105
3584,-0.125,-0.095
3585,-0.145,-0.105
3586,-0.185,-0.095
3587,-0.215,-0.105
3588,-0.215,-0.125
3589,-0.225,-0.115
3590,-0.225,-0.115
3591,-0.225,-0.125
3592,-0.215,-0.125
3593,-0.205,-0.105
3594,-0.225,-0.105
3595,-0.215,-0.125
3596,-0.195,-0.095
3597,-0.195,-0.105
3598,-0.185,-0.105
3599,-0.165,-0.085
3600,-0.275,0.105
3601,-0.625,0.115
3602,-0.535,-0.135
3603,0.985,-1.165
3604,2.225,-0.675
3605,2.775,-0.455
3606,2.195,-0.575
3607,0.445,-0.195
3608,-0.135,-0.005
3609,-0.055,0.035
3610,-0.115,-0.005
3611,-0.175,-0.035
3612,-0.215,-0.025
3613,-0.235,-0.015
3614,-0.225,-0.005
3615,-0.235,-0.035
3616,-0.235,-0.015
3617,-0.205,-0.005
3618,-0.215,-0.015
3619,-0.225,-0.025
3620,-0.215,-0.015
3621,-0.215,-0.025
3622,-0.195,-0.025
3623,-0.195,-0.025
3624,-0.175,-0.015
3625,-0.145,-0.005
3626,-0.135,-0.015
3627,-0.145,-0.025
3628,-0.115,-0.015
3629,-0.095,-0.005
3630,-0.055,-0.005
3631,-0.045,-0.005
3632,-0.005,-0.005
3633,0.055,0.025
3634,0.065,0.015
3635,0.115,-0.005
3636,0.185,0.005
3637,0.235,0.025
3638,0.295,0.025
3639,0.325,0.015
3640,0.385,0.025
3641,0.435,0.055
3642,0.455,0.055
3643,0.455,0.045
3644,0.415,0.055
3645,0.345,0.055
3646,0.235,0.035
3647,0.105,-0.005
3648,0.005,-0.015
3649,-0.055,-0.005
3650,-0.135,-0.035
3651,-0.175,-0.045
3652,-0.185,-0.045
3653,-0.195,-0.055
3654,-0.195,-0.045
3655,-0.205,-0.055
3656,-0.195,-0.055
3657,-0.165,-0.035
3658,-0.185,-0.055
3659,-0.205,-0.055
3660,-0.185,-0.035
3661,-0.175,-0.045
3662,-0.175,-0.035
3663,-0.185,-0.045
3664,-0.175,-0.035
3665,-0.165,-0.035
3666,-0.185,-0.035
3667,-0.185,-0.045
3668,-0.185,-0.035
3669,-0.185,-0.045
3670,-0.175,-0.045
3671,-0.205,-0.055
3672,-0.195,-0.055
3673,-0.185,-0.055
3674,-0.215,-0.065
3675,-0.225,-0.075
3676,-0.215,-0.065
3677,-0.215,-0.065
3678,-0.205,-0.065
3679,-0.215,-0.085
3680,-0.205,-0.075
3681,-0.195,-0.065
3682,-0.205,-0.085
3683,-0.245,-0.125
3684,-0.195,-0.065
3685,-0.135,-0.055
3686,-0.115,-0.035
3687,-0.055,-0.075
3688,-0.045,-0.115
3689,-0.105,-0.075
3690,-0.155,-0.105
3691,-0.195,-0.115
3692,-0.225,-0.085
3693,-0.225,-0.105
3694,-0.245,-0.105
3695,-0.245,-0.105
3696,-0.215,-0.095
3697,-0.205,-0.085
3698,-0.215,-0.095
3699,-0.225,-0.105
3700,-0.205,-0.105
3701,-0.205,-0.095
3702,-0.185,-0.085
3703,-0.195,-0.095
3704,-0.185,-0.085
3705,-0.125,-0.055
3706,-0.205,0.075
3707,-0.585,0.055
3708,-0.535,0.025
3709,0.685,-0.795
3710,2.045,-0.605
3711,2.725,-0.405
3712,2.425,-0.505
3713,0.555,-0.245
3714,-0.145,-0.045
3715,-0.065,0.015
3716,-0.085,-0.005
3717,-0.155,-0.025
3718,-0.195,-0.015
3719,-0.225,-0.035
3720,-0.215,-0.015
3721,-0.205,-0.015
3722,-0.205,-0.015
3723,-0.215,-0.025
3724,-0.215,-0.025
3725,-0.205,-0.025
3726,-0.205,-0.015
3727,-0.205,-0.025
3728,-0.185,-0.035
3729,-0.185,-0.035
3730,-0.165,-0.025
3731,-0.155,-0.045
3732,-0.145,-0.045
3733,-0.115,-0.045
3734,-0.095,-0.025
3735,-0.085,-0.035
3736,-0.065,-0.035
3737,-0.035,-0.035
3738,0.005,-0.025
3739,0.025,-0.035
3740,0.065,-0.045
3741,0.115,-0.035
3742,0.165,-0.015
3743,0.215,-0.025
3744,0.265,-0.035
3745,0.305,-0.025
3746,0.355,-0.015
3747,0.405,-0.015
3748,0.445,-0.005
3749,0.425,0.005
3750,0.365,0.025
3751,0.295,0.015
3752,0.205,0.005
3753,0.105,0.015
3754,0.005,-0.015
3755,-0.085,-0.025
3756,-0.125,-0.035
3757,-0.155,-0.045
3758,-0.185,-0.035
3759,-0.195,-0.055
3760,-0.185,-0.045
3761,-0.165,-0.035
3762,-0.175,-0.025
3763,-0.185,-0.035
3764,-0.185,-0.045
3765,-0.175,-0.045
3766,-0.175,-0.035
3767,-0.175,-0.045
3768,-0.155,-0.035
3769,-0.145,-0.015
3770,-0.155,-0.025
3771,-0.175,-0.045
3772,-0.175,-0.055
3773,-0.175,-0.045
3774,-0.175,-0.035
3775,-0.185,-0.065
3776,-0.185,-0.055
3777,-0.165,-0.045
3778,-0.175,-0.055
3779,-0.205,-0.075
3780,-0.205,-0.065
3781,-0.205,-0.075
3782,-0.205,-0.075
3783,-0.215,-0.085
3784,-0.205,-0.075
3785,-0.195,-0.055
3786,-0.205,-0.075
3787,-0.215,-0.085
3788,-0.215,-0.095
3789,-0.225,-0.105
3790,-0.195,-0.065
3791,-0.135,-0.045
3792,-0.075,-0.045
3793,-0.065,-0.075
3794,-0.115,-0.075
3795,-0.135,-0.085
3796,-0.175,-0.115
3797,-0.215,-0.095
3798,-0.235,-0.095
3799,-0.245,-0.105
3800,-0.225,-0.105
3801,-0.205,-0.075
3802,-0.215,-0.095
3803,-0.235,-0.115
3804,-0.215,-0.095
3805,-0.225,-0.095
3806,-0.215,-0.095
3807,-0.215,-0.115
3808,-0.195,-0.105
3809,-0.165,-0.085
3810,-0.155,-0.055
3811,-0.325,0.085
3812,-0.605,0.105
3813,-0.425,-0.025
3814,0.935,-0.845
3815,2.115,-0.575
3816,2.755,-0.435
3817,2.235,-0.475
3818,0.335,-0.185
3819,-0.145,-0.025
3820,-0.055,0.005
3821,-0.105,-0.025
3822,-0.165,-0.015
3823,-0.205,-0.025
3824,-0.215,-0.025
3825,-0.205,-0.005
3826,-0.225,-0.015
3827,-0.245,-0.025
3828,-0.225,-0.035
3829,-0.225,-0.025
3830,-0.225,-0.025
3831,-0.225,-0.035
3832,-0.205,-0.025
3833,-0.195,-0.015
3834,-0.195,-0.025
3835,-0.195,-0.045
3836,-0.175,-0.025
3837,-0.155,-0.035
3838,-0.135,-0.025
3839,-0.125,-0.045
3840,-0.095,-0.025
3841,-0.055,-0.015
3842,-0.045,-0.015
3843,-0.025,-0.025
3844,0.025,-0.015
3845,0.075,-0.015
3846,0.135,0.005
3847,0.175,-0.005
3848,0.235,-0.005
3849,0.295,0.015
3850,0.325,0.015
3851,0.365,0.015
3852,0.395,0.025
3853,0.405,0.035
3854,0.365,0.045
3855,0.275,0.025
3856,0.195,0.025
3857,0.095,0.015
3858,-0.025,-0.005
3859,-0.105,-0.035
3860,-0.145,-0.035
3861,-0.185,-0.035
3862,-0.205,-0.035
3863,-0.225,-0.055
3864,-0.215,-0.045
3865,-0.205,-0.045
3866,-0.215,-0.045
3867,-0.215,-0.055
3868,-0.205,-0.035
3869,-0.205,-0.025
3870,-0.195,-0.035
3871,-0.195,-0.035
3872,-0.195,-0.035
3873,-0.175,-0.025
3874,-0.185,-0.015
3875,-0.195,-0.035
3876,-0.185,-0.035
3877,-0.185,-0.035
3878,-0.185,-0.035
3879,-0.195,-0.055
3880,-0.195,-0.055
3881,-0.185,-0.045
3882,-0.205,-0.055
3883,-0.205,-0.055
3884,-0.205,-0.055
3885,-0.215,-0.055
3886,-0.215,-0.065
3887,-0.225,-0.075
3888,-0.225,-0.075
3889,-0.205,-0.065
3890,-0.225,-0.065
3891,-0.225,-0.085
3892,-0.225,-0.085
3893,-0.225,-0.085
3894,-0.225,-0.075
3895,-0.225,-0.095
3896,-0.215,-0.085
3897,-0.215,-0.075
3898,-0.205,-0.075
3899,-0.205,-0.065
3900,-0.135,-0.025
3901,-0.105,-0.015
3902,-0.135,-0.065
3903,-0.055,-0.065
3904,-0.015,-0.075
3905,-0.075,-0.105
3906,-0.115,-0.085
3907,-0.165,-0.125
3908,-0.175,-0.125
3909,-0.215,-0.105
3910,-0.215,-0.095
3911,-0.235,-0.125
3912,-0.235,-0.125
3913,-0.205,-0.095
3914,-0.215,-0.105
3915,-0.235,-0.115
3916,-0.225,-0.115
3917,-0.225,-0.115
3918,-0.205,-0.105
3919,-0.215,-0.125
3920,-0.185,-0.115
3921,-0.165,-0.065
3922,-0.285,0.145
3923,-0.655,0.175
3924,-0.545,-0.065
3925,0.905,-1.225
3926,2.195,-0.985
3927,2.715,-0.545
3928,2.445,-0.585
3929,0.585,-0.135
3930,-0.085,0.035
3931,-0.075,0.015
3932,-0.125,-0.005
3933,-0.175,-0.005
3934,-0.215,0.005
3935,-0.245,-0.005
3936,-0.245,-0.005
3937,-0.245,0.005
3938,-0.245,0.005
3939,-0.255,-0.005
3940,-0.245,-0.005
3941,-0.235,0.005
3942,-0.225,0.005
3943,-0.225,-0.005
3944,-0.205,-0.005
3945,-0.185,0.025
3946,-0.185,0.005
3947,-0.185,-0.005
3948,-0.155,0.015
3949,-0.145,0.025
3950,-0.115,0.025
3951,-0.105,0.015
3952,-0.075,0.035
3953,-0.025,0.055
3954,-0.005,0.055
3955,0.025,0.045
3956,0.085,0.065
3957,0.145,0.065
3958,0.205,0.075
3959,0.255,0.065
3960,0.305,0.075
3961,0.365,0.105
3962,0.405,0.105
3963,0.435,0.095
3964,0.435,0.095
3965,0.395,0.085
3966,0.315,0.085
3967,0.205,0.045
3968,0.105,0.025
3969,0.005,0.005
3970,-0.075,-0.025
3971,-0.145,-0.035
3972,-0.175,-0.045
3973,-0.195,-0.045
3974,-0.205,-0.045
3975,-0.215,-0.065
3976,-0.205,-0.055
3977,-0.195,-0.045
3978,-0.195,-0.045
3979,-0.195,-0.045
3980,-0.195,-0.045
3981,-0.195,-0.045
3982,-0.185,-0.035
3983,-0.195,-0.045
3984,-0.195,-0.035
3985,-0.175,-0.025
3986,-0.185,-0.035
3987,-0.195,-0.035
3988,-0.195,-0.045
3989,-0.195,-0.035
3990,-0.195,-0.045
3991,-0.195,-0.055
3992,-0.195,-0.045
3993,-0.185,-0.045
3994,-0.205,-0.055
3995,-0.205,-0.065
3996,-0.205,-0.075
3997,-0.215,-0.065
3998,-0.215,-0.075
3999,-0.225,-0.085
4000,-0.225,-0.085
4001,-0.205,-0.065
4002,-0.225,-0.085
4003,-0.225,-0.095
4004,-0.225,-0.085
4005,-0.225,-0.075
4006,-0.205,-0.075
4007,-0.185,-0.055
4008,-0.125,-0.005
4009,-0.115,-0.025
4010,-0.145,-0.065
4011,-0.025,-0.055
4012,-0.015,-0.075
4013,-0.085,-0.105
4014,-0.125,-0.095
4015,-0.185,-0.125
4016,-0.185,-0.125
4017,-0.205,-0.075
4018,-0.225,-0.105
4019,-0.245,-0.125
4020,-0.235,-0.125
4021,-0.235,-0.115
4022,-0.235,-0.105
4023,-0.245,-0.115
4024,-0.235,-0.115
4025,-0.215,-0.095
4026,-0.225,-0.105
4027,-0.225,-0.115
4028,-0.205,-0.105
4029,-0.195,-0.105
4030,-0.165,-0.085
4031,-0.225,0.105
4032,-0.615,0.115
4033,-0.625,0.045
4034,0.525,-1.065
4035,1.945,-1.135
4036,2.665,-0.505
4037,2.505,-0.605
4038,0.705,-0.195
4039,-0.135,-0.005
4040,-0.085,0.025
4041,-0.105,0.005
4042,-0.185,0.005
4043,-0.235,-0.005
4044,-0.245,-0.005
4045,-0.255,0.005
4046,-0.255,-0.005
4047,-0.265,-0.015
4048,-0.255,-0.005
4049,-0.235,0.005
4050,-0.235,0.005
4051,-0.245,-0.005
4052,-0.235,-0.005
4053,-0.225,-0.005
4054,-0.215,0.005
4055,-0.215,-0.005
4056,-0.195,-0.005
4057,-0.165,0.015
4058,-0.155,0.025
4059,-0.155,0.005
4060,-0.135,0.005
4061,-0.115,0.015
4062,-0.075,0.025
4063,-0.055,0.025
4064,-0.025,0.035
4065,0.025,0.045
4066,0.075,0.045
4067,0.115,0.045
4068,0.165,0.045
4069,0.215,0.045
4070,0.275,0.065
4071,0.335,0.065
4072,0.365,0.065
4073,0.405,0.085
4074,0.425,0.085
4075,0.375,0.085
4076,0.305,0.055
4077,0.195,0.025
4078,0.085,0.025
4079,-0.025,-0.015
4080,-0.105,-0.035
4081,-0.175,-0.035
4082,-0.205,-0.035
4083,-0.225,-0.055
4084,-0.225,-0.055
4085,-0.235,-0.055
4086,-0.225,-0.045
4087,-0.235,-0.055
4088,-0.225,-0.055
4089,-0.205,-0.055
4090,-0.215,-0.045
4091,-0.225,-0.055
4092,-0.215,-0.045
4093,-0.215,-0.045
4094,-0.215,-0.035
4095,-0.215,-0.045
4096,-0.205,-0.045
4097,-0.195,-0.025
4098,-0.225,-0.045
4099,-0.235,-0.055
4100,-0.215,-0.055
4101,-0.235,-0.055
4102,-0.225,-0.055
4103,-0.235,-0.075
4104,-0.225,-0.075
4105,-0.225,-0.065
4106,-0.235,-0.075
4107,-0.245,-0.085
4108,-0.235,-0.085
4109,-0.245,-0.095
4110,-0.255,-0.075
4111,-0.255,-0.095
4112,-0.245,-0.095
4113,-0.225,-0.085
4114,-0.245,-0.075
4115,-0.245,-0.095
4116,-0.215,-0.065
4117,-0.165,-0.035
4118,-0.165,-0.065
4119,-0.155,-0.085
4120,-0.025,-0.065
4121,-0.055,-0.085
4122,-0.135,-0.105
4123,-0.175,-0.115
4124,-0.185,-0.125
4125,-0.235,-0.115
4126,-0.235,-0.095
4127,-0.265,-0.135
4128,-0.265,-0.135
4129,-0.245,-0.095
4130,-0.245,-0.105
4131,-0.255,-0.125
4132,-0.245,-0.105
4133,-0.255,-0.115
4134,-0.245,-0.115
4135,-0.245,-0.135
4136,-0.225,-0.115
4137,-0.205,-0.085
4138,-0.205,-0.115
4139,-0.185,-0.105
4140,-0.275,0.085
4141,-0.655,0.095
4142,-0.535,-0.055
4143,0.815,-1.025
4144,2.125,-0.735
4145,2.725,-0.425
4146,2.295,-0.595
4147,0.485,-0.245
4148,-0.165,-0.025
4149,-0.095,0.005
4150,-0.145,-0.025
4151,-0.205,-0.035
4152,-0.225,-0.025
4153,-0.235,-0.025
4154,-0.255,-0.015
4155,-0.255,-0.045
4156,-0.255,-0.035
4157,-0.255,-0.025
4158,-0.245,-0.025
4159,-0.245,-0.025
4160,-0.235,-0.035
4161,-0.215,-0.025
4162,-0.215,-0.025
4163,-0.215,-0.045
4164,-0.195,-0.035
4165,-0.185,-0.035
4166,-0.165,-0.035
4167,-0.155,-0.045
4168,-0.135,-0.045
4169,-0.095,-0.015
4170,-0.085,-0.025
4171,-0.045,-0.035
4172,-0.015,-0.025
4173,0.015,-0.015
4174,0.065,-0.015
4175,0.115,-0.025
4176,0.175,-0.005
4177,0.235,0.005
4178,0.265,0.005
4179,0.305,0.005
4180,0.365,0.005
4181,0.395,0.025
4182,0.425,0.035
4183,0.415,0.035
4184,0.365,0.035
4185,0.295,0.035
4186,0.175,0.025
4187,0.045,-0.005
4188,-0.045,-0.025
4189,-0.125,-0.025
4190,-0.165,-0.045
4191,-0.195,-0.055
4192,-0.205,-0.055
4193,-0.195,-0.035
4194,-0.195,-0.045
4195,-0.205,-0.055
4196,-0.205,-0.055
4197,-0.205,-0.045
4198,-0.205,-0.045
4199,-0.195,-0.055
4200,-0.195,-0.045
4201,-0.185,-0.035
4202,-0.175,-0.045
4203,-0.185,-0.055
4204,-0.185,-0.055
4205,-0.185,-0.035
4206,-0.185,-0.035
4207,-0.205,-0.065
4208,-0.205,-0.045
4209,-0.185,-0.045
4210,-0.205,-0.065
4211,-0.205,-0.065
4212,-0.205,-0.075
4213,-0.205,-0.065
4214,-0.205,-0.075
4215,-0.225,-0.095
4216,-0.215,-0.085
4217,-0.195,-0.075
4218,-0.225,-0.095
4219,-0.225,-0.085
4220,-0.225,-0.095
4221,-0.235,-0.105
4222,-0.255,-0.135
4223,-0.235,-0.095
4224,-0.135,-0.065
4225,-0.095,-0.025
4226,-0.065,-0.105
4227,-0.105,-0.125
4228,-0.135,-0.095
4229,-0.185,-0.125
4230,-0.205,-0.115
4231,-0.255,-0.095
4232,-0.255,-0.115
4233,-0.235,-0.105
4234,-0.245,-0.115
4235,-0.255,-0.115
4236,-0.245,-0.105
4237,-0.245,-0.115
4238,-0.225,-0.115
4239,-0.245,-0.115
4240,-0.235,-0.105
4241,-0.185,-0.095
4242,-0.205,-0.115
4243,-0.205,-0.115
4244,-0.185,-0.115
4245,-0.175,-0.025
4246,-0.455,0.055
4247,-0.605,0.065
4248,-0.155,-0.225
4249,1.325,-0.885
4250,2.345,-0.375
4251,2.765,-0.395
4252,2.025,-0.505
4253,0.295,-0.235
4254,-0.135,-0.035
4255,-0.045,-0.015
4256,-0.115,-0.055
4257,-0.185,-0.055
4258,-0.215,-0.045
4259,-0.235,-0.055
4260,-0.225,-0.055
4261,-0.235,-0.055
4262,-0.245,-0.045
4263,-0.235,-0.055
4264,-0.215,-0.055
4265,-0.235,-0.055
4266,-0.215,-0.065
4267,-0.225,-0.065
4268,-0.205,-0.065
4269,-0.185,-0.065
4270,-0.175,-0.055
4271,-0.165,-0.075
4272,-0.135,-0.075
4273,-0.105,-0.055
4274,-0.095,-0.065
4275,-0.085,-0.075
4276,-0.055,-0.065
4277,-0.035,-0.065
4278,0.025,-0.065
4279,0.055,-0.065
4280,0.105,-0.065
4281,0.155,-0.055
4282,0.195,-0.065
4283,0.255,-0.075
4284,0.295,-0.075
4285,0.335,-0.055
4286,0.375,-0.055
4287,0.395,-0.045
4288,0.385,-0.025
4289,0.365,-0.005
4290,0.265,-0.015
4291,0.165,-0.025
4292,0.055,-0.035
4293,-0.035,-0.045
4294,-0.115,-0.055
4295,-0.165,-0.075
4296,-0.195,-0.075
4297,-0.195,-0.065
4298,-0.215,-0.065
4299,-0.215,-0.065
4300,-0.215,-0.065
4301,-0.215,-0.065
4302,-0.205,-0.055
4303,-0.205,-0.055
4304,-0.205,-0.065
4305,-0.185,-0.045
4306,-0.195,-0.055
4307,-0.195,-0.055
4308,-0.195,-0.065
4309,-0.195,-0.055
4310,-0.205,-0.055
4311,-0.215,-0.065
4312,-0.215,-0.055
4313,-0.195,-0.055
4314,-0.215,-0.065
4315,-0.235,-0.085
4316,-0.235,-0.085
4317,-0.245,-0.085
4318,-0.235,-0.085
4319,-0.245,-0.095
4320,-0.245,-0.095
4321,-0.245,-0.095
4322,-0.255,-0.085
4323,-0.255,-0.105
4324,-0.255,-0.095
4325,-0.255,-0.095
4326,-0.255,-0.095
4327,-0.265,-0.115
4328,-0.275,-0.115
4329,-0.255,-0.105
4330,-0.205,-0.065
4331,-0.165,-0.065
4332,-0.115,-0.055
4333,-0.125,-0.105
4334,-0.155,-0.105
4335,-0.205,-0.125
4336,-0.225,-0.135
4337,-0.205,-0.115
4338,-0.275,-0.105
4339,-0.275,-0.125
4340,-0.265,-0.115
4341,-0.265,-0.115
4342,-0.255,-0.115
4343,-0.265,-0.125
4344,-0.255,-0.115
4345,-0.235,-0.105
4346,-0.255,-0.115
4347,-0.255,-0.135
4348,-0.245,-0.125
4349,-0.225,-0.115
4350,-0.205,-0.115
4351,-0.205,-0.005
4352,-0.535,0.125
4353,-0.665,0.175
4354,0.175,-0.715
4355,1.775,-1.285
4356,2.555,-0.595
4357,2.725,-0.595
4358,1.035,-0.285
4359,-0.105,-0.025
4360,-0.105,0.015
4361,-0.145,-0.005
4362,-0.205,-0.035
4363,-0.245,-0.035
4364,-0.265,-0.035
4365,-0.265,-0.025
4366,-0.275,-0.025
4367,-0.285,-0.035
4368,-0.285,-0.025
4369,-0.265,-0.015
4370,-0.275,-0.025
4371,-0.265,-0.025
4372,-0.265,-0.025
4373,-0.245,-0.025
4374,-0.245,-0.025
4375,-0.235,-0.035
4376,-0.225,-0.025
4377,-0.205,-0.005
4378,-0.185,-0.015
4379,-0.165,-0.015
4380,-0.135,-0.015
4381,-0.115,-0.005
4382,-0.095,0.005
4383,-0.065,-0.005
4384,-0.025,0.005
4385,0.025,0.035
4386,0.065,0.025
4387,0.115,0.025
4388,0.165,0.035
4389,0.225,0.035
4390,0.265,0.045
4391,0.295,0.025
4392,0.345,0.055
4393,0.395,0.065
4394,0.365,0.065
4395,0.315,0.045
4396,0.235,0.025
4397,0.125,0.015
4398,0.005,-0.015
4399,-0.095,-0.045
4400,-0.165,-0.055
4401,-0.195,-0.045
4402,-0.245,-0.055
4403,-0.265,-0.075
4404,-0.265,-0.075
4405,-0.265,-0.075
4406,-0.265,-0.065
4407,-0.275,-0.085
4408,-0.265,-0.085
4409,-0.235,-0.065
4410,-0.255,-0.065
4411,-0.265,-0.075
4412,-0.245,-0.065
4413,-0.245,-0.065
4414,-0.245,-0.055
4415,-0.245,-0.065
4416,-0.245,-0.055
4417,-0.235,-0.055
4418,-0.245,-0.065
4419,-0.255,-0.075
4420,-0.255,-0.075
4421,-0.255,-0.065
4422,-0.255,-0.065
4423,-0.265,-0.085
4424,-0.265,-0.085
4425,-0.255,-0.065
4426,-0.275,-0.095
4427,-0.285,-0.095
4428,-0.275,-0.105
4429,-0.285,-0.105
4430,-0.275,-0.105
4431,-0.285,-0.115
4432,-0.285,-0.105
4433,-0.255,-0.095
4434,-0.275,-0.115
4435,-0.285,-0.125
4436,-0.275,-0.125
4437,-0.275,-0.105
4438,-0.275,-0.105
4439,-0.275,-0.095
4440,-0.285,-0.125
4441,-0.205,-0.055
4442,-0.185,-0.045
4443,-0.195,-0.095
4444,-0.145,-0.085
4445,-0.055,-0.085
4446,-0.115,-0.125
4447,-0.225,-0.135
4448,-0.215,-0.125
4449,-0.215,-0.125
4450,-0.255,-0.125
4451,-0.275,-0.115
4452,-0.285,-0.125
4453,-0.295,-0.135
4454,-0.285,-0.115
4455,-0.285,-0.125
4456,-0.275,-0.125
4457,-0.265,-0.115
4458,-0.275,-0.115
4459,-0.285,-0.125
4460,-0.275,-0.125
4461,-0.255,-0.125
4462,-0.235,-0.115
4463,-0.225,-0.085
4464,-0.425,0.125
4465,-0.715,0.175
4466,-0.415,-0.255
4467,1.205,-1.285
4468,2.295,-0.775
4469,2.735,-0.535
4470,1.895,-0.555
4471,0.225,-0.115
4472,-0.155,0.005
4473,-0.125,0.025
4474,-0.195,-0.005
4475,-0.255,-0.025
4476,-0.285,-0.025
4477,-0.295,-0.015
4478,-0.295,-0.025
4479,-0.295,-0.025
4480,-0.305,-0.015
4481,-0.285,-0.005
4482,-0.295,-0.015
4483,-0.285,-0.015
4484,-0.275,-0.015
4485,-0.265,-0.005
4486,-0.255,-0.015
4487,-0.255,-0.025
4488,-0.235,-0.005
4489,-0.215,0.005
4490,-0.205,0.005
4491,-0.195,-0.005
4492,-0.175,-0.005
4493,-0.155,0.015
4494,-0.125,0.025
4495,-0.105,0.015
4496,-0.065,0.025
4497,-0.005,0.045
4498,0.035,0.045
4499,0.075,0.025
4500,0.135,0.045
4501,0.195,0.055
4502,0.245,0.055
4503,0.285,0.045
4504,0.325,0.065
4505,0.385,0.085
4506,0.385,0.085
4507,0.355,0.065
4508,0.295,0.065
4509,0.205,0.045
4510,0.095,0.025
4511,-0.035,-0.015
4512,-0.115,-0.025
4513,-0.155,-0.035
4514,-0.215,-0.045
4515,-0.235,-0.055
4516,-0.235,-0.055
4517,-0.245,-0.055
4518,-0.245,-0.055
4519,-0.255,-0.055
4520,-0.235,-0.055
4521,-0.225,-0.045
4522,-0.235,-0.045
4523,-0.245,-0.055
4524,-0.235,-0.045
4525,-0.235,-0.035
4526,-0.235,-0.035
4527,-0.235,-0.045
4528,-0.225,-0.045
4529,-0.205,-0.035
4530,-0.225,-0.035
4531,-0.235,-0.045
4532,-0.235,-0.055
4533,-0.235,-0.045
4534,-0.235,-0.055
4535,-0.245,-0.075
4536,-0.245,-0.055
4537,-0.235,-0.065
4538,-0.245,-0.075
4539,-0.255,-0.095
4540,-0.245,-0.075
4541,-0.245,-0.075
4542,-0.255,-0.085
4543,-0.265,-0.085
4544,-0.255,-0.095
4545,-0.245,-0.085
4546,-0.245,-0.095
4547,-0.255,-0.095
4548,-0.255,-0.095
4549,-0.255,-0.075
4550,-0.245,-0.105
4551,-0.235,-0.085
4552,-0.185,-0.045
4553,-0.155,-0.045
4554,-0.145,-0.075
4555,-0.025,-0.065
4556,-0.075,-0.115
4557,-0.175,-0.115
4558,-0.185,-0.095
4559,-0.225,-0.145
4560,-0.235,-0.115
4561,-0.245,-0.085
4562,-0.265,-0.115
4563,-0.265,-0.115
4564,-0.255,-0.115
4565,-0.255,-0.115
4566,-0.245,-0.115
4567,-0.255,-0.125
4568,-0.255,-0.115
4569,-0.235,-0.105
4570,-0.235,-0.105
4571,-0.225,-0.125
4572,-0.205,-0.115
4573,-0.195,-0.095
4574,-0.165,-0.085
4575,-0.295,0.075
4576,-0.665,0.085
4577,-0.515,-0.045
4578,0.925,-1.035
4579,2.185,-0.795
4580,2.705,-0.435
4581,2.315,-0.605
4582,0.535,-0.265
4583,-0.175,-0.035
4584,-0.065,0.025
4585,-0.095,-0.005
4586,-0.165,-0.025
4587,-0.215,-0.025
4588,-0.235,-0.025
4589,-0.245,-0.025
4590,-0.245,-0.015
4591,-0.245,-0.035
4592,-0.235,-0.025
4593,-0.225,-0.015
4594,-0.245,-0.025
4595,-0.245,-0.035
4596,-0.215,-0.035
4597,-0.205,-0.025
4598,-0.205,-0.025
4599,-0.195,-0.025
4600,-0.185,-0.025
4601,-0.145,-0.025
4602,-0.125,-0.025
4603,-0.135,-0.025
4604,-0.105,-0.015
4605,-0.085,-0.025
4606,-0.055,-0.015
4607,-0.035,-0.015
4608,0.015,-0.015
4609,0.075,0.005
4610,0.105,0.005
4611,0.145,-0.015
4612,0.195,-0.005
4613,0.265,0.005
4614,0.305,0.005
4615,0.335,0.005
4616,0.385,0.005
4617,0.435,0.025
4618,0.435,0.035
4619,0.395,0.025
4620,0.325,0.025
4621,0.235,0.015
4622,0.115,0.005
4623,0.005,-0.025
4624,-0.065,-0.035
4625,-0.105,-0.045
4626,-0.165,-0.055
4627,-0.195,-0.055
4628,-0.195,-0.055
4629,-0.195,-0.055
4630,-0.185,-0.045
4631,-0.185,-0.055
4632,-0.185,-0.045
4633,-0.175,-0.025
4634,-0.195,-0.035
4635,-0.185,-0.055
4636,-0.175,-0.055
4637,-0.175,-0.045
4638,-0.175,-0.035
4639,-0.175,-0.045
4640,-0.175,-0.045
4641,-0.165,-0.035
4642,-0.185,-0.045
4643,-0.205,-0.055
4644,-0.185,-0.045
4645,-0.185,-0.045
4646,-0.185,-0.055
4647,-0.205,-0.065
4648,-0.215,-0.055
4649,-0.195,-0.065
4650,-0.205,-0.065
4651,-0.215,-0.075
4652,-0.215,-0.075
4653,-0.215,-0.075
4654,-0.205,-0.075
4655,-0.225,-0.085
4656,-0.215,-0.075
4657,-0.205,-0.065
4658,-0.225,-0.085
4659,-0.245,-0.135
4660,-0.215,-0.075
4661,-0.135,-0.035
4662,-0.085,-0.015
4663,-0.065,-0.085
4664,-0.095,-0.095
4665,-0.095,-0.065
4666,-0.165,-0.095
4667,-0.215,-0.095
4668,-0.235,-0.075
4669,-0.225,-0.085
4670,-0.225,-0.095
4671,-0.235,-0.095
4672,-0.225,-0.085
4673,-0.205,-0.065
4674,-0.215,-0.085
4675,-0.215,-0.095
4676,-0.215,-0.085
4677,-0.215,-0.085
4678,-0.195,-0.075
4679,-0.205,-0.085
4680,-0.185,-0.085
4681,-0.155,-0.055
4682,-0.135,-0.035
4683,-0.375,0.095
4684,-0.605,0.115
4685,-0.285,-0.055
4686,1.215,-0.855
4687,2.305,-0.435
4688,2.815,-0.375
4689,1.645,-0.445
4690,0.085,-0.145
4691,-0.115,-0.005
4692,-0.035,0.015
4693,-0.095,-0.005
4694,-0.155,-0.015
4695,-0.195,-0.015
4696,-0.195,-0.025
4697,-0.175,0.005
4698,-0.205,-0.015
4699,-0.225,-0.025
4700,-0.215,-0.015
4701,-0.205,-0.025
4702,-0.195,-0.015
4703,-0.195,-0.025
4704,-0.185,-0.025
4705,-0.175,-0.015
4706,-0.175,-0.015
4707,-0.155,-0.025
4708,-0.135,-0.025
4709,-0.125,-0.025
4710,-0.095,-0.015
4711,-0.085,-0.035
4712,-0.065,-0.025
4713,-0.035,-0.015
4714,-0.005,-0.015
4715,0.025,-0.025
4716,0.075,-0.015
4717,0.115,-0.015
4718,0.165,-0.005
4719,0.205,-0.025
4720,0.245,-0.015
4721,0.305,0.005
4722,0.345,-0.005
4723,0.385,-0.005
4724,0.415,0.015
4725,0.425,0.035
4726,0.375,0.035
4727,0.315,0.035
4728,0.225,0.025
4729,0.125,0.035
4730,0.025,0.015
4731,-0.065,-0.005
4732,-0.105,-0.005
4733,-0.145,-0.015
4734,-0.165,-0.005
4735,-0.185,-0.025
4736,-0.185,-0.025
4737,-0.175,0.005
4738,-0.185,-0.005
4739,-0.195,-0.015
4740,-0.175,-0.015
4741,-0.165,-0.005
4742,-0.155,-0.005
4743,-0.175,-0.005
4744,-0.165,-0.005
4745,-0.145,0.005
4746,-0.165,-0.005
4747,-0.175,-0.015
4748,-0.165,-0.005
4749,-0.175,0.005
4750,-0.175,-0.015
4751,-0.185,-0.025
4752,-0.185,-0.025
4753,-0.185,-0.015
4754,-0.185,-0.025
4755,-0.205,-0.045
4756,-0.205,-0.035
4757,-0.205,-0.035
4758,-0.205,-0.045
4759,-0.215,-0.045
4760,-0.215,-0.045
4761,-0.195,-0.045
4762,-0.215,-0.045
4763,-0.215,-0.055
4764,-0.205,-0.045
4765,-0.215,-0.045
4766,-0.205,-0.035
4767,-0.205,-0.065
4768,-0.215,-0.065
4769,-0.225,-0.075
4770,-0.225,-0.075
4771,-0.155,-0.035
4772,-0.105,-0.005
4773,-0.065,-0.025
4774,-0.075,-0.055
4775,-0.125,-0.055
4776,-0.145,-0.065
4777,-0.165,-0.065
4778,-0.205,-0.055
4779,-0.245,-0.065
4780,-0.225,-0.065
4781,-0.215,-0.065
4782,-0.205,-0.045
4783,-0.225,-0.065
4784,-0.215,-0.055
4785,-0.185,-0.055
4786,-0.215,-0.055
4787,-0.215,-0.075
4788,-0.195,-0.065
4789,-0.195,-0.055
4790,-0.175,-0.045
4791,-0.145,-0.025
4792,-0.325,0.155
4793,-0.625,0.205
4794,-0.405,-0.035
4795,1.155,-1.035
4796,2.275,-0.735
4797,2.765,-0.425
4798,2.265,-0.485
4799,0.435,-0.145
4800,-0.095,0.045
4801,-0.035,0.075
4802,-0.105,0.045
4803,-0.175,0.025
4804,-0.195,0.025
4805,-0.215,0.035
4806,-0.225,0.035
4807,-0.235,0.025
4808,-0.225,0.025
4809,-0.205,0.045
4810,-0.215,0.035
4811,-0.215,0.025
4812,-0.215,0.015
4813,-0.205,0.025
4814,-0.195,0.035
4815,-0.195,0.025
4816,-0.175,0.035
4817,-0.145,0.045
4818,-0.145,0.045
4819,-0.135,0.025
4820,-0.105,0.035
4821,-0.085,0.045
4822,-0.055,0.045
4823,-0.035,0.045
4824,0.005,0.065
4825,0.065,0.075
4826,0.105,0.065
4827,0.145,0.065
4828,0.205,0.065
4829,0.245,0.085
4830,0.305,0.095
4831,0.335,0.085
4832,0.375,0.095
4833,0.425,0.115
4834,0.425,0.105
4835,0.375,0.085
4836,0.295,0.085
4837,0.185,0.075
4838,0.075,0.045
4839,-0.025,0.015
4840,-0.105,-0.005
4841,-0.145,-0.005
4842,-0.175,-0.005
4843,-0.205,-0.015
4844,-0.205,-0.025
4845,-0.205,-0.015
4846,-0.205,-0.015
4847,-0.215,-0.025
4848,-0.215,-0.025
4849,-0.195,-0.005
4850,-0.205,-0.005
4851,-0.205,-0.015
4852,-0.195,-0.005
4853,-0.185,0.005
4854,-0.185,-0.005
4855,-0.195,-0.015
4856,-0.195,-0.005
4857,-0.175,-0.005
4858,-0.185,-0.015
4859,-0.195,-0.025
4860,-0.195,-0.015
4861,-0.195,-0.025
4862,-0.195,-0.025
4863,-0.205,-0.035
4864,-0.205,-0.035
4865,-0.195,-0.025
4866,-0.225,-0.045
4867,-0.235,-0.055
4868,-0.225,-0.045
4869,-0.225,-0.055
4870,-0.225,-0.055
4871,-0.235,-0.075
4872,-0.225,-0.055
4873,-0.215,-0.045
4874,-0.225,-0.065
4875,-0.235,-0.075
4876,-0.225,-0.075
4877,-0.225,-0.075
4878,-0.215,-0.065
4879,-0.225,-0.085
4880,-0.215,-0.085
4881,-0.185,-0.055
4882,-0.205,-0.065
4883,-0.215,-0.075
4884,-0.225,-0.105
4885,-0.175,-0.045
4886,-0.105,-0.035
4887,-0.115,-0.045
4888,-0.035,-0.055
4889,-0.035,-0.095
4890,-0.135,-0.075
4891,-0.175,-0.105
4892,-0.175,-0.115
4893,-0.185,-0.095
4894,-0.205,-0.075
4895,-0.215,-0.095
4896,-0.205,-0.105
4897,-0.185,-0.075
4898,-0.205,-0.075
4899,-0.215,-0.085
4900,-0.195,-0.095
4901,-0.195,-0.095
4902,-0.195,-0.085
4903,-0.195,-0.085
4904,-0.185,-0.095
4905,-0.135,-0.065
4906,-0.135,0.025
4907,-0.465,0.135
4908,-0.645,0.185
4909,0.005,-0.565
4910,1.605,-1.325
4911,2.495,-0.605
4912,2.825,-0.555
4913,1.315,-0.335
4914,0.015,-0.005
4915,-0.045,0.055
4916,-0.065,0.025
4917,-0.125,0.015
4918,-0.165,0.005
4919,-0.195,0.005
4920,-0.205,0.015
4921,-0.185,0.025
4922,-0.215,0.015
4923,-0.225,0.005
4924,-0.205,0.005
4925,-0.205,0.005
4926,-0.195,0.015
4927,-0.195,0.005
4928,-0.185,0.015
4929,-0.155,0.025
4930,-0.165,0.015
4931,-0.165,0.005
4932,-0.145,0.015
4933,-0.125,0.015
4934,-0.105,0.025
4935,-0.085,0.015
4936,-0.065,0.035
4937,-0.025,0.035
4938,0.005,0.035
4939,0.045,0.035
4940,0.095,0.055
4941,0.135,0.065
4942,0.195,0.065
4943,0.225,0.055
4944,0.275,0.055
4945,0.335,0.085
4946,0.375,0.085
4947,0.415,0.085
4948,0.455,0.085
4949,0.465,0.095
4950,0.405,0.085
4951,0.315,0.065
4952,0.215,0.045
4953,0.115,0.025
4954,0.015,-0.015
4955,-0.085,-0.035
4956,-0.115,-0.035
4957,-0.145,-0.035
4958,-0.165,-0.045
4959,-0.185,-0.055
4960,-0.175,-0.055
4961,-0.155,-0.035
4962,-0.175,-0.055
4963,-0.185,-0.065
4964,-0.175,-0.045
4965,-0.175,-0.055
4966,-0.165,-0.035
4967,-0.165,-0.045
4968,-0.155,-0.035
4969,-0.145,-0.025
4970,-0.165,-0.035
4971,-0.165,-0.035
4972,-0.165,-0.045
4973,-0.155,-0.045
4974,-0.155,-0.035
4975,-0.175,-0.045
4976,-0.165,-0.055
4977,-0.155,-0.045
4978,-0.165,-0.065
4979,-0.185,-0.075
4980,-0.175,-0.075
4981,-0.175,-0.085
4982,-0.185,-0.075
4983,-0.195,-0.095
4984,-0.185,-0.095
4985,-0.185,-0.075
4986,-0.195,-0.085
4987,-0.215,-0.095
4988,-0.195,-0.095
4989,-0.185,-0.095
4990,-0.185,-0.095
4991,-0.195,-0.105
4992,-0.195,-0.105
4993,-0.165,-0.085
4994,-0.185,-0.095
4995,-0.185,-0.115
4996,-0.175,-0.095
4997,-0.175,-0.105
4998,-0.195,-0.125
4999,-0.175,-0.085
5000,-0.085,-0.065
5001,-0.045,-0.045
5002,-0.015,-0.085
5003,-0.035,-0.135
5004,-0.095,-0.105
5005,-0.135,-0.125
5006,-0.145,-0.135
5007,-0.185,-0.105
5008,-0.195,-0.115
5009,-0.175,-0.105
5010,-0.165,-0.105
5011,-0.175,-0.125
5012,-0.165,-0.105
5013,-0.165,-0.105
5014,-0.165,-0.095
5015,-0.175,-0.125
5016,-0.165,-0.115
5017,-0.155,-0.115
5018,-0.155,-0.105
5019,-0.145,-0.105
5020,-0.105,-0.105
5021,-0.115,0.035
5022,-0.485,0.095
5023,-0.595,0.065
5024,0.455,-0.825
5025,1.905,-1.075
5026,2.685,-0.445
5027,2.535,-0.605
5028,0.785,-0.275
5029,-0.045,-0.025
5030,0.005,0.035
5031,-0.025,-0.015
5032,-0.085,-0.025
5033,-0.125,-0.015
5034,-0.155,-0.015
5035,-0.175,-0.025
5036,-0.185,-0.025
5037,-0.185,-0.025
5038,-0.185,-0.015
5039,-0.185,-0.025
5040,-0.175,-0.025
5041,-0.165,-0.015
5042,-0.155,-0.025
5043,-0.155,-0.035
5044,-0.135,-0.025
5045,-0.135,-0.025
5046,-0.115,-0.005
5047,-0.115,-0.035
5048,-0.105,-0.035
5049,-0.075,-0.005
5050,-0.065,-0.015
5051,-0.045,-0.035
5052,-0.015,-0.025
5053,0.025,-0.015
5054,0.065,-0.005
5055,0.095,-0.025
5056,0.145,-0.015
5057,0.225,0.005
5058,0.245,0.005
5059,0.295,0.005
5060,0.345,0.005
5061,0.395,0.005
5062,0.435,0.015
5063,0.475,0.025
5064,0.485,0.035
5065,0.465,0.045
5066,0.385,0.025
5067,0.275,-0.005
5068,0.165,-0.005
5069,0.065,-0.025
5070,-0.015,-0.035
5071,-0.095,-0.055
5072,-0.125,-0.065
5073,-0.135,-0.055
5074,-0.165,-0.065
5075,-0.185,-0.075
5076,-0.175,-0.075
5077,-0.175,-0.075
5078,-0.155,-0.065
5079,-0.175,-0.075
5080,-0.155,-0.065
5081,-0.135,-0.045
5082,-0.165,-0.065
5083,-0.165,-0.065
5084,-0.155,-0.065
5085,-0.155,-0.065
5086,-0.165,-0.055
5087,-0.155,-0.055
5088,-0.155,-0.065
5089,-0.145,-0.055
5090,-0.175,-0.075
5091,-0.195,-0.085
5092,-0.185,-0.085
5093,-0.185,-0.085
5094,-0.185,-0.085
5095,-0.195,-0.095
5096,-0.195,-0.095
5097,-0.185,-0.095
5098,-0.205,-0.095
5099,-0.205,-0.115
5100,-0.195,-0.105
5101,-0.205,-0.105
5102,-0.195,-0.105
5103,-0.215,-0.115
5104,-0.205,-0.105
5105,-0.205,-0.105
5106,-0.205,-0.105
5107,-0.215,-0.115
5108,-0.215,-0.115
5109,-0.225,-0.135
5110,-0.205,-0.125
5111,-0.155,-0.085
5112,-0.105,-0.065
5113,-0.055,-0.055
5114,-0.075,-0.105
5115,-0.095,-0.105
5116,-0.105,-0.105
5117,-0.175,-0.135
5118,-0.195,-0.105
5119,-0.225,-0.115
5120,-0.215,-0.125
5121,-0.185,-0.105
5122,-0.185,-0.115
5123,-0.205,-0.115
5124,-0.205,-0.115
5125,-0.195,-0.105
5126,-0.185,-0.105
5127,-0.205,-0.115
5128,-0.185,-0.105
5129,-0.165,-0.095
5130,-0.165,-0.095
5131,-0.155,-0.115
5132,-0.125,-0.065
5133,-0.315,0.055
5134,-0.605,0.065
5135,-0.435,-0.015
5136,0.805,-0.755
5137,2.125,-0.535
5138,2.785,-0.385
5139,2.255,-0.515
5140,0.435,-0.265
5141,-0.115,-0.045
5142,-0.015,0.005
5143,-0.065,-0.035
5144,-0.125,-0.035
5145,-0.135,-0.015
5146,-0.175,-0.035
5147,-0.205,-0.045
5148,-0.195,-0.035
5149,-0.195,-0.035
5150,-0.195,-0.035
5151,-0.195,-0.045
5152,-0.195,-0.035
5153,-0.175,-0.025
5154,-0.165,-0.035
5155,-0.175,-0.045
5156,-0.155,-0.045
5157,-0.145,-0.045
5158,-0.125,-0.035
5159,-0.125,-0.055
5160,-0.105,-0.055
5161,-0.065,-0.035
5162,-0.075,-0.035
5163,-0.055,-0.045
5164,-0.015,-0.045
5165,0.025,-0.045
5166,0.055,-0.035
5167,0.095,-0.045
5168,0.145,-0.045
5169,0.215,-0.025
5170,0.245,-0.035
5171,0.275,-0.045
5172,0.335,-0.025
5173,0.365,-0.035
5174,0.405,-0.005
5175,0.425,-0.005
5176,0.425,0.005
5177,0.385,0.025
5178,0.285,0.005
5179,0.185,-0.005
5180,0.085,-0.015
5181,-0.015,-0.025
5182,-0.065,-0.015
5183,-0.145,-0.035
5184,-0.165,-0.035
5185,-0.145,-0.015
5186,-0.175,-0.035
5187,-0.195,-0.045
5188,-0.185,-0.035
5189,-0.175,-0.025
5190,-0.175,-0.025
5191,-0.185,-0.035
5192,-0.175,-0.025
5193,-0.155,-0.005
5194,-0.165,-0.025
5195,-0.195,-0.035
5196,-0.165,-0.025
5197,-0.185,-0.025
5198,-0.175,-0.025
5199,-0.195,-0.035
5200,-0.175,-0.035
5201,-0.165,-0.035
5202,-0.195,-0.035
5203,-0.205,-0.055
5204,-0.195,-0.055
5205,-0.195,-0.055
5206,-0.205,-0.055
5207,-0.215,-0.065
5208,-0.215,-0.075
5209,-0.225,-0.065
5210,-0.225,-0.065
5211,-0.225,-0.075
5212,-0.225,-0.075
5213,-0.235,-0.075
5214,-0.225,-0.075
5215,-0.235,-0.085
5216,-0.225,-0.085
5217,-0.225,-0.075
5218,-0.235,-0.075
5219,-0.225,-0.105
5220,-0.225,-0.085
5221,-0.235,-0.105
5222,-0.245,-0.095
5223,-0.185,-0.065
5224,-0.135,-0.025
5225,-0.065,-0.025
5226,-0.105,-0.085
5227,-0.135,-0.085
5228,-0.145,-0.095
5229,-0.185,-0.105
5230,-0.205,-0.085
5231,-0.255,-0.085
5232,-0.245,-0.095
5233,-0.225,-0.085
5234,-0.225,-0.085
5235,-0.235,-0.095
5236,-0.235,-0.095
5237,-0.225,-0.085
5238,-0.225,-0.075
5239,-0.225,-0.085
5240,-0.215,-0.085
5241,-0.185,-0.065
5242,-0.185,-0.075
5243,-0.185,0.025
5244,-0.505,0.105
5245,-0.675,0.175
5246,0.005,-0.475
5247,1.635,-1.155
5248,2.495,-0.495
5249,2.855,-0.465
5250,1.515,-0.395
5251,0.025,-0.075
5252,-0.085,0.045
5253,-0.095,0.025
5254,-0.155,0.005
5255,-0.205,-0.005
5256,-0.215,-0.005
5257,-0.205,0.025
5258,-0.235,0.005
5259,-0.245,-0.005
5260,-0.245,0.005
5261,-0.235,0.005
5262,-0.225,0.015
5263,-0.225,-0.005
5264,-0.225,0.005
5265,-0.205,0.015
5266,-0.195,0.005
5267,-0.195,0.005
5268,-0.175,-0.005
5269,-0.165,0.005
5270,-0.145,0.015
5271,-0.135,0.005
5272,-0.115,0.015
5273,-0.075,0.035
5274,-0.065,0.035
5275,-0.035,0.025
5276,0.005,0.025
5277,0.045,0.045
5278,0.095,0.055
5279,0.145,0.045
5280,0.195,0.045
5281,0.255,0.065
5282,0.295,0.075
5283,0.325,0.065
5284,0.375,0.065
5285,0.405,0.085
5286,0.405,0.095
5287,0.355,0.065
5288,0.265,0.065
5289,0.175,0.065
5290,0.035,0.025
5291,-0.065,-0.015
5292,-0.135,-0.015
5293,-0.175,-0.015
5294,-0.205,-0.025
5295,-0.235,-0.035
5296,-0.235,-0.045
5297,-0.235,-0.025
5298,-0.235,-0.025
5299,-0.255,-0.045
5300,-0.235,-0.025
5301,-0.235,-0.025
5302,-0.225,-0.025
5303,-0.235,-0.035
5304,-0.225,-0.015
5305,-0.215,-0.015
5306,-0.215,-0.025
5307,-0.225,-0.035
5308,-0.215,-0.025
5309,-0.225,-0.025
5310,-0.215,-0.035
5311,-0.215,-0.035
5312,-0.225,-0.045
5313,-0.195,-0.035
5314,-0.225,-0.055
5315,-0.235,-0.065
5316,-0.235,-0.065
5317,-0.245,-0.065
5318,-0.235,-0.065
5319,-0.255,-0.075
5320,-0.255,-0.085
5321,-0.235,-0.065
5322,-0.245,-0.075
5323,-0.275,-0.085
5324,-0.245,-0.085
5325,-0.255,-0.085
5326,-0.255,-0.075
5327,-0.255,-0.095
5328,-0.245,-0.085
5329,-0.225,-0.075
5330,-0.235,-0.085
5331,-0.255,-0.095
5332,-0.245,-0.095
5333,-0.245,-0.095
5334,-0.245,-0.085
5335,-0.235,-0.095
5336,-0.245,-0.115
5337,-0.245,-0.105
5338,-0.195,-0.055
5339,-0.145,-0.055
5340,-0.105,-0.045
5341,-0.065,-0.075
5342,-0.105,-0.115
5343,-0.175,-0.105
5344,-0.195,-0.125
5345,-0.175,-0.105
5346,-0.235,-0.085
5347,-0.255,-0.105
5348,-0.235,-0.115
5349,-0.225,-0.105
5350,-0.225,-0.105
5351,-0.235,-0.105
5352,-0.225,-0.105
5353,-0.205,-0.085
5354,-0.225,-0.105
5355,-0.225,-0.115
5356,-0.215,-0.115
5357,-0.185,-0.115
5358,-0.195,0.045
5359,-0.545,0.115
5360,-0.685,0.125
5361,0.195,-0.825
5362,1.705,-1.335
5363,2.515,-0.555
5364,2.785,-0.595
5365,1.185,-0.325
5366,-0.035,-0.025
5367,-0.095,0.035
5368,-0.085,0.005
5369,-0.135,0.005
5370,-0.195,-0.005
5371,-0.235,-0.015
5372,-0.245,-0.015
5373,-0.255,-0.015
5374,-0.245,-0.005
5375,-0.255,-0.015
5376,-0.245,-0.015
5377,-0.235,-0.005
5378,-0.235,-0.005
5379,-0.235,-0.015
5380,-0.225,-0.015
5381,-0.215,-0.005
5382,-0.205,-0.005
5383,-0.205,-0.005
5384,-0.175,0.005
5385,-0.145,0.015
5386,-0.155,0.015
5387,-0.135,0.005
5388,-0.105,0.015
5389,-0.065,0.015
5390,-0.035,0.025
5391,-0.005,0.025
5392,0.045,0.035
5393,0.105,0.055
5394,0.135,0.045
5395,0.195,0.045
5396,0.245,0.045
5397,0.295,0.065
5398,0.345,0.075
5399,0.385,0.065
5400,0.425,0.065
5401,0.425,0.095
5402,0.355,0.075
5403,0.255,0.035
5404,0.155,0.025
5405,0.045,-0.005
5406,-0.065,-0.025
5407,-0.135,-0.055
5408,-0.185,-0.065
5409,-0.195,-0.055
5410,-0.225,-0.065
5411,-0.235,-0.075
5412,-0.235,-0.075
5413,-0.235,-0.065
5414,-0.225,-0.065
5415,-0.235,-0.085
5416,-0.235,-0.085
5417,-0.225,-0.065
5418,-0.215,-0.065
5419,-0.215,-0.075
5420,-0.215,-0.065
5421,-0.215,-0.055
5422,-0.215,-0.065
5423,-0.225,-0.075
5424,-0.225,-0.075
5425,-0.205,-0.065
5426,-0.215,-0.065
5427,-0.225,-0.085
5428,-0.225,-0.085
5429,-0.225,-0.085
5430,-0.225,-0.085
5431,-0.235,-0.105
5432,-0.225,-0.105
5433,-0.235,-0.095
5434,-0.235,-0.105
5435,-0.245,-0.115
5436,-0.245,-0.115
5437,-0.235,-0.105
5438,-0.245,-0.105
5439,-0.255,-0.125
5440,-0.235,-0.125
5441,-0.225,-0.105
5442,-0.245,-0.115
5443,-0.245,-0.135
5444,-0.235,-0.135
5445,-0.245,-0.115
5446,-0.235,-0.115
5447,-0.245,-0.135
5448,-0.235,-0.125
5449,-0.215,-0.105
5450,-0.225,-0.125
5451,-0.265,-0.165
5452,-0.195,-0.095
5453,-0.135,-0.105
5454,-0.125,-0.085
5455,-0.075,-0.105
5456,-0.055,-0.145
5457,-0.135,-0.135
5458,-0.145,-0.125
5459,-0.195,-0.155
5460,-0.205,-0.145
5461,-0.225,-0.115
5462,-0.235,-0.125
5463,-0.225,-0.145
5464,-0.225,-0.145
5465,-0.215,-0.125
5466,-0.205,-0.115
5467,-0.235,-0.115
5468,-0.225,-0.135
5469,-0.195,-0.125
5470,-0.195,-0.115
5471,-0.185,-0.115
5472,-0.175,-0.125
5473,-0.145,-0.085
5474,-0.375,0.085
5475,-0.665,0.115
5476,-0.285,-0.325
5477,1.455,-1.225
5478,2.465,-0.485
5479,2.775,-0.545
5480,1.305,-0.465
5481,-0.025,-0.095
5482,-0.065,0.005
5483,-0.075,-0.015
5484,-0.145,-0.045
5485,-0.195,-0.035
5486,-0.205,-0.025
5487,-0.225,-0.035
5488,-0.215,-0.035
5489,-0.195,-0.035
5490,-0.215,-0.035
5491,-0.215,-0.045
5492,-0.205,-0.035
5493,-0.195,-0.035
5494,-0.185,-0.045
5495,-0.175,-0.055
5496,-0.175,-0.045
5497,-0.145,-0.035
5498,-0.145,-0.035
5499,-0.145,-0.045
5500,-0.115,-0.045
5501,-0.095,-0.035
5502,-0.065,-0.045
5503,-0.045,-0.055
5504,-0.015,-0.045
5505,0.025,-0.035
5506,0.065,-0.035
5507,0.125,-0.035
5508,0.175,-0.025
5509,0.225,-0.025
5510,0.265,-0.015
5511,0.305,-0.025
5512,0.345,-0.005
5513,0.415,0.015
5514,0.445,0.005
5515,0.455,0.005
5516,0.425,0.015
5517,0.355,0.015
5518,0.265,0.005
5519,0.145,-0.025
5520,0.035,-0.035
5521,-0.035,-0.035
5522,-0.115,-0.065
5523,-0.155,-0.085
5524,-0.175,-0.085
5525,-0.185,-0.075
5526,-0.195,-0.075
5527,-0.205,-0.095
5528,-0.185,-0.085
5529,-0.185,-0.065
5530,-0.195,-0.075
5531,-0.185,-0.075
5532,-0.175,-0.075
5533,-0.175,-0.065
5534,-0.175,-0.065
5535,-0.185,-0.075
5536,-0.185,-0.075
5537,-0.175,-0.065
5538,-0.175,-0.065
5539,-0.185,-0.085
5540,-0.195,-0.075
5541,-0.185,-0.075
5542,-0.175,-0.085
5543,-0.205,-0.095
5544,-0.195,-0.085
5545,-0.195,-0.085
5546,-0.195,-0.095
5547,-0.215,-0.115
5548,-0.215,-0.105
5549,-0.215,-0.095
5550,-0.205,-0.095
5551,-0.215,-0.125
5552,-0.215,-0.115
5553,-0.205,-0.095
5554,-0.215,-0.105
5555,-0.215,-0.115
5556,-0.215,-0.115
5557,-0.215,-0.115
5558,-0.205,-0.115
5559,-0.215,-0.125
5560,-0.235,-0.125
5561,-0.225,-0.145
5562,-0.215,-0.125
5563,-0.155,-0.095
5564,-0.095,-0.055
5565,-0.055,-0.115
5566,-0.075,-0.115
5567,-0.125,-0.115
5568,-0.155,-0.145
5569,-0.185,-0.125
5570,-0.225,-0.115
5571,-0.235,-0.135
5572,-0.215,-0.125
5573,-0.215,-0.115
5574,-0.205,-0.115
5575,-0.205,-0.125
5576,-0.205,-0.125
5577,-0.175,-0.105
5578,-0.195,-0.115
5579,-0.195,-0.115
5580,-0.185,-0.115
5581,-0.165,-0.105
5582,-0.135,-0.095
5583,-0.165,-0.015
5584,-0.495,0.045
5585,-0.595,0.085
5586,0.215,-0.485
5587,1.725,-0.805
5588,2.565,-0.405
5589,2.665,-0.465
5590,1.055,-0.385
5591,-0.065,-0.125
5592,-0.045,-0.005
5593,-0.035,-0.005
5594,-0.105,-0.035
5595,-0.145,-0.055
5596,-0.175,-0.045
5597,-0.195,-0.035
5598,-0.185,-0.035
5599,-0.195,-0.035
5600,-0.195,-0.045
5601,-0.185,-0.025
5602,-0.195,-0.035
5603,-0.195,-0.045
5604,-0.185,-0.035
5605,-0.165,-0.045
5606,-0.155,-0.045
5607,-0.165,-0.045
5608,-0.135,-0.055
5609,-0.115,-0.025
5610,-0.105,-0.055
5611,-0.105,-0.055
5612,-0.085,-0.055
5613,-0.055,-0.045
5614,-0.035,-0.035
5615,-0.005,-0.045
5616,0.035,-0.035
5617,0.085,-0.035
5618,0.125,-0.045
5619,0.155,-0.055
5620,0.205,-0.045
5621,0.245,-0.045
5622,0.305,-0.045
5623,0.345,-0.045
5624,0.385,-0.035
5625,0.425,-0.015
5626,0.425,0.005
5627,0.375,-0.005
5628,0.295,0.005
5629,0.215,-0.005
5630,0.085,-0.015
5631,-0.015,-0.035
5632,-0.085,-0.045
5633,-0.115,-0.035
5634,-0.165,-0.045
5635,-0.185,-0.065
5636,-0.185,-0.055
5637,-0.185,-0.045
5638,-0.195,-0.045
5639,-0.195,-0.045
5640,-0.185,-0.045
5641,-0.165,-0.035
5642,-0.175,-0.045
5643,-0.185,-0.055
5644,-0.185,-0.035
5645,-0.175,-0.035
5646,-0.175,-0.035
5647,-0.185,-0.055
5648,-0.175,-0.045
5649,-0.165,-0.035
5650,-0.185,-0.045
5651,-0.195,-0.065
5652,-0.185,-0.065
5653,-0.195,-0.055
5654,-0.195,-0.065
5655,-0.205,-0.065
5656,-0.205,-0.065
5657,-0.185,-0.055
5658,-0.215,-0.065
5659,-0.225,-0.065
5660,-0.215,-0.065
5661,-0.225,-0.065
5662,-0.215,-0.075
5663,-0.235,-0.095
5664,-0.215,-0.085
5665,-0.205,-0.065
5666,-0.225,-0.075
5667,-0.235,-0.085
5668,-0.225,-0.085
5669,-0.225,-0.085
5670,-0.215,-0.065
5671,-0.225,-0.085
5672,-0.215,-0.085
5673,-0.205,-0.085
5674,-0.225,-0.075
5675,-0.145,-0.035
5676,-0.125,-0.035
5677,-0.045,-0.055
5678,-0.035,-0.095
5679,-0.145,-0.095
5680,-0.165,-0.095
5681,-0.175,-0.095
5682,-0.185,-0.085
5683,-0.235,-0.085
5684,-0.225,-0.085
5685,-0.215,-0.085
5686,-0.215,-0.075
5687,-0.225,-0.085
5688,-0.215,-0.075
5689,-0.195,-0.065
5690,-0.225,-0.085
5691,-0.215,-0.085
5692,-0.205,-0.085
5693,-0.185,-0.085
5694,-0.165,0.025
5695,-0.485,0.155
5696,-0.665,0.195
5697,0.135,-0.575
5698,1.755,-1.255
5699,2.545,-0.585
5700,2.775,-0.545
5701,1.125,-0.285
5702,-0.045,0.005
5703,-0.065,0.055
5704,-0.095,0.025
5705,-0.145,0.035
5706,-0.195,0.025
5707,-0.225,0.015
5708,-0.235,0.025
5709,-0.235,0.025
5710,-0.235,0.035
5711,-0.245,0.025
5712,-0.235,0.025
5713,-0.215,0.025
5714,-0.225,0.025
5715,-0.225,0.015
5716,-0.205,0.025
5717,-0.205,0.035
5718,-0.185,0.025
5719,-0.175,0.015
5720,-0.165,0.025
5721,-0.135,0.035
5722,-0.135,0.035
5723,-0.125,0.025
5724,-0.085,0.035
5725,-0.055,0.045
5726,-0.015,0.065
5727,0.015,0.065
5728,0.055,0.065
5729,0.125,0.085
5730,0.155,0.085
5731,0.205,0.075
5732,0.255,0.085
5733,0.305,0.095
5734,0.345,0.105
5735,0.385,0.095
5736,0.415,0.105
5737,0.425,0.125
5738,0.365,0.115
5739,0.265,0.075
5740,0.155,0.045
5741,0.055,0.045
5742,-0.035,0.015
5743,-0.125,-0.015
5744,-0.175,-0.025
5745,-0.195,-0.025
5746,-0.215,-0.035
5747,-0.235,-0.035
5748,-0.225,-0.035
5749,-0.225,-0.035
5750,-0.225,-0.035
5751,-0.235,-0.045
5752,-0.225,-0.035
5753,-0.205,-0.025
5754,-0.215,-0.025
5755,-0.215,-0.035
5756,-0.215,-0.025
5757,-0.215,-0.025
5758,-0.205,-0.015
5759,-0.205,-0.025
5760,-0.215,-0.035
5761,-0.205,-0.025
5762,-0.205,-0.025
5763,-0.215,-0.045
5764,-0.215,-0.035
5765,-0.215,-0.045
5766,-0.215,-0.045
5767,-0.225,-0.065
5768,-0.225,-0.055
5769,-0.215,-0.045
5770,-0.235,-0.055
5771,-0.235,-0.085
5772,-0.235,-0.075
5773,-0.235,-0.065
5774,-0.235,-0.065
5775,-0.255,-0.085
5776,-0.235,-0.075
5777,-0.225,-0.065
5778,-0.245,-0.075
5779,-0.255,-0.085
5780,-0.245,-0.085
5781,-0.235,-0.095
5782,-0.225,-0.085
5783,-0.245,-0.095
5784,-0.225,-0.075
5785,-0.215,-0.085
5786,-0.195,-0.075
5787,-0.145,-0.035
5788,-0.135,-0.065
5789,-0.095,-0.055
5790,-0.005,-0.075
5791,-0.095,-0.125
5792,-0.175,-0.095
5793,-0.155,-0.105
5794,-0.195,-0.115
5795,-0.215,-0.105
5796,-0.235,-0.105
5797,-0.235,-0.105
5798,-0.225,-0.105
5799,-0.225,-0.105
5800,-0.225,-0.095
5801,-0.215,-0.095
5802,-0.225,-0.105
5803,-0.225,-0.115
5804,-0.215,-0.095
5805,-0.205,-0.085
5806,-0.175,-0.085
5807,-0.215,0.045
5808,-0.605,0.105
5809,-0.655,0.125
5810,0.355,-0.825
5811,1.855,-1.255
5812,2.605,-0.505
5813,2.665,-0.585
5814,0.935,-0.305
5815,-0.085,-0.035
5816,-0.085,0.025
5817,-0.095,0.025
5818,-0.165,-0.005
5819,-0.205,-0.015
5820,-0.225,-0.005
5821,-0.235,0.005
5822,-0.245,0.005
5823,-0.255,-0.005
5824,-0.235,-0.005
5825,-0.215,0.015
5826,-0.225,0.015
5827,-0.225,-0.005
5828,-0.215,-0.015
5829,-0.205,-0.005
5830,-0.205,-0.005
5831,-0.195,-0.005
5832,-0.175,-0.005
5833,-0.155,0.015
5834,-0.155,0.005
5835,-0.145,-0.005
5836,-0.115,0.005
5837,-0.095,0.015
5838,-0.065,0.015
5839,-0.035,0.015
5840,0.005,0.025
5841,0.065,0.045
5842,0.095,0.025
5843,0.135,0.025
5844,0.205,0.035
5845,0.255,0.045
5846,0.305,0.055
5847,0.335,0.035
5848,0.395,0.045
5849,0.445,0.085
5850,0.445,0.075
5851,0.385,0.065
5852,0.335,0.055
5853,0.235,0.025
5854,0.125,0.025
5855,0.005,-0.015
5856,-0.075,-0.035
5857,-0.115,-0.045
5858,-0.165,-0.065
5859,-0.195,-0.075
5860,-0.205,-0.065
5861,-0.215,-0.075
5862,-0.195,-0.065
5863,-0.205,-0.075
5864,-0.205,-0.075
5865,-0.185,-0.055
5866,-0.205,-0.055
5867,-0.205,-0.065
5868,-0.185,-0.065
5869,-0.175,-0.065
5870,-0.175,-0.045
5871,-0.195,-0.065
5872,-0.195,-0.055
5873,-0.175,-0.045
5874,-0.185,-0.065
5875,-0.195,-0.075
5876,-0.195,-0.065
5877,-0.185,-0.065
5878,-0.195,-0.075
5879,-0.205,-0.085
5880,-0.205,-0.085
5881,-0.205,-0.075
5882,-0.225,-0.085
5883,-0.215,-0.105
5884,-0.215,-0.105
5885,-0.215,-0.095
5886,-0.205,-0.095
5887,-0.215,-0.115
5888,-0.215,-0.105
5889,-0.205,-0.095
5890,-0.215,-0.105
5891,-0.215,-0.115
5892,-0.205,-0.105
5893,-0.205,-0.105
5894,-0.205,-0.095
5895,-0.195,-0.105
5896,-0.215,-0.125
5897,-0.145,-0.055
5898,-0.115,-0.055
5899,-0.135,-0.105
5900,-0.055,-0.075
5901,0.045,-0.085
5902,-0.055,-0.125
5903,-0.135,-0.115
5904,-0.135,-0.135
5905,-0.155,-0.125
5906,-0.195,-0.105
5907,-0.205,-0.135
5908,-0.205,-0.135
5909,-0.205,-0.115
5910,-0.185,-0.115
5911,-0.195,-0.115
5912,-0.205,-0.125
5913,-0.185,-0.115
5914,-0.195,-0.125
5915,-0.195,-0.135
5916,-0.185,-0.125
5917,-0.175,-0.115
5918,-0.165,-0.105
5919,-0.125,-0.115
5920,-0.205,0.035
5921,-0.565,0.065
5922,-0.575,0.045
5923,0.455,-0.705
5924,1.885,-1.015
5925,2.645,-0.405
5926,2.615,-0.565
5927,0.705,-0.305
5928,-0.105,-0.045
5929,-0.035,0.015
5930,-0.085,-0.015
5931,-0.145,-0.035
5932,-0.165,-0.035
5933,-0.175,-0.025
5934,-0.195,-0.025
5935,-0.205,-0.045
5936,-0.185,-0.025
5937,-0.185,-0.025
5938,-0.195,-0.035
5939,-0.185,-0.045
5940,-0.165,-0.035
5941,-0.165,-0.025
5942,-0.155,-0.025
5943,-0.145,-0.045
5944,-0.135,-0.035
5945,-0.115,-0.025
5946,-0.105,-0.025
5947,-0.115,-0.045
5948,-0.075,-0.035
5949,-0.055,-0.025
5950,-0.045,-0.025
5951,-0.005,-0.035
5952,0.025,-0.025
5953,0.085,-0.005
5954,0.105,-0.015
5955,0.145,-0.015
5956,0.205,-0.005
5957,0.255,-0.005
5958,0.315,0.015
5959,0.355,-0.005
5960,0.405,0.005
5961,0.455,0.025
5962,0.485,0.035
5963,0.465,0.025
5964,0.425,0.035
5965,0.355,0.035
5966,0.255,0.035
5967,0.145,-0.005
5968,0.045,-0.015
5969,-0.025,-0.025
5970,-0.075,-0.035
5971,-0.125,-0.055
5972,-0.145,-0.055
5973,-0.145,-0.055
5974,-0.155,-0.055
5975,-0.165,-0.055
5976,-0.165,-0.045
5977,-0.145,-0.025
5978,-0.155,-0.045
5979,-0.145,-0.045
5980,-0.135,-0.045
5981,-0.135,-0.055
5982,-0.135,-0.035
5983,-0.135,-0.045
5984,-0.125,-0.045
5985,-0.125,-0.025
5986,-0.155,-0.045
5987,-0.155,-0.055
5988,-0.135,-0.035
5989,-0.145,-0.055
5990,-0.145,-0.055
5991,-0.165,-0.065
5992,-0.155,-0.065
5993,-0.135,-0.055
5994,-0.155,-0.065
5995,-0.175,-0.085
5996,-0.165,-0.085
5997,-0.165,-0.075
5998,-0.175,-0.065
5999,-0.175,-0.095
6000,-0.175,-0.085
6001,-0.165,-0.075
6002,-0.175,-0.085
6003,-0.185,-0.095
6004,-0.175,-0.095
6005,-0.165,-0.085
6006,-0.165,-0.065
6007,-0.195,-0.115
6008,-0.175,-0.085
6009,-0.085,-0.035
6010,-0.095,-0.065
6011,-0.075,-0.075
6012,0.045,-0.065
6013,-0.015,-0.095
6014,-0.105,-0.085
6015,-0.125,-0.115
6016,-0.145,-0.115
6017,-0.155,-0.075
6018,-0.185,-0.095
6019,-0.185,-0.105
6020,-0.175,-0.095
6021,-0.175,-0.095
6022,-0.185,-0.085
6023,-0.185,-0.085
6024,-0.175,-0.085
6025,-0.165,-0.075
6026,-0.165,-0.085
6027,-0.175,-0.105
6028,-0.155,-0.095
6029,-0.135,-0.085
6030,-0.115,-0.075
6031,-0.125,-0.005
6032,-0.465,0.085
6033,-0.565,0.125
6034,0.225,-0.415
6035,1.715,-0.925
6036,2.535,-0.395
6037,2.795,-0.435
6038,1.295,-0.405
6039,-0.005,-0.085
6040,-0.045,0.025
6041,-0.035,0.025
6042,-0.095,-0.005
6043,-0.145,-0.025
6044,-0.165,-0.015
6045,-0.175,-0.005
6046,-0.175,-0.005
6047,-0.185,-0.015
6048,-0.175,-0.015
6049,-0.175,0.005
6050,-0.175,-0.015
6051,-0.175,-0.015
6052,-0.155,-0.005
6053,-0.155,-0.015
6054,-0.145,-0.005
6055,-0.135,-0.015
6056,-0.125,-0.025
6057,-0.095,-0.005
6058,-0.095,-0.015
6059,-0.085,-0.025
6060,-0.055,-0.015
6061,-0.035,-0.005
6062,-0.005,-0.005
6063,0.015,-0.005
6064,0.045,-0.015
6065,0.105,0.015
6066,0.145,0.005
6067,0.195,-0.005
6068,0.235,0.015
6069,0.285,0.015
6070,0.325,0.025
6071,0.355,0.005
6072,0.405,0.035
6073,0.455,0.065
6074,0.445,0.065
6075,0.395,0.065
6076,0.325,0.065
6077,0.215,0.055
6078,0.105,0.035
6079,0.005,0.015
6080,-0.075,0.005
6081,-0.105,-0.005
6082,-0.155,-0.015
6083,-0.175,-0.025
6084,-0.185,-0.015
6085,-0.195,-0.005
6086,-0.185,-0.005
6087,-0.195,-0.025
6088,-0.185,-0.025
6089,-0.175,-0.005
6090,-0.175,0.005
6091,-0.175,-0.025
6092,-0.165,-0.005
6093,-0.165,0.005
6094,-0.145,0.005
6095,-0.175,-0.005
6096,-0.155,-0.005
6097,-0.145,0.005
6098,-0.155,0.005
6099,-0.175,-0.025
6100,-0.175,-0.015
6101,-0.165,-0.015
6102,-0.165,-0.025
6103,-0.185,-0.035
6104,-0.185,-0.035
6105,-0.185,-0.025
6106,-0.195,-0.035
6107,-0.215,-0.045
6108,-0.205,-0.045
6109,-0.205,-0.045
6110,-0.195,-0.035
6111,-0.195,-0.065
6112,-0.195,-0.055
6113,-0.185,-0.035
6114,-0.195,-0.045
6115,-0.205,-0.055
6116,-0.205,-0.055
6117,-0.195,-0.045
6118,-0.195,-0.045
6119,-0.195,-0.055
6120,-0.215,-0.055
6121,-0.135,0.005
6122,-0.095,0.005
6123,-0.115,-0.035
6124,-0.035,-0.015
6125,-0.005,-0.055
6126,-0.125,-0.075
6127,-0.155,-0.065
6128,-0.175,-0.095
6129,-0.155,-0.075
6130,-0.195,-0.045
6131,-0.215,-0.065
6132,-0.205,-0.065
6133,-0.205,-0.055
6134,-0.205,-0.055
6135,-0.205,-0.065
6136,-0.205,-0.065
6137,-0.185,-0.045
6138,-0.205,-0.045
6139,-0.195,-0.065
6140,-0.185,-0.065
6141,-0.165,-0.065
6142,-0.145,-0.025
6143,-0.305,0.175
6144,-0.645,0.215
6145,-0.405,-0.105
6146,1.125,-1.205
6147,2.305,-0.825
6148,2.795,-0.475
6149,2.085,-0.485
6150,0.435,-0.065
6151,-0.085,0.065
6152,-0.025,0.065
6153,-0.065,0.055
6154,-0.145,0.045
6155,-0.195,0.045
6156,-0.205,0.045
6157,-0.215,0.045
6158,-0.215,0.045
6159,-0.225,0.045
6160,-0.205,0.055
6161,-0.195,0.065
6162,-0.205,0.055
6163,-0.205,0.025
6164,-0.185,0.045
6165,-0.185,0.045
6166,-0.175,0.055
6167,-0.165,0.045
6168,-0.145,0.045
6169,-0.115,0.065
6170,-0.115,0.075
6171,-0.105,0.055
6172,-0.075,0.065
6173,-0.055,0.065
6174,-0.015,0.085
6175,0.015,0.085
6176,0.055,0.085
6177,0.125,0.105
6178,0.165,0.095
6179,0.215,0.085
6180,0.275,0.105
6181,0.325,0.115
6182,0.375,0.125
6183,0.415,0.125
6184,0.455,0.135
6185,0.485,0.155
6186,0.425,0.135
6187,0.335,0.105
6188,0.235,0.095
6189,0.125,0.065
6190,0.015,0.045
6191,-0.085,0.005
6192,-0.135,0.005
6193,-0.145,0.005
6194,-0.185,-0.005
6195,-0.195,-0.025
6196,-0.195,-0.025
6197,-0.185,-0.015
6198,-0.185,-0.015
6199,-0.195,-0.025
6200,-0.185,-0.025
6201,-0.175,-0.005
6202,-0.185,-0.015
6203,-0.195,-0.015
6204,-0.175,-0.015
6205,-0.175,-0.005
6206,-0.175,-0.005
6207,-0.185,-0.015
6208,-0.185,-0.005
6209,-0.165,-0.005
6210,-0.175,-0.005
6211,-0.185,-0.035
6212,-0.175,-0.025
6213,-0.185,-0.025
6214,-0.185,-0.025
6215,-0.185,-0.045
6216,-0.185,-0.045
6217,-0.185,-0.035
6218,-0.195,-0.055
6219,-0.205,-0.055
6220,-0.205,-0.055
6221,-0.195,-0.055
6222,-0.205,-0.055
6223,-0.205,-0.065
6224,-0.205,-0.065
6225,-0.195,-0.055
6226,-0.195,-0.075
6227,-0.215,-0.075
6228,-0.205,-0.075
6229,-0.195,-0.065
6230,-0.195,-0.065
6231,-0.205,-0.075
6232,-0.185,-0.075
6233,-0.185,-0.065
6234,-0.145,-0.045
6235,-0.115,-0.045
6236,-0.115,-0.065
6237,-0.025,-0.045
6238,0.015,-0.075
6239,-0.125,-0.115
6240,-0.155,-0.095
6241,-0.155,-0.105
6242,-0.165,-0.105
6243,-0.205,-0.085
6244,-0.215,-0.095
6245,-0.205,-0.095
6246,-0.195,-0.095
6247,-0.205,-0.105
6248,-0.195,-0.095
6249,-0.185,-0.075
6250,-0.205,-0.095
6251,-0.205,-0.105
6252,-0.195,-0.115
6253,-0.195,-0.095
6254,-0.185,-0.095
6255,-0.165,-0.105
6256,-0.135,-0.095
6257,-0.135,0.045
6258,-0.495,0.125
6259,-0.645,0.105
6260,0.285,-0.775
6261,1.845,-1.255
6262,2.605,-0.475
6263,2.715,-0.585
6264,1.205,-0.385
6265,0.025,-0.035
6266,-0.035,0.045
6267,-0.045,0.005
6268,-0.105,-0.015
6269,-0.155,-0.005
6270,-0.175,0.015
6271,-0.195,0.005
6272,-0.205,-0.005
6273,-0.195,0.005
6274,-0.205,0.005
6275,-0.205,-0.005
6276,-0.195,-0.015
6277,-0.195,-0.015
6278,-0.185,-0.005
6279,-0.185,-0.015
6280,-0.165,-0.015
6281,-0.135,0.005
6282,-0.155,-0.015
6283,-0.145,-0.025
6284,-0.115,-0.015
6285,-0.105,-0.005
6286,-0.085,-0.005
6287,-0.065,-0.015
6288,-0.035,-0.015
6289,0.015,0.005
6290,0.045,0.005
6291,0.095,-0.005
6292,0.145,0.005
6293,0.195,0.005
6294,0.255,0.005
6295,0.295,0.005
6296,0.345,0.015
6297,0.415,0.045
6298,0.445,0.045
6299,0.465,0.025
6300,0.465,0.035
6301,0.405,0.045
6302,0.305,0.025
6303,0.175,-0.005
6304,0.065,-0.025
6305,-0.015,-0.015
6306,-0.085,-0.035
6307,-0.135,-0.065
6308,-0.165,-0.075
6309,-0.175,-0.075
6310,-0.175,-0.075
6311,-0.195,-0.085
6312,-0.185,-0.075
6313,-0.185,-0.065
6314,-0.185,-0.075
6315,-0.175,-0.085
6316,-0.185,-0.075
6317,-0.175,-0.065
6318,-0.165,-0.075
6319,-0.155,-0.075
6320,-0.165,-0.075
6321,-0.175,-0.055
6322,-0.175,-0.065
6323,-0.175,-0.075
6324,-0.185,-0.075
6325,-0.185,-0.065
6326,-0.185,-0.085
6327,-0.185,-0.095
6328,-0.185,-0.085
6329,-0.175,-0.095
6330,-0.185,-0.095
6331,-0.215,-0.115
6332,-0.205,-0.115
6333,-0.195,-0.105
6334,-0.195,-0.105
6335,-0.205,-0.125
6336,-0.215,-0.125
6337,-0.205,-0.115
6338,-0.215,-0.125
6339,-0.205,-0.145
6340,-0.205,-0.125
6341,-0.205,-0.135
6342,-0.215,-0.115
6343,-0.205,-0.125
6344,-0.215,-0.135
6345,-0.215,-0.145
6346,-0.195,-0.125
6347,-0.135,-0.095
6348,-0.125,-0.105
6349,-0.055,-0.105
6350,-0.015,-0.145
6351,-0.115,-0.155
6352,-0.135,-0.145
6353,-0.155,-0.165
6354,-0.195,-0.145
6355,-0.225,-0.155
6356,-0.225,-0.165
6357,-0.215,-0.165
6358,-0.215,-0.145
6359,-0.225,-0.155
6360,-0.205,-0.165
6361,-0.195,-0.135
6362,-0.205,-0.145
6363,-0.225,-0.155
6364,-0.205,-0.155
6365,-0.195,-0.145
6366,-0.185,-0.135
6367,-0.185,-0.155
6368,-0.175,-0.145
6369,-0.125,-0.125
6370,-0.225,-0.005
6371,-0.575,-0.005
6372,-0.575,0.035
6373,0.485,-0.675
6374,1.935,-0.855
6375,2.655,-0.425
6376,2.515,-0.565
6377,0.695,-0.355
6378,-0.125,-0.105
6379,-0.045,-0.045
6380,-0.075,-0.065
6381,-0.135,-0.065
6382,-0.175,-0.075
6383,-0.205,-0.085
6384,-0.215,-0.085
6385,-0.205,-0.065
6386,-0.215,-0.065
6387,-0.215,-0.095
6388,-0.215,-0.085
6389,-0.205,-0.075
6390,-0.185,-0.085
6391,-0.195,-0.095
6392,-0.175,-0.105
6393,-0.165,-0.085
6394,-0.155,-0.095
6395,-0.165,-0.105
6396,-0.135,-0.095
6397,-0.125,-0.095
6398,-0.105,-0.095
6399,-0.085,-0.095
6400,-0.065,-0.105
6401,-0.015,-0.095
6402,0.005,-0.095
6403,0.035,-0.105
6404,0.085,-0.085
6405,0.145,-0.085
6406,0.195,-0.085
6407,0.235,-0.085
6408,0.285,-0.085
6409,0.345,-0.075
6410,0.375,-0.065
6411,0.415,-0.065
6412,0.435,-0.055
6413,0.405,-0.045
6414,0.345,-0.035
6415,0.245,-0.055
6416,0.145,-0.065
6417,0.045,-0.055
6418,-0.045,-0.075
6419,-0.125,-0.105
6420,-0.175,-0.115
6421,-0.205,-0.105
6422,-0.215,-0.105
6423,-0.225,-0.115
6424,-0.215,-0.095
6425,-0.205,-0.095
6426,-0.225,-0.095
6427,-0.225,-0.105
6428,-0.215,-0.105
6429,-0.195,-0.105
6430,-0.205,-0.095
6431,-0.215,-0.095
6432,-0.195,-0.095
6433,-0.185,-0.085
6434,-0.195,-0.095
6435,-0.215,-0.105
6436,-0.205,-0.105
6437,-0.205,-0.105
6438,-0.215,-0.105
6439,-0.225,-0.105
6440,-0.215,-0.105
6441,-0.225,-0.105
6442,-0.225,-0.105
6443,-0.235,-0.125
6444,-0.225,-0.115
6445,-0.245,-0.125
6446,-0.245,-0.105
6447,-0.245,-0.135
6448,-0.245,-0.135
6449,-0.245,-0.115
6450,-0.255,-0.135
6451,-0.255,-0.125
6452,-0.255,-0.125
6453,-0.245,-0.125
6454,-0.245,-0.125
6455,-0.255,-0.135
6456,-0.265,-0.135
6457,-0.265,-0.145
6458,-0.225,-0.115
6459,-0.175,-0.105
6460,-0.155,-0.085
6461,-0.115,-0.105
6462,-0.105,-0.135
6463,-0.155,-0.135
6464,-0.195,-0.155
6465,-0.215,-0.145
6466,-0.245,-0.125
6467,-0.265,-0.145
6468,-0.265,-0.155
6469,-0.255,-0.145
6470,-0.255,-0.135
6471,-0.265,-0.145
6472,-0.255,-0.135
6473,-0.225,-0.125
6474,-0.255,-0.135
6475,-0.255,-0.145
6476,-0.245,-0.135
6477,-0.235,-0.135
6478,-0.235,-0.135
6479,-0.235,-0.135
6480,-0.195,-0.135
6481,-0.165,-0.035
6482,-0.535,0.045
6483,-0.665,0.085
6484,0.245,-0.515
6485,1.685,-0.975
6486,2.495,-0.455
6487,2.675,-0.525
6488,1.075,-0.405
6489,-0.085,-0.095
6490,-0.085,-0.015
6491,-0.115,-0.045
6492,-0.175,-0.055
6493,-0.215,-0.055
6494,-0.225,-0.045
6495,-0.255,-0.065
