'sample interval','ECG0','ECG1'
'0.0078125 sec','mV','mV'
0,1.110,0.090
1,0.980,0.170
2,0.820,0.170
3,0.640,0.220
4,0.510,0.210
5,0.430,0.250
6,0.290,0.230
7,0.200,0.150
8,0.150,0.130
9,0.080,0.060
10,0.040,0.010
11,0.070,0.000
12,0.040,-0.020
13,0.030,-0.010
14,0.050,-0.060
15,0.100,-0.020
16,0.050,-0.020
17,0.040,-0.020
18,0.080,-0.010
19,0.060,0.000
20,0.060,-0.020
21,0.050,0.000
22,0.060,-0.020
23,0.040,-0.010
24,0.060,-0.040
25,-0.010,-0.010
26,0.000,-0.040
27,-0.010,0.010
28,-0.080,-0.070
29,-0.090,-0.050
30,-0.140,-0.050
31,-0.060,-0.070
32,-0.160,-0.080
33,-0.140,-0.100
34,-0.150,-0.090
35,-0.110,-0.060
36,-0.140,-0.100
37,-0.170,-0.090
38,-0.180,-0.090
39,-0.190,-0.110
40,-0.180,-0.110
41,-0.200,-0.100
42,-0.200,-0.110
43,-0.170,-0.090
44,-0.160,-0.140
45,-0.210,-0.100
46,-0.150,-0.070
47,-0.180,-0.120
48,-0.220,-0.040
49,-0.210,-0.160
50,-0.180,-0.080
51,-0.200,-0.120
52,-0.130,-0.110
53,-0.170,-0.140
54,-0.180,-0.110
55,-0.190,-0.120
56,-0.170,-0.100
57,-0.170,-0.080
58,-0.190,-0.110
59,-0.190,-0.150
60,-0.190,-0.120
61,-0.140,-0.120
62,-0.190,-0.110
63,-0.140,-0.130
64,-0.170,-0.100
65,-0.160,-0.100
66,-0.160,-0.100
67,-0.160,-0.070
68,-0.170,-0.120
69,-0.180,-0.100
70,-0.180,-0.110
71,-0.120,-0.120
72,-0.140,-0.080
73,-0.150,-0.130
74,-0.150,-0.100
75,-0.130,-0.110
76,-0.140,-0.090
77,-0.130,-0.090
78,-0.190,-0.120
79,-0.140,-0.080
80,-0.150,-0.080
81,-0.160,-0.120
82,-0.120,-0.120
83,-0.140,-0.080
84,-0.140,-0.090
85,-0.160,-0.110
86,-0.130,-0.080
87,-0.170,-0.060
88,-0.160,-0.090
89,-0.120,-0.120
90,-0.150,-0.110
91,-0.120,-0.100
92,-0.140,-0.110
93,-0.100,-0.110
94,-0.120,-0.080
95,-0.070,-0.110
96,-0.140,-0.100
97,-0.140,-0.090
98,-0.130,-0.110
99,-0.110,-0.100
100,-0.120,-0.090
101,-0.100,-0.150
102,-0.080,-0.110
103,-0.120,-0.130
104,-0.090,-0.090
105,-0.070,-0.110
106,-0.110,-0.110
107,-0.120,-0.090
108,-0.110,-0.120
109,-0.090,-0.120
110,-0.110,-0.110
111,-0.100,-0.140
112,-0.090,-0.090
113,-0.080,-0.110
114,-0.030,-0.090
115,-0.010,-0.080
116,0.090,0.000
117,0.110,-0.010
118,0.150,0.040
119,0.170,0.070
120,0.200,0.060
121,0.290,0.080
122,0.220,0.090
123,0.270,0.010
124,0.210,0.090
125,0.140,0.050
126,-0.010,0.030
127,-0.080,-0.020
128,-0.080,-0.130
129,-0.110,-0.100
130,-0.090,-0.110
131,-0.110,-0.160
132,-0.110,-0.140
133,-0.140,-0.110
134,-0.090,-0.110
135,-0.130,-0.110
136,-0.120,-0.130
137,-0.340,-0.110
138,-0.430,-0.030
139,0.630,0.410
140,2.050,1.000
141,2.830,0.420
142,1.590,-0.390
143,-0.090,-0.960
144,0.050,-1.750
145,0.050,-0.600
146,-0.050,-0.210
147,-0.060,-0.080
148,-0.110,-0.030
149,-0.140,-0.040
150,-0.100,0.000
151,-0.160,0.030
152,-0.150,0.050
153,-0.110,0.080
154,-0.130,0.060
155,-0.160,0.080
156,-0.120,0.090
157,-0.120,0.100
158,-0.100,0.110
159,-0.080,0.120
160,-0.080,0.190
161,-0.090,0.160
162,-0.040,0.170
163,-0.020,0.210
164,-0.040,0.240
165,-0.020,0.260
166,0.020,0.300
167,0.050,0.300
168,0.100,0.330
169,0.170,0.370
170,0.180,0.410
171,0.310,0.490
172,0.250,0.550
173,0.350,0.540
174,0.410,0.610
175,0.440,0.640
176,0.500,0.670
177,0.570,0.700
178,0.580,0.680
179,0.640,0.680
180,0.700,0.700
181,0.600,0.640
182,0.640,0.620
183,0.580,0.530
184,0.480,0.450
185,0.440,0.340
186,0.330,0.260
187,0.240,0.130
188,0.260,0.100
189,0.170,0.070
190,0.130,0.040
191,0.110,0.030
192,0.100,0.030
193,0.080,0.010
194,0.060,-0.030
195,0.030,0.020
196,0.060,-0.040
197,0.050,-0.050
198,0.040,-0.030
199,0.050,-0.020
200,0.050,0.000
201,0.080,0.000
202,0.090,0.010
203,0.000,0.020
204,0.010,-0.030
205,0.090,-0.020
206,0.000,-0.020
207,0.080,0.020
208,0.080,0.000
209,0.100,-0.020
210,0.090,0.010
211,0.100,-0.030
212,0.120,0.020
213,0.000,-0.020
214,-0.060,-0.050
215,0.060,-0.110
216,-0.020,-0.100
217,0.020,-0.120
218,0.020,-0.150
219,-0.040,-0.130
220,0.000,-0.160
221,-0.010,-0.170
222,-0.040,-0.170
223,-0.050,-0.210
224,-0.030,-0.230
225,-0.020,-0.240
226,-0.040,-0.250
227,0.020,-0.240
228,-0.080,-0.200
229,-0.100,-0.280
230,-0.040,-0.240
231,-0.110,-0.170
232,-0.120,-0.240
233,-0.150,-0.230
234,-0.100,-0.210
235,-0.120,-0.230
236,-0.090,-0.250
237,-0.030,-0.230
238,-0.050,-0.220
239,0.070,-0.210
240,-0.240,-0.240
241,-0.110,-0.190
242,-0.110,-0.230
243,-0.110,-0.210
244,-0.100,-0.230
245,-0.100,-0.250
246,-0.100,-0.230
247,-0.060,-0.210
248,-0.030,-0.180
249,-0.020,-0.130
250,-0.040,-0.180
251,-0.060,-0.190
252,-0.060,-0.180
253,-0.050,-0.190
254,-0.100,-0.160
255,-0.050,-0.200
256,-0.010,-0.160
257,0.030,-0.170
258,0.130,-0.120
259,0.080,-0.070
260,0.150,-0.080
261,0.180,0.030
262,0.140,-0.030
263,0.240,0.020
264,0.140,-0.030
265,0.290,-0.050
266,0.150,-0.010
267,0.110,-0.040
268,-0.070,0.010
269,-0.070,-0.040
270,-0.170,-0.130
271,-0.190,-0.130
272,-0.170,-0.250
273,-0.260,-0.240
274,-0.190,-0.240
275,-0.240,-0.250
276,-0.190,-0.240
277,-0.260,-0.230
278,-0.210,-0.200
279,-0.210,-0.260
280,-0.250,-0.240
281,-0.600,-0.210
282,-0.300,0.030
283,0.910,0.440
284,2.220,0.960
285,2.850,0.140
286,0.250,-1.140
287,-0.160,-1.640
288,-0.080,-1.690
289,-0.120,-0.590
290,-0.140,-0.320
291,-0.190,-0.200
292,-0.190,-0.180
293,-0.180,-0.170
294,-0.200,-0.120
295,-0.250,-0.180
296,-0.120,-0.160
297,-0.210,-0.130
298,-0.200,-0.110
299,-0.180,-0.120
300,-0.220,-0.130
301,-0.150,-0.150
302,-0.160,-0.110
303,-0.180,-0.140
304,-0.100,-0.150
305,-0.120,-0.100
306,-0.110,-0.070
307,-0.050,-0.090
308,-0.070,-0.040
309,-0.060,-0.040
310,-0.040,-0.050
311,0.030,-0.020
312,0.100,0.030
313,0.110,0.070
314,0.210,0.090
315,0.200,0.180
316,0.280,0.200
317,0.400,0.230
318,0.410,0.330
319,0.470,0.340
320,0.550,0.360
321,0.540,0.380
322,0.620,0.350
323,0.660,0.380
324,0.640,0.330
325,0.580,0.300
326,0.570,0.170
327,0.460,0.110
328,0.380,0.000
329,0.260,-0.100
330,0.230,-0.180
331,0.160,-0.240
332,0.100,-0.290
333,0.090,-0.310
334,0.060,-0.300
335,-0.010,-0.330
336,0.000,-0.350
337,-0.020,-0.350
338,-0.070,-0.350
339,-0.030,-0.350
340,-0.040,-0.370
341,-0.060,-0.330
342,-0.070,-0.340
343,-0.070,-0.360
344,-0.070,-0.310
345,-0.130,-0.310
346,-0.080,-0.320
347,-0.140,-0.300
348,-0.160,-0.300
349,-0.160,-0.350
350,-0.120,-0.320
351,-0.150,-0.300
352,-0.110,-0.310
353,-0.090,-0.310
354,-0.130,-0.300
355,-0.090,-0.290
356,-0.110,-0.230
357,-0.190,-0.380
358,-0.160,-0.350
359,-0.170,-0.330
360,-0.140,-0.320
361,-0.170,-0.310
362,-0.180,-0.270
363,-0.100,-0.270
364,-0.140,-0.260
365,-0.160,-0.170
366,-0.190,-0.270
367,-0.220,-0.290
368,-0.190,-0.350
369,-0.190,-0.330
370,-0.220,-0.370
371,-0.170,-0.350
372,-0.170,-0.350
373,-0.230,-0.310
374,-0.160,-0.330
375,-0.210,-0.240
376,-0.240,-0.300
377,-0.210,-0.260
378,-0.230,-0.200
379,-0.240,-0.260
380,-0.270,-0.240
381,-0.220,-0.280
382,-0.180,-0.230
383,-0.140,-0.170
384,-0.040,-0.140
385,0.450,-0.120
386,1.020,-0.050
387,1.570,0.070
388,0.190,0.660
389,-1.850,0.950
390,-3.340,1.120
391,-3.350,0.610
392,-1.950,-0.570
393,-0.570,0.140
394,-0.480,0.750
395,-0.700,1.100
396,-1.090,0.750
397,-0.960,-0.030
398,-0.670,-0.300
399,-0.380,-0.370
400,-0.330,-0.310
401,-0.340,-0.160
402,-0.280,-0.310
403,-0.250,-0.200
404,-0.250,-0.240
405,-0.170,-0.170
406,-0.230,-0.140
407,-0.220,-0.250
408,-0.110,-0.170
409,-0.140,-0.120
410,-0.040,-0.170
411,-0.030,-0.230
412,0.000,-0.270
413,0.100,-0.200
414,0.050,-0.150
415,0.180,-0.170
416,0.210,-0.190
417,0.260,-0.190
418,0.370,-0.130
419,0.420,-0.090
420,0.580,-0.190
421,0.640,-0.140
422,0.790,-0.150
423,0.830,-0.090
424,1.010,-0.210
425,1.000,-0.070
426,1.140,-0.210
427,1.140,-0.080
428,1.220,-0.110
429,1.100,0.110
430,1.080,-0.050
431,0.910,0.160
432,0.750,0.220
433,0.580,0.240
434,0.430,0.250
435,0.260,0.210
436,0.130,0.170
437,-0.020,0.130
438,-0.070,0.070
439,-0.100,0.030
440,-0.150,0.010
441,-0.190,0.010
442,-0.210,-0.050
443,-0.060,0.040
444,-0.270,0.000
445,-0.160,-0.130
446,-0.170,-0.040
447,-0.180,-0.030
448,-0.130,-0.030
449,-0.100,-0.060
450,-0.150,0.010
451,-0.100,-0.030
452,-0.180,0.060
453,-0.160,-0.050
454,-0.170,-0.010
455,-0.220,0.010
456,-0.190,-0.100
457,-0.220,-0.050
458,-0.220,-0.070
459,-0.220,-0.060
460,-0.220,-0.060
461,-0.250,-0.070
462,-0.310,-0.010
463,-0.310,-0.120
464,-0.280,-0.090
465,-0.320,-0.110
466,-0.320,-0.130
467,-0.330,-0.100
468,-0.280,-0.150
469,-0.310,-0.090
470,-0.310,-0.110
471,-0.300,-0.160
472,-0.340,-0.150
473,-0.360,-0.110
474,-0.330,-0.210
475,-0.340,-0.130
476,-0.360,-0.170
477,-0.350,-0.150
478,-0.290,-0.130
479,-0.310,-0.130
480,-0.320,-0.090
481,-0.370,-0.090
482,-0.320,-0.150
483,-0.390,-0.060
484,-0.330,-0.180
485,-0.340,-0.020
486,-0.360,-0.120
487,-0.380,-0.160
488,-0.320,-0.170
489,-0.320,-0.060
490,-0.360,-0.140
491,-0.340,-0.090
492,-0.370,-0.040
493,-0.350,-0.110
494,-0.350,-0.100
495,-0.420,-0.010
496,-0.340,-0.170
497,-0.350,-0.100
498,-0.330,-0.110
499,-0.370,-0.090
500,-0.400,-0.110
501,-0.360,-0.110
502,-0.400,-0.070
503,-0.380,-0.110
504,-0.370,-0.120
505,-0.370,-0.100
506,-0.350,-0.100
507,-0.320,-0.110
508,-0.340,-0.100
509,-0.370,-0.130
510,-0.260,-0.090
511,-0.210,-0.040
512,-0.230,-0.070
513,-0.140,0.050
514,-0.130,-0.060
515,-0.070,-0.010
516,-0.060,0.060
517,-0.030,-0.050
518,-0.040,-0.060
519,0.030,-0.050
520,-0.020,0.030
521,-0.240,-0.050
522,-0.400,-0.060
523,-0.470,-0.230
524,-0.440,-0.260
525,-0.480,-0.190
526,-0.450,-0.280
527,-0.490,-0.200
528,-0.460,-0.260
529,-0.470,-0.210
530,-0.460,-0.240
531,-0.510,-0.200
532,-0.500,-0.210
533,-0.470,-0.190
534,-0.880,-0.170
535,-0.260,0.060
536,1.090,0.540
537,2.260,0.980
538,2.580,0.220
539,-0.410,-1.080
540,-0.460,-1.370
541,-0.360,-1.450
542,-0.390,-0.520
543,-0.340,-0.260
544,-0.360,-0.140
545,-0.400,-0.150
546,-0.340,-0.110
547,-0.350,-0.040
548,-0.370,-0.020
549,-0.380,0.030
550,-0.370,-0.100
551,-0.390,0.010
552,-0.360,-0.020
553,-0.370,0.050
554,-0.320,0.040
555,-0.330,0.020
556,-0.260,0.040
557,-0.270,0.100
558,-0.270,0.070
559,-0.240,0.140
560,-0.190,0.140
561,-0.200,0.240
562,-0.140,0.140
563,-0.150,0.300
564,-0.040,0.240
565,-0.030,0.300
566,0.060,0.380
567,0.110,0.420
568,0.140,0.490
569,0.250,0.450
570,0.280,0.590
571,0.360,0.570
572,0.420,0.650
573,0.520,0.620
574,0.530,0.680
575,0.600,0.640
576,0.620,0.660
577,0.630,0.650
578,0.550,0.580
579,0.530,0.440
580,0.410,0.450
581,0.330,0.250
582,0.230,0.240
583,0.160,0.070
584,0.060,0.130
585,0.040,0.000
586,0.060,0.010
587,-0.100,0.140
588,-0.060,-0.130
589,-0.050,0.000
590,-0.140,-0.010
591,-0.060,-0.060
592,-0.120,0.070
593,-0.120,-0.150
594,-0.120,0.040
595,-0.100,-0.080
596,-0.100,-0.040
597,-0.120,0.020
598,-0.110,0.030
599,-0.140,0.000
600,-0.140,-0.010
601,-0.150,0.070
602,-0.160,0.000
603,-0.120,-0.040
604,-0.030,0.000
605,0.530,-0.030
606,1.060,0.020
607,0.980,0.290
608,-1.680,0.800
609,-3.180,1.110
610,-3.540,0.610
611,-2.250,0.080
612,-0.540,-0.030
613,-0.350,0.890
614,-0.340,1.240
615,-0.760,1.180
616,-0.790,0.370
617,-0.260,-0.210
618,-0.010,0.010
619,-0.030,0.010
620,-0.030,0.000
621,-0.020,-0.120
622,-0.030,-0.080
623,-0.110,-0.110
624,-0.070,-0.280
625,-0.100,-0.200
626,-0.050,-0.200
627,0.200,-0.160
628,0.290,-0.040
629,0.280,0.020
630,0.280,-0.060
631,0.310,-0.070
632,0.330,-0.090
633,0.400,-0.110
634,0.520,-0.130
635,0.510,-0.030
636,0.590,-0.140
637,0.690,-0.150
638,0.800,-0.100
639,0.870,-0.070
640,0.960,-0.130
641,1.090,-0.120
642,1.170,-0.060
643,1.270,-0.110
644,1.380,-0.030
645,1.400,-0.040
646,1.400,0.030
647,1.350,0.150
648,1.230,0.180
649,1.100,0.200
650,0.960,0.220
651,0.820,0.260
652,0.680,0.300
653,0.540,0.360
654,0.440,0.230
655,0.350,0.270
656,0.260,0.230
657,0.210,0.210
658,0.150,0.110
659,0.120,0.090
660,0.110,0.060
661,0.110,0.080
662,0.090,0.070
663,0.140,-0.020
664,0.110,0.050
665,0.120,0.070
666,0.090,0.100
667,0.090,0.050
668,0.050,0.080
669,0.050,0.050
670,0.050,0.080
671,0.050,0.070
672,0.020,0.060
673,0.040,0.050
674,0.030,0.030
675,0.000,0.090
676,-0.040,0.050
677,-0.050,-0.020
678,-0.070,0.010
679,-0.080,-0.020
680,-0.080,-0.010
681,-0.090,-0.010
682,-0.070,-0.020
683,-0.100,-0.040
684,-0.090,-0.060
685,-0.110,0.040
686,-0.120,-0.070
687,-0.160,-0.040
688,-0.150,-0.070
689,-0.200,-0.020
690,-0.130,-0.140
691,-0.170,-0.030
692,-0.140,-0.090
693,-0.140,-0.050
694,-0.160,-0.090
695,-0.180,-0.040
696,-0.150,-0.040
697,-0.250,-0.050
698,-0.190,-0.110
699,-0.220,-0.050
700,-0.210,-0.090
701,-0.230,-0.090
702,-0.190,-0.110
703,-0.200,-0.080
704,-0.220,-0.030
705,-0.200,-0.090
706,-0.180,-0.050
707,-0.230,-0.070
708,-0.220,-0.070
709,-0.210,-0.050
710,-0.210,-0.050
711,-0.200,-0.070
712,-0.160,-0.080
713,-0.180,-0.030
714,-0.180,-0.060
715,-0.170,-0.040
716,-0.190,-0.010
717,-0.220,-0.070
718,-0.220,-0.070
719,-0.200,-0.040
720,-0.210,-0.040
721,-0.210,-0.110
722,-0.170,-0.070
723,-0.200,-0.050
724,-0.200,-0.070
725,-0.180,-0.080
726,-0.190,-0.050
727,-0.190,-0.040
728,-0.220,0.000
729,-0.210,-0.100
730,-0.200,-0.130
731,-0.170,-0.100
732,-0.140,-0.080
733,-0.200,-0.040
734,-0.170,-0.100
735,-0.170,-0.070
736,-0.200,-0.070
737,-0.190,-0.110
738,-0.220,-0.050
739,-0.180,-0.110
740,-0.180,-0.060
741,-0.160,-0.090
742,-0.160,-0.070
743,-0.140,-0.060
744,-0.190,-0.040
745,-0.150,-0.080
746,-0.190,-0.020
747,-0.190,-0.090
748,-0.210,-0.060
749,-0.180,-0.070
750,-0.160,-0.090
751,-0.170,-0.050
752,-0.180,-0.090
753,-0.200,-0.100
754,-0.180,-0.090
755,-0.140,-0.060
756,-0.230,0.020
757,-0.210,-0.170
758,-0.180,-0.080
759,-0.170,-0.100
760,-0.180,-0.070
761,-0.150,-0.140
762,-0.160,-0.080
763,-0.150,-0.060
764,-0.150,-0.050
765,-0.140,-0.130
766,-0.180,-0.020
767,-0.170,-0.100
768,-0.180,-0.090
769,-0.150,-0.100
770,-0.130,-0.070
771,-0.090,-0.110
772,-0.010,-0.060
773,0.060,0.020
774,0.060,0.020
775,0.130,0.100
776,0.140,0.090
777,0.150,0.160
778,0.180,0.080
779,0.140,0.050
780,0.210,0.020
781,0.140,0.050
782,0.050,0.040
783,-0.090,-0.040
784,-0.140,-0.060
785,-0.200,-0.090
786,-0.220,-0.110
787,-0.230,-0.150
788,-0.240,-0.130
789,-0.220,-0.110
790,-0.260,-0.050
791,-0.240,-0.210
792,-0.240,-0.120
793,-0.200,-0.100
794,-0.460,-0.120
795,-0.450,-0.030
796,0.620,0.480
797,1.990,1.050
798,2.640,0.340
799,0.940,-0.670
800,-0.340,-1.090
801,-0.120,-1.730
802,-0.100,-0.560
803,-0.160,-0.250
804,-0.190,-0.100
805,-0.250,-0.080
806,-0.270,-0.040
807,-0.280,-0.040
808,-0.230,-0.050
809,-0.230,0.010
810,-0.220,0.030
811,-0.190,0.040
812,-0.200,0.060
813,-0.200,0.070
814,-0.170,0.100
815,-0.200,0.120
816,-0.190,0.130
817,-0.170,0.160
818,-0.140,0.130
819,-0.130,0.170
820,-0.070,0.200
821,-0.070,0.240
822,-0.040,0.270
823,-0.010,0.310
824,0.000,0.330
825,0.020,0.330
826,0.080,0.390
827,0.170,0.400
828,0.210,0.480
829,0.270,0.510
830,0.320,0.570
831,0.400,0.540
832,0.470,0.610
833,0.500,0.670
834,0.590,0.680
835,0.570,0.740
836,0.630,0.740
837,0.630,0.680
838,0.640,0.670
839,0.640,0.640
840,0.610,0.570
841,0.540,0.530
842,0.430,0.440
843,0.380,0.320
844,0.280,0.280
845,0.210,0.180
846,0.130,0.150
847,0.090,0.080
848,0.060,0.050
849,0.040,0.010
850,0.040,0.010
851,0.010,0.010
852,-0.010,0.010
853,0.000,0.010
854,-0.040,0.040
855,-0.050,-0.020
856,-0.050,-0.010
857,-0.050,-0.010
858,-0.020,0.000
859,-0.050,0.050
860,-0.030,-0.030
861,-0.040,0.020
862,0.010,-0.010
863,-0.040,0.050
864,-0.040,0.020
865,-0.040,0.030
866,-0.050,0.040
867,-0.030,0.000
868,-0.050,0.050
869,-0.020,0.010
870,-0.010,0.040
871,-0.040,0.050
872,-0.070,0.080
873,-0.070,-0.020
874,-0.080,0.000
875,-0.100,0.030
876,-0.100,-0.040
877,-0.100,-0.030
878,-0.090,-0.020
879,-0.090,-0.050
880,-0.100,0.010
881,-0.090,-0.030
882,-0.130,0.010
883,-0.120,-0.050
884,-0.170,-0.070
885,-0.150,-0.060
886,-0.140,-0.050
887,-0.130,-0.040
888,-0.130,-0.040
889,-0.140,-0.030
890,-0.120,-0.090
891,-0.130,-0.030
892,-0.140,-0.070
893,-0.120,-0.070
894,-0.170,-0.030
895,-0.150,-0.110
896,-0.170,-0.120
897,-0.160,-0.090
898,-0.120,-0.100
899,-0.110,-0.050
900,-0.150,-0.100
901,-0.140,-0.100
902,-0.160,-0.070
903,-0.150,-0.130
904,-0.180,-0.060
905,-0.160,-0.120
906,-0.150,-0.060
907,-0.150,-0.120
908,-0.120,-0.130
909,-0.160,-0.030
910,-0.140,-0.180
911,-0.160,-0.030
912,-0.140,-0.060
913,-0.140,-0.120
914,-0.140,-0.050
915,-0.060,-0.080
916,0.030,-0.060
917,0.040,0.030
918,0.110,0.010
919,0.140,0.060
920,0.130,0.090
921,0.150,0.100
922,0.140,0.050
923,0.140,0.030
924,0.080,0.030
925,-0.010,0.020
926,-0.130,-0.030
927,-0.210,-0.060
928,-0.170,-0.150
929,-0.190,-0.100
930,-0.220,-0.150
931,-0.250,-0.150
932,-0.240,-0.150
933,-0.310,-0.080
934,-0.260,-0.240
935,-0.240,-0.140
936,-0.230,-0.120
937,-0.210,-0.130
938,-0.210,-0.160
939,-0.550,-0.090
940,-0.220,0.040
941,0.890,0.590
942,2.180,1.000
943,2.740,0.360
944,0.610,-0.750
945,-0.210,-1.260
946,-0.100,-1.590
947,-0.060,-0.500
948,-0.100,-0.250
949,-0.130,-0.070
950,-0.180,-0.030
951,-0.180,-0.020
952,-0.180,0.010
953,-0.210,0.020
954,-0.190,0.010
955,-0.160,0.070
956,-0.200,0.090
957,-0.180,0.020
958,-0.130,0.050
959,-0.140,0.080
960,-0.130,0.110
961,-0.130,0.160
962,-0.120,0.170
963,-0.110,0.130
964,-0.130,0.160
965,-0.100,0.170
966,-0.070,0.220
967,-0.040,0.200
968,0.020,0.260
969,0.050,0.310
970,0.060,0.360
971,0.140,0.350
972,0.170,0.400
973,0.220,0.450
974,0.280,0.460
975,0.340,0.510
976,0.380,0.550
977,0.470,0.570
978,0.530,0.630
979,0.550,0.660
980,0.590,0.670
981,0.620,0.710
982,0.650,0.640
983,0.630,0.630
984,0.550,0.580
985,0.540,0.430
986,0.440,0.410
987,0.380,0.280
988,0.260,0.260
989,0.190,0.100
990,0.160,0.060
991,0.110,0.060
992,0.040,0.010
993,0.020,-0.040
994,0.020,-0.050
995,-0.010,-0.040
996,0.000,-0.090
997,0.010,-0.080
998,-0.020,-0.060
999,-0.030,-0.040
1000,-0.050,-0.040
1001,-0.050,-0.060
1002,-0.070,-0.060
1003,-0.080,-0.070
1004,-0.070,-0.050
1005,-0.080,-0.020
1006,-0.080,-0.070
1007,-0.040,-0.100
1008,-0.070,0.010
1009,-0.070,-0.030
1010,-0.050,-0.030
1011,-0.040,0.000
1012,-0.090,0.010
1013,-0.070,-0.020
1014,-0.070,0.010
1015,-0.050,-0.010
1016,-0.030,0.020
1017,-0.050,0.030
1018,-0.070,-0.020
1019,-0.050,0.020
1020,-0.080,0.060
1021,-0.080,-0.010
1022,-0.120,0.070
1023,-0.100,-0.030
1024,-0.120,0.030
1025,-0.090,-0.030
1026,-0.110,0.050
1027,-0.070,-0.060
1028,-0.100,-0.020
1029,-0.110,-0.020
1030,-0.130,-0.030
1031,-0.150,-0.040
1032,-0.110,-0.060
1033,-0.140,0.000
1034,-0.140,-0.140
1035,-0.130,-0.080
1036,-0.100,-0.110
1037,-0.120,-0.050
1038,-0.140,-0.100
1039,-0.110,-0.090
1040,-0.120,-0.100
1041,-0.190,-0.070
1042,-0.140,-0.110
1043,-0.150,-0.100
1044,0.140,-0.170
1045,0.900,-0.170
1046,1.310,-0.010
1047,0.750,0.290
1048,-2.360,0.890
1049,-3.630,1.080
1050,-4.110,0.700
1051,-2.710,-0.460
1052,-1.000,-0.320
1053,-0.540,0.620
1054,-0.590,1.250
1055,-0.790,0.760
1056,-0.580,-0.020
1057,-0.150,-0.200
1058,0.190,-0.140
1059,0.120,0.210
1060,0.190,-0.060
1061,0.110,0.030
1062,0.120,-0.080
1063,0.160,-0.100
1064,0.160,-0.080
1065,0.210,-0.070
1066,0.160,-0.120
1067,0.020,-0.130
1068,0.080,-0.190
1069,0.110,-0.180
1070,0.130,-0.160
1071,0.150,-0.180
1072,0.180,-0.170
1073,0.220,-0.170
1074,0.280,-0.180
1075,0.390,-0.180
1076,0.410,-0.170
1077,0.480,-0.180
1078,0.590,-0.110
1079,0.650,-0.150
1080,0.740,-0.150
1081,0.850,-0.140
1082,0.970,-0.160
1083,1.060,-0.140
1084,1.160,-0.160
1085,1.280,-0.140
1086,1.330,-0.100
1087,1.360,-0.030
1088,1.300,0.090
1089,1.250,0.040
1090,1.080,0.190
1091,0.940,0.210
1092,0.780,0.250
1093,0.610,0.260
1094,0.510,0.250
1095,0.360,0.220
1096,0.240,0.220
1097,0.180,0.110
1098,0.110,0.090
1099,0.040,0.090
1100,-0.010,0.010
1101,-0.010,-0.050
1102,0.020,-0.040
1103,-0.020,-0.010
1104,-0.010,-0.060
1105,0.030,-0.050
1106,0.030,-0.010
1107,0.010,-0.010
1108,0.030,-0.030
1109,0.010,-0.020
1110,-0.020,-0.030
1111,0.010,-0.040
1112,0.000,-0.030
1113,0.020,-0.070
1114,0.020,-0.050
1115,-0.030,-0.050
1116,-0.030,-0.050
1117,-0.030,-0.070
1118,-0.050,-0.040
1119,-0.140,-0.090
1120,-0.110,-0.080
1121,-0.150,-0.090
1122,-0.140,-0.140
1123,-0.170,-0.130
1124,-0.110,-0.140
1125,-0.190,-0.050
1126,-0.190,-0.150
1127,-0.180,-0.160
1128,-0.180,-0.150
1129,-0.220,-0.120
1130,-0.230,-0.160
1131,-0.220,-0.150
1132,-0.210,-0.180
1133,-0.230,-0.150
1134,-0.200,-0.160
1135,-0.210,-0.170
1136,-0.200,-0.150
1137,-0.210,-0.160
1138,-0.190,-0.120
1139,-0.240,-0.140
1140,-0.230,-0.180
1141,-0.230,-0.160
1142,-0.250,-0.170
1143,-0.220,-0.200
1144,-0.190,-0.150
1145,-0.230,-0.190
1146,-0.230,-0.180
1147,-0.190,-0.150
1148,-0.220,-0.160
1149,-0.240,-0.140
1150,-0.230,-0.180
1151,-0.260,-0.200
1152,-0.230,-0.190
1153,-0.240,-0.180
1154,-0.170,-0.210
1155,-0.230,-0.140
1156,-0.230,-0.180
1157,-0.230,-0.160
1158,-0.250,-0.180
1159,-0.250,-0.180
1160,-0.290,-0.150
1161,-0.280,-0.220
1162,-0.240,-0.180
1163,-0.260,-0.150
1164,-0.230,-0.260
1165,-0.210,-0.160
1166,-0.240,-0.180
1167,-0.240,-0.160
1168,-0.270,-0.180
1169,-0.260,-0.190
1170,-0.270,-0.160
1171,-0.250,-0.180
1172,-0.220,-0.200
1173,-0.230,-0.110
1174,-0.260,-0.270
1175,-0.230,-0.230
1176,-0.240,-0.160
1177,-0.230,-0.200
1178,-0.250,-0.170
1179,-0.270,-0.210
1180,-0.250,-0.210
1181,-0.240,-0.190
1182,-0.250,-0.180
1183,-0.200,-0.230
1184,-0.220,-0.170
1185,-0.250,-0.220
1186,-0.200,-0.190
1187,-0.220,-0.120
1188,-0.260,-0.220
1189,-0.250,-0.180
1190,-0.220,-0.190
1191,-0.210,-0.180
1192,-0.210,-0.170
1193,-0.120,-0.160
1194,-0.060,-0.140
1195,-0.020,-0.080
1196,0.000,-0.020
1197,0.040,-0.010
1198,0.060,0.020
1199,0.050,0.040
1200,0.080,-0.050
1201,0.070,0.010
1202,0.110,-0.130
1203,0.070,-0.020
1204,-0.080,-0.080
1205,-0.210,-0.080
1206,-0.240,-0.190
1207,-0.260,-0.170
1208,-0.320,-0.180
1209,-0.310,-0.250
1210,-0.320,-0.210
1211,-0.320,-0.210
1212,-0.300,-0.210
1213,-0.310,-0.200
1214,-0.290,-0.210
1215,-0.290,-0.190
1216,-0.380,-0.160
1217,-0.680,-0.120
1218,0.310,0.310
1219,1.550,0.940
1220,2.510,0.470
1221,2.140,-0.270
1222,-0.580,-1.110
1223,-0.210,-1.890
1224,-0.120,-0.830
1225,-0.190,-0.350
1226,-0.190,-0.130
1227,-0.300,-0.070
1228,-0.270,-0.130
1229,-0.280,-0.070
1230,-0.290,-0.080
1231,-0.280,-0.040
1232,-0.250,-0.030
1233,-0.250,-0.050
1234,-0.230,-0.010
1235,-0.240,0.040
1236,-0.230,0.000
1237,-0.240,0.020
1238,-0.230,0.060
1239,-0.200,0.050
1240,-0.210,0.080
1241,-0.160,0.050
1242,-0.140,0.080
1243,-0.130,0.140
1244,-0.090,0.170
1245,-0.080,0.220
1246,-0.040,0.200
1247,-0.020,0.230
1248,0.020,0.290
1249,0.090,0.280
1250,0.160,0.360
1251,0.210,0.400
1252,0.280,0.450
1253,0.360,0.460
1254,0.420,0.530
1255,0.460,0.590
1256,0.530,0.580
1257,0.560,0.650
1258,0.560,0.630
1259,0.600,0.570
1260,0.590,0.580
1261,0.600,0.500
1262,0.550,0.470
1263,0.460,0.410
1264,0.380,0.310
1265,0.300,0.220
1266,0.210,0.180
1267,0.110,0.120
1268,0.080,-0.020
1269,0.020,0.010
1270,-0.010,-0.040
1271,0.020,-0.070
1272,-0.010,-0.030
1273,-0.040,-0.060
1274,-0.050,-0.080
1275,-0.040,-0.050
1276,-0.100,-0.060
1277,-0.100,-0.080
1278,-0.080,-0.060
1279,-0.060,-0.100
1280,-0.080,-0.040
1281,-0.050,-0.120
1282,-0.070,-0.050
1283,-0.070,-0.080
1284,-0.060,-0.050
1285,-0.040,-0.050
1286,-0.070,-0.040
1287,-0.070,-0.080
1288,-0.040,-0.080
1289,-0.040,-0.060
1290,-0.030,-0.070
1291,0.010,-0.090
1292,-0.010,-0.020
1293,-0.010,-0.050
1294,-0.020,-0.040
1295,-0.030,-0.040
1296,-0.060,-0.010
1297,-0.070,-0.100
1298,-0.050,-0.100
1299,-0.070,-0.070
1300,-0.020,-0.090
1301,-0.040,-0.090
1302,-0.080,-0.060
1303,-0.050,-0.120
1304,-0.050,-0.060
1305,-0.070,-0.090
1306,-0.090,-0.090
1307,-0.100,-0.140
1308,-0.100,-0.110
1309,-0.090,-0.140
1310,-0.070,-0.110
1311,-0.110,-0.120
1312,-0.080,-0.170
1313,-0.100,-0.110
1314,-0.100,-0.130
1315,-0.130,-0.120
1316,-0.140,-0.140
1317,-0.130,-0.140
1318,-0.110,-0.140
1319,-0.120,-0.140
1320,-0.070,-0.130
1321,-0.120,-0.010
1322,-0.120,-0.190
1323,-0.100,-0.110
1324,-0.110,-0.120
1325,-0.110,-0.140
1326,-0.140,-0.080
1327,-0.130,-0.170
1328,-0.120,-0.130
1329,-0.110,-0.110
1330,-0.100,-0.160
1331,-0.140,-0.100
1332,-0.100,-0.080
1333,-0.110,-0.100
1334,-0.130,-0.120
1335,-0.120,-0.090
1336,-0.110,-0.120
1337,-0.140,-0.090
1338,-0.100,-0.110
1339,-0.090,-0.110
1340,-0.070,-0.070
1341,0.010,-0.060
1342,0.090,0.030
1343,0.090,0.040
1344,0.130,0.070
1345,0.150,0.120
1346,0.170,0.100
1347,0.200,0.100
1348,0.210,0.070
1349,0.260,0.000
1350,0.180,0.080
1351,0.090,0.070
1352,-0.030,0.010
1353,-0.100,-0.060
1354,-0.150,-0.090
1355,-0.160,-0.150
1356,-0.170,-0.120
1357,-0.160,-0.160
1358,-0.190,-0.150
1359,-0.170,-0.190
1360,-0.180,-0.130
1361,-0.190,-0.150
1362,-0.190,-0.100
1363,-0.220,-0.170
1364,-0.190,-0.180
1365,-0.600,-0.130
1366,-0.080,0.110
1367,1.020,0.610
1368,2.270,0.850
1369,2.780,0.180
1370,0.350,-1.010
1371,-0.150,-1.390
1372,0.000,-1.450
1373,-0.050,-0.430
1374,-0.100,-0.180
1375,-0.100,-0.110
1376,-0.130,-0.060
1377,-0.120,-0.050
1378,-0.110,-0.010
1379,-0.090,0.010
1380,-0.120,0.070
1381,-0.090,0.000
1382,-0.080,0.060
1383,-0.130,0.110
1384,-0.090,0.000
1385,-0.090,0.090
1386,-0.090,0.110
1387,-0.050,0.110
1388,-0.030,0.140
1389,-0.050,0.200
1390,0.000,0.160
1391,0.000,0.230
1392,-0.010,0.230
1393,0.040,0.250
1394,0.040,0.270
1395,0.070,0.310
1396,0.130,0.350
1397,0.210,0.360
1398,0.230,0.440
1399,0.300,0.450
1400,0.360,0.560
1401,0.410,0.580
1402,0.440,0.640
1403,0.510,0.610
1404,0.550,0.680
1405,0.610,0.680
1406,0.680,0.660
1407,0.710,0.740
1408,0.720,0.680
1409,0.680,0.670
1410,0.640,0.560
1411,0.570,0.490
1412,0.450,0.370
1413,0.370,0.300
1414,0.280,0.200
1415,0.230,0.100
1416,0.140,0.080
1417,0.130,0.010
1418,0.080,0.030
1419,0.100,-0.020
1420,0.040,0.060
1421,0.010,-0.030
1422,0.020,-0.030
1423,0.030,-0.050
1424,0.010,0.000
1425,0.020,-0.070
1426,0.050,-0.050
1427,0.020,0.020
1428,-0.010,-0.070
1429,-0.010,-0.030
1430,0.000,-0.040
1431,-0.020,-0.020
1432,-0.020,-0.060
1433,-0.040,-0.010
1434,-0.030,-0.060
1435,0.000,-0.030
1436,0.010,-0.050
1437,0.010,-0.010
1438,0.000,-0.060
1439,0.010,-0.010
1440,0.030,0.000
1441,-0.010,0.020
1442,-0.010,-0.030
1443,0.000,-0.020
1444,-0.020,-0.010
1445,-0.030,-0.060
1446,0.020,-0.050
1447,0.000,-0.010
1448,-0.020,0.000
1449,-0.020,-0.050
1450,-0.020,0.010
1451,-0.070,-0.050
1452,-0.030,-0.030
1453,-0.040,-0.030
1454,-0.070,-0.010
1455,-0.040,-0.070
1456,-0.010,-0.050
1457,0.100,-0.060
1458,0.770,-0.080
1459,1.200,0.040
1460,1.350,0.240
1461,-2.090,0.830
1462,-3.410,1.060
1463,-4.250,0.850
1464,-3.050,0.120
1465,-1.640,-0.610
1466,-0.600,0.430
1467,-0.520,1.180
1468,-0.720,1.020
1469,-0.770,0.160
1470,-0.400,-0.280
1471,0.020,-0.260
1472,0.000,0.030
1473,0.020,-0.050
1474,-0.020,-0.120
1475,-0.060,-0.160
1476,-0.070,-0.210
1477,-0.140,-0.190
1478,-0.020,-0.240
1479,0.150,-0.160
1480,0.180,-0.050
1481,0.250,-0.040
1482,0.220,0.000
1483,0.220,-0.050
1484,0.270,-0.130
1485,0.330,-0.150
1486,0.380,-0.130
1487,0.410,-0.120
1488,0.460,-0.120
1489,0.550,-0.140
1490,0.600,-0.120
1491,0.700,-0.100
1492,0.770,-0.170
1493,0.900,-0.180
1494,1.000,-0.140
1495,1.130,-0.160
1496,1.190,-0.140
1497,1.290,-0.130
1498,1.380,-0.080
1499,1.430,-0.040
1500,1.420,-0.010
1501,1.330,0.080
1502,1.270,0.080
1503,1.150,0.180
1504,1.000,0.240
1505,0.870,0.250
1506,0.720,0.290
1507,0.590,0.310
1508,0.450,0.290
1509,0.350,0.250
1510,0.250,0.230
1511,0.190,0.090
1512,0.180,0.070
1513,0.180,0.070
1514,0.200,0.020
1515,0.180,0.040
1516,0.160,0.040
1517,0.170,0.020
1518,0.180,0.010
1519,0.130,0.050
1520,0.170,0.020
1521,0.160,0.020
1522,0.160,0.000
1523,0.160,0.040
1524,0.180,0.010
1525,0.170,0.050
1526,0.160,0.050
1527,0.150,0.070
1528,0.150,0.060
1529,0.090,0.050
1530,0.090,0.020
1531,0.070,0.000
1532,0.070,0.000
1533,0.040,0.010
1534,0.050,-0.020
1535,0.040,-0.010
1536,0.010,-0.050
1537,0.000,-0.020
1538,0.010,-0.070
1539,-0.030,-0.090
1540,-0.010,-0.080
1541,-0.050,-0.010
1542,-0.050,-0.170
1543,-0.050,-0.100
1544,-0.030,-0.140
1545,-0.040,-0.110
1546,-0.030,-0.070
1547,-0.080,-0.090
1548,-0.080,-0.130
1549,-0.090,-0.110
1550,-0.100,-0.090
1551,-0.100,-0.120
1552,-0.110,-0.140
1553,-0.110,-0.140
1554,-0.070,-0.140
1555,-0.100,-0.090
1556,-0.100,-0.120
1557,-0.060,-0.120
1558,-0.130,-0.070
1559,-0.130,-0.190
1560,-0.150,-0.120
1561,-0.130,-0.150
1562,-0.100,-0.140
1563,-0.120,-0.150
1564,-0.090,-0.140
1565,-0.100,-0.130
1566,-0.140,-0.080
1567,-0.090,-0.150
1568,-0.150,-0.100
1569,-0.150,-0.120
1570,-0.150,-0.140
1571,-0.120,-0.170
1572,-0.160,-0.140
1573,-0.090,-0.160
1574,-0.120,-0.110
1575,-0.150,-0.160
1576,-0.120,-0.120
1577,-0.140,-0.140
1578,-0.150,-0.130
1579,-0.180,-0.120
1580,-0.170,-0.150
1581,-0.160,-0.160
1582,-0.140,-0.140
1583,-0.130,-0.150
1584,-0.140,-0.100
1585,-0.140,-0.080
1586,-0.150,-0.120
1587,-0.160,-0.120
1588,-0.160,-0.140
1589,-0.170,-0.110
1590,-0.170,-0.130
1591,-0.140,-0.150
1592,-0.160,-0.100
1593,-0.140,-0.190
1594,-0.130,-0.110
1595,-0.140,-0.090
1596,-0.160,-0.080
1597,-0.150,-0.130
1598,-0.180,-0.090
1599,-0.170,-0.160
1600,-0.150,-0.140
1601,-0.170,-0.100
1602,-0.140,-0.150
1603,-0.140,-0.160
1604,-0.140,-0.140
1605,-0.110,-0.110
1606,-0.130,-0.060
1607,-0.150,-0.180
1608,-0.130,-0.140
1609,-0.140,-0.130
1610,-0.140,-0.160
1611,-0.140,-0.170
1612,-0.100,-0.170
1613,-0.080,-0.130
1614,-0.110,-0.130
1615,-0.080,-0.130
1616,-0.080,-0.120
1617,-0.150,-0.110
1618,-0.100,-0.190
1619,-0.110,-0.140
1620,-0.110,-0.140
1621,-0.110,-0.110
1622,-0.080,-0.190
1623,-0.090,-0.140
1624,-0.080,-0.110
1625,-0.020,-0.060
1626,0.070,-0.060
1627,0.060,0.010
1628,0.110,0.040
1629,0.140,0.010
1630,0.160,0.040
1631,0.150,0.050
1632,0.170,-0.010
1633,0.200,-0.040
1634,0.120,0.010
1635,0.050,-0.040
1636,-0.090,-0.050
1637,-0.180,-0.140
1638,-0.200,-0.160
1639,-0.220,-0.180
1640,-0.230,-0.150
1641,-0.220,-0.200
1642,-0.190,-0.200
1643,-0.220,-0.150
1644,-0.230,-0.120
1645,-0.210,-0.230
1646,-0.240,-0.150
1647,-0.320,-0.160
1648,-0.660,-0.100
1649,0.300,0.300
1650,1.640,0.950
1651,2.530,0.450
1652,2.100,-0.240
1653,-0.400,-0.920
1654,-0.080,-1.900
1655,0.020,-0.780
1656,-0.190,-0.260
1657,-0.180,-0.180
1658,-0.210,-0.120
1659,-0.230,-0.080
1660,-0.220,-0.070
1661,-0.190,-0.060
1662,-0.220,0.030
1663,-0.200,-0.060
1664,-0.190,0.030
1665,-0.200,-0.010
1666,-0.210,0.030
1667,-0.200,0.010
1668,-0.190,0.010
1669,-0.150,0.040
1670,-0.130,0.060
1671,-0.110,0.110
1672,-0.120,0.090
1673,-0.100,0.130
1674,-0.050,0.150
1675,-0.050,0.200
1676,-0.040,0.200
1677,0.010,0.250
1678,0.040,0.250
1679,0.080,0.280
1680,0.150,0.310
1681,0.240,0.350
1682,0.260,0.530
1683,0.330,0.410
1684,0.400,0.520
1685,0.430,0.580
1686,0.500,0.600
1687,0.540,0.630
1688,0.580,0.630
1689,0.630,0.640
1690,0.650,0.630
1691,0.670,0.610
1692,0.600,0.600
1693,0.590,0.510
1694,0.510,0.460
1695,0.410,0.300
1696,0.310,0.250
1697,0.230,0.180
1698,0.170,0.060
1699,0.120,0.030
1700,0.100,-0.030
1701,0.030,-0.030
1702,-0.010,-0.060
1703,0.010,-0.070
1704,-0.020,-0.040
1705,-0.050,-0.110
1706,-0.060,-0.040
1707,-0.070,-0.100
1708,-0.070,-0.100
1709,-0.060,-0.080
1710,-0.040,-0.120
1711,-0.060,-0.070
1712,-0.070,-0.070
1713,-0.060,-0.080
1714,-0.070,-0.050
1715,-0.080,-0.090
1716,-0.110,-0.020
1717,-0.080,-0.100
1718,-0.070,-0.050
1719,-0.040,-0.080
1720,-0.040,-0.060
1721,-0.020,-0.040
1722,-0.070,0.010
1723,-0.020,-0.120
1724,-0.070,0.000
1725,-0.100,-0.120
1726,-0.090,-0.060
1727,-0.090,-0.070
1728,-0.100,-0.120
1729,-0.080,-0.110
1730,-0.080,-0.070
1731,-0.130,-0.130
1732,-0.100,-0.090
1733,-0.110,-0.090
1734,-0.160,-0.120
1735,-0.170,-0.120
1736,-0.170,-0.150
1737,-0.190,-0.140
1738,-0.150,-0.130
1739,-0.150,-0.140
1740,-0.160,-0.130
1741,-0.170,-0.120
1742,-0.160,-0.100
1743,-0.190,-0.090
1744,-0.220,-0.120
1745,-0.200,-0.110
1746,-0.210,-0.120
1747,-0.220,-0.160
1748,-0.220,-0.090
1749,-0.160,-0.170
1750,-0.210,-0.100
1751,-0.220,-0.100
1752,-0.190,-0.140
1753,-0.220,-0.100
1754,-0.240,-0.140
1755,-0.230,-0.130
1756,-0.240,-0.130
1757,-0.220,-0.170
1758,-0.200,-0.170
1759,-0.170,-0.190
1760,-0.220,-0.130
1761,-0.190,-0.170
1762,-0.230,-0.130
1763,-0.200,-0.150
1764,-0.250,-0.130
1765,-0.270,-0.170
1766,-0.240,-0.220
1767,-0.230,-0.180
1768,-0.260,-0.170
1769,-0.220,-0.230
1770,-0.180,-0.150
1771,-0.100,-0.150
1772,-0.040,-0.070
1773,-0.040,-0.030
1774,0.000,-0.060
1775,0.020,-0.010
1776,0.050,0.020
1777,0.050,-0.010
1778,0.090,-0.050
1779,0.090,-0.060
1780,0.020,-0.060
1781,-0.070,-0.030
1782,-0.230,-0.050
1783,-0.290,-0.200
1784,-0.300,-0.180
1785,-0.330,-0.200
1786,-0.310,-0.190
1787,-0.350,-0.180
1788,-0.350,-0.250
1789,-0.350,-0.230
1790,-0.380,-0.230
1791,-0.360,-0.210
1792,-0.350,-0.210
1793,-0.340,-0.160
1794,-0.430,-0.180
1795,-0.810,-0.210
1796,-0.230,0.120
1797,1.000,0.630
1798,2.270,0.770
1799,2.750,0.080
1800,-0.130,-0.990
1801,-0.260,-1.640
1802,-0.180,-1.220
1803,-0.320,-0.460
1804,-0.320,-0.210
1805,-0.350,-0.130
1806,-0.390,-0.110
1807,-0.370,-0.080
1808,-0.310,-0.080
1809,-0.350,0.000
1810,-0.350,-0.030
1811,-0.300,0.000
1812,-0.350,0.050
1813,-0.350,0.030
1814,-0.360,0.020
1815,-0.330,0.060
1816,-0.330,0.030
1817,-0.300,0.050
1818,-0.280,0.090
1819,-0.270,0.100
1820,-0.260,0.140
1821,-0.240,0.120
1822,-0.210,0.160
1823,-0.220,0.200
1824,-0.210,0.190
1825,-0.170,0.210
1826,-0.090,0.250
1827,-0.060,0.330
1828,0.000,0.330
1829,0.070,0.380
1830,0.090,0.490
1831,0.210,0.440
1832,0.260,0.540
1833,0.260,0.570
1834,0.340,0.550
1835,0.400,0.600
1836,0.420,0.600
1837,0.460,0.570
1838,0.480,0.520
1839,0.410,0.530
1840,0.380,0.420
1841,0.280,0.360
1842,0.210,0.240
1843,0.090,0.130
1844,0.000,0.080
1845,-0.060,-0.010
1846,-0.110,-0.050
1847,-0.160,-0.130
1848,-0.140,-0.150
1849,-0.190,-0.100
1850,-0.200,-0.100
1851,-0.210,-0.150
1852,-0.230,-0.130
1853,-0.230,-0.130
1854,-0.230,-0.130
1855,-0.250,-0.130
1856,-0.260,-0.120
1857,-0.230,-0.140
1858,-0.240,-0.110
1859,-0.250,-0.100
1860,-0.300,-0.070
1861,-0.280,-0.150
1862,-0.290,-0.080
1863,-0.290,-0.130
1864,-0.300,-0.090
1865,-0.260,-0.140
1866,-0.280,-0.110
1867,-0.260,-0.130
1868,-0.240,-0.090
1869,-0.240,-0.080
1870,-0.270,-0.120
1871,-0.220,-0.110
1872,-0.280,-0.070
1873,-0.270,-0.160
1874,-0.290,-0.110
1875,-0.260,-0.170
1876,-0.280,-0.130
1877,-0.260,-0.190
1878,-0.250,-0.160
1879,-0.300,-0.130
1880,-0.280,-0.160
1881,-0.300,-0.170
1882,-0.300,-0.160
1883,-0.300,-0.160
1884,-0.300,-0.140
1885,-0.290,-0.180
1886,-0.040,-0.210
1887,0.670,-0.240
1888,1.130,-0.110
1889,0.740,0.230
1890,-2.520,0.780
1891,-3.860,0.920
1892,-4.280,0.580
1893,-2.990,-0.320
1894,-1.480,-0.490
1895,-0.740,0.430
1896,-0.680,1.080
1897,-0.940,0.910
1898,-0.990,0.190
1899,-0.640,-0.380
1900,-0.160,-0.320
1901,-0.220,-0.070
1902,-0.250,-0.170
1903,-0.250,-0.210
1904,-0.300,-0.270
1905,-0.340,-0.310
1906,-0.310,-0.300
1907,-0.160,-0.350
1908,0.010,-0.190
1909,0.060,-0.120
1910,0.100,-0.090
1911,0.080,-0.060
1912,0.050,-0.140
1913,0.070,-0.170
1914,0.100,-0.160
1915,0.180,-0.210
1916,0.230,-0.140
1917,0.310,-0.210
1918,0.340,-0.160
1919,0.450,-0.170
1920,0.540,-0.150
1921,0.640,-0.180
1922,0.720,-0.160
1923,0.830,-0.200
1924,0.980,-0.230
1925,1.050,-0.190
1926,1.190,-0.200
1927,1.250,-0.150
1928,1.260,-0.090
1929,1.240,-0.030
1930,1.190,0.030
1931,1.060,0.090
1932,0.920,0.130
1933,0.770,0.200
1934,0.570,0.260
1935,0.440,0.200
1936,0.330,0.220
1937,0.180,0.210
1938,0.070,0.170
1939,0.020,0.070
1940,0.000,0.080
1941,-0.090,0.020
1942,-0.070,-0.010
1943,-0.080,-0.050
1944,-0.070,-0.040
1945,-0.060,-0.050
1946,-0.030,-0.030
1947,-0.050,-0.070
1948,-0.020,-0.050
1949,-0.020,-0.030
1950,-0.030,-0.030
1951,-0.060,-0.040
1952,-0.040,-0.060
1953,-0.040,-0.020
1954,-0.050,-0.010
1955,-0.060,-0.010
1956,-0.030,-0.090
1957,-0.090,0.020
1958,-0.100,-0.020
1959,-0.120,-0.070
1960,-0.140,-0.040
1961,-0.160,-0.030
1962,-0.200,-0.040
1963,-0.200,-0.090
1964,-0.200,-0.080
1965,-0.200,-0.090
1966,-0.200,-0.100
1967,-0.230,-0.070
1968,-0.230,-0.120
1969,-0.230,-0.090
1970,-0.220,-0.110
1971,-0.260,-0.090
1972,-0.300,-0.060
1973,-0.280,-0.170
1974,-0.290,-0.160
1975,-0.240,-0.160
1976,-0.260,-0.120
1977,-0.270,-0.190
1978,-0.230,-0.120
1979,-0.230,-0.120
1980,-0.280,-0.140
1981,-0.260,-0.200
1982,-0.260,-0.180
1983,-0.250,-0.180
1984,-0.280,-0.170
1985,-0.240,-0.200
1986,-0.230,-0.160
1987,-0.250,-0.160
1988,-0.240,-0.150
1989,-0.220,-0.130
1990,-0.260,-0.140
1991,-0.240,-0.130
1992,-0.250,-0.170
1993,-0.240,-0.180
1994,-0.240,-0.160
1995,-0.240,-0.160
1996,-0.220,-0.170
1997,-0.230,-0.140
1998,-0.240,-0.170
1999,-0.250,-0.130
2000,-0.280,-0.160
2001,-0.260,-0.180
2002,-0.260,-0.180
2003,-0.280,-0.160
2004,-0.250,-0.180
2005,-0.260,-0.140
2006,-0.260,-0.210
2007,-0.270,-0.170
2008,-0.260,-0.170
2009,-0.260,-0.180
2010,-0.290,-0.170
2011,-0.280,-0.200
2012,-0.270,-0.190
2013,-0.270,-0.190
2014,-0.240,-0.190
2015,-0.260,-0.170
2016,-0.250,-0.210
2017,-0.270,-0.170
2018,-0.260,-0.190
2019,-0.250,-0.160
2020,-0.280,-0.170
2021,-0.270,-0.180
2022,-0.290,-0.210
2023,-0.270,-0.190
2024,-0.240,-0.180
2025,-0.220,-0.170
2026,-0.230,-0.170
2027,-0.240,-0.170
2028,-0.230,-0.170
2029,-0.250,-0.150
2030,-0.290,-0.160
2031,-0.270,-0.150
2032,-0.270,-0.140
2033,-0.230,-0.170
2034,-0.260,-0.110
2035,-0.200,-0.190
2036,-0.220,-0.110
2037,-0.250,-0.140
2038,-0.220,-0.180
2039,-0.220,-0.130
2040,-0.260,-0.140
2041,-0.280,-0.160
2042,-0.260,-0.170
2043,-0.240,-0.120
2044,-0.240,-0.160
2045,-0.220,-0.150
2046,-0.240,-0.140
2047,-0.250,-0.130
2048,-0.220,-0.100
2049,-0.250,-0.100
2050,-0.260,-0.130
2051,-0.250,-0.140
2052,-0.170,-0.120
2053,-0.080,-0.060
2054,-0.040,-0.040
2055,0.030,-0.060
2056,0.050,0.040
2057,0.080,0.050
2058,0.100,0.030
2059,0.030,0.050
2060,0.110,-0.070
2061,0.050,0.020
2062,0.020,-0.020
2063,-0.160,-0.030
2064,-0.190,-0.120
2065,-0.220,-0.180
2066,-0.250,-0.130
2067,-0.240,-0.190
2068,-0.280,-0.180
2069,-0.310,-0.180
2070,-0.320,-0.170
2071,-0.310,-0.200
2072,-0.310,-0.220
2073,-0.270,-0.200
2074,-0.330,-0.160
2075,-0.750,-0.150
2076,0.180,0.210
2077,1.480,0.870
2078,2.460,0.540
2079,2.570,-0.080
2080,-0.520,-1.030
2081,-0.110,-1.900
2082,-0.130,-0.980
2083,-0.190,-0.440
2084,-0.210,-0.170
2085,-0.260,-0.110
2086,-0.310,-0.100
2087,-0.310,-0.070
2088,-0.300,-0.020
2089,-0.280,-0.030
2090,-0.360,0.020
2091,-0.300,-0.050
2092,-0.260,0.040
2093,-0.290,0.030
2094,-0.270,0.010
2095,-0.230,0.060
2096,-0.220,0.070
2097,-0.200,0.090
2098,-0.190,0.130
2099,-0.190,0.100
2100,-0.190,0.130
2101,-0.140,0.140
2102,-0.120,0.180
2103,-0.110,0.150
2104,-0.030,0.240
2105,0.020,0.260
2106,0.070,0.310
2107,0.090,0.370
2108,0.150,0.430
2109,0.220,0.440
2110,0.250,0.520
2111,0.340,0.510
2112,0.420,0.610
2113,0.460,0.610
2114,0.540,0.640
2115,0.600,0.690
2116,0.640,0.710
2117,0.650,0.690
2118,0.660,0.720
2119,0.650,0.680
2120,0.590,0.570
2121,0.530,0.510
2122,0.440,0.410
2123,0.320,0.320
2124,0.290,0.190
2125,0.210,0.200
2126,0.100,0.150
2127,0.070,0.020
2128,0.020,0.050
2129,0.000,0.000
2130,-0.040,0.040
2131,-0.040,-0.040
2132,-0.060,-0.010
2133,-0.040,-0.060
2134,-0.040,-0.010
2135,-0.040,-0.070
2136,-0.060,-0.040
2137,-0.050,-0.030
2138,-0.070,-0.010
2139,-0.080,-0.040
2140,-0.100,-0.040
2141,-0.090,-0.050
2142,-0.090,-0.030
2143,-0.070,-0.040
2144,-0.060,-0.040
2145,-0.030,-0.050
2146,-0.040,-0.040
2147,-0.060,-0.010
2148,-0.060,0.000
2149,-0.070,-0.030
2150,-0.060,-0.050
2151,-0.060,-0.020
2152,-0.080,-0.040
2153,-0.060,-0.060
2154,-0.050,-0.050
2155,-0.030,-0.060
2156,-0.070,-0.050
2157,-0.080,-0.040
2158,-0.080,-0.070
2159,-0.110,-0.080
2160,-0.110,-0.110
2161,-0.120,-0.100
2162,-0.140,-0.100
2163,-0.130,-0.120
2164,-0.100,-0.070
2165,-0.110,-0.090
2166,-0.130,-0.090
2167,-0.120,-0.080
2168,-0.140,-0.100
2169,-0.110,-0.080
2170,-0.190,-0.050
2171,-0.140,-0.150
2172,-0.170,-0.080
2173,-0.160,-0.100
2174,-0.170,-0.090
2175,-0.150,-0.130
2176,-0.160,-0.100
2177,-0.180,-0.100
2178,-0.170,-0.090
2179,-0.180,-0.100
2180,-0.210,-0.130
2181,-0.170,-0.130
2182,-0.180,-0.090
2183,-0.200,-0.160
2184,-0.170,-0.130
2185,-0.140,-0.140
2186,-0.170,-0.110
2187,-0.160,-0.100
2188,-0.170,-0.100
2189,-0.180,-0.110
2190,-0.210,-0.110
2191,-0.180,-0.120
2192,-0.180,-0.100
2193,-0.170,-0.140
2194,-0.200,-0.100
2195,-0.140,-0.140
2196,-0.130,-0.070
2197,-0.160,-0.070
2198,-0.150,-0.100
2199,-0.120,-0.080
2200,-0.170,-0.060
2201,-0.140,-0.110
2202,-0.120,-0.080
2203,-0.120,-0.080
2204,-0.120,-0.060
2205,-0.040,-0.110
2206,0.030,-0.030
2207,0.070,0.000
2208,0.100,0.070
2209,0.110,0.100
2210,0.160,0.090
2211,0.130,0.110
2212,0.140,0.090
2213,0.210,0.030
2214,0.170,0.060
2215,0.130,0.020
2216,-0.020,0.060
2217,-0.120,-0.010
2218,-0.160,-0.050
2219,-0.160,-0.050
2220,-0.200,-0.090
2221,-0.220,-0.120
2222,-0.240,-0.100
2223,-0.250,-0.140
2224,-0.240,-0.150
2225,-0.240,-0.140
2226,-0.230,-0.130
2227,-0.240,-0.100
2228,-0.200,-0.130
2229,-0.410,-0.090
2230,-0.590,-0.020
2231,0.540,0.420
2232,1.920,1.080
2233,2.720,0.430
2234,1.860,-0.340
2235,-0.390,-0.950
2236,-0.060,-1.910
2237,-0.060,-0.670
2238,-0.150,-0.240
2239,-0.160,-0.040
2240,-0.230,-0.040
2241,-0.230,0.020
2242,-0.220,0.010
2243,-0.220,0.050
2244,-0.180,0.050
2245,-0.200,0.100
2246,-0.190,0.060
2247,-0.180,0.100
2248,-0.150,0.120
2249,-0.140,0.140
2250,-0.170,0.140
2251,-0.130,0.160
2252,-0.120,0.150
2253,-0.090,0.190
2254,-0.090,0.210
2255,-0.050,0.170
2256,-0.050,0.270
2257,-0.040,0.230
2258,-0.010,0.300
2259,0.020,0.310
2260,0.020,0.340
2261,0.080,0.360
2262,0.130,0.410
2263,0.200,0.480
2264,0.280,0.520
2265,0.370,0.560
2266,0.410,0.620
2267,0.470,0.650
2268,0.520,0.680
2269,0.570,0.730
2270,0.620,0.710
2271,0.630,0.760
2272,0.690,0.730
2273,0.670,0.710
2274,0.630,0.620
2275,0.620,0.500
2276,0.500,0.490
2277,0.420,0.330
2278,0.350,0.280
2279,0.210,0.220
2280,0.130,0.090
2281,0.080,0.040
2282,0.070,0.020
2283,0.020,0.010
2284,0.030,-0.040
2285,0.050,-0.040
2286,0.000,0.000
2287,0.020,-0.070
2288,0.020,-0.010
2289,0.020,-0.050
2290,-0.020,-0.040
2291,-0.030,-0.020
2292,-0.030,-0.050
2293,-0.030,-0.040
2294,-0.030,-0.020
2295,-0.030,-0.030
2296,-0.040,-0.040
2297,-0.020,0.020
2298,-0.040,-0.020
2299,-0.040,0.050
2300,-0.060,0.000
2301,-0.070,-0.010
2302,-0.050,0.010
2303,-0.020,0.000
2304,0.410,-0.070
2305,0.990,-0.010
2306,1.180,0.130
2307,-0.970,0.640
2308,-2.850,1.020
2309,-3.890,1.080
2310,-2.880,0.380
2311,-1.670,-0.380
2312,-0.500,0.450
2313,-0.390,1.260
2314,-0.760,1.210
2315,-0.860,0.310
2316,-0.340,-0.300
2317,0.050,-0.180
2318,-0.030,0.070
2319,0.000,-0.060
2320,-0.050,-0.070
2321,-0.060,-0.130
2322,-0.110,-0.200
2323,-0.120,-0.200
2324,-0.180,-0.230
2325,-0.080,-0.270
2326,0.110,-0.200
2327,0.260,-0.030
2328,0.320,-0.010
2329,0.240,0.050
2330,0.260,-0.090
2331,0.300,-0.090
2332,0.360,-0.150
2333,0.410,-0.090
2334,0.470,-0.110
2335,0.570,-0.090
2336,0.650,-0.100
2337,0.710,-0.010
2338,0.810,-0.110
2339,0.930,-0.070
2340,0.970,0.010
2341,1.110,-0.120
2342,1.200,-0.060
2343,1.310,-0.030
2344,1.380,0.020
2345,1.440,0.020
2346,1.410,0.100
2347,1.330,0.220
2348,1.210,0.210
2349,1.080,0.300
2350,0.880,0.370
2351,0.750,0.310
2352,0.600,0.370
2353,0.480,0.320
2354,0.390,0.270
2355,0.330,0.200
2356,0.250,0.210
2357,0.190,0.130
2358,0.160,0.120
2359,0.170,0.090
2360,0.110,0.090
2361,0.130,0.050
2362,0.130,0.050
2363,0.120,0.040
2364,0.130,0.020
2365,0.160,0.010
2366,0.120,0.090
2367,0.120,0.050
2368,0.120,0.070
2369,0.100,0.060
2370,0.070,0.060
2371,0.060,0.010
2372,0.060,0.020
2373,0.030,0.010
2374,0.040,0.000
2375,0.060,-0.020
2376,0.020,0.010
2377,-0.020,-0.020
2378,-0.010,-0.020
2379,-0.030,-0.010
2380,-0.050,-0.040
2381,-0.080,-0.010
2382,-0.050,-0.110
2383,-0.080,-0.050
2384,-0.050,-0.080
2385,-0.080,-0.040
2386,-0.100,-0.090
2387,-0.100,-0.060
2388,-0.110,-0.050
2389,-0.140,-0.070
2390,-0.150,-0.120
2391,-0.130,-0.070
2392,-0.150,-0.100
2393,-0.150,-0.100
2394,-0.150,-0.120
2395,-0.120,-0.140
2396,-0.140,-0.080
2397,-0.160,-0.100
2398,-0.160,-0.110
2399,-0.180,-0.090
2400,-0.200,-0.080
2401,-0.190,-0.170
2402,-0.180,-0.130
2403,-0.160,-0.120
2404,-0.160,-0.070
2405,-0.160,-0.160
2406,-0.160,-0.120
2407,-0.150,-0.110
2408,-0.190,-0.020
2409,-0.180,-0.160
2410,-0.220,-0.080
2411,-0.200,-0.100
2412,-0.210,-0.060
2413,-0.230,-0.120
2414,-0.220,-0.100
2415,-0.210,-0.090
2416,-0.190,-0.070
2417,-0.220,-0.060
2418,-0.220,-0.040
2419,-0.230,-0.050
2420,-0.250,-0.050
2421,-0.230,-0.070
2422,-0.230,-0.040
2423,-0.210,-0.070
2424,-0.230,-0.030
2425,-0.230,-0.120
2426,-0.220,-0.070
2427,-0.220,-0.080
2428,-0.220,-0.070
2429,-0.210,-0.040
2430,-0.250,-0.070
2431,-0.240,-0.090
2432,-0.220,-0.090
2433,-0.210,-0.090
2434,-0.220,-0.100
2435,-0.180,-0.120
2436,-0.180,-0.120
2437,-0.220,-0.070
2438,-0.190,-0.140
2439,-0.180,-0.120
2440,-0.220,-0.110
2441,-0.220,-0.150
2442,-0.210,-0.130
2443,-0.220,-0.130
2444,-0.200,-0.120
2445,-0.190,-0.130
2446,-0.210,-0.080
2447,-0.190,-0.110
2448,-0.200,-0.080
2449,-0.200,-0.050
2450,-0.230,-0.100
2451,-0.250,-0.140
2452,-0.210,-0.120
2453,-0.230,-0.120
2454,-0.210,-0.100
2455,-0.210,-0.140
2456,-0.210,-0.120
2457,-0.230,-0.090
2458,-0.240,-0.100
2459,-0.200,-0.130
2460,-0.260,-0.100
2461,-0.230,-0.130
2462,-0.200,-0.140
2463,-0.230,-0.110
2464,-0.210,-0.140
2465,-0.180,-0.140
2466,-0.200,-0.100
2467,-0.210,-0.120
2468,-0.200,-0.100
2469,-0.200,-0.130
2470,-0.230,-0.100
2471,-0.250,-0.120
2472,-0.220,-0.160
2473,-0.220,-0.090
2474,-0.190,-0.190
2475,-0.100,-0.160
2476,-0.030,-0.080
2477,-0.010,-0.010
2478,0.050,0.000
2479,0.060,0.070
2480,0.080,0.040
2481,0.090,0.080
2482,0.070,0.040
2483,0.120,-0.060
2484,0.050,0.010
2485,0.000,0.000
2486,-0.170,-0.020
2487,-0.270,-0.030
2488,-0.270,-0.210
2489,-0.290,-0.100
2490,-0.350,-0.180
2491,-0.340,-0.150
2492,-0.350,-0.150
2493,-0.370,-0.160
2494,-0.320,-0.170
2495,-0.310,-0.120
2496,-0.310,-0.180
2497,-0.410,-0.110
2498,-0.690,-0.110
2499,0.310,0.380
2500,1.700,0.970
2501,2.590,0.530
2502,2.040,-0.320
2503,-0.540,-0.990
2504,-0.220,-1.830
2505,-0.100,-0.790
2506,-0.240,-0.300
2507,-0.250,-0.120
2508,-0.310,-0.100
2509,-0.300,-0.070
2510,-0.330,-0.040
2511,-0.310,-0.030
2512,-0.310,0.010
2513,-0.320,-0.060
2514,-0.290,-0.020
2515,-0.290,-0.010
2516,-0.260,0.020
2517,-0.250,0.050
2518,-0.230,0.070
2519,-0.230,0.070
2520,-0.230,0.110
2521,-0.210,0.100
2522,-0.160,0.050
2523,-0.140,0.120
2524,-0.100,0.110
2525,-0.090,0.130
2526,-0.030,0.160
2527,-0.010,0.230
2528,0.010,0.230
2529,0.060,0.270
2530,0.110,0.320
2531,0.150,0.320
2532,0.250,0.420
2533,0.290,0.460
2534,0.360,0.460
2535,0.430,0.520
2536,0.490,0.570
2537,0.530,0.600
2538,0.590,0.610
2539,0.640,0.650
2540,0.610,0.660
2541,0.630,0.590
2542,0.590,0.560
2543,0.550,0.470
2544,0.480,0.410
2545,0.420,0.330
2546,0.340,0.200
2547,0.240,0.180
2548,0.170,0.100
2549,0.100,0.050
2550,-0.030,0.010
2551,-0.030,-0.070
2552,-0.070,-0.070
2553,-0.070,-0.100
2554,-0.110,-0.090
2555,-0.080,-0.130
2556,-0.100,-0.090
2557,-0.150,-0.100
2558,-0.120,-0.130
2559,-0.180,-0.080
2560,-0.210,-0.150
2561,-0.180,-0.120
2562,-0.170,-0.110
2563,-0.190,-0.090
2564,-0.180,-0.130
2565,-0.150,-0.090
2566,-0.160,-0.120
2567,-0.150,-0.100
2568,-0.170,-0.110
2569,-0.100,-0.100
2570,-0.160,0.000
2571,-0.140,-0.140
2572,-0.150,-0.080
2573,-0.140,-0.090
2574,-0.150,-0.070
2575,-0.140,-0.110
2576,-0.120,-0.080
2577,-0.160,-0.060
2578,-0.170,-0.090
2579,-0.200,-0.060
2580,-0.190,-0.090
2581,-0.220,-0.070
2582,-0.250,-0.110
2583,-0.210,-0.110
2584,-0.220,-0.090
2585,-0.220,-0.140
2586,-0.240,-0.130
2587,-0.230,-0.120
2588,-0.220,-0.120
2589,-0.250,-0.100
2590,-0.250,-0.170
2591,-0.280,-0.140
2592,-0.260,-0.190
2593,-0.260,-0.160
2594,-0.240,-0.200
2595,-0.290,-0.140
2596,-0.230,-0.230
2597,-0.260,-0.150
2598,-0.230,-0.210
2599,-0.250,-0.150
2600,-0.250,-0.180
2601,-0.330,-0.170
2602,-0.280,-0.250
2603,-0.280,-0.200
2604,-0.300,-0.200
2605,-0.250,-0.230
2606,-0.270,-0.210
2607,-0.240,-0.220
2608,-0.300,-0.180
2609,-0.270,-0.230
2610,-0.270,-0.180
2611,-0.330,-0.190
2612,-0.290,-0.240
2613,-0.280,-0.210
2614,-0.290,-0.190
2615,-0.270,-0.250
2616,-0.250,-0.220
2617,-0.270,-0.170
2618,-0.240,-0.190
2619,-0.260,-0.160
2620,-0.180,-0.180
2621,-0.110,-0.150
2622,-0.080,-0.050
2623,-0.030,-0.100
2624,-0.030,-0.050
2625,0.070,-0.040
2626,0.090,0.000
2627,0.040,-0.010
2628,0.100,-0.050
2629,0.050,-0.060
2630,0.010,-0.040
2631,-0.220,-0.070
2632,-0.280,-0.180
2633,-0.320,-0.240
2634,-0.340,-0.220
2635,-0.350,-0.250
2636,-0.350,-0.310
2637,-0.380,-0.270
2638,-0.360,-0.260
2639,-0.350,-0.230
2640,-0.350,-0.300
2641,-0.370,-0.260
2642,-0.350,-0.300
2643,-0.330,-0.280
2644,-0.460,-0.250
2645,-0.700,-0.210
2646,0.370,0.280
2647,1.730,0.900
2648,2.620,0.410
2649,2.110,-0.370
2650,-0.610,-1.140
2651,-0.280,-1.980
2652,-0.120,-0.880
2653,-0.240,-0.330
2654,-0.270,-0.230
2655,-0.290,-0.210
2656,-0.270,-0.140
2657,-0.290,-0.110
2658,-0.280,-0.070
2659,-0.290,-0.080
2660,-0.290,-0.030
2661,-0.320,-0.050
2662,-0.290,-0.050
2663,-0.260,-0.020
2664,-0.250,-0.030
2665,-0.240,-0.010
2666,-0.210,-0.020
2667,-0.200,0.050
2668,-0.170,0.040
2669,-0.190,0.090
2670,-0.150,0.020
2671,-0.190,0.100
2672,-0.130,0.100
2673,-0.110,0.160
2674,-0.040,0.140
2675,-0.030,0.230
2676,0.070,0.190
2677,0.120,0.330
2678,0.150,0.330
2679,0.230,0.380
2680,0.310,0.460
2681,0.310,0.500
2682,0.390,0.480
2683,0.460,0.570
2684,0.500,0.530
2685,0.560,0.560
2686,0.600,0.570
2687,0.610,0.530
2688,0.580,0.530
2689,0.550,0.460
2690,0.500,0.380
2691,0.370,0.290
2692,0.290,0.150
2693,0.200,0.070
2694,0.150,0.010
2695,0.110,-0.060
2696,0.060,-0.090
2697,0.030,-0.120
2698,-0.010,-0.100
2699,-0.030,-0.170
2700,-0.030,-0.130
2701,-0.060,-0.130
2702,-0.070,-0.170
2703,-0.070,-0.180
2704,-0.070,-0.150
2705,-0.100,-0.160
2706,-0.050,-0.170
2707,-0.060,-0.140
2708,-0.090,-0.130
2709,-0.110,-0.130
2710,-0.070,-0.140
2711,-0.090,-0.130
2712,-0.080,-0.110
2713,-0.080,-0.150
2714,-0.090,-0.110
2715,-0.090,-0.110
2716,-0.050,-0.150
2717,-0.020,-0.130
2718,-0.060,-0.100
2719,-0.050,-0.100
2720,-0.030,-0.100
2721,-0.060,-0.130
2722,-0.070,-0.120
2723,-0.070,-0.150
2724,-0.080,-0.160
2725,-0.080,-0.150
2726,0.000,-0.180
2727,-0.060,-0.140
2728,-0.090,-0.170
2729,-0.090,-0.190
2730,-0.060,-0.170
2731,-0.110,-0.150
2732,-0.130,-0.230
2733,-0.110,-0.210
2734,-0.110,-0.200
2735,-0.120,-0.190
2736,-0.090,-0.190
2737,-0.120,-0.220
2738,-0.120,-0.190
2739,-0.150,-0.160
2740,-0.110,-0.190
2741,-0.160,-0.170
2742,-0.150,-0.180
2743,-0.060,-0.180
2744,0.380,-0.210
2745,1.030,-0.170
2746,1.510,-0.020
2747,0.320,0.460
2748,-2.490,0.940
2749,-3.830,1.010
2750,-4.090,0.690
2751,-2.720,-0.530
2752,-0.980,-0.370
2753,-0.580,0.650
2754,-0.600,1.200
2755,-0.880,0.640
2756,-0.690,-0.140
2757,-0.250,-0.380
2758,0.010,-0.240
2759,-0.030,-0.070
2760,-0.070,-0.170
2761,-0.160,-0.190
2762,-0.160,-0.270
2763,-0.230,-0.290
2764,-0.150,-0.310
2765,0.030,-0.300
2766,0.170,-0.160
2767,0.200,-0.110
2768,0.170,-0.070
2769,0.190,-0.110
2770,0.200,-0.120
2771,0.200,-0.190
2772,0.240,-0.180
2773,0.300,-0.220
2774,0.360,-0.200
2775,0.440,-0.230
2776,0.540,-0.220
2777,0.610,-0.210
2778,0.720,-0.210
2779,0.790,-0.170
2780,0.900,-0.180
2781,1.000,-0.230
2782,1.080,-0.200
2783,1.190,-0.220
2784,1.280,-0.170
2785,1.360,-0.160
2786,1.410,-0.130
2787,1.400,-0.080
2788,1.330,0.010
2789,1.240,0.090
2790,1.130,0.170
2791,0.920,0.210
2792,0.790,0.250
2793,0.620,0.260
2794,0.480,0.200
2795,0.360,0.190
2796,0.310,0.150
2797,0.190,0.090
2798,0.180,0.030
2799,0.140,0.050
2800,0.150,-0.010
2801,0.090,-0.020
2802,0.120,-0.070
2803,0.100,-0.020
2804,0.120,-0.070
2805,0.110,-0.060
2806,0.140,-0.040
2807,0.130,-0.030
2808,0.120,-0.010
2809,0.130,-0.030
2810,0.130,0.000
2811,0.110,-0.040
2812,0.100,0.010
2813,0.090,-0.050
2814,0.120,-0.060
2815,0.120,-0.020
2816,0.070,-0.050
2817,0.070,-0.050
2818,0.070,-0.040
2819,0.020,-0.020
2820,0.030,-0.060
2821,-0.030,-0.070
2822,-0.010,-0.080
2823,-0.040,-0.080
2824,-0.020,-0.110
2825,-0.020,-0.100
2826,-0.030,-0.110
2827,-0.030,-0.090
2828,-0.070,-0.100
2829,-0.040,-0.120
2830,-0.080,-0.120
2831,-0.100,-0.140
2832,-0.100,-0.140
2833,-0.100,-0.120
2834,-0.100,-0.180
2835,-0.080,-0.120
2836,-0.110,-0.150
2837,-0.080,-0.110
2838,-0.110,-0.100
2839,-0.090,-0.120
2840,-0.160,-0.070
2841,-0.150,-0.150
2842,-0.140,-0.100
2843,-0.160,-0.090
2844,-0.150,-0.170
2845,-0.120,-0.130
2846,-0.130,-0.100
2847,-0.120,-0.100
2848,-0.100,-0.100
2849,-0.120,-0.060
2850,-0.150,-0.120
2851,-0.150,-0.140
2852,-0.150,-0.140
2853,-0.140,-0.150
2854,-0.140,-0.120
2855,-0.100,-0.130
2856,-0.110,-0.100
2857,-0.130,-0.170
2858,-0.120,-0.140
2859,-0.120,-0.130
2860,-0.160,-0.140
2861,-0.140,-0.160
2862,-0.150,-0.140
2863,-0.130,-0.140
2864,-0.140,-0.150
2865,-0.100,-0.160
2866,-0.100,-0.150
2867,-0.090,-0.150
2868,-0.100,-0.130
2869,-0.090,-0.120
2870,-0.110,-0.150
2871,-0.110,-0.140
2872,-0.130,-0.140
2873,-0.090,-0.200
2874,-0.110,-0.170
2875,-0.060,-0.180
2876,-0.070,-0.140
2877,-0.090,-0.150
2878,-0.090,-0.150
2879,-0.080,-0.170
2880,-0.100,-0.140
2881,-0.120,-0.120
2882,-0.100,-0.200
2883,-0.120,-0.150
2884,-0.100,-0.200
2885,-0.060,-0.160
2886,-0.070,-0.180
2887,-0.100,-0.120
2888,-0.090,-0.190
2889,-0.090,-0.150
2890,-0.110,-0.160
2891,-0.090,-0.160
2892,-0.110,-0.140
2893,-0.100,-0.170
2894,-0.120,-0.160
2895,-0.070,-0.160
2896,-0.080,-0.150
2897,-0.080,-0.150
2898,-0.100,-0.130
2899,-0.080,-0.160
2900,-0.090,-0.120
2901,-0.110,-0.130
2902,-0.100,-0.190
2903,-0.070,-0.160
2904,-0.100,-0.120
2905,-0.030,-0.200
2906,-0.060,-0.130
2907,0.010,-0.150
2908,0.100,-0.130
2909,0.130,-0.020
2910,0.090,-0.020
2911,0.120,-0.010
2912,0.200,0.040
2913,0.200,0.050
2914,0.150,0.040
2915,0.230,-0.040
2916,0.190,0.000
2917,0.140,0.020
2918,-0.020,0.020
2919,-0.090,-0.120
2920,-0.180,-0.110
2921,-0.190,-0.190
2922,-0.200,-0.170
2923,-0.220,-0.190
2924,-0.200,-0.210
2925,-0.180,-0.200
2926,-0.180,-0.180
2927,-0.200,-0.170
2928,-0.170,-0.150
2929,-0.220,-0.170
2930,-0.660,-0.150
2931,0.110,0.140
2932,1.250,0.750
2933,2.350,0.680
2934,2.750,0.140
2935,-0.080,-1.060
2936,-0.080,-1.610
2937,-0.010,-1.240
2938,-0.070,-0.420
2939,-0.120,-0.150
2940,-0.170,-0.070
2941,-0.200,-0.040
2942,-0.200,-0.050
2943,-0.160,-0.020
2944,-0.180,0.020
2945,-0.150,-0.020
2946,-0.160,0.040
2947,-0.170,0.070
2948,-0.150,0.060
2949,-0.140,0.080
2950,-0.170,0.080
2951,-0.140,0.080
2952,-0.140,0.130
2953,-0.120,0.130
2954,-0.080,0.140
2955,-0.060,0.180
2956,-0.030,0.160
2957,-0.030,0.230
2958,0.010,0.250
2959,0.030,0.260
2960,0.050,0.290
2961,0.110,0.330
2962,0.180,0.380
2963,0.240,0.410
2964,0.320,0.440
2965,0.390,0.510
2966,0.430,0.540
2967,0.500,0.610
2968,0.570,0.630
2969,0.610,0.710
2970,0.660,0.690
2971,0.660,0.710
2972,0.720,0.680
2973,0.710,0.670
2974,0.720,0.640
2975,0.680,0.570
2976,0.590,0.500
2977,0.510,0.390
2978,0.410,0.330
2979,0.320,0.210
2980,0.230,0.130
2981,0.190,0.080
2982,0.110,0.080
2983,0.100,-0.030
2984,0.100,-0.010
2985,0.070,-0.010
2986,0.050,-0.040
2987,0.050,-0.010
2988,0.030,-0.030
2989,-0.020,-0.020
2990,0.000,-0.040
2991,-0.010,-0.020
2992,-0.010,-0.030
2993,-0.020,-0.040
2994,0.010,-0.030
2995,0.000,-0.050
2996,0.010,-0.010
2997,0.010,-0.010
2998,0.030,0.020
2999,-0.010,0.010
3000,0.000,0.000
3001,0.020,-0.020
3002,0.000,0.040
3003,0.010,-0.010
3004,0.010,0.000
3005,0.040,0.010
3006,0.020,0.020
3007,0.010,0.010
3008,0.010,0.030
3009,-0.050,-0.010
3010,-0.020,-0.020
3011,-0.060,-0.030
3012,-0.040,-0.040
3013,-0.050,-0.040
3014,-0.010,-0.060
3015,-0.040,-0.010
3016,-0.070,-0.080
3017,-0.040,-0.060
3018,-0.070,-0.010
3019,-0.080,-0.080
3020,-0.080,-0.050
3021,-0.120,-0.110
3022,-0.080,-0.110
3023,-0.120,-0.100
3024,-0.080,-0.080
3025,-0.100,-0.110
3026,-0.100,-0.070
3027,-0.090,-0.040
3028,-0.090,-0.110
3029,-0.140,-0.060
3030,-0.110,-0.130
3031,-0.120,-0.090
3032,-0.120,-0.100
3033,-0.110,-0.090
3034,-0.090,-0.120
3035,-0.090,-0.080
3036,-0.100,-0.080
3037,-0.120,-0.080
3038,-0.100,-0.060
3039,-0.130,-0.050
3040,-0.130,-0.060
3041,-0.140,-0.070
3042,-0.110,-0.110
3043,-0.120,-0.100
3044,-0.070,-0.110
3045,-0.100,-0.070
3046,-0.090,-0.110
3047,-0.100,-0.070
3048,-0.080,-0.090
3049,-0.140,-0.060
3050,-0.120,-0.070
3051,-0.130,-0.130
3052,-0.090,-0.100
3053,-0.100,-0.080
3054,-0.070,-0.100
3055,-0.090,-0.070
3056,-0.100,-0.100
3057,-0.090,-0.060
3058,-0.090,-0.090
3059,-0.110,-0.040
3060,-0.120,-0.080
3061,-0.080,-0.100
3062,-0.070,-0.070
3063,0.010,-0.040
3064,0.120,-0.060
3065,0.110,0.060
3066,0.170,0.070
3067,0.200,0.100
3068,0.220,0.140
3069,0.170,0.170
3070,0.190,0.050
3071,0.210,0.060
3072,0.170,0.070
3073,0.080,0.060
3074,-0.030,-0.040
3075,-0.120,-0.040
3076,-0.140,-0.110
3077,-0.130,-0.080
3078,-0.180,-0.080
3079,-0.220,-0.110
3080,-0.200,-0.130
3081,-0.230,-0.120
3082,-0.210,-0.140
3083,-0.200,-0.120
3084,-0.190,-0.160
3085,-0.160,-0.150
3086,-0.260,-0.060
3087,-0.610,-0.150
3088,0.220,0.340
3089,1.440,0.880
3090,2.480,0.570
3091,2.450,-0.030
3092,-0.440,-1.050
3093,-0.070,-1.840
3094,-0.020,-0.960
3095,-0.110,-0.350
3096,-0.130,-0.080
3097,-0.160,-0.060
3098,-0.210,-0.020
3099,-0.220,-0.010
3100,-0.170,0.000
3101,-0.200,0.070
3102,-0.190,0.010
3103,-0.130,0.050
3104,-0.140,0.100
3105,-0.130,0.110
3106,-0.130,0.100
3107,-0.110,0.110
3108,-0.130,0.180
3109,-0.110,0.110
3110,-0.100,0.170
3111,-0.090,0.170
3112,-0.060,0.180
3113,-0.020,0.200
3114,-0.030,0.210
3115,0.030,0.240
3116,0.040,0.330
3117,0.080,0.290
3118,0.110,0.370
3119,0.140,0.390
3120,0.210,0.420
3121,0.270,0.480
3122,0.350,0.550
3123,0.430,0.590
3124,0.460,0.640
3125,0.530,0.650
3126,0.590,0.700
3127,0.630,0.730
3128,0.650,0.760
3129,0.640,0.710
3130,0.640,0.670
3131,0.610,0.600
3132,0.550,0.540
3133,0.450,0.400
3134,0.390,0.300
3135,0.280,0.250
3136,0.190,0.200
3137,0.140,0.090
3138,0.040,0.060
3139,0.010,0.010
3140,0.000,-0.010
3141,-0.020,-0.040
3142,-0.040,-0.040
3143,-0.020,-0.080
3144,-0.030,-0.040
3145,-0.070,-0.050
3146,-0.050,-0.050
3147,-0.080,-0.020
3148,-0.100,-0.030
3149,-0.100,-0.040
3150,-0.120,-0.030
3151,-0.110,-0.040
3152,-0.140,-0.030
3153,-0.100,-0.050
3154,-0.100,-0.040
3155,-0.100,-0.010
3156,-0.110,0.020
3157,-0.110,0.000
3158,-0.110,-0.020
3159,-0.050,0.010
3160,0.590,-0.090
3161,0.980,0.020
3162,0.830,0.240
3163,-2.220,0.810
3164,-3.560,1.080
3165,-3.980,0.760
3166,-2.530,-0.090
3167,-0.890,-0.190
3168,-0.540,0.880
3169,-0.550,1.400
3170,-0.870,0.970
3171,-0.850,0.100
3172,-0.340,-0.350
3173,-0.020,-0.140
3174,-0.060,0.040
3175,-0.040,-0.060
3176,-0.080,0.010
3177,-0.090,-0.200
3178,-0.180,-0.150
3179,-0.200,-0.240
3180,-0.220,-0.250
3181,-0.120,-0.270
3182,0.090,-0.190
3183,0.210,-0.080
3184,0.210,-0.030
3185,0.220,-0.040
3186,0.200,-0.060
3187,0.250,-0.090
3188,0.290,-0.120
3189,0.330,-0.120
3190,0.380,-0.130
3191,0.490,-0.100
3192,0.560,-0.150
3193,0.680,-0.120
3194,0.790,-0.130
3195,0.880,-0.090
3196,0.980,-0.050
3197,1.100,-0.030
3198,1.200,0.010
3199,1.240,0.000
3200,1.330,0.030
3201,1.300,0.160
3202,1.260,0.120
3203,1.160,0.230
3204,1.030,0.290
3205,0.880,0.340
3206,0.730,0.350
3207,0.560,0.370
3208,0.420,0.390
3209,0.310,0.300
3210,0.210,0.260
3211,0.140,0.190
3212,0.100,0.160
3213,0.090,0.100
3214,0.070,0.060
3215,0.040,0.040
3216,0.020,0.040
3217,0.030,0.040
3218,0.020,0.080
3219,0.000,0.050
3220,0.000,0.030
3221,0.020,0.030
3222,0.000,0.060
3223,0.030,0.010
3224,0.020,0.030
3225,-0.010,-0.010
3226,-0.030,0.020
3227,-0.030,0.020
3228,-0.070,0.010
3229,-0.090,-0.010
3230,-0.100,-0.040
3231,-0.110,-0.010
3232,-0.120,-0.010
3233,-0.110,-0.080
3234,-0.120,-0.020
3235,-0.140,-0.040
3236,-0.150,-0.040
3237,-0.170,-0.040
3238,-0.180,-0.030
3239,-0.210,-0.060
3240,-0.250,-0.050
3241,-0.230,-0.110
3242,-0.220,-0.080
3243,-0.240,-0.030
3244,-0.210,-0.130
3245,-0.240,-0.080
3246,-0.230,-0.080
3247,-0.230,-0.070
3248,-0.270,-0.100
3249,-0.240,-0.120
3250,-0.310,-0.050
3251,-0.260,-0.180
3252,-0.250,-0.100
3253,-0.270,-0.120
3254,-0.270,-0.100
3255,-0.250,-0.090
3256,-0.290,-0.090
3257,-0.270,-0.120
3258,-0.280,-0.070
3259,-0.320,-0.130
3260,-0.290,-0.110
3261,-0.320,-0.070
3262,-0.300,-0.130
3263,-0.310,-0.100
3264,-0.280,-0.150
3265,-0.280,-0.090
3266,-0.300,-0.060
3267,-0.310,-0.110
3268,-0.300,-0.120
3269,-0.340,-0.090
3270,-0.310,-0.130
3271,-0.340,-0.100
3272,-0.280,-0.130
3273,-0.320,-0.130
3274,-0.290,-0.080
3275,-0.300,-0.120
3276,-0.310,-0.120
3277,-0.300,-0.130
3278,-0.290,-0.100
3279,-0.330,-0.110
3280,-0.340,-0.130
3281,-0.340,-0.130
3282,-0.330,-0.120
3283,-0.320,-0.130
3284,-0.300,-0.120
3285,-0.310,-0.110
3286,-0.320,-0.120
3287,-0.310,-0.080
3288,-0.310,-0.110
3289,-0.350,-0.100
3290,-0.350,-0.130
3291,-0.330,-0.130
3292,-0.360,-0.090
3293,-0.310,-0.150
3294,-0.310,-0.120
3295,-0.340,-0.120
3296,-0.340,-0.110
3297,-0.300,-0.110
3298,-0.350,-0.050
3299,-0.380,-0.140
3300,-0.360,-0.090
3301,-0.350,-0.140
3302,-0.340,-0.100
3303,-0.310,-0.120
3304,-0.300,-0.110
3305,-0.310,-0.090
3306,-0.320,-0.100
3307,-0.310,-0.090
3308,-0.320,-0.090
3309,-0.360,-0.100
3310,-0.370,-0.080
3311,-0.330,-0.140
3312,-0.340,-0.090
3313,-0.330,-0.110
3314,-0.290,-0.140
3315,-0.340,-0.090
3316,-0.310,-0.120
3317,-0.340,-0.080
3318,-0.320,-0.110
3319,-0.360,-0.110
3320,-0.310,-0.100
3321,-0.330,-0.100
3322,-0.340,-0.110
3323,-0.330,-0.110
3324,-0.300,-0.120
3325,-0.290,-0.090
3326,-0.310,-0.090
3327,-0.260,-0.070
3328,-0.180,-0.070
3329,-0.120,0.020
3330,-0.150,0.030
3331,-0.060,0.040
3332,0.000,0.090
3333,0.000,0.060
3334,0.020,0.040
3335,0.040,0.090
3336,0.030,0.040
3337,-0.010,0.050
3338,-0.190,0.050
3339,-0.310,-0.040
3340,-0.350,-0.120
3341,-0.360,-0.120
3342,-0.370,-0.160
3343,-0.400,-0.160
3344,-0.350,-0.180
3345,-0.410,-0.140
3346,-0.390,-0.170
3347,-0.390,-0.140
3348,-0.380,-0.120
3349,-0.420,-0.150
3350,-0.820,-0.120
3351,0.000,0.190
3352,1.310,0.810
3353,2.400,0.690
3354,2.590,-0.050
3355,-0.530,-1.130
3356,-0.280,-1.650
3357,-0.210,-1.040
3358,-0.230,-0.380
3359,-0.310,-0.130
3360,-0.370,-0.100
3361,-0.360,-0.080
3362,-0.400,-0.030
3363,-0.330,-0.010
3364,-0.350,0.020
3365,-0.360,-0.010
3366,-0.380,0.050
3367,-0.350,0.020
3368,-0.370,0.080
3369,-0.380,0.050
3370,-0.360,0.080
3371,-0.340,0.070
3372,-0.340,0.100
3373,-0.280,0.100
3374,-0.260,0.140
3375,-0.270,0.130
3376,-0.230,0.170
3377,-0.200,0.200
3378,-0.210,0.230
3379,-0.170,0.250
3380,-0.100,0.260
3381,-0.080,0.310
3382,-0.020,0.360
3383,0.050,0.370
3384,0.120,0.460
3385,0.200,0.450
3386,0.270,0.550
3387,0.310,0.580
3388,0.390,0.620
3389,0.420,0.650
3390,0.460,0.660
3391,0.520,0.630
3392,0.520,0.650
3393,0.530,0.640
3394,0.520,0.610
3395,0.470,0.490
3396,0.410,0.450
3397,0.330,0.390
3398,0.270,0.270
3399,0.160,0.210
3400,0.100,0.140
3401,0.020,0.100
3402,-0.040,0.040
3403,-0.040,0.010
3404,-0.040,-0.020
3405,-0.100,0.000
3406,-0.110,0.020
3407,-0.110,-0.030
3408,-0.130,0.020
3409,-0.180,-0.010
3410,-0.170,-0.020
3411,-0.160,0.010
3412,-0.160,-0.010
3413,-0.150,0.000
3414,-0.110,0.020
3415,-0.170,0.020
3416,-0.130,-0.010
3417,-0.130,0.080
3418,-0.110,0.050
3419,-0.170,0.050
3420,-0.110,0.020
3421,-0.130,0.070
3422,-0.100,0.040
3423,-0.090,0.060
3424,-0.050,0.050
3425,-0.100,0.100
3426,-0.090,0.100
3427,-0.090,0.070
3428,-0.100,0.100
3429,-0.140,0.100
3430,-0.110,0.030
3431,-0.140,0.050
3432,-0.140,0.030
3433,-0.110,0.030
3434,-0.120,0.040
3435,-0.130,-0.020
3436,-0.140,0.070
3437,-0.120,-0.010
3438,-0.170,0.030
3439,-0.160,0.010
3440,-0.180,-0.010
3441,-0.160,-0.040
3442,-0.140,-0.030
3443,-0.130,-0.050
3444,-0.150,-0.020
3445,-0.150,-0.110
3446,-0.140,-0.030
3447,-0.150,-0.060
3448,-0.170,-0.040
3449,-0.170,-0.070
3450,-0.160,-0.050
3451,-0.170,-0.090
3452,-0.150,-0.080
3453,-0.110,-0.070
3454,-0.130,-0.090
3455,-0.150,-0.080
3456,-0.120,-0.070
3457,-0.130,-0.060
3458,-0.150,-0.040
3459,-0.170,-0.110
3460,-0.130,-0.080
3461,-0.130,-0.050
3462,-0.130,-0.110
3463,-0.100,-0.100
3464,-0.090,-0.070
3465,-0.090,-0.090
3466,-0.090,-0.070
3467,-0.100,-0.060
3468,-0.120,-0.070
3469,-0.120,-0.120
3470,-0.110,-0.080
3471,-0.120,-0.060
3472,-0.110,-0.100
3473,-0.080,-0.110
3474,-0.090,-0.070
3475,-0.100,-0.070
3476,-0.120,-0.080
3477,-0.100,-0.060
3478,-0.070,-0.060
3479,-0.010,-0.030
3480,0.070,0.000
3481,0.090,0.050
3482,0.140,0.050
3483,0.180,0.110
3484,0.210,0.060
3485,0.200,0.090
3486,0.200,0.080
3487,0.210,0.060
3488,0.140,0.100
3489,0.020,0.040
3490,-0.090,0.030
3491,-0.140,-0.060
3492,-0.160,-0.050
3493,-0.130,-0.110
3494,-0.160,-0.060
3495,-0.160,-0.090
3496,-0.160,-0.050
3497,-0.170,-0.070
3498,-0.220,-0.060
3499,-0.230,-0.140
3500,-0.190,-0.060
3501,-0.180,-0.090
3502,-0.290,-0.070
3503,-0.530,-0.030
3504,0.530,0.420
3505,1.880,1.070
3506,2.710,0.480
3507,1.850,-0.350
3508,-0.520,-1.010
3509,-0.060,-1.850
3510,0.000,-0.650
3511,-0.090,-0.230
3512,-0.100,-0.070
3513,-0.130,-0.060
3514,-0.120,0.000
3515,-0.150,0.040
3516,-0.140,0.030
3517,-0.130,0.060
3518,-0.160,0.060
3519,-0.090,0.070
3520,-0.120,0.110
3521,-0.120,0.070
3522,-0.100,0.090
3523,-0.070,0.100
3524,-0.040,0.120
3525,-0.050,0.160
3526,0.000,0.160
3527,-0.010,0.220
3528,0.000,0.220
3529,-0.010,0.220
3530,0.020,0.240
3531,0.090,0.290
3532,0.090,0.340
3533,0.160,0.310
3534,0.220,0.410
3535,0.240,0.460
3536,0.310,0.440
3537,0.390,0.540
3538,0.400,0.610
3539,0.490,0.590
3540,0.530,0.660
3541,0.580,0.670
3542,0.640,0.690
3543,0.690,0.730
3544,0.730,0.710
3545,0.720,0.720
3546,0.750,0.660
3547,0.680,0.640
3548,0.630,0.550
3549,0.540,0.450
3550,0.490,0.340
3551,0.390,0.260
3552,0.300,0.150
3553,0.230,0.140
3554,0.210,0.030
3555,0.150,0.010
3556,0.120,0.030
3557,0.120,-0.020
3558,0.120,-0.010
3559,0.060,-0.010
3560,0.080,-0.050
3561,0.080,-0.010
3562,0.070,-0.020
3563,0.070,-0.040
3564,0.070,-0.050
3565,0.080,-0.020
3566,0.040,0.010
3567,0.050,-0.030
3568,0.050,0.000
3569,-0.010,0.000
3570,0.040,-0.080
3571,0.010,-0.010
3572,0.020,-0.030
3573,0.060,-0.010
3574,0.070,-0.030
3575,0.060,0.000
3576,0.080,0.000
3577,0.100,-0.010
3578,0.060,0.040
3579,0.060,-0.040
3580,0.050,-0.020
3581,0.040,-0.030
3582,0.040,-0.050
3583,0.050,-0.050
3584,0.060,-0.060
3585,0.040,-0.040
3586,0.010,-0.040
3587,0.020,-0.060
3588,0.040,-0.050
3589,0.180,-0.080
3590,0.880,-0.120
3591,1.190,0.040
3592,0.680,0.220
3593,-2.740,0.790
3594,-3.890,0.860
3595,-4.230,0.570
3596,-2.830,-0.210
3597,-1.320,-0.460
3598,-0.520,0.550
3599,-0.550,1.200
3600,-0.780,0.900
3601,-0.750,0.040
3602,-0.270,-0.380
3603,0.110,-0.250
3604,0.080,-0.040
3605,0.070,-0.070
3606,0.060,-0.130
3607,-0.010,-0.210
3608,-0.040,-0.220
3609,-0.100,-0.290
3610,-0.020,-0.230
3611,0.170,-0.250
3612,0.260,-0.100
3613,0.330,-0.040
3614,0.310,-0.060
3615,0.300,-0.110
3616,0.290,-0.130
3617,0.350,-0.130
3618,0.410,-0.150
3619,0.400,-0.110
3620,0.490,-0.150
3621,0.580,-0.130
3622,0.650,-0.180
3623,0.740,-0.150
3624,0.850,-0.190
3625,0.960,-0.190
3626,1.030,-0.120
3627,1.150,-0.170
3628,1.260,-0.170
3629,1.300,-0.100
3630,1.380,-0.160
3631,1.400,-0.080
3632,1.390,-0.060
3633,1.350,0.030
3634,1.260,0.090
3635,1.120,0.110
3636,0.980,0.250
3637,0.780,0.250
3638,0.680,0.250
3639,0.510,0.250
3640,0.410,0.230
3641,0.300,0.190
3642,0.260,0.050
3643,0.240,0.070
3644,0.230,0.000
3645,0.200,-0.010
3646,0.210,-0.010
3647,0.210,0.000
3648,0.170,-0.010
3649,0.190,-0.030
3650,0.190,0.020
3651,0.190,-0.010
3652,0.200,-0.030
3653,0.200,0.010
3654,0.220,-0.070
3655,0.210,-0.040
3656,0.170,0.000
3657,0.210,0.010
3658,0.200,0.000
3659,0.130,0.020
3660,0.150,-0.050
3661,0.180,0.000
3662,0.090,0.010
3663,0.120,-0.110
3664,0.110,-0.040
3665,0.070,-0.040
3666,0.050,-0.070
3667,0.040,-0.070
3668,0.010,-0.060
3669,0.020,-0.090
3670,-0.060,-0.010
3671,-0.010,-0.120
3672,-0.050,-0.110
3673,-0.060,-0.110
3674,-0.040,-0.150
3675,-0.060,-0.140
3676,-0.070,-0.090
3677,-0.080,-0.120
3678,-0.110,-0.130
3679,-0.130,-0.170
3680,-0.130,-0.140
3681,-0.170,-0.150
3682,-0.140,-0.180
3683,-0.130,-0.190
3684,-0.140,-0.190
3685,-0.130,-0.170
3686,-0.160,-0.180
3687,-0.170,-0.170
3688,-0.170,-0.160
3689,-0.210,-0.190
3690,-0.210,-0.240
3691,-0.160,-0.180
3692,-0.180,-0.210
3693,-0.150,-0.240
3694,-0.140,-0.230
3695,-0.170,-0.180
3696,-0.130,-0.210
3697,-0.190,-0.120
3698,-0.170,-0.230
3699,-0.200,-0.210
3700,-0.190,-0.210
3701,-0.180,-0.220
3702,-0.190,-0.200
3703,-0.170,-0.190
3704,-0.160,-0.220
3705,-0.190,-0.170
3706,-0.150,-0.210
3707,-0.190,-0.120
3708,-0.210,-0.240
3709,-0.250,-0.180
3710,-0.230,-0.170
3711,-0.220,-0.200
3712,-0.230,-0.190
3713,-0.220,-0.200
3714,-0.190,-0.170
3715,-0.230,-0.200
3716,-0.240,-0.190
3717,-0.220,-0.160
3718,-0.240,-0.160
3719,-0.230,-0.200
3720,-0.240,-0.160
3721,-0.230,-0.180
3722,-0.220,-0.150
3723,-0.220,-0.190
3724,-0.190,-0.160
3725,-0.200,-0.170
3726,-0.170,-0.160
3727,-0.210,-0.120
3728,-0.180,-0.200
3729,-0.220,-0.160
3730,-0.210,-0.180
3731,-0.220,-0.190
3732,-0.200,-0.170
3733,-0.210,-0.180
3734,-0.130,-0.210
3735,-0.180,-0.120
3736,-0.180,-0.180
3737,-0.160,-0.180
3738,-0.140,-0.170
3739,-0.220,-0.120
3740,-0.180,-0.240
3741,-0.190,-0.170
3742,-0.170,-0.160
3743,-0.150,-0.190
3744,-0.150,-0.180
3745,-0.160,-0.160
3746,-0.140,-0.150
3747,-0.190,-0.130
3748,-0.180,-0.180
3749,-0.160,-0.200
3750,-0.200,-0.130
3751,-0.200,-0.190
3752,-0.200,-0.210
3753,-0.170,-0.180
3754,-0.150,-0.190
3755,-0.190,-0.170
3756,-0.160,-0.140
3757,-0.080,-0.120
3758,-0.040,-0.070
3759,-0.020,-0.060
3760,0.040,-0.030
3761,0.050,0.050
3762,0.090,-0.010
3763,0.110,0.010
3764,0.100,-0.020
3765,0.160,-0.040
3766,0.070,0.040
3767,0.020,0.010
3768,-0.160,-0.010
3769,-0.230,-0.100
3770,-0.250,-0.150
3771,-0.270,-0.180
3772,-0.250,-0.170
3773,-0.270,-0.170
3774,-0.270,-0.210
3775,-0.300,-0.170
3776,-0.280,-0.180
3777,-0.290,-0.140
3778,-0.270,-0.170
3779,-0.490,-0.120
3780,-0.610,-0.090
3781,0.460,0.370
3782,1.810,1.010
3783,2.610,0.400
3784,2.060,-0.480
3785,-0.550,-1.060
3786,-0.190,-1.860
3787,-0.120,-0.750
3788,-0.260,-0.310
3789,-0.310,-0.190
3790,-0.340,-0.130
3791,-0.330,-0.090
3792,-0.350,-0.050
3793,-0.310,-0.060
3794,-0.310,0.010
3795,-0.320,-0.060
3796,-0.330,0.000
3797,-0.280,0.000
3798,-0.300,0.040
3799,-0.290,0.030
3800,-0.280,0.060
3801,-0.260,0.050
3802,-0.230,0.050
3803,-0.190,0.090
3804,-0.180,0.060
3805,-0.170,0.100
3806,-0.110,0.150
3807,-0.070,0.190
3808,-0.080,0.210
3809,-0.030,0.200
3810,0.020,0.270
3811,0.060,0.300
3812,0.120,0.320
3813,0.160,0.350
3814,0.250,0.400
3815,0.310,0.420
3816,0.340,0.510
3817,0.410,0.540
3818,0.460,0.510
3819,0.500,0.570
3820,0.560,0.580
3821,0.550,0.590
3822,0.590,0.510
3823,0.590,0.540
3824,0.560,0.520
3825,0.520,0.390
3826,0.400,0.340
3827,0.390,0.280
3828,0.270,0.190
3829,0.170,0.110
3830,0.130,-0.010
3831,0.030,-0.010
3832,0.020,-0.070
3833,-0.040,-0.030
3834,-0.020,-0.130
3835,-0.020,-0.100
3836,-0.080,-0.110
3837,-0.120,-0.100
3838,-0.120,-0.180
3839,-0.150,-0.120
3840,-0.140,-0.130
3841,-0.150,-0.150
3842,-0.170,-0.170
3843,-0.160,-0.140
3844,-0.140,-0.150
3845,-0.150,-0.110
3846,-0.170,-0.120
3847,-0.170,-0.110
3848,-0.140,-0.130
3849,-0.170,-0.070
3850,-0.170,-0.110
3851,-0.150,-0.110
3852,-0.150,-0.050
3853,-0.160,-0.130
3854,-0.130,-0.080
3855,-0.150,-0.090
3856,-0.130,-0.070
3857,-0.130,-0.050
3858,-0.190,-0.060
3859,-0.200,-0.100
3860,-0.200,-0.090
3861,-0.240,-0.120
3862,-0.230,-0.110
3863,-0.210,-0.090
3864,-0.220,-0.150
3865,-0.200,-0.160
3866,-0.240,-0.110
3867,-0.240,-0.150
3868,-0.250,-0.110
3869,-0.260,-0.170
3870,-0.250,-0.160
3871,-0.260,-0.170
3872,-0.290,-0.190
3873,-0.280,-0.220
3874,-0.280,-0.210
3875,-0.260,-0.220
3876,-0.240,-0.210
3877,-0.260,-0.120
3878,-0.280,-0.240
3879,-0.280,-0.230
3880,-0.300,-0.200
3881,-0.290,-0.250
3882,-0.280,-0.220
3883,-0.250,-0.230
3884,-0.270,-0.190
3885,-0.240,-0.220
3886,-0.260,-0.210
3887,-0.260,-0.200
3888,-0.280,-0.190
3889,-0.300,-0.230
3890,-0.300,-0.200
3891,-0.280,-0.230
3892,-0.280,-0.180
3893,-0.270,-0.220
3894,-0.270,-0.200
3895,-0.240,-0.230
3896,-0.260,-0.190
3897,-0.240,-0.210
3898,-0.260,-0.160
3899,-0.180,-0.180
3900,-0.130,-0.170
3901,-0.080,-0.110
3902,-0.040,-0.080
3903,-0.010,-0.060
3904,0.070,-0.050
3905,0.050,-0.030
3906,0.060,-0.040
3907,0.090,-0.040
3908,0.090,-0.080
3909,0.020,-0.020
3910,-0.130,-0.110
3911,-0.240,-0.150
3912,-0.280,-0.220
3913,-0.310,-0.190
3914,-0.280,-0.240
3915,-0.280,-0.230
3916,-0.340,-0.160
3917,-0.340,-0.280
3918,-0.340,-0.240
3919,-0.370,-0.210
3920,-0.340,-0.210
3921,-0.340,-0.220
3922,-0.310,-0.210
3923,-0.340,-0.210
3924,-0.730,-0.220
3925,-0.230,0.010
3926,1.000,0.560
3927,2.220,0.890
3928,2.760,0.170
3929,-0.010,-1.070
3930,-0.280,-1.520
3931,-0.180,-1.490
3932,-0.200,-0.530
3933,-0.220,-0.230
3934,-0.260,-0.140
3935,-0.250,-0.140
3936,-0.280,-0.060
3937,-0.250,-0.090
3938,-0.250,-0.040
3939,-0.290,-0.020
3940,-0.260,-0.060
3941,-0.260,-0.010
3942,-0.250,0.030
3943,-0.250,-0.060
3944,-0.210,-0.010
3945,-0.190,0.030
3946,-0.210,0.040
3947,-0.190,0.060
3948,-0.160,0.090
3949,-0.210,0.070
3950,-0.160,0.110
3951,-0.140,0.130
3952,-0.110,0.150
3953,-0.090,0.190
3954,-0.030,0.200
3955,0.030,0.270
3956,0.070,0.270
3957,0.100,0.340
3958,0.200,0.370
3959,0.200,0.450
3960,0.310,0.410
3961,0.360,0.510
3962,0.410,0.530
3963,0.490,0.540
3964,0.560,0.580
3965,0.580,0.620
3966,0.600,0.600
3967,0.610,0.570
3968,0.580,0.540
3969,0.490,0.450
3970,0.440,0.350
3971,0.350,0.270
3972,0.230,0.190
3973,0.180,0.050
3974,0.130,0.030
3975,0.090,-0.030
3976,0.020,-0.040
3977,-0.030,-0.020
3978,-0.030,-0.110
3979,-0.060,-0.080
3980,-0.060,-0.080
3981,-0.070,-0.140
3982,-0.060,-0.100
3983,-0.080,-0.140
3984,-0.050,-0.130
3985,-0.070,-0.140
3986,-0.080,-0.120
3987,-0.110,-0.080
3988,-0.080,-0.160
3989,-0.150,-0.110
3990,-0.120,-0.140
3991,-0.120,-0.080
3992,-0.120,-0.150
3993,-0.110,-0.140
3994,-0.080,-0.130
3995,-0.090,-0.120
3996,-0.090,-0.110
3997,-0.070,-0.090
3998,-0.060,-0.070
3999,-0.130,-0.070
4000,-0.090,-0.140
4001,-0.080,-0.100
4002,-0.090,-0.120
4003,-0.090,-0.100
4004,-0.050,-0.110
4005,-0.060,-0.100
4006,-0.070,-0.120
4007,-0.100,-0.070
4008,-0.090,-0.120
4009,-0.110,-0.110
4010,-0.140,-0.080
4011,-0.140,-0.110
4012,-0.140,-0.100
4013,-0.140,-0.110
4014,-0.120,-0.140
4015,-0.120,-0.140
4016,-0.130,-0.120
4017,-0.130,-0.130
4018,-0.130,-0.100
4019,-0.150,-0.060
4020,-0.170,-0.120
4021,-0.130,-0.130
4022,-0.170,-0.120
4023,-0.160,-0.100
4024,-0.130,-0.130
4025,-0.120,-0.120
4026,-0.150,-0.090
4027,-0.120,-0.100
4028,-0.070,-0.110
4029,0.370,-0.130
4030,1.000,-0.080
4031,1.490,0.030
4032,-0.030,0.510
4033,-2.610,1.020
4034,-3.950,1.140
4035,-3.930,0.670
4036,-2.580,-0.540
4037,-0.840,-0.160
4038,-0.590,0.790
4039,-0.660,1.290
4040,-0.890,0.540
4041,-0.690,-0.190
4042,-0.240,-0.330
4043,-0.020,-0.150
4044,-0.030,-0.040
4045,-0.050,-0.130
4046,-0.090,-0.170
4047,-0.160,-0.190
4048,-0.170,-0.220
4049,-0.110,-0.260
4050,0.030,-0.180
4051,0.150,-0.100
4052,0.230,-0.030
4053,0.180,-0.060
4054,0.210,-0.050
4055,0.250,-0.160
4056,0.260,-0.140
4057,0.310,-0.130
4058,0.360,-0.120
4059,0.430,-0.110
4060,0.430,-0.110
4061,0.530,-0.120
4062,0.590,-0.150
4063,0.720,-0.130
4064,0.820,-0.110
4065,0.910,-0.080
4066,1.010,-0.150
4067,1.120,-0.080
4068,1.210,-0.040
4069,1.310,-0.070
4070,1.370,-0.010
4071,1.420,0.010
4072,1.430,0.060
4073,1.390,0.130
4074,1.330,0.200
4075,1.220,0.260
4076,1.060,0.340
4077,0.910,0.380
4078,0.790,0.410
4079,0.600,0.410
4080,0.450,0.360
4081,0.370,0.270
4082,0.290,0.260
4083,0.230,0.180
4084,0.220,0.140
4085,0.220,0.090
4086,0.150,0.100
4087,0.150,0.050
4088,0.170,0.060
4089,0.150,0.070
4090,0.140,0.040
4091,0.160,0.040
4092,0.150,0.030
4093,0.170,0.020
4094,0.180,0.010
4095,0.180,0.020
4096,0.170,0.020
4097,0.170,0.040
4098,0.180,0.050
4099,0.140,0.030
4100,0.100,0.010
4101,0.090,0.020
4102,0.100,-0.030
4103,0.050,0.020
4104,0.080,-0.020
4105,0.050,-0.060
4106,0.010,-0.020
4107,-0.010,-0.030
4108,-0.020,-0.030
4109,-0.060,-0.070
4110,-0.090,-0.080
4111,-0.060,-0.100
4112,-0.090,-0.050
4113,-0.080,-0.110
4114,-0.060,-0.140
4115,-0.070,-0.090
4116,-0.090,-0.140
4117,-0.100,-0.120
4118,-0.110,-0.090
4119,-0.130,-0.150
4120,-0.130,-0.120
4121,-0.130,-0.130
4122,-0.150,-0.140
4123,-0.150,-0.120
4124,-0.120,-0.160
4125,-0.150,-0.130
4126,-0.120,-0.140
4127,-0.140,-0.110
4128,-0.130,-0.100
4129,-0.160,-0.120
4130,-0.190,-0.130
4131,-0.160,-0.130
4132,-0.170,-0.130
4133,-0.160,-0.140
4134,-0.160,-0.140
4135,-0.150,-0.160
4136,-0.140,-0.110
4137,-0.160,-0.110
4138,-0.150,-0.160
4139,-0.150,-0.140
4140,-0.180,-0.150
4141,-0.180,-0.180
4142,-0.150,-0.180
4143,-0.150,-0.150
4144,-0.160,-0.170
4145,-0.110,-0.190
4146,-0.140,-0.140
4147,-0.140,-0.150
4148,-0.160,-0.160
4149,-0.120,-0.170
4150,-0.160,-0.180
4151,-0.170,-0.170
4152,-0.170,-0.180
4153,-0.150,-0.210
4154,-0.110,-0.200
4155,-0.110,-0.170
4156,-0.140,-0.190
4157,-0.140,-0.180
4158,-0.130,-0.160
4159,-0.130,-0.150
4160,-0.170,-0.140
4161,-0.190,-0.180
4162,-0.170,-0.150
4163,-0.170,-0.150
4164,-0.180,-0.170
4165,-0.130,-0.170
4166,-0.150,-0.110
4167,-0.190,-0.160
4168,-0.170,-0.150
4169,-0.170,-0.130
4170,-0.210,-0.150
4171,-0.150,-0.160
4172,-0.170,-0.120
4173,-0.180,-0.170
4174,-0.170,-0.140
4175,-0.120,-0.150
4176,-0.170,-0.100
4177,-0.170,-0.150
4178,-0.170,-0.120
4179,-0.180,-0.120
4180,-0.190,-0.120
4181,-0.180,-0.140
4182,-0.190,-0.130
4183,-0.170,-0.130
4184,-0.150,-0.120
4185,-0.130,-0.150
4186,-0.120,-0.100
4187,-0.160,-0.090
4188,-0.160,-0.090
4189,-0.140,-0.100
4190,-0.160,-0.080
4191,-0.150,-0.100
4192,-0.170,-0.140
4193,-0.150,-0.110
4194,-0.140,-0.130
4195,-0.150,-0.160
4196,-0.130,-0.110
4197,-0.150,-0.100
4198,-0.150,-0.090
4199,-0.150,-0.100
4200,-0.150,-0.130
4201,-0.150,-0.130
4202,-0.160,-0.120
4203,-0.170,-0.110
4204,-0.120,-0.140
4205,0.010,-0.090
4206,0.050,0.010
4207,0.070,0.000
4208,0.120,0.060
4209,0.120,0.060
4210,0.120,0.090
4211,0.160,0.090
4212,0.140,0.060
4213,0.180,0.040
4214,0.130,0.060
4215,0.120,0.050
4216,-0.060,0.030
4217,-0.110,-0.030
4218,-0.140,-0.050
4219,-0.140,-0.110
4220,-0.200,-0.100
4221,-0.200,-0.130
4222,-0.230,-0.160
4223,-0.210,-0.160
4224,-0.200,-0.140
4225,-0.180,-0.170
4226,-0.180,-0.140
4227,-0.300,-0.090
4228,-0.600,-0.110
4229,0.350,0.360
4230,1.610,0.960
4231,2.540,0.520
4232,2.290,-0.040
4233,-0.410,-0.920
4234,0.010,-1.880
4235,0.010,-0.830
4236,-0.130,-0.300
4237,-0.150,-0.100
4238,-0.200,-0.040
4239,-0.220,-0.020
4240,-0.260,0.000
4241,-0.220,-0.020
4242,-0.230,0.060
4243,-0.210,0.010
4244,-0.190,0.060
4245,-0.180,0.000
4246,-0.170,0.080
4247,-0.170,0.080
4248,-0.170,0.110
4249,-0.160,0.110
4250,-0.150,0.090
4251,-0.100,0.130
4252,-0.120,0.170
4253,-0.090,0.150
4254,-0.040,0.200
4255,-0.020,0.180
4256,0.030,0.250
4257,0.050,0.330
4258,0.080,0.310
4259,0.110,0.400
4260,0.150,0.370
4261,0.190,0.480
4262,0.280,0.490
4263,0.310,0.540
4264,0.390,0.550
4265,0.460,0.630
4266,0.510,0.640
4267,0.550,0.710
4268,0.610,0.730
4269,0.660,0.760
4270,0.660,0.770
4271,0.630,0.730
4272,0.650,0.650
4273,0.560,0.590
4274,0.570,0.470
4275,0.480,0.380
4276,0.360,0.330
4277,0.280,0.210
4278,0.230,0.150
4279,0.130,0.100
4280,0.070,0.050
4281,0.030,-0.010
4282,0.020,-0.020
4283,-0.020,-0.040
4284,0.020,-0.080
4285,-0.030,-0.050
4286,-0.050,-0.100
4287,-0.040,-0.070
4288,-0.060,-0.050
4289,-0.080,-0.130
4290,-0.100,-0.060
4291,-0.110,-0.110
4292,-0.110,-0.080
4293,-0.080,-0.120
4294,-0.070,-0.090
4295,-0.060,-0.070
4296,-0.100,-0.050
4297,-0.050,-0.070
4298,-0.050,-0.030
4299,-0.080,-0.020
4300,-0.090,-0.050
4301,-0.080,-0.030
4302,-0.090,-0.050
4303,-0.080,-0.040
4304,-0.070,-0.040
4305,-0.080,-0.070
4306,-0.080,-0.030
4307,-0.110,-0.040
4308,-0.100,-0.080
4309,-0.140,-0.090
4310,-0.120,-0.060
4311,-0.150,-0.090
4312,-0.170,-0.100
4313,-0.130,-0.140
4314,-0.120,-0.090
4315,-0.120,-0.140
4316,-0.130,-0.070
4317,-0.150,-0.090
4318,-0.130,-0.100
4319,-0.190,-0.070
4320,-0.180,-0.150
4321,-0.160,-0.120
4322,-0.180,-0.130
4323,-0.160,-0.130
4324,-0.140,-0.130
4325,-0.130,-0.150
4326,-0.180,-0.080
4327,-0.150,-0.140
4328,-0.160,-0.120
4329,-0.210,-0.150
4330,-0.190,-0.160
4331,-0.230,-0.140
4332,-0.200,-0.170
4333,-0.170,-0.170
4334,-0.160,-0.130
4335,-0.180,-0.150
4336,-0.180,-0.130
4337,-0.180,-0.160
4338,-0.200,-0.060
4339,-0.220,-0.180
4340,-0.230,-0.130
4341,-0.160,-0.170
4342,-0.180,-0.100
4343,-0.180,-0.210
4344,-0.160,-0.160
4345,-0.170,-0.120
4346,-0.130,-0.150
4347,-0.010,-0.110
4348,0.010,-0.030
4349,0.000,-0.030
4350,0.040,0.010
4351,0.100,0.030
4352,0.080,0.020
4353,0.130,0.040
4354,0.170,0.010
4355,0.130,-0.030
4356,0.100,0.040
4357,-0.080,-0.010
4358,-0.180,-0.080
4359,-0.270,-0.150
4360,-0.270,-0.190
4361,-0.280,-0.200
4362,-0.290,-0.180
4363,-0.270,-0.180
4364,-0.290,-0.190
4365,-0.290,-0.180
4366,-0.340,-0.140
4367,-0.330,-0.240
4368,-0.320,-0.150
4369,-0.330,-0.170
4370,-0.400,-0.160
4371,-0.730,-0.140
4372,0.110,0.240
4373,1.470,0.810
4374,2.570,0.730
4375,2.410,-0.010
4376,-0.520,-1.040
4377,-0.270,-1.730
4378,-0.140,-1.040
4379,-0.290,-0.330
4380,-0.290,-0.170
4381,-0.330,-0.060
4382,-0.350,-0.080
4383,-0.320,-0.080
4384,-0.320,-0.010
4385,-0.310,0.030
4386,-0.300,0.010
4387,-0.320,0.030
4388,-0.310,0.040
4389,-0.320,0.060
4390,-0.290,0.060
4391,-0.300,0.060
4392,-0.290,0.120
4393,-0.270,0.060
4394,-0.230,0.060
4395,-0.220,0.130
4396,-0.240,0.150
4397,-0.210,0.110
4398,-0.160,0.210
4399,-0.190,0.160
4400,-0.130,0.220
4401,-0.120,0.240
4402,-0.040,0.270
4403,0.000,0.300
4404,0.080,0.350
4405,0.140,0.420
4406,0.190,0.470
4407,0.290,0.500
4408,0.330,0.580
4409,0.370,0.560
4410,0.400,0.610
4411,0.450,0.620
4412,0.510,0.610
4413,0.540,0.560
4414,0.530,0.570
4415,0.480,0.520
4416,0.440,0.440
4417,0.340,0.370
4418,0.280,0.230
4419,0.140,0.160
4420,0.070,0.060
4421,0.000,0.020
4422,-0.060,-0.050
4423,-0.080,-0.080
4424,-0.110,-0.100
4425,-0.110,-0.100
4426,-0.160,-0.040
4427,-0.140,-0.160
4428,-0.190,-0.060
4429,-0.180,-0.110
4430,-0.210,-0.120
4431,-0.200,-0.130
4432,-0.180,-0.120
4433,-0.180,-0.160
4434,-0.210,-0.120
4435,-0.180,-0.160
4436,-0.210,-0.040
4437,-0.180,-0.140
4438,-0.240,-0.070
4439,-0.230,-0.100
4440,-0.200,-0.130
4441,-0.230,-0.090
4442,-0.220,-0.070
4443,-0.190,-0.150
4444,-0.200,-0.080
4445,-0.200,-0.120
4446,-0.200,-0.080
4447,-0.170,-0.090
4448,-0.240,-0.060
4449,-0.240,-0.120
4450,-0.240,-0.100
4451,-0.250,-0.120
4452,-0.260,-0.090
4453,-0.260,-0.160
4454,-0.250,-0.160
4455,-0.240,-0.110
4456,-0.250,-0.130
4457,-0.280,-0.130
4458,-0.290,-0.120
4459,-0.310,-0.150
4460,-0.290,-0.160
4461,-0.300,-0.170
4462,-0.300,-0.150
4463,-0.250,-0.190
4464,-0.290,-0.180
4465,-0.280,-0.190
4466,-0.290,-0.130
4467,-0.280,-0.180
4468,-0.330,-0.140
4469,-0.310,-0.180
4470,-0.280,-0.180
4471,-0.300,-0.170
4472,-0.320,-0.180
4473,-0.250,-0.190
4474,-0.240,-0.170
4475,0.130,-0.190
4476,0.840,-0.150
4477,1.310,-0.010
4478,0.450,0.310
4479,-2.110,0.870
4480,-3.620,1.040
4481,-4.020,0.660
4482,-2.660,-0.460
4483,-0.940,-0.380
4484,-0.450,0.540
4485,-0.350,1.140
4486,-0.740,1.050
4487,-0.580,0.300
4488,-0.300,-0.050
4489,0.130,-0.160
4490,0.040,0.140
4491,0.100,-0.030
4492,0.130,-0.030
4493,0.130,-0.070
4494,0.070,-0.110
4495,-0.130,-0.070
4496,-0.130,-0.190
4497,-0.090,-0.210
4498,-0.100,-0.230
4499,-0.080,-0.190
4500,-0.080,-0.260
4501,-0.030,-0.230
4502,0.000,-0.230
4503,0.080,-0.240
4504,0.140,-0.250
4505,0.200,-0.210
4506,0.260,-0.150
4507,0.360,-0.180
4508,0.420,-0.220
4509,0.530,-0.200
4510,0.660,-0.160
4511,0.760,-0.140
4512,0.880,-0.120
4513,1.040,-0.150
4514,1.140,-0.120
4515,1.210,-0.060
4516,1.310,-0.020
4517,1.370,-0.010
4518,1.370,0.060
4519,1.290,0.100
4520,1.180,0.160
4521,1.050,0.220
4522,0.890,0.230
4523,0.740,0.290
4524,0.560,0.280
4525,0.400,0.270
4526,0.290,0.230
4527,0.170,0.190
4528,0.050,0.150
4529,-0.020,0.040
4530,-0.040,0.020
4531,-0.070,0.000
4532,-0.060,-0.060
4533,-0.060,-0.050
4534,-0.040,-0.050
4535,-0.080,-0.040
4536,-0.040,-0.040
4537,-0.040,-0.030
4538,-0.060,0.000
4539,-0.050,-0.080
4540,-0.040,-0.030
4541,-0.040,-0.060
4542,-0.020,-0.050
4543,-0.010,-0.050
4544,-0.010,-0.030
4545,-0.010,-0.030
4546,-0.020,0.000
4547,-0.040,-0.020
4548,-0.080,-0.040
4549,-0.080,-0.050
4550,-0.080,-0.060
4551,-0.100,-0.070
4552,-0.070,-0.080
4553,-0.070,-0.080
4554,-0.080,-0.070
4555,-0.100,-0.070
4556,-0.100,-0.060
4557,-0.110,-0.080
4558,-0.160,-0.070
4559,-0.140,-0.120
4560,-0.140,-0.120
4561,-0.150,-0.090
4562,-0.150,-0.140
4563,-0.120,-0.150
4564,-0.140,-0.120
4565,-0.160,-0.100
4566,-0.170,-0.120
4567,-0.160,-0.070
4568,-0.190,-0.160
4569,-0.190,-0.150
4570,-0.190,-0.120
4571,-0.190,-0.110
4572,-0.150,-0.170
4573,-0.170,-0.130
4574,-0.170,-0.150
4575,-0.170,-0.130
4576,-0.170,-0.120
4577,-0.190,-0.120
4578,-0.200,-0.150
4579,-0.180,-0.130
4580,-0.190,-0.150
4581,-0.180,-0.140
4582,-0.170,-0.120
4583,-0.150,-0.160
4584,-0.150,-0.110
4585,-0.160,-0.120
4586,-0.160,-0.120
4587,-0.190,-0.120
4588,-0.160,-0.140
4589,-0.180,-0.110
4590,-0.160,-0.140
4591,-0.160,-0.130
4592,-0.140,-0.140
4593,-0.140,-0.140
4594,-0.130,-0.120
4595,-0.140,-0.120
4596,-0.140,-0.120
4597,-0.160,-0.120
4598,-0.170,-0.090
4599,-0.170,-0.180
4600,-0.170,-0.160
4601,-0.150,-0.180
4602,-0.110,-0.180
4603,-0.120,-0.150
4604,-0.130,-0.130
4605,-0.110,-0.140
4606,-0.110,-0.120
4607,-0.150,-0.120
4608,-0.130,-0.150
4609,-0.160,-0.080
4610,-0.130,-0.200
4611,-0.140,-0.140
4612,-0.110,-0.200
4613,-0.140,-0.160
4614,-0.150,-0.150
4615,-0.140,-0.160
4616,-0.150,-0.130
4617,-0.190,-0.160
4618,-0.160,-0.150
4619,-0.150,-0.160
4620,-0.160,-0.160
4621,-0.130,-0.170
4622,-0.110,-0.150
4623,-0.050,-0.150
4624,0.030,-0.110
4625,0.050,-0.030
4626,0.090,-0.030
4627,0.100,0.040
4628,0.130,0.040
4629,0.120,0.060
4630,0.110,0.010
4631,0.190,-0.070
4632,0.140,0.000
4633,0.050,-0.010
4634,-0.100,0.010
4635,-0.170,-0.090
4636,-0.190,-0.130
4637,-0.220,-0.150
4638,-0.230,-0.180
4639,-0.260,-0.170
4640,-0.250,-0.200
4641,-0.220,-0.210
4642,-0.240,-0.180
4643,-0.270,-0.180
4644,-0.240,-0.220
4645,-0.230,-0.160
4646,-0.570,-0.130
4647,-0.340,-0.050
4648,0.840,0.450
4649,2.150,1.000
4650,2.770,0.340
4651,0.790,-0.640
4652,-0.220,-1.210
4653,-0.070,-1.790
4654,-0.050,-0.640
4655,-0.140,-0.250
4656,-0.210,-0.140
4657,-0.230,-0.110
4658,-0.230,-0.100
4659,-0.240,-0.060
4660,-0.230,-0.040
4661,-0.190,-0.020
4662,-0.210,0.000
4663,-0.210,-0.020
4664,-0.170,0.030
4665,-0.170,0.040
4666,-0.200,0.070
4667,-0.180,0.050
4668,-0.120,0.090
4669,-0.160,0.140
4670,-0.120,0.100
4671,-0.080,0.140
4672,-0.060,0.150
4673,-0.040,0.200
4674,-0.020,0.260
4675,0.000,0.240
4676,0.000,0.270
4677,0.040,0.340
4678,0.100,0.320
4679,0.150,0.420
4680,0.210,0.460
4681,0.300,0.510
4682,0.340,0.590
4683,0.400,0.620
4684,0.490,0.680
4685,0.520,0.730
4686,0.560,0.730
4687,0.590,0.770
4688,0.620,0.740
4689,0.640,0.750
4690,0.620,0.670
4691,0.610,0.640
4692,0.530,0.510
4693,0.450,0.420
4694,0.390,0.340
4695,0.310,0.240
4696,0.180,0.200
4697,0.160,0.040
4698,0.100,0.040
4699,0.090,-0.010
4700,0.060,-0.030
4701,0.070,-0.060
4702,0.030,-0.060
4703,0.020,-0.080
4704,0.030,-0.050
4705,0.020,-0.070
4706,-0.030,-0.050
4707,-0.030,-0.110
4708,-0.020,-0.070
4709,-0.040,-0.090
4710,-0.040,-0.090
4711,0.000,-0.100
4712,0.010,-0.090
4713,-0.040,-0.030
4714,-0.010,-0.090
4715,-0.020,-0.050
4716,-0.050,-0.050
4717,-0.030,-0.080
4718,0.000,-0.080
4719,-0.030,-0.060
4720,0.000,-0.110
4721,0.030,-0.090
4722,0.010,-0.070
4723,-0.010,-0.050
4724,0.010,-0.050
4725,-0.010,-0.010
4726,-0.040,-0.100
4727,-0.040,-0.100
4728,-0.040,-0.080
4729,-0.040,-0.100
4730,-0.040,-0.090
4731,-0.040,-0.130
4732,-0.070,-0.100
4733,-0.050,-0.110
4734,-0.050,-0.100
4735,-0.080,-0.100
4736,-0.090,-0.090
4737,-0.090,-0.150
4738,-0.080,-0.140
4739,-0.070,-0.150
4740,-0.070,-0.150
4741,-0.060,-0.140
4742,-0.090,-0.150
4743,-0.080,-0.130
4744,-0.090,-0.120
4745,-0.100,-0.150
4746,-0.110,-0.140
4747,-0.110,-0.190
4748,-0.100,-0.150
4749,-0.120,-0.160
4750,-0.090,-0.170
4751,-0.080,-0.160
4752,-0.100,-0.150
4753,-0.110,-0.150
4754,-0.080,-0.140
4755,-0.130,-0.150
4756,-0.120,-0.140
4757,-0.110,-0.150
4758,-0.120,-0.140
4759,-0.110,-0.180
4760,-0.100,-0.110
4761,-0.090,-0.140
4762,-0.090,-0.160
4763,-0.070,-0.130
4764,-0.110,-0.110
4765,-0.090,-0.130
4766,-0.090,-0.130
4767,-0.060,-0.120
4768,0.010,-0.120
4769,0.100,-0.060
4770,0.120,-0.010
4771,0.190,-0.020
4772,0.190,0.060
4773,0.180,0.060
4774,0.230,0.040
4775,0.180,0.060
4776,0.230,-0.020
4777,0.180,0.000
4778,0.120,0.010
4779,-0.040,-0.010
4780,-0.070,-0.150
4781,-0.110,-0.150
4782,-0.130,-0.160
4783,-0.130,-0.180
4784,-0.140,-0.170
4785,-0.170,-0.150
4786,-0.190,-0.180
4787,-0.190,-0.180
4788,-0.180,-0.190
4789,-0.200,-0.160
4790,-0.160,-0.200
4791,-0.130,-0.170
4792,-0.480,-0.150
4793,-0.290,-0.070
4794,0.820,0.450
4795,2.140,1.100
4796,2.780,0.380
4797,0.750,-0.590
4798,-0.210,-1.180
4799,-0.060,-1.800
4800,-0.040,-0.650
4801,-0.120,-0.260
4802,-0.150,-0.130
4803,-0.200,-0.080
4804,-0.160,-0.080
4805,-0.220,0.020
4806,-0.190,-0.030
4807,-0.210,-0.020
4808,-0.150,0.000
4809,-0.170,0.030
4810,-0.110,-0.010
4811,-0.140,0.060
4812,-0.130,0.060
4813,-0.090,0.070
4814,-0.110,0.070
4815,-0.130,0.070
4816,-0.110,0.110
4817,-0.070,0.100
4818,-0.090,0.180
4819,-0.030,0.150
4820,0.010,0.140
4821,0.000,0.230
4822,0.060,0.200
4823,0.090,0.260
4824,0.140,0.360
4825,0.180,0.340
4826,0.220,0.450
4827,0.300,0.510
4828,0.350,0.450
4829,0.430,0.530
4830,0.460,0.580
4831,0.550,0.600
4832,0.580,0.670
4833,0.640,0.680
4834,0.670,0.680
4835,0.600,0.650
4836,0.590,0.560
4837,0.590,0.580
4838,0.490,0.410
4839,0.400,0.340
4840,0.330,0.220
4841,0.240,0.170
4842,0.160,0.120
4843,0.090,0.090
4844,0.040,0.010
4845,-0.010,-0.030
4846,-0.030,-0.060
4847,-0.030,-0.040
4848,-0.050,-0.090
4849,-0.050,-0.080
4850,-0.030,-0.100
4851,-0.060,-0.070
4852,-0.070,-0.070
4853,-0.080,-0.090
4854,-0.100,-0.040
4855,-0.130,-0.090
4856,-0.100,-0.110
4857,-0.120,-0.060
4858,-0.120,-0.150
4859,-0.090,-0.060
4860,-0.090,-0.090
4861,-0.090,-0.050
4862,-0.090,-0.050
4863,-0.070,-0.040
4864,-0.130,-0.030
4865,-0.120,-0.080
4866,-0.110,-0.060
4867,-0.110,-0.050
4868,-0.090,-0.070
4869,-0.060,-0.070
4870,-0.100,-0.040
4871,-0.100,-0.090
4872,-0.120,-0.060
4873,-0.130,-0.020
4874,-0.140,-0.090
4875,-0.170,-0.060
4876,-0.170,-0.050
4877,-0.150,-0.100
4878,-0.170,-0.080
4879,-0.140,-0.070
4880,-0.140,-0.090
4881,-0.170,-0.060
4882,-0.160,-0.070
4883,-0.150,-0.090
4884,-0.200,-0.040
4885,-0.200,-0.070
4886,-0.200,-0.050
4887,-0.170,-0.120
4888,-0.200,-0.040
4889,-0.120,-0.110
4890,0.230,-0.090
4891,0.910,-0.030
4892,1.260,0.090
4893,0.430,0.450
4894,-2.380,0.930
4895,-3.630,0.950
4896,-3.960,0.680
4897,-2.660,-0.160
4898,-0.990,-0.390
4899,-0.510,0.630
4900,-0.480,1.250
4901,-0.820,1.090
4902,-0.770,0.220
4903,-0.410,-0.190
4904,-0.040,-0.240
4905,-0.090,0.040
4906,-0.060,-0.070
4907,-0.010,-0.090
4908,-0.020,-0.090
4909,-0.060,-0.080
4910,0.010,-0.150
4911,0.110,-0.030
4912,0.140,0.020
4913,0.180,0.000
4914,0.100,0.000
4915,0.110,-0.050
4916,0.140,-0.070
4917,0.180,-0.090
4918,0.250,-0.090
4919,0.340,-0.100
4920,0.350,-0.080
4921,0.420,-0.040
4922,0.500,-0.080
4923,0.600,-0.070
4924,0.680,-0.070
4925,0.790,-0.060
4926,0.910,-0.080
4927,1.000,-0.060
4928,1.150,-0.080
4929,1.270,-0.050
4930,1.320,-0.030
4931,1.430,0.010
4932,1.480,0.030
4933,1.430,0.120
4934,1.420,0.160
4935,1.310,0.220
4936,1.140,0.280
4937,0.980,0.330
4938,0.880,0.390
4939,0.710,0.420
4940,0.570,0.440
4941,0.450,0.400
4942,0.350,0.370
4943,0.210,0.310
4944,0.190,0.230
4945,0.180,0.180
4946,0.180,0.150
4947,0.160,0.130
4948,0.150,0.130
4949,0.160,0.130
4950,0.150,0.090
4951,0.130,0.180
4952,0.140,0.060
4953,0.180,0.140
4954,0.140,0.110
4955,0.180,0.130
4956,0.150,0.140
4957,0.200,0.090
4958,0.210,0.120
4959,0.170,0.150
4960,0.150,0.130
4961,0.140,0.130
4962,0.120,0.100
4963,0.080,0.120
4964,0.100,0.080
4965,0.040,0.140
4966,0.040,0.050
4967,0.080,0.070
4968,0.000,0.040
4969,0.040,0.050
4970,0.020,0.060
4971,-0.010,0.040
4972,-0.050,0.020
4973,0.010,0.010
4974,-0.050,0.030
4975,-0.030,-0.030
4976,-0.050,0.010
4977,0.010,-0.020
4978,-0.010,0.000
4979,-0.020,0.020
4980,-0.030,0.030
4981,-0.020,0.010
4982,-0.040,-0.020
4983,-0.070,-0.010
4984,-0.070,-0.010
4985,-0.040,0.020
4986,-0.030,-0.080
4987,-0.050,-0.050
4988,-0.050,-0.060
4989,-0.090,-0.020
4990,-0.060,-0.060
4991,-0.070,-0.020
4992,-0.090,-0.010
4993,-0.120,-0.060
4994,-0.110,-0.080
4995,-0.130,-0.060
4996,-0.130,-0.090
4997,-0.080,-0.080
4998,-0.120,-0.030
4999,-0.130,-0.110
5000,-0.090,-0.060
5001,-0.150,-0.040
5002,-0.110,-0.080
5003,-0.160,-0.060
5004,-0.180,-0.090
5005,-0.160,-0.110
5006,-0.100,-0.110
5007,-0.150,-0.070
5008,-0.140,-0.090
5009,-0.150,-0.020
5010,-0.180,-0.100
5011,-0.150,-0.070
5012,-0.160,-0.070
5013,-0.190,-0.030
5014,-0.180,-0.100
5015,-0.210,-0.030
5016,-0.180,-0.140
5017,-0.140,-0.070
5018,-0.170,-0.060
5019,-0.160,-0.050
5020,-0.200,-0.030
5021,-0.210,-0.100
5022,-0.220,-0.070
5023,-0.200,-0.070
5024,-0.210,-0.080
5025,-0.220,-0.100
5026,-0.190,-0.090
5027,-0.180,-0.050
5028,-0.220,-0.090
5029,-0.190,-0.040
5030,-0.220,-0.070
5031,-0.240,-0.060
5032,-0.230,-0.070
5033,-0.220,-0.070
5034,-0.200,-0.030
5035,-0.240,-0.060
5036,-0.200,-0.100
5037,-0.190,-0.070
5038,-0.210,-0.040
5039,-0.170,-0.060
5040,-0.140,-0.050
5041,-0.060,0.050
5042,-0.040,-0.060
5043,0.000,0.050
5044,0.040,0.060
5045,0.110,0.050
5046,0.130,0.090
5047,0.130,0.080
5048,0.140,0.070
5049,0.050,0.060
5050,0.070,0.010
5051,-0.230,0.050
5052,-0.270,-0.130
5053,-0.260,-0.160
5054,-0.290,-0.180
5055,-0.340,-0.180
5056,-0.280,-0.190
5057,-0.340,-0.170
5058,-0.350,-0.210
5059,-0.370,-0.170
5060,-0.380,-0.200
5061,-0.370,-0.150
5062,-0.410,-0.170
5063,-0.830,-0.120
5064,-0.130,0.010
5065,1.130,0.590
5066,2.300,0.970
5067,2.610,0.300
5068,-0.140,-0.950
5069,-0.370,-1.280
5070,-0.250,-1.540
5071,-0.340,-0.550
5072,-0.320,-0.200
5073,-0.370,-0.130
5074,-0.390,-0.090
5075,-0.380,-0.070
5076,-0.360,0.020
5077,-0.360,-0.060
5078,-0.370,0.010
5079,-0.370,0.010
5080,-0.410,0.060
5081,-0.380,0.020
5082,-0.410,0.090
5083,-0.370,-0.010
5084,-0.380,0.100
5085,-0.330,0.020
5086,-0.310,0.100
5087,-0.320,0.120
5088,-0.290,0.170
5089,-0.240,0.130
5090,-0.300,0.170
5091,-0.280,0.170
5092,-0.190,0.210
5093,-0.190,0.220
5094,-0.120,0.260
5095,-0.050,0.310
5096,0.000,0.300
5097,0.020,0.410
5098,0.110,0.420
5099,0.170,0.470
5100,0.180,0.520
5101,0.280,0.560
5102,0.320,0.600
5103,0.370,0.570
5104,0.410,0.590
5105,0.480,0.580
5106,0.440,0.610
5107,0.460,0.520
5108,0.400,0.450
5109,0.330,0.380
5110,0.210,0.280
5111,0.190,0.210
5112,0.090,0.110
5113,0.020,0.090
5114,-0.050,-0.020
5115,-0.050,-0.020
5116,-0.100,-0.070
5117,-0.130,-0.060
5118,-0.160,-0.050
5119,-0.180,-0.060
5120,-0.210,-0.100
5121,-0.220,-0.110
5122,-0.210,-0.090
5123,-0.230,-0.110
5124,-0.210,-0.140
5125,-0.190,-0.100
5126,-0.220,-0.050
5127,-0.180,-0.120
5128,-0.230,-0.090
5129,-0.140,-0.090
5130,-0.210,-0.060
5131,-0.180,-0.100
5132,-0.200,-0.100
5133,-0.160,-0.110
5134,-0.180,-0.070
5135,-0.110,-0.140
5136,-0.140,-0.070
5137,-0.150,-0.070
5138,-0.160,-0.030
5139,-0.180,-0.130
5140,-0.190,-0.020
5141,-0.200,-0.100
5142,-0.200,-0.110
5143,-0.190,-0.090
5144,-0.220,-0.070
5145,-0.220,-0.110
5146,-0.210,-0.130
5147,-0.230,-0.060
5148,-0.220,-0.130
5149,-0.320,-0.040
5150,-0.290,-0.190
5151,-0.280,-0.140
5152,-0.240,-0.150
5153,-0.280,-0.140
5154,-0.280,-0.180
5155,-0.240,-0.170
5156,-0.280,-0.140
5157,-0.310,-0.150
5158,-0.240,-0.180
5159,-0.290,-0.140
5160,-0.300,-0.140
5161,-0.320,-0.160
5162,-0.290,-0.190
5163,-0.320,-0.160
5164,-0.240,-0.160
5165,-0.280,-0.200
5166,-0.170,-0.160
5167,-0.130,-0.110
5168,-0.100,-0.040
5169,-0.110,-0.090
5170,0.000,-0.070
5171,0.000,-0.010
5172,0.050,-0.010
5173,0.020,-0.030
5174,0.090,-0.020
5175,0.040,-0.090
5176,0.030,-0.010
5177,-0.260,0.050
5178,-0.310,-0.210
5179,-0.340,-0.090
5180,-0.340,-0.230
5181,-0.450,-0.200
5182,-0.360,-0.190
5183,-0.420,-0.160
5184,-0.350,-0.270
5185,-0.390,-0.190
5186,-0.370,-0.150
5187,-0.440,-0.210
5188,-0.390,-0.160
5189,-0.430,-0.190
5190,-0.430,-0.160
5191,-0.850,-0.230
5192,0.110,0.050
5193,1.480,0.560
5194,2.530,0.920
5195,2.520,0.280
5196,-0.880,-1.000
5197,-0.530,-1.420
5198,-0.320,-1.370
5199,-0.380,-0.590
5200,-0.360,-0.260
5201,-0.360,-0.190
5202,-0.390,-0.150
5203,-0.360,-0.150
5204,-0.340,-0.100
5205,-0.340,-0.060
5206,-0.340,-0.060
5207,-0.330,-0.080
5208,-0.360,-0.060
5209,-0.370,-0.050
5210,-0.310,-0.030
5211,-0.310,-0.040
5212,-0.280,-0.070
5213,-0.320,0.020
5214,-0.270,-0.030
5215,-0.260,-0.010
5216,-0.260,0.010
5217,-0.240,0.030
5218,-0.170,0.050
5219,-0.200,0.040
5220,-0.190,0.000
5221,-0.120,0.100
5222,-0.070,0.130
5223,-0.020,0.140
5224,0.030,0.160
5225,0.090,0.260
5226,0.150,0.260
5227,0.240,0.340
5228,0.290,0.380
5229,0.320,0.420
5230,0.400,0.380
5231,0.450,0.400
5232,0.470,0.440
5233,0.520,0.380
5234,0.540,0.350
5235,0.470,0.310
5236,0.430,0.210
5237,0.350,0.110
5238,0.200,0.030
5239,0.110,-0.090
5240,0.070,-0.160
5241,0.010,-0.200
5242,-0.050,-0.260
5243,-0.060,-0.280
5244,-0.120,-0.340
5245,-0.090,-0.310
5246,-0.110,-0.290
5247,-0.100,-0.290
5248,-0.140,-0.290
5249,-0.140,-0.320
5250,-0.180,-0.320
5251,-0.170,-0.330
5252,-0.170,-0.330
5253,-0.190,-0.370
5254,-0.200,-0.360
5255,-0.190,-0.330
5256,-0.170,-0.360
5257,-0.220,-0.300
5258,-0.230,-0.390
5259,-0.250,-0.350
5260,-0.190,-0.330
5261,-0.190,-0.370
5262,-0.180,-0.360
5263,-0.150,-0.310
5264,-0.120,-0.360
5265,-0.160,-0.330
5266,-0.150,-0.290
5267,-0.130,-0.370
5268,-0.110,-0.290
5269,-0.160,-0.340
5270,-0.170,-0.370
5271,-0.130,-0.360
5272,-0.150,-0.310
5273,-0.120,-0.450
5274,-0.170,-0.370
5275,-0.150,-0.360
5276,-0.160,-0.380
5277,-0.190,-0.340
5278,-0.170,-0.440
5279,-0.200,-0.370
5280,-0.210,-0.420
5281,-0.210,-0.420
5282,-0.200,-0.330
5283,-0.170,-0.480
5284,-0.170,-0.400
5285,-0.210,-0.330
5286,-0.190,-0.410
5287,-0.220,-0.380
5288,-0.150,-0.340
5289,-0.100,-0.320
5290,-0.060,-0.330
5291,0.010,-0.230
5292,0.040,-0.260
5293,0.080,-0.240
5294,0.120,-0.210
5295,0.100,-0.220
5296,0.120,-0.180
5297,0.100,-0.220
5298,0.060,-0.160
5299,-0.170,-0.280
5300,-0.220,-0.300
5301,-0.260,-0.380
5302,-0.290,-0.360
5303,-0.290,-0.400
5304,-0.310,-0.390
5305,-0.320,-0.360
5306,-0.330,-0.360
5307,-0.330,-0.310
5308,-0.360,-0.410
5309,-0.340,-0.340
5310,-0.140,-0.400
5311,0.550,-0.370
5312,1.060,-0.240
5313,1.270,-0.140
5314,-1.050,0.460
5315,-1.740,1.050
5316,-1.950,1.280
5317,-2.340,0.370
5318,-1.210,-1.630
5319,-1.380,-1.110
5320,-0.550,-1.280
5321,-0.350,-0.600
5322,-0.270,-0.280
5323,-0.270,-0.260
5324,-0.230,-0.250
5325,-0.220,-0.190
5326,-0.220,-0.160
5327,-0.200,-0.180
5328,-0.230,-0.160
5329,-0.230,-0.180
5330,-0.190,-0.190
5331,-0.160,-0.200
5332,-0.140,-0.120
5333,-0.140,-0.190
5334,-0.120,-0.130
5335,-0.100,-0.100
5336,-0.090,-0.100
5337,-0.040,-0.090
5338,-0.030,-0.070
5339,0.040,-0.100
5340,0.070,0.010
5341,0.130,-0.110
5342,0.200,0.010
5343,0.290,-0.030
5344,0.330,0.060
5345,0.410,0.050
5346,0.530,0.120
5347,0.570,0.080
5348,0.740,0.160
5349,0.790,0.150
5350,0.880,0.210
5351,0.960,0.200
5352,1.050,0.220
5353,1.040,0.240
5354,1.000,0.250
5355,0.970,0.290
5356,0.850,0.300
5357,0.630,0.290
5358,0.500,0.190
5359,0.330,0.130
5360,0.220,0.090
5361,0.090,0.020
5362,0.030,-0.060
5363,-0.040,-0.030
5364,-0.070,-0.130
5365,-0.110,-0.110
5366,-0.120,-0.130
5367,-0.190,-0.170
5368,-0.190,-0.160
5369,-0.200,-0.190
5370,-0.210,-0.170
5371,-0.170,-0.170
5372,-0.180,-0.150
5373,-0.170,-0.150
5374,-0.170,-0.120
5375,-0.190,-0.180
5376,-0.170,-0.130
5377,-0.180,-0.140
5378,-0.150,-0.120
5379,-0.120,-0.150
5380,-0.130,-0.140
5381,-0.060,-0.140
5382,-0.090,-0.130
5383,-0.080,-0.120
5384,-0.080,-0.100
5385,-0.060,-0.080
5386,-0.110,-0.070
5387,-0.170,-0.070
5388,-0.130,-0.190
5389,-0.140,-0.090
5390,-0.150,-0.100
5391,-0.170,-0.170
5392,-0.160,-0.120
5393,-0.180,-0.140
5394,-0.200,-0.100
5395,-0.210,-0.130
5396,-0.240,-0.130
5397,-0.200,-0.120
5398,-0.220,-0.120
5399,-0.240,-0.160
5400,-0.240,-0.180
5401,-0.200,-0.170
5402,-0.230,-0.150
5403,-0.220,-0.190
5404,-0.270,-0.100
5405,-0.190,-0.180
5406,-0.280,-0.150
5407,-0.260,-0.170
5408,-0.250,-0.160
5409,-0.240,-0.150
5410,-0.240,-0.190
5411,-0.210,-0.170
5412,-0.210,-0.170
5413,-0.220,-0.130
5414,-0.230,-0.180
5415,-0.210,-0.160
5416,-0.270,-0.120
5417,-0.220,-0.160
5418,-0.210,-0.160
5419,-0.220,-0.190
5420,-0.220,-0.190
5421,-0.150,-0.150
5422,-0.220,-0.130
5423,-0.220,-0.160
5424,-0.190,-0.180
5425,-0.170,-0.130
5426,-0.130,-0.130
5427,-0.030,-0.080
5428,-0.040,-0.040
5429,0.000,-0.020
5430,0.060,0.030
5431,0.100,0.020
5432,0.080,0.070
5433,0.090,-0.020
5434,0.160,0.000
5435,0.080,0.010
5436,-0.050,-0.030
5437,-0.180,-0.050
5438,-0.250,-0.160
5439,-0.250,-0.180
5440,-0.230,-0.190
5441,-0.240,-0.160
5442,-0.260,-0.220
5443,-0.280,-0.180
5444,-0.230,-0.180
5445,-0.280,-0.140
5446,-0.330,-0.230
5447,-0.270,-0.220
5448,-0.290,-0.170
5449,-0.260,-0.180
5450,-0.380,-0.130
5451,-0.750,-0.200
5452,0.260,0.290
5453,1.560,0.860
5454,2.540,0.730
5455,2.710,0.140
5456,-0.710,-1.110
5457,-0.200,-1.670
5458,-0.160,-1.320
5459,-0.180,-0.510
5460,-0.180,-0.180
5461,-0.220,-0.090
5462,-0.240,-0.030
5463,-0.240,-0.070
5464,-0.220,0.000
5465,-0.220,0.000
5466,-0.250,0.020
5467,-0.250,0.030
5468,-0.240,0.040
5469,-0.210,0.060
5470,-0.230,0.050
5471,-0.170,0.070
5472,-0.180,0.120
5473,-0.160,0.120
5474,-0.120,0.180
5475,-0.140,0.130
5476,-0.140,0.200
5477,-0.110,0.160
5478,-0.090,0.220
5479,-0.060,0.230
5480,-0.030,0.280
5481,0.050,0.300
5482,0.100,0.360
5483,0.130,0.460
5484,0.210,0.450
5485,0.270,0.530
5486,0.300,0.550
5487,0.380,0.580
5488,0.430,0.700
5489,0.510,0.600
5490,0.590,0.690
5491,0.630,0.730
5492,0.660,0.730
5493,0.660,0.720
5494,0.640,0.690
5495,0.610,0.590
5496,0.530,0.530
5497,0.450,0.450
5498,0.350,0.340
5499,0.250,0.220
5500,0.200,0.190
5501,0.160,0.100
5502,0.070,0.110
5503,0.080,0.040
5504,0.030,0.040
5505,-0.010,0.040
5506,-0.010,0.020
5507,-0.020,0.020
5508,0.000,0.020
5509,-0.020,-0.030
5510,0.030,0.000
5511,0.020,0.030
5512,-0.010,0.010
5513,-0.030,0.010
5514,-0.040,0.030
5515,-0.070,-0.010
5516,-0.080,-0.010
5517,-0.080,0.010
5518,-0.050,-0.030
5519,-0.040,0.000
5520,-0.030,-0.030
5521,-0.040,0.020
5522,-0.030,0.000
5523,-0.030,0.050
5524,-0.020,-0.020
5525,-0.050,0.050
5526,-0.030,-0.040
5527,-0.030,-0.010
5528,-0.020,0.000
5529,-0.030,-0.030
5530,0.010,-0.060
5531,-0.040,0.020
5532,-0.020,-0.070
5533,-0.020,-0.010
5534,-0.070,-0.060
5535,-0.060,-0.050
5536,-0.050,-0.070
5537,-0.080,-0.050
5538,-0.050,-0.110
5539,-0.040,-0.070
5540,-0.030,-0.080
5541,-0.050,-0.090
5542,-0.070,-0.040
5543,-0.050,-0.060
5544,-0.030,-0.030
5545,0.060,-0.040
5546,0.750,-0.140
5547,1.320,-0.010
5548,1.650,0.220
5549,-1.170,0.770
5550,-3.010,1.160
5551,-4.020,1.020
5552,-3.300,0.610
5553,-2.070,-0.570
5554,-0.620,0.100
5555,-0.530,1.000
5556,-0.680,1.220
5557,-0.800,0.510
5558,-0.520,-0.170
5559,-0.030,-0.240
5560,0.050,-0.100
5561,0.070,0.040
5562,0.040,-0.050
5563,0.010,-0.110
5564,-0.070,-0.110
5565,-0.130,-0.170
5566,-0.020,-0.260
5567,0.130,-0.160
5568,0.270,-0.070
5569,0.340,0.020
5570,0.250,-0.010
5571,0.290,-0.030
5572,0.270,0.000
5573,0.340,-0.120
5574,0.360,-0.050
5575,0.430,-0.090
5576,0.450,-0.040
5577,0.540,-0.120
5578,0.620,-0.120
5579,0.730,-0.120
5580,0.790,-0.050
5581,0.910,-0.100
5582,1.010,-0.070
5583,1.130,-0.060
5584,1.220,-0.050
5585,1.330,0.000
5586,1.400,-0.020
5587,1.450,-0.020
5588,1.450,0.080
5589,1.420,0.090
5590,1.330,0.160
5591,1.180,0.260
5592,1.010,0.310
5593,0.890,0.380
5594,0.710,0.400
5595,0.550,0.420
5596,0.420,0.330
5597,0.340,0.290
5598,0.270,0.250
5599,0.180,0.180
5600,0.160,0.170
5601,0.140,0.130
5602,0.130,0.140
5603,0.100,0.100
5604,0.110,0.090
5605,0.120,0.030
5606,0.130,0.080
5607,0.110,0.080
5608,0.150,0.040
5609,0.130,0.080
5610,0.150,0.060
5611,0.150,0.100
5612,0.140,0.090
5613,0.140,0.100
5614,0.080,0.140
5615,0.120,0.040
5616,0.100,0.070
5617,0.090,0.060
5618,0.100,0.070
5619,0.090,0.050
5620,0.080,0.090
5621,0.030,0.080
5622,0.030,0.040
5623,-0.010,0.070
5624,0.010,0.040
5625,-0.020,0.020
5626,-0.030,0.020
5627,-0.020,0.020
5628,-0.020,-0.020
5629,-0.030,0.010
5630,-0.010,0.020
5631,-0.030,0.030
5632,-0.040,0.040
5633,-0.090,0.040
5634,-0.090,-0.050
5635,-0.070,0.010
5636,-0.090,-0.030
5637,-0.080,0.000
5638,-0.080,-0.060
5639,-0.060,0.000
5640,-0.100,0.000
5641,-0.090,-0.050
5642,-0.090,-0.010
5643,-0.130,-0.010
5644,-0.160,-0.020
5645,-0.140,-0.050
5646,-0.120,-0.070
5647,-0.120,-0.070
5648,-0.090,-0.080
5649,-0.110,-0.050
5650,-0.120,-0.030
5651,-0.130,-0.050
5652,-0.150,-0.080
5653,-0.140,-0.050
5654,-0.160,-0.050
5655,-0.150,-0.110
5656,-0.140,-0.080
5657,-0.140,-0.130
5658,-0.120,-0.090
5659,-0.140,-0.070
5660,-0.170,-0.040
5661,-0.170,-0.110
5662,-0.160,-0.060
5663,-0.160,-0.090
5664,-0.160,-0.090
5665,-0.190,-0.090
5666,-0.170,-0.100
5667,-0.130,-0.100
5668,-0.130,-0.090
5669,-0.150,-0.080
5670,-0.150,-0.030
5671,-0.140,-0.100
5672,-0.140,-0.050
5673,-0.190,-0.060
5674,-0.160,-0.050
5675,-0.160,-0.040
5676,-0.170,-0.090
5677,-0.120,-0.130
5678,-0.140,-0.070
5679,-0.120,-0.040
5680,-0.140,-0.060
5681,-0.150,-0.060
5682,-0.160,-0.040
5683,-0.160,-0.040
5684,-0.180,-0.090
5685,-0.160,-0.070
5686,-0.140,-0.060
5687,-0.160,-0.040
5688,-0.110,-0.100
5689,-0.130,-0.060
5690,-0.130,-0.060
5691,-0.120,-0.050
5692,-0.150,-0.030
5693,-0.150,-0.090
5694,-0.140,-0.040
5695,-0.140,-0.080
5696,-0.120,-0.100
5697,-0.080,-0.070
5698,-0.080,-0.080
5699,-0.100,-0.090
5700,-0.100,-0.060
5701,-0.080,-0.060
5702,-0.150,-0.020
5703,-0.110,-0.100
5704,-0.110,-0.070
5705,-0.090,-0.060
5706,-0.100,-0.080
5707,-0.060,-0.100
5708,-0.090,-0.070
5709,-0.100,-0.030
5710,-0.070,-0.040
5711,-0.100,-0.030
5712,-0.110,-0.070
5713,-0.110,-0.040
5714,-0.090,-0.080
5715,-0.090,-0.090
5716,-0.090,-0.020
5717,-0.020,-0.100
5718,0.080,-0.040
5719,0.120,0.040
5720,0.140,0.090
5721,0.180,0.100
5722,0.230,0.140
5723,0.220,0.110
5724,0.220,0.140
5725,0.220,0.060
5726,0.260,0.040
5727,0.210,0.090
5728,0.110,0.090
5729,-0.030,0.030
5730,-0.100,-0.070
5731,-0.100,-0.110
5732,-0.160,-0.070
5733,-0.150,-0.120
5734,-0.140,-0.130
5735,-0.130,-0.140
5736,-0.130,-0.040
5737,-0.130,-0.220
5738,-0.120,-0.100
5739,-0.120,-0.130
5740,-0.560,-0.060
5741,-0.050,0.080
5742,1.050,0.660
5743,2.300,0.960
5744,2.870,0.310
5745,0.340,-0.840
5746,-0.090,-1.230
5747,0.020,-1.660
5748,0.020,-0.470
5749,-0.060,-0.100
5750,-0.100,-0.090
5751,-0.180,0.000
5752,-0.150,0.010
5753,-0.150,0.050
5754,-0.110,0.070
5755,-0.110,0.120
5756,-0.110,0.080
5757,-0.100,0.110
5758,-0.060,0.150
5759,-0.110,0.170
5760,-0.060,0.150
5761,-0.090,0.210
5762,-0.060,0.240
5763,-0.080,0.170
5764,-0.080,0.220
5765,-0.030,0.250
5766,0.000,0.270
5767,0.020,0.290
5768,0.050,0.340
5769,0.080,0.380
5770,0.110,0.410
5771,0.110,0.470
5772,0.180,0.500
5773,0.220,0.490
5774,0.300,0.580
5775,0.360,0.630
5776,0.460,0.650
5777,0.510,0.730
5778,0.550,0.790
5779,0.620,0.820
5780,0.680,0.860
5781,0.680,0.850
5782,0.730,0.850
5783,0.740,0.800
5784,0.720,0.780
5785,0.680,0.690
5786,0.660,0.580
5787,0.530,0.500
5788,0.480,0.430
5789,0.360,0.360
5790,0.310,0.250
5791,0.210,0.170
5792,0.180,0.090
5793,0.140,0.100
5794,0.130,0.070
5795,0.120,0.040
5796,0.130,0.030
5797,0.100,0.050
5798,0.080,0.090
5799,0.080,0.050
5800,0.040,0.060
5801,0.030,0.030
5802,0.050,0.040
5803,0.040,0.030
5804,0.030,0.060
5805,0.080,0.000
5806,0.040,0.030
5807,0.080,0.010
5808,0.070,0.040
5809,0.070,0.030
5810,0.060,0.060
5811,0.070,0.020
5812,0.060,0.060
5813,0.090,-0.010
5814,0.070,0.040
5815,0.140,0.020
5816,0.080,0.060
5817,0.080,-0.010
5818,0.100,0.030
5819,0.080,0.020
5820,0.030,0.020
5821,0.060,-0.010
5822,0.040,0.040
5823,0.060,-0.080
5824,0.050,-0.030
5825,0.070,-0.050
5826,0.050,0.000
5827,0.040,-0.020
5828,0.040,-0.020
5829,0.030,-0.020
5830,0.020,-0.010
5831,-0.040,-0.010
5832,0.010,-0.050
5833,0.010,-0.030
5834,0.000,-0.020
5835,0.010,-0.030
5836,0.010,-0.050
5837,-0.040,-0.010
5838,-0.030,0.000
5839,-0.040,-0.030
5840,-0.040,0.000
5841,-0.050,-0.030
5842,-0.060,0.010
5843,-0.070,-0.030
5844,-0.040,-0.060
5845,-0.030,-0.030
5846,-0.060,-0.010
5847,-0.070,0.010
5848,-0.060,-0.030
5849,-0.060,-0.020
5850,-0.060,-0.050
5851,-0.060,-0.030
5852,-0.050,-0.020
5853,-0.050,-0.050
5854,-0.010,-0.030
5855,-0.060,0.000
5856,-0.050,-0.050
5857,-0.040,-0.010
5858,-0.040,0.010
5859,-0.050,-0.020
5860,-0.060,-0.050
5861,-0.060,0.000
5862,-0.050,-0.070
5863,-0.050,-0.020
5864,-0.050,-0.040
5865,-0.020,-0.040
5866,-0.050,-0.040
5867,0.040,-0.040
5868,0.090,0.020
5869,0.120,0.020
5870,0.150,0.100
5871,0.150,0.100
5872,0.210,0.120
5873,0.200,0.150
5874,0.190,0.110
5875,0.230,0.120
5876,0.180,0.100
5877,0.160,0.140
5878,-0.070,0.100
5879,-0.140,0.000
5880,-0.170,-0.070
5881,-0.200,-0.060
5882,-0.190,-0.090
5883,-0.210,-0.090
5884,-0.190,-0.090
5885,-0.230,-0.050
5886,-0.230,-0.120
5887,-0.220,-0.090
5888,-0.240,-0.110
5889,-0.210,-0.090
5890,-0.210,-0.100
5891,-0.330,-0.090
5892,-0.620,-0.040
5893,0.410,0.360
5894,1.750,1.000
5895,2.620,0.620
5896,2.250,-0.020
5897,-0.450,-0.940
5898,-0.120,-1.830
5899,-0.080,-1.000
5900,-0.160,-0.380
5901,-0.150,-0.100
5902,-0.180,-0.050
5903,-0.190,0.020
5904,-0.190,0.030
5905,-0.200,0.040
5906,-0.200,0.120
5907,-0.190,0.070
5908,-0.200,0.100
5909,-0.190,0.100
5910,-0.160,0.100
5911,-0.170,0.110
5912,-0.140,0.130
5913,-0.120,0.180
5914,-0.140,0.120
5915,-0.100,0.170
5916,-0.100,0.220
5917,-0.100,0.260
5918,-0.090,0.200
5919,-0.060,0.270
5920,-0.020,0.320
5921,-0.040,0.300
5922,0.020,0.290
5923,0.060,0.370
5924,0.130,0.410
5925,0.150,0.480
5926,0.200,0.540
5927,0.260,0.570
5928,0.290,0.620
5929,0.360,0.660
5930,0.440,0.690
5931,0.510,0.700
5932,0.550,0.790
5933,0.580,0.720
5934,0.580,0.780
5935,0.560,0.690
5936,0.570,0.650
5937,0.520,0.590
5938,0.360,0.530
5939,0.360,0.320
5940,0.270,0.330
5941,0.140,0.160
5942,0.140,0.130
5943,0.090,0.100
5944,0.060,0.010
5945,0.020,0.040
5946,0.030,0.010
5947,-0.040,0.010
5948,0.000,-0.130
5949,-0.010,0.010
5950,-0.020,-0.030
5951,-0.030,-0.040
5952,-0.010,-0.170
5953,-0.040,-0.040
5954,-0.020,0.010
5955,-0.050,-0.100
5956,-0.070,-0.070
5957,-0.060,-0.070
5958,-0.090,0.050
5959,-0.110,-0.140
5960,-0.070,-0.070
5961,-0.060,-0.040
5962,-0.090,-0.010
5963,-0.070,-0.050
5964,-0.040,-0.070
5965,-0.050,-0.010
5966,-0.130,0.090
5967,-0.100,-0.150
5968,-0.110,0.000
5969,-0.090,-0.160
5970,-0.110,0.030
5971,-0.080,-0.090
5972,-0.090,-0.150
5973,-0.150,-0.030
5974,-0.050,-0.140
5975,0.490,-0.070
5976,0.890,-0.070
5977,1.140,-0.020
5978,-1.630,0.570
5979,-3.370,0.730
5980,-4.370,0.710
5981,-3.560,0.350
5982,-2.370,-0.640
5983,-0.750,-0.140
5984,-0.670,0.880
5985,-0.810,1.260
5986,-1.000,0.570
5987,-0.750,-0.260
5988,-0.310,-0.360
5989,-0.090,-0.260
5990,-0.140,-0.080
5991,-0.100,-0.180
5992,-0.140,-0.200
5993,-0.190,-0.310
5994,-0.250,-0.250
5995,-0.170,-0.310
5996,-0.090,-0.280
5997,0.020,-0.160
5998,0.130,-0.240
5999,0.120,-0.050
6000,0.140,-0.190
6001,0.120,-0.120
6002,0.160,-0.280
6003,0.210,-0.200
6004,0.230,-0.230
6005,0.360,-0.250
6006,0.350,-0.150
6007,0.450,-0.240
6008,0.550,-0.240
6009,0.640,-0.230
6010,0.750,-0.250
6011,0.880,-0.250
6012,0.970,-0.270
6013,1.070,-0.170
6014,1.110,-0.230
6015,1.210,-0.170
6016,1.220,-0.150
6017,1.220,-0.140
6018,1.200,-0.060
6019,1.050,0.060
6020,0.940,0.000
6021,0.780,0.140
6022,0.600,0.210
6023,0.460,0.200
6024,0.360,0.200
6025,0.140,0.260
6026,0.110,0.020
6027,0.040,0.070
6028,-0.040,0.010
6029,-0.050,-0.050
6030,-0.010,-0.040
6031,-0.050,-0.110
6032,-0.090,-0.070
6033,-0.060,-0.090
6034,-0.040,-0.110
6035,-0.060,-0.060
6036,-0.070,-0.020
6037,-0.060,-0.180
6038,-0.070,-0.090
6039,-0.020,-0.120
6040,-0.040,-0.070
6041,-0.020,-0.050
6042,-0.040,-0.080
6043,-0.080,-0.040
6044,-0.060,-0.140
6045,-0.140,-0.070
6046,-0.150,-0.120
6047,-0.160,-0.140
6048,-0.180,-0.100
6049,-0.150,-0.120
6050,-0.190,-0.100
6051,-0.210,-0.110
6052,-0.230,-0.150
6053,-0.250,-0.110
6054,-0.260,-0.120
6055,-0.280,-0.190
6056,-0.300,-0.140
6057,-0.280,-0.190
6058,-0.280,-0.120
6059,-0.290,-0.170
6060,-0.260,-0.170
6061,-0.310,-0.130
6062,-0.300,-0.220
6063,-0.320,-0.140
6064,-0.340,-0.160
6065,-0.330,-0.240
6066,-0.360,-0.120
6067,-0.350,-0.280
6068,-0.330,-0.180
6069,-0.340,-0.180
6070,-0.290,-0.180
6071,-0.370,-0.140
6072,-0.340,-0.230
6073,-0.350,-0.090
6074,-0.390,-0.250
6075,-0.350,-0.250
6076,-0.390,-0.180
6077,-0.360,-0.250
6078,-0.320,-0.210
6079,-0.360,-0.200
6080,-0.310,-0.200
6081,-0.350,-0.170
6082,-0.300,-0.190
6083,-0.360,-0.100
6084,-0.350,-0.270
6085,-0.370,-0.090
6086,-0.340,-0.290
6087,-0.330,-0.180
6088,-0.350,-0.150
6089,-0.340,-0.250
6090,-0.300,-0.130
6091,-0.330,-0.170
6092,-0.320,-0.170
6093,-0.350,-0.160
6094,-0.360,-0.140
6095,-0.340,-0.220
6096,-0.340,-0.140
6097,-0.330,-0.200
6098,-0.350,-0.140
6099,-0.290,-0.270
6100,-0.340,-0.150
6101,-0.290,-0.200
6102,-0.340,-0.160
6103,-0.350,-0.210
6104,-0.350,-0.160
6105,-0.340,-0.200
6106,-0.350,-0.210
6107,-0.340,-0.190
6108,-0.300,-0.240
6109,-0.320,-0.230
6110,-0.320,-0.210
6111,-0.310,-0.120
6112,-0.320,-0.210
6113,-0.340,-0.250
6114,-0.370,-0.160
6115,-0.370,-0.280
6116,-0.340,-0.200
6117,-0.330,-0.210
6118,-0.340,-0.200
6119,-0.310,-0.150
6120,-0.330,-0.230
6121,-0.340,-0.110
6122,-0.330,-0.200
6123,-0.360,-0.250
6124,-0.360,-0.160
6125,-0.340,-0.180
6126,-0.350,-0.160
6127,-0.340,-0.210
6128,-0.340,-0.200
6129,-0.290,-0.210
6130,-0.350,-0.070
6131,-0.330,-0.280
6132,-0.360,-0.160
6133,-0.330,-0.200
6134,-0.330,-0.170
6135,-0.320,-0.190
6136,-0.330,-0.190
6137,-0.290,-0.160
6138,-0.310,-0.200
6139,-0.300,-0.200
6140,-0.300,-0.170
6141,-0.240,-0.160
6142,-0.340,-0.080
6143,-0.260,-0.220
6144,-0.170,-0.220
6145,-0.100,-0.150
6146,-0.090,-0.040
6147,0.000,-0.130
6148,0.030,-0.030
6149,0.040,0.020
6150,0.040,0.000
6151,0.040,0.030
6152,0.020,-0.030
6153,-0.010,-0.070
6154,-0.070,-0.070
6155,-0.270,-0.060
6156,-0.300,-0.220
6157,-0.320,-0.200
6158,-0.310,-0.260
6159,-0.350,-0.180
6160,-0.370,-0.220
6161,-0.390,-0.160
6162,-0.390,-0.240
6163,-0.410,-0.200
6164,-0.400,-0.240
6165,-0.380,-0.210
6166,-0.570,-0.200
6167,-0.550,-0.070
6168,0.510,0.330
6169,1.870,0.980
6170,2.560,0.470
6171,1.300,-0.340
6172,-0.620,-1.170
6173,-0.330,-1.880
6174,-0.230,-0.820
6175,-0.320,-0.320
6176,-0.300,-0.200
6177,-0.360,-0.170
6178,-0.370,-0.070
6179,-0.370,-0.100
6180,-0.340,-0.040
6181,-0.380,-0.020
6182,-0.400,0.030
6183,-0.360,-0.120
6184,-0.330,-0.010
6185,-0.350,0.010
6186,-0.280,0.060
6187,-0.290,-0.010
6188,-0.290,0.090
6189,-0.260,0.050
6190,-0.230,0.070
6191,-0.250,0.130
6192,-0.210,0.090
6193,-0.190,0.170
6194,-0.150,0.100
6195,-0.100,0.180
6196,-0.070,0.260
6197,-0.010,0.230
6198,0.020,0.340
6199,0.070,0.370
6200,0.130,0.360
6201,0.150,0.450
6202,0.260,0.460
6203,0.290,0.500
6204,0.390,0.550
6205,0.430,0.600
6206,0.480,0.600
6207,0.530,0.640
6208,0.570,0.650
6209,0.570,0.670
6210,0.560,0.600
6211,0.510,0.510
6212,0.450,0.500
6213,0.380,0.340
6214,0.290,0.280
6215,0.240,0.170
6216,0.160,0.140
6217,0.070,0.090
6218,0.030,-0.010
6219,0.020,0.040
6220,-0.070,0.020
6221,-0.100,-0.070
6222,-0.080,0.000
6223,-0.080,-0.050
6224,-0.090,-0.070
6225,-0.080,-0.060
6226,-0.090,-0.020
6227,-0.090,-0.090
6228,-0.110,0.000
6229,-0.120,-0.080
6230,-0.130,-0.030
6231,-0.110,-0.060
6232,-0.130,-0.020
6233,-0.090,-0.030
6234,-0.070,-0.030
6235,-0.070,-0.040
6236,-0.040,0.000
6237,-0.030,-0.010
6238,-0.030,0.080
6239,0.000,-0.040
6240,-0.050,0.020
6241,-0.070,0.050
6242,-0.040,-0.020
6243,-0.040,-0.020
6244,-0.030,0.000
6245,-0.060,-0.020
6246,-0.060,-0.070
6247,-0.070,0.010
6248,-0.050,-0.050
6249,-0.090,0.020
6250,-0.110,-0.080
6251,-0.110,-0.060
6252,-0.120,-0.060
6253,-0.110,-0.020
6254,-0.100,-0.110
6255,-0.100,-0.070
6256,-0.090,-0.070
6257,-0.140,0.000
6258,-0.130,-0.040
6259,-0.150,-0.100
6260,-0.130,-0.070
6261,-0.150,-0.080
6262,-0.120,-0.090
6263,-0.150,-0.070
6264,-0.110,-0.070
6265,-0.140,-0.080
6266,-0.150,-0.100
6267,-0.140,-0.090
6268,-0.170,-0.040
6269,-0.190,-0.120
6270,-0.150,-0.060
6271,-0.170,-0.070
6272,-0.140,-0.100
6273,-0.140,-0.080
6274,-0.090,-0.030
6275,-0.130,-0.090
6276,-0.130,-0.100
6277,-0.090,-0.040
6278,-0.120,-0.020
6279,-0.140,-0.030
6280,-0.140,-0.080
6281,-0.140,-0.140
6282,-0.110,-0.060
6283,-0.100,-0.130
6284,-0.060,-0.080
6285,-0.120,-0.050
6286,-0.090,-0.010
6287,-0.100,-0.110
6288,-0.090,-0.090
6289,-0.080,-0.040
6290,-0.130,-0.090
6291,-0.090,-0.160
6292,-0.090,-0.060
6293,-0.080,-0.100
6294,-0.050,-0.150
6295,-0.090,0.010
6296,-0.060,-0.170
6297,-0.070,-0.100
6298,-0.080,-0.060
6299,-0.080,-0.080
6300,-0.070,-0.080
6301,0.010,-0.130
6302,0.100,-0.070
6303,0.160,-0.010
6304,0.190,0.090
6305,0.170,0.110
6306,0.200,0.050
6307,0.220,0.150
6308,0.160,0.100
6309,0.220,0.050
6310,0.200,0.060
6311,0.100,0.100
6312,-0.010,0.040
6313,-0.080,-0.040
6314,-0.120,-0.040
6315,-0.130,-0.050
6316,-0.150,-0.010
6317,-0.180,-0.150
6318,-0.220,-0.090
6319,-0.180,-0.110
6320,-0.200,-0.060
6321,-0.220,-0.170
6322,-0.180,-0.100
6323,-0.170,-0.120
6324,-0.150,-0.150
6325,-0.580,-0.040
6326,-0.090,0.040
6327,1.040,0.600
6328,2.320,0.970
6329,2.870,0.310
6330,0.210,-0.770
6331,-0.060,-1.240
6332,0.040,-1.580
6333,0.020,-0.440
6334,-0.040,-0.150
6335,-0.100,-0.010
6336,-0.090,-0.060
6337,-0.120,0.020
6338,-0.100,0.030
6339,-0.120,0.050
6340,-0.100,0.030
6341,-0.100,0.050
6342,-0.060,0.100
6343,-0.050,0.080
6344,-0.080,0.150
6345,-0.050,0.100
6346,-0.060,0.140
6347,-0.040,0.160
6348,-0.030,0.230
6349,-0.020,0.140
6350,-0.010,0.230
6351,0.000,0.200
6352,0.060,0.220
6353,0.030,0.280
6354,0.080,0.350
6355,0.140,0.340
6356,0.140,0.410
6357,0.160,0.400
6358,0.230,0.460
6359,0.290,0.540
6360,0.340,0.550
6361,0.420,0.600
6362,0.500,0.650
6363,0.500,0.690
6364,0.570,0.730
6365,0.630,0.760
6366,0.660,0.780
6367,0.670,0.800
6368,0.660,0.680
6369,0.640,0.750
6370,0.630,0.560
6371,0.560,0.510
6372,0.460,0.450
6373,0.390,0.310
6374,0.300,0.240
6375,0.220,0.210
6376,0.140,0.100
6377,0.140,0.060
6378,0.050,0.100
6379,0.070,-0.020
6380,0.050,0.020
6381,0.080,-0.020
6382,0.040,0.010
6383,0.040,-0.030
6384,0.050,0.000
6385,-0.010,-0.020
6386,-0.020,0.000
6387,0.000,-0.080
6388,-0.030,-0.030
6389,-0.020,-0.020
6390,0.040,-0.060
6391,-0.010,0.040
6392,-0.010,-0.080
6393,0.020,-0.010
6394,0.000,0.060
6395,0.000,-0.030
6396,-0.020,0.020
6397,0.040,-0.060
6398,0.010,0.100
6399,0.040,-0.070
6400,0.040,0.010
6401,0.040,-0.010
6402,0.060,0.010
6403,0.030,0.100
6404,0.030,-0.080
6405,0.010,-0.010
6406,-0.010,-0.010
6407,-0.010,-0.050
6408,0.000,-0.060
6409,-0.030,-0.050
6410,0.000,-0.080
6411,-0.030,-0.080
6412,-0.040,-0.030
6413,-0.010,-0.080
6414,-0.050,-0.030
6415,-0.030,-0.150
6416,-0.090,-0.010
6417,-0.050,-0.150
6418,-0.050,-0.060
6419,-0.050,-0.150
6420,0.010,-0.090
6421,-0.050,-0.040
6422,-0.060,-0.170
6423,-0.030,-0.090
6424,-0.090,-0.070
6425,-0.090,-0.060
6426,-0.050,-0.150
6427,-0.040,-0.080
6428,-0.060,-0.080
6429,-0.010,-0.150
6430,-0.030,-0.090
6431,-0.040,-0.120
6432,-0.030,-0.090
6433,0.000,-0.080
6434,-0.020,-0.090
6435,-0.060,-0.060
6436,-0.070,-0.130
6437,-0.020,-0.110
6438,-0.010,-0.100
6439,-0.010,-0.070
6440,-0.010,-0.110
6441,-0.020,-0.090
6442,-0.030,-0.070
6443,-0.030,-0.070
6444,-0.060,-0.070
6445,-0.040,-0.060
6446,-0.050,-0.150
6447,-0.010,-0.120
6448,-0.050,-0.020
6449,-0.030,-0.180
6450,-0.050,-0.100
6451,-0.020,-0.080
6452,-0.050,-0.090
6453,-0.050,-0.120
6454,-0.040,-0.080
6455,-0.020,-0.110
6456,-0.060,-0.040
6457,0.030,-0.150
6458,0.070,0.000
6459,0.190,-0.130
6460,0.180,0.060
6461,0.200,0.060
6462,0.240,0.080
6463,0.230,0.100
6464,0.270,0.090
6465,0.220,0.090
6466,0.270,0.020
6467,0.220,0.030
6468,0.130,0.020
6469,-0.010,-0.010
6470,-0.060,-0.100
6471,-0.090,-0.140
6472,-0.080,-0.130
6473,-0.140,-0.110
6474,-0.120,-0.190
6475,-0.120,-0.160
6476,-0.150,-0.160
6477,-0.140,-0.180
6478,-0.110,-0.200
6479,-0.130,-0.090
6480,-0.120,-0.220
6481,-0.180,-0.110
6482,-0.660,-0.090
6483,0.190,0.200
6484,1.530,0.780
6485,2.550,0.740
6486,2.580,0.140
6487,-0.270,-0.910
6488,0.000,-1.760
6489,0.060,-1.120
6490,-0.030,-0.350
6491,-0.040,-0.130
6492,-0.130,-0.060
6493,-0.130,-0.020
6494,-0.160,0.030
6495,-0.150,-0.060
6496,-0.160,0.010
6497,-0.130,0.000
6498,-0.110,0.030
6499,-0.150,0.070
6500,-0.130,0.040
6501,-0.110,0.080
6502,-0.150,0.110
6503,-0.130,0.090
6504,-0.070,0.100
6505,-0.080,0.150
6506,-0.060,0.140
6507,-0.020,0.150
6508,-0.050,0.200
6509,-0.020,0.160
6510,0.020,0.240
6511,0.040,0.260
6512,0.030,0.310
6513,0.090,0.320
6514,0.170,0.380
6515,0.200,0.450
6516,0.280,0.460
6517,0.330,0.530
6518,0.400,0.590
6519,0.470,0.630
6520,0.530,0.680
6521,0.560,0.710
6522,0.590,0.710
6523,0.630,0.730
6524,0.640,0.710
6525,0.690,0.670
6526,0.700,0.700
6527,0.620,0.590
6528,0.540,0.500
6529,0.460,0.380
6530,0.360,0.280
6531,0.260,0.210
6532,0.210,0.120
6533,0.110,0.060
6534,0.110,0.010
6535,0.090,-0.010
6536,0.070,-0.040
6537,0.060,-0.050
6538,0.040,-0.040
6539,0.050,-0.010
6540,0.030,-0.030
6541,0.010,-0.040
6542,0.000,-0.040
6543,-0.040,-0.050
6544,-0.010,-0.040
6545,-0.020,-0.030
6546,-0.010,-0.030
6547,-0.020,-0.020
6548,-0.050,0.020
6549,-0.070,-0.070
6550,-0.050,-0.060
6551,-0.050,0.010
6552,-0.060,-0.050
6553,-0.090,0.000
6554,-0.060,-0.100
6555,-0.050,-0.080
6556,-0.010,-0.070
6557,-0.060,-0.010
6558,-0.040,-0.090
6559,-0.070,-0.010
6560,-0.040,-0.050
6561,-0.120,-0.010
6562,0.070,-0.090
6563,0.760,-0.080
6564,1.090,-0.010
6565,0.400,0.300
6566,-3.070,0.850
6567,-4.250,1.030
6568,-4.290,0.490
6569,-2.790,-0.460
6570,-1.070,-0.590
6571,-0.800,0.560
6572,-0.760,1.120
6573,-1.040,0.860
6574,-0.810,-0.020
6575,-0.410,-0.410
6576,0.000,-0.340
6577,-0.050,0.020
6578,-0.060,-0.080
6579,-0.070,-0.130
6580,-0.120,-0.190
6581,-0.180,-0.210
6582,-0.210,-0.250
6583,-0.150,-0.250
6584,0.010,-0.300
6585,0.210,-0.150
6586,0.220,-0.140
6587,0.170,-0.070
6588,0.240,-0.080
6589,0.220,-0.150
6590,0.230,-0.130
6591,0.340,-0.220
6592,0.360,-0.110
6593,0.400,-0.250
6594,0.510,-0.210
6595,0.640,-0.200
6596,0.700,-0.200
6597,0.820,-0.180
6598,0.940,-0.160
6599,1.060,-0.160
6600,1.120,-0.190
6601,1.250,-0.180
