'sample interval','ECG0','ECG1'
'0.0078125 sec','mV','mV'
0,0.035,0.060
1,0.025,0.045
2,0.020,0.000
3,0.015,0.000
4,0.015,-0.030
5,0.010,-0.020
6,0.010,-0.035
7,0.015,-0.020
8,0.020,-0.020
9,0.025,-0.010
10,0.065,0.000
11,0.170,0.185
12,0.320,0.520
13,0.470,0.930
14,0.565,1.250
15,0.585,1.415
16,0.545,1.360
17,0.460,1.190
18,0.355,0.960
19,0.240,0.690
20,0.125,0.385
21,0.040,0.130
22,-0.005,-0.020
23,-0.045,-0.135
24,-0.080,-0.240
25,-0.095,-0.300
26,-0.095,-0.300
27,-0.095,-0.285
28,-0.095,-0.290
29,-0.095,-0.290
30,-0.105,-0.310
31,-0.105,-0.315
32,-0.100,-0.320
33,-0.100,-0.300
34,-0.105,-0.330
35,-0.110,-0.310
36,-0.115,-0.350
37,-0.115,-0.330
38,-0.120,-0.355
39,-0.130,-0.375
40,-0.130,-0.395
41,-0.130,-0.365
42,-0.130,-0.395
43,-0.120,-0.380
44,-0.105,-0.355
45,-0.080,-0.300
46,-0.045,-0.215
47,-0.010,-0.140
48,0.000,-0.075
49,0.010,-0.025
50,0.015,-0.005
51,0.020,-0.005
52,0.015,0.000
53,0.015,-0.030
54,0.015,-0.010
55,0.015,-0.030
56,0.015,-0.010
57,0.015,-0.035
58,0.015,-0.035
59,0.020,-0.025
60,0.010,-0.015
61,0.010,-0.035
62,0.010,-0.045
63,0.010,-0.045
64,0.010,-0.035
65,0.010,-0.035
66,0.010,-0.040
67,0.015,-0.025
68,0.015,-0.010
69,0.010,-0.010
70,0.010,-0.030
71,0.015,-0.020
72,0.015,-0.015
73,0.015,-0.010
74,0.015,-0.020
75,0.020,-0.020
76,0.020,-0.005
77,0.015,-0.005
78,0.015,-0.010
79,0.020,-0.005
80,0.025,0.000
81,0.030,0.025
82,0.035,0.060
83,0.035,0.035
84,0.030,0.075
85,0.020,0.025
86,0.015,0.020
87,0.010,-0.035
88,0.010,-0.030
89,0.010,-0.040
90,0.010,-0.020
91,0.015,-0.020
92,0.015,-0.010
93,0.015,-0.020
94,0.045,-0.005
95,0.140,0.110
96,0.285,0.440
97,0.440,0.850
98,0.555,1.200
99,0.595,1.415
100,0.560,1.390
101,0.490,1.240
102,0.390,1.030
103,0.270,0.775
104,0.140,0.440
105,0.045,0.155
106,-0.010,-0.020
107,-0.040,-0.140
108,-0.065,-0.220
109,-0.085,-0.265
110,-0.095,-0.295
111,-0.105,-0.315
112,-0.105,-0.320
113,-0.105,-0.325
114,-0.100,-0.305
115,-0.100,-0.315
116,-0.100,-0.295
117,-0.100,-0.320
118,-0.105,-0.315
119,-0.105,-0.335
120,-0.110,-0.330
121,-0.115,-0.345
122,-0.115,-0.350
123,-0.130,-0.370
124,-0.140,-0.405
125,-0.135,-0.410
126,-0.125,-0.395
127,-0.110,-0.355
128,-0.105,-0.335
129,-0.085,-0.305
130,-0.055,-0.250
131,-0.020,-0.155
132,0.000,-0.100
133,0.010,-0.035
134,0.015,-0.025
135,0.020,0.000
136,0.020,-0.015
137,0.015,-0.005
138,0.015,-0.030
139,0.015,-0.020
140,0.015,-0.025
141,0.015,-0.030
142,0.015,-0.035
143,0.015,-0.020
144,0.015,-0.030
145,0.015,-0.030
146,0.010,-0.035
147,0.010,-0.035
148,0.010,-0.045
149,0.005,-0.055
150,0.005,-0.045
151,0.010,-0.035
152,0.010,-0.020
153,0.015,-0.010
154,0.015,-0.010
155,0.015,-0.010
156,0.015,-0.015
157,0.015,-0.005
158,0.015,-0.020
159,0.015,-0.010
160,0.015,-0.020
161,0.015,-0.005
162,0.015,-0.025
163,0.020,0.005
164,0.020,0.010
165,0.020,0.035
166,0.025,0.010
167,0.030,0.065
168,0.030,0.055
169,0.025,0.040
170,0.020,0.000
171,0.020,0.000
172,0.020,-0.015
173,0.015,0.000
174,0.015,-0.020
175,0.015,-0.025
176,0.010,-0.020
177,0.010,-0.025
178,0.030,-0.020
179,0.105,0.050
180,0.245,0.355
181,0.405,0.730
182,0.540,1.155
183,0.600,1.400
184,0.580,1.430
185,0.515,1.290
186,0.420,1.105
187,0.300,0.850
188,0.175,0.550
189,0.070,0.230
190,0.010,0.030
191,-0.030,-0.105
192,-0.070,-0.215
193,-0.085,-0.260
194,-0.095,-0.285
195,-0.095,-0.295
196,-0.100,-0.305
197,-0.095,-0.300
198,-0.095,-0.300
199,-0.095,-0.290
200,-0.100,-0.310
201,-0.105,-0.315
202,-0.100,-0.320
203,-0.100,-0.300
204,-0.105,-0.310
205,-0.110,-0.340
206,-0.115,-0.340
207,-0.120,-0.360
208,-0.130,-0.380
209,-0.130,-0.405
210,-0.125,-0.390
211,-0.110,-0.365
212,-0.100,-0.320
213,-0.080,-0.340
214,-0.050,-0.230
215,-0.025,-0.190
216,0.000,-0.085
217,0.005,-0.055
218,0.015,-0.010
219,0.020,-0.010
220,0.020,0.005
221,0.020,-0.010
222,0.015,-0.010
223,0.015,-0.020
224,0.015,-0.020
225,0.015,-0.020
226,0.015,-0.020
227,0.015,-0.035
228,0.015,-0.040
229,0.020,-0.020
230,0.015,-0.010
231,0.010,-0.025
232,0.005,-0.045
233,0.005,-0.045
234,0.010,-0.050
235,0.010,-0.045
236,0.010,-0.040
237,0.015,-0.025
238,0.015,-0.010
239,0.015,-0.025
240,0.015,-0.035
241,0.015,-0.045
242,0.015,-0.020
243,0.015,-0.025
244,0.015,-0.015
245,0.015,-0.015
246,0.020,0.000
247,0.020,0.000
248,0.020,0.000
249,0.020,0.005
250,0.020,0.030
251,0.025,0.020
252,0.030,0.035
253,0.025,0.025
254,0.020,0.020
255,0.015,-0.010
256,0.010,-0.040
257,0.010,-0.040
258,0.010,-0.045
259,0.010,-0.025
260,0.010,-0.045
261,0.015,-0.020
262,0.020,-0.015
263,0.065,0.005
264,0.170,0.180
265,0.320,0.550
266,0.465,0.930
267,0.555,1.255
268,0.580,1.390
269,0.535,1.335
270,0.460,1.175
271,0.360,0.975
272,0.240,0.700
273,0.125,0.390
274,0.035,0.110
275,-0.015,-0.060
276,-0.055,-0.175
277,-0.080,-0.245
278,-0.090,-0.280
279,-0.100,-0.305
280,-0.100,-0.310
281,-0.095,-0.310
282,-0.095,-0.290
283,-0.095,-0.285
284,-0.105,-0.310
285,-0.105,-0.315
286,-0.105,-0.320
287,-0.105,-0.310
288,-0.105,-0.330
289,-0.105,-0.315
290,-0.110,-0.340
291,-0.120,-0.340
292,-0.135,-0.390
293,-0.130,-0.390
294,-0.125,-0.405
295,-0.120,-0.380
296,-0.110,-0.385
297,-0.090,-0.300
298,-0.065,-0.270
299,-0.045,-0.205
300,-0.015,-0.165
301,0.000,-0.075
302,0.005,-0.045
303,0.010,-0.025
304,0.015,-0.025
305,0.015,-0.025
306,0.015,-0.025
307,0.015,-0.025
308,0.015,-0.025
309,0.015,-0.040
310,0.015,-0.015
311,0.015,-0.025
312,0.015,-0.020
313,0.020,-0.020
314,0.010,-0.005
315,0.010,-0.035
316,0.010,-0.040
317,0.010,-0.045
318,0.010,-0.045
319,0.010,-0.035
320,0.015,-0.015
321,0.015,-0.015
322,0.015,-0.025
323,0.015,-0.025
324,0.015,-0.020
325,0.015,-0.010
326,0.020,-0.010
327,0.020,-0.005
328,0.020,-0.015
329,0.020,-0.005
330,0.020,0.000
331,0.020,0.000
332,0.020,-0.010
333,0.020,0.005
334,0.025,0.005
335,0.030,0.030
336,0.040,0.065
337,0.035,0.060
338,0.030,0.065
339,0.020,0.000
340,0.020,0.000
341,0.020,-0.020
342,0.020,0.000
343,0.015,-0.020
344,0.015,-0.025
345,0.020,-0.020
346,0.015,-0.015
347,0.040,-0.025
348,0.125,0.095
349,0.275,0.415
350,0.425,0.820
351,0.545,1.160
352,0.590,1.390
353,0.560,1.395
354,0.490,1.235
355,0.395,1.045
356,0.280,0.790
357,0.155,0.470
358,0.055,0.160
359,0.000,-0.010
360,-0.035,-0.125
361,-0.070,-0.215
362,-0.090,-0.265
363,-0.095,-0.290
364,-0.100,-0.295
365,-0.100,-0.300
366,-0.100,-0.305
367,-0.100,-0.310
368,-0.100,-0.300
369,-0.100,-0.320
370,-0.105,-0.320
371,-0.105,-0.325
372,-0.105,-0.315
373,-0.105,-0.330
374,-0.115,-0.335
375,-0.125,-0.370
376,-0.135,-0.375
377,-0.135,-0.410
378,-0.130,-0.395
379,-0.125,-0.400
380,-0.115,-0.370
381,-0.100,-0.350
382,-0.080,-0.285
383,-0.055,-0.245
384,-0.025,-0.185
385,0.000,-0.080
386,0.010,-0.025
387,0.015,-0.020
388,0.015,-0.010
389,0.020,-0.005
390,0.015,-0.020
391,0.015,-0.005
392,0.015,-0.025
393,0.015,-0.015
394,0.015,-0.035
395,0.015,-0.020
396,0.015,-0.030
397,0.010,-0.025
398,0.010,-0.045
399,0.010,-0.035
400,0.010,-0.045
401,0.010,-0.035
402,0.015,-0.035
403,0.015,-0.030
404,0.015,-0.005
405,0.010,-0.015
406,0.010,-0.030
407,0.010,-0.035
408,0.010,-0.025
409,0.015,-0.020
410,0.015,-0.015
411,0.020,-0.010
412,0.020,-0.005
413,0.020,-0.005
414,0.020,-0.010
415,0.020,-0.005
416,0.020,-0.015
417,0.020,-0.005
418,0.020,0.000
419,0.025,0.020
420,0.030,0.040
421,0.035,0.060
422,0.030,0.035
423,0.025,0.070
424,0.020,0.000
425,0.010,0.000
426,0.010,-0.035
427,0.010,-0.035
428,0.010,-0.025
429,0.010,-0.020
430,0.010,-0.040
431,0.015,-0.010
432,0.045,-0.010
433,0.130,0.095
434,0.270,0.410
435,0.420,0.800
436,0.540,1.185
437,0.590,1.410
438,0.560,1.395
439,0.490,1.240
440,0.395,1.065
441,0.275,0.790
442,0.150,0.470
443,0.055,0.160
444,0.000,0.005
445,-0.040,-0.115
446,-0.070,-0.215
447,-0.090,-0.275
448,-0.095,-0.295
449,-0.100,-0.300
450,-0.095,-0.305
451,-0.095,-0.290
452,-0.100,-0.305
453,-0.100,-0.310
454,-0.095,-0.310
455,-0.095,-0.290
456,-0.100,-0.305
457,-0.105,-0.310
458,-0.110,-0.335
459,-0.115,-0.345
460,-0.120,-0.365
461,-0.130,-0.385
462,-0.135,-0.395
463,-0.135,-0.400
464,-0.130,-0.400
465,-0.120,-0.395
466,-0.100,-0.350
467,-0.075,-0.300
468,-0.040,-0.205
469,-0.015,-0.160
470,0.000,-0.080
471,0.010,-0.040
472,0.015,0.000
473,0.020,-0.020
474,0.020,-0.020
475,0.020,-0.025
476,0.015,0.000
477,0.010,-0.030
478,0.010,-0.035
479,0.010,-0.040
480,0.015,-0.020
481,0.010,-0.020
482,0.005,-0.035
483,0.005,-0.050
484,0.005,-0.045
485,0.010,-0.035
486,0.015,-0.030
487,0.015,-0.035
488,0.015,-0.035
489,0.020,-0.015
490,0.020,0.000
491,0.015,0.000
492,0.015,-0.015
493,0.010,-0.025
494,0.010,-0.020
495,0.010,-0.025
496,0.015,-0.015
497,0.015,-0.025
498,0.015,-0.010
499,0.015,-0.025
500,0.015,-0.010
501,0.015,-0.020
502,0.020,0.000
503,0.020,0.005
504,0.020,0.035
505,0.030,0.020
506,0.035,0.065
507,0.030,0.050
508,0.025,0.045
509,0.020,0.000
510,0.010,0.000
511,0.005,-0.025
512,0.005,-0.040
513,0.005,-0.045
514,0.005,-0.045
515,0.005,-0.025
516,0.015,-0.025
517,0.055,-0.010
518,0.160,0.140
519,0.310,0.505
520,0.465,0.900
521,0.565,1.270
522,0.595,1.430
523,0.555,1.400
524,0.470,1.210
525,0.360,0.995
526,0.235,0.695
527,0.120,0.390
528,0.040,0.130
529,-0.015,-0.025
530,-0.055,-0.155
531,-0.085,-0.235
532,-0.095,-0.290
533,-0.100,-0.305
534,-0.105,-0.310
535,-0.100,-0.315
536,-0.100,-0.305
537,-0.095,-0.305
538,-0.095,-0.290
539,-0.095,-0.295
540,-0.100,-0.305
541,-0.105,-0.320
542,-0.110,-0.335
543,-0.115,-0.335
544,-0.120,-0.360
545,-0.120,-0.345
546,-0.120,-0.365
547,-0.135,-0.390
548,-0.135,-0.420
549,-0.125,-0.390
550,-0.115,-0.390
551,-0.095,-0.325
552,-0.070,-0.285
553,-0.040,-0.190
554,-0.010,-0.165
555,0.005,-0.050
556,0.015,-0.025
557,0.020,0.000
558,0.020,-0.005
559,0.020,-0.005
560,0.020,-0.015
561,0.015,-0.020
562,0.015,-0.030
563,0.015,-0.025
564,0.015,-0.010
565,0.015,-0.025
566,0.015,-0.025
567,0.010,-0.040
568,0.010,-0.040
569,0.010,-0.030
570,0.010,-0.015
571,0.010,-0.040
572,0.010,-0.035
573,0.015,-0.025
574,0.015,-0.020
575,0.015,-0.025
576,0.015,-0.015
577,0.020,-0.005
578,0.015,-0.015
579,0.015,-0.020
580,0.015,-0.015
581,0.020,-0.005
582,0.015,-0.005
583,0.015,-0.010
584,0.015,-0.025
585,0.015,-0.015
586,0.020,-0.005
587,0.025,0.025
588,0.030,0.035
589,0.030,0.050
590,0.020,0.040
591,0.020,0.020
592,0.020,0.010
593,0.015,0.005
594,0.015,0.000
595,0.015,-0.020
596,0.015,0.000
597,0.015,-0.025
598,0.015,-0.010
599,0.015,-0.040
600,0.025,-0.010
601,0.095,0.010
602,0.225,0.320
603,0.390,0.690
604,0.520,1.120
605,0.590,1.370
606,0.580,1.440
607,0.520,1.295
608,0.430,1.120
609,0.310,0.865
610,0.190,0.565
611,0.085,0.260
612,0.015,0.055
613,-0.030,-0.085
614,-0.065,-0.195
615,-0.085,-0.270
616,-0.095,-0.295
617,-0.100,-0.305
618,-0.100,-0.315
619,-0.100,-0.310
620,-0.100,-0.310
621,-0.105,-0.330
622,-0.105,-0.330
623,-0.105,-0.325
624,-0.100,-0.315
625,-0.100,-0.315
626,-0.105,-0.300
627,-0.115,-0.350
628,-0.120,-0.355
629,-0.125,-0.380
630,-0.125,-0.365
631,-0.130,-0.395
632,-0.140,-0.395
633,-0.135,-0.425
634,-0.110,-0.350
635,-0.085,-0.310
636,-0.065,-0.260
637,-0.035,-0.205
638,-0.005,-0.115
639,0.005,-0.070
640,0.015,-0.025
641,0.015,-0.010
642,0.020,-0.010
643,0.020,-0.010
644,0.020,-0.020
645,0.015,-0.020
646,0.010,-0.035
647,0.010,-0.030
648,0.010,-0.045
649,0.010,-0.035
650,0.005,-0.055
651,0.000,-0.040
652,0.000,-0.065
653,0.000,-0.045
654,0.000,-0.050
655,0.000,-0.040
656,0.000,-0.055
657,0.005,-0.045
658,0.010,-0.040
659,0.015,-0.025
660,0.020,-0.015
661,0.015,-0.010
662,0.015,-0.010
663,0.015,-0.025
664,0.015,-0.025
665,0.010,-0.015
666,0.010,-0.015
667,0.010,-0.025
668,0.015,-0.020
669,0.015,-0.015
670,0.020,-0.005
671,0.025,0.025
672,0.025,0.035
673,0.030,0.050
674,0.025,0.040
675,0.020,0.030
676,0.015,0.000
677,0.005,0.000
678,0.005,-0.045
679,0.005,-0.035
680,0.015,-0.030
681,0.015,-0.015
682,0.015,-0.025
683,0.015,-0.025
684,0.055,-0.030
685,0.165,0.165
686,0.320,0.525
687,0.465,0.945
688,0.565,1.260
689,0.595,1.435
690,0.550,1.370
691,0.455,1.200
692,0.340,0.950
693,0.215,0.635
694,0.100,0.310
695,0.025,0.065
696,-0.010,-0.055
697,-0.050,-0.155
698,-0.080,-0.235
699,-0.095,-0.290
700,-0.100,-0.300
701,-0.100,-0.300
702,-0.100,-0.295
703,-0.095,-0.295
704,-0.095,-0.295
705,-0.095,-0.300
706,-0.100,-0.305
707,-0.100,-0.305
708,-0.100,-0.315
709,-0.100,-0.310
710,-0.105,-0.335
711,-0.115,-0.350
712,-0.120,-0.360
713,-0.120,-0.370
714,-0.130,-0.390
715,-0.135,-0.390
716,-0.130,-0.400
717,-0.115,-0.360
718,-0.090,-0.320
719,-0.065,-0.240
720,-0.045,-0.200
721,-0.020,-0.140
722,0.000,-0.095
723,0.010,-0.050
724,0.020,0.000
725,0.015,-0.015
726,0.015,0.000
727,0.015,-0.025
728,0.015,-0.020
729,0.015,-0.020
730,0.015,0.000
731,0.015,-0.030
732,0.015,-0.020
733,0.020,0.000
734,0.010,0.000
735,0.005,-0.025
736,0.005,-0.030
737,0.005,-0.040
738,0.010,-0.015
739,0.010,-0.025
740,0.010,-0.030
741,0.010,-0.025
742,0.010,-0.030
743,0.010,-0.025
744,0.010,-0.020
745,0.015,-0.010
746,0.015,-0.015
747,0.015,-0.020
748,0.015,-0.020
749,0.015,-0.010
750,0.015,-0.010
751,0.015,-0.010
752,0.015,-0.005
753,0.015,-0.015
754,0.020,0.000
755,0.025,0.015
756,0.030,0.055
757,0.030,0.055
758,0.025,0.050
759,0.020,0.025
760,0.010,0.000
761,0.010,-0.030
762,0.010,-0.025
763,0.015,-0.020
764,0.015,0.000
765,0.015,-0.020
766,0.015,-0.015
767,0.015,-0.025
768,0.055,-0.015
769,0.160,0.145
770,0.320,0.535
771,0.470,0.930
772,0.570,1.255
773,0.585,1.415
774,0.545,1.350
775,0.465,1.190
776,0.365,0.970
777,0.235,0.700
778,0.115,0.355
779,0.030,0.110
780,-0.010,-0.035
781,-0.050,-0.150
782,-0.075,-0.240
783,-0.090,-0.270
784,-0.095,-0.290
785,-0.100,-0.300
786,-0.105,-0.325
787,-0.105,-0.325
788,-0.105,-0.325
789,-0.100,-0.320
790,-0.100,-0.305
791,-0.100,-0.310
792,-0.105,-0.320
793,-0.105,-0.330
794,-0.110,-0.335
795,-0.115,-0.350
796,-0.120,-0.360
797,-0.130,-0.375
798,-0.130,-0.395
799,-0.130,-0.390
800,-0.125,-0.400
801,-0.115,-0.385
802,-0.090,-0.345
803,-0.065,-0.275
804,-0.040,-0.215
805,-0.010,-0.125
806,0.005,-0.070
807,0.015,-0.020
808,0.015,-0.020
809,0.015,0.000
810,0.015,-0.025
811,0.015,-0.010
812,0.020,-0.020
813,0.015,0.000
814,0.015,-0.030
815,0.010,-0.025
816,0.010,-0.030
817,0.010,-0.025
818,0.010,-0.030
819,0.005,-0.020
820,0.005,-0.045
821,0.005,-0.040
822,0.010,-0.020
823,0.010,-0.025
824,0.010,-0.025
825,0.010,-0.025
826,0.015,-0.010
827,0.015,-0.020
828,0.015,-0.025
829,0.015,-0.040
830,0.015,-0.020
831,0.015,-0.015
832,0.015,-0.020
833,0.015,-0.020
834,0.015,-0.020
835,0.015,-0.020
836,0.015,-0.020
837,0.020,0.000
838,0.020,0.000
839,0.020,0.010
840,0.025,0.035
841,0.025,0.050
842,0.025,0.040
843,0.025,0.040
844,0.020,0.000
845,0.010,-0.015
846,0.010,-0.025
847,0.010,-0.025
848,0.010,-0.035
849,0.010,-0.040
850,0.015,-0.010
851,0.015,-0.025
852,0.040,-0.035
853,0.140,0.085
854,0.290,0.480
855,0.445,0.835
856,0.555,1.240
857,0.595,1.405
858,0.560,1.420
859,0.490,1.220
860,0.385,1.030
861,0.265,0.745
862,0.145,0.450
863,0.050,0.155
864,-0.005,-0.015
865,-0.045,-0.165
866,-0.075,-0.230
867,-0.090,-0.285
868,-0.095,-0.305
869,-0.100,-0.315
870,-0.100,-0.310
871,-0.100,-0.295
872,-0.095,-0.290
873,-0.095,-0.295
874,-0.095,-0.305
875,-0.100,-0.305
876,-0.100,-0.305
877,-0.105,-0.315
878,-0.105,-0.330
879,-0.110,-0.345
880,-0.115,-0.350
881,-0.120,-0.370
882,-0.130,-0.375
883,-0.130,-0.395
884,-0.125,-0.380
885,-0.115,-0.380
886,-0.095,-0.335
887,-0.075,-0.290
888,-0.050,-0.210
889,-0.025,-0.180
890,0.000,-0.070
891,0.015,-0.030
892,0.015,0.000
893,0.020,-0.015
894,0.020,0.000
895,0.020,0.000
896,0.020,-0.015
897,0.015,-0.020
898,0.010,-0.025
899,0.010,-0.035
900,0.010,-0.035
901,0.010,-0.025
902,0.010,-0.030
903,0.005,-0.030
904,0.005,-0.055
905,0.010,-0.030
906,0.010,-0.025
907,0.010,-0.015
908,0.010,-0.025
909,0.010,-0.010
910,0.010,-0.040
911,0.010,-0.035
912,0.015,-0.020
913,0.010,-0.015
914,0.010,-0.040
915,0.010,-0.025
916,0.015,-0.015
917,0.015,-0.015
918,0.015,-0.015
919,0.015,-0.020
920,0.020,-0.005
921,0.020,0.000
922,0.020,0.005
923,0.025,0.015
924,0.030,0.035
925,0.035,0.060
926,0.030,0.060
927,0.020,0.030
928,0.015,0.000
929,0.005,-0.010
930,0.005,-0.035
931,0.005,-0.030
932,0.010,-0.025
933,0.010,-0.025
934,0.010,-0.035
935,0.020,-0.015
936,0.065,-0.010
937,0.185,0.220
938,0.350,0.590
939,0.495,1.040
940,0.585,1.320
941,0.595,1.470
942,0.540,1.350
943,0.450,1.180
944,0.340,0.930
945,0.220,0.655
946,0.105,0.325
947,0.020,0.090
948,-0.030,-0.075
949,-0.065,-0.195
950,-0.085,-0.270
951,-0.095,-0.300
952,-0.100,-0.305
953,-0.100,-0.310
954,-0.100,-0.305
955,-0.100,-0.300
956,-0.100,-0.295
957,-0.100,-0.305
958,-0.105,-0.310
959,-0.100,-0.315
960,-0.100,-0.315
961,-0.105,-0.325
962,-0.105,-0.335
963,-0.105,-0.330
964,-0.120,-0.350
965,-0.130,-0.370
966,-0.130,-0.405
967,-0.130,-0.395
968,-0.125,-0.390
969,-0.110,-0.365
970,-0.090,-0.330
971,-0.060,-0.250
972,-0.035,-0.195
973,-0.015,-0.125
974,0.000,-0.070
975,0.015,-0.020
976,0.020,0.005
977,0.020,0.000
978,0.020,-0.010
979,0.020,-0.010
980,0.015,-0.010
981,0.010,-0.010
982,0.010,-0.015
983,0.010,-0.050
984,0.010,-0.020
985,0.010,-0.030
986,0.010,-0.010
987,0.010,-0.040
988,0.010,-0.015
989,0.005,-0.035
990,0.005,-0.030
991,0.005,-0.040
992,0.010,-0.020
993,0.015,-0.025
994,0.015,-0.010
995,0.015,-0.020
996,0.015,-0.015
997,0.015,-0.020
998,0.015,-0.025
999,0.020,-0.020
1000,0.015,-0.015
1001,0.010,-0.020
1002,0.010,-0.020
1003,0.015,-0.010
1004,0.015,-0.005
1005,0.020,-0.005
1006,0.025,0.000
1007,0.025,0.020
1008,0.025,0.035
1009,0.025,0.035
1010,0.025,0.045
1011,0.020,0.010
1012,0.010,-0.005
1013,0.010,-0.035
1014,0.010,-0.025
1015,0.005,-0.040
1016,0.000,-0.040
1017,0.000,-0.070
1018,0.005,-0.030
1019,0.020,-0.040
1020,0.075,0.015
1021,0.195,0.215
1022,0.355,0.630
1023,0.500,1.015
1024,0.585,1.365
1025,0.585,1.415
1026,0.520,1.310
1027,0.445,1.130
1028,0.335,0.925
1029,0.205,0.620
1030,0.085,0.275
1031,0.010,0.035
1032,-0.040,-0.115
1033,-0.075,-0.215
1034,-0.095,-0.305
1035,-0.100,-0.310
1036,-0.100,-0.315
1037,-0.095,-0.290
1038,-0.095,-0.300
1039,-0.095,-0.295
1040,-0.100,-0.310
1041,-0.100,-0.310
1042,-0.100,-0.315
1043,-0.100,-0.310
1044,-0.105,-0.315
1045,-0.105,-0.325
1046,-0.105,-0.340
1047,-0.120,-0.360
1048,-0.130,-0.380
1049,-0.140,-0.400
1050,-0.135,-0.400
1051,-0.130,-0.390
1052,-0.125,-0.390
1053,-0.110,-0.380
1054,-0.085,-0.315
1055,-0.060,-0.240
1056,-0.030,-0.170
1057,-0.010,-0.110
1058,0.000,-0.065
1059,0.010,-0.025
1060,0.010,-0.030
1061,0.020,-0.010
1062,0.015,-0.005
1063,0.015,0.000
1064,0.015,-0.035
1065,0.010,-0.015
1066,0.010,-0.035
1067,0.010,-0.025
1068,0.010,-0.055
1069,0.010,-0.025
1070,0.015,-0.020
1071,0.010,-0.020
1072,0.010,-0.030
1073,0.010,-0.020
1074,0.010,-0.020
1075,0.015,-0.020
1076,0.015,-0.030
1077,0.010,-0.025
1078,0.010,-0.040
1079,0.010,-0.040
1080,0.010,-0.035
1081,0.010,-0.025
1082,0.015,-0.020
1083,0.015,-0.020
1084,0.015,-0.010
1085,0.015,-0.020
1086,0.015,-0.025
1087,0.015,-0.025
1088,0.020,-0.015
1089,0.025,0.000
1090,0.030,0.020
1091,0.035,0.040
1092,0.040,0.070
1093,0.040,0.080
1094,0.030,0.055
1095,0.025,0.030
1096,0.020,-0.010
1097,0.015,-0.015
1098,0.010,-0.030
1099,0.010,-0.030
1100,0.015,-0.020
1101,0.015,-0.005
1102,0.015,-0.025
1103,0.025,-0.010
1104,0.075,0.010
1105,0.195,0.220
1106,0.350,0.605
1107,0.490,0.995
1108,0.580,1.315
1109,0.585,1.425
1110,0.535,1.340
1111,0.455,1.150
1112,0.350,0.965
1113,0.225,0.640
1114,0.105,0.340
1115,0.025,0.055
1116,-0.010,-0.050
1117,-0.045,-0.155
1118,-0.075,-0.220
1119,-0.100,-0.310
1120,-0.105,-0.320
1121,-0.100,-0.320
1122,-0.100,-0.295
1123,-0.095,-0.310
1124,-0.095,-0.290
1125,-0.095,-0.310
1126,-0.095,-0.305
1127,-0.095,-0.300
1128,-0.100,-0.310
1129,-0.105,-0.330
1130,-0.110,-0.345
1131,-0.115,-0.350
1132,-0.120,-0.355
1133,-0.125,-0.365
1134,-0.125,-0.380
1135,-0.130,-0.380
1136,-0.130,-0.395
1137,-0.115,-0.390
1138,-0.095,-0.330
1139,-0.065,-0.275
1140,-0.035,-0.185
1141,-0.005,-0.105
1142,0.005,-0.035
1143,0.015,-0.020
1144,0.020,0.010
1145,0.020,0.000
1146,0.015,0.005
1147,0.015,-0.020
1148,0.020,-0.020
1149,0.020,-0.020
1150,0.020,0.000
1151,0.015,0.000
1152,0.015,0.000
1153,0.010,-0.010
1154,0.010,-0.020
1155,0.005,-0.035
1156,0.005,-0.045
1157,0.005,-0.050
1158,0.010,-0.020
1159,0.015,-0.005
1160,0.015,-0.010
1161,0.015,-0.015
1162,0.015,-0.010
1163,0.015,-0.005
1164,0.015,-0.030
1165,0.015,-0.025
1166,0.015,-0.030
1167,0.015,-0.010
1168,0.020,-0.015
1169,0.020,-0.005
1170,0.020,0.000
1171,0.015,0.000
1172,0.015,-0.015
1173,0.015,-0.010
1174,0.020,0.000
1175,0.025,0.005
1176,0.030,0.025
1177,0.030,0.040
1178,0.035,0.055
1179,0.030,0.055
1180,0.025,0.045
1181,0.020,0.000
1182,0.015,-0.020
1183,0.015,-0.030
1184,0.020,-0.015
1185,0.015,-0.005
1186,0.015,-0.015
1187,0.015,-0.025
1188,0.025,-0.030
1189,0.085,0.015
1190,0.200,0.230
1191,0.355,0.650
1192,0.500,1.010
1193,0.585,1.325
1194,0.590,1.455
1195,0.530,1.365
1196,0.440,1.110
1197,0.345,0.930
1198,0.220,0.630
1199,0.105,0.330
1200,0.025,0.065
1201,-0.015,-0.050
1202,-0.055,-0.175
1203,-0.085,-0.240
1204,-0.095,-0.290
1205,-0.100,-0.305
1206,-0.100,-0.315
1207,-0.095,-0.295
1208,-0.095,-0.300
1209,-0.100,-0.300
1210,-0.100,-0.305
1211,-0.100,-0.315
1212,-0.100,-0.305
1213,-0.100,-0.315
1214,-0.105,-0.305
1215,-0.105,-0.315
1216,-0.110,-0.330
1217,-0.115,-0.340
1218,-0.120,-0.365
1219,-0.130,-0.380
1220,-0.125,-0.390
1221,-0.120,-0.370
1222,-0.105,-0.365
1223,-0.090,-0.315
1224,-0.060,-0.270
1225,-0.030,-0.185
1226,-0.005,-0.115
1227,0.005,-0.040
1228,0.015,-0.015
1229,0.020,0.005
1230,0.020,0.000
1231,0.020,0.000
1232,0.015,-0.020
1233,0.015,-0.010
1234,0.015,-0.025
1235,0.015,-0.020
1236,0.015,-0.010
1237,0.010,-0.020
1238,0.010,-0.020
1239,0.010,-0.035
1240,0.010,-0.025
1241,0.010,-0.025
1242,0.010,-0.010
1243,0.015,-0.020
1244,0.015,0.000
1245,0.020,-0.020
1246,0.020,-0.005
1247,0.015,-0.005
1248,0.010,0.000
1249,0.010,-0.050
1250,0.010,-0.030
1251,0.015,-0.020
1252,0.015,-0.005
1253,0.015,-0.015
1254,0.015,-0.015
1255,0.015,-0.015
1256,0.015,-0.010
1257,0.010,-0.015
1258,0.010,-0.020
1259,0.015,0.000
1260,0.025,0.040
1261,0.035,0.055
1262,0.040,0.060
1263,0.035,0.060
1264,0.025,0.045
1265,0.015,0.015
1266,0.015,-0.010
1267,0.015,-0.030
1268,0.020,-0.010
1269,0.015,-0.015
1270,0.015,-0.010
1271,0.015,-0.025
1272,0.015,-0.010
1273,0.050,-0.015
1274,0.140,0.125
1275,0.290,0.460
1276,0.445,0.885
1277,0.555,1.215
1278,0.600,1.450
1279,0.570,1.395
1280,0.500,1.270
1281,0.395,1.045
1282,0.275,0.790
1283,0.145,0.445
1284,0.045,0.150
1285,0.000,-0.015
1286,-0.045,-0.145
1287,-0.080,-0.225
1288,-0.100,-0.295
1289,-0.105,-0.310
1290,-0.100,-0.315
1291,-0.095,-0.295
1292,-0.090,-0.280
1293,-0.090,-0.275
1294,-0.090,-0.285
1295,-0.095,-0.285
1296,-0.100,-0.315
1297,-0.100,-0.300
1298,-0.100,-0.310
1299,-0.105,-0.330
1300,-0.110,-0.340
1301,-0.110,-0.340
1302,-0.115,-0.340
1303,-0.120,-0.365
1304,-0.125,-0.380
1305,-0.125,-0.385
1306,-0.115,-0.370
1307,-0.100,-0.350
1308,-0.075,-0.295
1309,-0.040,-0.215
1310,-0.010,-0.125
1311,0.000,-0.075
1312,0.010,-0.030
1313,0.020,0.005
1314,0.015,0.005
1315,0.015,0.000
1316,0.015,-0.025
1317,0.015,-0.025
1318,0.015,-0.035
1319,0.015,-0.020
1320,0.015,-0.035
1321,0.020,0.000
1322,0.015,-0.025
1323,0.015,-0.015
1324,0.015,-0.035
1325,0.015,-0.025
1326,0.010,-0.050
1327,0.010,-0.025
1328,0.010,-0.060
1329,0.015,-0.025
1330,0.020,-0.020
1331,0.020,-0.025
1332,0.020,-0.020
1333,0.020,0.000
1334,0.015,-0.020
1335,0.015,-0.015
1336,0.015,-0.020
1337,0.015,-0.010
1338,0.015,-0.020
1339,0.015,-0.030
1340,0.015,-0.010
1341,0.020,-0.005
1342,0.020,0.000
1343,0.025,0.005
1344,0.030,0.030
1345,0.035,0.055
1346,0.035,0.060
1347,0.030,0.050
1348,0.020,0.025
1349,0.015,0.000
1350,0.015,-0.025
1351,0.015,-0.030
1352,0.015,-0.025
1353,0.015,-0.015
1354,0.015,-0.045
1355,0.015,-0.020
1356,0.020,-0.025
1357,0.075,0.025
1358,0.190,0.205
1359,0.350,0.605
1360,0.495,1.010
1361,0.580,1.310
1362,0.595,1.440
1363,0.545,1.370
1364,0.455,1.175
1365,0.350,0.945
1366,0.230,0.675
1367,0.105,0.340
1368,0.025,0.085
1369,-0.020,-0.065
1370,-0.060,-0.175
1371,-0.085,-0.260
1372,-0.095,-0.295
1373,-0.100,-0.310
1374,-0.100,-0.295
1375,-0.100,-0.305
1376,-0.100,-0.295
1377,-0.105,-0.325
1378,-0.100,-0.315
1379,-0.100,-0.295
1380,-0.100,-0.295
1381,-0.110,-0.325
1382,-0.115,-0.345
1383,-0.120,-0.355
1384,-0.120,-0.370
1385,-0.120,-0.375
1386,-0.125,-0.375
1387,-0.125,-0.375
1388,-0.120,-0.375
1389,-0.115,-0.370
1390,-0.110,-0.355
1391,-0.095,-0.325
1392,-0.065,-0.270
1393,-0.035,-0.190
1394,-0.010,-0.125
1395,0.000,-0.075
1396,0.010,-0.030
1397,0.015,-0.020
1398,0.020,0.000
1399,0.015,-0.010
1400,0.010,-0.020
1401,0.010,-0.060
1402,0.010,-0.025
1403,0.010,-0.040
1404,0.010,-0.020
1405,0.010,-0.060
1406,0.010,-0.025
1407,0.010,-0.030
1408,0.010,-0.025
1409,0.005,-0.050
1410,0.005,-0.055
1411,0.005,-0.060
1412,0.010,-0.025
1413,0.015,-0.040
1414,0.015,-0.040
1415,0.010,-0.030
1416,0.010,-0.040
1417,0.010,-0.020
1418,0.010,-0.035
1419,0.015,-0.010
1420,0.020,0.000
1421,0.015,-0.015
1422,0.015,-0.025
1423,0.015,-0.010
1424,0.020,-0.010
1425,0.020,-0.005
1426,0.020,-0.005
1427,0.025,0.020
1428,0.030,0.040
1429,0.030,0.045
1430,0.025,0.045
1431,0.020,0.030
1432,0.015,0.010
1433,0.010,-0.010
1434,0.010,-0.030
1435,0.010,-0.030
1436,0.010,-0.010
1437,0.010,-0.035
1438,0.010,-0.035
1439,0.015,-0.045
1440,0.045,-0.025
1441,0.135,0.095
1442,0.280,0.445
1443,0.430,0.825
1444,0.545,1.180
1445,0.590,1.400
1446,0.555,1.385
1447,0.485,1.240
1448,0.390,1.035
1449,0.270,0.800
1450,0.135,0.435
1451,0.040,0.120
1452,-0.010,-0.055
1453,-0.050,-0.145
1454,-0.075,-0.245
1455,-0.090,-0.275
1456,-0.100,-0.330
1457,-0.105,-0.300
1458,-0.100,-0.330
1459,-0.100,-0.300
1460,-0.100,-0.315
1461,-0.100,-0.310
1462,-0.100,-0.320
1463,-0.095,-0.300
1464,-0.095,-0.295
1465,-0.105,-0.305
1466,-0.115,-0.335
1467,-0.120,-0.355
1468,-0.125,-0.360
1469,-0.125,-0.370
1470,-0.135,-0.385
1471,-0.140,-0.405
1472,-0.140,-0.415
1473,-0.125,-0.400
1474,-0.105,-0.365
1475,-0.080,-0.310
1476,-0.050,-0.245
1477,-0.020,-0.165
1478,0.005,-0.095
1479,0.015,-0.020
1480,0.020,-0.005
1481,0.015,0.000
1482,0.015,-0.015
1483,0.015,-0.010
1484,0.015,-0.025
1485,0.015,-0.010
1486,0.015,-0.025
1487,0.015,-0.025
1488,0.010,-0.045
1489,0.010,-0.025
1490,0.010,-0.030
1491,0.010,-0.020
1492,0.010,-0.025
1493,0.010,-0.030
1494,0.010,-0.025
1495,0.010,-0.030
1496,0.010,-0.015
1497,0.015,-0.030
1498,0.015,-0.010
1499,0.020,0.000
1500,0.015,-0.015
1501,0.015,-0.035
1502,0.015,-0.005
1503,0.020,-0.015
1504,0.020,-0.010
1505,0.020,-0.020
1506,0.020,-0.005
1507,0.020,-0.010
1508,0.020,0.000
1509,0.020,0.000
1510,0.020,0.000
1511,0.025,0.005
1512,0.035,0.030
1513,0.040,0.060
1514,0.030,0.055
1515,0.025,0.035
1516,0.020,0.005
1517,0.010,-0.015
1518,0.010,-0.035
1519,0.010,-0.025
1520,0.015,-0.020
1521,0.015,-0.025
1522,0.015,-0.020
1523,0.025,-0.025
1524,0.075,0.020
1525,0.180,0.205
1526,0.335,0.595
1527,0.470,0.955
1528,0.570,1.285
1529,0.590,1.410
1530,0.550,1.370
1531,0.465,1.165
1532,0.365,1.000
1533,0.240,0.685
1534,0.120,0.390
1535,0.030,0.085
1536,-0.015,-0.025
1537,-0.060,-0.185
1538,-0.085,-0.245
1539,-0.095,-0.290
1540,-0.100,-0.300
1541,-0.100,-0.315
1542,-0.100,-0.295
1543,-0.100,-0.295
1544,-0.100,-0.300
1545,-0.095,-0.285
1546,-0.095,-0.285
1547,-0.100,-0.305
1548,-0.105,-0.320
1549,-0.105,-0.325
1550,-0.110,-0.345
1551,-0.115,-0.350
1552,-0.120,-0.360
1553,-0.120,-0.360
1554,-0.125,-0.375
1555,-0.130,-0.380
1556,-0.135,-0.395
1557,-0.120,-0.385
1558,-0.100,-0.345
1559,-0.065,-0.275
1560,-0.035,-0.195
1561,-0.010,-0.130
1562,0.000,-0.065
1563,0.010,-0.030
1564,0.020,0.000
1565,0.020,0.000
1566,0.020,-0.005
1567,0.020,-0.010
1568,0.020,-0.005
1569,0.015,-0.015
1570,0.015,-0.005
1571,0.015,-0.010
1572,0.015,-0.030
1573,0.015,-0.025
1574,0.010,-0.030
1575,0.005,-0.030
1576,0.005,-0.050
1577,0.005,-0.045
1578,0.010,-0.055
1579,0.010,-0.025
1580,0.015,-0.030
1581,0.015,0.000
1582,0.015,-0.030
1583,0.015,0.000
1584,0.020,-0.015
1585,0.015,0.000
1586,0.015,-0.020
1587,0.020,-0.005
1588,0.020,-0.010
1589,0.015,0.000
1590,0.015,-0.025
1591,0.015,-0.010
1592,0.020,0.000
1593,0.020,0.000
1594,0.020,0.005
1595,0.030,0.030
1596,0.035,0.065
1597,0.035,0.080
1598,0.025,0.065
1599,0.020,0.015
1600,0.015,-0.015
1601,0.010,-0.025
1602,0.010,-0.020
1603,0.015,-0.020
1604,0.015,-0.020
1605,0.015,-0.015
1606,0.015,-0.035
1607,0.035,-0.025
1608,0.105,0.050
1609,0.245,0.340
1610,0.405,0.740
1611,0.535,1.140
1612,0.595,1.380
1613,0.580,1.435
1614,0.510,1.285
1615,0.420,1.105
1616,0.305,0.860
1617,0.175,0.560
1618,0.070,0.220
1619,0.005,0.020
1620,-0.035,-0.100
1621,-0.070,-0.190
1622,-0.085,-0.255
1623,-0.090,-0.295
1624,-0.095,-0.290
1625,-0.100,-0.335
1626,-0.105,-0.320
1627,-0.105,-0.330
1628,-0.100,-0.310
1629,-0.100,-0.315
1630,-0.095,-0.290
1631,-0.095,-0.305
1632,-0.100,-0.295
1633,-0.105,-0.325
1634,-0.105,-0.315
1635,-0.110,-0.340
1636,-0.120,-0.350
1637,-0.130,-0.375
1638,-0.130,-0.395
1639,-0.130,-0.400
1640,-0.120,-0.385
1641,-0.100,-0.350
1642,-0.080,-0.290
1643,-0.055,-0.235
1644,-0.030,-0.175
1645,-0.005,-0.100
1646,0.010,-0.040
1647,0.020,-0.020
1648,0.020,-0.015
1649,0.020,-0.010
1650,0.020,0.000
1651,0.020,-0.010
1652,0.020,-0.010
1653,0.020,-0.010
1654,0.015,-0.005
1655,0.010,-0.025
1656,0.005,-0.025
1657,0.005,-0.045
1658,0.005,-0.040
1659,0.010,-0.065
1660,0.015,-0.015
1661,0.020,-0.020
1662,0.020,0.000
1663,0.015,-0.020
1664,0.015,-0.010
1665,0.015,-0.035
1666,0.015,-0.010
1667,0.015,-0.020
1668,0.015,-0.025
1669,0.015,-0.030
1670,0.020,-0.005
1671,0.020,-0.010
1672,0.015,-0.010
1673,0.015,-0.015
1674,0.015,-0.020
1675,0.020,-0.020
1676,0.025,-0.005
1677,0.030,0.030
1678,0.035,0.050
1679,0.035,0.065
1680,0.030,0.040
1681,0.025,0.035
1682,0.020,0.010
1683,0.015,-0.010
1684,0.010,-0.030
1685,0.010,-0.035
1686,0.010,-0.040
1687,0.010,-0.040
1688,0.020,-0.020
1689,0.025,-0.015
1690,0.060,0.005
1691,0.155,0.150
1692,0.305,0.500
1693,0.460,0.905
1694,0.575,1.275
1695,0.605,1.445
1696,0.565,1.410
1697,0.485,1.230
1698,0.375,1.020
1699,0.255,0.740
1700,0.135,0.415
1701,0.045,0.135
1702,0.000,-0.020
1703,-0.040,-0.125
1704,-0.080,-0.235
1705,-0.095,-0.275
1706,-0.100,-0.320
1707,-0.100,-0.305
1708,-0.100,-0.315
1709,-0.105,-0.300
1710,-0.100,-0.340
1711,-0.095,-0.295
1712,-0.095,-0.310
1713,-0.095,-0.290
1714,-0.100,-0.310
1715,-0.105,-0.310
1716,-0.105,-0.330
1717,-0.110,-0.325
1718,-0.115,-0.360
1719,-0.115,-0.360
1720,-0.120,-0.370
1721,-0.125,-0.380
1722,-0.115,-0.385
1723,-0.110,-0.360
1724,-0.095,-0.335
1725,-0.070,-0.285
1726,-0.035,-0.205
1727,-0.005,-0.130
1728,0.005,-0.060
1729,0.015,-0.025
1730,0.020,-0.010
1731,0.020,-0.005
1732,0.020,0.000
1733,0.020,0.000
1734,0.020,-0.015
1735,0.015,-0.015
1736,0.015,-0.025
1737,0.015,-0.030
1738,0.015,-0.035
1739,0.015,-0.015
1740,0.015,-0.030
1741,0.015,-0.015
1742,0.015,-0.030
1743,0.010,-0.020
1744,0.010,-0.040
1745,0.010,-0.035
1746,0.015,-0.030
1747,0.015,-0.015
1748,0.015,-0.030
1749,0.015,-0.025
1750,0.015,-0.030
1751,0.015,-0.020
1752,0.020,0.000
1753,0.015,-0.020
1754,0.015,-0.025
1755,0.015,-0.030
1756,0.015,-0.025
1757,0.015,-0.025
1758,0.020,-0.005
1759,0.020,0.000
1760,0.025,0.040
1761,0.030,0.045
1762,0.030,0.055
1763,0.025,0.020
1764,0.020,0.005
1765,0.015,-0.010
1766,0.010,-0.005
1767,0.010,-0.025
1768,0.010,-0.035
1769,0.005,-0.035
1770,0.005,-0.045
1771,0.005,-0.045
1772,0.035,-0.035
1773,0.115,0.075
1774,0.250,0.360
1775,0.405,0.760
1776,0.530,1.140
1777,0.585,1.385
1778,0.570,1.415
1779,0.505,1.280
1780,0.405,1.065
1781,0.290,0.815
1782,0.160,0.500
1783,0.065,0.185
1784,0.000,0.020
1785,-0.045,-0.120
1786,-0.080,-0.225
1787,-0.100,-0.315
1788,-0.100,-0.305
1789,-0.095,-0.335
1790,-0.095,-0.290
1791,-0.095,-0.295
1792,-0.100,-0.300
1793,-0.100,-0.310
1794,-0.100,-0.290
1795,-0.100,-0.330
1796,-0.100,-0.295
1797,-0.100,-0.325
1798,-0.100,-0.305
1799,-0.110,-0.335
1800,-0.120,-0.365
1801,-0.125,-0.380
1802,-0.130,-0.395
1803,-0.130,-0.390
1804,-0.125,-0.390
1805,-0.115,-0.360
1806,-0.100,-0.345
1807,-0.080,-0.300
1808,-0.055,-0.240
1809,-0.025,-0.165
1810,-0.005,-0.115
1811,0.005,-0.060
1812,0.015,-0.020
1813,0.020,-0.005
1814,0.020,-0.010
1815,0.015,-0.010
1816,0.015,-0.015
1817,0.015,-0.025
1818,0.020,-0.015
1819,0.015,-0.020
1820,0.015,-0.015
1821,0.015,-0.020
1822,0.015,-0.025
1823,0.010,-0.035
1824,0.010,-0.030
1825,0.010,-0.040
1826,0.015,-0.025
1827,0.015,-0.030
1828,0.015,-0.025
1829,0.015,-0.025
1830,0.015,-0.025
1831,0.015,-0.025
1832,0.015,-0.035
1833,0.015,-0.005
1834,0.015,-0.030
1835,0.015,-0.020
1836,0.015,-0.020
1837,0.020,0.000
1838,0.020,-0.020
1839,0.020,0.000
1840,0.020,0.000
1841,0.030,0.025
1842,0.035,0.035
1843,0.040,0.070
1844,0.035,0.050
1845,0.030,0.045
1846,0.025,0.015
1847,0.020,0.000
1848,0.015,-0.015
1849,0.010,-0.025
1850,0.010,-0.050
1851,0.010,-0.040
1852,0.015,-0.025
1853,0.020,-0.030
1854,0.060,-0.010
1855,0.160,0.150
1856,0.305,0.495
1857,0.450,0.885
1858,0.555,1.220
1859,0.595,1.405
1860,0.560,1.400
1861,0.485,1.255
1862,0.385,1.025
1863,0.265,0.770
1864,0.145,0.435
1865,0.055,0.165
1866,0.000,-0.005
1867,-0.040,-0.115
1868,-0.075,-0.230
1869,-0.095,-0.265
1870,-0.100,-0.320
1871,-0.100,-0.300
1872,-0.100,-0.315
1873,-0.100,-0.290
1874,-0.095,-0.320
1875,-0.095,-0.290
1876,-0.100,-0.305
1877,-0.100,-0.300
1878,-0.100,-0.310
1879,-0.100,-0.320
1880,-0.105,-0.330
1881,-0.110,-0.345
1882,-0.115,-0.345
1883,-0.125,-0.385
1884,-0.130,-0.390
1885,-0.130,-0.390
1886,-0.120,-0.375
1887,-0.110,-0.350
1888,-0.100,-0.315
1889,-0.080,-0.305
1890,-0.050,-0.230
1891,-0.020,-0.170
1892,0.000,-0.085
1893,0.015,-0.030
1894,0.020,-0.005
1895,0.020,0.000
1896,0.020,-0.005
1897,0.015,-0.015
1898,0.015,-0.025
1899,0.015,-0.030
1900,0.015,-0.025
1901,0.020,-0.010
1902,0.015,-0.015
1903,0.015,-0.020
1904,0.015,-0.030
1905,0.010,-0.025
1906,0.010,-0.030
1907,0.010,-0.050
1908,0.010,-0.035
1909,0.015,-0.030
1910,0.015,-0.025
1911,0.015,-0.030
1912,0.020,-0.010
1913,0.015,-0.025
1914,0.015,-0.025
1915,0.015,-0.020
1916,0.015,0.000
1917,0.015,-0.025
1918,0.020,0.000
1919,0.015,-0.020
1920,0.015,0.000
1921,0.015,-0.035
1922,0.015,-0.020
1923,0.020,-0.020
1924,0.025,0.030
1925,0.030,0.030
1926,0.035,0.065
1927,0.035,0.060
1928,0.030,0.040
1929,0.025,0.010
1930,0.020,-0.010
1931,0.015,-0.020
1932,0.015,-0.030
1933,0.010,-0.025
1934,0.010,-0.035
1935,0.010,-0.030
1936,0.015,-0.025
1937,0.035,-0.015
1938,0.110,0.060
1939,0.240,0.335
1940,0.400,0.735
1941,0.530,1.125
1942,0.590,1.385
1943,0.575,1.425
1944,0.510,1.295
1945,0.420,1.100
1946,0.310,0.875
1947,0.190,0.555
1948,0.085,0.265
1949,0.010,0.040
1950,-0.030,-0.090
1951,-0.070,-0.210
1952,-0.085,-0.260
1953,-0.095,-0.285
1954,-0.100,-0.275
1955,-0.105,-0.325
1956,-0.100,-0.315
1957,-0.095,-0.285
1958,-0.095,-0.275
1959,-0.100,-0.290
1960,-0.100,-0.300
1961,-0.100,-0.300
1962,-0.105,-0.315
1963,-0.105,-0.315
1964,-0.105,-0.340
1965,-0.110,-0.345
1966,-0.120,-0.355
1967,-0.125,-0.360
1968,-0.130,-0.395
1969,-0.125,-0.370
1970,-0.115,-0.385
1971,-0.100,-0.330
1972,-0.080,-0.295
1973,-0.050,-0.215
1974,-0.020,-0.160
1975,0.000,-0.100
1976,0.010,-0.050
1977,0.015,-0.015
1978,0.020,-0.010
1979,0.020,-0.005
1980,0.020,-0.010
1981,0.015,-0.010
1982,0.015,-0.015
1983,0.015,-0.025
1984,0.020,-0.015
1985,0.015,-0.010
1986,0.010,-0.025
1987,0.010,-0.025
1988,0.015,-0.025
1989,0.015,-0.020
1990,0.010,-0.030
1991,0.010,-0.035
1992,0.010,-0.040
1993,0.015,-0.020
1994,0.015,-0.020
1995,0.015,0.000
1996,0.010,-0.030
1997,0.010,-0.025
1998,0.010,-0.040
1999,0.020,-0.020
2000,0.020,-0.020
2001,0.020,-0.005
2002,0.020,-0.005
2003,0.020,-0.005
2004,0.020,-0.020
2005,0.020,0.000
2006,0.020,0.000
2007,0.030,0.030
2008,0.035,0.050
2009,0.035,0.045
2010,0.025,0.050
2011,0.020,0.020
2012,0.020,0.005
2013,0.020,-0.015
2014,0.020,-0.025
2015,0.020,-0.020
2016,0.015,-0.010
2017,0.015,-0.030
2018,0.010,-0.035
2019,0.015,-0.045
2020,0.060,-0.015
2021,0.170,0.165
2022,0.320,0.540
2023,0.470,0.940
2024,0.570,1.275
2025,0.595,1.430
2026,0.555,1.385
2027,0.470,1.215
2028,0.365,0.995
2029,0.245,0.710
2030,0.125,0.380
2031,0.035,0.125
2032,-0.015,-0.040
2033,-0.050,-0.150
2034,-0.075,-0.230
2035,-0.090,-0.280
2036,-0.095,-0.305
2037,-0.095,-0.295
2038,-0.095,-0.285
2039,-0.100,-0.295
2040,-0.100,-0.295
2041,-0.100,-0.335
2042,-0.095,-0.305
2043,-0.090,-0.300
2044,-0.095,-0.275
2045,-0.105,-0.330
2046,-0.110,-0.330
2047,-0.115,-0.350
2048,-0.120,-0.340
2049,-0.120,-0.375
2050,-0.125,-0.365
2051,-0.130,-0.410
2052,-0.120,-0.365
2053,-0.105,-0.365
2054,-0.090,-0.300
2055,-0.060,-0.275
2056,-0.035,-0.185
2057,-0.010,-0.115
2058,0.005,-0.060
2059,0.015,-0.015
2060,0.020,0.000
2061,0.020,0.000
2062,0.020,-0.010
2063,0.015,-0.010
2064,0.015,-0.015
2065,0.015,-0.015
2066,0.015,-0.025
2067,0.015,-0.030
2068,0.020,-0.025
2069,0.015,-0.010
2070,0.015,-0.020
2071,0.010,-0.030
2072,0.010,-0.035
2073,0.010,-0.050
2074,0.010,-0.035
2075,0.010,-0.035
2076,0.015,-0.025
2077,0.020,-0.020
2078,0.020,-0.005
2079,0.020,-0.015
2080,0.020,-0.005
2081,0.020,-0.010
2082,0.020,0.000
2083,0.020,-0.015
2084,0.020,-0.005
2085,0.020,-0.010
2086,0.020,-0.010
2087,0.025,0.000
2088,0.025,0.015
2089,0.030,0.030
2090,0.035,0.035
2091,0.035,0.050
2092,0.030,0.040
2093,0.025,0.035
2094,0.020,0.000
2095,0.020,0.000
2096,0.020,-0.025
2097,0.015,-0.020
2098,0.015,-0.035
2099,0.015,-0.005
2100,0.015,-0.035
2101,0.020,-0.030
2102,0.055,-0.020
2103,0.150,0.135
2104,0.295,0.470
2105,0.445,0.880
2106,0.555,1.205
2107,0.595,1.410
2108,0.565,1.410
2109,0.490,1.250
2110,0.385,1.035
2111,0.265,0.760
2112,0.145,0.440
2113,0.055,0.165
2114,0.000,0.005
2115,-0.040,-0.105
2116,-0.075,-0.220
2117,-0.090,-0.275
2118,-0.100,-0.300
2119,-0.095,-0.305
2120,-0.095,-0.295
2121,-0.095,-0.290
2122,-0.100,-0.305
2123,-0.100,-0.295
2124,-0.100,-0.325
2125,-0.100,-0.290
2126,-0.100,-0.325
2127,-0.105,-0.315
2128,-0.105,-0.330
2129,-0.110,-0.330
2130,-0.115,-0.365
2131,-0.125,-0.355
2132,-0.125,-0.385
2133,-0.120,-0.360
2134,-0.120,-0.385
2135,-0.115,-0.370
2136,-0.100,-0.335
2137,-0.075,-0.290
2138,-0.045,-0.225
2139,-0.010,-0.130
2140,0.000,-0.065
2141,0.010,-0.045
2142,0.015,-0.025
2143,0.020,-0.020
2144,0.020,-0.005
2145,0.015,-0.015
2146,0.010,-0.010
2147,0.010,-0.035
2148,0.010,-0.030
2149,0.015,-0.025
2150,0.010,-0.025
2151,0.010,-0.045
2152,0.010,-0.045
2153,0.010,-0.035
2154,0.010,-0.030
2155,0.010,-0.035
2156,0.010,-0.040
2157,0.015,-0.030
2158,0.015,-0.030
2159,0.020,-0.025
2160,0.015,-0.020
2161,0.010,-0.025
2162,0.010,-0.030
2163,0.015,-0.020
2164,0.020,-0.010
2165,0.015,-0.025
2166,0.015,-0.025
2167,0.020,-0.025
2168,0.020,-0.005
2169,0.020,-0.015
2170,0.025,0.000
2171,0.025,0.005
2172,0.025,0.035
2173,0.025,0.005
2174,0.025,0.040
2175,0.025,0.025
2176,0.025,0.040
2177,0.020,-0.005
2178,0.015,0.000
2179,0.015,-0.040
2180,0.015,-0.020
2181,0.010,-0.030
2182,0.005,-0.035
2183,0.005,-0.060
2184,0.030,-0.030
2185,0.095,0.030
2186,0.220,0.295
2187,0.370,0.665
2188,0.505,1.060
2189,0.580,1.335
2190,0.580,1.415
2191,0.525,1.315
2192,0.435,1.135
2193,0.315,0.890
2194,0.185,0.570
2195,0.080,0.245
2196,0.010,0.030
2197,-0.030,-0.090
2198,-0.060,-0.190
2199,-0.080,-0.250
2200,-0.090,-0.290
2201,-0.100,-0.315
2202,-0.100,-0.310
2203,-0.095,-0.305
2204,-0.095,-0.290
2205,-0.100,-0.300
2206,-0.100,-0.300
2207,-0.100,-0.310
2208,-0.100,-0.310
2209,-0.100,-0.310
2210,-0.105,-0.315
2211,-0.110,-0.340
2212,-0.115,-0.340
2213,-0.120,-0.370
2214,-0.125,-0.385
2215,-0.130,-0.380
2216,-0.125,-0.380
2217,-0.115,-0.375
2218,-0.105,-0.355
2219,-0.090,-0.305
2220,-0.060,-0.265
2221,-0.025,-0.175
2222,0.000,-0.100
2223,0.010,-0.030
2224,0.015,-0.030
2225,0.015,-0.005
2226,0.020,-0.020
2227,0.020,0.000
2228,0.020,-0.015
2229,0.015,-0.015
2230,0.015,-0.025
2231,0.015,-0.010
2232,0.020,-0.010
2233,0.015,-0.005
2234,0.015,-0.015
2235,0.015,-0.020
2236,0.015,-0.025
2237,0.015,-0.025
2238,0.015,-0.025
2239,0.015,-0.015
2240,0.015,-0.010
2241,0.015,-0.025
2242,0.015,-0.030
2243,0.020,-0.025
2244,0.020,-0.015
2245,0.020,-0.015
2246,0.020,-0.015
2247,0.020,-0.010
2248,0.020,-0.015
2249,0.020,-0.010
2250,0.020,-0.015
2251,0.020,0.000
2252,0.020,-0.010
2253,0.020,0.000
2254,0.020,0.000
2255,0.025,0.030
2256,0.030,0.040
2257,0.035,0.070
2258,0.030,0.040
2259,0.025,0.050
2260,0.020,0.005
2261,0.020,0.000
2262,0.020,-0.005
2263,0.015,-0.010
2264,0.015,-0.020
2265,0.015,-0.025
2266,0.010,-0.030
2267,0.015,-0.045
2268,0.065,-0.020
2269,0.175,0.180
2270,0.335,0.570
2271,0.490,0.975
2272,0.585,1.325
2273,0.595,1.450
2274,0.545,1.375
2275,0.465,1.185
2276,0.355,0.980
2277,0.230,0.680
2278,0.115,0.355
2279,0.035,0.100
2280,-0.010,-0.040
2281,-0.045,-0.150
2282,-0.075,-0.230
2283,-0.090,-0.280
2284,-0.100,-0.315
2285,-0.100,-0.315
2286,-0.095,-0.300
2287,-0.095,-0.290
2288,-0.095,-0.285
2289,-0.095,-0.290
2290,-0.095,-0.300
2291,-0.095,-0.295
2292,-0.100,-0.300
2293,-0.105,-0.320
2294,-0.105,-0.325
2295,-0.110,-0.345
2296,-0.120,-0.355
2297,-0.130,-0.385
2298,-0.130,-0.395
2299,-0.130,-0.395
2300,-0.125,-0.380
2301,-0.110,-0.375
2302,-0.095,-0.315
2303,-0.070,-0.290
2304,-0.040,-0.195
2305,-0.010,-0.135
2306,0.005,-0.045
2307,0.015,-0.025
2308,0.020,0.000
2309,0.020,0.000
2310,0.020,0.000
2311,0.020,-0.010
2312,0.015,-0.020
2313,0.015,-0.030
2314,0.015,-0.030
2315,0.015,-0.025
2316,0.015,-0.025
2317,0.015,-0.025
2318,0.015,-0.025
2319,0.015,-0.025
2320,0.015,-0.030
2321,0.015,-0.030
2322,0.015,-0.030
2323,0.015,-0.020
2324,0.015,-0.025
2325,0.015,-0.015
2326,0.020,-0.010
2327,0.020,-0.015
2328,0.020,-0.010
2329,0.020,-0.010
2330,0.020,-0.010
2331,0.020,-0.015
2332,0.020,-0.010
2333,0.020,-0.015
2334,0.020,0.000
2335,0.020,-0.005
2336,0.020,0.005
2337,0.025,0.010
2338,0.035,0.045
2339,0.040,0.050
2340,0.040,0.065
2341,0.035,0.060
2342,0.025,0.045
2343,0.020,0.000
2344,0.015,-0.010
2345,0.015,-0.025
2346,0.010,-0.040
2347,0.010,-0.025
2348,0.010,-0.060
2349,0.015,-0.025
2350,0.020,-0.025
2351,0.055,0.000
2352,0.155,0.125
2353,0.310,0.510
2354,0.460,0.885
2355,0.570,1.270
2356,0.610,1.435
2357,0.565,1.435
2358,0.480,1.235
2359,0.375,1.010
2360,0.255,0.720
2361,0.140,0.420
2362,0.050,0.145
2363,0.000,-0.020
2364,-0.040,-0.145
2365,-0.070,-0.225
2366,-0.090,-0.270
2367,-0.095,-0.290
2368,-0.100,-0.305
2369,-0.105,-0.320
2370,-0.100,-0.315
2371,-0.095,-0.295
2372,-0.095,-0.290
2373,-0.095,-0.285
2374,-0.095,-0.290
2375,-0.100,-0.300
2376,-0.105,-0.320
2377,-0.105,-0.325
2378,-0.110,-0.335
2379,-0.115,-0.335
2380,-0.120,-0.365
2381,-0.125,-0.365
2382,-0.125,-0.390
2383,-0.120,-0.370
2384,-0.115,-0.390
2385,-0.095,-0.330
2386,-0.065,-0.285
2387,-0.035,-0.185
2388,-0.010,-0.155
2389,0.000,-0.065
2390,0.010,-0.025
2391,0.015,0.005
2392,0.020,-0.015
2393,0.020,-0.010
2394,0.015,-0.015
2395,0.015,-0.020
2396,0.015,-0.010
2397,0.015,-0.025
2398,0.015,-0.030
2399,0.015,-0.030
2400,0.015,-0.020
2401,0.015,-0.025
2402,0.015,-0.020
2403,0.015,-0.025
2404,0.015,-0.020
2405,0.015,-0.035
2406,0.015,-0.035
2407,0.015,-0.030
2408,0.015,-0.010
2409,0.015,-0.015
2410,0.015,-0.020
2411,0.015,-0.015
2412,0.015,-0.020
2413,0.015,-0.020
2414,0.020,-0.020
2415,0.020,-0.005
2416,0.020,-0.010
2417,0.020,-0.015
2418,0.020,-0.015
2419,0.020,0.000
2420,0.025,0.000
2421,0.030,0.015
2422,0.035,0.045
2423,0.035,0.065
2424,0.030,0.055
2425,0.020,0.020
2426,0.015,0.010
2427,0.015,-0.030
2428,0.015,0.000
2429,0.010,-0.015
2430,0.010,-0.025
2431,0.010,-0.055
2432,0.015,-0.030
2433,0.020,-0.030
2434,0.070,0.000
2435,0.190,0.200
2436,0.350,0.610
2437,0.495,1.010
2438,0.585,1.335
2439,0.595,1.440
2440,0.545,1.365
2441,0.460,1.180
2442,0.350,0.970
2443,0.220,0.650
2444,0.110,0.315
2445,0.030,0.100
2446,-0.015,-0.035
2447,-0.050,-0.160
2448,-0.075,-0.235
2449,-0.090,-0.275
2450,-0.095,-0.300
2451,-0.095,-0.300
2452,-0.095,-0.295
2453,-0.095,-0.295
2454,-0.095,-0.300
2455,-0.095,-0.295
2456,-0.095,-0.290
2457,-0.095,-0.295
2458,-0.100,-0.295
2459,-0.105,-0.320
2460,-0.105,-0.325
2461,-0.105,-0.340
2462,-0.105,-0.330
2463,-0.115,-0.350
2464,-0.130,-0.360
2465,-0.125,-0.405
2466,-0.120,-0.380
2467,-0.105,-0.365
2468,-0.085,-0.310
2469,-0.055,-0.250
2470,-0.030,-0.170
2471,-0.005,-0.110
2472,0.005,-0.050
2473,0.020,-0.005
2474,0.020,-0.005
2475,0.020,0.000
2476,0.020,0.000
2477,0.020,-0.005
2478,0.015,-0.020
2479,0.015,-0.015
2480,0.015,-0.025
2481,0.015,-0.010
2482,0.010,-0.050
2483,0.010,-0.030
2484,0.010,-0.040
2485,0.010,-0.025
2486,0.010,-0.045
2487,0.010,-0.035
2488,0.010,-0.030
2489,0.015,-0.020
2490,0.015,-0.040
2491,0.015,-0.020
2492,0.015,-0.010
2493,0.015,-0.010
2494,0.020,-0.015
2495,0.020,-0.010
2496,0.020,-0.010
2497,0.015,-0.015
2498,0.015,-0.025
2499,0.015,-0.030
2500,0.020,-0.015
2501,0.020,0.000
2502,0.020,0.005
2503,0.025,0.015
2504,0.030,0.025
2505,0.035,0.050
2506,0.035,0.060
2507,0.025,0.050
2508,0.015,0.000
2509,0.015,-0.005
2510,0.015,-0.035
2511,0.010,-0.015
2512,0.010,-0.040
2513,0.010,-0.025
2514,0.010,-0.065
2515,0.015,-0.025
2516,0.040,-0.030
2517,0.125,0.065
2518,0.265,0.390
2519,0.420,0.795
2520,0.550,1.180
2521,0.600,1.430
2522,0.565,1.415
2523,0.490,1.250
2524,0.395,1.040
2525,0.275,0.800
2526,0.150,0.475
2527,0.050,0.160
2528,-0.005,-0.005
2529,-0.045,-0.145
2530,-0.070,-0.215
2531,-0.090,-0.270
2532,-0.095,-0.290
2533,-0.100,-0.315
2534,-0.095,-0.285
2535,-0.095,-0.285
2536,-0.100,-0.295
2537,-0.100,-0.305
2538,-0.100,-0.310
2539,-0.105,-0.315
2540,-0.105,-0.320
2541,-0.105,-0.315
2542,-0.105,-0.330
2543,-0.110,-0.335
2544,-0.115,-0.350
2545,-0.125,-0.370
2546,-0.130,-0.385
2547,-0.130,-0.395
2548,-0.125,-0.390
2549,-0.115,-0.370
2550,-0.095,-0.340
2551,-0.070,-0.295
2552,-0.045,-0.225
2553,-0.015,-0.160
2554,0.000,-0.070
2555,0.010,-0.060
2556,0.015,-0.025
2557,0.015,-0.030
2558,0.020,0.000
2559,0.020,-0.020
2560,0.020,-0.005
2561,0.015,-0.025
2562,0.015,0.000
2563,0.010,-0.040
2564,0.010,-0.025
2565,0.010,-0.055
2566,0.015,-0.025
2567,0.015,-0.045
2568,0.010,-0.025
2569,0.010,-0.045
2570,0.010,-0.035
2571,0.010,-0.045
2572,0.010,-0.040
2573,0.015,-0.035
2574,0.015,-0.020
2575,0.015,-0.015
2576,0.015,-0.025
2577,0.010,-0.035
2578,0.010,-0.035
2579,0.015,-0.025
2580,0.020,-0.005
2581,0.015,-0.005
2582,0.015,-0.025
2583,0.015,-0.030
2584,0.020,-0.010
2585,0.020,0.000
2586,0.025,0.015
2587,0.030,0.025
2588,0.035,0.060
2589,0.030,0.055
2590,0.025,0.045
2591,0.020,0.005
2592,0.015,-0.005
2593,0.015,-0.030
2594,0.015,-0.015
2595,0.015,-0.030
2596,0.015,-0.010
2597,0.015,-0.025
2598,0.015,-0.025
2599,0.050,-0.010
2600,0.145,0.120
2601,0.300,0.485
2602,0.455,0.885
2603,0.560,1.255
2604,0.590,1.420
2605,0.555,1.380
2606,0.485,1.210
2607,0.385,1.025
2608,0.255,0.730
2609,0.125,0.415
2610,0.040,0.110
2611,0.000,-0.005
2612,-0.040,-0.135
2613,-0.065,-0.200
2614,-0.085,-0.270
2615,-0.095,-0.290
2616,-0.100,-0.320
2617,-0.100,-0.315
2618,-0.100,-0.315
2619,-0.100,-0.310
2620,-0.105,-0.320
2621,-0.105,-0.320
2622,-0.100,-0.320
2623,-0.100,-0.320
2624,-0.105,-0.325
2625,-0.110,-0.335
2626,-0.115,-0.345
2627,-0.120,-0.350
2628,-0.125,-0.370
2629,-0.130,-0.390
2630,-0.130,-0.400
2631,-0.125,-0.390
2632,-0.115,-0.370
2633,-0.100,-0.345
2634,-0.080,-0.310
2635,-0.045,-0.210
2636,-0.015,-0.150
2637,0.000,-0.065
2638,0.015,-0.045
2639,0.020,-0.005
2640,0.020,-0.010
2641,0.020,0.000
2642,0.020,-0.020
2643,0.020,-0.005
2644,0.015,-0.025
2645,0.015,-0.020
2646,0.015,-0.040
2647,0.015,-0.030
2648,0.015,-0.030
2649,0.015,-0.020
2650,0.015,-0.030
2651,0.015,-0.020
2652,0.015,-0.025
2653,0.015,-0.025
2654,0.010,-0.025
2655,0.010,-0.040
2656,0.010,-0.035
2657,0.010,-0.040
2658,0.010,-0.030
2659,0.015,-0.030
2660,0.015,-0.010
2661,0.020,-0.015
2662,0.015,-0.010
2663,0.015,-0.030
2664,0.015,-0.030
2665,0.015,-0.030
2666,0.015,-0.015
2667,0.020,-0.010
2668,0.020,-0.010
2669,0.025,0.000
2670,0.030,0.025
2671,0.035,0.055
2672,0.035,0.060
2673,0.030,0.060
2674,0.025,0.030
2675,0.020,0.010
2676,0.015,-0.005
2677,0.010,-0.020
2678,0.010,-0.025
2679,0.010,-0.040
2680,0.010,-0.045
2681,0.010,-0.035
2682,0.015,-0.025
2683,0.040,-0.015
2684,0.125,0.085
2685,0.275,0.405
2686,0.435,0.840
2687,0.555,1.175
2688,0.610,1.450
2689,0.575,1.430
2690,0.495,1.265
2691,0.400,1.035
2692,0.285,0.815
2693,0.160,0.475
2694,0.060,0.195
2695,0.000,0.010
2696,-0.040,-0.100
2697,-0.070,-0.225
2698,-0.090,-0.270
2699,-0.095,-0.300
2700,-0.100,-0.300
2701,-0.100,-0.305
2702,-0.100,-0.295
2703,-0.100,-0.300
2704,-0.100,-0.310
2705,-0.100,-0.315
2706,-0.100,-0.310
2707,-0.100,-0.295
2708,-0.100,-0.310
2709,-0.105,-0.335
2710,-0.105,-0.340
2711,-0.115,-0.340
2712,-0.120,-0.365
2713,-0.130,-0.395
2714,-0.130,-0.390
2715,-0.125,-0.390
2716,-0.115,-0.375
2717,-0.100,-0.345
2718,-0.080,-0.285
2719,-0.050,-0.240
2720,-0.020,-0.150
2721,0.000,-0.090
2722,0.015,-0.020
2723,0.020,-0.005
2724,0.020,0.005
2725,0.015,-0.010
2726,0.015,0.000
2727,0.015,-0.020
2728,0.015,-0.025
2729,0.010,-0.025
2730,0.010,-0.035
2731,0.010,-0.025
2732,0.010,-0.025
2733,0.015,-0.015
2734,0.015,-0.020
2735,0.010,-0.025
2736,0.010,-0.050
2737,0.010,-0.025
2738,0.010,-0.040
2739,0.015,-0.010
2740,0.015,-0.030
2741,0.015,-0.020
2742,0.020,-0.020
2743,0.015,-0.010
2744,0.015,-0.020
2745,0.015,-0.020
2746,0.020,-0.020
2747,0.020,-0.005
2748,0.020,-0.010
2749,0.020,-0.015
2750,0.020,-0.025
2751,0.020,-0.020
2752,0.020,-0.005
2753,0.025,0.010
2754,0.035,0.035
2755,0.040,0.050
2756,0.035,0.060
2757,0.030,0.050
2758,0.025,0.030
2759,0.015,0.000
2760,0.010,-0.025
2761,0.010,-0.030
2762,0.010,-0.040
2763,0.020,-0.015
2764,0.015,-0.020
2765,0.015,-0.010
2766,0.025,-0.030
2767,0.065,0.015
2768,0.175,0.155
2769,0.335,0.565
2770,0.485,0.970
2771,0.585,1.330
2772,0.605,1.455
2773,0.550,1.415
2774,0.470,1.190
2775,0.355,0.985
2776,0.220,0.660
2777,0.105,0.335
2778,0.030,0.080
2779,-0.010,-0.040
2780,-0.055,-0.160
2781,-0.085,-0.245
2782,-0.095,-0.280
2783,-0.100,-0.300
2784,-0.100,-0.295
2785,-0.095,-0.305
2786,-0.090,-0.285
2787,-0.090,-0.285
2788,-0.095,-0.290
2789,-0.100,-0.315
2790,-0.100,-0.300
2791,-0.100,-0.295
2792,-0.105,-0.300
2793,-0.110,-0.335
2794,-0.115,-0.350
2795,-0.120,-0.360
2796,-0.120,-0.370
2797,-0.125,-0.375
2798,-0.125,-0.390
2799,-0.120,-0.385
2800,-0.105,-0.370
2801,-0.090,-0.310
2802,-0.065,-0.260
2803,-0.035,-0.195
2804,-0.005,-0.120
2805,0.005,-0.045
2806,0.020,-0.015
2807,0.020,0.000
2808,0.020,0.000
2809,0.020,0.000
2810,0.015,0.000
2811,0.015,-0.025
2812,0.015,-0.015
2813,0.015,-0.025
2814,0.015,-0.020
2815,0.015,-0.025
2816,0.015,-0.025
2817,0.015,-0.040
2818,0.015,-0.030
2819,0.015,-0.040
2820,0.015,-0.025
2821,0.020,-0.025
2822,0.015,-0.015
2823,0.015,-0.020
2824,0.015,0.000
2825,0.015,-0.015
2826,0.015,-0.015
2827,0.015,-0.025
2828,0.015,-0.025
2829,0.015,-0.030
2830,0.020,-0.020
2831,0.020,-0.020
2832,0.020,-0.010
2833,0.020,-0.010
2834,0.020,-0.010
2835,0.020,-0.015
2836,0.020,-0.010
2837,0.020,0.000
2838,0.025,0.005
2839,0.030,0.035
2840,0.035,0.055
2841,0.030,0.050
2842,0.025,0.040
2843,0.020,0.010
2844,0.015,-0.005
2845,0.010,-0.030
2846,0.010,-0.040
2847,0.010,-0.050
2848,0.015,-0.030
2849,0.015,-0.035
2850,0.015,-0.020
2851,0.045,-0.025
2852,0.135,0.100
2853,0.280,0.430
2854,0.440,0.855
2855,0.555,1.215
2856,0.600,1.420
2857,0.575,1.425
2858,0.495,1.270
2859,0.395,1.055
2860,0.270,0.775
2861,0.145,0.445
2862,0.050,0.145
2863,0.000,0.005
2864,-0.040,-0.140
2865,-0.075,-0.215
2866,-0.090,-0.290
2867,-0.095,-0.290
2868,-0.100,-0.315
2869,-0.100,-0.300
2870,-0.100,-0.315
2871,-0.095,-0.295
2872,-0.095,-0.305
2873,-0.095,-0.285
2874,-0.095,-0.300
2875,-0.100,-0.300
2876,-0.100,-0.315
2877,-0.105,-0.315
2878,-0.110,-0.325
2879,-0.115,-0.350
2880,-0.125,-0.370
2881,-0.130,-0.380
2882,-0.130,-0.385
2883,-0.125,-0.390
2884,-0.115,-0.375
2885,-0.100,-0.340
2886,-0.075,-0.290
2887,-0.045,-0.225
2888,-0.015,-0.145
2889,0.000,-0.065
2890,0.015,-0.025
2891,0.020,-0.005
2892,0.020,-0.015
2893,0.020,0.000
2894,0.015,-0.020
2895,0.015,-0.020
2896,0.010,-0.035
2897,0.010,-0.005
2898,0.010,-0.045
2899,0.005,-0.025
2900,0.000,-0.050
2901,0.000,-0.040
2902,0.000,-0.070
2903,0.005,-0.045
2904,0.010,-0.060
2905,0.010,-0.045
2906,0.010,-0.040
2907,0.010,-0.025
2908,0.015,-0.025
2909,0.010,-0.025
2910,0.010,-0.045
2911,0.010,-0.045
2912,0.010,-0.045
2913,0.010,-0.030
2914,0.015,-0.030
2915,0.010,-0.040
2916,0.010,-0.030
2917,0.010,-0.025
2918,0.015,-0.025
2919,0.015,-0.030
2920,0.020,-0.015
2921,0.025,0.000
2922,0.030,0.025
2923,0.035,0.040
2924,0.030,0.035
2925,0.025,0.025
2926,0.020,0.000
2927,0.015,-0.015
2928,0.015,-0.025
2929,0.010,-0.025
2930,0.010,-0.035
2931,0.010,-0.035
2932,0.010,-0.045
2933,0.010,-0.045
2934,0.030,-0.040
2935,0.100,0.040
2936,0.240,0.320
2937,0.395,0.730
2938,0.530,1.115
2939,0.590,1.365
2940,0.570,1.430
2941,0.500,1.265
2942,0.410,1.080
2943,0.295,0.825
2944,0.165,0.530
2945,0.065,0.165
2946,0.000,0.015
2947,-0.035,-0.120
2948,-0.070,-0.185
2949,-0.085,-0.280
2950,-0.090,-0.275
2951,-0.095,-0.300
2952,-0.100,-0.300
2953,-0.100,-0.315
2954,-0.100,-0.310
2955,-0.100,-0.305
2956,-0.100,-0.290
2957,-0.100,-0.305
2958,-0.105,-0.320
2959,-0.105,-0.325
2960,-0.105,-0.320
2961,-0.110,-0.325
2962,-0.115,-0.350
2963,-0.120,-0.365
2964,-0.125,-0.385
2965,-0.130,-0.395
2966,-0.125,-0.395
2967,-0.115,-0.375
2968,-0.100,-0.335
2969,-0.080,-0.285
2970,-0.060,-0.235
2971,-0.035,-0.190
2972,-0.010,-0.110
2973,0.000,-0.065
2974,0.015,-0.020
2975,0.020,0.000
2976,0.020,0.000
2977,0.015,-0.020
2978,0.015,-0.010
2979,0.010,-0.030
2980,0.010,-0.010
2981,0.010,-0.030
2982,0.015,-0.030
2983,0.010,-0.020
2984,0.010,-0.020
2985,0.010,-0.050
2986,0.010,-0.025
2987,0.010,-0.025
2988,0.005,-0.050
2989,0.005,-0.055
2990,0.005,-0.045
2991,0.010,-0.035
2992,0.015,-0.030
2993,0.015,-0.010
2994,0.015,-0.030
2995,0.015,-0.020
2996,0.015,-0.040
2997,0.015,-0.030
2998,0.015,-0.025
2999,0.015,-0.005
3000,0.015,-0.020
3001,0.015,-0.025
3002,0.015,-0.030
3003,0.015,-0.015
3004,0.015,-0.015
3005,0.020,-0.005
3006,0.030,0.020
3007,0.035,0.050
3008,0.030,0.060
3009,0.025,0.045
3010,0.020,0.020
3011,0.015,-0.010
3012,0.015,-0.030
3013,0.015,-0.030
3014,0.010,-0.030
3015,0.010,-0.040
3016,0.010,-0.035
3017,0.015,-0.025
3018,0.040,-0.025
3019,0.115,0.065
3020,0.250,0.360
3021,0.405,0.770
3022,0.530,1.115
3023,0.590,1.385
3024,0.575,1.410
3025,0.500,1.275
3026,0.405,1.040
3027,0.295,0.830
3028,0.170,0.500
3029,0.065,0.210
3030,0.005,0.000
3031,-0.030,-0.085
3032,-0.065,-0.220
3033,-0.090,-0.265
3034,-0.100,-0.310
3035,-0.105,-0.315
3036,-0.100,-0.315
3037,-0.100,-0.315
3038,-0.100,-0.310
3039,-0.100,-0.320
3040,-0.100,-0.310
3041,-0.100,-0.315
3042,-0.105,-0.325
3043,-0.110,-0.340
3044,-0.105,-0.335
3045,-0.110,-0.335
3046,-0.115,-0.345
3047,-0.120,-0.370
3048,-0.125,-0.385
3049,-0.130,-0.390
3050,-0.120,-0.385
3051,-0.115,-0.375
3052,-0.100,-0.340
3053,-0.080,-0.300
3054,-0.055,-0.245
3055,-0.020,-0.170
3056,0.000,-0.110
3057,0.010,-0.035
3058,0.015,-0.020
3059,0.015,-0.005
3060,0.015,-0.010
3061,0.015,-0.005
3062,0.015,-0.030
3063,0.015,-0.035
3064,0.015,-0.025
3065,0.015,-0.025
3066,0.015,-0.025
3067,0.015,-0.030
3068,0.015,-0.015
3069,0.010,-0.035
3070,0.010,-0.030
3071,0.010,-0.050
3072,0.010,-0.020
3073,0.010,-0.045
3074,0.010,-0.025
3075,0.015,-0.025
3076,0.015,-0.020
3077,0.015,-0.055
3078,0.015,-0.025
3079,0.010,-0.040
3080,0.010,-0.035
3081,0.010,-0.035
3082,0.015,-0.020
3083,0.015,-0.025
3084,0.020,-0.020
3085,0.020,-0.020
3086,0.020,-0.010
3087,0.020,-0.015
3088,0.020,-0.005
3089,0.020,-0.005
3090,0.025,0.000
3091,0.030,0.030
3092,0.035,0.050
3093,0.025,0.050
3094,0.020,0.040
3095,0.015,0.010
3096,0.010,-0.020
3097,0.010,-0.035
3098,0.010,-0.040
3099,0.010,-0.045
3100,0.010,-0.030
3101,0.010,-0.045
3102,0.015,-0.040
3103,0.050,-0.020
3104,0.155,0.140
3105,0.305,0.480
3106,0.450,0.900
3107,0.555,1.245
3108,0.585,1.420
3109,0.545,1.370
3110,0.465,1.205
3111,0.365,0.980
3112,0.240,0.720
3113,0.120,0.370
3114,0.030,0.090
3115,-0.005,-0.035
3116,-0.050,-0.145
3117,-0.080,-0.230
3118,-0.090,-0.295
3119,-0.095,-0.300
3120,-0.100,-0.330
3121,-0.100,-0.310
3122,-0.100,-0.330
3123,-0.100,-0.310
3124,-0.100,-0.315
3125,-0.105,-0.310
3126,-0.100,-0.320
3127,-0.100,-0.290
3128,-0.100,-0.315
3129,-0.110,-0.325
3130,-0.115,-0.345
3131,-0.120,-0.360
3132,-0.125,-0.380
3133,-0.130,-0.390
3134,-0.135,-0.400
3135,-0.125,-0.395
3136,-0.110,-0.375
3137,-0.095,-0.330
3138,-0.070,-0.270
3139,-0.040,-0.215
3140,-0.010,-0.135
3141,0.005,-0.065
3142,0.015,-0.025
3143,0.020,-0.020
3144,0.020,-0.025
3145,0.015,-0.020
3146,0.015,-0.010
3147,0.015,-0.025
3148,0.015,-0.025
3149,0.010,-0.025
3150,0.010,-0.035
3151,0.010,-0.030
3152,0.015,-0.050
3153,0.015,-0.025
3154,0.015,-0.045
3155,0.015,-0.025
3156,0.015,-0.030
3157,0.010,-0.025
3158,0.010,-0.030
3159,0.010,-0.035
3160,0.010,-0.055
3161,0.010,-0.015
3162,0.015,-0.045
3163,0.015,-0.025
3164,0.015,-0.025
3165,0.015,-0.025
3166,0.020,-0.020
3167,0.015,-0.015
3168,0.010,-0.020
3169,0.010,-0.035
3170,0.010,-0.025
3171,0.015,-0.030
3172,0.020,-0.010
3173,0.020,0.000
3174,0.025,0.020
3175,0.030,0.040
3176,0.030,0.060
3177,0.025,0.050
3178,0.015,0.020
3179,0.015,-0.010
3180,0.015,-0.030
3181,0.015,-0.025
3182,0.010,-0.020
3183,0.010,-0.025
3184,0.010,-0.045
3185,0.010,-0.030
3186,0.025,-0.030
3187,0.080,0.020
3188,0.190,0.210
3189,0.345,0.595
3190,0.485,0.985
3191,0.575,1.300
3192,0.590,1.420
3193,0.540,1.350
3194,0.450,1.165
3195,0.345,0.945
3196,0.220,0.650
3197,0.100,0.300
3198,0.030,0.080
3199,-0.010,-0.035
3200,-0.065,-0.160
3201,-0.085,-0.295
3202,-0.100,-0.290
3203,-0.105,-0.330
3204,-0.100,-0.295
3205,-0.095,-0.315
3206,-0.095,-0.280
3207,-0.095,-0.310
3208,-0.095,-0.290
3209,-0.100,-0.300
3210,-0.100,-0.305
3211,-0.100,-0.315
3212,-0.100,-0.325
3213,-0.110,-0.345
3214,-0.115,-0.340
3215,-0.120,-0.360
3216,-0.125,-0.370
3217,-0.125,-0.375
3218,-0.130,-0.385
3219,-0.120,-0.385
3220,-0.105,-0.360
3221,-0.085,-0.315
3222,-0.065,-0.265
3223,-0.035,-0.195
3224,-0.005,-0.115
3225,0.010,-0.050
3226,0.020,-0.015
3227,0.020,-0.010
3228,0.020,-0.005
3229,0.020,-0.015
3230,0.020,-0.005
3231,0.015,-0.020
3232,0.015,-0.025
3233,0.015,-0.030
3234,0.015,-0.005
3235,0.010,-0.025
3236,0.010,-0.035
3237,0.010,-0.055
3238,0.015,-0.025
3239,0.015,-0.050
3240,0.010,-0.025
3241,0.010,-0.040
3242,0.010,-0.040
3243,0.010,-0.040
3244,0.010,-0.040
3245,0.015,-0.040
3246,0.015,-0.040
3247,0.010,-0.030
3248,0.010,-0.030
3249,0.010,-0.025
3250,0.015,-0.030
3251,0.015,-0.010
3252,0.015,-0.025
3253,0.015,-0.020
3254,0.020,-0.020
3255,0.020,-0.020
3256,0.020,-0.020
3257,0.020,-0.005
3258,0.020,0.000
3259,0.025,0.020
3260,0.030,0.040
3261,0.025,0.040
3262,0.020,0.015
3263,0.015,-0.005
3264,0.010,-0.015
3265,0.005,-0.025
3266,0.000,-0.045
3267,0.000,-0.050
3268,0.005,-0.040
3269,0.005,-0.035
3270,0.015,-0.035
3271,0.065,-0.005
3272,0.170,0.165
3273,0.315,0.520
3274,0.470,0.915
3275,0.570,1.280
3276,0.590,1.430
3277,0.545,1.370
3278,0.460,1.165
3279,0.350,0.960
3280,0.225,0.650
3281,0.110,0.350
3282,0.025,0.045
3283,-0.020,-0.045
3284,-0.060,-0.190
3285,-0.090,-0.245
3286,-0.095,-0.310
3287,-0.100,-0.290
3288,-0.105,-0.330
3289,-0.105,-0.320
3290,-0.105,-0.325
3291,-0.100,-0.295
3292,-0.100,-0.320
3293,-0.100,-0.300
3294,-0.095,-0.300
3295,-0.095,-0.295
3296,-0.100,-0.295
3297,-0.110,-0.330
3298,-0.115,-0.350
3299,-0.120,-0.370
3300,-0.125,-0.385
3301,-0.135,-0.405
3302,-0.135,-0.400
3303,-0.125,-0.395
3304,-0.110,-0.365
3305,-0.090,-0.335
3306,-0.070,-0.280
3307,-0.045,-0.215
3308,-0.020,-0.150
3309,0.000,-0.085
3310,0.005,-0.040
3311,0.015,-0.010
3312,0.020,-0.010
3313,0.020,0.000
3314,0.015,-0.015
3315,0.010,-0.010
3316,0.010,-0.030
3317,0.010,-0.040
3318,0.015,-0.040
3319,0.010,-0.025
3320,0.005,-0.030
3321,0.005,-0.045
3322,0.010,-0.045
3323,0.010,-0.040
3324,0.010,-0.025
3325,0.010,-0.045
3326,0.010,-0.050
3327,0.015,-0.045
3328,0.020,-0.010
3329,0.015,-0.005
3330,0.010,-0.020
3331,0.010,-0.050
3332,0.010,-0.020
3333,0.015,-0.030
3334,0.020,-0.025
3335,0.015,-0.030
3336,0.015,-0.005
3337,0.015,-0.015
3338,0.015,-0.025
3339,0.020,-0.025
3340,0.020,0.000
3341,0.025,0.005
3342,0.030,0.040
3343,0.040,0.065
3344,0.045,0.075
3345,0.035,0.065
3346,0.020,0.035
3347,0.015,0.005
3348,0.010,-0.015
3349,0.010,-0.035
3350,0.010,-0.040
3351,0.015,-0.030
3352,0.015,-0.025
3353,0.015,-0.025
3354,0.020,-0.025
3355,0.075,0.010
3356,0.195,0.230
3357,0.350,0.615
3358,0.490,1.005
3359,0.570,1.285
3360,0.580,1.420
3361,0.530,1.340
3362,0.445,1.150
3363,0.345,0.915
3364,0.215,0.680
3365,0.095,0.300
3366,0.025,0.060
3367,-0.015,-0.065
3368,-0.055,-0.150
3369,-0.085,-0.250
3370,-0.100,-0.290
3371,-0.100,-0.305
3372,-0.100,-0.310
3373,-0.100,-0.310
3374,-0.095,-0.305
3375,-0.095,-0.270
3376,-0.095,-0.285
3377,-0.100,-0.290
3378,-0.105,-0.320
3379,-0.105,-0.315
3380,-0.110,-0.345
3381,-0.115,-0.335
3382,-0.115,-0.355
3383,-0.125,-0.365
3384,-0.130,-0.390
3385,-0.130,-0.385
3386,-0.130,-0.390
3387,-0.120,-0.375
3388,-0.110,-0.360
3389,-0.095,-0.325
3390,-0.070,-0.275
3391,-0.035,-0.195
3392,-0.010,-0.115
3393,0.005,-0.050
3394,0.015,-0.020
3395,0.015,-0.020
3396,0.020,-0.020
3397,0.020,-0.010
3398,0.020,0.000
3399,0.015,-0.010
3400,0.015,-0.010
3401,0.015,-0.025
3402,0.010,-0.040
3403,0.010,-0.040
3404,0.010,-0.040
3405,0.015,-0.030
3406,0.015,-0.045
3407,0.015,-0.015
3408,0.015,-0.040
3409,0.015,-0.015
3410,0.015,-0.030
3411,0.015,-0.025
3412,0.010,-0.030
3413,0.010,-0.025
3414,0.010,-0.060
3415,0.010,-0.025
3416,0.010,-0.045
3417,0.015,-0.020
3418,0.020,-0.025
3419,0.015,-0.020
3420,0.015,-0.045
3421,0.015,-0.030
3422,0.020,-0.020
3423,0.020,-0.010
3424,0.020,-0.015
3425,0.020,-0.005
3426,0.020,0.015
3427,0.025,0.025
3428,0.030,0.050
3429,0.030,0.055
3430,0.025,0.040
3431,0.020,0.015
3432,0.015,-0.005
3433,0.010,-0.030
3434,0.005,-0.035
3435,0.000,-0.045
3436,0.000,-0.055
3437,0.005,-0.045
3438,0.015,-0.030
3439,0.035,-0.015
3440,0.110,0.055
3441,0.240,0.345
3442,0.400,0.730
3443,0.525,1.125
3444,0.590,1.355
3445,0.570,1.420
3446,0.500,1.260
3447,0.410,1.070
3448,0.295,0.840
3449,0.170,0.530
3450,0.065,0.200
3451,0.000,0.000
3452,-0.035,-0.110
3453,-0.075,-0.215
3454,-0.100,-0.280
3455,-0.100,-0.325
3456,-0.100,-0.305
3457,-0.100,-0.315
3458,-0.100,-0.300
3459,-0.100,-0.325
3460,-0.100,-0.290
3461,-0.100,-0.315
3462,-0.100,-0.305
3463,-0.100,-0.330
3464,-0.105,-0.310
3465,-0.105,-0.335
3466,-0.105,-0.325
3467,-0.110,-0.335
3468,-0.125,-0.350
3469,-0.130,-0.385
3470,-0.135,-0.400
3471,-0.130,-0.400
3472,-0.120,-0.380
3473,-0.110,-0.360
3474,-0.090,-0.315
3475,-0.060,-0.255
3476,-0.030,-0.195
3477,-0.005,-0.115
3478,0.010,-0.050
3479,0.020,-0.015
3480,0.020,-0.010
3481,0.020,-0.005
3482,0.020,0.000
3483,0.020,-0.005
3484,0.020,-0.005
3485,0.020,-0.015
3486,0.015,-0.010
3487,0.010,-0.025
3488,0.010,-0.030
3489,0.010,-0.045
3490,0.010,-0.035
3491,0.010,-0.050
3492,0.010,-0.025
3493,0.010,-0.050
3494,0.010,-0.025
3495,0.015,-0.040
3496,0.015,-0.015
3497,0.015,-0.025
3498,0.015,-0.025
3499,0.015,-0.030
3500,0.020,-0.005
3501,0.020,-0.015
3502,0.015,-0.005
3503,0.015,-0.025
3504,0.015,-0.030
3505,0.015,-0.025
3506,0.015,-0.025
3507,0.015,-0.010
3508,0.020,-0.020
3509,0.020,-0.005
3510,0.025,0.010
3511,0.025,0.040
3512,0.025,0.030
3513,0.030,0.055
3514,0.025,0.040
3515,0.015,0.010
3516,0.015,-0.015
3517,0.015,-0.020
3518,0.015,-0.020
3519,0.015,-0.015
3520,0.015,-0.015
3521,0.015,-0.025
3522,0.015,-0.035
3523,0.025,-0.035
3524,0.080,0.020
3525,0.200,0.235
3526,0.355,0.625
3527,0.490,1.010
3528,0.575,1.310
3529,0.585,1.420
3530,0.535,1.345
3531,0.445,1.150
3532,0.335,0.915
3533,0.210,0.610
3534,0.095,0.280
3535,0.015,0.070
3536,-0.020,-0.070
3537,-0.055,-0.165
3538,-0.080,-0.260
3539,-0.090,-0.255
3540,-0.095,-0.325
3541,-0.095,-0.290
3542,-0.095,-0.310
3543,-0.095,-0.285
3544,-0.100,-0.325
3545,-0.100,-0.275
3546,-0.100,-0.315
3547,-0.105,-0.310
3548,-0.100,-0.320
3549,-0.100,-0.300
3550,-0.105,-0.325
3551,-0.110,-0.335
3552,-0.115,-0.355
3553,-0.120,-0.360
3554,-0.120,-0.365
3555,-0.125,-0.380
3556,-0.115,-0.360
3557,-0.105,-0.345
3558,-0.080,-0.305
3559,-0.055,-0.245
3560,-0.030,-0.180
3561,-0.005,-0.115
3562,0.005,-0.050
3563,0.015,-0.015
3564,0.020,-0.010
3565,0.020,0.000
3566,0.020,0.000
3567,0.020,-0.005
3568,0.020,-0.015
3569,0.015,-0.015
3570,0.015,-0.025
3571,0.015,-0.025
3572,0.015,-0.030
3573,0.015,-0.020
3574,0.015,-0.030
3575,0.010,-0.025
3576,0.010,-0.040
3577,0.015,-0.025
3578,0.015,-0.025
3579,0.015,-0.030
3580,0.015,-0.025
3581,0.015,-0.020
3582,0.015,-0.035
3583,0.015,-0.010
3584,0.015,-0.010
3585,0.015,-0.025
3586,0.015,-0.020
3587,0.015,-0.025
3588,0.015,-0.020
3589,0.015,-0.025
3590,0.015,0.000
3591,0.020,-0.025
3592,0.020,-0.005
3593,0.020,-0.010
3594,0.020,0.000
3595,0.025,0.000
3596,0.035,0.050
3597,0.035,0.050
3598,0.030,0.050
3599,0.025,0.025
3600,0.015,0.000
3601,0.015,-0.020
3602,0.015,-0.030
3603,0.015,-0.025
3604,0.015,-0.020
3605,0.010,-0.030
3606,0.010,-0.040
3607,0.020,-0.030
3608,0.055,0.000
3609,0.150,0.145
3610,0.290,0.475
3611,0.440,0.865
3612,0.550,1.225
3613,0.590,1.400
3614,0.555,1.395
3615,0.475,1.215
3616,0.375,1.020
3617,0.250,0.735
3618,0.125,0.410
3619,0.040,0.115
3620,-0.010,-0.015
3621,-0.050,-0.150
3622,-0.080,-0.225
3623,-0.095,-0.295
3624,-0.095,-0.280
3625,-0.095,-0.305
3626,-0.095,-0.270
3627,-0.095,-0.290
3628,-0.095,-0.295
3629,-0.095,-0.305
3630,-0.095,-0.310
3631,-0.100,-0.315
3632,-0.105,-0.335
3633,-0.110,-0.340
3634,-0.115,-0.340
3635,-0.115,-0.340
3636,-0.115,-0.350
3637,-0.120,-0.355
3638,-0.125,-0.385
3639,-0.125,-0.375
3640,-0.125,-0.390
3641,-0.115,-0.370
3642,-0.100,-0.350
3643,-0.075,-0.290
3644,-0.045,-0.220
3645,-0.015,-0.140
3646,0.005,-0.075
3647,0.010,-0.040
3648,0.015,-0.025
3649,0.015,-0.020
3650,0.015,-0.015
3651,0.015,-0.025
3652,0.020,-0.025
3653,0.015,-0.015
3654,0.010,-0.015
3655,0.005,-0.025
3656,0.000,-0.040
3657,0.000,-0.060
3658,0.000,-0.050
3659,0.000,-0.060
3660,0.000,-0.065
3661,0.000,-0.050
3662,0.000,-0.055
3663,0.000,-0.050
3664,0.000,-0.070
3665,0.005,-0.040
3666,0.010,-0.075
3667,0.015,-0.030
3668,0.015,-0.020
3669,0.010,0.000
3670,0.005,-0.040
3671,0.005,-0.045
3672,0.005,-0.045
3673,0.010,-0.020
3674,0.010,-0.050
3675,0.010,-0.025
3676,0.010,-0.050
3677,0.010,-0.030
3678,0.015,-0.025
3679,0.020,0.000
3680,0.025,0.030
3681,0.030,0.050
3682,0.025,0.045
3683,0.020,0.020
3684,0.015,0.000
3685,0.015,-0.010
3686,0.010,-0.020
3687,0.010,-0.035
3688,0.010,-0.030
3689,0.005,-0.035
3690,0.005,-0.045
3691,0.005,-0.045
3692,0.030,-0.030
3693,0.100,0.050
3694,0.230,0.310
3695,0.380,0.705
3696,0.510,1.075
3697,0.575,1.340
3698,0.565,1.385
3699,0.500,1.265
3700,0.405,1.055
3701,0.290,0.820
3702,0.160,0.500
3703,0.065,0.190
3704,0.000,-0.020
3705,-0.030,-0.090
3706,-0.065,-0.190
3707,-0.095,-0.275
3708,-0.105,-0.325
3709,-0.100,-0.325
3710,-0.100,-0.295
3711,-0.100,-0.290
3712,-0.105,-0.310
3713,-0.105,-0.340
3714,-0.100,-0.290
3715,-0.100,-0.315
3716,-0.100,-0.320
3717,-0.100,-0.325
3718,-0.100,-0.305
3719,-0.105,-0.330
3720,-0.110,-0.335
3721,-0.115,-0.365
3722,-0.125,-0.355
3723,-0.130,-0.390
3724,-0.130,-0.390
3725,-0.125,-0.390
3726,-0.110,-0.355
3727,-0.085,-0.310
3728,-0.060,-0.255
3729,-0.030,-0.180
3730,-0.005,-0.110
3731,0.005,-0.055
3732,0.015,-0.015
3733,0.020,0.000
3734,0.020,-0.005
3735,0.020,-0.005
3736,0.015,-0.010
3737,0.015,-0.020
3738,0.015,-0.020
3739,0.015,-0.015
3740,0.015,-0.005
3741,0.010,-0.020
3742,0.010,-0.020
3743,0.010,-0.035
3744,0.005,-0.020
3745,0.005,-0.045
3746,0.005,-0.030
3747,0.010,-0.045
3748,0.010,-0.030
3749,0.010,-0.040
3750,0.015,-0.010
3751,0.015,-0.020
3752,0.015,-0.020
3753,0.015,-0.025
3754,0.015,-0.010
3755,0.015,-0.025
3756,0.015,-0.010
3757,0.020,-0.020
3758,0.015,0.000
3759,0.015,-0.020
3760,0.015,-0.025
3761,0.015,-0.015
3762,0.015,-0.010
3763,0.015,-0.020
3764,0.015,-0.010
3765,0.020,0.005
3766,0.025,0.010
3767,0.035,0.050
3768,0.035,0.060
3769,0.025,0.055
3770,0.020,0.015
3771,0.015,0.000
3772,0.015,-0.015
3773,0.010,-0.015
3774,0.010,-0.040
3775,0.010,-0.040
3776,0.010,-0.030
3777,0.010,-0.030
3778,0.040,-0.020
3779,0.120,0.080
3780,0.255,0.375
3781,0.405,0.765
3782,0.520,1.130
3783,0.575,1.345
3784,0.560,1.370
3785,0.495,1.235
3786,0.405,1.055
3787,0.290,0.825
3788,0.160,0.500
3789,0.060,0.170
3790,0.000,-0.005
3791,-0.040,-0.115
3792,-0.070,-0.230
3793,-0.090,-0.255
3794,-0.100,-0.300
3795,-0.100,-0.290
3796,-0.100,-0.330
3797,-0.100,-0.290
3798,-0.100,-0.315
3799,-0.100,-0.295
3800,-0.105,-0.330
3801,-0.100,-0.290
3802,-0.100,-0.320
3803,-0.100,-0.315
3804,-0.105,-0.345
3805,-0.110,-0.340
3806,-0.115,-0.355
3807,-0.125,-0.355
3808,-0.130,-0.385
3809,-0.130,-0.390
3810,-0.130,-0.390
3811,-0.115,-0.380
3812,-0.105,-0.355
3813,-0.080,-0.310
3814,-0.055,-0.245
3815,-0.025,-0.170
3816,0.000,-0.085
3817,0.015,-0.020
3818,0.020,0.000
3819,0.020,-0.005
3820,0.020,-0.005
3821,0.020,-0.005
3822,0.015,-0.010
3823,0.015,-0.005
3824,0.015,-0.015
3825,0.015,-0.005
3826,0.015,-0.015
3827,0.015,-0.005
3828,0.015,-0.015
3829,0.010,-0.010
3830,0.005,-0.035
3831,0.005,-0.035
3832,0.010,-0.045
3833,0.015,-0.025
3834,0.010,-0.020
3835,0.010,-0.015
3836,0.010,-0.030
3837,0.015,-0.015
3838,0.015,-0.020
3839,0.015,-0.015
3840,0.015,-0.010
3841,0.015,-0.020
3842,0.020,0.000
3843,0.020,0.000
3844,0.020,0.000
3845,0.020,-0.005
3846,0.015,-0.005
3847,0.015,-0.025
3848,0.015,-0.005
3849,0.020,-0.005
3850,0.020,0.000
3851,0.025,0.000
3852,0.030,0.050
3853,0.035,0.060
3854,0.030,0.065
3855,0.025,0.050
3856,0.015,0.020
3857,0.015,-0.020
3858,0.015,-0.020
3859,0.015,-0.015
3860,0.010,-0.020
3861,0.010,-0.025
3862,0.010,-0.030
3863,0.015,-0.015
3864,0.045,-0.010
3865,0.120,0.095
3866,0.255,0.390
3867,0.405,0.770
3868,0.525,1.140
3869,0.585,1.365
3870,0.565,1.395
3871,0.495,1.250
3872,0.400,1.060
3873,0.285,0.800
3874,0.165,0.505
3875,0.065,0.185
3876,0.000,0.025
3877,-0.040,-0.110
3878,-0.075,-0.210
3879,-0.090,-0.295
3880,-0.095,-0.285
3881,-0.100,-0.295
3882,-0.105,-0.305
3883,-0.105,-0.325
3884,-0.105,-0.315
3885,-0.100,-0.315
3886,-0.095,-0.295
3887,-0.095,-0.295
3888,-0.100,-0.310
3889,-0.105,-0.320
3890,-0.105,-0.325
3891,-0.105,-0.320
3892,-0.110,-0.335
3893,-0.115,-0.345
3894,-0.120,-0.370
3895,-0.125,-0.375
3896,-0.125,-0.385
3897,-0.115,-0.370
3898,-0.100,-0.350
3899,-0.075,-0.295
3900,-0.050,-0.240
3901,-0.020,-0.155
3902,0.000,-0.100
3903,0.005,-0.055
3904,0.015,-0.015
3905,0.020,-0.005
3906,0.020,-0.010
3907,0.015,-0.015
3908,0.015,-0.015
3909,0.015,-0.025
3910,0.020,-0.005
3911,0.015,-0.005
3912,0.015,-0.010
3913,0.015,-0.025
3914,0.010,-0.025
3915,0.010,-0.025
3916,0.010,-0.025
3917,0.010,-0.025
3918,0.010,-0.040
3919,0.010,-0.025
3920,0.010,-0.030
3921,0.010,-0.030
3922,0.015,-0.030
3923,0.020,0.000
3924,0.015,-0.010
3925,0.015,-0.010
3926,0.015,-0.020
3927,0.015,0.000
3928,0.015,-0.020
3929,0.015,0.000
3930,0.020,-0.020
3931,0.015,0.000
3932,0.015,-0.025
3933,0.015,-0.005
3934,0.020,0.000
3935,0.020,0.000
3936,0.020,0.000
3937,0.025,0.030
3938,0.030,0.050
3939,0.035,0.055
3940,0.030,0.065
3941,0.020,0.040
3942,0.015,0.005
3943,0.015,-0.015
3944,0.015,-0.020
3945,0.015,-0.020
3946,0.015,-0.010
3947,0.015,-0.010
3948,0.010,-0.020
3949,0.015,-0.020
3950,0.050,0.000
3951,0.150,0.145
3952,0.300,0.480
3953,0.445,0.880
3954,0.550,1.210
3955,0.585,1.400
3956,0.555,1.380
3957,0.480,1.235
3958,0.380,1.005
3959,0.260,0.760
3960,0.145,0.420
3961,0.050,0.150
3962,-0.005,-0.015
3963,-0.040,-0.135
3964,-0.070,-0.215
3965,-0.090,-0.265
3966,-0.095,-0.290
3967,-0.100,-0.290
3968,-0.100,-0.305
3969,-0.095,-0.300
3970,-0.090,-0.265
3971,-0.090,-0.280
3972,-0.095,-0.285
3973,-0.100,-0.325
3974,-0.105,-0.310
3975,-0.105,-0.335
3976,-0.105,-0.300
3977,-0.105,-0.330
3978,-0.105,-0.330
3979,-0.110,-0.355
3980,-0.115,-0.355
3981,-0.120,-0.370
3982,-0.120,-0.365
3983,-0.110,-0.375
3984,-0.095,-0.325
3985,-0.070,-0.270
3986,-0.040,-0.205
3987,-0.010,-0.135
3988,0.005,-0.065
3989,0.015,-0.020
3990,0.020,-0.015
3991,0.020,-0.010
3992,0.020,-0.005
3993,0.020,-0.005
3994,0.020,-0.010
3995,0.020,-0.005
3996,0.020,-0.010
3997,0.015,-0.015
3998,0.015,-0.015
3999,0.010,-0.030
4000,0.010,-0.030
4001,0.010,-0.035
4002,0.015,-0.025
4003,0.015,-0.040
4004,0.015,-0.020
4005,0.015,-0.050
4006,0.015,-0.025
4007,0.010,-0.035
4008,0.010,-0.025
4009,0.010,-0.045
4010,0.010,-0.035
4011,0.010,-0.045
4012,0.015,-0.010
4013,0.020,-0.010
4014,0.015,0.000
4015,0.010,-0.015
4016,0.010,-0.030
4017,0.010,-0.025
4018,0.010,-0.020
4019,0.015,-0.015
4020,0.015,-0.015
4021,0.020,0.000
4022,0.020,0.000
4023,0.020,0.015
4024,0.025,0.035
4025,0.025,0.050
4026,0.020,0.030
4027,0.015,0.020
4028,0.010,-0.005
4029,0.010,-0.020
4030,0.010,-0.040
4031,0.010,-0.040
4032,0.010,-0.040
4033,0.010,-0.040
4034,0.010,-0.030
4035,0.020,-0.025
4036,0.065,0.005
4037,0.165,0.170
4038,0.310,0.525
4039,0.460,0.910
4040,0.555,1.250
4041,0.580,1.395
4042,0.535,1.350
4043,0.455,1.170
4044,0.350,0.955
4045,0.225,0.680
4046,0.105,0.340
4047,0.020,0.065
4048,-0.020,-0.050
4049,-0.055,-0.160
4050,-0.085,-0.265
4051,-0.095,-0.290
4052,-0.100,-0.330
4053,-0.100,-0.305
4054,-0.100,-0.310
4055,-0.100,-0.280
4056,-0.095,-0.315
4057,-0.095,-0.280
4058,-0.095,-0.320
4059,-0.100,-0.305
4060,-0.100,-0.320
4061,-0.100,-0.305
4062,-0.110,-0.335
4063,-0.115,-0.340
4064,-0.120,-0.360
4065,-0.125,-0.370
4066,-0.130,-0.385
4067,-0.130,-0.390
4068,-0.120,-0.375
4069,-0.110,-0.360
4070,-0.095,-0.335
4071,-0.075,-0.285
4072,-0.050,-0.225
4073,-0.020,-0.160
4074,0.000,-0.080
4075,0.015,-0.020
4076,0.020,0.000
4077,0.020,-0.005
4078,0.015,-0.010
4079,0.015,-0.005
4080,0.015,-0.015
4081,0.015,-0.010
4082,0.015,-0.025
4083,0.015,-0.015
4084,0.015,-0.030
4085,0.010,-0.015
4086,0.010,-0.045
4087,0.010,-0.025
4088,0.010,-0.040
4089,0.010,-0.025
4090,0.010,-0.040
4091,0.020,-0.010
4092,0.015,-0.015
4093,0.015,0.000
4094,0.015,-0.020
4095,0.015,-0.025
4096,0.015,-0.025
4097,0.015,-0.010
4098,0.015,-0.010
4099,0.015,-0.020
4100,0.020,0.000
4101,0.020,0.000
4102,0.020,-0.005
4103,0.020,-0.020
4104,0.020,0.000
4105,0.015,-0.020
4106,0.015,-0.025
4107,0.020,-0.025
4108,0.025,0.020
4109,0.030,0.025
4110,0.035,0.055
4111,0.035,0.055
4112,0.030,0.060
4113,0.025,0.035
4114,0.015,0.015
4115,0.015,-0.005
4116,0.015,-0.010
4117,0.010,-0.015
4118,0.010,-0.025
4119,0.010,-0.025
4120,0.010,-0.030
4121,0.015,-0.025
4122,0.040,-0.015
4123,0.115,0.085
4124,0.250,0.375
4125,0.400,0.755
4126,0.520,1.120
4127,0.580,1.340
4128,0.565,1.400
4129,0.495,1.265
4130,0.400,1.065
4131,0.290,0.810
4132,0.170,0.530
4133,0.065,0.200
4134,0.000,0.005
4135,-0.035,-0.125
4136,-0.065,-0.190
4137,-0.090,-0.280
4138,-0.100,-0.295
4139,-0.100,-0.320
4140,-0.100,-0.290
4141,-0.100,-0.295
4142,-0.100,-0.300
4143,-0.105,-0.310
4144,-0.105,-0.315
4145,-0.100,-0.310
4146,-0.100,-0.290
4147,-0.100,-0.305
4148,-0.105,-0.340
4149,-0.110,-0.345
4150,-0.115,-0.360
4151,-0.120,-0.365
4152,-0.125,-0.380
4153,-0.130,-0.380
4154,-0.135,-0.395
4155,-0.120,-0.370
4156,-0.105,-0.350
4157,-0.085,-0.300
4158,-0.055,-0.245
4159,-0.025,-0.175
4160,-0.005,-0.105
4161,0.005,-0.040
4162,0.015,-0.010
4163,0.020,-0.010
4164,0.020,-0.005
4165,0.020,-0.010
4166,0.020,-0.005
4167,0.015,-0.020
4168,0.015,-0.020
4169,0.015,-0.030
4170,0.015,-0.025
4171,0.015,-0.025
4172,0.015,-0.035
4173,0.015,-0.035
4174,0.015,-0.030
4175,0.015,-0.025
4176,0.015,-0.035
4177,0.010,-0.005
4178,0.010,-0.030
4179,0.010,-0.025
4180,0.015,-0.030
4181,0.015,-0.005
4182,0.015,-0.035
4183,0.015,-0.015
4184,0.020,-0.020
4185,0.020,0.000
4186,0.020,-0.020
4187,0.015,0.000
4188,0.015,-0.025
4189,0.015,-0.015
4190,0.020,-0.020
4191,0.015,-0.005
4192,0.015,-0.025
4193,0.015,-0.015
4194,0.020,0.000
4195,0.025,0.015
4196,0.030,0.035
4197,0.035,0.060
4198,0.035,0.070
4199,0.025,0.060
4200,0.020,0.020
4201,0.015,-0.005
4202,0.015,-0.020
4203,0.015,-0.020
4204,0.015,-0.015
4205,0.015,-0.020
4206,0.015,-0.025
4207,0.015,-0.020
4208,0.020,-0.025
4209,0.070,0.020
4210,0.175,0.185
4211,0.315,0.545
4212,0.465,0.915
4213,0.565,1.270
4214,0.585,1.410
4215,0.540,1.360
4216,0.460,1.160
4217,0.350,0.975
4218,0.230,0.670
4219,0.115,0.360
4220,0.035,0.090
4221,-0.010,-0.035
4222,-0.060,-0.175
4223,-0.085,-0.250
4224,-0.095,-0.290
4225,-0.095,-0.300
4226,-0.095,-0.295
4227,-0.095,-0.290
4228,-0.095,-0.290
4229,-0.095,-0.300
4230,-0.095,-0.280
4231,-0.095,-0.295
4232,-0.095,-0.275
4233,-0.100,-0.300
4234,-0.110,-0.315
4235,-0.115,-0.355
4236,-0.120,-0.350
4237,-0.120,-0.360
4238,-0.125,-0.365
4239,-0.130,-0.380
4240,-0.125,-0.365
4241,-0.120,-0.370
4242,-0.110,-0.355
4243,-0.090,-0.325
4244,-0.065,-0.280
4245,-0.035,-0.215
4246,-0.010,-0.135
4247,0.005,-0.060
4248,0.015,-0.020
4249,0.020,0.000
4250,0.015,0.000
4251,0.015,-0.005
4252,0.015,-0.025
4253,0.015,-0.030
4254,0.015,-0.025
4255,0.010,-0.020
4256,0.010,-0.020
4257,0.010,-0.035
4258,0.015,-0.020
4259,0.010,-0.030
4260,0.010,-0.025
4261,0.010,-0.040
4262,0.015,-0.020
4263,0.015,-0.045
4264,0.015,-0.025
4265,0.015,-0.020
4266,0.015,-0.005
4267,0.015,-0.020
4268,0.015,-0.010
4269,0.015,-0.030
4270,0.010,-0.010
4271,0.010,-0.020
4272,0.010,-0.015
4273,0.015,-0.010
4274,0.020,-0.015
4275,0.020,-0.015
4276,0.020,-0.015
4277,0.020,-0.005
4278,0.020,-0.005
4279,0.020,-0.005
4280,0.025,-0.005
4281,0.025,0.015
4282,0.030,0.030
4283,0.035,0.055
4284,0.035,0.060
4285,0.025,0.045
4286,0.020,0.010
4287,0.020,0.000
4288,0.020,-0.005
4289,0.015,-0.015
4290,0.010,-0.025
4291,0.010,-0.035
4292,0.010,-0.030
4293,0.010,-0.035
4294,0.030,-0.020
4295,0.095,0.035
4296,0.215,0.275
4297,0.370,0.660
4298,0.510,1.060
4299,0.580,1.345
4300,0.585,1.440
4301,0.525,1.330
4302,0.435,1.130
4303,0.325,0.900
4304,0.200,0.595
4305,0.085,0.285
4306,0.015,0.035
4307,-0.030,-0.080
4308,-0.065,-0.210
4309,-0.090,-0.240
4310,-0.095,-0.295
4311,-0.100,-0.290
4312,-0.100,-0.310
4313,-0.100,-0.295
4314,-0.100,-0.320
4315,-0.095,-0.270
4316,-0.095,-0.290
4317,-0.095,-0.280
4318,-0.095,-0.300
4319,-0.100,-0.310
4320,-0.105,-0.335
4321,-0.110,-0.330
4322,-0.115,-0.350
4323,-0.115,-0.360
4324,-0.120,-0.380
4325,-0.125,-0.390
4326,-0.125,-0.375
4327,-0.115,-0.370
4328,-0.095,-0.340
4329,-0.080,-0.295
4330,-0.060,-0.250
4331,-0.030,-0.200
4332,-0.005,-0.115
4333,0.005,-0.050
4334,0.015,-0.020
4335,0.020,0.000
4336,0.020,0.000
4337,0.020,0.000
4338,0.015,-0.015
4339,0.015,-0.005
4340,0.015,-0.020
4341,0.015,-0.020
4342,0.015,-0.040
4343,0.015,-0.025
4344,0.015,-0.040
4345,0.015,-0.020
4346,0.010,-0.040
4347,0.010,-0.035
4348,0.010,-0.035
4349,0.010,-0.030
4350,0.015,-0.045
4351,0.015,-0.025
4352,0.015,-0.025
4353,0.015,-0.025
4354,0.020,-0.015
4355,0.015,-0.020
4356,0.015,-0.025
4357,0.015,-0.020
4358,0.015,-0.010
4359,0.015,-0.025
4360,0.015,-0.005
4361,0.020,-0.010
4362,0.020,0.000
4363,0.020,-0.005
4364,0.020,0.000
4365,0.020,-0.005
4366,0.020,0.010
4367,0.025,0.025
4368,0.030,0.050
4369,0.035,0.045
4370,0.030,0.045
4371,0.025,0.030
4372,0.015,0.000
4373,0.010,-0.030
4374,0.010,-0.050
4375,0.010,-0.045
4376,0.010,-0.025
4377,0.015,-0.015
4378,0.015,-0.015
4379,0.040,-0.015
4380,0.115,0.070
4381,0.245,0.340
4382,0.395,0.740
4383,0.520,1.115
4384,0.580,1.355
4385,0.570,1.390
4386,0.510,1.280
4387,0.430,1.090
4388,0.320,0.900
4389,0.190,0.580
4390,0.075,0.270
4391,0.000,-0.005
4392,-0.035,-0.100
4393,-0.075,-0.235
4394,-0.095,-0.270
4395,-0.100,-0.330
4396,-0.105,-0.315
4397,-0.105,-0.335
4398,-0.105,-0.295
4399,-0.100,-0.305
4400,-0.095,-0.290
4401,-0.095,-0.300
4402,-0.100,-0.305
4403,-0.105,-0.320
4404,-0.105,-0.325
4405,-0.105,-0.325
4406,-0.105,-0.335
4407,-0.110,-0.345
4408,-0.115,-0.365
4409,-0.125,-0.375
4410,-0.140,-0.400
4411,-0.135,-0.395
4412,-0.125,-0.390
4413,-0.105,-0.360
4414,-0.085,-0.320
4415,-0.055,-0.250
4416,-0.030,-0.180
4417,-0.010,-0.115
4418,0.000,-0.065
4419,0.010,-0.025
4420,0.020,-0.005
4421,0.015,-0.015
4422,0.010,-0.015
4423,0.010,-0.035
4424,0.010,-0.040
4425,0.010,-0.050
4426,0.010,-0.040
4427,0.010,-0.040
4428,0.010,-0.050
4429,0.010,-0.045
4430,0.010,-0.040
4431,0.010,-0.040
4432,0.010,-0.050
4433,0.010,-0.025
4434,0.010,-0.040
4435,0.010,-0.025
4436,0.010,-0.030
4437,0.015,-0.015
4438,0.015,-0.040
4439,0.015,-0.030
4440,0.015,-0.040
4441,0.015,-0.005
4442,0.015,-0.035
4443,0.015,-0.005
4444,0.015,-0.025
4445,0.015,-0.005
4446,0.020,-0.020
4447,0.020,-0.005
4448,0.020,-0.015
4449,0.020,0.000
4450,0.020,0.000
4451,0.025,0.010
4452,0.030,0.035
4453,0.035,0.050
4454,0.025,0.050
4455,0.020,0.030
4456,0.020,0.005
4457,0.015,-0.010
4458,0.015,-0.025
4459,0.015,-0.025
4460,0.015,-0.020
4461,0.015,-0.015
4462,0.015,-0.010
4463,0.020,-0.005
4464,0.055,0.000
4465,0.145,0.140
4466,0.285,0.460
4467,0.430,0.855
4468,0.540,1.185
4469,0.580,1.380
4470,0.550,1.360
4471,0.475,1.225
4472,0.375,0.995
4473,0.250,0.745
4474,0.125,0.385
4475,0.035,0.095
4476,0.000,-0.020
4477,-0.040,-0.110
4478,-0.075,-0.230
4479,-0.090,-0.285
4480,-0.100,-0.285
4481,-0.100,-0.290
4482,-0.105,-0.310
4483,-0.105,-0.315
4484,-0.100,-0.305
4485,-0.095,-0.295
4486,-0.095,-0.275
4487,-0.095,-0.300
4488,-0.095,-0.290
4489,-0.100,-0.325
4490,-0.105,-0.330
4491,-0.110,-0.355
4492,-0.115,-0.345
4493,-0.125,-0.370
4494,-0.130,-0.385
4495,-0.135,-0.400
4496,-0.130,-0.395
4497,-0.120,-0.395
4498,-0.100,-0.350
4499,-0.075,-0.285
4500,-0.050,-0.225
4501,-0.020,-0.160
4502,0.000,-0.095
4503,0.010,-0.030
4504,0.020,-0.005
4505,0.015,-0.010
4506,0.015,-0.020
4507,0.020,-0.015
4508,0.020,-0.010
4509,0.015,-0.015
4510,0.015,-0.020
4511,0.015,-0.035
4512,0.015,-0.025
4513,0.010,-0.030
4514,0.005,-0.020
4515,0.005,-0.050
4516,0.005,-0.030
4517,0.010,-0.040
4518,0.010,-0.025
4519,0.010,-0.045
4520,0.015,0.000
4521,0.015,-0.030
4522,0.015,-0.010
4523,0.015,-0.030
4524,0.015,-0.025
4525,0.015,-0.030
4526,0.015,-0.010
4527,0.015,-0.025
4528,0.015,-0.010
4529,0.020,-0.020
4530,0.020,-0.015
4531,0.020,-0.015
4532,0.015,-0.010
4533,0.015,-0.020
4534,0.015,-0.015
4535,0.020,-0.005
4536,0.025,0.000
4537,0.030,0.035
4538,0.030,0.050
4539,0.035,0.065
4540,0.030,0.050
4541,0.025,0.030
4542,0.020,0.000
4543,0.015,-0.010
4544,0.015,-0.020
4545,0.015,-0.025
4546,0.015,-0.025
4547,0.015,-0.030
4548,0.015,-0.030
4549,0.020,-0.030
4550,0.050,-0.005
4551,0.140,0.110
4552,0.280,0.440
4553,0.435,0.825
4554,0.550,1.220
4555,0.590,1.400
4556,0.555,1.380
4557,0.480,1.200
4558,0.385,1.005
4559,0.265,0.755
4560,0.140,0.435
4561,0.045,0.125
4562,0.000,-0.015
4563,-0.040,-0.140
4564,-0.075,-0.240
4565,-0.095,-0.270
4566,-0.100,-0.300
4567,-0.105,-0.305
4568,-0.105,-0.335
4569,-0.100,-0.295
4570,-0.090,-0.295
4571,-0.090,-0.270
4572,-0.100,-0.320
4573,-0.105,-0.330
4574,-0.100,-0.320
4575,-0.100,-0.300
4576,-0.110,-0.330
4577,-0.115,-0.340
4578,-0.125,-0.370
4579,-0.130,-0.385
4580,-0.130,-0.390
4581,-0.125,-0.390
4582,-0.120,-0.385
4583,-0.110,-0.370
4584,-0.095,-0.340
4585,-0.070,-0.280
4586,-0.035,-0.205
4587,-0.015,-0.135
4588,0.000,-0.070
4589,0.005,-0.045
4590,0.015,-0.030
4591,0.020,-0.005
4592,0.015,0.000
4593,0.015,-0.015
4594,0.015,-0.035
4595,0.015,-0.015
4596,0.015,-0.035
4597,0.015,-0.015
4598,0.015,-0.020
4599,0.015,-0.010
4600,0.015,-0.035
4601,0.015,-0.005
4602,0.015,-0.035
4603,0.020,-0.030
4604,0.015,-0.020
4605,0.015,-0.005
4606,0.015,-0.030
4607,0.020,-0.025
4608,0.020,-0.025
4609,0.020,-0.005
4610,0.020,-0.005
4611,0.015,-0.015
4612,0.015,-0.010
4613,0.015,-0.020
4614,0.020,-0.025
4615,0.020,-0.020
4616,0.020,0.000
4617,0.020,-0.015
4618,0.020,-0.010
4619,0.020,-0.005
4620,0.020,0.000
4621,0.020,-0.010
4622,0.020,0.005
4623,0.025,0.010
4624,0.030,0.040
4625,0.035,0.055
4626,0.035,0.065
4627,0.025,0.055
4628,0.015,0.020
4629,0.015,-0.010
4630,0.015,-0.025
4631,0.015,-0.020
4632,0.015,-0.015
4633,0.015,-0.020
4634,0.015,-0.030
4635,0.020,-0.025
4636,0.050,-0.010
4637,0.140,0.110
4638,0.285,0.440
4639,0.440,0.850
4640,0.560,1.220
4641,0.595,1.415
4642,0.560,1.410
4643,0.485,1.225
4644,0.385,1.025
4645,0.260,0.745
4646,0.135,0.440
4647,0.045,0.135
4648,-0.005,-0.010
4649,-0.050,-0.160
4650,-0.080,-0.225
4651,-0.085,-0.270
4652,-0.095,-0.275
4653,-0.100,-0.325
4654,-0.100,-0.305
4655,-0.100,-0.315
4656,-0.095,-0.290
4657,-0.095,-0.290
4658,-0.095,-0.290
4659,-0.100,-0.310
4660,-0.100,-0.305
4661,-0.100,-0.300
4662,-0.100,-0.305
4663,-0.110,-0.330
4664,-0.115,-0.340
4665,-0.120,-0.350
4666,-0.125,-0.375
4667,-0.125,-0.360
4668,-0.120,-0.375
4669,-0.110,-0.365
4670,-0.095,-0.335
4671,-0.075,-0.285
4672,-0.045,-0.225
4673,-0.015,-0.145
4674,0.000,-0.070
4675,0.010,-0.030
4676,0.020,-0.010
4677,0.020,-0.010
4678,0.020,0.000
4679,0.015,0.000
4680,0.015,-0.010
4681,0.015,-0.030
4682,0.015,-0.020
4683,0.015,-0.035
4684,0.015,-0.025
4685,0.010,-0.025
4686,0.010,-0.040
4687,0.010,-0.040
4688,0.010,-0.040
4689,0.010,-0.035
4690,0.010,-0.025
4691,0.010,-0.025
4692,0.015,-0.030
4693,0.015,-0.015
4694,0.015,-0.020
4695,0.015,-0.020
4696,0.015,-0.020
4697,0.015,0.000
4698,0.015,-0.020
4699,0.015,0.000
4700,0.015,-0.020
4701,0.020,0.000
4702,0.020,-0.015
4703,0.020,-0.005
4704,0.020,-0.015
4705,0.020,-0.005
4706,0.020,-0.010
4707,0.020,0.005
4708,0.020,0.015
4709,0.025,0.030
4710,0.030,0.045
4711,0.035,0.060
4712,0.030,0.065
4713,0.020,0.045
4714,0.015,0.005
4715,0.015,-0.015
4716,0.015,-0.025
4717,0.015,-0.025
4718,0.015,-0.020
4719,0.015,-0.015
4720,0.015,-0.015
4721,0.020,-0.005
4722,0.045,-0.005
4723,0.120,0.090
4724,0.260,0.385
4725,0.415,0.790
4726,0.535,1.140
4727,0.595,1.405
4728,0.575,1.425
4729,0.505,1.285
4730,0.405,1.065
4731,0.285,0.820
4732,0.160,0.480
4733,0.060,0.175
4734,0.000,0.000
4735,-0.035,-0.080
4736,-0.075,-0.220
4737,-0.085,-0.265
4738,-0.090,-0.300
4739,-0.095,-0.290
4740,-0.095,-0.290
4741,-0.095,-0.290
4742,-0.095,-0.275
4743,-0.095,-0.300
4744,-0.095,-0.285
4745,-0.095,-0.300
4746,-0.095,-0.285
4747,-0.095,-0.305
4748,-0.100,-0.315
4749,-0.105,-0.335
4750,-0.105,-0.330
4751,-0.110,-0.345
4752,-0.115,-0.350
4753,-0.120,-0.370
4754,-0.125,-0.365
4755,-0.115,-0.365
4756,-0.100,-0.340
4757,-0.070,-0.280
4758,-0.045,-0.215
4759,-0.020,-0.150
4760,0.000,-0.095
4761,0.010,-0.040
4762,0.020,-0.010
4763,0.020,0.000
4764,0.020,-0.010
4765,0.020,-0.010
4766,0.015,-0.015
4767,0.015,-0.020
4768,0.015,-0.025
4769,0.015,-0.025
4770,0.015,-0.030
4771,0.010,-0.050
4772,0.010,-0.035
4773,0.010,-0.055
4774,0.010,-0.025
4775,0.010,-0.035
4776,0.010,-0.035
4777,0.010,-0.060
4778,0.010,-0.025
4779,0.010,-0.065
4780,0.010,-0.030
4781,0.010,-0.035
4782,0.015,-0.020
4783,0.015,-0.020
4784,0.015,-0.025
4785,0.015,-0.030
4786,0.015,-0.020
4787,0.015,-0.030
4788,0.015,-0.035
4789,0.015,-0.035
4790,0.015,-0.035
4791,0.015,-0.030
4792,0.015,-0.015
4793,0.020,0.000
4794,0.025,0.000
4795,0.025,0.025
4796,0.025,0.030
4797,0.025,0.040
4798,0.020,0.030
4799,0.020,0.005
4800,0.015,-0.010
4801,0.010,-0.030
4802,0.010,-0.040
4803,0.010,-0.040
4804,0.010,-0.030
4805,0.010,-0.030
4806,0.015,-0.025
4807,0.020,-0.040
4808,0.060,-0.005
4809,0.160,0.140
4810,0.310,0.505
4811,0.460,0.900
4812,0.560,1.255
4813,0.585,1.415
4814,0.545,1.370
4815,0.460,1.175
4816,0.355,0.970
4817,0.230,0.685
4818,0.100,0.325
4819,0.025,0.065
4820,-0.015,-0.060
4821,-0.055,-0.150
4822,-0.080,-0.245
4823,-0.090,-0.275
4824,-0.095,-0.295
4825,-0.095,-0.270
4826,-0.095,-0.305
4827,-0.100,-0.290
4828,-0.100,-0.315
4829,-0.100,-0.295
4830,-0.095,-0.305
4831,-0.090,-0.270
4832,-0.095,-0.300
4833,-0.100,-0.300
4834,-0.105,-0.320
4835,-0.110,-0.335
4836,-0.120,-0.365
4837,-0.125,-0.365
4838,-0.125,-0.375
4839,-0.120,-0.375
4840,-0.115,-0.365
4841,-0.105,-0.355
4842,-0.090,-0.335
4843,-0.070,-0.280
4844,-0.040,-0.205
4845,-0.010,-0.145
4846,0.005,-0.075
4847,0.015,-0.025
4848,0.020,-0.010
4849,0.020,0.000
4850,0.020,-0.010
4851,0.020,-0.005
4852,0.015,-0.020
4853,0.015,-0.015
4854,0.015,-0.025
4855,0.015,-0.005
4856,0.015,-0.025
4857,0.015,-0.005
4858,0.015,-0.030
4859,0.015,-0.020
4860,0.015,-0.045
4861,0.015,-0.020
4862,0.015,-0.035
4863,0.020,-0.020
4864,0.020,-0.025
4865,0.015,-0.015
4866,0.015,-0.040
4867,0.015,-0.040
4868,0.015,-0.030
4869,0.020,-0.005
4870,0.020,0.000
4871,0.020,-0.010
4872,0.020,-0.005
4873,0.015,-0.015
4874,0.015,0.000
4875,0.015,-0.025
4876,0.015,-0.010
4877,0.015,-0.020
4878,0.015,-0.005
4879,0.020,0.000
4880,0.025,0.020
4881,0.025,0.025
4882,0.025,0.030
4883,0.025,0.040
4884,0.030,0.050
4885,0.030,0.040
4886,0.025,0.030
4887,0.020,0.010
4888,0.015,-0.025
4889,0.015,-0.035
4890,0.015,-0.030
4891,0.015,-0.025
4892,0.015,-0.030
4893,0.015,-0.025
4894,0.030,-0.020
4895,0.080,0.025
4896,0.195,0.215
4897,0.350,0.600
4898,0.485,1.025
4899,0.565,1.295
4900,0.575,1.415
4901,0.525,1.310
4902,0.440,1.140
4903,0.335,0.915
4904,0.210,0.650
4905,0.095,0.300
4906,0.020,0.090
4907,-0.015,-0.065
4908,-0.055,-0.150
4909,-0.085,-0.270
4910,-0.095,-0.280
4911,-0.100,-0.310
4912,-0.100,-0.305
4913,-0.100,-0.315
4914,-0.095,-0.295
4915,-0.095,-0.290
4916,-0.100,-0.300
4917,-0.100,-0.310
4918,-0.100,-0.315
4919,-0.105,-0.315
4920,-0.105,-0.335
4921,-0.110,-0.345
4922,-0.110,-0.345
4923,-0.115,-0.340
4924,-0.120,-0.365
4925,-0.125,-0.380
4926,-0.130,-0.385
4927,-0.120,-0.375
4928,-0.110,-0.365
4929,-0.090,-0.330
4930,-0.065,-0.270
4931,-0.035,-0.205
4932,-0.010,-0.125
4933,0.005,-0.065
4934,0.015,-0.025
4935,0.020,-0.015
4936,0.020,-0.005
4937,0.015,-0.010
4938,0.015,0.000
4939,0.015,-0.025
4940,0.015,-0.025
4941,0.015,-0.030
4942,0.020,-0.015
4943,0.015,-0.010
4944,0.015,-0.025
4945,0.015,-0.030
4946,0.015,-0.025
4947,0.015,-0.025
4948,0.015,-0.035
4949,0.015,-0.025
4950,0.015,-0.025
4951,0.015,-0.005
4952,0.010,-0.040
4953,0.010,-0.025
4954,0.010,-0.045
4955,0.015,-0.020
4956,0.015,-0.030
4957,0.015,-0.005
4958,0.020,-0.015
4959,0.015,-0.005
4960,0.015,-0.015
4961,0.015,0.005
4962,0.015,0.000
4963,0.015,-0.010
4964,0.015,-0.020
4965,0.015,-0.015
4966,0.020,-0.020
4967,0.020,-0.005
4968,0.020,0.005
4969,0.025,0.010
4970,0.030,0.025
4971,0.035,0.045
4972,0.035,0.055
4973,0.025,0.035
4974,0.020,0.010
4975,0.015,-0.005
4976,0.015,-0.025
4977,0.015,-0.025
4978,0.015,-0.020
4979,0.015,-0.005
4980,0.015,-0.025
4981,0.015,-0.030
4982,0.025,-0.030
4983,0.080,0.035
4984,0.200,0.225
4985,0.360,0.630
4986,0.500,1.030
4987,0.580,1.340
4988,0.575,1.420
4989,0.515,1.315
4990,0.440,1.110
4991,0.335,0.925
4992,0.210,0.615
4993,0.090,0.285
4994,0.020,0.050
4995,-0.015,-0.060
4996,-0.055,-0.175
4997,-0.080,-0.235
4998,-0.090,-0.280
4999,-0.090,-0.290
5000,-0.090,-0.275
5001,-0.095,-0.300
5002,-0.100,-0.305
5003,-0.100,-0.315
5004,-0.100,-0.310
5005,-0.100,-0.315
5006,-0.100,-0.300
5007,-0.100,-0.315
5008,-0.105,-0.305
5009,-0.105,-0.325
5010,-0.105,-0.330
5011,-0.110,-0.340
5012,-0.120,-0.345
5013,-0.125,-0.365
5014,-0.120,-0.380
5015,-0.110,-0.370
5016,-0.095,-0.335
5017,-0.080,-0.290
5018,-0.060,-0.245
5019,-0.035,-0.195
5020,-0.010,-0.140
5021,0.005,-0.060
5022,0.020,-0.015
5023,0.020,-0.005
5024,0.020,-0.010
5025,0.020,-0.005
5026,0.015,0.000
5027,0.015,-0.015
5028,0.015,-0.010
5029,0.015,-0.030
5030,0.015,-0.015
5031,0.015,-0.040
5032,0.015,-0.020
5033,0.015,-0.040
5034,0.015,-0.015
5035,0.015,-0.045
5036,0.010,-0.025
5037,0.010,-0.060
5038,0.010,-0.035
5039,0.015,-0.025
5040,0.015,-0.020
5041,0.015,-0.030
5042,0.015,-0.025
5043,0.015,-0.030
5044,0.015,-0.025
5045,0.015,-0.035
5046,0.015,-0.020
5047,0.015,-0.020
5048,0.015,-0.025
5049,0.015,-0.025
5050,0.015,-0.025
5051,0.015,-0.010
5052,0.015,-0.010
5053,0.015,-0.010
5054,0.015,-0.010
5055,0.020,0.000
5056,0.030,0.025
5057,0.035,0.045
5058,0.030,0.045
5059,0.025,0.035
5060,0.020,0.030
5061,0.015,0.000
5062,0.015,-0.015
5063,0.015,-0.035
5064,0.015,-0.035
5065,0.015,-0.050
5066,0.015,-0.010
5067,0.020,-0.015
5068,0.020,-0.005
5069,0.045,-0.010
5070,0.120,0.080
5071,0.260,0.385
5072,0.420,0.780
5073,0.545,1.160
5074,0.600,1.405
5075,0.580,1.440
5076,0.505,1.270
5077,0.400,1.065
5078,0.280,0.800
5079,0.155,0.495
5080,0.055,0.155
5081,0.000,0.000
5082,-0.040,-0.125
5083,-0.075,-0.205
5084,-0.090,-0.295
5085,-0.095,-0.285
5086,-0.090,-0.280
5087,-0.090,-0.260
5088,-0.095,-0.295
5089,-0.100,-0.305
5090,-0.095,-0.310
5091,-0.095,-0.290
5092,-0.095,-0.285
5093,-0.100,-0.300
5094,-0.105,-0.325
5095,-0.105,-0.325
5096,-0.110,-0.330
5097,-0.115,-0.345
5098,-0.120,-0.355
5099,-0.120,-0.365
5100,-0.125,-0.370
5101,-0.120,-0.370
5102,-0.110,-0.355
5103,-0.095,-0.330
5104,-0.075,-0.295
5105,-0.050,-0.230
5106,-0.025,-0.160
5107,0.000,-0.080
5108,0.010,-0.035
5109,0.020,0.000
5110,0.020,0.000
5111,0.020,0.000
5112,0.020,-0.020
5113,0.020,0.000
5114,0.015,-0.020
5115,0.015,-0.005
5116,0.015,-0.030
5117,0.015,-0.020
5118,0.015,-0.035
5119,0.015,-0.025
5120,0.015,-0.040
5121,0.015,-0.025
5122,0.015,-0.050
5123,0.015,-0.025
5124,0.015,-0.030
5125,0.015,-0.025
5126,0.015,-0.025
5127,0.015,-0.025
5128,0.015,-0.020
5129,0.015,-0.030
5130,0.015,-0.015
5131,0.015,-0.020
5132,0.015,-0.020
5133,0.015,-0.035
5134,0.015,-0.030
5135,0.015,-0.030
5136,0.015,-0.020
5137,0.015,-0.020
5138,0.015,-0.020
5139,0.015,-0.030
5140,0.015,-0.030
5141,0.020,-0.015
5142,0.020,0.000
5143,0.020,0.005
5144,0.025,0.020
5145,0.030,0.050
5146,0.030,0.045
5147,0.025,0.040
5148,0.020,0.010
5149,0.010,-0.010
5150,0.010,-0.035
5151,0.010,-0.045
5152,0.005,-0.045
5153,0.005,-0.050
5154,0.005,-0.045
5155,0.010,-0.045
5156,0.035,-0.020
5157,0.095,0.025
5158,0.210,0.290
5159,0.365,0.645
5160,0.505,1.070
5161,0.580,1.330
5162,0.575,1.430
5163,0.520,1.275
5164,0.425,1.120
5165,0.315,0.855
5166,0.190,0.585
5167,0.075,0.240
5168,0.005,0.030
5169,-0.035,-0.110
5170,-0.070,-0.195
5171,-0.095,-0.290
5172,-0.100,-0.305
5173,-0.105,-0.325
5174,-0.100,-0.310
5175,-0.095,-0.295
5176,-0.095,-0.290
5177,-0.100,-0.295
5178,-0.105,-0.325
5179,-0.100,-0.305
5180,-0.100,-0.295
5181,-0.105,-0.310
5182,-0.105,-0.330
5183,-0.110,-0.330
5184,-0.115,-0.335
5185,-0.120,-0.345
5186,-0.125,-0.370
5187,-0.125,-0.385
5188,-0.120,-0.380
5189,-0.110,-0.370
5190,-0.095,-0.340
5191,-0.080,-0.310
5192,-0.060,-0.255
5193,-0.040,-0.215
5194,-0.010,-0.125
5195,0.000,-0.060
5196,0.015,0.000
5197,0.020,-0.005
5198,0.020,0.000
5199,0.020,-0.015
5200,0.015,-0.005
5201,0.015,-0.015
5202,0.015,-0.010
5203,0.015,-0.010
5204,0.015,-0.020
5205,0.015,-0.020
5206,0.015,-0.025
5207,0.010,-0.025
5208,0.010,-0.040
5209,0.015,-0.005
5210,0.015,-0.020
5211,0.015,0.000
5212,0.015,-0.025
5213,0.015,-0.015
5214,0.015,-0.030
5215,0.015,-0.005
5216,0.015,-0.030
5217,0.020,-0.005
5218,0.020,-0.015
5219,0.015,-0.010
5220,0.015,-0.020
5221,0.015,-0.010
5222,0.020,-0.005
5223,0.020,-0.005
5224,0.020,0.000
5225,0.020,0.000
5226,0.020,0.000
5227,0.020,0.000
5228,0.020,0.010
5229,0.020,0.010
5230,0.020,0.010
5231,0.025,0.015
5232,0.030,0.025
5233,0.040,0.060
5234,0.035,0.065
5235,0.025,0.050
5236,0.015,0.000
5237,0.015,-0.010
5238,0.015,-0.035
5239,0.015,-0.010
5240,0.015,-0.035
5241,0.020,-0.020
5242,0.020,-0.015
5243,0.020,0.000
5244,0.050,-0.010
5245,0.145,0.115
5246,0.290,0.455
5247,0.440,0.860
5248,0.555,1.210
5249,0.585,1.415
5250,0.555,1.370
5251,0.480,1.225
5252,0.375,1.010
5253,0.255,0.745
5254,0.135,0.415
5255,0.040,0.125
5256,0.000,-0.005
5257,-0.040,-0.120
5258,-0.070,-0.200
5259,-0.090,-0.275
5260,-0.095,-0.285
5261,-0.090,-0.300
5262,-0.090,-0.270
5263,-0.095,-0.280
5264,-0.100,-0.300
5265,-0.105,-0.320
5266,-0.100,-0.310
5267,-0.100,-0.310
5268,-0.100,-0.315
5269,-0.105,-0.325
5270,-0.105,-0.325
5271,-0.105,-0.325
5272,-0.115,-0.345
5273,-0.120,-0.355
5274,-0.130,-0.375
5275,-0.130,-0.385
5276,-0.125,-0.390
5277,-0.115,-0.365
5278,-0.095,-0.330
5279,-0.070,-0.275
5280,-0.050,-0.230
5281,-0.025,-0.180
5282,0.000,-0.095
5283,0.010,-0.040
5284,0.020,-0.005
5285,0.020,-0.005
5286,0.020,0.000
5287,0.015,-0.020
5288,0.010,-0.010
5289,0.010,-0.035
5290,0.010,-0.025
5291,0.010,-0.060
5292,0.015,-0.015
5293,0.020,-0.020
5294,0.015,-0.015
5295,0.015,-0.025
5296,0.015,-0.015
5297,0.020,-0.020
5298,0.010,-0.025
5299,0.010,-0.045
5300,0.010,-0.045
5301,0.010,-0.040
5302,0.010,-0.025
5303,0.010,-0.030
5304,0.010,-0.035
5305,0.010,-0.035
5306,0.010,-0.035
5307,0.010,-0.025
5308,0.015,-0.025
5309,0.015,-0.020
5310,0.015,-0.015
5311,0.020,-0.005
5312,0.020,0.000
5313,0.020,0.000
5314,0.020,0.000
5315,0.020,-0.010
5316,0.020,-0.010
5317,0.020,-0.010
5318,0.020,0.000
5319,0.025,0.010
5320,0.035,0.040
5321,0.035,0.060
5322,0.025,0.055
5323,0.020,0.010
5324,0.015,0.000
5325,0.015,-0.025
5326,0.010,-0.025
5327,0.010,-0.045
5328,0.015,-0.020
5329,0.020,-0.005
5330,0.020,-0.005
5331,0.025,-0.005
5332,0.055,-0.005
5333,0.155,0.150
5334,0.310,0.515
5335,0.465,0.945
5336,0.565,1.255
5337,0.585,1.435
5338,0.545,1.340
5339,0.460,1.190
5340,0.355,0.945
5341,0.230,0.685
5342,0.110,0.345
5343,0.030,0.100
5344,-0.015,-0.045
5345,-0.050,-0.140
5346,-0.075,-0.235
5347,-0.090,-0.265
5348,-0.095,-0.295
5349,-0.100,-0.315
5350,-0.100,-0.325
5351,-0.100,-0.305
5352,-0.095,-0.305
5353,-0.095,-0.295
5354,-0.095,-0.280
5355,-0.095,-0.290
5356,-0.100,-0.305
5357,-0.105,-0.315
5358,-0.105,-0.325
5359,-0.115,-0.340
5360,-0.120,-0.350
5361,-0.120,-0.360
5362,-0.120,-0.370
5363,-0.120,-0.380
5364,-0.115,-0.380
5365,-0.105,-0.345
5366,-0.095,-0.325
5367,-0.070,-0.265
5368,-0.040,-0.215
5369,-0.010,-0.115
5370,0.000,-0.080
5371,0.015,-0.015
5372,0.020,-0.010
5373,0.020,0.000
5374,0.015,-0.010
5375,0.015,0.000
5376,0.015,-0.040
5377,0.015,-0.025
5378,0.015,-0.040
5379,0.015,-0.015
5380,0.015,-0.030
5381,0.015,-0.025
5382,0.015,-0.035
5383,0.015,-0.040
5384,0.010,-0.010
5385,0.010,-0.035
5386,0.010,-0.040
5387,0.010,-0.040
5388,0.015,-0.010
5389,0.010,-0.020
5390,0.010,-0.030
5391,0.010,-0.035
5392,0.010,-0.020
5393,0.010,-0.035
5394,0.015,-0.030
5395,0.020,-0.025
5396,0.015,-0.010
5397,0.015,-0.010
5398,0.015,-0.015
5399,0.020,-0.010
5400,0.020,-0.010
5401,0.020,0.000
5402,0.020,-0.005
5403,0.020,-0.005
5404,0.020,-0.005
5405,0.020,0.005
5406,0.020,0.005
5407,0.020,0.015
5408,0.025,0.035
5409,0.030,0.045
5410,0.030,0.045
5411,0.025,0.040
5412,0.020,0.015
5413,0.015,-0.010
5414,0.010,-0.010
5415,0.010,-0.040
5416,0.015,-0.025
5417,0.015,-0.020
5418,0.015,-0.005
5419,0.015,-0.020
5420,0.025,0.000
5421,0.095,0.020
5422,0.220,0.310
5423,0.380,0.670
5424,0.515,1.085
5425,0.585,1.345
5426,0.580,1.445
5427,0.515,1.310
5428,0.430,1.125
5429,0.315,0.870
5430,0.190,0.565
5431,0.085,0.255
5432,0.015,0.050
5433,-0.025,-0.080
5434,-0.060,-0.185
5435,-0.080,-0.260
5436,-0.090,-0.295
5437,-0.090,-0.290
5438,-0.090,-0.285
5439,-0.090,-0.270
5440,-0.090,-0.275
5441,-0.090,-0.280
5442,-0.095,-0.285
5443,-0.095,-0.290
5444,-0.095,-0.295
5445,-0.095,-0.305
5446,-0.100,-0.295
5447,-0.100,-0.310
5448,-0.105,-0.305
5449,-0.115,-0.345
5450,-0.125,-0.365
5451,-0.125,-0.385
5452,-0.120,-0.365
5453,-0.115,-0.375
5454,-0.100,-0.330
5455,-0.075,-0.300
5456,-0.050,-0.225
5457,-0.025,-0.180
5458,0.000,-0.100
5459,0.010,-0.035
5460,0.020,-0.005
5461,0.020,0.000
5462,0.020,0.000
5463,0.020,0.000
5464,0.020,-0.015
5465,0.020,-0.010
5466,0.020,-0.015
5467,0.015,0.000
5468,0.015,-0.030
5469,0.015,-0.020
5470,0.015,-0.035
5471,0.015,-0.020
5472,0.015,-0.040
5473,0.015,-0.025
5474,0.015,-0.035
5475,0.015,-0.010
5476,0.010,-0.025
5477,0.010,-0.035
5478,0.010,-0.045
5479,0.015,-0.025
5480,0.020,-0.005
5481,0.020,-0.010
5482,0.020,-0.020
5483,0.015,-0.020
5484,0.015,-0.025
5485,0.015,-0.030
5486,0.020,-0.025
5487,0.020,-0.020
5488,0.015,-0.010
5489,0.015,-0.015
5490,0.015,-0.025
5491,0.015,-0.020
5492,0.020,-0.015
5493,0.020,0.000
5494,0.020,0.005
5495,0.025,0.030
5496,0.030,0.035
5497,0.030,0.060
5498,0.025,0.035
5499,0.025,0.035
5500,0.020,0.000
5501,0.015,0.000
5502,0.015,-0.040
5503,0.010,-0.010
5504,0.010,-0.035
5505,0.010,-0.035
5506,0.010,-0.050
5507,0.020,-0.025
5508,0.065,-0.005
5509,0.170,0.185
5510,0.320,0.530
5511,0.470,0.925
5512,0.570,1.275
5513,0.590,1.435
5514,0.545,1.370
5515,0.465,1.190
5516,0.360,0.975
5517,0.230,0.680
5518,0.110,0.340
5519,0.030,0.085
5520,-0.015,-0.040
5521,-0.050,-0.155
5522,-0.075,-0.230
5523,-0.090,-0.280
5524,-0.095,-0.295
5525,-0.100,-0.310
5526,-0.105,-0.320
5527,-0.095,-0.305
5528,-0.090,-0.280
5529,-0.090,-0.265
5530,-0.100,-0.295
5531,-0.105,-0.315
5532,-0.105,-0.335
5533,-0.105,-0.330
5534,-0.110,-0.340
5535,-0.115,-0.340
5536,-0.115,-0.350
5537,-0.120,-0.355
5538,-0.125,-0.375
5539,-0.120,-0.375
5540,-0.115,-0.365
5541,-0.105,-0.355
5542,-0.090,-0.315
5543,-0.065,-0.270
5544,-0.040,-0.195
5545,-0.015,-0.160
5546,0.000,-0.075
5547,0.010,-0.040
5548,0.015,-0.005
5549,0.020,-0.015
5550,0.015,0.000
5551,0.015,-0.035
5552,0.015,-0.015
5553,0.015,-0.025
5554,0.015,-0.005
5555,0.010,-0.025
5556,0.005,-0.040
5557,0.005,-0.050
5558,0.010,-0.030
5559,0.010,-0.025
5560,0.010,-0.030
5561,0.010,-0.035
5562,0.010,-0.040
5563,0.010,-0.040
5564,0.015,-0.025
5565,0.015,-0.020
5566,0.010,-0.035
5567,0.010,-0.040
5568,0.010,-0.035
5569,0.015,-0.025
5570,0.015,-0.025
5571,0.015,-0.035
5572,0.015,-0.025
5573,0.015,-0.025
5574,0.015,-0.025
5575,0.015,-0.030
5576,0.015,-0.015
5577,0.015,-0.030
5578,0.015,-0.020
5579,0.015,-0.025
5580,0.020,0.005
5581,0.025,0.005
5582,0.025,0.030
5583,0.025,0.035
5584,0.030,0.045
5585,0.025,0.040
5586,0.025,0.040
5587,0.020,0.000
5588,0.015,-0.025
5589,0.015,-0.035
5590,0.015,-0.035
5591,0.015,-0.020
5592,0.015,-0.030
5593,0.015,-0.030
5594,0.015,-0.035
5595,0.060,-0.005
5596,0.165,0.150
5597,0.320,0.535
5598,0.465,0.925
5599,0.560,1.250
5600,0.580,1.400
5601,0.540,1.365
5602,0.460,1.175
5603,0.355,0.965
5604,0.230,0.690
5605,0.120,0.365
5606,0.040,0.100
5607,-0.005,-0.020
5608,-0.040,-0.135
5609,-0.070,-0.225
5610,-0.090,-0.270
5611,-0.095,-0.290
5612,-0.095,-0.280
5613,-0.095,-0.275
5614,-0.095,-0.295
5615,-0.090,-0.300
5616,-0.090,-0.280
5617,-0.095,-0.280
5618,-0.105,-0.300
5619,-0.105,-0.310
5620,-0.105,-0.320
5621,-0.105,-0.315
5622,-0.110,-0.340
5623,-0.115,-0.345
5624,-0.120,-0.365
5625,-0.125,-0.360
5626,-0.125,-0.385
5627,-0.120,-0.365
5628,-0.115,-0.390
5629,-0.100,-0.340
5630,-0.070,-0.320
5631,-0.035,-0.185
5632,-0.015,-0.150
5633,0.000,-0.070
5634,0.010,-0.035
5635,0.015,0.000
5636,0.020,0.000
5637,0.020,0.000
5638,0.020,-0.015
5639,0.015,-0.015
5640,0.015,-0.015
5641,0.015,-0.025
5642,0.015,-0.025
5643,0.015,-0.020
5644,0.015,-0.010
5645,0.010,-0.020
5646,0.005,-0.040
5647,0.005,-0.055
5648,0.010,-0.030
5649,0.015,-0.040
5650,0.015,-0.035
5651,0.015,-0.030
5652,0.015,-0.015
5653,0.015,-0.015
5654,0.015,-0.025
5655,0.015,-0.030
5656,0.015,-0.025
5657,0.015,-0.020
5658,0.015,-0.030
5659,0.015,-0.025
5660,0.015,-0.025
5661,0.020,-0.010
5662,0.015,-0.020
5663,0.015,-0.010
5664,0.015,-0.025
5665,0.015,-0.025
5666,0.015,-0.025
5667,0.020,-0.025
5668,0.020,-0.015
5669,0.025,0.000
5670,0.030,0.035
5671,0.035,0.045
5672,0.035,0.065
5673,0.030,0.050
5674,0.020,0.040
5675,0.020,-0.005
5676,0.015,0.000
5677,0.015,-0.040
5678,0.015,-0.025
5679,0.015,-0.025
5680,0.010,0.000
5681,0.010,-0.045
5682,0.015,-0.030
5683,0.050,-0.025
5684,0.145,0.130
5685,0.290,0.445
5686,0.440,0.850
5687,0.550,1.200
5688,0.590,1.420
5689,0.555,1.390
5690,0.475,1.225
5691,0.375,1.010
5692,0.255,0.735
5693,0.135,0.410
5694,0.045,0.155
5695,-0.005,0.000
5696,-0.045,-0.125
5697,-0.075,-0.220
5698,-0.090,-0.265
5699,-0.095,-0.275
5700,-0.095,-0.280
5701,-0.105,-0.315
5702,-0.100,-0.320
5703,-0.095,-0.315
5704,-0.095,-0.290
5705,-0.095,-0.310
5706,-0.095,-0.290
5707,-0.095,-0.320
5708,-0.100,-0.295
5709,-0.100,-0.315
5710,-0.105,-0.320
5711,-0.115,-0.345
5712,-0.120,-0.355
5713,-0.125,-0.385
5714,-0.120,-0.370
5715,-0.115,-0.365
5716,-0.110,-0.355
5717,-0.095,-0.325
5718,-0.080,-0.300
5719,-0.045,-0.230
5720,-0.020,-0.135
5721,-0.005,-0.085
5722,0.005,-0.070
5723,0.015,-0.030
5724,0.020,-0.025
5725,0.020,0.000
5726,0.020,-0.010
5727,0.015,0.000
5728,0.015,-0.030
5729,0.015,-0.020
5730,0.015,-0.035
5731,0.015,-0.015
5732,0.015,-0.030
5733,0.015,-0.030
5734,0.010,-0.030
5735,0.010,-0.040
5736,0.010,-0.040
5737,0.010,-0.030
5738,0.015,-0.030
5739,0.015,-0.030
5740,0.015,-0.025
5741,0.015,-0.025
5742,0.015,-0.030
5743,0.015,-0.035
5744,0.010,-0.035
5745,0.010,-0.040
5746,0.015,-0.035
5747,0.020,-0.020
5748,0.020,-0.015
5749,0.015,-0.010
5750,0.010,-0.015
5751,0.010,-0.020
5752,0.010,-0.040
5753,0.010,-0.025
5754,0.015,-0.030
5755,0.020,0.000
5756,0.025,0.000
5757,0.030,0.025
5758,0.030,0.040
5759,0.035,0.075
5760,0.035,0.025
5761,0.030,0.050
5762,0.025,0.000
5763,0.020,-0.010
5764,0.015,-0.020
5765,0.015,-0.030
5766,0.010,-0.025
5767,0.010,-0.030
5768,0.010,-0.040
5769,0.010,-0.025
5770,0.030,-0.025
5771,0.095,0.035
5772,0.230,0.315
5773,0.390,0.710
5774,0.520,1.100
5775,0.585,1.345
5776,0.575,1.410
5777,0.510,1.285
5778,0.415,1.095
5779,0.300,0.835
5780,0.180,0.530
5781,0.080,0.235
5782,0.015,0.040
5783,-0.020,-0.075
5784,-0.060,-0.180
5785,-0.085,-0.245
5786,-0.100,-0.305
5787,-0.105,-0.320
5788,-0.100,-0.320
5789,-0.095,-0.295
5790,-0.095,-0.290
5791,-0.095,-0.290
5792,-0.095,-0.295
5793,-0.095,-0.280
5794,-0.095,-0.295
5795,-0.095,-0.295
5796,-0.100,-0.295
5797,-0.105,-0.325
5798,-0.110,-0.325
5799,-0.115,-0.360
5800,-0.115,-0.350
5801,-0.115,-0.360
5802,-0.115,-0.340
5803,-0.115,-0.360
5804,-0.110,-0.340
5805,-0.090,-0.340
5806,-0.060,-0.235
5807,-0.030,-0.190
5808,0.000,-0.105
5809,0.005,-0.060
5810,0.015,-0.005
5811,0.020,0.005
5812,0.020,0.000
5813,0.020,-0.015
5814,0.015,-0.005
5815,0.015,-0.010
5816,0.015,-0.020
5817,0.015,-0.025
5818,0.015,-0.020
5819,0.020,-0.020
5820,0.010,-0.025
5821,0.010,-0.035
5822,0.010,-0.050
5823,0.010,-0.040
5824,0.010,-0.030
5825,0.010,-0.030
5826,0.015,-0.030
5827,0.015,-0.025
5828,0.015,-0.015
5829,0.010,-0.020
5830,0.010,-0.020
5831,0.010,-0.035
5832,0.020,-0.015
5833,0.020,-0.015
5834,0.020,-0.005
5835,0.015,-0.020
5836,0.015,-0.010
5837,0.015,-0.035
5838,0.015,0.000
5839,0.015,-0.020
5840,0.015,-0.025
5841,0.020,-0.030
5842,0.020,-0.010
5843,0.020,-0.005
5844,0.020,0.015
5845,0.025,0.025
5846,0.025,0.035
5847,0.030,0.040
5848,0.035,0.045
5849,0.025,0.050
5850,0.020,0.005
5851,0.015,-0.020
5852,0.015,-0.030
5853,0.015,-0.025
5854,0.015,-0.025
5855,0.015,-0.010
5856,0.015,-0.025
5857,0.025,-0.020
5858,0.060,-0.015
5859,0.150,0.150
5860,0.295,0.470
5861,0.440,0.865
5862,0.550,1.205
5863,0.590,1.405
5864,0.550,1.385
5865,0.475,1.220
5866,0.375,1.000
5867,0.255,0.735
5868,0.135,0.425
5869,0.045,0.145
5870,-0.010,-0.020
5871,-0.045,-0.140
5872,-0.075,-0.220
5873,-0.085,-0.265
5874,-0.090,-0.280
5875,-0.095,-0.285
5876,-0.100,-0.300
5877,-0.095,-0.295
5878,-0.095,-0.305
5879,-0.095,-0.280
5880,-0.095,-0.310
5881,-0.095,-0.285
5882,-0.095,-0.310
5883,-0.100,-0.285
5884,-0.100,-0.330
5885,-0.105,-0.290
5886,-0.115,-0.350
5887,-0.120,-0.360
5888,-0.120,-0.380
5889,-0.120,-0.350
5890,-0.120,-0.370
5891,-0.115,-0.345
5892,-0.100,-0.345
5893,-0.075,-0.275
5894,-0.040,-0.215
5895,-0.015,-0.145
5896,0.000,-0.080
5897,0.010,-0.040
5898,0.015,-0.010
5899,0.020,0.000
5900,0.015,-0.010
5901,0.015,-0.015
5902,0.015,-0.005
5903,0.015,-0.020
5904,0.015,-0.015
5905,0.015,-0.020
5906,0.015,-0.015
5907,0.015,-0.030
5908,0.010,-0.035
5909,0.010,-0.045
5910,0.010,-0.045
5911,0.010,-0.040
5912,0.005,-0.040
5913,0.005,-0.045
5914,0.005,-0.055
5915,0.010,-0.040
5916,0.010,-0.035
5917,0.015,-0.015
5918,0.015,-0.030
5919,0.015,-0.030
5920,0.015,-0.035
5921,0.015,-0.015
5922,0.015,-0.015
5923,0.015,-0.020
5924,0.015,-0.025
5925,0.010,-0.030
5926,0.010,-0.025
5927,0.010,-0.030
5928,0.015,-0.025
5929,0.020,-0.030
5930,0.025,0.000
5931,0.025,0.000
5932,0.030,0.050
5933,0.035,0.040
5934,0.035,0.045
5935,0.030,0.025
5936,0.025,0.025
5937,0.020,0.000
5938,0.010,-0.005
5939,0.010,-0.045
5940,0.010,-0.035
5941,0.010,-0.065
5942,0.010,-0.035
5943,0.010,-0.035
5944,0.025,-0.010
5945,0.065,0.000
5946,0.175,0.190
5947,0.325,0.540
5948,0.465,0.940
5949,0.560,1.255
5950,0.580,1.395
5951,0.535,1.345
5952,0.450,1.165
5953,0.345,0.940
5954,0.220,0.665
5955,0.100,0.320
5956,0.025,0.065
5957,-0.010,-0.050
5958,-0.040,-0.135
5959,-0.070,-0.225
5960,-0.085,-0.260
5961,-0.090,-0.285
5962,-0.095,-0.280
5963,-0.095,-0.305
5964,-0.090,-0.280
5965,-0.090,-0.295
5966,-0.090,-0.260
5967,-0.090,-0.285
5968,-0.090,-0.265
5969,-0.090,-0.290
5970,-0.095,-0.255
5971,-0.105,-0.310
5972,-0.115,-0.335
5973,-0.115,-0.360
5974,-0.115,-0.360
5975,-0.115,-0.360
5976,-0.120,-0.360
5977,-0.115,-0.345
5978,-0.105,-0.345
5979,-0.090,-0.310
5980,-0.065,-0.255
5981,-0.040,-0.195
5982,-0.020,-0.145
5983,0.000,-0.065
5984,0.015,-0.015
5985,0.020,0.000
5986,0.020,0.000
5987,0.020,0.000
5988,0.020,-0.010
5989,0.015,-0.005
5990,0.015,-0.020
5991,0.015,-0.020
5992,0.020,-0.015
5993,0.015,-0.010
5994,0.015,-0.010
5995,0.015,-0.025
5996,0.015,-0.025
5997,0.015,-0.030
5998,0.015,-0.025
5999,0.015,-0.020
6000,0.015,-0.020
6001,0.015,-0.025
6002,0.015,-0.020
6003,0.015,-0.015
6004,0.015,-0.020
6005,0.015,-0.015
6006,0.015,-0.030
6007,0.015,-0.015
6008,0.015,-0.025
6009,0.015,-0.010
6010,0.020,-0.020
6011,0.020,0.000
6012,0.015,-0.020
6013,0.015,-0.015
6014,0.015,-0.040
6015,0.020,0.000
6016,0.020,-0.015
6017,0.020,-0.015
6018,0.020,-0.020
6019,0.020,0.000
6020,0.020,0.000
6021,0.030,0.050
6022,0.035,0.060
6023,0.030,0.055
6024,0.025,0.015
6025,0.020,0.005
6026,0.015,-0.005
6027,0.015,-0.020
6028,0.015,-0.030
6029,0.015,-0.030
6030,0.010,-0.015
6031,0.010,-0.040
6032,0.010,-0.040
6033,0.045,-0.020
6034,0.140,0.120
6035,0.285,0.430
6036,0.435,0.845
6037,0.545,1.185
6038,0.585,1.380
6039,0.555,1.380
6040,0.485,1.215
6041,0.385,1.005
6042,0.260,0.750
6043,0.140,0.445
6044,0.050,0.150
6045,0.000,-0.005
6046,-0.035,-0.115
6047,-0.070,-0.205
6048,-0.090,-0.270
6049,-0.100,-0.290
6050,-0.100,-0.300
6051,-0.100,-0.300
6052,-0.095,-0.320
6053,-0.095,-0.290
6054,-0.095,-0.295
6055,-0.095,-0.305
6056,-0.100,-0.290
6057,-0.105,-0.310
6058,-0.105,-0.300
6059,-0.105,-0.335
6060,-0.105,-0.320
6061,-0.110,-0.355
6062,-0.115,-0.335
6063,-0.125,-0.385
6064,-0.130,-0.385
6065,-0.125,-0.395
6066,-0.115,-0.350
6067,-0.095,-0.335
6068,-0.075,-0.280
6069,-0.050,-0.245
6070,-0.020,-0.160
6071,0.000,-0.095
6072,0.010,-0.035
6073,0.015,-0.015
6074,0.020,0.000
6075,0.020,0.000
6076,0.020,-0.005
6077,0.020,-0.010
6078,0.015,-0.010
6079,0.015,-0.005
6080,0.015,-0.030
6081,0.015,-0.035
6082,0.015,-0.020
6083,0.015,-0.020
6084,0.015,-0.020
6085,0.015,-0.035
6086,0.010,-0.035
6087,0.010,-0.045
6088,0.010,-0.030
6089,0.015,-0.030
6090,0.015,-0.010
6091,0.015,-0.040
6092,0.015,-0.025
6093,0.015,-0.040
6094,0.020,-0.020
6095,0.015,-0.020
6096,0.015,-0.010
6097,0.015,-0.030
6098,0.020,-0.010
6099,0.020,-0.020
6100,0.020,-0.020
6101,0.015,-0.020
6102,0.015,-0.020
6103,0.015,-0.020
6104,0.015,-0.025
6105,0.015,-0.025
6106,0.015,-0.025
6107,0.020,0.005
6108,0.020,0.000
6109,0.025,0.020
6110,0.030,0.035
6111,0.035,0.055
6112,0.030,0.040
6113,0.025,0.035
6114,0.020,0.000
6115,0.010,0.000
6116,0.010,-0.035
6117,0.010,-0.035
6118,0.010,-0.035
6119,0.010,-0.030
6120,0.010,-0.035
6121,0.020,-0.030
6122,0.065,0.005
6123,0.175,0.190
6124,0.330,0.550
6125,0.480,0.965
6126,0.570,1.300
6127,0.585,1.415
6128,0.535,1.335
6129,0.450,1.150
6130,0.345,0.930
6131,0.225,0.645
6132,0.105,0.340
6133,0.030,0.100
6134,-0.015,-0.050
6135,-0.055,-0.155
6136,-0.080,-0.245
6137,-0.095,-0.275
6138,-0.095,-0.300
6139,-0.095,-0.275
6140,-0.095,-0.315
6141,-0.100,-0.280
6142,-0.100,-0.310
6143,-0.095,-0.290
6144,-0.095,-0.320
6145,-0.095,-0.285
6146,-0.095,-0.310
6147,-0.095,-0.285
6148,-0.100,-0.325
6149,-0.105,-0.325
6150,-0.110,-0.355
6151,-0.115,-0.335
6152,-0.115,-0.360
6153,-0.120,-0.370
6154,-0.110,-0.370
6155,-0.100,-0.340
6156,-0.085,-0.305
6157,-0.065,-0.260
6158,-0.035,-0.200
6159,-0.010,-0.135
6160,0.000,-0.065
6161,0.010,-0.030
6162,0.015,0.000
6163,0.020,-0.005
6164,0.020,-0.010
6165,0.020,-0.010
6166,0.015,-0.010
6167,0.015,-0.015
6168,0.015,-0.020
6169,0.020,-0.010
6170,0.015,-0.015
6171,0.015,-0.015
6172,0.015,-0.035
6173,0.015,-0.020
6174,0.015,-0.030
6175,0.015,-0.030
6176,0.015,-0.035
6177,0.015,-0.025
6178,0.015,-0.035
6179,0.015,-0.020
6180,0.015,-0.025
6181,0.015,-0.030
6182,0.015,-0.025
6183,0.015,-0.010
6184,0.015,-0.025
6185,0.015,-0.025
6186,0.020,0.000
6187,0.020,-0.020
6188,0.015,-0.005
6189,0.015,-0.020
6190,0.020,-0.010
6191,0.020,-0.010
6192,0.015,0.000
6193,0.015,-0.030
6194,0.015,-0.005
6195,0.020,-0.010
6196,0.020,0.010
6197,0.025,0.020
6198,0.035,0.060
6199,0.040,0.060
6200,0.030,0.050
6201,0.025,0.030
6202,0.015,0.005
6203,0.015,-0.030
6204,0.015,-0.035
6205,0.015,-0.020
6206,0.015,-0.025
6207,0.020,-0.025
6208,0.020,-0.020
6209,0.025,-0.015
6210,0.075,0.020
6211,0.185,0.215
6212,0.340,0.585
6213,0.485,0.980
6214,0.575,1.315
6215,0.590,1.440
6216,0.540,1.360
6217,0.450,1.160
6218,0.345,0.940
6219,0.215,0.640
6220,0.105,0.335
6221,0.025,0.075
6222,-0.015,-0.040
6223,-0.055,-0.190
6224,-0.075,-0.240
6225,-0.085,-0.270
6226,-0.090,-0.270
6227,-0.095,-0.315
6228,-0.095,-0.290
6229,-0.090,-0.300
6230,-0.090,-0.280
6231,-0.090,-0.270
6232,-0.090,-0.285
6233,-0.095,-0.290
6234,-0.095,-0.300
6235,-0.095,-0.290
6236,-0.100,-0.315
6237,-0.105,-0.335
6238,-0.110,-0.340
6239,-0.115,-0.340
6240,-0.120,-0.375
6241,-0.125,-0.355
6242,-0.120,-0.370
6243,-0.110,-0.350
6244,-0.095,-0.335
6245,-0.065,-0.265
6246,-0.030,-0.185
6247,-0.005,-0.105
6248,0.005,-0.055
6249,0.015,-0.020
6250,0.020,0.000
6251,0.020,0.000
6252,0.020,0.000
6253,0.020,-0.005
6254,0.020,-0.005
6255,0.015,-0.010
6256,0.015,-0.015
6257,0.015,-0.030
6258,0.015,-0.025
6259,0.015,-0.025
6260,0.015,-0.030
6261,0.015,-0.025
6262,0.010,-0.025
6263,0.005,-0.030
6264,0.005,-0.045
6265,0.005,-0.035
6266,0.015,-0.030
6267,0.015,-0.020
6268,0.010,-0.025
6269,0.010,-0.020
6270,0.010,-0.055
6271,0.010,-0.025
6272,0.010,-0.045
6273,0.010,-0.025
6274,0.010,-0.040
6275,0.015,-0.005
6276,0.015,-0.030
6277,0.015,-0.020
6278,0.010,-0.035
6279,0.010,-0.035
6280,0.010,-0.050
6281,0.010,-0.035
6282,0.015,-0.010
6283,0.020,0.000
6284,0.020,0.010
6285,0.025,0.035
6286,0.025,0.040
6287,0.020,0.015
6288,0.020,0.005
6289,0.015,0.000
6290,0.010,-0.020
6291,0.010,-0.045
6292,0.010,-0.040
6293,0.010,-0.050
6294,0.010,-0.045
6295,0.010,-0.035
6296,0.015,-0.040
6297,0.060,-0.010
6298,0.160,0.150
6299,0.310,0.505
6300,0.455,0.895
6301,0.555,1.240
6302,0.580,1.390
6303,0.535,1.355
6304,0.445,1.155
6305,0.340,0.935
6306,0.220,0.650
6307,0.105,0.330
6308,0.025,0.055
6309,-0.015,-0.040
6310,-0.055,-0.165
6311,-0.085,-0.255
6312,-0.095,-0.290
6313,-0.100,-0.295
6314,-0.105,-0.300
6315,-0.105,-0.335
6316,-0.100,-0.315
6317,-0.095,-0.300
6318,-0.095,-0.265
6319,-0.095,-0.295
6320,-0.100,-0.290
6321,-0.100,-0.325
6322,-0.100,-0.305
6323,-0.100,-0.330
6324,-0.105,-0.320
6325,-0.110,-0.350
6326,-0.115,-0.360
6327,-0.120,-0.380
6328,-0.125,-0.355
6329,-0.120,-0.365
6330,-0.110,-0.365
6331,-0.095,-0.345
6332,-0.070,-0.280
6333,-0.045,-0.215
6334,-0.015,-0.155
6335,0.000,-0.090
6336,0.015,-0.035
6337,0.020,-0.005
6338,0.020,0.000
6339,0.020,0.000
6340,0.020,-0.010
6341,0.020,-0.010
6342,0.020,-0.005
6343,0.015,-0.015
6344,0.015,-0.005
6345,0.015,-0.025
6346,0.015,-0.020
6347,0.015,-0.030
6348,0.015,-0.025
6349,0.015,-0.040
6350,0.015,-0.030
6351,0.015,-0.030
6352,0.015,-0.010
6353,0.015,-0.040
6354,0.020,-0.005
6355,0.015,-0.020
6356,0.015,-0.005
6357,0.015,-0.025
6358,0.015,-0.025
6359,0.020,-0.005
6360,0.020,0.000
6361,0.015,-0.015
6362,0.015,-0.020
6363,0.015,-0.025
6364,0.015,-0.020
6365,0.020,-0.005
6366,0.020,-0.015
6367,0.020,-0.010
6368,0.020,-0.015
6369,0.020,0.000
6370,0.020,0.005
6371,0.020,0.010
6372,0.030,0.020
6373,0.040,0.070
6374,0.030,0.065
6375,0.020,0.035
6376,0.020,0.000
6377,0.010,-0.010
6378,0.010,-0.035
6379,0.010,-0.050
6380,0.010,-0.040
6381,0.015,-0.025
6382,0.015,-0.020
6383,0.025,-0.020
6384,0.080,0.035
6385,0.190,0.230
6386,0.340,0.595
6387,0.480,0.980
6388,0.565,1.280
6389,0.575,1.405
6390,0.530,1.325
6391,0.440,1.150
6392,0.330,0.900
6393,0.205,0.625
6394,0.095,0.285
6395,0.015,0.060
6396,-0.020,-0.080
6397,-0.055,-0.160
6398,-0.080,-0.255
6399,-0.095,-0.260
6400,-0.100,-0.310
6401,-0.100,-0.305
6402,-0.100,-0.330
6403,-0.100,-0.295
6404,-0.100,-0.325
6405,-0.095,-0.275
6406,-0.095,-0.300
6407,-0.100,-0.290
6408,-0.100,-0.320
6409,-0.100,-0.310
6410,-0.105,-0.310
6411,-0.115,-0.335
6412,-0.120,-0.370
6413,-0.125,-0.375
6414,-0.125,-0.375
6415,-0.130,-0.385
6416,-0.130,-0.395
6417,-0.120,-0.380
6418,-0.100,-0.335
6419,-0.070,-0.280
6420,-0.035,-0.195
6421,-0.010,-0.115
6422,0.005,-0.060
6423,0.015,-0.025
6424,0.020,0.000
6425,0.020,0.000
6426,0.020,-0.015
6427,0.015,-0.010
6428,0.015,-0.020
6429,0.015,-0.015
6430,0.015,-0.030
6431,0.020,-0.015
6432,0.015,-0.025
6433,0.010,-0.030
6434,0.000,-0.045
6435,0.000,-0.045
6436,0.010,-0.055
6437,0.015,-0.030
6438,0.015,-0.035
6439,0.010,-0.025
6440,0.010,-0.035
6441,0.010,-0.045
6442,0.015,-0.020
6443,0.015,-0.020
6444,0.020,-0.015
6445,0.015,-0.015
6446,0.015,-0.020
6447,0.015,-0.025
6448,0.015,-0.025
6449,0.015,-0.030
6450,0.010,-0.010
6451,0.010,-0.045
6452,0.010,-0.025
6453,0.015,-0.020
6454,0.015,-0.010
6455,0.015,-0.025
6456,0.015,-0.010
6457,0.020,0.000
6458,0.020,0.010
6459,0.025,0.030
6460,0.030,0.060
6461,0.035,0.060
6462,0.030,0.045
6463,0.025,0.020
6464,0.020,-0.005
6465,0.010,-0.015
6466,0.010,-0.025
6467,0.010,-0.030
6468,0.010,-0.025
6469,0.005,-0.030
6470,0.005,-0.035
6471,0.020,-0.030
6472,0.075,0.025
6473,0.185,0.210
6474,0.340,0.595
6475,0.480,0.975
6476,0.570,1.300
6477,0.585,1.405
6478,0.535,1.345
6479,0.445,1.140
6480,0.340,0.955
6481,0.220,0.640
6482,0.105,0.330
6483,0.025,0.070
6484,-0.015,-0.030
6485,-0.055,-0.180
6486,-0.075,-0.215
6487,-0.090,-0.300
6488,-0.095,-0.295
6489,-0.100,-0.305
6490,-0.100,-0.310
6491,-0.100,-0.300
6492,-0.095,-0.280
6493,-0.095,-0.285
6494,-0.095,-0.290
6495,-0.095,-0.290
6496,-0.095,-0.315
6497,-0.100,-0.295
6498,-0.105,-0.325
6499,-0.110,-0.335
6500,-0.110,-0.340
6501,-0.110,-0.335
6502,-0.120,-0.365
6503,-0.120,-0.375
6504,-0.110,-0.370
6505,-0.100,-0.350
6506,-0.085,-0.325
6507,-0.065,-0.275
6508,-0.040,-0.205
6509,-0.010,-0.140
6510,0.000,-0.065
6511,0.010,-0.030
6512,0.020,0.000
6513,0.020,0.000
6514,0.015,-0.005
6515,0.015,-0.020
6516,0.020,-0.020
6517,0.020,-0.020
6518,0.020,-0.020
6519,0.015,-0.015
6520,0.015,-0.015
6521,0.015,-0.015
6522,0.015,-0.040
6523,0.020,-0.020
6524,0.015,-0.020
6525,0.010,-0.020
6526,0.010,-0.045
6527,0.010,-0.030
6528,0.015,-0.050
6529,0.015,-0.015
6530,0.015,-0.050
6531,0.015,0.000
6532,0.015,-0.040
6533,0.015,-0.015
6534,0.020,-0.020
6535,0.020,0.000
6536,0.015,-0.020
6537,0.015,-0.005
6538,0.020,-0.015
6539,0.020,-0.015
6540,0.020,-0.010
6541,0.015,-0.005
6542,0.015,-0.015
6543,0.015,-0.020
6544,0.020,-0.005
6545,0.025,0.005
6546,0.030,0.035
6547,0.035,0.035
6548,0.035,0.045
6549,0.035,0.055
6550,0.030,0.040
6551,0.020,0.000
6552,0.015,-0.025
6553,0.010,-0.030
6554,0.010,-0.025
6555,0.015,-0.020
6556,0.015,-0.035
6557,0.015,-0.025
6558,0.020,-0.035
6559,0.070,0.000
6560,0.175,0.165
6561,0.325,0.550
6562,0.470,0.930
6563,0.575,1.290
6564,0.595,1.440
6565,0.540,1.375
6566,0.455,1.175
6567,0.345,0.970
6568,0.225,0.665
6569,0.105,0.320
6570,0.025,0.070
6571,-0.005,-0.045
6572,-0.050,-0.135
6573,-0.085,-0.235
6574,-0.095,-0.285
6575,-0.100,-0.320
6576,-0.100,-0.280
6577,-0.100,-0.300
6578,-0.100,-0.285
6579,-0.100,-0.300
6580,-0.095,-0.290
6581,-0.090,-0.290
6582,-0.090,-0.255
6583,-0.095,-0.290
6584,-0.100,-0.305
6585,-0.105,-0.325
6586,-0.110,-0.330
6587,-0.115,-0.350
6588,-0.120,-0.360
6589,-0.125,-0.375
6590,-0.115,-0.370
6591,-0.110,-0.355
6592,-0.105,-0.340
6593,-0.090,-0.310
6594,-0.065,-0.265
6595,-0.035,-0.195
6596,-0.010,-0.120
6597,0.005,-0.065
6598,0.015,-0.020
6599,0.020,0.000
6600,0.020,0.005
6601,0.015,0.000
6602,0.015,0.000
6603,0.015,-0.020
6604,0.015,-0.010
6605,0.015,-0.020
6606,0.015,0.000
6607,0.015,-0.020
6608,0.015,-0.010
6609,0.015,-0.040
6610,0.015,-0.020
6611,0.015,-0.035
6612,0.015,-0.025
6613,0.010,-0.030
6614,0.010,-0.020
6615,0.010,-0.030
6616,0.010,-0.035
6617,0.015,-0.010
6618,0.020,-0.010
6619,0.020,-0.005
6620,0.015,-0.010
6621,0.015,-0.025
6622,0.015,-0.025
6623,0.015,0.000
6624,0.020,-0.015
6625,0.020,-0.015
6626,0.020,-0.015
6627,0.020,-0.005
6628,0.020,-0.010
6629,0.020,-0.005
6630,0.020,-0.015
6631,0.020,-0.005
6632,0.020,0.000
6633,0.025,0.015
6634,0.030,0.035
6635,0.035,0.055
6636,0.035,0.055
6637,0.025,0.035
6638,0.025,0.020
6639,0.020,-0.010
6640,0.020,-0.020
6641,0.015,-0.015
6642,0.015,-0.010
6643,0.015,-0.025
6644,0.015,-0.030
6645,0.015,-0.025
6646,0.040,-0.015
6647,0.115,0.060
6648,0.250,0.345
6649,0.405,0.750
6650,0.530,1.145
6651,0.590,1.395
6652,0.570,1.405
6653,0.500,1.280
6654,0.400,1.045
6655,0.290,0.830
6656,0.165,0.490
6657,0.060,0.200
6658,0.000,0.000
6659,-0.030,-0.105
6660,-0.065,-0.210
6661,-0.085,-0.250
6662,-0.090,-0.295
6663,-0.095,-0.290
6664,-0.100,-0.310
6665,-0.095,-0.300
6666,-0.095,-0.290
6667,-0.095,-0.275
6668,-0.090,-0.295
6669,-0.090,-0.285
6670,-0.090,-0.285
6671,-0.100,-0.300
6672,-0.105,-0.310
6673,-0.105,-0.335
6674,-0.110,-0.345
6675,-0.115,-0.360
6676,-0.115,-0.355
6677,-0.115,-0.360
6678,-0.115,-0.360
6679,-0.110,-0.350
6680,-0.100,-0.335
6681,-0.080,-0.295
6682,-0.055,-0.245
6683,-0.030,-0.175
6684,-0.005,-0.115
6685,0.000,-0.045
6686,0.015,-0.020
6687,0.020,0.000
6688,0.020,-0.005
6689,0.020,0.000
6690,0.020,-0.015
6691,0.020,-0.005
6692,0.015,-0.010
6693,0.015,-0.020
6694,0.015,-0.040
6695,0.015,-0.005
6696,0.015,-0.025
6697,0.015,-0.020
6698,0.010,-0.025
6699,0.010,-0.040
6700,0.010,-0.025
6701,0.015,-0.030
6702,0.020,-0.005
6703,0.020,-0.025
6704,0.015,-0.020
6705,0.015,-0.030
6706,0.015,-0.005
