'sample interval','ECG0','ECG1'
'0.0078125 sec','mV','mV'
0,0.010,0.010
1,0.015,0.015
2,0.020,0.020
3,0.015,0.015
4,0.005,0.005
5,0.000,0.000
6,0.010,0.015
7,0.035,0.040
8,0.040,0.045
9,0.030,0.035
10,0.035,0.040
11,0.055,0.060
12,0.080,0.085
13,0.100,0.105
14,0.100,0.110
15,0.080,0.090
16,0.065,0.070
17,0.075,0.080
18,0.085,0.090
19,0.070,0.075
20,0.035,0.040
21,0.010,0.015
22,0.005,0.005
23,0.000,0.000
24,0.000,0.000
25,-0.005,0.000
26,-0.015,-0.010
27,-0.010,-0.010
28,0.000,0.000
29,0.000,0.005
30,0.000,0.005
31,0.015,0.020
32,0.065,0.075
33,0.175,0.185
34,0.310,0.325
35,0.370,0.385
36,0.245,0.255
37,0.025,0.025
38,-0.100,-0.100
39,-0.080,-0.075
40,0.000,0.000
41,0.035,0.040
42,0.035,0.040
43,0.030,0.035
44,0.020,0.020
45,0.020,0.020
46,0.025,0.025
47,0.030,0.035
48,0.035,0.040
49,0.040,0.040
50,0.050,0.055
51,0.055,0.060
52,0.055,0.065
53,0.055,0.065
54,0.055,0.060
55,0.040,0.045
56,0.025,0.030
57,0.020,0.025
58,0.020,0.025
59,0.035,0.040
60,0.045,0.050
61,0.055,0.060
62,0.075,0.075
63,0.085,0.090
64,0.075,0.085
65,0.060,0.065
66,0.050,0.055
67,0.045,0.050
68,0.035,0.040
69,0.020,0.025
70,0.015,0.020
71,0.020,0.020
72,0.020,0.020
73,0.020,0.020
74,0.015,0.015
75,0.010,0.010
76,0.010,0.010
77,0.015,0.020
78,0.030,0.035
79,0.030,0.035
80,0.020,0.025
81,0.010,0.015
82,0.005,0.005
83,0.000,0.005
84,0.000,0.005
85,0.005,0.010
86,0.010,0.010
87,0.015,0.015
88,0.005,0.010
89,0.000,0.005
90,0.000,0.000
91,0.000,0.000
92,-0.010,-0.005
93,-0.020,-0.010
94,-0.005,0.000
95,0.000,0.000
96,-0.005,0.000
97,-0.010,-0.005
98,-0.005,-0.005
99,-0.005,0.000
100,0.000,0.000
101,0.000,0.005
102,0.000,0.000
103,0.000,0.000
104,-0.005,-0.005
105,-0.005,-0.005
106,-0.015,-0.015
107,-0.020,-0.020
108,-0.015,-0.015
109,-0.005,-0.005
110,0.000,0.000
111,0.000,0.000
112,-0.005,0.000
113,-0.005,0.000
114,0.015,0.020
115,0.045,0.050
116,0.040,0.050
117,0.025,0.030
118,0.015,0.015
119,0.010,0.015
120,0.020,0.025
121,0.045,0.050
122,0.115,0.120
123,0.235,0.245
124,0.380,0.395
125,0.445,0.465
126,0.340,0.355
127,0.105,0.110
128,-0.055,-0.055
129,-0.055,-0.050
130,0.005,0.010
131,0.040,0.045
132,0.045,0.050
133,0.045,0.050
134,0.045,0.050
135,0.050,0.050
136,0.045,0.045
137,0.040,0.045
138,0.040,0.045
139,0.030,0.040
140,0.025,0.025
141,0.020,0.025
142,0.020,0.020
143,0.020,0.020
144,0.030,0.035
145,0.045,0.050
146,0.045,0.050
147,0.035,0.040
148,0.035,0.040
149,0.045,0.050
150,0.055,0.060
151,0.060,0.065
152,0.065,0.070
153,0.065,0.065
154,0.060,0.055
155,0.050,0.050
156,0.050,0.050
157,0.050,0.050
158,0.050,0.050
159,0.045,0.045
160,0.040,0.035
161,0.030,0.025
162,0.030,0.025
163,0.030,0.025
164,0.035,0.030
165,0.030,0.025
166,0.020,0.015
167,0.005,0.000
168,0.000,0.000
169,0.000,-0.010
170,-0.005,-0.010
171,-0.005,-0.010
172,0.000,0.000
173,0.005,0.000
174,0.010,0.010
175,0.015,0.015
176,0.010,0.010
177,0.010,0.005
178,0.005,0.000
179,0.000,0.000
180,-0.010,-0.015
181,-0.025,-0.030
182,-0.010,-0.015
183,0.005,0.000
184,0.000,0.000
185,-0.015,-0.015
186,-0.025,-0.025
187,-0.020,-0.020
188,-0.020,-0.020
189,-0.025,-0.020
190,-0.025,-0.025
191,-0.020,-0.020
192,-0.020,-0.020
193,-0.020,-0.020
194,-0.015,-0.015
195,-0.010,-0.010
196,-0.010,-0.010
197,-0.015,-0.015
198,-0.020,-0.020
199,-0.015,-0.015
200,0.000,0.000
201,0.060,0.065
202,0.185,0.190
203,0.340,0.350
204,0.425,0.440
205,0.320,0.325
206,0.070,0.070
207,-0.095,-0.105
208,-0.100,-0.115
209,-0.025,-0.035
210,0.020,0.015
211,0.055,0.050
212,0.055,0.055
213,0.050,0.050
214,0.050,0.050
215,0.050,0.045
216,0.045,0.045
217,0.045,0.045
218,0.050,0.050
219,0.045,0.050
220,0.035,0.035
221,0.015,0.015
222,0.015,0.015
223,0.030,0.030
224,0.055,0.050
225,0.060,0.055
226,0.065,0.060
227,0.065,0.060
228,0.075,0.070
229,0.080,0.075
230,0.070,0.070
231,0.070,0.070
232,0.075,0.070
233,0.085,0.080
234,0.095,0.095
235,0.100,0.100
236,0.095,0.095
237,0.080,0.075
238,0.050,0.050
239,0.020,0.020
240,0.010,0.005
241,0.010,0.000
242,0.010,0.005
243,0.005,0.000
244,0.000,0.000
245,0.000,0.000
246,0.000,-0.005
247,0.000,-0.010
248,0.000,-0.010
249,0.000,0.000
250,0.020,0.020
251,0.080,0.080
252,0.185,0.185
253,0.285,0.290
254,0.295,0.300
255,0.160,0.160
256,-0.035,-0.040
257,-0.130,-0.140
258,-0.095,-0.105
259,-0.005,-0.015
260,0.050,0.040
261,0.070,0.065
262,0.065,0.060
263,0.055,0.055
264,0.055,0.055
265,0.055,0.055
266,0.055,0.055
267,0.055,0.055
268,0.055,0.055
269,0.055,0.055
270,0.060,0.055
271,0.065,0.060
272,0.075,0.075
273,0.090,0.090
274,0.095,0.095
275,0.090,0.090
276,0.085,0.085
277,0.085,0.085
278,0.085,0.090
279,0.095,0.095
280,0.100,0.100
281,0.100,0.100
282,0.100,0.100
283,0.100,0.100
284,0.095,0.095
285,0.085,0.085
286,0.075,0.070
287,0.060,0.055
288,0.045,0.040
289,0.025,0.020
290,0.005,0.005
291,0.005,0.005
292,0.010,0.005
293,0.010,0.010
294,0.010,0.005
295,0.010,0.000
296,0.010,0.000
297,0.020,0.010
298,0.035,0.025
299,0.035,0.025
300,0.020,0.020
301,0.015,0.010
302,0.010,0.010
303,0.010,0.005
304,0.000,0.000
305,0.000,0.000
306,0.000,0.000
307,0.000,0.000
308,-0.010,-0.015
309,-0.015,-0.020
310,-0.015,-0.020
311,-0.015,-0.020
312,-0.010,-0.015
313,-0.010,-0.005
314,-0.005,-0.005
315,-0.005,-0.010
316,-0.015,-0.025
317,-0.020,-0.030
318,-0.030,-0.035
319,-0.050,-0.055
320,-0.085,-0.095
321,-0.110,-0.120
322,-0.125,-0.130
323,-0.120,-0.125
324,-0.105,-0.115
325,-0.090,-0.090
326,-0.060,-0.060
327,-0.040,-0.040
328,-0.035,-0.035
329,-0.045,-0.045
330,-0.055,-0.055
331,-0.055,-0.060
332,-0.065,-0.065
333,-0.070,-0.075
334,-0.070,-0.070
335,-0.070,-0.070
336,-0.065,-0.070
337,-0.055,-0.060
338,-0.035,-0.040
339,-0.020,-0.025
340,-0.015,-0.025
341,-0.020,-0.025
342,-0.020,-0.025
343,-0.020,-0.025
344,0.000,0.000
345,0.040,0.035
346,0.135,0.130
347,0.280,0.280
348,0.385,0.390
349,0.340,0.345
350,0.135,0.135
351,-0.050,-0.055
352,-0.115,-0.125
353,-0.075,-0.085
354,-0.015,-0.020
355,0.010,0.005
356,0.015,0.015
357,0.015,0.010
358,0.010,0.010
359,0.010,0.010
360,0.010,0.010
361,0.020,0.015
362,0.025,0.020
363,0.025,0.020
364,0.020,0.015
365,0.015,0.015
366,0.020,0.015
367,0.025,0.020
368,0.025,0.020
369,0.030,0.020
370,0.035,0.030
371,0.040,0.035
372,0.035,0.030
373,0.035,0.025
374,0.035,0.025
375,0.040,0.035
376,0.035,0.035
377,0.025,0.025
378,0.020,0.015
379,0.020,0.020
380,0.040,0.040
381,0.040,0.040
382,0.035,0.030
383,0.030,0.025
384,0.030,0.025
385,0.020,0.020
386,0.015,0.010
387,0.005,0.005
388,0.000,0.000
389,0.000,0.000
390,-0.005,-0.010
391,-0.010,-0.015
392,-0.010,-0.020
393,0.000,-0.010
394,0.000,0.000
395,0.000,0.000
396,-0.005,-0.010
397,-0.010,-0.015
398,-0.015,-0.020
399,-0.015,-0.025
400,-0.020,-0.025
401,-0.025,-0.030
402,-0.030,-0.035
403,-0.035,-0.040
404,-0.030,-0.030
405,-0.015,-0.020
406,-0.005,-0.010
407,0.000,-0.005
408,-0.010,-0.015
409,-0.020,-0.025
410,-0.025,-0.035
411,-0.035,-0.040
412,-0.045,-0.050
413,-0.055,-0.055
414,-0.050,-0.055
415,-0.040,-0.045
416,-0.035,-0.040
417,-0.025,-0.030
418,-0.015,-0.020
419,-0.005,-0.010
420,0.000,0.000
421,0.005,0.000
422,0.005,0.000
423,0.015,0.010
424,0.060,0.055
425,0.170,0.170
426,0.325,0.330
427,0.430,0.440
428,0.365,0.375
429,0.135,0.140
430,-0.060,-0.065
431,-0.115,-0.120
432,-0.060,-0.065
433,-0.005,-0.010
434,0.005,0.005
435,0.010,0.010
436,0.015,0.010
437,0.015,0.010
438,0.010,0.010
439,0.010,0.010
440,0.025,0.025
441,0.035,0.035
442,0.050,0.050
443,0.055,0.055
444,0.060,0.055
445,0.050,0.050
446,0.050,0.050
447,0.055,0.055
448,0.060,0.055
449,0.065,0.060
450,0.075,0.070
451,0.085,0.080
452,0.085,0.080
453,0.090,0.085
454,0.095,0.095
455,0.110,0.105
456,0.120,0.125
457,0.135,0.140
458,0.135,0.135
459,0.125,0.120
460,0.110,0.105
461,0.090,0.090
462,0.060,0.060
463,0.035,0.035
464,0.020,0.015
465,0.020,0.015
466,0.030,0.030
467,0.045,0.040
468,0.045,0.045
469,0.045,0.045
470,0.045,0.045
471,0.040,0.040
472,0.030,0.030
473,0.030,0.030
474,0.075,0.070
475,0.170,0.175
476,0.295,0.300
477,0.360,0.370
478,0.270,0.275
479,0.070,0.070
480,-0.075,-0.080
481,-0.095,-0.095
482,-0.030,-0.030
483,0.020,0.020
484,0.040,0.040
485,0.045,0.045
486,0.045,0.045
487,0.055,0.050
488,0.065,0.060
489,0.075,0.070
490,0.080,0.080
491,0.080,0.080
492,0.065,0.065
493,0.050,0.050
494,0.040,0.040
495,0.040,0.040
496,0.045,0.045
497,0.055,0.055
498,0.065,0.065
499,0.080,0.075
500,0.085,0.080
501,0.075,0.070
502,0.075,0.065
503,0.075,0.070
504,0.085,0.075
505,0.085,0.075
506,0.080,0.070
507,0.065,0.060
508,0.045,0.040
509,0.025,0.020
510,0.010,0.010
511,0.010,0.010
512,0.010,0.010
513,0.010,0.010
514,0.010,0.010
515,0.010,0.005
516,0.005,0.000
517,0.005,0.000
518,0.010,0.005
519,0.005,0.005
520,0.005,0.005
521,0.010,0.005
522,0.010,0.010
523,0.025,0.020
524,0.035,0.030
525,0.040,0.035
526,0.040,0.040
527,0.045,0.040
528,0.035,0.035
529,0.025,0.025
530,0.015,0.010
531,0.010,0.010
532,0.010,0.010
533,0.010,0.010
534,0.010,0.010
535,0.005,0.005
536,0.005,0.000
537,0.005,0.000
538,0.005,0.005
539,0.010,0.010
540,0.015,0.015
541,0.020,0.015
542,0.025,0.020
543,0.030,0.025
544,0.030,0.025
545,0.020,0.015
546,0.010,0.005
547,0.000,0.000
548,-0.005,-0.010
549,-0.015,-0.020
550,-0.020,-0.030
551,-0.020,-0.025
552,-0.015,-0.025
553,-0.015,-0.025
554,-0.015,-0.025
555,-0.015,-0.025
556,-0.020,-0.030
557,-0.025,-0.025
558,-0.015,-0.020
559,0.000,-0.005
560,0.005,0.000
561,0.010,0.005
562,0.015,0.010
563,0.015,0.010
564,0.010,0.010
565,0.015,0.010
566,0.055,0.055
567,0.165,0.165
568,0.315,0.315
569,0.400,0.405
570,0.335,0.340
571,0.135,0.135
572,-0.045,-0.050
573,-0.105,-0.110
574,-0.060,-0.060
575,0.000,0.000
576,0.035,0.035
577,0.045,0.045
578,0.050,0.050
579,0.050,0.050
580,0.045,0.050
581,0.045,0.045
582,0.045,0.040
583,0.045,0.040
584,0.050,0.050
585,0.050,0.050
586,0.050,0.050
587,0.050,0.050
588,0.055,0.055
589,0.060,0.055
590,0.065,0.060
591,0.075,0.065
592,0.085,0.080
593,0.090,0.090
594,0.090,0.095
595,0.095,0.095
596,0.100,0.100
597,0.100,0.100
598,0.100,0.100
599,0.100,0.100
600,0.110,0.115
601,0.120,0.125
602,0.120,0.120
603,0.110,0.110
604,0.100,0.100
605,0.090,0.090
606,0.070,0.070
607,0.060,0.060
608,0.050,0.050
609,0.045,0.050
610,0.045,0.045
611,0.045,0.040
612,0.035,0.030
613,0.030,0.025
614,0.025,0.020
615,0.020,0.015
616,0.015,0.015
617,0.015,0.015
618,0.020,0.020
619,0.020,0.020
620,0.020,0.020
621,0.030,0.030
622,0.040,0.040
623,0.035,0.035
624,0.030,0.025
625,0.020,0.015
626,0.010,0.010
627,0.010,0.010
628,0.010,0.010
629,0.010,0.010
630,0.005,0.005
631,0.000,0.000
632,-0.005,-0.010
633,-0.010,-0.015
634,-0.010,-0.010
635,-0.005,-0.010
636,-0.005,-0.010
637,-0.005,-0.010
638,-0.005,-0.015
639,-0.010,-0.015
640,-0.010,-0.015
641,0.000,-0.005
642,0.000,0.000
643,0.005,0.000
644,0.005,0.000
645,0.000,0.000
646,0.000,0.000
647,0.025,0.025
648,0.110,0.105
649,0.240,0.245
650,0.370,0.375
651,0.395,0.400
652,0.255,0.260
653,0.060,0.060
654,-0.045,-0.050
655,-0.040,-0.040
656,0.005,0.005
657,0.040,0.040
658,0.055,0.055
659,0.045,0.040
660,0.030,0.025
661,0.020,0.020
662,0.015,0.015
663,0.015,0.010
664,0.015,0.010
665,0.015,0.010
666,0.015,0.015
667,0.020,0.020
668,0.020,0.020
669,0.020,0.020
670,0.025,0.025
671,0.045,0.040
672,0.060,0.055
673,0.075,0.065
674,0.085,0.075
675,0.085,0.080
676,0.080,0.075
677,0.065,0.060
678,0.065,0.060
679,0.065,0.060
680,0.065,0.060
681,0.070,0.070
682,0.085,0.080
683,0.085,0.080
684,0.085,0.080
685,0.070,0.065
686,0.045,0.040
687,0.025,0.025
688,0.015,0.010
689,0.010,0.005
690,0.010,0.005
691,0.010,0.005
692,0.010,0.010
693,0.010,0.010
694,0.015,0.010
695,0.015,0.010
696,0.015,0.010
697,0.020,0.015
698,0.060,0.055
699,0.160,0.160
700,0.295,0.300
701,0.375,0.380
702,0.315,0.315
703,0.130,0.125
704,-0.035,-0.040
705,-0.085,-0.090
706,-0.035,-0.040
707,0.025,0.020
708,0.055,0.055
709,0.060,0.055
710,0.055,0.050
711,0.045,0.040
712,0.035,0.035
713,0.025,0.020
714,0.025,0.015
715,0.025,0.015
716,0.030,0.025
717,0.035,0.025
718,0.030,0.030
719,0.030,0.025
720,0.030,0.025
721,0.040,0.035
722,0.050,0.045
723,0.050,0.050
724,0.045,0.045
725,0.035,0.030
726,0.035,0.030
727,0.035,0.030
728,0.040,0.040
729,0.045,0.045
730,0.050,0.050
731,0.050,0.055
732,0.050,0.050
733,0.045,0.040
734,0.030,0.030
735,0.030,0.025
736,0.030,0.020
737,0.020,0.015
738,0.015,0.010
739,0.010,0.010
740,0.010,0.010
741,0.010,0.010
742,0.010,0.010
743,0.015,0.015
744,0.020,0.020
745,0.010,0.010
746,0.010,0.005
747,0.010,0.005
748,0.010,0.005
749,0.005,0.000
750,0.000,-0.005
751,0.000,-0.010
752,0.000,-0.005
753,-0.005,-0.015
754,-0.015,-0.025
755,-0.030,-0.035
756,-0.045,-0.045
757,-0.040,-0.040
758,-0.030,-0.035
759,-0.020,-0.030
760,-0.015,-0.025
761,-0.015,-0.025
762,-0.020,-0.025
763,-0.025,-0.030
764,-0.020,-0.025
765,-0.020,-0.025
766,-0.020,-0.030
767,-0.025,-0.035
768,-0.030,-0.035
769,-0.025,-0.030
770,-0.020,-0.025
771,-0.020,-0.025
772,-0.025,-0.030
773,-0.040,-0.040
774,-0.055,-0.050
775,-0.060,-0.060
776,-0.060,-0.065
777,-0.065,-0.070
778,-0.070,-0.070
779,-0.060,-0.065
780,-0.060,-0.065
781,-0.060,-0.060
782,-0.050,-0.050
783,-0.045,-0.045
784,-0.040,-0.045
785,-0.045,-0.050
786,-0.050,-0.055
787,-0.040,-0.045
788,0.000,0.000
789,0.105,0.100
790,0.245,0.245
791,0.330,0.335
792,0.275,0.280
793,0.090,0.090
794,-0.075,-0.080
795,-0.125,-0.130
796,-0.080,-0.085
797,-0.020,-0.025
798,0.000,-0.005
799,0.000,0.000
800,0.000,0.000
801,0.000,0.000
802,-0.005,-0.005
803,-0.040,-0.040
804,-0.060,-0.065
805,-0.055,-0.060
806,-0.050,-0.055
807,-0.050,-0.060
808,-0.050,-0.055
809,-0.050,-0.055
810,-0.045,-0.050
811,-0.040,-0.050
812,-0.035,-0.040
813,-0.030,-0.035
814,-0.025,-0.030
815,-0.020,-0.025
816,-0.010,-0.020
817,0.000,-0.005
818,0.005,0.000
819,0.010,0.000
820,0.005,0.000
821,0.005,0.000
822,0.010,0.005
823,0.020,0.015
824,0.030,0.025
825,0.035,0.030
826,0.025,0.020
827,0.010,0.010
828,0.005,0.000
829,0.005,0.000
830,0.005,0.005
831,0.010,0.010
832,0.005,0.005
833,0.000,0.000
834,-0.005,-0.015
835,-0.015,-0.025
836,-0.025,-0.035
837,-0.025,-0.030
838,-0.025,-0.030
839,-0.025,-0.030
840,-0.025,-0.030
841,-0.025,-0.030
842,-0.025,-0.035
843,-0.040,-0.040
844,-0.040,-0.045
845,-0.030,-0.035
846,-0.025,-0.035
847,-0.040,-0.045
848,-0.055,-0.065
849,-0.055,-0.060
850,-0.050,-0.055
851,-0.035,-0.040
852,-0.030,-0.035
853,-0.030,-0.040
854,-0.030,-0.040
855,-0.035,-0.040
856,-0.035,-0.040
857,-0.030,-0.035
858,-0.030,-0.035
859,-0.035,-0.040
860,-0.040,-0.045
861,-0.040,-0.050
862,-0.040,-0.050
863,-0.045,-0.050
864,-0.030,-0.035
865,-0.025,-0.030
866,-0.025,-0.030
867,0.000,-0.005
868,0.080,0.080
869,0.210,0.210
870,0.295,0.300
871,0.240,0.245
872,0.045,0.045
873,-0.150,-0.160
874,-0.230,-0.240
875,-0.185,-0.190
876,-0.100,-0.105
877,-0.050,-0.050
878,-0.025,-0.030
879,-0.015,-0.020
880,-0.005,-0.005
881,0.000,0.000
882,0.005,0.000
883,0.000,0.000
884,0.000,0.000
885,0.000,0.000
886,-0.005,-0.010
887,-0.015,-0.015
888,-0.025,-0.025
889,-0.030,-0.035
890,-0.025,-0.030
891,-0.015,-0.025
892,-0.015,-0.025
893,-0.010,-0.020
894,0.000,-0.005
895,0.015,0.010
896,0.030,0.020
897,0.020,0.015
898,0.005,0.005
899,0.010,0.010
900,0.020,0.020
901,0.030,0.025
902,0.035,0.030
903,0.030,0.025
904,0.015,0.010
905,0.000,0.000
906,-0.015,-0.020
907,-0.025,-0.035
908,-0.030,-0.040
909,-0.030,-0.040
910,-0.045,-0.050
911,-0.050,-0.055
912,-0.060,-0.065
913,-0.065,-0.070
914,-0.070,-0.075
915,-0.075,-0.080
916,-0.065,-0.070
917,-0.030,-0.035
918,0.030,0.025
919,0.120,0.125
920,0.185,0.190
921,0.135,0.135
922,-0.035,-0.040
923,-0.210,-0.220
924,-0.270,-0.280
925,-0.220,-0.230
926,-0.140,-0.145
927,-0.085,-0.090
928,-0.065,-0.070
929,-0.070,-0.070
930,-0.070,-0.070
931,-0.060,-0.065
932,-0.040,-0.045
933,-0.015,-0.020
934,0.000,-0.005
935,0.005,0.000
936,0.010,0.005
937,0.010,0.010
938,0.015,0.010
939,0.015,0.010
940,0.025,0.020
941,0.025,0.020
942,0.025,0.020
943,0.035,0.030
944,0.045,0.040
945,0.050,0.045
946,0.060,0.050
947,0.065,0.055
948,0.070,0.060
949,0.070,0.065
950,0.065,0.060
951,0.040,0.035
952,0.015,0.010
953,0.005,0.000
954,0.000,-0.005
955,-0.010,-0.020
956,-0.010,-0.020
957,0.000,-0.005
958,0.005,0.000
959,0.000,0.000
960,0.000,-0.005
961,0.000,-0.010
962,0.000,-0.010
963,-0.005,-0.015
964,-0.010,-0.015
965,-0.015,-0.020
966,-0.020,-0.025
967,-0.020,-0.030
968,-0.020,-0.030
969,-0.030,-0.035
970,-0.045,-0.045
971,-0.050,-0.055
972,-0.045,-0.050
973,-0.030,-0.035
974,-0.025,-0.030
975,-0.020,-0.025
976,-0.010,-0.015
977,0.000,0.000
978,0.000,0.000
979,-0.005,-0.010
980,-0.015,-0.020
981,-0.005,-0.010
982,-0.005,-0.010
983,-0.005,-0.010
984,-0.010,-0.015
985,-0.010,-0.015
986,0.000,0.000
987,0.000,0.000
988,0.000,-0.005
989,-0.010,-0.015
990,-0.015,-0.020
991,-0.015,-0.025
992,-0.010,-0.020
993,-0.005,-0.015
994,-0.010,-0.015
995,-0.025,-0.030
996,-0.035,-0.040
997,-0.045,-0.050
998,-0.050,-0.055
999,-0.055,-0.060
1000,-0.060,-0.065
1001,-0.065,-0.065
1002,-0.065,-0.065
1003,-0.070,-0.070
1004,-0.075,-0.080
1005,-0.075,-0.080
1006,-0.070,-0.075
1007,-0.065,-0.070
1008,-0.065,-0.070
1009,-0.060,-0.065
1010,-0.060,-0.060
1011,-0.055,-0.060
1012,-0.045,-0.050
1013,-0.005,-0.010
1014,0.085,0.085
1015,0.220,0.220
1016,0.290,0.285
1017,0.215,0.210
1018,0.010,0.010
1019,-0.150,-0.160
1020,-0.175,-0.190
1021,-0.105,-0.115
1022,-0.030,-0.035
1023,0.005,0.005
1024,0.010,0.010
1025,0.010,0.010
1026,0.010,0.005
1027,0.000,0.000
1028,-0.010,-0.020
1029,-0.025,-0.025
1030,-0.030,-0.030
1031,-0.035,-0.035
1032,-0.030,-0.030
1033,-0.030,-0.030
1034,-0.030,-0.030
1035,-0.020,-0.030
1036,-0.020,-0.025
1037,-0.020,-0.025
1038,-0.025,-0.030
1039,-0.020,-0.025
1040,-0.015,-0.025
1041,-0.015,-0.020
1042,-0.005,-0.015
1043,0.000,-0.005
1044,0.005,0.000
1045,0.015,0.010
1046,0.015,0.015
1047,0.010,0.010
1048,0.010,0.010
1049,0.010,0.010
1050,0.010,0.005
1051,0.010,0.000
1052,0.005,0.000
1053,0.000,-0.005
1054,0.000,-0.010
1055,0.000,-0.005
1056,0.000,-0.005
1057,-0.005,-0.010
1058,-0.005,-0.010
1059,-0.005,-0.010
1060,-0.015,-0.020
1061,-0.025,-0.030
1062,-0.020,-0.025
1063,-0.015,-0.020
1064,-0.015,-0.020
1065,-0.010,-0.015
1066,0.000,-0.010
1067,0.000,-0.005
1068,-0.010,-0.015
1069,-0.020,-0.025
1070,-0.020,-0.025
1071,-0.020,-0.025
1072,-0.020,-0.025
1073,-0.025,-0.030
1074,-0.030,-0.035
1075,-0.035,-0.040
1076,-0.045,-0.055
1077,-0.055,-0.060
1078,-0.055,-0.060
1079,-0.045,-0.050
1080,-0.040,-0.045
1081,-0.040,-0.045
1082,-0.050,-0.055
1083,-0.055,-0.060
1084,-0.060,-0.065
1085,-0.065,-0.070
1086,-0.065,-0.070
1087,-0.055,-0.060
1088,-0.050,-0.050
1089,-0.035,-0.040
1090,-0.020,-0.025
1091,0.000,-0.010
1092,0.010,0.005
1093,0.050,0.045
1094,0.150,0.145
1095,0.280,0.280
1096,0.355,0.355
1097,0.280,0.280
1098,0.090,0.080
1099,-0.065,-0.080
1100,-0.100,-0.110
1101,-0.050,-0.055
1102,-0.005,-0.010
1103,0.005,0.005
1104,0.005,0.005
1105,0.005,0.005
1106,0.015,0.015
1107,0.020,0.015
1108,0.020,0.020
1109,0.030,0.025
1110,0.035,0.030
1111,0.040,0.035
1112,0.040,0.040
1113,0.040,0.035
1114,0.040,0.035
1115,0.040,0.030
1116,0.040,0.030
1117,0.045,0.040
1118,0.050,0.045
1119,0.055,0.050
1120,0.045,0.045
1121,0.040,0.035
1122,0.040,0.035
1123,0.045,0.040
1124,0.040,0.035
1125,0.040,0.035
1126,0.045,0.040
1127,0.045,0.040
1128,0.040,0.030
1129,0.030,0.025
1130,0.015,0.015
1131,0.000,0.000
1132,-0.010,-0.015
1133,-0.020,-0.025
1134,-0.015,-0.020
1135,-0.005,-0.010
1136,0.000,0.000
1137,0.010,0.010
1138,0.020,0.010
1139,0.015,0.005
1140,0.005,0.000
1141,0.000,0.000
1142,0.000,0.000
1143,0.035,0.030
1144,0.120,0.120
1145,0.255,0.255
1146,0.365,0.370
1147,0.340,0.345
1148,0.165,0.160
1149,-0.025,-0.035
1150,-0.095,-0.105
1151,-0.060,-0.070
1152,-0.005,-0.015
1153,0.005,0.005
1154,0.010,0.010
1155,0.010,0.010
1156,0.005,0.005
1157,0.000,0.000
1158,0.000,0.000
1159,0.000,0.000
1160,0.000,0.000
1161,0.000,0.000
1162,0.000,0.000
1163,0.000,-0.005
1164,0.000,0.000
1165,0.005,0.000
1166,0.005,0.000
1167,0.000,-0.005
1168,-0.010,-0.015
1169,-0.010,-0.015
1170,0.000,-0.005
1171,0.005,0.005
1172,0.015,0.010
1173,0.015,0.010
1174,0.015,0.010
1175,0.010,0.005
1176,0.000,0.000
1177,0.000,-0.010
1178,0.000,-0.005
1179,0.000,-0.005
1180,-0.010,-0.015
1181,-0.020,-0.025
1182,-0.030,-0.030
1183,-0.030,-0.030
1184,-0.045,-0.050
1185,-0.065,-0.070
1186,-0.065,-0.070
1187,-0.050,-0.050
1188,-0.035,-0.040
1189,-0.035,-0.040
1190,-0.040,-0.040
1191,-0.040,-0.045
1192,-0.045,-0.050
1193,-0.040,-0.045
1194,-0.025,-0.030
1195,-0.005,-0.010
1196,0.000,0.000
1197,0.000,0.000
1198,-0.010,-0.015
1199,-0.030,-0.035
1200,-0.050,-0.050
1201,-0.055,-0.055
1202,-0.040,-0.045
1203,-0.040,-0.040
1204,-0.045,-0.050
1205,-0.055,-0.065
1206,-0.065,-0.070
1207,-0.070,-0.075
1208,-0.070,-0.070
1209,-0.065,-0.065
1210,-0.065,-0.065
1211,-0.075,-0.070
1212,-0.085,-0.080
1213,-0.090,-0.080
1214,-0.080,-0.075
1215,-0.080,-0.075
1216,-0.090,-0.085
1217,-0.095,-0.095
1218,-0.095,-0.095
1219,-0.080,-0.080
1220,-0.075,-0.075
1221,-0.080,-0.080
1222,-0.090,-0.085
1223,-0.085,-0.080
1224,-0.080,-0.075
1225,-0.090,-0.090
1226,-0.105,-0.105
1227,-0.115,-0.120
1228,-0.120,-0.115
1229,-0.110,-0.110
1230,-0.085,-0.085
1231,-0.065,-0.060
1232,-0.050,-0.050
1233,-0.020,-0.015
1234,0.075,0.080
1235,0.225,0.235
1236,0.340,0.350
1237,0.305,0.310
1238,0.095,0.100
1239,-0.100,-0.100
1240,-0.155,-0.160
1241,-0.105,-0.110
1242,-0.050,-0.050
1243,-0.015,-0.015
1244,-0.015,-0.015
1245,-0.030,-0.030
1246,-0.050,-0.050
1247,-0.055,-0.055
1248,-0.055,-0.050
1249,-0.040,-0.035
1250,-0.020,-0.020
1251,-0.015,-0.015
1252,-0.015,-0.015
1253,-0.015,-0.015
1254,-0.015,-0.015
1255,-0.015,-0.015
1256,-0.005,-0.005
1257,0.000,0.000
1258,0.015,0.020
1259,0.025,0.035
1260,0.030,0.040
1261,0.025,0.025
1262,0.015,0.015
1263,0.015,0.015
1264,0.015,0.020
1265,0.025,0.025
1266,0.020,0.020
1267,0.015,0.020
1268,0.015,0.020
1269,0.020,0.020
1270,0.015,0.015
1271,0.010,0.015
1272,0.010,0.010
1273,0.005,0.005
1274,0.000,0.000
1275,0.000,0.000
1276,-0.015,-0.010
1277,-0.015,-0.020
1278,-0.025,-0.025
1279,-0.025,-0.030
1280,-0.030,-0.030
1281,-0.030,-0.030
1282,-0.030,-0.030
1283,-0.030,-0.030
1284,-0.035,-0.035
1285,-0.055,-0.055
1286,-0.065,-0.065
1287,-0.070,-0.070
1288,-0.075,-0.075
1289,-0.065,-0.065
1290,-0.060,-0.055
1291,-0.055,-0.050
1292,-0.055,-0.050
1293,-0.060,-0.055
1294,-0.060,-0.055
1295,-0.055,-0.055
1296,-0.055,-0.055
1297,-0.060,-0.060
1298,-0.060,-0.065
1299,-0.065,-0.065
1300,-0.070,-0.070
1301,-0.080,-0.080
1302,-0.085,-0.085
1303,-0.090,-0.085
1304,-0.090,-0.090
1305,-0.080,-0.075
1306,-0.065,-0.055
1307,-0.060,-0.050
1308,-0.060,-0.055
1309,-0.060,-0.060
1310,-0.055,-0.055
1311,-0.040,-0.035
1312,0.000,0.005
1313,0.100,0.110
1314,0.260,0.270
1315,0.355,0.370
1316,0.295,0.310
1317,0.070,0.075
1318,-0.135,-0.135
1319,-0.180,-0.190
1320,-0.110,-0.115
1321,-0.025,-0.025
1322,0.010,0.005
1323,0.010,0.005
1324,0.005,0.005
1325,0.005,0.005
1326,0.005,0.005
1327,0.005,0.010
1328,0.000,0.000
1329,-0.015,-0.015
1330,-0.025,-0.020
1331,-0.025,-0.020
1332,-0.005,0.000
1333,0.005,0.005
1334,0.010,0.010
1335,0.010,0.010
1336,0.010,0.010
1337,0.020,0.020
1338,0.030,0.030
1339,0.035,0.040
1340,0.025,0.030
1341,0.015,0.015
1342,0.015,0.015
1343,0.015,0.015
1344,0.025,0.025
1345,0.040,0.040
1346,0.055,0.055
1347,0.060,0.060
1348,0.050,0.055
1349,0.035,0.040
1350,0.020,0.020
1351,0.000,0.000
1352,-0.020,-0.015
1353,-0.030,-0.025
1354,-0.020,-0.020
1355,-0.015,-0.010
1356,-0.015,-0.010
1357,-0.020,-0.015
1358,-0.020,-0.025
1359,-0.020,-0.025
1360,-0.035,-0.035
1361,-0.035,-0.030
1362,-0.020,-0.015
1363,0.025,0.030
1364,0.130,0.135
1365,0.265,0.280
1366,0.295,0.305
1367,0.145,0.155
1368,-0.055,-0.050
1369,-0.145,-0.150
1370,-0.110,-0.115
1371,-0.030,-0.030
1372,0.010,0.010
1373,0.020,0.020
1374,0.010,0.010
1375,0.010,0.010
1376,0.010,0.010
1377,0.005,0.005
1378,0.005,0.005
1379,0.010,0.010
1380,0.015,0.015
1381,0.015,0.020
1382,0.020,0.025
1383,0.030,0.030
1384,0.025,0.025
1385,0.020,0.020
1386,0.010,0.010
1387,0.010,0.010
1388,0.010,0.015
1389,0.015,0.015
1390,0.020,0.020
1391,0.015,0.020
1392,0.015,0.020
1393,0.020,0.025
1394,0.030,0.030
1395,0.025,0.030
1396,0.020,0.020
1397,0.005,0.005
1398,-0.005,-0.005
1399,-0.010,-0.015
1400,-0.005,-0.005
1401,0.005,0.000
1402,0.010,0.010
1403,0.010,0.010
1404,0.015,0.015
1405,0.015,0.015
1406,0.020,0.020
1407,0.025,0.030
1408,0.030,0.035
1409,0.025,0.030
1410,0.010,0.015
1411,0.005,0.010
1412,0.005,0.010
1413,0.010,0.010
1414,0.010,0.010
1415,0.005,0.010
1416,0.000,0.000
1417,-0.010,-0.005
1418,-0.020,-0.015
1419,-0.025,-0.020
1420,-0.025,-0.025
1421,-0.025,-0.030
1422,-0.030,-0.030
1423,-0.035,-0.030
1424,-0.025,-0.025
1425,-0.025,-0.025
1426,-0.020,-0.025
1427,-0.020,-0.025
1428,-0.030,-0.030
1429,-0.040,-0.035
1430,-0.040,-0.035
1431,-0.040,-0.035
1432,-0.045,-0.040
1433,-0.055,-0.050
1434,-0.060,-0.055
1435,-0.045,-0.045
1436,-0.035,-0.035
1437,-0.030,-0.030
1438,-0.030,-0.030
1439,-0.040,-0.040
1440,-0.055,-0.055
1441,-0.070,-0.065
1442,-0.065,-0.065
1443,-0.060,-0.060
1444,-0.050,-0.045
1445,-0.045,-0.035
1446,-0.040,-0.035
1447,-0.035,-0.030
1448,-0.025,-0.020
1449,-0.015,-0.015
1450,-0.015,-0.015
1451,-0.015,-0.015
1452,0.000,0.005
1453,0.065,0.075
1454,0.185,0.200
1455,0.350,0.365
1456,0.455,0.475
1457,0.385,0.400
1458,0.170,0.180
1459,-0.010,0.000
1460,-0.045,-0.045
1461,0.000,0.000
1462,0.035,0.035
1463,0.040,0.045
1464,0.025,0.025
1465,0.010,0.010
1466,0.005,0.010
1467,0.015,0.015
1468,0.025,0.030
1469,0.040,0.045
1470,0.055,0.060
1471,0.060,0.065
1472,0.060,0.060
1473,0.060,0.060
1474,0.065,0.065
1475,0.075,0.075
1476,0.085,0.085
1477,0.080,0.085
1478,0.075,0.080
1479,0.060,0.065
1480,0.050,0.055
1481,0.045,0.055
1482,0.050,0.055
1483,0.050,0.055
1484,0.050,0.055
1485,0.050,0.055
1486,0.055,0.060
1487,0.070,0.070
1488,0.080,0.090
1489,0.090,0.095
1490,0.085,0.095
1491,0.075,0.085
1492,0.060,0.065
1493,0.055,0.060
1494,0.055,0.060
1495,0.055,0.060
1496,0.050,0.060
1497,0.045,0.055
1498,0.040,0.045
1499,0.040,0.045
1500,0.040,0.045
1501,0.040,0.045
1502,0.030,0.035
1503,0.025,0.025
1504,0.025,0.025
1505,0.025,0.030
1506,0.030,0.035
1507,0.030,0.030
1508,0.030,0.030
1509,0.030,0.035
1510,0.035,0.040
1511,0.035,0.035
1512,0.030,0.030
1513,0.030,0.030
1514,0.030,0.030
1515,0.025,0.025
1516,0.015,0.015
1517,0.010,0.015
1518,0.010,0.015
1519,0.010,0.015
1520,0.010,0.015
1521,0.015,0.020
1522,0.025,0.030
1523,0.030,0.040
1524,0.045,0.050
1525,0.060,0.060
1526,0.060,0.060
1527,0.055,0.060
1528,0.060,0.065
1529,0.080,0.080
1530,0.080,0.085
1531,0.080,0.085
1532,0.115,0.120
1533,0.225,0.235
1534,0.400,0.410
1535,0.510,0.525
1536,0.440,0.450
1537,0.180,0.185
1538,-0.020,-0.020
1539,-0.050,-0.050
1540,0.000,0.005
1541,0.055,0.060
1542,0.080,0.085
1543,0.085,0.085
1544,0.075,0.070
1545,0.065,0.060
1546,0.060,0.055
1547,0.055,0.050
1548,0.050,0.050
1549,0.050,0.050
1550,0.055,0.055
1551,0.065,0.060
1552,0.070,0.065
1553,0.075,0.070
1554,0.080,0.075
1555,0.070,0.070
1556,0.060,0.055
1557,0.045,0.045
1558,0.045,0.045
1559,0.045,0.045
1560,0.045,0.045
1561,0.055,0.050
1562,0.065,0.055
1563,0.080,0.070
1564,0.100,0.095
1565,0.115,0.110
1566,0.125,0.125
1567,0.130,0.130
1568,0.120,0.120
1569,0.100,0.095
1570,0.075,0.075
1571,0.055,0.055
1572,0.040,0.035
1573,0.040,0.030
1574,0.045,0.035
1575,0.045,0.040
1576,0.050,0.045
1577,0.050,0.050
1578,0.055,0.055
1579,0.055,0.055
1580,0.050,0.055
1581,0.055,0.055
1582,0.110,0.110
1583,0.225,0.230
1584,0.355,0.360
1585,0.385,0.395
1586,0.250,0.255
1587,0.035,0.040
1588,-0.085,-0.090
1589,-0.070,-0.075
1590,0.005,0.000
1591,0.065,0.055
1592,0.085,0.085
1593,0.090,0.090
1594,0.090,0.085
1595,0.090,0.085
1596,0.095,0.090
1597,0.105,0.100
1598,0.120,0.115
1599,0.125,0.125
1600,0.125,0.130
1601,0.130,0.130
1602,0.130,0.135
1603,0.135,0.135
1604,0.140,0.140
1605,0.145,0.145
1606,0.150,0.150
1607,0.160,0.160
1608,0.170,0.170
1609,0.175,0.180
1610,0.175,0.175
1611,0.165,0.165
1612,0.160,0.160
1613,0.160,0.155
1614,0.155,0.145
1615,0.130,0.130
1616,0.110,0.105
1617,0.090,0.085
1618,0.080,0.075
1619,0.065,0.060
1620,0.055,0.050
1621,0.050,0.045
1622,0.050,0.045
1623,0.055,0.050
1624,0.060,0.055
1625,0.070,0.060
1626,0.075,0.065
1627,0.080,0.070
1628,0.080,0.070
1629,0.065,0.060
1630,0.065,0.060
1631,0.070,0.060
1632,0.065,0.060
1633,0.060,0.060
1634,0.055,0.050
1635,0.045,0.035
1636,0.035,0.025
1637,0.035,0.025
1638,0.035,0.035
1639,0.040,0.045
1640,0.045,0.050
1641,0.045,0.045
1642,0.040,0.040
1643,0.040,0.040
1644,0.045,0.035
1645,0.045,0.035
1646,0.040,0.030
1647,0.030,0.025
1648,0.025,0.020
1649,0.030,0.025
1650,0.035,0.035
1651,0.030,0.030
1652,0.025,0.020
1653,0.025,0.020
1654,0.025,0.020
1655,0.025,0.020
1656,0.025,0.020
1657,0.030,0.025
1658,0.025,0.020
1659,0.010,0.005
1660,0.000,-0.010
1661,-0.020,-0.025
1662,-0.025,-0.035
1663,-0.020,-0.030
1664,-0.010,-0.015
1665,0.000,-0.005
1666,0.000,-0.005
1667,-0.005,-0.015
1668,-0.005,-0.015
1669,0.000,-0.005
1670,0.010,0.005
1671,0.030,0.020
1672,0.040,0.035
1673,0.045,0.040
1674,0.045,0.040
1675,0.040,0.035
1676,0.050,0.045
1677,0.100,0.100
1678,0.220,0.225
1679,0.360,0.370
1680,0.430,0.435
1681,0.335,0.340
1682,0.130,0.130
1683,-0.030,-0.035
1684,-0.060,-0.065
1685,-0.015,-0.015
1686,0.030,0.025
1687,0.050,0.045
1688,0.045,0.045
1689,0.045,0.045
1690,0.050,0.050
1691,0.050,0.050
1692,0.050,0.045
1693,0.050,0.045
1694,0.050,0.050
1695,0.045,0.045
1696,0.040,0.040
1697,0.030,0.025
1698,0.020,0.015
1699,0.015,0.010
1700,0.015,0.015
1701,0.025,0.020
1702,0.025,0.020
1703,0.025,0.015
1704,0.025,0.015
1705,0.025,0.020
1706,0.040,0.035
1707,0.050,0.045
1708,0.060,0.055
1709,0.065,0.065
1710,0.080,0.080
1711,0.090,0.090
1712,0.095,0.095
1713,0.100,0.100
1714,0.100,0.095
1715,0.095,0.090
1716,0.085,0.080
1717,0.080,0.075
1718,0.080,0.075
1719,0.080,0.075
1720,0.080,0.070
1721,0.070,0.060
1722,0.055,0.055
1723,0.050,0.045
1724,0.040,0.035
1725,0.025,0.020
1726,0.025,0.015
1727,0.020,0.015
1728,0.020,0.015
1729,0.015,0.015
1730,0.015,0.015
1731,0.015,0.015
1732,0.020,0.020
1733,0.030,0.025
1734,0.030,0.025
1735,0.025,0.020
1736,0.015,0.015
1737,0.010,0.010
1738,0.000,0.000
1739,0.000,-0.005
1740,-0.005,-0.010
1741,-0.015,-0.020
1742,-0.015,-0.020
1743,-0.005,-0.010
1744,0.000,-0.010
1745,0.000,-0.005
1746,0.000,0.000
1747,0.000,0.000
1748,0.000,0.000
1749,-0.005,-0.010
1750,-0.005,-0.010
1751,0.000,0.000
1752,0.005,0.005
1753,0.010,0.010
1754,0.005,0.010
1755,0.010,0.010
1756,0.050,0.050
1757,0.160,0.160
1758,0.315,0.320
1759,0.415,0.425
1760,0.355,0.360
1761,0.140,0.140
1762,-0.050,-0.055
1763,-0.105,-0.115
1764,-0.060,-0.065
1765,-0.005,-0.005
1766,0.015,0.015
1767,0.025,0.025
1768,0.025,0.020
1769,0.015,0.015
1770,0.015,0.015
1771,0.025,0.020
1772,0.035,0.035
1773,0.040,0.045
1774,0.040,0.040
1775,0.040,0.040
1776,0.045,0.050
1777,0.050,0.055
1778,0.050,0.055
1779,0.045,0.050
1780,0.045,0.045
1781,0.045,0.040
1782,0.040,0.035
1783,0.030,0.020
1784,0.025,0.020
1785,0.025,0.020
1786,0.025,0.020
1787,0.030,0.025
1788,0.040,0.040
1789,0.050,0.050
1790,0.045,0.045
1791,0.040,0.040
1792,0.040,0.035
1793,0.030,0.030
1794,0.025,0.020
1795,0.005,0.000
1796,-0.005,-0.010
1797,-0.015,-0.015
1798,-0.020,-0.020
1799,-0.010,-0.015
1800,0.000,-0.005
1801,0.000,-0.005
1802,0.000,-0.005
1803,0.000,-0.005
1804,0.000,-0.010
1805,0.000,0.000
1806,0.030,0.030
1807,0.130,0.130
1808,0.275,0.280
1809,0.370,0.375
1810,0.315,0.325
1811,0.135,0.135
1812,-0.030,-0.030
1813,-0.075,-0.080
1814,-0.035,-0.040
1815,0.020,0.015
1816,0.060,0.055
1817,0.075,0.075
1818,0.075,0.070
1819,0.065,0.060
1820,0.055,0.055
1821,0.050,0.050
1822,0.040,0.045
1823,0.040,0.040
1824,0.040,0.035
1825,0.045,0.045
1826,0.060,0.055
1827,0.070,0.065
1828,0.070,0.065
1829,0.065,0.060
1830,0.060,0.055
1831,0.060,0.055
1832,0.065,0.060
1833,0.075,0.070
1834,0.075,0.070
1835,0.075,0.070
1836,0.080,0.070
1837,0.085,0.075
1838,0.080,0.070
1839,0.075,0.065
1840,0.065,0.060
1841,0.055,0.050
1842,0.045,0.040
1843,0.035,0.030
1844,0.030,0.025
1845,0.025,0.020
1846,0.015,0.015
1847,0.010,0.010
1848,0.010,0.010
1849,0.010,0.010
1850,0.020,0.020
1851,0.030,0.025
1852,0.035,0.025
1853,0.035,0.025
1854,0.035,0.035
1855,0.040,0.040
1856,0.040,0.040
1857,0.040,0.030
1858,0.040,0.030
1859,0.040,0.035
1860,0.040,0.035
1861,0.040,0.035
1862,0.035,0.030
1863,0.025,0.020
1864,0.025,0.020
1865,0.030,0.020
1866,0.025,0.025
1867,0.025,0.025
1868,0.035,0.030
1869,0.045,0.045
1870,0.050,0.050
1871,0.050,0.050
1872,0.055,0.050
1873,0.050,0.050
1874,0.045,0.040
1875,0.040,0.035
1876,0.035,0.025
1877,0.025,0.020
1878,0.020,0.020
1879,0.015,0.015
1880,0.010,0.010
1881,0.005,0.000
1882,0.000,0.000
1883,0.000,-0.005
1884,0.000,0.000
1885,0.000,0.000
1886,0.000,0.000
1887,0.000,0.000
1888,0.005,0.000
1889,0.005,0.000
1890,0.005,0.000
1891,0.010,0.005
1892,0.015,0.010
1893,0.020,0.015
1894,0.015,0.010
1895,0.015,0.010
1896,0.025,0.025
1897,0.075,0.075
1898,0.185,0.190
1899,0.330,0.345
1900,0.415,0.425
1901,0.335,0.345
1902,0.115,0.125
1903,-0.070,-0.070
1904,-0.120,-0.120
1905,-0.060,-0.060
1906,0.000,0.005
1907,0.030,0.035
1908,0.025,0.030
1909,0.015,0.015
1910,0.015,0.015
1911,0.015,0.015
1912,0.015,0.015
1913,0.015,0.020
1914,0.030,0.035
1915,0.035,0.045
1916,0.040,0.050
1917,0.055,0.065
1918,0.085,0.090
1919,0.090,0.095
1920,0.085,0.095
1921,0.080,0.090
1922,0.080,0.080
1923,0.080,0.080
1924,0.085,0.090
1925,0.090,0.095
1926,0.090,0.100
1927,0.095,0.100
1928,0.105,0.115
1929,0.115,0.125
1930,0.120,0.130
1931,0.125,0.135
1932,0.135,0.145
1933,0.135,0.145
1934,0.120,0.130
1935,0.100,0.110
1936,0.085,0.095
1937,0.075,0.085
1938,0.065,0.075
1939,0.050,0.055
1940,0.035,0.040
1941,0.035,0.045
1942,0.040,0.050
1943,0.045,0.055
1944,0.040,0.050
1945,0.040,0.050
1946,0.045,0.050
1947,0.040,0.045
1948,0.035,0.040
1949,0.030,0.035
1950,0.030,0.035
1951,0.030,0.035
1952,0.040,0.045
1953,0.035,0.045
1954,0.035,0.040
1955,0.035,0.035
1956,0.030,0.035
1957,0.020,0.030
1958,0.005,0.010
1959,0.000,0.005
1960,0.000,0.005
1961,0.000,0.000
1962,-0.005,0.000
1963,-0.015,-0.015
1964,-0.030,-0.025
1965,-0.040,-0.030
1966,-0.040,-0.030
1967,-0.030,-0.030
1968,-0.020,-0.020
1969,-0.015,-0.020
1970,-0.015,-0.020
1971,-0.020,-0.025
1972,-0.025,-0.025
1973,-0.025,-0.030
1974,-0.025,-0.030
1975,-0.030,-0.030
1976,-0.025,-0.030
1977,-0.015,-0.020
1978,0.005,0.005
1979,0.080,0.090
1980,0.220,0.230
1981,0.340,0.355
1982,0.335,0.350
1983,0.160,0.170
1984,-0.055,-0.050
1985,-0.160,-0.160
1986,-0.125,-0.125
1987,-0.045,-0.045
1988,0.000,0.000
1989,0.010,0.015
1990,0.010,0.015
1991,0.010,0.015
1992,0.010,0.015
1993,0.015,0.020
1994,0.015,0.025
1995,0.020,0.025
1996,0.035,0.035
1997,0.055,0.055
1998,0.060,0.065
1999,0.055,0.060
2000,0.045,0.050
2001,0.040,0.045
2002,0.040,0.040
2003,0.035,0.035
2004,0.025,0.030
2005,0.025,0.030
2006,0.025,0.030
2007,0.035,0.040
2008,0.045,0.050
2009,0.050,0.060
2010,0.055,0.060
2011,0.055,0.055
2012,0.055,0.055
2013,0.055,0.060
2014,0.045,0.055
2015,0.045,0.050
2016,0.035,0.035
2017,0.020,0.020
2018,0.000,0.000
2019,-0.005,0.000
2020,-0.010,-0.005
2021,-0.005,-0.005
2022,0.000,0.000
2023,0.000,0.000
2024,0.000,0.000
2025,0.000,0.000
2026,0.000,0.005
2027,0.005,0.010
2028,0.010,0.015
2029,0.040,0.045
2030,0.105,0.115
2031,0.220,0.230
2032,0.320,0.335
2033,0.310,0.325
2034,0.160,0.175
2035,-0.020,-0.015
2036,-0.115,-0.115
2037,-0.095,-0.095
2038,-0.030,-0.030
2039,0.005,0.010
2040,0.015,0.020
2041,0.010,0.015
2042,0.005,0.005
2043,0.000,0.005
2044,0.000,0.005
2045,0.005,0.010
2046,0.010,0.010
2047,0.010,0.010
2048,0.010,0.015
2049,0.010,0.015
2050,0.015,0.020
2051,0.015,0.020
2052,0.025,0.030
2053,0.035,0.045
2054,0.040,0.050
2055,0.050,0.055
2056,0.055,0.060
2057,0.055,0.060
2058,0.055,0.055
2059,0.055,0.060
2060,0.065,0.070
2061,0.070,0.075
2062,0.075,0.080
2063,0.075,0.080
2064,0.065,0.070
2065,0.055,0.060
2066,0.055,0.055
2067,0.055,0.055
2068,0.050,0.055
2069,0.050,0.055
2070,0.050,0.055
2071,0.050,0.055
2072,0.050,0.055
2073,0.050,0.055
2074,0.045,0.050
2075,0.040,0.045
2076,0.040,0.045
2077,0.040,0.045
2078,0.045,0.050
2079,0.040,0.050
2080,0.040,0.050
2081,0.045,0.050
2082,0.040,0.045
2083,0.035,0.040
2084,0.020,0.030
2085,0.015,0.015
2086,0.015,0.015
2087,0.015,0.020
2088,0.010,0.015
2089,0.005,0.010
2090,0.005,0.010
2091,0.005,0.010
2092,0.005,0.010
2093,0.010,0.010
2094,0.010,0.010
2095,0.010,0.015
2096,0.015,0.020
2097,0.020,0.025
2098,0.020,0.025
2099,0.025,0.025
2100,0.025,0.035
2101,0.025,0.030
2102,0.015,0.020
2103,0.010,0.015
2104,0.010,0.010
2105,0.000,0.000
2106,-0.010,-0.010
2107,-0.020,-0.020
2108,-0.015,-0.010
2109,-0.005,0.000
2110,0.000,0.000
2111,0.000,0.005
2112,0.005,0.010
2113,0.010,0.010
2114,0.015,0.015
2115,0.020,0.025
2116,0.020,0.025
2117,0.020,0.020
2118,0.025,0.030
2119,0.060,0.065
2120,0.135,0.145
2121,0.270,0.280
2122,0.410,0.425
2123,0.455,0.470
2124,0.330,0.345
2125,0.115,0.125
2126,-0.015,-0.010
2127,-0.020,-0.015
2128,0.030,0.035
2129,0.075,0.080
2130,0.080,0.085
2131,0.075,0.080
2132,0.070,0.070
2133,0.065,0.065
2134,0.065,0.065
2135,0.060,0.065
2136,0.060,0.065
2137,0.060,0.060
2138,0.050,0.060
2139,0.045,0.050
2140,0.045,0.050
2141,0.045,0.055
2142,0.055,0.060
2143,0.060,0.070
2144,0.070,0.075
2145,0.075,0.080
2146,0.065,0.070
2147,0.050,0.055
2148,0.050,0.055
2149,0.050,0.055
2150,0.055,0.060
2151,0.055,0.065
2152,0.065,0.075
2153,0.080,0.085
2154,0.085,0.095
2155,0.090,0.095
2156,0.080,0.085
2157,0.065,0.070
2158,0.050,0.055
2159,0.035,0.040
2160,0.020,0.020
2161,0.015,0.015
2162,0.015,0.020
2163,0.020,0.025
2164,0.020,0.025
2165,0.030,0.040
2166,0.045,0.050
2167,0.045,0.055
2168,0.045,0.055
2169,0.050,0.055
2170,0.050,0.055
2171,0.050,0.055
2172,0.055,0.060
2173,0.050,0.055
2174,0.045,0.050
2175,0.040,0.045
2176,0.045,0.045
2177,0.045,0.050
2178,0.045,0.055
2179,0.045,0.045
2180,0.030,0.030
2181,0.020,0.025
2182,0.015,0.020
2183,0.010,0.015
2184,0.005,0.005
2185,0.000,0.005
2186,0.000,0.005
2187,0.000,0.005
2188,0.000,0.005
2189,0.000,0.005
2190,0.005,0.010
2191,0.005,0.010
2192,0.010,0.010
2193,0.010,0.010
2194,0.005,0.010
2195,0.005,0.010
2196,0.010,0.010
2197,0.010,0.015
2198,0.030,0.035
2199,0.100,0.110
2200,0.235,0.245
2201,0.370,0.390
2202,0.400,0.420
2203,0.265,0.280
2204,0.050,0.055
2205,-0.070,-0.070
2206,-0.065,-0.060
2207,-0.005,0.000
2208,0.030,0.030
2209,0.040,0.045
2210,0.035,0.040
2211,0.030,0.035
2212,0.025,0.030
2213,0.025,0.030
2214,0.025,0.025
2215,0.025,0.025
2216,0.025,0.030
2217,0.035,0.040
2218,0.040,0.045
2219,0.040,0.045
2220,0.040,0.045
2221,0.045,0.050
2222,0.060,0.065
2223,0.070,0.075
2224,0.075,0.080
2225,0.075,0.075
2226,0.075,0.080
2227,0.080,0.085
2228,0.080,0.085
2229,0.075,0.075
2230,0.080,0.080
2231,0.090,0.095
2232,0.100,0.105
2233,0.100,0.105
2234,0.090,0.095
2235,0.065,0.070
2236,0.035,0.040
2237,0.005,0.010
2238,0.000,0.000
2239,0.000,0.000
2240,0.000,0.005
2241,0.005,0.010
2242,0.005,0.010
2243,0.000,0.005
2244,0.000,0.000
2245,-0.005,0.000
2246,-0.005,-0.005
2247,0.000,0.005
2248,0.040,0.050
2249,0.130,0.140
2250,0.260,0.270
2251,0.350,0.365
2252,0.300,0.310
2253,0.095,0.100
2254,-0.115,-0.115
2255,-0.180,-0.180
2256,-0.115,-0.110
2257,-0.040,-0.035
2258,0.000,0.000
2259,0.010,0.015
2260,0.015,0.015
2261,0.020,0.020
2262,0.025,0.030
2263,0.030,0.035
2264,0.035,0.035
2265,0.020,0.025
2266,0.020,0.025
2267,0.025,0.035
2268,0.030,0.040
2269,0.035,0.040
2270,0.035,0.040
2271,0.040,0.050
2272,0.045,0.055
2273,0.045,0.050
2274,0.045,0.050
2275,0.050,0.055
2276,0.060,0.065
2277,0.065,0.070
2278,0.070,0.075
2279,0.065,0.070
2280,0.055,0.065
2281,0.050,0.055
2282,0.040,0.050
2283,0.035,0.040
2284,0.020,0.025
2285,0.005,0.010
2286,0.000,0.000
2287,-0.005,0.000
2288,-0.015,-0.010
2289,-0.015,-0.015
2290,-0.015,-0.010
2291,-0.010,-0.005
2292,0.000,0.000
2293,0.000,0.000
2294,-0.015,-0.010
2295,-0.025,-0.020
2296,-0.020,-0.015
2297,-0.010,-0.010
2298,-0.010,-0.010
2299,-0.010,-0.005
2300,-0.005,0.000
2301,-0.005,0.000
2302,-0.005,0.000
2303,-0.005,-0.005
2304,-0.010,-0.010
2305,-0.010,-0.015
2306,-0.015,-0.020
2307,-0.020,-0.020
2308,-0.015,-0.015
2309,-0.015,-0.015
2310,-0.015,-0.015
2311,-0.010,0.000
2312,-0.005,0.000
2313,-0.005,0.000
2314,-0.015,-0.010
2315,-0.030,-0.025
2316,-0.035,-0.030
2317,-0.025,-0.020
2318,-0.015,-0.010
2319,-0.005,-0.005
2320,0.000,0.000
2321,0.000,0.000
2322,-0.005,0.000
2323,-0.010,-0.005
2324,-0.010,-0.005
2325,-0.010,-0.005
2326,-0.010,-0.005
2327,-0.015,-0.010
2328,-0.020,-0.020
2329,-0.015,-0.015
2330,-0.015,-0.010
2331,-0.020,-0.015
2332,-0.035,-0.025
2333,-0.045,-0.035
2334,-0.050,-0.040
2335,-0.040,-0.035
2336,-0.030,-0.030
2337,-0.025,-0.025
2338,-0.025,-0.025
2339,-0.035,-0.035
2340,-0.040,-0.035
2341,-0.030,-0.030
2342,-0.025,-0.025
2343,0.000,0.000
2344,0.095,0.105
2345,0.245,0.255
2346,0.350,0.365
2347,0.305,0.320
2348,0.085,0.095
2349,-0.105,-0.100
2350,-0.155,-0.150
2351,-0.105,-0.105
2352,-0.040,-0.040
2353,-0.005,-0.005
2354,0.000,0.000
2355,-0.010,-0.010
2356,-0.015,-0.015
2357,-0.010,0.000
2358,0.000,0.005
2359,0.005,0.010
2360,0.000,0.000
2361,-0.005,-0.005
2362,-0.015,-0.020
2363,-0.020,-0.025
2364,-0.025,-0.025
2365,-0.020,-0.025
2366,-0.020,-0.025
2367,-0.025,-0.025
2368,-0.020,-0.020
2369,-0.010,-0.005
2370,0.000,0.000
2371,0.000,0.005
2372,0.000,0.005
2373,0.000,0.005
2374,0.005,0.005
2375,0.010,0.015
2376,0.025,0.030
2377,0.045,0.050
2378,0.065,0.070
2379,0.070,0.075
2380,0.050,0.055
2381,0.030,0.035
2382,0.020,0.025
2383,0.010,0.015
2384,0.000,0.005
2385,0.000,0.000
2386,-0.010,0.000
2387,-0.015,-0.010
2388,-0.015,-0.020
2389,-0.015,-0.015
2390,-0.015,-0.015
2391,-0.015,-0.010
2392,-0.015,-0.010
2393,-0.010,-0.010
2394,0.000,0.000
2395,0.005,0.005
2396,0.010,0.010
2397,0.010,0.010
2398,0.010,0.010
2399,0.010,0.010
2400,0.010,0.010
2401,0.010,0.010
2402,0.000,0.000
2403,-0.005,0.000
2404,-0.010,-0.005
2405,-0.015,-0.005
2406,-0.020,-0.015
2407,-0.030,-0.025
2408,-0.035,-0.030
2409,-0.035,-0.035
2410,-0.035,-0.030
2411,-0.035,-0.030
2412,-0.035,-0.030
2413,-0.035,-0.030
2414,-0.045,-0.040
2415,-0.050,-0.045
2416,-0.045,-0.040
2417,-0.035,-0.030
2418,-0.025,-0.025
2419,-0.025,-0.025
2420,-0.035,-0.025
2421,-0.035,-0.025
2422,-0.020,-0.015
2423,0.020,0.020
2424,0.125,0.130
2425,0.275,0.290
2426,0.385,0.405
2427,0.335,0.355
2428,0.120,0.135
2429,-0.085,-0.080
2430,-0.150,-0.150
2431,-0.110,-0.105
2432,-0.055,-0.050
2433,-0.015,-0.015
2434,-0.010,-0.010
2435,-0.010,-0.005
2436,0.000,0.000
2437,0.000,0.005
2438,0.000,0.005
2439,0.000,0.000
2440,0.000,0.000
2441,0.000,0.005
2442,0.000,0.005
2443,0.005,0.010
2444,0.010,0.010
2445,0.010,0.010
2446,0.015,0.015
2447,0.025,0.030
2448,0.040,0.045
2449,0.045,0.050
2450,0.040,0.040
2451,0.035,0.040
2452,0.035,0.040
2453,0.035,0.040
2454,0.040,0.045
2455,0.045,0.050
2456,0.055,0.055
2457,0.050,0.055
2458,0.040,0.045
2459,0.025,0.030
2460,0.010,0.015
2461,-0.005,0.000
2462,-0.030,-0.030
2463,-0.050,-0.045
2464,-0.050,-0.040
2465,-0.040,-0.030
2466,-0.035,-0.035
2467,-0.030,-0.030
2468,-0.020,-0.020
2469,-0.020,-0.020
2470,-0.030,-0.025
2471,-0.025,-0.025
2472,-0.020,-0.015
2473,0.000,0.000
2474,0.060,0.070
2475,0.195,0.210
2476,0.325,0.345
2477,0.305,0.320
2478,0.115,0.125
2479,-0.075,-0.070
2480,-0.145,-0.145
2481,-0.115,-0.115
2482,-0.060,-0.060
2483,-0.025,-0.020
2484,-0.015,-0.010
2485,-0.015,-0.010
2486,-0.015,-0.015
2487,-0.020,-0.020
2488,-0.020,-0.025
2489,-0.025,-0.025
2490,-0.025,-0.020
2491,-0.015,-0.010
2492,-0.015,-0.010
2493,-0.015,-0.010
2494,-0.005,0.000
2495,0.000,0.000
2496,0.000,0.005
2497,0.005,0.010
2498,0.005,0.010
2499,0.015,0.020
2500,0.025,0.030
2501,0.025,0.030
2502,0.015,0.025
2503,0.015,0.025
2504,0.020,0.030
2505,0.030,0.040
2506,0.030,0.035
2507,0.020,0.020
2508,0.010,0.015
2509,0.010,0.015
2510,0.005,0.010
2511,0.000,0.005
2512,0.000,0.000
2513,-0.005,0.000
2514,-0.015,-0.010
2515,-0.025,-0.020
2516,-0.020,-0.020
2517,-0.015,-0.015
2518,-0.015,-0.015
2519,-0.015,-0.015
2520,-0.015,-0.015
2521,-0.015,-0.005
2522,-0.010,0.000
2523,-0.010,0.000
2524,-0.010,-0.005
2525,-0.005,0.000
2526,0.000,0.000
2527,0.000,0.005
2528,0.000,0.000
2529,0.000,0.000
2530,0.000,0.000
2531,0.000,0.000
2532,-0.005,-0.005
2533,-0.005,0.000
2534,0.000,0.000
2535,0.000,0.000
2536,0.000,0.005
2537,0.000,0.000
2538,-0.010,-0.005
2539,-0.015,-0.010
2540,-0.020,-0.020
2541,-0.030,-0.030
2542,-0.025,-0.020
2543,-0.010,-0.005
2544,-0.005,0.000
2545,-0.020,-0.015
2546,-0.040,-0.035
2547,-0.060,-0.055
2548,-0.075,-0.070
2549,-0.085,-0.085
2550,-0.085,-0.080
2551,-0.080,-0.075
2552,-0.070,-0.065
2553,-0.055,-0.055
2554,-0.035,-0.030
2555,-0.015,-0.015
2556,-0.015,-0.015
2557,-0.020,-0.015
2558,-0.015,-0.010
2559,-0.010,-0.010
2560,-0.010,-0.010
2561,-0.010,-0.010
2562,-0.010,-0.005
2563,0.005,0.005
2564,0.090,0.095
2565,0.240,0.250
2566,0.375,0.390
2567,0.370,0.390
2568,0.195,0.205
2569,-0.025,-0.020
2570,-0.130,-0.130
2571,-0.110,-0.110
2572,-0.060,-0.055
2573,-0.030,-0.025
2574,-0.025,-0.025
2575,-0.030,-0.030
2576,-0.040,-0.035
2577,-0.030,-0.025
2578,-0.010,-0.005
2579,0.005,0.010
2580,0.015,0.020
2581,0.015,0.015
2582,0.010,0.010
2583,0.010,0.010
2584,0.010,0.010
2585,0.005,0.010
2586,0.005,0.010
2587,0.005,0.010
2588,0.015,0.020
2589,0.025,0.025
2590,0.025,0.030
2591,0.040,0.045
2592,0.050,0.055
2593,0.055,0.060
2594,0.060,0.065
2595,0.065,0.075
2596,0.075,0.085
2597,0.075,0.080
2598,0.065,0.070
2599,0.065,0.070
2600,0.075,0.080
2601,0.075,0.080
2602,0.065,0.070
2603,0.055,0.060
2604,0.040,0.045
2605,0.025,0.025
2606,0.015,0.015
2607,0.005,0.010
2608,0.000,0.005
2609,0.000,0.000
2610,-0.005,0.000
2611,-0.005,0.000
2612,-0.005,0.000
2613,-0.005,0.000
2614,-0.010,-0.005
2615,0.000,0.000
2616,0.000,0.005
2617,0.005,0.005
2618,0.000,0.000
2619,-0.010,-0.005
2620,-0.015,-0.015
2621,-0.015,-0.010
2622,-0.010,-0.010
2623,-0.010,-0.010
2624,-0.020,-0.015
2625,-0.035,-0.030
2626,-0.050,-0.040
2627,-0.060,-0.050
2628,-0.060,-0.055
2629,-0.065,-0.060
2630,-0.065,-0.065
2631,-0.065,-0.060
2632,-0.060,-0.055
2633,-0.055,-0.045
2634,-0.055,-0.045
2635,-0.055,-0.045
2636,-0.060,-0.055
2637,-0.070,-0.065
2638,-0.065,-0.060
2639,-0.045,-0.040
2640,-0.030,-0.025
2641,-0.025,-0.025
2642,-0.020,-0.020
2643,0.010,0.010
2644,0.110,0.115
2645,0.255,0.270
2646,0.325,0.345
2647,0.225,0.240
2648,0.010,0.015
2649,-0.145,-0.145
2650,-0.155,-0.155
2651,-0.080,-0.080
2652,-0.015,-0.015
2653,0.005,0.010
2654,0.015,0.015
2655,0.020,0.025
2656,0.025,0.030
2657,0.025,0.035
2658,0.025,0.035
2659,0.020,0.020
2660,0.010,0.010
2661,0.010,0.010
2662,0.010,0.010
2663,0.010,0.010
2664,0.010,0.010
2665,0.010,0.010
2666,0.005,0.010
2667,0.005,0.010
2668,0.005,0.010
2669,0.010,0.015
2670,0.010,0.015
2671,0.010,0.015
2672,0.010,0.015
2673,0.010,0.015
2674,0.010,0.020
2675,0.025,0.035
2676,0.040,0.050
2677,0.045,0.055
2678,0.045,0.050
2679,0.040,0.045
2680,0.025,0.025
2681,0.000,0.005
2682,-0.015,-0.010
2683,-0.040,-0.035
2684,-0.060,-0.055
2685,-0.070,-0.065
2686,-0.075,-0.070
2687,-0.070,-0.065
2688,-0.065,-0.065
2689,-0.055,-0.045
2690,-0.040,-0.035
2691,-0.040,-0.035
2692,-0.040,-0.035
2693,-0.015,-0.005
2694,0.065,0.075
2695,0.190,0.200
2696,0.265,0.280
2697,0.190,0.200
2698,0.000,0.000
2699,-0.160,-0.160
2700,-0.190,-0.190
2701,-0.130,-0.130
2702,-0.065,-0.065
2703,-0.025,-0.025
2704,-0.015,-0.010
2705,-0.010,0.000
2706,-0.005,0.000
2707,-0.010,-0.005
2708,-0.015,-0.015
2709,-0.020,-0.020
2710,-0.025,-0.025
2711,-0.030,-0.030
2712,-0.025,-0.025
2713,-0.020,-0.025
2714,-0.020,-0.025
2715,-0.020,-0.025
2716,-0.025,-0.025
2717,-0.020,-0.025
2718,-0.015,-0.020
2719,-0.010,-0.015
2720,-0.005,-0.005
2721,-0.005,0.000
2722,0.000,0.000
2723,0.000,0.000
2724,0.000,0.000
2725,-0.005,0.000
2726,-0.010,-0.010
2727,-0.010,-0.005
2728,-0.010,0.000
2729,-0.010,0.000
2730,-0.030,-0.025
2731,-0.055,-0.050
2732,-0.070,-0.065
2733,-0.075,-0.070
2734,-0.075,-0.070
2735,-0.075,-0.070
2736,-0.075,-0.070
2737,-0.075,-0.070
2738,-0.080,-0.070
2739,-0.085,-0.075
2740,-0.080,-0.070
2741,-0.070,-0.065
2742,-0.060,-0.055
2743,-0.060,-0.055
2744,-0.065,-0.060
2745,-0.070,-0.065
2746,-0.075,-0.070
2747,-0.070,-0.070
2748,-0.070,-0.070
2749,-0.070,-0.070
2750,-0.075,-0.070
2751,-0.085,-0.080
2752,-0.085,-0.080
2753,-0.080,-0.075
2754,-0.080,-0.070
2755,-0.085,-0.080
2756,-0.095,-0.090
2757,-0.085,-0.080
2758,-0.070,-0.070
2759,-0.060,-0.060
2760,-0.060,-0.055
2761,-0.055,-0.050
2762,-0.050,-0.045
2763,-0.045,-0.035
2764,-0.040,-0.035
2765,-0.040,-0.035
2766,-0.050,-0.045
2767,-0.055,-0.050
2768,-0.065,-0.060
2769,-0.075,-0.070
2770,-0.085,-0.080
2771,-0.095,-0.095
2772,-0.115,-0.115
2773,-0.125,-0.130
2774,-0.125,-0.125
2775,-0.105,-0.105
2776,-0.100,-0.100
2777,-0.105,-0.110
2778,-0.120,-0.120
2779,-0.125,-0.125
2780,-0.130,-0.130
2781,-0.130,-0.130
2782,-0.125,-0.125
2783,-0.125,-0.125
2784,-0.100,-0.100
2785,-0.020,-0.015
2786,0.110,0.115
2787,0.215,0.225
2788,0.185,0.195
2789,0.000,0.000
2790,-0.195,-0.195
2791,-0.255,-0.260
2792,-0.200,-0.205
2793,-0.130,-0.130
2794,-0.105,-0.105
2795,-0.110,-0.110
2796,-0.125,-0.120
2797,-0.125,-0.125
2798,-0.125,-0.125
2799,-0.120,-0.115
2800,-0.105,-0.100
2801,-0.100,-0.095
2802,-0.100,-0.105
2803,-0.110,-0.120
2804,-0.115,-0.120
2805,-0.100,-0.105
2806,-0.085,-0.085
2807,-0.065,-0.070
2808,-0.060,-0.070
2809,-0.075,-0.080
2810,-0.085,-0.090
2811,-0.075,-0.085
2812,-0.070,-0.075
2813,-0.070,-0.075
2814,-0.075,-0.080
2815,-0.070,-0.075
2816,-0.055,-0.060
2817,-0.030,-0.035
2818,-0.015,-0.025
2819,-0.010,-0.020
2820,-0.010,-0.015
2821,-0.010,-0.015
2822,-0.015,-0.020
2823,-0.015,-0.025
2824,-0.020,-0.030
2825,-0.030,-0.035
2826,-0.050,-0.055
2827,-0.055,-0.065
2828,-0.050,-0.055
2829,-0.045,-0.050
2830,-0.045,-0.050
2831,-0.055,-0.060
2832,-0.065,-0.070
2833,-0.080,-0.085
2834,-0.090,-0.095
2835,-0.095,-0.100
2836,-0.095,-0.105
2837,-0.090,-0.100
2838,-0.085,-0.095
2839,-0.080,-0.085
2840,-0.075,-0.080
2841,-0.075,-0.080
2842,-0.085,-0.090
2843,-0.090,-0.095
2844,-0.100,-0.105
2845,-0.105,-0.115
2846,-0.120,-0.130
2847,-0.135,-0.145
2848,-0.135,-0.150
2849,-0.140,-0.150
2850,-0.140,-0.150
2851,-0.145,-0.150
2852,-0.140,-0.150
2853,-0.135,-0.145
2854,-0.130,-0.140
2855,-0.130,-0.140
2856,-0.135,-0.140
2857,-0.130,-0.135
2858,-0.115,-0.125
2859,-0.115,-0.125
2860,-0.115,-0.125
2861,-0.105,-0.115
2862,-0.095,-0.100
2863,-0.060,-0.065
2864,0.020,0.010
2865,0.170,0.165
2866,0.305,0.310
2867,0.300,0.300
2868,0.115,0.115
2869,-0.090,-0.095
2870,-0.185,-0.190
2871,-0.160,-0.170
2872,-0.100,-0.110
2873,-0.065,-0.075
2874,-0.055,-0.060
2875,-0.055,-0.060
2876,-0.060,-0.065
2877,-0.070,-0.075
2878,-0.080,-0.080
2879,-0.085,-0.085
2880,-0.085,-0.090
2881,-0.085,-0.085
2882,-0.090,-0.085
2883,-0.095,-0.090
2884,-0.095,-0.100
2885,-0.095,-0.110
2886,-0.095,-0.105
2887,-0.095,-0.105
2888,-0.095,-0.105
2889,-0.090,-0.100
2890,-0.085,-0.090
2891,-0.080,-0.080
2892,-0.070,-0.075
2893,-0.060,-0.065
2894,-0.055,-0.060
2895,-0.050,-0.055
2896,-0.050,-0.055
2897,-0.060,-0.060
2898,-0.075,-0.075
2899,-0.080,-0.080
2900,-0.085,-0.095
2901,-0.105,-0.115
2902,-0.125,-0.140
2903,-0.150,-0.160
2904,-0.160,-0.165
2905,-0.155,-0.165
2906,-0.145,-0.155
2907,-0.135,-0.150
2908,-0.135,-0.150
2909,-0.145,-0.160
2910,-0.150,-0.165
2911,-0.155,-0.165
2912,-0.155,-0.165
2913,-0.115,-0.125
2914,-0.005,-0.010
2915,0.145,0.145
2916,0.235,0.235
2917,0.170,0.165
2918,-0.020,-0.030
2919,-0.205,-0.215
2920,-0.270,-0.280
2921,-0.220,-0.230
2922,-0.140,-0.150
2923,-0.090,-0.095
2924,-0.075,-0.080
2925,-0.080,-0.095
2926,-0.090,-0.105
2927,-0.095,-0.105
2928,-0.100,-0.105
2929,-0.100,-0.110
2930,-0.095,-0.105
2931,-0.095,-0.100
2932,-0.090,-0.100
2933,-0.085,-0.095
2934,-0.075,-0.085
2935,-0.065,-0.070
2936,-0.055,-0.060
2937,-0.045,-0.050
2938,-0.040,-0.045
2939,-0.040,-0.045
2940,-0.040,-0.045
2941,-0.050,-0.055
2942,-0.050,-0.055
2943,-0.035,-0.035
2944,-0.020,-0.025
2945,-0.015,-0.025
2946,-0.015,-0.025
2947,-0.020,-0.030
2948,-0.040,-0.045
2949,-0.060,-0.065
2950,-0.075,-0.080
2951,-0.090,-0.095
2952,-0.095,-0.105
2953,-0.100,-0.110
2954,-0.095,-0.105
2955,-0.095,-0.105
2956,-0.095,-0.105
2957,-0.095,-0.110
2958,-0.100,-0.115
2959,-0.100,-0.110
2960,-0.090,-0.100
2961,-0.085,-0.090
2962,-0.085,-0.090
2963,-0.080,-0.085
2964,-0.080,-0.085
2965,-0.085,-0.090
2966,-0.095,-0.100
2967,-0.105,-0.110
2968,-0.105,-0.110
2969,-0.090,-0.095
2970,-0.080,-0.090
2971,-0.080,-0.090
2972,-0.085,-0.090
2973,-0.085,-0.090
2974,-0.085,-0.090
2975,-0.095,-0.105
2976,-0.100,-0.110
2977,-0.100,-0.110
2978,-0.100,-0.110
2979,-0.105,-0.120
2980,-0.105,-0.120
2981,-0.090,-0.105
2982,-0.080,-0.085
2983,-0.080,-0.090
2984,-0.090,-0.100
2985,-0.090,-0.100
2986,-0.090,-0.095
2987,-0.090,-0.095
2988,-0.100,-0.110
2989,-0.105,-0.115
2990,-0.105,-0.110
2991,-0.100,-0.100
2992,-0.090,-0.090
2993,-0.085,-0.085
2994,-0.105,-0.100
2995,-0.115,-0.115
2996,-0.110,-0.115
2997,-0.100,-0.105
2998,-0.100,-0.100
2999,-0.085,-0.090
3000,-0.075,-0.075
3001,-0.070,-0.075
3002,-0.070,-0.075
3003,-0.065,-0.065
3004,-0.050,-0.050
3005,0.005,0.010
3006,0.130,0.140
3007,0.275,0.285
3008,0.330,0.345
3009,0.220,0.225
3010,-0.010,-0.010
3011,-0.190,-0.195
3012,-0.225,-0.230
3013,-0.165,-0.170
3014,-0.100,-0.100
3015,-0.060,-0.055
3016,-0.045,-0.040
3017,-0.035,-0.035
3018,-0.045,-0.040
3019,-0.055,-0.050
3020,-0.055,-0.055
3021,-0.050,-0.050
3022,-0.040,-0.040
3023,-0.020,-0.020
3024,-0.015,-0.015
3025,-0.015,-0.010
3026,-0.010,-0.005
3027,-0.005,-0.005
3028,0.000,0.000
3029,0.000,0.000
3030,0.000,0.000
3031,-0.015,-0.010
3032,-0.020,-0.015
3033,0.000,0.000
3034,0.010,0.010
3035,0.015,0.015
3036,0.015,0.015
3037,0.020,0.020
3038,0.035,0.035
3039,0.040,0.040
3040,0.040,0.045
3041,0.040,0.045
3042,0.035,0.040
3043,0.020,0.025
3044,0.005,0.010
3045,0.000,0.000
3046,-0.005,-0.005
3047,-0.005,0.000
3048,-0.005,0.000
3049,-0.015,-0.010
3050,-0.025,-0.020
3051,-0.030,-0.025
3052,-0.040,-0.035
3053,-0.040,-0.030
3054,-0.025,-0.020
3055,-0.010,-0.010
3056,-0.010,-0.010
3057,-0.005,-0.005
3058,0.000,0.000
3059,0.000,0.005
3060,0.000,0.005
3061,0.000,0.000
3062,-0.010,-0.010
3063,-0.015,-0.010
3064,-0.015,-0.015
3065,-0.030,-0.030
3066,-0.040,-0.040
3067,-0.035,-0.035
3068,-0.020,-0.020
3069,-0.015,-0.015
3070,-0.015,-0.015
3071,-0.030,-0.025
3072,-0.050,-0.050
3073,-0.060,-0.060
3074,-0.065,-0.065
3075,-0.060,-0.055
3076,-0.045,-0.045
3077,-0.045,-0.035
3078,-0.045,-0.040
3079,-0.060,-0.055
3080,-0.065,-0.060
3081,-0.055,-0.050
3082,-0.040,-0.035
3083,-0.035,-0.030
3084,-0.040,-0.035
3085,-0.045,-0.045
3086,-0.030,-0.025
3087,0.030,0.035
3088,0.150,0.155
3089,0.280,0.285
3090,0.320,0.330
3091,0.200,0.215
3092,0.000,0.000
3093,-0.140,-0.145
3094,-0.160,-0.160
3095,-0.110,-0.110
3096,-0.070,-0.070
3097,-0.060,-0.060
3098,-0.060,-0.065
3099,-0.070,-0.070
3100,-0.080,-0.075
3101,-0.085,-0.080
3102,-0.080,-0.075
3103,-0.070,-0.070
3104,-0.065,-0.065
3105,-0.055,-0.055
3106,-0.045,-0.040
3107,-0.040,-0.035
3108,-0.045,-0.040
3109,-0.060,-0.055
3110,-0.060,-0.060
3111,-0.050,-0.050
3112,-0.035,-0.030
3113,-0.025,-0.030
3114,-0.035,-0.035
3115,-0.035,-0.035
3116,-0.030,-0.030
3117,-0.030,-0.030
3118,-0.030,-0.030
3119,-0.020,-0.020
3120,0.000,0.000
3121,0.000,0.000
3122,0.000,0.000
3123,0.000,0.000
3124,0.000,0.000
3125,-0.020,-0.020
3126,-0.055,-0.050
3127,-0.075,-0.070
3128,-0.085,-0.085
3129,-0.095,-0.095
3130,-0.100,-0.105
3131,-0.105,-0.110
3132,-0.110,-0.115
3133,-0.110,-0.115
3134,-0.100,-0.105
3135,-0.090,-0.095
3136,-0.075,-0.075
3137,-0.030,-0.030
3138,0.040,0.045
3139,0.155,0.165
3140,0.255,0.270
3141,0.250,0.260
3142,0.100,0.100
3143,-0.085,-0.085
3144,-0.180,-0.180
3145,-0.160,-0.160
3146,-0.100,-0.100
3147,-0.065,-0.065
3148,-0.050,-0.045
3149,-0.045,-0.040
3150,-0.045,-0.045
3151,-0.060,-0.055
3152,-0.060,-0.065
3153,-0.060,-0.065
3154,-0.060,-0.060
3155,-0.060,-0.055
3156,-0.060,-0.055
3157,-0.060,-0.055
3158,-0.060,-0.055
3159,-0.060,-0.060
3160,-0.060,-0.060
3161,-0.055,-0.050
3162,-0.055,-0.050
3163,-0.055,-0.050
3164,-0.060,-0.055
3165,-0.065,-0.060
3166,-0.075,-0.065
3167,-0.075,-0.065
3168,-0.065,-0.060
3169,-0.065,-0.060
3170,-0.065,-0.060
3171,-0.060,-0.055
3172,-0.055,-0.050
3173,-0.055,-0.050
3174,-0.060,-0.060
3175,-0.065,-0.065
3176,-0.065,-0.070
3177,-0.075,-0.075
3178,-0.095,-0.095
3179,-0.110,-0.110
3180,-0.120,-0.120
3181,-0.125,-0.125
3182,-0.130,-0.130
3183,-0.130,-0.125
3184,-0.125,-0.120
3185,-0.120,-0.115
3186,-0.120,-0.115
3187,-0.115,-0.115
3188,-0.110,-0.105
3189,-0.095,-0.090
3190,-0.085,-0.080
3191,-0.075,-0.070
3192,-0.065,-0.065
3193,-0.065,-0.065
3194,-0.060,-0.065
3195,-0.060,-0.060
3196,-0.060,-0.055
3197,-0.060,-0.055
3198,-0.060,-0.055
3199,-0.065,-0.060
3200,-0.070,-0.070
3201,-0.070,-0.070
3202,-0.070,-0.065
3203,-0.055,-0.050
3204,-0.050,-0.045
3205,-0.055,-0.050
3206,-0.070,-0.065
3207,-0.085,-0.080
3208,-0.090,-0.085
3209,-0.095,-0.090
3210,-0.105,-0.100
3211,-0.120,-0.125
3212,-0.130,-0.135
3213,-0.125,-0.130
3214,-0.110,-0.115
3215,-0.110,-0.110
3216,-0.115,-0.115
3217,-0.120,-0.125
3218,-0.115,-0.120
3219,-0.110,-0.115
3220,-0.110,-0.115
3221,-0.105,-0.110
3222,-0.100,-0.105
3223,-0.100,-0.105
3224,-0.100,-0.105
3225,-0.095,-0.100
3226,-0.090,-0.090
3227,-0.070,-0.070
3228,-0.015,-0.010
3229,0.095,0.105
3230,0.235,0.250
3231,0.300,0.315
3232,0.195,0.200
3233,-0.020,-0.025
3234,-0.175,-0.180
3235,-0.170,-0.175
3236,-0.090,-0.090
3237,-0.025,-0.025
3238,-0.005,0.000
3239,-0.005,0.000
3240,-0.005,-0.005
3241,-0.015,-0.015
3242,-0.010,-0.015
3243,-0.005,-0.005
3244,0.000,0.000
3245,0.000,0.000
3246,-0.005,0.000
3247,-0.005,-0.005
3248,0.000,0.000
3249,0.000,0.000
3250,0.000,0.000
3251,-0.010,-0.005
3252,-0.030,-0.025
3253,-0.045,-0.045
3254,-0.045,-0.040
3255,-0.030,-0.030
3256,-0.030,-0.030
3257,-0.030,-0.030
3258,-0.030,-0.025
3259,-0.020,-0.020
3260,-0.015,-0.010
3261,-0.010,-0.005
3262,0.000,0.000
3263,0.005,0.005
3264,0.005,0.010
3265,0.005,0.010
3266,0.005,0.005
3267,0.000,0.000
3268,-0.010,-0.010
3269,-0.015,-0.020
3270,-0.020,-0.025
3271,-0.020,-0.025
3272,-0.020,-0.030
3273,-0.025,-0.030
3274,-0.030,-0.030
3275,-0.040,-0.035
3276,-0.045,-0.035
3277,-0.050,-0.045
3278,-0.055,-0.050
3279,-0.060,-0.055
3280,-0.060,-0.060
3281,-0.065,-0.070
3282,-0.060,-0.070
3283,-0.060,-0.070
3284,-0.060,-0.070
3285,-0.065,-0.075
3286,-0.065,-0.080
3287,-0.070,-0.085
3288,-0.070,-0.075
3289,-0.065,-0.075
3290,-0.065,-0.075
3291,-0.070,-0.075
3292,-0.085,-0.090
3293,-0.095,-0.110
3294,-0.100,-0.115
3295,-0.100,-0.110
3296,-0.100,-0.110
3297,-0.105,-0.115
3298,-0.110,-0.125
3299,-0.125,-0.140
3300,-0.120,-0.135
3301,-0.105,-0.120
3302,-0.100,-0.115
3303,-0.100,-0.115
3304,-0.090,-0.105
3305,-0.085,-0.090
3306,-0.070,-0.075
3307,-0.025,-0.030
3308,0.080,0.075
3309,0.230,0.230
3310,0.335,0.335
3311,0.285,0.285
3312,0.080,0.070
3313,-0.130,-0.145
3314,-0.215,-0.235
3315,-0.185,-0.200
3316,-0.125,-0.135
3317,-0.080,-0.090
3318,-0.070,-0.075
3319,-0.065,-0.070
3320,-0.055,-0.060
3321,-0.040,-0.045
3322,-0.030,-0.035
3323,-0.020,-0.030
3324,-0.015,-0.025
3325,-0.015,-0.025
3326,-0.020,-0.025
3327,-0.020,-0.025
3328,-0.020,-0.025
3329,-0.010,-0.020
3330,0.000,-0.010
3331,0.000,-0.005
3332,0.000,-0.005
3333,0.000,-0.005
3334,0.000,-0.005
3335,0.000,-0.010
3336,-0.020,-0.030
3337,-0.035,-0.045
3338,-0.035,-0.040
3339,-0.015,-0.025
3340,0.000,-0.005
3341,0.010,0.005
3342,0.010,0.000
3343,0.000,-0.005
3344,-0.020,-0.030
3345,-0.055,-0.060
3346,-0.080,-0.090
3347,-0.095,-0.110
3348,-0.095,-0.110
3349,-0.095,-0.110
3350,-0.100,-0.110
3351,-0.100,-0.110
3352,-0.095,-0.100
3353,-0.085,-0.090
3354,-0.070,-0.075
3355,-0.060,-0.065
3356,-0.050,-0.055
3357,-0.005,-0.010
3358,0.090,0.085
3359,0.215,0.215
3360,0.270,0.270
3361,0.170,0.170
3362,-0.040,-0.045
3363,-0.215,-0.230
3364,-0.230,-0.245
3365,-0.145,-0.155
3366,-0.070,-0.075
3367,-0.030,-0.035
3368,-0.015,-0.025
3369,-0.015,-0.025
3370,-0.030,-0.040
3371,-0.035,-0.045
3372,-0.035,-0.040
3373,-0.010,-0.020
3374,0.000,0.000
3375,0.005,0.000
3376,0.005,0.000
3377,0.010,0.000
3378,0.020,0.010
3379,0.030,0.020
3380,0.040,0.030
3381,0.055,0.045
3382,0.060,0.050
3383,0.050,0.045
3384,0.050,0.045
3385,0.055,0.050
3386,0.070,0.060
3387,0.080,0.070
3388,0.075,0.065
3389,0.070,0.060
3390,0.060,0.050
3391,0.040,0.030
3392,0.030,0.020
3393,0.020,0.010
3394,0.015,0.010
3395,0.015,0.010
3396,0.015,0.010
3397,0.015,0.010
3398,0.010,0.005
3399,0.000,0.000
3400,-0.005,-0.010
3401,0.000,-0.010
3402,0.000,0.000
3403,0.005,0.000
3404,0.005,-0.005
3405,0.005,0.000
3406,0.010,0.000
3407,0.015,0.010
3408,0.020,0.010
3409,0.020,0.010
3410,0.015,0.010
3411,0.015,0.010
3412,0.015,0.010
3413,0.015,0.010
3414,0.015,0.010
3415,0.010,0.005
3416,0.005,0.000
3417,0.000,0.000
3418,0.000,0.000
3419,0.010,0.005
3420,0.015,0.010
3421,0.015,0.010
3422,0.010,0.005
3423,0.000,0.000
3424,0.000,-0.005
3425,0.000,0.000
3426,0.005,0.000
3427,0.005,0.000
3428,0.000,-0.005
3429,-0.005,-0.010
3430,0.000,-0.010
3431,0.000,0.000
3432,0.000,0.000
3433,-0.005,-0.010
3434,-0.010,-0.020
3435,-0.015,-0.020
3436,-0.015,-0.020
3437,-0.020,-0.025
3438,-0.020,-0.025
3439,-0.025,-0.030
3440,-0.030,-0.035
3441,-0.045,-0.050
3442,-0.050,-0.055
3443,-0.030,-0.035
3444,-0.015,-0.025
3445,-0.015,-0.025
3446,-0.015,-0.025
3447,-0.020,-0.030
3448,-0.030,-0.040
3449,-0.025,-0.035
3450,-0.015,-0.025
3451,0.000,-0.005
3452,0.040,0.035
3453,0.145,0.145
3454,0.290,0.295
3455,0.390,0.395
3456,0.310,0.315
3457,0.075,0.070
3458,-0.095,-0.110
3459,-0.115,-0.125
3460,-0.050,-0.055
3461,-0.005,-0.005
3462,0.005,0.005
3463,0.010,0.010
3464,0.020,0.015
3465,0.035,0.025
3466,0.045,0.040
3467,0.050,0.045
3468,0.045,0.040
3469,0.030,0.025
3470,0.020,0.015
3471,0.010,0.010
3472,0.010,0.010
3473,0.010,0.010
3474,0.005,0.005
3475,0.005,0.000
3476,0.010,0.005
3477,0.025,0.020
3478,0.035,0.030
3479,0.035,0.030
3480,0.035,0.030
3481,0.040,0.030
3482,0.045,0.040
3483,0.060,0.055
3484,0.075,0.070
3485,0.080,0.075
3486,0.075,0.070
3487,0.065,0.055
3488,0.055,0.045
3489,0.045,0.035
3490,0.030,0.025
3491,0.020,0.015
3492,0.010,0.010
3493,0.005,0.005
3494,0.000,0.000
3495,0.000,-0.005
3496,0.000,-0.005
3497,-0.005,-0.010
3498,0.000,-0.005
3499,0.000,0.000
3500,0.005,0.005
3501,0.010,0.010
3502,0.000,0.000
3503,0.000,-0.005
3504,0.000,0.000
3505,0.005,0.000
3506,0.005,0.000
3507,0.000,-0.005
3508,0.000,-0.010
3509,0.000,-0.005
3510,0.000,-0.005
3511,0.000,-0.005
3512,-0.005,-0.010
3513,0.000,-0.005
3514,-0.005,-0.010
3515,-0.015,-0.025
3516,-0.025,-0.030
3517,-0.020,-0.025
3518,-0.010,-0.015
3519,0.000,-0.005
3520,0.000,-0.005
3521,0.000,0.000
3522,0.005,0.000
3523,0.010,0.000
3524,0.025,0.010
3525,0.035,0.020
3526,0.035,0.020
3527,0.025,0.015
3528,0.025,0.015
3529,0.030,0.020
3530,0.040,0.030
3531,0.085,0.080
3532,0.190,0.190
3533,0.345,0.345
3534,0.470,0.475
3535,0.445,0.455
3536,0.240,0.240
3537,0.010,0.005
3538,-0.070,-0.075
3539,-0.035,-0.045
3540,0.010,0.000
3541,0.035,0.030
3542,0.035,0.030
3543,0.040,0.030
3544,0.030,0.020
3545,0.020,0.015
3546,0.010,0.010
3547,0.010,0.005
3548,0.010,0.005
3549,0.010,0.005
3550,0.005,0.000
3551,0.000,0.000
3552,0.000,0.000
3553,0.005,0.000
3554,0.010,0.010
3555,0.025,0.020
3556,0.040,0.035
3557,0.065,0.060
3558,0.085,0.080
3559,0.100,0.090
3560,0.100,0.095
3561,0.095,0.090
3562,0.095,0.090
3563,0.105,0.095
3564,0.115,0.105
3565,0.120,0.115
3566,0.120,0.115
3567,0.115,0.110
3568,0.100,0.090
3569,0.070,0.060
3570,0.040,0.035
3571,0.020,0.015
3572,0.015,0.010
3573,0.015,0.010
3574,0.025,0.020
3575,0.035,0.025
3576,0.030,0.020
3577,0.025,0.020
3578,0.025,0.020
3579,0.025,0.020
3580,0.025,0.020
3581,0.030,0.030
3582,0.095,0.095
3583,0.215,0.215
3584,0.315,0.320
3585,0.270,0.275
3586,0.085,0.080
3587,-0.080,-0.095
3588,-0.140,-0.155
3589,-0.095,-0.105
3590,-0.030,-0.035
3591,0.000,0.000
3592,0.000,-0.005
3593,-0.010,-0.015
3594,-0.015,-0.020
3595,-0.025,-0.025
3596,-0.030,-0.030
3597,-0.020,-0.025
3598,-0.010,-0.020
3599,0.000,-0.015
3600,0.000,-0.015
3601,-0.010,-0.015
3602,-0.015,-0.020
3603,-0.015,-0.020
3604,-0.010,-0.015
3605,-0.010,-0.015
3606,-0.005,-0.010
3607,0.000,0.000
3608,0.005,0.005
3609,0.010,0.000
3610,0.010,0.000
3611,0.010,0.000
3612,0.010,0.005
3613,0.005,0.005
3614,0.000,0.000
3615,-0.005,-0.010
3616,-0.010,-0.020
3617,-0.020,-0.025
3618,-0.030,-0.035
3619,-0.035,-0.040
3620,-0.045,-0.045
3621,-0.050,-0.050
3622,-0.045,-0.050
3623,-0.045,-0.045
3624,-0.045,-0.045
3625,-0.040,-0.045
3626,-0.035,-0.040
3627,-0.025,-0.035
3628,-0.020,-0.030
3629,-0.025,-0.035
3630,-0.035,-0.045
3631,-0.040,-0.050
3632,-0.045,-0.055
3633,-0.055,-0.065
3634,-0.060,-0.070
3635,-0.060,-0.070
3636,-0.055,-0.060
3637,-0.050,-0.050
3638,-0.050,-0.050
3639,-0.055,-0.055
3640,-0.060,-0.065
3641,-0.070,-0.075
3642,-0.080,-0.085
3643,-0.090,-0.095
3644,-0.095,-0.100
3645,-0.100,-0.105
3646,-0.110,-0.120
3647,-0.125,-0.130
3648,-0.125,-0.130
3649,-0.125,-0.130
3650,-0.125,-0.130
3651,-0.130,-0.135
3652,-0.130,-0.135
3653,-0.135,-0.140
3654,-0.130,-0.135
3655,-0.120,-0.130
3656,-0.115,-0.125
3657,-0.115,-0.125
3658,-0.115,-0.130
3659,-0.110,-0.125
3660,-0.110,-0.125
3661,-0.115,-0.125
3662,-0.120,-0.125
3663,-0.120,-0.125
3664,-0.115,-0.125
3665,-0.110,-0.120
3666,-0.090,-0.105
3667,-0.080,-0.095
3668,-0.075,-0.080
3669,-0.075,-0.080
3670,-0.075,-0.080
3671,-0.055,-0.060
3672,0.010,0.010
3673,0.145,0.150
3674,0.300,0.305
3675,0.370,0.375
3676,0.245,0.250
3677,0.015,0.015
3678,-0.130,-0.140
3679,-0.140,-0.155
3680,-0.090,-0.100
3681,-0.045,-0.055
3682,-0.030,-0.035
3683,-0.035,-0.045
3684,-0.040,-0.050
3685,-0.035,-0.040
3686,-0.020,-0.025
3687,-0.015,-0.025
3688,-0.025,-0.035
3689,-0.035,-0.045
3690,-0.040,-0.050
3691,-0.045,-0.055
3692,-0.045,-0.055
3693,-0.035,-0.040
3694,-0.025,-0.030
3695,-0.025,-0.030
3696,-0.020,-0.030
3697,-0.010,-0.020
3698,0.000,-0.010
3699,0.000,-0.010
3700,0.000,-0.005
3701,0.005,0.000
3702,0.020,0.015
3703,0.025,0.020
3704,0.030,0.025
3705,0.045,0.040
3706,0.055,0.050
3707,0.050,0.045
3708,0.045,0.040
3709,0.030,0.030
3710,0.020,0.015
3711,0.010,0.010
3712,0.010,0.010
3713,0.010,0.005
3714,0.005,0.005
3715,0.010,0.005
3716,0.015,0.010
3717,0.010,0.010
3718,0.010,0.005
3719,0.010,0.000
3720,0.010,0.000
3721,0.005,0.000
3722,0.005,0.000
3723,0.005,0.000
3724,0.010,0.000
3725,0.010,0.005
3726,0.000,0.000
3727,-0.005,-0.010
3728,-0.010,-0.020
3729,-0.015,-0.025
3730,-0.015,-0.025
3731,-0.025,-0.035
3732,-0.035,-0.045
3733,-0.030,-0.040
3734,-0.025,-0.035
3735,-0.025,-0.035
3736,-0.020,-0.030
3737,-0.020,-0.025
3738,-0.020,-0.025
3739,-0.030,-0.035
3740,-0.030,-0.040
3741,-0.020,-0.025
3742,-0.010,-0.015
3743,-0.020,-0.025
3744,-0.035,-0.040
3745,-0.045,-0.055
3746,-0.045,-0.050
3747,-0.035,-0.040
3748,-0.020,-0.030
3749,-0.020,-0.030
3750,-0.025,-0.030
3751,0.000,-0.010
3752,0.065,0.055
3753,0.215,0.210
3754,0.370,0.370
3755,0.375,0.375
3756,0.170,0.170
3757,-0.085,-0.090
3758,-0.190,-0.205
3759,-0.150,-0.165
3760,-0.070,-0.080
3761,-0.015,-0.020
3762,0.005,0.000
3763,0.010,0.005
3764,0.010,0.010
3765,0.010,0.010
3766,0.015,0.010
3767,0.015,0.010
3768,0.010,0.000
3769,0.005,0.000
3770,0.005,0.000
3771,0.010,0.005
3772,0.010,0.010
3773,0.020,0.015
3774,0.030,0.020
3775,0.035,0.030
3776,0.040,0.040
3777,0.045,0.045
3778,0.050,0.045
3779,0.045,0.040
3780,0.035,0.025
3781,0.025,0.020
3782,0.025,0.020
3783,0.040,0.035
3784,0.060,0.055
3785,0.085,0.080
3786,0.110,0.100
3787,0.110,0.100
3788,0.095,0.090
3789,0.070,0.065
3790,0.030,0.025
3791,0.005,0.000
3792,0.000,-0.005
3793,-0.010,-0.015
3794,-0.015,-0.025
3795,-0.015,-0.025
3796,-0.020,-0.025
3797,-0.015,-0.025
3798,-0.015,-0.025
3799,-0.010,-0.015
3800,0.000,-0.005
3801,0.015,0.005
3802,0.075,0.065
3803,0.185,0.185
3804,0.295,0.295
3805,0.290,0.290
3806,0.120,0.115
3807,-0.080,-0.085
3808,-0.170,-0.180
3809,-0.140,-0.145
3810,-0.065,-0.070
3811,-0.010,-0.010
3812,0.000,0.000
3813,0.000,0.000
3814,0.000,-0.005
3815,0.000,0.000
3816,0.005,0.005
3817,0.015,0.010
3818,0.020,0.010
3819,0.025,0.015
3820,0.020,0.010
3821,0.010,0.005
3822,0.005,0.000
3823,0.005,0.000
3824,0.010,0.005
3825,0.015,0.010
3826,0.020,0.010
3827,0.020,0.015
3828,0.030,0.025
3829,0.040,0.030
3830,0.040,0.035
3831,0.040,0.035
3832,0.045,0.035
3833,0.040,0.030
3834,0.035,0.025
3835,0.020,0.015
3836,0.010,0.010
3837,0.010,0.010
3838,0.010,0.010
3839,0.010,0.010
3840,0.010,0.010
3841,0.010,0.010
3842,0.010,0.010
3843,0.010,0.010
3844,0.010,0.010
3845,0.010,0.010
3846,0.010,0.010
3847,0.010,0.010
3848,0.010,0.010
3849,0.010,0.010
3850,0.010,0.010
3851,0.015,0.010
3852,0.030,0.020
3853,0.035,0.025
3854,0.020,0.020
3855,0.015,0.010
3856,0.015,0.010
3857,0.020,0.010
3858,0.015,0.010
3859,0.005,0.000
3860,0.000,0.000
3861,-0.005,-0.010
3862,-0.010,-0.015
3863,-0.005,-0.010
3864,0.000,-0.005
3865,0.000,0.000
3866,0.000,0.000
3867,0.000,-0.005
3868,0.000,-0.005
3869,0.000,0.000
3870,0.000,0.000
3871,0.000,-0.005
3872,0.000,-0.005
3873,0.000,0.000
3874,0.010,0.005
3875,0.010,0.000
3876,0.005,0.000
3877,0.005,0.000
3878,0.000,0.000
3879,0.000,-0.005
3880,-0.005,-0.015
3881,-0.015,-0.020
3882,-0.020,-0.025
3883,-0.020,-0.025
3884,-0.035,-0.040
3885,-0.045,-0.050
3886,-0.050,-0.055
3887,-0.050,-0.055
3888,-0.050,-0.055
3889,-0.040,-0.050
3890,-0.030,-0.035
3891,-0.010,-0.020
3892,0.000,0.000
3893,0.020,0.015
3894,0.090,0.085
3895,0.210,0.215
3896,0.350,0.355
3897,0.405,0.410
3898,0.295,0.300
3899,0.080,0.080
3900,-0.060,-0.065
3901,-0.075,-0.080
3902,-0.025,-0.030
3903,0.005,0.000
3904,0.015,0.010
3905,0.020,0.015
3906,0.035,0.030
3907,0.045,0.040
3908,0.045,0.040
3909,0.045,0.040
3910,0.045,0.040
3911,0.040,0.035
3912,0.035,0.025
3913,0.020,0.015
3914,0.015,0.010
3915,0.010,0.010
3916,0.010,0.005
3917,0.010,0.005
3918,0.010,0.005
3919,0.015,0.010
3920,0.020,0.010
3921,0.025,0.015
3922,0.025,0.020
3923,0.025,0.015
3924,0.025,0.015
3925,0.025,0.015
3926,0.025,0.015
3927,0.025,0.025
3928,0.035,0.035
3929,0.045,0.045
3930,0.050,0.050
3931,0.055,0.055
3932,0.055,0.050
3933,0.040,0.035
3934,0.020,0.015
3935,0.010,0.005
3936,0.010,0.005
3937,0.010,0.005
3938,0.010,0.010
3939,0.010,0.010
3940,0.010,0.010
3941,0.010,0.010
3942,0.015,0.010
3943,0.025,0.020
3944,0.030,0.025
3945,0.030,0.025
3946,0.020,0.015
3947,0.010,0.005
3948,0.000,-0.005
3949,-0.010,-0.015
3950,-0.020,-0.025
3951,-0.025,-0.030
3952,-0.025,-0.035
3953,-0.020,-0.030
3954,-0.015,-0.020
3955,0.000,-0.010
3956,0.000,-0.005
3957,-0.015,-0.020
3958,-0.030,-0.035
3959,-0.030,-0.030
3960,-0.030,-0.030
3961,-0.030,-0.035
3962,-0.035,-0.040
3963,-0.035,-0.040
3964,-0.035,-0.040
3965,-0.040,-0.050
3966,-0.035,-0.045
3967,-0.015,-0.025
3968,-0.010,-0.020
3969,-0.010,-0.020
3970,-0.015,-0.020
3971,-0.015,-0.020
3972,-0.015,-0.020
3973,0.005,0.000
3974,0.100,0.090
3975,0.250,0.250
3976,0.375,0.380
3977,0.355,0.355
3978,0.165,0.165
3979,-0.025,-0.035
3980,-0.105,-0.115
3981,-0.070,-0.075
3982,-0.010,-0.015
3983,0.020,0.010
3984,0.035,0.025
3985,0.030,0.025
3986,0.020,0.020
3987,0.015,0.015
3988,0.020,0.015
3989,0.020,0.015
3990,0.015,0.010
3991,0.015,0.010
3992,0.015,0.010
3993,0.015,0.005
3994,0.005,0.000
3995,0.005,0.000
3996,0.005,0.000
3997,0.005,0.000
3998,0.005,0.000
3999,0.005,0.000
4000,0.010,0.005
4001,0.020,0.015
4002,0.030,0.020
4003,0.040,0.030
4004,0.045,0.045
4005,0.060,0.055
4006,0.075,0.065
4007,0.070,0.060
4008,0.050,0.050
4009,0.045,0.045
4010,0.035,0.035
4011,0.010,0.010
4012,-0.015,-0.020
4013,-0.045,-0.045
4014,-0.060,-0.060
4015,-0.065,-0.065
4016,-0.065,-0.070
4017,-0.070,-0.075
4018,-0.075,-0.080
4019,-0.065,-0.070
4020,-0.055,-0.060
4021,-0.035,-0.045
4022,-0.020,-0.030
4023,0.000,0.000
4024,0.090,0.090
4025,0.220,0.225
4026,0.310,0.315
4027,0.250,0.250
4028,0.070,0.065
4029,-0.100,-0.110
4030,-0.155,-0.165
4031,-0.110,-0.120
4032,-0.040,-0.050
4033,0.000,-0.010
4034,0.010,0.000
4035,0.010,0.005
4036,0.010,0.005
4037,0.015,0.015
4038,0.030,0.030
4039,0.050,0.045
4040,0.065,0.055
4041,0.070,0.065
4042,0.075,0.065
4043,0.070,0.065
4044,0.065,0.060
4045,0.065,0.060
4046,0.070,0.060
4047,0.080,0.075
4048,0.090,0.085
4049,0.090,0.090
4050,0.090,0.085
4051,0.090,0.080
4052,0.090,0.080
4053,0.085,0.085
4054,0.085,0.085
4055,0.080,0.070
4056,0.060,0.060
4057,0.050,0.050
4058,0.040,0.035
4059,0.030,0.025
4060,0.020,0.015
4061,0.010,0.010
4062,0.010,0.010
4063,0.020,0.015
4064,0.035,0.025
4065,0.040,0.030
4066,0.040,0.030
4067,0.035,0.025
4068,0.040,0.030
4069,0.045,0.040
4070,0.050,0.045
4071,0.055,0.050
4072,0.055,0.050
4073,0.055,0.050
4074,0.055,0.050
4075,0.060,0.055
4076,0.065,0.060
4077,0.060,0.060
4078,0.055,0.055
4079,0.055,0.050
4080,0.055,0.050
4081,0.060,0.055
4082,0.060,0.055
4083,0.055,0.050
4084,0.050,0.050
4085,0.055,0.050
4086,0.065,0.060
4087,0.065,0.060
4088,0.050,0.050
4089,0.040,0.035
4090,0.035,0.030
4091,0.030,0.020
4092,0.015,0.010
4093,0.010,0.005
4094,0.010,0.005
4095,0.010,0.010
4096,0.010,0.010
4097,0.010,0.005
4098,0.010,0.000
4099,0.010,0.000
4100,0.010,0.000
4101,0.005,0.000
4102,0.005,0.005
4103,0.005,0.000
4104,0.000,-0.005
4105,-0.005,-0.015
4106,-0.015,-0.020
4107,-0.020,-0.025
4108,-0.025,-0.030
4109,-0.010,-0.020
4110,-0.005,-0.010
4111,-0.010,-0.015
4112,-0.015,-0.025
4113,-0.010,-0.020
4114,0.000,-0.005
4115,0.015,0.015
4116,0.080,0.080
4117,0.200,0.205
4118,0.325,0.330
4119,0.330,0.335
4120,0.165,0.165
4121,-0.050,-0.060
4122,-0.170,-0.185
4123,-0.160,-0.175
4124,-0.095,-0.105
4125,-0.035,-0.045
4126,-0.005,-0.015
4127,0.000,-0.010
4128,0.000,-0.010
4129,-0.010,-0.020
4130,-0.010,-0.015
4131,0.000,-0.005
4132,0.005,0.000
4133,0.000,0.000
4134,0.000,0.000
4135,0.000,-0.005
4136,0.000,-0.010
4137,0.000,-0.005
4138,0.000,0.000
4139,0.000,0.000
4140,0.005,0.000
4141,0.005,0.000
4142,0.010,0.000
4143,0.020,0.015
4144,0.035,0.030
4145,0.045,0.045
4146,0.055,0.050
4147,0.060,0.055
4148,0.070,0.065
4149,0.085,0.080
4150,0.095,0.090
4151,0.105,0.095
4152,0.095,0.090
4153,0.075,0.065
4154,0.045,0.035
4155,0.025,0.020
4156,0.020,0.015
4157,0.015,0.015
4158,0.010,0.010
4159,0.005,0.000
4160,0.000,0.000
4161,0.000,-0.005
4162,0.000,-0.005
4163,0.000,-0.005
4164,-0.010,-0.015
4165,-0.020,-0.025
4166,-0.030,-0.040
4167,-0.050,-0.055
4168,-0.065,-0.070
4169,-0.065,-0.070
4170,-0.060,-0.065
4171,-0.055,-0.060
4172,-0.035,-0.040
4173,-0.015,-0.020
4174,0.000,-0.015
4175,-0.005,-0.015
4176,0.000,-0.010
4177,0.000,0.000
4178,0.010,0.010
4179,0.010,0.010
4180,0.010,0.010
4181,0.005,0.005
4182,0.005,0.000
4183,0.000,0.000
4184,-0.005,-0.010
4185,-0.005,-0.010
4186,-0.005,-0.010
4187,-0.005,-0.010
4188,-0.005,-0.015
4189,0.000,0.000
4190,0.000,0.000
4191,0.000,-0.005
4192,0.000,0.000
4193,0.005,0.005
4194,0.005,0.000
4195,0.000,-0.005
4196,-0.005,-0.010
4197,0.020,0.015
4198,0.100,0.095
4199,0.235,0.230
4200,0.355,0.360
4201,0.360,0.365
4202,0.210,0.210
4203,0.010,0.005
4204,-0.080,-0.090
4205,-0.060,-0.070
4206,-0.005,-0.015
4207,0.020,0.010
4208,0.025,0.015
4209,0.015,0.010
4210,0.010,0.010
4211,0.010,0.010
4212,0.010,0.010
4213,0.015,0.010
4214,0.010,0.010
4215,0.010,0.010
4216,0.015,0.010
4217,0.010,0.005
4218,0.000,0.000
4219,0.000,0.000
4220,0.005,0.000
4221,0.010,0.010
4222,0.020,0.020
4223,0.035,0.035
4224,0.050,0.050
4225,0.050,0.050
4226,0.055,0.055
4227,0.060,0.055
4228,0.050,0.050
4229,0.045,0.050
4230,0.055,0.055
4231,0.060,0.060
4232,0.060,0.050
4233,0.055,0.050
4234,0.065,0.055
4235,0.055,0.045
4236,0.025,0.020
4237,0.005,0.000
4238,0.000,0.000
4239,-0.010,-0.015
4240,-0.035,-0.045
4241,-0.055,-0.060
4242,-0.060,-0.065
4243,-0.055,-0.060
4244,-0.035,-0.040
4245,-0.010,-0.015
4246,0.000,-0.005
4247,0.005,0.000
4248,0.040,0.030
4249,0.120,0.115
4250,0.230,0.230
4251,0.295,0.300
4252,0.250,0.250
4253,0.095,0.095
4254,-0.040,-0.045
4255,-0.085,-0.090
4256,-0.055,-0.060
4257,-0.005,-0.005
4258,0.020,0.015
4259,0.035,0.030
4260,0.040,0.040
4261,0.035,0.030
4262,0.020,0.015
4263,0.015,0.010
4264,0.015,0.010
4265,0.010,0.005
4266,0.000,-0.005
4267,0.000,-0.005
4268,0.000,0.000
4269,0.005,0.005
4270,0.010,0.005
4271,0.005,0.000
4272,0.000,0.000
4273,0.000,-0.010
4274,-0.015,-0.020
4275,-0.030,-0.035
4276,-0.035,-0.040
4277,-0.020,-0.025
4278,-0.005,-0.010
4279,0.000,0.000
4280,0.000,-0.010
4281,-0.010,-0.020
4282,-0.010,-0.015
4283,-0.010,-0.015
4284,-0.025,-0.030
4285,-0.045,-0.045
4286,-0.040,-0.045
4287,-0.025,-0.030
4288,-0.025,-0.025
4289,-0.025,-0.030
4290,-0.030,-0.035
4291,-0.035,-0.040
4292,-0.030,-0.035
4293,-0.025,-0.030
4294,-0.020,-0.030
4295,-0.020,-0.030
4296,-0.025,-0.035
4297,-0.030,-0.035
4298,-0.025,-0.030
4299,-0.020,-0.030
4300,-0.025,-0.030
4301,-0.020,-0.025
4302,-0.015,-0.020
4303,-0.015,-0.020
4304,-0.030,-0.035
4305,-0.030,-0.040
4306,-0.025,-0.035
4307,-0.025,-0.030
4308,-0.030,-0.035
4309,-0.035,-0.040
4310,-0.030,-0.040
4311,-0.020,-0.025
4312,-0.020,-0.025
4313,-0.040,-0.045
4314,-0.045,-0.050
4315,-0.050,-0.055
4316,-0.065,-0.075
4317,-0.070,-0.080
4318,-0.070,-0.075
4319,-0.060,-0.065
4320,-0.045,-0.050
4321,-0.040,-0.050
4322,-0.050,-0.060
4323,-0.060,-0.065
4324,-0.065,-0.070
4325,-0.075,-0.080
4326,-0.080,-0.085
4327,-0.070,-0.075
4328,-0.070,-0.075
4329,-0.070,-0.075
4330,-0.075,-0.080
4331,-0.075,-0.080
4332,-0.070,-0.070
4333,-0.055,-0.060
4334,-0.035,-0.045
4335,-0.020,-0.025
4336,-0.005,-0.010
4337,-0.005,-0.010
4338,-0.010,-0.010
4339,0.035,0.035
4340,0.170,0.170
4341,0.305,0.305
4342,0.350,0.355
4343,0.245,0.245
4344,0.040,0.035
4345,-0.090,-0.100
4346,-0.100,-0.110
4347,-0.040,-0.050
4348,0.000,0.000
4349,0.000,0.000
4350,0.000,-0.005
4351,0.005,0.000
4352,0.025,0.020
4353,0.015,0.015
4354,0.010,0.000
4355,0.010,0.005
4356,0.010,0.010
4357,0.010,0.010
4358,0.010,0.010
4359,0.000,0.000
4360,-0.010,-0.020
4361,-0.015,-0.020
4362,-0.010,-0.015
4363,-0.010,-0.015
4364,-0.015,-0.020
4365,-0.015,-0.020
4366,-0.010,-0.020
4367,-0.010,-0.020
4368,-0.005,-0.010
4369,0.005,0.000
4370,0.020,0.010
4371,0.020,0.015
4372,0.020,0.015
4373,0.025,0.020
4374,0.035,0.035
4375,0.050,0.045
4376,0.055,0.050
4377,0.045,0.040
4378,0.030,0.030
4379,0.030,0.030
4380,0.030,0.030
4381,0.025,0.020
4382,0.010,0.005
4383,0.005,0.000
4384,0.005,0.000
4385,0.010,0.010
4386,0.010,0.010
4387,0.010,0.010
4388,0.015,0.010
4389,0.010,0.010
4390,0.005,0.000
4391,0.005,0.000
4392,0.015,0.010
4393,0.025,0.020
4394,0.020,0.015
4395,0.015,0.015
4396,0.015,0.015
4397,0.015,0.010
4398,0.010,0.005
4399,0.010,0.005
4400,0.010,0.005
4401,0.010,0.010
4402,0.010,0.010
4403,0.015,0.010
4404,0.020,0.015
4405,0.020,0.010
4406,0.005,0.000
4407,-0.010,-0.010
4408,-0.015,-0.020
4409,-0.005,-0.010
4410,0.000,0.000
4411,0.000,0.000
4412,0.000,-0.005
4413,-0.005,-0.015
4414,0.000,-0.005
4415,0.005,0.005
4416,0.010,0.010
4417,0.010,0.010
4418,0.035,0.040
4419,0.130,0.130
4420,0.275,0.275
4421,0.385,0.385
4422,0.345,0.345
4423,0.145,0.145
4424,-0.070,-0.080
4425,-0.145,-0.155
4426,-0.085,-0.090
4427,-0.005,-0.010
4428,0.035,0.025
4429,0.055,0.050
4430,0.050,0.045
4431,0.040,0.035
4432,0.025,0.025
4433,0.025,0.025
4434,0.025,0.020
4435,0.020,0.015
4436,0.010,0.005
4437,0.010,0.005
4438,0.010,0.005
4439,0.015,0.015
4440,0.025,0.020
4441,0.035,0.025
4442,0.040,0.030
4443,0.040,0.035
4444,0.040,0.030
4445,0.035,0.025
4446,0.035,0.030
4447,0.040,0.035
4448,0.030,0.025
4449,0.025,0.020
4450,0.040,0.040
4451,0.080,0.080
4452,0.110,0.110
4453,0.120,0.110
4454,0.110,0.100
4455,0.080,0.070
4456,0.040,0.035
4457,0.010,0.000
4458,-0.005,-0.015
4459,-0.015,-0.020
4460,-0.005,-0.010
4461,0.000,0.000
4462,0.010,0.010
4463,0.010,0.010
4464,0.015,0.010
4465,0.025,0.015
4466,0.030,0.020
4467,0.030,0.020
4468,0.050,0.045
4469,0.125,0.125
4470,0.235,0.240
4471,0.310,0.315
4472,0.255,0.255
4473,0.055,0.050
4474,-0.120,-0.130
4475,-0.145,-0.160
4476,-0.070,-0.080
4477,0.005,0.000
4478,0.055,0.050
4479,0.065,0.060
4480,0.060,0.055
4481,0.050,0.045
4482,0.035,0.030
4483,0.030,0.025
4484,0.030,0.030
4485,0.040,0.040
4486,0.045,0.040
4487,0.030,0.025
4488,0.025,0.020
4489,0.030,0.025
4490,0.050,0.045
4491,0.065,0.065
4492,0.085,0.080
4493,0.090,0.085
4494,0.100,0.095
4495,0.105,0.100
4496,0.110,0.105
4497,0.105,0.105
4498,0.105,0.105
4499,0.105,0.105
4500,0.110,0.105
4501,0.100,0.090
4502,0.075,0.075
4503,0.060,0.060
4504,0.050,0.045
4505,0.035,0.030
4506,0.020,0.020
4507,0.015,0.010
4508,0.020,0.010
4509,0.025,0.015
4510,0.030,0.020
4511,0.035,0.025
4512,0.030,0.020
4513,0.020,0.010
4514,0.010,0.000
4515,0.010,0.000
4516,0.010,0.005
4517,0.010,0.010
4518,0.010,0.005
4519,0.015,0.005
4520,0.020,0.015
4521,0.020,0.015
4522,0.015,0.010
4523,0.015,0.010
4524,0.010,0.005
4525,0.010,0.005
4526,0.010,0.005
4527,0.010,0.005
4528,0.005,0.000
4529,0.000,-0.005
4530,-0.005,-0.015
4531,-0.010,-0.020
4532,-0.015,-0.020
4533,-0.025,-0.025
4534,-0.030,-0.030
4535,-0.030,-0.035
4536,-0.030,-0.035
4537,-0.020,-0.025
4538,-0.010,-0.015
4539,0.000,-0.005
4540,0.000,-0.005
4541,0.000,-0.005
4542,0.000,-0.005
4543,0.000,-0.005
4544,0.005,0.000
4545,0.005,0.000
4546,0.000,0.000
4547,-0.010,-0.010
4548,-0.020,-0.020
4549,-0.020,-0.025
4550,-0.020,-0.030
4551,-0.035,-0.045
4552,-0.050,-0.050
4553,-0.040,-0.045
4554,-0.025,-0.025
4555,-0.010,-0.010
4556,0.000,-0.005
4557,0.000,0.000
4558,0.000,0.000
4559,0.000,0.000
4560,0.000,-0.010
4561,-0.005,-0.010
4562,0.000,0.000
4563,0.055,0.050
4564,0.165,0.170
4565,0.320,0.325
4566,0.410,0.420
4567,0.345,0.350
4568,0.140,0.135
4569,-0.025,-0.030
4570,-0.055,-0.060
4571,-0.015,-0.020
4572,0.010,0.010
4573,0.015,0.015
4574,0.020,0.015
4575,0.015,0.010
4576,0.015,0.010
4577,0.015,0.010
4578,0.020,0.015
4579,0.025,0.015
4580,0.015,0.010
4581,0.015,0.010
4582,0.015,0.010
4583,0.015,0.010
4584,0.015,0.010
4585,0.020,0.015
4586,0.030,0.025
4587,0.045,0.040
4588,0.060,0.055
4589,0.070,0.070
4590,0.080,0.080
4591,0.090,0.090
4592,0.085,0.085
4593,0.070,0.070
4594,0.065,0.065
4595,0.065,0.070
4596,0.080,0.085
4597,0.095,0.095
4598,0.095,0.100
4599,0.090,0.095
4600,0.075,0.080
4601,0.075,0.080
4602,0.070,0.075
4603,0.065,0.070
4604,0.055,0.055
4605,0.040,0.045
4606,0.035,0.040
4607,0.035,0.040
4608,0.035,0.040
4609,0.035,0.035
4610,0.035,0.035
4611,0.035,0.040
4612,0.025,0.030
4613,0.020,0.025
4614,0.015,0.020
4615,0.005,0.010
4616,0.000,0.000
4617,0.000,0.000
4618,0.010,0.010
4619,0.015,0.015
4620,0.010,0.010
4621,0.010,0.010
4622,0.010,0.010
4623,0.010,0.010
4624,0.000,0.005
4625,0.000,0.000
4626,0.000,0.000
4627,0.005,0.005
4628,0.000,0.005
4629,0.000,0.000
4630,-0.005,0.000
4631,-0.010,-0.010
4632,-0.010,-0.010
4633,-0.005,-0.005
4634,0.000,0.000
4635,0.005,0.005
4636,0.010,0.010
4637,0.005,0.010
4638,0.000,0.005
4639,0.000,0.000
4640,-0.015,-0.010
4641,-0.015,-0.015
4642,0.015,0.015
4643,0.105,0.110
4644,0.255,0.265
4645,0.380,0.395
4646,0.360,0.370
4647,0.170,0.175
4648,-0.040,-0.040
4649,-0.115,-0.115
4650,-0.075,-0.075
4651,-0.010,-0.010
4652,0.020,0.025
4653,0.025,0.030
4654,0.020,0.020
4655,0.010,0.010
4656,0.010,0.010
4657,0.015,0.015
4658,0.015,0.015
4659,0.010,0.015
4660,0.010,0.015
4661,0.015,0.020
4662,0.015,0.020
4663,0.015,0.020
4664,0.025,0.030
4665,0.035,0.040
4666,0.040,0.045
4667,0.040,0.045
4668,0.040,0.050
4669,0.045,0.055
4670,0.045,0.050
4671,0.045,0.050
4672,0.045,0.055
4673,0.055,0.060
4674,0.070,0.075
4675,0.085,0.090
4676,0.090,0.095
4677,0.080,0.080
4678,0.060,0.065
4679,0.045,0.050
4680,0.030,0.035
4681,0.000,0.005
4682,-0.010,-0.005
4683,-0.015,-0.020
4684,-0.020,-0.020
4685,-0.015,-0.015
4686,-0.005,-0.005
4687,0.005,0.005
4688,0.010,0.015
4689,0.005,0.010
4690,0.005,0.005
4691,0.005,0.005
4692,0.035,0.035
4693,0.125,0.135
4694,0.270,0.275
4695,0.375,0.390
4696,0.330,0.340
4697,0.130,0.140
4698,-0.045,-0.040
4699,-0.090,-0.090
4700,-0.040,-0.035
4701,0.015,0.020
4702,0.040,0.040
4703,0.030,0.030
4704,0.020,0.020
4705,0.010,0.015
4706,0.010,0.015
4707,0.010,0.015
4708,0.010,0.015
4709,0.015,0.015
4710,0.020,0.025
4711,0.025,0.030
4712,0.025,0.025
4713,0.020,0.020
4714,0.025,0.025
4715,0.035,0.040
4716,0.040,0.045
4717,0.035,0.040
4718,0.030,0.030
4719,0.025,0.025
4720,0.025,0.025
4721,0.035,0.040
4722,0.050,0.050
4723,0.055,0.060
4724,0.075,0.075
4725,0.090,0.090
4726,0.090,0.095
4727,0.075,0.080
4728,0.055,0.060
4729,0.040,0.050
4730,0.040,0.045
4731,0.035,0.040
4732,0.030,0.035
4733,0.030,0.030
4734,0.025,0.025
4735,0.020,0.020
4736,0.015,0.020
4737,0.015,0.015
4738,0.015,0.015
4739,0.000,0.005
4740,-0.015,-0.010
4741,-0.020,-0.015
4742,-0.015,-0.010
4743,0.000,0.000
4744,0.010,0.015
4745,0.015,0.020
4746,0.020,0.020
4747,0.010,0.015
4748,0.005,0.010
4749,0.000,0.005
4750,0.000,0.005
4751,0.000,0.000
4752,0.000,0.000
4753,0.000,0.005
4754,0.005,0.010
4755,0.010,0.015
4756,0.015,0.020
4757,0.015,0.020
4758,0.015,0.020
4759,0.015,0.020
4760,0.015,0.020
4761,0.015,0.020
4762,0.015,0.020
4763,0.010,0.015
4764,0.005,0.010
4765,0.000,0.010
4766,0.005,0.010
4767,0.010,0.010
4768,0.010,0.010
4769,0.010,0.010
4770,0.010,0.010
4771,0.010,0.010
4772,0.010,0.010
4773,0.010,0.010
4774,0.015,0.015
4775,0.015,0.015
4776,0.010,0.015
4777,0.010,0.015
4778,0.015,0.020
4779,0.025,0.030
4780,0.030,0.035
4781,0.030,0.035
4782,0.025,0.030
4783,0.055,0.065
4784,0.160,0.170
4785,0.320,0.335
4786,0.445,0.460
4787,0.420,0.435
4788,0.225,0.235
4789,0.020,0.025
4790,-0.050,-0.045
4791,-0.010,-0.010
4792,0.045,0.050
4793,0.085,0.090
4794,0.095,0.105
4795,0.090,0.100
4796,0.090,0.095
4797,0.085,0.090
4798,0.085,0.090
4799,0.095,0.100
4800,0.105,0.105
4801,0.105,0.110
4802,0.100,0.105
4803,0.090,0.095
4804,0.090,0.095
4805,0.095,0.100
4806,0.100,0.105
4807,0.110,0.115
4808,0.105,0.110
4809,0.100,0.105
4810,0.105,0.115
4811,0.120,0.125
4812,0.120,0.130
4813,0.125,0.135
4814,0.135,0.145
4815,0.140,0.155
4816,0.150,0.160
4817,0.165,0.175
4818,0.165,0.180
4819,0.160,0.175
4820,0.155,0.165
4821,0.140,0.150
4822,0.125,0.135
4823,0.120,0.125
4824,0.120,0.120
4825,0.110,0.115
4826,0.090,0.095
4827,0.080,0.085
4828,0.070,0.070
4829,0.065,0.065
4830,0.060,0.065
4831,0.060,0.065
4832,0.055,0.060
4833,0.050,0.055
4834,0.050,0.055
4835,0.050,0.055
4836,0.055,0.065
4837,0.065,0.070
4838,0.060,0.065
4839,0.050,0.060
4840,0.045,0.055
4841,0.045,0.055
4842,0.045,0.055
4843,0.050,0.060
4844,0.055,0.060
4845,0.050,0.055
4846,0.035,0.045
4847,0.025,0.035
4848,0.020,0.025
4849,0.010,0.015
4850,0.010,0.010
4851,0.010,0.010
4852,0.005,0.005
4853,0.000,0.000
4854,-0.010,-0.010
4855,-0.010,-0.010
4856,0.000,0.000
4857,0.000,0.000
4858,0.000,0.000
4859,0.005,0.005
4860,0.005,0.010
4861,0.000,0.005
4862,0.000,0.005
4863,0.000,0.005
4864,0.025,0.025
4865,0.060,0.065
4866,0.160,0.165
4867,0.300,0.305
4868,0.415,0.430
4869,0.385,0.400
4870,0.185,0.190
4871,-0.010,-0.010
4872,-0.075,-0.070
4873,-0.025,-0.020
4874,0.035,0.040
4875,0.075,0.080
4876,0.085,0.090
4877,0.085,0.090
4878,0.080,0.085
4879,0.080,0.085
4880,0.080,0.090
4881,0.085,0.095
4882,0.090,0.100
4883,0.090,0.100
4884,0.090,0.095
4885,0.080,0.090
4886,0.070,0.080
4887,0.060,0.065
4888,0.060,0.065
4889,0.075,0.080
4890,0.090,0.095
4891,0.100,0.105
4892,0.100,0.110
4893,0.100,0.110
4894,0.100,0.110
4895,0.105,0.110
4896,0.100,0.105
4897,0.095,0.100
4898,0.090,0.095
4899,0.095,0.100
4900,0.105,0.105
4901,0.100,0.100
4902,0.085,0.095
4903,0.075,0.085
4904,0.055,0.060
4905,0.030,0.040
4906,0.020,0.025
4907,0.020,0.025
4908,0.015,0.020
4909,0.010,0.010
4910,0.010,0.010
4911,0.010,0.010
4912,0.010,0.010
4913,0.010,0.015
4914,0.010,0.015
4915,0.010,0.015
4916,0.050,0.055
4917,0.135,0.145
4918,0.260,0.275
4919,0.335,0.350
4920,0.270,0.280
4921,0.100,0.105
4922,-0.050,-0.050
4923,-0.085,-0.090
4924,-0.030,-0.030
4925,0.020,0.025
4926,0.040,0.045
4927,0.030,0.035
4928,0.025,0.030
4929,0.035,0.040
4930,0.045,0.050
4931,0.040,0.045
4932,0.030,0.035
4933,0.030,0.035
4934,0.030,0.040
4935,0.040,0.040
4936,0.035,0.035
4937,0.020,0.030
4938,0.020,0.025
4939,0.025,0.035
4940,0.040,0.045
4941,0.050,0.055
4942,0.055,0.065
4943,0.065,0.070
4944,0.070,0.080
4945,0.070,0.080
4946,0.065,0.075
4947,0.065,0.075
4948,0.060,0.070
4949,0.050,0.060
4950,0.045,0.050
4951,0.030,0.035
4952,0.010,0.015
4953,0.000,0.000
4954,-0.015,-0.015
4955,-0.030,-0.025
4956,-0.040,-0.030
4957,-0.050,-0.040
4958,-0.055,-0.045
4959,-0.055,-0.045
4960,-0.050,-0.040
4961,-0.035,-0.035
4962,-0.025,-0.025
4963,-0.025,-0.025
4964,-0.025,-0.025
4965,-0.025,-0.030
4966,-0.030,-0.030
4967,-0.040,-0.035
4968,-0.050,-0.045
4969,-0.055,-0.050
4970,-0.050,-0.045
4971,-0.050,-0.045
4972,-0.050,-0.045
4973,-0.060,-0.055
4974,-0.055,-0.050
4975,-0.055,-0.045
4976,-0.055,-0.045
4977,-0.055,-0.050
4978,-0.060,-0.060
4979,-0.070,-0.070
4980,-0.075,-0.075
4981,-0.070,-0.070
4982,-0.060,-0.060
4983,-0.060,-0.055
4984,-0.060,-0.050
4985,-0.060,-0.055
4986,-0.065,-0.060
4987,-0.065,-0.065
4988,-0.070,-0.070
4989,-0.085,-0.085
4990,-0.095,-0.085
4991,-0.095,-0.085
4992,-0.095,-0.090
4993,-0.095,-0.090
4994,-0.095,-0.095
4995,-0.095,-0.090
4996,-0.090,-0.085
4997,-0.090,-0.085
4998,-0.105,-0.100
4999,-0.110,-0.105
5000,-0.100,-0.090
5001,-0.095,-0.090
5002,-0.085,-0.080
5003,-0.070,-0.070
5004,-0.065,-0.065
5005,-0.055,-0.055
5006,-0.020,-0.020
5007,0.065,0.075
5008,0.210,0.220
5009,0.330,0.340
5010,0.325,0.335
5011,0.165,0.170
5012,-0.030,-0.025
5013,-0.125,-0.125
5014,-0.105,-0.105
5015,-0.045,-0.040
5016,-0.005,-0.005
5017,0.000,0.000
5018,-0.005,-0.005
5019,-0.015,-0.015
5020,-0.020,-0.025
5021,-0.020,-0.020
5022,-0.010,-0.010
5023,-0.010,-0.010
5024,-0.015,-0.015
5025,-0.020,-0.015
5026,-0.015,-0.010
5027,0.000,0.000
5028,0.005,0.005
5029,0.010,0.010
5030,0.005,0.005
5031,0.000,0.000
5032,0.000,0.000
5033,-0.005,0.000
5034,-0.015,-0.015
5035,-0.015,-0.015
5036,-0.005,-0.005
5037,0.000,0.000
5038,0.005,0.005
5039,0.000,0.000
5040,-0.005,-0.005
5041,-0.010,-0.005
5042,0.000,0.000
5043,0.005,0.005
5044,0.010,0.010
5045,0.000,0.005
5046,0.000,0.000
5047,-0.005,0.000
5048,-0.010,-0.005
5049,-0.005,-0.005
5050,0.000,0.000
5051,-0.005,0.000
5052,-0.020,-0.015
5053,-0.040,-0.035
5054,-0.050,-0.045
5055,-0.045,-0.040
5056,-0.035,-0.035
5057,-0.025,-0.025
5058,-0.015,-0.020
5059,-0.015,-0.020
5060,-0.015,-0.020
5061,-0.015,-0.015
5062,-0.015,-0.010
5063,-0.020,-0.015
5064,-0.030,-0.025
5065,-0.025,-0.020
5066,-0.010,-0.010
5067,-0.010,-0.005
5068,-0.010,-0.010
5069,-0.025,-0.025
5070,-0.050,-0.040
5071,-0.055,-0.045
5072,-0.050,-0.040
5073,-0.050,-0.040
5074,-0.055,-0.045
5075,-0.055,-0.050
5076,-0.055,-0.050
5077,-0.055,-0.050
5078,-0.055,-0.050
5079,-0.050,-0.045
5080,-0.035,-0.035
5081,-0.025,-0.025
5082,-0.025,-0.025
5083,-0.035,-0.030
5084,-0.030,-0.030
5085,-0.005,-0.005
5086,0.055,0.060
5087,0.180,0.195
5088,0.320,0.335
5089,0.360,0.375
5090,0.220,0.230
5091,-0.005,0.000
5092,-0.145,-0.145
5093,-0.150,-0.150
5094,-0.095,-0.095
5095,-0.045,-0.045
5096,-0.025,-0.025
5097,-0.015,-0.020
5098,-0.005,-0.010
5099,0.000,0.000
5100,0.005,0.005
5101,0.005,0.005
5102,0.005,0.005
5103,0.005,0.005
5104,0.005,0.005
5105,0.000,0.000
5106,0.000,0.000
5107,0.000,0.000
5108,0.005,0.005
5109,0.010,0.010
5110,0.015,0.015
5111,0.020,0.025
5112,0.030,0.030
5113,0.035,0.040
5114,0.040,0.045
5115,0.040,0.040
5116,0.035,0.040
5117,0.035,0.040
5118,0.040,0.045
5119,0.035,0.040
5120,0.025,0.030
5121,0.020,0.025
5122,0.020,0.025
5123,0.020,0.025
5124,0.005,0.005
5125,-0.005,-0.010
5126,-0.020,-0.020
5127,-0.020,-0.025
5128,-0.020,-0.025
5129,-0.030,-0.030
5130,-0.040,-0.035
5131,-0.030,-0.025
5132,-0.010,-0.010
5133,0.000,0.000
5134,0.000,0.000
5135,0.005,0.010
5136,0.060,0.065
5137,0.160,0.170
5138,0.255,0.270
5139,0.255,0.265
5140,0.100,0.110
5141,-0.100,-0.100
5142,-0.210,-0.215
5143,-0.180,-0.185
5144,-0.095,-0.095
5145,-0.035,-0.030
5146,-0.010,-0.005
5147,-0.005,0.000
5148,-0.005,0.000
5149,-0.010,-0.005
5150,-0.015,-0.015
5151,-0.015,-0.015
5152,-0.010,-0.005
5153,0.000,0.000
5154,0.000,0.000
5155,0.010,0.010
5156,0.020,0.025
5157,0.030,0.035
5158,0.035,0.045
5159,0.050,0.055
5160,0.055,0.060
5161,0.050,0.055
5162,0.045,0.050
5163,0.045,0.050
5164,0.045,0.050
5165,0.055,0.060
5166,0.060,0.065
5167,0.055,0.060
5168,0.040,0.045
5169,0.045,0.045
5170,0.055,0.060
5171,0.055,0.060
5172,0.035,0.040
5173,0.010,0.015
5174,0.000,0.000
5175,-0.015,-0.015
5176,-0.030,-0.035
5177,-0.045,-0.045
5178,-0.055,-0.055
5179,-0.060,-0.050
5180,-0.055,-0.045
5181,-0.050,-0.045
5182,-0.055,-0.050
5183,-0.075,-0.070
5184,-0.085,-0.085
5185,-0.080,-0.080
5186,-0.070,-0.070
5187,-0.070,-0.070
5188,-0.070,-0.065
5189,-0.065,-0.065
5190,-0.065,-0.065
5191,-0.075,-0.070
5192,-0.085,-0.080
5193,-0.090,-0.085
5194,-0.095,-0.095
5195,-0.100,-0.100
5196,-0.105,-0.110
5197,-0.105,-0.110
5198,-0.105,-0.110
5199,-0.105,-0.110
5200,-0.105,-0.110
5201,-0.105,-0.110
5202,-0.110,-0.110
5203,-0.105,-0.105
5204,-0.095,-0.100
5205,-0.095,-0.100
5206,-0.095,-0.100
5207,-0.095,-0.100
5208,-0.105,-0.105
5209,-0.105,-0.105
5210,-0.085,-0.085
5211,-0.065,-0.065
5212,-0.055,-0.050
5213,-0.050,-0.045
5214,-0.050,-0.045
5215,-0.060,-0.060
5216,-0.070,-0.070
5217,-0.080,-0.075
5218,-0.095,-0.090
5219,-0.100,-0.100
5220,-0.105,-0.105
5221,-0.110,-0.115
5222,-0.120,-0.120
5223,-0.125,-0.125
5224,-0.115,-0.115
5225,-0.095,-0.095
5226,-0.080,-0.080
5227,-0.075,-0.070
5228,-0.060,-0.055
5229,-0.035,-0.030
5230,-0.005,-0.005
5231,0.055,0.060
5232,0.185,0.190
5233,0.325,0.330
5234,0.360,0.370
5235,0.220,0.230
5236,0.000,0.000
5237,-0.130,-0.130
5238,-0.130,-0.130
5239,-0.070,-0.070
5240,-0.030,-0.030
5241,-0.015,-0.015
5242,-0.015,-0.015
5243,-0.010,-0.010
5244,-0.005,-0.005
5245,-0.005,-0.005
5246,0.000,0.000
5247,0.000,0.000
5248,0.010,0.010
5249,0.010,0.010
5250,0.010,0.010
5251,0.005,0.005
5252,0.000,0.000
5253,0.000,0.000
5254,0.000,0.005
5255,0.005,0.010
5256,0.010,0.010
5257,0.010,0.010
5258,0.015,0.015
5259,0.020,0.025
5260,0.025,0.025
5261,0.025,0.025
5262,0.025,0.030
5263,0.030,0.035
5264,0.035,0.040
5265,0.025,0.030
5266,0.025,0.030
5267,0.025,0.030
5268,0.020,0.025
5269,0.010,0.015
5270,0.005,0.005
5271,0.000,0.000
5272,-0.010,-0.005
5273,-0.010,-0.005
5274,-0.010,-0.005
5275,-0.010,-0.005
5276,-0.015,-0.015
5277,-0.010,-0.010
5278,-0.005,0.000
5279,0.000,0.000
5280,0.005,0.005
5281,0.010,0.010
5282,0.010,0.010
5283,0.010,0.010
5284,0.010,0.010
5285,0.005,0.005
5286,0.000,0.000
5287,0.000,0.000
5288,-0.010,-0.005
5289,-0.020,-0.020
5290,-0.015,-0.015
5291,-0.015,-0.015
5292,-0.010,-0.010
5293,-0.015,-0.015
5294,-0.025,-0.020
5295,-0.030,-0.025
5296,-0.035,-0.030
5297,-0.035,-0.035
5298,-0.030,-0.030
5299,-0.020,-0.020
5300,-0.020,-0.020
5301,-0.025,-0.025
5302,-0.030,-0.030
5303,-0.025,-0.025
5304,-0.020,-0.020
5305,-0.020,-0.020
5306,-0.020,-0.020
5307,-0.020,-0.025
5308,-0.015,-0.015
5309,0.000,0.000
5310,0.070,0.075
5311,0.205,0.215
5312,0.350,0.365
5313,0.395,0.410
5314,0.270,0.280
5315,0.060,0.065
5316,-0.075,-0.070
5317,-0.085,-0.085
5318,-0.035,-0.035
5319,0.010,0.010
5320,0.030,0.035
5321,0.030,0.035
5322,0.025,0.025
5323,0.015,0.020
5324,0.015,0.020
5325,0.020,0.020
5326,0.020,0.020
5327,0.015,0.020
5328,0.010,0.010
5329,0.000,0.000
5330,-0.010,-0.005
5331,-0.005,0.000
5332,0.000,0.005
5333,0.000,0.000
5334,0.000,0.000
5335,0.000,0.000
5336,0.000,0.005
5337,0.005,0.010
5338,0.000,0.005
5339,0.000,0.000
5340,0.005,0.005
5341,0.010,0.015
5342,0.015,0.020
5343,0.015,0.015
5344,0.015,0.015
5345,0.015,0.015
5346,0.005,0.010
5347,-0.005,0.000
5348,-0.025,-0.020
5349,-0.045,-0.035
5350,-0.055,-0.045
5351,-0.050,-0.040
5352,-0.035,-0.030
5353,-0.020,-0.025
5354,-0.020,-0.025
5355,-0.020,-0.025
5356,-0.025,-0.025
5357,-0.035,-0.035
5358,-0.050,-0.050
5359,-0.030,-0.030
5360,0.040,0.040
5361,0.150,0.160
5362,0.250,0.260
5363,0.260,0.270
5364,0.130,0.135
5365,-0.050,-0.050
5366,-0.155,-0.155
5367,-0.140,-0.140
5368,-0.085,-0.080
5369,-0.050,-0.045
5370,-0.045,-0.040
5371,-0.055,-0.050
5372,-0.060,-0.060
5373,-0.060,-0.060
5374,-0.060,-0.060
5375,-0.055,-0.055
5376,-0.055,-0.055
5377,-0.050,-0.040
5378,-0.045,-0.035
5379,-0.045,-0.045
5380,-0.050,-0.050
5381,-0.045,-0.040
5382,-0.040,-0.035
5383,-0.040,-0.035
5384,-0.045,-0.035
5385,-0.045,-0.035
5386,-0.040,-0.035
5387,-0.025,-0.025
5388,-0.020,-0.025
5389,-0.015,-0.020
5390,0.000,-0.005
5391,0.005,0.005
5392,0.010,0.015
5393,0.005,0.005
5394,-0.010,-0.010
5395,-0.030,-0.025
5396,-0.035,-0.035
5397,-0.030,-0.030
5398,-0.040,-0.035
5399,-0.065,-0.060
5400,-0.085,-0.080
5401,-0.075,-0.070
5402,-0.060,-0.050
5403,-0.055,-0.045
5404,-0.055,-0.045
5405,-0.050,-0.040
5406,-0.045,-0.040
5407,-0.050,-0.045
5408,-0.050,-0.045
5409,-0.045,-0.040
5410,-0.045,-0.040
5411,-0.050,-0.045
5412,-0.045,-0.040
5413,-0.035,-0.025
5414,-0.035,-0.025
5415,-0.035,-0.030
5416,-0.045,-0.040
5417,-0.050,-0.045
5418,-0.050,-0.045
5419,-0.050,-0.045
5420,-0.055,-0.050
5421,-0.050,-0.045
5422,-0.040,-0.040
5423,-0.030,-0.030
5424,-0.025,-0.025
5425,-0.020,-0.015
5426,-0.015,-0.015
5427,-0.015,-0.015
5428,-0.015,-0.010
5429,-0.005,0.000
5430,0.000,0.000
5431,0.000,0.000
5432,-0.005,-0.010
5433,-0.010,-0.015
5434,-0.015,-0.015
5435,-0.015,-0.015
5436,-0.025,-0.025
5437,-0.030,-0.035
5438,-0.030,-0.040
5439,-0.030,-0.035
5440,-0.030,-0.035
5441,-0.025,-0.030
5442,-0.015,-0.020
5443,-0.005,-0.010
5444,0.000,-0.005
5445,0.000,-0.005
5446,-0.005,-0.010
5447,-0.005,-0.015
5448,-0.015,-0.020
5449,-0.010,-0.015
5450,0.015,0.010
5451,0.105,0.100
5452,0.245,0.245
5453,0.360,0.370
5454,0.350,0.360
5455,0.170,0.180
5456,-0.060,-0.055
5457,-0.170,-0.175
5458,-0.140,-0.140
5459,-0.060,-0.055
5460,0.000,0.000
5461,0.025,0.030
5462,0.025,0.030
5463,0.030,0.030
5464,0.030,0.035
5465,0.030,0.035
5466,0.035,0.040
5467,0.030,0.030
5468,0.020,0.020
5469,0.020,0.015
5470,0.020,0.015
5471,0.015,0.020
5472,0.010,0.015
5473,0.010,0.015
5474,0.010,0.015
5475,0.015,0.015
5476,0.015,0.020
5477,0.025,0.030
5478,0.035,0.045
5479,0.045,0.055
5480,0.055,0.065
5481,0.070,0.070
5482,0.080,0.080
5483,0.090,0.090
5484,0.100,0.100
5485,0.105,0.110
5486,0.105,0.110
5487,0.110,0.110
5488,0.110,0.115
5489,0.095,0.105
5490,0.085,0.090
5491,0.065,0.070
5492,0.050,0.055
5493,0.040,0.045
5494,0.025,0.030
5495,0.020,0.020
5496,0.015,0.015
5497,0.010,0.010
5498,0.010,0.010
5499,0.015,0.015
5500,0.025,0.025
5501,0.020,0.030
5502,0.015,0.020
5503,0.010,0.015
5504,0.010,0.015
5505,0.010,0.010
5506,0.010,0.010
5507,0.010,0.015
5508,0.010,0.015
5509,0.005,0.010
5510,0.005,0.010
5511,0.005,0.010
5512,0.005,0.005
5513,0.000,0.000
5514,-0.005,-0.005
5515,-0.010,-0.010
5516,-0.015,-0.015
5517,-0.020,-0.020
5518,-0.025,-0.025
5519,-0.025,-0.025
5520,-0.025,-0.030
5521,-0.025,-0.025
5522,-0.015,-0.015
5523,-0.010,-0.010
5524,-0.010,-0.010
5525,-0.010,-0.015
5526,-0.015,-0.015
5527,-0.015,-0.015
5528,0.000,0.000
5529,0.015,0.020
5530,0.035,0.040
5531,0.075,0.080
5532,0.150,0.155
5533,0.285,0.295
5534,0.425,0.440
5535,0.465,0.480
5536,0.335,0.350
5537,0.105,0.115
5538,-0.040,-0.035
5539,-0.040,-0.040
5540,0.015,0.020
5541,0.070,0.075
5542,0.105,0.110
5543,0.105,0.110
5544,0.095,0.100
5545,0.095,0.100
5546,0.090,0.095
5547,0.090,0.095
5548,0.090,0.090
5549,0.090,0.090
5550,0.090,0.095
5551,0.090,0.095
5552,0.105,0.110
5553,0.120,0.125
5554,0.125,0.130
5555,0.120,0.125
5556,0.120,0.125
5557,0.120,0.125
5558,0.120,0.125
5559,0.130,0.135
5560,0.145,0.150
5561,0.150,0.155
5562,0.140,0.150
5563,0.145,0.155
5564,0.160,0.165
5565,0.170,0.180
5566,0.175,0.180
5567,0.165,0.170
5568,0.155,0.160
5569,0.130,0.140
5570,0.100,0.110
5571,0.075,0.080
5572,0.060,0.060
5573,0.050,0.055
5574,0.045,0.050
5575,0.040,0.045
5576,0.040,0.045
5577,0.045,0.045
5578,0.045,0.045
5579,0.045,0.045
5580,0.045,0.045
5581,0.045,0.055
5582,0.075,0.080
5583,0.140,0.145
5584,0.255,0.270
5585,0.385,0.395
5586,0.400,0.415
5587,0.240,0.255
5588,0.030,0.035
5589,-0.045,-0.045
5590,-0.015,-0.015
5591,0.040,0.045
5592,0.065,0.070
5593,0.070,0.075
5594,0.075,0.080
5595,0.080,0.080
5596,0.075,0.080
5597,0.075,0.075
5598,0.075,0.075
5599,0.080,0.085
5600,0.085,0.090
5601,0.090,0.095
5602,0.090,0.095
5603,0.090,0.095
5604,0.085,0.090
5605,0.080,0.085
5606,0.085,0.090
5607,0.100,0.105
5608,0.110,0.115
5609,0.115,0.120
5610,0.115,0.120
5611,0.115,0.125
5612,0.120,0.125
5613,0.115,0.125
5614,0.110,0.120
5615,0.110,0.115
5616,0.105,0.105
5617,0.095,0.095
5618,0.085,0.085
5619,0.075,0.080
5620,0.060,0.070
5621,0.050,0.055
5622,0.045,0.055
5623,0.045,0.050
5624,0.040,0.050
5625,0.040,0.050
5626,0.045,0.050
5627,0.050,0.055
5628,0.050,0.060
5629,0.055,0.060
5630,0.055,0.060
5631,0.055,0.060
5632,0.055,0.060
5633,0.045,0.055
5634,0.035,0.045
5635,0.025,0.030
5636,0.015,0.020
5637,0.015,0.015
5638,0.015,0.015
5639,0.015,0.020
5640,0.030,0.035
5641,0.035,0.040
5642,0.040,0.045
5643,0.030,0.040
5644,0.025,0.035
5645,0.025,0.030
5646,0.030,0.035
5647,0.035,0.040
5648,0.040,0.045
5649,0.030,0.035
5650,0.025,0.030
5651,0.025,0.030
5652,0.025,0.030
5653,0.025,0.030
5654,0.030,0.030
5655,0.035,0.035
5656,0.025,0.025
5657,0.010,0.010
5658,0.000,0.005
5659,0.000,0.005
5660,0.000,0.005
5661,0.000,0.000
5662,-0.015,-0.010
5663,-0.010,-0.005
5664,0.000,0.000
5665,0.000,0.010
5666,0.005,0.010
5667,0.010,0.010
5668,0.010,0.010
5669,0.010,0.010
5670,0.010,0.015
5671,0.015,0.025
5672,0.030,0.040
5673,0.085,0.090
5674,0.205,0.210
5675,0.355,0.365
5676,0.440,0.455
5677,0.355,0.370
5678,0.135,0.140
5679,-0.025,-0.020
5680,-0.045,-0.040
5681,0.000,0.000
5682,0.025,0.030
5683,0.030,0.035
5684,0.020,0.025
5685,0.020,0.025
5686,0.030,0.035
5687,0.040,0.045
5688,0.045,0.050
5689,0.045,0.055
5690,0.045,0.055
5691,0.045,0.050
5692,0.040,0.045
5693,0.040,0.045
5694,0.045,0.050
5695,0.065,0.070
5696,0.080,0.085
5697,0.090,0.095
5698,0.090,0.095
5699,0.090,0.095
5700,0.090,0.095
5701,0.090,0.095
5702,0.090,0.095
5703,0.085,0.095
5704,0.080,0.090
5705,0.070,0.080
5706,0.060,0.070
5707,0.060,0.070
5708,0.075,0.080
5709,0.085,0.090
5710,0.090,0.095
5711,0.085,0.090
5712,0.080,0.085
5713,0.060,0.065
5714,0.050,0.060
5715,0.050,0.060
5716,0.050,0.055
5717,0.045,0.050
5718,0.035,0.045
5719,0.030,0.035
5720,0.030,0.035
5721,0.030,0.040
5722,0.030,0.035
5723,0.035,0.040
5724,0.045,0.050
5725,0.050,0.055
5726,0.045,0.050
5727,0.040,0.045
5728,0.040,0.045
5729,0.045,0.050
5730,0.045,0.050
5731,0.045,0.050
5732,0.040,0.045
5733,0.040,0.045
5734,0.040,0.050
5735,0.035,0.040
5736,0.035,0.040
5737,0.035,0.045
5738,0.030,0.035
5739,0.020,0.020
5740,0.010,0.015
5741,0.010,0.015
5742,0.010,0.015
5743,0.005,0.015
5744,0.005,0.010
5745,0.005,0.010
5746,0.000,0.005
5747,0.000,0.000
5748,0.000,0.000
5749,-0.010,-0.010
5750,-0.010,-0.010
5751,0.000,0.000
5752,0.040,0.045
5753,0.150,0.160
5754,0.300,0.315
5755,0.415,0.430
5756,0.375,0.390
5757,0.175,0.180
5758,-0.020,-0.015
5759,-0.080,-0.075
5760,-0.035,-0.030
5761,0.020,0.025
5762,0.045,0.050
5763,0.040,0.050
5764,0.025,0.030
5765,0.020,0.020
5766,0.025,0.030
5767,0.040,0.045
5768,0.045,0.050
5769,0.050,0.055
5770,0.045,0.050
5771,0.040,0.045
5772,0.040,0.045
5773,0.040,0.045
5774,0.040,0.045
5775,0.045,0.050
5776,0.050,0.055
5777,0.055,0.060
5778,0.060,0.065
5779,0.070,0.070
5780,0.075,0.075
5781,0.075,0.075
5782,0.075,0.075
5783,0.085,0.085
5784,0.090,0.095
5785,0.100,0.105
5786,0.100,0.105
5787,0.095,0.100
5788,0.085,0.095
5789,0.080,0.090
5790,0.060,0.070
5791,0.040,0.050
5792,0.030,0.035
5793,0.030,0.035
5794,0.035,0.035
5795,0.040,0.045
5796,0.045,0.050
5797,0.055,0.060
5798,0.050,0.055
5799,0.040,0.045
5800,0.030,0.035
5801,0.030,0.035
5802,0.075,0.085
5803,0.190,0.200
5804,0.335,0.350
5805,0.410,0.425
5806,0.320,0.325
5807,0.100,0.105
5808,-0.055,-0.055
5809,-0.070,-0.070
5810,0.000,0.000
5811,0.065,0.070
5812,0.085,0.085
5813,0.070,0.070
5814,0.055,0.055
5815,0.055,0.055
5816,0.065,0.055
5817,0.070,0.055
5818,0.070,0.065
5819,0.080,0.075
5820,0.085,0.080
5821,0.095,0.090
5822,0.100,0.095
5823,0.100,0.100
5824,0.095,0.095
5825,0.095,0.090
5826,0.095,0.090
5827,0.105,0.100
5828,0.105,0.100
5829,0.100,0.100
5830,0.100,0.095
5831,0.095,0.095
5832,0.090,0.090
5833,0.090,0.090
5834,0.090,0.095
5835,0.085,0.090
5836,0.075,0.075
5837,0.060,0.055
5838,0.045,0.045
5839,0.040,0.040
5840,0.035,0.035
5841,0.025,0.020
5842,0.020,0.015
5843,0.020,0.015
5844,0.020,0.015
5845,0.020,0.015
5846,0.020,0.015
5847,0.010,0.010
5848,0.010,0.010
5849,0.010,0.010
5850,0.010,0.010
5851,0.010,0.010
5852,0.010,0.010
5853,0.010,0.010
5854,0.010,0.010
5855,0.015,0.010
5856,0.015,0.010
5857,0.015,0.010
5858,0.015,0.010
5859,0.020,0.015
5860,0.030,0.025
5861,0.035,0.030
5862,0.030,0.025
5863,0.025,0.020
5864,0.025,0.020
5865,0.020,0.015
5866,0.015,0.010
5867,0.010,0.010
5868,0.010,0.010
5869,0.010,0.010
5870,0.010,0.010
5871,0.010,0.010
5872,0.015,0.010
5873,0.020,0.015
5874,0.025,0.015
5875,0.025,0.010
5876,0.020,0.010
5877,0.015,0.010
5878,0.010,0.005
5879,0.010,0.005
5880,0.010,0.010
5881,0.010,0.005
5882,0.005,0.000
5883,0.000,0.000
5884,-0.005,-0.010
5885,-0.010,-0.020
5886,-0.010,-0.015
5887,0.000,-0.010
5888,0.000,-0.005
5889,0.000,0.000
5890,0.005,0.000
5891,0.010,0.005
5892,0.010,0.005
5893,0.010,0.005
5894,0.015,0.010
5895,0.025,0.025
5896,0.095,0.095
5897,0.230,0.235
5898,0.360,0.370
5899,0.370,0.375
5900,0.200,0.200
5901,-0.030,-0.030
5902,-0.165,-0.170
5903,-0.165,-0.170
5904,-0.100,-0.100
5905,-0.040,-0.045
5906,-0.020,-0.025
5907,-0.020,-0.025
5908,-0.020,-0.030
5909,-0.020,-0.030
5910,-0.020,-0.025
5911,-0.015,-0.020
5912,-0.005,-0.010
5913,0.000,-0.005
5914,-0.010,-0.015
5915,-0.015,-0.025
5916,-0.010,-0.015
5917,0.000,-0.005
5918,0.000,-0.005
5919,-0.005,-0.010
5920,0.000,-0.005
5921,0.000,0.000
5922,0.005,0.000
5923,0.010,0.010
5924,0.010,0.010
5925,0.020,0.015
5926,0.035,0.030
5927,0.055,0.050
5928,0.070,0.060
5929,0.070,0.065
5930,0.065,0.060
5931,0.055,0.055
5932,0.050,0.050
5933,0.045,0.040
5934,0.025,0.020
5935,0.010,0.005
5936,0.005,0.005
5937,0.005,0.005
5938,0.010,0.010
5939,0.010,0.010
5940,0.005,0.000
5941,0.000,0.000
5942,0.000,0.000
5943,0.005,0.000
5944,0.000,0.000
5945,0.000,0.000
5946,0.005,0.005
5947,0.010,0.010
5948,0.010,0.010
5949,0.010,0.010
5950,0.010,0.010
5951,0.010,0.010
5952,0.010,0.010
5953,0.010,0.010
5954,0.010,0.010
5955,0.015,0.015
5956,0.020,0.020
5957,0.025,0.020
5958,0.020,0.015
5959,0.015,0.010
5960,0.010,0.005
5961,0.005,0.000
5962,0.000,0.000
5963,0.000,0.000
5964,-0.005,-0.015
5965,-0.015,-0.020
5966,-0.010,-0.020
5967,-0.005,-0.010
5968,0.000,-0.010
5969,0.000,-0.010
5970,-0.010,-0.015
5971,-0.005,-0.010
5972,-0.005,-0.010
5973,-0.005,-0.010
5974,-0.005,-0.010
5975,-0.005,-0.005
5976,0.000,0.000
5977,0.015,0.015
5978,0.100,0.100
5979,0.240,0.240
5980,0.385,0.390
5981,0.410,0.415
5982,0.255,0.260
5983,0.045,0.045
5984,-0.060,-0.065
5985,-0.050,-0.055
5986,0.005,0.000
5987,0.050,0.040
5988,0.065,0.055
5989,0.055,0.050
5990,0.050,0.050
5991,0.045,0.045
5992,0.040,0.035
5993,0.035,0.030
5994,0.030,0.020
5995,0.025,0.015
5996,0.025,0.015
5997,0.025,0.015
5998,0.025,0.020
5999,0.025,0.020
6000,0.025,0.020
6001,0.035,0.025
6002,0.045,0.035
6003,0.055,0.050
6004,0.060,0.060
6005,0.065,0.060
6006,0.065,0.060
6007,0.065,0.060
6008,0.065,0.060
6009,0.065,0.060
6010,0.075,0.065
6011,0.075,0.065
6012,0.065,0.060
6013,0.045,0.040
6014,0.035,0.030
6015,0.030,0.030
6016,0.030,0.025
6017,0.015,0.010
6018,0.010,0.005
6019,0.010,0.005
6020,0.010,0.010
6021,0.005,0.000
6022,0.000,-0.005
6023,-0.010,-0.020
6024,-0.015,-0.025
6025,-0.020,-0.025
6026,-0.030,-0.035
6027,-0.035,-0.040
6028,-0.005,-0.010
6029,0.070,0.065
6030,0.195,0.190
6031,0.290,0.295
6032,0.250,0.255
6033,0.085,0.080
6034,-0.080,-0.085
6035,-0.135,-0.140
6036,-0.090,-0.095
6037,-0.020,-0.025
6038,0.015,0.005
6039,0.030,0.015
6040,0.025,0.015
6041,0.010,0.005
6042,-0.005,-0.005
6043,-0.025,-0.030
6044,-0.035,-0.040
6045,-0.035,-0.040
6046,-0.030,-0.035
6047,-0.025,-0.035
6048,-0.025,-0.030
6049,-0.025,-0.030
6050,-0.030,-0.035
6051,-0.035,-0.040
6052,-0.030,-0.040
6053,-0.025,-0.030
6054,-0.025,-0.030
6055,-0.030,-0.035
6056,-0.045,-0.050
6057,-0.055,-0.060
6058,-0.055,-0.055
6059,-0.055,-0.055
6060,-0.040,-0.045
6061,-0.025,-0.030
6062,-0.015,-0.020
6063,-0.015,-0.020
6064,-0.020,-0.030
6065,-0.040,-0.045
6066,-0.065,-0.065
6067,-0.080,-0.085
6068,-0.085,-0.090
6069,-0.085,-0.085
6070,-0.070,-0.075
6071,-0.060,-0.065
6072,-0.060,-0.060
6073,-0.060,-0.060
6074,-0.065,-0.065
6075,-0.075,-0.080
6076,-0.070,-0.075
6077,-0.045,-0.050
6078,-0.025,-0.030
6079,-0.015,-0.025
6080,-0.010,-0.020
6081,-0.005,-0.010
6082,0.000,-0.005
6083,0.000,-0.005
6084,-0.005,-0.010
6085,-0.010,-0.015
6086,-0.010,-0.020
6087,-0.015,-0.025
6088,-0.015,-0.025
6089,-0.020,-0.025
6090,-0.035,-0.035
6091,-0.045,-0.050
6092,-0.050,-0.055
6093,-0.050,-0.055
6094,-0.055,-0.055
6095,-0.060,-0.065
6096,-0.060,-0.060
6097,-0.055,-0.055
6098,-0.040,-0.040
6099,-0.025,-0.030
6100,-0.020,-0.025
6101,-0.010,-0.015
6102,0.000,-0.010
6103,0.000,-0.010
6104,-0.015,-0.015
6105,-0.025,-0.025
6106,-0.030,-0.030
6107,-0.025,-0.025
6108,-0.025,-0.025
6109,-0.020,-0.015
6110,-0.015,-0.010
6111,-0.020,-0.015
6112,-0.035,-0.030
6113,-0.040,-0.035
6114,-0.040,-0.035
6115,-0.045,-0.035
6116,-0.055,-0.045
6117,-0.060,-0.055
6118,-0.035,-0.030
6119,0.030,0.040
6120,0.165,0.175
6121,0.300,0.310
6122,0.340,0.345
6123,0.215,0.215
6124,0.005,0.000
6125,-0.125,-0.135
6126,-0.125,-0.135
6127,-0.070,-0.065
6128,-0.025,-0.020
6129,-0.010,-0.005
6130,-0.020,-0.015
6131,-0.035,-0.030
6132,-0.050,-0.040
6133,-0.055,-0.050
6134,-0.050,-0.045
6135,-0.045,-0.035
6136,-0.035,-0.030
6137,-0.035,-0.030
6138,-0.035,-0.030
6139,-0.035,-0.030
6140,-0.030,-0.030
6141,-0.025,-0.025
6142,-0.025,-0.025
6143,-0.035,-0.035
6144,-0.045,-0.040
6145,-0.045,-0.040
6146,-0.045,-0.035
6147,-0.040,-0.035
6148,-0.030,-0.030
6149,-0.020,-0.020
6150,-0.010,-0.010
6151,0.000,0.000
6152,0.010,0.015
6153,0.020,0.020
6154,0.030,0.030
6155,0.035,0.035
6156,0.025,0.030
6157,0.010,0.015
6158,0.010,0.010
6159,0.005,0.010
6160,0.000,0.000
6161,-0.005,-0.005
6162,-0.015,-0.015
6163,-0.025,-0.020
6164,-0.030,-0.025
6165,-0.025,-0.020
6166,-0.015,-0.015
6167,-0.005,-0.005
6168,0.000,0.000
6169,0.000,0.000
6170,0.000,0.000
6171,0.000,0.000
6172,-0.005,-0.005
6173,-0.015,-0.015
6174,-0.015,-0.010
6175,0.000,0.000
6176,0.000,0.000
6177,0.000,0.000
6178,-0.010,-0.005
6179,-0.010,-0.010
6180,-0.015,-0.015
6181,-0.025,-0.025
6182,-0.045,-0.040
6183,-0.055,-0.050
6184,-0.055,-0.055
6185,-0.060,-0.055
6186,-0.065,-0.060
6187,-0.065,-0.060
6188,-0.060,-0.060
6189,-0.060,-0.055
6190,-0.055,-0.050
6191,-0.050,-0.040
6192,-0.040,-0.030
6193,-0.040,-0.030
6194,-0.050,-0.045
6195,-0.060,-0.055
6196,-0.065,-0.065
6197,-0.065,-0.065
6198,-0.035,-0.035
6199,0.050,0.055
6200,0.210,0.220
6201,0.350,0.360
6202,0.345,0.360
6203,0.165,0.170
6204,-0.060,-0.055
6205,-0.165,-0.170
6206,-0.140,-0.145
6207,-0.065,-0.065
6208,-0.015,-0.010
6209,0.000,0.005
6210,0.000,0.005
6211,0.000,0.005
6212,0.005,0.010
6213,0.010,0.010
6214,0.015,0.015
6215,0.020,0.025
6216,0.020,0.025
6217,0.015,0.015
6218,0.000,0.000
6219,0.000,0.000
6220,0.000,0.005
6221,0.010,0.010
6222,0.010,0.015
6223,0.015,0.020
6224,0.020,0.030
6225,0.035,0.040
6226,0.045,0.050
6227,0.045,0.050
6228,0.045,0.045
6229,0.040,0.045
6230,0.040,0.045
6231,0.045,0.050
6232,0.055,0.060
6233,0.055,0.065
6234,0.040,0.050
6235,0.030,0.035
6236,0.010,0.010
6237,-0.010,-0.010
6238,-0.040,-0.035
6239,-0.055,-0.055
6240,-0.060,-0.060
6241,-0.060,-0.060
6242,-0.065,-0.065
6243,-0.065,-0.065
6244,-0.065,-0.060
6245,-0.060,-0.055
6246,-0.060,-0.055
6247,-0.045,-0.040
6248,-0.015,-0.010
6249,0.050,0.055
6250,0.165,0.170
6251,0.265,0.275
6252,0.255,0.265
6253,0.095,0.105
6254,-0.095,-0.090
6255,-0.180,-0.185
6256,-0.145,-0.145
6257,-0.065,-0.065
6258,-0.015,-0.010
6259,0.005,0.005
6260,0.015,0.015
6261,0.020,0.025
6262,0.025,0.030
6263,0.025,0.030
6264,0.035,0.035
6265,0.045,0.050
6266,0.045,0.055
6267,0.045,0.055
6268,0.045,0.050
6269,0.040,0.045
6270,0.030,0.035
6271,0.025,0.025
6272,0.020,0.020
6273,0.015,0.015
6274,0.015,0.020
6275,0.030,0.035
6276,0.035,0.040
6277,0.040,0.045
6278,0.045,0.050
6279,0.045,0.055
6280,0.050,0.050
6281,0.040,0.050
6282,0.040,0.045
6283,0.030,0.035
6284,0.020,0.020
6285,0.015,0.015
6286,0.015,0.015
6287,0.010,0.010
6288,0.000,0.000
6289,-0.005,-0.005
6290,-0.010,-0.005
6291,-0.010,-0.005
6292,-0.020,-0.015
6293,-0.035,-0.030
6294,-0.040,-0.030
6295,-0.030,-0.020
6296,-0.010,-0.005
6297,-0.005,0.000
6298,-0.005,0.000
6299,0.000,0.000
6300,0.000,0.000
6301,0.000,0.005
6302,0.000,0.000
6303,-0.010,-0.005
6304,-0.020,-0.020
6305,-0.030,-0.025
6306,-0.030,-0.030
6307,-0.030,-0.030
6308,-0.040,-0.035
6309,-0.055,-0.050
6310,-0.060,-0.060
6311,-0.055,-0.055
6312,-0.040,-0.035
6313,-0.020,-0.025
6314,-0.020,-0.025
6315,-0.020,-0.025
6316,-0.030,-0.030
6317,-0.045,-0.040
6318,-0.050,-0.045
6319,-0.055,-0.050
6320,-0.055,-0.050
6321,-0.055,-0.050
6322,-0.060,-0.055
6323,-0.060,-0.060
6324,-0.060,-0.060
6325,-0.060,-0.055
6326,-0.060,-0.050
6327,-0.065,-0.060
6328,-0.070,-0.065
6329,-0.075,-0.070
6330,-0.065,-0.065
6331,-0.065,-0.065
6332,-0.070,-0.070
6333,-0.080,-0.080
6334,-0.075,-0.070
6335,-0.065,-0.065
6336,-0.070,-0.070
6337,-0.080,-0.075
6338,-0.085,-0.080
6339,-0.075,-0.075
6340,-0.070,-0.065
6341,-0.070,-0.065
6342,-0.060,-0.060
6343,-0.025,-0.020
6344,0.060,0.065
6345,0.195,0.205
6346,0.315,0.325
6347,0.305,0.320
6348,0.145,0.150
6349,-0.045,-0.045
6350,-0.135,-0.130
6351,-0.105,-0.100
6352,-0.050,-0.045
6353,-0.010,-0.005
6354,0.000,0.000
6355,0.000,0.000
6356,0.000,0.000
6357,0.000,0.000
6358,0.000,0.000
6359,0.000,0.000
6360,0.000,0.000
6361,0.000,0.000
6362,-0.005,-0.005
6363,0.000,0.000
6364,0.000,0.000
6365,0.000,0.005
6366,0.000,0.000
6367,-0.010,-0.010
6368,-0.015,-0.010
6369,0.000,0.000
6370,0.000,0.000
6371,0.005,0.005
6372,0.010,0.010
6373,0.010,0.010
6374,0.010,0.010
6375,0.010,0.010
6376,0.020,0.020
6377,0.030,0.030
6378,0.035,0.035
6379,0.030,0.035
6380,0.030,0.030
6381,0.020,0.025
6382,0.010,0.015
6383,0.005,0.010
6384,0.000,0.005
6385,-0.005,0.000
6386,-0.015,-0.010
6387,-0.015,-0.015
6388,-0.005,-0.005
6389,0.000,0.000
6390,0.000,0.000
6391,0.000,0.000
6392,0.000,0.000
6393,0.005,0.010
6394,0.005,0.005
6395,0.000,0.005
6396,0.000,0.005
6397,0.000,0.000
6398,0.000,0.000
6399,0.000,0.000
6400,0.000,0.000
6401,0.000,0.000
6402,-0.005,0.000
6403,-0.005,0.000
6404,0.000,0.000
6405,0.005,0.005
6406,0.000,0.000
6407,0.000,0.000
6408,0.000,0.000
6409,-0.010,-0.010
6410,-0.025,-0.025
6411,-0.040,-0.040
6412,-0.060,-0.060
6413,-0.075,-0.070
6414,-0.080,-0.075
6415,-0.075,-0.070
6416,-0.060,-0.050
6417,-0.050,-0.040
6418,-0.050,-0.040
6419,-0.055,-0.045
6420,-0.050,-0.040
6421,-0.035,-0.025
6422,0.000,0.000
6423,0.065,0.070
6424,0.195,0.205
6425,0.340,0.355
6426,0.390,0.405
6427,0.265,0.280
6428,0.050,0.055
6429,-0.085,-0.085
6430,-0.095,-0.100
6431,-0.045,-0.045
6432,-0.005,-0.005
6433,0.005,0.005
6434,0.000,0.000
6435,-0.005,0.000
6436,0.000,0.000
6437,0.000,0.000
6438,0.005,0.005
6439,0.000,0.000
6440,0.000,0.000
6441,-0.005,-0.005
6442,-0.010,-0.005
6443,-0.010,-0.005
6444,0.000,0.000
6445,0.010,0.015
6446,0.025,0.030
6447,0.030,0.030
6448,0.020,0.020
6449,0.010,0.010
6450,0.010,0.010
6451,0.010,0.010
6452,0.010,0.010
6453,0.010,0.015
6454,0.020,0.025
6455,0.030,0.035
6456,0.040,0.045
6457,0.040,0.045
6458,0.030,0.035
6459,0.015,0.020
6460,0.000,0.000
6461,-0.015,-0.015
6462,-0.025,-0.025
6463,-0.030,-0.030
6464,-0.040,-0.035
6465,-0.045,-0.040
6466,-0.045,-0.040
6467,-0.035,-0.030
6468,-0.030,-0.030
6469,-0.035,-0.035
6470,-0.045,-0.045
6471,-0.040,-0.040
6472,-0.005,-0.005
6473,0.075,0.080
6474,0.215,0.225
6475,0.340,0.355
6476,0.360,0.375
6477,0.220,0.230
6478,0.010,0.015
6479,-0.100,-0.100
6480,-0.090,-0.090
6481,-0.030,-0.025
6482,0.005,0.010
6483,0.015,0.015
6484,0.010,0.010
6485,0.010,0.010
6486,0.010,0.010
6487,0.010,0.015
6488,0.010,0.015
6489,0.005,0.005
6490,0.005,0.005
6491,0.000,0.005
6492,0.000,0.000
6493,-0.005,-0.005
6494,0.000,0.000
6495,0.005,0.010
6496,0.010,0.015
6497,0.015,0.015
6498,0.020,0.020
6499,0.020,0.020
6500,0.015,0.015
6501,0.015,0.015
6502,0.010,0.015
6503,0.010,0.015
6504,0.015,0.025
6505,0.025,0.030
6506,0.030,0.035
6507,0.035,0.035
6508,0.025,0.025
6509,0.010,0.010
6510,0.000,0.000
6511,0.000,0.000
6512,0.000,0.000
6513,0.000,0.000
6514,0.000,0.000
6515,0.005,0.005
6516,0.005,0.005
6517,0.000,0.000
6518,-0.005,0.000
6519,-0.005,-0.005
6520,-0.015,-0.010
6521,-0.010,-0.010
6522,-0.005,-0.005
6523,0.000,0.000
6524,0.000,0.005
6525,0.000,0.000
6526,0.000,0.000
6527,0.000,0.005
6528,0.005,0.010
6529,0.005,0.005
6530,0.000,0.000
6531,0.000,0.000
6532,0.005,0.005
6533,0.010,0.010
6534,0.010,0.010
6535,0.015,0.015
6536,0.015,0.020
6537,0.015,0.020
6538,0.015,0.020
6539,0.020,0.020
6540,0.020,0.020
6541,0.015,0.015
6542,0.010,0.010
6543,0.005,0.010
6544,0.005,0.010
6545,0.010,0.010
6546,0.010,0.010
6547,0.010,0.010
6548,0.010,0.010
6549,0.005,0.005
6550,0.000,0.000
6551,-0.005,0.000
6552,-0.005,0.000
6553,-0.005,0.000
6554,-0.005,0.000
6555,0.000,0.000
6556,0.000,0.005
6557,0.010,0.010
6558,0.010,0.015
6559,0.015,0.015
6560,0.010,0.010
6561,0.005,0.010
6562,0.000,0.010
6563,0.010,0.015
6564,0.060,0.060
6565,0.180,0.185
6566,0.340,0.350
6567,0.415,0.430
6568,0.315,0.325
6569,0.075,0.080
6570,-0.115,-0.120
6571,-0.145,-0.150
6572,-0.085,-0.080
6573,-0.015,-0.010
6574,0.010,0.010
6575,0.025,0.030
6576,0.030,0.035
6577,0.025,0.030
6578,0.015,0.020
6579,0.005,0.005
6580,0.000,0.000
6581,0.000,0.000
6582,0.000,0.000
6583,0.005,0.010
6584,0.020,0.025
6585,0.030,0.040
6586,0.040,0.050
6587,0.040,0.045
6588,0.040,0.045
6589,0.050,0.055
6590,0.065,0.070
6591,0.070,0.075
6592,0.070,0.075
6593,0.075,0.080
6594,0.080,0.085
6595,0.085,0.090
6596,0.090,0.100
6597,0.100,0.110
6598,0.110,0.120
6599,0.115,0.130
6600,0.110,0.125
6601,0.105,0.110
6602,0.095,0.095
6603,0.085,0.090
6604,0.085,0.090
6605,0.080,0.085
6606,0.075,0.080
6607,0.060,0.065
6608,0.055,0.060
6609,0.060,0.065
6610,0.070,0.075
6611,0.075,0.080
6612,0.070,0.075
6613,0.055,0.060
6614,0.045,0.055
6615,0.040,0.050
6616,0.040,0.050
6617,0.045,0.055
6618,0.050,0.055
6619,0.045,0.050
6620,0.040,0.045
6621,0.040,0.050
6622,0.045,0.055
6623,0.050,0.060
6624,0.050,0.055
6625,0.050,0.055
6626,0.050,0.060
6627,0.055,0.060
6628,0.055,0.060
6629,0.045,0.050
6630,0.025,0.030
6631,0.010,0.015
6632,0.010,0.010
6633,0.010,0.010
6634,0.000,0.005
6635,0.000,0.005
6636,0.000,0.005
6637,0.005,0.010
6638,0.010,0.010
6639,0.005,0.010
6640,0.005,0.010
6641,0.005,0.010
6642,0.010,0.010
6643,0.005,0.010
6644,0.005,0.010
6645,0.010,0.015
6646,0.070,0.075
6647,0.205,0.215
6648,0.365,0.380
6649,0.435,0.450
6650,0.310,0.320
6651,0.070,0.070
6652,-0.095,-0.100
6653,-0.095,-0.100
6654,-0.020,-0.015
6655,0.040,0.040
6656,0.055,0.060
6657,0.050,0.060
6658,0.050,0.055
6659,0.050,0.055
6660,0.050,0.055
6661,0.045,0.040
6662,0.040,0.035
6663,0.040,0.035
6664,0.040,0.035
6665,0.040,0.030
6666,0.025,0.020
6667,0.015,0.015
6668,0.010,0.010
6669,0.010,0.010
6670,0.010,0.010
6671,0.020,0.020
6672,0.035,0.035
6673,0.040,0.035
6674,0.030,0.025
6675,0.030,0.025
6676,0.035,0.030
6677,0.040,0.045
6678,0.045,0.050
6679,0.055,0.060
6680,0.070,0.070
6681,0.065,0.060
6682,0.055,0.050
6683,0.045,0.045
6684,0.035,0.030
6685,0.010,0.005
6686,-0.010,-0.010
6687,-0.010,-0.015
6688,-0.005,-0.010
6689,0.000,0.000
6690,0.005,0.005
6691,0.005,0.000
6692,0.000,0.000
6693,0.000,0.000
6694,-0.005,-0.010
6695,-0.010,-0.015
6696,-0.005,-0.010
6697,0.040,0.035
6698,0.150,0.145
6699,0.265,0.270
6700,0.315,0.315
6701,0.200,0.200
6702,0.005,0.000
6703,-0.120,-0.130
6704,-0.135,-0.140
6705,-0.075,-0.075
6706,-0.010,-0.010
6707,0.025,0.020
6708,0.035,0.035
6709,0.030,0.025
6710,0.025,0.020
6711,0.025,0.020
6712,0.030,0.030
6713,0.040,0.040
6714,0.045,0.050
6715,0.045,0.045
6716,0.040,0.035
6717,0.040,0.035
6718,0.045,0.040
6719,0.055,0.050
6720,0.070,0.065
6721,0.080,0.075
6722,0.090,0.085
6723,0.090,0.090
6724,0.090,0.095
6725,0.095,0.095
6726,0.095,0.095
6727,0.095,0.095
6728,0.095,0.095
6729,0.095,0.095
6730,0.100,0.095
6731,0.100,0.095
6732,0.110,0.100
6733,0.105,0.100
6734,0.090,0.090
6735,0.070,0.070
6736,0.060,0.055
6737,0.055,0.050
6738,0.050,0.045
6739,0.035,0.035
6740,0.035,0.035
6741,0.045,0.045
6742,0.045,0.045
6743,0.050,0.050
6744,0.060,0.060
6745,0.070,0.065
6746,0.060,0.060
6747,0.060,0.055
6748,0.060,0.055
6749,0.065,0.060
6750,0.055,0.050
6751,0.045,0.040
6752,0.030,0.025
6753,0.015,0.015
6754,0.005,0.000
6755,0.000,0.000
6756,0.000,0.000
6757,0.005,0.005
6758,0.005,0.005
6759,0.005,0.000
6760,0.005,0.000
6761,0.005,0.005
6762,0.000,0.000
6763,0.000,0.000
6764,0.000,0.000
6765,0.010,0.005
6766,0.015,0.015
6767,0.020,0.015
6768,0.015,0.010
6769,0.010,0.010
6770,0.005,0.005
6771,-0.005,-0.005
6772,-0.020,-0.020
6773,-0.035,-0.035
6774,-0.045,-0.045
6775,-0.055,-0.055
6776,-0.060,-0.065
6777,-0.060,-0.060
6778,-0.050,-0.050
6779,-0.030,-0.030
6780,-0.010,-0.015
6781,0.000,0.000
6782,0.005,0.000
6783,0.005,0.000
6784,0.005,0.000
6785,0.000,0.000
6786,0.000,0.000
6787,0.015,0.010
6788,0.105,0.105
6789,0.260,0.265
6790,0.405,0.415
6791,0.445,0.455
6792,0.295,0.300
6793,0.070,0.070
6794,-0.045,-0.055
6795,-0.045,-0.050
6796,-0.005,-0.010
6797,0.015,0.010
6798,0.020,0.015
6799,0.010,0.010
6800,0.010,0.010
6801,0.010,0.010
6802,0.010,0.010
6803,0.010,0.010
6804,0.010,0.010
6805,0.010,0.010
6806,0.015,0.010
6807,0.015,0.010
6808,0.010,0.010
6809,0.010,0.010
6810,0.010,0.010
6811,0.010,0.010
6812,0.010,0.010
6813,0.015,0.015
6814,0.020,0.020
