'sample interval','ECG0','ECG1'
'0.0078125 sec','mV','mV'
0,0.140,-0.225
1,0.140,-0.225
2,0.135,-0.225
3,0.120,-0.215
4,0.110,-0.200
5,0.105,-0.180
6,0.085,-0.160
7,0.070,-0.135
8,0.060,-0.110
9,0.040,-0.080
10,0.025,-0.055
11,0.015,-0.035
12,0.010,-0.005
13,0.000,0.000
14,0.000,0.010
15,-0.005,0.020
16,-0.015,0.030
17,-0.020,0.040
18,-0.020,0.050
19,-0.025,0.055
20,-0.040,0.060
21,-0.045,0.065
22,-0.045,0.065
23,-0.040,0.070
24,-0.040,0.065
25,-0.045,0.065
26,-0.040,0.065
27,-0.040,0.060
28,-0.045,0.060
29,-0.040,0.060
30,-0.030,0.055
31,-0.030,0.055
32,-0.030,0.050
33,-0.030,0.045
34,-0.030,0.045
35,-0.030,0.040
36,-0.035,0.045
37,-0.030,0.040
38,-0.020,0.035
39,-0.020,0.035
40,-0.025,0.050
41,-0.045,0.070
42,-0.045,0.080
43,-0.045,0.080
44,-0.055,0.090
45,-0.080,0.105
46,-0.100,0.105
47,-0.105,0.100
48,-0.095,0.100
49,-0.070,0.085
50,-0.030,0.060
51,-0.015,0.035
52,0.000,0.010
53,0.000,0.005
54,0.000,0.005
55,0.000,0.000
56,0.000,0.000
57,0.000,0.000
58,0.000,0.000
59,0.000,0.000
60,0.000,0.000
61,0.000,0.010
62,-0.050,0.055
63,-0.205,0.205
64,-0.450,0.455
65,-0.665,0.680
66,-0.680,0.650
67,-0.450,0.325
68,-0.155,0.010
69,0.015,-0.085
70,0.085,-0.085
71,0.095,-0.065
72,0.095,-0.055
73,0.105,-0.060
74,0.110,-0.055
75,0.110,-0.055
76,0.105,-0.050
77,0.105,-0.050
78,0.105,-0.055
79,0.105,-0.060
80,0.100,-0.055
81,0.105,-0.055
82,0.105,-0.060
83,0.110,-0.055
84,0.110,-0.060
85,0.105,-0.055
86,0.100,-0.055
87,0.095,-0.050
88,0.100,-0.060
89,0.105,-0.055
90,0.110,-0.060
91,0.110,-0.065
92,0.110,-0.070
93,0.110,-0.075
94,0.110,-0.085
95,0.115,-0.095
96,0.125,-0.115
97,0.130,-0.125
98,0.135,-0.145
99,0.140,-0.165
100,0.150,-0.185
101,0.150,-0.200
102,0.140,-0.210
103,0.140,-0.220
104,0.140,-0.225
105,0.130,-0.220
106,0.115,-0.210
107,0.110,-0.200
108,0.100,-0.180
109,0.080,-0.160
110,0.070,-0.140
111,0.055,-0.115
112,0.040,-0.085
113,0.030,-0.060
114,0.015,-0.035
115,0.000,-0.015
116,0.000,0.000
117,0.000,0.005
118,-0.010,0.010
119,-0.020,0.030
120,-0.020,0.040
121,-0.020,0.055
122,-0.030,0.055
123,-0.035,0.065
124,-0.040,0.065
125,-0.045,0.065
126,-0.050,0.065
127,-0.050,0.065
128,-0.050,0.065
129,-0.050,0.065
130,-0.050,0.060
131,-0.050,0.060
132,-0.050,0.060
133,-0.050,0.060
134,-0.040,0.060
135,-0.030,0.050
136,-0.030,0.050
137,-0.035,0.040
138,-0.035,0.040
139,-0.025,0.040
140,-0.025,0.040
141,-0.035,0.035
142,-0.030,0.045
143,-0.035,0.055
144,-0.045,0.075
145,-0.050,0.080
146,-0.050,0.085
147,-0.070,0.100
148,-0.095,0.110
149,-0.105,0.100
150,-0.105,0.095
151,-0.090,0.095
152,-0.060,0.080
153,-0.040,0.055
154,-0.025,0.025
155,-0.010,0.015
156,-0.005,0.010
157,0.000,0.005
158,0.000,0.005
159,0.000,0.005
160,0.000,0.005
161,0.000,0.005
162,0.000,0.000
163,0.000,0.000
164,-0.010,0.005
165,-0.085,0.070
166,-0.245,0.235
167,-0.510,0.500
168,-0.720,0.740
169,-0.705,0.665
170,-0.385,0.240
171,-0.100,-0.040
172,0.030,-0.090
173,0.090,-0.085
174,0.095,-0.055
175,0.095,-0.060
176,0.105,-0.055
177,0.105,-0.055
178,0.105,-0.055
179,0.095,-0.055
180,0.100,-0.055
181,0.105,-0.055
182,0.105,-0.050
183,0.100,-0.050
184,0.100,-0.055
185,0.105,-0.055
186,0.110,-0.055
187,0.100,-0.055
188,0.095,-0.060
189,0.095,-0.055
190,0.095,-0.060
191,0.105,-0.055
192,0.105,-0.060
193,0.105,-0.065
194,0.110,-0.065
195,0.110,-0.075
196,0.110,-0.075
197,0.110,-0.085
198,0.115,-0.095
199,0.120,-0.115
200,0.130,-0.130
201,0.130,-0.145
202,0.135,-0.165
203,0.145,-0.180
204,0.145,-0.195
205,0.140,-0.210
206,0.130,-0.220
207,0.125,-0.225
208,0.120,-0.220
209,0.110,-0.210
210,0.105,-0.195
211,0.090,-0.170
212,0.075,-0.155
213,0.065,-0.130
214,0.055,-0.110
215,0.040,-0.075
216,0.020,-0.050
217,0.015,-0.020
218,0.000,0.000
219,0.000,0.000
220,0.000,0.010
221,-0.015,0.025
222,-0.020,0.030
223,-0.025,0.050
224,-0.040,0.055
225,-0.040,0.060
226,-0.045,0.065
227,-0.050,0.075
228,-0.050,0.080
229,-0.050,0.075
230,-0.050,0.070
231,-0.050,0.070
232,-0.050,0.065
233,-0.050,0.065
234,-0.050,0.065
235,-0.050,0.065
236,-0.050,0.065
237,-0.050,0.060
238,-0.050,0.060
239,-0.050,0.060
240,-0.050,0.060
241,-0.050,0.055
242,-0.050,0.055
243,-0.050,0.055
244,-0.050,0.065
245,-0.055,0.085
246,-0.065,0.090
247,-0.065,0.095
248,-0.085,0.100
249,-0.110,0.120
250,-0.125,0.115
251,-0.120,0.110
252,-0.110,0.105
253,-0.090,0.090
254,-0.050,0.065
255,-0.025,0.035
256,-0.020,0.025
257,-0.020,0.020
258,-0.020,0.015
259,-0.020,0.015
260,-0.020,0.015
261,-0.020,0.015
262,-0.020,0.015
263,-0.015,0.010
264,-0.010,0.005
265,-0.025,0.020
266,-0.100,0.090
267,-0.290,0.265
268,-0.540,0.535
269,-0.725,0.725
270,-0.665,0.605
271,-0.395,0.235
272,-0.135,-0.005
273,0.000,-0.070
274,0.055,-0.065
275,0.070,-0.050
276,0.070,-0.050
277,0.065,-0.050
278,0.060,-0.050
279,0.065,-0.050
280,0.075,-0.045
281,0.075,-0.045
282,0.075,-0.045
283,0.075,-0.045
284,0.070,-0.045
285,0.070,-0.040
286,0.065,-0.040
287,0.065,-0.040
288,0.070,-0.045
289,0.070,-0.045
290,0.070,-0.045
291,0.070,-0.050
292,0.075,-0.050
293,0.075,-0.045
294,0.075,-0.045
295,0.075,-0.060
296,0.075,-0.055
297,0.075,-0.070
298,0.085,-0.070
299,0.090,-0.085
300,0.105,-0.095
301,0.110,-0.115
302,0.110,-0.130
303,0.115,-0.155
304,0.120,-0.165
305,0.120,-0.190
306,0.115,-0.200
307,0.110,-0.210
308,0.110,-0.215
309,0.095,-0.205
310,0.080,-0.200
311,0.070,-0.180
312,0.055,-0.160
313,0.040,-0.140
314,0.025,-0.110
315,0.010,-0.080
316,0.000,-0.055
317,0.000,-0.030
318,-0.005,-0.005
319,-0.015,0.000
320,-0.030,0.005
321,-0.040,0.020
322,-0.050,0.040
323,-0.050,0.050
324,-0.050,0.060
325,-0.050,0.065
326,-0.060,0.070
327,-0.060,0.075
328,-0.065,0.085
329,-0.070,0.085
330,-0.075,0.085
331,-0.075,0.085
332,-0.075,0.080
333,-0.075,0.075
334,-0.075,0.075
335,-0.070,0.070
336,-0.065,0.070
337,-0.060,0.065
338,-0.060,0.065
339,-0.060,0.065
340,-0.065,0.065
341,-0.065,0.060
342,-0.065,0.060
343,-0.055,0.060
344,-0.060,0.065
345,-0.065,0.090
346,-0.070,0.095
347,-0.075,0.095
348,-0.090,0.100
349,-0.115,0.125
350,-0.125,0.115
351,-0.130,0.115
352,-0.125,0.120
353,-0.105,0.105
354,-0.070,0.080
355,-0.050,0.055
356,-0.045,0.035
357,-0.040,0.030
358,-0.035,0.025
359,-0.030,0.025
360,-0.030,0.025
361,-0.035,0.025
362,-0.030,0.025
363,-0.030,0.020
364,-0.030,0.015
365,-0.035,0.020
366,-0.085,0.070
367,-0.225,0.200
368,-0.455,0.430
369,-0.655,0.655
370,-0.675,0.630
371,-0.465,0.315
372,-0.195,0.010
373,-0.025,-0.065
374,0.025,-0.060
375,0.050,-0.040
376,0.050,-0.035
377,0.055,-0.030
378,0.055,-0.035
379,0.055,-0.035
380,0.055,-0.035
381,0.055,-0.035
382,0.055,-0.040
383,0.060,-0.045
384,0.065,-0.045
385,0.065,-0.035
386,0.065,-0.035
387,0.070,-0.040
388,0.070,-0.040
389,0.070,-0.040
390,0.070,-0.040
391,0.070,-0.045
392,0.075,-0.045
393,0.075,-0.045
394,0.075,-0.050
395,0.075,-0.050
396,0.085,-0.050
397,0.095,-0.065
398,0.105,-0.070
399,0.110,-0.080
400,0.115,-0.095
401,0.125,-0.110
402,0.130,-0.125
403,0.130,-0.145
404,0.130,-0.165
405,0.130,-0.180
406,0.130,-0.195
407,0.125,-0.200
408,0.120,-0.210
409,0.115,-0.205
410,0.100,-0.195
411,0.090,-0.180
412,0.080,-0.155
413,0.070,-0.140
414,0.055,-0.115
415,0.045,-0.090
416,0.030,-0.060
417,0.015,-0.035
418,0.005,-0.015
419,0.000,0.000
420,0.000,0.010
421,0.000,0.025
422,0.000,0.030
423,-0.015,0.040
424,-0.020,0.055
425,-0.020,0.055
426,-0.020,0.065
427,-0.020,0.065
428,-0.020,0.070
429,-0.025,0.070
430,-0.025,0.070
431,-0.025,0.070
432,-0.020,0.070
433,-0.020,0.065
434,-0.020,0.065
435,-0.020,0.065
436,-0.020,0.065
437,-0.020,0.055
438,-0.020,0.055
439,-0.020,0.050
440,-0.020,0.045
441,-0.020,0.045
442,-0.020,0.040
443,-0.020,0.040
444,-0.020,0.045
445,-0.020,0.065
446,-0.025,0.080
447,-0.030,0.085
448,-0.040,0.090
449,-0.055,0.100
450,-0.070,0.105
451,-0.075,0.100
452,-0.070,0.100
453,-0.060,0.085
454,-0.035,0.065
455,-0.010,0.040
456,0.000,0.020
457,0.000,0.010
458,0.000,0.010
459,0.000,0.005
460,0.005,0.000
461,0.000,0.000
462,0.000,0.000
463,0.005,0.000
464,0.005,0.000
465,0.010,0.000
466,-0.015,0.030
467,-0.120,0.130
468,-0.370,0.370
469,-0.620,0.650
470,-0.705,0.715
471,-0.480,0.375
472,-0.180,0.025
473,-0.005,-0.075
474,0.065,-0.080
475,0.100,-0.065
476,0.105,-0.065
477,0.105,-0.060
478,0.110,-0.060
479,0.110,-0.055
480,0.110,-0.060
481,0.110,-0.060
482,0.110,-0.060
483,0.110,-0.055
484,0.110,-0.060
485,0.110,-0.055
486,0.115,-0.055
487,0.110,-0.060
488,0.110,-0.065
489,0.110,-0.055
490,0.110,-0.055
491,0.110,-0.060
492,0.110,-0.065
493,0.110,-0.065
494,0.110,-0.070
495,0.110,-0.070
496,0.120,-0.075
497,0.130,-0.080
498,0.130,-0.085
499,0.130,-0.090
500,0.130,-0.105
501,0.150,-0.125
502,0.165,-0.145
503,0.165,-0.160
504,0.165,-0.180
505,0.165,-0.190
506,0.165,-0.210
507,0.160,-0.220
508,0.145,-0.225
509,0.140,-0.220
510,0.125,-0.215
511,0.115,-0.195
512,0.110,-0.185
513,0.095,-0.160
514,0.075,-0.135
515,0.065,-0.105
516,0.055,-0.080
517,0.050,-0.055
518,0.030,-0.030
519,0.020,-0.010
520,0.015,0.000
521,0.000,0.000
522,0.000,0.020
523,0.000,0.030
524,-0.005,0.040
525,-0.010,0.045
526,-0.015,0.055
527,-0.015,0.060
528,-0.020,0.065
529,-0.020,0.065
530,-0.025,0.065
531,-0.020,0.065
532,-0.020,0.065
533,-0.020,0.060
534,-0.020,0.060
535,-0.020,0.055
536,-0.020,0.055
537,-0.020,0.050
538,-0.020,0.050
539,-0.020,0.050
540,-0.020,0.050
541,-0.020,0.045
542,-0.020,0.040
543,-0.020,0.045
544,-0.025,0.065
545,-0.025,0.080
546,-0.025,0.080
547,-0.030,0.080
548,-0.055,0.105
549,-0.080,0.105
550,-0.080,0.100
551,-0.075,0.100
552,-0.060,0.090
553,-0.035,0.065
554,-0.010,0.035
555,0.000,0.010
556,0.000,0.010
557,0.000,0.000
558,0.000,0.000
559,0.000,0.000
560,0.000,0.000
561,0.000,0.000
562,0.000,0.000
563,0.000,0.000
564,0.005,0.000
565,-0.035,0.030
566,-0.155,0.150
567,-0.390,0.385
568,-0.620,0.640
569,-0.690,0.685
570,-0.490,0.380
571,-0.200,0.055
572,-0.010,-0.070
573,0.070,-0.080
574,0.090,-0.065
575,0.090,-0.055
576,0.095,-0.055
577,0.105,-0.055
578,0.105,-0.055
579,0.110,-0.060
580,0.105,-0.060
581,0.100,-0.055
582,0.105,-0.055
583,0.105,-0.055
584,0.110,-0.050
585,0.110,-0.060
586,0.110,-0.060
587,0.105,-0.060
588,0.105,-0.055
589,0.100,-0.055
590,0.100,-0.055
591,0.100,-0.060
592,0.110,-0.060
593,0.110,-0.060
594,0.110,-0.070
595,0.110,-0.075
596,0.115,-0.075
597,0.115,-0.080
598,0.120,-0.090
599,0.130,-0.105
600,0.140,-0.125
601,0.145,-0.145
602,0.150,-0.160
603,0.150,-0.175
604,0.155,-0.195
605,0.150,-0.205
606,0.150,-0.220
607,0.135,-0.225
608,0.120,-0.225
609,0.120,-0.215
610,0.110,-0.200
611,0.105,-0.175
612,0.090,-0.160
613,0.075,-0.140
614,0.060,-0.110
615,0.045,-0.085
616,0.025,-0.060
617,0.020,-0.030
618,0.010,-0.010
619,0.000,0.000
620,0.000,0.000
621,0.000,0.015
622,-0.010,0.025
623,-0.015,0.035
624,-0.020,0.045
625,-0.030,0.055
626,-0.040,0.060
627,-0.035,0.065
628,-0.035,0.065
629,-0.040,0.065
630,-0.040,0.065
631,-0.040,0.060
632,-0.040,0.055
633,-0.040,0.060
634,-0.040,0.055
635,-0.040,0.050
636,-0.035,0.050
637,-0.030,0.050
638,-0.035,0.045
639,-0.030,0.040
640,-0.030,0.040
641,-0.035,0.040
642,-0.045,0.050
643,-0.045,0.075
644,-0.040,0.080
645,-0.040,0.080
646,-0.055,0.090
647,-0.085,0.105
648,-0.090,0.105
649,-0.095,0.105
650,-0.080,0.105
651,-0.060,0.080
652,-0.035,0.060
653,-0.015,0.030
654,0.000,0.010
655,0.000,0.005
656,0.000,0.005
657,0.000,0.000
658,0.000,0.000
659,0.000,0.000
660,0.000,0.000
661,0.000,0.005
662,0.000,0.000
663,-0.005,0.010
664,-0.070,0.070
665,-0.240,0.235
666,-0.490,0.490
667,-0.685,0.695
668,-0.670,0.630
669,-0.410,0.270
670,-0.125,-0.015
671,0.020,-0.090
672,0.090,-0.085
673,0.095,-0.060
674,0.090,-0.055
675,0.100,-0.065
676,0.095,-0.060
677,0.095,-0.055
678,0.105,-0.055
679,0.100,-0.060
680,0.105,-0.060
681,0.095,-0.055
682,0.105,-0.055
683,0.105,-0.055
684,0.105,-0.060
685,0.100,-0.060
686,0.100,-0.055
687,0.100,-0.060
688,0.100,-0.055
689,0.095,-0.060
690,0.100,-0.065
691,0.105,-0.065
692,0.105,-0.065
693,0.110,-0.065
694,0.110,-0.075
695,0.110,-0.080
696,0.115,-0.090
697,0.125,-0.100
698,0.130,-0.115
699,0.140,-0.130
700,0.140,-0.150
701,0.140,-0.165
702,0.145,-0.185
703,0.145,-0.205
704,0.140,-0.215
705,0.135,-0.220
706,0.130,-0.220
707,0.125,-0.215
708,0.115,-0.205
709,0.105,-0.190
710,0.090,-0.170
711,0.075,-0.150
712,0.070,-0.125
713,0.055,-0.100
714,0.040,-0.070
715,0.020,-0.045
716,0.015,-0.025
717,0.000,-0.005
718,0.000,0.000
719,-0.005,0.010
720,-0.020,0.025
721,-0.020,0.035
722,-0.020,0.050
723,-0.025,0.055
724,-0.035,0.060
725,-0.040,0.065
726,-0.040,0.065
727,-0.045,0.070
728,-0.045,0.070
729,-0.045,0.070
730,-0.045,0.065
731,-0.045,0.065
732,-0.045,0.060
733,-0.040,0.060
734,-0.040,0.050
735,-0.040,0.055
736,-0.040,0.050
737,-0.040,0.050
738,-0.030,0.050
739,-0.030,0.050
740,-0.040,0.050
741,-0.050,0.070
742,-0.050,0.085
743,-0.050,0.090
744,-0.060,0.095
745,-0.085,0.110
746,-0.105,0.105
747,-0.105,0.105
748,-0.095,0.105
749,-0.075,0.090
750,-0.045,0.070
751,-0.020,0.045
752,-0.005,0.020
753,0.000,0.010
754,0.000,0.010
755,0.000,0.010
756,0.000,0.005
757,0.000,0.005
758,-0.005,0.005
759,0.000,0.000
760,0.000,0.000
761,0.000,0.000
762,-0.045,0.040
763,-0.170,0.160
764,-0.425,0.405
765,-0.670,0.680
766,-0.745,0.735
767,-0.520,0.395
768,-0.190,0.020
769,0.000,-0.075
770,0.070,-0.080
771,0.085,-0.065
772,0.090,-0.060
773,0.090,-0.060
774,0.095,-0.055
775,0.095,-0.055
776,0.095,-0.055
777,0.095,-0.055
778,0.090,-0.055
779,0.085,-0.055
780,0.090,-0.055
781,0.095,-0.055
782,0.095,-0.050
783,0.095,-0.050
784,0.095,-0.055
785,0.085,-0.055
786,0.090,-0.055
787,0.095,-0.060
788,0.095,-0.065
789,0.095,-0.065
790,0.095,-0.065
791,0.100,-0.065
792,0.100,-0.070
793,0.110,-0.075
794,0.110,-0.085
795,0.115,-0.095
796,0.125,-0.110
797,0.125,-0.125
798,0.135,-0.145
799,0.135,-0.165
800,0.140,-0.180
801,0.135,-0.195
802,0.130,-0.205
803,0.130,-0.215
804,0.125,-0.220
805,0.120,-0.220
806,0.110,-0.210
807,0.105,-0.200
808,0.095,-0.175
809,0.075,-0.155
810,0.060,-0.130
811,0.050,-0.110
812,0.040,-0.080
813,0.020,-0.055
814,0.015,-0.025
815,0.000,-0.010
816,0.000,0.000
817,0.000,0.000
818,-0.010,0.020
819,-0.015,0.025
820,-0.025,0.045
821,-0.030,0.050
822,-0.040,0.055
823,-0.045,0.060
824,-0.050,0.065
825,-0.050,0.065
826,-0.045,0.065
827,-0.045,0.065
828,-0.050,0.065
829,-0.050,0.065
830,-0.050,0.060
831,-0.050,0.060
832,-0.050,0.055
833,-0.045,0.050
834,-0.045,0.050
835,-0.045,0.050
836,-0.045,0.045
837,-0.040,0.040
838,-0.040,0.050
839,-0.050,0.055
840,-0.055,0.075
841,-0.050,0.085
842,-0.055,0.090
843,-0.075,0.095
844,-0.095,0.110
845,-0.105,0.105
846,-0.100,0.100
847,-0.090,0.095
848,-0.065,0.080
849,-0.045,0.060
850,-0.020,0.030
851,-0.015,0.010
852,-0.010,0.010
853,-0.005,0.005
854,-0.005,0.005
855,-0.005,0.005
856,-0.005,0.005
857,0.000,0.005
858,0.000,0.000
859,0.000,0.000
860,-0.015,0.010
861,-0.090,0.080
862,-0.285,0.260
863,-0.545,0.535
864,-0.730,0.730
865,-0.670,0.600
866,-0.385,0.220
867,-0.120,-0.015
868,0.020,-0.085
869,0.070,-0.075
870,0.080,-0.065
871,0.080,-0.055
872,0.085,-0.055
873,0.085,-0.055
874,0.085,-0.055
875,0.080,-0.055
876,0.080,-0.055
877,0.080,-0.055
878,0.075,-0.055
879,0.075,-0.055
880,0.075,-0.055
881,0.085,-0.055
882,0.085,-0.055
883,0.080,-0.055
884,0.075,-0.055
885,0.075,-0.055
886,0.075,-0.060
887,0.075,-0.060
888,0.075,-0.060
889,0.080,-0.055
890,0.075,-0.065
891,0.085,-0.075
892,0.085,-0.080
893,0.100,-0.085
894,0.110,-0.105
895,0.110,-0.110
896,0.110,-0.130
897,0.120,-0.145
898,0.120,-0.160
899,0.120,-0.175
900,0.125,-0.195
901,0.130,-0.210
902,0.115,-0.215
903,0.110,-0.220
904,0.105,-0.215
905,0.085,-0.200
906,0.070,-0.185
907,0.055,-0.165
908,0.050,-0.140
909,0.030,-0.115
910,0.020,-0.085
911,0.005,-0.060
912,0.000,-0.035
913,-0.005,-0.015
914,-0.015,-0.005
915,-0.025,0.005
916,-0.035,0.020
917,-0.045,0.030
918,-0.050,0.040
919,-0.055,0.055
920,-0.065,0.055
921,-0.065,0.065
922,-0.065,0.070
923,-0.070,0.075
924,-0.065,0.075
925,-0.070,0.080
926,-0.075,0.075
927,-0.070,0.075
928,-0.070,0.070
929,-0.065,0.070
930,-0.065,0.065
931,-0.070,0.065
932,-0.070,0.060
933,-0.065,0.060
934,-0.065,0.060
935,-0.065,0.055
936,-0.060,0.055
937,-0.050,0.055
938,-0.055,0.060
939,-0.065,0.060
940,-0.070,0.085
941,-0.075,0.085
942,-0.075,0.085
943,-0.100,0.105
944,-0.125,0.120
945,-0.130,0.105
946,-0.125,0.110
947,-0.115,0.105
948,-0.085,0.090
949,-0.065,0.065
950,-0.050,0.040
951,-0.035,0.025
952,-0.030,0.020
953,-0.030,0.010
954,-0.035,0.010
955,-0.040,0.015
956,-0.030,0.015
957,-0.030,0.015
958,-0.025,0.010
959,-0.020,0.000
960,-0.050,0.030
961,-0.140,0.110
962,-0.330,0.290
963,-0.570,0.545
964,-0.710,0.690
965,-0.625,0.530
966,-0.350,0.175
967,-0.105,-0.035
968,0.010,-0.075
969,0.045,-0.065
970,0.050,-0.045
971,0.050,-0.040
972,0.055,-0.040
973,0.055,-0.040
974,0.055,-0.040
975,0.055,-0.045
976,0.055,-0.045
977,0.055,-0.045
978,0.055,-0.040
979,0.055,-0.040
980,0.055,-0.040
981,0.055,-0.040
982,0.055,-0.040
983,0.055,-0.040
984,0.055,-0.040
985,0.060,-0.045
986,0.055,-0.045
987,0.055,-0.040
988,0.055,-0.045
989,0.055,-0.045
990,0.060,-0.060
991,0.065,-0.055
992,0.065,-0.065
993,0.070,-0.070
994,0.085,-0.085
995,0.090,-0.100
996,0.090,-0.120
997,0.100,-0.135
998,0.110,-0.150
999,0.110,-0.165
1000,0.105,-0.180
1001,0.100,-0.200
1002,0.095,-0.205
1003,0.085,-0.210
1004,0.075,-0.200
1005,0.060,-0.185
1006,0.050,-0.170
1007,0.045,-0.150
1008,0.030,-0.125
1009,0.010,-0.095
1010,0.000,-0.070
1011,0.000,-0.040
1012,0.000,-0.015
1013,-0.010,0.000
1014,-0.020,0.000
1015,-0.020,0.015
1016,-0.035,0.030
1017,-0.050,0.050
1018,-0.050,0.055
1019,-0.050,0.065
1020,-0.050,0.065
1021,-0.050,0.075
1022,-0.050,0.075
1023,-0.050,0.085
1024,-0.065,0.085
1025,-0.055,0.085
1026,-0.055,0.080
1027,-0.055,0.080
1028,-0.050,0.075
1029,-0.050,0.070
1030,-0.050,0.065
1031,-0.050,0.065
1032,-0.050,0.060
1033,-0.040,0.055
1034,-0.040,0.055
1035,-0.040,0.055
1036,-0.040,0.055
1037,-0.040,0.045
1038,-0.030,0.050
1039,-0.035,0.055
1040,-0.045,0.075
1041,-0.050,0.085
1042,-0.050,0.085
1043,-0.055,0.095
1044,-0.075,0.110
1045,-0.090,0.105
1046,-0.095,0.105
1047,-0.085,0.110
1048,-0.065,0.095
1049,-0.040,0.070
1050,-0.020,0.040
1051,-0.005,0.025
1052,0.000,0.010
1053,0.000,0.010
1054,0.000,0.010
1055,0.000,0.010
1056,0.000,0.010
1057,0.000,0.005
1058,0.000,0.000
1059,0.000,0.000
1060,0.000,0.005
1061,-0.045,0.050
1062,-0.165,0.165
1063,-0.425,0.410
1064,-0.645,0.665
1065,-0.685,0.665
1066,-0.445,0.295
1067,-0.150,-0.005
1068,0.005,-0.070
1069,0.055,-0.075
1070,0.080,-0.050
1071,0.085,-0.050
1072,0.090,-0.050
1073,0.090,-0.050
1074,0.100,-0.050
1075,0.105,-0.050
1076,0.095,-0.050
1077,0.100,-0.050
1078,0.105,-0.055
1079,0.105,-0.055
1080,0.105,-0.055
1081,0.105,-0.055
1082,0.105,-0.060
1083,0.110,-0.060
1084,0.110,-0.055
1085,0.110,-0.055
1086,0.105,-0.060
1087,0.105,-0.055
1088,0.110,-0.060
1089,0.110,-0.060
1090,0.110,-0.065
1091,0.110,-0.075
1092,0.120,-0.075
1093,0.120,-0.085
1094,0.130,-0.090
1095,0.140,-0.110
1096,0.145,-0.125
1097,0.150,-0.140
1098,0.160,-0.160
1099,0.160,-0.180
1100,0.160,-0.190
1101,0.150,-0.205
1102,0.145,-0.215
1103,0.140,-0.220
1104,0.125,-0.215
1105,0.120,-0.210
1106,0.105,-0.190
1107,0.100,-0.175
1108,0.080,-0.150
1109,0.070,-0.125
1110,0.060,-0.100
1111,0.050,-0.075
1112,0.035,-0.050
1113,0.025,-0.025
1114,0.010,-0.010
1115,0.005,0.000
1116,0.000,0.005
1117,0.000,0.015
1118,-0.005,0.025
1119,-0.010,0.035
1120,-0.015,0.045
1121,-0.020,0.055
1122,-0.020,0.060
1123,-0.020,0.065
1124,-0.020,0.065
1125,-0.025,0.065
1126,-0.020,0.065
1127,-0.025,0.065
1128,-0.020,0.055
1129,-0.020,0.055
1130,-0.020,0.050
1131,-0.020,0.050
1132,-0.020,0.050
1133,-0.020,0.050
1134,-0.020,0.045
1135,-0.020,0.040
1136,-0.020,0.040
1137,-0.020,0.045
1138,-0.020,0.035
1139,-0.020,0.030
1140,-0.015,0.030
1141,-0.015,0.040
1142,-0.020,0.055
1143,-0.030,0.075
1144,-0.030,0.080
1145,-0.040,0.085
1146,-0.065,0.100
1147,-0.080,0.100
1148,-0.085,0.090
1149,-0.070,0.095
1150,-0.065,0.085
1151,-0.030,0.065
1152,-0.015,0.035
1153,0.000,0.015
1154,0.000,0.005
1155,0.000,0.005
1156,0.000,0.000
1157,0.000,0.000
1158,0.000,0.000
1159,0.000,0.000
1160,0.000,0.000
1161,0.005,0.000
1162,0.005,0.000
1163,-0.035,0.045
1164,-0.175,0.175
1165,-0.415,0.415
1166,-0.640,0.655
1167,-0.670,0.655
1168,-0.455,0.335
1169,-0.180,0.025
1170,0.000,-0.075
1171,0.070,-0.080
1172,0.095,-0.065
1173,0.095,-0.055
1174,0.100,-0.060
1175,0.110,-0.065
1176,0.105,-0.060
1177,0.105,-0.055
1178,0.110,-0.060
1179,0.105,-0.060
1180,0.100,-0.060
1181,0.095,-0.055
1182,0.105,-0.060
1183,0.110,-0.055
1184,0.110,-0.055
1185,0.110,-0.060
1186,0.105,-0.055
1187,0.095,-0.055
1188,0.105,-0.055
1189,0.105,-0.060
1190,0.110,-0.065
1191,0.110,-0.065
1192,0.110,-0.065
1193,0.110,-0.075
1194,0.115,-0.075
1195,0.115,-0.085
1196,0.125,-0.090
1197,0.130,-0.115
1198,0.130,-0.120
1199,0.140,-0.145
1200,0.150,-0.160
1201,0.155,-0.180
1202,0.155,-0.195
1203,0.160,-0.210
1204,0.150,-0.220
1205,0.145,-0.225
1206,0.140,-0.225
1207,0.125,-0.215
1208,0.110,-0.200
1209,0.105,-0.185
1210,0.095,-0.160
1211,0.075,-0.135
1212,0.060,-0.115
1213,0.050,-0.090
1214,0.035,-0.065
1215,0.020,-0.035
1216,0.015,-0.015
1217,0.005,-0.005
1218,0.000,0.000
1219,0.000,0.010
1220,0.000,0.025
1221,-0.010,0.040
1222,-0.020,0.050
1223,-0.020,0.055
1224,-0.020,0.065
1225,-0.025,0.065
1226,-0.030,0.070
1227,-0.030,0.065
1228,-0.030,0.065
1229,-0.035,0.065
1230,-0.030,0.065
1231,-0.030,0.060
1232,-0.030,0.060
1233,-0.025,0.055
1234,-0.025,0.055
1235,-0.025,0.055
1236,-0.020,0.050
1237,-0.020,0.050
1238,-0.020,0.050
1239,-0.020,0.050
1240,-0.020,0.040
1241,-0.020,0.040
1242,-0.020,0.040
1243,-0.020,0.040
1244,-0.020,0.040
1245,-0.025,0.065
1246,-0.040,0.075
1247,-0.040,0.080
1248,-0.045,0.085
1249,-0.060,0.105
1250,-0.080,0.105
1251,-0.090,0.105
1252,-0.085,0.105
1253,-0.065,0.090
1254,-0.040,0.065
1255,-0.015,0.045
1256,0.000,0.020
1257,0.000,0.010
1258,0.000,0.005
1259,0.000,0.005
1260,0.000,0.000
1261,0.000,0.000
1262,0.000,0.005
1263,0.000,0.005
1264,0.000,0.000
1265,0.000,0.000
1266,-0.035,0.035
1267,-0.155,0.145
1268,-0.375,0.370
1269,-0.615,0.635
1270,-0.710,0.710
1271,-0.535,0.440
1272,-0.220,0.060
1273,-0.015,-0.070
1274,0.060,-0.090
1275,0.095,-0.065
1276,0.095,-0.060
1277,0.100,-0.050
1278,0.100,-0.060
1279,0.095,-0.060
1280,0.095,-0.065
1281,0.105,-0.060
1282,0.105,-0.060
1283,0.095,-0.055
1284,0.095,-0.060
1285,0.100,-0.055
1286,0.095,-0.055
1287,0.095,-0.055
1288,0.095,-0.055
1289,0.095,-0.055
1290,0.105,-0.055
1291,0.110,-0.060
1292,0.105,-0.060
1293,0.105,-0.060
1294,0.105,-0.065
1295,0.105,-0.065
1296,0.110,-0.070
1297,0.110,-0.080
1298,0.115,-0.085
1299,0.115,-0.095
1300,0.125,-0.110
1301,0.135,-0.125
1302,0.140,-0.140
1303,0.150,-0.160
1304,0.150,-0.175
1305,0.155,-0.195
1306,0.165,-0.215
1307,0.160,-0.225
1308,0.150,-0.230
1309,0.140,-0.230
1310,0.130,-0.225
1311,0.125,-0.210
1312,0.115,-0.195
1313,0.100,-0.175
1314,0.085,-0.150
1315,0.070,-0.125
1316,0.060,-0.100
1317,0.050,-0.075
1318,0.030,-0.050
1319,0.015,-0.020
1320,0.010,0.000
1321,0.000,0.000
1322,0.000,0.010
1323,0.000,0.020
1324,-0.005,0.035
1325,-0.010,0.040
1326,-0.015,0.050
1327,-0.020,0.055
1328,-0.025,0.065
1329,-0.025,0.065
1330,-0.030,0.065
1331,-0.035,0.065
1332,-0.030,0.065
1333,-0.035,0.065
1334,-0.030,0.065
1335,-0.030,0.060
1336,-0.030,0.055
1337,-0.030,0.055
1338,-0.025,0.055
1339,-0.020,0.050
1340,-0.025,0.050
1341,-0.030,0.050
1342,-0.020,0.040
1343,-0.020,0.040
1344,-0.020,0.040
1345,-0.020,0.040
1346,-0.020,0.035
1347,-0.020,0.035
1348,-0.020,0.050
1349,-0.030,0.065
1350,-0.030,0.075
1351,-0.040,0.075
1352,-0.055,0.090
1353,-0.075,0.105
1354,-0.090,0.100
1355,-0.090,0.090
1356,-0.070,0.090
1357,-0.055,0.080
1358,-0.025,0.055
1359,-0.010,0.025
1360,0.000,0.015
1361,0.000,0.005
1362,0.000,0.005
1363,0.000,0.000
1364,0.000,0.000
1365,0.000,0.000
1366,0.000,0.000
1367,0.000,0.000
1368,0.000,0.000
1369,0.000,0.005
1370,-0.065,0.065
1371,-0.240,0.235
1372,-0.505,0.500
1373,-0.705,0.725
1374,-0.670,0.625
1375,-0.380,0.235
1376,-0.110,-0.015
1377,0.025,-0.085
1378,0.090,-0.080
1379,0.105,-0.060
1380,0.105,-0.055
1381,0.105,-0.055
1382,0.110,-0.060
1383,0.110,-0.060
1384,0.110,-0.060
1385,0.105,-0.065
1386,0.105,-0.065
1387,0.105,-0.060
1388,0.105,-0.060
1389,0.100,-0.065
1390,0.105,-0.060
1391,0.110,-0.060
1392,0.105,-0.055
1393,0.105,-0.055
1394,0.105,-0.060
1395,0.100,-0.060
1396,0.100,-0.065
1397,0.110,-0.065
1398,0.110,-0.075
1399,0.110,-0.075
1400,0.110,-0.075
1401,0.115,-0.075
1402,0.115,-0.095
1403,0.125,-0.100
1404,0.135,-0.120
1405,0.140,-0.130
1406,0.145,-0.155
1407,0.150,-0.165
1408,0.150,-0.190
1409,0.150,-0.195
1410,0.150,-0.215
1411,0.150,-0.220
1412,0.145,-0.225
1413,0.130,-0.225
1414,0.130,-0.220
1415,0.115,-0.205
1416,0.095,-0.185
1417,0.080,-0.165
1418,0.065,-0.140
1419,0.055,-0.115
1420,0.050,-0.085
1421,0.030,-0.060
1422,0.015,-0.030
1423,0.005,-0.015
1424,0.000,0.000
1425,0.000,0.000
1426,-0.005,0.010
1427,-0.010,0.025
1428,-0.015,0.040
1429,-0.025,0.050
1430,-0.030,0.055
1431,-0.035,0.065
1432,-0.045,0.065
1433,-0.050,0.070
1434,-0.050,0.070
1435,-0.050,0.070
1436,-0.045,0.065
1437,-0.040,0.065
1438,-0.035,0.065
1439,-0.035,0.060
1440,-0.040,0.060
1441,-0.035,0.055
1442,-0.030,0.050
1443,-0.030,0.050
1444,-0.025,0.045
1445,-0.025,0.045
1446,-0.025,0.040
1447,-0.025,0.040
1448,-0.025,0.040
1449,-0.025,0.040
1450,-0.025,0.040
1451,-0.025,0.050
1452,-0.040,0.070
1453,-0.040,0.075
1454,-0.040,0.080
1455,-0.065,0.085
1456,-0.095,0.110
1457,-0.100,0.100
1458,-0.095,0.100
1459,-0.085,0.095
1460,-0.055,0.080
1461,-0.030,0.045
1462,-0.015,0.025
1463,-0.010,0.010
1464,0.000,0.010
1465,0.000,0.005
1466,0.000,0.005
1467,0.000,0.000
1468,0.000,0.000
1469,0.000,0.000
1470,0.000,0.000
1471,0.000,0.000
1472,-0.015,0.015
1473,-0.085,0.085
1474,-0.270,0.260
1475,-0.530,0.520
1476,-0.710,0.710
1477,-0.655,0.605
1478,-0.380,0.240
1479,-0.105,-0.025
1480,0.030,-0.085
1481,0.085,-0.085
1482,0.100,-0.065
1483,0.095,-0.060
1484,0.095,-0.055
1485,0.095,-0.065
1486,0.090,-0.060
1487,0.090,-0.055
1488,0.100,-0.050
1489,0.100,-0.055
1490,0.105,-0.055
1491,0.100,-0.055
1492,0.095,-0.055
1493,0.095,-0.060
1494,0.095,-0.055
1495,0.090,-0.055
1496,0.090,-0.050
1497,0.090,-0.055
1498,0.095,-0.055
1499,0.095,-0.055
1500,0.090,-0.060
1501,0.090,-0.065
1502,0.095,-0.070
1503,0.105,-0.070
1504,0.110,-0.080
1505,0.110,-0.085
1506,0.110,-0.095
1507,0.120,-0.110
1508,0.125,-0.130
1509,0.130,-0.150
1510,0.135,-0.160
1511,0.140,-0.175
1512,0.135,-0.195
1513,0.130,-0.210
1514,0.130,-0.225
1515,0.130,-0.235
1516,0.120,-0.230
1517,0.105,-0.215
1518,0.095,-0.200
1519,0.080,-0.180
1520,0.060,-0.160
1521,0.045,-0.135
1522,0.035,-0.105
1523,0.020,-0.075
1524,0.015,-0.045
1525,0.000,-0.025
1526,0.000,-0.010
1527,-0.005,0.000
1528,-0.025,0.000
1529,-0.030,0.025
1530,-0.030,0.035
1531,-0.045,0.050
1532,-0.050,0.055
1533,-0.050,0.065
1534,-0.065,0.065
1535,-0.065,0.075
1536,-0.065,0.075
1537,-0.065,0.075
1538,-0.065,0.075
1539,-0.065,0.075
1540,-0.065,0.070
1541,-0.065,0.070
1542,-0.060,0.065
1543,-0.060,0.065
1544,-0.065,0.065
1545,-0.055,0.055
1546,-0.050,0.055
1547,-0.050,0.055
1548,-0.050,0.055
1549,-0.050,0.055
1550,-0.055,0.050
1551,-0.050,0.050
1552,-0.050,0.050
1553,-0.050,0.050
1554,-0.050,0.050
1555,-0.060,0.060
1556,-0.070,0.075
1557,-0.075,0.085
1558,-0.080,0.095
1559,-0.105,0.110
1560,-0.125,0.105
1561,-0.130,0.105
1562,-0.120,0.105
1563,-0.100,0.100
1564,-0.075,0.075
1565,-0.055,0.050
1566,-0.040,0.025
1567,-0.030,0.015
1568,-0.030,0.010
1569,-0.030,0.010
1570,-0.025,0.010
1571,-0.020,0.010
1572,-0.030,0.010
1573,-0.025,0.010
1574,-0.015,0.005
1575,-0.015,0.000
1576,-0.070,0.040
1577,-0.175,0.140
1578,-0.425,0.380
1579,-0.675,0.655
1580,-0.755,0.730
1581,-0.535,0.385
1582,-0.225,0.035
1583,-0.035,-0.070
1584,0.030,-0.075
1585,0.050,-0.055
1586,0.055,-0.040
1587,0.055,-0.050
1588,0.055,-0.045
1589,0.060,-0.045
1590,0.060,-0.045
1591,0.055,-0.045
1592,0.055,-0.045
1593,0.060,-0.045
1594,0.060,-0.045
1595,0.055,-0.045
1596,0.055,-0.045
1597,0.055,-0.045
1598,0.055,-0.045
1599,0.060,-0.045
1600,0.060,-0.045
1601,0.055,-0.045
1602,0.055,-0.045
1603,0.065,-0.045
1604,0.060,-0.045
1605,0.060,-0.050
1606,0.075,-0.055
1607,0.075,-0.065
1608,0.075,-0.065
1609,0.075,-0.080
1610,0.085,-0.090
1611,0.090,-0.110
1612,0.110,-0.125
1613,0.110,-0.150
1614,0.110,-0.160
1615,0.110,-0.180
1616,0.110,-0.190
1617,0.105,-0.210
1618,0.095,-0.210
1619,0.090,-0.215
1620,0.075,-0.205
1621,0.065,-0.195
1622,0.065,-0.175
1623,0.050,-0.155
1624,0.030,-0.130
1625,0.020,-0.100
1626,0.005,-0.075
1627,0.000,-0.045
1628,-0.005,-0.025
1629,-0.015,0.000
1630,-0.020,0.000
1631,-0.025,0.010
1632,-0.045,0.020
1633,-0.050,0.040
1634,-0.050,0.050
1635,-0.050,0.060
1636,-0.060,0.065
1637,-0.070,0.070
1638,-0.070,0.080
1639,-0.070,0.080
1640,-0.070,0.080
1641,-0.070,0.080
1642,-0.070,0.080
1643,-0.075,0.080
1644,-0.075,0.075
1645,-0.070,0.075
1646,-0.065,0.070
1647,-0.060,0.065
1648,-0.055,0.060
1649,-0.055,0.055
1650,-0.050,0.055
1651,-0.050,0.055
1652,-0.050,0.055
1653,-0.050,0.055
1654,-0.050,0.055
1655,-0.050,0.050
1656,-0.045,0.050
1657,-0.040,0.045
1658,-0.040,0.045
1659,-0.045,0.055
1660,-0.050,0.070
1661,-0.050,0.085
1662,-0.050,0.085
1663,-0.065,0.095
1664,-0.095,0.110
1665,-0.100,0.105
1666,-0.095,0.105
1667,-0.080,0.105
1668,-0.065,0.085
1669,-0.040,0.065
1670,-0.020,0.030
1671,-0.010,0.015
1672,-0.010,0.010
1673,0.000,0.010
1674,0.000,0.010
1675,0.000,0.005
1676,0.000,0.005
1677,0.000,0.005
1678,0.000,0.005
1679,0.000,0.000
1680,-0.015,0.015
1681,-0.085,0.080
1682,-0.265,0.255
1683,-0.505,0.505
1684,-0.655,0.660
1685,-0.585,0.510
1686,-0.330,0.175
1687,-0.095,-0.030
1688,0.020,-0.070
1689,0.065,-0.065
1690,0.080,-0.060
1691,0.090,-0.055
1692,0.095,-0.060
1693,0.100,-0.055
1694,0.105,-0.055
1695,0.105,-0.050
1696,0.105,-0.060
1697,0.105,-0.055
1698,0.110,-0.055
1699,0.110,-0.055
1700,0.110,-0.055
1701,0.110,-0.060
1702,0.110,-0.060
1703,0.105,-0.060
1704,0.100,-0.065
1705,0.100,-0.065
1706,0.110,-0.065
1707,0.110,-0.065
1708,0.110,-0.065
1709,0.110,-0.065
1710,0.110,-0.070
1711,0.115,-0.070
1712,0.125,-0.075
1713,0.130,-0.090
1714,0.130,-0.095
1715,0.145,-0.115
1716,0.150,-0.125
1717,0.160,-0.145
1718,0.165,-0.165
1719,0.165,-0.180
1720,0.165,-0.195
1721,0.155,-0.210
1722,0.145,-0.220
1723,0.140,-0.220
1724,0.130,-0.220
1725,0.120,-0.210
1726,0.110,-0.195
1727,0.105,-0.175
1728,0.090,-0.155
1729,0.075,-0.130
1730,0.060,-0.105
1731,0.050,-0.075
1732,0.040,-0.050
1733,0.025,-0.030
1734,0.015,-0.005
1735,0.005,0.000
1736,0.000,0.000
1737,0.000,0.015
1738,0.000,0.030
1739,0.000,0.030
1740,-0.010,0.050
1741,-0.015,0.055
1742,-0.015,0.060
1743,-0.015,0.050
1744,-0.015,0.045
1745,0.000,0.000
1746,0.045,-0.085
1747,0.105,-0.240
1748,0.145,-0.350
1749,0.165,-0.400
1750,0.165,-0.400
1751,0.230,-0.490
1752,0.315,-0.625
1753,0.350,-0.685
1754,0.335,-0.645
1755,0.300,-0.520
1756,0.245,-0.340
1757,0.240,-0.180
1758,0.240,-0.095
1759,0.235,-0.030
1760,0.200,0.000
1761,0.130,0.045
1762,0.050,0.105
1763,-0.020,0.165
1764,-0.090,0.215
1765,-0.135,0.260
1766,-0.155,0.280
1767,-0.170,0.290
1768,-0.185,0.300
1769,-0.200,0.320
1770,-0.225,0.325
1771,-0.235,0.325
1772,-0.230,0.335
1773,-0.210,0.330
1774,-0.195,0.320
1775,-0.180,0.305
1776,-0.170,0.290
1777,-0.165,0.285
1778,-0.170,0.290
1779,-0.180,0.305
1780,-0.190,0.310
1781,-0.195,0.325
1782,-0.205,0.340
1783,-0.215,0.350
1784,-0.235,0.355
1785,-0.245,0.360
1786,-0.250,0.365
1787,-0.250,0.365
1788,-0.245,0.345
1789,-0.240,0.335
1790,-0.210,0.310
1791,-0.190,0.290
1792,-0.170,0.260
1793,-0.135,0.230
1794,-0.105,0.190
1795,-0.070,0.155
1796,-0.045,0.120
1797,-0.015,0.095
1798,0.000,0.065
1799,0.000,0.040
1800,0.000,0.020
1801,0.015,0.010
1802,0.020,0.000
1803,0.020,0.000
1804,0.025,0.000
1805,0.025,-0.005
1806,0.025,-0.010
1807,0.030,-0.015
1808,0.035,-0.020
1809,0.035,-0.020
1810,0.035,-0.020
1811,0.030,-0.025
1812,0.025,-0.020
1813,0.025,-0.025
1814,0.030,-0.025
1815,0.035,-0.025
1816,0.030,-0.025
1817,0.030,-0.025
1818,0.025,-0.025
1819,0.020,-0.020
1820,0.020,-0.030
1821,0.020,-0.030
1822,0.020,-0.025
1823,0.020,-0.020
1824,0.020,-0.025
1825,0.020,-0.025
1826,0.020,-0.025
1827,0.020,-0.020
1828,0.020,-0.025
1829,0.015,-0.025
1830,0.015,-0.020
1831,0.015,-0.020
1832,0.015,-0.025
1833,0.015,-0.020
1834,0.015,-0.020
1835,0.015,-0.020
1836,0.015,-0.020
1837,0.015,-0.020
1838,0.015,-0.020
1839,0.015,-0.020
1840,0.020,-0.020
1841,0.010,-0.020
1842,0.015,-0.010
1843,0.010,-0.015
1844,0.010,-0.010
1845,0.010,-0.015
1846,0.010,-0.015
1847,0.010,-0.015
1848,0.015,-0.015
1849,0.015,-0.015
1850,0.010,-0.010
1851,0.010,-0.010
1852,0.010,-0.010
1853,0.010,-0.015
1854,0.010,-0.010
1855,0.010,-0.010
1856,0.010,-0.010
1857,0.010,-0.010
1858,0.005,-0.010
1859,0.000,-0.010
1860,0.010,-0.010
1861,0.010,-0.010
1862,0.010,-0.010
1863,0.005,-0.010
1864,0.005,-0.010
1865,0.005,-0.010
1866,0.010,-0.010
1867,0.010,-0.005
1868,0.005,0.000
1869,0.005,-0.005
1870,0.005,0.000
1871,0.000,0.000
1872,0.000,0.010
1873,0.000,0.020
1874,0.000,0.025
1875,-0.020,0.035
1876,-0.050,0.050
1877,-0.050,0.040
1878,-0.050,0.040
1879,-0.050,0.045
1880,-0.015,0.030
1881,0.000,0.005
1882,0.010,0.000
1883,0.015,-0.010
1884,0.020,-0.015
1885,0.020,-0.020
1886,0.020,-0.020
1887,0.020,-0.015
1888,0.020,-0.015
1889,0.020,-0.015
1890,0.025,-0.020
1891,0.025,-0.015
1892,-0.010,0.015
1893,-0.150,0.145
1894,-0.390,0.380
1895,-0.610,0.620
1896,-0.650,0.625
1897,-0.435,0.315
1898,-0.150,0.000
1899,0.020,-0.115
1900,0.100,-0.120
1901,0.120,-0.105
1902,0.120,-0.095
1903,0.125,-0.100
1904,0.130,-0.100
1905,0.130,-0.095
1906,0.130,-0.095
1907,0.130,-0.095
1908,0.130,-0.095
1909,0.130,-0.090
1910,0.130,-0.090
1911,0.130,-0.090
1912,0.130,-0.090
1913,0.125,-0.085
1914,0.125,-0.090
1915,0.125,-0.085
1916,0.120,-0.085
1917,0.120,-0.085
1918,0.125,-0.085
1919,0.120,-0.085
1920,0.120,-0.090
1921,0.125,-0.085
1922,0.120,-0.090
1923,0.125,-0.085
1924,0.130,-0.100
1925,0.130,-0.105
1926,0.130,-0.115
1927,0.135,-0.120
1928,0.145,-0.135
1929,0.155,-0.155
1930,0.160,-0.165
1931,0.165,-0.180
1932,0.165,-0.200
1933,0.160,-0.215
1934,0.150,-0.225
1935,0.140,-0.230
1936,0.135,-0.235
1937,0.130,-0.235
1938,0.120,-0.220
1939,0.110,-0.210
1940,0.105,-0.195
1941,0.095,-0.180
1942,0.080,-0.165
1943,0.070,-0.145
1944,0.065,-0.120
1945,0.055,-0.095
1946,0.050,-0.075
1947,0.040,-0.050
1948,0.020,-0.030
1949,0.015,-0.010
1950,0.005,0.000
1951,0.000,0.005
1952,0.000,0.020
1953,0.000,0.035
1954,-0.015,0.045
1955,-0.020,0.060
1956,-0.025,0.065
1957,-0.030,0.065
1958,-0.030,0.065
1959,-0.025,0.070
1960,-0.025,0.065
1961,-0.020,0.065
1962,-0.020,0.065
1963,-0.020,0.065
1964,-0.020,0.060
1965,-0.020,0.055
1966,-0.020,0.055
1967,-0.020,0.050
1968,-0.020,0.045
1969,-0.020,0.035
1970,-0.015,0.035
1971,-0.015,0.030
1972,-0.020,0.035
1973,-0.020,0.040
1974,-0.020,0.055
1975,-0.025,0.070
1976,-0.030,0.075
1977,-0.035,0.075
1978,-0.055,0.095
1979,-0.070,0.105
1980,-0.085,0.095
1981,-0.080,0.095
1982,-0.070,0.090
1983,-0.050,0.070
1984,-0.020,0.045
1985,-0.005,0.020
1986,0.000,0.005
1987,0.000,0.005
1988,0.000,0.000
1989,0.000,0.000
1990,0.000,0.000
1991,0.000,0.000
1992,0.000,0.000
1993,0.000,0.000
1994,0.000,0.000
1995,-0.005,0.010
1996,-0.075,0.075
1997,-0.240,0.230
1998,-0.510,0.505
1999,-0.705,0.720
2000,-0.665,0.635
2001,-0.355,0.220
2002,-0.075,-0.045
2003,0.040,-0.095
2004,0.105,-0.080
2005,0.105,-0.065
2006,0.105,-0.055
2007,0.105,-0.060
2008,0.110,-0.065
2009,0.110,-0.065
2010,0.110,-0.065
2011,0.110,-0.065
2012,0.110,-0.065
2013,0.110,-0.055
2014,0.105,-0.060
2015,0.105,-0.065
2016,0.110,-0.065
2017,0.105,-0.055
2018,0.095,-0.055
2019,0.100,-0.055
2020,0.105,-0.060
2021,0.110,-0.065
2022,0.110,-0.065
2023,0.110,-0.065
2024,0.110,-0.065
2025,0.110,-0.070
2026,0.110,-0.075
2027,0.110,-0.080
2028,0.120,-0.085
2029,0.120,-0.100
2030,0.130,-0.115
2031,0.140,-0.135
2032,0.150,-0.150
2033,0.155,-0.170
2034,0.155,-0.185
2035,0.165,-0.205
2036,0.155,-0.220
2037,0.145,-0.230
2038,0.145,-0.240
2039,0.140,-0.235
2040,0.130,-0.230
2041,0.120,-0.215
2042,0.105,-0.190
2043,0.085,-0.165
2044,0.075,-0.150
2045,0.065,-0.120
2046,0.050,-0.095
2047,0.040,-0.060
2048,0.025,-0.045
2049,0.010,-0.015
2050,0.000,0.000
2051,0.000,0.000
2052,0.000,0.010
2053,-0.015,0.030
2054,-0.020,0.035
2055,-0.020,0.045
2056,-0.030,0.050
2057,-0.040,0.060
2058,-0.045,0.065
2059,-0.045,0.065
2060,-0.045,0.065
2061,-0.045,0.065
2062,-0.050,0.065
2063,-0.050,0.065
2064,-0.050,0.060
2065,-0.045,0.055
2066,-0.045,0.055
2067,-0.040,0.055
2068,-0.040,0.055
2069,-0.040,0.055
2070,-0.040,0.055
2071,-0.035,0.050
2072,-0.030,0.045
2073,-0.035,0.045
2074,-0.030,0.040
2075,-0.030,0.040
2076,-0.040,0.055
2077,-0.045,0.075
2078,-0.050,0.085
2079,-0.055,0.085
2080,-0.065,0.100
2081,-0.085,0.110
2082,-0.105,0.105
2083,-0.100,0.105
2084,-0.085,0.100
2085,-0.055,0.080
2086,-0.020,0.055
2087,-0.010,0.020
2088,0.000,0.010
2089,0.000,0.005
2090,0.000,0.005
2091,0.000,0.005
2092,0.000,0.005
2093,0.000,0.000
2094,0.000,0.000
2095,0.000,0.000
2096,0.000,0.000
2097,-0.010,0.010
2098,-0.085,0.080
2099,-0.275,0.260
2100,-0.540,0.540
2101,-0.725,0.735
2102,-0.640,0.590
2103,-0.350,0.205
2104,-0.095,-0.030
2105,0.035,-0.090
2106,0.095,-0.080
2107,0.095,-0.060
2108,0.095,-0.060
2109,0.105,-0.065
2110,0.110,-0.055
2111,0.110,-0.060
2112,0.110,-0.060
2113,0.105,-0.055
2114,0.105,-0.055
2115,0.105,-0.055
2116,0.105,-0.055
2117,0.105,-0.060
2118,0.105,-0.055
2119,0.100,-0.060
2120,0.100,-0.055
2121,0.100,-0.055
2122,0.100,-0.055
2123,0.095,-0.060
2124,0.095,-0.055
2125,0.095,-0.060
2126,0.105,-0.060
2127,0.110,-0.065
2128,0.110,-0.065
2129,0.110,-0.080
2130,0.110,-0.080
2131,0.120,-0.095
2132,0.125,-0.105
2133,0.130,-0.130
2134,0.140,-0.140
2135,0.140,-0.160
2136,0.140,-0.180
2137,0.130,-0.195
2138,0.130,-0.210
2139,0.130,-0.225
2140,0.130,-0.230
2141,0.125,-0.225
2142,0.110,-0.220
2143,0.105,-0.205
2144,0.090,-0.190
2145,0.075,-0.160
2146,0.060,-0.140
2147,0.035,-0.110
2148,0.025,-0.085
2149,0.015,-0.060
2150,0.005,-0.035
2151,0.000,-0.010
2152,-0.005,0.000
2153,-0.015,0.005
2154,-0.025,0.020
2155,-0.035,0.035
2156,-0.040,0.050
2157,-0.050,0.060
2158,-0.055,0.065
2159,-0.055,0.065
2160,-0.055,0.075
2161,-0.065,0.075
2162,-0.070,0.075
2163,-0.070,0.075
2164,-0.065,0.070
2165,-0.065,0.070
2166,-0.065,0.065
2167,-0.065,0.065
2168,-0.065,0.065
2169,-0.065,0.060
2170,-0.065,0.060
2171,-0.065,0.055
2172,-0.060,0.055
2173,-0.055,0.050
2174,-0.050,0.050
2175,-0.050,0.055
2176,-0.050,0.055
2177,-0.050,0.065
2178,-0.065,0.080
2179,-0.065,0.085
2180,-0.070,0.085
2181,-0.090,0.105
2182,-0.105,0.110
2183,-0.120,0.110
2184,-0.120,0.110
2185,-0.105,0.110
2186,-0.085,0.090
2187,-0.055,0.060
2188,-0.035,0.035
2189,-0.030,0.020
2190,-0.025,0.015
2191,-0.020,0.010
2192,-0.020,0.010
2193,-0.025,0.010
2194,-0.020,0.010
2195,-0.020,0.010
2196,-0.020,0.005
2197,-0.015,0.000
2198,-0.035,0.020
2199,-0.120,0.095
2200,-0.300,0.275
2201,-0.545,0.535
2202,-0.710,0.705
2203,-0.645,0.570
2204,-0.370,0.200
2205,-0.110,-0.030
2206,0.010,-0.080
2207,0.050,-0.065
2208,0.060,-0.050
2209,0.060,-0.045
2210,0.060,-0.050
2211,0.065,-0.050
2212,0.065,-0.045
2213,0.060,-0.045
2214,0.060,-0.050
2215,0.060,-0.050
2216,0.060,-0.050
2217,0.060,-0.050
2218,0.065,-0.050
2219,0.065,-0.050
2220,0.065,-0.045
2221,0.065,-0.045
2222,0.065,-0.045
2223,0.065,-0.050
2224,0.065,-0.050
2225,0.065,-0.050
2226,0.065,-0.050
2227,0.065,-0.050
2228,0.070,-0.050
2229,0.075,-0.060
2230,0.075,-0.060
2231,0.075,-0.070
2232,0.080,-0.080
2233,0.090,-0.100
2234,0.105,-0.115
2235,0.110,-0.130
2236,0.110,-0.150
2237,0.115,-0.170
2238,0.110,-0.185
2239,0.110,-0.200
2240,0.110,-0.210
2241,0.100,-0.215
2242,0.090,-0.215
2243,0.085,-0.205
2244,0.065,-0.190
2245,0.050,-0.170
2246,0.040,-0.145
2247,0.025,-0.120
2248,0.015,-0.095
2249,0.000,-0.065
2250,0.000,-0.035
2251,-0.005,-0.015
2252,-0.020,0.000
2253,-0.030,0.000
2254,-0.035,0.020
2255,-0.045,0.035
2256,-0.050,0.050
2257,-0.050,0.060
2258,-0.055,0.065
2259,-0.065,0.075
2260,-0.070,0.080
2261,-0.075,0.085
2262,-0.075,0.085
2263,-0.075,0.080
2264,-0.075,0.080
2265,-0.075,0.085
2266,-0.075,0.085
2267,-0.075,0.080
2268,-0.075,0.075
2269,-0.075,0.070
2270,-0.075,0.065
2271,-0.070,0.065
2272,-0.065,0.060
2273,-0.065,0.060
2274,-0.065,0.055
2275,-0.065,0.055
2276,-0.055,0.055
2277,-0.050,0.055
2278,-0.050,0.060
2279,-0.065,0.075
2280,-0.075,0.085
2281,-0.075,0.090
2282,-0.075,0.100
2283,-0.090,0.105
2284,-0.105,0.105
2285,-0.105,0.100
2286,-0.105,0.105
2287,-0.090,0.095
2288,-0.060,0.075
2289,-0.040,0.045
2290,-0.020,0.025
2291,-0.020,0.015
2292,-0.020,0.015
2293,-0.015,0.010
2294,-0.015,0.010
2295,-0.010,0.005
2296,0.000,0.005
2297,0.000,0.005
2298,0.000,0.000
2299,0.000,0.000
2300,-0.035,0.030
2301,-0.145,0.135
2302,-0.385,0.360
2303,-0.620,0.625
2304,-0.700,0.685
2305,-0.490,0.350
2306,-0.195,0.020
2307,-0.020,-0.060
2308,0.045,-0.070
2309,0.070,-0.055
2310,0.075,-0.050
2311,0.075,-0.050
2312,0.080,-0.050
2313,0.090,-0.050
2314,0.095,-0.050
2315,0.095,-0.050
2316,0.095,-0.055
2317,0.095,-0.055
2318,0.095,-0.050
2319,0.095,-0.050
2320,0.100,-0.050
2321,0.100,-0.055
2322,0.105,-0.055
2323,0.105,-0.055
2324,0.105,-0.050
2325,0.110,-0.055
2326,0.110,-0.060
2327,0.110,-0.060
2328,0.110,-0.065
2329,0.110,-0.065
2330,0.110,-0.065
2331,0.115,-0.070
2332,0.120,-0.080
2333,0.130,-0.090
2334,0.135,-0.105
2335,0.145,-0.115
2336,0.145,-0.135
2337,0.150,-0.150
2338,0.150,-0.165
2339,0.160,-0.180
2340,0.160,-0.195
2341,0.150,-0.210
2342,0.140,-0.220
2343,0.135,-0.215
2344,0.125,-0.210
2345,0.110,-0.195
2346,0.105,-0.180
2347,0.100,-0.165
2348,0.080,-0.140
2349,0.075,-0.115
2350,0.055,-0.085
2351,0.040,-0.065
2352,0.025,-0.030
2353,0.020,-0.015
2354,0.015,0.000
2355,0.000,0.000
2356,0.000,0.020
2357,0.000,0.030
2358,0.000,0.040
2359,-0.015,0.050
2360,-0.010,0.060
2361,-0.010,0.060
2362,-0.015,0.060
2363,-0.020,0.065
2364,-0.020,0.065
2365,-0.020,0.065
2366,-0.020,0.065
2367,-0.020,0.060
2368,-0.020,0.060
2369,-0.020,0.055
2370,-0.020,0.055
2371,-0.020,0.055
2372,-0.020,0.055
2373,-0.020,0.050
2374,-0.020,0.045
2375,-0.015,0.045
2376,-0.015,0.045
2377,-0.015,0.040
2378,-0.015,0.040
2379,-0.015,0.040
2380,-0.010,0.040
2381,-0.010,0.045
2382,-0.020,0.070
2383,-0.020,0.080
2384,-0.020,0.085
2385,-0.045,0.090
2386,-0.070,0.105
2387,-0.075,0.095
2388,-0.070,0.105
2389,-0.065,0.090
2390,-0.045,0.085
2391,-0.020,0.055
2392,-0.005,0.025
2393,0.000,0.010
2394,0.000,0.010
2395,0.000,0.010
2396,0.000,0.005
2397,0.000,0.005
2398,0.000,0.005
2399,0.000,0.005
2400,0.000,0.000
2401,0.005,0.000
2402,0.000,0.015
2403,-0.065,0.080
2404,-0.250,0.250
2405,-0.495,0.515
2406,-0.670,0.695
2407,-0.605,0.555
2408,-0.335,0.200
2409,-0.085,-0.030
2410,0.035,-0.085
2411,0.090,-0.070
2412,0.105,-0.055
2413,0.100,-0.050
2414,0.100,-0.050
2415,0.110,-0.055
2416,0.110,-0.055
2417,0.110,-0.055
2418,0.110,-0.050
2419,0.110,-0.050
2420,0.110,-0.050
2421,0.110,-0.050
2422,0.110,-0.050
2423,0.110,-0.055
2424,0.110,-0.055
2425,0.110,-0.055
2426,0.110,-0.055
2427,0.110,-0.055
2428,0.110,-0.060
2429,0.110,-0.060
2430,0.110,-0.065
2431,0.110,-0.065
2432,0.110,-0.065
2433,0.115,-0.065
2434,0.110,-0.070
2435,0.120,-0.075
2436,0.125,-0.090
2437,0.130,-0.105
2438,0.135,-0.130
2439,0.145,-0.145
2440,0.150,-0.160
2441,0.150,-0.175
2442,0.160,-0.195
2443,0.165,-0.210
2444,0.150,-0.220
2445,0.145,-0.225
2446,0.140,-0.225
2447,0.130,-0.220
2448,0.120,-0.205
2449,0.110,-0.185
2450,0.095,-0.165
2451,0.075,-0.140
2452,0.060,-0.110
2453,0.045,-0.085
2454,0.035,-0.060
2455,0.020,-0.035
2456,0.005,-0.010
2457,0.000,0.000
2458,0.000,0.005
2459,0.000,0.015
2460,-0.010,0.030
2461,-0.020,0.040
2462,-0.020,0.045
2463,-0.020,0.060
2464,-0.025,0.065
2465,-0.035,0.070
2466,-0.030,0.065
2467,-0.035,0.070
2468,-0.030,0.065
2469,-0.025,0.065
2470,-0.020,0.065
2471,-0.020,0.060
2472,-0.020,0.060
2473,-0.020,0.055
2474,-0.020,0.050
2475,-0.020,0.050
2476,-0.020,0.050
2477,-0.020,0.045
2478,-0.020,0.045
2479,-0.020,0.040
2480,-0.020,0.040
2481,-0.020,0.040
2482,-0.020,0.040
2483,-0.020,0.040
2484,-0.020,0.055
2485,-0.035,0.075
2486,-0.035,0.080
2487,-0.045,0.085
2488,-0.060,0.100
2489,-0.085,0.105
2490,-0.100,0.105
2491,-0.085,0.105
2492,-0.065,0.090
2493,-0.040,0.070
2494,-0.015,0.045
2495,-0.005,0.020
2496,0.000,0.010
2497,0.000,0.005
2498,0.000,0.005
2499,0.000,0.005
2500,0.000,0.005
2501,0.000,0.005
2502,0.000,0.005
2503,0.000,0.000
2504,0.005,0.000
2505,-0.020,0.025
2506,-0.115,0.120
2507,-0.320,0.320
2508,-0.580,0.590
2509,-0.710,0.720
2510,-0.580,0.510
2511,-0.255,0.095
2512,-0.030,-0.065
2513,0.060,-0.090
2514,0.100,-0.065
2515,0.095,-0.060
2516,0.095,-0.055
2517,0.110,-0.055
2518,0.110,-0.055
2519,0.110,-0.055
2520,0.100,-0.055
2521,0.095,-0.055
2522,0.100,-0.055
2523,0.105,-0.055
2524,0.110,-0.055
2525,0.110,-0.055
2526,0.095,-0.055
2527,0.095,-0.050
2528,0.100,-0.055
2529,0.105,-0.050
2530,0.105,-0.055
2531,0.110,-0.060
2532,0.105,-0.065
2533,0.105,-0.055
2534,0.105,-0.060
2535,0.110,-0.065
2536,0.110,-0.070
2537,0.110,-0.075
2538,0.115,-0.085
2539,0.120,-0.095
2540,0.125,-0.115
2541,0.135,-0.135
2542,0.145,-0.150
2543,0.150,-0.165
2544,0.150,-0.180
2545,0.150,-0.200
2546,0.145,-0.210
2547,0.135,-0.225
2548,0.135,-0.225
2549,0.130,-0.220
2550,0.120,-0.215
2551,0.110,-0.200
2552,0.100,-0.180
2553,0.075,-0.160
2554,0.065,-0.130
2555,0.055,-0.105
2556,0.045,-0.080
2557,0.020,-0.050
2558,0.010,-0.030
2559,0.005,-0.005
2560,0.000,0.000
2561,0.000,0.010
2562,-0.005,0.020
2563,-0.010,0.035
2564,-0.020,0.040
2565,-0.025,0.055
2566,-0.035,0.060
2567,-0.040,0.065
2568,-0.045,0.070
2569,-0.040,0.070
2570,-0.040,0.070
2571,-0.045,0.070
2572,-0.050,0.065
2573,-0.050,0.065
2574,-0.050,0.055
2575,-0.040,0.055
2576,-0.040,0.060
2577,-0.040,0.055
2578,-0.035,0.055
2579,-0.035,0.050
2580,-0.030,0.050
2581,-0.035,0.045
2582,-0.040,0.040
2583,-0.035,0.040
2584,-0.030,0.040
2585,-0.030,0.040
2586,-0.025,0.040
2587,-0.025,0.055
2588,-0.035,0.075
2589,-0.045,0.085
2590,-0.050,0.080
2591,-0.065,0.095
2592,-0.085,0.105
2593,-0.100,0.100
2594,-0.095,0.100
2595,-0.075,0.100
2596,-0.050,0.075
2597,-0.020,0.055
2598,-0.005,0.020
2599,0.000,0.010
2600,0.000,0.010
2601,0.000,0.005
2602,0.000,0.000
2603,0.000,0.000
2604,0.000,0.000
2605,0.000,0.000
2606,0.000,0.000
2607,0.000,0.000
2608,-0.015,0.015
2609,-0.100,0.090
2610,-0.295,0.285
2611,-0.560,0.565
2612,-0.720,0.740
2613,-0.620,0.550
2614,-0.315,0.165
2615,-0.075,-0.040
2616,0.045,-0.090
2617,0.095,-0.080
2618,0.100,-0.060
2619,0.095,-0.055
2620,0.095,-0.055
2621,0.095,-0.060
2622,0.105,-0.055
2623,0.110,-0.055
2624,0.105,-0.060
2625,0.100,-0.055
2626,0.095,-0.055
2627,0.095,-0.060
2628,0.100,-0.060
2629,0.100,-0.055
2630,0.100,-0.055
2631,0.095,-0.055
2632,0.095,-0.055
2633,0.095,-0.060
2634,0.095,-0.050
2635,0.105,-0.065
2636,0.100,-0.065
2637,0.095,-0.065
2638,0.100,-0.065
2639,0.100,-0.075
2640,0.110,-0.075
2641,0.110,-0.090
2642,0.120,-0.095
2643,0.130,-0.110
2644,0.130,-0.125
2645,0.140,-0.155
2646,0.145,-0.160
2647,0.150,-0.185
2648,0.140,-0.200
2649,0.140,-0.215
2650,0.140,-0.220
2651,0.130,-0.230
2652,0.125,-0.230
2653,0.115,-0.220
2654,0.105,-0.200
2655,0.090,-0.180
2656,0.075,-0.165
2657,0.065,-0.140
2658,0.055,-0.115
2659,0.040,-0.085
2660,0.030,-0.055
2661,0.015,-0.030
2662,0.005,-0.010
2663,0.000,0.000
2664,-0.005,0.005
2665,-0.010,0.020
2666,-0.015,0.030
2667,-0.020,0.040
2668,-0.030,0.050
2669,-0.030,0.055
2670,-0.040,0.065
2671,-0.050,0.065
2672,-0.050,0.070
2673,-0.050,0.070
2674,-0.050,0.070
2675,-0.050,0.065
2676,-0.050,0.060
2677,-0.050,0.060
2678,-0.050,0.060
2679,-0.045,0.055
2680,-0.040,0.050
2681,-0.040,0.050
2682,-0.040,0.050
2683,-0.040,0.045
2684,-0.035,0.040
2685,-0.025,0.040
2686,-0.040,0.040
2687,-0.040,0.040
2688,-0.040,0.040
2689,-0.040,0.055
2690,-0.045,0.065
2691,-0.050,0.080
2692,-0.060,0.080
2693,-0.070,0.105
2694,-0.095,0.110
2695,-0.100,0.110
2696,-0.095,0.095
2697,-0.075,0.095
2698,-0.055,0.075
2699,-0.025,0.045
2700,-0.010,0.020
2701,0.000,0.010
2702,0.000,0.000
2703,0.000,0.000
2704,0.000,0.000
2705,0.000,0.000
2706,0.000,0.000
2707,0.000,0.000
2708,0.000,0.000
2709,0.000,0.000
2710,-0.020,0.020
2711,-0.105,0.105
2712,-0.300,0.290
2713,-0.560,0.560
2714,-0.715,0.715
2715,-0.620,0.555
2716,-0.330,0.175
2717,-0.070,-0.045
2718,0.045,-0.090
2719,0.090,-0.075
2720,0.100,-0.065
2721,0.095,-0.055
2722,0.105,-0.065
2723,0.105,-0.065
2724,0.105,-0.065
2725,0.105,-0.060
2726,0.100,-0.065
2727,0.100,-0.060
2728,0.100,-0.055
2729,0.105,-0.060
2730,0.105,-0.060
2731,0.105,-0.060
2732,0.105,-0.060
2733,0.100,-0.060
2734,0.105,-0.060
2735,0.110,-0.065
2736,0.105,-0.065
2737,0.095,-0.065
2738,0.105,-0.065
2739,0.105,-0.065
2740,0.105,-0.065
2741,0.105,-0.070
2742,0.110,-0.075
2743,0.110,-0.090
2744,0.125,-0.095
2745,0.130,-0.115
2746,0.135,-0.130
2747,0.140,-0.150
2748,0.145,-0.165
2749,0.135,-0.185
2750,0.140,-0.200
2751,0.140,-0.215
2752,0.140,-0.225
2753,0.135,-0.225
2754,0.130,-0.230
2755,0.120,-0.220
2756,0.110,-0.205
2757,0.095,-0.185
2758,0.080,-0.160
2759,0.065,-0.135
2760,0.055,-0.110
2761,0.040,-0.080
2762,0.025,-0.050
2763,0.010,-0.030
2764,0.000,-0.005
2765,0.000,0.000
2766,-0.005,0.005
2767,-0.015,0.015
2768,-0.020,0.035
2769,-0.025,0.040
2770,-0.040,0.055
2771,-0.045,0.060
2772,-0.050,0.070
2773,-0.050,0.070
2774,-0.050,0.070
2775,-0.050,0.075
2776,-0.050,0.075
2777,-0.050,0.065
2778,-0.050,0.065
2779,-0.050,0.065
2780,-0.050,0.060
2781,-0.050,0.060
2782,-0.050,0.060
2783,-0.050,0.055
2784,-0.050,0.055
2785,-0.050,0.050
2786,-0.050,0.040
2787,-0.050,0.045
2788,-0.050,0.040
2789,-0.050,0.045
2790,-0.055,0.055
2791,-0.060,0.075
2792,-0.065,0.085
2793,-0.070,0.085
2794,-0.080,0.095
2795,-0.105,0.105
2796,-0.120,0.105
2797,-0.115,0.100
2798,-0.100,0.100
2799,-0.085,0.085
2800,-0.050,0.060
2801,-0.025,0.025
2802,-0.020,0.010
2803,-0.020,0.005
2804,-0.020,0.005
2805,-0.020,0.005
2806,-0.020,0.010
2807,-0.020,0.010
2808,-0.020,0.010
2809,-0.015,0.005
2810,-0.015,0.000
2811,-0.020,0.005
2812,-0.090,0.065
2813,-0.245,0.220
2814,-0.520,0.490
2815,-0.730,0.735
2816,-0.730,0.675
2817,-0.420,0.245
2818,-0.140,-0.030
2819,0.000,-0.080
2820,0.060,-0.075
2821,0.065,-0.055
2822,0.070,-0.055
2823,0.070,-0.050
2824,0.065,-0.050
2825,0.070,-0.050
2826,0.065,-0.050
2827,0.065,-0.050
2828,0.070,-0.050
2829,0.075,-0.050
2830,0.070,-0.050
2831,0.065,-0.050
2832,0.070,-0.050
2833,0.070,-0.050
2834,0.070,-0.050
2835,0.070,-0.050
2836,0.070,-0.050
2837,0.065,-0.050
2838,0.065,-0.050
2839,0.070,-0.050
2840,0.070,-0.055
2841,0.075,-0.055
2842,0.075,-0.065
2843,0.075,-0.065
2844,0.075,-0.075
2845,0.085,-0.080
2846,0.100,-0.100
2847,0.105,-0.110
2848,0.110,-0.135
2849,0.110,-0.150
2850,0.115,-0.165
2851,0.120,-0.185
2852,0.115,-0.200
2853,0.110,-0.210
2854,0.110,-0.225
2855,0.105,-0.220
2856,0.085,-0.210
2857,0.070,-0.190
2858,0.065,-0.175
2859,0.055,-0.155
2860,0.050,-0.135
2861,0.020,-0.105
2862,0.015,-0.075
2863,0.000,-0.050
2864,0.000,-0.020
2865,-0.010,0.000
2866,-0.015,0.000
2867,-0.020,0.010
2868,-0.025,0.030
2869,-0.040,0.040
2870,-0.045,0.050
2871,-0.055,0.055
2872,-0.055,0.065
2873,-0.060,0.070
2874,-0.065,0.080
2875,-0.070,0.085
2876,-0.075,0.085
2877,-0.070,0.075
2878,-0.070,0.075
2879,-0.070,0.080
2880,-0.075,0.075
2881,-0.075,0.070
2882,-0.065,0.065
2883,-0.060,0.060
2884,-0.060,0.055
2885,-0.065,0.055
2886,-0.065,0.055
2887,-0.065,0.060
2888,-0.060,0.055
2889,-0.060,0.055
2890,-0.060,0.055
2891,-0.060,0.055
2892,-0.065,0.070
2893,-0.075,0.085
2894,-0.075,0.090
2895,-0.075,0.085
2896,-0.100,0.110
2897,-0.125,0.110
2898,-0.125,0.110
2899,-0.115,0.105
2900,-0.100,0.100
2901,-0.075,0.080
2902,-0.060,0.060
2903,-0.050,0.030
2904,-0.030,0.020
2905,-0.030,0.010
2906,-0.035,0.015
2907,-0.030,0.015
2908,-0.030,0.015
2909,-0.030,0.015
2910,-0.030,0.010
2911,-0.020,0.005
2912,-0.020,0.000
2913,-0.045,0.030
2914,-0.140,0.110
2915,-0.340,0.305
2916,-0.565,0.560
2917,-0.680,0.670
2918,-0.560,0.450
2919,-0.290,0.115
2920,-0.075,-0.045
2921,0.015,-0.070
2922,0.045,-0.055
2923,0.055,-0.045
2924,0.055,-0.040
2925,0.065,-0.050
2926,0.075,-0.050
2927,0.075,-0.050
2928,0.070,-0.050
2929,0.070,-0.050
2930,0.075,-0.050
2931,0.075,-0.045
2932,0.075,-0.045
2933,0.075,-0.050
2934,0.075,-0.050
2935,0.080,-0.055
2936,0.085,-0.050
2937,0.085,-0.050
2938,0.085,-0.055
2939,0.090,-0.055
2940,0.095,-0.065
2941,0.090,-0.065
2942,0.090,-0.065
2943,0.105,-0.065
2944,0.110,-0.075
2945,0.110,-0.075
2946,0.110,-0.080
2947,0.120,-0.095
2948,0.125,-0.115
2949,0.130,-0.125
2950,0.135,-0.150
2951,0.140,-0.160
2952,0.145,-0.180
2953,0.145,-0.190
2954,0.135,-0.205
2955,0.135,-0.210
2956,0.130,-0.220
2957,0.125,-0.210
2958,0.110,-0.205
2959,0.100,-0.190
2960,0.085,-0.165
2961,0.075,-0.145
2962,0.065,-0.120
2963,0.055,-0.090
2964,0.040,-0.065
2965,0.025,-0.040
2966,0.015,-0.020
2967,0.005,-0.005
2968,0.000,0.000
2969,0.000,0.010
2970,0.000,0.025
2971,0.000,0.035
2972,-0.010,0.045
2973,-0.010,0.055
2974,-0.020,0.055
2975,-0.020,0.065
2976,-0.020,0.065
2977,-0.020,0.065
2978,-0.020,0.060
2979,-0.020,0.065
2980,-0.020,0.065
2981,-0.020,0.060
2982,-0.020,0.055
2983,-0.020,0.055
2984,-0.020,0.055
2985,-0.020,0.050
2986,-0.015,0.050
2987,-0.015,0.050
2988,-0.015,0.050
2989,-0.020,0.040
2990,-0.015,0.040
2991,-0.015,0.040
2992,-0.020,0.040
2993,-0.020,0.040
2994,-0.015,0.065
2995,-0.020,0.075
2996,-0.025,0.080
2997,-0.040,0.085
2998,-0.055,0.095
2999,-0.075,0.095
3000,-0.075,0.100
3001,-0.075,0.095
3002,-0.055,0.085
3003,-0.030,0.060
3004,-0.005,0.035
3005,0.000,0.010
3006,0.000,0.005
3007,0.000,0.005
3008,0.000,0.005
3009,0.000,0.005
3010,0.000,0.005
3011,0.000,0.005
3012,0.000,0.000
3013,0.005,0.000
3014,0.005,0.000
3015,-0.025,0.035
3016,-0.140,0.145
3017,-0.360,0.370
3018,-0.595,0.620
3019,-0.670,0.675
3020,-0.490,0.395
3021,-0.195,0.030
3022,-0.005,-0.075
3023,0.070,-0.085
3024,0.105,-0.060
3025,0.110,-0.055
3026,0.105,-0.050
3027,0.105,-0.060
3028,0.110,-0.050
3029,0.110,-0.060
3030,0.110,-0.055
3031,0.110,-0.060
3032,0.110,-0.060
3033,0.110,-0.060
3034,0.110,-0.055
3035,0.110,-0.060
3036,0.110,-0.055
3037,0.110,-0.055
3038,0.110,-0.055
3039,0.110,-0.055
3040,0.110,-0.060
3041,0.110,-0.055
3042,0.110,-0.060
3043,0.110,-0.065
3044,0.110,-0.065
3045,0.115,-0.070
3046,0.120,-0.075
3047,0.125,-0.080
3048,0.130,-0.095
3049,0.130,-0.105
3050,0.140,-0.120
3051,0.145,-0.135
3052,0.150,-0.150
3053,0.155,-0.170
3054,0.155,-0.185
3055,0.165,-0.205
3056,0.160,-0.215
3057,0.155,-0.225
3058,0.145,-0.225
3059,0.135,-0.220
3060,0.125,-0.210
3061,0.115,-0.195
3062,0.105,-0.170
3063,0.085,-0.145
3064,0.075,-0.120
3065,0.060,-0.095
3066,0.050,-0.070
3067,0.035,-0.040
3068,0.020,-0.020
3069,0.010,0.000
3070,0.000,0.000
3071,0.000,0.010
3072,0.000,0.025
3073,0.000,0.035
3074,-0.005,0.040
3075,-0.010,0.055
3076,-0.015,0.060
3077,-0.020,0.065
3078,-0.020,0.060
3079,-0.030,0.070
3080,-0.020,0.065
3081,-0.020,0.065
3082,-0.025,0.060
3083,-0.020,0.060
3084,-0.020,0.055
3085,-0.020,0.055
3086,-0.020,0.050
3087,-0.020,0.050
3088,-0.020,0.050
3089,-0.020,0.050
3090,-0.020,0.045
3091,-0.020,0.040
3092,-0.020,0.040
3093,-0.020,0.040
3094,-0.020,0.040
3095,-0.020,0.040
3096,-0.020,0.040
3097,-0.020,0.045
3098,-0.020,0.065
3099,-0.020,0.075
3100,-0.030,0.075
3101,-0.045,0.090
3102,-0.070,0.105
3103,-0.080,0.100
3104,-0.080,0.095
3105,-0.070,0.095
3106,-0.055,0.085
3107,-0.025,0.060
3108,-0.010,0.030
3109,0.000,0.015
3110,0.000,0.005
3111,0.000,0.005
3112,0.000,0.000
3113,0.000,0.000
3114,0.000,0.000
3115,0.000,0.000
3116,0.000,0.000
3117,0.000,0.000
3118,0.000,0.000
3119,-0.035,0.045
3120,-0.180,0.185
3121,-0.440,0.445
3122,-0.670,0.695
3123,-0.685,0.675
3124,-0.430,0.305
3125,-0.145,0.010
3126,0.005,-0.080
3127,0.075,-0.080
3128,0.095,-0.060
3129,0.100,-0.055
3130,0.105,-0.060
3131,0.110,-0.060
3132,0.105,-0.055
3133,0.105,-0.055
3134,0.110,-0.060
3135,0.110,-0.060
3136,0.110,-0.060
3137,0.105,-0.055
3138,0.105,-0.055
3139,0.105,-0.055
3140,0.110,-0.055
3141,0.110,-0.055
3142,0.110,-0.060
3143,0.105,-0.060
3144,0.105,-0.060
3145,0.110,-0.065
3146,0.110,-0.065
3147,0.110,-0.065
3148,0.110,-0.065
3149,0.110,-0.075
3150,0.110,-0.075
3151,0.120,-0.090
3152,0.130,-0.095
3153,0.130,-0.110
3154,0.135,-0.120
3155,0.145,-0.150
3156,0.155,-0.160
3157,0.160,-0.180
3158,0.160,-0.190
3159,0.150,-0.210
3160,0.150,-0.220
3161,0.140,-0.230
3162,0.140,-0.235
3163,0.125,-0.235
3164,0.120,-0.215
3165,0.110,-0.200
3166,0.100,-0.175
3167,0.080,-0.150
3168,0.065,-0.130
3169,0.055,-0.100
3170,0.040,-0.075
3171,0.025,-0.045
3172,0.015,-0.025
3173,0.005,-0.005
3174,0.000,0.000
3175,0.000,0.005
3176,-0.005,0.020
3177,-0.015,0.030
3178,-0.020,0.040
3179,-0.025,0.050
3180,-0.030,0.060
3181,-0.030,0.065
3182,-0.030,0.065
3183,-0.040,0.070
3184,-0.045,0.070
3185,-0.040,0.070
3186,-0.040,0.065
3187,-0.040,0.065
3188,-0.045,0.060
3189,-0.040,0.055
3190,-0.035,0.055
3191,-0.030,0.055
3192,-0.030,0.055
3193,-0.030,0.055
3194,-0.030,0.050
3195,-0.030,0.050
3196,-0.025,0.050
3197,-0.025,0.045
3198,-0.025,0.040
3199,-0.025,0.035
3200,-0.025,0.035
3201,-0.025,0.050
3202,-0.040,0.065
3203,-0.040,0.080
3204,-0.040,0.080
3205,-0.065,0.105
3206,-0.085,0.110
3207,-0.090,0.110
3208,-0.085,0.105
3209,-0.070,0.095
3210,-0.050,0.075
3211,-0.020,0.045
3212,0.000,0.020
3213,0.000,0.010
3214,0.000,0.005
3215,0.000,0.005
3216,0.000,0.005
3217,0.000,0.005
3218,0.000,0.005
3219,0.000,0.005
3220,0.000,0.005
3221,0.000,0.000
3222,-0.015,0.020
3223,-0.095,0.100
3224,-0.290,0.290
3225,-0.545,0.555
3226,-0.705,0.715
3227,-0.620,0.565
3228,-0.330,0.185
3229,-0.075,-0.040
3230,0.045,-0.090
3231,0.090,-0.075
3232,0.095,-0.060
3233,0.095,-0.050
3234,0.105,-0.060
3235,0.105,-0.055
3236,0.105,-0.065
3237,0.105,-0.065
3238,0.110,-0.060
3239,0.110,-0.055
3240,0.105,-0.055
3241,0.100,-0.055
3242,0.095,-0.050
3243,0.095,-0.050
3244,0.100,-0.050
3245,0.105,-0.055
3246,0.105,-0.055
3247,0.105,-0.055
3248,0.105,-0.055
3249,0.100,-0.060
3250,0.105,-0.060
3251,0.110,-0.060
3252,0.110,-0.065
3253,0.110,-0.070
3254,0.110,-0.075
3255,0.115,-0.085
3256,0.120,-0.095
3257,0.125,-0.110
3258,0.135,-0.125
3259,0.140,-0.150
3260,0.140,-0.165
3261,0.140,-0.180
3262,0.145,-0.200
3263,0.145,-0.215
3264,0.135,-0.220
3265,0.130,-0.225
3266,0.130,-0.225
3267,0.125,-0.215
3268,0.115,-0.205
3269,0.100,-0.185
3270,0.085,-0.160
3271,0.070,-0.140
3272,0.060,-0.115
3273,0.045,-0.085
3274,0.030,-0.060
3275,0.015,-0.035
3276,0.010,-0.010
3277,0.000,0.000
3278,0.000,0.005
3279,0.000,0.015
3280,-0.015,0.035
3281,-0.020,0.045
3282,-0.020,0.055
3283,-0.045,0.060
3284,-0.040,0.065
3285,-0.040,0.065
3286,-0.045,0.070
3287,-0.050,0.075
3288,-0.045,0.075
3289,-0.045,0.070
3290,-0.050,0.070
3291,-0.050,0.065
3292,-0.050,0.065
3293,-0.045,0.060
3294,-0.040,0.060
3295,-0.040,0.055
3296,-0.040,0.055
3297,-0.040,0.055
3298,-0.040,0.050
3299,-0.040,0.050
3300,-0.040,0.050
3301,-0.030,0.040
3302,-0.030,0.040
3303,-0.030,0.040
3304,-0.035,0.050
3305,-0.045,0.070
3306,-0.050,0.085
3307,-0.050,0.085
3308,-0.060,0.085
3309,-0.085,0.105
3310,-0.105,0.110
3311,-0.105,0.100
3312,-0.095,0.100
3313,-0.075,0.090
3314,-0.050,0.070
3315,-0.025,0.040
3316,-0.010,0.025
3317,0.000,0.010
3318,0.000,0.010
3319,0.000,0.010
3320,0.000,0.005
3321,0.000,0.005
3322,0.000,0.005
3323,0.000,0.000
3324,0.000,0.000
3325,0.000,0.000
3326,-0.025,0.025
3327,-0.135,0.130
3328,-0.365,0.355
3329,-0.630,0.640
3330,-0.755,0.760
3331,-0.565,0.465
3332,-0.240,0.070
3333,-0.025,-0.060
3334,0.055,-0.090
3335,0.090,-0.065
3336,0.090,-0.065
3337,0.090,-0.055
3338,0.095,-0.060
3339,0.100,-0.055
3340,0.100,-0.055
3341,0.095,-0.050
3342,0.095,-0.050
3343,0.095,-0.055
3344,0.090,-0.055
3345,0.095,-0.055
3346,0.100,-0.055
3347,0.100,-0.055
3348,0.100,-0.055
3349,0.095,-0.055
3350,0.095,-0.050
3351,0.095,-0.050
3352,0.090,-0.055
3353,0.095,-0.060
3354,0.100,-0.060
3355,0.105,-0.060
3356,0.105,-0.065
3357,0.110,-0.065
3358,0.110,-0.080
3359,0.115,-0.085
3360,0.120,-0.100
3361,0.130,-0.110
3362,0.130,-0.130
3363,0.135,-0.140
3364,0.135,-0.165
3365,0.140,-0.180
3366,0.145,-0.205
3367,0.135,-0.215
3368,0.130,-0.225
3369,0.125,-0.225
3370,0.120,-0.220
3371,0.110,-0.215
3372,0.110,-0.200
3373,0.105,-0.175
3374,0.085,-0.155
3375,0.070,-0.130
3376,0.050,-0.100
3377,0.035,-0.075
3378,0.020,-0.050
3379,0.015,-0.025
3380,0.000,0.000
3381,0.000,0.000
3382,0.000,0.010
3383,-0.010,0.025
3384,-0.015,0.040
3385,-0.025,0.050
3386,-0.030,0.055
3387,-0.035,0.065
3388,-0.045,0.070
3389,-0.050,0.070
3390,-0.050,0.075
3391,-0.050,0.075
3392,-0.050,0.075
3393,-0.050,0.070
3394,-0.045,0.065
3395,-0.045,0.065
3396,-0.050,0.065
3397,-0.050,0.065
3398,-0.050,0.065
3399,-0.050,0.060
3400,-0.045,0.055
3401,-0.045,0.055
3402,-0.045,0.055
3403,-0.040,0.050
3404,-0.040,0.050
3405,-0.045,0.050
3406,-0.045,0.045
3407,-0.050,0.045
3408,-0.050,0.055
3409,-0.050,0.070
3410,-0.050,0.085
3411,-0.055,0.085
3412,-0.070,0.095
3413,-0.105,0.115
3414,-0.105,0.115
3415,-0.110,0.095
3416,-0.100,0.105
3417,-0.080,0.090
3418,-0.050,0.070
3419,-0.025,0.040
3420,-0.020,0.020
3421,-0.020,0.010
3422,-0.015,0.010
3423,-0.015,0.005
3424,-0.015,0.005
3425,-0.015,0.005
3426,-0.015,0.005
3427,-0.010,0.005
3428,-0.005,0.000
3429,-0.005,0.000
3430,-0.055,0.040
3431,-0.195,0.170
3432,-0.430,0.410
3433,-0.660,0.655
3434,-0.710,0.680
3435,-0.510,0.380
3436,-0.210,0.045
3437,-0.025,-0.080
3438,0.045,-0.085
3439,0.075,-0.070
3440,0.075,-0.055
3441,0.075,-0.055
3442,0.075,-0.055
3443,0.075,-0.060
3444,0.075,-0.050
3445,0.070,-0.050
3446,0.070,-0.050
3447,0.075,-0.055
3448,0.075,-0.055
3449,0.075,-0.055
3450,0.075,-0.050
3451,0.075,-0.050
3452,0.075,-0.055
3453,0.075,-0.055
3454,0.075,-0.055
3455,0.075,-0.050
3456,0.075,-0.050
3457,0.070,-0.050
3458,0.070,-0.060
3459,0.070,-0.055
3460,0.075,-0.060
3461,0.075,-0.065
3462,0.080,-0.070
3463,0.085,-0.075
3464,0.090,-0.095
3465,0.105,-0.105
3466,0.110,-0.130
3467,0.110,-0.150
3468,0.115,-0.165
3469,0.120,-0.180
3470,0.115,-0.200
3471,0.115,-0.210
3472,0.110,-0.220
3473,0.110,-0.225
3474,0.100,-0.215
3475,0.085,-0.205
3476,0.070,-0.185
3477,0.050,-0.165
3478,0.040,-0.145
3479,0.025,-0.115
3480,0.010,-0.085
3481,0.005,-0.060
3482,0.000,-0.035
3483,-0.005,-0.010
3484,-0.020,0.000
3485,-0.025,0.000
3486,-0.040,0.020
3487,-0.050,0.035
3488,-0.050,0.045
3489,-0.050,0.060
3490,-0.060,0.065
3491,-0.065,0.075
3492,-0.075,0.075
3493,-0.075,0.085
3494,-0.075,0.085
3495,-0.075,0.080
3496,-0.075,0.080
3497,-0.070,0.080
3498,-0.065,0.070
3499,-0.065,0.070
3500,-0.070,0.065
3501,-0.070,0.065
3502,-0.070,0.070
3503,-0.070,0.065
3504,-0.065,0.065
3505,-0.070,0.065
3506,-0.075,0.060
3507,-0.065,0.055
3508,-0.065,0.055
3509,-0.065,0.055
3510,-0.065,0.055
3511,-0.060,0.050
3512,-0.055,0.055
3513,-0.060,0.070
3514,-0.070,0.085
3515,-0.075,0.090
3516,-0.090,0.100
3517,-0.110,0.110
3518,-0.125,0.110
3519,-0.125,0.110
3520,-0.115,0.110
3521,-0.100,0.100
3522,-0.075,0.075
3523,-0.055,0.050
3524,-0.045,0.030
3525,-0.040,0.020
3526,-0.035,0.020
3527,-0.035,0.015
3528,-0.040,0.015
3529,-0.035,0.015
3530,-0.025,0.010
3531,-0.025,0.010
3532,-0.020,0.010
3533,-0.025,0.005
3534,-0.070,0.045
3535,-0.195,0.150
3536,-0.430,0.385
3537,-0.645,0.630
3538,-0.705,0.680
3539,-0.495,0.350
3540,-0.200,0.010
3541,-0.025,-0.070
3542,0.020,-0.065
3543,0.035,-0.050
3544,0.045,-0.040
3545,0.050,-0.045
3546,0.055,-0.040
3547,0.055,-0.040
3548,0.055,-0.040
3549,0.055,-0.040
3550,0.055,-0.040
3551,0.055,-0.040
3552,0.055,-0.045
3553,0.060,-0.045
3554,0.060,-0.045
3555,0.060,-0.045
3556,0.065,-0.045
3557,0.070,-0.045
3558,0.070,-0.045
3559,0.070,-0.045
3560,0.075,-0.045
3561,0.075,-0.050
3562,0.075,-0.050
3563,0.075,-0.050
3564,0.085,-0.055
3565,0.085,-0.065
3566,0.090,-0.070
3567,0.100,-0.080
3568,0.110,-0.090
3569,0.115,-0.105
3570,0.125,-0.120
3571,0.130,-0.140
3572,0.130,-0.160
3573,0.130,-0.175
3574,0.130,-0.190
3575,0.125,-0.205
3576,0.120,-0.215
3577,0.110,-0.215
3578,0.105,-0.210
3579,0.100,-0.200
3580,0.080,-0.180
3581,0.070,-0.160
3582,0.065,-0.135
3583,0.050,-0.115
3584,0.035,-0.090
3585,0.020,-0.055
3586,0.020,-0.040
3587,0.005,-0.010
3588,0.000,0.000
3589,0.000,0.000
3590,0.000,0.020
3591,-0.005,0.030
3592,-0.015,0.035
3593,-0.020,0.050
3594,-0.020,0.055
3595,-0.020,0.065
3596,-0.020,0.065
3597,-0.020,0.065
3598,-0.025,0.070
3599,-0.030,0.070
3600,-0.030,0.065
3601,-0.025,0.070
3602,-0.025,0.065
3603,-0.020,0.060
3604,-0.020,0.060
3605,-0.020,0.060
3606,-0.020,0.055
3607,-0.020,0.050
3608,-0.020,0.050
3609,-0.020,0.045
3610,-0.020,0.040
3611,-0.020,0.040
3612,-0.020,0.040
3613,-0.020,0.040
3614,-0.020,0.035
3615,-0.015,0.035
3616,-0.015,0.040
3617,-0.020,0.060
3618,-0.020,0.065
3619,-0.030,0.080
3620,-0.040,0.080
3621,-0.060,0.100
3622,-0.075,0.095
3623,-0.075,0.095
3624,-0.070,0.095
3625,-0.055,0.085
3626,-0.020,0.055
3627,-0.010,0.035
3628,0.000,0.010
3629,0.000,0.005
3630,0.000,0.000
3631,0.000,0.000
3632,0.000,0.000
3633,0.000,0.000
3634,0.000,0.000
3635,0.000,0.000
3636,0.005,0.000
3637,0.010,0.000
3638,-0.020,0.035
3639,-0.135,0.135
3640,-0.365,0.365
3641,-0.595,0.620
3642,-0.660,0.660
3643,-0.470,0.365
3644,-0.195,0.050
3645,-0.010,-0.070
3646,0.070,-0.080
3647,0.100,-0.065
3648,0.105,-0.065
3649,0.105,-0.065
3650,0.110,-0.065
3651,0.110,-0.065
3652,0.110,-0.060
3653,0.110,-0.060
3654,0.110,-0.065
3655,0.110,-0.065
3656,0.110,-0.065
3657,0.110,-0.065
3658,0.110,-0.065
3659,0.110,-0.065
3660,0.110,-0.065
3661,0.110,-0.060
3662,0.110,-0.060
3663,0.110,-0.065
3664,0.110,-0.065
3665,0.110,-0.065
3666,0.115,-0.065
3667,0.110,-0.070
3668,0.120,-0.070
3669,0.125,-0.080
3670,0.125,-0.080
3671,0.130,-0.095
3672,0.135,-0.100
3673,0.140,-0.120
3674,0.155,-0.135
3675,0.160,-0.155
3676,0.160,-0.170
3677,0.165,-0.190
3678,0.165,-0.205
3679,0.160,-0.220
3680,0.160,-0.230
3681,0.150,-0.235
3682,0.135,-0.230
3683,0.125,-0.215
3684,0.115,-0.200
3685,0.105,-0.175
3686,0.095,-0.155
3687,0.075,-0.130
3688,0.060,-0.105
3689,0.055,-0.075
3690,0.050,-0.050
3691,0.035,-0.030
3692,0.020,-0.005
3693,0.010,0.000
3694,0.000,0.000
3695,0.000,0.015
3696,0.000,0.025
3697,0.000,0.035
3698,0.000,0.050
3699,-0.010,0.055
3700,-0.020,0.060
3701,-0.020,0.060
3702,-0.020,0.060
3703,-0.020,0.060
3704,-0.020,0.060
3705,-0.020,0.060
3706,-0.020,0.060
3707,-0.020,0.055
3708,-0.020,0.055
3709,-0.020,0.055
3710,-0.020,0.050
3711,-0.020,0.045
3712,-0.020,0.045
3713,-0.020,0.045
3714,-0.020,0.040
3715,-0.020,0.040
3716,-0.020,0.040
3717,-0.020,0.040
3718,-0.015,0.035
3719,-0.010,0.035
3720,-0.015,0.035
3721,-0.020,0.060
3722,-0.025,0.070
3723,-0.020,0.075
3724,-0.040,0.080
3725,-0.060,0.095
3726,-0.080,0.100
3727,-0.080,0.100
3728,-0.075,0.100
3729,-0.055,0.090
3730,-0.030,0.065
3731,-0.005,0.035
3732,0.000,0.015
3733,0.000,0.005
3734,0.000,0.005
3735,0.000,0.000
3736,0.000,0.000
3737,0.000,0.000
3738,0.000,0.000
3739,0.000,0.000
3740,0.005,0.000
3741,0.010,0.000
3742,-0.020,0.030
3743,-0.125,0.135
3744,-0.350,0.350
3745,-0.595,0.615
3746,-0.685,0.710
3747,-0.520,0.445
3748,-0.210,0.060
3749,-0.010,-0.075
3750,0.070,-0.090
3751,0.105,-0.065
3752,0.100,-0.060
3753,0.105,-0.055
3754,0.110,-0.060
3755,0.110,-0.055
3756,0.110,-0.055
3757,0.110,-0.055
3758,0.110,-0.050
3759,0.110,-0.050
3760,0.110,-0.055
3761,0.110,-0.055
3762,0.110,-0.055
3763,0.110,-0.055
3764,0.110,-0.055
3765,0.110,-0.055
3766,0.110,-0.050
3767,0.110,-0.050
3768,0.110,-0.055
3769,0.110,-0.060
3770,0.110,-0.065
3771,0.110,-0.070
3772,0.110,-0.065
3773,0.110,-0.070
3774,0.110,-0.080
3775,0.120,-0.090
3776,0.130,-0.100
3777,0.135,-0.110
3778,0.140,-0.130
3779,0.150,-0.150
3780,0.155,-0.170
3781,0.155,-0.185
3782,0.155,-0.205
3783,0.160,-0.215
3784,0.155,-0.225
3785,0.140,-0.225
3786,0.130,-0.220
3787,0.125,-0.215
3788,0.110,-0.200
3789,0.100,-0.180
3790,0.085,-0.155
3791,0.070,-0.135
3792,0.055,-0.105
3793,0.045,-0.085
3794,0.030,-0.055
3795,0.015,-0.030
3796,0.010,-0.005
3797,0.000,0.000
3798,0.000,0.000
3799,0.000,0.010
3800,-0.015,0.030
3801,-0.020,0.040
3802,-0.020,0.050
3803,-0.025,0.055
3804,-0.030,0.060
3805,-0.035,0.065
3806,-0.040,0.070
3807,-0.040,0.070
3808,-0.045,0.070
3809,-0.050,0.065
3810,-0.040,0.065
3811,-0.035,0.060
3812,-0.035,0.060
3813,-0.040,0.060
3814,-0.035,0.055
3815,-0.030,0.050
3816,-0.025,0.050
3817,-0.030,0.050
3818,-0.030,0.040
3819,-0.025,0.040
3820,-0.030,0.040
3821,-0.025,0.040
3822,-0.020,0.035
3823,-0.020,0.040
3824,-0.020,0.065
3825,-0.030,0.075
3826,-0.040,0.080
3827,-0.050,0.085
3828,-0.070,0.105
3829,-0.090,0.105
3830,-0.085,0.100
3831,-0.080,0.100
3832,-0.060,0.090
3833,-0.035,0.065
3834,-0.010,0.035
3835,0.000,0.010
3836,0.000,0.005
3837,0.000,0.005
3838,0.000,0.005
3839,0.000,0.000
3840,0.000,0.000
3841,0.000,0.000
3842,0.000,0.000
3843,0.000,0.000
3844,0.000,0.000
3845,-0.030,0.035
3846,-0.140,0.135
3847,-0.385,0.380
3848,-0.630,0.650
3849,-0.715,0.720
3850,-0.500,0.395
3851,-0.200,0.060
3852,-0.010,-0.070
3853,0.070,-0.085
3854,0.100,-0.070
3855,0.105,-0.055
3856,0.105,-0.060
3857,0.110,-0.055
3858,0.110,-0.060
3859,0.110,-0.060
3860,0.110,-0.060
3861,0.105,-0.060
3862,0.105,-0.055
3863,0.105,-0.055
3864,0.100,-0.055
3865,0.105,-0.055
3866,0.110,-0.060
3867,0.110,-0.060
3868,0.105,-0.060
3869,0.105,-0.055
3870,0.110,-0.065
3871,0.110,-0.065
3872,0.110,-0.065
3873,0.110,-0.065
3874,0.110,-0.065
3875,0.110,-0.065
3876,0.110,-0.075
3877,0.110,-0.075
3878,0.125,-0.095
3879,0.130,-0.100
3880,0.130,-0.125
3881,0.135,-0.135
3882,0.150,-0.155
3883,0.150,-0.165
3884,0.145,-0.185
3885,0.140,-0.205
3886,0.140,-0.215
3887,0.145,-0.220
3888,0.135,-0.230
3889,0.130,-0.230
3890,0.120,-0.215
3891,0.110,-0.195
3892,0.095,-0.180
3893,0.080,-0.160
3894,0.070,-0.135
3895,0.055,-0.110
3896,0.040,-0.080
3897,0.030,-0.055
3898,0.015,-0.030
3899,0.005,-0.005
3900,0.000,0.000
3901,0.000,0.005
3902,-0.005,0.020
3903,-0.015,0.035
3904,-0.020,0.045
3905,-0.025,0.055
3906,-0.035,0.060
3907,-0.040,0.065
3908,-0.045,0.065
3909,-0.045,0.065
3910,-0.050,0.065
3911,-0.050,0.070
3912,-0.050,0.065
3913,-0.050,0.065
3914,-0.045,0.060
3915,-0.040,0.060
3916,-0.030,0.060
3917,-0.030,0.055
3918,-0.040,0.050
3919,-0.040,0.050
3920,-0.040,0.050
3921,-0.035,0.050
3922,-0.035,0.045
3923,-0.030,0.040
3924,-0.030,0.045
3925,-0.035,0.040
3926,-0.030,0.050
3927,-0.045,0.065
3928,-0.050,0.085
3929,-0.050,0.080
3930,-0.060,0.090
3931,-0.090,0.105
3932,-0.100,0.105
3933,-0.105,0.095
3934,-0.095,0.095
3935,-0.065,0.080
3936,-0.030,0.060
3937,-0.015,0.035
3938,0.000,0.015
3939,-0.005,0.005
3940,0.000,0.000
3941,0.000,0.000
3942,0.000,0.000
3943,0.000,0.000
3944,0.000,0.000
3945,0.000,0.000
3946,0.000,0.000
3947,0.000,0.005
3948,-0.055,0.055
3949,-0.205,0.200
3950,-0.460,0.450
3951,-0.680,0.680
3952,-0.690,0.660
3953,-0.445,0.330
3954,-0.155,0.005
3955,0.010,-0.085
3956,0.075,-0.085
3957,0.090,-0.065
3958,0.090,-0.055
3959,0.095,-0.060
3960,0.095,-0.060
3961,0.095,-0.065
3962,0.100,-0.065
3963,0.105,-0.060
3964,0.105,-0.060
3965,0.105,-0.060
3966,0.100,-0.065
3967,0.100,-0.060
3968,0.100,-0.060
3969,0.095,-0.055
3970,0.095,-0.055
3971,0.095,-0.055
3972,0.095,-0.060
3973,0.100,-0.065
3974,0.100,-0.065
3975,0.100,-0.065
3976,0.100,-0.065
3977,0.105,-0.065
3978,0.105,-0.070
3979,0.110,-0.075
3980,0.110,-0.085
3981,0.115,-0.090
3982,0.125,-0.105
3983,0.130,-0.120
3984,0.130,-0.145
3985,0.135,-0.160
3986,0.135,-0.175
3987,0.140,-0.190
3988,0.135,-0.205
3989,0.135,-0.220
3990,0.135,-0.225
3991,0.130,-0.230
3992,0.120,-0.225
3993,0.110,-0.215
3994,0.105,-0.200
3995,0.095,-0.175
3996,0.075,-0.150
3997,0.065,-0.125
3998,0.045,-0.100
3999,0.030,-0.070
4000,0.020,-0.045
4001,0.015,-0.020
4002,0.000,-0.005
4003,0.000,0.000
4004,0.000,0.000
4005,-0.010,0.025
4006,-0.025,0.035
4007,-0.030,0.050
4008,-0.040,0.055
4009,-0.050,0.065
4010,-0.050,0.065
4011,-0.050,0.065
4012,-0.050,0.070
4013,-0.050,0.075
4014,-0.050,0.070
4015,-0.050,0.065
4016,-0.050,0.065
4017,-0.050,0.065
4018,-0.050,0.060
4019,-0.050,0.055
4020,-0.040,0.055
4021,-0.040,0.055
4022,-0.040,0.055
4023,-0.040,0.050
4024,-0.045,0.050
4025,-0.045,0.045
4026,-0.045,0.045
4027,-0.040,0.050
4028,-0.045,0.065
4029,-0.055,0.080
4030,-0.060,0.090
4031,-0.070,0.095
4032,-0.090,0.105
4033,-0.105,0.115
4034,-0.115,0.105
4035,-0.115,0.105
4036,-0.095,0.095
4037,-0.065,0.075
4038,-0.035,0.050
4039,-0.015,0.025
4040,-0.015,0.015
4041,-0.010,0.010
4042,-0.010,0.010
4043,-0.015,0.005
4044,-0.010,0.005
4045,-0.010,0.010
4046,-0.010,0.010
4047,-0.005,0.005
4048,0.000,0.005
4049,-0.030,0.020
4050,-0.125,0.110
4051,-0.340,0.315
4052,-0.610,0.605
4053,-0.765,0.765
4054,-0.625,0.535
4055,-0.295,0.105
4056,-0.060,-0.055
4057,0.030,-0.080
4058,0.070,-0.065
4059,0.075,-0.050
4060,0.075,-0.050
4061,0.075,-0.050
4062,0.075,-0.050
4063,0.075,-0.050
4064,0.075,-0.050
4065,0.075,-0.050
4066,0.075,-0.055
4067,0.075,-0.050
4068,0.075,-0.050
4069,0.070,-0.050
4070,0.070,-0.050
4071,0.075,-0.050
4072,0.075,-0.050
4073,0.065,-0.050
4074,0.065,-0.050
4075,0.070,-0.050
4076,0.075,-0.050
4077,0.075,-0.055
4078,0.075,-0.055
4079,0.075,-0.065
4080,0.075,-0.065
4081,0.075,-0.070
4082,0.085,-0.080
4083,0.090,-0.095
4084,0.105,-0.105
4085,0.105,-0.120
4086,0.110,-0.135
4087,0.120,-0.160
4088,0.125,-0.170
4089,0.125,-0.195
4090,0.120,-0.205
4091,0.110,-0.215
4092,0.105,-0.215
4093,0.090,-0.215
4094,0.080,-0.210
4095,0.070,-0.190
4096,0.060,-0.175
4097,0.055,-0.155
4098,0.035,-0.130
4099,0.020,-0.100
4100,0.005,-0.075
4101,0.000,-0.045
4102,0.000,-0.020
4103,-0.015,0.000
4104,-0.020,0.000
4105,-0.035,0.015
4106,-0.040,0.030
4107,-0.045,0.045
4108,-0.060,0.050
4109,-0.065,0.060
4110,-0.070,0.065
4111,-0.075,0.075
4112,-0.075,0.080
4113,-0.070,0.080
4114,-0.070,0.080
4115,-0.070,0.080
4116,-0.075,0.080
4117,-0.075,0.075
4118,-0.070,0.075
4119,-0.070,0.070
4120,-0.065,0.070
4121,-0.065,0.065
4122,-0.065,0.060
4123,-0.065,0.060
4124,-0.065,0.060
4125,-0.065,0.060
4126,-0.060,0.055
4127,-0.060,0.055
4128,-0.065,0.060
4129,-0.070,0.080
4130,-0.075,0.090
4131,-0.075,0.095
4132,-0.085,0.095
4133,-0.105,0.115
4134,-0.125,0.115
4135,-0.125,0.110
4136,-0.120,0.105
4137,-0.100,0.100
4138,-0.075,0.075
4139,-0.055,0.055
4140,-0.050,0.030
4141,-0.040,0.025
4142,-0.040,0.020
4143,-0.030,0.020
4144,-0.030,0.020
4145,-0.030,0.020
4146,-0.035,0.020
4147,-0.030,0.015
4148,-0.020,0.010
4149,-0.020,0.010
4150,-0.075,0.050
4151,-0.200,0.160
4152,-0.430,0.385
4153,-0.635,0.625
4154,-0.685,0.650
4155,-0.500,0.355
4156,-0.225,0.055
4157,-0.045,-0.060
4158,0.020,-0.065
4159,0.040,-0.045
4160,0.050,-0.040
4161,0.055,-0.040
4162,0.055,-0.040
4163,0.055,-0.040
4164,0.055,-0.045
4165,0.055,-0.040
4166,0.055,-0.040
4167,0.055,-0.040
4168,0.055,-0.040
4169,0.055,-0.040
4170,0.055,-0.040
4171,0.055,-0.040
4172,0.050,-0.040
4173,0.050,-0.040
4174,0.055,-0.040
4175,0.055,-0.040
4176,0.055,-0.040
4177,0.055,-0.045
4178,0.065,-0.045
4179,0.065,-0.050
4180,0.065,-0.050
4181,0.075,-0.065
4182,0.080,-0.065
4183,0.080,-0.075
4184,0.085,-0.080
4185,0.105,-0.100
4186,0.110,-0.110
4187,0.110,-0.135
4188,0.125,-0.155
4189,0.125,-0.175
4190,0.125,-0.185
4191,0.115,-0.195
4192,0.110,-0.200
4193,0.100,-0.205
4194,0.090,-0.200
4195,0.085,-0.190
4196,0.075,-0.175
4197,0.065,-0.155
4198,0.055,-0.130
4199,0.040,-0.105
4200,0.025,-0.080
4201,0.015,-0.050
4202,0.005,-0.025
4203,0.000,-0.010
4204,0.000,0.000
4205,0.000,0.005
4206,-0.010,0.020
4207,-0.020,0.040
4208,-0.020,0.050
4209,-0.020,0.055
4210,-0.020,0.065
4211,-0.030,0.065
4212,-0.030,0.075
4213,-0.035,0.075
4214,-0.040,0.075
4215,-0.035,0.075
4216,-0.030,0.070
4217,-0.030,0.070
4218,-0.035,0.070
4219,-0.035,0.065
4220,-0.025,0.060
4221,-0.020,0.060
4222,-0.020,0.060
4223,-0.020,0.055
4224,-0.020,0.055
4225,-0.020,0.055
4226,-0.020,0.050
4227,-0.020,0.050
4228,-0.020,0.045
4229,-0.020,0.050
4230,-0.030,0.065
4231,-0.030,0.085
4232,-0.035,0.080
4233,-0.040,0.085
4234,-0.060,0.105
4235,-0.070,0.105
4236,-0.075,0.100
4237,-0.075,0.105
4238,-0.060,0.095
4239,-0.040,0.070
4240,-0.020,0.040
4241,-0.005,0.020
4242,0.000,0.010
4243,0.000,0.010
4244,0.000,0.005
4245,0.000,0.005
4246,0.000,0.005
4247,0.000,0.005
4248,0.000,0.005
4249,0.000,0.000
4250,0.000,0.000
4251,-0.020,0.030
4252,-0.135,0.140
4253,-0.355,0.355
4254,-0.585,0.600
4255,-0.660,0.665
4256,-0.500,0.400
4257,-0.205,0.045
4258,-0.015,-0.070
4259,0.060,-0.075
4260,0.090,-0.065
4261,0.090,-0.050
4262,0.090,-0.055
4263,0.110,-0.050
4264,0.105,-0.060
4265,0.105,-0.055
4266,0.105,-0.060
4267,0.105,-0.060
4268,0.110,-0.060
4269,0.110,-0.055
4270,0.110,-0.055
4271,0.110,-0.055
4272,0.110,-0.055
4273,0.110,-0.055
4274,0.110,-0.055
4275,0.110,-0.060
4276,0.110,-0.055
4277,0.110,-0.060
4278,0.110,-0.065
4279,0.110,-0.065
4280,0.110,-0.065
4281,0.110,-0.070
4282,0.115,-0.075
4283,0.120,-0.080
4284,0.125,-0.085
4285,0.130,-0.100
4286,0.135,-0.115
4287,0.140,-0.135
4288,0.145,-0.155
4289,0.150,-0.170
4290,0.155,-0.185
4291,0.160,-0.200
4292,0.155,-0.215
4293,0.150,-0.215
4294,0.140,-0.225
4295,0.130,-0.220
4296,0.120,-0.210
4297,0.115,-0.195
4298,0.100,-0.175
4299,0.085,-0.150
4300,0.075,-0.125
4301,0.060,-0.090
4302,0.050,-0.065
4303,0.030,-0.045
4304,0.020,-0.015
4305,0.010,0.000
4306,0.000,0.000
4307,0.000,0.005
4308,0.000,0.025
4309,-0.005,0.035
4310,-0.005,0.040
4311,-0.010,0.045
4312,-0.015,0.055
4313,-0.020,0.060
4314,-0.015,0.065
4315,-0.015,0.065
4316,-0.020,0.065
4317,-0.020,0.065
4318,-0.020,0.065
4319,-0.020,0.060
4320,-0.020,0.060
4321,-0.020,0.055
4322,-0.020,0.055
4323,-0.020,0.050
4324,-0.020,0.045
4325,-0.020,0.045
4326,-0.020,0.040
4327,-0.020,0.040
4328,-0.020,0.040
4329,-0.020,0.040
4330,-0.020,0.035
4331,-0.015,0.040
4332,-0.015,0.055
4333,-0.025,0.075
4334,-0.030,0.080
4335,-0.040,0.080
4336,-0.060,0.100
4337,-0.080,0.105
4338,-0.085,0.100
4339,-0.080,0.100
4340,-0.060,0.090
4341,-0.030,0.060
4342,-0.015,0.035
4343,0.000,0.010
4344,0.000,0.010
4345,0.000,0.005
4346,0.000,0.000
4347,0.000,0.000
4348,0.000,0.000
4349,0.000,0.000
4350,0.000,0.005
4351,0.000,0.000
4352,0.010,0.000
4353,-0.015,0.020
4354,-0.120,0.120
4355,-0.360,0.360
4356,-0.610,0.630
4357,-0.710,0.725
4358,-0.505,0.405
4359,-0.210,0.055
4360,-0.020,-0.075
4361,0.065,-0.080
4362,0.090,-0.070
4363,0.095,-0.055
4364,0.100,-0.055
4365,0.105,-0.055
4366,0.105,-0.060
4367,0.105,-0.055
4368,0.110,-0.055
4369,0.105,-0.055
4370,0.095,-0.055
4371,0.100,-0.055
4372,0.100,-0.055
4373,0.100,-0.055
4374,0.105,-0.055
4375,0.105,-0.055
4376,0.105,-0.055
4377,0.105,-0.055
4378,0.105,-0.055
4379,0.105,-0.055
4380,0.105,-0.065
4381,0.105,-0.065
4382,0.105,-0.065
4383,0.105,-0.070
4384,0.110,-0.075
4385,0.120,-0.075
4386,0.120,-0.090
4387,0.120,-0.100
4388,0.130,-0.120
4389,0.145,-0.130
4390,0.150,-0.155
4391,0.150,-0.165
4392,0.155,-0.190
4393,0.150,-0.200
4394,0.150,-0.220
4395,0.150,-0.220
4396,0.140,-0.230
4397,0.135,-0.225
4398,0.125,-0.215
4399,0.115,-0.200
4400,0.105,-0.180
4401,0.090,-0.160
4402,0.075,-0.135
4403,0.055,-0.110
4404,0.045,-0.080
4405,0.025,-0.055
4406,0.020,-0.030
4407,0.005,-0.010
4408,0.000,0.000
4409,0.000,0.005
4410,0.000,0.020
4411,-0.010,0.030
4412,-0.020,0.035
4413,-0.025,0.045
4414,-0.030,0.055
4415,-0.035,0.060
4416,-0.040,0.065
4417,-0.040,0.065
4418,-0.035,0.065
4419,-0.035,0.065
4420,-0.030,0.065
4421,-0.025,0.060
4422,-0.025,0.055
4423,-0.025,0.055
4424,-0.025,0.055
4425,-0.025,0.055
4426,-0.025,0.055
4427,-0.025,0.050
4428,-0.025,0.045
4429,-0.020,0.045
4430,-0.020,0.040
4431,-0.020,0.040
4432,-0.020,0.035
4433,-0.020,0.035
4434,-0.020,0.040
4435,-0.025,0.055
4436,-0.040,0.075
4437,-0.040,0.075
4438,-0.040,0.075
4439,-0.065,0.095
4440,-0.080,0.100
4441,-0.090,0.090
4442,-0.080,0.090
4443,-0.070,0.085
4444,-0.040,0.065
4445,-0.020,0.040
4446,0.000,0.020
4447,0.000,0.005
4448,0.000,0.005
4449,0.000,0.000
4450,0.000,0.000
4451,0.000,0.000
4452,0.000,0.000
4453,0.000,0.000
4454,0.000,0.000
4455,0.000,0.000
4456,-0.020,0.025
4457,-0.110,0.110
4458,-0.315,0.310
4459,-0.570,0.580
4460,-0.705,0.705
4461,-0.575,0.500
4462,-0.280,0.135
4463,-0.045,-0.060
4464,0.055,-0.090
4465,0.095,-0.075
4466,0.100,-0.065
4467,0.100,-0.065
4468,0.105,-0.065
4469,0.105,-0.065
4470,0.105,-0.065
4471,0.105,-0.065
4472,0.105,-0.065
4473,0.100,-0.065
4474,0.100,-0.065
4475,0.110,-0.065
4476,0.105,-0.065
4477,0.105,-0.065
4478,0.100,-0.060
4479,0.095,-0.060
4480,0.100,-0.065
4481,0.100,-0.065
4482,0.100,-0.065
4483,0.105,-0.065
4484,0.110,-0.065
4485,0.105,-0.070
4486,0.105,-0.070
4487,0.105,-0.075
4488,0.110,-0.080
4489,0.110,-0.085
4490,0.115,-0.105
4491,0.130,-0.115
4492,0.135,-0.135
4493,0.145,-0.150
4494,0.150,-0.170
4495,0.150,-0.185
4496,0.150,-0.200
4497,0.155,-0.210
4498,0.140,-0.225
4499,0.130,-0.230
4500,0.125,-0.225
4501,0.120,-0.215
4502,0.115,-0.205
4503,0.105,-0.190
4504,0.095,-0.170
4505,0.075,-0.145
4506,0.060,-0.120
4507,0.045,-0.090
4508,0.030,-0.065
4509,0.020,-0.040
4510,0.015,-0.020
4511,0.000,0.000
4512,0.000,0.000
4513,0.000,0.010
4514,-0.015,0.025
4515,-0.020,0.040
4516,-0.030,0.045
4517,-0.030,0.060
4518,-0.040,0.060
4519,-0.045,0.065
4520,-0.050,0.065
4521,-0.050,0.065
4522,-0.050,0.065
4523,-0.050,0.065
4524,-0.045,0.065
4525,-0.040,0.065
4526,-0.040,0.055
4527,-0.045,0.055
4528,-0.040,0.050
4529,-0.030,0.050
4530,-0.030,0.050
4531,-0.035,0.045
4532,-0.030,0.040
4533,-0.030,0.040
4534,-0.030,0.040
4535,-0.030,0.035
4536,-0.020,0.035
4537,-0.025,0.035
4538,-0.030,0.040
4539,-0.030,0.055
4540,-0.035,0.070
4541,-0.045,0.075
4542,-0.055,0.085
4543,-0.070,0.100
4544,-0.090,0.100
4545,-0.095,0.095
4546,-0.085,0.095
4547,-0.065,0.080
4548,-0.040,0.060
4549,-0.015,0.035
4550,-0.005,0.010
4551,0.000,0.005
4552,0.000,0.000
4553,0.000,0.000
4554,0.000,0.000
4555,0.000,0.000
4556,0.000,0.000
4557,0.000,0.000
4558,0.000,0.000
4559,0.000,0.000
4560,-0.020,0.020
4561,-0.120,0.120
4562,-0.350,0.335
4563,-0.610,0.615
4564,-0.745,0.760
4565,-0.580,0.480
4566,-0.235,0.065
4567,-0.025,-0.075
4568,0.070,-0.090
4569,0.100,-0.075
4570,0.105,-0.055
4571,0.100,-0.060
4572,0.100,-0.065
4573,0.100,-0.065
4574,0.100,-0.060
4575,0.105,-0.060
4576,0.110,-0.065
4577,0.105,-0.065
4578,0.095,-0.065
4579,0.100,-0.065
4580,0.105,-0.065
4581,0.110,-0.060
4582,0.100,-0.060
4583,0.100,-0.065
4584,0.105,-0.065
4585,0.105,-0.065
4586,0.105,-0.065
4587,0.105,-0.065
4588,0.105,-0.065
4589,0.105,-0.075
4590,0.110,-0.075
4591,0.110,-0.075
4592,0.110,-0.080
4593,0.115,-0.095
4594,0.125,-0.105
4595,0.130,-0.120
4596,0.130,-0.130
4597,0.140,-0.150
4598,0.145,-0.170
4599,0.145,-0.190
4600,0.145,-0.200
4601,0.140,-0.215
4602,0.135,-0.225
4603,0.130,-0.230
4604,0.125,-0.225
4605,0.115,-0.220
4606,0.110,-0.205
4607,0.100,-0.185
4608,0.090,-0.165
4609,0.070,-0.145
4610,0.055,-0.120
4611,0.050,-0.090
4612,0.030,-0.065
4613,0.015,-0.030
4614,0.005,-0.015
4615,0.000,0.000
4616,0.000,0.000
4617,-0.005,0.015
4618,-0.015,0.025
4619,-0.020,0.040
4620,-0.020,0.050
4621,-0.035,0.060
4622,-0.040,0.065
4623,-0.045,0.065
4624,-0.050,0.065
4625,-0.050,0.070
4626,-0.050,0.065
4627,-0.050,0.065
4628,-0.050,0.060
4629,-0.050,0.060
4630,-0.050,0.060
4631,-0.045,0.060
4632,-0.040,0.060
4633,-0.040,0.055
4634,-0.045,0.055
4635,-0.045,0.055
4636,-0.040,0.050
4637,-0.040,0.045
4638,-0.040,0.045
4639,-0.040,0.045
4640,-0.040,0.040
4641,-0.045,0.050
4642,-0.050,0.065
4643,-0.050,0.085
4644,-0.050,0.085
4645,-0.065,0.090
4646,-0.095,0.110
4647,-0.105,0.110
4648,-0.100,0.095
4649,-0.085,0.100
4650,-0.070,0.080
4651,-0.040,0.065
4652,-0.020,0.035
4653,-0.005,0.020
4654,-0.010,0.005
4655,0.000,0.005
4656,0.000,0.005
4657,0.000,0.005
4658,0.000,0.000
4659,0.000,0.000
4660,0.000,0.005
4661,0.000,0.000
4662,0.000,0.000
4663,-0.045,0.045
4664,-0.190,0.175
4665,-0.430,0.415
4666,-0.655,0.665
4667,-0.710,0.690
4668,-0.500,0.380
4669,-0.205,0.050
4670,-0.015,-0.070
4671,0.060,-0.080
4672,0.080,-0.065
4673,0.080,-0.055
4674,0.080,-0.050
4675,0.080,-0.050
4676,0.080,-0.050
4677,0.075,-0.050
4678,0.075,-0.050
4679,0.080,-0.050
4680,0.080,-0.050
4681,0.085,-0.050
4682,0.080,-0.050
4683,0.075,-0.050
4684,0.075,-0.055
4685,0.080,-0.050
4686,0.075,-0.050
4687,0.075,-0.055
4688,0.075,-0.055
4689,0.075,-0.055
4690,0.075,-0.055
4691,0.080,-0.065
4692,0.080,-0.065
4693,0.080,-0.065
4694,0.080,-0.065
4695,0.085,-0.075
4696,0.085,-0.080
4697,0.105,-0.100
4698,0.110,-0.105
4699,0.115,-0.130
4700,0.125,-0.150
4701,0.130,-0.165
4702,0.130,-0.180
4703,0.130,-0.200
4704,0.120,-0.215
4705,0.115,-0.230
4706,0.110,-0.230
4707,0.105,-0.225
4708,0.085,-0.215
4709,0.075,-0.200
4710,0.065,-0.175
4711,0.055,-0.155
4712,0.040,-0.130
4713,0.025,-0.105
4714,0.010,-0.075
4715,0.000,-0.050
4716,0.000,-0.025
4717,-0.005,-0.005
4718,-0.015,0.000
4719,-0.025,0.005
4720,-0.035,0.020
4721,-0.045,0.035
4722,-0.050,0.050
4723,-0.050,0.055
4724,-0.065,0.065
4725,-0.075,0.065
4726,-0.075,0.075
4727,-0.075,0.075
4728,-0.075,0.075
4729,-0.070,0.075
4730,-0.065,0.075
4731,-0.065,0.065
4732,-0.065,0.065
4733,-0.065,0.065
4734,-0.065,0.065
4735,-0.065,0.060
4736,-0.065,0.055
4737,-0.065,0.055
4738,-0.065,0.055
4739,-0.055,0.055
4740,-0.050,0.055
4741,-0.050,0.050
4742,-0.050,0.050
4743,-0.055,0.050
4744,-0.065,0.065
4745,-0.070,0.085
4746,-0.075,0.085
4747,-0.075,0.090
4748,-0.100,0.105
4749,-0.120,0.110
4750,-0.125,0.100
4751,-0.110,0.105
4752,-0.100,0.095
4753,-0.080,0.080
4754,-0.060,0.050
4755,-0.040,0.030
4756,-0.035,0.015
4757,-0.035,0.015
4758,-0.035,0.015
4759,-0.025,0.010
4760,-0.020,0.010
4761,-0.020,0.010
4762,-0.025,0.010
4763,-0.020,0.005
4764,-0.020,0.000
4765,-0.050,0.025
4766,-0.150,0.115
4767,-0.345,0.310
4768,-0.590,0.570
4769,-0.705,0.690
4770,-0.590,0.490
4771,-0.290,0.100
4772,-0.070,-0.065
4773,0.015,-0.075
4774,0.050,-0.060
4775,0.050,-0.045
4776,0.050,-0.050
4777,0.055,-0.050
4778,0.065,-0.045
4779,0.065,-0.045
4780,0.055,-0.045
4781,0.055,-0.045
4782,0.055,-0.045
4783,0.060,-0.045
4784,0.055,-0.045
4785,0.055,-0.045
4786,0.055,-0.045
4787,0.055,-0.045
4788,0.055,-0.040
4789,0.055,-0.040
4790,0.060,-0.045
4791,0.055,-0.045
4792,0.060,-0.050
4793,0.060,-0.050
4794,0.060,-0.050
4795,0.065,-0.055
4796,0.065,-0.060
4797,0.070,-0.065
4798,0.075,-0.075
4799,0.085,-0.085
4800,0.095,-0.100
4801,0.100,-0.115
4802,0.105,-0.130
4803,0.110,-0.150
4804,0.110,-0.165
4805,0.110,-0.180
4806,0.110,-0.200
4807,0.105,-0.210
4808,0.095,-0.215
4809,0.090,-0.215
4810,0.080,-0.205
4811,0.070,-0.190
4812,0.060,-0.170
4813,0.050,-0.150
4814,0.030,-0.120
4815,0.015,-0.095
4816,0.010,-0.070
4817,0.000,-0.045
4818,0.000,-0.015
4819,0.000,0.000
4820,-0.010,0.000
4821,-0.020,0.015
4822,-0.020,0.025
4823,-0.025,0.035
4824,-0.030,0.050
4825,-0.040,0.055
4826,-0.045,0.065
4827,-0.045,0.065
4828,-0.040,0.070
4829,-0.040,0.070
4830,-0.040,0.070
4831,-0.045,0.075
4832,-0.045,0.075
4833,-0.045,0.070
4834,-0.040,0.065
4835,-0.035,0.060
4836,-0.035,0.060
4837,-0.035,0.055
4838,-0.030,0.055
4839,-0.030,0.055
4840,-0.025,0.050
4841,-0.020,0.050
4842,-0.020,0.040
4843,-0.020,0.040
4844,-0.020,0.045
4845,-0.020,0.045
4846,-0.020,0.055
4847,-0.030,0.070
4848,-0.035,0.080
4849,-0.045,0.085
4850,-0.060,0.100
4851,-0.085,0.110
4852,-0.085,0.105
4853,-0.075,0.105
4854,-0.065,0.100
4855,-0.040,0.080
4856,-0.020,0.055
4857,-0.005,0.025
4858,0.000,0.015
4859,0.000,0.010
4860,0.000,0.005
4861,0.000,0.000
4862,0.000,0.005
4863,0.000,0.000
4864,0.000,0.005
4865,0.000,0.000
4866,0.005,0.000
4867,0.000,0.010
4868,-0.070,0.075
4869,-0.270,0.265
4870,-0.520,0.535
4871,-0.670,0.690
4872,-0.565,0.485
4873,-0.285,0.130
4874,-0.060,-0.045
4875,0.040,-0.075
4876,0.080,-0.070
4877,0.090,-0.055
4878,0.105,-0.060
4879,0.105,-0.055
4880,0.105,-0.060
4881,0.110,-0.055
4882,0.110,-0.060
4883,0.110,-0.055
4884,0.110,-0.060
4885,0.110,-0.060
4886,0.110,-0.060
4887,0.110,-0.060
4888,0.110,-0.060
4889,0.110,-0.060
4890,0.110,-0.065
4891,0.110,-0.065
4892,0.110,-0.065
4893,0.110,-0.065
4894,0.110,-0.065
4895,0.110,-0.065
4896,0.110,-0.070
4897,0.115,-0.070
4898,0.115,-0.075
4899,0.125,-0.075
4900,0.130,-0.085
4901,0.130,-0.100
4902,0.135,-0.110
4903,0.150,-0.125
4904,0.155,-0.150
4905,0.155,-0.160
4906,0.165,-0.185
4907,0.165,-0.190
4908,0.155,-0.215
4909,0.155,-0.220
4910,0.145,-0.220
4911,0.135,-0.225
4912,0.125,-0.215
4913,0.120,-0.205
4914,0.105,-0.180
4915,0.090,-0.160
4916,0.080,-0.140
4917,0.065,-0.115
4918,0.060,-0.085
4919,0.045,-0.060
4920,0.030,-0.035
4921,0.020,-0.015
4922,0.010,0.000
4923,0.000,0.000
4924,0.000,0.005
4925,0.000,0.020
4926,0.000,0.035
4927,-0.005,0.040
4928,-0.015,0.050
4929,-0.020,0.055
4930,-0.020,0.055
4931,-0.020,0.060
4932,-0.020,0.060
4933,-0.020,0.065
4934,-0.020,0.060
4935,-0.020,0.055
4936,-0.020,0.055
4937,-0.020,0.055
4938,-0.015,0.055
4939,-0.015,0.050
4940,-0.020,0.040
4941,-0.020,0.040
4942,-0.020,0.040
4943,-0.020,0.035
4944,-0.020,0.035
4945,-0.015,0.035
4946,-0.010,0.035
4947,-0.010,0.035
4948,-0.020,0.050
4949,-0.020,0.065
4950,-0.020,0.075
4951,-0.025,0.075
4952,-0.040,0.085
4953,-0.065,0.095
4954,-0.075,0.100
4955,-0.080,0.095
4956,-0.070,0.100
4957,-0.045,0.080
4958,-0.020,0.060
4959,0.000,0.020
4960,0.000,0.010
4961,0.000,0.000
4962,0.000,0.000
4963,0.000,0.000
4964,0.000,0.000
4965,0.000,0.000
4966,0.000,0.000
4967,0.000,0.000
4968,0.010,0.000
4969,0.000,0.005
4970,-0.050,0.050
4971,-0.200,0.195
4972,-0.435,0.445
4973,-0.645,0.660
4974,-0.650,0.620
4975,-0.420,0.295
4976,-0.135,0.000
4977,0.015,-0.085
4978,0.085,-0.080
4979,0.105,-0.065
4980,0.100,-0.050
4981,0.095,-0.060
4982,0.105,-0.055
4983,0.110,-0.060
4984,0.110,-0.060
4985,0.110,-0.060
4986,0.110,-0.060
4987,0.110,-0.060
4988,0.110,-0.060
4989,0.110,-0.060
4990,0.110,-0.055
4991,0.110,-0.055
4992,0.110,-0.055
4993,0.110,-0.055
4994,0.110,-0.060
4995,0.110,-0.065
4996,0.110,-0.065
4997,0.110,-0.065
4998,0.110,-0.065
4999,0.110,-0.065
5000,0.110,-0.070
5001,0.110,-0.075
5002,0.115,-0.080
5003,0.125,-0.085
5004,0.130,-0.100
5005,0.135,-0.120
5006,0.140,-0.135
5007,0.145,-0.155
5008,0.150,-0.175
5009,0.150,-0.190
5010,0.150,-0.205
5011,0.155,-0.220
5012,0.150,-0.230
5013,0.140,-0.225
5014,0.130,-0.220
5015,0.120,-0.210
5016,0.110,-0.195
5017,0.100,-0.175
5018,0.080,-0.155
5019,0.070,-0.130
5020,0.060,-0.100
5021,0.045,-0.075
5022,0.030,-0.050
5023,0.020,-0.025
5024,0.005,-0.010
5025,0.000,0.000
5026,0.000,0.005
5027,-0.010,0.020
5028,-0.015,0.030
5029,-0.020,0.040
5030,-0.020,0.050
5031,-0.025,0.065
5032,-0.025,0.065
5033,-0.030,0.065
5034,-0.040,0.060
5035,-0.040,0.065
5036,-0.040,0.065
5037,-0.040,0.065
5038,-0.040,0.060
5039,-0.030,0.060
5040,-0.035,0.055
5041,-0.035,0.055
5042,-0.030,0.050
5043,-0.030,0.045
5044,-0.030,0.045
5045,-0.030,0.040
5046,-0.025,0.040
5047,-0.020,0.040
5048,-0.020,0.040
5049,-0.020,0.035
5050,-0.020,0.040
5051,-0.020,0.050
5052,-0.030,0.070
5053,-0.030,0.075
5054,-0.035,0.080
5055,-0.055,0.095
5056,-0.080,0.105
5057,-0.085,0.100
5058,-0.080,0.095
5059,-0.075,0.095
5060,-0.055,0.070
5061,-0.025,0.045
5062,0.000,0.020
5063,0.000,0.005
5064,0.000,0.000
5065,0.000,0.000
5066,0.000,0.000
5067,0.000,0.000
5068,0.000,0.000
5069,0.000,0.000
5070,0.000,0.000
5071,0.000,0.000
5072,-0.005,0.010
5073,-0.080,0.080
5074,-0.275,0.270
5075,-0.545,0.550
5076,-0.720,0.740
5077,-0.640,0.580
5078,-0.300,0.140
5079,-0.045,-0.065
5080,0.050,-0.090
5081,0.100,-0.080
5082,0.095,-0.060
5083,0.095,-0.060
5084,0.105,-0.055
5085,0.105,-0.060
5086,0.105,-0.065
5087,0.110,-0.065
5088,0.110,-0.065
5089,0.105,-0.065
5090,0.105,-0.060
5091,0.105,-0.060
5092,0.105,-0.060
5093,0.110,-0.060
5094,0.110,-0.060
5095,0.110,-0.060
5096,0.110,-0.065
5097,0.110,-0.065
5098,0.110,-0.065
5099,0.110,-0.065
5100,0.105,-0.065
5101,0.105,-0.065
5102,0.110,-0.065
5103,0.110,-0.075
5104,0.110,-0.075
5105,0.115,-0.085
5106,0.120,-0.095
5107,0.125,-0.110
5108,0.130,-0.125
5109,0.135,-0.145
5110,0.145,-0.160
5111,0.150,-0.180
5112,0.145,-0.195
5113,0.145,-0.215
5114,0.140,-0.220
5115,0.135,-0.230
5116,0.130,-0.230
5117,0.125,-0.225
5118,0.115,-0.205
5119,0.100,-0.190
5120,0.095,-0.170
5121,0.075,-0.150
5122,0.070,-0.120
5123,0.055,-0.095
5124,0.040,-0.065
5125,0.025,-0.040
5126,0.015,-0.020
5127,0.005,0.000
5128,0.000,0.000
5129,0.000,0.015
5130,-0.005,0.025
5131,-0.015,0.040
5132,-0.020,0.050
5133,-0.025,0.060
5134,-0.040,0.065
5135,-0.040,0.070
5136,-0.040,0.070
5137,-0.045,0.070
5138,-0.045,0.065
5139,-0.040,0.065
5140,-0.040,0.065
5141,-0.040,0.065
5142,-0.040,0.060
5143,-0.040,0.055
5144,-0.035,0.050
5145,-0.030,0.050
5146,-0.030,0.050
5147,-0.030,0.050
5148,-0.030,0.045
5149,-0.030,0.040
5150,-0.025,0.040
5151,-0.020,0.040
5152,-0.030,0.040
5153,-0.030,0.040
5154,-0.030,0.060
5155,-0.050,0.075
5156,-0.050,0.075
5157,-0.055,0.085
5158,-0.085,0.110
5159,-0.100,0.105
5160,-0.100,0.095
5161,-0.090,0.095
5162,-0.070,0.080
5163,-0.050,0.065
5164,-0.025,0.030
5165,-0.010,0.015
5166,-0.010,0.005
5167,0.000,0.005
5168,0.000,0.000
5169,0.000,0.000
5170,0.000,0.000
5171,0.000,0.000
5172,0.000,0.000
5173,0.000,0.000
5174,0.000,0.000
5175,-0.045,0.040
5176,-0.180,0.175
5177,-0.430,0.420
5178,-0.655,0.665
5179,-0.690,0.665
5180,-0.470,0.350
5181,-0.180,0.035
5182,0.000,-0.075
5183,0.075,-0.085
5184,0.100,-0.070
5185,0.100,-0.060
5186,0.105,-0.065
5187,0.105,-0.065
5188,0.110,-0.065
5189,0.110,-0.065
5190,0.105,-0.065
5191,0.105,-0.065
5192,0.110,-0.065
5193,0.105,-0.065
5194,0.095,-0.065
5195,0.105,-0.065
5196,0.110,-0.065
5197,0.110,-0.065
5198,0.110,-0.065
5199,0.110,-0.065
5200,0.105,-0.065
5201,0.100,-0.065
5202,0.105,-0.065
5203,0.105,-0.070
5204,0.110,-0.070
5205,0.110,-0.075
5206,0.110,-0.075
5207,0.110,-0.080
5208,0.110,-0.085
5209,0.110,-0.100
5210,0.115,-0.105
5211,0.125,-0.135
5212,0.140,-0.150
5213,0.145,-0.175
5214,0.150,-0.185
5215,0.145,-0.205
5216,0.140,-0.215
5217,0.140,-0.225
5218,0.130,-0.225
5219,0.125,-0.225
5220,0.120,-0.215
5221,0.110,-0.200
5222,0.095,-0.175
5223,0.080,-0.155
5224,0.070,-0.135
5225,0.055,-0.105
5226,0.035,-0.075
5227,0.030,-0.055
5228,0.020,-0.025
5229,0.005,-0.005
5230,0.000,0.000
5231,0.000,0.005
5232,-0.005,0.015
5233,-0.015,0.030
5234,-0.020,0.040
5235,-0.025,0.050
5236,-0.040,0.060
5237,-0.040,0.065
5238,-0.040,0.065
5239,-0.040,0.065
5240,-0.050,0.070
5241,-0.050,0.065
5242,-0.045,0.065
5243,-0.045,0.065
5244,-0.050,0.060
5245,-0.045,0.060
5246,-0.040,0.055
5247,-0.040,0.050
5248,-0.040,0.050
5249,-0.035,0.050
5250,-0.035,0.050
5251,-0.040,0.050
5252,-0.035,0.040
5253,-0.035,0.040
5254,-0.030,0.040
5255,-0.030,0.050
5256,-0.045,0.065
5257,-0.050,0.080
5258,-0.050,0.080
5259,-0.050,0.085
5260,-0.080,0.100
5261,-0.100,0.110
5262,-0.110,0.105
5263,-0.100,0.105
5264,-0.080,0.095
5265,-0.055,0.070
5266,-0.030,0.045
5267,-0.020,0.025
5268,-0.015,0.010
5269,-0.010,0.005
5270,-0.010,0.005
5271,-0.005,0.005
5272,0.000,0.000
5273,0.000,0.000
5274,0.000,0.005
5275,0.000,0.000
5276,0.000,0.000
5277,-0.020,0.020
5278,-0.125,0.115
5279,-0.335,0.315
5280,-0.585,0.585
5281,-0.725,0.720
5282,-0.605,0.525
5283,-0.285,0.125
5284,-0.050,-0.060
5285,0.055,-0.090
5286,0.090,-0.075
5287,0.100,-0.055
5288,0.100,-0.060
5289,0.110,-0.060
5290,0.105,-0.060
5291,0.105,-0.055
5292,0.100,-0.060
5293,0.095,-0.060
5294,0.100,-0.060
5295,0.105,-0.055
5296,0.105,-0.060
5297,0.095,-0.060
5298,0.095,-0.055
5299,0.095,-0.055
5300,0.095,-0.050
5301,0.090,-0.050
5302,0.090,-0.050
5303,0.100,-0.060
5304,0.105,-0.055
5305,0.095,-0.060
5306,0.095,-0.065
5307,0.095,-0.065
5308,0.090,-0.065
5309,0.095,-0.070
5310,0.105,-0.080
5311,0.110,-0.090
5312,0.110,-0.110
5313,0.115,-0.125
5314,0.120,-0.145
5315,0.130,-0.160
5316,0.130,-0.175
5317,0.130,-0.195
5318,0.130,-0.210
5319,0.125,-0.215
5320,0.120,-0.225
5321,0.125,-0.225
5322,0.110,-0.220
5323,0.100,-0.205
5324,0.080,-0.185
5325,0.070,-0.165
5326,0.055,-0.140
5327,0.050,-0.110
5328,0.030,-0.085
5329,0.010,-0.060
5330,0.000,-0.035
5331,0.000,-0.005
5332,-0.005,0.000
5333,-0.015,0.000
5334,-0.020,0.015
5335,-0.035,0.030
5336,-0.045,0.045
5337,-0.050,0.050
5338,-0.050,0.060
5339,-0.050,0.065
5340,-0.060,0.070
5341,-0.070,0.075
5342,-0.070,0.075
5343,-0.070,0.075
5344,-0.070,0.075
5345,-0.065,0.070
5346,-0.070,0.065
5347,-0.070,0.065
5348,-0.065,0.065
5349,-0.055,0.060
5350,-0.060,0.060
5351,-0.060,0.060
5352,-0.050,0.055
5353,-0.055,0.055
5354,-0.055,0.050
5355,-0.055,0.050
5356,-0.055,0.045
5357,-0.055,0.045
5358,-0.055,0.055
5359,-0.065,0.065
5360,-0.075,0.085
5361,-0.075,0.085
5362,-0.085,0.090
5363,-0.110,0.105
5364,-0.120,0.110
5365,-0.115,0.100
5366,-0.105,0.105
5367,-0.090,0.090
5368,-0.060,0.070
5369,-0.045,0.035
5370,-0.035,0.020
5371,-0.025,0.010
5372,-0.025,0.010
5373,-0.020,0.010
5374,-0.020,0.010
5375,-0.020,0.010
5376,-0.025,0.010
5377,-0.020,0.010
5378,-0.020,0.005
5379,-0.020,0.000
5380,-0.065,0.040
5381,-0.195,0.155
5382,-0.435,0.410
5383,-0.660,0.655
5384,-0.710,0.675
5385,-0.490,0.340
5386,-0.205,0.040
5387,-0.035,-0.060
5388,0.030,-0.070
5389,0.050,-0.050
5390,0.055,-0.045
5391,0.060,-0.050
5392,0.060,-0.050
5393,0.060,-0.050
5394,0.060,-0.050
5395,0.055,-0.050
5396,0.060,-0.050
5397,0.065,-0.045
5398,0.060,-0.045
5399,0.055,-0.045
5400,0.065,-0.045
5401,0.060,-0.045
5402,0.060,-0.045
5403,0.065,-0.050
5404,0.065,-0.050
5405,0.060,-0.050
5406,0.060,-0.050
5407,0.065,-0.050
5408,0.070,-0.050
5409,0.070,-0.050
5410,0.065,-0.055
5411,0.065,-0.055
5412,0.075,-0.065
5413,0.080,-0.070
5414,0.090,-0.090
5415,0.095,-0.095
5416,0.095,-0.115
5417,0.110,-0.135
5418,0.110,-0.160
5419,0.110,-0.165
5420,0.105,-0.185
5421,0.105,-0.190
5422,0.110,-0.210
5423,0.105,-0.215
5424,0.085,-0.215
5425,0.075,-0.195
5426,0.065,-0.180
5427,0.055,-0.160
5428,0.035,-0.140
5429,0.020,-0.110
5430,0.005,-0.085
5431,0.000,-0.060
5432,0.000,-0.030
5433,0.000,-0.015
5434,-0.010,0.000
5435,-0.020,0.005
5436,-0.030,0.020
5437,-0.040,0.035
5438,-0.045,0.045
5439,-0.050,0.055
5440,-0.055,0.065
5441,-0.055,0.070
5442,-0.065,0.075
5443,-0.065,0.080
5444,-0.070,0.080
5445,-0.065,0.080
5446,-0.060,0.080
5447,-0.060,0.080
5448,-0.055,0.075
5449,-0.050,0.070
5450,-0.050,0.065
5451,-0.050,0.065
5452,-0.050,0.060
5453,-0.050,0.060
5454,-0.050,0.060
5455,-0.050,0.055
5456,-0.050,0.055
5457,-0.045,0.050
5458,-0.040,0.050
5459,-0.040,0.050
5460,-0.040,0.055
5461,-0.045,0.060
5462,-0.045,0.080
5463,-0.050,0.085
5464,-0.050,0.085
5465,-0.060,0.095
5466,-0.080,0.110
5467,-0.090,0.095
5468,-0.085,0.105
5469,-0.080,0.100
5470,-0.060,0.090
5471,-0.040,0.060
5472,-0.025,0.035
5473,-0.010,0.015
5474,0.000,0.010
5475,0.000,0.010
5476,0.000,0.010
5477,0.000,0.005
5478,0.000,0.005
5479,0.000,0.005
5480,0.000,0.000
5481,0.000,0.000
5482,-0.005,0.010
5483,-0.065,0.065
5484,-0.235,0.220
5485,-0.480,0.470
5486,-0.645,0.645
5487,-0.605,0.540
5488,-0.360,0.205
5489,-0.110,-0.025
5490,0.015,-0.075
5491,0.060,-0.065
5492,0.080,-0.055
5493,0.085,-0.055
5494,0.095,-0.050
5495,0.095,-0.055
5496,0.100,-0.055
5497,0.095,-0.060
5498,0.100,-0.055
5499,0.105,-0.060
5500,0.105,-0.055
5501,0.105,-0.060
5502,0.110,-0.060
5503,0.110,-0.055
5504,0.110,-0.055
5505,0.110,-0.055
5506,0.110,-0.060
5507,0.105,-0.065
5508,0.105,-0.065
5509,0.110,-0.060
5510,0.110,-0.060
5511,0.110,-0.065
5512,0.110,-0.070
5513,0.115,-0.070
5514,0.110,-0.070
5515,0.120,-0.080
5516,0.130,-0.090
5517,0.130,-0.100
5518,0.135,-0.115
5519,0.145,-0.130
5520,0.155,-0.150
5521,0.155,-0.165
5522,0.160,-0.185
5523,0.155,-0.200
5524,0.145,-0.210
5525,0.145,-0.215
5526,0.140,-0.215
5527,0.130,-0.215
5528,0.120,-0.200
5529,0.110,-0.180
5530,0.095,-0.160
5531,0.080,-0.140
5532,0.065,-0.115
5533,0.055,-0.090
5534,0.050,-0.060
5535,0.030,-0.035
5536,0.020,-0.015
5537,0.015,0.000
5538,0.005,0.000
5539,0.000,0.010
5540,0.000,0.025
5541,0.000,0.035
5542,0.000,0.040
5543,-0.015,0.055
5544,-0.015,0.060
5545,-0.020,0.065
5546,-0.020,0.065
5547,-0.020,0.065
5548,-0.020,0.065
5549,-0.020,0.065
5550,-0.020,0.060
5551,-0.020,0.060
5552,-0.020,0.055
5553,-0.020,0.055
5554,-0.020,0.050
5555,-0.020,0.050
5556,-0.020,0.045
5557,-0.020,0.045
5558,-0.010,0.040
5559,-0.005,0.035
5560,-0.010,0.035
5561,-0.015,0.035
5562,-0.015,0.035
5563,-0.015,0.040
5564,-0.020,0.055
5565,-0.025,0.070
5566,-0.025,0.070
5567,-0.040,0.080
5568,-0.060,0.100
5569,-0.070,0.105
5570,-0.075,0.095
5571,-0.070,0.100
5572,-0.050,0.085
5573,-0.030,0.065
5574,-0.010,0.040
5575,0.000,0.015
5576,0.000,0.005
5577,0.000,0.000
5578,0.000,0.000
5579,0.000,0.000
5580,0.000,0.000
5581,0.000,0.000
5582,0.000,0.000
5583,0.005,0.000
5584,0.005,0.000
5585,-0.015,0.020
5586,-0.115,0.115
5587,-0.345,0.345
5588,-0.605,0.620
5589,-0.715,0.725
5590,-0.510,0.410
5591,-0.200,0.035
5592,-0.010,-0.070
5593,0.070,-0.080
5594,0.105,-0.065
5595,0.095,-0.065
5596,0.100,-0.055
5597,0.105,-0.060
5598,0.110,-0.060
5599,0.110,-0.060
5600,0.110,-0.065
5601,0.105,-0.065
5602,0.105,-0.055
5603,0.110,-0.060
5604,0.110,-0.055
5605,0.110,-0.060
5606,0.110,-0.055
5607,0.110,-0.060
5608,0.110,-0.060
5609,0.110,-0.060
5610,0.110,-0.065
5611,0.110,-0.065
5612,0.110,-0.065
5613,0.110,-0.065
5614,0.110,-0.065
5615,0.110,-0.070
5616,0.110,-0.070
5617,0.115,-0.080
5618,0.115,-0.080
5619,0.125,-0.095
5620,0.135,-0.105
5621,0.140,-0.130
5622,0.150,-0.150
5623,0.155,-0.170
5624,0.150,-0.185
5625,0.150,-0.200
5626,0.150,-0.210
5627,0.145,-0.225
5628,0.130,-0.225
5629,0.130,-0.230
5630,0.125,-0.215
5631,0.115,-0.205
5632,0.110,-0.185
5633,0.090,-0.165
5634,0.075,-0.140
5635,0.065,-0.110
5636,0.050,-0.080
5637,0.035,-0.055
5638,0.020,-0.040
5639,0.015,-0.010
5640,0.000,0.000
5641,0.000,0.005
5642,0.000,0.010
5643,-0.005,0.025
5644,-0.010,0.035
5645,-0.020,0.050
5646,-0.030,0.055
5647,-0.035,0.060
5648,-0.035,0.065
5649,-0.040,0.065
5650,-0.040,0.065
5651,-0.040,0.065
5652,-0.040,0.065
5653,-0.035,0.065
5654,-0.035,0.060
5655,-0.035,0.055
5656,-0.030,0.055
5657,-0.030,0.055
5658,-0.030,0.050
5659,-0.025,0.050
5660,-0.025,0.045
5661,-0.030,0.040
5662,-0.025,0.040
5663,-0.020,0.035
5664,-0.025,0.035
5665,-0.020,0.040
5666,-0.035,0.050
5667,-0.040,0.070
5668,-0.040,0.075
5669,-0.045,0.085
5670,-0.065,0.095
5671,-0.095,0.105
5672,-0.100,0.095
5673,-0.090,0.100
5674,-0.070,0.090
5675,-0.050,0.080
5676,-0.020,0.050
5677,0.000,0.025
5678,0.000,0.005
5679,0.000,0.005
5680,0.000,0.005
5681,0.000,0.000
5682,0.000,0.000
5683,0.000,0.000
5684,0.000,0.000
5685,0.000,0.000
5686,0.000,0.000
5687,-0.010,0.015
5688,-0.090,0.090
5689,-0.295,0.285
5690,-0.550,0.560
5691,-0.695,0.705
5692,-0.585,0.515
5693,-0.300,0.155
5694,-0.065,-0.045
5695,0.050,-0.085
5696,0.095,-0.075
5697,0.100,-0.065
5698,0.095,-0.060
5699,0.105,-0.055
5700,0.105,-0.065
5701,0.105,-0.065
5702,0.105,-0.060
5703,0.105,-0.055
5704,0.100,-0.060
5705,0.100,-0.060
5706,0.110,-0.060
5707,0.110,-0.060
5708,0.110,-0.060
5709,0.110,-0.055
5710,0.110,-0.055
5711,0.110,-0.055
5712,0.110,-0.055
5713,0.105,-0.055
5714,0.100,-0.055
5715,0.105,-0.065
5716,0.110,-0.065
5717,0.110,-0.070
5718,0.110,-0.070
5719,0.110,-0.070
5720,0.110,-0.075
5721,0.110,-0.095
5722,0.120,-0.105
5723,0.125,-0.130
5724,0.130,-0.140
5725,0.135,-0.160
5726,0.140,-0.180
5727,0.140,-0.200
5728,0.140,-0.210
5729,0.145,-0.225
5730,0.140,-0.225
5731,0.135,-0.230
5732,0.125,-0.225
5733,0.115,-0.210
5734,0.110,-0.190
5735,0.095,-0.170
5736,0.075,-0.145
5737,0.070,-0.115
5738,0.060,-0.090
5739,0.040,-0.065
5740,0.025,-0.035
5741,0.015,-0.015
5742,0.005,-0.005
5743,0.000,0.005
5744,0.000,0.015
5745,-0.005,0.025
5746,-0.015,0.035
5747,-0.020,0.045
5748,-0.025,0.055
5749,-0.030,0.060
5750,-0.040,0.065
5751,-0.040,0.065
5752,-0.040,0.065
5753,-0.040,0.065
5754,-0.040,0.065
5755,-0.040,0.065
5756,-0.040,0.060
5757,-0.040,0.055
5758,-0.040,0.055
5759,-0.035,0.055
5760,-0.030,0.055
5761,-0.030,0.045
5762,-0.035,0.045
5763,-0.030,0.040
5764,-0.025,0.040
5765,-0.020,0.040
5766,-0.025,0.040
5767,-0.035,0.050
5768,-0.040,0.070
5769,-0.040,0.080
5770,-0.045,0.080
5771,-0.060,0.090
5772,-0.090,0.105
5773,-0.100,0.105
5774,-0.105,0.100
5775,-0.095,0.100
5776,-0.070,0.080
5777,-0.040,0.055
5778,-0.020,0.030
5779,-0.010,0.010
5780,-0.010,0.010
5781,-0.005,0.010
5782,0.000,0.005
5783,-0.005,0.000
5784,0.000,0.000
5785,0.000,0.000
5786,0.000,0.000
5787,0.000,0.000
5788,-0.010,0.010
5789,-0.065,0.060
5790,-0.215,0.195
5791,-0.460,0.450
5792,-0.670,0.680
5793,-0.690,0.665
5794,-0.440,0.300
5795,-0.135,-0.010
5796,0.015,-0.090
5797,0.080,-0.080
5798,0.090,-0.065
5799,0.090,-0.065
5800,0.095,-0.065
5801,0.105,-0.065
5802,0.110,-0.060
5803,0.110,-0.060
5804,0.110,-0.060
5805,0.110,-0.060
5806,0.095,-0.060
5807,0.100,-0.060
5808,0.100,-0.060
5809,0.100,-0.055
5810,0.105,-0.060
5811,0.110,-0.060
5812,0.110,-0.060
5813,0.100,-0.055
5814,0.100,-0.055
5815,0.105,-0.060
5816,0.100,-0.065
5817,0.095,-0.065
5818,0.095,-0.065
5819,0.100,-0.070
5820,0.105,-0.075
5821,0.110,-0.080
5822,0.110,-0.085
5823,0.115,-0.095
5824,0.125,-0.115
5825,0.130,-0.135
5826,0.135,-0.150
5827,0.145,-0.170
5828,0.145,-0.185
5829,0.145,-0.200
5830,0.140,-0.215
5831,0.130,-0.220
5832,0.130,-0.225
5833,0.125,-0.215
5834,0.115,-0.210
5835,0.105,-0.195
5836,0.100,-0.175
5837,0.080,-0.155
5838,0.065,-0.130
5839,0.050,-0.105
5840,0.040,-0.075
5841,0.025,-0.045
5842,0.015,-0.020
5843,0.000,0.000
5844,0.000,0.000
5845,0.000,0.010
5846,-0.010,0.025
5847,-0.015,0.030
5848,-0.020,0.045
5849,-0.025,0.050
5850,-0.035,0.060
5851,-0.045,0.065
5852,-0.050,0.070
5853,-0.050,0.065
5854,-0.050,0.070
5855,-0.050,0.065
5856,-0.045,0.065
5857,-0.045,0.060
5858,-0.045,0.060
5859,-0.050,0.050
5860,-0.040,0.050
5861,-0.040,0.055
5862,-0.040,0.050
5863,-0.040,0.045
5864,-0.035,0.045
5865,-0.030,0.040
5866,-0.030,0.040
5867,-0.030,0.040
5868,-0.035,0.055
5869,-0.050,0.070
5870,-0.050,0.085
5871,-0.050,0.085
5872,-0.075,0.095
5873,-0.100,0.115
5874,-0.105,0.110
5875,-0.100,0.100
5876,-0.090,0.100
5877,-0.070,0.075
5878,-0.040,0.055
5879,-0.020,0.025
5880,-0.020,0.010
5881,-0.015,0.005
5882,-0.005,0.005
5883,-0.005,0.005
5884,-0.005,0.000
5885,-0.005,0.000
5886,-0.010,0.000
5887,-0.005,0.000
5888,0.000,0.000
5889,-0.005,0.000
5890,-0.080,0.060
5891,-0.250,0.225
5892,-0.515,0.510
5893,-0.730,0.730
5894,-0.685,0.625
5895,-0.390,0.225
5896,-0.110,-0.020
5897,0.020,-0.080
5898,0.085,-0.075
5899,0.095,-0.060
5900,0.095,-0.060
5901,0.095,-0.060
5902,0.095,-0.060
5903,0.095,-0.055
5904,0.095,-0.060
5905,0.095,-0.055
5906,0.095,-0.060
5907,0.095,-0.055
5908,0.095,-0.060
5909,0.095,-0.055
5910,0.095,-0.055
5911,0.095,-0.060
5912,0.095,-0.055
5913,0.095,-0.060
5914,0.095,-0.055
5915,0.095,-0.055
5916,0.095,-0.055
5917,0.095,-0.060
5918,0.085,-0.060
5919,0.085,-0.060
5920,0.090,-0.065
5921,0.100,-0.070
5922,0.105,-0.075
5923,0.110,-0.085
5924,0.110,-0.105
5925,0.120,-0.115
5926,0.125,-0.135
5927,0.130,-0.155
5928,0.140,-0.175
5929,0.135,-0.190
5930,0.135,-0.205
5931,0.135,-0.210
5932,0.130,-0.220
5933,0.120,-0.220
5934,0.110,-0.220
5935,0.110,-0.200
5936,0.095,-0.190
5937,0.080,-0.165
5938,0.070,-0.145
5939,0.055,-0.115
5940,0.035,-0.090
5941,0.025,-0.065
5942,0.015,-0.040
5943,0.000,-0.015
5944,0.000,0.000
5945,-0.005,0.005
5946,-0.015,0.020
5947,-0.025,0.030
5948,-0.035,0.045
5949,-0.045,0.055
5950,-0.050,0.060
5951,-0.050,0.065
5952,-0.055,0.075
5953,-0.055,0.075
5954,-0.065,0.075
5955,-0.065,0.080
5956,-0.070,0.075
5957,-0.065,0.070
5958,-0.060,0.065
5959,-0.060,0.065
5960,-0.065,0.065
5961,-0.060,0.060
5962,-0.060,0.055
5963,-0.065,0.060
5964,-0.065,0.055
5965,-0.065,0.055
5966,-0.065,0.050
5967,-0.060,0.055
5968,-0.060,0.055
5969,-0.065,0.065
5970,-0.075,0.085
5971,-0.075,0.090
5972,-0.095,0.090
5973,-0.110,0.110
5974,-0.125,0.110
5975,-0.130,0.110
5976,-0.130,0.110
5977,-0.110,0.105
5978,-0.085,0.085
5979,-0.060,0.050
5980,-0.040,0.030
5981,-0.030,0.015
5982,-0.030,0.015
5983,-0.025,0.010
5984,-0.025,0.010
5985,-0.020,0.010
5986,-0.025,0.010
5987,-0.025,0.010
5988,-0.020,0.010
5989,-0.015,0.000
5990,-0.050,0.035
5991,-0.160,0.130
5992,-0.370,0.335
5993,-0.615,0.595
5994,-0.730,0.700
5995,-0.595,0.480
5996,-0.310,0.125
5997,-0.085,-0.045
5998,0.020,-0.075
5999,0.050,-0.060
6000,0.055,-0.045
6001,0.055,-0.045
6002,0.055,-0.045
6003,0.060,-0.045
6004,0.065,-0.045
6005,0.065,-0.045
6006,0.060,-0.045
6007,0.060,-0.045
6008,0.060,-0.040
6009,0.055,-0.040
6010,0.060,-0.040
6011,0.065,-0.045
6012,0.060,-0.045
6013,0.060,-0.045
6014,0.055,-0.040
6015,0.055,-0.040
6016,0.055,-0.040
6017,0.055,-0.040
6018,0.060,-0.045
6019,0.060,-0.050
6020,0.060,-0.050
6021,0.065,-0.055
6022,0.070,-0.060
6023,0.075,-0.070
6024,0.075,-0.080
6025,0.085,-0.095
6026,0.090,-0.115
6027,0.100,-0.125
6028,0.105,-0.150
6029,0.110,-0.165
6030,0.110,-0.180
6031,0.110,-0.195
6032,0.110,-0.205
6033,0.105,-0.215
6034,0.095,-0.215
6035,0.080,-0.205
6036,0.065,-0.190
6037,0.055,-0.165
6038,0.040,-0.145
6039,0.030,-0.120
6040,0.020,-0.090
6041,0.005,-0.065
6042,0.000,-0.040
6043,0.000,-0.015
6044,-0.010,0.000
6045,-0.020,0.000
6046,-0.030,0.015
6047,-0.035,0.035
6048,-0.045,0.050
6049,-0.055,0.065
6050,-0.055,0.065
6051,-0.070,0.075
6052,-0.070,0.075
6053,-0.070,0.080
6054,-0.075,0.080
6055,-0.075,0.085
6056,-0.075,0.085
6057,-0.075,0.080
6058,-0.075,0.080
6059,-0.075,0.080
6060,-0.075,0.075
6061,-0.070,0.075
6062,-0.070,0.065
6063,-0.070,0.065
6064,-0.070,0.065
6065,-0.070,0.065
6066,-0.070,0.060
6067,-0.065,0.060
6068,-0.065,0.055
6069,-0.060,0.065
6070,-0.070,0.080
6071,-0.080,0.090
6072,-0.085,0.095
6073,-0.090,0.105
6074,-0.110,0.120
6075,-0.125,0.115
6076,-0.125,0.115
6077,-0.115,0.115
6078,-0.100,0.105
6079,-0.080,0.080
6080,-0.065,0.055
6081,-0.045,0.030
6082,-0.035,0.025
6083,-0.030,0.025
6084,-0.030,0.020
6085,-0.030,0.020
6086,-0.025,0.020
6087,-0.020,0.020
6088,-0.020,0.015
6089,-0.015,0.010
6090,-0.020,0.010
6091,-0.065,0.055
6092,-0.195,0.170
6093,-0.435,0.405
6094,-0.640,0.630
6095,-0.680,0.645
6096,-0.465,0.310
6097,-0.185,0.010
6098,-0.010,-0.065
6099,0.035,-0.060
6100,0.055,-0.045
6101,0.060,-0.045
6102,0.070,-0.045
6103,0.075,-0.045
6104,0.075,-0.045
6105,0.075,-0.045
6106,0.075,-0.045
6107,0.075,-0.045
6108,0.080,-0.045
6109,0.075,-0.045
6110,0.075,-0.050
6111,0.075,-0.050
6112,0.080,-0.050
6113,0.085,-0.050
6114,0.085,-0.045
6115,0.085,-0.045
6116,0.085,-0.050
6117,0.090,-0.050
6118,0.095,-0.055
6119,0.095,-0.055
6120,0.095,-0.055
6121,0.100,-0.060
6122,0.105,-0.065
6123,0.115,-0.070
6124,0.115,-0.080
6125,0.125,-0.090
6126,0.130,-0.105
6127,0.135,-0.125
6128,0.145,-0.140
6129,0.145,-0.160
6130,0.145,-0.175
6131,0.140,-0.190
6132,0.140,-0.200
6133,0.130,-0.215
6134,0.125,-0.220
6135,0.120,-0.215
6136,0.110,-0.200
6137,0.105,-0.190
6138,0.085,-0.160
6139,0.070,-0.145
6140,0.065,-0.115
6141,0.050,-0.090
6142,0.035,-0.060
6143,0.025,-0.040
6144,0.020,-0.015
6145,0.010,0.000
6146,0.000,0.000
6147,0.000,0.005
6148,0.000,0.020
6149,0.000,0.035
6150,-0.015,0.045
6151,-0.020,0.050
6152,-0.020,0.055
6153,-0.020,0.060
6154,-0.020,0.065
6155,-0.020,0.065
6156,-0.020,0.065
6157,-0.020,0.065
6158,-0.020,0.065
6159,-0.020,0.065
6160,-0.020,0.060
6161,-0.020,0.060
6162,-0.020,0.050
6163,-0.020,0.050
6164,-0.020,0.055
6165,-0.020,0.055
6166,-0.020,0.050
6167,-0.020,0.045
6168,-0.020,0.040
6169,-0.020,0.040
6170,-0.020,0.045
6171,-0.020,0.060
6172,-0.025,0.075
6173,-0.025,0.085
6174,-0.035,0.085
6175,-0.055,0.100
6176,-0.075,0.105
6177,-0.075,0.105
6178,-0.070,0.105
6179,-0.065,0.100
6180,-0.040,0.080
6181,-0.010,0.050
6182,0.000,0.015
6183,0.000,0.010
6184,0.000,0.000
6185,0.000,0.005
6186,0.000,0.005
6187,0.000,0.005
6188,0.000,0.000
6189,0.000,0.005
6190,0.005,0.000
6191,0.010,0.000
6192,-0.015,0.025
6193,-0.105,0.115
6194,-0.335,0.330
6195,-0.585,0.600
6196,-0.685,0.690
6197,-0.520,0.420
6198,-0.235,0.080
6199,-0.035,-0.055
6200,0.060,-0.075
6201,0.095,-0.060
6202,0.100,-0.050
6203,0.095,-0.050
6204,0.100,-0.050
6205,0.105,-0.050
6206,0.110,-0.055
6207,0.110,-0.055
6208,0.110,-0.050
6209,0.110,-0.050
6210,0.110,-0.055
6211,0.110,-0.055
6212,0.110,-0.055
6213,0.110,-0.050
6214,0.110,-0.050
6215,0.110,-0.050
6216,0.110,-0.055
6217,0.110,-0.050
6218,0.110,-0.050
6219,0.110,-0.050
6220,0.110,-0.060
6221,0.110,-0.065
6222,0.110,-0.065
6223,0.110,-0.065
6224,0.120,-0.075
6225,0.130,-0.080
6226,0.130,-0.095
6227,0.135,-0.110
6228,0.145,-0.130
6229,0.150,-0.150
6230,0.155,-0.160
6231,0.160,-0.180
6232,0.165,-0.190
6233,0.160,-0.210
6234,0.155,-0.215
6235,0.145,-0.220
6236,0.135,-0.220
6237,0.125,-0.215
6238,0.120,-0.195
6239,0.105,-0.180
6240,0.095,-0.160
6241,0.080,-0.135
6242,0.065,-0.105
6243,0.050,-0.080
6244,0.035,-0.055
6245,0.025,-0.030
6246,0.010,-0.005
6247,0.000,0.000
6248,0.000,0.005
6249,0.000,0.020
6250,-0.005,0.030
6251,-0.010,0.045
6252,-0.015,0.055
6253,-0.020,0.060
6254,-0.025,0.065
6255,-0.025,0.065
6256,-0.025,0.070
6257,-0.025,0.070
6258,-0.025,0.070
6259,-0.025,0.065
6260,-0.025,0.065
6261,-0.020,0.065
6262,-0.020,0.060
6263,-0.025,0.055
6264,-0.025,0.055
6265,-0.020,0.055
6266,-0.020,0.055
6267,-0.020,0.055
6268,-0.020,0.050
6269,-0.020,0.045
6270,-0.020,0.050
6271,-0.020,0.040
6272,-0.020,0.050
6273,-0.020,0.065
6274,-0.025,0.080
6275,-0.035,0.080
6276,-0.050,0.100
6277,-0.075,0.110
6278,-0.090,0.105
6279,-0.085,0.105
6280,-0.080,0.105
6281,-0.055,0.085
6282,-0.030,0.060
6283,-0.010,0.035
6284,0.000,0.015
6285,0.000,0.010
6286,0.000,0.010
6287,0.000,0.010
6288,0.000,0.000
6289,0.000,0.005
6290,0.000,0.000
6291,0.000,0.000
6292,0.005,0.000
6293,0.000,0.010
6294,-0.055,0.055
6295,-0.210,0.200
6296,-0.455,0.450
6297,-0.660,0.675
6298,-0.660,0.635
6299,-0.425,0.295
6300,-0.140,0.000
6301,0.015,-0.080
6302,0.075,-0.075
6303,0.095,-0.060
6304,0.095,-0.055
6305,0.100,-0.055
6306,0.105,-0.055
6307,0.105,-0.055
6308,0.105,-0.055
6309,0.100,-0.055
6310,0.095,-0.050
6311,0.100,-0.050
6312,0.095,-0.050
6313,0.105,-0.050
6314,0.105,-0.050
6315,0.105,-0.050
6316,0.095,-0.050
6317,0.105,-0.050
6318,0.110,-0.050
6319,0.110,-0.050
6320,0.105,-0.055
6321,0.105,-0.050
6322,0.105,-0.060
6323,0.110,-0.065
6324,0.110,-0.065
6325,0.110,-0.065
6326,0.110,-0.075
6327,0.110,-0.080
6328,0.120,-0.095
6329,0.125,-0.115
6330,0.135,-0.130
6331,0.140,-0.150
6332,0.145,-0.165
6333,0.150,-0.185
6334,0.150,-0.200
6335,0.145,-0.215
6336,0.135,-0.220
6337,0.130,-0.225
6338,0.125,-0.220
6339,0.115,-0.205
6340,0.105,-0.190
6341,0.095,-0.170
6342,0.080,-0.150
6343,0.060,-0.120
6344,0.050,-0.095
6345,0.040,-0.065
6346,0.025,-0.045
6347,0.010,-0.025
6348,0.000,-0.005
6349,0.000,0.000
6350,0.000,0.005
6351,-0.010,0.030
6352,-0.020,0.035
6353,-0.020,0.050
6354,-0.040,0.060
6355,-0.035,0.065
6356,-0.035,0.070
6357,-0.040,0.070
6358,-0.040,0.070
6359,-0.045,0.070
6360,-0.050,0.070
6361,-0.050,0.070
6362,-0.045,0.070
6363,-0.045,0.060
6364,-0.040,0.065
6365,-0.040,0.055
6366,-0.040,0.055
6367,-0.040,0.055
6368,-0.030,0.055
6369,-0.030,0.050
6370,-0.030,0.050
6371,-0.035,0.045
6372,-0.030,0.050
6373,-0.030,0.055
6374,-0.035,0.060
6375,-0.045,0.075
6376,-0.045,0.080
6377,-0.045,0.085
6378,-0.065,0.100
6379,-0.085,0.110
6380,-0.095,0.105
6381,-0.095,0.105
6382,-0.075,0.100
6383,-0.050,0.085
6384,-0.020,0.055
6385,-0.005,0.025
6386,0.000,0.010
6387,0.000,0.010
6388,0.000,0.010
6389,0.000,0.010
6390,0.000,0.010
6391,0.000,0.010
6392,0.000,0.005
6393,0.000,0.000
6394,0.000,0.000
6395,-0.015,0.015
6396,-0.100,0.100
6397,-0.295,0.290
6398,-0.565,0.575
6399,-0.740,0.760
6400,-0.640,0.565
6401,-0.295,0.130
6402,-0.055,-0.055
6403,0.050,-0.090
6404,0.095,-0.075
6405,0.100,-0.055
6406,0.100,-0.055
6407,0.105,-0.055
6408,0.105,-0.055
6409,0.105,-0.055
6410,0.095,-0.055
6411,0.100,-0.050
6412,0.105,-0.055
6413,0.100,-0.050
6414,0.095,-0.050
6415,0.100,-0.050
6416,0.095,-0.050
6417,0.100,-0.050
6418,0.110,-0.050
6419,0.110,-0.045
6420,0.100,-0.045
6421,0.100,-0.050
6422,0.105,-0.050
6423,0.105,-0.055
6424,0.110,-0.050
6425,0.110,-0.060
6426,0.110,-0.060
6427,0.110,-0.070
6428,0.115,-0.080
6429,0.120,-0.090
6430,0.125,-0.100
6431,0.130,-0.120
6432,0.135,-0.140
6433,0.145,-0.155
6434,0.145,-0.170
6435,0.145,-0.185
6436,0.140,-0.205
6437,0.135,-0.215
6438,0.140,-0.225
6439,0.140,-0.220
6440,0.125,-0.215
6441,0.115,-0.195
6442,0.100,-0.185
6443,0.090,-0.160
6444,0.075,-0.140
6445,0.060,-0.110
6446,0.055,-0.090
6447,0.045,-0.055
6448,0.020,-0.035
6449,0.010,-0.005
6450,0.000,0.000
6451,0.000,0.000
6452,-0.005,0.015
6453,-0.015,0.030
6454,-0.020,0.035
6455,-0.020,0.050
6456,-0.030,0.060
6457,-0.040,0.065
6458,-0.040,0.070
6459,-0.040,0.070
6460,-0.040,0.075
6461,-0.045,0.080
6462,-0.045,0.070
6463,-0.045,0.070
6464,-0.045,0.070
6465,-0.045,0.065
6466,-0.045,0.065
6467,-0.040,0.060
6468,-0.040,0.060
6469,-0.045,0.055
6470,-0.045,0.055
6471,-0.040,0.055
6472,-0.040,0.055
6473,-0.035,0.050
6474,-0.030,0.050
6475,-0.045,0.065
6476,-0.050,0.085
6477,-0.050,0.090
6478,-0.055,0.085
6479,-0.075,0.110
6480,-0.105,0.115
6481,-0.115,0.110
6482,-0.095,0.105
6483,-0.075,0.100
6484,-0.050,0.075
6485,-0.020,0.045
6486,-0.015,0.030
6487,0.000,0.010
6488,0.000,0.010
6489,0.000,0.010
6490,0.000,0.010
6491,0.000,0.010
6492,0.000,0.010
6493,0.000,0.010
6494,0.000,0.010
6495,0.000,0.000
6496,-0.030,0.030
6497,-0.130,0.125
6498,-0.350,0.345
6499,-0.610,0.615
6500,-0.730,0.725
6501,-0.575,0.475
6502,-0.275,0.120
6503,-0.055,-0.050
6504,0.050,-0.075
6505,0.095,-0.065
6506,0.095,-0.055
6507,0.095,-0.050
6508,0.095,-0.050
6509,0.095,-0.050
6510,0.095,-0.050
6511,0.095,-0.050
6512,0.095,-0.050
6513,0.100,-0.050
6514,0.105,-0.050
6515,0.095,-0.050
6516,0.095,-0.050
6517,0.095,-0.050
6518,0.095,-0.050
6519,0.095,-0.050
6520,0.095,-0.050
6521,0.100,-0.050
6522,0.100,-0.050
6523,0.095,-0.055
6524,0.095,-0.050
6525,0.105,-0.065
6526,0.105,-0.065
6527,0.110,-0.070
6528,0.115,-0.075
6529,0.115,-0.080
6530,0.115,-0.085
6531,0.120,-0.105
6532,0.130,-0.125
6533,0.135,-0.145
6534,0.140,-0.160
6535,0.140,-0.180
6536,0.135,-0.190
6537,0.135,-0.205
6538,0.135,-0.220
6539,0.130,-0.225
6540,0.130,-0.225
6541,0.120,-0.210
6542,0.110,-0.195
6543,0.100,-0.175
6544,0.085,-0.160
6545,0.070,-0.135
6546,0.060,-0.110
6547,0.045,-0.085
6548,0.030,-0.055
6549,0.015,-0.025
6550,0.005,-0.010
6551,0.000,0.000
6552,0.000,0.000
6553,-0.005,0.020
6554,-0.015,0.035
6555,-0.020,0.045
6556,-0.025,0.055
6557,-0.035,0.060
6558,-0.045,0.070
6559,-0.050,0.075
6560,-0.050,0.075
6561,-0.050,0.075
6562,-0.050,0.075
6563,-0.050,0.070
6564,-0.050,0.070
6565,-0.050,0.070
6566,-0.050,0.065
6567,-0.050,0.060
6568,-0.050,0.060
6569,-0.050,0.055
6570,-0.050,0.055
6571,-0.050,0.055
6572,-0.050,0.055
6573,-0.050,0.055
6574,-0.050,0.050
6575,-0.050,0.060
6576,-0.060,0.075
6577,-0.055,0.095
6578,-0.065,0.090
6579,-0.075,0.100
6580,-0.100,0.115
6581,-0.115,0.115
6582,-0.110,0.110
6583,-0.105,0.110
6584,-0.080,0.095
6585,-0.055,0.070
6586,-0.035,0.045
6587,-0.020,0.025
6588,-0.020,0.015
6589,-0.020,0.010
6590,-0.020,0.010
6591,-0.020,0.010
6592,-0.020,0.010
6593,-0.020,0.010
6594,-0.010,0.010
6595,0.000,0.005
6596,-0.010,0.010
6597,-0.070,0.060
6598,-0.215,0.190
6599,-0.460,0.440
6600,-0.685,0.675
6601,-0.720,0.675
6602,-0.490,0.350
6603,-0.195,0.020
6604,-0.020,-0.075
6605,0.045,-0.070
6606,0.060,-0.055
6607,0.055,-0.050
6608,0.070,-0.055
6609,0.075,-0.050
6610,0.075,-0.050
6611,0.075,-0.050
6612,0.075,-0.050
6613,0.075,-0.050
6614,0.075,-0.050
6615,0.075,-0.050
6616,0.075,-0.050
6617,0.070,-0.050
6618,0.070,-0.050
6619,0.075,-0.050
6620,0.070,-0.050
6621,0.065,-0.050
6622,0.065,-0.050
6623,0.070,-0.050
6624,0.065,-0.050
6625,0.070,-0.050
6626,0.075,-0.050
6627,0.075,-0.060
6628,0.075,-0.065
6629,0.080,-0.065
6630,0.085,-0.075
6631,0.095,-0.090
6632,0.100,-0.105
6633,0.105,-0.125
6634,0.110,-0.145
6635,0.110,-0.160
6636,0.110,-0.175
6637,0.115,-0.190
6638,0.115,-0.205
6639,0.110,-0.215
6640,0.105,-0.220
6641,0.095,-0.215
6642,0.085,-0.205
6643,0.070,-0.185
6644,0.060,-0.165
6645,0.040,-0.145
6646,0.025,-0.115
6647,0.015,-0.090
6648,0.000,-0.060
6649,0.000,-0.040
6650,-0.015,-0.010
6651,-0.020,0.000
6652,-0.025,0.005
6653,-0.030,0.015
6654,-0.035,0.035
6655,-0.045,0.045
6656,-0.065,0.060
6657,-0.060,0.060
6658,-0.060,0.070
6659,-0.065,0.070
6660,-0.065,0.075
6661,-0.065,0.080
6662,-0.070,0.080
6663,-0.075,0.080
6664,-0.075,0.075
6665,-0.075,0.075
6666,-0.070,0.070
6667,-0.065,0.065
6668,-0.070,0.065
6669,-0.065,0.065
6670,-0.065,0.065
6671,-0.060,0.065
6672,-0.060,0.055
6673,-0.065,0.055
6674,-0.060,0.055
6675,-0.060,0.055
6676,-0.065,0.060
6677,-0.070,0.075
6678,-0.075,0.090
6679,-0.080,0.095
6680,-0.095,0.105
6681,-0.115,0.115
6682,-0.125,0.110
6683,-0.125,0.105
6684,-0.110,0.110
6685,-0.095,0.095
6686,-0.065,0.070
6687,-0.050,0.040
6688,-0.045,0.025
6689,-0.035,0.020
6690,-0.030,0.020
6691,-0.035,0.015
6692,-0.030,0.015
6693,-0.030,0.015
6694,-0.030,0.015
6695,-0.030,0.010
6696,-0.025,0.005
6697,-0.025,0.005
6698,-0.080,0.055
6699,-0.230,0.190
6700,-0.485,0.445
6701,-0.685,0.675
6702,-0.695,0.630
6703,-0.425,0.245
6704,-0.165,-0.005
6705,-0.020,-0.065
6706,0.020,-0.055
6707,0.035,-0.040
6708,0.040,-0.040
6709,0.050,-0.045
6710,0.055,-0.045
6711,0.055,-0.050
6712,0.055,-0.050
6713,0.055,-0.045
6714,0.055,-0.045
6715,0.055,-0.045
6716,0.055,-0.045
6717,0.055,-0.045
6718,0.055,-0.045
6719,0.060,-0.045
6720,0.070,-0.045
6721,0.070,-0.045
6722,0.065,-0.050
6723,0.070,-0.050
6724,0.075,-0.050
6725,0.075,-0.050
6726,0.075,-0.050
6727,0.075,-0.050
6728,0.075,-0.060
6729,0.085,-0.065
6730,0.095,-0.075
6731,0.110,-0.075
6732,0.110,-0.090
6733,0.110,-0.105
6734,0.125,-0.125
6735,0.130,-0.145
6736,0.130,-0.160
6737,0.130,-0.175
6738,0.130,-0.195
6739,0.125,-0.205
6740,0.120,-0.215
6741,0.110,-0.210
6742,0.110,-0.210
6743,0.095,-0.195
6744,0.085,-0.180
6745,0.075,-0.160
6746,0.060,-0.135
6747,0.055,-0.110
6748,0.045,-0.080
6749,0.025,-0.060
6750,0.015,-0.035
6751,0.000,-0.015
6752,0.000,0.000
