'sample interval','ECG0','ECG1'
'0.0078125 sec','mV','mV'
0,0.075,0.230
1,-0.040,-0.015
2,-0.105,-0.130
3,-0.130,-0.205
4,-0.140,-0.205
5,-0.150,-0.220
6,-0.155,-0.220
7,-0.150,-0.240
8,-0.150,-0.220
9,-0.140,-0.230
10,-0.140,-0.215
11,-0.140,-0.225
12,-0.145,-0.220
13,-0.150,-0.225
14,-0.150,-0.215
15,-0.150,-0.220
16,-0.155,-0.220
17,-0.160,-0.225
18,-0.160,-0.230
19,-0.165,-0.235
20,-0.170,-0.245
21,-0.175,-0.245
22,-0.180,-0.245
23,-0.175,-0.235
24,-0.165,-0.220
25,-0.150,-0.200
26,-0.125,-0.170
27,-0.095,-0.125
28,-0.055,-0.070
29,-0.025,-0.030
30,-0.005,0.000
31,0.005,0.015
32,0.010,0.030
33,0.015,0.005
34,0.015,0.005
35,0.010,-0.005
36,0.005,0.000
37,0.000,-0.020
38,0.000,-0.015
39,0.000,-0.025
40,0.000,-0.025
41,0.000,-0.035
42,0.000,-0.025
43,0.000,-0.035
44,0.000,-0.035
45,0.000,-0.030
46,0.000,-0.030
47,0.000,-0.035
48,0.000,-0.030
49,0.000,-0.030
50,0.000,-0.030
51,0.000,-0.030
52,0.000,-0.040
53,0.000,-0.025
54,0.000,-0.035
55,0.000,-0.030
56,0.000,-0.035
57,0.000,-0.025
58,0.000,-0.030
59,0.005,-0.025
60,0.010,-0.025
61,0.010,-0.025
62,0.005,-0.035
63,0.000,-0.035
64,0.000,-0.035
65,0.000,-0.035
66,0.000,-0.025
67,0.000,-0.030
68,0.000,-0.030
69,0.000,-0.035
70,0.000,-0.035
71,0.000,-0.035
72,0.005,-0.030
73,0.015,-0.025
74,0.015,-0.015
75,0.020,0.000
76,0.025,0.005
77,0.035,0.015
78,0.040,0.025
79,0.035,0.045
80,0.025,0.020
81,0.020,0.020
82,0.010,-0.025
83,0.000,-0.025
84,0.000,-0.040
85,0.000,-0.035
86,0.000,-0.055
87,0.000,-0.030
88,0.000,-0.045
89,0.000,-0.025
90,0.035,-0.020
91,0.140,0.095
92,0.320,0.260
93,0.500,0.490
94,0.645,0.675
95,0.720,0.845
96,0.720,0.885
97,0.665,0.850
98,0.590,0.765
99,0.490,0.670
100,0.365,0.555
101,0.230,0.420
102,0.085,0.230
103,-0.025,0.015
104,-0.095,-0.120
105,-0.130,-0.190
106,-0.145,-0.215
107,-0.150,-0.225
108,-0.150,-0.230
109,-0.155,-0.230
110,-0.155,-0.230
111,-0.150,-0.225
112,-0.150,-0.230
113,-0.150,-0.220
114,-0.145,-0.225
115,-0.145,-0.215
116,-0.150,-0.230
117,-0.155,-0.220
118,-0.155,-0.230
119,-0.160,-0.220
120,-0.170,-0.235
121,-0.170,-0.230
122,-0.170,-0.245
123,-0.180,-0.250
124,-0.185,-0.255
125,-0.180,-0.230
126,-0.165,-0.225
127,-0.155,-0.210
128,-0.135,-0.180
129,-0.105,-0.135
130,-0.070,-0.075
131,-0.030,-0.040
132,-0.005,0.000
133,0.005,0.000
134,0.010,0.025
135,0.015,0.000
136,0.010,0.005
137,0.005,-0.005
138,0.000,0.000
139,0.000,-0.020
140,0.000,-0.025
141,0.000,-0.040
142,0.000,-0.030
143,0.000,-0.030
144,0.000,-0.035
145,0.000,-0.040
146,0.000,-0.035
147,0.000,-0.040
148,0.000,-0.045
149,0.000,-0.045
150,0.000,-0.045
151,0.000,-0.035
152,0.000,-0.030
153,0.000,-0.025
154,0.000,-0.030
155,0.000,-0.035
156,0.000,-0.040
157,0.000,-0.040
158,0.000,-0.030
159,0.000,-0.040
160,0.000,-0.030
161,0.000,-0.040
162,0.000,-0.025
163,0.000,-0.040
164,0.000,-0.025
165,0.000,-0.045
166,0.000,-0.025
167,0.005,-0.035
168,0.010,-0.025
169,0.010,-0.040
170,0.010,-0.025
171,0.010,-0.025
172,0.010,-0.025
173,0.010,-0.040
174,0.015,-0.030
175,0.015,-0.025
176,0.020,-0.010
177,0.025,0.000
178,0.035,0.010
179,0.050,0.030
180,0.060,0.045
181,0.055,0.050
182,0.040,0.040
183,0.030,0.030
184,0.020,0.005
185,0.015,0.000
186,0.015,-0.025
187,0.015,-0.020
188,0.020,-0.025
189,0.015,-0.020
190,0.015,-0.020
191,0.025,-0.010
192,0.075,0.025
193,0.190,0.130
194,0.365,0.315
195,0.545,0.530
196,0.685,0.740
197,0.755,0.880
198,0.760,0.930
199,0.710,0.885
200,0.635,0.820
201,0.535,0.730
202,0.410,0.625
203,0.270,0.465
204,0.125,0.270
205,0.005,0.060
206,-0.060,-0.090
207,-0.095,-0.145
208,-0.110,-0.185
209,-0.115,-0.180
210,-0.110,-0.200
211,-0.105,-0.185
212,-0.105,-0.185
213,-0.105,-0.165
214,-0.105,-0.185
215,-0.105,-0.175
216,-0.105,-0.190
217,-0.105,-0.170
218,-0.105,-0.190
219,-0.110,-0.175
220,-0.115,-0.185
221,-0.120,-0.185
222,-0.120,-0.195
223,-0.125,-0.190
224,-0.130,-0.195
225,-0.135,-0.190
226,-0.135,-0.190
227,-0.130,-0.190
228,-0.120,-0.170
229,-0.100,-0.145
230,-0.075,-0.110
231,-0.040,-0.075
232,-0.010,-0.025
233,0.010,0.015
234,0.030,0.050
235,0.045,0.065
236,0.055,0.070
237,0.065,0.070
238,0.065,0.055
239,0.060,0.045
240,0.055,0.035
241,0.050,0.035
242,0.050,0.010
243,0.050,0.015
244,0.055,0.010
245,0.050,0.015
246,0.050,0.010
247,0.050,0.025
248,0.045,0.015
249,0.045,0.010
250,0.050,0.005
251,0.050,0.020
252,0.050,0.020
253,0.050,0.015
254,0.050,0.005
255,0.050,0.005
256,0.050,0.015
257,0.050,0.005
258,0.050,0.015
259,0.045,0.005
260,0.040,0.020
261,0.030,0.005
262,0.030,0.005
263,0.030,0.000
264,0.025,0.000
265,0.025,0.000
266,0.025,0.000
267,0.030,-0.010
268,0.025,-0.005
269,0.025,-0.005
270,0.020,0.000
271,0.020,-0.005
272,0.025,0.000
273,0.025,-0.005
274,0.020,-0.005
275,0.020,-0.005
276,0.030,0.000
277,0.040,0.010
278,0.045,0.025
279,0.055,0.045
280,0.065,0.050
281,0.070,0.065
282,0.060,0.065
283,0.045,0.050
284,0.035,0.030
285,0.025,0.000
286,0.015,-0.010
287,0.015,-0.020
288,0.020,-0.020
289,0.015,-0.020
290,0.010,-0.020
291,0.010,-0.025
292,0.025,-0.005
293,0.095,0.020
294,0.245,0.200
295,0.435,0.385
296,0.605,0.615
297,0.715,0.775
298,0.755,0.920
299,0.750,0.910
300,0.690,0.870
301,0.600,0.795
302,0.495,0.705
303,0.370,0.575
304,0.225,0.430
305,0.075,0.210
306,-0.035,-0.005
307,-0.105,-0.130
308,-0.135,-0.185
309,-0.145,-0.220
310,-0.150,-0.240
311,-0.155,-0.230
312,-0.155,-0.235
313,-0.150,-0.230
314,-0.150,-0.230
315,-0.155,-0.225
316,-0.155,-0.225
317,-0.155,-0.215
318,-0.155,-0.220
319,-0.160,-0.230
320,-0.165,-0.240
321,-0.170,-0.240
322,-0.175,-0.240
323,-0.175,-0.255
324,-0.185,-0.265
325,-0.190,-0.270
326,-0.190,-0.260
327,-0.195,-0.260
328,-0.190,-0.245
329,-0.175,-0.235
330,-0.155,-0.205
331,-0.125,-0.165
332,-0.090,-0.115
333,-0.050,-0.065
334,-0.025,-0.020
335,0.000,0.000
336,0.010,0.015
337,0.015,0.020
338,0.015,0.005
339,0.015,0.005
340,0.015,0.000
341,0.010,0.000
342,0.010,-0.020
343,0.005,-0.005
344,0.005,-0.030
345,0.005,-0.015
346,0.000,-0.040
347,0.000,-0.020
348,0.000,-0.030
349,0.000,-0.020
350,0.000,-0.030
351,0.000,-0.025
352,0.000,-0.030
353,0.000,-0.030
354,0.000,-0.040
355,0.005,-0.030
356,0.005,-0.030
357,0.000,-0.025
358,0.000,-0.025
359,0.000,-0.035
360,0.000,-0.030
361,0.000,-0.035
362,0.000,-0.035
363,0.005,-0.030
364,0.000,-0.035
365,0.000,-0.035
366,0.000,-0.035
367,0.000,-0.030
368,0.000,-0.040
369,0.000,-0.035
370,0.000,-0.035
371,0.000,-0.030
372,0.000,-0.035
373,0.000,-0.030
374,0.000,-0.040
375,0.000,-0.025
376,0.005,-0.040
377,0.010,-0.020
378,0.020,-0.015
379,0.025,0.005
380,0.035,0.010
381,0.035,0.025
382,0.030,0.035
383,0.020,0.030
384,0.015,0.010
385,0.010,0.000
386,0.000,-0.035
387,0.000,-0.055
388,0.000,-0.035
389,0.000,-0.040
390,0.000,-0.040
391,0.000,-0.060
392,0.000,-0.035
393,0.025,-0.020
394,0.130,0.075
395,0.300,0.240
396,0.485,0.465
397,0.630,0.665
398,0.705,0.835
399,0.710,0.885
400,0.670,0.850
401,0.600,0.770
402,0.505,0.685
403,0.395,0.585
404,0.260,0.455
405,0.115,0.275
406,-0.005,0.060
407,-0.090,-0.095
408,-0.140,-0.190
409,-0.155,-0.220
410,-0.160,-0.230
411,-0.165,-0.240
412,-0.160,-0.245
413,-0.160,-0.240
414,-0.160,-0.235
415,-0.155,-0.235
416,-0.155,-0.225
417,-0.165,-0.235
418,-0.165,-0.225
419,-0.165,-0.240
420,-0.165,-0.225
421,-0.170,-0.240
422,-0.175,-0.220
423,-0.180,-0.255
424,-0.185,-0.240
425,-0.185,-0.265
426,-0.190,-0.250
427,-0.190,-0.270
428,-0.190,-0.245
429,-0.185,-0.245
430,-0.170,-0.210
431,-0.145,-0.195
432,-0.110,-0.140
433,-0.075,-0.100
434,-0.040,-0.045
435,-0.010,-0.005
436,0.000,0.005
437,0.010,0.025
438,0.010,0.010
439,0.005,0.000
440,0.005,-0.005
441,0.005,-0.005
442,0.000,-0.020
443,0.000,-0.020
444,0.000,-0.030
445,0.000,-0.025
446,0.000,-0.030
447,0.000,-0.035
448,0.000,-0.035
449,0.000,-0.035
450,0.000,-0.035
451,0.000,-0.035
452,0.000,-0.030
453,0.000,-0.035
454,0.000,-0.030
455,0.000,-0.035
456,0.000,-0.035
457,0.000,-0.045
458,0.000,-0.035
459,0.000,-0.040
460,0.000,-0.035
461,0.000,-0.030
462,0.000,-0.035
463,0.000,-0.025
464,0.000,-0.040
465,0.000,-0.040
466,0.000,-0.045
467,0.000,-0.030
468,0.000,-0.040
469,0.005,-0.020
470,0.005,-0.040
471,0.000,-0.030
472,0.000,-0.040
473,0.000,-0.030
474,0.000,-0.050
475,0.000,-0.030
476,0.000,-0.045
477,0.005,-0.015
478,0.010,-0.020
479,0.015,-0.005
480,0.030,0.000
481,0.040,0.015
482,0.045,0.025
483,0.035,0.030
484,0.025,0.025
485,0.015,0.005
486,0.000,-0.015
487,0.000,-0.030
488,0.000,-0.040
489,0.000,-0.050
490,0.000,-0.045
491,0.005,-0.040
492,0.000,-0.040
493,0.005,-0.035
494,0.055,0.005
495,0.175,0.125
496,0.350,0.310
497,0.525,0.525
498,0.660,0.705
499,0.725,0.850
500,0.715,0.885
501,0.655,0.835
502,0.575,0.745
503,0.470,0.665
504,0.350,0.540
505,0.215,0.400
506,0.070,0.195
507,-0.035,0.000
508,-0.100,-0.145
509,-0.130,-0.195
510,-0.145,-0.225
511,-0.150,-0.225
512,-0.155,-0.230
513,-0.155,-0.230
514,-0.150,-0.220
515,-0.150,-0.230
516,-0.150,-0.220
517,-0.150,-0.225
518,-0.150,-0.210
519,-0.150,-0.225
520,-0.150,-0.220
521,-0.155,-0.230
522,-0.155,-0.220
523,-0.160,-0.235
524,-0.165,-0.220
525,-0.170,-0.230
526,-0.175,-0.230
527,-0.180,-0.245
528,-0.180,-0.245
529,-0.175,-0.240
530,-0.165,-0.220
531,-0.150,-0.200
532,-0.120,-0.160
533,-0.090,-0.115
534,-0.060,-0.070
535,-0.030,-0.020
536,-0.005,0.005
537,0.005,0.015
538,0.010,0.015
539,0.015,0.010
540,0.010,0.005
541,0.005,0.000
542,0.005,-0.010
543,0.005,-0.020
544,0.000,-0.015
545,0.000,-0.025
546,0.000,-0.025
547,0.005,-0.025
548,0.005,-0.020
549,0.005,-0.040
550,0.005,-0.020
551,0.005,-0.035
552,0.000,-0.025
553,0.000,-0.035
554,0.000,-0.015
555,0.000,-0.040
556,0.000,-0.025
557,0.000,-0.035
558,0.000,-0.030
559,0.000,-0.030
560,0.005,-0.030
561,0.000,-0.030
562,0.000,-0.030
563,0.000,-0.030
564,0.005,-0.025
565,0.005,-0.025
566,0.000,-0.035
567,0.000,-0.025
568,0.000,-0.035
569,0.005,-0.030
570,0.010,-0.030
571,0.010,-0.025
572,0.010,-0.030
573,0.005,-0.030
574,0.005,-0.035
575,0.005,-0.030
576,0.010,-0.035
577,0.010,-0.030
578,0.010,-0.015
579,0.020,-0.005
580,0.030,0.005
581,0.040,0.020
582,0.040,0.040
583,0.035,0.040
584,0.030,0.040
585,0.020,0.005
586,0.005,-0.005
587,0.005,-0.030
588,0.000,-0.025
589,0.000,-0.035
590,0.000,-0.040
591,0.000,-0.040
592,0.000,-0.040
593,0.000,-0.030
594,0.040,-0.015
595,0.160,0.105
596,0.340,0.285
597,0.525,0.520
598,0.660,0.700
599,0.730,0.885
600,0.725,0.880
601,0.665,0.850
602,0.580,0.755
603,0.480,0.670
604,0.360,0.550
605,0.220,0.430
606,0.075,0.210
607,-0.035,0.010
608,-0.105,-0.135
609,-0.130,-0.195
610,-0.145,-0.225
611,-0.150,-0.225
612,-0.155,-0.230
613,-0.155,-0.225
614,-0.155,-0.225
615,-0.155,-0.225
616,-0.150,-0.225
617,-0.150,-0.225
618,-0.150,-0.220
619,-0.155,-0.220
620,-0.155,-0.220
621,-0.155,-0.235
622,-0.165,-0.235
623,-0.170,-0.230
624,-0.175,-0.240
625,-0.175,-0.240
626,-0.180,-0.250
627,-0.185,-0.245
628,-0.185,-0.250
629,-0.180,-0.230
630,-0.175,-0.230
631,-0.155,-0.195
632,-0.130,-0.180
633,-0.095,-0.125
634,-0.065,-0.080
635,-0.030,-0.020
636,0.000,-0.005
637,0.010,0.015
638,0.015,0.005
639,0.010,0.005
640,0.010,0.005
641,0.005,0.000
642,0.000,-0.005
643,0.000,-0.015
644,0.000,-0.020
645,0.000,-0.025
646,0.000,-0.025
647,0.000,-0.035
648,0.000,-0.025
649,0.005,-0.035
650,0.010,-0.020
651,0.010,-0.030
652,0.010,-0.025
653,0.010,-0.030
654,0.010,-0.025
655,0.010,-0.025
656,0.005,-0.015
657,0.005,-0.020
658,0.005,-0.020
659,0.010,-0.020
660,0.010,-0.020
661,0.015,-0.025
662,0.015,-0.020
663,0.015,-0.010
664,0.015,-0.015
665,0.015,-0.010
666,0.015,-0.020
667,0.015,-0.010
668,0.015,-0.005
669,0.015,-0.015
670,0.015,-0.015
671,0.020,-0.010
672,0.020,-0.010
673,0.020,-0.005
674,0.020,0.000
675,0.020,-0.015
676,0.020,0.000
677,0.030,-0.005
678,0.040,0.015
679,0.050,0.010
680,0.065,0.050
681,0.075,0.045
682,0.070,0.085
683,0.070,0.065
684,0.055,0.065
685,0.040,0.010
686,0.035,0.005
687,0.030,-0.005
688,0.025,0.000
689,0.025,-0.005
690,0.020,0.000
691,0.020,-0.005
692,0.025,-0.005
693,0.050,0.000
694,0.135,0.065
695,0.285,0.230
696,0.475,0.430
697,0.640,0.635
698,0.745,0.815
699,0.780,0.920
700,0.760,0.915
701,0.705,0.870
702,0.620,0.790
703,0.515,0.705
704,0.385,0.590
705,0.230,0.425
706,0.085,0.215
707,-0.015,0.010
708,-0.070,-0.100
709,-0.095,-0.165
710,-0.105,-0.185
711,-0.105,-0.190
712,-0.105,-0.180
713,-0.100,-0.190
714,-0.100,-0.185
715,-0.105,-0.185
716,-0.110,-0.175
717,-0.115,-0.185
718,-0.115,-0.175
719,-0.115,-0.180
720,-0.115,-0.185
721,-0.115,-0.185
722,-0.120,-0.185
723,-0.130,-0.185
724,-0.135,-0.195
725,-0.145,-0.200
726,-0.145,-0.205
727,-0.145,-0.200
728,-0.145,-0.210
729,-0.140,-0.190
730,-0.125,-0.190
731,-0.100,-0.140
732,-0.070,-0.105
733,-0.035,-0.045
734,-0.005,-0.015
735,0.015,0.035
736,0.035,0.055
737,0.045,0.075
738,0.050,0.070
739,0.050,0.060
740,0.050,0.040
741,0.040,0.030
742,0.035,0.015
743,0.030,0.010
744,0.030,0.005
745,0.025,0.000
746,0.025,0.000
747,0.025,0.000
748,0.020,-0.005
749,0.020,0.000
750,0.020,0.000
751,0.020,-0.005
752,0.020,-0.010
753,0.020,0.000
754,0.020,-0.005
755,0.015,-0.005
756,0.015,-0.010
757,0.015,-0.005
758,0.015,-0.015
759,0.015,-0.005
760,0.015,-0.020
761,0.010,-0.005
762,0.010,-0.020
763,0.010,0.000
764,0.015,-0.005
765,0.015,0.000
766,0.010,-0.020
767,0.010,-0.020
768,0.010,-0.030
769,0.010,-0.020
770,0.015,-0.015
771,0.015,-0.010
772,0.015,-0.015
773,0.015,-0.020
774,0.015,-0.015
775,0.015,-0.020
776,0.015,-0.005
777,0.020,0.000
778,0.025,0.015
779,0.035,0.020
780,0.045,0.050
781,0.050,0.050
782,0.040,0.055
783,0.030,0.025
784,0.020,0.000
785,0.010,-0.020
786,0.000,-0.025
787,0.005,-0.030
788,0.010,-0.030
789,0.005,-0.035
790,0.000,-0.035
791,0.000,-0.025
792,0.015,-0.015
793,0.105,0.050
794,0.265,0.205
795,0.450,0.415
796,0.610,0.625
797,0.710,0.800
798,0.740,0.890
799,0.715,0.885
800,0.660,0.835
801,0.570,0.755
802,0.455,0.660
803,0.320,0.525
804,0.175,0.370
805,0.040,0.135
806,-0.060,-0.040
807,-0.120,-0.165
808,-0.150,-0.190
809,-0.165,-0.230
810,-0.165,-0.225
811,-0.165,-0.245
812,-0.155,-0.235
813,-0.155,-0.245
814,-0.160,-0.210
815,-0.160,-0.235
816,-0.165,-0.240
817,-0.170,-0.240
818,-0.170,-0.235
819,-0.175,-0.240
820,-0.175,-0.245
821,-0.180,-0.245
822,-0.180,-0.250
823,-0.190,-0.245
824,-0.195,-0.255
825,-0.205,-0.260
826,-0.210,-0.265
827,-0.200,-0.260
828,-0.190,-0.255
829,-0.180,-0.230
830,-0.160,-0.205
831,-0.130,-0.160
832,-0.095,-0.115
833,-0.055,-0.060
834,-0.020,-0.015
835,0.000,0.000
836,0.005,0.010
837,0.010,0.010
838,0.005,0.010
839,0.005,0.000
840,0.010,-0.005
841,0.005,-0.015
842,0.000,-0.015
843,0.000,-0.030
844,0.000,-0.025
845,0.000,-0.040
846,0.000,-0.030
847,0.000,-0.030
848,0.000,-0.025
849,0.000,-0.040
850,0.000,-0.040
851,-0.005,-0.035
852,0.000,-0.035
853,0.000,-0.035
854,0.000,-0.035
855,0.000,-0.025
856,0.000,-0.040
857,0.000,-0.035
858,0.000,-0.040
859,0.000,-0.015
860,0.000,-0.040
861,0.000,-0.025
862,0.000,-0.040
863,0.000,-0.030
864,0.000,-0.040
865,0.000,-0.030
866,0.000,-0.040
867,0.000,-0.035
868,0.000,-0.040
869,0.000,-0.035
870,0.000,-0.040
871,0.000,-0.035
872,0.000,-0.035
873,0.000,-0.040
874,0.000,-0.035
875,0.000,-0.030
876,0.000,-0.030
877,0.000,-0.030
878,0.010,-0.020
879,0.020,-0.010
880,0.030,0.000
881,0.040,0.020
882,0.040,0.025
883,0.035,0.040
884,0.025,0.020
885,0.015,0.020
886,0.010,-0.005
887,0.000,-0.020
888,0.000,-0.055
889,0.000,-0.035
890,0.000,-0.050
891,0.000,-0.030
892,0.000,-0.055
893,0.000,-0.035
894,0.020,-0.030
895,0.115,0.055
896,0.290,0.215
897,0.475,0.440
898,0.620,0.650
899,0.710,0.825
900,0.720,0.885
901,0.685,0.850
902,0.620,0.785
903,0.525,0.700
904,0.405,0.605
905,0.280,0.465
906,0.140,0.315
907,0.010,0.075
908,-0.080,-0.080
909,-0.130,-0.180
910,-0.145,-0.215
911,-0.150,-0.235
912,-0.155,-0.230
913,-0.155,-0.235
914,-0.155,-0.230
915,-0.155,-0.225
916,-0.155,-0.220
917,-0.155,-0.225
918,-0.155,-0.225
919,-0.155,-0.225
920,-0.160,-0.230
921,-0.165,-0.230
922,-0.170,-0.230
923,-0.170,-0.230
924,-0.170,-0.245
925,-0.175,-0.245
926,-0.185,-0.250
927,-0.190,-0.255
928,-0.190,-0.255
929,-0.185,-0.245
930,-0.180,-0.230
931,-0.170,-0.220
932,-0.145,-0.185
933,-0.110,-0.155
934,-0.080,-0.090
935,-0.045,-0.055
936,-0.015,0.000
937,0.005,0.005
938,0.015,0.035
939,0.015,0.010
940,0.015,0.015
941,0.015,0.000
942,0.010,0.000
943,0.010,-0.020
944,0.005,-0.015
945,0.000,-0.030
946,0.000,-0.010
947,0.000,-0.030
948,0.000,-0.030
949,0.000,-0.030
950,0.000,-0.025
951,0.000,-0.035
952,0.000,-0.030
953,0.000,-0.030
954,0.000,-0.040
955,0.000,-0.035
956,0.000,-0.035
957,0.000,-0.030
958,0.005,-0.035
959,0.005,-0.030
960,0.000,-0.030
961,0.000,-0.030
962,0.000,-0.030
963,0.000,-0.035
964,0.000,-0.030
965,0.000,-0.030
966,0.000,-0.025
967,0.000,-0.035
968,0.000,-0.030
969,0.000,-0.040
970,0.000,-0.035
971,0.000,-0.045
972,0.005,-0.030
973,0.005,-0.035
974,0.005,-0.025
975,0.000,-0.025
976,0.000,-0.025
977,0.000,-0.035
978,0.000,-0.030
979,0.005,-0.025
980,0.010,-0.020
981,0.025,0.000
982,0.030,0.000
983,0.035,0.010
984,0.035,0.020
985,0.040,0.050
986,0.035,0.030
987,0.025,0.020
988,0.010,-0.015
989,0.000,-0.020
990,0.000,-0.035
991,0.000,-0.025
992,0.000,-0.045
993,0.000,-0.035
994,0.000,-0.040
995,0.000,-0.035
996,0.035,-0.020
997,0.140,0.070
998,0.305,0.245
999,0.485,0.465
1000,0.635,0.665
1001,0.715,0.825
1002,0.725,0.890
1003,0.680,0.855
1004,0.600,0.775
1005,0.500,0.685
1006,0.390,0.580
1007,0.255,0.445
1008,0.110,0.260
1009,-0.005,0.050
1010,-0.085,-0.105
1011,-0.135,-0.175
1012,-0.150,-0.220
1013,-0.155,-0.225
1014,-0.155,-0.240
1015,-0.155,-0.230
1016,-0.155,-0.240
1017,-0.150,-0.210
1018,-0.150,-0.225
1019,-0.150,-0.210
1020,-0.155,-0.230
1021,-0.155,-0.220
1022,-0.155,-0.240
1023,-0.160,-0.215
1024,-0.165,-0.235
1025,-0.165,-0.220
1026,-0.170,-0.240
1027,-0.170,-0.235
1028,-0.170,-0.240
1029,-0.180,-0.245
1030,-0.185,-0.245
1031,-0.185,-0.240
1032,-0.175,-0.225
1033,-0.155,-0.220
1034,-0.130,-0.175
1035,-0.105,-0.130
1036,-0.075,-0.075
1037,-0.040,-0.040
1038,-0.005,0.000
1039,0.005,0.005
1040,0.010,0.020
1041,0.015,0.010
1042,0.005,0.000
1043,0.000,-0.005
1044,0.000,-0.005
1045,0.000,-0.010
1046,0.000,-0.020
1047,0.000,-0.025
1048,0.000,-0.040
1049,0.000,-0.035
1050,0.000,-0.040
1051,0.000,-0.035
1052,0.000,-0.035
1053,0.000,-0.040
1054,0.000,-0.035
1055,0.000,-0.035
1056,0.000,-0.040
1057,0.000,-0.040
1058,0.000,-0.040
1059,0.000,-0.035
1060,0.000,-0.030
1061,0.000,-0.035
1062,0.000,-0.025
1063,0.000,-0.035
1064,0.000,-0.025
1065,0.005,-0.040
1066,0.000,-0.025
1067,0.000,-0.040
1068,0.000,-0.030
1069,0.000,-0.045
1070,0.000,-0.025
1071,0.000,-0.035
1072,0.000,-0.025
1073,0.000,-0.050
1074,0.000,-0.035
1075,0.000,-0.040
1076,0.000,-0.025
1077,0.000,-0.035
1078,0.000,-0.040
1079,0.000,-0.045
1080,0.005,-0.035
1081,0.015,-0.025
1082,0.020,-0.010
1083,0.025,0.000
1084,0.030,0.010
1085,0.035,0.025
1086,0.035,0.025
1087,0.025,0.020
1088,0.020,0.010
1089,0.005,0.000
1090,0.000,-0.025
1091,0.000,-0.040
1092,-0.005,-0.045
1093,-0.005,-0.050
1094,0.000,-0.040
1095,0.000,-0.050
1096,0.000,-0.040
1097,0.020,-0.020
1098,0.110,0.060
1099,0.270,0.210
1100,0.455,0.425
1101,0.615,0.615
1102,0.705,0.800
1103,0.720,0.875
1104,0.685,0.855
1105,0.615,0.790
1106,0.520,0.705
1107,0.400,0.595
1108,0.270,0.465
1109,0.120,0.295
1110,0.000,0.055
1111,-0.090,-0.090
1112,-0.125,-0.180
1113,-0.140,-0.210
1114,-0.150,-0.240
1115,-0.155,-0.220
1116,-0.155,-0.240
1117,-0.155,-0.220
1118,-0.155,-0.235
1119,-0.155,-0.225
1120,-0.155,-0.240
1121,-0.155,-0.215
1122,-0.155,-0.225
1123,-0.155,-0.220
1124,-0.155,-0.230
1125,-0.160,-0.225
1126,-0.160,-0.230
1127,-0.165,-0.240
1128,-0.170,-0.245
1129,-0.175,-0.240
1130,-0.175,-0.240
1131,-0.175,-0.245
1132,-0.180,-0.235
1133,-0.175,-0.225
1134,-0.155,-0.205
1135,-0.130,-0.180
1136,-0.100,-0.135
1137,-0.070,-0.080
1138,-0.040,-0.040
1139,-0.010,0.000
1140,0.005,0.015
1141,0.020,0.025
1142,0.020,0.015
1143,0.015,0.010
1144,0.015,0.005
1145,0.015,0.005
1146,0.015,-0.005
1147,0.020,0.000
1148,0.020,-0.010
1149,0.020,0.000
1150,0.020,-0.020
1151,0.020,-0.005
1152,0.020,-0.020
1153,0.020,-0.010
1154,0.020,-0.010
1155,0.020,0.000
1156,0.020,-0.010
1157,0.020,-0.005
1158,0.020,-0.005
1159,0.020,-0.015
1160,0.020,-0.010
1161,0.020,-0.010
1162,0.025,-0.005
1163,0.025,-0.005
1164,0.025,0.000
1165,0.030,-0.005
1166,0.025,0.000
1167,0.025,-0.005
1168,0.025,0.000
1169,0.025,-0.005
1170,0.025,0.000
1171,0.025,-0.005
1172,0.025,0.000
1173,0.025,-0.005
1174,0.025,-0.005
1175,0.025,0.000
1176,0.025,-0.005
1177,0.025,0.000
1178,0.025,0.000
1179,0.030,0.000
1180,0.025,0.000
1181,0.025,0.005
1182,0.035,0.005
1183,0.050,0.010
1184,0.060,0.030
1185,0.070,0.050
1186,0.085,0.070
1187,0.090,0.080
1188,0.080,0.075
1189,0.065,0.055
1190,0.050,0.050
1191,0.030,0.010
1192,0.025,0.000
1193,0.025,0.000
1194,0.025,0.000
1195,0.025,0.000
1196,0.025,0.000
1197,0.025,-0.005
1198,0.040,0.005
1199,0.125,0.050
1200,0.280,0.230
1201,0.475,0.415
1202,0.650,0.645
1203,0.755,0.810
1204,0.790,0.930
1205,0.770,0.930
1206,0.715,0.895
1207,0.635,0.825
1208,0.535,0.740
1209,0.410,0.630
1210,0.255,0.465
1211,0.110,0.235
1212,0.000,0.035
1213,-0.065,-0.080
1214,-0.100,-0.150
1215,-0.120,-0.175
1216,-0.125,-0.185
1217,-0.120,-0.185
1218,-0.115,-0.185
1219,-0.115,-0.190
1220,-0.120,-0.185
1221,-0.125,-0.185
1222,-0.125,-0.180
1223,-0.125,-0.185
1224,-0.135,-0.175
1225,-0.145,-0.195
1226,-0.145,-0.195
1227,-0.145,-0.205
1228,-0.145,-0.195
1229,-0.160,-0.215
1230,-0.175,-0.215
1231,-0.180,-0.235
1232,-0.180,-0.225
1233,-0.185,-0.235
1234,-0.180,-0.230
1235,-0.165,-0.220
1236,-0.145,-0.185
1237,-0.115,-0.150
1238,-0.085,-0.095
1239,-0.045,-0.040
1240,-0.010,-0.005
1241,0.005,0.020
1242,0.020,0.025
1243,0.025,0.050
1244,0.020,0.025
1245,0.015,0.020
1246,0.015,0.005
1247,0.015,0.005
1248,0.015,-0.010
1249,0.010,-0.005
1250,0.010,-0.015
1251,0.010,-0.010
1252,0.015,-0.015
1253,0.015,-0.010
1254,0.015,-0.015
1255,0.010,-0.015
1256,0.010,-0.020
1257,0.005,-0.015
1258,0.005,-0.020
1259,0.005,-0.020
1260,0.010,-0.015
1261,0.010,-0.020
1262,0.005,-0.020
1263,0.005,-0.025
1264,0.005,-0.030
1265,0.010,-0.020
1266,0.010,-0.015
1267,0.010,-0.015
1268,0.005,-0.030
1269,0.000,-0.025
1270,0.000,-0.035
1271,0.000,-0.020
1272,0.005,-0.035
1273,0.000,-0.020
1274,0.000,-0.035
1275,0.000,-0.020
1276,0.005,-0.035
1277,0.010,-0.020
1278,0.005,-0.040
1279,0.005,-0.025
1280,0.005,-0.045
1281,0.005,-0.020
1282,0.010,-0.025
1283,0.010,-0.025
1284,0.015,-0.010
1285,0.020,0.005
1286,0.030,0.010
1287,0.040,0.020
1288,0.045,0.040
1289,0.045,0.045
1290,0.030,0.045
1291,0.015,0.010
1292,0.005,-0.005
1293,0.000,-0.030
1294,0.000,-0.035
1295,0.000,-0.040
1296,0.000,-0.035
1297,0.000,-0.035
1298,0.000,-0.030
1299,0.010,-0.030
1300,0.075,0.015
1301,0.210,0.145
1302,0.390,0.345
1303,0.560,0.560
1304,0.680,0.740
1305,0.730,0.865
1306,0.720,0.885
1307,0.665,0.840
1308,0.590,0.765
1309,0.490,0.675
1310,0.370,0.560
1311,0.225,0.415
1312,0.075,0.205
1313,-0.035,-0.010
1314,-0.105,-0.140
1315,-0.140,-0.195
1316,-0.155,-0.220
1317,-0.160,-0.240
1318,-0.160,-0.235
1319,-0.160,-0.230
1320,-0.160,-0.230
1321,-0.160,-0.240
1322,-0.160,-0.225
1323,-0.160,-0.240
1324,-0.160,-0.235
1325,-0.160,-0.255
1326,-0.165,-0.225
1327,-0.170,-0.240
1328,-0.175,-0.240
1329,-0.180,-0.260
1330,-0.185,-0.245
1331,-0.185,-0.265
1332,-0.195,-0.255
1333,-0.200,-0.260
1334,-0.200,-0.255
1335,-0.190,-0.255
1336,-0.180,-0.240
1337,-0.165,-0.220
1338,-0.140,-0.175
1339,-0.105,-0.125
1340,-0.065,-0.080
1341,-0.030,-0.030
1342,-0.005,0.000
1343,0.005,0.015
1344,0.010,0.015
1345,0.015,0.010
1346,0.010,0.005
1347,0.010,0.000
1348,0.010,-0.010
1349,0.005,-0.025
1350,0.000,-0.025
1351,0.000,-0.025
1352,0.000,-0.025
1353,0.000,-0.040
1354,0.000,-0.035
1355,0.000,-0.045
1356,0.000,-0.030
1357,0.000,-0.040
1358,0.010,-0.025
1359,0.005,-0.030
1360,0.000,-0.025
1361,0.000,-0.035
1362,0.000,-0.035
1363,0.000,-0.035
1364,0.000,-0.035
1365,0.000,-0.035
1366,0.000,-0.035
1367,0.000,-0.040
1368,0.000,-0.040
1369,0.000,-0.025
1370,0.000,-0.040
1371,0.000,-0.040
1372,0.000,-0.050
1373,0.000,-0.030
1374,0.000,-0.040
1375,0.000,-0.025
1376,0.000,-0.040
1377,0.000,-0.035
1378,0.000,-0.045
1379,0.000,-0.035
1380,0.000,-0.045
1381,0.000,-0.035
1382,-0.005,-0.045
1383,-0.005,-0.035
1384,0.000,-0.035
1385,0.005,-0.025
1386,0.015,-0.010
1387,0.020,-0.005
1388,0.025,0.000
1389,0.030,0.010
1390,0.035,0.025
1391,0.030,0.025
1392,0.020,0.015
1393,0.005,-0.005
1394,0.000,-0.025
1395,0.000,-0.040
1396,0.000,-0.050
1397,0.000,-0.040
1398,-0.005,-0.040
1399,-0.010,-0.040
1400,-0.005,-0.055
1401,0.015,-0.025
1402,0.105,0.030
1403,0.265,0.205
1404,0.455,0.400
1405,0.615,0.635
1406,0.710,0.800
1407,0.735,0.900
1408,0.705,0.850
1409,0.640,0.805
1410,0.545,0.700
1411,0.425,0.615
1412,0.285,0.475
1413,0.140,0.325
1414,0.010,0.095
1415,-0.080,-0.080
1416,-0.125,-0.175
1417,-0.150,-0.205
1418,-0.155,-0.230
1419,-0.160,-0.240
1420,-0.160,-0.230
1421,-0.155,-0.235
1422,-0.150,-0.230
1423,-0.150,-0.235
1424,-0.150,-0.225
1425,-0.150,-0.230
1426,-0.155,-0.215
1427,-0.160,-0.225
1428,-0.165,-0.225
1429,-0.170,-0.235
1430,-0.170,-0.245
1431,-0.175,-0.235
1432,-0.180,-0.240
1433,-0.190,-0.245
1434,-0.190,-0.255
1435,-0.190,-0.250
1436,-0.190,-0.255
1437,-0.185,-0.240
1438,-0.175,-0.230
1439,-0.150,-0.185
1440,-0.120,-0.160
1441,-0.080,-0.105
1442,-0.045,-0.050
1443,-0.015,-0.015
1444,0.000,0.005
1445,0.010,0.010
1446,0.015,0.005
1447,0.010,0.005
1448,0.005,0.000
1449,0.000,-0.015
1450,0.000,-0.015
1451,0.000,-0.035
1452,0.000,-0.020
1453,0.000,-0.035
1454,0.000,-0.025
1455,0.000,-0.040
1456,0.000,-0.030
1457,0.000,-0.040
1458,0.000,-0.020
1459,0.000,-0.040
1460,0.000,-0.025
1461,0.000,-0.040
1462,0.000,-0.030
1463,0.000,-0.035
1464,0.000,-0.030
1465,0.005,-0.025
1466,0.000,-0.030
1467,0.000,-0.025
1468,0.000,-0.025
1469,0.005,-0.025
1470,0.010,-0.030
1471,0.005,-0.025
1472,0.000,-0.030
1473,0.000,-0.035
1474,0.000,-0.030
1475,0.000,-0.030
1476,0.000,-0.035
1477,0.000,-0.040
1478,0.000,-0.040
1479,0.000,-0.040
1480,0.000,-0.035
1481,0.000,-0.040
1482,0.000,-0.025
1483,0.000,-0.035
1484,0.000,-0.030
1485,0.005,-0.050
1486,0.010,-0.025
1487,0.015,-0.025
1488,0.020,0.000
1489,0.030,0.005
1490,0.040,0.020
1491,0.045,0.025
1492,0.040,0.035
1493,0.025,0.025
1494,0.015,0.000
1495,0.005,-0.020
1496,0.000,-0.040
1497,0.000,-0.035
1498,0.000,-0.035
1499,0.000,-0.040
1500,-0.005,-0.050
1501,-0.005,-0.035
1502,0.000,-0.050
1503,0.045,0.000
1504,0.165,0.105
1505,0.345,0.300
1506,0.525,0.500
1507,0.660,0.700
1508,0.725,0.835
1509,0.720,0.875
1510,0.670,0.830
1511,0.585,0.760
1512,0.485,0.660
1513,0.360,0.550
1514,0.220,0.405
1515,0.070,0.210
1516,-0.040,0.005
1517,-0.105,-0.135
1518,-0.135,-0.195
1519,-0.150,-0.220
1520,-0.150,-0.220
1521,-0.155,-0.230
1522,-0.155,-0.240
1523,-0.150,-0.230
1524,-0.145,-0.225
1525,-0.145,-0.220
1526,-0.145,-0.225
1527,-0.150,-0.215
1528,-0.155,-0.225
1529,-0.160,-0.220
1530,-0.165,-0.220
1531,-0.170,-0.220
1532,-0.170,-0.230
1533,-0.170,-0.225
1534,-0.175,-0.245
1535,-0.180,-0.225
1536,-0.180,-0.260
1537,-0.180,-0.230
1538,-0.185,-0.240
1539,-0.170,-0.230
1540,-0.155,-0.215
1541,-0.130,-0.165
1542,-0.100,-0.125
1543,-0.065,-0.070
1544,-0.035,-0.030
1545,-0.010,-0.005
1546,0.005,0.010
1547,0.010,0.015
1548,0.005,0.010
1549,0.005,0.000
1550,0.005,0.000
1551,0.005,-0.015
1552,0.000,-0.015
1553,0.000,-0.030
1554,0.000,-0.030
1555,0.000,-0.035
1556,0.000,-0.040
1557,0.000,-0.035
1558,0.000,-0.035
1559,0.000,-0.035
1560,0.000,-0.035
1561,0.000,-0.035
1562,0.000,-0.040
1563,0.000,-0.035
1564,0.005,-0.035
1565,0.005,-0.030
1566,0.000,-0.035
1567,0.000,-0.025
1568,0.005,-0.030
1569,0.000,-0.025
1570,0.000,-0.030
1571,0.000,-0.025
1572,0.000,-0.025
1573,0.000,-0.025
1574,0.000,-0.025
1575,0.000,-0.035
1576,0.000,-0.035
1577,0.000,-0.035
1578,0.000,-0.025
1579,0.005,-0.035
1580,0.005,-0.030
1581,0.005,-0.035
1582,0.005,-0.020
1583,0.005,-0.040
1584,0.000,-0.025
1585,0.000,-0.030
1586,0.000,-0.020
1587,0.000,-0.030
1588,0.010,-0.005
1589,0.020,0.000
1590,0.025,0.020
1591,0.030,0.025
1592,0.030,0.045
1593,0.030,0.035
1594,0.025,0.025
1595,0.015,0.005
1596,0.010,-0.005
1597,0.000,-0.015
1598,0.000,-0.025
1599,0.000,-0.030
1600,0.000,-0.035
1601,0.000,-0.030
1602,0.000,-0.030
1603,0.005,-0.025
1604,0.055,0.010
1605,0.180,0.125
1606,0.355,0.320
1607,0.530,0.535
1608,0.660,0.730
1609,0.725,0.845
1610,0.720,0.890
1611,0.670,0.835
1612,0.590,0.770
1613,0.485,0.660
1614,0.360,0.565
1615,0.215,0.410
1616,0.070,0.235
1617,-0.035,-0.005
1618,-0.105,-0.130
1619,-0.145,-0.200
1620,-0.155,-0.205
1621,-0.155,-0.215
1622,-0.155,-0.215
1623,-0.155,-0.215
1624,-0.155,-0.205
1625,-0.155,-0.205
1626,-0.155,-0.210
1627,-0.145,-0.205
1628,-0.145,-0.205
1629,-0.145,-0.200
1630,-0.150,-0.200
1631,-0.150,-0.190
1632,-0.150,-0.195
1633,-0.155,-0.195
1634,-0.165,-0.215
1635,-0.170,-0.205
1636,-0.175,-0.215
1637,-0.175,-0.215
1638,-0.170,-0.215
1639,-0.165,-0.205
1640,-0.155,-0.195
1641,-0.140,-0.175
1642,-0.115,-0.135
1643,-0.085,-0.090
1644,-0.045,-0.040
1645,-0.010,0.000
1646,0.005,0.030
1647,0.020,0.050
1648,0.025,0.055
1649,0.025,0.050
1650,0.025,0.040
1651,0.030,0.020
1652,0.025,0.005
1653,0.020,0.005
1654,0.020,0.005
1655,0.020,0.000
1656,0.020,0.000
1657,0.025,0.000
1658,0.025,0.000
1659,0.020,0.000
1660,0.020,0.000
1661,0.025,0.000
1662,0.025,0.000
1663,0.025,0.010
1664,0.030,0.000
1665,0.030,0.010
1666,0.030,0.000
1667,0.025,0.005
1668,0.025,0.000
1669,0.030,0.010
1670,0.035,0.000
1671,0.035,0.000
1672,0.035,0.005
1673,0.035,0.000
1674,0.035,0.000
1675,0.030,0.000
1676,0.030,0.000
1677,0.030,0.000
1678,0.025,0.005
1679,0.025,0.005
1680,0.025,0.005
1681,0.030,0.000
1682,0.035,0.000
1683,0.040,0.000
1684,0.040,0.005
1685,0.040,0.005
1686,0.040,0.005
1687,0.040,0.005
1688,0.040,0.010
1689,0.045,0.020
1690,0.060,0.030
1691,0.075,0.050
1692,0.090,0.055
1693,0.100,0.085
1694,0.105,0.090
1695,0.095,0.085
1696,0.075,0.065
1697,0.060,0.050
1698,0.050,0.010
1699,0.045,0.000
1700,0.030,0.000
1701,0.030,0.000
1702,0.030,0.000
1703,0.035,-0.005
1704,0.035,-0.005
1705,0.055,0.000
1706,0.140,0.070
1707,0.300,0.230
1708,0.490,0.455
1709,0.655,0.650
1710,0.755,0.845
1711,0.780,0.935
1712,0.750,0.945
1713,0.690,0.860
1714,0.605,0.800
1715,0.495,0.690
1716,0.365,0.580
1717,0.210,0.400
1718,0.060,0.190
1719,-0.045,-0.020
1720,-0.105,-0.140
1721,-0.130,-0.190
1722,-0.140,-0.210
1723,-0.145,-0.220
1724,-0.145,-0.225
1725,-0.145,-0.225
1726,-0.145,-0.225
1727,-0.145,-0.215
1728,-0.145,-0.220
1729,-0.145,-0.225
1730,-0.145,-0.230
1731,-0.155,-0.230
1732,-0.155,-0.225
1733,-0.155,-0.225
1734,-0.155,-0.230
1735,-0.160,-0.240
1736,-0.170,-0.245
1737,-0.180,-0.255
1738,-0.185,-0.250
1739,-0.185,-0.265
1740,-0.185,-0.255
1741,-0.180,-0.260
1742,-0.170,-0.235
1743,-0.150,-0.210
1744,-0.120,-0.150
1745,-0.085,-0.125
1746,-0.045,-0.050
1747,-0.010,-0.020
1748,0.010,0.015
1749,0.025,0.020
1750,0.025,0.025
1751,0.025,0.010
1752,0.025,0.005
1753,0.020,0.000
1754,0.015,0.000
1755,0.010,-0.015
1756,0.010,-0.020
1757,0.005,-0.025
1758,0.005,-0.030
1759,0.010,-0.020
1760,0.010,-0.020
1761,0.010,-0.020
1762,0.015,-0.030
1763,0.015,-0.025
1764,0.015,-0.030
1765,0.015,-0.025
1766,0.015,-0.030
1767,0.015,-0.025
1768,0.010,-0.020
1769,0.005,-0.020
1770,0.005,-0.030
1771,0.005,-0.030
1772,0.010,-0.025
1773,0.010,-0.025
1774,0.010,-0.020
1775,0.010,-0.025
1776,0.015,-0.025
1777,0.010,-0.025
1778,0.010,-0.025
1779,0.015,-0.025
1780,0.010,-0.025
1781,0.005,-0.025
1782,0.005,-0.030
1783,0.005,-0.030
1784,0.010,-0.030
1785,0.010,-0.025
1786,0.005,-0.030
1787,0.005,-0.025
1788,0.005,-0.040
1789,0.000,-0.020
1790,0.000,-0.040
1791,0.000,-0.035
1792,0.005,-0.040
1793,0.010,0.000
1794,0.025,0.000
1795,0.035,0.005
1796,0.045,0.010
1797,0.050,0.050
1798,0.035,0.030
1799,0.030,0.030
1800,0.020,0.005
1801,0.010,-0.015
1802,0.000,-0.030
1803,0.000,-0.035
1804,0.000,-0.040
1805,0.000,-0.040
1806,0.000,-0.045
1807,0.000,-0.040
1808,0.015,-0.030
1809,0.090,0.025
1810,0.235,0.175
1811,0.420,0.370
1812,0.580,0.580
1813,0.685,0.765
1814,0.720,0.870
1815,0.705,0.875
1816,0.650,0.815
1817,0.565,0.750
1818,0.465,0.655
1819,0.340,0.535
1820,0.195,0.370
1821,0.055,0.185
1822,-0.045,-0.030
1823,-0.110,-0.145
1824,-0.140,-0.220
1825,-0.155,-0.225
1826,-0.155,-0.240
1827,-0.155,-0.230
1828,-0.155,-0.235
1829,-0.150,-0.230
1830,-0.150,-0.230
1831,-0.155,-0.230
1832,-0.150,-0.225
1833,-0.150,-0.240
1834,-0.155,-0.240
1835,-0.155,-0.240
1836,-0.160,-0.230
1837,-0.165,-0.240
1838,-0.175,-0.235
1839,-0.180,-0.255
1840,-0.185,-0.250
1841,-0.190,-0.260
1842,-0.195,-0.245
1843,-0.195,-0.265
1844,-0.185,-0.250
1845,-0.170,-0.245
1846,-0.155,-0.200
1847,-0.125,-0.170
1848,-0.090,-0.105
1849,-0.055,-0.070
1850,-0.025,-0.025
1851,0.000,0.000
1852,0.005,0.015
1853,0.010,0.015
1854,0.015,0.005
1855,0.015,0.005
1856,0.010,0.000
1857,0.005,-0.005
1858,0.000,-0.015
1859,0.000,-0.025
1860,0.000,-0.030
1861,0.000,-0.035
1862,0.000,-0.035
1863,0.010,-0.030
1864,0.005,-0.025
1865,0.000,-0.040
1866,0.000,-0.030
1867,0.000,-0.040
1868,0.000,-0.030
1869,0.000,-0.040
1870,0.000,-0.025
1871,0.000,-0.045
1872,0.000,-0.025
1873,0.000,-0.045
1874,0.000,-0.025
1875,0.000,-0.040
1876,0.000,-0.020
1877,0.000,-0.035
1878,0.000,-0.030
1879,0.000,-0.030
1880,0.000,-0.030
1881,0.000,-0.040
1882,0.000,-0.040
1883,0.000,-0.035
1884,0.000,-0.035
1885,0.005,-0.035
1886,0.000,-0.035
1887,0.000,-0.025
1888,0.000,-0.040
1889,0.000,-0.035
1890,0.000,-0.045
1891,0.000,-0.035
1892,0.000,-0.040
1893,0.000,-0.030
1894,0.000,-0.035
1895,0.005,-0.020
1896,0.010,-0.015
1897,0.015,-0.010
1898,0.025,0.000
1899,0.040,0.010
1900,0.050,0.025
1901,0.045,0.040
1902,0.030,0.035
1903,0.015,0.010
1904,0.005,-0.005
1905,0.000,-0.030
1906,0.000,-0.040
1907,0.000,-0.045
1908,0.000,-0.045
1909,0.000,-0.045
1910,0.000,-0.040
1911,0.000,-0.030
1912,0.025,-0.020
1913,0.120,0.060
1914,0.285,0.220
1915,0.470,0.450
1916,0.630,0.645
1917,0.720,0.835
1918,0.725,0.875
1919,0.685,0.860
1920,0.615,0.775
1921,0.510,0.710
1922,0.400,0.585
1923,0.260,0.470
1924,0.110,0.270
1925,-0.010,0.060
1926,-0.090,-0.110
1927,-0.130,-0.185
1928,-0.145,-0.230
1929,-0.150,-0.235
1930,-0.155,-0.240
1931,-0.155,-0.230
1932,-0.150,-0.235
1933,-0.150,-0.235
1934,-0.150,-0.235
1935,-0.155,-0.235
1936,-0.155,-0.230
1937,-0.155,-0.235
1938,-0.155,-0.225
1939,-0.160,-0.225
1940,-0.165,-0.230
1941,-0.170,-0.235
1942,-0.170,-0.235
1943,-0.175,-0.240
1944,-0.180,-0.250
1945,-0.185,-0.250
1946,-0.185,-0.255
1947,-0.180,-0.240
1948,-0.170,-0.225
1949,-0.155,-0.195
1950,-0.135,-0.180
1951,-0.105,-0.140
1952,-0.075,-0.095
1953,-0.040,-0.040
1954,-0.015,-0.015
1955,0.000,0.010
1956,0.010,0.010
1957,0.010,0.020
1958,0.010,0.000
1959,0.010,0.000
1960,0.005,-0.005
1961,0.000,-0.025
1962,0.000,-0.030
1963,0.000,-0.040
1964,0.000,-0.030
1965,0.000,-0.040
1966,0.000,-0.025
1967,0.000,-0.050
1968,0.000,-0.030
1969,0.000,-0.050
1970,0.000,-0.030
1971,0.000,-0.045
1972,0.000,-0.030
1973,-0.005,-0.045
1974,-0.005,-0.030
1975,-0.005,-0.040
1976,0.000,-0.035
1977,0.000,-0.040
1978,0.000,-0.035
1979,0.000,-0.045
1980,0.000,-0.035
1981,0.000,-0.030
1982,0.000,-0.030
1983,0.000,-0.030
1984,0.000,-0.035
1985,0.000,-0.035
1986,0.000,-0.035
1987,0.000,-0.035
1988,0.000,-0.035
1989,0.000,-0.035
1990,0.000,-0.035
1991,0.000,-0.040
1992,0.000,-0.025
1993,0.000,-0.035
1994,0.000,-0.035
1995,0.000,-0.040
1996,0.000,-0.025
1997,0.000,-0.035
1998,0.005,-0.020
1999,0.010,-0.025
2000,0.015,0.000
2001,0.020,0.000
2002,0.025,0.010
2003,0.035,0.015
2004,0.035,0.050
2005,0.025,0.025
2006,0.025,0.025
2007,0.015,0.000
2008,0.010,-0.005
2009,0.000,-0.020
2010,0.000,-0.025
2011,-0.005,-0.030
2012,-0.010,-0.040
2013,-0.005,-0.035
2014,-0.005,-0.050
2015,0.005,-0.025
2016,0.075,0.020
2017,0.215,0.175
2018,0.395,0.365
2019,0.560,0.570
2020,0.675,0.745
2021,0.715,0.860
2022,0.700,0.860
2023,0.635,0.815
2024,0.545,0.735
2025,0.435,0.640
2026,0.310,0.505
2027,0.170,0.345
2028,0.035,0.140
2029,-0.060,-0.055
2030,-0.115,-0.160
2031,-0.140,-0.210
2032,-0.150,-0.230
2033,-0.160,-0.240
2034,-0.155,-0.235
2035,-0.150,-0.235
2036,-0.150,-0.235
2037,-0.150,-0.230
2038,-0.150,-0.230
2039,-0.155,-0.225
2040,-0.160,-0.225
2041,-0.160,-0.225
2042,-0.160,-0.235
2043,-0.160,-0.220
2044,-0.170,-0.240
2045,-0.175,-0.240
2046,-0.175,-0.250
2047,-0.180,-0.240
2048,-0.185,-0.265
2049,-0.185,-0.245
2050,-0.190,-0.255
2051,-0.185,-0.225
2052,-0.170,-0.230
2053,-0.150,-0.195
2054,-0.115,-0.175
2055,-0.085,-0.105
2056,-0.060,-0.070
2057,-0.030,-0.020
2058,-0.005,0.000
2059,0.000,0.005
2060,0.005,0.005
2061,0.010,0.005
2062,0.010,0.000
2063,0.010,0.000
2064,0.005,-0.010
2065,0.000,-0.025
2066,0.000,-0.030
2067,0.000,-0.040
2068,0.000,-0.035
2069,-0.005,-0.035
2070,0.000,-0.030
2071,0.000,-0.030
2072,0.000,-0.030
2073,0.000,-0.030
2074,0.000,-0.035
2075,0.000,-0.025
2076,0.000,-0.025
2077,0.000,-0.030
2078,0.000,-0.045
2079,0.000,-0.025
2080,0.000,-0.035
2081,0.000,-0.025
2082,0.000,-0.035
2083,0.000,-0.020
2084,0.000,-0.025
2085,0.000,-0.030
2086,0.000,-0.025
2087,0.000,-0.025
2088,0.000,-0.025
2089,0.000,-0.025
2090,0.000,-0.020
2091,0.005,-0.020
2092,0.010,-0.020
2093,0.010,-0.020
2094,0.010,-0.020
2095,0.010,-0.020
2096,0.010,0.000
2097,0.010,-0.015
2098,0.010,-0.005
2099,0.010,-0.020
2100,0.010,-0.005
2101,0.010,-0.015
2102,0.010,-0.005
2103,0.015,-0.015
2104,0.020,0.000
2105,0.030,0.005
2106,0.040,0.020
2107,0.055,0.030
2108,0.065,0.055
2109,0.065,0.060
2110,0.055,0.055
2111,0.040,0.050
2112,0.030,0.030
2113,0.025,0.005
2114,0.020,0.000
2115,0.020,0.000
2116,0.020,0.000
2117,0.020,0.000
2118,0.020,0.000
2119,0.025,0.000
2120,0.050,0.010
2121,0.125,0.065
2122,0.275,0.225
2123,0.455,0.415
2124,0.625,0.630
2125,0.735,0.805
2126,0.770,0.940
2127,0.745,0.910
2128,0.685,0.875
2129,0.600,0.785
2130,0.500,0.720
2131,0.375,0.585
2132,0.230,0.440
2133,0.075,0.195
2134,-0.025,0.000
2135,-0.080,-0.125
2136,-0.100,-0.165
2137,-0.105,-0.190
2138,-0.110,-0.190
2139,-0.110,-0.190
2140,-0.110,-0.185
2141,-0.115,-0.185
2142,-0.115,-0.190
2143,-0.110,-0.190
2144,-0.105,-0.190
2145,-0.105,-0.185
2146,-0.110,-0.185
2147,-0.115,-0.170
2148,-0.115,-0.180
2149,-0.115,-0.180
2150,-0.115,-0.195
2151,-0.125,-0.195
2152,-0.130,-0.195
2153,-0.130,-0.195
2154,-0.140,-0.205
2155,-0.145,-0.205
2156,-0.140,-0.195
2157,-0.125,-0.180
2158,-0.105,-0.150
2159,-0.080,-0.115
2160,-0.045,-0.065
2161,-0.010,-0.020
2162,0.010,0.015
2163,0.040,0.060
2164,0.055,0.085
2165,0.065,0.080
2166,0.065,0.075
2167,0.060,0.060
2168,0.055,0.050
2169,0.045,0.035
2170,0.045,0.025
2171,0.045,0.020
2172,0.045,0.005
2173,0.045,0.010
2174,0.045,0.010
2175,0.045,0.020
2176,0.045,0.005
2177,0.045,0.015
2178,0.050,0.005
2179,0.045,0.020
2180,0.045,0.005
2181,0.040,0.010
2182,0.035,0.000
2183,0.035,0.015
2184,0.035,0.000
2185,0.035,0.000
2186,0.035,0.005
2187,0.030,0.005
2188,0.025,0.000
2189,0.025,0.000
2190,0.025,0.000
2191,0.025,0.000
2192,0.025,0.000
2193,0.025,0.000
2194,0.025,0.000
2195,0.025,-0.005
2196,0.025,-0.005
2197,0.020,-0.005
2198,0.020,-0.005
2199,0.020,0.000
2200,0.020,-0.005
2201,0.020,-0.005
2202,0.020,-0.010
2203,0.020,-0.005
2204,0.020,-0.015
2205,0.020,-0.010
2206,0.020,-0.015
2207,0.020,-0.005
2208,0.020,-0.015
2209,0.020,0.000
2210,0.020,-0.010
2211,0.025,0.005
2212,0.035,0.010
2213,0.050,0.040
2214,0.065,0.045
2215,0.060,0.055
2216,0.055,0.050
2217,0.045,0.045
2218,0.025,0.020
2219,0.020,-0.005
2220,0.015,-0.010
2221,0.010,-0.030
2222,0.010,-0.020
2223,0.010,-0.025
2224,0.010,-0.020
2225,0.015,-0.025
2226,0.030,-0.015
2227,0.105,0.030
2228,0.255,0.205
2229,0.435,0.395
2230,0.600,0.620
2231,0.705,0.795
2232,0.745,0.910
2233,0.735,0.910
2234,0.680,0.865
2235,0.600,0.790
2236,0.490,0.700
2237,0.365,0.570
2238,0.220,0.410
2239,0.070,0.195
2240,-0.045,-0.010
2241,-0.110,-0.140
2242,-0.140,-0.205
2243,-0.150,-0.220
2244,-0.155,-0.235
2245,-0.155,-0.245
2246,-0.160,-0.240
2247,-0.160,-0.235
2248,-0.155,-0.230
2249,-0.155,-0.235
2250,-0.155,-0.225
2251,-0.155,-0.230
2252,-0.155,-0.225
2253,-0.165,-0.240
2254,-0.170,-0.235
2255,-0.170,-0.245
2256,-0.170,-0.240
2257,-0.175,-0.245
2258,-0.180,-0.245
2259,-0.195,-0.275
2260,-0.200,-0.255
2261,-0.195,-0.260
2262,-0.190,-0.245
2263,-0.175,-0.245
2264,-0.155,-0.200
2265,-0.130,-0.180
2266,-0.095,-0.125
2267,-0.060,-0.070
2268,-0.025,-0.015
2269,0.000,0.000
2270,0.010,0.010
2271,0.015,0.015
2272,0.015,0.010
2273,0.015,0.005
2274,0.010,0.000
2275,0.010,0.000
2276,0.005,-0.015
2277,0.000,-0.020
2278,0.000,-0.030
2279,0.000,-0.030
2280,0.000,-0.035
2281,0.000,-0.025
2282,0.000,-0.030
2283,0.000,-0.035
2284,0.000,-0.035
2285,0.000,-0.035
2286,0.000,-0.030
2287,0.000,-0.035
2288,0.000,-0.030
2289,0.000,-0.035
2290,0.000,-0.030
2291,0.000,-0.035
2292,0.000,-0.025
2293,0.000,-0.035
2294,0.000,-0.030
2295,0.000,-0.030
2296,0.000,-0.035
2297,0.000,-0.035
2298,0.000,-0.035
2299,0.000,-0.035
2300,0.000,-0.035
2301,0.000,-0.030
2302,0.000,-0.040
2303,0.000,-0.035
2304,0.000,-0.045
2305,0.000,-0.025
2306,0.000,-0.040
2307,0.000,-0.025
2308,0.000,-0.045
2309,0.000,-0.025
2310,0.000,-0.035
2311,0.000,-0.020
2312,0.000,-0.045
2313,0.000,-0.035
2314,0.000,-0.040
2315,0.000,-0.030
2316,0.000,-0.030
2317,0.000,-0.025
2318,0.000,-0.030
2319,0.005,-0.025
2320,0.010,-0.015
2321,0.015,0.000
2322,0.025,0.005
2323,0.035,0.015
2324,0.040,0.040
2325,0.030,0.040
2326,0.025,0.035
2327,0.020,0.015
2328,0.005,-0.005
2329,0.000,-0.025
2330,0.000,-0.035
2331,0.000,-0.035
2332,0.000,-0.045
2333,0.000,-0.040
2334,0.000,-0.050
2335,0.005,-0.035
2336,0.050,0.000
2337,0.175,0.125
2338,0.350,0.310
2339,0.530,0.530
2340,0.660,0.715
2341,0.725,0.870
2342,0.715,0.890
2343,0.665,0.840
2344,0.585,0.760
2345,0.495,0.680
2346,0.375,0.565
2347,0.225,0.430
2348,0.075,0.225
2349,-0.035,0.015
2350,-0.110,-0.130
2351,-0.140,-0.205
2352,-0.155,-0.225
2353,-0.160,-0.240
2354,-0.160,-0.225
2355,-0.155,-0.240
2356,-0.155,-0.225
2357,-0.155,-0.235
2358,-0.155,-0.225
2359,-0.155,-0.230
2360,-0.155,-0.215
2361,-0.155,-0.230
2362,-0.155,-0.225
2363,-0.160,-0.225
2364,-0.160,-0.220
2365,-0.160,-0.230
2366,-0.170,-0.245
2367,-0.175,-0.255
2368,-0.180,-0.260
2369,-0.185,-0.250
2370,-0.185,-0.245
2371,-0.180,-0.240
2372,-0.170,-0.230
2373,-0.155,-0.205
2374,-0.130,-0.180
2375,-0.100,-0.130
2376,-0.070,-0.080
2377,-0.040,-0.040
2378,-0.010,0.000
2379,0.000,0.010
2380,0.015,0.025
2381,0.015,0.015
2382,0.015,0.010
2383,0.010,0.000
2384,0.000,0.000
2385,0.000,-0.025
2386,0.000,-0.025
2387,0.000,-0.035
2388,0.000,-0.025
2389,0.000,-0.045
2390,0.000,-0.030
2391,0.000,-0.045
2392,0.000,-0.025
2393,0.000,-0.035
2394,0.000,-0.035
2395,0.000,-0.040
2396,0.000,-0.035
2397,0.000,-0.035
2398,0.000,-0.040
2399,0.000,-0.035
2400,0.000,-0.035
2401,0.000,-0.040
2402,0.000,-0.040
2403,0.000,-0.035
2404,0.000,-0.035
2405,0.000,-0.035
2406,0.000,-0.040
2407,0.000,-0.035
2408,0.000,-0.035
2409,0.000,-0.035
2410,0.000,-0.035
2411,0.000,-0.035
2412,0.000,-0.035
2413,0.000,-0.040
2414,0.000,-0.035
2415,0.000,-0.040
2416,0.000,-0.035
2417,0.000,-0.045
2418,0.000,-0.035
2419,0.000,-0.040
2420,0.000,-0.035
2421,0.000,-0.040
2422,0.000,-0.035
2423,0.000,-0.035
2424,0.000,-0.030
2425,0.000,-0.040
2426,0.005,-0.040
2427,0.015,-0.025
2428,0.020,-0.015
2429,0.025,0.005
2430,0.035,0.005
2431,0.040,0.035
2432,0.040,0.035
2433,0.030,0.035
2434,0.020,0.005
2435,0.010,0.005
2436,0.005,-0.020
2437,0.000,-0.025
2438,0.000,-0.045
2439,0.000,-0.030
2440,0.000,-0.045
2441,-0.005,-0.035
2442,0.000,-0.035
2443,0.030,-0.010
2444,0.135,0.075
2445,0.300,0.260
2446,0.480,0.465
2447,0.625,0.660
2448,0.710,0.815
2449,0.725,0.875
2450,0.685,0.850
2451,0.610,0.780
2452,0.510,0.695
2453,0.390,0.590
2454,0.255,0.460
2455,0.115,0.275
2456,-0.005,0.060
2457,-0.085,-0.100
2458,-0.125,-0.185
2459,-0.140,-0.205
2460,-0.150,-0.220
2461,-0.150,-0.220
2462,-0.150,-0.230
2463,-0.150,-0.215
2464,-0.145,-0.225
2465,-0.145,-0.210
2466,-0.150,-0.220
2467,-0.145,-0.200
2468,-0.140,-0.215
2469,-0.140,-0.215
2470,-0.150,-0.230
2471,-0.155,-0.220
2472,-0.160,-0.230
2473,-0.160,-0.220
2474,-0.160,-0.230
2475,-0.165,-0.230
2476,-0.175,-0.235
2477,-0.180,-0.235
2478,-0.180,-0.240
2479,-0.170,-0.225
2480,-0.155,-0.200
2481,-0.130,-0.185
2482,-0.105,-0.130
2483,-0.070,-0.085
2484,-0.035,-0.035
2485,-0.005,-0.005
2486,0.005,0.020
2487,0.010,0.015
2488,0.015,0.025
2489,0.015,0.010
2490,0.010,0.000
2491,0.010,-0.005
2492,0.010,0.000
2493,0.005,-0.010
2494,0.000,-0.020
2495,0.000,-0.030
2496,0.000,-0.035
2497,0.000,-0.030
2498,0.000,-0.030
2499,0.000,-0.025
2500,0.000,-0.035
2501,0.000,-0.030
2502,0.000,-0.035
2503,0.000,-0.040
2504,0.000,-0.035
2505,0.000,-0.040
2506,0.000,-0.030
2507,0.000,-0.025
2508,0.005,-0.020
2509,0.000,-0.040
2510,0.000,-0.025
2511,0.000,-0.040
2512,0.000,-0.025
2513,0.000,-0.035
2514,0.000,-0.025
2515,0.000,-0.040
2516,0.000,-0.020
2517,0.000,-0.045
2518,0.000,-0.020
2519,0.000,-0.020
2520,0.000,-0.025
2521,0.000,-0.035
2522,0.000,-0.020
2523,0.000,-0.030
2524,0.000,-0.025
2525,0.000,-0.025
2526,0.000,-0.025
2527,0.000,-0.025
2528,0.000,-0.025
2529,0.000,-0.025
2530,0.000,-0.020
2531,0.000,-0.020
2532,0.005,-0.020
2533,0.015,-0.005
2534,0.020,0.000
2535,0.025,0.010
2536,0.030,0.025
2537,0.035,0.040
2538,0.035,0.045
2539,0.030,0.040
2540,0.015,0.020
2541,0.005,0.000
2542,0.000,-0.020
2543,0.000,-0.035
2544,0.000,-0.030
2545,0.000,-0.035
2546,0.000,-0.025
2547,0.000,-0.030
2548,0.010,-0.020
2549,0.055,0.010
2550,0.170,0.125
2551,0.345,0.310
2552,0.520,0.520
2553,0.660,0.720
2554,0.725,0.850
2555,0.715,0.880
2556,0.665,0.835
2557,0.580,0.765
2558,0.475,0.665
2559,0.360,0.575
2560,0.225,0.425
2561,0.075,0.225
2562,-0.030,-0.005
2563,-0.105,-0.125
2564,-0.130,-0.190
2565,-0.140,-0.200
2566,-0.145,-0.230
2567,-0.140,-0.215
2568,-0.140,-0.225
2569,-0.145,-0.200
2570,-0.145,-0.220
2571,-0.145,-0.215
2572,-0.145,-0.220
2573,-0.145,-0.215
2574,-0.140,-0.220
2575,-0.140,-0.210
2576,-0.140,-0.210
2577,-0.145,-0.220
2578,-0.150,-0.220
2579,-0.155,-0.220
2580,-0.155,-0.225
2581,-0.160,-0.230
2582,-0.165,-0.230
2583,-0.165,-0.225
2584,-0.160,-0.215
2585,-0.145,-0.200
2586,-0.130,-0.180
2587,-0.105,-0.150
2588,-0.075,-0.105
2589,-0.040,-0.050
2590,-0.010,-0.020
2591,0.005,0.020
2592,0.020,0.030
2593,0.025,0.045
2594,0.025,0.030
2595,0.025,0.040
2596,0.025,0.005
2597,0.025,0.010
2598,0.025,0.000
2599,0.025,0.000
2600,0.020,0.000
2601,0.020,0.000
2602,0.025,-0.005
2603,0.025,0.000
2604,0.025,0.000
2605,0.025,-0.005
2606,0.020,-0.005
2607,0.020,-0.005
2608,0.020,0.000
2609,0.025,0.000
2610,0.025,0.000
2611,0.025,0.000
2612,0.025,0.000
2613,0.025,0.000
2614,0.025,0.005
2615,0.025,0.000
2616,0.030,0.000
2617,0.035,0.000
2618,0.035,0.000
2619,0.035,0.000
2620,0.035,0.000
2621,0.035,0.000
2622,0.035,0.005
2623,0.035,0.000
2624,0.035,0.000
2625,0.035,0.005
2626,0.035,0.005
2627,0.035,0.000
2628,0.035,0.005
2629,0.035,0.010
2630,0.035,0.000
2631,0.035,0.000
2632,0.035,0.005
2633,0.035,0.005
2634,0.035,0.005
2635,0.035,0.005
2636,0.035,0.000
2637,0.045,0.005
2638,0.055,0.030
2639,0.070,0.035
2640,0.090,0.070
2641,0.100,0.070
2642,0.095,0.110
2643,0.085,0.085
2644,0.075,0.080
2645,0.055,0.040
2646,0.045,0.030
2647,0.040,0.005
2648,0.035,0.010
2649,0.035,0.000
2650,0.035,0.000
2651,0.040,0.000
2652,0.040,0.000
2653,0.060,0.010
2654,0.155,0.095
2655,0.320,0.265
2656,0.515,0.475
2657,0.670,0.675
2658,0.765,0.850
2659,0.790,0.945
2660,0.760,0.940
2661,0.705,0.890
2662,0.625,0.810
2663,0.515,0.720
2664,0.375,0.595
2665,0.220,0.430
2666,0.075,0.200
2667,-0.030,0.000
2668,-0.090,-0.125
2669,-0.115,-0.190
2670,-0.125,-0.200
2671,-0.130,-0.215
2672,-0.135,-0.210
2673,-0.130,-0.215
2674,-0.130,-0.200
2675,-0.130,-0.210
2676,-0.135,-0.195
2677,-0.135,-0.205
2678,-0.135,-0.200
2679,-0.140,-0.215
2680,-0.150,-0.200
2681,-0.155,-0.210
2682,-0.160,-0.220
2683,-0.160,-0.225
2684,-0.165,-0.230
2685,-0.170,-0.230
2686,-0.180,-0.245
2687,-0.185,-0.250
2688,-0.185,-0.255
2689,-0.180,-0.240
2690,-0.170,-0.240
2691,-0.150,-0.175
2692,-0.115,-0.165
2693,-0.080,-0.095
2694,-0.045,-0.055
2695,-0.010,-0.005
2696,0.005,0.010
2697,0.015,0.035
2698,0.020,0.025
2699,0.020,0.025
2700,0.015,0.005
2701,0.015,0.000
2702,0.010,0.000
2703,0.010,-0.005
2704,0.010,-0.015
2705,0.010,-0.020
2706,0.005,-0.020
2707,0.005,-0.025
2708,0.000,-0.025
2709,0.005,-0.025
2710,0.010,-0.025
2711,0.010,-0.025
2712,0.005,-0.025
2713,0.005,-0.025
2714,0.000,-0.025
2715,0.000,-0.020
2716,0.005,-0.025
2717,0.010,-0.025
2718,0.005,-0.030
2719,0.005,-0.020
2720,0.005,-0.025
2721,0.000,-0.015
2722,0.000,-0.030
2723,0.000,-0.015
2724,0.000,-0.035
2725,0.000,-0.025
2726,0.005,-0.035
2727,0.010,-0.020
2728,0.005,-0.035
2729,0.005,-0.025
2730,0.005,-0.035
2731,0.005,-0.025
2732,0.005,-0.025
2733,0.000,-0.035
2734,0.000,-0.040
2735,0.000,-0.035
2736,0.000,-0.025
2737,0.000,-0.025
2738,0.000,-0.030
2739,0.000,-0.040
2740,0.000,-0.025
2741,0.000,-0.045
2742,0.010,-0.025
2743,0.015,-0.020
2744,0.025,0.000
2745,0.035,0.005
2746,0.040,0.035
2747,0.040,0.035
2748,0.035,0.030
2749,0.025,0.020
2750,0.010,0.000
2751,0.000,-0.015
2752,0.000,-0.030
2753,0.000,-0.040
2754,0.000,-0.050
2755,0.000,-0.040
2756,-0.005,-0.040
2757,0.000,-0.045
2758,0.015,-0.025
2759,0.105,0.050
2760,0.265,0.205
2761,0.455,0.415
2762,0.615,0.635
2763,0.705,0.810
2764,0.735,0.895
2765,0.705,0.870
2766,0.635,0.815
2767,0.545,0.730
2768,0.435,0.640
2769,0.305,0.500
2770,0.160,0.350
2771,0.020,0.110
2772,-0.070,-0.050
2773,-0.125,-0.190
2774,-0.150,-0.195
2775,-0.155,-0.240
2776,-0.160,-0.230
2777,-0.155,-0.245
2778,-0.155,-0.230
2779,-0.155,-0.235
2780,-0.160,-0.230
2781,-0.155,-0.240
2782,-0.155,-0.240
2783,-0.155,-0.235
2784,-0.160,-0.230
2785,-0.165,-0.240
2786,-0.170,-0.235
2787,-0.170,-0.235
2788,-0.170,-0.240
2789,-0.180,-0.245
2790,-0.190,-0.250
2791,-0.190,-0.250
2792,-0.190,-0.255
2793,-0.190,-0.250
2794,-0.185,-0.245
2795,-0.175,-0.235
2796,-0.155,-0.205
2797,-0.130,-0.165
2798,-0.095,-0.115
2799,-0.055,-0.065
2800,-0.015,-0.015
2801,0.000,0.000
2802,0.005,0.015
2803,0.005,0.005
2804,0.005,0.005
2805,0.005,0.000
2806,0.005,0.000
2807,0.000,-0.015
2808,0.000,-0.015
2809,0.000,-0.025
2810,0.000,-0.025
2811,0.000,-0.035
2812,0.000,-0.025
2813,0.000,-0.035
2814,0.000,-0.030
2815,0.000,-0.030
2816,0.000,-0.040
2817,0.000,-0.025
2818,0.000,-0.035
2819,0.000,-0.025
2820,0.000,-0.045
2821,0.000,-0.030
2822,0.000,-0.035
2823,0.000,-0.025
2824,0.000,-0.040
2825,0.000,-0.030
2826,0.000,-0.035
2827,0.005,-0.025
2828,0.000,-0.035
2829,0.000,-0.025
2830,0.000,-0.035
2831,0.000,-0.035
2832,0.000,-0.035
2833,0.000,-0.035
2834,0.000,-0.035
2835,0.000,-0.030
2836,0.000,-0.035
2837,0.000,-0.040
2838,0.000,-0.040
2839,0.000,-0.045
2840,0.000,-0.040
2841,0.000,-0.045
2842,0.000,-0.040
2843,0.000,-0.035
2844,0.000,-0.050
2845,0.000,-0.040
2846,0.000,-0.040
2847,0.000,-0.035
2848,0.000,-0.035
2849,0.010,-0.020
2850,0.010,-0.010
2851,0.025,0.005
2852,0.035,0.005
2853,0.040,0.035
2854,0.035,0.030
2855,0.030,0.045
2856,0.020,0.000
2857,0.005,-0.005
2858,0.000,-0.040
2859,0.000,-0.040
2860,0.000,-0.040
2861,-0.005,-0.045
2862,-0.005,-0.050
2863,-0.005,-0.045
2864,0.000,-0.040
2865,0.030,-0.015
2866,0.135,0.080
2867,0.305,0.250
2868,0.485,0.470
2869,0.635,0.665
2870,0.715,0.830
2871,0.720,0.875
2872,0.675,0.850
2873,0.600,0.775
2874,0.500,0.685
2875,0.380,0.565
2876,0.245,0.440
2877,0.100,0.250
2878,-0.010,0.045
2879,-0.090,-0.110
2880,-0.130,-0.185
2881,-0.145,-0.215
2882,-0.155,-0.230
2883,-0.155,-0.230
2884,-0.155,-0.235
2885,-0.155,-0.225
2886,-0.155,-0.225
2887,-0.155,-0.225
2888,-0.155,-0.225
2889,-0.155,-0.215
2890,-0.155,-0.225
2891,-0.160,-0.225
2892,-0.160,-0.225
2893,-0.160,-0.230
2894,-0.160,-0.230
2895,-0.170,-0.240
2896,-0.175,-0.235
2897,-0.175,-0.255
2898,-0.175,-0.240
2899,-0.180,-0.250
2900,-0.175,-0.235
2901,-0.170,-0.240
2902,-0.160,-0.200
2903,-0.140,-0.190
2904,-0.105,-0.135
2905,-0.070,-0.110
2906,-0.040,-0.030
2907,-0.010,-0.015
2908,0.000,0.010
2909,0.005,0.020
2910,0.010,0.020
2911,0.015,0.000
2912,0.010,0.000
2913,0.005,-0.005
2914,0.000,-0.010
2915,0.000,-0.020
2916,0.000,-0.030
2917,0.000,-0.025
2918,0.000,-0.030
2919,0.000,-0.040
2920,0.000,-0.040
2921,0.000,-0.030
2922,0.000,-0.035
2923,0.000,-0.035
2924,0.000,-0.030
2925,0.000,-0.035
2926,0.000,-0.030
2927,0.000,-0.030
2928,0.000,-0.030
2929,0.000,-0.035
2930,0.000,-0.030
2931,0.000,-0.035
2932,0.000,-0.025
2933,0.000,-0.035
2934,0.000,-0.025
2935,0.000,-0.035
2936,0.000,-0.035
2937,0.000,-0.040
2938,0.000,-0.025
2939,0.000,-0.025
2940,0.000,-0.025
2941,0.000,-0.030
2942,0.000,-0.025
2943,0.000,-0.025
2944,0.000,-0.035
2945,0.000,-0.025
2946,0.000,-0.035
2947,0.000,-0.025
2948,0.000,-0.030
2949,0.000,-0.025
2950,0.000,-0.025
2951,0.000,-0.020
2952,0.000,-0.035
2953,0.000,-0.020
2954,0.005,-0.020
2955,0.015,0.000
2956,0.025,0.000
2957,0.035,0.020
2958,0.040,0.035
2959,0.035,0.040
2960,0.025,0.030
2961,0.020,0.015
2962,0.010,-0.005
2963,0.000,-0.020
2964,0.000,-0.025
2965,0.000,-0.020
2966,0.000,-0.025
2967,0.000,-0.040
2968,0.000,-0.035
2969,0.000,-0.030
2970,0.040,0.000
2971,0.150,0.110
2972,0.320,0.295
2973,0.505,0.495
2974,0.640,0.675
2975,0.710,0.835
2976,0.710,0.870
2977,0.660,0.840
2978,0.580,0.760
2979,0.480,0.680
2980,0.360,0.560
2981,0.225,0.440
2982,0.080,0.230
2983,-0.035,0.015
2984,-0.105,-0.145
2985,-0.135,-0.190
2986,-0.145,-0.225
2987,-0.150,-0.220
2988,-0.155,-0.235
2989,-0.155,-0.215
2990,-0.150,-0.235
2991,-0.150,-0.235
2992,-0.150,-0.225
2993,-0.150,-0.225
2994,-0.150,-0.215
2995,-0.150,-0.225
2996,-0.150,-0.220
2997,-0.155,-0.220
2998,-0.160,-0.215
2999,-0.165,-0.230
3000,-0.170,-0.225
3001,-0.175,-0.235
3002,-0.180,-0.235
3003,-0.180,-0.245
3004,-0.185,-0.240
3005,-0.180,-0.240
3006,-0.170,-0.220
3007,-0.155,-0.205
3008,-0.135,-0.175
3009,-0.105,-0.135
3010,-0.070,-0.090
3011,-0.040,-0.040
3012,-0.015,-0.015
3013,0.000,0.005
3014,0.005,0.010
3015,0.000,0.010
3016,0.000,0.000
3017,-0.005,-0.005
3018,-0.015,-0.025
3019,-0.020,-0.030
3020,-0.015,-0.030
3021,-0.015,-0.040
3022,-0.015,-0.040
3023,-0.015,-0.045
3024,-0.020,-0.040
3025,-0.015,-0.045
3026,-0.015,-0.035
3027,-0.010,-0.060
3028,-0.010,-0.035
3029,-0.010,-0.040
3030,-0.010,-0.030
3031,-0.010,-0.040
3032,-0.005,-0.025
3033,-0.005,-0.035
3034,-0.005,-0.025
3035,-0.005,-0.040
3036,-0.005,-0.025
3037,-0.005,-0.030
3038,0.000,-0.020
3039,0.005,-0.030
3040,0.010,-0.025
3041,0.005,-0.025
3042,0.005,-0.020
3043,0.000,-0.030
3044,0.000,-0.035
3045,0.005,-0.030
3046,0.010,-0.030
3047,0.015,-0.025
3048,0.015,-0.025
3049,0.015,-0.020
3050,0.015,-0.015
3051,0.015,-0.010
3052,0.015,-0.010
3053,0.015,-0.015
3054,0.015,-0.015
3055,0.015,-0.020
3056,0.025,-0.005
3057,0.030,-0.005
3058,0.035,0.010
3059,0.040,0.020
3060,0.055,0.045
3061,0.060,0.050
3062,0.055,0.060
3063,0.040,0.045
3064,0.030,0.045
3065,0.020,0.005
3066,0.020,0.000
3067,0.020,-0.010
3068,0.020,-0.005
3069,0.020,-0.015
3070,0.020,-0.015
3071,0.020,-0.010
3072,0.025,-0.010
3073,0.060,0.015
3074,0.180,0.135
3075,0.360,0.340
3076,0.545,0.540
3077,0.685,0.745
3078,0.760,0.885
3079,0.755,0.935
3080,0.710,0.875
3081,0.630,0.820
3082,0.530,0.725
3083,0.420,0.635
3084,0.280,0.480
3085,0.125,0.290
3086,0.005,0.065
3087,-0.065,-0.070
3088,-0.095,-0.155
3089,-0.105,-0.185
3090,-0.110,-0.190
3091,-0.110,-0.190
3092,-0.110,-0.190
3093,-0.110,-0.185
3094,-0.110,-0.180
3095,-0.105,-0.180
3096,-0.105,-0.180
3097,-0.105,-0.180
3098,-0.105,-0.180
3099,-0.105,-0.175
3100,-0.110,-0.180
3101,-0.110,-0.175
3102,-0.115,-0.185
3103,-0.125,-0.185
3104,-0.130,-0.190
3105,-0.130,-0.185
3106,-0.135,-0.200
3107,-0.135,-0.195
3108,-0.130,-0.190
3109,-0.120,-0.170
3110,-0.100,-0.170
3111,-0.080,-0.115
3112,-0.050,-0.090
3113,-0.015,-0.015
3114,0.005,0.000
3115,0.020,0.050
3116,0.045,0.055
3117,0.060,0.080
3118,0.065,0.070
3119,0.060,0.065
3120,0.050,0.050
3121,0.050,0.040
3122,0.050,0.030
3123,0.050,0.025
3124,0.045,0.020
3125,0.045,0.005
3126,0.045,0.005
3127,0.045,0.010
3128,0.040,0.010
3129,0.040,0.005
3130,0.040,0.010
3131,0.045,0.005
3132,0.050,0.005
3133,0.045,0.005
3134,0.040,0.010
3135,0.035,0.005
3136,0.035,0.010
3137,0.030,0.010
3138,0.030,0.000
3139,0.030,0.005
3140,0.035,0.000
3141,0.030,0.000
3142,0.025,0.000
3143,0.025,0.000
3144,0.025,0.000
3145,0.025,0.000
3146,0.020,0.000
3147,0.020,-0.005
3148,0.025,-0.005
3149,0.025,0.000
3150,0.020,0.000
3151,0.020,-0.005
3152,0.020,0.000
3153,0.015,-0.010
3154,0.015,-0.010
3155,0.020,-0.020
3156,0.015,0.000
3157,0.015,-0.020
3158,0.015,0.000
3159,0.020,-0.005
3160,0.030,0.010
3161,0.045,0.015
3162,0.060,0.045
3163,0.065,0.040
3164,0.060,0.060
3165,0.045,0.040
3166,0.030,0.040
3167,0.025,0.005
3168,0.010,-0.005
3169,0.005,-0.020
3170,0.005,-0.025
3171,0.005,-0.030
3172,0.005,-0.030
3173,0.005,-0.030
3174,0.010,-0.025
3175,0.050,0.000
3176,0.160,0.095
3177,0.330,0.275
3178,0.510,0.480
3179,0.655,0.685
3180,0.730,0.845
3181,0.735,0.915
3182,0.700,0.890
3183,0.635,0.820
3184,0.545,0.740
3185,0.430,0.630
3186,0.290,0.505
3187,0.140,0.310
3188,0.005,0.100
3189,-0.075,-0.085
3190,-0.125,-0.170
3191,-0.145,-0.220
3192,-0.160,-0.220
3193,-0.160,-0.240
3194,-0.160,-0.220
3195,-0.155,-0.240
3196,-0.155,-0.235
3197,-0.155,-0.240
3198,-0.160,-0.235
3199,-0.160,-0.235
3200,-0.160,-0.240
3201,-0.160,-0.235
3202,-0.160,-0.235
3203,-0.165,-0.235
3204,-0.170,-0.240
3205,-0.180,-0.240
3206,-0.185,-0.250
3207,-0.195,-0.250
3208,-0.200,-0.270
3209,-0.200,-0.260
3210,-0.195,-0.260
3211,-0.185,-0.240
3212,-0.165,-0.240
3213,-0.140,-0.195
3214,-0.110,-0.160
3215,-0.080,-0.095
3216,-0.045,-0.050
3217,-0.010,-0.010
3218,0.005,0.010
3219,0.010,0.025
3220,0.015,0.020
3221,0.015,0.010
3222,0.015,0.005
3223,0.010,0.000
3224,0.005,0.000
3225,0.000,-0.015
3226,0.000,-0.025
3227,0.000,-0.030
3228,0.000,-0.030
3229,0.000,-0.025
3230,0.000,-0.035
3231,0.000,-0.030
3232,0.000,-0.040
3233,0.000,-0.030
3234,0.000,-0.040
3235,0.000,-0.025
3236,0.000,-0.040
3237,0.000,-0.030
3238,0.000,-0.035
3239,0.000,-0.025
3240,0.000,-0.040
3241,0.000,-0.025
3242,0.000,-0.050
3243,0.000,-0.035
3244,0.000,-0.040
3245,0.000,-0.035
3246,0.000,-0.040
3247,0.000,-0.035
3248,0.000,-0.035
3249,0.000,-0.025
3250,0.000,-0.030
3251,0.000,-0.030
3252,0.000,-0.035
3253,0.000,-0.040
3254,0.000,-0.035
3255,0.000,-0.035
3256,0.000,-0.025
3257,0.000,-0.025
3258,0.000,-0.030
3259,0.000,-0.050
3260,0.000,-0.040
3261,0.000,-0.035
3262,0.005,-0.020
3263,0.020,-0.005
3264,0.025,0.005
3265,0.030,0.015
3266,0.040,0.025
3267,0.035,0.040
3268,0.030,0.030
3269,0.020,0.020
3270,0.015,-0.005
3271,0.005,-0.020
3272,0.000,-0.030
3273,0.000,-0.030
3274,0.000,-0.050
3275,0.000,-0.040
3276,-0.005,-0.040
3277,0.000,-0.045
3278,0.030,-0.015
3279,0.140,0.070
3280,0.305,0.265
3281,0.490,0.470
3282,0.635,0.685
3283,0.715,0.835
3284,0.715,0.890
3285,0.675,0.845
3286,0.605,0.805
3287,0.505,0.685
3288,0.395,0.595
3289,0.265,0.445
3290,0.115,0.295
3291,-0.005,0.040
3292,-0.090,-0.100
3293,-0.135,-0.190
3294,-0.150,-0.220
3295,-0.155,-0.240
3296,-0.160,-0.230
3297,-0.165,-0.235
3298,-0.160,-0.230
3299,-0.155,-0.225
3300,-0.150,-0.220
3301,-0.150,-0.230
3302,-0.150,-0.230
3303,-0.155,-0.220
3304,-0.160,-0.225
3305,-0.160,-0.230
3306,-0.165,-0.235
3307,-0.170,-0.235
3308,-0.175,-0.235
3309,-0.180,-0.245
3310,-0.185,-0.250
3311,-0.185,-0.255
3312,-0.185,-0.250
3313,-0.185,-0.245
3314,-0.180,-0.230
3315,-0.165,-0.220
3316,-0.145,-0.185
3317,-0.110,-0.155
3318,-0.075,-0.090
3319,-0.040,-0.055
3320,-0.010,-0.005
3321,0.005,0.010
3322,0.010,0.025
3323,0.010,0.005
3324,0.015,0.010
3325,0.010,0.000
3326,0.005,0.000
3327,0.000,-0.020
3328,0.000,-0.020
3329,0.000,-0.020
3330,0.000,-0.030
3331,0.000,-0.025
3332,0.000,-0.035
3333,0.000,-0.040
3334,0.000,-0.040
3335,0.000,-0.025
3336,0.000,-0.045
3337,0.000,-0.030
3338,0.000,-0.040
3339,0.000,-0.030
3340,0.000,-0.040
3341,0.000,-0.030
3342,0.000,-0.040
3343,0.000,-0.030
3344,0.000,-0.035
3345,0.000,-0.025
3346,0.000,-0.030
3347,0.000,-0.035
3348,0.000,-0.035
3349,0.000,-0.030
3350,0.000,-0.030
3351,0.000,-0.030
3352,0.000,-0.025
3353,0.000,-0.035
3354,0.005,-0.030
3355,0.000,-0.030
3356,0.000,-0.035
3357,0.000,-0.030
3358,0.000,-0.030
3359,0.000,-0.030
3360,0.000,-0.040
3361,0.000,-0.025
3362,0.000,-0.040
3363,0.000,-0.025
3364,0.000,-0.045
3365,0.000,-0.025
3366,0.000,-0.035
3367,0.000,-0.025
3368,0.005,-0.035
3369,0.015,0.000
3370,0.025,0.000
3371,0.025,0.020
3372,0.035,0.010
3373,0.035,0.035
3374,0.030,0.030
3375,0.025,0.015
3376,0.010,0.000
3377,0.000,-0.015
3378,0.000,-0.035
3379,0.000,-0.030
3380,0.000,-0.030
3381,0.000,-0.025
3382,-0.005,-0.030
3383,0.000,-0.035
3384,0.020,-0.010
3385,0.105,0.060
3386,0.265,0.215
3387,0.450,0.415
3388,0.605,0.630
3389,0.695,0.795
3390,0.720,0.870
3391,0.685,0.855
3392,0.615,0.800
3393,0.520,0.705
3394,0.410,0.600
3395,0.280,0.480
3396,0.135,0.305
3397,0.005,0.100
3398,-0.080,-0.070
3399,-0.125,-0.165
3400,-0.140,-0.220
3401,-0.150,-0.225
3402,-0.150,-0.235
3403,-0.150,-0.225
3404,-0.150,-0.235
3405,-0.150,-0.220
3406,-0.145,-0.230
3407,-0.145,-0.225
3408,-0.150,-0.225
3409,-0.155,-0.230
3410,-0.155,-0.205
3411,-0.155,-0.220
3412,-0.155,-0.215
3413,-0.155,-0.230
3414,-0.155,-0.225
3415,-0.165,-0.240
3416,-0.175,-0.220
3417,-0.180,-0.240
3418,-0.180,-0.240
3419,-0.180,-0.245
3420,-0.175,-0.230
3421,-0.165,-0.230
3422,-0.145,-0.185
3423,-0.120,-0.165
3424,-0.090,-0.105
3425,-0.055,-0.070
3426,-0.025,-0.015
3427,-0.005,0.000
3428,0.000,0.015
3429,0.005,0.015
3430,0.010,0.005
3431,0.010,0.005
3432,0.005,0.000
3433,0.000,-0.010
3434,0.000,-0.020
3435,0.000,-0.020
3436,0.000,-0.030
3437,0.000,-0.035
3438,0.000,-0.030
3439,0.000,-0.025
3440,0.000,-0.030
3441,0.000,-0.040
3442,0.000,-0.030
3443,0.000,-0.035
3444,0.000,-0.030
3445,0.000,-0.040
3446,0.000,-0.025
3447,0.000,-0.040
3448,0.000,-0.025
3449,0.000,-0.020
3450,0.000,-0.020
3451,0.000,-0.030
3452,0.000,-0.025
3453,0.000,-0.030
3454,0.000,-0.020
3455,0.000,-0.025
3456,0.000,-0.025
3457,0.000,-0.025
3458,0.000,-0.025
3459,0.000,-0.025
3460,0.000,-0.025
3461,0.000,-0.025
3462,0.000,-0.030
3463,0.000,-0.025
3464,0.000,-0.030
3465,0.000,-0.035
3466,0.000,-0.035
3467,0.000,-0.025
3468,0.000,-0.030
3469,0.000,-0.025
3470,0.000,-0.030
3471,0.000,-0.030
3472,0.005,-0.030
3473,0.010,-0.025
3474,0.010,-0.020
3475,0.015,-0.010
3476,0.025,0.000
3477,0.030,0.005
3478,0.035,0.020
3479,0.040,0.035
3480,0.040,0.045
3481,0.030,0.040
3482,0.025,0.025
3483,0.020,0.005
3484,0.010,-0.005
3485,0.005,-0.025
3486,0.005,-0.035
3487,0.010,-0.035
3488,0.005,-0.030
3489,0.000,-0.025
3490,0.000,-0.025
3491,0.030,0.000
3492,0.120,0.060
3493,0.275,0.245
3494,0.455,0.435
3495,0.610,0.645
3496,0.710,0.800
3497,0.730,0.915
3498,0.690,0.850
3499,0.620,0.805
3500,0.520,0.695
3501,0.405,0.610
3502,0.270,0.465
3503,0.120,0.295
3504,0.000,0.060
3505,-0.085,-0.085
3506,-0.120,-0.175
3507,-0.145,-0.210
3508,-0.150,-0.225
3509,-0.150,-0.225
3510,-0.150,-0.225
3511,-0.145,-0.230
3512,-0.145,-0.220
3513,-0.145,-0.220
3514,-0.150,-0.205
3515,-0.150,-0.215
3516,-0.150,-0.220
3517,-0.150,-0.220
3518,-0.150,-0.215
3519,-0.150,-0.220
3520,-0.155,-0.220
3521,-0.155,-0.220
3522,-0.160,-0.220
3523,-0.165,-0.225
3524,-0.170,-0.235
3525,-0.170,-0.230
3526,-0.165,-0.225
3527,-0.160,-0.210
3528,-0.150,-0.200
3529,-0.130,-0.170
3530,-0.105,-0.140
3531,-0.070,-0.080
3532,-0.030,-0.035
3533,0.000,0.005
3534,0.005,0.030
3535,0.015,0.040
3536,0.025,0.035
3537,0.025,0.020
3538,0.020,0.005
3539,0.020,0.000
3540,0.020,0.005
3541,0.020,0.000
3542,0.020,0.000
3543,0.015,-0.015
3544,0.015,0.000
3545,0.015,-0.005
3546,0.015,0.000
3547,0.020,-0.015
3548,0.020,0.000
3549,0.020,-0.005
3550,0.025,0.000
3551,0.025,-0.005
3552,0.025,0.000
3553,0.025,0.000
3554,0.025,0.000
3555,0.025,0.000
3556,0.025,0.000
3557,0.025,0.000
3558,0.025,0.000
3559,0.025,0.000
3560,0.025,0.000
3561,0.025,0.000
3562,0.025,0.000
3563,0.025,0.000
3564,0.030,0.000
3565,0.030,0.005
3566,0.035,0.005
3567,0.035,0.000
3568,0.035,0.000
3569,0.035,0.000
3570,0.035,0.000
3571,0.035,0.000
3572,0.030,0.005
3573,0.030,0.000
3574,0.030,0.010
3575,0.035,0.000
3576,0.035,0.000
3577,0.035,0.000
3578,0.035,0.015
3579,0.035,0.000
3580,0.040,0.010
3581,0.055,0.010
3582,0.075,0.045
3583,0.085,0.055
3584,0.095,0.075
3585,0.095,0.075
3586,0.090,0.095
3587,0.085,0.090
3588,0.065,0.060
3589,0.040,0.025
3590,0.035,0.005
3591,0.035,0.005
3592,0.035,0.005
3593,0.035,0.005
3594,0.035,0.000
3595,0.035,0.005
3596,0.050,0.005
3597,0.115,0.060
3598,0.250,0.185
3599,0.430,0.390
3600,0.605,0.595
3601,0.730,0.795
3602,0.785,0.925
3603,0.780,0.960
3604,0.735,0.920
3605,0.665,0.855
3606,0.570,0.770
3607,0.455,0.655
3608,0.305,0.515
3609,0.140,0.310
3610,0.010,0.085
3611,-0.055,-0.060
3612,-0.090,-0.130
3613,-0.105,-0.165
3614,-0.105,-0.180
3615,-0.105,-0.185
3616,-0.110,-0.185
3617,-0.110,-0.185
3618,-0.110,-0.190
3619,-0.115,-0.175
3620,-0.125,-0.185
3621,-0.125,-0.185
3622,-0.125,-0.190
3623,-0.130,-0.185
3624,-0.140,-0.205
3625,-0.140,-0.195
3626,-0.145,-0.205
3627,-0.145,-0.200
3628,-0.150,-0.225
3629,-0.160,-0.220
3630,-0.170,-0.240
3631,-0.175,-0.220
3632,-0.170,-0.225
3633,-0.160,-0.200
3634,-0.145,-0.200
3635,-0.120,-0.155
3636,-0.085,-0.120
3637,-0.045,-0.065
3638,-0.010,-0.010
3639,0.005,0.010
3640,0.020,0.030
3641,0.025,0.035
3642,0.025,0.040
3643,0.025,0.020
3644,0.025,0.010
3645,0.020,0.005
3646,0.015,0.000
3647,0.015,-0.005
3648,0.015,-0.005
3649,0.015,-0.010
3650,0.015,-0.010
3651,0.015,-0.010
3652,0.015,-0.015
3653,0.015,-0.015
3654,0.010,-0.025
3655,0.010,-0.020
3656,0.010,-0.020
3657,0.010,-0.015
3658,0.010,-0.025
3659,0.010,-0.020
3660,0.010,-0.025
3661,0.010,-0.010
3662,0.010,-0.025
3663,0.005,-0.025
3664,0.005,-0.025
3665,0.010,-0.020
3666,0.010,-0.020
3667,0.005,-0.025
3668,0.000,-0.025
3669,0.000,-0.020
3670,0.000,-0.020
3671,0.000,-0.040
3672,0.000,-0.025
3673,0.000,-0.035
3674,0.000,-0.025
3675,0.000,-0.035
3676,0.000,-0.025
3677,0.005,-0.035
3678,0.005,-0.030
3679,0.000,-0.030
3680,0.000,-0.015
3681,0.000,-0.030
3682,0.000,-0.025
3683,0.005,-0.030
3684,0.005,-0.025
3685,0.010,-0.025
3686,0.015,-0.010
3687,0.025,0.000
3688,0.035,0.010
3689,0.040,0.025
3690,0.045,0.040
3691,0.040,0.035
3692,0.030,0.025
3693,0.015,0.010
3694,0.005,-0.010
3695,0.000,-0.030
3696,0.000,-0.035
3697,0.000,-0.035
3698,0.000,-0.035
3699,-0.005,-0.040
3700,-0.005,-0.040
3701,0.015,-0.045
3702,0.090,0.030
3703,0.235,0.160
3704,0.420,0.385
3705,0.585,0.590
3706,0.695,0.785
3707,0.730,0.880
3708,0.705,0.895
3709,0.650,0.815
3710,0.570,0.760
3711,0.465,0.635
3712,0.340,0.540
3713,0.185,0.375
3714,0.035,0.170
3715,-0.065,-0.035
3716,-0.120,-0.155
3717,-0.150,-0.205
3718,-0.160,-0.235
3719,-0.165,-0.240
3720,-0.165,-0.250
3721,-0.160,-0.235
3722,-0.160,-0.235
3723,-0.165,-0.230
3724,-0.160,-0.240
3725,-0.155,-0.230
3726,-0.155,-0.240
3727,-0.155,-0.230
3728,-0.160,-0.240
3729,-0.165,-0.235
3730,-0.170,-0.240
3731,-0.170,-0.230
3732,-0.175,-0.235
3733,-0.175,-0.250
3734,-0.180,-0.255
3735,-0.190,-0.255
3736,-0.195,-0.250
3737,-0.190,-0.250
3738,-0.175,-0.240
3739,-0.155,-0.215
3740,-0.125,-0.175
3741,-0.090,-0.125
3742,-0.055,-0.070
3743,-0.025,-0.025
3744,0.000,0.000
3745,0.005,0.010
3746,0.010,0.010
3747,0.010,0.020
3748,0.010,0.005
3749,0.010,0.000
3750,0.010,-0.020
3751,0.005,-0.010
3752,0.000,-0.025
3753,0.000,-0.020
3754,0.000,-0.035
3755,0.000,-0.030
3756,0.000,-0.045
3757,0.000,-0.030
3758,0.000,-0.040
3759,0.000,-0.030
3760,0.000,-0.050
3761,0.000,-0.035
3762,0.000,-0.045
3763,0.000,-0.030
3764,0.000,-0.035
3765,0.000,-0.025
3766,0.000,-0.035
3767,0.000,-0.045
3768,0.000,-0.045
3769,0.000,-0.040
3770,0.000,-0.035
3771,0.000,-0.035
3772,0.000,-0.030
3773,0.000,-0.035
3774,0.000,-0.035
3775,0.000,-0.040
3776,0.000,-0.040
3777,0.000,-0.040
3778,0.000,-0.040
3779,0.000,-0.030
3780,0.000,-0.035
3781,0.000,-0.040
3782,0.000,-0.045
3783,0.000,-0.030
3784,0.000,-0.045
3785,0.000,-0.035
3786,0.000,-0.035
3787,0.000,-0.025
3788,0.000,-0.040
3789,0.000,-0.030
3790,0.000,-0.045
3791,0.005,-0.030
3792,0.010,-0.020
3793,0.020,-0.005
3794,0.030,0.005
3795,0.035,0.010
3796,0.030,0.040
3797,0.025,0.035
3798,0.025,0.030
3799,0.020,0.000
3800,0.005,0.000
3801,0.000,-0.040
3802,0.000,-0.035
3803,0.000,-0.050
3804,0.000,-0.030
3805,0.000,-0.040
3806,0.000,-0.035
3807,0.000,-0.040
3808,0.060,0.010
3809,0.200,0.130
3810,0.380,0.335
3811,0.550,0.540
3812,0.670,0.735
3813,0.720,0.855
3814,0.705,0.875
3815,0.650,0.825
3816,0.565,0.745
3817,0.460,0.655
3818,0.335,0.540
3819,0.200,0.380
3820,0.060,0.180
3821,-0.045,-0.020
3822,-0.115,-0.150
3823,-0.145,-0.205
3824,-0.155,-0.230
3825,-0.160,-0.235
3826,-0.155,-0.230
3827,-0.155,-0.230
3828,-0.155,-0.225
3829,-0.155,-0.235
3830,-0.155,-0.220
3831,-0.155,-0.235
3832,-0.155,-0.220
3833,-0.160,-0.235
3834,-0.160,-0.215
3835,-0.160,-0.240
3836,-0.165,-0.225
3837,-0.170,-0.240
3838,-0.175,-0.230
3839,-0.175,-0.245
3840,-0.180,-0.240
3841,-0.180,-0.245
3842,-0.185,-0.240
3843,-0.180,-0.240
3844,-0.165,-0.225
3845,-0.150,-0.195
3846,-0.125,-0.170
3847,-0.100,-0.125
3848,-0.070,-0.085
3849,-0.030,-0.030
3850,-0.005,0.000
3851,0.005,0.020
3852,0.010,0.010
3853,0.010,0.015
3854,0.010,0.005
3855,0.005,0.000
3856,0.000,-0.010
3857,0.000,-0.015
3858,0.000,-0.025
3859,0.000,-0.030
3860,0.000,-0.035
3861,0.000,-0.035
3862,0.000,-0.035
3863,0.000,-0.035
3864,0.000,-0.030
3865,0.000,-0.035
3866,0.000,-0.035
3867,0.000,-0.040
3868,0.000,-0.035
3869,0.000,-0.035
3870,0.000,-0.025
3871,0.000,-0.035
3872,0.000,-0.035
3873,0.000,-0.035
3874,0.000,-0.030
3875,0.000,-0.030
3876,0.000,-0.035
3877,0.000,-0.025
3878,0.000,-0.035
3879,0.000,-0.025
3880,0.000,-0.040
3881,0.000,-0.030
3882,0.000,-0.030
3883,0.000,-0.025
3884,0.000,-0.045
3885,0.000,-0.025
3886,0.000,-0.025
3887,0.000,-0.020
3888,0.000,-0.025
3889,0.000,-0.025
3890,0.000,-0.040
3891,0.000,-0.025
3892,0.000,-0.030
3893,0.000,-0.025
3894,0.000,-0.025
3895,0.005,-0.015
3896,0.015,0.000
3897,0.020,0.005
3898,0.030,0.010
3899,0.035,0.025
3900,0.040,0.045
3901,0.030,0.040
3902,0.025,0.035
3903,0.015,0.015
3904,0.005,-0.005
3905,0.000,-0.020
3906,0.000,-0.030
3907,0.000,-0.030
3908,0.000,-0.030
3909,0.000,-0.030
3910,0.000,-0.035
3911,0.010,-0.020
3912,0.070,0.020
3913,0.195,0.160
3914,0.370,0.345
3915,0.545,0.555
3916,0.670,0.735
3917,0.725,0.880
3918,0.710,0.880
3919,0.650,0.840
3920,0.570,0.755
3921,0.465,0.660
3922,0.345,0.545
3923,0.200,0.390
3924,0.050,0.190
3925,-0.050,-0.025
3926,-0.110,-0.135
3927,-0.140,-0.190
3928,-0.150,-0.215
3929,-0.155,-0.240
3930,-0.155,-0.220
3931,-0.155,-0.230
3932,-0.155,-0.205
3933,-0.150,-0.220
3934,-0.150,-0.210
3935,-0.145,-0.225
3936,-0.145,-0.210
3937,-0.150,-0.225
3938,-0.150,-0.215
3939,-0.155,-0.220
3940,-0.155,-0.215
3941,-0.160,-0.230
3942,-0.165,-0.225
3943,-0.170,-0.230
3944,-0.175,-0.235
3945,-0.175,-0.235
3946,-0.180,-0.235
3947,-0.175,-0.230
3948,-0.160,-0.215
3949,-0.145,-0.190
3950,-0.120,-0.160
3951,-0.090,-0.115
3952,-0.060,-0.065
3953,-0.025,-0.020
3954,-0.005,0.000
3955,0.005,0.020
3956,0.010,0.035
3957,0.010,0.010
3958,0.010,0.010
3959,0.010,0.000
3960,0.010,0.000
3961,0.005,-0.020
3962,0.000,-0.015
3963,0.000,-0.040
3964,0.000,-0.025
3965,0.000,-0.030
3966,0.000,-0.020
3967,0.000,-0.025
3968,0.000,-0.025
3969,0.000,-0.035
3970,0.000,-0.025
3971,0.000,-0.025
3972,0.000,-0.025
3973,0.000,-0.030
3974,0.000,-0.030
3975,0.000,-0.030
3976,0.000,-0.030
3977,0.000,-0.035
3978,0.005,-0.035
3979,0.010,-0.025
3980,0.015,-0.025
3981,0.010,-0.015
3982,0.010,-0.020
3983,0.010,-0.020
3984,0.015,-0.020
3985,0.010,-0.010
3986,0.010,-0.015
3987,0.010,-0.015
3988,0.005,-0.020
3989,0.005,-0.025
3990,0.010,-0.025
3991,0.010,-0.025
3992,0.010,-0.020
3993,0.010,-0.030
3994,0.010,-0.030
3995,0.010,-0.030
3996,0.010,-0.025
3997,0.015,-0.025
3998,0.015,-0.010
3999,0.015,-0.005
4000,0.020,0.005
4001,0.030,0.010
4002,0.040,0.020
4003,0.050,0.050
4004,0.045,0.050
4005,0.035,0.045
4006,0.025,0.010
4007,0.015,0.000
4008,0.015,-0.020
4009,0.015,-0.020
4010,0.015,-0.025
4011,0.015,-0.020
4012,0.015,-0.035
4013,0.015,-0.015
4014,0.015,-0.020
4015,0.060,0.015
4016,0.190,0.140
4017,0.370,0.350
4018,0.545,0.525
4019,0.680,0.730
4020,0.740,0.865
4021,0.730,0.915
4022,0.685,0.865
4023,0.610,0.800
4024,0.505,0.700
4025,0.385,0.595
4026,0.245,0.450
4027,0.100,0.245
4028,-0.005,0.040
4029,-0.070,-0.090
4030,-0.105,-0.155
4031,-0.125,-0.195
4032,-0.125,-0.205
4033,-0.125,-0.205
4034,-0.125,-0.200
4035,-0.120,-0.190
4036,-0.120,-0.195
4037,-0.120,-0.185
4038,-0.120,-0.190
4039,-0.120,-0.190
4040,-0.120,-0.190
4041,-0.120,-0.180
4042,-0.120,-0.190
4043,-0.125,-0.185
4044,-0.130,-0.195
4045,-0.135,-0.190
4046,-0.135,-0.200
4047,-0.140,-0.200
4048,-0.140,-0.200
4049,-0.135,-0.195
4050,-0.130,-0.195
4051,-0.125,-0.185
4052,-0.110,-0.155
4053,-0.085,-0.130
4054,-0.055,-0.080
4055,-0.020,-0.030
4056,0.005,0.000
4057,0.025,0.050
4058,0.040,0.065
4059,0.045,0.065
4060,0.050,0.070
4061,0.055,0.050
4062,0.050,0.050
4063,0.045,0.025
4064,0.045,0.035
4065,0.045,0.015
4066,0.045,0.020
4067,0.040,0.010
4068,0.040,0.010
4069,0.045,0.010
4070,0.050,0.005
4071,0.045,0.010
4072,0.045,0.010
4073,0.045,0.005
4074,0.040,0.010
4075,0.040,0.010
4076,0.040,0.005
4077,0.040,0.005
4078,0.040,0.005
4079,0.045,0.005
4080,0.050,0.010
4081,0.045,0.015
4082,0.045,0.015
4083,0.045,0.010
4084,0.045,0.020
4085,0.045,0.010
4086,0.050,0.005
4087,0.045,0.010
4088,0.045,0.025
4089,0.045,0.005
4090,0.045,0.020
4091,0.045,0.000
4092,0.045,0.010
4093,0.040,0.000
4094,0.040,0.015
4095,0.040,0.005
4096,0.045,0.015
4097,0.040,0.005
4098,0.040,0.005
4099,0.040,0.005
4100,0.035,0.010
4101,0.035,0.005
4102,0.040,0.015
4103,0.055,0.035
4104,0.065,0.050
4105,0.080,0.065
4106,0.080,0.075
4107,0.075,0.075
4108,0.065,0.060
4109,0.050,0.045
4110,0.030,0.010
4111,0.025,0.000
4112,0.020,-0.005
4113,0.020,-0.005
4114,0.015,-0.015
4115,0.015,-0.010
4116,0.015,-0.010
4117,0.030,-0.010
4118,0.095,0.025
4119,0.230,0.155
4120,0.410,0.365
4121,0.580,0.580
4122,0.700,0.775
4123,0.755,0.890
4124,0.750,0.925
4125,0.700,0.885
4126,0.625,0.830
4127,0.525,0.730
4128,0.405,0.625
4129,0.260,0.465
4130,0.110,0.265
4131,-0.015,0.025
4132,-0.090,-0.115
4133,-0.125,-0.195
4134,-0.145,-0.225
4135,-0.150,-0.225
4136,-0.160,-0.240
4137,-0.160,-0.220
4138,-0.155,-0.240
4139,-0.155,-0.220
4140,-0.155,-0.230
4141,-0.155,-0.220
4142,-0.155,-0.240
4143,-0.155,-0.215
4144,-0.160,-0.240
4145,-0.165,-0.225
4146,-0.165,-0.250
4147,-0.165,-0.240
4148,-0.175,-0.255
4149,-0.180,-0.245
4150,-0.190,-0.260
4151,-0.195,-0.255
4152,-0.195,-0.255
4153,-0.190,-0.250
4154,-0.180,-0.245
4155,-0.160,-0.220
4156,-0.135,-0.185
4157,-0.105,-0.140
4158,-0.065,-0.085
4159,-0.030,-0.030
4160,-0.005,0.005
4161,0.005,0.015
4162,0.015,0.020
4163,0.015,0.010
4164,0.015,0.000
4165,0.015,0.000
4166,0.010,0.000
4167,0.005,-0.005
4168,0.005,-0.020
4169,0.005,-0.025
4170,0.000,-0.035
4171,0.000,-0.025
4172,0.000,-0.040
4173,0.000,-0.025
4174,0.000,-0.030
4175,0.000,-0.025
4176,0.005,-0.045
4177,0.010,-0.025
4178,0.010,-0.030
4179,0.010,-0.025
4180,0.005,-0.035
4181,0.000,-0.030
4182,0.000,-0.025
4183,0.000,-0.035
4184,0.000,-0.030
4185,0.005,-0.030
4186,0.000,-0.025
4187,0.000,-0.030
4188,0.000,-0.025
4189,0.000,-0.040
4190,0.000,-0.030
4191,0.000,-0.040
4192,0.000,-0.030
4193,0.000,-0.040
4194,0.000,-0.025
4195,0.000,-0.035
4196,0.000,-0.030
4197,0.000,-0.040
4198,0.000,-0.040
4199,0.000,-0.040
4200,0.000,-0.030
4201,0.000,-0.025
4202,0.005,-0.025
4203,0.010,-0.030
4204,0.010,-0.030
4205,0.010,-0.020
4206,0.020,-0.005
4207,0.025,0.005
4208,0.035,0.010
4209,0.040,0.030
4210,0.040,0.035
4211,0.030,0.030
4212,0.020,0.015
4213,0.010,-0.005
4214,0.000,-0.025
4215,0.000,-0.045
4216,0.000,-0.035
4217,-0.005,-0.055
4218,-0.010,-0.030
4219,-0.005,-0.045
4220,0.000,-0.030
4221,0.040,-0.020
4222,0.160,0.110
4223,0.345,0.290
4224,0.535,0.535
4225,0.665,0.710
4226,0.725,0.890
4227,0.720,0.875
4228,0.670,0.850
4229,0.595,0.770
4230,0.495,0.675
4231,0.375,0.560
4232,0.235,0.435
4233,0.085,0.240
4234,-0.025,0.025
4235,-0.095,-0.105
4236,-0.135,-0.190
4237,-0.150,-0.220
4238,-0.155,-0.235
4239,-0.160,-0.230
4240,-0.155,-0.230
4241,-0.155,-0.225
4242,-0.155,-0.230
4243,-0.155,-0.220
4244,-0.155,-0.225
4245,-0.155,-0.230
4246,-0.155,-0.220
4247,-0.160,-0.220
4248,-0.160,-0.230
4249,-0.160,-0.235
4250,-0.170,-0.230
4251,-0.175,-0.245
4252,-0.180,-0.245
4253,-0.190,-0.250
4254,-0.190,-0.240
4255,-0.190,-0.250
4256,-0.185,-0.245
4257,-0.180,-0.240
4258,-0.160,-0.215
4259,-0.130,-0.185
4260,-0.100,-0.130
4261,-0.065,-0.085
4262,-0.030,-0.040
4263,0.000,0.000
4264,0.005,0.010
4265,0.010,0.025
4266,0.015,0.015
4267,0.015,0.015
4268,0.010,-0.005
4269,0.005,0.000
4270,0.000,-0.015
4271,0.000,0.000
4272,0.000,-0.035
4273,0.000,-0.025
4274,0.000,-0.040
4275,0.000,-0.030
4276,0.000,-0.040
4277,0.000,-0.025
4278,0.000,-0.035
4279,0.000,-0.030
4280,0.000,-0.030
4281,0.000,-0.025
4282,0.000,-0.030
4283,0.000,-0.040
4284,0.000,-0.035
4285,0.000,-0.035
4286,0.000,-0.035
4287,0.000,-0.040
4288,0.000,-0.035
4289,0.000,-0.030
4290,0.000,-0.035
4291,0.000,-0.030
4292,0.000,-0.030
4293,0.000,-0.030
4294,0.000,-0.035
4295,0.000,-0.025
4296,0.000,-0.035
4297,0.000,-0.025
4298,0.000,-0.030
4299,0.000,-0.025
4300,0.000,-0.045
4301,0.000,-0.030
4302,0.000,-0.045
4303,0.000,-0.025
4304,0.000,-0.040
4305,0.000,-0.025
4306,0.000,-0.045
4307,0.000,-0.030
4308,0.010,-0.025
4309,0.015,0.000
4310,0.025,0.000
4311,0.035,0.010
4312,0.040,0.040
4313,0.045,0.040
4314,0.035,0.030
4315,0.020,0.015
4316,0.005,0.000
4317,0.000,-0.035
4318,0.000,-0.035
4319,0.000,-0.045
4320,0.000,-0.035
4321,0.000,-0.045
4322,0.000,-0.035
4323,0.000,-0.040
4324,0.035,-0.010
4325,0.140,0.070
4326,0.305,0.255
4327,0.485,0.470
4328,0.635,0.680
4329,0.710,0.830
4330,0.715,0.885
4331,0.675,0.850
4332,0.600,0.775
4333,0.505,0.690
4334,0.390,0.575
4335,0.250,0.440
4336,0.105,0.250
4337,-0.015,0.040
4338,-0.090,-0.105
4339,-0.130,-0.180
4340,-0.145,-0.210
4341,-0.155,-0.230
4342,-0.160,-0.225
4343,-0.160,-0.230
4344,-0.160,-0.225
4345,-0.160,-0.240
4346,-0.155,-0.220
4347,-0.155,-0.240
4348,-0.155,-0.220
4349,-0.150,-0.235
4350,-0.150,-0.215
4351,-0.155,-0.240
4352,-0.165,-0.225
4353,-0.170,-0.240
4354,-0.175,-0.225
4355,-0.175,-0.240
4356,-0.175,-0.240
4357,-0.175,-0.245
4358,-0.180,-0.225
4359,-0.175,-0.240
4360,-0.170,-0.220
4361,-0.155,-0.210
4362,-0.135,-0.180
4363,-0.105,-0.140
4364,-0.070,-0.095
4365,-0.040,-0.045
4366,-0.010,-0.005
4367,0.005,0.015
4368,0.010,0.015
4369,0.015,0.015
4370,0.015,0.010
4371,0.015,0.005
4372,0.015,-0.005
4373,0.015,-0.005
4374,0.010,-0.010
4375,0.005,-0.025
4376,0.000,-0.025
4377,0.000,-0.030
4378,0.000,-0.030
4379,0.000,-0.035
4380,0.000,-0.030
4381,0.000,-0.040
4382,0.000,-0.035
4383,0.000,-0.040
4384,0.000,-0.035
4385,0.000,-0.035
4386,0.000,-0.025
4387,0.000,-0.025
4388,0.000,-0.035
4389,0.000,-0.030
4390,0.000,-0.030
4391,0.000,-0.035
4392,0.000,-0.035
4393,0.000,-0.030
4394,0.000,-0.025
4395,0.000,-0.025
4396,0.000,-0.040
4397,0.000,-0.035
4398,0.000,-0.040
4399,0.000,-0.030
4400,0.000,-0.040
4401,0.000,-0.030
4402,0.000,-0.040
4403,0.000,-0.025
4404,0.000,-0.040
4405,0.000,-0.030
4406,0.000,-0.035
4407,0.000,-0.030
4408,0.000,-0.040
4409,0.005,-0.030
4410,0.010,-0.025
4411,0.015,-0.005
4412,0.025,0.000
4413,0.030,0.005
4414,0.035,0.025
4415,0.040,0.040
4416,0.035,0.040
4417,0.020,0.015
4418,0.010,-0.005
4419,0.000,-0.025
4420,0.000,-0.040
4421,0.000,-0.040
4422,0.000,-0.035
4423,0.000,-0.035
4424,-0.005,-0.045
4425,0.000,-0.035
4426,0.015,-0.030
4427,0.110,0.060
4428,0.270,0.210
4429,0.450,0.430
4430,0.605,0.630
4431,0.700,0.815
4432,0.725,0.880
4433,0.685,0.870
4434,0.610,0.775
4435,0.515,0.695
4436,0.400,0.580
4437,0.265,0.475
4438,0.115,0.290
4439,-0.005,0.070
4440,-0.090,-0.105
4441,-0.140,-0.190
4442,-0.150,-0.215
4443,-0.155,-0.240
4444,-0.160,-0.235
4445,-0.155,-0.240
4446,-0.150,-0.225
4447,-0.150,-0.240
4448,-0.155,-0.220
4449,-0.155,-0.225
4450,-0.155,-0.225
4451,-0.155,-0.235
4452,-0.155,-0.220
4453,-0.155,-0.230
4454,-0.160,-0.225
4455,-0.160,-0.230
4456,-0.160,-0.230
4457,-0.170,-0.235
4458,-0.180,-0.245
4459,-0.185,-0.245
4460,-0.185,-0.245
4461,-0.180,-0.240
4462,-0.175,-0.225
4463,-0.160,-0.210
4464,-0.145,-0.190
4465,-0.115,-0.150
4466,-0.085,-0.105
4467,-0.055,-0.055
4468,-0.025,-0.015
4469,-0.005,0.000
4470,0.000,0.010
4471,0.005,0.015
4472,0.005,0.010
4473,0.000,0.000
4474,0.000,0.000
4475,0.000,-0.020
4476,0.000,-0.020
4477,0.000,-0.045
4478,-0.005,-0.035
4479,-0.005,-0.050
4480,0.000,-0.025
4481,0.000,-0.045
4482,0.000,-0.030
4483,0.000,-0.045
4484,0.000,-0.025
4485,0.000,-0.035
4486,0.000,-0.025
4487,0.000,-0.035
4488,0.000,-0.025
4489,0.000,-0.030
4490,0.005,-0.025
4491,0.010,-0.025
4492,0.010,-0.025
4493,0.010,-0.025
4494,0.010,-0.030
4495,0.015,-0.020
4496,0.015,-0.020
4497,0.015,-0.010
4498,0.015,-0.015
4499,0.015,-0.005
4500,0.015,-0.010
4501,0.015,-0.010
4502,0.015,-0.010
4503,0.010,-0.010
4504,0.010,0.000
4505,0.010,-0.005
4506,0.020,-0.005
4507,0.020,-0.015
4508,0.020,-0.005
4509,0.020,-0.010
4510,0.020,0.000
4511,0.030,0.005
4512,0.035,0.025
4513,0.050,0.025
4514,0.060,0.055
4515,0.075,0.070
4516,0.070,0.070
4517,0.060,0.055
4518,0.045,0.045
4519,0.025,0.010
4520,0.020,0.000
4521,0.020,-0.010
4522,0.015,-0.020
4523,0.015,-0.010
4524,0.015,-0.020
4525,0.020,-0.010
4526,0.020,-0.015
4527,0.065,0.025
4528,0.190,0.130
4529,0.370,0.325
4530,0.550,0.525
4531,0.690,0.750
4532,0.755,0.880
4533,0.755,0.935
4534,0.710,0.875
4535,0.640,0.830
4536,0.545,0.735
4537,0.435,0.645
4538,0.295,0.505
4539,0.145,0.305
4540,0.020,0.090
4541,-0.050,-0.055
4542,-0.090,-0.140
4543,-0.105,-0.180
4544,-0.110,-0.185
4545,-0.110,-0.190
4546,-0.105,-0.190
4547,-0.105,-0.185
4548,-0.110,-0.185
4549,-0.105,-0.180
4550,-0.105,-0.185
4551,-0.110,-0.180
4552,-0.110,-0.180
4553,-0.110,-0.175
4554,-0.110,-0.185
4555,-0.120,-0.185
4556,-0.125,-0.200
4557,-0.125,-0.190
4558,-0.125,-0.200
4559,-0.125,-0.185
4560,-0.130,-0.205
4561,-0.140,-0.200
4562,-0.135,-0.205
4563,-0.130,-0.180
4564,-0.110,-0.175
4565,-0.085,-0.130
4566,-0.055,-0.085
4567,-0.020,-0.025
4568,0.005,0.000
4569,0.025,0.045
4570,0.035,0.075
4571,0.045,0.070
4572,0.050,0.065
4573,0.055,0.055
4574,0.050,0.040
4575,0.040,0.025
4576,0.040,0.020
4577,0.040,0.005
4578,0.035,0.005
4579,0.035,0.000
4580,0.035,0.000
4581,0.035,0.000
4582,0.035,0.000
4583,0.030,-0.005
4584,0.025,0.000
4585,0.025,0.000
4586,0.025,0.000
4587,0.025,0.000
4588,0.020,0.000
4589,0.015,-0.005
4590,0.015,-0.010
4591,0.020,-0.005
4592,0.020,-0.005
4593,0.020,-0.005
4594,0.020,-0.010
4595,0.020,-0.010
4596,0.015,-0.010
4597,0.015,-0.010
4598,0.015,-0.005
4599,0.015,-0.005
4600,0.015,-0.010
4601,0.015,-0.020
4602,0.015,0.000
4603,0.015,-0.020
4604,0.015,0.000
4605,0.015,-0.020
4606,0.015,0.000
4607,0.015,-0.020
4608,0.015,-0.010
4609,0.015,-0.025
4610,0.015,-0.010
4611,0.015,-0.025
4612,0.010,-0.010
4613,0.010,-0.025
4614,0.015,-0.005
4615,0.025,0.000
4616,0.035,0.000
4617,0.045,0.010
4618,0.050,0.040
4619,0.050,0.050
4620,0.040,0.045
4621,0.030,0.030
4622,0.015,0.005
4623,0.000,-0.005
4624,0.000,-0.025
4625,0.000,-0.035
4626,0.000,-0.035
4627,0.000,-0.030
4628,0.005,-0.030
4629,0.000,-0.025
4630,0.020,-0.020
4631,0.110,0.050
4632,0.270,0.210
4633,0.445,0.415
4634,0.600,0.630
4635,0.705,0.795
4636,0.740,0.900
4637,0.715,0.885
4638,0.660,0.840
4639,0.575,0.765
4640,0.465,0.670
4641,0.335,0.535
4642,0.185,0.385
4643,0.040,0.165
4644,-0.060,-0.035
4645,-0.115,-0.160
4646,-0.150,-0.205
4647,-0.160,-0.235
4648,-0.165,-0.240
4649,-0.160,-0.240
4650,-0.160,-0.245
4651,-0.160,-0.240
4652,-0.160,-0.240
4653,-0.160,-0.225
4654,-0.160,-0.240
4655,-0.160,-0.215
4656,-0.160,-0.240
4657,-0.160,-0.235
4658,-0.165,-0.240
4659,-0.170,-0.220
4660,-0.175,-0.240
4661,-0.175,-0.245
4662,-0.185,-0.260
4663,-0.190,-0.255
4664,-0.195,-0.260
4665,-0.195,-0.255
4666,-0.190,-0.260
4667,-0.180,-0.245
4668,-0.160,-0.210
4669,-0.130,-0.165
4670,-0.090,-0.115
4671,-0.050,-0.065
4672,-0.020,-0.020
4673,0.000,0.000
4674,0.010,0.015
4675,0.020,0.025
4676,0.015,0.015
4677,0.015,0.005
4678,0.010,0.000
4679,0.010,-0.005
4680,0.005,-0.020
4681,0.000,-0.025
4682,0.000,-0.030
4683,0.000,-0.025
4684,0.000,-0.045
4685,0.000,-0.030
4686,0.000,-0.045
4687,0.000,-0.025
4688,0.000,-0.040
4689,0.000,-0.025
4690,0.000,-0.040
4691,0.000,-0.030
4692,0.000,-0.035
4693,0.000,-0.025
4694,0.000,-0.035
4695,0.000,-0.030
4696,0.000,-0.035
4697,0.000,-0.025
4698,0.000,-0.030
4699,0.000,-0.035
4700,0.000,-0.040
4701,0.000,-0.040
4702,0.000,-0.035
4703,0.000,-0.035
4704,0.000,-0.030
4705,0.000,-0.035
4706,0.000,-0.025
4707,0.000,-0.035
4708,0.000,-0.030
4709,0.000,-0.035
4710,0.000,-0.035
4711,0.000,-0.040
4712,0.000,-0.035
4713,0.000,-0.030
4714,0.000,-0.030
4715,0.000,-0.045
4716,0.000,-0.045
4717,0.000,-0.035
4718,0.000,-0.030
4719,0.010,-0.010
4720,0.020,0.000
4721,0.030,0.005
4722,0.035,0.015
4723,0.040,0.040
4724,0.035,0.035
4725,0.025,0.020
4726,0.015,0.000
4727,0.000,-0.020
4728,0.000,-0.040
4729,-0.005,-0.045
4730,-0.005,-0.040
4731,-0.005,-0.035
4732,-0.005,-0.035
4733,0.000,-0.060
4734,0.010,-0.020
4735,0.090,0.005
4736,0.245,0.200
4737,0.435,0.395
4738,0.595,0.620
4739,0.695,0.780
4740,0.725,0.900
4741,0.695,0.855
4742,0.630,0.810
4743,0.545,0.710
4744,0.430,0.625
4745,0.295,0.495
4746,0.155,0.345
4747,0.025,0.120
4748,-0.065,-0.060
4749,-0.125,-0.175
4750,-0.150,-0.220
4751,-0.155,-0.230
4752,-0.160,-0.240
4753,-0.160,-0.235
4754,-0.155,-0.235
4755,-0.155,-0.225
4756,-0.160,-0.225
4757,-0.160,-0.230
4758,-0.155,-0.230
4759,-0.155,-0.225
4760,-0.155,-0.225
4761,-0.155,-0.235
4762,-0.165,-0.230
4763,-0.170,-0.235
4764,-0.175,-0.225
4765,-0.175,-0.245
4766,-0.175,-0.250
4767,-0.185,-0.255
4768,-0.190,-0.245
4769,-0.185,-0.255
4770,-0.180,-0.240
4771,-0.170,-0.225
4772,-0.150,-0.200
4773,-0.125,-0.170
4774,-0.100,-0.120
4775,-0.060,-0.070
4776,-0.020,-0.020
4777,0.000,0.000
4778,0.010,0.015
4779,0.010,0.015
4780,0.015,0.005
4781,0.015,0.005
4782,0.010,0.000
4783,0.005,0.000
4784,0.000,-0.020
4785,0.000,-0.010
4786,0.000,-0.040
4787,0.000,-0.030
4788,0.000,-0.050
4789,-0.005,-0.035
4790,0.000,-0.040
4791,0.000,-0.035
4792,0.000,-0.045
4793,0.000,-0.040
4794,0.000,-0.040
4795,0.000,-0.030
4796,0.000,-0.035
4797,0.000,-0.035
4798,0.000,-0.035
4799,0.000,-0.030
4800,0.000,-0.035
4801,0.000,-0.040
4802,0.000,-0.035
4803,0.000,-0.035
4804,0.000,-0.035
4805,0.000,-0.035
4806,0.000,-0.040
4807,0.000,-0.035
4808,0.000,-0.040
4809,0.000,-0.030
4810,0.000,-0.040
4811,0.000,-0.035
4812,0.000,-0.040
4813,0.000,-0.025
4814,0.000,-0.040
4815,0.000,-0.025
4816,0.000,-0.035
4817,-0.005,-0.035
4818,-0.005,-0.050
4819,0.000,-0.040
4820,0.000,-0.045
4821,0.000,-0.030
4822,0.005,-0.030
4823,0.010,-0.005
4824,0.025,0.000
4825,0.030,0.010
4826,0.035,0.020
4827,0.030,0.035
4828,0.025,0.025
4829,0.015,0.005
4830,0.000,-0.005
4831,0.000,-0.025
4832,0.000,-0.035
4833,0.000,-0.040
4834,0.000,-0.040
4835,0.000,-0.045
4836,0.000,-0.040
4837,0.000,-0.035
4838,0.040,0.000
4839,0.150,0.100
4840,0.320,0.285
4841,0.500,0.480
4842,0.640,0.680
4843,0.715,0.830
4844,0.715,0.875
4845,0.665,0.840
4846,0.580,0.765
4847,0.480,0.670
4848,0.365,0.560
4849,0.230,0.425
4850,0.090,0.230
4851,-0.025,0.025
4852,-0.100,-0.120
4853,-0.135,-0.190
4854,-0.150,-0.215
4855,-0.155,-0.235
4856,-0.155,-0.240
4857,-0.155,-0.235
4858,-0.150,-0.235
4859,-0.150,-0.235
4860,-0.150,-0.215
4861,-0.150,-0.220
4862,-0.150,-0.215
4863,-0.150,-0.225
4864,-0.155,-0.215
4865,-0.155,-0.225
4866,-0.155,-0.210
4867,-0.160,-0.230
4868,-0.165,-0.225
4869,-0.170,-0.245
4870,-0.175,-0.240
4871,-0.180,-0.260
4872,-0.185,-0.235
4873,-0.185,-0.240
4874,-0.170,-0.230
4875,-0.155,-0.210
4876,-0.135,-0.175
4877,-0.105,-0.135
4878,-0.075,-0.080
4879,-0.040,-0.040
4880,-0.010,-0.005
4881,0.005,0.015
4882,0.010,0.020
4883,0.015,0.010
4884,0.010,0.000
4885,0.005,0.000
4886,0.005,-0.005
4887,0.000,-0.015
4888,0.000,-0.025
4889,0.000,-0.030
4890,0.000,-0.025
4891,0.000,-0.035
4892,0.000,-0.035
4893,0.005,-0.035
4894,0.000,-0.030
4895,0.000,-0.040
4896,0.000,-0.030
4897,0.000,-0.040
4898,0.000,-0.025
4899,0.000,-0.040
4900,0.000,-0.025
4901,0.000,-0.040
4902,0.000,-0.025
4903,0.000,-0.030
4904,0.000,-0.025
4905,0.000,-0.025
4906,0.000,-0.025
4907,0.000,-0.025
4908,0.005,-0.010
4909,0.010,-0.015
4910,0.005,-0.025
4911,0.000,-0.015
4912,0.000,-0.020
4913,0.005,-0.020
4914,0.010,-0.030
4915,0.010,-0.020
4916,0.010,-0.030
4917,0.010,-0.015
4918,0.010,-0.030
4919,0.010,-0.025
4920,0.005,-0.030
4921,0.000,-0.030
4922,0.000,-0.030
4923,0.010,-0.015
4924,0.025,0.000
4925,0.030,0.005
4926,0.040,0.015
4927,0.045,0.030
4928,0.050,0.040
4929,0.040,0.035
4930,0.030,0.025
4931,0.015,0.005
4932,0.005,-0.010
4933,0.000,-0.025
4934,0.000,-0.025
4935,0.000,-0.035
4936,0.000,-0.035
4937,0.000,-0.025
4938,0.000,-0.030
4939,0.025,-0.010
4940,0.105,0.050
4941,0.255,0.215
4942,0.445,0.410
4943,0.605,0.630
4944,0.700,0.790
4945,0.730,0.905
4946,0.695,0.845
4947,0.625,0.810
4948,0.525,0.695
4949,0.405,0.620
4950,0.280,0.475
4951,0.135,0.325
4952,0.005,0.080
4953,-0.075,-0.065
4954,-0.120,-0.175
4955,-0.140,-0.200
4956,-0.150,-0.220
4957,-0.155,-0.225
4958,-0.155,-0.230
4959,-0.150,-0.225
4960,-0.145,-0.215
4961,-0.145,-0.225
4962,-0.145,-0.215
4963,-0.140,-0.215
4964,-0.140,-0.210
4965,-0.145,-0.215
4966,-0.150,-0.205
4967,-0.150,-0.215
4968,-0.150,-0.215
4969,-0.155,-0.225
4970,-0.155,-0.225
4971,-0.160,-0.220
4972,-0.165,-0.225
4973,-0.170,-0.225
4974,-0.165,-0.225
4975,-0.160,-0.205
4976,-0.145,-0.200
4977,-0.120,-0.165
4978,-0.090,-0.130
4979,-0.055,-0.070
4980,-0.025,-0.035
4981,0.000,0.000
4982,0.015,0.030
4983,0.030,0.050
4984,0.035,0.045
4985,0.035,0.025
4986,0.030,0.020
4987,0.025,0.010
4988,0.025,0.015
4989,0.025,0.000
4990,0.025,0.000
4991,0.025,-0.005
4992,0.025,0.005
4993,0.025,-0.010
4994,0.025,0.000
4995,0.030,0.000
4996,0.025,0.000
4997,0.025,0.000
4998,0.025,0.000
4999,0.025,-0.005
5000,0.030,0.000
5001,0.030,0.000
5002,0.035,0.000
5003,0.035,0.005
5004,0.035,0.005
5005,0.035,0.000
5006,0.030,0.000
5007,0.030,0.000
5008,0.030,0.000
5009,0.035,0.000
5010,0.035,0.005
5011,0.035,0.005
5012,0.035,0.000
5013,0.035,0.000
5014,0.035,0.000
5015,0.035,0.000
5016,0.035,0.000
5017,0.035,0.000
5018,0.035,0.005
5019,0.030,0.005
5020,0.030,0.000
5021,0.030,0.000
5022,0.030,0.000
5023,0.040,0.005
5024,0.045,0.030
5025,0.060,0.035
5026,0.070,0.055
5027,0.085,0.060
5028,0.090,0.090
5029,0.080,0.085
5030,0.070,0.080
5031,0.060,0.050
5032,0.050,0.045
5033,0.035,0.000
5034,0.030,0.000
5035,0.030,0.000
5036,0.030,0.000
5037,0.035,0.000
5038,0.035,0.005
5039,0.045,0.005
5040,0.110,0.040
5041,0.255,0.195
5042,0.445,0.385
5043,0.620,0.615
5044,0.745,0.805
5045,0.795,0.950
5046,0.780,0.955
5047,0.735,0.920
5048,0.670,0.845
5049,0.570,0.775
5050,0.445,0.655
5051,0.300,0.510
5052,0.150,0.310
5053,0.025,0.090
5054,-0.045,-0.065
5055,-0.090,-0.140
5056,-0.105,-0.170
5057,-0.110,-0.185
5058,-0.115,-0.185
5059,-0.115,-0.190
5060,-0.120,-0.190
5061,-0.125,-0.195
5062,-0.125,-0.190
5063,-0.130,-0.190
5064,-0.130,-0.195
5065,-0.130,-0.195
5066,-0.135,-0.200
5067,-0.140,-0.200
5068,-0.145,-0.215
5069,-0.155,-0.205
5070,-0.160,-0.220
5071,-0.165,-0.215
5072,-0.170,-0.240
5073,-0.175,-0.220
5074,-0.175,-0.240
5075,-0.170,-0.220
5076,-0.160,-0.240
5077,-0.145,-0.200
5078,-0.125,-0.185
5079,-0.090,-0.115
5080,-0.055,-0.070
5081,-0.010,-0.015
5082,0.005,0.000
5083,0.015,0.035
5084,0.020,0.035
5085,0.025,0.040
5086,0.025,0.025
5087,0.020,0.015
5088,0.020,0.000
5089,0.020,0.000
5090,0.015,-0.005
5091,0.015,-0.010
5092,0.010,-0.015
5093,0.010,-0.020
5094,0.010,-0.005
5095,0.010,-0.010
5096,0.010,-0.020
5097,0.015,-0.025
5098,0.015,-0.020
5099,0.015,-0.015
5100,0.015,-0.015
5101,0.015,-0.020
5102,0.015,-0.030
5103,0.015,-0.025
5104,0.010,-0.030
5105,0.010,-0.025
5106,0.010,-0.035
5107,0.010,-0.020
5108,0.010,-0.025
5109,0.010,-0.025
5110,0.010,-0.025
5111,0.005,-0.025
5112,0.000,-0.025
5113,0.000,-0.025
5114,0.010,-0.025
5115,0.005,-0.025
5116,0.000,-0.025
5117,0.000,-0.030
5118,0.005,-0.025
5119,0.005,-0.040
5120,0.010,-0.025
5121,0.010,-0.040
5122,0.005,-0.020
5123,0.005,-0.040
5124,0.010,-0.020
5125,0.015,-0.020
5126,0.020,0.000
5127,0.030,0.000
5128,0.035,0.040
5129,0.040,0.040
5130,0.035,0.045
5131,0.030,0.025
5132,0.020,0.015
5133,0.010,-0.005
5134,0.000,-0.025
5135,0.000,-0.040
5136,0.000,-0.045
5137,0.000,-0.040
5138,0.000,-0.040
5139,0.000,-0.035
5140,0.005,-0.035
5141,0.050,-0.005
5142,0.165,0.095
5143,0.340,0.295
5144,0.525,0.515
5145,0.660,0.720
5146,0.725,0.855
5147,0.720,0.890
5148,0.670,0.860
5149,0.600,0.785
5150,0.505,0.695
5151,0.385,0.575
5152,0.250,0.450
5153,0.100,0.265
5154,-0.015,0.055
5155,-0.100,-0.120
5156,-0.135,-0.190
5157,-0.150,-0.225
5158,-0.155,-0.215
5159,-0.155,-0.250
5160,-0.155,-0.240
5161,-0.155,-0.235
5162,-0.155,-0.230
5163,-0.155,-0.235
5164,-0.160,-0.230
5165,-0.160,-0.230
5166,-0.165,-0.235
5167,-0.165,-0.235
5168,-0.165,-0.235
5169,-0.165,-0.230
5170,-0.170,-0.240
5171,-0.180,-0.235
5172,-0.185,-0.250
5173,-0.190,-0.255
5174,-0.195,-0.265
5175,-0.200,-0.250
5176,-0.195,-0.260
5177,-0.185,-0.250
5178,-0.165,-0.235
5179,-0.140,-0.195
5180,-0.110,-0.155
5181,-0.080,-0.095
5182,-0.045,-0.040
5183,-0.015,-0.005
5184,0.000,0.010
5185,0.005,0.010
5186,0.010,0.005
5187,0.010,0.000
5188,0.010,0.000
5189,0.005,-0.010
5190,0.000,-0.020
5191,0.000,-0.025
5192,0.000,-0.030
5193,0.000,-0.030
5194,0.000,-0.030
5195,0.000,-0.025
5196,0.000,-0.040
5197,0.000,-0.030
5198,0.000,-0.045
5199,0.000,-0.035
5200,0.000,-0.055
5201,0.000,-0.030
5202,0.000,-0.055
5203,0.000,-0.030
5204,0.000,-0.050
5205,0.000,-0.020
5206,0.000,-0.050
5207,0.000,-0.035
5208,0.000,-0.040
5209,0.000,-0.030
5210,0.000,-0.035
5211,0.000,-0.035
5212,0.000,-0.035
5213,0.000,-0.035
5214,0.000,-0.045
5215,0.000,-0.045
5216,0.000,-0.045
5217,0.000,-0.035
5218,0.000,-0.035
5219,0.000,-0.040
5220,0.000,-0.040
5221,0.000,-0.040
5222,0.000,-0.035
5223,0.000,-0.045
5224,0.000,-0.035
5225,0.000,-0.035
5226,0.005,-0.025
5227,0.010,-0.005
5228,0.015,0.000
5229,0.025,0.000
5230,0.035,0.015
5231,0.030,0.035
5232,0.025,0.020
5233,0.015,0.015
5234,0.005,-0.005
5235,0.000,-0.025
5236,-0.005,-0.045
5237,0.000,-0.040
5238,0.000,-0.050
5239,-0.005,-0.045
5240,-0.005,-0.050
5241,0.000,-0.040
5242,0.010,-0.030
5243,0.090,0.020
5244,0.240,0.180
5245,0.430,0.390
5246,0.600,0.610
5247,0.705,0.785
5248,0.730,0.890
5249,0.690,0.855
5250,0.615,0.800
5251,0.520,0.690
5252,0.410,0.605
5253,0.285,0.470
5254,0.145,0.330
5255,0.015,0.095
5256,-0.080,-0.070
5257,-0.130,-0.190
5258,-0.145,-0.220
5259,-0.155,-0.240
5260,-0.160,-0.235
5261,-0.160,-0.240
5262,-0.165,-0.230
5263,-0.165,-0.235
5264,-0.155,-0.235
5265,-0.155,-0.235
5266,-0.160,-0.230
5267,-0.160,-0.230
5268,-0.160,-0.230
5269,-0.160,-0.230
5270,-0.165,-0.235
5271,-0.170,-0.245
5272,-0.170,-0.245
5273,-0.180,-0.240
5274,-0.185,-0.245
5275,-0.185,-0.245
5276,-0.195,-0.250
5277,-0.195,-0.260
5278,-0.185,-0.245
5279,-0.165,-0.225
5280,-0.145,-0.190
5281,-0.120,-0.170
5282,-0.085,-0.110
5283,-0.050,-0.060
5284,-0.020,-0.005
5285,0.000,0.000
5286,0.010,0.020
5287,0.010,0.005
5288,0.010,0.010
5289,0.010,0.000
5290,0.005,0.000
5291,0.005,-0.015
5292,0.000,-0.020
5293,0.000,-0.030
5294,0.000,-0.035
5295,0.000,-0.030
5296,0.000,-0.035
5297,0.000,-0.040
5298,-0.005,-0.045
5299,0.000,-0.040
5300,0.000,-0.050
5301,0.000,-0.035
5302,0.000,-0.040
5303,-0.005,-0.030
5304,0.000,-0.035
5305,0.000,-0.035
5306,0.000,-0.050
5307,0.000,-0.040
5308,-0.005,-0.045
5309,0.000,-0.040
5310,0.000,-0.040
5311,0.000,-0.040
5312,0.000,-0.040
5313,0.000,-0.035
5314,0.000,-0.030
5315,0.000,-0.040
5316,0.000,-0.035
5317,0.000,-0.040
5318,0.000,-0.035
5319,0.000,-0.035
5320,0.000,-0.035
5321,0.000,-0.035
5322,0.000,-0.040
5323,0.000,-0.040
5324,0.005,-0.045
5325,0.005,-0.030
5326,0.005,-0.025
5327,0.010,-0.015
5328,0.020,-0.015
5329,0.025,0.005
5330,0.035,0.005
5331,0.035,0.050
5332,0.030,0.035
5333,0.025,0.045
5334,0.025,0.005
5335,0.010,0.000
5336,0.000,-0.040
5337,0.000,-0.025
5338,0.000,-0.040
5339,0.000,-0.035
5340,0.000,-0.040
5341,-0.005,-0.035
5342,0.000,-0.040
5343,0.030,-0.010
5344,0.135,0.090
5345,0.300,0.260
5346,0.485,0.475
5347,0.635,0.680
5348,0.710,0.840
5349,0.710,0.880
5350,0.660,0.835
5351,0.580,0.750
5352,0.485,0.665
5353,0.365,0.560
5354,0.230,0.430
5355,0.085,0.240
5356,-0.025,0.035
5357,-0.100,-0.115
5358,-0.130,-0.190
5359,-0.145,-0.215
5360,-0.150,-0.235
5361,-0.160,-0.230
5362,-0.160,-0.240
5363,-0.155,-0.225
5364,-0.155,-0.235
5365,-0.155,-0.220
5366,-0.160,-0.225
5367,-0.160,-0.220
5368,-0.155,-0.225
5369,-0.155,-0.220
5370,-0.160,-0.235
5371,-0.165,-0.235
5372,-0.170,-0.240
5373,-0.170,-0.240
5374,-0.175,-0.240
5375,-0.180,-0.245
5376,-0.185,-0.245
5377,-0.185,-0.255
5378,-0.185,-0.240
5379,-0.185,-0.240
5380,-0.165,-0.200
5381,-0.140,-0.185
5382,-0.105,-0.120
5383,-0.075,-0.085
5384,-0.040,-0.035
5385,-0.010,-0.005
5386,0.000,0.015
5387,0.010,0.005
5388,0.015,0.015
5389,0.015,0.005
5390,0.010,0.000
5391,0.005,-0.010
5392,0.000,-0.010
5393,0.000,-0.020
5394,0.005,-0.025
5395,0.005,-0.025
5396,0.005,-0.030
5397,0.000,-0.025
5398,0.000,-0.025
5399,0.005,-0.035
5400,0.010,-0.045
5401,0.010,-0.040
5402,0.005,-0.025
5403,0.000,-0.025
5404,0.000,-0.030
5405,0.000,-0.035
5406,0.000,-0.025
5407,0.000,-0.030
5408,0.000,-0.020
5409,0.005,-0.030
5410,0.005,-0.020
5411,0.000,-0.040
5412,0.000,-0.020
5413,0.000,-0.020
5414,0.000,-0.020
5415,0.000,-0.035
5416,0.010,-0.025
5417,0.010,-0.025
5418,0.005,-0.025
5419,0.005,-0.025
5420,0.005,-0.030
5421,0.005,-0.035
5422,0.005,-0.040
5423,0.005,-0.025
5424,0.000,-0.025
5425,0.005,-0.030
5426,0.010,-0.025
5427,0.015,0.000
5428,0.020,0.000
5429,0.030,0.015
5430,0.040,0.020
5431,0.045,0.045
5432,0.040,0.030
5433,0.030,0.030
5434,0.020,0.010
5435,0.010,0.000
5436,0.005,-0.025
5437,0.000,-0.035
5438,0.000,-0.040
5439,0.000,-0.035
5440,0.000,-0.035
5441,0.000,-0.035
5442,0.015,-0.025
5443,0.070,0.020
5444,0.195,0.150
5445,0.370,0.340
5446,0.550,0.550
5447,0.675,0.740
5448,0.725,0.870
5449,0.710,0.885
5450,0.655,0.830
5451,0.570,0.750
5452,0.465,0.655
5453,0.345,0.550
5454,0.200,0.385
5455,0.060,0.200
5456,-0.030,-0.015
5457,-0.090,-0.120
5458,-0.120,-0.195
5459,-0.135,-0.195
5460,-0.130,-0.220
5461,-0.130,-0.205
5462,-0.130,-0.220
5463,-0.130,-0.195
5464,-0.130,-0.205
5465,-0.130,-0.195
5466,-0.130,-0.195
5467,-0.125,-0.195
5468,-0.125,-0.195
5469,-0.125,-0.195
5470,-0.130,-0.205
5471,-0.130,-0.190
5472,-0.130,-0.200
5473,-0.135,-0.210
5474,-0.140,-0.205
5475,-0.150,-0.205
5476,-0.155,-0.200
5477,-0.155,-0.205
5478,-0.145,-0.205
5479,-0.135,-0.190
5480,-0.115,-0.160
5481,-0.085,-0.120
5482,-0.055,-0.075
5483,-0.020,-0.035
5484,0.005,0.000
5485,0.025,0.030
5486,0.035,0.045
5487,0.045,0.055
5488,0.045,0.045
5489,0.040,0.050
5490,0.035,0.040
5491,0.035,0.030
5492,0.035,0.010
5493,0.035,0.020
5494,0.035,0.005
5495,0.035,0.000
5496,0.035,0.000
5497,0.035,0.015
5498,0.040,0.010
5499,0.040,0.000
5500,0.040,0.000
5501,0.040,0.000
5502,0.040,0.005
5503,0.040,0.005
5504,0.040,0.020
5505,0.035,0.005
5506,0.035,0.005
5507,0.035,0.000
5508,0.035,0.005
5509,0.040,0.000
5510,0.040,0.010
5511,0.040,0.005
5512,0.040,0.005
5513,0.040,0.000
5514,0.040,0.015
5515,0.045,0.005
5516,0.040,0.010
5517,0.040,0.005
5518,0.040,0.015
5519,0.045,0.010
5520,0.045,0.010
5521,0.040,0.005
5522,0.040,0.010
5523,0.040,0.010
5524,0.040,0.015
5525,0.050,0.015
5526,0.055,0.010
5527,0.060,0.030
5528,0.070,0.055
5529,0.085,0.070
5530,0.095,0.085
5531,0.105,0.090
5532,0.100,0.095
5533,0.090,0.085
5534,0.070,0.055
5535,0.055,0.015
5536,0.045,0.010
5537,0.035,0.000
5538,0.030,0.005
5539,0.025,0.000
5540,0.025,0.000
5541,0.025,-0.005
5542,0.045,0.000
5543,0.115,0.030
5544,0.270,0.230
5545,0.460,0.410
5546,0.625,0.645
5547,0.730,0.815
5548,0.765,0.945
5549,0.750,0.930
5550,0.700,0.875
5551,0.625,0.810
5552,0.515,0.720
5553,0.390,0.600
5554,0.235,0.440
5555,0.085,0.225
5556,-0.030,0.005
5557,-0.090,-0.115
5558,-0.120,-0.180
5559,-0.130,-0.195
5560,-0.135,-0.215
5561,-0.135,-0.215
5562,-0.135,-0.215
5563,-0.140,-0.210
5564,-0.140,-0.225
5565,-0.140,-0.215
5566,-0.145,-0.215
5567,-0.150,-0.215
5568,-0.155,-0.225
5569,-0.155,-0.220
5570,-0.155,-0.215
5571,-0.160,-0.230
5572,-0.165,-0.235
5573,-0.170,-0.240
5574,-0.175,-0.245
5575,-0.185,-0.255
5576,-0.190,-0.250
5577,-0.185,-0.245
5578,-0.180,-0.245
5579,-0.170,-0.240
5580,-0.155,-0.215
5581,-0.130,-0.170
5582,-0.090,-0.125
5583,-0.050,-0.065
5584,-0.015,-0.020
5585,0.005,0.010
5586,0.015,0.010
5587,0.015,0.035
5588,0.015,0.005
5589,0.015,0.005
5590,0.015,0.000
5591,0.015,0.000
5592,0.010,-0.020
5593,0.010,-0.005
5594,0.010,-0.030
5595,0.010,-0.020
5596,0.010,-0.035
5597,0.005,-0.015
5598,0.000,-0.030
5599,0.000,-0.025
5600,0.000,-0.025
5601,0.005,-0.025
5602,0.010,-0.025
5603,0.010,-0.025
5604,0.005,-0.025
5605,0.005,-0.025
5606,0.005,-0.015
5607,0.010,-0.025
5608,0.005,-0.030
5609,0.005,-0.030
5610,0.005,-0.025
5611,0.005,-0.025
5612,0.005,-0.020
5613,0.010,-0.020
5614,0.010,-0.025
5615,0.005,-0.025
5616,0.000,-0.030
5617,0.000,-0.025
5618,0.000,-0.030
5619,0.000,-0.020
5620,0.000,-0.030
5621,0.000,-0.020
5622,0.000,-0.030
5623,0.005,-0.025
5624,0.005,-0.025
5625,0.005,-0.025
5626,0.005,-0.035
5627,0.015,-0.005
5628,0.025,0.000
5629,0.035,0.010
5630,0.045,0.010
5631,0.045,0.040
5632,0.040,0.050
5633,0.035,0.025
5634,0.025,0.015
5635,0.010,0.000
5636,0.000,-0.015
5637,0.000,-0.040
5638,0.000,-0.035
5639,0.000,-0.045
5640,0.000,-0.030
5641,0.000,-0.045
5642,0.010,-0.035
5643,0.055,-0.005
5644,0.170,0.115
5645,0.345,0.290
5646,0.520,0.505
5647,0.650,0.695
5648,0.710,0.850
5649,0.705,0.880
5650,0.665,0.835
5651,0.590,0.770
5652,0.490,0.680
5653,0.375,0.565
5654,0.240,0.425
5655,0.095,0.235
5656,-0.025,0.025
5657,-0.105,-0.120
5658,-0.140,-0.200
5659,-0.150,-0.225
5660,-0.155,-0.230
5661,-0.155,-0.240
5662,-0.155,-0.240
5663,-0.160,-0.235
5664,-0.160,-0.230
5665,-0.160,-0.235
5666,-0.160,-0.225
5667,-0.160,-0.250
5668,-0.160,-0.230
5669,-0.165,-0.245
5670,-0.170,-0.235
5671,-0.170,-0.245
5672,-0.175,-0.240
5673,-0.180,-0.255
5674,-0.185,-0.240
5675,-0.185,-0.255
5676,-0.190,-0.255
5677,-0.195,-0.265
5678,-0.195,-0.260
5679,-0.185,-0.245
5680,-0.165,-0.225
5681,-0.145,-0.195
5682,-0.120,-0.145
5683,-0.085,-0.090
5684,-0.040,-0.040
5685,-0.010,-0.005
5686,0.000,0.005
5687,0.010,0.020
5688,0.015,0.010
5689,0.015,0.005
5690,0.010,0.000
5691,0.005,0.000
5692,0.000,-0.010
5693,0.000,-0.020
5694,0.000,-0.030
5695,0.000,-0.030
5696,0.000,-0.040
5697,0.000,-0.040
5698,0.000,-0.035
5699,0.000,-0.040
5700,0.000,-0.035
5701,0.000,-0.035
5702,-0.005,-0.030
5703,-0.005,-0.040
5704,0.000,-0.040
5705,0.000,-0.050
5706,0.000,-0.040
5707,0.000,-0.035
5708,0.000,-0.030
5709,0.000,-0.030
5710,0.000,-0.040
5711,0.000,-0.040
5712,0.000,-0.035
5713,0.000,-0.020
5714,0.000,-0.040
5715,0.000,-0.035
5716,0.000,-0.045
5717,0.000,-0.025
5718,0.000,-0.035
5719,0.000,-0.030
5720,0.000,-0.040
5721,0.000,-0.020
5722,0.000,-0.040
5723,0.000,-0.030
5724,0.000,-0.040
5725,0.000,-0.025
5726,0.000,-0.035
5727,0.010,-0.020
5728,0.020,-0.010
5729,0.025,0.010
5730,0.035,0.015
5731,0.040,0.035
5732,0.035,0.035
5733,0.025,0.030
5734,0.020,0.010
5735,0.010,-0.005
5736,0.000,-0.020
5737,0.000,-0.040
5738,0.000,-0.040
5739,-0.005,-0.040
5740,-0.005,-0.045
5741,-0.005,-0.035
5742,0.000,-0.035
5743,0.030,-0.010
5744,0.135,0.075
5745,0.300,0.250
5746,0.485,0.460
5747,0.635,0.675
5748,0.715,0.830
5749,0.715,0.900
5750,0.670,0.835
5751,0.595,0.775
5752,0.500,0.675
5753,0.385,0.575
5754,0.250,0.435
5755,0.100,0.265
5756,-0.015,0.040
5757,-0.090,-0.110
5758,-0.130,-0.190
5759,-0.150,-0.225
5760,-0.155,-0.230
5761,-0.155,-0.235
5762,-0.155,-0.220
5763,-0.155,-0.225
5764,-0.155,-0.220
5765,-0.155,-0.225
5766,-0.150,-0.205
5767,-0.150,-0.230
5768,-0.150,-0.220
5769,-0.155,-0.235
5770,-0.155,-0.220
5771,-0.155,-0.230
5772,-0.160,-0.225
5773,-0.165,-0.235
5774,-0.170,-0.230
5775,-0.175,-0.245
5776,-0.185,-0.245
5777,-0.185,-0.245
5778,-0.185,-0.240
5779,-0.175,-0.230
5780,-0.160,-0.200
5781,-0.135,-0.175
5782,-0.105,-0.145
5783,-0.070,-0.095
5784,-0.040,-0.050
5785,-0.010,-0.010
5786,0.000,0.005
5787,0.010,0.015
5788,0.015,0.015
5789,0.015,0.005
5790,0.015,0.000
5791,0.005,-0.005
5792,0.000,-0.010
5793,0.000,-0.020
5794,0.005,-0.020
5795,0.000,-0.035
5796,0.000,-0.025
5797,0.000,-0.045
5798,0.000,-0.025
5799,0.000,-0.040
5800,0.000,-0.025
5801,0.000,-0.045
5802,0.000,-0.025
5803,0.000,-0.035
5804,0.000,-0.025
5805,0.000,-0.035
5806,0.000,-0.030
5807,0.000,-0.030
5808,0.000,-0.025
5809,0.000,-0.025
5810,0.005,-0.030
5811,0.010,-0.030
5812,0.010,-0.030
5813,0.005,-0.025
5814,0.005,-0.025
5815,0.005,-0.030
5816,0.005,-0.040
5817,0.005,-0.035
5818,0.000,-0.035
5819,0.000,-0.025
5820,0.000,-0.030
5821,0.000,-0.025
5822,0.000,-0.035
5823,0.000,-0.035
5824,0.005,-0.025
5825,0.010,-0.020
5826,0.015,-0.015
5827,0.020,-0.005
5828,0.025,0.005
5829,0.035,0.015
5830,0.040,0.040
5831,0.035,0.040
5832,0.025,0.025
5833,0.020,0.000
5834,0.005,-0.005
5835,0.000,-0.035
5836,0.000,-0.035
5837,0.000,-0.040
5838,0.000,-0.040
5839,0.000,-0.040
5840,0.000,-0.040
5841,0.000,-0.035
5842,0.040,-0.010
5843,0.165,0.115
5844,0.350,0.300
5845,0.530,0.535
5846,0.665,0.715
5847,0.725,0.870
5848,0.710,0.870
5849,0.655,0.840
5850,0.565,0.745
5851,0.465,0.670
5852,0.345,0.540
5853,0.205,0.400
5854,0.060,0.195
5855,-0.045,0.000
5856,-0.105,-0.135
5857,-0.130,-0.195
5858,-0.150,-0.230
5859,-0.155,-0.230
5860,-0.160,-0.235
5861,-0.155,-0.235
5862,-0.155,-0.235
5863,-0.150,-0.230
5864,-0.150,-0.225
5865,-0.150,-0.225
5866,-0.150,-0.215
5867,-0.150,-0.215
5868,-0.150,-0.220
5869,-0.155,-0.230
5870,-0.160,-0.230
5871,-0.160,-0.225
5872,-0.165,-0.235
5873,-0.175,-0.235
5874,-0.180,-0.255
5875,-0.180,-0.250
5876,-0.180,-0.255
5877,-0.180,-0.240
5878,-0.175,-0.230
5879,-0.150,-0.195
5880,-0.125,-0.175
5881,-0.095,-0.115
5882,-0.065,-0.070
5883,-0.035,-0.020
5884,0.000,0.000
5885,0.010,0.020
5886,0.015,0.015
5887,0.010,0.010
5888,0.010,0.005
5889,0.010,0.000
5890,0.005,-0.010
5891,0.000,-0.020
5892,0.000,-0.025
5893,0.000,-0.030
5894,0.000,-0.025
5895,0.000,-0.025
5896,0.000,-0.030
5897,0.000,-0.045
5898,0.000,-0.030
5899,0.000,-0.040
5900,0.000,-0.030
5901,0.000,-0.040
5902,0.000,-0.025
5903,0.000,-0.035
5904,0.000,-0.030
5905,0.000,-0.035
5906,0.000,-0.030
5907,0.000,-0.035
5908,0.000,-0.030
5909,0.000,-0.025
5910,0.000,-0.025
5911,0.005,-0.025
5912,0.010,-0.025
5913,0.010,-0.025
5914,0.010,-0.020
5915,0.010,-0.020
5916,0.010,-0.030
5917,0.010,-0.025
5918,0.010,-0.025
5919,0.010,-0.020
5920,0.010,-0.015
5921,0.010,-0.020
5922,0.010,-0.020
5923,0.015,-0.025
5924,0.020,-0.015
5925,0.020,-0.010
5926,0.030,0.010
5927,0.045,0.005
5928,0.055,0.045
5929,0.055,0.040
5930,0.050,0.060
5931,0.040,0.050
5932,0.030,0.030
5933,0.020,0.000
5934,0.015,0.000
5935,0.015,-0.015
5936,0.015,-0.015
5937,0.015,-0.020
5938,0.015,-0.020
5939,0.015,-0.020
5940,0.020,-0.015
5941,0.070,0.015
5942,0.185,0.140
5943,0.360,0.320
5944,0.535,0.520
5945,0.670,0.720
5946,0.740,0.865
5947,0.735,0.910
5948,0.690,0.865
5949,0.615,0.800
5950,0.515,0.710
5951,0.400,0.610
5952,0.260,0.465
5953,0.120,0.270
5954,0.005,0.060
5955,-0.060,-0.090
5956,-0.095,-0.155
5957,-0.110,-0.185
5958,-0.120,-0.190
5959,-0.120,-0.200
5960,-0.125,-0.190
5961,-0.125,-0.190
5962,-0.120,-0.195
5963,-0.120,-0.205
5964,-0.120,-0.195
5965,-0.115,-0.195
5966,-0.115,-0.190
5967,-0.115,-0.190
5968,-0.120,-0.190
5969,-0.120,-0.190
5970,-0.125,-0.190
5971,-0.130,-0.190
5972,-0.140,-0.200
5973,-0.145,-0.195
5974,-0.145,-0.205
5975,-0.150,-0.195
5976,-0.145,-0.205
5977,-0.140,-0.195
5978,-0.120,-0.190
5979,-0.090,-0.120
5980,-0.060,-0.100
5981,-0.025,-0.035
5982,0.000,-0.005
5983,0.020,0.040
5984,0.040,0.050
5985,0.045,0.065
5986,0.050,0.060
5987,0.045,0.060
5988,0.045,0.040
5989,0.045,0.030
5990,0.040,0.020
5991,0.040,0.015
5992,0.040,0.010
5993,0.040,0.005
5994,0.035,0.005
5995,0.035,0.005
5996,0.035,0.005
5997,0.035,0.005
5998,0.040,0.005
5999,0.040,0.005
6000,0.040,0.005
6001,0.040,0.005
6002,0.040,0.005
6003,0.040,0.015
6004,0.035,0.005
6005,0.035,0.010
6006,0.040,0.005
6007,0.040,0.015
6008,0.040,0.000
6009,0.040,0.005
6010,0.040,0.005
6011,0.040,0.015
6012,0.040,0.005
6013,0.040,0.005
6014,0.040,0.000
6015,0.035,0.000
6016,0.035,0.000
6017,0.030,0.000
6018,0.025,0.000
6019,0.025,0.000
6020,0.025,0.000
6021,0.025,-0.005
6022,0.025,0.000
6023,0.025,-0.005
6024,0.025,0.000
6025,0.030,-0.005
6026,0.040,0.020
6027,0.055,0.030
6028,0.065,0.050
6029,0.070,0.060
6030,0.075,0.075
6031,0.065,0.065
6032,0.050,0.055
6033,0.035,0.020
6034,0.020,0.000
6035,0.015,-0.010
6036,0.015,-0.010
6037,0.015,-0.015
6038,0.015,-0.015
6039,0.020,-0.010
6040,0.020,-0.015
6041,0.055,0.000
6042,0.155,0.080
6043,0.315,0.260
6044,0.495,0.470
6045,0.645,0.685
6046,0.735,0.850
6047,0.750,0.930
6048,0.720,0.905
6049,0.655,0.840
6050,0.565,0.765
6051,0.455,0.655
6052,0.325,0.545
6053,0.170,0.355
6054,0.025,0.130
6055,-0.065,-0.075
6056,-0.120,-0.155
6057,-0.145,-0.225
6058,-0.155,-0.215
6059,-0.155,-0.240
6060,-0.155,-0.220
6061,-0.150,-0.235
6062,-0.150,-0.220
6063,-0.150,-0.240
6064,-0.155,-0.230
6065,-0.155,-0.240
6066,-0.155,-0.220
6067,-0.160,-0.230
6068,-0.165,-0.220
6069,-0.170,-0.235
6070,-0.170,-0.245
6071,-0.170,-0.230
6072,-0.175,-0.250
6073,-0.180,-0.250
6074,-0.190,-0.260
6075,-0.195,-0.270
6076,-0.195,-0.275
6077,-0.185,-0.250
6078,-0.170,-0.225
6079,-0.145,-0.195
6080,-0.120,-0.155
6081,-0.085,-0.105
6082,-0.045,-0.050
6083,-0.010,-0.015
6084,0.000,0.010
6085,0.010,0.015
6086,0.015,0.020
6087,0.015,0.005
6088,0.015,0.005
6089,0.010,0.000
6090,0.000,-0.010
6091,0.000,-0.020
6092,0.000,-0.020
6093,0.000,-0.030
6094,0.000,-0.030
6095,0.000,-0.035
6096,0.000,-0.025
6097,0.000,-0.025
6098,0.000,-0.035
6099,0.000,-0.025
6100,0.000,-0.045
6101,0.000,-0.025
6102,0.000,-0.040
6103,0.000,-0.020
6104,0.000,-0.040
6105,0.000,-0.035
6106,0.000,-0.045
6107,0.000,-0.030
6108,0.000,-0.045
6109,0.000,-0.025
6110,0.000,-0.040
6111,0.000,-0.025
6112,0.005,-0.035
6113,0.000,-0.030
6114,0.000,-0.040
6115,0.000,-0.030
6116,0.000,-0.030
6117,0.000,-0.025
6118,0.000,-0.025
6119,0.000,-0.025
6120,0.000,-0.035
6121,0.000,-0.035
6122,0.000,-0.030
6123,0.000,-0.030
6124,0.000,-0.035
6125,0.000,-0.035
6126,0.000,-0.035
6127,0.010,-0.025
6128,0.015,-0.010
6129,0.025,0.000
6130,0.035,0.005
6131,0.040,0.030
6132,0.035,0.040
6133,0.030,0.045
6134,0.020,0.015
6135,0.005,0.000
6136,0.000,-0.025
6137,0.000,-0.025
6138,0.000,-0.035
6139,0.000,-0.030
6140,0.000,-0.060
6141,0.000,-0.035
6142,0.000,-0.055
6143,0.015,-0.020
6144,0.105,0.030
6145,0.270,0.210
6146,0.460,0.415
6147,0.615,0.640
6148,0.700,0.820
6149,0.715,0.890
6150,0.685,0.860
6151,0.620,0.795
6152,0.530,0.720
6153,0.420,0.605
6154,0.280,0.490
6155,0.130,0.305
6156,0.000,0.095
6157,-0.085,-0.095
6158,-0.130,-0.175
6159,-0.150,-0.225
6160,-0.155,-0.225
6161,-0.160,-0.235
6162,-0.160,-0.230
6163,-0.155,-0.230
6164,-0.155,-0.230
6165,-0.155,-0.230
6166,-0.155,-0.235
6167,-0.160,-0.225
6168,-0.165,-0.230
6169,-0.170,-0.230
6170,-0.165,-0.240
6171,-0.165,-0.240
6172,-0.165,-0.240
6173,-0.170,-0.245
6174,-0.175,-0.245
6175,-0.180,-0.250
6176,-0.185,-0.245
6177,-0.190,-0.255
6178,-0.190,-0.245
6179,-0.185,-0.245
6180,-0.170,-0.220
6181,-0.155,-0.205
6182,-0.130,-0.155
6183,-0.095,-0.125
6184,-0.055,-0.055
6185,-0.025,-0.020
6186,0.000,0.005
6187,0.000,0.005
6188,0.005,0.025
6189,0.005,0.005
6190,0.000,0.000
6191,0.000,-0.020
6192,0.000,0.000
6193,0.000,-0.025
6194,0.000,-0.030
6195,0.000,-0.040
6196,0.000,-0.035
6197,0.000,-0.035
6198,0.000,-0.035
6199,0.000,-0.040
6200,0.000,-0.040
6201,0.000,-0.035
6202,0.000,-0.035
6203,0.000,-0.030
6204,0.000,-0.025
6205,0.005,-0.025
6206,0.000,-0.030
6207,0.000,-0.035
6208,0.000,-0.030
6209,0.000,-0.030
6210,0.000,-0.035
6211,0.000,-0.040
6212,0.000,-0.035
6213,0.000,-0.040
6214,0.000,-0.030
6215,0.000,-0.035
6216,0.000,-0.030
6217,0.000,-0.045
6218,0.000,-0.025
6219,0.000,-0.035
6220,0.000,-0.025
6221,0.000,-0.035
6222,0.000,-0.030
6223,0.000,-0.030
6224,0.000,-0.025
6225,0.000,-0.025
6226,0.000,-0.030
6227,0.000,-0.035
6228,0.005,-0.030
6229,0.015,-0.020
6230,0.015,-0.020
6231,0.020,0.000
6232,0.030,0.005
6233,0.040,0.025
6234,0.045,0.030
6235,0.035,0.050
6236,0.025,0.025
6237,0.010,0.010
6238,0.000,-0.015
6239,0.000,-0.025
6240,0.000,-0.045
6241,-0.005,-0.035
6242,-0.005,-0.040
6243,-0.005,-0.035
6244,0.000,-0.050
6245,0.010,-0.035
6246,0.080,0.020
6247,0.220,0.165
6248,0.400,0.370
6249,0.570,0.570
6250,0.685,0.760
6251,0.725,0.870
6252,0.695,0.870
6253,0.625,0.805
6254,0.535,0.725
6255,0.425,0.620
6256,0.305,0.495
6257,0.165,0.340
6258,0.025,0.135
6259,-0.065,-0.045
6260,-0.120,-0.165
6261,-0.140,-0.200
6262,-0.150,-0.235
6263,-0.155,-0.225
6264,-0.160,-0.240
6265,-0.155,-0.220
6266,-0.155,-0.235
6267,-0.150,-0.205
6268,-0.150,-0.225
6269,-0.150,-0.220
6270,-0.155,-0.235
6271,-0.155,-0.220
6272,-0.155,-0.235
6273,-0.155,-0.230
6274,-0.160,-0.230
6275,-0.165,-0.235
6276,-0.170,-0.240
6277,-0.175,-0.240
6278,-0.180,-0.245
6279,-0.180,-0.245
6280,-0.180,-0.240
6281,-0.175,-0.240
6282,-0.160,-0.210
6283,-0.145,-0.200
6284,-0.120,-0.160
6285,-0.090,-0.115
6286,-0.055,-0.055
6287,-0.025,-0.025
6288,-0.005,0.000
6289,0.000,0.000
6290,0.005,0.005
6291,0.010,0.005
6292,0.010,0.000
6293,0.010,-0.005
6294,0.005,-0.005
6295,0.000,-0.005
6296,0.000,-0.020
6297,0.005,-0.030
6298,0.000,-0.030
6299,0.000,-0.030
6300,0.000,-0.040
6301,-0.005,-0.040
6302,0.000,-0.035
6303,0.000,-0.035
6304,0.000,-0.035
6305,0.000,-0.035
6306,0.000,-0.030
6307,0.000,-0.030
6308,0.000,-0.030
6309,0.005,-0.045
6310,0.000,-0.020
6311,0.000,-0.025
6312,0.000,-0.025
6313,0.000,-0.040
6314,0.005,-0.015
6315,0.005,-0.035
6316,0.005,-0.025
6317,0.000,-0.040
6318,0.000,-0.025
6319,0.000,-0.035
6320,0.000,-0.025
6321,0.000,-0.040
6322,0.000,-0.025
6323,0.005,-0.035
6324,0.000,-0.025
6325,0.000,-0.025
6326,0.000,-0.030
6327,0.000,-0.025
6328,0.000,-0.025
6329,0.000,-0.025
6330,0.000,-0.020
6331,0.010,-0.005
6332,0.020,0.000
6333,0.030,0.005
6334,0.035,0.015
6335,0.040,0.040
6336,0.035,0.040
6337,0.025,0.025
6338,0.020,0.015
6339,0.010,0.000
6340,0.000,-0.010
6341,0.000,-0.025
6342,0.000,-0.030
6343,0.000,-0.035
6344,0.000,-0.025
6345,0.000,-0.035
6346,0.000,-0.025
6347,0.015,-0.005
6348,0.115,0.070
6349,0.275,0.225
6350,0.460,0.440
6351,0.615,0.625
6352,0.710,0.810
6353,0.725,0.880
6354,0.680,0.860
6355,0.610,0.780
6356,0.515,0.700
6357,0.395,0.600
6358,0.260,0.460
6359,0.110,0.295
6360,-0.015,0.055
6361,-0.090,-0.090
6362,-0.130,-0.185
6363,-0.140,-0.200
6364,-0.145,-0.235
6365,-0.150,-0.220
6366,-0.155,-0.230
6367,-0.155,-0.205
6368,-0.145,-0.230
6369,-0.145,-0.225
6370,-0.150,-0.235
6371,-0.155,-0.225
6372,-0.155,-0.225
6373,-0.155,-0.215
6374,-0.155,-0.225
6375,-0.155,-0.230
6376,-0.160,-0.230
6377,-0.165,-0.225
6378,-0.170,-0.235
6379,-0.175,-0.245
6380,-0.180,-0.245
6381,-0.180,-0.245
6382,-0.175,-0.240
6383,-0.170,-0.225
6384,-0.155,-0.205
6385,-0.135,-0.190
6386,-0.115,-0.160
6387,-0.080,-0.100
6388,-0.045,-0.055
6389,-0.010,0.000
6390,0.000,0.000
6391,0.010,0.015
6392,0.015,0.005
6393,0.010,0.010
6394,0.005,0.000
6395,0.005,0.000
6396,0.005,-0.020
6397,0.005,0.000
6398,0.000,-0.030
6399,0.000,-0.030
6400,0.000,-0.030
6401,0.000,-0.030
6402,0.000,-0.030
6403,0.000,-0.025
6404,0.005,-0.030
6405,0.010,-0.030
6406,0.010,-0.025
6407,0.015,-0.025
6408,0.015,-0.025
6409,0.015,-0.025
6410,0.015,-0.015
6411,0.015,-0.015
6412,0.015,-0.005
6413,0.020,-0.015
6414,0.020,-0.005
6415,0.015,-0.015
6416,0.015,-0.015
6417,0.020,-0.010
6418,0.020,0.000
6419,0.015,-0.010
6420,0.015,-0.010
6421,0.015,-0.005
6422,0.020,-0.005
6423,0.025,0.000
6424,0.025,-0.005
6425,0.025,0.000
6426,0.025,-0.005
6427,0.025,0.000
6428,0.025,-0.005
6429,0.025,0.000
6430,0.025,0.000
6431,0.025,0.000
6432,0.030,0.000
6433,0.035,0.015
6434,0.045,0.035
6435,0.055,0.045
6436,0.075,0.070
6437,0.070,0.080
6438,0.060,0.075
6439,0.050,0.050
6440,0.035,0.020
6441,0.025,0.000
6442,0.025,0.000
6443,0.025,-0.015
6444,0.020,0.000
6445,0.020,-0.010
6446,0.020,0.000
6447,0.025,-0.005
6448,0.055,0.015
6449,0.155,0.090
6450,0.320,0.270
6451,0.500,0.470
6452,0.655,0.690
6453,0.745,0.855
6454,0.765,0.930
6455,0.735,0.905
6456,0.670,0.860
6457,0.585,0.790
6458,0.480,0.690
6459,0.350,0.565
6460,0.205,0.385
6461,0.065,0.160
6462,-0.030,-0.015
6463,-0.080,-0.115
6464,-0.100,-0.170
6465,-0.110,-0.185
6466,-0.105,-0.185
6467,-0.105,-0.180
6468,-0.105,-0.175
6469,-0.110,-0.180
6470,-0.105,-0.170
6471,-0.100,-0.175
6472,-0.100,-0.165
6473,-0.105,-0.180
6474,-0.110,-0.175
6475,-0.110,-0.180
6476,-0.110,-0.165
6477,-0.110,-0.180
6478,-0.120,-0.180
6479,-0.125,-0.200
6480,-0.130,-0.200
6481,-0.130,-0.195
6482,-0.135,-0.190
6483,-0.130,-0.190
6484,-0.125,-0.180
6485,-0.115,-0.170
6486,-0.100,-0.140
6487,-0.070,-0.095
6488,-0.030,-0.065
6489,0.000,-0.005
6490,0.025,0.015
6491,0.050,0.070
6492,0.060,0.080
6493,0.065,0.090
6494,0.065,0.060
6495,0.065,0.060
6496,0.050,0.035
6497,0.045,0.030
6498,0.035,0.010
6499,0.035,0.015
6500,0.030,0.010
6501,0.025,0.005
6502,0.025,0.000
6503,0.030,0.005
6504,0.030,0.000
6505,0.025,0.000
6506,0.025,0.000
6507,0.025,0.000
6508,0.025,0.000
6509,0.025,0.000
6510,0.025,0.000
6511,0.025,0.000
6512,0.025,0.000
6513,0.025,0.000
6514,0.025,-0.010
6515,0.025,0.000
6516,0.020,0.000
6517,0.020,0.000
6518,0.020,-0.010
6519,0.020,0.000
6520,0.020,-0.015
6521,0.015,0.000
6522,0.015,-0.020
6523,0.015,-0.005
6524,0.015,-0.020
6525,0.015,-0.005
6526,0.015,-0.015
6527,0.015,-0.005
6528,0.020,-0.025
6529,0.015,-0.005
6530,0.015,-0.025
6531,0.015,-0.005
6532,0.015,-0.010
6533,0.015,-0.015
6534,0.015,-0.010
6535,0.020,0.000
6536,0.035,0.015
6537,0.050,0.025
6538,0.055,0.045
6539,0.050,0.050
6540,0.040,0.050
6541,0.025,0.025
6542,0.015,0.005
6543,0.015,-0.015
6544,0.010,-0.025
6545,0.010,-0.030
6546,0.010,-0.030
6547,0.005,-0.035
6548,0.000,-0.030
6549,0.005,-0.030
6550,0.040,-0.015
6551,0.140,0.075
6552,0.310,0.260
6553,0.490,0.475
6554,0.635,0.670
6555,0.720,0.830
6556,0.740,0.900
6557,0.715,0.890
6558,0.650,0.825
6559,0.550,0.745
6560,0.435,0.635
6561,0.305,0.515
6562,0.155,0.345
6563,0.015,0.105
6564,-0.075,-0.080
6565,-0.125,-0.175
6566,-0.145,-0.210
6567,-0.155,-0.240
6568,-0.155,-0.225
6569,-0.155,-0.240
6570,-0.155,-0.225
6571,-0.155,-0.240
6572,-0.160,-0.220
6573,-0.155,-0.240
6574,-0.155,-0.225
6575,-0.160,-0.245
6576,-0.165,-0.225
6577,-0.170,-0.245
6578,-0.175,-0.230
6579,-0.175,-0.250
6580,-0.175,-0.245
6581,-0.180,-0.255
6582,-0.190,-0.255
6583,-0.195,-0.270
6584,-0.200,-0.265
6585,-0.200,-0.260
6586,-0.190,-0.250
6587,-0.180,-0.225
6588,-0.150,-0.200
6589,-0.120,-0.160
6590,-0.085,-0.110
6591,-0.045,-0.055
6592,-0.015,-0.015
6593,0.000,0.010
6594,0.010,0.015
6595,0.015,0.010
6596,0.010,0.005
6597,0.010,0.000
6598,0.005,-0.005
6599,0.000,-0.015
6600,0.000,-0.015
6601,0.000,-0.035
6602,0.000,-0.030
6603,0.000,-0.040
6604,0.000,-0.025
6605,0.000,-0.040
6606,0.000,-0.030
6607,0.000,-0.040
6608,0.000,-0.030
6609,0.000,-0.050
6610,0.000,-0.025
6611,0.000,-0.035
6612,0.000,-0.030
6613,0.000,-0.030
6614,0.000,-0.035
6615,0.000,-0.040
6616,0.000,-0.040
6617,0.000,-0.025
6618,0.000,-0.030
6619,0.000,-0.025
6620,0.000,-0.040
6621,0.000,-0.030
6622,0.000,-0.045
6623,0.000,-0.030
6624,0.000,-0.040
6625,0.000,-0.030
6626,0.000,-0.040
6627,0.000,-0.030
6628,0.000,-0.040
6629,0.000,-0.030
6630,0.000,-0.045
6631,0.000,-0.040
6632,0.000,-0.040
6633,0.000,-0.040
6634,0.000,-0.035
6635,0.000,-0.035
6636,0.000,-0.030
6637,0.000,-0.030
6638,0.010,-0.015
6639,0.020,0.000
6640,0.025,0.005
6641,0.035,0.020
6642,0.035,0.040
6643,0.030,0.035
6644,0.020,0.015
6645,0.010,0.000
6646,0.005,-0.030
6647,0.000,-0.040
6648,0.000,-0.040
6649,-0.005,-0.035
6650,-0.005,-0.060
6651,-0.005,-0.030
6652,0.000,-0.055
6653,0.015,-0.025
6654,0.090,0.010
6655,0.245,0.200
6656,0.445,0.400
6657,0.605,0.630
6658,0.705,0.790
6659,0.725,0.895
6660,0.690,0.855
6661,0.630,0.810
6662,0.540,0.710
6663,0.425,0.630
6664,0.300,0.500
6665,0.155,0.335
6666,0.025,0.120
6667,-0.075,-0.070
6668,-0.130,-0.170
6669,-0.150,-0.210
6670,-0.155,-0.230
6671,-0.150,-0.240
6672,-0.150,-0.235
6673,-0.150,-0.235
6674,-0.150,-0.230
6675,-0.150,-0.225
6676,-0.150,-0.225
6677,-0.155,-0.230
6678,-0.155,-0.225
6679,-0.155,-0.225
6680,-0.155,-0.225
6681,-0.160,-0.225
6682,-0.160,-0.235
6683,-0.170,-0.230
6684,-0.175,-0.240
6685,-0.180,-0.240
6686,-0.180,-0.250
6687,-0.185,-0.245
6688,-0.185,-0.250
6689,-0.180,-0.240
6690,-0.170,-0.230
6691,-0.150,-0.195
6692,-0.120,-0.155
6693,-0.090,-0.110
6694,-0.055,-0.065
6695,-0.020,-0.020
6696,0.000,0.015
6697,0.010,0.015
6698,0.015,0.015
6699,0.015,0.005
6700,0.015,0.005
6701,0.010,-0.005
6702,0.005,0.000
6703,0.000,-0.025
6704,0.000,-0.025
6705,0.000,-0.040
6706,0.000,-0.025
6707,0.000,-0.040
6708,0.000,-0.025
6709,0.000,-0.040
6710,0.000,-0.035
6711,0.000,-0.040
6712,0.000,-0.035
6713,0.000,-0.040
6714,0.000,-0.035
6715,0.000,-0.035
6716,0.000,-0.030
6717,0.000,-0.035
6718,0.000,-0.040
6719,0.000,-0.030
6720,0.000,-0.030
6721,0.005,-0.030
6722,0.000,-0.030
6723,0.000,-0.035
6724,0.000,-0.035
6725,0.000,-0.040
6726,0.000,-0.030
6727,0.000,-0.035
6728,0.000,-0.035
6729,0.000,-0.040
6730,0.000,-0.030
6731,0.000,-0.045
6732,0.000,-0.025
6733,0.000,-0.035
6734,0.000,-0.025
6735,0.000,-0.035
6736,0.000,-0.030
6737,0.000,-0.040
