'sample interval','ECG0','ECG1'
'0.0078125 sec','mV','mV'
0,-0.080,-0.330
1,-0.095,-0.350
2,-0.105,-0.340
3,-0.110,-0.370
4,-0.110,-0.385
5,-0.095,-0.420
6,-0.095,-0.420
7,-0.120,-0.390
8,-0.100,-0.365
9,0.035,-0.300
10,0.270,-0.250
11,0.400,-0.290
12,0.325,-0.485
13,0.150,-0.765
14,0.015,-0.910
15,-0.040,-0.805
16,-0.070,-0.670
17,-0.090,-0.570
18,-0.105,-0.540
19,-0.115,-0.530
20,-0.105,-0.530
21,-0.095,-0.530
22,-0.085,-0.535
23,-0.080,-0.540
24,-0.070,-0.545
25,-0.055,-0.560
26,-0.045,-0.560
27,-0.030,-0.570
28,-0.015,-0.560
29,-0.005,-0.560
30,0.000,-0.545
31,0.005,-0.555
32,0.025,-0.540
33,0.045,-0.535
34,0.070,-0.515
35,0.110,-0.495
36,0.165,-0.465
37,0.215,-0.440
38,0.255,-0.445
39,0.275,-0.450
40,0.270,-0.515
41,0.245,-0.555
42,0.215,-0.650
43,0.185,-0.700
44,0.145,-0.800
45,0.100,-0.840
46,0.065,-0.920
47,0.040,-0.930
48,0.025,-0.980
49,0.015,-0.980
50,0.015,-1.010
51,0.010,-0.995
52,0.010,-1.005
53,0.010,-0.980
54,0.010,-0.980
55,0.020,-0.960
56,0.025,-0.940
57,0.030,-0.920
58,0.040,-0.905
59,0.050,-0.895
60,0.055,-0.885
61,0.050,-0.880
62,0.040,-0.870
63,0.030,-0.865
64,0.010,-0.840
65,-0.005,-0.810
66,-0.020,-0.780
67,-0.040,-0.745
68,-0.060,-0.705
69,-0.075,-0.665
70,-0.080,-0.645
71,-0.085,-0.595
72,-0.085,-0.560
73,-0.090,-0.495
74,-0.110,-0.435
75,-0.115,-0.340
76,-0.025,-0.255
77,0.160,-0.140
78,0.345,-0.115
79,0.345,-0.200
80,0.180,-0.410
81,0.015,-0.645
82,-0.070,-0.615
83,-0.110,-0.430
84,-0.135,-0.310
85,-0.150,-0.230
86,-0.150,-0.180
87,-0.145,-0.160
88,-0.140,-0.115
89,-0.135,-0.115
90,-0.125,-0.090
91,-0.110,-0.090
92,-0.095,-0.060
93,-0.085,-0.055
94,-0.075,-0.010
95,-0.065,-0.010
96,-0.055,0.015
97,-0.040,0.025
98,-0.020,0.070
99,0.000,0.095
100,0.010,0.140
101,0.030,0.170
102,0.060,0.220
103,0.100,0.275
104,0.150,0.330
105,0.190,0.370
106,0.210,0.385
107,0.215,0.390
108,0.210,0.385
109,0.190,0.370
110,0.165,0.335
111,0.130,0.300
112,0.095,0.275
113,0.055,0.250
114,0.030,0.230
115,0.015,0.210
116,0.005,0.210
117,0.000,0.200
118,-0.010,0.210
119,-0.010,0.205
120,-0.010,0.225
121,-0.005,0.215
122,0.000,0.240
123,0.005,0.220
124,0.015,0.255
125,0.020,0.235
126,0.025,0.255
127,0.030,0.215
128,0.030,0.225
129,0.020,0.180
130,0.005,0.180
131,0.000,0.165
132,-0.020,0.180
133,-0.050,0.170
134,-0.080,0.170
135,-0.110,0.145
136,-0.125,0.120
137,-0.130,0.095
138,-0.135,0.085
139,-0.130,0.080
140,-0.125,0.060
141,-0.135,0.085
142,-0.145,0.090
143,-0.075,0.135
144,0.110,0.190
145,0.305,0.215
146,0.345,0.095
147,0.225,-0.110
148,0.060,-0.345
149,-0.045,-0.390
150,-0.090,-0.260
151,-0.115,-0.155
152,-0.130,-0.105
153,-0.120,-0.095
154,-0.100,-0.085
155,-0.085,-0.095
156,-0.080,-0.095
157,-0.080,-0.110
158,-0.075,-0.110
159,-0.065,-0.110
160,-0.050,-0.110
161,-0.040,-0.110
162,-0.030,-0.105
163,-0.025,-0.105
164,-0.020,-0.100
165,-0.005,-0.100
166,0.010,-0.100
167,0.030,-0.070
168,0.050,-0.065
169,0.085,-0.005
170,0.135,0.000
171,0.175,0.040
172,0.210,0.045
173,0.230,0.110
174,0.235,0.090
175,0.215,0.115
176,0.185,0.080
177,0.155,0.090
178,0.110,0.050
179,0.075,0.045
180,0.040,0.010
181,0.015,0.015
182,0.000,0.005
183,-0.010,0.025
184,-0.020,0.035
185,-0.025,0.050
186,-0.025,0.075
187,-0.025,0.090
188,-0.030,0.110
189,-0.025,0.125
190,-0.020,0.150
191,-0.015,0.175
192,-0.015,0.210
193,-0.010,0.240
194,-0.010,0.255
195,-0.020,0.265
196,-0.035,0.265
197,-0.050,0.270
198,-0.075,0.265
199,-0.105,0.275
200,-0.135,0.285
201,-0.165,0.330
202,-0.180,0.355
203,-0.195,0.395
204,-0.205,0.395
205,-0.210,0.410
206,-0.205,0.400
207,-0.205,0.440
208,-0.210,0.460
209,-0.230,0.515
210,-0.195,0.535
211,-0.020,0.655
212,0.225,0.740
213,0.355,0.725
214,0.285,0.545
215,0.110,0.205
216,-0.035,0.100
217,-0.120,0.235
218,-0.170,0.390
219,-0.200,0.460
220,-0.205,0.520
221,-0.215,0.520
222,-0.220,0.540
223,-0.210,0.540
224,-0.195,0.565
225,-0.180,0.545
226,-0.175,0.555
227,-0.160,0.540
228,-0.145,0.570
229,-0.140,0.570
230,-0.145,0.590
231,-0.140,0.595
232,-0.130,0.615
233,-0.115,0.630
234,-0.100,0.640
235,-0.080,0.660
236,-0.050,0.685
237,-0.010,0.720
238,0.030,0.740
239,0.080,0.765
240,0.125,0.790
241,0.145,0.795
242,0.145,0.785
243,0.130,0.765
244,0.120,0.735
245,0.100,0.680
246,0.065,0.645
247,0.035,0.590
248,0.025,0.580
249,0.025,0.550
250,0.035,0.550
251,0.040,0.520
252,0.040,0.525
253,0.045,0.495
254,0.060,0.525
255,0.055,0.485
256,0.050,0.520
257,0.035,0.495
258,0.035,0.515
259,0.035,0.495
260,0.035,0.500
261,0.040,0.490
262,0.040,0.485
263,0.020,0.460
264,0.000,0.435
265,-0.010,0.395
266,-0.030,0.380
267,-0.060,0.370
268,-0.080,0.360
269,-0.100,0.370
270,-0.115,0.350
271,-0.130,0.350
272,-0.130,0.330
273,-0.125,0.330
274,-0.125,0.330
275,-0.140,0.360
276,-0.165,0.365
277,-0.130,0.390
278,0.020,0.475
279,0.245,0.575
280,0.380,0.580
281,0.330,0.405
282,0.160,0.130
283,0.015,-0.035
284,-0.060,0.060
285,-0.095,0.180
286,-0.120,0.255
287,-0.135,0.275
288,-0.130,0.285
289,-0.125,0.265
290,-0.120,0.260
291,-0.110,0.245
292,-0.095,0.220
293,-0.080,0.215
294,-0.070,0.190
295,-0.060,0.210
296,-0.045,0.185
297,-0.025,0.195
298,-0.005,0.175
299,0.000,0.190
300,0.005,0.165
301,0.025,0.200
302,0.045,0.180
303,0.085,0.230
304,0.130,0.220
305,0.185,0.260
306,0.235,0.255
307,0.270,0.285
308,0.285,0.270
309,0.275,0.280
310,0.250,0.265
311,0.220,0.260
312,0.180,0.225
313,0.140,0.190
314,0.095,0.165
315,0.065,0.140
316,0.040,0.120
317,0.020,0.105
318,0.005,0.095
319,0.000,0.085
320,0.000,0.080
321,-0.005,0.065
322,-0.005,0.060
323,-0.005,0.060
324,0.000,0.050
325,0.000,0.055
326,0.005,0.050
327,0.010,0.055
328,0.020,0.050
329,0.025,0.050
330,0.020,0.015
331,0.015,0.020
332,0.000,0.000
333,-0.005,0.000
334,-0.030,0.000
335,-0.055,0.000
336,-0.085,0.000
337,-0.105,0.000
338,-0.125,-0.015
339,-0.135,-0.005
340,-0.135,-0.010
341,-0.135,-0.010
342,-0.135,-0.005
343,-0.150,0.005
344,-0.155,0.040
345,-0.040,0.095
346,0.180,0.180
347,0.370,0.175
348,0.355,0.060
349,0.185,-0.200
350,0.020,-0.380
351,-0.075,-0.330
352,-0.120,-0.180
353,-0.145,-0.105
354,-0.160,-0.045
355,-0.165,-0.035
356,-0.165,-0.020
357,-0.155,-0.025
358,-0.145,-0.020
359,-0.140,-0.015
360,-0.130,-0.010
361,-0.125,0.000
362,-0.115,0.005
363,-0.105,0.010
364,-0.090,0.020
365,-0.080,0.035
366,-0.065,0.035
367,-0.050,0.050
368,-0.025,0.055
369,-0.005,0.070
370,0.015,0.085
371,0.050,0.100
372,0.095,0.125
373,0.140,0.150
374,0.180,0.175
375,0.205,0.175
376,0.210,0.180
377,0.200,0.155
378,0.180,0.150
379,0.150,0.110
380,0.110,0.100
381,0.070,0.045
382,0.035,0.040
383,0.015,0.005
384,0.000,0.005
385,0.000,0.000
386,-0.010,0.000
387,-0.020,0.000
388,-0.025,0.000
389,-0.025,0.000
390,-0.020,0.000
391,-0.005,0.005
392,0.000,0.005
393,0.010,0.010
394,0.015,0.010
395,0.025,0.010
396,0.030,0.000
397,0.020,0.000
398,0.010,-0.005
399,0.000,-0.010
400,-0.010,-0.025
401,-0.030,-0.025
402,-0.050,-0.025
403,-0.080,-0.025
404,-0.105,-0.030
405,-0.120,-0.030
406,-0.130,-0.030
407,-0.130,-0.035
408,-0.125,-0.030
409,-0.130,-0.025
410,-0.150,0.000
411,-0.140,0.025
412,-0.025,0.095
413,0.175,0.155
414,0.335,0.165
415,0.310,0.010
416,0.145,-0.210
417,-0.010,-0.425
418,-0.090,-0.325
419,-0.125,-0.175
420,-0.145,-0.080
421,-0.160,-0.025
422,-0.165,-0.015
423,-0.160,0.000
424,-0.155,0.000
425,-0.145,0.000
426,-0.135,0.000
427,-0.130,0.000
428,-0.115,0.000
429,-0.100,0.005
430,-0.090,0.000
431,-0.075,0.020
432,-0.060,0.005
433,-0.040,0.035
434,-0.025,0.035
435,-0.005,0.070
436,0.005,0.075
437,0.035,0.105
438,0.070,0.125
439,0.115,0.165
440,0.160,0.195
441,0.195,0.220
442,0.220,0.225
443,0.225,0.225
444,0.210,0.210
445,0.180,0.190
446,0.150,0.165
447,0.110,0.135
448,0.070,0.110
449,0.040,0.080
450,0.020,0.070
451,0.005,0.055
452,0.000,0.040
453,-0.010,0.040
454,-0.010,0.040
455,-0.020,0.040
456,-0.020,0.030
457,-0.010,0.045
458,0.000,0.040
459,0.005,0.060
460,0.010,0.050
461,0.015,0.065
462,0.025,0.045
463,0.025,0.055
464,0.020,0.030
465,0.010,0.030
466,0.000,0.005
467,-0.010,0.005
468,-0.030,0.005
469,-0.050,0.005
470,-0.075,0.005
471,-0.100,0.005
472,-0.125,0.005
473,-0.135,0.005
474,-0.140,0.000
475,-0.145,0.000
476,-0.140,0.010
477,-0.155,0.035
478,-0.140,0.080
479,-0.010,0.140
480,0.205,0.215
481,0.330,0.170
482,0.280,0.025
483,0.120,-0.245
484,-0.020,-0.370
485,-0.095,-0.285
486,-0.135,-0.135
487,-0.150,-0.045
488,-0.160,-0.010
489,-0.165,0.000
490,-0.165,0.005
491,-0.165,0.005
492,-0.150,0.005
493,-0.140,0.005
494,-0.135,0.010
495,-0.120,0.015
496,-0.105,0.010
497,-0.085,0.020
498,-0.075,0.030
499,-0.070,0.035
500,-0.065,0.045
501,-0.050,0.050
502,-0.020,0.075
503,0.000,0.090
504,0.015,0.120
505,0.050,0.140
506,0.095,0.185
507,0.140,0.200
508,0.180,0.250
509,0.195,0.240
510,0.200,0.255
511,0.185,0.215
512,0.160,0.220
513,0.115,0.155
514,0.080,0.155
515,0.045,0.105
516,0.020,0.105
517,0.005,0.070
518,0.000,0.070
519,-0.015,0.060
520,-0.025,0.070
521,-0.030,0.065
522,-0.030,0.065
523,-0.040,0.070
524,-0.045,0.070
525,-0.035,0.070
526,-0.020,0.070
527,-0.005,0.075
528,0.000,0.070
529,0.005,0.070
530,0.010,0.055
531,0.000,0.045
532,-0.005,0.025
533,-0.020,0.010
534,-0.035,0.010
535,-0.055,0.010
536,-0.085,0.010
537,-0.115,0.010
538,-0.135,0.015
539,-0.145,0.005
540,-0.150,0.005
541,-0.155,0.000
542,-0.150,0.005
543,-0.150,0.015
544,-0.165,0.060
545,-0.160,0.085
546,-0.065,0.155
547,0.125,0.220
548,0.290,0.225
549,0.275,0.060
550,0.115,-0.140
551,-0.035,-0.375
552,-0.120,-0.280
553,-0.150,-0.105
554,-0.175,-0.025
555,-0.190,0.005
556,-0.195,0.010
557,-0.195,0.040
558,-0.190,0.020
559,-0.180,0.050
560,-0.165,0.035
561,-0.150,0.055
562,-0.135,0.035
563,-0.115,0.055
564,-0.095,0.045
565,-0.085,0.075
566,-0.080,0.060
567,-0.070,0.075
568,-0.055,0.080
569,-0.040,0.100
570,-0.015,0.120
571,0.005,0.140
572,0.040,0.165
573,0.080,0.210
574,0.125,0.245
575,0.165,0.265
576,0.190,0.275
577,0.195,0.270
578,0.185,0.260
579,0.160,0.235
580,0.130,0.205
581,0.090,0.170
582,0.055,0.135
583,0.025,0.120
584,0.005,0.095
585,-0.010,0.085
586,-0.025,0.065
587,-0.035,0.080
588,-0.040,0.060
589,-0.045,0.070
590,-0.045,0.050
591,-0.045,0.070
592,-0.035,0.045
593,-0.025,0.070
594,-0.020,0.045
595,-0.010,0.065
596,0.000,0.045
597,0.005,0.050
598,0.005,0.025
599,0.000,0.020
600,-0.025,0.005
601,-0.040,0.000
602,-0.055,0.000
603,-0.080,0.000
604,-0.105,0.000
605,-0.130,0.000
606,-0.145,0.000
607,-0.155,-0.005
608,-0.160,0.000
609,-0.160,-0.010
610,-0.155,0.000
611,-0.165,0.000
612,-0.180,0.030
613,-0.135,0.070
614,0.015,0.135
615,0.205,0.165
616,0.290,0.085
617,0.215,-0.085
618,0.070,-0.300
619,-0.050,-0.365
620,-0.120,-0.240
621,-0.160,-0.105
622,-0.185,-0.035
623,-0.200,0.000
624,-0.195,0.000
625,-0.180,0.005
626,-0.170,0.005
627,-0.155,0.010
628,-0.145,0.020
629,-0.135,0.025
630,-0.125,0.035
631,-0.120,0.030
632,-0.110,0.040
633,-0.090,0.035
634,-0.075,0.060
635,-0.070,0.055
636,-0.050,0.085
637,-0.025,0.080
638,0.000,0.125
639,0.025,0.130
640,0.065,0.185
641,0.105,0.190
642,0.150,0.255
643,0.180,0.255
644,0.190,0.275
645,0.190,0.250
646,0.170,0.250
647,0.140,0.205
648,0.105,0.175
649,0.070,0.135
650,0.045,0.115
651,0.020,0.085
652,0.000,0.070
653,-0.010,0.060
654,-0.020,0.045
655,-0.030,0.050
656,-0.040,0.045
657,-0.050,0.045
658,-0.055,0.035
659,-0.060,0.030
660,-0.050,0.025
661,-0.035,0.035
662,-0.035,0.035
663,-0.035,0.035
664,-0.030,0.035
665,-0.030,0.020
666,-0.040,0.015
667,-0.050,0.000
668,-0.060,0.000
669,-0.070,-0.005
670,-0.085,0.000
671,-0.105,0.005
672,-0.140,0.015
673,-0.165,0.005
674,-0.180,0.005
675,-0.195,0.005
676,-0.200,0.005
677,-0.200,0.005
678,-0.200,0.020
679,-0.230,0.035
680,-0.240,0.025
681,-0.125,0.100
682,0.120,0.215
683,0.315,0.290
684,0.325,0.140
685,0.190,-0.085
686,0.010,-0.345
687,-0.105,-0.255
688,-0.155,-0.135
689,-0.190,-0.020
690,-0.200,0.000
691,-0.205,0.005
692,-0.205,0.000
693,-0.200,0.020
694,-0.190,0.010
695,-0.185,0.030
696,-0.170,0.025
697,-0.150,0.040
698,-0.125,0.045
699,-0.120,0.060
700,-0.125,0.065
701,-0.110,0.070
702,-0.085,0.080
703,-0.065,0.090
704,-0.045,0.110
705,-0.020,0.125
706,0.000,0.150
707,0.020,0.185
708,0.070,0.220
709,0.120,0.260
710,0.165,0.285
711,0.185,0.310
712,0.185,0.310
713,0.170,0.300
714,0.145,0.255
715,0.115,0.240
716,0.090,0.195
717,0.060,0.180
718,0.020,0.130
719,0.000,0.130
720,-0.025,0.100
721,-0.045,0.110
722,-0.060,0.080
723,-0.065,0.085
724,-0.070,0.065
725,-0.075,0.070
726,-0.080,0.065
727,-0.085,0.070
728,-0.075,0.065
729,-0.060,0.080
730,-0.055,0.075
731,-0.045,0.065
732,-0.035,0.060
733,-0.035,0.045
734,-0.045,0.045
735,-0.050,0.010
736,-0.055,0.015
737,-0.070,0.005
738,-0.095,0.010
739,-0.115,0.000
740,-0.130,0.000
741,-0.145,0.000
742,-0.150,0.000
743,-0.150,-0.010
744,-0.145,-0.005
745,-0.150,0.000
746,-0.175,0.005
747,-0.175,0.005
748,-0.085,0.065
749,0.105,0.170
750,0.290,0.210
751,0.320,0.125
752,0.185,-0.120
753,0.020,-0.355
754,-0.075,-0.350
755,-0.125,-0.200
756,-0.150,-0.100
757,-0.165,-0.055
758,-0.165,-0.040
759,-0.160,-0.040
760,-0.155,-0.025
761,-0.145,-0.035
762,-0.140,-0.025
763,-0.130,-0.035
764,-0.120,-0.020
765,-0.105,-0.050
766,-0.090,-0.020
767,-0.075,-0.050
768,-0.065,-0.025
769,-0.050,-0.040
770,-0.030,-0.010
771,-0.005,-0.020
772,0.010,0.000
773,0.035,0.000
774,0.080,0.030
775,0.130,0.040
776,0.180,0.085
777,0.225,0.095
778,0.250,0.110
779,0.260,0.100
780,0.245,0.090
781,0.220,0.065
782,0.180,0.045
783,0.140,0.025
784,0.100,0.005
785,0.065,0.000
786,0.035,-0.010
787,0.010,-0.015
788,0.000,-0.025
789,-0.010,-0.030
790,-0.015,-0.035
791,-0.025,-0.040
792,-0.030,-0.040
793,-0.025,-0.045
794,-0.020,-0.035
795,-0.010,-0.035
796,-0.005,-0.020
797,0.000,-0.035
798,0.000,-0.020
799,0.015,-0.035
800,0.010,-0.030
801,0.005,-0.060
802,0.000,-0.065
803,-0.010,-0.080
804,-0.030,-0.065
805,-0.055,-0.075
806,-0.080,-0.070
807,-0.110,-0.075
808,-0.130,-0.080
809,-0.140,-0.080
810,-0.145,-0.090
811,-0.145,-0.080
812,-0.145,-0.085
813,-0.155,-0.035
814,-0.170,-0.020
815,-0.105,0.020
816,0.080,0.080
817,0.305,0.145
818,0.370,0.040
819,0.240,-0.130
820,0.060,-0.420
821,-0.055,-0.420
822,-0.115,-0.295
823,-0.150,-0.160
824,-0.170,-0.110
825,-0.185,-0.075
826,-0.185,-0.070
827,-0.175,-0.060
828,-0.165,-0.060
829,-0.150,-0.055
830,-0.145,-0.050
831,-0.135,-0.045
832,-0.125,-0.035
833,-0.110,-0.030
834,-0.100,-0.025
835,-0.085,-0.020
836,-0.070,-0.010
837,-0.055,0.000
838,-0.035,0.000
839,-0.015,0.000
840,0.005,0.015
841,0.035,0.045
842,0.075,0.075
843,0.120,0.120
844,0.160,0.130
845,0.190,0.165
846,0.195,0.150
847,0.190,0.160
848,0.175,0.125
849,0.145,0.115
850,0.110,0.060
851,0.070,0.055
852,0.035,0.005
853,0.010,0.000
854,0.000,0.000
855,-0.005,0.000
856,-0.015,-0.005
857,-0.020,-0.010
858,-0.025,-0.005
859,-0.030,-0.005
860,-0.020,0.000
861,-0.010,0.000
862,0.000,0.000
863,0.000,0.005
864,0.005,0.035
865,0.015,0.045
866,0.020,0.070
867,0.020,0.060
868,0.010,0.055
869,0.000,0.035
870,-0.010,0.040
871,-0.030,0.035
872,-0.050,0.045
873,-0.075,0.050
874,-0.100,0.050
875,-0.120,0.050
876,-0.130,0.045
877,-0.135,0.050
878,-0.130,0.055
879,-0.130,0.075
880,-0.145,0.100
881,-0.150,0.135
882,-0.075,0.190
883,0.110,0.290
884,0.305,0.320
885,0.350,0.225
886,0.210,0.010
887,0.025,-0.225
888,-0.075,-0.215
889,-0.120,-0.055
890,-0.150,0.050
891,-0.165,0.115
892,-0.165,0.155
893,-0.160,0.155
894,-0.155,0.195
895,-0.150,0.190
896,-0.150,0.285
897,-0.140,0.285
898,-0.130,0.325
899,-0.120,0.310
900,-0.110,0.335
901,-0.095,0.300
902,-0.080,0.330
903,-0.065,0.315
904,-0.045,0.335
905,-0.025,0.330
906,-0.005,0.355
907,0.010,0.370
908,0.045,0.390
909,0.085,0.420
910,0.135,0.450
911,0.175,0.485
912,0.205,0.500
913,0.215,0.505
914,0.210,0.480
915,0.185,0.465
916,0.150,0.435
917,0.110,0.405
918,0.070,0.365
919,0.030,0.315
920,0.005,0.280
921,-0.005,0.255
922,-0.015,0.240
923,-0.025,0.230
924,-0.035,0.235
925,-0.045,0.220
926,-0.045,0.235
927,-0.030,0.220
928,-0.015,0.235
929,-0.005,0.220
930,0.000,0.235
931,0.000,0.220
932,0.005,0.225
933,0.015,0.190
934,0.005,0.180
935,0.000,0.155
936,-0.010,0.130
937,-0.030,0.125
938,-0.050,0.125
939,-0.065,0.125
940,-0.085,0.115
941,-0.110,0.110
942,-0.130,0.085
943,-0.145,0.085
944,-0.145,0.065
945,-0.135,0.090
946,-0.135,0.085
947,-0.155,0.125
948,-0.150,0.135
949,-0.040,0.230
950,0.155,0.300
951,0.315,0.315
952,0.300,0.160
953,0.145,-0.080
954,-0.005,-0.280
955,-0.095,-0.225
956,-0.130,-0.080
957,-0.145,0.010
958,-0.160,0.050
959,-0.175,0.070
960,-0.170,0.070
961,-0.155,0.075
962,-0.145,0.090
963,-0.135,0.095
964,-0.125,0.100
965,-0.120,0.110
966,-0.105,0.115
967,-0.095,0.125
968,-0.085,0.125
969,-0.070,0.135
970,-0.050,0.140
971,-0.035,0.165
972,-0.015,0.165
973,0.000,0.205
974,0.025,0.210
975,0.055,0.260
976,0.100,0.275
977,0.145,0.335
978,0.185,0.335
979,0.205,0.370
980,0.205,0.335
981,0.195,0.345
982,0.175,0.295
983,0.140,0.280
984,0.105,0.230
985,0.065,0.205
986,0.030,0.160
987,0.010,0.135
988,0.000,0.115
989,-0.005,0.100
990,-0.015,0.095
991,-0.030,0.085
992,-0.040,0.085
993,-0.045,0.080
994,-0.030,0.090
995,-0.015,0.085
996,0.000,0.100
997,0.000,0.085
998,0.010,0.090
999,0.020,0.080
1000,0.020,0.075
1001,0.010,0.045
1002,0.000,0.025
1003,-0.010,0.015
1004,-0.030,0.005
1005,-0.055,0.005
1006,-0.085,0.005
1007,-0.105,0.010
1008,-0.130,0.010
1009,-0.140,0.010
1010,-0.150,0.005
1011,-0.145,0.010
1012,-0.135,0.010
1013,-0.135,0.030
1014,-0.150,0.065
1015,-0.140,0.105
1016,-0.015,0.180
1017,0.180,0.245
1018,0.315,0.240
1019,0.270,0.050
1020,0.110,-0.165
1021,-0.035,-0.385
1022,-0.115,-0.225
1023,-0.150,-0.100
1024,-0.170,0.000
1025,-0.175,0.000
1026,-0.180,0.050
1027,-0.175,0.025
1028,-0.165,0.070
1029,-0.160,0.040
1030,-0.145,0.080
1031,-0.125,0.060
1032,-0.115,0.080
1033,-0.100,0.080
1034,-0.085,0.100
1035,-0.075,0.095
1036,-0.065,0.105
1037,-0.050,0.110
1038,-0.035,0.135
1039,-0.020,0.160
1040,0.000,0.185
1041,0.020,0.215
1042,0.050,0.245
1043,0.085,0.280
1044,0.135,0.315
1045,0.175,0.340
1046,0.195,0.350
1047,0.195,0.345
1048,0.180,0.325
1049,0.155,0.290
1050,0.120,0.265
1051,0.085,0.230
1052,0.045,0.200
1053,0.020,0.165
1054,0.005,0.155
1055,0.000,0.130
1056,-0.015,0.135
1057,-0.030,0.115
1058,-0.035,0.130
1059,-0.040,0.115
1060,-0.040,0.130
1061,-0.030,0.115
1062,-0.020,0.125
1063,-0.010,0.125
1064,0.000,0.130
1065,0.000,0.125
1066,0.005,0.120
1067,0.005,0.115
1068,0.000,0.085
1069,-0.005,0.085
1070,-0.025,0.040
1071,-0.045,0.050
1072,-0.065,0.035
1073,-0.085,0.050
1074,-0.105,0.040
1075,-0.130,0.060
1076,-0.145,0.025
1077,-0.150,0.035
1078,-0.155,0.015
1079,-0.150,0.025
1080,-0.150,0.040
1081,-0.170,0.075
1082,-0.160,0.100
1083,-0.055,0.175
1084,0.130,0.240
1085,0.280,0.220
1086,0.270,0.080
1087,0.135,-0.170
1088,-0.005,-0.340
1089,-0.095,-0.270
1090,-0.140,-0.125
1091,-0.155,-0.035
1092,-0.165,0.000
1093,-0.165,0.005
1094,-0.160,0.010
1095,-0.155,0.015
1096,-0.145,0.015
1097,-0.135,0.020
1098,-0.135,0.015
1099,-0.130,0.035
1100,-0.120,0.025
1101,-0.115,0.045
1102,-0.100,0.030
1103,-0.085,0.060
1104,-0.075,0.050
1105,-0.060,0.085
1106,-0.040,0.075
1107,-0.020,0.120
1108,0.000,0.125
1109,0.035,0.185
1110,0.080,0.200
1111,0.125,0.260
1112,0.160,0.265
1113,0.175,0.300
1114,0.165,0.280
1115,0.145,0.270
1116,0.135,0.240
1117,0.110,0.205
1118,0.065,0.165
1119,0.020,0.130
1120,0.000,0.100
1121,-0.015,0.070
1122,-0.040,0.065
1123,-0.060,0.040
1124,-0.065,0.040
1125,-0.070,0.025
1126,-0.065,0.035
1127,-0.065,0.020
1128,-0.065,0.020
1129,-0.070,0.015
1130,-0.060,0.020
1131,-0.055,0.020
1132,-0.040,0.025
1133,-0.030,0.025
1134,-0.015,0.015
1135,-0.005,0.020
1136,-0.005,0.005
1137,-0.010,0.000
1138,-0.025,0.000
1139,-0.045,0.000
1140,-0.070,0.000
1141,-0.090,0.000
1142,-0.105,-0.005
1143,-0.125,-0.010
1144,-0.140,-0.010
1145,-0.145,-0.010
1146,-0.145,-0.010
1147,-0.150,-0.015
1148,-0.175,0.000
1149,-0.210,0.000
1150,-0.190,0.005
1151,-0.030,0.095
1152,0.215,0.275
1153,0.380,0.285
1154,0.340,0.150
1155,0.170,-0.215
1156,0.015,-0.355
1157,-0.075,-0.260
1158,-0.120,-0.110
1159,-0.155,-0.055
1160,-0.180,-0.005
1161,-0.185,0.000
1162,-0.175,0.000
1163,-0.160,0.000
1164,-0.150,0.000
1165,-0.145,0.005
1166,-0.135,0.005
1167,-0.120,0.010
1168,-0.115,0.010
1169,-0.115,0.020
1170,-0.105,0.025
1171,-0.075,0.030
1172,-0.055,0.040
1173,-0.040,0.060
1174,-0.025,0.070
1175,0.000,0.095
1176,0.025,0.120
1177,0.065,0.145
1178,0.115,0.190
1179,0.160,0.215
1180,0.190,0.245
1181,0.205,0.240
1182,0.205,0.250
1183,0.195,0.220
1184,0.170,0.205
1185,0.125,0.150
1186,0.085,0.135
1187,0.055,0.090
1188,0.030,0.080
1189,0.010,0.040
1190,0.000,0.040
1191,-0.015,0.010
1192,-0.025,0.005
1193,-0.035,0.005
1194,-0.045,0.005
1195,-0.045,0.005
1196,-0.045,0.005
1197,-0.035,0.005
1198,-0.025,0.000
1199,-0.015,0.000
1200,-0.010,0.000
1201,0.000,0.000
1202,0.005,0.000
1203,0.010,0.000
1204,0.010,-0.030
1205,0.005,-0.025
1206,0.000,-0.055
1207,-0.010,-0.050
1208,-0.025,-0.065
1209,-0.050,-0.065
1210,-0.075,-0.080
1211,-0.095,-0.080
1212,-0.110,-0.095
1213,-0.115,-0.105
1214,-0.115,-0.110
1215,-0.110,-0.105
1216,-0.115,-0.080
1217,-0.120,-0.045
1218,-0.075,-0.005
1219,0.070,0.050
1220,0.265,0.090
1221,0.355,0.020
1222,0.265,-0.165
1223,0.090,-0.410
1224,-0.035,-0.520
1225,-0.095,-0.380
1226,-0.120,-0.240
1227,-0.135,-0.140
1228,-0.145,-0.120
1229,-0.145,-0.090
1230,-0.140,-0.105
1231,-0.135,-0.070
1232,-0.130,-0.095
1233,-0.120,-0.060
1234,-0.115,-0.075
1235,-0.100,-0.045
1236,-0.090,-0.065
1237,-0.080,-0.025
1238,-0.080,-0.055
1239,-0.065,-0.010
1240,-0.045,-0.020
1241,-0.025,-0.010
1242,-0.005,-0.005
1243,0.010,0.005
1244,0.040,0.010
1245,0.080,0.040
1246,0.125,0.080
1247,0.170,0.105
1248,0.205,0.130
1249,0.225,0.125
1250,0.230,0.130
1251,0.210,0.110
1252,0.180,0.095
1253,0.145,0.060
1254,0.110,0.035
1255,0.070,0.010
1256,0.040,0.000
1257,0.015,-0.015
1258,0.000,-0.015
1259,0.000,-0.020
1260,-0.010,-0.025
1261,-0.015,-0.025
1262,-0.020,-0.030
1263,-0.020,-0.025
1264,-0.010,-0.030
1265,0.000,-0.015
1266,0.000,-0.015
1267,0.005,-0.005
1268,0.015,-0.015
1269,0.025,-0.010
1270,0.030,-0.025
1271,0.025,-0.030
1272,0.015,-0.045
1273,0.010,-0.070
1274,0.000,-0.075
1275,-0.010,-0.085
1276,-0.035,-0.080
1277,-0.060,-0.085
1278,-0.090,-0.080
1279,-0.115,-0.105
1280,-0.125,-0.090
1281,-0.125,-0.110
1282,-0.125,-0.090
1283,-0.125,-0.110
1284,-0.140,-0.050
1285,-0.150,-0.035
1286,-0.070,0.030
1287,0.130,0.100
1288,0.335,0.160
1289,0.355,0.040
1290,0.205,-0.175
1291,0.035,-0.450
1292,-0.065,-0.435
1293,-0.110,-0.290
1294,-0.140,-0.170
1295,-0.155,-0.115
1296,-0.160,-0.085
1297,-0.155,-0.075
1298,-0.145,-0.065
1299,-0.140,-0.055
1300,-0.130,-0.050
1301,-0.125,-0.035
1302,-0.120,-0.025
1303,-0.110,-0.015
1304,-0.095,-0.010
1305,-0.080,-0.010
1306,-0.065,-0.005
1307,-0.045,-0.005
1308,-0.030,0.000
1309,-0.015,0.000
1310,0.005,0.010
1311,0.025,0.015
1312,0.060,0.050
1313,0.105,0.060
1314,0.150,0.115
1315,0.195,0.130
1316,0.220,0.160
1317,0.235,0.150
1318,0.225,0.160
1319,0.200,0.115
1320,0.170,0.110
1321,0.130,0.060
1322,0.085,0.040
1323,0.055,0.010
1324,0.030,0.000
1325,0.015,-0.005
1326,0.000,-0.015
1327,-0.005,-0.010
1328,-0.015,-0.030
1329,-0.015,-0.015
1330,-0.015,-0.030
1331,-0.010,-0.005
1332,0.000,-0.015
1333,0.000,-0.005
1334,0.010,-0.005
1335,0.015,0.000
1336,0.020,-0.010
1337,0.030,-0.005
1338,0.035,-0.015
1339,0.030,-0.020
1340,0.020,-0.040
1341,0.010,-0.050
1342,0.000,-0.055
1343,-0.015,-0.055
1344,-0.045,-0.055
1345,-0.070,-0.055
1346,-0.095,-0.050
1347,-0.110,-0.060
1348,-0.120,-0.060
1349,-0.125,-0.070
1350,-0.120,-0.065
1351,-0.120,-0.050
1352,-0.130,-0.015
1353,-0.120,0.010
1354,0.000,0.075
1355,0.200,0.165
1356,0.355,0.155
1357,0.320,0.015
1358,0.150,-0.240
1359,0.000,-0.465
1360,-0.085,-0.375
1361,-0.120,-0.190
1362,-0.145,-0.115
1363,-0.150,-0.050
1364,-0.155,-0.060
1365,-0.150,-0.020
1366,-0.145,-0.035
1367,-0.140,0.000
1368,-0.130,-0.015
1369,-0.120,0.000
1370,-0.105,0.000
1371,-0.090,0.000
1372,-0.075,0.000
1373,-0.065,0.000
1374,-0.055,0.005
1375,-0.040,0.005
1376,-0.025,0.025
1377,-0.010,0.040
1378,0.005,0.055
1379,0.035,0.075
1380,0.075,0.110
1381,0.120,0.135
1382,0.165,0.175
1383,0.200,0.200
1384,0.220,0.220
1385,0.220,0.215
1386,0.205,0.200
1387,0.185,0.175
1388,0.150,0.140
1389,0.105,0.115
1390,0.070,0.085
1391,0.040,0.060
1392,0.015,0.030
1393,0.000,0.020
1394,0.000,0.005
1395,0.000,0.015
1396,-0.010,0.005
1397,-0.020,0.005
1398,-0.020,0.005
1399,-0.015,0.005
1400,-0.010,0.005
1401,0.000,0.010
1402,0.000,0.010
1403,0.005,0.010
1404,0.015,0.015
1405,0.025,0.010
1406,0.020,0.005
1407,0.005,0.000
1408,0.005,-0.005
1409,0.000,-0.030
1410,-0.015,-0.010
1411,-0.040,-0.035
1412,-0.075,-0.005
1413,-0.105,-0.035
1414,-0.125,-0.005
1415,-0.130,-0.030
1416,-0.135,-0.020
1417,-0.140,-0.035
1418,-0.140,-0.015
1419,-0.140,0.000
1420,-0.155,0.010
1421,-0.110,0.050
1422,0.050,0.140
1423,0.250,0.200
1424,0.325,0.120
1425,0.225,-0.055
1426,0.065,-0.330
1427,-0.050,-0.420
1428,-0.115,-0.285
1429,-0.145,-0.145
1430,-0.165,-0.075
1431,-0.175,-0.035
1432,-0.180,-0.020
1433,-0.170,-0.010
1434,-0.160,0.000
1435,-0.145,-0.005
1436,-0.130,0.000
1437,-0.120,0.000
1438,-0.115,0.000
1439,-0.105,0.000
1440,-0.090,0.005
1441,-0.075,0.005
1442,-0.065,0.025
1443,-0.055,0.015
1444,-0.035,0.050
1445,-0.020,0.045
1446,0.000,0.090
1447,0.030,0.095
1448,0.070,0.145
1449,0.120,0.170
1450,0.160,0.215
1451,0.185,0.220
1452,0.195,0.230
1453,0.200,0.225
1454,0.185,0.210
1455,0.150,0.185
1456,0.115,0.140
1457,0.085,0.115
1458,0.045,0.080
1459,0.020,0.065
1460,0.005,0.025
1461,0.000,0.030
1462,-0.005,0.010
1463,-0.010,0.020
1464,-0.020,0.005
1465,-0.030,0.020
1466,-0.035,0.010
1467,-0.030,0.015
1468,-0.020,0.015
1469,-0.010,0.025
1470,0.000,0.030
1471,0.005,0.030
1472,0.010,0.030
1473,0.010,0.015
1474,0.020,0.010
1475,0.010,0.000
1476,0.000,0.000
1477,-0.010,-0.005
1478,-0.030,-0.005
1479,-0.060,-0.010
1480,-0.085,-0.005
1481,-0.115,0.000
1482,-0.135,-0.005
1483,-0.145,-0.005
1484,-0.150,-0.015
1485,-0.145,0.000
1486,-0.140,-0.015
1487,-0.140,0.005
1488,-0.155,0.015
1489,-0.105,0.090
1490,0.050,0.150
1491,0.255,0.240
1492,0.330,0.125
1493,0.215,-0.035
1494,0.045,-0.380
1495,-0.070,-0.400
1496,-0.125,-0.255
1497,-0.150,-0.110
1498,-0.160,-0.060
1499,-0.170,-0.015
1500,-0.175,-0.015
1501,-0.175,0.000
1502,-0.160,0.000
1503,-0.140,0.000
1504,-0.125,0.005
1505,-0.110,0.005
1506,-0.100,0.005
1507,-0.095,0.005
1508,-0.085,0.010
1509,-0.075,0.010
1510,-0.060,0.030
1511,-0.050,0.035
1512,-0.035,0.050
1513,-0.010,0.065
1514,0.010,0.090
1515,0.040,0.120
1516,0.080,0.150
1517,0.125,0.190
1518,0.165,0.225
1519,0.195,0.250
1520,0.210,0.240
1521,0.200,0.240
1522,0.185,0.205
1523,0.155,0.185
1524,0.110,0.135
1525,0.070,0.110
1526,0.040,0.070
1527,0.025,0.055
1528,0.005,0.030
1529,0.000,0.015
1530,-0.010,0.005
1531,-0.020,0.005
1532,-0.030,0.005
1533,-0.035,0.005
1534,-0.040,0.010
1535,-0.040,0.005
1536,-0.040,0.005
1537,-0.025,0.000
1538,-0.015,0.005
1539,-0.005,0.000
1540,0.000,0.005
1541,0.010,0.000
1542,0.015,0.000
1543,0.010,-0.020
1544,0.000,-0.015
1545,-0.015,-0.050
1546,-0.035,-0.035
1547,-0.060,-0.050
1548,-0.095,-0.035
1549,-0.120,-0.045
1550,-0.140,-0.040
1551,-0.150,-0.055
1552,-0.165,-0.055
1553,-0.175,-0.055
1554,-0.170,-0.050
1555,-0.180,-0.030
1556,-0.200,-0.010
1557,-0.170,0.015
1558,-0.020,0.090
1559,0.180,0.170
1560,0.305,0.135
1561,0.265,-0.030
1562,0.110,-0.275
1563,-0.040,-0.445
1564,-0.125,-0.330
1565,-0.170,-0.190
1566,-0.190,-0.105
1567,-0.200,-0.075
1568,-0.200,-0.045
1569,-0.205,-0.050
1570,-0.205,-0.025
1571,-0.195,-0.035
1572,-0.175,-0.015
1573,-0.150,-0.030
1574,-0.135,-0.010
1575,-0.130,-0.020
1576,-0.125,0.000
1577,-0.115,0.000
1578,-0.095,0.005
1579,-0.080,0.005
1580,-0.060,0.015
1581,-0.040,0.025
1582,-0.010,0.045
1583,0.015,0.085
1584,0.055,0.115
1585,0.090,0.165
1586,0.145,0.195
1587,0.185,0.240
1588,0.200,0.235
1589,0.200,0.235
1590,0.190,0.195
1591,0.165,0.190
1592,0.125,0.145
1593,0.080,0.115
1594,0.040,0.070
1595,0.015,0.050
1596,0.000,0.025
1597,-0.010,0.010
1598,-0.035,0.005
1599,-0.050,0.000
1600,-0.055,0.000
1601,-0.065,0.000
1602,-0.075,0.000
1603,-0.070,0.000
1604,-0.050,0.000
1605,-0.035,0.000
1606,-0.035,0.000
1607,-0.035,0.000
1608,-0.035,0.000
1609,-0.025,0.000
1610,-0.010,0.000
1611,-0.005,0.000
1612,0.000,-0.015
1613,-0.005,-0.010
1614,-0.035,-0.025
1615,-0.060,-0.020
1616,-0.080,-0.045
1617,-0.110,-0.020
1618,-0.130,-0.055
1619,-0.140,-0.030
1620,-0.145,-0.060
1621,-0.145,-0.035
1622,-0.145,-0.065
1623,-0.150,-0.020
1624,-0.185,-0.040
1625,-0.185,0.000
1626,-0.040,0.065
1627,0.200,0.215
1628,0.375,0.250
1629,0.345,0.130
1630,0.175,-0.200
1631,0.020,-0.380
1632,-0.075,-0.290
1633,-0.120,-0.160
1634,-0.150,-0.085
1635,-0.165,-0.060
1636,-0.165,-0.050
1637,-0.160,-0.050
1638,-0.150,-0.035
1639,-0.140,-0.040
1640,-0.130,-0.035
1641,-0.120,-0.035
1642,-0.110,-0.035
1643,-0.100,-0.035
1644,-0.090,-0.035
1645,-0.080,-0.030
1646,-0.065,-0.030
1647,-0.045,-0.020
1648,-0.025,-0.025
1649,0.000,-0.005
1650,0.020,-0.005
1651,0.055,0.005
1652,0.105,0.020
1653,0.160,0.065
1654,0.215,0.080
1655,0.255,0.105
1656,0.280,0.105
1657,0.275,0.105
1658,0.255,0.090
1659,0.220,0.055
1660,0.180,0.030
1661,0.140,0.000
1662,0.095,-0.005
1663,0.055,-0.040
1664,0.035,-0.040
1665,0.020,-0.075
1666,0.005,-0.065
1667,0.000,-0.095
1668,0.000,-0.075
1669,-0.005,-0.100
1670,-0.010,-0.070
1671,-0.010,-0.100
1672,-0.010,-0.085
1673,0.000,-0.100
1674,0.000,-0.075
1675,0.000,-0.090
1676,0.005,-0.075
1677,0.010,-0.080
1678,0.015,-0.075
1679,0.015,-0.090
1680,0.005,-0.105
1681,0.000,-0.115
1682,-0.015,-0.115
1683,-0.040,-0.115
1684,-0.070,-0.110
1685,-0.095,-0.110
1686,-0.115,-0.110
1687,-0.130,-0.115
1688,-0.140,-0.120
1689,-0.145,-0.120
1690,-0.140,-0.115
1691,-0.145,-0.100
1692,-0.160,-0.065
1693,-0.150,-0.035
1694,-0.030,0.025
1695,0.185,0.095
1696,0.365,0.130
1697,0.355,-0.010
1698,0.175,-0.245
1699,0.000,-0.500
1700,-0.095,-0.395
1701,-0.135,-0.255
1702,-0.155,-0.145
1703,-0.175,-0.120
1704,-0.185,-0.085
1705,-0.180,-0.100
1706,-0.170,-0.070
1707,-0.160,-0.070
1708,-0.150,-0.060
1709,-0.140,-0.060
1710,-0.130,-0.055
1711,-0.120,-0.045
1712,-0.110,-0.040
1713,-0.095,-0.025
1714,-0.085,-0.030
1715,-0.065,-0.010
1716,-0.045,-0.015
1717,-0.025,0.000
1718,-0.005,0.000
1719,0.015,0.030
1720,0.050,0.045
1721,0.090,0.090
1722,0.135,0.110
1723,0.175,0.145
1724,0.195,0.145
1725,0.200,0.145
1726,0.190,0.130
1727,0.165,0.110
1728,0.135,0.085
1729,0.095,0.050
1730,0.060,0.025
1731,0.030,0.000
1732,0.010,0.000
1733,0.000,-0.010
1734,-0.010,-0.015
1735,-0.020,-0.020
1736,-0.025,-0.020
1737,-0.025,-0.025
1738,-0.025,-0.020
1739,-0.020,-0.010
1740,-0.015,-0.015
1741,-0.005,0.000
1742,0.000,0.000
1743,0.000,0.000
1744,0.010,-0.005
1745,0.020,0.000
1746,0.020,-0.020
1747,0.015,0.000
1748,0.010,-0.055
1749,0.000,-0.040
1750,-0.010,-0.075
1751,-0.030,-0.050
1752,-0.055,-0.070
1753,-0.080,-0.050
1754,-0.105,-0.075
1755,-0.125,-0.065
1756,-0.130,-0.085
1757,-0.135,-0.070
1758,-0.130,-0.080
1759,-0.135,-0.050
1760,-0.155,-0.020
1761,-0.135,0.000
1762,-0.005,0.070
1763,0.210,0.150
1764,0.360,0.140
1765,0.315,0.000
1766,0.145,-0.280
1767,-0.005,-0.450
1768,-0.085,-0.365
1769,-0.125,-0.215
1770,-0.145,-0.125
1771,-0.155,-0.090
1772,-0.160,-0.065
1773,-0.155,-0.050
1774,-0.150,-0.045
1775,-0.140,-0.030
1776,-0.130,-0.035
1777,-0.120,-0.020
1778,-0.110,-0.020
1779,-0.095,-0.005
1780,-0.080,-0.015
1781,-0.065,0.000
1782,-0.055,0.000
1783,-0.040,0.000
1784,-0.020,0.000
1785,-0.005,0.020
1786,0.010,0.020
1787,0.035,0.055
1788,0.075,0.080
1789,0.125,0.115
1790,0.175,0.155
1791,0.210,0.175
1792,0.235,0.200
1793,0.235,0.175
1794,0.220,0.175
1795,0.190,0.130
1796,0.155,0.130
1797,0.115,0.080
1798,0.075,0.065
1799,0.040,0.010
1800,0.020,0.010
1801,0.005,0.000
1802,0.000,0.000
1803,-0.005,-0.005
1804,-0.010,0.000
1805,-0.010,0.000
1806,-0.010,0.000
1807,-0.010,0.000
1808,0.000,0.000
1809,0.005,0.000
1810,0.010,0.000
1811,0.015,0.005
1812,0.015,0.005
1813,0.020,0.000
1814,0.025,0.000
1815,0.025,-0.005
1816,0.020,-0.025
1817,0.005,-0.040
1818,0.000,-0.045
1819,-0.015,-0.045
1820,-0.045,-0.035
1821,-0.070,-0.045
1822,-0.095,-0.045
1823,-0.110,-0.060
1824,-0.120,-0.050
1825,-0.125,-0.065
1826,-0.120,-0.055
1827,-0.115,-0.060
1828,-0.130,0.000
1829,-0.135,0.005
1830,-0.045,0.070
1831,0.160,0.140
1832,0.355,0.195
1833,0.355,0.035
1834,0.185,-0.180
1835,0.010,-0.500
1836,-0.075,-0.405
1837,-0.110,-0.235
1838,-0.130,-0.120
1839,-0.145,-0.070
1840,-0.150,-0.040
1841,-0.150,-0.025
1842,-0.145,-0.025
1843,-0.135,-0.005
1844,-0.130,-0.010
1845,-0.120,0.000
1846,-0.105,-0.010
1847,-0.090,-0.005
1848,-0.075,0.000
1849,-0.065,0.000
1850,-0.055,0.000
1851,-0.045,0.020
1852,-0.030,0.020
1853,-0.010,0.040
1854,0.010,0.055
1855,0.035,0.080
1856,0.070,0.110
1857,0.115,0.145
1858,0.165,0.185
1859,0.205,0.215
1860,0.225,0.245
1861,0.230,0.240
1862,0.220,0.230
1863,0.195,0.200
1864,0.165,0.170
1865,0.130,0.140
1866,0.085,0.115
1867,0.050,0.085
1868,0.030,0.065
1869,0.015,0.050
1870,0.000,0.030
1871,-0.005,0.040
1872,-0.015,0.030
1873,-0.025,0.040
1874,-0.030,0.020
1875,-0.025,0.045
1876,-0.015,0.025
1877,0.000,0.055
1878,0.000,0.040
1879,0.000,0.075
1880,0.005,0.040
1881,0.015,0.070
1882,0.020,0.035
1883,0.020,0.040
1884,0.005,0.015
1885,-0.005,0.010
1886,-0.020,0.000
1887,-0.035,0.000
1888,-0.055,0.005
1889,-0.075,0.005
1890,-0.100,0.005
1891,-0.125,0.005
1892,-0.140,0.005
1893,-0.145,0.005
1894,-0.140,0.005
1895,-0.140,0.010
1896,-0.155,0.055
1897,-0.160,0.090
1898,-0.080,0.155
1899,0.100,0.235
1900,0.280,0.265
1901,0.305,0.160
1902,0.175,-0.075
1903,0.015,-0.300
1904,-0.080,-0.330
1905,-0.125,-0.165
1906,-0.145,-0.070
1907,-0.160,0.000
1908,-0.175,0.005
1909,-0.175,0.020
1910,-0.170,0.015
1911,-0.160,0.040
1912,-0.150,0.045
1913,-0.135,0.050
1914,-0.125,0.045
1915,-0.110,0.060
1916,-0.090,0.060
1917,-0.070,0.060
1918,-0.055,0.065
1919,-0.045,0.065
1920,-0.035,0.090
1921,-0.020,0.085
1922,0.000,0.110
1923,0.010,0.115
1924,0.045,0.160
1925,0.085,0.165
1926,0.135,0.230
1927,0.180,0.240
1928,0.210,0.270
1929,0.215,0.260
1930,0.210,0.255
1931,0.180,0.220
1932,0.145,0.210
1933,0.115,0.155
1934,0.075,0.125
1935,0.045,0.090
1936,0.015,0.075
1937,0.000,0.055
1938,-0.005,0.040
1939,-0.020,0.030
1940,-0.025,0.025
1941,-0.030,0.025
1942,-0.030,0.020
1943,-0.030,0.020
1944,-0.025,0.020
1945,-0.015,0.015
1946,-0.005,0.015
1947,0.000,0.020
1948,0.000,0.025
1949,0.005,0.015
1950,0.015,0.025
1951,0.015,0.000
1952,0.010,0.000
1953,0.005,0.000
1954,0.000,-0.005
1955,-0.020,-0.025
1956,-0.050,-0.010
1957,-0.080,-0.030
1958,-0.110,0.000
1959,-0.130,-0.030
1960,-0.135,-0.020
1961,-0.140,-0.050
1962,-0.135,-0.025
1963,-0.130,-0.050
1964,-0.130,-0.015
1965,-0.155,0.000
1966,-0.145,0.020
1967,-0.015,0.100
1968,0.190,0.180
1969,0.330,0.175
1970,0.285,0.015
1971,0.130,-0.260
1972,-0.010,-0.455
1973,-0.085,-0.350
1974,-0.130,-0.205
1975,-0.150,-0.095
1976,-0.170,-0.060
1977,-0.175,-0.030
1978,-0.170,-0.020
1979,-0.160,-0.010
1980,-0.150,-0.010
1981,-0.140,-0.010
1982,-0.120,0.000
1983,-0.105,0.000
1984,-0.095,0.000
1985,-0.085,0.000
1986,-0.075,0.000
1987,-0.060,0.005
1988,-0.040,0.015
1989,-0.025,0.020
1990,-0.010,0.045
1991,0.005,0.055
1992,0.025,0.085
1993,0.060,0.115
1994,0.105,0.150
1995,0.145,0.190
1996,0.185,0.215
1997,0.210,0.230
1998,0.220,0.220
1999,0.210,0.210
2000,0.180,0.170
2001,0.150,0.155
2002,0.110,0.100
2003,0.070,0.085
2004,0.040,0.030
2005,0.015,0.025
2006,0.000,0.000
2007,-0.005,0.000
2008,-0.015,0.000
2009,-0.030,0.000
2010,-0.035,0.000
2011,-0.040,0.000
2012,-0.045,0.000
2013,-0.050,0.000
2014,-0.055,0.000
2015,-0.050,0.000
2016,-0.040,0.000
2017,-0.025,0.000
2018,-0.020,0.000
2019,-0.015,0.000
2020,-0.010,-0.010
2021,-0.010,-0.025
2022,-0.015,-0.035
2023,-0.035,-0.055
2024,-0.060,-0.060
2025,-0.085,-0.065
2026,-0.105,-0.055
2027,-0.120,-0.060
2028,-0.140,-0.060
2029,-0.150,-0.065
2030,-0.155,-0.070
2031,-0.155,-0.065
2032,-0.165,-0.065
2033,-0.180,-0.040
2034,-0.190,-0.045
2035,-0.145,-0.005
2036,0.000,0.070
2037,0.230,0.210
2038,0.375,0.220
2039,0.330,0.055
2040,0.165,-0.255
2041,0.000,-0.435
2042,-0.090,-0.320
2043,-0.135,-0.165
2044,-0.170,-0.105
2045,-0.185,-0.065
2046,-0.180,-0.050
2047,-0.160,-0.045
2048,-0.160,-0.030
2049,-0.160,-0.035
2050,-0.145,-0.020
2051,-0.135,-0.025
2052,-0.130,-0.010
2053,-0.120,-0.020
2054,-0.105,0.000
2055,-0.105,-0.005
2056,-0.085,0.000
2057,-0.060,0.000
2058,-0.035,0.015
2059,-0.010,0.005
2060,0.000,0.045
2061,0.015,0.070
2062,0.060,0.110
2063,0.120,0.135
2064,0.175,0.185
2065,0.215,0.205
2066,0.225,0.220
2067,0.215,0.215
2068,0.195,0.195
2069,0.170,0.165
2070,0.145,0.130
2071,0.115,0.105
2072,0.070,0.070
2073,0.030,0.035
2074,0.005,0.015
2075,0.000,0.005
2076,-0.015,0.000
2077,-0.025,0.000
2078,-0.040,-0.005
2079,-0.045,-0.020
2080,-0.040,-0.020
2081,-0.040,-0.055
2082,-0.040,-0.040
2083,-0.040,-0.060
2084,-0.035,-0.025
2085,-0.030,-0.035
2086,-0.025,-0.005
2087,-0.015,-0.035
2088,0.000,0.000
2089,0.005,-0.045
2090,0.000,-0.030
2091,0.000,-0.065
2092,0.000,-0.065
2093,-0.010,-0.065
2094,-0.035,-0.070
2095,-0.055,-0.070
2096,-0.070,-0.075
2097,-0.085,-0.090
2098,-0.095,-0.100
2099,-0.100,-0.100
2100,-0.100,-0.100
2101,-0.100,-0.090
2102,-0.115,-0.085
2103,-0.125,-0.045
2104,-0.035,-0.005
2105,0.155,0.090
2106,0.355,0.130
2107,0.375,0.055
2108,0.230,-0.190
2109,0.050,-0.445
2110,-0.045,-0.470
2111,-0.085,-0.325
2112,-0.105,-0.205
2113,-0.115,-0.155
2114,-0.125,-0.130
2115,-0.120,-0.130
2116,-0.110,-0.125
2117,-0.100,-0.130
2118,-0.090,-0.130
2119,-0.085,-0.130
2120,-0.075,-0.125
2121,-0.060,-0.130
2122,-0.045,-0.125
2123,-0.035,-0.125
2124,-0.025,-0.120
2125,-0.010,-0.110
2126,0.000,-0.105
2127,0.005,-0.100
2128,0.030,-0.095
2129,0.055,-0.055
2130,0.095,-0.045
2131,0.140,0.000
2132,0.195,0.005
2133,0.245,0.050
2134,0.275,0.045
2135,0.285,0.080
2136,0.275,0.040
2137,0.240,0.055
2138,0.200,0.010
2139,0.160,0.000
2140,0.115,-0.020
2141,0.080,-0.020
2142,0.045,-0.050
2143,0.020,-0.060
2144,0.005,-0.075
2145,0.000,-0.075
2146,-0.005,-0.080
2147,-0.010,-0.075
2148,-0.015,-0.075
2149,-0.020,-0.075
2150,-0.015,-0.065
2151,-0.010,-0.065
2152,0.000,-0.060
2153,0.000,-0.060
2154,0.000,-0.050
2155,0.005,-0.050
2156,0.015,-0.050
2157,0.025,-0.055
2158,0.020,-0.070
2159,0.015,-0.080
2160,0.005,-0.100
2161,-0.005,-0.095
2162,-0.025,-0.100
2163,-0.055,-0.085
2164,-0.080,-0.105
2165,-0.100,-0.095
2166,-0.115,-0.105
2167,-0.130,-0.095
2168,-0.130,-0.115
2169,-0.130,-0.100
2170,-0.130,-0.095
2171,-0.150,-0.040
2172,-0.135,-0.015
2173,-0.020,0.050
2174,0.205,0.135
2175,0.395,0.145
2176,0.375,0.015
2177,0.180,-0.260
2178,0.005,-0.500
2179,-0.085,-0.410
2180,-0.130,-0.245
2181,-0.150,-0.155
2182,-0.165,-0.095
2183,-0.170,-0.090
2184,-0.170,-0.065
2185,-0.160,-0.075
2186,-0.150,-0.045
2187,-0.140,-0.055
2188,-0.130,-0.035
2189,-0.120,-0.035
2190,-0.105,-0.020
2191,-0.095,-0.025
2192,-0.085,-0.010
2193,-0.075,-0.010
2194,-0.060,-0.005
2195,-0.040,0.000
2196,-0.015,0.005
2197,0.000,0.015
2198,0.025,0.030
2199,0.060,0.060
2200,0.105,0.095
2201,0.150,0.125
2202,0.190,0.150
2203,0.215,0.165
2204,0.225,0.165
2205,0.210,0.150
2206,0.190,0.135
2207,0.160,0.095
2208,0.125,0.075
2209,0.085,0.030
2210,0.045,0.020
2211,0.025,0.000
2212,0.005,0.000
2213,0.000,-0.020
2214,-0.010,0.000
2215,-0.020,-0.030
2216,-0.025,0.000
2217,-0.025,-0.025
2218,-0.020,0.000
2219,-0.020,-0.020
2220,-0.010,-0.005
2221,0.000,-0.015
2222,0.000,0.000
2223,0.010,0.000
2224,0.015,-0.005
2225,0.020,-0.010
2226,0.025,-0.020
2227,0.020,-0.030
2228,0.005,-0.060
2229,0.000,-0.065
2230,-0.015,-0.065
2231,-0.040,-0.060
2232,-0.070,-0.070
2233,-0.095,-0.065
2234,-0.110,-0.080
2235,-0.125,-0.075
2236,-0.130,-0.085
2237,-0.125,-0.080
2238,-0.120,-0.075
2239,-0.130,-0.045
2240,-0.140,-0.005
2241,-0.075,0.035
2242,0.095,0.115
2243,0.295,0.170
2244,0.360,0.110
2245,0.240,-0.115
2246,0.065,-0.375
2247,-0.050,-0.460
2248,-0.100,-0.295
2249,-0.125,-0.170
2250,-0.140,-0.095
2251,-0.150,-0.070
2252,-0.150,-0.050
2253,-0.145,-0.030
2254,-0.135,-0.030
2255,-0.125,-0.015
2256,-0.115,-0.015
2257,-0.105,0.000
2258,-0.090,-0.015
2259,-0.075,0.000
2260,-0.065,-0.005
2261,-0.055,0.000
2262,-0.050,0.000
2263,-0.030,0.010
2264,-0.010,0.005
2265,0.000,0.040
2266,0.025,0.040
2267,0.060,0.085
2268,0.105,0.100
2269,0.155,0.150
2270,0.200,0.170
2271,0.225,0.205
2272,0.240,0.205
2273,0.230,0.205
2274,0.210,0.180
2275,0.180,0.155
2276,0.150,0.130
2277,0.110,0.095
2278,0.070,0.060
2279,0.040,0.035
2280,0.025,0.020
2281,0.010,0.005
2282,0.000,0.000
2283,-0.005,0.000
2284,-0.015,0.000
2285,-0.020,0.000
2286,-0.020,0.000
2287,-0.015,0.005
2288,-0.005,0.000
2289,0.000,0.005
2290,0.000,0.005
2291,0.010,0.010
2292,0.020,0.000
2293,0.025,0.010
2294,0.025,0.000
2295,0.020,0.000
2296,0.015,-0.015
2297,0.010,-0.015
2298,0.000,-0.040
2299,-0.020,-0.025
2300,-0.045,-0.035
2301,-0.070,-0.025
2302,-0.095,-0.030
2303,-0.110,-0.035
2304,-0.115,-0.040
2305,-0.115,-0.045
2306,-0.120,-0.045
2307,-0.120,-0.040
2308,-0.130,0.000
2309,-0.135,0.005
2310,-0.050,0.090
2311,0.140,0.155
2312,0.330,0.210
2313,0.340,0.070
2314,0.190,-0.145
2315,0.030,-0.430
2316,-0.070,-0.400
2317,-0.120,-0.255
2318,-0.145,-0.125
2319,-0.155,-0.075
2320,-0.160,-0.035
2321,-0.155,-0.025
2322,-0.145,-0.010
2323,-0.140,-0.010
2324,-0.130,-0.005
2325,-0.110,0.000
2326,-0.100,0.000
2327,-0.090,0.000
2328,-0.080,0.000
2329,-0.070,0.005
2330,-0.060,0.005
2331,-0.045,0.010
2332,-0.030,0.020
2333,-0.010,0.035
2334,0.000,0.060
2335,0.020,0.070
2336,0.055,0.110
2337,0.100,0.130
2338,0.145,0.185
2339,0.190,0.195
2340,0.215,0.240
2341,0.235,0.215
2342,0.230,0.235
2343,0.210,0.185
2344,0.170,0.180
2345,0.130,0.120
2346,0.085,0.115
2347,0.055,0.055
2348,0.035,0.045
2349,0.015,0.010
2350,0.000,0.010
2351,-0.005,0.005
2352,-0.015,0.005
2353,-0.020,0.005
2354,-0.025,0.005
2355,-0.025,0.005
2356,-0.025,0.005
2357,-0.020,0.010
2358,-0.010,0.010
2359,0.000,0.010
2360,0.000,0.005
2361,0.000,0.015
2362,0.010,0.005
2363,0.015,0.000
2364,0.010,-0.005
2365,0.000,-0.005
2366,-0.005,-0.020
2367,-0.020,-0.025
2368,-0.040,-0.030
2369,-0.065,-0.035
2370,-0.085,-0.030
2371,-0.105,-0.030
2372,-0.120,-0.030
2373,-0.130,-0.040
2374,-0.135,-0.035
2375,-0.135,-0.045
2376,-0.135,-0.030
2377,-0.145,-0.005
2378,-0.140,0.015
2379,-0.045,0.070
2380,0.150,0.165
2381,0.325,0.185
2382,0.325,0.035
2383,0.170,-0.170
2384,0.005,-0.465
2385,-0.085,-0.390
2386,-0.130,-0.230
2387,-0.160,-0.110
2388,-0.175,-0.070
2389,-0.170,-0.025
2390,-0.165,-0.035
2391,-0.155,0.000
2392,-0.140,-0.020
2393,-0.135,0.000
2394,-0.130,0.000
2395,-0.115,0.000
2396,-0.100,0.000
2397,-0.090,0.000
2398,-0.080,0.000
2399,-0.070,0.015
2400,-0.055,0.005
2401,-0.040,0.030
2402,-0.025,0.035
2403,-0.005,0.055
2404,0.015,0.075
2405,0.045,0.100
2406,0.085,0.135
2407,0.135,0.170
2408,0.175,0.210
2409,0.200,0.225
2410,0.210,0.230
2411,0.205,0.215
2412,0.190,0.190
2413,0.160,0.155
2414,0.120,0.120
2415,0.075,0.090
2416,0.045,0.060
2417,0.020,0.040
2418,0.005,0.010
2419,0.000,0.020
2420,-0.005,0.005
2421,-0.020,0.010
2422,-0.030,0.000
2423,-0.025,0.010
2424,-0.025,0.000
2425,-0.025,0.005
2426,-0.025,0.000
2427,-0.020,0.000
2428,-0.010,0.000
2429,-0.005,0.000
2430,0.000,0.000
2431,0.005,0.000
2432,0.015,0.000
2433,0.015,-0.005
2434,0.010,-0.015
2435,0.000,-0.035
2436,-0.015,-0.040
2437,-0.035,-0.055
2438,-0.055,-0.045
2439,-0.080,-0.055
2440,-0.105,-0.035
2441,-0.125,-0.060
2442,-0.135,-0.040
2443,-0.135,-0.070
2444,-0.135,-0.060
2445,-0.135,-0.065
2446,-0.145,-0.020
2447,-0.150,0.000
2448,-0.090,0.050
2449,0.070,0.115
2450,0.265,0.165
2451,0.340,0.085
2452,0.250,-0.105
2453,0.090,-0.365
2454,-0.030,-0.455
2455,-0.100,-0.315
2456,-0.135,-0.185
2457,-0.150,-0.110
2458,-0.160,-0.080
2459,-0.160,-0.055
2460,-0.155,-0.045
2461,-0.150,-0.035
2462,-0.135,-0.025
2463,-0.120,-0.025
2464,-0.105,-0.015
2465,-0.090,-0.020
2466,-0.080,-0.005
2467,-0.070,-0.020
2468,-0.055,0.000
2469,-0.040,0.000
2470,-0.030,0.000
2471,-0.015,0.000
2472,0.000,0.030
2473,0.015,0.025
2474,0.045,0.090
2475,0.080,0.090
2476,0.130,0.155
2477,0.175,0.170
2478,0.205,0.210
2479,0.225,0.205
2480,0.230,0.205
2481,0.215,0.180
2482,0.190,0.150
2483,0.160,0.115
2484,0.115,0.080
2485,0.075,0.050
2486,0.045,0.015
2487,0.025,0.005
2488,0.005,0.000
2489,0.000,0.000
2490,-0.010,-0.005
2491,-0.015,0.000
2492,-0.025,-0.005
2493,-0.030,-0.005
2494,-0.040,-0.005
2495,-0.045,0.000
2496,-0.045,-0.005
2497,-0.035,-0.005
2498,-0.025,0.000
2499,-0.020,-0.005
2500,-0.015,0.000
2501,-0.010,-0.005
2502,-0.010,-0.010
2503,-0.010,-0.025
2504,-0.015,-0.030
2505,-0.025,-0.055
2506,-0.040,-0.055
2507,-0.055,-0.065
2508,-0.080,-0.050
2509,-0.110,-0.055
2510,-0.135,-0.055
2511,-0.155,-0.060
2512,-0.155,-0.070
2513,-0.150,-0.065
2514,-0.150,-0.080
2515,-0.155,-0.055
2516,-0.185,-0.050
2517,-0.200,-0.020
2518,-0.085,0.020
2519,0.165,0.175
2520,0.370,0.225
2521,0.365,0.120
2522,0.215,-0.170
2523,0.050,-0.430
2524,-0.050,-0.395
2525,-0.110,-0.225
2526,-0.140,-0.140
2527,-0.165,-0.085
2528,-0.185,-0.075
2529,-0.185,-0.050
2530,-0.170,-0.055
2531,-0.155,-0.035
2532,-0.140,-0.030
2533,-0.130,-0.030
2534,-0.125,-0.025
2535,-0.115,-0.015
2536,-0.105,-0.010
2537,-0.095,-0.010
2538,-0.080,0.000
2539,-0.060,0.000
2540,-0.035,0.000
2541,-0.010,0.005
2542,0.000,0.025
2543,0.015,0.050
2544,0.050,0.075
2545,0.095,0.125
2546,0.150,0.150
2547,0.200,0.190
2548,0.230,0.200
2549,0.240,0.220
2550,0.225,0.195
2551,0.200,0.185
2552,0.170,0.135
2553,0.135,0.115
2554,0.090,0.065
2555,0.050,0.050
2556,0.020,0.010
2557,0.005,0.005
2558,-0.005,0.000
2559,-0.025,0.000
2560,-0.035,0.000
2561,-0.035,0.000
2562,-0.045,0.000
2563,-0.050,0.000
2564,-0.055,0.000
2565,-0.050,0.000
2566,-0.050,0.000
2567,-0.050,0.000
2568,-0.045,0.000
2569,-0.035,-0.005
2570,-0.020,0.000
2571,-0.005,-0.015
2572,0.000,-0.005
2573,0.000,-0.035
2574,0.000,-0.040
2575,0.000,-0.060
2576,-0.015,-0.055
2577,-0.035,-0.065
2578,-0.055,-0.075
2579,-0.075,-0.085
2580,-0.090,-0.085
2581,-0.105,-0.090
2582,-0.110,-0.100
2583,-0.105,-0.100
2584,-0.105,-0.100
2585,-0.120,-0.085
2586,-0.130,-0.065
2587,-0.055,-0.015
2588,0.135,0.065
2589,0.350,0.135
2590,0.415,0.080
2591,0.270,-0.140
2592,0.070,-0.455
2593,-0.045,-0.530
2594,-0.085,-0.355
2595,-0.105,-0.240
2596,-0.125,-0.150
2597,-0.130,-0.145
2598,-0.125,-0.120
2599,-0.120,-0.130
2600,-0.110,-0.105
2601,-0.095,-0.115
2602,-0.085,-0.090
2603,-0.080,-0.110
2604,-0.070,-0.080
2605,-0.055,-0.100
2606,-0.045,-0.080
2607,-0.035,-0.100
2608,-0.020,-0.085
2609,0.000,-0.085
2610,0.005,-0.075
2611,0.025,-0.065
2612,0.045,-0.045
2613,0.085,-0.010
2614,0.130,0.000
2615,0.190,0.025
2616,0.250,0.055
2617,0.295,0.090
2618,0.325,0.100
2619,0.335,0.105
2620,0.325,0.095
2621,0.295,0.080
2622,0.245,0.045
2623,0.195,0.015
2624,0.145,-0.005
2625,0.095,-0.025
2626,0.045,-0.045
2627,0.010,-0.065
2628,-0.010,-0.080
2629,-0.035,-0.090
2630,-0.045,-0.085
2631,-0.055,-0.095
2632,-0.055,-0.085
2633,-0.050,-0.095
2634,-0.040,-0.075
2635,-0.025,-0.055
2636,-0.005,0.000
2637,0.020,0.040
2638,0.095,0.105
2639,0.200,0.090
2640,0.230,-0.030
2641,0.145,-0.285
2642,0.015,-0.580
2643,-0.050,-0.520
2644,-0.095,-0.340
2645,-0.125,-0.180
2646,-0.145,-0.150
2647,-0.150,-0.120
2648,-0.150,-0.120
2649,-0.145,-0.095
2650,-0.140,-0.110
2651,-0.135,-0.080
2652,-0.125,-0.090
2653,-0.115,-0.060
2654,-0.105,-0.070
2655,-0.090,-0.045
2656,-0.080,-0.055
2657,-0.070,-0.025
2658,-0.055,-0.020
2659,-0.040,-0.005
2660,-0.020,0.000
2661,0.000,0.015
2662,0.025,0.035
2663,0.060,0.070
2664,0.095,0.100
2665,0.125,0.115
2666,0.140,0.110
2667,0.140,0.100
2668,0.125,0.085
2669,0.105,0.060
2670,0.085,0.040
2671,0.065,0.025
2672,0.040,0.005
2673,0.025,0.005
2674,0.015,0.000
2675,0.000,-0.005
2676,0.000,-0.010
2677,-0.010,-0.005
2678,-0.020,-0.020
2679,-0.030,-0.010
2680,-0.035,-0.040
2681,-0.040,-0.025
2682,-0.045,-0.050
2683,-0.050,-0.035
2684,-0.055,-0.065
2685,-0.055,-0.045
2686,-0.055,-0.065
2687,-0.055,-0.065
2688,-0.055,-0.075
2689,-0.055,-0.070
2690,-0.055,-0.070
2691,-0.055,-0.070
2692,-0.055,-0.075
2693,-0.055,-0.080
2694,-0.055,-0.065
2695,-0.055,-0.085
2696,-0.055,-0.065
2697,-0.050,-0.080
2698,-0.040,-0.060
2699,-0.030,-0.065
2700,-0.015,-0.040
2701,0.000,-0.050
2702,0.010,-0.035
2703,0.015,-0.055
2704,0.015,-0.050
2705,0.015,-0.070
2706,0.010,-0.075
2707,0.000,-0.085
2708,-0.005,-0.080
2709,-0.025,-0.075
2710,-0.045,-0.070
2711,-0.065,-0.075
2712,-0.080,-0.085
2713,-0.085,-0.080
2714,-0.080,-0.075
2715,-0.075,-0.070
2716,-0.070,-0.045
2717,-0.065,0.005
2718,-0.015,0.060
2719,0.125,0.135
2720,0.335,0.185
2721,0.450,0.130
2722,0.370,-0.040
2723,0.165,-0.320
2724,0.000,-0.485
2725,-0.070,-0.365
2726,-0.105,-0.185
2727,-0.125,-0.105
2728,-0.140,-0.050
2729,-0.145,-0.060
2730,-0.140,-0.015
2731,-0.135,-0.030
2732,-0.125,0.000
2733,-0.115,-0.020
2734,-0.100,0.000
2735,-0.080,-0.005
2736,-0.065,0.000
2737,-0.055,0.000
2738,-0.045,0.000
2739,-0.030,0.005
2740,-0.020,0.005
2741,0.000,0.010
2742,0.005,0.015
2743,0.025,0.035
2744,0.055,0.055
2745,0.090,0.085
2746,0.140,0.105
2747,0.190,0.150
2748,0.240,0.175
2749,0.280,0.195
2750,0.300,0.195
2751,0.295,0.190
2752,0.275,0.170
2753,0.240,0.145
2754,0.205,0.125
2755,0.165,0.105
2756,0.125,0.080
2757,0.090,0.045
2758,0.055,0.030
2759,0.030,0.010
2760,0.015,0.015
2761,0.005,0.005
2762,0.000,0.015
2763,0.000,0.005
2764,0.000,0.015
2765,0.000,0.010
2766,0.000,0.010
2767,0.000,0.010
2768,0.000,0.010
2769,0.000,0.005
2770,0.005,0.005
2771,0.010,0.015
2772,0.015,0.005
2773,0.020,0.015
2774,0.020,0.000
2775,0.020,0.000
2776,0.015,-0.005
2777,0.005,0.000
2778,0.000,-0.025
2779,-0.020,0.000
2780,-0.045,-0.020
2781,-0.070,0.000
2782,-0.090,-0.015
2783,-0.110,-0.005
2784,-0.120,-0.020
2785,-0.125,-0.010
2786,-0.125,-0.025
2787,-0.125,-0.015
2788,-0.125,0.000
2789,-0.105,0.050
2790,0.000,0.120
2791,0.190,0.205
2792,0.360,0.225
2793,0.365,0.095
2794,0.215,-0.165
2795,0.040,-0.405
2796,-0.065,-0.410
2797,-0.110,-0.250
2798,-0.135,-0.130
2799,-0.150,-0.065
2800,-0.155,-0.030
2801,-0.150,-0.010
2802,-0.140,-0.015
2803,-0.130,0.000
2804,-0.125,-0.005
2805,-0.120,0.000
2806,-0.110,0.000
2807,-0.090,0.005
2808,-0.075,0.005
2809,-0.070,0.030
2810,-0.060,0.010
2811,-0.050,0.045
2812,-0.040,0.040
2813,-0.020,0.075
2814,0.000,0.075
2815,0.030,0.110
2816,0.060,0.125
2817,0.100,0.165
2818,0.145,0.200
2819,0.190,0.235
2820,0.225,0.260
2821,0.240,0.260
2822,0.235,0.255
2823,0.205,0.225
2824,0.175,0.210
2825,0.140,0.160
2826,0.100,0.135
2827,0.065,0.090
2828,0.035,0.075
2829,0.010,0.040
2830,0.000,0.035
2831,-0.005,0.015
2832,-0.015,0.015
2833,-0.030,0.005
2834,-0.035,0.015
2835,-0.035,0.015
2836,-0.035,0.015
2837,-0.025,0.010
2838,-0.020,0.010
2839,-0.005,0.010
2840,0.000,0.005
2841,0.000,0.010
2842,0.000,0.010
2843,0.010,0.010
2844,0.015,0.005
2845,0.020,0.000
2846,0.015,-0.005
2847,0.005,-0.020
2848,0.000,-0.025
2849,-0.015,-0.030
2850,-0.035,-0.030
2851,-0.060,-0.040
2852,-0.085,-0.020
2853,-0.100,-0.045
2854,-0.120,-0.025
2855,-0.130,-0.055
2856,-0.125,-0.030
2857,-0.125,-0.055
2858,-0.130,0.000
2859,-0.135,0.000
2860,-0.085,0.080
2861,0.095,0.135
2862,0.325,0.240
2863,0.395,0.135
2864,0.275,-0.045
2865,0.090,-0.385
2866,-0.025,-0.450
2867,-0.085,-0.310
2868,-0.125,-0.165
2869,-0.145,-0.095
2870,-0.155,-0.055
2871,-0.160,-0.035
2872,-0.160,-0.030
2873,-0.150,-0.015
2874,-0.140,-0.015
2875,-0.130,-0.005
2876,-0.115,-0.005
2877,-0.100,0.000
2878,-0.085,0.000
2879,-0.075,0.005
2880,-0.065,0.005
2881,-0.050,0.010
2882,-0.035,0.020
2883,-0.020,0.030
2884,-0.005,0.060
2885,0.005,0.075
2886,0.030,0.115
2887,0.070,0.145
2888,0.120,0.200
2889,0.165,0.230
2890,0.200,0.265
2891,0.225,0.260
2892,0.230,0.270
2893,0.210,0.250
2894,0.175,0.230
2895,0.145,0.185
2896,0.105,0.150
2897,0.065,0.115
2898,0.035,0.070
2899,0.015,0.055
2900,0.005,0.030
2901,0.000,0.025
2902,-0.010,0.005
2903,-0.020,0.015
2904,-0.025,0.005
2905,-0.030,0.025
2906,-0.030,0.005
2907,-0.030,0.030
2908,-0.030,0.005
2909,-0.025,0.020
2910,-0.015,0.010
2911,-0.010,0.025
2912,0.000,0.010
2913,0.000,0.020
2914,0.015,0.010
2915,0.025,0.005
2916,0.015,0.000
2917,0.005,0.000
2918,-0.005,-0.015
2919,-0.025,-0.020
2920,-0.050,-0.020
2921,-0.080,-0.025
2922,-0.105,-0.025
2923,-0.115,-0.025
2924,-0.125,-0.030
2925,-0.135,-0.040
2926,-0.130,-0.040
2927,-0.125,-0.030
2928,-0.125,-0.020
2929,-0.135,0.005
2930,-0.100,0.045
2931,0.040,0.135
2932,0.245,0.195
2933,0.360,0.165
2934,0.280,-0.045
2935,0.105,-0.290
2936,-0.020,-0.480
2937,-0.085,-0.310
2938,-0.115,-0.175
2939,-0.145,-0.075
2940,-0.160,-0.065
2941,-0.165,-0.025
2942,-0.160,-0.030
2943,-0.155,-0.010
2944,-0.150,-0.020
2945,-0.135,-0.010
2946,-0.115,-0.005
2947,-0.095,0.000
2948,-0.085,0.000
2949,-0.075,0.000
2950,-0.060,0.005
2951,-0.050,0.005
2952,-0.035,0.015
2953,-0.020,0.010
2954,0.000,0.035
2955,0.010,0.045
2956,0.035,0.085
2957,0.075,0.100
2958,0.120,0.150
2959,0.170,0.175
2960,0.215,0.220
2961,0.235,0.225
2962,0.240,0.225
2963,0.225,0.200
2964,0.200,0.170
2965,0.165,0.130
2966,0.120,0.095
2967,0.075,0.060
2968,0.040,0.015
2969,0.020,0.000
2970,0.000,-0.005
2971,-0.010,-0.010
2972,-0.025,-0.025
2973,-0.040,-0.025
2974,-0.050,-0.025
2975,-0.060,-0.030
2976,-0.055,-0.025
2977,-0.055,-0.030
2978,-0.055,-0.025
2979,-0.060,-0.030
2980,-0.050,-0.010
2981,-0.035,-0.030
2982,-0.025,0.000
2983,-0.020,-0.020
2984,-0.005,0.000
2985,-0.005,-0.035
2986,-0.010,-0.020
2987,-0.020,-0.070
2988,-0.030,-0.060
2989,-0.050,-0.095
2990,-0.070,-0.055
2991,-0.100,-0.085
2992,-0.125,-0.065
2993,-0.135,-0.085
2994,-0.140,-0.070
2995,-0.145,-0.075
2996,-0.145,-0.065
2997,-0.145,-0.065
2998,-0.160,-0.035
2999,-0.190,-0.020
3000,-0.155,0.000
3001,0.020,0.090
3002,0.270,0.220
3003,0.410,0.235
3004,0.350,0.055
3005,0.190,-0.245
3006,0.030,-0.410
3007,-0.070,-0.320
3008,-0.125,-0.180
3009,-0.150,-0.100
3010,-0.170,-0.065
3011,-0.185,-0.055
3012,-0.180,-0.040
3013,-0.165,-0.040
3014,-0.145,-0.020
3015,-0.130,-0.020
3016,-0.125,-0.005
3017,-0.125,-0.015
3018,-0.120,0.000
3019,-0.105,-0.010
3020,-0.085,0.000
3021,-0.075,0.000
3022,-0.055,0.005
3023,-0.035,0.005
3024,-0.010,0.025
3025,0.000,0.050
3026,0.030,0.070
3027,0.070,0.115
3028,0.120,0.135
3029,0.180,0.195
3030,0.215,0.200
3031,0.235,0.230
3032,0.240,0.210
3033,0.235,0.210
3034,0.200,0.155
3035,0.155,0.150
3036,0.110,0.095
3037,0.070,0.080
3038,0.035,0.020
3039,0.010,0.015
3040,0.000,0.000
3041,-0.020,0.000
3042,-0.040,-0.015
3043,-0.050,-0.005
3044,-0.055,-0.020
3045,-0.055,-0.020
3046,-0.055,-0.025
3047,-0.055,-0.025
3048,-0.050,-0.025
3049,-0.040,-0.025
3050,-0.030,-0.025
3051,-0.020,-0.025
3052,-0.010,-0.025
3053,-0.005,-0.025
3054,0.000,-0.030
3055,0.010,-0.035
3056,0.010,-0.055
3057,0.005,-0.060
3058,0.000,-0.085
3059,-0.005,-0.085
3060,-0.025,-0.105
3061,-0.050,-0.100
3062,-0.065,-0.115
3063,-0.085,-0.105
3064,-0.105,-0.115
3065,-0.115,-0.110
3066,-0.110,-0.130
3067,-0.110,-0.115
3068,-0.115,-0.115
3069,-0.130,-0.065
3070,-0.080,-0.035
3071,0.100,0.065
3072,0.350,0.140
3073,0.440,0.110
3074,0.300,-0.085
3075,0.085,-0.425
3076,-0.040,-0.520
3077,-0.090,-0.375
3078,-0.110,-0.235
3079,-0.125,-0.165
3080,-0.130,-0.135
3081,-0.135,-0.150
3082,-0.125,-0.130
3083,-0.120,-0.135
3084,-0.110,-0.125
3085,-0.100,-0.130
3086,-0.090,-0.120
3087,-0.080,-0.120
3088,-0.070,-0.110
3089,-0.060,-0.110
3090,-0.050,-0.100
3091,-0.035,-0.100
3092,-0.025,-0.085
3093,-0.005,-0.080
3094,0.000,-0.065
3095,0.020,-0.035
3096,0.050,-0.015
3097,0.090,0.000
3098,0.140,0.030
3099,0.190,0.075
3100,0.230,0.100
3101,0.250,0.115
3102,0.250,0.110
3103,0.230,0.100
3104,0.205,0.075
3105,0.165,0.040
3106,0.125,0.020
3107,0.080,0.000
3108,0.050,-0.015
3109,0.020,-0.040
3110,0.005,-0.025
3111,0.000,-0.065
3112,-0.010,-0.035
3113,-0.020,-0.060
3114,-0.025,-0.035
3115,-0.025,-0.060
3116,-0.025,-0.025
3117,-0.025,-0.060
3118,-0.015,-0.025
3119,-0.005,-0.050
3120,0.000,-0.025
3121,0.000,-0.035
3122,0.000,-0.015
3123,0.010,-0.030
3124,0.020,-0.025
3125,0.020,-0.040
3126,0.015,-0.045
3127,0.005,-0.055
3128,0.000,-0.060
3129,-0.020,-0.050
3130,-0.045,-0.050
3131,-0.065,-0.055
3132,-0.085,-0.070
3133,-0.105,-0.080
3134,-0.120,-0.095
3135,-0.125,-0.095
3136,-0.125,-0.100
3137,-0.120,-0.085
3138,-0.130,-0.050
3139,-0.120,-0.020
3140,-0.025,0.040
3141,0.175,0.125
3142,0.360,0.160
3143,0.370,0.035
3144,0.215,-0.190
3145,0.030,-0.460
3146,-0.075,-0.425
3147,-0.125,-0.280
3148,-0.145,-0.155
3149,-0.160,-0.110
3150,-0.170,-0.075
3151,-0.165,-0.065
3152,-0.155,-0.035
3153,-0.145,-0.020
3154,-0.135,-0.015
3155,-0.130,-0.010
3156,-0.120,-0.005
3157,-0.100,0.000
3158,-0.095,0.000
3159,-0.085,0.000
3160,-0.075,0.005
3161,-0.055,0.025
3162,-0.035,0.015
3163,-0.020,0.055
3164,0.000,0.045
3165,0.020,0.090
3166,0.050,0.100
3167,0.090,0.145
3168,0.145,0.160
3169,0.190,0.195
3170,0.220,0.195
3171,0.230,0.200
3172,0.225,0.180
3173,0.205,0.165
3174,0.175,0.130
3175,0.135,0.105
3176,0.095,0.075
3177,0.060,0.035
3178,0.025,0.010
3179,0.005,0.000
3180,0.000,0.000
3181,-0.010,-0.010
3182,-0.020,-0.015
3183,-0.025,-0.020
3184,-0.025,-0.025
3185,-0.025,-0.020
3186,-0.020,-0.030
3187,-0.015,-0.025
3188,-0.005,-0.030
3189,0.000,-0.005
3190,0.000,-0.015
3191,0.010,-0.005
3192,0.015,-0.020
3193,0.025,0.000
3194,0.020,-0.020
3195,0.015,-0.015
3196,0.005,-0.065
3197,0.000,-0.045
3198,-0.015,-0.065
3199,-0.040,-0.045
3200,-0.065,-0.075
3201,-0.085,-0.070
3202,-0.105,-0.090
3203,-0.120,-0.080
3204,-0.130,-0.090
3205,-0.130,-0.090
3206,-0.125,-0.075
3207,-0.135,-0.045
3208,-0.145,-0.005
3209,-0.080,0.030
3210,0.100,0.135
3211,0.310,0.185
3212,0.370,0.110
3213,0.255,-0.105
3214,0.080,-0.385
3215,-0.040,-0.455
3216,-0.100,-0.305
3217,-0.135,-0.175
3218,-0.150,-0.090
3219,-0.160,-0.055
3220,-0.160,-0.035
3221,-0.150,-0.020
3222,-0.145,-0.015
3223,-0.135,0.000
3224,-0.125,-0.005
3225,-0.105,0.000
3226,-0.095,0.000
3227,-0.085,0.000
3228,-0.075,0.000
3229,-0.070,0.005
3230,-0.050,0.005
3231,-0.030,0.005
3232,-0.015,0.005
3233,0.000,0.015
3234,0.025,0.035
3235,0.055,0.050
3236,0.095,0.095
3237,0.140,0.105
3238,0.180,0.155
3239,0.215,0.155
3240,0.235,0.195
3241,0.230,0.165
3242,0.205,0.170
3243,0.185,0.125
3244,0.155,0.120
3245,0.110,0.045
3246,0.075,0.045
3247,0.040,0.005
3248,0.025,0.005
3249,0.015,0.000
3250,0.005,0.000
3251,0.000,0.000
3252,-0.005,0.000
3253,-0.015,0.005
3254,-0.020,0.010
3255,-0.015,0.010
3256,-0.010,0.010
3257,-0.005,0.010
3258,0.000,0.010
3259,0.005,0.015
3260,0.010,0.010
3261,0.015,0.020
3262,0.025,0.015
3263,0.030,0.005
3264,0.025,0.000
3265,0.015,0.000
3266,0.005,-0.010
3267,-0.005,-0.015
3268,-0.030,-0.015
3269,-0.050,-0.020
3270,-0.075,-0.010
3271,-0.100,-0.025
3272,-0.115,-0.015
3273,-0.130,-0.035
3274,-0.125,-0.025
3275,-0.115,-0.040
3276,-0.110,-0.005
3277,-0.130,0.005
3278,-0.110,0.055
3279,0.020,0.130
3280,0.245,0.230
3281,0.390,0.220
3282,0.325,0.040
3283,0.135,-0.220
3284,-0.010,-0.465
3285,-0.085,-0.310
3286,-0.110,-0.155
3287,-0.135,-0.035
3288,-0.145,-0.020
3289,-0.150,0.000
3290,-0.145,0.000
3291,-0.145,0.005
3292,-0.140,0.000
3293,-0.125,0.005
3294,-0.105,0.000
3295,-0.085,0.015
3296,-0.075,0.005
3297,-0.070,0.025
3298,-0.070,0.010
3299,-0.060,0.030
3300,-0.050,0.035
3301,-0.030,0.055
3302,-0.010,0.060
3303,0.005,0.080
3304,0.030,0.105
3305,0.070,0.130
3306,0.115,0.165
3307,0.160,0.200
3308,0.205,0.235
3309,0.235,0.250
3310,0.240,0.255
3311,0.230,0.240
3312,0.200,0.215
3313,0.165,0.185
3314,0.125,0.145
3315,0.080,0.115
3316,0.050,0.085
3317,0.025,0.075
3318,0.010,0.040
3319,0.000,0.045
3320,-0.010,0.015
3321,-0.020,0.035
3322,-0.030,0.010
3323,-0.035,0.040
3324,-0.030,0.005
3325,-0.025,0.040
3326,-0.020,0.005
3327,-0.015,0.035
3328,-0.010,0.015
3329,0.000,0.035
3330,0.000,0.030
3331,0.000,0.035
3332,0.005,0.015
3333,0.010,0.005
3334,0.005,0.000
3335,0.000,-0.005
3336,-0.010,-0.010
3337,-0.030,-0.015
3338,-0.055,0.000
3339,-0.085,-0.005
3340,-0.110,0.000
3341,-0.130,-0.015
3342,-0.135,-0.005
3343,-0.140,-0.015
3344,-0.135,-0.005
3345,-0.135,-0.005
3346,-0.140,0.015
3347,-0.135,0.040
3348,-0.045,0.105
3349,0.140,0.190
3350,0.310,0.210
3351,0.330,0.100
3352,0.200,-0.150
3353,0.035,-0.385
3354,-0.070,-0.400
3355,-0.130,-0.230
3356,-0.150,-0.120
3357,-0.160,-0.060
3358,-0.160,-0.035
3359,-0.155,-0.020
3360,-0.150,-0.010
3361,-0.140,-0.005
3362,-0.130,0.000
3363,-0.120,0.000
3364,-0.105,0.000
3365,-0.085,0.000
3366,-0.075,0.000
3367,-0.070,0.000
3368,-0.055,0.010
3369,-0.040,0.005
3370,-0.025,0.040
3371,-0.015,0.025
3372,0.000,0.080
3373,0.020,0.085
3374,0.055,0.135
3375,0.100,0.150
3376,0.145,0.220
3377,0.180,0.235
3378,0.210,0.265
3379,0.225,0.255
3380,0.225,0.255
3381,0.205,0.225
3382,0.170,0.195
3383,0.140,0.165
3384,0.100,0.130
3385,0.065,0.100
3386,0.035,0.070
3387,0.015,0.055
3388,0.000,0.040
3389,-0.005,0.035
3390,-0.015,0.020
3391,-0.015,0.015
3392,-0.015,0.010
3393,-0.015,0.010
3394,-0.015,0.010
3395,-0.015,0.000
3396,-0.010,0.005
3397,-0.005,0.000
3398,0.000,0.005
3399,0.000,0.005
3400,0.005,0.010
3401,0.015,0.000
3402,0.015,0.000
3403,0.010,-0.005
3404,0.000,-0.005
3405,-0.005,-0.030
3406,-0.020,-0.025
3407,-0.035,-0.030
3408,-0.055,-0.025
3409,-0.085,-0.020
3410,-0.110,-0.010
3411,-0.125,-0.020
3412,-0.130,-0.020
3413,-0.130,-0.025
3414,-0.130,-0.030
3415,-0.130,0.000
3416,-0.145,0.005
3417,-0.130,0.050
3418,0.005,0.145
3419,0.230,0.280
3420,0.360,0.260
3421,0.295,0.090
3422,0.135,-0.235
3423,0.000,-0.380
3424,-0.075,-0.290
3425,-0.120,-0.145
3426,-0.145,-0.075
3427,-0.155,-0.025
3428,-0.160,-0.015
3429,-0.150,-0.005
3430,-0.140,-0.010
3431,-0.125,-0.010
3432,-0.110,-0.010
3433,-0.095,-0.010
3434,-0.085,-0.005
3435,-0.080,0.000
3436,-0.065,0.000
3437,-0.050,0.000
3438,-0.030,0.000
3439,-0.010,0.000
3440,0.000,0.010
3441,0.005,0.030
3442,0.020,0.045
3443,0.050,0.090
3444,0.090,0.115
3445,0.135,0.160
3446,0.190,0.185
3447,0.230,0.225
3448,0.250,0.230
3449,0.245,0.245
3450,0.230,0.215
3451,0.200,0.210
3452,0.170,0.155
3453,0.125,0.150
3454,0.080,0.095
3455,0.040,0.090
3456,0.015,0.045
3457,0.000,0.045
3458,-0.005,0.015
3459,-0.020,0.020
3460,-0.030,0.010
3461,-0.035,0.005
3462,-0.035,0.005
3463,-0.045,0.000
3464,-0.050,0.000
3465,-0.050,0.000
3466,-0.045,-0.005
3467,-0.030,-0.015
3468,-0.020,-0.005
3469,-0.020,-0.010
3470,-0.015,-0.005
3471,-0.005,-0.020
3472,0.000,-0.015
3473,0.000,-0.035
3474,0.000,-0.045
3475,-0.010,-0.060
3476,-0.030,-0.060
3477,-0.055,-0.060
3478,-0.080,-0.060
3479,-0.100,-0.060
3480,-0.120,-0.070
3481,-0.130,-0.070
3482,-0.125,-0.085
3483,-0.120,-0.080
3484,-0.130,-0.075
3485,-0.150,-0.060
3486,-0.170,-0.055
3487,-0.115,-0.020
3488,0.065,0.080
3489,0.305,0.210
3490,0.420,0.205
3491,0.345,0.000
3492,0.170,-0.335
3493,0.020,-0.460
3494,-0.060,-0.305
3495,-0.115,-0.190
3496,-0.145,-0.105
3497,-0.155,-0.100
3498,-0.150,-0.070
3499,-0.150,-0.095
3500,-0.140,-0.050
3501,-0.140,-0.065
3502,-0.130,-0.035
3503,-0.110,-0.060
3504,-0.100,-0.030
3505,-0.100,-0.045
3506,-0.090,-0.025
3507,-0.075,-0.040
3508,-0.060,-0.015
3509,-0.040,-0.010
3510,-0.025,0.000
3511,-0.005,0.000
3512,0.010,0.005
3513,0.045,0.025
3514,0.095,0.045
3515,0.140,0.075
3516,0.180,0.095
3517,0.215,0.120
3518,0.240,0.130
3519,0.235,0.130
3520,0.220,0.105
3521,0.180,0.075
3522,0.135,0.040
3523,0.095,0.005
3524,0.065,-0.005
3525,0.035,-0.025
3526,0.015,-0.040
3527,0.000,-0.075
3528,-0.005,-0.080
3529,-0.015,-0.095
3530,-0.020,-0.075
3531,-0.025,-0.095
3532,-0.030,-0.070
3533,-0.035,-0.085
3534,-0.030,-0.065
3535,-0.025,-0.085
3536,-0.020,-0.070
3537,-0.010,-0.065
3538,0.000,-0.060
3539,0.000,-0.060
3540,0.010,-0.070
3541,0.015,-0.090
3542,0.015,-0.105
3543,0.015,-0.105
3544,0.010,-0.130
3545,0.000,-0.125
3546,-0.005,-0.125
3547,-0.025,-0.125
3548,-0.050,-0.140
3549,-0.070,-0.125
3550,-0.080,-0.155
3551,-0.085,-0.140
3552,-0.090,-0.165
3553,-0.090,-0.155
3554,-0.090,-0.150
3555,-0.100,-0.115
3556,-0.080,-0.090
3557,0.035,-0.015
3558,0.240,0.045
3559,0.385,0.030
3560,0.345,-0.110
3561,0.170,-0.385
3562,0.010,-0.570
3563,-0.065,-0.500
3564,-0.095,-0.335
3565,-0.115,-0.225
3566,-0.125,-0.165
3567,-0.135,-0.140
3568,-0.130,-0.125
3569,-0.125,-0.115
3570,-0.115,-0.110
3571,-0.105,-0.105
3572,-0.100,-0.100
3573,-0.085,-0.090
3574,-0.080,-0.095
3575,-0.070,-0.070
3576,-0.060,-0.075
3577,-0.045,-0.055
3578,-0.030,-0.065
3579,-0.015,-0.030
3580,0.000,-0.035
3581,0.015,0.000
3582,0.035,0.000
3583,0.070,0.020
3584,0.120,0.035
3585,0.170,0.090
3586,0.215,0.105
3587,0.245,0.125
3588,0.255,0.125
3589,0.245,0.120
3590,0.220,0.090
3591,0.190,0.065
3592,0.150,0.040
3593,0.105,0.005
3594,0.070,0.000
3595,0.045,-0.010
3596,0.025,-0.015
3597,0.005,-0.040
3598,0.000,-0.030
3599,0.000,-0.045
3600,-0.005,-0.035
3601,-0.010,-0.035
3602,-0.010,-0.030
3603,-0.010,-0.030
3604,0.000,-0.020
3605,0.000,-0.015
3606,0.000,-0.015
3607,0.005,-0.005
3608,0.010,-0.010
3609,0.020,-0.010
3610,0.025,-0.015
3611,0.025,-0.025
3612,0.020,-0.055
3613,0.010,-0.060
3614,0.000,-0.065
3615,-0.020,-0.065
3616,-0.040,-0.065
3617,-0.070,-0.065
3618,-0.090,-0.070
3619,-0.110,-0.085
3620,-0.120,-0.080
3621,-0.120,-0.095
3622,-0.120,-0.085
3623,-0.120,-0.090
3624,-0.140,-0.025
3625,-0.135,-0.020
3626,-0.020,0.060
3627,0.205,0.130
3628,0.395,0.195
3629,0.380,0.035
3630,0.200,-0.195
3631,0.025,-0.470
3632,-0.065,-0.360
3633,-0.110,-0.220
3634,-0.140,-0.100
3635,-0.150,-0.070
3636,-0.155,-0.025
3637,-0.150,-0.020
3638,-0.145,-0.010
3639,-0.140,-0.005
3640,-0.130,0.000
3641,-0.120,0.000
3642,-0.110,0.005
3643,-0.100,0.005
3644,-0.085,0.005
3645,-0.070,0.005
3646,-0.060,0.005
3647,-0.040,0.005
3648,-0.025,0.005
3649,-0.005,0.015
3650,0.010,0.020
3651,0.040,0.030
3652,0.075,0.060
3653,0.120,0.080
3654,0.170,0.120
3655,0.210,0.135
3656,0.245,0.165
3657,0.255,0.150
3658,0.245,0.155
3659,0.220,0.130
3660,0.190,0.120
3661,0.150,0.080
3662,0.110,0.055
3663,0.075,0.010
3664,0.045,0.000
3665,0.025,0.000
3666,0.010,0.000
3667,0.000,-0.015
3668,0.000,-0.010
3669,-0.005,-0.010
3670,-0.005,-0.010
3671,-0.005,-0.005
3672,0.000,-0.010
3673,0.000,0.000
3674,0.010,0.000
3675,0.015,0.000
3676,0.020,0.000
3677,0.025,0.000
3678,0.035,0.000
3679,0.040,0.000
3680,0.035,-0.015
3681,0.025,-0.010
3682,0.010,-0.035
3683,0.000,-0.025
3684,-0.015,-0.030
3685,-0.040,-0.015
3686,-0.065,-0.020
3687,-0.085,-0.025
3688,-0.095,-0.030
3689,-0.100,-0.030
3690,-0.105,-0.030
3691,-0.105,-0.030
3692,-0.110,-0.010
3693,-0.125,0.005
3694,-0.095,0.050
3695,0.035,0.145
3696,0.250,0.235
3697,0.390,0.210
3698,0.340,0.035
3699,0.175,-0.200
3700,0.020,-0.390
3701,-0.055,-0.285
3702,-0.100,-0.155
3703,-0.125,-0.050
3704,-0.140,-0.025
3705,-0.145,0.000
3706,-0.140,0.000
3707,-0.135,0.010
3708,-0.130,0.000
3709,-0.115,0.030
3710,-0.105,0.005
3711,-0.100,0.030
3712,-0.095,0.005
3713,-0.075,0.035
3714,-0.060,0.020
3715,-0.050,0.040
3716,-0.045,0.030
3717,-0.025,0.055
3718,0.000,0.060
3719,0.015,0.085
3720,0.045,0.110
3721,0.085,0.130
3722,0.130,0.170
3723,0.180,0.200
3724,0.215,0.235
3725,0.235,0.230
3726,0.265,0.245
3727,0.335,0.220
3728,0.420,0.200
3729,0.475,0.165
3730,0.480,0.140
3731,0.430,0.110
3732,0.355,0.090
3733,0.280,0.065
3734,0.210,0.050
3735,0.145,0.040
3736,0.090,0.020
3737,0.050,0.015
3738,0.020,0.010
3739,0.005,0.010
3740,0.000,0.010
3741,-0.010,0.020
3742,-0.020,0.015
3743,-0.020,0.030
3744,-0.010,0.030
3745,-0.005,0.025
3746,0.000,0.020
3747,0.015,0.005
3748,0.015,0.000
3749,0.010,-0.005
3750,0.005,-0.010
3751,0.000,-0.025
3752,-0.025,-0.020
3753,-0.050,-0.040
3754,-0.075,-0.020
3755,-0.095,-0.040
3756,-0.125,-0.020
3757,-0.145,-0.050
3758,-0.155,-0.035
3759,-0.160,-0.070
3760,-0.150,-0.040
3761,-0.150,-0.035
3762,-0.170,0.000
3763,-0.120,0.025
3764,0.040,0.125
3765,0.255,0.185
3766,0.345,0.120
3767,0.260,-0.050
3768,0.145,-0.350
3769,0.120,-0.435
3770,0.140,-0.305
3771,0.070,-0.165
3772,-0.075,-0.090
3773,-0.195,-0.055
3774,-0.185,-0.040
3775,0.000,-0.030
3776,0.330,-0.030
3777,0.605,-0.025
3778,0.690,-0.015
3779,0.605,-0.010
3780,0.475,0.000
3781,0.400,-0.005
3782,0.360,0.000
3783,0.230,0.000
3784,0.020,0.005
3785,-0.130,0.010
3786,-0.185,0.030
3787,-0.160,0.030
3788,-0.125,0.070
3789,-0.105,0.075
3790,-0.095,0.120
3791,-0.085,0.140
3792,-0.070,0.180
3793,-0.050,0.195
3794,-0.010,0.210
3795,0.055,0.185
3796,0.160,0.170
3797,0.275,0.135
3798,0.350,0.105
3799,0.380,0.065
3800,0.375,0.010
3801,0.335,0.005
3802,0.285,0.000
3803,0.230,0.000
3804,0.175,-0.025
3805,0.120,-0.015
3806,0.085,-0.040
3807,0.050,-0.025
3808,0.025,-0.050
3809,0.005,-0.030
3810,-0.020,-0.045
3811,-0.055,-0.035
3812,-0.075,-0.040
3813,-0.090,-0.030
3814,-0.100,-0.030
3815,-0.095,-0.020
3816,-0.075,-0.030
3817,-0.055,-0.050
3818,-0.080,-0.065
3819,-0.150,-0.080
3820,-0.230,-0.095
3821,-0.270,-0.105
3822,-0.285,-0.105
3823,-0.290,-0.110
3824,-0.275,-0.110
3825,-0.270,-0.110
3826,-0.270,-0.115
3827,-0.270,-0.110
3828,-0.270,-0.110
3829,-0.275,-0.100
3830,-0.290,-0.070
3831,-0.315,0.000
3832,-0.290,0.015
3833,-0.150,0.095
3834,0.045,0.135
3835,0.160,0.110
3836,0.085,-0.085
3837,-0.065,-0.350
3838,-0.195,-0.530
3839,-0.250,-0.330
3840,-0.270,-0.220
3841,-0.280,-0.150
3842,-0.280,-0.175
3843,-0.260,-0.150
3844,-0.225,-0.160
3845,-0.185,-0.170
3846,-0.155,-0.175
3847,-0.140,-0.175
3848,-0.150,-0.160
3849,-0.170,-0.150
3850,-0.185,-0.135
3851,-0.180,-0.135
3852,-0.165,-0.120
3853,-0.145,-0.115
3854,-0.125,-0.110
3855,-0.100,-0.125
3856,-0.075,-0.125
3857,-0.045,-0.125
3858,-0.010,-0.115
3859,0.020,-0.105
3860,0.060,-0.060
3861,0.105,-0.015
3862,0.145,0.000
3863,0.170,0.005
3864,0.175,0.005
3865,0.155,0.005
3866,0.120,0.000
3867,0.085,-0.020
3868,0.045,-0.070
3869,0.010,-0.090
3870,-0.020,-0.115
3871,-0.050,-0.125
3872,-0.060,-0.140
3873,-0.050,-0.140
3874,-0.030,-0.145
3875,-0.010,-0.140
3876,0.000,-0.135
3877,0.000,-0.140
3878,0.010,-0.130
3879,0.010,-0.140
3880,0.005,-0.135
3881,0.005,-0.150
3882,0.015,-0.125
3883,0.035,-0.145
3884,0.135,-0.125
3885,0.345,-0.145
3886,0.580,-0.145
3887,0.690,-0.180
3888,0.685,-0.170
3889,0.605,-0.195
3890,0.480,-0.180
3891,0.330,-0.185
3892,0.170,-0.170
3893,0.030,-0.185
3894,-0.065,-0.160
3895,-0.165,-0.170
3896,-0.295,-0.155
3897,-0.465,-0.155
3898,-0.640,-0.150
3899,-0.775,-0.130
3900,-0.830,-0.120
3901,-0.755,-0.100
3902,-0.520,-0.020
3903,-0.210,0.115
3904,-0.015,0.185
3905,0.000,0.075
3906,-0.105,-0.220
3907,-0.225,-0.460
3908,-0.290,-0.415
3909,-0.305,-0.275
3910,-0.295,-0.170
3911,-0.265,-0.135
3912,-0.230,-0.120
3913,-0.195,-0.115
3914,-0.165,-0.110
3915,-0.135,-0.110
3916,-0.105,-0.095
3917,-0.085,-0.105
3918,-0.060,-0.085
3919,-0.030,-0.100
3920,0.000,-0.080
3921,0.005,-0.075
3922,0.010,-0.065
3923,0.005,-0.065
3924,0.000,-0.035
3925,-0.010,-0.030
3926,-0.005,-0.020
3927,-0.005,0.000
3928,-0.010,0.025
3929,-0.015,0.065
3930,0.000,0.095
3931,0.000,0.135
3932,0.010,0.135
3933,0.015,0.145
3934,0.020,0.105
3935,0.020,0.105
3936,0.015,0.065
3937,0.010,0.035
3938,0.005,0.005
3939,0.000,-0.005
3940,0.000,-0.040
3941,-0.005,-0.060
3942,-0.020,-0.080
3943,-0.015,-0.085
3944,-0.005,-0.090
3945,0.000,-0.095
3946,0.020,-0.105
3947,0.050,-0.105
3948,0.090,-0.100
3949,0.140,-0.105
3950,0.200,-0.105
3951,0.250,-0.100
3952,0.250,-0.095
3953,0.195,-0.105
3954,0.150,-0.110
3955,0.130,-0.115
3956,0.115,-0.130
3957,0.065,-0.140
3958,-0.025,-0.165
3959,-0.150,-0.165
3960,-0.230,-0.180
3961,-0.215,-0.165
3962,-0.160,-0.190
3963,-0.090,-0.180
3964,-0.030,-0.205
3965,0.005,-0.190
3966,0.015,-0.215
3967,0.010,-0.190
3968,0.000,-0.200
3969,-0.025,-0.140
3970,-0.045,-0.120
3971,0.020,-0.050
3972,0.230,0.030
3973,0.440,0.080
3974,0.460,-0.030
3975,0.290,-0.290
3976,0.115,-0.590
3977,0.025,-0.575
3978,-0.005,-0.430
3979,-0.020,-0.310
3980,-0.035,-0.245
3981,-0.040,-0.235
3982,-0.035,-0.210
3983,-0.025,-0.210
3984,-0.010,-0.190
3985,0.000,-0.195
3986,0.005,-0.190
3987,0.015,-0.190
3988,0.020,-0.215
3989,0.025,-0.285
3990,0.030,-0.340
3991,0.035,-0.345
3992,0.040,-0.345
3993,0.050,-0.335
3994,0.060,-0.325
3995,0.075,-0.305
3996,0.105,-0.290
3997,0.140,-0.255
3998,0.175,-0.220
3999,0.215,-0.175
4000,0.250,-0.140
4001,0.280,-0.115
4002,0.285,-0.115
4003,0.260,-0.120
4004,0.230,-0.120
4005,0.190,-0.150
4006,0.150,-0.165
4007,0.110,-0.205
4008,0.080,-0.210
4009,0.045,-0.240
4010,0.020,-0.240
4011,0.005,-0.260
4012,-0.025,-0.250
4013,-0.075,-0.260
4014,-0.115,-0.240
4015,-0.160,-0.255
4016,-0.195,-0.220
4017,-0.225,-0.225
4018,-0.260,-0.195
4019,-0.280,-0.200
4020,-0.285,-0.175
4021,-0.275,-0.170
4022,-0.250,-0.155
4023,-0.220,-0.155
4024,-0.185,-0.155
4025,-0.155,-0.170
4026,-0.140,-0.180
4027,-0.125,-0.185
4028,-0.115,-0.195
4029,-0.100,-0.195
4030,-0.095,-0.190
4031,-0.105,-0.180
4032,-0.120,-0.185
4033,-0.125,-0.190
4034,-0.130,-0.185
4035,-0.120,-0.190
4036,-0.100,-0.195
4037,-0.075,-0.190
4038,-0.055,-0.150
4039,-0.035,-0.130
4040,0.045,-0.080
4041,0.245,0.000
4042,0.485,0.050
4043,0.575,-0.025
4044,0.460,-0.220
4045,0.280,-0.545
4046,0.160,-0.600
4047,0.115,-0.465
4048,0.090,-0.320
4049,0.075,-0.265
4050,0.075,-0.230
4051,0.075,-0.230
4052,0.080,-0.215
4053,0.090,-0.210
4054,0.090,-0.205
4055,0.100,-0.195
4056,0.110,-0.195
4057,0.115,-0.190
4058,0.125,-0.190
4059,0.135,-0.170
4060,0.145,-0.175
4061,0.165,-0.160
4062,0.180,-0.175
4063,0.195,-0.155
4064,0.215,-0.165
4065,0.240,-0.140
4066,0.270,-0.130
4067,0.305,-0.100
4068,0.345,-0.085
4069,0.385,-0.045
4070,0.410,-0.025
4071,0.415,-0.010
4072,0.400,-0.010
4073,0.375,-0.010
4074,0.335,-0.025
4075,0.295,-0.055
4076,0.250,-0.080
4077,0.210,-0.110
4078,0.175,-0.125
4079,0.145,-0.135
4080,0.120,-0.145
4081,0.095,-0.150
4082,0.085,-0.160
4083,0.075,-0.160
4084,0.065,-0.170
4085,0.065,-0.170
4086,0.065,-0.195
4087,0.065,-0.195
4088,0.065,-0.220
4089,0.065,-0.210
4090,0.065,-0.235
4091,0.065,-0.215
4092,0.075,-0.245
4093,0.085,-0.240
4094,0.080,-0.290
4095,0.065,-0.285
4096,0.055,-0.335
4097,0.035,-0.320
4098,0.025,-0.335
4099,0.005,-0.315
4100,-0.015,-0.330
4101,-0.040,-0.315
4102,-0.055,-0.330
4103,-0.065,-0.320
4104,-0.075,-0.330
4105,-0.080,-0.335
4106,-0.070,-0.325
4107,-0.080,-0.295
4108,-0.090,-0.265
4109,-0.025,-0.210
4110,0.155,-0.115
4111,0.350,-0.075
4112,0.400,-0.150
4113,0.265,-0.405
4114,0.085,-0.720
4115,-0.025,-0.815
4116,-0.075,-0.690
4117,-0.105,-0.570
4118,-0.125,-0.500
4119,-0.135,-0.475
4120,-0.140,-0.475
4121,-0.140,-0.460
4122,-0.135,-0.455
4123,-0.130,-0.465
4124,-0.125,-0.510
4125,-0.120,-0.540
4126,-0.105,-0.575
4127,-0.085,-0.575
4128,-0.070,-0.580
4129,-0.055,-0.580
4130,-0.035,-0.590
4131,-0.015,-0.595
4132,0.000,-0.595
4133,0.015,-0.580
4134,0.045,-0.545
4135,0.090,-0.525
4136,0.145,-0.475
4137,0.200,-0.455
4138,0.255,-0.425
4139,0.290,-0.440
4140,0.305,-0.430
4141,0.305,-0.465
4142,0.275,-0.470
4143,0.240,-0.515
4144,0.205,-0.525
4145,0.165,-0.560
4146,0.125,-0.585
4147,0.095,-0.630
4148,0.075,-0.625
4149,0.055,-0.640
4150,0.040,-0.630
4151,0.030,-0.630
4152,0.020,-0.615
4153,0.020,-0.610
4154,0.015,-0.610
4155,0.015,-0.610
4156,0.015,-0.605
4157,0.015,-0.595
4158,0.020,-0.580
4159,0.025,-0.565
4160,0.025,-0.555
4161,0.035,-0.545
4162,0.045,-0.535
4163,0.040,-0.535
4164,0.030,-0.540
4165,0.020,-0.545
4166,0.005,-0.545
4167,-0.010,-0.550
4168,-0.035,-0.530
4169,-0.060,-0.535
4170,-0.075,-0.515
4171,-0.085,-0.520
4172,-0.085,-0.505
4173,-0.090,-0.510
4174,-0.085,-0.490
4175,-0.085,-0.500
4176,-0.095,-0.455
4177,-0.110,-0.415
4178,-0.050,-0.345
4179,0.135,-0.260
4180,0.375,-0.180
4181,0.455,-0.280
4182,0.320,-0.525
4183,0.130,-0.920
4184,0.005,-1.010
4185,-0.040,-0.870
4186,-0.065,-0.765
4187,-0.080,-0.695
4188,-0.085,-0.690
4189,-0.090,-0.665
4190,-0.080,-0.680
4191,-0.070,-0.665
4192,-0.070,-0.670
4193,-0.060,-0.660
4194,-0.050,-0.665
4195,-0.040,-0.660
4196,-0.030,-0.655
4197,-0.020,-0.645
4198,-0.010,-0.650
4199,0.000,-0.645
4200,0.005,-0.640
4201,0.020,-0.620
4202,0.035,-0.595
4203,0.060,-0.560
4204,0.100,-0.520
4205,0.145,-0.480
4206,0.190,-0.425
4207,0.230,-0.385
4208,0.265,-0.360
4209,0.285,-0.345
4210,0.285,-0.345
4211,0.265,-0.355
4212,0.230,-0.370
4213,0.190,-0.390
4214,0.155,-0.420
4215,0.115,-0.440
4216,0.085,-0.470
4217,0.060,-0.465
4218,0.040,-0.480
4219,0.020,-0.460
4220,0.010,-0.470
4221,0.010,-0.440
4222,0.010,-0.440
4223,0.010,-0.410
4224,0.010,-0.430
4225,0.005,-0.400
4226,0.010,-0.400
4227,0.020,-0.385
4228,0.030,-0.385
4229,0.035,-0.365
4230,0.035,-0.365
4231,0.045,-0.355
4232,0.050,-0.360
4233,0.040,-0.360
4234,0.025,-0.365
4235,0.010,-0.370
4236,-0.005,-0.350
4237,-0.025,-0.340
4238,-0.050,-0.315
4239,-0.075,-0.315
4240,-0.100,-0.305
4241,-0.110,-0.305
4242,-0.115,-0.290
4243,-0.115,-0.290
4244,-0.115,-0.275
4245,-0.125,-0.245
4246,-0.135,-0.200
4247,-0.080,-0.140
4248,0.075,-0.060
4249,0.285,0.000
4250,0.375,-0.045
4251,0.285,-0.230
4252,0.105,-0.510
4253,-0.030,-0.625
4254,-0.100,-0.485
4255,-0.130,-0.330
4256,-0.145,-0.255
4257,-0.160,-0.210
4258,-0.155,-0.190
4259,-0.150,-0.175
4260,-0.145,-0.160
4261,-0.130,-0.150
4262,-0.115,-0.140
4263,-0.100,-0.140
4264,-0.085,-0.125
4265,-0.070,-0.125
4266,-0.055,-0.105
4267,-0.055,-0.105
4268,-0.050,-0.095
4269,-0.035,-0.095
4270,-0.005,-0.065
4271,0.005,-0.065
4272,0.025,-0.015
4273,0.055,0.000
4274,0.100,0.030
4275,0.155,0.060
4276,0.205,0.115
4277,0.240,0.140
4278,0.260,0.170
4279,0.255,0.170
4280,0.235,0.170
4281,0.205,0.145
4282,0.170,0.135
4283,0.130,0.115
4284,0.090,0.110
4285,0.055,0.115
4286,0.025,0.115
4287,0.010,0.125
4288,0.005,0.135
4289,0.000,0.155
4290,0.000,0.175
4291,-0.005,0.190
4292,-0.010,0.215
4293,-0.010,0.225
4294,-0.015,0.235
4295,-0.015,0.235
4296,-0.010,0.250
4297,-0.005,0.245
4298,0.000,0.260
4299,0.005,0.255
4300,0.020,0.265
4301,0.025,0.255
4302,0.020,0.250
4303,0.010,0.225
4304,0.000,0.225
4305,-0.005,0.205
4306,-0.025,0.210
4307,-0.045,0.210
4308,-0.070,0.230
4309,-0.090,0.220
4310,-0.105,0.220
4311,-0.115,0.215
4312,-0.120,0.215
4313,-0.120,0.215
4314,-0.110,0.215
4315,-0.120,0.255
4316,-0.125,0.265
4317,-0.035,0.345
4318,0.160,0.410
4319,0.345,0.455
4320,0.360,0.310
4321,0.220,0.070
4322,0.050,-0.180
4323,-0.060,-0.150
4324,-0.120,-0.020
4325,-0.150,0.085
4326,-0.170,0.135
4327,-0.175,0.160
4328,-0.170,0.165
4329,-0.165,0.175
4330,-0.155,0.180
4331,-0.140,0.175
4332,-0.125,0.180
4333,-0.115,0.185
4334,-0.105,0.195
4335,-0.090,0.200
4336,-0.070,0.210
4337,-0.060,0.210
4338,-0.050,0.210
4339,-0.040,0.220
4340,-0.025,0.230
4341,-0.005,0.250
4342,0.015,0.265
4343,0.040,0.305
4344,0.085,0.340
4345,0.140,0.390
4346,0.190,0.415
4347,0.220,0.460
4348,0.225,0.450
4349,0.210,0.455
4350,0.185,0.410
4351,0.155,0.405
4352,0.115,0.350
4353,0.075,0.330
4354,0.035,0.265
4355,0.000,0.265
4356,-0.010,0.225
4357,-0.015,0.215
4358,-0.025,0.185
4359,-0.045,0.185
4360,-0.060,0.165
4361,-0.065,0.165
4362,-0.065,0.155
4363,-0.065,0.140
4364,-0.065,0.140
4365,-0.050,0.130
4366,-0.040,0.135
4367,-0.045,0.130
4368,-0.040,0.130
4369,-0.020,0.130
4370,-0.005,0.130
4371,-0.005,0.110
4372,-0.005,0.105
4373,-0.010,0.090
4374,-0.015,0.070
4375,-0.035,0.065
4376,-0.050,0.055
4377,-0.075,0.055
4378,-0.095,0.040
4379,-0.120,0.040
4380,-0.130,0.030
4381,-0.125,0.035
4382,-0.125,0.025
4383,-0.130,0.040
4384,-0.165,0.040
4385,-0.190,0.060
4386,-0.130,0.105
4387,0.075,0.230
4388,0.325,0.350
4389,0.425,0.340
4390,0.310,0.130
4391,0.120,-0.240
4392,-0.020,-0.300
4393,-0.095,-0.145
4394,-0.140,-0.020
4395,-0.165,-0.005
4396,-0.185,0.000
4397,-0.190,0.005
4398,-0.185,0.015
4399,-0.165,0.005
4400,-0.150,0.030
4401,-0.140,0.005
4402,-0.125,0.035
4403,-0.115,0.020
4404,-0.100,0.035
4405,-0.080,0.025
4406,-0.065,0.040
4407,-0.050,0.035
4408,-0.035,0.045
4409,-0.015,0.055
4410,0.005,0.075
4411,0.030,0.090
4412,0.070,0.110
4413,0.125,0.140
4414,0.185,0.175
4415,0.240,0.210
4416,0.285,0.230
4417,0.300,0.245
4418,0.295,0.235
4419,0.270,0.215
4420,0.235,0.190
4421,0.190,0.150
4422,0.145,0.125
4423,0.105,0.090
4424,0.070,0.075
4425,0.045,0.045
4426,0.030,0.045
4427,0.020,0.020
4428,0.010,0.035
4429,0.005,0.005
4430,0.000,0.025
4431,0.000,0.005
4432,0.000,0.005
4433,0.000,0.000
4434,0.000,0.000
4435,0.010,0.000
4436,0.015,0.015
4437,0.020,0.015
4438,0.020,0.035
4439,0.025,0.040
4440,0.030,0.030
4441,0.030,0.020
4442,0.020,0.005
4443,0.015,0.005
4444,0.000,0.005
4445,-0.010,0.005
4446,-0.035,0.005
4447,-0.060,0.010
4448,-0.085,0.000
4449,-0.100,0.005
4450,-0.105,0.000
4451,-0.110,0.010
4452,-0.100,0.005
4453,-0.105,0.035
4454,-0.115,0.065
4455,-0.070,0.130
4456,0.075,0.205
4457,0.270,0.250
4458,0.370,0.195
4459,0.290,0.005
4460,0.115,-0.260
4461,-0.025,-0.395
4462,-0.090,-0.265
4463,-0.120,-0.125
4464,-0.135,-0.045
4465,-0.145,-0.010
4466,-0.150,0.000
4467,-0.145,0.000
4468,-0.135,0.005
4469,-0.125,0.005
4470,-0.110,0.005
4471,-0.100,0.005
4472,-0.085,0.005
4473,-0.075,0.015
4474,-0.070,0.005
4475,-0.060,0.025
4476,-0.045,0.005
4477,-0.030,0.040
4478,-0.010,0.020
4479,0.000,0.055
4480,0.020,0.055
4481,0.045,0.095
4482,0.085,0.100
4483,0.135,0.140
4484,0.185,0.150
4485,0.225,0.190
4486,0.245,0.195
4487,0.250,0.200
4488,0.230,0.175
4489,0.205,0.145
4490,0.165,0.120
4491,0.130,0.085
4492,0.090,0.050
4493,0.055,0.020
4494,0.030,0.005
4495,0.010,0.000
4496,0.000,0.000
4497,-0.010,0.000
4498,-0.015,0.000
4499,-0.015,0.000
4500,-0.020,0.000
4501,-0.020,0.000
4502,-0.015,0.000
4503,-0.005,0.000
4504,0.000,0.000
4505,0.005,0.000
4506,0.010,0.000
4507,0.020,0.000
4508,0.025,0.000
4509,0.020,0.000
4510,0.015,-0.010
4511,0.005,-0.015
4512,-0.005,-0.030
4513,-0.025,-0.015
4514,-0.050,-0.020
4515,-0.075,-0.015
4516,-0.100,-0.025
4517,-0.120,-0.025
4518,-0.130,-0.035
4519,-0.125,-0.030
4520,-0.125,-0.025
4521,-0.125,-0.025
4522,-0.145,0.000
4523,-0.145,0.000
4524,-0.040,0.100
4525,0.175,0.175
4526,0.370,0.235
4527,0.365,0.080
4528,0.190,-0.145
4529,0.025,-0.430
4530,-0.070,-0.345
4531,-0.115,-0.205
4532,-0.140,-0.090
4533,-0.155,-0.050
4534,-0.160,-0.010
4535,-0.150,-0.005
4536,-0.145,0.000
4537,-0.135,0.000
4538,-0.125,0.000
4539,-0.115,0.000
4540,-0.100,0.000
4541,-0.085,0.005
4542,-0.075,0.005
4543,-0.065,0.005
4544,-0.055,0.010
4545,-0.040,0.015
4546,-0.020,0.030
4547,-0.005,0.040
4548,0.010,0.060
4549,0.035,0.080
4550,0.070,0.120
4551,0.120,0.145
4552,0.165,0.175
4553,0.210,0.200
4554,0.240,0.230
4555,0.255,0.220
4556,0.245,0.215
4557,0.220,0.190
4558,0.190,0.175
4559,0.150,0.125
4560,0.115,0.110
4561,0.075,0.065
4562,0.045,0.060
4563,0.025,0.025
4564,0.005,0.020
4565,0.000,0.005
4566,0.000,0.005
4567,-0.005,0.005
4568,-0.010,0.005
4569,-0.010,0.005
4570,-0.005,0.005
4571,0.000,0.015
4572,0.005,0.010
4573,0.015,0.025
4574,0.020,0.015
4575,0.030,0.025
4576,0.035,0.010
4577,0.030,0.005
4578,0.020,0.000
4579,0.010,0.000
4580,0.000,-0.015
4581,-0.005,-0.005
4582,-0.025,-0.015
4583,-0.045,-0.010
4584,-0.070,-0.010
4585,-0.095,-0.015
4586,-0.110,-0.025
4587,-0.115,-0.030
4588,-0.110,-0.030
4589,-0.100,-0.025
4590,-0.110,-0.005
4591,-0.120,0.010
4592,-0.060,0.065
4593,0.110,0.160
4594,0.315,0.220
4595,0.380,0.150
4596,0.265,-0.070
4597,0.085,-0.345
4598,-0.030,-0.430
4599,-0.085,-0.260
4600,-0.110,-0.130
4601,-0.135,-0.055
4602,-0.140,-0.030
4603,-0.135,0.000
4604,-0.130,-0.005
4605,-0.125,0.000
4606,-0.115,0.000
4607,-0.100,0.000
4608,-0.090,0.000
4609,-0.080,0.005
4610,-0.075,0.000
4611,-0.060,0.020
4612,-0.045,0.005
4613,-0.035,0.035
4614,-0.025,0.040
4615,-0.005,0.050
4616,0.010,0.060
4617,0.035,0.085
4618,0.070,0.115
4619,0.115,0.140
4620,0.170,0.180
4621,0.220,0.210
4622,0.245,0.235
4623,0.260,0.240
4624,0.260,0.235
4625,0.240,0.210
4626,0.205,0.190
4627,0.165,0.150
4628,0.125,0.120
4629,0.085,0.095
4630,0.055,0.070
4631,0.030,0.050
4632,0.020,0.040
4633,0.010,0.030
4634,0.000,0.015
4635,0.000,0.030
4636,0.000,0.025
4637,-0.005,0.035
4638,0.000,0.025
4639,0.000,0.040
4640,0.000,0.040
4641,0.010,0.050
4642,0.015,0.045
4643,0.020,0.050
4644,0.035,0.045
4645,0.040,0.040
4646,0.030,0.020
4647,0.020,0.005
4648,0.010,0.000
4649,0.000,0.000
4650,-0.015,0.000
4651,-0.030,0.000
4652,-0.060,0.000
4653,-0.090,0.000
4654,-0.105,0.000
4655,-0.110,0.000
4656,-0.115,0.000
4657,-0.110,-0.005
4658,-0.110,0.000
4659,-0.135,0.020
4660,-0.120,0.075
4661,-0.005,0.135
4662,0.205,0.235
4663,0.360,0.225
4664,0.330,0.095
4665,0.165,-0.185
4666,0.015,-0.375
4667,-0.065,-0.310
4668,-0.105,-0.160
4669,-0.130,-0.060
4670,-0.150,-0.010
4671,-0.150,0.000
4672,-0.145,0.000
4673,-0.135,0.005
4674,-0.130,0.005
4675,-0.125,0.005
4676,-0.120,0.010
4677,-0.105,0.015
4678,-0.085,0.025
4679,-0.065,0.025
4680,-0.055,0.040
4681,-0.050,0.045
4682,-0.045,0.060
4683,-0.030,0.060
4684,-0.005,0.090
4685,0.005,0.095
4686,0.035,0.125
4687,0.070,0.135
4688,0.120,0.195
4689,0.175,0.215
4690,0.215,0.260
4691,0.240,0.265
4692,0.235,0.270
4693,0.230,0.250
4694,0.215,0.235
4695,0.180,0.195
4696,0.140,0.160
4697,0.105,0.120
4698,0.075,0.095
4699,0.040,0.075
4700,0.020,0.045
4701,0.010,0.045
4702,0.000,0.025
4703,-0.015,0.030
4704,-0.025,0.020
4705,-0.020,0.035
4706,-0.010,0.025
4707,-0.005,0.035
4708,0.000,0.025
4709,0.000,0.045
4710,0.005,0.045
4711,0.005,0.050
4712,0.015,0.050
4713,0.020,0.040
4714,0.020,0.020
4715,0.015,0.005
4716,0.010,0.000
4717,0.000,0.000
4718,-0.025,0.000
4719,-0.055,0.000
4720,-0.080,0.000
4721,-0.100,0.000
4722,-0.115,0.000
4723,-0.130,0.000
4724,-0.130,0.000
4725,-0.125,0.000
4726,-0.125,0.000
4727,-0.130,0.005
4728,-0.140,0.030
4729,-0.090,0.090
4730,0.080,0.175
4731,0.295,0.255
4732,0.365,0.165
4733,0.255,-0.020
4734,0.070,-0.355
4735,-0.050,-0.390
4736,-0.110,-0.240
4737,-0.140,-0.085
4738,-0.155,-0.045
4739,-0.165,0.000
4740,-0.170,0.000
4741,-0.160,0.000
4742,-0.145,0.005
4743,-0.135,0.010
4744,-0.130,0.005
4745,-0.120,0.015
4746,-0.110,0.020
4747,-0.095,0.030
4748,-0.080,0.035
4749,-0.070,0.040
4750,-0.055,0.055
4751,-0.040,0.060
4752,-0.020,0.075
4753,0.000,0.090
4754,0.015,0.110
4755,0.050,0.130
4756,0.095,0.165
4757,0.145,0.205
4758,0.185,0.240
4759,0.220,0.265
4760,0.235,0.265
4761,0.230,0.255
4762,0.215,0.230
4763,0.185,0.205
4764,0.150,0.165
4765,0.110,0.130
4766,0.070,0.095
4767,0.040,0.075
4768,0.025,0.040
4769,0.010,0.030
4770,0.000,0.010
4771,0.000,0.010
4772,-0.005,0.005
4773,-0.010,0.005
4774,-0.010,0.005
4775,-0.020,0.005
4776,-0.020,0.000
4777,-0.010,0.000
4778,0.000,0.000
4779,0.000,0.000
4780,0.000,0.005
4781,0.005,0.000
4782,0.010,0.000
4783,0.005,0.000
4784,-0.005,0.000
4785,-0.030,-0.025
4786,-0.045,-0.020
4787,-0.060,-0.035
4788,-0.070,-0.020
4789,-0.080,-0.030
4790,-0.095,-0.015
4791,-0.105,-0.030
4792,-0.115,-0.025
4793,-0.130,-0.025
4794,-0.150,-0.025
4795,-0.175,-0.015
4796,-0.205,0.000
4797,-0.220,0.005
4798,-0.135,0.065
4799,0.070,0.185
4800,0.290,0.270
4801,0.360,0.205
4802,0.260,-0.035
4803,0.085,-0.300
4804,-0.060,-0.355
4805,-0.145,-0.220
4806,-0.185,-0.100
4807,-0.205,-0.035
4808,-0.200,0.000
4809,-0.195,0.000
4810,-0.195,0.000
4811,-0.195,0.005
4812,-0.195,0.020
4813,-0.195,0.005
4814,-0.190,0.025
4815,-0.185,0.015
4816,-0.170,0.040
4817,-0.150,0.035
4818,-0.140,0.055
4819,-0.130,0.050
4820,-0.105,0.075
4821,-0.080,0.075
4822,-0.060,0.095
4823,-0.025,0.120
4824,0.000,0.140
4825,0.040,0.175
4826,0.095,0.215
4827,0.155,0.255
4828,0.190,0.265
4829,0.215,0.265
4830,0.215,0.250
4831,0.185,0.225
4832,0.150,0.180
4833,0.100,0.150
4834,0.045,0.105
4835,0.020,0.080
4836,0.010,0.040
4837,0.000,0.025
4838,-0.020,0.010
4839,-0.045,0.005
4840,-0.065,0.005
4841,-0.080,0.000
4842,-0.095,0.000
4843,-0.105,0.010
4844,-0.095,0.025
4845,-0.080,0.035
4846,-0.065,0.055
4847,-0.045,0.065
4848,-0.025,0.080
4849,-0.020,0.080
4850,-0.015,0.075
4851,0.000,0.060
4852,0.000,0.055
4853,0.000,0.035
4854,-0.005,0.020
4855,-0.015,0.015
4856,-0.035,0.005
4857,-0.055,0.010
4858,-0.070,0.005
4859,-0.085,0.000
4860,-0.090,0.000
4861,-0.095,0.000
4862,-0.095,0.000
4863,-0.095,0.000
4864,-0.105,0.000
4865,-0.130,0.005
4866,-0.130,0.005
4867,0.000,0.120
4868,0.245,0.230
4869,0.420,0.285
4870,0.395,0.120
4871,0.210,-0.210
4872,0.040,-0.450
4873,-0.045,-0.370
4874,-0.085,-0.230
4875,-0.110,-0.140
4876,-0.125,-0.110
4877,-0.130,-0.100
4878,-0.125,-0.095
4879,-0.120,-0.090
4880,-0.110,-0.080
4881,-0.100,-0.085
4882,-0.085,-0.085
4883,-0.075,-0.090
4884,-0.065,-0.085
4885,-0.050,-0.085
4886,-0.035,-0.075
4887,-0.020,-0.060
4888,0.000,-0.060
4889,0.010,-0.055
4890,0.025,-0.055
4891,0.055,-0.035
4892,0.090,-0.025
4893,0.135,0.000
4894,0.190,0.010
4895,0.245,0.045
4896,0.285,0.065
4897,0.310,0.090
4898,0.315,0.090
4899,0.295,0.085
4900,0.265,0.055
4901,0.220,0.040
4902,0.180,0.005
4903,0.135,0.000
4904,0.090,-0.010
4905,0.055,-0.025
4906,0.030,-0.035
4907,0.020,-0.055
4908,0.010,-0.055
4909,0.000,-0.065
4910,0.000,-0.055
4911,-0.005,-0.070
4912,-0.005,-0.055
4913,-0.005,-0.070
4914,-0.005,-0.050
4915,0.000,-0.060
4916,0.000,-0.040
4917,0.005,-0.045
4918,0.010,-0.030
4919,0.015,-0.045
4920,0.020,-0.050
4921,0.020,-0.060
4922,0.010,-0.070
4923,0.000,-0.085
4924,-0.010,-0.080
4925,-0.030,-0.075
4926,-0.055,-0.075
4927,-0.080,-0.080
4928,-0.105,-0.090
4929,-0.115,-0.090
4930,-0.125,-0.100
4931,-0.125,-0.100
4932,-0.125,-0.095
4933,-0.130,-0.075
4934,-0.145,-0.040
4935,-0.100,0.000
4936,0.055,0.080
4937,0.275,0.145
4938,0.400,0.130
4939,0.325,-0.055
4940,0.135,-0.320
4941,-0.020,-0.485
4942,-0.100,-0.325
4943,-0.130,-0.205
4944,-0.155,-0.110
4945,-0.165,-0.095
4946,-0.160,-0.055
4947,-0.155,-0.055
4948,-0.150,-0.035
4949,-0.140,-0.040
4950,-0.135,-0.025
4951,-0.125,-0.025
4952,-0.110,-0.015
4953,-0.095,-0.015
4954,-0.080,-0.010
4955,-0.070,-0.005
4956,-0.055,0.000
4957,-0.040,0.000
4958,-0.020,0.000
4959,0.000,0.005
4960,0.015,0.010
4961,0.040,0.050
4962,0.070,0.080
4963,0.115,0.120
4964,0.155,0.145
4965,0.195,0.185
4966,0.215,0.185
4967,0.220,0.180
4968,0.205,0.160
4969,0.175,0.135
4970,0.145,0.105
4971,0.110,0.075
4972,0.070,0.040
4973,0.035,0.010
4974,0.015,0.000
4975,0.000,0.000
4976,-0.010,-0.005
4977,-0.020,-0.010
4978,-0.030,-0.010
4979,-0.040,-0.015
4980,-0.040,-0.010
4981,-0.035,-0.005
4982,-0.025,0.000
4983,-0.015,0.000
4984,0.000,0.000
4985,0.000,0.000
4986,0.005,0.000
4987,0.015,0.000
4988,0.015,-0.015
4989,0.010,-0.010
4990,0.000,-0.050
4991,-0.005,-0.050
4992,-0.025,-0.070
4993,-0.040,-0.050
4994,-0.070,-0.070
4995,-0.100,-0.050
4996,-0.125,-0.075
4997,-0.140,-0.055
4998,-0.145,-0.085
4999,-0.145,-0.070
5000,-0.135,-0.080
5001,-0.135,-0.050
5002,-0.155,-0.025
5003,-0.135,0.000
5004,-0.015,0.065
5005,0.200,0.155
5006,0.360,0.165
5007,0.330,0.035
5008,0.165,-0.245
5009,0.005,-0.440
5010,-0.075,-0.370
5011,-0.115,-0.225
5012,-0.140,-0.125
5013,-0.155,-0.075
5014,-0.160,-0.055
5015,-0.155,-0.045
5016,-0.145,-0.040
5017,-0.140,-0.030
5018,-0.135,-0.030
5019,-0.125,-0.015
5020,-0.115,-0.015
5021,-0.100,-0.005
5022,-0.085,-0.010
5023,-0.070,0.000
5024,-0.055,0.000
5025,-0.045,0.000
5026,-0.025,0.000
5027,-0.005,0.015
5028,0.010,0.030
5029,0.035,0.060
5030,0.060,0.090
5031,0.100,0.125
5032,0.150,0.160
5033,0.195,0.185
5034,0.225,0.205
5035,0.225,0.200
5036,0.220,0.200
5037,0.200,0.165
5038,0.165,0.150
5039,0.120,0.105
5040,0.080,0.090
5041,0.045,0.045
5042,0.020,0.030
5043,0.010,0.005
5044,0.000,0.000
5045,-0.005,0.000
5046,-0.015,0.000
5047,-0.020,0.000
5048,-0.020,0.000
5049,-0.020,0.000
5050,-0.010,0.000
5051,0.000,0.000
5052,0.010,0.005
5053,0.015,0.005
5054,0.025,0.005
5055,0.040,0.005
5056,0.050,0.000
5057,0.045,0.000
5058,0.035,-0.015
5059,0.020,-0.025
5060,0.005,-0.030
5061,-0.005,-0.030
5062,-0.030,-0.025
5063,-0.055,-0.030
5064,-0.075,-0.030
5065,-0.090,-0.040
5066,-0.105,-0.040
5067,-0.110,-0.050
5068,-0.105,-0.035
5069,-0.100,-0.035
5070,-0.120,0.000
5071,-0.110,0.020
5072,0.005,0.120
5073,0.215,0.195
5074,0.380,0.230
5075,0.340,0.045
5076,0.160,-0.200
5077,0.000,-0.470
5078,-0.065,-0.310
5079,-0.100,-0.160
5080,-0.120,-0.060
5081,-0.130,-0.025
5082,-0.135,0.000
5083,-0.135,0.000
5084,-0.135,0.000
5085,-0.135,0.000
5086,-0.120,0.005
5087,-0.100,0.005
5088,-0.090,0.005
5089,-0.085,0.020
5090,-0.075,0.015
5091,-0.060,0.030
5092,-0.050,0.040
5093,-0.040,0.055
5094,-0.020,0.060
5095,-0.005,0.080
5096,0.010,0.090
5097,0.035,0.115
5098,0.075,0.150
5099,0.115,0.185
5100,0.165,0.225
5101,0.210,0.255
5102,0.235,0.265
5103,0.245,0.260
5104,0.235,0.250
5105,0.205,0.225
5106,0.170,0.200
5107,0.130,0.160
5108,0.095,0.130
5109,0.065,0.100
5110,0.040,0.075
5111,0.020,0.055
5112,0.000,0.045
5113,0.000,0.040
5114,-0.005,0.030
5115,-0.010,0.040
5116,-0.005,0.020
5117,-0.005,0.040
5118,0.000,0.020
5119,0.005,0.040
5120,0.015,0.040
5121,0.015,0.060
5122,0.020,0.040
5123,0.020,0.055
5124,0.025,0.015
5125,0.020,0.020
5126,0.010,0.000
5127,0.000,0.000
5128,-0.010,0.000
5129,-0.030,0.000
5130,-0.055,0.000
5131,-0.080,0.000
5132,-0.100,0.000
5133,-0.115,-0.005
5134,-0.120,-0.005
5135,-0.125,-0.005
5136,-0.130,0.000
5137,-0.135,0.000
5138,-0.155,0.025
5139,-0.125,0.070
5140,0.010,0.155
5141,0.215,0.235
5142,0.335,0.200
5143,0.280,0.030
5144,0.120,-0.230
5145,-0.020,-0.385
5146,-0.095,-0.270
5147,-0.125,-0.125
5148,-0.145,-0.055
5149,-0.150,0.000
5150,-0.150,0.000
5151,-0.145,0.000
5152,-0.140,0.000
5153,-0.130,0.000
5154,-0.120,0.000
5155,-0.100,0.005
5156,-0.075,0.005
5157,-0.060,0.015
5158,-0.050,0.010
5159,-0.040,0.025
5160,-0.030,0.035
5161,-0.020,0.045
5162,-0.010,0.055
5163,0.000,0.065
5164,0.005,0.095
5165,0.030,0.115
5166,0.060,0.155
5167,0.105,0.175
5168,0.150,0.240
5169,0.185,0.245
5170,0.215,0.260
5171,0.220,0.245
5172,0.200,0.250
5173,0.180,0.205
5174,0.150,0.180
5175,0.110,0.135
5176,0.070,0.115
5177,0.040,0.080
5178,0.015,0.065
5179,0.000,0.040
5180,-0.010,0.035
5181,-0.020,0.020
5182,-0.025,0.020
5183,-0.025,0.020
5184,-0.025,0.015
5185,-0.025,0.015
5186,-0.020,0.015
5187,-0.010,0.020
5188,0.000,0.020
5189,0.000,0.015
5190,0.010,0.020
5191,0.015,0.010
5192,0.015,0.005
5193,0.010,0.000
5194,0.000,-0.005
5195,-0.015,-0.025
5196,-0.030,-0.010
5197,-0.055,-0.020
5198,-0.085,-0.010
5199,-0.110,-0.025
5200,-0.130,0.000
5201,-0.135,0.000
5202,-0.135,0.000
5203,-0.130,0.000
5204,-0.125,0.010
5205,-0.135,0.020
5206,-0.155,0.070
5207,-0.110,0.095
5208,0.050,0.200
5209,0.260,0.255
5210,0.330,0.175
5211,0.225,-0.005
5212,0.065,-0.320
5213,-0.045,-0.350
5214,-0.100,-0.205
5215,-0.140,-0.080
5216,-0.160,-0.025
5217,-0.165,0.000
5218,-0.160,0.000
5219,-0.155,0.015
5220,-0.150,0.015
5221,-0.145,0.030
5222,-0.135,0.025
5223,-0.125,0.040
5224,-0.110,0.040
5225,-0.095,0.050
5226,-0.080,0.055
5227,-0.075,0.060
5228,-0.065,0.075
5229,-0.050,0.085
5230,-0.030,0.100
5231,-0.010,0.105
5232,0.010,0.130
5233,0.040,0.150
5234,0.080,0.190
5235,0.120,0.225
5236,0.155,0.260
5237,0.190,0.275
5238,0.215,0.285
5239,0.220,0.275
5240,0.200,0.255
5241,0.170,0.230
5242,0.140,0.185
5243,0.105,0.155
5244,0.075,0.115
5245,0.045,0.100
5246,0.020,0.055
5247,0.000,0.065
5248,-0.005,0.030
5249,-0.010,0.045
5250,-0.015,0.020
5251,-0.020,0.040
5252,-0.025,0.020
5253,-0.025,0.040
5254,-0.005,0.015
5255,0.000,0.040
5256,0.005,0.020
5257,0.010,0.035
5258,0.020,0.025
5259,0.025,0.025
5260,0.025,0.010
5261,0.010,0.000
5262,0.000,-0.005
5263,-0.005,-0.010
5264,-0.025,-0.010
5265,-0.050,-0.015
5266,-0.080,-0.010
5267,-0.105,-0.010
5268,-0.125,-0.010
5269,-0.135,-0.020
5270,-0.140,-0.020
5271,-0.140,-0.020
5272,-0.140,-0.015
5273,-0.150,0.000
5274,-0.155,0.025
5275,-0.090,0.085
5276,0.070,0.165
5277,0.250,0.195
5278,0.305,0.085
5279,0.210,-0.110
5280,0.060,-0.370
5281,-0.055,-0.375
5282,-0.115,-0.220
5283,-0.145,-0.095
5284,-0.165,-0.045
5285,-0.170,-0.020
5286,-0.160,-0.015
5287,-0.150,-0.005
5288,-0.145,0.000
5289,-0.140,0.000
5290,-0.130,0.000
5291,-0.125,0.000
5292,-0.105,0.000
5293,-0.090,0.005
5294,-0.075,0.005
5295,-0.060,0.005
5296,-0.055,0.030
5297,-0.045,0.025
5298,-0.025,0.060
5299,0.000,0.050
5300,0.015,0.100
5301,0.045,0.115
5302,0.080,0.160
5303,0.130,0.190
5304,0.170,0.240
5305,0.190,0.255
5306,0.195,0.260
5307,0.185,0.240
5308,0.160,0.220
5309,0.130,0.180
5310,0.100,0.145
5311,0.060,0.110
5312,0.030,0.085
5313,0.005,0.060
5314,-0.010,0.030
5315,-0.030,0.015
5316,-0.040,0.005
5317,-0.050,0.005
5318,-0.055,0.000
5319,-0.055,0.000
5320,-0.065,0.000
5321,-0.065,0.000
5322,-0.055,0.000
5323,-0.045,0.000
5324,-0.035,0.010
5325,-0.015,0.000
5326,0.000,0.000
5327,0.000,0.000
5328,0.000,0.000
5329,0.000,-0.015
5330,-0.005,-0.005
5331,-0.025,-0.040
5332,-0.040,-0.020
5333,-0.060,-0.040
5334,-0.085,-0.020
5335,-0.105,-0.035
5336,-0.115,-0.025
5337,-0.120,-0.050
5338,-0.130,-0.050
5339,-0.135,-0.060
5340,-0.135,-0.040
5341,-0.175,-0.040
5342,-0.190,-0.040
5343,-0.085,0.025
5344,0.140,0.165
5345,0.335,0.255
5346,0.370,0.155
5347,0.255,-0.120
5348,0.090,-0.375
5349,-0.030,-0.350
5350,-0.095,-0.210
5351,-0.130,-0.110
5352,-0.150,-0.080
5353,-0.155,-0.055
5354,-0.155,-0.050
5355,-0.150,-0.035
5356,-0.150,-0.025
5357,-0.145,-0.020
5358,-0.140,-0.010
5359,-0.125,-0.015
5360,-0.100,-0.005
5361,-0.085,-0.010
5362,-0.075,0.000
5363,-0.070,0.000
5364,-0.055,0.005
5365,-0.035,0.005
5366,-0.015,0.020
5367,0.000,0.035
5368,0.025,0.060
5369,0.060,0.095
5370,0.105,0.120
5371,0.150,0.165
5372,0.195,0.185
5373,0.230,0.230
5374,0.245,0.215
5375,0.235,0.220
5376,0.215,0.170
5377,0.170,0.165
5378,0.125,0.105
5379,0.090,0.090
5380,0.055,0.030
5381,0.030,0.030
5382,0.010,0.000
5383,0.000,0.000
5384,-0.005,-0.005
5385,-0.015,0.000
5386,-0.020,-0.010
5387,-0.025,0.000
5388,-0.025,-0.010
5389,-0.020,-0.005
5390,-0.015,-0.005
5391,-0.005,0.000
5392,0.000,0.000
5393,0.000,0.000
5394,0.010,-0.005
5395,0.015,-0.015
5396,0.015,-0.025
5397,0.015,-0.040
5398,0.010,-0.050
5399,0.005,-0.055
5400,-0.005,-0.055
5401,-0.025,-0.055
5402,-0.045,-0.060
5403,-0.070,-0.065
5404,-0.085,-0.085
5405,-0.085,-0.090
5406,-0.085,-0.105
5407,-0.080,-0.095
5408,-0.070,-0.110
5409,-0.080,-0.110
5410,-0.065,-0.100
5411,0.035,-0.015
5412,0.235,0.015
5413,0.390,0.020
5414,0.355,-0.140
5415,0.170,-0.400
5416,0.010,-0.650
5417,-0.060,-0.530
5418,-0.085,-0.350
5419,-0.100,-0.240
5420,-0.115,-0.185
5421,-0.120,-0.175
5422,-0.120,-0.150
5423,-0.115,-0.150
5424,-0.105,-0.130
5425,-0.090,-0.140
5426,-0.080,-0.120
5427,-0.075,-0.130
5428,-0.065,-0.120
5429,-0.055,-0.120
5430,-0.045,-0.110
5431,-0.030,-0.115
5432,-0.020,-0.105
5433,-0.005,-0.105
5434,0.000,-0.080
5435,0.015,-0.060
5436,0.040,-0.030
5437,0.080,0.000
5438,0.130,0.020
5439,0.175,0.055
5440,0.220,0.090
5441,0.245,0.110
5442,0.250,0.105
5443,0.240,0.095
5444,0.215,0.070
5445,0.180,0.040
5446,0.140,0.015
5447,0.100,0.000
5448,0.070,-0.010
5449,0.040,-0.030
5450,0.025,-0.035
5451,0.010,-0.060
5452,0.000,-0.060
5453,0.000,-0.075
5454,-0.005,-0.055
5455,-0.005,-0.065
5456,0.000,-0.040
5457,0.000,-0.060
5458,0.005,-0.030
5459,0.015,-0.040
5460,0.020,-0.015
5461,0.020,-0.035
5462,0.025,-0.020
5463,0.030,-0.045
5464,0.025,-0.050
5465,0.015,-0.070
5466,0.000,-0.080
5467,-0.010,-0.090
5468,-0.030,-0.080
5469,-0.055,-0.085
5470,-0.075,-0.090
5471,-0.100,-0.095
5472,-0.125,-0.100
5473,-0.130,-0.100
5474,-0.135,-0.110
5475,-0.135,-0.100
5476,-0.140,-0.095
5477,-0.155,-0.060
5478,-0.125,-0.015
5479,0.005,0.060
5480,0.220,0.130
5481,0.355,0.115
5482,0.300,-0.025
5483,0.125,-0.305
5484,-0.015,-0.485
5485,-0.090,-0.390
5486,-0.120,-0.230
5487,-0.135,-0.140
5488,-0.145,-0.105
5489,-0.145,-0.090
5490,-0.140,-0.070
5491,-0.135,-0.065
5492,-0.125,-0.055
5493,-0.115,-0.055
5494,-0.105,-0.045
5495,-0.095,-0.040
5496,-0.080,-0.030
5497,-0.075,-0.020
5498,-0.065,-0.015
5499,-0.050,0.000
5500,-0.035,0.000
5501,-0.020,0.000
5502,-0.005,0.000
5503,0.010,0.035
5504,0.035,0.045
5505,0.065,0.095
5506,0.115,0.110
5507,0.165,0.165
5508,0.200,0.165
5509,0.225,0.200
5510,0.230,0.175
5511,0.215,0.175
5512,0.190,0.130
5513,0.155,0.120
5514,0.115,0.070
5515,0.075,0.045
5516,0.045,0.015
5517,0.025,0.000
5518,0.005,-0.005
5519,0.000,-0.010
5520,-0.005,-0.015
5521,-0.010,-0.020
5522,-0.015,-0.010
5523,-0.015,-0.015
5524,-0.010,-0.010
5525,0.000,-0.010
5526,0.000,-0.005
5527,0.005,0.000
5528,0.015,-0.005
5529,0.020,0.000
5530,0.030,-0.005
5531,0.040,-0.005
5532,0.035,-0.020
5533,0.025,-0.030
5534,0.010,-0.060
5535,0.000,-0.055
5536,-0.015,-0.065
5537,-0.045,-0.050
5538,-0.070,-0.060
5539,-0.095,-0.050
5540,-0.110,-0.065
5541,-0.120,-0.055
5542,-0.120,-0.075
5543,-0.130,-0.065
5544,-0.130,-0.055
5545,-0.150,-0.015
5546,-0.135,0.000
5547,0.000,0.085
5548,0.230,0.185
5549,0.385,0.180
5550,0.325,0.025
5551,0.140,-0.285
5552,-0.005,-0.465
5553,-0.080,-0.355
5554,-0.125,-0.190
5555,-0.145,-0.115
5556,-0.150,-0.060
5557,-0.145,-0.055
5558,-0.140,-0.030
5559,-0.130,-0.035
5560,-0.120,-0.015
5561,-0.110,-0.015
5562,-0.095,-0.005
5563,-0.080,-0.005
5564,-0.065,-0.005
5565,-0.055,0.000
5566,-0.045,0.000
5567,-0.035,0.005
5568,-0.025,0.020
5569,-0.010,0.035
5570,0.005,0.050
5571,0.030,0.075
5572,0.055,0.100
5573,0.095,0.125
5574,0.135,0.160
5575,0.175,0.200
5576,0.210,0.225
5577,0.235,0.240
5578,0.240,0.240
5579,0.220,0.215
5580,0.190,0.200
5581,0.165,0.160
5582,0.130,0.135
5583,0.095,0.090
5584,0.065,0.085
5585,0.040,0.050
5586,0.020,0.045
5587,0.005,0.015
5588,0.000,0.030
5589,0.000,0.005
5590,0.000,0.025
5591,0.000,0.010
5592,0.000,0.025
5593,0.000,0.020
5594,0.000,0.035
5595,0.010,0.035
5596,0.015,0.040
5597,0.020,0.040
5598,0.035,0.040
5599,0.040,0.025
5600,0.040,0.010
5601,0.030,0.005
5602,0.025,0.000
5603,0.015,0.000
5604,0.005,0.000
5605,-0.015,0.000
5606,-0.050,0.000
5607,-0.085,0.000
5608,-0.105,0.000
5609,-0.115,0.000
5610,-0.120,0.000
5611,-0.115,0.000
5612,-0.110,0.005
5613,-0.125,0.045
5614,-0.120,0.090
5615,-0.020,0.150
5616,0.170,0.245
5617,0.330,0.255
5618,0.320,0.125
5619,0.170,-0.125
5620,0.015,-0.365
5621,-0.070,-0.325
5622,-0.110,-0.155
5623,-0.130,-0.055
5624,-0.145,-0.005
5625,-0.150,0.000
5626,-0.150,0.005
5627,-0.145,0.005
5628,-0.140,0.005
5629,-0.130,0.015
5630,-0.110,0.010
5631,-0.090,0.030
5632,-0.080,0.015
5633,-0.070,0.040
5634,-0.055,0.020
5635,-0.045,0.045
5636,-0.025,0.040
5637,-0.005,0.065
5638,0.000,0.060
5639,0.015,0.110
5640,0.035,0.120
5641,0.065,0.155
5642,0.105,0.190
5643,0.155,0.240
5644,0.195,0.260
5645,0.220,0.280
5646,0.225,0.275
5647,0.210,0.260
5648,0.190,0.235
5649,0.165,0.190
5650,0.130,0.150
5651,0.095,0.120
5652,0.060,0.095
5653,0.030,0.065
5654,0.020,0.050
5655,0.010,0.035
5656,0.000,0.030
5657,-0.005,0.030
5658,-0.015,0.025
5659,-0.015,0.025
5660,-0.020,0.015
5661,-0.025,0.020
5662,-0.020,0.005
5663,-0.010,0.015
5664,0.000,0.010
5665,0.005,0.020
5666,0.015,0.010
5667,0.020,0.025
5668,0.020,0.000
5669,0.015,0.000
5670,0.010,-0.010
5671,0.000,-0.005
5672,-0.015,-0.020
5673,-0.040,-0.020
5674,-0.070,-0.015
5675,-0.085,-0.015
5676,-0.110,-0.015
5677,-0.130,-0.025
5678,-0.135,-0.025
5679,-0.140,-0.030
5680,-0.135,-0.025
5681,-0.135,-0.010
5682,-0.155,0.005
5683,-0.125,0.035
5684,0.020,0.135
5685,0.230,0.205
5686,0.345,0.175
5687,0.275,0.010
5688,0.120,-0.280
5689,-0.015,-0.410
5690,-0.095,-0.290
5691,-0.130,-0.155
5692,-0.145,-0.060
5693,-0.160,-0.010
5694,-0.160,0.005
5695,-0.150,0.005
5696,-0.145,0.020
5697,-0.135,0.030
5698,-0.120,0.030
5699,-0.100,0.040
5700,-0.085,0.040
5701,-0.070,0.050
5702,-0.055,0.055
5703,-0.040,0.055
5704,-0.030,0.065
5705,-0.020,0.075
5706,-0.010,0.100
5707,0.000,0.105
5708,0.010,0.125
5709,0.030,0.145
5710,0.060,0.190
5711,0.115,0.220
5712,0.170,0.270
5713,0.205,0.275
5714,0.220,0.315
5715,0.215,0.295
5716,0.200,0.290
5717,0.175,0.240
5718,0.150,0.225
5719,0.115,0.160
5720,0.075,0.145
5721,0.045,0.110
5722,0.020,0.100
5723,0.000,0.065
5724,-0.015,0.060
5725,-0.020,0.045
5726,-0.030,0.045
5727,-0.035,0.040
5728,-0.035,0.035
5729,-0.035,0.035
5730,-0.040,0.025
5731,-0.040,0.025
5732,-0.045,0.025
5733,-0.045,0.035
5734,-0.035,0.035
5735,-0.020,0.040
5736,-0.005,0.035
5737,0.005,0.035
5738,0.005,0.025
5739,-0.005,0.020
5740,-0.015,0.015
5741,-0.025,0.000
5742,-0.035,0.000
5743,-0.055,0.000
5744,-0.070,0.000
5745,-0.090,0.000
5746,-0.105,0.000
5747,-0.130,-0.005
5748,-0.140,0.000
5749,-0.135,-0.010
5750,-0.130,0.000
5751,-0.150,0.000
5752,-0.170,0.000
5753,-0.110,0.030
5754,0.080,0.170
5755,0.340,0.315
5756,0.450,0.300
5757,0.350,0.080
5758,0.155,-0.320
5759,0.000,-0.375
5760,-0.075,-0.230
5761,-0.120,-0.100
5762,-0.150,-0.070
5763,-0.160,-0.030
5764,-0.160,-0.040
5765,-0.145,-0.025
5766,-0.135,-0.025
5767,-0.120,-0.010
5768,-0.105,-0.015
5769,-0.100,0.000
5770,-0.100,-0.010
5771,-0.095,0.000
5772,-0.080,0.000
5773,-0.055,0.000
5774,-0.020,0.005
5775,0.000,0.015
5776,0.000,0.025
5777,0.000,0.040
5778,0.015,0.060
5779,0.050,0.090
5780,0.095,0.125
5781,0.155,0.160
5782,0.205,0.200
5783,0.245,0.225
5784,0.260,0.230
5785,0.265,0.225
5786,0.245,0.205
5787,0.215,0.175
5788,0.170,0.130
5789,0.130,0.105
5790,0.095,0.060
5791,0.065,0.040
5792,0.040,0.005
5793,0.020,0.005
5794,0.010,0.000
5795,0.000,0.000
5796,-0.005,-0.005
5797,-0.005,0.000
5798,-0.005,0.000
5799,-0.005,0.000
5800,-0.005,0.000
5801,0.000,0.005
5802,0.000,0.005
5803,0.005,0.005
5804,0.010,0.005
5805,0.015,0.005
5806,0.020,0.005
5807,0.025,0.000
5808,0.030,0.000
5809,0.025,-0.020
5810,0.020,-0.025
5811,0.005,-0.040
5812,0.000,-0.025
5813,-0.020,-0.040
5814,-0.040,-0.035
5815,-0.055,-0.055
5816,-0.075,-0.055
5817,-0.080,-0.075
5818,-0.075,-0.070
5819,-0.065,-0.065
5820,-0.070,-0.035
5821,-0.080,-0.005
5822,-0.045,0.035
5823,0.080,0.100
5824,0.280,0.170
5825,0.395,0.130
5826,0.335,-0.035
5827,0.155,-0.290
5828,0.005,-0.465
5829,-0.065,-0.365
5830,-0.095,-0.210
5831,-0.115,-0.115
5832,-0.130,-0.070
5833,-0.125,-0.050
5834,-0.120,-0.035
5835,-0.115,-0.030
5836,-0.100,-0.020
5837,-0.085,-0.020
5838,-0.075,0.000
5839,-0.065,-0.020
5840,-0.055,0.000
5841,-0.045,-0.005
5842,-0.035,0.000
5843,-0.025,0.000
5844,-0.010,0.000
5845,0.000,0.000
5846,0.010,0.020
5847,0.035,0.015
5848,0.060,0.065
5849,0.100,0.085
5850,0.145,0.120
5851,0.200,0.135
5852,0.245,0.175
5853,0.270,0.185
5854,0.270,0.190
5855,0.250,0.170
5856,0.230,0.155
5857,0.195,0.135
5858,0.160,0.100
5859,0.115,0.075
5860,0.085,0.045
5861,0.055,0.025
5862,0.030,0.005
5863,0.015,0.000
5864,0.005,0.000
5865,0.000,0.000
5866,0.000,0.000
5867,-0.005,0.000
5868,-0.005,0.000
5869,0.000,0.000
5870,0.000,0.000
5871,0.005,0.000
5872,0.015,0.000
5873,0.020,0.005
5874,0.025,0.015
5875,0.030,0.005
5876,0.040,0.000
5877,0.035,0.000
5878,0.020,0.000
5879,0.010,-0.020
5880,0.000,-0.025
5881,-0.010,-0.020
5882,-0.035,-0.015
5883,-0.065,-0.010
5884,-0.090,-0.025
5885,-0.110,-0.025
5886,-0.115,-0.040
5887,-0.110,-0.025
5888,-0.110,-0.045
5889,-0.110,-0.015
5890,-0.130,0.000
5891,-0.095,0.045
5892,0.050,0.125
5893,0.285,0.235
5894,0.405,0.185
5895,0.325,0.025
5896,0.135,-0.300
5897,-0.010,-0.425
5898,-0.080,-0.315
5899,-0.110,-0.160
5900,-0.130,-0.085
5901,-0.145,-0.040
5902,-0.150,-0.025
5903,-0.140,-0.010
5904,-0.130,-0.005
5905,-0.120,0.000
5906,-0.105,0.000
5907,-0.095,0.000
5908,-0.080,0.000
5909,-0.065,0.000
5910,-0.055,0.000
5911,-0.050,0.005
5912,-0.035,0.010
5913,-0.020,0.020
5914,-0.005,0.025
5915,0.005,0.045
5916,0.025,0.060
5917,0.055,0.090
5918,0.095,0.110
5919,0.140,0.155
5920,0.190,0.180
5921,0.230,0.220
5922,0.250,0.220
5923,0.255,0.240
5924,0.240,0.205
5925,0.215,0.195
5926,0.180,0.150
5927,0.140,0.130
5928,0.095,0.085
5929,0.055,0.065
5930,0.030,0.030
5931,0.020,0.030
5932,0.005,0.010
5933,0.000,0.005
5934,0.000,0.005
5935,-0.005,0.005
5936,-0.005,0.005
5937,-0.005,0.005
5938,-0.005,0.015
5939,0.000,0.005
5940,0.005,0.020
5941,0.010,0.020
5942,0.015,0.030
5943,0.020,0.025
5944,0.030,0.025
5945,0.030,0.010
5946,0.025,0.000
5947,0.015,-0.005
5948,0.005,-0.005
5949,-0.005,-0.015
5950,-0.025,-0.010
5951,-0.050,-0.005
5952,-0.080,-0.010
5953,-0.100,-0.010
5954,-0.115,-0.025
5955,-0.115,-0.025
5956,-0.110,-0.030
5957,-0.110,-0.015
5958,-0.115,0.000
5959,-0.120,0.020
5960,-0.065,0.080
5961,0.100,0.180
5962,0.315,0.245
5963,0.390,0.175
5964,0.270,-0.040
5965,0.080,-0.340
5966,-0.040,-0.415
5967,-0.095,-0.265
5968,-0.125,-0.115
5969,-0.150,-0.065
5970,-0.155,-0.020
5971,-0.150,-0.020
5972,-0.140,0.000
5973,-0.125,0.000
5974,-0.110,0.000
5975,-0.100,0.000
5976,-0.090,0.000
5977,-0.090,0.000
5978,-0.080,0.000
5979,-0.060,0.005
5980,-0.040,0.015
5981,-0.025,0.010
5982,-0.010,0.030
5983,0.000,0.040
5984,0.015,0.055
5985,0.035,0.080
5986,0.070,0.105
5987,0.105,0.135
5988,0.145,0.165
5989,0.190,0.210
5990,0.230,0.235
5991,0.250,0.250
5992,0.250,0.240
5993,0.235,0.230
5994,0.210,0.200
5995,0.170,0.165
5996,0.120,0.130
5997,0.080,0.100
5998,0.045,0.065
5999,0.020,0.040
6000,0.010,0.030
6001,0.000,0.010
6002,0.000,0.015
6003,0.000,0.005
6004,-0.010,0.015
6005,-0.010,0.005
6006,-0.005,0.015
6007,0.000,0.005
6008,0.005,0.015
6009,0.015,0.010
6010,0.020,0.010
6011,0.025,0.010
6012,0.040,0.005
6013,0.050,0.000
6014,0.040,0.000
6015,0.025,-0.010
6016,0.020,-0.035
6017,0.005,-0.025
6018,0.000,-0.040
6019,-0.025,-0.020
6020,-0.050,-0.030
6021,-0.075,-0.020
6022,-0.090,-0.045
6023,-0.095,-0.025
6024,-0.095,-0.045
6025,-0.095,-0.025
6026,-0.105,-0.020
6027,-0.125,0.000
6028,-0.105,0.025
6029,0.030,0.120
6030,0.245,0.210
6031,0.380,0.195
6032,0.330,0.040
6033,0.165,-0.255
6034,0.015,-0.435
6035,-0.065,-0.350
6036,-0.110,-0.190
6037,-0.130,-0.095
6038,-0.130,-0.055
6039,-0.125,-0.035
6040,-0.115,-0.025
6041,-0.110,-0.015
6042,-0.105,-0.010
6043,-0.095,0.000
6044,-0.085,0.000
6045,-0.080,0.000
6046,-0.070,0.000
6047,-0.055,0.000
6048,-0.040,0.005
6049,-0.020,0.020
6050,-0.005,0.010
6051,0.000,0.040
6052,0.005,0.045
6053,0.020,0.080
6054,0.045,0.085
6055,0.085,0.130
6056,0.130,0.150
6057,0.185,0.205
6058,0.235,0.220
6059,0.260,0.250
6060,0.265,0.245
6061,0.255,0.230
6062,0.230,0.205
6063,0.195,0.165
6064,0.160,0.135
6065,0.115,0.105
6066,0.070,0.080
6067,0.040,0.045
6068,0.025,0.040
6069,0.015,0.010
6070,0.005,0.015
6071,0.000,0.005
6072,-0.005,0.020
6073,0.000,0.010
6074,0.000,0.020
6075,0.000,0.010
6076,0.005,0.025
6077,0.010,0.025
6078,0.015,0.030
6079,0.025,0.025
6080,0.035,0.015
6081,0.040,0.015
6082,0.035,0.000
6083,0.025,-0.010
6084,0.010,-0.020
6085,0.000,-0.020
6086,-0.010,-0.025
6087,-0.035,-0.025
6088,-0.055,-0.025
6089,-0.075,-0.025
6090,-0.085,-0.030
6091,-0.095,-0.040
6092,-0.105,-0.035
6093,-0.100,-0.045
6094,-0.100,-0.010
6095,-0.125,-0.005
6096,-0.120,0.025
6097,0.005,0.100
6098,0.220,0.210
6099,0.370,0.190
6100,0.315,0.035
6101,0.145,-0.270
6102,0.000,-0.465
6103,-0.085,-0.345
6104,-0.125,-0.165
6105,-0.145,-0.100
6106,-0.160,-0.030
6107,-0.165,-0.035
6108,-0.160,-0.010
6109,-0.145,-0.015
6110,-0.140,-0.005
6111,-0.135,0.000
6112,-0.125,0.000
6113,-0.110,0.000
6114,-0.085,0.000
6115,-0.065,0.005
6116,-0.060,0.005
6117,-0.055,0.015
6118,-0.045,0.020
6119,-0.030,0.030
6120,-0.005,0.045
6121,0.005,0.065
6122,0.030,0.095
6123,0.070,0.130
6124,0.115,0.165
6125,0.165,0.200
6126,0.205,0.235
6127,0.220,0.245
6128,0.230,0.250
6129,0.225,0.225
6130,0.210,0.205
6131,0.175,0.165
6132,0.135,0.130
6133,0.090,0.085
6134,0.055,0.070
6135,0.030,0.035
6136,0.015,0.025
6137,0.005,0.005
6138,0.000,0.005
6139,0.000,0.005
6140,-0.005,0.005
6141,-0.010,0.000
6142,-0.015,0.000
6143,-0.010,0.000
6144,-0.005,0.000
6145,0.000,0.000
6146,0.005,0.000
6147,0.025,0.000
6148,0.040,0.000
6149,0.040,0.000
6150,0.025,-0.020
6151,0.005,-0.020
6152,-0.005,-0.050
6153,-0.015,-0.040
6154,-0.025,-0.055
6155,-0.045,-0.040
6156,-0.080,-0.050
6157,-0.105,-0.045
6158,-0.115,-0.055
6159,-0.120,-0.045
6160,-0.120,-0.055
6161,-0.115,-0.045
6162,-0.120,-0.020
6163,-0.135,0.000
6164,-0.095,0.040
6165,0.045,0.120
6166,0.245,0.180
6167,0.350,0.130
6168,0.290,-0.060
6169,0.130,-0.320
6170,-0.005,-0.435
6171,-0.085,-0.290
6172,-0.125,-0.165
6173,-0.140,-0.090
6174,-0.150,-0.055
6175,-0.150,-0.030
6176,-0.145,-0.035
6177,-0.135,-0.010
6178,-0.130,-0.015
6179,-0.125,0.000
6180,-0.105,-0.010
6181,-0.080,0.000
6182,-0.060,0.000
6183,-0.045,0.000
6184,-0.035,0.000
6185,-0.025,0.005
6186,-0.015,0.005
6187,-0.005,0.030
6188,0.005,0.035
6189,0.025,0.075
6190,0.060,0.100
6191,0.105,0.130
6192,0.150,0.170
6193,0.195,0.205
6194,0.225,0.235
6195,0.245,0.245
6196,0.250,0.250
6197,0.230,0.215
6198,0.205,0.180
6199,0.175,0.135
6200,0.135,0.110
6201,0.100,0.065
6202,0.070,0.040
6203,0.040,0.015
6204,0.025,0.000
6205,0.010,0.000
6206,0.000,0.000
6207,0.000,-0.005
6208,-0.005,-0.005
6209,-0.015,0.000
6210,-0.025,-0.005
6211,-0.020,0.000
6212,-0.015,-0.005
6213,-0.010,0.000
6214,-0.005,0.000
6215,0.000,0.000
6216,0.000,-0.010
6217,0.000,-0.025
6218,-0.010,-0.045
6219,-0.025,-0.065
6220,-0.035,-0.075
6221,-0.050,-0.085
6222,-0.065,-0.070
6223,-0.090,-0.080
6224,-0.115,-0.065
6225,-0.130,-0.090
6226,-0.135,-0.070
6227,-0.130,-0.095
6228,-0.130,-0.075
6229,-0.135,-0.080
6230,-0.165,-0.040
6231,-0.185,-0.070
6232,-0.085,0.005
6233,0.140,0.125
6234,0.345,0.260
6235,0.380,0.200
6236,0.260,-0.025
6237,0.095,-0.315
6238,-0.025,-0.270
6239,-0.085,-0.135
6240,-0.130,-0.030
6241,-0.150,0.000
6242,-0.155,0.015
6243,-0.150,0.035
6244,-0.150,0.040
6245,-0.145,0.045
6246,-0.130,0.035
6247,-0.110,0.035
6248,-0.090,0.030
6249,-0.080,0.035
6250,-0.075,0.035
6251,-0.070,0.040
6252,-0.055,0.045
6253,-0.035,0.050
6254,-0.015,0.060
6255,0.000,0.070
6256,0.010,0.095
6257,0.040,0.105
6258,0.085,0.145
6259,0.135,0.175
6260,0.175,0.220
6261,0.215,0.250
6262,0.245,0.275
6263,0.260,0.275
6264,0.255,0.270
6265,0.235,0.235
6266,0.210,0.200
6267,0.170,0.150
6268,0.130,0.120
6269,0.080,0.090
6270,0.040,0.055
6271,0.025,0.040
6272,0.020,0.020
6273,0.000,0.020
6274,0.000,0.000
6275,-0.015,0.000
6276,-0.020,0.000
6277,-0.030,0.000
6278,-0.035,0.000
6279,-0.020,0.000
6280,-0.010,0.000
6281,-0.005,0.000
6282,0.000,0.000
6283,0.010,0.000
6284,0.015,-0.010
6285,0.015,0.000
6286,0.010,-0.020
6287,0.000,-0.025
6288,-0.005,-0.035
6289,-0.020,-0.040
6290,-0.040,-0.045
6291,-0.060,-0.050
6292,-0.075,-0.060
6293,-0.080,-0.070
6294,-0.085,-0.070
6295,-0.085,-0.070
6296,-0.085,-0.065
6297,-0.105,-0.055
6298,-0.120,-0.060
6299,-0.055,-0.040
6300,0.120,0.035
6301,0.335,0.105
6302,0.405,0.040
6303,0.295,-0.170
6304,0.110,-0.485
6305,-0.010,-0.535
6306,-0.060,-0.385
6307,-0.080,-0.240
6308,-0.100,-0.190
6309,-0.115,-0.150
6310,-0.110,-0.150
6311,-0.100,-0.125
6312,-0.090,-0.130
6313,-0.080,-0.120
6314,-0.070,-0.125
6315,-0.065,-0.120
6316,-0.050,-0.120
6317,-0.035,-0.115
6318,-0.025,-0.115
6319,-0.010,-0.105
6320,0.000,-0.105
6321,0.000,-0.100
6322,0.020,-0.080
6323,0.045,-0.075
6324,0.075,-0.045
6325,0.115,-0.025
6326,0.170,-0.005
6327,0.225,0.010
6328,0.275,0.055
6329,0.305,0.065
6330,0.320,0.085
6331,0.315,0.075
6332,0.290,0.060
6333,0.250,0.030
6334,0.210,0.010
6335,0.170,0.000
6336,0.130,-0.005
6337,0.095,-0.020
6338,0.065,-0.040
6339,0.045,-0.050
6340,0.025,-0.065
6341,0.015,-0.060
6342,0.010,-0.065
6343,0.005,-0.065
6344,0.005,-0.065
6345,0.005,-0.060
6346,0.010,-0.060
6347,0.020,-0.060
6348,0.025,-0.045
6349,0.030,-0.045
6350,0.045,-0.040
6351,0.050,-0.065
6352,0.045,-0.065
6353,0.035,-0.085
6354,0.025,-0.085
6355,0.010,-0.100
6356,0.000,-0.080
6357,-0.020,-0.100
6358,-0.045,-0.075
6359,-0.065,-0.105
6360,-0.080,-0.090
6361,-0.085,-0.110
6362,-0.095,-0.105
6363,-0.095,-0.110
6364,-0.100,-0.080
6365,-0.125,-0.060
6366,-0.115,-0.020
6367,0.000,0.040
6368,0.225,0.135
6369,0.380,0.125
6370,0.345,0.000
6371,0.175,-0.290
6372,0.025,-0.475
6373,-0.055,-0.390
6374,-0.095,-0.245
6375,-0.120,-0.150
6376,-0.135,-0.110
6377,-0.140,-0.085
6378,-0.130,-0.080
6379,-0.125,-0.070
6380,-0.120,-0.060
6381,-0.105,-0.055
6382,-0.090,-0.055
6383,-0.080,-0.055
6384,-0.065,-0.040
6385,-0.050,-0.035
6386,-0.040,-0.020
6387,-0.030,-0.025
6388,-0.015,-0.005
6389,0.000,-0.005
6390,0.005,0.000
6391,0.030,0.005
6392,0.055,0.025
6393,0.095,0.050
6394,0.145,0.095
6395,0.190,0.125
6396,0.230,0.150
6397,0.255,0.170
6398,0.255,0.165
6399,0.245,0.145
6400,0.225,0.125
6401,0.190,0.110
6402,0.150,0.065
6403,0.105,0.045
6404,0.075,0.000
6405,0.045,0.000
6406,0.025,-0.005
6407,0.015,0.000
6408,0.005,-0.020
6409,0.000,-0.005
6410,0.000,-0.015
6411,0.000,-0.005
6412,0.000,-0.015
6413,0.010,-0.005
6414,0.015,0.000
6415,0.020,0.000
6416,0.025,0.000
6417,0.035,0.000
6418,0.050,-0.005
6419,0.045,-0.015
6420,0.035,-0.030
6421,0.020,-0.045
6422,0.010,-0.055
6423,0.000,-0.060
6424,-0.020,-0.055
6425,-0.045,-0.050
6426,-0.070,-0.060
6427,-0.090,-0.070
6428,-0.100,-0.075
6429,-0.105,-0.070
6430,-0.105,-0.075
6431,-0.100,-0.060
6432,-0.115,-0.040
6433,-0.120,0.000
6434,-0.050,0.030
6435,0.135,0.140
6436,0.335,0.170
6437,0.370,0.085
6438,0.220,-0.140
6439,0.040,-0.450
6440,-0.055,-0.440
6441,-0.095,-0.235
6442,-0.120,-0.130
6443,-0.135,-0.080
6444,-0.140,-0.075
6445,-0.140,-0.050
6446,-0.135,-0.050
6447,-0.125,-0.035
6448,-0.110,-0.030
6449,-0.095,-0.025
6450,-0.085,-0.015
6451,-0.075,-0.015
6452,-0.060,-0.005
6453,-0.050,-0.005
6454,-0.035,0.000
6455,-0.020,0.000
6456,-0.005,0.000
6457,0.005,0.005
6458,0.025,0.030
6459,0.050,0.045
6460,0.085,0.085
6461,0.130,0.120
6462,0.180,0.155
6463,0.220,0.180
6464,0.250,0.195
6465,0.260,0.195
6466,0.250,0.185
6467,0.230,0.160
6468,0.200,0.130
6469,0.160,0.105
6470,0.120,0.070
6471,0.080,0.040
6472,0.050,0.015
6473,0.030,0.000
6474,0.015,0.000
6475,0.005,0.000
6476,0.000,0.000
6477,0.000,0.000
6478,0.000,0.000
6479,0.000,0.000
6480,0.000,0.000
6481,0.010,0.000
6482,0.020,0.000
6483,0.025,0.000
6484,0.035,0.000
6485,0.050,0.000
6486,0.050,0.000
6487,0.045,-0.020
6488,0.030,-0.020
6489,0.015,-0.055
6490,0.000,-0.035
6491,-0.010,-0.040
6492,-0.030,-0.035
6493,-0.055,-0.055
6494,-0.075,-0.040
6495,-0.090,-0.055
6496,-0.100,-0.055
6497,-0.105,-0.065
6498,-0.105,-0.055
6499,-0.110,-0.025
6500,-0.125,-0.005
6501,-0.095,0.025
6502,0.040,0.105
6503,0.245,0.185
6504,0.355,0.140
6505,0.290,-0.025
6506,0.125,-0.305
6507,0.000,-0.445
6508,-0.070,-0.330
6509,-0.105,-0.180
6510,-0.125,-0.100
6511,-0.135,-0.065
6512,-0.130,-0.040
6513,-0.130,-0.035
6514,-0.125,-0.015
6515,-0.110,-0.020
6516,-0.095,-0.005
6517,-0.085,-0.015
6518,-0.075,0.000
6519,-0.060,-0.005
6520,-0.045,0.000
6521,-0.030,0.000
6522,-0.015,0.005
6523,-0.005,0.005
6524,0.000,0.020
6525,0.015,0.030
6526,0.040,0.055
6527,0.070,0.090
6528,0.105,0.115
6529,0.150,0.145
6530,0.195,0.170
6531,0.235,0.220
6532,0.250,0.215
6533,0.250,0.220
6534,0.230,0.190
6535,0.205,0.180
6536,0.180,0.135
6537,0.135,0.120
6538,0.095,0.070
6539,0.065,0.045
6540,0.045,0.015
6541,0.025,0.015
6542,0.010,0.005
6543,0.005,0.000
6544,0.000,0.000
6545,0.000,0.000
6546,0.000,0.000
6547,0.000,0.000
6548,0.005,0.005
6549,0.015,0.010
6550,0.020,0.010
6551,0.020,0.010
6552,0.035,0.010
6553,0.045,0.005
6554,0.045,0.000
6555,0.030,0.000
6556,0.020,-0.010
6557,0.010,-0.025
6558,-0.005,-0.035
6559,-0.025,-0.025
6560,-0.045,-0.035
6561,-0.060,-0.025
6562,-0.075,-0.040
6563,-0.090,-0.035
6564,-0.100,-0.055
6565,-0.105,-0.030
6566,-0.105,-0.050
6567,-0.115,0.000
6568,-0.135,0.000
6569,-0.065,0.070
6570,0.125,0.150
6571,0.330,0.225
6572,0.370,0.090
6573,0.230,-0.105
6574,0.055,-0.450
6575,-0.050,-0.410
6576,-0.100,-0.245
6577,-0.130,-0.120
6578,-0.140,-0.070
6579,-0.145,-0.050
6580,-0.140,-0.030
6581,-0.135,-0.025
6582,-0.125,-0.010
6583,-0.110,-0.015
6584,-0.095,-0.005
6585,-0.080,-0.005
6586,-0.070,0.000
6587,-0.060,0.000
6588,-0.050,0.000
6589,-0.035,0.000
6590,-0.020,0.015
6591,-0.010,0.020
6592,0.000,0.035
6593,0.010,0.055
6594,0.035,0.075
6595,0.070,0.110
6596,0.120,0.145
6597,0.165,0.180
6598,0.210,0.210
6599,0.240,0.240
6600,0.250,0.235
6601,0.245,0.225
6602,0.225,0.200
6603,0.190,0.165
6604,0.150,0.135
6605,0.105,0.100
6606,0.075,0.070
6607,0.050,0.035
6608,0.030,0.030
6609,0.010,0.005
6610,0.000,0.010
6611,0.000,0.000
6612,-0.005,0.000
6613,-0.005,0.000
6614,-0.005,0.000
6615,-0.005,0.000
6616,0.000,0.000
6617,0.000,0.000
6618,0.010,0.005
6619,0.015,0.000
6620,0.025,0.000
6621,0.035,0.000
6622,0.035,0.000
6623,0.025,-0.015
6624,0.015,-0.020
6625,0.010,-0.035
6626,0.000,-0.040
6627,-0.025,-0.035
6628,-0.050,-0.030
6629,-0.080,-0.030
6630,-0.105,-0.040
6631,-0.115,-0.045
6632,-0.120,-0.050
6633,-0.120,-0.045
6634,-0.110,-0.035
6635,-0.120,-0.015
6636,-0.130,0.000
6637,-0.070,0.050
6638,0.090,0.140
6639,0.280,0.180
6640,0.340,0.115
6641,0.235,-0.115
6642,0.075,-0.375
6643,-0.045,-0.445
6644,-0.110,-0.260
6645,-0.130,-0.145
6646,-0.145,-0.075
6647,-0.150,-0.060
6648,-0.145,-0.030
6649,-0.135,-0.035
6650,-0.125,-0.015
6651,-0.115,-0.015
6652,-0.100,-0.005
6653,-0.090,-0.005
6654,-0.080,0.000
6655,-0.070,0.000
6656,-0.060,0.000
6657,-0.045,0.000
6658,-0.035,0.005
6659,-0.025,0.020
6660,-0.015,0.020
6661,0.000,0.050
6662,0.030,0.060
6663,0.065,0.110
6664,0.110,0.125
6665,0.155,0.175
6666,0.200,0.205
6667,0.230,0.240
6668,0.240,0.240
6669,0.240,0.235
6670,0.225,0.195
6671,0.200,0.175
6672,0.165,0.135
6673,0.120,0.100
6674,0.080,0.065
6675,0.050,0.040
6676,0.030,0.020
6677,0.015,0.005
6678,0.005,0.005
6679,0.000,0.000
6680,-0.005,0.000
6681,-0.005,0.000
6682,-0.005,0.000
6683,-0.005,0.000
6684,0.000,0.000
6685,0.000,0.000
6686,0.000,0.000
6687,0.010,0.000
6688,0.020,0.000
6689,0.030,0.000
6690,0.030,-0.005
6691,0.020,-0.005
6692,0.005,-0.040
6693,0.000,-0.040
6694,-0.010,-0.060
6695,-0.030,-0.035
6696,-0.045,-0.060
6697,-0.070,-0.035
6698,-0.100,-0.060
6699,-0.110,-0.050
6700,-0.115,-0.065
6701,-0.115,-0.060
6702,-0.115,-0.065
6703,-0.120,-0.025
6704,-0.145,-0.005
6705,-0.120,0.020
6706,0.025,0.105
6707,0.245,0.180
6708,0.365,0.120
6709,0.295,-0.040
6710,0.135,-0.350
6711,0.000,-0.450
6712,-0.065,-0.310
6713,-0.105,-0.175
6714,-0.130,-0.095
6715,-0.145,-0.070
6716,-0.145,-0.050
6717,-0.140,-0.040
6718,-0.130,-0.035
6719,-0.110,-0.030
6720,-0.095,-0.025
6721,-0.085,-0.015
6722,-0.080,-0.010
6723,-0.065,-0.005
6724,-0.050,-0.010
6725,-0.035,0.000
6726,-0.025,0.000
6727,-0.010,0.005
6728,0.000,0.010
6729,0.005,0.030
6730,0.025,0.050
6731,0.055,0.085
6732,0.100,0.125
6733,0.145,0.150
6734,0.190,0.195
6735,0.220,0.220
6736,0.235,0.245
6737,0.230,0.220
