'sample interval','ECG0','ECG1'
'0.0078125 sec','mV','mV'
0,-0.100,0.040
1,-0.130,0.015
2,-0.115,0.070
3,-0.105,0.065
4,-0.105,0.015
5,-0.105,0.020
6,-0.060,0.080
7,-0.055,0.025
8,-0.080,0.000
9,-0.070,-0.025
10,-0.070,-0.025
11,-0.085,0.005
12,-0.070,0.045
13,-0.085,0.005
14,-0.070,-0.030
15,-0.070,-0.010
16,-0.060,-0.030
17,-0.070,-0.040
18,-0.065,0.010
19,-0.075,0.075
20,-0.085,0.050
21,-0.070,0.030
22,-0.060,0.050
23,-0.045,0.030
24,-0.035,0.020
25,-0.035,0.040
26,-0.080,0.020
27,-0.100,-0.025
28,0.095,-0.155
29,0.445,-0.355
30,0.745,-0.395
31,0.695,-0.290
32,0.260,-0.120
33,-0.100,0.050
34,-0.195,0.160
35,-0.105,0.165
36,0.000,0.110
37,0.010,0.080
38,0.020,0.030
39,0.000,0.060
40,0.000,0.060
41,0.015,0.010
42,0.025,0.010
43,0.025,0.095
44,0.005,0.030
45,-0.020,0.000
46,-0.025,0.000
47,-0.070,0.030
48,-0.085,0.000
49,-0.110,-0.010
50,-0.050,0.015
51,0.000,0.010
52,0.010,0.010
53,0.030,0.000
54,0.075,-0.060
55,0.110,-0.045
56,0.115,-0.065
57,0.130,-0.115
58,0.140,-0.105
59,0.140,-0.070
60,0.145,-0.125
61,0.165,-0.180
62,0.160,-0.205
63,0.160,-0.215
64,0.185,-0.190
65,0.195,-0.210
66,0.195,-0.220
67,0.200,-0.150
68,0.195,-0.145
69,0.170,-0.135
70,0.160,-0.055
71,0.180,-0.040
72,0.180,-0.015
73,0.135,0.000
74,0.115,-0.030
75,0.055,0.015
76,0.030,0.060
77,0.030,0.105
78,0.040,0.080
79,0.000,0.085
80,0.000,0.085
81,0.005,0.045
82,0.000,0.055
83,0.020,0.000
84,0.020,0.060
85,0.005,0.060
86,0.005,0.100
87,0.010,0.085
88,0.000,0.080
89,0.010,0.040
90,0.015,0.035
91,0.020,0.040
92,0.000,0.025
93,0.005,0.010
94,0.000,0.055
95,0.005,0.045
96,0.005,0.040
97,0.005,0.085
98,0.010,0.060
99,0.000,0.010
100,0.000,-0.015
101,0.000,0.015
102,0.000,0.040
103,0.010,0.015
104,0.010,0.035
105,0.000,0.085
106,0.000,0.110
107,0.005,0.105
108,0.005,0.060
109,0.000,0.015
110,0.000,0.020
111,-0.010,0.005
112,-0.025,-0.045
113,-0.025,-0.015
114,-0.035,0.035
115,-0.035,0.005
116,-0.050,0.000
117,-0.035,0.025
118,-0.015,0.005
119,-0.005,0.040
120,-0.040,0.090
121,-0.040,0.055
122,-0.035,0.075
123,-0.035,0.030
124,-0.045,0.000
125,-0.010,0.000
126,0.000,0.000
127,-0.035,0.050
128,-0.140,0.015
129,0.095,-0.080
130,0.505,-0.210
131,0.855,-0.225
132,0.890,-0.175
133,0.385,-0.070
134,-0.075,0.150
135,-0.230,0.170
136,-0.155,0.135
137,-0.040,0.110
138,0.035,0.030
139,0.055,0.000
140,0.055,0.015
141,0.060,0.055
142,0.060,0.060
143,0.060,0.020
144,0.070,0.000
145,0.070,0.010
146,0.075,0.045
147,0.085,0.050
148,0.095,0.080
149,0.120,0.035
150,0.125,-0.050
151,0.110,-0.070
152,0.105,-0.045
153,0.110,-0.005
154,0.105,0.000
155,0.110,-0.010
156,0.130,-0.015
157,0.140,-0.030
158,0.155,-0.080
159,0.160,-0.160
160,0.175,-0.185
161,0.170,-0.160
162,0.155,-0.215
163,0.150,-0.205
164,0.150,-0.170
165,0.110,-0.170
166,0.115,-0.170
167,0.075,-0.165
168,0.055,-0.150
169,0.005,-0.185
170,0.000,-0.205
171,-0.005,-0.035
172,-0.045,0.045
173,-0.060,-0.015
174,-0.075,0.040
175,-0.085,0.070
176,-0.090,0.055
177,-0.080,0.020
178,-0.065,0.015
179,-0.065,0.030
180,-0.075,0.050
181,-0.080,0.050
182,-0.065,0.075
183,-0.060,0.140
184,-0.085,0.130
185,-0.095,0.105
186,-0.085,0.080
187,-0.060,0.055
188,-0.050,0.040
189,-0.020,0.010
190,-0.020,0.015
191,-0.045,0.045
192,-0.060,0.035
193,-0.060,0.060
194,-0.055,0.095
195,-0.060,0.040
196,-0.060,0.000
197,-0.070,0.000
198,-0.090,0.005
199,-0.100,0.025
200,-0.095,0.035
201,-0.105,0.090
202,-0.100,0.125
203,-0.100,0.045
204,-0.105,0.070
205,-0.115,0.040
206,-0.125,-0.005
207,-0.085,0.035
208,-0.015,0.070
209,0.050,0.035
210,0.055,0.040
211,0.035,0.035
212,-0.015,0.000
213,-0.055,0.000
214,-0.120,0.000
215,-0.120,0.010
216,-0.135,0.100
217,-0.130,0.105
218,-0.130,-0.015
219,-0.100,-0.035
220,-0.100,0.010
221,-0.080,-0.025
222,-0.110,0.030
223,-0.100,0.040
224,-0.080,0.080
225,-0.065,0.055
226,-0.075,0.055
227,-0.065,0.105
228,-0.055,0.030
229,-0.050,0.010
230,-0.070,0.090
231,-0.110,0.025
232,-0.015,-0.105
233,0.285,-0.185
234,0.675,-0.280
235,0.860,-0.335
236,0.610,-0.225
237,0.160,0.005
238,-0.105,0.165
239,-0.110,0.155
240,0.010,0.110
241,0.090,0.050
242,0.105,0.040
243,0.125,0.050
244,0.135,0.005
245,0.140,0.010
246,0.150,0.040
247,0.195,-0.005
248,0.195,0.005
249,0.195,0.070
250,0.210,0.025
251,0.240,-0.020
252,0.235,0.080
253,0.255,0.035
254,0.285,-0.040
255,0.285,0.000
256,0.285,0.020
257,0.295,0.000
258,0.290,-0.040
259,0.280,-0.050
260,0.285,0.005
261,0.290,-0.025
262,0.330,-0.115
263,0.360,-0.150
264,0.360,-0.135
265,0.320,-0.140
266,0.315,-0.155
267,0.310,-0.175
268,0.310,-0.255
269,0.290,-0.250
270,0.270,-0.200
271,0.235,-0.150
272,0.225,-0.130
273,0.215,-0.115
274,0.185,-0.050
275,0.135,0.000
276,0.100,-0.020
277,0.080,-0.015
278,0.065,0.010
279,0.045,0.000
280,0.035,0.005
281,0.035,0.035
282,0.035,0.020
283,0.045,0.020
284,0.045,0.045
285,0.045,0.085
286,0.040,0.110
287,0.035,0.110
288,0.055,0.075
289,0.045,0.070
290,0.060,0.015
291,0.070,0.015
292,0.080,0.030
293,0.080,0.050
294,0.065,0.040
295,0.025,0.050
296,0.025,0.060
297,0.025,0.025
298,0.030,0.050
299,0.025,0.095
300,0.040,0.030
301,0.040,0.020
302,0.050,0.000
303,0.040,0.020
304,0.020,0.025
305,0.020,0.025
306,0.025,0.015
307,0.020,0.025
308,0.000,0.100
309,0.015,0.035
310,0.020,0.020
311,0.020,0.010
312,0.015,0.000
313,0.005,0.020
314,0.000,0.065
315,0.000,0.025
316,0.000,0.000
317,-0.010,0.010
318,-0.035,0.000
319,-0.050,-0.025
320,-0.050,-0.035
321,-0.055,-0.025
322,-0.080,0.000
323,-0.100,0.015
324,-0.085,0.000
325,-0.070,-0.005
326,-0.065,0.010
327,-0.060,0.030
328,-0.055,0.025
329,-0.090,0.035
330,-0.080,0.000
331,-0.055,0.035
332,-0.075,0.110
333,-0.125,0.090
334,-0.155,0.025
335,-0.075,-0.075
336,0.235,-0.285
337,0.595,-0.385
338,0.745,-0.355
339,0.380,-0.195
340,-0.095,0.030
341,-0.290,0.210
342,-0.235,0.210
343,-0.085,0.085
344,-0.050,-0.020
345,-0.050,0.025
346,-0.055,0.075
347,-0.020,0.030
348,-0.030,0.010
349,-0.035,0.095
350,-0.030,0.135
351,-0.005,0.085
352,0.000,0.010
353,0.005,0.005
354,0.010,0.050
355,0.010,0.035
356,0.015,-0.010
357,0.005,-0.030
358,0.005,-0.005
359,0.025,0.010
360,0.035,0.010
361,0.035,-0.040
362,0.055,-0.105
363,0.070,-0.105
364,0.060,-0.075
365,0.060,-0.085
366,0.065,-0.135
367,0.080,-0.165
368,0.080,-0.190
369,0.065,-0.185
370,0.035,-0.125
371,0.025,-0.095
372,0.025,-0.215
373,0.025,-0.270
374,0.000,-0.315
375,-0.005,-0.255
376,-0.035,-0.150
377,-0.040,-0.120
378,-0.090,-0.070
379,-0.105,-0.065
380,-0.105,-0.030
381,-0.105,0.025
382,-0.120,0.160
383,-0.115,0.070
384,-0.115,0.005
385,-0.135,0.155
386,-0.140,0.025
387,-0.110,0.060
388,-0.060,0.015
389,-0.075,0.010
390,-0.085,0.035
391,-0.060,0.015
392,-0.060,0.115
393,-0.075,0.110
394,-0.085,0.035
395,-0.065,0.050
396,-0.030,0.035
397,-0.035,0.060
398,-0.050,0.075
399,-0.055,0.055
400,-0.050,0.075
401,-0.040,0.050
402,-0.045,0.030
403,-0.060,0.055
404,-0.065,0.075
405,-0.065,0.090
406,-0.070,0.105
407,-0.070,0.085
408,-0.060,0.075
409,-0.050,0.055
410,-0.040,-0.010
411,-0.045,-0.005
412,-0.055,0.060
413,-0.055,0.105
414,-0.035,0.075
415,-0.020,0.065
416,-0.025,0.045
417,-0.030,0.030
418,-0.015,0.025
419,-0.030,0.045
420,-0.020,0.020
421,-0.025,0.005
422,-0.080,0.030
423,-0.080,0.000
424,-0.080,-0.010
425,-0.110,0.010
426,-0.065,0.000
427,-0.055,0.000
428,-0.050,0.040
429,-0.085,0.125
430,-0.050,0.065
431,-0.045,0.040
432,-0.045,0.045
433,-0.055,0.055
434,-0.065,0.115
435,-0.090,0.065
436,-0.095,-0.010
437,-0.160,-0.020
438,-0.005,-0.090
439,0.350,-0.230
440,0.715,-0.255
441,0.780,-0.165
442,0.400,-0.065
443,-0.040,0.085
444,-0.245,0.195
445,-0.205,0.195
446,-0.080,0.140
447,-0.010,0.090
448,0.000,0.085
449,0.000,0.100
450,0.000,0.055
451,0.005,0.035
452,0.010,0.075
453,0.010,0.040
454,0.030,0.020
455,0.040,0.065
456,0.030,0.015
457,0.005,-0.005
458,0.030,0.000
459,0.065,0.020
460,0.070,0.040
461,0.080,-0.010
462,0.075,-0.050
463,0.070,0.010
464,0.100,-0.005
465,0.145,-0.035
466,0.110,-0.035
467,0.135,-0.060
468,0.160,-0.130
469,0.170,-0.150
470,0.145,-0.130
471,0.180,-0.170
472,0.165,-0.170
473,0.135,-0.165
474,0.115,-0.170
475,0.115,-0.210
476,0.090,-0.200
477,0.070,-0.195
478,0.030,-0.135
479,0.025,-0.160
480,0.020,-0.150
481,0.005,-0.080
482,-0.010,-0.010
483,-0.030,0.015
484,-0.040,0.045
485,-0.045,0.125
486,-0.050,0.140
487,-0.070,0.130
488,-0.055,0.090
489,-0.030,0.015
490,-0.020,0.000
491,-0.015,0.010
492,-0.020,0.020
493,-0.035,0.050
494,-0.040,0.110
495,-0.030,0.120
496,-0.015,0.090
497,-0.005,0.080
498,-0.015,0.050
499,-0.015,0.010
500,-0.010,0.000
501,-0.005,0.010
502,-0.020,0.050
503,-0.010,0.060
504,-0.030,0.040
505,-0.045,0.040
506,-0.050,0.055
507,-0.025,0.105
508,-0.035,0.135
509,-0.020,0.030
510,-0.030,0.000
511,-0.020,0.000
512,-0.020,0.000
513,-0.025,0.010
514,-0.045,0.045
515,-0.050,0.070
516,-0.040,0.065
517,-0.045,0.080
518,-0.045,0.135
519,-0.035,0.140
520,-0.045,0.045
521,-0.070,0.005
522,-0.085,0.005
523,-0.110,0.000
524,-0.115,0.000
525,-0.125,0.015
526,-0.105,0.025
527,-0.120,0.070
528,-0.120,0.070
529,-0.115,0.025
530,-0.100,-0.005
531,-0.100,0.000
532,-0.110,0.025
533,-0.115,0.050
534,-0.105,0.075
535,-0.090,0.100
536,-0.095,0.105
537,-0.100,0.095
538,-0.140,0.040
539,-0.160,0.000
540,0.005,-0.030
541,0.385,-0.120
542,0.765,-0.285
543,0.855,-0.310
544,0.445,-0.135
545,-0.040,0.080
546,-0.255,0.180
547,-0.225,0.165
548,-0.110,0.100
549,-0.045,0.050
550,-0.020,0.010
551,-0.025,0.010
552,0.000,0.000
553,0.000,0.000
554,0.000,0.065
555,0.005,-0.015
556,0.015,-0.055
557,0.005,0.025
558,0.005,0.045
559,0.010,0.000
560,0.030,0.000
561,0.050,0.000
562,0.055,0.000
563,0.055,-0.005
564,0.060,0.000
565,0.080,0.000
566,0.095,0.025
567,0.100,-0.015
568,0.100,-0.105
569,0.095,-0.145
570,0.095,-0.125
571,0.110,-0.090
572,0.110,-0.080
573,0.100,-0.080
574,0.105,-0.125
575,0.095,-0.190
576,0.070,-0.165
577,0.050,-0.115
578,0.020,-0.120
579,0.000,-0.150
580,-0.020,-0.140
581,-0.065,-0.080
582,-0.105,-0.030
583,-0.150,0.000
584,-0.165,0.015
585,-0.185,0.025
586,-0.205,0.030
587,-0.220,0.085
588,-0.205,0.060
589,-0.215,0.025
590,-0.200,0.025
591,-0.220,0.045
592,-0.215,0.040
593,-0.180,0.050
594,-0.200,0.065
595,-0.195,0.030
596,-0.165,0.060
597,-0.140,0.110
598,-0.140,0.055
599,-0.130,0.035
600,-0.135,0.070
601,-0.115,0.070
602,-0.120,0.080
603,-0.120,0.045
604,-0.120,0.040
605,-0.100,0.055
606,-0.100,0.050
607,-0.080,0.015
608,-0.105,0.025
609,-0.100,0.015
610,-0.095,0.010
611,-0.090,0.040
612,-0.080,0.025
613,-0.060,0.000
614,-0.070,0.015
615,-0.095,0.035
616,-0.100,0.055
617,-0.080,0.070
618,-0.070,0.070
619,-0.070,0.040
620,-0.065,0.010
621,-0.075,0.020
622,-0.095,0.040
623,-0.090,0.040
624,-0.080,0.020
625,-0.085,0.010
626,-0.100,-0.010
627,-0.105,-0.025
628,-0.120,0.000
629,-0.125,0.010
630,-0.140,0.010
631,-0.140,0.000
632,-0.145,0.000
633,-0.120,-0.005
634,-0.115,0.005
635,-0.105,0.050
636,-0.110,0.050
637,-0.065,0.025
638,-0.105,0.050
639,-0.110,0.075
640,-0.110,0.100
641,-0.100,0.015
642,-0.110,0.030
643,-0.180,0.020
644,-0.050,-0.125
645,0.295,-0.215
646,0.715,-0.290
647,0.870,-0.305
648,0.475,-0.170
649,-0.005,0.020
650,-0.245,0.160
651,-0.210,0.160
652,-0.100,0.080
653,-0.050,0.085
654,-0.020,0.105
655,-0.010,0.070
656,-0.005,0.050
657,0.000,0.030
658,0.000,0.000
659,0.000,0.000
660,0.000,0.005
661,0.000,0.040
662,0.010,0.065
663,0.025,0.055
664,0.025,0.040
665,0.030,0.010
666,0.050,-0.030
667,0.050,-0.030
668,0.045,0.000
669,0.050,0.000
670,0.055,0.015
671,0.050,0.040
672,0.060,-0.005
673,0.080,-0.060
674,0.095,-0.050
675,0.095,-0.075
676,0.105,-0.155
677,0.095,-0.205
678,0.085,-0.175
679,0.085,-0.175
680,0.080,-0.170
681,0.055,-0.155
682,0.035,-0.140
683,0.000,-0.025
684,0.000,-0.090
685,-0.035,-0.075
686,-0.050,-0.165
687,-0.075,-0.170
688,-0.115,-0.085
689,-0.135,-0.030
690,-0.130,0.010
691,-0.110,0.015
692,-0.130,0.000
693,-0.135,0.020
694,-0.135,0.025
695,-0.140,0.045
696,-0.130,0.140
697,-0.115,0.140
698,-0.120,0.060
699,-0.120,0.000
700,-0.090,-0.010
701,-0.060,0.000
702,-0.055,0.025
703,-0.075,0.065
704,-0.080,0.070
705,-0.070,0.070
706,-0.055,0.045
707,-0.055,0.000
708,-0.070,0.020
709,-0.070,0.045
710,-0.045,0.040
711,-0.055,0.020
712,-0.055,-0.005
713,-0.055,0.005
714,-0.060,0.040
715,-0.085,0.055
716,-0.065,0.050
717,-0.060,0.000
718,-0.080,0.030
719,-0.095,0.055
720,-0.080,0.020
721,-0.090,0.000
722,-0.120,0.015
723,-0.115,0.075
724,-0.105,0.070
725,-0.085,0.025
726,-0.080,0.060
727,-0.080,0.030
728,-0.100,-0.005
729,-0.105,-0.035
730,-0.125,0.000
731,-0.135,0.000
732,-0.150,0.015
733,-0.150,0.040
734,-0.155,0.080
735,-0.160,0.000
736,-0.165,-0.065
737,-0.145,0.000
738,-0.140,0.030
739,-0.140,0.015
740,-0.140,0.055
741,-0.130,0.080
742,-0.135,0.040
743,-0.135,0.050
744,-0.125,0.055
745,-0.120,0.020
746,-0.150,0.025
747,-0.190,-0.010
748,-0.055,-0.130
749,0.280,-0.245
750,0.645,-0.345
751,0.715,-0.320
752,0.325,-0.100
753,-0.100,0.125
754,-0.265,0.190
755,-0.185,0.110
756,-0.080,0.085
757,-0.020,0.030
758,-0.005,0.000
759,0.000,0.000
760,0.000,0.005
761,0.020,0.030
762,0.015,0.045
763,0.020,0.030
764,0.030,0.085
765,0.035,0.130
766,0.040,0.020
767,0.055,-0.050
768,0.060,-0.030
769,0.060,0.000
770,0.065,0.025
771,0.070,0.025
772,0.110,-0.010
773,0.070,-0.020
774,0.065,-0.055
775,0.095,-0.045
776,0.100,-0.075
777,0.105,-0.110
778,0.120,-0.100
779,0.085,-0.105
780,0.085,-0.115
781,0.080,-0.135
782,0.080,-0.195
783,0.070,-0.190
784,0.055,-0.175
785,0.045,-0.210
786,0.035,-0.265
787,0.015,-0.260
788,0.000,-0.205
789,-0.025,-0.145
790,-0.050,-0.065
791,-0.065,-0.005
792,-0.085,-0.015
793,-0.110,-0.020
794,-0.130,0.040
795,-0.135,0.055
796,-0.120,0.025
797,-0.105,0.045
798,-0.110,0.030
799,-0.100,0.040
800,-0.080,0.050
801,-0.060,0.050
802,-0.060,0.090
803,-0.060,0.055
804,-0.060,0.060
805,-0.050,0.100
806,-0.045,0.065
807,-0.045,0.000
808,-0.035,0.020
809,-0.055,0.045
810,-0.030,0.010
811,-0.030,0.050
812,-0.030,0.035
813,-0.050,0.045
814,-0.060,0.115
815,-0.055,0.105
816,-0.055,0.070
817,-0.055,0.065
818,-0.055,0.045
819,-0.085,0.025
820,-0.095,0.030
821,-0.095,0.065
822,-0.075,0.060
823,-0.060,0.015
824,-0.060,-0.010
825,-0.055,0.015
826,-0.055,0.030
827,-0.045,0.035
828,-0.035,0.045
829,-0.025,0.070
830,-0.020,0.105
831,-0.010,0.120
832,-0.010,0.110
833,-0.020,0.040
834,-0.020,-0.055
835,-0.035,-0.075
836,-0.065,-0.030
837,-0.090,-0.015
838,-0.080,-0.035
839,-0.055,-0.015
840,-0.025,0.045
841,-0.030,0.130
842,-0.065,0.135
843,-0.065,0.030
844,-0.035,0.030
845,-0.035,0.045
846,-0.035,0.035
847,-0.040,0.025
848,-0.015,0.025
849,-0.085,0.000
850,-0.115,-0.060
851,0.135,-0.095
852,0.520,-0.190
853,0.885,-0.235
854,0.785,-0.160
855,0.270,0.040
856,-0.140,0.175
857,-0.205,0.165
858,-0.125,0.045
859,-0.015,0.035
860,0.025,0.060
861,0.050,0.065
862,0.025,0.120
863,0.035,0.150
864,0.040,0.100
865,0.050,0.040
866,0.045,0.045
867,0.050,0.015
868,0.060,0.000
869,0.075,0.000
870,0.090,-0.005
871,0.090,0.000
872,0.060,0.035
873,0.050,0.025
874,0.080,0.020
875,0.105,0.045
876,0.115,0.045
877,0.115,0.000
878,0.125,-0.075
879,0.130,-0.110
880,0.125,-0.110
881,0.135,-0.120
882,0.155,-0.130
883,0.175,-0.135
884,0.150,-0.135
885,0.130,-0.135
886,0.110,-0.120
887,0.100,-0.185
888,0.075,-0.230
889,0.055,-0.155
890,0.045,-0.135
891,0.035,-0.120
892,0.000,-0.075
893,0.000,-0.035
894,-0.005,-0.105
895,-0.005,-0.090
896,-0.010,-0.010
897,0.000,0.005
898,-0.025,0.045
899,-0.010,0.075
900,0.000,0.125
901,0.000,0.090
902,-0.005,0.080
903,-0.010,0.120
904,0.000,0.035
905,0.000,0.005
906,0.005,-0.005
907,0.000,0.035
908,0.000,0.065
909,0.010,0.045
910,0.010,0.030
911,0.000,0.075
912,0.000,0.080
913,0.000,0.030
914,0.010,0.005
915,0.010,0.025
916,0.000,0.035
917,0.000,0.025
918,0.000,0.080
919,0.000,0.090
920,0.000,0.015
921,0.000,0.000
922,0.000,0.005
923,0.000,0.025
924,0.000,0.060
925,0.000,0.105
926,-0.010,0.100
927,-0.025,0.080
928,-0.020,0.010
929,-0.015,0.000
930,-0.015,0.010
931,-0.025,0.045
932,-0.030,0.085
933,-0.025,0.085
934,-0.015,0.020
935,-0.035,0.015
936,-0.055,0.045
937,-0.085,0.010
938,-0.070,-0.045
939,-0.075,-0.025
940,-0.090,-0.005
941,-0.095,0.035
942,-0.080,0.050
943,-0.085,0.070
944,-0.090,0.135
945,-0.090,0.045
946,-0.095,0.025
947,-0.120,0.075
948,-0.100,0.075
949,-0.090,0.010
950,-0.110,0.025
951,-0.175,0.000
952,-0.065,-0.045
953,0.255,-0.110
954,0.665,-0.170
955,0.860,-0.255
956,0.570,-0.205
957,0.070,0.020
958,-0.225,0.190
959,-0.255,0.175
960,-0.155,0.110
961,-0.050,0.115
962,0.000,0.110
963,0.000,0.055
964,0.000,0.010
965,0.000,-0.005
966,0.000,0.000
967,0.005,0.000
968,0.020,-0.010
969,0.010,0.020
970,0.015,0.050
971,0.025,0.030
972,0.040,0.015
973,0.030,0.060
974,0.050,0.035
975,0.040,-0.030
976,0.045,-0.020
977,0.060,-0.005
978,0.080,-0.040
979,0.095,-0.045
980,0.080,-0.045
981,0.090,-0.015
982,0.110,-0.040
983,0.110,-0.055
984,0.100,-0.090
985,0.095,-0.085
986,0.095,-0.105
987,0.125,-0.180
988,0.090,-0.245
989,0.065,-0.180
990,0.050,-0.140
991,0.015,-0.095
992,0.000,-0.120
993,-0.015,-0.105
994,-0.040,-0.110
995,-0.060,-0.115
996,-0.110,-0.020
997,-0.115,0.005
998,-0.110,-0.010
999,-0.105,0.000
1000,-0.115,0.045
1001,-0.130,0.045
1002,-0.140,0.060
1003,-0.135,0.060
1004,-0.115,0.030
1005,-0.080,0.020
1006,-0.060,0.005
1007,-0.080,0.015
1008,-0.095,0.025
1009,-0.080,0.055
1010,-0.060,0.075
1011,-0.055,0.060
1012,-0.055,0.035
1013,-0.070,0.050
1014,-0.070,0.005
1015,-0.050,0.000
1016,-0.065,0.020
1017,-0.080,0.000
1018,-0.075,0.045
1019,-0.055,0.135
1020,-0.060,0.095
1021,-0.055,-0.005
1022,-0.070,0.035
1023,-0.080,0.035
1024,-0.095,0.030
1025,-0.090,0.035
1026,-0.105,0.045
1027,-0.105,0.000
1028,-0.115,0.000
1029,-0.100,-0.015
1030,-0.105,0.005
1031,-0.110,0.035
1032,-0.105,0.080
1033,-0.105,0.065
1034,-0.105,0.030
1035,-0.105,0.055
1036,-0.075,0.070
1037,-0.095,0.025
1038,-0.115,-0.050
1039,-0.115,-0.050
1040,-0.105,-0.030
1041,-0.120,-0.015
1042,-0.125,-0.010
1043,-0.100,0.010
1044,-0.105,0.025
1045,-0.110,0.010
1046,-0.100,0.025
1047,-0.090,0.030
1048,-0.075,-0.005
1049,-0.055,-0.025
1050,-0.050,-0.005
1051,-0.050,0.005
1052,-0.055,0.020
1053,-0.055,0.050
1054,-0.055,0.030
1055,-0.085,-0.020
1056,-0.060,-0.050
1057,0.205,-0.060
1058,0.585,-0.190
1059,0.885,-0.350
1060,0.695,-0.240
1061,0.170,-0.040
1062,-0.180,0.065
1063,-0.250,0.085
1064,-0.105,0.080
1065,0.000,0.005
1066,0.000,0.020
1067,0.000,0.020
1068,0.000,0.075
1069,0.000,0.040
1070,0.020,0.030
1071,0.015,0.115
1072,0.000,0.150
1073,0.005,0.005
1074,0.020,-0.060
1075,0.020,-0.040
1076,0.030,0.005
1077,0.030,0.005
1078,0.040,0.015
1079,0.055,0.015
1080,0.060,0.015
1081,0.050,0.020
1082,0.045,-0.010
1083,0.055,-0.050
1084,0.065,-0.055
1085,0.080,-0.065
1086,0.095,-0.095
1087,0.105,-0.130
1088,0.100,-0.130
1089,0.100,-0.100
1090,0.120,-0.125
1091,0.115,-0.170
1092,0.085,-0.150
1093,0.065,-0.155
1094,0.075,-0.225
1095,0.065,-0.255
1096,0.035,-0.210
1097,0.000,-0.130
1098,-0.020,-0.090
1099,-0.040,-0.110
1100,-0.070,-0.050
1101,-0.110,-0.005
1102,-0.095,0.015
1103,-0.115,-0.020
1104,-0.120,0.000
1105,-0.115,0.075
1106,-0.095,0.075
1107,-0.090,0.000
1108,-0.085,0.000
1109,-0.075,0.000
1110,-0.060,0.000
1111,-0.055,0.040
1112,-0.055,0.090
1113,-0.050,0.045
1114,-0.050,0.040
1115,-0.040,0.070
1116,-0.070,0.050
1117,-0.060,0.025
1118,-0.075,0.010
1119,-0.070,0.015
1120,-0.075,0.005
1121,-0.065,0.000
1122,-0.070,0.000
1123,-0.065,0.055
1124,-0.065,0.080
1125,-0.055,0.050
1126,-0.085,0.030
1127,-0.100,0.015
1128,-0.105,0.045
1129,-0.100,0.065
1130,-0.095,0.065
1131,-0.100,0.075
1132,-0.095,0.050
1133,-0.090,0.010
1134,-0.085,-0.010
1135,-0.080,-0.010
1136,-0.080,0.000
1137,-0.080,0.030
1138,-0.070,0.080
1139,-0.055,0.070
1140,-0.065,0.055
1141,-0.055,0.000
1142,-0.055,-0.010
1143,-0.060,-0.005
1144,-0.080,0.005
1145,-0.095,-0.005
1146,-0.090,-0.055
1147,-0.070,0.020
1148,-0.090,0.085
1149,-0.085,-0.015
1150,-0.065,-0.080
1151,-0.055,0.000
1152,-0.055,0.000
1153,-0.055,-0.030
1154,-0.090,0.000
1155,-0.060,0.055
1156,-0.035,0.095
1157,-0.035,0.130
1158,-0.050,0.065
1159,-0.115,-0.040
1160,-0.030,-0.095
1161,0.260,-0.245
1162,0.640,-0.375
1163,0.765,-0.375
1164,0.440,-0.260
1165,0.000,-0.015
1166,-0.210,0.200
1167,-0.195,0.230
1168,-0.100,0.090
1169,-0.025,0.030
1170,0.000,0.040
1171,0.000,0.020
1172,0.000,0.010
1173,-0.005,0.010
1174,-0.005,0.010
1175,0.000,0.040
1176,0.000,0.060
1177,0.000,0.055
1178,0.010,0.035
1179,0.020,0.005
1180,0.010,0.010
1181,0.020,0.010
1182,0.030,0.000
1183,0.045,-0.025
1184,0.035,-0.005
1185,0.020,0.035
1186,0.040,0.015
1187,0.060,-0.010
1188,0.065,-0.065
1189,0.080,-0.060
1190,0.115,-0.155
1191,0.130,-0.185
1192,0.110,-0.160
1193,0.110,-0.175
1194,0.105,-0.170
1195,0.085,-0.140
1196,0.085,-0.085
1197,0.060,-0.170
1198,0.065,-0.275
1199,0.030,-0.200
1200,0.015,-0.215
1201,0.000,-0.190
1202,0.000,-0.140
1203,-0.030,-0.085
1204,-0.050,-0.025
1205,-0.060,0.020
1206,-0.050,0.035
1207,-0.060,0.120
1208,-0.075,0.065
1209,-0.080,0.010
1210,-0.065,0.070
1211,-0.065,0.115
1212,-0.070,0.045
1213,-0.045,0.000
1214,-0.035,0.015
1215,-0.040,0.035
1216,-0.040,0.095
1217,-0.045,0.155
1218,-0.045,0.130
1219,-0.030,0.060
1220,-0.010,0.010
1221,-0.015,0.020
1222,-0.025,0.040
1223,-0.015,0.005
1224,0.000,0.010
1225,-0.005,0.040
1226,-0.010,0.050
1227,-0.050,0.025
1228,-0.030,0.050
1229,-0.020,0.060
1230,-0.020,0.050
1231,-0.045,0.110
1232,-0.030,0.070
1233,-0.025,0.090
1234,-0.025,-0.005
1235,-0.020,-0.005
1236,-0.005,0.015
1237,0.000,0.060
1238,-0.015,0.060
1239,0.000,0.005
1240,-0.015,0.030
1241,0.000,0.070
1242,0.000,0.055
1243,0.000,0.085
1244,-0.025,0.055
1245,-0.005,-0.005
1246,-0.005,-0.020
1247,0.000,-0.025
1248,0.000,-0.030
1249,-0.010,-0.015
1250,-0.035,0.010
1251,-0.015,-0.005
1252,0.000,-0.005
1253,-0.005,0.050
1254,-0.005,0.080
1255,0.000,0.095
1256,-0.010,0.075
1257,-0.005,0.050
1258,-0.005,0.035
1259,-0.005,0.015
1260,-0.030,0.015
1261,-0.095,0.010
1262,-0.040,-0.040
1263,0.235,-0.125
1264,0.630,-0.235
1265,0.890,-0.285
1266,0.690,-0.165
1267,0.185,0.040
1268,-0.150,0.240
1269,-0.205,0.240
1270,-0.095,0.110
1271,0.005,0.055
1272,0.045,0.025
1273,0.060,0.050
1274,0.060,0.055
1275,0.050,0.050
1276,0.040,0.065
1277,0.090,0.085
1278,0.090,0.040
1279,0.080,0.050
1280,0.110,0.080
1281,0.095,0.000
1282,0.085,0.010
1283,0.140,0.025
1284,0.135,-0.015
1285,0.145,0.000
1286,0.115,0.000
1287,0.145,-0.010
1288,0.185,-0.035
1289,0.190,-0.030
1290,0.205,-0.065
1291,0.190,-0.080
1292,0.200,-0.075
1293,0.210,-0.060
1294,0.220,-0.105
1295,0.225,-0.160
1296,0.220,-0.175
1297,0.180,-0.155
1298,0.150,-0.140
1299,0.140,-0.160
1300,0.135,-0.190
1301,0.125,-0.150
1302,0.110,-0.125
1303,0.080,-0.150
1304,0.035,-0.135
1305,0.010,-0.090
1306,0.000,-0.035
1307,-0.015,0.020
1308,-0.035,0.035
1309,-0.020,0.025
1310,-0.045,0.080
1311,-0.055,0.125
1312,-0.050,0.055
1313,-0.055,0.040
1314,-0.015,0.050
1315,0.000,0.040
1316,0.000,0.000
1317,0.000,0.005
1318,-0.020,0.075
1319,-0.005,0.080
1320,0.000,0.045
1321,0.000,0.040
1322,0.000,0.040
1323,0.000,0.040
1324,0.000,0.110
1325,0.005,0.055
1326,0.020,0.030
1327,0.005,0.045
1328,0.010,0.050
1329,0.000,0.005
1330,0.010,0.060
1331,0.000,0.075
1332,0.000,0.055
1333,0.000,0.030
1334,0.000,0.000
1335,0.000,-0.015
1336,0.010,0.010
1337,0.015,0.015
1338,0.010,0.020
1339,0.010,0.040
1340,0.000,0.040
1341,0.000,0.055
1342,0.000,0.090
1343,0.000,0.075
1344,-0.015,0.070
1345,-0.030,0.150
1346,-0.030,0.115
1347,-0.050,0.005
1348,-0.075,-0.025
1349,-0.100,-0.055
1350,-0.115,-0.040
1351,-0.130,-0.010
1352,-0.120,0.005
1353,-0.105,0.025
1354,-0.100,0.055
1355,-0.115,0.080
1356,-0.120,0.080
1357,-0.120,0.030
1358,-0.120,0.055
1359,-0.140,0.060
1360,-0.140,0.040
1361,-0.140,0.055
1362,-0.170,0.065
1363,-0.185,0.005
1364,0.120,-0.005
1365,0.530,-0.035
1366,0.890,-0.220
1367,0.720,-0.255
1368,0.165,-0.120
1369,-0.225,0.085
1370,-0.295,0.145
1371,-0.185,0.115
1372,-0.080,0.090
1373,-0.030,0.065
1374,-0.025,0.075
1375,-0.010,0.095
1376,-0.010,0.085
1377,0.000,0.025
1378,0.000,0.045
1379,0.010,0.045
1380,0.005,0.010
1381,0.035,0.000
1382,0.045,-0.005
1383,0.045,-0.015
1384,0.045,0.005
1385,0.055,0.010
1386,0.070,0.020
1387,0.065,0.035
1388,0.060,0.005
1389,0.075,-0.035
1390,0.095,-0.035
1391,0.100,-0.045
1392,0.100,-0.110
1393,0.095,-0.120
1394,0.115,-0.100
1395,0.140,-0.120
1396,0.130,-0.160
1397,0.105,-0.140
1398,0.105,-0.160
1399,0.095,-0.210
1400,0.055,-0.220
1401,0.045,-0.205
1402,0.025,-0.115
1403,0.025,-0.120
1404,0.000,-0.180
1405,0.000,-0.135
1406,-0.045,-0.055
1407,-0.095,-0.030
1408,-0.100,-0.035
1409,-0.100,0.000
1410,-0.150,0.000
1411,-0.140,0.000
1412,-0.140,0.050
1413,-0.150,0.065
1414,-0.140,0.095
1415,-0.130,0.100
1416,-0.130,0.070
1417,-0.120,0.080
1418,-0.135,0.040
1419,-0.140,0.035
1420,-0.145,0.020
1421,-0.135,0.025
1422,-0.110,0.035
1423,-0.080,0.030
1424,-0.065,0.025
1425,-0.065,0.025
1426,-0.055,0.030
1427,-0.050,0.050
1428,-0.055,0.080
1429,-0.080,0.110
1430,-0.085,0.095
1431,-0.070,0.045
1432,-0.085,0.030
1433,-0.080,0.020
1434,-0.085,0.005
1435,-0.110,0.020
1436,-0.110,0.045
1437,-0.100,0.100
1438,-0.090,0.075
1439,-0.095,0.010
1440,-0.090,-0.050
1441,-0.085,-0.010
1442,-0.065,0.010
1443,-0.060,0.040
1444,-0.055,0.045
1445,-0.055,0.025
1446,-0.065,0.045
1447,-0.065,0.025
1448,-0.105,0.025
1449,-0.120,0.025
1450,-0.105,0.025
1451,-0.115,0.050
1452,-0.110,0.060
1453,-0.105,-0.030
1454,-0.040,-0.050
1455,-0.020,-0.055
1456,-0.080,-0.005
1457,-0.140,0.000
1458,-0.145,0.005
1459,-0.135,0.040
1460,-0.090,0.100
1461,-0.100,0.120
1462,-0.075,0.025
1463,-0.085,0.000
1464,-0.150,0.005
1465,-0.190,0.000
1466,-0.010,-0.095
1467,0.340,-0.220
1468,0.710,-0.330
1469,0.705,-0.335
1470,0.310,-0.185
1471,-0.085,0.070
1472,-0.225,0.200
1473,-0.145,0.145
1474,-0.040,0.100
1475,-0.005,0.060
1476,0.000,-0.010
1477,0.000,-0.025
1478,0.000,0.000
1479,0.005,0.030
1480,0.005,0.070
1481,0.010,0.080
1482,0.030,0.030
1483,0.020,0.015
1484,0.035,0.045
1485,0.035,0.025
1486,0.065,-0.010
1487,0.045,0.010
1488,0.030,0.065
1489,0.050,-0.005
1490,0.090,-0.040
1491,0.065,0.045
1492,0.065,-0.020
1493,0.080,-0.080
1494,0.100,-0.030
1495,0.105,-0.065
1496,0.110,-0.125
1497,0.115,-0.140
1498,0.110,-0.130
1499,0.125,-0.155
1500,0.100,-0.165
1501,0.095,-0.110
1502,0.065,-0.155
1503,0.050,-0.220
1504,0.030,-0.235
1505,0.025,-0.195
1506,0.005,-0.095
1507,-0.030,-0.105
1508,-0.065,-0.110
1509,-0.085,-0.050
1510,-0.115,-0.025
1511,-0.130,-0.015
1512,-0.130,0.000
1513,-0.120,0.005
1514,-0.120,0.010
1515,-0.105,0.025
1516,-0.100,0.055
1517,-0.100,0.095
1518,-0.095,0.130
1519,-0.095,0.120
1520,-0.085,0.055
1521,-0.070,0.025
1522,-0.055,0.030
1523,-0.050,0.025
1524,-0.035,-0.010
1525,-0.025,-0.010
1526,-0.055,0.035
1527,-0.045,0.025
1528,-0.020,0.025
1529,-0.005,0.025
1530,-0.040,0.040
1531,-0.015,0.085
1532,-0.005,0.070
1533,-0.015,0.135
1534,-0.035,0.065
1535,-0.015,-0.050
1536,-0.015,0.000
1537,-0.015,0.000
1538,-0.045,0.000
1539,-0.035,0.000
1540,-0.055,0.065
1541,-0.055,0.130
1542,-0.060,0.085
1543,-0.050,0.035
1544,-0.045,0.015
1545,-0.050,0.020
1546,-0.035,-0.005
1547,-0.035,-0.025
1548,-0.060,-0.005
1549,-0.060,0.005
1550,-0.080,0.005
1551,-0.105,0.000
1552,-0.080,0.000
1553,-0.080,0.035
1554,-0.080,0.025
1555,-0.085,-0.015
1556,-0.070,-0.020
1557,-0.095,0.040
1558,-0.120,0.090
1559,-0.105,0.065
1560,-0.090,0.010
1561,-0.085,0.010
1562,-0.075,0.035
1563,-0.055,0.060
1564,-0.055,0.050
1565,-0.065,0.005
1566,-0.110,-0.010
1567,-0.090,-0.045
1568,0.120,-0.120
1569,0.480,-0.205
1570,0.785,-0.295
1571,0.675,-0.265
1572,0.200,-0.090
1573,-0.135,0.105
1574,-0.205,0.170
1575,-0.105,0.145
1576,0.000,0.100
1577,0.020,0.070
1578,0.020,0.040
1579,0.030,0.075
1580,0.045,0.055
1581,0.040,0.020
1582,0.055,0.030
1583,0.060,0.010
1584,0.095,0.015
1585,0.075,0.045
1586,0.075,0.060
1587,0.080,0.035
1588,0.080,0.045
1589,0.080,0.025
1590,0.090,-0.020
1591,0.100,-0.030
1592,0.105,-0.010
1593,0.125,0.010
1594,0.150,0.025
1595,0.145,-0.080
1596,0.140,-0.145
1597,0.140,-0.070
1598,0.160,-0.070
1599,0.190,-0.150
1600,0.185,-0.165
1601,0.175,-0.120
1602,0.165,-0.155
1603,0.135,-0.210
1604,0.115,-0.220
1605,0.110,-0.280
1606,0.095,-0.265
1607,0.065,-0.175
1608,0.050,-0.105
1609,0.025,-0.100
1610,0.000,-0.075
1611,0.000,-0.015
1612,-0.020,0.060
1613,-0.035,0.060
1614,-0.030,-0.005
1615,-0.020,-0.015
1616,-0.020,0.045
1617,-0.040,0.065
1618,-0.005,0.090
1619,0.000,0.095
1620,0.000,0.040
1621,-0.015,0.035
1622,-0.015,0.045
1623,0.000,0.030
1624,0.000,0.065
1625,0.000,0.030
1626,0.010,0.060
1627,0.010,0.055
1628,0.000,0.025
1629,0.000,0.085
1630,0.020,0.160
1631,0.010,0.090
1632,0.000,0.030
1633,0.020,0.025
1634,0.005,0.035
1635,0.000,0.020
1636,0.005,0.010
1637,0.005,0.000
1638,0.015,0.045
1639,0.015,0.100
1640,-0.010,0.090
1641,-0.005,0.050
1642,0.005,0.010
1643,0.005,0.005
1644,0.010,0.025
1645,0.005,0.055
1646,0.000,0.100
1647,0.005,0.135
1648,0.015,0.085
1649,0.000,0.030
1650,-0.010,0.080
1651,-0.030,0.060
1652,-0.025,-0.020
1653,-0.020,-0.075
1654,-0.020,-0.045
1655,-0.040,-0.015
1656,-0.040,0.000
1657,-0.015,0.005
1658,-0.030,0.045
1659,-0.010,0.100
1660,0.000,0.155
1661,0.000,0.145
1662,-0.015,0.055
1663,-0.010,0.030
1664,0.000,0.040
1665,0.010,0.000
1666,-0.010,0.005
1667,-0.110,-0.005
1668,0.040,-0.105
1669,0.435,-0.170
1670,0.840,-0.240
1671,0.930,-0.140
1672,0.490,0.005
1673,0.005,0.115
1674,-0.205,0.155
1675,-0.110,0.130
1676,-0.015,0.105
1677,0.010,0.040
1678,0.045,0.000
1679,0.065,0.005
1680,0.070,0.040
1681,0.070,0.090
1682,0.095,0.100
1683,0.120,0.065
1684,0.130,0.010
1685,0.130,-0.010
1686,0.120,-0.015
1687,0.125,-0.035
1688,0.135,-0.030
1689,0.130,-0.005
1690,0.130,0.000
1691,0.140,-0.010
1692,0.150,-0.015
1693,0.175,-0.015
1694,0.175,-0.015
1695,0.185,0.015
1696,0.200,0.015
1697,0.220,-0.115
1698,0.220,-0.155
1699,0.215,-0.155
1700,0.190,-0.155
1701,0.195,-0.155
1702,0.195,-0.190
1703,0.180,-0.230
1704,0.145,-0.215
1705,0.135,-0.200
1706,0.130,-0.205
1707,0.095,-0.140
1708,0.070,-0.085
1709,0.045,-0.090
1710,0.025,-0.095
1711,-0.025,-0.045
1712,-0.050,0.030
1713,-0.065,0.005
1714,-0.055,-0.015
1715,-0.075,0.025
1716,-0.080,0.070
1717,-0.080,0.065
1718,-0.060,0.050
1719,-0.070,0.040
1720,-0.085,0.045
1721,-0.100,0.050
1722,-0.100,0.050
1723,-0.095,0.055
1724,-0.070,0.055
1725,-0.060,0.035
1726,-0.055,0.060
1727,-0.055,0.080
1728,-0.045,0.055
1729,-0.040,0.050
1730,-0.040,0.090
1731,-0.035,0.095
1732,-0.020,0.020
1733,-0.020,-0.010
1734,-0.050,0.000
1735,-0.060,0.000
1736,-0.055,0.000
1737,-0.055,0.020
1738,-0.055,0.045
1739,-0.045,0.065
1740,-0.030,0.075
1741,-0.030,0.050
1742,-0.030,0.030
1743,-0.050,0.010
1744,-0.040,0.025
1745,-0.040,0.025
1746,-0.055,0.035
1747,-0.050,0.005
1748,-0.035,0.000
1749,-0.015,0.000
1750,-0.005,0.020
1751,-0.010,0.025
1752,-0.030,0.025
1753,-0.040,-0.005
1754,-0.050,-0.005
1755,-0.050,0.025
1756,-0.045,0.000
1757,-0.030,-0.020
1758,-0.060,-0.005
1759,-0.050,-0.025
1760,-0.040,-0.040
1761,-0.050,0.000
1762,-0.070,0.055
1763,-0.055,0.015
1764,-0.060,-0.005
1765,-0.070,0.000
1766,-0.075,0.015
1767,-0.065,0.020
1768,-0.085,0.020
1769,-0.140,0.000
1770,-0.070,-0.060
1771,0.215,-0.140
1772,0.620,-0.230
1773,0.820,-0.295
1774,0.560,-0.230
1775,0.065,-0.020
1776,-0.210,0.110
1777,-0.220,0.090
1778,-0.110,0.065
1779,-0.035,0.030
1780,-0.020,0.010
1781,-0.020,0.035
1782,-0.020,0.050
1783,0.000,0.050
1784,0.000,0.050
1785,0.000,0.080
1786,0.000,0.095
1787,0.020,0.060
1788,0.025,0.035
1789,0.055,0.025
1790,0.055,0.020
1791,0.065,0.015
1792,0.060,-0.005
1793,0.080,-0.020
1794,0.080,-0.020
1795,0.095,-0.025
1796,0.100,-0.030
1797,0.115,-0.030
1798,0.110,-0.035
1799,0.130,-0.050
1800,0.135,-0.055
1801,0.150,-0.080
1802,0.145,-0.090
1803,0.140,-0.100
1804,0.140,-0.130
1805,0.140,-0.160
1806,0.120,-0.115
1807,0.095,-0.155
1808,0.085,-0.265
1809,0.065,-0.270
1810,0.030,-0.200
1811,0.005,-0.135
1812,-0.005,-0.065
1813,-0.035,-0.020
1814,-0.055,-0.015
1815,-0.080,-0.005
1816,-0.100,0.000
1817,-0.120,0.005
1818,-0.135,0.015
1819,-0.130,0.035
1820,-0.125,0.060
1821,-0.110,0.070
1822,-0.100,0.050
1823,-0.095,0.050
1824,-0.095,0.065
1825,-0.080,0.075
1826,-0.085,0.090
1827,-0.075,0.110
1828,-0.055,0.060
1829,-0.055,0.040
1830,-0.050,0.005
1831,-0.045,0.005
1832,-0.055,0.045
1833,-0.055,0.045
1834,-0.055,0.040
1835,-0.055,0.040
1836,-0.055,0.040
1837,-0.065,0.045
1838,-0.055,0.040
1839,-0.055,0.040
1840,-0.045,0.040
1841,-0.045,0.045
1842,-0.030,0.050
1843,-0.045,0.050
1844,-0.030,0.050
1845,-0.045,0.050
1846,-0.040,0.070
1847,-0.035,0.070
1848,-0.030,0.070
1849,-0.045,0.090
1850,-0.070,0.070
1851,-0.070,-0.010
1852,-0.070,-0.065
1853,-0.090,-0.055
1854,-0.090,-0.025
1855,-0.090,-0.005
1856,-0.100,0.000
1857,-0.105,0.005
1858,-0.095,0.020
1859,-0.085,0.030
1860,-0.085,0.050
1861,-0.090,0.045
1862,-0.075,0.025
1863,-0.065,0.030
1864,-0.060,0.035
1865,-0.070,0.030
1866,-0.095,0.020
1867,-0.155,-0.005
1868,-0.050,-0.065
1869,0.255,-0.225
1870,0.620,-0.350
1871,0.780,-0.365
1872,0.435,-0.190
1873,-0.045,0.065
1874,-0.245,0.220
1875,-0.180,0.160
1876,-0.075,0.140
1877,-0.020,0.090
1878,0.000,0.040
1879,0.000,0.065
1880,0.000,0.055
1881,0.000,0.025
1882,0.020,0.050
1883,0.025,0.075
1884,0.015,0.110
1885,0.035,0.095
1886,0.045,0.060
1887,0.065,0.030
1888,0.060,0.005
1889,0.065,0.000
1890,0.090,0.000
1891,0.100,0.000
1892,0.075,-0.005
1893,0.090,-0.005
1894,0.110,-0.005
1895,0.125,-0.020
1896,0.135,-0.035
1897,0.140,-0.020
1898,0.140,-0.020
1899,0.145,-0.060
1900,0.150,-0.120
1901,0.150,-0.185
1902,0.150,-0.235
1903,0.140,-0.240
1904,0.130,-0.225
1905,0.120,-0.225
1906,0.105,-0.225
1907,0.060,-0.190
1908,0.025,-0.150
1909,0.005,-0.085
1910,-0.005,-0.025
1911,-0.015,0.000
1912,-0.030,0.000
1913,-0.040,0.015
1914,-0.045,0.005
1915,-0.035,0.015
1916,-0.045,0.050
1917,-0.025,0.095
1918,-0.030,0.065
1919,-0.030,0.025
1920,-0.030,0.040
1921,-0.020,0.045
1922,-0.040,0.050
1923,-0.020,0.105
1924,-0.005,0.070
1925,-0.015,0.030
1926,-0.055,0.025
1927,-0.055,0.045
1928,-0.035,0.055
1929,-0.020,0.070
1930,-0.030,0.075
1931,-0.025,0.075
1932,-0.025,0.075
1933,-0.025,0.085
1934,-0.030,0.115
1935,-0.030,0.115
1936,-0.015,0.090
1937,0.000,0.080
1938,-0.020,0.075
1939,-0.085,0.030
1940,-0.075,-0.035
1941,0.120,-0.145
1942,0.485,-0.275
1943,0.775,-0.300
1944,0.660,-0.155
1945,0.205,0.065
1946,-0.150,0.230
1947,-0.230,0.265
1948,-0.125,0.190
1949,-0.010,0.100
1950,0.005,0.075
1951,0.015,0.100
1952,0.015,0.100
1953,0.045,0.100
1954,0.060,0.110
1955,0.055,0.065
1956,0.055,0.030
1957,0.065,0.035
1958,0.050,0.055
1959,0.045,0.065
1960,0.065,0.015
1961,0.075,0.025
1962,0.085,0.030
1963,0.085,0.035
1964,0.095,0.045
1965,0.105,0.000
1966,0.110,-0.025
1967,0.115,-0.030
1968,0.150,-0.005
1969,0.170,-0.025
1970,0.175,-0.075
1971,0.160,-0.125
1972,0.185,-0.135
1973,0.185,-0.140
1974,0.195,-0.165
1975,0.195,-0.195
1976,0.185,-0.195
1977,0.160,-0.170
1978,0.120,-0.130
1979,0.090,-0.105
1980,0.080,-0.095
1981,0.050,-0.060
1982,0.020,-0.020
1983,0.005,0.000
1984,0.000,0.020
1985,0.000,0.040
1986,-0.005,0.055
1987,-0.010,0.065
1988,-0.015,0.065
1989,-0.020,0.075
1990,-0.020,0.075
1991,-0.020,0.080
1992,-0.015,0.075
1993,-0.010,0.045
1994,0.000,0.025
1995,0.000,0.030
1996,0.000,0.050
1997,-0.010,0.060
1998,0.000,0.050
1999,0.000,0.045
2000,0.000,0.055
2001,-0.005,0.065
2002,0.000,0.070
2003,-0.015,0.025
2004,-0.015,0.025
2005,-0.030,0.040
2006,-0.030,0.040
2007,-0.035,0.060
2008,-0.035,0.055
2009,-0.030,0.050
2010,-0.045,0.050
2011,-0.050,0.050
2012,-0.055,0.055
2013,-0.055,0.075
2014,-0.060,0.060
2015,-0.060,0.050
2016,-0.075,0.065
2017,-0.085,0.070
2018,-0.095,0.090
2019,-0.085,0.075
2020,-0.090,0.045
2021,-0.100,0.045
2022,-0.105,0.040
2023,-0.105,0.055
2024,-0.110,0.055
2025,-0.120,0.040
2026,-0.120,0.035
2027,-0.115,0.045
2028,-0.115,0.055
2029,-0.120,0.040
2030,-0.110,0.030
2031,-0.110,0.040
2032,-0.100,0.045
2033,-0.100,0.035
2034,-0.100,0.030
2035,-0.110,0.025
2036,-0.115,0.010
2037,-0.125,0.000
2038,-0.140,0.015
2039,-0.135,0.015
2040,-0.125,0.000
2041,-0.125,-0.005
2042,-0.130,-0.015
2043,-0.120,-0.015
2044,-0.115,0.000
2045,-0.115,0.055
2046,-0.120,0.065
2047,-0.105,0.070
2048,-0.105,0.040
2049,-0.080,0.015
2050,-0.080,0.005
2051,-0.060,0.030
2052,-0.130,0.000
2053,-0.140,-0.035
2054,0.110,-0.115
2055,0.510,-0.225
2056,0.845,-0.315
2057,0.700,-0.275
2058,0.220,-0.105
2059,-0.140,0.090
2060,-0.235,0.130
2061,-0.155,0.100
2062,-0.065,0.090
2063,-0.030,0.065
2064,-0.025,0.035
2065,-0.025,0.035
2066,-0.020,0.020
2067,-0.020,0.025
2068,-0.015,0.040
2069,-0.005,0.025
2070,0.000,0.020
2071,-0.005,0.030
2072,-0.015,0.030
2073,-0.010,0.035
2074,-0.005,0.040
2075,0.000,0.015
2076,0.005,-0.010
2077,0.010,-0.010
2078,0.000,-0.005
2079,0.010,-0.020
2080,0.015,-0.020
2081,0.035,-0.030
2082,0.040,-0.045
2083,0.060,-0.055
2084,0.060,-0.075
2085,0.070,-0.100
2086,0.065,-0.150
2087,0.060,-0.185
2088,0.065,-0.185
2089,0.055,-0.200
2090,0.050,-0.210
2091,0.045,-0.215
2092,0.045,-0.210
2093,0.025,-0.200
2094,0.005,-0.170
2095,-0.020,-0.115
2096,-0.030,-0.090
2097,-0.050,-0.080
2098,-0.055,-0.055
2099,-0.075,-0.010
2100,-0.080,0.010
2101,-0.090,0.005
2102,-0.080,0.005
2103,-0.080,0.010
2104,-0.070,0.015
2105,-0.075,0.030
2106,-0.070,0.055
2107,-0.065,0.065
2108,-0.060,0.050
2109,-0.055,0.030
2110,-0.050,0.025
2111,-0.050,0.035
2112,-0.050,0.045
2113,-0.055,0.055
2114,-0.055,0.065
2115,-0.050,0.040
2116,-0.055,0.025
2117,-0.070,0.040
2118,-0.070,0.060
2119,-0.070,0.050
2120,-0.065,0.045
2121,-0.075,0.060
2122,-0.070,0.060
2123,-0.090,0.065
2124,-0.090,0.050
2125,-0.090,0.050
2126,-0.095,0.065
2127,-0.115,0.055
2128,-0.105,0.050
2129,-0.120,0.035
2130,-0.120,0.045
2131,-0.125,0.030
2132,-0.115,0.035
2133,-0.115,0.045
2134,-0.105,0.010
2135,-0.110,0.030
2136,-0.110,0.035
2137,-0.110,0.050
2138,-0.115,0.015
2139,-0.135,0.055
2140,-0.135,0.035
2141,-0.120,-0.020
2142,-0.110,-0.050
2143,-0.110,-0.035
2144,-0.130,-0.020
2145,-0.120,-0.005
2146,-0.105,0.000
2147,-0.085,0.015
2148,-0.090,0.035
2149,-0.100,0.070
2150,-0.105,0.095
2151,-0.090,0.065
2152,-0.080,0.025
2153,-0.065,0.030
2154,-0.065,0.025
2155,-0.115,-0.010
2156,-0.110,-0.065
2157,0.090,-0.150
2158,0.445,-0.275
2159,0.730,-0.375
2160,0.640,-0.325
2161,0.190,-0.110
2162,-0.145,0.105
2163,-0.225,0.175
2164,-0.125,0.120
2165,-0.025,0.110
2166,0.000,0.105
2167,0.000,0.040
2168,0.000,0.020
2169,0.015,0.015
2170,0.015,0.025
2171,0.015,0.035
2172,0.010,0.015
2173,0.015,0.025
2174,0.015,0.025
2175,0.015,0.030
2176,0.020,0.055
2177,0.030,0.015
2178,0.040,-0.005
2179,0.055,-0.010
2180,0.045,-0.005
2181,0.055,0.000
2182,0.060,-0.005
2183,0.085,-0.015
2184,0.085,-0.020
2185,0.090,-0.035
2186,0.095,-0.090
2187,0.110,-0.155
2188,0.105,-0.160
2189,0.115,-0.165
2190,0.110,-0.185
2191,0.100,-0.205
2192,0.095,-0.230
2193,0.075,-0.235
2194,0.065,-0.225
2195,0.050,-0.210
2196,0.040,-0.190
2197,0.015,-0.155
2198,0.000,-0.125
2199,-0.015,-0.075
2200,-0.035,-0.025
2201,-0.045,0.000
2202,-0.050,0.010
2203,-0.050,0.015
2204,-0.055,0.030
2205,-0.055,0.035
2206,-0.050,0.020
2207,-0.040,0.020
2208,-0.055,0.030
2209,-0.055,0.040
2210,-0.050,0.060
2211,-0.035,0.065
2212,-0.030,0.065
2213,-0.020,0.070
2214,-0.015,0.075
2215,-0.035,0.080
2216,-0.045,0.085
2217,-0.055,0.070
2218,-0.050,0.025
2219,-0.050,0.020
2220,-0.040,0.050
2221,-0.040,0.070
2222,-0.045,0.080
2223,-0.050,0.040
2224,-0.050,0.015
2225,-0.065,0.060
2226,-0.065,0.090
2227,-0.065,0.040
2228,-0.055,0.030
2229,-0.070,0.045
2230,-0.065,0.030
2231,-0.060,0.040
2232,-0.055,0.060
2233,-0.060,0.055
2234,-0.060,0.035
2235,-0.060,0.050
2236,-0.070,0.055
2237,-0.060,0.035
2238,-0.055,0.020
2239,-0.055,0.020
2240,-0.050,0.015
2241,-0.045,0.015
2242,-0.060,0.030
2243,-0.075,0.025
2244,-0.090,0.015
2245,-0.080,0.005
2246,-0.065,0.000
2247,-0.065,0.000
2248,-0.075,-0.005
2249,-0.085,0.000
2250,-0.055,0.000
2251,-0.055,0.000
2252,-0.055,0.020
2253,-0.065,0.045
2254,-0.065,0.075
2255,-0.065,0.060
2256,-0.055,0.075
2257,-0.055,0.085
2258,-0.035,0.050
2259,-0.070,0.000
2260,-0.135,-0.055
2261,0.035,-0.135
2262,0.410,-0.255
2263,0.785,-0.380
2264,0.775,-0.310
2265,0.290,-0.090
2266,-0.080,0.125
2267,-0.190,0.200
2268,-0.125,0.200
2269,-0.025,0.110
2270,0.015,0.025
2271,0.030,0.030
2272,0.045,0.070
2273,0.055,0.065
2274,0.045,0.050
2275,0.050,0.030
2276,0.065,0.025
2277,0.075,0.025
2278,0.065,0.040
2279,0.060,0.065
2280,0.065,0.040
2281,0.090,0.005
2282,0.100,0.000
2283,0.100,0.000
2284,0.110,-0.005
2285,0.130,-0.015
2286,0.135,-0.005
2287,0.125,-0.005
2288,0.135,-0.035
2289,0.145,-0.075
2290,0.150,-0.090
2291,0.155,-0.105
2292,0.180,-0.120
2293,0.195,-0.160
2294,0.180,-0.185
2295,0.170,-0.200
2296,0.155,-0.205
2297,0.170,-0.240
2298,0.140,-0.260
2299,0.120,-0.200
2300,0.075,-0.185
2301,0.060,-0.185
2302,0.035,-0.125
2303,0.025,-0.055
2304,0.000,-0.055
2305,0.000,-0.015
2306,0.000,-0.005
2307,-0.005,0.005
2308,-0.035,0.040
2309,-0.035,0.075
2310,-0.035,0.110
2311,-0.005,0.070
2312,0.000,0.070
2313,0.000,0.055
2314,0.000,0.065
2315,0.000,0.110
2316,0.000,0.080
2317,-0.005,0.040
2318,0.000,0.040
2319,0.005,0.055
2320,0.015,0.085
2321,0.005,0.085
2322,0.000,0.075
2323,0.000,0.075
2324,0.005,0.085
2325,0.000,0.075
2326,0.000,0.055
2327,0.005,0.060
2328,0.000,0.075
2329,0.000,0.080
2330,0.000,0.095
2331,0.000,0.085
2332,0.000,0.060
2333,0.000,0.050
2334,0.000,0.020
2335,0.000,0.005
2336,0.000,0.035
2337,0.000,0.070
2338,-0.005,0.050
2339,0.000,0.055
2340,0.000,0.105
2341,0.000,0.095
2342,0.000,0.060
2343,0.000,0.075
2344,0.025,0.030
2345,0.035,-0.005
2346,0.005,0.030
2347,0.005,0.035
2348,0.000,0.025
2349,0.000,0.000
2350,0.000,0.015
2351,0.000,0.000
2352,0.000,0.000
2353,-0.005,0.005
2354,0.000,0.025
2355,0.000,0.035
2356,0.000,0.090
2357,0.000,0.055
2358,0.000,0.015
2359,0.000,0.025
2360,0.000,0.025
2361,0.000,0.025
2362,-0.005,0.020
2363,-0.060,-0.010
2364,0.025,-0.075
2365,0.340,-0.165
2366,0.730,-0.235
2367,0.920,-0.210
2368,0.655,-0.075
2369,0.160,0.095
2370,-0.135,0.180
2371,-0.175,0.145
2372,-0.075,0.070
2373,0.015,0.030
2374,0.045,0.040
2375,0.060,0.065
2376,0.060,0.065
2377,0.055,0.030
2378,0.065,0.010
2379,0.080,0.045
2380,0.080,0.045
2381,0.060,0.020
2382,0.065,0.005
2383,0.060,-0.005
2384,0.075,-0.015
2385,0.085,-0.005
2386,0.100,0.000
2387,0.085,-0.005
2388,0.110,-0.010
2389,0.105,-0.005
2390,0.115,0.000
2391,0.120,-0.025
2392,0.135,-0.080
2393,0.140,-0.075
2394,0.140,-0.050
2395,0.140,-0.035
2396,0.140,-0.085
2397,0.145,-0.155
2398,0.150,-0.180
2399,0.135,-0.215
2400,0.120,-0.230
2401,0.105,-0.240
2402,0.085,-0.235
2403,0.060,-0.190
2404,0.025,-0.120
2405,0.005,-0.100
2406,-0.005,-0.075
2407,-0.025,-0.020
2408,-0.050,0.000
2409,-0.065,0.000
2410,-0.080,0.000
2411,-0.085,0.010
2412,-0.085,0.040
2413,-0.095,0.045
2414,-0.100,0.065
2415,-0.095,0.085
2416,-0.080,0.055
2417,-0.075,0.035
2418,-0.070,0.050
2419,-0.070,0.055
2420,-0.060,0.045
2421,-0.055,0.025
2422,-0.055,0.035
2423,-0.050,0.055
2424,-0.045,0.035
2425,-0.045,0.040
2426,-0.050,0.080
2427,-0.050,0.090
2428,-0.050,0.100
2429,-0.035,0.000
2430,-0.035,-0.055
2431,-0.035,0.010
2432,-0.060,0.065
2433,-0.055,0.005
2434,-0.065,0.005
2435,-0.055,0.020
2436,-0.055,0.050
2437,-0.055,0.070
2438,-0.055,0.060
2439,-0.055,0.030
2440,-0.055,0.010
2441,-0.055,0.035
2442,-0.070,0.030
2443,-0.060,0.045
2444,-0.065,0.055
2445,-0.065,0.025
2446,-0.060,0.000
2447,-0.060,0.010
2448,-0.055,0.020
2449,-0.070,0.040
2450,-0.085,0.070
2451,-0.095,0.055
2452,-0.100,0.000
2453,-0.105,-0.015
2454,-0.110,-0.005
2455,-0.115,0.000
2456,-0.115,0.000
2457,-0.125,0.000
2458,-0.130,0.000
2459,-0.110,0.000
2460,-0.095,0.010
2461,-0.085,0.040
2462,-0.110,0.055
2463,-0.115,0.060
2464,-0.105,0.090
2465,-0.080,0.075
2466,-0.075,0.030
2467,-0.075,0.020
2468,-0.120,0.000
2469,-0.160,-0.015
2470,0.005,-0.095
2471,0.390,-0.195
2472,0.800,-0.285
2473,0.880,-0.310
2474,0.400,-0.220
2475,-0.085,0.000
2476,-0.245,0.135
2477,-0.145,0.110
2478,-0.020,0.080
2479,0.000,0.075
2480,0.000,0.060
2481,0.005,0.045
2482,0.010,0.025
2483,0.000,0.035
2484,0.015,0.055
2485,0.005,0.050
2486,0.030,0.030
2487,0.045,0.015
2488,0.055,0.000
2489,0.060,0.000
2490,0.060,0.010
2491,0.060,0.025
2492,0.075,0.020
2493,0.085,0.005
2494,0.090,0.000
2495,0.110,-0.010
2496,0.125,-0.020
2497,0.135,-0.035
2498,0.140,-0.045
2499,0.140,-0.060
2500,0.150,-0.070
2501,0.160,-0.075
2502,0.155,-0.105
2503,0.155,-0.130
2504,0.155,-0.145
2505,0.150,-0.170
2506,0.140,-0.175
2507,0.120,-0.170
2508,0.095,-0.190
2509,0.065,-0.150
2510,0.045,-0.085
2511,0.005,-0.115
2512,0.000,-0.115
2513,-0.030,-0.040
2514,-0.055,-0.025
2515,-0.090,0.000
2516,-0.090,0.015
2517,-0.115,0.025
2518,-0.115,0.045
2519,-0.115,0.040
2520,-0.100,0.010
2521,-0.110,0.020
2522,-0.105,0.050
2523,-0.100,0.050
2524,-0.095,0.030
2525,-0.095,0.035
2526,-0.090,0.040
2527,-0.090,0.025
2528,-0.090,0.040
2529,-0.080,0.045
2530,-0.080,0.055
2531,-0.080,0.065
2532,-0.080,0.065
2533,-0.065,0.065
2534,-0.065,0.040
2535,-0.060,0.035
2536,-0.055,0.040
2537,-0.045,0.045
2538,-0.035,0.030
2539,-0.025,0.015
2540,-0.030,0.020
2541,-0.040,0.030
2542,-0.040,0.035
2543,-0.050,0.025
2544,-0.040,0.030
2545,-0.030,0.050
2546,-0.030,0.045
2547,-0.030,0.025
2548,-0.020,0.005
2549,-0.025,0.005
2550,-0.025,0.005
2551,-0.025,0.025
2552,-0.015,0.025
2553,-0.030,0.035
2554,-0.025,0.065
2555,0.000,0.085
2556,-0.010,0.040
2557,-0.010,-0.010
2558,-0.015,-0.015
2559,-0.035,0.000
2560,-0.055,0.000
2561,-0.050,-0.010
2562,-0.050,-0.025
2563,-0.045,-0.020
2564,-0.065,0.000
2565,-0.060,0.030
2566,-0.065,0.065
2567,-0.040,0.040
2568,-0.050,0.035
2569,-0.045,0.005
2570,-0.050,0.000
2571,-0.060,0.025
2572,-0.065,0.035
2573,-0.050,0.025
2574,-0.080,0.015
2575,-0.145,-0.010
2576,-0.035,-0.055
2577,0.285,-0.130
2578,0.680,-0.255
2579,0.810,-0.310
2580,0.480,-0.195
2581,0.010,0.015
2582,-0.225,0.160
2583,-0.215,0.155
2584,-0.105,0.105
2585,-0.025,0.075
2586,-0.005,0.070
2587,0.000,0.065
2588,0.000,0.035
2589,0.000,0.030
2590,0.000,0.030
2591,0.010,0.030
2592,0.010,0.040
2593,0.020,0.045
2594,0.025,0.025
2595,0.045,0.025
2596,0.040,0.030
2597,0.065,0.025
2598,0.060,0.035
2599,0.065,0.005
2600,0.060,0.000
2601,0.075,0.000
2602,0.080,0.000
2603,0.095,-0.005
2604,0.115,-0.065
2605,0.120,-0.070
2606,0.125,-0.080
2607,0.130,-0.080
2608,0.130,-0.095
2609,0.125,-0.155
2610,0.130,-0.185
2611,0.120,-0.200
2612,0.100,-0.185
2613,0.075,-0.195
2614,0.070,-0.220
2615,0.055,-0.220
2616,0.025,-0.190
2617,0.005,-0.150
2618,-0.005,-0.075
2619,-0.040,-0.015
2620,-0.060,-0.020
2621,-0.080,-0.030
2622,-0.085,-0.015
2623,-0.090,0.000
2624,-0.100,0.005
2625,-0.105,0.005
2626,-0.115,0.005
2627,-0.110,0.025
2628,-0.105,0.040
2629,-0.095,0.050
2630,-0.085,0.050
2631,-0.070,0.040
2632,-0.060,0.030
2633,-0.060,0.040
2634,-0.060,0.075
2635,-0.080,0.080
2636,-0.080,0.070
2637,-0.075,0.005
2638,-0.055,-0.015
2639,-0.055,0.000
2640,-0.060,0.005
2641,-0.085,0.035
2642,-0.065,0.050
2643,-0.075,0.055
2644,-0.065,0.075
2645,-0.075,0.050
2646,-0.060,0.040
2647,-0.090,0.060
2648,-0.080,0.055
2649,-0.100,0.025
2650,-0.090,0.025
2651,-0.105,0.025
2652,-0.095,0.035
2653,-0.105,0.040
2654,-0.115,0.045
2655,-0.120,0.050
2656,-0.115,0.070
2657,-0.120,0.075
2658,-0.120,0.035
2659,-0.105,0.005
2660,-0.105,0.000
2661,-0.100,0.000
2662,-0.095,0.000
2663,-0.095,0.005
2664,-0.120,0.025
2665,-0.140,0.040
2666,-0.140,0.025
2667,-0.130,-0.005
2668,-0.120,-0.030
2669,-0.130,-0.035
2670,-0.125,-0.020
2671,-0.110,0.000
2672,-0.100,0.010
2673,-0.105,0.025
2674,-0.100,0.040
2675,-0.105,0.055
2676,-0.095,0.045
2677,-0.090,0.025
2678,-0.075,0.015
2679,-0.075,0.020
2680,-0.115,0.000
2681,-0.150,-0.055
2682,0.050,-0.140
2683,0.430,-0.305
2684,0.775,-0.400
2685,0.700,-0.325
2686,0.195,-0.080
2687,-0.160,0.145
2688,-0.240,0.205
2689,-0.130,0.145
2690,-0.025,0.055
2691,0.000,0.055
2692,0.000,0.035
2693,0.000,0.025
2694,0.000,0.025
2695,0.000,0.025
2696,0.000,0.025
2697,0.010,0.025
2698,0.010,0.045
2699,0.015,0.050
2700,0.005,0.050
2701,0.015,0.060
2702,0.025,0.040
2703,0.045,0.010
2704,0.055,-0.015
2705,0.060,-0.020
2706,0.060,-0.005
2707,0.060,-0.005
2708,0.070,-0.020
2709,0.080,-0.045
2710,0.090,-0.050
2711,0.095,-0.050
2712,0.095,-0.075
2713,0.110,-0.120
2714,0.115,-0.175
2715,0.115,-0.210
2716,0.105,-0.235
2717,0.100,-0.230
2718,0.075,-0.230
2719,0.060,-0.225
2720,0.050,-0.225
2721,0.040,-0.215
2722,0.000,-0.180
2723,0.000,-0.140
2724,-0.020,-0.085
2725,-0.030,-0.055
2726,-0.055,-0.030
2727,-0.055,-0.010
2728,-0.065,-0.005
2729,-0.065,0.020
2730,-0.065,0.030
2731,-0.065,0.060
2732,-0.065,0.030
2733,-0.060,0.030
2734,-0.055,0.030
2735,-0.045,0.050
2736,-0.040,0.055
2737,-0.050,0.050
2738,-0.035,0.050
2739,-0.035,0.050
2740,-0.035,0.050
2741,-0.045,0.070
2742,-0.035,0.050
2743,-0.035,0.025
2744,-0.030,0.025
2745,-0.045,0.045
2746,-0.055,0.050
2747,-0.055,0.050
2748,-0.050,0.055
2749,-0.050,0.065
2750,-0.055,0.075
2751,-0.055,0.045
2752,-0.050,0.015
2753,-0.045,0.020
2754,-0.055,0.035
2755,-0.060,0.045
2756,-0.070,0.070
2757,-0.070,0.095
2758,-0.060,0.065
2759,-0.055,0.035
2760,-0.060,0.055
2761,-0.060,0.075
2762,-0.055,0.050
2763,-0.045,0.010
2764,-0.045,0.010
2765,-0.050,0.025
2766,-0.035,0.020
2767,-0.035,0.015
2768,-0.045,0.025
2769,-0.050,0.050
2770,-0.045,0.010
2771,-0.055,-0.020
2772,-0.055,0.000
2773,-0.055,0.000
2774,-0.055,0.000
2775,-0.065,0.000
2776,-0.025,-0.015
2777,-0.025,-0.010
2778,-0.040,0.050
2779,-0.050,0.075
2780,-0.035,0.050
2781,-0.030,0.030
2782,-0.015,0.025
2783,-0.005,0.055
2784,0.000,0.035
2785,-0.040,0.015
2786,-0.105,-0.030
2787,0.035,-0.125
2788,0.355,-0.240
2789,0.715,-0.350
2790,0.790,-0.320
2791,0.440,-0.145
2792,0.015,0.080
2793,-0.165,0.200
2794,-0.135,0.190
2795,-0.045,0.135
2796,0.010,0.075
2797,0.030,0.045
2798,0.040,0.045
2799,0.045,0.055
2800,0.050,0.060
2801,0.050,0.060
2802,0.065,0.050
2803,0.060,0.055
2804,0.060,0.040
2805,0.065,0.035
2806,0.085,0.040
2807,0.080,0.025
2808,0.095,0.035
2809,0.100,0.000
2810,0.130,-0.015
2811,0.130,-0.030
2812,0.130,-0.025
2813,0.140,-0.010
2814,0.140,-0.025
2815,0.175,-0.055
2816,0.185,-0.090
2817,0.195,-0.080
2818,0.185,-0.120
2819,0.185,-0.170
2820,0.190,-0.160
2821,0.195,-0.165
2822,0.165,-0.210
2823,0.160,-0.230
2824,0.140,-0.255
2825,0.135,-0.265
2826,0.100,-0.230
2827,0.095,-0.205
2828,0.065,-0.150
2829,0.030,-0.085
2830,0.005,-0.050
2831,0.000,-0.020
2832,-0.010,0.015
2833,-0.010,0.040
2834,0.000,0.050
2835,0.000,0.035
2836,-0.005,0.040
2837,-0.015,0.065
2838,-0.010,0.065
2839,-0.005,0.055
2840,0.000,0.065
2841,0.000,0.065
2842,0.000,0.070
2843,0.000,0.065
2844,0.000,0.055
2845,0.000,0.075
2846,0.000,0.065
2847,0.000,0.050
2848,0.000,0.050
2849,0.010,0.060
2850,0.000,0.055
2851,0.000,0.050
2852,0.000,0.050
2853,0.000,0.065
2854,0.000,0.065
2855,0.005,0.065
2856,0.000,0.080
2857,0.000,0.100
2858,0.000,0.125
2859,0.000,0.155
2860,0.000,0.110
2861,0.000,0.020
2862,0.000,0.000
2863,0.000,0.020
2864,0.005,0.015
2865,0.000,0.030
2866,0.000,0.065
2867,0.000,0.065
2868,0.000,0.055
2869,0.000,0.080
2870,0.020,0.080
2871,0.020,0.065
2872,0.020,0.040
2873,0.020,0.020
2874,0.020,0.020
2875,0.005,0.005
2876,0.000,-0.005
2877,0.000,-0.005
2878,0.000,-0.005
2879,0.000,-0.005
2880,0.000,0.020
2881,0.000,0.025
2882,0.000,0.005
2883,0.005,0.020
2884,0.000,0.050
2885,0.005,0.040
2886,0.005,0.025
2887,0.005,0.050
2888,0.000,0.070
2889,0.000,0.035
2890,-0.020,-0.010
2891,-0.020,-0.080
2892,0.190,-0.145
2893,0.575,-0.235
2894,0.905,-0.285
2895,0.900,-0.205
2896,0.420,0.015
2897,-0.040,0.215
2898,-0.195,0.210
2899,-0.140,0.145
2900,-0.010,0.090
2901,0.025,0.025
2902,0.050,0.005
2903,0.045,0.020
2904,0.055,0.040
2905,0.050,0.045
2906,0.055,0.050
2907,0.060,0.075
2908,0.060,0.030
2909,0.060,0.020
2910,0.070,0.020
2911,0.065,0.015
2912,0.065,0.000
2913,0.070,0.010
2914,0.080,0.000
2915,0.085,-0.015
2916,0.085,-0.005
2917,0.090,0.000
2918,0.105,0.005
2919,0.120,-0.025
2920,0.125,-0.090
2921,0.130,-0.120
2922,0.140,-0.115
2923,0.140,-0.105
2924,0.135,-0.105
2925,0.130,-0.145
2926,0.140,-0.195
2927,0.130,-0.200
2928,0.100,-0.175
2929,0.080,-0.170
2930,0.075,-0.185
2931,0.060,-0.205
2932,0.040,-0.185
2933,0.010,-0.140
2934,-0.005,-0.075
2935,-0.030,-0.040
2936,-0.055,0.000
2937,-0.070,0.000
2938,-0.080,0.020
2939,-0.090,0.050
2940,-0.085,0.035
2941,-0.080,0.015
2942,-0.090,0.050
2943,-0.090,0.055
2944,-0.080,0.075
2945,-0.060,0.040
2946,-0.065,0.035
2947,-0.060,0.060
2948,-0.065,0.040
2949,-0.055,0.000
2950,-0.075,0.020
2951,-0.050,0.050
2952,-0.050,0.040
2953,-0.055,0.025
2954,-0.060,0.035
2955,-0.050,0.030
2956,-0.070,0.055
2957,-0.055,0.065
2958,-0.045,0.045
2959,-0.050,0.035
2960,-0.060,0.015
2961,-0.060,0.010
2962,-0.055,0.020
2963,-0.055,0.030
2964,-0.060,0.040
2965,-0.075,0.045
2966,-0.080,0.050
2967,-0.090,0.055
2968,-0.080,0.060
2969,-0.080,0.060
2970,-0.085,0.065
2971,-0.080,0.040
2972,-0.070,0.025
2973,-0.065,0.030
2974,-0.070,0.040
2975,-0.065,0.040
2976,-0.075,0.040
2977,-0.070,0.040
2978,-0.090,0.020
2979,-0.095,0.010
2980,-0.120,0.015
2981,-0.120,0.005
2982,-0.125,0.010
2983,-0.110,0.010
2984,-0.130,0.005
2985,-0.125,0.020
2986,-0.100,0.000
2987,-0.095,0.000
2988,-0.095,0.010
2989,-0.110,0.045
2990,-0.125,0.070
2991,-0.115,0.040
2992,-0.100,0.045
2993,-0.095,0.050
2994,-0.090,0.040
2995,-0.120,0.015
2996,-0.165,-0.005
2997,0.000,-0.055
2998,0.345,-0.220
2999,0.710,-0.335
3000,0.740,-0.350
3001,0.335,-0.230
3002,-0.070,0.005
3003,-0.235,0.135
3004,-0.185,0.135
3005,-0.090,0.095
3006,-0.030,0.070
3007,-0.010,0.060
3008,-0.005,0.050
3009,0.000,0.045
3010,-0.005,0.035
3011,0.000,0.030
3012,0.000,0.040
3013,0.000,0.040
3014,0.000,0.035
3015,0.010,0.025
3016,0.020,0.015
3017,0.025,0.015
3018,0.035,0.000
3019,0.035,0.000
3020,0.045,0.000
3021,0.050,0.000
3022,0.065,-0.015
3023,0.075,-0.055
3024,0.095,-0.060
3025,0.105,-0.055
3026,0.110,-0.050
3027,0.110,-0.090
3028,0.125,-0.115
3029,0.125,-0.115
3030,0.135,-0.140
3031,0.120,-0.155
3032,0.110,-0.185
3033,0.080,-0.195
3034,0.090,-0.205
3035,0.055,-0.210
3036,0.040,-0.210
3037,0.010,-0.185
3038,0.000,-0.145
3039,-0.020,-0.095
3040,-0.045,-0.050
3041,-0.070,-0.015
3042,-0.090,0.000
3043,-0.105,0.000
3044,-0.105,0.005
3045,-0.105,0.040
3046,-0.105,0.055
3047,-0.100,0.050
3048,-0.095,0.065
3049,-0.075,0.060
3050,-0.060,0.020
3051,-0.060,0.010
3052,-0.060,0.035
3053,-0.060,0.065
3054,-0.060,0.080
3055,-0.060,0.065
3056,-0.060,0.035
3057,-0.060,0.030
3058,-0.055,0.035
3059,-0.065,0.050
3060,-0.055,0.050
3061,-0.055,0.065
3062,-0.055,0.020
3063,-0.065,0.010
3064,-0.060,0.040
3065,-0.065,0.050
3066,-0.060,0.025
3067,-0.060,0.025
3068,-0.060,0.040
3069,-0.075,0.025
3070,-0.065,0.025
3071,-0.065,0.045
3072,-0.065,0.045
3073,-0.055,0.030
3074,-0.055,0.030
3075,-0.045,0.060
3076,-0.050,0.030
3077,-0.055,0.005
3078,-0.060,0.020
3079,-0.055,0.020
3080,-0.055,0.040
3081,-0.040,0.050
3082,-0.050,0.020
3083,-0.045,0.000
3084,-0.060,0.000
3085,-0.075,-0.005
3086,-0.080,-0.020
3087,-0.070,-0.015
3088,-0.080,-0.005
3089,-0.095,0.000
3090,-0.095,0.000
3091,-0.070,0.000
3092,-0.055,0.010
3093,-0.060,0.020
3094,-0.060,0.035
3095,-0.060,0.050
3096,-0.060,0.040
3097,-0.060,0.040
3098,-0.055,0.045
3099,-0.055,0.025
3100,-0.080,0.015
3101,-0.095,-0.035
3102,0.090,-0.155
3103,0.460,-0.310
3104,0.775,-0.390
3105,0.715,-0.295
3106,0.230,-0.085
3107,-0.115,0.120
3108,-0.205,0.185
3109,-0.115,0.110
3110,-0.025,0.105
3111,0.000,0.100
3112,0.010,0.065
3113,0.030,0.025
3114,0.005,0.030
3115,0.015,0.050
3116,0.010,0.075
3117,0.035,0.070
3118,0.040,0.015
3119,0.050,0.035
3120,0.070,0.030
3121,0.055,0.025
3122,0.055,0.005
3123,0.080,0.000
3124,0.105,0.000
3125,0.090,0.000
3126,0.105,-0.010
3127,0.105,-0.025
3128,0.110,-0.030
3129,0.115,-0.045
3130,0.140,-0.055
3131,0.175,-0.070
3132,0.190,-0.110
3133,0.165,-0.120
3134,0.150,-0.140
3135,0.165,-0.190
3136,0.175,-0.225
3137,0.155,-0.230
3138,0.135,-0.235
3139,0.105,-0.240
3140,0.075,-0.230
3141,0.065,-0.210
3142,0.040,-0.155
3143,0.030,-0.105
3144,0.020,-0.095
3145,0.005,-0.030
3146,-0.010,-0.010
3147,-0.005,0.000
3148,-0.025,0.005
3149,-0.040,0.050
3150,-0.030,0.095
3151,-0.045,0.070
3152,-0.045,0.095
3153,-0.040,0.060
3154,0.000,0.040
3155,-0.030,0.030
3156,-0.025,0.065
3157,-0.035,0.140
3158,-0.035,0.125
3159,-0.025,0.080
3160,-0.005,0.040
3161,-0.015,0.085
3162,0.000,0.140
3163,0.000,0.095
3164,0.000,0.045
3165,0.000,0.045
3166,0.000,0.010
3167,0.000,0.040
3168,0.000,0.065
3169,-0.010,0.070
3170,0.000,0.060
3171,0.000,0.050
3172,0.000,0.050
3173,0.000,0.035
3174,0.000,0.050
3175,0.000,0.070
3176,0.000,0.055
3177,0.000,0.035
3178,0.000,0.020
3179,0.000,0.025
3180,0.000,0.045
3181,0.000,0.050
3182,0.000,0.050
3183,0.000,0.030
3184,0.005,0.005
3185,0.000,0.005
3186,0.000,0.005
3187,0.000,0.000
3188,0.000,0.000
3189,-0.010,0.000
3190,-0.020,-0.005
3191,-0.035,-0.030
3192,-0.020,0.000
3193,-0.015,0.000
3194,-0.010,0.015
3195,-0.045,0.060
3196,-0.055,0.045
3197,-0.055,0.050
3198,-0.055,0.050
3199,-0.055,0.050
3200,-0.055,0.050
3201,-0.065,0.030
3202,-0.155,-0.005
3203,-0.075,-0.100
3204,0.255,-0.210
3205,0.650,-0.290
3206,0.850,-0.285
3207,0.520,-0.105
3208,0.035,0.105
3209,-0.235,0.190
3210,-0.265,0.155
3211,-0.180,0.110
3212,-0.090,0.070
3213,-0.050,0.070
3214,-0.050,0.060
3215,-0.045,0.050
3216,-0.035,0.040
3217,-0.020,0.010
3218,-0.030,0.000
3219,-0.025,0.015
3220,-0.020,0.035
3221,-0.015,0.035
3222,-0.010,0.035
3223,-0.005,0.025
3224,0.000,0.005
3225,0.000,0.000
3226,0.010,0.005
3227,0.025,-0.005
3228,0.040,-0.045
3229,0.060,-0.080
3230,0.060,-0.080
3231,0.070,-0.095
3232,0.085,-0.090
3233,0.100,-0.080
3234,0.115,-0.110
3235,0.130,-0.120
3236,0.120,-0.150
3237,0.135,-0.190
3238,0.125,-0.245
3239,0.120,-0.245
3240,0.080,-0.245
3241,0.075,-0.265
3242,0.040,-0.230
3243,0.035,-0.170
3244,0.000,-0.145
3245,-0.010,-0.095
3246,-0.045,-0.035
3247,-0.055,-0.030
3248,-0.090,0.000
3249,-0.105,0.000
3250,-0.120,0.015
3251,-0.125,0.025
3252,-0.135,0.055
3253,-0.140,0.055
3254,-0.140,0.055
3255,-0.140,0.065
3256,-0.140,0.075
3257,-0.140,0.075
3258,-0.135,0.060
3259,-0.135,0.055
3260,-0.125,0.040
3261,-0.120,0.030
3262,-0.120,0.040
3263,-0.130,0.055
3264,-0.130,0.055
3265,-0.120,0.045
3266,-0.120,0.045
3267,-0.125,0.050
3268,-0.135,0.050
3269,-0.130,0.050
3270,-0.130,0.055
3271,-0.125,0.060
3272,-0.130,0.055
3273,-0.125,0.050
3274,-0.130,0.025
3275,-0.120,0.025
3276,-0.110,0.035
3277,-0.095,0.015
3278,-0.105,0.030
3279,-0.120,0.060
3280,-0.125,0.080
3281,-0.120,0.035
3282,-0.095,0.035
3283,-0.095,0.015
3284,-0.100,0.025
3285,-0.105,0.025
3286,-0.080,0.030
3287,-0.080,0.050
3288,-0.055,0.025
3289,-0.055,0.000
3290,-0.050,0.010
3291,-0.075,0.005
3292,-0.080,0.010
3293,-0.095,0.015
3294,-0.095,0.000
3295,-0.100,0.000
3296,-0.085,-0.030
3297,-0.095,-0.035
3298,-0.105,-0.010
3299,-0.095,0.010
3300,-0.075,0.035
3301,-0.080,0.035
3302,-0.090,0.040
3303,-0.095,0.035
3304,-0.105,0.045
3305,-0.105,0.045
3306,-0.095,0.045
3307,-0.095,0.050
3308,-0.115,0.045
3309,-0.160,0.005
3310,-0.080,-0.070
3311,0.230,-0.190
3312,0.600,-0.320
3313,0.745,-0.390
3314,0.450,-0.285
3315,-0.005,-0.035
3316,-0.230,0.165
3317,-0.220,0.165
3318,-0.100,0.100
3319,-0.040,0.080
3320,-0.020,0.080
3321,-0.025,0.085
3322,-0.010,0.075
3323,-0.005,0.040
3324,0.000,0.035
3325,0.000,0.050
3326,0.000,0.070
3327,0.000,0.060
3328,0.005,0.030
3329,0.015,0.045
3330,0.025,0.005
3331,0.035,0.000
3332,0.030,0.020
3333,0.050,0.000
3334,0.055,0.000
3335,0.070,-0.005
3336,0.070,-0.005
3337,0.090,-0.010
3338,0.100,-0.015
3339,0.115,-0.060
3340,0.115,-0.115
3341,0.125,-0.135
3342,0.125,-0.135
3343,0.130,-0.135
3344,0.115,-0.135
3345,0.115,-0.180
3346,0.100,-0.215
3347,0.085,-0.230
3348,0.075,-0.235
3349,0.060,-0.225
3350,0.030,-0.185
3351,0.005,-0.125
3352,-0.010,-0.090
3353,-0.040,-0.070
3354,-0.060,-0.035
3355,-0.085,-0.025
3356,-0.095,0.015
3357,-0.090,0.030
3358,-0.080,0.015
3359,-0.090,0.030
3360,-0.095,0.030
3361,-0.080,0.045
3362,-0.080,0.055
3363,-0.060,0.070
3364,-0.070,0.050
3365,-0.080,0.060
3366,-0.095,0.090
3367,-0.080,0.075
3368,-0.080,0.085
3369,-0.080,0.050
3370,-0.075,0.045
3371,-0.070,0.045
3372,-0.085,0.065
3373,-0.065,0.080
3374,-0.065,0.050
3375,-0.065,0.035
3376,-0.075,0.045
3377,-0.065,0.055
3378,-0.065,0.055
3379,-0.065,0.075
3380,-0.070,0.080
3381,-0.070,0.055
3382,-0.075,0.060
3383,-0.085,0.040
3384,-0.065,0.025
3385,-0.070,0.040
3386,-0.080,0.065
3387,-0.080,0.080
3388,-0.065,0.065
3389,-0.070,0.060
3390,-0.060,0.045
3391,-0.045,0.025
3392,-0.055,0.035
3393,-0.070,0.050
3394,-0.065,0.050
3395,-0.050,0.035
3396,-0.065,0.035
3397,-0.090,0.035
3398,-0.095,0.005
3399,-0.080,0.005
3400,-0.085,0.015
3401,-0.095,0.005
3402,-0.085,0.000
3403,-0.080,-0.005
3404,-0.070,0.000
3405,-0.055,0.020
3406,-0.080,0.060
3407,-0.080,0.055
3408,-0.055,0.040
3409,-0.060,0.045
3410,-0.055,0.045
3411,-0.050,0.060
3412,-0.050,0.060
3413,-0.110,0.025
3414,-0.155,-0.015
3415,0.070,-0.140
3416,0.470,-0.290
3417,0.825,-0.400
3418,0.755,-0.285
3419,0.265,-0.050
3420,-0.085,0.170
3421,-0.205,0.190
3422,-0.125,0.120
3423,-0.025,0.085
3424,0.000,0.080
3425,0.000,0.065
3426,0.020,0.080
3427,0.035,0.075
3428,0.045,0.060
3429,0.050,0.040
3430,0.055,0.025
3431,0.055,0.030
3432,0.055,0.040
3433,0.060,0.030
3434,0.060,0.030
3435,0.060,0.030
3436,0.060,0.020
3437,0.080,0.015
3438,0.090,0.000
3439,0.095,-0.020
3440,0.120,-0.025
3441,0.125,-0.020
3442,0.135,-0.020
3443,0.140,-0.030
3444,0.140,-0.065
3445,0.145,-0.100
3446,0.155,-0.105
3447,0.150,-0.130
3448,0.165,-0.150
3449,0.140,-0.165
3450,0.135,-0.195
3451,0.135,-0.220
3452,0.135,-0.220
3453,0.090,-0.190
3454,0.070,-0.210
3455,0.030,-0.205
3456,0.020,-0.135
3457,0.005,-0.075
3458,-0.005,-0.010
3459,-0.035,0.000
3460,-0.040,0.005
3461,-0.045,0.025
3462,-0.050,0.060
3463,-0.040,0.105
3464,-0.040,0.060
3465,-0.045,0.020
3466,-0.050,0.015
3467,-0.025,0.040
3468,-0.020,0.075
3469,-0.030,0.105
3470,-0.035,0.090
3471,-0.015,0.075
3472,-0.010,0.080
3473,-0.025,0.070
3474,-0.035,0.075
3475,-0.015,0.080
3476,-0.015,0.060
3477,-0.020,0.050
3478,-0.015,0.055
3479,-0.005,0.070
3480,0.000,0.075
3481,-0.005,0.075
3482,0.000,0.070
3483,0.000,0.065
3484,0.000,0.060
3485,-0.005,0.055
3486,-0.005,0.060
3487,-0.005,0.050
3488,-0.005,0.050
3489,0.000,0.065
3490,0.000,0.075
3491,0.000,0.035
3492,0.000,0.030
3493,0.000,0.045
3494,-0.005,0.050
3495,-0.005,0.075
3496,-0.010,0.070
3497,0.000,0.035
3498,0.000,0.030
3499,0.000,0.025
3500,-0.020,0.025
3501,-0.015,0.000
3502,-0.040,0.005
3503,-0.025,0.005
3504,-0.030,0.000
3505,-0.050,0.015
3506,-0.050,0.000
3507,-0.025,0.000
3508,-0.025,0.050
3509,-0.030,0.055
3510,-0.020,0.030
3511,-0.015,0.045
3512,-0.020,0.055
3513,-0.025,0.055
3514,-0.005,0.035
3515,-0.015,0.040
3516,-0.070,0.030
3517,-0.085,-0.030
3518,0.115,-0.135
3519,0.495,-0.230
3520,0.825,-0.290
3521,0.780,-0.235
3522,0.340,-0.055
3523,-0.060,0.130
3524,-0.215,0.210
3525,-0.180,0.175
3526,-0.085,0.120
3527,-0.005,0.070
3528,0.000,0.055
3529,0.000,0.050
3530,0.000,0.050
3531,0.000,0.050
3532,0.000,0.050
3533,0.000,0.060
3534,0.000,0.040
3535,0.010,0.020
3536,0.015,0.000
3537,0.005,0.010
3538,0.000,0.040
3539,0.015,0.035
3540,0.035,0.000
3541,0.035,0.000
3542,0.055,-0.025
3543,0.055,-0.020
3544,0.055,-0.020
3545,0.065,-0.025
3546,0.095,-0.070
3547,0.090,-0.090
3548,0.115,-0.105
3549,0.105,-0.120
3550,0.115,-0.120
3551,0.115,-0.165
3552,0.110,-0.210
3553,0.080,-0.225
3554,0.065,-0.220
3555,0.050,-0.220
3556,0.040,-0.225
3557,0.020,-0.190
3558,0.005,-0.165
3559,-0.005,-0.125
3560,-0.030,-0.055
3561,-0.045,-0.050
3562,-0.055,-0.045
3563,-0.070,0.000
3564,-0.095,0.015
3565,-0.110,0.010
3566,-0.105,0.020
3567,-0.105,0.030
3568,-0.100,0.055
3569,-0.090,0.075
3570,-0.080,0.075
3571,-0.085,0.060
3572,-0.065,0.025
3573,-0.070,0.025
3574,-0.060,0.035
3575,-0.080,0.045
3576,-0.080,0.035
3577,-0.075,0.025
3578,-0.060,0.025
3579,-0.080,0.040
3580,-0.080,0.065
3581,-0.085,0.050
3582,-0.080,0.085
3583,-0.080,0.055
3584,-0.080,0.035
3585,-0.080,0.030
3586,-0.080,0.060
3587,-0.085,0.055
3588,-0.090,0.030
3589,-0.095,0.040
3590,-0.100,0.045
3591,-0.080,0.050
3592,-0.105,0.060
3593,-0.110,0.035
3594,-0.115,0.050
3595,-0.105,0.070
3596,-0.110,0.060
3597,-0.105,0.025
3598,-0.100,0.025
3599,-0.085,0.050
3600,-0.090,0.040
3601,-0.085,0.010
3602,-0.085,0.015
3603,-0.070,0.025
3604,-0.075,0.030
3605,-0.090,0.030
3606,-0.100,0.010
3607,-0.115,0.000
3608,-0.105,0.000
3609,-0.090,-0.005
3610,-0.090,-0.005
3611,-0.105,0.000
3612,-0.090,0.000
3613,-0.080,0.000
3614,-0.075,0.005
3615,-0.065,0.025
3616,-0.075,0.040
3617,-0.070,0.035
3618,-0.085,0.060
3619,-0.080,0.070
3620,-0.075,0.035
3621,-0.065,0.035
3622,-0.135,0.005
3623,-0.105,-0.065
3624,0.180,-0.195
3625,0.570,-0.315
3626,0.850,-0.425
3627,0.570,-0.330
3628,0.055,-0.085
3629,-0.195,0.135
3630,-0.210,0.150
3631,-0.075,0.125
3632,-0.005,0.060
3633,0.000,0.060
3634,0.000,0.065
3635,0.000,0.040
3636,0.000,0.040
3637,0.000,0.030
3638,0.000,0.040
3639,0.000,0.050
3640,0.000,0.030
3641,0.000,0.020
3642,0.010,0.015
3643,0.025,0.010
3644,0.035,0.015
3645,0.040,0.005
3646,0.050,0.000
3647,0.050,-0.005
3648,0.065,-0.020
3649,0.075,-0.030
3650,0.080,-0.030
3651,0.095,-0.045
3652,0.105,-0.065
3653,0.125,-0.085
3654,0.125,-0.095
3655,0.125,-0.100
3656,0.120,-0.125
3657,0.130,-0.175
3658,0.125,-0.205
3659,0.130,-0.220
3660,0.100,-0.230
3661,0.090,-0.235
3662,0.065,-0.260
3663,0.045,-0.215
3664,0.020,-0.175
3665,0.010,-0.150
3666,-0.020,-0.100
3667,-0.050,-0.040
3668,-0.050,0.000
3669,-0.060,0.000
3670,-0.060,0.010
3671,-0.075,0.025
3672,-0.055,0.055
3673,-0.055,0.040
3674,-0.040,0.000
3675,-0.050,0.000
3676,-0.055,0.025
3677,-0.055,0.045
3678,-0.035,0.040
3679,-0.050,0.045
3680,-0.040,0.050
3681,-0.050,0.050
3682,-0.035,0.055
3683,-0.040,0.045
3684,-0.035,0.035
3685,-0.040,0.050
3686,-0.050,0.065
3687,-0.050,0.060
3688,-0.040,0.045
3689,-0.035,0.045
3690,-0.040,0.055
3691,-0.045,0.045
3692,-0.045,0.025
3693,-0.040,0.015
3694,-0.045,0.030
3695,-0.055,0.075
3696,-0.055,0.085
3697,-0.045,0.050
3698,-0.030,0.020
3699,-0.040,0.010
3700,-0.045,0.015
3701,-0.045,0.040
3702,-0.035,0.045
3703,-0.045,0.025
3704,-0.020,0.030
3705,-0.025,0.045
3706,-0.020,0.040
3707,-0.025,0.035
3708,-0.020,0.020
3709,-0.045,0.020
3710,-0.045,0.020
3711,-0.055,0.010
3712,-0.055,0.030
3713,-0.055,0.025
3714,-0.055,0.000
3715,-0.045,-0.035
3716,-0.025,-0.030
3717,-0.025,0.005
3718,-0.040,0.045
3719,-0.015,0.030
3720,-0.030,0.030
3721,-0.045,0.060
3722,-0.040,0.070
3723,-0.010,0.040
3724,-0.005,0.020
3725,-0.040,0.005
3726,-0.070,-0.040
3727,0.125,-0.170
3728,0.465,-0.295
3729,0.795,-0.365
3730,0.745,-0.285
3731,0.335,-0.080
3732,-0.030,0.135
3733,-0.140,0.220
3734,-0.095,0.155
3735,-0.010,0.075
3736,0.040,0.055
3737,0.040,0.075
3738,0.040,0.075
3739,0.050,0.040
3740,0.070,0.030
3741,0.065,0.050
3742,0.060,0.060
3743,0.060,0.050
3744,0.070,0.040
3745,0.090,0.015
3746,0.090,0.000
3747,0.095,0.000
3748,0.115,0.000
3749,0.135,0.000
3750,0.120,0.010
3751,0.120,0.020
3752,0.125,0.000
3753,0.160,-0.075
3754,0.160,-0.075
3755,0.180,-0.060
3756,0.205,-0.085
3757,0.195,-0.120
3758,0.155,-0.130
3759,0.185,-0.145
3760,0.190,-0.170
3761,0.195,-0.190
3762,0.195,-0.185
3763,0.190,-0.210
3764,0.135,-0.220
3765,0.125,-0.225
3766,0.115,-0.225
3767,0.080,-0.195
3768,0.035,-0.140
3769,0.015,-0.080
3770,0.000,-0.025
3771,-0.005,0.000
3772,-0.015,0.015
3773,-0.035,0.030
3774,-0.030,0.045
3775,-0.020,0.055
3776,-0.020,0.075
3777,-0.020,0.095
3778,-0.025,0.105
3779,-0.010,0.095
3780,-0.010,0.050
3781,-0.015,0.020
3782,-0.010,0.020
3783,-0.005,0.030
3784,0.000,0.040
3785,0.000,0.065
3786,0.000,0.075
3787,0.000,0.070
3788,0.000,0.075
3789,0.000,0.105
3790,0.000,0.045
3791,0.000,0.040
3792,-0.005,0.110
3793,0.000,0.090
3794,0.000,0.035
3795,0.005,0.035
3796,0.020,0.030
3797,0.020,0.040
3798,0.020,0.040
3799,0.020,0.025
3800,0.025,0.015
3801,0.000,0.025
3802,0.005,0.045
3803,0.000,0.040
3804,0.005,0.055
3805,0.000,0.065
3806,0.010,0.035
3807,0.020,0.030
3808,0.020,0.030
3809,0.005,0.035
3810,0.010,0.035
3811,0.000,0.010
3812,0.000,-0.015
3813,-0.005,-0.020
3814,0.000,-0.020
3815,-0.010,-0.010
3816,-0.005,0.000
3817,0.000,0.005
3818,-0.005,0.025
3819,-0.005,0.045
3820,-0.005,0.050
3821,-0.015,0.050
3822,-0.015,0.040
3823,-0.010,0.030
3824,-0.005,0.040
3825,-0.020,0.045
3826,-0.060,0.015
3827,-0.070,-0.060
3828,0.140,-0.145
3829,0.510,-0.230
3830,0.840,-0.285
3831,0.830,-0.235
3832,0.350,-0.040
3833,-0.085,0.145
3834,-0.235,0.220
3835,-0.190,0.155
3836,-0.070,0.085
3837,-0.010,0.070
3838,0.000,0.050
3839,0.000,0.035
3840,0.000,0.030
3841,0.000,0.030
3842,0.000,0.015
3843,0.000,0.015
3844,0.010,0.020
3845,0.015,0.025
3846,0.000,0.025
3847,0.000,0.025
3848,0.010,0.025
3849,0.015,0.040
3850,0.015,0.020
3851,0.030,0.000
3852,0.045,-0.020
3853,0.055,-0.020
3854,0.050,-0.040
3855,0.065,-0.080
3856,0.075,-0.075
3857,0.075,-0.085
3858,0.080,-0.105
3859,0.090,-0.125
3860,0.090,-0.140
3861,0.085,-0.155
3862,0.080,-0.180
3863,0.075,-0.210
3864,0.075,-0.225
3865,0.060,-0.230
3866,0.035,-0.215
3867,0.005,-0.180
3868,0.000,-0.145
3869,-0.015,-0.100
3870,-0.040,-0.060
3871,-0.060,-0.045
3872,-0.085,-0.020
3873,-0.115,0.000
3874,-0.130,0.005
3875,-0.130,0.030
3876,-0.135,0.045
3877,-0.120,0.065
3878,-0.115,0.050
3879,-0.105,0.030
3880,-0.115,0.015
3881,-0.110,0.025
3882,-0.100,0.040
3883,-0.100,0.050
3884,-0.115,0.055
3885,-0.090,0.055
3886,-0.095,0.070
3887,-0.080,0.025
3888,-0.085,0.000
3889,-0.080,0.025
3890,-0.095,0.030
3891,-0.080,0.020
3892,-0.090,0.020
3893,-0.080,0.025
3894,-0.080,0.035
3895,-0.090,0.040
3896,-0.100,0.045
3897,-0.110,0.050
3898,-0.110,0.060
3899,-0.110,0.050
3900,-0.100,0.030
3901,-0.100,0.030
3902,-0.105,0.055
3903,-0.125,0.075
3904,-0.120,0.055
3905,-0.105,0.015
3906,-0.105,0.005
3907,-0.110,0.015
3908,-0.120,0.035
3909,-0.120,0.045
3910,-0.105,0.025
3911,-0.085,0.020
3912,-0.100,0.010
3913,-0.110,0.005
3914,-0.130,0.010
3915,-0.130,0.000
3916,-0.135,0.000
3917,-0.120,0.010
3918,-0.120,0.010
3919,-0.135,0.000
3920,-0.125,0.000
3921,-0.095,0.000
3922,-0.095,0.010
3923,-0.110,0.025
3924,-0.110,0.015
3925,-0.105,0.015
3926,-0.105,0.050
3927,-0.095,0.060
3928,-0.080,0.060
3929,-0.095,0.030
3930,-0.170,0.005
3931,-0.055,-0.065
3932,0.275,-0.240
3933,0.670,-0.385
3934,0.780,-0.425
3935,0.390,-0.285
3936,-0.025,-0.030
3937,-0.225,0.120
3938,-0.185,0.135
3939,-0.085,0.110
3940,-0.025,0.095
3941,-0.020,0.080
3942,-0.010,0.065
3943,-0.010,0.040
3944,-0.005,0.020
3945,0.000,0.035
3946,0.000,0.025
3947,0.000,0.005
3948,0.000,0.010
3949,0.000,0.020
3950,0.005,0.020
3951,0.010,0.015
3952,0.015,0.020
3953,0.020,0.015
3954,0.040,0.000
3955,0.050,-0.005
3956,0.060,-0.005
3957,0.060,-0.025
3958,0.060,-0.050
3959,0.060,-0.070
3960,0.075,-0.085
3961,0.085,-0.095
3962,0.110,-0.115
3963,0.090,-0.115
3964,0.085,-0.150
3965,0.080,-0.180
3966,0.085,-0.190
3967,0.065,-0.220
3968,0.070,-0.220
3969,0.050,-0.220
3970,0.045,-0.240
3971,0.010,-0.190
3972,-0.005,-0.115
3973,-0.030,-0.085
3974,-0.050,-0.060
3975,-0.080,-0.030
3976,-0.090,-0.005
3977,-0.090,0.020
3978,-0.095,0.030
3979,-0.085,0.010
3980,-0.090,0.025
3981,-0.085,0.040
3982,-0.080,0.030
3983,-0.060,0.040
3984,-0.055,0.065
3985,-0.055,0.060
3986,-0.055,0.075
3987,-0.060,0.080
3988,-0.070,0.055
3989,-0.065,0.045
3990,-0.060,0.055
3991,-0.060,0.060
3992,-0.055,0.060
3993,-0.060,0.060
3994,-0.050,0.050
3995,-0.050,0.045
3996,-0.060,0.040
3997,-0.070,0.050
3998,-0.080,0.055
3999,-0.090,0.070
4000,-0.085,0.080
4001,-0.065,0.065
4002,-0.065,0.035
4003,-0.080,0.020
4004,-0.085,0.025
4005,-0.080,0.045
4006,-0.095,0.050
4007,-0.075,0.045
4008,-0.060,0.045
4009,-0.060,0.050
4010,-0.085,0.025
4011,-0.065,0.025
4012,-0.075,0.050
4013,-0.070,0.060
4014,-0.065,0.040
4015,-0.060,0.050
4016,-0.075,0.045
4017,-0.080,0.000
4018,-0.085,-0.010
4019,-0.065,-0.005
4020,-0.065,-0.005
4021,-0.075,-0.010
4022,-0.095,-0.020
4023,-0.080,0.000
4024,-0.060,0.010
4025,-0.060,0.025
4026,-0.055,0.040
4027,-0.055,0.050
4028,-0.045,0.050
4029,-0.040,0.050
4030,-0.040,0.035
4031,-0.030,0.010
4032,-0.045,0.000
4033,-0.100,-0.005
4034,-0.075,-0.065
4035,0.155,-0.185
4036,0.530,-0.310
4037,0.790,-0.345
4038,0.655,-0.250
4039,0.210,-0.040
4040,-0.120,0.180
4041,-0.195,0.200
4042,-0.110,0.095
4043,-0.005,0.040
4044,0.005,0.045
4045,0.010,0.060
4046,0.020,0.050
4047,0.040,0.025
4048,0.030,0.025
4049,0.020,0.030
4050,0.040,0.055
4051,0.045,0.050
4052,0.050,0.045
4053,0.050,0.025
4054,0.055,0.000
4055,0.070,0.000
4056,0.070,0.005
4057,0.055,-0.010
4058,0.075,-0.015
4059,0.080,-0.020
4060,0.105,-0.010
4061,0.100,-0.010
4062,0.110,-0.045
4063,0.115,-0.070
4064,0.150,-0.065
4065,0.150,-0.075
4066,0.155,-0.125
4067,0.145,-0.155
4068,0.140,-0.150
4069,0.140,-0.175
4070,0.140,-0.215
4071,0.135,-0.220
4072,0.130,-0.220
4073,0.100,-0.205
4074,0.060,-0.175
4075,0.025,-0.135
4076,0.000,-0.085
4077,0.000,-0.055
4078,0.000,-0.045
4079,-0.015,-0.025
4080,-0.045,0.010
4081,-0.055,0.030
4082,-0.055,0.035
4083,-0.065,0.040
4084,-0.055,0.055
4085,-0.060,0.075
4086,-0.040,0.070
4087,-0.035,0.075
4088,-0.040,0.105
4089,-0.030,0.100
4090,0.000,0.055
4091,-0.025,0.060
4092,-0.020,0.055
4093,-0.015,0.085
4094,0.000,0.095
4095,0.000,0.060
4096,0.020,0.055
4097,0.010,0.060
4098,0.005,0.055
4099,0.025,0.070
4100,0.060,0.040
4101,0.025,0.030
4102,0.045,0.070
4103,0.055,0.065
4104,0.045,0.045
4105,0.040,0.030
4106,0.040,0.030
4107,0.025,0.055
4108,0.005,0.080
4109,0.000,0.040
4110,0.000,0.035
4111,0.005,0.045
4112,0.000,0.045
4113,0.005,0.045
4114,0.005,0.035
4115,0.000,0.040
4116,0.000,0.055
4117,0.000,0.050
4118,0.000,0.045
4119,0.000,0.035
4120,-0.005,0.010
4121,-0.005,-0.005
4122,0.000,-0.005
4123,-0.005,0.000
4124,-0.010,-0.005
4125,-0.010,0.000
4126,-0.005,0.015
4127,0.000,0.030
4128,0.000,0.040
4129,-0.015,0.050
4130,-0.015,0.065
4131,0.000,0.070
4132,-0.005,0.065
4133,0.000,0.085
4134,0.000,0.040
4135,-0.035,0.015
4136,-0.090,-0.025
4137,0.125,-0.125
4138,0.515,-0.235
4139,0.935,-0.315
4140,0.905,-0.240
4141,0.375,-0.045
4142,-0.090,0.175
4143,-0.230,0.235
4144,-0.160,0.165
4145,-0.045,0.070
4146,0.005,0.030
4147,0.030,0.045
4148,0.020,0.065
4149,0.030,0.065
4150,0.045,0.055
4151,0.050,0.040
4152,0.065,0.030
4153,0.075,0.020
4154,0.080,0.020
4155,0.080,0.015
4156,0.075,0.010
4157,0.080,0.020
4158,0.090,0.010
4159,0.105,-0.005
4160,0.120,-0.005
4161,0.115,-0.010
4162,0.115,-0.025
4163,0.135,-0.035
4164,0.145,-0.040
4165,0.145,-0.060
4166,0.140,-0.085
4167,0.150,-0.095
4168,0.160,-0.120
4169,0.160,-0.155
4170,0.140,-0.155
4171,0.130,-0.155
4172,0.115,-0.190
4173,0.125,-0.230
4174,0.100,-0.245
4175,0.070,-0.215
4176,0.040,-0.175
4177,0.010,-0.125
4178,-0.005,-0.090
4179,-0.020,-0.065
4180,-0.055,-0.015
4181,-0.080,0.005
4182,-0.095,0.015
4183,-0.125,0.030
4184,-0.130,0.040
4185,-0.130,0.045
4186,-0.130,0.050
4187,-0.135,0.070
4188,-0.135,0.080
4189,-0.135,0.045
4190,-0.135,0.040
4191,-0.135,0.050
4192,-0.110,0.065
4193,-0.105,0.075
4194,-0.095,0.055
4195,-0.100,0.020
4196,-0.085,0.010
4197,-0.080,0.030
4198,-0.085,0.045
4199,-0.100,0.055
4200,-0.100,0.055
4201,-0.095,0.045
4202,-0.090,0.030
4203,-0.090,0.025
4204,-0.095,0.035
4205,-0.095,0.070
4206,-0.095,0.075
4207,-0.085,0.035
4208,-0.080,0.010
4209,-0.085,0.020
4210,-0.080,0.025
4211,-0.075,0.025
4212,-0.075,0.040
4213,-0.095,0.050
4214,-0.090,0.045
4215,-0.095,0.025
4216,-0.095,0.030
4217,-0.105,0.055
4218,-0.080,0.065
4219,-0.095,0.060
4220,-0.080,0.025
4221,-0.075,0.010
4222,-0.055,0.010
4223,-0.080,0.025
4224,-0.100,0.010
4225,-0.115,-0.010
4226,-0.110,-0.005
4227,-0.130,0.010
4228,-0.120,0.010
4229,-0.120,0.000
4230,-0.130,0.000
4231,-0.125,-0.015
4232,-0.115,0.000
4233,-0.095,0.010
4234,-0.105,0.040
4235,-0.120,0.050
4236,-0.120,0.050
4237,-0.100,0.050
4238,-0.105,0.055
4239,-0.100,0.045
4240,-0.105,0.045
4241,-0.145,0.025
4242,-0.135,-0.040
4243,0.075,-0.145
4244,0.440,-0.280
4245,0.740,-0.390
4246,0.645,-0.355
4247,0.210,-0.160
4248,-0.145,0.060
4249,-0.235,0.140
4250,-0.140,0.100
4251,-0.055,0.090
4252,-0.015,0.080
4253,-0.010,0.065
4254,0.000,0.050
4255,0.000,0.040
4256,0.000,0.040
4257,0.000,0.050
4258,0.000,0.020
4259,0.010,0.015
4260,0.010,0.030
4261,0.005,0.030
4262,0.000,0.045
4263,0.015,0.050
4264,0.030,0.000
4265,0.035,0.010
4266,0.025,0.010
4267,0.055,0.010
4268,0.060,-0.010
4269,0.070,-0.035
4270,0.070,-0.040
4271,0.085,-0.055
4272,0.085,-0.065
4273,0.100,-0.070
4274,0.100,-0.110
4275,0.115,-0.125
4276,0.095,-0.140
4277,0.085,-0.170
4278,0.070,-0.200
4279,0.060,-0.210
4280,0.050,-0.235
4281,0.030,-0.230
4282,0.015,-0.195
4283,0.005,-0.150
4284,-0.025,-0.105
4285,-0.060,-0.065
4286,-0.085,-0.030
4287,-0.100,-0.005
4288,-0.110,0.005
4289,-0.110,0.020
4290,-0.120,0.040
4291,-0.125,0.060
4292,-0.120,0.075
4293,-0.105,0.075
4294,-0.105,0.070
4295,-0.095,0.055
4296,-0.090,0.030
4297,-0.080,0.025
4298,-0.070,0.040
4299,-0.060,0.050
4300,-0.060,0.050
4301,-0.045,0.065
4302,-0.060,0.085
4303,-0.060,0.060
4304,-0.060,0.050
4305,-0.055,0.050
4306,-0.055,0.050
4307,-0.055,0.065
4308,-0.070,0.060
4309,-0.065,0.050
4310,-0.055,0.025
4311,-0.055,0.015
4312,-0.075,0.020
4313,-0.095,0.035
4314,-0.080,0.040
4315,-0.065,0.045
4316,-0.065,0.060
4317,-0.085,0.050
4318,-0.080,0.030
4319,-0.090,0.040
4320,-0.100,0.060
4321,-0.100,0.055
4322,-0.070,0.035
4323,-0.070,0.030
4324,-0.080,0.025
4325,-0.080,0.035
4326,-0.060,0.045
4327,-0.055,0.035
4328,-0.060,0.020
4329,-0.080,0.010
4330,-0.085,0.015
4331,-0.090,0.010
4332,-0.105,-0.005
4333,-0.100,-0.010
4334,-0.110,0.000
4335,-0.120,0.005
4336,-0.115,0.005
4337,-0.100,-0.005
4338,-0.090,0.000
4339,-0.090,0.015
4340,-0.095,0.030
4341,-0.105,0.040
4342,-0.095,0.055
4343,-0.070,0.055
4344,-0.055,0.070
4345,-0.060,0.050
4346,-0.100,0.045
4347,-0.150,-0.010
4348,-0.035,-0.115
4349,0.270,-0.245
4350,0.660,-0.360
4351,0.855,-0.380
4352,0.485,-0.195
4353,-0.005,0.055
4354,-0.220,0.215
4355,-0.195,0.155
4356,-0.055,0.095
4357,-0.005,0.070
4358,0.015,0.065
4359,0.010,0.070
4360,0.025,0.045
4361,0.020,0.050
4362,0.035,0.050
4363,0.050,0.020
4364,0.060,0.025
4365,0.065,0.030
4366,0.055,0.030
4367,0.055,0.025
4368,0.060,0.040
4369,0.070,0.025
4370,0.080,0.005
4371,0.085,0.000
4372,0.080,0.000
4373,0.100,0.000
4374,0.115,-0.015
4375,0.120,-0.040
4376,0.130,-0.060
4377,0.135,-0.070
4378,0.140,-0.085
4379,0.145,-0.085
4380,0.160,-0.110
4381,0.160,-0.165
4382,0.165,-0.195
4383,0.140,-0.195
4384,0.110,-0.205
4385,0.095,-0.210
4386,0.105,-0.200
4387,0.080,-0.180
4388,0.035,-0.180
4389,0.000,-0.145
4390,0.000,-0.085
4391,0.000,-0.040
4392,-0.035,0.010
4393,-0.045,0.035
4394,-0.070,0.015
4395,-0.075,0.020
4396,-0.065,0.025
4397,-0.045,0.045
4398,-0.045,0.085
4399,-0.020,0.095
4400,-0.045,0.095
4401,-0.050,0.075
4402,-0.045,0.035
4403,-0.005,0.035
4404,-0.010,0.055
4405,-0.030,0.070
4406,-0.025,0.075
4407,-0.005,0.080
4408,0.000,0.080
4409,0.000,0.060
4410,-0.010,0.055
4411,-0.010,0.055
4412,-0.010,0.075
4413,-0.005,0.090
4414,0.000,0.070
4415,0.010,0.035
4416,0.000,0.035
4417,-0.020,0.050
4418,-0.025,0.080
4419,-0.005,0.080
4420,0.000,0.045
4421,0.000,0.025
4422,0.000,0.035
4423,-0.005,0.060
4424,-0.020,0.070
4425,-0.010,0.060
4426,0.000,0.050
4427,0.000,0.045
4428,0.000,0.030
4429,0.000,0.045
4430,0.000,0.080
4431,0.020,0.075
4432,0.015,0.025
4433,0.010,0.000
4434,0.000,0.010
4435,0.000,0.005
4436,-0.005,0.000
4437,-0.020,0.025
4438,-0.015,0.030
4439,-0.015,0.020
4440,-0.020,0.000
4441,0.000,-0.020
4442,0.005,-0.005
4443,0.000,0.025
4444,0.000,0.045
4445,-0.005,0.060
4446,0.000,0.080
4447,0.000,0.035
4448,0.000,0.025
4449,0.000,0.050
4450,0.000,0.055
4451,-0.045,0.030
4452,-0.025,-0.015
4453,0.220,-0.140
4454,0.605,-0.250
4455,0.905,-0.300
4456,0.785,-0.190
4457,0.305,0.010
4458,-0.095,0.165
4459,-0.205,0.190
4460,-0.125,0.110
4461,-0.025,0.050
4462,0.025,0.040
4463,0.030,0.060
4464,0.025,0.070
4465,0.040,0.055
4466,0.050,0.060
4467,0.055,0.045
4468,0.060,0.030
4469,0.060,0.055
4470,0.060,0.040
4471,0.080,0.000
4472,0.100,0.000
4473,0.095,0.000
4474,0.080,0.000
4475,0.065,0.000
4476,0.090,-0.005
4477,0.085,-0.005
4478,0.095,-0.015
4479,0.085,0.000
4480,0.125,-0.025
4481,0.135,-0.065
4482,0.145,-0.070
4483,0.145,-0.125
4484,0.150,-0.130
4485,0.150,-0.140
4486,0.140,-0.135
4487,0.125,-0.155
4488,0.125,-0.200
4489,0.105,-0.220
4490,0.090,-0.225
4491,0.070,-0.220
4492,0.030,-0.190
4493,0.005,-0.135
4494,0.000,-0.075
4495,-0.025,-0.040
4496,-0.065,-0.035
4497,-0.090,-0.020
4498,-0.110,0.005
4499,-0.120,0.040
4500,-0.125,0.065
4501,-0.120,0.065
4502,-0.120,0.065
4503,-0.125,0.055
4504,-0.120,0.055
4505,-0.110,0.065
4506,-0.105,0.050
4507,-0.110,0.040
4508,-0.105,0.050
4509,-0.090,0.040
4510,-0.070,0.025
4511,-0.070,0.035
4512,-0.060,0.050
4513,-0.065,0.065
4514,-0.060,0.065
4515,-0.065,0.055
4516,-0.055,0.035
4517,-0.055,0.055
4518,-0.055,0.065
4519,-0.065,0.060
4520,-0.065,0.040
4521,-0.060,0.035
4522,-0.065,0.025
4523,-0.065,0.025
4524,-0.085,0.040
4525,-0.080,0.045
4526,-0.070,0.020
4527,-0.060,0.020
4528,-0.095,0.050
4529,-0.080,0.050
4530,-0.090,0.030
4531,-0.095,0.055
4532,-0.095,0.045
4533,-0.090,0.025
4534,-0.080,0.045
4535,-0.080,0.045
4536,-0.090,0.045
4537,-0.090,0.040
4538,-0.070,0.015
4539,-0.065,0.005
4540,-0.080,0.005
4541,-0.100,0.015
4542,-0.110,0.025
4543,-0.130,0.010
4544,-0.140,-0.010
4545,-0.135,-0.015
4546,-0.130,-0.010
4547,-0.130,-0.010
4548,-0.130,-0.005
4549,-0.115,0.015
4550,-0.115,0.055
4551,-0.120,0.055
4552,-0.130,0.035
4553,-0.125,0.025
4554,-0.130,0.025
4555,-0.115,0.045
4556,-0.115,0.055
4557,-0.110,0.030
4558,-0.160,0.000
4559,-0.155,-0.055
4560,0.105,-0.145
4561,0.500,-0.265
4562,0.815,-0.355
4563,0.650,-0.305
4564,0.120,-0.105
4565,-0.220,0.125
4566,-0.255,0.160
4567,-0.135,0.090
4568,-0.045,0.075
4569,-0.020,0.085
4570,-0.005,0.055
4571,-0.005,0.055
4572,0.000,0.030
4573,0.000,0.030
4574,0.000,0.045
4575,0.000,0.050
4576,0.000,0.040
4577,0.000,0.030
4578,0.010,0.015
4579,0.015,0.030
4580,0.025,0.020
4581,0.025,0.005
4582,0.030,0.015
4583,0.040,0.010
4584,0.050,-0.005
4585,0.060,-0.020
4586,0.065,-0.045
4587,0.070,-0.050
4588,0.075,-0.050
4589,0.085,-0.060
4590,0.085,-0.070
4591,0.095,-0.090
4592,0.100,-0.105
4593,0.110,-0.130
4594,0.105,-0.180
4595,0.090,-0.225
4596,0.085,-0.260
4597,0.070,-0.250
4598,0.045,-0.215
4599,0.015,-0.175
4600,0.000,-0.120
4601,-0.010,-0.105
4602,-0.035,-0.085
4603,-0.070,-0.035
4604,-0.080,-0.005
4605,-0.115,0.015
4606,-0.115,0.015
4607,-0.115,0.005
4608,-0.100,0.020
4609,-0.105,0.040
4610,-0.090,0.025
4611,-0.080,0.025
4612,-0.080,0.060
4613,-0.080,0.055
4614,-0.080,0.050
4615,-0.080,0.050
4616,-0.060,0.050
4617,-0.060,0.060
4618,-0.055,0.050
4619,-0.055,0.040
4620,-0.055,0.040
4621,-0.050,0.045
4622,-0.050,0.050
4623,-0.055,0.055
4624,-0.055,0.040
4625,-0.050,0.030
4626,-0.055,0.045
4627,-0.055,0.060
4628,-0.055,0.055
4629,-0.045,0.040
4630,-0.045,0.035
4631,-0.055,0.050
4632,-0.055,0.075
4633,-0.045,0.055
4634,-0.040,0.020
4635,-0.045,0.015
4636,-0.060,0.030
4637,-0.075,0.040
4638,-0.070,0.030
4639,-0.075,0.040
4640,-0.070,0.035
4641,-0.075,0.025
4642,-0.060,0.030
4643,-0.075,0.055
4644,-0.060,0.065
4645,-0.060,0.010
4646,-0.080,0.000
4647,-0.090,0.010
4648,-0.095,0.000
4649,-0.095,-0.010
4650,-0.110,-0.025
4651,-0.105,-0.005
4652,-0.115,-0.005
4653,-0.100,-0.005
4654,-0.095,0.000
4655,-0.080,0.020
4656,-0.085,0.045
4657,-0.090,0.020
4658,-0.095,0.025
4659,-0.065,0.060
4660,-0.055,0.055
4661,-0.055,0.040
4662,-0.055,0.040
4663,-0.070,0.030
4664,-0.145,-0.010
4665,-0.055,-0.110
4666,0.230,-0.220
4667,0.620,-0.320
4668,0.790,-0.350
4669,0.515,-0.235
4670,0.075,0.000
4671,-0.170,0.170
4672,-0.170,0.170
4673,-0.065,0.110
4674,0.000,0.090
4675,0.015,0.075
4676,0.025,0.040
4677,0.035,0.025
4678,0.035,0.050
4679,0.060,0.025
4680,0.070,0.025
4681,0.060,0.025
4682,0.040,0.030
4683,0.055,0.040
4684,0.060,0.045
4685,0.060,0.040
4686,0.065,0.005
4687,0.090,-0.005
4688,0.100,0.000
4689,0.110,0.000
4690,0.120,0.000
4691,0.115,-0.020
4692,0.105,-0.045
4693,0.110,-0.050
4694,0.110,-0.080
4695,0.110,-0.080
4696,0.125,-0.080
4697,0.170,-0.135
4698,0.180,-0.160
4699,0.150,-0.195
4700,0.140,-0.220
4701,0.135,-0.225
4702,0.115,-0.230
4703,0.095,-0.245
4704,0.075,-0.205
4705,0.050,-0.185
4706,0.025,-0.160
4707,0.005,-0.100
4708,0.000,-0.030
4709,-0.015,-0.015
4710,-0.030,-0.015
4711,-0.045,0.005
4712,-0.040,0.050
4713,-0.035,0.055
4714,-0.020,0.035
4715,-0.020,0.045
4716,-0.015,0.055
4717,-0.005,0.045
4718,-0.015,0.045
4719,-0.015,0.050
4720,-0.005,0.055
4721,0.000,0.080
4722,0.000,0.090
4723,0.000,0.075
4724,0.000,0.070
4725,0.000,0.065
4726,0.000,0.050
4727,0.000,0.045
4728,0.005,0.045
4729,0.000,0.050
4730,0.000,0.060
4731,0.005,0.050
4732,0.010,0.050
4733,0.000,0.070
4734,0.000,0.070
4735,0.000,0.040
4736,0.000,0.055
4737,0.000,0.065
4738,0.010,0.050
4739,0.000,0.040
4740,0.005,0.015
4741,0.000,0.055
4742,0.000,0.050
4743,0.000,0.045
4744,0.000,0.060
4745,0.000,0.050
4746,0.005,0.050
4747,0.000,0.050
4748,0.000,0.020
4749,0.005,0.020
4750,0.000,0.050
4751,0.000,0.045
4752,0.000,0.015
4753,0.000,-0.005
4754,0.000,-0.005
4755,0.000,-0.005
4756,0.000,-0.015
4757,0.000,-0.010
4758,0.000,0.000
4759,0.005,0.030
4760,0.010,0.055
4761,0.015,0.060
4762,0.025,0.045
4763,0.010,0.045
4764,0.015,0.050
4765,0.015,0.045
4766,0.030,0.025
4767,0.025,0.015
4768,-0.010,-0.015
4769,0.015,-0.065
4770,0.290,-0.165
4771,0.670,-0.255
4772,0.960,-0.285
4773,0.780,-0.130
4774,0.260,0.035
4775,-0.110,0.180
4776,-0.170,0.170
4777,-0.065,0.125
4778,0.015,0.040
4779,0.075,0.030
4780,0.070,0.045
4781,0.075,0.030
4782,0.070,0.020
4783,0.085,0.020
4784,0.085,0.030
4785,0.085,0.020
4786,0.080,0.015
4787,0.095,0.025
4788,0.085,0.025
4789,0.100,0.005
4790,0.095,0.000
4791,0.110,-0.015
4792,0.125,-0.025
4793,0.135,-0.030
4794,0.130,-0.015
4795,0.130,-0.020
4796,0.145,-0.050
4797,0.165,-0.070
4798,0.165,-0.085
4799,0.170,-0.090
4800,0.175,-0.110
4801,0.175,-0.140
4802,0.180,-0.160
4803,0.180,-0.180
4804,0.165,-0.200
4805,0.145,-0.215
4806,0.135,-0.230
4807,0.115,-0.245
4808,0.085,-0.245
4809,0.060,-0.195
4810,0.030,-0.145
4811,0.010,-0.100
4812,-0.005,-0.040
4813,-0.030,0.000
4814,-0.055,0.000
4815,-0.055,0.000
4816,-0.070,0.015
4817,-0.080,0.040
4818,-0.110,0.055
4819,-0.105,0.070
4820,-0.095,0.070
4821,-0.080,0.030
4822,-0.090,0.015
4823,-0.095,0.045
4824,-0.095,0.050
4825,-0.065,0.030
4826,-0.075,0.030
4827,-0.090,0.035
4828,-0.080,0.065
4829,-0.080,0.050
4830,-0.080,0.050
4831,-0.090,0.050
4832,-0.070,0.035
4833,-0.085,0.040
4834,-0.090,0.050
4835,-0.090,0.050
4836,-0.075,0.035
4837,-0.075,0.005
4838,-0.065,0.005
4839,-0.065,0.020
4840,-0.075,0.025
4841,-0.090,0.025
4842,-0.085,0.040
4843,-0.085,0.060
4844,-0.095,0.060
4845,-0.095,0.040
4846,-0.085,0.040
4847,-0.085,0.060
4848,-0.095,0.055
4849,-0.095,0.030
4850,-0.090,0.020
4851,-0.070,0.020
4852,-0.060,0.025
4853,-0.055,0.025
4854,-0.050,0.030
4855,-0.055,0.020
4856,-0.065,0.020
4857,-0.080,0.020
4858,-0.080,0.000
4859,-0.105,0.000
4860,-0.105,0.000
4861,-0.105,0.000
4862,-0.105,0.000
4863,-0.130,-0.005
4864,-0.105,-0.020
4865,-0.100,-0.005
4866,-0.095,0.020
4867,-0.095,0.025
4868,-0.095,0.050
4869,-0.100,0.055
4870,-0.080,0.025
4871,-0.090,0.045
4872,-0.090,0.065
4873,-0.105,0.030
4874,-0.170,-0.020
4875,-0.060,-0.075
4876,0.245,-0.180
4877,0.650,-0.325
4878,0.800,-0.365
4879,0.480,-0.250
4880,0.035,-0.035
4881,-0.205,0.110
4882,-0.195,0.115
4883,-0.090,0.105
4884,-0.030,0.080
4885,-0.010,0.045
4886,0.000,0.030
4887,0.000,0.025
4888,0.000,0.040
4889,0.000,0.045
4890,0.005,0.025
4891,0.000,0.025
4892,0.000,0.020
4893,0.005,0.015
4894,0.035,0.015
4895,0.045,0.025
4896,0.030,0.005
4897,0.030,-0.010
4898,0.060,0.000
4899,0.060,0.015
4900,0.080,-0.025
4901,0.095,-0.045
4902,0.095,-0.020
4903,0.100,-0.045
4904,0.110,-0.075
4905,0.135,-0.070
4906,0.135,-0.080
4907,0.135,-0.120
4908,0.125,-0.155
4909,0.120,-0.185
4910,0.110,-0.215
4911,0.115,-0.215
4912,0.090,-0.245
4913,0.070,-0.225
4914,0.045,-0.200
4915,0.035,-0.180
4916,0.005,-0.140
4917,0.000,-0.090
4918,-0.035,-0.050
4919,-0.055,-0.015
4920,-0.080,0.000
4921,-0.095,0.000
4922,-0.100,0.005
4923,-0.095,0.020
4924,-0.095,0.025
4925,-0.095,0.045
4926,-0.090,0.065
4927,-0.090,0.070
4928,-0.085,0.060
4929,-0.065,0.025
4930,-0.050,0.020
4931,-0.045,0.035
4932,-0.055,0.050
4933,-0.060,0.080
4934,-0.055,0.075
4935,-0.055,0.030
4936,-0.055,0.035
4937,-0.055,0.060
4938,-0.050,0.080
4939,-0.050,0.050
4940,-0.050,0.025
4941,-0.040,0.045
4942,-0.055,0.040
4943,-0.055,0.025
4944,-0.050,0.025
4945,-0.035,0.040
4946,-0.045,0.040
4947,-0.030,0.030
4948,-0.055,0.040
4949,-0.055,0.045
4950,-0.060,0.045
4951,-0.055,0.060
4952,-0.050,0.020
4953,-0.050,0.005
4954,-0.055,0.015
4955,-0.060,0.045
4956,-0.055,0.030
4957,-0.055,0.035
4958,-0.055,0.030
4959,-0.055,0.005
4960,-0.055,0.005
4961,-0.065,0.020
4962,-0.060,0.015
4963,-0.070,-0.005
4964,-0.090,-0.015
4965,-0.095,-0.015
4966,-0.070,-0.015
4967,-0.085,-0.005
4968,-0.095,0.000
4969,-0.080,-0.010
4970,-0.065,-0.005
4971,-0.065,0.020
4972,-0.070,0.035
4973,-0.065,0.050
4974,-0.065,0.065
4975,-0.050,0.055
4976,-0.050,0.035
4977,-0.060,0.020
4978,-0.100,0.005
4979,-0.110,-0.035
4980,0.060,-0.140
4981,0.400,-0.275
4982,0.730,-0.365
4983,0.755,-0.315
4984,0.320,-0.115
4985,-0.080,0.095
4986,-0.210,0.180
4987,-0.130,0.120
4988,-0.010,0.075
4989,0.015,0.060
4990,0.025,0.050
4991,0.020,0.045
4992,0.020,0.055
4993,0.005,0.070
4994,0.045,0.055
4995,0.055,0.040
4996,0.075,0.000
4997,0.060,0.020
4998,0.060,0.025
4999,0.060,0.035
5000,0.085,0.000
5001,0.080,0.000
5002,0.080,0.000
5003,0.095,-0.020
5004,0.105,-0.015
5005,0.110,0.000
5006,0.120,0.000
5007,0.125,-0.050
5008,0.130,-0.105
5009,0.140,-0.100
5010,0.145,-0.100
5011,0.145,-0.125
5012,0.145,-0.145
5013,0.160,-0.160
5014,0.155,-0.170
5015,0.135,-0.190
5016,0.115,-0.230
5017,0.095,-0.245
5018,0.080,-0.220
5019,0.055,-0.180
5020,0.035,-0.175
5021,0.005,-0.155
5022,0.000,-0.105
5023,-0.010,-0.050
5024,-0.040,0.000
5025,-0.050,0.020
5026,-0.040,0.020
5027,-0.050,0.020
5028,-0.055,0.035
5029,-0.050,0.060
5030,-0.025,0.050
5031,-0.030,0.065
5032,-0.020,0.070
5033,-0.030,0.065
5034,-0.035,0.055
5035,-0.025,0.075
5036,-0.035,0.085
5037,-0.020,0.065
5038,-0.020,0.055
5039,-0.005,0.070
5040,-0.005,0.075
5041,0.000,0.075
5042,0.000,0.075
5043,0.000,0.045
5044,0.000,0.050
5045,0.000,0.080
5046,-0.010,0.075
5047,0.000,0.070
5048,0.000,0.075
5049,0.000,0.060
5050,0.000,0.050
5051,0.000,0.065
5052,-0.010,0.045
5053,-0.005,0.025
5054,0.000,0.035
5055,0.000,0.055
5056,-0.010,0.065
5057,-0.010,0.070
5058,0.000,0.070
5059,-0.005,0.040
5060,-0.020,0.030
5061,-0.010,0.050
5062,0.000,0.055
5063,0.000,0.040
5064,0.000,0.015
5065,-0.025,0.000
5066,-0.045,0.000
5067,-0.045,0.005
5068,-0.050,0.005
5069,-0.040,0.010
5070,-0.045,0.000
5071,-0.025,0.000
5072,-0.015,0.010
5073,0.000,0.060
5074,-0.010,0.050
5075,-0.010,0.030
5076,-0.010,0.030
5077,0.000,0.030
5078,0.000,0.035
5079,0.000,0.060
5080,0.000,0.025
5081,-0.030,0.000
5082,-0.055,-0.040
5083,0.200,-0.135
5084,0.580,-0.230
5085,0.940,-0.275
5086,0.805,-0.155
5087,0.295,0.000
5088,-0.105,0.175
5089,-0.210,0.200
5090,-0.110,0.100
5091,-0.020,0.050
5092,0.020,0.050
5093,0.040,0.045
5094,0.050,0.045
5095,0.060,0.045
5096,0.065,0.030
5097,0.060,0.025
5098,0.060,0.025
5099,0.060,0.035
5100,0.065,0.025
5101,0.080,0.000
5102,0.090,0.000
5103,0.100,-0.005
5104,0.095,-0.015
5105,0.095,-0.010
5106,0.100,0.005
5107,0.110,0.000
5108,0.125,-0.040
5109,0.145,-0.070
5110,0.140,-0.070
5111,0.140,-0.085
5112,0.140,-0.095
5113,0.150,-0.105
5114,0.155,-0.125
5115,0.155,-0.160
5116,0.180,-0.190
5117,0.150,-0.180
5118,0.130,-0.180
5119,0.120,-0.195
5120,0.115,-0.185
5121,0.090,-0.225
5122,0.080,-0.225
5123,0.015,-0.155
5124,0.000,-0.125
5125,-0.015,-0.065
5126,-0.020,-0.005
5127,-0.055,0.015
5128,-0.065,0.000
5129,-0.085,0.040
5130,-0.090,0.070
5131,-0.095,0.055
5132,-0.095,0.035
5133,-0.095,0.045
5134,-0.095,0.050
5135,-0.100,0.050
5136,-0.110,0.055
5137,-0.105,0.070
5138,-0.105,0.075
5139,-0.095,0.080
5140,-0.090,0.060
5141,-0.090,0.045
5142,-0.090,0.045
5143,-0.095,0.045
5144,-0.090,0.045
5145,-0.080,0.040
5146,-0.080,0.035
5147,-0.105,0.055
5148,-0.105,0.055
5149,-0.105,0.045
5150,-0.095,0.050
5151,-0.105,0.060
5152,-0.090,0.045
5153,-0.095,0.035
5154,-0.080,0.005
5155,-0.080,0.020
5156,-0.100,0.050
5157,-0.105,0.030
5158,-0.090,0.030
5159,-0.090,0.045
5160,-0.090,0.025
5161,-0.100,0.025
5162,-0.100,0.030
5163,-0.095,0.060
5164,-0.095,0.050
5165,-0.080,0.015
5166,-0.080,0.020
5167,-0.070,0.000
5168,-0.100,0.010
5169,-0.105,0.000
5170,-0.115,0.000
5171,-0.120,0.000
5172,-0.130,0.000
5173,-0.130,0.000
5174,-0.145,0.000
5175,-0.120,-0.015
5176,-0.110,-0.005
5177,-0.100,0.000
5178,-0.110,0.035
5179,-0.120,0.045
5180,-0.120,0.040
5181,-0.115,0.050
5182,-0.115,0.055
5183,-0.100,0.040
5184,-0.105,0.030
5185,-0.150,0.005
5186,-0.140,-0.045
5187,0.075,-0.135
5188,0.460,-0.250
5189,0.760,-0.335
5190,0.655,-0.300
5191,0.190,-0.125
5192,-0.185,0.085
5193,-0.275,0.160
5194,-0.175,0.110
5195,-0.055,0.070
5196,-0.035,0.070
5197,-0.030,0.055
5198,-0.030,0.025
5199,-0.015,0.025
5200,-0.025,0.040
5201,-0.010,0.070
5202,-0.005,0.035
5203,0.000,0.010
5204,0.000,0.025
5205,0.005,0.045
5206,0.005,0.015
5207,0.025,0.000
5208,0.030,0.000
5209,0.040,-0.005
5210,0.050,-0.010
5211,0.050,-0.005
5212,0.055,0.000
5213,0.065,-0.025
5214,0.070,-0.060
5215,0.080,-0.070
5216,0.095,-0.070
5217,0.105,-0.080
5218,0.110,-0.100
5219,0.110,-0.130
5220,0.115,-0.170
5221,0.110,-0.190
5222,0.095,-0.185
5223,0.085,-0.205
5224,0.065,-0.220
5225,0.035,-0.225
5226,0.010,-0.200
5227,0.005,-0.160
5228,-0.010,-0.115
5229,-0.040,-0.080
5230,-0.070,-0.035
5231,-0.090,0.000
5232,-0.110,0.005
5233,-0.110,0.020
5234,-0.115,0.035
5235,-0.120,0.045
5236,-0.115,0.065
5237,-0.115,0.035
5238,-0.120,0.025
5239,-0.115,0.045
5240,-0.105,0.040
5241,-0.095,0.035
5242,-0.090,0.060
5243,-0.075,0.050
5244,-0.065,0.050
5245,-0.075,0.065
5246,-0.055,0.095
5247,-0.080,0.045
5248,-0.090,0.040
5249,-0.095,0.060
5250,-0.080,0.055
5251,-0.080,0.075
5252,-0.070,0.050
5253,-0.075,0.025
5254,-0.070,0.035
5255,-0.075,0.030
5256,-0.060,0.030
5257,-0.075,0.050
5258,-0.065,0.050
5259,-0.075,0.035
5260,-0.065,0.030
5261,-0.060,0.025
5262,-0.065,0.045
5263,-0.070,0.060
5264,-0.060,0.050
5265,-0.055,0.050
5266,-0.055,0.050
5267,-0.050,0.040
5268,-0.050,0.025
5269,-0.050,0.010
5270,-0.065,0.005
5271,-0.075,0.010
5272,-0.080,-0.005
5273,-0.095,-0.020
5274,-0.100,-0.010
5275,-0.110,0.000
5276,-0.100,0.005
5277,-0.110,0.010
5278,-0.090,0.000
5279,-0.100,0.000
5280,-0.100,0.010
5281,-0.095,0.025
5282,-0.085,0.030
5283,-0.110,0.055
5284,-0.090,0.070
5285,-0.090,0.045
5286,-0.065,0.040
5287,-0.065,0.030
5288,-0.140,-0.005
5289,-0.110,-0.085
5290,0.185,-0.225
5291,0.570,-0.340
5292,0.835,-0.370
5293,0.530,-0.255
5294,0.040,-0.005
5295,-0.210,0.190
5296,-0.205,0.180
5297,-0.085,0.145
5298,-0.010,0.115
5299,0.000,0.070
5300,0.000,0.045
5301,0.015,0.040
5302,0.005,0.050
5303,0.015,0.045
5304,0.005,0.025
5305,0.015,0.025
5306,0.020,0.030
5307,0.045,0.035
5308,0.055,0.035
5309,0.055,0.040
5310,0.045,0.035
5311,0.055,0.010
5312,0.070,0.000
5313,0.070,0.000
5314,0.080,-0.010
5315,0.095,-0.030
5316,0.110,-0.045
5317,0.125,-0.055
5318,0.120,-0.075
5319,0.130,-0.110
5320,0.135,-0.095
5321,0.135,-0.090
5322,0.135,-0.125
5323,0.135,-0.170
5324,0.125,-0.175
5325,0.120,-0.215
5326,0.100,-0.245
5327,0.085,-0.255
5328,0.060,-0.225
5329,0.055,-0.195
5330,0.035,-0.155
5331,0.005,-0.130
5332,-0.025,-0.040
5333,-0.045,0.000
5334,-0.050,0.000
5335,-0.040,0.020
5336,-0.050,0.035
5337,-0.055,0.040
5338,-0.075,0.050
5339,-0.050,0.050
5340,-0.050,0.050
5341,-0.050,0.075
5342,-0.035,0.080
5343,-0.035,0.055
5344,-0.035,0.060
5345,-0.030,0.070
5346,-0.020,0.085
5347,-0.010,0.080
5348,-0.010,0.075
5349,-0.020,0.090
5350,-0.020,0.085
5351,-0.015,0.065
5352,-0.015,0.065
5353,-0.010,0.075
5354,0.000,0.065
5355,0.000,0.060
5356,0.000,0.060
5357,0.000,0.055
5358,0.000,0.070
5359,0.000,0.065
5360,0.000,0.040
5361,0.000,0.065
5362,-0.005,0.080
5363,0.000,0.095
5364,0.000,0.080
5365,0.000,0.045
5366,-0.010,0.035
5367,-0.005,0.040
5368,0.000,0.040
5369,0.000,0.060
5370,0.000,0.050
5371,0.000,0.040
5372,0.000,0.020
5373,0.000,0.010
5374,0.000,0.010
5375,-0.015,0.025
5376,-0.015,0.055
5377,-0.015,0.025
5378,-0.025,0.000
5379,-0.050,-0.015
5380,-0.035,0.000
5381,-0.015,0.035
5382,-0.010,0.030
5383,-0.040,0.030
5384,-0.025,0.055
5385,-0.025,0.070
5386,-0.005,0.070
5387,0.000,0.065
5388,0.000,0.070
5389,-0.020,0.035
5390,-0.095,0.005
5391,-0.045,-0.050
5392,0.210,-0.145
5393,0.580,-0.250
5394,0.865,-0.265
5395,0.715,-0.150
5396,0.260,0.020
5397,-0.100,0.165
5398,-0.215,0.215
5399,-0.135,0.160
5400,-0.020,0.090
5401,0.030,0.080
5402,0.030,0.075
5403,0.035,0.040
5404,0.045,0.060
5405,0.040,0.070
5406,0.055,0.040
5407,0.065,0.020
5408,0.070,0.035
5409,0.050,0.045
5410,0.055,0.030
5411,0.060,0.035
5412,0.080,0.025
5413,0.090,0.000
5414,0.130,-0.015
5415,0.130,-0.020
5416,0.135,-0.020
5417,0.160,-0.015
5418,0.155,0.000
5419,0.145,0.000
5420,0.155,-0.075
5421,0.180,-0.090
5422,0.190,-0.100
5423,0.195,-0.110
5424,0.195,-0.150
5425,0.200,-0.180
5426,0.195,-0.200
5427,0.175,-0.205
5428,0.150,-0.230
5429,0.125,-0.220
5430,0.095,-0.195
5431,0.085,-0.150
5432,0.050,-0.120
5433,0.015,-0.080
5434,0.000,-0.045
5435,0.000,-0.025
5436,-0.025,-0.005
5437,-0.050,0.010
5438,-0.055,0.035
5439,-0.045,0.050
5440,-0.055,0.065
5441,-0.060,0.075
5442,-0.055,0.065
5443,-0.050,0.055
5444,-0.045,0.065
5445,-0.050,0.070
5446,-0.035,0.040
5447,-0.035,0.040
5448,-0.045,0.045
5449,-0.045,0.065
5450,-0.045,0.065
5451,-0.035,0.035
5452,-0.030,0.025
5453,-0.030,0.040
5454,-0.040,0.080
5455,-0.035,0.045
5456,-0.050,0.040
5457,-0.035,0.040
5458,-0.050,0.060
5459,-0.035,0.040
5460,-0.055,0.050
5461,-0.055,0.050
5462,-0.055,0.025
5463,-0.035,0.025
5464,-0.060,0.065
5465,-0.065,0.065
5466,-0.075,0.040
5467,-0.060,0.005
5468,-0.065,0.020
5469,-0.065,0.045
5470,-0.075,0.045
5471,-0.070,0.050
5472,-0.055,0.040
5473,-0.055,0.025
5474,-0.060,0.020
5475,-0.085,0.020
5476,-0.095,0.015
5477,-0.110,0.000
5478,-0.125,0.000
5479,-0.135,0.000
5480,-0.125,-0.005
5481,-0.130,-0.010
5482,-0.130,-0.010
5483,-0.120,0.000
5484,-0.110,0.025
5485,-0.105,0.040
5486,-0.120,0.025
5487,-0.120,0.020
5488,-0.125,0.040
5489,-0.120,0.055
5490,-0.110,0.030
5491,-0.100,0.010
5492,-0.125,0.000
5493,-0.165,-0.015
5494,-0.100,-0.070
5495,0.230,-0.180
5496,0.615,-0.250
5497,0.850,-0.315
5498,0.535,-0.220
5499,0.025,-0.030
5500,-0.270,0.155
5501,-0.280,0.150
5502,-0.150,0.095
5503,-0.065,0.065
5504,-0.035,0.065
5505,-0.035,0.050
5506,-0.020,0.000
5507,-0.035,0.020
5508,0.000,0.035
5509,-0.005,0.005
5510,-0.010,0.015
5511,-0.005,0.020
5512,0.000,0.025
5513,0.000,0.030
5514,0.000,0.020
5515,0.015,0.005
5516,0.020,-0.005
5517,0.020,0.000
5518,0.025,0.000
5519,0.035,-0.020
5520,0.045,-0.045
5521,0.060,-0.050
5522,0.065,-0.040
5523,0.065,-0.055
5524,0.065,-0.080
5525,0.075,-0.095
5526,0.085,-0.100
5527,0.085,-0.135
5528,0.085,-0.175
5529,0.080,-0.205
5530,0.070,-0.215
5531,0.040,-0.200
5532,0.025,-0.190
5533,0.010,-0.180
5534,-0.005,-0.165
5535,-0.025,-0.140
5536,-0.050,-0.095
5537,-0.085,-0.055
5538,-0.115,-0.040
5539,-0.140,0.000
5540,-0.140,0.025
5541,-0.140,0.025
5542,-0.135,0.025
5543,-0.140,0.025
5544,-0.140,0.025
5545,-0.135,0.050
5546,-0.125,0.050
5547,-0.120,0.050
5548,-0.110,0.045
5549,-0.110,0.040
5550,-0.110,0.025
5551,-0.080,0.040
5552,-0.085,0.050
5553,-0.080,0.050
5554,-0.085,0.025
5555,-0.080,0.025
5556,-0.080,0.040
5557,-0.085,0.065
5558,-0.095,0.075
5559,-0.085,0.070
5560,-0.080,0.045
5561,-0.080,0.040
5562,-0.095,0.045
5563,-0.075,0.035
5564,-0.080,0.025
5565,-0.095,0.035
5566,-0.095,0.040
5567,-0.085,0.040
5568,-0.085,0.055
5569,-0.085,0.050
5570,-0.090,0.030
5571,-0.100,0.015
5572,-0.090,0.005
5573,-0.090,0.010
5574,-0.095,0.020
5575,-0.090,0.045
5576,-0.090,0.065
5577,-0.080,0.045
5578,-0.075,0.015
5579,-0.070,0.000
5580,-0.090,0.000
5581,-0.085,0.000
5582,-0.110,-0.005
5583,-0.110,-0.015
5584,-0.125,0.000
5585,-0.105,-0.010
5586,-0.120,-0.020
5587,-0.120,-0.005
5588,-0.120,0.000
5589,-0.105,0.010
5590,-0.115,0.040
5591,-0.100,0.025
5592,-0.100,0.025
5593,-0.080,0.045
5594,-0.090,0.030
5595,-0.080,0.005
5596,-0.090,0.005
5597,-0.160,0.000
5598,-0.110,-0.035
5599,0.175,-0.160
5600,0.560,-0.310
5601,0.785,-0.385
5602,0.525,-0.280
5603,0.065,-0.050
5604,-0.200,0.140
5605,-0.220,0.165
5606,-0.110,0.105
5607,-0.030,0.070
5608,-0.005,0.045
5609,0.000,0.025
5610,0.000,0.035
5611,0.000,0.050
5612,0.000,0.040
5613,0.005,0.025
5614,0.010,0.025
5615,0.015,0.030
5616,0.010,0.040
5617,0.025,0.030
5618,0.030,0.000
5619,0.035,0.000
5620,0.040,0.000
5621,0.050,0.000
5622,0.045,0.000
5623,0.060,0.000
5624,0.060,-0.010
5625,0.065,-0.060
5626,0.100,-0.070
5627,0.105,-0.065
5628,0.100,-0.060
5629,0.100,-0.110
5630,0.115,-0.135
5631,0.110,-0.160
5632,0.115,-0.170
5633,0.100,-0.215
5634,0.095,-0.230
5635,0.065,-0.215
5636,0.065,-0.220
5637,0.030,-0.230
5638,0.015,-0.220
5639,0.000,-0.165
5640,-0.015,-0.095
5641,-0.040,-0.065
5642,-0.060,-0.015
5643,-0.085,0.000
5644,-0.080,0.005
5645,-0.085,0.035
5646,-0.080,0.050
5647,-0.080,0.050
5648,-0.070,0.050
5649,-0.065,0.040
5650,-0.065,0.060
5651,-0.055,0.060
5652,-0.055,0.050
5653,-0.055,0.060
5654,-0.050,0.070
5655,-0.045,0.065
5656,-0.040,0.065
5657,-0.030,0.075
5658,-0.030,0.075
5659,-0.040,0.070
5660,-0.030,0.065
5661,-0.025,0.075
5662,-0.020,0.070
5663,-0.035,0.045
5664,-0.040,0.025
5665,-0.045,0.045
5666,-0.030,0.065
5667,-0.030,0.070
5668,-0.030,0.055
5669,-0.035,0.045
5670,-0.020,0.045
5671,-0.035,0.045
5672,-0.035,0.085
5673,-0.035,0.080
5674,-0.035,0.050
5675,-0.040,0.045
5676,-0.015,0.020
5677,-0.030,0.035
5678,-0.045,0.050
5679,-0.010,0.055
5680,-0.010,0.055
5681,0.000,0.035
5682,-0.015,0.030
5683,-0.025,0.050
5684,-0.030,0.045
5685,-0.025,0.015
5686,-0.040,0.000
5687,-0.035,0.000
5688,-0.020,0.015
5689,-0.030,0.000
5690,-0.055,-0.010
5691,-0.060,0.000
5692,-0.050,0.025
5693,-0.025,0.045
5694,-0.025,0.040
5695,-0.035,0.045
5696,-0.030,0.050
5697,-0.015,0.050
5698,-0.005,0.050
5699,-0.015,0.050
5700,-0.025,0.040
5701,-0.070,0.010
5702,-0.065,-0.050
5703,0.155,-0.160
5704,0.525,-0.265
5705,0.825,-0.300
5706,0.765,-0.200
5707,0.290,0.005
5708,-0.085,0.160
5709,-0.195,0.165
5710,-0.115,0.120
5711,-0.010,0.095
5712,0.025,0.090
5713,0.055,0.070
5714,0.050,0.065
5715,0.040,0.040
5716,0.045,0.060
5717,0.075,0.055
5718,0.075,0.035
5719,0.075,0.025
5720,0.065,0.040
5721,0.060,0.025
5722,0.075,0.015
5723,0.115,0.005
5724,0.110,0.005
5725,0.115,0.010
5726,0.100,0.010
5727,0.090,-0.015
5728,0.095,0.000
5729,0.110,-0.010
5730,0.130,-0.020
5731,0.150,-0.050
5732,0.160,-0.080
5733,0.175,-0.120
5734,0.195,-0.150
5735,0.200,-0.155
5736,0.200,-0.160
5737,0.190,-0.150
5738,0.190,-0.170
5739,0.185,-0.220
5740,0.160,-0.255
5741,0.130,-0.245
5742,0.100,-0.185
5743,0.075,-0.115
5744,0.040,-0.080
5745,0.020,-0.045
5746,0.000,-0.020
5747,0.000,-0.005
5748,0.000,0.030
5749,-0.005,0.055
5750,-0.030,0.065
5751,-0.035,0.060
5752,-0.030,0.055
5753,-0.005,0.050
5754,0.000,0.025
5755,0.000,0.035
5756,0.000,0.065
5757,-0.005,0.080
5758,-0.005,0.100
5759,-0.005,0.075
5760,0.000,0.070
5761,0.000,0.050
5762,0.005,0.060
5763,-0.005,0.070
5764,0.000,0.050
5765,0.000,0.055
5766,0.000,0.050
5767,0.000,0.050
5768,0.000,0.065
5769,0.000,0.070
5770,0.000,0.060
5771,-0.005,0.060
5772,0.000,0.070
5773,0.000,0.065
5774,-0.005,0.040
5775,-0.005,0.040
5776,-0.010,0.040
5777,-0.020,0.035
5778,-0.015,0.040
5779,-0.005,0.040
5780,-0.005,0.045
5781,-0.010,0.050
5782,-0.010,0.055
5783,-0.005,0.065
5784,-0.015,0.070
5785,-0.010,0.060
5786,0.000,0.035
5787,0.000,0.000
5788,-0.015,0.015
5789,-0.045,0.020
5790,-0.050,0.005
5791,-0.060,0.005
5792,-0.055,0.010
5793,-0.055,0.010
5794,-0.070,0.015
5795,-0.080,0.000
5796,-0.045,0.010
5797,-0.055,0.015
5798,-0.055,0.045
5799,-0.075,0.045
5800,-0.060,0.050
5801,-0.070,0.045
5802,-0.075,0.035
5803,-0.065,0.045
5804,-0.055,0.070
5805,-0.095,0.055
5806,-0.165,-0.010
5807,0.025,-0.130
5808,0.380,-0.215
5809,0.775,-0.290
5810,0.795,-0.280
5811,0.360,-0.120
5812,-0.085,0.115
5813,-0.255,0.185
5814,-0.205,0.135
5815,-0.095,0.075
5816,-0.050,0.065
5817,-0.020,0.050
5818,-0.010,0.050
5819,-0.005,0.050
5820,0.000,0.035
5821,0.000,0.025
5822,0.000,0.030
5823,0.000,0.040
5824,0.000,0.035
5825,0.005,0.020
5826,0.010,0.010
5827,0.005,0.010
5828,0.015,0.025
5829,0.025,0.015
5830,0.035,0.000
5831,0.040,-0.020
5832,0.045,-0.040
5833,0.055,-0.025
5834,0.060,-0.025
5835,0.075,-0.055
5836,0.080,-0.075
5837,0.100,-0.085
5838,0.100,-0.095
5839,0.100,-0.105
5840,0.100,-0.155
5841,0.110,-0.180
5842,0.095,-0.220
5843,0.090,-0.230
5844,0.045,-0.225
5845,0.035,-0.220
5846,0.010,-0.210
5847,0.005,-0.150
5848,-0.015,-0.090
5849,-0.040,-0.060
5850,-0.075,-0.035
5851,-0.100,0.000
5852,-0.115,0.030
5853,-0.130,0.045
5854,-0.135,0.040
5855,-0.125,0.035
5856,-0.125,0.030
5857,-0.125,0.040
5858,-0.110,0.045
5859,-0.115,0.050
5860,-0.115,0.070
5861,-0.105,0.090
5862,-0.075,0.100
5863,-0.070,0.070
5864,-0.080,0.060
5865,-0.085,0.050
5866,-0.080,0.030
5867,-0.075,0.040
5868,-0.065,0.035
5869,-0.065,0.020
5870,-0.070,0.035
5871,-0.070,0.050
5872,-0.085,0.060
5873,-0.085,0.080
5874,-0.090,0.080
5875,-0.085,0.075
5876,-0.095,0.060
5877,-0.090,0.025
5878,-0.090,0.000
5879,-0.100,0.020
5880,-0.095,0.045
5881,-0.095,0.050
5882,-0.095,0.035
5883,-0.095,0.030
5884,-0.095,0.050
5885,-0.090,0.035
5886,-0.080,0.030
5887,-0.080,0.030
5888,-0.080,0.065
5889,-0.095,0.065
5890,-0.080,0.030
5891,-0.085,0.020
5892,-0.055,0.000
5893,-0.065,0.000
5894,-0.075,0.025
5895,-0.105,0.030
5896,-0.100,0.010
5897,-0.110,0.000
5898,-0.100,-0.015
5899,-0.105,-0.025
5900,-0.115,-0.010
5901,-0.105,0.000
5902,-0.085,0.005
5903,-0.085,0.015
5904,-0.080,0.060
5905,-0.085,0.050
5906,-0.090,0.010
5907,-0.080,0.020
5908,-0.080,0.050
5909,-0.080,0.045
5910,-0.085,0.015
5911,-0.120,0.000
5912,-0.125,-0.030
5913,0.060,-0.115
5914,0.425,-0.245
5915,0.735,-0.345
5916,0.710,-0.320
5917,0.280,-0.135
5918,-0.105,0.075
5919,-0.245,0.170
5920,-0.155,0.115
5921,-0.040,0.085
5922,0.000,0.085
5923,-0.015,0.045
5924,-0.010,0.025
5925,-0.005,0.030
5926,0.000,0.050
5927,0.000,0.045
5928,0.000,0.030
5929,0.000,0.040
5930,0.005,0.040
5931,0.015,0.040
5932,0.025,0.015
5933,0.035,0.015
5934,0.035,0.015
5935,0.035,0.000
5936,0.040,0.000
5937,0.055,0.000
5938,0.060,-0.015
5939,0.070,-0.020
5940,0.075,-0.045
5941,0.090,-0.065
5942,0.085,-0.060
5943,0.100,-0.070
5944,0.120,-0.105
5945,0.135,-0.145
5946,0.125,-0.185
5947,0.115,-0.205
5948,0.105,-0.220
5949,0.100,-0.240
5950,0.080,-0.250
5951,0.060,-0.230
5952,0.040,-0.195
5953,0.015,-0.165
5954,-0.005,-0.120
5955,-0.025,-0.050
5956,-0.040,0.000
5957,-0.045,-0.005
5958,-0.045,-0.015
5959,-0.070,0.005
5960,-0.075,0.020
5961,-0.065,0.045
5962,-0.055,0.040
5963,-0.040,0.035
5964,-0.040,0.070
5965,-0.050,0.090
5966,-0.050,0.085
5967,-0.050,0.075
5968,-0.055,0.065
5969,-0.035,0.065
5970,-0.030,0.065
5971,-0.025,0.070
5972,-0.030,0.080
5973,-0.015,0.075
5974,-0.025,0.055
5975,-0.030,0.060
5976,-0.035,0.070
5977,-0.015,0.055
5978,-0.025,0.030
5979,-0.025,0.035
5980,-0.015,0.065
5981,-0.015,0.055
5982,-0.040,0.055
5983,-0.030,0.070
5984,-0.025,0.065
5985,-0.030,0.065
5986,-0.035,0.055
5987,-0.020,0.065
5988,-0.005,0.050
5989,0.000,0.045
5990,-0.010,0.050
5991,-0.020,0.065
5992,-0.010,0.065
5993,0.000,0.050
5994,0.000,0.045
5995,0.000,0.050
5996,0.000,0.055
5997,0.000,0.060
5998,0.000,0.050
5999,-0.005,0.035
6000,-0.020,0.005
6001,-0.030,0.000
6002,-0.045,0.000
6003,-0.030,0.015
6004,-0.035,0.040
6005,-0.040,0.015
6006,-0.020,0.000
6007,0.000,0.005
6008,-0.010,0.035
6009,-0.015,0.055
6010,-0.025,0.050
6011,0.000,0.070
6012,0.000,0.070
6013,0.000,0.040
6014,0.000,0.050
6015,-0.020,0.045
6016,-0.090,-0.005
6017,-0.030,-0.070
6018,0.255,-0.145
6019,0.635,-0.265
6020,0.950,-0.315
6021,0.680,-0.165
6022,0.155,0.035
6023,-0.160,0.215
6024,-0.170,0.210
6025,-0.090,0.155
6026,-0.005,0.080
6027,0.020,0.050
6028,0.035,0.060
6029,0.040,0.055
6030,0.050,0.030
6031,0.055,0.035
6032,0.065,0.040
6033,0.065,0.045
6034,0.065,0.055
6035,0.080,0.050
6036,0.100,0.030
6037,0.115,0.005
6038,0.120,0.000
6039,0.130,0.010
6040,0.140,0.020
6041,0.145,0.000
6042,0.140,-0.010
6043,0.140,-0.020
6044,0.165,-0.040
6045,0.175,-0.065
6046,0.185,-0.065
6047,0.190,-0.080
6048,0.205,-0.090
6049,0.210,-0.110
6050,0.220,-0.145
6051,0.205,-0.195
6052,0.210,-0.205
6053,0.185,-0.225
6054,0.170,-0.220
6055,0.140,-0.195
6056,0.135,-0.215
6057,0.105,-0.205
6058,0.060,-0.140
6059,0.030,-0.075
6060,0.000,-0.050
6061,0.000,-0.020
6062,-0.010,0.000
6063,-0.035,0.035
6064,-0.040,0.030
6065,-0.025,0.040
6066,-0.025,0.045
6067,-0.025,0.060
6068,-0.040,0.065
6069,-0.035,0.055
6070,-0.035,0.030
6071,-0.020,0.025
6072,-0.025,0.045
6073,-0.015,0.065
6074,-0.015,0.075
6075,-0.015,0.075
6076,-0.015,0.055
6077,-0.005,0.030
6078,-0.005,0.045
6079,0.000,0.065
6080,-0.005,0.065
6081,-0.005,0.060
6082,-0.005,0.055
6083,-0.005,0.045
6084,-0.015,0.025
6085,-0.030,0.025
6086,-0.030,0.045
6087,-0.030,0.045
6088,-0.030,0.055
6089,-0.025,0.060
6090,-0.025,0.040
6091,-0.025,0.065
6092,-0.040,0.065
6093,-0.045,0.030
6094,-0.040,0.000
6095,-0.040,0.010
6096,-0.045,0.040
6097,-0.035,0.065
6098,-0.050,0.060
6099,-0.045,0.025
6100,-0.050,0.025
6101,-0.045,0.025
6102,-0.050,0.030
6103,-0.055,0.035
6104,-0.065,0.000
6105,-0.070,-0.010
6106,-0.090,0.000
6107,-0.080,0.000
6108,-0.090,0.005
6109,-0.115,-0.020
6110,-0.100,-0.020
6111,-0.070,-0.005
6112,-0.075,0.015
6113,-0.070,0.040
6114,-0.060,0.035
6115,-0.080,0.050
6116,-0.095,0.055
6117,-0.090,0.050
6118,-0.070,0.045
6119,-0.070,0.040
6120,-0.115,0.020
6121,-0.140,-0.040
6122,0.030,-0.140
6123,0.385,-0.235
6124,0.740,-0.295
6125,0.760,-0.280
6126,0.355,-0.135
6127,-0.065,0.065
6128,-0.240,0.145
6129,-0.190,0.085
6130,-0.090,0.065
6131,-0.025,0.080
6132,-0.010,0.095
6133,0.000,0.045
6134,0.000,0.010
6135,0.000,0.000
6136,0.000,0.010
6137,0.000,0.030
6138,0.000,0.045
6139,0.000,0.040
6140,0.000,0.005
6141,0.010,0.005
6142,0.020,0.005
6143,0.030,0.010
6144,0.025,0.065
6145,0.030,0.010
6146,0.055,-0.055
6147,0.050,-0.050
6148,0.065,-0.055
6149,0.060,-0.045
6150,0.075,-0.045
6151,0.080,-0.045
6152,0.095,-0.105
6153,0.100,-0.135
6154,0.120,-0.140
6155,0.110,-0.145
6156,0.105,-0.160
6157,0.085,-0.170
6158,0.085,-0.205
6159,0.070,-0.260
6160,0.055,-0.260
6161,0.030,-0.220
6162,0.005,-0.170
6163,-0.005,-0.120
6164,-0.035,-0.075
6165,-0.065,-0.035
6166,-0.090,-0.010
6167,-0.110,0.005
6168,-0.120,0.030
6169,-0.120,0.040
6170,-0.115,0.050
6171,-0.105,0.065
6172,-0.095,0.040
6173,-0.090,0.025
6174,-0.085,0.050
6175,-0.075,0.060
6176,-0.070,0.025
6177,-0.075,0.025
6178,-0.055,0.025
6179,-0.055,0.030
6180,-0.055,0.055
6181,-0.075,0.055
6182,-0.060,0.025
6183,-0.075,0.055
6184,-0.055,0.075
6185,-0.060,0.040
6186,-0.060,0.045
6187,-0.060,0.040
6188,-0.055,0.040
6189,-0.060,0.045
6190,-0.065,0.015
6191,-0.065,0.020
6192,-0.070,0.040
6193,-0.075,0.030
6194,-0.080,0.030
6195,-0.085,0.045
6196,-0.095,0.070
6197,-0.090,0.055
6198,-0.090,0.030
6199,-0.080,0.020
6200,-0.085,0.015
6201,-0.080,0.015
6202,-0.085,0.035
6203,-0.080,0.050
6204,-0.070,0.025
6205,-0.055,0.015
6206,-0.065,0.020
6207,-0.065,0.025
6208,-0.075,0.025
6209,-0.090,0.015
6210,-0.105,0.005
6211,-0.105,0.000
6212,-0.095,-0.005
6213,-0.090,-0.020
6214,-0.100,-0.010
6215,-0.110,-0.005
6216,-0.095,-0.010
6217,-0.090,0.005
6218,-0.085,0.020
6219,-0.080,0.020
6220,-0.090,0.025
6221,-0.090,0.030
6222,-0.085,0.030
6223,-0.065,0.050
6224,-0.065,0.030
6225,-0.080,0.025
6226,-0.160,-0.005
6227,0.000,-0.100
6228,0.350,-0.275
6229,0.755,-0.380
6230,0.790,-0.360
6231,0.350,-0.175
6232,-0.095,0.070
6233,-0.230,0.170
6234,-0.160,0.105
6235,-0.040,0.075
6236,0.000,0.050
6237,0.000,0.050
6238,0.000,0.065
6239,0.000,0.035
6240,0.000,0.005
6241,0.000,0.025
6242,0.005,0.045
6243,0.010,0.040
6244,0.005,0.030
6245,0.005,0.025
6246,0.010,0.030
6247,0.025,0.025
6248,0.040,0.010
6249,0.040,0.000
6250,0.050,-0.005
6251,0.060,-0.010
6252,0.060,-0.015
6253,0.060,-0.020
6254,0.075,-0.045
6255,0.100,-0.060
6256,0.100,-0.070
6257,0.100,-0.085
6258,0.105,-0.120
6259,0.115,-0.145
6260,0.115,-0.185
6261,0.120,-0.200
6262,0.100,-0.200
6263,0.090,-0.225
6264,0.070,-0.240
6265,0.065,-0.235
6266,0.030,-0.210
6267,0.015,-0.170
6268,0.000,-0.130
6269,-0.005,-0.100
6270,-0.030,-0.075
6271,-0.055,-0.030
6272,-0.065,0.025
6273,-0.065,0.060
6274,-0.065,0.070
6275,-0.075,0.005
6276,-0.060,0.025
6277,-0.065,0.060
6278,-0.055,0.065
6279,-0.065,0.065
6280,-0.040,0.055
6281,-0.035,0.050
6282,-0.035,0.050
6283,-0.050,0.050
6284,-0.050,0.085
6285,-0.035,0.105
6286,-0.020,0.095
6287,-0.020,0.080
6288,-0.040,0.055
6289,-0.050,0.045
6290,-0.040,0.055
6291,-0.025,0.045
6292,-0.020,0.045
6293,-0.030,0.065
6294,-0.030,0.060
6295,-0.020,0.050
6296,-0.040,0.075
6297,-0.045,0.090
6298,-0.030,0.050
6299,-0.020,0.035
6300,-0.020,0.050
6301,-0.025,0.060
6302,-0.020,0.050
6303,-0.035,0.045
6304,-0.035,0.035
6305,-0.035,0.045
6306,-0.030,0.065
6307,-0.020,0.070
6308,0.000,0.080
6309,-0.010,0.050
6310,-0.010,0.040
6311,0.000,0.005
6312,0.000,0.000
6313,-0.020,0.015
6314,-0.025,0.005
6315,-0.050,0.045
6316,-0.035,0.015
6317,-0.025,0.000
6318,-0.045,0.000
6319,-0.050,0.015
6320,-0.025,0.020
6321,-0.025,0.020
6322,-0.025,0.020
6323,-0.025,0.040
6324,-0.015,0.045
6325,-0.015,0.060
6326,-0.025,0.050
6327,-0.005,0.055
6328,-0.010,0.080
6329,-0.030,0.045
6330,-0.105,-0.020
6331,-0.015,-0.090
6332,0.280,-0.155
6333,0.650,-0.245
6334,0.855,-0.280
6335,0.620,-0.160
6336,0.145,0.055
6337,-0.150,0.200
6338,-0.185,0.190
6339,-0.090,0.110
6340,0.000,0.070
6341,0.035,0.065
6342,0.035,0.075
6343,0.035,0.085
6344,0.045,0.050
6345,0.060,0.050
6346,0.060,0.045
6347,0.060,0.040
6348,0.060,0.030
6349,0.065,0.045
6350,0.085,0.035
6351,0.080,0.000
6352,0.075,0.000
6353,0.075,0.000
6354,0.085,0.005
6355,0.130,0.005
6356,0.130,0.005
6357,0.135,-0.030
6358,0.135,-0.050
6359,0.160,-0.055
6360,0.150,-0.025
6361,0.195,-0.060
6362,0.200,-0.105
6363,0.210,-0.140
6364,0.215,-0.170
6365,0.205,-0.185
6366,0.185,-0.190
6367,0.175,-0.190
6368,0.165,-0.205
6369,0.145,-0.225
6370,0.125,-0.210
6371,0.100,-0.175
6372,0.065,-0.125
6373,0.030,-0.070
6374,0.010,-0.035
6375,0.000,-0.015
6376,-0.015,0.005
6377,-0.040,0.045
6378,-0.040,0.045
6379,-0.035,0.025
6380,-0.040,0.035
6381,-0.040,0.060
6382,-0.045,0.060
6383,-0.040,0.065
6384,-0.035,0.090
6385,-0.015,0.075
6386,-0.015,0.040
6387,-0.025,0.035
6388,-0.025,0.060
6389,-0.015,0.055
6390,-0.025,0.065
6391,-0.015,0.065
6392,-0.010,0.045
6393,-0.005,0.030
6394,-0.005,0.035
6395,-0.005,0.055
6396,-0.035,0.110
6397,-0.015,0.075
6398,-0.010,0.025
6399,-0.015,0.025
6400,-0.015,0.025
6401,-0.015,0.050
6402,-0.020,0.055
6403,-0.025,0.045
6404,-0.015,0.055
6405,-0.015,0.055
6406,-0.020,0.040
6407,-0.035,0.025
6408,-0.030,0.035
6409,-0.040,0.065
6410,-0.035,0.065
6411,-0.030,0.045
6412,-0.015,0.025
6413,-0.025,0.025
6414,-0.035,0.035
6415,-0.030,0.020
6416,-0.020,0.005
6417,-0.040,0.000
6418,-0.065,0.005
6419,-0.085,0.010
6420,-0.085,0.010
6421,-0.080,0.000
6422,-0.090,0.000
6423,-0.090,0.005
6424,-0.080,0.005
6425,-0.080,0.015
6426,-0.085,0.060
6427,-0.095,0.065
6428,-0.095,0.030
6429,-0.095,0.025
6430,-0.090,0.025
6431,-0.090,0.040
6432,-0.090,0.055
6433,-0.110,0.040
6434,-0.150,-0.020
6435,-0.030,-0.090
6436,0.340,-0.200
6437,0.705,-0.275
6438,0.865,-0.290
6439,0.455,-0.185
6440,-0.025,0.040
6441,-0.290,0.185
6442,-0.240,0.170
6443,-0.125,0.080
6444,-0.045,0.035
6445,-0.035,0.050
6446,-0.010,0.045
6447,-0.010,0.060
6448,-0.005,0.040
6449,0.000,0.035
6450,0.000,0.025
6451,0.000,0.000
6452,0.000,0.000
6453,0.000,0.010
6454,0.000,0.000
6455,0.000,0.010
6456,0.010,0.005
6457,0.025,0.000
6458,0.025,0.000
6459,0.040,-0.005
6460,0.045,-0.010
6461,0.050,-0.025
6462,0.060,-0.040
6463,0.075,-0.045
6464,0.090,-0.070
6465,0.095,-0.105
6466,0.110,-0.120
6467,0.110,-0.145
6468,0.105,-0.160
6469,0.100,-0.160
6470,0.090,-0.175
6471,0.080,-0.225
6472,0.065,-0.240
6473,0.040,-0.210
6474,0.025,-0.215
6475,0.000,-0.180
6476,-0.015,-0.125
6477,-0.040,-0.075
6478,-0.055,-0.055
6479,-0.075,-0.030
6480,-0.120,0.000
6481,-0.125,0.015
6482,-0.140,0.040
6483,-0.140,0.035
6484,-0.135,0.050
6485,-0.120,0.055
6486,-0.120,0.070
6487,-0.105,0.060
6488,-0.125,0.040
6489,-0.110,0.050
6490,-0.110,0.050
6491,-0.080,0.030
6492,-0.070,0.025
6493,-0.075,0.045
6494,-0.080,0.050
6495,-0.080,0.060
6496,-0.095,0.055
6497,-0.085,0.030
6498,-0.080,0.030
6499,-0.085,0.040
6500,-0.090,0.045
6501,-0.090,0.035
6502,-0.090,0.035
6503,-0.090,0.030
6504,-0.080,0.040
6505,-0.090,0.075
6506,-0.095,0.065
6507,-0.095,0.025
6508,-0.090,0.020
6509,-0.085,0.035
6510,-0.090,0.020
6511,-0.095,0.015
6512,-0.105,0.055
6513,-0.100,0.055
6514,-0.085,0.020
6515,-0.060,0.005
6516,-0.070,0.030
6517,-0.080,0.045
6518,-0.070,0.030
6519,-0.055,0.025
6520,-0.055,0.015
6521,-0.055,0.010
6522,-0.080,0.005
6523,-0.080,0.000
6524,-0.110,0.000
6525,-0.110,0.010
6526,-0.095,-0.005
6527,-0.095,-0.020
6528,-0.095,-0.030
6529,-0.080,-0.010
6530,-0.080,0.010
6531,-0.095,0.035
6532,-0.080,0.025
6533,-0.080,0.025
6534,-0.080,0.035
6535,-0.080,0.045
6536,-0.060,0.050
6537,-0.075,0.055
6538,-0.110,0.010
6539,-0.135,-0.045
6540,0.080,-0.130
6541,0.440,-0.250
6542,0.775,-0.375
6543,0.675,-0.335
6544,0.245,-0.135
6545,-0.115,0.080
6546,-0.220,0.155
6547,-0.145,0.115
6548,-0.055,0.080
6549,-0.015,0.075
6550,-0.005,0.065
6551,0.000,0.045
6552,0.000,0.030
6553,0.000,0.030
6554,0.000,0.035
6555,0.005,0.025
6556,0.015,0.030
6557,0.015,0.035
6558,0.025,0.030
6559,0.025,0.025
6560,0.030,0.000
6561,0.025,0.000
6562,0.040,0.010
6563,0.045,0.000
6564,0.060,0.000
6565,0.070,-0.025
6566,0.100,-0.030
6567,0.090,-0.020
6568,0.090,-0.060
6569,0.100,-0.095
6570,0.125,-0.110
6571,0.120,-0.140
6572,0.130,-0.145
6573,0.115,-0.170
6574,0.115,-0.175
6575,0.110,-0.205
6576,0.100,-0.225
6577,0.075,-0.230
6578,0.075,-0.220
6579,0.055,-0.210
6580,0.020,-0.170
6581,0.000,-0.110
6582,-0.015,-0.060
6583,-0.035,-0.050
6584,-0.050,-0.040
6585,-0.055,0.000
6586,-0.080,0.035
6587,-0.095,0.030
6588,-0.100,0.025
6589,-0.090,0.020
6590,-0.070,0.030
6591,-0.060,0.050
6592,-0.060,0.070
6593,-0.065,0.065
6594,-0.060,0.040
6595,-0.055,0.050
6596,-0.055,0.075
6597,-0.050,0.065
6598,-0.045,0.055
6599,-0.040,0.075
6600,-0.030,0.075
6601,-0.035,0.075
6602,-0.035,0.060
6603,-0.035,0.025
6604,-0.055,0.035
6605,-0.055,0.070
6606,-0.045,0.055
6607,-0.045,0.035
6608,-0.060,0.050
6609,-0.055,0.080
6610,-0.050,0.055
6611,-0.050,0.045
6612,-0.050,0.020
6613,-0.035,0.020
6614,-0.050,0.075
6615,-0.055,0.100
6616,-0.060,0.065
6617,-0.045,0.035
6618,-0.060,0.020
6619,-0.055,0.035
6620,-0.055,0.040
6621,-0.050,0.040
6622,-0.050,0.040
6623,-0.030,0.045
6624,-0.015,0.040
6625,-0.015,0.045
6626,-0.030,0.050
6627,-0.025,0.035
6628,-0.025,0.030
6629,-0.035,0.020
6630,-0.050,0.005
6631,-0.060,0.010
6632,-0.065,0.025
6633,-0.065,0.025
6634,-0.060,0.035
6635,-0.050,0.045
6636,-0.040,0.035
6637,-0.030,0.015
6638,-0.015,0.005
6639,-0.015,0.005
6640,-0.030,0.020
6641,-0.030,0.035
6642,-0.025,0.035
6643,-0.020,0.045
6644,-0.035,0.045
6645,-0.070,0.020
6646,-0.080,-0.040
6647,0.155,-0.135
6648,0.520,-0.240
6649,0.865,-0.325
6650,0.740,-0.235
6651,0.225,0.005
6652,-0.125,0.170
6653,-0.170,0.160
6654,-0.085,0.090
6655,-0.005,0.045
6656,0.025,0.040
6657,0.055,0.045
6658,0.035,0.060
6659,0.045,0.055
6660,0.065,0.050
6661,0.070,0.050
6662,0.075,0.050
6663,0.070,0.055
6664,0.075,0.050
6665,0.080,0.040
6666,0.095,0.030
6667,0.085,0.040
6668,0.105,0.090
6669,0.095,0.090
6670,0.120,0.010
6671,0.135,-0.060
6672,0.140,-0.075
6673,0.140,-0.075
6674,0.145,-0.080
6675,0.150,-0.075
6676,0.165,-0.085
6677,0.190,-0.095
6678,0.200,-0.110
6679,0.195,-0.130
6680,0.195,-0.145
6681,0.190,-0.145
6682,0.180,-0.155
6683,0.165,-0.215
6684,0.160,-0.250
6685,0.130,-0.235
6686,0.100,-0.205
6687,0.085,-0.150
6688,0.045,-0.100
6689,0.000,-0.050
6690,0.000,-0.010
6691,0.000,0.015
6692,-0.020,0.040
6693,-0.010,0.055
6694,0.000,0.055
6695,-0.035,0.085
6696,-0.020,0.140
6697,-0.030,0.130
6698,0.000,0.020
6699,0.000,0.005
6700,0.000,0.025
6701,0.000,0.035
6702,0.000,0.065
6703,0.000,0.065
6704,0.000,0.070
6705,0.000,0.080
6706,0.000,0.085
6707,0.000,0.075
6708,0.000,0.075
6709,0.000,0.080
6710,0.000,0.075
6711,0.015,0.075
6712,0.015,0.060
6713,0.010,0.080
6714,0.015,0.085
6715,0.025,0.055
6716,0.010,0.045
6717,0.000,0.065
6718,0.000,0.050
6719,0.010,0.025
6720,0.020,0.020
6721,0.015,0.020
6722,0.005,0.045
6723,0.000,0.070
6724,0.000,0.075
6725,0.000,0.075
6726,0.000,0.080
6727,0.005,0.080
6728,0.010,0.070
6729,0.015,0.035
6730,0.040,0.000
6731,0.010,0.000
6732,0.010,0.020
6733,0.030,0.030
6734,0.015,0.010
6735,-0.005,0.020
6736,-0.005,0.020
6737,0.000,0.005
6738,-0.005,0.000
6739,0.000,0.005
6740,0.000,0.005
6741,0.000,0.030
6742,0.000,0.040
6743,0.005,0.045
6744,-0.005,0.060
6745,0.010,0.080
6746,0.000,0.080
6747,0.000,0.030
6748,0.000,0.005
6749,0.005,0.045
6750,-0.005,0.060
6751,-0.060,0.010
6752,0.025,-0.080
6753,0.345,-0.150
6754,0.715,-0.230
6755,0.940,-0.240
6756,0.680,-0.115
6757,0.185,0.070
6758,-0.120,0.200
6759,-0.165,0.185
6760,-0.085,0.110
6761,0.000,0.065
6762,0.050,0.050
6763,0.065,0.050
6764,0.060,0.050
6765,0.060,0.045
6766,0.065,0.040
6767,0.070,0.050
6768,0.075,0.045
6769,0.100,0.005
6770,0.100,0.000
6771,0.095,0.015
6772,0.090,0.030
6773,0.110,0.010
6774,0.105,-0.005
6775,0.120,-0.015
6776,0.120,-0.015
6777,0.140,-0.030
6778,0.140,-0.030
6779,0.160,-0.040
