'sample interval','ECG0','ECG1'
'0.0078125 sec','mV','mV'
0,-0.095,-0.115
1,-0.105,-0.105
2,-0.105,-0.095
3,-0.095,-0.115
4,-0.125,-0.105
5,-0.115,-0.095
6,-0.115,-0.095
7,-0.105,-0.105
8,-0.095,-0.105
9,-0.115,-0.085
10,-0.125,-0.095
11,-0.105,-0.095
12,-0.105,-0.105
13,-0.115,-0.085
14,-0.115,-0.105
15,-0.125,-0.115
16,-0.125,-0.125
17,-0.115,-0.105
18,-0.125,-0.125
19,-0.125,-0.135
20,-0.115,-0.135
21,-0.125,-0.125
22,-0.135,-0.125
23,-0.125,-0.145
24,-0.125,-0.145
25,-0.115,-0.135
26,-0.135,-0.145
27,-0.145,-0.155
28,-0.125,-0.135
29,-0.145,-0.145
30,-0.135,-0.155
31,-0.095,-0.155
32,-0.065,-0.115
33,-0.005,-0.045
34,0.005,-0.065
35,-0.055,-0.115
36,-0.065,-0.115
37,-0.105,-0.145
38,-0.115,-0.145
39,-0.145,-0.155
40,-0.145,-0.175
41,-0.125,-0.145
42,-0.145,-0.145
43,-0.145,-0.155
44,-0.135,-0.165
45,-0.155,-0.155
46,-0.135,-0.145
47,-0.135,-0.145
48,-0.125,-0.145
49,-0.095,-0.145
50,-0.095,-0.115
51,-0.075,-0.125
52,-0.255,-0.025
53,-0.425,0.045
54,-0.045,0.465
55,0.985,-0.035
56,2.065,-0.875
57,1.195,-0.925
58,-0.235,-0.935
59,-0.565,-0.635
60,-0.405,-0.345
61,-0.215,-0.135
62,-0.085,-0.015
63,-0.095,-0.035
64,-0.115,-0.055
65,-0.105,-0.035
66,-0.115,-0.025
67,-0.115,-0.035
68,-0.105,-0.025
69,-0.125,-0.015
70,-0.105,-0.015
71,-0.115,-0.015
72,-0.095,-0.015
73,-0.075,0.015
74,-0.075,0.005
75,-0.075,0.005
76,-0.045,0.005
77,-0.055,0.025
78,-0.035,0.035
79,-0.025,0.025
80,-0.015,0.035
81,0.015,0.065
82,0.025,0.065
83,0.045,0.065
84,0.065,0.075
85,0.095,0.095
86,0.135,0.105
87,0.155,0.105
88,0.205,0.115
89,0.235,0.135
90,0.265,0.145
91,0.305,0.135
92,0.335,0.145
93,0.365,0.165
94,0.385,0.165
95,0.375,0.155
96,0.345,0.155
97,0.255,0.135
98,0.175,0.095
99,0.105,0.045
100,0.005,0.015
101,-0.025,-0.015
102,-0.075,-0.025
103,-0.115,-0.075
104,-0.125,-0.075
105,-0.145,-0.075
106,-0.155,-0.085
107,-0.165,-0.095
108,-0.175,-0.085
109,-0.175,-0.075
110,-0.165,-0.075
111,-0.165,-0.075
112,-0.155,-0.075
113,-0.155,-0.055
114,-0.165,-0.065
115,-0.175,-0.065
116,-0.175,-0.065
117,-0.175,-0.045
118,-0.165,-0.065
119,-0.175,-0.075
120,-0.185,-0.075
121,-0.165,-0.065
122,-0.175,-0.075
123,-0.195,-0.105
124,-0.185,-0.095
125,-0.205,-0.095
126,-0.205,-0.095
127,-0.195,-0.115
128,-0.195,-0.095
129,-0.195,-0.105
130,-0.205,-0.105
131,-0.205,-0.125
132,-0.215,-0.115
133,-0.215,-0.105
134,-0.205,-0.105
135,-0.205,-0.125
136,-0.205,-0.125
137,-0.195,-0.105
138,-0.185,-0.105
139,-0.195,-0.125
140,-0.205,-0.125
141,-0.195,-0.115
142,-0.135,-0.065
143,-0.085,-0.035
144,-0.085,-0.065
145,-0.135,-0.085
146,-0.155,-0.085
147,-0.175,-0.115
148,-0.195,-0.115
149,-0.205,-0.115
150,-0.205,-0.115
151,-0.215,-0.125
152,-0.215,-0.125
153,-0.215,-0.115
154,-0.215,-0.115
155,-0.215,-0.125
156,-0.205,-0.115
157,-0.205,-0.115
158,-0.205,-0.095
159,-0.185,-0.115
160,-0.155,-0.095
161,-0.285,-0.005
162,-0.495,0.055
163,-0.155,0.485
164,0.675,-0.065
165,1.775,-0.915
166,1.355,-1.025
167,-0.115,-1.025
168,-0.635,-0.775
169,-0.505,-0.345
170,-0.285,-0.105
171,-0.165,0.015
172,-0.175,0.005
173,-0.205,0.005
174,-0.185,-0.005
175,-0.205,0.005
176,-0.195,0.005
177,-0.185,0.025
178,-0.185,0.015
179,-0.195,0.015
180,-0.185,0.025
181,-0.185,0.035
182,-0.175,0.045
183,-0.165,0.025
184,-0.155,0.045
185,-0.155,0.065
186,-0.135,0.065
187,-0.125,0.055
188,-0.125,0.065
189,-0.105,0.085
190,-0.085,0.095
191,-0.065,0.085
192,-0.035,0.095
193,-0.015,0.125
194,0.005,0.125
195,0.025,0.125
196,0.065,0.145
197,0.095,0.165
198,0.145,0.175
199,0.185,0.175
200,0.215,0.175
201,0.265,0.195
202,0.295,0.195
203,0.325,0.195
204,0.335,0.195
205,0.345,0.205
206,0.305,0.195
207,0.235,0.155
208,0.175,0.115
209,0.085,0.095
210,0.015,0.035
211,-0.055,-0.005
212,-0.085,-0.035
213,-0.135,-0.045
214,-0.155,-0.075
215,-0.175,-0.095
216,-0.175,-0.095
217,-0.175,-0.085
218,-0.185,-0.095
219,-0.205,-0.105
220,-0.185,-0.085
221,-0.195,-0.085
222,-0.185,-0.065
223,-0.195,-0.085
224,-0.185,-0.075
225,-0.175,-0.075
226,-0.185,-0.065
227,-0.195,-0.065
228,-0.185,-0.075
229,-0.205,-0.065
230,-0.185,-0.065
231,-0.175,-0.045
232,-0.155,-0.035
233,-0.175,-0.065
234,-0.185,-0.085
235,-0.185,-0.085
236,-0.195,-0.095
237,-0.195,-0.105
238,-0.215,-0.105
239,-0.205,-0.095
240,-0.195,-0.105
241,-0.195,-0.125
242,-0.185,-0.115
243,-0.195,-0.115
244,-0.195,-0.125
245,-0.185,-0.125
246,-0.205,-0.115
247,-0.195,-0.115
248,-0.195,-0.125
249,-0.195,-0.125
250,-0.185,-0.105
251,-0.185,-0.115
252,-0.185,-0.125
253,-0.205,-0.125
254,-0.185,-0.105
255,-0.185,-0.115
256,-0.175,-0.115
257,-0.165,-0.115
258,-0.175,-0.115
259,-0.175,-0.125
260,-0.175,-0.125
261,-0.175,-0.115
262,-0.165,-0.105
263,-0.165,-0.125
264,-0.155,-0.115
265,-0.155,-0.105
266,-0.165,-0.115
267,-0.155,-0.135
268,-0.165,-0.115
269,-0.155,-0.115
270,-0.155,-0.125
271,-0.145,-0.125
272,-0.135,-0.115
273,-0.145,-0.105
274,-0.145,-0.115
275,-0.135,-0.125
276,-0.145,-0.115
277,-0.135,-0.105
278,-0.135,-0.115
279,-0.145,-0.125
280,-0.115,-0.105
281,-0.135,-0.105
282,-0.135,-0.115
283,-0.125,-0.115
284,-0.145,-0.105
285,-0.125,-0.105
286,-0.125,-0.095
287,-0.125,-0.115
288,-0.115,-0.105
289,-0.125,-0.105
290,-0.125,-0.105
291,-0.115,-0.115
292,-0.135,-0.105
293,-0.115,-0.105
294,-0.115,-0.105
295,-0.115,-0.115
296,-0.115,-0.105
297,-0.105,-0.095
298,-0.115,-0.095
299,-0.125,-0.105
300,-0.105,-0.105
301,-0.115,-0.095
302,-0.105,-0.095
303,-0.105,-0.095
304,-0.095,-0.105
305,-0.085,-0.105
306,-0.105,-0.105
307,-0.075,-0.115
308,-0.035,-0.095
309,0.015,-0.005
310,0.055,0.015
311,-0.015,-0.075
312,-0.035,-0.085
313,-0.055,-0.095
314,-0.085,-0.095
315,-0.105,-0.105
316,-0.115,-0.115
317,-0.125,-0.115
318,-0.125,-0.105
319,-0.115,-0.105
320,-0.125,-0.115
321,-0.105,-0.095
322,-0.105,-0.085
323,-0.105,-0.095
324,-0.075,-0.095
325,-0.205,-0.015
326,-0.395,0.045
327,-0.145,0.355
328,0.615,0.245
329,1.785,-0.795
330,1.295,-0.995
331,-0.135,-1.025
332,-0.545,-0.765
333,-0.405,-0.315
334,-0.175,-0.105
335,-0.095,0.015
336,-0.105,-0.005
337,-0.105,0.005
338,-0.125,0.005
339,-0.125,-0.005
340,-0.125,-0.005
341,-0.115,0.015
342,-0.115,0.015
343,-0.115,0.005
344,-0.105,0.015
345,-0.095,0.035
346,-0.095,0.025
347,-0.085,0.005
348,-0.095,0.025
349,-0.075,0.035
350,-0.065,0.035
351,-0.045,0.035
352,-0.025,0.055
353,-0.015,0.055
354,-0.015,0.055
355,0.015,0.055
356,0.025,0.075
357,0.055,0.095
358,0.085,0.095
359,0.115,0.095
360,0.155,0.115
361,0.185,0.125
362,0.225,0.125
363,0.265,0.135
364,0.295,0.145
365,0.345,0.155
366,0.375,0.165
367,0.415,0.165
368,0.455,0.175
369,0.445,0.175
370,0.435,0.165
371,0.385,0.145
372,0.295,0.115
373,0.245,0.105
374,0.165,0.055
375,0.095,0.015
376,0.045,-0.015
377,-0.015,-0.035
378,-0.055,-0.065
379,-0.085,-0.095
380,-0.095,-0.095
381,-0.105,-0.095
382,-0.105,-0.095
383,-0.125,-0.115
384,-0.125,-0.105
385,-0.115,-0.095
386,-0.115,-0.085
387,-0.115,-0.095
388,-0.105,-0.095
389,-0.125,-0.085
390,-0.115,-0.085
391,-0.125,-0.085
392,-0.115,-0.105
393,-0.115,-0.095
394,-0.125,-0.095
395,-0.125,-0.105
396,-0.125,-0.115
397,-0.135,-0.125
398,-0.135,-0.115
399,-0.135,-0.115
400,-0.135,-0.135
401,-0.125,-0.135
402,-0.135,-0.125
403,-0.135,-0.145
404,-0.145,-0.145
405,-0.165,-0.155
406,-0.145,-0.135
407,-0.145,-0.145
408,-0.145,-0.155
409,-0.135,-0.165
410,-0.155,-0.145
411,-0.155,-0.155
412,-0.145,-0.155
413,-0.165,-0.165
414,-0.145,-0.145
415,-0.145,-0.155
416,-0.145,-0.155
417,-0.145,-0.155
418,-0.145,-0.145
419,-0.155,-0.155
420,-0.145,-0.155
421,-0.155,-0.155
422,-0.135,-0.145
423,-0.145,-0.145
424,-0.135,-0.165
425,-0.125,-0.145
426,-0.135,-0.145
427,-0.145,-0.145
428,-0.135,-0.155
429,-0.145,-0.135
430,-0.125,-0.135
431,-0.135,-0.145
432,-0.125,-0.155
433,-0.105,-0.135
434,-0.115,-0.145
435,-0.125,-0.155
436,-0.105,-0.135
437,-0.125,-0.135
438,-0.115,-0.125
439,-0.115,-0.145
440,-0.105,-0.145
441,-0.085,-0.115
442,-0.105,-0.125
443,-0.115,-0.145
444,-0.095,-0.145
445,-0.045,-0.125
446,0.025,-0.035
447,0.055,-0.035
448,0.015,-0.095
449,-0.035,-0.105
450,-0.065,-0.125
451,-0.085,-0.145
452,-0.115,-0.135
453,-0.115,-0.135
454,-0.115,-0.135
455,-0.125,-0.155
456,-0.105,-0.145
457,-0.105,-0.125
458,-0.115,-0.135
459,-0.115,-0.145
460,-0.105,-0.135
461,-0.095,-0.115
462,-0.065,-0.115
463,-0.245,-0.025
464,-0.375,0.005
465,-0.005,0.455
466,0.915,-0.065
467,1.895,-0.875
468,1.165,-0.965
469,-0.215,-1.035
470,-0.535,-0.735
471,-0.375,-0.345
472,-0.155,-0.125
473,-0.075,0.005
474,-0.085,-0.015
475,-0.105,-0.045
476,-0.135,-0.025
477,-0.105,-0.015
478,-0.105,-0.015
479,-0.095,-0.015
480,-0.085,-0.005
481,-0.095,0.005
482,-0.095,0.015
483,-0.095,-0.005
484,-0.105,0.005
485,-0.085,0.015
486,-0.065,0.025
487,-0.045,0.015
488,-0.035,0.035
489,-0.025,0.035
490,-0.015,0.045
491,-0.015,0.035
492,0.005,0.035
493,0.015,0.065
494,0.045,0.065
495,0.055,0.065
496,0.085,0.075
497,0.125,0.095
498,0.145,0.105
499,0.175,0.105
500,0.225,0.115
501,0.265,0.145
502,0.305,0.135
503,0.335,0.135
504,0.385,0.145
505,0.425,0.155
506,0.455,0.175
507,0.455,0.155
508,0.465,0.165
509,0.405,0.165
510,0.335,0.145
511,0.255,0.085
512,0.175,0.055
513,0.105,0.015
514,0.035,-0.015
515,-0.035,-0.065
516,-0.065,-0.095
517,-0.085,-0.095
518,-0.095,-0.095
519,-0.115,-0.115
520,-0.105,-0.115
521,-0.105,-0.105
522,-0.115,-0.115
523,-0.135,-0.125
524,-0.165,-0.115
525,-0.145,-0.105
526,-0.125,-0.095
527,-0.135,-0.105
528,-0.105,-0.095
529,-0.115,-0.095
530,-0.115,-0.105
531,-0.115,-0.105
532,-0.125,-0.115
533,-0.125,-0.095
534,-0.115,-0.105
535,-0.115,-0.125
536,-0.115,-0.125
537,-0.125,-0.115
538,-0.135,-0.125
539,-0.135,-0.145
540,-0.135,-0.135
541,-0.115,-0.125
542,-0.125,-0.125
543,-0.125,-0.145
544,-0.115,-0.135
545,-0.125,-0.145
546,-0.125,-0.135
547,-0.125,-0.145
548,-0.155,-0.135
549,-0.135,-0.135
550,-0.115,-0.135
551,-0.125,-0.145
552,-0.115,-0.135
553,-0.115,-0.135
554,-0.125,-0.125
555,-0.115,-0.145
556,-0.115,-0.145
557,-0.125,-0.135
558,-0.115,-0.135
559,-0.075,-0.145
560,-0.015,-0.085
561,0.045,-0.025
562,0.025,-0.075
563,-0.035,-0.115
564,-0.035,-0.115
565,-0.085,-0.135
566,-0.095,-0.135
567,-0.135,-0.155
568,-0.125,-0.155
569,-0.095,-0.145
570,-0.115,-0.135
571,-0.125,-0.155
572,-0.115,-0.155
573,-0.125,-0.145
574,-0.125,-0.125
575,-0.115,-0.145
576,-0.105,-0.125
577,-0.065,-0.115
578,-0.125,-0.085
579,-0.405,-0.015
580,-0.285,0.155
581,0.405,0.495
582,1.555,-0.415
583,1.935,-0.905
584,0.475,-0.955
585,-0.435,-0.875
586,-0.505,-0.595
587,-0.315,-0.275
588,-0.125,-0.095
589,-0.075,-0.005
590,-0.075,-0.025
591,-0.085,-0.045
592,-0.095,-0.035
593,-0.095,-0.025
594,-0.085,-0.025
595,-0.095,-0.025
596,-0.075,-0.025
597,-0.075,-0.005
598,-0.075,-0.005
599,-0.065,-0.005
600,-0.055,-0.005
601,-0.035,0.015
602,-0.025,0.015
603,-0.015,0.015
604,-0.025,0.015
605,0.005,0.035
606,0.025,0.035
607,0.025,0.025
608,0.055,0.045
609,0.075,0.065
610,0.105,0.065
611,0.125,0.065
612,0.145,0.085
613,0.185,0.095
614,0.235,0.105
615,0.265,0.095
616,0.325,0.125
617,0.345,0.125
618,0.375,0.135
619,0.425,0.125
620,0.435,0.135
621,0.485,0.145
622,0.495,0.135
623,0.465,0.145
624,0.415,0.145
625,0.325,0.135
626,0.245,0.085
627,0.155,0.045
628,0.065,0.005
629,0.015,-0.005
630,-0.015,-0.055
631,-0.065,-0.075
632,-0.065,-0.075
633,-0.085,-0.075
634,-0.105,-0.085
635,-0.115,-0.095
636,-0.105,-0.085
637,-0.125,-0.085
638,-0.115,-0.075
639,-0.125,-0.095
640,-0.125,-0.085
641,-0.105,-0.075
642,-0.125,-0.065
643,-0.135,-0.095
644,-0.105,-0.085
645,-0.125,-0.075
646,-0.125,-0.085
647,-0.125,-0.105
648,-0.125,-0.095
649,-0.115,-0.095
650,-0.125,-0.095
651,-0.135,-0.105
652,-0.125,-0.115
653,-0.145,-0.105
654,-0.135,-0.105
655,-0.125,-0.115
656,-0.125,-0.115
657,-0.125,-0.115
658,-0.135,-0.125
659,-0.105,-0.135
660,-0.075,-0.105
661,-0.045,-0.035
662,-0.005,-0.025
663,-0.045,-0.095
664,-0.075,-0.085
665,-0.105,-0.115
666,-0.135,-0.125
667,-0.155,-0.155
668,-0.145,-0.145
669,-0.155,-0.145
670,-0.155,-0.125
671,-0.155,-0.145
672,-0.155,-0.145
673,-0.145,-0.135
674,-0.155,-0.125
675,-0.145,-0.145
676,-0.125,-0.135
677,-0.125,-0.115
678,-0.095,-0.105
679,-0.195,-0.065
680,-0.445,0.025
681,-0.225,0.295
682,0.585,0.385
683,1.775,-0.665
684,1.745,-0.955
685,0.065,-0.985
686,-0.555,-0.735
687,-0.505,-0.445
688,-0.275,-0.195
689,-0.125,-0.015
690,-0.115,-0.015
691,-0.145,-0.045
692,-0.155,-0.035
693,-0.135,-0.015
694,-0.125,-0.025
695,-0.135,-0.015
696,-0.115,-0.005
697,-0.125,0.005
698,-0.125,0.005
699,-0.125,-0.005
700,-0.115,0.005
701,-0.105,0.025
702,-0.095,0.035
703,-0.075,0.015
704,-0.065,0.025
705,-0.055,0.045
706,-0.045,0.045
707,-0.035,0.035
708,-0.035,0.055
709,0.005,0.065
710,0.015,0.085
711,0.035,0.075
712,0.055,0.095
713,0.085,0.105
714,0.115,0.115
715,0.145,0.115
716,0.185,0.125
717,0.215,0.145
718,0.255,0.145
719,0.285,0.145
720,0.315,0.155
721,0.355,0.175
722,0.365,0.175
723,0.355,0.175
724,0.335,0.165
725,0.245,0.155
726,0.175,0.125
727,0.095,0.075
728,0.015,0.035
729,-0.035,0.015
730,-0.085,-0.025
731,-0.135,-0.065
732,-0.145,-0.075
733,-0.175,-0.085
734,-0.175,-0.075
735,-0.185,-0.095
736,-0.185,-0.085
737,-0.175,-0.075
738,-0.185,-0.065
739,-0.195,-0.085
740,-0.185,-0.075
741,-0.195,-0.065
742,-0.185,-0.065
743,-0.185,-0.065
744,-0.185,-0.065
745,-0.175,-0.065
746,-0.175,-0.065
747,-0.195,-0.075
748,-0.185,-0.085
749,-0.215,-0.075
750,-0.195,-0.085
751,-0.195,-0.085
752,-0.195,-0.095
753,-0.185,-0.085
754,-0.195,-0.085
755,-0.215,-0.105
756,-0.205,-0.125
757,-0.185,-0.105
758,-0.105,-0.015
759,-0.065,-0.025
760,-0.125,-0.075
761,-0.165,-0.085
762,-0.185,-0.115
763,-0.205,-0.135
764,-0.215,-0.125
765,-0.235,-0.125
766,-0.235,-0.125
767,-0.245,-0.145
768,-0.235,-0.135
769,-0.225,-0.125
770,-0.235,-0.125
771,-0.235,-0.145
772,-0.235,-0.135
773,-0.215,-0.115
774,-0.215,-0.115
775,-0.185,-0.125
776,-0.235,-0.045
777,-0.455,0.035
778,-0.335,0.285
779,0.325,0.325
780,1.445,-0.845
781,1.515,-1.095
782,0.105,-1.035
783,-0.605,-0.805
784,-0.525,-0.355
785,-0.345,-0.145
786,-0.205,-0.005
787,-0.205,-0.005
788,-0.235,-0.025
789,-0.225,-0.015
790,-0.215,-0.015
791,-0.225,-0.015
792,-0.215,-0.005
793,-0.215,0.015
794,-0.215,0.005
795,-0.215,0.005
796,-0.225,0.005
797,-0.205,0.025
798,-0.185,0.035
799,-0.185,0.025
800,-0.165,0.035
801,-0.155,0.055
802,-0.155,0.055
803,-0.145,0.045
804,-0.125,0.065
805,-0.115,0.075
806,-0.095,0.085
807,-0.075,0.075
808,-0.055,0.095
809,-0.025,0.115
810,0.005,0.115
811,0.015,0.125
812,0.065,0.135
813,0.095,0.155
814,0.135,0.165
815,0.175,0.165
816,0.215,0.165
817,0.265,0.185
818,0.285,0.185
819,0.305,0.185
820,0.325,0.185
821,0.275,0.185
822,0.225,0.155
823,0.145,0.105
824,0.065,0.065
825,-0.005,0.035
826,-0.065,-0.005
827,-0.135,-0.055
828,-0.165,-0.075
829,-0.195,-0.085
830,-0.215,-0.095
831,-0.205,-0.125
832,-0.215,-0.115
833,-0.205,-0.105
834,-0.215,-0.095
835,-0.225,-0.115
836,-0.215,-0.105
837,-0.225,-0.095
838,-0.215,-0.095
839,-0.215,-0.095
840,-0.215,-0.095
841,-0.195,-0.075
842,-0.215,-0.085
843,-0.215,-0.095
844,-0.195,-0.085
845,-0.225,-0.085
846,-0.205,-0.095
847,-0.215,-0.105
848,-0.205,-0.115
849,-0.205,-0.105
850,-0.215,-0.105
851,-0.215,-0.115
852,-0.205,-0.125
853,-0.215,-0.125
854,-0.185,-0.125
855,-0.145,-0.085
856,-0.085,-0.035
857,-0.085,-0.055
858,-0.155,-0.105
859,-0.195,-0.145
860,-0.205,-0.145
861,-0.235,-0.145
862,-0.245,-0.145
863,-0.255,-0.175
864,-0.255,-0.155
865,-0.235,-0.155
866,-0.245,-0.155
867,-0.245,-0.165
868,-0.235,-0.165
869,-0.245,-0.155
870,-0.235,-0.155
871,-0.225,-0.165
872,-0.215,-0.145
873,-0.185,-0.135
874,-0.235,-0.075
875,-0.495,-0.025
876,-0.335,0.215
877,0.275,0.465
878,1.305,-0.655
879,1.805,-1.085
880,0.495,-1.015
881,-0.585,-0.965
882,-0.615,-0.555
883,-0.405,-0.245
884,-0.205,-0.085
885,-0.195,-0.025
886,-0.205,-0.045
887,-0.215,-0.065
888,-0.215,-0.055
889,-0.205,-0.025
890,-0.205,-0.035
891,-0.215,-0.045
892,-0.205,-0.035
893,-0.215,-0.015
894,-0.195,-0.015
895,-0.195,-0.025
896,-0.185,-0.015
897,-0.165,-0.005
898,-0.155,0.005
899,-0.165,-0.005
900,-0.135,0.005
901,-0.135,0.025
902,-0.115,0.035
903,-0.105,0.015
904,-0.085,0.035
905,-0.055,0.045
906,-0.035,0.055
907,-0.025,0.045
908,0.025,0.065
909,0.045,0.085
910,0.085,0.095
911,0.105,0.085
912,0.145,0.095
913,0.205,0.125
914,0.225,0.125
915,0.255,0.115
916,0.305,0.125
917,0.315,0.145
918,0.325,0.145
919,0.295,0.125
920,0.235,0.115
921,0.175,0.095
922,0.095,0.055
923,0.015,-0.005
924,-0.045,-0.045
925,-0.105,-0.065
926,-0.145,-0.085
927,-0.175,-0.115
928,-0.175,-0.135
929,-0.175,-0.125
930,-0.195,-0.125
931,-0.205,-0.145
932,-0.195,-0.135
933,-0.215,-0.125
934,-0.195,-0.125
935,-0.205,-0.125
936,-0.195,-0.125
937,-0.185,-0.105
938,-0.195,-0.105
939,-0.205,-0.115
940,-0.195,-0.115
941,-0.195,-0.105
942,-0.195,-0.105
943,-0.195,-0.115
944,-0.195,-0.135
945,-0.185,-0.115
946,-0.195,-0.135
947,-0.215,-0.145
948,-0.195,-0.145
949,-0.215,-0.135
950,-0.205,-0.155
951,-0.215,-0.165
952,-0.205,-0.155
953,-0.215,-0.155
954,-0.205,-0.155
955,-0.215,-0.165
956,-0.235,-0.165
957,-0.225,-0.155
958,-0.215,-0.155
959,-0.215,-0.155
960,-0.205,-0.165
961,-0.195,-0.165
962,-0.185,-0.165
963,-0.115,-0.085
964,-0.075,-0.065
965,-0.115,-0.135
966,-0.175,-0.145
967,-0.175,-0.165
968,-0.175,-0.145
969,-0.205,-0.155
970,-0.225,-0.165
971,-0.225,-0.185
972,-0.225,-0.165
973,-0.225,-0.165
974,-0.225,-0.165
975,-0.215,-0.175
976,-0.205,-0.165
977,-0.205,-0.155
978,-0.205,-0.165
979,-0.195,-0.165
980,-0.185,-0.155
981,-0.165,-0.135
982,-0.275,-0.055
983,-0.485,-0.015
984,-0.255,0.345
985,0.515,0.215
986,1.595,-0.785
987,1.595,-1.075
988,0.255,-1.065
989,-0.595,-0.935
990,-0.585,-0.535
991,-0.365,-0.255
992,-0.195,-0.095
993,-0.135,-0.025
994,-0.175,-0.055
995,-0.185,-0.065
996,-0.185,-0.065
997,-0.195,-0.045
998,-0.185,-0.035
999,-0.195,-0.045
1000,-0.175,-0.035
1001,-0.175,-0.035
1002,-0.175,-0.025
1003,-0.165,-0.015
1004,-0.155,-0.025
1005,-0.165,-0.015
1006,-0.145,-0.005
1007,-0.135,0.005
1008,-0.115,-0.005
1009,-0.095,0.005
1010,-0.095,0.025
1011,-0.075,0.015
1012,-0.065,0.015
1013,-0.065,0.025
1014,-0.045,0.055
1015,-0.015,0.055
1016,0.015,0.045
1017,0.045,0.065
1018,0.085,0.095
1019,0.125,0.095
1020,0.155,0.095
1021,0.175,0.115
1022,0.235,0.125
1023,0.275,0.115
1024,0.305,0.115
1025,0.355,0.145
1026,0.375,0.155
1027,0.345,0.135
1028,0.305,0.135
1029,0.225,0.115
1030,0.155,0.085
1031,0.085,0.035
1032,0.015,-0.005
1033,-0.035,-0.035
1034,-0.075,-0.065
1035,-0.125,-0.085
1036,-0.125,-0.105
1037,-0.155,-0.105
1038,-0.145,-0.105
1039,-0.155,-0.115
1040,-0.155,-0.115
1041,-0.145,-0.095
1042,-0.155,-0.095
1043,-0.165,-0.105
1044,-0.145,-0.095
1045,-0.155,-0.085
1046,-0.145,-0.095
1047,-0.155,-0.095
1048,-0.155,-0.095
1049,-0.155,-0.085
1050,-0.145,-0.095
1051,-0.165,-0.115
1052,-0.165,-0.125
1053,-0.155,-0.105
1054,-0.165,-0.115
1055,-0.165,-0.135
1056,-0.145,-0.135
1057,-0.155,-0.135
1058,-0.165,-0.135
1059,-0.165,-0.155
1060,-0.185,-0.145
1061,-0.175,-0.145
1062,-0.165,-0.135
1063,-0.175,-0.155
1064,-0.165,-0.145
1065,-0.165,-0.145
1066,-0.175,-0.145
1067,-0.165,-0.155
1068,-0.165,-0.145
1069,-0.165,-0.135
1070,-0.165,-0.135
1071,-0.175,-0.155
1072,-0.165,-0.155
1073,-0.155,-0.135
1074,-0.155,-0.135
1075,-0.145,-0.155
1076,-0.155,-0.155
1077,-0.155,-0.155
1078,-0.115,-0.145
1079,-0.065,-0.085
1080,-0.015,-0.055
1081,-0.015,-0.085
1082,-0.085,-0.125
1083,-0.115,-0.125
1084,-0.105,-0.135
1085,-0.135,-0.145
1086,-0.135,-0.145
1087,-0.145,-0.165
1088,-0.155,-0.155
1089,-0.145,-0.135
1090,-0.155,-0.135
1091,-0.145,-0.145
1092,-0.135,-0.145
1093,-0.135,-0.135
1094,-0.125,-0.125
1095,-0.135,-0.135
1096,-0.105,-0.125
1097,-0.085,-0.095
1098,-0.295,-0.005
1099,-0.415,0.035
1100,-0.035,0.465
1101,0.915,-0.015
1102,1.925,-0.785
1103,1.255,-0.895
1104,-0.125,-1.035
1105,-0.555,-0.735
1106,-0.425,-0.375
1107,-0.215,-0.145
1108,-0.085,-0.015
1109,-0.105,-0.015
1110,-0.115,-0.035
1111,-0.115,-0.045
1112,-0.115,-0.035
1113,-0.095,-0.015
1114,-0.095,-0.005
1115,-0.115,-0.025
1116,-0.105,-0.015
1117,-0.105,-0.005
1118,-0.085,-0.005
1119,-0.065,-0.005
1120,-0.065,-0.005
1121,-0.045,0.015
1122,-0.045,0.015
1123,-0.045,0.015
1124,-0.025,0.025
1125,-0.015,0.045
1126,0.005,0.055
1127,0.015,0.045
1128,0.035,0.055
1129,0.065,0.065
1130,0.085,0.065
1131,0.105,0.065
1132,0.155,0.075
1133,0.175,0.095
1134,0.215,0.105
1135,0.255,0.095
1136,0.285,0.105
1137,0.335,0.125
1138,0.365,0.125
1139,0.385,0.115
1140,0.455,0.125
1141,0.455,0.145
1142,0.455,0.145
1143,0.405,0.145
1144,0.335,0.135
1145,0.275,0.115
1146,0.195,0.085
1147,0.115,0.035
1148,0.075,0.005
1149,0.005,-0.015
1150,-0.015,-0.035
1151,-0.035,-0.065
1152,-0.045,-0.055
1153,-0.065,-0.065
1154,-0.065,-0.055
1155,-0.085,-0.065
1156,-0.065,-0.065
1157,-0.085,-0.045
1158,-0.075,-0.035
1159,-0.095,-0.045
1160,-0.085,-0.035
1161,-0.065,-0.025
1162,-0.085,-0.035
1163,-0.095,-0.055
1164,-0.075,-0.055
1165,-0.095,-0.045
1166,-0.075,-0.055
1167,-0.095,-0.065
1168,-0.085,-0.075
1169,-0.085,-0.065
1170,-0.095,-0.075
1171,-0.105,-0.095
1172,-0.085,-0.095
1173,-0.105,-0.085
1174,-0.095,-0.095
1175,-0.105,-0.105
1176,-0.095,-0.105
1177,-0.095,-0.095
1178,-0.095,-0.115
1179,-0.095,-0.125
1180,-0.055,-0.105
1181,0.005,-0.015
1182,0.045,-0.025
1183,-0.005,-0.085
1184,-0.035,-0.085
1185,-0.055,-0.105
1186,-0.095,-0.115
1187,-0.115,-0.145
1188,-0.135,-0.125
1189,-0.125,-0.125
1190,-0.105,-0.125
1191,-0.105,-0.135
1192,-0.095,-0.135
1193,-0.105,-0.125
1194,-0.125,-0.125
1195,-0.115,-0.135
1196,-0.115,-0.115
1197,-0.105,-0.105
1198,-0.085,-0.105
1199,-0.055,-0.115
1200,-0.185,-0.025
1201,-0.415,0.035
1202,-0.185,0.365
1203,0.625,0.365
1204,1.825,-0.665
1205,1.715,-0.915
1206,0.135,-0.995
1207,-0.525,-0.755
1208,-0.455,-0.435
1209,-0.255,-0.175
1210,-0.095,-0.035
1211,-0.065,-0.015
1212,-0.105,-0.035
1213,-0.095,-0.025
1214,-0.095,-0.015
1215,-0.095,-0.015
1216,-0.085,-0.005
1217,-0.085,-0.005
1218,-0.075,0.015
1219,-0.065,-0.005
1220,-0.075,0.015
1221,-0.075,0.015
1222,-0.045,0.015
1223,-0.035,0.005
1224,-0.025,0.015
1225,-0.015,0.025
1226,0.005,0.035
1227,0.015,0.025
1228,0.015,0.045
1229,0.035,0.055
1230,0.045,0.055
1231,0.075,0.055
1232,0.105,0.065
1233,0.125,0.095
1234,0.155,0.085
1235,0.165,0.085
1236,0.205,0.095
1237,0.265,0.115
1238,0.295,0.115
1239,0.315,0.115
1240,0.375,0.115
1241,0.415,0.135
1242,0.435,0.135
1243,0.435,0.125
1244,0.425,0.135
1245,0.395,0.155
1246,0.345,0.135
1247,0.265,0.105
1248,0.195,0.085
1249,0.125,0.055
1250,0.045,0.015
1251,-0.005,-0.025
1252,-0.035,-0.045
1253,-0.055,-0.045
1254,-0.065,-0.045
1255,-0.095,-0.065
1256,-0.075,-0.065
1257,-0.075,-0.055
1258,-0.085,-0.055
1259,-0.095,-0.065
1260,-0.065,-0.055
1261,-0.075,-0.045
1262,-0.085,-0.055
1263,-0.085,-0.055
1264,-0.075,-0.065
1265,-0.075,-0.045
1266,-0.065,-0.055
1267,-0.095,-0.075
1268,-0.075,-0.065
1269,-0.105,-0.065
1270,-0.095,-0.065
1271,-0.105,-0.075
1272,-0.085,-0.075
1273,-0.085,-0.075
1274,-0.095,-0.075
1275,-0.095,-0.095
1276,-0.095,-0.095
1277,-0.095,-0.095
1278,-0.095,-0.105
1279,-0.105,-0.115
1280,-0.075,-0.115
1281,-0.035,-0.075
1282,0.005,-0.015
1283,0.025,-0.025
1284,-0.025,-0.085
1285,-0.065,-0.085
1286,-0.075,-0.105
1287,-0.105,-0.115
1288,-0.125,-0.135
1289,-0.125,-0.125
1290,-0.115,-0.125
1291,-0.135,-0.125
1292,-0.125,-0.145
1293,-0.145,-0.125
1294,-0.125,-0.115
1295,-0.125,-0.125
1296,-0.115,-0.135
1297,-0.105,-0.125
1298,-0.105,-0.105
1299,-0.095,-0.115
1300,-0.075,-0.115
1301,-0.195,-0.035
1302,-0.425,0.055
1303,-0.215,0.325
1304,0.605,0.325
1305,1.805,-0.725
1306,1.625,-0.955
1307,-0.005,-1.005
1308,-0.565,-0.705
1309,-0.455,-0.365
1310,-0.245,-0.135
1311,-0.115,-0.015
1312,-0.115,-0.025
1313,-0.125,-0.025
1314,-0.135,-0.025
1315,-0.145,-0.035
1316,-0.145,-0.015
1317,-0.145,-0.005
1318,-0.125,0.005
1319,-0.135,-0.005
1320,-0.125,0.005
1321,-0.115,0.015
1322,-0.115,0.015
1323,-0.105,0.005
1324,-0.115,0.015
1325,-0.105,0.025
1326,-0.085,0.035
1327,-0.075,0.025
1328,-0.045,0.035
1329,-0.045,0.055
1330,-0.025,0.065
1331,-0.015,0.065
1332,0.005,0.075
1333,0.015,0.095
1334,0.055,0.095
1335,0.075,0.095
1336,0.105,0.105
1337,0.145,0.125
1338,0.175,0.135
1339,0.195,0.125
1340,0.245,0.145
1341,0.255,0.145
1342,0.295,0.155
1343,0.315,0.135
1344,0.325,0.145
1345,0.315,0.145
1346,0.255,0.145
1347,0.185,0.105
1348,0.125,0.065
1349,0.045,0.035
1350,-0.005,0.005
1351,-0.065,-0.035
1352,-0.105,-0.065
1353,-0.125,-0.075
1354,-0.145,-0.085
1355,-0.165,-0.105
1356,-0.165,-0.105
1357,-0.185,-0.095
1358,-0.165,-0.095
1359,-0.185,-0.095
1360,-0.175,-0.095
1361,-0.155,-0.075
1362,-0.165,-0.075
1363,-0.175,-0.085
1364,-0.165,-0.075
1365,-0.175,-0.075
1366,-0.165,-0.065
1367,-0.165,-0.085
1368,-0.165,-0.085
1369,-0.155,-0.075
1370,-0.165,-0.085
1371,-0.185,-0.105
1372,-0.175,-0.095
1373,-0.185,-0.095
1374,-0.185,-0.105
1375,-0.195,-0.125
1376,-0.195,-0.125
1377,-0.175,-0.115
1378,-0.195,-0.125
1379,-0.205,-0.135
1380,-0.205,-0.125
1381,-0.205,-0.115
1382,-0.195,-0.115
1383,-0.205,-0.145
1384,-0.205,-0.145
1385,-0.185,-0.125
1386,-0.195,-0.125
1387,-0.195,-0.145
1388,-0.205,-0.125
1389,-0.195,-0.125
1390,-0.185,-0.135
1391,-0.185,-0.145
1392,-0.105,-0.065
1393,-0.075,-0.045
1394,-0.095,-0.085
1395,-0.145,-0.125
1396,-0.165,-0.125
1397,-0.165,-0.125
1398,-0.175,-0.135
1399,-0.205,-0.145
1400,-0.195,-0.145
1401,-0.205,-0.135
1402,-0.205,-0.135
1403,-0.205,-0.145
1404,-0.215,-0.145
1405,-0.205,-0.135
1406,-0.195,-0.135
1407,-0.195,-0.155
1408,-0.175,-0.135
1409,-0.175,-0.115
1410,-0.145,-0.125
1411,-0.305,-0.025
1412,-0.485,0.035
1413,-0.145,0.475
1414,0.745,-0.215
1415,1.795,-1.015
1416,1.305,-1.055
1417,-0.125,-1.035
1418,-0.625,-0.775
1419,-0.495,-0.365
1420,-0.265,-0.135
1421,-0.165,-0.005
1422,-0.155,-0.025
1423,-0.185,-0.055
1424,-0.195,-0.045
1425,-0.185,-0.025
1426,-0.185,-0.025
1427,-0.195,-0.025
1428,-0.165,-0.025
1429,-0.185,-0.005
1430,-0.175,-0.005
1431,-0.175,-0.015
1432,-0.165,-0.005
1433,-0.145,0.005
1434,-0.145,0.015
1435,-0.145,0.005
1436,-0.125,0.005
1437,-0.125,0.005
1438,-0.105,0.035
1439,-0.105,0.025
1440,-0.085,0.025
1441,-0.055,0.045
1442,-0.045,0.065
1443,-0.035,0.075
1444,-0.005,0.065
1445,-0.005,0.075
1446,0.045,0.095
1447,0.075,0.095
1448,0.115,0.095
1449,0.155,0.115
1450,0.195,0.125
1451,0.225,0.135
1452,0.265,0.125
1453,0.295,0.135
1454,0.325,0.145
1455,0.355,0.145
1456,0.345,0.135
1457,0.305,0.125
1458,0.235,0.115
1459,0.155,0.075
1460,0.085,0.025
1461,-0.005,-0.005
1462,-0.045,-0.035
1463,-0.095,-0.075
1464,-0.115,-0.095
1465,-0.115,-0.105
1466,-0.145,-0.115
1467,-0.165,-0.125
1468,-0.155,-0.125
1469,-0.175,-0.115
1470,-0.165,-0.105
1471,-0.165,-0.115
1472,-0.155,-0.115
1473,-0.145,-0.095
1474,-0.155,-0.095
1475,-0.165,-0.115
1476,-0.155,-0.105
1477,-0.165,-0.095
1478,-0.155,-0.095
1479,-0.165,-0.105
1480,-0.165,-0.105
1481,-0.145,-0.105
1482,-0.155,-0.115
1483,-0.165,-0.135
1484,-0.165,-0.135
1485,-0.175,-0.125
1486,-0.165,-0.135
1487,-0.165,-0.145
1488,-0.165,-0.145
1489,-0.155,-0.135
1490,-0.165,-0.145
1491,-0.165,-0.155
1492,-0.175,-0.155
1493,-0.165,-0.135
1494,-0.165,-0.155
1495,-0.175,-0.155
1496,-0.155,-0.155
1497,-0.165,-0.145
1498,-0.155,-0.155
1499,-0.165,-0.155
1500,-0.165,-0.155
1501,-0.165,-0.135
1502,-0.155,-0.155
1503,-0.165,-0.165
1504,-0.155,-0.145
1505,-0.155,-0.145
1506,-0.165,-0.135
1507,-0.165,-0.155
1508,-0.145,-0.145
1509,-0.155,-0.145
1510,-0.145,-0.135
1511,-0.155,-0.155
1512,-0.145,-0.135
1513,-0.135,-0.135
1514,-0.145,-0.135
1515,-0.145,-0.155
1516,-0.135,-0.145
1517,-0.155,-0.125
1518,-0.135,-0.135
1519,-0.145,-0.145
1520,-0.145,-0.135
1521,-0.135,-0.125
1522,-0.135,-0.135
1523,-0.145,-0.135
1524,-0.135,-0.135
1525,-0.145,-0.125
1526,-0.135,-0.125
1527,-0.135,-0.135
1528,-0.135,-0.135
1529,-0.135,-0.125
1530,-0.135,-0.125
1531,-0.135,-0.145
1532,-0.135,-0.135
1533,-0.135,-0.125
1534,-0.125,-0.115
1535,-0.125,-0.135
1536,-0.125,-0.125
1537,-0.115,-0.115
1538,-0.125,-0.125
1539,-0.125,-0.135
1540,-0.125,-0.125
1541,-0.125,-0.125
1542,-0.115,-0.105
1543,-0.115,-0.125
1544,-0.115,-0.125
1545,-0.105,-0.125
1546,-0.085,-0.125
1547,-0.015,-0.065
1548,0.025,-0.025
1549,-0.005,-0.065
1550,-0.045,-0.085
1551,-0.075,-0.115
1552,-0.095,-0.115
1553,-0.095,-0.105
1554,-0.125,-0.125
1555,-0.135,-0.135
1556,-0.125,-0.135
1557,-0.145,-0.115
1558,-0.145,-0.115
1559,-0.145,-0.135
1560,-0.145,-0.125
1561,-0.125,-0.105
1562,-0.115,-0.105
1563,-0.095,-0.115
1564,-0.235,-0.015
1565,-0.415,0.035
1566,-0.075,0.495
1567,0.805,-0.235
1568,1.815,-0.975
1569,1.255,-0.975
1570,-0.145,-1.035
1571,-0.575,-0.745
1572,-0.415,-0.315
1573,-0.225,-0.105
1574,-0.105,0.015
1575,-0.125,-0.025
1576,-0.135,-0.025
1577,-0.135,-0.015
1578,-0.145,-0.015
1579,-0.155,-0.015
1580,-0.145,-0.005
1581,-0.145,0.005
1582,-0.145,0.005
1583,-0.135,0.005
1584,-0.125,0.005
1585,-0.115,0.015
1586,-0.125,0.025
1587,-0.115,0.015
1588,-0.105,0.025
1589,-0.105,0.035
1590,-0.075,0.025
1591,-0.075,0.025
1592,-0.065,0.035
1593,-0.045,0.055
1594,-0.035,0.055
1595,-0.025,0.055
1596,0.015,0.065
1597,0.015,0.075
1598,0.045,0.095
1599,0.085,0.085
1600,0.115,0.105
1601,0.165,0.115
1602,0.195,0.125
1603,0.215,0.115
1604,0.265,0.125
1605,0.295,0.135
1606,0.335,0.145
1607,0.365,0.135
1608,0.395,0.145
1609,0.415,0.155
1610,0.365,0.145
1611,0.315,0.125
1612,0.255,0.095
1613,0.155,0.065
1614,0.095,0.035
1615,0.025,-0.005
1616,-0.015,-0.045
1617,-0.055,-0.055
1618,-0.085,-0.075
1619,-0.125,-0.095
1620,-0.125,-0.105
1621,-0.155,-0.105
1622,-0.145,-0.085
1623,-0.155,-0.095
1624,-0.145,-0.095
1625,-0.135,-0.095
1626,-0.155,-0.075
1627,-0.155,-0.095
1628,-0.155,-0.085
1629,-0.175,-0.095
1630,-0.155,-0.075
1631,-0.155,-0.095
1632,-0.155,-0.095
1633,-0.145,-0.095
1634,-0.155,-0.085
1635,-0.165,-0.105
1636,-0.165,-0.115
1637,-0.175,-0.125
1638,-0.175,-0.115
1639,-0.165,-0.135
1640,-0.165,-0.145
1641,-0.155,-0.125
1642,-0.175,-0.135
1643,-0.185,-0.145
1644,-0.175,-0.155
1645,-0.195,-0.135
1646,-0.175,-0.135
1647,-0.185,-0.135
1648,-0.185,-0.145
1649,-0.175,-0.125
1650,-0.175,-0.135
1651,-0.185,-0.145
1652,-0.175,-0.145
1653,-0.185,-0.135
1654,-0.185,-0.135
1655,-0.195,-0.155
1656,-0.185,-0.155
1657,-0.165,-0.135
1658,-0.175,-0.145
1659,-0.185,-0.155
1660,-0.185,-0.145
1661,-0.185,-0.135
1662,-0.175,-0.135
1663,-0.165,-0.155
1664,-0.155,-0.145
1665,-0.155,-0.135
1666,-0.165,-0.135
1667,-0.155,-0.145
1668,-0.185,-0.135
1669,-0.175,-0.135
1670,-0.155,-0.135
1671,-0.155,-0.145
1672,-0.145,-0.135
1673,-0.145,-0.135
1674,-0.155,-0.135
1675,-0.145,-0.135
1676,-0.155,-0.145
1677,-0.145,-0.125
1678,-0.145,-0.135
1679,-0.145,-0.135
1680,-0.135,-0.135
1681,-0.125,-0.115
1682,-0.125,-0.125
1683,-0.135,-0.135
1684,-0.125,-0.125
1685,-0.135,-0.115
1686,-0.125,-0.135
1687,-0.135,-0.135
1688,-0.095,-0.135
1689,-0.035,-0.055
1690,0.035,-0.015
1691,0.015,-0.075
1692,-0.035,-0.095
1693,-0.075,-0.105
1694,-0.095,-0.115
1695,-0.115,-0.135
1696,-0.135,-0.125
1697,-0.115,-0.125
1698,-0.135,-0.125
1699,-0.145,-0.145
1700,-0.135,-0.125
1701,-0.135,-0.125
1702,-0.125,-0.115
1703,-0.135,-0.125
1704,-0.115,-0.115
1705,-0.085,-0.105
1706,-0.125,-0.065
1707,-0.375,-0.005
1708,-0.335,0.125
1709,0.235,0.485
1710,1.325,-0.425
1711,1.895,-0.935
1712,0.555,-0.975
1713,-0.455,-0.895
1714,-0.525,-0.535
1715,-0.335,-0.245
1716,-0.145,-0.065
1717,-0.095,0.015
1718,-0.105,-0.015
1719,-0.105,-0.025
1720,-0.105,-0.025
1721,-0.105,0.005
1722,-0.105,-0.005
1723,-0.115,-0.015
1724,-0.095,-0.005
1725,-0.105,0.015
1726,-0.095,0.015
1727,-0.095,-0.005
1728,-0.085,0.015
1729,-0.065,0.025
1730,-0.055,0.035
1731,-0.045,0.015
1732,-0.035,0.025
1733,-0.045,0.035
1734,-0.015,0.055
1735,-0.005,0.025
1736,0.005,0.055
1737,0.045,0.065
1738,0.065,0.075
1739,0.075,0.065
1740,0.115,0.075
1741,0.135,0.095
1742,0.175,0.105
1743,0.205,0.095
1744,0.245,0.105
1745,0.305,0.125
1746,0.345,0.125
1747,0.375,0.115
1748,0.425,0.125
1749,0.435,0.145
1750,0.465,0.145
1751,0.455,0.135
1752,0.415,0.135
1753,0.355,0.145
1754,0.265,0.095
1755,0.165,0.045
1756,0.115,0.025
1757,0.055,-0.005
1758,0.005,-0.035
1759,-0.035,-0.065
1760,-0.055,-0.075
1761,-0.075,-0.085
1762,-0.075,-0.085
1763,-0.095,-0.105
1764,-0.095,-0.095
1765,-0.105,-0.075
1766,-0.095,-0.075
1767,-0.095,-0.095
1768,-0.105,-0.075
1769,-0.095,-0.065
1770,-0.085,-0.075
1771,-0.095,-0.085
1772,-0.085,-0.085
1773,-0.105,-0.085
1774,-0.105,-0.075
1775,-0.105,-0.085
1776,-0.095,-0.095
1777,-0.075,-0.085
1778,-0.105,-0.085
1779,-0.115,-0.095
1780,-0.105,-0.115
1781,-0.115,-0.115
1782,-0.115,-0.115
1783,-0.105,-0.115
1784,-0.095,-0.125
1785,-0.085,-0.115
1786,-0.095,-0.115
1787,-0.115,-0.135
1788,-0.115,-0.135
1789,-0.125,-0.135
1790,-0.105,-0.115
1791,-0.105,-0.135
1792,-0.105,-0.135
1793,-0.095,-0.145
1794,-0.095,-0.125
1795,-0.095,-0.125
1796,-0.105,-0.135
1797,-0.125,-0.135
1798,-0.095,-0.125
1799,-0.085,-0.125
1800,-0.095,-0.145
1801,-0.075,-0.135
1802,-0.045,-0.125
1803,0.005,-0.065
1804,0.075,-0.035
1805,0.015,-0.085
1806,0.005,-0.095
1807,-0.045,-0.125
1808,-0.055,-0.145
1809,-0.085,-0.135
1810,-0.105,-0.145
1811,-0.095,-0.155
1812,-0.095,-0.155
1813,-0.105,-0.135
1814,-0.095,-0.145
1815,-0.095,-0.145
1816,-0.085,-0.145
1817,-0.065,-0.135
1818,-0.065,-0.125
1819,-0.085,-0.135
1820,-0.035,-0.125
1821,-0.245,-0.015
1822,-0.385,0.055
1823,-0.025,0.455
1824,0.945,-0.005
1825,2.065,-0.825
1826,1.295,-0.895
1827,-0.185,-0.955
1828,-0.525,-0.635
1829,-0.385,-0.315
1830,-0.175,-0.125
1831,-0.055,-0.025
1832,-0.045,-0.035
1833,-0.055,-0.045
1834,-0.055,-0.035
1835,-0.075,-0.045
1836,-0.065,-0.025
1837,-0.075,-0.025
1838,-0.065,-0.015
1839,-0.065,-0.025
1840,-0.055,-0.015
1841,-0.035,-0.005
1842,-0.035,0.005
1843,-0.025,-0.005
1844,-0.025,-0.005
1845,-0.025,0.015
1846,0.005,0.015
1847,0.005,0.005
1848,0.015,0.015
1849,0.045,0.035
1850,0.065,0.035
1851,0.075,0.035
1852,0.095,0.045
1853,0.105,0.065
1854,0.135,0.065
1855,0.165,0.065
1856,0.185,0.075
1857,0.245,0.095
1858,0.275,0.095
1859,0.315,0.085
1860,0.365,0.105
1861,0.385,0.105
1862,0.435,0.115
1863,0.465,0.105
1864,0.505,0.125
1865,0.505,0.135
1866,0.455,0.135
1867,0.375,0.105
1868,0.325,0.085
1869,0.215,0.055
1870,0.145,0.025
1871,0.075,-0.025
1872,0.015,-0.065
1873,-0.025,-0.065
1874,-0.045,-0.095
1875,-0.075,-0.105
1876,-0.075,-0.115
1877,-0.105,-0.095
1878,-0.085,-0.105
1879,-0.105,-0.115
1880,-0.105,-0.105
1881,-0.095,-0.085
1882,-0.095,-0.095
1883,-0.105,-0.105
1884,-0.095,-0.095
1885,-0.105,-0.095
1886,-0.085,-0.095
1887,-0.105,-0.105
1888,-0.105,-0.105
1889,-0.095,-0.095
1890,-0.105,-0.105
1891,-0.105,-0.125
1892,-0.105,-0.115
1893,-0.115,-0.125
1894,-0.115,-0.125
1895,-0.125,-0.145
1896,-0.115,-0.135
1897,-0.125,-0.125
1898,-0.125,-0.135
1899,-0.125,-0.155
1900,-0.125,-0.145
1901,-0.135,-0.135
1902,-0.135,-0.145
1903,-0.135,-0.165
1904,-0.105,-0.155
1905,-0.085,-0.105
1906,-0.025,-0.055
1907,-0.015,-0.085
1908,-0.095,-0.125
1909,-0.095,-0.115
1910,-0.115,-0.145
1911,-0.135,-0.155
1912,-0.165,-0.155
1913,-0.165,-0.165
1914,-0.155,-0.145
1915,-0.175,-0.175
1916,-0.175,-0.175
1917,-0.195,-0.165
1918,-0.175,-0.155
1919,-0.175,-0.165
1920,-0.175,-0.165
1921,-0.165,-0.165
1922,-0.165,-0.135
1923,-0.165,-0.155
1924,-0.135,-0.145
1925,-0.325,-0.025
1926,-0.455,0.045
1927,-0.085,0.455
1928,0.885,-0.245
1929,1.975,-0.995
1930,1.025,-0.985
1931,-0.375,-0.985
1932,-0.615,-0.655
1933,-0.455,-0.305
1934,-0.235,-0.115
1935,-0.155,-0.035
1936,-0.165,-0.045
1937,-0.165,-0.035
1938,-0.185,-0.045
1939,-0.185,-0.055
1940,-0.165,-0.045
1941,-0.185,-0.025
1942,-0.175,-0.025
1943,-0.185,-0.025
1944,-0.175,-0.025
1945,-0.155,-0.005
1946,-0.155,-0.005
1947,-0.155,-0.005
1948,-0.135,0.005
1949,-0.145,0.025
1950,-0.115,0.025
1951,-0.105,0.015
1952,-0.095,0.035
1953,-0.065,0.055
1954,-0.055,0.055
1955,-0.055,0.055
1956,-0.025,0.085
1957,-0.005,0.095
1958,0.025,0.105
1959,0.045,0.105
1960,0.085,0.125
1961,0.145,0.155
1962,0.165,0.155
1963,0.195,0.145
1964,0.245,0.165
1965,0.275,0.175
1966,0.315,0.175
1967,0.325,0.165
1968,0.335,0.165
1969,0.315,0.165
1970,0.255,0.135
1971,0.175,0.105
1972,0.115,0.055
1973,0.015,0.015
1974,-0.035,-0.035
1975,-0.105,-0.065
1976,-0.135,-0.105
1977,-0.155,-0.095
1978,-0.185,-0.115
1979,-0.205,-0.135
1980,-0.195,-0.135
1981,-0.215,-0.125
1982,-0.215,-0.125
1983,-0.215,-0.135
1984,-0.215,-0.125
1985,-0.195,-0.115
1986,-0.195,-0.105
1987,-0.215,-0.115
1988,-0.195,-0.105
1989,-0.205,-0.095
1990,-0.195,-0.095
1991,-0.205,-0.105
1992,-0.205,-0.105
1993,-0.185,-0.105
1994,-0.195,-0.105
1995,-0.205,-0.125
1996,-0.205,-0.125
1997,-0.215,-0.125
1998,-0.205,-0.125
1999,-0.215,-0.145
2000,-0.215,-0.145
2001,-0.215,-0.135
2002,-0.215,-0.145
2003,-0.215,-0.155
2004,-0.225,-0.145
2005,-0.205,-0.135
2006,-0.215,-0.145
2007,-0.215,-0.155
2008,-0.185,-0.155
2009,-0.155,-0.115
2010,-0.095,-0.055
2011,-0.085,-0.075
2012,-0.165,-0.125
2013,-0.185,-0.115
2014,-0.185,-0.145
2015,-0.195,-0.155
2016,-0.215,-0.165
2017,-0.225,-0.155
2018,-0.225,-0.165
2019,-0.235,-0.165
2020,-0.255,-0.165
2021,-0.235,-0.145
2022,-0.225,-0.155
2023,-0.225,-0.165
2024,-0.225,-0.165
2025,-0.215,-0.145
2026,-0.195,-0.145
2027,-0.185,-0.155
2028,-0.215,-0.095
2029,-0.445,0.005
2030,-0.385,0.145
2031,0.175,0.505
2032,1.165,-0.615
2033,1.905,-1.095
2034,0.705,-0.985
2035,-0.515,-1.005
2036,-0.615,-0.625
2037,-0.425,-0.265
2038,-0.215,-0.085
2039,-0.175,-0.005
2040,-0.175,-0.035
2041,-0.185,-0.035
2042,-0.185,-0.025
2043,-0.205,-0.035
2044,-0.195,-0.025
2045,-0.195,-0.015
2046,-0.185,0.005
2047,-0.185,-0.005
2048,-0.185,0.005
2049,-0.165,0.005
2050,-0.165,0.025
2051,-0.165,0.015
2052,-0.155,0.015
2053,-0.155,0.015
2054,-0.125,0.045
2055,-0.115,0.045
2056,-0.095,0.045
2057,-0.075,0.065
2058,-0.055,0.075
2059,-0.055,0.075
2060,-0.035,0.075
2061,-0.035,0.095
2062,0.015,0.115
2063,0.055,0.115
2064,0.085,0.125
2065,0.125,0.155
2066,0.165,0.165
2067,0.195,0.165
2068,0.245,0.165
2069,0.265,0.175
2070,0.315,0.195
2071,0.345,0.195
2072,0.365,0.185
2073,0.355,0.195
2074,0.295,0.175
2075,0.205,0.125
2076,0.135,0.085
2077,0.045,0.055
2078,-0.025,0.005
2079,-0.075,-0.035
2080,-0.115,-0.065
2081,-0.125,-0.065
2082,-0.155,-0.085
2083,-0.175,-0.105
2084,-0.175,-0.105
2085,-0.185,-0.085
2086,-0.175,-0.085
2087,-0.175,-0.105
2088,-0.165,-0.085
2089,-0.175,-0.075
2090,-0.175,-0.075
2091,-0.165,-0.075
2092,-0.185,-0.065
2093,-0.175,-0.065
2094,-0.185,-0.065
2095,-0.165,-0.085
2096,-0.155,-0.075
2097,-0.175,-0.075
2098,-0.185,-0.085
2099,-0.175,-0.095
2100,-0.185,-0.085
2101,-0.175,-0.095
2102,-0.185,-0.105
2103,-0.175,-0.115
2104,-0.175,-0.105
2105,-0.175,-0.105
2106,-0.195,-0.125
2107,-0.185,-0.125
2108,-0.195,-0.115
2109,-0.185,-0.115
2110,-0.195,-0.125
2111,-0.185,-0.125
2112,-0.175,-0.125
2113,-0.185,-0.115
2114,-0.185,-0.115
2115,-0.175,-0.125
2116,-0.185,-0.115
2117,-0.175,-0.105
2118,-0.175,-0.105
2119,-0.175,-0.135
2120,-0.135,-0.125
2121,-0.125,-0.105
2122,-0.065,-0.025
2123,-0.035,-0.035
2124,-0.105,-0.095
2125,-0.125,-0.095
2126,-0.125,-0.105
2127,-0.145,-0.125
2128,-0.165,-0.125
2129,-0.165,-0.115
2130,-0.175,-0.125
2131,-0.185,-0.135
2132,-0.175,-0.135
2133,-0.185,-0.115
2134,-0.165,-0.115
2135,-0.175,-0.125
2136,-0.155,-0.125
2137,-0.145,-0.105
2138,-0.145,-0.095
2139,-0.145,-0.105
2140,-0.125,-0.095
2141,-0.315,0.015
2142,-0.435,0.045
2143,-0.125,0.465
2144,0.655,0.125
2145,1.745,-0.825
2146,1.455,-1.005
2147,0.015,-1.035
2148,-0.565,-0.835
2149,-0.495,-0.415
2150,-0.265,-0.145
2151,-0.125,0.005
2152,-0.115,0.005
2153,-0.125,-0.005
2154,-0.135,-0.005
2155,-0.145,-0.005
2156,-0.135,-0.005
2157,-0.145,0.025
2158,-0.135,0.035
2159,-0.135,0.035
2160,-0.135,0.035
2161,-0.125,0.035
2162,-0.105,0.055
2163,-0.105,0.045
2164,-0.105,0.055
2165,-0.095,0.035
2166,-0.095,0.065
2167,-0.075,0.075
2168,-0.065,0.065
2169,-0.045,0.065
2170,-0.025,0.095
2171,-0.015,0.095
2172,-0.005,0.095
2173,0.025,0.105
2174,0.045,0.125
2175,0.075,0.135
2176,0.105,0.135
2177,0.145,0.155
2178,0.195,0.175
2179,0.225,0.165
2180,0.265,0.175
2181,0.295,0.185
2182,0.345,0.205
2183,0.385,0.195
2184,0.405,0.195
2185,0.405,0.205
2186,0.365,0.205
2187,0.275,0.155
2188,0.205,0.115
2189,0.115,0.085
2190,0.055,0.035
2191,-0.015,-0.005
2192,-0.055,-0.035
2193,-0.075,-0.045
2194,-0.105,-0.055
2195,-0.125,-0.075
2196,-0.115,-0.075
2197,-0.125,-0.065
2198,-0.125,-0.065
2199,-0.135,-0.075
2200,-0.125,-0.065
2201,-0.125,-0.045
2202,-0.125,-0.065
2203,-0.135,-0.065
2204,-0.145,-0.065
2205,-0.135,-0.055
2206,-0.125,-0.055
2207,-0.125,-0.065
2208,-0.125,-0.075
2209,-0.125,-0.065
2210,-0.135,-0.075
2211,-0.135,-0.095
2212,-0.155,-0.095
2213,-0.145,-0.085
2214,-0.145,-0.105
2215,-0.145,-0.115
2216,-0.135,-0.105
2217,-0.135,-0.105
2218,-0.145,-0.105
2219,-0.145,-0.125
2220,-0.165,-0.115
2221,-0.145,-0.105
2222,-0.145,-0.115
2223,-0.155,-0.125
2224,-0.145,-0.125
2225,-0.145,-0.115
2226,-0.145,-0.115
2227,-0.145,-0.135
2228,-0.135,-0.125
2229,-0.155,-0.115
2230,-0.145,-0.115
2231,-0.155,-0.125
2232,-0.145,-0.125
2233,-0.135,-0.115
2234,-0.135,-0.125
2235,-0.145,-0.135
2236,-0.115,-0.125
2237,-0.135,-0.115
2238,-0.135,-0.125
2239,-0.135,-0.145
2240,-0.115,-0.135
2241,-0.035,-0.055
2242,0.015,-0.025
2243,-0.025,-0.105
2244,-0.075,-0.105
2245,-0.095,-0.125
2246,-0.115,-0.115
2247,-0.145,-0.145
2248,-0.145,-0.135
2249,-0.135,-0.135
2250,-0.145,-0.125
2251,-0.145,-0.145
2252,-0.125,-0.135
2253,-0.145,-0.125
2254,-0.135,-0.135
2255,-0.135,-0.135
2256,-0.125,-0.135
2257,-0.095,-0.105
2258,-0.075,-0.105
2259,-0.245,-0.035
2260,-0.405,0.015
2261,-0.125,0.415
2262,0.745,0.175
2263,1.805,-0.735
2264,1.405,-0.955
2265,-0.015,-1.025
2266,-0.545,-0.805
2267,-0.465,-0.425
2268,-0.235,-0.165
2269,-0.105,-0.015
2270,-0.105,-0.015
2271,-0.125,-0.035
2272,-0.125,-0.035
2273,-0.115,-0.015
2274,-0.115,-0.005
2275,-0.115,-0.025
2276,-0.105,-0.015
2277,-0.115,-0.005
2278,-0.105,-0.005
2279,-0.105,-0.015
2280,-0.095,0.005
2281,-0.085,0.005
2282,-0.075,0.025
2283,-0.065,-0.005
2284,-0.065,0.015
2285,-0.045,0.025
2286,-0.035,0.035
2287,-0.015,0.025
2288,0.005,0.045
2289,0.015,0.045
2290,0.035,0.055
2291,0.065,0.055
2292,0.075,0.065
2293,0.115,0.085
2294,0.155,0.085
2295,0.195,0.075
2296,0.245,0.095
2297,0.265,0.115
2298,0.305,0.115
2299,0.345,0.105
2300,0.375,0.115
2301,0.415,0.125
2302,0.425,0.135
2303,0.425,0.135
2304,0.385,0.125
2305,0.335,0.135
2306,0.255,0.105
2307,0.185,0.055
2308,0.105,0.015
2309,0.035,-0.005
2310,-0.005,-0.035
2311,-0.045,-0.075
2312,-0.075,-0.075
2313,-0.085,-0.085
2314,-0.095,-0.095
2315,-0.115,-0.105
2316,-0.105,-0.105
2317,-0.125,-0.085
2318,-0.115,-0.085
2319,-0.125,-0.105
2320,-0.115,-0.095
2321,-0.105,-0.075
2322,-0.105,-0.085
2323,-0.125,-0.085
2324,-0.115,-0.095
2325,-0.135,-0.095
2326,-0.125,-0.095
2327,-0.115,-0.105
2328,-0.115,-0.105
2329,-0.115,-0.115
2330,-0.125,-0.105
2331,-0.125,-0.125
2332,-0.125,-0.135
2333,-0.145,-0.145
2334,-0.125,-0.125
2335,-0.135,-0.135
2336,-0.135,-0.145
2337,-0.125,-0.145
2338,-0.125,-0.135
2339,-0.135,-0.155
2340,-0.125,-0.155
2341,-0.145,-0.145
2342,-0.145,-0.135
2343,-0.135,-0.155
2344,-0.125,-0.165
2345,-0.095,-0.155
2346,-0.055,-0.105
2347,-0.015,-0.065
2348,-0.015,-0.105
2349,-0.075,-0.135
2350,-0.075,-0.135
2351,-0.105,-0.145
2352,-0.115,-0.165
2353,-0.135,-0.175
2354,-0.135,-0.175
2355,-0.155,-0.175
2356,-0.145,-0.185
2357,-0.145,-0.165
2358,-0.135,-0.175
2359,-0.135,-0.175
2360,-0.135,-0.175
2361,-0.125,-0.155
2362,-0.115,-0.145
2363,-0.115,-0.155
2364,-0.055,-0.145
2365,-0.245,-0.055
2366,-0.415,0.015
2367,-0.075,0.425
2368,0.915,0.035
2369,2.035,-0.845
2370,1.095,-0.915
2371,-0.245,-0.995
2372,-0.565,-0.695
2373,-0.415,-0.375
2374,-0.205,-0.165
2375,-0.085,-0.045
2376,-0.075,-0.055
2377,-0.095,-0.065
2378,-0.115,-0.065
2379,-0.105,-0.075
2380,-0.125,-0.055
2381,-0.105,-0.045
2382,-0.095,-0.035
2383,-0.105,-0.055
2384,-0.085,-0.045
2385,-0.085,-0.035
2386,-0.085,-0.025
2387,-0.075,-0.045
2388,-0.055,-0.025
2389,-0.055,-0.005
2390,-0.035,-0.025
2391,-0.025,-0.025
2392,-0.005,-0.015
2393,0.015,0.005
2394,0.025,0.005
2395,0.025,0.005
2396,0.055,0.015
2397,0.065,0.035
2398,0.125,0.035
2399,0.135,0.035
2400,0.155,0.045
2401,0.205,0.065
2402,0.245,0.065
2403,0.275,0.065
2404,0.325,0.075
2405,0.355,0.085
2406,0.395,0.095
2407,0.425,0.075
2408,0.425,0.095
2409,0.435,0.105
2410,0.395,0.105
2411,0.315,0.065
2412,0.235,0.055
2413,0.155,0.025
2414,0.085,-0.015
2415,0.025,-0.065
2416,-0.025,-0.085
2417,-0.055,-0.095
2418,-0.075,-0.115
2419,-0.075,-0.135
2420,-0.115,-0.135
2421,-0.105,-0.115
2422,-0.105,-0.115
2423,-0.105,-0.125
2424,-0.095,-0.115
2425,-0.095,-0.095
2426,-0.105,-0.105
2427,-0.085,-0.115
2428,-0.115,-0.115
2429,-0.105,-0.105
2430,-0.095,-0.105
2431,-0.095,-0.125
2432,-0.095,-0.115
2433,-0.105,-0.115
2434,-0.105,-0.125
2435,-0.105,-0.135
2436,-0.125,-0.135
2437,-0.115,-0.135
2438,-0.115,-0.135
2439,-0.105,-0.155
2440,-0.095,-0.155
2441,-0.105,-0.135
2442,-0.105,-0.145
2443,-0.115,-0.165
2444,-0.125,-0.165
2445,-0.115,-0.165
2446,-0.085,-0.165
2447,-0.055,-0.135
2448,-0.005,-0.075
2449,0.035,-0.065
2450,-0.025,-0.115
2451,-0.045,-0.125
2452,-0.095,-0.155
2453,-0.105,-0.145
2454,-0.125,-0.175
2455,-0.125,-0.175
2456,-0.125,-0.185
2457,-0.135,-0.165
2458,-0.135,-0.175
2459,-0.135,-0.175
2460,-0.135,-0.175
2461,-0.125,-0.165
2462,-0.105,-0.165
2463,-0.115,-0.175
2464,-0.095,-0.165
2465,-0.085,-0.145
2466,-0.065,-0.145
2467,-0.195,-0.075
2468,-0.415,0.015
2469,-0.195,0.315
2470,0.675,0.245
2471,1.845,-0.785
2472,1.745,-1.005
2473,0.135,-1.005
2474,-0.535,-0.755
2475,-0.495,-0.495
2476,-0.295,-0.245
2477,-0.135,-0.085
2478,-0.075,-0.035
2479,-0.115,-0.075
2480,-0.105,-0.065
2481,-0.095,-0.045
2482,-0.105,-0.045
2483,-0.115,-0.045
2484,-0.105,-0.045
2485,-0.115,-0.035
2486,-0.115,-0.025
2487,-0.105,-0.035
2488,-0.085,-0.035
2489,-0.065,-0.005
2490,-0.065,-0.005
2491,-0.075,-0.015
2492,-0.055,-0.015
2493,-0.055,-0.005
2494,-0.035,0.015
2495,-0.025,0.015
2496,-0.015,0.015
2497,0.015,0.025
2498,0.025,0.045
2499,0.045,0.045
2500,0.065,0.045
2501,0.075,0.055
2502,0.115,0.075
2503,0.145,0.075
2504,0.185,0.085
2505,0.235,0.095
2506,0.265,0.105
2507,0.295,0.105
2508,0.335,0.105
2509,0.345,0.115
2510,0.385,0.125
2511,0.385,0.135
2512,0.365,0.125
2513,0.315,0.115
2514,0.225,0.085
2515,0.145,0.055
2516,0.075,0.015
2517,-0.005,-0.015
2518,-0.035,-0.045
2519,-0.085,-0.065
2520,-0.105,-0.095
2521,-0.115,-0.095
2522,-0.135,-0.105
2523,-0.135,-0.105
2524,-0.145,-0.105
2525,-0.155,-0.095
2526,-0.145,-0.085
2527,-0.155,-0.085
2528,-0.145,-0.085
2529,-0.135,-0.085
2530,-0.145,-0.075
2531,-0.155,-0.085
2532,-0.155,-0.075
2533,-0.165,-0.085
2534,-0.155,-0.075
2535,-0.165,-0.085
2536,-0.165,-0.095
2537,-0.155,-0.085
2538,-0.175,-0.095
2539,-0.185,-0.115
2540,-0.175,-0.115
2541,-0.195,-0.105
2542,-0.195,-0.115
2543,-0.205,-0.135
2544,-0.205,-0.135
2545,-0.195,-0.125
2546,-0.205,-0.135
2547,-0.225,-0.145
2548,-0.205,-0.135
2549,-0.215,-0.125
2550,-0.215,-0.145
2551,-0.205,-0.155
2552,-0.195,-0.145
2553,-0.115,-0.045
2554,-0.075,-0.035
2555,-0.145,-0.115
2556,-0.175,-0.125
2557,-0.195,-0.125
2558,-0.205,-0.125
2559,-0.225,-0.155
2560,-0.245,-0.155
2561,-0.235,-0.145
2562,-0.245,-0.155
2563,-0.255,-0.165
2564,-0.245,-0.155
2565,-0.245,-0.145
2566,-0.245,-0.145
2567,-0.245,-0.165
2568,-0.225,-0.155
2569,-0.225,-0.125
2570,-0.215,-0.125
2571,-0.195,-0.125
2572,-0.385,0.015
2573,-0.505,0.055
2574,-0.075,0.535
2575,0.865,-0.365
2576,1.885,-1.025
2577,1.165,-1.005
2578,-0.325,-1.005
2579,-0.655,-0.685
2580,-0.505,-0.305
2581,-0.295,-0.105
2582,-0.195,-0.005
2583,-0.205,-0.045
2584,-0.215,-0.045
2585,-0.225,-0.025
2586,-0.225,-0.035
2587,-0.235,-0.035
2588,-0.235,-0.025
2589,-0.235,0.005
2590,-0.215,-0.005
2591,-0.215,-0.015
2592,-0.205,-0.005
2593,-0.205,0.005
2594,-0.195,0.005
2595,-0.195,0.005
2596,-0.185,0.015
2597,-0.175,0.025
2598,-0.155,0.035
2599,-0.145,0.025
2600,-0.125,0.035
2601,-0.105,0.045
2602,-0.095,0.065
2603,-0.085,0.055
2604,-0.065,0.075
2605,-0.035,0.095
2606,-0.005,0.105
2607,0.025,0.095
2608,0.065,0.115
2609,0.115,0.135
2610,0.145,0.145
2611,0.175,0.125
2612,0.215,0.135
2613,0.245,0.155
2614,0.285,0.155
2615,0.285,0.145
2616,0.275,0.135
2617,0.235,0.145
2618,0.165,0.115
2619,0.085,0.065
2620,0.015,0.025
2621,-0.065,-0.005
2622,-0.105,-0.045
2623,-0.155,-0.085
2624,-0.185,-0.095
2625,-0.205,-0.095
2626,-0.215,-0.115
2627,-0.225,-0.135
2628,-0.235,-0.125
2629,-0.235,-0.115
2630,-0.225,-0.105
2631,-0.235,-0.125
2632,-0.225,-0.105
2633,-0.225,-0.095
2634,-0.225,-0.095
2635,-0.225,-0.105
2636,-0.215,-0.095
2637,-0.235,-0.085
2638,-0.215,-0.095
2639,-0.225,-0.105
2640,-0.215,-0.095
2641,-0.215,-0.095
2642,-0.215,-0.105
2643,-0.235,-0.125
2644,-0.215,-0.125
2645,-0.245,-0.115
2646,-0.225,-0.125
2647,-0.245,-0.145
2648,-0.235,-0.145
2649,-0.225,-0.125
2650,-0.235,-0.135
2651,-0.225,-0.125
2652,-0.235,-0.135
2653,-0.235,-0.145
2654,-0.245,-0.135
2655,-0.235,-0.135
2656,-0.235,-0.155
2657,-0.245,-0.155
2658,-0.235,-0.135
2659,-0.235,-0.135
2660,-0.235,-0.145
2661,-0.225,-0.145
2662,-0.225,-0.135
2663,-0.235,-0.135
2664,-0.235,-0.145
2665,-0.235,-0.145
2666,-0.225,-0.135
2667,-0.225,-0.135
2668,-0.225,-0.155
2669,-0.215,-0.135
2670,-0.225,-0.135
2671,-0.225,-0.135
2672,-0.215,-0.145
2673,-0.215,-0.145
2674,-0.205,-0.125
2675,-0.205,-0.135
2676,-0.205,-0.145
2677,-0.225,-0.135
2678,-0.205,-0.135
2679,-0.195,-0.125
2680,-0.195,-0.135
2681,-0.195,-0.125
2682,-0.185,-0.125
2683,-0.195,-0.135
2684,-0.195,-0.135
2685,-0.205,-0.125
2686,-0.195,-0.115
2687,-0.185,-0.125
2688,-0.185,-0.135
2689,-0.175,-0.125
2690,-0.185,-0.115
2691,-0.185,-0.125
2692,-0.175,-0.125
2693,-0.185,-0.115
2694,-0.175,-0.115
2695,-0.185,-0.125
2696,-0.175,-0.125
2697,-0.165,-0.105
2698,-0.165,-0.115
2699,-0.165,-0.125
2700,-0.155,-0.115
2701,-0.175,-0.125
2702,-0.145,-0.125
2703,-0.095,-0.095
2704,-0.025,-0.015
2705,-0.015,-0.025
2706,-0.085,-0.085
2707,-0.115,-0.115
2708,-0.155,-0.115
2709,-0.145,-0.105
2710,-0.155,-0.115
2711,-0.175,-0.125
2712,-0.165,-0.125
2713,-0.175,-0.115
2714,-0.175,-0.125
2715,-0.165,-0.125
2716,-0.175,-0.115
2717,-0.165,-0.105
2718,-0.155,-0.105
2719,-0.125,-0.095
2720,-0.255,0.005
2721,-0.455,0.035
2722,-0.195,0.405
2723,0.475,0.165
2724,1.565,-0.825
2725,1.675,-1.065
2726,0.225,-1.025
2727,-0.585,-0.855
2728,-0.525,-0.415
2729,-0.305,-0.155
2730,-0.145,-0.015
2731,-0.125,-0.005
2732,-0.135,-0.015
2733,-0.155,-0.015
2734,-0.165,-0.005
2735,-0.155,-0.015
2736,-0.145,-0.005
2737,-0.135,0.025
2738,-0.135,0.015
2739,-0.135,0.015
2740,-0.125,0.005
2741,-0.135,0.025
2742,-0.115,0.025
2743,-0.125,0.025
2744,-0.105,0.025
2745,-0.085,0.035
2746,-0.085,0.045
2747,-0.075,0.045
2748,-0.065,0.045
2749,-0.065,0.045
2750,-0.035,0.065
2751,-0.025,0.055
2752,-0.005,0.055
2753,0.025,0.075
2754,0.045,0.095
2755,0.075,0.095
2756,0.105,0.095
2757,0.135,0.105
2758,0.175,0.125
2759,0.215,0.125
2760,0.255,0.125
2761,0.305,0.135
2762,0.355,0.165
2763,0.385,0.165
2764,0.415,0.155
2765,0.415,0.175
2766,0.435,0.185
2767,0.405,0.165
2768,0.335,0.135
2769,0.265,0.105
2770,0.175,0.065
2771,0.095,0.035
2772,0.045,-0.015
2773,-0.035,-0.035
2774,-0.045,-0.055
2775,-0.075,-0.075
2776,-0.095,-0.085
2777,-0.085,-0.075
2778,-0.105,-0.085
2779,-0.115,-0.095
2780,-0.095,-0.085
2781,-0.125,-0.075
2782,-0.105,-0.075
2783,-0.125,-0.095
2784,-0.115,-0.075
2785,-0.115,-0.075
2786,-0.105,-0.075
2787,-0.115,-0.085
2788,-0.095,-0.085
2789,-0.125,-0.075
2790,-0.115,-0.095
2791,-0.115,-0.105
2792,-0.115,-0.105
2793,-0.115,-0.105
2794,-0.115,-0.115
2795,-0.125,-0.125
2796,-0.125,-0.115
2797,-0.125,-0.115
2798,-0.125,-0.125
2799,-0.135,-0.145
2800,-0.115,-0.135
2801,-0.125,-0.135
2802,-0.135,-0.135
2803,-0.145,-0.155
2804,-0.155,-0.145
2805,-0.145,-0.135
2806,-0.145,-0.135
2807,-0.135,-0.145
2808,-0.115,-0.145
2809,-0.125,-0.145
2810,-0.135,-0.145
2811,-0.125,-0.145
2812,-0.125,-0.155
2813,-0.135,-0.135
2814,-0.115,-0.135
2815,-0.125,-0.155
2816,-0.125,-0.145
2817,-0.115,-0.135
2818,-0.115,-0.135
2819,-0.115,-0.155
2820,-0.095,-0.135
2821,-0.115,-0.135
2822,-0.105,-0.145
2823,-0.115,-0.155
2824,-0.075,-0.145
2825,-0.005,-0.075
2826,0.055,-0.025
2827,0.045,-0.085
2828,-0.005,-0.115
2829,-0.045,-0.115
2830,-0.075,-0.125
2831,-0.095,-0.155
2832,-0.115,-0.155
2833,-0.095,-0.145
2834,-0.105,-0.155
2835,-0.115,-0.155
2836,-0.105,-0.155
2837,-0.135,-0.155
2838,-0.105,-0.145
2839,-0.115,-0.145
2840,-0.105,-0.155
2841,-0.085,-0.135
2842,-0.085,-0.125
2843,-0.055,-0.125
2844,-0.215,-0.035
2845,-0.405,0.015
2846,-0.115,0.455
2847,0.725,0.205
2848,1.755,-0.705
2849,1.775,-0.935
2850,0.225,-1.015
2851,-0.505,-0.815
2852,-0.485,-0.495
2853,-0.255,-0.215
2854,-0.105,-0.035
2855,-0.065,-0.025
2856,-0.095,-0.065
2857,-0.095,-0.055
2858,-0.095,-0.035
2859,-0.105,-0.035
2860,-0.095,-0.045
2861,-0.085,-0.035
2862,-0.075,-0.025
2863,-0.085,-0.025
2864,-0.075,-0.025
2865,-0.065,-0.015
2866,-0.055,-0.015
2867,-0.055,-0.005
2868,-0.035,-0.015
2869,-0.045,-0.005
2870,-0.025,0.005
2871,-0.015,0.005
2872,0.015,0.005
2873,0.045,0.025
2874,0.055,0.035
2875,0.055,0.025
2876,0.085,0.035
2877,0.105,0.055
2878,0.145,0.065
2879,0.175,0.055
2880,0.215,0.065
2881,0.275,0.085
2882,0.315,0.085
2883,0.345,0.075
2884,0.385,0.085
2885,0.405,0.095
2886,0.445,0.105
2887,0.445,0.095
2888,0.415,0.105
2889,0.375,0.105
2890,0.295,0.095
2891,0.205,0.035
2892,0.145,0.015
2893,0.055,-0.015
2894,0.015,-0.045
2895,-0.035,-0.095
2896,-0.065,-0.105
2897,-0.085,-0.105
2898,-0.095,-0.115
2899,-0.105,-0.125
2900,-0.105,-0.125
2901,-0.125,-0.105
2902,-0.125,-0.115
2903,-0.115,-0.125
2904,-0.115,-0.115
2905,-0.105,-0.095
2906,-0.115,-0.105
2907,-0.125,-0.115
2908,-0.105,-0.115
2909,-0.125,-0.105
2910,-0.125,-0.115
2911,-0.125,-0.125
2912,-0.125,-0.125
2913,-0.125,-0.115
2914,-0.125,-0.135
2915,-0.145,-0.155
2916,-0.125,-0.145
2917,-0.145,-0.145
2918,-0.145,-0.145
2919,-0.145,-0.165
2920,-0.135,-0.155
2921,-0.125,-0.155
2922,-0.145,-0.165
2923,-0.145,-0.175
2924,-0.155,-0.165
2925,-0.155,-0.165
2926,-0.145,-0.165
2927,-0.155,-0.175
2928,-0.155,-0.175
2929,-0.135,-0.165
2930,-0.145,-0.175
2931,-0.145,-0.175
2932,-0.145,-0.185
2933,-0.165,-0.165
2934,-0.135,-0.165
2935,-0.155,-0.185
2936,-0.145,-0.185
2937,-0.105,-0.165
2938,-0.075,-0.115
2939,-0.015,-0.075
2940,0.025,-0.085
2941,-0.045,-0.115
2942,-0.065,-0.135
2943,-0.105,-0.175
2944,-0.135,-0.175
2945,-0.135,-0.165
2946,-0.155,-0.175
2947,-0.165,-0.185
2948,-0.145,-0.175
2949,-0.175,-0.175
2950,-0.155,-0.165
2951,-0.155,-0.185
2952,-0.155,-0.175
2953,-0.135,-0.165
2954,-0.135,-0.155
2955,-0.135,-0.165
2956,-0.095,-0.145
2957,-0.265,-0.045
2958,-0.465,0.035
2959,-0.175,0.395
2960,0.775,0.005
2961,1.925,-0.885
2962,1.495,-0.955
2963,-0.125,-1.005
2964,-0.605,-0.685
2965,-0.485,-0.365
2966,-0.265,-0.155
2967,-0.135,-0.045
2968,-0.115,-0.055
2969,-0.135,-0.065
2970,-0.145,-0.055
2971,-0.155,-0.065
2972,-0.135,-0.055
2973,-0.155,-0.035
2974,-0.145,-0.035
2975,-0.145,-0.045
2976,-0.135,-0.035
2977,-0.135,-0.015
2978,-0.125,-0.015
2979,-0.125,-0.025
2980,-0.115,-0.015
2981,-0.115,0.005
2982,-0.095,0.005
2983,-0.085,-0.005
2984,-0.075,0.015
2985,-0.055,0.025
2986,-0.055,0.035
2987,-0.045,0.025
2988,-0.015,0.045
2989,-0.005,0.065
2990,0.025,0.075
2991,0.045,0.065
2992,0.085,0.085
2993,0.115,0.105
2994,0.145,0.105
2995,0.175,0.095
2996,0.225,0.115
2997,0.245,0.125
2998,0.285,0.125
2999,0.315,0.125
3000,0.315,0.125
3001,0.315,0.145
3002,0.265,0.125
3003,0.195,0.095
3004,0.135,0.065
3005,0.045,0.035
3006,-0.025,0.005
3007,-0.095,-0.045
3008,-0.125,-0.075
3009,-0.155,-0.075
3010,-0.185,-0.095
3011,-0.215,-0.115
3012,-0.215,-0.115
3013,-0.225,-0.115
3014,-0.225,-0.105
3015,-0.235,-0.115
3016,-0.225,-0.105
3017,-0.205,-0.095
3018,-0.215,-0.095
3019,-0.225,-0.105
3020,-0.225,-0.105
3021,-0.225,-0.075
3022,-0.215,-0.095
3023,-0.225,-0.095
3024,-0.215,-0.095
3025,-0.205,-0.085
3026,-0.215,-0.085
3027,-0.225,-0.105
3028,-0.225,-0.115
3029,-0.245,-0.105
3030,-0.235,-0.115
3031,-0.235,-0.135
3032,-0.225,-0.125
3033,-0.215,-0.115
3034,-0.235,-0.125
3035,-0.245,-0.135
3036,-0.245,-0.135
3037,-0.255,-0.135
3038,-0.245,-0.125
3039,-0.255,-0.145
3040,-0.235,-0.135
3041,-0.225,-0.135
3042,-0.235,-0.135
3043,-0.235,-0.145
3044,-0.235,-0.135
3045,-0.235,-0.135
3046,-0.235,-0.125
3047,-0.225,-0.145
3048,-0.235,-0.135
3049,-0.215,-0.125
3050,-0.215,-0.125
3051,-0.225,-0.145
3052,-0.205,-0.125
3053,-0.215,-0.135
3054,-0.205,-0.125
3055,-0.175,-0.145
3056,-0.105,-0.055
3057,-0.065,-0.025
3058,-0.085,-0.075
3059,-0.135,-0.115
3060,-0.145,-0.115
3061,-0.195,-0.125
3062,-0.185,-0.115
3063,-0.215,-0.135
3064,-0.215,-0.135
3065,-0.205,-0.125
3066,-0.215,-0.135
3067,-0.215,-0.135
3068,-0.205,-0.135
3069,-0.215,-0.125
3070,-0.195,-0.125
3071,-0.195,-0.125
3072,-0.185,-0.125
3073,-0.145,-0.105
3074,-0.255,-0.025
3075,-0.485,0.025
3076,-0.245,0.425
3077,0.475,0.085
3078,1.655,-0.915
3079,1.545,-1.095
3080,0.085,-1.035
3081,-0.615,-0.815
3082,-0.555,-0.395
3083,-0.335,-0.165
3084,-0.175,-0.015
3085,-0.165,0.005
3086,-0.175,-0.015
3087,-0.185,-0.025
3088,-0.185,-0.015
3089,-0.165,0.005
3090,-0.175,0.005
3091,-0.185,-0.005
3092,-0.165,0.005
3093,-0.185,0.015
3094,-0.165,0.015
3095,-0.165,0.015
3096,-0.145,0.025
3097,-0.135,0.035
3098,-0.135,0.055
3099,-0.135,0.045
3100,-0.105,0.075
3101,-0.115,0.055
3102,-0.105,0.055
3103,-0.095,0.075
3104,-0.065,0.075
3105,-0.055,0.075
3106,-0.015,0.095
3107,-0.005,0.115
3108,0.015,0.115
3109,0.045,0.125
3110,0.065,0.145
3111,0.115,0.155
3112,0.155,0.155
3113,0.205,0.175
3114,0.255,0.195
3115,0.295,0.195
3116,0.335,0.185
3117,0.355,0.195
3118,0.385,0.215
3119,0.375,0.215
3120,0.335,0.175
3121,0.265,0.155
3122,0.175,0.105
3123,0.075,0.045
3124,0.025,0.005
3125,-0.055,-0.015
3126,-0.075,-0.045
3127,-0.125,-0.075
3128,-0.135,-0.095
3129,-0.135,-0.075
3130,-0.145,-0.095
3131,-0.165,-0.095
3132,-0.155,-0.085
3133,-0.165,-0.075
3134,-0.155,-0.075
3135,-0.155,-0.075
3136,-0.145,-0.075
3137,-0.145,-0.055
3138,-0.145,-0.065
3139,-0.145,-0.065
3140,-0.155,-0.075
3141,-0.155,-0.065
3142,-0.145,-0.065
3143,-0.145,-0.075
3144,-0.135,-0.075
3145,-0.145,-0.075
3146,-0.155,-0.085
3147,-0.145,-0.095
3148,-0.165,-0.095
3149,-0.155,-0.095
3150,-0.155,-0.105
3151,-0.145,-0.115
3152,-0.145,-0.105
3153,-0.155,-0.105
3154,-0.165,-0.115
3155,-0.155,-0.135
3156,-0.185,-0.115
3157,-0.165,-0.115
3158,-0.165,-0.115
3159,-0.165,-0.125
3160,-0.155,-0.115
3161,-0.155,-0.105
3162,-0.165,-0.115
3163,-0.165,-0.125
3164,-0.165,-0.125
3165,-0.165,-0.105
3166,-0.155,-0.125
3167,-0.155,-0.135
3168,-0.145,-0.125
3169,-0.145,-0.115
3170,-0.155,-0.115
3171,-0.155,-0.125
3172,-0.135,-0.115
3173,-0.155,-0.105
3174,-0.145,-0.105
3175,-0.145,-0.125
3176,-0.145,-0.115
3177,-0.125,-0.105
3178,-0.135,-0.095
3179,-0.135,-0.115
3180,-0.125,-0.105
3181,-0.145,-0.115
3182,-0.115,-0.115
3183,-0.085,-0.115
3184,-0.025,-0.045
3185,0.025,-0.005
3186,0.005,-0.045
3187,-0.055,-0.075
3188,-0.075,-0.105
3189,-0.115,-0.115
3190,-0.105,-0.115
3191,-0.135,-0.115
3192,-0.135,-0.125
3193,-0.125,-0.125
3194,-0.135,-0.115
3195,-0.145,-0.115
3196,-0.125,-0.125
3197,-0.155,-0.115
3198,-0.135,-0.105
3199,-0.115,-0.105
3200,-0.105,-0.095
3201,-0.075,-0.085
3202,-0.245,0.015
3203,-0.415,0.045
3204,-0.065,0.505
3205,0.855,-0.205
3206,1.915,-0.965
3207,1.115,-0.965
3208,-0.225,-1.025
3209,-0.545,-0.685
3210,-0.395,-0.285
3211,-0.195,-0.095
3212,-0.095,0.015
3213,-0.125,0.005
3214,-0.115,0.005
3215,-0.125,0.005
3216,-0.115,-0.005
3217,-0.115,0.015
3218,-0.115,0.025
3219,-0.125,0.015
3220,-0.115,0.015
3221,-0.125,0.035
3222,-0.105,0.035
3223,-0.105,0.035
3224,-0.095,0.035
3225,-0.075,0.055
3226,-0.065,0.055
3227,-0.065,0.045
3228,-0.035,0.055
3229,-0.045,0.075
3230,-0.015,0.085
3231,-0.015,0.075
3232,0.015,0.085
3233,0.045,0.115
3234,0.055,0.115
3235,0.075,0.115
3236,0.125,0.125
3237,0.145,0.145
3238,0.195,0.165
3239,0.225,0.145
3240,0.265,0.165
3241,0.315,0.175
3242,0.355,0.185
3243,0.375,0.175
3244,0.425,0.195
3245,0.425,0.205
3246,0.425,0.195
3247,0.375,0.165
3248,0.305,0.155
3249,0.235,0.115
3250,0.155,0.075
3251,0.075,0.025
3252,0.035,-0.005
3253,-0.035,-0.035
3254,-0.065,-0.055
3255,-0.095,-0.085
3256,-0.115,-0.095
3257,-0.115,-0.075
3258,-0.115,-0.085
3259,-0.115,-0.095
3260,-0.105,-0.095
3261,-0.125,-0.065
3262,-0.115,-0.075
3263,-0.125,-0.085
3264,-0.135,-0.085
3265,-0.115,-0.055
3266,-0.115,-0.065
3267,-0.125,-0.075
3268,-0.105,-0.085
3269,-0.115,-0.075
3270,-0.115,-0.075
3271,-0.125,-0.095
3272,-0.125,-0.095
3273,-0.115,-0.095
3274,-0.115,-0.095
3275,-0.125,-0.115
3276,-0.115,-0.105
3277,-0.135,-0.115
3278,-0.125,-0.115
3279,-0.125,-0.135
3280,-0.125,-0.125
3281,-0.125,-0.115
3282,-0.135,-0.115
3283,-0.135,-0.135
3284,-0.135,-0.135
3285,-0.145,-0.125
3286,-0.135,-0.125
3287,-0.135,-0.145
3288,-0.135,-0.125
3289,-0.125,-0.115
3290,-0.125,-0.125
3291,-0.125,-0.135
3292,-0.135,-0.135
3293,-0.135,-0.125
3294,-0.125,-0.125
3295,-0.125,-0.145
3296,-0.125,-0.125
3297,-0.115,-0.115
3298,-0.115,-0.115
3299,-0.115,-0.125
3300,-0.115,-0.125
3301,-0.125,-0.125
3302,-0.105,-0.135
3303,-0.055,-0.125
3304,0.005,-0.045
3305,0.065,-0.005
3306,0.015,-0.075
3307,-0.035,-0.105
3308,-0.055,-0.125
3309,-0.085,-0.125
3310,-0.085,-0.125
3311,-0.115,-0.145
3312,-0.115,-0.135
3313,-0.115,-0.135
3314,-0.125,-0.135
3315,-0.125,-0.155
3316,-0.115,-0.135
3317,-0.115,-0.135
3318,-0.105,-0.125
3319,-0.105,-0.135
3320,-0.105,-0.125
3321,-0.065,-0.095
3322,-0.225,-0.015
3323,-0.395,0.015
3324,-0.075,0.455
3325,0.815,0.055
3326,1.925,-0.805
3327,1.315,-0.935
3328,-0.065,-1.055
3329,-0.525,-0.765
3330,-0.435,-0.415
3331,-0.245,-0.195
3332,-0.095,-0.055
3333,-0.075,-0.015
3334,-0.085,-0.035
3335,-0.095,-0.055
3336,-0.095,-0.045
3337,-0.085,-0.025
3338,-0.085,-0.005
3339,-0.095,-0.025
3340,-0.085,-0.015
3341,-0.095,-0.005
3342,-0.075,0.005
3343,-0.075,-0.005
3344,-0.065,-0.005
3345,-0.035,0.015
3346,-0.035,0.005
3347,-0.045,0.005
3348,-0.015,0.005
3349,-0.015,0.015
3350,0.015,0.035
3351,0.015,0.025
3352,0.045,0.035
3353,0.065,0.055
3354,0.085,0.065
3355,0.095,0.065
3356,0.125,0.055
3357,0.155,0.075
3358,0.205,0.095
3359,0.245,0.085
3360,0.295,0.105
3361,0.325,0.115
3362,0.355,0.115
3363,0.405,0.125
3364,0.445,0.115
3365,0.465,0.135
3366,0.485,0.145
3367,0.465,0.135
3368,0.415,0.135
3369,0.355,0.115
3370,0.255,0.085
3371,0.175,0.035
3372,0.095,0.005
3373,0.035,-0.025
3374,0.005,-0.045
3375,-0.035,-0.075
3376,-0.055,-0.105
3377,-0.065,-0.095
3378,-0.075,-0.085
3379,-0.105,-0.105
3380,-0.085,-0.105
3381,-0.095,-0.085
3382,-0.085,-0.085
3383,-0.105,-0.095
3384,-0.095,-0.105
3385,-0.075,-0.075
3386,-0.085,-0.095
3387,-0.095,-0.095
3388,-0.085,-0.095
3389,-0.095,-0.095
3390,-0.085,-0.095
3391,-0.105,-0.115
3392,-0.095,-0.115
3393,-0.095,-0.105
3394,-0.095,-0.115
3395,-0.105,-0.135
3396,-0.095,-0.135
3397,-0.105,-0.125
3398,-0.105,-0.135
3399,-0.115,-0.155
3400,-0.095,-0.145
3401,-0.105,-0.135
3402,-0.105,-0.145
3403,-0.115,-0.155
3404,-0.125,-0.145
3405,-0.105,-0.145
3406,-0.115,-0.145
3407,-0.105,-0.165
3408,-0.095,-0.155
3409,-0.065,-0.145
3410,-0.025,-0.095
3411,0.035,-0.055
3412,0.015,-0.075
3413,-0.015,-0.115
3414,-0.035,-0.125
3415,-0.075,-0.165
3416,-0.085,-0.165
3417,-0.125,-0.165
3418,-0.125,-0.165
3419,-0.115,-0.175
3420,-0.135,-0.175
3421,-0.125,-0.165
3422,-0.115,-0.165
3423,-0.115,-0.175
3424,-0.115,-0.165
3425,-0.115,-0.155
3426,-0.105,-0.165
3427,-0.095,-0.165
3428,-0.055,-0.145
3429,-0.125,-0.075
3430,-0.385,-0.005
3431,-0.275,0.155
3432,0.305,0.475
3433,1.405,-0.405
3434,2.085,-0.935
3435,0.645,-0.995
3436,-0.375,-0.915
3437,-0.535,-0.605
3438,-0.345,-0.295
3439,-0.165,-0.145
3440,-0.065,-0.045
3441,-0.075,-0.045
3442,-0.095,-0.055
3443,-0.095,-0.065
3444,-0.095,-0.065
3445,-0.105,-0.045
3446,-0.095,-0.045
3447,-0.105,-0.045
3448,-0.075,-0.035
3449,-0.065,-0.015
3450,-0.055,-0.015
3451,-0.065,-0.025
3452,-0.045,-0.015
3453,-0.055,0.005
3454,-0.025,-0.005
3455,-0.015,-0.015
3456,0.005,0.005
3457,0.015,0.025
3458,0.035,0.025
3459,0.035,0.025
3460,0.065,0.035
3461,0.075,0.055
3462,0.105,0.065
3463,0.125,0.055
3464,0.165,0.075
3465,0.205,0.085
3466,0.245,0.095
3467,0.275,0.085
3468,0.315,0.095
3469,0.355,0.105
3470,0.395,0.115
3471,0.425,0.105
3472,0.455,0.115
3473,0.455,0.135
3474,0.415,0.135
3475,0.355,0.105
3476,0.285,0.085
3477,0.195,0.065
3478,0.125,0.025
3479,0.055,-0.035
3480,0.005,-0.055
3481,-0.035,-0.075
3482,-0.065,-0.095
3483,-0.085,-0.115
3484,-0.105,-0.105
3485,-0.105,-0.095
3486,-0.105,-0.095
3487,-0.105,-0.105
3488,-0.105,-0.105
3489,-0.105,-0.085
3490,-0.105,-0.095
3491,-0.105,-0.105
3492,-0.105,-0.095
3493,-0.105,-0.085
3494,-0.105,-0.085
3495,-0.115,-0.095
3496,-0.105,-0.095
3497,-0.105,-0.085
3498,-0.115,-0.095
3499,-0.125,-0.115
3500,-0.125,-0.105
3501,-0.135,-0.105
3502,-0.135,-0.115
3503,-0.145,-0.135
3504,-0.145,-0.125
3505,-0.135,-0.125
3506,-0.155,-0.125
3507,-0.155,-0.145
3508,-0.155,-0.135
3509,-0.155,-0.125
3510,-0.155,-0.135
3511,-0.165,-0.155
3512,-0.135,-0.145
3513,-0.085,-0.085
3514,-0.045,-0.045
3515,-0.055,-0.085
3516,-0.095,-0.125
3517,-0.125,-0.115
3518,-0.135,-0.145
3519,-0.165,-0.155
3520,-0.185,-0.165
3521,-0.185,-0.155
3522,-0.195,-0.155
3523,-0.205,-0.165
3524,-0.185,-0.165
3525,-0.205,-0.155
3526,-0.195,-0.145
3527,-0.195,-0.165
3528,-0.195,-0.155
3529,-0.175,-0.135
3530,-0.165,-0.135
3531,-0.145,-0.145
3532,-0.275,-0.045
3533,-0.495,0.025
3534,-0.195,0.405
3535,0.565,0.175
3536,1.655,-0.855
3537,1.605,-1.075
3538,0.075,-1.035
3539,-0.625,-0.835
3540,-0.545,-0.455
3541,-0.335,-0.175
3542,-0.165,-0.025
3543,-0.165,-0.025
3544,-0.185,-0.045
3545,-0.185,-0.035
3546,-0.195,-0.025
3547,-0.195,-0.035
3548,-0.185,-0.025
3549,-0.195,-0.015
3550,-0.185,-0.005
3551,-0.195,-0.015
3552,-0.165,-0.005
3553,-0.155,0.015
3554,-0.155,0.015
3555,-0.155,0.015
3556,-0.135,0.015
3557,-0.125,0.035
3558,-0.115,0.045
3559,-0.105,0.035
3560,-0.095,0.055
3561,-0.065,0.065
3562,-0.055,0.075
3563,-0.035,0.065
3564,-0.005,0.085
3565,0.005,0.105
3566,0.045,0.125
3567,0.075,0.115
3568,0.105,0.135
3569,0.155,0.145
3570,0.185,0.165
3571,0.215,0.145
3572,0.255,0.165
3573,0.305,0.175
3574,0.315,0.185
3575,0.315,0.165
3576,0.295,0.165
3577,0.275,0.155
3578,0.205,0.135
3579,0.115,0.085
3580,0.045,0.035
3581,-0.045,-0.005
3582,-0.105,-0.045
3583,-0.145,-0.075
3584,-0.175,-0.095
3585,-0.185,-0.105
3586,-0.205,-0.115
3587,-0.215,-0.135
3588,-0.205,-0.125
3589,-0.225,-0.115
3590,-0.215,-0.105
3591,-0.225,-0.115
3592,-0.215,-0.115
3593,-0.205,-0.095
3594,-0.205,-0.095
3595,-0.215,-0.105
3596,-0.225,-0.095
3597,-0.215,-0.095
3598,-0.205,-0.095
3599,-0.205,-0.105
3600,-0.195,-0.105
3601,-0.215,-0.105
3602,-0.215,-0.105
3603,-0.215,-0.125
3604,-0.245,-0.125
3605,-0.225,-0.115
3606,-0.225,-0.125
3607,-0.225,-0.145
3608,-0.215,-0.135
3609,-0.215,-0.115
3610,-0.225,-0.145
3611,-0.225,-0.165
3612,-0.215,-0.145
3613,-0.145,-0.075
3614,-0.095,-0.035
3615,-0.125,-0.095
3616,-0.165,-0.125
3617,-0.205,-0.125
3618,-0.215,-0.145
3619,-0.235,-0.155
3620,-0.265,-0.165
3621,-0.255,-0.155
3622,-0.255,-0.155
3623,-0.255,-0.165
3624,-0.255,-0.165
3625,-0.255,-0.155
3626,-0.255,-0.155
3627,-0.255,-0.165
3628,-0.265,-0.155
3629,-0.235,-0.145
3630,-0.225,-0.135
3631,-0.195,-0.135
3632,-0.305,-0.055
3633,-0.525,0.005
3634,-0.285,0.345
3635,0.435,0.255
3636,1.545,-0.805
3637,1.525,-1.085
3638,0.095,-1.045
3639,-0.655,-0.905
3640,-0.585,-0.465
3641,-0.355,-0.175
3642,-0.215,-0.025
3643,-0.215,-0.035
3644,-0.235,-0.045
3645,-0.235,-0.035
3646,-0.235,-0.035
3647,-0.235,-0.035
3648,-0.225,-0.035
3649,-0.215,-0.005
3650,-0.225,-0.015
3651,-0.225,-0.015
3652,-0.215,-0.015
3653,-0.205,0.015
3654,-0.195,0.005
3655,-0.195,0.005
3656,-0.175,0.015
3657,-0.165,0.025
3658,-0.155,0.025
3659,-0.145,0.015
3660,-0.125,0.035
3661,-0.105,0.055
3662,-0.095,0.055
3663,-0.075,0.055
3664,-0.035,0.065
3665,-0.015,0.085
3666,-0.005,0.095
3667,0.035,0.095
3668,0.055,0.105
3669,0.115,0.125
3670,0.145,0.135
3671,0.175,0.125
3672,0.235,0.145
3673,0.265,0.155
3674,0.285,0.165
3675,0.305,0.155
3676,0.275,0.165
3677,0.245,0.165
3678,0.185,0.135
3679,0.105,0.085
3680,0.035,0.045
3681,-0.035,0.015
3682,-0.105,-0.035
3683,-0.145,-0.075
3684,-0.195,-0.095
3685,-0.195,-0.095
3686,-0.195,-0.105
3687,-0.205,-0.115
3688,-0.195,-0.115
3689,-0.205,-0.105
3690,-0.205,-0.105
3691,-0.215,-0.115
3692,-0.225,-0.095
3693,-0.205,-0.095
3694,-0.215,-0.085
3695,-0.205,-0.105
3696,-0.195,-0.095
3697,-0.195,-0.085
3698,-0.205,-0.085
3699,-0.205,-0.105
3700,-0.205,-0.095
3701,-0.205,-0.095
3702,-0.195,-0.095
3703,-0.205,-0.115
3704,-0.205,-0.125
3705,-0.195,-0.105
3706,-0.205,-0.125
3707,-0.215,-0.125
3708,-0.205,-0.135
3709,-0.225,-0.125
3710,-0.215,-0.125
3711,-0.215,-0.135
3712,-0.205,-0.135
3713,-0.205,-0.145
3714,-0.205,-0.125
3715,-0.195,-0.145
3716,-0.175,-0.125
3717,-0.115,-0.055
3718,-0.085,-0.045
3719,-0.135,-0.115
3720,-0.185,-0.135
3721,-0.175,-0.145
3722,-0.205,-0.135
3723,-0.225,-0.155
3724,-0.245,-0.175
3725,-0.255,-0.165
3726,-0.245,-0.165
3727,-0.235,-0.155
3728,-0.245,-0.175
3729,-0.235,-0.165
3730,-0.225,-0.155
3731,-0.225,-0.145
3732,-0.225,-0.165
3733,-0.225,-0.145
3734,-0.195,-0.135
3735,-0.195,-0.115
3736,-0.385,-0.025
3737,-0.435,0.035
3738,0.075,0.515
3739,1.095,-0.405
3740,1.785,-1.055
3741,0.455,-1.025
3742,-0.535,-0.975
3743,-0.595,-0.605
3744,-0.405,-0.295
3745,-0.205,-0.085
3746,-0.175,-0.025
3747,-0.195,-0.065
3748,-0.195,-0.055
3749,-0.205,-0.045
3750,-0.195,-0.035
3751,-0.205,-0.045
3752,-0.195,-0.035
3753,-0.175,-0.025
3754,-0.195,-0.025
3755,-0.185,-0.035
3756,-0.165,-0.015
3757,-0.165,-0.005
3758,-0.155,-0.005
3759,-0.145,-0.015
3760,-0.125,0.005
3761,-0.105,0.015
3762,-0.095,0.025
3763,-0.085,0.005
3764,-0.055,0.025
3765,-0.055,0.035
3766,-0.025,0.045
3767,-0.015,0.035
3768,0.025,0.055
3769,0.065,0.075
3770,0.095,0.085
3771,0.115,0.075
3772,0.165,0.085
3773,0.195,0.105
3774,0.255,0.105
3775,0.285,0.115
3776,0.335,0.125
3777,0.355,0.145
3778,0.345,0.135
3779,0.325,0.135
3780,0.285,0.125
3781,0.215,0.115
3782,0.145,0.075
3783,0.065,0.025
3784,0.005,-0.005
3785,-0.035,-0.035
3786,-0.075,-0.075
3787,-0.115,-0.095
3788,-0.135,-0.115
3789,-0.145,-0.105
3790,-0.155,-0.105
3791,-0.175,-0.115
3792,-0.165,-0.115
3793,-0.155,-0.105
3794,-0.165,-0.105
3795,-0.175,-0.115
3796,-0.145,-0.105
3797,-0.155,-0.095
3798,-0.165,-0.085
3799,-0.155,-0.105
3800,-0.155,-0.095
3801,-0.145,-0.085
3802,-0.155,-0.095
3803,-0.155,-0.115
3804,-0.165,-0.115
3805,-0.155,-0.095
3806,-0.165,-0.115
3807,-0.165,-0.135
3808,-0.145,-0.125
3809,-0.165,-0.125
3810,-0.165,-0.135
3811,-0.155,-0.145
3812,-0.185,-0.145
3813,-0.175,-0.135
3814,-0.155,-0.145
3815,-0.165,-0.155
3816,-0.145,-0.135
3817,-0.155,-0.145
3818,-0.155,-0.155
3819,-0.145,-0.155
3820,-0.095,-0.085
3821,-0.035,-0.055
3822,-0.055,-0.105
3823,-0.095,-0.135
3824,-0.095,-0.125
3825,-0.135,-0.135
3826,-0.165,-0.155
3827,-0.175,-0.185
3828,-0.185,-0.175
3829,-0.165,-0.165
3830,-0.175,-0.155
3831,-0.175,-0.175
3832,-0.155,-0.155
3833,-0.155,-0.155
3834,-0.155,-0.155
3835,-0.145,-0.175
3836,-0.165,-0.155
3837,-0.145,-0.145
3838,-0.135,-0.135
3839,-0.105,-0.145
3840,-0.265,-0.055
3841,-0.455,0.005
3842,-0.175,0.365
3843,0.755,0.195
3844,1.855,-0.765
3845,1.425,-0.945
3846,-0.065,-1.045
3847,-0.575,-0.785
3848,-0.475,-0.455
3849,-0.285,-0.205
3850,-0.125,-0.065
3851,-0.115,-0.045
3852,-0.135,-0.065
3853,-0.145,-0.055
3854,-0.145,-0.055
3855,-0.125,-0.065
3856,-0.125,-0.045
3857,-0.125,-0.035
3858,-0.125,-0.035
3859,-0.115,-0.055
3860,-0.105,-0.035
3861,-0.115,-0.025
3862,-0.095,-0.015
3863,-0.095,-0.035
3864,-0.075,-0.025
3865,-0.055,-0.015
3866,-0.045,-0.005
3867,-0.045,-0.015
3868,-0.025,-0.015
3869,-0.015,0.005
3870,0.005,0.005
3871,0.015,0.005
3872,0.045,0.005
3873,0.055,0.035
3874,0.095,0.035
3875,0.105,0.045
3876,0.145,0.055
3877,0.165,0.055
3878,0.215,0.075
3879,0.255,0.075
3880,0.295,0.075
3881,0.345,0.075
3882,0.375,0.095
3883,0.385,0.095
3884,0.415,0.095
3885,0.395,0.105
3886,0.365,0.115
3887,0.305,0.105
3888,0.225,0.055
3889,0.155,0.025
3890,0.075,-0.005
3891,0.015,-0.035
3892,-0.015,-0.075
3893,-0.055,-0.085
3894,-0.075,-0.085
3895,-0.095,-0.095
3896,-0.095,-0.115
3897,-0.105,-0.115
3898,-0.095,-0.095
3899,-0.115,-0.095
3900,-0.115,-0.105
3901,-0.115,-0.095
3902,-0.095,-0.095
3903,-0.105,-0.095
3904,-0.105,-0.105
3905,-0.095,-0.105
3906,-0.095,-0.085
3907,-0.105,-0.105
3908,-0.105,-0.125
3909,-0.125,-0.125
3910,-0.115,-0.105
3911,-0.125,-0.135
3912,-0.125,-0.135
3913,-0.105,-0.135
3914,-0.115,-0.135
3915,-0.135,-0.155
3916,-0.125,-0.145
3917,-0.135,-0.145
3918,-0.125,-0.145
3919,-0.145,-0.155
3920,-0.135,-0.155
3921,-0.125,-0.145
3922,-0.135,-0.155
3923,-0.115,-0.165
3924,-0.065,-0.115
3925,-0.015,-0.065
3926,-0.025,-0.085
3927,-0.075,-0.145
3928,-0.075,-0.145
3929,-0.105,-0.145
3930,-0.135,-0.165
3931,-0.155,-0.185
3932,-0.175,-0.175
3933,-0.165,-0.175
3934,-0.155,-0.175
3935,-0.145,-0.185
3936,-0.125,-0.165
3937,-0.145,-0.165
3938,-0.145,-0.165
3939,-0.135,-0.175
3940,-0.135,-0.165
3941,-0.125,-0.155
3942,-0.115,-0.145
3943,-0.085,-0.145
3944,-0.255,-0.055
3945,-0.435,0.025
3946,-0.145,0.375
3947,0.775,0.205
3948,1.845,-0.785
3949,1.635,-0.985
3950,0.025,-1.015
3951,-0.565,-0.765
3952,-0.505,-0.485
3953,-0.295,-0.235
3954,-0.145,-0.085
3955,-0.105,-0.055
3956,-0.125,-0.065
3957,-0.145,-0.055
3958,-0.135,-0.055
3959,-0.135,-0.065
3960,-0.125,-0.045
3961,-0.115,-0.035
3962,-0.125,-0.035
3963,-0.125,-0.045
3964,-0.105,-0.035
3965,-0.115,-0.015
3966,-0.095,-0.015
3967,-0.095,-0.025
3968,-0.085,-0.025
3969,-0.065,-0.005
3970,-0.055,-0.005
3971,-0.045,-0.005
3972,-0.025,-0.005
3973,-0.025,0.025
3974,-0.005,0.025
3975,0.005,0.015
3976,0.035,0.025
3977,0.065,0.045
3978,0.085,0.055
3979,0.105,0.055
3980,0.155,0.065
3981,0.175,0.075
3982,0.215,0.085
3983,0.235,0.075
3984,0.275,0.095
3985,0.325,0.105
3986,0.345,0.105
3987,0.355,0.095
3988,0.375,0.105
3989,0.325,0.115
3990,0.275,0.095
3991,0.185,0.055
3992,0.125,0.025
3993,0.055,0.015
3994,-0.005,-0.025
3995,-0.065,-0.065
3996,-0.075,-0.085
3997,-0.115,-0.095
3998,-0.125,-0.105
3999,-0.145,-0.105
4000,-0.145,-0.115
4001,-0.145,-0.085
4002,-0.145,-0.095
4003,-0.155,-0.095
4004,-0.155,-0.095
4005,-0.155,-0.075
4006,-0.155,-0.085
4007,-0.155,-0.085
4008,-0.155,-0.095
4009,-0.165,-0.075
4010,-0.165,-0.085
4011,-0.165,-0.095
4012,-0.185,-0.095
4013,-0.185,-0.095
4014,-0.185,-0.095
4015,-0.185,-0.115
4016,-0.175,-0.105
4017,-0.195,-0.115
4018,-0.195,-0.115
4019,-0.195,-0.135
4020,-0.215,-0.125
4021,-0.205,-0.125
4022,-0.215,-0.135
4023,-0.215,-0.145
4024,-0.205,-0.125
4025,-0.195,-0.115
4026,-0.215,-0.125
4027,-0.215,-0.145
4028,-0.215,-0.145
4029,-0.185,-0.115
4030,-0.115,-0.045
4031,-0.085,-0.055
4032,-0.135,-0.115
4033,-0.175,-0.105
4034,-0.185,-0.125
4035,-0.195,-0.135
4036,-0.235,-0.145
4037,-0.235,-0.135
4038,-0.235,-0.145
4039,-0.245,-0.155
4040,-0.235,-0.155
4041,-0.235,-0.135
4042,-0.235,-0.145
4043,-0.235,-0.155
4044,-0.235,-0.145
4045,-0.225,-0.135
4046,-0.225,-0.135
4047,-0.215,-0.135
4048,-0.205,-0.125
4049,-0.185,-0.115
4050,-0.345,-0.005
4051,-0.515,0.035
4052,-0.195,0.455
4053,0.555,0.105
4054,1.615,-0.855
4055,1.555,-1.065
4056,0.025,-1.025
4057,-0.655,-0.775
4058,-0.555,-0.385
4059,-0.355,-0.155
4060,-0.195,-0.035
4061,-0.205,-0.015
4062,-0.215,-0.025
4063,-0.225,-0.025
4064,-0.215,-0.025
4065,-0.215,-0.015
4066,-0.215,0.005
4067,-0.215,-0.005
4068,-0.215,-0.005
4069,-0.225,-0.005
4070,-0.205,0.025
4071,-0.205,0.015
4072,-0.195,0.015
4073,-0.175,0.025
4074,-0.175,0.045
4075,-0.165,0.045
4076,-0.145,0.035
4077,-0.155,0.045
4078,-0.125,0.065
4079,-0.105,0.065
4080,-0.095,0.065
4081,-0.065,0.085
4082,-0.045,0.105
4083,-0.025,0.105
4084,0.005,0.105
4085,0.015,0.125
4086,0.065,0.135
4087,0.095,0.145
4088,0.145,0.145
4089,0.185,0.155
4090,0.225,0.175
4091,0.255,0.165
4092,0.285,0.165
4093,0.285,0.175
4094,0.295,0.175
4095,0.235,0.155
4096,0.185,0.115
4097,0.115,0.095
4098,0.035,0.055
4099,-0.045,0.005
4100,-0.075,-0.025
4101,-0.145,-0.055
4102,-0.155,-0.065
4103,-0.185,-0.095
4104,-0.195,-0.105
4105,-0.185,-0.085
4106,-0.185,-0.085
4107,-0.205,-0.105
4108,-0.185,-0.085
4109,-0.195,-0.075
4110,-0.195,-0.065
4111,-0.195,-0.085
4112,-0.185,-0.075
4113,-0.175,-0.065
4114,-0.185,-0.065
4115,-0.185,-0.075
4116,-0.205,-0.065
4117,-0.185,-0.065
4118,-0.185,-0.065
4119,-0.185,-0.075
4120,-0.175,-0.085
4121,-0.185,-0.075
4122,-0.195,-0.085
4123,-0.195,-0.105
4124,-0.195,-0.095
4125,-0.195,-0.095
4126,-0.185,-0.105
4127,-0.185,-0.115
4128,-0.195,-0.115
4129,-0.185,-0.095
4130,-0.195,-0.105
4131,-0.195,-0.115
4132,-0.185,-0.115
4133,-0.195,-0.105
4134,-0.185,-0.115
4135,-0.195,-0.125
4136,-0.185,-0.115
4137,-0.175,-0.105
4138,-0.175,-0.105
4139,-0.185,-0.125
4140,-0.165,-0.115
4141,-0.175,-0.105
4142,-0.175,-0.095
4143,-0.175,-0.115
4144,-0.175,-0.105
4145,-0.155,-0.105
4146,-0.165,-0.105
4147,-0.165,-0.115
4148,-0.175,-0.105
4149,-0.165,-0.095
4150,-0.165,-0.095
4151,-0.155,-0.115
4152,-0.145,-0.105
4153,-0.155,-0.095
4154,-0.155,-0.095
4155,-0.155,-0.115
4156,-0.165,-0.105
4157,-0.145,-0.095
4158,-0.145,-0.095
4159,-0.145,-0.095
4160,-0.125,-0.095
4161,-0.135,-0.085
4162,-0.135,-0.095
4163,-0.135,-0.095
4164,-0.145,-0.095
4165,-0.135,-0.085
4166,-0.125,-0.085
4167,-0.125,-0.095
4168,-0.115,-0.095
4169,-0.115,-0.075
4170,-0.115,-0.085
4171,-0.125,-0.095
4172,-0.135,-0.085
4173,-0.125,-0.075
4174,-0.105,-0.075
4175,-0.105,-0.085
4176,-0.105,-0.075
4177,-0.105,-0.075
4178,-0.115,-0.065
4179,-0.105,-0.085
4180,-0.115,-0.065
4181,-0.105,-0.065
4182,-0.095,-0.065
4183,-0.065,-0.095
4184,-0.005,-0.025
4185,0.055,0.035
4186,0.035,-0.005
4187,-0.015,-0.055
4188,-0.065,-0.065
4189,-0.065,-0.075
4190,-0.075,-0.065
4191,-0.095,-0.095
4192,-0.095,-0.075
4193,-0.105,-0.075
4194,-0.105,-0.075
4195,-0.095,-0.095
4196,-0.105,-0.075
4197,-0.095,-0.065
4198,-0.085,-0.065
4199,-0.075,-0.065
4200,-0.035,-0.065
4201,-0.175,0.035
4202,-0.365,0.075
4203,-0.065,0.495
4204,0.765,-0.025
4205,1.785,-0.815
4206,1.495,-0.985
4207,0.085,-0.995
4208,-0.515,-0.785
4209,-0.435,-0.365
4210,-0.215,-0.105
4211,-0.065,0.015
4212,-0.055,0.035
4213,-0.075,0.025
4214,-0.075,0.025
4215,-0.075,0.015
4216,-0.085,0.025
4217,-0.075,0.045
4218,-0.075,0.035
4219,-0.075,0.035
4220,-0.045,0.045
4221,-0.055,0.065
4222,-0.045,0.055
4223,-0.045,0.055
4224,-0.035,0.055
4225,-0.015,0.075
4226,-0.015,0.065
4227,-0.015,0.065
4228,-0.005,0.065
4229,0.005,0.075
4230,0.025,0.085
4231,0.035,0.085
4232,0.065,0.085
4233,0.095,0.105
4234,0.105,0.125
4235,0.125,0.115
4236,0.155,0.125
4237,0.175,0.135
4238,0.225,0.155
4239,0.255,0.155
4240,0.305,0.145
4241,0.355,0.165
4242,0.385,0.175
4243,0.405,0.175
4244,0.445,0.185
4245,0.485,0.195
4246,0.515,0.205
4247,0.505,0.215
4248,0.465,0.185
4249,0.405,0.175
4250,0.345,0.155
4251,0.255,0.115
4252,0.185,0.065
4253,0.125,0.035
4254,0.075,0.015
4255,0.045,-0.005
4256,0.005,-0.035
4257,0.005,-0.045
4258,-0.005,-0.035
4259,-0.025,-0.045
4260,-0.035,-0.045
4261,-0.045,-0.045
4262,-0.025,-0.035
4263,-0.025,-0.035
4264,-0.035,-0.045
4265,-0.025,-0.045
4266,-0.025,-0.035
4267,-0.035,-0.045
4268,-0.045,-0.045
4269,-0.045,-0.055
4270,-0.035,-0.035
4271,-0.045,-0.055
4272,-0.025,-0.065
4273,-0.025,-0.065
4274,-0.035,-0.055
4275,-0.045,-0.075
4276,-0.035,-0.085
4277,-0.055,-0.085
4278,-0.055,-0.075
4279,-0.065,-0.085
4280,-0.055,-0.105
4281,-0.035,-0.085
4282,-0.055,-0.095
4283,-0.065,-0.105
4284,-0.055,-0.105
4285,-0.075,-0.095
4286,-0.055,-0.095
4287,-0.065,-0.115
4288,-0.065,-0.105
4289,-0.055,-0.095
4290,-0.055,-0.105
4291,-0.055,-0.115
4292,-0.045,-0.115
4293,-0.065,-0.095
4294,-0.065,-0.105
4295,-0.065,-0.115
4296,-0.055,-0.105
4297,-0.035,-0.085
4298,-0.035,-0.095
4299,-0.055,-0.115
4300,-0.065,-0.115
4301,-0.015,-0.095
4302,0.045,-0.055
4303,0.105,-0.015
4304,0.105,-0.035
4305,0.055,-0.065
4306,0.025,-0.075
4307,-0.015,-0.115
4308,-0.055,-0.105
4309,-0.065,-0.115
4310,-0.055,-0.115
4311,-0.055,-0.115
4312,-0.055,-0.125
4313,-0.055,-0.115
4314,-0.065,-0.105
4315,-0.065,-0.115
4316,-0.075,-0.115
4317,-0.045,-0.105
4318,-0.035,-0.105
4319,-0.035,-0.105
4320,-0.005,-0.075
4321,-0.225,0.025
4322,-0.335,0.095
4323,0.035,0.495
4324,1.075,-0.035
4325,2.095,-0.815
4326,1.255,-0.865
4327,-0.175,-0.915
4328,-0.505,-0.615
4329,-0.365,-0.335
4330,-0.165,-0.135
4331,-0.025,-0.015
4332,-0.005,-0.005
4333,-0.045,-0.005
4334,-0.045,-0.005
4335,-0.055,-0.015
4336,-0.055,-0.005
4337,-0.035,0.005
4338,-0.025,0.005
4339,-0.045,-0.005
4340,-0.025,0.015
4341,-0.035,0.015
4342,-0.015,0.025
4343,-0.015,0.005
4344,-0.005,0.025
4345,0.015,0.035
4346,0.015,0.035
4347,0.015,0.025
4348,0.035,0.035
4349,0.035,0.045
4350,0.065,0.045
4351,0.065,0.045
4352,0.095,0.055
4353,0.135,0.075
4354,0.135,0.085
4355,0.155,0.085
4356,0.195,0.095
4357,0.215,0.105
4358,0.275,0.115
4359,0.295,0.115
4360,0.335,0.115
4361,0.405,0.125
4362,0.425,0.135
4363,0.455,0.115
4364,0.485,0.125
4365,0.485,0.135
4366,0.455,0.145
4367,0.395,0.125
4368,0.325,0.105
4369,0.255,0.085
4370,0.175,0.045
4371,0.095,-0.015
4372,0.055,-0.035
4373,-0.005,-0.045
4374,-0.015,-0.065
4375,-0.045,-0.085
4376,-0.055,-0.095
4377,-0.055,-0.075
4378,-0.055,-0.075
4379,-0.045,-0.065
4380,-0.045,-0.045
4381,-0.065,-0.085
4382,-0.085,-0.085
4383,-0.065,-0.075
4384,-0.065,-0.075
4385,-0.065,-0.085
4386,-0.065,-0.065
4387,-0.075,-0.075
4388,-0.085,-0.085
4389,-0.065,-0.085
4390,-0.085,-0.075
4391,-0.075,-0.085
4392,-0.085,-0.105
4393,-0.095,-0.115
4394,-0.085,-0.105
4395,-0.095,-0.115
4396,-0.095,-0.115
4397,-0.115,-0.115
4398,-0.105,-0.115
4399,-0.105,-0.135
4400,-0.105,-0.135
4401,-0.105,-0.125
4402,-0.115,-0.115
4403,-0.115,-0.135
4404,-0.105,-0.135
4405,-0.125,-0.125
4406,-0.125,-0.135
4407,-0.095,-0.135
4408,-0.025,-0.065
4409,0.035,-0.025
4410,-0.005,-0.075
4411,-0.065,-0.115
4412,-0.075,-0.135
4413,-0.115,-0.125
4414,-0.125,-0.145
4415,-0.165,-0.165
4416,-0.155,-0.165
4417,-0.165,-0.155
4418,-0.175,-0.165
4419,-0.175,-0.165
4420,-0.185,-0.155
4421,-0.175,-0.145
4422,-0.175,-0.155
4423,-0.165,-0.155
4424,-0.145,-0.135
4425,-0.135,-0.135
4426,-0.225,-0.065
4427,-0.465,0.025
4428,-0.245,0.345
4429,0.405,0.315
4430,1.605,-0.815
4431,1.675,-1.075
4432,0.145,-1.015
4433,-0.595,-0.835
4434,-0.575,-0.465
4435,-0.345,-0.195
4436,-0.195,-0.025
4437,-0.165,-0.015
4438,-0.185,-0.045
4439,-0.195,-0.045
4440,-0.185,-0.025
4441,-0.185,-0.025
4442,-0.195,-0.015
4443,-0.185,-0.025
4444,-0.195,-0.005
4445,-0.185,-0.005
4446,-0.185,0.005
4447,-0.175,-0.005
4448,-0.155,0.015
4449,-0.165,0.025
4450,-0.155,0.025
4451,-0.135,0.015
4452,-0.135,0.035
4453,-0.115,0.045
4454,-0.105,0.055
4455,-0.095,0.055
4456,-0.055,0.075
4457,-0.055,0.085
4458,-0.035,0.085
4459,-0.005,0.095
4460,-0.005,0.115
4461,0.035,0.145
4462,0.065,0.135
4463,0.115,0.135
4464,0.155,0.155
4465,0.185,0.165
4466,0.215,0.175
4467,0.245,0.155
4468,0.295,0.175
4469,0.305,0.175
4470,0.325,0.175
4471,0.285,0.155
4472,0.245,0.135
4473,0.185,0.115
4474,0.105,0.065
4475,0.025,0.015
4476,-0.035,-0.015
4477,-0.105,-0.045
4478,-0.135,-0.075
4479,-0.165,-0.095
4480,-0.185,-0.125
4481,-0.195,-0.125
4482,-0.215,-0.115
4483,-0.215,-0.135
4484,-0.225,-0.135
4485,-0.245,-0.125
4486,-0.225,-0.115
4487,-0.225,-0.125
4488,-0.215,-0.115
4489,-0.205,-0.115
4490,-0.205,-0.095
4491,-0.205,-0.095
4492,-0.205,-0.105
4493,-0.225,-0.105
4494,-0.205,-0.085
4495,-0.205,-0.095
4496,-0.205,-0.115
4497,-0.205,-0.115
4498,-0.205,-0.105
4499,-0.215,-0.125
4500,-0.215,-0.135
4501,-0.235,-0.135
4502,-0.215,-0.135
4503,-0.225,-0.135
4504,-0.225,-0.145
4505,-0.215,-0.145
4506,-0.225,-0.145
4507,-0.235,-0.145
4508,-0.215,-0.155
4509,-0.235,-0.155
4510,-0.225,-0.155
4511,-0.205,-0.145
4512,-0.165,-0.115
4513,-0.105,-0.055
4514,-0.105,-0.075
4515,-0.165,-0.135
4516,-0.175,-0.135
4517,-0.215,-0.155
4518,-0.205,-0.145
4519,-0.235,-0.165
4520,-0.245,-0.175
4521,-0.235,-0.175
4522,-0.245,-0.165
4523,-0.245,-0.165
4524,-0.245,-0.165
4525,-0.235,-0.165
4526,-0.245,-0.155
4527,-0.235,-0.165
4528,-0.225,-0.165
4529,-0.215,-0.145
4530,-0.175,-0.135
4531,-0.285,-0.045
4532,-0.505,-0.005
4533,-0.255,0.415
4534,0.555,-0.035
4535,1.595,-0.915
4536,1.495,-1.115
4537,0.005,-1.075
4538,-0.645,-0.815
4539,-0.535,-0.365
4540,-0.295,-0.125
4541,-0.195,-0.025
4542,-0.195,-0.035
4543,-0.215,-0.055
4544,-0.215,-0.065
4545,-0.205,-0.045
4546,-0.215,-0.035
4547,-0.215,-0.035
4548,-0.205,-0.025
4549,-0.215,-0.025
4550,-0.195,-0.015
4551,-0.195,-0.015
4552,-0.185,-0.015
4553,-0.165,0.005
4554,-0.165,0.015
4555,-0.155,0.005
4556,-0.135,0.015
4557,-0.125,0.025
4558,-0.115,0.035
4559,-0.095,0.035
4560,-0.085,0.055
4561,-0.055,0.065
4562,-0.045,0.075
4563,-0.015,0.065
4564,0.015,0.085
4565,0.045,0.105
4566,0.085,0.115
4567,0.105,0.115
4568,0.145,0.125
4569,0.205,0.135
4570,0.235,0.135
4571,0.255,0.135
4572,0.305,0.145
4573,0.315,0.155
4574,0.315,0.155
4575,0.265,0.135
4576,0.205,0.105
4577,0.135,0.075
4578,0.055,0.025
4579,-0.025,-0.025
4580,-0.065,-0.065
4581,-0.115,-0.085
4582,-0.135,-0.105
4583,-0.175,-0.125
4584,-0.185,-0.145
4585,-0.185,-0.135
4586,-0.195,-0.145
4587,-0.205,-0.155
4588,-0.205,-0.135
4589,-0.215,-0.135
4590,-0.185,-0.125
4591,-0.195,-0.135
4592,-0.185,-0.125
4593,-0.165,-0.115
4594,-0.195,-0.115
4595,-0.205,-0.135
4596,-0.185,-0.125
4597,-0.195,-0.125
4598,-0.185,-0.115
4599,-0.175,-0.135
4600,-0.185,-0.135
4601,-0.165,-0.125
4602,-0.175,-0.135
4603,-0.195,-0.155
4604,-0.185,-0.155
4605,-0.205,-0.145
4606,-0.185,-0.155
4607,-0.195,-0.175
4608,-0.185,-0.165
4609,-0.175,-0.145
4610,-0.175,-0.175
4611,-0.175,-0.185
4612,-0.135,-0.155
4613,-0.095,-0.075
4614,-0.035,-0.075
4615,-0.105,-0.145
4616,-0.135,-0.155
4617,-0.135,-0.155
4618,-0.155,-0.165
4619,-0.195,-0.195
4620,-0.195,-0.195
4621,-0.205,-0.185
4622,-0.205,-0.185
4623,-0.205,-0.205
4624,-0.195,-0.195
4625,-0.185,-0.175
4626,-0.195,-0.175
4627,-0.185,-0.185
4628,-0.175,-0.175
4629,-0.185,-0.165
4630,-0.155,-0.155
4631,-0.155,-0.165
4632,-0.335,-0.035
4633,-0.455,0.025
4634,-0.055,0.475
4635,0.885,-0.205
4636,1.885,-0.955
4637,1.165,-0.985
4638,-0.225,-1.055
4639,-0.615,-0.755
4640,-0.465,-0.385
4641,-0.275,-0.185
4642,-0.135,-0.055
4643,-0.145,-0.065
4644,-0.165,-0.085
4645,-0.185,-0.065
4646,-0.165,-0.065
4647,-0.155,-0.065
4648,-0.145,-0.065
4649,-0.145,-0.045
4650,-0.145,-0.045
4651,-0.145,-0.055
4652,-0.135,-0.045
4653,-0.135,-0.035
4654,-0.115,-0.025
4655,-0.105,-0.035
4656,-0.105,-0.025
4657,-0.075,-0.015
4658,-0.065,-0.005
4659,-0.055,-0.015
4660,-0.035,-0.005
4661,-0.035,0.005
4662,-0.005,0.015
4663,0.015,0.005
4664,0.025,0.025
4665,0.075,0.035
4666,0.095,0.045
4667,0.125,0.045
4668,0.155,0.055
4669,0.185,0.065
4670,0.235,0.065
4671,0.265,0.065
4672,0.305,0.075
4673,0.355,0.105
4674,0.395,0.105
4675,0.385,0.095
4676,0.385,0.105
4677,0.325,0.115
4678,0.275,0.085
4679,0.185,0.055
4680,0.115,0.015
4681,0.065,-0.015
4682,-0.005,-0.055
4683,-0.055,-0.095
4684,-0.075,-0.095
4685,-0.105,-0.115
4686,-0.115,-0.115
4687,-0.125,-0.135
4688,-0.125,-0.125
4689,-0.105,-0.115
4690,-0.125,-0.115
4691,-0.145,-0.125
4692,-0.125,-0.115
4693,-0.135,-0.105
4694,-0.135,-0.105
4695,-0.135,-0.105
4696,-0.115,-0.115
4697,-0.095,-0.095
4698,-0.115,-0.105
4699,-0.115,-0.115
4700,-0.125,-0.125
4701,-0.135,-0.115
4702,-0.115,-0.115
4703,-0.125,-0.135
4704,-0.125,-0.135
4705,-0.115,-0.135
4706,-0.125,-0.135
4707,-0.135,-0.155
4708,-0.115,-0.145
4709,-0.125,-0.135
4710,-0.125,-0.155
4711,-0.135,-0.175
4712,-0.095,-0.165
4713,-0.045,-0.085
4714,-0.005,-0.055
4715,-0.015,-0.125
4716,-0.035,-0.135
4717,-0.095,-0.155
4718,-0.105,-0.165
4719,-0.145,-0.185
4720,-0.145,-0.185
4721,-0.135,-0.175
4722,-0.145,-0.165
4723,-0.135,-0.195
4724,-0.145,-0.185
4725,-0.145,-0.175
4726,-0.145,-0.175
4727,-0.125,-0.175
4728,-0.105,-0.165
4729,-0.115,-0.155
4730,-0.115,-0.145
4731,-0.095,-0.165
4732,-0.125,-0.115
4733,-0.335,-0.005
4734,-0.355,0.125
4735,0.195,0.485
4736,1.225,-0.355
4737,2.065,-0.935
4738,1.075,-0.945
4739,-0.265,-0.945
4740,-0.565,-0.655
4741,-0.445,-0.345
4742,-0.225,-0.155
4743,-0.095,-0.045
4744,-0.085,-0.065
4745,-0.095,-0.055
4746,-0.105,-0.055
4747,-0.125,-0.065
4748,-0.105,-0.055
4749,-0.125,-0.045
4750,-0.105,-0.035
4751,-0.095,-0.045
4752,-0.095,-0.035
4753,-0.065,-0.025
4754,-0.065,-0.015
4755,-0.075,-0.035
4756,-0.085,-0.025
4757,-0.065,-0.025
4758,-0.035,0.005
4759,-0.035,-0.015
4760,-0.015,-0.005
4761,0.025,0.005
4762,0.025,0.015
4763,0.025,0.005
4764,0.045,0.015
4765,0.045,0.035
4766,0.095,0.045
4767,0.115,0.055
4768,0.155,0.045
4769,0.195,0.065
4770,0.235,0.075
4771,0.255,0.065
4772,0.295,0.065
4773,0.325,0.075
4774,0.355,0.085
4775,0.395,0.085
4776,0.415,0.085
4777,0.435,0.105
4778,0.375,0.115
4779,0.295,0.095
4780,0.225,0.065
4781,0.135,0.025
4782,0.085,0.005
4783,0.025,-0.035
4784,-0.015,-0.065
4785,-0.035,-0.085
4786,-0.075,-0.085
4787,-0.095,-0.105
4788,-0.105,-0.105
4789,-0.115,-0.095
4790,-0.115,-0.095
4791,-0.115,-0.085
4792,-0.115,-0.085
4793,-0.095,-0.075
4794,-0.105,-0.075
4795,-0.115,-0.085
4796,-0.105,-0.085
4797,-0.115,-0.075
4798,-0.115,-0.075
4799,-0.115,-0.095
4800,-0.115,-0.095
4801,-0.115,-0.075
4802,-0.105,-0.085
4803,-0.115,-0.105
4804,-0.115,-0.115
4805,-0.125,-0.095
4806,-0.115,-0.105
4807,-0.125,-0.135
4808,-0.135,-0.135
4809,-0.095,-0.105
4810,-0.035,-0.035
4811,0.015,-0.035
4812,-0.045,-0.095
4813,-0.085,-0.095
4814,-0.115,-0.125
4815,-0.135,-0.155
4816,-0.165,-0.155
4817,-0.175,-0.145
4818,-0.185,-0.145
4819,-0.185,-0.165
4820,-0.175,-0.155
4821,-0.195,-0.145
4822,-0.185,-0.145
4823,-0.195,-0.165
4824,-0.195,-0.155
4825,-0.185,-0.145
4826,-0.185,-0.145
4827,-0.185,-0.155
4828,-0.155,-0.145
4829,-0.155,-0.125
4830,-0.205,-0.075
4831,-0.435,0.015
4832,-0.365,0.175
4833,0.255,0.475
4834,1.325,-0.565
4835,1.935,-1.035
4836,0.635,-0.955
4837,-0.505,-0.865
4838,-0.615,-0.565
4839,-0.435,-0.285
4840,-0.255,-0.125
4841,-0.155,-0.025
4842,-0.185,-0.045
4843,-0.205,-0.065
4844,-0.195,-0.055
4845,-0.205,-0.045
4846,-0.205,-0.035
4847,-0.205,-0.045
4848,-0.195,-0.035
4849,-0.185,-0.025
4850,-0.185,-0.015
4851,-0.195,-0.025
4852,-0.185,-0.015
4853,-0.185,-0.005
4854,-0.165,0.005
4855,-0.165,0.005
4856,-0.135,0.015
4857,-0.115,0.035
4858,-0.105,0.035
4859,-0.105,0.035
4860,-0.075,0.035
4861,-0.065,0.055
4862,-0.035,0.065
4863,-0.015,0.065
4864,0.015,0.075
4865,0.055,0.095
4866,0.075,0.105
4867,0.105,0.095
4868,0.155,0.105
4869,0.175,0.125
4870,0.225,0.125
4871,0.255,0.115
4872,0.275,0.125
4873,0.285,0.145
4874,0.265,0.125
4875,0.205,0.105
4876,0.125,0.075
4877,0.045,0.045
4878,-0.015,0.005
4879,-0.075,-0.055
4880,-0.115,-0.075
4881,-0.155,-0.085
4882,-0.175,-0.105
4883,-0.195,-0.135
4884,-0.215,-0.135
4885,-0.205,-0.115
4886,-0.205,-0.115
4887,-0.205,-0.135
4888,-0.205,-0.115
4889,-0.205,-0.095
4890,-0.195,-0.095
4891,-0.205,-0.105
4892,-0.205,-0.095
4893,-0.195,-0.085
4894,-0.195,-0.085
4895,-0.195,-0.095
4896,-0.185,-0.095
4897,-0.185,-0.075
4898,-0.195,-0.095
4899,-0.205,-0.115
4900,-0.195,-0.105
4901,-0.205,-0.105
4902,-0.205,-0.115
4903,-0.215,-0.135
4904,-0.205,-0.135
4905,-0.225,-0.135
4906,-0.215,-0.135
4907,-0.225,-0.145
4908,-0.245,-0.145
4909,-0.225,-0.145
4910,-0.225,-0.145
4911,-0.235,-0.155
4912,-0.215,-0.155
4913,-0.225,-0.145
4914,-0.235,-0.155
4915,-0.225,-0.155
4916,-0.235,-0.155
4917,-0.225,-0.145
4918,-0.215,-0.135
4919,-0.225,-0.165
4920,-0.235,-0.165
4921,-0.205,-0.155
4922,-0.185,-0.135
4923,-0.125,-0.065
4924,-0.085,-0.075
4925,-0.155,-0.125
4926,-0.175,-0.135
4927,-0.185,-0.155
4928,-0.205,-0.155
4929,-0.215,-0.145
4930,-0.225,-0.155
4931,-0.255,-0.175
4932,-0.235,-0.175
4933,-0.255,-0.165
4934,-0.245,-0.155
4935,-0.245,-0.165
4936,-0.235,-0.165
4937,-0.225,-0.155
4938,-0.225,-0.135
4939,-0.225,-0.155
4940,-0.205,-0.155
4941,-0.195,-0.145
4942,-0.325,-0.025
4943,-0.525,-0.005
4944,-0.195,0.445
4945,0.685,-0.175
4946,1.755,-0.995
4947,1.185,-1.065
4948,-0.285,-1.055
4949,-0.665,-0.715
4950,-0.485,-0.295
4951,-0.275,-0.105
4952,-0.185,-0.025
4953,-0.195,-0.035
4954,-0.225,-0.045
4955,-0.235,-0.055
4956,-0.225,-0.045
4957,-0.225,-0.035
4958,-0.215,-0.025
4959,-0.225,-0.035
4960,-0.215,-0.035
4961,-0.195,-0.005
4962,-0.195,-0.005
4963,-0.205,-0.015
4964,-0.185,-0.005
4965,-0.185,0.015
4966,-0.175,0.015
4967,-0.175,0.005
4968,-0.145,0.015
4969,-0.125,0.035
4970,-0.115,0.045
4971,-0.105,0.035
4972,-0.075,0.045
4973,-0.065,0.065
4974,-0.035,0.075
4975,-0.015,0.065
4976,0.015,0.085
4977,0.065,0.095
4978,0.095,0.115
4979,0.125,0.095
4980,0.165,0.115
4981,0.195,0.125
4982,0.245,0.125
4983,0.275,0.125
4984,0.295,0.135
4985,0.305,0.145
4986,0.265,0.135
4987,0.195,0.095
4988,0.125,0.075
4989,0.055,0.045
4990,-0.005,-0.005
4991,-0.075,-0.055
4992,-0.105,-0.075
4993,-0.145,-0.085
4994,-0.175,-0.105
4995,-0.185,-0.115
4996,-0.205,-0.125
4997,-0.195,-0.115
4998,-0.195,-0.115
4999,-0.195,-0.135
5000,-0.195,-0.125
5001,-0.185,-0.095
5002,-0.185,-0.105
5003,-0.195,-0.105
5004,-0.195,-0.095
5005,-0.195,-0.085
5006,-0.195,-0.095
5007,-0.195,-0.105
5008,-0.175,-0.105
5009,-0.175,-0.095
5010,-0.195,-0.095
5011,-0.185,-0.115
5012,-0.205,-0.105
5013,-0.195,-0.115
5014,-0.195,-0.115
5015,-0.195,-0.145
5016,-0.195,-0.125
5017,-0.195,-0.125
5018,-0.205,-0.135
5019,-0.205,-0.155
5020,-0.205,-0.145
5021,-0.205,-0.125
5022,-0.195,-0.135
5023,-0.205,-0.155
5024,-0.195,-0.155
5025,-0.195,-0.135
5026,-0.195,-0.135
5027,-0.205,-0.155
5028,-0.195,-0.155
5029,-0.195,-0.145
5030,-0.195,-0.135
5031,-0.195,-0.145
5032,-0.195,-0.145
5033,-0.175,-0.135
5034,-0.185,-0.135
5035,-0.185,-0.145
5036,-0.165,-0.145
5037,-0.185,-0.135
5038,-0.175,-0.125
5039,-0.185,-0.145
5040,-0.185,-0.135
5041,-0.165,-0.135
5042,-0.165,-0.135
5043,-0.175,-0.145
5044,-0.155,-0.135
5045,-0.165,-0.135
5046,-0.165,-0.115
5047,-0.165,-0.135
5048,-0.155,-0.125
5049,-0.145,-0.115
5050,-0.145,-0.115
5051,-0.155,-0.135
5052,-0.135,-0.135
5053,-0.145,-0.115
5054,-0.145,-0.115
5055,-0.145,-0.115
5056,-0.145,-0.125
5057,-0.125,-0.105
5058,-0.135,-0.115
5059,-0.145,-0.125
5060,-0.135,-0.125
5061,-0.135,-0.115
5062,-0.125,-0.115
5063,-0.135,-0.115
5064,-0.125,-0.125
5065,-0.105,-0.105
5066,-0.115,-0.105
5067,-0.125,-0.125
5068,-0.115,-0.115
5069,-0.115,-0.105
5070,-0.105,-0.105
5071,-0.115,-0.115
5072,-0.105,-0.105
5073,-0.095,-0.095
5074,-0.105,-0.105
5075,-0.105,-0.115
5076,-0.105,-0.105
5077,-0.095,-0.105
5078,-0.105,-0.105
5079,-0.085,-0.125
5080,-0.055,-0.115
5081,0.015,-0.025
5082,0.045,0.005
5083,0.005,-0.065
5084,-0.045,-0.075
5085,-0.065,-0.085
5086,-0.085,-0.095
5087,-0.085,-0.105
5088,-0.095,-0.115
5089,-0.105,-0.105
5090,-0.115,-0.115
5091,-0.115,-0.125
5092,-0.125,-0.115
5093,-0.115,-0.095
5094,-0.105,-0.095
5095,-0.105,-0.115
5096,-0.085,-0.095
5097,-0.055,-0.075
5098,-0.125,-0.035
5099,-0.325,0.035
5100,-0.265,0.115
5101,0.265,0.525
5102,1.245,-0.505
5103,1.865,-1.025
5104,0.655,-0.925
5105,-0.435,-0.915
5106,-0.495,-0.515
5107,-0.275,-0.205
5108,-0.085,-0.025
5109,-0.075,0.035
5110,-0.085,0.005
5111,-0.095,-0.005
5112,-0.095,0.005
5113,-0.085,0.015
5114,-0.095,0.025
5115,-0.105,0.015
5116,-0.085,0.025
5117,-0.105,0.035
5118,-0.085,0.045
5119,-0.085,0.035
5120,-0.075,0.025
5121,-0.065,0.055
5122,-0.055,0.055
5123,-0.055,0.045
5124,-0.025,0.055
5125,-0.025,0.075
5126,-0.005,0.075
5127,-0.005,0.075
5128,0.015,0.075
5129,0.045,0.095
5130,0.055,0.105
5131,0.075,0.095
5132,0.095,0.105
5133,0.125,0.125
5134,0.175,0.135
5135,0.215,0.135
5136,0.265,0.145
5137,0.295,0.165
5138,0.325,0.165
5139,0.365,0.155
5140,0.385,0.165
5141,0.415,0.185
5142,0.435,0.185
5143,0.415,0.165
5144,0.385,0.165
5145,0.305,0.145
5146,0.235,0.105
5147,0.155,0.055
5148,0.075,0.025
5149,0.035,-0.005
5150,-0.005,-0.025
5151,-0.035,-0.045
5152,-0.035,-0.055
5153,-0.055,-0.055
5154,-0.075,-0.065
5155,-0.075,-0.075
5156,-0.095,-0.065
5157,-0.075,-0.055
5158,-0.075,-0.055
5159,-0.085,-0.065
5160,-0.075,-0.055
5161,-0.075,-0.035
5162,-0.075,-0.045
5163,-0.075,-0.065
5164,-0.075,-0.055
5165,-0.075,-0.045
5166,-0.065,-0.055
5167,-0.085,-0.065
5168,-0.085,-0.065
5169,-0.075,-0.065
5170,-0.085,-0.065
5171,-0.085,-0.095
5172,-0.075,-0.085
5173,-0.085,-0.095
5174,-0.085,-0.085
5175,-0.095,-0.105
5176,-0.095,-0.105
5177,-0.085,-0.095
5178,-0.105,-0.095
5179,-0.105,-0.105
5180,-0.095,-0.115
5181,-0.105,-0.105
5182,-0.095,-0.105
5183,-0.095,-0.105
5184,-0.095,-0.115
5185,-0.075,-0.115
5186,-0.085,-0.105
5187,-0.095,-0.115
5188,-0.085,-0.115
5189,-0.095,-0.115
5190,-0.095,-0.105
5191,-0.085,-0.115
5192,-0.085,-0.115
5193,-0.075,-0.125
5194,-0.085,-0.105
5195,-0.075,-0.115
5196,-0.075,-0.115
5197,-0.095,-0.115
5198,-0.075,-0.105
5199,-0.075,-0.105
5200,-0.075,-0.125
5201,-0.075,-0.115
5202,-0.065,-0.095
5203,-0.075,-0.105
5204,-0.075,-0.115
5205,-0.075,-0.105
5206,-0.075,-0.095
5207,-0.065,-0.105
5208,-0.065,-0.115
5209,-0.055,-0.105
5210,-0.055,-0.105
5211,-0.065,-0.095
5212,-0.055,-0.115
5213,-0.085,-0.105
5214,-0.045,-0.095
5215,-0.055,-0.095
5216,-0.065,-0.115
5217,-0.045,-0.095
5218,-0.045,-0.105
5219,-0.065,-0.105
5220,-0.035,-0.105
5221,-0.055,-0.095
5222,-0.045,-0.095
5223,-0.055,-0.105
5224,-0.055,-0.105
5225,-0.035,-0.085
5226,-0.035,-0.095
5227,-0.055,-0.115
5228,-0.045,-0.105
5229,0.035,-0.065
5230,0.085,-0.005
5231,0.115,0.005
5232,0.075,-0.065
5233,0.035,-0.065
5234,-0.005,-0.095
5235,-0.025,-0.115
5236,-0.055,-0.105
5237,-0.055,-0.105
5238,-0.065,-0.105
5239,-0.065,-0.115
5240,-0.045,-0.105
5241,-0.055,-0.105
5242,-0.055,-0.095
5243,-0.055,-0.105
5244,-0.065,-0.095
5245,-0.035,-0.075
5246,-0.015,-0.075
5247,-0.205,0.005
5248,-0.295,0.065
5249,0.035,0.485
5250,0.985,0.065
5251,1.965,-0.805
5252,1.075,-0.855
5253,-0.125,-0.965
5254,-0.475,-0.685
5255,-0.355,-0.355
5256,-0.135,-0.135
5257,-0.025,0.015
5258,-0.025,0.005
5259,-0.045,-0.015
5260,-0.065,-0.015
5261,-0.055,0.005
5262,-0.045,0.005
5263,-0.045,-0.005
5264,-0.035,0.005
5265,-0.045,0.025
5266,-0.035,0.015
5267,-0.035,0.005
5268,-0.025,0.015
5269,-0.025,0.025
5270,-0.015,0.035
5271,-0.015,0.015
5272,0.015,0.025
5273,0.035,0.035
5274,0.025,0.055
5275,0.025,0.035
5276,0.045,0.045
5277,0.055,0.055
5278,0.085,0.075
5279,0.095,0.065
5280,0.125,0.065
5281,0.155,0.085
5282,0.175,0.095
5283,0.195,0.095
5284,0.245,0.095
5285,0.255,0.115
5286,0.315,0.115
5287,0.345,0.115
5288,0.405,0.115
5289,0.445,0.135
5290,0.455,0.145
5291,0.465,0.145
5292,0.485,0.135
5293,0.435,0.145
5294,0.395,0.135
5295,0.305,0.095
5296,0.245,0.065
5297,0.165,0.035
5298,0.095,0.005
5299,0.035,-0.035
5300,0.005,-0.055
5301,-0.015,-0.065
5302,-0.035,-0.055
5303,-0.045,-0.085
5304,-0.065,-0.085
5305,-0.045,-0.065
5306,-0.055,-0.075
5307,-0.075,-0.095
5308,-0.065,-0.085
5309,-0.065,-0.065
5310,-0.055,-0.075
5311,-0.075,-0.085
5312,-0.065,-0.075
5313,-0.055,-0.075
5314,-0.075,-0.075
5315,-0.075,-0.095
5316,-0.085,-0.095
5317,-0.075,-0.075
5318,-0.085,-0.095
5319,-0.085,-0.115
5320,-0.075,-0.105
5321,-0.085,-0.105
5322,-0.085,-0.115
5323,-0.095,-0.125
5324,-0.095,-0.125
5325,-0.095,-0.115
5326,-0.105,-0.125
5327,-0.095,-0.135
5328,-0.075,-0.125
5329,-0.085,-0.105
5330,-0.095,-0.125
5331,-0.095,-0.135
5332,-0.115,-0.125
5333,-0.105,-0.125
5334,-0.095,-0.135
5335,-0.105,-0.135
5336,-0.095,-0.125
5337,-0.095,-0.125
5338,-0.095,-0.125
5339,-0.085,-0.145
5340,-0.105,-0.135
5341,-0.095,-0.125
5342,-0.085,-0.135
5343,-0.075,-0.145
5344,-0.075,-0.135
5345,-0.075,-0.125
5346,-0.085,-0.135
5347,-0.085,-0.135
5348,-0.095,-0.125
5349,-0.085,-0.135
5350,-0.075,-0.145
5351,-0.045,-0.145
5352,0.015,-0.085
5353,0.065,-0.025
5354,0.075,-0.055
5355,0.025,-0.105
5356,-0.025,-0.105
5357,-0.065,-0.125
5358,-0.065,-0.135
5359,-0.095,-0.145
5360,-0.075,-0.145
5361,-0.095,-0.135
5362,-0.105,-0.145
5363,-0.095,-0.155
5364,-0.105,-0.145
5365,-0.085,-0.135
5366,-0.085,-0.135
5367,-0.085,-0.145
5368,-0.075,-0.135
5369,-0.055,-0.125
5370,-0.065,-0.105
5371,-0.285,-0.015
5372,-0.345,0.065
5373,0.155,0.485
5374,1.185,-0.145
5375,2.075,-0.915
5376,1.065,-0.915
5377,-0.195,-0.955
5378,-0.515,-0.675
5379,-0.395,-0.395
5380,-0.185,-0.185
5381,-0.065,-0.035
5382,-0.045,-0.025
5383,-0.065,-0.055
5384,-0.075,-0.055
5385,-0.075,-0.035
5386,-0.075,-0.025
5387,-0.075,-0.025
5388,-0.065,-0.035
5389,-0.085,-0.025
5390,-0.065,-0.005
5391,-0.065,-0.015
5392,-0.055,-0.015
5393,-0.035,-0.005
5394,-0.035,-0.005
5395,-0.035,-0.005
5396,-0.025,0.005
5397,-0.015,0.005
5398,0.015,0.015
5399,0.025,0.015
5400,0.035,0.025
5401,0.055,0.035
5402,0.065,0.055
5403,0.075,0.045
5404,0.115,0.055
5405,0.135,0.065
5406,0.175,0.085
5407,0.195,0.085
5408,0.245,0.085
5409,0.275,0.105
5410,0.315,0.115
5411,0.345,0.115
5412,0.405,0.115
5413,0.405,0.125
5414,0.435,0.125
5415,0.425,0.125
5416,0.395,0.125
5417,0.345,0.125
5418,0.265,0.085
5419,0.165,0.045
5420,0.105,0.005
5421,0.025,-0.025
5422,-0.015,-0.055
5423,-0.065,-0.095
5424,-0.095,-0.105
5425,-0.095,-0.105
5426,-0.115,-0.105
5427,-0.135,-0.125
5428,-0.125,-0.115
5429,-0.135,-0.105
5430,-0.135,-0.095
5431,-0.135,-0.115
5432,-0.125,-0.105
5433,-0.135,-0.095
5434,-0.135,-0.095
5435,-0.135,-0.105
5436,-0.135,-0.085
5437,-0.145,-0.085
5438,-0.135,-0.095
5439,-0.145,-0.105
5440,-0.145,-0.105
5441,-0.145,-0.105
5442,-0.155,-0.105
5443,-0.175,-0.125
5444,-0.145,-0.125
5445,-0.165,-0.115
5446,-0.165,-0.125
5447,-0.185,-0.135
5448,-0.185,-0.135
5449,-0.175,-0.125
5450,-0.185,-0.125
5451,-0.195,-0.145
5452,-0.185,-0.135
5453,-0.205,-0.135
5454,-0.195,-0.135
5455,-0.195,-0.145
5456,-0.195,-0.135
5457,-0.185,-0.145
5458,-0.195,-0.135
5459,-0.195,-0.135
5460,-0.195,-0.145
5461,-0.215,-0.145
5462,-0.205,-0.135
5463,-0.185,-0.135
5464,-0.175,-0.145
5465,-0.175,-0.145
5466,-0.195,-0.135
5467,-0.165,-0.145
5468,-0.115,-0.115
5469,-0.075,-0.045
5470,-0.035,-0.045
5471,-0.095,-0.105
5472,-0.125,-0.125
5473,-0.145,-0.135
5474,-0.155,-0.125
5475,-0.195,-0.145
5476,-0.195,-0.155
5477,-0.215,-0.155
5478,-0.205,-0.145
5479,-0.205,-0.145
5480,-0.195,-0.155
5481,-0.195,-0.145
5482,-0.195,-0.135
5483,-0.195,-0.135
5484,-0.175,-0.145
5485,-0.175,-0.125
5486,-0.185,-0.095
5487,-0.415,-0.005
5488,-0.335,0.135
5489,0.285,0.455
5490,1.395,-0.725
5491,1.735,-1.135
5492,0.295,-1.005
5493,-0.595,-0.865
5494,-0.525,-0.435
5495,-0.305,-0.175
5496,-0.155,-0.005
5497,-0.155,-0.015
5498,-0.185,-0.025
5499,-0.185,-0.045
5500,-0.195,-0.025
5501,-0.185,-0.015
5502,-0.185,-0.015
5503,-0.175,-0.015
5504,-0.165,0.005
5505,-0.165,0.015
5506,-0.165,0.015
5507,-0.165,0.015
5508,-0.165,0.025
5509,-0.145,0.035
5510,-0.125,0.045
5511,-0.115,0.035
5512,-0.105,0.055
5513,-0.095,0.065
5514,-0.085,0.065
5515,-0.065,0.065
5516,-0.075,0.075
5517,-0.035,0.105
5518,-0.005,0.115
5519,0.015,0.115
5520,0.055,0.125
5521,0.075,0.145
5522,0.115,0.155
5523,0.155,0.155
5524,0.185,0.165
5525,0.215,0.175
5526,0.275,0.185
5527,0.295,0.185
5528,0.335,0.195
5529,0.365,0.195
5530,0.355,0.205
5531,0.325,0.175
5532,0.275,0.155
5533,0.195,0.125
5534,0.115,0.085
5535,0.035,0.025
5536,-0.025,-0.015
5537,-0.065,-0.025
5538,-0.115,-0.055
5539,-0.145,-0.065
5540,-0.145,-0.075
5541,-0.155,-0.105
5542,-0.185,-0.095
5543,-0.195,-0.115
5544,-0.205,-0.115
5545,-0.195,-0.115
5546,-0.195,-0.095
5547,-0.195,-0.105
5548,-0.195,-0.105
5549,-0.215,-0.105
5550,-0.195,-0.075
5551,-0.195,-0.085
5552,-0.195,-0.095
5553,-0.185,-0.085
5554,-0.185,-0.085
5555,-0.195,-0.095
5556,-0.185,-0.095
5557,-0.195,-0.105
5558,-0.195,-0.095
5559,-0.195,-0.125
5560,-0.205,-0.125
5561,-0.195,-0.115
5562,-0.205,-0.115
5563,-0.215,-0.135
5564,-0.205,-0.135
5565,-0.215,-0.135
5566,-0.205,-0.135
5567,-0.225,-0.145
5568,-0.215,-0.145
5569,-0.205,-0.125
5570,-0.215,-0.135
5571,-0.215,-0.145
5572,-0.215,-0.145
5573,-0.215,-0.135
5574,-0.205,-0.135
5575,-0.205,-0.145
5576,-0.195,-0.135
5577,-0.185,-0.125
5578,-0.195,-0.135
5579,-0.205,-0.145
5580,-0.195,-0.155
5581,-0.135,-0.125
5582,-0.075,-0.055
5583,-0.045,-0.045
5584,-0.085,-0.105
5585,-0.125,-0.115
5586,-0.155,-0.135
5587,-0.175,-0.145
5588,-0.205,-0.145
5589,-0.205,-0.145
5590,-0.215,-0.155
5591,-0.215,-0.165
5592,-0.195,-0.145
5593,-0.205,-0.155
5594,-0.205,-0.155
5595,-0.205,-0.165
5596,-0.215,-0.155
5597,-0.195,-0.145
5598,-0.185,-0.135
5599,-0.145,-0.145
5600,-0.255,-0.055
5601,-0.455,-0.005
5602,-0.305,0.215
5603,0.375,0.375
5604,1.465,-0.705
5605,1.755,-1.085
5606,0.375,-1.015
5607,-0.575,-0.955
5608,-0.565,-0.535
5609,-0.365,-0.225
5610,-0.185,-0.055
5611,-0.155,-0.015
5612,-0.175,-0.035
5613,-0.175,-0.025
5614,-0.175,-0.035
5615,-0.185,-0.045
5616,-0.165,-0.025
5617,-0.165,-0.015
5618,-0.165,-0.015
5619,-0.165,-0.025
5620,-0.155,-0.005
5621,-0.155,0.005
5622,-0.135,0.005
5623,-0.125,-0.005
5624,-0.125,0.015
5625,-0.095,0.035
5626,-0.095,0.035
5627,-0.085,0.025
5628,-0.065,0.035
5629,-0.045,0.055
5630,-0.025,0.065
5631,-0.025,0.055
5632,-0.005,0.065
5633,0.035,0.085
5634,0.055,0.095
5635,0.075,0.095
5636,0.115,0.105
5637,0.135,0.125
5638,0.185,0.135
5639,0.225,0.135
5640,0.275,0.145
5641,0.325,0.155
5642,0.355,0.165
5643,0.385,0.155
5644,0.405,0.165
5645,0.395,0.165
5646,0.385,0.175
5647,0.315,0.145
5648,0.235,0.105
5649,0.175,0.075
5650,0.095,0.045
5651,0.035,-0.005
5652,-0.015,-0.045
5653,-0.085,-0.075
5654,-0.095,-0.075
5655,-0.105,-0.095
5656,-0.125,-0.115
5657,-0.135,-0.105
5658,-0.125,-0.115
5659,-0.135,-0.105
5660,-0.135,-0.115
5661,-0.165,-0.115
5662,-0.145,-0.095
5663,-0.155,-0.105
5664,-0.145,-0.105
5665,-0.125,-0.105
5666,-0.125,-0.085
5667,-0.125,-0.095
5668,-0.125,-0.105
5669,-0.155,-0.105
5670,-0.135,-0.085
5671,-0.115,-0.105
5672,-0.125,-0.115
5673,-0.115,-0.125
5674,-0.125,-0.115
5675,-0.135,-0.125
5676,-0.135,-0.135
5677,-0.145,-0.145
5678,-0.125,-0.135
5679,-0.145,-0.145
5680,-0.145,-0.145
5681,-0.125,-0.135
5682,-0.125,-0.135
5683,-0.135,-0.155
5684,-0.115,-0.145
5685,-0.135,-0.145
5686,-0.125,-0.145
5687,-0.095,-0.155
5688,-0.025,-0.075
5689,0.025,-0.045
5690,-0.025,-0.095
5691,-0.055,-0.135
5692,-0.105,-0.135
5693,-0.115,-0.145
5694,-0.135,-0.145
5695,-0.135,-0.165
5696,-0.125,-0.155
5697,-0.135,-0.155
5698,-0.135,-0.155
5699,-0.135,-0.165
5700,-0.155,-0.155
5701,-0.115,-0.145
5702,-0.125,-0.145
5703,-0.115,-0.155
5704,-0.105,-0.145
5705,-0.095,-0.125
5706,-0.065,-0.125
5707,-0.135,-0.085
5708,-0.405,-0.015
5709,-0.275,0.185
5710,0.415,0.495
5711,1.575,-0.485
5712,1.855,-0.965
5713,0.355,-0.985
5714,-0.465,-0.875
5715,-0.505,-0.585
5716,-0.315,-0.285
5717,-0.145,-0.105
5718,-0.085,-0.025
5719,-0.085,-0.055
5720,-0.095,-0.055
5721,-0.095,-0.045
5722,-0.095,-0.035
5723,-0.105,-0.045
5724,-0.075,-0.045
5725,-0.095,-0.025
5726,-0.085,-0.015
5727,-0.095,-0.025
5728,-0.065,-0.025
5729,-0.045,-0.005
5730,-0.045,-0.015
5731,-0.055,-0.015
5732,-0.025,-0.015
5733,-0.035,-0.005
5734,0.005,0.015
5735,0.005,0.005
5736,0.015,0.005
5737,0.045,0.035
5738,0.065,0.025
5739,0.065,0.035
5740,0.095,0.045
5741,0.115,0.045
5742,0.155,0.075
5743,0.195,0.065
5744,0.225,0.085
5745,0.275,0.095
5746,0.295,0.105
5747,0.345,0.085
5748,0.395,0.105
5749,0.435,0.105
5750,0.455,0.125
5751,0.455,0.115
5752,0.455,0.125
5753,0.405,0.125
5754,0.325,0.115
5755,0.235,0.065
5756,0.165,0.025
5757,0.085,-0.005
5758,0.035,-0.035
5759,-0.025,-0.075
5760,-0.055,-0.085
5761,-0.055,-0.085
5762,-0.075,-0.105
5763,-0.095,-0.105
5764,-0.075,-0.115
5765,-0.105,-0.095
5766,-0.085,-0.095
5767,-0.105,-0.105
5768,-0.085,-0.105
5769,-0.085,-0.075
5770,-0.085,-0.085
5771,-0.085,-0.085
5772,-0.075,-0.085
5773,-0.085,-0.075
5774,-0.075,-0.095
5775,-0.095,-0.105
5776,-0.095,-0.105
5777,-0.085,-0.095
5778,-0.085,-0.105
5779,-0.095,-0.125
5780,-0.105,-0.115
5781,-0.095,-0.105
5782,-0.095,-0.115
5783,-0.095,-0.135
5784,-0.105,-0.125
5785,-0.095,-0.125
5786,-0.115,-0.125
5787,-0.105,-0.145
5788,-0.105,-0.145
5789,-0.105,-0.145
5790,-0.085,-0.145
5791,-0.065,-0.155
5792,0.015,-0.075
5793,0.045,-0.045
5794,-0.015,-0.105
5795,-0.035,-0.115
5796,-0.045,-0.125
5797,-0.075,-0.135
5798,-0.095,-0.145
5799,-0.115,-0.165
5800,-0.105,-0.165
5801,-0.105,-0.155
5802,-0.105,-0.165
5803,-0.115,-0.165
5804,-0.125,-0.165
5805,-0.115,-0.145
5806,-0.105,-0.145
5807,-0.105,-0.155
5808,-0.095,-0.155
5809,-0.085,-0.135
5810,-0.055,-0.135
5811,-0.115,-0.095
5812,-0.375,0.005
5813,-0.285,0.155
5814,0.335,0.495
5815,1.435,-0.415
5816,2.055,-0.975
5817,0.595,-0.945
5818,-0.405,-0.855
5819,-0.525,-0.575
5820,-0.335,-0.275
5821,-0.145,-0.105
5822,-0.075,-0.025
5823,-0.085,-0.065
5824,-0.095,-0.055
5825,-0.105,-0.045
5826,-0.105,-0.045
5827,-0.105,-0.045
5828,-0.115,-0.035
5829,-0.095,-0.025
5830,-0.095,-0.025
5831,-0.095,-0.025
5832,-0.075,-0.015
5833,-0.075,-0.005
5834,-0.075,-0.005
5835,-0.075,-0.005
5836,-0.075,-0.005
5837,-0.035,0.015
5838,-0.025,0.005
5839,-0.015,0.015
5840,-0.005,0.025
5841,0.005,0.035
5842,0.015,0.035
5843,0.045,0.035
5844,0.045,0.055
5845,0.075,0.065
5846,0.105,0.075
5847,0.145,0.085
5848,0.185,0.095
5849,0.215,0.105
5850,0.245,0.115
5851,0.265,0.095
5852,0.285,0.105
5853,0.335,0.115
5854,0.345,0.125
5855,0.335,0.115
5856,0.305,0.125
5857,0.245,0.105
5858,0.145,0.065
5859,0.065,0.015
5860,-0.015,-0.005
5861,-0.055,-0.035
5862,-0.105,-0.065
5863,-0.135,-0.105
5864,-0.155,-0.105
5865,-0.165,-0.105
5866,-0.185,-0.125
5867,-0.195,-0.125
5868,-0.195,-0.125
5869,-0.195,-0.115
5870,-0.195,-0.115
5871,-0.205,-0.115
5872,-0.195,-0.105
5873,-0.195,-0.095
5874,-0.195,-0.095
5875,-0.195,-0.105
5876,-0.195,-0.095
5877,-0.205,-0.095
5878,-0.205,-0.085
5879,-0.205,-0.115
5880,-0.205,-0.105
5881,-0.195,-0.115
5882,-0.215,-0.105
5883,-0.225,-0.125
5884,-0.215,-0.135
5885,-0.235,-0.135
5886,-0.225,-0.135
5887,-0.235,-0.125
5888,-0.235,-0.155
5889,-0.225,-0.145
5890,-0.235,-0.135
5891,-0.235,-0.145
5892,-0.235,-0.155
5893,-0.255,-0.155
5894,-0.235,-0.155
5895,-0.225,-0.165
5896,-0.185,-0.135
5897,-0.125,-0.055
5898,-0.125,-0.075
5899,-0.195,-0.135
5900,-0.195,-0.145
5901,-0.225,-0.155
5902,-0.225,-0.155
5903,-0.255,-0.175
5904,-0.265,-0.175
5905,-0.255,-0.165
5906,-0.265,-0.165
5907,-0.265,-0.185
5908,-0.265,-0.175
5909,-0.275,-0.175
5910,-0.265,-0.165
5911,-0.265,-0.175
5912,-0.255,-0.175
5913,-0.235,-0.155
5914,-0.235,-0.155
5915,-0.235,-0.155
5916,-0.375,-0.025
5917,-0.535,0.025
5918,-0.125,0.505
5919,0.765,-0.275
5920,1.785,-1.025
5921,1.095,-1.025
5922,-0.365,-1.025
5923,-0.705,-0.745
5924,-0.505,-0.335
5925,-0.305,-0.105
5926,-0.225,-0.025
5927,-0.245,-0.065
5928,-0.255,-0.075
5929,-0.255,-0.045
5930,-0.255,-0.055
5931,-0.265,-0.055
5932,-0.245,-0.055
5933,-0.255,-0.035
5934,-0.245,-0.035
5935,-0.245,-0.045
5936,-0.225,-0.025
5937,-0.215,-0.015
5938,-0.215,-0.015
5939,-0.215,-0.015
5940,-0.205,-0.005
5941,-0.185,0.015
5942,-0.175,0.015
5943,-0.165,0.005
5944,-0.145,0.025
5945,-0.135,0.045
5946,-0.115,0.055
5947,-0.095,0.045
5948,-0.085,0.075
5949,-0.035,0.075
5950,-0.015,0.085
5951,0.025,0.095
5952,0.075,0.115
5953,0.115,0.125
5954,0.145,0.125
5955,0.185,0.125
5956,0.195,0.135
5957,0.245,0.155
5958,0.265,0.145
5959,0.245,0.135
5960,0.215,0.125
5961,0.145,0.115
5962,0.075,0.075
5963,-0.005,0.025
5964,-0.075,-0.015
5965,-0.135,-0.035
5966,-0.165,-0.075
5967,-0.205,-0.105
5968,-0.225,-0.125
5969,-0.235,-0.125
5970,-0.245,-0.125
5971,-0.255,-0.145
5972,-0.245,-0.135
5973,-0.255,-0.125
5974,-0.245,-0.125
5975,-0.245,-0.135
5976,-0.245,-0.115
5977,-0.235,-0.115
5978,-0.235,-0.105
5979,-0.245,-0.105
5980,-0.235,-0.105
5981,-0.255,-0.105
5982,-0.235,-0.105
5983,-0.235,-0.095
5984,-0.235,-0.115
5985,-0.225,-0.105
5986,-0.225,-0.105
5987,-0.225,-0.115
5988,-0.245,-0.115
5989,-0.225,-0.095
5990,-0.225,-0.105
5991,-0.235,-0.125
5992,-0.245,-0.135
5993,-0.255,-0.145
5994,-0.255,-0.155
5995,-0.245,-0.135
5996,-0.245,-0.145
5997,-0.255,-0.155
5998,-0.265,-0.155
5999,-0.255,-0.135
6000,-0.245,-0.145
6001,-0.260,-0.155
6002,-0.240,-0.145
6003,-0.260,-0.135
6004,-0.260,-0.155
6005,-0.250,-0.155
6006,-0.260,-0.145
6007,-0.250,-0.135
6008,-0.250,-0.155
6009,-0.240,-0.155
6010,-0.230,-0.145
6011,-0.230,-0.145
6012,-0.240,-0.165
6013,-0.240,-0.145
6014,-0.230,-0.135
6015,-0.230,-0.145
6016,-0.210,-0.155
6017,-0.200,-0.145
6018,-0.220,-0.145
6019,-0.200,-0.165
6020,-0.170,-0.155
6021,-0.110,-0.055
6022,-0.080,-0.065
6023,-0.160,-0.135
6024,-0.160,-0.135
6025,-0.170,-0.135
6026,-0.200,-0.135
6027,-0.220,-0.155
6028,-0.230,-0.155
6029,-0.220,-0.145
6030,-0.210,-0.145
6031,-0.210,-0.155
6032,-0.190,-0.145
6033,-0.190,-0.135
6034,-0.190,-0.145
6035,-0.175,-0.135
6036,-0.165,-0.125
6037,-0.135,-0.115
6038,-0.255,-0.065
6039,-0.455,-0.005
6040,-0.185,0.375
6041,0.535,0.255
6042,1.665,-0.825
6043,1.465,-1.075
6044,0.005,-1.025
6045,-0.585,-0.915
6046,-0.525,-0.485
6047,-0.295,-0.195
6048,-0.125,-0.035
6049,-0.125,-0.015
6050,-0.155,-0.025
6051,-0.165,-0.045
6052,-0.175,-0.035
6053,-0.145,-0.015
6054,-0.145,-0.015
6055,-0.145,-0.025
6056,-0.125,-0.005
6057,-0.125,0.005
6058,-0.125,0.005
6059,-0.125,-0.005
6060,-0.145,0.005
6061,-0.105,0.025
6062,-0.095,0.015
6063,-0.075,0.015
6064,-0.065,0.025
6065,-0.055,0.035
6066,-0.045,0.035
6067,-0.035,0.035
6068,-0.025,0.045
6069,0.015,0.055
6070,0.035,0.075
6071,0.045,0.075
6072,0.075,0.075
6073,0.115,0.095
6074,0.155,0.115
6075,0.195,0.105
6076,0.225,0.115
6077,0.255,0.125
6078,0.305,0.135
6079,0.345,0.135
6080,0.385,0.135
6081,0.425,0.165
6082,0.435,0.165
6083,0.425,0.165
6084,0.415,0.145
6085,0.325,0.145
6086,0.265,0.105
6087,0.185,0.075
6088,0.115,0.035
6089,0.065,0.015
6090,0.015,-0.025
6091,-0.035,-0.065
6092,-0.045,-0.085
6093,-0.075,-0.075
6094,-0.085,-0.085
6095,-0.095,-0.095
6096,-0.095,-0.085
6097,-0.085,-0.075
6098,-0.095,-0.075
6099,-0.095,-0.075
6100,-0.075,-0.075
6101,-0.085,-0.065
6102,-0.075,-0.065
6103,-0.085,-0.075
6104,-0.085,-0.075
6105,-0.065,-0.065
6106,-0.075,-0.065
6107,-0.085,-0.085
6108,-0.065,-0.075
6109,-0.065,-0.075
6110,-0.075,-0.075
6111,-0.085,-0.095
6112,-0.085,-0.095
6113,-0.065,-0.085
6114,-0.075,-0.095
6115,-0.075,-0.115
6116,-0.085,-0.115
6117,-0.085,-0.105
6118,-0.085,-0.115
6119,-0.085,-0.125
6120,-0.085,-0.125
6121,-0.065,-0.105
6122,-0.065,-0.115
6123,-0.075,-0.125
6124,-0.085,-0.125
6125,-0.095,-0.115
6126,-0.085,-0.125
6127,-0.075,-0.125
6128,-0.055,-0.125
6129,-0.055,-0.115
6130,-0.055,-0.115
6131,-0.065,-0.115
6132,-0.085,-0.125
6133,-0.055,-0.125
6134,-0.025,-0.125
6135,0.025,-0.065
6136,0.085,-0.035
6137,0.055,-0.065
6138,0.015,-0.095
6139,0.005,-0.105
6140,-0.045,-0.115
6141,-0.065,-0.125
6142,-0.055,-0.125
6143,-0.065,-0.135
6144,-0.045,-0.125
6145,-0.045,-0.115
6146,-0.055,-0.125
6147,-0.075,-0.135
6148,-0.055,-0.125
6149,-0.055,-0.105
6150,-0.035,-0.125
6151,-0.045,-0.125
6152,-0.025,-0.115
6153,-0.005,-0.095
6154,0.005,-0.095
6155,-0.175,-0.015
6156,-0.325,0.055
6157,-0.025,0.435
6158,0.865,0.255
6159,1.965,-0.715
6160,1.515,-0.915
6161,-0.025,-0.955
6162,-0.475,-0.695
6163,-0.365,-0.395
6164,-0.155,-0.155
6165,-0.025,-0.005
6166,-0.005,0.015
6167,-0.035,-0.025
6168,-0.045,-0.015
6169,-0.015,-0.005
6170,-0.025,0.005
6171,-0.035,-0.015
6172,-0.035,0.005
6173,-0.015,0.015
6174,-0.015,0.025
6175,-0.015,0.005
6176,0.005,0.015
6177,0.025,0.035
6178,0.015,0.035
6179,0.025,0.025
6180,0.025,0.035
6181,0.045,0.055
6182,0.065,0.055
6183,0.085,0.045
6184,0.115,0.065
6185,0.105,0.075
6186,0.125,0.075
6187,0.165,0.085
6188,0.175,0.085
6189,0.205,0.105
6190,0.245,0.105
6191,0.285,0.105
6192,0.345,0.105
6193,0.365,0.135
6194,0.405,0.125
6195,0.435,0.125
6196,0.465,0.125
6197,0.495,0.155
6198,0.515,0.145
6199,0.485,0.135
6200,0.445,0.155
6201,0.385,0.145
6202,0.305,0.125
6203,0.225,0.065
6204,0.175,0.045
6205,0.105,0.025
6206,0.055,-0.005
6207,0.005,-0.045
6208,-0.015,-0.055
6209,-0.015,-0.055
6210,-0.025,-0.055
6211,-0.055,-0.065
6212,-0.045,-0.065
6213,-0.065,-0.065
6214,-0.045,-0.045
6215,-0.055,-0.055
6216,-0.055,-0.055
6217,-0.045,-0.055
6218,-0.055,-0.035
6219,-0.055,-0.045
6220,-0.055,-0.055
6221,-0.065,-0.055
6222,-0.065,-0.045
6223,-0.055,-0.055
6224,-0.075,-0.065
6225,-0.075,-0.075
6226,-0.065,-0.055
6227,-0.085,-0.075
6228,-0.085,-0.095
6229,-0.085,-0.085
6230,-0.085,-0.075
6231,-0.085,-0.085
6232,-0.095,-0.105
6233,-0.095,-0.105
6234,-0.095,-0.095
6235,-0.105,-0.095
6236,-0.115,-0.115
6237,-0.105,-0.105
6238,-0.105,-0.105
6239,-0.105,-0.095
6240,-0.115,-0.125
6241,-0.085,-0.125
6242,-0.065,-0.085
6243,-0.015,-0.025
6244,0.005,-0.035
6245,-0.085,-0.095
6246,-0.075,-0.085
6247,-0.095,-0.105
6248,-0.115,-0.125
6249,-0.135,-0.125
6250,-0.155,-0.115
6251,-0.155,-0.125
6252,-0.155,-0.125
6253,-0.175,-0.125
6254,-0.155,-0.115
6255,-0.155,-0.125
6256,-0.155,-0.125
6257,-0.145,-0.115
6258,-0.155,-0.115
6259,-0.155,-0.125
6260,-0.145,-0.105
6261,-0.125,-0.105
6262,-0.195,-0.025
6263,-0.445,0.035
6264,-0.235,0.335
6265,0.605,0.245
6266,1.735,-0.785
6267,1.565,-1.015
6268,-0.025,-0.985
6269,-0.615,-0.725
6270,-0.485,-0.355
6271,-0.265,-0.125
6272,-0.145,-0.005
6273,-0.145,-0.005
6274,-0.165,-0.015
6275,-0.175,-0.025
6276,-0.185,-0.015
6277,-0.175,-0.005
6278,-0.165,0.005
6279,-0.165,0.005
6280,-0.145,0.015
6281,-0.155,0.025
6282,-0.145,0.025
6283,-0.145,0.025
6284,-0.155,0.035
6285,-0.125,0.055
6286,-0.115,0.045
6287,-0.095,0.045
6288,-0.075,0.055
6289,-0.075,0.065
6290,-0.055,0.075
6291,-0.045,0.075
6292,-0.045,0.095
6293,-0.015,0.105
6294,0.015,0.105
6295,0.045,0.115
6296,0.085,0.135
6297,0.115,0.145
6298,0.145,0.155
6299,0.175,0.155
6300,0.195,0.165
6301,0.245,0.175
6302,0.285,0.175
6303,0.315,0.155
6304,0.345,0.175
6305,0.345,0.185
6306,0.315,0.175
6307,0.255,0.135
6308,0.175,0.115
6309,0.105,0.085
6310,0.045,0.035
6311,-0.025,-0.015
6312,-0.065,-0.035
6313,-0.095,-0.045
6314,-0.125,-0.075
6315,-0.155,-0.105
6316,-0.155,-0.105
6317,-0.175,-0.095
6318,-0.165,-0.105
6319,-0.185,-0.115
6320,-0.175,-0.105
6321,-0.165,-0.085
6322,-0.165,-0.085
6323,-0.175,-0.095
6324,-0.145,-0.085
6325,-0.165,-0.075
6326,-0.165,-0.065
6327,-0.165,-0.095
6328,-0.155,-0.075
6329,-0.145,-0.075
6330,-0.155,-0.075
6331,-0.175,-0.095
6332,-0.155,-0.095
6333,-0.175,-0.095
6334,-0.155,-0.105
6335,-0.175,-0.115
6336,-0.175,-0.115
6337,-0.165,-0.115
6338,-0.165,-0.115
6339,-0.185,-0.135
6340,-0.165,-0.135
6341,-0.185,-0.125
6342,-0.175,-0.125
6343,-0.195,-0.145
6344,-0.185,-0.145
6345,-0.185,-0.125
6346,-0.175,-0.135
6347,-0.185,-0.145
6348,-0.185,-0.135
6349,-0.185,-0.125
6350,-0.175,-0.135
6351,-0.185,-0.135
6352,-0.175,-0.135
6353,-0.175,-0.135
6354,-0.165,-0.135
6355,-0.175,-0.145
6356,-0.185,-0.135
6357,-0.175,-0.125
6358,-0.165,-0.135
6359,-0.165,-0.145
6360,-0.165,-0.135
6361,-0.155,-0.125
6362,-0.165,-0.135
6363,-0.165,-0.145
6364,-0.175,-0.135
6365,-0.155,-0.125
6366,-0.155,-0.135
6367,-0.145,-0.165
6368,-0.125,-0.145
6369,-0.075,-0.075
6370,-0.025,-0.045
6371,-0.055,-0.105
6372,-0.135,-0.125
6373,-0.115,-0.115
6374,-0.135,-0.125
6375,-0.145,-0.145
6376,-0.145,-0.135
6377,-0.165,-0.145
6378,-0.165,-0.135
6379,-0.165,-0.155
6380,-0.185,-0.145
6381,-0.165,-0.135
6382,-0.155,-0.145
6383,-0.155,-0.145
6384,-0.145,-0.145
6385,-0.135,-0.115
6386,-0.115,-0.125
6387,-0.145,-0.095
6388,-0.355,0.005
6389,-0.355,0.085
6390,0.115,0.535
6391,0.995,-0.425
6392,1.855,-1.035
6393,1.045,-0.985
6394,-0.235,-1.035
6395,-0.575,-0.775
6396,-0.425,-0.365
6397,-0.225,-0.125
6398,-0.115,-0.005
6399,-0.125,-0.025
6400,-0.145,-0.035
6401,-0.135,-0.025
6402,-0.145,-0.025
6403,-0.155,-0.025
6404,-0.135,-0.025
6405,-0.155,-0.005
6406,-0.135,-0.005
6407,-0.145,-0.005
6408,-0.125,-0.005
6409,-0.115,0.015
6410,-0.115,0.015
6411,-0.115,0.005
6412,-0.085,0.015
6413,-0.095,0.025
6414,-0.075,0.035
6415,-0.065,0.025
6416,-0.045,0.025
6417,-0.025,0.045
6418,-0.015,0.055
6419,-0.005,0.055
6420,0.025,0.075
6421,0.035,0.085
6422,0.075,0.095
6423,0.105,0.085
6424,0.135,0.105
6425,0.185,0.125
6426,0.225,0.135
6427,0.255,0.125
6428,0.305,0.135
6429,0.335,0.145
6430,0.375,0.155
6431,0.385,0.145
6432,0.385,0.155
6433,0.365,0.155
6434,0.295,0.125
6435,0.215,0.075
6436,0.145,0.035
6437,0.065,0.015
6438,0.015,-0.025
6439,-0.045,-0.065
6440,-0.085,-0.095
6441,-0.095,-0.095
6442,-0.115,-0.115
6443,-0.135,-0.125
6444,-0.125,-0.135
6445,-0.145,-0.115
6446,-0.145,-0.125
6447,-0.155,-0.125
6448,-0.145,-0.125
6449,-0.135,-0.105
6450,-0.135,-0.095
6451,-0.145,-0.115
6452,-0.135,-0.105
6453,-0.145,-0.095
6454,-0.135,-0.095
6455,-0.145,-0.125
6456,-0.135,-0.105
6457,-0.125,-0.115
6458,-0.135,-0.115
6459,-0.135,-0.125
6460,-0.135,-0.125
6461,-0.145,-0.125
6462,-0.145,-0.125
6463,-0.155,-0.145
6464,-0.145,-0.145
6465,-0.145,-0.135
6466,-0.145,-0.145
6467,-0.145,-0.165
6468,-0.155,-0.155
6469,-0.145,-0.145
6470,-0.155,-0.145
6471,-0.155,-0.165
6472,-0.135,-0.145
6473,-0.135,-0.135
6474,-0.145,-0.145
6475,-0.135,-0.155
6476,-0.155,-0.155
6477,-0.145,-0.135
6478,-0.135,-0.145
6479,-0.145,-0.155
6480,-0.135,-0.155
6481,-0.135,-0.135
6482,-0.135,-0.145
6483,-0.135,-0.155
6484,-0.145,-0.155
6485,-0.135,-0.145
6486,-0.125,-0.145
6487,-0.125,-0.155
6488,-0.125,-0.145
6489,-0.125,-0.135
6490,-0.125,-0.135
6491,-0.125,-0.145
6492,-0.105,-0.135
6493,-0.105,-0.145
6494,-0.105,-0.135
6495,-0.115,-0.155
6496,-0.105,-0.145
6497,-0.095,-0.125
6498,-0.105,-0.135
6499,-0.115,-0.145
6500,-0.095,-0.135
6501,-0.115,-0.125
6502,-0.085,-0.125
6503,-0.095,-0.135
6504,-0.085,-0.135
6505,-0.065,-0.125
6506,-0.075,-0.125
6507,-0.095,-0.135
6508,-0.085,-0.135
6509,-0.095,-0.125
6510,-0.085,-0.115
6511,-0.085,-0.125
6512,-0.075,-0.125
6513,-0.055,-0.115
6514,-0.065,-0.115
6515,-0.075,-0.125
6516,-0.075,-0.125
6517,-0.075,-0.125
6518,-0.055,-0.105
6519,-0.065,-0.125
6520,-0.055,-0.115
6521,-0.035,-0.115
6522,-0.055,-0.105
6523,-0.055,-0.125
6524,-0.025,-0.105
6525,-0.055,-0.105
6526,-0.065,-0.115
6527,-0.035,-0.145
6528,0.015,-0.095
6529,0.095,-0.005
6530,0.095,-0.025
6531,0.035,-0.095
6532,0.025,-0.105
6533,-0.015,-0.105
6534,-0.035,-0.115
6535,-0.055,-0.135
6536,-0.055,-0.125
6537,-0.055,-0.115
