'sample interval','ECG0','ECG1'
'0.0078125 sec','mV','mV'
0,0.060,0.050
1,0.060,0.000
2,0.070,-0.050
3,0.080,-0.220
4,0.080,-0.180
5,0.090,-0.220
6,0.080,-0.170
7,0.090,-0.280
8,0.020,-0.110
9,0.130,1.110
10,0.040,3.950
11,0.650,5.000
12,-0.300,3.620
13,-0.480,-0.490
14,-0.260,-0.760
15,-0.480,-0.470
16,-0.320,-0.240
17,0.040,-0.240
18,0.020,-0.270
19,0.040,-0.280
20,0.050,-0.300
21,0.060,-0.240
22,0.060,-0.280
23,0.060,-0.230
24,0.040,-0.280
25,0.050,-0.230
26,0.040,-0.230
27,0.050,-0.170
28,0.050,-0.210
29,0.030,-0.170
30,0.030,-0.150
31,0.010,-0.110
32,0.010,-0.080
33,-0.010,-0.100
34,-0.040,-0.060
35,-0.060,-0.070
36,-0.080,-0.010
37,-0.110,-0.100
38,-0.140,-0.090
39,-0.170,-0.170
40,-0.210,-0.150
41,-0.200,-0.240
42,-0.210,-0.240
43,-0.200,-0.280
44,-0.190,-0.190
45,-0.160,-0.160
46,-0.110,-0.150
47,-0.060,-0.080
48,-0.030,-0.090
49,0.010,-0.030
50,0.040,-0.080
51,0.050,-0.040
52,0.060,-0.130
53,0.070,-0.020
54,0.080,-0.080
55,0.080,-0.060
56,0.070,-0.110
57,0.060,-0.060
58,0.060,-0.090
59,0.070,-0.080
60,0.070,-0.130
61,0.060,-0.160
62,0.060,-0.110
63,0.060,-0.160
64,0.070,-0.160
65,0.060,-0.210
66,0.060,-0.170
67,0.060,-0.230
68,0.070,-0.180
69,0.060,-0.270
70,0.070,-0.260
71,0.070,-0.260
72,0.050,-0.240
73,0.070,-0.280
74,0.070,-0.270
75,0.080,-0.260
76,0.060,-0.280
77,0.070,-0.250
78,0.080,-0.300
79,0.070,-0.270
80,0.080,-0.280
81,0.060,-0.230
82,0.080,-0.290
83,0.070,-0.230
84,0.080,-0.260
85,0.070,-0.180
86,0.080,-0.210
87,0.090,-0.100
88,0.130,-0.150
89,0.060,-0.020
90,0.130,0.000
91,0.090,0.210
92,0.180,0.160
93,0.110,0.170
94,0.110,0.140
95,0.050,0.040
96,0.000,0.050
97,-0.010,-0.030
98,0.010,-0.080
99,0.030,-0.170
100,0.030,-0.150
101,0.010,-0.190
102,0.020,-0.140
103,-0.010,-0.250
104,-0.030,0.880
105,-0.020,3.060
106,0.370,5.110
107,-0.140,4.250
108,-0.430,0.910
109,-0.280,-0.970
110,-0.580,-0.570
111,-0.440,-0.170
112,-0.120,-0.250
113,-0.100,-0.220
114,-0.100,-0.280
115,-0.080,-0.260
116,-0.070,-0.270
117,-0.080,-0.210
118,-0.050,-0.260
119,-0.070,-0.220
120,-0.070,-0.260
121,-0.090,-0.200
122,-0.080,-0.210
123,-0.090,-0.190
124,-0.080,-0.220
125,-0.080,-0.160
126,-0.100,-0.140
127,-0.110,-0.140
128,-0.130,-0.110
129,-0.140,-0.140
130,-0.170,-0.070
131,-0.190,-0.120
132,-0.200,-0.100
133,-0.230,-0.190
134,-0.270,-0.130
135,-0.290,-0.220
136,-0.290,-0.230
137,-0.280,-0.310
138,-0.280,-0.210
139,-0.250,-0.240
140,-0.220,-0.130
141,-0.190,-0.140
142,-0.140,-0.100
143,-0.080,-0.050
144,-0.060,-0.020
145,-0.020,-0.020
146,-0.010,-0.080
147,-0.010,0.000
148,0.000,-0.040
149,0.000,0.000
150,0.010,-0.070
151,0.000,-0.030
152,-0.020,-0.070
153,-0.020,0.000
154,-0.010,-0.090
155,-0.020,-0.030
156,-0.020,-0.070
157,-0.030,-0.030
158,-0.020,-0.050
159,-0.040,-0.080
160,-0.010,-0.090
161,-0.040,-0.060
162,-0.040,-0.070
163,-0.030,-0.100
164,-0.040,-0.080
165,-0.010,-0.120
166,-0.030,-0.080
167,-0.010,-0.140
168,-0.020,-0.090
169,-0.010,-0.180
170,-0.010,-0.080
171,0.000,-0.100
172,-0.010,-0.110
173,0.000,-0.170
174,-0.020,-0.140
175,-0.040,-0.140
176,-0.020,-0.120
177,-0.020,-0.110
178,-0.020,-0.090
179,0.010,-0.020
180,-0.010,0.010
181,0.030,0.060
182,0.010,0.190
183,0.080,0.230
184,0.030,0.190
185,0.000,0.170
186,0.000,0.050
187,-0.070,0.030
188,-0.080,0.000
189,-0.080,-0.100
190,-0.060,-0.210
191,-0.050,-0.200
192,-0.060,-0.170
193,-0.070,-0.160
194,-0.090,-0.270
195,-0.110,0.690
196,-0.050,2.820
197,0.150,5.110
198,-0.120,4.800
199,-0.540,1.730
200,-0.340,-1.050
201,-0.550,-0.610
202,-0.490,-0.190
203,-0.190,-0.260
204,-0.090,-0.250
205,-0.070,-0.320
206,-0.090,-0.230
207,-0.060,-0.270
208,-0.060,-0.270
209,-0.050,-0.240
210,-0.050,-0.250
211,-0.040,-0.200
212,-0.040,-0.230
213,-0.040,-0.190
214,-0.040,-0.230
215,-0.050,-0.120
216,-0.050,-0.180
217,-0.050,-0.110
218,-0.050,-0.150
219,-0.080,-0.090
220,-0.090,-0.110
221,-0.090,-0.060
222,-0.110,-0.110
223,-0.130,-0.130
224,-0.150,-0.130
225,-0.180,-0.170
226,-0.180,-0.230
227,-0.210,-0.300
228,-0.200,-0.280
229,-0.200,-0.300
230,-0.180,-0.210
231,-0.150,-0.230
232,-0.120,-0.150
233,-0.080,-0.130
234,-0.060,-0.050
235,-0.020,-0.110
236,0.000,-0.090
237,0.020,-0.090
238,0.020,-0.080
239,0.040,-0.080
240,0.040,-0.110
241,0.040,-0.110
242,0.040,-0.090
243,0.030,-0.070
244,0.050,-0.140
245,0.030,-0.080
246,0.050,-0.140
247,0.030,-0.080
248,0.030,-0.130
249,0.030,-0.100
250,0.030,-0.160
251,0.040,-0.110
252,0.020,-0.120
253,0.040,-0.140
254,0.050,-0.140
255,0.040,-0.170
256,0.050,-0.120
257,0.050,-0.160
258,0.060,-0.140
259,0.070,-0.210
260,0.050,-0.130
261,0.060,-0.200
262,0.060,-0.160
263,0.070,-0.220
264,0.080,-0.190
265,0.070,-0.190
266,0.070,-0.170
267,0.100,-0.200
268,0.090,-0.220
269,0.090,-0.150
270,0.100,-0.150
271,0.140,-0.080
272,0.150,-0.110
273,0.120,-0.030
274,0.150,0.050
275,0.220,0.210
276,0.210,0.120
277,0.150,0.140
278,0.150,0.030
279,0.060,0.010
280,0.050,-0.020
281,0.060,-0.080
282,0.080,-0.260
283,0.070,-0.230
284,0.060,-0.220
285,0.070,-0.250
286,0.070,-0.290
287,-0.010,-0.200
288,0.090,1.150
289,0.050,4.020
290,0.630,5.110
291,-0.290,3.650
292,-0.540,-0.400
293,-0.310,-0.810
294,-0.500,-0.510
295,-0.340,-0.270
296,0.020,-0.300
297,0.020,-0.300
298,0.060,-0.330
299,0.060,-0.300
300,0.060,-0.360
301,0.070,-0.260
302,0.080,-0.310
303,0.070,-0.270
304,0.080,-0.310
305,0.070,-0.240
306,0.070,-0.260
307,0.080,-0.220
308,0.070,-0.230
309,0.070,-0.210
310,0.080,-0.150
311,0.060,-0.140
312,0.050,-0.110
313,0.030,-0.130
314,0.020,-0.060
315,-0.020,-0.110
316,-0.030,-0.070
317,-0.070,-0.160
318,-0.090,-0.170
319,-0.130,-0.210
320,-0.120,-0.210
321,-0.140,-0.300
322,-0.120,-0.270
323,-0.110,-0.250
324,-0.090,-0.200
325,-0.040,-0.140
326,0.000,-0.130
327,0.020,-0.090
328,0.070,-0.070
329,0.100,-0.030
330,0.110,-0.100
331,0.120,-0.060
332,0.130,-0.100
333,0.120,-0.030
334,0.130,-0.070
335,0.120,-0.050
336,0.120,-0.100
337,0.120,-0.050
338,0.110,-0.060
339,0.110,-0.070
340,0.130,-0.070
341,0.120,-0.110
342,0.120,-0.060
343,0.130,-0.100
344,0.130,-0.100
345,0.130,-0.150
346,0.120,-0.070
347,0.130,-0.140
348,0.120,-0.100
349,0.140,-0.140
350,0.130,-0.140
351,0.130,-0.120
352,0.130,-0.120
353,0.130,-0.130
354,0.140,-0.170
355,0.130,-0.110
356,0.130,-0.160
357,0.130,-0.120
358,0.140,-0.180
359,0.130,-0.150
360,0.120,-0.160
361,0.120,-0.110
362,0.140,-0.190
363,0.120,-0.160
364,0.130,-0.130
365,0.150,-0.070
366,0.180,-0.050
367,0.140,-0.020
368,0.200,0.050
369,0.210,0.200
370,0.230,0.200
371,0.170,0.130
372,0.170,0.100
373,0.070,0.010
374,0.060,0.040
375,0.080,-0.040
376,0.090,-0.190
377,0.080,-0.260
378,0.080,-0.190
379,0.060,-0.180
380,0.080,-0.230
381,0.020,-0.270
382,0.060,0.910
383,0.040,3.570
384,0.620,5.060
385,-0.280,3.860
386,-0.480,-0.120
387,-0.290,-0.800
388,-0.540,-0.510
389,-0.350,-0.230
390,0.000,-0.330
391,0.000,-0.290
392,0.010,-0.310
393,0.020,-0.270
394,0.040,-0.290
395,0.040,-0.290
396,0.030,-0.230
397,0.030,-0.230
398,0.030,-0.220
399,0.030,-0.230
400,0.020,-0.180
401,0.010,-0.190
402,0.010,-0.130
403,0.010,-0.170
404,0.000,-0.120
405,-0.010,-0.110
406,-0.030,-0.040
407,-0.030,-0.090
408,-0.070,-0.060
409,-0.100,-0.080
410,-0.120,-0.070
411,-0.140,-0.080
412,-0.170,-0.150
413,-0.190,-0.190
414,-0.200,-0.210
415,-0.210,-0.210
416,-0.190,-0.270
417,-0.180,-0.190
418,-0.140,-0.190
419,-0.110,-0.070
420,-0.060,-0.070
421,-0.020,-0.020
422,0.020,-0.080
423,0.040,0.000
424,0.050,-0.030
425,0.060,-0.040
426,0.080,-0.050
427,0.070,-0.040
428,0.060,-0.010
429,0.070,-0.030
430,0.060,-0.020
431,0.080,-0.090
432,0.070,-0.010
433,0.050,-0.060
434,0.060,-0.030
435,0.070,-0.080
436,0.050,-0.050
437,0.060,-0.070
438,0.060,-0.050
439,0.060,-0.100
440,0.060,-0.100
441,0.060,-0.070
442,0.040,-0.070
443,0.040,-0.110
444,0.040,-0.130
445,0.040,-0.110
446,0.030,-0.130
447,0.040,-0.080
448,0.020,-0.150
449,0.030,-0.120
450,0.010,-0.130
451,0.020,-0.090
452,0.000,-0.150
453,0.010,-0.100
454,0.000,-0.160
455,-0.010,-0.100
456,0.010,-0.120
457,-0.010,-0.110
458,0.000,-0.080
459,0.030,0.000
460,0.020,0.030
461,0.010,0.030
462,0.010,0.200
463,0.110,0.190
464,0.040,0.270
465,0.010,0.170
466,-0.020,0.150
467,-0.090,0.030
468,-0.110,0.090
469,-0.100,-0.060
470,-0.060,-0.160
471,-0.060,-0.210
472,-0.090,-0.160
473,-0.090,-0.170
474,-0.100,-0.290
475,-0.190,0.320
476,-0.040,1.960
477,-0.030,4.800
478,0.170,4.690
479,-0.490,2.510
480,-0.520,-1.160
481,-0.570,-0.620
482,-0.530,-0.300
483,-0.340,-0.180
484,-0.140,-0.290
485,-0.140,-0.260
486,-0.130,-0.270
487,-0.140,-0.240
488,-0.100,-0.270
489,-0.130,-0.260
490,-0.130,-0.250
491,-0.120,-0.220
492,-0.110,-0.180
493,-0.130,-0.240
494,-0.130,-0.190
495,-0.130,-0.190
496,-0.130,-0.140
497,-0.120,-0.170
498,-0.130,-0.090
499,-0.140,-0.160
500,-0.180,-0.050
501,-0.200,-0.080
502,-0.200,-0.070
503,-0.240,-0.120
504,-0.290,-0.080
505,-0.320,-0.120
506,-0.310,-0.170
507,-0.340,-0.190
508,-0.380,-0.290
509,-0.360,-0.210
510,-0.350,-0.240
511,-0.320,-0.170
512,-0.280,-0.200
513,-0.240,-0.070
514,-0.200,-0.090
515,-0.180,-0.020
516,-0.150,-0.080
517,-0.160,-0.060
518,-0.120,-0.070
519,-0.110,-0.040
520,-0.110,-0.070
521,-0.120,-0.060
522,-0.120,-0.050
523,-0.130,-0.070
524,-0.130,-0.030
525,-0.130,-0.090
526,-0.110,-0.080
527,-0.130,-0.100
528,-0.120,-0.050
529,-0.110,-0.110
530,-0.110,-0.080
531,-0.110,-0.100
532,-0.130,-0.080
533,-0.120,-0.090
534,-0.110,-0.140
535,-0.120,-0.120
536,-0.110,-0.130
537,-0.080,-0.110
538,-0.100,-0.160
539,-0.090,-0.140
540,-0.090,-0.190
541,-0.090,-0.130
542,-0.070,-0.170
543,-0.080,-0.140
544,-0.070,-0.200
545,-0.080,-0.130
546,-0.070,-0.190
547,-0.080,-0.160
548,-0.060,-0.180
549,-0.060,-0.160
550,-0.030,-0.080
551,-0.020,-0.050
552,-0.010,-0.010
553,-0.020,0.070
554,0.080,0.170
555,0.020,0.100
556,0.000,0.120
557,0.010,-0.020
558,-0.100,-0.020
559,-0.110,-0.050
560,-0.090,-0.130
561,-0.080,-0.280
562,-0.090,-0.300
563,-0.120,-0.280
564,-0.110,-0.280
565,-0.100,-0.350
566,-0.220,-0.070
567,-0.100,1.400
568,-0.140,4.370
569,0.240,5.110
570,-0.550,3.390
571,-0.560,-0.810
572,-0.530,-0.700
573,-0.540,-0.490
574,-0.480,-0.310
575,-0.170,-0.380
576,-0.180,-0.410
577,-0.170,-0.380
578,-0.140,-0.360
579,-0.130,-0.400
580,-0.130,-0.350
581,-0.130,-0.390
582,-0.130,-0.310
583,-0.120,-0.340
584,-0.120,-0.300
585,-0.110,-0.360
586,-0.120,-0.250
587,-0.120,-0.280
588,-0.120,-0.260
589,-0.110,-0.260
590,-0.130,-0.240
591,-0.120,-0.190
592,-0.130,-0.200
593,-0.160,-0.180
594,-0.170,-0.260
595,-0.190,-0.190
596,-0.210,-0.270
597,-0.210,-0.280
598,-0.220,-0.380
599,-0.250,-0.390
600,-0.240,-0.420
601,-0.230,-0.360
602,-0.200,-0.390
603,-0.180,-0.340
604,-0.140,-0.260
605,-0.130,-0.240
606,-0.090,-0.210
607,-0.060,-0.240
608,-0.040,-0.220
609,-0.010,-0.240
610,0.000,-0.200
611,0.000,-0.290
612,0.010,-0.230
613,0.000,-0.260
614,0.000,-0.210
615,0.010,-0.250
616,0.010,-0.240
617,0.010,-0.260
618,0.020,-0.230
619,0.010,-0.220
620,0.020,-0.270
621,0.020,-0.260
622,0.020,-0.280
623,0.020,-0.230
624,0.030,-0.310
625,0.020,-0.260
626,0.030,-0.350
627,0.020,-0.250
628,0.030,-0.300
629,0.030,-0.300
630,0.030,-0.340
631,0.020,-0.320
632,0.020,-0.330
633,0.030,-0.340
634,0.030,-0.330
635,0.030,-0.390
636,0.030,-0.320
637,0.030,-0.380
638,0.040,-0.340
639,0.030,-0.390
640,0.040,-0.320
641,0.040,-0.310
642,0.100,-0.250
643,0.080,-0.260
644,0.090,-0.200
645,0.080,-0.010
646,0.180,-0.060
647,0.110,-0.030
648,0.080,-0.110
649,0.070,-0.140
650,-0.020,-0.210
651,-0.010,-0.170
652,0.010,-0.360
653,0.010,-0.420
654,0.030,-0.450
655,0.020,-0.390
656,0.050,-0.420
657,0.010,-0.540
658,-0.070,-0.190
659,0.070,1.250
660,0.070,4.360
661,0.410,4.730
662,-0.370,2.830
663,-0.560,-1.250
664,-0.450,-0.860
665,-0.460,-0.620
666,-0.270,-0.440
667,-0.020,-0.570
668,-0.030,-0.500
669,-0.010,-0.530
670,0.020,-0.530
671,0.000,-0.540
672,0.010,-0.520
673,0.020,-0.500
674,0.030,-0.490
675,0.020,-0.480
676,0.020,-0.520
677,0.020,-0.430
678,0.020,-0.450
679,0.020,-0.410
680,0.020,-0.450
681,0.000,-0.360
682,0.010,-0.390
683,0.010,-0.320
684,-0.010,-0.350
685,-0.040,-0.350
686,-0.050,-0.310
687,-0.090,-0.330
688,-0.100,-0.360
689,-0.140,-0.420
690,-0.160,-0.450
691,-0.180,-0.500
692,-0.170,-0.470
693,-0.170,-0.530
694,-0.140,-0.460
695,-0.100,-0.410
696,-0.070,-0.320
697,-0.010,-0.350
698,0.030,-0.300
699,0.060,-0.320
700,0.100,-0.280
701,0.110,-0.290
702,0.130,-0.300
703,0.150,-0.290
704,0.130,-0.290
705,0.120,-0.250
706,0.140,-0.320
707,0.130,-0.280
708,0.130,-0.340
709,0.120,-0.270
710,0.120,-0.310
711,0.120,-0.300
712,0.130,-0.350
713,0.120,-0.290
714,0.120,-0.320
715,0.130,-0.340
716,0.130,-0.340
717,0.140,-0.380
718,0.170,-0.620
719,0.110,-0.840
720,0.040,-1.190
721,-0.070,-1.240
722,-0.190,-0.660
723,-0.470,-0.130
724,-0.830,1.290
725,-1.090,2.520
726,-1.200,3.320
727,-1.550,3.480
728,-1.930,2.590
729,-1.980,0.140
730,-1.880,-1.720
731,-0.930,-1.410
732,-1.120,-1.410
733,-0.900,-1.120
734,-0.870,-0.940
735,-0.580,-0.590
736,-0.140,-0.280
737,0.250,-0.090
738,0.360,0.070
739,0.590,0.100
740,0.530,0.130
741,0.600,0.180
742,0.640,0.110
743,0.600,0.130
744,0.630,0.090
745,0.680,0.070
746,0.760,-0.050
747,0.820,-0.090
748,0.890,-0.080
749,0.930,-0.070
750,1.040,-0.030
751,1.160,-0.070
752,1.260,-0.020
753,1.390,-0.080
754,1.530,0.050
755,1.620,0.020
756,1.710,0.100
757,1.740,0.070
758,1.710,0.180
759,1.610,0.170
760,1.430,0.130
761,1.180,0.030
762,0.890,-0.100
763,0.670,-0.150
764,0.480,-0.260
765,0.350,-0.310
766,0.280,-0.390
767,0.220,-0.350
768,0.180,-0.410
769,0.170,-0.360
770,0.170,-0.430
771,0.150,-0.380
772,0.150,-0.380
773,0.150,-0.340
774,0.150,-0.390
775,0.130,-0.360
776,0.130,-0.340
777,0.110,-0.320
778,0.120,-0.310
779,0.120,-0.350
780,0.100,-0.330
781,0.080,-0.330
782,0.080,-0.280
783,0.070,-0.350
784,0.080,-0.300
785,0.070,-0.350
786,0.070,-0.290
787,0.070,-0.340
788,0.060,-0.310
789,0.050,-0.360
790,0.040,-0.310
791,0.050,-0.310
792,0.050,-0.340
793,0.060,-0.320
794,0.070,-0.360
795,0.070,-0.320
796,0.060,-0.360
797,0.070,-0.320
798,0.080,-0.390
799,0.080,-0.280
800,0.080,-0.350
801,0.090,-0.310
802,0.090,-0.360
803,0.090,-0.330
804,0.090,-0.340
805,0.090,-0.330
806,0.110,-0.350
807,0.090,-0.370
808,0.100,-0.320
809,0.100,-0.340
810,0.110,-0.310
811,0.110,-0.350
812,0.110,-0.300
813,0.100,-0.340
814,0.110,-0.280
815,0.120,-0.350
816,0.110,-0.310
817,0.120,-0.310
818,0.110,-0.280
819,0.120,-0.320
820,0.120,-0.290
821,0.120,-0.300
822,0.100,-0.270
823,0.110,-0.250
824,0.110,-0.300
825,0.110,-0.270
826,0.100,-0.230
827,0.120,-0.140
828,0.130,-0.170
829,0.140,-0.090
830,0.130,-0.040
831,0.220,0.120
832,0.180,0.050
833,0.130,0.080
834,0.120,-0.060
835,0.030,-0.040
836,0.030,-0.070
837,0.030,-0.140
838,0.070,-0.270
839,0.060,-0.300
840,0.050,-0.260
841,0.050,-0.290
842,0.040,-0.420
843,-0.100,-0.090
844,0.050,1.400
845,0.040,4.320
846,0.410,4.820
847,-0.250,2.940
848,-0.200,-0.960
849,-0.330,-0.620
850,-0.360,-0.400
851,-0.220,-0.350
852,-0.020,-0.410
853,-0.040,-0.410
854,-0.020,-0.420
855,0.000,-0.390
856,0.010,-0.430
857,0.010,-0.410
858,0.010,-0.390
859,0.010,-0.340
860,0.020,-0.400
861,0.010,-0.350
862,0.000,-0.340
863,-0.010,-0.310
864,0.010,-0.300
865,-0.010,-0.300
866,-0.020,-0.270
867,-0.050,-0.250
868,-0.050,-0.200
869,-0.070,-0.260
870,-0.100,-0.200
871,-0.140,-0.250
872,-0.170,-0.250
873,-0.190,-0.330
874,-0.210,-0.370
875,-0.240,-0.500
876,-0.250,-0.500
877,-0.250,-0.550
878,-0.250,-0.590
879,-0.250,-0.600
880,-0.240,-0.560
881,-0.240,-0.460
882,-0.190,-0.390
883,-0.150,-0.290
884,-0.100,-0.280
885,-0.070,-0.130
886,-0.050,-0.160
887,-0.020,-0.100
888,0.010,-0.120
889,0.010,-0.070
890,0.040,-0.080
891,0.050,-0.040
892,0.040,-0.090
893,0.030,-0.080
894,0.050,-0.020
895,0.030,-0.050
896,0.050,-0.050
897,0.040,-0.070
898,0.050,-0.040
899,0.020,-0.090
900,-0.030,-0.060
901,-0.180,0.040
902,-0.370,0.100
903,-0.640,0.390
904,-0.670,1.450
905,-0.400,3.350
906,0.160,5.110
907,1.160,5.110
908,2.570,3.940
909,3.530,0.230
910,2.780,-0.990
911,2.300,-0.650
912,1.210,-0.440
913,0.830,-0.620
914,1.520,-0.830
915,2.050,-0.630
916,2.330,-0.670
917,1.590,-0.190
918,0.750,-0.010
919,0.070,0.250
920,-0.040,0.190
921,-0.190,0.280
922,-0.260,0.220
923,-0.340,0.160
924,-0.440,0.170
925,-0.460,0.100
926,-0.510,0.070
927,-0.530,-0.090
928,-0.580,-0.090
929,-0.630,-0.140
930,-0.690,-0.120
931,-0.790,-0.130
932,-0.860,-0.110
933,-0.970,-0.140
934,-1.090,-0.130
935,-1.200,-0.030
936,-1.300,0.050
937,-1.380,0.140
938,-1.430,0.200
939,-1.450,0.350
940,-1.410,0.380
941,-1.310,0.470
942,-1.160,0.290
943,-0.990,0.250
944,-0.810,0.120
945,-0.630,0.050
946,-0.450,-0.090
947,-0.320,-0.110
948,-0.210,-0.180
949,-0.150,-0.190
950,-0.090,-0.180
951,-0.070,-0.200
952,-0.070,-0.190
953,-0.060,-0.200
954,-0.060,-0.110
955,-0.050,-0.180
956,-0.030,-0.150
957,-0.030,-0.200
958,-0.030,-0.110
959,-0.030,-0.150
960,-0.020,-0.140
961,-0.020,-0.170
962,-0.040,-0.140
963,-0.010,-0.130
964,-0.020,-0.150
965,-0.020,-0.140
966,-0.010,-0.200
967,-0.030,-0.110
968,-0.010,-0.170
969,-0.010,-0.140
970,-0.010,-0.180
971,-0.010,-0.130
972,-0.010,-0.160
973,-0.010,-0.130
974,0.000,-0.170
975,-0.010,-0.170
976,0.010,-0.130
977,0.000,-0.160
978,0.010,-0.160
979,0.000,-0.170
980,0.000,-0.150
981,0.000,-0.170
982,0.000,-0.120
983,0.000,-0.190
984,0.000,-0.160
985,-0.010,-0.180
986,-0.010,-0.120
987,0.000,-0.170
988,-0.010,-0.150
989,0.000,-0.170
990,-0.030,-0.150
991,0.000,-0.130
992,-0.020,-0.170
993,-0.020,-0.160
994,-0.010,-0.170
995,-0.020,-0.130
996,-0.010,-0.190
997,-0.010,-0.150
998,-0.020,-0.200
999,-0.020,-0.120
1000,-0.020,-0.160
1001,-0.020,-0.130
1002,-0.020,-0.180
1003,-0.020,-0.130
1004,-0.020,-0.130
1005,0.000,-0.050
1006,0.040,-0.050
1007,0.010,-0.040
1008,0.060,0.040
1009,0.040,0.230
1010,0.150,0.180
1011,0.060,0.130
1012,0.040,0.170
1013,0.000,0.050
1014,-0.040,0.070
1015,-0.020,0.000
1016,-0.020,-0.100
1017,0.000,-0.170
1018,0.000,-0.170
1019,0.000,-0.180
1020,0.000,-0.190
1021,-0.030,-0.370
1022,-0.090,0.560
1023,-0.020,2.740
1024,0.370,5.110
1025,-0.020,4.710
1026,-0.300,1.990
1027,-0.200,-0.970
1028,-0.490,-0.590
1029,-0.430,-0.220
1030,-0.140,-0.270
1031,-0.080,-0.260
1032,-0.040,-0.300
1033,-0.030,-0.300
1034,-0.020,-0.320
1035,-0.020,-0.280
1036,0.000,-0.270
1037,0.000,-0.310
1038,0.000,-0.290
1039,0.000,-0.300
1040,0.000,-0.230
1041,0.020,-0.260
1042,0.020,-0.210
1043,0.020,-0.250
1044,0.010,-0.150
1045,0.010,-0.180
1046,-0.010,-0.140
1047,0.000,-0.170
1048,-0.020,-0.130
1049,-0.050,-0.160
1050,-0.050,-0.190
1051,-0.070,-0.240
1052,-0.090,-0.330
1053,-0.120,-0.350
1054,-0.130,-0.440
1055,-0.130,-0.490
1056,-0.140,-0.580
1057,-0.140,-0.560
1058,-0.170,-0.560
1059,-0.170,-0.450
1060,-0.150,-0.410
1061,-0.130,-0.300
1062,-0.110,-0.210
1063,-0.070,-0.120
1064,-0.050,-0.110
1065,-0.030,-0.080
1066,-0.010,-0.060
1067,0.000,-0.030
1068,0.020,-0.020
1069,0.030,-0.050
1070,0.020,-0.040
1071,0.020,-0.040
1072,0.030,0.010
1073,0.030,-0.050
1074,0.040,-0.020
1075,0.040,-0.050
1076,0.030,-0.010
1077,0.020,-0.040
1078,0.040,-0.040
1079,0.040,-0.080
1080,0.030,-0.030
1081,0.040,-0.040
1082,0.030,-0.090
1083,0.030,-0.070
1084,0.040,-0.080
1085,0.030,-0.060
1086,0.040,-0.090
1087,0.060,-0.080
1088,0.040,-0.160
1089,0.040,-0.060
1090,0.070,-0.050
1091,0.090,0.010
1092,0.060,0.000
1093,0.100,0.100
1094,0.050,0.210
1095,0.200,0.230
1096,0.090,0.220
1097,0.080,0.160
1098,0.030,0.100
1099,-0.040,0.060
1100,-0.020,0.050
1101,-0.010,-0.110
1102,0.010,-0.190
1103,0.000,-0.210
1104,0.010,-0.160
1105,0.000,-0.170
1106,0.000,-0.410
1107,-0.110,-0.110
1108,0.030,1.380
1109,0.080,4.350
1110,0.370,4.920
1111,-0.380,3.070
1112,-0.450,-0.970
1113,-0.460,-0.640
1114,-0.450,-0.370
1115,-0.270,-0.250
1116,-0.040,-0.320
1117,-0.040,-0.270
1118,-0.030,-0.320
1119,-0.020,-0.270
1120,-0.010,-0.330
1121,-0.020,-0.240
1122,0.000,-0.280
1123,-0.010,-0.230
1124,-0.010,-0.270
1125,-0.020,-0.200
1126,-0.030,-0.200
1127,-0.030,-0.170
1128,-0.020,-0.150
1129,-0.050,-0.170
1130,-0.040,-0.070
1131,-0.060,-0.090
1132,-0.060,-0.030
1133,-0.080,-0.080
1134,-0.090,0.000
1135,-0.130,-0.070
1136,-0.150,-0.050
1137,-0.180,-0.150
1138,-0.200,-0.160
1139,-0.210,-0.210
1140,-0.200,-0.220
1141,-0.200,-0.280
1142,-0.190,-0.240
1143,-0.160,-0.180
1144,-0.120,-0.120
1145,-0.080,-0.060
1146,-0.040,-0.070
1147,-0.010,-0.020
1148,0.010,-0.030
1149,0.020,0.010
1150,0.050,-0.070
1151,0.040,-0.020
1152,0.060,-0.030
1153,0.050,0.010
1154,0.060,-0.040
1155,0.050,-0.010
1156,0.050,-0.040
1157,0.030,-0.010
1158,0.060,0.000
1159,0.050,-0.040
1160,0.050,-0.040
1161,0.040,-0.050
1162,0.030,-0.010
1163,0.040,-0.060
1164,0.060,-0.030
1165,0.050,-0.110
1166,0.060,-0.030
1167,0.060,-0.090
1168,0.070,-0.060
1169,0.060,-0.110
1170,0.070,-0.100
1171,0.060,-0.100
1172,0.070,-0.110
1173,0.060,-0.110
1174,0.070,-0.170
1175,0.060,-0.100
1176,0.060,-0.150
1177,0.060,-0.100
1178,0.080,-0.100
1179,0.120,-0.030
1180,0.070,-0.030
1181,0.110,0.080
1182,0.090,0.160
1183,0.210,0.180
1184,0.110,0.210
1185,0.090,0.170
1186,0.060,0.070
1187,0.000,0.040
1188,0.010,0.020
1189,0.020,-0.120
1190,0.040,-0.150
1191,0.040,-0.210
1192,0.030,-0.180
1193,0.030,-0.190
1194,0.010,-0.350
1195,-0.070,0.180
1196,0.060,1.810
1197,0.180,4.670
1198,0.260,4.750
1199,-0.410,2.470
1200,-0.500,-1.180
1201,-0.570,-0.670
1202,-0.450,-0.260
1203,-0.190,-0.220
1204,-0.040,-0.320
1205,-0.020,-0.290
1206,-0.030,-0.310
1207,-0.020,-0.260
1208,-0.010,-0.300
1209,-0.030,-0.270
1210,0.000,-0.310
1211,-0.030,-0.220
1212,-0.010,-0.250
1213,-0.020,-0.220
1214,-0.020,-0.250
1215,-0.040,-0.210
1216,-0.030,-0.160
1217,-0.030,-0.140
1218,-0.030,-0.140
1219,-0.070,-0.150
1220,-0.070,-0.070
1221,-0.100,-0.090
1222,-0.110,-0.070
1223,-0.150,-0.110
1224,-0.160,-0.120
1225,-0.200,-0.170
1226,-0.220,-0.170
1227,-0.230,-0.290
1228,-0.250,-0.290
1229,-0.230,-0.280
1230,-0.240,-0.230
1231,-0.200,-0.210
1232,-0.150,-0.160
1233,-0.130,-0.110
1234,-0.100,-0.060
1235,-0.050,-0.020
1236,-0.040,-0.070
1237,0.000,-0.040
1238,0.000,-0.040
1239,-0.010,0.000
1240,0.000,-0.060
1241,-0.010,-0.020
1242,-0.020,-0.080
1243,-0.030,0.000
1244,-0.020,-0.040
1245,-0.030,-0.010
1246,-0.030,-0.070
1247,-0.040,-0.030
1248,-0.060,-0.030
1249,-0.050,-0.080
1250,-0.050,-0.060
1251,-0.050,-0.120
1252,-0.040,-0.040
1253,-0.040,-0.100
1254,-0.070,-0.070
1255,-0.050,-0.140
1256,-0.060,-0.070
1257,-0.050,-0.120
1258,-0.060,-0.110
1259,-0.050,-0.150
1260,-0.060,-0.160
1261,-0.060,-0.130
1262,-0.050,-0.120
1263,-0.070,-0.140
1264,-0.060,-0.150
1265,-0.050,-0.030
1266,-0.010,-0.060
1267,-0.060,0.050
1268,0.000,0.020
1269,0.000,0.240
1270,0.070,0.180
1271,-0.010,0.230
1272,-0.030,0.070
1273,-0.090,0.050
1274,-0.120,0.030
1275,-0.110,0.010
1276,-0.090,-0.150
1277,-0.070,-0.220
1278,-0.070,-0.230
1279,-0.090,-0.220
1280,-0.100,-0.190
1281,-0.100,-0.470
1282,-0.160,0.490
1283,-0.130,2.450
1284,0.180,4.980
1285,-0.190,4.400
1286,-0.520,1.510
1287,-0.320,-1.150
1288,-0.600,-0.600
1289,-0.520,-0.270
1290,-0.200,-0.300
1291,-0.160,-0.310
1292,-0.140,-0.330
1293,-0.120,-0.310
1294,-0.120,-0.320
1295,-0.120,-0.310
1296,-0.110,-0.340
1297,-0.110,-0.240
1298,-0.100,-0.280
1299,-0.100,-0.240
1300,-0.120,-0.270
1301,-0.120,-0.200
1302,-0.120,-0.230
1303,-0.120,-0.150
1304,-0.130,-0.200
1305,-0.150,-0.180
1306,-0.140,-0.130
1307,-0.170,-0.140
1308,-0.180,-0.120
1309,-0.210,-0.160
1310,-0.230,-0.120
1311,-0.270,-0.200
1312,-0.270,-0.180
1313,-0.270,-0.300
1314,-0.290,-0.270
1315,-0.290,-0.320
1316,-0.280,-0.260
1317,-0.250,-0.270
1318,-0.220,-0.190
1319,-0.170,-0.160
1320,-0.180,-0.100
1321,-0.120,-0.070
1322,-0.100,-0.090
1323,-0.090,-0.090
1324,-0.060,-0.100
1325,-0.050,-0.060
1326,-0.060,-0.130
1327,-0.060,-0.090
1328,-0.060,-0.160
1329,-0.060,-0.080
1330,-0.050,-0.110
1331,-0.060,-0.090
1332,-0.050,-0.150
1333,-0.050,-0.070
1334,-0.060,-0.090
1335,-0.070,-0.080
1336,-0.060,-0.100
1337,-0.060,-0.130
1338,-0.070,-0.100
1339,-0.060,-0.130
1340,-0.070,-0.120
1341,-0.060,-0.200
1342,-0.070,-0.100
1343,-0.070,-0.180
1344,-0.060,-0.140
1345,-0.060,-0.220
1346,-0.060,-0.170
1347,-0.070,-0.200
1348,-0.050,-0.170
1349,-0.050,-0.220
1350,-0.050,-0.200
1351,-0.050,-0.120
1352,0.000,-0.110
1353,-0.040,-0.060
1354,0.010,-0.060
1355,-0.010,0.130
1356,0.100,0.110
1357,0.020,0.160
1358,0.020,0.050
1359,-0.020,0.020
1360,-0.070,-0.040
1361,-0.080,-0.010
1362,-0.070,-0.200
1363,-0.060,-0.230
1364,-0.060,-0.280
1365,-0.070,-0.230
1366,-0.060,-0.250
1367,-0.080,-0.460
1368,-0.150,0.160
1369,-0.040,1.950
1370,0.120,4.910
1371,0.040,4.790
1372,-0.460,2.390
1373,-0.330,-1.260
1374,-0.510,-0.650
1375,-0.460,-0.380
1376,-0.190,-0.320
1377,-0.070,-0.420
1378,-0.060,-0.340
1379,-0.050,-0.380
1380,-0.030,-0.350
1381,-0.030,-0.390
1382,-0.030,-0.340
1383,-0.040,-0.350
1384,-0.030,-0.330
1385,-0.030,-0.340
1386,-0.040,-0.360
1387,-0.040,-0.280
1388,-0.040,-0.270
1389,-0.030,-0.240
1390,-0.030,-0.280
1391,-0.040,-0.190
1392,-0.060,-0.220
1393,-0.060,-0.150
1394,-0.080,-0.200
1395,-0.090,-0.180
1396,-0.110,-0.210
1397,-0.140,-0.200
1398,-0.160,-0.310
1399,-0.180,-0.330
1400,-0.190,-0.370
1401,-0.200,-0.390
1402,-0.190,-0.380
1403,-0.170,-0.360
1404,-0.140,-0.320
1405,-0.110,-0.250
1406,-0.070,-0.170
1407,-0.040,-0.190
1408,-0.010,-0.130
1409,0.010,-0.180
1410,0.020,-0.110
1411,0.040,-0.160
1412,0.050,-0.130
1413,0.050,-0.190
1414,0.040,-0.120
1415,0.040,-0.130
1416,0.040,-0.130
1417,0.040,-0.160
1418,0.030,-0.150
1419,0.030,-0.150
1420,0.030,-0.160
1421,0.040,-0.150
1422,0.050,-0.210
1423,0.040,-0.140
1424,0.040,-0.220
1425,0.040,-0.180
1426,0.040,-0.250
1427,0.040,-0.190
1428,0.040,-0.250
1429,0.050,-0.210
1430,0.050,-0.270
1431,0.040,-0.250
1432,0.050,-0.250
1433,0.060,-0.230
1434,0.060,-0.260
1435,0.060,-0.280
1436,0.070,-0.250
1437,0.050,-0.270
1438,0.070,-0.170
1439,0.130,-0.210
1440,0.090,-0.130
1441,0.110,-0.100
1442,0.110,0.070
1443,0.210,0.020
1444,0.130,0.060
1445,0.120,-0.010
1446,0.080,-0.030
1447,0.030,-0.090
1448,0.040,-0.100
1449,0.030,-0.240
1450,0.060,-0.310
1451,0.070,-0.300
1452,0.050,-0.340
1453,0.070,-0.290
1454,0.050,-0.480
1455,-0.050,-0.090
1456,0.120,1.310
1457,0.140,4.300
1458,0.450,4.720
1459,-0.370,2.820
1460,-0.530,-1.190
1461,-0.460,-0.740
1462,-0.400,-0.460
1463,-0.180,-0.330
1464,0.020,-0.390
1465,0.020,-0.380
1466,0.050,-0.380
1467,0.050,-0.420
1468,0.060,-0.340
1469,0.060,-0.370
1470,0.070,-0.330
1471,0.060,-0.370
1472,0.060,-0.290
1473,0.060,-0.340
1474,0.070,-0.260
1475,0.070,-0.300
1476,0.060,-0.260
1477,0.060,-0.240
1478,0.050,-0.200
1479,0.050,-0.200
1480,0.040,-0.180
1481,0.020,-0.150
1482,-0.020,-0.170
1483,-0.040,-0.130
1484,-0.060,-0.230
1485,-0.090,-0.240
1486,-0.110,-0.290
1487,-0.130,-0.260
1488,-0.120,-0.380
1489,-0.130,-0.330
1490,-0.110,-0.350
1491,-0.100,-0.260
1492,-0.050,-0.230
1493,-0.010,-0.190
1494,0.030,-0.190
1495,0.050,-0.160
1496,0.090,-0.140
1497,0.100,-0.180
1498,0.110,-0.130
1499,0.120,-0.200
1500,0.120,-0.120
1501,0.120,-0.160
1502,0.110,-0.130
1503,0.100,-0.190
1504,0.110,-0.100
1505,0.110,-0.150
1506,0.110,-0.130
1507,0.110,-0.160
1508,0.100,-0.150
1509,0.100,-0.130
1510,0.100,-0.150
1511,0.100,-0.150
1512,0.090,-0.200
1513,0.100,-0.120
1514,0.100,-0.170
1515,0.090,-0.140
1516,0.100,-0.220
1517,0.090,-0.180
1518,0.080,-0.200
1519,0.090,-0.160
1520,0.100,-0.220
1521,0.080,-0.220
1522,0.080,-0.190
1523,0.070,-0.230
1524,0.080,-0.210
1525,0.080,-0.250
1526,0.090,-0.230
1527,0.080,-0.230
1528,0.100,-0.150
1529,0.140,-0.190
1530,0.100,-0.090
1531,0.140,-0.070
1532,0.110,0.100
1533,0.220,0.070
1534,0.130,0.110
1535,0.130,-0.010
1536,0.080,-0.010
1537,0.010,-0.040
1538,0.030,-0.090
1539,0.030,-0.210
1540,0.050,-0.290
1541,0.050,-0.270
1542,0.060,-0.310
1543,0.040,-0.260
1544,0.040,-0.460
1545,-0.070,0.060
1546,0.100,1.490
1547,0.110,4.420
1548,0.320,4.610
1549,-0.410,2.710
1550,-0.490,-1.180
1551,-0.470,-0.710
1552,-0.400,-0.410
1553,-0.220,-0.340
1554,0.000,-0.360
1555,-0.010,-0.340
1556,0.010,-0.360
1557,0.010,-0.370
1558,0.020,-0.310
1559,0.010,-0.340
1560,0.020,-0.280
1561,0.010,-0.330
1562,0.020,-0.280
1563,0.000,-0.280
1564,-0.010,-0.220
1565,0.010,-0.260
1566,0.000,-0.230
1567,-0.020,-0.210
1568,-0.050,-0.180
1569,-0.040,-0.150
1570,-0.060,-0.150
1571,-0.060,-0.140
1572,-0.100,-0.140
1573,-0.110,-0.110
1574,-0.150,-0.190
1575,-0.180,-0.170
1576,-0.190,-0.260
1577,-0.220,-0.240
1578,-0.210,-0.290
1579,-0.220,-0.290
1580,-0.200,-0.320
1581,-0.170,-0.220
1582,-0.120,-0.190
1583,-0.080,-0.160
1584,-0.030,-0.120
1585,0.010,-0.120
1586,0.030,-0.080
1587,0.050,-0.120
1588,0.070,-0.100
1589,0.070,-0.160
1590,0.070,-0.060
1591,0.070,-0.120
1592,0.070,-0.080
1593,0.070,-0.130
1594,0.060,-0.100
1595,0.060,-0.120
1596,0.040,-0.080
1597,0.050,-0.120
1598,0.030,-0.120
1599,0.030,-0.090
1600,0.030,-0.110
1601,0.020,-0.110
1602,0.040,-0.150
1603,0.020,-0.120
1604,0.040,-0.140
1605,0.040,-0.100
1606,0.040,-0.180
1607,0.040,-0.140
1608,0.040,-0.130
1609,0.020,-0.110
1610,0.050,-0.160
1611,0.020,-0.150
1612,0.060,-0.170
1613,0.040,-0.150
1614,0.060,-0.140
1615,0.050,-0.160
1616,0.060,-0.180
1617,0.060,-0.140
1618,0.060,-0.100
1619,0.100,-0.110
1620,0.120,-0.050
1621,0.050,-0.030
1622,0.110,0.060
1623,0.100,0.220
1624,0.200,0.190
1625,0.130,0.160
1626,0.110,0.150
1627,0.020,0.080
1628,0.000,0.040
1629,0.000,0.020
1630,0.000,-0.140
1631,0.010,-0.160
1632,0.020,-0.200
1633,0.000,-0.150
1634,0.000,-0.230
1635,-0.030,-0.280
1636,-0.090,0.450
1637,0.000,2.230
1638,0.150,4.830
1639,0.010,4.580
1640,-0.410,2.050
1641,-0.310,-1.160
1642,-0.530,-0.620
1643,-0.430,-0.280
1644,-0.190,-0.190
1645,-0.100,-0.250
1646,-0.060,-0.260
1647,-0.060,-0.290
1648,-0.050,-0.270
1649,-0.040,-0.260
1650,-0.030,-0.220
1651,-0.040,-0.260
1652,-0.030,-0.220
1653,-0.030,-0.230
1654,-0.040,-0.160
1655,-0.030,-0.180
1656,-0.030,-0.140
1657,-0.040,-0.140
1658,-0.040,-0.080
1659,-0.070,-0.060
1660,-0.070,-0.070
1661,-0.090,-0.070
1662,-0.110,-0.020
1663,-0.140,0.000
1664,-0.150,-0.060
1665,-0.170,-0.060
1666,-0.210,-0.130
1667,-0.220,-0.110
1668,-0.220,-0.190
1669,-0.210,-0.160
1670,-0.190,-0.240
1671,-0.170,-0.100
1672,-0.140,-0.120
1673,-0.100,-0.050
1674,-0.040,-0.060
1675,-0.030,-0.010
1676,0.000,-0.010
1677,0.030,-0.020
1678,0.050,-0.040
1679,0.040,-0.090
1680,0.040,-0.030
1681,0.050,-0.080
1682,0.060,-0.070
1683,0.060,-0.130
1684,0.040,-0.090
1685,0.030,-0.110
1686,0.030,-0.060
1687,0.040,-0.140
1688,0.000,-0.100
1689,0.010,-0.110
1690,0.000,-0.070
1691,0.010,-0.140
1692,0.000,-0.140
1693,-0.010,-0.120
1694,-0.020,-0.100
1695,-0.010,-0.080
1696,-0.010,-0.140
1697,0.000,-0.110
1698,-0.010,-0.120
1699,0.000,-0.100
1700,0.000,-0.150
1701,-0.020,-0.100
1702,-0.010,-0.150
1703,-0.020,-0.100
1704,0.010,-0.130
1705,-0.010,-0.110
1706,0.000,-0.130
1707,0.000,-0.060
1708,0.010,-0.020
1709,0.070,-0.040
1710,0.030,0.040
1711,0.060,0.040
1712,0.050,0.270
1713,0.170,0.220
1714,0.110,0.250
1715,0.080,0.180
1716,0.050,0.170
1717,-0.010,0.100
1718,-0.010,0.090
1719,-0.010,-0.010
1720,-0.010,-0.160
1721,0.000,-0.150
1722,-0.010,-0.100
1723,-0.010,-0.120
1724,-0.020,-0.280
1725,-0.100,0.370
1726,0.020,2.090
1727,0.120,5.020
1728,0.140,5.110
1729,-0.500,2.990
1730,-0.350,-1.050
1731,-0.490,-0.510
1732,-0.410,-0.330
1733,-0.200,-0.200
1734,-0.020,-0.260
1735,-0.020,-0.220
1736,0.020,-0.270
1737,0.020,-0.240
1738,0.040,-0.260
1739,0.040,-0.220
1740,0.040,-0.210
1741,0.050,-0.240
1742,0.060,-0.210
1743,0.030,-0.190
1744,0.030,-0.140
1745,0.040,-0.190
1746,0.030,-0.130
1747,0.050,-0.170
1748,0.030,-0.080
1749,0.030,-0.100
1750,0.020,-0.060
1751,0.000,-0.100
1752,-0.020,-0.020
1753,-0.040,-0.070
1754,-0.050,-0.100
1755,-0.070,-0.150
1756,-0.100,-0.190
1757,-0.110,-0.200
1758,-0.120,-0.260
1759,-0.110,-0.240
1760,-0.090,-0.260
1761,-0.070,-0.130
1762,-0.020,-0.140
1763,0.010,-0.050
1764,0.060,-0.080
1765,0.070,-0.040
1766,0.090,-0.040
1767,0.120,0.010
1768,0.130,-0.060
1769,0.140,-0.050
1770,0.150,-0.030
1771,0.140,-0.030
1772,0.150,-0.020
1773,0.150,-0.050
1774,0.140,-0.030
1775,0.140,-0.040
1776,0.140,0.010
1777,0.140,-0.070
1778,0.130,-0.030
1779,0.130,-0.050
1780,0.130,-0.020
1781,0.130,-0.040
1782,0.140,-0.040
1783,0.130,-0.090
1784,0.120,-0.060
1785,0.130,-0.050
1786,0.120,-0.120
1787,0.120,-0.100
1788,0.120,-0.140
1789,0.110,-0.080
1790,0.120,-0.130
1791,0.120,-0.110
1792,0.120,-0.180
1793,0.110,-0.110
1794,0.120,-0.140
1795,0.120,-0.140
1796,0.120,-0.160
1797,0.110,-0.130
1798,0.120,-0.080
1799,0.160,-0.040
1800,0.180,-0.010
1801,0.160,-0.010
1802,0.170,0.130
1803,0.240,0.220
1804,0.230,0.220
1805,0.180,0.170
1806,0.180,0.120
1807,0.070,0.050
1808,0.080,0.080
1809,0.080,-0.050
1810,0.110,-0.200
1811,0.090,-0.180
1812,0.080,-0.180
1813,0.080,-0.160
1814,0.080,-0.250
1815,0.020,-0.270
1816,0.100,0.940
1817,0.080,3.730
1818,0.640,5.090
1819,-0.300,3.860
1820,-0.530,-0.060
1821,-0.310,-0.830
1822,-0.490,-0.540
1823,-0.330,-0.210
1824,0.020,-0.310
1825,0.010,-0.270
1826,0.030,-0.290
1827,0.050,-0.290
1828,0.060,-0.280
1829,0.050,-0.270
1830,0.060,-0.220
1831,0.050,-0.260
1832,0.060,-0.210
1833,0.070,-0.260
1834,0.050,-0.150
1835,0.060,-0.200
1836,0.060,-0.140
1837,0.060,-0.160
1838,0.050,-0.100
1839,0.040,-0.090
1840,0.030,-0.040
1841,0.020,-0.070
1842,0.010,-0.090
1843,-0.020,-0.020
1844,-0.050,-0.080
1845,-0.080,-0.060
1846,-0.090,-0.140
1847,-0.120,-0.150
1848,-0.130,-0.200
1849,-0.130,-0.160
1850,-0.120,-0.230
1851,-0.110,-0.160
1852,-0.070,-0.140
1853,-0.040,-0.070
1854,0.020,-0.060
1855,0.060,-0.050
1856,0.080,-0.060
1857,0.100,-0.020
1858,0.130,-0.010
1859,0.120,-0.060
1860,0.140,-0.030
1861,0.120,-0.050
1862,0.130,0.010
1863,0.130,-0.040
1864,0.130,-0.020
1865,0.130,-0.080
1866,0.130,0.010
1867,0.140,-0.050
1868,0.140,-0.030
1869,0.130,-0.070
1870,0.130,-0.060
1871,0.130,-0.050
1872,0.150,-0.060
1873,0.130,-0.050
1874,0.140,-0.110
1875,0.130,-0.040
1876,0.130,-0.100
1877,0.140,-0.050
1878,0.140,-0.130
1879,0.130,-0.090
1880,0.140,-0.110
1881,0.140,-0.070
1882,0.140,-0.130
1883,0.130,-0.120
1884,0.140,-0.120
1885,0.130,-0.130
1886,0.140,-0.100
1887,0.150,-0.150
1888,0.150,-0.130
1889,0.160,-0.110
1890,0.170,0.000
1891,0.210,-0.070
1892,0.170,0.040
1893,0.220,0.010
1894,0.200,0.280
1895,0.290,0.200
1896,0.210,0.210
1897,0.200,0.090
1898,0.120,0.080
1899,0.100,0.060
1900,0.110,0.010
1901,0.110,-0.140
1902,0.130,-0.240
1903,0.120,-0.160
1904,0.110,-0.190
1905,0.130,-0.180
1906,0.090,-0.400
1907,0.050,0.630
1908,0.120,2.660
1909,0.500,4.960
1910,-0.060,4.360
1911,-0.420,1.590
1912,-0.340,-1.170
1913,-0.580,-0.630
1914,-0.370,-0.240
1915,-0.070,-0.250
1916,0.010,-0.280
1917,0.010,-0.280
1918,0.040,-0.220
1919,0.050,-0.300
1920,0.050,-0.250
1921,0.050,-0.250
1922,0.060,-0.190
1923,0.060,-0.250
1924,0.060,-0.180
1925,0.060,-0.220
1926,0.050,-0.150
1927,0.060,-0.160
1928,0.050,-0.140
1929,0.060,-0.140
1930,0.040,-0.090
1931,0.020,-0.050
1932,0.030,-0.070
1933,0.010,-0.030
1934,-0.030,-0.100
1935,-0.060,0.000
1936,-0.080,-0.070
1937,-0.110,-0.060
1938,-0.130,-0.170
1939,-0.150,-0.170
1940,-0.160,-0.210
1941,-0.150,-0.160
1942,-0.120,-0.180
1943,-0.090,-0.150
1944,-0.050,-0.050
1945,-0.010,-0.030
1946,0.040,-0.010
1947,0.070,-0.040
1948,0.090,-0.010
1949,0.100,-0.030
1950,0.120,0.020
1951,0.120,-0.050
1952,0.140,-0.020
1953,0.120,-0.040
1954,0.120,0.000
1955,0.110,-0.030
1956,0.100,-0.020
1957,0.100,-0.060
1958,0.100,-0.020
1959,0.100,-0.010
1960,0.090,-0.040
1961,0.100,-0.040
1962,0.080,-0.060
1963,0.090,-0.020
1964,0.090,-0.070
1965,0.100,-0.050
1966,0.090,-0.110
1967,0.080,-0.020
1968,0.100,-0.070
1969,0.100,-0.080
1970,0.100,-0.110
1971,0.080,-0.080
1972,0.080,-0.110
1973,0.100,-0.090
1974,0.110,-0.140
1975,0.090,-0.140
1976,0.090,-0.110
1977,0.100,-0.130
1978,0.110,-0.130
1979,0.100,-0.170
1980,0.100,-0.120
1981,0.080,-0.150
1982,0.090,-0.090
1983,0.090,-0.170
1984,0.100,-0.100
1985,0.120,-0.060
1986,0.110,0.030
1987,0.110,-0.010
1988,0.090,0.210
1989,0.220,0.190
1990,0.130,0.250
1991,0.100,0.170
1992,0.080,0.120
1993,0.000,0.060
1994,0.000,0.060
1995,0.000,-0.020
1996,0.020,-0.180
1997,0.010,-0.150
1998,-0.010,-0.190
1999,-0.020,-0.110
2000,-0.020,-0.270
2001,-0.100,0.270
2002,0.040,1.820
2003,0.060,4.730
2004,0.190,4.770
2005,-0.430,2.670
2006,-0.410,-1.110
2007,-0.540,-0.570
2008,-0.480,-0.240
2009,-0.260,-0.170
2010,-0.110,-0.260
2011,-0.120,-0.300
2012,-0.110,-0.210
2013,-0.110,-0.260
2014,-0.110,-0.200
2015,-0.100,-0.250
2016,-0.110,-0.190
2017,-0.120,-0.230
2018,-0.120,-0.140
2019,-0.120,-0.200
2020,-0.130,-0.160
2021,-0.130,-0.140
2022,-0.140,-0.110
2023,-0.150,-0.110
2024,-0.150,-0.090
2025,-0.180,-0.060
2026,-0.190,-0.050
2027,-0.220,0.000
2028,-0.230,-0.060
2029,-0.260,-0.010
2030,-0.300,-0.050
2031,-0.320,-0.060
2032,-0.330,-0.150
2033,-0.360,-0.150
2034,-0.340,-0.210
2035,-0.350,-0.180
2036,-0.320,-0.170
2037,-0.280,-0.160
2038,-0.240,-0.130
2039,-0.210,-0.060
2040,-0.170,-0.010
2041,-0.150,-0.040
2042,-0.110,0.000
2043,-0.110,-0.060
2044,-0.100,0.000
2045,-0.090,-0.060
2046,-0.110,-0.030
2047,-0.090,-0.090
2048,-0.090,0.010
2049,-0.110,-0.030
2050,-0.100,-0.040
2051,-0.120,-0.040
2052,-0.140,-0.050
2053,-0.120,0.000
2054,-0.100,-0.040
2055,-0.150,-0.010
2056,-0.110,-0.110
2057,-0.120,-0.020
2058,-0.130,-0.060
2059,-0.130,-0.030
2060,-0.140,-0.090
2061,-0.130,-0.080
2062,-0.140,-0.100
2063,-0.130,-0.070
2064,-0.130,-0.120
2065,-0.130,-0.130
2066,-0.150,-0.090
2067,-0.150,-0.100
2068,-0.120,-0.120
2069,-0.120,-0.160
2070,-0.120,-0.150
2071,-0.140,-0.160
2072,-0.140,-0.100
2073,-0.120,-0.180
2074,-0.120,-0.140
2075,-0.130,-0.140
2076,-0.120,-0.040
2077,-0.080,-0.050
2078,-0.130,0.000
2079,-0.090,-0.020
2080,-0.100,0.210
2081,0.010,0.190
2082,-0.040,0.160
2083,-0.090,0.180
2084,-0.090,0.050
2085,-0.170,0.080
2086,-0.170,-0.010
2087,-0.170,-0.090
2088,-0.160,-0.240
2089,-0.160,-0.170
2090,-0.180,-0.200
2091,-0.170,-0.180
2092,-0.170,-0.320
2093,-0.270,0.310
2094,-0.150,2.000
2095,-0.050,4.870
2096,0.040,5.110
2097,-0.620,3.220
2098,-0.560,-0.920
2099,-0.660,-0.620
2100,-0.570,-0.410
2101,-0.450,-0.290
2102,-0.190,-0.330
2103,-0.200,-0.330
2104,-0.170,-0.310
2105,-0.160,-0.350
2106,-0.160,-0.350
2107,-0.140,-0.310
2108,-0.160,-0.310
2109,-0.140,-0.290
2110,-0.150,-0.330
2111,-0.150,-0.290
2112,-0.150,-0.280
2113,-0.160,-0.210
2114,-0.140,-0.270
2115,-0.160,-0.210
2116,-0.160,-0.220
2117,-0.180,-0.160
2118,-0.190,-0.160
2119,-0.200,-0.160
2120,-0.220,-0.180
2121,-0.250,-0.140
2122,-0.270,-0.160
2123,-0.290,-0.230
2124,-0.310,-0.260
2125,-0.320,-0.320
2126,-0.340,-0.300
2127,-0.330,-0.350
2128,-0.300,-0.310
2129,-0.290,-0.330
2130,-0.260,-0.210
2131,-0.220,-0.200
2132,-0.190,-0.170
2133,-0.150,-0.170
2134,-0.140,-0.180
2135,-0.100,-0.150
2136,-0.100,-0.160
2137,-0.080,-0.150
2138,-0.070,-0.220
2139,-0.080,-0.120
2140,-0.070,-0.180
2141,-0.060,-0.150
2142,-0.080,-0.210
2143,-0.080,-0.170
2144,-0.090,-0.190
2145,-0.080,-0.160
2146,-0.070,-0.200
2147,-0.090,-0.190
2148,-0.080,-0.170
2149,-0.080,-0.190
2150,-0.080,-0.180
2151,-0.080,-0.220
2152,-0.080,-0.210
2153,-0.080,-0.220
2154,-0.070,-0.180
2155,-0.060,-0.270
2156,-0.070,-0.230
2157,-0.060,-0.260
2158,-0.070,-0.240
2159,-0.050,-0.260
2160,-0.070,-0.270
2161,-0.060,-0.310
2162,-0.060,-0.270
2163,-0.040,-0.260
2164,-0.060,-0.310
2165,-0.050,-0.270
2166,-0.060,-0.320
2167,-0.060,-0.250
2168,-0.050,-0.310
2169,-0.050,-0.270
2170,-0.040,-0.280
2171,-0.020,-0.170
2172,-0.020,-0.180
2173,-0.010,-0.130
2174,-0.010,0.010
2175,0.090,-0.010
2176,0.010,0.040
2177,-0.020,-0.030
2178,-0.030,-0.070
2179,-0.100,-0.170
2180,-0.100,-0.110
2181,-0.100,-0.250
2182,-0.080,-0.350
2183,-0.070,-0.410
2184,-0.090,-0.360
2185,-0.090,-0.350
2186,-0.100,-0.430
2187,-0.160,-0.170
2188,-0.010,1.160
2189,0.000,4.140
2190,0.360,4.860
2191,-0.470,3.160
2192,-0.650,-0.990
2193,-0.530,-0.850
2194,-0.540,-0.570
2195,-0.340,-0.370
2196,-0.080,-0.490
2197,-0.090,-0.450
2198,-0.070,-0.500
2199,-0.060,-0.450
2200,-0.030,-0.460
2201,-0.030,-0.440
2202,-0.030,-0.460
2203,-0.030,-0.410
2204,-0.020,-0.400
2205,-0.020,-0.410
2206,-0.020,-0.380
2207,-0.030,-0.380
2208,-0.040,-0.310
2209,-0.030,-0.330
2210,-0.040,-0.280
2211,-0.040,-0.320
2212,-0.080,-0.210
2213,-0.080,-0.230
2214,-0.100,-0.210
2215,-0.130,-0.250
2216,-0.160,-0.260
2217,-0.190,-0.260
2218,-0.200,-0.310
2219,-0.210,-0.340
2220,-0.220,-0.440
2221,-0.230,-0.370
2222,-0.210,-0.410
2223,-0.200,-0.360
2224,-0.150,-0.350
2225,-0.120,-0.280
2226,-0.080,-0.260
2227,-0.040,-0.200
2228,0.010,-0.260
2229,0.020,-0.240
2230,0.050,-0.220
2231,0.040,-0.230
2232,0.060,-0.210
2233,0.050,-0.240
2234,0.050,-0.220
2235,0.050,-0.220
2236,0.040,-0.170
2237,0.040,-0.250
2238,0.040,-0.210
2239,0.040,-0.220
2240,0.030,-0.200
2241,0.040,-0.220
2242,0.040,-0.230
2243,0.040,-0.260
2244,0.040,-0.230
2245,0.050,-0.230
2246,0.060,-0.270
2247,0.070,-0.250
2248,0.060,-0.280
2249,0.060,-0.240
2250,0.070,-0.280
2251,0.080,-0.250
2252,0.070,-0.320
2253,0.070,-0.260
2254,0.060,-0.300
2255,0.070,-0.300
2256,0.060,-0.320
2257,0.060,-0.310
2258,0.050,-0.310
2259,0.070,-0.320
2260,0.060,-0.310
2261,0.060,-0.350
2262,0.070,-0.290
2263,0.070,-0.320
2264,0.060,-0.260
2265,0.110,-0.260
2266,0.120,-0.180
2267,0.080,-0.180
2268,0.120,-0.040
2269,0.200,0.010
2270,0.150,-0.010
2271,0.130,0.010
2272,0.120,-0.060
2273,0.040,-0.120
2274,0.030,-0.130
2275,0.040,-0.210
2276,0.060,-0.360
2277,0.060,-0.320
2278,0.060,-0.380
2279,0.060,-0.340
2280,0.050,-0.440
2281,-0.030,-0.170
2282,0.130,1.050
2283,0.080,3.990
2284,0.600,4.810
2285,-0.330,3.230
2286,-0.500,-0.790
2287,-0.350,-0.870
2288,-0.450,-0.610
2289,-0.280,-0.380
2290,0.010,-0.420
2291,0.000,-0.460
2292,0.030,-0.440
2293,0.030,-0.480
2294,0.040,-0.400
2295,0.040,-0.430
2296,0.040,-0.380
2297,0.040,-0.430
2298,0.050,-0.350
2299,0.050,-0.380
2300,0.040,-0.330
2301,0.060,-0.350
2302,0.050,-0.340
2303,0.040,-0.280
2304,0.030,-0.260
2305,0.030,-0.250
2306,0.010,-0.260
2307,0.000,-0.190
2308,-0.030,-0.230
2309,-0.060,-0.190
2310,-0.070,-0.250
2311,-0.100,-0.240
2312,-0.140,-0.300
2313,-0.150,-0.290
2314,-0.160,-0.400
2315,-0.150,-0.390
2316,-0.130,-0.390
2317,-0.110,-0.330
2318,-0.060,-0.300
2319,-0.010,-0.290
2320,0.030,-0.260
2321,0.060,-0.240
2322,0.090,-0.200
2323,0.130,-0.250
2324,0.150,-0.220
2325,0.150,-0.250
2326,0.150,-0.180
2327,0.160,-0.210
2328,0.160,-0.190
2329,0.150,-0.240
2330,0.140,-0.170
2331,0.160,-0.150
2332,0.140,-0.220
2333,0.150,-0.220
2334,0.140,-0.190
2335,0.130,-0.180
2336,0.140,-0.180
2337,0.150,-0.170
2338,0.140,-0.240
2339,0.150,-0.160
2340,0.140,-0.220
2341,0.130,-0.190
2342,0.160,-0.250
2343,0.150,-0.200
2344,0.140,-0.240
2345,0.140,-0.200
2346,0.160,-0.270
2347,0.150,-0.270
2348,0.150,-0.240
2349,0.150,-0.240
2350,0.160,-0.260
2351,0.150,-0.280
2352,0.150,-0.260
2353,0.140,-0.270
2354,0.140,-0.240
2355,0.140,-0.310
2356,0.140,-0.270
2357,0.140,-0.290
2358,0.130,-0.230
2359,0.160,-0.250
2360,0.170,-0.170
2361,0.150,-0.160
2362,0.170,-0.100
2363,0.140,0.080
2364,0.290,0.030
2365,0.200,0.060
2366,0.160,0.000
2367,0.140,-0.020
2368,0.060,-0.100
2369,0.080,-0.060
2370,0.070,-0.240
2371,0.090,-0.250
2372,0.090,-0.310
2373,0.070,-0.250
2374,0.070,-0.290
2375,0.050,-0.360
2376,-0.050,0.200
2377,0.110,1.760
2378,0.140,4.620
2379,0.320,4.680
2380,-0.310,2.680
2381,-0.320,-1.150
2382,-0.420,-0.650
2383,-0.350,-0.400
2384,-0.170,-0.290
2385,0.000,-0.380
2386,0.010,-0.330
2387,0.010,-0.400
2388,0.010,-0.370
2389,0.010,-0.340
2390,0.010,-0.300
2391,0.020,-0.350
2392,0.030,-0.320
2393,0.030,-0.300
2394,0.010,-0.280
2395,0.010,-0.210
2396,0.000,-0.280
2397,0.020,-0.210
2398,0.000,-0.220
2399,-0.020,-0.150
2400,-0.020,-0.220
2401,-0.050,-0.130
2402,-0.070,-0.180
2403,-0.090,-0.110
2404,-0.110,-0.130
2405,-0.130,-0.160
2406,-0.170,-0.200
2407,-0.200,-0.240
2408,-0.210,-0.230
2409,-0.200,-0.300
2410,-0.210,-0.270
2411,-0.190,-0.300
2412,-0.160,-0.200
2413,-0.130,-0.190
2414,-0.070,-0.130
2415,-0.040,-0.160
2416,0.010,-0.060
2417,0.000,-0.080
2418,0.050,-0.080
2419,0.090,-0.110
2420,0.080,-0.140
2421,0.080,-0.060
2422,0.080,-0.090
2423,0.090,-0.070
2424,0.090,-0.130
2425,0.080,-0.080
2426,0.080,-0.130
2427,0.070,-0.070
2428,0.080,-0.160
2429,0.050,-0.110
2430,0.060,-0.120
2431,0.060,-0.090
2432,0.080,-0.130
2433,0.050,-0.150
2434,0.040,-0.140
2435,0.060,-0.150
2436,0.070,-0.120
2437,0.070,-0.190
2438,0.080,-0.180
2439,0.080,-0.190
2440,0.090,-0.150
2441,0.080,-0.220
2442,0.090,-0.190
2443,0.090,-0.230
2444,0.080,-0.180
2445,0.100,-0.210
2446,0.090,-0.190
2447,0.100,-0.230
2448,0.090,-0.170
2449,0.110,-0.190
2450,0.120,-0.220
2451,0.110,-0.150
2452,0.140,-0.150
2453,0.160,-0.050
2454,0.130,-0.060
2455,0.170,0.050
2456,0.230,0.120
2457,0.230,0.170
2458,0.170,0.130
2459,0.160,0.060
2460,0.080,-0.020
2461,0.060,-0.030
2462,0.070,-0.060
2463,0.090,-0.230
2464,0.080,-0.250
2465,0.070,-0.270
2466,0.080,-0.210
2467,0.060,-0.290
2468,0.000,-0.220
2469,0.090,0.960
2470,0.070,3.660
2471,0.550,5.110
2472,-0.280,4.160
2473,-0.390,0.160
2474,-0.260,-0.830
2475,-0.360,-0.630
2476,-0.350,-0.260
2477,0.020,-0.340
2478,0.010,-0.360
2479,0.040,-0.370
2480,0.030,-0.350
2481,0.050,-0.300
2482,0.060,-0.360
2483,0.070,-0.300
2484,0.060,-0.340
2485,0.050,-0.280
2486,0.060,-0.310
2487,0.050,-0.240
2488,0.050,-0.300
2489,0.050,-0.210
2490,0.040,-0.210
2491,0.040,-0.210
2492,0.040,-0.180
2493,0.010,-0.180
2494,0.000,-0.120
2495,0.000,-0.140
2496,-0.010,-0.120
2497,-0.050,-0.200
2498,-0.070,-0.150
2499,-0.110,-0.230
2500,-0.110,-0.250
2501,-0.110,-0.330
2502,-0.130,-0.330
2503,-0.120,-0.330
2504,-0.100,-0.280
2505,-0.060,-0.240
2506,-0.020,-0.230
2507,0.020,-0.140
2508,0.050,-0.160
2509,0.080,-0.110
2510,0.100,-0.160
2511,0.110,-0.110
2512,0.130,-0.130
2513,0.150,-0.080
2514,0.150,-0.140
2515,0.150,-0.120
2516,0.150,-0.120
2517,0.130,-0.090
2518,0.140,-0.130
2519,0.130,-0.110
2520,0.130,-0.140
2521,0.130,-0.130
2522,0.130,-0.110
2523,0.110,-0.160
2524,0.120,-0.150
2525,0.100,-0.160
2526,0.100,-0.110
2527,0.100,-0.170
2528,0.100,-0.140
2529,0.100,-0.210
2530,0.090,-0.160
2531,0.110,-0.190
2532,0.100,-0.190
2533,0.100,-0.220
2534,0.110,-0.190
2535,0.110,-0.220
2536,0.110,-0.230
2537,0.110,-0.220
2538,0.110,-0.240
2539,0.120,-0.200
2540,0.110,-0.240
2541,0.130,-0.220
2542,0.110,-0.300
2543,0.120,-0.200
2544,0.100,-0.230
2545,0.130,-0.140
2546,0.180,-0.170
2547,0.120,-0.110
2548,0.170,-0.070
2549,0.140,0.150
2550,0.260,0.070
2551,0.160,0.080
2552,0.140,0.090
2553,0.100,-0.040
2554,0.050,-0.010
2555,0.040,-0.080
2556,0.050,-0.200
2557,0.060,-0.290
2558,0.060,-0.240
2559,0.060,-0.280
2560,0.060,-0.240
2561,0.040,-0.420
2562,-0.040,0.250
2563,0.110,1.970
2564,0.290,4.740
2565,0.180,4.610
2566,-0.400,2.190
2567,-0.440,-1.220
2568,-0.550,-0.710
2569,-0.390,-0.320
2570,-0.120,-0.310
2571,0.000,-0.310
2572,0.030,-0.350
2573,0.040,-0.320
2574,0.050,-0.380
2575,0.050,-0.310
2576,0.060,-0.330
2577,0.060,-0.300
2578,0.080,-0.320
2579,0.060,-0.280
2580,0.070,-0.270
2581,0.060,-0.270
2582,0.060,-0.230
2583,0.050,-0.250
2584,0.050,-0.160
2585,0.050,-0.170
2586,0.040,-0.130
2587,0.010,-0.160
2588,0.000,-0.070
2589,-0.030,-0.140
2590,-0.060,-0.090
2591,-0.090,-0.160
2592,-0.110,-0.180
2593,-0.150,-0.220
2594,-0.170,-0.230
2595,-0.160,-0.310
2596,-0.180,-0.320
2597,-0.150,-0.240
2598,-0.140,-0.230
2599,-0.080,-0.160
2600,-0.050,-0.170
2601,-0.010,-0.120
2602,0.010,-0.120
2603,0.060,-0.060
2604,0.070,-0.140
2605,0.080,-0.100
2606,0.090,-0.110
2607,0.080,-0.080
2608,0.080,-0.110
2609,0.080,-0.100
2610,0.080,-0.120
2611,0.070,-0.080
2612,0.060,-0.070
2613,0.060,-0.120
2614,0.060,-0.090
2615,0.050,-0.110
2616,0.050,-0.080
2617,0.050,-0.160
2618,0.060,-0.120
2619,0.050,-0.190
2620,0.040,-0.110
2621,0.060,-0.160
2622,0.040,-0.150
2623,0.040,-0.190
2624,0.050,-0.140
2625,0.050,-0.170
2626,0.060,-0.180
2627,0.070,-0.200
2628,0.070,-0.230
2629,0.070,-0.190
2630,0.080,-0.220
2631,0.070,-0.200
2632,0.080,-0.260
2633,0.090,-0.190
2634,0.080,-0.250
2635,0.080,-0.200
2636,0.090,-0.260
2637,0.080,-0.220
2638,0.080,-0.240
2639,0.080,-0.210
2640,0.090,-0.210
2641,0.100,-0.150
2642,0.120,-0.090
2643,0.070,-0.070
2644,0.130,0.050
2645,0.200,0.110
2646,0.160,0.140
2647,0.120,0.100
2648,0.120,0.070
2649,0.030,-0.050
2650,0.030,-0.030
2651,0.040,-0.130
2652,0.080,-0.220
2653,0.070,-0.280
2654,0.070,-0.250
2655,0.080,-0.240
2656,0.050,-0.320
2657,-0.040,0.010
2658,0.130,1.380
2659,0.110,4.320
2660,0.490,4.840
2661,-0.340,3.220
2662,-0.470,-0.910
2663,-0.370,-0.690
2664,-0.410,-0.450
2665,-0.250,-0.220
2666,0.030,-0.340
2667,0.030,-0.320
2668,0.030,-0.380
2669,0.030,-0.300
2670,0.040,-0.330
2671,0.050,-0.320
2672,0.050,-0.340
2673,0.040,-0.290
2674,0.040,-0.280
2675,0.040,-0.280
2676,0.040,-0.260
2677,0.030,-0.280
2678,0.010,-0.190
2679,0.020,-0.200
2680,0.010,-0.150
2681,-0.010,-0.200
2682,-0.020,-0.100
2683,-0.050,-0.140
2684,-0.050,-0.090
2685,-0.080,-0.140
2686,-0.120,-0.120
2687,-0.160,-0.180
2688,-0.180,-0.190
2689,-0.200,-0.240
2690,-0.210,-0.310
2691,-0.210,-0.280
2692,-0.210,-0.270
2693,-0.170,-0.230
2694,-0.140,-0.230
2695,-0.100,-0.140
2696,-0.050,-0.120
2697,-0.020,-0.050
2698,0.020,-0.120
2699,0.030,-0.060
2700,0.040,-0.080
2701,0.050,-0.050
2702,0.060,-0.070
2703,0.050,-0.050
2704,0.050,-0.090
2705,0.040,-0.050
2706,0.050,-0.020
2707,0.040,-0.080
2708,0.040,-0.050
2709,0.040,-0.070
2710,0.040,-0.040
2711,0.030,-0.090
2712,0.040,-0.050
2713,0.040,-0.130
2714,0.040,-0.040
2715,0.030,-0.070
2716,0.040,-0.070
2717,0.040,-0.110
2718,0.050,-0.080
2719,0.030,-0.080
2720,0.040,-0.100
2721,0.050,-0.100
2722,0.030,-0.150
2723,0.030,-0.060
2724,0.050,-0.140
2725,0.040,-0.100
2726,0.070,-0.180
2727,0.050,-0.110
2728,0.050,-0.150
2729,0.060,-0.100
2730,0.060,-0.150
2731,0.060,-0.160
2732,0.070,-0.150
2733,0.060,-0.130
2734,0.070,-0.100
2735,0.080,-0.080
2736,0.110,-0.010
2737,0.090,0.000
2738,0.100,0.180
2739,0.210,0.150
2740,0.140,0.190
2741,0.100,0.150
2742,0.090,0.110
2743,-0.010,0.020
2744,-0.010,0.030
2745,0.000,-0.050
2746,0.000,-0.170
2747,0.010,-0.160
2748,-0.010,-0.200
2749,-0.010,-0.170
2750,-0.010,-0.230
2751,-0.100,0.020
2752,0.030,1.290
2753,-0.050,4.170
2754,0.440,5.000
2755,-0.400,3.560
2756,-0.430,-0.560
2757,-0.360,-0.650
2758,-0.460,-0.490
2759,-0.390,-0.180
2760,-0.080,-0.250
2761,-0.090,-0.290
2762,-0.060,-0.260
2763,-0.040,-0.290
2764,-0.040,-0.230
2765,-0.030,-0.250
2766,-0.030,-0.210
2767,-0.020,-0.260
2768,-0.030,-0.160
2769,-0.040,-0.200
2770,-0.040,-0.160
2771,-0.040,-0.200
2772,-0.030,-0.130
2773,-0.070,-0.130
2774,-0.070,-0.070
2775,-0.070,-0.080
2776,-0.090,-0.070
2777,-0.120,-0.030
2778,-0.140,-0.020
2779,-0.170,-0.040
2780,-0.190,-0.060
2781,-0.210,-0.080
2782,-0.240,-0.120
2783,-0.260,-0.120
2784,-0.260,-0.190
2785,-0.260,-0.200
2786,-0.250,-0.190
2787,-0.220,-0.110
2788,-0.150,-0.140
2789,-0.140,-0.030
2790,-0.070,-0.060
2791,-0.050,0.010
2792,-0.010,0.000
2793,0.020,-0.020
2794,0.020,-0.040
2795,0.050,-0.010
2796,0.070,0.000
2797,0.040,-0.040
2798,0.050,-0.020
2799,0.030,-0.060
2800,0.030,0.030
2801,0.020,-0.010
2802,0.040,-0.010
2803,0.020,-0.040
2804,0.030,-0.020
2805,0.020,-0.010
2806,0.030,-0.010
2807,0.030,-0.020
2808,0.020,-0.090
2809,0.030,-0.010
2810,0.020,-0.060
2811,0.040,-0.050
2812,0.030,-0.090
2813,0.020,-0.050
2814,0.040,-0.090
2815,0.020,-0.030
2816,0.040,-0.120
2817,0.030,-0.110
2818,0.040,-0.080
2819,0.020,-0.080
2820,0.020,-0.100
2821,0.030,-0.110
2822,0.040,-0.100
2823,0.030,-0.100
2824,0.030,-0.080
2825,0.020,-0.110
2826,0.030,-0.090
2827,0.020,-0.060
2828,0.050,0.050
2829,0.090,-0.010
2830,0.040,0.070
2831,0.090,0.100
2832,0.120,0.290
2833,0.160,0.230
2834,0.090,0.240
2835,0.100,0.150
2836,0.000,0.120
2837,-0.010,0.100
2838,0.000,0.030
2839,0.000,-0.120
2840,-0.010,-0.150
2841,0.000,-0.110
2842,0.000,-0.140
2843,0.000,-0.170
2844,-0.100,-0.120
2845,0.010,1.260
2846,-0.010,3.960
2847,0.430,5.110
2848,-0.380,4.150
2849,-0.470,0.160
2850,-0.390,-0.720
2851,-0.440,-0.500
2852,-0.410,-0.170
2853,-0.070,-0.260
2854,-0.070,-0.210
2855,-0.050,-0.260
2856,-0.030,-0.220
2857,-0.030,-0.270
2858,-0.030,-0.250
2859,-0.030,-0.250
2860,-0.020,-0.200
2861,-0.010,-0.240
2862,-0.010,-0.200
2863,-0.010,-0.190
2864,-0.020,-0.150
2865,-0.020,-0.160
2866,-0.020,-0.140
2867,-0.020,-0.130
2868,-0.040,-0.090
2869,-0.040,-0.070
2870,-0.060,-0.100
2871,-0.070,-0.070
2872,-0.100,-0.080
2873,-0.130,-0.060
2874,-0.150,-0.150
2875,-0.170,-0.150
2876,-0.200,-0.260
2877,-0.210,-0.220
2878,-0.200,-0.280
2879,-0.210,-0.260
2880,-0.180,-0.260
2881,-0.140,-0.170
2882,-0.100,-0.140
2883,-0.060,-0.100
2884,-0.030,-0.060
2885,0.000,-0.100
2886,0.040,-0.040
2887,0.050,-0.060
2888,0.070,-0.050
2889,0.070,-0.090
2890,0.070,-0.030
2891,0.080,-0.080
2892,0.080,-0.030
2893,0.080,-0.080
2894,0.070,-0.060
2895,0.070,-0.060
2896,0.070,-0.040
2897,0.060,-0.090
2898,0.060,-0.100
2899,0.070,-0.050
2900,0.070,-0.070
2901,0.080,-0.060
2902,0.070,-0.090
2903,0.060,-0.090
2904,0.060,-0.100
2905,0.070,-0.050
2906,0.080,-0.140
2907,0.080,-0.120
2908,0.090,-0.130
2909,0.060,-0.090
2910,0.070,-0.170
2911,0.060,-0.120
2912,0.080,-0.170
2913,0.070,-0.120
2914,0.080,-0.140
2915,0.080,-0.170
2916,0.090,-0.160
2917,0.080,-0.140
2918,0.090,-0.090
2919,0.120,-0.070
2920,0.140,-0.020
2921,0.110,-0.010
2922,0.130,0.120
2923,0.200,0.220
2924,0.180,0.190
2925,0.120,0.150
2926,0.120,0.110
2927,0.030,0.040
2928,0.020,0.050
2929,0.050,-0.050
2930,0.070,-0.210
2931,0.040,-0.200
2932,0.040,-0.190
2933,0.050,-0.190
2934,0.040,-0.300
2935,-0.050,-0.170
2936,0.090,1.050
2937,0.040,3.970
2938,0.580,5.080
2939,-0.350,3.690
2940,-0.570,-0.430
2941,-0.400,-0.740
2942,-0.490,-0.510
2943,-0.300,-0.240
2944,0.010,-0.310
2945,-0.010,-0.290
2946,0.020,-0.330
2947,0.030,-0.320
2948,0.030,-0.330
2949,0.020,-0.290
2950,0.040,-0.270
2951,0.040,-0.310
2952,0.030,-0.250
2953,0.040,-0.280
2954,0.040,-0.180
2955,0.040,-0.250
2956,0.040,-0.160
2957,0.040,-0.220
2958,0.030,-0.120
2959,0.030,-0.130
2960,0.000,-0.080
2961,0.000,-0.110
2962,-0.040,-0.050
2963,-0.050,-0.070
2964,-0.070,-0.090
2965,-0.100,-0.110
2966,-0.130,-0.190
2967,-0.150,-0.170
2968,-0.140,-0.230
2969,-0.160,-0.210
2970,-0.140,-0.270
2971,-0.110,-0.160
2972,-0.070,-0.180
2973,-0.030,-0.100
2974,0.010,-0.130
2975,0.040,-0.070
2976,0.080,-0.070
2977,0.090,-0.040
2978,0.110,-0.080
2979,0.110,-0.060
2980,0.110,-0.060
2981,0.100,-0.060
2982,0.110,-0.040
2983,0.100,-0.080
2984,0.100,-0.060
2985,0.090,-0.060
2986,0.100,0.000
2987,0.100,-0.080
2988,0.090,-0.040
2989,0.090,-0.070
2990,0.080,-0.030
2991,0.090,-0.080
2992,0.100,-0.060
2993,0.090,-0.110
2994,0.080,-0.060
2995,0.090,-0.080
2996,0.090,-0.110
2997,0.090,-0.100
2998,0.090,-0.130
2999,0.090,-0.080
3000,0.090,-0.140
3001,0.080,-0.100
3002,0.080,-0.180
3003,0.070,-0.100
3004,0.080,-0.140
3005,0.080,-0.120
3006,0.080,-0.170
3007,0.070,-0.160
3008,0.060,-0.140
3009,0.070,-0.140
3010,0.070,-0.140
3011,0.070,-0.170
3012,0.080,-0.090
3013,0.100,-0.060
3014,0.130,-0.030
3015,0.080,-0.020
3016,0.130,0.070
3017,0.180,0.250
3018,0.200,0.240
3019,0.130,0.190
3020,0.120,0.110
3021,0.040,0.060
3022,0.000,0.060
3023,0.030,0.020
3024,0.050,-0.160
3025,0.020,-0.180
3026,0.020,-0.170
3027,0.020,-0.130
3028,0.030,-0.210
3029,-0.010,-0.270
3030,0.040,0.820
3031,-0.010,3.270
3032,0.590,5.040
3033,-0.320,4.100
3034,-0.520,0.550
3035,-0.330,-0.920
3036,-0.590,-0.530
3037,-0.420,-0.180
3038,-0.040,-0.230
3039,-0.040,-0.270
3040,-0.030,-0.250
3041,-0.020,-0.280
3042,0.000,-0.250
3043,0.000,-0.290
3044,-0.010,-0.200
3045,0.010,-0.240
3046,0.010,-0.210
3047,0.000,-0.240
3048,-0.010,-0.180
3049,-0.020,-0.190
3050,-0.010,-0.120
3051,-0.010,-0.160
3052,-0.020,-0.140
3053,-0.030,-0.070
3054,-0.050,-0.070
3055,-0.050,-0.050
3056,-0.090,-0.070
3057,-0.120,-0.040
3058,-0.150,-0.070
3059,-0.170,-0.040
3060,-0.220,-0.150
3061,-0.250,-0.170
3062,-0.270,-0.210
3063,-0.270,-0.200
3064,-0.240,-0.250
3065,-0.240,-0.200
3066,-0.190,-0.190
3067,-0.160,-0.110
3068,-0.100,-0.080
3069,-0.080,-0.090
3070,-0.030,-0.070
3071,-0.020,-0.060
3072,0.010,-0.040
3073,0.020,-0.090
3074,0.020,-0.040
3075,0.020,-0.100
3076,0.010,-0.020
3077,0.010,-0.060
3078,0.000,-0.040
3079,0.000,-0.110
3080,-0.020,-0.040
3081,-0.010,-0.080
3082,-0.030,-0.060
3083,-0.020,-0.090
3084,-0.010,-0.100
3085,-0.030,-0.070
3086,-0.040,-0.100
3087,-0.040,-0.090
3088,-0.040,-0.140
3089,-0.060,-0.080
3090,-0.060,-0.140
3091,-0.050,-0.090
3092,-0.050,-0.160
3093,-0.060,-0.130
3094,-0.060,-0.140
3095,-0.060,-0.120
3096,-0.040,-0.160
3097,-0.070,-0.170
3098,-0.070,-0.150
3099,-0.070,-0.160
3100,-0.060,-0.140
3101,-0.070,-0.190
3102,-0.060,-0.170
3103,-0.050,-0.190
3104,-0.050,-0.130
3105,-0.050,-0.200
3106,-0.050,-0.170
3107,-0.050,-0.170
3108,-0.030,-0.060
3109,0.010,-0.080
3110,-0.030,-0.030
3111,0.020,0.000
3112,0.040,0.210
3113,0.080,0.170
3114,0.010,0.130
3115,0.010,0.080
3116,-0.080,-0.020
3117,-0.100,0.020
3118,-0.070,-0.080
3119,-0.050,-0.200
3120,-0.060,-0.290
3121,-0.080,-0.210
3122,-0.050,-0.250
3123,-0.080,-0.250
3124,-0.110,-0.340
3125,-0.070,0.810
3126,-0.130,3.290
3127,0.440,5.000
3128,-0.420,3.950
3129,-0.530,0.220
3130,-0.350,-0.870
3131,-0.590,-0.610
3132,-0.470,-0.260
3133,-0.140,-0.380
3134,-0.140,-0.340
3135,-0.110,-0.370
3136,-0.120,-0.320
3137,-0.090,-0.380
3138,-0.130,-0.360
3139,-0.100,-0.340
3140,-0.110,-0.320
3141,-0.100,-0.310
3142,-0.100,-0.320
3143,-0.110,-0.300
3144,-0.130,-0.290
3145,-0.110,-0.220
3146,-0.120,-0.290
3147,-0.140,-0.230
3148,-0.140,-0.220
3149,-0.170,-0.160
3150,-0.190,-0.210
3151,-0.210,-0.150
3152,-0.240,-0.210
3153,-0.290,-0.150
3154,-0.290,-0.200
3155,-0.330,-0.230
3156,-0.350,-0.310
3157,-0.350,-0.300
3158,-0.350,-0.320
3159,-0.330,-0.350
3160,-0.290,-0.280
3161,-0.260,-0.280
3162,-0.230,-0.180
3163,-0.170,-0.190
3164,-0.120,-0.160
3165,-0.120,-0.210
3166,-0.080,-0.120
3167,-0.090,-0.180
3168,-0.050,-0.150
3169,-0.060,-0.210
3170,-0.070,-0.200
3171,-0.080,-0.160
3172,-0.070,-0.160
3173,-0.080,-0.180
3174,-0.070,-0.200
3175,-0.070,-0.150
3176,-0.070,-0.190
3177,-0.090,-0.150
3178,-0.080,-0.210
3179,-0.080,-0.180
3180,-0.080,-0.200
3181,-0.090,-0.150
3182,-0.080,-0.220
3183,-0.090,-0.190
3184,-0.080,-0.220
3185,-0.100,-0.180
3186,-0.090,-0.230
3187,-0.090,-0.210
3188,-0.090,-0.230
3189,-0.080,-0.240
3190,-0.070,-0.200
3191,-0.090,-0.260
3192,-0.080,-0.240
3193,-0.060,-0.260
3194,-0.070,-0.220
3195,-0.080,-0.270
3196,-0.060,-0.250
3197,-0.090,-0.330
3198,-0.080,-0.230
3199,-0.060,-0.270
3200,-0.070,-0.220
3201,-0.040,-0.210
3202,0.000,-0.140
3203,-0.050,-0.150
3204,0.000,-0.090
3205,0.040,0.090
3206,0.070,0.020
3207,0.000,0.070
3208,0.000,-0.020
3209,-0.070,-0.060
3210,-0.080,-0.140
3211,-0.080,-0.110
3212,-0.080,-0.320
3213,-0.090,-0.260
3214,-0.080,-0.340
3215,-0.080,-0.300
3216,-0.100,-0.330
3217,-0.150,-0.290
3218,-0.060,0.860
3219,-0.100,3.350
3220,0.370,5.110
3221,-0.410,4.260
3222,-0.530,0.740
3223,-0.370,-1.040
3224,-0.510,-0.730
3225,-0.500,-0.340
3226,-0.120,-0.370
3227,-0.120,-0.440
3228,-0.090,-0.420
3229,-0.100,-0.440
3230,-0.090,-0.380
3231,-0.070,-0.420
3232,-0.080,-0.380
3233,-0.070,-0.420
3234,-0.090,-0.340
3235,-0.060,-0.370
3236,-0.080,-0.350
3237,-0.080,-0.360
3238,-0.080,-0.320
3239,-0.080,-0.300
3240,-0.080,-0.290
3241,-0.090,-0.260
3242,-0.110,-0.310
3243,-0.130,-0.210
3244,-0.130,-0.260
3245,-0.160,-0.240
3246,-0.180,-0.320
3247,-0.200,-0.290
3248,-0.230,-0.370
3249,-0.240,-0.380
3250,-0.250,-0.460
3251,-0.260,-0.470
3252,-0.250,-0.440
3253,-0.230,-0.410
3254,-0.180,-0.370
3255,-0.150,-0.340
3256,-0.110,-0.270
3257,-0.100,-0.270
3258,-0.050,-0.220
3259,-0.020,-0.280
3260,-0.020,-0.240
3261,0.000,-0.250
3262,0.000,-0.210
3263,0.000,-0.260
3264,0.000,-0.210
3265,0.010,-0.250
3266,-0.010,-0.210
3267,0.000,-0.240
3268,0.000,-0.230
3269,0.010,-0.270
3270,-0.010,-0.230
3271,0.010,-0.210
3272,0.010,-0.270
3273,0.010,-0.240
3274,0.010,-0.280
3275,0.010,-0.220
3276,0.020,-0.290
3277,0.020,-0.260
3278,0.020,-0.330
3279,0.020,-0.260
3280,0.050,-0.300
3281,0.030,-0.300
3282,0.050,-0.330
3283,0.050,-0.330
3284,0.060,-0.310
3285,0.060,-0.320
3286,0.080,-0.330
3287,0.070,-0.380
3288,0.080,-0.310
3289,0.080,-0.350
3290,0.090,-0.320
3291,0.080,-0.370
3292,0.080,-0.260
3293,0.130,-0.270
3294,0.130,-0.190
3295,0.130,-0.220
3296,0.130,-0.140
3297,0.220,0.020
3298,0.180,-0.010
3299,0.140,-0.010
3300,0.130,-0.150
3301,0.040,-0.140
3302,0.040,-0.180
3303,0.050,-0.200
3304,0.090,-0.420
3305,0.080,-0.390
3306,0.080,-0.410
3307,0.080,-0.350
3308,0.090,-0.460
3309,0.000,-0.410
3310,0.140,0.720
3311,0.090,3.470
3312,0.690,4.940
3313,-0.290,3.670
3314,-0.490,-0.140
3315,-0.290,-1.040
3316,-0.460,-0.690
3317,-0.290,-0.450
3318,0.080,-0.460
3319,0.070,-0.560
3320,0.080,-0.460
3321,0.100,-0.510
3322,0.120,-0.470
3323,0.120,-0.500
3324,0.110,-0.440
3325,0.120,-0.450
3326,0.140,-0.430
3327,0.110,-0.430
3328,0.120,-0.440
3329,0.120,-0.360
3330,0.110,-0.370
3331,0.120,-0.340
3332,0.120,-0.360
3333,0.100,-0.270
3334,0.080,-0.300
3335,0.060,-0.230
3336,0.050,-0.280
3337,0.010,-0.250
3338,-0.010,-0.260
3339,-0.040,-0.260
3340,-0.050,-0.330
3341,-0.090,-0.370
3342,-0.100,-0.390
3343,-0.110,-0.410
3344,-0.090,-0.390
3345,-0.070,-0.440
3346,-0.030,-0.350
3347,0.010,-0.340
3348,0.030,-0.230
3349,0.080,-0.290
3350,0.120,-0.240
3351,0.140,-0.280
3352,0.150,-0.240
3353,0.170,-0.240
3354,0.160,-0.260
3355,0.170,-0.260
3356,0.150,-0.230
3357,0.160,-0.210
3358,0.140,-0.240
3359,0.150,-0.220
3360,0.140,-0.270
3361,0.120,-0.210
3362,0.140,-0.250
3363,0.140,-0.210
3364,0.150,-0.270
3365,0.150,-0.210
3366,0.150,-0.250
3367,0.150,-0.260
3368,0.160,-0.270
3369,0.160,-0.290
3370,0.160,-0.240
3371,0.170,-0.270
3372,0.180,-0.270
3373,0.180,-0.310
3374,0.170,-0.240
3375,0.180,-0.300
3376,0.190,-0.280
3377,0.180,-0.330
3378,0.180,-0.310
3379,0.170,-0.310
3380,0.180,-0.280
3381,0.170,-0.330
3382,0.170,-0.310
3383,0.170,-0.310
3384,0.170,-0.310
3385,0.180,-0.290
3386,0.170,-0.310
3387,0.190,-0.250
3388,0.230,-0.230
3389,0.200,-0.150
3390,0.250,-0.170
3391,0.200,0.050
3392,0.340,-0.010
3393,0.230,0.060
3394,0.220,-0.040
3395,0.180,-0.080
3396,0.110,-0.140
3397,0.130,-0.090
3398,0.140,-0.220
3399,0.160,-0.340
3400,0.170,-0.330
3401,0.150,-0.340
3402,0.150,-0.290
3403,0.140,-0.490
3404,0.060,0.260
3405,0.180,1.910
3406,0.400,4.660
3407,0.180,4.460
3408,-0.360,2.280
3409,-0.370,-1.300
3410,-0.490,-0.770
3411,-0.330,-0.430
3412,-0.080,-0.350
3413,0.080,-0.420
3414,0.070,-0.460
3415,0.080,-0.400
3416,0.100,-0.430
3417,0.110,-0.370
3418,0.110,-0.420
3419,0.110,-0.370
3420,0.100,-0.390
3421,0.110,-0.310
3422,0.110,-0.370
3423,0.100,-0.330
3424,0.100,-0.300
3425,0.090,-0.270
3426,0.090,-0.260
3427,0.080,-0.270
3428,0.060,-0.230
3429,0.040,-0.200
3430,0.030,-0.140
3431,0.010,-0.210
3432,-0.020,-0.180
3433,-0.050,-0.210
3434,-0.080,-0.220
3435,-0.100,-0.300
3436,-0.120,-0.300
3437,-0.120,-0.390
3438,-0.140,-0.330
3439,-0.120,-0.350
3440,-0.080,-0.320
3441,-0.040,-0.280
3442,0.010,-0.210
3443,0.050,-0.160
3444,0.090,-0.180
3445,0.120,-0.150
3446,0.140,-0.210
3447,0.150,-0.120
3448,0.150,-0.160
3449,0.170,-0.130
3450,0.170,-0.170
3451,0.150,-0.110
3452,0.160,-0.140
3453,0.170,-0.100
3454,0.170,-0.150
3455,0.160,-0.140
3456,0.170,-0.110
3457,0.160,-0.120
3458,0.160,-0.130
3459,0.160,-0.180
3460,0.170,-0.120
3461,0.140,-0.160
3462,0.160,-0.130
3463,0.150,-0.190
3464,0.150,-0.160
3465,0.140,-0.160
3466,0.140,-0.130
3467,0.150,-0.190
3468,0.140,-0.160
3469,0.140,-0.180
3470,0.130,-0.180
3471,0.130,-0.190
3472,0.130,-0.220
3473,0.140,-0.220
3474,0.120,-0.220
3475,0.130,-0.190
3476,0.130,-0.250
3477,0.140,-0.200
3478,0.130,-0.260
3479,0.130,-0.180
3480,0.120,-0.230
3481,0.140,-0.190
3482,0.140,-0.210
3483,0.180,-0.110
3484,0.160,-0.100
3485,0.180,-0.080
3486,0.150,0.100
3487,0.280,0.070
3488,0.180,0.150
3489,0.170,0.080
3490,0.150,0.030
3491,0.050,-0.070
3492,0.060,0.000
3493,0.070,-0.160
3494,0.100,-0.250
3495,0.100,-0.290
3496,0.090,-0.260
3497,0.070,-0.240
3498,0.070,-0.340
3499,-0.010,0.240
3500,0.110,1.900
3501,0.260,4.730
3502,0.170,4.530
3503,-0.370,2.230
3504,-0.290,-1.240
3505,-0.520,-0.690
3506,-0.370,-0.340
3507,-0.090,-0.260
3508,0.010,-0.370
3509,0.010,-0.340
3510,0.010,-0.380
3511,0.030,-0.330
3512,0.040,-0.360
3513,0.040,-0.330
3514,0.030,-0.370
3515,0.020,-0.300
3516,0.010,-0.280
3517,0.030,-0.290
3518,0.010,-0.260
3519,0.000,-0.240
3520,-0.010,-0.200
3521,-0.010,-0.200
3522,-0.010,-0.170
3523,-0.050,-0.200
3524,-0.060,-0.100
3525,-0.090,-0.130
3526,-0.120,-0.120
3527,-0.150,-0.150
3528,-0.170,-0.120
3529,-0.210,-0.180
3530,-0.220,-0.180
3531,-0.250,-0.250
3532,-0.250,-0.310
3533,-0.250,-0.260
3534,-0.230,-0.260
3535,-0.190,-0.200
3536,-0.140,-0.190
3537,-0.100,-0.100
3538,-0.060,-0.110
3539,-0.020,-0.060
3540,0.020,-0.110
3541,0.030,-0.070
3542,0.050,-0.100
3543,0.060,-0.060
3544,0.050,-0.110
3545,0.050,-0.110
3546,0.060,-0.090
3547,0.050,-0.080
3548,0.050,-0.040
3549,0.050,-0.110
3550,0.040,-0.080
3551,0.050,-0.110
3552,0.040,-0.060
3553,0.040,-0.110
3554,0.030,-0.070
3555,0.040,-0.130
3556,0.040,-0.060
3557,0.040,-0.100
3558,0.030,-0.090
3559,0.020,-0.140
3560,0.020,-0.100
3561,0.030,-0.110
3562,0.030,-0.120
3563,0.040,-0.120
3564,0.030,-0.170
3565,0.020,-0.100
3566,0.030,-0.150
3567,0.030,-0.130
3568,0.040,-0.190
3569,0.030,-0.120
3570,0.030,-0.170
3571,0.030,-0.140
3572,0.030,-0.190
3573,0.030,-0.150
3574,0.020,-0.110
3575,0.040,-0.040
3576,0.110,-0.060
3577,0.030,-0.040
3578,0.100,0.050
3579,0.060,0.230
3580,0.160,0.210
3581,0.090,0.180
3582,0.070,0.150
3583,0.000,0.080
3584,-0.040,0.110
3585,-0.030,-0.020
3586,-0.020,-0.100
3587,-0.020,-0.200
3588,-0.010,-0.180
3589,-0.030,-0.150
3590,-0.040,-0.170
3591,-0.060,-0.280
3592,-0.090,0.650
3593,-0.050,2.580
3594,0.200,5.110
3595,-0.120,4.850
3596,-0.500,2.340
3597,-0.330,-1.090
3598,-0.540,-0.570
3599,-0.490,-0.240
3600,-0.210,-0.250
3601,-0.100,-0.220
3602,-0.090,-0.270
3603,-0.070,-0.240
3604,-0.060,-0.280
3605,-0.060,-0.260
3606,-0.060,-0.240
3607,-0.050,-0.230
3608,-0.050,-0.210
3609,-0.050,-0.240
3610,-0.050,-0.170
3611,-0.060,-0.200
3612,-0.050,-0.130
3613,-0.050,-0.190
3614,-0.050,-0.140
3615,-0.060,-0.110
3616,-0.080,-0.060
3617,-0.080,-0.090
3618,-0.090,-0.070
3619,-0.100,-0.070
3620,-0.140,-0.070
3621,-0.140,-0.070
3622,-0.170,-0.150
3623,-0.200,-0.180
3624,-0.200,-0.220
3625,-0.200,-0.210
3626,-0.190,-0.280
3627,-0.180,-0.230
3628,-0.150,-0.230
3629,-0.130,-0.130
3630,-0.070,-0.110
3631,-0.040,-0.070
3632,0.000,-0.090
3633,0.030,-0.050
3634,0.060,-0.030
3635,0.080,-0.080
3636,0.090,-0.050
3637,0.090,-0.090
3638,0.090,-0.020
3639,0.090,-0.050
3640,0.100,-0.030
3641,0.090,-0.090
3642,0.070,-0.010
3643,0.080,-0.070
3644,0.070,-0.020
3645,0.070,-0.070
3646,0.070,-0.070
3647,0.050,-0.020
3648,0.050,-0.030
3649,0.070,-0.030
3650,0.050,-0.090
3651,0.050,-0.030
3652,0.040,-0.080
3653,0.050,-0.030
3654,0.060,-0.130
3655,0.050,-0.090
3656,0.050,-0.110
3657,0.040,-0.070
3658,0.070,-0.140
3659,0.060,-0.110
3660,0.050,-0.120
3661,0.040,-0.120
3662,0.060,-0.100
3663,0.060,-0.150
3664,0.060,-0.120
3665,0.060,-0.130
3666,0.060,-0.090
3667,0.080,-0.140
3668,0.080,-0.060
3669,0.130,-0.070
3670,0.100,0.030
3671,0.130,0.060
3672,0.120,0.170
3673,0.230,0.210
3674,0.150,0.220
3675,0.110,0.260
3676,0.110,0.100
3677,0.010,0.110
3678,0.020,0.010
3679,0.020,0.050
3680,0.050,-0.180
3681,0.050,-0.140
3682,0.060,-0.210
3683,0.050,-0.160
3684,0.060,-0.210
3685,-0.020,-0.160
3686,0.130,1.030
3687,0.060,3.780
3688,0.630,5.110
3689,-0.350,3.860
3690,-0.510,0.010
3691,-0.310,-0.830
3692,-0.460,-0.490
3693,-0.320,-0.230
3694,0.030,-0.220
3695,0.030,-0.330
3696,0.040,-0.280
3697,0.050,-0.290
3698,0.060,-0.280
3699,0.070,-0.280
3700,0.070,-0.290
3701,0.070,-0.270
3702,0.060,-0.240
3703,0.070,-0.180
3704,0.080,-0.230
3705,0.060,-0.160
3706,0.060,-0.200
3707,0.050,-0.120
3708,0.050,-0.140
3709,0.030,-0.090
3710,0.020,-0.120
3711,0.000,-0.040
3712,0.000,-0.070
3713,-0.030,-0.070
3714,-0.050,-0.080
3715,-0.100,-0.130
3716,-0.130,-0.110
3717,-0.150,-0.190
3718,-0.170,-0.190
3719,-0.160,-0.270
3720,-0.150,-0.200
3721,-0.150,-0.230
3722,-0.090,-0.150
3723,-0.060,-0.150
3724,-0.010,-0.100
3725,0.030,-0.070
3726,0.060,-0.050
3727,0.090,-0.060
3728,0.100,-0.100
3729,0.120,-0.050
3730,0.130,-0.070
3731,0.130,-0.010
3732,0.120,-0.080
3733,0.130,-0.050
3734,0.120,-0.050
3735,0.120,-0.020
3736,0.120,-0.070
3737,0.110,-0.040
3738,0.120,-0.060
3739,0.110,-0.030
3740,0.120,-0.020
3741,0.110,-0.070
3742,0.120,-0.060
3743,0.100,-0.060
3744,0.100,-0.010
3745,0.110,-0.080
3746,0.110,-0.030
3747,0.110,-0.110
3748,0.100,-0.040
3749,0.100,-0.070
3750,0.110,-0.060
3751,0.120,-0.100
3752,0.120,-0.090
3753,0.110,-0.070
3754,0.110,-0.090
3755,0.120,-0.090
3756,0.120,-0.120
3757,0.120,-0.060
3758,0.120,-0.100
3759,0.130,-0.080
3760,0.120,-0.120
3761,0.120,-0.020
3762,0.140,-0.030
3763,0.140,0.060
3764,0.150,0.030
3765,0.130,0.170
3766,0.250,0.230
3767,0.170,0.250
3768,0.130,0.220
3769,0.110,0.110
3770,0.030,0.080
3771,0.020,0.070
3772,0.030,0.030
3773,0.060,-0.200
3774,0.050,-0.160
3775,0.050,-0.190
3776,0.040,-0.110
3777,0.050,-0.240
3778,-0.050,-0.080
3779,0.100,1.130
3780,0.040,4.080
3781,0.520,4.990
3782,-0.390,3.600
3783,-0.460,-0.380
3784,-0.340,-0.680
3785,-0.440,-0.420
3786,-0.310,-0.180
3787,0.010,-0.230
3788,-0.020,-0.300
3789,0.000,-0.210
3790,0.010,-0.250
3791,0.010,-0.220
3792,0.020,-0.260
3793,0.010,-0.200
3794,0.010,-0.210
3795,0.010,-0.160
3796,0.010,-0.190
3797,0.010,-0.180
3798,0.000,-0.130
3799,-0.010,-0.100
3800,0.000,-0.090
3801,-0.020,-0.100
3802,-0.020,-0.040
3803,-0.050,-0.040
3804,-0.060,0.020
3805,-0.090,-0.050
3806,-0.120,0.000
3807,-0.150,-0.050
3808,-0.180,-0.020
3809,-0.200,-0.130
3810,-0.220,-0.130
3811,-0.220,-0.210
3812,-0.230,-0.170
3813,-0.200,-0.190
3814,-0.170,-0.160
3815,-0.110,-0.140
3816,-0.070,-0.060
3817,-0.030,-0.020
3818,0.010,-0.060
3819,0.050,-0.040
3820,0.060,-0.080
3821,0.070,-0.010
3822,0.100,-0.070
3823,0.100,-0.020
3824,0.100,-0.080
3825,0.100,0.010
3826,0.080,-0.050
3827,0.090,0.000
3828,0.090,-0.050
3829,0.080,-0.020
3830,0.070,-0.010
3831,0.070,-0.010
3832,0.070,-0.010
3833,0.060,-0.040
3834,0.070,0.000
3835,0.060,-0.030
3836,0.070,-0.010
3837,0.060,-0.060
3838,0.060,-0.030
3839,0.060,-0.050
3840,0.050,0.010
3841,0.070,-0.080
3842,0.070,-0.050
3843,0.060,-0.070
3844,0.070,-0.030
3845,0.070,-0.080
3846,0.080,-0.070
3847,0.060,-0.100
3848,0.070,-0.050
3849,0.080,-0.050
3850,0.070,-0.090
3851,0.070,-0.070
3852,0.060,-0.120
3853,0.050,-0.040
3854,0.060,-0.110
3855,0.060,0.000
3856,0.100,-0.050
3857,0.060,0.080
3858,0.110,0.070
3859,0.070,0.270
3860,0.200,0.210
3861,0.090,0.250
3862,0.080,0.190
3863,0.040,0.110
3864,-0.010,0.080
3865,-0.010,0.010
3866,0.000,-0.050
3867,0.010,-0.160
3868,0.020,-0.150
3869,0.010,-0.200
3870,0.010,-0.120
3871,-0.030,-0.320
3872,-0.100,0.460
3873,0.000,2.080
3874,0.180,4.870
3875,0.010,4.570
3876,-0.410,2.340
3877,-0.200,-1.070
3878,-0.500,-0.550
3879,-0.420,-0.220
3880,-0.170,-0.200
3881,-0.070,-0.190
3882,-0.060,-0.250
3883,-0.050,-0.230
3884,-0.050,-0.240
3885,-0.040,-0.190
3886,-0.050,-0.230
3887,-0.040,-0.190
3888,-0.050,-0.230
3889,-0.060,-0.140
3890,-0.030,-0.150
3891,-0.040,-0.130
3892,-0.040,-0.160
3893,-0.050,-0.070
3894,-0.070,-0.040
3895,-0.080,-0.070
3896,-0.080,-0.020
3897,-0.110,-0.060
3898,-0.150,0.030
3899,-0.170,0.000
3900,-0.200,0.030
3901,-0.220,-0.070
3902,-0.260,-0.010
3903,-0.260,-0.100
3904,-0.280,-0.100
3905,-0.270,-0.140
3906,-0.250,-0.140
3907,-0.250,-0.110
3908,-0.190,-0.060
3909,-0.130,-0.040
3910,-0.070,-0.040
3911,-0.020,0.030
3912,0.000,-0.010
3913,0.020,0.040
3914,0.050,-0.020
3915,0.080,-0.010
3916,0.070,-0.040
3917,0.080,0.030
3918,0.090,-0.030
3919,0.060,0.000
3920,0.080,-0.020
3921,0.060,0.000
3922,0.060,-0.010
3923,0.040,-0.030
3924,0.050,-0.040
3925,0.030,-0.030
3926,0.040,0.010
3927,0.040,-0.040
3928,0.050,0.000
3929,0.030,-0.050
3930,0.010,-0.010
3931,0.040,-0.050
3932,0.050,-0.010
3933,0.040,-0.100
3934,0.040,-0.040
3935,0.040,-0.060
3936,0.040,-0.080
3937,0.040,-0.090
3938,0.040,-0.110
3939,0.040,-0.040
3940,0.050,-0.080
3941,0.060,-0.060
3942,0.050,-0.120
3943,0.050,-0.050
3944,0.050,-0.100
3945,0.050,-0.030
3946,0.070,-0.050
3947,0.100,0.030
3948,0.070,0.030
3949,0.090,0.110
3950,0.080,0.160
3951,0.180,0.250
3952,0.120,0.290
3953,0.110,0.270
3954,0.090,0.210
3955,0.000,0.120
3956,-0.010,0.120
3957,0.000,0.050
3958,0.030,-0.060
3959,0.020,-0.140
3960,0.010,-0.100
3961,0.000,-0.090
3962,0.020,-0.150
3963,-0.100,-0.040
3964,0.040,1.280
3965,0.010,4.080
3966,0.450,5.110
3967,-0.420,4.270
3968,-0.400,0.200
3969,-0.350,-0.650
3970,-0.360,-0.530
3971,-0.390,-0.090
3972,-0.040,-0.200
3973,-0.050,-0.190
3974,-0.010,-0.280
3975,-0.010,-0.180
3976,0.000,-0.230
3977,-0.010,-0.190
3978,0.000,-0.210
3979,0.000,-0.200
3980,-0.010,-0.150
3981,0.000,-0.150
3982,0.000,-0.130
3983,-0.010,-0.150
3984,-0.020,-0.070
3985,-0.020,-0.100
3986,-0.030,-0.020
3987,-0.040,-0.060
3988,-0.050,-0.020
3989,-0.080,0.000
3990,-0.100,0.060
3991,-0.120,0.010
3992,-0.150,0.020
3993,-0.180,0.010
3994,-0.220,-0.040
3995,-0.220,-0.060
3996,-0.240,-0.140
3997,-0.240,-0.140
3998,-0.240,-0.140
3999,-0.200,-0.080
4000,-0.150,-0.100
4001,-0.120,-0.020
4002,-0.070,-0.040
4003,-0.040,0.040
4004,0.000,-0.010
4005,0.020,0.010
4006,0.040,-0.030
4007,0.040,0.010
4008,0.050,0.010
4009,0.050,-0.010
4010,0.070,0.010
4011,0.050,-0.020
4012,0.050,0.030
4013,0.050,-0.010
4014,0.060,0.020
4015,0.050,-0.050
4016,0.050,0.040
4017,0.050,-0.010
4018,0.060,0.010
4019,0.050,-0.040
4020,0.060,-0.030
4021,0.030,-0.020
4022,0.050,-0.020
4023,0.050,-0.040
4024,0.040,-0.080
4025,0.040,-0.020
4026,0.040,-0.080
4027,0.050,-0.040
4028,0.040,-0.110
4029,0.040,-0.080
4030,0.040,-0.100
4031,0.030,-0.060
4032,0.060,-0.120
4033,0.020,-0.100
4034,0.050,-0.110
4035,0.020,-0.090
4036,0.040,-0.100
4037,0.030,-0.120
4038,0.030,-0.110
4039,0.040,-0.050
4040,0.080,0.010
4041,0.070,-0.020
4042,0.080,0.070
4043,0.070,0.110
4044,0.170,0.270
4045,0.120,0.200
4046,0.080,0.220
4047,0.070,0.040
4048,-0.030,0.100
4049,-0.020,0.040
4050,-0.010,-0.020
4051,0.010,-0.190
4052,0.000,-0.190
4053,0.000,-0.170
4054,-0.010,-0.170
4055,-0.020,-0.220
4056,-0.070,-0.300
4057,0.060,0.930
4058,0.020,3.670
4059,0.560,5.110
4060,-0.440,3.920
4061,-0.590,0.040
4062,-0.450,-0.760
4063,-0.530,-0.480
4064,-0.400,-0.230
4065,-0.070,-0.280
4066,-0.080,-0.290
4067,-0.080,-0.290
4068,-0.070,-0.300
4069,-0.060,-0.300
4070,-0.060,-0.280
4071,-0.070,-0.260
4072,-0.060,-0.200
4073,-0.050,-0.260
4074,-0.060,-0.200
4075,-0.080,-0.210
4076,-0.080,-0.130
4077,-0.070,-0.160
4078,-0.080,-0.110
4079,-0.090,-0.140
4080,-0.100,-0.070
4081,-0.100,-0.020
4082,-0.130,-0.050
4083,-0.140,-0.020
4084,-0.170,-0.010
4085,-0.200,0.010
4086,-0.220,-0.060
4087,-0.270,-0.040
4088,-0.280,-0.160
4089,-0.310,-0.090
4090,-0.300,-0.160
4091,-0.280,-0.140
4092,-0.250,-0.180
4093,-0.210,-0.100
4094,-0.180,-0.090
4095,-0.120,-0.060
4096,-0.080,-0.070
4097,-0.060,-0.100
4098,-0.030,-0.050
4099,-0.040,-0.080
4100,-0.010,-0.060
4101,-0.010,-0.110
4102,-0.010,-0.060
4103,-0.030,-0.090
4104,-0.010,-0.040
4105,-0.020,-0.120
4106,-0.030,-0.080
4107,-0.040,-0.100
4108,-0.040,-0.070
4109,-0.040,-0.100
4110,-0.040,-0.090
4111,-0.040,-0.110
4112,-0.060,-0.090
4113,-0.040,-0.090
4114,-0.050,-0.150
4115,-0.040,-0.150
4116,-0.050,-0.140
4117,-0.040,-0.120
4118,-0.050,-0.170
4119,-0.060,-0.140
4120,-0.060,-0.200
4121,-0.070,-0.150
4122,-0.050,-0.190
4123,-0.050,-0.170
4124,-0.050,-0.240
4125,-0.060,-0.180
4126,-0.070,-0.210
4127,-0.050,-0.200
4128,-0.060,-0.230
4129,-0.070,-0.230
4130,-0.070,-0.200
4131,-0.060,-0.200
4132,-0.040,-0.170
4133,-0.020,-0.180
4134,-0.060,-0.080
4135,-0.010,-0.090
4136,-0.030,0.090
4137,0.100,0.060
4138,0.010,0.080
4139,-0.030,0.060
4140,-0.040,-0.020
4141,-0.120,-0.100
4142,-0.120,-0.100
4143,-0.110,-0.170
4144,-0.100,-0.310
4145,-0.090,-0.300
4146,-0.100,-0.330
4147,-0.110,-0.320
4148,-0.120,-0.430
4149,-0.190,-0.070
4150,-0.010,1.220
4151,0.070,4.240
4152,0.150,4.730
4153,-0.600,2.950
4154,-0.640,-1.080
4155,-0.700,-0.740
4156,-0.560,-0.520
4157,-0.340,-0.330
4158,-0.170,-0.410
4159,-0.170,-0.410
4160,-0.160,-0.430
4161,-0.150,-0.410
4162,-0.150,-0.390
4163,-0.150,-0.410
4164,-0.140,-0.390
4165,-0.150,-0.410
4166,-0.160,-0.320
4167,-0.170,-0.350
4168,-0.160,-0.300
4169,-0.160,-0.340
4170,-0.160,-0.260
4171,-0.190,-0.270
4172,-0.190,-0.210
4173,-0.200,-0.240
4174,-0.220,-0.210
4175,-0.230,-0.160
4176,-0.250,-0.120
4177,-0.280,-0.160
4178,-0.320,-0.180
4179,-0.350,-0.170
4180,-0.380,-0.220
4181,-0.400,-0.230
4182,-0.400,-0.310
4183,-0.390,-0.280
4184,-0.380,-0.290
4185,-0.330,-0.220
4186,-0.280,-0.260
4187,-0.230,-0.200
4188,-0.190,-0.220
4189,-0.150,-0.180
4190,-0.130,-0.220
4191,-0.100,-0.230
4192,-0.100,-0.260
4193,-0.090,-0.230
4194,-0.090,-0.220
4195,-0.080,-0.240
4196,-0.080,-0.230
4197,-0.090,-0.260
4198,-0.090,-0.200
4199,-0.070,-0.220
4200,-0.070,-0.250
4201,-0.100,-0.290
4202,-0.090,-0.200
4203,-0.080,-0.280
4204,-0.090,-0.240
4205,-0.080,-0.290
4206,-0.080,-0.270
4207,-0.090,-0.300
4208,-0.090,-0.270
4209,-0.070,-0.290
4210,-0.070,-0.300
4211,-0.070,-0.270
4212,-0.080,-0.310
4213,-0.070,-0.290
4214,-0.070,-0.350
4215,-0.060,-0.320
4216,-0.080,-0.350
4217,-0.080,-0.280
4218,-0.060,-0.380
4219,-0.080,-0.340
4220,-0.070,-0.370
4221,-0.090,-0.330
4222,-0.080,-0.360
4223,-0.080,-0.360
4224,-0.080,-0.380
4225,-0.100,-0.340
4226,-0.090,-0.320
4227,-0.080,-0.360
4228,-0.080,-0.330
4229,-0.080,-0.320
4230,-0.080,-0.250
4231,-0.030,-0.260
4232,-0.090,-0.180
4233,-0.010,-0.240
4234,-0.070,0.040
4235,0.060,-0.030
4236,-0.020,0.030
4237,-0.020,-0.090
4238,-0.070,-0.090
4239,-0.130,-0.140
4240,-0.110,-0.140
4241,-0.110,-0.260
4242,-0.110,-0.410
4243,-0.100,-0.340
4244,-0.110,-0.390
4245,-0.100,-0.310
4246,-0.110,-0.530
4247,-0.190,0.080
4248,-0.070,1.520
4249,0.100,4.480
4250,-0.010,4.600
4251,-0.520,2.640
4252,-0.480,-1.140
4253,-0.650,-0.700
4254,-0.520,-0.540
4255,-0.310,-0.420
4256,-0.180,-0.480
4257,-0.190,-0.480
4258,-0.160,-0.460
4259,-0.160,-0.510
4260,-0.150,-0.450
4261,-0.130,-0.470
4262,-0.150,-0.400
4263,-0.130,-0.450
4264,-0.130,-0.400
4265,-0.140,-0.430
4266,-0.160,-0.350
4267,-0.140,-0.340
4268,-0.130,-0.350
4269,-0.150,-0.350
4270,-0.160,-0.300
4271,-0.180,-0.270
4272,-0.190,-0.270
4273,-0.210,-0.230
4274,-0.220,-0.280
4275,-0.260,-0.190
4276,-0.260,-0.250
4277,-0.300,-0.240
4278,-0.330,-0.310
4279,-0.350,-0.270
4280,-0.350,-0.360
4281,-0.320,-0.330
4282,-0.320,-0.380
4283,-0.280,-0.340
4284,-0.240,-0.290
4285,-0.180,-0.240
4286,-0.130,-0.260
4287,-0.100,-0.250
4288,-0.070,-0.230
4289,-0.040,-0.260
4290,-0.030,-0.230
4291,-0.010,-0.290
4292,-0.020,-0.260
4293,-0.010,-0.260
4294,-0.020,-0.210
4295,-0.010,-0.250
4296,-0.030,-0.240
4297,-0.020,-0.260
4298,-0.040,-0.220
4299,-0.030,-0.240
4300,-0.020,-0.260
4301,-0.030,-0.270
4302,-0.040,-0.270
4303,-0.060,-0.240
4304,-0.050,-0.300
4305,-0.040,-0.270
4306,-0.040,-0.300
4307,-0.050,-0.230
4308,-0.040,-0.290
4309,-0.040,-0.260
4310,-0.040,-0.330
4311,-0.050,-0.260
4312,-0.040,-0.300
4313,-0.040,-0.300
4314,-0.030,-0.310
4315,-0.040,-0.320
4316,-0.050,-0.280
4317,-0.050,-0.290
4318,-0.030,-0.280
4319,-0.040,-0.340
4320,-0.040,-0.260
4321,-0.040,-0.310
4322,-0.030,-0.260
4323,-0.040,-0.320
4324,-0.040,-0.290
4325,-0.030,-0.250
4326,0.010,-0.170
4327,0.020,-0.190
4328,0.010,-0.150
4329,0.020,-0.030
4330,0.120,0.030
4331,0.080,0.040
4332,0.040,0.000
4333,0.040,-0.060
4334,-0.040,-0.110
4335,-0.060,-0.100
4336,-0.050,-0.220
4337,-0.040,-0.320
4338,-0.050,-0.380
4339,-0.050,-0.310
4340,-0.050,-0.330
4341,-0.050,-0.350
4342,-0.110,-0.370
4343,0.020,0.810
4344,-0.010,3.480
4345,0.490,5.110
4346,-0.390,4.160
4347,-0.490,0.470
4348,-0.360,-1.010
4349,-0.440,-0.750
4350,-0.410,-0.360
4351,-0.070,-0.470
4352,-0.060,-0.420
4353,-0.030,-0.470
4354,-0.030,-0.410
4355,-0.010,-0.450
4356,0.000,-0.440
4357,0.000,-0.400
4358,-0.010,-0.380
4359,0.000,-0.380
4360,0.010,-0.380
4361,-0.010,-0.310
4362,-0.010,-0.340
4363,0.010,-0.260
4364,0.000,-0.300
4365,-0.010,-0.240
4366,-0.010,-0.240
4367,-0.020,-0.160
4368,-0.050,-0.210
4369,-0.070,-0.170
4370,-0.090,-0.170
4371,-0.140,-0.150
4372,-0.140,-0.160
4373,-0.170,-0.220
4374,-0.200,-0.270
4375,-0.230,-0.270
4376,-0.210,-0.270
4377,-0.210,-0.320
4378,-0.170,-0.270
4379,-0.130,-0.280
4380,-0.090,-0.190
4381,-0.060,-0.220
4382,-0.020,-0.170
4383,0.020,-0.250
4384,0.050,-0.170
4385,0.060,-0.220
4386,0.070,-0.200
4387,0.090,-0.220
4388,0.070,-0.220
4389,0.080,-0.180
4390,0.090,-0.200
4391,0.090,-0.180
4392,0.080,-0.230
4393,0.090,-0.160
4394,0.090,-0.210
4395,0.080,-0.160
4396,0.090,-0.240
4397,0.080,-0.190
4398,0.080,-0.220
4399,0.100,-0.160
4400,0.100,-0.220
4401,0.100,-0.210
4402,0.090,-0.210
4403,0.100,-0.210
4404,0.120,-0.220
4405,0.110,-0.240
4406,0.110,-0.230
4407,0.100,-0.240
4408,0.120,-0.210
4409,0.110,-0.280
4410,0.120,-0.240
4411,0.110,-0.260
4412,0.110,-0.220
4413,0.120,-0.290
4414,0.130,-0.250
4415,0.110,-0.310
4416,0.100,-0.240
4417,0.120,-0.280
4418,0.110,-0.290
4419,0.110,-0.320
4420,0.090,-0.270
4421,0.110,-0.270
4422,0.120,-0.280
4423,0.100,-0.250
4424,0.140,-0.210
4425,0.170,-0.160
4426,0.130,-0.150
4427,0.190,-0.090
4428,0.200,0.030
4429,0.240,0.070
4430,0.160,0.030
4431,0.170,-0.010
4432,0.100,-0.100
4433,0.060,-0.080
4434,0.080,-0.110
4435,0.100,-0.250
4436,0.110,-0.330
4437,0.090,-0.340
4438,0.100,-0.280
4439,0.100,-0.310
4440,0.060,-0.460
4441,0.140,0.450
4442,0.100,2.740
4443,0.730,4.920
4444,-0.230,4.180
4445,-0.440,1.120
4446,-0.260,-1.150
4447,-0.530,-0.700
4448,-0.360,-0.310
4449,0.040,-0.370
4450,0.050,-0.390
4451,0.080,-0.420
4452,0.070,-0.370
4453,0.100,-0.380
4454,0.100,-0.390
4455,0.100,-0.370
4456,0.100,-0.360
4457,0.110,-0.320
4458,0.100,-0.350
4459,0.110,-0.300
4460,0.100,-0.350
4461,0.090,-0.250
4462,0.100,-0.270
4463,0.090,-0.230
4464,0.070,-0.240
4465,0.070,-0.160
4466,0.040,-0.160
4467,0.010,-0.130
4468,-0.020,-0.130
4469,-0.050,-0.160
4470,-0.090,-0.120
4471,-0.110,-0.170
4472,-0.130,-0.180
4473,-0.160,-0.260
4474,-0.160,-0.230
4475,-0.160,-0.270
4476,-0.140,-0.220
4477,-0.090,-0.260
4478,-0.060,-0.200
4479,0.000,-0.180
4480,0.040,-0.140
4481,0.070,-0.170
4482,0.100,-0.150
4483,0.130,-0.150
4484,0.130,-0.130
4485,0.150,-0.140
4486,0.150,-0.160
4487,0.150,-0.140
4488,0.130,-0.130
4489,0.150,-0.090
4490,0.160,-0.150
4491,0.150,-0.120
4492,0.150,-0.180
4493,0.130,-0.100
4494,0.140,-0.150
4495,0.130,-0.140
4496,0.160,-0.200
4497,0.140,-0.140
4498,0.140,-0.170
4499,0.150,-0.160
4500,0.130,-0.170
4501,0.140,-0.200
4502,0.130,-0.160
4503,0.140,-0.180
4504,0.140,-0.170
4505,0.140,-0.230
4506,0.120,-0.170
4507,0.130,-0.230
4508,0.130,-0.190
4509,0.140,-0.240
4510,0.140,-0.200
4511,0.130,-0.220
4512,0.120,-0.180
4513,0.140,-0.250
4514,0.120,-0.230
4515,0.120,-0.210
4516,0.120,-0.210
4517,0.120,-0.220
4518,0.130,-0.250
4519,0.120,-0.240
4520,0.120,-0.260
4521,0.130,-0.190
4522,0.140,-0.260
4523,0.150,-0.140
4524,0.190,-0.170
4525,0.140,-0.070
4526,0.200,-0.090
4527,0.210,0.170
4528,0.270,0.040
4529,0.190,0.130
4530,0.200,0.040
4531,0.120,-0.030
4532,0.080,-0.040
4533,0.090,-0.060
4534,0.100,-0.170
4535,0.120,-0.270
4536,0.130,-0.250
4537,0.110,-0.300
4538,0.110,-0.220
4539,0.090,-0.460
4540,0.070,0.280
4541,0.160,1.990
4542,0.540,4.720
4543,0.040,4.490
4544,-0.360,2.240
4545,-0.300,-1.190
4546,-0.520,-0.730
4547,-0.340,-0.350
4548,-0.010,-0.360
4549,0.050,-0.390
4550,0.080,-0.420
4551,0.080,-0.400
4552,0.090,-0.410
4553,0.100,-0.350
4554,0.110,-0.400
4555,0.120,-0.350
4556,0.110,-0.360
4557,0.110,-0.310
4558,0.120,-0.320
4559,0.090,-0.300
4560,0.100,-0.290
4561,0.080,-0.240
4562,0.080,-0.190
4563,0.080,-0.240
4564,0.060,-0.160
4565,0.040,-0.170
4566,0.000,-0.090
4567,-0.010,-0.150
4568,-0.030,-0.110
4569,-0.070,-0.190
4570,-0.110,-0.120
4571,-0.140,-0.200
4572,-0.160,-0.220
4573,-0.170,-0.270
4574,-0.170,-0.250
4575,-0.150,-0.240
4576,-0.110,-0.220
4577,-0.050,-0.160
4578,-0.020,-0.200
4579,0.010,-0.090
4580,0.060,-0.140
4581,0.090,-0.110
4582,0.120,-0.170
4583,0.130,-0.110
4584,0.130,-0.150
4585,0.130,-0.100
4586,0.120,-0.140
4587,0.090,-0.130
4588,0.120,-0.090
4589,0.100,-0.120
4590,0.110,-0.140
4591,0.090,-0.150
4592,0.100,-0.100
4593,0.070,-0.140
4594,0.090,-0.070
4595,0.090,-0.150
4596,0.090,-0.130
4597,0.090,-0.150
4598,0.070,-0.110
4599,0.080,-0.160
4600,0.090,-0.150
4601,0.080,-0.200
4602,0.070,-0.150
4603,0.080,-0.140
4604,0.070,-0.190
4605,0.070,-0.190
4606,0.070,-0.200
4607,0.060,-0.160
4608,0.070,-0.220
4609,0.070,-0.180
4610,0.050,-0.270
4611,0.030,-0.180
4612,0.050,-0.230
4613,0.040,-0.220
4614,0.070,-0.260
4615,0.050,-0.210
4616,0.040,-0.230
4617,0.040,-0.220
4618,0.030,-0.220
4619,0.030,-0.270
4620,0.040,-0.190
4621,0.030,-0.220
4622,0.040,-0.220
4623,0.040,-0.260
4624,0.020,-0.190
4625,0.040,-0.180
4626,0.080,-0.100
4627,0.050,-0.110
4628,0.090,-0.070
4629,0.040,0.130
4630,0.180,0.110
4631,0.120,0.090
4632,0.080,0.050
4633,0.040,0.010
4634,-0.020,-0.030
4635,-0.010,0.000
4636,0.000,-0.150
4637,0.010,-0.260
4638,0.000,-0.260
4639,-0.010,-0.200
4640,0.000,-0.240
4641,-0.020,-0.330
4642,-0.120,-0.080
4643,0.040,1.290
4644,0.020,4.270
4645,0.340,5.020
4646,-0.360,3.490
4647,-0.360,-0.620
4648,-0.420,-0.580
4649,-0.400,-0.470
4650,-0.290,-0.250
4651,-0.050,-0.380
4652,-0.080,-0.310
4653,-0.040,-0.350
4654,-0.030,-0.310
4655,-0.020,-0.360
4656,-0.020,-0.320
4657,-0.020,-0.330
4658,-0.010,-0.300
4659,-0.020,-0.310
4660,-0.030,-0.310
4661,-0.010,-0.240
4662,-0.030,-0.260
4663,-0.020,-0.220
4664,-0.030,-0.230
4665,-0.030,-0.160
4666,-0.080,-0.180
4667,-0.090,-0.110
4668,-0.100,-0.130
4669,-0.150,-0.110
4670,-0.170,-0.110
4671,-0.200,-0.070
4672,-0.230,-0.110
4673,-0.250,-0.130
4674,-0.280,-0.170
4675,-0.300,-0.200
4676,-0.280,-0.190
4677,-0.270,-0.260
4678,-0.240,-0.200
4679,-0.190,-0.190
4680,-0.140,-0.090
4681,-0.110,-0.140
4682,-0.060,-0.090
4683,-0.050,-0.120
4684,-0.020,-0.060
4685,0.000,-0.110
4686,0.020,-0.100
4687,0.020,-0.150
4688,0.040,-0.090
4689,0.010,-0.110
4690,0.020,-0.100
4691,0.000,-0.110
4692,0.020,-0.140
4693,0.010,-0.060
4694,0.010,-0.090
4695,0.010,-0.080
4696,0.000,-0.160
4697,0.010,-0.080
4698,0.000,-0.110
4699,0.000,-0.100
4700,0.000,-0.140
4701,0.000,-0.150
4702,0.010,-0.120
4703,-0.010,-0.130
4704,-0.020,-0.140
4705,0.010,-0.150
4706,0.000,-0.150
4707,0.000,-0.170
4708,0.000,-0.130
4709,0.000,-0.190
4710,0.000,-0.170
4711,-0.010,-0.180
4712,0.000,-0.140
4713,0.010,-0.190
4714,0.000,-0.180
4715,0.000,-0.190
4716,0.000,-0.160
4717,0.000,-0.170
4718,0.010,-0.170
4719,0.030,-0.200
4720,0.010,-0.180
4721,0.020,-0.160
4722,0.020,-0.200
4723,0.010,-0.180
4724,0.020,-0.210
4725,0.040,-0.070
4726,0.090,-0.120
4727,0.050,-0.060
4728,0.100,-0.090
4729,0.090,0.200
4730,0.170,0.060
4731,0.110,0.120
4732,0.080,0.030
4733,0.020,-0.030
4734,-0.020,-0.040
4735,-0.010,-0.050
4736,0.010,-0.210
4737,0.010,-0.300
4738,0.020,-0.230
4739,0.000,-0.260
4740,0.010,-0.230
4741,-0.010,-0.430
4742,-0.020,0.390
4743,0.030,2.360
4744,0.390,5.110
4745,-0.110,4.640
4746,-0.380,1.890
4747,-0.240,-1.170
4748,-0.490,-0.650
4749,-0.420,-0.320
4750,-0.100,-0.340
4751,-0.020,-0.380
4752,-0.020,-0.340
4753,-0.020,-0.310
4754,0.000,-0.370
4755,0.010,-0.330
4756,0.010,-0.340
4757,0.000,-0.280
4758,0.010,-0.290
4759,0.000,-0.260
4760,0.010,-0.300
4761,-0.010,-0.220
4762,0.000,-0.230
4763,0.000,-0.210
4764,0.000,-0.200
4765,-0.010,-0.150
4766,-0.020,-0.130
4767,-0.040,-0.100
4768,-0.050,-0.090
4769,-0.080,-0.120
4770,-0.110,-0.050
4771,-0.140,-0.100
4772,-0.170,-0.100
4773,-0.190,-0.180
4774,-0.220,-0.180
4775,-0.240,-0.240
4776,-0.220,-0.210
4777,-0.210,-0.250
4778,-0.180,-0.220
4779,-0.120,-0.160
4780,-0.090,-0.150
4781,-0.030,-0.130
4782,-0.010,-0.150
4783,0.030,-0.120
4784,0.040,-0.130
4785,0.070,-0.080
4786,0.090,-0.150
4787,0.090,-0.110
4788,0.090,-0.120
4789,0.090,-0.070
4790,0.090,-0.120
4791,0.100,-0.110
4792,0.100,-0.140
4793,0.090,-0.100
4794,0.100,-0.090
4795,0.100,-0.120
4796,0.090,-0.110
4797,0.090,-0.120
4798,0.090,-0.080
4799,0.090,-0.140
4800,0.100,-0.110
4801,0.080,-0.190
4802,0.090,-0.120
4803,0.090,-0.150
4804,0.090,-0.140
4805,0.090,-0.180
4806,0.090,-0.160
4807,0.100,-0.170
4808,0.090,-0.180
4809,0.100,-0.180
4810,0.090,-0.220
4811,0.090,-0.140
4812,0.110,-0.230
4813,0.110,-0.180
4814,0.110,-0.240
4815,0.100,-0.190
4816,0.100,-0.220
4817,0.110,-0.180
4818,0.120,-0.240
4819,0.110,-0.230
4820,0.110,-0.230
4821,0.100,-0.160
4822,0.150,-0.160
4823,0.150,-0.120
4824,0.150,-0.070
4825,0.160,0.010
4826,0.260,0.160
4827,0.220,0.060
4828,0.170,0.110
4829,0.160,0.000
4830,0.060,0.000
4831,0.080,-0.070
4832,0.060,-0.060
4833,0.080,-0.270
4834,0.070,-0.210
4835,0.080,-0.270
4836,0.090,-0.240
4837,0.080,-0.300
4838,0.020,-0.370
4839,0.130,0.720
4840,0.070,3.300
4841,0.750,5.110
4842,-0.300,4.030
4843,-0.500,0.730
4844,-0.310,-1.000
4845,-0.540,-0.600
4846,-0.360,-0.300
4847,0.000,-0.290
4848,0.010,-0.350
4849,0.030,-0.310
4850,0.050,-0.340
4851,0.050,-0.350
4852,0.060,-0.310
4853,0.050,-0.300
4854,0.070,-0.290
4855,0.050,-0.300
4856,0.070,-0.260
4857,0.050,-0.260
4858,0.070,-0.190
4859,0.060,-0.240
4860,0.060,-0.190
4861,0.040,-0.180
4862,0.040,-0.110
4863,0.050,-0.140
4864,0.010,-0.100
4865,-0.020,-0.120
4866,-0.050,-0.080
4867,-0.070,-0.060
4868,-0.100,-0.120
4869,-0.130,-0.110
4870,-0.170,-0.160
4871,-0.190,-0.150
4872,-0.180,-0.220
4873,-0.190,-0.190
4874,-0.170,-0.240
4875,-0.150,-0.140
4876,-0.080,-0.140
4877,-0.030,-0.100
4878,0.010,-0.140
4879,0.040,-0.070
4880,0.070,-0.100
4881,0.080,-0.090
4882,0.100,-0.090
4883,0.110,-0.110
4884,0.120,-0.070
4885,0.120,-0.090
4886,0.120,-0.070
4887,0.110,-0.130
4888,0.110,-0.060
4889,0.110,-0.100
4890,0.110,-0.050
4891,0.120,-0.110
4892,0.110,-0.090
4893,0.110,-0.090
4894,0.120,-0.090
4895,0.120,-0.120
4896,0.110,-0.150
4897,0.130,-0.100
4898,0.120,-0.130
4899,0.110,-0.070
4900,0.120,-0.150
4901,0.100,-0.110
4902,0.110,-0.130
4903,0.110,-0.090
4904,0.120,-0.160
4905,0.110,-0.110
4906,0.120,-0.160
4907,0.100,-0.120
4908,0.120,-0.140
4909,0.120,-0.160
4910,0.120,-0.150
4911,0.120,-0.160
4912,0.120,-0.120
4913,0.120,-0.190
4914,0.120,-0.140
4915,0.120,-0.200
4916,0.120,-0.130
4917,0.130,-0.180
4918,0.120,-0.150
4919,0.130,-0.200
4920,0.120,-0.150
4921,0.120,-0.160
4922,0.130,-0.110
4923,0.180,-0.080
4924,0.150,-0.080
4925,0.170,0.020
4926,0.150,0.120
4927,0.290,0.190
4928,0.200,0.130
4929,0.160,0.200
4930,0.150,0.040
4931,0.060,0.060
4932,0.080,-0.020
4933,0.070,-0.070
4934,0.080,-0.210
4935,0.080,-0.180
4936,0.100,-0.200
4937,0.090,-0.200
4938,0.080,-0.260
4939,-0.020,-0.220
4940,0.150,1.010
4941,0.100,3.680
4942,0.700,5.050
4943,-0.260,3.800
4944,-0.430,0.090
4945,-0.260,-0.800
4946,-0.430,-0.530
4947,-0.310,-0.240
4948,0.040,-0.250
4949,0.030,-0.280
4950,0.050,-0.300
4951,0.080,-0.280
4952,0.070,-0.310
4953,0.050,-0.250
4954,0.080,-0.290
4955,0.080,-0.240
4956,0.080,-0.300
4957,0.080,-0.190
4958,0.080,-0.220
4959,0.080,-0.160
4960,0.090,-0.180
4961,0.070,-0.150
4962,0.060,-0.110
4963,0.050,-0.080
4964,0.040,-0.080
4965,0.010,-0.090
4966,-0.020,-0.020
4967,-0.060,-0.040
4968,-0.070,-0.010
4969,-0.110,-0.100
4970,-0.160,-0.090
4971,-0.190,-0.140
4972,-0.220,-0.110
4973,-0.190,-0.220
4974,-0.210,-0.190
4975,-0.190,-0.180
4976,-0.150,-0.140
4977,-0.100,-0.080
4978,-0.050,-0.100
4979,0.000,-0.030
4980,0.020,-0.040
4981,0.070,0.020
4982,0.080,-0.070
4983,0.100,0.010
4984,0.100,-0.050
4985,0.100,0.020
4986,0.090,-0.020
4987,0.100,-0.010
4988,0.110,-0.040
4989,0.090,0.020
4990,0.090,0.000
4991,0.090,-0.020
4992,0.110,-0.010
4993,0.090,-0.050
4994,0.090,0.010
4995,0.100,-0.030
4996,0.090,-0.010
4997,0.090,-0.110
4998,0.070,-0.160
4999,-0.020,-0.360
5000,0.070,-0.700
5001,0.000,-0.550
5002,-0.160,-0.450
5003,-0.280,0.040
5004,-0.140,0.620
5005,0.140,0.490
5006,1.600,0.290
5007,2.760,-1.220
5008,3.450,-1.980
5009,2.790,-1.590
5010,2.110,-0.920
5011,1.240,-0.440
5012,0.940,-0.670
5013,1.690,-0.760
5014,1.940,-0.870
5015,1.960,-0.530
5016,1.450,-0.150
5017,0.510,0.220
5018,-0.030,0.390
5019,-0.190,0.450
5020,-0.230,0.510
5021,-0.290,0.660
5022,-0.310,0.810
5023,-0.360,0.870
5024,-0.390,1.070
5025,-0.460,1.190
5026,-0.410,1.560
5027,-0.490,1.580
5028,-0.620,1.820
5029,-0.670,1.810
5030,-0.830,2.010
5031,-0.930,2.160
5032,-1.030,2.320
5033,-1.100,2.300
5034,-1.170,2.350
5035,-1.260,2.430
5036,-1.320,2.480
5037,-1.350,2.360
5038,-1.320,2.180
5039,-1.270,2.000
5040,-1.160,1.620
5041,-1.020,1.300
5042,-0.880,0.860
5043,-0.710,0.580
5044,-0.540,0.340
5045,-0.390,0.190
5046,-0.260,0.010
5047,-0.160,-0.040
5048,-0.100,-0.100
5049,-0.080,-0.110
5050,-0.030,-0.130
5051,-0.040,-0.140
5052,-0.030,-0.140
5053,-0.020,-0.150
5054,-0.010,-0.100
5055,0.010,-0.160
5056,-0.020,-0.120
5057,-0.010,-0.170
5058,-0.020,-0.100
5059,-0.010,-0.130
5060,0.000,-0.110
5061,-0.010,-0.180
5062,-0.020,-0.110
5063,0.000,-0.140
5064,0.000,-0.120
5065,-0.020,-0.130
5066,-0.010,-0.170
5067,-0.020,-0.130
5068,-0.010,-0.160
5069,-0.020,-0.140
5070,-0.010,-0.190
5071,-0.020,-0.130
5072,-0.010,-0.160
5073,-0.010,-0.100
5074,-0.020,-0.170
5075,-0.030,-0.140
5076,-0.040,-0.160
5077,-0.030,-0.100
5078,-0.010,-0.140
5079,-0.050,-0.130
5080,-0.020,-0.130
5081,-0.040,-0.150
5082,-0.020,-0.120
5083,-0.040,-0.170
5084,-0.020,-0.140
5085,-0.020,-0.150
5086,-0.020,-0.100
5087,-0.020,-0.190
5088,-0.020,-0.130
5089,-0.030,-0.180
5090,-0.020,-0.130
5091,-0.010,-0.160
5092,-0.010,-0.140
5093,-0.010,-0.190
5094,-0.010,-0.160
5095,-0.010,-0.150
5096,-0.010,-0.170
5097,-0.010,-0.160
5098,-0.010,-0.210
5099,-0.010,-0.150
5100,-0.010,-0.180
5101,0.000,-0.150
5102,0.000,-0.220
5103,-0.020,-0.130
5104,-0.010,-0.200
5105,-0.010,-0.150
5106,-0.010,-0.200
5107,-0.030,-0.200
5108,-0.010,-0.170
5109,-0.020,-0.180
5110,-0.010,-0.180
5111,-0.020,-0.210
5112,-0.020,-0.150
5113,-0.040,-0.190
5114,-0.010,-0.140
5115,-0.040,-0.210
5116,-0.040,-0.170
5117,-0.050,-0.180
5118,-0.040,-0.120
5119,-0.040,-0.130
5120,-0.010,-0.070
5121,-0.020,-0.050
5122,0.010,-0.010
5123,-0.010,0.110
5124,0.130,0.200
5125,0.050,0.150
5126,0.020,0.170
5127,-0.020,0.130
5128,-0.090,0.000
5129,-0.090,0.030
5130,-0.070,-0.090
5131,-0.080,-0.160
5132,-0.060,-0.210
5133,-0.080,-0.190
5134,-0.070,-0.240
5135,-0.100,-0.320
5136,-0.210,-0.090
5137,-0.060,1.300
5138,0.090,4.400
5139,0.250,5.110
5140,-0.390,3.790
5141,-0.400,-0.460
5142,-0.560,-0.470
5143,-0.490,-0.440
5144,-0.330,-0.190
5145,-0.110,-0.320
5146,-0.130,-0.300
5147,-0.120,-0.360
5148,-0.100,-0.340
5149,-0.100,-0.340
5150,-0.080,-0.320
5151,-0.070,-0.330
5152,-0.070,-0.360
5153,-0.060,-0.300
5154,-0.070,-0.320
5155,-0.060,-0.250
5156,-0.060,-0.300
5157,-0.060,-0.260
5158,-0.070,-0.240
5159,-0.080,-0.170
5160,-0.070,-0.230
5161,-0.110,-0.190
5162,-0.120,-0.190
5163,-0.140,-0.180
5164,-0.150,-0.180
5165,-0.170,-0.240
5166,-0.180,-0.280
5167,-0.210,-0.300
5168,-0.230,-0.350
5169,-0.230,-0.470
5170,-0.240,-0.500
5171,-0.230,-0.610
5172,-0.250,-0.540
5173,-0.250,-0.550
5174,-0.230,-0.510
5175,-0.220,-0.460
5176,-0.190,-0.340
5177,-0.160,-0.270
5178,-0.120,-0.220
5179,-0.090,-0.160
5180,-0.070,-0.160
5181,-0.060,-0.070
5182,-0.040,-0.090
5183,-0.040,-0.060
5184,-0.020,-0.110
5185,-0.030,-0.040
5186,-0.020,-0.100
5187,-0.020,-0.060
5188,-0.010,-0.110
5189,-0.020,-0.100
5190,-0.020,-0.090
5191,-0.010,-0.070
5192,-0.010,-0.110
5193,-0.030,-0.050
5194,-0.170,0.150
5195,-0.170,0.270
5196,-0.220,0.570
5197,-0.400,2.150
5198,-0.530,3.510
5199,-0.750,2.460
5200,-1.100,-0.380
5201,-0.750,-2.380
5202,-0.390,-2.110
5203,0.190,-1.630
5204,0.460,-1.190
5205,0.870,-0.790
5206,1.010,-0.820
5207,1.230,-1.360
5208,0.960,-1.510
5209,0.630,-0.960
5210,-0.040,-0.670
5211,0.180,-0.060
5212,-0.050,0.100
5213,0.050,0.300
5214,0.010,0.390
5215,0.050,0.530
5216,0.000,0.670
5217,0.130,0.830
5218,0.020,0.830
5219,0.020,0.990
5220,0.000,0.930
5221,-0.090,0.920
5222,-0.120,1.040
5223,-0.120,1.090
5224,-0.120,1.060
5225,-0.150,1.080
5226,-0.170,1.320
5227,-0.190,1.440
5228,-0.210,1.740
5229,-0.240,1.880
5230,-0.260,2.070
5231,-0.260,2.140
5232,-0.260,2.130
5233,-0.240,1.870
5234,-0.200,1.560
5235,-0.160,1.230
5236,-0.120,0.810
5237,-0.070,0.520
5238,-0.040,0.160
5239,-0.020,-0.010
5240,0.000,-0.170
5241,0.010,-0.210
5242,0.030,-0.320
5243,0.030,-0.310
5244,0.040,-0.380
5245,0.020,-0.310
5246,0.040,-0.330
5247,0.050,-0.330
5248,0.050,-0.340
5249,0.050,-0.340
5250,0.050,-0.310
5251,0.050,-0.340
5252,0.070,-0.320
5253,0.070,-0.390
5254,0.050,-0.300
5255,0.050,-0.360
5256,0.070,-0.340
5257,0.050,-0.380
5258,0.060,-0.350
5259,0.050,-0.360
5260,0.060,-0.360
5261,0.070,-0.360
5262,0.060,-0.400
5263,0.070,-0.340
5264,0.060,-0.380
5265,0.060,-0.360
5266,0.060,-0.420
5267,0.050,-0.370
5268,0.040,-0.400
5269,0.060,-0.350
5270,0.060,-0.410
5271,0.050,-0.390
5272,0.040,-0.400
5273,0.040,-0.390
5274,0.040,-0.410
5275,0.040,-0.410
5276,0.050,-0.430
5277,0.040,-0.410
5278,0.050,-0.400
5279,0.050,-0.460
5280,0.050,-0.410
5281,0.060,-0.430
5282,0.050,-0.380
5283,0.060,-0.430
5284,0.080,-0.400
5285,0.060,-0.440
5286,0.060,-0.370
5287,0.070,-0.390
5288,0.080,-0.390
5289,0.070,-0.410
5290,0.080,-0.410
5291,0.060,-0.380
5292,0.070,-0.390
5293,0.080,-0.390
5294,0.070,-0.440
5295,0.060,-0.350
5296,0.080,-0.400
5297,0.070,-0.360
5298,0.060,-0.410
5299,0.060,-0.370
5300,0.070,-0.390
5301,0.060,-0.340
5302,0.070,-0.380
5303,0.060,-0.390
5304,0.070,-0.360
5305,0.060,-0.360
5306,0.070,-0.330
5307,0.080,-0.300
5308,0.110,-0.250
5309,0.090,-0.230
5310,0.110,-0.120
5311,0.200,0.010
5312,0.180,-0.040
5313,0.110,0.000
5314,0.100,-0.040
5315,0.020,-0.180
5316,0.000,-0.180
5317,0.010,-0.260
5318,0.010,-0.360
5319,0.020,-0.370
5320,0.030,-0.420
5321,0.020,-0.380
5322,0.020,-0.440
5323,-0.060,-0.560
5324,0.020,0.410
5325,-0.040,2.950
5326,0.670,4.990
5327,-0.270,4.190
5328,-0.390,0.980
5329,-0.240,-0.940
5330,-0.470,-0.720
5331,-0.390,-0.370
5332,-0.050,-0.480
5333,-0.060,-0.510
5334,-0.040,-0.520
5335,-0.030,-0.550
5336,-0.020,-0.480
5337,0.010,-0.500
5338,0.000,-0.490
5339,0.020,-0.530
5340,0.020,-0.460
5341,0.030,-0.490
5342,0.040,-0.440
5343,0.030,-0.470
5344,0.020,-0.430
5345,0.020,-0.420
5346,0.010,-0.360
5347,0.010,-0.390
5348,-0.010,-0.370
5349,-0.040,-0.350
5350,-0.060,-0.360
5351,-0.080,-0.370
5352,-0.100,-0.410
5353,-0.130,-0.450
5354,-0.160,-0.510
5355,-0.150,-0.540
5356,-0.170,-0.650
5357,-0.180,-0.700
5358,-0.170,-0.740
5359,-0.200,-0.710
5360,-0.180,-0.730
5361,-0.170,-0.650
5362,-0.140,-0.630
5363,-0.130,-0.450
5364,-0.090,-0.380
5365,-0.060,-0.330
5366,-0.020,-0.290
5367,-0.010,-0.250
5368,0.010,-0.200
5369,0.030,-0.200
5370,0.040,-0.180
5371,0.030,-0.240
5372,0.020,-0.140
5373,0.030,-0.190
5374,0.040,-0.170
5375,0.030,-0.220
5376,0.020,-0.170
5377,0.030,-0.210
5378,0.020,-0.180
5379,0.030,-0.240
5380,0.030,-0.240
5381,0.030,-0.200
5382,0.030,-0.220
5383,0.030,-0.240
5384,0.020,-0.270
5385,0.030,-0.250
5386,0.050,-0.270
5387,0.040,-0.230
5388,0.040,-0.300
5389,0.040,-0.280
5390,0.050,-0.310
5391,0.050,-0.260
5392,0.050,-0.320
5393,0.050,-0.290
5394,0.050,-0.310
5395,0.050,-0.240
5396,0.090,-0.200
5397,0.060,-0.210
5398,0.120,-0.160
5399,0.080,-0.030
5400,0.220,0.080
5401,0.160,-0.010
5402,0.130,0.070
5403,0.080,-0.120
5404,0.010,-0.070
5405,0.010,-0.160
5406,0.010,-0.200
5407,0.050,-0.390
5408,0.020,-0.340
5409,0.020,-0.360
5410,0.020,-0.340
5411,0.020,-0.420
5412,-0.100,-0.430
5413,0.020,0.710
5414,-0.010,3.330
5415,0.520,5.100
5416,-0.350,3.960
5417,-0.350,0.450
5418,-0.310,-0.970
5419,-0.380,-0.690
5420,-0.380,-0.400
5421,-0.060,-0.430
5422,-0.100,-0.440
5423,-0.050,-0.420
5424,-0.030,-0.460
5425,-0.030,-0.430
5426,-0.030,-0.420
5427,-0.050,-0.400
5428,-0.040,-0.380
5429,-0.050,-0.390
5430,-0.050,-0.350
5431,-0.070,-0.340
5432,-0.060,-0.280
5433,-0.050,-0.340
5434,-0.070,-0.220
5435,-0.070,-0.350
5436,-0.110,-0.210
5437,-0.100,-0.230
5438,-0.110,-0.200
5439,-0.150,-0.230
5440,-0.160,-0.160
5441,-0.190,-0.210
5442,-0.230,-0.200
5443,-0.240,-0.260
5444,-0.260,-0.310
5445,-0.270,-0.310
5446,-0.240,-0.360
5447,-0.210,-0.340
5448,-0.200,-0.350
5449,-0.160,-0.260
5450,-0.110,-0.250
5451,-0.080,-0.160
5452,-0.010,-0.220
5453,-0.010,-0.180
5454,0.020,-0.190
5455,0.030,-0.180
5456,0.050,-0.220
5457,0.040,-0.250
5458,0.030,-0.160
5459,0.070,-0.190
5460,0.050,-0.170
5461,0.050,-0.230
5462,0.050,-0.170
5463,0.030,-0.200
5464,0.020,-0.140
5465,0.050,-0.220
5466,0.040,-0.160
5467,0.020,-0.200
5468,0.020,-0.170
5469,0.030,-0.200
5470,0.020,-0.200
5471,0.040,-0.230
5472,0.010,-0.190
5473,0.040,-0.190
5474,0.040,-0.230
5475,0.020,-0.210
5476,0.030,-0.240
5477,0.030,-0.200
5478,0.050,-0.250
5479,0.040,-0.210
5480,0.040,-0.270
5481,0.040,-0.190
5482,0.050,-0.230
5483,0.060,-0.160
5484,0.110,-0.170
5485,0.080,-0.100
5486,0.140,-0.050
5487,0.090,0.060
5488,0.230,0.130
5489,0.160,0.030
5490,0.120,0.150
5491,0.090,-0.010
5492,0.020,-0.010
5493,0.030,-0.100
5494,0.020,-0.100
5495,0.040,-0.290
5496,0.030,-0.240
5497,0.030,-0.290
5498,0.020,-0.260
5499,0.020,-0.370
5500,-0.100,-0.180
5501,0.080,1.050
5502,0.130,4.020
5503,0.420,5.110
5504,-0.400,3.960
5505,-0.360,-0.100
5506,-0.430,-0.770
5507,-0.390,-0.600
5508,-0.310,-0.300
5509,-0.020,-0.320
5510,-0.020,-0.400
5511,0.000,-0.360
5512,0.010,-0.400
5513,0.010,-0.330
5514,0.030,-0.350
5515,0.010,-0.350
5516,0.030,-0.360
5517,0.020,-0.320
5518,0.030,-0.270
5519,0.030,-0.310
5520,0.020,-0.250
5521,0.020,-0.290
5522,0.010,-0.190
5523,0.000,-0.210
5524,-0.010,-0.150
5525,-0.020,-0.190
5526,-0.040,-0.100
5527,-0.070,-0.140
5528,-0.110,-0.110
5529,-0.120,-0.150
5530,-0.160,-0.160
5531,-0.190,-0.170
5532,-0.200,-0.230
5533,-0.210,-0.250
5534,-0.220,-0.320
5535,-0.210,-0.250
5536,-0.190,-0.270
5537,-0.130,-0.190
5538,-0.100,-0.200
5539,-0.070,-0.150
5540,-0.030,-0.130
5541,0.000,-0.080
5542,0.020,-0.140
5543,0.050,-0.120
5544,0.050,-0.120
5545,0.060,-0.110
5546,0.060,-0.100
5547,0.050,-0.120
5548,0.050,-0.110
5549,0.040,-0.120
5550,0.070,-0.070
5551,0.060,-0.120
5552,0.060,-0.090
5553,0.060,-0.130
5554,0.060,-0.080
5555,0.060,-0.130
5556,0.050,-0.120
5557,0.060,-0.160
5558,0.060,-0.110
5559,0.060,-0.120
5560,0.050,-0.170
5561,0.050,-0.150
5562,0.050,-0.180
5563,0.030,-0.130
5564,0.050,-0.170
5565,0.040,-0.150
5566,0.040,-0.230
5567,0.040,-0.140
5568,0.050,-0.190
5569,0.040,-0.170
5570,0.060,-0.210
5571,0.050,-0.190
5572,0.050,-0.180
5573,0.060,-0.120
5574,0.110,-0.110
5575,0.070,-0.100
5576,0.110,0.020
5577,0.090,0.060
5578,0.200,0.200
5579,0.120,0.110
5580,0.090,0.160
5581,0.070,0.020
5582,-0.020,0.040
5583,-0.010,-0.060
5584,-0.010,-0.080
5585,0.010,-0.250
5586,0.030,-0.240
5587,0.010,-0.270
5588,0.010,-0.260
5589,0.020,-0.290
5590,-0.050,-0.420
5591,0.090,0.650
5592,0.070,3.070
5593,0.740,5.110
5594,-0.390,4.110
5595,-0.600,0.680
5596,-0.400,-1.010
5597,-0.560,-0.590
5598,-0.370,-0.330
5599,-0.020,-0.300
5600,-0.030,-0.360
5601,-0.020,-0.350
5602,-0.010,-0.370
5603,0.000,-0.320
5604,0.000,-0.320
5605,0.000,-0.320
5606,-0.010,-0.290
5607,0.000,-0.310
5608,-0.010,-0.220
5609,-0.020,-0.260
5610,-0.020,-0.210
5611,-0.020,-0.240
5612,-0.040,-0.160
5613,-0.050,-0.180
5614,-0.070,-0.100
5615,-0.080,-0.130
5616,-0.090,-0.100
5617,-0.140,-0.060
5618,-0.150,-0.050
5619,-0.180,-0.070
5620,-0.210,-0.120
5621,-0.230,-0.120
5622,-0.280,-0.180
5623,-0.280,-0.160
5624,-0.270,-0.240
5625,-0.260,-0.210
5626,-0.250,-0.190
5627,-0.210,-0.100
5628,-0.150,-0.140
5629,-0.110,-0.070
5630,-0.070,-0.100
5631,-0.030,-0.060
5632,-0.010,-0.060
5633,0.010,-0.090
5634,0.020,-0.100
5635,0.020,-0.060
5636,0.030,-0.040
5637,0.040,-0.090
5638,0.030,-0.040
5639,0.020,-0.080
5640,0.010,-0.030
5641,0.010,-0.060
5642,0.020,-0.020
5643,0.020,-0.110
5644,0.020,-0.020
5645,0.020,-0.070
5646,0.030,-0.060
5647,0.040,-0.090
5648,0.020,-0.080
5649,0.050,-0.090
5650,0.040,-0.090
5651,0.050,-0.090
5652,0.040,-0.150
5653,0.030,-0.080
5654,0.050,-0.130
5655,0.060,-0.100
5656,0.060,-0.170
5657,0.050,-0.110
5658,0.070,-0.170
5659,0.050,-0.120
5660,0.070,-0.180
5661,0.070,-0.150
5662,0.060,-0.150
5663,0.070,-0.130
5664,0.070,-0.170
5665,0.060,-0.170
5666,0.070,-0.120
5667,0.090,-0.070
5668,0.110,-0.030
5669,0.080,-0.020
5670,0.120,0.040
5671,0.160,0.200
5672,0.140,0.220
5673,0.090,0.130
5674,0.090,0.110
5675,-0.010,-0.010
5676,-0.010,0.060
5677,0.010,-0.020
5678,0.030,-0.170
5679,0.020,-0.220
5680,0.010,-0.170
5681,0.020,-0.170
5682,0.010,-0.210
5683,-0.050,-0.320
5684,0.070,0.730
5685,0.020,3.250
5686,0.650,5.010
5687,-0.430,4.100
5688,-0.580,0.580
5689,-0.380,-0.850
5690,-0.540,-0.560
5691,-0.380,-0.180
5692,-0.030,-0.290
5693,-0.050,-0.270
5694,-0.020,-0.290
5695,0.000,-0.240
5696,0.010,-0.290
5697,0.000,-0.300
5698,-0.010,-0.250
5699,0.010,-0.250
5700,0.020,-0.230
5701,0.010,-0.250
5702,0.010,-0.170
5703,-0.010,-0.210
5704,0.000,-0.120
5705,-0.010,-0.170
5706,-0.030,-0.100
5707,-0.030,-0.090
5708,-0.050,-0.030
5709,-0.080,-0.070
5710,-0.080,-0.030
5711,-0.140,-0.030
5712,-0.160,-0.030
5713,-0.200,-0.060
5714,-0.210,-0.120
5715,-0.230,-0.160
5716,-0.260,-0.180
5717,-0.250,-0.160
5718,-0.240,-0.220
5719,-0.210,-0.170
5720,-0.170,-0.140
5721,-0.120,-0.050
5722,-0.060,-0.080
5723,-0.030,-0.020
5724,0.020,-0.080
5725,0.020,-0.010
5726,0.050,-0.050
5727,0.070,-0.040
5728,0.070,-0.060
5729,0.060,-0.040
5730,0.050,-0.010
5731,0.050,-0.030
5732,0.060,-0.030
5733,0.040,-0.080
5734,0.050,0.000
5735,0.040,-0.050
5736,0.040,-0.030
5737,0.040,-0.090
5738,0.020,-0.020
5739,0.030,-0.080
5740,0.040,-0.040
5741,0.040,-0.120
5742,0.040,-0.090
5743,0.030,-0.080
5744,0.010,-0.060
5745,0.040,-0.100
5746,0.030,-0.110
5747,0.030,-0.080
5748,0.020,-0.120
5749,0.030,-0.090
5750,0.030,-0.130
5751,0.020,-0.110
5752,0.020,-0.130
5753,0.040,-0.090
5754,0.040,-0.160
5755,0.030,-0.110
5756,0.040,-0.150
5757,0.040,-0.100
5758,0.030,-0.150
5759,0.030,-0.110
5760,0.060,-0.100
5761,0.080,-0.020
5762,0.050,0.040
5763,0.090,0.040
5764,0.060,0.150
5765,0.160,0.230
5766,0.090,0.240
5767,0.070,0.180
5768,0.050,0.160
5769,-0.050,0.000
5770,-0.050,0.100
5771,-0.030,-0.020
5772,-0.020,-0.150
5773,-0.010,-0.190
5774,-0.030,-0.160
5775,-0.030,-0.150
5776,-0.020,-0.200
5777,-0.110,-0.150
5778,0.030,1.020
5779,0.000,3.810
5780,0.430,5.110
5781,-0.450,3.930
5782,-0.470,-0.010
5783,-0.440,-0.730
5784,-0.460,-0.530
5785,-0.340,-0.190
5786,-0.050,-0.320
5787,-0.100,-0.310
5788,-0.070,-0.340
5789,-0.050,-0.290
5790,-0.050,-0.310
5791,-0.050,-0.300
5792,-0.030,-0.270
5793,-0.050,-0.260
5794,-0.040,-0.210
5795,-0.050,-0.270
5796,-0.040,-0.220
5797,-0.050,-0.220
5798,-0.060,-0.120
5799,-0.050,-0.170
5800,-0.060,-0.110
5801,-0.070,-0.140
5802,-0.110,-0.060
5803,-0.120,-0.080
5804,-0.150,-0.030
5805,-0.180,-0.080
5806,-0.220,-0.040
5807,-0.230,-0.060
5808,-0.260,-0.110
5809,-0.270,-0.140
5810,-0.280,-0.190
5811,-0.280,-0.130
5812,-0.260,-0.170
5813,-0.210,-0.120
5814,-0.170,-0.140
5815,-0.140,-0.010
5816,-0.090,-0.040
5817,-0.060,0.000
5818,-0.040,-0.050
5819,-0.020,-0.030
5820,0.020,-0.030
5821,0.010,-0.030
5822,0.020,-0.050
5823,0.020,-0.100
5824,0.020,-0.030
5825,0.010,-0.070
5826,0.030,-0.020
5827,0.010,-0.080
5828,-0.010,-0.080
5829,0.010,-0.080
5830,0.010,-0.020
5831,0.020,-0.090
5832,-0.010,-0.060
5833,0.000,-0.090
5834,-0.010,-0.060
5835,0.010,-0.070
5836,0.010,-0.110
5837,0.000,-0.110
5838,0.000,-0.110
5839,0.020,-0.050
5840,0.010,-0.140
5841,0.010,-0.100
5842,0.010,-0.160
5843,-0.010,-0.090
5844,0.010,-0.150
5845,0.010,-0.120
5846,0.010,-0.180
5847,0.010,-0.130
5848,0.010,-0.150
5849,0.000,-0.150
5850,0.010,-0.160
5851,0.010,-0.150
5852,0.010,-0.130
5853,0.030,-0.110
5854,0.070,-0.070
5855,0.030,-0.100
5856,0.060,0.030
5857,0.060,0.090
5858,0.180,0.190
5859,0.100,0.110
5860,0.070,0.170
5861,0.060,0.040
5862,-0.020,0.030
5863,-0.010,-0.030
5864,-0.010,-0.090
5865,0.020,-0.200
5866,0.010,-0.230
5867,0.010,-0.220
5868,0.000,-0.260
5869,-0.010,-0.230
5870,-0.090,-0.280
5871,0.070,0.970
5872,0.050,3.560
5873,0.490,5.110
5874,-0.430,4.220
5875,-0.460,0.420
5876,-0.400,-0.870
5877,-0.410,-0.630
5878,-0.360,-0.300
5879,-0.030,-0.310
5880,-0.040,-0.340
5881,-0.020,-0.370
5882,-0.010,-0.360
5883,-0.010,-0.340
5884,0.000,-0.290
5885,0.000,-0.360
5886,0.010,-0.320
5887,0.000,-0.350
5888,-0.010,-0.280
5889,0.010,-0.310
5890,0.000,-0.270
5891,-0.010,-0.300
5892,-0.020,-0.230
5893,-0.020,-0.200
5894,-0.030,-0.200
5895,-0.040,-0.170
5896,-0.050,-0.180
5897,-0.070,-0.120
5898,-0.090,-0.140
5899,-0.110,-0.120
5900,-0.140,-0.200
5901,-0.160,-0.150
5902,-0.190,-0.250
5903,-0.200,-0.250
5904,-0.180,-0.320
5905,-0.180,-0.290
5906,-0.160,-0.280
5907,-0.110,-0.200
5908,-0.050,-0.220
5909,-0.020,-0.190
5910,0.030,-0.150
5911,0.050,-0.150
5912,0.080,-0.160
5913,0.100,-0.190
5914,0.110,-0.160
5915,0.100,-0.170
5916,0.120,-0.110
5917,0.130,-0.180
5918,0.110,-0.140
5919,0.130,-0.160
5920,0.120,-0.140
5921,0.120,-0.180
5922,0.120,-0.150
5923,0.110,-0.190
5924,0.110,-0.160
5925,0.110,-0.160
5926,0.120,-0.200
5927,0.100,-0.190
5928,0.090,-0.200
5929,0.090,-0.160
5930,0.090,-0.210
5931,0.100,-0.180
5932,0.090,-0.240
5933,0.090,-0.180
5934,0.090,-0.220
5935,0.090,-0.210
5936,0.100,-0.270
5937,0.110,-0.220
5938,0.090,-0.250
5939,0.090,-0.250
5940,0.110,-0.270
5941,0.100,-0.300
5942,0.100,-0.260
5943,0.100,-0.290
5944,0.110,-0.290
5945,0.100,-0.330
5946,0.100,-0.290
5947,0.110,-0.330
5948,0.120,-0.240
5949,0.160,-0.270
5950,0.130,-0.220
5951,0.150,-0.180
5952,0.160,-0.040
5953,0.270,-0.030
5954,0.160,-0.010
5955,0.160,-0.040
5956,0.120,-0.080
5957,0.070,-0.140
5958,0.070,-0.160
5959,0.090,-0.250
5960,0.090,-0.370
5961,0.100,-0.330
5962,0.090,-0.390
5963,0.090,-0.330
5964,0.080,-0.440
5965,0.000,-0.190
5966,0.180,1.010
5967,0.260,3.950
5968,0.420,4.900
5969,-0.390,3.330
5970,-0.520,-0.700
5971,-0.470,-0.800
5972,-0.400,-0.570
5973,-0.160,-0.380
5974,0.020,-0.430
5975,0.020,-0.440
5976,0.040,-0.440
5977,0.030,-0.470
5978,0.040,-0.390
5979,0.040,-0.420
5980,0.040,-0.390
5981,0.050,-0.410
5982,0.050,-0.340
5983,0.050,-0.350
5984,0.050,-0.300
5985,0.050,-0.340
5986,0.040,-0.300
5987,0.040,-0.270
5988,0.050,-0.220
5989,0.040,-0.210
5990,0.020,-0.200
5991,0.000,-0.180
5992,-0.030,-0.170
5993,-0.050,-0.140
5994,-0.090,-0.190
5995,-0.110,-0.200
5996,-0.150,-0.230
5997,-0.150,-0.230
5998,-0.170,-0.340
5999,-0.160,-0.310
6000,-0.140,-0.340
6001,-0.120,-0.260
6002,-0.060,-0.260
6003,-0.010,-0.210
6004,0.030,-0.230
6005,0.060,-0.160
6006,0.110,-0.170
6007,0.120,-0.190
6008,0.150,-0.180
6009,0.140,-0.200
6010,0.150,-0.150
6011,0.130,-0.170
6012,0.150,-0.160
6013,0.110,-0.220
6014,0.110,-0.120
6015,0.110,-0.190
6016,0.120,-0.160
6017,0.100,-0.210
6018,0.110,-0.180
6019,0.090,-0.210
6020,0.100,-0.180
6021,0.100,-0.210
6022,0.090,-0.230
6023,0.090,-0.190
6024,0.100,-0.230
6025,0.090,-0.210
6026,0.110,-0.250
6027,0.090,-0.210
6028,0.090,-0.240
6029,0.090,-0.210
6030,0.090,-0.280
6031,0.080,-0.250
6032,0.080,-0.260
6033,0.090,-0.230
6034,0.100,-0.280
6035,0.090,-0.260
6036,0.100,-0.280
6037,0.080,-0.260
6038,0.100,-0.250
6039,0.090,-0.300
6040,0.090,-0.280
6041,0.090,-0.270
6042,0.110,-0.260
6043,0.100,-0.310
6044,0.110,-0.260
6045,0.120,-0.310
6046,0.100,-0.240
6047,0.120,-0.220
6048,0.170,-0.170
6049,0.130,-0.170
6050,0.170,-0.090
6051,0.130,0.050
6052,0.240,0.060
6053,0.170,0.080
6054,0.150,0.000
6055,0.110,0.010
6056,0.040,-0.080
6057,0.060,-0.060
6058,0.060,-0.220
6059,0.060,-0.260
6060,0.080,-0.290
6061,0.080,-0.260
6062,0.060,-0.290
6063,0.040,-0.370
6064,-0.040,-0.140
6065,0.150,1.090
6066,0.210,3.970
6067,0.370,4.840
6068,-0.380,3.360
6069,-0.490,-0.580
6070,-0.430,-0.750
6071,-0.420,-0.560
6072,-0.230,-0.310
6073,-0.010,-0.380
6074,0.000,-0.340
6075,0.020,-0.430
6076,0.030,-0.380
6077,0.020,-0.390
6078,0.020,-0.350
6079,0.020,-0.370
6080,0.040,-0.340
6081,0.020,-0.370
6082,0.020,-0.330
6083,0.010,-0.280
6084,0.010,-0.320
6085,0.010,-0.260
6086,-0.010,-0.230
6087,-0.010,-0.180
6088,-0.020,-0.210
6089,-0.050,-0.140
6090,-0.080,-0.200
6091,-0.110,-0.110
6092,-0.140,-0.140
6093,-0.170,-0.130
6094,-0.190,-0.210
6095,-0.220,-0.180
6096,-0.250,-0.240
6097,-0.260,-0.280
6098,-0.260,-0.300
6099,-0.240,-0.320
6100,-0.230,-0.240
6101,-0.170,-0.230
6102,-0.140,-0.190
6103,-0.090,-0.210
6104,-0.060,-0.120
6105,-0.020,-0.150
6106,0.010,-0.130
6107,0.020,-0.180
6108,0.020,-0.150
6109,0.010,-0.150
6110,0.010,-0.120
6111,0.020,-0.160
6112,0.010,-0.160
6113,-0.010,-0.120
6114,0.000,-0.130
6115,0.000,-0.100
6116,0.000,-0.150
6117,-0.010,-0.130
6118,-0.010,-0.160
6119,-0.010,-0.090
6120,0.010,-0.170
6121,0.010,-0.140
6122,-0.010,-0.170
6123,-0.020,-0.140
6124,0.000,-0.160
6125,0.000,-0.160
6126,0.000,-0.200
6127,-0.010,-0.150
6128,0.010,-0.150
6129,0.010,-0.210
6130,-0.010,-0.220
6131,0.000,-0.210
6132,0.010,-0.170
6133,0.020,-0.220
6134,0.010,-0.200
6135,0.020,-0.270
6136,0.020,-0.190
6137,0.010,-0.220
6138,-0.010,-0.210
6139,0.010,-0.250
6140,0.020,-0.200
6141,-0.010,-0.200
6142,0.000,-0.200
6143,0.000,-0.190
6144,-0.010,-0.230
6145,-0.020,-0.170
6146,0.000,-0.190
6147,0.000,-0.140
6148,0.030,-0.170
6149,-0.020,-0.040
6150,0.040,-0.090
6151,0.050,0.220
6152,0.090,0.070
6153,0.020,0.120
6154,0.040,0.060
6155,-0.040,0.030
6156,-0.060,-0.040
6157,-0.070,-0.050
6158,-0.040,-0.180
6159,-0.050,-0.240
6160,-0.040,-0.230
6161,-0.050,-0.250
6162,-0.050,-0.220
6163,-0.090,-0.320
6164,-0.060,0.470
6165,-0.070,2.170
6166,0.310,4.890
6167,-0.170,4.820
6168,-0.460,2.710
6169,-0.360,-1.070
6170,-0.590,-0.590
6171,-0.500,-0.360
6172,-0.250,-0.260
6173,-0.140,-0.290
6174,-0.140,-0.320
6175,-0.120,-0.280
6176,-0.110,-0.350
6177,-0.130,-0.240
6178,-0.110,-0.300
6179,-0.120,-0.250
6180,-0.110,-0.310
6181,-0.110,-0.220
6182,-0.120,-0.240
6183,-0.130,-0.190
6184,-0.120,-0.210
6185,-0.130,-0.200
6186,-0.140,-0.120
6187,-0.160,-0.130
6188,-0.150,-0.110
6189,-0.180,-0.140
6190,-0.190,-0.040
6191,-0.240,-0.080
6192,-0.280,-0.030
6193,-0.260,-0.120
6194,-0.300,-0.110
6195,-0.330,-0.170
6196,-0.330,-0.150
6197,-0.340,-0.220
6198,-0.340,-0.180
6199,-0.310,-0.190
6200,-0.270,-0.160
6201,-0.230,-0.110
6202,-0.200,-0.120
6203,-0.140,-0.090
6204,-0.110,-0.070
6205,-0.080,0.000
6206,-0.060,-0.090
6207,-0.050,-0.020
6208,-0.010,-0.100
6209,-0.020,-0.020
6210,-0.010,-0.060
6211,-0.010,-0.030
6212,-0.010,-0.090
6213,-0.010,-0.030
6214,0.000,-0.040
6215,-0.010,-0.050
6216,-0.010,-0.040
6217,-0.020,-0.060
6218,-0.020,-0.010
6219,-0.020,-0.060
6220,-0.020,-0.030
6221,-0.030,-0.100
6222,-0.020,-0.030
6223,-0.020,-0.070
6224,-0.020,-0.040
6225,-0.020,-0.090
6226,-0.020,-0.080
6227,-0.010,-0.060
6228,0.000,-0.070
6229,0.000,-0.110
6230,0.000,-0.120
6231,0.000,-0.070
6232,0.000,-0.120
6233,0.000,-0.090
6234,0.010,-0.150
6235,0.000,-0.110
6236,-0.010,-0.130
6237,0.000,-0.080
6238,0.010,-0.150
6239,0.000,-0.120
6240,-0.010,-0.140
6241,-0.030,-0.120
6242,-0.010,-0.110
6243,0.010,-0.120
6244,0.010,-0.070
6245,0.040,-0.030
6246,0.010,0.030
6247,0.050,0.000
6248,0.020,0.210
6249,0.120,0.160
6250,0.060,0.220
6251,0.030,0.160
6252,0.010,0.090
6253,-0.070,0.000
6254,-0.070,0.060
6255,-0.070,-0.050
6256,-0.060,-0.180
6257,-0.050,-0.190
6258,-0.070,-0.170
6259,-0.070,-0.140
6260,-0.090,-0.270
6261,-0.150,0.120
6262,-0.020,1.610
6263,0.150,4.680
6264,0.060,5.110
6265,-0.510,3.320
6266,-0.460,-0.910
6267,-0.610,-0.520
6268,-0.500,-0.350
6269,-0.280,-0.150
6270,-0.100,-0.280
6271,-0.100,-0.260
6272,-0.100,-0.250
6273,-0.080,-0.230
6274,-0.070,-0.250
6275,-0.070,-0.240
6276,-0.060,-0.230
6277,-0.060,-0.210
6278,-0.060,-0.170
6279,-0.060,-0.220
6280,-0.070,-0.190
6281,-0.060,-0.170
6282,-0.060,-0.100
6283,-0.050,-0.140
6284,-0.060,-0.090
6285,-0.070,-0.110
6286,-0.090,-0.050
6287,-0.100,-0.050
6288,-0.120,-0.030
6289,-0.150,-0.050
6290,-0.180,-0.030
6291,-0.200,-0.040
6292,-0.210,-0.120
6293,-0.230,-0.130
6294,-0.250,-0.210
6295,-0.250,-0.160
6296,-0.220,-0.190
6297,-0.200,-0.140
6298,-0.140,-0.160
6299,-0.100,-0.030
6300,-0.060,-0.050
6301,-0.020,0.000
6302,0.000,-0.040
6303,0.020,-0.030
6304,0.030,0.000
6305,0.050,0.000
6306,0.050,0.000
6307,0.040,-0.020
6308,0.060,0.020
6309,0.050,-0.010
6310,0.060,0.040
6311,0.070,-0.030
6312,0.050,0.010
6313,0.060,-0.020
6314,0.060,0.030
6315,0.070,-0.040
6316,0.050,-0.010
6317,0.070,-0.020
6318,0.050,-0.020
6319,0.060,-0.020
6320,0.070,-0.050
6321,0.060,-0.060
6322,0.060,-0.040
6323,0.060,-0.030
6324,0.080,-0.090
6325,0.070,-0.060
6326,0.050,-0.100
6327,0.060,-0.050
6328,0.070,-0.110
6329,0.070,-0.070
6330,0.070,-0.150
6331,0.050,-0.070
6332,0.060,-0.120
6333,0.070,-0.100
6334,0.070,-0.120
6335,0.060,-0.140
6336,0.060,-0.100
6337,0.060,-0.110
6338,0.070,-0.100
6339,0.060,-0.150
6340,0.050,-0.070
6341,0.050,-0.140
6342,0.070,-0.040
6343,0.090,-0.050
6344,0.090,0.010
6345,0.060,0.050
6346,0.100,0.150
6347,0.190,0.250
6348,0.120,0.220
6349,0.100,0.250
6350,0.080,0.150
6351,0.000,0.100
6352,0.000,0.050
6353,-0.010,0.020
6354,0.010,-0.150
6355,0.020,-0.110
6356,0.020,-0.200
6357,0.010,-0.140
6358,0.010,-0.230
6359,-0.060,-0.240
6360,0.080,0.820
6361,0.000,3.410
6362,0.610,5.110
6363,-0.370,4.070
6364,-0.570,0.490
6365,-0.370,-0.890
6366,-0.540,-0.500
6367,-0.380,-0.200
6368,-0.030,-0.180
6369,-0.050,-0.260
6370,-0.030,-0.220
6371,-0.020,-0.300
6372,-0.020,-0.200
6373,-0.020,-0.240
6374,-0.010,-0.200
6375,0.000,-0.230
6376,-0.020,-0.200
6377,-0.010,-0.170
6378,-0.020,-0.150
6379,-0.010,-0.140
6380,-0.020,-0.160
6381,-0.020,-0.080
6382,-0.030,-0.110
6383,-0.030,-0.030
6384,-0.030,-0.090
6385,-0.060,-0.050
6386,-0.080,-0.060
6387,-0.120,0.020
6388,-0.120,-0.060
6389,-0.160,-0.050
6390,-0.180,-0.070
6391,-0.220,-0.100
6392,-0.220,-0.140
6393,-0.230,-0.190
6394,-0.220,-0.190
6395,-0.210,-0.160
6396,-0.160,-0.100
6397,-0.130,-0.110
6398,-0.070,-0.040
6399,-0.040,-0.050
6400,-0.010,0.030
6401,0.020,-0.020
6402,0.050,0.020
6403,0.060,-0.050
6404,0.060,0.020
6405,0.060,0.000
6406,0.060,0.010
6407,0.060,-0.010
6408,0.060,-0.010
6409,0.050,0.020
6410,0.050,-0.010
6411,0.060,0.000
6412,0.060,-0.050
6413,0.050,0.030
6414,0.050,-0.030
6415,0.070,0.010
6416,0.070,-0.060
6417,0.060,-0.020
6418,0.060,-0.050
6419,0.070,-0.020
6420,0.070,-0.060
6421,0.080,-0.080
6422,0.070,-0.040
6423,0.070,-0.070
6424,0.080,-0.060
6425,0.060,-0.100
6426,0.070,-0.100
6427,0.070,-0.100
6428,0.070,-0.060
6429,0.080,-0.130
6430,0.070,-0.120
6431,0.070,-0.140
6432,0.070,-0.110
6433,0.090,-0.140
6434,0.080,-0.130
6435,0.080,-0.150
6436,0.070,-0.130
6437,0.080,-0.120
6438,0.080,-0.170
6439,0.070,-0.130
6440,0.080,-0.170
6441,0.080,-0.090
6442,0.080,-0.140
6443,0.080,-0.110
6444,0.090,-0.170
6445,0.090,-0.030
6446,0.140,-0.030
6447,0.080,0.020
6448,0.150,0.030
6449,0.160,0.240
6450,0.180,0.200
6451,0.110,0.210
6452,0.130,0.140
6453,0.030,0.010
6454,0.020,0.090
6455,0.010,0.000
6456,0.040,-0.120
6457,0.040,-0.190
6458,0.040,-0.180
6459,0.020,-0.180
6460,0.030,-0.170
6461,-0.020,-0.340
6462,0.070,0.720
6463,0.000,3.120
6464,0.630,5.070
6465,-0.320,4.150
6466,-0.490,0.770
6467,-0.290,-0.920
6468,-0.530,-0.550
6469,-0.370,-0.160
6470,-0.010,-0.280
6471,-0.030,-0.280
6472,-0.030,-0.300
6473,-0.020,-0.250
6474,0.010,-0.300
6475,0.000,-0.260
6476,0.010,-0.300
6477,-0.010,-0.230
6478,0.010,-0.220
6479,0.010,-0.240
6480,0.030,-0.200
6481,0.010,-0.230
6482,0.000,-0.150
6483,0.000,-0.160
6484,-0.010,-0.120
6485,-0.020,-0.170
6486,-0.020,-0.060
6487,-0.060,-0.100
6488,-0.070,-0.080
6489,-0.100,-0.080
6490,-0.140,-0.090
6491,-0.180,-0.080
6492,-0.210,-0.110
6493,-0.230,-0.160
6494,-0.250,-0.250
6495,-0.250,-0.210
6496,-0.270,-0.260
6497,-0.250,-0.230
6498,-0.210,-0.240
6499,-0.170,-0.180
6500,-0.120,-0.140
6501,-0.080,-0.050
6502,-0.040,-0.090
6503,-0.010,-0.080
6504,0.020,-0.060
6505,0.030,-0.060
6506,0.030,-0.040
6507,0.040,-0.070
6508,0.040,-0.050
6509,0.020,-0.040
6510,0.040,-0.010
6511,0.020,-0.070
6512,0.030,-0.030
6513,0.020,-0.070
6514,0.020,-0.010
6515,0.030,-0.060
6516,0.010,-0.050
6517,0.010,-0.110
6518,0.010,-0.040
6519,0.040,-0.050
6520,0.020,-0.080
6521,0.020,-0.090
6522,0.030,-0.120
6523,0.020,-0.070
6524,0.020,-0.100
6525,0.030,-0.090
6526,0.040,-0.150
6527,0.020,-0.070
6528,0.040,-0.140
6529,0.020,-0.110
6530,0.030,-0.170
6531,0.010,-0.140
6532,0.030,-0.140
6533,0.030,-0.120
6534,0.050,-0.180
6535,0.010,-0.190
6536,0.030,-0.120
6537,0.030,-0.170
6538,0.030,-0.160
6539,0.020,-0.170
6540,0.040,-0.150
6541,0.030,-0.160
6542,0.050,-0.040
6543,0.080,-0.090
6544,0.050,-0.030
6545,0.060,0.050
6546,0.150,0.220
6547,0.120,0.140
6548,0.090,0.140
6549,0.080,0.060
6550,-0.030,0.020
6551,-0.030,0.040
6552,-0.020,-0.060
6553,0.000,-0.210
6554,0.000,-0.230
6555,-0.010,-0.200
6556,0.000,-0.240
6557,0.000,-0.230
6558,-0.090,-0.280
6559,0.020,0.940
6560,-0.040,3.540
6561,0.480,5.110
6562,-0.350,4.100
6563,-0.410,0.420
6564,-0.330,-0.850
6565,-0.410,-0.600
6566,-0.360,-0.250
6567,-0.050,-0.350
6568,-0.060,-0.300
6569,-0.040,-0.330
6570,-0.030,-0.310
6571,-0.010,-0.350
6572,-0.020,-0.280
6573,-0.030,-0.310
6574,-0.030,-0.270
6575,-0.020,-0.300
6576,-0.020,-0.280
6577,-0.030,-0.240
6578,-0.040,-0.200
6579,-0.030,-0.220
6580,-0.030,-0.230
6581,-0.050,-0.160
6582,-0.050,-0.170
6583,-0.080,-0.120
6584,-0.080,-0.140
6585,-0.100,-0.110
6586,-0.150,-0.120
6587,-0.160,-0.090
6588,-0.180,-0.160
6589,-0.210,-0.160
6590,-0.220,-0.220
6591,-0.220,-0.220
6592,-0.210,-0.270
6593,-0.200,-0.270
6594,-0.180,-0.270
6595,-0.140,-0.190
6596,-0.100,-0.140
6597,-0.050,-0.160
6598,-0.010,-0.130
6599,0.020,-0.130
6600,0.030,-0.100
6601,0.050,-0.150
6602,0.070,-0.110
6603,0.070,-0.180
6604,0.070,-0.090
6605,0.070,-0.140
6606,0.080,-0.120
6607,0.090,-0.170
6608,0.070,-0.120
6609,0.070,-0.140
6610,0.070,-0.140
6611,0.060,-0.150
