'sample interval','ECG0','ECG1'
'0.0078125 sec','mV','mV'
0,-0.015,-0.045
1,-0.035,-0.060
2,-0.070,-0.065
3,-0.100,-0.050
4,-0.120,-0.045
5,-0.130,-0.030
6,-0.135,-0.030
7,-0.140,-0.025
8,-0.160,-0.045
9,-0.200,-0.055
10,-0.200,0.000
11,-0.060,0.125
12,0.225,0.270
13,0.505,0.350
14,0.550,0.335
15,0.355,-0.195
16,0.125,-0.720
17,-0.010,-0.655
18,-0.075,-0.355
19,-0.120,-0.140
20,-0.150,-0.040
21,-0.170,-0.005
22,-0.180,0.000
23,-0.180,0.000
24,-0.170,0.000
25,-0.160,0.005
26,-0.155,0.015
27,-0.140,0.015
28,-0.125,0.015
29,-0.105,0.015
30,-0.080,0.015
31,-0.060,0.020
32,-0.045,0.025
33,-0.030,0.035
34,-0.020,0.045
35,-0.005,0.065
36,0.020,0.075
37,0.055,0.090
38,0.100,0.110
39,0.155,0.135
40,0.210,0.155
41,0.255,0.175
42,0.285,0.195
43,0.300,0.205
44,0.310,0.185
45,0.305,0.175
46,0.275,0.135
47,0.240,0.110
48,0.205,0.080
49,0.155,0.060
50,0.105,0.035
51,0.075,0.025
52,0.055,0.005
53,0.035,0.000
54,0.010,0.000
55,-0.005,-0.015
56,-0.020,-0.035
57,-0.025,-0.045
58,-0.040,-0.050
59,-0.055,-0.045
60,-0.055,-0.035
61,-0.045,-0.035
62,-0.045,-0.030
63,-0.040,-0.030
64,-0.020,-0.030
65,0.000,-0.030
66,0.010,-0.030
67,0.015,-0.045
68,0.015,-0.065
69,0.005,-0.075
70,-0.005,-0.065
71,-0.030,-0.055
72,-0.060,-0.065
73,-0.095,-0.065
74,-0.125,-0.055
75,-0.140,-0.035
76,-0.140,-0.030
77,-0.140,-0.030
78,-0.140,-0.035
79,-0.165,-0.060
80,-0.205,-0.055
81,-0.175,0.040
82,0.025,0.195
83,0.345,0.345
84,0.595,0.365
85,0.550,0.290
86,0.285,-0.515
87,0.055,-0.870
88,-0.040,-0.530
89,-0.090,-0.250
90,-0.130,-0.085
91,-0.155,-0.015
92,-0.165,0.000
93,-0.170,0.000
94,-0.160,0.000
95,-0.150,0.000
96,-0.140,0.000
97,-0.135,0.000
98,-0.125,0.015
99,-0.110,0.025
100,-0.090,0.025
101,-0.070,0.020
102,-0.045,0.015
103,-0.030,0.025
104,-0.015,0.040
105,0.000,0.045
106,0.015,0.065
107,0.035,0.085
108,0.080,0.105
109,0.135,0.125
110,0.200,0.150
111,0.250,0.175
112,0.295,0.200
113,0.320,0.210
114,0.335,0.195
115,0.325,0.170
116,0.300,0.150
117,0.270,0.125
118,0.235,0.105
119,0.195,0.070
120,0.155,0.045
121,0.115,0.015
122,0.085,0.005
123,0.050,0.000
124,0.025,0.000
125,0.010,-0.025
126,0.000,-0.030
127,-0.020,-0.040
128,-0.030,-0.050
129,-0.030,-0.050
130,-0.040,-0.050
131,-0.040,-0.050
132,-0.030,-0.045
133,-0.025,-0.035
134,-0.015,-0.045
135,0.000,-0.030
136,0.015,-0.025
137,0.030,-0.025
138,0.040,-0.040
139,0.050,-0.055
140,0.045,-0.075
141,0.035,-0.070
142,0.020,-0.070
143,0.005,-0.070
144,-0.015,-0.070
145,-0.040,-0.055
146,-0.055,-0.050
147,-0.065,-0.050
148,-0.070,-0.050
149,-0.070,-0.045
150,-0.090,-0.060
151,-0.115,-0.055
152,-0.075,0.020
153,0.100,0.160
154,0.395,0.310
155,0.615,0.380
156,0.600,0.210
157,0.395,-0.355
158,0.175,-0.845
159,0.040,-0.625
160,-0.015,-0.310
161,-0.060,-0.125
162,-0.100,-0.040
163,-0.125,0.000
164,-0.130,0.000
165,-0.125,0.000
166,-0.120,0.000
167,-0.115,0.000
168,-0.110,0.000
169,-0.100,0.005
170,-0.085,0.000
171,-0.085,0.010
172,-0.075,0.015
173,-0.050,0.020
174,-0.020,0.020
175,0.000,0.020
176,0.005,0.035
177,0.025,0.040
178,0.060,0.045
179,0.110,0.070
180,0.155,0.090
181,0.210,0.120
182,0.265,0.150
183,0.315,0.170
184,0.340,0.180
185,0.350,0.185
186,0.345,0.175
187,0.325,0.145
188,0.295,0.120
189,0.255,0.080
190,0.215,0.045
191,0.175,0.020
192,0.130,0.005
193,0.090,0.000
194,0.060,0.000
195,0.040,-0.015
196,0.020,-0.025
197,0.000,-0.020
198,-0.015,-0.025
199,-0.030,-0.030
200,-0.040,-0.030
201,-0.050,-0.030
202,-0.040,-0.040
203,-0.025,-0.040
204,-0.025,-0.045
205,-0.020,-0.040
206,-0.015,-0.025
207,0.000,-0.020
208,0.015,-0.015
209,0.020,-0.025
210,0.025,-0.045
211,0.030,-0.070
212,0.020,-0.065
213,0.000,-0.055
214,-0.025,-0.050
215,-0.060,-0.060
216,-0.090,-0.055
217,-0.110,-0.045
218,-0.120,-0.025
219,-0.125,-0.025
220,-0.130,-0.005
221,-0.130,-0.010
222,-0.130,0.000
223,-0.100,0.070
224,0.025,0.160
225,0.275,0.235
226,0.515,0.165
227,0.565,-0.025
228,0.415,-0.385
229,0.230,-0.790
230,0.090,-0.795
231,-0.005,-0.475
232,-0.095,-0.185
233,-0.165,-0.035
234,-0.195,0.005
235,-0.200,0.015
236,-0.200,0.025
237,-0.190,0.030
238,-0.175,0.035
239,-0.160,0.035
240,-0.145,0.030
241,-0.130,0.030
242,-0.110,0.025
243,-0.095,0.020
244,-0.075,0.030
245,-0.055,0.030
246,-0.035,0.035
247,-0.015,0.035
248,0.000,0.040
249,0.030,0.040
250,0.065,0.060
251,0.105,0.075
252,0.155,0.095
253,0.215,0.125
254,0.270,0.135
255,0.315,0.140
256,0.340,0.140
257,0.340,0.135
258,0.315,0.125
259,0.290,0.095
260,0.255,0.075
261,0.215,0.045
262,0.180,0.015
263,0.140,0.005
264,0.105,0.000
265,0.070,0.000
266,0.045,-0.010
267,0.020,-0.015
268,0.000,-0.025
269,-0.010,-0.015
270,-0.025,-0.020
271,-0.030,-0.015
272,-0.035,-0.015
273,-0.035,-0.010
274,-0.025,-0.010
275,-0.025,-0.005
276,-0.015,-0.010
277,-0.005,-0.010
278,0.005,-0.005
279,0.015,-0.005
280,0.015,-0.025
281,0.015,-0.050
282,0.010,-0.065
283,0.000,-0.060
284,-0.015,-0.045
285,-0.050,-0.045
286,-0.080,-0.045
287,-0.110,-0.040
288,-0.130,-0.030
289,-0.145,-0.025
290,-0.155,-0.020
291,-0.160,-0.015
292,-0.165,-0.020
293,-0.190,-0.010
294,-0.175,0.040
295,-0.025,0.165
296,0.275,0.255
297,0.575,0.270
298,0.620,0.130
299,0.395,-0.270
300,0.140,-0.780
301,0.000,-0.635
302,-0.075,-0.335
303,-0.145,-0.120
304,-0.190,-0.020
305,-0.205,0.000
306,-0.210,0.010
307,-0.210,0.015
308,-0.200,0.020
309,-0.190,0.025
310,-0.175,0.030
311,-0.150,0.025
312,-0.135,0.025
313,-0.125,0.025
314,-0.105,0.025
315,-0.090,0.025
316,-0.075,0.030
317,-0.055,0.035
318,-0.030,0.040
319,-0.005,0.055
320,0.015,0.065
321,0.045,0.080
322,0.085,0.100
323,0.125,0.125
324,0.175,0.145
325,0.225,0.170
326,0.260,0.180
327,0.280,0.180
328,0.290,0.160
329,0.290,0.125
330,0.285,0.095
331,0.275,0.055
332,0.250,0.015
333,0.210,0.000
334,0.150,0.000
335,0.095,0.000
336,0.050,0.000
337,0.015,0.000
338,-0.005,0.000
339,-0.040,0.000
340,-0.075,0.000
341,-0.090,0.000
342,-0.090,0.000
343,-0.075,0.000
344,0.000,0.000
345,0.160,0.110
346,0.430,0.285
347,0.705,0.430
348,0.840,0.435
349,0.705,0.210
350,0.370,-0.550
351,0.085,-0.910
352,-0.050,-0.695
353,-0.130,-0.365
354,-0.200,-0.125
355,-0.245,-0.020
356,-0.265,0.005
357,-0.270,0.010
358,-0.270,0.015
359,-0.260,0.015
360,-0.250,0.015
361,-0.240,0.020
362,-0.225,0.020
363,-0.215,0.020
364,-0.200,0.025
365,-0.185,0.035
366,-0.160,0.045
367,-0.135,0.050
368,-0.105,0.070
369,-0.065,0.095
370,-0.025,0.115
371,0.020,0.140
372,0.065,0.185
373,0.110,0.220
374,0.145,0.245
375,0.165,0.255
376,0.165,0.245
377,0.150,0.210
378,0.125,0.175
379,0.095,0.135
380,0.060,0.115
381,0.030,0.070
382,0.005,0.040
383,-0.010,0.010
384,-0.035,0.005
385,-0.050,0.000
386,-0.070,0.000
387,-0.080,-0.005
388,-0.085,-0.010
389,-0.090,-0.020
390,-0.095,-0.025
391,-0.095,-0.030
392,-0.090,-0.030
393,-0.095,-0.030
394,-0.105,-0.030
395,-0.105,-0.030
396,-0.105,-0.030
397,-0.105,-0.025
398,-0.110,-0.030
399,-0.115,-0.030
400,-0.115,-0.040
401,-0.115,-0.035
402,-0.120,-0.035
403,-0.125,-0.030
404,-0.125,-0.035
405,-0.125,-0.035
406,-0.130,-0.030
407,-0.130,-0.035
408,-0.130,-0.030
409,-0.125,-0.030
410,-0.115,-0.030
411,-0.100,-0.035
412,-0.085,-0.030
413,-0.065,-0.025
414,-0.040,-0.020
415,-0.030,-0.025
416,-0.025,-0.050
417,-0.025,-0.060
418,-0.025,-0.050
419,-0.040,-0.030
420,-0.065,-0.035
421,-0.095,-0.030
422,-0.115,-0.025
423,-0.130,-0.020
424,-0.140,-0.025
425,-0.150,-0.015
426,-0.150,-0.015
427,-0.150,-0.020
428,-0.145,0.005
429,-0.035,0.150
430,0.235,0.280
431,0.620,0.445
432,0.815,0.450
433,0.660,0.205
434,0.335,-0.515
435,0.080,-0.680
436,-0.050,-0.450
437,-0.125,-0.225
438,-0.175,-0.080
439,-0.195,-0.010
440,-0.205,0.000
441,-0.210,0.000
442,-0.210,0.010
443,-0.200,0.015
444,-0.185,0.015
445,-0.165,0.015
446,-0.150,0.015
447,-0.135,0.015
448,-0.120,0.015
449,-0.100,0.015
450,-0.080,0.020
451,-0.065,0.030
452,-0.050,0.035
453,-0.030,0.040
454,-0.005,0.045
455,0.020,0.070
456,0.045,0.085
457,0.075,0.105
458,0.120,0.125
459,0.175,0.140
460,0.230,0.160
461,0.275,0.175
462,0.305,0.175
463,0.305,0.185
464,0.300,0.170
465,0.290,0.140
466,0.275,0.130
467,0.245,0.110
468,0.210,0.075
469,0.170,0.065
470,0.135,0.050
471,0.100,0.015
472,0.065,0.005
473,0.040,0.000
474,0.020,0.000
475,0.000,0.000
476,-0.005,-0.005
477,-0.020,-0.025
478,-0.030,-0.030
479,-0.040,-0.030
480,-0.045,-0.030
481,-0.045,-0.040
482,-0.030,-0.035
483,-0.025,-0.030
484,-0.010,-0.025
485,0.000,-0.025
486,0.010,-0.025
487,0.010,-0.040
488,0.000,-0.060
489,-0.010,-0.055
490,-0.030,-0.050
491,-0.050,-0.050
492,-0.075,-0.060
493,-0.110,-0.060
494,-0.140,-0.045
495,-0.165,-0.035
496,-0.175,-0.030
497,-0.175,-0.030
498,-0.180,-0.040
499,-0.210,-0.070
500,-0.235,-0.045
501,-0.155,0.050
502,0.090,0.210
503,0.440,0.355
504,0.640,0.370
505,0.525,0.125
506,0.240,-0.575
507,0.015,-0.750
508,-0.080,-0.425
509,-0.130,-0.180
510,-0.175,-0.065
511,-0.195,0.000
512,-0.200,0.000
513,-0.200,0.000
514,-0.195,0.005
515,-0.185,0.010
516,-0.170,0.015
517,-0.155,0.015
518,-0.145,0.015
519,-0.125,0.015
520,-0.110,0.015
521,-0.090,0.015
522,-0.070,0.020
523,-0.055,0.030
524,-0.035,0.035
525,-0.010,0.045
526,0.005,0.060
527,0.025,0.085
528,0.060,0.110
529,0.100,0.120
530,0.145,0.130
531,0.190,0.150
532,0.225,0.165
533,0.250,0.170
534,0.260,0.160
535,0.255,0.140
536,0.235,0.135
537,0.210,0.115
538,0.180,0.090
539,0.145,0.065
540,0.110,0.040
541,0.075,0.020
542,0.045,0.005
543,0.015,0.000
544,0.000,0.000
545,-0.005,-0.005
546,-0.020,-0.025
547,-0.035,-0.025
548,-0.045,-0.030
549,-0.055,-0.035
550,-0.055,-0.045
551,-0.055,-0.030
552,-0.050,-0.030
553,-0.035,-0.030
554,-0.020,-0.025
555,-0.010,-0.025
556,0.000,-0.015
557,0.010,-0.015
558,0.015,-0.030
559,0.015,-0.050
560,0.010,-0.060
561,-0.005,-0.040
562,-0.035,-0.040
563,-0.075,-0.045
564,-0.105,-0.050
565,-0.130,-0.035
566,-0.135,-0.030
567,-0.140,-0.030
568,-0.140,-0.030
569,-0.145,-0.035
570,-0.185,-0.055
571,-0.210,-0.025
572,-0.130,0.075
573,0.110,0.225
574,0.430,0.350
575,0.600,0.400
576,0.490,0.080
577,0.235,-0.525
578,0.030,-0.715
579,-0.060,-0.440
580,-0.110,-0.195
581,-0.150,-0.050
582,-0.170,-0.005
583,-0.180,0.000
584,-0.180,0.000
585,-0.175,0.005
586,-0.160,0.005
587,-0.145,0.015
588,-0.130,0.015
589,-0.125,0.025
590,-0.115,0.025
591,-0.105,0.030
592,-0.090,0.025
593,-0.070,0.020
594,-0.050,0.025
595,-0.030,0.040
596,-0.010,0.060
597,0.010,0.075
598,0.040,0.075
599,0.085,0.095
600,0.130,0.120
601,0.180,0.130
602,0.225,0.165
603,0.265,0.190
604,0.300,0.185
605,0.330,0.155
606,0.340,0.135
607,0.345,0.105
608,0.330,0.070
609,0.295,0.045
610,0.240,0.025
611,0.180,0.010
612,0.125,0.005
613,0.075,0.005
614,0.030,0.005
615,0.000,0.000
616,-0.030,0.000
617,-0.060,0.000
618,-0.075,-0.010
619,-0.070,-0.015
620,-0.020,-0.020
621,0.105,0.045
622,0.320,0.230
623,0.555,0.455
624,0.720,0.565
625,0.710,0.425
626,0.500,-0.120
627,0.210,-0.900
628,0.015,-0.925
629,-0.080,-0.515
630,-0.160,-0.195
631,-0.210,-0.060
632,-0.230,-0.005
633,-0.240,0.000
634,-0.240,0.000
635,-0.235,0.000
636,-0.225,0.000
637,-0.210,0.000
638,-0.195,0.000
639,-0.180,0.000
640,-0.165,0.005
641,-0.145,0.005
642,-0.135,0.010
643,-0.115,0.030
644,-0.090,0.050
645,-0.060,0.080
646,-0.020,0.105
647,0.010,0.130
648,0.050,0.175
649,0.095,0.215
650,0.135,0.225
651,0.160,0.230
652,0.170,0.200
653,0.165,0.170
654,0.155,0.140
655,0.135,0.100
656,0.110,0.060
657,0.085,0.025
658,0.055,0.005
659,0.030,0.000
660,0.015,0.000
661,0.005,0.000
662,0.000,0.000
663,-0.010,0.000
664,-0.020,0.000
665,-0.025,-0.005
666,-0.025,-0.015
667,-0.025,-0.015
668,-0.025,-0.020
669,-0.030,-0.025
670,-0.040,-0.025
671,-0.050,-0.030
672,-0.055,-0.030
673,-0.055,-0.030
674,-0.055,-0.035
675,-0.065,-0.045
676,-0.070,-0.045
677,-0.070,-0.055
678,-0.070,-0.060
679,-0.075,-0.045
680,-0.080,-0.045
681,-0.085,-0.050
682,-0.090,-0.050
683,-0.090,-0.050
684,-0.095,-0.030
685,-0.090,-0.030
686,-0.085,-0.045
687,-0.075,-0.045
688,-0.055,-0.065
689,-0.025,-0.065
690,0.000,-0.065
691,0.010,-0.060
692,0.015,-0.050
693,0.015,-0.055
694,0.010,-0.065
695,0.000,-0.055
696,-0.030,-0.055
697,-0.060,-0.060
698,-0.080,-0.065
699,-0.090,-0.055
700,-0.095,-0.045
701,-0.100,-0.045
702,-0.095,-0.035
703,-0.085,-0.035
704,-0.075,-0.005
705,-0.015,0.090
706,0.160,0.210
707,0.455,0.310
708,0.710,0.295
709,0.740,0.080
710,0.535,-0.325
711,0.285,-0.790
712,0.110,-0.770
713,0.000,-0.435
714,-0.080,-0.185
715,-0.145,-0.040
716,-0.180,0.000
717,-0.185,0.015
718,-0.180,0.005
719,-0.170,0.005
720,-0.160,0.015
721,-0.150,0.035
722,-0.140,0.045
723,-0.130,0.045
724,-0.115,0.050
725,-0.095,0.045
726,-0.075,0.025
727,-0.045,0.005
728,-0.030,0.020
729,-0.020,0.055
730,0.000,0.075
731,0.020,0.050
732,0.040,0.080
733,0.070,0.100
734,0.115,0.105
735,0.170,0.110
736,0.230,0.130
737,0.275,0.135
738,0.310,0.140
739,0.335,0.135
740,0.345,0.125
741,0.335,0.105
742,0.320,0.080
743,0.300,0.050
744,0.270,0.030
745,0.235,0.010
746,0.195,0.000
747,0.160,0.000
748,0.130,0.000
749,0.105,-0.010
750,0.075,-0.020
751,0.050,-0.030
752,0.025,-0.040
753,0.020,-0.050
754,0.015,-0.055
755,0.010,-0.050
756,0.010,-0.050
757,0.015,-0.055
758,0.015,-0.050
759,0.020,-0.045
760,0.030,-0.030
761,0.045,-0.030
762,0.050,-0.030
763,0.045,-0.055
764,0.040,-0.070
765,0.020,-0.065
766,0.000,-0.050
767,-0.035,-0.050
768,-0.070,-0.045
769,-0.100,-0.030
770,-0.125,-0.020
771,-0.145,-0.015
772,-0.155,-0.005
773,-0.160,-0.005
774,-0.160,-0.010
775,-0.175,0.000
776,-0.185,0.060
777,-0.090,0.165
778,0.145,0.235
779,0.435,0.215
780,0.565,0.065
781,0.455,-0.230
782,0.245,-0.680
783,0.080,-0.755
784,-0.015,-0.485
785,-0.090,-0.215
786,-0.145,-0.065
787,-0.180,-0.010
788,-0.195,0.000
789,-0.195,0.005
790,-0.190,0.010
791,-0.175,0.015
792,-0.160,0.015
793,-0.140,0.015
794,-0.130,0.010
795,-0.115,0.010
796,-0.095,0.015
797,-0.085,0.015
798,-0.065,0.015
799,-0.050,0.020
800,-0.030,0.025
801,-0.010,0.035
802,0.010,0.045
803,0.035,0.065
804,0.070,0.080
805,0.115,0.105
806,0.165,0.125
807,0.210,0.145
808,0.255,0.155
809,0.280,0.155
810,0.280,0.135
811,0.280,0.135
812,0.260,0.115
813,0.235,0.090
814,0.200,0.045
815,0.165,0.030
816,0.130,0.005
817,0.105,0.000
818,0.080,0.000
819,0.050,0.000
820,0.025,-0.015
821,0.010,-0.015
822,0.000,-0.025
823,-0.010,-0.030
824,-0.020,-0.030
825,-0.025,-0.025
826,-0.025,-0.025
827,-0.025,-0.025
828,-0.020,-0.025
829,-0.010,-0.025
830,0.000,-0.015
831,0.010,-0.015
832,0.015,-0.015
833,0.015,-0.025
834,0.015,-0.040
835,0.010,-0.045
836,0.000,-0.035
837,-0.025,-0.030
838,-0.055,-0.030
839,-0.090,-0.030
840,-0.115,-0.025
841,-0.135,-0.015
842,-0.150,-0.010
843,-0.155,-0.010
844,-0.160,-0.015
845,-0.185,-0.020
846,-0.225,-0.030
847,-0.195,0.035
848,0.000,0.160
849,0.365,0.295
850,0.685,0.330
851,0.695,0.200
852,0.425,-0.385
853,0.130,-0.785
854,-0.015,-0.535
855,-0.090,-0.265
856,-0.145,-0.095
857,-0.180,-0.010
858,-0.190,0.000
859,-0.195,0.005
860,-0.195,0.020
861,-0.190,0.015
862,-0.180,0.015
863,-0.165,0.015
864,-0.150,0.030
865,-0.135,0.020
866,-0.120,0.015
867,-0.100,0.015
868,-0.085,0.025
869,-0.060,0.035
870,-0.035,0.040
871,-0.015,0.050
872,0.000,0.060
873,0.020,0.080
874,0.050,0.095
875,0.090,0.110
876,0.135,0.130
877,0.180,0.145
878,0.215,0.165
879,0.250,0.175
880,0.280,0.165
881,0.300,0.150
882,0.310,0.120
883,0.320,0.080
884,0.305,0.035
885,0.260,0.000
886,0.195,0.000
887,0.135,0.000
888,0.090,0.000
889,0.045,0.000
890,0.015,0.000
891,0.000,0.000
892,-0.015,0.000
893,-0.030,0.000
894,-0.050,-0.005
895,-0.045,-0.015
896,0.005,-0.020
897,0.155,0.055
898,0.415,0.240
899,0.685,0.445
900,0.845,0.540
901,0.780,0.355
902,0.495,-0.405
903,0.180,-1.025
904,0.000,-0.810
905,-0.105,-0.420
906,-0.185,-0.150
907,-0.230,-0.020
908,-0.250,0.000
909,-0.255,0.010
910,-0.255,0.015
911,-0.245,0.020
912,-0.235,0.020
913,-0.220,0.015
914,-0.210,0.015
915,-0.200,0.025
916,-0.190,0.035
917,-0.170,0.040
918,-0.150,0.040
919,-0.125,0.045
920,-0.095,0.065
921,-0.065,0.090
922,-0.025,0.120
923,0.005,0.145
924,0.050,0.185
925,0.095,0.220
926,0.135,0.245
927,0.160,0.245
928,0.170,0.230
929,0.165,0.200
930,0.140,0.160
931,0.110,0.125
932,0.075,0.085
933,0.045,0.040
934,0.015,0.010
935,0.000,0.000
936,-0.010,0.000
937,-0.025,0.000
938,-0.040,-0.015
939,-0.055,-0.015
940,-0.070,-0.015
941,-0.080,-0.015
942,-0.085,-0.015
943,-0.085,-0.015
944,-0.085,-0.015
945,-0.085,-0.020
946,-0.085,-0.025
947,-0.085,-0.025
948,-0.085,-0.030
949,-0.085,-0.030
950,-0.095,-0.030
951,-0.100,-0.035
952,-0.100,-0.045
953,-0.100,-0.045
954,-0.110,-0.045
955,-0.115,-0.045
956,-0.115,-0.045
957,-0.115,-0.045
958,-0.115,-0.050
959,-0.120,-0.045
960,-0.110,-0.040
961,-0.095,-0.040
962,-0.090,-0.050
963,-0.080,-0.050
964,-0.060,-0.040
965,-0.035,-0.030
966,-0.025,-0.040
967,-0.025,-0.065
968,-0.025,-0.075
969,-0.025,-0.055
970,-0.035,-0.045
971,-0.060,-0.035
972,-0.095,-0.045
973,-0.115,-0.035
974,-0.130,-0.025
975,-0.140,-0.020
976,-0.135,-0.020
977,-0.130,-0.020
978,-0.130,-0.040
979,-0.130,-0.005
980,-0.035,0.110
981,0.220,0.245
982,0.610,0.420
983,0.850,0.465
984,0.710,0.320
985,0.375,-0.475
986,0.100,-0.725
987,-0.030,-0.480
988,-0.100,-0.255
989,-0.150,-0.110
990,-0.180,-0.025
991,-0.195,0.000
992,-0.200,0.000
993,-0.195,0.000
994,-0.190,0.010
995,-0.175,0.015
996,-0.165,0.015
997,-0.150,0.015
998,-0.135,0.015
999,-0.115,0.015
1000,-0.090,0.015
1001,-0.070,0.015
1002,-0.055,0.025
1003,-0.050,0.030
1004,-0.030,0.035
1005,-0.005,0.050
1006,0.015,0.070
1007,0.045,0.085
1008,0.090,0.095
1009,0.140,0.115
1010,0.185,0.135
1011,0.235,0.150
1012,0.275,0.175
1013,0.310,0.185
1014,0.325,0.180
1015,0.320,0.175
1016,0.300,0.165
1017,0.280,0.135
1018,0.255,0.120
1019,0.230,0.085
1020,0.195,0.060
1021,0.155,0.030
1022,0.110,0.025
1023,0.080,0.000
1024,0.055,0.000
1025,0.035,0.000
1026,0.015,0.000
1027,0.000,-0.005
1028,0.000,-0.025
1029,-0.015,-0.035
1030,-0.020,-0.040
1031,-0.020,-0.030
1032,-0.020,-0.030
1033,-0.015,-0.040
1034,0.000,-0.040
1035,0.010,-0.030
1036,0.025,-0.030
1037,0.025,-0.040
1038,0.020,-0.055
1039,0.010,-0.065
1040,0.000,-0.055
1041,-0.030,-0.045
1042,-0.060,-0.055
1043,-0.085,-0.060
1044,-0.110,-0.050
1045,-0.125,-0.040
1046,-0.140,-0.040
1047,-0.150,-0.030
1048,-0.155,-0.025
1049,-0.180,-0.050
1050,-0.215,-0.055
1051,-0.185,0.015
1052,-0.005,0.135
1053,0.305,0.285
1054,0.570,0.385
1055,0.570,0.255
1056,0.335,-0.285
1057,0.085,-0.785
1058,-0.040,-0.570
1059,-0.105,-0.280
1060,-0.145,-0.095
1061,-0.170,-0.020
1062,-0.185,0.000
1063,-0.190,0.000
1064,-0.185,0.005
1065,-0.170,0.005
1066,-0.155,0.005
1067,-0.145,0.010
1068,-0.125,0.015
1069,-0.110,0.015
1070,-0.095,0.010
1071,-0.080,0.010
1072,-0.060,0.015
1073,-0.040,0.025
1074,-0.025,0.025
1075,-0.010,0.040
1076,0.005,0.045
1077,0.030,0.065
1078,0.065,0.085
1079,0.115,0.100
1080,0.160,0.115
1081,0.205,0.140
1082,0.245,0.155
1083,0.270,0.170
1084,0.285,0.160
1085,0.280,0.145
1086,0.260,0.135
1087,0.240,0.115
1088,0.215,0.095
1089,0.175,0.065
1090,0.130,0.045
1091,0.095,0.025
1092,0.070,0.010
1093,0.050,0.000
1094,0.030,0.000
1095,0.015,-0.005
1096,0.000,-0.025
1097,-0.010,-0.025
1098,-0.035,-0.030
1099,-0.050,-0.030
1100,-0.050,-0.045
1101,-0.040,-0.045
1102,-0.030,-0.045
1103,-0.025,-0.035
1104,-0.015,-0.030
1105,0.000,-0.025
1106,0.015,-0.025
1107,0.020,-0.030
1108,0.020,-0.050
1109,0.015,-0.075
1110,0.015,-0.070
1111,0.000,-0.050
1112,-0.020,-0.055
1113,-0.055,-0.065
1114,-0.085,-0.055
1115,-0.105,-0.040
1116,-0.125,-0.030
1117,-0.130,-0.030
1118,-0.135,-0.030
1119,-0.140,-0.050
1120,-0.175,-0.075
1121,-0.195,-0.025
1122,-0.090,0.100
1123,0.175,0.265
1124,0.495,0.360
1125,0.620,0.365
1126,0.465,-0.065
1127,0.205,-0.650
1128,0.020,-0.695
1129,-0.065,-0.400
1130,-0.115,-0.170
1131,-0.145,-0.050
1132,-0.165,-0.005
1133,-0.165,0.000
1134,-0.155,0.000
1135,-0.150,0.005
1136,-0.145,0.005
1137,-0.135,0.005
1138,-0.120,0.015
1139,-0.100,0.015
1140,-0.085,0.010
1141,-0.075,0.010
1142,-0.065,0.020
1143,-0.045,0.020
1144,-0.025,0.035
1145,-0.005,0.035
1146,0.000,0.055
1147,0.015,0.055
1148,0.045,0.080
1149,0.095,0.095
1150,0.150,0.135
1151,0.205,0.140
1152,0.255,0.175
1153,0.295,0.175
1154,0.335,0.180
1155,0.365,0.150
1156,0.370,0.125
1157,0.370,0.090
1158,0.345,0.060
1159,0.295,0.035
1160,0.235,0.015
1161,0.175,0.015
1162,0.125,0.015
1163,0.085,0.005
1164,0.045,0.000
1165,0.010,0.000
1166,-0.015,-0.010
1167,-0.040,-0.010
1168,-0.055,-0.015
1169,-0.035,-0.020
1170,0.035,-0.010
1171,0.195,0.105
1172,0.425,0.320
1173,0.640,0.530
1174,0.750,0.565
1175,0.665,0.285
1176,0.400,-0.440
1177,0.135,-1.010
1178,-0.015,-0.790
1179,-0.100,-0.390
1180,-0.170,-0.135
1181,-0.205,-0.045
1182,-0.220,-0.005
1183,-0.225,0.000
1184,-0.225,0.000
1185,-0.220,0.000
1186,-0.205,0.000
1187,-0.190,0.000
1188,-0.175,0.000
1189,-0.155,0.000
1190,-0.140,0.000
1191,-0.125,0.000
1192,-0.105,0.005
1193,-0.085,0.035
1194,-0.060,0.045
1195,-0.030,0.070
1196,0.000,0.105
1197,0.040,0.135
1198,0.090,0.190
1199,0.135,0.235
1200,0.170,0.230
1201,0.185,0.220
1202,0.190,0.195
1203,0.180,0.165
1204,0.160,0.125
1205,0.140,0.085
1206,0.115,0.050
1207,0.085,0.020
1208,0.065,0.000
1209,0.050,0.000
1210,0.030,0.000
1211,0.015,0.000
1212,0.010,0.000
1213,0.010,-0.015
1214,0.005,-0.030
1215,0.000,-0.030
1216,-0.005,-0.025
1217,0.000,-0.025
1218,0.000,-0.030
1219,0.000,-0.025
1220,-0.005,-0.025
1221,-0.015,-0.025
1222,-0.020,-0.030
1223,-0.025,-0.040
1224,-0.025,-0.045
1225,-0.030,-0.045
1226,-0.030,-0.055
1227,-0.035,-0.050
1228,-0.035,-0.060
1229,-0.040,-0.055
1230,-0.040,-0.055
1231,-0.040,-0.050
1232,-0.040,-0.045
1233,-0.045,-0.040
1234,-0.050,-0.050
1235,-0.045,-0.055
1236,-0.030,-0.070
1237,-0.020,-0.075
1238,0.000,-0.085
1239,0.010,-0.075
1240,0.015,-0.040
1241,0.020,-0.030
1242,0.025,-0.045
1243,0.030,-0.070
1244,0.025,-0.070
1245,0.000,-0.070
1246,-0.015,-0.075
1247,-0.030,-0.095
1248,-0.050,-0.090
1249,-0.085,-0.045
1250,-0.100,-0.005
1251,-0.095,-0.005
1252,-0.085,-0.010
1253,-0.065,-0.005
1254,-0.020,0.050
1255,0.120,0.160
1256,0.395,0.255
1257,0.685,0.270
1258,0.790,0.165
1259,0.640,-0.150
1260,0.390,-0.650
1261,0.190,-0.840
1262,0.060,-0.570
1263,-0.030,-0.275
1264,-0.100,-0.105
1265,-0.140,-0.025
1266,-0.160,0.000
1267,-0.165,0.010
1268,-0.165,0.020
1269,-0.160,0.045
1270,-0.145,0.045
1271,-0.130,0.025
1272,-0.115,0.035
1273,-0.095,0.030
1274,-0.085,0.015
1275,-0.075,0.030
1276,-0.050,0.035
1277,-0.025,0.035
1278,-0.010,0.045
1279,0.000,0.040
1280,0.025,0.035
1281,0.045,0.045
1282,0.085,0.085
1283,0.130,0.090
1284,0.175,0.110
1285,0.230,0.120
1286,0.295,0.130
1287,0.355,0.130
1288,0.400,0.110
1289,0.440,0.080
1290,0.455,0.045
1291,0.450,0.020
1292,0.420,0.005
1293,0.365,0.000
1294,0.300,0.000
1295,0.240,0.000
1296,0.185,0.000
1297,0.140,0.000
1298,0.095,0.000
1299,0.055,0.000
1300,0.020,-0.005
1301,0.000,-0.015
1302,-0.005,-0.015
1303,0.000,-0.020
1304,0.060,0.005
1305,0.230,0.065
1306,0.470,0.100
1307,0.695,0.120
1308,0.815,0.185
1309,0.735,0.110
1310,0.490,-0.295
1311,0.230,-0.830
1312,0.020,-1.005
1313,-0.175,-0.735
1314,-0.280,-0.300
1315,-0.285,-0.075
1316,-0.275,0.000
1317,-0.275,0.025
1318,-0.275,0.045
1319,-0.270,0.050
1320,-0.265,0.050
1321,-0.250,0.045
1322,-0.240,0.045
1323,-0.230,0.045
1324,-0.210,0.050
1325,-0.195,0.050
1326,-0.180,0.050
1327,-0.155,0.060
1328,-0.130,0.065
1329,-0.105,0.085
1330,-0.080,0.105
1331,-0.045,0.130
1332,-0.005,0.150
1333,0.020,0.175
1334,0.055,0.180
1335,0.090,0.180
1336,0.125,0.160
1337,0.150,0.135
1338,0.165,0.110
1339,0.165,0.075
1340,0.150,0.045
1341,0.130,0.020
1342,0.110,0.005
1343,0.085,0.000
1344,0.055,0.000
1345,0.030,0.000
1346,0.010,0.000
1347,-0.005,0.000
1348,-0.020,0.000
1349,-0.035,0.000
1350,-0.050,0.000
1351,-0.070,0.000
1352,-0.080,0.000
1353,-0.085,0.000
1354,-0.085,0.000
1355,-0.085,0.000
1356,-0.095,0.000
1357,-0.105,0.000
1358,-0.110,-0.010
1359,-0.115,-0.010
1360,-0.120,-0.015
1361,-0.125,-0.015
1362,-0.125,-0.020
1363,-0.130,-0.020
1364,-0.125,-0.025
1365,-0.120,-0.025
1366,-0.115,-0.025
1367,-0.100,-0.020
1368,-0.090,-0.020
1369,-0.085,-0.025
1370,-0.070,-0.030
1371,-0.040,-0.030
1372,-0.020,-0.020
1373,-0.015,-0.025
1374,-0.005,-0.045
1375,0.000,-0.060
1376,-0.015,-0.045
1377,-0.040,-0.030
1378,-0.070,-0.030
1379,-0.100,-0.030
1380,-0.125,-0.020
1381,-0.140,-0.015
1382,-0.150,-0.010
1383,-0.150,-0.010
1384,-0.150,-0.015
1385,-0.150,-0.020
1386,-0.140,0.010
1387,-0.050,0.115
1388,0.200,0.240
1389,0.565,0.350
1390,0.810,0.385
1391,0.740,0.165
1392,0.435,-0.345
1393,0.140,-0.690
1394,-0.025,-0.510
1395,-0.110,-0.260
1396,-0.170,-0.100
1397,-0.205,-0.015
1398,-0.220,0.000
1399,-0.220,0.010
1400,-0.210,0.020
1401,-0.205,0.020
1402,-0.195,0.025
1403,-0.180,0.020
1404,-0.160,0.030
1405,-0.140,0.020
1406,-0.125,0.030
1407,-0.105,0.015
1408,-0.085,0.020
1409,-0.065,0.020
1410,-0.045,0.030
1411,-0.020,0.035
1412,0.000,0.045
1413,0.020,0.050
1414,0.050,0.075
1415,0.085,0.085
1416,0.135,0.110
1417,0.180,0.130
1418,0.220,0.150
1419,0.260,0.155
1420,0.285,0.170
1421,0.300,0.165
1422,0.300,0.145
1423,0.290,0.135
1424,0.275,0.120
1425,0.250,0.095
1426,0.215,0.070
1427,0.175,0.050
1428,0.135,0.035
1429,0.100,0.025
1430,0.075,0.015
1431,0.045,0.000
1432,0.025,0.000
1433,0.010,0.000
1434,0.000,0.000
1435,-0.015,-0.010
1436,-0.025,-0.015
1437,-0.025,-0.020
1438,-0.025,-0.015
1439,-0.025,-0.025
1440,-0.020,-0.030
1441,-0.005,-0.025
1442,0.005,-0.020
1443,0.015,-0.015
1444,0.015,-0.015
1445,0.015,-0.040
1446,0.010,-0.045
1447,0.000,-0.030
1448,-0.020,-0.030
1449,-0.045,-0.035
1450,-0.085,-0.040
1451,-0.120,-0.035
1452,-0.145,-0.025
1453,-0.155,-0.015
1454,-0.160,-0.015
1455,-0.165,-0.015
1456,-0.180,-0.045
1457,-0.225,-0.050
1458,-0.210,0.010
1459,-0.020,0.145
1460,0.325,0.305
1461,0.620,0.375
1462,0.630,0.255
1463,0.395,-0.325
1464,0.130,-0.680
1465,-0.030,-0.540
1466,-0.110,-0.275
1467,-0.160,-0.105
1468,-0.190,-0.020
1469,-0.200,0.000
1470,-0.200,0.005
1471,-0.200,0.015
1472,-0.195,0.015
1473,-0.180,0.015
1474,-0.165,0.015
1475,-0.155,0.015
1476,-0.135,0.015
1477,-0.115,0.015
1478,-0.090,0.015
1479,-0.075,0.015
1480,-0.060,0.020
1481,-0.040,0.035
1482,-0.015,0.040
1483,0.000,0.050
1484,0.020,0.060
1485,0.045,0.085
1486,0.090,0.100
1487,0.130,0.125
1488,0.170,0.125
1489,0.205,0.145
1490,0.230,0.155
1491,0.235,0.155
1492,0.235,0.130
1493,0.230,0.120
1494,0.215,0.100
1495,0.180,0.090
1496,0.145,0.055
1497,0.110,0.030
1498,0.080,0.015
1499,0.055,0.000
1500,0.035,0.000
1501,0.015,0.000
1502,0.000,0.000
1503,-0.010,-0.010
1504,-0.030,-0.020
1505,-0.035,-0.025
1506,-0.040,-0.030
1507,-0.040,-0.030
1508,-0.035,-0.030
1509,-0.025,-0.035
1510,-0.015,-0.035
1511,-0.005,-0.025
1512,0.005,-0.015
1513,0.015,-0.020
1514,0.015,-0.030
1515,0.015,-0.045
1516,0.010,-0.060
1517,0.000,-0.045
1518,-0.020,-0.035
1519,-0.050,-0.045
1520,-0.080,-0.050
1521,-0.105,-0.040
1522,-0.125,-0.025
1523,-0.140,-0.015
1524,-0.145,-0.010
1525,-0.145,-0.015
1526,-0.170,-0.040
1527,-0.210,-0.060
1528,-0.200,0.000
1529,-0.030,0.130
1530,0.295,0.295
1531,0.610,0.385
1532,0.645,0.325
1533,0.395,-0.275
1534,0.125,-0.805
1535,-0.020,-0.565
1536,-0.090,-0.275
1537,-0.130,-0.090
1538,-0.165,-0.005
1539,-0.180,0.000
1540,-0.180,0.000
1541,-0.165,0.005
1542,-0.160,0.005
1543,-0.150,0.005
1544,-0.140,0.010
1545,-0.125,0.010
1546,-0.110,0.010
1547,-0.095,0.015
1548,-0.080,0.015
1549,-0.065,0.020
1550,-0.050,0.020
1551,-0.030,0.030
1552,-0.005,0.040
1553,0.015,0.060
1554,0.040,0.075
1555,0.070,0.085
1556,0.110,0.105
1557,0.155,0.125
1558,0.200,0.140
1559,0.245,0.160
1560,0.270,0.175
1561,0.285,0.175
1562,0.290,0.165
1563,0.280,0.140
1564,0.255,0.125
1565,0.225,0.100
1566,0.185,0.070
1567,0.145,0.045
1568,0.105,0.040
1569,0.075,0.020
1570,0.050,0.000
1571,0.030,0.000
1572,0.010,0.000
1573,0.000,0.000
1574,-0.005,-0.005
1575,-0.010,-0.025
1576,-0.020,-0.025
1577,-0.025,-0.035
1578,-0.025,-0.045
1579,-0.025,-0.040
1580,-0.015,-0.040
1581,0.000,-0.025
1582,0.015,-0.025
1583,0.025,-0.015
1584,0.030,-0.030
1585,0.025,-0.045
1586,0.015,-0.065
1587,0.005,-0.045
1588,-0.005,-0.045
1589,-0.030,-0.050
1590,-0.065,-0.060
1591,-0.100,-0.035
1592,-0.120,-0.025
1593,-0.130,-0.020
1594,-0.135,-0.020
1595,-0.135,-0.025
1596,-0.150,-0.050
1597,-0.190,-0.050
1598,-0.185,0.010
1599,-0.030,0.135
1600,0.275,0.290
1601,0.555,0.375
1602,0.590,0.280
1603,0.380,-0.225
1604,0.130,-0.730
1605,-0.020,-0.605
1606,-0.085,-0.310
1607,-0.125,-0.115
1608,-0.150,-0.025
1609,-0.165,0.000
1610,-0.160,0.000
1611,-0.150,0.005
1612,-0.145,0.005
1613,-0.140,0.015
1614,-0.135,0.010
1615,-0.120,0.010
1616,-0.105,0.010
1617,-0.090,0.015
1618,-0.080,0.015
1619,-0.070,0.030
1620,-0.050,0.035
1621,-0.030,0.040
1622,-0.015,0.040
1623,0.000,0.060
1624,0.025,0.065
1625,0.055,0.090
1626,0.100,0.120
1627,0.155,0.140
1628,0.215,0.160
1629,0.260,0.170
1630,0.280,0.185
1631,0.290,0.180
1632,0.295,0.175
1633,0.285,0.145
1634,0.260,0.125
1635,0.225,0.100
1636,0.185,0.085
1637,0.150,0.055
1638,0.115,0.035
1639,0.085,0.015
1640,0.055,0.000
1641,0.025,0.000
1642,0.005,0.000
1643,0.000,-0.010
1644,-0.010,-0.025
1645,-0.020,-0.030
1646,-0.030,-0.030
1647,-0.035,-0.035
1648,-0.030,-0.040
1649,-0.025,-0.040
1650,-0.020,-0.040
1651,-0.015,-0.035
1652,0.000,-0.025
1653,0.010,-0.015
1654,0.015,-0.030
1655,0.015,-0.050
1656,0.015,-0.065
1657,0.010,-0.060
1658,0.000,-0.030
1659,-0.030,-0.050
1660,-0.070,-0.060
1661,-0.105,-0.065
1662,-0.125,-0.045
1663,-0.135,-0.030
1664,-0.135,-0.025
1665,-0.135,-0.025
1666,-0.135,-0.035
1667,-0.175,-0.060
1668,-0.190,-0.005
1669,-0.080,0.115
1670,0.195,0.270
1671,0.500,0.370
1672,0.595,0.385
1673,0.420,-0.080
1674,0.170,-0.715
1675,0.010,-0.675
1676,-0.070,-0.385
1677,-0.120,-0.155
1678,-0.160,-0.040
1679,-0.175,-0.005
1680,-0.165,0.000
1681,-0.160,0.000
1682,-0.160,0.005
1683,-0.150,0.010
1684,-0.135,0.005
1685,-0.115,0.010
1686,-0.100,0.015
1687,-0.090,0.020
1688,-0.075,0.020
1689,-0.055,0.020
1690,-0.035,0.030
1691,-0.020,0.035
1692,-0.005,0.035
1693,0.000,0.050
1694,0.025,0.070
1695,0.060,0.090
1696,0.100,0.120
1697,0.145,0.125
1698,0.195,0.150
1699,0.250,0.170
1700,0.305,0.195
1701,0.335,0.200
1702,0.360,0.170
1703,0.365,0.135
1704,0.360,0.085
1705,0.325,0.045
1706,0.260,0.025
1707,0.205,0.020
1708,0.155,0.015
1709,0.100,0.010
1710,0.055,0.010
1711,0.020,0.010
1712,-0.005,0.000
1713,-0.035,0.000
1714,-0.065,-0.005
1715,-0.070,-0.015
1716,-0.060,-0.025
1717,0.000,-0.015
1718,0.165,0.105
1719,0.395,0.340
1720,0.610,0.550
1721,0.725,0.565
1722,0.630,0.325
1723,0.360,-0.465
1724,0.100,-0.965
1725,-0.040,-0.775
1726,-0.120,-0.400
1727,-0.185,-0.150
1728,-0.225,-0.040
1729,-0.240,-0.005
1730,-0.245,0.000
1731,-0.240,0.000
1732,-0.240,0.000
1733,-0.235,0.000
1734,-0.220,0.000
1735,-0.200,0.000
1736,-0.190,0.000
1737,-0.170,0.005
1738,-0.145,0.020
1739,-0.125,0.030
1740,-0.100,0.035
1741,-0.075,0.050
1742,-0.035,0.065
1743,0.000,0.105
1744,0.030,0.140
1745,0.070,0.185
1746,0.115,0.215
1747,0.150,0.230
1748,0.170,0.215
1749,0.165,0.190
1750,0.155,0.145
1751,0.130,0.115
1752,0.100,0.075
1753,0.065,0.045
1754,0.035,0.005
1755,0.020,0.000
1756,0.000,0.000
1757,-0.010,-0.010
1758,-0.030,-0.015
1759,-0.040,-0.020
1760,-0.050,-0.025
1761,-0.060,-0.025
1762,-0.065,-0.015
1763,-0.060,-0.015
1764,-0.055,-0.010
1765,-0.045,-0.010
1766,-0.040,-0.015
1767,-0.040,-0.025
1768,-0.040,-0.025
1769,-0.040,-0.025
1770,-0.035,-0.030
1771,-0.030,-0.035
1772,-0.030,-0.045
1773,-0.025,-0.045
1774,-0.025,-0.050
1775,-0.025,-0.050
1776,-0.025,-0.050
1777,-0.020,-0.055
1778,-0.010,-0.065
1779,-0.010,-0.070
1780,-0.015,-0.070
1781,-0.015,-0.065
1782,-0.010,-0.060
1783,-0.010,-0.060
1784,-0.005,-0.060
1785,0.000,-0.055
1786,0.020,-0.045
1787,0.050,-0.050
1788,0.065,-0.060
1789,0.060,-0.085
1790,0.055,-0.080
1791,0.040,-0.065
1792,0.025,-0.050
1793,0.000,-0.065
1794,-0.025,-0.075
1795,-0.060,-0.065
1796,-0.085,-0.035
1797,-0.090,-0.035
1798,-0.085,-0.025
1799,-0.085,-0.025
1800,-0.080,-0.025
1801,-0.040,0.030
1802,0.090,0.160
1803,0.360,0.300
1804,0.655,0.400
1805,0.750,0.325
1806,0.575,-0.050
1807,0.305,-0.645
1808,0.115,-0.780
1809,0.015,-0.505
1810,-0.055,-0.250
1811,-0.120,-0.100
1812,-0.160,-0.025
1813,-0.160,0.000
1814,-0.150,0.000
1815,-0.140,0.000
1816,-0.135,0.010
1817,-0.130,0.025
1818,-0.115,0.020
1819,-0.095,0.005
1820,-0.080,0.005
1821,-0.065,0.015
1822,-0.040,0.015
1823,-0.025,0.005
1824,-0.015,0.020
1825,0.000,0.030
1826,0.020,0.025
1827,0.035,0.020
1828,0.065,0.045
1829,0.110,0.075
1830,0.160,0.090
1831,0.220,0.110
1832,0.275,0.130
1833,0.320,0.140
1834,0.360,0.135
1835,0.380,0.135
1836,0.395,0.105
1837,0.400,0.105
1838,0.375,0.105
1839,0.350,0.090
1840,0.315,0.055
1841,0.285,0.025
1842,0.240,0.005
1843,0.195,0.005
1844,0.155,0.000
1845,0.125,0.000
1846,0.090,-0.010
1847,0.060,0.000
1848,0.030,0.000
1849,0.015,-0.005
1850,0.010,-0.020
1851,0.000,-0.025
1852,0.000,-0.035
1853,0.005,-0.035
1854,0.000,-0.030
1855,0.005,-0.025
1856,0.020,-0.020
1857,0.030,-0.020
1858,0.040,-0.030
1859,0.050,-0.050
1860,0.050,-0.070
1861,0.040,-0.075
1862,0.015,-0.065
1863,-0.010,-0.055
1864,-0.040,-0.065
1865,-0.075,-0.065
1866,-0.105,-0.055
1867,-0.125,-0.030
1868,-0.135,-0.030
1869,-0.135,-0.030
1870,-0.135,-0.025
1871,-0.135,-0.015
1872,-0.130,0.020
1873,-0.055,0.120
1874,0.140,0.215
1875,0.430,0.245
1876,0.600,0.040
1877,0.505,-0.190
1878,0.280,-0.755
1879,0.115,-0.950
1880,0.010,-0.625
1881,-0.075,-0.270
1882,-0.150,-0.075
1883,-0.190,0.000
1884,-0.210,0.010
1885,-0.215,0.025
1886,-0.215,0.035
1887,-0.205,0.040
1888,-0.195,0.045
1889,-0.180,0.040
1890,-0.165,0.035
1891,-0.145,0.035
1892,-0.135,0.035
1893,-0.110,0.035
1894,-0.090,0.035
1895,-0.070,0.035
1896,-0.050,0.040
1897,-0.025,0.040
1898,0.000,0.045
1899,0.020,0.060
1900,0.055,0.080
1901,0.100,0.100
1902,0.150,0.120
1903,0.205,0.135
1904,0.250,0.150
1905,0.280,0.155
1906,0.295,0.145
1907,0.290,0.135
1908,0.275,0.120
1909,0.245,0.090
1910,0.215,0.060
1911,0.185,0.040
1912,0.145,0.020
1913,0.115,0.000
1914,0.085,0.000
1915,0.060,0.000
1916,0.030,0.000
1917,0.010,-0.015
1918,-0.005,-0.020
1919,-0.020,-0.020
1920,-0.030,-0.015
1921,-0.030,-0.020
1922,-0.035,-0.015
1923,-0.030,-0.015
1924,-0.025,-0.010
1925,-0.015,-0.010
1926,0.000,0.000
1927,0.010,0.000
1928,0.015,0.000
1929,0.015,-0.020
1930,0.015,-0.045
1931,0.005,-0.050
1932,-0.005,-0.035
1933,-0.035,-0.030
1934,-0.070,-0.035
1935,-0.100,-0.040
1936,-0.130,-0.030
1937,-0.145,-0.025
1938,-0.160,-0.020
1939,-0.165,-0.020
1940,-0.170,-0.025
1941,-0.200,-0.035
1942,-0.225,-0.020
1943,-0.160,0.060
1944,0.070,0.190
1945,0.415,0.295
1946,0.655,0.295
1947,0.615,0.040
1948,0.355,-0.470
1949,0.100,-0.750
1950,-0.040,-0.515
1951,-0.120,-0.240
1952,-0.170,-0.070
1953,-0.195,-0.005
1954,-0.210,0.005
1955,-0.210,0.015
1956,-0.205,0.025
1957,-0.200,0.025
1958,-0.190,0.035
1959,-0.180,0.035
1960,-0.165,0.035
1961,-0.145,0.035
1962,-0.125,0.030
1963,-0.110,0.030
1964,-0.100,0.030
1965,-0.085,0.035
1966,-0.060,0.040
1967,-0.030,0.045
1968,0.000,0.065
1969,0.015,0.085
1970,0.040,0.095
1971,0.075,0.120
1972,0.120,0.130
1973,0.160,0.160
1974,0.200,0.170
1975,0.225,0.180
1976,0.235,0.170
1977,0.240,0.160
1978,0.240,0.140
1979,0.240,0.105
1980,0.235,0.065
1981,0.225,0.025
1982,0.200,0.000
1983,0.165,0.000
1984,0.115,0.000
1985,0.065,0.000
1986,0.025,0.000
1987,0.000,0.000
1988,-0.025,0.000
1989,-0.050,0.000
1990,-0.075,0.000
1991,-0.085,0.000
1992,-0.080,0.000
1993,-0.045,0.000
1994,0.035,0.010
1995,0.210,0.125
1996,0.455,0.310
1997,0.690,0.465
1998,0.780,0.470
1999,0.635,0.165
2000,0.310,-0.635
2001,0.050,-1.050
2002,-0.070,-0.685
2003,-0.135,-0.315
2004,-0.195,-0.085
2005,-0.240,0.000
2006,-0.250,0.005
2007,-0.260,0.025
2008,-0.260,0.030
2009,-0.250,0.030
2010,-0.240,0.030
2011,-0.225,0.030
2012,-0.205,0.025
2013,-0.200,0.030
2014,-0.185,0.035
2015,-0.165,0.045
2016,-0.150,0.065
2017,-0.120,0.070
2018,-0.095,0.090
2019,-0.060,0.110
2020,-0.020,0.130
2021,0.020,0.160
2022,0.065,0.210
2023,0.115,0.245
2024,0.155,0.270
2025,0.180,0.280
2026,0.185,0.270
2027,0.180,0.255
2028,0.160,0.220
2029,0.130,0.170
2030,0.095,0.125
2031,0.060,0.095
2032,0.030,0.060
2033,0.005,0.030
2034,-0.010,0.000
2035,-0.035,0.000
2036,-0.055,0.000
2037,-0.070,-0.010
2038,-0.085,-0.015
2039,-0.090,-0.020
2040,-0.095,-0.025
2041,-0.100,-0.030
2042,-0.105,-0.030
2043,-0.110,-0.030
2044,-0.115,-0.030
2045,-0.120,-0.030
2046,-0.125,-0.030
2047,-0.125,-0.030
2048,-0.125,-0.030
2049,-0.125,-0.035
2050,-0.130,-0.030
2051,-0.130,-0.045
2052,-0.135,-0.030
2053,-0.130,-0.045
2054,-0.130,-0.030
2055,-0.125,-0.040
2056,-0.110,-0.035
2057,-0.100,-0.050
2058,-0.095,-0.060
2059,-0.085,-0.065
2060,-0.065,-0.040
2061,-0.040,-0.035
2062,-0.025,-0.045
2063,-0.015,-0.065
2064,-0.015,-0.070
2065,-0.025,-0.055
2066,-0.050,-0.040
2067,-0.080,-0.045
2068,-0.110,-0.055
2069,-0.135,-0.040
2070,-0.145,-0.025
2071,-0.150,-0.020
2072,-0.150,-0.015
2073,-0.150,-0.015
2074,-0.150,-0.025
2075,-0.145,0.000
2076,-0.045,0.105
2077,0.205,0.255
2078,0.565,0.405
2079,0.795,0.485
2080,0.700,0.290
2081,0.370,-0.355
2082,0.095,-0.740
2083,-0.040,-0.500
2084,-0.115,-0.260
2085,-0.155,-0.110
2086,-0.190,-0.020
2087,-0.200,0.000
2088,-0.200,0.000
2089,-0.195,0.010
2090,-0.195,0.010
2091,-0.195,0.010
2092,-0.180,0.010
2093,-0.160,0.010
2094,-0.145,0.015
2095,-0.130,0.015
2096,-0.110,0.015
2097,-0.095,0.015
2098,-0.080,0.020
2099,-0.060,0.030
2100,-0.035,0.035
2101,-0.010,0.045
2102,0.010,0.060
2103,0.040,0.080
2104,0.085,0.090
2105,0.125,0.105
2106,0.165,0.125
2107,0.210,0.145
2108,0.250,0.165
2109,0.280,0.180
2110,0.290,0.175
2111,0.285,0.160
2112,0.275,0.150
2113,0.255,0.130
2114,0.225,0.105
2115,0.190,0.080
2116,0.160,0.065
2117,0.125,0.050
2118,0.090,0.025
2119,0.060,0.010
2120,0.030,0.000
2121,0.015,0.000
2122,0.000,-0.005
2123,-0.005,-0.020
2124,-0.020,-0.030
2125,-0.030,-0.030
2126,-0.030,-0.025
2127,-0.025,-0.025
2128,-0.020,-0.040
2129,-0.010,-0.030
2130,0.005,-0.030
2131,0.015,-0.020
2132,0.015,-0.025
2133,0.010,-0.035
2134,0.005,-0.075
2135,-0.005,-0.060
2136,-0.025,-0.045
2137,-0.050,-0.045
2138,-0.090,-0.050
2139,-0.125,-0.050
2140,-0.145,-0.045
2141,-0.150,-0.025
2142,-0.155,-0.025
2143,-0.160,-0.025
2144,-0.180,-0.050
2145,-0.220,-0.065
2146,-0.215,-0.005
2147,-0.065,0.120
2148,0.235,0.280
2149,0.515,0.370
2150,0.555,0.315
2151,0.350,-0.230
2152,0.100,-0.705
2153,-0.050,-0.610
2154,-0.120,-0.310
2155,-0.160,-0.115
2156,-0.185,-0.025
2157,-0.195,0.000
2158,-0.200,0.000
2159,-0.195,0.005
2160,-0.190,0.005
2161,-0.180,0.010
2162,-0.160,0.005
2163,-0.140,0.015
2164,-0.125,0.015
2165,-0.110,0.020
2166,-0.100,0.030
2167,-0.085,0.020
2168,-0.075,0.025
2169,-0.060,0.025
2170,-0.030,0.035
2171,0.000,0.045
2172,0.020,0.050
2173,0.040,0.075
2174,0.080,0.105
2175,0.125,0.130
2176,0.180,0.140
2177,0.215,0.145
2178,0.240,0.170
2179,0.250,0.175
2180,0.250,0.165
2181,0.235,0.130
2182,0.210,0.125
2183,0.180,0.095
2184,0.145,0.075
2185,0.115,0.045
2186,0.085,0.025
2187,0.055,0.005
2188,0.030,0.000
2189,0.015,0.000
2190,0.000,0.000
2191,-0.005,-0.010
2192,-0.025,-0.025
2193,-0.040,-0.035
2194,-0.045,-0.040
2195,-0.045,-0.035
2196,-0.045,-0.035
2197,-0.040,-0.030
2198,-0.035,-0.030
2199,-0.025,-0.025
2200,-0.005,-0.020
2201,0.005,-0.015
2202,0.015,-0.020
2203,0.015,-0.050
2204,0.005,-0.070
2205,0.000,-0.070
2206,-0.020,-0.050
2207,-0.050,-0.050
2208,-0.075,-0.050
2209,-0.105,-0.050
2210,-0.125,-0.035
2211,-0.135,-0.030
2212,-0.135,-0.030
2213,-0.135,-0.040
2214,-0.155,-0.045
2215,-0.200,-0.065
2216,-0.205,0.000
2217,-0.060,0.135
2218,0.255,0.300
2219,0.575,0.380
2220,0.615,0.385
2221,0.380,-0.225
2222,0.120,-0.815
2223,-0.025,-0.615
2224,-0.085,-0.310
2225,-0.125,-0.120
2226,-0.155,-0.035
2227,-0.170,0.000
2228,-0.175,0.000
2229,-0.170,0.005
2230,-0.155,0.005
2231,-0.150,0.010
2232,-0.140,0.015
2233,-0.130,0.015
2234,-0.115,0.015
2235,-0.100,0.025
2236,-0.080,0.025
2237,-0.060,0.025
2238,-0.040,0.030
2239,-0.025,0.025
2240,-0.010,0.030
2241,0.005,0.045
2242,0.025,0.060
2243,0.060,0.075
2244,0.100,0.100
2245,0.150,0.130
2246,0.200,0.150
2247,0.250,0.175
2248,0.285,0.185
2249,0.310,0.185
2250,0.305,0.170
2251,0.290,0.160
2252,0.265,0.130
2253,0.235,0.105
2254,0.195,0.085
2255,0.150,0.075
2256,0.120,0.035
2257,0.090,0.030
2258,0.060,0.000
2259,0.035,0.000
2260,0.015,-0.010
2261,0.005,-0.015
2262,0.000,-0.025
2263,-0.020,-0.030
2264,-0.030,-0.040
2265,-0.045,-0.030
2266,-0.045,-0.030
2267,-0.040,-0.030
2268,-0.030,-0.030
2269,-0.020,-0.030
2270,0.000,-0.030
2271,0.010,-0.025
2272,0.015,-0.025
2273,0.015,-0.050
2274,0.015,-0.070
2275,0.010,-0.065
2276,0.000,-0.050
2277,-0.030,-0.050
2278,-0.065,-0.060
2279,-0.095,-0.060
2280,-0.120,-0.040
2281,-0.135,-0.030
2282,-0.140,-0.025
2283,-0.140,-0.025
2284,-0.150,-0.050
2285,-0.180,-0.060
2286,-0.185,-0.005
2287,-0.070,0.120
2288,0.190,0.275
2289,0.475,0.375
2290,0.560,0.320
2291,0.395,-0.070
2292,0.155,-0.735
2293,0.000,-0.705
2294,-0.065,-0.380
2295,-0.110,-0.150
2296,-0.140,-0.045
2297,-0.160,0.000
2298,-0.170,0.000
2299,-0.165,0.000
2300,-0.160,0.000
2301,-0.145,0.000
2302,-0.140,0.005
2303,-0.130,0.010
2304,-0.115,0.030
2305,-0.090,0.025
2306,-0.070,0.015
2307,-0.050,0.010
2308,-0.030,0.020
2309,-0.020,0.020
2310,0.000,0.030
2311,0.015,0.035
2312,0.035,0.055
2313,0.065,0.075
2314,0.110,0.105
2315,0.165,0.120
2316,0.220,0.145
2317,0.270,0.165
2318,0.305,0.185
2319,0.320,0.185
2320,0.315,0.175
2321,0.305,0.150
2322,0.280,0.130
2323,0.250,0.105
2324,0.215,0.070
2325,0.180,0.050
2326,0.145,0.040
2327,0.115,0.020
2328,0.085,0.000
2329,0.055,0.000
2330,0.025,0.000
2331,0.015,0.000
2332,0.005,-0.010
2333,0.000,-0.020
2334,-0.015,-0.020
2335,-0.015,-0.025
2336,-0.010,-0.025
2337,0.000,-0.030
2338,0.000,-0.030
2339,0.005,-0.025
2340,0.025,-0.020
2341,0.050,-0.020
2342,0.070,-0.020
2343,0.075,-0.045
2344,0.080,-0.060
2345,0.075,-0.075
2346,0.055,-0.060
2347,0.030,-0.055
2348,0.005,-0.065
2349,-0.015,-0.070
2350,-0.050,-0.060
2351,-0.070,-0.030
2352,-0.075,-0.045
2353,-0.080,-0.030
2354,-0.080,-0.050
2355,-0.100,-0.065
2356,-0.130,-0.030
2357,-0.070,0.050
2358,0.145,0.180
2359,0.450,0.305
2360,0.610,0.315
2361,0.525,0.085
2362,0.295,-0.540
2363,0.105,-0.800
2364,0.005,-0.565
2365,-0.050,-0.265
2366,-0.095,-0.090
2367,-0.130,-0.015
2368,-0.145,0.000
2369,-0.145,0.000
2370,-0.145,0.005
2371,-0.145,0.015
2372,-0.140,0.015
2373,-0.135,0.015
2374,-0.120,0.025
2375,-0.100,0.015
2376,-0.085,0.010
2377,-0.065,0.025
2378,-0.040,0.030
2379,-0.015,0.030
2380,0.000,0.025
2381,0.020,0.035
2382,0.045,0.045
2383,0.075,0.070
2384,0.120,0.085
2385,0.160,0.090
2386,0.205,0.115
2387,0.260,0.145
2388,0.310,0.165
2389,0.340,0.165
2390,0.355,0.135
2391,0.360,0.115
2392,0.365,0.065
2393,0.370,0.025
2394,0.355,0.000
2395,0.315,0.000
2396,0.255,0.000
2397,0.185,0.000
2398,0.120,0.000
2399,0.075,0.000
2400,0.045,0.000
2401,0.010,-0.015
2402,-0.015,-0.015
2403,-0.040,-0.015
2404,-0.055,-0.020
2405,-0.055,-0.020
2406,-0.010,-0.020
2407,0.120,0.015
2408,0.345,0.130
2409,0.610,0.245
2410,0.800,0.265
2411,0.820,0.125
2412,0.630,-0.310
2413,0.355,-0.885
2414,0.170,-1.040
2415,0.055,-0.690
2416,-0.055,-0.310
2417,-0.165,-0.070
2418,-0.220,-0.005
2419,-0.240,0.005
2420,-0.240,0.015
2421,-0.240,0.025
2422,-0.235,0.025
2423,-0.220,0.025
2424,-0.205,0.025
2425,-0.190,0.025
2426,-0.175,0.025
2427,-0.155,0.025
2428,-0.135,0.035
2429,-0.115,0.045
2430,-0.090,0.060
2431,-0.060,0.080
2432,-0.030,0.105
2433,0.000,0.120
2434,0.040,0.155
2435,0.095,0.185
2436,0.145,0.220
2437,0.175,0.225
2438,0.185,0.210
2439,0.190,0.180
2440,0.170,0.150
2441,0.145,0.110
2442,0.110,0.070
2443,0.080,0.025
2444,0.045,0.005
2445,0.020,0.000
2446,0.000,0.000
2447,-0.015,-0.005
2448,-0.030,-0.010
2449,-0.050,-0.010
2450,-0.065,-0.015
2451,-0.080,-0.015
2452,-0.085,-0.010
2453,-0.085,-0.010
2454,-0.085,-0.010
2455,-0.085,-0.015
2456,-0.085,-0.020
2457,-0.085,-0.025
2458,-0.085,-0.025
2459,-0.085,-0.030
2460,-0.085,-0.030
2461,-0.085,-0.030
2462,-0.090,-0.040
2463,-0.095,-0.045
2464,-0.095,-0.035
2465,-0.095,-0.040
2466,-0.100,-0.040
2467,-0.105,-0.035
2468,-0.100,-0.030
2469,-0.095,-0.030
2470,-0.090,-0.030
2471,-0.085,-0.040
2472,-0.080,-0.045
2473,-0.070,-0.045
2474,-0.040,-0.030
2475,-0.020,-0.030
2476,-0.015,-0.030
2477,-0.005,-0.050
2478,-0.005,-0.065
2479,-0.015,-0.045
2480,-0.045,-0.030
2481,-0.075,-0.030
2482,-0.095,-0.030
2483,-0.120,-0.025
2484,-0.130,-0.025
2485,-0.135,-0.015
2486,-0.135,-0.015
2487,-0.140,-0.020
2488,-0.140,-0.020
2489,-0.110,0.035
2490,0.020,0.150
2491,0.310,0.260
2492,0.650,0.335
2493,0.810,0.290
2494,0.665,-0.015
2495,0.355,-0.525
2496,0.105,-0.705
2497,-0.035,-0.475
2498,-0.120,-0.240
2499,-0.180,-0.095
2500,-0.210,-0.020
2501,-0.225,0.000
2502,-0.225,0.005
2503,-0.215,0.015
2504,-0.205,0.020
2505,-0.190,0.020
2506,-0.175,0.020
2507,-0.160,0.025
2508,-0.140,0.020
2509,-0.130,0.025
2510,-0.110,0.025
2511,-0.085,0.030
2512,-0.070,0.030
2513,-0.045,0.035
2514,-0.025,0.035
2515,0.000,0.055
2516,0.015,0.070
2517,0.040,0.090
2518,0.075,0.100
2519,0.125,0.125
2520,0.175,0.135
2521,0.230,0.165
2522,0.275,0.175
2523,0.300,0.180
2524,0.305,0.175
2525,0.295,0.165
2526,0.280,0.140
2527,0.260,0.120
2528,0.240,0.095
2529,0.205,0.075
2530,0.175,0.055
2531,0.135,0.035
2532,0.105,0.020
2533,0.070,0.005
2534,0.040,0.000
2535,0.020,0.000
2536,0.000,0.000
2537,-0.010,-0.005
2538,-0.025,-0.015
2539,-0.035,-0.015
2540,-0.040,-0.020
2541,-0.035,-0.015
2542,-0.030,-0.025
2543,-0.025,-0.020
2544,-0.010,-0.010
2545,0.005,-0.005
2546,0.015,-0.015
2547,0.015,-0.025
2548,0.010,-0.045
2549,0.000,-0.045
2550,-0.015,-0.040
2551,-0.045,-0.025
2552,-0.085,-0.030
2553,-0.115,-0.025
2554,-0.145,-0.020
2555,-0.170,-0.015
2556,-0.185,-0.015
2557,-0.180,-0.010
2558,-0.175,-0.010
2559,-0.200,-0.025
2560,-0.245,-0.025
2561,-0.190,0.040
2562,0.040,0.190
2563,0.410,0.340
2564,0.640,0.365
2565,0.555,0.140
2566,0.295,-0.530
2567,0.055,-0.710
2568,-0.065,-0.460
2569,-0.135,-0.205
2570,-0.180,-0.065
2571,-0.200,-0.010
2572,-0.205,0.000
2573,-0.200,0.005
2574,-0.195,0.010
2575,-0.190,0.015
2576,-0.180,0.015
2577,-0.170,0.015
2578,-0.155,0.015
2579,-0.140,0.015
2580,-0.120,0.020
2581,-0.100,0.025
2582,-0.080,0.025
2583,-0.065,0.030
2584,-0.040,0.040
2585,-0.015,0.050
2586,0.000,0.050
2587,0.020,0.070
2588,0.050,0.095
2589,0.085,0.110
2590,0.120,0.130
2591,0.160,0.145
2592,0.200,0.160
2593,0.225,0.160
2594,0.235,0.155
2595,0.230,0.135
2596,0.215,0.130
2597,0.185,0.105
2598,0.160,0.085
2599,0.130,0.050
2600,0.100,0.040
2601,0.070,0.015
2602,0.040,0.005
2603,0.025,0.000
2604,0.015,0.000
2605,0.000,0.000
2606,-0.015,-0.010
2607,-0.030,-0.010
2608,-0.040,-0.025
2609,-0.055,-0.030
2610,-0.055,-0.030
2611,-0.040,-0.030
2612,-0.030,-0.030
2613,-0.015,-0.030
2614,0.000,-0.030
2615,0.010,-0.025
2616,0.015,-0.025
2617,0.015,-0.030
2618,0.015,-0.050
2619,0.010,-0.060
2620,0.000,-0.050
2621,-0.025,-0.040
2622,-0.060,-0.045
2623,-0.090,-0.050
2624,-0.115,-0.045
2625,-0.130,-0.035
2626,-0.145,-0.030
2627,-0.155,-0.030
2628,-0.155,-0.030
2629,-0.180,-0.045
2630,-0.205,-0.045
2631,-0.165,0.030
2632,0.020,0.170
2633,0.345,0.315
2634,0.615,0.385
2635,0.595,0.235
2636,0.345,-0.345
2637,0.085,-0.765
2638,-0.045,-0.520
2639,-0.105,-0.250
2640,-0.150,-0.080
2641,-0.185,0.000
2642,-0.195,0.000
2643,-0.190,0.005
2644,-0.180,0.010
2645,-0.165,0.005
2646,-0.160,0.005
2647,-0.150,0.020
2648,-0.130,0.015
2649,-0.115,0.015
2650,-0.100,0.015
2651,-0.080,0.015
2652,-0.060,0.015
2653,-0.040,0.025
2654,-0.025,0.035
2655,-0.010,0.040
2656,0.005,0.055
2657,0.030,0.070
2658,0.065,0.090
2659,0.110,0.110
2660,0.150,0.130
2661,0.195,0.145
2662,0.235,0.165
2663,0.265,0.175
2664,0.275,0.175
2665,0.275,0.160
2666,0.280,0.125
2667,0.285,0.090
2668,0.275,0.055
2669,0.255,0.015
2670,0.220,0.000
2671,0.165,0.000
2672,0.105,0.000
2673,0.060,0.000
2674,0.025,0.000
2675,0.000,0.000
2676,-0.025,0.000
2677,-0.055,0.000
2678,-0.075,-0.015
2679,-0.080,-0.015
2680,-0.060,-0.025
2681,0.000,-0.015
2682,0.140,0.065
2683,0.375,0.275
2684,0.615,0.485
2685,0.755,0.565
2686,0.680,0.335
2687,0.385,-0.375
2688,0.105,-1.115
2689,-0.035,-0.805
2690,-0.110,-0.405
2691,-0.180,-0.135
2692,-0.235,-0.020
2693,-0.255,0.000
2694,-0.260,0.010
2695,-0.255,0.000
2696,-0.245,0.005
2697,-0.235,0.000
2698,-0.215,0.000
2699,-0.195,0.005
2700,-0.175,0.005
2701,-0.160,0.005
2702,-0.145,0.020
2703,-0.135,0.035
2704,-0.110,0.045
2705,-0.080,0.065
2706,-0.050,0.085
2707,-0.020,0.110
2708,0.015,0.145
2709,0.070,0.195
2710,0.120,0.235
2711,0.155,0.260
2712,0.180,0.270
2713,0.195,0.255
2714,0.195,0.220
2715,0.175,0.175
2716,0.140,0.135
2717,0.105,0.105
2718,0.070,0.070
2719,0.040,0.035
2720,0.015,0.015
2721,-0.005,0.000
2722,-0.025,0.000
2723,-0.040,-0.015
2724,-0.055,-0.015
2725,-0.075,-0.025
2726,-0.085,-0.025
2727,-0.080,-0.030
2728,-0.080,-0.030
2729,-0.080,-0.025
2730,-0.085,-0.025
2731,-0.085,-0.025
2732,-0.085,-0.030
2733,-0.085,-0.045
2734,-0.090,-0.040
2735,-0.090,-0.040
2736,-0.090,-0.050
2737,-0.090,-0.055
2738,-0.090,-0.060
2739,-0.105,-0.050
2740,-0.110,-0.050
2741,-0.105,-0.050
2742,-0.095,-0.055
2743,-0.090,-0.055
2744,-0.090,-0.065
2745,-0.090,-0.060
2746,-0.090,-0.060
2747,-0.090,-0.055
2748,-0.075,-0.060
2749,-0.050,-0.060
2750,-0.025,-0.050
2751,-0.005,-0.055
2752,0.000,-0.075
2753,0.000,-0.085
2754,-0.015,-0.075
2755,-0.025,-0.070
2756,-0.045,-0.070
2757,-0.075,-0.060
2758,-0.105,-0.050
2759,-0.115,-0.045
2760,-0.125,-0.035
2761,-0.130,-0.030
2762,-0.125,-0.035
2763,-0.125,-0.050
2764,-0.105,-0.015
2765,-0.005,0.115
2766,0.250,0.275
2767,0.600,0.430
2768,0.810,0.480
2769,0.675,0.325
2770,0.340,-0.450
2771,0.070,-0.815
2772,-0.040,-0.510
2773,-0.105,-0.255
2774,-0.150,-0.115
2775,-0.170,-0.025
2776,-0.175,-0.010
2777,-0.180,0.000
2778,-0.180,0.000
2779,-0.180,0.000
2780,-0.180,0.000
2781,-0.170,0.010
2782,-0.155,0.015
2783,-0.135,0.015
2784,-0.105,0.015
2785,-0.080,0.005
2786,-0.060,0.010
2787,-0.040,0.015
2788,-0.015,0.025
2789,0.000,0.040
2790,0.015,0.045
2791,0.035,0.055
2792,0.070,0.075
2793,0.115,0.095
2794,0.165,0.120
2795,0.215,0.145
2796,0.270,0.170
2797,0.310,0.190
2798,0.335,0.200
2799,0.350,0.205
2800,0.350,0.190
2801,0.330,0.165
2802,0.305,0.140
2803,0.280,0.125
2804,0.245,0.100
2805,0.205,0.080
2806,0.160,0.050
2807,0.120,0.025
2808,0.080,0.000
2809,0.050,0.000
2810,0.025,-0.005
2811,0.010,-0.020
2812,0.000,-0.030
2813,-0.015,-0.030
2814,-0.035,-0.045
2815,-0.050,-0.045
2816,-0.050,-0.045
2817,-0.035,-0.030
2818,-0.030,-0.035
2819,-0.020,-0.045
2820,0.000,-0.030
2821,0.005,-0.030
2822,0.010,-0.030
2823,0.015,-0.055
2824,0.015,-0.075
2825,0.010,-0.080
2826,0.000,-0.060
2827,-0.025,-0.055
2828,-0.060,-0.060
2829,-0.095,-0.065
2830,-0.125,-0.055
2831,-0.140,-0.055
2832,-0.150,-0.050
2833,-0.160,-0.045
2834,-0.165,-0.055
2835,-0.190,-0.075
2836,-0.200,-0.035
2837,-0.105,0.080
2838,0.140,0.240
2839,0.445,0.360
2840,0.575,0.365
2841,0.445,0.000
2842,0.195,-0.625
2843,0.015,-0.745
2844,-0.065,-0.430
2845,-0.115,-0.185
2846,-0.140,-0.055
2847,-0.150,-0.010
2848,-0.155,0.000
2849,-0.165,0.000
2850,-0.170,0.000
2851,-0.165,0.005
2852,-0.145,0.010
2853,-0.130,0.000
2854,-0.120,0.010
2855,-0.110,0.015
2856,-0.095,0.015
2857,-0.075,0.020
2858,-0.055,0.025
2859,-0.035,0.030
2860,-0.020,0.035
2861,0.000,0.035
2862,0.020,0.045
2863,0.050,0.050
2864,0.080,0.085
2865,0.120,0.115
2866,0.175,0.145
2867,0.230,0.155
2868,0.275,0.175
2869,0.290,0.180
2870,0.295,0.175
2871,0.280,0.155
2872,0.255,0.135
2873,0.230,0.110
2874,0.190,0.080
2875,0.155,0.055
2876,0.120,0.030
2877,0.090,0.010
2878,0.055,0.000
2879,0.025,0.000
2880,0.010,0.000
2881,-0.005,-0.010
2882,-0.020,-0.025
2883,-0.040,-0.030
2884,-0.050,-0.030
2885,-0.050,-0.040
2886,-0.055,-0.040
2887,-0.060,-0.045
2888,-0.055,-0.045
2889,-0.040,-0.045
2890,-0.030,-0.040
2891,-0.015,-0.025
2892,0.000,-0.025
2893,0.015,-0.030
2894,0.015,-0.045
2895,0.015,-0.070
2896,0.010,-0.075
2897,0.000,-0.050
2898,-0.025,-0.060
2899,-0.060,-0.060
2900,-0.090,-0.065
2901,-0.120,-0.050
2902,-0.130,-0.050
2903,-0.140,-0.030
2904,-0.150,-0.030
2905,-0.155,-0.030
2906,-0.175,-0.075
2907,-0.200,-0.040
2908,-0.120,0.070
2909,0.130,0.225
2910,0.460,0.360
2911,0.620,0.385
2912,0.490,0.025
2913,0.235,-0.650
2914,0.045,-0.730
2915,-0.040,-0.440
2916,-0.100,-0.190
2917,-0.140,-0.065
2918,-0.160,-0.010
2919,-0.165,0.000
2920,-0.165,0.000
2921,-0.160,0.005
2922,-0.150,0.005
2923,-0.135,0.005
2924,-0.120,0.000
2925,-0.105,0.005
2926,-0.085,0.000
2927,-0.070,0.000
2928,-0.055,0.005
2929,-0.040,0.010
2930,-0.025,0.010
2931,0.000,0.020
2932,0.015,0.025
2933,0.035,0.040
2934,0.060,0.055
2935,0.105,0.090
2936,0.155,0.115
2937,0.205,0.140
2938,0.260,0.170
2939,0.305,0.205
2940,0.340,0.210
2941,0.355,0.200
2942,0.350,0.175
2943,0.330,0.155
2944,0.310,0.135
2945,0.275,0.110
2946,0.235,0.080
2947,0.200,0.055
2948,0.165,0.040
2949,0.135,0.005
2950,0.105,0.000
2951,0.075,0.000
2952,0.060,0.000
2953,0.040,-0.020
2954,0.020,-0.030
2955,0.010,-0.040
2956,0.005,-0.030
2957,0.005,-0.040
2958,0.005,-0.040
2959,0.010,-0.045
2960,0.015,-0.040
2961,0.015,-0.030
2962,0.025,-0.020
2963,0.045,-0.020
2964,0.060,-0.020
2965,0.065,-0.025
2966,0.060,-0.040
2967,0.045,-0.050
2968,0.020,-0.050
2969,0.000,-0.055
2970,-0.030,-0.070
2971,-0.065,-0.065
2972,-0.090,-0.050
2973,-0.105,-0.040
2974,-0.120,-0.035
2975,-0.120,-0.045
2976,-0.130,-0.040
2977,-0.140,-0.055
2978,-0.150,-0.045
2979,-0.100,0.025
2980,0.085,0.165
2981,0.380,0.330
2982,0.585,0.330
2983,0.535,0.155
2984,0.310,-0.505
2985,0.120,-0.930
2986,0.020,-0.615
2987,-0.045,-0.290
2988,-0.115,-0.095
2989,-0.155,-0.020
2990,-0.160,0.000
2991,-0.160,0.000
2992,-0.150,0.000
2993,-0.145,0.010
2994,-0.135,0.015
2995,-0.125,0.015
2996,-0.115,0.015
2997,-0.100,0.035
2998,-0.080,0.025
2999,-0.055,0.010
3000,-0.035,0.010
3001,-0.025,0.020
3002,-0.005,0.030
3003,0.010,0.050
3004,0.025,0.065
3005,0.050,0.075
3006,0.090,0.085
3007,0.135,0.110
3008,0.185,0.135
3009,0.235,0.145
3010,0.290,0.150
3011,0.320,0.140
3012,0.330,0.130
3013,0.320,0.115
3014,0.290,0.090
3015,0.265,0.070
3016,0.240,0.050
3017,0.205,0.035
3018,0.165,0.030
3019,0.130,0.015
3020,0.095,0.000
3021,0.070,0.000
3022,0.045,0.000
3023,0.020,-0.010
3024,0.000,-0.030
3025,-0.005,-0.030
3026,-0.020,-0.030
3027,-0.030,-0.030
3028,-0.030,-0.030
3029,-0.025,-0.030
3030,-0.025,-0.030
3031,-0.025,-0.030
3032,-0.015,-0.030
3033,0.000,-0.020
3034,0.015,-0.020
3035,0.020,-0.025
3036,0.025,-0.055
3037,0.030,-0.070
3038,0.020,-0.080
3039,0.000,-0.060
3040,-0.020,-0.055
3041,-0.055,-0.050
3042,-0.085,-0.050
3043,-0.105,-0.040
3044,-0.120,-0.030
3045,-0.130,-0.030
3046,-0.130,-0.030
3047,-0.130,-0.025
3048,-0.130,-0.010
3049,-0.110,0.040
3050,-0.015,0.140
3051,0.195,0.235
3052,0.450,0.210
3053,0.565,0.035
3054,0.460,-0.300
3055,0.255,-0.735
3056,0.095,-0.890
3057,0.000,-0.595
3058,-0.085,-0.260
3059,-0.155,-0.065
3060,-0.195,-0.005
3061,-0.210,0.005
3062,-0.205,0.020
3063,-0.200,0.035
3064,-0.195,0.035
3065,-0.185,0.040
3066,-0.160,0.040
3067,-0.140,0.040
3068,-0.130,0.035
3069,-0.115,0.035
3070,-0.090,0.035
3071,-0.070,0.040
3072,-0.050,0.040
3073,-0.025,0.035
3074,0.000,0.040
3075,0.015,0.050
3076,0.050,0.070
3077,0.090,0.085
3078,0.140,0.120
3079,0.200,0.135
3080,0.250,0.165
3081,0.295,0.175
3082,0.320,0.185
3083,0.325,0.175
3084,0.310,0.160
3085,0.290,0.135
3086,0.260,0.115
3087,0.230,0.090
3088,0.195,0.060
3089,0.155,0.035
3090,0.115,0.015
3091,0.085,0.005
3092,0.055,0.000
3093,0.025,0.000
3094,0.005,-0.005
3095,-0.005,-0.015
3096,-0.025,-0.025
3097,-0.035,-0.020
3098,-0.045,-0.020
3099,-0.050,-0.020
3100,-0.040,-0.015
3101,-0.035,-0.010
3102,-0.025,-0.010
3103,-0.010,-0.005
3104,0.000,0.000
3105,0.015,0.000
3106,0.015,-0.020
3107,0.010,-0.040
3108,0.005,-0.050
3109,-0.010,-0.040
3110,-0.040,-0.030
3111,-0.075,-0.045
3112,-0.110,-0.035
3113,-0.140,-0.030
3114,-0.165,-0.025
3115,-0.170,-0.025
3116,-0.175,-0.015
3117,-0.180,-0.020
3118,-0.200,-0.025
3119,-0.240,-0.030
3120,-0.210,0.035
3121,-0.020,0.155
3122,0.330,0.290
3123,0.620,0.300
3124,0.630,0.175
3125,0.400,-0.370
3126,0.135,-0.715
3127,-0.020,-0.565
3128,-0.110,-0.285
3129,-0.170,-0.100
3130,-0.205,-0.015
3131,-0.220,0.005
3132,-0.225,0.010
3133,-0.215,0.020
3134,-0.205,0.015
3135,-0.195,0.025
3136,-0.185,0.035
3137,-0.165,0.035
3138,-0.145,0.030
3139,-0.130,0.025
3140,-0.110,0.035
3141,-0.090,0.035
3142,-0.075,0.040
3143,-0.055,0.040
3144,-0.030,0.050
3145,-0.005,0.055
3146,0.010,0.075
3147,0.035,0.090
3148,0.070,0.105
3149,0.115,0.125
3150,0.155,0.150
3151,0.190,0.175
3152,0.220,0.180
3153,0.235,0.180
3154,0.230,0.170
3155,0.220,0.145
3156,0.200,0.125
3157,0.170,0.100
3158,0.140,0.070
3159,0.095,0.055
3160,0.065,0.035
3161,0.040,0.015
3162,0.020,0.000
3163,0.005,0.000
3164,-0.005,0.000
3165,-0.025,0.000
3166,-0.045,-0.010
3167,-0.050,-0.015
3168,-0.055,-0.020
3169,-0.050,-0.025
3170,-0.040,-0.025
3171,-0.035,-0.030
3172,-0.025,-0.030
3173,-0.010,-0.015
3174,0.000,-0.010
3175,0.010,-0.010
3176,0.015,-0.020
3177,0.015,-0.035
3178,0.005,-0.040
3179,0.000,-0.035
3180,-0.025,-0.030
3181,-0.055,-0.030
3182,-0.085,-0.030
3183,-0.115,-0.020
3184,-0.140,-0.015
3185,-0.150,-0.015
3186,-0.150,-0.010
3187,-0.150,-0.010
3188,-0.170,-0.035
3189,-0.215,-0.045
3190,-0.205,0.010
3191,-0.040,0.140
3192,0.280,0.285
3193,0.590,0.380
3194,0.635,0.285
3195,0.400,-0.235
3196,0.120,-0.770
3197,-0.035,-0.580
3198,-0.105,-0.285
3199,-0.160,-0.090
3200,-0.185,-0.005
3201,-0.190,0.000
3202,-0.195,0.005
3203,-0.200,0.010
3204,-0.195,0.015
3205,-0.180,0.020
3206,-0.165,0.020
3207,-0.150,0.020
3208,-0.135,0.020
3209,-0.120,0.025
3210,-0.100,0.030
3211,-0.085,0.035
3212,-0.065,0.035
3213,-0.045,0.035
3214,-0.025,0.050
3215,-0.005,0.060
3216,0.015,0.080
3217,0.045,0.095
3218,0.085,0.110
3219,0.130,0.130
3220,0.170,0.150
3221,0.215,0.170
3222,0.250,0.170
3223,0.280,0.155
3224,0.305,0.130
3225,0.320,0.100
3226,0.310,0.065
3227,0.275,0.035
3228,0.220,0.010
3229,0.165,0.005
3230,0.110,0.015
3231,0.060,0.020
3232,0.025,0.015
3233,0.000,0.000
3234,-0.020,0.000
3235,-0.045,0.000
3236,-0.070,0.000
3237,-0.070,-0.015
3238,-0.025,-0.015
3239,0.090,0.015
3240,0.310,0.195
3241,0.570,0.400
3242,0.770,0.585
3243,0.795,0.475
3244,0.570,-0.005
3245,0.235,-0.980
3246,0.025,-0.930
3247,-0.085,-0.535
3248,-0.175,-0.190
3249,-0.235,-0.045
3250,-0.260,-0.005
3251,-0.265,0.000
3252,-0.265,0.000
3253,-0.265,0.010
3254,-0.255,0.015
3255,-0.240,0.015
3256,-0.225,0.015
3257,-0.210,0.010
3258,-0.190,0.015
3259,-0.170,0.030
3260,-0.155,0.035
3261,-0.135,0.045
3262,-0.110,0.060
3263,-0.075,0.080
3264,-0.040,0.105
3265,-0.005,0.135
3266,0.030,0.175
3267,0.070,0.210
3268,0.105,0.235
3269,0.130,0.230
3270,0.140,0.210
3271,0.140,0.175
3272,0.125,0.140
3273,0.100,0.105
3274,0.065,0.070
3275,0.030,0.035
3276,0.010,0.010
3277,0.000,0.000
3278,-0.020,0.000
3279,-0.040,0.000
3280,-0.060,-0.005
3281,-0.070,-0.005
3282,-0.070,-0.020
3283,-0.075,-0.015
3284,-0.080,-0.015
3285,-0.085,-0.010
3286,-0.085,-0.010
3287,-0.090,-0.010
3288,-0.095,-0.015
3289,-0.095,-0.020
3290,-0.090,-0.025
3291,-0.090,-0.030
3292,-0.095,-0.030
3293,-0.100,-0.030
3294,-0.100,-0.040
3295,-0.095,-0.045
3296,-0.095,-0.045
3297,-0.105,-0.035
3298,-0.105,-0.040
3299,-0.100,-0.045
3300,-0.100,-0.050
3301,-0.105,-0.050
3302,-0.100,-0.050
3303,-0.095,-0.045
3304,-0.090,-0.045
3305,-0.085,-0.060
3306,-0.075,-0.070
3307,-0.060,-0.060
3308,-0.035,-0.040
3309,-0.015,-0.030
3310,-0.005,-0.050
3311,0.000,-0.070
3312,0.000,-0.070
3313,-0.015,-0.050
3314,-0.045,-0.045
3315,-0.075,-0.045
3316,-0.090,-0.055
3317,-0.100,-0.030
3318,-0.115,-0.030
3319,-0.130,-0.030
3320,-0.135,-0.030
3321,-0.135,-0.030
3322,-0.125,-0.020
3323,-0.055,0.070
3324,0.145,0.230
3325,0.500,0.385
3326,0.810,0.495
3327,0.790,0.430
3328,0.465,-0.235
3329,0.160,-0.805
3330,0.005,-0.570
3331,-0.070,-0.305
3332,-0.125,-0.140
3333,-0.165,-0.045
3334,-0.180,0.000
3335,-0.185,0.000
3336,-0.185,0.000
3337,-0.175,0.000
3338,-0.170,0.010
3339,-0.155,0.015
3340,-0.140,0.015
3341,-0.120,0.015
3342,-0.100,0.020
3343,-0.085,0.015
3344,-0.070,0.015
3345,-0.055,0.015
3346,-0.040,0.030
3347,-0.020,0.040
3348,0.000,0.050
3349,0.020,0.065
3350,0.050,0.075
3351,0.090,0.090
3352,0.140,0.110
3353,0.190,0.135
3354,0.240,0.160
3355,0.285,0.185
3356,0.315,0.195
3357,0.335,0.200
3358,0.345,0.195
3359,0.335,0.175
3360,0.315,0.155
3361,0.285,0.125
3362,0.245,0.100
3363,0.200,0.065
3364,0.175,0.055
3365,0.150,0.035
3366,0.120,0.000
3367,0.080,0.000
3368,0.045,0.000
3369,0.020,-0.010
3370,0.010,-0.025
3371,0.000,-0.025
3372,-0.015,-0.030
3373,-0.020,-0.045
3374,-0.030,-0.045
3375,-0.035,-0.045
3376,-0.035,-0.040
3377,-0.025,-0.045
3378,-0.010,-0.040
3379,0.005,-0.030
3380,0.020,-0.030
3381,0.020,-0.035
3382,0.020,-0.060
3383,0.015,-0.070
3384,0.000,-0.075
3385,-0.010,-0.065
3386,-0.035,-0.065
3387,-0.065,-0.070
3388,-0.100,-0.070
3389,-0.125,-0.055
3390,-0.140,-0.050
3391,-0.140,-0.040
3392,-0.140,-0.040
3393,-0.150,-0.055
3394,-0.180,-0.060
3395,-0.175,-0.005
3396,-0.035,0.115
3397,0.250,0.265
3398,0.545,0.375
3399,0.615,0.295
3400,0.415,-0.140
3401,0.155,-0.745
3402,-0.010,-0.665
3403,-0.080,-0.345
3404,-0.135,-0.135
3405,-0.170,-0.040
3406,-0.180,0.000
3407,-0.175,0.000
3408,-0.165,0.000
3409,-0.155,0.000
3410,-0.140,0.000
3411,-0.135,0.000
3412,-0.125,0.005
3413,-0.105,0.005
3414,-0.100,0.005
3415,-0.085,0.015
3416,-0.060,0.015
3417,-0.040,0.015
3418,-0.025,0.015
3419,0.000,0.025
3420,0.010,0.035
3421,0.030,0.060
3422,0.060,0.075
3423,0.100,0.095
3424,0.140,0.115
3425,0.190,0.140
3426,0.240,0.160
3427,0.270,0.175
3428,0.285,0.175
3429,0.285,0.170
3430,0.275,0.145
3431,0.255,0.120
3432,0.230,0.095
3433,0.195,0.060
3434,0.160,0.030
3435,0.125,0.010
3436,0.095,0.000
3437,0.065,0.000
3438,0.040,0.000
3439,0.025,-0.015
3440,0.015,-0.025
3441,0.005,-0.035
3442,0.000,-0.050
3443,-0.005,-0.050
3444,-0.015,-0.045
3445,-0.015,-0.035
3446,-0.010,-0.040
3447,0.000,-0.040
3448,0.010,-0.045
3449,0.020,-0.035
3450,0.035,-0.025
3451,0.060,-0.015
3452,0.070,-0.015
3453,0.070,-0.025
3454,0.065,-0.070
3455,0.060,-0.065
3456,0.050,-0.055
3457,0.025,-0.055
3458,0.000,-0.065
3459,-0.030,-0.065
3460,-0.040,-0.050
3461,-0.050,-0.050
3462,-0.065,-0.050
3463,-0.075,-0.040
3464,-0.090,-0.050
3465,-0.125,-0.075
3466,-0.135,-0.035
3467,-0.015,0.080
3468,0.255,0.255
3469,0.535,0.350
3470,0.615,0.355
3471,0.465,-0.115
3472,0.240,-0.720
3473,0.070,-0.750
3474,-0.015,-0.440
3475,-0.075,-0.190
3476,-0.125,-0.050
3477,-0.150,0.000
3478,-0.155,0.000
3479,-0.155,0.000
3480,-0.150,0.005
3481,-0.140,0.015
3482,-0.135,0.015
3483,-0.120,0.015
3484,-0.100,0.015
3485,-0.085,0.015
3486,-0.075,0.015
3487,-0.055,0.015
3488,-0.040,0.020
3489,-0.015,0.030
3490,0.000,0.050
3491,0.015,0.055
3492,0.045,0.075
3493,0.085,0.070
3494,0.130,0.090
3495,0.180,0.095
3496,0.235,0.125
3497,0.295,0.135
3498,0.330,0.150
3499,0.340,0.140
3500,0.345,0.140
3501,0.330,0.125
3502,0.305,0.100
3503,0.275,0.060
3504,0.240,0.040
3505,0.200,0.015
3506,0.160,0.005
3507,0.125,0.000
3508,0.095,0.000
3509,0.070,0.000
3510,0.045,-0.010
3511,0.025,-0.025
3512,0.005,-0.030
3513,0.005,-0.035
3514,0.000,-0.045
3515,-0.020,-0.035
3516,-0.030,-0.030
3517,-0.025,-0.030
3518,-0.010,-0.030
3519,0.000,-0.030
3520,0.010,-0.025
3521,0.020,-0.020
3522,0.030,-0.020
3523,0.040,-0.025
3524,0.040,-0.040
3525,0.035,-0.050
3526,0.025,-0.045
3527,0.005,-0.040
3528,0.000,-0.035
3529,0.010,-0.030
3530,0.065,-0.005
3531,0.205,-0.005
3532,0.415,0.000
3533,0.620,-0.005
3534,0.775,-0.090
3535,0.990,-0.330
3536,1.295,-0.770
3537,1.455,-1.180
3538,1.455,-1.485
3539,1.455,-1.600
3540,1.450,-1.640
3541,1.445,-1.490
3542,0.900,-0.965
3543,0.200,-0.750
3544,-0.235,-0.360
3545,-0.480,-0.030
3546,-0.615,0.155
3547,-0.675,0.250
3548,-0.700,0.290
3549,-0.710,0.315
3550,-0.725,0.325
3551,-0.745,0.340
3552,-0.755,0.345
3553,-0.770,0.360
3554,-0.800,0.375
3555,-0.840,0.390
3556,-0.890,0.415
3557,-0.940,0.450
3558,-1.000,0.500
3559,-1.070,0.560
3560,-1.135,0.625
3561,-1.195,0.695
3562,-1.240,0.765
3563,-1.265,0.830
3564,-1.270,0.885
3565,-1.240,0.920
3566,-1.185,0.930
3567,-1.095,0.915
3568,-0.975,0.860
3569,-0.835,0.775
3570,-0.695,0.675
3571,-0.550,0.565
3572,-0.410,0.450
3573,-0.290,0.340
3574,-0.190,0.240
3575,-0.100,0.155
3576,-0.035,0.080
3577,0.005,0.025
3578,0.045,0.000
3579,0.070,-0.025
3580,0.085,-0.055
3581,0.095,-0.070
3582,0.090,-0.075
3583,0.085,-0.075
3584,0.085,-0.085
3585,0.085,-0.085
3586,0.085,-0.085
3587,0.095,-0.085
3588,0.105,-0.085
3589,0.110,-0.085
3590,0.125,-0.085
3591,0.155,-0.090
3592,0.175,-0.090
3593,0.180,-0.100
3594,0.185,-0.110
3595,0.185,-0.115
3596,0.170,-0.115
3597,0.145,-0.115
3598,0.110,-0.105
3599,0.075,-0.110
3600,0.045,-0.110
3601,0.025,-0.105
3602,0.020,-0.105
3603,0.015,-0.105
3604,0.015,-0.095
3605,0.005,-0.100
3606,-0.015,-0.075
3607,-0.010,0.000
3608,0.120,0.095
3609,0.395,0.205
3610,0.685,0.205
3611,0.770,0.035
3612,0.610,-0.345
3613,0.355,-0.800
3614,0.175,-0.775
3615,0.070,-0.450
3616,0.005,-0.210
3617,-0.035,-0.090
3618,-0.060,-0.045
3619,-0.070,-0.020
3620,-0.070,-0.010
3621,-0.065,0.000
3622,-0.055,0.000
3623,-0.040,0.000
3624,-0.030,0.000
3625,-0.020,0.000
3626,-0.010,0.000
3627,0.000,0.000
3628,0.010,0.000
3629,0.020,0.000
3630,0.035,0.000
3631,0.065,0.000
3632,0.100,0.000
3633,0.130,0.010
3634,0.160,0.025
3635,0.210,0.040
3636,0.275,0.060
3637,0.335,0.080
3638,0.395,0.095
3639,0.430,0.115
3640,0.455,0.125
3641,0.455,0.115
3642,0.435,0.095
3643,0.410,0.075
3644,0.370,0.055
3645,0.325,0.030
3646,0.280,0.010
3647,0.235,0.000
3648,0.195,0.000
3649,0.155,0.000
3650,0.115,-0.005
3651,0.080,-0.015
3652,0.050,-0.025
3653,0.030,-0.035
3654,0.015,-0.040
3655,0.015,-0.050
3656,0.015,-0.050
3657,0.015,-0.045
3658,0.015,-0.040
3659,0.015,-0.050
3660,0.025,-0.035
3661,0.045,-0.030
3662,0.060,-0.030
3663,0.065,-0.030
3664,0.060,-0.050
3665,0.055,-0.070
3666,0.035,-0.060
3667,0.010,-0.045
3668,-0.010,-0.050
3669,-0.050,-0.045
3670,-0.075,-0.045
3671,-0.100,-0.035
3672,-0.115,-0.035
3673,-0.120,-0.030
3674,-0.125,-0.030
3675,-0.145,-0.030
3676,-0.190,-0.060
3677,-0.205,-0.005
3678,-0.080,0.100
3679,0.210,0.250
3680,0.540,0.335
3681,0.655,0.290
3682,0.490,-0.160
3683,0.225,-0.680
3684,0.040,-0.675
3685,-0.055,-0.390
3686,-0.115,-0.170
3687,-0.155,-0.045
3688,-0.175,0.000
3689,-0.175,0.000
3690,-0.170,0.000
3691,-0.165,0.005
3692,-0.160,0.010
3693,-0.145,0.015
3694,-0.135,0.015
3695,-0.120,0.010
3696,-0.105,0.010
3697,-0.085,0.015
3698,-0.065,0.015
3699,-0.045,0.015
3700,-0.025,0.020
3701,-0.005,0.035
3702,0.010,0.040
3703,0.035,0.055
3704,0.065,0.070
3705,0.105,0.095
3706,0.155,0.110
3707,0.195,0.135
3708,0.235,0.145
3709,0.270,0.170
3710,0.285,0.175
3711,0.280,0.170
3712,0.260,0.145
3713,0.240,0.125
3714,0.210,0.090
3715,0.165,0.070
3716,0.125,0.045
3717,0.095,0.015
3718,0.060,0.010
3719,0.030,0.000
3720,0.015,0.000
3721,0.000,0.000
3722,-0.015,-0.005
3723,-0.030,-0.020
3724,-0.040,-0.030
3725,-0.050,-0.035
3726,-0.050,-0.030
3727,-0.040,-0.035
3728,-0.025,-0.045
3729,-0.015,-0.045
3730,0.000,-0.035
3731,0.010,-0.025
3732,0.015,-0.015
3733,0.015,-0.020
3734,0.015,-0.040
3735,0.015,-0.060
3736,0.000,-0.050
3737,-0.015,-0.040
3738,-0.040,-0.050
3739,-0.070,-0.050
3740,-0.110,-0.040
3741,-0.130,-0.030
3742,-0.140,-0.025
3743,-0.145,-0.020
3744,-0.145,-0.020
3745,-0.155,-0.040
3746,-0.195,-0.060
3747,-0.205,-0.005
3748,-0.070,0.120
3749,0.230,0.270
3750,0.560,0.385
3751,0.645,0.325
3752,0.430,-0.150
3753,0.140,-0.790
3754,-0.025,-0.640
3755,-0.090,-0.335
3756,-0.130,-0.115
3757,-0.165,-0.025
3758,-0.180,0.000
3759,-0.185,0.000
3760,-0.190,0.010
3761,-0.175,0.005
3762,-0.155,0.005
3763,-0.145,0.005
3764,-0.135,0.010
3765,-0.115,0.005
3766,-0.100,0.010
3767,-0.085,0.015
3768,-0.075,0.015
3769,-0.065,0.015
3770,-0.040,0.025
3771,-0.010,0.035
3772,0.000,0.045
3773,0.020,0.060
3774,0.055,0.080
3775,0.095,0.105
3776,0.145,0.125
3777,0.190,0.140
3778,0.230,0.160
3779,0.265,0.170
3780,0.285,0.170
3781,0.280,0.160
3782,0.265,0.145
3783,0.240,0.125
3784,0.210,0.110
3785,0.170,0.075
3786,0.135,0.050
3787,0.095,0.035
3788,0.060,0.015
3789,0.030,0.000
3790,0.010,0.000
3791,0.000,0.000
3792,-0.015,-0.010
3793,-0.025,-0.020
3794,-0.040,-0.025
3795,-0.045,-0.030
3796,-0.050,-0.030
3797,-0.045,-0.035
3798,-0.035,-0.035
3799,-0.020,-0.040
3800,-0.005,-0.030
3801,0.000,-0.015
3802,0.015,-0.015
3803,0.025,-0.020
3804,0.055,-0.050
3805,0.115,-0.050
3806,0.225,0.000
3807,0.405,0.070
3808,0.635,0.120
3809,0.840,0.115
3810,1.015,-0.035
3811,1.205,-0.420
3812,1.385,-0.900
3813,1.450,-1.235
3814,1.455,-1.475
3815,1.455,-1.625
3816,1.455,-1.665
3817,1.455,-1.665
3818,1.440,-1.665
3819,1.230,-1.540
3820,0.695,-1.255
3821,0.050,-0.750
3822,-0.435,-0.160
3823,-0.705,0.185
3824,-0.825,0.345
3825,-0.875,0.405
3826,-0.895,0.430
3827,-0.910,0.445
3828,-0.930,0.465
3829,-0.955,0.490
3830,-0.990,0.510
3831,-1.025,0.545
3832,-1.070,0.575
3833,-1.120,0.640
3834,-1.180,0.695
3835,-1.250,0.780
3836,-1.320,0.860
3837,-1.385,0.965
3838,-1.435,1.065
3839,-1.455,1.165
3840,-1.455,1.240
3841,-1.455,1.320
3842,-1.425,1.350
3843,-1.355,1.355
3844,-1.270,1.340
3845,-1.160,1.285
3846,-1.030,1.180
3847,-0.895,1.035
3848,-0.760,0.900
3849,-0.625,0.760
3850,-0.500,0.615
3851,-0.385,0.465
3852,-0.280,0.340
3853,-0.190,0.230
3854,-0.115,0.140
3855,-0.055,0.065
3856,-0.010,0.020
3857,0.020,-0.015
3858,0.050,-0.045
3859,0.065,-0.075
3860,0.075,-0.090
3861,0.085,-0.095
3862,0.090,-0.105
3863,0.100,-0.105
3864,0.105,-0.105
3865,0.105,-0.105
3866,0.110,-0.110
3867,0.115,-0.120
3868,0.120,-0.130
3869,0.130,-0.135
3870,0.145,-0.125
3871,0.175,-0.120
3872,0.195,-0.120
3873,0.200,-0.145
3874,0.205,-0.180
3875,0.200,-0.180
3876,0.190,-0.155
3877,0.155,-0.155
3878,0.120,-0.155
3879,0.090,-0.150
3880,0.055,-0.140
3881,0.035,-0.140
3882,0.030,-0.135
3883,0.025,-0.130
3884,0.020,-0.125
3885,0.005,-0.145
3886,-0.020,-0.115
3887,0.015,-0.005
3888,0.230,0.145
3889,0.575,0.280
3890,0.820,0.275
3891,0.765,0.090
3892,0.510,-0.580
3893,0.270,-0.860
3894,0.125,-0.625
3895,0.045,-0.345
3896,0.005,-0.170
3897,-0.020,-0.110
3898,-0.030,-0.085
3899,-0.025,-0.070
3900,-0.025,-0.070
3901,-0.020,-0.070
3902,-0.010,-0.055
3903,0.000,-0.040
3904,0.005,-0.045
3905,0.015,-0.040
3906,0.025,-0.030
3907,0.040,-0.030
3908,0.060,-0.030
3909,0.075,-0.030
3910,0.090,-0.025
3911,0.115,-0.015
3912,0.135,-0.005
3913,0.170,0.000
3914,0.215,0.000
3915,0.275,0.000
3916,0.340,0.020
3917,0.405,0.040
3918,0.465,0.060
3919,0.510,0.070
3920,0.535,0.065
3921,0.550,0.045
3922,0.545,0.030
3923,0.505,0.000
3924,0.445,0.000
3925,0.370,0.000
3926,0.305,0.000
3927,0.235,0.000
3928,0.175,0.000
3929,0.120,0.000
3930,0.070,0.000
3931,0.030,-0.005
3932,0.015,-0.020
3933,0.005,-0.030
3934,0.015,-0.050
3935,0.085,-0.010
3936,0.255,0.135
3937,0.475,0.340
3938,0.685,0.510
3939,0.780,0.495
3940,0.655,0.155
3941,0.375,-0.660
3942,0.135,-0.985
3943,-0.005,-0.700
3944,-0.100,-0.330
3945,-0.165,-0.125
3946,-0.200,-0.055
3947,-0.215,-0.020
3948,-0.215,0.000
3949,-0.210,0.000
3950,-0.200,-0.005
3951,-0.190,-0.005
3952,-0.185,0.000
3953,-0.180,0.000
3954,-0.165,0.000
3955,-0.145,0.000
3956,-0.125,0.000
3957,-0.100,0.005
3958,-0.085,0.010
3959,-0.060,0.030
3960,-0.030,0.055
3961,-0.005,0.090
3962,0.020,0.120
3963,0.055,0.150
3964,0.090,0.175
3965,0.115,0.185
3966,0.120,0.140
3967,0.110,0.125
3968,0.100,0.090
3969,0.075,0.060
3970,0.060,0.010
3971,0.035,0.000
3972,0.015,0.000
3973,0.000,0.000
3974,-0.010,-0.005
3975,-0.020,-0.010
3976,-0.025,-0.015
3977,-0.030,-0.020
3978,-0.035,-0.025
3979,-0.040,-0.025
3980,-0.040,-0.015
3981,-0.045,-0.015
3982,-0.050,-0.015
3983,-0.045,-0.020
3984,-0.040,-0.030
3985,-0.045,-0.045
3986,-0.055,-0.045
3987,-0.060,-0.040
3988,-0.065,-0.030
3989,-0.065,-0.035
3990,-0.070,-0.045
3991,-0.075,-0.050
3992,-0.075,-0.055
3993,-0.070,-0.055
3994,-0.070,-0.060
3995,-0.075,-0.060
3996,-0.080,-0.070
3997,-0.080,-0.070
3998,-0.075,-0.065
3999,-0.065,-0.055
4000,-0.050,-0.060
4001,-0.040,-0.070
4002,-0.030,-0.065
4003,-0.010,-0.060
4004,0.005,-0.050
4005,0.015,-0.055
4006,0.015,-0.085
4007,0.020,-0.100
4008,0.020,-0.090
4009,0.005,-0.065
4010,-0.010,-0.065
4011,-0.030,-0.070
4012,-0.050,-0.070
4013,-0.060,-0.070
4014,-0.070,-0.060
4015,-0.075,-0.045
4016,-0.075,-0.030
4017,-0.065,-0.035
4018,-0.040,0.025
4019,0.070,0.170
4020,0.340,0.325
4021,0.675,0.480
4022,0.830,0.480
4023,0.680,0.135
4024,0.390,-0.565
4025,0.165,-0.745
4026,0.035,-0.480
4027,-0.030,-0.230
4028,-0.065,-0.090
4029,-0.085,-0.025
4030,-0.090,0.000
4031,-0.095,0.000
4032,-0.090,0.000
4033,-0.085,0.000
4034,-0.080,0.000
4035,-0.065,0.000
4036,-0.050,0.000
4037,-0.030,0.000
4038,-0.020,0.000
4039,-0.005,0.005
4040,0.000,0.005
4041,0.015,0.005
4042,0.025,0.015
4043,0.045,0.030
4044,0.075,0.030
4045,0.110,0.040
4046,0.140,0.065
4047,0.185,0.090
4048,0.245,0.120
4049,0.300,0.140
4050,0.345,0.160
4051,0.385,0.185
4052,0.405,0.190
4053,0.410,0.175
4054,0.410,0.155
4055,0.380,0.135
4056,0.330,0.125
4057,0.280,0.105
4058,0.235,0.080
4059,0.200,0.060
4060,0.160,0.035
4061,0.125,0.015
4062,0.095,0.000
4063,0.060,-0.005
4064,0.035,-0.020
4065,0.015,-0.025
4066,0.000,-0.035
4067,-0.005,-0.045
4068,-0.015,-0.050
4069,-0.020,-0.050
4070,-0.010,-0.055
4071,-0.005,-0.055
4072,0.000,-0.050
4073,0.005,-0.045
4074,0.025,-0.045
4075,0.035,-0.045
4076,0.040,-0.055
4077,0.050,-0.070
4078,0.050,-0.075
4079,0.040,-0.075
4080,0.010,-0.070
4081,-0.015,-0.070
4082,-0.050,-0.080
4083,-0.080,-0.090
4084,-0.105,-0.070
4085,-0.125,-0.045
4086,-0.135,-0.030
4087,-0.130,-0.025
4088,-0.130,-0.020
4089,-0.135,0.000
4090,-0.115,0.040
4091,0.015,0.135
4092,0.270,0.210
4093,0.520,0.165
4094,0.570,-0.025
4095,0.405,-0.380
4096,0.220,-0.905
4097,0.095,-0.815
4098,0.000,-0.425
4099,-0.085,-0.145
4100,-0.145,-0.030
4101,-0.175,0.000
4102,-0.190,0.025
4103,-0.195,0.045
4104,-0.190,0.045
4105,-0.180,0.040
4106,-0.165,0.040
4107,-0.150,0.040
4108,-0.135,0.035
4109,-0.110,0.030
4110,-0.090,0.030
4111,-0.065,0.030
4112,-0.040,0.035
4113,-0.020,0.035
4114,-0.005,0.035
4115,0.010,0.035
4116,0.035,0.040
4117,0.065,0.045
4118,0.100,0.060
4119,0.145,0.080
4120,0.190,0.095
4121,0.230,0.110
4122,0.270,0.120
4123,0.290,0.115
4124,0.290,0.095
4125,0.285,0.080
4126,0.265,0.060
4127,0.235,0.035
4128,0.200,0.020
4129,0.160,0.005
4130,0.125,0.000
4131,0.090,0.000
4132,0.065,0.000
4133,0.035,0.000
4134,0.015,-0.005
4135,0.000,-0.015
4136,0.000,-0.015
4137,-0.015,-0.015
4138,-0.025,-0.010
4139,-0.025,-0.010
4140,-0.025,-0.005
4141,-0.020,-0.010
4142,-0.010,-0.015
4143,0.000,-0.015
4144,0.015,0.000
4145,0.020,-0.010
4146,0.025,-0.020
4147,0.030,-0.040
4148,0.025,-0.045
4149,0.015,-0.045
4150,0.000,-0.035
4151,-0.025,-0.040
4152,-0.060,-0.030
4153,-0.090,-0.030
4154,-0.115,-0.030
4155,-0.130,-0.025
4156,-0.135,-0.020
4157,-0.135,-0.020
4158,-0.145,-0.025
4159,-0.170,-0.010
4160,-0.155,0.045
4161,0.000,0.145
4162,0.280,0.235
4163,0.545,0.235
4164,0.590,0.100
4165,0.405,-0.255
4166,0.175,-0.665
4167,0.020,-0.625
4168,-0.055,-0.340
4169,-0.120,-0.130
4170,-0.165,-0.025
4171,-0.185,0.000
4172,-0.195,0.005
4173,-0.195,0.015
4174,-0.190,0.020
4175,-0.180,0.020
4176,-0.165,0.030
4177,-0.145,0.015
4178,-0.130,0.015
4179,-0.120,0.015
4180,-0.100,0.015
4181,-0.085,0.015
4182,-0.070,0.015
4183,-0.040,0.020
4184,-0.010,0.030
4185,0.000,0.045
4186,0.025,0.050
4187,0.050,0.065
4188,0.085,0.085
4189,0.130,0.110
4190,0.175,0.125
4191,0.225,0.145
4192,0.260,0.150
4193,0.280,0.155
4194,0.285,0.140
4195,0.280,0.125
4196,0.270,0.095
4197,0.260,0.060
4198,0.245,0.025
4199,0.225,0.000
4200,0.190,-0.005
4201,0.145,-0.005
4202,0.095,0.000
4203,0.050,0.000
4204,0.015,0.000
4205,-0.010,0.000
4206,-0.035,0.000
4207,-0.060,0.000
4208,-0.080,0.000
4209,-0.085,0.000
4210,-0.070,0.000
4211,-0.020,0.000
4212,0.095,0.060
4213,0.300,0.215
4214,0.555,0.370
4215,0.755,0.445
4216,0.745,0.300
4217,0.490,-0.155
4218,0.170,-0.930
4219,-0.010,-0.830
4220,-0.095,-0.485
4221,-0.160,-0.180
4222,-0.215,-0.030
4223,-0.240,0.005
4224,-0.255,0.015
4225,-0.250,0.020
4226,-0.245,0.015
4227,-0.235,0.025
4228,-0.220,0.020
4229,-0.205,0.020
4230,-0.190,0.025
4231,-0.175,0.025
4232,-0.155,0.030
4233,-0.135,0.040
4234,-0.115,0.045
4235,-0.095,0.060
4236,-0.060,0.080
4237,-0.020,0.105
4238,0.010,0.130
4239,0.050,0.160
4240,0.105,0.200
4241,0.160,0.240
4242,0.190,0.260
4243,0.205,0.265
4244,0.200,0.250
4245,0.185,0.215
4246,0.155,0.180
4247,0.120,0.145
4248,0.080,0.110
4249,0.045,0.075
4250,0.020,0.045
4251,0.000,0.020
4252,-0.015,0.000
4253,-0.035,0.000
4254,-0.055,0.000
4255,-0.070,-0.005
4256,-0.085,-0.025
4257,-0.085,-0.030
4258,-0.090,-0.030
4259,-0.095,-0.030
4260,-0.095,-0.040
4261,-0.090,-0.035
4262,-0.090,-0.040
4263,-0.095,-0.035
4264,-0.100,-0.030
4265,-0.105,-0.030
4266,-0.110,-0.030
4267,-0.110,-0.030
4268,-0.110,-0.035
4269,-0.115,-0.045
4270,-0.115,-0.050
4271,-0.115,-0.050
4272,-0.115,-0.050
4273,-0.120,-0.050
4274,-0.115,-0.035
4275,-0.105,-0.030
4276,-0.095,-0.030
4277,-0.080,-0.045
4278,-0.050,-0.040
4279,-0.025,-0.030
4280,-0.010,-0.030
4281,0.000,-0.055
4282,0.000,-0.070
4283,-0.005,-0.060
4284,-0.030,-0.040
4285,-0.060,-0.040
4286,-0.085,-0.045
4287,-0.105,-0.035
4288,-0.125,-0.025
4289,-0.135,-0.025
4290,-0.135,-0.025
4291,-0.135,-0.020
4292,-0.135,-0.025
4293,-0.130,-0.010
4294,-0.065,0.080
4295,0.130,0.220
4296,0.475,0.365
4297,0.765,0.455
4298,0.765,0.320
4299,0.480,-0.165
4300,0.170,-0.700
4301,-0.005,-0.575
4302,-0.095,-0.305
4303,-0.155,-0.135
4304,-0.190,-0.035
4305,-0.200,0.000
4306,-0.200,0.000
4307,-0.195,0.000
4308,-0.185,0.005
4309,-0.165,0.005
4310,-0.155,0.010
4311,-0.150,0.015
4312,-0.140,0.015
4313,-0.115,0.015
4314,-0.090,0.015
4315,-0.075,0.015
4316,-0.055,0.015
4317,-0.035,0.015
4318,-0.015,0.030
4319,0.000,0.045
4320,0.015,0.055
4321,0.045,0.075
4322,0.080,0.085
4323,0.125,0.105
4324,0.180,0.125
4325,0.225,0.145
4326,0.265,0.165
4327,0.290,0.175
4328,0.310,0.175
4329,0.315,0.165
4330,0.300,0.145
4331,0.275,0.130
4332,0.240,0.110
4333,0.205,0.085
4334,0.165,0.065
4335,0.130,0.040
4336,0.095,0.025
4337,0.065,0.005
4338,0.035,0.000
4339,0.020,0.000
4340,0.005,0.000
4341,-0.005,-0.015
4342,-0.020,-0.025
4343,-0.030,-0.025
4344,-0.035,-0.030
4345,-0.030,-0.030
4346,-0.025,-0.050
4347,-0.015,-0.050
4348,-0.005,-0.045
4349,0.000,-0.025
4350,0.010,-0.025
4351,0.015,-0.035
4352,0.015,-0.060
4353,0.015,-0.065
4354,0.000,-0.065
4355,-0.020,-0.050
4356,-0.060,-0.060
4357,-0.095,-0.060
4358,-0.130,-0.060
4359,-0.145,-0.030
4360,-0.150,-0.030
4361,-0.150,-0.025
4362,-0.155,-0.015
4363,-0.175,-0.040
4364,-0.220,-0.060
4365,-0.210,0.000
4366,-0.065,0.120
4367,0.235,0.280
4368,0.525,0.365
4369,0.575,0.305
4370,0.375,-0.215
4371,0.125,-0.675
4372,-0.025,-0.595
4373,-0.105,-0.310
4374,-0.150,-0.125
4375,-0.180,-0.030
4376,-0.190,0.000
4377,-0.185,0.000
4378,-0.175,0.000
4379,-0.175,0.000
4380,-0.165,0.005
4381,-0.150,0.010
4382,-0.135,0.005
4383,-0.125,0.010
4384,-0.110,0.010
4385,-0.090,0.015
4386,-0.080,0.020
4387,-0.060,0.015
4388,-0.035,0.015
4389,-0.020,0.025
4390,0.000,0.050
4391,0.025,0.060
4392,0.060,0.080
4393,0.095,0.095
4394,0.135,0.125
4395,0.180,0.140
4396,0.215,0.165
4397,0.245,0.165
4398,0.260,0.160
4399,0.260,0.140
4400,0.245,0.135
4401,0.220,0.110
4402,0.190,0.095
4403,0.155,0.065
4404,0.115,0.045
4405,0.075,0.025
4406,0.045,0.015
4407,0.020,0.000
4408,0.005,0.000
4409,0.000,-0.005
4410,-0.010,-0.010
4411,-0.025,-0.015
4412,-0.030,-0.025
4413,-0.040,-0.035
4414,-0.055,-0.035
4415,-0.055,-0.035
4416,-0.040,-0.040
4417,-0.025,-0.045
4418,-0.010,-0.040
4419,0.000,-0.025
4420,0.010,-0.020
4421,0.015,-0.030
4422,0.015,-0.050
4423,0.015,-0.070
4424,0.010,-0.065
4425,-0.005,-0.050
4426,-0.030,-0.045
4427,-0.065,-0.050
4428,-0.100,-0.045
4429,-0.125,-0.040
4430,-0.140,-0.030
4431,-0.140,-0.025
4432,-0.140,-0.015
4433,-0.150,-0.025
4434,-0.190,-0.055
4435,-0.205,-0.015
4436,-0.105,0.100
4437,0.175,0.255
4438,0.520,0.385
4439,0.645,0.385
4440,0.455,-0.050
4441,0.180,-0.760
4442,0.010,-0.660
4443,-0.065,-0.360
4444,-0.110,-0.135
4445,-0.140,-0.035
4446,-0.150,0.000
4447,-0.155,0.000
4448,-0.170,0.000
4449,-0.175,0.000
4450,-0.160,0.005
4451,-0.145,0.010
4452,-0.130,0.015
4453,-0.115,0.025
4454,-0.100,0.020
4455,-0.090,0.020
4456,-0.070,0.015
4457,-0.045,0.020
4458,-0.020,0.025
4459,-0.005,0.030
4460,0.005,0.045
4461,0.030,0.065
4462,0.060,0.090
4463,0.100,0.105
4464,0.150,0.125
4465,0.200,0.140
4466,0.245,0.165
4467,0.280,0.180
4468,0.305,0.185
4469,0.310,0.175
4470,0.290,0.155
4471,0.265,0.135
4472,0.235,0.120
4473,0.200,0.105
4474,0.165,0.075
4475,0.125,0.055
4476,0.085,0.030
4477,0.050,0.005
4478,0.025,0.000
4479,0.010,0.000
4480,0.000,0.000
4481,-0.010,-0.010
4482,-0.025,-0.020
4483,-0.030,-0.025
4484,-0.035,-0.040
4485,-0.040,-0.030
4486,-0.030,-0.030
4487,-0.025,-0.030
4488,-0.020,-0.040
4489,-0.005,-0.025
4490,0.005,-0.025
4491,0.020,-0.015
4492,0.025,-0.035
4493,0.020,-0.060
4494,0.015,-0.070
4495,0.005,-0.055
4496,-0.010,-0.055
4497,-0.040,-0.060
4498,-0.075,-0.050
4499,-0.110,-0.040
4500,-0.130,-0.030
4501,-0.135,-0.030
4502,-0.135,-0.030
4503,-0.140,-0.045
4504,-0.175,-0.060
4505,-0.205,-0.030
4506,-0.145,0.070
4507,0.065,0.210
4508,0.375,0.330
4509,0.580,0.375
4510,0.520,0.145
4511,0.280,-0.485
4512,0.065,-0.790
4513,-0.040,-0.485
4514,-0.105,-0.215
4515,-0.145,-0.060
4516,-0.165,0.000
4517,-0.160,0.000
4518,-0.160,0.000
4519,-0.155,0.000
4520,-0.145,0.000
4521,-0.140,0.005
4522,-0.130,0.015
4523,-0.125,0.015
4524,-0.100,0.015
4525,-0.080,0.015
4526,-0.065,0.020
4527,-0.045,0.020
4528,-0.035,0.030
4529,-0.020,0.040
4530,0.000,0.060
4531,0.020,0.060
4532,0.045,0.080
4533,0.085,0.105
4534,0.130,0.125
4535,0.180,0.140
4536,0.235,0.170
4537,0.275,0.190
4538,0.295,0.200
4539,0.300,0.185
4540,0.290,0.170
4541,0.275,0.145
4542,0.250,0.125
4543,0.210,0.100
4544,0.165,0.080
4545,0.125,0.050
4546,0.095,0.025
4547,0.065,0.005
4548,0.035,0.000
4549,0.015,0.000
4550,0.000,-0.005
4551,-0.015,-0.020
4552,-0.025,-0.030
4553,-0.035,-0.040
4554,-0.050,-0.040
4555,-0.050,-0.040
4556,-0.040,-0.030
4557,-0.025,-0.035
4558,-0.020,-0.035
4559,-0.015,-0.040
4560,0.000,-0.025
4561,0.010,-0.015
4562,0.015,-0.015
4563,0.015,-0.040
4564,0.015,-0.065
4565,0.010,-0.055
4566,0.000,-0.040
4567,-0.020,-0.055
4568,-0.045,-0.060
4569,-0.075,-0.060
4570,-0.095,-0.035
4571,-0.115,-0.035
4572,-0.130,-0.035
4573,-0.135,-0.035
4574,-0.135,-0.050
4575,-0.165,-0.065
4576,-0.185,-0.010
4577,-0.080,0.120
4578,0.175,0.280
4579,0.460,0.365
4580,0.555,0.360
4581,0.410,-0.095
4582,0.180,-0.685
4583,0.025,-0.700
4584,-0.050,-0.395
4585,-0.100,-0.160
4586,-0.135,-0.045
4587,-0.150,-0.010
4588,-0.145,0.000
4589,-0.145,0.000
4590,-0.150,0.005
4591,-0.145,0.005
4592,-0.140,0.005
4593,-0.125,0.005
4594,-0.110,0.015
4595,-0.095,0.015
4596,-0.080,0.015
4597,-0.060,0.015
4598,-0.040,0.020
4599,-0.025,0.020
4600,-0.005,0.030
4601,0.005,0.035
4602,0.030,0.060
4603,0.060,0.090
4604,0.105,0.100
4605,0.155,0.135
4606,0.215,0.150
4607,0.270,0.175
4608,0.310,0.195
4609,0.345,0.185
4610,0.375,0.150
4611,0.390,0.125
4612,0.380,0.070
4613,0.335,0.045
4614,0.275,0.020
4615,0.215,0.015
4616,0.160,0.005
4617,0.115,0.000
4618,0.070,0.000
4619,0.025,0.000
4620,0.000,0.000
4621,-0.030,0.000
4622,-0.055,-0.005
4623,-0.065,-0.005
4624,-0.030,-0.010
4625,0.060,0.015
4626,0.235,0.170
4627,0.460,0.410
4628,0.660,0.595
4629,0.745,0.570
4630,0.620,0.170
4631,0.345,-0.590
4632,0.115,-0.990
4633,-0.005,-0.685
4634,-0.075,-0.335
4635,-0.140,-0.110
4636,-0.180,-0.025
4637,-0.190,0.000
4638,-0.185,0.000
4639,-0.180,0.000
4640,-0.180,0.000
4641,-0.175,0.000
4642,-0.165,0.000
4643,-0.145,0.000
4644,-0.125,0.000
4645,-0.100,0.000
4646,-0.085,0.005
4647,-0.070,0.030
4648,-0.050,0.045
4649,-0.025,0.065
4650,0.000,0.090
4651,0.020,0.120
4652,0.060,0.160
4653,0.100,0.200
4654,0.135,0.225
4655,0.160,0.230
4656,0.170,0.220
4657,0.170,0.180
4658,0.150,0.145
4659,0.125,0.105
4660,0.105,0.065
4661,0.065,0.040
4662,0.035,0.015
4663,0.015,0.000
4664,0.000,0.000
4665,-0.020,0.000
4666,-0.040,-0.005
4667,-0.050,-0.020
4668,-0.070,-0.020
4669,-0.080,-0.020
4670,-0.075,-0.025
4671,-0.075,-0.030
4672,-0.080,-0.025
4673,-0.070,-0.020
4674,-0.065,-0.035
4675,-0.065,-0.040
4676,-0.075,-0.025
4677,-0.075,-0.035
4678,-0.075,-0.060
4679,-0.080,-0.055
4680,-0.080,-0.035
4681,-0.075,-0.040
4682,-0.075,-0.055
4683,-0.080,-0.065
4684,-0.085,-0.050
4685,-0.085,-0.050
4686,-0.085,-0.055
4687,-0.080,-0.070
4688,-0.075,-0.070
4689,-0.070,-0.065
4690,-0.055,-0.050
4691,-0.045,-0.045
4692,-0.040,-0.045
4693,-0.020,-0.045
4694,0.000,-0.040
4695,0.020,-0.060
4696,0.025,-0.050
4697,0.025,-0.055
4698,0.030,-0.065
4699,0.010,-0.055
4700,-0.010,-0.050
4701,-0.045,-0.050
4702,-0.070,-0.045
4703,-0.090,-0.030
4704,-0.095,-0.030
4705,-0.100,-0.030
4706,-0.100,-0.030
4707,-0.095,-0.020
4708,-0.075,0.000
4709,-0.020,0.085
4710,0.125,0.180
4711,0.390,0.240
4712,0.670,0.185
4713,0.790,-0.005
4714,0.655,-0.330
4715,0.405,-0.750
4716,0.200,-0.890
4717,0.055,-0.610
4718,-0.050,-0.290
4719,-0.130,-0.100
4720,-0.175,-0.015
4721,-0.195,0.005
4722,-0.195,0.015
4723,-0.190,0.025
4724,-0.185,0.035
4725,-0.165,0.035
4726,-0.150,0.030
4727,-0.130,0.025
4728,-0.110,0.025
4729,-0.095,0.025
4730,-0.075,0.030
4731,-0.055,0.025
4732,-0.030,0.025
4733,-0.010,0.035
4734,0.000,0.040
4735,0.020,0.050
4736,0.040,0.055
4737,0.075,0.065
4738,0.125,0.085
4739,0.180,0.110
4740,0.235,0.120
4741,0.295,0.135
4742,0.340,0.140
4743,0.370,0.140
4744,0.380,0.130
4745,0.380,0.125
4746,0.360,0.105
4747,0.325,0.085
4748,0.290,0.055
4749,0.250,0.035
4750,0.210,0.020
4751,0.170,0.005
4752,0.130,0.000
4753,0.090,0.000
4754,0.055,-0.005
4755,0.030,-0.015
4756,0.015,-0.020
4757,0.000,-0.025
4758,-0.010,-0.030
4759,-0.020,-0.030
4760,-0.025,-0.030
4761,-0.025,-0.025
4762,-0.020,-0.025
4763,-0.010,-0.025
4764,0.000,-0.020
4765,0.005,-0.015
4766,0.015,-0.015
4767,0.015,-0.025
4768,0.015,-0.045
4769,0.010,-0.060
4770,0.005,-0.050
4771,-0.015,-0.035
4772,-0.055,-0.045
4773,-0.095,-0.045
4774,-0.130,-0.035
4775,-0.155,-0.020
4776,-0.175,-0.015
4777,-0.180,-0.015
4778,-0.180,-0.015
4779,-0.190,-0.015
4780,-0.225,-0.015
4781,-0.230,0.035
4782,-0.080,0.160
4783,0.230,0.275
4784,0.545,0.290
4785,0.615,0.180
4786,0.425,-0.265
4787,0.170,-0.715
4788,0.000,-0.625
4789,-0.090,-0.350
4790,-0.155,-0.135
4791,-0.190,-0.030
4792,-0.210,0.000
4793,-0.215,0.000
4794,-0.215,0.005
4795,-0.205,0.015
4796,-0.200,0.015
4797,-0.190,0.015
4798,-0.180,0.015
4799,-0.160,0.015
4800,-0.145,0.015
4801,-0.130,0.015
4802,-0.110,0.015
4803,-0.090,0.025
4804,-0.065,0.025
4805,-0.040,0.035
4806,-0.015,0.045
4807,0.005,0.060
4808,0.025,0.075
4809,0.055,0.095
4810,0.090,0.120
4811,0.130,0.135
4812,0.165,0.150
4813,0.190,0.160
4814,0.215,0.165
4815,0.215,0.150
4816,0.200,0.135
4817,0.180,0.120
4818,0.155,0.100
4819,0.125,0.070
4820,0.095,0.045
4821,0.060,0.020
4822,0.040,0.015
4823,0.020,0.005
4824,0.010,0.000
4825,0.000,0.000
4826,-0.015,0.000
4827,-0.030,0.000
4828,-0.045,0.000
4829,-0.055,-0.010
4830,-0.060,-0.015
4831,-0.055,-0.015
4832,-0.045,-0.015
4833,-0.035,-0.015
4834,-0.020,-0.015
4835,-0.005,0.000
4836,0.005,0.000
4837,0.015,-0.010
4838,0.015,-0.030
4839,0.010,-0.045
4840,0.000,-0.040
4841,-0.020,-0.030
4842,-0.050,-0.035
4843,-0.085,-0.035
4844,-0.115,-0.030
4845,-0.135,-0.020
4846,-0.150,-0.015
4847,-0.150,-0.015
4848,-0.150,-0.005
4849,-0.160,-0.020
4850,-0.200,-0.030
4851,-0.225,-0.015
4852,-0.130,0.080
4853,0.135,0.220
4854,0.490,0.355
4855,0.680,0.335
4856,0.560,0.055
4857,0.275,-0.575
4858,0.035,-0.705
4859,-0.075,-0.405
4860,-0.130,-0.165
4861,-0.170,-0.035
4862,-0.200,0.000
4863,-0.205,0.005
4864,-0.205,0.015
4865,-0.195,0.015
4866,-0.185,0.015
4867,-0.175,0.020
4868,-0.155,0.015
4869,-0.140,0.025
4870,-0.130,0.030
4871,-0.105,0.030
4872,-0.085,0.015
4873,-0.065,0.025
4874,-0.045,0.030
4875,-0.030,0.040
4876,-0.005,0.045
4877,0.010,0.060
4878,0.035,0.080
4879,0.065,0.105
4880,0.105,0.120
4881,0.155,0.135
4882,0.195,0.150
4883,0.225,0.165
4884,0.245,0.175
4885,0.250,0.170
4886,0.245,0.155
4887,0.240,0.125
4888,0.235,0.095
4889,0.225,0.050
4890,0.205,0.020
4891,0.175,0.000
4892,0.140,0.000
4893,0.105,0.000
4894,0.060,0.000
4895,0.020,0.000
4896,-0.005,0.000
4897,-0.040,0.000
4898,-0.070,0.000
4899,-0.085,0.000
4900,-0.090,-0.005
4901,-0.085,0.000
4902,-0.060,-0.015
4903,0.015,0.000
4904,0.190,0.115
4905,0.420,0.345
4906,0.650,0.510
4907,0.735,0.505
4908,0.580,0.195
4909,0.265,-0.760
4910,0.025,-1.050
4911,-0.075,-0.675
4912,-0.140,-0.305
4913,-0.190,-0.090
4914,-0.225,-0.010
4915,-0.250,0.000
4916,-0.260,0.015
4917,-0.260,0.020
4918,-0.250,0.030
4919,-0.235,0.025
4920,-0.220,0.025
4921,-0.205,0.030
4922,-0.190,0.030
4923,-0.170,0.035
4924,-0.150,0.045
4925,-0.125,0.055
4926,-0.100,0.065
4927,-0.070,0.080
4928,-0.040,0.105
4929,-0.005,0.130
4930,0.030,0.165
4931,0.080,0.210
4932,0.135,0.245
4933,0.180,0.270
4934,0.215,0.270
4935,0.215,0.260
4936,0.195,0.240
4937,0.165,0.205
4938,0.135,0.165
4939,0.100,0.120
4940,0.065,0.080
4941,0.035,0.040
4942,0.005,0.025
4943,-0.015,0.000
4944,-0.040,0.000
4945,-0.060,-0.005
4946,-0.080,-0.015
4947,-0.090,-0.025
4948,-0.090,-0.030
4949,-0.090,-0.035
4950,-0.090,-0.030
4951,-0.095,-0.040
4952,-0.105,-0.030
4953,-0.100,-0.035
4954,-0.095,-0.040
4955,-0.095,-0.045
4956,-0.100,-0.035
4957,-0.105,-0.035
4958,-0.105,-0.040
4959,-0.105,-0.040
4960,-0.115,-0.045
4961,-0.120,-0.040
4962,-0.120,-0.040
4963,-0.115,-0.045
4964,-0.110,-0.050
4965,-0.100,-0.055
4966,-0.090,-0.055
4967,-0.085,-0.055
4968,-0.085,-0.065
4969,-0.070,-0.055
4970,-0.045,-0.040
4971,-0.030,-0.035
4972,-0.025,-0.050
4973,-0.025,-0.070
4974,-0.025,-0.070
4975,-0.030,-0.055
4976,-0.050,-0.050
4977,-0.080,-0.050
4978,-0.110,-0.060
4979,-0.125,-0.055
4980,-0.135,-0.035
4981,-0.145,-0.035
4982,-0.155,-0.030
4983,-0.155,-0.030
4984,-0.155,-0.035
4985,-0.115,0.025
4986,0.050,0.170
4987,0.370,0.315
4988,0.720,0.480
4989,0.810,0.450
4990,0.555,0.065
4991,0.215,-0.730
4992,0.010,-0.675
4993,-0.075,-0.370
4994,-0.130,-0.185
4995,-0.170,-0.065
4996,-0.190,-0.010
4997,-0.195,0.000
4998,-0.200,0.000
4999,-0.195,0.000
5000,-0.185,0.000
5001,-0.165,0.010
5002,-0.145,0.010
5003,-0.135,0.010
5004,-0.120,0.010
5005,-0.105,0.010
5006,-0.085,0.015
5007,-0.070,0.015
5008,-0.050,0.015
5009,-0.035,0.025
5010,-0.020,0.040
5011,0.000,0.050
5012,0.030,0.060
5013,0.065,0.080
5014,0.105,0.100
5015,0.155,0.125
5016,0.205,0.145
5017,0.260,0.165
5018,0.300,0.175
5019,0.335,0.175
5020,0.360,0.160
5021,0.370,0.135
5022,0.365,0.110
5023,0.350,0.075
5024,0.310,0.045
5025,0.250,0.030
5026,0.195,0.015
5027,0.145,0.015
5028,0.090,0.015
5029,0.045,0.010
5030,0.010,0.000
5031,-0.015,0.000
5032,-0.045,-0.010
5033,-0.060,-0.010
5034,-0.060,-0.015
5035,-0.020,-0.025
5036,0.095,0.020
5037,0.310,0.165
5038,0.545,0.365
5039,0.715,0.595
5040,0.710,0.485
5041,0.485,-0.180
5042,0.200,-1.090
5043,0.005,-1.080
5044,-0.110,-0.605
5045,-0.185,-0.230
5046,-0.230,-0.055
5047,-0.255,-0.005
5048,-0.260,0.000
5049,-0.250,0.000
5050,-0.240,0.000
5051,-0.230,0.000
5052,-0.230,0.000
5053,-0.225,0.010
5054,-0.205,0.015
5055,-0.190,0.015
5056,-0.175,0.020
5057,-0.160,0.030
5058,-0.150,0.050
5059,-0.130,0.070
5060,-0.105,0.090
5061,-0.075,0.115
5062,-0.035,0.145
5063,0.005,0.185
5064,0.045,0.225
5065,0.090,0.255
5066,0.115,0.250
5067,0.125,0.230
5068,0.125,0.205
5069,0.120,0.165
5070,0.110,0.120
5071,0.080,0.075
5072,0.050,0.040
5073,0.025,0.000
5074,0.010,0.000
5075,0.000,0.000
5076,-0.020,0.000
5077,-0.040,-0.010
5078,-0.055,0.000
5079,-0.070,-0.010
5080,-0.075,-0.010
5081,-0.080,-0.020
5082,-0.085,-0.025
5083,-0.085,-0.020
5084,-0.085,-0.015
5085,-0.085,-0.025
5086,-0.085,-0.025
5087,-0.085,-0.025
5088,-0.085,-0.030
5089,-0.085,-0.040
5090,-0.090,-0.040
5091,-0.090,-0.040
5092,-0.090,-0.050
5093,-0.090,-0.065
5094,-0.090,-0.060
5095,-0.090,-0.050
5096,-0.095,-0.050
5097,-0.100,-0.055
5098,-0.100,-0.055
5099,-0.095,-0.055
5100,-0.085,-0.060
5101,-0.085,-0.070
5102,-0.080,-0.070
5103,-0.060,-0.065
5104,-0.030,-0.050
5105,-0.005,-0.050
5106,0.005,-0.060
5107,0.005,-0.080
5108,0.000,-0.075
5109,-0.015,-0.055
5110,-0.035,-0.045
5111,-0.060,-0.070
5112,-0.080,-0.070
5113,-0.095,-0.065
5114,-0.110,-0.035
5115,-0.125,-0.030
5116,-0.125,-0.030
5117,-0.120,-0.040
5118,-0.115,-0.055
5119,-0.085,0.035
5120,0.060,0.190
5121,0.375,0.335
5122,0.720,0.485
5123,0.805,0.475
5124,0.565,0.025
5125,0.240,-0.725
5126,0.035,-0.675
5127,-0.050,-0.400
5128,-0.105,-0.195
5129,-0.155,-0.075
5130,-0.180,-0.015
5131,-0.190,0.000
5132,-0.195,0.000
5133,-0.185,0.000
5134,-0.170,0.000
5135,-0.150,0.005
5136,-0.135,0.010
5137,-0.125,0.015
5138,-0.105,0.015
5139,-0.090,0.015
5140,-0.075,0.015
5141,-0.065,0.015
5142,-0.045,0.015
5143,-0.020,0.015
5144,0.000,0.030
5145,0.015,0.045
5146,0.040,0.055
5147,0.080,0.080
5148,0.125,0.105
5149,0.175,0.125
5150,0.230,0.150
5151,0.285,0.185
5152,0.325,0.200
5153,0.340,0.210
5154,0.345,0.190
5155,0.340,0.180
5156,0.330,0.155
5157,0.305,0.130
5158,0.270,0.105
5159,0.240,0.075
5160,0.205,0.040
5161,0.160,0.025
5162,0.120,0.000
5163,0.085,0.000
5164,0.050,0.000
5165,0.030,-0.005
5166,0.015,-0.025
5167,0.010,-0.035
5168,0.000,-0.045
5169,-0.015,-0.050
5170,-0.020,-0.045
5171,-0.020,-0.045
5172,-0.005,-0.040
5173,0.000,-0.045
5174,0.010,-0.050
5175,0.025,-0.040
5176,0.045,-0.030
5177,0.050,-0.030
5178,0.055,-0.035
5179,0.055,-0.055
5180,0.055,-0.060
5181,0.040,-0.065
5182,0.015,-0.070
5183,-0.010,-0.070
5184,-0.040,-0.065
5185,-0.060,-0.065
5186,-0.070,-0.070
5187,-0.080,-0.065
5188,-0.085,-0.055
5189,-0.090,-0.055
5190,-0.110,-0.080
5191,-0.125,-0.060
5192,-0.045,0.050
5193,0.185,0.210
5194,0.480,0.355
5195,0.630,0.345
5196,0.520,0.065
5197,0.285,-0.645
5198,0.100,-0.815
5199,0.010,-0.495
5200,-0.045,-0.220
5201,-0.100,-0.075
5202,-0.135,-0.010
5203,-0.150,0.000
5204,-0.150,0.005
5205,-0.145,0.005
5206,-0.145,0.010
5207,-0.145,0.015
5208,-0.120,0.010
5209,-0.095,0.000
5210,-0.090,0.000
5211,-0.080,0.000
5212,-0.060,0.010
5213,-0.035,0.015
5214,-0.015,0.020
5215,0.000,0.030
5216,0.015,0.040
5217,0.040,0.045
5218,0.070,0.050
5219,0.105,0.050
5220,0.145,0.070
5221,0.190,0.110
5222,0.240,0.125
5223,0.280,0.135
5224,0.295,0.140
5225,0.295,0.140
5226,0.290,0.120
5227,0.280,0.080
5228,0.260,0.035
5229,0.230,0.020
5230,0.195,0.015
5231,0.155,0.005
5232,0.120,0.000
5233,0.095,0.000
5234,0.065,0.000
5235,0.035,0.000
5236,0.020,0.000
5237,0.005,-0.010
5238,0.000,-0.020
5239,-0.020,-0.030
5240,-0.025,-0.050
5241,-0.020,-0.060
5242,-0.015,-0.035
5243,-0.005,-0.035
5244,0.000,-0.035
5245,0.010,-0.040
5246,0.015,-0.025
5247,0.020,0.000
5248,0.025,0.000
5249,0.030,-0.020
5250,0.040,-0.045
5251,0.030,-0.050
5252,0.000,-0.045
5253,-0.025,-0.040
5254,-0.060,-0.045
5255,-0.090,-0.050
5256,-0.115,-0.035
5257,-0.130,-0.015
5258,-0.135,-0.005
5259,-0.135,0.000
5260,-0.135,-0.005
5261,-0.135,0.000
5262,-0.120,0.055
5263,-0.020,0.140
5264,0.215,0.205
5265,0.485,0.165
5266,0.605,0.000
5267,0.500,-0.330
5268,0.305,-0.750
5269,0.140,-0.855
5270,0.020,-0.560
5271,-0.070,-0.240
5272,-0.140,-0.065
5273,-0.175,-0.005
5274,-0.185,0.005
5275,-0.190,0.015
5276,-0.185,0.025
5277,-0.175,0.030
5278,-0.160,0.030
5279,-0.145,0.035
5280,-0.130,0.035
5281,-0.120,0.030
5282,-0.105,0.030
5283,-0.085,0.040
5284,-0.075,0.040
5285,-0.055,0.045
5286,-0.025,0.045
5287,0.000,0.060
5288,0.010,0.060
5289,0.035,0.085
5290,0.070,0.095
5291,0.115,0.115
5292,0.170,0.130
5293,0.225,0.145
5294,0.270,0.155
5295,0.305,0.160
5296,0.315,0.145
5297,0.310,0.135
5298,0.290,0.110
5299,0.265,0.090
5300,0.225,0.065
5301,0.195,0.030
5302,0.175,0.010
5303,0.155,0.000
5304,0.145,-0.015
5305,0.135,-0.045
5306,0.120,-0.065
5307,0.090,-0.075
5308,0.055,-0.075
5309,0.020,-0.060
5310,-0.005,-0.040
5311,-0.025,-0.020
5312,-0.045,-0.015
5313,-0.065,-0.015
5314,-0.080,-0.005
5315,-0.085,0.000
5316,-0.080,0.000
5317,-0.060,-0.005
5318,-0.015,0.000
5319,0.095,0.105
5320,0.300,0.235
5321,0.535,0.320
5322,0.645,0.310
5323,0.515,0.105
5324,0.240,-0.485
5325,0.035,-0.895
5326,-0.035,-0.630
5327,-0.095,-0.315
5328,-0.165,-0.100
5329,-0.215,-0.005
5330,-0.240,0.005
5331,-0.240,0.010
5332,-0.235,0.030
5333,-0.230,0.020
5334,-0.225,0.025
5335,-0.210,0.015
5336,-0.195,0.030
5337,-0.180,0.015
5338,-0.155,0.030
5339,-0.135,0.030
5340,-0.110,0.040
5341,-0.090,0.045
5342,-0.070,0.050
5343,-0.040,0.065
5344,-0.005,0.085
5345,0.020,0.105
5346,0.055,0.130
5347,0.100,0.165
5348,0.150,0.200
5349,0.185,0.220
5350,0.200,0.230
5351,0.195,0.220
5352,0.185,0.190
5353,0.165,0.155
5354,0.135,0.120
5355,0.105,0.090
5356,0.070,0.055
5357,0.040,0.030
5358,0.010,0.010
5359,-0.005,0.000
5360,-0.020,0.000
5361,-0.035,0.000
5362,-0.055,0.000
5363,-0.070,-0.015
5364,-0.085,-0.015
5365,-0.090,-0.020
5366,-0.095,-0.015
5367,-0.095,-0.020
5368,-0.090,-0.020
5369,-0.090,-0.020
5370,-0.090,-0.015
5371,-0.090,-0.020
5372,-0.095,-0.020
5373,-0.100,-0.025
5374,-0.105,-0.025
5375,-0.100,-0.025
5376,-0.100,-0.025
5377,-0.100,-0.025
5378,-0.100,-0.030
5379,-0.105,-0.030
5380,-0.095,-0.030
5381,-0.085,-0.030
5382,-0.075,-0.040
5383,-0.045,-0.030
5384,-0.020,-0.025
5385,-0.005,-0.025
5386,0.000,-0.050
5387,0.000,-0.065
5388,-0.005,-0.055
5389,-0.030,-0.035
5390,-0.060,-0.030
5391,-0.090,-0.030
5392,-0.115,-0.030
5393,-0.130,-0.020
5394,-0.140,-0.015
5395,-0.145,-0.015
5396,-0.145,-0.010
5397,-0.145,-0.015
5398,-0.140,0.000
5399,-0.070,0.085
5400,0.150,0.220
5401,0.505,0.360
5402,0.790,0.435
5403,0.780,0.265
5404,0.495,-0.225
5405,0.185,-0.685
5406,0.000,-0.565
5407,-0.095,-0.295
5408,-0.155,-0.130
5409,-0.190,-0.030
5410,-0.205,0.000
5411,-0.215,0.005
5412,-0.210,0.015
5413,-0.205,0.015
5414,-0.195,0.015
5415,-0.190,0.015
5416,-0.180,0.015
5417,-0.155,0.020
5418,-0.135,0.010
5419,-0.115,0.010
5420,-0.095,0.015
5421,-0.075,0.020
5422,-0.050,0.025
5423,-0.025,0.030
5424,-0.005,0.045
5425,0.005,0.060
5426,0.035,0.085
5427,0.075,0.090
5428,0.120,0.115
5429,0.160,0.135
5430,0.205,0.165
5431,0.250,0.185
5432,0.275,0.175
5433,0.290,0.175
5434,0.295,0.165
5435,0.290,0.145
5436,0.290,0.120
5437,0.285,0.080
5438,0.270,0.045
5439,0.245,0.015
5440,0.210,0.000
5441,0.160,0.000
5442,0.110,0.000
5443,0.060,0.000
5444,0.020,0.000
5445,0.000,0.000
5446,-0.025,-0.005
5447,-0.050,-0.005
5448,-0.070,-0.015
5449,-0.080,-0.015
5450,-0.065,-0.020
5451,-0.005,-0.015
5452,0.110,0.050
5453,0.320,0.215
5454,0.555,0.405
5455,0.710,0.505
5456,0.670,0.300
5457,0.415,-0.310
5458,0.135,-1.125
5459,-0.020,-0.935
5460,-0.110,-0.475
5461,-0.185,-0.160
5462,-0.230,-0.025
5463,-0.250,0.000
5464,-0.255,0.005
5465,-0.260,0.010
5466,-0.250,0.030
5467,-0.240,0.035
5468,-0.225,0.025
5469,-0.210,0.015
5470,-0.195,0.025
5471,-0.180,0.030
5472,-0.165,0.045
5473,-0.145,0.055
5474,-0.130,0.065
5475,-0.100,0.080
5476,-0.070,0.095
5477,-0.030,0.115
5478,0.000,0.140
5479,0.035,0.185
5480,0.085,0.235
5481,0.125,0.265
5482,0.160,0.280
5483,0.175,0.275
5484,0.185,0.255
5485,0.175,0.225
5486,0.155,0.185
5487,0.120,0.140
5488,0.085,0.100
5489,0.050,0.055
5490,0.020,0.025
5491,0.005,0.000
5492,-0.010,0.000
5493,-0.030,0.000
5494,-0.045,-0.005
5495,-0.065,-0.020
5496,-0.080,-0.015
5497,-0.085,-0.030
5498,-0.090,-0.030
5499,-0.095,-0.030
5500,-0.090,-0.030
5501,-0.090,-0.040
5502,-0.095,-0.030
5503,-0.095,-0.030
5504,-0.095,-0.030
5505,-0.100,-0.030
5506,-0.105,-0.045
5507,-0.110,-0.040
5508,-0.115,-0.040
5509,-0.115,-0.045
5510,-0.115,-0.050
5511,-0.115,-0.050
5512,-0.105,-0.050
5513,-0.095,-0.050
5514,-0.095,-0.050
5515,-0.095,-0.060
5516,-0.085,-0.065
5517,-0.065,-0.050
5518,-0.035,-0.050
5519,-0.020,-0.045
5520,-0.010,-0.055
5521,0.000,-0.080
5522,-0.005,-0.075
5523,-0.020,-0.060
5524,-0.050,-0.060
5525,-0.080,-0.065
5526,-0.105,-0.065
5527,-0.125,-0.055
5528,-0.135,-0.035
5529,-0.145,-0.035
5530,-0.145,-0.035
5531,-0.140,-0.045
5532,-0.135,-0.040
5533,-0.085,0.040
5534,0.085,0.180
5535,0.410,0.335
5536,0.735,0.470
5537,0.780,0.405
5538,0.520,-0.020
5539,0.195,-0.695
5540,0.000,-0.645
5541,-0.085,-0.355
5542,-0.135,-0.170
5543,-0.180,-0.060
5544,-0.205,-0.015
5545,-0.215,0.000
5546,-0.205,0.000
5547,-0.200,0.000
5548,-0.195,0.000
5549,-0.185,0.010
5550,-0.170,0.005
5551,-0.150,0.010
5552,-0.125,0.015
5553,-0.100,0.015
5554,-0.085,0.015
5555,-0.070,0.015
5556,-0.050,0.015
5557,-0.030,0.030
5558,-0.010,0.035
5559,0.005,0.045
5560,0.030,0.055
5561,0.065,0.075
5562,0.105,0.105
5563,0.155,0.125
5564,0.210,0.145
5565,0.260,0.165
5566,0.295,0.180
5567,0.310,0.175
5568,0.310,0.175
5569,0.295,0.165
5570,0.280,0.145
5571,0.250,0.125
5572,0.215,0.100
5573,0.170,0.075
5574,0.135,0.050
5575,0.105,0.035
5576,0.075,0.020
5577,0.045,0.010
5578,0.020,0.000
5579,0.005,-0.005
5580,-0.010,-0.025
5581,-0.030,-0.030
5582,-0.040,-0.030
5583,-0.045,-0.030
5584,-0.040,-0.035
5585,-0.030,-0.035
5586,-0.020,-0.040
5587,-0.010,-0.035
5588,0.000,-0.030
5589,0.015,-0.030
5590,0.015,-0.035
5591,0.015,-0.070
5592,0.010,-0.075
5593,0.000,-0.060
5594,-0.040,-0.045
5595,-0.075,-0.055
5596,-0.110,-0.055
5597,-0.130,-0.050
5598,-0.145,-0.030
5599,-0.160,-0.030
5600,-0.175,-0.030
5601,-0.180,-0.030
5602,-0.195,-0.055
5603,-0.225,-0.045
5604,-0.175,0.035
5605,0.020,0.175
5606,0.330,0.325
5607,0.540,0.390
5608,0.485,0.175
5609,0.255,-0.430
5610,0.045,-0.755
5611,-0.065,-0.535
5612,-0.125,-0.250
5613,-0.170,-0.080
5614,-0.195,-0.010
5615,-0.195,0.000
5616,-0.190,0.000
5617,-0.190,0.000
5618,-0.185,0.005
5619,-0.180,0.005
5620,-0.160,0.010
5621,-0.145,0.010
5622,-0.130,0.020
5623,-0.120,0.015
5624,-0.105,0.010
5625,-0.085,0.005
5626,-0.065,0.015
5627,-0.045,0.015
5628,-0.020,0.030
5629,0.000,0.035
5630,0.015,0.065
5631,0.050,0.090
5632,0.095,0.105
5633,0.135,0.125
5634,0.180,0.150
5635,0.230,0.170
5636,0.255,0.175
5637,0.260,0.175
5638,0.260,0.150
5639,0.245,0.135
5640,0.220,0.110
5641,0.185,0.085
5642,0.145,0.060
5643,0.105,0.050
5644,0.065,0.025
5645,0.030,0.010
5646,0.015,0.000
5647,0.005,0.000
5648,0.000,-0.005
5649,-0.005,-0.015
5650,-0.020,-0.025
5651,-0.035,-0.025
5652,-0.050,-0.035
5653,-0.050,-0.045
5654,-0.050,-0.050
5655,-0.045,-0.045
5656,-0.030,-0.035
5657,-0.010,-0.025
5658,0.000,-0.020
5659,0.010,-0.015
5660,0.015,-0.035
5661,0.015,-0.060
5662,0.010,-0.075
5663,-0.005,-0.060
5664,-0.040,-0.050
5665,-0.075,-0.055
5666,-0.105,-0.050
5667,-0.125,-0.045
5668,-0.140,-0.040
5669,-0.145,-0.025
5670,-0.155,-0.030
5671,-0.160,-0.030
5672,-0.190,-0.065
5673,-0.220,-0.030
5674,-0.155,0.055
5675,0.085,0.220
5676,0.430,0.370
5677,0.610,0.390
5678,0.470,0.135
5679,0.200,-0.680
5680,0.020,-0.750
5681,-0.060,-0.440
5682,-0.110,-0.190
5683,-0.145,-0.060
5684,-0.170,-0.005
5685,-0.180,0.000
5686,-0.185,0.000
5687,-0.170,0.005
5688,-0.155,0.010
5689,-0.145,0.015
5690,-0.130,0.015
5691,-0.120,0.010
5692,-0.110,0.015
5693,-0.095,0.025
5694,-0.075,0.020
5695,-0.055,0.010
5696,-0.040,0.020
5697,-0.025,0.025
5698,-0.005,0.030
5699,0.010,0.055
5700,0.035,0.080
5701,0.070,0.100
5702,0.125,0.120
5703,0.180,0.140
5704,0.230,0.160
5705,0.275,0.185
5706,0.300,0.190
5707,0.310,0.175
5708,0.305,0.155
5709,0.280,0.135
5710,0.250,0.120
5711,0.210,0.090
5712,0.180,0.065
5713,0.145,0.035
5714,0.110,0.015
5715,0.070,0.000
5716,0.035,0.000
5717,0.020,0.000
5718,0.015,0.000
5719,0.000,-0.025
5720,-0.010,-0.020
5721,-0.020,-0.020
5722,-0.025,-0.010
5723,-0.025,-0.025
5724,-0.010,-0.025
5725,0.000,-0.025
5726,0.005,-0.025
5727,0.020,-0.025
5728,0.040,-0.015
5729,0.055,-0.020
5730,0.065,-0.035
5731,0.070,-0.065
5732,0.060,-0.060
5733,0.045,-0.050
5734,0.020,-0.050
5735,0.000,-0.055
5736,-0.025,-0.055
5737,-0.055,-0.040
5738,-0.075,-0.030
5739,-0.080,-0.035
5740,-0.085,-0.035
5741,-0.085,-0.045
5742,-0.100,-0.075
5743,-0.125,-0.055
5744,-0.070,0.050
5745,0.135,0.220
5746,0.425,0.355
5747,0.590,0.350
5748,0.515,0.095
5749,0.295,-0.570
5750,0.105,-0.850
5751,0.005,-0.550
5752,-0.050,-0.260
5753,-0.110,-0.090
5754,-0.150,-0.025
5755,-0.160,0.000
5756,-0.160,0.000
5757,-0.155,0.010
5758,-0.150,0.015
5759,-0.145,0.015
5760,-0.140,0.015
5761,-0.120,0.015
5762,-0.100,0.015
5763,-0.090,0.015
5764,-0.075,0.035
5765,-0.045,0.040
5766,-0.025,0.035
5767,-0.015,0.040
5768,0.000,0.040
5769,0.035,0.040
5770,0.075,0.040
5771,0.110,0.065
5772,0.155,0.105
5773,0.200,0.135
5774,0.255,0.155
5775,0.300,0.155
5776,0.320,0.140
5777,0.320,0.140
5778,0.305,0.140
5779,0.285,0.120
5780,0.260,0.085
5781,0.235,0.045
5782,0.215,0.015
5783,0.175,0.000
5784,0.130,0.000
5785,0.090,0.000
5786,0.055,0.000
5787,0.030,0.000
5788,0.015,0.000
5789,0.005,-0.010
5790,0.000,-0.025
5791,-0.005,-0.030
5792,-0.020,-0.030
5793,-0.015,-0.030
5794,-0.005,-0.030
5795,0.000,-0.030
5796,0.005,-0.025
5797,0.015,-0.015
5798,0.025,-0.015
5799,0.035,-0.015
5800,0.035,-0.015
5801,0.035,-0.035
5802,0.025,-0.045
5803,0.005,-0.030
5804,-0.020,-0.040
5805,-0.055,-0.045
5806,-0.080,-0.050
5807,-0.105,-0.035
5808,-0.130,-0.015
5809,-0.140,0.000
5810,-0.145,0.000
5811,-0.135,0.000
5812,-0.135,0.000
5813,-0.105,0.055
5814,0.000,0.150
5815,0.225,0.225
5816,0.480,0.180
5817,0.575,-0.010
5818,0.470,-0.375
5819,0.295,-0.820
5820,0.145,-0.885
5821,0.035,-0.570
5822,-0.060,-0.245
5823,-0.140,-0.070
5824,-0.180,-0.010
5825,-0.195,0.005
5826,-0.195,0.020
5827,-0.190,0.035
5828,-0.175,0.035
5829,-0.160,0.035
5830,-0.150,0.035
5831,-0.140,0.035
5832,-0.130,0.035
5833,-0.110,0.040
5834,-0.095,0.035
5835,-0.080,0.045
5836,-0.060,0.050
5837,-0.040,0.060
5838,-0.020,0.065
5839,0.000,0.080
5840,0.030,0.090
5841,0.065,0.110
5842,0.110,0.125
5843,0.170,0.155
5844,0.225,0.175
5845,0.275,0.180
5846,0.295,0.175
5847,0.305,0.145
5848,0.310,0.135
5849,0.315,0.090
5850,0.305,0.050
5851,0.295,0.010
5852,0.270,0.000
5853,0.230,-0.020
5854,0.180,-0.030
5855,0.120,-0.030
5856,0.075,-0.030
5857,0.035,-0.025
5858,0.005,-0.025
5859,-0.015,-0.030
5860,-0.035,-0.025
5861,-0.050,-0.025
5862,-0.060,-0.025
5863,-0.040,-0.025
5864,0.015,-0.015
5865,0.160,0.050
5866,0.400,0.195
5867,0.670,0.315
5868,0.830,0.320
5869,0.745,0.180
5870,0.435,-0.285
5871,0.130,-0.805
5872,-0.025,-0.755
5873,-0.095,-0.455
5874,-0.165,-0.190
5875,-0.230,-0.040
5876,-0.260,0.000
5877,-0.265,0.005
5878,-0.260,0.015
5879,-0.250,0.015
5880,-0.240,0.030
5881,-0.230,0.025
5882,-0.215,0.030
5883,-0.200,0.020
5884,-0.180,0.030
5885,-0.160,0.030
5886,-0.140,0.035
5887,-0.115,0.040
5888,-0.095,0.050
5889,-0.055,0.065
5890,-0.015,0.085
5891,0.025,0.110
5892,0.075,0.135
5893,0.130,0.170
5894,0.180,0.205
5895,0.215,0.215
5896,0.225,0.215
5897,0.220,0.195
5898,0.195,0.165
5899,0.160,0.135
5900,0.120,0.100
5901,0.085,0.065
5902,0.050,0.035
5903,0.025,0.010
5904,0.005,0.000
5905,-0.010,0.000
5906,-0.030,-0.005
5907,-0.055,-0.010
5908,-0.070,-0.020
5909,-0.080,-0.020
5910,-0.085,-0.020
5911,-0.090,-0.030
5912,-0.090,-0.030
5913,-0.095,-0.030
5914,-0.095,-0.030
5915,-0.100,-0.030
5916,-0.100,-0.030
5917,-0.100,-0.030
5918,-0.105,-0.030
5919,-0.110,-0.030
5920,-0.110,-0.030
5921,-0.115,-0.035
5922,-0.115,-0.035
5923,-0.115,-0.035
5924,-0.110,-0.035
5925,-0.105,-0.035
5926,-0.100,-0.045
5927,-0.090,-0.045
5928,-0.085,-0.050
5929,-0.080,-0.050
5930,-0.060,-0.045
5931,-0.030,-0.035
5932,-0.015,-0.035
5933,-0.005,-0.045
5934,0.000,-0.075
5935,0.000,-0.065
5936,-0.025,-0.050
5937,-0.055,-0.045
5938,-0.080,-0.045
5939,-0.105,-0.035
5940,-0.125,-0.030
5941,-0.135,-0.025
5942,-0.140,-0.020
5943,-0.145,-0.020
5944,-0.145,-0.030
5945,-0.150,-0.015
5946,-0.090,0.065
5947,0.105,0.185
5948,0.450,0.335
5949,0.765,0.410
5950,0.805,0.325
5951,0.560,-0.140
5952,0.250,-0.625
5953,0.040,-0.610
5954,-0.065,-0.350
5955,-0.135,-0.160
5956,-0.180,-0.050
5957,-0.195,-0.005
5958,-0.200,0.000
5959,-0.205,0.010
5960,-0.205,0.015
5961,-0.200,0.010
5962,-0.190,0.010
5963,-0.170,0.005
5964,-0.145,0.000
5965,-0.125,0.015
5966,-0.100,0.015
5967,-0.085,0.015
5968,-0.080,0.020
5969,-0.070,0.030
5970,-0.035,0.030
5971,-0.005,0.040
5972,0.010,0.050
5973,0.030,0.075
5974,0.060,0.085
5975,0.100,0.105
5976,0.145,0.130
5977,0.200,0.145
5978,0.250,0.170
5979,0.280,0.175
5980,0.290,0.175
5981,0.300,0.160
5982,0.295,0.145
5983,0.290,0.125
5984,0.275,0.095
5985,0.260,0.060
5986,0.245,0.025
5987,0.225,0.000
5988,0.190,-0.005
5989,0.150,-0.015
5990,0.100,-0.015
5991,0.060,-0.005
5992,0.025,0.000
5993,0.000,-0.005
5994,-0.025,-0.010
5995,-0.050,-0.015
5996,-0.070,-0.015
5997,-0.075,-0.015
5998,-0.055,-0.020
5999,0.000,-0.010
6000,0.130,0.065
6001,0.335,0.240
6002,0.565,0.410
6003,0.710,0.460
6004,0.650,0.230
6005,0.385,-0.380
6006,0.115,-1.055
6007,-0.015,-0.855
6008,-0.085,-0.435
6009,-0.150,-0.155
6010,-0.205,-0.025
6011,-0.235,0.000
6012,-0.240,0.015
6013,-0.235,0.015
6014,-0.230,0.015
6015,-0.215,0.015
6016,-0.210,0.025
6017,-0.200,0.015
6018,-0.185,0.025
6019,-0.165,0.025
6020,-0.155,0.035
6021,-0.145,0.045
6022,-0.120,0.050
6023,-0.090,0.065
6024,-0.060,0.080
6025,-0.025,0.100
6026,0.000,0.125
6027,0.040,0.175
6028,0.090,0.210
6029,0.130,0.240
6030,0.165,0.260
6031,0.180,0.265
6032,0.180,0.245
6033,0.170,0.215
6034,0.155,0.165
6035,0.125,0.125
6036,0.095,0.090
6037,0.065,0.055
6038,0.035,0.025
6039,0.015,0.000
6040,0.000,0.000
6041,-0.020,0.000
6042,-0.040,-0.010
6043,-0.065,-0.025
6044,-0.070,-0.030
6045,-0.070,-0.030
6046,-0.075,-0.030
6047,-0.085,-0.035
6048,-0.085,-0.030
6049,-0.085,-0.045
6050,-0.085,-0.045
6051,-0.085,-0.040
6052,-0.085,-0.040
6053,-0.090,-0.045
6054,-0.095,-0.040
6055,-0.095,-0.035
6056,-0.095,-0.050
6057,-0.100,-0.050
6058,-0.100,-0.050
6059,-0.100,-0.050
6060,-0.090,-0.050
6061,-0.085,-0.050
6062,-0.085,-0.055
6063,-0.080,-0.065
6064,-0.060,-0.060
6065,-0.035,-0.050
6066,-0.020,-0.050
6067,-0.010,-0.050
6068,0.000,-0.070
6069,0.005,-0.085
6070,0.000,-0.075
6071,-0.020,-0.055
6072,-0.065,-0.060
6073,-0.095,-0.050
6074,-0.115,-0.035
6075,-0.130,-0.030
6076,-0.135,-0.030
6077,-0.135,-0.030
6078,-0.135,-0.035
6079,-0.140,-0.040
6080,-0.115,0.005
6081,0.015,0.130
6082,0.310,0.285
6083,0.660,0.430
6084,0.825,0.470
6085,0.645,0.150
6086,0.305,-0.500
6087,0.050,-0.720
6088,-0.060,-0.455
6089,-0.120,-0.230
6090,-0.155,-0.085
6091,-0.180,-0.015
6092,-0.190,0.000
6093,-0.190,0.000
6094,-0.185,0.000
6095,-0.180,0.000
6096,-0.165,0.000
6097,-0.145,0.005
6098,-0.130,0.010
6099,-0.120,0.015
6100,-0.095,0.010
6101,-0.075,0.000
6102,-0.055,0.000
6103,-0.030,0.000
6104,-0.020,0.015
6105,0.000,0.020
6106,0.010,0.045
6107,0.040,0.065
6108,0.080,0.085
6109,0.130,0.110
6110,0.175,0.130
6111,0.225,0.140
6112,0.275,0.155
6113,0.315,0.170
6114,0.340,0.175
6115,0.340,0.165
6116,0.325,0.155
6117,0.305,0.135
6118,0.280,0.120
6119,0.250,0.100
6120,0.215,0.075
6121,0.180,0.055
6122,0.145,0.035
6123,0.115,0.020
6124,0.080,0.005
6125,0.050,0.000
6126,0.035,-0.005
6127,0.020,-0.020
6128,0.005,-0.030
6129,-0.010,-0.040
6130,-0.020,-0.050
6131,-0.015,-0.050
6132,-0.005,-0.050
6133,0.000,-0.050
6134,0.010,-0.035
6135,0.025,-0.030
6136,0.030,-0.035
6137,0.025,-0.060
6138,0.020,-0.065
6139,0.010,-0.075
6140,0.005,-0.050
6141,-0.020,-0.055
6142,-0.065,-0.060
6143,-0.090,-0.065
6144,-0.105,-0.045
6145,-0.125,-0.045
6146,-0.140,-0.035
6147,-0.145,-0.035
6148,-0.150,-0.035
6149,-0.180,-0.070
6150,-0.215,-0.045
6151,-0.140,0.050
6152,0.085,0.190
6153,0.410,0.330
6154,0.590,0.375
6155,0.490,0.095
6156,0.235,-0.590
6157,0.025,-0.730
6158,-0.075,-0.460
6159,-0.125,-0.205
6160,-0.160,-0.070
6161,-0.185,-0.015
6162,-0.190,0.000
6163,-0.180,0.000
6164,-0.165,0.000
6165,-0.150,0.000
6166,-0.145,0.000
6167,-0.140,0.005
6168,-0.135,0.010
6169,-0.125,0.010
6170,-0.100,0.015
6171,-0.070,0.015
6172,-0.045,0.010
6173,-0.035,0.010
6174,-0.030,0.015
6175,-0.010,0.030
6176,0.005,0.055
6177,0.025,0.075
6178,0.055,0.105
6179,0.095,0.125
6180,0.145,0.150
6181,0.205,0.160
6182,0.245,0.160
6183,0.270,0.160
6184,0.270,0.155
6185,0.255,0.140
6186,0.235,0.120
6187,0.215,0.105
6188,0.180,0.070
6189,0.145,0.055
6190,0.120,0.030
6191,0.090,0.015
6192,0.055,0.000
6193,0.025,0.000
6194,0.015,-0.005
6195,0.005,-0.010
6196,0.000,-0.020
6197,-0.010,-0.025
6198,-0.020,-0.040
6199,-0.025,-0.050
6200,-0.025,-0.050
6201,-0.020,-0.050
6202,-0.005,-0.050
6203,0.005,-0.040
6204,0.025,-0.035
6205,0.045,-0.040
6206,0.055,-0.060
6207,0.055,-0.085
6208,0.050,-0.085
6209,0.035,-0.065
6210,0.010,-0.060
6211,-0.010,-0.075
6212,-0.035,-0.075
6213,-0.060,-0.060
6214,-0.080,-0.035
6215,-0.085,-0.025
6216,-0.085,-0.020
6217,-0.085,-0.020
6218,-0.100,-0.050
6219,-0.135,-0.050
6220,-0.105,0.030
6221,0.085,0.175
6222,0.410,0.330
6223,0.675,0.400
6224,0.650,0.285
6225,0.400,-0.435
6226,0.160,-0.865
6227,0.040,-0.550
6228,0.000,-0.270
6229,-0.050,-0.090
6230,-0.075,-0.025
6231,-0.080,0.000
6232,-0.085,0.000
6233,-0.085,0.000
6234,-0.080,0.000
6235,-0.075,0.000
6236,-0.075,0.000
6237,-0.065,0.000
6238,-0.050,0.010
6239,-0.040,0.015
6240,-0.030,0.035
6241,-0.010,0.035
6242,0.000,0.035
6243,0.015,0.035
6244,0.030,0.035
6245,0.055,0.035
6246,0.080,0.055
6247,0.105,0.090
6248,0.150,0.120
6249,0.205,0.140
6250,0.255,0.160
6251,0.295,0.180
6252,0.325,0.185
6253,0.340,0.160
6254,0.335,0.140
6255,0.315,0.135
6256,0.285,0.120
6257,0.250,0.090
6258,0.210,0.060
6259,0.170,0.030
6260,0.125,0.015
6261,0.090,0.005
6262,0.065,0.000
6263,0.045,-0.010
6264,0.025,-0.015
6265,0.015,-0.025
6266,0.010,-0.030
6267,0.000,-0.040
6268,0.000,-0.045
6269,0.000,-0.035
6270,0.000,-0.030
6271,0.000,-0.030
6272,0.005,-0.035
6273,0.025,-0.050
6274,0.045,-0.030
6275,0.055,-0.030
6276,0.060,-0.045
6277,0.065,-0.055
6278,0.055,-0.060
6279,0.025,-0.050
6280,-0.005,-0.050
6281,-0.035,-0.060
6282,-0.060,-0.065
6283,-0.085,-0.040
6284,-0.105,-0.030
6285,-0.110,-0.020
6286,-0.105,-0.005
6287,-0.095,-0.005
6288,-0.095,0.000
6289,-0.065,0.050
6290,0.060,0.135
6291,0.305,0.220
6292,0.530,0.170
6293,0.570,-0.005
6294,0.435,-0.380
6295,0.255,-0.805
6296,0.115,-0.825
6297,0.005,-0.475
6298,-0.075,-0.165
6299,-0.135,-0.035
6300,-0.170,0.005
6301,-0.190,0.025
6302,-0.200,0.055
6303,-0.200,0.060
6304,-0.195,0.070
6305,-0.170,0.055
6306,-0.150,0.050
6307,-0.135,0.050
6308,-0.125,0.050
6309,-0.100,0.050
6310,-0.080,0.050
6311,-0.065,0.045
6312,-0.040,0.045
6313,-0.015,0.045
6314,0.000,0.050
6315,0.015,0.065
6316,0.045,0.070
6317,0.085,0.085
6318,0.135,0.105
6319,0.180,0.130
6320,0.235,0.135
6321,0.270,0.140
6322,0.290,0.135
6323,0.290,0.125
6324,0.280,0.110
6325,0.260,0.090
6326,0.235,0.055
6327,0.200,0.035
6328,0.165,0.010
6329,0.130,0.000
6330,0.100,0.000
6331,0.070,0.000
6332,0.050,-0.005
6333,0.025,-0.010
6334,0.010,-0.015
6335,0.000,-0.015
6336,-0.015,-0.010
6337,-0.020,-0.010
6338,-0.020,-0.010
6339,-0.015,-0.005
6340,-0.010,-0.005
6341,0.000,-0.005
6342,0.010,-0.005
6343,0.020,-0.005
6344,0.030,-0.015
6345,0.040,-0.030
6346,0.035,-0.055
6347,0.025,-0.050
6348,0.005,-0.040
6349,-0.015,-0.030
6350,-0.050,-0.045
6351,-0.080,-0.035
6352,-0.105,-0.025
6353,-0.125,-0.025
6354,-0.130,-0.025
6355,-0.135,-0.025
6356,-0.135,-0.020
6357,-0.160,-0.015
6358,-0.165,0.020
6359,-0.045,0.135
6360,0.230,0.240
6361,0.535,0.250
6362,0.620,0.130
6363,0.450,-0.205
6364,0.210,-0.705
6365,0.050,-0.685
6366,-0.030,-0.405
6367,-0.100,-0.165
6368,-0.155,-0.035
6369,-0.180,0.000
6370,-0.190,0.010
6371,-0.195,0.015
6372,-0.190,0.025
6373,-0.180,0.035
6374,-0.170,0.035
6375,-0.155,0.025
6376,-0.140,0.030
6377,-0.120,0.030
6378,-0.100,0.030
6379,-0.080,0.030
6380,-0.065,0.030
6381,-0.045,0.035
6382,-0.020,0.035
6383,0.000,0.045
6384,0.020,0.055
6385,0.050,0.075
6386,0.085,0.095
6387,0.130,0.120
6388,0.175,0.140
6389,0.225,0.160
6390,0.260,0.175
6391,0.280,0.175
6392,0.280,0.165
6393,0.265,0.140
6394,0.245,0.125
6395,0.215,0.090
6396,0.180,0.080
6397,0.145,0.045
6398,0.115,0.030
6399,0.085,0.010
6400,0.060,0.005
6401,0.035,0.000
6402,0.015,0.000
6403,0.000,0.000
6404,-0.015,0.000
6405,-0.025,-0.005
6406,-0.035,-0.010
6407,-0.040,-0.005
6408,-0.035,-0.005
6409,-0.030,-0.010
6410,-0.020,-0.005
6411,-0.005,0.000
6412,0.010,0.000
6413,0.015,0.000
6414,0.015,-0.015
6415,0.015,-0.030
6416,0.005,-0.035
6417,-0.015,-0.020
6418,-0.050,-0.020
6419,-0.080,-0.030
6420,-0.115,-0.030
6421,-0.135,-0.020
6422,-0.145,-0.015
6423,-0.155,-0.015
6424,-0.165,-0.015
6425,-0.175,-0.025
6426,-0.205,-0.035
6427,-0.220,-0.020
6428,-0.125,0.060
6429,0.135,0.195
6430,0.480,0.310
6431,0.665,0.280
6432,0.545,0.000
6433,0.265,-0.590
6434,0.045,-0.715
6435,-0.060,-0.420
6436,-0.120,-0.175
6437,-0.160,-0.055
6438,-0.185,0.000
6439,-0.195,0.000
6440,-0.195,0.010
6441,-0.195,0.015
6442,-0.190,0.025
6443,-0.180,0.030
6444,-0.160,0.020
6445,-0.135,0.020
6446,-0.110,0.020
6447,-0.095,0.025
6448,-0.080,0.020
6449,-0.060,0.030
6450,-0.040,0.035
6451,-0.020,0.040
6452,0.000,0.045
6453,0.015,0.065
6454,0.040,0.080
6455,0.070,0.100
6456,0.110,0.115
6457,0.150,0.135
6458,0.195,0.150
6459,0.230,0.165
6460,0.260,0.160
6461,0.280,0.140
6462,0.290,0.115
6463,0.285,0.080
6464,0.265,0.045
6465,0.220,0.020
6466,0.170,0.010
6467,0.115,0.005
6468,0.070,0.005
6469,0.030,0.010
6470,0.000,0.005
6471,-0.020,0.000
6472,-0.045,0.000
6473,-0.060,0.000
6474,-0.070,0.000
6475,-0.055,0.000
6476,0.010,0.000
6477,0.170,0.080
6478,0.425,0.260
6479,0.675,0.470
6480,0.810,0.550
6481,0.730,0.325
6482,0.440,-0.380
6483,0.135,-1.060
6484,-0.020,-0.755
6485,-0.105,-0.360
6486,-0.180,-0.105
6487,-0.230,-0.010
6488,-0.250,0.000
6489,-0.255,0.020
6490,-0.250,0.020
6491,-0.250,0.025
6492,-0.245,0.025
6493,-0.230,0.015
6494,-0.215,0.015
6495,-0.205,0.020
6496,-0.200,0.035
6497,-0.185,0.045
6498,-0.155,0.050
6499,-0.120,0.055
6500,-0.095,0.075
6501,-0.065,0.095
6502,-0.020,0.120
6503,0.015,0.155
6504,0.060,0.195
6505,0.100,0.225
6506,0.135,0.240
6507,0.155,0.240
6508,0.165,0.220
6509,0.145,0.185
6510,0.120,0.150
6511,0.090,0.115
6512,0.060,0.075
6513,0.025,0.040
6514,0.000,0.020
6515,-0.015,0.005
6516,-0.030,0.000
6517,-0.050,0.000
6518,-0.070,0.000
6519,-0.085,0.000
6520,-0.085,0.000
6521,-0.085,-0.015
6522,-0.090,-0.015
6523,-0.090,-0.015
6524,-0.090,-0.015
6525,-0.095,-0.015
6526,-0.105,-0.015
6527,-0.105,-0.015
6528,-0.100,-0.015
6529,-0.095,-0.025
6530,-0.095,-0.030
6531,-0.100,-0.030
6532,-0.105,-0.025
6533,-0.115,-0.030
6534,-0.120,-0.030
6535,-0.120,-0.030
6536,-0.120,-0.030
6537,-0.115,-0.035
6538,-0.105,-0.040
6539,-0.095,-0.030
6540,-0.095,-0.040
6541,-0.085,-0.045
6542,-0.065,-0.050
6543,-0.040,-0.035
6544,-0.020,-0.030
6545,-0.015,-0.050
6546,-0.005,-0.065
6547,-0.005,-0.070
6548,-0.020,-0.055
6549,-0.040,-0.050
6550,-0.070,-0.055
6551,-0.100,-0.050
6552,-0.120,-0.035
6553,-0.135,-0.025
6554,-0.135,-0.025
6555,-0.135,-0.025
6556,-0.135,-0.035
6557,-0.125,-0.035
6558,-0.070,0.045
6559,0.115,0.195
6560,0.450,0.345
6561,0.760,0.475
6562,0.795,0.395
6563,0.515,-0.075
6564,0.195,-0.725
6565,0.005,-0.620
6566,-0.085,-0.340
6567,-0.145,-0.160
6568,-0.180,-0.050
6569,-0.200,0.000
6570,-0.205,0.005
6571,-0.205,0.005
6572,-0.205,0.005
6573,-0.195,0.010
6574,-0.170,0.015
6575,-0.145,0.015
6576,-0.135,0.015
6577,-0.125,0.025
6578,-0.105,0.015
6579,-0.080,0.015
6580,-0.065,0.015
6581,-0.045,0.025
6582,-0.025,0.025
6583,-0.005,0.035
6584,0.010,0.055
6585,0.030,0.075
6586,0.070,0.085
6587,0.120,0.105
6588,0.170,0.125
6589,0.220,0.145
6590,0.260,0.165
6591,0.290,0.175
6592,0.305,0.180
6593,0.305,0.175
6594,0.295,0.160
6595,0.280,0.140
6596,0.255,0.125
6597,0.220,0.100
6598,0.185,0.075
6599,0.150,0.055
6600,0.125,0.035
6601,0.095,0.010
6602,0.065,0.000
6603,0.040,0.000
6604,0.020,0.000
6605,0.000,0.000
6606,-0.010,-0.020
6607,-0.025,-0.025
6608,-0.020,-0.040
6609,-0.015,-0.030
6610,-0.010,-0.040
6611,-0.005,-0.035
6612,0.000,-0.025
6613,0.015,-0.015
6614,0.015,-0.020
6615,0.015,-0.040
6616,0.015,-0.055
6617,0.010,-0.060
6618,-0.005,-0.050
6619,-0.040,-0.050
6620,-0.065,-0.060
6621,-0.090,-0.060
6622,-0.110,-0.045
6623,-0.135,-0.030
6624,-0.150,-0.030
6625,-0.160,-0.030
6626,-0.165,-0.035
6627,-0.190,-0.075
6628,-0.215,-0.045
6629,-0.140,0.050
6630,0.100,0.200
6631,0.420,0.325
6632,0.585,0.380
6633,0.480,0.055
6634,0.225,-0.540
6635,0.025,-0.715
6636,-0.075,-0.450
6637,-0.130,-0.200
6638,-0.170,-0.060
6639,-0.185,-0.005
6640,-0.190,0.000
6641,-0.185,0.000
6642,-0.170,0.000
6643,-0.155,0.005
6644,-0.145,0.000
6645,-0.140,0.000
6646,-0.130,0.005
6647,-0.125,0.005
6648,-0.105,0.015
6649,-0.085,0.015
6650,-0.070,0.010
6651,-0.050,0.005
6652,-0.030,0.030
6653,-0.015,0.035
6654,0.000,0.050
6655,0.030,0.055
6656,0.065,0.090
6657,0.100,0.105
6658,0.145,0.130
6659,0.195,0.135
6660,0.230,0.155
6661,0.245,0.160
6662,0.250,0.170
6663,0.245,0.145
6664,0.225,0.125
6665,0.205,0.105
6666,0.175,0.085
6667,0.140,0.055
6668,0.105,0.025
6669,0.075,0.005
6670,0.040,0.000
6671,0.025,0.000
6672,0.010,0.000
6673,0.000,-0.010
6674,-0.005,-0.020
6675,-0.020,-0.030
6676,-0.035,-0.035
6677,-0.045,-0.040
6678,-0.040,-0.040
6679,-0.030,-0.040
6680,-0.025,-0.035
6681,-0.010,-0.035
6682,0.000,-0.015
6683,0.010,-0.010
6684,0.015,-0.020
6685,0.015,-0.055
6686,0.010,-0.070
6687,0.005,-0.060
6688,-0.010,-0.050
6689,-0.045,-0.060
6690,-0.085,-0.055
6691,-0.115,-0.040
6692,-0.135,-0.030
6693,-0.140,-0.035
6694,-0.140,-0.030
6695,-0.140,-0.030
6696,-0.150,-0.045
6697,-0.190,-0.070
6698,-0.180,0.000
6699,-0.015,0.150
6700,0.310,0.315
6701,0.585,0.375
6702,0.575,0.355
6703,0.320,-0.355
6704,0.080,-0.810
6705,-0.035,-0.570
6706,-0.095,-0.280
6707,-0.130,-0.100
6708,-0.150,-0.025
6709,-0.160,0.000
6710,-0.160,0.000
6711,-0.150,0.000
6712,-0.145,0.000
6713,-0.135,0.005
6714,-0.120,0.010
6715,-0.105,0.010
6716,-0.090,0.015
6717,-0.080,0.015
6718,-0.060,0.015
6719,-0.040,0.005
6720,-0.025,0.010
6721,-0.005,0.015
6722,0.005,0.030
6723,0.025,0.040
6724,0.050,0.055
6725,0.090,0.075
6726,0.135,0.100
6727,0.190,0.125
6728,0.245,0.150
6729,0.290,0.180
6730,0.320,0.195
6731,0.335,0.195
6732,0.340,0.170
