'sample interval','ECG0','ECG1'
'0.0078125 sec','mV','mV'
0,0.325,0.265
1,0.325,0.285
2,0.335,0.285
3,0.325,0.285
4,0.315,0.285
5,0.295,0.265
6,0.245,0.235
7,0.205,0.195
8,0.145,0.145
9,0.085,0.085
10,0.025,0.025
11,-0.025,-0.025
12,-0.065,-0.065
13,-0.105,-0.095
14,-0.125,-0.125
15,-0.145,-0.135
16,-0.135,-0.135
17,-0.135,-0.145
18,-0.145,-0.145
19,-0.165,-0.135
20,-0.155,-0.135
21,-0.165,-0.145
22,-0.165,-0.145
23,-0.165,-0.145
24,-0.165,-0.125
25,-0.155,-0.135
26,-0.175,-0.145
27,-0.185,-0.135
28,-0.185,-0.145
29,-0.215,-0.155
30,-0.215,-0.165
31,-0.225,-0.165
32,-0.225,-0.165
33,-0.245,-0.175
34,-0.235,-0.175
35,-0.245,-0.175
36,-0.265,-0.175
37,-0.265,-0.185
38,-0.285,-0.195
39,-0.275,-0.195
40,-0.275,-0.185
41,-0.295,-0.195
42,-0.285,-0.195
43,-0.295,-0.205
44,-0.305,-0.195
45,-0.305,-0.195
46,-0.315,-0.205
47,-0.315,-0.205
48,-0.305,-0.195
49,-0.315,-0.195
50,-0.315,-0.205
51,-0.315,-0.195
52,-0.295,-0.185
53,-0.285,-0.165
54,-0.275,-0.175
55,-0.205,-0.165
56,-0.175,-0.105
57,-0.215,-0.095
58,-0.175,-0.145
59,-0.185,-0.145
60,-0.255,-0.155
61,-0.295,-0.225
62,-0.315,-0.225
63,-0.295,-0.215
64,-0.335,-0.195
65,-0.385,-0.215
66,-0.375,-0.245
67,-0.375,-0.225
68,-0.365,-0.215
69,-0.385,-0.225
70,-0.325,-0.225
71,-0.165,-0.095
72,0.165,0.255
73,0.315,0.505
74,0.735,-0.455
75,0.055,-1.135
76,-1.145,-1.255
77,-1.555,-1.495
78,-1.155,-1.005
79,-0.695,-0.565
80,-0.405,-0.185
81,-0.345,-0.025
82,-0.325,-0.015
83,-0.315,-0.025
84,-0.315,-0.015
85,-0.305,-0.005
86,-0.295,-0.005
87,-0.275,0.015
88,-0.265,0.035
89,-0.255,0.045
90,-0.225,0.055
91,-0.205,0.065
92,-0.185,0.105
93,-0.155,0.125
94,-0.135,0.145
95,-0.085,0.185
96,-0.055,0.225
97,-0.015,0.255
98,0.025,0.285
99,0.055,0.325
100,0.095,0.365
101,0.115,0.385
102,0.125,0.395
103,0.135,0.425
104,0.145,0.435
105,0.135,0.425
106,0.125,0.405
107,0.095,0.385
108,0.055,0.345
109,0.005,0.275
110,-0.045,0.185
111,-0.095,0.115
112,-0.165,0.055
113,-0.195,-0.015
114,-0.235,-0.055
115,-0.255,-0.075
116,-0.275,-0.095
117,-0.295,-0.115
118,-0.295,-0.135
119,-0.305,-0.125
120,-0.295,-0.125
121,-0.285,-0.125
122,-0.285,-0.125
123,-0.285,-0.105
124,-0.285,-0.105
125,-0.295,-0.115
126,-0.275,-0.115
127,-0.275,-0.115
128,-0.275,-0.105
129,-0.265,-0.115
130,-0.275,-0.125
131,-0.285,-0.135
132,-0.285,-0.125
133,-0.295,-0.145
134,-0.305,-0.145
135,-0.315,-0.155
136,-0.305,-0.155
137,-0.305,-0.155
138,-0.325,-0.165
139,-0.335,-0.165
140,-0.335,-0.165
141,-0.355,-0.175
142,-0.335,-0.175
143,-0.335,-0.175
144,-0.335,-0.165
145,-0.325,-0.175
146,-0.335,-0.175
147,-0.325,-0.185
148,-0.325,-0.175
149,-0.325,-0.175
150,-0.325,-0.185
151,-0.325,-0.175
152,-0.315,-0.165
153,-0.315,-0.175
154,-0.305,-0.165
155,-0.305,-0.165
156,-0.315,-0.165
157,-0.295,-0.165
158,-0.285,-0.165
159,-0.265,-0.135
160,-0.215,-0.135
161,-0.155,-0.095
162,-0.165,-0.075
163,-0.165,-0.105
164,-0.125,-0.095
165,-0.185,-0.105
166,-0.235,-0.165
167,-0.265,-0.195
168,-0.245,-0.185
169,-0.265,-0.165
170,-0.305,-0.175
171,-0.345,-0.195
172,-0.325,-0.195
173,-0.315,-0.185
174,-0.315,-0.185
175,-0.315,-0.185
176,-0.205,-0.175
177,-0.085,0.025
178,0.245,0.335
179,0.355,0.485
180,0.685,-0.515
181,-0.005,-1.165
182,-1.115,-1.265
183,-1.405,-1.415
184,-0.975,-0.865
185,-0.525,-0.435
186,-0.295,-0.085
187,-0.235,0.015
188,-0.225,0.025
189,-0.215,0.015
190,-0.215,0.025
191,-0.195,0.025
192,-0.175,0.065
193,-0.165,0.065
194,-0.145,0.065
195,-0.125,0.085
196,-0.105,0.105
197,-0.085,0.125
198,-0.055,0.135
199,-0.025,0.165
200,0.015,0.195
201,0.045,0.215
202,0.085,0.245
203,0.115,0.285
204,0.165,0.335
205,0.195,0.355
206,0.225,0.385
207,0.255,0.425
208,0.275,0.445
209,0.285,0.455
210,0.295,0.455
211,0.295,0.455
212,0.285,0.465
213,0.265,0.435
214,0.235,0.395
215,0.195,0.345
216,0.145,0.275
217,0.085,0.185
218,0.035,0.105
219,-0.015,0.035
220,-0.045,0.005
221,-0.065,-0.035
222,-0.075,-0.055
223,-0.075,-0.065
224,-0.085,-0.065
225,-0.095,-0.075
226,-0.075,-0.085
227,-0.075,-0.075
228,-0.065,-0.065
229,-0.055,-0.065
230,-0.045,-0.075
231,-0.045,-0.075
232,-0.035,-0.055
233,-0.045,-0.065
234,-0.025,-0.075
235,-0.025,-0.065
236,-0.035,-0.075
237,-0.025,-0.085
238,-0.045,-0.095
239,-0.035,-0.095
240,-0.035,-0.095
241,-0.035,-0.105
242,-0.045,-0.115
243,-0.045,-0.115
244,-0.055,-0.105
245,-0.055,-0.125
246,-0.045,-0.135
247,-0.045,-0.125
248,-0.035,-0.125
249,-0.045,-0.135
250,-0.035,-0.135
251,-0.035,-0.145
252,-0.025,-0.135
253,-0.035,-0.145
254,-0.025,-0.145
255,-0.015,-0.145
256,-0.005,-0.135
257,-0.005,-0.145
258,-0.005,-0.145
259,0.005,-0.135
260,0.005,-0.125
261,0.005,-0.145
262,0.015,-0.135
263,0.045,-0.115
264,0.055,-0.105
265,0.125,-0.115
266,0.155,-0.065
267,0.145,-0.065
268,0.175,-0.075
269,0.195,-0.065
270,0.145,-0.075
271,0.095,-0.135
272,0.075,-0.145
273,0.105,-0.145
274,0.065,-0.125
275,0.005,-0.135
276,0.005,-0.155
277,0.015,-0.165
278,0.025,-0.155
279,0.045,-0.145
280,0.045,-0.135
281,0.165,-0.125
282,0.265,0.085
283,0.535,0.365
284,0.755,0.565
285,0.935,-0.335
286,0.185,-0.945
287,-0.755,-1.185
288,-0.965,-1.205
289,-0.595,-0.755
290,-0.225,-0.425
291,0.015,-0.155
292,0.105,0.015
293,0.135,0.025
294,0.135,0.025
295,0.155,0.035
296,0.175,0.055
297,0.195,0.065
298,0.205,0.065
299,0.215,0.085
300,0.245,0.085
301,0.255,0.095
302,0.285,0.115
303,0.315,0.135
304,0.335,0.155
305,0.365,0.165
306,0.395,0.185
307,0.415,0.225
308,0.445,0.245
309,0.475,0.285
310,0.515,0.315
311,0.545,0.345
312,0.565,0.375
313,0.595,0.375
314,0.595,0.405
315,0.585,0.395
316,0.585,0.395
317,0.575,0.385
318,0.555,0.365
319,0.525,0.335
320,0.485,0.305
321,0.425,0.225
322,0.375,0.155
323,0.315,0.095
324,0.285,0.055
325,0.235,-0.005
326,0.205,-0.035
327,0.205,-0.045
328,0.205,-0.045
329,0.195,-0.065
330,0.195,-0.065
331,0.185,-0.065
332,0.195,-0.055
333,0.185,-0.065
334,0.185,-0.065
335,0.205,-0.065
336,0.205,-0.055
337,0.185,-0.055
338,0.205,-0.075
339,0.185,-0.065
340,0.185,-0.055
341,0.175,-0.085
342,0.165,-0.085
343,0.165,-0.095
344,0.155,-0.085
345,0.145,-0.105
346,0.145,-0.115
347,0.135,-0.105
348,0.135,-0.115
349,0.125,-0.115
350,0.115,-0.125
351,0.125,-0.125
352,0.125,-0.115
353,0.105,-0.125
354,0.115,-0.135
355,0.095,-0.135
356,0.105,-0.125
357,0.125,-0.125
358,0.105,-0.125
359,0.135,-0.125
360,0.185,-0.105
361,0.205,-0.075
362,0.225,-0.065
363,0.215,-0.075
364,0.255,-0.075
365,0.215,-0.065
366,0.135,-0.135
367,0.115,-0.165
368,0.145,-0.135
369,0.085,-0.125
370,0.045,-0.145
371,0.015,-0.165
372,0.025,-0.165
373,0.035,-0.165
374,0.035,-0.165
375,0.035,-0.155
376,0.095,-0.145
377,0.175,-0.015
378,0.415,0.225
379,0.685,0.655
380,1.145,0.125
381,0.565,-0.585
382,-0.445,-0.895
383,-0.945,-1.305
384,-0.825,-0.955
385,-0.525,-0.615
386,-0.205,-0.385
387,-0.035,-0.135
388,0.025,-0.015
389,0.055,-0.005
390,0.045,-0.005
391,0.065,-0.005
392,0.085,0.015
393,0.085,0.025
394,0.105,0.015
395,0.105,0.045
396,0.115,0.055
397,0.135,0.065
398,0.135,0.075
399,0.165,0.085
400,0.185,0.115
401,0.215,0.125
402,0.255,0.155
403,0.275,0.185
404,0.305,0.205
405,0.345,0.225
406,0.365,0.255
407,0.395,0.285
408,0.415,0.305
409,0.415,0.305
410,0.425,0.305
411,0.405,0.305
412,0.395,0.315
413,0.365,0.285
414,0.315,0.255
415,0.265,0.215
416,0.205,0.165
417,0.135,0.105
418,0.085,0.035
419,0.035,-0.005
420,0.005,-0.035
421,-0.025,-0.075
422,-0.055,-0.095
423,-0.065,-0.105
424,-0.065,-0.085
425,-0.055,-0.105
426,-0.085,-0.105
427,-0.085,-0.105
428,-0.085,-0.095
429,-0.095,-0.105
430,-0.095,-0.105
431,-0.095,-0.105
432,-0.095,-0.095
433,-0.105,-0.095
434,-0.105,-0.105
435,-0.125,-0.105
436,-0.135,-0.105
437,-0.145,-0.115
438,-0.155,-0.135
439,-0.165,-0.125
440,-0.175,-0.125
441,-0.175,-0.145
442,-0.185,-0.145
443,-0.205,-0.155
444,-0.205,-0.145
445,-0.235,-0.165
446,-0.235,-0.175
447,-0.235,-0.165
448,-0.245,-0.155
449,-0.235,-0.165
450,-0.245,-0.165
451,-0.255,-0.175
452,-0.265,-0.155
453,-0.275,-0.175
454,-0.275,-0.175
455,-0.255,-0.165
456,-0.245,-0.145
457,-0.195,-0.145
458,-0.155,-0.115
459,-0.145,-0.095
460,-0.175,-0.105
461,-0.145,-0.115
462,-0.175,-0.125
463,-0.235,-0.155
464,-0.265,-0.195
465,-0.285,-0.205
466,-0.265,-0.205
467,-0.315,-0.175
468,-0.365,-0.195
469,-0.355,-0.215
470,-0.365,-0.215
471,-0.345,-0.205
472,-0.345,-0.185
473,-0.335,-0.205
474,-0.175,-0.115
475,0.105,0.175
476,0.325,0.545
477,0.775,-0.165
478,0.175,-1.035
479,-1.045,-1.225
480,-1.575,-1.465
481,-1.175,-1.025
482,-0.705,-0.565
483,-0.425,-0.205
484,-0.345,-0.025
485,-0.325,-0.015
486,-0.335,-0.025
487,-0.315,-0.015
488,-0.305,-0.005
489,-0.305,0.005
490,-0.275,0.005
491,-0.265,0.035
492,-0.245,0.045
493,-0.235,0.055
494,-0.215,0.065
495,-0.175,0.095
496,-0.145,0.125
497,-0.115,0.145
498,-0.075,0.165
499,-0.055,0.195
500,-0.015,0.245
501,0.025,0.275
502,0.075,0.305
503,0.105,0.345
504,0.135,0.385
505,0.175,0.385
506,0.165,0.405
507,0.155,0.405
508,0.165,0.415
509,0.135,0.395
510,0.105,0.355
511,0.065,0.315
512,0.025,0.245
513,-0.035,0.165
514,-0.105,0.085
515,-0.155,0.005
516,-0.195,-0.035
517,-0.225,-0.075
518,-0.265,-0.115
519,-0.275,-0.125
520,-0.285,-0.135
521,-0.295,-0.145
522,-0.295,-0.155
523,-0.305,-0.155
524,-0.285,-0.155
525,-0.285,-0.145
526,-0.295,-0.155
527,-0.285,-0.145
528,-0.275,-0.135
529,-0.285,-0.135
530,-0.265,-0.135
531,-0.275,-0.135
532,-0.265,-0.125
533,-0.265,-0.145
534,-0.275,-0.165
535,-0.275,-0.165
536,-0.275,-0.155
537,-0.285,-0.165
538,-0.285,-0.185
539,-0.305,-0.175
540,-0.305,-0.165
541,-0.315,-0.185
542,-0.325,-0.185
543,-0.325,-0.185
544,-0.315,-0.195
545,-0.335,-0.185
546,-0.325,-0.205
547,-0.325,-0.185
548,-0.325,-0.195
549,-0.315,-0.205
550,-0.325,-0.205
551,-0.325,-0.205
552,-0.315,-0.185
553,-0.325,-0.205
554,-0.315,-0.205
555,-0.295,-0.195
556,-0.275,-0.175
557,-0.245,-0.165
558,-0.205,-0.155
559,-0.165,-0.115
560,-0.185,-0.115
561,-0.155,-0.145
562,-0.155,-0.145
563,-0.225,-0.175
564,-0.255,-0.225
565,-0.265,-0.225
566,-0.255,-0.225
567,-0.295,-0.205
568,-0.335,-0.215
569,-0.345,-0.235
570,-0.325,-0.245
571,-0.315,-0.225
572,-0.315,-0.215
573,-0.295,-0.225
574,-0.145,-0.145
575,0.095,0.135
576,0.315,0.545
577,0.695,-0.055
578,0.305,-1.045
579,-0.785,-1.255
580,-1.505,-1.465
581,-1.155,-1.115
582,-0.675,-0.615
583,-0.345,-0.235
584,-0.255,-0.025
585,-0.245,-0.015
586,-0.225,-0.035
587,-0.215,-0.025
588,-0.215,-0.015
589,-0.195,-0.015
590,-0.185,-0.005
591,-0.165,0.025
592,-0.135,0.045
593,-0.115,0.045
594,-0.095,0.075
595,-0.065,0.095
596,-0.025,0.115
597,-0.005,0.145
598,0.025,0.165
599,0.065,0.205
600,0.105,0.235
601,0.135,0.265
602,0.185,0.305
603,0.215,0.345
604,0.255,0.375
605,0.265,0.385
606,0.275,0.395
607,0.295,0.415
608,0.285,0.425
609,0.285,0.405
610,0.255,0.385
611,0.205,0.335
612,0.165,0.275
613,0.085,0.185
614,0.035,0.095
615,-0.015,0.025
616,-0.055,-0.015
617,-0.065,-0.065
618,-0.095,-0.085
619,-0.115,-0.095
620,-0.135,-0.105
621,-0.135,-0.125
622,-0.135,-0.135
623,-0.135,-0.125
624,-0.115,-0.125
625,-0.105,-0.125
626,-0.115,-0.125
627,-0.105,-0.115
628,-0.095,-0.115
629,-0.105,-0.115
630,-0.095,-0.115
631,-0.085,-0.115
632,-0.085,-0.105
633,-0.095,-0.125
634,-0.075,-0.135
635,-0.085,-0.135
636,-0.085,-0.135
637,-0.095,-0.155
638,-0.115,-0.165
639,-0.105,-0.165
640,-0.115,-0.155
641,-0.115,-0.165
642,-0.115,-0.165
643,-0.115,-0.175
644,-0.125,-0.175
645,-0.115,-0.175
646,-0.125,-0.175
647,-0.115,-0.175
648,-0.105,-0.175
649,-0.115,-0.185
650,-0.105,-0.185
651,-0.105,-0.185
652,-0.095,-0.175
653,-0.085,-0.185
654,-0.105,-0.195
655,-0.085,-0.185
656,-0.075,-0.175
657,-0.085,-0.175
658,-0.075,-0.185
659,-0.085,-0.185
660,-0.055,-0.175
661,-0.045,-0.175
662,-0.035,-0.165
663,0.035,-0.165
664,0.075,-0.115
665,0.055,-0.105
666,0.085,-0.135
667,0.115,-0.125
668,0.065,-0.115
669,0.005,-0.175
670,-0.035,-0.225
671,0.005,-0.215
672,-0.035,-0.175
673,-0.095,-0.195
674,-0.095,-0.215
675,-0.075,-0.215
676,-0.065,-0.205
677,-0.065,-0.205
678,-0.075,-0.215
679,0.075,-0.185
680,0.195,0.035
681,0.475,0.365
682,0.765,0.405
683,0.715,-0.685
684,-0.205,-1.145
685,-1.075,-1.345
686,-1.075,-1.245
687,-0.625,-0.795
688,-0.255,-0.435
689,-0.055,-0.155
690,0.005,-0.035
691,0.025,-0.015
692,0.035,-0.015
693,0.045,-0.015
694,0.055,-0.005
695,0.075,0.005
696,0.095,0.025
697,0.125,0.035
698,0.135,0.045
699,0.155,0.065
700,0.195,0.085
701,0.205,0.095
702,0.235,0.105
703,0.255,0.135
704,0.295,0.165
705,0.335,0.185
706,0.365,0.215
707,0.395,0.245
708,0.425,0.295
709,0.455,0.325
710,0.475,0.335
711,0.495,0.345
712,0.505,0.375
713,0.515,0.365
714,0.505,0.365
715,0.495,0.345
716,0.485,0.345
717,0.425,0.305
718,0.385,0.225
719,0.325,0.165
720,0.275,0.105
721,0.235,0.025
722,0.185,-0.015
723,0.155,-0.065
724,0.125,-0.075
725,0.115,-0.095
726,0.095,-0.115
727,0.105,-0.115
728,0.115,-0.115
729,0.115,-0.115
730,0.115,-0.115
731,0.105,-0.105
732,0.125,-0.105
733,0.125,-0.105
734,0.105,-0.115
735,0.115,-0.105
736,0.115,-0.105
737,0.115,-0.105
738,0.105,-0.125
739,0.105,-0.115
740,0.095,-0.115
741,0.095,-0.135
742,0.065,-0.145
743,0.085,-0.145
744,0.075,-0.145
745,0.055,-0.155
746,0.075,-0.155
747,0.065,-0.145
748,0.065,-0.155
749,0.055,-0.165
750,0.045,-0.175
751,0.055,-0.175
752,0.065,-0.165
753,0.045,-0.175
754,0.055,-0.185
755,0.045,-0.175
756,0.045,-0.175
757,0.045,-0.175
758,0.035,-0.175
759,0.065,-0.175
760,0.075,-0.155
761,0.065,-0.165
762,0.135,-0.165
763,0.165,-0.115
764,0.145,-0.105
765,0.185,-0.135
766,0.185,-0.125
767,0.135,-0.115
768,0.085,-0.175
769,0.075,-0.205
770,0.085,-0.185
771,0.035,-0.165
772,-0.005,-0.175
773,-0.025,-0.205
774,-0.005,-0.205
775,0.005,-0.195
776,0.015,-0.175
777,0.025,-0.185
778,0.135,-0.145
779,0.235,0.065
780,0.495,0.335
781,0.825,0.535
782,0.915,-0.225
783,0.085,-0.755
784,-0.805,-1.125
785,-0.965,-1.205
786,-0.635,-0.775
787,-0.305,-0.475
788,-0.055,-0.235
789,0.005,-0.055
790,0.045,-0.025
791,0.045,-0.025
792,0.055,-0.015
793,0.075,-0.015
794,0.085,-0.005
795,0.085,-0.005
796,0.095,0.015
797,0.115,0.025
798,0.135,0.025
799,0.155,0.045
800,0.175,0.065
801,0.205,0.085
802,0.215,0.105
803,0.245,0.105
804,0.265,0.155
805,0.285,0.175
806,0.325,0.195
807,0.365,0.225
808,0.385,0.265
809,0.415,0.285
810,0.425,0.285
811,0.425,0.285
812,0.425,0.305
813,0.405,0.295
814,0.385,0.285
815,0.375,0.275
816,0.335,0.255
817,0.265,0.205
818,0.215,0.145
819,0.145,0.085
820,0.085,0.035
821,0.035,-0.015
822,-0.005,-0.045
823,-0.025,-0.065
824,-0.035,-0.075
825,-0.055,-0.095
826,-0.055,-0.105
827,-0.065,-0.105
828,-0.065,-0.095
829,-0.075,-0.095
830,-0.085,-0.105
831,-0.075,-0.105
832,-0.075,-0.085
833,-0.085,-0.095
834,-0.095,-0.105
835,-0.095,-0.105
836,-0.105,-0.105
837,-0.115,-0.115
838,-0.135,-0.125
839,-0.135,-0.125
840,-0.145,-0.125
841,-0.155,-0.135
842,-0.165,-0.135
843,-0.175,-0.145
844,-0.195,-0.145
845,-0.215,-0.145
846,-0.215,-0.165
847,-0.215,-0.165
848,-0.225,-0.165
849,-0.235,-0.165
850,-0.235,-0.175
851,-0.255,-0.175
852,-0.255,-0.175
853,-0.265,-0.175
854,-0.265,-0.185
855,-0.265,-0.175
856,-0.275,-0.175
857,-0.255,-0.185
858,-0.275,-0.175
859,-0.285,-0.175
860,-0.275,-0.165
861,-0.265,-0.155
862,-0.235,-0.155
863,-0.175,-0.135
864,-0.155,-0.085
865,-0.175,-0.095
866,-0.145,-0.125
867,-0.165,-0.125
868,-0.225,-0.125
869,-0.265,-0.205
870,-0.285,-0.215
871,-0.265,-0.215
872,-0.295,-0.175
873,-0.355,-0.195
874,-0.365,-0.215
875,-0.365,-0.215
876,-0.355,-0.205
877,-0.345,-0.205
878,-0.385,-0.215
879,-0.245,-0.205
880,-0.095,0.015
881,0.235,0.385
882,0.435,0.395
883,0.665,-0.615
884,-0.185,-1.155
885,-1.295,-1.305
886,-1.485,-1.405
887,-1.025,-0.855
888,-0.565,-0.415
889,-0.385,-0.095
890,-0.325,-0.015
891,-0.325,-0.015
892,-0.315,-0.015
893,-0.315,-0.015
894,-0.315,-0.015
895,-0.275,-0.005
896,-0.285,0.025
897,-0.275,0.025
898,-0.235,0.025
899,-0.225,0.075
900,-0.195,0.085
901,-0.165,0.095
902,-0.145,0.125
903,-0.105,0.155
904,-0.075,0.185
905,-0.055,0.205
906,-0.015,0.245
907,0.025,0.275
908,0.065,0.325
909,0.095,0.355
910,0.115,0.375
911,0.145,0.395
912,0.145,0.425
913,0.135,0.405
914,0.135,0.415
915,0.115,0.395
916,0.085,0.365
917,0.045,0.315
918,-0.015,0.235
919,-0.065,0.155
920,-0.125,0.085
921,-0.185,0.005
922,-0.225,-0.045
923,-0.255,-0.085
924,-0.275,-0.095
925,-0.285,-0.125
926,-0.315,-0.145
927,-0.315,-0.145
928,-0.315,-0.145
929,-0.315,-0.165
930,-0.305,-0.165
931,-0.305,-0.155
932,-0.285,-0.135
933,-0.295,-0.135
934,-0.305,-0.145
935,-0.295,-0.145
936,-0.285,-0.135
937,-0.285,-0.135
938,-0.285,-0.145
939,-0.295,-0.155
940,-0.295,-0.155
941,-0.305,-0.175
942,-0.325,-0.185
943,-0.315,-0.185
944,-0.325,-0.175
945,-0.325,-0.185
946,-0.315,-0.195
947,-0.325,-0.185
948,-0.325,-0.195
949,-0.325,-0.195
950,-0.345,-0.215
951,-0.315,-0.205
952,-0.315,-0.195
953,-0.315,-0.205
954,-0.305,-0.215
955,-0.315,-0.205
956,-0.305,-0.215
957,-0.305,-0.205
958,-0.295,-0.205
959,-0.285,-0.195
960,-0.275,-0.195
961,-0.275,-0.215
962,-0.265,-0.215
963,-0.255,-0.215
964,-0.245,-0.185
965,-0.235,-0.205
966,-0.215,-0.195
967,-0.165,-0.185
968,-0.115,-0.145
969,-0.085,-0.125
970,-0.105,-0.135
971,-0.055,-0.135
972,-0.055,-0.125
973,-0.135,-0.175
974,-0.165,-0.225
975,-0.145,-0.215
976,-0.155,-0.205
977,-0.175,-0.195
978,-0.215,-0.215
979,-0.205,-0.225
980,-0.185,-0.215
981,-0.185,-0.215
982,-0.185,-0.215
983,-0.085,-0.205
984,0.025,-0.075
985,0.315,0.175
986,0.475,0.595
987,0.915,-0.025
988,0.425,-0.855
989,-0.625,-1.075
990,-1.245,-1.415
991,-0.995,-1.075
992,-0.595,-0.655
993,-0.225,-0.355
994,-0.105,-0.095
995,-0.065,-0.035
996,-0.045,-0.025
997,-0.035,-0.015
998,-0.035,-0.025
999,-0.005,-0.005
1000,0.015,0.015
1001,0.055,0.005
1002,0.055,0.005
1003,0.075,0.035
1004,0.095,0.055
1005,0.115,0.065
1006,0.155,0.065
1007,0.185,0.105
1008,0.215,0.125
1009,0.235,0.155
1010,0.275,0.175
1011,0.305,0.205
1012,0.355,0.245
1013,0.375,0.265
1014,0.405,0.285
1015,0.435,0.305
1016,0.445,0.335
1017,0.455,0.345
1018,0.455,0.325
1019,0.445,0.325
1020,0.435,0.335
1021,0.415,0.305
1022,0.375,0.265
1023,0.315,0.205
1024,0.265,0.145
1025,0.215,0.065
1026,0.175,-0.005
1027,0.115,-0.035
1028,0.095,-0.075
1029,0.065,-0.095
1030,0.055,-0.125
1031,0.055,-0.135
1032,0.045,-0.115
1033,0.045,-0.135
1034,0.055,-0.145
1035,0.055,-0.125
1036,0.065,-0.125
1037,0.055,-0.125
1038,0.055,-0.135
1039,0.065,-0.135
1040,0.065,-0.115
1041,0.065,-0.135
1042,0.065,-0.125
1043,0.065,-0.135
1044,0.055,-0.135
1045,0.055,-0.155
1046,0.035,-0.155
1047,0.055,-0.155
1048,0.045,-0.145
1049,0.035,-0.165
1050,0.045,-0.175
1051,0.035,-0.165
1052,0.025,-0.165
1053,0.025,-0.175
1054,0.005,-0.185
1055,0.025,-0.195
1056,0.025,-0.185
1057,0.015,-0.185
1058,0.025,-0.195
1059,0.015,-0.195
1060,0.045,-0.185
1061,0.045,-0.175
1062,0.055,-0.175
1063,0.115,-0.155
1064,0.135,-0.115
1065,0.105,-0.125
1066,0.165,-0.145
1067,0.165,-0.125
1068,0.095,-0.135
1069,0.035,-0.215
1070,0.035,-0.215
1071,0.025,-0.195
1072,-0.025,-0.185
1073,-0.065,-0.215
1074,-0.065,-0.235
1075,-0.055,-0.225
1076,-0.035,-0.215
1077,-0.035,-0.195
1078,-0.055,-0.215
1079,0.075,-0.165
1080,0.215,0.075
1081,0.505,0.455
1082,1.055,0.345
1083,0.715,-0.475
1084,-0.335,-0.815
1085,-1.015,-1.325
1086,-1.015,-1.125
1087,-0.655,-0.725
1088,-0.345,-0.475
1089,-0.145,-0.225
1090,-0.065,-0.085
1091,-0.045,-0.045
1092,-0.025,-0.035
1093,-0.025,-0.035
1094,-0.015,-0.035
1095,-0.005,-0.015
1096,0.015,0.005
1097,0.035,0.005
1098,0.045,0.015
1099,0.065,0.025
1100,0.085,0.045
1101,0.095,0.045
1102,0.125,0.075
1103,0.165,0.105
1104,0.195,0.125
1105,0.235,0.155
1106,0.265,0.175
1107,0.295,0.215
1108,0.325,0.245
1109,0.345,0.255
1110,0.355,0.275
1111,0.375,0.295
1112,0.375,0.305
1113,0.365,0.285
1114,0.345,0.285
1115,0.305,0.265
1116,0.265,0.245
1117,0.185,0.185
1118,0.145,0.145
1119,0.075,0.085
1120,0.015,0.045
1121,-0.015,-0.015
1122,-0.065,-0.055
1123,-0.095,-0.085
1124,-0.115,-0.085
1125,-0.135,-0.105
1126,-0.135,-0.125
1127,-0.135,-0.115
1128,-0.135,-0.115
1129,-0.135,-0.105
1130,-0.145,-0.115
1131,-0.155,-0.105
1132,-0.145,-0.095
1133,-0.165,-0.115
1134,-0.155,-0.115
1135,-0.155,-0.095
1136,-0.155,-0.105
1137,-0.155,-0.105
1138,-0.175,-0.115
1139,-0.185,-0.115
1140,-0.205,-0.105
1141,-0.215,-0.125
1142,-0.215,-0.135
1143,-0.225,-0.135
1144,-0.235,-0.135
1145,-0.235,-0.145
1146,-0.245,-0.145
1147,-0.255,-0.135
1148,-0.265,-0.145
1149,-0.265,-0.155
1150,-0.275,-0.165
1151,-0.275,-0.165
1152,-0.275,-0.155
1153,-0.285,-0.165
1154,-0.275,-0.165
1155,-0.285,-0.155
1156,-0.285,-0.165
1157,-0.275,-0.165
1158,-0.295,-0.165
1159,-0.255,-0.155
1160,-0.235,-0.125
1161,-0.195,-0.135
1162,-0.145,-0.085
1163,-0.155,-0.075
1164,-0.155,-0.095
1165,-0.145,-0.105
1166,-0.185,-0.115
1167,-0.235,-0.145
1168,-0.265,-0.195
1169,-0.275,-0.185
1170,-0.275,-0.185
1171,-0.325,-0.165
1172,-0.355,-0.175
1173,-0.345,-0.195
1174,-0.355,-0.195
1175,-0.335,-0.185
1176,-0.345,-0.175
1177,-0.265,-0.175
1178,-0.115,-0.025
1179,0.215,0.305
1180,0.405,0.535
1181,0.765,-0.425
1182,-0.065,-1.085
1183,-1.245,-1.235
1184,-1.455,-1.375
1185,-0.985,-0.835
1186,-0.555,-0.425
1187,-0.355,-0.105
1188,-0.305,0.005
1189,-0.295,0.015
1190,-0.285,0.005
1191,-0.265,0.015
1192,-0.255,0.035
1193,-0.245,0.045
1194,-0.235,0.045
1195,-0.215,0.065
1196,-0.185,0.085
1197,-0.175,0.085
1198,-0.155,0.105
1199,-0.115,0.135
1200,-0.085,0.165
1201,-0.065,0.185
1202,-0.015,0.205
1203,0.015,0.245
1204,0.055,0.285
1205,0.085,0.325
1206,0.135,0.355
1207,0.165,0.395
1208,0.195,0.435
1209,0.215,0.445
1210,0.215,0.455
1211,0.205,0.455
1212,0.205,0.455
1213,0.185,0.435
1214,0.155,0.405
1215,0.115,0.355
1216,0.065,0.285
1217,0.005,0.195
1218,-0.065,0.105
1219,-0.115,0.045
1220,-0.155,0.005
1221,-0.195,-0.035
1222,-0.195,-0.065
1223,-0.205,-0.075
1224,-0.215,-0.075
1225,-0.205,-0.085
1226,-0.215,-0.095
1227,-0.225,-0.085
1228,-0.205,-0.085
1229,-0.225,-0.085
1230,-0.215,-0.085
1231,-0.205,-0.085
1232,-0.195,-0.065
1233,-0.195,-0.075
1234,-0.195,-0.075
1235,-0.195,-0.075
1236,-0.185,-0.075
1237,-0.205,-0.085
1238,-0.205,-0.095
1239,-0.205,-0.095
1240,-0.215,-0.095
1241,-0.205,-0.105
1242,-0.215,-0.105
1243,-0.225,-0.105
1244,-0.235,-0.105
1245,-0.255,-0.115
1246,-0.245,-0.135
1247,-0.245,-0.135
1248,-0.255,-0.125
1249,-0.255,-0.135
1250,-0.255,-0.135
1251,-0.255,-0.135
1252,-0.255,-0.125
1253,-0.255,-0.135
1254,-0.265,-0.145
1255,-0.245,-0.135
1256,-0.245,-0.135
1257,-0.255,-0.125
1258,-0.245,-0.145
1259,-0.235,-0.125
1260,-0.205,-0.105
1261,-0.165,-0.115
1262,-0.135,-0.095
1263,-0.105,-0.065
1264,-0.125,-0.055
1265,-0.085,-0.095
1266,-0.095,-0.085
1267,-0.165,-0.095
1268,-0.205,-0.175
1269,-0.215,-0.175
1270,-0.215,-0.165
1271,-0.245,-0.155
1272,-0.285,-0.155
1273,-0.295,-0.175
1274,-0.275,-0.185
1275,-0.265,-0.165
1276,-0.265,-0.155
1277,-0.245,-0.155
1278,-0.105,-0.095
1279,0.115,0.165
1280,0.365,0.585
1281,0.665,0.125
1282,0.475,-0.845
1283,-0.555,-1.135
1284,-1.425,-1.365
1285,-1.215,-1.175
1286,-0.725,-0.675
1287,-0.345,-0.275
1288,-0.225,-0.005
1289,-0.205,0.035
1290,-0.185,0.025
1291,-0.175,0.025
1292,-0.165,0.045
1293,-0.155,0.055
1294,-0.155,0.045
1295,-0.125,0.065
1296,-0.095,0.085
1297,-0.085,0.105
1298,-0.055,0.105
1299,-0.035,0.135
1300,0.005,0.165
1301,0.035,0.185
1302,0.055,0.205
1303,0.105,0.245
1304,0.135,0.285
1305,0.165,0.305
1306,0.215,0.335
1307,0.245,0.385
1308,0.285,0.425
1309,0.295,0.435
1310,0.295,0.435
1311,0.315,0.455
1312,0.315,0.465
1313,0.295,0.445
1314,0.275,0.435
1315,0.225,0.395
1316,0.185,0.325
1317,0.125,0.255
1318,0.055,0.155
1319,0.005,0.095
1320,-0.045,0.035
1321,-0.065,-0.015
1322,-0.095,-0.045
1323,-0.115,-0.065
1324,-0.125,-0.065
1325,-0.145,-0.085
1326,-0.135,-0.095
1327,-0.125,-0.085
1328,-0.115,-0.085
1329,-0.105,-0.085
1330,-0.115,-0.085
1331,-0.115,-0.085
1332,-0.105,-0.075
1333,-0.115,-0.075
1334,-0.115,-0.085
1335,-0.105,-0.075
1336,-0.105,-0.075
1337,-0.095,-0.085
1338,-0.115,-0.095
1339,-0.125,-0.105
1340,-0.125,-0.105
1341,-0.145,-0.115
1342,-0.155,-0.125
1343,-0.145,-0.135
1344,-0.155,-0.125
1345,-0.165,-0.135
1346,-0.165,-0.145
1347,-0.175,-0.135
1348,-0.165,-0.145
1349,-0.175,-0.145
1350,-0.185,-0.155
1351,-0.175,-0.155
1352,-0.165,-0.145
1353,-0.185,-0.155
1354,-0.175,-0.165
1355,-0.175,-0.155
1356,-0.165,-0.155
1357,-0.165,-0.155
1358,-0.165,-0.165
1359,-0.155,-0.165
1360,-0.155,-0.155
1361,-0.165,-0.155
1362,-0.135,-0.155
1363,-0.125,-0.135
1364,-0.095,-0.125
1365,-0.045,-0.115
1366,-0.015,-0.085
1367,-0.045,-0.085
1368,0.015,-0.105
1369,-0.005,-0.095
1370,-0.065,-0.125
1371,-0.115,-0.195
1372,-0.115,-0.185
1373,-0.115,-0.175
1374,-0.175,-0.175
1375,-0.205,-0.185
1376,-0.195,-0.195
1377,-0.175,-0.195
1378,-0.175,-0.185
1379,-0.195,-0.175
1380,-0.125,-0.165
1381,-0.005,-0.075
1382,0.275,0.195
1383,0.435,0.565
1384,0.825,-0.135
1385,0.255,-0.995
1386,-0.875,-1.175
1387,-1.355,-1.415
1388,-0.935,-0.995
1389,-0.515,-0.545
1390,-0.225,-0.225
1391,-0.145,-0.025
1392,-0.105,0.005
1393,-0.095,-0.005
1394,-0.095,0.005
1395,-0.085,0.015
1396,-0.075,0.025
1397,-0.065,0.025
1398,-0.045,0.035
1399,-0.025,0.065
1400,0.005,0.085
1401,0.045,0.085
1402,0.065,0.105
1403,0.085,0.135
1404,0.115,0.155
1405,0.135,0.175
1406,0.175,0.205
1407,0.215,0.245
1408,0.255,0.285
1409,0.305,0.315
1410,0.325,0.345
1411,0.355,0.385
1412,0.375,0.405
1413,0.375,0.405
1414,0.385,0.405
1415,0.385,0.425
1416,0.375,0.405
1417,0.365,0.395
1418,0.325,0.355
1419,0.285,0.315
1420,0.225,0.245
1421,0.155,0.155
1422,0.115,0.075
1423,0.055,0.005
1424,0.035,-0.025
1425,0.015,-0.065
1426,0.005,-0.075
1427,-0.015,-0.085
1428,-0.025,-0.105
1429,-0.025,-0.115
1430,-0.035,-0.125
1431,-0.015,-0.115
1432,-0.005,-0.105
1433,-0.005,-0.105
1434,0.015,-0.115
1435,0.005,-0.105
1436,0.005,-0.105
1437,0.015,-0.105
1438,0.005,-0.115
1439,0.015,-0.125
1440,0.005,-0.115
1441,0.005,-0.125
1442,0.005,-0.135
1443,-0.005,-0.135
1444,-0.015,-0.145
1445,-0.025,-0.145
1446,-0.035,-0.165
1447,-0.025,-0.175
1448,-0.035,-0.165
1449,-0.035,-0.175
1450,-0.015,-0.175
1451,-0.035,-0.175
1452,-0.035,-0.175
1453,-0.035,-0.185
1454,-0.035,-0.185
1455,-0.035,-0.195
1456,-0.025,-0.195
1457,-0.025,-0.185
1458,-0.005,-0.185
1459,-0.015,-0.195
1460,-0.015,-0.185
1461,-0.015,-0.185
1462,-0.025,-0.205
1463,-0.005,-0.205
1464,0.005,-0.185
1465,0.025,-0.175
1466,0.045,-0.175
1467,0.055,-0.165
1468,0.125,-0.145
1469,0.135,-0.115
1470,0.115,-0.125
1471,0.175,-0.135
1472,0.165,-0.115
1473,0.085,-0.145
1474,0.075,-0.215
1475,0.065,-0.205
1476,0.065,-0.185
1477,0.015,-0.185
1478,-0.015,-0.215
1479,-0.005,-0.225
1480,0.025,-0.205
1481,0.015,-0.205
1482,0.015,-0.205
1483,0.145,-0.185
1484,0.245,-0.005
1485,0.515,0.275
1486,0.735,0.515
1487,0.885,-0.345
1488,0.075,-0.955
1489,-0.815,-1.255
1490,-0.935,-1.225
1491,-0.535,-0.765
1492,-0.165,-0.435
1493,0.005,-0.165
1494,0.085,-0.065
1495,0.105,-0.035
1496,0.115,-0.025
1497,0.145,-0.035
1498,0.145,-0.015
1499,0.155,-0.005
1500,0.175,0.005
1501,0.185,0.015
1502,0.215,0.005
1503,0.235,0.035
1504,0.255,0.055
1505,0.305,0.075
1506,0.315,0.095
1507,0.345,0.115
1508,0.375,0.145
1509,0.385,0.165
1510,0.425,0.185
1511,0.455,0.225
1512,0.505,0.265
1513,0.545,0.285
1514,0.545,0.315
1515,0.545,0.315
1516,0.555,0.325
1517,0.555,0.325
1518,0.555,0.315
1519,0.545,0.315
1520,0.535,0.315
1521,0.505,0.265
1522,0.455,0.235
1523,0.405,0.175
1524,0.345,0.105
1525,0.265,0.035
1526,0.235,-0.025
1527,0.215,-0.045
1528,0.195,-0.075
1529,0.185,-0.095
1530,0.175,-0.095
1531,0.175,-0.105
1532,0.165,-0.095
1533,0.175,-0.105
1534,0.165,-0.105
1535,0.175,-0.105
1536,0.175,-0.105
1537,0.175,-0.105
1538,0.175,-0.115
1539,0.175,-0.105
1540,0.165,-0.105
1541,0.165,-0.115
1542,0.145,-0.135
1543,0.145,-0.135
1544,0.155,-0.135
1545,0.145,-0.135
1546,0.135,-0.145
1547,0.125,-0.155
1548,0.125,-0.145
1549,0.115,-0.155
1550,0.095,-0.165
1551,0.105,-0.165
1552,0.105,-0.155
1553,0.095,-0.175
1554,0.095,-0.175
1555,0.095,-0.175
1556,0.105,-0.175
1557,0.085,-0.185
1558,0.095,-0.185
1559,0.115,-0.165
1560,0.125,-0.155
1561,0.175,-0.165
1562,0.205,-0.105
1563,0.195,-0.105
1564,0.215,-0.115
1565,0.235,-0.115
1566,0.185,-0.115
1567,0.125,-0.165
1568,0.105,-0.195
1569,0.125,-0.185
1570,0.085,-0.165
1571,0.015,-0.195
1572,0.015,-0.205
1573,0.015,-0.205
1574,0.025,-0.205
1575,0.045,-0.195
1576,0.025,-0.175
1577,0.125,-0.175
1578,0.205,-0.025
1579,0.465,0.245
1580,0.815,0.575
1581,1.005,-0.145
1582,0.215,-0.725
1583,-0.685,-1.085
1584,-0.985,-1.275
1585,-0.705,-0.885
1586,-0.415,-0.575
1587,-0.115,-0.335
1588,0.005,-0.095
1589,0.035,-0.045
1590,0.045,-0.035
1591,0.065,-0.025
1592,0.065,-0.015
1593,0.095,-0.015
1594,0.095,-0.005
1595,0.095,0.005
1596,0.115,0.025
1597,0.115,0.025
1598,0.145,0.025
1599,0.175,0.065
1600,0.195,0.085
1601,0.225,0.095
1602,0.245,0.125
1603,0.275,0.145
1604,0.305,0.185
1605,0.325,0.205
1606,0.375,0.225
1607,0.405,0.265
1608,0.415,0.285
1609,0.445,0.295
1610,0.435,0.305
1611,0.425,0.295
1612,0.425,0.305
1613,0.405,0.295
1614,0.375,0.275
1615,0.325,0.245
1616,0.265,0.205
1617,0.235,0.145
1618,0.155,0.085
1619,0.105,0.025
1620,0.065,-0.015
1621,0.025,-0.055
1622,-0.005,-0.075
1623,-0.015,-0.095
1624,-0.035,-0.095
1625,-0.025,-0.115
1626,-0.035,-0.125
1627,-0.045,-0.105
1628,-0.045,-0.095
1629,-0.055,-0.105
1630,-0.065,-0.105
1631,-0.045,-0.115
1632,-0.045,-0.095
1633,-0.065,-0.095
1634,-0.045,-0.105
1635,-0.065,-0.105
1636,-0.065,-0.105
1637,-0.075,-0.115
1638,-0.095,-0.125
1639,-0.105,-0.135
1640,-0.105,-0.125
1641,-0.115,-0.135
1642,-0.115,-0.145
1643,-0.125,-0.145
1644,-0.135,-0.145
1645,-0.145,-0.155
1646,-0.175,-0.165
1647,-0.165,-0.165
1648,-0.165,-0.155
1649,-0.185,-0.165
1650,-0.175,-0.175
1651,-0.185,-0.175
1652,-0.185,-0.165
1653,-0.185,-0.165
1654,-0.215,-0.175
1655,-0.195,-0.175
1656,-0.175,-0.155
1657,-0.175,-0.145
1658,-0.105,-0.155
1659,-0.075,-0.105
1660,-0.095,-0.085
1661,-0.065,-0.115
1662,-0.075,-0.125
1663,-0.125,-0.125
1664,-0.175,-0.175
1665,-0.195,-0.205
1666,-0.185,-0.195
1667,-0.215,-0.175
1668,-0.265,-0.175
1669,-0.285,-0.205
1670,-0.285,-0.215
1671,-0.265,-0.215
1672,-0.255,-0.185
1673,-0.275,-0.195
1674,-0.115,-0.165
1675,0.065,0.105
1676,0.365,0.525
1677,0.605,0.275
1678,0.625,-0.745
1679,-0.305,-1.145
1680,-1.345,-1.335
1681,-1.315,-1.295
1682,-0.815,-0.765
1683,-0.405,-0.345
1684,-0.275,-0.045
1685,-0.255,-0.005
1686,-0.245,-0.015
1687,-0.235,-0.005
1688,-0.225,0.005
1689,-0.215,0.015
1690,-0.205,0.025
1691,-0.195,0.025
1692,-0.175,0.055
1693,-0.175,0.065
1694,-0.135,0.075
1695,-0.105,0.105
1696,-0.075,0.125
1697,-0.035,0.145
1698,-0.015,0.175
1699,0.005,0.205
1700,0.045,0.245
1701,0.075,0.265
1702,0.115,0.305
1703,0.145,0.345
1704,0.185,0.385
1705,0.225,0.405
1706,0.225,0.415
1707,0.225,0.425
1708,0.225,0.435
1709,0.205,0.425
1710,0.185,0.395
1711,0.155,0.365
1712,0.115,0.325
1713,0.075,0.235
1714,-0.005,0.165
1715,-0.065,0.075
1716,-0.115,0.005
1717,-0.175,-0.035
1718,-0.185,-0.085
1719,-0.195,-0.085
1720,-0.215,-0.105
1721,-0.205,-0.115
1722,-0.225,-0.125
1723,-0.235,-0.125
1724,-0.225,-0.125
1725,-0.235,-0.115
1726,-0.225,-0.125
1727,-0.215,-0.115
1728,-0.205,-0.105
1729,-0.195,-0.105
1730,-0.205,-0.105
1731,-0.205,-0.115
1732,-0.205,-0.115
1733,-0.225,-0.125
1734,-0.225,-0.135
1735,-0.225,-0.135
1736,-0.225,-0.135
1737,-0.225,-0.145
1738,-0.245,-0.155
1739,-0.255,-0.145
1740,-0.265,-0.155
1741,-0.265,-0.165
1742,-0.275,-0.175
1743,-0.275,-0.175
1744,-0.275,-0.165
1745,-0.295,-0.175
1746,-0.275,-0.175
1747,-0.295,-0.165
1748,-0.275,-0.165
1749,-0.275,-0.175
1750,-0.295,-0.185
1751,-0.275,-0.185
1752,-0.275,-0.165
1753,-0.285,-0.175
1754,-0.275,-0.185
1755,-0.275,-0.175
1756,-0.255,-0.165
1757,-0.235,-0.155
1758,-0.215,-0.145
1759,-0.155,-0.135
1760,-0.135,-0.085
1761,-0.165,-0.095
1762,-0.115,-0.125
1763,-0.135,-0.125
1764,-0.205,-0.155
1765,-0.245,-0.215
1766,-0.245,-0.215
1767,-0.245,-0.185
1768,-0.295,-0.185
1769,-0.335,-0.205
1770,-0.315,-0.225
1771,-0.305,-0.215
1772,-0.295,-0.195
1773,-0.335,-0.205
1774,-0.175,-0.195
1775,-0.025,0.025
1776,0.305,0.425
1777,0.515,0.345
1778,0.585,-0.705
1779,-0.375,-1.185
1780,-1.355,-1.335
1781,-1.415,-1.355
1782,-0.905,-0.875
1783,-0.455,-0.425
1784,-0.285,-0.075
1785,-0.215,-0.005
1786,-0.235,-0.005
1787,-0.225,-0.005
1788,-0.215,0.005
1789,-0.215,0.005
1790,-0.195,0.015
1791,-0.175,0.025
1792,-0.155,0.055
1793,-0.145,0.055
1794,-0.115,0.075
1795,-0.095,0.095
1796,-0.065,0.125
1797,-0.045,0.145
1798,-0.005,0.165
1799,0.025,0.205
1800,0.065,0.225
1801,0.095,0.265
1802,0.135,0.285
1803,0.165,0.335
1804,0.205,0.375
1805,0.215,0.395
1806,0.235,0.415
1807,0.255,0.425
1808,0.265,0.445
1809,0.255,0.445
1810,0.235,0.425
1811,0.215,0.405
1812,0.175,0.365
1813,0.115,0.305
1814,0.065,0.225
1815,0.015,0.145
1816,-0.045,0.065
1817,-0.085,0.015
1818,-0.125,-0.035
1819,-0.155,-0.055
1820,-0.155,-0.075
1821,-0.195,-0.095
1822,-0.185,-0.105
1823,-0.185,-0.115
1824,-0.175,-0.105
1825,-0.155,-0.095
1826,-0.165,-0.105
1827,-0.165,-0.095
1828,-0.155,-0.095
1829,-0.165,-0.105
1830,-0.165,-0.115
1831,-0.155,-0.105
1832,-0.155,-0.095
1833,-0.145,-0.105
1834,-0.155,-0.105
1835,-0.165,-0.115
1836,-0.165,-0.115
1837,-0.185,-0.125
1838,-0.195,-0.145
1839,-0.195,-0.145
1840,-0.205,-0.145
1841,-0.195,-0.165
1842,-0.215,-0.165
1843,-0.225,-0.155
1844,-0.225,-0.155
1845,-0.235,-0.165
1846,-0.235,-0.175
1847,-0.225,-0.175
1848,-0.215,-0.165
1849,-0.215,-0.165
1850,-0.215,-0.175
1851,-0.225,-0.175
1852,-0.215,-0.165
1853,-0.225,-0.175
1854,-0.225,-0.175
1855,-0.215,-0.185
1856,-0.205,-0.165
1857,-0.205,-0.165
1858,-0.205,-0.175
1859,-0.185,-0.165
1860,-0.165,-0.135
1861,-0.125,-0.155
1862,-0.075,-0.125
1863,-0.065,-0.095
1864,-0.075,-0.095
1865,-0.035,-0.115
1866,-0.075,-0.115
1867,-0.145,-0.165
1868,-0.175,-0.205
1869,-0.165,-0.195
1870,-0.195,-0.195
1871,-0.235,-0.185
1872,-0.255,-0.195
1873,-0.225,-0.215
1874,-0.225,-0.215
1875,-0.225,-0.195
1876,-0.245,-0.185
1877,-0.105,-0.175
1878,0.035,0.015
1879,0.325,0.405
1880,0.555,0.385
1881,0.605,-0.695
1882,-0.345,-1.195
1883,-1.285,-1.345
1884,-1.285,-1.325
1885,-0.795,-0.845
1886,-0.355,-0.415
1887,-0.205,-0.085
1888,-0.155,0.005
1889,-0.125,-0.005
1890,-0.145,-0.005
1891,-0.125,-0.005
1892,-0.105,0.015
1893,-0.115,0.025
1894,-0.085,0.025
1895,-0.065,0.045
1896,-0.045,0.055
1897,-0.005,0.065
1898,0.005,0.095
1899,0.035,0.115
1900,0.065,0.135
1901,0.085,0.155
1902,0.125,0.185
1903,0.165,0.215
1904,0.195,0.265
1905,0.235,0.275
1906,0.265,0.315
1907,0.305,0.345
1908,0.325,0.385
1909,0.335,0.385
1910,0.345,0.395
1911,0.355,0.405
1912,0.345,0.415
1913,0.345,0.405
1914,0.315,0.385
1915,0.285,0.355
1916,0.245,0.295
1917,0.185,0.225
1918,0.135,0.125
1919,0.085,0.075
1920,0.045,0.015
1921,0.015,-0.035
1922,-0.005,-0.065
1923,-0.025,-0.095
1924,-0.035,-0.095
1925,-0.045,-0.115
1926,-0.045,-0.125
1927,-0.035,-0.105
1928,-0.035,-0.105
1929,-0.035,-0.105
1930,-0.015,-0.115
1931,-0.015,-0.105
1932,0.005,-0.095
1933,-0.015,-0.105
1934,-0.015,-0.115
1935,-0.015,-0.115
1936,-0.005,-0.125
1937,-0.025,-0.125
1938,-0.025,-0.145
1939,-0.025,-0.145
1940,-0.025,-0.145
1941,-0.035,-0.155
1942,-0.035,-0.155
1943,-0.035,-0.165
1944,-0.035,-0.155
1945,-0.025,-0.175
1946,-0.035,-0.175
1947,-0.035,-0.165
1948,-0.025,-0.175
1949,-0.035,-0.175
1950,-0.025,-0.185
1951,-0.025,-0.175
1952,-0.025,-0.175
1953,-0.015,-0.185
1954,-0.005,-0.185
1955,-0.015,-0.185
1956,-0.015,-0.185
1957,-0.025,-0.185
1958,-0.005,-0.195
1959,0.005,-0.185
1960,0.015,-0.165
1961,0.035,-0.165
1962,0.085,-0.175
1963,0.115,-0.125
1964,0.115,-0.105
1965,0.125,-0.125
1966,0.165,-0.135
1967,0.125,-0.125
1968,0.065,-0.185
1969,0.045,-0.215
1970,0.065,-0.205
1971,0.025,-0.185
1972,-0.025,-0.195
1973,-0.045,-0.225
1974,-0.045,-0.235
1975,-0.015,-0.215
1976,0.005,-0.195
1977,-0.025,-0.195
1978,0.095,-0.195
1979,0.195,-0.015
1980,0.465,0.235
1981,0.685,0.565
1982,0.905,-0.175
1983,0.265,-0.885
1984,-0.685,-1.105
1985,-1.035,-1.335
1986,-0.705,-0.925
1987,-0.355,-0.575
1988,-0.055,-0.295
1989,0.025,-0.085
1990,0.055,-0.055
1991,0.075,-0.035
1992,0.095,-0.025
1993,0.095,-0.025
1994,0.115,-0.025
1995,0.125,-0.005
1996,0.145,0.005
1997,0.165,0.015
1998,0.185,0.025
1999,0.205,0.035
2000,0.235,0.065
2001,0.265,0.075
2002,0.295,0.085
2003,0.295,0.115
2004,0.335,0.145
2005,0.365,0.165
2006,0.385,0.185
2007,0.425,0.215
2008,0.455,0.255
2009,0.485,0.275
2010,0.505,0.295
2011,0.505,0.295
2012,0.505,0.315
2013,0.495,0.305
2014,0.495,0.295
2015,0.475,0.285
2016,0.435,0.265
2017,0.405,0.215
2018,0.355,0.155
2019,0.295,0.105
2020,0.245,0.045
2021,0.195,-0.005
2022,0.155,-0.045
2023,0.135,-0.075
2024,0.135,-0.095
2025,0.105,-0.105
2026,0.105,-0.125
2027,0.105,-0.115
2028,0.105,-0.105
2029,0.115,-0.115
2030,0.095,-0.115
2031,0.105,-0.115
2032,0.115,-0.095
2033,0.105,-0.115
2034,0.105,-0.125
2035,0.095,-0.115
2036,0.085,-0.115
2037,0.075,-0.125
2038,0.065,-0.145
2039,0.065,-0.135
2040,0.055,-0.135
2041,0.045,-0.145
2042,0.035,-0.155
2043,0.035,-0.155
2044,0.015,-0.155
2045,0.015,-0.165
2046,-0.005,-0.185
2047,-0.005,-0.175
2048,0.005,-0.165
2049,0.005,-0.175
2050,-0.015,-0.175
2051,-0.015,-0.185
2052,-0.015,-0.175
2053,-0.015,-0.175
2054,-0.005,-0.165
2055,0.045,-0.165
2056,0.085,-0.135
2057,0.085,-0.105
2058,0.065,-0.125
2059,0.115,-0.125
2060,0.085,-0.105
2061,0.015,-0.155
2062,-0.035,-0.225
2063,-0.025,-0.205
2064,-0.045,-0.185
2065,-0.105,-0.195
2066,-0.125,-0.215
2067,-0.135,-0.225
2068,-0.125,-0.205
2069,-0.125,-0.195
2070,-0.135,-0.205
2071,-0.085,-0.195
2072,0.015,-0.105
2073,0.185,0.115
2074,0.435,0.525
2075,0.905,0.265
2076,0.555,-0.535
2077,-0.445,-0.865
2078,-1.125,-1.345
2079,-1.015,-1.095
2080,-0.655,-0.655
2081,-0.295,-0.385
2082,-0.175,-0.125
2083,-0.145,-0.055
2084,-0.125,-0.025
2085,-0.125,-0.045
2086,-0.115,-0.045
2087,-0.105,-0.025
2088,-0.095,-0.005
2089,-0.075,-0.005
2090,-0.065,0.005
2091,-0.055,0.015
2092,-0.035,0.045
2093,-0.025,0.045
2094,0.005,0.065
2095,0.035,0.085
2096,0.055,0.115
2097,0.105,0.135
2098,0.125,0.155
2099,0.155,0.185
2100,0.185,0.225
2101,0.205,0.245
2102,0.235,0.265
2103,0.255,0.295
2104,0.265,0.315
2105,0.275,0.305
2106,0.255,0.305
2107,0.235,0.295
2108,0.205,0.295
2109,0.155,0.265
2110,0.115,0.215
2111,0.055,0.155
2112,-0.005,0.115
2113,-0.055,0.035
2114,-0.115,-0.015
2115,-0.155,-0.055
2116,-0.175,-0.085
2117,-0.205,-0.105
2118,-0.205,-0.125
2119,-0.205,-0.115
2120,-0.215,-0.105
2121,-0.205,-0.115
2122,-0.215,-0.115
2123,-0.225,-0.115
2124,-0.215,-0.105
2125,-0.235,-0.115
2126,-0.225,-0.115
2127,-0.225,-0.105
2128,-0.215,-0.105
2129,-0.225,-0.105
2130,-0.235,-0.115
2131,-0.245,-0.115
2132,-0.245,-0.105
2133,-0.255,-0.125
2134,-0.275,-0.135
2135,-0.265,-0.135
2136,-0.265,-0.135
2137,-0.275,-0.145
2138,-0.285,-0.155
2139,-0.285,-0.155
2140,-0.295,-0.145
2141,-0.295,-0.155
2142,-0.305,-0.165
2143,-0.295,-0.155
2144,-0.305,-0.155
2145,-0.305,-0.165
2146,-0.295,-0.175
2147,-0.305,-0.165
2148,-0.305,-0.165
2149,-0.315,-0.175
2150,-0.315,-0.165
2151,-0.285,-0.155
2152,-0.275,-0.125
2153,-0.235,-0.135
2154,-0.175,-0.115
2155,-0.175,-0.085
2156,-0.185,-0.095
2157,-0.165,-0.105
2158,-0.205,-0.105
2159,-0.265,-0.165
2160,-0.285,-0.195
2161,-0.275,-0.195
2162,-0.305,-0.165
2163,-0.355,-0.185
2164,-0.375,-0.195
2165,-0.355,-0.205
2166,-0.355,-0.205
2167,-0.345,-0.185
2168,-0.355,-0.175
2169,-0.205,-0.165
2170,-0.035,0.065
2171,0.285,0.485
2172,0.585,0.235
2173,0.465,-0.805
2174,-0.505,-1.175
2175,-1.435,-1.335
2176,-1.395,-1.265
2177,-0.885,-0.775
2178,-0.485,-0.365
2179,-0.335,-0.065
2180,-0.285,0.015
2181,-0.295,0.015
2182,-0.275,0.005
2183,-0.265,0.005
2184,-0.245,0.035
2185,-0.225,0.035
2186,-0.225,0.045
2187,-0.215,0.065
2188,-0.185,0.085
2189,-0.175,0.095
2190,-0.145,0.105
2191,-0.115,0.125
2192,-0.075,0.175
2193,-0.025,0.195
2194,-0.005,0.235
2195,0.025,0.265
2196,0.065,0.305
2197,0.095,0.325
2198,0.145,0.365
2199,0.175,0.405
2200,0.195,0.435
2201,0.225,0.425
2202,0.225,0.445
2203,0.215,0.455
2204,0.205,0.455
2205,0.175,0.435
2206,0.155,0.395
2207,0.105,0.345
2208,0.055,0.275
2209,0.015,0.185
2210,-0.065,0.105
2211,-0.115,0.045
2212,-0.145,0.005
2213,-0.185,-0.035
2214,-0.205,-0.065
2215,-0.225,-0.075
2216,-0.225,-0.085
2217,-0.215,-0.105
2218,-0.235,-0.095
2219,-0.235,-0.095
2220,-0.215,-0.085
2221,-0.235,-0.095
2222,-0.215,-0.095
2223,-0.205,-0.085
2224,-0.215,-0.075
2225,-0.205,-0.085
2226,-0.205,-0.095
2227,-0.205,-0.085
2228,-0.195,-0.085
2229,-0.215,-0.105
2230,-0.215,-0.115
2231,-0.215,-0.115
2232,-0.215,-0.105
2233,-0.225,-0.115
2234,-0.235,-0.125
2235,-0.235,-0.125
2236,-0.255,-0.125
2237,-0.265,-0.135
2238,-0.265,-0.145
2239,-0.265,-0.135
2240,-0.265,-0.135
2241,-0.255,-0.145
2242,-0.265,-0.145
2243,-0.265,-0.155
2244,-0.265,-0.145
2245,-0.265,-0.145
2246,-0.265,-0.155
2247,-0.235,-0.145
2248,-0.215,-0.115
2249,-0.165,-0.125
2250,-0.135,-0.105
2251,-0.115,-0.065
2252,-0.135,-0.065
2253,-0.105,-0.095
2254,-0.115,-0.085
2255,-0.175,-0.115
2256,-0.215,-0.175
2257,-0.205,-0.175
2258,-0.225,-0.155
2259,-0.275,-0.145
2260,-0.305,-0.165
2261,-0.315,-0.185
2262,-0.295,-0.185
2263,-0.285,-0.175
2264,-0.285,-0.165
2265,-0.245,-0.175
2266,-0.095,-0.095
2267,0.115,0.175
2268,0.335,0.575
2269,0.675,0.085
2270,0.345,-0.895
2271,-0.685,-1.195
2272,-1.445,-1.395
2273,-1.195,-1.155
2274,-0.695,-0.655
2275,-0.345,-0.255
2276,-0.225,-0.005
2277,-0.205,0.025
2278,-0.205,0.015
2279,-0.195,0.015
2280,-0.185,0.035
2281,-0.165,0.035
2282,-0.145,0.045
2283,-0.145,0.065
2284,-0.115,0.085
2285,-0.105,0.085
2286,-0.075,0.095
2287,-0.035,0.125
2288,-0.015,0.155
2289,0.015,0.175
2290,0.055,0.195
2291,0.075,0.225
2292,0.115,0.275
2293,0.155,0.295
2294,0.185,0.335
2295,0.235,0.365
2296,0.265,0.405
2297,0.295,0.415
2298,0.295,0.425
2299,0.305,0.435
2300,0.305,0.445
2301,0.285,0.425
2302,0.265,0.415
2303,0.245,0.395
2304,0.205,0.345
2305,0.135,0.275
2306,0.085,0.175
2307,0.015,0.115
2308,-0.025,0.045
2309,-0.065,-0.005
2310,-0.095,-0.045
2311,-0.105,-0.065
2312,-0.105,-0.065
2313,-0.115,-0.085
2314,-0.115,-0.095
2315,-0.115,-0.075
2316,-0.115,-0.085
2317,-0.105,-0.085
2318,-0.105,-0.085
2319,-0.085,-0.075
2320,-0.075,-0.065
2321,-0.085,-0.075
2322,-0.065,-0.085
2323,-0.075,-0.075
2324,-0.075,-0.085
2325,-0.075,-0.085
2326,-0.085,-0.095
2327,-0.075,-0.105
2328,-0.075,-0.095
2329,-0.105,-0.115
2330,-0.095,-0.125
2331,-0.105,-0.125
2332,-0.105,-0.115
2333,-0.095,-0.135
2334,-0.115,-0.145
2335,-0.105,-0.145
2336,-0.095,-0.135
2337,-0.115,-0.135
2338,-0.095,-0.145
2339,-0.105,-0.145
2340,-0.085,-0.145
2341,-0.085,-0.155
2342,-0.105,-0.155
2343,-0.085,-0.155
2344,-0.075,-0.145
2345,-0.075,-0.145
2346,-0.045,-0.145
2347,-0.035,-0.115
2348,0.025,-0.115
2349,0.065,-0.075
2350,0.045,-0.075
2351,0.075,-0.095
2352,0.115,-0.085
2353,0.055,-0.085
2354,0.005,-0.155
2355,-0.025,-0.175
2356,0.015,-0.165
2357,-0.035,-0.145
2358,-0.095,-0.165
2359,-0.085,-0.185
2360,-0.065,-0.175
2361,-0.075,-0.175
2362,-0.055,-0.165
2363,-0.065,-0.165
2364,0.095,-0.135
2365,0.225,0.075
2366,0.485,0.445
2367,0.725,0.425
2368,0.755,-0.635
2369,-0.095,-1.135
2370,-1.015,-1.315
2371,-1.085,-1.255
2372,-0.605,-0.745
2373,-0.185,-0.375
2374,-0.015,-0.075
2375,0.035,0.015
2376,0.055,0.025
2377,0.065,0.015
2378,0.075,0.025
2379,0.095,0.035
2380,0.105,0.045
2381,0.105,0.045
2382,0.135,0.065
2383,0.175,0.085
2384,0.205,0.105
2385,0.225,0.115
2386,0.255,0.115
2387,0.275,0.155
2388,0.315,0.175
2389,0.335,0.205
2390,0.375,0.225
2391,0.405,0.265
2392,0.435,0.295
2393,0.485,0.325
2394,0.515,0.365
2395,0.525,0.375
2396,0.545,0.395
2397,0.545,0.405
2398,0.545,0.405
2399,0.555,0.395
2400,0.545,0.395
2401,0.525,0.365
2402,0.475,0.325
2403,0.425,0.265
2404,0.385,0.215
2405,0.325,0.135
2406,0.265,0.055
2407,0.235,0.015
2408,0.205,-0.015
2409,0.185,-0.045
2410,0.175,-0.065
2411,0.155,-0.075
2412,0.165,-0.065
2413,0.165,-0.075
2414,0.155,-0.085
2415,0.175,-0.075
2416,0.185,-0.065
2417,0.175,-0.065
2418,0.195,-0.075
2419,0.185,-0.075
2420,0.185,-0.065
2421,0.175,-0.075
2422,0.165,-0.085
2423,0.165,-0.095
2424,0.175,-0.085
2425,0.155,-0.095
2426,0.165,-0.115
2427,0.155,-0.105
2428,0.135,-0.105
2429,0.145,-0.115
2430,0.135,-0.125
2431,0.145,-0.135
2432,0.135,-0.125
2433,0.135,-0.135
2434,0.125,-0.135
2435,0.125,-0.135
2436,0.135,-0.145
2437,0.135,-0.135
2438,0.145,-0.135
2439,0.195,-0.135
2440,0.235,-0.085
2441,0.235,-0.085
2442,0.235,-0.095
2443,0.285,-0.085
2444,0.235,-0.075
2445,0.155,-0.145
2446,0.145,-0.185
2447,0.165,-0.165
2448,0.115,-0.135
2449,0.065,-0.155
2450,0.055,-0.185
2451,0.055,-0.195
2452,0.075,-0.175
2453,0.075,-0.175
2454,0.055,-0.175
2455,0.155,-0.165
2456,0.245,-0.025
2457,0.475,0.205
2458,0.715,0.615
2459,1.125,0.135
2460,0.585,-0.595
2461,-0.355,-0.915
2462,-0.885,-1.305
2463,-0.775,-0.995
2464,-0.435,-0.615
2465,-0.095,-0.385
2466,0.075,-0.125
2467,0.115,-0.025
2468,0.135,-0.015
2469,0.145,-0.015
2470,0.145,-0.025
2471,0.165,-0.005
2472,0.185,0.015
2473,0.185,0.015
2474,0.205,0.015
2475,0.215,0.035
2476,0.245,0.045
2477,0.255,0.055
2478,0.275,0.055
2479,0.305,0.085
2480,0.325,0.115
2481,0.345,0.135
2482,0.395,0.155
2483,0.415,0.185
2484,0.445,0.225
2485,0.485,0.235
2486,0.495,0.265
2487,0.515,0.275
2488,0.525,0.305
2489,0.515,0.295
2490,0.525,0.285
2491,0.505,0.275
2492,0.485,0.275
2493,0.445,0.245
2494,0.395,0.215
2495,0.355,0.165
2496,0.285,0.125
2497,0.225,0.065
2498,0.175,0.005
2499,0.135,-0.025
2500,0.105,-0.055
2501,0.075,-0.085
2502,0.055,-0.095
2503,0.065,-0.105
2504,0.065,-0.095
2505,0.045,-0.095
2506,0.055,-0.105
2507,0.045,-0.095
2508,0.045,-0.095
2509,0.045,-0.095
2510,0.025,-0.095
2511,0.035,-0.095
2512,0.035,-0.085
2513,0.005,-0.095
2514,0.025,-0.105
2515,0.005,-0.105
2516,-0.005,-0.105
2517,-0.005,-0.105
2518,-0.045,-0.125
2519,-0.035,-0.135
2520,-0.045,-0.125
2521,-0.065,-0.135
2522,-0.065,-0.135
2523,-0.075,-0.135
2524,-0.085,-0.135
2525,-0.095,-0.145
2526,-0.105,-0.155
2527,-0.105,-0.145
2528,-0.115,-0.145
2529,-0.115,-0.155
2530,-0.105,-0.145
2531,-0.095,-0.135
2532,-0.035,-0.125
2533,-0.005,-0.095
2534,-0.045,-0.085
2535,-0.015,-0.105
2536,0.005,-0.095
2537,-0.055,-0.105
2538,-0.115,-0.175
2539,-0.145,-0.185
2540,-0.135,-0.175
2541,-0.185,-0.175
2542,-0.235,-0.185
2543,-0.255,-0.205
2544,-0.245,-0.195
2545,-0.225,-0.195
2546,-0.235,-0.185
2547,-0.255,-0.185
2548,-0.105,-0.145
2549,0.045,0.105
2550,0.345,0.505
2551,0.645,0.265
2552,0.605,-0.695
2553,-0.385,-1.115
2554,-1.355,-1.355
2555,-1.265,-1.225
2556,-0.805,-0.705
2557,-0.415,-0.335
2558,-0.265,-0.055
2559,-0.235,0.005
2560,-0.235,0.005
2561,-0.225,-0.015
2562,-0.215,-0.005
2563,-0.205,0.005
2564,-0.185,0.025
2565,-0.175,0.025
2566,-0.175,0.045
2567,-0.145,0.055
2568,-0.125,0.085
2569,-0.115,0.085
2570,-0.075,0.105
2571,-0.055,0.135
2572,-0.025,0.175
2573,0.005,0.185
2574,0.035,0.215
2575,0.075,0.255
2576,0.115,0.285
2577,0.145,0.325
2578,0.195,0.355
2579,0.215,0.395
2580,0.215,0.405
2581,0.235,0.405
2582,0.225,0.415
2583,0.225,0.405
2584,0.205,0.405
2585,0.155,0.365
2586,0.135,0.305
2587,0.065,0.245
2588,0.005,0.185
2589,-0.055,0.095
2590,-0.125,0.015
2591,-0.155,-0.035
2592,-0.185,-0.045
2593,-0.205,-0.085
2594,-0.215,-0.105
2595,-0.225,-0.105
2596,-0.225,-0.105
2597,-0.235,-0.105
2598,-0.245,-0.105
2599,-0.235,-0.105
2600,-0.225,-0.095
2601,-0.225,-0.105
2602,-0.215,-0.095
2603,-0.225,-0.095
2604,-0.225,-0.085
2605,-0.235,-0.095
2606,-0.225,-0.105
2607,-0.225,-0.095
2608,-0.225,-0.105
2609,-0.225,-0.115
2610,-0.245,-0.125
2611,-0.255,-0.135
2612,-0.255,-0.125
2613,-0.275,-0.135
2614,-0.285,-0.155
2615,-0.285,-0.155
2616,-0.285,-0.145
2617,-0.285,-0.155
2618,-0.295,-0.165
2619,-0.295,-0.155
2620,-0.295,-0.155
2621,-0.305,-0.165
2622,-0.315,-0.175
2623,-0.305,-0.165
2624,-0.305,-0.155
2625,-0.285,-0.165
2626,-0.295,-0.165
2627,-0.305,-0.165
2628,-0.285,-0.155
2629,-0.275,-0.145
2630,-0.245,-0.145
2631,-0.175,-0.135
2632,-0.145,-0.075
2633,-0.185,-0.085
2634,-0.145,-0.115
2635,-0.145,-0.115
2636,-0.205,-0.125
2637,-0.265,-0.195
2638,-0.265,-0.205
2639,-0.275,-0.185
2640,-0.305,-0.165
2641,-0.335,-0.185
2642,-0.345,-0.205
2643,-0.335,-0.205
2644,-0.325,-0.185
2645,-0.335,-0.185
2646,-0.335,-0.205
2647,-0.175,-0.135
2648,0.075,0.135
2649,0.325,0.545
2650,0.665,0.005
2651,0.345,-0.925
2652,-0.565,-1.165
2653,-1.415,-1.355
2654,-1.365,-1.245
2655,-0.895,-0.775
2656,-0.475,-0.375
2657,-0.325,-0.075
2658,-0.265,-0.005
2659,-0.265,0.005
2660,-0.255,0.005
2661,-0.245,0.005
2662,-0.245,0.015
2663,-0.215,0.025
2664,-0.205,0.045
2665,-0.195,0.045
2666,-0.165,0.055
2667,-0.145,0.085
2668,-0.115,0.105
2669,-0.085,0.125
2670,-0.065,0.135
2671,-0.025,0.165
2672,0.015,0.205
2673,0.035,0.225
2674,0.085,0.255
2675,0.125,0.295
2676,0.155,0.335
2677,0.185,0.365
2678,0.205,0.385
2679,0.235,0.395
2680,0.245,0.415
2681,0.235,0.405
2682,0.245,0.425
2683,0.225,0.405
2684,0.195,0.385
2685,0.155,0.335
2686,0.085,0.275
2687,0.045,0.185
2688,-0.025,0.125
2689,-0.085,0.055
2690,-0.115,-0.015
2691,-0.155,-0.045
2692,-0.175,-0.055
2693,-0.185,-0.085
2694,-0.215,-0.115
2695,-0.205,-0.105
2696,-0.195,-0.095
2697,-0.205,-0.105
2698,-0.195,-0.115
2699,-0.195,-0.105
2700,-0.185,-0.095
2701,-0.175,-0.095
2702,-0.185,-0.105
2703,-0.185,-0.095
2704,-0.175,-0.095
2705,-0.185,-0.105
2706,-0.165,-0.125
2707,-0.175,-0.115
2708,-0.175,-0.115
2709,-0.185,-0.125
2710,-0.205,-0.135
2711,-0.195,-0.145
2712,-0.215,-0.135
2713,-0.215,-0.155
2714,-0.225,-0.155
2715,-0.235,-0.155
2716,-0.225,-0.155
2717,-0.245,-0.155
2718,-0.245,-0.175
2719,-0.235,-0.155
2720,-0.235,-0.155
2721,-0.215,-0.175
2722,-0.225,-0.165
2723,-0.225,-0.165
2724,-0.225,-0.165
2725,-0.235,-0.185
2726,-0.225,-0.195
2727,-0.215,-0.175
2728,-0.215,-0.165
2729,-0.205,-0.175
2730,-0.205,-0.165
2731,-0.195,-0.175
2732,-0.175,-0.145
2733,-0.165,-0.145
2734,-0.115,-0.145
2735,-0.065,-0.105
2736,-0.065,-0.085
2737,-0.065,-0.105
2738,-0.025,-0.115
2739,-0.075,-0.105
2740,-0.135,-0.175
2741,-0.175,-0.205
2742,-0.135,-0.205
2743,-0.165,-0.165
2744,-0.215,-0.165
2745,-0.225,-0.195
2746,-0.205,-0.205
2747,-0.195,-0.185
2748,-0.185,-0.185
2749,-0.215,-0.185
2750,-0.065,-0.185
2751,0.075,0.045
2752,0.375,0.395
2753,0.545,0.395
2754,0.735,-0.665
2755,-0.045,-1.185
2756,-1.045,-1.275
2757,-1.315,-1.365
2758,-0.885,-0.915
2759,-0.435,-0.495
2760,-0.175,-0.135
2761,-0.115,-0.005
2762,-0.085,0.005
2763,-0.075,0.005
2764,-0.055,0.015
2765,-0.045,0.025
2766,-0.035,0.025
2767,-0.015,0.045
2768,0.015,0.055
2769,0.025,0.065
2770,0.055,0.065
2771,0.085,0.085
2772,0.115,0.125
2773,0.145,0.145
2774,0.165,0.155
2775,0.215,0.185
2776,0.255,0.235
2777,0.275,0.255
2778,0.325,0.275
2779,0.355,0.325
2780,0.395,0.355
2781,0.425,0.375
2782,0.425,0.395
2783,0.455,0.405
2784,0.455,0.425
2785,0.465,0.415
2786,0.465,0.395
2787,0.435,0.385
2788,0.395,0.355
2789,0.355,0.305
2790,0.295,0.225
2791,0.235,0.145
2792,0.185,0.085
2793,0.135,0.015
2794,0.115,-0.025
2795,0.095,-0.055
2796,0.075,-0.065
2797,0.065,-0.085
2798,0.055,-0.095
2799,0.055,-0.095
2800,0.055,-0.085
2801,0.055,-0.095
2802,0.075,-0.095
2803,0.075,-0.085
2804,0.085,-0.085
2805,0.075,-0.085
2806,0.075,-0.095
2807,0.085,-0.085
2808,0.085,-0.095
2809,0.075,-0.095
2810,0.075,-0.105
2811,0.075,-0.115
2812,0.055,-0.115
2813,0.055,-0.125
2814,0.055,-0.135
2815,0.045,-0.135
2816,0.045,-0.135
2817,0.055,-0.145
2818,0.045,-0.145
2819,0.045,-0.155
2820,0.035,-0.145
2821,0.035,-0.165
2822,0.045,-0.165
2823,0.045,-0.165
2824,0.055,-0.155
2825,0.035,-0.165
2826,0.055,-0.175
2827,0.045,-0.165
2828,0.055,-0.155
2829,0.055,-0.165
2830,0.065,-0.165
2831,0.085,-0.145
2832,0.125,-0.145
2833,0.175,-0.115
2834,0.175,-0.095
2835,0.165,-0.105
2836,0.225,-0.105
2837,0.205,-0.085
2838,0.125,-0.135
2839,0.105,-0.195
2840,0.115,-0.185
2841,0.085,-0.165
2842,0.035,-0.165
2843,0.015,-0.185
2844,0.005,-0.195
2845,0.025,-0.195
2846,0.035,-0.185
2847,0.045,-0.175
2848,0.045,-0.165
2849,0.155,-0.135
2850,0.285,0.075
2851,0.535,0.405
2852,0.955,0.445
2853,0.825,-0.445
2854,-0.025,-0.865
2855,-0.795,-1.225
2856,-0.945,-1.175
2857,-0.625,-0.775
2858,-0.295,-0.505
2859,-0.025,-0.265
2860,0.065,-0.055
2861,0.095,-0.025
2862,0.085,-0.015
2863,0.115,-0.015
2864,0.135,-0.005
2865,0.145,0.005
2866,0.175,0.005
2867,0.175,0.025
2868,0.205,0.035
2869,0.215,0.045
2870,0.215,0.055
2871,0.255,0.065
2872,0.285,0.095
2873,0.295,0.125
2874,0.345,0.135
2875,0.375,0.165
2876,0.405,0.185
2877,0.435,0.225
2878,0.445,0.245
2879,0.495,0.265
2880,0.515,0.295
2881,0.525,0.295
2882,0.535,0.305
2883,0.535,0.305
2884,0.525,0.305
2885,0.505,0.285
2886,0.455,0.265
2887,0.415,0.235
2888,0.365,0.185
2889,0.305,0.125
2890,0.255,0.065
2891,0.195,0.005
2892,0.155,-0.015
2893,0.125,-0.055
2894,0.095,-0.085
2895,0.085,-0.095
2896,0.085,-0.095
2897,0.075,-0.105
2898,0.065,-0.115
2899,0.065,-0.105
2900,0.065,-0.095
2901,0.055,-0.115
2902,0.065,-0.115
2903,0.055,-0.105
2904,0.045,-0.105
2905,0.055,-0.105
2906,0.045,-0.125
2907,0.035,-0.115
2908,0.035,-0.115
2909,0.005,-0.135
2910,0.005,-0.145
2911,-0.005,-0.135
2912,-0.015,-0.145
2913,-0.005,-0.155
2914,-0.025,-0.155
2915,-0.035,-0.165
2916,-0.045,-0.165
2917,-0.055,-0.165
2918,-0.065,-0.175
2919,-0.065,-0.175
2920,-0.055,-0.165
2921,-0.065,-0.175
2922,-0.075,-0.175
2923,-0.085,-0.185
2924,-0.095,-0.175
2925,-0.105,-0.175
2926,-0.085,-0.185
2927,-0.075,-0.165
2928,-0.055,-0.155
2929,0.005,-0.155
2930,0.025,-0.115
2931,-0.005,-0.105
2932,0.035,-0.125
2933,0.005,-0.125
2934,-0.045,-0.145
2935,-0.095,-0.215
2936,-0.105,-0.215
2937,-0.085,-0.205
2938,-0.145,-0.195
2939,-0.205,-0.195
2940,-0.205,-0.215
2941,-0.205,-0.235
2942,-0.205,-0.215
2943,-0.205,-0.205
2944,-0.205,-0.195
2945,-0.065,-0.165
2946,0.065,0.065
2947,0.355,0.465
2948,0.695,0.325
2949,0.615,-0.645
2950,-0.405,-1.065
2951,-1.255,-1.375
2952,-1.225,-1.225
2953,-0.795,-0.755
2954,-0.425,-0.415
2955,-0.265,-0.135
2956,-0.225,-0.035
2957,-0.215,-0.035
2958,-0.215,-0.045
2959,-0.205,-0.035
2960,-0.195,-0.015
2961,-0.185,-0.015
2962,-0.165,-0.005
2963,-0.155,0.015
2964,-0.145,0.035
2965,-0.135,0.035
2966,-0.105,0.055
2967,-0.075,0.085
2968,-0.055,0.105
2969,-0.015,0.115
2970,0.005,0.145
2971,0.045,0.175
2972,0.075,0.215
2973,0.115,0.225
2974,0.135,0.265
2975,0.175,0.295
2976,0.205,0.335
2977,0.215,0.345
2978,0.215,0.345
2979,0.215,0.345
2980,0.205,0.355
2981,0.195,0.335
2982,0.145,0.315
2983,0.115,0.265
2984,0.055,0.205
2985,-0.015,0.145
2986,-0.065,0.065
2987,-0.125,-0.005
2988,-0.175,-0.045
2989,-0.205,-0.095
2990,-0.235,-0.115
2991,-0.235,-0.135
2992,-0.245,-0.135
2993,-0.265,-0.145
2994,-0.265,-0.155
2995,-0.255,-0.145
2996,-0.265,-0.145
2997,-0.265,-0.145
2998,-0.265,-0.145
2999,-0.265,-0.135
3000,-0.265,-0.125
3001,-0.255,-0.145
3002,-0.265,-0.145
3003,-0.265,-0.145
3004,-0.265,-0.135
3005,-0.275,-0.155
3006,-0.295,-0.165
3007,-0.295,-0.155
3008,-0.295,-0.155
3009,-0.305,-0.175
3010,-0.315,-0.185
3011,-0.315,-0.185
3012,-0.325,-0.175
3013,-0.335,-0.195
3014,-0.335,-0.195
3015,-0.345,-0.195
3016,-0.345,-0.185
3017,-0.345,-0.195
3018,-0.355,-0.205
3019,-0.355,-0.205
3020,-0.345,-0.195
3021,-0.355,-0.205
3022,-0.355,-0.205
3023,-0.355,-0.205
3024,-0.345,-0.195
3025,-0.345,-0.205
3026,-0.355,-0.205
3027,-0.355,-0.195
3028,-0.345,-0.195
3029,-0.355,-0.205
3030,-0.365,-0.205
3031,-0.345,-0.195
3032,-0.315,-0.165
3033,-0.295,-0.155
3034,-0.245,-0.165
3035,-0.215,-0.105
3036,-0.225,-0.105
3037,-0.205,-0.135
3038,-0.195,-0.145
3039,-0.245,-0.145
3040,-0.295,-0.195
3041,-0.325,-0.235
3042,-0.295,-0.215
3043,-0.335,-0.185
3044,-0.385,-0.195
3045,-0.405,-0.225
3046,-0.395,-0.235
3047,-0.375,-0.205
3048,-0.365,-0.195
3049,-0.375,-0.205
3050,-0.225,-0.175
3051,-0.075,0.075
3052,0.235,0.495
3053,0.505,0.195
3054,0.505,-0.835
3055,-0.555,-1.205
3056,-1.525,-1.405
3057,-1.365,-1.225
3058,-0.875,-0.715
3059,-0.495,-0.325
3060,-0.365,-0.065
3061,-0.325,-0.015
3062,-0.325,-0.025
3063,-0.315,-0.015
3064,-0.305,-0.005
3065,-0.305,0.005
3066,-0.265,0.015
3067,-0.265,0.025
3068,-0.235,0.045
3069,-0.225,0.055
3070,-0.215,0.065
3071,-0.175,0.095
3072,-0.145,0.125
3073,-0.125,0.145
3074,-0.075,0.155
3075,-0.055,0.195
3076,-0.015,0.225
3077,0.025,0.265
3078,0.055,0.295
3079,0.105,0.325
3080,0.135,0.385
3081,0.155,0.405
3082,0.185,0.415
3083,0.185,0.435
3084,0.185,0.435
3085,0.185,0.425
3086,0.165,0.415
3087,0.155,0.385
3088,0.105,0.355
3089,0.045,0.285
3090,-0.005,0.205
3091,-0.075,0.125
3092,-0.135,0.055
3093,-0.175,-0.005
3094,-0.215,-0.045
3095,-0.225,-0.075
3096,-0.235,-0.085
3097,-0.255,-0.105
3098,-0.255,-0.115
3099,-0.255,-0.115
3100,-0.255,-0.105
3101,-0.255,-0.115
3102,-0.255,-0.115
3103,-0.245,-0.115
3104,-0.235,-0.095
3105,-0.235,-0.095
3106,-0.225,-0.105
3107,-0.235,-0.095
3108,-0.235,-0.095
3109,-0.235,-0.115
3110,-0.245,-0.115
3111,-0.245,-0.125
3112,-0.245,-0.125
3113,-0.265,-0.135
3114,-0.255,-0.145
3115,-0.265,-0.145
3116,-0.275,-0.135
3117,-0.275,-0.145
3118,-0.295,-0.155
3119,-0.295,-0.165
3120,-0.285,-0.155
3121,-0.295,-0.155
3122,-0.275,-0.165
3123,-0.295,-0.165
3124,-0.295,-0.165
3125,-0.295,-0.165
3126,-0.285,-0.175
3127,-0.285,-0.165
3128,-0.275,-0.155
3129,-0.285,-0.165
3130,-0.275,-0.175
3131,-0.275,-0.175
3132,-0.265,-0.155
3133,-0.265,-0.165
3134,-0.265,-0.175
3135,-0.265,-0.165
3136,-0.265,-0.165
3137,-0.255,-0.165
3138,-0.255,-0.165
3139,-0.255,-0.175
3140,-0.245,-0.165
3141,-0.245,-0.165
3142,-0.245,-0.165
3143,-0.235,-0.155
3144,-0.205,-0.145
3145,-0.195,-0.125
3146,-0.125,-0.145
3147,-0.095,-0.085
3148,-0.105,-0.075
3149,-0.075,-0.105
3150,-0.055,-0.105
3151,-0.105,-0.105
3152,-0.155,-0.155
3153,-0.185,-0.195
3154,-0.145,-0.185
3155,-0.175,-0.155
3156,-0.235,-0.155
3157,-0.245,-0.175
3158,-0.245,-0.195
3159,-0.225,-0.185
3160,-0.215,-0.165
3161,-0.215,-0.175
3162,-0.055,-0.115
3163,0.165,0.155
3164,0.405,0.595
3165,0.775,-0.025
3166,0.495,-0.965
3167,-0.635,-1.155
3168,-1.395,-1.405
3169,-1.045,-1.055
3170,-0.545,-0.535
3171,-0.235,-0.165
3172,-0.155,0.015
3173,-0.135,0.025
3174,-0.125,0.015
3175,-0.105,0.025
3176,-0.095,0.045
3177,-0.085,0.045
3178,-0.065,0.055
3179,-0.045,0.065
3180,-0.025,0.095
3181,0.005,0.085
3182,0.035,0.115
3183,0.065,0.145
3184,0.095,0.175
3185,0.125,0.185
3186,0.165,0.205
3187,0.195,0.245
3188,0.215,0.265
3189,0.265,0.305
3190,0.285,0.335
3191,0.335,0.375
3192,0.385,0.415
3193,0.405,0.445
3194,0.425,0.455
3195,0.425,0.465
3196,0.425,0.465
3197,0.415,0.465
3198,0.405,0.445
3199,0.395,0.425
3200,0.355,0.385
3201,0.305,0.305
3202,0.255,0.235
3203,0.185,0.165
3204,0.145,0.095
3205,0.095,0.005
3206,0.075,-0.025
3207,0.055,-0.035
3208,0.045,-0.045
3209,0.025,-0.065
3210,0.035,-0.075
3211,0.025,-0.075
3212,0.035,-0.055
3213,0.035,-0.085
3214,0.015,-0.085
3215,0.035,-0.085
3216,0.055,-0.065
3217,0.035,-0.065
3218,0.045,-0.085
3219,0.045,-0.075
3220,0.045,-0.075
3221,0.045,-0.085
3222,0.035,-0.095
3223,0.035,-0.095
3224,0.035,-0.095
3225,0.025,-0.105
3226,0.025,-0.125
3227,0.005,-0.115
3228,0.025,-0.115
3229,0.015,-0.125
3230,0.015,-0.135
3231,0.015,-0.135
3232,0.015,-0.125
3233,0.005,-0.135
3234,0.025,-0.145
3235,0.015,-0.135
3236,0.025,-0.135
3237,0.025,-0.135
3238,0.015,-0.145
3239,0.015,-0.145
3240,0.025,-0.125
3241,0.015,-0.145
3242,0.035,-0.145
3243,0.035,-0.145
3244,0.025,-0.135
3245,0.045,-0.145
3246,0.045,-0.135
3247,0.065,-0.125
3248,0.095,-0.125
3249,0.155,-0.095
3250,0.165,-0.075
3251,0.145,-0.085
3252,0.205,-0.075
3253,0.185,-0.075
3254,0.115,-0.115
3255,0.075,-0.165
3256,0.085,-0.155
3257,0.075,-0.145
3258,0.035,-0.145
3259,0.005,-0.155
3260,0.005,-0.165
3261,0.015,-0.165
3262,0.025,-0.155
3263,0.025,-0.145
3264,0.055,-0.135
3265,0.175,-0.055
3266,0.355,0.165
3267,0.585,0.575
3268,0.985,0.335
3269,0.815,-0.525
3270,-0.105,-0.865
3271,-0.865,-1.265
3272,-0.905,-1.075
3273,-0.555,-0.675
3274,-0.235,-0.425
3275,-0.025,-0.175
3276,0.075,-0.015
3277,0.095,0.005
3278,0.105,0.015
3279,0.135,0.015
3280,0.135,0.025
3281,0.145,0.025
3282,0.175,0.045
3283,0.185,0.045
3284,0.205,0.065
3285,0.215,0.065
3286,0.215,0.085
3287,0.245,0.105
3288,0.285,0.135
3289,0.295,0.145
3290,0.335,0.165
3291,0.355,0.195
3292,0.385,0.225
3293,0.415,0.255
3294,0.445,0.265
3295,0.475,0.305
3296,0.505,0.335
3297,0.525,0.345
3298,0.535,0.355
3299,0.535,0.355
3300,0.525,0.355
3301,0.515,0.345
3302,0.485,0.335
3303,0.455,0.295
3304,0.415,0.265
3305,0.345,0.205
3306,0.285,0.135
3307,0.215,0.085
3308,0.175,0.035
3309,0.145,-0.015
3310,0.105,-0.045
3311,0.095,-0.055
3312,0.085,-0.055
3313,0.075,-0.065
3314,0.085,-0.065
3315,0.075,-0.065
3316,0.065,-0.065
3317,0.065,-0.075
3318,0.055,-0.085
3319,0.055,-0.065
3320,0.055,-0.065
3321,0.045,-0.075
3322,0.045,-0.075
3323,0.025,-0.075
3324,0.025,-0.075
3325,0.015,-0.095
3326,-0.005,-0.105
3327,-0.005,-0.105
3328,-0.015,-0.105
3329,-0.025,-0.115
3330,-0.035,-0.115
3331,-0.045,-0.125
3332,-0.045,-0.125
3333,-0.065,-0.135
3334,-0.075,-0.135
3335,-0.075,-0.135
3336,-0.075,-0.135
3337,-0.075,-0.145
3338,-0.085,-0.145
3339,-0.095,-0.145
3340,-0.105,-0.135
3341,-0.115,-0.155
3342,-0.095,-0.155
3343,-0.095,-0.115
3344,-0.085,-0.105
3345,-0.025,-0.125
3346,0.015,-0.075
3347,-0.005,-0.065
3348,0.005,-0.075
3349,0.015,-0.085
3350,-0.035,-0.095
3351,-0.105,-0.145
3352,-0.125,-0.155
3353,-0.095,-0.165
3354,-0.155,-0.135
3355,-0.205,-0.145
3356,-0.225,-0.165
3357,-0.215,-0.175
3358,-0.215,-0.175
3359,-0.205,-0.155
3360,-0.225,-0.155
3361,-0.145,-0.155
3362,-0.035,0.015
3363,0.285,0.335
3364,0.495,0.575
3365,0.845,-0.285
3366,0.155,-0.955
3367,-0.945,-1.115
3368,-1.365,-1.345
3369,-1.025,-0.905
3370,-0.615,-0.535
3371,-0.335,-0.225
3372,-0.235,-0.005
3373,-0.215,0.005
3374,-0.225,0.005
3375,-0.205,0.005
3376,-0.185,0.025
3377,-0.185,0.025
3378,-0.165,0.045
3379,-0.155,0.055
3380,-0.135,0.075
3381,-0.125,0.075
3382,-0.135,0.095
3383,-0.095,0.105
3384,-0.065,0.125
3385,-0.045,0.155
3386,0.005,0.175
3387,0.025,0.215
3388,0.065,0.245
3389,0.095,0.265
3390,0.115,0.305
3391,0.165,0.335
3392,0.195,0.375
3393,0.225,0.395
3394,0.245,0.395
3395,0.235,0.415
3396,0.235,0.405
3397,0.225,0.405
3398,0.195,0.395
3399,0.175,0.355
3400,0.125,0.315
3401,0.065,0.245
3402,0.015,0.165
3403,-0.065,0.095
3404,-0.115,0.035
3405,-0.155,-0.005
3406,-0.195,-0.045
3407,-0.205,-0.065
3408,-0.225,-0.075
3409,-0.235,-0.085
3410,-0.225,-0.095
3411,-0.235,-0.095
3412,-0.235,-0.085
3413,-0.235,-0.085
3414,-0.245,-0.095
3415,-0.235,-0.085
3416,-0.225,-0.075
3417,-0.235,-0.085
3418,-0.225,-0.095
3419,-0.225,-0.095
3420,-0.225,-0.085
3421,-0.235,-0.105
3422,-0.255,-0.115
3423,-0.255,-0.125
3424,-0.255,-0.105
3425,-0.265,-0.125
3426,-0.265,-0.135
3427,-0.285,-0.125
3428,-0.285,-0.135
3429,-0.285,-0.145
3430,-0.305,-0.155
3431,-0.295,-0.145
3432,-0.295,-0.145
3433,-0.305,-0.155
3434,-0.305,-0.165
3435,-0.305,-0.155
3436,-0.305,-0.155
3437,-0.305,-0.165
3438,-0.315,-0.165
3439,-0.305,-0.165
3440,-0.305,-0.145
3441,-0.305,-0.165
3442,-0.305,-0.165
3443,-0.285,-0.155
3444,-0.265,-0.125
3445,-0.235,-0.135
3446,-0.185,-0.125
3447,-0.145,-0.085
3448,-0.185,-0.085
3449,-0.165,-0.115
3450,-0.145,-0.115
3451,-0.205,-0.115
3452,-0.265,-0.175
3453,-0.285,-0.195
3454,-0.275,-0.195
3455,-0.305,-0.175
3456,-0.355,-0.185
3457,-0.365,-0.205
3458,-0.335,-0.205
3459,-0.335,-0.185
3460,-0.325,-0.185
3461,-0.335,-0.195
3462,-0.195,-0.145
3463,-0.035,0.105
3464,0.255,0.535
3465,0.655,0.045
3466,0.365,-0.955
3467,-0.765,-1.175
3468,-1.475,-1.425
3469,-1.245,-1.095
3470,-0.805,-0.655
3471,-0.435,-0.285
3472,-0.305,-0.035
3473,-0.285,0.005
3474,-0.265,-0.015
3475,-0.255,-0.005
3476,-0.245,0.005
3477,-0.225,0.025
3478,-0.225,0.025
3479,-0.195,0.045
3480,-0.185,0.065
3481,-0.165,0.065
3482,-0.135,0.085
3483,-0.115,0.105
3484,-0.085,0.125
3485,-0.045,0.155
3486,-0.025,0.165
3487,0.025,0.205
3488,0.065,0.255
3489,0.095,0.285
3490,0.135,0.315
3491,0.165,0.355
3492,0.195,0.395
3493,0.225,0.405
3494,0.225,0.425
3495,0.245,0.435
3496,0.245,0.445
3497,0.235,0.435
3498,0.225,0.415
3499,0.195,0.385
3500,0.145,0.325
3501,0.095,0.255
3502,0.025,0.165
3503,-0.035,0.095
3504,-0.075,0.045
3505,-0.125,-0.005
3506,-0.135,-0.055
3507,-0.165,-0.075
3508,-0.185,-0.085
3509,-0.185,-0.095
3510,-0.195,-0.115
3511,-0.195,-0.115
3512,-0.185,-0.105
3513,-0.185,-0.105
3514,-0.175,-0.105
3515,-0.185,-0.095
3516,-0.165,-0.095
3517,-0.165,-0.095
3518,-0.175,-0.105
3519,-0.165,-0.095
3520,-0.165,-0.095
3521,-0.155,-0.105
3522,-0.165,-0.115
3523,-0.175,-0.125
3524,-0.185,-0.115
3525,-0.195,-0.135
3526,-0.205,-0.155
3527,-0.195,-0.145
3528,-0.215,-0.135
3529,-0.215,-0.145
3530,-0.215,-0.155
3531,-0.215,-0.165
3532,-0.225,-0.155
3533,-0.235,-0.165
3534,-0.225,-0.175
3535,-0.215,-0.165
3536,-0.215,-0.165
3537,-0.215,-0.165
3538,-0.205,-0.165
3539,-0.215,-0.165
3540,-0.205,-0.165
3541,-0.205,-0.175
3542,-0.215,-0.185
3543,-0.205,-0.165
3544,-0.205,-0.165
3545,-0.185,-0.165
3546,-0.155,-0.145
3547,-0.135,-0.135
3548,-0.075,-0.115
3549,-0.055,-0.075
3550,-0.095,-0.095
3551,-0.035,-0.115
3552,-0.025,-0.095
3553,-0.105,-0.125
3554,-0.135,-0.205
3555,-0.165,-0.195
3556,-0.135,-0.185
3557,-0.175,-0.165
3558,-0.235,-0.185
3559,-0.225,-0.215
3560,-0.205,-0.205
3561,-0.205,-0.195
3562,-0.185,-0.195
3563,-0.195,-0.185
3564,-0.035,-0.155
3565,0.105,0.095
3566,0.365,0.505
3567,0.685,0.205
3568,0.525,-0.905
3569,-0.495,-1.205
3570,-1.275,-1.435
3571,-1.175,-1.185
3572,-0.705,-0.685
3573,-0.305,-0.325
3574,-0.165,-0.055
3575,-0.115,-0.005
3576,-0.105,0.005
3577,-0.085,0.005
3578,-0.065,0.015
3579,-0.055,0.025
3580,-0.045,0.045
3581,-0.025,0.055
3582,-0.025,0.055
3583,0.015,0.065
3584,0.045,0.095
3585,0.065,0.115
3586,0.105,0.125
3587,0.125,0.145
3588,0.175,0.185
3589,0.215,0.205
3590,0.245,0.225
3591,0.285,0.285
3592,0.335,0.325
3593,0.355,0.355
3594,0.395,0.385
3595,0.415,0.405
3596,0.435,0.415
3597,0.435,0.425
3598,0.425,0.425
3599,0.435,0.415
3600,0.415,0.415
3601,0.385,0.365
3602,0.345,0.305
3603,0.285,0.235
3604,0.235,0.165
3605,0.175,0.075
3606,0.135,0.015
3607,0.105,-0.015
3608,0.075,-0.045
3609,0.055,-0.075
3610,0.055,-0.095
3611,0.035,-0.105
3612,0.045,-0.095
3613,0.045,-0.105
3614,0.045,-0.105
3615,0.055,-0.095
3616,0.065,-0.095
3617,0.085,-0.095
3618,0.075,-0.095
3619,0.075,-0.095
3620,0.065,-0.095
3621,0.065,-0.105
3622,0.065,-0.115
3623,0.065,-0.115
3624,0.065,-0.105
3625,0.065,-0.125
3626,0.065,-0.135
3627,0.055,-0.125
3628,0.045,-0.135
3629,0.045,-0.145
3630,0.035,-0.155
3631,0.045,-0.155
3632,0.045,-0.145
3633,0.035,-0.165
3634,0.045,-0.165
3635,0.035,-0.165
3636,0.045,-0.165
3637,0.045,-0.175
3638,0.035,-0.185
3639,0.045,-0.175
3640,0.055,-0.165
3641,0.055,-0.175
3642,0.075,-0.155
3643,0.075,-0.145
3644,0.135,-0.135
3645,0.165,-0.105
3646,0.145,-0.115
3647,0.195,-0.125
3648,0.215,-0.095
3649,0.155,-0.115
3650,0.095,-0.195
3651,0.085,-0.205
3652,0.105,-0.175
3653,0.045,-0.175
3654,-0.005,-0.185
3655,-0.005,-0.205
3656,0.025,-0.195
3657,0.015,-0.195
3658,0.035,-0.195
3659,0.015,-0.185
3660,0.165,-0.155
3661,0.235,0.055
3662,0.505,0.345
3663,0.765,0.505
3664,0.955,-0.315
3665,0.245,-0.875
3666,-0.635,-1.155
3667,-1.015,-1.285
3668,-0.685,-0.865
3669,-0.335,-0.535
3670,-0.045,-0.285
3671,0.065,-0.075
3672,0.105,-0.015
3673,0.105,-0.025
3674,0.135,-0.035
3675,0.135,-0.015
3676,0.155,0.005
3677,0.165,0.005
3678,0.165,0.005
3679,0.195,0.015
3680,0.225,0.045
3681,0.235,0.045
3682,0.275,0.065
3683,0.285,0.085
3684,0.315,0.105
3685,0.335,0.115
3686,0.345,0.135
3687,0.395,0.165
3688,0.425,0.205
3689,0.465,0.235
3690,0.505,0.255
3691,0.525,0.285
3692,0.545,0.305
3693,0.555,0.315
3694,0.535,0.315
3695,0.555,0.305
3696,0.545,0.305
3697,0.525,0.295
3698,0.505,0.265
3699,0.445,0.225
3700,0.395,0.165
3701,0.325,0.115
3702,0.255,0.045
3703,0.215,-0.015
3704,0.185,-0.045
3705,0.145,-0.075
3706,0.155,-0.095
3707,0.135,-0.095
3708,0.135,-0.095
3709,0.125,-0.105
3710,0.115,-0.105
3711,0.135,-0.105
3712,0.125,-0.095
3713,0.115,-0.105
3714,0.135,-0.115
3715,0.125,-0.105
3716,0.125,-0.105
3717,0.125,-0.105
3718,0.095,-0.115
3719,0.105,-0.125
3720,0.105,-0.115
3721,0.075,-0.125
3722,0.075,-0.145
3723,0.065,-0.135
3724,0.055,-0.135
3725,0.045,-0.145
3726,0.035,-0.155
3727,0.035,-0.155
3728,0.035,-0.155
3729,0.015,-0.165
3730,0.025,-0.175
3731,0.015,-0.175
3732,0.005,-0.165
3733,0.025,-0.165
3734,0.015,-0.165
3735,0.025,-0.155
3736,0.075,-0.145
3737,0.115,-0.105
3738,0.095,-0.105
3739,0.115,-0.115
3740,0.135,-0.095
3741,0.085,-0.115
3742,0.015,-0.175
3743,-0.015,-0.195
3744,0.005,-0.185
3745,-0.045,-0.175
3746,-0.085,-0.195
3747,-0.115,-0.195
3748,-0.105,-0.205
3749,-0.095,-0.205
3750,-0.095,-0.195
3751,-0.105,-0.195
3752,0.005,-0.175
3753,0.065,-0.015
3754,0.345,0.265
3755,0.595,0.585
3756,0.975,-0.115
3757,0.275,-0.795
3758,-0.795,-1.095
3759,-1.175,-1.325
3760,-0.865,-0.875
3761,-0.505,-0.535
3762,-0.225,-0.275
3763,-0.135,-0.065
3764,-0.105,-0.025
3765,-0.095,-0.035
3766,-0.095,-0.025
3767,-0.075,-0.005
3768,-0.065,-0.005
3769,-0.075,0.005
3770,-0.045,0.015
3771,-0.035,0.025
3772,-0.015,0.055
3773,-0.005,0.045
3774,0.005,0.065
3775,0.035,0.085
3776,0.065,0.105
3777,0.075,0.125
3778,0.115,0.155
3779,0.135,0.185
3780,0.185,0.205
3781,0.215,0.245
3782,0.235,0.275
3783,0.275,0.305
3784,0.285,0.335
3785,0.285,0.335
3786,0.305,0.325
3787,0.295,0.335
3788,0.275,0.325
3789,0.245,0.305
3790,0.205,0.275
3791,0.155,0.235
3792,0.105,0.185
3793,0.015,0.115
3794,-0.025,0.035
3795,-0.085,-0.015
3796,-0.115,-0.045
3797,-0.135,-0.075
3798,-0.165,-0.105
3799,-0.175,-0.115
3800,-0.175,-0.115
3801,-0.195,-0.115
3802,-0.175,-0.115
3803,-0.185,-0.115
3804,-0.185,-0.105
3805,-0.185,-0.115
3806,-0.195,-0.115
3807,-0.185,-0.115
3808,-0.185,-0.105
3809,-0.195,-0.105
3810,-0.185,-0.115
3811,-0.195,-0.105
3812,-0.205,-0.115
3813,-0.205,-0.125
3814,-0.235,-0.135
3815,-0.225,-0.145
3816,-0.235,-0.135
3817,-0.255,-0.145
3818,-0.245,-0.155
3819,-0.255,-0.155
3820,-0.255,-0.155
3821,-0.255,-0.165
3822,-0.285,-0.165
3823,-0.275,-0.175
3824,-0.275,-0.165
3825,-0.285,-0.175
3826,-0.275,-0.185
3827,-0.285,-0.175
3828,-0.285,-0.175
3829,-0.295,-0.175
3830,-0.285,-0.185
3831,-0.265,-0.165
3832,-0.235,-0.145
3833,-0.185,-0.135
3834,-0.155,-0.105
3835,-0.195,-0.095
3836,-0.155,-0.125
3837,-0.155,-0.115
3838,-0.235,-0.155
3839,-0.275,-0.215
3840,-0.275,-0.205
3841,-0.275,-0.195
3842,-0.315,-0.185
3843,-0.365,-0.205
3844,-0.365,-0.205
3845,-0.355,-0.215
3846,-0.345,-0.215
3847,-0.345,-0.205
3848,-0.345,-0.195
3849,-0.185,-0.125
3850,0.065,0.145
3851,0.285,0.555
3852,0.705,-0.095
3853,0.265,-1.005
3854,-0.805,-1.185
3855,-1.515,-1.445
3856,-1.285,-1.115
3857,-0.835,-0.665
3858,-0.455,-0.305
3859,-0.345,-0.055
3860,-0.305,-0.005
3861,-0.295,-0.025
3862,-0.295,-0.025
3863,-0.285,-0.015
3864,-0.275,0.015
3865,-0.265,0.005
3866,-0.245,0.025
3867,-0.225,0.045
3868,-0.215,0.055
3869,-0.195,0.055
3870,-0.175,0.075
3871,-0.145,0.105
3872,-0.105,0.135
3873,-0.075,0.155
3874,-0.045,0.185
3875,-0.005,0.215
3876,0.035,0.265
3877,0.075,0.295
3878,0.095,0.325
3879,0.135,0.355
3880,0.165,0.385
3881,0.165,0.395
3882,0.185,0.395
3883,0.165,0.395
3884,0.165,0.395
3885,0.135,0.375
3886,0.105,0.335
3887,0.055,0.285
3888,0.005,0.225
3889,-0.065,0.135
3890,-0.115,0.055
3891,-0.175,-0.005
3892,-0.215,-0.045
3893,-0.235,-0.075
3894,-0.275,-0.115
3895,-0.275,-0.115
3896,-0.275,-0.125
3897,-0.295,-0.125
3898,-0.295,-0.135
3899,-0.295,-0.135
3900,-0.295,-0.125
3901,-0.275,-0.135
3902,-0.285,-0.135
3903,-0.275,-0.135
3904,-0.275,-0.115
3905,-0.285,-0.125
3906,-0.265,-0.135
3907,-0.275,-0.135
3908,-0.285,-0.135
3909,-0.275,-0.145
3910,-0.285,-0.155
3911,-0.295,-0.165
3912,-0.295,-0.155
3913,-0.325,-0.165
3914,-0.315,-0.175
3915,-0.325,-0.175
3916,-0.335,-0.175
3917,-0.345,-0.185
3918,-0.365,-0.185
3919,-0.355,-0.195
3920,-0.345,-0.185
3921,-0.365,-0.195
3922,-0.345,-0.205
3923,-0.365,-0.205
3924,-0.355,-0.205
3925,-0.345,-0.205
3926,-0.365,-0.215
3927,-0.365,-0.205
3928,-0.345,-0.195
3929,-0.335,-0.195
3930,-0.315,-0.175
3931,-0.255,-0.185
3932,-0.215,-0.125
3933,-0.225,-0.125
3934,-0.235,-0.145
3935,-0.185,-0.155
3936,-0.225,-0.135
3937,-0.295,-0.205
3938,-0.315,-0.255
3939,-0.305,-0.235
3940,-0.335,-0.205
3941,-0.385,-0.215
3942,-0.415,-0.245
3943,-0.395,-0.255
3944,-0.375,-0.225
3945,-0.375,-0.225
3946,-0.395,-0.235
3947,-0.265,-0.215
3948,-0.145,-0.015
3949,0.175,0.315
3950,0.295,0.445
3951,0.635,-0.575
3952,-0.135,-1.205
3953,-1.255,-1.325
3954,-1.555,-1.445
3955,-1.095,-0.945
3956,-0.655,-0.515
3957,-0.395,-0.185
3958,-0.335,-0.055
3959,-0.305,-0.035
3960,-0.295,-0.035
3961,-0.295,-0.035
3962,-0.265,-0.025
3963,-0.255,-0.015
3964,-0.245,0.005
3965,-0.225,0.005
3966,-0.215,0.025
3967,-0.185,0.045
3968,-0.155,0.065
3969,-0.135,0.075
3970,-0.085,0.095
3971,-0.065,0.135
3972,-0.035,0.155
3973,-0.005,0.185
3974,0.025,0.215
3975,0.075,0.245
3976,0.125,0.305
3977,0.145,0.325
3978,0.195,0.345
3979,0.205,0.375
3980,0.225,0.385
3981,0.225,0.385
3982,0.215,0.385
3983,0.215,0.385
3984,0.205,0.375
3985,0.165,0.345
3986,0.125,0.275
3987,0.055,0.215
3988,-0.005,0.135
3989,-0.065,0.045
3990,-0.125,-0.005
3991,-0.155,-0.055
3992,-0.175,-0.065
3993,-0.195,-0.105
3994,-0.185,-0.125
3995,-0.205,-0.125
3996,-0.205,-0.125
3997,-0.205,-0.125
3998,-0.215,-0.135
3999,-0.195,-0.125
4000,-0.185,-0.105
4001,-0.185,-0.115
4002,-0.165,-0.125
4003,-0.175,-0.115
4004,-0.165,-0.115
4005,-0.165,-0.125
4006,-0.175,-0.135
4007,-0.165,-0.125
4008,-0.165,-0.125
4009,-0.175,-0.135
4010,-0.175,-0.145
4011,-0.185,-0.155
4012,-0.185,-0.145
4013,-0.205,-0.165
4014,-0.215,-0.165
4015,-0.205,-0.175
4016,-0.205,-0.165
4017,-0.225,-0.175
4018,-0.215,-0.185
4019,-0.205,-0.175
4020,-0.205,-0.165
4021,-0.205,-0.185
4022,-0.205,-0.195
4023,-0.195,-0.185
4024,-0.185,-0.175
4025,-0.195,-0.175
4026,-0.175,-0.185
4027,-0.185,-0.185
4028,-0.175,-0.175
4029,-0.175,-0.185
4030,-0.175,-0.185
4031,-0.155,-0.185
4032,-0.135,-0.155
4033,-0.115,-0.155
4034,-0.045,-0.145
4035,-0.015,-0.095
4036,-0.045,-0.095
4037,-0.015,-0.125
4038,0.015,-0.125
4039,-0.015,-0.115
4040,-0.075,-0.175
4041,-0.115,-0.215
4042,-0.075,-0.215
4043,-0.125,-0.175
4044,-0.155,-0.185
4045,-0.175,-0.205
4046,-0.165,-0.225
4047,-0.145,-0.205
4048,-0.145,-0.185
4049,-0.165,-0.195
4050,-0.005,-0.185
4051,0.125,0.035
4052,0.395,0.385
4053,0.585,0.395
4054,0.725,-0.675
4055,-0.155,-1.145
4056,-1.075,-1.335
4057,-1.175,-1.245
4058,-0.715,-0.765
4059,-0.325,-0.405
4060,-0.125,-0.135
4061,-0.055,-0.025
4062,-0.055,-0.005
4063,-0.035,-0.015
4064,-0.015,0.005
4065,-0.005,0.005
4066,0.025,0.005
4067,0.025,0.035
4068,0.055,0.045
4069,0.065,0.055
4070,0.085,0.065
4071,0.115,0.085
4072,0.145,0.115
4073,0.165,0.125
4074,0.215,0.135
4075,0.235,0.175
4076,0.275,0.205
4077,0.305,0.235
4078,0.335,0.255
4079,0.375,0.305
4080,0.415,0.335
4081,0.425,0.355
4082,0.465,0.365
4083,0.475,0.385
4084,0.475,0.385
4085,0.475,0.385
4086,0.455,0.375
4087,0.455,0.365
4088,0.425,0.355
4089,0.385,0.295
4090,0.335,0.225
4091,0.255,0.155
4092,0.215,0.095
4093,0.155,0.025
4094,0.115,-0.025
4095,0.105,-0.055
4096,0.085,-0.065
4097,0.055,-0.085
4098,0.075,-0.105
4099,0.065,-0.105
4100,0.065,-0.095
4101,0.055,-0.105
4102,0.055,-0.105
4103,0.075,-0.095
4104,0.085,-0.085
4105,0.085,-0.095
4106,0.085,-0.095
4107,0.085,-0.095
4108,0.075,-0.085
4109,0.075,-0.095
4110,0.055,-0.105
4111,0.065,-0.115
4112,0.065,-0.115
4113,0.045,-0.125
4114,0.055,-0.135
4115,0.055,-0.135
4116,0.045,-0.135
4117,0.045,-0.145
4118,0.025,-0.155
4119,0.045,-0.155
4120,0.025,-0.145
4121,0.025,-0.165
4122,0.035,-0.165
4123,0.035,-0.155
4124,0.035,-0.155
4125,0.035,-0.155
4126,0.025,-0.175
4127,0.035,-0.165
4128,0.025,-0.165
4129,0.025,-0.165
4130,0.065,-0.155
4131,0.065,-0.145
4132,0.095,-0.145
4133,0.145,-0.125
4134,0.145,-0.105
4135,0.145,-0.115
4136,0.195,-0.105
4137,0.175,-0.105
4138,0.095,-0.155
4139,0.065,-0.185
4140,0.085,-0.185
4141,0.065,-0.175
4142,0.005,-0.175
4143,-0.015,-0.195
4144,-0.015,-0.195
4145,-0.005,-0.195
4146,0.015,-0.195
4147,0.005,-0.175
4148,0.025,-0.165
4149,0.165,-0.085
4150,0.325,0.145
4151,0.555,0.565
4152,1.005,0.295
4153,0.715,-0.545
4154,-0.125,-0.875
4155,-0.855,-1.265
4156,-0.955,-1.105
4157,-0.595,-0.705
4158,-0.245,-0.425
4159,-0.025,-0.165
4160,0.035,-0.025
4161,0.055,-0.015
4162,0.075,-0.015
4163,0.085,-0.005
4164,0.095,0.005
4165,0.115,0.005
4166,0.115,0.005
4167,0.145,0.035
4168,0.155,0.045
4169,0.165,0.055
4170,0.195,0.065
4171,0.205,0.085
4172,0.245,0.105
4173,0.275,0.125
4174,0.275,0.135
4175,0.315,0.175
4176,0.355,0.205
4177,0.375,0.225
4178,0.425,0.245
4179,0.445,0.275
4180,0.485,0.305
4181,0.485,0.315
4182,0.495,0.305
4183,0.485,0.315
4184,0.485,0.315
4185,0.465,0.305
4186,0.445,0.275
4187,0.395,0.255
4188,0.335,0.215
4189,0.295,0.155
4190,0.215,0.095
4191,0.165,0.035
4192,0.125,0.015
4193,0.075,-0.035
4194,0.065,-0.055
4195,0.045,-0.075
4196,0.045,-0.075
4197,0.045,-0.085
4198,0.015,-0.085
4199,0.025,-0.095
4200,0.025,-0.075
4201,0.015,-0.085
4202,0.025,-0.085
4203,0.025,-0.085
4204,0.015,-0.075
4205,0.025,-0.085
4206,-0.005,-0.085
4207,0.005,-0.085
4208,-0.005,-0.085
4209,-0.025,-0.095
4210,-0.025,-0.105
4211,-0.025,-0.105
4212,-0.035,-0.105
4213,-0.045,-0.115
4214,-0.065,-0.125
4215,-0.065,-0.125
4216,-0.065,-0.125
4217,-0.085,-0.125
4218,-0.095,-0.135
4219,-0.095,-0.135
4220,-0.095,-0.135
4221,-0.095,-0.135
4222,-0.125,-0.145
4223,-0.115,-0.155
4224,-0.105,-0.145
4225,-0.125,-0.145
4226,-0.115,-0.155
4227,-0.115,-0.135
4228,-0.105,-0.125
4229,-0.065,-0.125
4230,-0.025,-0.115
4231,-0.005,-0.075
4232,-0.035,-0.065
4233,-0.005,-0.095
4234,0.015,-0.095
4235,-0.055,-0.095
4236,-0.115,-0.165
4237,-0.135,-0.175
4238,-0.135,-0.165
4239,-0.175,-0.155
4240,-0.215,-0.155
4241,-0.225,-0.185
4242,-0.215,-0.175
4243,-0.215,-0.165
4244,-0.205,-0.165
4245,-0.215,-0.165
4246,-0.065,-0.105
4247,0.135,0.165
4248,0.415,0.605
4249,0.795,0.135
4250,0.565,-0.775
4251,-0.405,-1.045
4252,-1.255,-1.335
4253,-1.295,-1.185
4254,-0.885,-0.745
4255,-0.505,-0.415
4256,-0.285,-0.115
4257,-0.245,-0.005
4258,-0.205,0.005
4259,-0.215,0.005
4260,-0.205,0.025
4261,-0.205,0.025
4262,-0.205,0.035
4263,-0.185,0.025
4264,-0.155,0.065
4265,-0.155,0.075
4266,-0.115,0.085
4267,-0.115,0.105
4268,-0.085,0.125
4269,-0.065,0.135
4270,-0.055,0.165
4271,-0.005,0.185
4272,0.035,0.225
4273,0.055,0.255
4274,0.115,0.285
4275,0.145,0.325
4276,0.175,0.355
4277,0.195,0.385
4278,0.205,0.395
4279,0.225,0.395
4280,0.235,0.415
4281,0.225,0.405
4282,0.215,0.395
4283,0.175,0.365
4284,0.125,0.325
4285,0.065,0.255
4286,-0.015,0.175
4287,-0.055,0.095
4288,-0.115,0.045
4289,-0.165,-0.015
4290,-0.185,-0.045
4291,-0.215,-0.065
4292,-0.225,-0.075
4293,-0.235,-0.105
4294,-0.265,-0.105
4295,-0.245,-0.105
4296,-0.245,-0.095
4297,-0.255,-0.105
4298,-0.235,-0.105
4299,-0.245,-0.085
4300,-0.235,-0.075
4301,-0.235,-0.095
4302,-0.245,-0.095
4303,-0.245,-0.085
4304,-0.245,-0.075
4305,-0.245,-0.095
4306,-0.245,-0.105
4307,-0.255,-0.105
4308,-0.255,-0.105
4309,-0.265,-0.115
4310,-0.275,-0.115
4311,-0.275,-0.135
4312,-0.285,-0.125
4313,-0.295,-0.145
4314,-0.295,-0.135
4315,-0.305,-0.145
4316,-0.305,-0.145
4317,-0.315,-0.155
4318,-0.315,-0.165
4319,-0.305,-0.145
4320,-0.315,-0.145
4321,-0.315,-0.155
4322,-0.305,-0.165
4323,-0.315,-0.155
4324,-0.305,-0.145
4325,-0.305,-0.155
4326,-0.315,-0.165
4327,-0.305,-0.155
4328,-0.305,-0.155
4329,-0.305,-0.155
4330,-0.305,-0.155
4331,-0.285,-0.155
4332,-0.265,-0.115
4333,-0.245,-0.125
4334,-0.195,-0.115
4335,-0.165,-0.075
4336,-0.185,-0.065
4337,-0.165,-0.095
4338,-0.135,-0.105
4339,-0.205,-0.105
4340,-0.245,-0.175
4341,-0.275,-0.185
4342,-0.255,-0.185
4343,-0.285,-0.155
4344,-0.335,-0.155
4345,-0.345,-0.185
4346,-0.325,-0.195
4347,-0.325,-0.175
4348,-0.315,-0.165
4349,-0.335,-0.175
4350,-0.195,-0.145
4351,-0.005,0.115
4352,0.315,0.565
4353,0.515,0.215
4354,0.585,-0.825
4355,-0.335,-1.145
4356,-1.325,-1.345
4357,-1.365,-1.235
4358,-0.905,-0.735
4359,-0.495,-0.355
4360,-0.305,-0.045
4361,-0.265,0.025
4362,-0.245,0.025
4363,-0.245,0.025
4364,-0.235,0.025
4365,-0.215,0.035
4366,-0.215,0.045
4367,-0.185,0.055
4368,-0.175,0.085
4369,-0.165,0.095
4370,-0.125,0.105
4371,-0.095,0.135
4372,-0.075,0.165
4373,-0.045,0.175
4374,-0.015,0.195
4375,0.025,0.225
4376,0.065,0.265
4377,0.095,0.305
4378,0.145,0.325
4379,0.175,0.365
4380,0.215,0.395
4381,0.235,0.415
4382,0.245,0.435
4383,0.255,0.445
4384,0.265,0.455
4385,0.265,0.445
4386,0.255,0.435
4387,0.215,0.405
4388,0.175,0.355
4389,0.135,0.285
4390,0.055,0.205
4391,-0.005,0.125
4392,-0.045,0.065
4393,-0.105,-0.005
4394,-0.125,-0.035
4395,-0.145,-0.065
4396,-0.155,-0.075
4397,-0.155,-0.085
4398,-0.165,-0.095
4399,-0.155,-0.095
4400,-0.155,-0.085
4401,-0.155,-0.095
4402,-0.135,-0.095
4403,-0.135,-0.095
4404,-0.135,-0.085
4405,-0.125,-0.095
4406,-0.135,-0.095
4407,-0.125,-0.085
4408,-0.125,-0.085
4409,-0.125,-0.095
4410,-0.115,-0.095
4411,-0.125,-0.105
4412,-0.135,-0.105
4413,-0.135,-0.125
4414,-0.155,-0.135
4415,-0.145,-0.135
4416,-0.145,-0.125
4417,-0.165,-0.135
4418,-0.155,-0.145
4419,-0.155,-0.145
4420,-0.165,-0.145
4421,-0.155,-0.155
4422,-0.175,-0.155
4423,-0.155,-0.165
4424,-0.145,-0.155
4425,-0.145,-0.165
4426,-0.145,-0.165
4427,-0.155,-0.165
4428,-0.135,-0.155
4429,-0.135,-0.165
4430,-0.145,-0.175
4431,-0.135,-0.165
4432,-0.125,-0.155
4433,-0.125,-0.165
4434,-0.115,-0.175
4435,-0.115,-0.165
4436,-0.115,-0.155
4437,-0.105,-0.165
4438,-0.095,-0.155
4439,-0.065,-0.145
4440,-0.015,-0.135
4441,0.025,-0.095
4442,0.045,-0.085
4443,0.045,-0.105
4444,0.085,-0.095
4445,0.055,-0.105
4446,-0.025,-0.175
4447,-0.045,-0.205
4448,-0.015,-0.185
4449,-0.045,-0.165
4450,-0.085,-0.185
4451,-0.105,-0.195
4452,-0.085,-0.185
4453,-0.075,-0.185
4454,-0.085,-0.175
4455,-0.065,-0.175
4456,0.075,-0.155
4457,0.165,0.055
4458,0.475,0.365
4459,0.605,0.495
4460,0.935,-0.475
4461,0.305,-1.095
4462,-0.795,-1.185
4463,-1.205,-1.355
4464,-0.775,-0.875
4465,-0.365,-0.485
4466,-0.065,-0.175
4467,0.005,-0.005
4468,0.035,0.015
4469,0.045,0.005
4470,0.045,0.005
4471,0.065,0.005
4472,0.095,0.035
4473,0.095,0.045
4474,0.125,0.035
4475,0.135,0.065
4476,0.175,0.085
4477,0.185,0.095
4478,0.205,0.105
4479,0.245,0.125
4480,0.265,0.155
4481,0.305,0.175
4482,0.345,0.205
4483,0.375,0.235
4484,0.405,0.275
4485,0.445,0.295
4486,0.465,0.325
4487,0.505,0.355
4488,0.535,0.375
4489,0.535,0.385
4490,0.565,0.385
4491,0.565,0.395
4492,0.555,0.405
4493,0.535,0.375
4494,0.485,0.335
4495,0.455,0.285
4496,0.405,0.235
4497,0.335,0.155
4498,0.285,0.065
4499,0.225,0.025
4500,0.205,-0.015
4501,0.185,-0.055
4502,0.155,-0.075
4503,0.145,-0.085
4504,0.145,-0.095
4505,0.145,-0.105
4506,0.155,-0.105
4507,0.145,-0.095
4508,0.155,-0.095
4509,0.135,-0.095
4510,0.145,-0.105
4511,0.155,-0.095
4512,0.155,-0.085
4513,0.145,-0.095
4514,0.155,-0.105
4515,0.135,-0.105
4516,0.135,-0.105
4517,0.135,-0.115
4518,0.115,-0.125
4519,0.125,-0.135
4520,0.125,-0.135
4521,0.105,-0.135
4522,0.115,-0.155
4523,0.085,-0.155
4524,0.095,-0.155
4525,0.095,-0.165
4526,0.085,-0.165
4527,0.085,-0.165
4528,0.075,-0.165
4529,0.075,-0.165
4530,0.085,-0.175
4531,0.075,-0.165
4532,0.075,-0.165
4533,0.085,-0.175
4534,0.065,-0.185
4535,0.075,-0.175
4536,0.095,-0.165
4537,0.095,-0.165
4538,0.155,-0.165
4539,0.175,-0.115
4540,0.175,-0.105
4541,0.185,-0.125
4542,0.235,-0.125
4543,0.205,-0.115
4544,0.115,-0.165
4545,0.095,-0.215
4546,0.115,-0.205
4547,0.085,-0.185
4548,0.025,-0.175
4549,0.005,-0.205
4550,0.005,-0.225
4551,0.025,-0.215
4552,0.035,-0.185
4553,0.025,-0.195
4554,0.055,-0.195
4555,0.175,-0.105
4556,0.345,0.125
4557,0.585,0.535
4558,1.085,0.245
4559,0.715,-0.545
4560,-0.235,-0.825
4561,-0.895,-1.285
4562,-0.905,-1.085
4563,-0.575,-0.705
4564,-0.265,-0.445
4565,-0.025,-0.205
4566,0.035,-0.055
4567,0.075,-0.025
4568,0.075,-0.015
4569,0.075,-0.025
4570,0.095,-0.015
4571,0.105,-0.005
4572,0.115,0.005
4573,0.125,0.015
4574,0.125,0.015
4575,0.165,0.035
4576,0.175,0.045
4577,0.185,0.055
4578,0.225,0.065
4579,0.245,0.095
4580,0.275,0.125
4581,0.305,0.125
4582,0.315,0.165
4583,0.365,0.185
4584,0.395,0.235
4585,0.415,0.245
4586,0.435,0.255
4587,0.455,0.275
4588,0.455,0.275
4589,0.455,0.275
4590,0.435,0.265
4591,0.415,0.265
4592,0.385,0.255
4593,0.345,0.215
4594,0.285,0.165
4595,0.215,0.115
4596,0.165,0.045
4597,0.115,0.005
4598,0.065,-0.045
4599,0.055,-0.055
4600,0.025,-0.065
4601,0.015,-0.095
4602,0.015,-0.095
4603,0.005,-0.095
4604,0.005,-0.095
4605,-0.005,-0.095
4606,-0.025,-0.105
4607,-0.015,-0.105
4608,-0.015,-0.095
4609,-0.015,-0.105
4610,-0.015,-0.105
4611,-0.025,-0.095
4612,-0.035,-0.085
4613,-0.035,-0.095
4614,-0.055,-0.105
4615,-0.055,-0.115
4616,-0.055,-0.105
4617,-0.085,-0.125
4618,-0.075,-0.135
4619,-0.085,-0.135
4620,-0.095,-0.135
4621,-0.105,-0.145
4622,-0.125,-0.145
4623,-0.125,-0.145
4624,-0.125,-0.145
4625,-0.145,-0.155
4626,-0.135,-0.165
4627,-0.145,-0.155
4628,-0.145,-0.155
4629,-0.145,-0.165
4630,-0.165,-0.175
4631,-0.155,-0.165
4632,-0.165,-0.155
4633,-0.175,-0.165
4634,-0.145,-0.155
4635,-0.135,-0.135
4636,-0.095,-0.135
4637,-0.055,-0.105
4638,-0.045,-0.085
4639,-0.065,-0.085
4640,-0.025,-0.095
4641,-0.055,-0.105
4642,-0.115,-0.135
4643,-0.165,-0.195
4644,-0.165,-0.185
4645,-0.175,-0.175
4646,-0.225,-0.185
4647,-0.255,-0.185
4648,-0.255,-0.185
4649,-0.235,-0.195
4650,-0.225,-0.195
4651,-0.255,-0.185
4652,-0.185,-0.175
4653,-0.065,-0.035
4654,0.255,0.265
4655,0.455,0.555
4656,0.855,-0.335
4657,0.095,-1.075
4658,-1.075,-1.225
4659,-1.445,-1.375
4660,-1.045,-0.935
4661,-0.615,-0.525
4662,-0.325,-0.205
4663,-0.235,-0.025
4664,-0.225,0.015
4665,-0.215,-0.005
4666,-0.205,-0.015
4667,-0.205,0.005
4668,-0.185,0.025
4669,-0.185,0.025
4670,-0.165,0.035
4671,-0.145,0.055
4672,-0.135,0.075
4673,-0.105,0.085
4674,-0.075,0.105
4675,-0.065,0.125
4676,-0.035,0.145
4677,0.005,0.185
4678,0.035,0.205
4679,0.065,0.235
4680,0.115,0.285
4681,0.155,0.305
4682,0.195,0.335
4683,0.225,0.365
4684,0.235,0.385
4685,0.255,0.405
4686,0.245,0.395
4687,0.255,0.405
4688,0.245,0.405
4689,0.215,0.375
4690,0.185,0.345
4691,0.125,0.275
4692,0.065,0.225
4693,0.005,0.125
4694,-0.055,0.055
4695,-0.105,0.005
4696,-0.135,-0.025
4697,-0.165,-0.065
4698,-0.175,-0.095
4699,-0.195,-0.105
4700,-0.205,-0.105
4701,-0.215,-0.115
4702,-0.245,-0.135
4703,-0.225,-0.125
4704,-0.215,-0.115
4705,-0.225,-0.115
4706,-0.205,-0.115
4707,-0.215,-0.105
4708,-0.215,-0.095
4709,-0.205,-0.105
4710,-0.225,-0.105
4711,-0.205,-0.105
4712,-0.215,-0.105
4713,-0.225,-0.115
4714,-0.215,-0.135
4715,-0.225,-0.125
4716,-0.235,-0.135
4717,-0.245,-0.135
4718,-0.265,-0.145
4719,-0.265,-0.155
4720,-0.255,-0.145
4721,-0.275,-0.155
4722,-0.265,-0.165
4723,-0.285,-0.155
4724,-0.285,-0.145
4725,-0.285,-0.155
4726,-0.295,-0.175
4727,-0.285,-0.165
4728,-0.285,-0.145
4729,-0.295,-0.165
4730,-0.285,-0.165
4731,-0.285,-0.165
4732,-0.285,-0.155
4733,-0.285,-0.155
4734,-0.305,-0.165
4735,-0.275,-0.165
4736,-0.245,-0.135
4737,-0.215,-0.135
4738,-0.155,-0.105
4739,-0.135,-0.075
4740,-0.165,-0.085
4741,-0.135,-0.105
4742,-0.145,-0.105
4743,-0.205,-0.145
4744,-0.245,-0.195
4745,-0.265,-0.185
4746,-0.245,-0.195
4747,-0.295,-0.175
4748,-0.335,-0.185
4749,-0.335,-0.205
4750,-0.335,-0.205
4751,-0.315,-0.205
4752,-0.315,-0.185
4753,-0.275,-0.195
4754,-0.115,-0.075
4755,0.175,0.245
4756,0.365,0.565
4757,0.765,-0.345
4758,0.085,-1.145
4759,-1.135,-1.255
4760,-1.485,-1.405
4761,-1.015,-0.895
4762,-0.535,-0.445
4763,-0.315,-0.105
4764,-0.265,0.015
4765,-0.255,-0.005
4766,-0.245,-0.015
4767,-0.225,0.005
4768,-0.215,0.025
4769,-0.195,0.025
4770,-0.195,0.025
4771,-0.175,0.045
4772,-0.155,0.065
4773,-0.135,0.065
4774,-0.115,0.095
4775,-0.085,0.125
4776,-0.045,0.145
4777,-0.025,0.165
4778,0.025,0.195
4779,0.045,0.225
4780,0.085,0.265
4781,0.125,0.285
4782,0.155,0.335
4783,0.195,0.365
4784,0.225,0.405
4785,0.235,0.415
4786,0.265,0.415
4787,0.265,0.435
4788,0.255,0.435
4789,0.245,0.425
4790,0.215,0.405
4791,0.185,0.365
4792,0.145,0.315
4793,0.065,0.225
4794,0.015,0.125
4795,-0.045,0.065
4796,-0.085,0.015
4797,-0.135,-0.025
4798,-0.165,-0.065
4799,-0.175,-0.095
4800,-0.175,-0.085
4801,-0.205,-0.105
4802,-0.195,-0.115
4803,-0.195,-0.115
4804,-0.185,-0.105
4805,-0.185,-0.115
4806,-0.195,-0.115
4807,-0.175,-0.105
4808,-0.175,-0.095
4809,-0.185,-0.105
4810,-0.165,-0.105
4811,-0.175,-0.115
4812,-0.175,-0.105
4813,-0.175,-0.115
4814,-0.195,-0.125
4815,-0.185,-0.135
4816,-0.185,-0.135
4817,-0.205,-0.135
4818,-0.195,-0.155
4819,-0.205,-0.155
4820,-0.215,-0.155
4821,-0.225,-0.175
4822,-0.245,-0.175
4823,-0.235,-0.185
4824,-0.235,-0.175
4825,-0.245,-0.185
4826,-0.235,-0.185
4827,-0.235,-0.175
4828,-0.235,-0.175
4829,-0.235,-0.185
4830,-0.235,-0.185
4831,-0.225,-0.195
4832,-0.235,-0.175
4833,-0.245,-0.185
4834,-0.225,-0.195
4835,-0.235,-0.175
4836,-0.215,-0.185
4837,-0.205,-0.175
4838,-0.205,-0.165
4839,-0.115,-0.155
4840,-0.075,-0.105
4841,-0.095,-0.105
4842,-0.075,-0.135
4843,-0.055,-0.135
4844,-0.085,-0.125
4845,-0.145,-0.185
4846,-0.195,-0.225
4847,-0.165,-0.215
4848,-0.195,-0.185
4849,-0.255,-0.205
4850,-0.255,-0.225
4851,-0.245,-0.225
4852,-0.225,-0.215
4853,-0.225,-0.215
4854,-0.255,-0.225
4855,-0.095,-0.195
4856,0.035,0.035
4857,0.345,0.385
4858,0.525,0.355
4859,0.665,-0.725
4860,-0.225,-1.235
4861,-1.245,-1.385
4862,-1.295,-1.335
4863,-0.785,-0.815
4864,-0.375,-0.415
4865,-0.195,-0.105
4866,-0.135,-0.035
4867,-0.135,-0.025
4868,-0.125,-0.025
4869,-0.105,-0.025
4870,-0.105,-0.015
4871,-0.085,-0.005
4872,-0.055,0.015
4873,-0.025,0.025
4874,-0.015,0.035
4875,0.005,0.055
4876,0.035,0.065
4877,0.055,0.085
4878,0.095,0.105
4879,0.125,0.145
4880,0.165,0.165
4881,0.195,0.185
4882,0.235,0.225
4883,0.275,0.255
4884,0.315,0.305
4885,0.345,0.325
4886,0.365,0.345
4887,0.395,0.375
4888,0.405,0.385
4889,0.395,0.385
4890,0.405,0.385
4891,0.395,0.375
4892,0.385,0.375
4893,0.345,0.325
4894,0.295,0.255
4895,0.245,0.185
4896,0.195,0.105
4897,0.135,0.045
4898,0.095,-0.025
4899,0.065,-0.055
4900,0.035,-0.085
4901,0.025,-0.105
4902,0.005,-0.125
4903,-0.005,-0.125
4904,0.005,-0.125
4905,0.005,-0.125
4906,0.015,-0.145
4907,0.025,-0.125
4908,0.015,-0.135
4909,0.025,-0.125
4910,0.025,-0.145
4911,0.025,-0.135
4912,0.035,-0.125
4913,0.025,-0.135
4914,0.025,-0.155
4915,0.015,-0.155
4916,0.015,-0.155
4917,0.005,-0.165
4918,-0.005,-0.175
4919,-0.005,-0.175
4920,0.005,-0.175
4921,-0.005,-0.185
4922,-0.005,-0.195
4923,-0.015,-0.195
4924,-0.015,-0.185
4925,-0.015,-0.205
4926,-0.025,-0.215
4927,-0.015,-0.205
4928,-0.005,-0.205
4929,-0.015,-0.205
4930,-0.005,-0.215
4931,-0.005,-0.215
4932,0.005,-0.205
4933,-0.005,-0.205
4934,-0.005,-0.215
4935,0.025,-0.195
4936,0.025,-0.185
4937,0.075,-0.185
4938,0.125,-0.155
4939,0.105,-0.135
4940,0.145,-0.155
4941,0.175,-0.145
4942,0.125,-0.145
4943,0.055,-0.215
4944,0.035,-0.225
4945,0.055,-0.215
4946,0.015,-0.215
4947,-0.035,-0.215
4948,-0.045,-0.235
4949,-0.025,-0.245
4950,-0.035,-0.235
4951,-0.015,-0.225
4952,-0.015,-0.205
4953,0.105,-0.205
4954,0.195,0.005
4955,0.465,0.315
4956,0.775,0.465
4957,0.875,-0.355
4958,0.105,-0.875
4959,-0.745,-1.215
4960,-1.025,-1.275
4961,-0.705,-0.865
4962,-0.365,-0.565
4963,-0.075,-0.305
4964,0.025,-0.095
4965,0.055,-0.065
4966,0.055,-0.065
4967,0.085,-0.065
4968,0.085,-0.045
4969,0.085,-0.055
4970,0.125,-0.045
4971,0.125,-0.025
4972,0.155,-0.015
4973,0.165,-0.005
4974,0.175,0.005
4975,0.205,0.015
4976,0.225,0.045
4977,0.255,0.065
4978,0.285,0.085
4979,0.305,0.105
4980,0.345,0.125
4981,0.375,0.155
4982,0.395,0.185
4983,0.435,0.215
4984,0.465,0.245
4985,0.475,0.245
4986,0.485,0.245
4987,0.485,0.265
4988,0.485,0.265
4989,0.465,0.245
4990,0.455,0.225
4991,0.415,0.205
4992,0.375,0.175
4993,0.315,0.105
4994,0.255,0.055
4995,0.195,0.005
4996,0.155,-0.045
4997,0.115,-0.075
4998,0.085,-0.115
4999,0.075,-0.125
5000,0.065,-0.125
5001,0.075,-0.135
5002,0.075,-0.145
5003,0.075,-0.145
5004,0.065,-0.135
5005,0.065,-0.135
5006,0.055,-0.145
5007,0.055,-0.135
5008,0.065,-0.135
5009,0.065,-0.135
5010,0.045,-0.145
5011,0.035,-0.145
5012,0.035,-0.145
5013,0.025,-0.155
5014,0.015,-0.165
5015,0.005,-0.155
5016,-0.005,-0.165
5017,-0.015,-0.175
5018,-0.015,-0.175
5019,-0.025,-0.185
5020,-0.025,-0.175
5021,-0.045,-0.195
5022,-0.055,-0.195
5023,-0.055,-0.195
5024,-0.065,-0.185
5025,-0.075,-0.205
5026,-0.045,-0.205
5027,-0.045,-0.185
5028,-0.055,-0.185
5029,0.005,-0.185
5030,0.015,-0.145
5031,0.015,-0.135
5032,0.045,-0.135
5033,0.055,-0.135
5034,0.005,-0.145
5035,-0.055,-0.205
5036,-0.085,-0.225
5037,-0.065,-0.215
5038,-0.115,-0.205
5039,-0.175,-0.225
5040,-0.185,-0.235
5041,-0.165,-0.245
5042,-0.155,-0.225
5043,-0.165,-0.215
5044,-0.165,-0.205
5045,-0.045,-0.195
5046,0.055,0.015
5047,0.345,0.365
5048,0.655,0.485
5049,0.815,-0.315
5050,0.015,-0.845
5051,-0.945,-1.175
5052,-1.225,-1.325
5053,-0.905,-0.895
5054,-0.575,-0.565
5055,-0.285,-0.305
5056,-0.185,-0.095
5057,-0.145,-0.065
5058,-0.145,-0.065
5059,-0.145,-0.055
5060,-0.125,-0.045
5061,-0.115,-0.045
5062,-0.115,-0.035
5063,-0.105,-0.025
5064,-0.075,-0.005
5065,-0.065,-0.005
5066,-0.045,0.005
5067,-0.035,0.035
5068,-0.005,0.055
5069,0.025,0.065
5070,0.035,0.085
5071,0.075,0.105
5072,0.105,0.155
5073,0.135,0.175
5074,0.175,0.195
5075,0.195,0.235
5076,0.235,0.265
5077,0.235,0.275
5078,0.235,0.285
5079,0.235,0.285
5080,0.245,0.285
5081,0.215,0.275
5082,0.205,0.265
5083,0.135,0.235
5084,0.095,0.195
5085,0.035,0.135
5086,-0.045,0.075
5087,-0.105,0.015
5088,-0.145,-0.025
5089,-0.195,-0.075
5090,-0.205,-0.105
5091,-0.235,-0.115
5092,-0.245,-0.105
5093,-0.255,-0.125
5094,-0.265,-0.135
5095,-0.255,-0.135
5096,-0.255,-0.115
5097,-0.275,-0.115
5098,-0.255,-0.125
5099,-0.265,-0.115
5100,-0.255,-0.105
5101,-0.265,-0.115
5102,-0.275,-0.115
5103,-0.275,-0.115
5104,-0.265,-0.115
5105,-0.285,-0.125
5106,-0.275,-0.135
5107,-0.285,-0.135
5108,-0.295,-0.135
5109,-0.305,-0.145
5110,-0.315,-0.155
5111,-0.315,-0.165
5112,-0.315,-0.145
5113,-0.335,-0.155
5114,-0.335,-0.175
5115,-0.335,-0.175
5116,-0.345,-0.165
5117,-0.345,-0.175
5118,-0.365,-0.175
5119,-0.345,-0.175
5120,-0.345,-0.175
5121,-0.335,-0.165
5122,-0.305,-0.145
5123,-0.255,-0.155
5124,-0.215,-0.095
5125,-0.245,-0.095
5126,-0.225,-0.125
5127,-0.205,-0.105
5128,-0.265,-0.105
5129,-0.315,-0.185
5130,-0.335,-0.205
5131,-0.315,-0.205
5132,-0.355,-0.165
5133,-0.415,-0.195
5134,-0.435,-0.215
5135,-0.415,-0.215
5136,-0.405,-0.205
5137,-0.405,-0.205
5138,-0.415,-0.205
5139,-0.255,-0.185
5140,-0.115,0.055
5141,0.235,0.435
5142,0.395,0.375
5143,0.565,-0.665
5144,-0.385,-1.185
5145,-1.475,-1.345
5146,-1.495,-1.305
5147,-1.005,-0.785
5148,-0.575,-0.375
5149,-0.405,-0.065
5150,-0.375,-0.015
5151,-0.345,-0.005
5152,-0.345,0.005
5153,-0.345,-0.005
5154,-0.325,0.005
5155,-0.305,0.005
5156,-0.295,0.035
5157,-0.275,0.045
5158,-0.265,0.055
5159,-0.235,0.085
5160,-0.205,0.105
5161,-0.175,0.115
5162,-0.135,0.145
5163,-0.105,0.175
5164,-0.085,0.205
5165,-0.045,0.235
5166,-0.005,0.255
5167,0.045,0.305
5168,0.085,0.345
5169,0.115,0.375
5170,0.145,0.395
5171,0.165,0.405
5172,0.175,0.435
5173,0.185,0.435
5174,0.165,0.425
5175,0.165,0.435
5176,0.145,0.415
5177,0.095,0.365
5178,0.045,0.295
5179,-0.025,0.215
5180,-0.095,0.135
5181,-0.145,0.055
5182,-0.195,0.005
5183,-0.225,-0.035
5184,-0.245,-0.055
5185,-0.265,-0.065
5186,-0.255,-0.085
5187,-0.265,-0.085
5188,-0.265,-0.085
5189,-0.265,-0.085
5190,-0.265,-0.095
5191,-0.245,-0.075
5192,-0.245,-0.075
5193,-0.255,-0.075
5194,-0.225,-0.065
5195,-0.225,-0.065
5196,-0.215,-0.065
5197,-0.225,-0.075
5198,-0.235,-0.095
5199,-0.225,-0.095
5200,-0.225,-0.075
5201,-0.235,-0.105
5202,-0.245,-0.115
5203,-0.255,-0.115
5204,-0.255,-0.115
5205,-0.265,-0.125
5206,-0.275,-0.135
5207,-0.265,-0.135
5208,-0.275,-0.115
5209,-0.285,-0.135
5210,-0.275,-0.135
5211,-0.285,-0.135
5212,-0.285,-0.125
5213,-0.285,-0.145
5214,-0.295,-0.145
5215,-0.275,-0.145
5216,-0.265,-0.135
5217,-0.245,-0.125
5218,-0.225,-0.125
5219,-0.175,-0.125
5220,-0.135,-0.075
5221,-0.135,-0.065
5222,-0.155,-0.085
5223,-0.105,-0.095
5224,-0.145,-0.075
5225,-0.215,-0.145
5226,-0.235,-0.185
5227,-0.215,-0.165
5228,-0.255,-0.145
5229,-0.305,-0.165
5230,-0.335,-0.195
5231,-0.305,-0.205
5232,-0.295,-0.165
5233,-0.295,-0.175
5234,-0.315,-0.185
5235,-0.175,-0.165
5236,-0.015,0.055
5237,0.325,0.455
5238,0.485,0.325
5239,0.575,-0.735
5240,-0.305,-1.205
5241,-1.315,-1.335
5242,-1.425,-1.355
5243,-0.955,-0.845
5244,-0.495,-0.405
5245,-0.275,-0.065
5246,-0.235,0.015
5247,-0.215,0.025
5248,-0.205,0.025
5249,-0.205,0.025
5250,-0.185,0.025
5251,-0.165,0.045
5252,-0.145,0.065
5253,-0.135,0.065
5254,-0.115,0.075
5255,-0.095,0.095
5256,-0.065,0.115
5257,-0.035,0.145
5258,0.005,0.145
5259,0.035,0.185
5260,0.075,0.215
5261,0.115,0.245
5262,0.145,0.275
5263,0.205,0.315
5264,0.235,0.365
5265,0.265,0.385
5266,0.315,0.405
5267,0.325,0.425
5268,0.335,0.445
5269,0.345,0.445
5270,0.335,0.425
5271,0.335,0.415
5272,0.295,0.405
5273,0.255,0.355
5274,0.215,0.285
5275,0.155,0.215
5276,0.095,0.145
5277,0.045,0.065
5278,-0.015,0.005
5279,-0.035,-0.015
5280,-0.045,-0.035
5281,-0.045,-0.055
5282,-0.065,-0.065
5283,-0.065,-0.075
5284,-0.065,-0.065
5285,-0.065,-0.075
5286,-0.055,-0.085
5287,-0.035,-0.075
5288,-0.045,-0.065
5289,-0.025,-0.065
5290,-0.015,-0.065
5291,-0.015,-0.065
5292,-0.015,-0.065
5293,-0.025,-0.075
5294,-0.015,-0.095
5295,-0.015,-0.085
5296,-0.015,-0.085
5297,-0.025,-0.095
5298,-0.015,-0.105
5299,-0.035,-0.105
5300,-0.025,-0.115
5301,-0.035,-0.115
5302,-0.045,-0.125
5303,-0.035,-0.135
5304,-0.035,-0.125
5305,-0.045,-0.125
5306,-0.035,-0.135
5307,-0.035,-0.135
5308,-0.035,-0.125
5309,-0.025,-0.135
5310,-0.035,-0.135
5311,-0.025,-0.135
5312,-0.025,-0.135
5313,-0.025,-0.135
5314,-0.005,-0.145
5315,-0.005,-0.145
5316,0.005,-0.135
5317,0.015,-0.125
5318,0.025,-0.125
5319,0.075,-0.125
5320,0.125,-0.065
5321,0.115,-0.065
5322,0.135,-0.085
5323,0.185,-0.075
5324,0.155,-0.075
5325,0.075,-0.125
5326,0.025,-0.175
5327,0.055,-0.175
5328,0.035,-0.135
5329,-0.015,-0.155
5330,-0.015,-0.175
5331,-0.015,-0.175
5332,0.005,-0.165
5333,0.005,-0.155
5334,-0.015,-0.165
5335,0.075,-0.165
5336,0.205,-0.005
5337,0.485,0.295
5338,0.725,0.555
5339,0.865,-0.415
5340,0.075,-0.995
5341,-0.845,-1.245
5342,-1.045,-1.215
5343,-0.595,-0.745
5344,-0.205,-0.395
5345,0.005,-0.125
5346,0.075,-0.015
5347,0.105,0.015
5348,0.105,0.025
5349,0.125,0.015
5350,0.135,0.015
5351,0.145,0.035
5352,0.175,0.055
5353,0.195,0.055
5354,0.215,0.065
5355,0.235,0.085
5356,0.255,0.095
5357,0.285,0.115
5358,0.305,0.125
5359,0.345,0.155
5360,0.385,0.195
5361,0.425,0.205
5362,0.445,0.235
5363,0.485,0.275
5364,0.515,0.305
5365,0.535,0.325
5366,0.565,0.325
5367,0.585,0.355
5368,0.595,0.365
5369,0.595,0.365
5370,0.595,0.355
5371,0.565,0.345
5372,0.545,0.335
5373,0.505,0.295
5374,0.445,0.235
5375,0.395,0.185
5376,0.335,0.125
5377,0.285,0.065
5378,0.255,0.015
5379,0.215,-0.015
5380,0.205,-0.035
5381,0.185,-0.055
5382,0.175,-0.065
5383,0.185,-0.085
5384,0.175,-0.065
5385,0.175,-0.075
5386,0.185,-0.085
5387,0.175,-0.075
5388,0.175,-0.065
5389,0.175,-0.075
5390,0.175,-0.085
5391,0.175,-0.075
5392,0.165,-0.065
5393,0.175,-0.085
5394,0.165,-0.095
5395,0.155,-0.095
5396,0.145,-0.095
5397,0.125,-0.105
5398,0.125,-0.125
5399,0.115,-0.115
5400,0.115,-0.115
5401,0.105,-0.135
5402,0.115,-0.135
5403,0.095,-0.145
5404,0.095,-0.135
5405,0.085,-0.145
5406,0.075,-0.165
5407,0.085,-0.145
5408,0.085,-0.145
5409,0.085,-0.145
5410,0.085,-0.165
5411,0.085,-0.155
5412,0.095,-0.135
5413,0.125,-0.145
5414,0.165,-0.125
5415,0.185,-0.085
5416,0.155,-0.095
5417,0.215,-0.105
5418,0.205,-0.095
5419,0.135,-0.125
5420,0.095,-0.185
5421,0.105,-0.185
5422,0.085,-0.165
5423,0.035,-0.175
5424,0.005,-0.175
5425,-0.015,-0.205
5426,0.015,-0.205
5427,0.015,-0.185
5428,0.015,-0.175
5429,0.005,-0.175
5430,0.125,-0.155
5431,0.235,0.055
5432,0.505,0.405
5433,0.895,0.435
5434,0.865,-0.345
5435,0.075,-0.785
5436,-0.775,-1.155
5437,-1.035,-1.235
5438,-0.725,-0.835
5439,-0.365,-0.525
5440,-0.075,-0.245
5441,-0.005,-0.065
5442,0.025,-0.035
5443,0.015,-0.035
5444,0.025,-0.025
5445,0.045,-0.025
5446,0.045,-0.025
5447,0.055,-0.005
5448,0.075,0.015
5449,0.085,0.015
5450,0.105,0.025
5451,0.125,0.035
5452,0.145,0.065
5453,0.165,0.075
5454,0.185,0.085
5455,0.225,0.105
5456,0.255,0.145
5457,0.285,0.165
5458,0.325,0.185
5459,0.355,0.215
5460,0.385,0.245
5461,0.405,0.255
5462,0.415,0.265
5463,0.415,0.275
5464,0.425,0.285
5465,0.415,0.265
5466,0.395,0.245
5467,0.345,0.245
5468,0.295,0.215
5469,0.245,0.165
5470,0.175,0.105
5471,0.115,0.045
5472,0.065,0.005
5473,0.025,-0.045
5474,-0.015,-0.075
5475,-0.045,-0.105
5476,-0.045,-0.105
5477,-0.065,-0.115
5478,-0.065,-0.125
5479,-0.065,-0.115
5480,-0.075,-0.115
5481,-0.055,-0.125
5482,-0.075,-0.115
5483,-0.075,-0.115
5484,-0.075,-0.105
5485,-0.095,-0.105
5486,-0.095,-0.115
5487,-0.085,-0.105
5488,-0.095,-0.105
5489,-0.095,-0.115
5490,-0.105,-0.125
5491,-0.115,-0.125
5492,-0.125,-0.125
5493,-0.125,-0.145
5494,-0.145,-0.155
5495,-0.145,-0.145
5496,-0.145,-0.145
5497,-0.165,-0.155
5498,-0.165,-0.165
5499,-0.175,-0.155
5500,-0.175,-0.155
5501,-0.185,-0.165
5502,-0.205,-0.175
5503,-0.195,-0.175
5504,-0.195,-0.175
5505,-0.205,-0.175
5506,-0.195,-0.185
5507,-0.205,-0.175
5508,-0.215,-0.175
5509,-0.215,-0.175
5510,-0.215,-0.185
5511,-0.205,-0.185
5512,-0.215,-0.175
5513,-0.215,-0.175
5514,-0.215,-0.175
5515,-0.215,-0.175
5516,-0.215,-0.165
5517,-0.195,-0.155
5518,-0.185,-0.145
5519,-0.115,-0.135
5520,-0.075,-0.085
5521,-0.095,-0.095
5522,-0.085,-0.115
5523,-0.065,-0.115
5524,-0.115,-0.115
5525,-0.165,-0.175
5526,-0.215,-0.215
5527,-0.185,-0.205
5528,-0.205,-0.165
5529,-0.265,-0.185
5530,-0.285,-0.205
5531,-0.285,-0.215
5532,-0.255,-0.195
5533,-0.255,-0.205
5534,-0.295,-0.205
5535,-0.145,-0.185
5536,-0.005,0.035
5537,0.345,0.395
5538,0.515,0.415
5539,0.785,-0.625
5540,-0.045,-1.135
5541,-1.215,-1.265
5542,-1.375,-1.355
5543,-0.915,-0.805
5544,-0.475,-0.395
5545,-0.285,-0.085
5546,-0.245,-0.015
5547,-0.245,-0.005
5548,-0.225,-0.015
5549,-0.235,-0.005
5550,-0.215,-0.005
5551,-0.205,0.015
5552,-0.185,0.025
5553,-0.165,0.035
5554,-0.145,0.045
5555,-0.145,0.075
5556,-0.125,0.085
5557,-0.095,0.105
5558,-0.075,0.115
5559,-0.035,0.145
5560,-0.005,0.185
5561,0.025,0.205
5562,0.065,0.245
5563,0.095,0.275
5564,0.145,0.325
5565,0.175,0.345
5566,0.195,0.365
5567,0.225,0.395
5568,0.235,0.415
5569,0.235,0.405
5570,0.245,0.405
5571,0.235,0.395
5572,0.215,0.385
5573,0.165,0.345
5574,0.105,0.275
5575,0.045,0.205
5576,-0.015,0.125
5577,-0.085,0.045
5578,-0.125,-0.015
5579,-0.155,-0.055
5580,-0.185,-0.075
5581,-0.195,-0.095
5582,-0.225,-0.115
5583,-0.215,-0.125
5584,-0.225,-0.115
5585,-0.235,-0.135
5586,-0.215,-0.135
5587,-0.225,-0.125
5588,-0.215,-0.115
5589,-0.225,-0.115
5590,-0.215,-0.125
5591,-0.215,-0.125
5592,-0.205,-0.105
5593,-0.215,-0.115
5594,-0.205,-0.125
5595,-0.215,-0.125
5596,-0.215,-0.125
5597,-0.225,-0.145
5598,-0.245,-0.165
5599,-0.245,-0.145
5600,-0.255,-0.145
5601,-0.255,-0.165
5602,-0.275,-0.175
5603,-0.285,-0.175
5604,-0.295,-0.175
5605,-0.305,-0.185
5606,-0.305,-0.195
5607,-0.305,-0.175
5608,-0.305,-0.185
5609,-0.295,-0.185
5610,-0.305,-0.185
5611,-0.325,-0.195
5612,-0.315,-0.195
5613,-0.315,-0.185
5614,-0.325,-0.205
5615,-0.325,-0.195
5616,-0.315,-0.185
5617,-0.325,-0.195
5618,-0.305,-0.195
5619,-0.315,-0.185
5620,-0.305,-0.185
5621,-0.315,-0.185
5622,-0.335,-0.195
5623,-0.315,-0.195
5624,-0.315,-0.185
5625,-0.325,-0.195
5626,-0.315,-0.195
5627,-0.315,-0.185
5628,-0.315,-0.175
5629,-0.315,-0.195
5630,-0.335,-0.195
5631,-0.295,-0.185
5632,-0.275,-0.155
5633,-0.265,-0.155
5634,-0.195,-0.145
5635,-0.185,-0.095
5636,-0.195,-0.105
5637,-0.155,-0.115
5638,-0.195,-0.125
5639,-0.245,-0.165
5640,-0.275,-0.205
5641,-0.285,-0.205
5642,-0.265,-0.195
5643,-0.315,-0.165
5644,-0.355,-0.185
5645,-0.345,-0.215
5646,-0.345,-0.215
5647,-0.315,-0.195
5648,-0.335,-0.185
5649,-0.265,-0.185
5650,-0.105,-0.065
5651,0.215,0.255
5652,0.375,0.565
5653,0.785,-0.365
5654,0.165,-1.125
5655,-1.045,-1.215
5656,-1.495,-1.425
5657,-1.065,-0.935
5658,-0.595,-0.495
5659,-0.355,-0.155
5660,-0.275,-0.015
5661,-0.255,-0.015
5662,-0.265,-0.005
5663,-0.245,-0.005
5664,-0.225,0.015
5665,-0.225,0.025
5666,-0.205,0.025
5667,-0.195,0.045
5668,-0.165,0.065
5669,-0.145,0.065
5670,-0.145,0.085
5671,-0.105,0.105
5672,-0.065,0.145
5673,-0.045,0.155
5674,-0.005,0.165
5675,0.025,0.215
5676,0.055,0.245
5677,0.095,0.275
5678,0.125,0.305
5679,0.175,0.345
5680,0.225,0.395
5681,0.245,0.405
5682,0.275,0.425
5683,0.275,0.425
5684,0.275,0.435
5685,0.275,0.425
5686,0.245,0.415
5687,0.235,0.385
5688,0.185,0.345
5689,0.125,0.255
5690,0.075,0.155
5691,0.015,0.095
5692,-0.045,0.035
5693,-0.085,-0.025
5694,-0.125,-0.065
5695,-0.125,-0.085
5696,-0.125,-0.095
5697,-0.145,-0.115
5698,-0.145,-0.115
5699,-0.145,-0.125
5700,-0.135,-0.115
5701,-0.145,-0.115
5702,-0.135,-0.125
5703,-0.125,-0.115
5704,-0.125,-0.095
5705,-0.105,-0.115
5706,-0.105,-0.115
5707,-0.105,-0.105
5708,-0.095,-0.105
5709,-0.115,-0.125
5710,-0.105,-0.135
5711,-0.105,-0.135
5712,-0.105,-0.135
5713,-0.095,-0.155
5714,-0.105,-0.145
5715,-0.115,-0.155
5716,-0.115,-0.145
5717,-0.125,-0.165
5718,-0.115,-0.165
5719,-0.115,-0.165
5720,-0.115,-0.155
5721,-0.105,-0.165
5722,-0.105,-0.165
5723,-0.115,-0.175
5724,-0.105,-0.165
5725,-0.115,-0.185
5726,-0.095,-0.185
5727,-0.095,-0.165
5728,-0.095,-0.165
5729,-0.075,-0.165
5730,-0.075,-0.165
5731,-0.085,-0.175
5732,-0.065,-0.165
5733,-0.065,-0.165
5734,-0.085,-0.175
5735,-0.065,-0.175
5736,-0.055,-0.165
5737,-0.065,-0.165
5738,-0.055,-0.175
5739,-0.045,-0.175
5740,-0.035,-0.165
5741,-0.025,-0.165
5742,-0.045,-0.175
5743,-0.035,-0.175
5744,-0.025,-0.165
5745,-0.025,-0.165
5746,-0.025,-0.175
5747,-0.015,-0.165
5748,-0.015,-0.155
5749,0.005,-0.165
5750,0.005,-0.155
5751,0.025,-0.145
5752,0.075,-0.135
5753,0.095,-0.095
5754,0.125,-0.105
5755,0.115,-0.105
5756,0.185,-0.085
5757,0.145,-0.095
5758,0.075,-0.155
5759,0.055,-0.185
5760,0.085,-0.165
5761,0.055,-0.145
5762,0.015,-0.155
5763,-0.015,-0.175
5764,0.005,-0.175
5765,0.015,-0.185
5766,0.015,-0.175
5767,0.015,-0.165
5768,0.135,-0.155
5769,0.225,0.015
5770,0.525,0.295
5771,0.765,0.525
5772,1.015,-0.345
5773,0.285,-0.925
5774,-0.735,-1.115
5775,-1.045,-1.275
5776,-0.675,-0.825
5777,-0.345,-0.515
5778,-0.045,-0.245
5779,0.055,-0.035
5780,0.115,0.015
5781,0.115,0.015
5782,0.115,0.005
5783,0.135,0.015
5784,0.155,0.045
5785,0.165,0.035
5786,0.185,0.045
5787,0.205,0.065
5788,0.225,0.075
5789,0.235,0.085
5790,0.265,0.095
5791,0.295,0.115
5792,0.325,0.165
5793,0.355,0.175
5794,0.385,0.195
5795,0.425,0.215
5796,0.455,0.245
5797,0.485,0.275
5798,0.505,0.305
5799,0.545,0.315
5800,0.565,0.365
5801,0.575,0.355
5802,0.605,0.365
5803,0.595,0.365
5804,0.585,0.365
5805,0.565,0.345
5806,0.515,0.295
5807,0.485,0.265
5808,0.435,0.215
5809,0.365,0.145
5810,0.305,0.075
5811,0.255,0.015
5812,0.225,-0.015
5813,0.185,-0.055
5814,0.155,-0.075
5815,0.155,-0.095
5816,0.145,-0.095
5817,0.145,-0.105
5818,0.145,-0.105
5819,0.135,-0.095
5820,0.145,-0.095
5821,0.145,-0.105
5822,0.135,-0.115
5823,0.135,-0.105
5824,0.145,-0.095
5825,0.145,-0.105
5826,0.145,-0.115
5827,0.125,-0.105
5828,0.135,-0.105
5829,0.115,-0.115
5830,0.105,-0.135
5831,0.115,-0.135
5832,0.105,-0.135
5833,0.095,-0.145
5834,0.085,-0.155
5835,0.075,-0.165
5836,0.065,-0.155
5837,0.065,-0.165
5838,0.055,-0.175
5839,0.055,-0.175
5840,0.065,-0.165
5841,0.045,-0.165
5842,0.045,-0.175
5843,0.035,-0.175
5844,0.045,-0.175
5845,0.025,-0.175
5846,0.025,-0.185
5847,0.015,-0.185
5848,0.015,-0.185
5849,0.025,-0.185
5850,0.025,-0.185
5851,0.005,-0.185
5852,0.015,-0.175
5853,0.015,-0.175
5854,0.015,-0.175
5855,0.025,-0.175
5856,0.075,-0.165
5857,0.115,-0.125
5858,0.105,-0.125
5859,0.115,-0.145
5860,0.145,-0.125
5861,0.085,-0.135
5862,0.005,-0.195
5863,-0.005,-0.215
5864,0.025,-0.195
5865,-0.025,-0.185
5866,-0.065,-0.195
5867,-0.095,-0.215
5868,-0.085,-0.215
5869,-0.065,-0.215
5870,-0.075,-0.215
5871,-0.085,-0.205
5872,0.025,-0.185
5873,0.105,-0.005
5874,0.405,0.255
5875,0.685,0.525
5876,1.015,-0.175
5877,0.275,-0.775
5878,-0.825,-1.065
5879,-1.195,-1.335
5880,-0.875,-0.935
5881,-0.535,-0.585
5882,-0.205,-0.315
5883,-0.115,-0.085
5884,-0.085,-0.055
5885,-0.075,-0.055
5886,-0.085,-0.055
5887,-0.075,-0.035
5888,-0.055,-0.025
5889,-0.055,-0.025
5890,-0.025,-0.015
5891,-0.025,-0.005
5892,-0.015,0.015
5893,0.005,0.025
5894,0.005,0.025
5895,0.045,0.055
5896,0.065,0.085
5897,0.095,0.095
5898,0.125,0.115
5899,0.145,0.145
5900,0.185,0.195
5901,0.225,0.205
5902,0.245,0.225
5903,0.285,0.255
5904,0.315,0.285
5905,0.315,0.305
5906,0.325,0.295
5907,0.315,0.295
5908,0.295,0.305
5909,0.285,0.285
5910,0.235,0.235
5911,0.185,0.205
5912,0.135,0.165
5913,0.065,0.085
5914,0.015,0.025
5915,-0.045,-0.025
5916,-0.085,-0.065
5917,-0.105,-0.095
5918,-0.145,-0.125
5919,-0.155,-0.145
5920,-0.145,-0.135
5921,-0.155,-0.145
5922,-0.155,-0.155
5923,-0.165,-0.145
5924,-0.165,-0.145
5925,-0.165,-0.145
5926,-0.185,-0.145
5927,-0.175,-0.145
5928,-0.165,-0.135
5929,-0.185,-0.145
5930,-0.165,-0.145
5931,-0.175,-0.145
5932,-0.185,-0.135
5933,-0.195,-0.145
5934,-0.205,-0.165
5935,-0.205,-0.165
5936,-0.205,-0.155
5937,-0.225,-0.165
5938,-0.215,-0.185
5939,-0.235,-0.175
5940,-0.235,-0.185
5941,-0.245,-0.195
5942,-0.265,-0.195
5943,-0.255,-0.205
5944,-0.265,-0.195
5945,-0.275,-0.205
5946,-0.265,-0.205
5947,-0.275,-0.195
5948,-0.265,-0.205
5949,-0.285,-0.215
5950,-0.295,-0.215
5951,-0.285,-0.215
5952,-0.275,-0.195
5953,-0.295,-0.215
5954,-0.285,-0.215
5955,-0.285,-0.215
5956,-0.285,-0.215
5957,-0.285,-0.205
5958,-0.295,-0.215
5959,-0.285,-0.215
5960,-0.285,-0.205
5961,-0.295,-0.205
5962,-0.285,-0.205
5963,-0.285,-0.215
5964,-0.285,-0.205
5965,-0.285,-0.195
5966,-0.275,-0.215
5967,-0.255,-0.185
5968,-0.245,-0.165
5969,-0.205,-0.175
5970,-0.145,-0.135
5971,-0.155,-0.115
5972,-0.145,-0.135
5973,-0.125,-0.145
5974,-0.195,-0.145
5975,-0.245,-0.215
5976,-0.265,-0.225
5977,-0.245,-0.215
5978,-0.275,-0.205
5979,-0.325,-0.205
5980,-0.345,-0.225
5981,-0.325,-0.235
5982,-0.335,-0.235
5983,-0.315,-0.225
5984,-0.325,-0.205
5985,-0.155,-0.155
5986,0.065,0.105
5987,0.345,0.555
5988,0.675,0.045
5989,0.525,-0.945
5990,-0.545,-1.185
5991,-1.475,-1.415
5992,-1.345,-1.215
5993,-0.895,-0.715
5994,-0.485,-0.375
5995,-0.335,-0.085
5996,-0.295,-0.015
5997,-0.295,-0.025
5998,-0.285,-0.035
5999,-0.275,-0.005
6000,-0.255,-0.005
6001,-0.255,0.005
6002,-0.235,0.015
6003,-0.235,0.025
6004,-0.215,0.055
6005,-0.185,0.055
6006,-0.185,0.065
6007,-0.145,0.095
6008,-0.115,0.135
6009,-0.085,0.155
6010,-0.045,0.185
6011,-0.015,0.215
6012,0.025,0.255
6013,0.055,0.285
6014,0.075,0.305
6015,0.135,0.345
6016,0.165,0.385
6017,0.185,0.405
6018,0.195,0.405
6019,0.205,0.425
6020,0.215,0.435
6021,0.205,0.425
6022,0.165,0.395
6023,0.145,0.355
6024,0.095,0.295
6025,0.025,0.215
6026,-0.015,0.135
6027,-0.085,0.065
6028,-0.135,0.005
6029,-0.175,-0.055
6030,-0.205,-0.085
6031,-0.215,-0.095
6032,-0.225,-0.115
6033,-0.245,-0.125
6034,-0.235,-0.145
6035,-0.255,-0.135
6036,-0.245,-0.135
6037,-0.255,-0.135
6038,-0.255,-0.145
6039,-0.245,-0.135
6040,-0.235,-0.115
6041,-0.255,-0.135
6042,-0.235,-0.125
6043,-0.235,-0.125
6044,-0.235,-0.125
6045,-0.235,-0.135
6046,-0.255,-0.145
6047,-0.245,-0.135
6048,-0.255,-0.135
6049,-0.265,-0.155
6050,-0.255,-0.165
6051,-0.265,-0.165
6052,-0.275,-0.165
6053,-0.275,-0.175
6054,-0.295,-0.185
6055,-0.285,-0.175
6056,-0.295,-0.175
6057,-0.305,-0.185
6058,-0.295,-0.195
6059,-0.305,-0.185
6060,-0.295,-0.175
6061,-0.295,-0.185
6062,-0.295,-0.195
6063,-0.295,-0.195
6064,-0.285,-0.175
6065,-0.295,-0.185
6066,-0.285,-0.195
6067,-0.285,-0.195
6068,-0.285,-0.185
6069,-0.285,-0.185
6070,-0.285,-0.195
6071,-0.285,-0.205
6072,-0.275,-0.185
6073,-0.275,-0.195
6074,-0.275,-0.195
6075,-0.285,-0.185
6076,-0.275,-0.185
6077,-0.265,-0.185
6078,-0.275,-0.195
6079,-0.245,-0.185
6080,-0.225,-0.155
6081,-0.225,-0.155
6082,-0.155,-0.145
6083,-0.125,-0.095
6084,-0.135,-0.085
6085,-0.105,-0.125
6086,-0.095,-0.125
6087,-0.145,-0.125
6088,-0.205,-0.185
6089,-0.225,-0.205
6090,-0.185,-0.205
6091,-0.235,-0.175
6092,-0.275,-0.175
6093,-0.285,-0.205
6094,-0.295,-0.215
6095,-0.265,-0.205
6096,-0.245,-0.185
6097,-0.285,-0.185
6098,-0.125,-0.185
6099,0.015,0.065
6100,0.345,0.475
6101,0.565,0.245
6102,0.635,-0.825
6103,-0.245,-1.185
6104,-1.275,-1.345
6105,-1.335,-1.285
6106,-0.855,-0.785
6107,-0.435,-0.395
6108,-0.245,-0.065
6109,-0.185,0.005
6110,-0.185,0.005
6111,-0.165,-0.005
6112,-0.155,0.025
6113,-0.145,0.025
6114,-0.115,0.015
6115,-0.105,0.055
6116,-0.085,0.065
6117,-0.075,0.075
6118,-0.065,0.085
6119,-0.025,0.095
6120,0.015,0.125
6121,0.035,0.155
6122,0.085,0.175
6123,0.115,0.205
6124,0.145,0.245
6125,0.185,0.275
6126,0.215,0.305
6127,0.265,0.335
6128,0.305,0.395
6129,0.325,0.405
6130,0.365,0.425
6131,0.375,0.445
6132,0.385,0.455
6133,0.385,0.455
6134,0.355,0.435
6135,0.345,0.425
6136,0.325,0.395
6137,0.275,0.325
6138,0.235,0.245
6139,0.175,0.165
6140,0.115,0.095
6141,0.075,0.035
6142,0.025,-0.015
6143,0.015,-0.055
6144,-0.005,-0.065
6145,-0.005,-0.085
6146,-0.015,-0.095
6147,-0.015,-0.085
6148,-0.015,-0.095
6149,-0.015,-0.095
6150,-0.015,-0.105
6151,-0.005,-0.095
6152,0.005,-0.085
6153,0.005,-0.085
6154,0.025,-0.095
6155,0.015,-0.085
6156,0.025,-0.085
6157,0.015,-0.095
6158,0.015,-0.105
6159,0.015,-0.095
6160,0.015,-0.105
6161,-0.005,-0.125
6162,0.005,-0.125
6163,-0.005,-0.125
6164,0.005,-0.115
6165,-0.005,-0.125
6166,-0.015,-0.145
6167,-0.005,-0.135
6168,-0.005,-0.135
6169,-0.005,-0.145
6170,0.005,-0.155
6171,-0.005,-0.155
6172,-0.005,-0.145
6173,0.005,-0.155
6174,-0.015,-0.165
6175,0.005,-0.165
6176,0.005,-0.155
6177,0.005,-0.155
6178,0.015,-0.165
6179,0.005,-0.165
6180,0.015,-0.155
6181,0.025,-0.155
6182,0.005,-0.155
6183,0.025,-0.155
6184,0.025,-0.155
6185,0.015,-0.155
6186,0.035,-0.175
6187,0.035,-0.155
6188,0.055,-0.135
6189,0.065,-0.135
6190,0.085,-0.145
6191,0.145,-0.115
6192,0.175,-0.075
6193,0.145,-0.085
6194,0.215,-0.095
6195,0.205,-0.085
6196,0.135,-0.105
6197,0.075,-0.175
6198,0.075,-0.185
6199,0.095,-0.165
6200,0.045,-0.135
6201,0.005,-0.165
6202,0.015,-0.175
6203,0.035,-0.165
6204,0.055,-0.155
6205,0.045,-0.155
6206,0.035,-0.155
6207,0.195,-0.095
6208,0.365,0.155
6209,0.595,0.575
6210,1.025,0.235
6211,0.765,-0.675
6212,-0.245,-0.945
6213,-0.985,-1.325
6214,-0.855,-1.005
6215,-0.455,-0.615
6216,-0.115,-0.335
6217,0.035,-0.085
6218,0.115,-0.005
6219,0.125,0.005
6220,0.145,0.015
6221,0.145,0.015
6222,0.145,0.025
6223,0.165,0.025
6224,0.195,0.045
6225,0.215,0.055
6226,0.235,0.065
6227,0.245,0.085
6228,0.275,0.105
6229,0.295,0.105
6230,0.315,0.125
6231,0.345,0.145
6232,0.385,0.185
6233,0.415,0.195
6234,0.465,0.225
6235,0.485,0.275
6236,0.525,0.305
6237,0.555,0.325
6238,0.565,0.325
6239,0.575,0.355
6240,0.585,0.355
6241,0.585,0.355
6242,0.595,0.345
6243,0.565,0.345
6244,0.535,0.335
6245,0.485,0.275
6246,0.435,0.215
6247,0.375,0.165
6248,0.315,0.105
6249,0.255,0.025
6250,0.235,-0.005
6251,0.205,-0.035
6252,0.185,-0.045
6253,0.165,-0.065
6254,0.145,-0.075
6255,0.155,-0.085
6256,0.165,-0.075
6257,0.145,-0.085
6258,0.155,-0.085
6259,0.145,-0.075
6260,0.145,-0.065
6261,0.145,-0.085
6262,0.145,-0.085
6263,0.155,-0.075
6264,0.145,-0.075
6265,0.125,-0.095
6266,0.135,-0.095
6267,0.115,-0.105
6268,0.115,-0.095
6269,0.095,-0.115
6270,0.085,-0.125
6271,0.085,-0.115
6272,0.065,-0.115
6273,0.065,-0.135
6274,0.065,-0.145
6275,0.055,-0.135
6276,0.045,-0.135
6277,0.045,-0.145
6278,0.025,-0.145
6279,0.025,-0.155
6280,0.025,-0.145
6281,0.015,-0.155
6282,0.015,-0.145
6283,0.005,-0.145
6284,0.005,-0.145
6285,0.015,-0.155
6286,0.005,-0.145
6287,0.025,-0.135
6288,0.065,-0.125
6289,0.095,-0.095
6290,0.115,-0.085
6291,0.105,-0.095
6292,0.145,-0.085
6293,0.105,-0.085
6294,0.015,-0.155
6295,-0.005,-0.175
6296,0.025,-0.165
6297,-0.035,-0.145
6298,-0.085,-0.175
6299,-0.105,-0.185
6300,-0.095,-0.185
6301,-0.085,-0.185
6302,-0.095,-0.175
6303,-0.105,-0.175
6304,-0.015,-0.155
6305,0.065,0.005
6306,0.335,0.255
6307,0.595,0.615
6308,1.015,-0.065
6309,0.405,-0.725
6310,-0.665,-0.985
6311,-1.175,-1.335
6312,-0.955,-0.935
6313,-0.605,-0.575
6314,-0.255,-0.315
6315,-0.125,-0.065
6316,-0.095,-0.015
6317,-0.075,-0.005
6318,-0.085,-0.015
6319,-0.075,0.005
6320,-0.065,0.025
6321,-0.065,0.025
6322,-0.035,0.035
6323,-0.035,0.045
6324,-0.015,0.065
6325,0.005,0.075
6326,0.015,0.075
6327,0.035,0.105
6328,0.075,0.135
6329,0.085,0.145
6330,0.135,0.165
6331,0.155,0.185
6332,0.185,0.235
6333,0.225,0.245
6334,0.255,0.285
6335,0.285,0.305
6336,0.315,0.335
6337,0.315,0.345
6338,0.325,0.345
6339,0.305,0.335
6340,0.305,0.345
6341,0.275,0.315
6342,0.235,0.285
6343,0.185,0.255
6344,0.125,0.205
6345,0.055,0.135
6346,0.005,0.055
6347,-0.045,0.015
6348,-0.085,-0.025
6349,-0.125,-0.055
6350,-0.145,-0.075
6351,-0.155,-0.095
6352,-0.155,-0.085
6353,-0.175,-0.105
6354,-0.165,-0.105
6355,-0.165,-0.105
6356,-0.175,-0.095
6357,-0.175,-0.095
6358,-0.185,-0.095
6359,-0.175,-0.095
6360,-0.175,-0.095
6361,-0.175,-0.095
6362,-0.165,-0.095
6363,-0.185,-0.105
6364,-0.185,-0.095
6365,-0.195,-0.105
6366,-0.215,-0.115
6367,-0.215,-0.125
6368,-0.215,-0.115
6369,-0.225,-0.125
6370,-0.215,-0.135
6371,-0.235,-0.135
6372,-0.245,-0.135
6373,-0.255,-0.145
6374,-0.275,-0.155
6375,-0.265,-0.155
6376,-0.265,-0.145
6377,-0.275,-0.155
6378,-0.265,-0.165
6379,-0.275,-0.165
6380,-0.275,-0.165
6381,-0.275,-0.165
6382,-0.295,-0.175
6383,-0.285,-0.175
6384,-0.275,-0.165
6385,-0.285,-0.165
6386,-0.275,-0.165
6387,-0.285,-0.165
6388,-0.285,-0.155
6389,-0.285,-0.165
6390,-0.295,-0.165
6391,-0.255,-0.155
6392,-0.245,-0.125
6393,-0.185,-0.125
6394,-0.135,-0.085
6395,-0.165,-0.075
6396,-0.135,-0.105
6397,-0.135,-0.115
6398,-0.205,-0.125
6399,-0.245,-0.185
6400,-0.255,-0.195
6401,-0.245,-0.195
6402,-0.275,-0.175
6403,-0.335,-0.175
6404,-0.345,-0.195
6405,-0.325,-0.195
6406,-0.325,-0.195
6407,-0.325,-0.185
6408,-0.295,-0.175
6409,-0.155,-0.065
6410,0.135,0.215
6411,0.335,0.575
6412,0.765,-0.225
6413,0.295,-1.055
6414,-0.895,-1.185
6415,-1.515,-1.465
6416,-1.165,-0.985
6417,-0.685,-0.525
6418,-0.375,-0.175
6419,-0.295,-0.005
6420,-0.275,0.015
6421,-0.265,0.005
6422,-0.265,-0.005
6423,-0.245,0.015
6424,-0.235,0.035
6425,-0.235,0.025
6426,-0.215,0.035
6427,-0.195,0.055
6428,-0.175,0.075
6429,-0.155,0.095
6430,-0.125,0.105
6431,-0.095,0.125
6432,-0.075,0.165
6433,-0.045,0.185
6434,0.005,0.215
6435,0.025,0.245
6436,0.075,0.285
6437,0.115,0.315
6438,0.145,0.345
6439,0.185,0.385
6440,0.205,0.415
6441,0.215,0.415
6442,0.235,0.425
6443,0.225,0.435
6444,0.225,0.435
6445,0.215,0.425
6446,0.175,0.385
6447,0.145,0.345
6448,0.095,0.285
6449,0.025,0.195
6450,-0.015,0.115
6451,-0.065,0.045
6452,-0.115,0.005
6453,-0.145,-0.035
6454,-0.175,-0.065
6455,-0.175,-0.085
6456,-0.185,-0.085
6457,-0.205,-0.105
6458,-0.195,-0.115
6459,-0.195,-0.105
6460,-0.195,-0.095
6461,-0.185,-0.105
6462,-0.195,-0.105
6463,-0.185,-0.105
6464,-0.175,-0.095
6465,-0.185,-0.095
6466,-0.155,-0.105
6467,-0.165,-0.105
6468,-0.175,-0.105
6469,-0.175,-0.105
6470,-0.185,-0.115
6471,-0.185,-0.125
6472,-0.185,-0.115
6473,-0.195,-0.135
6474,-0.195,-0.155
6475,-0.205,-0.145
6476,-0.205,-0.145
6477,-0.225,-0.155
6478,-0.245,-0.155
6479,-0.225,-0.165
6480,-0.235,-0.145
6481,-0.235,-0.165
6482,-0.235,-0.165
6483,-0.245,-0.165
6484,-0.245,-0.165
6485,-0.235,-0.165
6486,-0.255,-0.165
6487,-0.235,-0.175
6488,-0.235,-0.155
6489,-0.235,-0.175
6490,-0.225,-0.175
6491,-0.225,-0.165
6492,-0.235,-0.165
6493,-0.225,-0.165
6494,-0.235,-0.175
6495,-0.215,-0.165
6496,-0.195,-0.155
6497,-0.185,-0.135
6498,-0.115,-0.145
6499,-0.085,-0.105
6500,-0.085,-0.075
6501,-0.085,-0.105
6502,-0.065,-0.115
6503,-0.085,-0.115
6504,-0.135,-0.155
6505,-0.185,-0.205
6506,-0.155,-0.205
6507,-0.185,-0.175
6508,-0.235,-0.185
6509,-0.265,-0.215
6510,-0.255,-0.215
6511,-0.235,-0.205
6512,-0.225,-0.185
6513,-0.265,-0.195
6514,-0.105,-0.185
6515,0.035,0.055
6516,0.375,0.465
6517,0.595,0.265
6518,0.605,-0.855
6519,-0.415,-1.205
6520,-1.355,-1.415
6521,-1.235,-1.215
6522,-0.755,-0.715
6523,-0.355,-0.325
6524,-0.215,-0.045
6525,-0.165,0.005
6526,-0.165,-0.005
6527,-0.145,-0.005
6528,-0.135,0.005
6529,-0.125,0.015
6530,-0.105,0.025
6531,-0.095,0.035
6532,-0.075,0.045
6533,-0.055,0.045
6534,-0.045,0.075
6535,-0.005,0.095
6536,0.025,0.105
6537,0.035,0.135
6538,0.095,0.155
6539,0.115,0.195
6540,0.155,0.235
6541,0.205,0.255
6542,0.225,0.285
6543,0.265,0.325
6544,0.305,0.365
6545,0.325,0.395
6546,0.355,0.395
6547,0.365,0.425
6548,0.375,0.425
6549,0.375,0.425
6550,0.365,0.415
6551,0.355,0.405
6552,0.325,0.385
6553,0.275,0.305
6554,0.245,0.245
6555,0.185,0.165
6556,0.125,0.085
6557,0.075,0.025
6558,0.035,-0.035
6559,0.015,-0.055
6560,0.005,-0.065
6561,-0.015,-0.095
6562,-0.015,-0.105
6563,-0.015,-0.115
6564,-0.015,-0.105
6565,-0.005,-0.105
6566,-0.025,-0.115
6567,-0.005,-0.105
6568,0.005,-0.085
6569,0.005,-0.105
6570,0.025,-0.105
6571,0.005,-0.095
6572,0.015,-0.085
6573,0.015,-0.105
6574,0.005,-0.115
6575,0.015,-0.115
6576,0.005,-0.115
6577,-0.015,-0.125
6578,-0.005,-0.135
6579,-0.015,-0.145
6580,-0.015,-0.125
6581,-0.005,-0.145
6582,-0.025,-0.155
6583,-0.015,-0.155
6584,-0.025,-0.155
6585,-0.015,-0.155
6586,-0.005,-0.165
6587,-0.015,-0.165
6588,-0.005,-0.165
6589,-0.015,-0.165
6590,-0.005,-0.175
6591,-0.005,-0.175
6592,0.005,-0.155
6593,-0.005,-0.165
6594,0.015,-0.175
6595,0.015,-0.165
6596,0.005,-0.175
6597,0.005,-0.165
6598,0.005,-0.175
6599,0.025,-0.165
6600,0.025,-0.165
6601,0.045,-0.165
6602,0.065,-0.145
6603,0.065,-0.155
6604,0.125,-0.135
6605,0.165,-0.105
6606,0.135,-0.105
6607,0.185,-0.115
6608,0.205,-0.095
6609,0.145,-0.115
6610,0.095,-0.195
6611,0.085,-0.195
6612,0.095,-0.175
6613,0.045,-0.165
6614,0.005,-0.185
6615,0.005,-0.205
6616,0.015,-0.195
6617,0.035,-0.185
6618,0.045,-0.175
6619,0.045,-0.175
6620,0.195,-0.115
6621,0.345,0.115
6622,0.575,0.505
6623,0.915,0.255
6624,0.825,-0.645
6625,-0.025,-0.995
6626,-0.845,-1.295
6627,-0.985,-1.215
6628,-0.585,-0.765
6629,-0.225,-0.455
6630,0.005,-0.175
