'sample interval','ECG0','ECG1'
'0.0078125 sec','mV','mV'
0,0.060,-0.200
1,0.030,-0.230
2,0.040,-0.180
3,0.030,-0.240
4,0.050,-0.210
5,0.050,-0.220
6,0.050,-0.210
7,0.050,-0.250
8,0.030,-0.210
9,0.030,-0.240
10,0.030,-0.260
11,0.020,-0.240
12,0.030,-0.240
13,0.030,-0.230
14,0.010,-0.300
15,0.010,-0.230
16,0.010,-0.280
17,0.030,-0.250
18,-0.010,-0.280
19,0.030,-0.180
20,0.060,-0.180
21,0.090,-0.140
22,0.060,-0.120
23,0.100,-0.070
24,0.140,0.100
25,0.150,0.090
26,0.080,0.080
27,0.080,0.060
28,-0.010,-0.060
29,-0.040,-0.070
30,-0.020,-0.080
31,-0.020,-0.240
32,-0.030,-0.290
33,-0.020,-0.320
34,-0.030,-0.300
35,-0.050,-0.330
36,-0.010,-0.380
37,0.080,0.020
38,0.090,1.700
39,0.590,4.670
40,-0.420,5.110
41,-0.800,3.060
42,-0.720,-1.000
43,-0.870,-0.720
44,-0.490,-0.410
45,-0.110,-0.260
46,-0.060,-0.320
47,-0.060,-0.300
48,-0.040,-0.370
49,-0.050,-0.320
50,-0.040,-0.340
51,-0.050,-0.310
52,-0.040,-0.350
53,-0.040,-0.270
54,-0.040,-0.300
55,-0.040,-0.280
56,-0.060,-0.290
57,-0.060,-0.230
58,-0.070,-0.250
59,-0.070,-0.230
60,-0.060,-0.180
61,-0.080,-0.160
62,-0.060,-0.150
63,-0.090,-0.120
64,-0.090,-0.070
65,-0.110,-0.090
66,-0.110,-0.020
67,-0.150,-0.010
68,-0.160,0.030
69,-0.200,-0.040
70,-0.220,0.000
71,-0.250,-0.050
72,-0.230,-0.080
73,-0.240,-0.120
74,-0.250,-0.110
75,-0.210,-0.100
76,-0.180,-0.120
77,-0.160,-0.080
78,-0.110,-0.100
79,-0.100,-0.120
80,-0.070,-0.160
81,-0.040,-0.120
82,-0.050,-0.180
83,-0.030,-0.160
84,-0.030,-0.180
85,-0.020,-0.140
86,-0.020,-0.200
87,0.000,-0.180
88,-0.010,-0.190
89,0.000,-0.180
90,0.000,-0.220
91,0.010,-0.200
92,0.020,-0.190
93,0.020,-0.220
94,0.030,-0.210
95,0.020,-0.220
96,0.030,-0.210
97,0.040,-0.270
98,0.040,-0.200
99,0.040,-0.230
100,0.030,-0.220
101,0.030,-0.270
102,0.030,-0.180
103,0.040,-0.240
104,0.050,-0.230
105,0.040,-0.210
106,0.030,-0.220
107,0.040,-0.240
108,0.010,-0.250
109,0.030,-0.220
110,0.040,-0.250
111,0.050,-0.220
112,0.020,-0.230
113,0.020,-0.190
114,0.040,-0.240
115,0.020,-0.230
116,0.010,-0.230
117,0.020,-0.200
118,0.020,-0.220
119,0.050,-0.120
120,0.080,-0.120
121,0.080,-0.110
122,0.110,-0.020
123,0.190,0.190
124,0.140,0.130
125,0.120,0.110
126,0.090,0.110
127,-0.020,-0.010
128,-0.030,-0.010
129,-0.020,-0.100
130,0.000,-0.200
131,-0.010,-0.280
132,-0.020,-0.300
133,-0.040,-0.260
134,-0.030,-0.270
135,-0.050,-0.420
136,0.080,0.380
137,0.070,2.290
138,0.550,5.050
139,-0.510,4.970
140,-0.790,2.450
141,-0.640,-1.250
142,-0.700,-0.680
143,-0.460,-0.320
144,-0.060,-0.280
145,-0.060,-0.300
146,-0.040,-0.350
147,-0.050,-0.330
148,0.000,-0.330
149,-0.030,-0.330
150,0.010,-0.310
151,-0.010,-0.290
152,0.000,-0.300
153,-0.010,-0.310
154,-0.030,-0.240
155,0.010,-0.250
156,0.010,-0.220
157,-0.010,-0.220
158,0.020,-0.140
159,0.000,-0.200
160,0.020,-0.140
161,-0.010,-0.100
162,0.000,-0.070
163,-0.010,-0.080
164,-0.030,-0.030
165,-0.030,0.000
166,-0.040,-0.010
167,-0.060,0.010
168,-0.090,0.010
169,-0.090,0.020
170,-0.100,-0.080
171,-0.090,-0.030
172,-0.080,-0.070
173,-0.070,-0.040
174,-0.070,-0.080
175,-0.040,-0.030
176,-0.020,-0.070
177,0.010,-0.070
178,0.020,-0.100
179,0.020,-0.110
180,0.030,-0.140
181,0.030,-0.170
182,0.020,-0.140
183,0.040,-0.160
184,0.060,-0.160
185,0.040,-0.200
186,0.060,-0.140
187,0.030,-0.240
188,0.030,-0.190
189,0.030,-0.190
190,0.030,-0.200
191,0.040,-0.200
192,0.020,-0.210
193,0.030,-0.190
194,0.040,-0.200
195,0.020,-0.220
196,0.020,-0.170
197,0.040,-0.190
198,0.040,-0.210
199,0.010,-0.190
200,0.020,-0.190
201,0.050,-0.180
202,0.030,-0.220
203,0.010,-0.160
204,0.040,-0.200
205,0.010,-0.180
206,-0.010,-0.220
207,0.020,-0.170
208,0.000,-0.230
209,-0.030,-0.240
210,0.000,-0.180
211,0.000,-0.210
212,0.000,-0.210
213,-0.020,-0.210
214,-0.020,-0.180
215,0.010,-0.250
216,-0.020,-0.210
217,-0.010,-0.220
218,0.030,-0.130
219,0.060,-0.130
220,0.050,-0.090
221,0.100,-0.080
222,0.110,0.100
223,0.150,0.150
224,0.120,0.120
225,0.080,0.160
226,0.040,-0.010
227,-0.030,0.010
228,-0.030,-0.040
229,-0.030,-0.100
230,-0.030,-0.290
231,-0.050,-0.220
232,-0.070,-0.270
233,-0.080,-0.240
234,-0.080,-0.270
235,-0.090,-0.200
236,0.010,1.010
237,0.160,3.890
238,0.040,5.110
239,-0.780,4.810
240,-0.800,1.150
241,-0.810,-1.090
242,-0.540,-0.580
243,-0.370,-0.280
244,-0.070,-0.290
245,-0.080,-0.330
246,-0.060,-0.320
247,-0.060,-0.360
248,-0.030,-0.310
249,-0.020,-0.320
250,-0.010,-0.310
251,-0.040,-0.320
252,0.000,-0.280
253,-0.010,-0.270
254,0.000,-0.270
255,0.010,-0.230
256,0.020,-0.220
257,0.020,-0.200
258,0.050,-0.200
259,0.040,-0.140
260,0.050,-0.140
261,0.050,-0.090
262,0.050,-0.080
263,0.050,-0.020
264,0.050,-0.030
265,0.040,0.010
266,0.030,0.020
267,0.000,0.020
268,-0.010,-0.020
269,-0.020,-0.050
270,0.000,-0.070
271,-0.040,-0.120
272,-0.030,-0.100
273,-0.020,-0.110
274,-0.010,-0.080
275,0.000,-0.120
276,0.020,-0.050
277,0.020,-0.110
278,0.060,-0.100
279,0.040,-0.140
280,0.040,-0.130
281,0.040,-0.150
282,0.080,-0.180
283,0.050,-0.150
284,0.070,-0.160
285,0.050,-0.160
286,0.060,-0.210
287,0.040,-0.150
288,0.060,-0.190
289,0.050,-0.170
290,0.030,-0.180
291,0.030,-0.150
292,0.040,-0.210
293,0.030,-0.170
294,0.030,-0.180
295,0.020,-0.180
296,0.040,-0.190
297,0.010,-0.180
298,0.040,-0.180
299,0.020,-0.210
300,0.030,-0.210
301,0.030,-0.220
302,0.020,-0.220
303,0.030,-0.270
304,0.030,-0.200
305,0.020,-0.250
306,0.030,-0.240
307,0.020,-0.260
308,0.010,-0.220
309,0.030,-0.280
310,0.030,-0.290
311,0.010,-0.260
312,0.030,-0.260
313,0.030,-0.280
314,0.030,-0.270
315,0.040,-0.240
316,0.030,-0.280
317,0.020,-0.260
318,0.070,-0.190
319,0.120,-0.150
320,0.090,-0.160
321,0.130,-0.090
322,0.160,0.070
323,0.160,0.110
324,0.110,0.050
325,0.130,0.090
326,0.020,-0.050
327,0.010,-0.070
328,-0.020,-0.070
329,0.000,-0.170
330,0.000,-0.310
331,-0.030,-0.340
332,-0.030,-0.290
333,-0.030,-0.330
334,-0.020,-0.380
335,0.000,-0.330
336,0.110,0.970
337,0.370,3.930
338,-0.040,5.110
339,-0.740,3.970
340,-0.830,-0.040
341,-0.860,-0.990
342,-0.520,-0.560
343,-0.210,-0.300
344,-0.050,-0.360
345,-0.060,-0.380
346,-0.030,-0.370
347,-0.020,-0.370
348,0.000,-0.410
349,0.000,-0.340
350,0.000,-0.380
351,0.010,-0.340
352,0.020,-0.370
353,0.010,-0.290
354,0.030,-0.340
355,0.020,-0.300
356,0.020,-0.250
357,0.050,-0.230
358,0.040,-0.230
359,0.040,-0.190
360,0.050,-0.160
361,0.050,-0.160
362,0.050,-0.140
363,0.030,-0.100
364,0.030,-0.030
365,0.010,-0.070
366,0.000,-0.010
367,-0.030,-0.030
368,-0.020,-0.030
369,-0.070,-0.110
370,-0.060,-0.070
371,-0.070,-0.120
372,-0.080,-0.140
373,-0.060,-0.100
374,-0.030,-0.100
375,-0.010,-0.140
376,0.010,-0.160
377,0.020,-0.130
378,0.030,-0.190
379,0.040,-0.170
380,0.060,-0.220
381,0.080,-0.170
382,0.060,-0.220
383,0.080,-0.200
384,0.070,-0.200
385,0.070,-0.180
386,0.060,-0.220
387,0.070,-0.180
388,0.070,-0.190
389,0.060,-0.230
390,0.050,-0.210
391,0.050,-0.210
392,0.070,-0.170
393,0.060,-0.230
394,0.070,-0.170
395,0.050,-0.210
396,0.050,-0.190
397,0.050,-0.240
398,0.020,-0.180
399,0.060,-0.220
400,0.040,-0.220
401,0.040,-0.190
402,0.030,-0.200
403,0.030,-0.210
404,0.010,-0.260
405,0.020,-0.190
406,0.020,-0.240
407,0.040,-0.220
408,0.010,-0.270
409,0.020,-0.200
410,0.020,-0.270
411,0.010,-0.230
412,0.030,-0.250
413,0.010,-0.250
414,0.020,-0.280
415,0.000,-0.250
416,0.040,-0.240
417,0.010,-0.290
418,0.020,-0.260
419,0.010,-0.280
420,0.020,-0.240
421,0.040,-0.240
422,0.090,-0.140
423,0.030,-0.150
424,0.130,-0.090
425,0.080,-0.050
426,0.170,0.130
427,0.080,0.040
428,0.090,0.060
429,0.020,0.010
430,-0.040,-0.100
431,-0.030,-0.080
432,-0.020,-0.150
433,-0.010,-0.250
434,0.000,-0.330
435,-0.020,-0.320
436,-0.020,-0.300
437,-0.030,-0.300
438,-0.060,-0.480
439,0.130,0.580
440,0.140,2.970
441,0.390,5.110
442,-0.580,4.440
443,-0.870,1.320
444,-0.690,-1.240
445,-0.600,-0.690
446,-0.370,-0.320
447,-0.030,-0.310
448,-0.030,-0.330
449,-0.030,-0.400
450,-0.020,-0.330
451,0.000,-0.370
452,0.030,-0.320
453,-0.010,-0.370
454,0.020,-0.310
455,0.030,-0.320
456,0.010,-0.300
457,0.020,-0.280
458,0.040,-0.250
459,0.030,-0.250
460,0.020,-0.270
461,0.050,-0.180
462,0.040,-0.230
463,0.050,-0.170
464,0.030,-0.160
465,0.060,-0.080
466,0.030,-0.100
467,0.040,-0.060
468,0.010,-0.040
469,0.000,-0.020
470,-0.020,-0.030
471,-0.060,-0.030
472,-0.070,-0.020
473,-0.080,-0.090
474,-0.090,-0.080
475,-0.110,-0.130
476,-0.100,-0.090
477,-0.070,-0.130
478,-0.070,-0.080
479,-0.030,-0.110
480,0.000,-0.090
481,0.010,-0.140
482,0.010,-0.110
483,0.030,-0.150
484,0.040,-0.160
485,0.050,-0.130
486,0.050,-0.150
487,0.050,-0.150
488,0.060,-0.180
489,0.050,-0.130
490,0.050,-0.170
491,0.050,-0.180
492,0.040,-0.160
493,0.050,-0.140
494,0.050,-0.170
495,0.040,-0.160
496,0.030,-0.140
497,0.050,-0.180
498,0.020,-0.180
499,0.030,-0.170
500,0.040,-0.130
501,0.050,-0.190
502,0.030,-0.170
503,0.030,-0.180
504,0.030,-0.140
505,0.020,-0.180
506,0.020,-0.130
507,0.000,-0.170
508,0.010,-0.160
509,0.000,-0.200
510,0.010,-0.140
511,0.010,-0.170
512,0.010,-0.190
513,-0.010,-0.160
514,-0.010,-0.190
515,-0.020,-0.180
516,-0.020,-0.210
517,-0.010,-0.150
518,-0.010,-0.200
519,-0.030,-0.200
520,-0.020,-0.180
521,-0.040,-0.160
522,-0.020,-0.160
523,-0.020,-0.160
524,0.050,-0.060
525,0.020,-0.090
526,0.070,0.000
527,0.050,-0.010
528,0.140,0.250
529,0.110,0.130
530,0.060,0.180
531,0.020,0.120
532,-0.040,0.050
533,-0.090,-0.020
534,-0.060,-0.010
535,-0.050,-0.120
536,-0.040,-0.220
537,-0.070,-0.240
538,-0.080,-0.220
539,-0.080,-0.190
540,-0.060,-0.330
541,0.000,0.170
542,-0.020,1.760
543,0.430,4.840
544,-0.400,5.110
545,-0.750,3.420
546,-0.670,-0.830
547,-0.810,-0.650
548,-0.560,-0.420
549,-0.220,-0.190
550,-0.120,-0.270
551,-0.110,-0.290
552,-0.100,-0.270
553,-0.080,-0.280
554,-0.060,-0.300
555,-0.090,-0.290
556,-0.060,-0.220
557,-0.060,-0.280
558,-0.040,-0.250
559,-0.050,-0.240
560,-0.030,-0.200
561,-0.030,-0.230
562,-0.040,-0.140
563,-0.050,-0.140
564,-0.020,-0.140
565,-0.030,-0.140
566,-0.060,-0.110
567,-0.020,-0.060
568,-0.040,-0.060
569,-0.050,0.030
570,-0.040,0.020
571,-0.070,0.050
572,-0.090,0.010
573,-0.070,0.070
574,-0.100,0.000
575,-0.120,-0.010
576,-0.130,-0.010
577,-0.100,0.010
578,-0.110,-0.030
579,-0.090,-0.040
580,-0.090,-0.020
581,-0.050,-0.060
582,-0.030,-0.060
583,-0.050,-0.080
584,0.020,-0.050
585,0.010,-0.120
586,0.020,-0.110
587,0.010,-0.140
588,0.030,-0.130
589,0.010,-0.170
590,0.030,-0.120
591,0.030,-0.140
592,0.060,-0.140
593,0.030,-0.180
594,0.050,-0.150
595,0.020,-0.160
596,0.010,-0.190
597,0.030,-0.120
598,0.040,-0.170
599,0.010,-0.140
600,0.020,-0.180
601,0.020,-0.110
602,0.000,-0.180
603,0.030,-0.130
604,0.000,-0.150
605,0.010,-0.140
606,0.010,-0.160
607,-0.010,-0.150
608,-0.020,-0.140
609,-0.010,-0.170
610,-0.010,-0.180
611,-0.010,-0.160
612,-0.020,-0.160
613,-0.010,-0.210
614,-0.030,-0.160
615,-0.030,-0.180
616,-0.030,-0.190
617,-0.030,-0.220
618,-0.040,-0.160
619,-0.010,-0.220
620,-0.020,-0.200
621,-0.050,-0.220
622,-0.020,-0.170
623,0.000,-0.170
624,0.070,-0.130
625,0.020,-0.080
626,0.060,-0.080
627,0.130,0.120
628,0.130,0.130
629,0.080,0.130
630,0.080,0.090
631,0.000,0.000
632,-0.030,-0.050
633,-0.040,-0.040
634,-0.020,-0.210
635,-0.060,-0.250
636,-0.050,-0.270
637,-0.070,-0.260
638,-0.060,-0.270
639,-0.080,-0.310
640,-0.020,-0.060
641,0.010,1.400
642,0.300,4.630
643,-0.320,5.110
644,-0.790,4.180
645,-0.740,-0.250
646,-0.790,-0.780
647,-0.580,-0.550
648,-0.210,-0.220
649,-0.110,-0.270
650,-0.050,-0.280
651,-0.070,-0.330
652,-0.050,-0.300
653,-0.040,-0.310
654,-0.030,-0.310
655,-0.040,-0.330
656,-0.040,-0.290
657,-0.010,-0.280
658,-0.010,-0.300
659,-0.010,-0.250
660,0.000,-0.250
661,0.000,-0.200
662,0.010,-0.240
663,0.020,-0.150
664,0.030,-0.160
665,0.030,-0.120
666,0.030,-0.100
667,0.030,-0.040
668,0.020,-0.030
669,0.030,-0.030
670,-0.010,0.030
671,-0.010,0.020
672,0.000,0.020
673,-0.030,-0.020
674,-0.040,0.000
675,-0.050,-0.060
676,-0.050,-0.050
677,-0.060,-0.090
678,-0.030,-0.060
679,-0.030,-0.130
680,-0.020,-0.090
681,-0.010,-0.090
682,0.020,-0.110
683,0.020,-0.160
684,0.010,-0.140
685,0.040,-0.160
686,0.040,-0.200
687,0.030,-0.160
688,0.040,-0.190
689,0.050,-0.160
690,0.040,-0.220
691,0.050,-0.170
692,0.060,-0.210
693,0.050,-0.190
694,0.060,-0.210
695,0.050,-0.170
696,0.050,-0.200
697,0.060,-0.210
698,0.060,-0.170
699,0.060,-0.210
700,0.050,-0.200
701,0.050,-0.210
702,0.070,-0.160
703,0.060,-0.220
704,0.050,-0.200
705,0.030,-0.210
706,0.060,-0.190
707,0.060,-0.230
708,0.050,-0.200
709,0.050,-0.220
710,0.060,-0.210
711,0.040,-0.250
712,0.030,-0.200
713,0.040,-0.220
714,0.040,-0.250
715,0.040,-0.210
716,0.050,-0.230
717,0.020,-0.230
718,0.030,-0.280
719,0.040,-0.200
720,0.040,-0.280
721,0.030,-0.250
722,0.040,-0.250
723,0.050,-0.190
724,0.100,-0.170
725,0.100,-0.150
726,0.140,-0.100
727,0.110,-0.040
728,0.200,0.130
729,0.160,0.070
730,0.140,0.140
731,0.090,0.020
732,0.030,-0.060
733,-0.010,-0.060
734,0.010,-0.080
735,0.010,-0.260
736,0.000,-0.270
737,0.000,-0.310
738,0.000,-0.290
739,0.000,-0.310
740,-0.030,-0.440
741,0.130,0.130
742,0.110,1.890
743,0.610,4.910
744,-0.520,5.090
745,-0.830,2.750
746,-0.700,-1.210
747,-0.750,-0.650
748,-0.430,-0.370
749,-0.050,-0.270
750,-0.020,-0.350
751,-0.010,-0.330
752,0.000,-0.380
753,0.010,-0.360
754,0.030,-0.330
755,0.030,-0.330
756,0.030,-0.350
757,0.020,-0.320
758,0.060,-0.280
759,0.030,-0.320
760,0.050,-0.280
761,0.040,-0.270
762,0.080,-0.220
763,0.060,-0.250
764,0.070,-0.160
765,0.060,-0.170
766,0.060,-0.140
767,0.040,-0.130
768,0.080,-0.050
769,0.040,-0.030
770,0.040,-0.030
771,0.020,0.040
772,0.010,0.010
773,-0.020,0.010
774,-0.060,-0.040
775,-0.040,-0.010
776,-0.070,-0.100
777,-0.080,-0.090
778,-0.070,-0.090
779,-0.060,-0.080
780,-0.030,-0.120
781,-0.020,-0.100
782,0.010,-0.110
783,0.030,-0.120
784,0.030,-0.160
785,0.050,-0.150
786,0.050,-0.140
787,0.050,-0.180
788,0.060,-0.150
789,0.060,-0.170
790,0.080,-0.140
791,0.060,-0.210
792,0.060,-0.140
793,0.070,-0.180
794,0.070,-0.150
795,0.050,-0.190
796,0.060,-0.170
797,0.060,-0.170
798,0.050,-0.230
799,0.050,-0.160
800,0.040,-0.190
801,0.070,-0.190
802,0.040,-0.220
803,0.070,-0.160
804,0.060,-0.220
805,0.050,-0.190
806,0.040,-0.190
807,0.040,-0.160
808,0.030,-0.210
809,0.050,-0.180
810,0.030,-0.200
811,0.040,-0.190
812,0.030,-0.230
813,0.010,-0.190
814,0.040,-0.200
815,0.040,-0.240
816,0.020,-0.210
817,0.040,-0.220
818,0.050,-0.220
819,0.040,-0.260
820,0.030,-0.180
821,0.050,-0.240
822,0.030,-0.220
823,0.020,-0.260
824,0.030,-0.210
825,0.070,-0.190
826,0.090,-0.130
827,0.090,-0.090
828,0.130,-0.070
829,0.080,-0.020
830,0.190,0.120
831,0.120,0.120
832,0.080,0.080
833,0.050,0.070
834,-0.030,-0.060
835,-0.040,-0.020
836,-0.030,-0.120
837,-0.010,-0.210
838,-0.020,-0.280
839,-0.030,-0.280
840,-0.020,-0.280
841,-0.040,-0.260
842,-0.050,-0.410
843,0.090,0.340
844,0.070,2.370
845,0.520,5.050
846,-0.590,4.760
847,-0.880,1.950
848,-0.710,-1.240
849,-0.700,-0.670
850,-0.440,-0.290
851,-0.100,-0.290
852,-0.100,-0.310
853,-0.090,-0.340
854,-0.050,-0.330
855,-0.050,-0.310
856,-0.050,-0.300
857,-0.040,-0.310
858,-0.020,-0.300
859,-0.010,-0.270
860,-0.010,-0.310
861,-0.020,-0.270
862,-0.010,-0.240
863,0.010,-0.210
864,0.000,-0.240
865,0.000,-0.180
866,0.020,-0.180
867,0.030,-0.140
868,0.010,-0.140
869,0.010,-0.090
870,0.010,-0.080
871,-0.010,-0.070
872,-0.010,-0.030
873,-0.030,-0.010
874,-0.050,-0.040
875,-0.050,-0.050
876,-0.080,-0.030
877,-0.110,-0.120
878,-0.090,-0.100
879,-0.100,-0.130
880,-0.070,-0.080
881,-0.070,-0.130
882,-0.040,-0.100
883,-0.020,-0.100
884,0.010,-0.120
885,0.020,-0.150
886,0.030,-0.130
887,0.050,-0.140
888,0.040,-0.180
889,0.070,-0.150
890,0.030,-0.170
891,0.050,-0.150
892,0.050,-0.190
893,0.060,-0.120
894,0.040,-0.160
895,0.050,-0.150
896,0.030,-0.180
897,0.040,-0.130
898,0.030,-0.160
899,0.040,-0.170
900,0.030,-0.160
901,0.050,-0.160
902,0.010,-0.180
903,0.040,-0.170
904,0.040,-0.160
905,0.040,-0.170
906,0.030,-0.190
907,0.040,-0.170
908,0.030,-0.140
909,0.010,-0.210
910,0.010,-0.150
911,0.000,-0.190
912,0.020,-0.200
913,0.010,-0.230
914,0.020,-0.160
915,0.020,-0.210
916,0.020,-0.210
917,-0.010,-0.210
918,0.000,-0.200
919,0.020,-0.220
920,0.010,-0.220
921,0.000,-0.180
922,0.010,-0.240
923,-0.010,-0.210
924,-0.010,-0.200
925,0.020,-0.190
926,0.020,-0.210
927,0.060,-0.090
928,0.070,-0.100
929,0.110,-0.040
930,0.080,-0.070
931,0.160,0.200
932,0.140,0.110
933,0.080,0.110
934,0.080,0.090
935,-0.020,0.000
936,-0.030,-0.040
937,-0.030,-0.070
938,-0.020,-0.170
939,-0.040,-0.270
940,-0.030,-0.270
941,-0.060,-0.270
942,-0.040,-0.210
943,-0.070,-0.380
944,0.030,0.240
945,-0.010,1.960
946,0.460,4.990
947,-0.470,5.110
948,-0.730,3.000
949,-0.610,-1.120
950,-0.650,-0.590
951,-0.510,-0.350
952,-0.070,-0.230
953,-0.090,-0.320
954,-0.080,-0.320
955,-0.070,-0.280
956,-0.040,-0.320
957,-0.030,-0.290
958,-0.040,-0.300
959,0.000,-0.230
960,0.000,-0.280
961,0.000,-0.250
962,0.000,-0.260
963,0.010,-0.210
964,0.000,-0.240
965,0.010,-0.180
966,0.010,-0.170
967,0.020,-0.170
968,0.030,-0.130
969,0.010,-0.120
970,-0.010,-0.080
971,0.030,-0.080
972,-0.010,-0.010
973,-0.020,-0.020
974,-0.030,0.010
975,-0.060,-0.020
976,-0.080,0.040
977,-0.070,-0.040
978,-0.100,-0.050
979,-0.100,-0.060
980,-0.070,-0.050
981,-0.060,-0.100
982,-0.070,-0.100
983,-0.050,-0.070
984,-0.030,-0.090
985,-0.010,-0.100
986,-0.010,-0.130
987,0.020,-0.090
988,0.030,-0.160
989,0.020,-0.120
990,0.030,-0.160
991,0.050,-0.150
992,0.040,-0.190
993,0.030,-0.130
994,0.040,-0.200
995,0.020,-0.170
996,0.040,-0.180
997,0.000,-0.190
998,0.020,-0.190
999,0.030,-0.220
1000,0.000,-0.160
1001,0.010,-0.210
1002,0.010,-0.170
1003,-0.010,-0.210
1004,0.020,-0.150
1005,0.010,-0.210
1006,0.010,-0.190
1007,-0.010,-0.200
1008,0.020,-0.170
1009,0.010,-0.240
1010,0.020,-0.200
1011,0.000,-0.220
1012,0.010,-0.230
1013,0.040,-0.240
1014,-0.010,-0.230
1015,0.010,-0.210
1016,-0.010,-0.250
1017,0.010,-0.210
1018,-0.010,-0.240
1019,0.020,-0.210
1020,0.010,-0.260
1021,0.010,-0.200
1022,-0.010,-0.250
1023,0.000,-0.190
1024,0.050,-0.140
1025,0.100,-0.080
1026,0.060,-0.090
1027,0.100,-0.080
1028,0.140,0.150
1029,0.150,0.140
1030,0.110,0.120
1031,0.100,0.120
1032,0.010,0.020
1033,-0.030,-0.050
1034,-0.020,-0.070
1035,-0.010,-0.160
1036,-0.030,-0.250
1037,-0.050,-0.290
1038,-0.050,-0.240
1039,-0.050,-0.260
1040,-0.070,-0.350
1041,-0.040,-0.180
1042,0.020,1.250
1043,0.270,4.370
1044,-0.210,5.110
1045,-0.770,4.380
1046,-0.730,-0.010
1047,-0.770,-0.820
1048,-0.550,-0.600
1049,-0.210,-0.220
1050,-0.060,-0.340
1051,-0.070,-0.330
1052,-0.040,-0.350
1053,-0.010,-0.290
1054,0.000,-0.340
1055,0.010,-0.310
1056,0.020,-0.300
1057,0.030,-0.300
1058,0.010,-0.290
1059,0.020,-0.280
1060,0.050,-0.250
1061,0.030,-0.270
1062,0.040,-0.200
1063,0.050,-0.190
1064,0.070,-0.150
1065,0.050,-0.190
1066,0.070,-0.090
1067,0.070,-0.100
1068,0.050,-0.060
1069,0.050,-0.040
1070,0.050,0.020
1071,0.030,0.020
1072,0.020,0.020
1073,0.020,0.040
1074,-0.040,-0.010
1075,-0.040,-0.030
1076,-0.050,-0.090
1077,-0.040,-0.060
1078,-0.060,-0.130
1079,-0.040,-0.100
1080,-0.050,-0.110
1081,0.000,-0.070
1082,-0.010,-0.140
1083,0.020,-0.100
1084,0.030,-0.130
1085,0.050,-0.150
1086,0.040,-0.180
1087,0.060,-0.160
1088,0.060,-0.140
1089,0.060,-0.190
1090,0.050,-0.150
1091,0.060,-0.180
1092,0.070,-0.180
1093,0.060,-0.210
1094,0.060,-0.140
1095,0.070,-0.180
1096,0.070,-0.180
1097,0.080,-0.170
1098,0.070,-0.160
1099,0.070,-0.200
1100,0.070,-0.200
1101,0.050,-0.180
1102,0.060,-0.180
1103,0.050,-0.190
1104,0.050,-0.210
1105,0.050,-0.170
1106,0.060,-0.220
1107,0.040,-0.190
1108,0.030,-0.210
1109,0.040,-0.200
1110,0.030,-0.240
1111,0.040,-0.180
1112,0.050,-0.220
1113,0.030,-0.230
1114,0.020,-0.230
1115,0.030,-0.200
1116,0.050,-0.220
1117,0.030,-0.240
1118,0.030,-0.210
1119,0.050,-0.240
1120,0.030,-0.240
1121,0.030,-0.270
1122,0.040,-0.200
1123,0.080,-0.180
1124,0.130,-0.130
1125,0.090,-0.110
1126,0.130,-0.070
1127,0.190,0.080
1128,0.180,0.100
1129,0.120,0.070
1130,0.110,0.070
1131,0.020,-0.080
1132,0.000,-0.050
1133,0.010,-0.080
1134,0.000,-0.220
1135,0.000,-0.300
1136,0.000,-0.320
1137,-0.010,-0.290
1138,-0.010,-0.330
1139,-0.010,-0.350
1140,0.040,-0.240
1141,0.110,1.070
1142,0.480,4.120
1143,-0.180,5.110
1144,-0.780,3.700
1145,-0.760,-0.340
1146,-0.860,-0.900
1147,-0.480,-0.490
1148,-0.130,-0.270
1149,-0.020,-0.320
1150,-0.020,-0.320
1151,0.000,-0.360
1152,0.020,-0.340
1153,0.030,-0.350
1154,0.020,-0.300
1155,0.050,-0.360
1156,0.040,-0.290
1157,0.050,-0.300
1158,0.050,-0.280
1159,0.050,-0.290
1160,0.040,-0.220
1161,0.070,-0.230
1162,0.060,-0.230
1163,0.060,-0.190
1164,0.080,-0.180
1165,0.090,-0.140
1166,0.060,-0.160
1167,0.060,-0.060
1168,0.050,-0.070
1169,0.060,-0.030
1170,0.020,-0.020
1171,0.020,0.010
1172,-0.010,-0.030
1173,-0.020,-0.030
1174,-0.050,-0.040
1175,-0.070,-0.060
1176,-0.060,-0.130
1177,-0.080,-0.090
1178,-0.070,-0.090
1179,-0.040,-0.130
1180,-0.030,-0.100
1181,-0.020,-0.110
1182,0.010,-0.090
1183,0.010,-0.170
1184,0.010,-0.100
1185,0.060,-0.160
1186,0.020,-0.150
1187,0.020,-0.190
1188,0.030,-0.120
1189,0.020,-0.180
1190,0.030,-0.190
1191,0.020,-0.160
1192,0.030,-0.170
1193,0.040,-0.180
1194,0.030,-0.190
1195,0.040,-0.150
1196,0.040,-0.220
1197,0.030,-0.190
1198,0.020,-0.210
1199,0.060,-0.180
1200,0.050,-0.230
1201,0.030,-0.170
1202,0.040,-0.200
1203,0.030,-0.190
1204,0.020,-0.230
1205,0.030,-0.160
1206,0.030,-0.200
1207,0.030,-0.200
1208,0.020,-0.180
1209,0.050,-0.180
1210,0.040,-0.200
1211,0.020,-0.240
1212,0.040,-0.200
1213,0.010,-0.230
1214,0.020,-0.230
1215,0.040,-0.220
1216,0.040,-0.200
1217,0.040,-0.270
1218,0.040,-0.230
1219,0.020,-0.230
1220,0.030,-0.220
1221,0.020,-0.240
1222,0.080,-0.110
1223,0.110,-0.120
1224,0.080,-0.080
1225,0.100,-0.060
1226,0.150,0.140
1227,0.180,0.120
1228,0.100,0.080
1229,0.080,0.140
1230,0.010,-0.030
1231,-0.020,-0.010
1232,-0.020,-0.070
1233,0.000,-0.140
1234,-0.010,-0.310
1235,-0.020,-0.280
1236,0.000,-0.290
1237,-0.010,-0.250
1238,0.000,-0.400
1239,0.070,0.060
1240,0.080,1.700
1241,0.600,4.740
1242,-0.460,5.050
1243,-0.810,2.910
1244,-0.660,-1.050
1245,-0.780,-0.740
1246,-0.440,-0.370
1247,-0.050,-0.290
1248,-0.010,-0.320
1249,-0.030,-0.350
1250,0.010,-0.320
1251,0.020,-0.350
1252,0.020,-0.320
1253,0.030,-0.320
1254,0.050,-0.290
1255,0.040,-0.320
1256,0.050,-0.270
1257,0.030,-0.270
1258,0.050,-0.230
1259,0.040,-0.260
1260,0.050,-0.200
1261,0.060,-0.160
1262,0.050,-0.190
1263,0.060,-0.110
1264,0.040,-0.100
1265,0.060,-0.060
1266,0.040,-0.070
1267,0.040,0.020
1268,0.010,-0.010
1269,0.000,0.020
1270,-0.030,0.020
1271,-0.040,0.030
1272,-0.070,-0.050
1273,-0.080,-0.020
1274,-0.070,-0.070
1275,-0.070,-0.090
1276,-0.090,-0.110
1277,-0.070,-0.080
1278,-0.050,-0.080
1279,-0.020,-0.110
1280,0.000,-0.090
1281,0.020,-0.110
1282,0.040,-0.130
1283,0.030,-0.200
1284,0.070,-0.100
1285,0.040,-0.170
1286,0.020,-0.140
1287,0.030,-0.170
1288,0.040,-0.130
1289,0.030,-0.180
1290,0.030,-0.170
1291,0.060,-0.160
1292,0.030,-0.150
1293,0.030,-0.190
1294,0.010,-0.150
1295,0.050,-0.130
1296,0.040,-0.170
1297,0.050,-0.150
1298,0.030,-0.170
1299,0.040,-0.150
1300,0.040,-0.190
1301,0.040,-0.120
1302,0.050,-0.160
1303,0.050,-0.160
1304,0.030,-0.210
1305,0.030,-0.140
1306,0.040,-0.170
1307,0.020,-0.180
1308,0.040,-0.150
1309,0.020,-0.170
1310,0.030,-0.190
1311,0.020,-0.170
1312,0.020,-0.170
1313,0.010,-0.180
1314,0.030,-0.170
1315,-0.020,-0.210
1316,0.040,-0.130
1317,0.020,-0.210
1318,0.000,-0.170
1319,0.020,-0.190
1320,0.000,-0.180
1321,0.010,-0.210
1322,-0.020,-0.150
1323,0.040,-0.120
1324,0.080,-0.080
1325,0.020,-0.040
1326,0.100,-0.030
1327,0.070,0.100
1328,0.200,0.140
1329,0.080,0.130
1330,0.060,0.130
1331,0.030,0.030
1332,-0.090,-0.030
1333,-0.030,0.000
1334,-0.030,-0.110
1335,-0.030,-0.240
1336,-0.030,-0.250
1337,-0.030,-0.260
1338,-0.010,-0.240
1339,-0.070,-0.260
1340,-0.070,-0.280
1341,0.070,0.840
1342,0.160,3.470
1343,0.140,5.110
1344,-0.640,4.590
1345,-0.700,1.040
1346,-0.730,-1.030
1347,-0.520,-0.600
1348,-0.330,-0.220
1349,-0.050,-0.290
1350,-0.070,-0.280
1351,-0.040,-0.330
1352,-0.040,-0.310
1353,-0.020,-0.280
1354,-0.010,-0.260
1355,-0.010,-0.270
1356,-0.020,-0.290
1357,-0.010,-0.220
1358,-0.010,-0.270
1359,-0.020,-0.230
1360,-0.010,-0.210
1361,-0.010,-0.170
1362,-0.010,-0.180
1363,0.010,-0.140
1364,0.010,-0.120
1365,0.000,-0.100
1366,-0.020,-0.110
1367,-0.040,-0.060
1368,-0.030,-0.020
1369,-0.040,-0.030
1370,-0.040,0.000
1371,-0.060,0.020
1372,-0.090,0.000
1373,-0.090,-0.040
1374,-0.090,0.030
1375,-0.120,-0.070
1376,-0.110,-0.060
1377,-0.120,-0.090
1378,-0.080,-0.040
1379,-0.080,-0.100
1380,-0.060,-0.080
1381,-0.020,-0.080
1382,0.000,-0.060
1383,-0.010,-0.130
1384,-0.010,-0.080
1385,0.030,-0.110
1386,0.010,-0.170
1387,0.030,-0.130
1388,0.020,-0.160
1389,0.040,-0.110
1390,0.010,-0.190
1391,0.010,-0.150
1392,0.010,-0.160
1393,0.040,-0.140
1394,0.030,-0.180
1395,0.020,-0.140
1396,0.020,-0.180
1397,0.020,-0.160
1398,0.020,-0.150
1399,0.040,-0.150
1400,0.010,-0.150
1401,0.020,-0.160
1402,0.020,-0.120
1403,0.040,-0.170
1404,0.000,-0.160
1405,0.020,-0.170
1406,0.000,-0.140
1407,0.020,-0.190
1408,0.000,-0.170
1409,0.020,-0.180
1410,0.030,-0.160
1411,0.000,-0.210
1412,0.020,-0.150
1413,0.010,-0.130
1414,0.010,-0.200
1415,0.020,-0.160
1416,0.010,-0.180
1417,0.000,-0.170
1418,0.000,-0.220
1419,0.010,-0.120
1420,0.010,-0.140
1421,0.080,-0.050
1422,0.040,-0.070
1423,0.110,-0.020
1424,0.070,0.070
1425,0.160,0.170
1426,0.090,0.130
1427,0.110,0.190
1428,0.040,0.050
1429,-0.050,0.000
1430,-0.030,-0.020
1431,-0.050,-0.090
1432,-0.070,-0.240
1433,-0.060,-0.230
1434,-0.060,-0.230
1435,-0.080,-0.270
1436,-0.080,-0.230
1437,-0.100,-0.330
1438,0.040,0.720
1439,0.140,3.080
1440,0.300,5.110
1441,-0.700,5.110
1442,-0.850,2.270
1443,-0.770,-1.170
1444,-0.590,-0.590
1445,-0.440,-0.290
1446,-0.050,-0.270
1447,-0.070,-0.240
1448,-0.040,-0.290
1449,-0.040,-0.300
1450,-0.020,-0.320
1451,0.000,-0.250
1452,0.010,-0.300
1453,0.020,-0.280
1454,0.000,-0.270
1455,0.030,-0.220
1456,0.040,-0.250
1457,0.020,-0.190
1458,0.050,-0.190
1459,0.030,-0.170
1460,0.060,-0.160
1461,0.050,-0.110
1462,0.030,-0.070
1463,0.060,-0.090
1464,0.060,0.000
1465,0.050,-0.010
1466,0.070,0.030
1467,0.040,0.000
1468,0.030,0.070
1469,0.000,0.030
1470,-0.010,0.010
1471,-0.010,-0.020
1472,-0.040,-0.030
1473,-0.060,-0.050
1474,-0.040,-0.080
1475,-0.050,-0.060
1476,-0.050,-0.100
1477,-0.060,-0.090
1478,-0.050,-0.080
1479,-0.030,-0.070
1480,-0.010,-0.140
1481,-0.020,-0.120
1482,-0.020,-0.160
1483,-0.020,-0.140
1484,-0.020,-0.190
1485,-0.030,-0.130
1486,-0.020,-0.160
1487,-0.010,-0.170
1488,-0.030,-0.170
1489,-0.010,-0.160
1490,-0.020,-0.170
1491,-0.010,-0.210
1492,-0.010,-0.140
1493,-0.010,-0.200
1494,0.010,-0.160
1495,-0.010,-0.200
1496,0.000,-0.150
1497,0.000,-0.200
1498,0.010,-0.180
1499,0.000,-0.190
1500,0.030,-0.160
1501,0.030,-0.220
1502,0.020,-0.180
1503,0.030,-0.190
1504,0.030,-0.210
1505,0.040,-0.220
1506,0.040,-0.200
1507,0.050,-0.200
1508,0.040,-0.260
1509,0.060,-0.210
1510,0.040,-0.230
1511,0.060,-0.220
1512,0.050,-0.240
1513,0.100,-0.210
1514,0.060,-0.240
1515,0.070,-0.250
1516,0.070,-0.250
1517,0.060,-0.210
1518,0.080,-0.210
1519,0.140,-0.120
1520,0.110,-0.120
1521,0.160,-0.110
1522,0.170,0.030
1523,0.210,0.150
1524,0.190,0.110
1525,0.160,0.080
1526,0.080,0.000
1527,0.030,-0.070
1528,0.040,-0.080
1529,0.020,-0.240
1530,0.040,-0.330
1531,0.030,-0.370
1532,0.020,-0.380
1533,0.010,-0.380
1534,0.010,-0.410
1535,0.030,-0.450
1536,0.160,0.760
1537,0.400,3.670
1538,0.010,5.110
1539,-0.720,4.020
1540,-0.840,0.090
1541,-0.840,-1.040
1542,-0.490,-0.700
1543,-0.190,-0.380
1544,-0.010,-0.450
1545,0.000,-0.460
1546,0.000,-0.510
1547,0.020,-0.440
1548,0.040,-0.470
1549,0.030,-0.460
1550,0.050,-0.470
1551,0.060,-0.400
1552,0.060,-0.410
1553,0.050,-0.420
1554,0.060,-0.360
1555,0.060,-0.350
1556,0.070,-0.320
1557,0.090,-0.310
1558,0.100,-0.240
1559,0.090,-0.260
1560,0.100,-0.210
1561,0.090,-0.170
1562,0.090,-0.120
1563,0.110,-0.100
1564,0.090,-0.040
1565,0.070,-0.040
1566,0.060,-0.020
1567,0.020,-0.040
1568,-0.010,-0.040
1569,0.000,-0.070
1570,-0.050,-0.100
1571,-0.040,-0.090
1572,-0.030,-0.110
1573,-0.020,-0.090
1574,-0.020,-0.140
1575,0.000,-0.070
1576,0.030,-0.120
1577,0.040,-0.120
1578,0.050,-0.140
1579,0.090,-0.130
1580,0.080,-0.190
1581,0.090,-0.160
1582,0.100,-0.180
1583,0.080,-0.190
1584,0.100,-0.190
1585,0.080,-0.180
1586,0.090,-0.170
1587,0.070,-0.210
1588,0.080,-0.180
1589,0.080,-0.190
1590,0.100,-0.170
1591,0.090,-0.230
1592,0.080,-0.170
1593,0.080,-0.220
1594,0.100,-0.200
1595,0.060,-0.240
1596,0.100,-0.170
1597,0.090,-0.240
1598,0.090,-0.220
1599,0.100,-0.210
1600,0.080,-0.200
1601,0.080,-0.240
1602,0.070,-0.210
1603,0.050,-0.190
1604,0.070,-0.240
1605,0.070,-0.210
1606,0.040,-0.230
1607,0.060,-0.190
1608,0.040,-0.260
1609,0.050,-0.190
1610,0.030,-0.240
1611,0.040,-0.230
1612,0.040,-0.260
1613,0.030,-0.230
1614,0.050,-0.230
1615,0.030,-0.270
1616,0.020,-0.210
1617,0.070,-0.180
1618,0.130,-0.140
1619,0.050,-0.140
1620,0.170,-0.050
1621,0.090,-0.040
1622,0.220,0.140
1623,0.100,0.070
1624,0.110,0.130
1625,0.050,-0.010
1626,-0.010,-0.060
1627,-0.040,-0.060
1628,-0.010,-0.090
1629,0.020,-0.240
1630,0.010,-0.270
1631,-0.010,-0.290
1632,0.000,-0.310
1633,-0.010,-0.290
1634,-0.030,-0.460
1635,0.130,0.460
1636,0.100,2.590
1637,0.540,5.110
1638,-0.610,4.700
1639,-0.880,1.920
1640,-0.700,-1.310
1641,-0.700,-0.660
1642,-0.430,-0.320
1643,-0.070,-0.300
1644,-0.040,-0.330
1645,-0.040,-0.340
1646,-0.020,-0.340
1647,-0.030,-0.370
1648,-0.010,-0.310
1649,-0.010,-0.320
1650,-0.010,-0.320
1651,-0.020,-0.300
1652,0.010,-0.260
1653,-0.020,-0.320
1654,0.000,-0.230
1655,-0.010,-0.230
1656,0.000,-0.210
1657,0.020,-0.200
1658,0.020,-0.150
1659,0.020,-0.120
1660,0.020,-0.130
1661,0.030,-0.070
1662,0.020,-0.050
1663,0.010,-0.010
1664,0.010,-0.040
1665,-0.020,0.050
1666,-0.030,-0.020
1667,-0.030,0.020
1668,-0.090,-0.020
1669,-0.080,-0.030
1670,-0.090,-0.100
1671,-0.090,-0.100
1672,-0.070,-0.090
1673,-0.060,-0.090
1674,-0.040,-0.080
1675,-0.010,-0.080
1676,0.030,-0.040
1677,0.040,-0.120
1678,0.050,-0.110
1679,0.040,-0.130
1680,0.050,-0.120
1681,0.050,-0.160
1682,0.080,-0.120
1683,0.060,-0.150
1684,0.060,-0.160
1685,0.050,-0.150
1686,0.050,-0.140
1687,0.060,-0.120
1688,0.050,-0.190
1689,0.040,-0.110
1690,0.030,-0.150
1691,0.030,-0.140
1692,0.050,-0.200
1693,0.040,-0.130
1694,0.040,-0.180
1695,0.040,-0.170
1696,0.010,-0.150
1697,0.060,-0.130
1698,0.000,-0.170
1699,0.030,-0.180
1700,0.000,-0.140
1701,0.000,-0.170
1702,0.040,-0.160
1703,0.010,-0.160
1704,0.000,-0.140
1705,0.020,-0.200
1706,0.000,-0.140
1707,-0.010,-0.180
1708,0.010,-0.170
1709,-0.020,-0.220
1710,0.010,-0.150
1711,0.000,-0.190
1712,0.000,-0.190
1713,-0.010,-0.170
1714,0.000,-0.190
1715,0.000,-0.160
1716,0.020,-0.200
1717,0.040,-0.090
1718,0.070,-0.080
1719,0.040,-0.010
1720,0.110,-0.050
1721,0.100,0.180
1722,0.160,0.180
1723,0.100,0.130
1724,0.080,0.180
1725,0.030,0.070
1726,-0.030,0.000
1727,-0.040,-0.030
1728,-0.020,-0.050
1729,-0.040,-0.250
1730,-0.040,-0.240
1731,-0.090,-0.270
1732,-0.060,-0.200
1733,-0.080,-0.280
1734,-0.100,-0.210
1735,0.020,0.970
1736,0.140,3.740
1737,0.100,5.110
1738,-0.700,4.560
1739,-0.770,0.930
1740,-0.790,-1.090
1741,-0.580,-0.640
1742,-0.390,-0.230
1743,-0.100,-0.260
1744,-0.110,-0.330
1745,-0.090,-0.290
1746,-0.070,-0.300
1747,-0.080,-0.280
1748,-0.070,-0.310
1749,-0.050,-0.250
1750,-0.030,-0.280
1751,-0.050,-0.270
1752,-0.040,-0.240
1753,-0.050,-0.230
1754,-0.030,-0.230
1755,-0.030,-0.220
1756,-0.010,-0.140
1757,-0.040,-0.190
1758,-0.040,-0.150
1759,-0.020,-0.120
1760,-0.010,-0.070
1761,-0.040,-0.110
1762,-0.040,-0.040
1763,-0.060,-0.030
1764,-0.050,0.030
1765,-0.080,-0.020
1766,-0.100,0.040
1767,-0.110,0.020
1768,-0.110,-0.040
1769,-0.120,-0.030
1770,-0.100,-0.060
1771,-0.130,-0.060
1772,-0.130,-0.120
1773,-0.090,-0.070
1774,-0.110,-0.090
1775,-0.090,-0.050
1776,-0.060,-0.110
1777,-0.040,-0.070
1778,-0.030,-0.130
1779,-0.040,-0.150
1780,-0.020,-0.120
1781,-0.020,-0.130
1782,-0.020,-0.170
1783,-0.020,-0.180
1784,-0.020,-0.140
1785,-0.040,-0.180
1786,-0.010,-0.170
1787,-0.020,-0.160
1788,-0.020,-0.140
1789,-0.020,-0.240
1790,0.000,-0.130
1791,-0.040,-0.180
1792,-0.020,-0.150
1793,-0.010,-0.190
1794,-0.030,-0.140
1795,-0.020,-0.150
1796,-0.010,-0.170
1797,-0.030,-0.170
1798,-0.030,-0.180
1799,-0.010,-0.170
1800,-0.030,-0.230
1801,-0.030,-0.160
1802,-0.030,-0.190
1803,-0.030,-0.190
1804,-0.030,-0.210
1805,-0.020,-0.190
1806,-0.020,-0.230
1807,-0.030,-0.210
1808,-0.020,-0.190
1809,-0.040,-0.200
1810,-0.040,-0.210
1811,-0.050,-0.220
1812,-0.030,-0.180
1813,-0.060,-0.230
1814,-0.020,-0.220
1815,-0.040,-0.210
1816,0.010,-0.120
1817,0.030,-0.120
1818,0.020,-0.040
1819,0.080,-0.060
1820,0.070,0.130
1821,0.110,0.140
1822,0.060,0.140
1823,0.070,0.160
1824,0.010,0.030
1825,-0.070,-0.010
1826,-0.040,-0.060
1827,-0.060,-0.100
1828,-0.050,-0.310
1829,-0.060,-0.230
1830,-0.050,-0.290
1831,-0.060,-0.260
1832,-0.070,-0.320
1833,-0.040,-0.220
1834,0.040,1.020
1835,0.250,4.070
1836,-0.050,5.110
1837,-0.790,4.510
1838,-0.770,0.280
1839,-0.810,-0.910
1840,-0.540,-0.570
1841,-0.240,-0.260
1842,-0.050,-0.290
1843,-0.080,-0.330
1844,-0.030,-0.320
1845,-0.030,-0.370
1846,-0.030,-0.290
1847,0.010,-0.330
1848,0.000,-0.300
1849,0.000,-0.330
1850,0.010,-0.270
1851,0.000,-0.310
1852,0.010,-0.290
1853,0.010,-0.250
1854,0.010,-0.260
1855,0.030,-0.240
1856,0.020,-0.240
1857,0.040,-0.160
1858,0.020,-0.180
1859,0.060,-0.140
1860,0.030,-0.110
1861,0.040,-0.040
1862,0.030,-0.090
1863,0.020,-0.010
1864,-0.010,-0.020
1865,0.000,0.010
1866,-0.020,-0.060
1867,-0.050,-0.040
1868,-0.050,-0.090
1869,-0.060,-0.110
1870,-0.060,-0.110
1871,-0.060,-0.110
1872,-0.030,-0.120
1873,-0.030,-0.140
1874,-0.010,-0.090
1875,-0.020,-0.160
1876,0.050,-0.120
1877,0.010,-0.160
1878,0.040,-0.140
1879,0.040,-0.190
1880,0.040,-0.170
1881,0.030,-0.180
1882,0.020,-0.160
1883,0.060,-0.190
1884,0.030,-0.170
1885,0.030,-0.150
1886,0.060,-0.200
1887,0.060,-0.170
1888,0.030,-0.170
1889,0.040,-0.130
1890,0.040,-0.200
1891,0.040,-0.130
1892,0.020,-0.170
1893,0.020,-0.140
1894,0.020,-0.200
1895,0.020,-0.140
1896,0.020,-0.180
1897,0.020,-0.190
1898,0.010,-0.180
1899,0.020,-0.180
1900,0.010,-0.190
1901,0.000,-0.210
1902,0.000,-0.160
1903,0.000,-0.210
1904,0.000,-0.210
1905,-0.010,-0.200
1906,0.010,-0.170
1907,-0.010,-0.230
1908,0.000,-0.190
1909,-0.020,-0.210
1910,0.000,-0.200
1911,0.000,-0.250
1912,0.000,-0.190
1913,0.000,-0.220
1914,0.010,-0.230
1915,-0.020,-0.220
1916,0.000,-0.240
1917,0.000,-0.210
1918,0.040,-0.170
1919,0.070,-0.090
1920,0.040,-0.110
1921,0.080,-0.030
1922,0.100,0.070
1923,0.150,0.120
1924,0.050,0.050
1925,0.080,0.090
1926,-0.020,-0.030
1927,-0.060,-0.040
1928,-0.020,-0.080
1929,-0.010,-0.160
1930,-0.020,-0.280
1931,-0.020,-0.320
1932,-0.030,-0.310
1933,-0.020,-0.310
1934,-0.020,-0.370
1935,0.040,-0.250
1936,0.110,1.140
1937,0.470,4.230
1938,-0.230,5.110
1939,-0.760,3.640
1940,-0.780,-0.380
1941,-0.860,-0.890
1942,-0.480,-0.510
1943,-0.160,-0.290
1944,-0.030,-0.320
1945,-0.020,-0.330
1946,-0.010,-0.390
1947,0.000,-0.310
1948,0.010,-0.360
1949,0.000,-0.330
1950,0.020,-0.330
1951,0.030,-0.290
1952,0.030,-0.320
1953,0.040,-0.310
1954,0.040,-0.280
1955,0.040,-0.260
1956,0.040,-0.250
1957,0.040,-0.230
1958,0.040,-0.190
1959,0.060,-0.190
1960,0.030,-0.170
1961,0.030,-0.130
1962,0.040,-0.060
1963,0.030,-0.090
1964,0.020,-0.020
1965,0.000,-0.010
1966,0.020,0.020
1967,-0.020,-0.070
1968,-0.040,-0.020
1969,-0.050,-0.070
1970,-0.060,-0.090
1971,-0.060,-0.110
1972,-0.080,-0.120
1973,-0.070,-0.130
1974,-0.050,-0.140
1975,-0.010,-0.080
1976,0.000,-0.130
1977,0.030,-0.110
1978,0.030,-0.140
1979,0.060,-0.120
1980,0.060,-0.180
1981,0.060,-0.190
1982,0.070,-0.180
1983,0.060,-0.170
1984,0.080,-0.180
1985,0.060,-0.180
1986,0.080,-0.170
1987,0.090,-0.190
1988,0.060,-0.190
1989,0.070,-0.190
1990,0.090,-0.160
1991,0.070,-0.200
1992,0.070,-0.170
1993,0.090,-0.200
1994,0.090,-0.190
1995,0.080,-0.240
1996,0.090,-0.180
1997,0.080,-0.200
1998,0.080,-0.210
1999,0.080,-0.200
2000,0.080,-0.190
2001,0.060,-0.210
2002,0.060,-0.220
2003,0.070,-0.180
2004,0.070,-0.210
2005,0.060,-0.190
2006,0.060,-0.230
2007,0.040,-0.190
2008,0.040,-0.230
2009,0.050,-0.230
2010,0.040,-0.220
2011,0.050,-0.210
2012,0.030,-0.220
2013,0.020,-0.260
2014,0.040,-0.190
2015,0.050,-0.250
2016,0.050,-0.230
2017,0.040,-0.230
2018,0.030,-0.190
2019,0.040,-0.270
2020,0.050,-0.210
2021,0.080,-0.160
2022,0.100,-0.120
2023,0.090,-0.110
2024,0.120,-0.050
2025,0.140,0.090
2026,0.220,0.090
2027,0.110,0.060
2028,0.100,0.100
2029,0.030,-0.020
2030,-0.030,-0.110
2031,0.000,-0.050
2032,0.000,-0.160
2033,0.010,-0.290
2034,0.000,-0.320
2035,-0.010,-0.290
2036,-0.010,-0.310
2037,-0.010,-0.370
2038,0.010,-0.270
2039,0.120,1.010
2040,0.360,3.920
2041,-0.030,5.110
2042,-0.690,3.910
2043,-0.770,0.000
2044,-0.830,-0.970
2045,-0.490,-0.560
2046,-0.200,-0.210
2047,-0.010,-0.310
2048,-0.010,-0.310
2049,-0.010,-0.330
2050,0.020,-0.320
2051,0.000,-0.330
2052,0.030,-0.300
2053,0.030,-0.270
2054,0.030,-0.330
2055,0.040,-0.270
2056,0.020,-0.270
2057,0.030,-0.220
2058,0.050,-0.260
2059,0.050,-0.190
2060,0.050,-0.180
2061,0.050,-0.150
2062,0.040,-0.180
2063,0.040,-0.110
2064,0.070,-0.080
2065,0.030,-0.090
2066,0.030,-0.010
2067,0.000,-0.030
2068,-0.020,0.020
2069,-0.030,-0.020
2070,-0.030,0.050
2071,-0.060,-0.020
2072,-0.060,-0.020
2073,-0.100,-0.050
2074,-0.090,-0.050
2075,-0.110,-0.090
2076,-0.080,-0.090
2077,-0.070,-0.060
2078,-0.030,-0.080
2079,-0.010,-0.080
2080,0.000,-0.090
2081,0.020,-0.060
2082,0.030,-0.140
2083,0.050,-0.120
2084,0.030,-0.140
2085,0.040,-0.130
2086,0.050,-0.190
2087,0.040,-0.130
2088,0.060,-0.160
2089,0.040,-0.170
2090,0.050,-0.160
2091,0.060,-0.170
2092,0.040,-0.180
2093,0.050,-0.200
2094,0.050,-0.140
2095,0.040,-0.190
2096,0.040,-0.170
2097,0.030,-0.210
2098,0.070,-0.150
2099,0.040,-0.210
2100,0.030,-0.180
2101,0.020,-0.180
2102,0.060,-0.150
2103,0.040,-0.190
2104,0.040,-0.160
2105,0.040,-0.170
2106,0.040,-0.200
2107,0.010,-0.200
2108,0.060,-0.180
2109,0.030,-0.160
2110,0.050,-0.180
2111,0.030,-0.180
2112,0.040,-0.210
2113,0.020,-0.170
2114,0.040,-0.210
2115,0.040,-0.170
2116,0.010,-0.210
2117,0.030,-0.210
2118,0.010,-0.220
2119,0.010,-0.180
2120,0.060,-0.240
2121,0.040,-0.170
2122,0.090,-0.060
2123,0.090,-0.090
2124,0.110,-0.060
2125,0.070,-0.020
2126,0.180,0.170
2127,0.110,0.070
2128,0.120,0.130
2129,0.090,0.090
2130,0.010,-0.010
2131,-0.020,-0.060
2132,-0.010,-0.070
2133,0.000,-0.180
2134,0.000,-0.300
2135,-0.040,-0.270
2136,-0.020,-0.260
2137,-0.020,-0.230
2138,-0.060,-0.390
2139,0.080,0.380
2140,0.050,2.270
2141,0.470,5.110
2142,-0.540,5.110
2143,-0.760,2.990
2144,-0.610,-1.130
2145,-0.620,-0.610
2146,-0.460,-0.370
2147,-0.060,-0.220
2148,-0.060,-0.340
2149,-0.030,-0.310
2150,-0.030,-0.310
2151,-0.030,-0.320
2152,0.000,-0.340
2153,-0.030,-0.310
2154,-0.010,-0.290
2155,0.000,-0.310
2156,0.010,-0.220
2157,-0.010,-0.270
2158,0.010,-0.240
2159,-0.030,-0.250
2160,0.000,-0.170
2161,0.020,-0.190
2162,0.020,-0.170
2163,0.010,-0.140
2164,0.010,-0.100
2165,0.000,-0.110
2166,0.010,-0.080
2167,-0.020,-0.030
2168,0.010,-0.040
2169,0.000,0.000
2170,-0.030,-0.010
2171,-0.050,0.030
2172,-0.060,-0.070
2173,-0.060,-0.050
2174,-0.060,-0.100
2175,-0.060,-0.080
2176,-0.040,-0.130
2177,-0.040,-0.080
2178,-0.020,-0.130
2179,-0.010,-0.110
2180,0.010,-0.110
2181,0.020,-0.120
2182,0.000,-0.130
2183,0.040,-0.170
2184,0.020,-0.140
2185,0.060,-0.180
2186,0.030,-0.160
2187,0.020,-0.190
2188,0.060,-0.130
2189,0.060,-0.170
2190,0.050,-0.170
2191,0.030,-0.180
2192,0.050,-0.150
2193,0.060,-0.190
2194,0.060,-0.180
2195,0.040,-0.180
2196,0.060,-0.170
2197,0.040,-0.170
2198,0.040,-0.170
2199,0.040,-0.140
2200,0.040,-0.200
2201,0.040,-0.150
2202,0.020,-0.170
2203,0.060,-0.180
2204,0.020,-0.220
2205,0.000,-0.160
2206,0.020,-0.200
2207,0.040,-0.210
2208,0.020,-0.210
2209,0.040,-0.200
2210,0.030,-0.220
2211,0.030,-0.230
2212,0.020,-0.200
2213,0.020,-0.210
2214,0.000,-0.210
2215,0.010,-0.200
2216,0.020,-0.190
2217,0.010,-0.240
2218,0.020,-0.210
2219,0.020,-0.170
2220,0.080,-0.100
2221,0.080,-0.130
2222,0.090,-0.040
2223,0.110,-0.020
2224,0.130,0.160
2225,0.140,0.120
2226,0.090,0.150
2227,0.090,0.100
2228,-0.010,-0.040
2229,-0.030,0.000
2230,-0.030,-0.050
2231,-0.010,-0.190
2232,-0.060,-0.290
2233,-0.040,-0.240
2234,-0.030,-0.300
2235,-0.040,-0.260
2236,-0.050,-0.410
2237,0.070,0.060
2238,0.100,1.630
2239,0.480,4.880
2240,-0.450,5.110
2241,-0.810,3.570
2242,-0.710,-0.900
2243,-0.740,-0.690
2244,-0.470,-0.410
2245,-0.090,-0.290
2246,-0.030,-0.310
2247,-0.020,-0.340
2248,0.010,-0.340
2249,0.010,-0.380
2250,0.010,-0.320
2251,0.040,-0.330
2252,0.050,-0.330
2253,0.040,-0.320
2254,0.060,-0.280
2255,0.050,-0.290
2256,0.050,-0.300
2257,0.080,-0.220
2258,0.070,-0.220
2259,0.080,-0.190
2260,0.080,-0.200
2261,0.080,-0.130
2262,0.090,-0.170
2263,0.090,-0.080
2264,0.090,-0.080
2265,0.090,-0.010
2266,0.070,-0.030
2267,0.050,0.030
2268,0.010,0.030
2269,0.020,0.020
2270,-0.020,-0.020
2271,-0.020,-0.030
2272,-0.030,-0.040
2273,-0.040,-0.110
2274,-0.040,-0.060
2275,-0.040,-0.120
2276,-0.010,-0.100
2277,-0.010,-0.150
2278,0.010,-0.100
2279,0.030,-0.160
2280,0.050,-0.160
2281,0.050,-0.170
2282,0.070,-0.170
2283,0.070,-0.200
2284,0.060,-0.220
2285,0.060,-0.190
2286,0.060,-0.190
2287,0.090,-0.200
2288,0.050,-0.200
2289,0.090,-0.150
2290,0.070,-0.210
2291,0.070,-0.170
2292,0.060,-0.170
2293,0.060,-0.150
2294,0.060,-0.210
2295,0.050,-0.140
2296,0.050,-0.190
2297,0.060,-0.170
2298,0.050,-0.190
2299,0.040,-0.170
2300,0.060,-0.190
2301,0.040,-0.220
2302,0.030,-0.180
2303,0.050,-0.210
2304,0.040,-0.210
2305,0.030,-0.220
2306,0.050,-0.180
2307,0.010,-0.240
2308,0.030,-0.210
2309,0.020,-0.240
2310,0.030,-0.210
2311,0.040,-0.250
2312,0.020,-0.230
2313,0.030,-0.230
2314,0.040,-0.250
2315,0.030,-0.270
2316,0.020,-0.240
2317,0.030,-0.250
2318,0.000,-0.290
2319,0.040,-0.240
2320,0.010,-0.270
2321,0.050,-0.180
2322,0.110,-0.190
2323,0.070,-0.110
2324,0.130,-0.100
2325,0.090,-0.010
2326,0.190,0.120
2327,0.110,0.090
2328,0.100,0.090
2329,0.040,0.000
2330,-0.040,-0.070
2331,-0.030,-0.080
2332,-0.020,-0.130
2333,0.010,-0.280
2334,0.000,-0.290
2335,-0.020,-0.350
2336,0.000,-0.270
2337,-0.010,-0.310
2338,-0.020,-0.410
2339,0.140,0.530
2340,0.190,3.060
2341,0.370,5.110
2342,-0.610,4.480
2343,-0.890,1.290
2344,-0.720,-1.210
2345,-0.570,-0.630
2346,-0.330,-0.290
2347,-0.010,-0.260
2348,-0.010,-0.330
2349,0.010,-0.320
2350,0.010,-0.330
2351,0.020,-0.290
2352,0.060,-0.330
2353,0.040,-0.310
2354,0.040,-0.310
2355,0.070,-0.270
2356,0.040,-0.320
2357,0.060,-0.260
2358,0.060,-0.250
2359,0.060,-0.230
2360,0.080,-0.250
2361,0.060,-0.190
2362,0.080,-0.160
2363,0.080,-0.190
2364,0.080,-0.100
2365,0.060,-0.110
2366,0.070,-0.060
2367,0.050,-0.070
2368,0.060,-0.020
2369,0.020,-0.050
2370,0.000,-0.050
2371,-0.010,-0.070
2372,-0.030,-0.070
2373,-0.050,-0.110
2374,-0.040,-0.160
2375,-0.080,-0.140
2376,-0.050,-0.140
2377,-0.050,-0.150
2378,-0.040,-0.130
2379,-0.010,-0.080
2380,0.010,-0.140
2381,0.020,-0.110
2382,0.060,-0.160
2383,0.050,-0.130
2384,0.070,-0.190
2385,0.060,-0.130
2386,0.050,-0.170
2387,0.070,-0.150
2388,0.070,-0.180
2389,0.060,-0.140
2390,0.060,-0.170
2391,0.030,-0.190
2392,0.050,-0.140
2393,0.070,-0.170
2394,0.070,-0.160
2395,0.060,-0.180
2396,0.050,-0.150
2397,0.050,-0.180
2398,0.060,-0.170
2399,0.050,-0.170
2400,0.070,-0.140
2401,0.060,-0.200
2402,0.050,-0.150
2403,0.060,-0.160
2404,0.050,-0.170
2405,0.040,-0.190
2406,0.040,-0.160
2407,0.040,-0.170
2408,0.050,-0.200
2409,0.050,-0.160
2410,0.040,-0.190
2411,0.050,-0.190
2412,0.040,-0.230
2413,0.030,-0.160
2414,0.060,-0.230
2415,0.030,-0.200
2416,0.040,-0.220
2417,0.040,-0.180
2418,0.040,-0.230
2419,0.040,-0.240
2420,0.020,-0.210
2421,0.050,-0.160
2422,0.120,-0.120
2423,0.050,-0.100
2424,0.140,-0.050
2425,0.120,0.050
2426,0.190,0.190
2427,0.130,0.110
2428,0.120,0.140
2429,0.010,-0.030
2430,-0.010,0.000
2431,-0.010,-0.040
2432,0.000,-0.100
2433,0.000,-0.280
2434,-0.010,-0.250
2435,-0.020,-0.290
2436,-0.030,-0.280
2437,-0.030,-0.300
2438,-0.060,-0.300
2439,0.100,0.900
2440,0.190,3.660
2441,0.160,5.110
2442,-0.690,4.160
2443,-0.760,0.310
2444,-0.840,-0.960
2445,-0.500,-0.530
2446,-0.230,-0.280
2447,-0.030,-0.280
2448,-0.050,-0.330
2449,-0.030,-0.330
2450,0.000,-0.340
2451,0.000,-0.310
2452,0.020,-0.320
2453,0.020,-0.320
2454,0.020,-0.260
2455,0.010,-0.270
2456,0.020,-0.240
2457,0.020,-0.270
2458,0.030,-0.200
2459,0.020,-0.230
2460,0.030,-0.170
2461,0.010,-0.170
2462,0.040,-0.110
2463,0.030,-0.130
2464,0.030,-0.070
2465,0.020,-0.070
2466,0.020,-0.040
2467,-0.010,-0.050
2468,-0.050,0.030
2469,-0.040,0.020
2470,-0.070,-0.020
2471,-0.060,-0.010
2472,-0.090,-0.020
2473,-0.090,-0.060
2474,-0.100,-0.110
2475,-0.070,-0.040
2476,-0.070,-0.100
2477,-0.050,-0.070
2478,-0.010,-0.090
2479,0.010,-0.060
2480,0.040,-0.130
2481,0.030,-0.110
2482,0.050,-0.130
2483,0.060,-0.180
2484,0.060,-0.190
2485,0.040,-0.160
2486,0.060,-0.170
2487,0.060,-0.170
2488,0.050,-0.190
2489,0.040,-0.170
2490,0.060,-0.190
2491,0.050,-0.210
2492,0.040,-0.140
2493,0.050,-0.200
2494,0.060,-0.180
2495,0.040,-0.210
2496,0.030,-0.150
2497,0.050,-0.220
2498,0.050,-0.190
2499,0.020,-0.180
2500,0.030,-0.180
2501,0.030,-0.200
2502,0.040,-0.200
2503,0.030,-0.190
2504,0.020,-0.200
2505,0.020,-0.220
2506,0.000,-0.180
2507,0.040,-0.180
2508,0.000,-0.240
2509,0.000,-0.190
2510,0.020,-0.190
2511,0.020,-0.180
2512,0.010,-0.230
2513,0.010,-0.180
2514,0.020,-0.230
2515,0.020,-0.200
2516,0.010,-0.190
2517,0.020,-0.150
2518,0.010,-0.190
2519,0.040,-0.140
2520,0.090,-0.050
2521,0.050,-0.080
2522,0.100,-0.070
2523,0.130,0.140
2524,0.170,0.200
2525,0.140,0.100
2526,0.100,0.170
2527,0.020,0.010
2528,-0.020,0.000
2529,-0.030,-0.070
2530,-0.010,-0.090
2531,-0.060,-0.260
2532,-0.050,-0.270
2533,-0.060,-0.270
2534,-0.090,-0.210
2535,-0.080,-0.310
2536,-0.070,-0.150
2537,0.000,1.330
2538,0.200,4.360
2539,-0.200,5.110
2540,-0.800,4.250
2541,-0.740,0.000
2542,-0.820,-0.860
2543,-0.570,-0.550
2544,-0.300,-0.230
2545,-0.090,-0.260
2546,-0.090,-0.300
2547,-0.090,-0.310
2548,-0.080,-0.310
2549,-0.060,-0.310
2550,-0.060,-0.310
2551,-0.070,-0.300
2552,-0.050,-0.290
2553,-0.070,-0.330
2554,-0.070,-0.250
2555,-0.060,-0.270
2556,-0.050,-0.230
2557,-0.050,-0.270
2558,-0.070,-0.190
2559,-0.040,-0.210
2560,-0.060,-0.170
2561,-0.030,-0.130
2562,-0.040,-0.080
2563,-0.030,-0.080
2564,-0.050,-0.050
2565,-0.020,-0.020
2566,-0.030,-0.020
2567,-0.040,-0.030
2568,-0.040,-0.010
2569,-0.060,-0.010
2570,-0.060,-0.080
2571,-0.070,-0.070
2572,-0.080,-0.120
2573,-0.070,-0.090
2574,-0.090,-0.150
2575,-0.050,-0.070
2576,-0.050,-0.100
2577,-0.020,-0.090
2578,-0.030,-0.110
2579,-0.010,-0.100
2580,0.020,-0.150
2581,0.020,-0.160
2582,0.000,-0.140
2583,0.020,-0.160
2584,0.030,-0.160
2585,0.030,-0.160
2586,0.050,-0.120
2587,0.020,-0.190
2588,0.020,-0.150
2589,0.020,-0.160
2590,0.030,-0.130
2591,0.030,-0.190
2592,0.030,-0.140
2593,0.030,-0.170
2594,0.020,-0.160
2595,0.020,-0.190
2596,0.020,-0.130
2597,0.020,-0.160
2598,0.020,-0.200
2599,0.020,-0.140
2600,0.020,-0.180
2601,0.020,-0.170
2602,0.010,-0.230
2603,0.030,-0.170
2604,0.030,-0.230
2605,0.030,-0.210
2606,0.010,-0.220
2607,0.040,-0.180
2608,0.040,-0.240
2609,0.020,-0.210
2610,0.020,-0.210
2611,0.020,-0.210
2612,0.030,-0.240
2613,0.020,-0.210
2614,0.020,-0.220
2615,0.010,-0.240
2616,0.030,-0.200
2617,0.030,-0.230
2618,0.030,-0.190
2619,0.050,-0.180
2620,0.070,-0.090
2621,0.080,-0.080
2622,0.110,-0.070
2623,0.160,0.150
2624,0.170,0.140
2625,0.090,0.130
2626,0.090,0.090
2627,0.000,0.000
2628,-0.030,-0.020
2629,-0.030,-0.060
2630,-0.010,-0.220
2631,-0.040,-0.260
2632,-0.030,-0.300
2633,-0.030,-0.260
2634,-0.060,-0.270
2635,-0.050,-0.390
2636,0.030,0.060
2637,0.070,1.860
2638,0.530,4.940
2639,-0.470,5.110
2640,-0.840,3.070
2641,-0.720,-1.060
2642,-0.780,-0.690
2643,-0.490,-0.420
2644,-0.100,-0.270
2645,-0.060,-0.350
2646,-0.060,-0.360
2647,-0.030,-0.380
2648,-0.020,-0.320
2649,0.000,-0.350
2650,0.030,-0.340
2651,-0.010,-0.330
2652,0.010,-0.290
2653,0.010,-0.330
2654,0.020,-0.270
2655,0.020,-0.270
2656,0.030,-0.260
2657,0.040,-0.250
2658,0.040,-0.190
2659,0.050,-0.180
2660,0.050,-0.160
2661,0.040,-0.090
2662,0.050,-0.080
2663,0.050,-0.040
2664,0.040,-0.040
2665,0.020,0.040
2666,0.020,0.020
2667,0.010,0.040
2668,-0.020,0.020
2669,-0.030,0.020
2670,-0.050,-0.060
2671,-0.060,-0.090
2672,-0.070,-0.080
2673,-0.060,-0.110
2674,-0.040,-0.120
2675,-0.020,-0.100
2676,0.000,-0.070
2677,0.020,-0.130
2678,0.030,-0.120
2679,0.050,-0.140
2680,0.060,-0.130
2681,0.050,-0.180
2682,0.070,-0.130
2683,0.060,-0.170
2684,0.070,-0.160
2685,0.060,-0.170
2686,0.070,-0.130
2687,0.070,-0.150
2688,0.060,-0.160
2689,0.070,-0.140
2690,0.050,-0.140
2691,0.050,-0.160
2692,0.070,-0.180
2693,0.040,-0.150
2694,0.070,-0.200
2695,0.050,-0.180
2696,0.050,-0.190
2697,0.050,-0.160
2698,0.040,-0.230
2699,0.040,-0.170
2700,0.050,-0.210
2701,0.040,-0.210
2702,0.050,-0.220
2703,0.030,-0.200
2704,0.040,-0.200
2705,0.030,-0.220
2706,0.030,-0.190
2707,0.030,-0.200
2708,0.040,-0.200
2709,0.020,-0.230
2710,0.030,-0.200
2711,0.030,-0.230
2712,0.010,-0.220
2713,0.030,-0.220
2714,0.030,-0.200
2715,0.030,-0.250
2716,0.050,-0.220
2717,0.030,-0.220
2718,0.040,-0.220
2719,0.050,-0.240
2720,0.030,-0.210
2721,0.070,-0.150
2722,0.120,-0.150
2723,0.090,-0.120
2724,0.150,-0.090
2725,0.110,0.080
2726,0.220,0.090
2727,0.110,0.130
2728,0.130,0.110
2729,0.040,0.010
2730,-0.030,-0.080
2731,0.000,-0.030
2732,-0.010,-0.140
2733,0.020,-0.290
2734,0.010,-0.270
2735,0.000,-0.300
2736,0.000,-0.290
2737,0.000,-0.340
2738,-0.020,-0.310
2739,0.130,0.860
2740,0.290,3.660
2741,0.170,5.110
2742,-0.650,4.140
2743,-0.800,0.370
2744,-0.770,-1.000
2745,-0.490,-0.560
2746,-0.220,-0.230
2747,0.000,-0.310
2748,-0.020,-0.300
2749,0.030,-0.320
2750,0.020,-0.330
2751,0.020,-0.320
2752,0.030,-0.310
2753,0.050,-0.310
2754,0.060,-0.300
2755,0.060,-0.250
2756,0.050,-0.290
2757,0.060,-0.260
2758,0.050,-0.240
2759,0.080,-0.200
2760,0.070,-0.220
2761,0.070,-0.160
2762,0.060,-0.160
2763,0.080,-0.110
2764,0.060,-0.130
2765,0.050,-0.050
2766,0.050,-0.040
2767,0.040,-0.040
2768,0.030,-0.010
2769,0.000,0.000
2770,-0.030,-0.040
2771,-0.070,-0.060
2772,-0.060,-0.060
2773,-0.070,-0.120
2774,-0.060,-0.110
2775,-0.080,-0.150
2776,-0.040,-0.090
2777,-0.050,-0.130
2778,-0.010,-0.100
2779,-0.020,-0.100
2780,0.030,-0.090
2781,0.040,-0.140
2782,0.030,-0.120
2783,0.050,-0.140
2784,0.060,-0.160
2785,0.040,-0.150
2786,0.050,-0.150
2787,0.050,-0.160
2788,0.050,-0.180
2789,0.040,-0.150
2790,0.050,-0.190
2791,0.040,-0.160
2792,0.040,-0.170
2793,0.060,-0.130
2794,0.050,-0.210
2795,0.040,-0.170
2796,0.040,-0.180
2797,0.040,-0.150
2798,0.020,-0.200
2799,0.040,-0.150
2800,0.040,-0.170
2801,0.030,-0.170
2802,0.040,-0.180
2803,0.030,-0.170
2804,0.030,-0.140
2805,0.020,-0.200
2806,0.020,-0.130
2807,0.020,-0.180
2808,0.040,-0.160
2809,0.020,-0.210
2810,0.040,-0.160
2811,0.040,-0.210
2812,0.050,-0.180
2813,0.040,-0.190
2814,0.040,-0.180
2815,0.040,-0.220
2816,0.040,-0.190
2817,0.030,-0.190
2818,0.020,-0.200
2819,0.050,-0.190
2820,0.040,-0.130
2821,0.110,-0.080
2822,0.090,-0.100
2823,0.160,-0.040
2824,0.150,0.110
2825,0.220,0.220
2826,0.150,0.100
2827,0.120,0.190
2828,0.050,0.060
2829,0.020,0.030
2830,0.010,-0.030
2831,0.010,-0.050
2832,0.010,-0.250
2833,0.000,-0.230
2834,-0.010,-0.220
2835,-0.020,-0.220
2836,-0.020,-0.280
2837,-0.070,-0.200
2838,0.060,1.110
2839,0.210,3.930
2840,0.070,5.110
2841,-0.660,4.160
2842,-0.700,0.200
2843,-0.810,-0.940
2844,-0.530,-0.450
2845,-0.290,-0.240
2846,-0.040,-0.250
2847,-0.040,-0.320
2848,-0.030,-0.270
2849,0.000,-0.290
2850,-0.010,-0.300
2851,-0.020,-0.260
2852,-0.010,-0.270
2853,0.010,-0.240
2854,0.020,-0.260
2855,0.020,-0.200
2856,0.010,-0.250
2857,-0.010,-0.220
2858,0.010,-0.190
2859,0.030,-0.150
2860,0.020,-0.150
2861,0.020,-0.100
2862,0.010,-0.090
2863,0.020,-0.070
2864,0.000,-0.090
2865,0.000,0.010
2866,0.010,0.010
2867,0.000,-0.010
2868,-0.060,0.030
2869,-0.040,0.020
2870,-0.080,0.010
2871,-0.080,-0.070
2872,-0.080,-0.020
2873,-0.070,-0.070
2874,-0.070,-0.060
2875,-0.050,-0.100
2876,-0.040,-0.060
2877,-0.030,-0.090
2878,0.000,-0.050
2879,0.010,-0.060
2880,0.030,-0.090
2881,0.040,-0.120
2882,0.050,-0.140
2883,0.050,-0.110
2884,0.030,-0.160
2885,0.020,-0.140
2886,0.020,-0.160
2887,0.030,-0.130
2888,0.030,-0.200
2889,0.030,-0.140
2890,0.020,-0.190
2891,0.040,-0.170
2892,0.020,-0.220
2893,0.020,-0.170
2894,0.020,-0.210
2895,0.020,-0.220
2896,0.020,-0.170
2897,0.030,-0.180
2898,0.020,-0.200
2899,0.020,-0.220
2900,0.010,-0.180
2901,0.020,-0.220
2902,0.010,-0.210
2903,-0.010,-0.210
2904,0.010,-0.160
2905,0.010,-0.230
2906,-0.020,-0.190
2907,0.000,-0.210
2908,0.010,-0.220
2909,-0.010,-0.200
2910,-0.020,-0.180
2911,0.000,-0.190
2912,-0.020,-0.200
2913,-0.010,-0.190
2914,-0.020,-0.180
2915,-0.030,-0.190
2916,-0.050,-0.250
2917,0.000,-0.140
2918,0.010,-0.120
2919,0.070,-0.060
2920,0.040,-0.050
2921,0.080,0.000
2922,0.130,0.170
2923,0.140,0.170
2924,0.100,0.190
2925,0.100,0.160
2926,0.010,0.040
2927,-0.060,0.000
2928,-0.040,-0.010
2929,-0.040,-0.150
2930,-0.060,-0.240
2931,-0.060,-0.260
2932,-0.060,-0.220
2933,-0.070,-0.270
2934,-0.100,-0.300
2935,-0.070,-0.090
2936,0.000,1.340
2937,0.230,4.480
2938,-0.150,5.110
2939,-0.780,4.470
2940,-0.730,0.040
2941,-0.800,-0.830
2942,-0.560,-0.580
2943,-0.280,-0.200
2944,-0.080,-0.330
2945,-0.080,-0.260
2946,-0.050,-0.330
2947,-0.050,-0.290
2948,-0.030,-0.320
2949,-0.030,-0.260
2950,-0.010,-0.310
2951,0.000,-0.280
2952,-0.010,-0.260
2953,-0.020,-0.250
2954,0.020,-0.240
2955,0.000,-0.240
2956,0.020,-0.190
2957,0.020,-0.220
2958,0.040,-0.190
2959,0.040,-0.170
2960,0.040,-0.120
2961,0.050,-0.140
2962,0.040,-0.060
2963,0.010,-0.060
2964,0.030,-0.050
2965,0.010,-0.060
2966,0.000,-0.020
2967,-0.020,-0.040
2968,-0.020,-0.090
2969,-0.050,-0.080
2970,-0.050,-0.140
2971,-0.040,-0.140
2972,-0.060,-0.200
2973,-0.070,-0.150
2974,-0.050,-0.180
2975,-0.030,-0.150
2976,0.000,-0.170
2977,-0.010,-0.130
2978,0.000,-0.190
2979,0.030,-0.170
2980,0.010,-0.190
2981,0.020,-0.190
2982,0.020,-0.220
2983,0.020,-0.200
2984,0.030,-0.170
2985,0.020,-0.230
2986,0.040,-0.210
2987,0.020,-0.210
2988,0.030,-0.200
2989,0.020,-0.250
2990,0.020,-0.150
2991,0.010,-0.200
2992,0.030,-0.190
2993,-0.010,-0.220
2994,-0.010,-0.180
2995,0.000,-0.210
2996,-0.010,-0.220
2997,-0.020,-0.180
2998,0.010,-0.190
2999,0.000,-0.210
3000,-0.010,-0.210
3001,-0.010,-0.180
3002,-0.020,-0.230
3003,-0.020,-0.220
3004,-0.020,-0.230
3005,-0.020,-0.190
3006,-0.030,-0.260
3007,-0.020,-0.220
3008,-0.030,-0.220
3009,-0.040,-0.230
3010,-0.020,-0.260
3011,-0.010,-0.230
3012,-0.030,-0.250
3013,-0.010,-0.270
3014,-0.040,-0.240
3015,-0.030,-0.240
3016,-0.030,-0.210
3017,0.040,-0.170
3018,0.030,-0.100
3019,0.030,-0.120
3020,0.060,-0.050
3021,0.130,0.150
3022,0.130,0.130
3023,0.070,0.100
3024,0.040,0.050
3025,-0.050,-0.040
3026,-0.040,-0.040
3027,-0.050,-0.120
3028,-0.060,-0.240
3029,-0.030,-0.280
3030,-0.060,-0.330
3031,-0.060,-0.290
3032,-0.070,-0.320
3033,-0.070,-0.450
3034,0.060,0.150
3035,0.050,2.070
3036,0.520,4.980
3037,-0.530,5.110
3038,-0.860,2.780
3039,-0.730,-1.200
3040,-0.800,-0.720
3041,-0.500,-0.400
3042,-0.130,-0.280
3043,-0.050,-0.340
3044,-0.050,-0.350
3045,-0.040,-0.360
3046,-0.010,-0.330
3047,-0.020,-0.370
3048,-0.020,-0.330
3049,-0.010,-0.330
3050,0.020,-0.280
3051,0.010,-0.320
3052,0.010,-0.270
3053,0.020,-0.260
3054,0.020,-0.240
3055,0.020,-0.280
3056,0.040,-0.190
3057,0.070,-0.180
3058,0.040,-0.140
3059,0.070,-0.110
3060,0.050,-0.090
3061,0.050,-0.060
3062,0.010,-0.060
3063,0.040,0.020
3064,0.020,-0.030
3065,-0.020,-0.010
3066,-0.050,-0.030
3067,-0.050,-0.010
3068,-0.070,-0.100
3069,-0.080,-0.090
3070,-0.090,-0.110
3071,-0.100,-0.120
3072,-0.060,-0.150
3073,-0.060,-0.100
3074,-0.030,-0.120
3075,-0.020,-0.140
3076,0.010,-0.140
3077,0.010,-0.150
3078,0.050,-0.170
3079,0.030,-0.210
3080,0.060,-0.150
3081,0.030,-0.190
3082,0.040,-0.180
3083,0.040,-0.190
3084,0.050,-0.140
3085,0.050,-0.210
3086,0.040,-0.200
3087,0.030,-0.190
3088,0.050,-0.180
3089,0.040,-0.190
3090,0.040,-0.200
3091,0.040,-0.180
3092,0.040,-0.240
3093,0.050,-0.210
3094,0.040,-0.200
3095,0.060,-0.190
3096,0.050,-0.240
3097,0.040,-0.170
3098,0.040,-0.210
3099,0.040,-0.190
3100,0.040,-0.230
3101,0.040,-0.170
3102,0.040,-0.230
3103,0.060,-0.210
3104,0.040,-0.210
3105,0.030,-0.190
3106,0.010,-0.240
3107,0.030,-0.230
3108,0.040,-0.190
3109,0.020,-0.230
3110,0.040,-0.240
3111,0.010,-0.230
3112,0.040,-0.220
3113,0.020,-0.260
3114,0.040,-0.220
3115,0.020,-0.240
3116,0.030,-0.230
3117,0.040,-0.210
3118,0.090,-0.120
3119,0.050,-0.130
3120,0.120,-0.100
3121,0.070,0.020
3122,0.180,0.150
3123,0.120,0.100
3124,0.100,0.080
3125,0.050,0.040
3126,-0.030,-0.060
3127,-0.020,-0.050
3128,-0.030,-0.140
3129,-0.010,-0.260
3130,-0.010,-0.320
3131,-0.010,-0.300
3132,-0.040,-0.290
3133,-0.020,-0.280
3134,-0.070,-0.430
3135,0.090,0.660
3136,0.100,3.130
3137,0.430,5.110
3138,-0.590,4.520
3139,-0.870,1.410
3140,-0.680,-1.240
3141,-0.650,-0.660
3142,-0.410,-0.240
3143,-0.050,-0.300
3144,-0.060,-0.310
3145,-0.050,-0.370
3146,-0.050,-0.310
3147,-0.030,-0.340
3148,0.000,-0.320
3149,-0.010,-0.300
3150,0.000,-0.280
3151,-0.010,-0.300
3152,0.010,-0.300
3153,-0.010,-0.260
3154,0.010,-0.270
3155,0.030,-0.260
3156,0.010,-0.240
3157,0.040,-0.190
3158,0.030,-0.210
3159,0.040,-0.140
3160,0.040,-0.130
3161,0.040,-0.090
3162,0.010,-0.090
3163,0.020,-0.030
3164,-0.010,-0.010
3165,-0.010,-0.020
3166,-0.040,-0.030
3167,-0.060,-0.040
3168,-0.080,-0.070
3169,-0.090,-0.130
3170,-0.110,-0.090
3171,-0.110,-0.140
3172,-0.090,-0.110
3173,-0.100,-0.140
3174,-0.050,-0.070
3175,-0.050,-0.140
3176,-0.010,-0.130
3177,0.000,-0.140
3178,0.000,-0.130
3179,0.040,-0.170
3180,0.030,-0.200
3181,0.030,-0.160
3182,0.040,-0.200
3183,0.040,-0.170
3184,0.020,-0.190
3185,0.060,-0.160
3186,0.030,-0.220
3187,0.020,-0.150
3188,0.040,-0.190
3189,0.040,-0.170
3190,0.020,-0.220
3191,0.030,-0.160
3192,0.040,-0.160
3193,0.030,-0.200
3194,0.050,-0.170
3195,0.020,-0.170
3196,0.020,-0.180
3197,0.010,-0.220
3198,0.020,-0.170
3199,0.010,-0.200
3200,0.010,-0.180
3201,0.030,-0.210
3202,0.010,-0.160
3203,0.010,-0.240
3204,0.000,-0.200
3205,-0.010,-0.200
3206,0.000,-0.180
3207,0.000,-0.230
3208,-0.040,-0.180
3209,-0.020,-0.190
3210,-0.010,-0.220
3211,-0.020,-0.230
3212,-0.030,-0.220
3213,-0.010,-0.210
3214,-0.040,-0.240
3215,-0.010,-0.190
3216,-0.020,-0.230
3217,-0.010,-0.180
3218,0.010,-0.200
3219,0.020,-0.090
3220,0.030,-0.120
3221,0.060,-0.060
3222,0.070,-0.020
3223,0.130,0.170
3224,0.160,0.140
3225,0.060,0.080
3226,0.070,0.130
3227,-0.030,0.000
3228,-0.030,-0.030
3229,-0.050,-0.060
3230,-0.030,-0.160
3231,-0.030,-0.280
3232,-0.030,-0.280
3233,-0.060,-0.280
3234,-0.050,-0.250
3235,-0.050,-0.390
3236,0.000,0.150
3237,0.010,1.710
3238,0.360,4.770
3239,-0.290,5.110
3240,-0.720,3.630
3241,-0.650,-0.710
3242,-0.800,-0.750
3243,-0.550,-0.480
3244,-0.220,-0.290
3245,-0.080,-0.330
3246,-0.100,-0.370
3247,-0.090,-0.300
3248,-0.070,-0.370
3249,-0.080,-0.360
3250,-0.090,-0.320
3251,-0.070,-0.290
3252,-0.030,-0.300
3253,-0.050,-0.310
3254,-0.040,-0.250
3255,-0.030,-0.300
3256,-0.040,-0.260
3257,-0.040,-0.240
3258,-0.030,-0.190
3259,-0.050,-0.230
3260,-0.020,-0.170
3261,-0.050,-0.150
3262,-0.010,-0.110
3263,-0.040,-0.130
3264,-0.040,-0.060
3265,-0.050,-0.040
3266,-0.070,-0.030
3267,-0.080,-0.040
3268,-0.100,-0.040
3269,-0.100,-0.060
3270,-0.090,-0.110
3271,-0.100,-0.070
3272,-0.130,-0.140
3273,-0.060,-0.090
3274,-0.080,-0.160
3275,-0.060,-0.090
3276,-0.010,-0.140
3277,-0.010,-0.130
3278,-0.020,-0.140
3279,0.020,-0.140
3280,0.020,-0.140
3281,0.030,-0.200
3282,0.030,-0.160
3283,0.050,-0.190
3284,0.030,-0.200
3285,0.030,-0.200
3286,0.050,-0.170
3287,0.010,-0.220
3288,0.040,-0.190
3289,0.010,-0.210
3290,0.030,-0.210
3291,0.010,-0.230
3292,0.010,-0.200
3293,0.030,-0.190
3294,0.010,-0.230
3295,0.000,-0.210
3296,-0.010,-0.230
3297,0.010,-0.190
3298,0.010,-0.250
3299,0.000,-0.180
3300,0.010,-0.230
3301,0.010,-0.220
3302,0.000,-0.240
3303,0.000,-0.220
3304,0.010,-0.240
3305,-0.010,-0.260
3306,-0.020,-0.220
3307,0.010,-0.220
3308,0.000,-0.230
3309,-0.020,-0.240
3310,-0.010,-0.200
3311,-0.020,-0.260
3312,0.010,-0.240
3313,-0.020,-0.250
3314,0.010,-0.220
3315,-0.010,-0.240
3316,0.030,-0.120
3317,0.050,-0.140
3318,0.060,-0.100
3319,0.080,-0.050
3320,0.160,0.170
3321,0.120,0.100
3322,0.110,0.090
3323,0.100,0.090
3324,-0.010,-0.030
3325,-0.020,-0.010
3326,-0.040,-0.120
3327,-0.040,-0.210
3328,-0.050,-0.300
3329,-0.060,-0.300
3330,-0.060,-0.280
3331,-0.060,-0.260
3332,-0.080,-0.400
3333,0.000,0.100
3334,0.020,1.870
3335,0.310,5.100
3336,-0.350,5.110
3337,-0.790,3.830
3338,-0.710,-0.730
3339,-0.750,-0.710
3340,-0.530,-0.490
3341,-0.200,-0.270
3342,-0.080,-0.320
3343,-0.070,-0.380
3344,-0.070,-0.330
3345,-0.010,-0.350
3346,-0.030,-0.350
3347,-0.010,-0.350
3348,-0.020,-0.320
3349,0.000,-0.300
3350,-0.010,-0.340
3351,-0.010,-0.270
3352,0.010,-0.280
3353,0.010,-0.250
3354,0.030,-0.260
3355,0.000,-0.200
3356,0.020,-0.210
3357,0.010,-0.160
3358,0.040,-0.130
3359,0.020,-0.070
3360,0.020,-0.090
3361,0.030,-0.050
3362,0.030,0.000
3363,0.000,-0.020
3364,0.010,0.020
3365,-0.020,0.000
3366,-0.010,0.020
3367,-0.030,-0.080
3368,-0.030,-0.070
3369,-0.050,-0.110
3370,-0.020,-0.100
3371,-0.040,-0.150
3372,-0.030,-0.100
3373,0.000,-0.100
3374,0.010,-0.140
3375,0.010,-0.160
3376,0.030,-0.160
3377,0.050,-0.180
3378,0.050,-0.210
3379,0.060,-0.180
3380,0.070,-0.220
3381,0.070,-0.220
3382,0.070,-0.230
3383,0.070,-0.200
3384,0.080,-0.270
3385,0.060,-0.220
3386,0.060,-0.240
3387,0.060,-0.240
3388,0.080,-0.280
3389,0.070,-0.230
3390,0.080,-0.240
3391,0.080,-0.240
3392,0.090,-0.250
3393,0.060,-0.240
3394,0.090,-0.220
3395,0.060,-0.270
3396,0.080,-0.200
3397,0.060,-0.240
3398,0.070,-0.220
3399,0.070,-0.270
3400,0.070,-0.190
3401,0.070,-0.240
3402,0.070,-0.250
3403,0.040,-0.240
3404,0.060,-0.210
3405,0.060,-0.230
3406,0.060,-0.240
3407,0.060,-0.220
3408,0.050,-0.230
3409,0.050,-0.260
3410,0.040,-0.230
3411,0.050,-0.220
3412,0.050,-0.270
3413,0.030,-0.230
3414,0.030,-0.260
3415,0.050,-0.210
3416,0.090,-0.190
3417,0.090,-0.120
3418,0.120,-0.100
3419,0.120,-0.060
3420,0.150,0.090
3421,0.150,0.070
3422,0.110,0.080
3423,0.070,0.000
3424,0.010,-0.050
3425,-0.030,-0.070
3426,-0.010,-0.100
3427,0.000,-0.270
3428,-0.020,-0.270
3429,-0.010,-0.360
3430,-0.020,-0.310
3431,-0.020,-0.300
3432,0.000,-0.450
3433,0.090,0.140
3434,0.100,2.040
3435,0.610,5.000
3436,-0.450,5.100
3437,-0.810,2.630
3438,-0.710,-1.260
3439,-0.780,-0.700
3440,-0.470,-0.410
3441,-0.050,-0.290
3442,-0.020,-0.360
3443,-0.020,-0.360
3444,-0.010,-0.420
3445,0.020,-0.330
3446,0.040,-0.370
3447,0.020,-0.360
3448,0.050,-0.340
3449,0.040,-0.310
3450,0.050,-0.330
3451,0.060,-0.310
3452,0.060,-0.260
3453,0.050,-0.280
3454,0.080,-0.250
3455,0.050,-0.240
3456,0.100,-0.170
3457,0.080,-0.180
3458,0.080,-0.130
3459,0.090,-0.120
3460,0.080,-0.050
3461,0.070,-0.060
3462,0.070,0.010
3463,0.040,0.010
3464,0.020,0.000
3465,0.020,0.000
3466,-0.010,-0.020
3467,-0.010,-0.050
3468,-0.030,-0.120
3469,-0.040,-0.060
3470,-0.040,-0.110
3471,-0.030,-0.130
3472,-0.020,-0.150
3473,-0.010,-0.110
3474,0.020,-0.160
3475,0.040,-0.140
3476,0.050,-0.160
3477,0.070,-0.150
3478,0.070,-0.200
3479,0.080,-0.200
3480,0.060,-0.190
3481,0.080,-0.190
3482,0.080,-0.200
3483,0.050,-0.200
3484,0.070,-0.160
3485,0.050,-0.230
3486,0.060,-0.170
3487,0.050,-0.210
3488,0.060,-0.180
3489,0.060,-0.220
3490,0.060,-0.170
3491,0.060,-0.200
3492,0.040,-0.220
3493,0.060,-0.210
3494,0.060,-0.210
3495,0.050,-0.190
3496,0.070,-0.240
3497,0.050,-0.180
3498,0.050,-0.220
3499,0.050,-0.210
3500,0.050,-0.230
3501,0.050,-0.180
3502,0.040,-0.240
3503,0.030,-0.240
3504,0.020,-0.240
3505,0.060,-0.220
3506,0.030,-0.240
3507,0.030,-0.230
3508,0.030,-0.210
3509,0.030,-0.240
3510,0.030,-0.230
3511,-0.010,-0.250
3512,0.030,-0.210
3513,0.010,-0.290
3514,0.010,-0.200
3515,0.040,-0.200
3516,0.080,-0.150
3517,0.060,-0.180
3518,0.100,-0.070
3519,0.100,0.040
3520,0.180,0.100
3521,0.090,0.050
3522,0.070,0.070
3523,0.020,-0.050
3524,-0.060,-0.120
3525,-0.040,-0.060
3526,-0.030,-0.200
3527,-0.020,-0.320
3528,-0.040,-0.350
3529,-0.040,-0.310
3530,-0.040,-0.340
3531,-0.030,-0.360
3532,-0.070,-0.420
3533,0.100,0.660
3534,0.130,3.170
3535,0.450,5.110
3536,-0.600,4.430
3537,-0.880,1.060
3538,-0.710,-1.220
3539,-0.590,-0.650
3540,-0.350,-0.270
3541,-0.030,-0.360
3542,-0.020,-0.340
3543,-0.020,-0.370
3544,0.020,-0.350
3545,0.010,-0.390
3546,0.030,-0.330
3547,0.040,-0.330
3548,0.030,-0.340
3549,0.040,-0.320
3550,0.040,-0.300
3551,0.050,-0.260
3552,0.060,-0.310
3553,0.050,-0.200
3554,0.060,-0.230
3555,0.080,-0.180
3556,0.040,-0.190
3557,0.090,-0.110
3558,0.070,-0.150
3559,0.060,-0.110
3560,0.050,-0.040
3561,0.050,-0.020
3562,0.040,-0.010
3563,0.020,0.000
3564,0.000,0.030
3565,-0.020,-0.030
3566,-0.040,-0.040
3567,-0.080,-0.060
3568,-0.060,-0.070
3569,-0.070,-0.120
3570,-0.040,-0.060
3571,-0.050,-0.090
3572,0.000,-0.070
3573,0.000,-0.130
3574,0.020,-0.090
3575,0.030,-0.140
3576,0.080,-0.160
3577,0.070,-0.150
3578,0.090,-0.170
3579,0.060,-0.170
3580,0.080,-0.200
3581,0.060,-0.140
3582,0.060,-0.190
3583,0.050,-0.160
3584,0.040,-0.190
3585,0.050,-0.150
3586,0.050,-0.210
3587,0.030,-0.180
3588,0.050,-0.160
3589,0.040,-0.170
3590,0.030,-0.190
3591,0.030,-0.190
3592,0.050,-0.150
3593,0.040,-0.200
3594,0.050,-0.170
3595,0.030,-0.180
3596,0.030,-0.140
3597,0.050,-0.210
3598,0.050,-0.140
3599,0.040,-0.180
3600,0.040,-0.170
3601,0.030,-0.200
3602,0.040,-0.150
3603,0.040,-0.180
3604,0.040,-0.210
3605,0.020,-0.180
3606,0.050,-0.190
3607,0.020,-0.190
3608,0.050,-0.220
3609,0.040,-0.180
3610,0.010,-0.210
3611,0.020,-0.200
3612,0.020,-0.200
3613,0.020,-0.180
3614,0.000,-0.230
3615,0.030,-0.190
3616,0.030,-0.170
3617,0.060,-0.100
3618,0.110,-0.110
3619,0.050,-0.050
3620,0.150,0.010
3621,0.100,0.100
3622,0.230,0.190
3623,0.110,0.100
3624,0.120,0.170
3625,0.040,-0.020
3626,-0.020,0.000
3627,0.000,-0.050
3628,0.010,-0.100
3629,-0.010,-0.280
3630,0.000,-0.250
3631,0.000,-0.290
3632,-0.010,-0.290
3633,-0.020,-0.310
3634,-0.020,-0.210
3635,0.070,1.090
3636,0.200,3.910
3637,0.150,5.110
3638,-0.660,4.410
3639,-0.720,0.590
3640,-0.740,-1.040
3641,-0.520,-0.610
3642,-0.320,-0.320
3643,-0.050,-0.320
3644,-0.070,-0.380
3645,-0.060,-0.370
3646,-0.020,-0.380
3647,-0.010,-0.360
3648,-0.020,-0.340
3649,-0.020,-0.350
3650,-0.010,-0.300
3651,0.000,-0.310
3652,0.000,-0.280
3653,-0.010,-0.320
3654,0.000,-0.220
3655,0.020,-0.250
3656,0.000,-0.230
3657,-0.010,-0.200
3658,0.020,-0.160
3659,0.000,-0.190
3660,0.010,-0.150
3661,0.010,-0.080
3662,0.000,-0.070
3663,0.010,-0.040
3664,-0.040,-0.050
3665,-0.040,0.030
3666,-0.050,-0.040
3667,-0.070,-0.020
3668,-0.080,-0.050
3669,-0.070,-0.070
3670,-0.070,-0.150
3671,-0.080,-0.090
3672,-0.070,-0.140
3673,-0.040,-0.130
3674,-0.040,-0.130
3675,-0.010,-0.110
3676,-0.020,-0.140
3677,0.010,-0.180
3678,0.040,-0.130
3679,0.000,-0.170
3680,0.030,-0.180
3681,0.020,-0.200
3682,0.020,-0.130
3683,0.040,-0.190
3684,0.030,-0.180
3685,0.010,-0.170
3686,0.030,-0.140
3687,0.020,-0.190
3688,0.010,-0.150
3689,0.000,-0.170
3690,0.010,-0.180
3691,0.010,-0.170
3692,-0.010,-0.140
3693,0.010,-0.150
3694,0.000,-0.180
3695,-0.010,-0.130
3696,0.000,-0.180
3697,-0.010,-0.160
3698,0.000,-0.210
3699,-0.010,-0.140
3700,0.000,-0.200
3701,-0.010,-0.200
3702,0.000,-0.190
3703,0.000,-0.200
3704,-0.010,-0.220
3705,-0.010,-0.210
3706,-0.010,-0.190
3707,-0.020,-0.220
3708,-0.010,-0.220
3709,-0.030,-0.190
3710,-0.010,-0.200
3711,-0.010,-0.240
3712,-0.020,-0.200
3713,-0.020,-0.230
3714,0.000,-0.190
3715,0.010,-0.200
3716,0.080,-0.060
3717,0.050,-0.100
3718,0.110,-0.060
3719,0.110,0.110
3720,0.160,0.200
3721,0.120,0.130
3722,0.100,0.140
3723,0.030,0.040
3724,-0.030,-0.010
3725,-0.030,-0.040
3726,-0.030,-0.140
3727,-0.020,-0.260
3728,-0.040,-0.290
3729,-0.050,-0.300
3730,-0.050,-0.260
3731,-0.070,-0.270
3732,-0.090,-0.320
3733,0.050,0.970
3734,0.180,3.870
3735,0.070,5.110
3736,-0.710,4.580
3737,-0.780,0.390
3738,-0.800,-0.940
3739,-0.540,-0.610
3740,-0.300,-0.250
3741,-0.060,-0.300
3742,-0.050,-0.330
3743,-0.050,-0.380
3744,-0.030,-0.310
3745,-0.010,-0.340
3746,-0.010,-0.330
3747,-0.020,-0.330
3748,0.010,-0.280
3749,0.000,-0.330
3750,0.010,-0.290
3751,-0.010,-0.260
3752,0.010,-0.240
3753,0.020,-0.250
3754,0.010,-0.200
3755,0.030,-0.180
3756,0.040,-0.170
3757,0.030,-0.120
3758,0.020,-0.090
3759,0.040,-0.030
3760,0.030,-0.060
3761,0.000,0.020
3762,0.010,0.010
3763,0.010,0.060
3764,-0.020,-0.010
3765,-0.050,0.050
3766,-0.040,-0.040
3767,-0.040,-0.050
3768,-0.070,-0.080
3769,-0.050,-0.080
3770,-0.040,-0.120
3771,-0.040,-0.110
3772,-0.010,-0.100
3773,0.010,-0.140
3774,0.040,-0.130
3775,0.050,-0.160
3776,0.060,-0.170
3777,0.060,-0.220
3778,0.070,-0.200
3779,0.060,-0.220
3780,0.090,-0.190
3781,0.080,-0.220
3782,0.060,-0.180
3783,0.080,-0.190
3784,0.070,-0.220
3785,0.050,-0.180
3786,0.060,-0.160
3787,0.080,-0.170
3788,0.060,-0.200
3789,0.050,-0.150
3790,0.060,-0.180
3791,0.060,-0.170
3792,0.050,-0.190
3793,0.050,-0.170
3794,0.040,-0.220
3795,0.040,-0.190
3796,0.030,-0.210
3797,0.050,-0.190
3798,0.030,-0.240
3799,0.020,-0.200
3800,0.030,-0.210
3801,0.010,-0.230
3802,0.040,-0.240
3803,0.020,-0.210
3804,0.030,-0.210
3805,0.030,-0.250
3806,0.020,-0.210
3807,0.010,-0.230
3808,0.030,-0.220
3809,0.020,-0.250
3810,0.030,-0.200
3811,0.030,-0.240
3812,0.020,-0.230
3813,0.030,-0.220
3814,0.050,-0.220
3815,0.060,-0.190
3816,0.110,-0.150
3817,0.090,-0.090
3818,0.130,-0.080
3819,0.110,-0.020
3820,0.200,0.130
3821,0.150,0.110
3822,0.100,0.080
3823,0.090,0.050
3824,-0.010,-0.090
3825,-0.020,-0.040
3826,0.010,-0.140
3827,0.020,-0.230
3828,0.010,-0.300
3829,0.000,-0.310
3830,0.020,-0.310
3831,0.000,-0.290
3832,0.000,-0.470
3833,0.140,0.340
3834,0.110,2.440
3835,0.620,5.110
3836,-0.510,4.970
3837,-0.860,2.300
3838,-0.690,-1.260
3839,-0.730,-0.700
3840,-0.420,-0.340
3841,-0.040,-0.320
3842,0.000,-0.340
3843,-0.020,-0.380
3844,0.010,-0.350
3845,0.010,-0.360
3846,0.020,-0.350
3847,0.030,-0.360
3848,0.020,-0.320
3849,0.030,-0.290
3850,0.020,-0.320
3851,0.040,-0.260
3852,0.040,-0.270
3853,0.050,-0.230
3854,0.040,-0.270
3855,0.050,-0.190
3856,0.080,-0.180
3857,0.070,-0.150
3858,0.070,-0.120
3859,0.070,-0.070
3860,0.060,-0.070
3861,0.050,-0.060
3862,0.020,0.010
3863,0.030,0.020
3864,0.020,0.020
3865,-0.020,0.000
3866,-0.010,0.010
3867,-0.040,-0.080
3868,-0.050,-0.090
3869,-0.070,-0.120
3870,-0.050,-0.090
3871,-0.030,-0.150
3872,-0.020,-0.070
3873,0.000,-0.100
3874,0.030,-0.110
3875,0.030,-0.150
3876,0.050,-0.120
3877,0.060,-0.160
3878,0.060,-0.180
3879,0.070,-0.160
3880,0.070,-0.190
3881,0.060,-0.180
3882,0.060,-0.190
3883,0.070,-0.140
3884,0.050,-0.210
3885,0.060,-0.170
3886,0.060,-0.170
3887,0.060,-0.130
3888,0.060,-0.180
3889,0.060,-0.160
3890,0.060,-0.140
3891,0.070,-0.170
3892,0.060,-0.180
3893,0.050,-0.150
3894,0.060,-0.140
3895,0.060,-0.190
3896,0.040,-0.160
3897,0.040,-0.170
3898,0.060,-0.140
3899,0.060,-0.210
3900,0.040,-0.140
3901,0.040,-0.190
3902,0.040,-0.170
3903,0.050,-0.210
3904,0.040,-0.170
3905,0.020,-0.200
3906,0.020,-0.220
3907,0.030,-0.190
3908,0.010,-0.220
3909,0.040,-0.210
3910,0.030,-0.240
3911,0.020,-0.190
3912,0.040,-0.230
3913,0.030,-0.230
3914,0.010,-0.220
3915,0.040,-0.170
3916,0.080,-0.150
3917,0.090,-0.100
3918,0.070,-0.070
3919,0.140,-0.050
3920,0.180,0.130
3921,0.160,0.130
3922,0.110,0.110
3923,0.110,0.080
3924,-0.010,-0.030
3925,0.000,-0.020
3926,0.000,-0.060
3927,0.020,-0.250
3928,-0.010,-0.270
3929,0.000,-0.310
3930,0.000,-0.290
3931,0.000,-0.290
3932,-0.010,-0.380
3933,0.090,0.150
3934,0.070,1.940
3935,0.590,4.860
3936,-0.440,5.010
3937,-0.780,2.890
3938,-0.700,-1.120
3939,-0.810,-0.690
3940,-0.470,-0.390
3941,-0.100,-0.260
3942,-0.030,-0.310
3943,-0.010,-0.290
3944,-0.010,-0.350
3945,0.010,-0.300
3946,0.020,-0.330
3947,0.020,-0.290
3948,0.030,-0.340
3949,0.020,-0.250
3950,0.040,-0.280
3951,0.040,-0.240
3952,0.030,-0.240
3953,0.020,-0.200
3954,0.040,-0.210
3955,0.060,-0.190
3956,0.040,-0.110
3957,0.040,-0.150
3958,0.070,-0.070
3959,0.040,-0.070
3960,0.030,-0.020
3961,0.030,-0.030
3962,0.020,0.000
3963,0.000,0.020
3964,-0.030,0.040
3965,-0.060,0.010
3966,-0.070,-0.010
3967,-0.070,0.000
3968,-0.100,-0.070
3969,-0.090,-0.070
3970,-0.090,-0.050
3971,-0.070,-0.050
3972,-0.070,-0.090
3973,-0.020,-0.020
3974,0.010,-0.050
3975,0.020,-0.060
3976,0.040,-0.130
3977,0.050,-0.080
3978,0.050,-0.150
3979,0.060,-0.120
3980,0.080,-0.130
3981,0.060,-0.100
3982,0.060,-0.130
3983,0.050,-0.140
3984,0.050,-0.130
3985,0.040,-0.140
3986,0.020,-0.160
3987,0.030,-0.150
3988,0.050,-0.110
3989,0.030,-0.200
3990,0.030,-0.140
3991,0.030,-0.170
3992,0.040,-0.150
3993,0.030,-0.190
3994,0.030,-0.140
3995,0.020,-0.170
3996,0.050,-0.170
3997,0.040,-0.150
3998,0.030,-0.150
3999,0.040,-0.180
4000,0.020,-0.210
4001,0.020,-0.160
4002,0.020,-0.190
4003,0.030,-0.190
4004,0.020,-0.190
4005,0.020,-0.160
4006,0.000,-0.220
4007,0.020,-0.170
4008,0.000,-0.200
4009,0.010,-0.180
4010,0.000,-0.220
4011,0.010,-0.190
4012,0.000,-0.180
4013,0.020,-0.220
4014,0.000,-0.200
4015,-0.020,-0.190
4016,0.020,-0.110
4017,0.080,-0.130
4018,0.050,-0.030
4019,0.090,-0.040
4020,0.090,0.140
4021,0.170,0.180
4022,0.120,0.180
4023,0.090,0.140
4024,0.040,0.050
4025,-0.010,-0.020
4026,-0.010,-0.010
4027,-0.030,-0.100
4028,-0.010,-0.230
4029,-0.040,-0.240
4030,-0.010,-0.240
4031,-0.040,-0.230
4032,-0.050,-0.250
4033,-0.080,-0.170
4034,0.010,1.060
4035,0.200,4.000
4036,0.110,5.110
4037,-0.660,4.610
4038,-0.700,0.600
4039,-0.800,-0.960
4040,-0.540,-0.600
4041,-0.350,-0.230
4042,-0.080,-0.240
4043,-0.070,-0.270
4044,-0.060,-0.310
4045,-0.030,-0.330
4046,-0.030,-0.280
4047,-0.030,-0.290
4048,-0.010,-0.300
4049,-0.030,-0.280
4050,-0.020,-0.240
4051,-0.010,-0.250
4052,-0.010,-0.220
4053,-0.030,-0.210
4054,-0.010,-0.160
4055,-0.030,-0.180
4056,0.010,-0.130
4057,-0.020,-0.140
4058,-0.020,-0.090
4059,-0.020,-0.110
4060,-0.030,-0.050
4061,-0.020,-0.020
4062,-0.040,-0.030
4063,-0.040,0.040
4064,-0.050,0.020
4065,-0.060,0.000
4066,-0.080,-0.020
4067,-0.090,-0.010
4068,-0.080,-0.070
4069,-0.080,-0.070
4070,-0.090,-0.120
4071,-0.070,-0.070
4072,-0.050,-0.120
4073,-0.030,-0.040
4074,-0.010,-0.080
4075,0.000,-0.070
4076,0.010,-0.140
4077,0.000,-0.110
4078,0.030,-0.130
4079,0.000,-0.150
4080,0.030,-0.120
4081,0.020,-0.130
4082,0.020,-0.140
4083,0.000,-0.170
4084,0.020,-0.120
4085,0.010,-0.170
4086,0.010,-0.160
4087,0.000,-0.170
4088,0.020,-0.120
4089,0.000,-0.190
4090,0.010,-0.160
4091,-0.010,-0.180
4092,0.000,-0.200
4093,0.000,-0.190
4094,0.000,-0.170
4095,-0.010,-0.170
4096,0.000,-0.220
4097,0.000,-0.190
4098,-0.010,-0.210
4099,0.010,-0.190
4100,0.010,-0.260
4101,-0.010,-0.180
4102,0.000,-0.220
4103,-0.010,-0.220
4104,-0.010,-0.250
4105,-0.020,-0.180
4106,-0.010,-0.250
4107,-0.020,-0.240
4108,-0.020,-0.220
4109,-0.010,-0.190
4110,-0.020,-0.230
4111,-0.040,-0.220
4112,-0.020,-0.190
4113,0.020,-0.180
4114,0.070,-0.100
4115,0.020,-0.070
4116,0.110,-0.030
4117,0.130,0.140
4118,0.140,0.200
4119,0.110,0.160
4120,0.080,0.170
4121,0.010,0.000
4122,-0.020,0.040
4123,-0.030,-0.030
4124,-0.040,-0.150
4125,-0.050,-0.250
4126,-0.040,-0.250
4127,-0.070,-0.250
4128,-0.040,-0.290
4129,-0.070,-0.300
4130,-0.020,-0.140
4131,0.030,1.350
4132,0.340,4.540
4133,-0.210,5.110
4134,-0.750,4.000
4135,-0.720,-0.510
4136,-0.820,-0.780
4137,-0.530,-0.500
4138,-0.210,-0.290
4139,-0.050,-0.290
4140,-0.040,-0.320
4141,-0.030,-0.350
4142,-0.010,-0.330
4143,-0.020,-0.350
4144,-0.010,-0.310
4145,-0.020,-0.350
4146,-0.010,-0.260
4147,0.000,-0.290
4148,0.020,-0.250
4149,0.010,-0.260
4150,0.010,-0.200
4151,0.020,-0.220
4152,0.020,-0.170
4153,0.010,-0.150
4154,0.010,-0.120
4155,0.020,-0.100
4156,0.030,-0.050
4157,0.020,-0.010
4158,0.010,-0.010
4159,0.010,0.040
4160,-0.030,0.040
4161,-0.030,0.080
4162,-0.060,0.000
4163,-0.080,0.030
4164,-0.060,-0.030
4165,-0.080,-0.040
4166,-0.080,-0.100
4167,-0.090,-0.060
4168,-0.070,-0.100
4169,-0.050,-0.110
4170,-0.060,-0.090
4171,0.000,-0.090
4172,0.010,-0.110
4173,0.000,-0.190
4174,0.010,-0.120
4175,0.030,-0.170
4176,0.050,-0.160
4177,0.030,-0.180
4178,0.030,-0.150
4179,0.030,-0.190
4180,0.040,-0.170
4181,0.040,-0.170
4182,0.030,-0.160
4183,0.030,-0.190
4184,0.030,-0.160
4185,0.010,-0.160
4186,0.040,-0.170
4187,0.050,-0.170
4188,0.020,-0.190
4189,0.020,-0.170
4190,0.020,-0.240
4191,0.020,-0.170
4192,0.020,-0.220
4193,0.020,-0.210
4194,0.010,-0.250
4195,0.020,-0.180
4196,0.030,-0.220
4197,0.020,-0.220
4198,0.010,-0.200
4199,0.020,-0.200
4200,0.000,-0.220
4201,-0.010,-0.240
4202,0.020,-0.200
4203,0.010,-0.250
4204,0.010,-0.230
4205,0.010,-0.240
4206,0.010,-0.230
4207,0.010,-0.250
4208,-0.010,-0.240
4209,0.000,-0.240
4210,0.020,-0.230
4211,0.000,-0.290
4212,-0.010,-0.240
4213,0.000,-0.250
4214,0.020,-0.270
4215,0.020,-0.230
4216,0.060,-0.160
4217,0.070,-0.160
4218,0.090,-0.140
4219,0.080,-0.030
4220,0.140,0.090
4221,0.130,0.070
4222,0.040,0.040
4223,0.050,0.060
4224,-0.050,-0.130
4225,-0.070,-0.100
4226,-0.060,-0.100
4227,-0.010,-0.200
4228,-0.040,-0.350
4229,-0.040,-0.330
4230,-0.050,-0.300
4231,-0.040,-0.340
4232,-0.040,-0.460
4233,0.050,0.100
4234,0.070,1.940
4235,0.590,4.870
4236,-0.450,5.060
4237,-0.830,2.610
4238,-0.680,-1.250
4239,-0.780,-0.720
4240,-0.470,-0.330
4241,-0.060,-0.290
4242,-0.050,-0.350
4243,-0.050,-0.350
4244,-0.030,-0.350
4245,-0.030,-0.350
4246,-0.010,-0.360
4247,-0.010,-0.310
4248,0.000,-0.340
4249,0.000,-0.320
4250,-0.010,-0.320
4251,0.000,-0.270
4252,0.010,-0.300
4253,0.000,-0.260
4254,0.030,-0.250
4255,0.010,-0.200
4256,0.000,-0.230
4257,0.040,-0.150
4258,0.020,-0.140
4259,0.020,-0.120
4260,0.020,-0.090
4261,0.000,-0.050
4262,-0.010,-0.020
4263,-0.030,-0.050
4264,-0.060,0.010
4265,-0.050,-0.030
4266,-0.080,-0.040
4267,-0.090,-0.110
4268,-0.110,-0.080
4269,-0.100,-0.140
4270,-0.090,-0.120
4271,-0.090,-0.120
4272,-0.050,-0.070
4273,-0.030,-0.120
4274,0.000,-0.100
4275,0.000,-0.120
4276,0.030,-0.120
4277,0.030,-0.170
4278,0.040,-0.130
4279,0.060,-0.120
4280,0.060,-0.160
4281,0.050,-0.100
4282,0.040,-0.140
4283,0.030,-0.120
4284,0.010,-0.180
4285,0.040,-0.110
4286,0.040,-0.150
4287,0.050,-0.140
4288,0.050,-0.140
4289,0.050,-0.140
4290,0.040,-0.160
4291,0.050,-0.160
4292,0.020,-0.150
4293,0.050,-0.170
4294,0.060,-0.170
4295,0.040,-0.180
4296,0.040,-0.150
4297,0.040,-0.190
4298,0.040,-0.160
4299,0.040,-0.160
4300,0.050,-0.160
4301,0.020,-0.230
4302,-0.010,-0.150
4303,0.030,-0.200
4304,0.010,-0.190
4305,-0.010,-0.230
4306,0.000,-0.190
4307,0.000,-0.220
4308,-0.010,-0.220
4309,-0.010,-0.200
4310,-0.030,-0.200
4311,-0.010,-0.220
4312,-0.020,-0.230
4313,-0.030,-0.190
4314,-0.030,-0.240
4315,-0.010,-0.150
4316,0.040,-0.120
4317,0.010,-0.060
4318,0.050,-0.090
4319,0.030,0.070
4320,0.140,0.150
4321,0.050,0.100
4322,0.050,0.090
4323,-0.020,0.010
4324,-0.090,-0.060
4325,-0.060,-0.080
4326,-0.050,-0.120
4327,-0.050,-0.290
4328,-0.040,-0.300
4329,-0.050,-0.330
4330,-0.050,-0.250
4331,-0.060,-0.340
4332,-0.090,-0.380
4333,0.080,0.730
4334,0.150,3.290
4335,0.400,5.110
4336,-0.580,4.390
4337,-0.840,0.980
4338,-0.710,-1.190
4339,-0.570,-0.670
4340,-0.350,-0.290
4341,-0.040,-0.300
4342,-0.020,-0.370
4343,-0.010,-0.340
4344,-0.010,-0.360
4345,0.010,-0.320
4346,0.010,-0.360
4347,0.020,-0.280
4348,0.020,-0.320
4349,0.020,-0.290
4350,0.010,-0.320
4351,0.030,-0.220
4352,0.050,-0.270
4353,0.040,-0.220
4354,0.050,-0.200
4355,0.030,-0.150
4356,0.040,-0.160
4357,0.040,-0.120
4358,0.050,-0.060
4359,0.040,-0.070
4360,0.040,-0.040
4361,0.000,0.000
4362,0.020,0.050
4363,-0.020,-0.010
4364,-0.020,0.030
4365,-0.060,-0.010
4366,-0.070,-0.010
4367,-0.080,-0.070
4368,-0.100,-0.050
4369,-0.090,-0.080
4370,-0.060,-0.090
4371,-0.060,-0.070
4372,-0.020,-0.080
4373,-0.010,-0.070
4374,-0.020,-0.130
4375,0.000,-0.090
4376,0.010,-0.130
4377,0.030,-0.120
4378,0.030,-0.170
4379,0.050,-0.110
4380,0.040,-0.180
4381,0.010,-0.150
4382,0.000,-0.160
4383,0.010,-0.150
4384,0.010,-0.160
4385,0.010,-0.160
4386,0.010,-0.150
4387,0.010,-0.170
4388,0.010,-0.160
4389,-0.010,-0.170
4390,0.000,-0.140
4391,0.020,-0.210
4392,0.000,-0.140
4393,0.000,-0.180
4394,0.000,-0.140
4395,-0.010,-0.220
4396,0.000,-0.150
4397,0.000,-0.180
4398,0.000,-0.180
4399,-0.010,-0.170
4400,0.000,-0.180
4401,0.000,-0.210
4402,-0.010,-0.220
4403,-0.020,-0.160
4404,-0.010,-0.200
4405,0.000,-0.200
4406,-0.010,-0.210
4407,-0.030,-0.160
4408,-0.010,-0.230
4409,-0.030,-0.200
4410,-0.010,-0.190
4411,0.000,-0.160
4412,-0.010,-0.210
4413,-0.040,-0.180
4414,-0.010,-0.180
4415,-0.010,-0.200
4416,0.020,-0.120
4417,0.050,-0.090
4418,0.040,-0.030
4419,0.100,-0.060
4420,0.040,0.150
4421,0.150,0.150
4422,0.080,0.140
4423,0.070,0.120
4424,0.010,0.090
4425,-0.050,-0.030
4426,-0.060,-0.020
4427,-0.060,-0.080
4428,-0.030,-0.240
4429,-0.070,-0.270
4430,-0.060,-0.270
4431,-0.050,-0.220
4432,-0.060,-0.280
4433,-0.120,-0.300
4434,0.020,0.900
4435,0.100,3.610
4436,0.250,5.110
4437,-0.640,4.810
4438,-0.740,1.200
4439,-0.700,-1.090
4440,-0.550,-0.660
4441,-0.400,-0.250
4442,-0.060,-0.250
4443,-0.090,-0.310
4444,-0.060,-0.340
4445,-0.060,-0.310
4446,-0.010,-0.290
4447,-0.050,-0.360
4448,-0.040,-0.280
4449,-0.020,-0.280
4450,-0.010,-0.260
4451,-0.030,-0.300
4452,-0.020,-0.210
4453,0.000,-0.230
4454,-0.030,-0.200
4455,-0.020,-0.190
4456,-0.020,-0.130
4457,0.000,-0.160
4458,-0.020,-0.120
4459,0.000,-0.060
4460,0.000,-0.080
4461,-0.020,-0.040
4462,-0.040,-0.040
4463,-0.040,0.020
4464,-0.020,-0.020
4465,-0.040,0.020
4466,-0.060,-0.030
4467,-0.080,-0.030
4468,-0.080,-0.100
4469,-0.090,-0.080
4470,-0.080,-0.100
4471,-0.040,-0.120
4472,-0.030,-0.120
4473,-0.020,-0.110
4474,-0.010,-0.120
4475,0.000,-0.140
4476,0.010,-0.110
4477,0.010,-0.160
4478,0.030,-0.170
4479,0.000,-0.200
4480,0.020,-0.140
4481,0.040,-0.210
4482,0.010,-0.160
4483,0.010,-0.180
4484,0.030,-0.150
4485,0.020,-0.200
4486,0.040,-0.170
4487,0.010,-0.180
4488,0.030,-0.190
4489,0.020,-0.170
4490,0.010,-0.160
4491,0.020,-0.150
4492,0.000,-0.210
4493,0.020,-0.160
4494,0.000,-0.200
4495,0.020,-0.180
4496,0.000,-0.240
4497,0.000,-0.170
4498,0.020,-0.190
4499,0.020,-0.200
4500,0.030,-0.210
4501,0.000,-0.200
4502,0.010,-0.210
4503,0.000,-0.260
4504,0.010,-0.190
4505,0.010,-0.240
4506,0.020,-0.230
4507,0.000,-0.270
4508,0.010,-0.200
4509,0.020,-0.270
4510,0.020,-0.250
4511,0.000,-0.250
4512,0.000,-0.240
4513,0.010,-0.240
4514,0.040,-0.180
4515,0.080,-0.120
4516,0.050,-0.120
4517,0.120,-0.110
4518,0.140,0.110
4519,0.170,0.140
4520,0.090,0.050
4521,0.090,0.110
4522,0.020,-0.050
4523,-0.030,-0.030
4524,-0.030,-0.130
4525,-0.050,-0.190
4526,-0.030,-0.300
4527,-0.050,-0.320
4528,-0.060,-0.300
4529,-0.060,-0.280
4530,-0.080,-0.380
4531,-0.060,-0.250
4532,0.020,1.140
4533,0.250,4.210
4534,-0.020,5.110
4535,-0.700,4.330
4536,-0.780,0.120
4537,-0.830,-0.980
4538,-0.540,-0.610
4539,-0.280,-0.270
4540,-0.040,-0.310
4541,-0.060,-0.370
4542,-0.020,-0.330
4543,-0.020,-0.340
4544,0.000,-0.350
4545,0.010,-0.350
4546,0.000,-0.350
4547,0.000,-0.340
4548,0.020,-0.350
4549,0.010,-0.290
4550,0.050,-0.300
4551,0.040,-0.240
4552,0.040,-0.280
4553,0.060,-0.190
4554,0.060,-0.220
4555,0.070,-0.190
4556,0.050,-0.150
4557,0.070,-0.110
4558,0.070,-0.120
4559,0.060,-0.080
4560,0.040,-0.020
4561,0.040,-0.050
4562,0.020,-0.020
4563,-0.020,0.000
4564,0.000,-0.010
4565,-0.030,-0.100
4566,-0.040,-0.100
4567,-0.070,-0.110
4568,-0.030,-0.110
4569,-0.050,-0.170
4570,-0.010,-0.100
4571,-0.010,-0.120
4572,0.010,-0.140
4573,0.020,-0.120
4574,0.040,-0.150
4575,0.040,-0.160
4576,0.040,-0.210
4577,0.040,-0.150
4578,0.040,-0.190
4579,0.050,-0.160
4580,0.050,-0.200
4581,0.050,-0.150
4582,0.070,-0.230
4583,0.050,-0.210
4584,0.050,-0.210
4585,0.070,-0.180
4586,0.060,-0.210
4587,0.050,-0.220
4588,0.060,-0.200
4589,0.070,-0.240
4590,0.070,-0.210
4591,0.050,-0.230
4592,0.070,-0.200
4593,0.050,-0.250
4594,0.050,-0.190
4595,0.060,-0.220
4596,0.070,-0.210
4597,0.040,-0.270
4598,0.050,-0.210
4599,0.050,-0.270
4600,0.050,-0.260
4601,0.030,-0.260
4602,0.050,-0.250
4603,0.060,-0.270
4604,0.050,-0.300
4605,0.050,-0.270
4606,0.040,-0.290
4607,0.060,-0.280
4608,0.050,-0.290
4609,0.050,-0.260
4610,0.070,-0.320
4611,0.050,-0.270
4612,0.050,-0.310
4613,0.040,-0.280
4614,0.050,-0.330
4615,0.060,-0.280
4616,0.050,-0.300
4617,0.050,-0.280
4618,0.100,-0.180
4619,0.110,-0.180
4620,0.130,-0.140
4621,0.130,-0.140
4622,0.180,0.120
4623,0.170,0.040
4624,0.110,0.030
4625,0.080,0.000
4626,-0.010,-0.090
4627,-0.040,-0.120
4628,0.010,-0.130
4629,-0.010,-0.280
4630,0.000,-0.340
4631,-0.010,-0.380
4632,-0.010,-0.350
4633,-0.010,-0.340
4634,-0.030,-0.530
4635,0.090,0.090
4636,0.080,1.880
4637,0.600,4.870
4638,-0.400,5.070
4639,-0.800,2.940
4640,-0.690,-1.150
4641,-0.830,-0.790
4642,-0.470,-0.510
4643,-0.110,-0.310
4644,-0.030,-0.390
4645,-0.020,-0.420
4646,-0.020,-0.410
4647,0.010,-0.390
4648,0.020,-0.380
4649,0.020,-0.420
4650,0.030,-0.350
4651,0.010,-0.370
4652,0.020,-0.340
4653,0.020,-0.330
4654,0.050,-0.270
4655,0.050,-0.300
4656,0.040,-0.270
4657,0.040,-0.250
4658,0.050,-0.200
4659,0.030,-0.210
4660,0.030,-0.160
4661,0.040,-0.120
4662,0.030,-0.120
4663,0.020,-0.090
4664,0.000,-0.070
4665,-0.020,-0.040
4666,-0.020,-0.080
4667,-0.060,-0.040
4668,-0.080,-0.120
4669,-0.060,-0.110
4670,-0.080,-0.190
4671,-0.090,-0.140
4672,-0.080,-0.170
4673,-0.060,-0.170
4674,-0.030,-0.160
4675,-0.020,-0.150
4676,0.000,-0.160
4677,0.040,-0.190
4678,0.050,-0.160
4679,0.040,-0.190
4680,0.070,-0.180
4681,0.080,-0.190
4682,0.080,-0.160
4683,0.070,-0.220
4684,0.070,-0.170
4685,0.050,-0.180
4686,0.080,-0.170
4687,0.080,-0.210
4688,0.070,-0.180
4689,0.080,-0.180
4690,0.060,-0.200
4691,0.060,-0.200
4692,0.050,-0.180
4693,0.090,-0.170
4694,0.070,-0.220
4695,0.060,-0.170
4696,0.070,-0.220
4697,0.070,-0.210
4698,0.070,-0.250
4699,0.070,-0.180
4700,0.050,-0.240
4701,0.070,-0.220
4702,0.060,-0.220
4703,0.070,-0.210
4704,0.060,-0.240
4705,0.070,-0.250
4706,0.060,-0.230
4707,0.040,-0.270
4708,0.050,-0.250
4709,0.050,-0.250
4710,0.040,-0.230
4711,0.040,-0.280
4712,0.040,-0.280
4713,0.040,-0.280
4714,0.050,-0.270
4715,0.040,-0.300
4716,0.050,-0.280
4717,0.050,-0.270
4718,0.060,-0.260
4719,0.110,-0.170
4720,0.100,-0.170
4721,0.140,-0.100
4722,0.110,-0.110
4723,0.200,0.150
4724,0.180,0.050
4725,0.140,0.090
4726,0.090,-0.020
4727,0.020,-0.070
4728,-0.020,-0.110
4729,0.010,-0.130
4730,0.020,-0.280
4731,0.020,-0.330
4732,0.030,-0.340
4733,0.020,-0.360
4734,0.020,-0.320
4735,-0.010,-0.470
4736,0.120,0.240
4737,0.070,2.030
4738,0.600,4.910
4739,-0.410,4.960
4740,-0.750,2.710
4741,-0.630,-1.240
4742,-0.780,-0.760
4743,-0.470,-0.450
4744,-0.080,-0.310
4745,-0.030,-0.350
4746,-0.050,-0.380
4747,-0.030,-0.370
4748,0.000,-0.380
4749,0.010,-0.340
4750,0.010,-0.390
4751,0.000,-0.290
4752,0.000,-0.340
4753,0.010,-0.300
4754,0.010,-0.340
4755,0.010,-0.270
4756,0.020,-0.280
4757,0.010,-0.280
4758,0.010,-0.210
4759,0.060,-0.210
4760,0.020,-0.180
4761,0.040,-0.170
4762,0.020,-0.100
4763,0.000,-0.110
4764,0.030,-0.060
4765,0.000,-0.030
4766,-0.010,-0.010
4767,-0.040,-0.050
4768,-0.060,-0.020
4769,-0.100,-0.060
4770,-0.090,-0.080
4771,-0.090,-0.130
4772,-0.100,-0.120
4773,-0.090,-0.110
4774,-0.070,-0.170
4775,-0.050,-0.110
4776,-0.050,-0.140
4777,-0.010,-0.110
4778,0.020,-0.170
4779,0.030,-0.110
4780,0.060,-0.170
4781,0.030,-0.160
4782,0.050,-0.210
4783,0.040,-0.160
4784,0.060,-0.210
4785,0.050,-0.200
4786,0.050,-0.190
4787,0.050,-0.230
4788,0.040,-0.240
4789,0.040,-0.250
4790,0.060,-0.190
4791,0.040,-0.220
4792,0.060,-0.230
4793,0.050,-0.240
4794,0.050,-0.210
4795,0.020,-0.270
4796,0.050,-0.230
4797,0.040,-0.230
4798,0.050,-0.230
4799,0.040,-0.270
4800,0.030,-0.220
4801,0.050,-0.240
4802,0.050,-0.270
4803,0.030,-0.230
4804,0.060,-0.250
4805,0.050,-0.260
4806,0.050,-0.290
4807,0.030,-0.230
4808,0.040,-0.290
4809,0.010,-0.270
4810,0.040,-0.270
4811,0.030,-0.250
4812,0.050,-0.270
4813,0.050,-0.270
4814,0.030,-0.250
4815,0.050,-0.250
4816,0.050,-0.260
4817,0.040,-0.260
4818,0.050,-0.220
4819,0.040,-0.280
4820,0.090,-0.180
4821,0.110,-0.170
4822,0.090,-0.090
4823,0.130,-0.110
4824,0.110,0.080
4825,0.210,0.140
4826,0.140,0.060
4827,0.110,0.100
4828,0.030,0.000
4829,-0.010,-0.020
4830,-0.010,-0.090
4831,-0.030,-0.110
4832,-0.010,-0.270
4833,-0.020,-0.270
4834,-0.040,-0.320
4835,-0.040,-0.250
4836,-0.020,-0.300
4837,-0.090,-0.290
4838,0.050,0.960
4839,0.160,3.570
4840,0.310,5.110
4841,-0.580,4.860
4842,-0.700,1.460
4843,-0.690,-1.190
4844,-0.510,-0.670
4845,-0.370,-0.320
4846,-0.030,-0.270
4847,-0.040,-0.370
4848,-0.020,-0.370
4849,-0.010,-0.380
4850,0.020,-0.330
4851,0.010,-0.370
4852,0.030,-0.330
4853,0.000,-0.320
4854,0.050,-0.310
4855,0.010,-0.310
4856,0.040,-0.290
4857,0.040,-0.260
4858,0.020,-0.280
4859,0.040,-0.210
4860,0.040,-0.230
4861,0.040,-0.170
4862,0.030,-0.210
4863,0.030,-0.120
4864,0.010,-0.110
4865,0.010,-0.100
4866,0.010,-0.080
4867,0.000,-0.030
4868,-0.020,-0.040
4869,-0.010,-0.060
4870,-0.050,-0.030
4871,-0.050,-0.090
4872,-0.060,-0.110
4873,-0.070,-0.160
4874,-0.090,-0.120
4875,-0.070,-0.180
4876,-0.050,-0.140
4877,-0.030,-0.140
4878,-0.020,-0.100
4879,0.010,-0.160
4880,0.010,-0.140
4881,0.020,-0.150
4882,0.020,-0.160
4883,0.020,-0.200
4884,0.050,-0.160
4885,0.040,-0.180
4886,0.060,-0.210
4887,0.050,-0.170
4888,0.060,-0.200
4889,0.060,-0.170
4890,0.050,-0.220
4891,0.050,-0.160
4892,0.050,-0.200
4893,0.050,-0.200
4894,0.030,-0.190
4895,0.040,-0.170
4896,0.050,-0.200
4897,0.050,-0.220
4898,0.040,-0.190
4899,0.040,-0.210
4900,0.050,-0.210
4901,0.020,-0.210
4902,0.020,-0.190
4903,0.030,-0.230
4904,0.030,-0.210
4905,0.020,-0.230
4906,0.030,-0.190
4907,0.010,-0.250
4908,0.020,-0.190
4909,0.010,-0.230
4910,0.030,-0.210
4911,-0.020,-0.240
4912,0.020,-0.200
4913,0.020,-0.220
4914,0.010,-0.240
4915,0.000,-0.200
4916,-0.010,-0.230
4917,-0.010,-0.210
4918,0.000,-0.200
4919,0.060,-0.090
4920,0.040,-0.120
4921,0.090,-0.070
4922,0.060,0.030
4923,0.180,0.220
4924,0.120,0.090
4925,0.100,0.140
4926,0.060,0.060
4927,-0.020,-0.010
4928,-0.040,-0.050
4929,-0.030,-0.080
4930,-0.010,-0.250
4931,-0.020,-0.290
4932,-0.030,-0.290
4933,-0.050,-0.290
4934,-0.030,-0.270
4935,-0.060,-0.460
4936,0.080,0.520
4937,0.120,2.780
4938,0.500,5.110
4939,-0.530,4.950
4940,-0.810,2.040
4941,-0.650,-1.340
4942,-0.630,-0.700
4943,-0.450,-0.290
4944,-0.040,-0.280
4945,-0.040,-0.300
4946,-0.020,-0.340
4947,-0.020,-0.300
4948,0.000,-0.330
4949,0.000,-0.300
4950,0.000,-0.300
4951,0.010,-0.260
4952,0.010,-0.310
4953,0.010,-0.270
4954,0.000,-0.250
4955,0.020,-0.240
4956,0.010,-0.240
4957,0.010,-0.190
4958,0.040,-0.160
4959,0.050,-0.170
4960,0.040,-0.120
4961,0.040,-0.090
4962,0.050,-0.050
4963,0.050,-0.050
4964,0.030,0.030
4965,0.030,0.030
4966,0.020,0.050
4967,-0.020,0.040
4968,-0.020,0.060
4969,-0.040,0.000
4970,-0.030,-0.030
4971,-0.070,-0.050
4972,-0.060,-0.070
4973,-0.050,-0.090
4974,-0.040,-0.090
4975,-0.010,-0.040
4976,0.000,-0.090
4977,0.030,-0.090
4978,0.030,-0.120
4979,0.040,-0.080
4980,0.050,-0.160
4981,0.080,-0.110
4982,0.070,-0.140
4983,0.070,-0.140
4984,0.080,-0.180
4985,0.070,-0.130
4986,0.080,-0.140
4987,0.070,-0.180
4988,0.020,-0.060
4989,-0.050,-0.160
4990,-0.100,-0.190
4991,-0.220,1.280
4992,-0.320,2.600
4993,-0.280,2.080
4994,0.180,0.030
4995,0.820,-2.150
4996,1.290,-2.680
4997,2.370,-2.340
4998,2.060,-1.740
4999,1.450,-1.010
5000,1.200,-0.360
5001,1.510,-0.500
5002,1.980,-0.940
5003,1.470,-1.180
5004,1.020,-0.980
5005,0.400,-0.550
5006,0.340,0.000
5007,-0.010,0.320
5008,-0.110,0.360
5009,-0.130,0.500
5010,-0.180,0.550
5011,-0.210,0.650
5012,-0.230,0.710
5013,-0.260,0.820
5014,-0.270,0.930
5015,-0.300,1.010
5016,-0.330,1.150
5017,-0.350,1.260
5018,-0.390,1.450
5019,-0.420,1.610
5020,-0.450,1.900
5021,-0.540,2.140
5022,-0.550,2.410
5023,-0.600,2.780
5024,-0.630,3.070
5025,-0.770,3.160
5026,-0.790,3.300
5027,-0.850,3.270
5028,-0.860,3.070
5029,-0.790,2.810
5030,-0.720,2.390
5031,-0.600,1.810
5032,-0.510,1.250
5033,-0.410,0.860
5034,-0.310,0.490
5035,-0.220,0.260
5036,-0.150,0.000
5037,-0.100,-0.070
5038,-0.050,-0.180
5039,-0.040,-0.230
5040,-0.040,-0.280
5041,-0.020,-0.260
5042,-0.020,-0.270
5043,-0.030,-0.290
5044,-0.010,-0.230
5045,-0.020,-0.230
5046,-0.030,-0.220
5047,-0.070,0.260
5048,0.090,1.930
5049,0.610,4.680
5050,-0.020,4.930
5051,-0.650,3.060
5052,-0.470,-0.840
5053,-0.830,-0.750
5054,-0.220,-0.380
5055,-0.070,-0.220
5056,-0.010,-0.330
5057,-0.020,-0.340
5058,-0.040,-0.360
5059,0.010,-0.300
5060,-0.010,-0.370
5061,0.000,-0.340
5062,-0.010,-0.350
5063,-0.010,-0.300
5064,0.000,-0.370
5065,-0.020,-0.330
5066,-0.010,-0.340
5067,0.000,-0.320
5068,0.000,-0.330
5069,-0.010,-0.300
5070,0.030,-0.310
5071,0.000,-0.340
5072,0.010,-0.340
5073,0.020,-0.370
5074,0.030,-0.390
5075,0.030,-0.470
5076,0.010,-0.450
5077,0.010,-0.540
5078,0.030,-0.560
5079,0.000,-0.600
5080,0.000,-0.540
5081,-0.010,-0.530
5082,-0.020,-0.460
5083,-0.030,-0.350
5084,-0.010,-0.310
5085,-0.010,-0.260
5086,-0.010,-0.270
5087,0.010,-0.220
5088,0.010,-0.280
5089,0.030,-0.270
5090,0.010,-0.270
5091,0.030,-0.250
5092,0.030,-0.300
5093,-0.010,-0.250
5094,0.010,-0.260
5095,0.020,-0.250
5096,0.010,-0.270
5097,-0.020,-0.230
5098,0.010,-0.240
5099,-0.010,-0.250
5100,0.010,-0.230
5101,-0.010,-0.250
5102,0.020,-0.220
5103,0.010,-0.300
5104,0.000,-0.230
5105,0.010,-0.280
5106,0.010,-0.270
5107,0.010,-0.320
5108,0.010,-0.260
5109,0.030,-0.310
5110,0.010,-0.320
5111,0.000,-0.300
5112,-0.010,-0.320
5113,0.010,-0.290
5114,0.000,-0.320
5115,-0.010,-0.270
5116,0.020,-0.280
5117,0.050,-0.190
5118,0.020,-0.180
5119,0.050,-0.150
5120,0.140,0.020
5121,0.130,0.080
5122,0.100,0.050
5123,0.060,0.000
5124,0.000,-0.110
5125,-0.030,-0.080
5126,-0.060,-0.150
5127,-0.020,-0.320
5128,-0.020,-0.350
5129,-0.030,-0.390
5130,-0.040,-0.360
5131,-0.060,-0.410
5132,-0.050,-0.430
5133,-0.090,-0.430
5134,0.000,0.810
5135,0.170,3.650
5136,0.050,5.110
5137,-0.560,3.940
5138,-0.470,-0.070
5139,-0.720,-0.950
5140,-0.500,-0.720
5141,-0.280,-0.360
5142,-0.070,-0.400
5143,-0.070,-0.410
5144,-0.060,-0.500
5145,-0.050,-0.450
5146,-0.040,-0.470
5147,-0.020,-0.420
5148,-0.030,-0.480
5149,-0.040,-0.410
5150,-0.010,-0.440
5151,-0.040,-0.400
5152,-0.020,-0.410
5153,0.000,-0.380
5154,0.010,-0.350
5155,0.000,-0.360
5156,0.000,-0.290
5157,-0.010,-0.310
5158,-0.020,-0.300
5159,-0.040,-0.320
5160,-0.030,-0.260
5161,-0.060,-0.330
5162,-0.070,-0.300
5163,-0.110,-0.350
5164,-0.110,-0.350
5165,-0.100,-0.440
5166,-0.110,-0.470
5167,-0.140,-0.520
5168,-0.130,-0.540
5169,-0.150,-0.540
5170,-0.130,-0.520
5171,-0.150,-0.420
5172,-0.110,-0.400
5173,-0.090,-0.320
5174,-0.070,-0.280
5175,-0.050,-0.240
5176,-0.060,-0.270
5177,-0.040,-0.170
5178,-0.010,-0.230
5179,-0.020,-0.210
5180,-0.010,-0.230
5181,-0.030,-0.190
5182,-0.010,-0.220
5183,-0.010,-0.250
5184,-0.030,-0.220
5185,-0.040,-0.220
5186,0.000,-0.230
5187,-0.020,-0.230
5188,-0.010,-0.200
5189,0.000,-0.240
5190,-0.030,-0.250
5191,-0.020,-0.270
5192,0.000,-0.220
5193,-0.010,-0.280
5194,-0.010,-0.230
5195,-0.030,-0.270
5196,-0.020,-0.250
5197,-0.020,-0.300
5198,0.000,-0.250
5199,-0.010,-0.270
5200,-0.010,-0.310
5201,0.000,-0.270
5202,-0.020,-0.290
5203,-0.040,-0.300
5204,-0.030,-0.340
5205,-0.040,-0.260
5206,-0.030,-0.310
5207,-0.050,-0.300
5208,-0.060,-0.310
5209,-0.030,-0.260
5210,-0.040,-0.310
5211,-0.030,-0.240
5212,0.000,-0.190
5213,0.020,-0.150
5214,0.060,-0.210
5215,0.070,0.000
5216,0.130,0.090
5217,0.090,0.030
5218,0.090,0.030
5219,0.030,-0.060
5220,-0.020,-0.100
5221,-0.050,-0.170
5222,-0.040,-0.210
5223,-0.070,-0.360
5224,-0.070,-0.350
5225,-0.070,-0.390
5226,-0.070,-0.320
5227,-0.090,-0.420
5228,-0.130,-0.310
5229,-0.040,0.990
5230,0.080,3.730
5231,0.090,5.110
5232,-0.700,4.520
5233,-0.650,0.710
5234,-0.750,-1.110
5235,-0.530,-0.730
5236,-0.390,-0.340
5237,-0.080,-0.350
5238,-0.110,-0.430
5239,-0.100,-0.390
5240,-0.040,-0.430
5241,-0.060,-0.420
5242,-0.070,-0.440
5243,-0.030,-0.360
5244,-0.020,-0.410
5245,-0.020,-0.380
5246,-0.020,-0.370
5247,-0.010,-0.330
5248,0.000,-0.350
5249,-0.010,-0.360
5250,0.000,-0.300
5251,-0.010,-0.320
5252,0.010,-0.270
5253,0.010,-0.270
5254,-0.010,-0.220
5255,-0.020,-0.260
5256,0.000,-0.210
5257,-0.030,-0.230
5258,-0.030,-0.220
5259,-0.040,-0.300
5260,-0.050,-0.270
5261,-0.070,-0.350
5262,-0.060,-0.390
5263,-0.070,-0.430
5264,-0.070,-0.400
5265,-0.070,-0.390
5266,-0.060,-0.370
5267,-0.040,-0.260
5268,-0.030,-0.240
5269,-0.020,-0.210
5270,0.010,-0.230
5271,0.020,-0.170
5272,0.020,-0.240
5273,0.050,-0.210
5274,0.040,-0.230
5275,0.040,-0.210
5276,0.040,-0.260
5277,0.060,-0.220
5278,0.040,-0.220
5279,0.050,-0.230
5280,0.050,-0.250
5281,0.050,-0.230
5282,0.060,-0.220
5283,0.060,-0.260
5284,0.060,-0.240
5285,0.060,-0.250
5286,0.080,-0.250
5287,0.050,-0.300
5288,0.070,-0.220
5289,0.070,-0.260
5290,0.050,-0.240
5291,0.050,-0.280
5292,0.050,-0.250
5293,0.050,-0.310
5294,0.040,-0.290
5295,0.040,-0.280
5296,0.040,-0.270
5297,0.040,-0.310
5298,0.030,-0.300
5299,0.020,-0.270
5300,0.040,-0.310
5301,0.040,-0.280
5302,0.020,-0.310
5303,0.020,-0.270
5304,0.010,-0.310
5305,0.040,-0.240
5306,0.040,-0.240
5307,0.090,-0.170
5308,0.090,-0.180
5309,0.090,-0.110
5310,0.100,-0.050
5311,0.210,0.110
5312,0.170,0.060
5313,0.150,0.100
5314,0.110,-0.030
5315,0.020,-0.110
5316,0.010,-0.060
5317,0.000,-0.160
5318,0.020,-0.330
5319,0.010,-0.350
5320,0.000,-0.330
5321,-0.020,-0.370
5322,0.000,-0.340
5323,-0.050,-0.500
5324,0.120,0.380
5325,0.130,2.470
5326,0.520,5.110
5327,-0.520,4.940
5328,-0.770,2.000
5329,-0.650,-1.360
5330,-0.610,-0.720
5331,-0.410,-0.350
5332,-0.030,-0.390
5333,-0.020,-0.350
5334,-0.020,-0.420
5335,0.010,-0.380
5336,0.010,-0.400
5337,0.010,-0.350
5338,0.030,-0.390
5339,0.050,-0.380
5340,0.040,-0.340
5341,0.050,-0.340
5342,0.050,-0.350
5343,0.060,-0.300
5344,0.050,-0.280
5345,0.070,-0.280
5346,0.090,-0.260
5347,0.080,-0.230
5348,0.070,-0.180
5349,0.070,-0.210
5350,0.060,-0.130
5351,0.050,-0.120
5352,0.060,-0.100
5353,0.030,-0.120
5354,0.040,-0.080
5355,0.000,-0.140
5356,-0.010,-0.150
5357,-0.040,-0.170
5358,-0.040,-0.220
5359,-0.040,-0.230
5360,-0.050,-0.250
5361,-0.040,-0.210
5362,-0.030,-0.220
5363,0.010,-0.180
5364,0.000,-0.160
5365,0.030,-0.140
5366,0.050,-0.220
5367,0.060,-0.180
5368,0.070,-0.200
5369,0.090,-0.180
5370,0.080,-0.220
5371,0.070,-0.170
5372,0.100,-0.190
5373,0.070,-0.210
5374,0.080,-0.190
5375,0.050,-0.210
5376,0.070,-0.200
5377,0.080,-0.240
5378,0.080,-0.190
5379,0.070,-0.240
5380,0.070,-0.220
5381,0.060,-0.260
5382,0.070,-0.210
5383,0.060,-0.270
5384,0.080,-0.240
5385,0.060,-0.230
5386,0.060,-0.230
5387,0.080,-0.270
5388,0.050,-0.250
5389,0.060,-0.240
5390,0.060,-0.260
5391,0.060,-0.250
5392,0.060,-0.280
5393,0.100,-0.250
5394,0.070,-0.310
5395,0.070,-0.260
5396,0.070,-0.300
5397,0.080,-0.290
5398,0.080,-0.320
5399,0.070,-0.270
5400,0.070,-0.310
5401,0.070,-0.310
5402,0.060,-0.290
5403,0.080,-0.280
5404,0.100,-0.260
5405,0.130,-0.200
5406,0.120,-0.170
5407,0.140,-0.180
5408,0.150,-0.040
5409,0.240,0.080
5410,0.200,0.040
5411,0.150,0.020
5412,0.130,-0.050
5413,0.030,-0.140
5414,0.020,-0.130
5415,0.010,-0.220
5416,0.030,-0.320
5417,0.030,-0.350
5418,-0.010,-0.370
5419,0.010,-0.340
5420,0.000,-0.350
5421,-0.020,-0.500
5422,0.120,0.420
5423,0.110,2.680
5424,0.610,5.110
5425,-0.520,4.640
5426,-0.830,1.740
5427,-0.640,-1.350
5428,-0.690,-0.730
5429,-0.410,-0.350
5430,-0.040,-0.350
5431,-0.030,-0.370
5432,-0.010,-0.410
5433,0.000,-0.380
5434,0.030,-0.370
5435,0.030,-0.390
5436,0.040,-0.370
5437,0.020,-0.350
5438,0.050,-0.310
5439,0.030,-0.360
5440,0.050,-0.270
5441,0.050,-0.300
5442,0.060,-0.260
5443,0.060,-0.270
5444,0.060,-0.200
5445,0.070,-0.220
5446,0.070,-0.190
5447,0.040,-0.160
5448,0.060,-0.110
5449,0.060,-0.100
5450,0.030,-0.100
5451,0.030,-0.040
5452,0.020,-0.070
5453,-0.010,-0.080
5454,-0.040,-0.090
5455,-0.020,-0.080
5456,-0.060,-0.180
5457,-0.040,-0.150
5458,-0.060,-0.180
5459,-0.040,-0.150
5460,-0.010,-0.170
5461,0.000,-0.100
5462,0.020,-0.130
5463,0.050,-0.130
5464,0.070,-0.130
5465,0.070,-0.150
5466,0.090,-0.170
5467,0.060,-0.190
5468,0.070,-0.150
5469,0.080,-0.200
5470,0.050,-0.190
5471,0.070,-0.190
5472,0.080,-0.150
5473,0.070,-0.210
5474,0.060,-0.180
5475,0.040,-0.180
5476,0.060,-0.190
5477,0.060,-0.240
5478,0.040,-0.180
5479,0.060,-0.190
5480,0.060,-0.200
5481,0.040,-0.210
5482,0.050,-0.190
5483,0.040,-0.200
5484,0.050,-0.240
5485,0.030,-0.180
5486,0.030,-0.230
5487,0.040,-0.200
5488,0.050,-0.230
5489,0.050,-0.180
5490,0.030,-0.250
5491,0.030,-0.220
5492,0.020,-0.230
5493,0.030,-0.200
5494,0.020,-0.260
5495,0.010,-0.230
5496,0.030,-0.230
5497,0.030,-0.270
5498,0.030,-0.270
5499,0.020,-0.240
5500,0.050,-0.230
5501,0.050,-0.220
5502,0.120,-0.110
5503,0.060,-0.120
5504,0.150,-0.090
5505,0.130,0.040
5506,0.210,0.180
5507,0.150,0.100
5508,0.130,0.110
5509,0.050,-0.020
5510,0.000,-0.010
5511,-0.010,-0.080
5512,-0.010,-0.130
5513,-0.020,-0.270
5514,-0.010,-0.280
5515,-0.020,-0.280
5516,-0.020,-0.260
5517,-0.010,-0.310
5518,-0.010,-0.200
5519,0.110,1.170
5520,0.300,4.110
5521,0.080,5.110
5522,-0.650,3.730
5523,-0.710,-0.340
5524,-0.790,-0.850
5525,-0.470,-0.500
5526,-0.190,-0.270
5527,-0.010,-0.280
5528,-0.020,-0.360
5529,0.000,-0.340
5530,0.020,-0.340
5531,0.020,-0.330
5532,0.030,-0.330
5533,0.000,-0.300
5534,0.010,-0.270
5535,0.040,-0.290
5536,0.050,-0.240
5537,0.020,-0.240
5538,0.040,-0.190
5539,0.040,-0.210
5540,0.030,-0.140
5541,0.040,-0.140
5542,0.020,-0.110
5543,0.010,-0.120
5544,0.010,-0.030
5545,-0.010,-0.050
5546,-0.020,-0.030
5547,-0.020,0.000
5548,-0.040,0.010
5549,-0.060,0.000
5550,-0.080,-0.020
5551,-0.100,0.000
5552,-0.120,-0.080
5553,-0.090,-0.080
5554,-0.120,-0.090
5555,-0.100,-0.040
5556,-0.080,-0.120
5557,-0.070,-0.060
5558,-0.030,-0.070
5559,-0.020,-0.040
5560,0.000,-0.110
5561,0.010,-0.080
5562,0.040,-0.120
5563,0.020,-0.140
5564,0.050,-0.120
5565,0.020,-0.130
5566,0.050,-0.150
5567,0.020,-0.160
5568,0.020,-0.120
5569,0.020,-0.170
5570,0.040,-0.170
5571,0.020,-0.180
5572,0.050,-0.150
5573,0.000,-0.220
5574,0.030,-0.170
5575,0.000,-0.190
5576,0.030,-0.150
5577,0.010,-0.200
5578,0.000,-0.160
5579,0.020,-0.150
5580,0.000,-0.190
5581,0.020,-0.170
5582,0.020,-0.180
5583,0.010,-0.190
5584,0.000,-0.240
5585,0.000,-0.150
5586,0.010,-0.220
5587,0.000,-0.180
5588,-0.010,-0.220
5589,0.010,-0.160
5590,-0.010,-0.230
5591,0.000,-0.200
5592,0.000,-0.210
5593,-0.010,-0.180
5594,0.000,-0.200
5595,0.000,-0.190
5596,0.000,-0.190
5597,0.010,-0.160
5598,0.040,-0.130
5599,0.070,-0.090
5600,0.070,-0.010
5601,0.120,-0.050
5602,0.110,0.200
5603,0.170,0.160
5604,0.100,0.150
5605,0.080,0.100
5606,0.020,0.070
5607,-0.020,0.000
5608,-0.020,-0.030
5609,-0.040,-0.110
5610,-0.020,-0.230
5611,-0.030,-0.260
5612,-0.060,-0.270
5613,-0.050,-0.220
5614,-0.050,-0.310
5615,-0.050,-0.110
5616,0.020,1.340
5617,0.210,4.440
5618,-0.070,5.110
5619,-0.740,4.260
5620,-0.720,-0.090
5621,-0.790,-0.780
5622,-0.530,-0.570
5623,-0.310,-0.210
5624,-0.050,-0.280
5625,-0.080,-0.290
5626,-0.060,-0.340
5627,-0.050,-0.310
5628,-0.010,-0.330
5629,-0.020,-0.300
5630,-0.030,-0.270
5631,0.010,-0.280
5632,0.000,-0.250
5633,-0.010,-0.300
5634,0.000,-0.190
5635,0.000,-0.250
5636,0.020,-0.220
5637,-0.010,-0.190
5638,0.010,-0.130
5639,0.010,-0.190
5640,0.010,-0.100
5641,0.020,-0.080
5642,0.020,-0.050
5643,0.010,-0.120
5644,-0.020,0.030
5645,0.000,0.020
5646,0.000,-0.010
5647,-0.030,-0.020
5648,-0.060,-0.180
5649,-0.050,-0.030
5650,-0.070,-0.140
5651,-0.070,-0.100
5652,-0.060,-0.110
5653,-0.040,-0.100
5654,-0.020,-0.140
5655,-0.010,-0.070
5656,-0.010,-0.120
5657,0.030,-0.150
5658,0.020,-0.130
5659,0.030,-0.120
5660,0.050,-0.140
5661,0.030,-0.170
5662,0.040,-0.120
5663,0.040,-0.150
5664,0.030,-0.140
5665,0.000,-0.180
5666,0.040,-0.130
5667,0.040,-0.170
5668,0.020,-0.120
5669,0.020,-0.150
5670,0.030,-0.140
5671,0.010,-0.180
5672,0.000,-0.120
5673,0.020,-0.130
5674,0.020,-0.170
5675,0.010,-0.130
5676,-0.010,-0.160
5677,0.000,-0.150
5678,0.010,-0.180
5679,0.000,-0.120
5680,0.010,-0.180
5681,0.020,-0.160
5682,0.000,-0.220
5683,0.010,-0.160
5684,0.000,-0.230
5685,0.020,-0.210
5686,0.010,-0.190
5687,0.020,-0.190
5688,0.020,-0.220
5689,-0.010,-0.200
5690,0.020,-0.200
5691,0.010,-0.230
5692,0.020,-0.210
5693,0.000,-0.220
5694,0.040,-0.190
5695,0.030,-0.190
5696,0.080,-0.080
5697,0.080,-0.100
5698,0.120,-0.050
5699,0.100,0.040
5700,0.200,0.220
5701,0.150,0.100
5702,0.120,0.140
5703,0.080,0.050
5704,-0.010,0.010
5705,-0.020,-0.030
5706,-0.010,-0.080
5707,-0.020,-0.260
5708,-0.010,-0.300
5709,-0.010,-0.290
5710,-0.040,-0.290
5711,-0.020,-0.270
5712,-0.050,-0.470
5713,0.100,0.580
5714,0.130,2.950
5715,0.490,5.110
5716,-0.610,4.640
5717,-0.850,1.310
5718,-0.710,-1.190
5719,-0.590,-0.630
5720,-0.380,-0.260
5721,-0.050,-0.270
5722,-0.030,-0.320
5723,-0.040,-0.340
5724,-0.030,-0.280
5725,-0.010,-0.330
5726,-0.010,-0.300
5727,0.000,-0.310
5728,0.000,-0.260
5729,0.010,-0.290
5730,0.020,-0.270
5731,0.000,-0.220
5732,0.020,-0.210
5733,0.010,-0.200
5734,0.030,-0.170
5735,0.020,-0.130
5736,0.010,-0.160
5737,0.010,-0.100
5738,0.020,-0.060
5739,0.030,0.000
5740,0.010,-0.020
5741,0.000,0.050
5742,-0.010,0.050
5743,-0.030,0.070
5744,-0.040,0.020
5745,-0.060,0.090
5746,-0.070,0.030
5747,-0.080,-0.020
5748,-0.080,-0.020
5749,-0.090,-0.020
5750,-0.070,-0.050
5751,-0.050,-0.060
5752,-0.020,-0.020
5753,-0.010,-0.070
5754,0.020,-0.070
5755,0.030,-0.110
5756,0.040,-0.090
5757,0.050,-0.140
5758,0.060,-0.150
5759,0.050,-0.140
5760,0.050,-0.150
5761,0.040,-0.160
5762,0.050,-0.140
5763,0.040,-0.110
5764,0.050,-0.150
5765,0.040,-0.150
5766,0.040,-0.150
5767,0.060,-0.130
5768,0.040,-0.200
5769,0.060,-0.120
5770,0.050,-0.170
5771,0.050,-0.150
5772,0.040,-0.190
5773,0.060,-0.140
5774,0.060,-0.180
5775,0.050,-0.170
5776,0.060,-0.170
5777,0.040,-0.160
5778,0.070,-0.190
5779,0.040,-0.200
5780,0.040,-0.160
5781,0.040,-0.200
5782,0.020,-0.190
5783,0.030,-0.200
5784,0.040,-0.150
5785,0.030,-0.210
5786,0.030,-0.190
5787,0.020,-0.210
5788,0.020,-0.190
5789,0.020,-0.230
5790,0.010,-0.170
5791,0.040,-0.190
5792,0.030,-0.210
5793,0.030,-0.180
5794,0.080,-0.110
5795,0.100,-0.100
5796,0.080,-0.080
5797,0.110,-0.010
5798,0.180,0.180
5799,0.160,0.150
5800,0.120,0.120
5801,0.080,0.140
5802,0.000,-0.040
5803,-0.020,-0.010
5804,-0.020,-0.040
5805,0.000,-0.170
5806,-0.010,-0.290
5807,-0.030,-0.290
5808,-0.030,-0.270
5809,-0.020,-0.270
5810,-0.040,-0.380
5811,0.030,0.090
5812,0.090,1.730
5813,0.520,4.680
5814,-0.330,5.110
5815,-0.810,3.090
5816,-0.760,-0.990
5817,-0.890,-0.750
5818,-0.510,-0.330
5819,-0.130,-0.260
5820,-0.070,-0.290
5821,-0.080,-0.300
5822,-0.050,-0.290
5823,-0.030,-0.310
5824,-0.040,-0.300
5825,-0.010,-0.270
5826,-0.030,-0.260
5827,-0.010,-0.260
5828,-0.030,-0.240
5829,-0.010,-0.200
5830,0.000,-0.230
5831,0.010,-0.170
5832,-0.010,-0.180
5833,0.020,-0.120
5834,0.010,-0.170
5835,0.010,-0.050
5836,0.010,-0.050
5837,0.010,-0.020
5838,-0.010,0.000
5839,-0.010,0.050
5840,-0.010,0.030
5841,-0.040,0.030
5842,-0.060,0.070
5843,-0.080,0.020
5844,-0.090,0.010
5845,-0.110,-0.030
5846,-0.100,-0.020
5847,-0.120,-0.060
5848,-0.070,-0.060
5849,-0.070,-0.050
5850,-0.040,-0.020
5851,-0.030,-0.070
5852,-0.010,-0.040
5853,0.000,-0.070
5854,0.020,-0.090
5855,0.010,-0.150
5856,0.000,-0.110
5857,0.010,-0.130
5858,0.010,-0.140
5859,-0.010,-0.090
5860,0.000,-0.120
5861,-0.020,-0.120
5862,-0.010,-0.130
5863,-0.010,-0.080
5864,0.000,-0.140
5865,-0.030,-0.120
5866,-0.030,-0.140
5867,-0.050,-0.110
5868,-0.030,-0.140
5869,-0.020,-0.130
5870,-0.030,-0.130
5871,-0.030,-0.130
5872,-0.020,-0.160
5873,-0.040,-0.130
5874,-0.010,-0.120
5875,-0.020,-0.150
5876,-0.040,-0.130
5877,-0.040,-0.140
5878,-0.030,-0.120
5879,-0.050,-0.200
5880,-0.060,-0.120
5881,-0.060,-0.170
5882,-0.040,-0.150
5883,-0.060,-0.160
5884,-0.050,-0.120
5885,-0.060,-0.170
5886,-0.060,-0.170
5887,-0.050,-0.160
5888,-0.050,-0.160
5889,-0.030,-0.170
5890,-0.040,-0.150
5891,-0.030,-0.110
5892,-0.020,-0.160
5893,-0.020,-0.100
5894,0.060,-0.040
5895,0.040,-0.010
5896,0.090,-0.010
5897,0.060,0.090
5898,0.140,0.230
5899,0.100,0.190
5900,0.070,0.180
5901,0.050,0.140
5902,-0.050,0.020
5903,-0.060,0.010
5904,-0.030,0.010
5905,0.000,-0.150
5906,-0.050,-0.200
5907,-0.040,-0.240
5908,-0.030,-0.170
5909,-0.030,-0.230
5910,-0.060,-0.340
5911,0.060,0.600
5912,0.070,2.780
5913,0.560,5.110
5914,-0.530,4.960
5915,-0.770,2.190
5916,-0.620,-1.210
5917,-0.670,-0.610
5918,-0.490,-0.230
5919,-0.080,-0.200
5920,-0.070,-0.290
5921,-0.060,-0.270
5922,-0.050,-0.280
5923,-0.040,-0.270
5924,-0.020,-0.290
5925,-0.040,-0.240
5926,-0.020,-0.250
5927,-0.030,-0.240
5928,-0.030,-0.220
5929,0.000,-0.210
5930,0.000,-0.200
5931,-0.010,-0.190
5932,0.000,-0.140
5933,-0.010,-0.120
5934,0.010,-0.100
5935,-0.010,-0.090
5936,-0.010,-0.020
5937,0.010,-0.060
5938,-0.010,0.020
5939,-0.010,0.040
5940,-0.030,0.100
5941,-0.050,0.040
5942,-0.080,0.100
5943,-0.080,0.060
5944,-0.110,0.050
5945,-0.110,0.000
5946,-0.090,0.010
5947,-0.100,0.020
5948,-0.090,-0.040
5949,-0.070,0.000
5950,-0.040,-0.030
5951,-0.030,0.000
5952,-0.010,-0.080
5953,0.010,-0.010
5954,0.020,-0.090
5955,0.020,-0.090
5956,0.020,-0.130
5957,0.010,-0.080
5958,0.020,-0.140
5959,0.010,-0.140
5960,-0.020,-0.090
5961,0.030,-0.100
5962,0.020,-0.110
5963,0.000,-0.150
5964,0.020,-0.100
5965,-0.010,-0.160
5966,0.010,-0.150
5967,0.000,-0.160
5968,0.010,-0.120
5969,-0.010,-0.160
5970,0.000,-0.130
5971,-0.010,-0.150
5972,-0.010,-0.150
5973,0.000,-0.150
5974,-0.010,-0.120
5975,-0.010,-0.180
5976,-0.010,-0.180
5977,-0.020,-0.130
5978,-0.030,-0.170
5979,0.010,-0.170
5980,-0.020,-0.230
5981,-0.050,-0.150
5982,-0.030,-0.210
5983,-0.020,-0.180
5984,-0.040,-0.180
5985,-0.040,-0.150
5986,0.000,-0.210
5987,-0.050,-0.210
5988,-0.010,-0.160
5989,-0.030,-0.180
5990,-0.020,-0.140
5991,0.040,-0.100
5992,0.040,-0.010
5993,0.050,-0.060
5994,0.070,0.070
5995,0.140,0.230
5996,0.100,0.180
5997,0.090,0.150
5998,0.040,0.140
5999,-0.040,0.020
6000,-0.060,0.000
6001,-0.060,-0.050
6002,-0.050,-0.190
6003,-0.050,-0.230
6004,-0.050,-0.260
6005,-0.070,-0.200
6006,-0.060,-0.220
6007,-0.090,-0.330
6008,0.040,0.570
6009,0.070,2.770
6010,0.450,5.110
6011,-0.540,5.110
6012,-0.830,2.570
6013,-0.690,-1.200
6014,-0.650,-0.610
6015,-0.510,-0.290
6016,-0.080,-0.230
6017,-0.060,-0.290
6018,-0.050,-0.290
6019,-0.040,-0.290
6020,-0.010,-0.270
6021,-0.030,-0.330
6022,-0.020,-0.280
6023,-0.010,-0.260
6024,0.000,-0.250
6025,0.000,-0.270
6026,-0.020,-0.190
6027,0.010,-0.210
6028,0.010,-0.200
6029,-0.020,-0.190
6030,-0.010,-0.140
6031,0.010,-0.130
6032,0.010,-0.120
6033,0.000,-0.030
6034,0.000,-0.040
6035,-0.010,-0.010
6036,-0.020,-0.010
6037,-0.030,0.070
6038,-0.040,0.030
6039,-0.060,0.060
6040,-0.090,0.030
6041,-0.070,0.050
6042,-0.100,-0.040
6043,-0.090,-0.010
6044,-0.090,-0.030
6045,-0.090,-0.050
6046,-0.050,-0.060
6047,-0.060,-0.060
6048,-0.020,-0.050
6049,0.010,-0.110
6050,0.010,-0.080
6051,0.020,-0.120
6052,0.040,-0.110
6053,0.040,-0.180
6054,0.050,-0.120
6055,0.060,-0.150
6056,0.060,-0.150
6057,0.080,-0.120
6058,0.070,-0.120
6059,0.070,-0.150
6060,0.070,-0.160
6061,0.060,-0.150
6062,0.080,-0.160
6063,0.070,-0.160
6064,0.070,-0.190
6065,0.060,-0.120
6066,0.060,-0.210
6067,0.060,-0.170
6068,0.060,-0.210
6069,0.040,-0.160
6070,0.060,-0.230
6071,0.070,-0.180
6072,0.060,-0.190
6073,0.050,-0.210
6074,0.080,-0.230
6075,0.060,-0.220
6076,0.050,-0.230
6077,0.060,-0.280
6078,0.040,-0.220
6079,0.080,-0.270
6080,0.050,-0.230
6081,0.060,-0.270
6082,0.060,-0.230
6083,0.060,-0.290
6084,0.050,-0.260
6085,0.040,-0.250
6086,0.060,-0.230
6087,0.060,-0.270
6088,0.070,-0.260
6089,0.050,-0.240
6090,0.040,-0.240
6091,0.080,-0.180
6092,0.120,-0.140
6093,0.090,-0.080
6094,0.140,-0.120
6095,0.150,0.110
6096,0.200,0.090
6097,0.090,0.070
6098,0.110,0.010
6099,0.030,-0.030
6100,-0.010,-0.090
6101,0.000,-0.110
6102,0.020,-0.200
6103,0.000,-0.330
6104,0.010,-0.330
6105,-0.010,-0.360
6106,0.010,-0.270
6107,0.000,-0.420
6108,0.030,-0.220
6109,0.140,1.120
6110,0.410,4.260
6111,-0.020,5.110
6112,-0.680,3.710
6113,-0.790,-0.550
6114,-0.820,-0.810
6115,-0.480,-0.530
6116,-0.180,-0.280
6117,-0.010,-0.330
6118,-0.020,-0.380
6119,0.020,-0.400
6120,0.010,-0.370
6121,0.040,-0.370
6122,0.050,-0.390
6123,0.040,-0.340
6124,0.040,-0.350
6125,0.040,-0.330
6126,0.050,-0.350
6127,0.040,-0.270
6128,0.070,-0.310
6129,0.070,-0.280
6130,0.040,-0.240
6131,0.070,-0.210
6132,0.070,-0.220
6133,0.070,-0.180
6134,0.070,-0.120
6135,0.070,-0.110
6136,0.060,-0.100
6137,0.030,-0.040
6138,0.030,-0.010
6139,0.010,-0.040
6140,-0.010,-0.030
6141,-0.040,-0.060
6142,-0.040,-0.070
6143,-0.070,-0.140
6144,-0.060,-0.090
6145,-0.060,-0.120
6146,-0.020,-0.120
6147,-0.020,-0.120
6148,0.010,-0.120
6149,0.040,-0.140
6150,0.030,-0.170
6151,0.060,-0.140
6152,0.080,-0.180
6153,0.090,-0.170
6154,0.070,-0.210
6155,0.090,-0.180
6156,0.070,-0.220
6157,0.080,-0.200
6158,0.060,-0.200
6159,0.070,-0.160
6160,0.070,-0.250
6161,0.070,-0.190
6162,0.060,-0.220
6163,0.080,-0.210
6164,0.070,-0.250
6165,0.050,-0.200
6166,0.070,-0.210
6167,0.070,-0.260
6168,0.080,-0.210
6169,0.080,-0.260
6170,0.080,-0.230
6171,0.080,-0.300
6172,0.060,-0.220
6173,0.090,-0.280
6174,0.050,-0.270
6175,0.050,-0.270
6176,0.060,-0.250
6177,0.060,-0.300
6178,0.050,-0.280
6179,0.040,-0.280
6180,0.040,-0.270
6181,0.050,-0.290
6182,0.060,-0.270
6183,0.050,-0.260
6184,0.060,-0.300
6185,0.060,-0.300
6186,0.040,-0.290
6187,0.060,-0.260
6188,0.050,-0.330
6189,0.040,-0.240
6190,0.060,-0.280
6191,0.090,-0.180
6192,0.130,-0.210
6193,0.090,-0.100
6194,0.170,-0.120
6195,0.130,0.040
6196,0.240,0.070
6197,0.120,0.010
6198,0.100,0.060
6199,0.060,-0.110
6200,0.000,-0.070
6201,0.010,-0.140
6202,0.010,-0.190
6203,0.020,-0.350
6204,0.010,-0.320
6205,0.000,-0.390
6206,0.000,-0.340
6207,-0.010,-0.370
6208,0.000,-0.340
6209,0.150,0.870
6210,0.290,3.830
6211,0.220,5.110
6212,-0.620,3.860
6213,-0.790,-0.040
6214,-0.760,-1.060
6215,-0.490,-0.600
6216,-0.240,-0.380
6217,-0.010,-0.330
6218,-0.010,-0.400
6219,0.030,-0.380
6220,0.030,-0.440
6221,0.050,-0.360
6222,0.040,-0.390
6223,0.050,-0.390
6224,0.050,-0.370
6225,0.060,-0.350
6226,0.060,-0.350
6227,0.050,-0.330
6228,0.070,-0.270
6229,0.050,-0.300
6230,0.070,-0.250
6231,0.080,-0.240
6232,0.050,-0.170
6233,0.060,-0.200
6234,0.060,-0.150
6235,0.040,-0.120
6236,0.040,-0.100
6237,0.030,-0.080
6238,0.020,-0.030
6239,0.010,-0.020
6240,-0.040,-0.050
6241,-0.030,-0.060
6242,-0.070,-0.070
6243,-0.070,-0.100
6244,-0.080,-0.150
6245,-0.080,-0.090
6246,-0.050,-0.150
6247,-0.030,-0.120
6248,-0.020,-0.160
6249,0.010,-0.100
6250,0.040,-0.170
6251,0.040,-0.170
6252,0.060,-0.190
6253,0.060,-0.200
6254,0.070,-0.230
6255,0.070,-0.230
6256,0.090,-0.200
6257,0.080,-0.240
6258,0.090,-0.230
6259,0.070,-0.240
6260,0.080,-0.220
6261,0.070,-0.280
6262,0.090,-0.200
6263,0.080,-0.220
6264,0.090,-0.210
6265,0.090,-0.240
6266,0.070,-0.200
6267,0.070,-0.220
6268,0.060,-0.240
6269,0.060,-0.210
6270,0.070,-0.220
6271,0.070,-0.210
6272,0.080,-0.250
6273,0.060,-0.200
6274,0.060,-0.220
6275,0.070,-0.240
6276,0.050,-0.230
6277,0.060,-0.200
6278,0.070,-0.230
6279,0.060,-0.240
6280,0.060,-0.230
6281,0.050,-0.260
6282,0.060,-0.260
6283,0.050,-0.250
6284,0.050,-0.240
6285,0.050,-0.270
6286,0.040,-0.260
6287,0.040,-0.250
6288,0.020,-0.240
6289,0.030,-0.280
6290,0.020,-0.190
6291,0.070,-0.170
6292,0.100,-0.150
6293,0.060,-0.130
6294,0.120,-0.080
6295,0.130,0.080
6296,0.190,0.090
6297,0.130,0.110
6298,0.110,0.110
6299,0.050,0.000
6300,-0.030,-0.100
6301,-0.020,-0.040
6302,-0.010,-0.180
6303,-0.010,-0.280
6304,-0.010,-0.290
6305,-0.010,-0.290
6306,-0.020,-0.290
6307,-0.030,-0.320
6308,-0.060,-0.350
6309,0.090,0.750
6310,0.110,3.350
6311,0.450,5.110
6312,-0.570,4.550
6313,-0.770,1.040
6314,-0.660,-1.160
6315,-0.580,-0.640
6316,-0.390,-0.240
6317,-0.060,-0.330
6318,-0.050,-0.300
6319,-0.030,-0.330
6320,-0.040,-0.340
6321,-0.010,-0.350
6322,-0.010,-0.310
6323,0.000,-0.310
6324,-0.010,-0.340
6325,0.000,-0.290
6326,0.010,-0.300
6327,0.010,-0.260
6328,0.010,-0.280
6329,0.000,-0.190
6330,0.000,-0.210
6331,0.030,-0.180
6332,0.010,-0.160
6333,-0.010,-0.110
6334,0.000,-0.140
6335,-0.010,-0.090
6336,-0.020,-0.040
6337,-0.050,-0.040
6338,-0.050,-0.020
6339,-0.070,0.010
6340,-0.080,0.040
6341,-0.100,-0.050
6342,-0.100,-0.010
6343,-0.120,-0.040
6344,-0.120,-0.050
6345,-0.120,-0.120
6346,-0.120,-0.060
6347,-0.100,-0.060
6348,-0.070,-0.090
6349,-0.060,-0.110
6350,-0.040,-0.080
6351,0.020,-0.100
6352,0.000,-0.150
6353,0.020,-0.130
6354,0.020,-0.170
6355,0.030,-0.170
6356,0.030,-0.200
6357,0.020,-0.140
6358,0.040,-0.170
6359,0.020,-0.170
6360,0.050,-0.160
6361,0.030,-0.150
6362,0.040,-0.200
6363,0.020,-0.210
6364,0.040,-0.180
6365,0.030,-0.190
6366,0.040,-0.180
6367,0.030,-0.170
6368,0.050,-0.140
6369,0.030,-0.200
6370,0.050,-0.140
6371,0.030,-0.190
6372,0.030,-0.160
6373,0.050,-0.210
6374,0.030,-0.160
6375,0.040,-0.160
6376,0.040,-0.190
6377,0.030,-0.190
6378,0.050,-0.200
6379,0.040,-0.170
6380,0.020,-0.230
6381,0.030,-0.170
6382,0.050,-0.210
6383,0.040,-0.220
6384,0.010,-0.220
6385,0.040,-0.170
6386,0.020,-0.230
6387,0.030,-0.230
6388,0.010,-0.210
6389,0.020,-0.210
6390,0.030,-0.180
6391,0.090,-0.100
6392,0.080,-0.100
6393,0.100,-0.080
6394,0.070,0.000
6395,0.160,0.190
6396,0.170,0.130
6397,0.090,0.100
6398,0.090,0.100
6399,-0.030,-0.020
6400,-0.030,-0.030
6401,-0.050,-0.110
6402,-0.010,-0.210
6403,-0.030,-0.270
6404,-0.040,-0.300
6405,-0.050,-0.260
6406,-0.070,-0.270
6407,-0.060,-0.370
6408,0.030,0.440
6409,0.060,2.570
6410,0.440,5.110
6411,-0.490,5.110
6412,-0.790,2.900
6413,-0.640,-1.170
6414,-0.660,-0.650
6415,-0.510,-0.370
6416,-0.110,-0.250
6417,-0.050,-0.300
6418,-0.020,-0.320
6419,-0.030,-0.310
6420,-0.010,-0.310
6421,0.010,-0.320
6422,0.010,-0.320
6423,0.010,-0.300
6424,0.020,-0.250
6425,0.020,-0.300
6426,0.030,-0.220
6427,0.030,-0.220
6428,0.030,-0.180
6429,0.030,-0.210
6430,0.030,-0.120
6431,0.030,-0.160
6432,0.040,-0.110
6433,0.030,-0.090
6434,0.030,-0.030
6435,0.020,-0.040
6436,0.010,0.010
6437,0.000,0.030
6438,-0.040,0.010
6439,-0.030,0.000
6440,-0.070,0.000
6441,-0.080,-0.010
6442,-0.060,-0.070
6443,-0.080,-0.060
6444,-0.080,-0.090
6445,-0.060,-0.060
6446,-0.070,-0.120
6447,-0.030,-0.040
6448,-0.020,-0.100
6449,0.010,-0.100
6450,0.010,-0.130
6451,0.010,-0.110
6452,0.030,-0.140
6453,0.040,-0.160
6454,0.030,-0.140
6455,0.030,-0.160
6456,0.050,-0.150
6457,0.030,-0.190
6458,0.040,-0.120
6459,0.030,-0.190
6460,0.060,-0.160
6461,0.040,-0.160
6462,0.030,-0.140
6463,0.040,-0.190
6464,0.030,-0.160
6465,0.030,-0.190
6466,0.010,-0.210
6467,0.030,-0.220
6468,0.010,-0.190
6469,0.020,-0.200
6470,0.010,-0.210
6471,0.020,-0.190
6472,0.010,-0.200
6473,0.030,-0.200
6474,0.000,-0.240
6475,0.000,-0.190
6476,0.020,-0.230
6477,0.020,-0.220
6478,0.020,-0.240
6479,0.020,-0.210
6480,0.040,-0.250
6481,0.030,-0.260
6482,0.040,-0.220
6483,0.030,-0.240
6484,0.050,-0.250
6485,0.020,-0.260
6486,0.040,-0.210
6487,0.020,-0.270
6488,0.050,-0.200
6489,0.070,-0.170
6490,0.120,-0.110
6491,0.070,-0.130
6492,0.140,-0.040
6493,0.120,0.090
6494,0.190,0.110
6495,0.100,0.050
6496,0.110,0.110
6497,0.040,-0.050
6498,-0.060,-0.090
6499,-0.010,-0.060
6500,-0.010,-0.170
6501,-0.010,-0.310
6502,-0.010,-0.340
6503,-0.020,-0.290
6504,-0.030,-0.320
6505,-0.020,-0.350
6506,-0.040,-0.350
6507,0.110,0.890
6508,0.250,3.780
6509,0.290,5.110
6510,-0.620,4.220
6511,-0.870,0.430
6512,-0.770,-1.090
6513,-0.580,-0.630
6514,-0.330,-0.260
6515,-0.040,-0.350
6516,-0.040,-0.360
6517,-0.030,-0.370
6518,0.000,-0.340
6519,0.000,-0.390
6520,0.010,-0.310
6521,0.020,-0.350
6522,0.040,-0.330
6523,0.030,-0.340
6524,0.030,-0.300
6525,0.030,-0.290
6526,0.040,-0.290
6527,0.040,-0.220
6528,0.060,-0.210
6529,0.070,-0.190
6530,0.060,-0.170
6531,0.060,-0.100
6532,0.050,-0.130
6533,0.050,-0.080
6534,0.040,-0.060
6535,0.050,0.020
6536,0.030,-0.030
6537,0.010,0.030
6538,-0.030,0.000
6539,-0.030,-0.020
6540,-0.040,-0.070
6541,-0.060,-0.060
6542,-0.060,-0.080
6543,-0.060,-0.120
6544,-0.050,-0.090
6545,-0.050,-0.090
6546,-0.030,-0.080
6547,0.000,-0.150
6548,0.030,-0.100
6549,0.030,-0.150
6550,0.050,-0.160
6551,0.050,-0.180
6552,0.050,-0.160
6553,0.070,-0.190
6554,0.060,-0.210
6555,0.070,-0.140
6556,0.080,-0.180
6557,0.080,-0.170
6558,0.060,-0.190
6559,0.070,-0.150
6560,0.070,-0.200
6561,0.080,-0.160
6562,0.080,-0.180
6563,0.080,-0.150
6564,0.060,-0.200
6565,0.060,-0.150
6566,0.060,-0.190
6567,0.070,-0.160
6568,0.060,-0.210
6569,0.070,-0.180
6570,0.070,-0.190
6571,0.060,-0.230
6572,0.070,-0.170
6573,0.050,-0.180
6574,0.060,-0.170
6575,0.050,-0.240
6576,0.070,-0.160
6577,0.050,-0.220
6578,0.060,-0.210
6579,0.050,-0.220
6580,0.070,-0.200
6581,0.050,-0.240
6582,0.050,-0.240
6583,0.030,-0.220
6584,0.060,-0.250
6585,0.050,-0.240
6586,0.050,-0.250
6587,0.050,-0.220
6588,0.050,-0.250
6589,0.060,-0.220
6590,0.090,-0.170
6591,0.140,-0.120
6592,0.080,-0.140
6593,0.160,-0.040
6594,0.130,0.060
6595,0.250,0.100
6596,0.110,0.030
6597,0.120,0.100
6598,0.050,-0.030
6599,-0.020,-0.110
6600,-0.010,-0.060
6601,-0.020,-0.150
6602,0.020,-0.280
6603,0.000,-0.340
6604,-0.010,-0.270
6605,0.010,-0.310
6606,0.000,-0.310
6607,-0.030,-0.330
6608,0.130,0.910
6609,0.230,3.720
6610,0.290,5.110
6611,-0.610,4.120
6612,-0.830,0.530
6613,-0.720,-1.100
6614,-0.560,-0.630
6615,-0.330,-0.240
6616,-0.040,-0.350
6617,-0.040,-0.340
6618,-0.040,-0.360
6619,0.000,-0.330
6620,0.010,-0.360
6621,0.010,-0.310
6622,0.020,-0.310
6623,0.000,-0.300
6624,0.020,-0.310
6625,0.000,-0.260
6626,0.030,-0.280
6627,0.030,-0.270
6628,0.010,-0.220
6629,0.020,-0.200
6630,0.040,-0.160
6631,0.020,-0.180
6632,0.030,-0.090
6633,0.030,-0.110
6634,0.020,-0.060
6635,0.000,-0.030
6636,0.020,0.020
