'sample interval','ECG0','ECG1'
'0.0078125 sec','mV','mV'
0,-0.185,-0.040
1,-0.185,-0.035
2,-0.185,-0.020
3,-0.185,-0.005
4,-0.190,0.000
5,-0.190,0.000
6,-0.190,0.005
7,-0.200,0.015
8,-0.205,0.030
9,-0.215,0.035
10,-0.225,0.045
11,-0.230,0.050
12,-0.235,0.055
13,-0.240,0.055
14,-0.250,0.065
15,-0.260,0.070
16,-0.285,0.070
17,-0.300,0.065
18,-0.305,0.065
19,-0.305,0.065
20,-0.310,0.055
21,-0.300,0.045
22,-0.300,0.040
23,-0.300,0.030
24,-0.295,0.025
25,-0.290,0.020
26,-0.285,0.010
27,-0.280,0.000
28,-0.275,0.000
29,-0.270,0.000
30,-0.270,0.000
31,-0.265,0.000
32,-0.265,0.000
33,-0.265,0.000
34,-0.265,0.000
35,-0.260,0.010
36,-0.260,0.010
37,-0.255,0.005
38,-0.245,0.000
39,-0.225,0.000
40,-0.215,0.000
41,-0.210,0.000
42,-0.210,-0.010
43,-0.210,-0.010
44,-0.200,0.000
45,-0.195,0.000
46,-0.190,-0.005
47,-0.185,-0.005
48,-0.180,-0.005
49,-0.175,-0.005
50,-0.170,-0.005
51,-0.165,-0.010
52,-0.165,-0.015
53,-0.160,-0.010
54,-0.160,-0.010
55,-0.150,-0.010
56,-0.145,-0.005
57,-0.145,-0.005
58,-0.140,-0.010
59,-0.140,-0.020
60,-0.160,-0.015
61,-0.165,0.005
62,-0.110,0.050
63,-0.015,0.090
64,0.085,0.140
65,0.155,0.220
66,0.165,0.315
67,0.115,0.330
68,0.030,0.195
69,-0.040,0.005
70,-0.095,-0.125
71,-0.120,-0.160
72,-0.135,-0.120
73,-0.145,-0.080
74,-0.145,-0.065
75,-0.145,-0.065
76,-0.140,-0.065
77,-0.135,-0.075
78,-0.135,-0.075
79,-0.130,-0.070
80,-0.125,-0.065
81,-0.125,-0.060
82,-0.120,-0.050
83,-0.115,-0.045
84,-0.110,-0.025
85,-0.110,-0.010
86,-0.110,-0.005
87,-0.105,0.000
88,-0.105,0.000
89,-0.105,0.010
90,-0.105,0.015
91,-0.105,0.020
92,-0.105,0.020
93,-0.105,0.020
94,-0.110,0.030
95,-0.105,0.035
96,-0.105,0.040
97,-0.105,0.045
98,-0.105,0.035
99,-0.105,0.030
100,-0.105,0.030
101,-0.105,0.025
102,-0.100,0.020
103,-0.090,0.010
104,-0.090,0.010
105,-0.085,0.000
106,-0.085,0.000
107,-0.085,0.000
108,-0.080,0.000
109,-0.080,0.000
110,-0.080,0.000
111,-0.075,-0.010
112,-0.070,-0.010
113,-0.065,-0.015
114,-0.065,-0.010
115,-0.075,-0.005
116,-0.080,0.000
117,-0.080,0.000
118,-0.080,0.000
119,-0.075,0.000
120,-0.060,-0.005
121,-0.055,-0.015
122,-0.045,-0.030
123,-0.040,-0.035
124,-0.040,-0.040
125,-0.035,-0.035
126,-0.035,-0.030
127,-0.030,-0.035
128,-0.030,-0.035
129,-0.030,-0.025
130,-0.030,-0.015
131,-0.030,-0.020
132,-0.025,-0.025
133,-0.020,-0.030
134,-0.020,-0.035
135,-0.015,-0.030
136,-0.015,-0.030
137,-0.015,-0.030
138,-0.015,-0.030
139,-0.015,-0.030
140,-0.015,-0.030
141,-0.015,-0.045
142,-0.035,-0.045
143,-0.045,-0.020
144,0.000,0.020
145,0.085,0.065
146,0.185,0.120
147,0.260,0.210
148,0.275,0.325
149,0.225,0.350
150,0.140,0.220
151,0.055,0.025
152,0.000,-0.125
153,-0.020,-0.175
154,-0.030,-0.145
155,-0.040,-0.105
156,-0.045,-0.095
157,-0.045,-0.090
158,-0.040,-0.090
159,-0.040,-0.090
160,-0.040,-0.095
161,-0.040,-0.090
162,-0.035,-0.085
163,-0.035,-0.080
164,-0.035,-0.075
165,-0.030,-0.065
166,-0.030,-0.055
167,-0.025,-0.040
168,-0.025,-0.025
169,-0.030,-0.010
170,-0.025,0.000
171,-0.015,0.000
172,-0.020,0.000
173,-0.020,0.000
174,-0.025,0.000
175,-0.030,0.005
176,-0.030,0.010
177,-0.030,0.015
178,-0.030,0.015
179,-0.030,0.020
180,-0.035,0.025
181,-0.035,0.020
182,-0.035,0.015
183,-0.030,0.010
184,-0.025,0.010
185,-0.025,0.005
186,-0.030,0.000
187,-0.030,0.000
188,-0.030,0.000
189,-0.020,0.000
190,-0.020,0.000
191,-0.015,0.000
192,-0.015,-0.005
193,-0.015,-0.005
194,-0.015,-0.010
195,-0.015,-0.005
196,-0.020,0.000
197,-0.030,0.000
198,-0.030,0.000
199,-0.030,0.000
200,-0.030,0.000
201,-0.025,0.000
202,-0.010,-0.005
203,-0.005,-0.020
204,-0.005,-0.025
205,-0.005,-0.025
206,-0.005,-0.020
207,-0.005,-0.015
208,0.000,-0.020
209,0.000,-0.015
210,0.000,-0.015
211,0.000,-0.015
212,0.000,-0.015
213,0.000,-0.020
214,0.000,-0.030
215,0.000,-0.035
216,0.000,-0.030
217,0.000,-0.025
218,0.000,-0.025
219,0.000,-0.025
220,0.000,-0.025
221,0.000,-0.025
222,0.000,-0.040
223,-0.005,-0.050
224,-0.025,-0.035
225,-0.005,0.000
226,0.065,0.045
227,0.175,0.095
228,0.260,0.180
229,0.300,0.310
230,0.275,0.400
231,0.195,0.330
232,0.105,0.135
233,0.030,-0.055
234,-0.005,-0.155
235,-0.020,-0.150
236,-0.030,-0.115
237,-0.040,-0.100
238,-0.040,-0.095
239,-0.035,-0.100
240,-0.035,-0.100
241,-0.035,-0.105
242,-0.035,-0.105
243,-0.035,-0.100
244,-0.035,-0.095
245,-0.035,-0.090
246,-0.030,-0.085
247,-0.030,-0.070
248,-0.030,-0.065
249,-0.030,-0.050
250,-0.025,-0.035
251,-0.025,-0.020
252,-0.025,-0.010
253,-0.025,-0.005
254,-0.030,0.000
255,-0.030,0.000
256,-0.030,0.000
257,-0.030,0.000
258,-0.030,0.000
259,-0.030,0.000
260,-0.035,0.005
261,-0.035,0.005
262,-0.035,0.005
263,-0.040,0.005
264,-0.035,0.000
265,-0.035,0.000
266,-0.035,0.000
267,-0.035,0.000
268,-0.035,0.000
269,-0.035,0.000
270,-0.035,0.000
271,-0.030,0.000
272,-0.030,-0.005
273,-0.030,-0.010
274,-0.030,-0.015
275,-0.030,-0.020
276,-0.030,-0.015
277,-0.030,-0.005
278,-0.035,0.000
279,-0.040,0.000
280,-0.040,0.000
281,-0.035,0.000
282,-0.035,0.000
283,-0.025,-0.010
284,-0.015,-0.020
285,-0.015,-0.025
286,-0.015,-0.030
287,-0.010,-0.025
288,-0.010,-0.020
289,-0.010,-0.015
290,-0.010,-0.025
291,-0.010,-0.020
292,-0.010,-0.015
293,-0.005,-0.015
294,-0.005,-0.025
295,-0.005,-0.030
296,-0.005,-0.030
297,-0.005,-0.025
298,-0.005,-0.025
299,-0.005,-0.025
300,-0.005,-0.015
301,-0.005,-0.015
302,-0.005,-0.015
303,-0.005,-0.025
304,-0.010,-0.040
305,-0.040,-0.030
306,-0.030,0.000
307,0.030,0.045
308,0.130,0.095
309,0.235,0.170
310,0.285,0.285
311,0.275,0.390
312,0.205,0.360
313,0.120,0.195
314,0.040,0.000
315,0.000,-0.135
316,-0.025,-0.160
317,-0.040,-0.115
318,-0.045,-0.080
319,-0.050,-0.075
320,-0.050,-0.080
321,-0.055,-0.085
322,-0.050,-0.095
323,-0.050,-0.090
324,-0.050,-0.085
325,-0.045,-0.080
326,-0.045,-0.080
327,-0.040,-0.070
328,-0.040,-0.060
329,-0.040,-0.045
330,-0.040,-0.030
331,-0.040,-0.020
332,-0.045,-0.005
333,-0.045,0.000
334,-0.040,0.000
335,-0.040,0.000
336,-0.055,0.000
337,-0.055,0.000
338,-0.060,0.010
339,-0.070,0.010
340,-0.070,0.010
341,-0.070,0.020
342,-0.075,0.020
343,-0.080,0.020
344,-0.080,0.020
345,-0.085,0.015
346,-0.085,0.005
347,-0.085,0.005
348,-0.085,0.000
349,-0.085,0.000
350,-0.085,0.000
351,-0.085,0.000
352,-0.090,0.000
353,-0.090,0.000
354,-0.090,-0.005
355,-0.090,-0.010
356,-0.090,-0.010
357,-0.090,-0.015
358,-0.100,-0.010
359,-0.105,0.000
360,-0.105,0.000
361,-0.105,0.000
362,-0.110,0.000
363,-0.105,0.000
364,-0.100,0.000
365,-0.090,-0.005
366,-0.085,-0.020
367,-0.080,-0.030
368,-0.080,-0.030
369,-0.080,-0.025
370,-0.075,-0.015
371,-0.070,-0.015
372,-0.065,-0.020
373,-0.065,-0.020
374,-0.065,-0.020
375,-0.060,-0.020
376,-0.060,-0.025
377,-0.060,-0.030
378,-0.055,-0.030
379,-0.055,-0.030
380,-0.055,-0.030
381,-0.055,-0.025
382,-0.050,-0.025
383,-0.045,-0.025
384,-0.045,-0.025
385,-0.040,-0.030
386,-0.050,-0.050
387,-0.085,-0.035
388,-0.065,0.000
389,0.005,0.055
390,0.110,0.120
391,0.205,0.205
392,0.255,0.335
393,0.230,0.410
394,0.155,0.320
395,0.065,0.130
396,0.000,-0.060
397,-0.030,-0.160
398,-0.050,-0.155
399,-0.060,-0.115
400,-0.065,-0.090
401,-0.065,-0.085
402,-0.065,-0.085
403,-0.060,-0.085
404,-0.060,-0.085
405,-0.055,-0.085
406,-0.055,-0.080
407,-0.050,-0.075
408,-0.040,-0.065
409,-0.035,-0.060
410,-0.035,-0.045
411,-0.030,-0.030
412,-0.030,-0.015
413,-0.025,-0.005
414,-0.020,0.000
415,-0.020,0.000
416,-0.015,0.000
417,-0.015,0.010
418,-0.015,0.015
419,-0.015,0.020
420,-0.015,0.025
421,-0.025,0.035
422,-0.025,0.035
423,-0.030,0.040
424,-0.030,0.040
425,-0.030,0.035
426,-0.030,0.035
427,-0.030,0.035
428,-0.030,0.030
429,-0.030,0.025
430,-0.030,0.020
431,-0.025,0.015
432,-0.020,0.010
433,-0.020,0.005
434,-0.020,0.005
435,-0.015,0.000
436,-0.015,0.000
437,-0.015,0.000
438,-0.015,0.000
439,-0.015,0.000
440,-0.015,0.000
441,-0.015,0.000
442,-0.025,0.000
443,-0.030,0.005
444,-0.030,0.005
445,-0.030,0.005
446,-0.020,0.000
447,-0.010,0.000
448,-0.010,0.000
449,-0.005,0.000
450,-0.005,0.000
451,-0.005,0.000
452,-0.005,0.000
453,0.000,0.000
454,0.000,0.000
455,0.000,-0.005
456,0.000,0.000
457,0.000,0.000
458,0.000,0.000
459,0.000,-0.010
460,0.000,-0.015
461,0.000,-0.015
462,0.000,-0.015
463,0.000,-0.010
464,0.000,-0.010
465,0.000,-0.005
466,0.000,-0.005
467,0.000,-0.020
468,-0.005,-0.030
469,-0.030,-0.010
470,-0.025,0.005
471,0.045,0.065
472,0.155,0.110
473,0.255,0.190
474,0.295,0.310
475,0.280,0.415
476,0.195,0.340
477,0.110,0.160
478,0.030,-0.035
479,0.000,-0.155
480,-0.020,-0.150
481,-0.030,-0.110
482,-0.035,-0.085
483,-0.040,-0.085
484,-0.045,-0.085
485,-0.045,-0.085
486,-0.040,-0.085
487,-0.045,-0.090
488,-0.045,-0.085
489,-0.045,-0.075
490,-0.040,-0.070
491,-0.040,-0.065
492,-0.040,-0.055
493,-0.040,-0.040
494,-0.035,-0.030
495,-0.035,-0.015
496,-0.035,0.000
497,-0.035,0.000
498,-0.035,0.000
499,-0.035,0.005
500,-0.035,0.005
501,-0.035,0.015
502,-0.040,0.020
503,-0.040,0.020
504,-0.040,0.025
505,-0.040,0.030
506,-0.040,0.030
507,-0.040,0.030
508,-0.045,0.025
509,-0.040,0.020
510,-0.040,0.015
511,-0.040,0.010
512,-0.040,0.005
513,-0.040,0.005
514,-0.040,0.000
515,-0.035,0.000
516,-0.035,0.000
517,-0.035,0.000
518,-0.030,0.000
519,-0.030,0.000
520,-0.035,0.000
521,-0.030,-0.005
522,-0.030,-0.005
523,-0.030,0.000
524,-0.035,0.000
525,-0.035,0.000
526,-0.040,0.000
527,-0.040,0.000
528,-0.035,0.000
529,-0.030,0.000
530,-0.020,-0.005
531,-0.015,-0.015
532,-0.015,-0.020
533,-0.010,-0.020
534,-0.010,-0.015
535,-0.010,-0.010
536,-0.005,-0.015
537,-0.005,-0.015
538,-0.005,-0.015
539,-0.005,-0.015
540,-0.005,-0.015
541,0.000,-0.015
542,0.000,-0.025
543,0.000,-0.025
544,0.000,-0.025
545,0.000,-0.025
546,0.000,-0.020
547,0.000,-0.010
548,0.000,-0.010
549,0.000,-0.015
550,0.000,-0.035
551,-0.025,-0.030
552,-0.040,0.000
553,0.010,0.045
554,0.110,0.090
555,0.225,0.155
556,0.280,0.245
557,0.290,0.375
558,0.230,0.360
559,0.135,0.205
560,0.060,0.005
561,0.010,-0.135
562,-0.010,-0.160
563,-0.025,-0.120
564,-0.030,-0.085
565,-0.035,-0.080
566,-0.035,-0.080
567,-0.035,-0.085
568,-0.035,-0.085
569,-0.035,-0.090
570,-0.030,-0.085
571,-0.030,-0.080
572,-0.030,-0.075
573,-0.020,-0.065
574,-0.020,-0.055
575,-0.015,-0.040
576,-0.015,-0.030
577,-0.015,-0.015
578,-0.015,-0.005
579,-0.015,0.000
580,-0.015,0.000
581,-0.015,0.000
582,-0.015,0.000
583,-0.015,0.010
584,-0.015,0.020
585,-0.015,0.025
586,-0.015,0.025
587,-0.020,0.035
588,-0.030,0.035
589,-0.030,0.035
590,-0.030,0.030
591,-0.030,0.025
592,-0.030,0.025
593,-0.030,0.015
594,-0.025,0.010
595,-0.025,0.000
596,-0.025,0.000
597,-0.020,0.000
598,-0.015,0.000
599,-0.015,0.000
600,-0.015,0.000
601,-0.015,0.000
602,-0.015,0.000
603,-0.015,0.000
604,-0.015,0.000
605,-0.015,0.000
606,-0.025,0.000
607,-0.030,0.000
608,-0.035,0.000
609,-0.030,0.000
610,-0.030,0.000
611,-0.020,0.000
612,-0.010,-0.005
613,-0.005,-0.015
614,-0.005,-0.025
615,-0.005,-0.025
616,-0.005,-0.015
617,0.000,-0.015
618,0.000,-0.020
619,0.000,-0.025
620,0.000,-0.025
621,0.000,-0.020
622,0.000,-0.015
623,0.000,-0.025
624,0.000,-0.030
625,0.000,-0.035
626,0.005,-0.030
627,0.005,-0.020
628,0.000,-0.020
629,0.000,-0.015
630,0.000,-0.015
631,0.000,-0.020
632,0.000,-0.035
633,-0.010,-0.030
634,-0.025,0.000
635,0.020,0.040
636,0.115,0.085
637,0.230,0.145
638,0.295,0.235
639,0.310,0.370
640,0.245,0.385
641,0.150,0.230
642,0.065,0.020
643,0.010,-0.130
644,0.000,-0.170
645,-0.020,-0.125
646,-0.025,-0.085
647,-0.030,-0.085
648,-0.030,-0.085
649,-0.030,-0.085
650,-0.030,-0.080
651,-0.030,-0.080
652,-0.030,-0.085
653,-0.030,-0.075
654,-0.025,-0.070
655,-0.025,-0.060
656,-0.020,-0.050
657,-0.015,-0.040
658,-0.015,-0.020
659,-0.015,-0.005
660,-0.010,0.000
661,-0.010,0.000
662,-0.010,0.000
663,-0.010,0.005
664,-0.010,0.015
665,-0.015,0.025
666,-0.015,0.025
667,-0.015,0.030
668,-0.015,0.035
669,-0.015,0.045
670,-0.020,0.045
671,-0.020,0.040
672,-0.020,0.035
673,-0.020,0.030
674,-0.015,0.025
675,-0.020,0.020
676,-0.020,0.020
677,-0.015,0.015
678,-0.015,0.000
679,-0.010,0.000
680,-0.010,0.000
681,-0.010,0.000
682,-0.010,0.000
683,-0.010,0.000
684,-0.010,0.000
685,-0.015,0.000
686,-0.015,0.000
687,-0.015,0.000
688,-0.025,0.000
689,-0.030,0.000
690,-0.030,0.000
691,-0.030,0.000
692,-0.030,0.000
693,-0.015,0.000
694,-0.010,-0.005
695,-0.005,-0.020
696,-0.005,-0.025
697,-0.005,-0.025
698,-0.005,-0.025
699,-0.005,-0.020
700,0.000,-0.020
701,0.000,-0.015
702,0.000,-0.015
703,0.000,-0.010
704,0.000,-0.010
705,0.000,-0.015
706,0.000,-0.025
707,0.000,-0.025
708,0.000,-0.025
709,0.000,-0.025
710,0.000,-0.025
711,0.000,-0.020
712,0.000,-0.020
713,0.000,-0.025
714,0.000,-0.040
715,-0.015,-0.040
716,-0.030,-0.010
717,0.015,0.030
718,0.115,0.095
719,0.225,0.165
720,0.290,0.265
721,0.305,0.395
722,0.245,0.405
723,0.155,0.245
724,0.065,0.030
725,0.005,-0.140
726,0.000,-0.175
727,-0.015,-0.135
728,-0.025,-0.095
729,-0.030,-0.085
730,-0.030,-0.085
731,-0.030,-0.085
732,-0.030,-0.085
733,-0.025,-0.085
734,-0.020,-0.085
735,-0.020,-0.080
736,-0.015,-0.075
737,-0.010,-0.070
738,-0.010,-0.055
739,-0.005,-0.040
740,-0.005,-0.025
741,0.000,-0.010
742,0.000,0.000
743,0.000,0.000
744,0.000,0.000
745,0.005,0.010
746,0.005,0.020
747,0.005,0.025
748,0.015,0.030
749,0.015,0.030
750,0.015,0.040
751,0.015,0.045
752,0.015,0.045
753,0.015,0.045
754,0.015,0.040
755,0.015,0.040
756,0.015,0.035
757,0.025,0.030
758,0.030,0.025
759,0.030,0.020
760,0.030,0.015
761,0.035,0.015
762,0.035,0.010
763,0.035,0.000
764,0.035,0.000
765,0.035,0.000
766,0.035,0.000
767,0.035,0.000
768,0.035,0.000
769,0.035,0.000
770,0.030,0.005
771,0.030,0.015
772,0.025,0.015
773,0.025,0.015
774,0.030,0.015
775,0.030,0.010
776,0.045,0.000
777,0.050,0.000
778,0.055,0.000
779,0.050,0.000
780,0.050,0.000
781,0.050,0.000
782,0.055,0.000
783,0.055,0.000
784,0.055,0.000
785,0.055,0.000
786,0.055,0.000
787,0.055,0.000
788,0.055,0.000
789,0.060,0.000
790,0.055,0.000
791,0.055,0.000
792,0.055,0.000
793,0.055,0.000
794,0.060,0.000
795,0.055,0.000
796,0.045,-0.015
797,0.030,-0.015
798,0.025,0.000
799,0.075,0.040
800,0.170,0.090
801,0.275,0.145
802,0.345,0.240
803,0.360,0.370
804,0.300,0.430
805,0.215,0.300
806,0.125,0.080
807,0.060,-0.090
808,0.030,-0.145
809,0.015,-0.105
810,0.005,-0.070
811,0.005,-0.070
812,0.005,-0.070
813,0.005,-0.075
814,0.005,-0.075
815,0.005,-0.080
816,0.005,-0.085
817,0.005,-0.080
818,0.010,-0.075
819,0.010,-0.065
820,0.010,-0.055
821,0.010,-0.045
822,0.010,-0.030
823,0.010,-0.020
824,0.010,-0.010
825,0.010,0.000
826,0.010,0.000
827,0.010,0.000
828,0.010,0.000
829,0.010,0.010
830,0.010,0.015
831,0.005,0.015
832,0.005,0.020
833,0.000,0.025
834,0.000,0.025
835,0.000,0.020
836,0.000,0.020
837,0.000,0.015
838,0.000,0.010
839,0.000,0.005
840,0.000,0.000
841,0.000,0.000
842,0.000,0.000
843,0.000,0.000
844,0.000,0.000
845,0.000,-0.005
846,0.000,-0.005
847,0.000,-0.010
848,0.000,-0.010
849,0.000,-0.005
850,-0.005,0.000
851,-0.010,0.000
852,-0.010,0.000
853,-0.010,0.000
854,-0.010,0.000
855,-0.005,0.000
856,0.000,-0.005
857,0.000,-0.025
858,0.000,-0.030
859,0.000,-0.035
860,0.000,-0.035
861,0.000,-0.025
862,0.000,-0.025
863,0.000,-0.025
864,0.005,-0.030
865,0.000,-0.025
866,0.000,-0.025
867,0.000,-0.025
868,0.000,-0.035
869,0.005,-0.035
870,0.005,-0.035
871,0.005,-0.035
872,0.005,-0.035
873,0.005,-0.035
874,0.005,-0.025
875,0.005,-0.025
876,0.005,-0.030
877,0.000,-0.045
878,-0.010,-0.040
879,-0.010,-0.010
880,0.045,0.025
881,0.150,0.075
882,0.255,0.145
883,0.305,0.260
884,0.305,0.380
885,0.235,0.390
886,0.135,0.245
887,0.055,0.030
888,0.005,-0.125
889,-0.005,-0.160
890,-0.020,-0.125
891,-0.030,-0.090
892,-0.035,-0.090
893,-0.035,-0.090
894,-0.035,-0.095
895,-0.035,-0.095
896,-0.035,-0.095
897,-0.035,-0.095
898,-0.035,-0.090
899,-0.030,-0.080
900,-0.030,-0.075
901,-0.025,-0.060
902,-0.025,-0.045
903,-0.020,-0.025
904,-0.020,-0.010
905,-0.020,0.000
906,-0.015,0.000
907,-0.015,0.000
908,-0.015,0.000
909,-0.015,0.010
910,-0.020,0.020
911,-0.025,0.025
912,-0.030,0.030
913,-0.030,0.035
914,-0.035,0.035
915,-0.035,0.040
916,-0.035,0.045
917,-0.035,0.040
918,-0.035,0.035
919,-0.035,0.025
920,-0.035,0.020
921,-0.035,0.015
922,-0.035,0.010
923,-0.035,0.005
924,-0.035,0.000
925,-0.035,0.000
926,-0.035,0.000
927,-0.035,0.000
928,-0.035,0.000
929,-0.035,0.000
930,-0.035,0.000
931,-0.035,0.000
932,-0.035,0.000
933,-0.040,0.005
934,-0.050,0.005
935,-0.050,0.000
936,-0.045,0.000
937,-0.040,0.000
938,-0.035,0.000
939,-0.035,0.000
940,-0.030,-0.010
941,-0.030,-0.015
942,-0.030,-0.010
943,-0.030,0.000
944,-0.030,0.000
945,-0.015,0.000
946,-0.015,0.000
947,-0.020,0.000
948,-0.020,0.000
949,-0.015,0.000
950,-0.015,-0.005
951,-0.015,-0.010
952,-0.015,-0.015
953,-0.015,-0.015
954,-0.015,-0.010
955,-0.015,-0.010
956,-0.015,-0.010
957,-0.015,-0.005
958,-0.015,-0.010
959,-0.030,-0.025
960,-0.055,-0.020
961,-0.040,0.005
962,0.025,0.055
963,0.125,0.115
964,0.225,0.190
965,0.270,0.305
966,0.255,0.410
967,0.180,0.390
968,0.085,0.220
969,0.010,0.015
970,-0.030,-0.130
971,-0.060,-0.160
972,-0.080,-0.120
973,-0.090,-0.090
974,-0.090,-0.090
975,-0.100,-0.090
976,-0.105,-0.095
977,-0.105,-0.095
978,-0.110,-0.085
979,-0.110,-0.095
980,-0.115,-0.100
981,-0.115,-0.080
982,-0.115,-0.070
983,-0.115,-0.055
984,-0.115,-0.050
985,-0.110,-0.035
986,-0.110,-0.020
987,-0.110,-0.010
988,-0.110,0.000
989,-0.110,0.000
990,-0.110,0.015
991,-0.110,0.000
992,-0.110,0.010
993,-0.115,0.020
994,-0.115,0.025
995,-0.115,0.030
996,-0.115,0.020
997,-0.115,0.025
998,-0.115,0.030
999,-0.115,0.020
1000,-0.115,0.010
1001,-0.110,0.005
1002,-0.110,0.005
1003,-0.105,0.005
1004,-0.105,0.000
1005,-0.105,0.000
1006,-0.100,0.000
1007,-0.095,0.000
1008,-0.090,0.000
1009,-0.085,0.000
1010,-0.085,0.000
1011,-0.085,0.000
1012,-0.085,-0.005
1013,-0.080,0.000
1014,-0.080,0.000
1015,-0.080,0.000
1016,-0.080,0.000
1017,-0.085,0.000
1018,-0.085,0.000
1019,-0.080,0.000
1020,-0.075,0.000
1021,-0.060,0.000
1022,-0.055,-0.005
1023,-0.050,-0.005
1024,-0.040,-0.005
1025,-0.040,-0.005
1026,-0.040,-0.010
1027,-0.040,0.000
1028,-0.035,0.000
1029,-0.030,0.000
1030,-0.030,0.000
1031,-0.020,0.000
1032,-0.015,0.000
1033,-0.015,0.000
1034,-0.010,-0.005
1035,-0.005,-0.010
1036,-0.005,-0.005
1037,-0.005,-0.005
1038,0.000,-0.005
1039,0.000,0.000
1040,0.000,0.000
1041,0.005,-0.005
1042,0.010,-0.020
1043,0.000,-0.020
1044,0.000,-0.005
1045,0.040,0.030
1046,0.135,0.095
1047,0.245,0.170
1048,0.325,0.275
1049,0.355,0.385
1050,0.335,0.425
1051,0.265,0.300
1052,0.185,0.100
1053,0.120,-0.075
1054,0.095,-0.145
1055,0.080,-0.120
1056,0.070,-0.085
1057,0.065,-0.070
1058,0.065,-0.070
1059,0.070,-0.070
1060,0.070,-0.075
1061,0.075,-0.075
1062,0.075,-0.070
1063,0.080,-0.065
1064,0.080,-0.060
1065,0.080,-0.050
1066,0.080,-0.040
1067,0.080,-0.035
1068,0.085,-0.020
1069,0.085,-0.010
1070,0.085,0.000
1071,0.085,0.000
1072,0.085,0.000
1073,0.085,0.010
1074,0.080,0.015
1075,0.080,0.025
1076,0.075,0.035
1077,0.070,0.040
1078,0.065,0.040
1079,0.065,0.045
1080,0.060,0.050
1081,0.060,0.045
1082,0.055,0.045
1083,0.050,0.045
1084,0.050,0.045
1085,0.050,0.035
1086,0.045,0.035
1087,0.045,0.025
1088,0.050,0.020
1089,0.045,0.015
1090,0.040,0.010
1091,0.040,0.010
1092,0.035,0.005
1093,0.035,0.000
1094,0.040,0.000
1095,0.035,0.000
1096,0.030,0.000
1097,0.030,0.000
1098,0.025,0.000
1099,0.015,0.010
1100,0.015,0.010
1101,0.010,0.010
1102,0.010,0.010
1103,0.015,0.005
1104,0.020,0.000
1105,0.030,0.000
1106,0.030,0.000
1107,0.030,0.000
1108,0.030,0.000
1109,0.030,0.000
1110,0.030,0.000
1111,0.030,0.000
1112,0.030,0.000
1113,0.030,0.000
1114,0.025,0.000
1115,0.025,-0.005
1116,0.030,-0.010
1117,0.030,-0.010
1118,0.030,-0.010
1119,0.030,-0.005
1120,0.030,-0.005
1121,0.030,-0.005
1122,0.025,-0.005
1123,0.025,-0.005
1124,0.025,-0.015
1125,0.005,-0.030
1126,-0.005,-0.015
1127,0.010,0.010
1128,0.085,0.055
1129,0.195,0.110
1130,0.285,0.185
1131,0.325,0.310
1132,0.305,0.415
1133,0.225,0.380
1134,0.135,0.210
1135,0.055,0.005
1136,0.010,-0.120
1137,0.000,-0.140
1138,-0.010,-0.100
1139,-0.015,-0.075
1140,-0.020,-0.075
1141,-0.020,-0.085
1142,-0.020,-0.085
1143,-0.020,-0.085
1144,-0.020,-0.085
1145,-0.020,-0.085
1146,-0.020,-0.080
1147,-0.020,-0.070
1148,-0.015,-0.060
1149,-0.015,-0.050
1150,-0.015,-0.035
1151,-0.010,-0.020
1152,-0.010,-0.015
1153,-0.010,-0.005
1154,-0.010,0.000
1155,-0.010,0.000
1156,-0.010,0.000
1157,-0.010,0.010
1158,-0.010,0.015
1159,-0.015,0.020
1160,-0.015,0.025
1161,-0.025,0.030
1162,-0.030,0.035
1163,-0.030,0.035
1164,-0.030,0.030
1165,-0.035,0.030
1166,-0.030,0.025
1167,-0.030,0.020
1168,-0.030,0.015
1169,-0.030,0.005
1170,-0.030,0.005
1171,-0.030,0.000
1172,-0.030,0.000
1173,-0.030,0.000
1174,-0.030,0.000
1175,-0.030,0.000
1176,-0.030,0.000
1177,-0.030,0.000
1178,-0.030,0.000
1179,-0.030,0.000
1180,-0.035,0.000
1181,-0.035,0.000
1182,-0.040,0.000
1183,-0.040,0.000
1184,-0.040,0.000
1185,-0.040,0.000
1186,-0.035,0.000
1187,-0.030,0.000
1188,-0.030,-0.005
1189,-0.025,-0.015
1190,-0.025,-0.020
1191,-0.030,-0.020
1192,-0.030,-0.005
1193,-0.030,-0.010
1194,-0.030,-0.010
1195,-0.030,-0.010
1196,-0.030,-0.010
1197,-0.035,-0.010
1198,-0.035,-0.010
1199,-0.035,-0.030
1200,-0.040,-0.035
1201,-0.040,-0.025
1202,-0.050,-0.030
1203,-0.055,-0.030
1204,-0.060,-0.015
1205,-0.065,-0.015
1206,-0.070,-0.030
1207,-0.080,-0.040
1208,-0.100,-0.050
1209,-0.120,-0.035
1210,-0.090,0.000
1211,-0.010,0.060
1212,0.095,0.135
1213,0.170,0.235
1214,0.195,0.375
1215,0.150,0.445
1216,0.065,0.350
1217,-0.020,0.130
1218,-0.080,-0.070
1219,-0.120,-0.180
1220,-0.140,-0.180
1221,-0.155,-0.135
1222,-0.160,-0.105
1223,-0.160,-0.095
1224,-0.165,-0.100
1225,-0.165,-0.105
1226,-0.160,-0.110
1227,-0.160,-0.105
1228,-0.160,-0.105
1229,-0.160,-0.100
1230,-0.155,-0.085
1231,-0.145,-0.070
1232,-0.145,-0.060
1233,-0.145,-0.045
1234,-0.140,-0.030
1235,-0.135,-0.010
1236,-0.135,0.000
1237,-0.135,0.000
1238,-0.135,0.000
1239,-0.130,0.005
1240,-0.130,0.010
1241,-0.130,0.015
1242,-0.130,0.030
1243,-0.130,0.040
1244,-0.125,0.045
1245,-0.125,0.050
1246,-0.130,0.040
1247,-0.130,0.040
1248,-0.120,0.040
1249,-0.115,0.035
1250,-0.115,0.025
1251,-0.110,0.020
1252,-0.110,0.015
1253,-0.110,0.010
1254,-0.105,0.000
1255,-0.100,0.000
1256,-0.095,0.000
1257,-0.090,0.000
1258,-0.090,0.000
1259,-0.090,0.000
1260,-0.085,0.000
1261,-0.085,0.000
1262,-0.085,0.000
1263,-0.085,0.000
1264,-0.085,0.000
1265,-0.080,0.000
1266,-0.080,0.000
1267,-0.075,0.000
1268,-0.065,0.000
1269,-0.055,0.000
1270,-0.040,0.000
1271,-0.020,0.000
1272,-0.010,-0.005
1273,0.000,-0.005
1274,0.000,0.000
1275,0.005,0.000
1276,0.010,0.000
1277,0.025,0.000
1278,0.035,0.000
1279,0.040,0.000
1280,0.050,0.000
1281,0.055,0.000
1282,0.065,0.000
1283,0.070,-0.005
1284,0.075,-0.010
1285,0.090,-0.005
1286,0.105,-0.005
1287,0.110,0.000
1288,0.110,0.000
1289,0.115,0.000
1290,0.120,-0.005
1291,0.120,-0.020
1292,0.100,-0.025
1293,0.100,0.000
1294,0.150,0.040
1295,0.235,0.095
1296,0.340,0.165
1297,0.405,0.275
1298,0.420,0.400
1299,0.375,0.420
1300,0.285,0.280
1301,0.200,0.080
1302,0.140,-0.080
1303,0.110,-0.130
1304,0.090,-0.105
1305,0.080,-0.070
1306,0.080,-0.060
1307,0.075,-0.060
1308,0.070,-0.065
1309,0.065,-0.065
1310,0.065,-0.070
1311,0.070,-0.070
1312,0.065,-0.065
1313,0.065,-0.055
1314,0.065,-0.050
1315,0.070,-0.040
1316,0.070,-0.030
1317,0.075,-0.010
1318,0.080,0.000
1319,0.075,0.000
1320,0.075,0.000
1321,0.075,0.010
1322,0.075,0.015
1323,0.065,0.020
1324,0.065,0.030
1325,0.065,0.035
1326,0.060,0.040
1327,0.060,0.045
1328,0.060,0.050
1329,0.055,0.050
1330,0.040,0.050
1331,0.040,0.045
1332,0.040,0.045
1333,0.040,0.035
1334,0.035,0.030
1335,0.035,0.025
1336,0.035,0.020
1337,0.030,0.015
1338,0.030,0.010
1339,0.035,0.000
1340,0.035,0.000
1341,0.030,0.000
1342,0.030,0.000
1343,0.030,0.000
1344,0.030,0.000
1345,0.025,0.000
1346,0.020,0.000
1347,0.015,0.000
1348,0.010,0.005
1349,0.005,0.005
1350,0.005,0.000
1351,0.005,0.000
1352,0.010,0.000
1353,0.015,0.000
1354,0.015,-0.010
1355,0.025,-0.010
1356,0.020,-0.005
1357,0.015,0.000
1358,0.020,0.000
1359,0.025,-0.005
1360,0.030,-0.005
1361,0.025,-0.005
1362,0.020,-0.005
1363,0.015,-0.015
1364,0.025,-0.015
1365,0.030,-0.020
1366,0.030,-0.020
1367,0.025,-0.015
1368,0.015,-0.015
1369,0.025,-0.015
1370,0.015,-0.015
1371,0.015,-0.015
1372,0.020,-0.015
1373,0.010,-0.035
1374,0.000,-0.035
1375,0.000,-0.010
1376,0.050,0.030
1377,0.150,0.075
1378,0.255,0.140
1379,0.315,0.240
1380,0.325,0.375
1381,0.260,0.410
1382,0.170,0.295
1383,0.085,0.090
1384,0.020,-0.085
1385,0.000,-0.155
1386,-0.010,-0.135
1387,-0.020,-0.100
1388,-0.030,-0.085
1389,-0.030,-0.085
1390,-0.030,-0.085
1391,-0.030,-0.085
1392,-0.030,-0.085
1393,-0.030,-0.090
1394,-0.025,-0.085
1395,-0.020,-0.080
1396,-0.020,-0.065
1397,-0.015,-0.050
1398,-0.015,-0.040
1399,-0.015,-0.025
1400,-0.015,-0.005
1401,-0.015,0.000
1402,-0.010,0.000
1403,-0.010,0.005
1404,-0.015,0.010
1405,-0.015,0.015
1406,-0.015,0.020
1407,-0.015,0.025
1408,-0.020,0.025
1409,-0.025,0.025
1410,-0.030,0.030
1411,-0.030,0.040
1412,-0.030,0.035
1413,-0.035,0.035
1414,-0.035,0.030
1415,-0.035,0.030
1416,-0.040,0.020
1417,-0.040,0.010
1418,-0.040,0.000
1419,-0.040,0.000
1420,-0.045,0.000
1421,-0.050,0.000
1422,-0.055,0.000
1423,-0.055,0.000
1424,-0.055,-0.005
1425,-0.060,0.000
1426,-0.060,-0.005
1427,-0.070,-0.015
1428,-0.075,-0.015
1429,-0.085,-0.005
1430,-0.095,0.000
1431,-0.105,0.000
1432,-0.105,0.000
1433,-0.110,0.000
1434,-0.115,0.000
1435,-0.110,-0.010
1436,-0.110,-0.020
1437,-0.110,-0.030
1438,-0.115,-0.030
1439,-0.115,-0.035
1440,-0.125,-0.025
1441,-0.130,-0.010
1442,-0.125,-0.020
1443,-0.125,-0.020
1444,-0.130,-0.020
1445,-0.130,-0.015
1446,-0.130,-0.020
1447,-0.130,-0.030
1448,-0.130,-0.030
1449,-0.130,-0.030
1450,-0.130,-0.030
1451,-0.130,-0.025
1452,-0.130,-0.025
1453,-0.130,-0.030
1454,-0.130,-0.030
1455,-0.130,-0.030
1456,-0.130,-0.040
1457,-0.160,-0.045
1458,-0.155,-0.015
1459,-0.080,0.035
1460,0.020,0.110
1461,0.125,0.205
1462,0.180,0.315
1463,0.175,0.435
1464,0.110,0.400
1465,0.025,0.225
1466,-0.045,0.010
1467,-0.095,-0.140
1468,-0.125,-0.170
1469,-0.140,-0.130
1470,-0.145,-0.100
1471,-0.145,-0.095
1472,-0.145,-0.095
1473,-0.140,-0.095
1474,-0.135,-0.095
1475,-0.135,-0.095
1476,-0.135,-0.095
1477,-0.130,-0.090
1478,-0.125,-0.080
1479,-0.115,-0.070
1480,-0.110,-0.055
1481,-0.110,-0.040
1482,-0.105,-0.030
1483,-0.105,-0.015
1484,-0.100,0.000
1485,-0.095,0.000
1486,-0.090,0.000
1487,-0.090,0.005
1488,-0.090,0.010
1489,-0.085,0.020
1490,-0.085,0.030
1491,-0.085,0.035
1492,-0.090,0.035
1493,-0.085,0.035
1494,-0.085,0.040
1495,-0.085,0.035
1496,-0.085,0.035
1497,-0.080,0.025
1498,-0.070,0.025
1499,-0.065,0.015
1500,-0.055,0.010
1501,-0.040,0.000
1502,-0.035,0.000
1503,-0.030,0.000
1504,-0.020,0.000
1505,-0.015,0.000
1506,-0.010,0.000
1507,-0.005,0.000
1508,0.000,0.000
1509,0.000,-0.005
1510,0.000,-0.005
1511,0.000,-0.005
1512,0.005,-0.005
1513,0.010,0.000
1514,0.005,0.000
1515,0.005,0.000
1516,0.010,0.000
1517,0.020,0.000
1518,0.030,0.000
1519,0.040,-0.005
1520,0.050,-0.015
1521,0.055,-0.020
1522,0.060,-0.020
1523,0.065,-0.015
1524,0.080,-0.005
1525,0.085,-0.005
1526,0.085,-0.010
1527,0.085,-0.010
1528,0.085,-0.010
1529,0.085,-0.010
1530,0.085,-0.015
1531,0.085,-0.020
1532,0.085,-0.020
1533,0.085,-0.015
1534,0.090,-0.015
1535,0.085,-0.015
1536,0.085,-0.015
1537,0.085,-0.015
1538,0.085,-0.015
1539,0.090,-0.015
1540,0.075,-0.035
1541,0.045,-0.030
1542,0.055,0.000
1543,0.135,0.050
1544,0.235,0.095
1545,0.325,0.170
1546,0.380,0.285
1547,0.375,0.405
1548,0.305,0.370
1549,0.210,0.210
1550,0.130,0.005
1551,0.080,-0.120
1552,0.055,-0.145
1553,0.040,-0.105
1554,0.030,-0.075
1555,0.030,-0.070
1556,0.030,-0.070
1557,0.025,-0.075
1558,0.025,-0.075
1559,0.025,-0.075
1560,0.025,-0.075
1561,0.025,-0.070
1562,0.025,-0.060
1563,0.025,-0.045
1564,0.025,-0.035
1565,0.030,-0.025
1566,0.030,-0.010
1567,0.025,0.000
1568,0.025,0.000
1569,0.030,0.000
1570,0.030,0.015
1571,0.025,0.020
1572,0.020,0.035
1573,0.015,0.045
1574,0.015,0.045
1575,0.015,0.050
1576,0.010,0.050
1577,0.005,0.055
1578,0.005,0.055
1579,0.005,0.050
1580,0.005,0.050
1581,0.005,0.045
1582,0.005,0.035
1583,0.000,0.035
1584,0.000,0.030
1585,0.000,0.015
1586,0.000,0.015
1587,0.000,0.005
1588,0.000,0.000
1589,0.000,0.000
1590,0.000,0.000
1591,0.000,0.000
1592,0.000,0.000
1593,0.000,0.000
1594,0.000,0.000
1595,-0.005,0.000
1596,-0.010,0.000
1597,-0.015,0.000
1598,-0.025,0.000
1599,-0.030,0.000
1600,-0.035,0.000
1601,-0.035,0.000
1602,-0.030,0.000
1603,-0.030,-0.015
1604,-0.030,-0.025
1605,-0.030,-0.015
1606,-0.035,-0.015
1607,-0.045,-0.020
1608,-0.050,-0.020
1609,-0.055,-0.015
1610,-0.060,-0.005
1611,-0.070,-0.010
1612,-0.075,-0.015
1613,-0.085,-0.010
1614,-0.085,-0.015
1615,-0.090,-0.035
1616,-0.090,-0.030
1617,-0.095,-0.025
1618,-0.095,-0.020
1619,-0.100,-0.025
1620,-0.100,-0.020
1621,-0.105,-0.020
1622,-0.105,-0.020
1623,-0.105,-0.050
1624,-0.135,-0.040
1625,-0.130,-0.010
1626,-0.050,0.035
1627,0.045,0.105
1628,0.145,0.200
1629,0.190,0.305
1630,0.190,0.425
1631,0.115,0.395
1632,0.025,0.225
1633,-0.040,0.010
1634,-0.090,-0.140
1635,-0.115,-0.180
1636,-0.130,-0.145
1637,-0.135,-0.110
1638,-0.140,-0.090
1639,-0.140,-0.090
1640,-0.130,-0.090
1641,-0.130,-0.095
1642,-0.130,-0.090
1643,-0.130,-0.090
1644,-0.130,-0.085
1645,-0.125,-0.075
1646,-0.115,-0.070
1647,-0.110,-0.060
1648,-0.105,-0.045
1649,-0.105,-0.025
1650,-0.100,-0.005
1651,-0.095,0.000
1652,-0.090,0.000
1653,-0.085,0.000
1654,-0.085,0.010
1655,-0.080,0.020
1656,-0.075,0.025
1657,-0.070,0.035
1658,-0.065,0.040
1659,-0.060,0.040
1660,-0.055,0.045
1661,-0.050,0.045
1662,-0.045,0.045
1663,-0.035,0.040
1664,-0.035,0.035
1665,-0.025,0.030
1666,-0.015,0.020
1667,-0.010,0.015
1668,-0.010,0.015
1669,0.000,0.005
1670,0.000,0.000
1671,0.000,0.000
1672,0.010,0.000
1673,0.020,0.000
1674,0.030,0.000
1675,0.035,0.000
1676,0.045,0.000
1677,0.060,0.000
1678,0.070,0.000
1679,0.075,0.000
1680,0.075,0.000
1681,0.065,0.000
1682,0.065,0.000
1683,0.070,0.000
1684,0.075,0.000
1685,0.085,0.000
1686,0.090,0.000
1687,0.095,0.000
1688,0.105,-0.010
1689,0.105,-0.015
1690,0.105,-0.005
1691,0.105,0.000
1692,0.105,0.000
1693,0.110,0.000
1694,0.110,-0.005
1695,0.110,-0.005
1696,0.110,-0.005
1697,0.110,-0.010
1698,0.110,-0.010
1699,0.110,-0.015
1700,0.110,-0.015
1701,0.110,-0.015
1702,0.110,-0.010
1703,0.105,-0.005
1704,0.105,-0.005
1705,0.105,-0.010
1706,0.105,-0.020
1707,0.100,-0.030
1708,0.075,-0.040
1709,0.075,-0.010
1710,0.135,0.020
1711,0.235,0.065
1712,0.340,0.145
1713,0.385,0.250
1714,0.395,0.400
1715,0.330,0.430
1716,0.240,0.280
1717,0.155,0.055
1718,0.095,-0.110
1719,0.065,-0.155
1720,0.045,-0.125
1721,0.035,-0.095
1722,0.030,-0.085
1723,0.030,-0.085
1724,0.025,-0.085
1725,0.025,-0.095
1726,0.025,-0.090
1727,0.025,-0.085
1728,0.025,-0.085
1729,0.030,-0.080
1730,0.025,-0.075
1731,0.025,-0.065
1732,0.030,-0.050
1733,0.030,-0.035
1734,0.030,-0.020
1735,0.030,-0.005
1736,0.025,0.000
1737,0.025,0.000
1738,0.030,0.000
1739,0.025,0.005
1740,0.020,0.010
1741,0.020,0.020
1742,0.015,0.020
1743,0.015,0.020
1744,0.010,0.020
1745,0.010,0.025
1746,0.005,0.020
1747,0.005,0.015
1748,0.005,0.015
1749,0.005,0.010
1750,0.005,0.000
1751,0.005,0.000
1752,0.005,0.000
1753,0.005,0.000
1754,0.005,0.000
1755,0.005,0.000
1756,0.005,-0.005
1757,0.000,-0.005
1758,0.000,-0.010
1759,0.000,-0.010
1760,0.000,-0.015
1761,0.000,-0.015
1762,0.000,-0.015
1763,0.000,0.000
1764,-0.005,0.000
1765,-0.005,0.000
1766,-0.010,0.000
1767,-0.005,0.000
1768,0.000,-0.005
1769,0.000,-0.015
1770,0.000,-0.030
1771,0.005,-0.035
1772,0.005,-0.030
1773,0.005,-0.025
1774,0.005,-0.020
1775,0.005,-0.025
1776,0.005,-0.020
1777,0.005,-0.020
1778,0.005,-0.020
1779,0.005,-0.020
1780,0.005,-0.020
1781,0.005,-0.025
1782,0.010,-0.030
1783,0.005,-0.030
1784,0.005,-0.025
1785,0.005,-0.020
1786,0.005,-0.020
1787,0.005,-0.020
1788,0.005,-0.020
1789,0.005,-0.030
1790,0.000,-0.050
1791,-0.025,-0.045
1792,-0.010,-0.005
1793,0.065,0.035
1794,0.170,0.085
1795,0.270,0.165
1796,0.310,0.285
1797,0.295,0.420
1798,0.220,0.405
1799,0.130,0.230
1800,0.050,0.020
1801,0.005,-0.120
1802,-0.010,-0.150
1803,-0.025,-0.115
1804,-0.030,-0.085
1805,-0.035,-0.070
1806,-0.035,-0.080
1807,-0.035,-0.090
1808,-0.035,-0.095
1809,-0.035,-0.095
1810,-0.035,-0.085
1811,-0.035,-0.075
1812,-0.035,-0.065
1813,-0.030,-0.055
1814,-0.030,-0.050
1815,-0.030,-0.040
1816,-0.030,-0.025
1817,-0.030,-0.010
1818,-0.030,0.000
1819,-0.030,0.000
1820,-0.030,0.000
1821,-0.035,0.000
1822,-0.035,0.005
1823,-0.035,0.020
1824,-0.040,0.020
1825,-0.045,0.020
1826,-0.055,0.035
1827,-0.055,0.035
1828,-0.060,0.035
1829,-0.060,0.035
1830,-0.065,0.030
1831,-0.070,0.015
1832,-0.070,0.015
1833,-0.080,0.020
1834,-0.085,0.000
1835,-0.085,0.000
1836,-0.085,0.000
1837,-0.085,0.000
1838,-0.100,0.000
1839,-0.105,-0.005
1840,-0.110,-0.010
1841,-0.120,-0.010
1842,-0.125,-0.010
1843,-0.130,-0.010
1844,-0.135,-0.010
1845,-0.140,-0.010
1846,-0.150,-0.010
1847,-0.155,0.000
1848,-0.155,0.000
1849,-0.160,0.000
1850,-0.165,0.000
1851,-0.160,0.000
1852,-0.150,-0.005
1853,-0.145,-0.020
1854,-0.140,-0.025
1855,-0.140,-0.025
1856,-0.140,-0.030
1857,-0.145,-0.020
1858,-0.140,-0.010
1859,-0.140,-0.015
1860,-0.140,-0.015
1861,-0.145,-0.020
1862,-0.145,-0.015
1863,-0.140,-0.020
1864,-0.140,-0.020
1865,-0.135,-0.030
1866,-0.135,-0.035
1867,-0.135,-0.030
1868,-0.135,-0.030
1869,-0.135,-0.025
1870,-0.135,-0.015
1871,-0.130,-0.020
1872,-0.130,-0.020
1873,-0.130,-0.035
1874,-0.135,-0.045
1875,-0.160,-0.040
1876,-0.140,0.000
1877,-0.050,0.050
1878,0.045,0.130
1879,0.150,0.225
1880,0.195,0.355
1881,0.175,0.455
1882,0.095,0.380
1883,0.005,0.180
1884,-0.055,-0.030
1885,-0.105,-0.155
1886,-0.125,-0.165
1887,-0.135,-0.125
1888,-0.140,-0.100
1889,-0.140,-0.095
1890,-0.135,-0.095
1891,-0.135,-0.095
1892,-0.130,-0.095
1893,-0.120,-0.095
1894,-0.110,-0.095
1895,-0.100,-0.090
1896,-0.090,-0.080
1897,-0.080,-0.065
1898,-0.065,-0.050
1899,-0.050,-0.040
1900,-0.035,-0.025
1901,-0.020,-0.010
1902,-0.010,0.000
1903,-0.005,0.000
1904,0.000,0.000
1905,0.005,0.010
1906,0.010,0.015
1907,0.025,0.020
1908,0.030,0.035
1909,0.040,0.035
1910,0.040,0.045
1911,0.055,0.045
1912,0.075,0.040
1913,0.080,0.040
1914,0.085,0.035
1915,0.090,0.035
1916,0.090,0.030
1917,0.090,0.020
1918,0.095,0.015
1919,0.100,0.010
1920,0.105,0.005
1921,0.105,0.000
1922,0.105,0.000
1923,0.105,0.000
1924,0.105,0.000
1925,0.105,0.000
1926,0.105,0.000
1927,0.105,0.000
1928,0.105,-0.005
1929,0.105,-0.010
1930,0.095,0.000
1931,0.090,0.000
1932,0.085,0.000
1933,0.085,0.000
1934,0.080,0.000
1935,0.080,0.000
1936,0.080,0.000
1937,0.085,0.000
1938,0.090,-0.005
1939,0.090,-0.010
1940,0.090,-0.015
1941,0.090,-0.010
1942,0.090,-0.005
1943,0.090,0.000
1944,0.090,-0.005
1945,0.090,-0.005
1946,0.085,-0.005
1947,0.085,-0.005
1948,0.085,-0.010
1949,0.085,-0.010
1950,0.085,-0.015
1951,0.085,-0.010
1952,0.080,-0.010
1953,0.080,-0.015
1954,0.080,-0.010
1955,0.080,-0.005
1956,0.075,-0.005
1957,0.070,-0.010
1958,0.060,-0.030
1959,0.035,-0.035
1960,0.035,-0.010
1961,0.100,0.020
1962,0.200,0.075
1963,0.310,0.150
1964,0.360,0.260
1965,0.365,0.420
1966,0.295,0.440
1967,0.200,0.290
1968,0.120,0.060
1969,0.055,-0.110
1970,0.030,-0.155
1971,0.010,-0.130
1972,0.005,-0.090
1973,0.000,-0.085
1974,0.000,-0.090
1975,0.000,-0.095
1976,0.000,-0.095
1977,0.000,-0.095
1978,0.000,-0.095
1979,0.000,-0.090
1980,0.000,-0.085
1981,0.005,-0.075
1982,0.005,-0.065
1983,0.005,-0.055
1984,0.005,-0.040
1985,0.005,-0.020
1986,0.010,-0.005
1987,0.010,0.000
1988,0.010,0.000
1989,0.010,0.000
1990,0.005,0.005
1991,0.005,0.005
1992,0.005,0.015
1993,0.000,0.025
1994,0.000,0.030
1995,0.000,0.040
1996,0.000,0.040
1997,0.000,0.040
1998,0.000,0.030
1999,0.000,0.030
2000,-0.005,0.025
2001,-0.005,0.020
2002,-0.005,0.015
2003,0.000,0.000
2004,0.000,0.000
2005,0.000,0.000
2006,0.000,0.000
2007,0.000,0.000
2008,-0.005,0.000
2009,0.000,0.000
2010,0.000,-0.005
2011,0.000,-0.005
2012,-0.005,-0.010
2013,-0.005,-0.010
2014,-0.005,0.000
2015,-0.010,0.000
2016,-0.010,0.000
2017,-0.015,0.000
2018,-0.015,0.000
2019,-0.015,0.000
2020,-0.005,0.000
2021,0.000,-0.010
2022,0.000,-0.020
2023,0.000,-0.025
2024,0.000,-0.020
2025,0.000,-0.010
2026,0.000,-0.010
2027,0.000,-0.015
2028,0.000,-0.015
2029,0.000,-0.010
2030,0.000,-0.010
2031,0.000,-0.010
2032,0.000,-0.020
2033,0.000,-0.020
2034,0.000,-0.020
2035,0.000,-0.015
2036,0.000,-0.015
2037,0.000,-0.010
2038,-0.005,-0.010
2039,-0.005,-0.010
2040,-0.005,-0.010
2041,-0.005,-0.030
2042,-0.015,-0.040
2043,-0.040,-0.015
2044,0.000,0.015
2045,0.085,0.065
2046,0.200,0.130
2047,0.280,0.220
2048,0.310,0.375
2049,0.250,0.450
2050,0.155,0.345
2051,0.070,0.135
2052,0.005,-0.065
2053,-0.020,-0.150
2054,-0.040,-0.135
2055,-0.050,-0.105
2056,-0.055,-0.080
2057,-0.060,-0.080
2058,-0.065,-0.090
2059,-0.065,-0.085
2060,-0.065,-0.080
2061,-0.065,-0.085
2062,-0.065,-0.090
2063,-0.065,-0.085
2064,-0.065,-0.070
2065,-0.065,-0.055
2066,-0.065,-0.040
2067,-0.065,-0.030
2068,-0.070,-0.010
2069,-0.070,0.000
2070,-0.075,0.000
2071,-0.080,0.000
2072,-0.085,0.005
2073,-0.090,0.015
2074,-0.095,0.015
2075,-0.100,0.020
2076,-0.110,0.030
2077,-0.115,0.040
2078,-0.125,0.040
2079,-0.130,0.035
2080,-0.140,0.035
2081,-0.145,0.030
2082,-0.150,0.030
2083,-0.155,0.025
2084,-0.160,0.020
2085,-0.160,0.010
2086,-0.160,0.005
2087,-0.155,0.000
2088,-0.155,0.000
2089,-0.155,0.000
2090,-0.155,0.000
2091,-0.155,0.000
2092,-0.160,0.000
2093,-0.160,-0.005
2094,-0.160,-0.010
2095,-0.160,-0.015
2096,-0.160,-0.015
2097,-0.160,-0.010
2098,-0.165,-0.010
2099,-0.165,0.000
2100,-0.170,-0.005
2101,-0.175,0.000
2102,-0.180,0.000
2103,-0.170,0.000
2104,-0.160,0.000
2105,-0.155,-0.010
2106,-0.145,-0.020
2107,-0.145,-0.020
2108,-0.140,-0.020
2109,-0.140,-0.010
2110,-0.135,-0.005
2111,-0.135,-0.015
2112,-0.130,-0.015
2113,-0.130,-0.015
2114,-0.125,-0.010
2115,-0.120,-0.005
2116,-0.110,-0.015
2117,-0.105,-0.025
2118,-0.105,-0.015
2119,-0.100,-0.010
2120,-0.095,-0.010
2121,-0.090,-0.010
2122,-0.090,-0.015
2123,-0.085,-0.010
2124,-0.085,-0.010
2125,-0.090,-0.020
2126,-0.105,-0.035
2127,-0.120,-0.025
2128,-0.080,0.005
2129,0.000,0.080
2130,0.110,0.155
2131,0.195,0.255
2132,0.230,0.395
2133,0.200,0.470
2134,0.120,0.350
2135,0.025,0.130
2136,-0.025,-0.070
2137,-0.055,-0.170
2138,-0.060,-0.145
2139,-0.065,-0.105
2140,-0.060,-0.085
2141,-0.055,-0.085
2142,-0.040,-0.085
2143,-0.030,-0.090
2144,-0.020,-0.085
2145,-0.005,-0.085
2146,0.000,-0.085
2147,0.005,-0.085
2148,0.015,-0.075
2149,0.030,-0.065
2150,0.045,-0.050
2151,0.055,-0.035
2152,0.075,-0.020
2153,0.100,-0.010
2154,0.115,0.000
2155,0.120,0.000
2156,0.130,0.000
2157,0.125,0.005
2158,0.120,0.010
2159,0.125,0.015
2160,0.125,0.025
2161,0.125,0.025
2162,0.125,0.035
2163,0.120,0.035
2164,0.115,0.035
2165,0.115,0.030
2166,0.115,0.025
2167,0.115,0.020
2168,0.115,0.010
2169,0.110,0.010
2170,0.110,0.005
2171,0.110,0.000
2172,0.110,0.000
2173,0.110,0.000
2174,0.110,0.000
2175,0.105,0.000
2176,0.105,-0.005
2177,0.105,-0.005
2178,0.105,-0.005
2179,0.100,-0.005
2180,0.095,-0.005
2181,0.090,-0.005
2182,0.085,-0.005
2183,0.075,0.000
2184,0.065,0.000
2185,0.065,0.000
2186,0.065,0.000
2187,0.065,0.000
2188,0.075,0.000
2189,0.080,-0.005
2190,0.080,-0.010
2191,0.085,-0.015
2192,0.080,-0.015
2193,0.080,-0.005
2194,0.080,0.000
2195,0.080,-0.010
2196,0.080,-0.010
2197,0.080,0.000
2198,0.080,0.000
2199,0.080,-0.010
2200,0.080,-0.015
2201,0.080,-0.020
2202,0.080,-0.015
2203,0.075,-0.015
2204,0.065,-0.015
2205,0.065,-0.010
2206,0.065,-0.010
2207,0.060,-0.010
2208,0.060,-0.015
2209,0.060,-0.025
2210,0.040,-0.035
2211,0.020,-0.025
2212,0.060,0.005
2213,0.150,0.060
2214,0.255,0.115
2215,0.340,0.205
2216,0.370,0.345
2217,0.325,0.460
2218,0.235,0.375
2219,0.140,0.165
2220,0.070,-0.050
2221,0.030,-0.155
2222,0.015,-0.155
2223,0.005,-0.110
2224,0.000,-0.100
2225,0.000,-0.095
2226,0.000,-0.095
2227,0.000,-0.100
2228,0.000,-0.105
2229,0.000,-0.095
2230,0.000,-0.095
2231,0.000,-0.090
2232,0.000,-0.085
2233,0.000,-0.075
2234,0.000,-0.060
2235,0.000,-0.040
2236,0.000,-0.025
2237,0.000,-0.015
2238,0.005,0.000
2239,0.005,0.000
2240,0.005,0.000
2241,0.000,0.000
2242,0.000,0.000
2243,0.000,0.010
2244,0.000,0.015
2245,0.000,0.025
2246,0.000,0.025
2247,-0.005,0.030
2248,-0.005,0.030
2249,-0.005,0.025
2250,-0.005,0.020
2251,-0.005,0.015
2252,-0.005,0.005
2253,-0.005,0.000
2254,-0.010,0.000
2255,-0.005,0.000
2256,-0.005,0.000
2257,-0.005,0.000
2258,-0.005,0.000
2259,-0.005,0.000
2260,-0.005,-0.010
2261,-0.005,-0.010
2262,-0.005,-0.015
2263,-0.005,-0.010
2264,-0.010,-0.010
2265,-0.010,-0.010
2266,-0.010,-0.010
2267,-0.015,0.000
2268,-0.015,0.000
2269,-0.020,0.000
2270,-0.025,0.000
2271,-0.015,0.000
2272,-0.010,0.000
2273,-0.005,-0.015
2274,0.000,-0.020
2275,0.000,-0.030
2276,0.000,-0.025
2277,0.000,-0.010
2278,0.000,-0.010
2279,0.000,-0.010
2280,0.000,-0.010
2281,0.000,-0.010
2282,0.000,-0.010
2283,0.000,-0.010
2284,0.000,-0.010
2285,0.000,-0.015
2286,0.000,-0.010
2287,0.000,-0.010
2288,0.000,-0.015
2289,0.000,-0.010
2290,0.000,-0.010
2291,0.000,-0.010
2292,0.000,-0.015
2293,-0.005,-0.025
2294,-0.020,-0.035
2295,-0.040,-0.020
2296,0.000,0.020
2297,0.085,0.070
2298,0.195,0.125
2299,0.265,0.225
2300,0.295,0.370
2301,0.245,0.455
2302,0.150,0.345
2303,0.055,0.130
2304,0.000,-0.070
2305,-0.030,-0.165
2306,-0.050,-0.145
2307,-0.065,-0.100
2308,-0.075,-0.090
2309,-0.080,-0.090
2310,-0.085,-0.090
2311,-0.085,-0.105
2312,-0.085,-0.095
2313,-0.090,-0.085
2314,-0.100,-0.090
2315,-0.105,-0.080
2316,-0.105,-0.070
2317,-0.110,-0.065
2318,-0.115,-0.050
2319,-0.125,-0.040
2320,-0.130,-0.030
2321,-0.130,-0.015
2322,-0.135,0.000
2323,-0.135,0.000
2324,-0.140,0.005
2325,-0.150,0.015
2326,-0.155,0.020
2327,-0.160,0.020
2328,-0.160,0.025
2329,-0.160,0.030
2330,-0.165,0.035
2331,-0.165,0.040
2332,-0.170,0.045
2333,-0.170,0.040
2334,-0.170,0.030
2335,-0.170,0.025
2336,-0.165,0.010
2337,-0.165,0.000
2338,-0.165,0.000
2339,-0.165,0.000
2340,-0.165,0.000
2341,-0.165,0.000
2342,-0.165,0.000
2343,-0.160,0.000
2344,-0.160,-0.010
2345,-0.160,-0.010
2346,-0.155,-0.010
2347,-0.155,-0.010
2348,-0.155,-0.010
2349,-0.155,-0.010
2350,-0.150,-0.010
2351,-0.145,-0.005
2352,-0.150,0.000
2353,-0.155,0.000
2354,-0.155,0.000
2355,-0.145,0.000
2356,-0.140,0.000
2357,-0.130,0.000
2358,-0.120,-0.005
2359,-0.115,-0.010
2360,-0.105,-0.015
2361,-0.105,-0.015
2362,-0.095,-0.005
2363,-0.090,0.000
2364,-0.085,-0.010
2365,-0.085,-0.005
2366,-0.080,-0.005
2367,-0.080,0.000
2368,-0.075,-0.005
2369,-0.070,-0.010
2370,-0.060,-0.015
2371,-0.060,-0.015
2372,-0.055,-0.015
2373,-0.045,-0.015
2374,-0.040,-0.010
2375,-0.035,-0.005
2376,-0.025,0.000
2377,-0.010,0.000
2378,-0.010,-0.020
2379,-0.015,-0.030
2380,-0.025,-0.020
2381,0.015,0.015
2382,0.110,0.080
2383,0.230,0.150
2384,0.325,0.250
2385,0.360,0.385
2386,0.335,0.465
2387,0.270,0.335
2388,0.195,0.125
2389,0.140,-0.070
2390,0.120,-0.165
2391,0.105,-0.140
2392,0.095,-0.095
2393,0.090,-0.085
2394,0.090,-0.085
2395,0.090,-0.085
2396,0.090,-0.085
2397,0.090,-0.085
2398,0.095,-0.085
2399,0.100,-0.085
2400,0.100,-0.075
2401,0.105,-0.065
2402,0.105,-0.055
2403,0.105,-0.040
2404,0.105,-0.025
2405,0.105,-0.015
2406,0.105,-0.005
2407,0.105,0.000
2408,0.105,0.000
2409,0.100,0.000
2410,0.095,0.010
2411,0.090,0.015
2412,0.090,0.020
2413,0.085,0.025
2414,0.085,0.030
2415,0.080,0.035
2416,0.080,0.035
2417,0.075,0.035
2418,0.075,0.035
2419,0.075,0.030
2420,0.070,0.025
2421,0.065,0.020
2422,0.065,0.010
2423,0.060,0.005
2424,0.060,0.000
2425,0.060,0.000
2426,0.060,0.000
2427,0.055,0.000
2428,0.055,0.000
2429,0.055,0.000
2430,0.055,-0.005
2431,0.055,-0.005
2432,0.055,-0.005
2433,0.050,-0.005
2434,0.040,-0.005
2435,0.035,0.000
2436,0.030,0.000
2437,0.030,0.000
2438,0.025,0.000
2439,0.025,0.000
2440,0.025,0.000
2441,0.030,0.000
2442,0.035,-0.015
2443,0.040,-0.020
2444,0.040,-0.020
2445,0.040,-0.015
2446,0.040,-0.005
2447,0.040,-0.010
2448,0.040,-0.015
2449,0.040,-0.015
2450,0.040,-0.005
2451,0.035,-0.005
2452,0.035,-0.015
2453,0.040,-0.025
2454,0.040,-0.025
2455,0.035,-0.025
2456,0.035,-0.020
2457,0.040,-0.015
2458,0.035,-0.015
2459,0.035,-0.010
2460,0.035,-0.010
2461,0.035,-0.010
2462,0.030,-0.030
2463,0.010,-0.040
2464,0.005,-0.020
2465,0.050,0.015
2466,0.145,0.065
2467,0.250,0.125
2468,0.320,0.215
2469,0.340,0.355
2470,0.285,0.440
2471,0.195,0.340
2472,0.105,0.130
2473,0.035,-0.070
2474,0.005,-0.160
2475,0.000,-0.145
2476,-0.010,-0.105
2477,-0.015,-0.085
2478,-0.015,-0.090
2479,-0.015,-0.095
2480,-0.015,-0.095
2481,-0.015,-0.095
2482,-0.015,-0.095
2483,-0.015,-0.095
2484,-0.015,-0.090
2485,-0.015,-0.075
2486,-0.015,-0.065
2487,-0.010,-0.050
2488,-0.010,-0.035
2489,-0.010,-0.020
2490,-0.010,-0.005
2491,-0.010,0.000
2492,-0.010,0.000
2493,-0.010,0.000
2494,-0.010,0.005
2495,-0.015,0.015
2496,-0.015,0.020
2497,-0.015,0.020
2498,-0.020,0.025
2499,-0.030,0.030
2500,-0.030,0.030
2501,-0.030,0.030
2502,-0.035,0.030
2503,-0.030,0.025
2504,-0.030,0.020
2505,-0.035,0.015
2506,-0.035,0.010
2507,-0.035,0.005
2508,-0.035,0.000
2509,-0.035,0.000
2510,-0.035,0.000
2511,-0.035,0.000
2512,-0.035,0.000
2513,-0.035,0.000
2514,-0.035,-0.005
2515,-0.035,-0.015
2516,-0.040,-0.015
2517,-0.040,-0.010
2518,-0.040,-0.010
2519,-0.050,-0.005
2520,-0.055,-0.005
2521,-0.060,0.000
2522,-0.060,0.000
2523,-0.060,0.000
2524,-0.065,0.000
2525,-0.060,-0.005
2526,-0.055,-0.020
2527,-0.055,-0.025
2528,-0.055,-0.025
2529,-0.055,-0.025
2530,-0.060,-0.010
2531,-0.060,-0.010
2532,-0.065,-0.010
2533,-0.065,-0.020
2534,-0.075,-0.020
2535,-0.080,-0.010
2536,-0.085,-0.020
2537,-0.090,-0.030
2538,-0.095,-0.025
2539,-0.100,-0.020
2540,-0.105,-0.020
2541,-0.115,-0.025
2542,-0.120,-0.020
2543,-0.125,-0.015
2544,-0.130,-0.015
2545,-0.130,-0.030
2546,-0.130,-0.040
2547,-0.150,-0.045
2548,-0.165,-0.025
2549,-0.115,0.015
2550,-0.015,0.085
2551,0.080,0.170
2552,0.155,0.270
2553,0.170,0.410
2554,0.120,0.460
2555,0.025,0.330
2556,-0.055,0.105
2557,-0.125,-0.105
2558,-0.155,-0.190
2559,-0.175,-0.155
2560,-0.190,-0.105
2561,-0.190,-0.095
2562,-0.190,-0.095
2563,-0.195,-0.100
2564,-0.195,-0.095
2565,-0.195,-0.095
2566,-0.190,-0.095
2567,-0.190,-0.095
2568,-0.185,-0.085
2569,-0.185,-0.070
2570,-0.185,-0.065
2571,-0.175,-0.050
2572,-0.170,-0.020
2573,-0.165,-0.015
2574,-0.165,0.000
2575,-0.160,0.000
2576,-0.155,0.000
2577,-0.150,0.005
2578,-0.150,0.020
2579,-0.140,0.035
2580,-0.140,0.035
2581,-0.140,0.040
2582,-0.135,0.045
2583,-0.135,0.045
2584,-0.140,0.050
2585,-0.140,0.050
2586,-0.135,0.045
2587,-0.130,0.035
2588,-0.130,0.035
2589,-0.130,0.030
2590,-0.125,0.025
2591,-0.115,0.020
2592,-0.110,0.010
2593,-0.110,0.000
2594,-0.105,0.000
2595,-0.100,0.000
2596,-0.095,0.000
2597,-0.090,0.000
2598,-0.085,0.000
2599,-0.085,0.000
2600,-0.080,0.000
2601,-0.065,0.000
2602,-0.060,0.000
2603,-0.055,0.000
2604,-0.055,0.000
2605,-0.045,0.000
2606,-0.040,0.000
2607,-0.025,0.000
2608,-0.015,0.000
2609,-0.005,0.000
2610,0.000,0.000
2611,0.020,0.000
2612,0.040,0.000
2613,0.055,0.000
2614,0.065,0.000
2615,0.080,0.000
2616,0.095,0.000
2617,0.105,0.000
2618,0.120,-0.005
2619,0.135,0.000
2620,0.140,0.000
2621,0.140,0.000
2622,0.145,-0.005
2623,0.155,-0.010
2624,0.160,-0.010
2625,0.160,-0.010
2626,0.160,-0.010
2627,0.160,-0.005
2628,0.160,0.000
2629,0.160,0.000
2630,0.160,-0.005
2631,0.155,-0.020
2632,0.140,-0.035
2633,0.130,-0.025
2634,0.150,0.005
2635,0.220,0.050
2636,0.320,0.110
2637,0.410,0.205
2638,0.440,0.335
2639,0.420,0.450
2640,0.340,0.390
2641,0.245,0.195
2642,0.165,-0.025
2643,0.115,-0.145
2644,0.090,-0.140
2645,0.080,-0.095
2646,0.075,-0.080
2647,0.065,-0.080
2648,0.065,-0.085
2649,0.065,-0.090
2650,0.065,-0.085
2651,0.060,-0.085
2652,0.060,-0.085
2653,0.060,-0.085
2654,0.060,-0.070
2655,0.060,-0.060
2656,0.060,-0.045
2657,0.060,-0.035
2658,0.065,-0.020
2659,0.065,-0.005
2660,0.065,0.000
2661,0.065,0.000
2662,0.060,0.000
2663,0.060,0.005
2664,0.060,0.015
2665,0.055,0.020
2666,0.055,0.025
2667,0.050,0.035
2668,0.050,0.035
2669,0.045,0.035
2670,0.035,0.035
2671,0.035,0.030
2672,0.035,0.025
2673,0.035,0.020
2674,0.030,0.015
2675,0.030,0.010
2676,0.030,0.000
2677,0.030,0.000
2678,0.030,0.000
2679,0.030,0.000
2680,0.025,0.000
2681,0.025,0.000
2682,0.025,-0.005
2683,0.020,-0.010
2684,0.015,-0.010
2685,0.015,-0.010
2686,0.015,-0.010
2687,0.010,-0.005
2688,0.010,-0.005
2689,0.005,0.000
2690,0.000,0.000
2691,0.000,0.000
2692,0.000,0.000
2693,0.000,0.000
2694,0.005,-0.005
2695,0.010,-0.015
2696,0.020,-0.025
2697,0.015,-0.025
2698,0.015,-0.020
2699,0.015,-0.005
2700,0.015,-0.005
2701,0.015,-0.010
2702,0.015,-0.010
2703,0.015,-0.010
2704,0.015,-0.005
2705,0.015,-0.010
2706,0.015,-0.015
2707,0.015,-0.015
2708,0.015,-0.015
2709,0.015,-0.015
2710,0.010,-0.010
2711,0.010,-0.005
2712,0.005,-0.005
2713,0.005,-0.005
2714,0.010,-0.010
2715,0.005,-0.025
2716,-0.010,-0.030
2717,-0.020,-0.010
2718,0.025,0.025
2719,0.120,0.075
2720,0.225,0.130
2721,0.295,0.235
2722,0.315,0.370
2723,0.265,0.440
2724,0.170,0.340
2725,0.085,0.140
2726,0.015,-0.055
2727,-0.005,-0.145
2728,-0.015,-0.125
2729,-0.035,-0.080
2730,-0.035,-0.075
2731,-0.035,-0.075
2732,-0.035,-0.080
2733,-0.040,-0.080
2734,-0.040,-0.080
2735,-0.035,-0.080
2736,-0.035,-0.080
2737,-0.035,-0.070
2738,-0.035,-0.070
2739,-0.035,-0.045
2740,-0.035,-0.025
2741,-0.035,-0.020
2742,-0.035,-0.010
2743,-0.035,0.000
2744,-0.035,0.000
2745,-0.035,0.000
2746,-0.040,0.010
2747,-0.045,0.020
2748,-0.045,0.030
2749,-0.050,0.035
2750,-0.060,0.035
2751,-0.060,0.035
2752,-0.070,0.040
2753,-0.075,0.045
2754,-0.080,0.040
2755,-0.085,0.035
2756,-0.095,0.030
2757,-0.105,0.030
2758,-0.105,0.015
2759,-0.115,0.000
2760,-0.125,0.000
2761,-0.130,0.000
2762,-0.130,0.000
2763,-0.140,0.000
2764,-0.145,0.000
2765,-0.155,0.000
2766,-0.155,0.000
2767,-0.155,-0.005
2768,-0.160,-0.010
2769,-0.160,-0.010
2770,-0.160,-0.015
2771,-0.165,-0.015
2772,-0.165,0.000
2773,-0.170,0.000
2774,-0.170,0.000
2775,-0.175,0.000
2776,-0.175,0.000
2777,-0.180,0.000
2778,-0.170,0.000
2779,-0.165,-0.015
2780,-0.160,-0.015
2781,-0.160,-0.015
2782,-0.160,-0.015
2783,-0.160,-0.010
2784,-0.160,0.000
2785,-0.160,-0.005
2786,-0.160,-0.010
2787,-0.160,-0.010
2788,-0.160,-0.005
2789,-0.155,-0.005
2790,-0.155,-0.015
2791,-0.145,-0.025
2792,-0.140,-0.015
2793,-0.140,-0.005
2794,-0.140,-0.005
2795,-0.135,-0.010
2796,-0.135,-0.005
2797,-0.130,0.000
2798,-0.130,0.000
2799,-0.130,-0.015
2800,-0.140,-0.025
2801,-0.155,-0.020
2802,-0.135,0.015
2803,-0.055,0.075
2804,0.045,0.145
2805,0.140,0.235
2806,0.185,0.355
2807,0.175,0.465
2808,0.100,0.405
2809,0.010,0.215
2810,-0.050,-0.005
2811,-0.095,-0.140
2812,-0.115,-0.160
2813,-0.130,-0.115
2814,-0.130,-0.085
2815,-0.125,-0.080
2816,-0.125,-0.080
2817,-0.120,-0.080
2818,-0.110,-0.080
2819,-0.105,-0.080
2820,-0.090,-0.075
2821,-0.075,-0.075
2822,-0.060,-0.060
2823,-0.045,-0.055
2824,-0.030,-0.035
2825,-0.015,-0.025
2826,-0.010,-0.005
2827,0.000,0.000
2828,0.005,0.000
2829,0.020,0.005
2830,0.035,0.015
2831,0.050,0.020
2832,0.065,0.025
2833,0.080,0.035
2834,0.100,0.040
2835,0.115,0.045
2836,0.125,0.050
2837,0.130,0.055
2838,0.130,0.050
2839,0.130,0.050
2840,0.130,0.045
2841,0.130,0.040
2842,0.130,0.035
2843,0.135,0.030
2844,0.135,0.020
2845,0.135,0.015
2846,0.135,0.010
2847,0.135,0.005
2848,0.135,0.000
2849,0.130,0.000
2850,0.120,0.000
2851,0.115,0.000
2852,0.115,0.000
2853,0.115,0.000
2854,0.115,0.000
2855,0.110,0.000
2856,0.105,0.000
2857,0.100,0.000
2858,0.090,0.000
2859,0.090,0.000
2860,0.085,0.005
2861,0.085,0.000
2862,0.085,0.000
2863,0.090,0.000
2864,0.095,0.000
2865,0.100,0.000
2866,0.105,0.000
2867,0.105,0.000
2868,0.105,0.000
2869,0.100,0.000
2870,0.100,0.000
2871,0.100,0.000
2872,0.095,0.000
2873,0.090,0.000
2874,0.090,0.000
2875,0.090,0.000
2876,0.090,-0.005
2877,0.090,-0.005
2878,0.085,-0.005
2879,0.085,0.000
2880,0.085,0.000
2881,0.085,0.000
2882,0.085,0.000
2883,0.080,0.000
2884,0.075,-0.015
2885,0.065,-0.030
2886,0.040,-0.020
2887,0.055,0.010
2888,0.135,0.055
2889,0.235,0.110
2890,0.330,0.185
2891,0.370,0.300
2892,0.360,0.430
2893,0.285,0.415
2894,0.190,0.240
2895,0.110,0.010
2896,0.060,-0.130
2897,0.030,-0.145
2898,0.015,-0.110
2899,0.010,-0.075
2900,0.005,-0.075
2901,0.005,-0.085
2902,0.005,-0.085
2903,0.005,-0.085
2904,0.005,-0.085
2905,0.000,-0.085
2906,0.000,-0.080
2907,0.005,-0.075
2908,0.005,-0.070
2909,0.005,-0.050
2910,0.005,-0.035
2911,0.005,-0.020
2912,0.005,-0.010
2913,0.010,0.000
2914,0.010,0.000
2915,0.010,0.000
2916,0.010,0.010
2917,0.005,0.015
2918,0.005,0.020
2919,0.005,0.025
2920,0.000,0.035
2921,0.000,0.040
2922,0.000,0.045
2923,0.000,0.040
2924,0.000,0.035
2925,-0.005,0.030
2926,-0.005,0.025
2927,-0.005,0.020
2928,-0.005,0.015
2929,-0.005,0.010
2930,-0.005,0.005
2931,0.000,0.000
2932,0.000,0.000
2933,-0.005,0.000
2934,-0.005,0.000
2935,-0.005,0.000
2936,-0.005,0.000
2937,-0.010,0.000
2938,-0.005,0.000
2939,-0.005,0.000
2940,-0.010,0.000
2941,-0.015,0.000
2942,-0.015,0.000
2943,-0.025,0.000
2944,-0.030,0.000
2945,-0.030,0.000
2946,-0.020,0.000
2947,-0.015,0.000
2948,-0.010,-0.010
2949,-0.005,-0.020
2950,-0.005,-0.020
2951,-0.005,-0.010
2952,-0.005,-0.005
2953,-0.005,-0.005
2954,-0.005,-0.005
2955,-0.010,-0.010
2956,-0.010,-0.010
2957,-0.010,0.000
2958,-0.015,-0.005
2959,-0.015,-0.010
2960,-0.020,-0.015
2961,-0.025,-0.015
2962,-0.030,-0.015
2963,-0.035,-0.015
2964,-0.040,-0.020
2965,-0.045,-0.010
2966,-0.050,-0.005
2967,-0.060,-0.010
2968,-0.065,-0.025
2969,-0.090,-0.035
2970,-0.115,-0.025
2971,-0.090,0.005
2972,-0.005,0.065
2973,0.085,0.145
2974,0.160,0.245
2975,0.175,0.370
2976,0.140,0.465
2977,0.045,0.375
2978,-0.035,0.170
2979,-0.100,-0.060
2980,-0.140,-0.180
2981,-0.165,-0.170
2982,-0.185,-0.115
2983,-0.195,-0.100
2984,-0.195,-0.100
2985,-0.200,-0.100
2986,-0.195,-0.100
2987,-0.200,-0.100
2988,-0.205,-0.100
2989,-0.205,-0.100
2990,-0.210,-0.095
2991,-0.210,-0.080
2992,-0.210,-0.070
2993,-0.205,-0.055
2994,-0.205,-0.035
2995,-0.200,-0.015
2996,-0.195,-0.025
2997,-0.195,-0.010
2998,-0.190,0.000
2999,-0.190,0.010
3000,-0.190,0.015
3001,-0.190,0.015
3002,-0.190,0.015
3003,-0.190,0.020
3004,-0.185,0.030
3005,-0.185,0.040
3006,-0.180,0.045
3007,-0.170,0.045
3008,-0.170,0.045
3009,-0.165,0.040
3010,-0.165,0.030
3011,-0.160,0.020
3012,-0.160,0.015
3013,-0.155,0.015
3014,-0.150,0.005
3015,-0.145,0.000
3016,-0.140,0.000
3017,-0.140,0.000
3018,-0.135,0.000
3019,-0.135,0.000
3020,-0.130,0.000
3021,-0.130,0.000
3022,-0.130,0.000
3023,-0.125,0.000
3024,-0.120,0.000
3025,-0.120,0.000
3026,-0.120,0.000
3027,-0.130,0.000
3028,-0.130,0.000
3029,-0.125,0.000
3030,-0.115,0.000
3031,-0.110,0.000
3032,-0.105,0.000
3033,-0.085,0.000
3034,-0.085,0.000
3035,-0.080,-0.005
3036,-0.070,0.000
3037,-0.065,0.000
3038,-0.060,0.000
3039,-0.055,0.000
3040,-0.055,-0.005
3041,-0.040,0.000
3042,-0.040,0.000
3043,-0.035,-0.005
3044,-0.025,-0.015
3045,-0.015,-0.020
3046,-0.005,-0.025
3047,0.000,-0.020
3048,0.005,-0.010
3049,0.015,-0.010
3050,0.025,-0.015
3051,0.035,-0.015
3052,0.045,-0.015
3053,0.045,-0.025
3054,0.035,-0.035
3055,0.030,-0.020
3056,0.080,0.015
3057,0.170,0.070
3058,0.280,0.135
3059,0.370,0.235
3060,0.400,0.355
3061,0.370,0.420
3062,0.295,0.305
3063,0.220,0.105
3064,0.160,-0.080
3065,0.130,-0.175
3066,0.115,-0.150
3067,0.105,-0.100
3068,0.105,-0.085
3069,0.100,-0.085
3070,0.095,-0.085
3071,0.095,-0.085
3072,0.095,-0.085
3073,0.095,-0.085
3074,0.090,-0.085
3075,0.090,-0.075
3076,0.095,-0.065
3077,0.090,-0.060
3078,0.090,-0.040
3079,0.090,-0.030
3080,0.090,-0.015
3081,0.090,0.000
3082,0.090,0.000
3083,0.085,0.000
3084,0.080,0.005
3085,0.080,0.010
3086,0.070,0.015
3087,0.065,0.025
3088,0.065,0.035
3089,0.060,0.040
3090,0.055,0.045
3091,0.050,0.045
3092,0.050,0.045
3093,0.040,0.040
3094,0.040,0.035
3095,0.040,0.030
3096,0.035,0.025
3097,0.035,0.020
3098,0.035,0.015
3099,0.030,0.005
3100,0.030,0.000
3101,0.025,0.000
3102,0.020,0.000
3103,0.025,0.000
3104,0.020,0.000
3105,0.015,0.000
3106,0.015,0.000
3107,0.015,0.000
3108,0.010,0.000
3109,0.005,0.000
3110,0.000,0.000
3111,0.000,0.000
3112,0.000,0.000
3113,0.000,0.000
3114,0.000,0.000
3115,0.000,0.000
3116,0.000,0.000
3117,0.000,0.000
3118,0.005,-0.010
3119,0.010,-0.015
3120,0.010,-0.010
3121,0.010,0.000
3122,0.010,0.000
3123,0.010,0.000
3124,0.010,-0.005
3125,0.010,0.000
3126,0.010,0.000
3127,0.010,0.000
3128,0.010,0.000
3129,0.010,-0.005
3130,0.010,-0.005
3131,0.010,-0.005
3132,0.010,0.000
3133,0.010,0.000
3134,0.005,0.000
3135,0.005,-0.005
3136,0.005,-0.005
3137,0.000,-0.010
3138,-0.005,-0.020
3139,-0.020,-0.015
3140,-0.010,0.010
3141,0.065,0.055
3142,0.170,0.115
3143,0.260,0.200
3144,0.295,0.320
3145,0.275,0.425
3146,0.185,0.380
3147,0.090,0.200
3148,0.015,-0.005
3149,-0.020,-0.150
3150,-0.045,-0.170
3151,-0.065,-0.125
3152,-0.080,-0.090
3153,-0.085,-0.090
3154,-0.090,-0.085
3155,-0.100,-0.075
3156,-0.105,-0.085
3157,-0.110,-0.090
3158,-0.110,-0.090
3159,-0.115,-0.090
3160,-0.115,-0.080
3161,-0.115,-0.060
3162,-0.115,-0.055
3163,-0.115,-0.035
3164,-0.115,-0.030
3165,-0.115,-0.005
3166,-0.115,0.000
3167,-0.120,0.000
3168,-0.120,0.000
3169,-0.120,0.010
3170,-0.125,0.015
3171,-0.130,0.025
3172,-0.130,0.035
3173,-0.135,0.030
3174,-0.140,0.030
3175,-0.140,0.035
3176,-0.140,0.035
3177,-0.140,0.040
3178,-0.140,0.035
3179,-0.140,0.025
3180,-0.140,0.010
3181,-0.135,0.005
3182,-0.135,0.005
3183,-0.135,0.000
3184,-0.130,0.000
3185,-0.130,0.000
3186,-0.130,0.000
3187,-0.130,0.000
3188,-0.130,-0.005
3189,-0.125,-0.005
3190,-0.120,-0.005
3191,-0.115,-0.005
3192,-0.115,-0.005
3193,-0.115,-0.005
3194,-0.115,-0.005
3195,-0.115,0.000
3196,-0.120,0.000
3197,-0.115,0.000
3198,-0.115,0.000
3199,-0.110,0.000
3200,-0.110,0.000
3201,-0.100,0.000
3202,-0.090,-0.005
3203,-0.085,-0.010
3204,-0.080,-0.005
3205,-0.080,-0.005
3206,-0.080,0.000
3207,-0.070,0.000
3208,-0.065,0.000
3209,-0.065,0.000
3210,-0.060,0.000
3211,-0.055,0.000
3212,-0.055,-0.005
3213,-0.045,-0.010
3214,-0.040,-0.015
3215,-0.035,-0.010
3216,-0.035,-0.010
3217,-0.030,-0.015
3218,-0.020,-0.010
3219,-0.015,-0.010
3220,-0.005,-0.010
3221,0.000,-0.010
3222,0.000,-0.020
3223,0.000,-0.030
3224,0.000,-0.025
3225,0.025,0.005
3226,0.110,0.055
3227,0.225,0.135
3228,0.325,0.220
3229,0.380,0.330
3230,0.385,0.430
3231,0.325,0.365
3232,0.250,0.175
3233,0.195,-0.030
3234,0.160,-0.155
3235,0.145,-0.165
3236,0.140,-0.125
3237,0.135,-0.095
3238,0.135,-0.095
3239,0.140,-0.090
3240,0.140,-0.090
3241,0.145,-0.090
3242,0.145,-0.085
3243,0.145,-0.085
3244,0.145,-0.080
3245,0.145,-0.075
3246,0.145,-0.065
3247,0.145,-0.055
3248,0.145,-0.035
3249,0.145,-0.025
3250,0.145,-0.010
3251,0.145,0.000
3252,0.145,0.000
3253,0.140,0.000
3254,0.140,0.000
3255,0.135,0.010
3256,0.135,0.015
3257,0.130,0.025
3258,0.130,0.030
3259,0.120,0.040
3260,0.115,0.040
3261,0.115,0.040
3262,0.110,0.035
3263,0.110,0.035
3264,0.110,0.030
3265,0.105,0.020
3266,0.100,0.015
3267,0.100,0.015
3268,0.100,0.005
3269,0.095,0.000
3270,0.090,0.000
3271,0.090,0.000
3272,0.090,0.000
3273,0.085,0.000
3274,0.085,0.000
3275,0.080,0.000
3276,0.080,0.000
3277,0.075,0.000
3278,0.065,0.000
3279,0.060,0.000
3280,0.055,0.000
3281,0.050,0.000
3282,0.050,0.000
3283,0.050,0.000
3284,0.055,0.000
3285,0.060,0.000
3286,0.065,-0.005
3287,0.065,-0.010
3288,0.065,-0.010
3289,0.060,-0.010
3290,0.060,0.000
3291,0.060,0.000
3292,0.060,-0.005
3293,0.060,-0.005
3294,0.060,-0.005
3295,0.060,-0.005
3296,0.060,-0.005
3297,0.060,-0.010
3298,0.060,-0.015
3299,0.060,-0.015
3300,0.060,-0.015
3301,0.055,-0.010
3302,0.055,-0.010
3303,0.055,-0.010
3304,0.055,-0.005
3305,0.055,-0.005
3306,0.040,-0.015
3307,0.020,-0.025
3308,0.005,-0.015
3309,0.050,0.015
3310,0.145,0.060
3311,0.255,0.120
3312,0.335,0.210
3313,0.350,0.340
3314,0.315,0.430
3315,0.220,0.360
3316,0.125,0.165
3317,0.060,-0.035
3318,0.020,-0.145
3319,0.000,-0.145
3320,0.000,-0.110
3321,-0.010,-0.090
3322,-0.010,-0.095
3323,-0.010,-0.095
3324,-0.010,-0.095
3325,-0.015,-0.095
3326,-0.010,-0.095
3327,-0.010,-0.090
3328,-0.015,-0.090
3329,-0.010,-0.080
3330,-0.010,-0.065
3331,-0.010,-0.055
3332,-0.010,-0.035
3333,-0.010,-0.020
3334,-0.010,-0.010
3335,-0.010,0.000
3336,-0.010,0.000
3337,-0.010,0.000
3338,-0.010,0.010
3339,-0.015,0.015
3340,-0.015,0.025
3341,-0.020,0.035
3342,-0.020,0.040
3343,-0.025,0.045
3344,-0.030,0.045
3345,-0.030,0.040
3346,-0.035,0.040
3347,-0.035,0.040
3348,-0.035,0.030
3349,-0.035,0.015
3350,-0.035,0.010
3351,-0.035,0.005
3352,-0.035,0.000
3353,-0.035,0.000
3354,-0.040,0.000
3355,-0.040,0.000
3356,-0.045,0.000
3357,-0.045,-0.005
3358,-0.045,-0.005
3359,-0.055,-0.015
3360,-0.060,-0.015
3361,-0.060,-0.010
3362,-0.065,-0.020
3363,-0.065,-0.015
3364,-0.070,0.000
3365,-0.085,0.000
3366,-0.085,0.000
3367,-0.090,0.000
3368,-0.085,0.000
3369,-0.085,-0.010
3370,-0.085,-0.020
3371,-0.085,-0.020
3372,-0.085,-0.025
3373,-0.085,-0.030
3374,-0.085,-0.020
3375,-0.090,-0.010
3376,-0.095,-0.025
3377,-0.100,-0.020
3378,-0.105,-0.015
3379,-0.110,-0.015
3380,-0.115,-0.015
3381,-0.120,-0.020
3382,-0.120,-0.025
3383,-0.125,-0.025
3384,-0.125,-0.030
3385,-0.125,-0.025
3386,-0.130,-0.030
3387,-0.130,-0.025
3388,-0.130,-0.015
3389,-0.130,-0.015
3390,-0.130,-0.035
3391,-0.140,-0.045
3392,-0.165,-0.040
3393,-0.140,-0.010
3394,-0.060,0.045
3395,0.040,0.125
3396,0.130,0.215
3397,0.175,0.340
3398,0.160,0.445
3399,0.085,0.400
3400,-0.005,0.220
3401,-0.075,0.000
3402,-0.125,-0.150
3403,-0.140,-0.180
3404,-0.160,-0.145
3405,-0.165,-0.110
3406,-0.165,-0.095
3407,-0.160,-0.095
3408,-0.160,-0.090
3409,-0.155,-0.090
3410,-0.150,-0.090
3411,-0.145,-0.090
3412,-0.140,-0.085
3413,-0.135,-0.075
3414,-0.135,-0.070
3415,-0.130,-0.045
3416,-0.125,-0.040
3417,-0.115,-0.020
3418,-0.105,-0.010
3419,-0.095,0.000
3420,-0.085,0.000
3421,-0.075,0.005
3422,-0.060,0.015
3423,-0.055,0.025
3424,-0.045,0.030
3425,-0.040,0.035
3426,-0.035,0.040
3427,-0.030,0.045
3428,-0.020,0.045
3429,-0.010,0.045
3430,-0.005,0.040
3431,0.000,0.035
3432,0.000,0.030
3433,0.005,0.020
3434,0.015,0.020
3435,0.025,0.015
3436,0.035,0.005
3437,0.045,0.000
3438,0.055,0.000
3439,0.060,0.000
3440,0.065,0.000
3441,0.065,0.000
3442,0.065,0.000
3443,0.065,0.000
3444,0.065,-0.005
3445,0.065,-0.005
3446,0.065,-0.005
3447,0.065,-0.005
3448,0.060,0.000
3449,0.055,0.000
3450,0.055,0.000
3451,0.055,0.000
3452,0.055,0.000
3453,0.055,0.000
3454,0.060,0.000
3455,0.075,0.000
3456,0.080,-0.005
3457,0.080,0.000
3458,0.080,0.000
3459,0.080,0.000
3460,0.080,0.000
3461,0.080,0.000
3462,0.080,0.000
3463,0.080,0.000
3464,0.080,0.000
3465,0.080,0.000
3466,0.075,0.000
3467,0.075,0.000
3468,0.080,0.000
3469,0.080,0.000
3470,0.075,0.000
3471,0.075,0.000
3472,0.070,0.000
3473,0.070,0.000
3474,0.065,0.000
3475,0.065,0.000
3476,0.055,-0.010
3477,0.035,-0.015
3478,0.040,-0.005
3479,0.100,0.030
3480,0.195,0.085
3481,0.295,0.150
3482,0.360,0.260
3483,0.365,0.395
3484,0.305,0.450
3485,0.215,0.335
3486,0.125,0.130
3487,0.060,-0.055
3488,0.030,-0.130
3489,0.015,-0.105
3490,0.000,-0.080
3491,0.000,-0.075
3492,0.000,-0.075
3493,0.000,-0.075
3494,0.000,-0.080
3495,0.000,-0.085
3496,0.000,-0.085
3497,0.000,-0.085
3498,0.000,-0.075
3499,0.000,-0.075
3500,0.000,-0.050
3501,0.000,-0.030
3502,0.005,-0.020
3503,0.005,-0.010
3504,0.005,0.000
3505,0.005,0.000
3506,0.005,0.000
3507,0.005,0.000
3508,0.005,0.010
3509,0.005,0.025
3510,0.000,0.025
3511,0.000,0.025
3512,0.000,0.030
3513,0.000,0.025
3514,0.000,0.020
3515,-0.005,0.015
3516,-0.005,0.015
3517,-0.010,0.015
3518,-0.010,0.005
3519,-0.010,0.000
3520,-0.010,0.000
3521,-0.015,0.000
3522,-0.015,0.000
3523,-0.015,0.000
3524,-0.015,-0.010
3525,-0.020,-0.020
3526,-0.030,-0.020
3527,-0.030,-0.025
3528,-0.030,-0.025
3529,-0.035,-0.025
3530,-0.035,-0.025
3531,-0.040,-0.025
3532,-0.040,-0.020
3533,-0.045,-0.015
3534,-0.050,-0.005
3535,-0.060,0.000
3536,-0.060,0.000
3537,-0.055,0.000
3538,-0.050,0.000
3539,-0.040,-0.005
3540,-0.035,-0.020
3541,-0.035,-0.025
3542,-0.035,-0.025
3543,-0.035,-0.015
3544,-0.035,-0.010
3545,-0.030,-0.010
3546,-0.030,-0.010
3547,-0.030,-0.010
3548,-0.030,-0.010
3549,-0.030,-0.010
3550,-0.020,-0.010
3551,-0.015,-0.015
3552,-0.015,-0.020
3553,-0.015,-0.020
3554,-0.015,-0.020
3555,-0.015,-0.015
3556,-0.015,-0.015
3557,-0.015,-0.010
3558,-0.015,-0.010
3559,-0.015,-0.015
3560,-0.015,-0.025
3561,-0.030,-0.040
3562,-0.045,-0.030
3563,-0.020,0.005
3564,0.055,0.060
3565,0.165,0.125
3566,0.255,0.215
3567,0.290,0.345
3568,0.270,0.445
3569,0.185,0.385
3570,0.095,0.195
3571,0.030,-0.015
3572,-0.005,-0.150
3573,-0.020,-0.165
3574,-0.035,-0.125
3575,-0.040,-0.095
3576,-0.040,-0.095
3577,-0.040,-0.100
3578,-0.040,-0.095
3579,-0.035,-0.095
3580,-0.035,-0.095
3581,-0.035,-0.090
3582,-0.035,-0.080
3583,-0.030,-0.070
3584,-0.030,-0.065
3585,-0.030,-0.055
3586,-0.025,-0.035
3587,-0.020,-0.020
3588,-0.020,-0.005
3589,-0.020,0.000
3590,-0.015,0.000
3591,-0.015,0.000
3592,-0.015,0.005
3593,-0.015,0.015
3594,-0.015,0.025
3595,-0.025,0.030
3596,-0.025,0.035
3597,-0.025,0.035
3598,-0.030,0.040
3599,-0.030,0.040
3600,-0.030,0.040
3601,-0.030,0.030
3602,-0.030,0.025
3603,-0.025,0.020
3604,-0.025,0.015
3605,-0.030,0.005
3606,-0.030,0.000
3607,-0.030,0.000
3608,-0.030,0.000
3609,-0.025,0.000
3610,-0.020,0.000
3611,-0.020,0.000
3612,-0.020,0.000
3613,-0.020,0.000
3614,-0.030,0.000
3615,-0.030,-0.005
3616,-0.030,-0.010
3617,-0.025,-0.005
3618,-0.025,0.000
3619,-0.035,0.000
3620,-0.035,0.000
3621,-0.035,0.000
3622,-0.035,0.000
3623,-0.030,0.000
3624,-0.020,0.000
3625,-0.010,0.000
3626,-0.010,-0.010
3627,-0.010,-0.010
3628,-0.010,-0.010
3629,-0.010,-0.005
3630,-0.010,0.000
3631,-0.005,0.000
3632,-0.005,0.000
3633,-0.005,0.000
3634,-0.005,0.000
3635,-0.010,0.000
3636,-0.005,-0.005
3637,0.000,-0.005
3638,0.000,-0.005
3639,-0.005,-0.005
3640,-0.005,0.000
3641,-0.005,0.000
3642,-0.005,0.000
3643,-0.005,0.000
3644,-0.005,0.000
3645,-0.005,-0.005
3646,-0.020,-0.020
3647,-0.045,-0.015
3648,-0.025,0.010
3649,0.045,0.050
3650,0.150,0.110
3651,0.245,0.190
3652,0.290,0.310
3653,0.270,0.420
3654,0.190,0.400
3655,0.095,0.230
3656,0.015,0.025
3657,-0.020,-0.120
3658,-0.040,-0.165
3659,-0.055,-0.130
3660,-0.065,-0.090
3661,-0.070,-0.090
3662,-0.080,-0.095
3663,-0.080,-0.095
3664,-0.085,-0.095
3665,-0.085,-0.095
3666,-0.085,-0.090
3667,-0.090,-0.080
3668,-0.090,-0.070
3669,-0.090,-0.055
3670,-0.090,-0.055
3671,-0.100,-0.035
3672,-0.105,-0.025
3673,-0.105,-0.005
3674,-0.105,0.000
3675,-0.115,0.000
3676,-0.120,0.005
3677,-0.125,0.020
3678,-0.130,0.030
3679,-0.130,0.035
3680,-0.130,0.035
3681,-0.135,0.040
3682,-0.140,0.035
3683,-0.145,0.040
3684,-0.145,0.045
3685,-0.155,0.035
3686,-0.160,0.030
3687,-0.160,0.020
3688,-0.160,0.015
3689,-0.160,0.010
3690,-0.150,0.000
3691,-0.145,0.000
3692,-0.150,0.000
3693,-0.145,0.000
3694,-0.145,0.000
3695,-0.145,0.000
3696,-0.145,0.000
3697,-0.145,-0.010
3698,-0.145,-0.010
3699,-0.145,-0.010
3700,-0.145,-0.020
3701,-0.140,-0.015
3702,-0.140,-0.010
3703,-0.140,-0.010
3704,-0.140,-0.005
3705,-0.140,0.000
3706,-0.140,0.000
3707,-0.140,0.000
3708,-0.135,0.000
3709,-0.130,0.000
3710,-0.125,0.000
3711,-0.110,0.000
3712,-0.110,-0.010
3713,-0.105,-0.010
3714,-0.105,0.000
3715,-0.100,0.000
3716,-0.095,0.000
3717,-0.085,0.000
3718,-0.085,0.000
3719,-0.085,0.000
3720,-0.080,0.000
3721,-0.080,0.000
3722,-0.075,-0.005
3723,-0.070,-0.010
3724,-0.065,-0.015
3725,-0.065,-0.010
3726,-0.065,-0.010
3727,-0.060,-0.010
3728,-0.060,-0.005
3729,-0.055,-0.005
3730,-0.055,-0.005
3731,-0.045,-0.015
3732,-0.055,-0.030
3733,-0.070,-0.020
3734,-0.040,0.005
3735,0.030,0.055
3736,0.140,0.130
3737,0.240,0.210
3738,0.300,0.330
3739,0.305,0.425
3740,0.245,0.375
3741,0.170,0.190
3742,0.100,-0.010
3743,0.060,-0.145
3744,0.055,-0.165
3745,0.055,-0.125
3746,0.060,-0.095
3747,0.070,-0.090
3748,0.085,-0.095
3749,0.085,-0.095
3750,0.090,-0.095
3751,0.090,-0.090
3752,0.095,-0.085
3753,0.105,-0.080
3754,0.105,-0.065
3755,0.105,-0.060
3756,0.105,-0.045
3757,0.105,-0.035
3758,0.110,-0.020
3759,0.110,0.000
3760,0.110,0.000
3761,0.110,0.000
3762,0.110,0.000
3763,0.115,0.010
3764,0.110,0.015
3765,0.105,0.025
3766,0.105,0.030
3767,0.105,0.035
3768,0.100,0.040
3769,0.095,0.035
3770,0.090,0.035
3771,0.090,0.030
3772,0.085,0.025
3773,0.085,0.025
3774,0.085,0.015
3775,0.085,0.015
3776,0.085,0.010
3777,0.080,0.000
3778,0.075,0.000
3779,0.070,0.000
3780,0.075,0.000
3781,0.070,0.000
3782,0.065,0.000
3783,0.065,0.000
3784,0.065,-0.005
3785,0.065,-0.005
3786,0.065,-0.010
3787,0.060,-0.005
3788,0.060,-0.005
3789,0.055,0.000
3790,0.045,0.000
3791,0.040,0.000
3792,0.040,0.000
3793,0.040,0.000
3794,0.045,0.000
3795,0.055,0.000
3796,0.060,0.000
3797,0.065,-0.005
3798,0.065,-0.010
3799,0.065,0.000
3800,0.065,0.000
3801,0.065,0.000
3802,0.065,0.000
3803,0.065,-0.005
3804,0.065,0.000
3805,0.065,0.000
3806,0.065,0.000
3807,0.065,-0.005
3808,0.065,0.000
3809,0.060,0.000
3810,0.060,0.000
3811,0.060,0.000
3812,0.060,0.000
3813,0.060,0.000
3814,0.055,0.000
3815,0.055,0.000
3816,0.055,-0.005
3817,0.040,-0.020
3818,0.015,-0.030
3819,0.025,-0.010
3820,0.095,0.035
3821,0.200,0.105
3822,0.295,0.180
3823,0.345,0.295
3824,0.335,0.430
3825,0.265,0.450
3826,0.170,0.295
3827,0.090,0.070
3828,0.035,-0.115
3829,0.005,-0.170
3830,0.000,-0.150
3831,-0.010,-0.115
3832,-0.015,-0.110
3833,-0.025,-0.110
3834,-0.025,-0.115
3835,-0.025,-0.115
3836,-0.025,-0.115
3837,-0.030,-0.115
3838,-0.030,-0.110
3839,-0.030,-0.100
3840,-0.030,-0.095
3841,-0.030,-0.075
3842,-0.020,-0.055
3843,-0.020,-0.035
3844,-0.015,-0.020
3845,-0.015,-0.010
3846,-0.015,0.000
3847,-0.015,0.000
3848,-0.015,0.000
3849,-0.015,0.005
3850,-0.015,0.015
3851,-0.015,0.020
3852,-0.020,0.025
3853,-0.020,0.030
3854,-0.025,0.025
3855,-0.030,0.020
3856,-0.030,0.015
3857,-0.030,0.010
3858,-0.025,0.010
3859,-0.025,0.000
3860,-0.025,0.000
3861,-0.025,0.000
3862,-0.025,0.000
3863,-0.015,0.000
3864,-0.015,-0.010
3865,-0.015,-0.010
3866,-0.015,-0.010
3867,-0.015,-0.015
3868,-0.015,-0.015
3869,-0.015,-0.015
3870,-0.015,-0.015
3871,-0.015,-0.020
3872,-0.015,-0.025
3873,-0.015,-0.020
3874,-0.015,-0.020
3875,-0.015,-0.015
3876,-0.025,-0.005
3877,-0.025,0.000
3878,-0.030,0.000
3879,-0.025,0.000
3880,-0.020,0.000
3881,-0.005,-0.010
3882,0.000,-0.020
3883,0.000,-0.020
3884,0.000,-0.025
3885,0.000,-0.025
3886,0.000,-0.010
3887,0.000,-0.010
3888,0.000,-0.010
3889,0.000,-0.010
3890,0.000,-0.010
3891,0.000,-0.005
3892,0.000,-0.010
3893,0.000,-0.015
3894,0.005,-0.015
3895,0.005,-0.015
3896,0.005,-0.015
3897,0.005,-0.015
3898,0.005,-0.010
3899,0.000,-0.010
3900,0.000,-0.005
3901,0.005,-0.005
3902,0.000,-0.015
3903,-0.005,-0.025
3904,-0.020,-0.020
3905,0.000,0.005
3906,0.070,0.045
3907,0.180,0.110
3908,0.270,0.190
3909,0.305,0.315
3910,0.285,0.425
3911,0.210,0.390
3912,0.120,0.220
3913,0.045,0.005
3914,0.000,-0.125
3915,-0.010,-0.150
3916,-0.025,-0.110
3917,-0.035,-0.085
3918,-0.035,-0.080
3919,-0.035,-0.085
3920,-0.040,-0.085
3921,-0.035,-0.080
3922,-0.035,-0.080
3923,-0.035,-0.075
3924,-0.035,-0.070
3925,-0.030,-0.060
3926,-0.030,-0.055
3927,-0.030,-0.035
3928,-0.030,-0.020
3929,-0.030,-0.005
3930,-0.015,0.000
3931,-0.015,0.000
3932,-0.015,0.000
3933,-0.015,0.015
3934,-0.015,0.020
3935,-0.015,0.030
3936,-0.015,0.035
3937,-0.020,0.040
3938,-0.025,0.040
3939,-0.025,0.045
3940,-0.030,0.050
3941,-0.030,0.055
3942,-0.030,0.045
3943,-0.030,0.035
3944,-0.035,0.025
3945,-0.035,0.015
3946,-0.035,0.005
3947,-0.035,0.000
3948,-0.035,0.000
3949,-0.035,0.000
3950,-0.035,0.000
3951,-0.035,0.000
3952,-0.040,0.000
3953,-0.040,-0.005
3954,-0.045,-0.015
3955,-0.055,-0.015
3956,-0.055,-0.010
3957,-0.055,-0.005
3958,-0.065,-0.020
3959,-0.065,-0.020
3960,-0.075,-0.015
3961,-0.085,0.000
3962,-0.090,0.000
3963,-0.105,0.000
3964,-0.105,0.000
3965,-0.100,0.000
3966,-0.090,-0.005
3967,-0.090,-0.020
3968,-0.090,-0.015
3969,-0.090,-0.020
3970,-0.100,-0.025
3971,-0.105,-0.015
3972,-0.105,-0.010
3973,-0.110,-0.010
3974,-0.110,-0.010
3975,-0.110,-0.010
3976,-0.110,-0.005
3977,-0.115,-0.005
3978,-0.120,-0.015
3979,-0.120,-0.025
3980,-0.125,-0.020
3981,-0.120,-0.015
3982,-0.120,-0.015
3983,-0.125,-0.020
3984,-0.130,-0.010
3985,-0.130,-0.010
3986,-0.130,-0.020
3987,-0.130,-0.025
3988,-0.140,-0.040
3989,-0.160,-0.035
3990,-0.140,-0.005
3991,-0.065,0.050
3992,0.040,0.130
3993,0.130,0.225
3994,0.175,0.345
3995,0.160,0.445
3996,0.085,0.400
3997,0.000,0.220
3998,-0.065,0.000
3999,-0.115,-0.150
4000,-0.135,-0.175
4001,-0.150,-0.130
4002,-0.160,-0.095
4003,-0.160,-0.095
4004,-0.155,-0.095
4005,-0.145,-0.095
4006,-0.145,-0.090
4007,-0.140,-0.085
4008,-0.135,-0.085
4009,-0.130,-0.080
4010,-0.125,-0.065
4011,-0.115,-0.060
4012,-0.110,-0.050
4013,-0.105,-0.035
4014,-0.095,-0.020
4015,-0.085,-0.005
4016,-0.080,0.000
4017,-0.065,0.000
4018,-0.060,0.010
4019,-0.045,0.015
4020,-0.030,0.025
4021,-0.015,0.035
4022,-0.015,0.040
4023,-0.010,0.050
4024,-0.005,0.050
4025,0.000,0.050
4026,0.000,0.050
4027,0.005,0.050
4028,0.015,0.040
4029,0.030,0.030
4030,0.045,0.020
4031,0.055,0.015
4032,0.070,0.010
4033,0.080,0.000
4034,0.090,0.000
4035,0.095,0.000
4036,0.095,0.000
4037,0.105,0.000
4038,0.105,0.000
4039,0.105,-0.005
4040,0.105,-0.005
4041,0.105,-0.005
4042,0.105,-0.005
4043,0.105,-0.005
4044,0.105,-0.005
4045,0.100,0.000
4046,0.090,0.000
4047,0.085,0.000
4048,0.085,0.000
4049,0.085,0.000
4050,0.085,0.000
4051,0.090,0.000
4052,0.095,0.000
4053,0.110,0.000
4054,0.110,0.000
4055,0.110,-0.005
4056,0.110,-0.005
4057,0.110,0.000
4058,0.105,0.000
4059,0.105,0.000
4060,0.105,0.000
4061,0.105,0.000
4062,0.105,0.000
4063,0.105,0.000
4064,0.105,-0.005
4065,0.105,-0.005
4066,0.105,-0.005
4067,0.095,-0.005
4068,0.090,-0.005
4069,0.090,0.000
4070,0.090,0.000
4071,0.090,0.000
4072,0.090,0.000
4073,0.085,-0.005
4074,0.075,-0.020
4075,0.055,-0.020
4076,0.070,0.000
4077,0.140,0.035
4078,0.245,0.090
4079,0.340,0.160
4080,0.385,0.280
4081,0.375,0.410
4082,0.305,0.430
4083,0.210,0.275
4084,0.130,0.060
4085,0.070,-0.095
4086,0.045,-0.145
4087,0.025,-0.115
4088,0.015,-0.090
4089,0.010,-0.085
4090,0.010,-0.090
4091,0.010,-0.095
4092,0.010,-0.100
4093,0.010,-0.100
4094,0.010,-0.095
4095,0.010,-0.090
4096,0.015,-0.090
4097,0.010,-0.080
4098,0.010,-0.065
4099,0.015,-0.050
4100,0.020,-0.035
4101,0.015,-0.010
4102,0.015,0.000
4103,0.015,0.000
4104,0.015,0.000
4105,0.015,0.000
4106,0.015,0.005
4107,0.015,0.015
4108,0.010,0.020
4109,0.005,0.025
4110,0.005,0.025
4111,0.005,0.025
4112,0.005,0.025
4113,0.000,0.015
4114,0.000,0.015
4115,0.000,0.010
4116,0.000,0.005
4117,0.000,0.000
4118,0.000,0.000
4119,0.000,0.000
4120,0.000,0.000
4121,0.000,0.000
4122,0.000,-0.010
4123,0.000,-0.010
4124,0.000,-0.010
4125,0.000,-0.015
4126,0.000,-0.025
4127,0.000,-0.025
4128,0.000,-0.025
4129,0.000,-0.025
4130,-0.005,-0.020
4131,-0.005,-0.010
4132,-0.010,-0.005
4133,-0.015,0.000
4134,-0.015,-0.005
4135,-0.015,-0.005
4136,-0.010,-0.005
4137,-0.005,-0.015
4138,0.000,-0.025
4139,0.000,-0.030
4140,0.000,-0.035
4141,0.000,-0.030
4142,0.000,-0.015
4143,0.000,-0.010
4144,0.000,-0.010
4145,0.000,-0.015
4146,0.000,-0.010
4147,0.000,-0.010
4148,0.000,-0.010
4149,0.000,-0.015
4150,0.000,-0.020
4151,0.000,-0.015
4152,0.000,-0.010
4153,0.000,-0.010
4154,0.000,-0.005
4155,0.000,0.000
4156,0.000,0.000
4157,0.000,0.000
4158,0.000,-0.010
4159,-0.020,-0.025
4160,-0.035,-0.020
4161,0.000,0.010
4162,0.075,0.060
4163,0.185,0.115
4164,0.270,0.200
4165,0.300,0.330
4166,0.270,0.430
4167,0.180,0.385
4168,0.090,0.200
4169,0.015,-0.015
4170,-0.010,-0.145
4171,-0.025,-0.165
4172,-0.040,-0.125
4173,-0.055,-0.105
4174,-0.060,-0.105
4175,-0.060,-0.110
4176,-0.060,-0.105
4177,-0.060,-0.105
4178,-0.065,-0.105
4179,-0.065,-0.100
4180,-0.065,-0.090
4181,-0.065,-0.080
4182,-0.065,-0.080
4183,-0.065,-0.065
4184,-0.065,-0.050
4185,-0.065,-0.030
4186,-0.065,-0.010
4187,-0.075,0.000
4188,-0.080,0.000
4189,-0.085,0.000
4190,-0.085,0.005
4191,-0.085,0.010
4192,-0.090,0.020
4193,-0.100,0.030
4194,-0.105,0.025
4195,-0.105,0.025
4196,-0.110,0.030
4197,-0.120,0.025
4198,-0.130,0.025
4199,-0.130,0.025
4200,-0.135,0.020
4201,-0.140,0.010
4202,-0.140,0.000
4203,-0.145,0.000
4204,-0.145,0.000
4205,-0.145,0.000
4206,-0.145,0.000
4207,-0.145,-0.005
4208,-0.145,-0.005
4209,-0.145,0.000
4210,-0.145,0.000
4211,-0.155,-0.015
4212,-0.155,-0.030
4213,-0.155,-0.025
4214,-0.155,-0.025
4215,-0.160,-0.030
4216,-0.160,-0.025
4217,-0.165,-0.015
4218,-0.165,-0.005
4219,-0.170,0.000
4220,-0.165,0.000
4221,-0.160,0.000
4222,-0.150,0.000
4223,-0.140,-0.005
4224,-0.140,-0.010
4225,-0.135,-0.015
4226,-0.130,-0.015
4227,-0.130,-0.010
4228,-0.120,0.000
4229,-0.115,0.000
4230,-0.110,0.000
4231,-0.110,0.000
4232,-0.110,0.000
4233,-0.110,0.000
4234,-0.105,-0.005
4235,-0.095,-0.010
4236,-0.090,-0.015
4237,-0.090,-0.015
4238,-0.085,-0.015
4239,-0.085,-0.005
4240,-0.085,-0.005
4241,-0.080,-0.010
4242,-0.080,-0.005
4243,-0.075,-0.010
4244,-0.080,-0.025
4245,-0.095,-0.035
4246,-0.095,-0.015
4247,-0.045,0.025
4248,0.045,0.085
4249,0.150,0.160
4250,0.235,0.265
4251,0.265,0.395
4252,0.235,0.445
4253,0.150,0.320
4254,0.075,0.120
4255,0.020,-0.075
4256,0.000,-0.170
4257,-0.005,-0.150
4258,-0.005,-0.110
4259,0.000,-0.090
4260,0.000,-0.090
4261,0.010,-0.095
4262,0.025,-0.095
4263,0.040,-0.090
4264,0.065,-0.090
4265,0.080,-0.085
4266,0.085,-0.075
4267,0.085,-0.075
4268,0.090,-0.060
4269,0.100,-0.045
4270,0.105,-0.030
4271,0.110,-0.020
4272,0.110,0.000
4273,0.115,0.000
4274,0.115,0.000
4275,0.115,0.000
4276,0.115,0.015
4277,0.115,0.020
4278,0.115,0.025
4279,0.110,0.035
4280,0.105,0.035
4281,0.105,0.035
4282,0.095,0.040
4283,0.095,0.040
4284,0.090,0.035
4285,0.090,0.025
4286,0.090,0.025
4287,0.090,0.020
4288,0.090,0.015
4289,0.090,0.010
4290,0.090,0.000
4291,0.090,0.000
4292,0.085,0.000
4293,0.085,0.000
4294,0.085,0.000
4295,0.080,0.000
4296,0.080,0.000
4297,0.080,-0.005
4298,0.075,-0.005
4299,0.070,-0.010
4300,0.065,-0.010
4301,0.060,-0.005
4302,0.050,0.000
4303,0.045,0.000
4304,0.040,0.000
4305,0.040,0.000
4306,0.040,0.000
4307,0.050,0.000
4308,0.055,0.000
4309,0.060,-0.010
4310,0.060,-0.010
4311,0.060,-0.010
4312,0.060,-0.010
4313,0.060,0.000
4314,0.060,0.000
4315,0.060,0.000
4316,0.060,0.000
4317,0.060,0.000
4318,0.055,0.000
4319,0.055,0.000
4320,0.055,-0.010
4321,0.055,-0.015
4322,0.055,-0.015
4323,0.055,-0.010
4324,0.055,-0.010
4325,0.055,-0.005
4326,0.055,-0.005
4327,0.050,-0.005
4328,0.050,-0.010
4329,0.045,-0.020
4330,0.025,-0.030
4331,0.010,-0.020
4332,0.040,0.000
4333,0.125,0.045
4334,0.235,0.105
4335,0.320,0.190
4336,0.355,0.320
4337,0.325,0.430
4338,0.235,0.395
4339,0.140,0.210
4340,0.065,0.000
4341,0.020,-0.140
4342,0.005,-0.160
4343,0.000,-0.120
4344,-0.010,-0.100
4345,-0.010,-0.095
4346,-0.010,-0.095
4347,-0.010,-0.095
4348,-0.010,-0.095
4349,-0.010,-0.095
4350,-0.010,-0.095
4351,-0.005,-0.090
4352,-0.005,-0.085
4353,-0.005,-0.070
4354,-0.005,-0.055
4355,-0.005,-0.040
4356,-0.005,-0.025
4357,0.000,-0.010
4358,0.000,0.000
4359,0.000,0.000
4360,0.000,0.000
4361,0.000,0.005
4362,-0.005,0.010
4363,-0.005,0.015
4364,-0.005,0.020
4365,-0.005,0.030
4366,-0.005,0.035
4367,-0.005,0.030
4368,-0.010,0.035
4369,-0.010,0.035
4370,-0.010,0.035
4371,-0.010,0.025
4372,-0.010,0.020
4373,-0.010,0.010
4374,-0.010,0.005
4375,-0.010,0.000
4376,-0.010,0.000
4377,-0.010,0.000
4378,-0.010,0.000
4379,-0.010,0.000
4380,-0.010,-0.005
4381,-0.010,-0.010
4382,-0.015,-0.010
4383,-0.015,-0.015
4384,-0.015,-0.020
4385,-0.015,-0.015
4386,-0.015,-0.015
4387,-0.025,-0.015
4388,-0.030,-0.010
4389,-0.030,0.000
4390,-0.035,0.000
4391,-0.030,0.000
4392,-0.025,0.000
4393,-0.020,0.000
4394,-0.010,-0.010
4395,-0.010,-0.020
4396,-0.010,-0.025
4397,-0.010,-0.020
4398,-0.010,-0.010
4399,-0.010,-0.010
4400,-0.010,-0.010
4401,-0.010,-0.010
4402,-0.010,-0.010
4403,-0.010,-0.005
4404,-0.010,-0.005
4405,-0.010,-0.015
4406,-0.010,-0.020
4407,-0.010,-0.025
4408,-0.010,-0.025
4409,-0.015,-0.015
4410,-0.015,-0.020
4411,-0.025,-0.015
4412,-0.030,-0.015
4413,-0.030,-0.015
4414,-0.030,-0.020
4415,-0.040,-0.035
4416,-0.065,-0.040
4417,-0.060,-0.015
4418,0.000,0.030
4419,0.100,0.095
4420,0.200,0.175
4421,0.250,0.305
4422,0.245,0.435
4423,0.170,0.435
4424,0.075,0.275
4425,0.000,0.050
4426,-0.050,-0.125
4427,-0.080,-0.190
4428,-0.100,-0.150
4429,-0.115,-0.110
4430,-0.125,-0.095
4431,-0.130,-0.110
4432,-0.130,-0.115
4433,-0.130,-0.115
4434,-0.135,-0.110
4435,-0.135,-0.110
4436,-0.135,-0.105
4437,-0.135,-0.095
4438,-0.135,-0.085
4439,-0.140,-0.070
4440,-0.140,-0.055
4441,-0.135,-0.040
4442,-0.135,-0.015
4443,-0.135,-0.010
4444,-0.130,0.000
4445,-0.130,0.000
4446,-0.130,0.000
4447,-0.125,0.015
4448,-0.120,0.020
4449,-0.120,0.030
4450,-0.115,0.035
4451,-0.115,0.035
4452,-0.115,0.040
4453,-0.115,0.040
4454,-0.115,0.040
4455,-0.110,0.035
4456,-0.110,0.030
4457,-0.105,0.025
4458,-0.105,0.020
4459,-0.100,0.015
4460,-0.090,0.005
4461,-0.085,0.000
4462,-0.085,0.000
4463,-0.080,0.000
4464,-0.075,0.000
4465,-0.065,0.000
4466,-0.060,0.000
4467,-0.055,-0.005
4468,-0.050,-0.005
4469,-0.035,-0.005
4470,-0.035,-0.010
4471,-0.030,-0.015
4472,-0.025,-0.015
4473,-0.015,-0.015
4474,-0.015,-0.010
4475,-0.015,0.000
4476,-0.015,0.000
4477,-0.010,0.000
4478,-0.005,0.000
4479,0.000,0.000
4480,0.000,0.000
4481,0.005,0.000
4482,0.015,-0.005
4483,0.025,-0.010
4484,0.030,-0.015
4485,0.030,-0.005
4486,0.030,0.000
4487,0.035,0.000
4488,0.035,-0.005
4489,0.035,-0.005
4490,0.035,-0.005
4491,0.035,-0.005
4492,0.035,-0.010
4493,0.035,-0.015
4494,0.035,-0.015
4495,0.035,-0.015
4496,0.035,-0.010
4497,0.035,-0.010
4498,0.035,-0.010
4499,0.035,-0.010
4500,0.035,-0.005
4501,0.035,-0.015
4502,0.025,-0.025
4503,0.010,-0.020
4504,0.020,0.000
4505,0.090,0.040
4506,0.190,0.095
4507,0.290,0.170
4508,0.340,0.290
4509,0.330,0.410
4510,0.260,0.400
4511,0.170,0.235
4512,0.090,0.030
4513,0.035,-0.115
4514,0.015,-0.155
4515,0.000,-0.115
4516,0.000,-0.080
4517,-0.005,-0.075
4518,-0.005,-0.080
4519,-0.005,-0.085
4520,-0.005,-0.085
4521,0.000,-0.080
4522,0.000,-0.075
4523,0.000,-0.075
4524,0.000,-0.065
4525,0.000,-0.055
4526,0.000,-0.040
4527,0.000,-0.030
4528,0.000,-0.015
4529,0.000,0.000
4530,0.000,0.000
4531,0.000,0.000
4532,0.000,0.015
4533,0.000,0.020
4534,0.000,0.030
4535,0.000,0.035
4536,0.000,0.040
4537,0.000,0.045
4538,0.000,0.045
4539,0.000,0.050
4540,0.000,0.050
4541,-0.005,0.045
4542,-0.005,0.035
4543,-0.010,0.035
4544,-0.010,0.035
4545,-0.010,0.025
4546,-0.010,0.010
4547,-0.010,0.005
4548,-0.010,0.005
4549,-0.015,0.000
4550,-0.015,0.000
4551,-0.015,0.000
4552,-0.015,0.000
4553,-0.020,0.000
4554,-0.030,0.000
4555,-0.030,-0.010
4556,-0.035,-0.010
4557,-0.040,-0.010
4558,-0.045,-0.010
4559,-0.055,-0.020
4560,-0.055,-0.015
4561,-0.060,0.000
4562,-0.065,0.000
4563,-0.075,0.000
4564,-0.080,0.000
4565,-0.080,0.000
4566,-0.080,0.000
4567,-0.075,0.000
4568,-0.065,-0.015
4569,-0.065,-0.020
4570,-0.070,-0.010
4571,-0.080,-0.010
4572,-0.085,-0.005
4573,-0.085,-0.005
4574,-0.085,-0.010
4575,-0.085,-0.005
4576,-0.090,-0.005
4577,-0.090,-0.010
4578,-0.085,-0.015
4579,-0.085,-0.015
4580,-0.085,-0.015
4581,-0.085,-0.010
4582,-0.085,-0.010
4583,-0.080,-0.005
4584,-0.080,-0.010
4585,-0.070,-0.010
4586,-0.065,-0.010
4587,-0.060,-0.010
4588,-0.065,-0.025
4589,-0.090,-0.030
4590,-0.085,-0.005
4591,-0.025,0.035
4592,0.070,0.105
4593,0.170,0.180
4594,0.230,0.295
4595,0.240,0.425
4596,0.180,0.435
4597,0.095,0.280
4598,0.015,0.065
4599,-0.025,-0.105
4600,-0.050,-0.170
4601,-0.065,-0.130
4602,-0.075,-0.090
4603,-0.075,-0.085
4604,-0.065,-0.085
4605,-0.060,-0.090
4606,-0.055,-0.085
4607,-0.050,-0.085
4608,-0.035,-0.085
4609,-0.030,-0.080
4610,-0.015,-0.075
4611,-0.005,-0.065
4612,0.000,-0.055
4613,0.005,-0.035
4614,0.015,-0.020
4615,0.030,-0.005
4616,0.035,0.000
4617,0.040,0.000
4618,0.050,0.005
4619,0.055,0.015
4620,0.055,0.025
4621,0.060,0.035
4622,0.060,0.040
4623,0.060,0.045
4624,0.060,0.050
4625,0.055,0.050
4626,0.055,0.050
4627,0.055,0.050
4628,0.060,0.045
4629,0.060,0.040
4630,0.060,0.035
4631,0.060,0.030
4632,0.055,0.025
4633,0.055,0.020
4634,0.060,0.010
4635,0.060,0.005
4636,0.060,0.000
4637,0.060,0.000
4638,0.055,0.000
4639,0.055,0.000
4640,0.060,0.000
4641,0.060,0.000
4642,0.055,0.000
4643,0.055,0.000
4644,0.055,0.000
4645,0.055,0.000
4646,0.055,0.000
4647,0.050,0.000
4648,0.040,0.000
4649,0.035,0.000
4650,0.035,0.000
4651,0.035,0.000
4652,0.035,0.005
4653,0.050,0.000
4654,0.055,0.000
4655,0.060,0.000
4656,0.060,0.000
4657,0.060,0.000
4658,0.060,0.000
4659,0.060,0.000
4660,0.060,0.000
4661,0.060,0.000
4662,0.060,0.000
4663,0.060,0.000
4664,0.060,0.000
4665,0.060,0.000
4666,0.060,0.000
4667,0.060,0.000
4668,0.060,0.000
4669,0.060,0.000
4670,0.060,0.000
4671,0.055,0.000
4672,0.055,0.000
4673,0.060,0.000
4674,0.055,0.000
4675,0.040,-0.010
4676,0.020,-0.015
4677,0.035,0.000
4678,0.110,0.035
4679,0.210,0.095
4680,0.305,0.165
4681,0.355,0.280
4682,0.350,0.420
4683,0.280,0.445
4684,0.185,0.300
4685,0.100,0.080
4686,0.040,-0.090
4687,0.015,-0.145
4688,0.000,-0.115
4689,0.000,-0.085
4690,-0.005,-0.085
4691,-0.005,-0.090
4692,-0.005,-0.090
4693,-0.005,-0.095
4694,-0.005,-0.095
4695,-0.005,-0.095
4696,0.000,-0.095
4697,0.000,-0.085
4698,0.000,-0.075
4699,0.000,-0.060
4700,0.000,-0.050
4701,0.000,-0.030
4702,0.000,-0.015
4703,0.000,0.000
4704,0.000,0.000
4705,0.000,0.000
4706,0.000,0.000
4707,0.000,0.005
4708,0.000,0.010
4709,0.000,0.020
4710,0.000,0.025
4711,0.000,0.025
4712,-0.005,0.030
4713,0.000,0.030
4714,0.000,0.025
4715,-0.005,0.020
4716,-0.005,0.015
4717,-0.005,0.005
4718,-0.005,0.000
4719,-0.005,0.000
4720,0.000,0.000
4721,0.000,0.000
4722,-0.005,0.000
4723,-0.005,0.000
4724,-0.005,-0.005
4725,-0.005,-0.005
4726,0.000,-0.015
4727,0.000,-0.015
4728,-0.005,-0.020
4729,-0.005,-0.020
4730,-0.005,-0.025
4731,-0.005,-0.030
4732,-0.005,-0.030
4733,-0.010,-0.020
4734,-0.015,-0.015
4735,-0.015,0.000
4736,-0.020,0.000
4737,-0.015,0.000
4738,-0.015,0.000
4739,-0.010,0.000
4740,-0.005,-0.005
4741,0.000,-0.015
4742,0.000,-0.020
4743,0.000,-0.015
4744,0.000,-0.010
4745,0.000,0.000
4746,0.000,0.000
4747,0.000,0.000
4748,0.000,0.000
4749,0.000,0.000
4750,0.000,0.000
4751,0.000,-0.005
4752,0.000,-0.010
4753,0.000,-0.010
4754,0.000,-0.010
4755,0.000,-0.005
4756,0.000,-0.005
4757,0.000,0.000
4758,0.000,0.000
4759,0.000,0.000
4760,0.000,-0.005
4761,0.000,-0.020
4762,-0.020,-0.025
4763,-0.020,0.000
4764,0.035,0.040
4765,0.140,0.095
4766,0.240,0.160
4767,0.295,0.270
4768,0.300,0.405
4769,0.230,0.440
4770,0.135,0.305
4771,0.050,0.090
4772,0.000,-0.085
4773,-0.015,-0.155
4774,-0.030,-0.125
4775,-0.040,-0.085
4776,-0.045,-0.080
4777,-0.050,-0.085
4778,-0.045,-0.090
4779,-0.045,-0.090
4780,-0.045,-0.095
4781,-0.045,-0.090
4782,-0.040,-0.090
4783,-0.040,-0.085
4784,-0.040,-0.070
4785,-0.040,-0.060
4786,-0.040,-0.035
4787,-0.035,-0.020
4788,-0.035,0.000
4789,-0.035,0.000
4790,-0.040,0.000
4791,-0.040,0.005
4792,-0.040,0.020
4793,-0.040,0.015
4794,-0.050,0.020
4795,-0.055,0.035
4796,-0.055,0.035
4797,-0.060,0.035
4798,-0.065,0.040
4799,-0.065,0.035
4800,-0.075,0.030
4801,-0.080,0.030
4802,-0.085,0.030
4803,-0.085,0.025
4804,-0.090,0.015
4805,-0.095,0.005
4806,-0.105,0.000
4807,-0.105,0.000
4808,-0.110,0.000
4809,-0.110,0.000
4810,-0.120,0.000
4811,-0.130,0.000
4812,-0.130,0.000
4813,-0.135,-0.010
4814,-0.145,-0.010
4815,-0.145,-0.020
4816,-0.155,-0.025
4817,-0.160,-0.035
4818,-0.160,-0.035
4819,-0.165,-0.030
4820,-0.165,-0.025
4821,-0.165,-0.015
4822,-0.165,-0.010
4823,-0.165,-0.005
4824,-0.165,0.000
4825,-0.165,0.000
4826,-0.155,0.000
4827,-0.145,0.000
4828,-0.140,-0.010
4829,-0.135,-0.015
4830,-0.135,-0.015
4831,-0.130,-0.010
4832,-0.130,0.000
4833,-0.125,0.000
4834,-0.120,-0.005
4835,-0.115,0.000
4836,-0.110,0.000
4837,-0.110,0.000
4838,-0.105,-0.005
4839,-0.095,-0.010
4840,-0.085,-0.010
4841,-0.085,-0.010
4842,-0.085,-0.010
4843,-0.080,-0.010
4844,-0.075,-0.005
4845,-0.070,0.000
4846,-0.065,0.000
4847,-0.060,-0.010
4848,-0.065,-0.020
4849,-0.085,-0.025
4850,-0.075,0.000
4851,0.000,0.040
4852,0.100,0.110
4853,0.205,0.185
4854,0.270,0.295
4855,0.280,0.430
4856,0.220,0.430
4857,0.140,0.275
4858,0.055,0.055
4859,0.005,-0.115
4860,-0.005,-0.175
4861,-0.010,-0.135
4862,-0.010,-0.095
4863,-0.010,-0.090
4864,-0.010,-0.095
4865,-0.010,-0.095
4866,0.000,-0.095
4867,0.000,-0.095
4868,0.005,-0.090
4869,0.010,-0.090
4870,0.015,-0.080
4871,0.020,-0.060
4872,0.025,-0.050
4873,0.025,-0.035
4874,0.030,-0.015
4875,0.035,0.000
4876,0.035,0.000
4877,0.040,0.000
4878,0.040,0.005
4879,0.035,0.015
4880,0.035,0.020
4881,0.035,0.030
4882,0.035,0.040
4883,0.035,0.035
4884,0.030,0.040
4885,0.030,0.040
4886,0.030,0.040
4887,0.030,0.035
4888,0.030,0.035
4889,0.025,0.030
4890,0.025,0.020
4891,0.025,0.015
4892,0.020,0.010
4893,0.015,0.000
4894,0.025,0.000
4895,0.020,0.000
4896,0.015,0.000
4897,0.020,0.000
4898,0.015,0.000
4899,0.015,0.000
4900,0.015,0.000
4901,0.010,-0.005
4902,0.010,-0.010
4903,0.010,-0.010
4904,0.010,-0.015
4905,0.010,-0.015
4906,0.010,-0.015
4907,0.010,-0.015
4908,0.005,-0.010
4909,0.005,0.000
4910,0.000,0.000
4911,0.000,0.000
4912,0.000,0.000
4913,0.000,0.000
4914,0.005,0.000
4915,0.010,-0.005
4916,0.015,-0.010
4917,0.015,-0.015
4918,0.020,-0.005
4919,0.015,0.000
4920,0.015,-0.005
4921,0.020,-0.005
4922,0.015,0.000
4923,0.015,0.000
4924,0.015,0.000
4925,0.015,0.000
4926,0.015,0.000
4927,0.015,0.000
4928,0.015,0.000
4929,0.015,0.000
4930,0.015,0.000
4931,0.015,0.000
4932,0.015,0.000
4933,0.015,0.000
4934,0.015,0.000
4935,0.010,-0.010
4936,0.000,-0.015
4937,-0.010,0.000
4938,0.025,0.025
4939,0.120,0.080
4940,0.230,0.135
4941,0.310,0.230
4942,0.325,0.365
4943,0.280,0.450
4944,0.185,0.345
4945,0.090,0.145
4946,0.025,-0.055
4947,0.000,-0.155
4948,-0.010,-0.135
4949,-0.025,-0.095
4950,-0.025,-0.080
4951,-0.030,-0.080
4952,-0.035,-0.080
4953,-0.035,-0.090
4954,-0.035,-0.095
4955,-0.035,-0.095
4956,-0.035,-0.090
4957,-0.035,-0.080
4958,-0.035,-0.075
4959,-0.035,-0.055
4960,-0.035,-0.040
4961,-0.040,-0.020
4962,-0.040,-0.015
4963,-0.040,0.000
4964,-0.045,0.000
4965,-0.045,0.000
4966,-0.055,0.005
4967,-0.060,0.020
4968,-0.060,0.030
4969,-0.070,0.030
4970,-0.075,0.035
4971,-0.080,0.040
4972,-0.085,0.040
4973,-0.095,0.030
4974,-0.105,0.040
4975,-0.105,0.045
4976,-0.115,0.035
4977,-0.125,0.025
4978,-0.130,0.020
4979,-0.130,0.010
4980,-0.130,0.005
4981,-0.135,0.000
4982,-0.135,0.000
4983,-0.130,0.000
4984,-0.130,0.000
4985,-0.130,0.000
4986,-0.135,0.000
4987,-0.135,-0.005
4988,-0.135,-0.015
4989,-0.135,-0.015
4990,-0.135,-0.015
4991,-0.130,-0.015
4992,-0.130,-0.015
4993,-0.130,-0.015
4994,-0.130,-0.020
4995,-0.130,-0.015
4996,-0.130,-0.005
4997,-0.135,0.000
4998,-0.135,0.000
4999,-0.130,0.000
5000,-0.125,0.000
5001,-0.110,0.000
5002,-0.105,0.000
5003,-0.090,-0.005
5004,-0.090,-0.005
5005,-0.085,-0.005
5006,-0.085,-0.005
5007,-0.085,0.000
5008,-0.080,0.000
5009,-0.070,0.000
5010,-0.070,0.000
5011,-0.065,0.000
5012,-0.065,0.000
5013,-0.060,-0.005
5014,-0.055,-0.010
5015,-0.055,-0.010
5016,-0.055,-0.010
5017,-0.055,-0.010
5018,-0.050,-0.010
5019,-0.040,-0.005
5020,-0.030,-0.005
5021,-0.030,-0.005
5022,-0.030,-0.010
5023,-0.030,-0.025
5024,-0.045,-0.020
5025,-0.030,0.005
5026,0.040,0.050
5027,0.145,0.110
5028,0.255,0.190
5029,0.310,0.305
5030,0.325,0.435
5031,0.270,0.420
5032,0.195,0.255
5033,0.120,0.035
5034,0.085,-0.130
5035,0.080,-0.160
5036,0.075,-0.125
5037,0.070,-0.090
5038,0.070,-0.085
5039,0.075,-0.085
5040,0.080,-0.090
5041,0.080,-0.090
5042,0.080,-0.085
5043,0.085,-0.090
5044,0.085,-0.085
5045,0.085,-0.080
5046,0.090,-0.065
5047,0.095,-0.055
5048,0.090,-0.040
5049,0.090,-0.025
5050,0.100,-0.015
5051,0.105,0.000
5052,0.105,0.000
5053,0.105,0.000
5054,0.105,0.005
5055,0.105,0.015
5056,0.100,0.025
5057,0.095,0.025
5058,0.095,0.035
5059,0.090,0.040
5060,0.085,0.040
5061,0.085,0.040
5062,0.085,0.045
5063,0.080,0.040
5064,0.080,0.035
5065,0.080,0.025
5066,0.075,0.020
5067,0.075,0.010
5068,0.080,0.005
5069,0.080,0.005
5070,0.080,0.000
5071,0.075,0.000
5072,0.065,0.000
5073,0.065,0.000
5074,0.065,0.000
5075,0.065,0.000
5076,0.065,0.000
5077,0.060,-0.005
5078,0.060,-0.005
5079,0.060,-0.005
5080,0.060,-0.010
5081,0.060,-0.010
5082,0.055,0.000
5083,0.040,0.000
5084,0.040,0.000
5085,0.035,0.000
5086,0.035,0.000
5087,0.045,0.000
5088,0.050,0.000
5089,0.055,-0.005
5090,0.060,-0.010
5091,0.060,-0.005
5092,0.060,-0.005
5093,0.055,0.000
5094,0.055,0.000
5095,0.060,0.000
5096,0.060,0.000
5097,0.060,0.000
5098,0.055,0.000
5099,0.055,0.000
5100,0.055,-0.005
5101,0.055,-0.005
5102,0.055,-0.005
5103,0.055,-0.005
5104,0.055,-0.005
5105,0.055,-0.005
5106,0.050,0.000
5107,0.045,0.000
5108,0.045,0.000
5109,0.045,-0.015
5110,0.025,-0.030
5111,0.010,-0.025
5112,0.035,0.000
5113,0.120,0.035
5114,0.225,0.095
5115,0.320,0.175
5116,0.355,0.310
5117,0.330,0.460
5118,0.245,0.450
5119,0.150,0.270
5120,0.070,0.025
5121,0.025,-0.125
5122,0.005,-0.150
5123,0.000,-0.115
5124,-0.005,-0.090
5125,-0.010,-0.090
5126,-0.010,-0.095
5127,-0.010,-0.100
5128,-0.010,-0.105
5129,-0.010,-0.105
5130,-0.010,-0.105
5131,-0.010,-0.095
5132,-0.010,-0.095
5133,-0.010,-0.080
5134,-0.005,-0.065
5135,-0.005,-0.055
5136,0.000,-0.040
5137,0.000,-0.025
5138,0.000,-0.015
5139,0.000,0.000
5140,0.000,0.000
5141,0.000,0.000
5142,-0.005,0.000
5143,-0.005,0.005
5144,-0.005,0.010
5145,-0.005,0.015
5146,-0.005,0.015
5147,-0.010,0.020
5148,-0.010,0.020
5149,-0.010,0.020
5150,-0.010,0.015
5151,-0.015,0.010
5152,-0.010,0.005
5153,-0.010,0.000
5154,-0.010,0.000
5155,-0.010,0.000
5156,-0.010,0.000
5157,-0.010,0.000
5158,-0.010,-0.005
5159,-0.005,-0.010
5160,-0.005,-0.015
5161,-0.010,-0.015
5162,-0.010,-0.025
5163,-0.010,-0.025
5164,-0.010,-0.025
5165,-0.010,-0.030
5166,-0.015,-0.035
5167,-0.010,-0.035
5168,-0.010,-0.035
5169,-0.015,-0.035
5170,-0.020,-0.025
5171,-0.025,-0.015
5172,-0.030,-0.005
5173,-0.030,-0.005
5174,-0.030,-0.005
5175,-0.015,-0.005
5176,-0.010,-0.020
5177,-0.005,-0.030
5178,-0.005,-0.025
5179,-0.005,-0.015
5180,-0.005,-0.005
5181,-0.005,-0.005
5182,0.000,-0.010
5183,0.000,-0.005
5184,0.000,-0.005
5185,0.000,-0.005
5186,0.000,-0.005
5187,0.000,-0.015
5188,0.000,-0.020
5189,0.000,-0.015
5190,-0.005,-0.010
5191,-0.005,-0.010
5192,-0.005,-0.010
5193,-0.005,-0.005
5194,-0.005,-0.005
5195,-0.005,-0.005
5196,-0.005,-0.010
5197,-0.015,-0.025
5198,-0.040,-0.025
5199,-0.025,0.000
5200,0.040,0.045
5201,0.155,0.090
5202,0.255,0.170
5203,0.300,0.280
5204,0.290,0.435
5205,0.205,0.445
5206,0.105,0.290
5207,0.025,0.045
5208,-0.010,-0.110
5209,-0.030,-0.155
5210,-0.045,-0.120
5211,-0.055,-0.095
5212,-0.060,-0.085
5213,-0.060,-0.090
5214,-0.060,-0.095
5215,-0.060,-0.100
5216,-0.060,-0.100
5217,-0.060,-0.100
5218,-0.060,-0.090
5219,-0.060,-0.075
5220,-0.060,-0.065
5221,-0.055,-0.050
5222,-0.055,-0.040
5223,-0.055,-0.025
5224,-0.055,-0.005
5225,-0.055,0.000
5226,-0.055,0.000
5227,-0.055,0.000
5228,-0.060,0.010
5229,-0.060,0.020
5230,-0.065,0.025
5231,-0.065,0.025
5232,-0.070,0.035
5233,-0.080,0.040
5234,-0.085,0.030
5235,-0.085,0.025
5236,-0.100,0.030
5237,-0.105,0.025
5238,-0.105,0.020
5239,-0.110,0.010
5240,-0.120,0.000
5241,-0.130,0.000
5242,-0.130,0.000
5243,-0.135,0.000
5244,-0.140,-0.005
5245,-0.145,-0.005
5246,-0.155,0.000
5247,-0.155,-0.015
5248,-0.160,-0.025
5249,-0.160,-0.020
5250,-0.160,-0.020
5251,-0.160,-0.025
5252,-0.165,-0.030
5253,-0.165,-0.030
5254,-0.165,-0.025
5255,-0.165,-0.030
5256,-0.165,-0.035
5257,-0.165,-0.020
5258,-0.165,-0.010
5259,-0.165,0.000
5260,-0.165,0.000
5261,-0.165,0.000
5262,-0.155,0.000
5263,-0.145,-0.005
5264,-0.135,-0.015
5265,-0.130,-0.020
5266,-0.130,-0.020
5267,-0.125,-0.010
5268,-0.115,0.000
5269,-0.105,0.000
5270,-0.105,-0.005
5271,-0.100,-0.005
5272,-0.095,-0.005
5273,-0.090,-0.005
5274,-0.085,-0.005
5275,-0.085,-0.010
5276,-0.080,-0.015
5277,-0.080,-0.015
5278,-0.075,-0.015
5279,-0.060,-0.015
5280,-0.055,-0.010
5281,-0.050,-0.010
5282,-0.040,-0.005
5283,-0.040,-0.005
5284,-0.040,-0.010
5285,-0.050,-0.030
5286,-0.065,-0.025
5287,-0.040,0.000
5288,0.035,0.055
5289,0.150,0.115
5290,0.255,0.215
5291,0.290,0.345
5292,0.285,0.465
5293,0.200,0.385
5294,0.115,0.200
5295,0.050,-0.015
5296,0.015,-0.150
5297,0.010,-0.160
5298,0.005,-0.120
5299,0.005,-0.095
5300,0.010,-0.090
5301,0.010,-0.090
5302,0.010,-0.095
5303,0.010,-0.090
5304,0.020,-0.085
5305,0.025,-0.085
5306,0.025,-0.075
5307,0.025,-0.070
5308,0.030,-0.060
5309,0.035,-0.045
5310,0.035,-0.030
5311,0.035,-0.015
5312,0.040,-0.005
5313,0.040,0.000
5314,0.040,0.000
5315,0.040,0.005
5316,0.040,0.015
5317,0.040,0.025
5318,0.035,0.035
5319,0.035,0.040
5320,0.030,0.040
5321,0.030,0.045
5322,0.025,0.050
5323,0.025,0.050
5324,0.025,0.045
5325,0.015,0.040
5326,0.015,0.035
5327,0.015,0.020
5328,0.015,0.010
5329,0.015,0.000
5330,0.015,0.000
5331,0.015,0.000
5332,0.015,0.000
5333,0.015,0.000
5334,0.015,0.000
5335,0.015,0.000
5336,0.010,0.000
5337,0.010,-0.005
5338,0.010,-0.010
5339,0.010,-0.005
5340,0.010,-0.005
5341,0.005,-0.005
5342,0.005,-0.010
5343,0.005,-0.010
5344,0.005,-0.010
5345,0.000,0.000
5346,0.000,0.000
5347,0.000,0.000
5348,0.000,0.000
5349,0.000,0.000
5350,0.000,0.000
5351,0.000,0.000
5352,0.005,-0.005
5353,0.010,-0.010
5354,0.010,-0.010
5355,0.010,-0.010
5356,0.010,0.000
5357,0.010,0.000
5358,0.010,0.000
5359,0.010,0.000
5360,0.010,0.000
5361,0.010,0.000
5362,0.010,0.000
5363,0.010,-0.010
5364,0.010,-0.010
5365,0.010,-0.010
5366,0.010,-0.005
5367,0.010,0.000
5368,0.010,0.000
5369,0.010,0.000
5370,0.010,0.000
5371,0.005,0.000
5372,0.000,-0.010
5373,0.000,-0.020
5374,-0.020,-0.015
5375,0.005,0.005
5376,0.095,0.065
5377,0.210,0.115
5378,0.290,0.210
5379,0.320,0.345
5380,0.280,0.445
5381,0.190,0.375
5382,0.105,0.185
5383,0.025,-0.015
5384,0.000,-0.140
5385,-0.020,-0.155
5386,-0.035,-0.120
5387,-0.040,-0.100
5388,-0.050,-0.090
5389,-0.055,-0.090
5390,-0.060,-0.100
5391,-0.060,-0.095
5392,-0.060,-0.095
5393,-0.065,-0.100
5394,-0.065,-0.090
5395,-0.070,-0.065
5396,-0.075,-0.055
5397,-0.080,-0.050
5398,-0.080,-0.040
5399,-0.080,-0.020
5400,-0.085,-0.005
5401,-0.085,0.000
5402,-0.085,0.000
5403,-0.090,0.005
5404,-0.095,0.015
5405,-0.105,0.020
5406,-0.110,0.025
5407,-0.115,0.030
5408,-0.120,0.045
5409,-0.130,0.045
5410,-0.130,0.040
5411,-0.130,0.030
5412,-0.130,0.030
5413,-0.135,0.020
5414,-0.135,0.030
5415,-0.140,0.015
5416,-0.135,0.000
5417,-0.130,0.000
5418,-0.130,0.000
5419,-0.130,0.000
5420,-0.130,0.000
5421,-0.125,-0.005
5422,-0.125,-0.005
5423,-0.125,-0.005
5424,-0.125,-0.010
5425,-0.120,-0.010
5426,-0.120,-0.010
5427,-0.115,-0.010
5428,-0.115,-0.015
5429,-0.115,-0.015
5430,-0.115,-0.020
5431,-0.115,-0.025
5432,-0.110,-0.020
5433,-0.110,-0.010
5434,-0.110,0.000
5435,-0.110,0.000
5436,-0.110,0.000
5437,-0.110,0.000
5438,-0.105,0.000
5439,-0.095,0.000
5440,-0.085,0.000
5441,-0.080,-0.005
5442,-0.075,-0.010
5443,-0.065,-0.005
5444,-0.065,0.000
5445,-0.060,0.000
5446,-0.060,0.000
5447,-0.055,0.000
5448,-0.055,0.000
5449,-0.055,0.000
5450,-0.050,0.000
5451,-0.040,-0.005
5452,-0.035,-0.010
5453,-0.030,-0.010
5454,-0.020,-0.010
5455,-0.015,-0.005
5456,-0.010,-0.005
5457,-0.005,-0.005
5458,0.000,0.000
5459,0.000,0.000
5460,0.005,-0.005
5461,0.005,-0.015
5462,0.000,-0.030
5463,0.000,-0.010
5464,0.055,0.025
5465,0.165,0.085
5466,0.285,0.170
5467,0.365,0.260
5468,0.400,0.405
5469,0.365,0.435
5470,0.285,0.305
5471,0.205,0.100
5472,0.145,-0.080
5473,0.120,-0.155
5474,0.100,-0.140
5475,0.090,-0.105
5476,0.085,-0.085
5477,0.085,-0.085
5478,0.090,-0.090
5479,0.090,-0.095
5480,0.090,-0.095
5481,0.090,-0.095
5482,0.100,-0.090
5483,0.105,-0.080
5484,0.105,-0.070
5485,0.105,-0.060
5486,0.100,-0.045
5487,0.100,-0.030
5488,0.100,-0.015
5489,0.105,-0.005
5490,0.105,0.000
5491,0.105,0.000
5492,0.100,0.005
5493,0.100,0.015
5494,0.105,0.020
5495,0.100,0.025
5496,0.090,0.035
5497,0.090,0.040
5498,0.085,0.040
5499,0.080,0.045
5500,0.080,0.040
5501,0.075,0.030
5502,0.075,0.020
5503,0.075,0.020
5504,0.075,0.020
5505,0.065,0.010
5506,0.065,0.000
5507,0.065,0.000
5508,0.065,0.000
5509,0.065,0.000
5510,0.065,0.000
5511,0.060,0.000
5512,0.060,0.000
5513,0.060,-0.005
5514,0.055,-0.005
5515,0.055,-0.010
5516,0.055,-0.010
5517,0.055,-0.010
5518,0.045,-0.010
5519,0.045,-0.010
5520,0.045,-0.005
5521,0.040,0.000
5522,0.035,0.000
5523,0.030,0.000
5524,0.030,0.000
5525,0.030,0.000
5526,0.030,0.000
5527,0.035,0.000
5528,0.040,0.000
5529,0.045,-0.010
5530,0.050,-0.015
5531,0.050,-0.010
5532,0.045,-0.005
5533,0.040,0.000
5534,0.045,0.000
5535,0.045,0.000
5536,0.040,0.000
5537,0.040,0.000
5538,0.040,-0.005
5539,0.040,-0.010
5540,0.040,-0.010
5541,0.040,-0.015
5542,0.040,-0.010
5543,0.040,-0.005
5544,0.035,-0.005
5545,0.035,-0.005
5546,0.035,-0.005
5547,0.035,-0.005
5548,0.035,-0.005
5549,0.030,-0.025
5550,0.000,-0.035
5551,0.000,-0.010
5552,0.075,0.020
5553,0.175,0.075
5554,0.285,0.140
5555,0.340,0.250
5556,0.345,0.400
5557,0.270,0.450
5558,0.175,0.330
5559,0.085,0.105
5560,0.030,-0.080
5561,0.005,-0.150
5562,0.000,-0.135
5563,-0.010,-0.110
5564,-0.015,-0.100
5565,-0.015,-0.100
5566,-0.020,-0.105
5567,-0.020,-0.110
5568,-0.020,-0.110
5569,-0.020,-0.110
5570,-0.015,-0.105
5571,-0.015,-0.090
5572,-0.015,-0.080
5573,-0.015,-0.070
5574,-0.010,-0.055
5575,-0.010,-0.035
5576,-0.010,-0.025
5577,-0.010,-0.010
5578,-0.005,0.000
5579,-0.005,0.000
5580,-0.010,0.000
5581,-0.005,0.005
5582,-0.005,0.015
5583,-0.015,0.020
5584,-0.015,0.025
5585,-0.015,0.030
5586,-0.015,0.030
5587,-0.020,0.030
5588,-0.030,0.025
5589,-0.030,0.025
5590,-0.030,0.025
5591,-0.030,0.015
5592,-0.030,0.005
5593,-0.030,0.000
5594,-0.030,0.000
5595,-0.030,0.000
5596,-0.030,0.000
5597,-0.030,0.000
5598,-0.030,0.000
5599,-0.030,0.000
5600,-0.030,0.000
5601,-0.030,0.000
5602,-0.030,-0.005
5603,-0.030,-0.005
5604,-0.030,-0.010
5605,-0.030,-0.015
5606,-0.030,-0.020
5607,-0.030,-0.015
5608,-0.035,-0.020
5609,-0.035,-0.020
5610,-0.035,-0.010
5611,-0.040,0.000
5612,-0.040,0.000
5613,-0.040,0.000
5614,-0.040,0.000
5615,-0.030,0.000
5616,-0.020,-0.010
5617,-0.015,-0.020
5618,-0.015,-0.020
5619,-0.015,-0.015
5620,-0.020,-0.005
5621,-0.020,0.000
5622,-0.020,0.000
5623,-0.025,0.000
5624,-0.025,0.000
5625,-0.035,-0.005
5626,-0.035,-0.005
5627,-0.035,-0.020
5628,-0.035,-0.015
5629,-0.045,-0.010
5630,-0.055,-0.010
5631,-0.055,-0.015
5632,-0.060,-0.015
5633,-0.065,-0.010
5634,-0.070,-0.005
5635,-0.075,-0.005
5636,-0.080,-0.025
5637,-0.095,-0.035
5638,-0.130,-0.035
5639,-0.110,-0.005
5640,-0.030,0.050
5641,0.065,0.125
5642,0.155,0.210
5643,0.195,0.335
5644,0.170,0.460
5645,0.085,0.425
5646,0.000,0.240
5647,-0.070,0.020
5648,-0.125,-0.135
5649,-0.150,-0.170
5650,-0.165,-0.140
5651,-0.175,-0.110
5652,-0.180,-0.105
5653,-0.180,-0.105
5654,-0.185,-0.100
5655,-0.185,-0.100
5656,-0.185,-0.105
5657,-0.185,-0.095
5658,-0.185,-0.085
5659,-0.180,-0.080
5660,-0.175,-0.075
5661,-0.170,-0.055
5662,-0.170,-0.050
5663,-0.165,-0.025
5664,-0.165,-0.010
5665,-0.160,0.000
5666,-0.160,0.000
5667,-0.155,0.000
5668,-0.145,0.010
5669,-0.140,0.025
5670,-0.140,0.030
5671,-0.140,0.045
5672,-0.140,0.045
5673,-0.140,0.050
5674,-0.140,0.050
5675,-0.140,0.050
5676,-0.135,0.050
5677,-0.135,0.045
5678,-0.130,0.040
5679,-0.130,0.030
5680,-0.130,0.030
5681,-0.120,0.020
5682,-0.115,0.020
5683,-0.115,0.015
5684,-0.110,0.005
5685,-0.105,0.000
5686,-0.105,0.000
5687,-0.100,0.000
5688,-0.095,0.000
5689,-0.085,0.000
5690,-0.085,0.000
5691,-0.085,0.000
5692,-0.080,0.000
5693,-0.070,0.000
5694,-0.060,0.000
5695,-0.055,-0.005
5696,-0.045,-0.005
5697,-0.035,0.000
5698,-0.030,0.000
5699,-0.025,0.000
5700,-0.015,0.000
5701,-0.010,0.000
5702,-0.005,0.000
5703,0.005,0.000
5704,0.020,0.000
5705,0.045,0.000
5706,0.060,0.000
5707,0.070,0.000
5708,0.090,0.000
5709,0.110,0.000
5710,0.115,0.000
5711,0.115,0.000
5712,0.130,0.000
5713,0.130,0.000
5714,0.135,0.000
5715,0.135,0.000
5716,0.135,-0.005
5717,0.140,-0.005
5718,0.140,-0.005
5719,0.140,-0.005
5720,0.140,-0.005
5721,0.140,-0.005
5722,0.140,0.000
5723,0.140,0.000
5724,0.140,0.000
5725,0.140,-0.005
5726,0.120,-0.025
5727,0.100,-0.015
5728,0.130,0.005
5729,0.210,0.055
5730,0.320,0.120
5731,0.395,0.205
5732,0.430,0.345
5733,0.410,0.445
5734,0.325,0.395
5735,0.230,0.210
5736,0.155,0.000
5737,0.110,-0.125
5738,0.085,-0.140
5739,0.070,-0.110
5740,0.060,-0.090
5741,0.060,-0.085
5742,0.060,-0.085
5743,0.060,-0.095
5744,0.055,-0.095
5745,0.055,-0.095
5746,0.050,-0.095
5747,0.050,-0.090
5748,0.055,-0.080
5749,0.055,-0.070
5750,0.055,-0.050
5751,0.055,-0.040
5752,0.055,-0.020
5753,0.055,-0.005
5754,0.055,0.000
5755,0.060,0.000
5756,0.055,0.000
5757,0.055,0.015
5758,0.055,0.015
5759,0.055,0.020
5760,0.055,0.030
5761,0.045,0.030
5762,0.040,0.025
5763,0.040,0.025
5764,0.035,0.025
5765,0.035,0.025
5766,0.030,0.020
5767,0.030,0.020
5768,0.030,0.015
5769,0.030,0.005
5770,0.030,0.000
5771,0.030,0.000
5772,0.030,0.000
5773,0.030,0.000
5774,0.025,0.000
5775,0.025,-0.005
5776,0.025,-0.005
5777,0.015,-0.010
5778,0.015,-0.010
5779,0.015,-0.020
5780,0.015,-0.025
5781,0.010,-0.025
5782,0.010,-0.025
5783,0.010,-0.025
5784,0.005,-0.020
5785,0.000,-0.010
5786,0.000,0.000
5787,0.000,0.000
5788,0.000,0.000
5789,0.000,0.000
5790,0.000,0.000
5791,0.005,-0.005
5792,0.010,-0.015
5793,0.015,-0.025
5794,0.015,-0.025
5795,0.015,-0.020
5796,0.015,-0.005
5797,0.015,-0.005
5798,0.010,-0.010
5799,0.010,-0.010
5800,0.015,-0.005
5801,0.015,-0.005
5802,0.015,-0.010
5803,0.015,-0.010
5804,0.015,-0.015
5805,0.015,-0.010
5806,0.015,-0.010
5807,0.015,-0.010
5808,0.015,-0.010
5809,0.010,-0.010
5810,0.010,-0.005
5811,0.010,-0.005
5812,0.010,-0.010
5813,0.000,-0.030
5814,-0.010,-0.020
5815,0.005,0.000
5816,0.085,0.045
5817,0.200,0.100
5818,0.285,0.185
5819,0.325,0.320
5820,0.295,0.435
5821,0.210,0.410
5822,0.120,0.245
5823,0.045,0.035
5824,0.000,-0.110
5825,-0.015,-0.150
5826,-0.025,-0.120
5827,-0.035,-0.095
5828,-0.040,-0.095
5829,-0.040,-0.095
5830,-0.040,-0.100
5831,-0.040,-0.100
5832,-0.035,-0.100
5833,-0.035,-0.090
5834,-0.035,-0.080
5835,-0.035,-0.070
5836,-0.030,-0.065
5837,-0.030,-0.050
5838,-0.030,-0.035
5839,-0.025,-0.020
5840,-0.025,-0.005
5841,-0.030,0.000
5842,-0.030,0.000
5843,-0.030,0.000
5844,-0.030,0.010
5845,-0.030,0.015
5846,-0.030,0.020
5847,-0.035,0.025
5848,-0.035,0.035
5849,-0.040,0.035
5850,-0.040,0.035
5851,-0.040,0.040
5852,-0.040,0.035
5853,-0.045,0.035
5854,-0.045,0.020
5855,-0.045,0.010
5856,-0.050,0.005
5857,-0.040,0.000
5858,-0.040,0.000
5859,-0.040,0.000
5860,-0.040,0.000
5861,-0.040,0.000
5862,-0.040,0.000
5863,-0.040,0.000
5864,-0.045,0.000
5865,-0.050,0.000
5866,-0.040,0.000
5867,-0.040,-0.005
5868,-0.045,-0.015
5869,-0.045,-0.015
5870,-0.045,-0.015
5871,-0.050,-0.015
5872,-0.050,-0.015
5873,-0.055,-0.010
5874,-0.055,0.000
5875,-0.060,0.000
5876,-0.060,0.000
5877,-0.060,0.000
5878,-0.055,0.000
5879,-0.045,0.000
5880,-0.035,-0.005
5881,-0.035,-0.005
5882,-0.035,-0.010
5883,-0.035,-0.010
5884,-0.035,-0.005
5885,-0.040,0.000
5886,-0.040,0.000
5887,-0.040,0.000
5888,-0.045,0.000
5889,-0.045,0.000
5890,-0.050,0.000
5891,-0.055,-0.010
5892,-0.060,-0.010
5893,-0.060,-0.010
5894,-0.065,-0.020
5895,-0.070,-0.020
5896,-0.075,-0.015
5897,-0.080,-0.010
5898,-0.085,0.000
5899,-0.085,0.000
5900,-0.090,-0.010
5901,-0.110,-0.030
5902,-0.140,-0.040
5903,-0.120,-0.010
5904,-0.045,0.040
5905,0.055,0.115
5906,0.145,0.210
5907,0.190,0.340
5908,0.170,0.450
5909,0.090,0.420
5910,0.000,0.245
5911,-0.065,0.020
5912,-0.115,-0.140
5913,-0.140,-0.180
5914,-0.160,-0.140
5915,-0.175,-0.115
5916,-0.185,-0.105
5917,-0.185,-0.095
5918,-0.185,-0.105
5919,-0.185,-0.105
5920,-0.185,-0.110
5921,-0.185,-0.100
5922,-0.180,-0.095
5923,-0.180,-0.085
5924,-0.175,-0.070
5925,-0.170,-0.060
5926,-0.165,-0.050
5927,-0.160,-0.030
5928,-0.150,-0.015
5929,-0.145,0.000
5930,-0.140,0.000
5931,-0.140,0.000
5932,-0.140,0.005
5933,-0.140,0.015
5934,-0.135,0.020
5935,-0.135,0.030
5936,-0.135,0.040
5937,-0.135,0.045
5938,-0.135,0.050
5939,-0.135,0.055
5940,-0.135,0.055
5941,-0.130,0.045
5942,-0.130,0.040
5943,-0.130,0.035
5944,-0.120,0.025
5945,-0.115,0.015
5946,-0.115,0.005
5947,-0.110,0.000
5948,-0.105,0.000
5949,-0.105,0.000
5950,-0.100,0.000
5951,-0.090,0.000
5952,-0.085,0.000
5953,-0.080,0.000
5954,-0.080,0.000
5955,-0.075,0.000
5956,-0.065,-0.005
5957,-0.060,-0.005
5958,-0.050,-0.005
5959,-0.040,-0.005
5960,-0.030,-0.010
5961,-0.020,-0.005
5962,-0.010,0.000
5963,-0.005,0.000
5964,0.000,0.000
5965,0.000,0.000
5966,0.005,0.000
5967,0.020,0.000
5968,0.050,0.000
5969,0.070,0.000
5970,0.095,0.000
5971,0.115,-0.005
5972,0.125,0.000
5973,0.130,0.000
5974,0.130,0.000
5975,0.135,0.000
5976,0.140,0.000
5977,0.140,0.000
5978,0.140,0.000
5979,0.140,0.000
5980,0.140,0.000
5981,0.145,-0.005
5982,0.145,-0.005
5983,0.145,-0.005
5984,0.145,-0.005
5985,0.145,0.000
5986,0.145,0.000
5987,0.145,0.000
5988,0.145,0.000
5989,0.145,-0.005
5990,0.135,-0.015
5991,0.115,-0.020
5992,0.120,-0.005
5993,0.185,0.030
5994,0.280,0.085
5995,0.370,0.160
5996,0.425,0.270
5997,0.430,0.395
5998,0.370,0.425
5999,0.275,0.295
6000,0.190,0.085
6001,0.130,-0.090
6002,0.100,-0.145
6003,0.080,-0.120
6004,0.070,-0.085
6005,0.060,-0.075
6006,0.060,-0.080
6007,0.060,-0.085
6008,0.060,-0.085
6009,0.060,-0.085
6010,0.060,-0.085
6011,0.060,-0.085
6012,0.060,-0.075
6013,0.060,-0.070
6014,0.060,-0.055
6015,0.060,-0.035
6016,0.065,-0.020
6017,0.065,-0.010
6018,0.060,0.000
6019,0.060,0.000
6020,0.060,0.000
6021,0.060,0.005
6022,0.060,0.010
6023,0.060,0.015
6024,0.055,0.020
6025,0.055,0.025
6026,0.050,0.025
6027,0.040,0.025
6028,0.040,0.025
6029,0.035,0.025
6030,0.035,0.020
6031,0.035,0.020
6032,0.035,0.010
6033,0.035,0.005
6034,0.035,0.000
6035,0.035,0.000
6036,0.035,0.000
6037,0.035,0.000
6038,0.035,0.000
6039,0.030,0.000
6040,0.030,-0.005
6041,0.025,-0.010
6042,0.025,-0.015
6043,0.020,-0.020
6044,0.015,-0.020
6045,0.015,-0.025
6046,0.015,-0.025
6047,0.010,-0.030
6048,0.010,-0.020
6049,0.005,-0.015
6050,0.000,-0.005
6051,0.000,0.000
6052,0.000,0.000
6053,0.000,0.000
6054,0.000,0.000
6055,0.005,0.000
6056,0.010,-0.015
6057,0.015,-0.020
6058,0.015,-0.020
6059,0.015,-0.020
6060,0.015,-0.010
6061,0.015,-0.005
6062,0.015,-0.005
6063,0.015,-0.010
6064,0.015,-0.010
6065,0.010,-0.005
6066,0.010,-0.005
6067,0.015,-0.015
6068,0.015,-0.020
6069,0.020,-0.015
6070,0.010,-0.015
6071,0.010,-0.010
6072,0.010,-0.010
6073,0.010,-0.010
6074,0.010,-0.005
6075,0.010,-0.005
6076,0.010,-0.010
6077,0.000,-0.025
6078,-0.010,-0.025
6079,0.000,-0.010
6080,0.060,0.030
6081,0.160,0.080
6082,0.265,0.150
6083,0.320,0.265
6084,0.315,0.400
6085,0.240,0.440
6086,0.145,0.310
6087,0.065,0.100
6088,0.010,-0.075
6089,-0.010,-0.150
6090,-0.025,-0.130
6091,-0.040,-0.100
6092,-0.040,-0.085
6093,-0.045,-0.085
6094,-0.050,-0.090
6095,-0.040,-0.095
6096,-0.040,-0.095
6097,-0.040,-0.095
6098,-0.040,-0.085
6099,-0.040,-0.075
6100,-0.040,-0.060
6101,-0.040,-0.050
6102,-0.040,-0.040
6103,-0.035,-0.020
6104,-0.035,-0.010
6105,-0.035,-0.005
6106,-0.035,0.000
6107,-0.035,0.005
6108,-0.035,0.010
6109,-0.035,0.010
6110,-0.035,0.015
6111,-0.040,0.020
6112,-0.050,0.030
6113,-0.055,0.040
6114,-0.055,0.045
6115,-0.060,0.030
6116,-0.060,0.030
6117,-0.065,0.030
6118,-0.075,0.020
6119,-0.080,0.005
6120,-0.080,0.005
6121,-0.085,0.000
6122,-0.085,0.000
6123,-0.085,0.000
6124,-0.090,0.000
6125,-0.100,-0.005
6126,-0.100,-0.010
6127,-0.105,-0.005
6128,-0.110,-0.005
6129,-0.115,-0.015
6130,-0.115,-0.020
6131,-0.130,-0.020
6132,-0.135,-0.015
6133,-0.135,-0.025
6134,-0.145,-0.025
6135,-0.145,-0.030
6136,-0.145,-0.025
6137,-0.155,-0.025
6138,-0.160,-0.015
6139,-0.160,-0.015
6140,-0.160,-0.005
6141,-0.160,0.000
6142,-0.160,0.000
6143,-0.150,-0.005
6144,-0.145,-0.010
6145,-0.140,-0.010
6146,-0.140,-0.020
6147,-0.140,-0.025
6148,-0.140,-0.010
6149,-0.140,0.000
6150,-0.140,-0.005
6151,-0.140,-0.010
6152,-0.140,-0.010
6153,-0.140,-0.005
6154,-0.140,-0.005
6155,-0.135,-0.010
6156,-0.135,-0.020
6157,-0.130,-0.025
6158,-0.130,-0.025
6159,-0.130,-0.025
6160,-0.130,-0.015
6161,-0.130,-0.010
6162,-0.120,-0.010
6163,-0.115,-0.010
6164,-0.115,-0.015
6165,-0.120,-0.025
6166,-0.135,-0.035
6167,-0.140,-0.015
6168,-0.085,0.025
6169,0.010,0.095
6170,0.110,0.175
6171,0.185,0.280
6172,0.205,0.400
6173,0.160,0.450
6174,0.070,0.330
6175,-0.010,0.125
6176,-0.065,-0.070
6177,-0.095,-0.165
6178,-0.110,-0.140
6179,-0.120,-0.100
6180,-0.120,-0.085
6181,-0.115,-0.085
6182,-0.110,-0.085
6183,-0.105,-0.085
6184,-0.100,-0.080
6185,-0.090,-0.080
6186,-0.090,-0.075
6187,-0.090,-0.075
6188,-0.080,-0.065
6189,-0.065,-0.050
6190,-0.060,-0.035
6191,-0.055,-0.025
6192,-0.045,-0.010
6193,-0.035,0.000
6194,-0.030,0.000
6195,-0.015,0.005
6196,-0.010,0.010
6197,-0.005,0.020
6198,0.000,0.030
6199,0.000,0.035
6200,0.000,0.040
6201,0.000,0.045
6202,0.005,0.050
6203,0.010,0.050
6204,0.020,0.050
6205,0.030,0.045
6206,0.035,0.035
6207,0.045,0.025
6208,0.050,0.020
6209,0.060,0.015
6210,0.070,0.005
6211,0.080,0.000
6212,0.085,0.000
6213,0.085,0.000
6214,0.090,0.000
6215,0.090,0.000
6216,0.090,0.000
6217,0.090,0.000
6218,0.090,0.000
6219,0.090,0.000
6220,0.085,-0.005
6221,0.085,-0.005
6222,0.085,-0.010
6223,0.085,-0.010
6224,0.085,-0.015
6225,0.080,-0.010
6226,0.075,0.000
6227,0.065,0.000
6228,0.060,0.000
6229,0.060,0.000
6230,0.060,0.000
6231,0.060,0.000
6232,0.065,0.000
6233,0.075,0.000
6234,0.080,0.000
6235,0.075,-0.005
6236,0.075,0.000
6237,0.075,0.000
6238,0.070,0.000
6239,0.070,0.000
6240,0.075,0.000
6241,0.065,0.000
6242,0.065,0.000
6243,0.065,0.000
6244,0.065,0.000
6245,0.065,-0.005
6246,0.060,-0.005
6247,0.060,-0.005
6248,0.060,0.000
6249,0.060,0.000
6250,0.060,0.000
6251,0.060,0.000
6252,0.055,0.000
6253,0.050,0.000
6254,0.040,-0.010
6255,0.020,-0.015
6256,0.020,0.000
6257,0.085,0.035
6258,0.180,0.090
6259,0.285,0.155
6260,0.345,0.255
6261,0.355,0.385
6262,0.290,0.430
6263,0.195,0.300
6264,0.110,0.100
6265,0.050,-0.080
6266,0.020,-0.155
6267,0.000,-0.125
6268,0.000,-0.085
6269,-0.005,-0.075
6270,-0.005,-0.075
6271,-0.005,-0.080
6272,-0.010,-0.080
6273,-0.005,-0.080
6274,-0.005,-0.075
6275,-0.005,-0.075
6276,-0.005,-0.070
6277,-0.005,-0.065
6278,0.000,-0.055
6279,0.000,-0.035
6280,0.000,-0.025
6281,0.000,-0.005
6282,0.000,0.000
6283,0.000,0.000
6284,0.000,0.000
6285,0.000,0.010
6286,0.000,0.015
6287,0.000,0.025
6288,0.000,0.030
6289,0.000,0.035
6290,-0.005,0.035
6291,-0.010,0.040
6292,-0.015,0.040
6293,-0.015,0.040
6294,-0.020,0.040
6295,-0.030,0.030
6296,-0.030,0.020
6297,-0.035,0.010
6298,-0.040,0.005
6299,-0.040,0.005
6300,-0.050,0.000
6301,-0.055,0.000
6302,-0.060,0.000
6303,-0.060,0.000
6304,-0.065,-0.005
6305,-0.075,-0.010
6306,-0.080,-0.005
6307,-0.085,-0.005
6308,-0.095,-0.015
6309,-0.105,-0.020
6310,-0.105,-0.020
6311,-0.115,-0.020
6312,-0.120,-0.035
6313,-0.120,-0.035
6314,-0.130,-0.030
6315,-0.130,-0.030
6316,-0.130,-0.010
6317,-0.135,-0.005
6318,-0.140,-0.005
6319,-0.140,-0.005
6320,-0.135,-0.005
6321,-0.130,-0.005
6322,-0.120,-0.010
6323,-0.120,-0.010
6324,-0.115,-0.015
6325,-0.115,-0.010
6326,-0.120,0.000
6327,-0.110,0.000
6328,-0.105,0.000
6329,-0.105,0.000
6330,-0.105,-0.005
6331,-0.105,0.000
6332,-0.105,-0.005
6333,-0.100,-0.010
6334,-0.090,-0.010
6335,-0.090,-0.010
6336,-0.090,-0.005
6337,-0.085,-0.005
6338,-0.085,0.000
6339,-0.085,0.000
6340,-0.085,0.000
6341,-0.085,0.000
6342,-0.085,-0.010
6343,-0.095,-0.020
6344,-0.110,-0.015
6345,-0.075,0.015
6346,0.010,0.080
6347,0.110,0.155
6348,0.200,0.240
6349,0.240,0.355
6350,0.225,0.460
6351,0.140,0.385
6352,0.045,0.200
6353,-0.015,-0.015
6354,-0.055,-0.160
6355,-0.080,-0.165
6356,-0.090,-0.115
6357,-0.095,-0.090
6358,-0.095,-0.085
6359,-0.095,-0.085
6360,-0.090,-0.090
6361,-0.085,-0.095
6362,-0.080,-0.095
6363,-0.080,-0.095
6364,-0.065,-0.085
6365,-0.055,-0.080
6366,-0.050,-0.065
6367,-0.040,-0.055
6368,-0.030,-0.040
6369,-0.015,-0.020
6370,-0.015,-0.005
6371,0.000,0.000
6372,0.000,0.000
6373,0.000,0.000
6374,0.005,0.010
6375,0.005,0.020
6376,0.010,0.020
6377,0.010,0.025
6378,0.020,0.030
6379,0.025,0.035
6380,0.030,0.035
6381,0.035,0.035
6382,0.035,0.030
6383,0.035,0.020
6384,0.040,0.015
6385,0.040,0.010
6386,0.050,0.005
6387,0.055,0.000
6388,0.055,0.000
6389,0.065,0.000
6390,0.065,0.000
6391,0.065,0.000
6392,0.070,-0.005
6393,0.070,-0.005
6394,0.065,-0.005
6395,0.065,-0.015
6396,0.065,-0.015
6397,0.065,-0.020
6398,0.065,-0.020
6399,0.060,-0.020
6400,0.060,-0.025
6401,0.060,-0.025
6402,0.060,-0.025
6403,0.060,-0.025
6404,0.060,-0.020
6405,0.055,0.000
6406,0.045,0.000
6407,0.040,0.000
6408,0.040,0.000
6409,0.045,0.000
6410,0.055,0.000
6411,0.060,0.000
6412,0.060,-0.005
6413,0.060,-0.010
6414,0.055,-0.010
6415,0.055,0.000
6416,0.060,0.000
6417,0.060,0.000
6418,0.055,0.000
6419,0.055,0.000
6420,0.055,0.000
6421,0.055,0.000
6422,0.055,0.000
6423,0.055,-0.005
6424,0.055,-0.005
6425,0.050,-0.005
6426,0.050,-0.005
6427,0.050,-0.005
6428,0.045,0.000
6429,0.040,0.000
6430,0.040,0.000
6431,0.040,-0.005
6432,0.020,-0.015
6433,0.005,-0.015
6434,0.025,0.005
6435,0.105,0.050
6436,0.215,0.105
6437,0.310,0.185
6438,0.350,0.295
6439,0.335,0.425
6440,0.245,0.405
6441,0.150,0.240
6442,0.065,0.010
6443,0.025,-0.130
6444,0.005,-0.155
6445,0.000,-0.115
6446,-0.005,-0.090
6447,-0.010,-0.080
6448,-0.015,-0.090
6449,-0.015,-0.090
6450,-0.015,-0.090
6451,-0.015,-0.090
6452,-0.015,-0.090
6453,-0.015,-0.085
6454,-0.010,-0.075
6455,-0.010,-0.070
6456,-0.010,-0.055
6457,-0.010,-0.035
6458,-0.005,-0.020
6459,-0.005,-0.005
6460,-0.005,0.000
6461,-0.005,0.000
6462,-0.005,0.005
6463,-0.005,0.015
6464,-0.005,0.025
6465,-0.005,0.030
6466,-0.010,0.035
6467,-0.010,0.040
6468,-0.010,0.040
6469,-0.015,0.040
6470,-0.015,0.040
6471,-0.015,0.040
6472,-0.015,0.035
6473,-0.015,0.025
6474,-0.015,0.025
6475,-0.015,0.020
6476,-0.015,0.005
6477,-0.015,0.000
6478,-0.015,0.000
6479,-0.015,0.000
6480,-0.015,0.000
6481,-0.020,0.000
6482,-0.020,-0.005
6483,-0.020,-0.005
6484,-0.030,-0.005
6485,-0.030,-0.015
6486,-0.030,-0.015
6487,-0.035,-0.020
6488,-0.035,-0.020
6489,-0.035,-0.025
6490,-0.040,-0.025
6491,-0.045,-0.030
6492,-0.050,-0.025
6493,-0.055,-0.020
6494,-0.060,-0.010
6495,-0.070,-0.005
6496,-0.075,-0.005
6497,-0.080,-0.005
6498,-0.080,0.000
6499,-0.080,-0.005
6500,-0.075,-0.010
6501,-0.075,-0.015
6502,-0.075,-0.005
6503,-0.080,-0.005
6504,-0.085,0.000
6505,-0.090,-0.005
6506,-0.090,-0.010
6507,-0.090,-0.005
6508,-0.090,0.000
6509,-0.090,0.000
6510,-0.100,-0.010
6511,-0.105,-0.010
6512,-0.105,-0.015
6513,-0.095,-0.015
6514,-0.090,-0.015
6515,-0.090,-0.010
6516,-0.090,0.000
6517,-0.095,-0.010
6518,-0.090,-0.005
6519,-0.090,-0.005
6520,-0.090,-0.015
6521,-0.110,-0.025
6522,-0.130,-0.020
6523,-0.080,0.010
6524,0.010,0.075
6525,0.125,0.155
6526,0.205,0.250
6527,0.235,0.390
6528,0.195,0.475
6529,0.095,0.350
6530,0.005,0.145
6531,-0.050,-0.055
6532,-0.085,-0.170
6533,-0.105,-0.160
6534,-0.120,-0.120
6535,-0.125,-0.095
6536,-0.125,-0.095
6537,-0.120,-0.095
6538,-0.115,-0.095
6539,-0.110,-0.095
6540,-0.110,-0.095
6541,-0.105,-0.090
6542,-0.100,-0.080
6543,-0.095,-0.070
6544,-0.085,-0.060
6545,-0.085,-0.045
6546,-0.080,-0.025
6547,-0.070,-0.010
6548,-0.060,0.000
6549,-0.055,0.000
6550,-0.050,0.000
6551,-0.040,0.010
6552,-0.035,0.020
6553,-0.025,0.030
6554,-0.020,0.040
6555,-0.010,0.045
6556,-0.005,0.045
6557,0.000,0.045
6558,0.000,0.040
6559,0.000,0.040
6560,0.005,0.040
6561,0.010,0.030
6562,0.020,0.025
6563,0.035,0.015
6564,0.050,0.010
6565,0.060,0.005
6566,0.065,0.000
6567,0.085,0.000
6568,0.095,0.000
6569,0.105,0.000
6570,0.110,0.000
6571,0.110,0.000
6572,0.110,0.000
6573,0.110,0.000
6574,0.110,-0.005
6575,0.110,-0.010
6576,0.110,-0.010
6577,0.110,-0.015
6578,0.110,-0.015
6579,0.110,-0.015
6580,0.110,-0.015
6581,0.110,-0.015
6582,0.105,-0.005
6583,0.105,0.000
6584,0.105,0.000
6585,0.095,0.000
6586,0.090,0.000
6587,0.100,0.000
6588,0.105,0.000
6589,0.110,-0.005
6590,0.115,-0.010
6591,0.115,-0.010
6592,0.115,-0.005
6593,0.115,0.000
6594,0.115,0.000
6595,0.115,0.000
6596,0.115,0.000
6597,0.110,0.000
6598,0.110,0.000
6599,0.110,0.000
6600,0.110,0.000
6601,0.110,0.000
6602,0.110,-0.005
6603,0.110,0.000
6604,0.105,0.000
6605,0.105,0.000
6606,0.105,0.000
6607,0.100,0.000
6608,0.095,0.000
6609,0.090,0.000
6610,0.080,-0.020
6611,0.050,-0.020
6612,0.075,0.000
6613,0.160,0.050
6614,0.265,0.095
6615,0.360,0.170
6616,0.400,0.305
6617,0.385,0.460
6618,0.300,0.440
6619,0.205,0.275
6620,0.120,0.035
6621,0.070,-0.110
6622,0.045,-0.140
6623,0.035,-0.110
6624,0.020,-0.090
6625,0.015,-0.085
6626,0.015,-0.090
6627,0.015,-0.095
6628,0.015,-0.100
6629,0.015,-0.100
6630,0.015,-0.095
6631,0.015,-0.095
6632,0.015,-0.090
6633,0.015,-0.080
6634,0.015,-0.065
6635,0.015,-0.055
6636,0.015,-0.045
6637,0.015,-0.025
6638,0.020,-0.015
6639,0.030,-0.005
6640,0.030,0.000
6641,0.025,0.000
6642,0.020,0.000
6643,0.015,0.000
6644,0.015,0.005
6645,0.010,0.010
6646,0.010,0.015
6647,0.010,0.015
6648,0.005,0.015
6649,0.005,0.015
6650,0.005,0.010
6651,0.005,0.005
6652,0.005,0.000
6653,0.005,0.000
6654,0.005,0.000
6655,0.005,0.000
6656,0.005,-0.005
6657,0.005,-0.005
6658,0.005,-0.010
6659,0.005,-0.010
6660,0.000,-0.015
6661,0.000,-0.020
6662,0.005,-0.025
6663,0.005,-0.025
6664,0.005,-0.025
6665,0.000,-0.025
6666,0.000,-0.030
6667,0.000,-0.030
6668,0.000,-0.035
6669,0.000,-0.030
6670,0.000,-0.020
6671,-0.005,-0.010
6672,-0.010,-0.005
6673,-0.010,-0.005
6674,-0.010,-0.005
6675,0.000,-0.005
6676,0.000,-0.010
6677,0.000,-0.025
6678,0.000,-0.025
6679,0.005,-0.025
6680,0.005,-0.020
6681,0.005,-0.010
6682,0.005,-0.010
6683,0.005,-0.010
6684,0.005,-0.010
6685,0.000,-0.010
6686,0.000,-0.010
6687,0.005,-0.010
6688,0.005,-0.015
6689,0.005,-0.020
6690,0.000,-0.020
6691,0.000,-0.015
6692,0.005,-0.015
6693,0.005,-0.010
6694,0.000,-0.005
6695,0.000,-0.005
6696,0.000,-0.005
6697,0.000,-0.020
6698,-0.010,-0.035
6699,-0.030,-0.030
6700,0.000,0.000
6701,0.090,0.055
6702,0.210,0.105
6703,0.285,0.200
6704,0.325,0.350
6705,0.275,0.465
6706,0.190,0.405
6707,0.095,0.215
6708,0.025,0.000
6709,-0.005,-0.135
6710,-0.020,-0.155
6711,-0.035,-0.120
6712,-0.040,-0.100
6713,-0.045,-0.095
6714,-0.045,-0.100
6715,-0.050,-0.095
6716,-0.055,-0.100
6717,-0.055,-0.095
6718,-0.050,-0.095
6719,-0.050,-0.090
6720,-0.050,-0.085
