'sample interval','ECG0','ECG1'
'0.0078125 sec','mV','mV'
0,-0.095,-0.045
1,-0.085,-0.055
2,-0.075,-0.065
3,-0.075,-0.055
4,-0.085,-0.055
5,-0.085,-0.055
6,-0.085,-0.065
7,-0.085,-0.055
8,-0.065,-0.045
9,-0.075,-0.055
10,-0.025,-0.045
11,0.005,0.005
12,0.015,0.025
13,0.045,0.015
14,0.095,0.015
15,0.115,-0.015
16,0.095,-0.065
17,0.095,-0.065
18,0.065,-0.085
19,0.045,-0.085
20,-0.015,-0.075
21,-0.065,-0.085
22,-0.085,-0.095
23,-0.075,-0.085
24,-0.065,-0.075
25,-0.035,-0.065
26,0.005,0.025
27,0.025,0.005
28,0.365,-0.215
29,0.845,-0.305
30,1.115,-0.485
31,0.065,-0.595
32,-0.675,-0.355
33,-0.545,-0.135
34,-0.255,-0.055
35,-0.065,-0.065
36,-0.055,-0.055
37,-0.075,-0.065
38,-0.075,-0.065
39,-0.085,-0.045
40,-0.065,-0.045
41,-0.065,-0.045
42,-0.075,-0.045
43,-0.055,-0.045
44,-0.055,-0.045
45,-0.055,-0.035
46,-0.035,-0.035
47,-0.045,-0.035
48,-0.025,-0.025
49,-0.015,-0.035
50,-0.025,-0.045
51,-0.005,-0.045
52,0.005,-0.025
53,0.015,-0.035
54,0.015,-0.045
55,0.035,-0.035
56,0.045,-0.035
57,0.065,-0.055
58,0.065,-0.055
59,0.095,-0.055
60,0.115,-0.055
61,0.125,-0.065
62,0.145,-0.075
63,0.175,-0.065
64,0.195,-0.075
65,0.205,-0.085
66,0.225,-0.095
67,0.235,-0.085
68,0.235,-0.095
69,0.235,-0.095
70,0.205,-0.095
71,0.185,-0.085
72,0.145,-0.065
73,0.095,-0.055
74,0.055,-0.045
75,0.005,-0.025
76,-0.025,-0.035
77,-0.055,-0.035
78,-0.085,-0.035
79,-0.085,-0.025
80,-0.085,-0.025
81,-0.095,-0.025
82,-0.095,-0.035
83,-0.095,-0.025
84,-0.105,-0.035
85,-0.085,-0.025
86,-0.105,-0.035
87,-0.085,-0.035
88,-0.075,-0.025
89,-0.065,-0.035
90,-0.065,-0.045
91,-0.045,-0.035
92,-0.065,-0.025
93,-0.055,-0.025
94,-0.075,-0.045
95,-0.045,-0.035
96,-0.045,-0.025
97,-0.045,-0.045
98,-0.035,-0.045
99,-0.045,-0.035
100,-0.065,-0.035
101,-0.055,-0.045
102,-0.075,-0.055
103,-0.065,-0.045
104,-0.065,-0.035
105,-0.065,-0.045
106,-0.065,-0.055
107,-0.075,-0.045
108,-0.075,-0.045
109,-0.065,-0.055
110,-0.095,-0.065
111,-0.075,-0.055
112,-0.075,-0.055
113,-0.075,-0.055
114,-0.065,-0.065
115,-0.075,-0.055
116,-0.075,-0.055
117,-0.085,-0.045
118,-0.095,-0.065
119,-0.075,-0.055
120,-0.075,-0.045
121,-0.075,-0.065
122,-0.075,-0.065
123,-0.075,-0.055
124,-0.065,-0.055
125,-0.075,-0.055
126,-0.065,-0.065
127,-0.085,-0.065
128,-0.065,-0.055
129,-0.075,-0.065
130,-0.065,-0.065
131,-0.065,-0.055
132,-0.055,-0.045
133,-0.065,-0.055
134,-0.055,-0.065
135,-0.075,-0.075
136,-0.045,-0.055
137,-0.065,-0.055
138,-0.065,-0.065
139,-0.045,-0.065
140,-0.045,-0.065
141,-0.055,-0.065
142,-0.055,-0.075
143,-0.055,-0.065
144,-0.035,-0.055
145,-0.045,-0.065
146,-0.055,-0.075
147,-0.035,-0.065
148,-0.035,-0.065
149,-0.035,-0.065
150,-0.035,-0.065
151,-0.045,-0.065
152,-0.035,-0.055
153,-0.005,-0.055
154,0.025,-0.015
155,0.045,0.005
156,0.085,0.025
157,0.125,0.035
158,0.145,0.005
159,0.115,-0.075
160,0.125,-0.075
161,0.095,-0.075
162,0.055,-0.105
163,0.005,-0.095
164,-0.035,-0.095
165,-0.055,-0.095
166,-0.065,-0.105
167,-0.065,-0.095
168,-0.025,-0.085
169,0.025,0.005
170,0.045,-0.005
171,0.315,-0.225
172,0.815,-0.305
173,1.065,-0.475
174,-0.055,-0.635
175,-0.715,-0.415
176,-0.495,-0.155
177,-0.185,-0.085
178,-0.035,-0.085
179,-0.045,-0.075
180,-0.055,-0.065
181,-0.065,-0.075
182,-0.075,-0.075
183,-0.055,-0.065
184,-0.055,-0.065
185,-0.045,-0.055
186,-0.045,-0.065
187,-0.035,-0.055
188,-0.035,-0.045
189,-0.025,-0.055
190,-0.045,-0.055
191,-0.025,-0.055
192,-0.015,-0.035
193,-0.015,-0.065
194,0.005,-0.065
195,0.015,-0.055
196,0.015,-0.045
197,0.015,-0.065
198,0.025,-0.065
199,0.045,-0.065
200,0.075,-0.065
201,0.075,-0.065
202,0.105,-0.075
203,0.115,-0.075
204,0.145,-0.065
205,0.155,-0.085
206,0.165,-0.095
207,0.195,-0.105
208,0.215,-0.095
209,0.225,-0.105
210,0.245,-0.125
211,0.245,-0.115
212,0.245,-0.115
213,0.225,-0.115
214,0.175,-0.115
215,0.155,-0.095
216,0.105,-0.075
217,0.065,-0.065
218,0.025,-0.075
219,-0.005,-0.045
220,-0.045,-0.055
221,-0.065,-0.055
222,-0.095,-0.065
223,-0.095,-0.045
224,-0.095,-0.045
225,-0.095,-0.055
226,-0.095,-0.055
227,-0.095,-0.055
228,-0.095,-0.055
229,-0.085,-0.065
230,-0.105,-0.065
231,-0.075,-0.065
232,-0.075,-0.055
233,-0.065,-0.055
234,-0.055,-0.075
235,-0.055,-0.055
236,-0.055,-0.055
237,-0.055,-0.055
238,-0.065,-0.065
239,-0.055,-0.065
240,-0.045,-0.065
241,-0.045,-0.055
242,-0.045,-0.075
243,-0.055,-0.065
244,-0.065,-0.065
245,-0.065,-0.065
246,-0.085,-0.075
247,-0.075,-0.065
248,-0.075,-0.065
249,-0.075,-0.065
250,-0.075,-0.075
251,-0.075,-0.065
252,-0.075,-0.065
253,-0.075,-0.065
254,-0.105,-0.075
255,-0.085,-0.075
256,-0.085,-0.065
257,-0.075,-0.075
258,-0.075,-0.085
259,-0.075,-0.065
260,-0.085,-0.065
261,-0.075,-0.065
262,-0.105,-0.075
263,-0.085,-0.075
264,-0.085,-0.065
265,-0.085,-0.065
266,-0.075,-0.075
267,-0.075,-0.065
268,-0.075,-0.065
269,-0.085,-0.065
270,-0.095,-0.075
271,-0.085,-0.075
272,-0.075,-0.065
273,-0.075,-0.075
274,-0.075,-0.075
275,-0.065,-0.075
276,-0.075,-0.055
277,-0.075,-0.075
278,-0.085,-0.085
279,-0.085,-0.075
280,-0.065,-0.055
281,-0.065,-0.065
282,-0.075,-0.075
283,-0.065,-0.065
284,-0.075,-0.055
285,-0.065,-0.065
286,-0.075,-0.065
287,-0.065,-0.075
288,-0.055,-0.055
289,-0.065,-0.055
290,-0.065,-0.065
291,-0.065,-0.065
292,-0.055,-0.065
293,-0.065,-0.075
294,-0.075,-0.075
295,-0.065,-0.065
296,-0.055,-0.065
297,-0.055,-0.065
298,-0.055,-0.075
299,-0.055,-0.055
300,-0.055,-0.065
301,-0.045,-0.055
302,-0.005,-0.045
303,0.025,0.015
304,0.045,0.035
305,0.085,0.025
306,0.135,0.025
307,0.125,-0.025
308,0.105,-0.085
309,0.095,-0.065
310,0.045,-0.095
311,0.015,-0.095
312,-0.035,-0.085
313,-0.075,-0.095
314,-0.085,-0.085
315,-0.065,-0.095
316,-0.065,-0.095
317,-0.025,-0.055
318,0.025,0.035
319,0.045,-0.085
320,0.525,-0.255
321,0.985,-0.335
322,0.695,-0.475
323,-0.395,-0.585
324,-0.685,-0.285
325,-0.425,-0.105
326,-0.155,-0.105
327,-0.065,-0.085
328,-0.065,-0.065
329,-0.085,-0.065
330,-0.095,-0.065
331,-0.075,-0.055
332,-0.065,-0.055
333,-0.075,-0.045
334,-0.075,-0.055
335,-0.085,-0.055
336,-0.065,-0.045
337,-0.055,-0.045
338,-0.065,-0.045
339,-0.035,-0.045
340,-0.025,-0.035
341,-0.035,-0.055
342,-0.035,-0.055
343,-0.025,-0.045
344,-0.015,-0.045
345,0.005,-0.045
346,0.005,-0.055
347,0.025,-0.045
348,0.035,-0.045
349,0.035,-0.055
350,0.055,-0.055
351,0.065,-0.065
352,0.095,-0.065
353,0.115,-0.075
354,0.135,-0.085
355,0.155,-0.085
356,0.175,-0.065
357,0.185,-0.095
358,0.205,-0.105
359,0.205,-0.105
360,0.225,-0.095
361,0.205,-0.095
362,0.185,-0.105
363,0.165,-0.095
364,0.135,-0.075
365,0.075,-0.055
366,0.035,-0.055
367,-0.015,-0.045
368,-0.035,-0.035
369,-0.065,-0.035
370,-0.085,-0.045
371,-0.085,-0.035
372,-0.095,-0.025
373,-0.115,-0.035
374,-0.135,-0.035
375,-0.115,-0.025
376,-0.105,-0.025
377,-0.095,-0.025
378,-0.095,-0.035
379,-0.085,-0.035
380,-0.085,-0.025
381,-0.075,-0.025
382,-0.095,-0.035
383,-0.075,-0.035
384,-0.065,-0.025
385,-0.065,-0.035
386,-0.065,-0.045
387,-0.055,-0.035
388,-0.065,-0.025
389,-0.065,-0.035
390,-0.085,-0.045
391,-0.075,-0.035
392,-0.075,-0.035
393,-0.075,-0.045
394,-0.075,-0.045
395,-0.085,-0.045
396,-0.095,-0.045
397,-0.085,-0.045
398,-0.105,-0.055
399,-0.105,-0.045
400,-0.095,-0.035
401,-0.105,-0.045
402,-0.085,-0.055
403,-0.095,-0.055
404,-0.105,-0.045
405,-0.105,-0.045
406,-0.125,-0.055
407,-0.105,-0.045
408,-0.105,-0.045
409,-0.105,-0.045
410,-0.095,-0.065
411,-0.105,-0.045
412,-0.105,-0.035
413,-0.095,-0.045
414,-0.125,-0.055
415,-0.105,-0.045
416,-0.105,-0.035
417,-0.095,-0.055
418,-0.095,-0.055
419,-0.095,-0.045
420,-0.105,-0.045
421,-0.095,-0.055
422,-0.125,-0.055
423,-0.095,-0.045
424,-0.095,-0.045
425,-0.095,-0.055
426,-0.085,-0.045
427,-0.095,-0.045
428,-0.085,-0.045
429,-0.085,-0.045
430,-0.105,-0.055
431,-0.095,-0.045
432,-0.075,-0.045
433,-0.075,-0.045
434,-0.085,-0.055
435,-0.085,-0.035
436,-0.085,-0.045
437,-0.085,-0.045
438,-0.085,-0.065
439,-0.085,-0.045
440,-0.075,-0.045
441,-0.075,-0.045
442,-0.075,-0.055
443,-0.075,-0.055
444,-0.075,-0.045
445,-0.075,-0.055
446,-0.085,-0.055
447,-0.065,-0.045
448,-0.065,-0.035
449,-0.015,-0.005
450,0.015,0.025
451,0.015,0.045
452,0.075,0.055
453,0.115,0.055
454,0.085,-0.005
455,0.075,-0.075
456,0.075,-0.045
457,0.025,-0.075
458,-0.025,-0.085
459,-0.075,-0.065
460,-0.095,-0.065
461,-0.095,-0.075
462,-0.105,-0.085
463,-0.095,-0.065
464,-0.035,-0.025
465,0.015,0.055
466,0.075,-0.105
467,0.545,-0.235
468,1.035,-0.295
469,0.635,-0.415
470,-0.345,-0.465
471,-0.705,-0.195
472,-0.445,-0.075
473,-0.195,-0.065
474,-0.085,-0.085
475,-0.095,-0.055
476,-0.115,-0.045
477,-0.105,-0.045
478,-0.125,-0.055
479,-0.105,-0.045
480,-0.095,-0.035
481,-0.095,-0.055
482,-0.095,-0.055
483,-0.095,-0.035
484,-0.075,-0.035
485,-0.075,-0.045
486,-0.065,-0.045
487,-0.075,-0.045
488,-0.055,-0.035
489,-0.055,-0.035
490,-0.045,-0.055
491,-0.035,-0.045
492,-0.025,-0.045
493,-0.025,-0.045
494,-0.025,-0.055
495,-0.015,-0.045
496,0.015,-0.055
497,0.025,-0.055
498,0.035,-0.075
499,0.055,-0.075
500,0.085,-0.065
501,0.095,-0.085
502,0.105,-0.105
503,0.125,-0.095
504,0.145,-0.095
505,0.175,-0.105
506,0.165,-0.115
507,0.165,-0.105
508,0.165,-0.115
509,0.165,-0.105
510,0.145,-0.105
511,0.105,-0.075
512,0.065,-0.065
513,0.025,-0.035
514,-0.025,-0.045
515,-0.055,-0.025
516,-0.085,-0.015
517,-0.105,-0.025
518,-0.115,-0.025
519,-0.125,-0.025
520,-0.115,-0.015
521,-0.125,-0.025
522,-0.125,-0.025
523,-0.115,-0.015
524,-0.105,-0.015
525,-0.105,-0.015
526,-0.105,-0.035
527,-0.105,-0.025
528,-0.105,-0.025
529,-0.095,-0.025
530,-0.085,-0.035
531,-0.085,-0.025
532,-0.085,-0.025
533,-0.085,-0.025
534,-0.095,-0.035
535,-0.085,-0.035
536,-0.085,-0.025
537,-0.075,-0.025
538,-0.085,-0.035
539,-0.085,-0.025
540,-0.095,-0.025
541,-0.085,-0.035
542,-0.095,-0.045
543,-0.095,-0.045
544,-0.095,-0.025
545,-0.095,-0.045
546,-0.105,-0.035
547,-0.105,-0.045
548,-0.115,-0.035
549,-0.105,-0.045
550,-0.115,-0.045
551,-0.115,-0.055
552,-0.095,-0.035
553,-0.115,-0.055
554,-0.115,-0.055
555,-0.105,-0.035
556,-0.105,-0.045
557,-0.115,-0.045
558,-0.115,-0.055
559,-0.115,-0.045
560,-0.095,-0.035
561,-0.105,-0.045
562,-0.095,-0.055
563,-0.105,-0.045
564,-0.095,-0.035
565,-0.105,-0.035
566,-0.115,-0.045
567,-0.105,-0.045
568,-0.095,-0.045
569,-0.085,-0.045
570,-0.105,-0.055
571,-0.085,-0.045
572,-0.095,-0.045
573,-0.085,-0.045
574,-0.095,-0.055
575,-0.095,-0.045
576,-0.085,-0.045
577,-0.075,-0.045
578,-0.085,-0.065
579,-0.075,-0.055
580,-0.075,-0.035
581,-0.075,-0.055
582,-0.085,-0.055
583,-0.075,-0.055
584,-0.065,-0.045
585,-0.075,-0.045
586,-0.065,-0.065
587,-0.065,-0.045
588,-0.055,-0.045
589,-0.065,-0.045
590,-0.045,-0.055
591,-0.005,0.005
592,0.025,0.025
593,0.035,0.025
594,0.105,0.035
595,0.125,0.015
596,0.105,-0.055
597,0.095,-0.075
598,0.055,-0.075
599,0.025,-0.095
600,-0.025,-0.075
601,-0.055,-0.085
602,-0.075,-0.095
603,-0.065,-0.085
604,-0.075,-0.085
605,-0.055,-0.085
606,-0.015,-0.015
607,0.025,0.025
608,0.205,-0.155
609,0.715,-0.285
610,1.215,-0.415
611,0.405,-0.545
612,-0.565,-0.435
613,-0.645,-0.175
614,-0.345,-0.075
615,-0.115,-0.065
616,-0.055,-0.065
617,-0.075,-0.065
618,-0.075,-0.065
619,-0.075,-0.055
620,-0.075,-0.055
621,-0.075,-0.055
622,-0.085,-0.065
623,-0.075,-0.055
624,-0.055,-0.045
625,-0.055,-0.045
626,-0.045,-0.055
627,-0.035,-0.045
628,-0.035,-0.035
629,-0.025,-0.045
630,-0.045,-0.055
631,-0.015,-0.055
632,-0.015,-0.045
633,0.005,-0.045
634,0.015,-0.055
635,0.025,-0.055
636,0.025,-0.045
637,0.045,-0.055
638,0.035,-0.065
639,0.065,-0.065
640,0.085,-0.055
641,0.105,-0.075
642,0.125,-0.075
643,0.155,-0.065
644,0.175,-0.085
645,0.185,-0.095
646,0.205,-0.105
647,0.205,-0.105
648,0.235,-0.105
649,0.225,-0.105
650,0.205,-0.105
651,0.195,-0.085
652,0.175,-0.075
653,0.125,-0.065
654,0.065,-0.065
655,0.015,-0.045
656,-0.005,-0.025
657,-0.035,-0.025
658,-0.065,-0.045
659,-0.065,-0.025
660,-0.085,-0.015
661,-0.095,-0.015
662,-0.105,-0.045
663,-0.105,-0.025
664,-0.095,-0.025
665,-0.105,-0.025
666,-0.105,-0.035
667,-0.075,-0.025
668,-0.075,-0.025
669,-0.075,-0.025
670,-0.075,-0.035
671,-0.065,-0.035
672,-0.055,-0.025
673,-0.055,-0.025
674,-0.065,-0.045
675,-0.045,-0.035
676,-0.035,-0.025
677,-0.055,-0.045
678,-0.055,-0.045
679,-0.065,-0.045
680,-0.045,-0.035
681,-0.065,-0.045
682,-0.075,-0.055
683,-0.055,-0.045
684,-0.065,-0.035
685,-0.075,-0.045
686,-0.075,-0.065
687,-0.085,-0.055
688,-0.075,-0.045
689,-0.075,-0.055
690,-0.095,-0.065
691,-0.065,-0.055
692,-0.085,-0.045
693,-0.085,-0.055
694,-0.085,-0.065
695,-0.095,-0.055
696,-0.085,-0.055
697,-0.085,-0.055
698,-0.095,-0.075
699,-0.075,-0.055
700,-0.075,-0.055
701,-0.095,-0.045
702,-0.085,-0.065
703,-0.095,-0.055
704,-0.075,-0.055
705,-0.095,-0.055
706,-0.095,-0.055
707,-0.075,-0.065
708,-0.075,-0.055
709,-0.085,-0.055
710,-0.075,-0.065
711,-0.095,-0.065
712,-0.075,-0.055
713,-0.075,-0.055
714,-0.075,-0.075
715,-0.065,-0.055
716,-0.075,-0.055
717,-0.065,-0.055
718,-0.075,-0.065
719,-0.085,-0.065
720,-0.065,-0.055
721,-0.065,-0.065
722,-0.075,-0.075
723,-0.055,-0.065
724,-0.055,-0.065
725,-0.055,-0.055
726,-0.075,-0.075
727,-0.075,-0.065
728,-0.055,-0.065
729,-0.055,-0.065
730,-0.055,-0.065
731,-0.045,-0.075
732,-0.045,-0.065
733,-0.055,-0.055
734,-0.055,-0.065
735,-0.045,-0.065
736,0.025,0.005
737,0.025,0.025
738,0.065,0.015
739,0.125,0.025
740,0.145,0.005
741,0.105,-0.075
742,0.105,-0.095
743,0.065,-0.085
744,0.045,-0.095
745,-0.035,-0.095
746,-0.075,-0.105
747,-0.075,-0.105
748,-0.075,-0.095
749,-0.075,-0.095
750,-0.025,-0.085
751,0.005,0.025
752,0.045,-0.065
753,0.395,-0.275
754,0.865,-0.345
755,0.905,-0.495
756,-0.255,-0.615
757,-0.705,-0.305
758,-0.455,-0.125
759,-0.165,-0.085
760,-0.055,-0.085
761,-0.065,-0.075
762,-0.085,-0.085
763,-0.065,-0.065
764,-0.065,-0.055
765,-0.065,-0.065
766,-0.075,-0.075
767,-0.065,-0.065
768,-0.065,-0.055
769,-0.065,-0.065
770,-0.055,-0.055
771,-0.035,-0.055
772,-0.035,-0.045
773,-0.035,-0.045
774,-0.025,-0.075
775,-0.025,-0.055
776,-0.005,-0.045
777,0.005,-0.055
778,0.015,-0.065
779,0.025,-0.055
780,0.035,-0.055
781,0.045,-0.065
782,0.055,-0.075
783,0.065,-0.075
784,0.095,-0.055
785,0.105,-0.075
786,0.125,-0.095
787,0.155,-0.085
788,0.175,-0.095
789,0.195,-0.095
790,0.205,-0.115
791,0.225,-0.105
792,0.235,-0.105
793,0.245,-0.105
794,0.235,-0.115
795,0.225,-0.105
796,0.195,-0.095
797,0.165,-0.095
798,0.095,-0.085
799,0.055,-0.055
800,0.015,-0.045
801,-0.015,-0.045
802,-0.045,-0.045
803,-0.065,-0.035
804,-0.085,-0.025
805,-0.095,-0.045
806,-0.095,-0.055
807,-0.115,-0.045
808,-0.095,-0.035
809,-0.105,-0.035
810,-0.105,-0.045
811,-0.095,-0.045
812,-0.085,-0.035
813,-0.085,-0.045
814,-0.075,-0.055
815,-0.075,-0.045
816,-0.055,-0.035
817,-0.055,-0.035
818,-0.055,-0.045
819,-0.045,-0.035
820,-0.055,-0.045
821,-0.045,-0.035
822,-0.045,-0.055
823,-0.065,-0.045
824,-0.055,-0.045
825,-0.055,-0.045
826,-0.075,-0.065
827,-0.055,-0.055
828,-0.065,-0.045
829,-0.065,-0.055
830,-0.075,-0.065
831,-0.095,-0.065
832,-0.065,-0.055
833,-0.085,-0.055
834,-0.085,-0.065
835,-0.075,-0.065
836,-0.085,-0.055
837,-0.085,-0.065
838,-0.075,-0.075
839,-0.095,-0.065
840,-0.085,-0.055
841,-0.095,-0.055
842,-0.095,-0.075
843,-0.085,-0.055
844,-0.085,-0.065
845,-0.085,-0.055
846,-0.085,-0.075
847,-0.095,-0.065
848,-0.085,-0.055
849,-0.085,-0.065
850,-0.095,-0.075
851,-0.075,-0.055
852,-0.085,-0.055
853,-0.085,-0.055
854,-0.085,-0.075
855,-0.085,-0.065
856,-0.075,-0.055
857,-0.075,-0.055
858,-0.085,-0.075
859,-0.065,-0.065
860,-0.075,-0.055
861,-0.075,-0.065
862,-0.075,-0.075
863,-0.085,-0.065
864,-0.065,-0.045
865,-0.075,-0.075
866,-0.075,-0.075
867,-0.065,-0.065
868,-0.065,-0.055
869,-0.075,-0.065
870,-0.065,-0.075
871,-0.095,-0.065
872,-0.065,-0.065
873,-0.065,-0.055
874,-0.075,-0.075
875,-0.055,-0.065
876,-0.065,-0.065
877,-0.065,-0.065
878,-0.065,-0.085
879,-0.065,-0.065
880,-0.055,-0.055
881,-0.055,-0.045
882,-0.005,-0.025
883,0.045,0.015
884,0.035,0.035
885,0.095,0.035
886,0.125,0.025
887,0.095,-0.045
888,0.095,-0.095
889,0.085,-0.075
890,0.025,-0.105
891,-0.015,-0.105
892,-0.065,-0.075
893,-0.085,-0.095
894,-0.085,-0.105
895,-0.105,-0.105
896,-0.075,-0.085
897,-0.035,-0.035
898,0.025,0.035
899,0.105,-0.155
900,0.595,-0.265
901,1.055,-0.385
902,0.575,-0.535
903,-0.465,-0.535
904,-0.695,-0.225
905,-0.445,-0.095
906,-0.175,-0.105
907,-0.065,-0.075
908,-0.085,-0.065
909,-0.095,-0.065
910,-0.105,-0.075
911,-0.105,-0.065
912,-0.085,-0.045
913,-0.085,-0.055
914,-0.095,-0.055
915,-0.065,-0.055
916,-0.075,-0.055
917,-0.065,-0.045
918,-0.075,-0.055
919,-0.075,-0.045
920,-0.055,-0.045
921,-0.045,-0.045
922,-0.055,-0.055
923,-0.025,-0.045
924,-0.025,-0.045
925,-0.015,-0.055
926,-0.005,-0.055
927,-0.005,-0.055
928,0.025,-0.055
929,0.025,-0.055
930,0.045,-0.075
931,0.065,-0.065
932,0.085,-0.075
933,0.095,-0.075
934,0.125,-0.085
935,0.125,-0.095
936,0.165,-0.085
937,0.175,-0.105
938,0.185,-0.105
939,0.195,-0.105
940,0.205,-0.105
941,0.195,-0.105
942,0.185,-0.115
943,0.135,-0.095
944,0.105,-0.075
945,0.065,-0.055
946,0.005,-0.065
947,-0.025,-0.035
948,-0.065,-0.035
949,-0.075,-0.025
950,-0.105,-0.045
951,-0.125,-0.035
952,-0.125,-0.035
953,-0.125,-0.035
954,-0.135,-0.045
955,-0.125,-0.035
956,-0.125,-0.035
957,-0.125,-0.035
958,-0.115,-0.045
959,-0.125,-0.035
960,-0.105,-0.025
961,-0.105,-0.035
962,-0.095,-0.045
963,-0.095,-0.025
964,-0.085,-0.025
965,-0.095,-0.045
966,-0.085,-0.045
967,-0.105,-0.035
968,-0.085,-0.025
969,-0.095,-0.035
970,-0.095,-0.045
971,-0.095,-0.035
972,-0.095,-0.025
973,-0.095,-0.035
974,-0.105,-0.055
975,-0.125,-0.045
976,-0.105,-0.035
977,-0.115,-0.045
978,-0.125,-0.065
979,-0.105,-0.045
980,-0.125,-0.045
981,-0.125,-0.045
982,-0.115,-0.055
983,-0.135,-0.055
984,-0.135,-0.035
985,-0.125,-0.045
986,-0.135,-0.055
987,-0.125,-0.045
988,-0.125,-0.035
989,-0.125,-0.045
990,-0.135,-0.045
991,-0.145,-0.045
992,-0.135,-0.035
993,-0.125,-0.045
994,-0.135,-0.045
995,-0.125,-0.055
996,-0.125,-0.035
997,-0.125,-0.045
998,-0.125,-0.055
999,-0.145,-0.045
1000,-0.115,-0.035
1001,-0.135,-0.045
1002,-0.135,-0.055
1003,-0.125,-0.045
1004,-0.115,-0.035
1005,-0.125,-0.045
1006,-0.115,-0.045
1007,-0.135,-0.055
1008,-0.125,-0.045
1009,-0.125,-0.035
1010,-0.135,-0.055
1011,-0.115,-0.045
1012,-0.125,-0.035
1013,-0.125,-0.045
1014,-0.125,-0.045
1015,-0.125,-0.045
1016,-0.115,-0.045
1017,-0.115,-0.045
1018,-0.115,-0.045
1019,-0.105,-0.035
1020,-0.115,-0.035
1021,-0.115,-0.025
1022,-0.065,-0.035
1023,-0.035,0.035
1024,-0.025,0.055
1025,0.015,0.055
1026,0.065,0.055
1027,0.065,0.015
1028,0.035,-0.055
1029,0.045,-0.075
1030,0.025,-0.065
1031,-0.065,-0.085
1032,-0.105,-0.055
1033,-0.125,-0.055
1034,-0.145,-0.085
1035,-0.125,-0.075
1036,-0.125,-0.065
1037,-0.125,-0.055
1038,-0.065,0.015
1039,-0.035,0.015
1040,0.185,-0.205
1041,0.625,-0.255
1042,1.065,-0.365
1043,0.275,-0.505
1044,-0.605,-0.355
1045,-0.695,-0.135
1046,-0.415,-0.085
1047,-0.195,-0.085
1048,-0.135,-0.055
1049,-0.145,-0.055
1050,-0.165,-0.055
1051,-0.145,-0.065
1052,-0.145,-0.035
1053,-0.145,-0.045
1054,-0.145,-0.055
1055,-0.165,-0.055
1056,-0.135,-0.045
1057,-0.135,-0.035
1058,-0.125,-0.045
1059,-0.125,-0.045
1060,-0.105,-0.035
1061,-0.105,-0.035
1062,-0.105,-0.055
1063,-0.115,-0.055
1064,-0.085,-0.035
1065,-0.085,-0.035
1066,-0.075,-0.065
1067,-0.055,-0.055
1068,-0.045,-0.045
1069,-0.045,-0.055
1070,-0.025,-0.065
1071,-0.015,-0.065
1072,0.005,-0.065
1073,0.025,-0.075
1074,0.025,-0.095
1075,0.075,-0.085
1076,0.075,-0.085
1077,0.105,-0.095
1078,0.115,-0.115
1079,0.115,-0.105
1080,0.135,-0.105
1081,0.145,-0.115
1082,0.135,-0.125
1083,0.125,-0.105
1084,0.085,-0.075
1085,0.045,-0.065
1086,0.005,-0.065
1087,-0.055,-0.045
1088,-0.085,-0.025
1089,-0.115,-0.025
1090,-0.145,-0.035
1091,-0.165,-0.025
1092,-0.165,-0.005
1093,-0.165,-0.025
1094,-0.175,-0.035
1095,-0.175,-0.025
1096,-0.165,-0.015
1097,-0.165,-0.025
1098,-0.155,-0.025
1099,-0.155,-0.025
1100,-0.155,-0.015
1101,-0.155,-0.025
1102,-0.155,-0.035
1103,-0.135,-0.025
1104,-0.135,-0.015
1105,-0.135,-0.035
1106,-0.135,-0.035
1107,-0.125,-0.025
1108,-0.115,-0.025
1109,-0.125,-0.025
1110,-0.145,-0.035
1111,-0.145,-0.035
1112,-0.135,-0.035
1113,-0.135,-0.035
1114,-0.135,-0.045
1115,-0.135,-0.035
1116,-0.145,-0.035
1117,-0.145,-0.055
1118,-0.155,-0.055
1119,-0.155,-0.055
1120,-0.145,-0.045
1121,-0.155,-0.055
1122,-0.155,-0.055
1123,-0.145,-0.045
1124,-0.145,-0.045
1125,-0.155,-0.055
1126,-0.155,-0.055
1127,-0.175,-0.065
1128,-0.155,-0.055
1129,-0.145,-0.045
1130,-0.155,-0.065
1131,-0.145,-0.065
1132,-0.155,-0.045
1133,-0.155,-0.055
1134,-0.155,-0.065
1135,-0.175,-0.065
1136,-0.155,-0.055
1137,-0.155,-0.055
1138,-0.165,-0.065
1139,-0.145,-0.055
1140,-0.145,-0.055
1141,-0.145,-0.055
1142,-0.155,-0.065
1143,-0.165,-0.065
1144,-0.145,-0.055
1145,-0.145,-0.045
1146,-0.145,-0.065
1147,-0.125,-0.065
1148,-0.135,-0.055
1149,-0.145,-0.065
1150,-0.125,-0.065
1151,-0.165,-0.065
1152,-0.125,-0.065
1153,-0.135,-0.055
1154,-0.135,-0.065
1155,-0.125,-0.065
1156,-0.125,-0.055
1157,-0.105,-0.055
1158,-0.065,-0.025
1159,-0.075,0.005
1160,-0.035,0.025
1161,0.015,0.025
1162,0.055,-0.005
1163,0.065,-0.055
1164,0.045,-0.075
1165,0.025,-0.075
1166,-0.025,-0.105
1167,-0.075,-0.105
1168,-0.115,-0.085
1169,-0.135,-0.085
1170,-0.145,-0.115
1171,-0.115,-0.105
1172,-0.115,-0.085
1173,-0.045,0.015
1174,-0.015,0.005
1175,0.145,-0.195
1176,0.715,-0.285
1177,1.205,-0.425
1178,0.345,-0.535
1179,-0.615,-0.335
1180,-0.685,-0.115
1181,-0.375,-0.045
1182,-0.165,-0.085
1183,-0.125,-0.095
1184,-0.125,-0.085
1185,-0.125,-0.075
1186,-0.135,-0.075
1187,-0.115,-0.075
1188,-0.105,-0.055
1189,-0.115,-0.075
1190,-0.105,-0.075
1191,-0.125,-0.075
1192,-0.105,-0.075
1193,-0.095,-0.065
1194,-0.095,-0.085
1195,-0.075,-0.075
1196,-0.075,-0.065
1197,-0.075,-0.075
1198,-0.055,-0.085
1199,-0.065,-0.085
1200,-0.045,-0.075
1201,-0.035,-0.075
1202,-0.045,-0.085
1203,-0.005,-0.085
1204,-0.005,-0.075
1205,0.015,-0.095
1206,0.025,-0.095
1207,0.045,-0.095
1208,0.075,-0.105
1209,0.085,-0.105
1210,0.105,-0.125
1211,0.135,-0.125
1212,0.155,-0.125
1213,0.175,-0.135
1214,0.185,-0.145
1215,0.165,-0.145
1216,0.175,-0.145
1217,0.155,-0.145
1218,0.135,-0.135
1219,0.115,-0.105
1220,0.075,-0.085
1221,0.025,-0.075
1222,-0.015,-0.075
1223,-0.075,-0.065
1224,-0.085,-0.055
1225,-0.105,-0.055
1226,-0.115,-0.055
1227,-0.125,-0.045
1228,-0.135,-0.045
1229,-0.135,-0.055
1230,-0.125,-0.065
1231,-0.135,-0.055
1232,-0.125,-0.055
1233,-0.125,-0.055
1234,-0.135,-0.065
1235,-0.095,-0.065
1236,-0.105,-0.055
1237,-0.095,-0.055
1238,-0.105,-0.075
1239,-0.115,-0.065
1240,-0.095,-0.055
1241,-0.085,-0.065
1242,-0.095,-0.085
1243,-0.085,-0.065
1244,-0.085,-0.055
1245,-0.105,-0.065
1246,-0.085,-0.085
1247,-0.115,-0.075
1248,-0.095,-0.065
1249,-0.105,-0.065
1250,-0.105,-0.075
1251,-0.105,-0.085
1252,-0.105,-0.065
1253,-0.115,-0.075
1254,-0.105,-0.085
1255,-0.135,-0.085
1256,-0.115,-0.085
1257,-0.115,-0.085
1258,-0.115,-0.095
1259,-0.095,-0.085
1260,-0.105,-0.075
1261,-0.115,-0.085
1262,-0.115,-0.085
1263,-0.125,-0.085
1264,-0.115,-0.085
1265,-0.105,-0.085
1266,-0.115,-0.085
1267,-0.105,-0.095
1268,-0.115,-0.075
1269,-0.105,-0.085
1270,-0.115,-0.085
1271,-0.115,-0.095
1272,-0.105,-0.075
1273,-0.105,-0.085
1274,-0.105,-0.085
1275,-0.085,-0.085
1276,-0.095,-0.075
1277,-0.105,-0.085
1278,-0.095,-0.085
1279,-0.115,-0.075
1280,-0.095,-0.065
1281,-0.095,-0.075
1282,-0.105,-0.085
1283,-0.085,-0.085
1284,-0.075,-0.075
1285,-0.085,-0.075
1286,-0.085,-0.085
1287,-0.085,-0.075
1288,-0.005,0.005
1289,-0.005,0.005
1290,0.015,-0.005
1291,0.085,0.015
1292,0.125,-0.025
1293,0.075,-0.095
1294,0.085,-0.095
1295,0.045,-0.105
1296,0.005,-0.105
1297,-0.045,-0.105
1298,-0.095,-0.115
1299,-0.105,-0.105
1300,-0.085,-0.095
1301,-0.095,-0.095
1302,-0.055,-0.085
1303,-0.005,0.035
1304,0.005,-0.045
1305,0.395,-0.275
1306,0.865,-0.375
1307,1.065,-0.525
1308,-0.085,-0.615
1309,-0.765,-0.335
1310,-0.555,-0.135
1311,-0.255,-0.065
1312,-0.085,-0.095
1313,-0.085,-0.085
1314,-0.095,-0.085
1315,-0.095,-0.075
1316,-0.095,-0.065
1317,-0.095,-0.075
1318,-0.085,-0.065
1319,-0.085,-0.065
1320,-0.075,-0.055
1321,-0.075,-0.065
1322,-0.075,-0.055
1323,-0.055,-0.045
1324,-0.045,-0.045
1325,-0.055,-0.055
1326,-0.035,-0.055
1327,-0.045,-0.045
1328,-0.025,-0.035
1329,-0.025,-0.035
1330,-0.025,-0.055
1331,0.015,-0.055
1332,0.015,-0.045
1333,0.025,-0.045
1334,0.015,-0.065
1335,0.035,-0.065
1336,0.055,-0.055
1337,0.085,-0.055
1338,0.095,-0.075
1339,0.145,-0.065
1340,0.145,-0.065
1341,0.165,-0.085
1342,0.185,-0.095
1343,0.195,-0.095
1344,0.225,-0.085
1345,0.225,-0.105
1346,0.235,-0.095
1347,0.225,-0.105
1348,0.215,-0.085
1349,0.165,-0.075
1350,0.125,-0.075
1351,0.055,-0.065
1352,0.015,-0.035
1353,-0.045,-0.035
1354,-0.065,-0.035
1355,-0.085,-0.035
1356,-0.095,-0.025
1357,-0.105,-0.025
1358,-0.125,-0.045
1359,-0.135,-0.035
1360,-0.125,-0.035
1361,-0.125,-0.035
1362,-0.125,-0.045
1363,-0.115,-0.025
1364,-0.115,-0.035
1365,-0.105,-0.035
1366,-0.095,-0.045
1367,-0.095,-0.035
1368,-0.095,-0.025
1369,-0.075,-0.035
1370,-0.085,-0.035
1371,-0.065,-0.045
1372,-0.075,-0.025
1373,-0.075,-0.035
1374,-0.065,-0.045
1375,-0.085,-0.035
1376,-0.075,-0.035
1377,-0.065,-0.035
1378,-0.085,-0.055
1379,-0.085,-0.045
1380,-0.085,-0.035
1381,-0.095,-0.045
1382,-0.095,-0.055
1383,-0.095,-0.045
1384,-0.095,-0.045
1385,-0.095,-0.055
1386,-0.095,-0.065
1387,-0.095,-0.045
1388,-0.095,-0.045
1389,-0.105,-0.055
1390,-0.095,-0.065
1391,-0.105,-0.045
1392,-0.095,-0.045
1393,-0.095,-0.045
1394,-0.105,-0.065
1395,-0.095,-0.055
1396,-0.095,-0.045
1397,-0.095,-0.045
1398,-0.085,-0.055
1399,-0.105,-0.055
1400,-0.095,-0.045
1401,-0.095,-0.045
1402,-0.095,-0.055
1403,-0.085,-0.045
1404,-0.095,-0.045
1405,-0.085,-0.055
1406,-0.085,-0.065
1407,-0.095,-0.055
1408,-0.085,-0.045
1409,-0.085,-0.045
1410,-0.085,-0.045
1411,-0.075,-0.055
1412,-0.085,-0.045
1413,-0.085,-0.055
1414,-0.075,-0.055
1415,-0.095,-0.045
1416,-0.035,-0.035
1417,-0.005,0.015
1418,0.005,0.035
1419,0.045,0.045
1420,0.105,0.055
1421,0.115,0.005
1422,0.085,-0.075
1423,0.085,-0.065
1424,0.065,-0.055
1425,0.025,-0.075
1426,-0.045,-0.085
1427,-0.065,-0.065
1428,-0.095,-0.065
1429,-0.095,-0.075
1430,-0.085,-0.095
1431,-0.085,-0.075
1432,0.005,0.035
1433,0.035,0.025
1434,0.195,-0.205
1435,0.685,-0.275
1436,1.135,-0.425
1437,0.175,-0.605
1438,-0.685,-0.465
1439,-0.635,-0.165
1440,-0.315,-0.065
1441,-0.075,-0.065
1442,-0.075,-0.065
1443,-0.075,-0.055
1444,-0.085,-0.045
1445,-0.095,-0.045
1446,-0.075,-0.045
1447,-0.095,-0.045
1448,-0.075,-0.035
1449,-0.075,-0.035
1450,-0.075,-0.035
1451,-0.065,-0.025
1452,-0.055,-0.015
1453,-0.045,-0.025
1454,-0.035,-0.035
1455,-0.055,-0.035
1456,-0.025,-0.025
1457,-0.025,-0.025
1458,-0.025,-0.035
1459,-0.005,-0.025
1460,0.005,-0.025
1461,0.015,-0.035
1462,0.025,-0.055
1463,0.035,-0.035
1464,0.055,-0.045
1465,0.075,-0.045
1466,0.085,-0.065
1467,0.125,-0.045
1468,0.135,-0.055
1469,0.155,-0.065
1470,0.175,-0.075
1471,0.185,-0.085
1472,0.215,-0.075
1473,0.225,-0.095
1474,0.225,-0.095
1475,0.235,-0.085
1476,0.225,-0.085
1477,0.205,-0.085
1478,0.165,-0.075
1479,0.105,-0.055
1480,0.065,-0.035
1481,0.005,-0.035
1482,-0.025,-0.035
1483,-0.055,-0.025
1484,-0.075,-0.015
1485,-0.085,-0.025
1486,-0.105,-0.035
1487,-0.115,-0.025
1488,-0.105,-0.015
1489,-0.115,-0.025
1490,-0.125,-0.035
1491,-0.105,-0.035
1492,-0.105,-0.015
1493,-0.095,-0.025
1494,-0.085,-0.035
1495,-0.105,-0.025
1496,-0.085,-0.015
1497,-0.075,-0.025
1498,-0.085,-0.025
1499,-0.065,-0.025
1500,-0.075,-0.025
1501,-0.075,-0.015
1502,-0.065,-0.025
1503,-0.085,-0.035
1504,-0.075,-0.025
1505,-0.075,-0.035
1506,-0.095,-0.035
1507,-0.085,-0.035
1508,-0.095,-0.035
1509,-0.095,-0.045
1510,-0.095,-0.045
1511,-0.115,-0.045
1512,-0.105,-0.045
1513,-0.115,-0.035
1514,-0.115,-0.055
1515,-0.105,-0.045
1516,-0.105,-0.035
1517,-0.115,-0.045
1518,-0.115,-0.055
1519,-0.125,-0.045
1520,-0.115,-0.045
1521,-0.115,-0.045
1522,-0.125,-0.055
1523,-0.115,-0.045
1524,-0.115,-0.045
1525,-0.125,-0.045
1526,-0.125,-0.055
1527,-0.125,-0.045
1528,-0.105,-0.045
1529,-0.125,-0.045
1530,-0.125,-0.065
1531,-0.115,-0.045
1532,-0.115,-0.045
1533,-0.105,-0.045
1534,-0.115,-0.055
1535,-0.135,-0.055
1536,-0.095,-0.045
1537,-0.115,-0.045
1538,-0.115,-0.055
1539,-0.095,-0.055
1540,-0.105,-0.045
1541,-0.115,-0.035
1542,-0.095,-0.065
1543,-0.115,-0.055
1544,-0.095,-0.035
1545,-0.115,-0.035
1546,-0.065,-0.035
1547,-0.025,0.025
1548,-0.015,0.045
1549,0.025,0.025
1550,0.075,0.025
1551,0.075,-0.005
1552,0.065,-0.055
1553,0.055,-0.055
1554,0.015,-0.075
1555,-0.025,-0.095
1556,-0.065,-0.075
1557,-0.115,-0.075
1558,-0.105,-0.085
1559,-0.115,-0.075
1560,-0.125,-0.075
1561,-0.055,-0.035
1562,0.005,0.045
1563,0.035,-0.055
1564,0.505,-0.245
1565,0.965,-0.315
1566,0.705,-0.435
1567,-0.345,-0.455
1568,-0.725,-0.185
1569,-0.465,-0.075
1570,-0.215,-0.055
1571,-0.085,-0.065
1572,-0.115,-0.055
1573,-0.115,-0.065
1574,-0.125,-0.065
1575,-0.125,-0.065
1576,-0.115,-0.045
1577,-0.115,-0.055
1578,-0.105,-0.055
1579,-0.105,-0.055
1580,-0.095,-0.045
1581,-0.095,-0.045
1582,-0.095,-0.055
1583,-0.085,-0.045
1584,-0.065,-0.045
1585,-0.075,-0.045
1586,-0.065,-0.065
1587,-0.055,-0.045
1588,-0.045,-0.045
1589,-0.035,-0.055
1590,-0.015,-0.065
1591,-0.035,-0.055
1592,-0.005,-0.045
1593,0.015,-0.055
1594,0.015,-0.075
1595,0.045,-0.075
1596,0.055,-0.075
1597,0.065,-0.075
1598,0.095,-0.095
1599,0.095,-0.105
1600,0.125,-0.095
1601,0.145,-0.115
1602,0.145,-0.125
1603,0.175,-0.125
1604,0.175,-0.125
1605,0.165,-0.125
1606,0.165,-0.125
1607,0.115,-0.105
1608,0.095,-0.075
1609,0.065,-0.065
1610,0.015,-0.075
1611,-0.015,-0.045
1612,-0.045,-0.035
1613,-0.085,-0.035
1614,-0.105,-0.055
1615,-0.125,-0.035
1616,-0.115,-0.025
1617,-0.135,-0.025
1618,-0.135,-0.045
1619,-0.135,-0.035
1620,-0.115,-0.035
1621,-0.125,-0.035
1622,-0.115,-0.045
1623,-0.115,-0.035
1624,-0.105,-0.035
1625,-0.095,-0.035
1626,-0.115,-0.035
1627,-0.095,-0.045
1628,-0.095,-0.035
1629,-0.095,-0.045
1630,-0.095,-0.055
1631,-0.095,-0.055
1632,-0.075,-0.045
1633,-0.095,-0.045
1634,-0.105,-0.055
1635,-0.085,-0.055
1636,-0.075,-0.045
1637,-0.095,-0.065
1638,-0.105,-0.055
1639,-0.115,-0.065
1640,-0.095,-0.045
1641,-0.115,-0.065
1642,-0.115,-0.065
1643,-0.115,-0.065
1644,-0.125,-0.055
1645,-0.105,-0.065
1646,-0.115,-0.075
1647,-0.125,-0.075
1648,-0.105,-0.065
1649,-0.115,-0.065
1650,-0.115,-0.085
1651,-0.105,-0.065
1652,-0.115,-0.065
1653,-0.115,-0.065
1654,-0.125,-0.085
1655,-0.125,-0.075
1656,-0.115,-0.065
1657,-0.115,-0.075
1658,-0.105,-0.085
1659,-0.105,-0.075
1660,-0.115,-0.075
1661,-0.105,-0.065
1662,-0.135,-0.085
1663,-0.105,-0.065
1664,-0.115,-0.075
1665,-0.095,-0.075
1666,-0.085,-0.085
1667,-0.095,-0.075
1668,-0.105,-0.065
1669,-0.095,-0.075
1670,-0.115,-0.085
1671,-0.085,-0.075
1672,-0.095,-0.065
1673,-0.045,-0.065
1674,-0.015,-0.025
1675,-0.015,0.005
1676,0.035,0.005
1677,0.095,-0.005
1678,0.065,-0.055
1679,0.075,-0.095
1680,0.065,-0.075
1681,0.025,-0.105
1682,0.005,-0.115
1683,-0.065,-0.105
1684,-0.095,-0.105
1685,-0.095,-0.105
1686,-0.115,-0.115
1687,-0.095,-0.105
1688,-0.035,-0.075
1689,0.015,0.025
1690,0.065,-0.075
1691,0.585,-0.265
1692,1.035,-0.365
1693,0.925,-0.495
1694,-0.265,-0.545
1695,-0.725,-0.275
1696,-0.475,-0.095
1697,-0.205,-0.055
1698,-0.075,-0.105
1699,-0.075,-0.105
1700,-0.095,-0.095
1701,-0.095,-0.095
1702,-0.105,-0.105
1703,-0.075,-0.095
1704,-0.085,-0.085
1705,-0.075,-0.085
1706,-0.065,-0.095
1707,-0.065,-0.075
1708,-0.055,-0.075
1709,-0.055,-0.075
1710,-0.065,-0.085
1711,-0.045,-0.075
1712,-0.035,-0.075
1713,-0.015,-0.075
1714,-0.005,-0.085
1715,-0.015,-0.085
1716,0.005,-0.075
1717,0.015,-0.075
1718,0.005,-0.095
1719,0.025,-0.085
1720,0.055,-0.095
1721,0.065,-0.095
1722,0.085,-0.105
1723,0.105,-0.105
1724,0.115,-0.105
1725,0.145,-0.115
1726,0.145,-0.135
1727,0.185,-0.125
1728,0.205,-0.135
1729,0.225,-0.145
1730,0.225,-0.155
1731,0.235,-0.155
1732,0.225,-0.135
1733,0.225,-0.155
1734,0.175,-0.145
1735,0.145,-0.125
1736,0.105,-0.095
1737,0.065,-0.095
1738,0.035,-0.085
1739,-0.005,-0.075
1740,-0.035,-0.075
1741,-0.065,-0.065
1742,-0.085,-0.075
1743,-0.085,-0.075
1744,-0.085,-0.065
1745,-0.085,-0.075
1746,-0.085,-0.075
1747,-0.085,-0.065
1748,-0.075,-0.065
1749,-0.085,-0.075
1750,-0.085,-0.085
1751,-0.065,-0.075
1752,-0.055,-0.065
1753,-0.055,-0.075
1754,-0.035,-0.085
1755,-0.035,-0.065
1756,-0.045,-0.075
1757,-0.035,-0.075
1758,-0.055,-0.075
1759,-0.035,-0.075
1760,-0.035,-0.075
1761,-0.025,-0.075
1762,-0.035,-0.085
1763,-0.035,-0.085
1764,-0.025,-0.075
1765,-0.035,-0.075
1766,-0.055,-0.085
1767,-0.055,-0.085
1768,-0.045,-0.075
1769,-0.045,-0.085
1770,-0.055,-0.095
1771,-0.055,-0.085
1772,-0.055,-0.075
1773,-0.045,-0.085
1774,-0.065,-0.095
1775,-0.065,-0.095
1776,-0.045,-0.085
1777,-0.055,-0.085
1778,-0.045,-0.105
1779,-0.045,-0.085
1780,-0.045,-0.095
1781,-0.045,-0.085
1782,-0.065,-0.095
1783,-0.045,-0.085
1784,-0.045,-0.085
1785,-0.045,-0.095
1786,-0.045,-0.105
1787,-0.035,-0.085
1788,-0.045,-0.085
1789,-0.045,-0.085
1790,-0.065,-0.105
1791,-0.045,-0.085
1792,-0.035,-0.075
1793,-0.035,-0.085
1794,-0.035,-0.105
1795,-0.025,-0.095
1796,-0.035,-0.085
1797,-0.035,-0.085
1798,-0.065,-0.095
1799,-0.025,-0.095
1800,-0.035,-0.085
1801,-0.025,-0.085
1802,-0.025,-0.095
1803,-0.015,-0.085
1804,0.035,-0.045
1805,0.055,-0.015
1806,0.045,0.005
1807,0.115,0.005
1808,0.145,0.005
1809,0.145,-0.065
1810,0.135,-0.115
1811,0.115,-0.105
1812,0.085,-0.105
1813,0.035,-0.115
1814,-0.035,-0.115
1815,-0.045,-0.115
1816,-0.035,-0.105
1817,-0.045,-0.105
1818,-0.035,-0.125
1819,0.025,-0.065
1820,0.055,0.035
1821,0.135,-0.115
1822,0.605,-0.295
1823,1.125,-0.435
1824,0.585,-0.555
1825,-0.535,-0.615
1826,-0.625,-0.295
1827,-0.325,-0.085
1828,-0.065,-0.085
1829,-0.025,-0.095
1830,-0.065,-0.105
1831,-0.045,-0.085
1832,-0.045,-0.065
1833,-0.045,-0.085
1834,-0.045,-0.075
1835,-0.045,-0.065
1836,-0.045,-0.075
1837,-0.035,-0.075
1838,-0.045,-0.075
1839,-0.015,-0.055
1840,-0.015,-0.055
1841,-0.005,-0.065
1842,0.005,-0.065
1843,0.005,-0.055
1844,0.015,-0.045
1845,0.025,-0.065
1846,0.025,-0.065
1847,0.045,-0.055
1848,0.055,-0.055
1849,0.055,-0.065
1850,0.085,-0.075
1851,0.095,-0.065
1852,0.105,-0.065
1853,0.125,-0.075
1854,0.125,-0.095
1855,0.165,-0.085
1856,0.185,-0.085
1857,0.215,-0.095
1858,0.235,-0.115
1859,0.255,-0.095
1860,0.265,-0.105
1861,0.275,-0.115
1862,0.245,-0.125
1863,0.255,-0.115
1864,0.245,-0.105
1865,0.205,-0.105
1866,0.175,-0.105
1867,0.115,-0.075
1868,0.065,-0.065
1869,0.015,-0.055
1870,-0.035,-0.055
1871,-0.045,-0.055
1872,-0.045,-0.045
1873,-0.075,-0.055
1874,-0.065,-0.055
1875,-0.085,-0.045
1876,-0.085,-0.045
1877,-0.085,-0.045
1878,-0.105,-0.065
1879,-0.095,-0.055
1880,-0.075,-0.045
1881,-0.075,-0.045
1882,-0.075,-0.065
1883,-0.065,-0.055
1884,-0.055,-0.045
1885,-0.055,-0.045
1886,-0.075,-0.055
1887,-0.055,-0.055
1888,-0.045,-0.035
1889,-0.035,-0.045
1890,-0.045,-0.055
1891,-0.045,-0.055
1892,-0.055,-0.055
1893,-0.055,-0.045
1894,-0.075,-0.065
1895,-0.065,-0.065
1896,-0.055,-0.055
1897,-0.065,-0.065
1898,-0.075,-0.075
1899,-0.065,-0.065
1900,-0.075,-0.065
1901,-0.075,-0.065
1902,-0.095,-0.075
1903,-0.085,-0.075
1904,-0.085,-0.065
1905,-0.075,-0.075
1906,-0.085,-0.075
1907,-0.085,-0.065
1908,-0.085,-0.065
1909,-0.085,-0.065
1910,-0.095,-0.075
1911,-0.095,-0.075
1912,-0.095,-0.065
1913,-0.095,-0.065
1914,-0.095,-0.075
1915,-0.085,-0.065
1916,-0.095,-0.065
1917,-0.095,-0.065
1918,-0.095,-0.075
1919,-0.095,-0.075
1920,-0.095,-0.065
1921,-0.095,-0.065
1922,-0.105,-0.065
1923,-0.085,-0.075
1924,-0.095,-0.065
1925,-0.085,-0.065
1926,-0.105,-0.075
1927,-0.095,-0.075
1928,-0.085,-0.065
1929,-0.095,-0.065
1930,-0.095,-0.075
1931,-0.085,-0.075
1932,-0.075,-0.055
1933,-0.085,-0.065
1934,-0.095,-0.075
1935,-0.095,-0.065
1936,-0.075,-0.055
1937,-0.085,-0.055
1938,-0.035,-0.055
1939,-0.005,0.005
1940,-0.005,0.015
1941,0.045,0.015
1942,0.065,0.015
1943,0.095,-0.005
1944,0.065,-0.075
1945,0.065,-0.085
1946,0.025,-0.095
1947,-0.005,-0.095
1948,-0.075,-0.095
1949,-0.105,-0.095
1950,-0.135,-0.095
1951,-0.105,-0.095
1952,-0.115,-0.085
1953,-0.065,-0.075
1954,-0.005,0.025
1955,0.015,-0.065
1956,0.435,-0.275
1957,0.965,-0.355
1958,0.595,-0.505
1959,-0.485,-0.605
1960,-0.755,-0.305
1961,-0.465,-0.105
1962,-0.175,-0.085
1963,-0.115,-0.075
1964,-0.135,-0.065
1965,-0.135,-0.065
1966,-0.155,-0.075
1967,-0.135,-0.065
1968,-0.135,-0.055
1969,-0.135,-0.055
1970,-0.115,-0.065
1971,-0.125,-0.065
1972,-0.125,-0.045
1973,-0.105,-0.055
1974,-0.135,-0.055
1975,-0.105,-0.045
1976,-0.095,-0.035
1977,-0.095,-0.045
1978,-0.085,-0.055
1979,-0.075,-0.045
1980,-0.075,-0.055
1981,-0.055,-0.055
1982,-0.075,-0.055
1983,-0.055,-0.055
1984,-0.035,-0.055
1985,-0.025,-0.055
1986,-0.005,-0.075
1987,0.015,-0.065
1988,0.025,-0.075
1989,0.055,-0.075
1990,0.045,-0.085
1991,0.095,-0.085
1992,0.105,-0.085
1993,0.125,-0.105
1994,0.155,-0.105
1995,0.155,-0.115
1996,0.165,-0.105
1997,0.155,-0.115
1998,0.125,-0.125
1999,0.115,-0.105
2000,0.105,-0.085
2001,0.035,-0.075
2002,0.005,-0.065
2003,-0.045,-0.045
2004,-0.085,-0.035
2005,-0.125,-0.035
2006,-0.155,-0.045
2007,-0.165,-0.035
2008,-0.165,-0.035
2009,-0.165,-0.035
2010,-0.175,-0.045
2011,-0.175,-0.045
2012,-0.185,-0.035
2013,-0.175,-0.045
2014,-0.195,-0.045
2015,-0.175,-0.045
2016,-0.165,-0.025
2017,-0.145,-0.035
2018,-0.155,-0.045
2019,-0.135,-0.045
2020,-0.135,-0.025
2021,-0.135,-0.025
2022,-0.145,-0.045
2023,-0.135,-0.045
2024,-0.135,-0.025
2025,-0.135,-0.035
2026,-0.135,-0.045
2027,-0.145,-0.045
2028,-0.145,-0.035
2029,-0.145,-0.045
2030,-0.165,-0.055
2031,-0.155,-0.055
2032,-0.155,-0.035
2033,-0.165,-0.045
2034,-0.155,-0.065
2035,-0.155,-0.045
2036,-0.155,-0.045
2037,-0.165,-0.055
2038,-0.185,-0.065
2039,-0.175,-0.045
2040,-0.155,-0.045
2041,-0.165,-0.045
2042,-0.175,-0.055
2043,-0.165,-0.055
2044,-0.175,-0.045
2045,-0.165,-0.055
2046,-0.205,-0.065
2047,-0.175,-0.055
2048,-0.175,-0.055
2049,-0.165,-0.055
2050,-0.165,-0.065
2051,-0.165,-0.055
2052,-0.165,-0.055
2053,-0.165,-0.055
2054,-0.175,-0.055
2055,-0.175,-0.065
2056,-0.165,-0.045
2057,-0.165,-0.055
2058,-0.155,-0.065
2059,-0.145,-0.055
2060,-0.155,-0.055
2061,-0.155,-0.055
2062,-0.175,-0.065
2063,-0.165,-0.055
2064,-0.145,-0.045
2065,-0.145,-0.055
2066,-0.145,-0.075
2067,-0.135,-0.055
2068,-0.145,-0.045
2069,-0.125,-0.065
2070,-0.095,-0.015
2071,-0.075,0.005
2072,-0.045,0.025
2073,0.005,0.025
2074,0.055,-0.005
2075,0.025,-0.035
2076,0.025,-0.065
2077,0.005,-0.065
2078,-0.065,-0.095
2079,-0.095,-0.085
2080,-0.125,-0.085
2081,-0.145,-0.085
2082,-0.145,-0.095
2083,-0.135,-0.075
2084,-0.125,-0.075
2085,-0.065,-0.035
2086,-0.035,0.045
2087,0.055,-0.095
2088,0.585,-0.255
2089,1.095,-0.345
2090,0.545,-0.465
2091,-0.475,-0.435
2092,-0.715,-0.155
2093,-0.425,-0.055
2094,-0.225,-0.045
2095,-0.145,-0.085
2096,-0.135,-0.065
2097,-0.145,-0.075
2098,-0.145,-0.065
2099,-0.135,-0.065
2100,-0.125,-0.055
2101,-0.145,-0.055
2102,-0.145,-0.065
2103,-0.135,-0.055
2104,-0.115,-0.055
2105,-0.125,-0.055
2106,-0.115,-0.055
2107,-0.095,-0.055
2108,-0.095,-0.035
2109,-0.095,-0.045
2110,-0.085,-0.065
2111,-0.095,-0.055
2112,-0.065,-0.035
2113,-0.065,-0.065
2114,-0.065,-0.065
2115,-0.035,-0.065
2116,-0.025,-0.055
2117,-0.015,-0.055
2118,0.005,-0.085
2119,-0.005,-0.085
2120,0.055,-0.085
2121,0.075,-0.075
2122,0.065,-0.105
2123,0.105,-0.105
2124,0.125,-0.105
2125,0.125,-0.125
2126,0.165,-0.125
2127,0.145,-0.135
2128,0.165,-0.115
2129,0.155,-0.135
2130,0.135,-0.135
2131,0.125,-0.105
2132,0.085,-0.085
2133,0.035,-0.065
2134,-0.005,-0.065
2135,-0.055,-0.055
2136,-0.075,-0.035
2137,-0.105,-0.045
2138,-0.125,-0.055
2139,-0.125,-0.045
2140,-0.125,-0.045
2141,-0.135,-0.035
2142,-0.145,-0.045
2143,-0.135,-0.045
2144,-0.135,-0.035
2145,-0.135,-0.045
2146,-0.135,-0.055
2147,-0.115,-0.045
2148,-0.115,-0.035
2149,-0.105,-0.045
2150,-0.125,-0.065
2151,-0.105,-0.045
2152,-0.105,-0.045
2153,-0.095,-0.055
2154,-0.095,-0.065
2155,-0.085,-0.055
2156,-0.105,-0.045
2157,-0.095,-0.065
2158,-0.105,-0.065
2159,-0.105,-0.065
2160,-0.105,-0.045
2161,-0.115,-0.065
2162,-0.095,-0.075
2163,-0.105,-0.065
2164,-0.105,-0.065
2165,-0.115,-0.065
2166,-0.135,-0.075
2167,-0.125,-0.065
2168,-0.115,-0.075
2169,-0.115,-0.075
2170,-0.115,-0.095
2171,-0.115,-0.075
2172,-0.115,-0.075
2173,-0.115,-0.085
2174,-0.135,-0.085
2175,-0.125,-0.075
2176,-0.115,-0.075
2177,-0.105,-0.075
2178,-0.105,-0.095
2179,-0.105,-0.075
2180,-0.105,-0.065
2181,-0.105,-0.075
2182,-0.135,-0.085
2183,-0.105,-0.085
2184,-0.115,-0.075
2185,-0.105,-0.085
2186,-0.095,-0.085
2187,-0.105,-0.075
2188,-0.095,-0.065
2189,-0.095,-0.085
2190,-0.105,-0.085
2191,-0.085,-0.075
2192,-0.085,-0.075
2193,-0.085,-0.075
2194,-0.085,-0.095
2195,-0.085,-0.075
2196,-0.075,-0.065
2197,-0.075,-0.075
2198,-0.085,-0.095
2199,-0.085,-0.075
2200,-0.025,-0.055
2201,0.005,-0.015
2202,-0.005,-0.005
2203,0.055,0.005
2204,0.095,0.005
2205,0.105,-0.035
2206,0.085,-0.105
2207,0.085,-0.095
2208,0.055,-0.085
2209,0.025,-0.115
2210,-0.035,-0.115
2211,-0.065,-0.105
2212,-0.095,-0.095
2213,-0.085,-0.105
2214,-0.075,-0.115
2215,-0.055,-0.095
2216,0.015,0.015
2217,0.015,-0.025
2218,0.355,-0.245
2219,0.835,-0.345
2220,1.095,-0.515
2221,-0.045,-0.625
2222,-0.725,-0.405
2223,-0.565,-0.155
2224,-0.235,-0.065
2225,-0.065,-0.095
2226,-0.075,-0.105
2227,-0.075,-0.085
2228,-0.075,-0.075
2229,-0.085,-0.085
2230,-0.075,-0.095
2231,-0.075,-0.085
2232,-0.065,-0.075
2233,-0.065,-0.075
2234,-0.065,-0.085
2235,-0.055,-0.075
2236,-0.045,-0.065
2237,-0.035,-0.065
2238,-0.035,-0.085
2239,-0.025,-0.075
2240,-0.025,-0.065
2241,-0.005,-0.065
2242,-0.015,-0.075
2243,0.015,-0.075
2244,0.025,-0.065
2245,0.025,-0.075
2246,0.035,-0.085
2247,0.045,-0.085
2248,0.075,-0.085
2249,0.085,-0.085
2250,0.105,-0.105
2251,0.135,-0.095
2252,0.155,-0.095
2253,0.175,-0.105
2254,0.185,-0.115
2255,0.205,-0.125
2256,0.225,-0.125
2257,0.245,-0.125
2258,0.255,-0.145
2259,0.235,-0.135
2260,0.225,-0.125
2261,0.185,-0.115
2262,0.135,-0.115
2263,0.095,-0.085
2264,0.045,-0.075
2265,-0.005,-0.085
2266,-0.025,-0.065
2267,-0.055,-0.065
2268,-0.075,-0.055
2269,-0.075,-0.065
2270,-0.115,-0.075
2271,-0.095,-0.055
2272,-0.095,-0.065
2273,-0.105,-0.065
2274,-0.095,-0.075
2275,-0.095,-0.065
2276,-0.095,-0.065
2277,-0.075,-0.065
2278,-0.095,-0.075
2279,-0.075,-0.065
2280,-0.065,-0.065
2281,-0.065,-0.065
2282,-0.055,-0.075
2283,-0.045,-0.065
2284,-0.055,-0.065
2285,-0.055,-0.065
2286,-0.075,-0.075
2287,-0.065,-0.065
2288,-0.055,-0.065
2289,-0.055,-0.065
2290,-0.055,-0.085
2291,-0.065,-0.065
2292,-0.065,-0.075
2293,-0.065,-0.075
2294,-0.075,-0.095
2295,-0.085,-0.085
2296,-0.075,-0.085
2297,-0.065,-0.085
2298,-0.095,-0.095
2299,-0.085,-0.085
2300,-0.075,-0.085
2301,-0.085,-0.085
2302,-0.085,-0.095
2303,-0.095,-0.095
2304,-0.085,-0.075
2305,-0.085,-0.085
2306,-0.095,-0.095
2307,-0.085,-0.085
2308,-0.075,-0.085
2309,-0.085,-0.085
2310,-0.085,-0.095
2311,-0.095,-0.085
2312,-0.075,-0.085
2313,-0.085,-0.085
2314,-0.095,-0.095
2315,-0.075,-0.075
2316,-0.075,-0.085
2317,-0.075,-0.085
2318,-0.075,-0.095
2319,-0.095,-0.095
2320,-0.075,-0.085
2321,-0.075,-0.075
2322,-0.085,-0.095
2323,-0.075,-0.085
2324,-0.075,-0.075
2325,-0.075,-0.075
2326,-0.075,-0.095
2327,-0.075,-0.085
2328,-0.065,-0.085
2329,-0.065,-0.075
2330,-0.075,-0.095
2331,-0.055,-0.085
2332,-0.065,-0.075
2333,-0.055,-0.075
2334,-0.065,-0.085
2335,-0.015,-0.055
2336,0.025,0.005
2337,0.025,0.005
2338,0.065,0.005
2339,0.115,0.005
2340,0.115,-0.045
2341,0.095,-0.095
2342,0.095,-0.095
2343,0.035,-0.105
2344,0.015,-0.105
2345,-0.045,-0.105
2346,-0.085,-0.105
2347,-0.075,-0.115
2348,-0.055,-0.105
2349,-0.075,-0.105
2350,-0.025,-0.075
2351,0.015,0.035
2352,0.105,-0.135
2353,0.585,-0.285
2354,1.105,-0.455
2355,0.515,-0.595
2356,-0.605,-0.575
2357,-0.665,-0.255
2358,-0.345,-0.105
2359,-0.095,-0.095
2360,-0.055,-0.085
2361,-0.075,-0.075
2362,-0.085,-0.085
2363,-0.075,-0.075
2364,-0.075,-0.065
2365,-0.065,-0.075
2366,-0.065,-0.075
2367,-0.075,-0.075
2368,-0.055,-0.045
2369,-0.055,-0.065
2370,-0.065,-0.065
2371,-0.035,-0.055
2372,-0.035,-0.045
2373,-0.025,-0.045
2374,-0.025,-0.055
2375,-0.025,-0.055
2376,-0.005,-0.045
2377,0.005,-0.055
2378,0.015,-0.055
2379,0.025,-0.065
2380,0.035,-0.055
2381,0.055,-0.065
2382,0.045,-0.065
2383,0.085,-0.065
2384,0.095,-0.065
2385,0.115,-0.075
2386,0.155,-0.085
2387,0.165,-0.075
2388,0.185,-0.085
2389,0.195,-0.095
2390,0.215,-0.115
2391,0.225,-0.115
2392,0.235,-0.115
2393,0.235,-0.115
2394,0.235,-0.115
2395,0.215,-0.095
2396,0.165,-0.085
2397,0.125,-0.085
2398,0.065,-0.075
2399,0.025,-0.055
2400,-0.005,-0.055
2401,-0.035,-0.045
2402,-0.065,-0.045
2403,-0.075,-0.045
2404,-0.085,-0.045
2405,-0.085,-0.045
2406,-0.105,-0.055
2407,-0.115,-0.055
2408,-0.105,-0.045
2409,-0.095,-0.055
2410,-0.105,-0.055
2411,-0.095,-0.055
2412,-0.095,-0.055
2413,-0.085,-0.055
2414,-0.075,-0.065
2415,-0.075,-0.045
2416,-0.065,-0.045
2417,-0.055,-0.045
2418,-0.055,-0.055
2419,-0.055,-0.055
2420,-0.055,-0.045
2421,-0.055,-0.055
2422,-0.065,-0.065
2423,-0.065,-0.055
2424,-0.065,-0.055
2425,-0.075,-0.065
2426,-0.075,-0.065
2427,-0.065,-0.055
2428,-0.075,-0.065
2429,-0.085,-0.065
2430,-0.085,-0.085
2431,-0.085,-0.065
2432,-0.085,-0.065
2433,-0.085,-0.075
2434,-0.095,-0.075
2435,-0.085,-0.065
2436,-0.095,-0.055
2437,-0.095,-0.075
2438,-0.085,-0.085
2439,-0.105,-0.075
2440,-0.095,-0.055
2441,-0.095,-0.065
2442,-0.105,-0.075
2443,-0.105,-0.075
2444,-0.085,-0.065
2445,-0.095,-0.065
2446,-0.095,-0.075
2447,-0.105,-0.065
2448,-0.085,-0.065
2449,-0.095,-0.065
2450,-0.115,-0.085
2451,-0.095,-0.065
2452,-0.095,-0.065
2453,-0.105,-0.075
2454,-0.085,-0.075
2455,-0.095,-0.065
2456,-0.085,-0.055
2457,-0.095,-0.065
2458,-0.105,-0.065
2459,-0.085,-0.075
2460,-0.085,-0.055
2461,-0.085,-0.055
2462,-0.085,-0.065
2463,-0.095,-0.075
2464,-0.075,-0.055
2465,-0.085,-0.065
2466,-0.095,-0.075
2467,-0.075,-0.065
2468,-0.065,-0.055
2469,-0.075,-0.055
2470,-0.075,-0.075
2471,-0.095,-0.065
2472,-0.045,-0.045
2473,-0.015,0.005
2474,-0.015,0.005
2475,0.045,0.015
2476,0.095,0.035
2477,0.095,-0.015
2478,0.085,-0.085
2479,0.055,-0.085
2480,0.055,-0.075
2481,0.005,-0.105
2482,-0.045,-0.105
2483,-0.085,-0.085
2484,-0.085,-0.085
2485,-0.095,-0.085
2486,-0.095,-0.095
2487,-0.055,-0.065
2488,0.025,0.055
2489,0.025,-0.055
2490,0.435,-0.275
2491,0.905,-0.315
2492,0.855,-0.435
2493,-0.215,-0.495
2494,-0.705,-0.245
2495,-0.485,-0.095
2496,-0.205,-0.055
2497,-0.075,-0.075
2498,-0.095,-0.085
2499,-0.095,-0.065
2500,-0.105,-0.065
2501,-0.085,-0.065
2502,-0.105,-0.075
2503,-0.105,-0.065
2504,-0.085,-0.055
2505,-0.085,-0.055
2506,-0.075,-0.065
2507,-0.065,-0.045
2508,-0.065,-0.045
2509,-0.075,-0.055
2510,-0.065,-0.065
2511,-0.055,-0.055
2512,-0.045,-0.045
2513,-0.045,-0.055
2514,-0.025,-0.065
2515,-0.015,-0.055
2516,-0.005,-0.055
2517,-0.005,-0.055
2518,0.015,-0.075
2519,0.025,-0.065
2520,0.045,-0.075
2521,0.055,-0.075
2522,0.075,-0.085
2523,0.105,-0.085
2524,0.115,-0.085
2525,0.145,-0.095
2526,0.135,-0.115
2527,0.165,-0.115
2528,0.185,-0.105
2529,0.195,-0.125
2530,0.185,-0.135
2531,0.195,-0.115
2532,0.185,-0.105
2533,0.155,-0.115
2534,0.115,-0.105
2535,0.065,-0.065
2536,0.025,-0.045
2537,-0.005,-0.035
2538,-0.055,-0.045
2539,-0.075,-0.045
2540,-0.095,-0.025
2541,-0.105,-0.025
2542,-0.115,-0.035
2543,-0.125,-0.045
2544,-0.115,-0.015
2545,-0.135,-0.035
2546,-0.125,-0.045
2547,-0.115,-0.035
2548,-0.115,-0.025
2549,-0.105,-0.045
2550,-0.105,-0.045
2551,-0.105,-0.045
2552,-0.085,-0.025
2553,-0.085,-0.035
2554,-0.095,-0.045
2555,-0.085,-0.035
2556,-0.085,-0.035
2557,-0.085,-0.035
2558,-0.085,-0.055
2559,-0.095,-0.035
2560,-0.085,-0.035
2561,-0.095,-0.045
2562,-0.095,-0.045
2563,-0.085,-0.045
2564,-0.105,-0.045
2565,-0.115,-0.045
2566,-0.115,-0.055
2567,-0.105,-0.055
2568,-0.105,-0.045
2569,-0.115,-0.055
2570,-0.105,-0.055
2571,-0.105,-0.055
2572,-0.125,-0.045
2573,-0.115,-0.065
2574,-0.125,-0.065
2575,-0.125,-0.065
2576,-0.115,-0.045
2577,-0.125,-0.065
2578,-0.115,-0.065
2579,-0.105,-0.055
2580,-0.125,-0.055
2581,-0.115,-0.065
2582,-0.115,-0.075
2583,-0.125,-0.055
2584,-0.115,-0.055
2585,-0.115,-0.065
2586,-0.115,-0.065
2587,-0.105,-0.065
2588,-0.115,-0.055
2589,-0.115,-0.055
2590,-0.115,-0.075
2591,-0.115,-0.055
2592,-0.115,-0.055
2593,-0.095,-0.055
2594,-0.105,-0.065
2595,-0.095,-0.055
2596,-0.085,-0.065
2597,-0.095,-0.055
2598,-0.095,-0.075
2599,-0.105,-0.055
2600,-0.085,-0.055
2601,-0.095,-0.055
2602,-0.095,-0.075
2603,-0.085,-0.065
2604,-0.065,-0.055
2605,-0.025,-0.015
2606,-0.005,0.005
2607,-0.005,0.005
2608,0.065,0.005
2609,0.095,-0.005
2610,0.075,-0.065
2611,0.085,-0.075
2612,0.065,-0.075
2613,0.025,-0.085
2614,-0.015,-0.105
2615,-0.085,-0.095
2616,-0.095,-0.105
2617,-0.075,-0.095
2618,-0.095,-0.115
2619,-0.075,-0.095
2620,-0.015,-0.025
2621,0.015,0.045
2622,0.115,-0.145
2623,0.675,-0.285
2624,1.225,-0.415
2625,0.605,-0.555
2626,-0.495,-0.465
2627,-0.695,-0.205
2628,-0.395,-0.055
2629,-0.155,-0.055
2630,-0.075,-0.105
2631,-0.105,-0.095
2632,-0.095,-0.075
2633,-0.095,-0.075
2634,-0.095,-0.085
2635,-0.085,-0.075
2636,-0.075,-0.075
2637,-0.085,-0.065
2638,-0.075,-0.075
2639,-0.085,-0.075
2640,-0.065,-0.055
2641,-0.055,-0.065
2642,-0.065,-0.065
2643,-0.035,-0.065
2644,-0.035,-0.065
2645,-0.035,-0.065
2646,-0.025,-0.075
2647,-0.025,-0.075
2648,0.005,-0.075
2649,0.015,-0.065
2650,0.015,-0.085
2651,0.035,-0.075
2652,0.055,-0.065
2653,0.065,-0.085
2654,0.075,-0.095
2655,0.085,-0.095
2656,0.125,-0.095
2657,0.145,-0.105
2658,0.155,-0.115
2659,0.195,-0.125
2660,0.205,-0.115
2661,0.215,-0.125
2662,0.225,-0.135
2663,0.215,-0.135
2664,0.225,-0.115
2665,0.195,-0.115
2666,0.165,-0.115
2667,0.145,-0.095
2668,0.105,-0.075
2669,0.035,-0.055
2670,0.005,-0.055
2671,-0.035,-0.065
2672,-0.055,-0.035
2673,-0.075,-0.055
2674,-0.085,-0.055
2675,-0.095,-0.045
2676,-0.095,-0.045
2677,-0.095,-0.055
2678,-0.095,-0.055
2679,-0.095,-0.045
2680,-0.085,-0.035
2681,-0.075,-0.045
2682,-0.075,-0.065
2683,-0.055,-0.045
2684,-0.055,-0.035
2685,-0.055,-0.045
2686,-0.055,-0.065
2687,-0.055,-0.055
2688,-0.045,-0.045
2689,-0.035,-0.045
2690,-0.045,-0.065
2691,-0.035,-0.055
2692,-0.045,-0.055
2693,-0.035,-0.055
2694,-0.055,-0.055
2695,-0.065,-0.055
2696,-0.045,-0.045
2697,-0.055,-0.065
2698,-0.045,-0.065
2699,-0.055,-0.055
2700,-0.055,-0.055
2701,-0.065,-0.065
2702,-0.065,-0.065
2703,-0.075,-0.065
2704,-0.065,-0.055
2705,-0.075,-0.055
2706,-0.075,-0.075
2707,-0.065,-0.065
2708,-0.065,-0.055
2709,-0.065,-0.065
2710,-0.055,-0.075
2711,-0.075,-0.065
2712,-0.055,-0.065
2713,-0.065,-0.065
2714,-0.075,-0.085
2715,-0.055,-0.065
2716,-0.065,-0.055
2717,-0.055,-0.075
2718,-0.055,-0.075
2719,-0.075,-0.065
2720,-0.065,-0.065
2721,-0.055,-0.055
2722,-0.065,-0.085
2723,-0.055,-0.075
2724,-0.045,-0.065
2725,-0.055,-0.065
2726,-0.055,-0.075
2727,-0.065,-0.065
2728,-0.055,-0.075
2729,-0.055,-0.065
2730,-0.065,-0.075
2731,-0.045,-0.075
2732,-0.035,-0.065
2733,-0.055,-0.065
2734,-0.035,-0.075
2735,-0.055,-0.075
2736,-0.035,-0.065
2737,-0.045,-0.065
2738,-0.055,-0.075
2739,-0.035,-0.065
2740,0.015,-0.035
2741,0.045,0.005
2742,0.045,0.005
2743,0.075,0.005
2744,0.135,0.025
2745,0.135,-0.055
2746,0.105,-0.105
2747,0.115,-0.095
2748,0.075,-0.095
2749,0.025,-0.105
2750,-0.025,-0.105
2751,-0.075,-0.105
2752,-0.065,-0.105
2753,-0.065,-0.105
2754,-0.065,-0.115
2755,0.015,-0.035
2756,0.055,0.035
2757,0.145,-0.175
2758,0.635,-0.305
2759,1.075,-0.455
2760,0.705,-0.565
2761,-0.465,-0.585
2762,-0.705,-0.285
2763,-0.405,-0.095
2764,-0.105,-0.085
2765,-0.055,-0.095
2766,-0.075,-0.095
2767,-0.075,-0.095
2768,-0.065,-0.075
2769,-0.065,-0.075
2770,-0.065,-0.085
2771,-0.055,-0.075
2772,-0.055,-0.065
2773,-0.055,-0.065
2774,-0.065,-0.075
2775,-0.065,-0.065
2776,-0.035,-0.055
2777,-0.035,-0.055
2778,-0.035,-0.065
2779,-0.015,-0.065
2780,-0.005,-0.045
2781,-0.005,-0.055
2782,-0.005,-0.065
2783,-0.005,-0.065
2784,0.025,-0.065
2785,0.035,-0.055
2786,0.045,-0.065
2787,0.065,-0.075
2788,0.085,-0.065
2789,0.095,-0.075
2790,0.115,-0.095
2791,0.115,-0.085
2792,0.165,-0.085
2793,0.165,-0.095
2794,0.195,-0.115
2795,0.225,-0.105
2796,0.235,-0.105
2797,0.235,-0.125
2798,0.245,-0.135
2799,0.225,-0.115
2800,0.225,-0.115
2801,0.205,-0.115
2802,0.155,-0.105
2803,0.115,-0.085
2804,0.065,-0.065
2805,0.015,-0.065
2806,-0.005,-0.065
2807,-0.055,-0.065
2808,-0.065,-0.045
2809,-0.065,-0.055
2810,-0.085,-0.075
2811,-0.085,-0.065
2812,-0.095,-0.055
2813,-0.095,-0.065
2814,-0.085,-0.075
2815,-0.095,-0.065
2816,-0.085,-0.055
2817,-0.085,-0.065
2818,-0.085,-0.075
2819,-0.065,-0.065
2820,-0.075,-0.055
2821,-0.055,-0.065
2822,-0.045,-0.055
2823,-0.065,-0.055
2824,-0.055,-0.055
2825,-0.055,-0.065
2826,-0.065,-0.065
2827,-0.045,-0.055
2828,-0.065,-0.055
2829,-0.065,-0.065
2830,-0.065,-0.075
2831,-0.085,-0.065
2832,-0.075,-0.065
2833,-0.085,-0.075
2834,-0.085,-0.085
2835,-0.095,-0.075
2836,-0.085,-0.065
2837,-0.105,-0.075
2838,-0.085,-0.085
2839,-0.105,-0.075
2840,-0.095,-0.075
2841,-0.105,-0.075
2842,-0.115,-0.085
2843,-0.095,-0.075
2844,-0.105,-0.065
2845,-0.105,-0.065
2846,-0.115,-0.095
2847,-0.115,-0.085
2848,-0.115,-0.075
2849,-0.105,-0.075
2850,-0.125,-0.085
2851,-0.105,-0.075
2852,-0.115,-0.065
2853,-0.105,-0.075
2854,-0.105,-0.085
2855,-0.115,-0.085
2856,-0.105,-0.065
2857,-0.115,-0.075
2858,-0.115,-0.085
2859,-0.105,-0.075
2860,-0.095,-0.065
2861,-0.105,-0.075
2862,-0.085,-0.085
2863,-0.115,-0.075
2864,-0.095,-0.065
2865,-0.095,-0.075
2866,-0.095,-0.095
2867,-0.095,-0.065
2868,-0.095,-0.065
2869,-0.065,-0.055
2870,-0.025,-0.015
2871,-0.025,0.005
2872,0.025,0.015
2873,0.075,0.025
2874,0.085,-0.035
2875,0.055,-0.095
2876,0.055,-0.085
2877,0.025,-0.095
2878,-0.015,-0.115
2879,-0.075,-0.105
2880,-0.125,-0.105
2881,-0.115,-0.105
2882,-0.125,-0.105
2883,-0.115,-0.095
2884,-0.085,-0.065
2885,-0.025,0.045
2886,-0.015,-0.065
2887,0.315,-0.265
2888,0.785,-0.345
2889,0.915,-0.485
2890,-0.235,-0.625
2891,-0.765,-0.335
2892,-0.565,-0.115
2893,-0.285,-0.095
2894,-0.125,-0.095
2895,-0.135,-0.075
2896,-0.135,-0.065
2897,-0.145,-0.075
2898,-0.145,-0.075
2899,-0.135,-0.075
2900,-0.125,-0.065
2901,-0.135,-0.065
2902,-0.125,-0.085
2903,-0.145,-0.065
2904,-0.115,-0.055
2905,-0.125,-0.055
2906,-0.125,-0.075
2907,-0.115,-0.055
2908,-0.105,-0.055
2909,-0.105,-0.065
2910,-0.095,-0.065
2911,-0.095,-0.065
2912,-0.075,-0.055
2913,-0.075,-0.065
2914,-0.075,-0.075
2915,-0.035,-0.075
2916,-0.025,-0.055
2917,-0.025,-0.085
2918,0.005,-0.075
2919,0.005,-0.085
2920,0.045,-0.075
2921,0.055,-0.085
2922,0.075,-0.105
2923,0.105,-0.095
2924,0.125,-0.095
2925,0.145,-0.115
2926,0.165,-0.125
2927,0.145,-0.125
2928,0.175,-0.105
2929,0.165,-0.115
2930,0.145,-0.115
2931,0.125,-0.095
2932,0.085,-0.075
2933,0.025,-0.055
2934,-0.015,-0.065
2935,-0.075,-0.055
2936,-0.095,-0.035
2937,-0.115,-0.035
2938,-0.135,-0.045
2939,-0.125,-0.035
2940,-0.145,-0.035
2941,-0.145,-0.045
2942,-0.145,-0.045
2943,-0.155,-0.035
2944,-0.145,-0.035
2945,-0.135,-0.035
2946,-0.135,-0.045
2947,-0.125,-0.035
2948,-0.125,-0.045
2949,-0.115,-0.035
2950,-0.105,-0.045
2951,-0.125,-0.045
2952,-0.095,-0.035
2953,-0.105,-0.035
2954,-0.105,-0.045
2955,-0.085,-0.045
2956,-0.075,-0.035
2957,-0.105,-0.035
2958,-0.105,-0.055
2959,-0.115,-0.055
2960,-0.105,-0.045
2961,-0.115,-0.055
2962,-0.115,-0.055
2963,-0.105,-0.055
2964,-0.115,-0.035
2965,-0.105,-0.055
2966,-0.115,-0.065
2967,-0.125,-0.055
2968,-0.125,-0.055
2969,-0.125,-0.055
2970,-0.125,-0.065
2971,-0.105,-0.065
2972,-0.115,-0.055
2973,-0.125,-0.065
2974,-0.115,-0.065
2975,-0.125,-0.065
2976,-0.115,-0.055
2977,-0.105,-0.055
2978,-0.125,-0.065
2979,-0.105,-0.055
2980,-0.115,-0.055
2981,-0.115,-0.065
2982,-0.105,-0.065
2983,-0.125,-0.065
2984,-0.105,-0.055
2985,-0.105,-0.045
2986,-0.115,-0.065
2987,-0.105,-0.055
2988,-0.095,-0.045
2989,-0.105,-0.055
2990,-0.085,-0.065
2991,-0.055,-0.015
2992,-0.025,0.025
2993,0.005,0.025
2994,0.045,0.025
2995,0.095,0.035
2996,0.075,-0.035
2997,0.065,-0.075
2998,0.045,-0.075
2999,-0.005,-0.085
3000,-0.025,-0.085
3001,-0.085,-0.075
3002,-0.125,-0.095
3003,-0.105,-0.085
3004,-0.115,-0.075
3005,-0.105,-0.075
3006,-0.055,-0.035
3007,-0.005,0.045
3008,0.085,-0.135
3009,0.575,-0.275
3010,1.075,-0.395
3011,0.375,-0.535
3012,-0.635,-0.465
3013,-0.695,-0.185
3014,-0.395,-0.095
3015,-0.145,-0.085
3016,-0.085,-0.075
3017,-0.115,-0.065
3018,-0.125,-0.075
3019,-0.115,-0.065
3020,-0.105,-0.055
3021,-0.115,-0.065
3022,-0.095,-0.065
3023,-0.115,-0.055
3024,-0.085,-0.045
3025,-0.095,-0.045
3026,-0.085,-0.055
3027,-0.075,-0.045
3028,-0.065,-0.035
3029,-0.065,-0.035
3030,-0.055,-0.045
3031,-0.065,-0.055
3032,-0.035,-0.045
3033,-0.035,-0.035
3034,-0.035,-0.065
3035,-0.005,-0.055
3036,-0.005,-0.045
3037,0.015,-0.055
3038,0.025,-0.055
3039,0.035,-0.065
3040,0.055,-0.065
3041,0.075,-0.065
3042,0.085,-0.085
3043,0.135,-0.085
3044,0.145,-0.085
3045,0.165,-0.085
3046,0.175,-0.105
3047,0.175,-0.105
3048,0.195,-0.105
3049,0.205,-0.105
3050,0.185,-0.115
3051,0.185,-0.095
3052,0.165,-0.065
3053,0.115,-0.065
3054,0.075,-0.065
3055,0.005,-0.035
3056,-0.015,-0.015
3057,-0.055,-0.025
3058,-0.085,-0.025
3059,-0.085,-0.025
3060,-0.105,-0.025
3061,-0.115,-0.025
3062,-0.105,-0.035
3063,-0.125,-0.035
3064,-0.115,-0.025
3065,-0.115,-0.025
3066,-0.125,-0.035
3067,-0.105,-0.025
3068,-0.105,-0.025
3069,-0.095,-0.025
3070,-0.075,-0.035
3071,-0.085,-0.035
3072,-0.075,-0.025
3073,-0.065,-0.025
3074,-0.085,-0.045
3075,-0.065,-0.015
3076,-0.075,-0.015
3077,-0.065,-0.035
3078,-0.085,-0.045
3079,-0.085,-0.035
3080,-0.095,-0.025
3081,-0.085,-0.035
3082,-0.095,-0.045
3083,-0.095,-0.045
3084,-0.105,-0.035
3085,-0.105,-0.045
3086,-0.095,-0.055
3087,-0.115,-0.045
3088,-0.095,-0.035
3089,-0.105,-0.045
3090,-0.105,-0.055
3091,-0.115,-0.045
3092,-0.105,-0.045
3093,-0.115,-0.045
3094,-0.105,-0.045
3095,-0.115,-0.045
3096,-0.105,-0.045
3097,-0.115,-0.055
3098,-0.115,-0.055
3099,-0.095,-0.055
3100,-0.115,-0.045
3101,-0.115,-0.055
3102,-0.115,-0.055
3103,-0.125,-0.055
3104,-0.115,-0.045
3105,-0.105,-0.045
3106,-0.105,-0.055
3107,-0.045,-0.005
3108,-0.025,0.015
3109,-0.015,0.025
3110,0.025,0.025
3111,0.055,0.025
3112,0.055,-0.025
3113,0.045,-0.075
3114,0.005,-0.075
3115,-0.015,-0.095
3116,-0.065,-0.085
3117,-0.135,-0.085
3118,-0.145,-0.095
3119,-0.155,-0.085
3120,-0.135,-0.075
3121,-0.135,-0.075
3122,-0.095,-0.025
3123,-0.025,0.065
3124,0.025,-0.105
3125,0.445,-0.255
3126,0.925,-0.345
3127,0.565,-0.455
3128,-0.455,-0.485
3129,-0.785,-0.225
3130,-0.535,-0.095
3131,-0.235,-0.085
3132,-0.135,-0.065
3133,-0.145,-0.065
3134,-0.165,-0.075
3135,-0.165,-0.055
3136,-0.155,-0.055
3137,-0.145,-0.065
3138,-0.165,-0.065
3139,-0.145,-0.055
3140,-0.135,-0.055
3141,-0.135,-0.055
3142,-0.135,-0.065
3143,-0.135,-0.065
3144,-0.115,-0.045
3145,-0.115,-0.055
3146,-0.115,-0.055
3147,-0.105,-0.065
3148,-0.095,-0.045
3149,-0.095,-0.055
3150,-0.075,-0.065
3151,-0.075,-0.065
3152,-0.065,-0.055
3153,-0.055,-0.055
3154,-0.035,-0.075
3155,-0.015,-0.075
3156,0.005,-0.075
3157,0.015,-0.085
3158,0.055,-0.095
3159,0.055,-0.105
3160,0.085,-0.105
3161,0.095,-0.115
3162,0.115,-0.125
3163,0.135,-0.125
3164,0.125,-0.125
3165,0.135,-0.125
3166,0.135,-0.135
3167,0.105,-0.115
3168,0.095,-0.085
3169,0.055,-0.075
3170,0.005,-0.075
3171,-0.045,-0.055
3172,-0.085,-0.035
3173,-0.125,-0.045
3174,-0.135,-0.055
3175,-0.155,-0.045
3176,-0.165,-0.045
3177,-0.165,-0.035
3178,-0.185,-0.055
3179,-0.175,-0.055
3180,-0.175,-0.045
3181,-0.165,-0.045
3182,-0.165,-0.065
3183,-0.175,-0.055
3184,-0.145,-0.045
3185,-0.145,-0.045
3186,-0.145,-0.055
3187,-0.145,-0.045
3188,-0.125,-0.045
3189,-0.135,-0.045
3190,-0.135,-0.055
3191,-0.145,-0.055
3192,-0.125,-0.055
3193,-0.125,-0.055
3194,-0.145,-0.055
3195,-0.145,-0.055
3196,-0.135,-0.055
3197,-0.145,-0.055
3198,-0.155,-0.075
3199,-0.165,-0.055
3200,-0.155,-0.055
3201,-0.155,-0.065
3202,-0.165,-0.065
3203,-0.145,-0.065
3204,-0.165,-0.065
3205,-0.155,-0.065
3206,-0.175,-0.075
3207,-0.165,-0.065
3208,-0.165,-0.075
3209,-0.165,-0.065
3210,-0.155,-0.075
3211,-0.165,-0.075
3212,-0.155,-0.065
3213,-0.155,-0.065
3214,-0.155,-0.085
3215,-0.175,-0.075
3216,-0.155,-0.065
3217,-0.155,-0.065
3218,-0.175,-0.085
3219,-0.165,-0.075
3220,-0.155,-0.065
3221,-0.165,-0.075
3222,-0.145,-0.085
3223,-0.165,-0.065
3224,-0.125,-0.055
3225,-0.095,-0.015
3226,-0.095,-0.015
3227,-0.055,0.005
3228,0.005,0.015
3229,0.025,-0.025
3230,-0.005,-0.095
3231,-0.005,-0.095
3232,-0.025,-0.085
3233,-0.055,-0.105
3234,-0.115,-0.115
3235,-0.135,-0.105
3236,-0.175,-0.095
3237,-0.185,-0.105
3238,-0.175,-0.115
3239,-0.175,-0.105
3240,-0.075,-0.025
3241,-0.035,0.045
3242,0.055,-0.155
3243,0.575,-0.295
3244,1.045,-0.385
3245,0.635,-0.505
3246,-0.405,-0.465
3247,-0.825,-0.235
3248,-0.535,-0.085
3249,-0.265,-0.045
3250,-0.145,-0.095
3251,-0.135,-0.095
3252,-0.165,-0.095
3253,-0.165,-0.085
3254,-0.155,-0.095
3255,-0.165,-0.085
3256,-0.145,-0.085
3257,-0.155,-0.075
3258,-0.155,-0.085
3259,-0.115,-0.085
3260,-0.125,-0.075
3261,-0.125,-0.065
3262,-0.115,-0.085
3263,-0.115,-0.085
3264,-0.095,-0.085
3265,-0.085,-0.075
3266,-0.085,-0.095
3267,-0.065,-0.085
3268,-0.055,-0.075
3269,-0.045,-0.095
3270,-0.035,-0.105
3271,-0.035,-0.105
3272,-0.005,-0.095
3273,0.015,-0.095
3274,0.025,-0.115
3275,0.055,-0.115
3276,0.075,-0.115
3277,0.095,-0.125
3278,0.125,-0.135
3279,0.115,-0.145
3280,0.155,-0.135
3281,0.155,-0.155
3282,0.155,-0.155
3283,0.155,-0.145
3284,0.155,-0.145
3285,0.125,-0.125
3286,0.105,-0.125
3287,0.055,-0.095
3288,0.015,-0.075
3289,-0.025,-0.065
3290,-0.065,-0.085
3291,-0.085,-0.065
3292,-0.105,-0.065
3293,-0.115,-0.065
3294,-0.115,-0.075
3295,-0.135,-0.065
3296,-0.125,-0.065
3297,-0.125,-0.065
3298,-0.135,-0.075
3299,-0.115,-0.065
3300,-0.105,-0.065
3301,-0.115,-0.065
3302,-0.105,-0.075
3303,-0.105,-0.065
3304,-0.095,-0.065
3305,-0.085,-0.075
3306,-0.095,-0.075
3307,-0.075,-0.065
3308,-0.085,-0.075
3309,-0.085,-0.075
3310,-0.085,-0.085
3311,-0.085,-0.075
3312,-0.085,-0.065
3313,-0.095,-0.075
3314,-0.095,-0.075
3315,-0.095,-0.075
3316,-0.095,-0.075
3317,-0.095,-0.075
3318,-0.105,-0.095
3319,-0.105,-0.085
3320,-0.095,-0.075
3321,-0.105,-0.085
3322,-0.105,-0.095
3323,-0.105,-0.085
3324,-0.105,-0.085
3325,-0.115,-0.085
3326,-0.105,-0.095
3327,-0.115,-0.085
3328,-0.105,-0.085
3329,-0.105,-0.085
3330,-0.105,-0.095
3331,-0.095,-0.085
3332,-0.105,-0.085
3333,-0.115,-0.095
3334,-0.125,-0.095
3335,-0.105,-0.085
3336,-0.095,-0.075
3337,-0.095,-0.085
3338,-0.105,-0.095
3339,-0.095,-0.085
3340,-0.105,-0.085
3341,-0.095,-0.095
3342,-0.115,-0.095
3343,-0.105,-0.085
3344,-0.085,-0.075
3345,-0.095,-0.095
3346,-0.095,-0.095
3347,-0.085,-0.085
3348,-0.075,-0.075
3349,-0.025,-0.035
3350,-0.015,-0.025
3351,-0.005,-0.005
3352,0.055,0.005
3353,0.095,-0.005
3354,0.085,-0.075
3355,0.065,-0.105
3356,0.045,-0.095
3357,0.015,-0.105
3358,-0.035,-0.115
3359,-0.085,-0.105
3360,-0.105,-0.105
3361,-0.105,-0.095
3362,-0.105,-0.115
3363,-0.095,-0.105
3364,-0.045,-0.055
3365,-0.005,0.025
3366,0.055,-0.125
3367,0.555,-0.285
3368,1.065,-0.415
3369,0.625,-0.555
3370,-0.545,-0.595
3371,-0.775,-0.295
3372,-0.445,-0.085
3373,-0.155,-0.075
3374,-0.065,-0.105
3375,-0.105,-0.095
3376,-0.095,-0.085
3377,-0.105,-0.075
3378,-0.105,-0.085
3379,-0.095,-0.075
3380,-0.085,-0.065
3381,-0.095,-0.065
3382,-0.075,-0.075
3383,-0.085,-0.065
3384,-0.065,-0.055
3385,-0.075,-0.055
3386,-0.065,-0.065
3387,-0.045,-0.055
3388,-0.035,-0.045
3389,-0.045,-0.055
3390,-0.035,-0.065
3391,-0.035,-0.055
3392,-0.005,-0.055
3393,0.005,-0.055
3394,0.005,-0.065
3395,0.035,-0.065
3396,0.035,-0.065
3397,0.065,-0.075
3398,0.065,-0.085
3399,0.095,-0.085
3400,0.115,-0.075
3401,0.145,-0.095
3402,0.165,-0.115
3403,0.185,-0.105
3404,0.195,-0.105
3405,0.215,-0.115
3406,0.185,-0.135
3407,0.205,-0.125
3408,0.205,-0.105
3409,0.175,-0.115
3410,0.155,-0.105
3411,0.115,-0.085
3412,0.055,-0.065
3413,0.005,-0.065
3414,-0.045,-0.075
3415,-0.065,-0.055
3416,-0.075,-0.055
3417,-0.085,-0.055
3418,-0.085,-0.065
3419,-0.105,-0.055
3420,-0.105,-0.055
3421,-0.105,-0.055
3422,-0.125,-0.065
3423,-0.105,-0.055
3424,-0.095,-0.045
3425,-0.095,-0.045
3426,-0.085,-0.065
3427,-0.075,-0.045
3428,-0.075,-0.045
3429,-0.075,-0.045
3430,-0.085,-0.055
3431,-0.075,-0.035
3432,-0.065,-0.045
3433,-0.055,-0.045
3434,-0.065,-0.045
3435,-0.055,-0.045
3436,-0.065,-0.045
3437,-0.065,-0.045
3438,-0.075,-0.065
3439,-0.085,-0.055
3440,-0.075,-0.045
3441,-0.085,-0.055
3442,-0.085,-0.065
3443,-0.085,-0.065
3444,-0.075,-0.045
3445,-0.085,-0.065
3446,-0.095,-0.065
3447,-0.105,-0.065
3448,-0.085,-0.055
3449,-0.085,-0.055
3450,-0.085,-0.075
3451,-0.095,-0.065
3452,-0.095,-0.065
3453,-0.095,-0.065
3454,-0.105,-0.075
3455,-0.095,-0.065
3456,-0.095,-0.065
3457,-0.095,-0.065
3458,-0.095,-0.075
3459,-0.085,-0.065
3460,-0.085,-0.055
3461,-0.085,-0.055
3462,-0.105,-0.075
3463,-0.085,-0.065
3464,-0.085,-0.055
3465,-0.085,-0.055
3466,-0.085,-0.075
3467,-0.075,-0.065
3468,-0.085,-0.055
3469,-0.075,-0.065
3470,-0.095,-0.065
3471,-0.075,-0.065
3472,-0.065,-0.055
3473,-0.065,-0.055
3474,-0.065,-0.065
3475,-0.065,-0.055
3476,-0.065,-0.055
3477,-0.065,-0.065
3478,-0.085,-0.075
3479,-0.075,-0.065
3480,-0.055,-0.055
3481,-0.065,-0.055
3482,-0.055,-0.065
3483,-0.055,-0.055
3484,-0.055,-0.045
3485,-0.045,-0.055
3486,-0.005,-0.025
3487,0.025,0.025
3488,0.045,0.035
3489,0.095,0.035
3490,0.125,0.025
3491,0.125,-0.025
3492,0.085,-0.085
3493,0.085,-0.065
3494,0.005,-0.095
3495,-0.015,-0.085
3496,-0.065,-0.075
3497,-0.075,-0.085
3498,-0.075,-0.095
3499,-0.075,-0.085
3500,-0.075,-0.075
3501,-0.005,-0.035
3502,0.025,0.035
3503,0.125,-0.135
3504,0.605,-0.265
3505,1.075,-0.385
3506,0.435,-0.535
3507,-0.595,-0.555
3508,-0.665,-0.245
3509,-0.375,-0.065
3510,-0.125,-0.085
3511,-0.065,-0.075
3512,-0.065,-0.065
3513,-0.085,-0.055
3514,-0.085,-0.065
3515,-0.075,-0.045
3516,-0.065,-0.045
3517,-0.065,-0.045
3518,-0.075,-0.055
3519,-0.065,-0.035
3520,-0.055,-0.025
3521,-0.055,-0.035
3522,-0.055,-0.035
3523,-0.035,-0.015
3524,-0.035,-0.025
3525,-0.015,-0.025
3526,-0.035,-0.035
3527,-0.015,-0.025
3528,0.005,-0.025
3529,0.015,-0.025
3530,0.015,-0.045
3531,0.025,-0.045
3532,0.045,-0.025
3533,0.055,-0.035
3534,0.065,-0.055
3535,0.075,-0.055
3536,0.105,-0.045
3537,0.115,-0.055
3538,0.125,-0.075
3539,0.155,-0.065
3540,0.185,-0.065
3541,0.185,-0.075
3542,0.205,-0.095
3543,0.205,-0.095
3544,0.215,-0.085
3545,0.215,-0.085
3546,0.185,-0.095
3547,0.175,-0.095
3548,0.145,-0.075
3549,0.105,-0.045
3550,0.065,-0.045
3551,0.015,-0.045
3552,-0.015,-0.035
3553,-0.035,-0.025
3554,-0.065,-0.025
3555,-0.065,-0.035
3556,-0.085,-0.015
3557,-0.085,-0.015
3558,-0.095,-0.025
3559,-0.115,-0.035
3560,-0.085,-0.025
3561,-0.095,-0.025
3562,-0.085,-0.025
3563,-0.075,-0.035
3564,-0.065,-0.015
3565,-0.065,-0.025
3566,-0.055,-0.025
3567,-0.075,-0.035
3568,-0.055,-0.025
3569,-0.055,-0.025
3570,-0.055,-0.035
3571,-0.045,-0.025
3572,-0.045,-0.015
3573,-0.055,-0.015
3574,-0.055,-0.035
3575,-0.075,-0.035
3576,-0.065,-0.025
3577,-0.075,-0.035
3578,-0.075,-0.045
3579,-0.085,-0.035
3580,-0.085,-0.025
3581,-0.095,-0.045
3582,-0.095,-0.045
3583,-0.095,-0.035
3584,-0.095,-0.045
3585,-0.095,-0.035
3586,-0.095,-0.055
3587,-0.105,-0.045
3588,-0.095,-0.035
3589,-0.095,-0.045
3590,-0.125,-0.045
3591,-0.105,-0.045
3592,-0.115,-0.035
3593,-0.095,-0.045
3594,-0.105,-0.045
3595,-0.085,-0.045
3596,-0.105,-0.045
3597,-0.105,-0.045
3598,-0.125,-0.055
3599,-0.105,-0.045
3600,-0.105,-0.035
3601,-0.105,-0.045
3602,-0.105,-0.055
3603,-0.115,-0.045
3604,-0.115,-0.045
3605,-0.115,-0.055
3606,-0.125,-0.045
3607,-0.115,-0.045
3608,-0.105,-0.035
3609,-0.115,-0.055
3610,-0.105,-0.065
3611,-0.115,-0.045
3612,-0.105,-0.045
3613,-0.105,-0.055
3614,-0.125,-0.055
3615,-0.115,-0.045
3616,-0.105,-0.045
3617,-0.105,-0.045
3618,-0.105,-0.055
3619,-0.095,-0.045
3620,-0.105,-0.045
3621,-0.105,-0.045
3622,-0.115,-0.045
3623,-0.065,-0.015
3624,-0.015,0.025
3625,-0.015,0.025
3626,0.025,0.025
3627,0.085,0.055
3628,0.065,0.015
3629,0.045,-0.065
3630,0.005,-0.085
3631,-0.035,-0.075
3632,-0.075,-0.065
3633,-0.105,-0.065
3634,-0.125,-0.095
3635,-0.135,-0.095
3636,-0.125,-0.075
3637,-0.135,-0.085
3638,-0.115,-0.075
3639,-0.025,0.015
3640,-0.015,0.025
3641,0.255,-0.195
3642,0.685,-0.285
3643,1.035,-0.375
3644,0.135,-0.495
3645,-0.655,-0.385
3646,-0.655,-0.165
3647,-0.365,-0.065
3648,-0.145,-0.065
3649,-0.125,-0.065
3650,-0.135,-0.075
3651,-0.125,-0.065
3652,-0.135,-0.045
3653,-0.135,-0.055
3654,-0.125,-0.065
3655,-0.135,-0.055
3656,-0.115,-0.045
3657,-0.115,-0.045
3658,-0.115,-0.045
3659,-0.105,-0.045
3660,-0.095,-0.035
3661,-0.095,-0.035
3662,-0.095,-0.045
3663,-0.095,-0.055
3664,-0.065,-0.045
3665,-0.075,-0.035
3666,-0.065,-0.055
3667,-0.055,-0.055
3668,-0.045,-0.055
3669,-0.045,-0.055
3670,-0.025,-0.065
3671,-0.025,-0.075
3672,0.015,-0.055
3673,0.025,-0.065
3674,0.035,-0.075
3675,0.055,-0.085
3676,0.075,-0.075
3677,0.095,-0.085
3678,0.115,-0.105
3679,0.115,-0.105
3680,0.135,-0.105
3681,0.135,-0.105
3682,0.135,-0.125
3683,0.145,-0.105
3684,0.125,-0.105
3685,0.105,-0.085
3686,0.065,-0.095
3687,0.015,-0.065
3688,-0.015,-0.045
3689,-0.055,-0.035
3690,-0.095,-0.045
3691,-0.095,-0.035
3692,-0.115,-0.035
3693,-0.125,-0.025
3694,-0.145,-0.035
3695,-0.135,-0.035
3696,-0.135,-0.025
3697,-0.135,-0.025
3698,-0.125,-0.045
3699,-0.125,-0.035
3700,-0.115,-0.025
3701,-0.115,-0.045
3702,-0.125,-0.045
3703,-0.105,-0.035
3704,-0.095,-0.025
3705,-0.105,-0.035
3706,-0.075,-0.045
3707,-0.105,-0.035
3708,-0.105,-0.035
3709,-0.095,-0.045
3710,-0.115,-0.045
3711,-0.115,-0.045
3712,-0.105,-0.045
3713,-0.105,-0.055
3714,-0.105,-0.055
3715,-0.115,-0.055
3716,-0.115,-0.045
3717,-0.125,-0.045
3718,-0.145,-0.065
3719,-0.135,-0.055
3720,-0.125,-0.045
3721,-0.135,-0.055
3722,-0.135,-0.055
3723,-0.125,-0.055
3724,-0.135,-0.045
3725,-0.135,-0.065
3726,-0.155,-0.075
3727,-0.135,-0.055
3728,-0.145,-0.065
3729,-0.135,-0.065
3730,-0.125,-0.065
3731,-0.135,-0.055
3732,-0.145,-0.055
3733,-0.135,-0.055
3734,-0.155,-0.075
3735,-0.135,-0.065
3736,-0.135,-0.055
3737,-0.125,-0.065
3738,-0.125,-0.075
3739,-0.135,-0.065
3740,-0.125,-0.055
3741,-0.135,-0.065
3742,-0.145,-0.075
3743,-0.125,-0.065
3744,-0.125,-0.065
3745,-0.135,-0.065
3746,-0.115,-0.085
3747,-0.115,-0.065
3748,-0.125,-0.065
3749,-0.115,-0.065
3750,-0.135,-0.085
3751,-0.115,-0.065
3752,-0.105,-0.075
3753,-0.105,-0.075
3754,-0.105,-0.085
3755,-0.085,-0.065
3756,-0.065,-0.045
3757,-0.025,0.005
3758,-0.035,-0.005
3759,0.015,0.005
3760,0.055,0.025
3761,0.075,-0.025
3762,0.045,-0.095
3763,0.045,-0.095
3764,-0.005,-0.095
3765,-0.065,-0.105
3766,-0.125,-0.115
3767,-0.125,-0.105
3768,-0.105,-0.095
3769,-0.105,-0.115
3770,-0.105,-0.125
3771,-0.075,-0.105
3772,-0.015,0.005
3773,-0.015,-0.025
3774,0.355,-0.255
3775,0.835,-0.335
3776,1.155,-0.475
3777,0.175,-0.575
3778,-0.685,-0.405
3779,-0.625,-0.165
3780,-0.335,-0.065
3781,-0.115,-0.085
3782,-0.095,-0.115
3783,-0.105,-0.105
3784,-0.105,-0.085
3785,-0.105,-0.085
3786,-0.115,-0.105
3787,-0.085,-0.095
3788,-0.085,-0.085
3789,-0.095,-0.085
3790,-0.085,-0.085
3791,-0.095,-0.085
3792,-0.075,-0.075
3793,-0.065,-0.075
3794,-0.065,-0.085
3795,-0.055,-0.085
3796,-0.045,-0.075
3797,-0.035,-0.075
3798,-0.025,-0.095
3799,-0.035,-0.085
3800,0.005,-0.085
3801,0.005,-0.085
3802,0.005,-0.095
3803,0.025,-0.095
3804,0.045,-0.085
3805,0.045,-0.085
3806,0.065,-0.115
3807,0.075,-0.105
3808,0.105,-0.105
3809,0.125,-0.115
3810,0.135,-0.125
3811,0.185,-0.125
3812,0.185,-0.125
3813,0.195,-0.135
3814,0.195,-0.145
3815,0.185,-0.145
3816,0.195,-0.135
3817,0.185,-0.135
3818,0.155,-0.125
3819,0.135,-0.115
3820,0.085,-0.075
3821,0.035,-0.075
3822,-0.005,-0.075
3823,-0.045,-0.075
3824,-0.055,-0.065
3825,-0.075,-0.045
3826,-0.085,-0.075
3827,-0.085,-0.065
3828,-0.085,-0.065
3829,-0.105,-0.055
3830,-0.095,-0.065
3831,-0.105,-0.065
3832,-0.085,-0.065
3833,-0.075,-0.055
3834,-0.085,-0.065
3835,-0.055,-0.065
3836,-0.065,-0.055
3837,-0.055,-0.055
3838,-0.065,-0.075
3839,-0.065,-0.075
3840,-0.045,-0.065
3841,-0.045,-0.055
3842,-0.055,-0.075
3843,-0.035,-0.065
3844,-0.035,-0.055
3845,-0.055,-0.065
3846,-0.055,-0.075
3847,-0.075,-0.075
3848,-0.055,-0.055
3849,-0.065,-0.065
3850,-0.065,-0.075
3851,-0.055,-0.075
3852,-0.065,-0.065
3853,-0.065,-0.065
3854,-0.065,-0.075
3855,-0.085,-0.085
3856,-0.065,-0.065
3857,-0.085,-0.075
3858,-0.075,-0.075
3859,-0.065,-0.075
3860,-0.065,-0.065
3861,-0.075,-0.075
3862,-0.075,-0.085
3863,-0.085,-0.075
3864,-0.065,-0.065
3865,-0.075,-0.065
3866,-0.075,-0.075
3867,-0.075,-0.085
3868,-0.075,-0.065
3869,-0.075,-0.075
3870,-0.065,-0.085
3871,-0.085,-0.085
3872,-0.055,-0.075
3873,-0.055,-0.075
3874,-0.065,-0.075
3875,-0.045,-0.085
3876,-0.065,-0.065
3877,-0.055,-0.065
3878,-0.065,-0.085
3879,-0.055,-0.075
3880,-0.055,-0.065
3881,-0.055,-0.085
3882,-0.055,-0.085
3883,-0.045,-0.075
3884,-0.055,-0.065
3885,-0.045,-0.085
3886,-0.045,-0.075
3887,-0.055,-0.075
3888,-0.045,-0.065
3889,-0.055,-0.075
3890,-0.045,-0.085
3891,-0.025,-0.065
3892,-0.005,-0.045
3893,0.035,-0.005
3894,0.055,0.005
3895,0.065,0.035
3896,0.115,0.045
3897,0.125,0.005
3898,0.105,-0.085
3899,0.095,-0.105
3900,0.065,-0.075
3901,-0.005,-0.095
3902,-0.025,-0.095
3903,-0.075,-0.095
3904,-0.065,-0.105
3905,-0.055,-0.095
3906,-0.065,-0.115
3907,-0.035,-0.095
3908,0.005,-0.005
3909,0.045,-0.005
3910,0.205,-0.225
3911,0.645,-0.305
3912,1.105,-0.485
3913,0.275,-0.625
3914,-0.635,-0.475
3915,-0.565,-0.165
3916,-0.285,-0.065
3917,-0.075,-0.095
3918,-0.055,-0.095
3919,-0.075,-0.085
3920,-0.065,-0.075
3921,-0.075,-0.075
3922,-0.075,-0.075
3923,-0.065,-0.075
3924,-0.055,-0.055
3925,-0.065,-0.065
3926,-0.065,-0.065
3927,-0.055,-0.055
3928,-0.045,-0.045
3929,-0.045,-0.055
3930,-0.035,-0.055
3931,-0.035,-0.055
3932,-0.025,-0.055
3933,-0.025,-0.045
3934,-0.005,-0.065
3935,-0.005,-0.055
3936,0.005,-0.055
3937,0.015,-0.045
3938,0.025,-0.065
3939,0.045,-0.055
3940,0.065,-0.055
3941,0.075,-0.065
3942,0.085,-0.075
3943,0.105,-0.075
3944,0.125,-0.075
3945,0.145,-0.085
3946,0.155,-0.095
3947,0.185,-0.095
3948,0.195,-0.085
3949,0.215,-0.105
3950,0.215,-0.115
3951,0.215,-0.115
3952,0.215,-0.105
3953,0.195,-0.105
3954,0.145,-0.105
3955,0.125,-0.085
3956,0.075,-0.065
3957,0.025,-0.055
3958,-0.015,-0.055
3959,-0.065,-0.055
3960,-0.065,-0.035
3961,-0.085,-0.045
3962,-0.095,-0.055
3963,-0.105,-0.045
3964,-0.105,-0.045
3965,-0.105,-0.045
3966,-0.105,-0.065
3967,-0.115,-0.055
3968,-0.105,-0.045
3969,-0.105,-0.045
3970,-0.095,-0.055
3971,-0.075,-0.045
3972,-0.085,-0.045
3973,-0.085,-0.045
3974,-0.075,-0.055
3975,-0.075,-0.055
3976,-0.075,-0.035
3977,-0.065,-0.045
3978,-0.075,-0.055
3979,-0.065,-0.045
3980,-0.065,-0.045
3981,-0.075,-0.055
3982,-0.075,-0.065
3983,-0.095,-0.065
3984,-0.085,-0.055
3985,-0.095,-0.065
3986,-0.105,-0.065
3987,-0.085,-0.065
3988,-0.095,-0.055
3989,-0.095,-0.065
3990,-0.095,-0.065
3991,-0.115,-0.065
3992,-0.095,-0.055
3993,-0.105,-0.075
3994,-0.095,-0.075
3995,-0.105,-0.065
3996,-0.095,-0.065
3997,-0.115,-0.065
3998,-0.115,-0.075
3999,-0.115,-0.055
4000,-0.115,-0.055
4001,-0.105,-0.065
4002,-0.105,-0.075
4003,-0.105,-0.065
4004,-0.115,-0.065
4005,-0.105,-0.065
4006,-0.115,-0.065
4007,-0.115,-0.065
4008,-0.095,-0.055
4009,-0.105,-0.065
4010,-0.105,-0.075
4011,-0.095,-0.065
4012,-0.105,-0.065
4013,-0.105,-0.065
4014,-0.105,-0.075
4015,-0.115,-0.065
4016,-0.095,-0.055
4017,-0.095,-0.075
4018,-0.105,-0.075
4019,-0.105,-0.065
4020,-0.095,-0.065
4021,-0.105,-0.075
4022,-0.095,-0.075
4023,-0.105,-0.075
4024,-0.095,-0.055
4025,-0.095,-0.065
4026,-0.095,-0.075
4027,-0.085,-0.065
4028,-0.075,-0.045
4029,-0.055,-0.025
4030,-0.005,0.005
4031,-0.015,0.025
4032,0.045,0.035
4033,0.085,0.045
4034,0.085,-0.005
4035,0.065,-0.085
4036,0.045,-0.095
4037,-0.005,-0.085
4038,-0.065,-0.095
4039,-0.105,-0.095
4040,-0.115,-0.095
4041,-0.125,-0.095
4042,-0.125,-0.115
4043,-0.115,-0.105
4044,-0.085,-0.085
4045,-0.035,0.005
4046,0.005,-0.015
4047,0.195,-0.235
4048,0.675,-0.315
4049,1.065,-0.465
4050,0.055,-0.625
4051,-0.725,-0.445
4052,-0.615,-0.165
4053,-0.335,-0.085
4054,-0.105,-0.095
4055,-0.125,-0.085
4056,-0.115,-0.075
4057,-0.125,-0.065
4058,-0.135,-0.085
4059,-0.115,-0.075
4060,-0.115,-0.065
4061,-0.115,-0.065
4062,-0.115,-0.085
4063,-0.125,-0.065
4064,-0.105,-0.055
4065,-0.085,-0.045
4066,-0.105,-0.065
4067,-0.075,-0.065
4068,-0.075,-0.045
4069,-0.075,-0.055
4070,-0.065,-0.065
4071,-0.085,-0.065
4072,-0.055,-0.055
4073,-0.045,-0.045
4074,-0.045,-0.065
4075,-0.015,-0.065
4076,-0.005,-0.065
4077,-0.005,-0.065
4078,0.005,-0.075
4079,0.005,-0.075
4080,0.045,-0.085
4081,0.055,-0.075
4082,0.075,-0.095
4083,0.095,-0.105
4084,0.115,-0.105
4085,0.125,-0.105
4086,0.125,-0.115
4087,0.135,-0.125
4088,0.145,-0.115
4089,0.155,-0.115
4090,0.155,-0.105
4091,0.125,-0.115
4092,0.085,-0.095
4093,0.045,-0.075
4094,-0.015,-0.075
4095,-0.055,-0.065
4096,-0.095,-0.045
4097,-0.115,-0.035
4098,-0.135,-0.045
4099,-0.145,-0.045
4100,-0.155,-0.035
4101,-0.165,-0.045
4102,-0.155,-0.045
4103,-0.175,-0.055
4104,-0.175,-0.045
4105,-0.165,-0.035
4106,-0.155,-0.045
4107,-0.145,-0.055
4108,-0.145,-0.045
4109,-0.145,-0.045
4110,-0.135,-0.045
4111,-0.155,-0.045
4112,-0.125,-0.035
4113,-0.135,-0.045
4114,-0.125,-0.045
4115,-0.115,-0.055
4116,-0.125,-0.055
4117,-0.135,-0.045
4118,-0.135,-0.055
4119,-0.155,-0.055
4120,-0.145,-0.055
4121,-0.155,-0.055
4122,-0.155,-0.065
4123,-0.145,-0.065
4124,-0.155,-0.055
4125,-0.155,-0.055
4126,-0.155,-0.075
4127,-0.175,-0.065
4128,-0.155,-0.055
4129,-0.155,-0.055
4130,-0.175,-0.075
4131,-0.155,-0.055
4132,-0.165,-0.065
4133,-0.165,-0.065
4134,-0.165,-0.075
4135,-0.185,-0.065
4136,-0.175,-0.055
4137,-0.165,-0.065
4138,-0.175,-0.075
4139,-0.165,-0.065
4140,-0.165,-0.065
4141,-0.165,-0.065
4142,-0.175,-0.065
4143,-0.185,-0.075
4144,-0.165,-0.055
4145,-0.165,-0.075
4146,-0.165,-0.075
4147,-0.165,-0.055
4148,-0.165,-0.055
4149,-0.165,-0.065
4150,-0.155,-0.075
4151,-0.175,-0.075
4152,-0.165,-0.055
4153,-0.165,-0.065
4154,-0.155,-0.075
4155,-0.155,-0.055
4156,-0.155,-0.065
4157,-0.155,-0.065
4158,-0.155,-0.065
4159,-0.155,-0.065
4160,-0.155,-0.055
4161,-0.145,-0.075
4162,-0.135,-0.065
4163,-0.115,-0.045
4164,-0.105,-0.025
4165,-0.065,0.005
4166,-0.075,-0.005
4167,-0.035,0.025
4168,0.025,0.045
4169,0.045,-0.005
4170,0.005,-0.085
4171,0.005,-0.085
4172,-0.035,-0.085
4173,-0.105,-0.085
4174,-0.125,-0.085
4175,-0.165,-0.085
4176,-0.155,-0.095
4177,-0.145,-0.095
4178,-0.155,-0.115
4179,-0.135,-0.095
4180,-0.085,-0.015
4181,-0.045,0.015
4182,0.165,-0.205
4183,0.635,-0.295
4184,1.125,-0.405
4185,0.395,-0.515
4186,-0.545,-0.395
4187,-0.735,-0.165
4188,-0.425,-0.055
4189,-0.205,-0.065
4190,-0.135,-0.095
4191,-0.155,-0.075
4192,-0.155,-0.075
4193,-0.155,-0.065
4194,-0.165,-0.085
4195,-0.135,-0.075
4196,-0.145,-0.065
4197,-0.125,-0.065
4198,-0.135,-0.075
4199,-0.155,-0.065
4200,-0.125,-0.065
4201,-0.125,-0.065
4202,-0.135,-0.065
4203,-0.095,-0.065
4204,-0.095,-0.055
4205,-0.105,-0.065
4206,-0.085,-0.075
4207,-0.095,-0.065
4208,-0.065,-0.065
4209,-0.055,-0.075
4210,-0.045,-0.095
4211,-0.035,-0.075
4212,-0.015,-0.075
4213,-0.015,-0.095
4214,0.005,-0.105
4215,0.005,-0.105
4216,0.045,-0.085
4217,0.055,-0.105
4218,0.085,-0.125
4219,0.115,-0.125
4220,0.125,-0.125
4221,0.125,-0.125
4222,0.135,-0.145
4223,0.105,-0.135
4224,0.125,-0.125
4225,0.105,-0.125
4226,0.065,-0.115
4227,0.045,-0.075
4228,-0.015,-0.065
4229,-0.045,-0.055
4230,-0.075,-0.065
4231,-0.105,-0.055
4232,-0.135,-0.045
4233,-0.135,-0.045
4234,-0.155,-0.065
4235,-0.145,-0.035
4236,-0.145,-0.045
4237,-0.145,-0.045
4238,-0.155,-0.055
4239,-0.145,-0.055
4240,-0.145,-0.045
4241,-0.135,-0.055
4242,-0.135,-0.055
4243,-0.125,-0.055
4244,-0.125,-0.045
4245,-0.135,-0.065
4246,-0.115,-0.065
4247,-0.135,-0.065
4248,-0.115,-0.065
4249,-0.125,-0.065
4250,-0.125,-0.075
4251,-0.125,-0.065
4252,-0.125,-0.065
4253,-0.125,-0.065
4254,-0.125,-0.075
4255,-0.135,-0.075
4256,-0.115,-0.065
4257,-0.125,-0.075
4258,-0.135,-0.085
4259,-0.125,-0.065
4260,-0.135,-0.075
4261,-0.145,-0.075
4262,-0.135,-0.095
4263,-0.155,-0.085
4264,-0.145,-0.085
4265,-0.145,-0.085
4266,-0.145,-0.095
4267,-0.115,-0.085
4268,-0.145,-0.085
4269,-0.145,-0.095
4270,-0.125,-0.095
4271,-0.145,-0.095
4272,-0.135,-0.075
4273,-0.135,-0.085
4274,-0.135,-0.105
4275,-0.135,-0.095
4276,-0.135,-0.085
4277,-0.135,-0.095
4278,-0.125,-0.105
4279,-0.145,-0.105
4280,-0.125,-0.085
4281,-0.125,-0.095
4282,-0.135,-0.105
4283,-0.125,-0.095
4284,-0.115,-0.095
4285,-0.125,-0.095
4286,-0.115,-0.095
4287,-0.115,-0.095
4288,-0.105,-0.085
4289,-0.115,-0.105
4290,-0.115,-0.105
4291,-0.095,-0.095
4292,-0.105,-0.095
4293,-0.105,-0.095
4294,-0.105,-0.105
4295,-0.105,-0.105
4296,-0.105,-0.095
4297,-0.085,-0.075
4298,-0.065,-0.075
4299,-0.005,-0.025
4300,-0.015,-0.015
4301,0.015,-0.015
4302,0.075,-0.005
4303,0.065,-0.065
4304,0.055,-0.105
4305,0.035,-0.115
4306,-0.025,-0.125
4307,-0.065,-0.115
4308,-0.085,-0.115
4309,-0.115,-0.125
4310,-0.115,-0.145
4311,-0.115,-0.135
4312,-0.095,-0.115
4313,-0.055,-0.065
4314,-0.005,0.015
4315,0.045,-0.145
4316,0.585,-0.315
4317,1.105,-0.455
4318,0.705,-0.595
4319,-0.445,-0.565
4320,-0.725,-0.255
4321,-0.435,-0.105
4322,-0.165,-0.105
4323,-0.085,-0.115
4324,-0.085,-0.105
4325,-0.105,-0.115
4326,-0.105,-0.115
4327,-0.105,-0.105
4328,-0.095,-0.095
4329,-0.085,-0.105
4330,-0.085,-0.115
4331,-0.075,-0.095
4332,-0.075,-0.085
4333,-0.075,-0.095
4334,-0.065,-0.095
4335,-0.065,-0.095
4336,-0.045,-0.085
4337,-0.045,-0.085
4338,-0.035,-0.095
4339,-0.025,-0.085
4340,-0.015,-0.085
4341,-0.015,-0.085
4342,-0.005,-0.095
4343,-0.005,-0.105
4344,0.025,-0.085
4345,0.035,-0.085
4346,0.045,-0.105
4347,0.065,-0.105
4348,0.085,-0.105
4349,0.105,-0.105
4350,0.135,-0.125
4351,0.135,-0.125
4352,0.165,-0.115
4353,0.185,-0.135
4354,0.185,-0.135
4355,0.215,-0.145
4356,0.205,-0.135
4357,0.205,-0.145
4358,0.195,-0.155
4359,0.165,-0.125
4360,0.135,-0.115
4361,0.095,-0.105
4362,0.035,-0.095
4363,0.005,-0.075
4364,-0.035,-0.065
4365,-0.075,-0.075
4366,-0.085,-0.075
4367,-0.115,-0.085
4368,-0.095,-0.065
4369,-0.115,-0.075
4370,-0.125,-0.075
4371,-0.115,-0.075
4372,-0.105,-0.065
4373,-0.105,-0.075
4374,-0.095,-0.085
4375,-0.105,-0.075
4376,-0.085,-0.065
4377,-0.085,-0.065
4378,-0.085,-0.085
4379,-0.065,-0.065
4380,-0.065,-0.075
4381,-0.065,-0.075
4382,-0.065,-0.075
4383,-0.075,-0.075
4384,-0.065,-0.075
4385,-0.065,-0.075
4386,-0.075,-0.085
4387,-0.065,-0.075
4388,-0.075,-0.065
4389,-0.075,-0.075
4390,-0.075,-0.085
4391,-0.085,-0.085
4392,-0.085,-0.075
4393,-0.085,-0.075
4394,-0.095,-0.085
4395,-0.085,-0.075
4396,-0.085,-0.075
4397,-0.085,-0.085
4398,-0.095,-0.085
4399,-0.115,-0.105
4400,-0.085,-0.075
4401,-0.105,-0.085
4402,-0.085,-0.095
4403,-0.085,-0.085
4404,-0.075,-0.075
4405,-0.095,-0.075
4406,-0.095,-0.095
4407,-0.105,-0.085
4408,-0.095,-0.075
4409,-0.085,-0.075
4410,-0.085,-0.085
4411,-0.075,-0.085
4412,-0.085,-0.075
4413,-0.085,-0.085
4414,-0.085,-0.095
4415,-0.095,-0.085
4416,-0.075,-0.075
4417,-0.085,-0.075
4418,-0.095,-0.085
4419,-0.065,-0.085
4420,-0.075,-0.075
4421,-0.075,-0.075
4422,-0.085,-0.095
4423,-0.085,-0.085
4424,-0.075,-0.075
4425,-0.065,-0.075
4426,-0.075,-0.085
4427,-0.065,-0.075
4428,-0.065,-0.065
4429,-0.065,-0.075
4430,-0.055,-0.085
4431,-0.065,-0.075
4432,-0.005,-0.025
4433,0.025,0.025
4434,0.015,0.015
4435,0.075,0.025
4436,0.125,0.025
4437,0.105,-0.055
4438,0.105,-0.115
4439,0.075,-0.095
4440,0.035,-0.095
4441,-0.035,-0.105
4442,-0.075,-0.105
4443,-0.085,-0.105
4444,-0.085,-0.105
4445,-0.075,-0.105
4446,-0.065,-0.115
4447,-0.025,-0.025
4448,0.035,0.035
4449,0.135,-0.185
4450,0.625,-0.315
4451,1.155,-0.455
4452,0.465,-0.585
4453,-0.585,-0.555
4454,-0.675,-0.245
4455,-0.375,-0.085
4456,-0.105,-0.085
4457,-0.055,-0.085
4458,-0.075,-0.085
4459,-0.075,-0.075
4460,-0.085,-0.065
4461,-0.075,-0.065
4462,-0.065,-0.075
4463,-0.065,-0.065
4464,-0.075,-0.055
4465,-0.065,-0.055
4466,-0.065,-0.065
4467,-0.055,-0.055
4468,-0.045,-0.045
4469,-0.045,-0.055
4470,-0.035,-0.065
4471,-0.035,-0.055
4472,-0.015,-0.035
4473,-0.015,-0.055
4474,-0.005,-0.065
4475,0.005,-0.055
4476,0.015,-0.055
4477,0.025,-0.055
4478,0.045,-0.075
4479,0.045,-0.055
4480,0.065,-0.065
4481,0.095,-0.065
4482,0.095,-0.085
4483,0.135,-0.075
4484,0.145,-0.075
4485,0.165,-0.095
4486,0.185,-0.105
4487,0.195,-0.105
4488,0.215,-0.095
4489,0.235,-0.095
4490,0.225,-0.115
4491,0.225,-0.115
4492,0.215,-0.095
4493,0.185,-0.105
4494,0.145,-0.095
4495,0.095,-0.075
4496,0.055,-0.045
4497,0.005,-0.045
4498,-0.035,-0.055
4499,-0.045,-0.035
4500,-0.065,-0.035
4501,-0.085,-0.035
4502,-0.085,-0.045
4503,-0.115,-0.045
4504,-0.095,-0.035
4505,-0.095,-0.035
4506,-0.105,-0.045
4507,-0.095,-0.045
4508,-0.085,-0.035
4509,-0.085,-0.035
4510,-0.075,-0.045
4511,-0.085,-0.045
4512,-0.055,-0.035
4513,-0.065,-0.035
4514,-0.075,-0.045
4515,-0.045,-0.035
4516,-0.055,-0.025
4517,-0.065,-0.035
4518,-0.045,-0.045
4519,-0.065,-0.045
4520,-0.055,-0.025
4521,-0.055,-0.045
4522,-0.065,-0.055
4523,-0.055,-0.045
4524,-0.065,-0.045
4525,-0.075,-0.045
4526,-0.075,-0.055
4527,-0.095,-0.055
4528,-0.075,-0.045
4529,-0.085,-0.045
4530,-0.075,-0.045
4531,-0.075,-0.065
4532,-0.085,-0.045
4533,-0.085,-0.045
4534,-0.085,-0.045
4535,-0.105,-0.055
4536,-0.085,-0.045
4537,-0.085,-0.045
4538,-0.085,-0.045
4539,-0.065,-0.055
4540,-0.085,-0.045
4541,-0.075,-0.045
4542,-0.085,-0.055
4543,-0.095,-0.055
4544,-0.085,-0.045
4545,-0.075,-0.045
4546,-0.095,-0.055
4547,-0.065,-0.055
4548,-0.075,-0.045
4549,-0.075,-0.045
4550,-0.085,-0.055
4551,-0.085,-0.045
4552,-0.075,-0.035
4553,-0.075,-0.045
4554,-0.085,-0.045
4555,-0.075,-0.045
4556,-0.075,-0.035
4557,-0.075,-0.045
4558,-0.075,-0.055
4559,-0.085,-0.045
4560,-0.055,-0.025
4561,-0.065,-0.045
4562,-0.065,-0.055
4563,-0.065,-0.045
4564,-0.055,-0.045
4565,-0.075,-0.035
4566,-0.015,-0.035
4567,0.005,0.015
4568,0.025,0.055
4569,0.055,0.045
4570,0.095,0.045
4571,0.125,0.025
4572,0.095,-0.045
4573,0.085,-0.055
4574,0.045,-0.075
4575,-0.005,-0.075
4576,-0.045,-0.065
4577,-0.095,-0.075
4578,-0.085,-0.075
4579,-0.085,-0.065
4580,-0.085,-0.055
4581,-0.055,-0.035
4582,0.005,0.045
4583,0.035,-0.045
4584,0.405,-0.225
4585,0.885,-0.275
4586,0.845,-0.425
4587,-0.245,-0.545
4588,-0.735,-0.305
4589,-0.505,-0.115
4590,-0.235,-0.085
4591,-0.095,-0.065
4592,-0.085,-0.045
4593,-0.105,-0.045
4594,-0.115,-0.065
4595,-0.105,-0.045
4596,-0.095,-0.035
4597,-0.105,-0.035
4598,-0.085,-0.045
4599,-0.105,-0.045
4600,-0.085,-0.025
4601,-0.095,-0.035
4602,-0.085,-0.045
4603,-0.085,-0.035
4604,-0.055,-0.025
4605,-0.055,-0.025
4606,-0.055,-0.035
4607,-0.065,-0.025
4608,-0.045,-0.025
4609,-0.035,-0.025
4610,-0.035,-0.045
4611,-0.015,-0.035
4612,0.005,-0.035
4613,0.005,-0.045
4614,0.025,-0.055
4615,0.035,-0.055
4616,0.055,-0.045
4617,0.075,-0.055
4618,0.085,-0.075
4619,0.115,-0.065
4620,0.135,-0.065
4621,0.135,-0.085
4622,0.175,-0.095
4623,0.175,-0.095
4624,0.185,-0.095
4625,0.185,-0.095
4626,0.175,-0.105
4627,0.165,-0.095
4628,0.115,-0.065
4629,0.075,-0.065
4630,0.025,-0.055
4631,-0.025,-0.035
4632,-0.005,-0.025
4633,-0.055,-0.015
4634,-0.075,-0.025
4635,-0.095,-0.005
4636,-0.105,-0.015
4637,-0.115,-0.015
4638,-0.115,-0.035
4639,-0.125,-0.025
4640,-0.105,-0.015
4641,-0.115,-0.025
4642,-0.115,-0.025
4643,-0.105,-0.025
4644,-0.095,-0.015
4645,-0.105,-0.025
4646,-0.105,-0.025
4647,-0.095,-0.015
4648,-0.085,-0.015
4649,-0.075,-0.025
4650,-0.075,-0.025
4651,-0.065,-0.015
4652,-0.095,-0.025
4653,-0.085,-0.025
4654,-0.105,-0.035
4655,-0.105,-0.035
4656,-0.095,-0.015
4657,-0.105,-0.035
4658,-0.095,-0.035
4659,-0.105,-0.035
4660,-0.115,-0.035
4661,-0.105,-0.035
4662,-0.125,-0.045
4663,-0.135,-0.035
4664,-0.115,-0.035
4665,-0.125,-0.045
4666,-0.125,-0.045
4667,-0.125,-0.035
4668,-0.125,-0.035
4669,-0.125,-0.045
4670,-0.125,-0.045
4671,-0.135,-0.035
4672,-0.125,-0.035
4673,-0.135,-0.045
4674,-0.135,-0.055
4675,-0.125,-0.045
4676,-0.125,-0.045
4677,-0.125,-0.035
4678,-0.125,-0.055
4679,-0.145,-0.045
4680,-0.135,-0.035
4681,-0.125,-0.045
4682,-0.135,-0.055
4683,-0.125,-0.045
4684,-0.125,-0.045
4685,-0.125,-0.045
4686,-0.125,-0.055
4687,-0.145,-0.045
4688,-0.135,-0.045
4689,-0.125,-0.035
4690,-0.125,-0.055
4691,-0.115,-0.055
4692,-0.115,-0.035
4693,-0.125,-0.045
4694,-0.115,-0.055
4695,-0.125,-0.055
4696,-0.105,-0.035
4697,-0.125,-0.045
4698,-0.095,-0.055
4699,-0.045,0.005
4700,-0.035,0.025
4701,-0.025,0.025
4702,0.045,0.025
4703,0.065,0.005
4704,0.045,-0.055
4705,0.055,-0.055
4706,0.005,-0.075
4707,-0.025,-0.095
4708,-0.065,-0.075
4709,-0.125,-0.075
4710,-0.125,-0.085
4711,-0.135,-0.085
4712,-0.125,-0.065
4713,-0.105,-0.065
4714,-0.045,0.005
4715,-0.015,0.015
4716,0.275,-0.185
4717,0.745,-0.275
4718,1.135,-0.405
4719,0.185,-0.495
4720,-0.645,-0.305
4721,-0.635,-0.095
4722,-0.355,-0.055
4723,-0.155,-0.065
4724,-0.115,-0.055
4725,-0.135,-0.065
4726,-0.135,-0.065
4727,-0.145,-0.065
4728,-0.125,-0.045
4729,-0.135,-0.065
4730,-0.115,-0.055
4731,-0.105,-0.065
4732,-0.115,-0.045
4733,-0.115,-0.045
4734,-0.115,-0.065
4735,-0.115,-0.055
4736,-0.095,-0.045
4737,-0.095,-0.045
4738,-0.095,-0.065
4739,-0.065,-0.055
4740,-0.055,-0.045
4741,-0.055,-0.055
4742,-0.045,-0.075
4743,-0.055,-0.065
4744,-0.025,-0.065
4745,-0.005,-0.075
4746,-0.015,-0.075
4747,0.025,-0.075
4748,0.035,-0.085
4749,0.055,-0.075
4750,0.075,-0.105
4751,0.075,-0.105
4752,0.115,-0.105
4753,0.135,-0.105
4754,0.125,-0.125
4755,0.155,-0.135
4756,0.165,-0.125
4757,0.155,-0.125
4758,0.145,-0.135
4759,0.125,-0.125
4760,0.115,-0.095
4761,0.055,-0.075
4762,0.005,-0.065
4763,-0.025,-0.055
4764,-0.055,-0.035
4765,-0.095,-0.045
4766,-0.115,-0.055
4767,-0.125,-0.045
4768,-0.125,-0.035
4769,-0.125,-0.035
4770,-0.135,-0.055
4771,-0.125,-0.045
4772,-0.135,-0.045
4773,-0.125,-0.045
4774,-0.135,-0.055
4775,-0.115,-0.045
4776,-0.105,-0.045
4777,-0.105,-0.045
4778,-0.105,-0.055
4779,-0.105,-0.055
4780,-0.105,-0.055
4781,-0.095,-0.055
4782,-0.115,-0.065
4783,-0.095,-0.055
4784,-0.095,-0.065
4785,-0.095,-0.065
4786,-0.095,-0.065
4787,-0.095,-0.065
4788,-0.095,-0.065
4789,-0.105,-0.055
4790,-0.125,-0.075
4791,-0.125,-0.065
4792,-0.115,-0.065
4793,-0.115,-0.075
4794,-0.115,-0.085
4795,-0.125,-0.075
4796,-0.125,-0.065
4797,-0.125,-0.075
4798,-0.125,-0.095
4799,-0.135,-0.085
4800,-0.115,-0.075
4801,-0.125,-0.085
4802,-0.125,-0.095
4803,-0.115,-0.085
4804,-0.115,-0.085
4805,-0.125,-0.075
4806,-0.125,-0.085
4807,-0.125,-0.085
4808,-0.125,-0.075
4809,-0.115,-0.085
4810,-0.115,-0.095
4811,-0.105,-0.075
4812,-0.115,-0.085
4813,-0.115,-0.085
4814,-0.115,-0.085
4815,-0.115,-0.095
4816,-0.105,-0.075
4817,-0.105,-0.075
4818,-0.115,-0.085
4819,-0.105,-0.075
4820,-0.095,-0.085
4821,-0.105,-0.085
4822,-0.095,-0.095
4823,-0.115,-0.085
4824,-0.085,-0.075
4825,-0.095,-0.085
4826,-0.095,-0.095
4827,-0.085,-0.085
4828,-0.075,-0.075
4829,-0.085,-0.075
4830,-0.075,-0.085
4831,-0.035,-0.055
4832,0.005,-0.015
4833,0.005,0.005
4834,0.055,-0.005
4835,0.095,-0.005
4836,0.085,-0.075
4837,0.075,-0.105
4838,0.055,-0.105
4839,0.015,-0.115
4840,-0.025,-0.115
4841,-0.065,-0.115
4842,-0.095,-0.125
4843,-0.085,-0.115
4844,-0.105,-0.105
4845,-0.075,-0.115
4846,-0.035,-0.055
4847,-0.005,0.015
4848,0.125,-0.175
4849,0.645,-0.305
4850,1.155,-0.455
4851,0.515,-0.575
4852,-0.565,-0.515
4853,-0.695,-0.235
4854,-0.395,-0.105
4855,-0.135,-0.085
4856,-0.085,-0.085
4857,-0.105,-0.105
4858,-0.095,-0.095
4859,-0.105,-0.095
4860,-0.085,-0.085
4861,-0.095,-0.085
4862,-0.095,-0.085
4863,-0.095,-0.075
4864,-0.085,-0.075
4865,-0.085,-0.075
4866,-0.065,-0.085
4867,-0.055,-0.075
4868,-0.055,-0.065
4869,-0.055,-0.075
4870,-0.055,-0.075
4871,-0.035,-0.065
4872,-0.025,-0.065
4873,-0.015,-0.075
4874,-0.015,-0.085
4875,0.005,-0.075
4876,0.015,-0.065
4877,0.025,-0.075
4878,0.035,-0.085
4879,0.065,-0.075
4880,0.085,-0.085
4881,0.095,-0.095
4882,0.105,-0.095
4883,0.145,-0.095
4884,0.155,-0.095
4885,0.175,-0.115
4886,0.205,-0.115
4887,0.195,-0.115
4888,0.225,-0.125
4889,0.215,-0.135
4890,0.215,-0.125
4891,0.195,-0.115
4892,0.185,-0.105
4893,0.135,-0.095
4894,0.095,-0.095
4895,0.035,-0.075
4896,0.005,-0.055
4897,-0.035,-0.055
4898,-0.065,-0.065
4899,-0.085,-0.055
4900,-0.085,-0.055
4901,-0.105,-0.055
4902,-0.105,-0.065
4903,-0.115,-0.055
4904,-0.105,-0.055
4905,-0.105,-0.055
4906,-0.115,-0.065
4907,-0.085,-0.055
4908,-0.095,-0.055
4909,-0.075,-0.055
4910,-0.075,-0.065
4911,-0.075,-0.065
4912,-0.075,-0.045
4913,-0.065,-0.055
4914,-0.075,-0.065
4915,-0.065,-0.055
4916,-0.065,-0.045
4917,-0.065,-0.055
4918,-0.065,-0.075
4919,-0.075,-0.055
4920,-0.065,-0.055
4921,-0.075,-0.065
4922,-0.085,-0.075
4923,-0.075,-0.065
4924,-0.075,-0.065
4925,-0.085,-0.065
4926,-0.085,-0.075
4927,-0.105,-0.075
4928,-0.085,-0.065
4929,-0.095,-0.065
4930,-0.105,-0.085
4931,-0.085,-0.075
4932,-0.095,-0.075
4933,-0.095,-0.065
4934,-0.105,-0.085
4935,-0.105,-0.075
4936,-0.105,-0.065
4937,-0.095,-0.075
4938,-0.115,-0.085
4939,-0.085,-0.075
4940,-0.095,-0.065
4941,-0.105,-0.085
4942,-0.095,-0.075
4943,-0.105,-0.075
4944,-0.095,-0.075
4945,-0.105,-0.085
4946,-0.105,-0.085
4947,-0.105,-0.075
4948,-0.095,-0.065
4949,-0.095,-0.075
4950,-0.095,-0.085
4951,-0.115,-0.075
4952,-0.095,-0.055
4953,-0.105,-0.075
4954,-0.095,-0.075
4955,-0.095,-0.075
4956,-0.085,-0.065
4957,-0.095,-0.075
4958,-0.085,-0.075
4959,-0.105,-0.075
4960,-0.085,-0.065
4961,-0.095,-0.065
4962,-0.085,-0.075
4963,-0.095,-0.065
4964,-0.085,-0.065
4965,-0.085,-0.065
4966,-0.095,-0.065
4967,-0.045,-0.045
4968,-0.005,0.015
4969,-0.005,0.005
4970,0.065,0.015
4971,0.095,0.025
4972,0.085,-0.045
4973,0.065,-0.095
4974,0.035,-0.095
4975,0.015,-0.085
4976,-0.025,-0.095
4977,-0.075,-0.095
4978,-0.115,-0.105
4979,-0.105,-0.095
4980,-0.105,-0.085
4981,-0.105,-0.095
4982,-0.065,-0.045
4983,-0.005,0.035
4984,0.075,-0.135
4985,0.555,-0.275
4986,1.085,-0.405
4987,0.465,-0.555
4988,-0.555,-0.565
4989,-0.735,-0.275
4990,-0.435,-0.105
4991,-0.175,-0.085
4992,-0.085,-0.075
4993,-0.115,-0.075
4994,-0.115,-0.075
4995,-0.115,-0.065
4996,-0.115,-0.055
4997,-0.115,-0.065
4998,-0.115,-0.065
4999,-0.115,-0.055
5000,-0.105,-0.055
5001,-0.105,-0.045
5002,-0.105,-0.065
5003,-0.085,-0.055
5004,-0.085,-0.045
5005,-0.075,-0.045
5006,-0.085,-0.065
5007,-0.075,-0.055
5008,-0.055,-0.045
5009,-0.045,-0.045
5010,-0.045,-0.065
5011,-0.025,-0.055
5012,-0.015,-0.055
5013,-0.005,-0.055
5014,-0.005,-0.065
5015,0.015,-0.065
5016,0.045,-0.055
5017,0.055,-0.075
5018,0.075,-0.085
5019,0.095,-0.085
5020,0.115,-0.085
5021,0.135,-0.095
5022,0.155,-0.115
5023,0.165,-0.105
5024,0.175,-0.105
5025,0.165,-0.105
5026,0.165,-0.115
5027,0.165,-0.105
5028,0.145,-0.105
5029,0.095,-0.085
5030,0.045,-0.085
5031,0.005,-0.065
5032,-0.035,-0.045
5033,-0.075,-0.055
5034,-0.115,-0.055
5035,-0.115,-0.045
5036,-0.135,-0.045
5037,-0.145,-0.045
5038,-0.155,-0.065
5039,-0.165,-0.045
5040,-0.165,-0.045
5041,-0.155,-0.045
5042,-0.155,-0.045
5043,-0.145,-0.045
5044,-0.135,-0.045
5045,-0.145,-0.045
5046,-0.125,-0.055
5047,-0.125,-0.045
5048,-0.115,-0.035
5049,-0.115,-0.045
5050,-0.125,-0.055
5051,-0.105,-0.045
5052,-0.105,-0.045
5053,-0.115,-0.055
5054,-0.115,-0.065
5055,-0.125,-0.045
5056,-0.115,-0.045
5057,-0.125,-0.045
5058,-0.135,-0.055
5059,-0.115,-0.045
5060,-0.135,-0.055
5061,-0.135,-0.055
5062,-0.145,-0.065
5063,-0.145,-0.055
5064,-0.145,-0.065
5065,-0.135,-0.065
5066,-0.145,-0.075
5067,-0.135,-0.055
5068,-0.155,-0.065
5069,-0.145,-0.065
5070,-0.165,-0.075
5071,-0.155,-0.065
5072,-0.145,-0.055
5073,-0.145,-0.055
5074,-0.145,-0.065
5075,-0.145,-0.065
5076,-0.145,-0.055
5077,-0.145,-0.065
5078,-0.155,-0.075
5079,-0.145,-0.055
5080,-0.145,-0.055
5081,-0.145,-0.065
5082,-0.135,-0.065
5083,-0.135,-0.065
5084,-0.145,-0.055
5085,-0.145,-0.055
5086,-0.155,-0.065
5087,-0.145,-0.065
5088,-0.145,-0.065
5089,-0.135,-0.065
5090,-0.115,-0.065
5091,-0.145,-0.055
5092,-0.135,-0.055
5093,-0.135,-0.055
5094,-0.155,-0.075
5095,-0.135,-0.055
5096,-0.125,-0.065
5097,-0.135,-0.055
5098,-0.115,-0.065
5099,-0.125,-0.065
5100,-0.125,-0.055
5101,-0.125,-0.065
5102,-0.145,-0.065
5103,-0.125,-0.055
5104,-0.115,-0.045
5105,-0.085,-0.055
5106,-0.035,-0.015
5107,-0.025,0.025
5108,-0.025,0.025
5109,0.055,0.025
5110,0.045,0.005
5111,0.035,-0.065
5112,0.035,-0.085
5113,0.025,-0.075
5114,-0.015,-0.095
5115,-0.075,-0.085
5116,-0.125,-0.075
5117,-0.145,-0.095
5118,-0.145,-0.095
5119,-0.135,-0.095
5120,-0.115,-0.085
5121,-0.075,-0.015
5122,-0.015,0.005
5123,0.145,-0.195
5124,0.605,-0.275
5125,1.055,-0.395
5126,0.225,-0.545
5127,-0.675,-0.485
5128,-0.705,-0.205
5129,-0.415,-0.095
5130,-0.185,-0.095
5131,-0.125,-0.075
5132,-0.125,-0.065
5133,-0.135,-0.065
5134,-0.145,-0.075
5135,-0.145,-0.065
5136,-0.125,-0.055
5137,-0.135,-0.065
5138,-0.145,-0.065
5139,-0.115,-0.045
5140,-0.115,-0.035
5141,-0.115,-0.045
5142,-0.115,-0.055
5143,-0.115,-0.055
5144,-0.095,-0.035
5145,-0.095,-0.045
5146,-0.075,-0.055
5147,-0.075,-0.045
5148,-0.065,-0.045
5149,-0.065,-0.045
5150,-0.045,-0.065
5151,-0.045,-0.065
5152,-0.015,-0.055
5153,-0.015,-0.055
5154,0.015,-0.075
5155,0.025,-0.065
5156,0.055,-0.075
5157,0.065,-0.065
5158,0.065,-0.105
5159,0.095,-0.095
5160,0.115,-0.095
5161,0.145,-0.095
5162,0.155,-0.115
5163,0.165,-0.115
5164,0.165,-0.105
5165,0.165,-0.115
5166,0.135,-0.115
5167,0.115,-0.105
5168,0.075,-0.085
5169,0.035,-0.065
5170,-0.005,-0.055
5171,-0.035,-0.045
5172,-0.085,-0.035
5173,-0.105,-0.035
5174,-0.125,-0.045
5175,-0.145,-0.035
5176,-0.135,-0.025
5177,-0.155,-0.035
5178,-0.145,-0.055
5179,-0.165,-0.045
5180,-0.145,-0.035
5181,-0.145,-0.035
5182,-0.145,-0.045
5183,-0.145,-0.045
5184,-0.135,-0.035
5185,-0.125,-0.025
5186,-0.125,-0.045
5187,-0.115,-0.045
5188,-0.115,-0.025
5189,-0.115,-0.035
5190,-0.115,-0.045
5191,-0.105,-0.035
5192,-0.115,-0.035
5193,-0.105,-0.035
5194,-0.115,-0.055
5195,-0.115,-0.035
5196,-0.125,-0.035
5197,-0.125,-0.045
5198,-0.135,-0.065
5199,-0.145,-0.055
5200,-0.125,-0.045
5201,-0.125,-0.045
5202,-0.135,-0.065
5203,-0.135,-0.055
5204,-0.135,-0.055
5205,-0.135,-0.045
5206,-0.155,-0.055
5207,-0.145,-0.055
5208,-0.135,-0.045
5209,-0.145,-0.055
5210,-0.135,-0.055
5211,-0.145,-0.055
5212,-0.135,-0.045
5213,-0.145,-0.065
5214,-0.155,-0.065
5215,-0.155,-0.055
5216,-0.145,-0.045
5217,-0.145,-0.055
5218,-0.145,-0.065
5219,-0.145,-0.045
5220,-0.145,-0.055
5221,-0.135,-0.045
5222,-0.155,-0.065
5223,-0.155,-0.065
5224,-0.135,-0.055
5225,-0.135,-0.055
5226,-0.135,-0.075
5227,-0.125,-0.055
5228,-0.145,-0.045
5229,-0.145,-0.065
5230,-0.155,-0.065
5231,-0.125,-0.055
5232,-0.125,-0.045
5233,-0.125,-0.055
5234,-0.135,-0.065
5235,-0.115,-0.055
5236,-0.115,-0.055
5237,-0.115,-0.055
5238,-0.125,-0.065
5239,-0.085,-0.055
5240,-0.055,0.005
5241,-0.055,0.025
5242,-0.005,0.005
5243,0.045,0.025
5244,0.065,-0.005
5245,0.025,-0.075
5246,0.055,-0.075
5247,-0.005,-0.085
5248,-0.025,-0.095
5249,-0.085,-0.095
5250,-0.125,-0.095
5251,-0.125,-0.085
5252,-0.125,-0.075
5253,-0.125,-0.085
5254,-0.095,-0.085
5255,-0.055,0.005
5256,-0.025,0.015
5257,0.285,-0.185
5258,0.715,-0.295
5259,1.165,-0.385
5260,0.215,-0.505
5261,-0.645,-0.345
5262,-0.655,-0.125
5263,-0.365,-0.055
5264,-0.155,-0.065
5265,-0.125,-0.075
5266,-0.145,-0.075
5267,-0.135,-0.065
5268,-0.135,-0.065
5269,-0.135,-0.065
5270,-0.115,-0.065
5271,-0.135,-0.075
5272,-0.115,-0.055
5273,-0.115,-0.055
5274,-0.115,-0.065
5275,-0.105,-0.055
5276,-0.095,-0.055
5277,-0.095,-0.055
5278,-0.085,-0.065
5279,-0.095,-0.065
5280,-0.065,-0.055
5281,-0.065,-0.065
5282,-0.075,-0.065
5283,-0.045,-0.065
5284,-0.035,-0.065
5285,-0.025,-0.065
5286,-0.015,-0.085
5287,-0.015,-0.085
5288,0.015,-0.085
5289,0.035,-0.085
5290,0.045,-0.105
5291,0.085,-0.105
5292,0.095,-0.095
5293,0.115,-0.115
5294,0.125,-0.125
5295,0.135,-0.135
5296,0.155,-0.125
5297,0.165,-0.135
5298,0.155,-0.135
5299,0.155,-0.135
5300,0.135,-0.125
5301,0.095,-0.105
5302,0.065,-0.095
5303,0.005,-0.085
5304,-0.025,-0.065
5305,-0.055,-0.065
5306,-0.085,-0.065
5307,-0.105,-0.055
5308,-0.115,-0.045
5309,-0.135,-0.045
5310,-0.135,-0.055
5311,-0.145,-0.055
5312,-0.125,-0.045
5313,-0.125,-0.045
5314,-0.135,-0.065
5315,-0.115,-0.055
5316,-0.115,-0.055
5317,-0.115,-0.065
5318,-0.105,-0.065
5319,-0.105,-0.055
5320,-0.105,-0.055
5321,-0.105,-0.065
5322,-0.105,-0.075
5323,-0.095,-0.065
5324,-0.095,-0.055
5325,-0.095,-0.065
5326,-0.095,-0.075
5327,-0.095,-0.065
5328,-0.105,-0.065
5329,-0.105,-0.075
5330,-0.115,-0.085
5331,-0.095,-0.075
5332,-0.115,-0.065
5333,-0.115,-0.075
5334,-0.115,-0.085
5335,-0.125,-0.085
5336,-0.115,-0.065
5337,-0.115,-0.085
5338,-0.125,-0.095
5339,-0.125,-0.085
5340,-0.115,-0.075
5341,-0.125,-0.085
5342,-0.125,-0.095
5343,-0.135,-0.095
5344,-0.105,-0.085
5345,-0.115,-0.085
5346,-0.115,-0.095
5347,-0.115,-0.085
5348,-0.115,-0.075
5349,-0.115,-0.085
5350,-0.125,-0.105
5351,-0.125,-0.085
5352,-0.115,-0.075
5353,-0.105,-0.085
5354,-0.115,-0.095
5355,-0.115,-0.085
5356,-0.115,-0.085
5357,-0.105,-0.095
5358,-0.135,-0.095
5359,-0.115,-0.085
5360,-0.105,-0.075
5361,-0.105,-0.085
5362,-0.105,-0.095
5363,-0.095,-0.085
5364,-0.105,-0.085
5365,-0.095,-0.085
5366,-0.125,-0.095
5367,-0.095,-0.085
5368,-0.095,-0.085
5369,-0.095,-0.085
5370,-0.085,-0.095
5371,-0.095,-0.085
5372,-0.095,-0.075
5373,-0.085,-0.075
5374,-0.065,-0.075
5375,-0.015,-0.015
5376,-0.005,0.005
5377,0.035,-0.005
5378,0.095,-0.005
5379,0.095,-0.055
5380,0.065,-0.095
5381,0.065,-0.095
5382,0.025,-0.115
5383,-0.005,-0.125
5384,-0.055,-0.105
5385,-0.085,-0.115
5386,-0.105,-0.125
5387,-0.105,-0.105
5388,-0.105,-0.115
5389,-0.045,-0.075
5390,-0.015,0.005
5391,0.025,-0.095
5392,0.435,-0.275
5393,0.915,-0.375
5394,0.935,-0.525
5395,-0.145,-0.645
5396,-0.755,-0.375
5397,-0.535,-0.155
5398,-0.245,-0.095
5399,-0.095,-0.105
5400,-0.095,-0.085
5401,-0.105,-0.105
5402,-0.095,-0.095
5403,-0.105,-0.095
5404,-0.095,-0.075
5405,-0.095,-0.085
5406,-0.095,-0.095
5407,-0.105,-0.085
5408,-0.085,-0.075
5409,-0.075,-0.075
5410,-0.085,-0.075
5411,-0.065,-0.065
5412,-0.055,-0.065
5413,-0.045,-0.065
5414,-0.045,-0.085
5415,-0.045,-0.065
5416,-0.025,-0.065
5417,-0.015,-0.065
5418,-0.025,-0.085
5419,0.005,-0.075
5420,0.025,-0.055
5421,0.035,-0.075
5422,0.045,-0.085
5423,0.065,-0.075
5424,0.075,-0.085
5425,0.105,-0.075
5426,0.115,-0.095
5427,0.145,-0.105
5428,0.165,-0.095
5429,0.175,-0.115
5430,0.205,-0.115
5431,0.205,-0.125
5432,0.225,-0.115
5433,0.225,-0.135
5434,0.215,-0.125
5435,0.185,-0.115
5436,0.155,-0.095
5437,0.105,-0.085
5438,0.045,-0.085
5439,0.005,-0.065
5440,-0.025,-0.055
5441,-0.055,-0.055
5442,-0.075,-0.065
5443,-0.085,-0.055
5444,-0.105,-0.045
5445,-0.105,-0.055
5446,-0.125,-0.055
5447,-0.125,-0.055
5448,-0.115,-0.045
5449,-0.105,-0.055
5450,-0.095,-0.065
5451,-0.085,-0.045
5452,-0.095,-0.055
5453,-0.075,-0.055
5454,-0.095,-0.055
5455,-0.085,-0.055
5456,-0.065,-0.045
5457,-0.065,-0.055
5458,-0.055,-0.055
5459,-0.055,-0.055
5460,-0.065,-0.045
5461,-0.055,-0.055
5462,-0.085,-0.055
5463,-0.065,-0.055
5464,-0.065,-0.045
5465,-0.075,-0.055
5466,-0.065,-0.055
5467,-0.075,-0.055
5468,-0.075,-0.055
5469,-0.085,-0.065
5470,-0.095,-0.065
5471,-0.085,-0.055
5472,-0.085,-0.055
5473,-0.085,-0.055
5474,-0.085,-0.065
5475,-0.085,-0.065
5476,-0.085,-0.055
5477,-0.085,-0.065
5478,-0.105,-0.065
5479,-0.095,-0.055
5480,-0.095,-0.055
5481,-0.095,-0.055
5482,-0.085,-0.075
5483,-0.085,-0.055
5484,-0.095,-0.055
5485,-0.095,-0.065
5486,-0.105,-0.065
5487,-0.095,-0.065
5488,-0.085,-0.055
5489,-0.085,-0.065
5490,-0.085,-0.065
5491,-0.085,-0.055
5492,-0.085,-0.045
5493,-0.075,-0.065
5494,-0.105,-0.075
5495,-0.085,-0.055
5496,-0.085,-0.065
5497,-0.075,-0.065
5498,-0.075,-0.075
5499,-0.075,-0.055
5500,-0.075,-0.045
5501,-0.075,-0.055
5502,-0.095,-0.065
5503,-0.085,-0.065
5504,-0.065,-0.055
5505,-0.065,-0.055
5506,-0.055,-0.065
5507,-0.075,-0.065
5508,-0.065,-0.055
5509,-0.065,-0.055
5510,-0.075,-0.055
5511,-0.025,-0.035
5512,0.015,0.025
5513,0.015,0.035
5514,0.065,0.025
5515,0.115,0.045
5516,0.125,0.005
5517,0.105,-0.065
5518,0.075,-0.085
5519,0.065,-0.075
5520,0.025,-0.085
5521,-0.025,-0.085
5522,-0.065,-0.085
5523,-0.075,-0.085
5524,-0.085,-0.065
5525,-0.075,-0.085
5526,-0.065,-0.075
5527,0.005,0.035
5528,0.035,-0.025
5529,0.405,-0.245
5530,0.855,-0.315
5531,0.955,-0.445
5532,-0.165,-0.595
5533,-0.715,-0.355
5534,-0.535,-0.145
5535,-0.245,-0.075
5536,-0.065,-0.065
5537,-0.065,-0.055
5538,-0.075,-0.075
5539,-0.075,-0.055
5540,-0.075,-0.035
5541,-0.075,-0.045
5542,-0.065,-0.055
5543,-0.085,-0.045
5544,-0.065,-0.035
5545,-0.065,-0.035
5546,-0.075,-0.045
5547,-0.055,-0.035
5548,-0.045,-0.025
5549,-0.045,-0.025
5550,-0.035,-0.045
5551,-0.035,-0.035
5552,-0.015,-0.025
5553,-0.015,-0.025
5554,-0.015,-0.035
5555,0.005,-0.035
5556,0.025,-0.025
5557,0.035,-0.035
5558,0.045,-0.045
5559,0.035,-0.055
5560,0.085,-0.035
5561,0.085,-0.055
5562,0.095,-0.065
5563,0.135,-0.055
5564,0.155,-0.065
5565,0.165,-0.065
5566,0.195,-0.085
5567,0.195,-0.085
5568,0.225,-0.075
5569,0.225,-0.085
5570,0.215,-0.105
5571,0.225,-0.085
5572,0.205,-0.085
5573,0.175,-0.065
5574,0.135,-0.075
5575,0.075,-0.055
5576,0.045,-0.025
5577,0.015,-0.025
5578,-0.045,-0.035
5579,-0.045,-0.025
5580,-0.055,-0.005
5581,-0.075,-0.025
5582,-0.085,-0.025
5583,-0.105,-0.035
5584,-0.095,-0.015
5585,-0.095,-0.015
5586,-0.095,-0.025
5587,-0.085,-0.035
5588,-0.075,-0.015
5589,-0.085,-0.015
5590,-0.065,-0.025
5591,-0.075,-0.025
5592,-0.055,-0.015
5593,-0.055,-0.015
5594,-0.055,-0.025
5595,-0.045,-0.025
5596,-0.055,-0.025
5597,-0.055,-0.015
5598,-0.045,-0.035
5599,-0.065,-0.025
5600,-0.055,-0.025
5601,-0.065,-0.025
5602,-0.075,-0.035
5603,-0.055,-0.035
5604,-0.065,-0.025
5605,-0.075,-0.035
5606,-0.075,-0.045
5607,-0.085,-0.045
5608,-0.075,-0.025
5609,-0.085,-0.035
5610,-0.095,-0.055
5611,-0.075,-0.035
5612,-0.075,-0.025
5613,-0.085,-0.035
5614,-0.085,-0.045
5615,-0.095,-0.045
5616,-0.085,-0.025
5617,-0.075,-0.045
5618,-0.085,-0.035
5619,-0.075,-0.045
5620,-0.085,-0.025
5621,-0.085,-0.035
5622,-0.085,-0.045
5623,-0.095,-0.045
5624,-0.075,-0.035
5625,-0.075,-0.035
5626,-0.095,-0.045
5627,-0.065,-0.035
5628,-0.065,-0.035
5629,-0.085,-0.035
5630,-0.075,-0.045
5631,-0.085,-0.045
5632,-0.075,-0.025
5633,-0.075,-0.035
5634,-0.075,-0.045
5635,-0.075,-0.035
5636,-0.075,-0.035
5637,-0.075,-0.035
5638,-0.085,-0.055
5639,-0.075,-0.035
5640,-0.075,-0.035
5641,-0.075,-0.035
5642,-0.075,-0.045
5643,-0.065,-0.035
5644,-0.065,-0.035
5645,-0.065,-0.035
5646,-0.075,-0.045
5647,-0.075,-0.035
5648,-0.075,-0.035
5649,-0.065,-0.045
5650,-0.075,-0.045
5651,-0.055,-0.035
5652,-0.005,0.005
5653,0.015,0.035
5654,0.025,0.035
5655,0.075,0.055
5656,0.115,0.065
5657,0.105,-0.015
5658,0.085,-0.075
5659,0.075,-0.045
5660,0.035,-0.045
5661,-0.025,-0.075
5662,-0.065,-0.085
5663,-0.095,-0.075
5664,-0.085,-0.065
5665,-0.095,-0.065
5666,-0.085,-0.065
5667,-0.025,-0.005
5668,0.025,0.065
5669,0.125,-0.135
5670,0.595,-0.265
5671,1.085,-0.345
5672,0.455,-0.485
5673,-0.525,-0.495
5674,-0.715,-0.215
5675,-0.405,-0.075
5676,-0.155,-0.065
5677,-0.075,-0.045
5678,-0.095,-0.055
5679,-0.105,-0.045
5680,-0.105,-0.035
5681,-0.105,-0.035
5682,-0.105,-0.035
5683,-0.095,-0.035
5684,-0.095,-0.025
5685,-0.085,-0.035
5686,-0.095,-0.035
5687,-0.085,-0.035
5688,-0.075,-0.015
5689,-0.065,-0.025
5690,-0.045,-0.035
5691,-0.055,-0.025
5692,-0.045,-0.025
5693,-0.055,-0.035
5694,-0.045,-0.035
5695,-0.035,-0.035
5696,-0.015,-0.025
5697,-0.005,-0.035
5698,0.005,-0.045
5699,0.025,-0.045
5700,0.035,-0.045
5701,0.045,-0.055
5702,0.055,-0.065
5703,0.085,-0.065
5704,0.105,-0.055
5705,0.125,-0.075
5706,0.135,-0.095
5707,0.165,-0.075
5708,0.175,-0.085
5709,0.185,-0.095
5710,0.185,-0.105
5711,0.175,-0.095
5712,0.175,-0.085
5713,0.145,-0.095
5714,0.105,-0.075
5715,0.065,-0.055
5716,0.025,-0.035
5717,-0.015,-0.035
5718,-0.045,-0.035
5719,-0.095,-0.025
5720,-0.085,-0.025
5721,-0.115,-0.015
5722,-0.125,-0.035
5723,-0.135,-0.035
5724,-0.135,-0.015
5725,-0.135,-0.025
5726,-0.115,-0.035
5727,-0.145,-0.035
5728,-0.115,-0.025
5729,-0.125,-0.025
5730,-0.125,-0.035
5731,-0.105,-0.025
5732,-0.095,-0.025
5733,-0.105,-0.025
5734,-0.105,-0.035
5735,-0.095,-0.035
5736,-0.095,-0.015
5737,-0.095,-0.025
5738,-0.095,-0.045
5739,-0.095,-0.025
5740,-0.105,-0.025
5741,-0.105,-0.035
5742,-0.115,-0.045
5743,-0.125,-0.045
5744,-0.115,-0.035
5745,-0.125,-0.035
5746,-0.135,-0.045
5747,-0.115,-0.045
5748,-0.125,-0.035
5749,-0.125,-0.045
5750,-0.125,-0.055
5751,-0.145,-0.045
5752,-0.125,-0.045
5753,-0.135,-0.045
5754,-0.145,-0.055
5755,-0.135,-0.045
5756,-0.135,-0.045
5757,-0.145,-0.045
5758,-0.125,-0.055
5759,-0.145,-0.055
5760,-0.135,-0.045
5761,-0.135,-0.055
5762,-0.145,-0.065
5763,-0.135,-0.055
5764,-0.125,-0.035
5765,-0.145,-0.035
5766,-0.145,-0.065
5767,-0.145,-0.055
5768,-0.135,-0.045
5769,-0.145,-0.045
5770,-0.145,-0.055
5771,-0.115,-0.055
5772,-0.145,-0.055
5773,-0.135,-0.045
5774,-0.135,-0.065
5775,-0.145,-0.065
5776,-0.135,-0.045
5777,-0.145,-0.055
5778,-0.135,-0.055
5779,-0.125,-0.055
5780,-0.125,-0.045
5781,-0.125,-0.055
5782,-0.115,-0.055
5783,-0.145,-0.055
5784,-0.125,-0.045
5785,-0.125,-0.055
5786,-0.125,-0.065
5787,-0.115,-0.055
5788,-0.125,-0.035
5789,-0.085,-0.035
5790,-0.045,0.005
5791,-0.045,0.025
5792,0.005,0.025
5793,0.055,0.035
5794,0.055,-0.025
5795,0.035,-0.065
5796,0.035,-0.055
5797,-0.015,-0.075
5798,-0.045,-0.095
5799,-0.105,-0.085
5800,-0.135,-0.085
5801,-0.145,-0.085
5802,-0.135,-0.095
5803,-0.135,-0.075
5804,-0.095,-0.035
5805,-0.035,0.045
5806,0.015,-0.115
5807,0.545,-0.255
5808,1.005,-0.315
5809,0.655,-0.435
5810,-0.335,-0.435
5811,-0.735,-0.185
5812,-0.495,-0.065
5813,-0.255,-0.055
5814,-0.145,-0.085
5815,-0.135,-0.075
5816,-0.145,-0.055
5817,-0.145,-0.075
5818,-0.145,-0.075
5819,-0.145,-0.065
5820,-0.135,-0.065
5821,-0.135,-0.065
5822,-0.125,-0.075
5823,-0.135,-0.065
5824,-0.125,-0.055
5825,-0.125,-0.055
5826,-0.115,-0.065
5827,-0.105,-0.065
5828,-0.095,-0.065
5829,-0.085,-0.065
5830,-0.085,-0.075
5831,-0.085,-0.065
5832,-0.075,-0.055
5833,-0.055,-0.075
5834,-0.055,-0.075
5835,-0.035,-0.075
5836,-0.025,-0.075
5837,-0.015,-0.085
5838,0.005,-0.095
5839,0.015,-0.095
5840,0.035,-0.095
5841,0.065,-0.105
5842,0.065,-0.115
5843,0.105,-0.125
5844,0.115,-0.115
5845,0.125,-0.125
5846,0.135,-0.145
5847,0.135,-0.145
5848,0.145,-0.135
5849,0.125,-0.135
5850,0.105,-0.135
5851,0.075,-0.115
5852,0.045,-0.085
5853,-0.005,-0.065
5854,-0.035,-0.075
5855,-0.085,-0.055
5856,-0.105,-0.045
5857,-0.125,-0.045
5858,-0.145,-0.065
5859,-0.145,-0.055
5860,-0.135,-0.045
5861,-0.145,-0.045
5862,-0.145,-0.065
5863,-0.155,-0.055
5864,-0.145,-0.055
5865,-0.135,-0.045
5866,-0.145,-0.065
5867,-0.115,-0.055
5868,-0.125,-0.045
5869,-0.125,-0.065
5870,-0.125,-0.055
5871,-0.115,-0.065
5872,-0.125,-0.045
5873,-0.115,-0.055
5874,-0.125,-0.075
5875,-0.105,-0.055
5876,-0.115,-0.055
5877,-0.115,-0.065
5878,-0.125,-0.075
5879,-0.135,-0.075
5880,-0.115,-0.055
5881,-0.125,-0.075
5882,-0.125,-0.085
5883,-0.125,-0.075
5884,-0.125,-0.065
5885,-0.145,-0.075
5886,-0.125,-0.095
5887,-0.145,-0.075
5888,-0.115,-0.075
5889,-0.135,-0.095
5890,-0.145,-0.095
5891,-0.135,-0.085
5892,-0.135,-0.085
5893,-0.135,-0.075
5894,-0.135,-0.095
5895,-0.145,-0.085
5896,-0.135,-0.075
5897,-0.135,-0.085
5898,-0.135,-0.095
5899,-0.125,-0.085
5900,-0.135,-0.085
5901,-0.135,-0.085
5902,-0.125,-0.085
5903,-0.135,-0.095
5904,-0.125,-0.075
5905,-0.125,-0.095
5906,-0.145,-0.095
5907,-0.115,-0.095
5908,-0.125,-0.075
5909,-0.125,-0.095
5910,-0.125,-0.095
5911,-0.135,-0.095
5912,-0.115,-0.075
5913,-0.125,-0.085
5914,-0.115,-0.095
5915,-0.105,-0.085
5916,-0.105,-0.085
5917,-0.115,-0.095
5918,-0.105,-0.105
5919,-0.115,-0.095
5920,-0.105,-0.085
5921,-0.105,-0.085
5922,-0.115,-0.105
5923,-0.095,-0.085
5924,-0.095,-0.085
5925,-0.085,-0.085
5926,-0.035,-0.045
5927,-0.015,-0.015
5928,0.005,0.005
5929,0.055,0.005
5930,0.075,-0.035
5931,0.075,-0.085
5932,0.065,-0.095
5933,0.045,-0.095
5934,0.005,-0.125
5935,-0.045,-0.115
5936,-0.085,-0.105
5937,-0.105,-0.115
5938,-0.125,-0.125
5939,-0.095,-0.115
5940,-0.095,-0.105
5941,-0.035,-0.035
5942,0.005,0.005
5943,0.095,-0.185
5944,0.655,-0.305
5945,1.155,-0.435
5946,0.545,-0.585
5947,-0.555,-0.495
5948,-0.695,-0.205
5949,-0.395,-0.085
5950,-0.125,-0.105
5951,-0.095,-0.105
5952,-0.105,-0.095
5953,-0.105,-0.085
5954,-0.115,-0.105
5955,-0.105,-0.085
5956,-0.095,-0.085
5957,-0.095,-0.075
5958,-0.095,-0.085
5959,-0.095,-0.075
5960,-0.085,-0.065
5961,-0.075,-0.075
5962,-0.085,-0.075
5963,-0.055,-0.065
5964,-0.055,-0.065
5965,-0.055,-0.065
5966,-0.045,-0.085
5967,-0.045,-0.075
5968,-0.025,-0.065
5969,-0.015,-0.065
5970,-0.015,-0.085
5971,0.005,-0.075
5972,0.025,-0.065
5973,0.025,-0.085
5974,0.045,-0.085
5975,0.045,-0.085
5976,0.085,-0.085
5977,0.095,-0.095
5978,0.115,-0.115
5979,0.145,-0.105
5980,0.175,-0.105
5981,0.175,-0.115
5982,0.195,-0.135
5983,0.185,-0.135
5984,0.215,-0.125
5985,0.205,-0.125
5986,0.185,-0.135
5987,0.165,-0.105
5988,0.135,-0.105
5989,0.085,-0.075
5990,0.035,-0.075
5991,-0.025,-0.065
5992,-0.045,-0.055
5993,-0.075,-0.045
5994,-0.095,-0.055
5995,-0.095,-0.055
5996,-0.115,-0.055
5997,-0.115,-0.055
5998,-0.125,-0.065
5999,-0.135,-0.055
6000,-0.115,-0.045
6001,-0.115,-0.055
6002,-0.115,-0.065
6003,-0.095,-0.055
6004,-0.095,-0.045
6005,-0.095,-0.065
6006,-0.085,-0.065
6007,-0.095,-0.065
6008,-0.075,-0.055
6009,-0.075,-0.055
6010,-0.075,-0.065
6011,-0.065,-0.065
6012,-0.065,-0.065
6013,-0.075,-0.065
6014,-0.075,-0.075
6015,-0.085,-0.065
6016,-0.075,-0.065
6017,-0.085,-0.075
6018,-0.085,-0.075
6019,-0.085,-0.065
6020,-0.085,-0.075
6021,-0.095,-0.075
6022,-0.085,-0.085
6023,-0.095,-0.075
6024,-0.095,-0.075
6025,-0.105,-0.075
6026,-0.095,-0.085
6027,-0.085,-0.065
6028,-0.095,-0.075
6029,-0.095,-0.075
6030,-0.105,-0.085
6031,-0.105,-0.075
6032,-0.105,-0.065
6033,-0.105,-0.085
6034,-0.105,-0.085
6035,-0.095,-0.075
6036,-0.105,-0.065
6037,-0.105,-0.075
6038,-0.105,-0.095
6039,-0.115,-0.075
6040,-0.095,-0.065
6041,-0.115,-0.075
6042,-0.105,-0.085
6043,-0.095,-0.065
6044,-0.095,-0.075
6045,-0.105,-0.065
6046,-0.095,-0.085
6047,-0.115,-0.075
6048,-0.105,-0.065
6049,-0.105,-0.075
6050,-0.105,-0.075
6051,-0.095,-0.085
6052,-0.095,-0.065
6053,-0.105,-0.075
6054,-0.095,-0.085
6055,-0.105,-0.075
6056,-0.095,-0.065
6057,-0.095,-0.075
6058,-0.105,-0.085
6059,-0.085,-0.075
6060,-0.095,-0.065
6061,-0.095,-0.075
6062,-0.085,-0.085
6063,-0.085,-0.085
6064,-0.035,-0.025
6065,-0.005,0.005
6066,-0.005,0.005
6067,0.045,0.005
6068,0.095,0.025
6069,0.085,-0.045
6070,0.075,-0.105
6071,0.045,-0.095
6072,0.035,-0.095
6073,-0.015,-0.105
6074,-0.075,-0.115
6075,-0.105,-0.105
6076,-0.115,-0.105
6077,-0.115,-0.095
6078,-0.105,-0.115
6079,-0.085,-0.045
6080,-0.015,0.045
6081,0.045,-0.165
6082,0.545,-0.295
6083,1.065,-0.415
6084,0.555,-0.555
6085,-0.555,-0.545
6086,-0.735,-0.255
6087,-0.465,-0.105
6088,-0.165,-0.095
6089,-0.095,-0.095
6090,-0.125,-0.085
6091,-0.115,-0.085
6092,-0.115,-0.065
6093,-0.115,-0.075
6094,-0.105,-0.085
6095,-0.125,-0.075
6096,-0.115,-0.065
6097,-0.105,-0.075
6098,-0.105,-0.085
6099,-0.095,-0.065
6100,-0.095,-0.055
6101,-0.085,-0.065
6102,-0.065,-0.065
6103,-0.085,-0.055
6104,-0.055,-0.055
6105,-0.055,-0.055
6106,-0.055,-0.075
6107,-0.035,-0.065
6108,-0.025,-0.055
6109,-0.015,-0.065
6110,0.005,-0.075
6111,-0.005,-0.085
6112,0.025,-0.065
6113,0.045,-0.075
6114,0.055,-0.095
6115,0.085,-0.085
6116,0.105,-0.095
6117,0.125,-0.095
6118,0.135,-0.115
6119,0.155,-0.105
6120,0.175,-0.105
6121,0.185,-0.115
6122,0.175,-0.135
6123,0.195,-0.125
6124,0.175,-0.105
6125,0.155,-0.115
6126,0.115,-0.105
6127,0.055,-0.095
6128,0.015,-0.065
6129,-0.025,-0.065
6130,-0.075,-0.065
6131,-0.085,-0.055
6132,-0.115,-0.035
6133,-0.135,-0.045
6134,-0.125,-0.055
6135,-0.155,-0.065
6136,-0.155,-0.055
6137,-0.155,-0.055
6138,-0.145,-0.065
6139,-0.135,-0.055
6140,-0.125,-0.055
6141,-0.135,-0.055
6142,-0.115,-0.065
6143,-0.135,-0.055
6144,-0.115,-0.055
6145,-0.105,-0.055
6146,-0.115,-0.055
6147,-0.095,-0.045
6148,-0.095,-0.045
6149,-0.095,-0.055
6150,-0.085,-0.065
6151,-0.105,-0.055
6152,-0.095,-0.045
6153,-0.105,-0.055
6154,-0.115,-0.065
6155,-0.095,-0.055
6156,-0.115,-0.055
6157,-0.115,-0.055
6158,-0.125,-0.065
6159,-0.135,-0.055
6160,-0.115,-0.055
6161,-0.125,-0.065
6162,-0.125,-0.075
6163,-0.115,-0.075
6164,-0.115,-0.055
6165,-0.125,-0.065
6166,-0.125,-0.065
6167,-0.145,-0.065
6168,-0.125,-0.065
6169,-0.125,-0.055
6170,-0.135,-0.075
6171,-0.105,-0.065
6172,-0.125,-0.065
6173,-0.125,-0.055
6174,-0.135,-0.065
6175,-0.135,-0.065
6176,-0.125,-0.055
6177,-0.115,-0.055
6178,-0.135,-0.065
6179,-0.115,-0.075
6180,-0.115,-0.055
6181,-0.125,-0.055
6182,-0.125,-0.065
6183,-0.135,-0.075
6184,-0.125,-0.065
6185,-0.115,-0.065
6186,-0.125,-0.075
6187,-0.105,-0.065
6188,-0.115,-0.065
6189,-0.115,-0.055
6190,-0.115,-0.065
6191,-0.125,-0.065
6192,-0.115,-0.045
6193,-0.105,-0.065
6194,-0.105,-0.065
6195,-0.105,-0.065
6196,-0.095,-0.055
6197,-0.105,-0.055
6198,-0.095,-0.065
6199,-0.125,-0.065
6200,-0.095,-0.055
6201,-0.095,-0.055
6202,-0.105,-0.065
6203,-0.075,-0.065
6204,-0.035,-0.005
6205,-0.015,0.015
6206,-0.005,0.025
6207,0.035,0.025
6208,0.085,0.045
6209,0.065,-0.045
6210,0.065,-0.095
6211,0.045,-0.075
6212,0.015,-0.095
6213,-0.055,-0.095
6214,-0.095,-0.095
6215,-0.125,-0.095
6216,-0.115,-0.085
6217,-0.105,-0.085
6218,-0.105,-0.085
6219,-0.035,0.025
6220,-0.015,-0.015
6221,0.235,-0.245
6222,0.705,-0.295
6223,1.055,-0.435
6224,0.015,-0.595
6225,-0.725,-0.375
6226,-0.595,-0.145
6227,-0.295,-0.095
6228,-0.125,-0.085
6229,-0.105,-0.075
6230,-0.125,-0.075
6231,-0.125,-0.065
6232,-0.125,-0.055
6233,-0.115,-0.055
6234,-0.115,-0.075
6235,-0.105,-0.065
6236,-0.105,-0.045
6237,-0.115,-0.055
6238,-0.115,-0.065
6239,-0.095,-0.055
6240,-0.095,-0.045
6241,-0.085,-0.055
6242,-0.075,-0.055
6243,-0.075,-0.045
6244,-0.065,-0.045
6245,-0.055,-0.055
6246,-0.045,-0.065
6247,-0.045,-0.055
6248,-0.025,-0.055
6249,-0.015,-0.055
6250,-0.005,-0.075
6251,0.015,-0.065
6252,0.025,-0.065
6253,0.035,-0.075
6254,0.065,-0.085
6255,0.075,-0.085
6256,0.095,-0.075
6257,0.125,-0.095
6258,0.125,-0.105
6259,0.165,-0.105
6260,0.165,-0.105
6261,0.175,-0.115
6262,0.195,-0.125
6263,0.165,-0.125
6264,0.165,-0.115
6265,0.135,-0.105
6266,0.095,-0.105
6267,0.065,-0.085
6268,0.015,-0.055
6269,-0.035,-0.055
6270,-0.065,-0.065
6271,-0.115,-0.055
6272,-0.115,-0.055
6273,-0.125,-0.045
6274,-0.145,-0.055
6275,-0.125,-0.055
6276,-0.135,-0.045
6277,-0.145,-0.055
6278,-0.145,-0.065
6279,-0.155,-0.055
6280,-0.125,-0.045
6281,-0.125,-0.055
6282,-0.125,-0.055
6283,-0.115,-0.055
6284,-0.105,-0.035
6285,-0.115,-0.045
6286,-0.115,-0.065
6287,-0.125,-0.055
6288,-0.105,-0.055
6289,-0.115,-0.055
6290,-0.115,-0.065
6291,-0.095,-0.065
6292,-0.105,-0.055
6293,-0.105,-0.055
6294,-0.125,-0.075
6295,-0.145,-0.065
6296,-0.125,-0.055
6297,-0.135,-0.065
6298,-0.145,-0.075
6299,-0.125,-0.075
6300,-0.125,-0.075
6301,-0.145,-0.075
6302,-0.145,-0.075
6303,-0.155,-0.075
6304,-0.135,-0.065
6305,-0.135,-0.075
6306,-0.155,-0.085
6307,-0.135,-0.075
6308,-0.145,-0.075
6309,-0.145,-0.075
6310,-0.155,-0.075
6311,-0.165,-0.085
6312,-0.135,-0.065
6313,-0.135,-0.065
6314,-0.155,-0.085
6315,-0.135,-0.075
6316,-0.135,-0.075
6317,-0.135,-0.075
6318,-0.135,-0.095
6319,-0.155,-0.075
6320,-0.145,-0.065
6321,-0.135,-0.075
6322,-0.145,-0.095
6323,-0.125,-0.085
6324,-0.145,-0.075
6325,-0.145,-0.075
6326,-0.135,-0.085
6327,-0.155,-0.085
6328,-0.125,-0.085
6329,-0.135,-0.085
6330,-0.145,-0.085
6331,-0.125,-0.085
6332,-0.125,-0.085
6333,-0.135,-0.085
6334,-0.125,-0.095
6335,-0.135,-0.075
6336,-0.125,-0.075
6337,-0.135,-0.085
6338,-0.125,-0.095
6339,-0.125,-0.075
6340,-0.125,-0.075
6341,-0.095,-0.075
6342,-0.055,-0.025
6343,-0.065,-0.005
6344,-0.015,-0.005
6345,0.045,0.005
6346,0.055,-0.025
6347,0.035,-0.085
6348,0.045,-0.075
6349,0.005,-0.105
6350,-0.035,-0.135
6351,-0.095,-0.115
6352,-0.125,-0.115
6353,-0.145,-0.115
6354,-0.135,-0.115
6355,-0.135,-0.105
6356,-0.115,-0.085
6357,-0.035,0.005
6358,-0.035,-0.075
6359,0.305,-0.275
6360,0.715,-0.305
6361,1.025,-0.425
6362,0.035,-0.545
6363,-0.675,-0.315
6364,-0.635,-0.145
6365,-0.375,-0.105
6366,-0.175,-0.125
6367,-0.155,-0.115
6368,-0.125,-0.085
6369,-0.155,-0.095
6370,-0.155,-0.105
6371,-0.135,-0.095
6372,-0.145,-0.085
6373,-0.145,-0.095
6374,-0.145,-0.095
6375,-0.135,-0.095
6376,-0.125,-0.085
6377,-0.125,-0.085
6378,-0.125,-0.095
6379,-0.095,-0.095
6380,-0.105,-0.085
6381,-0.105,-0.085
6382,-0.095,-0.105
6383,-0.105,-0.105
6384,-0.075,-0.095
6385,-0.065,-0.095
6386,-0.055,-0.105
6387,-0.045,-0.105
6388,-0.035,-0.095
6389,-0.035,-0.115
6390,-0.005,-0.125
6391,0.005,-0.115
6392,0.035,-0.125
6393,0.035,-0.125
6394,0.055,-0.145
6395,0.095,-0.145
6396,0.115,-0.135
6397,0.115,-0.155
6398,0.135,-0.175
6399,0.125,-0.165
6400,0.145,-0.165
6401,0.135,-0.155
6402,0.115,-0.165
6403,0.105,-0.155
6404,0.085,-0.125
6405,0.035,-0.115
6406,-0.025,-0.105
6407,-0.075,-0.095
6408,-0.095,-0.075
6409,-0.125,-0.075
6410,-0.155,-0.085
6411,-0.135,-0.085
6412,-0.155,-0.065
6413,-0.155,-0.075
6414,-0.165,-0.085
6415,-0.175,-0.085
6416,-0.155,-0.065
6417,-0.145,-0.075
6418,-0.145,-0.085
6419,-0.125,-0.075
6420,-0.125,-0.075
6421,-0.145,-0.075
6422,-0.135,-0.085
6423,-0.145,-0.075
6424,-0.125,-0.075
6425,-0.125,-0.075
6426,-0.135,-0.105
6427,-0.115,-0.085
6428,-0.125,-0.075
6429,-0.135,-0.085
6430,-0.135,-0.095
6431,-0.145,-0.085
6432,-0.135,-0.075
6433,-0.145,-0.095
6434,-0.145,-0.095
6435,-0.145,-0.085
6436,-0.135,-0.075
6437,-0.155,-0.095
6438,-0.145,-0.095
6439,-0.165,-0.095
6440,-0.165,-0.085
6441,-0.155,-0.105
6442,-0.165,-0.105
6443,-0.145,-0.095
6444,-0.155,-0.095
6445,-0.165,-0.095
6446,-0.165,-0.105
6447,-0.165,-0.095
6448,-0.155,-0.095
6449,-0.155,-0.095
6450,-0.165,-0.105
6451,-0.155,-0.085
6452,-0.155,-0.095
6453,-0.145,-0.095
6454,-0.155,-0.105
6455,-0.155,-0.095
6456,-0.155,-0.095
6457,-0.145,-0.095
6458,-0.155,-0.105
6459,-0.145,-0.095
