'sample interval','ECG0','ECG1'
'0.0078125 sec','mV','mV'
0,-0.305,-0.315
1,-0.335,-0.305
2,-0.265,-0.295
3,-0.285,-0.305
4,-0.275,-0.335
5,-0.655,-0.455
6,-0.785,-0.015
7,-0.325,0.165
8,0.815,-0.295
9,2.105,-0.005
10,2.875,0.535
11,2.645,-0.595
12,0.135,-1.345
13,-1.085,-1.075
14,-1.095,-0.675
15,-0.845,-0.405
16,-0.575,-0.065
17,-0.395,-0.005
18,-0.335,0.005
19,-0.335,0.005
20,-0.345,0.045
21,-0.265,0.065
22,-0.305,0.065
23,-0.265,0.115
24,-0.275,0.125
25,-0.255,0.155
26,-0.165,0.235
27,-0.155,0.255
28,-0.135,0.305
29,-0.135,0.305
30,-0.075,0.405
31,-0.055,0.465
32,-0.045,0.515
33,0.045,0.575
34,0.105,0.635
35,0.145,0.665
36,0.185,0.655
37,0.175,0.625
38,0.185,0.625
39,0.185,0.555
40,0.205,0.455
41,0.195,0.345
42,0.175,0.265
43,0.015,0.085
44,-0.085,0.035
45,-0.105,-0.095
46,-0.155,-0.085
47,-0.185,-0.135
48,-0.225,-0.195
49,-0.265,-0.215
50,-0.205,-0.195
51,-0.235,-0.205
52,-0.265,-0.185
53,-0.255,-0.175
54,-0.225,-0.185
55,-0.245,-0.185
56,-0.235,-0.185
57,-0.225,-0.165
58,-0.195,-0.155
59,-0.225,-0.185
60,-0.245,-0.195
61,-0.225,-0.215
62,-0.245,-0.235
63,-0.225,-0.235
64,-0.225,-0.255
65,-0.245,-0.255
66,-0.285,-0.235
67,-0.245,-0.255
68,-0.265,-0.285
69,-0.285,-0.295
70,-0.265,-0.265
71,-0.275,-0.295
72,-0.275,-0.325
73,-0.255,-0.255
74,-0.225,-0.285
75,-0.265,-0.285
76,-0.265,-0.295
77,-0.265,-0.295
78,-0.275,-0.275
79,-0.265,-0.255
80,-0.245,-0.275
81,-0.245,-0.235
82,-0.215,-0.185
83,-0.165,-0.175
84,-0.165,-0.185
85,-0.095,-0.165
86,-0.085,-0.195
87,-0.135,-0.215
88,-0.195,-0.305
89,-0.255,-0.345
90,-0.225,-0.335
91,-0.285,-0.355
92,-0.345,-0.375
93,-0.325,-0.365
94,-0.335,-0.355
95,-0.325,-0.335
96,-0.325,-0.345
97,-0.285,-0.315
98,-0.225,-0.295
99,-0.535,-0.495
100,-0.765,-0.145
101,-0.485,0.185
102,0.515,-0.025
103,1.865,0.045
104,2.775,0.605
105,2.895,-0.245
106,0.755,-1.345
107,-0.815,-1.195
108,-1.075,-0.895
109,-0.915,-0.645
110,-0.715,-0.375
111,-0.445,-0.105
112,-0.385,-0.115
113,-0.335,-0.075
114,-0.305,-0.035
115,-0.295,-0.015
116,-0.275,-0.025
117,-0.275,-0.005
118,-0.265,0.045
119,-0.225,0.065
120,-0.235,0.075
121,-0.195,0.115
122,-0.145,0.165
123,-0.135,0.205
124,-0.105,0.255
125,-0.085,0.295
126,-0.055,0.335
127,0.015,0.395
128,0.015,0.425
129,0.075,0.465
130,0.115,0.515
131,0.165,0.505
132,0.185,0.485
133,0.175,0.465
134,0.115,0.405
135,0.155,0.345
136,0.055,0.185
137,0.005,0.085
138,-0.035,0.005
139,-0.165,-0.075
140,-0.195,-0.155
141,-0.245,-0.215
142,-0.255,-0.205
143,-0.265,-0.215
144,-0.295,-0.235
145,-0.275,-0.225
146,-0.235,-0.205
147,-0.255,-0.215
148,-0.265,-0.205
149,-0.275,-0.225
150,-0.275,-0.195
151,-0.285,-0.225
152,-0.265,-0.215
153,-0.265,-0.235
154,-0.215,-0.215
155,-0.265,-0.255
156,-0.255,-0.245
157,-0.245,-0.265
158,-0.275,-0.265
159,-0.245,-0.255
160,-0.255,-0.295
161,-0.255,-0.295
162,-0.235,-0.275
163,-0.235,-0.315
164,-0.265,-0.305
165,-0.255,-0.285
166,-0.245,-0.295
167,-0.245,-0.275
168,-0.245,-0.255
169,-0.195,-0.235
170,-0.145,-0.185
171,-0.115,-0.155
172,-0.085,-0.175
173,-0.075,-0.155
174,-0.095,-0.185
175,-0.205,-0.285
176,-0.205,-0.285
177,-0.215,-0.335
178,-0.265,-0.305
179,-0.295,-0.325
180,-0.285,-0.325
181,-0.285,-0.325
182,-0.305,-0.325
183,-0.295,-0.295
184,-0.275,-0.295
185,-0.225,-0.305
186,-0.525,-0.425
187,-0.825,-0.125
188,-0.545,0.275
189,0.625,0.425
190,2.105,0.485
191,2.885,0.915
192,2.975,-0.225
193,0.375,-1.375
194,-0.915,-1.145
195,-1.105,-0.925
196,-1.005,-0.775
197,-0.855,-0.485
198,-0.605,-0.205
199,-0.355,-0.065
200,-0.345,-0.065
201,-0.285,-0.025
202,-0.235,0.005
203,-0.225,0.005
204,-0.225,0.035
205,-0.215,0.055
206,-0.175,0.095
207,-0.145,0.125
208,-0.125,0.135
209,-0.115,0.175
210,-0.035,0.245
211,-0.015,0.285
212,-0.015,0.315
213,0.045,0.375
214,0.065,0.415
215,0.125,0.435
216,0.115,0.425
217,0.185,0.455
218,0.225,0.455
219,0.225,0.425
220,0.235,0.385
221,0.215,0.335
222,0.175,0.235
223,0.155,0.155
224,0.095,0.075
225,0.055,-0.015
226,-0.015,-0.075
227,-0.105,-0.115
228,-0.115,-0.155
229,-0.115,-0.195
230,-0.135,-0.185
231,-0.135,-0.175
232,-0.145,-0.195
233,-0.145,-0.195
234,-0.105,-0.185
235,-0.115,-0.185
236,-0.135,-0.185
237,-0.125,-0.215
238,-0.105,-0.195
239,-0.105,-0.185
240,-0.085,-0.205
241,-0.095,-0.205
242,-0.095,-0.205
243,-0.095,-0.225
244,-0.115,-0.245
245,-0.105,-0.245
246,-0.115,-0.265
247,-0.105,-0.265
248,-0.105,-0.295
249,-0.095,-0.285
250,-0.095,-0.275
251,-0.095,-0.285
252,-0.135,-0.285
253,-0.105,-0.235
254,-0.085,-0.225
255,-0.065,-0.185
256,-0.035,-0.205
257,0.035,-0.175
258,0.045,-0.195
259,0.035,-0.235
260,-0.045,-0.275
261,-0.025,-0.315
262,-0.045,-0.325
263,-0.125,-0.345
264,-0.135,-0.365
265,-0.155,-0.355
266,-0.125,-0.325
267,-0.145,-0.315
268,-0.145,-0.335
269,-0.135,-0.345
270,-0.115,-0.325
271,-0.445,-0.415
272,-0.655,0.055
273,-0.165,0.355
274,0.975,-0.035
275,2.355,0.135
276,2.955,0.545
277,3.095,-0.385
278,0.625,-1.355
279,-0.785,-1.075
280,-0.925,-0.785
281,-0.775,-0.615
282,-0.565,-0.335
283,-0.265,-0.065
284,-0.195,-0.045
285,-0.165,-0.025
286,-0.165,-0.005
287,-0.125,0.025
288,-0.075,0.055
289,-0.045,0.085
290,-0.005,0.115
291,-0.045,0.145
292,0.005,0.175
293,0.035,0.235
294,0.065,0.275
295,0.095,0.315
296,0.105,0.375
297,0.145,0.425
298,0.215,0.505
299,0.245,0.545
300,0.275,0.575
301,0.315,0.575
302,0.345,0.585
303,0.355,0.545
304,0.345,0.495
305,0.355,0.435
306,0.345,0.365
307,0.275,0.235
308,0.225,0.115
309,0.125,0.015
310,0.045,-0.055
311,0.015,-0.125
312,-0.065,-0.185
313,-0.075,-0.205
314,-0.105,-0.215
315,-0.115,-0.225
316,-0.135,-0.245
317,-0.105,-0.225
318,-0.135,-0.215
319,-0.125,-0.205
320,-0.095,-0.205
321,-0.075,-0.185
322,-0.035,-0.185
323,-0.045,-0.185
324,-0.085,-0.195
325,-0.045,-0.185
326,-0.035,-0.185
327,-0.065,-0.235
328,-0.075,-0.245
329,-0.095,-0.245
330,-0.035,-0.225
331,-0.085,-0.285
332,-0.135,-0.295
333,-0.115,-0.285
334,-0.115,-0.305
335,-0.125,-0.295
336,-0.105,-0.295
337,-0.135,-0.305
338,-0.075,-0.225
339,-0.055,-0.235
340,-0.065,-0.215
341,0.005,-0.195
342,0.045,-0.185
343,0.045,-0.205
344,0.005,-0.255
345,-0.095,-0.325
346,-0.115,-0.345
347,-0.125,-0.365
348,-0.165,-0.355
349,-0.195,-0.395
350,-0.195,-0.385
351,-0.205,-0.365
352,-0.215,-0.385
353,-0.235,-0.365
354,-0.205,-0.335
355,-0.145,-0.335
356,-0.415,-0.485
357,-0.705,-0.195
358,-0.535,0.125
359,0.275,-0.055
360,1.595,-0.045
361,2.745,0.635
362,3.165,0.185
363,1.125,-1.335
364,-0.705,-1.125
365,-1.045,-0.785
366,-0.895,-0.595
367,-0.705,-0.355
368,-0.335,-0.085
369,-0.225,-0.055
370,-0.195,-0.035
371,-0.165,-0.015
372,-0.195,-0.005
373,-0.125,0.035
374,-0.125,0.055
375,-0.105,0.115
376,-0.075,0.105
377,-0.055,0.165
378,0.005,0.245
379,0.025,0.275
380,0.045,0.335
381,0.075,0.385
382,0.105,0.465
383,0.135,0.515
384,0.195,0.575
385,0.235,0.575
386,0.285,0.615
387,0.315,0.595
388,0.315,0.515
389,0.335,0.455
390,0.295,0.375
391,0.265,0.315
392,0.265,0.215
393,0.195,0.085
394,0.135,0.005
395,0.035,-0.095
396,-0.035,-0.175
397,-0.095,-0.205
398,-0.075,-0.245
399,-0.155,-0.275
400,-0.145,-0.265
401,-0.125,-0.245
402,-0.105,-0.265
403,-0.125,-0.265
404,-0.125,-0.265
405,-0.125,-0.245
406,-0.105,-0.235
407,-0.105,-0.225
408,-0.135,-0.255
409,-0.125,-0.255
410,-0.095,-0.245
411,-0.135,-0.275
412,-0.135,-0.285
413,-0.195,-0.295
414,-0.185,-0.305
415,-0.175,-0.305
416,-0.175,-0.315
417,-0.205,-0.345
418,-0.205,-0.325
419,-0.175,-0.335
420,-0.195,-0.335
421,-0.175,-0.335
422,-0.185,-0.345
423,-0.225,-0.345
424,-0.205,-0.325
425,-0.185,-0.315
426,-0.185,-0.285
427,-0.155,-0.275
428,-0.155,-0.255
429,-0.115,-0.255
430,-0.055,-0.215
431,-0.035,-0.235
432,-0.055,-0.245
433,-0.105,-0.305
434,-0.135,-0.345
435,-0.155,-0.375
436,-0.265,-0.405
437,-0.265,-0.405
438,-0.305,-0.425
439,-0.275,-0.395
440,-0.275,-0.405
441,-0.265,-0.385
442,-0.275,-0.375
443,-0.265,-0.345
444,-0.235,-0.415
445,-0.685,-0.475
446,-0.785,-0.055
447,-0.195,0.175
448,1.075,0.025
449,2.435,0.605
450,2.975,0.865
451,2.425,-0.785
452,-0.065,-1.315
453,-1.125,-1.015
454,-1.065,-0.715
455,-0.865,-0.455
456,-0.555,-0.145
457,-0.385,-0.075
458,-0.335,-0.055
459,-0.335,-0.045
460,-0.325,-0.035
461,-0.275,-0.005
462,-0.265,0.055
463,-0.265,0.085
464,-0.225,0.085
465,-0.225,0.135
466,-0.145,0.195
467,-0.175,0.225
468,-0.135,0.295
469,-0.105,0.325
470,-0.095,0.385
471,-0.015,0.455
472,0.025,0.515
473,0.065,0.565
474,0.145,0.585
475,0.165,0.615
476,0.125,0.545
477,0.185,0.575
478,0.155,0.485
479,0.215,0.435
480,0.145,0.325
481,0.095,0.225
482,0.065,0.135
483,-0.055,0.005
484,-0.145,-0.075
485,-0.155,-0.125
486,-0.225,-0.175
487,-0.265,-0.215
488,-0.275,-0.225
489,-0.285,-0.215
490,-0.285,-0.215
491,-0.265,-0.215
492,-0.265,-0.195
493,-0.275,-0.205
494,-0.275,-0.205
495,-0.255,-0.195
496,-0.285,-0.195
497,-0.275,-0.185
498,-0.245,-0.145
499,-0.255,-0.175
500,-0.255,-0.185
501,-0.235,-0.195
502,-0.275,-0.205
503,-0.275,-0.205
504,-0.285,-0.215
505,-0.285,-0.245
506,-0.285,-0.235
507,-0.275,-0.265
508,-0.305,-0.285
509,-0.285,-0.255
510,-0.285,-0.265
511,-0.315,-0.255
512,-0.295,-0.275
513,-0.305,-0.285
514,-0.295,-0.235
515,-0.275,-0.215
516,-0.275,-0.175
517,-0.225,-0.185
518,-0.195,-0.165
519,-0.165,-0.115
520,-0.125,-0.155
521,-0.125,-0.175
522,-0.175,-0.225
523,-0.195,-0.275
524,-0.235,-0.315
525,-0.305,-0.315
526,-0.295,-0.325
527,-0.355,-0.305
528,-0.355,-0.345
529,-0.345,-0.305
530,-0.305,-0.285
531,-0.315,-0.305
532,-0.305,-0.305
533,-0.295,-0.345
534,-0.745,-0.375
535,-0.835,0.035
536,-0.385,0.245
537,0.645,0.045
538,2.085,0.485
539,2.825,1.185
540,3.075,0.125
541,0.535,-1.355
542,-0.965,-1.035
543,-1.215,-0.745
544,-1.055,-0.555
545,-0.825,-0.285
546,-0.465,-0.065
547,-0.355,-0.045
548,-0.385,-0.035
549,-0.295,0.005
550,-0.275,0.035
551,-0.275,0.065
552,-0.255,0.085
553,-0.245,0.105
554,-0.205,0.165
555,-0.165,0.185
556,-0.135,0.225
557,-0.135,0.255
558,-0.115,0.315
559,-0.065,0.375
560,-0.045,0.445
561,0.045,0.505
562,0.075,0.565
563,0.115,0.565
564,0.115,0.545
565,0.185,0.595
566,0.195,0.545
567,0.165,0.495
568,0.195,0.425
569,0.165,0.345
570,0.145,0.275
571,0.115,0.165
572,0.035,0.065
573,-0.035,-0.025
574,-0.075,-0.105
575,-0.145,-0.155
576,-0.185,-0.205
577,-0.235,-0.195
578,-0.215,-0.205
579,-0.245,-0.215
580,-0.255,-0.235
581,-0.235,-0.205
582,-0.245,-0.165
583,-0.265,-0.205
584,-0.255,-0.195
585,-0.245,-0.165
586,-0.195,-0.155
587,-0.225,-0.175
588,-0.215,-0.165
589,-0.225,-0.215
590,-0.225,-0.215
591,-0.265,-0.245
592,-0.245,-0.235
593,-0.255,-0.235
594,-0.235,-0.215
595,-0.225,-0.255
596,-0.265,-0.265
597,-0.275,-0.265
598,-0.255,-0.245
599,-0.265,-0.245
600,-0.235,-0.225
601,-0.215,-0.155
602,-0.185,-0.155
603,-0.185,-0.165
604,-0.085,-0.115
605,-0.095,-0.175
606,-0.075,-0.145
607,-0.145,-0.205
608,-0.205,-0.265
609,-0.235,-0.315
610,-0.255,-0.295
611,-0.285,-0.315
612,-0.335,-0.355
613,-0.335,-0.315
614,-0.265,-0.285
615,-0.295,-0.305
616,-0.305,-0.295
617,-0.335,-0.285
618,-0.245,-0.265
619,-0.595,-0.335
620,-0.775,0.115
621,-0.425,0.505
622,0.745,0.235
623,2.105,0.265
624,2.845,0.645
625,3.095,-0.355
626,0.595,-1.365
627,-0.875,-1.075
628,-1.115,-0.815
629,-1.005,-0.635
630,-0.835,-0.345
631,-0.565,-0.075
632,-0.365,0.015
633,-0.325,0.005
634,-0.315,0.045
635,-0.285,0.065
636,-0.235,0.085
637,-0.225,0.105
638,-0.205,0.125
639,-0.215,0.155
640,-0.195,0.195
641,-0.175,0.215
642,-0.145,0.285
643,-0.075,0.345
644,-0.065,0.395
645,-0.015,0.445
646,0.035,0.505
647,0.055,0.545
648,0.105,0.565
649,0.115,0.565
650,0.165,0.595
651,0.175,0.555
652,0.165,0.475
653,0.145,0.425
654,0.145,0.335
655,0.105,0.235
656,0.045,0.115
657,-0.025,0.045
658,-0.065,-0.015
659,-0.145,-0.055
660,-0.185,-0.125
661,-0.215,-0.145
662,-0.225,-0.125
663,-0.255,-0.155
664,-0.265,-0.145
665,-0.225,-0.145
666,-0.245,-0.145
667,-0.225,-0.135
668,-0.225,-0.145
669,-0.225,-0.115
670,-0.205,-0.125
671,-0.185,-0.135
672,-0.185,-0.145
673,-0.165,-0.135
674,-0.155,-0.135
675,-0.175,-0.155
676,-0.155,-0.175
677,-0.155,-0.185
678,-0.185,-0.195
679,-0.205,-0.205
680,-0.185,-0.205
681,-0.185,-0.225
682,-0.165,-0.225
683,-0.175,-0.215
684,-0.185,-0.245
685,-0.205,-0.235
686,-0.225,-0.215
687,-0.205,-0.225
688,-0.175,-0.165
689,-0.175,-0.155
690,-0.105,-0.115
691,-0.085,-0.115
692,-0.035,-0.135
693,-0.035,-0.145
694,-0.075,-0.195
695,-0.155,-0.245
696,-0.185,-0.285
697,-0.185,-0.295
698,-0.215,-0.275
699,-0.295,-0.325
700,-0.295,-0.325
701,-0.265,-0.295
702,-0.245,-0.295
703,-0.275,-0.275
704,-0.275,-0.285
705,-0.235,-0.275
706,-0.485,-0.345
707,-0.775,-0.025
708,-0.675,0.215
709,0.375,-0.005
710,2.015,0.175
711,2.905,0.715
712,3.145,-0.155
713,1.015,-1.385
714,-0.725,-1.075
715,-1.185,-0.755
716,-1.025,-0.505
717,-0.805,-0.245
718,-0.485,-0.035
719,-0.415,-0.025
720,-0.385,-0.015
721,-0.355,0.005
722,-0.345,0.055
723,-0.325,0.095
724,-0.305,0.095
725,-0.265,0.125
726,-0.255,0.185
727,-0.235,0.215
728,-0.195,0.255
729,-0.175,0.305
730,-0.115,0.385
731,-0.095,0.445
732,-0.065,0.495
733,-0.035,0.555
734,-0.015,0.615
735,0.055,0.655
736,0.075,0.675
737,0.135,0.665
738,0.145,0.685
739,0.155,0.625
740,0.145,0.545
741,0.135,0.455
742,0.105,0.345
743,0.065,0.215
744,-0.045,0.075
745,-0.115,-0.015
746,-0.145,-0.035
747,-0.195,-0.125
748,-0.245,-0.175
749,-0.255,-0.185
750,-0.275,-0.205
751,-0.315,-0.195
752,-0.315,-0.195
753,-0.315,-0.185
754,-0.295,-0.165
755,-0.255,-0.135
756,-0.235,-0.135
757,-0.265,-0.175
758,-0.275,-0.125
759,-0.275,-0.115
760,-0.265,-0.155
761,-0.245,-0.145
762,-0.245,-0.135
763,-0.245,-0.165
764,-0.275,-0.175
765,-0.275,-0.175
766,-0.255,-0.195
767,-0.275,-0.205
768,-0.265,-0.205
769,-0.275,-0.225
770,-0.265,-0.195
771,-0.255,-0.195
772,-0.255,-0.225
773,-0.265,-0.215
774,-0.275,-0.215
775,-0.255,-0.165
776,-0.235,-0.195
777,-0.205,-0.135
778,-0.175,-0.115
779,-0.135,-0.115
780,-0.115,-0.085
781,-0.055,-0.105
782,-0.055,-0.135
783,-0.115,-0.185
784,-0.175,-0.245
785,-0.225,-0.305
786,-0.265,-0.295
787,-0.275,-0.315
788,-0.335,-0.355
789,-0.345,-0.355
790,-0.345,-0.315
791,-0.345,-0.315
792,-0.315,-0.305
793,-0.345,-0.325
794,-0.285,-0.325
795,-0.525,-0.485
796,-0.845,-0.105
797,-0.555,0.215
798,0.475,-0.055
799,1.755,0.085
800,2.745,0.705
801,3.135,0.065
802,1.335,-1.335
803,-0.625,-1.195
804,-1.185,-0.875
805,-0.995,-0.585
806,-0.745,-0.285
807,-0.485,-0.025
808,-0.405,-0.055
809,-0.375,-0.055
810,-0.335,0.005
811,-0.355,-0.005
812,-0.325,0.025
813,-0.295,0.045
814,-0.285,0.085
815,-0.255,0.125
816,-0.195,0.165
817,-0.195,0.195
818,-0.175,0.245
819,-0.145,0.305
820,-0.115,0.335
821,-0.065,0.415
822,-0.025,0.475
823,0.005,0.535
824,0.075,0.575
825,0.105,0.585
826,0.165,0.615
827,0.185,0.585
828,0.165,0.515
829,0.155,0.465
830,0.165,0.345
831,0.115,0.245
832,0.065,0.135
833,-0.025,0.025
834,-0.055,-0.035
835,-0.125,-0.125
836,-0.175,-0.175
837,-0.205,-0.215
838,-0.255,-0.245
839,-0.265,-0.245
840,-0.285,-0.275
841,-0.255,-0.265
842,-0.235,-0.225
843,-0.255,-0.245
844,-0.275,-0.245
845,-0.235,-0.215
846,-0.265,-0.205
847,-0.235,-0.195
848,-0.235,-0.225
849,-0.215,-0.225
850,-0.245,-0.235
851,-0.225,-0.205
852,-0.275,-0.235
853,-0.245,-0.255
854,-0.225,-0.265
855,-0.255,-0.275
856,-0.245,-0.275
857,-0.255,-0.295
858,-0.285,-0.295
859,-0.255,-0.305
860,-0.275,-0.325
861,-0.295,-0.325
862,-0.265,-0.305
863,-0.305,-0.325
864,-0.295,-0.335
865,-0.325,-0.335
866,-0.345,-0.315
867,-0.335,-0.305
868,-0.295,-0.315
869,-0.295,-0.325
870,-0.255,-0.295
871,-0.315,-0.285
872,-0.255,-0.255
873,-0.225,-0.225
874,-0.145,-0.205
875,-0.115,-0.185
876,-0.115,-0.195
877,-0.165,-0.205
878,-0.135,-0.245
879,-0.105,-0.305
880,-0.255,-0.325
881,-0.325,-0.355
882,-0.335,-0.325
883,-0.365,-0.355
884,-0.365,-0.355
885,-0.335,-0.345
886,-0.355,-0.335
887,-0.325,-0.295
888,-0.325,-0.315
889,-0.285,-0.335
890,-0.665,-0.415
891,-0.745,0.005
892,-0.345,0.325
893,0.695,0.085
894,2.105,0.405
895,2.855,0.885
896,2.975,-0.175
897,0.665,-1.305
898,-0.835,-1.105
899,-1.115,-0.865
900,-0.965,-0.665
901,-0.745,-0.375
902,-0.455,-0.055
903,-0.365,-0.015
904,-0.335,-0.015
905,-0.355,0.005
906,-0.315,0.065
907,-0.285,0.055
908,-0.275,0.075
909,-0.225,0.095
910,-0.185,0.135
911,-0.165,0.145
912,-0.155,0.185
913,-0.125,0.245
914,-0.095,0.265
915,-0.045,0.325
916,-0.045,0.365
917,-0.015,0.405
918,0.045,0.465
919,0.085,0.505
920,0.145,0.525
921,0.185,0.575
922,0.185,0.555
923,0.195,0.545
924,0.205,0.485
925,0.195,0.425
926,0.165,0.335
927,0.105,0.235
928,0.035,0.125
929,-0.025,0.055
930,-0.055,0.005
931,-0.135,-0.075
932,-0.185,-0.115
933,-0.205,-0.135
934,-0.225,-0.135
935,-0.215,-0.155
936,-0.215,-0.145
937,-0.215,-0.145
938,-0.195,-0.145
939,-0.195,-0.145
940,-0.205,-0.155
941,-0.215,-0.145
942,-0.215,-0.155
943,-0.185,-0.165
944,-0.205,-0.205
945,-0.205,-0.185
946,-0.165,-0.155
947,-0.205,-0.205
948,-0.225,-0.205
949,-0.215,-0.225
950,-0.225,-0.215
951,-0.195,-0.215
952,-0.245,-0.235
953,-0.235,-0.255
954,-0.215,-0.245
955,-0.245,-0.255
956,-0.255,-0.265
957,-0.255,-0.285
958,-0.265,-0.285
959,-0.295,-0.275
960,-0.245,-0.275
961,-0.245,-0.285
962,-0.235,-0.255
963,-0.215,-0.275
964,-0.245,-0.285
965,-0.225,-0.255
966,-0.215,-0.265
967,-0.225,-0.235
968,-0.165,-0.215
969,-0.185,-0.205
970,-0.055,-0.135
971,-0.085,-0.135
972,-0.045,-0.195
973,-0.115,-0.185
974,-0.185,-0.255
975,-0.185,-0.295
976,-0.195,-0.325
977,-0.245,-0.325
978,-0.295,-0.315
979,-0.165,-0.345
980,-0.225,-0.315
981,-0.325,-0.335
982,-0.215,-0.325
983,-0.185,-0.305
984,-0.225,-0.295
985,-0.565,-0.445
986,-0.825,-0.035
987,-0.385,0.245
988,0.525,0.225
989,1.975,0.315
990,2.875,0.875
991,3.025,-0.215
992,0.295,-1.385
993,-0.935,-1.135
994,-0.865,-0.915
995,-0.935,-0.755
996,-0.915,-0.485
997,-0.695,-0.235
998,-0.405,-0.075
999,-0.345,-0.065
1000,-0.275,-0.075
1001,-0.175,-0.025
1002,-0.245,0.015
1003,-0.255,0.045
1004,-0.255,0.045
1005,-0.225,0.035
1006,0.085,0.085
1007,-0.185,0.125
1008,-0.165,0.135
1009,0.025,0.165
1010,-0.115,0.235
1011,-0.015,0.275
1012,0.095,0.305
1013,0.275,0.355
1014,0.115,0.415
1015,-0.015,0.455
1016,0.095,0.435
1017,0.135,0.435
1018,0.205,0.425
1019,0.195,0.385
1020,0.185,0.315
1021,0.195,0.235
1022,0.175,0.145
1023,0.095,0.055
1024,0.035,-0.035
1025,-0.035,-0.105
1026,-0.055,-0.155
1027,-0.105,-0.175
1028,-0.085,-0.185
1029,-0.115,-0.215
1030,-0.225,-0.215
1031,-0.195,-0.195
1032,-0.125,-0.225
1033,-0.125,-0.205
1034,-0.145,-0.185
1035,-0.145,-0.195
1036,-0.175,-0.205
1037,-0.125,-0.195
1038,-0.105,-0.205
1039,-0.135,-0.205
1040,-0.165,-0.225
1041,-0.135,-0.235
1042,-0.095,-0.235
1043,-0.165,-0.245
1044,-0.155,-0.255
1045,-0.145,-0.255
1046,-0.155,-0.265
1047,-0.155,-0.275
1048,-0.185,-0.285
1049,-0.175,-0.285
1050,-0.135,-0.275
1051,-0.135,-0.295
1052,-0.165,-0.295
1053,-0.165,-0.275
1054,-0.175,-0.275
1055,-0.165,-0.265
1056,-0.135,-0.235
1057,-0.125,-0.195
1058,-0.055,-0.165
1059,-0.035,-0.165
1060,0.015,-0.175
1061,0.005,-0.185
1062,0.005,-0.215
1063,-0.055,-0.255
1064,-0.085,-0.285
1065,-0.085,-0.325
1066,-0.125,-0.325
1067,-0.165,-0.335
1068,-0.175,-0.345
1069,-0.165,-0.325
1070,-0.165,-0.315
1071,-0.175,-0.315
1072,-0.165,-0.315
1073,-0.115,-0.295
1074,-0.445,-0.435
1075,-0.635,-0.085
1076,-0.495,0.245
1077,0.355,0.465
1078,1.585,0.095
1079,2.685,0.515
1080,3.035,0.375
1081,2.485,-0.895
1082,0.015,-1.265
1083,-0.925,-0.985
1084,-0.965,-0.735
1085,-0.765,-0.505
1086,-0.505,-0.205
1087,-0.305,-0.035
1088,-0.235,-0.035
1089,-0.195,0.005
1090,-0.185,0.025
1091,-0.155,0.045
1092,-0.155,0.075
1093,-0.175,0.095
1094,-0.085,0.145
1095,-0.085,0.165
1096,-0.065,0.185
1097,-0.055,0.235
1098,0.005,0.295
1099,0.035,0.345
1100,0.055,0.395
1101,0.085,0.435
1102,0.135,0.495
1103,0.155,0.535
1104,0.175,0.535
1105,0.205,0.545
1106,0.235,0.555
1107,0.255,0.495
1108,0.325,0.485
1109,0.385,0.385
1110,0.325,0.325
1111,0.195,0.205
1112,0.095,0.045
1113,-0.085,0.035
1114,-0.045,-0.035
1115,-0.065,-0.115
1116,-0.105,-0.175
1117,-0.185,-0.205
1118,-0.205,-0.195
1119,-0.195,-0.195
1120,-0.215,-0.235
1121,-0.205,-0.205
1122,-0.205,-0.195
1123,-0.195,-0.185
1124,-0.205,-0.195
1125,-0.165,-0.185
1126,-0.185,-0.195
1127,-0.145,-0.185
1128,-0.135,-0.185
1129,-0.205,-0.195
1130,-0.175,-0.185
1131,-0.175,-0.185
1132,-0.175,-0.215
1133,-0.195,-0.235
1134,-0.205,-0.255
1135,-0.195,-0.255
1136,-0.225,-0.275
1137,-0.185,-0.265
1138,-0.245,-0.285
1139,-0.185,-0.235
1140,-0.205,-0.295
1141,-0.185,-0.275
1142,-0.225,-0.275
1143,-0.195,-0.265
1144,-0.195,-0.235
1145,-0.155,-0.205
1146,-0.135,-0.145
1147,-0.105,-0.165
1148,-0.085,-0.145
1149,-0.035,-0.185
1150,-0.025,-0.185
1151,-0.085,-0.235
1152,-0.145,-0.295
1153,-0.175,-0.295
1154,-0.195,-0.315
1155,-0.215,-0.315
1156,-0.275,-0.365
1157,-0.265,-0.355
1158,-0.245,-0.335
1159,-0.235,-0.325
1160,-0.235,-0.305
1161,-0.245,-0.345
1162,-0.235,-0.365
1163,-0.645,-0.445
1164,-0.695,-0.035
1165,-0.265,0.125
1166,0.875,-0.185
1167,2.205,0.245
1168,2.885,0.795
1169,2.775,-0.385
1170,0.485,-1.295
1171,-0.835,-1.135
1172,-1.025,-0.845
1173,-0.855,-0.575
1174,-0.545,-0.185
1175,-0.305,-0.075
1176,-0.315,-0.115
1177,-0.305,-0.085
1178,-0.245,-0.055
1179,-0.245,-0.025
1180,-0.195,0.015
1181,-0.205,0.005
1182,-0.205,0.085
1183,-0.115,0.095
1184,-0.125,0.125
1185,-0.085,0.185
1186,-0.045,0.245
1187,-0.025,0.285
1188,-0.015,0.305
1189,0.015,0.375
1190,0.055,0.415
1191,0.035,0.425
1192,0.075,0.505
1193,0.125,0.515
1194,0.145,0.545
1195,0.185,0.505
1196,0.245,0.545
1197,0.225,0.385
1198,0.175,0.375
1199,0.185,0.285
1200,0.105,0.165
1201,0.005,0.065
1202,-0.065,-0.025
1203,-0.115,-0.115
1204,-0.225,-0.155
1205,-0.175,-0.135
1206,-0.265,-0.255
1207,-0.255,-0.205
1208,-0.225,-0.175
1209,-0.215,-0.195
1210,-0.215,-0.185
1211,-0.215,-0.155
1212,-0.225,-0.155
1213,-0.245,-0.165
1214,-0.225,-0.145
1215,-0.225,-0.185
1216,-0.175,-0.125
1217,-0.145,-0.165
1218,-0.145,-0.145
1219,-0.225,-0.225
1220,-0.195,-0.195
1221,-0.165,-0.205
1222,-0.235,-0.245
1223,-0.215,-0.225
1224,-0.145,-0.255
1225,-0.235,-0.255
1226,-0.215,-0.245
1227,-0.215,-0.275
1228,-0.255,-0.275
1229,-0.185,-0.245
1230,-0.185,-0.245
1231,-0.215,-0.215
1232,-0.125,-0.175
1233,-0.115,-0.195
1234,-0.115,-0.155
1235,-0.045,-0.135
1236,0.015,-0.115
1237,0.015,-0.145
1238,-0.105,-0.215
1239,-0.115,-0.255
1240,-0.165,-0.275
1241,-0.145,-0.285
1242,-0.185,-0.295
1243,-0.215,-0.295
1244,-0.225,-0.305
1245,-0.245,-0.345
1246,-0.225,-0.295
1247,-0.225,-0.265
1248,-0.185,-0.245
1249,-0.275,-0.355
1250,-0.615,-0.375
1251,-0.695,-0.015
1252,-0.045,0.275
1253,1.155,0.125
1254,2.395,0.555
1255,2.965,0.855
1256,2.485,-0.575
1257,0.105,-1.245
1258,-0.955,-1.065
1259,-1.045,-0.775
1260,-0.835,-0.555
1261,-0.575,-0.245
1262,-0.315,-0.005
1263,-0.255,-0.005
1264,-0.245,0.005
1265,-0.225,0.025
1266,-0.185,0.055
1267,-0.175,0.075
1268,-0.185,0.075
1269,-0.175,0.105
1270,-0.115,0.145
1271,-0.085,0.195
1272,-0.045,0.205
1273,-0.025,0.245
1274,-0.005,0.295
1275,0.005,0.345
1276,0.065,0.405
1277,0.125,0.465
1278,0.175,0.525
1279,0.215,0.565
1280,0.235,0.585
1281,0.285,0.585
1282,0.285,0.585
1283,0.305,0.575
1284,0.335,0.535
1285,0.295,0.475
1286,0.245,0.345
1287,0.175,0.225
1288,0.085,0.135
1289,0.025,0.045
1290,-0.035,-0.015
1291,-0.075,-0.055
1292,-0.135,-0.095
1293,-0.145,-0.095
1294,-0.135,-0.125
1295,-0.165,-0.145
1296,-0.145,-0.115
1297,-0.155,-0.135
1298,-0.095,-0.065
1299,-0.115,-0.085
1300,-0.115,-0.105
1301,-0.085,-0.095
1302,-0.095,-0.085
1303,-0.095,-0.075
1304,-0.115,-0.085
1305,-0.085,-0.085
1306,-0.055,-0.055
1307,-0.095,-0.105
1308,-0.125,-0.125
1309,-0.125,-0.135
1310,-0.125,-0.115
1311,-0.115,-0.095
1312,-0.125,-0.145
1313,-0.115,-0.135
1314,-0.105,-0.115
1315,-0.115,-0.115
1316,-0.155,-0.125
1317,-0.095,-0.075
1318,-0.045,-0.045
1319,-0.005,0.005
1320,0.055,-0.005
1321,0.055,-0.035
1322,0.055,-0.035
1323,-0.025,-0.135
1324,-0.075,-0.155
1325,-0.105,-0.205
1326,-0.165,-0.195
1327,-0.135,-0.195
1328,-0.195,-0.225
1329,-0.155,-0.195
1330,-0.135,-0.175
1331,-0.145,-0.185
1332,-0.125,-0.165
1333,-0.105,-0.185
1334,-0.265,-0.275
1335,-0.585,-0.115
1336,-0.545,0.225
1337,0.335,0.435
1338,1.525,0.065
1339,2.615,0.415
1340,3.055,0.285
1341,1.885,-0.915
1342,-0.295,-1.135
1343,-0.905,-0.885
1344,-0.855,-0.685
1345,-0.665,-0.435
1346,-0.425,-0.135
1347,-0.255,0.045
1348,-0.175,0.095
1349,-0.065,0.115
1350,-0.085,0.105
1351,-0.125,0.145
1352,-0.075,0.135
1353,-0.015,0.205
1354,0.025,0.205
1355,0.045,0.215
1356,-0.005,0.225
1357,0.065,0.305
1358,0.145,0.375
1359,0.155,0.415
1360,0.135,0.425
1361,0.225,0.505
1362,0.255,0.525
1363,0.265,0.585
1364,0.295,0.615
1365,0.385,0.665
1366,0.425,0.665
1367,0.415,0.615
1368,0.385,0.575
1369,0.365,0.475
1370,0.385,0.405
1371,0.335,0.315
1372,0.255,0.165
1373,0.195,0.105
1374,0.085,-0.025
1375,0.035,-0.045
1376,0.055,-0.065
1377,-0.015,-0.125
1378,-0.045,-0.125
1379,-0.015,-0.125
1380,-0.015,-0.115
1381,0.015,-0.105
1382,0.045,-0.095
1383,0.065,-0.075
1384,0.045,-0.065
1385,0.055,-0.085
1386,0.095,-0.045
1387,0.025,-0.075
1388,0.045,-0.075
1389,0.105,-0.075
1390,0.085,-0.065
1391,0.045,-0.085
1392,0.065,-0.105
1393,0.025,-0.105
1394,0.065,-0.085
1395,0.075,-0.075
1396,0.075,-0.105
1397,0.025,-0.105
1398,0.035,-0.075
1399,0.055,-0.055
1400,0.085,-0.035
1401,0.165,0.005
1402,0.215,-0.015
1403,0.185,-0.055
1404,0.085,-0.135
1405,0.085,-0.125
1406,0.025,-0.195
1407,0.005,-0.175
1408,-0.075,-0.215
1409,-0.035,-0.205
1410,0.005,-0.185
1411,-0.025,-0.185
1412,-0.065,-0.195
1413,-0.045,-0.185
1414,-0.025,-0.195
1415,-0.025,-0.145
1416,-0.395,-0.055
1417,-0.385,0.375
1418,0.365,0.525
1419,1.545,-0.095
1420,2.545,-0.245
1421,2.985,-0.325
1422,2.005,-0.965
1423,-0.335,-1.025
1424,-0.765,-0.725
1425,-0.725,-0.575
1426,-0.585,-0.405
1427,-0.425,-0.155
1428,-0.075,0.075
1429,-0.055,0.085
1430,-0.065,0.085
1431,0.065,0.115
1432,0.025,0.105
1433,0.015,0.125
1434,0.085,0.165
1435,0.085,0.165
1436,0.125,0.205
1437,0.085,0.225
1438,0.165,0.295
1439,0.225,0.295
1440,0.165,0.325
1441,0.185,0.395
1442,0.295,0.465
1443,0.335,0.495
1444,0.255,0.525
1445,0.375,0.585
1446,0.365,0.545
1447,0.295,0.495
1448,0.295,0.425
1449,0.265,0.385
1450,0.275,0.325
1451,0.245,0.235
1452,0.135,0.095
1453,0.085,0.005
1454,0.035,-0.045
1455,-0.035,-0.105
1456,-0.085,-0.175
1457,-0.165,-0.225
1458,-0.225,-0.235
1459,-0.205,-0.225
1460,-0.175,-0.205
1461,-0.195,-0.215
1462,-0.185,-0.215
1463,-0.225,-0.185
1464,-0.155,-0.175
1465,-0.185,-0.175
1466,-0.115,-0.125
1467,-0.135,-0.165
1468,-0.095,-0.095
1469,-0.075,-0.095
1470,-0.055,-0.105
1471,-0.115,-0.115
1472,-0.125,-0.135
1473,-0.125,-0.115
1474,-0.095,-0.095
1475,-0.095,-0.135
1476,-0.155,-0.175
1477,-0.155,-0.135
1478,-0.115,-0.075
1479,-0.095,-0.075
1480,-0.075,-0.085
1481,-0.025,-0.065
1482,0.015,-0.095
1483,-0.095,-0.155
1484,-0.165,-0.215
1485,-0.165,-0.205
1486,-0.195,-0.245
1487,-0.245,-0.245
1488,-0.265,-0.255
1489,-0.265,-0.275
1490,-0.295,-0.245
1491,-0.285,-0.255
1492,-0.285,-0.275
1493,-0.275,-0.255
1494,-0.235,-0.225
1495,-0.335,-0.195
1496,-0.655,-0.045
1497,-0.605,0.395
1498,0.345,0.415
1499,1.665,-0.205
1500,2.615,-0.025
1501,2.925,-0.395
1502,0.595,-1.145
1503,-0.995,-0.945
1504,-1.065,-0.675
1505,-0.935,-0.535
1506,-0.695,-0.285
1507,-0.565,-0.105
1508,-0.395,0.005
1509,-0.325,0.025
1510,-0.295,0.055
1511,-0.255,0.085
1512,-0.235,0.085
1513,-0.225,0.115
1514,-0.195,0.145
1515,-0.215,0.145
1516,-0.195,0.185
1517,-0.165,0.235
1518,-0.115,0.285
1519,-0.065,0.335
1520,-0.075,0.385
1521,-0.045,0.425
1522,-0.005,0.495
1523,0.035,0.515
1524,0.045,0.525
1525,0.075,0.545
1526,0.065,0.535
1527,0.055,0.485
1528,0.085,0.455
1529,0.085,0.415
1530,0.045,0.305
1531,0.025,0.225
1532,-0.015,0.135
1533,-0.105,0.005
1534,-0.125,-0.025
1535,-0.295,-0.135
1536,-0.435,-0.175
1537,-0.305,-0.125
1538,-0.155,-0.115
1539,-0.295,-0.175
1540,-0.285,-0.135
1541,-0.275,-0.165
1542,-0.285,-0.145
1543,-0.275,-0.095
1544,-0.275,-0.165
1545,-0.375,-0.165
1546,-0.235,-0.105
1547,-0.185,-0.115
1548,-0.225,-0.135
1549,-0.235,-0.125
1550,-0.245,-0.155
1551,-0.245,-0.145
1552,-0.345,-0.205
1553,-0.585,-0.205
1554,-0.235,-0.165
1555,-0.145,-0.165
1556,-0.525,-0.295
1557,-0.475,-0.285
1558,-0.165,-0.165
1559,-0.405,-0.225
1560,-0.195,-0.275
1561,-0.235,-0.295
1562,-0.635,-0.305
1563,-0.575,-0.285
1564,-0.235,-0.225
1565,-0.105,-0.225
1566,-0.225,-0.275
1567,-0.255,-0.265
1568,-0.605,-0.325
1569,-0.455,-0.295
1570,-0.385,-0.275
1571,-0.235,-0.275
1572,-0.195,-0.275
1573,-0.225,-0.255
1574,-0.325,-0.295
1575,-0.305,-0.245
1576,-0.405,-0.235
1577,-0.295,-0.215
1578,-0.225,-0.185
1579,-0.155,-0.145
1580,-0.135,-0.175
1581,-0.125,-0.195
1582,-0.275,-0.225
1583,-0.265,-0.255
1584,-0.235,-0.325
1585,-0.255,-0.325
1586,-0.315,-0.285
1587,-0.325,-0.315
1588,-0.375,-0.325
1589,-0.295,-0.315
1590,-0.355,-0.275
1591,-0.275,-0.275
1592,-0.245,-0.275
1593,-0.315,-0.355
1594,-0.835,-0.345
1595,-0.715,0.005
1596,-0.355,0.375
1597,1.965,0.625
1598,2.795,1.195
1599,2.895,1.215
1600,3.015,0.245
1601,0.525,-1.145
1602,-0.875,-0.915
1603,-1.095,-0.715
1604,-1.005,-0.555
1605,-0.905,-0.335
1606,-0.525,-0.075
1607,-0.345,-0.075
1608,-0.515,-0.085
1609,-0.255,0.025
1610,-0.175,0.045
1611,-0.245,0.035
1612,-0.235,0.035
1613,-0.205,0.085
1614,-0.225,0.145
1615,-0.175,0.145
1616,-0.075,0.195
1617,-0.135,0.215
1618,-0.095,0.255
1619,-0.005,0.335
1620,0.025,0.355
1621,-0.035,0.345
1622,-0.045,0.385
1623,0.115,0.415
1624,0.155,0.415
1625,0.155,0.405
1626,0.085,0.335
1627,0.075,0.365
1628,0.175,0.345
1629,0.105,0.255
1630,0.105,0.195
1631,0.055,0.095
1632,-0.005,0.035
1633,-0.025,-0.025
1634,-0.085,-0.055
1635,-0.105,-0.155
1636,-0.315,-0.145
1637,-0.225,-0.145
1638,-0.115,-0.155
1639,-0.205,-0.165
1640,-0.205,-0.165
1641,-0.175,-0.165
1642,-0.205,-0.165
1643,-0.175,-0.185
1644,-0.195,-0.165
1645,-0.175,-0.165
1646,-0.175,-0.185
1647,-0.155,-0.175
1648,-0.165,-0.185
1649,-0.185,-0.215
1650,-0.175,-0.225
1651,-0.185,-0.215
1652,-0.205,-0.235
1653,-0.215,-0.245
1654,-0.185,-0.255
1655,-0.275,-0.295
1656,-0.205,-0.235
1657,-0.235,-0.295
1658,-0.175,-0.275
1659,-0.325,-0.305
1660,-0.255,-0.285
1661,-0.205,-0.265
1662,-0.215,-0.285
1663,-0.155,-0.255
1664,-0.235,-0.305
1665,-0.305,-0.315
1666,-0.185,-0.245
1667,-0.215,-0.285
1668,-0.245,-0.295
1669,-0.235,-0.255
1670,-0.245,-0.285
1671,-0.245,-0.275
1672,-0.175,-0.285
1673,-0.195,-0.255
1674,-0.165,-0.285
1675,-0.235,-0.245
1676,-0.185,-0.255
1677,-0.175,-0.255
1678,-0.215,-0.235
1679,-0.135,-0.205
1680,-0.155,-0.255
1681,-0.165,-0.235
1682,-0.205,-0.235
1683,-0.145,-0.225
1684,-0.245,-0.245
1685,-0.185,-0.195
1686,-0.085,-0.155
1687,-0.055,-0.145
1688,-0.085,-0.145
1689,-0.085,-0.125
1690,0.005,-0.085
1691,0.025,-0.095
1692,-0.025,-0.185
1693,-0.115,-0.205
1694,-0.105,-0.195
1695,-0.085,-0.215
1696,-0.145,-0.235
1697,-0.205,-0.245
1698,-0.145,-0.185
1699,-0.125,-0.195
1700,-0.135,-0.205
1701,-0.075,-0.165
1702,-0.075,-0.205
1703,-0.565,-0.385
1704,-0.715,-0.035
1705,-0.365,0.335
1706,0.605,0.345
1707,2.005,0.625
1708,2.825,1.315
1709,3.155,1.135
1710,1.825,-0.695
1711,-0.255,-0.985
1712,-0.955,-0.735
1713,-0.925,-0.545
1714,-0.735,-0.295
1715,-0.445,-0.045
1716,-0.295,0.035
1717,-0.205,0.065
1718,-0.195,0.105
1719,-0.145,0.125
1720,-0.125,0.135
1721,-0.095,0.165
1722,-0.075,0.205
1723,-0.025,0.205
1724,-0.025,0.225
1725,-0.025,0.285
1726,0.025,0.325
1727,0.015,0.355
1728,0.055,0.405
1729,0.065,0.475
1730,0.185,0.565
1731,0.195,0.565
1732,0.185,0.595
1733,0.235,0.615
1734,0.275,0.625
1735,0.315,0.605
1736,0.345,0.585
1737,0.305,0.505
1738,0.295,0.465
1739,0.285,0.385
1740,0.265,0.285
1741,0.175,0.175
1742,0.105,0.105
1743,0.025,0.025
1744,0.005,-0.025
1745,-0.045,-0.105
1746,-0.045,-0.115
1747,-0.095,-0.145
1748,-0.125,-0.165
1749,-0.105,-0.165
1750,-0.135,-0.185
1751,-0.115,-0.165
1752,-0.115,-0.175
1753,-0.075,-0.155
1754,-0.055,-0.125
1755,-0.085,-0.145
1756,-0.095,-0.155
1757,-0.085,-0.155
1758,-0.115,-0.155
1759,-0.055,-0.145
1760,-0.055,-0.165
1761,-0.065,-0.155
1762,-0.055,-0.175
1763,-0.065,-0.205
1764,-0.115,-0.245
1765,-0.115,-0.235
1766,-0.125,-0.255
1767,-0.145,-0.265
1768,-0.135,-0.265
1769,-0.105,-0.265
1770,-0.095,-0.245
1771,-0.135,-0.275
1772,-0.145,-0.295
1773,-0.155,-0.305
1774,-0.175,-0.295
1775,-0.135,-0.275
1776,-0.125,-0.275
1777,-0.125,-0.285
1778,-0.115,-0.255
1779,-0.125,-0.265
1780,-0.115,-0.265
1781,-0.135,-0.285
1782,-0.125,-0.285
1783,-0.105,-0.265
1784,-0.135,-0.285
1785,-0.145,-0.265
1786,-0.105,-0.225
1787,-0.075,-0.225
1788,-0.065,-0.195
1789,-0.015,-0.175
1790,-0.035,-0.185
1791,0.025,-0.125
1792,0.085,-0.145
1793,0.045,-0.135
1794,0.035,-0.175
1795,-0.035,-0.245
1796,-0.095,-0.275
1797,-0.135,-0.305
1798,-0.125,-0.255
1799,-0.125,-0.255
1800,-0.145,-0.255
1801,-0.135,-0.255
1802,-0.125,-0.235
1803,-0.105,-0.245
1804,-0.115,-0.225
1805,-0.325,-0.385
1806,-0.595,-0.215
1807,-0.505,0.115
1808,0.345,0.425
1809,1.655,0.505
1810,2.695,1.105
1811,3.075,0.945
1812,1.965,-0.755
1813,-0.275,-1.125
1814,-0.945,-0.925
1815,-0.955,-0.735
1816,-0.805,-0.535
1817,-0.595,-0.275
1818,-0.265,-0.015
1819,-0.195,-0.015
1820,-0.175,0.005
1821,-0.165,0.025
1822,-0.115,0.045
1823,-0.135,0.065
1824,-0.105,0.085
1825,-0.075,0.095
1826,-0.005,0.145
1827,-0.005,0.145
1828,-0.015,0.165
1829,0.035,0.215
1830,0.055,0.265
1831,0.055,0.275
1832,0.105,0.345
1833,0.165,0.395
1834,0.275,0.475
1835,0.275,0.465
1836,0.265,0.475
1837,0.345,0.515
1838,0.345,0.495
1839,0.345,0.455
1840,0.345,0.415
1841,0.305,0.345
1842,0.275,0.255
1843,0.195,0.145
1844,0.085,0.045
1845,0.015,-0.025
1846,-0.065,-0.095
1847,-0.085,-0.135
1848,-0.125,-0.185
1849,-0.155,-0.205
1850,-0.115,-0.185
1851,-0.175,-0.185
1852,-0.205,-0.205
1853,-0.155,-0.185
1854,-0.145,-0.175
1855,-0.125,-0.185
1856,-0.145,-0.195
1857,-0.155,-0.165
1858,-0.075,-0.115
1859,-0.095,-0.145
1860,-0.105,-0.155
1861,-0.065,-0.145
1862,-0.055,-0.155
1863,-0.115,-0.165
1864,-0.115,-0.195
1865,-0.075,-0.185
1866,-0.075,-0.185
1867,-0.115,-0.215
1868,-0.115,-0.225
1869,-0.115,-0.225
1870,-0.125,-0.225
1871,-0.125,-0.225
1872,-0.155,-0.235
1873,-0.145,-0.235
1874,-0.125,-0.235
1875,-0.155,-0.255
1876,-0.145,-0.255
1877,-0.165,-0.235
1878,-0.155,-0.215
1879,-0.135,-0.215
1880,-0.105,-0.185
1881,-0.105,-0.155
1882,-0.035,-0.125
1883,0.025,-0.095
1884,0.035,-0.115
1885,0.025,-0.145
1886,-0.025,-0.155
1887,-0.065,-0.195
1888,-0.055,-0.235
1889,-0.105,-0.275
1890,-0.105,-0.245
1891,-0.175,-0.245
1892,-0.175,-0.265
1893,-0.155,-0.245
1894,-0.145,-0.245
1895,-0.195,-0.255
1896,-0.195,-0.245
1897,-0.115,-0.235
1898,-0.425,-0.355
1899,-0.635,-0.065
1900,-0.385,0.305
1901,0.595,0.365
1902,1.935,0.435
1903,2.805,0.985
1904,3.155,0.475
1905,1.345,-1.085
1906,-0.525,-1.105
1907,-0.995,-0.865
1908,-0.955,-0.715
1909,-0.765,-0.445
1910,-0.485,-0.135
1911,-0.255,0.015
1912,-0.225,0.025
1913,-0.195,0.045
1914,-0.145,0.085
1915,-0.135,0.095
1916,-0.125,0.105
1917,-0.115,0.135
1918,-0.095,0.165
1919,-0.055,0.215
1920,-0.055,0.205
1921,0.005,0.275
1922,0.045,0.345
1923,0.065,0.385
1924,0.105,0.425
1925,0.145,0.475
1926,0.195,0.515
1927,0.235,0.565
1928,0.295,0.575
1929,0.335,0.575
1930,0.375,0.575
1931,0.335,0.525
1932,0.305,0.465
1933,0.295,0.405
1934,0.265,0.315
1935,0.215,0.225
1936,0.095,0.105
1937,0.035,0.025
1938,-0.055,-0.045
1939,-0.125,-0.105
1940,-0.135,-0.155
1941,-0.175,-0.185
1942,-0.205,-0.195
1943,-0.195,-0.185
1944,-0.215,-0.205
1945,-0.225,-0.195
1946,-0.205,-0.165
1947,-0.195,-0.165
1948,-0.195,-0.155
1949,-0.215,-0.175
1950,-0.215,-0.155
1951,-0.185,-0.135
1952,-0.155,-0.145
1953,-0.165,-0.135
1954,-0.135,-0.115
1955,-0.155,-0.155
1956,-0.125,-0.145
1957,-0.155,-0.155
1958,-0.175,-0.175
1959,-0.185,-0.175
1960,-0.185,-0.175
1961,-0.195,-0.205
1962,-0.175,-0.175
1963,-0.205,-0.205
1964,-0.225,-0.215
1965,-0.205,-0.215
1966,-0.225,-0.225
1967,-0.225,-0.205
1968,-0.205,-0.205
1969,-0.205,-0.215
1970,-0.185,-0.195
1971,-0.185,-0.205
1972,-0.195,-0.195
1973,-0.185,-0.165
1974,-0.155,-0.145
1975,-0.125,-0.115
1976,-0.085,-0.105
1977,-0.025,-0.095
1978,-0.045,-0.125
1979,-0.045,-0.125
1980,-0.135,-0.205
1981,-0.165,-0.245
1982,-0.195,-0.245
1983,-0.205,-0.235
1984,-0.215,-0.245
1985,-0.235,-0.275
1986,-0.245,-0.255
1987,-0.245,-0.245
1988,-0.235,-0.235
1989,-0.225,-0.225
1990,-0.205,-0.215
1991,-0.405,-0.375
1992,-0.705,-0.185
1993,-0.625,0.105
1994,0.155,0.055
1995,1.385,0.055
1996,2.575,0.635
1997,3.095,0.735
1998,1.915,-0.885
1999,-0.395,-1.105
2000,-1.085,-0.805
2001,-0.935,-0.555
2002,-0.695,-0.285
2003,-0.425,-0.015
2004,-0.315,0.015
2005,-0.285,0.035
2006,-0.255,0.065
2007,-0.215,0.105
2008,-0.215,0.115
2009,-0.155,0.155
2010,-0.145,0.195
2011,-0.125,0.225
2012,-0.105,0.235
2013,-0.085,0.285
2014,-0.075,0.335
2015,-0.025,0.395
2016,0.025,0.465
2017,0.055,0.505
2018,0.135,0.605
2019,0.155,0.635
2020,0.205,0.665
2021,0.275,0.705
2022,0.305,0.705
2023,0.315,0.695
2024,0.365,0.655
2025,0.375,0.585
2026,0.375,0.485
2027,0.295,0.355
2028,0.195,0.225
2029,0.125,0.115
2030,0.015,0.025
2031,-0.085,-0.075
2032,-0.165,-0.145
2033,-0.195,-0.165
2034,-0.185,-0.175
2035,-0.215,-0.205
2036,-0.265,-0.235
2037,-0.255,-0.215
2038,-0.235,-0.205
2039,-0.225,-0.195
2040,-0.225,-0.185
2041,-0.225,-0.175
2042,-0.195,-0.145
2043,-0.195,-0.155
2044,-0.185,-0.125
2045,-0.195,-0.125
2046,-0.185,-0.125
2047,-0.165,-0.135
2048,-0.195,-0.135
2049,-0.195,-0.155
2050,-0.165,-0.135
2051,-0.165,-0.155
2052,-0.165,-0.185
2053,-0.185,-0.195
2054,-0.205,-0.205
2055,-0.205,-0.205
2056,-0.215,-0.215
2057,-0.215,-0.245
2058,-0.195,-0.225
2059,-0.225,-0.225
2060,-0.225,-0.245
2061,-0.215,-0.235
2062,-0.225,-0.235
2063,-0.235,-0.235
2064,-0.225,-0.245
2065,-0.225,-0.215
2066,-0.205,-0.185
2067,-0.205,-0.195
2068,-0.185,-0.175
2069,-0.155,-0.145
2070,-0.105,-0.125
2071,-0.075,-0.115
2072,-0.025,-0.135
2073,-0.055,-0.155
2074,-0.055,-0.145
2075,-0.125,-0.225
2076,-0.185,-0.265
2077,-0.165,-0.265
2078,-0.185,-0.265
2079,-0.245,-0.285
2080,-0.255,-0.255
2081,-0.235,-0.255
2082,-0.235,-0.235
2083,-0.225,-0.235
2084,-0.245,-0.235
2085,-0.205,-0.225
2086,-0.435,-0.425
2087,-0.715,-0.115
2088,-0.535,0.165
2089,0.385,-0.085
2090,1.785,0.365
2091,2.805,1.095
2092,3.155,0.565
2093,1.545,-1.045
2094,-0.575,-1.085
2095,-1.145,-0.785
2096,-1.005,-0.555
2097,-0.785,-0.285
2098,-0.405,0.005
2099,-0.285,0.045
2100,-0.295,0.035
2101,-0.245,0.075
2102,-0.235,0.095
2103,-0.225,0.115
2104,-0.215,0.145
2105,-0.165,0.165
2106,-0.115,0.225
2107,-0.115,0.245
2108,-0.075,0.275
2109,-0.085,0.315
2110,-0.065,0.355
2111,-0.005,0.435
2112,0.045,0.495
2113,0.095,0.545
2114,0.175,0.625
2115,0.195,0.635
2116,0.225,0.655
2117,0.295,0.675
2118,0.335,0.665
2119,0.345,0.625
2120,0.345,0.565
2121,0.325,0.475
2122,0.315,0.385
2123,0.195,0.235
2124,0.075,0.105
2125,-0.015,0.005
2126,-0.095,-0.055
2127,-0.145,-0.095
2128,-0.205,-0.155
2129,-0.255,-0.205
2130,-0.255,-0.165
2131,-0.245,-0.175
2132,-0.235,-0.195
2133,-0.255,-0.195
2134,-0.255,-0.185
2135,-0.275,-0.175
2136,-0.235,-0.165
2137,-0.245,-0.165
2138,-0.225,-0.135
2139,-0.225,-0.145
2140,-0.215,-0.135
2141,-0.215,-0.135
2142,-0.215,-0.135
2143,-0.205,-0.135
2144,-0.205,-0.155
2145,-0.225,-0.155
2146,-0.205,-0.145
2147,-0.215,-0.175
2148,-0.215,-0.195
2149,-0.225,-0.185
2150,-0.205,-0.195
2151,-0.265,-0.225
2152,-0.265,-0.225
2153,-0.235,-0.225
2154,-0.255,-0.215
2155,-0.255,-0.225
2156,-0.255,-0.225
2157,-0.235,-0.225
2158,-0.255,-0.235
2159,-0.265,-0.235
2160,-0.255,-0.245
2161,-0.255,-0.245
2162,-0.235,-0.205
2163,-0.215,-0.225
2164,-0.255,-0.255
2165,-0.255,-0.235
2166,-0.235,-0.225
2167,-0.255,-0.205
2168,-0.235,-0.215
2169,-0.195,-0.185
2170,-0.175,-0.145
2171,-0.135,-0.125
2172,-0.125,-0.125
2173,-0.065,-0.105
2174,-0.045,-0.115
2175,-0.065,-0.115
2176,-0.115,-0.195
2177,-0.145,-0.225
2178,-0.185,-0.255
2179,-0.205,-0.245
2180,-0.235,-0.255
2181,-0.245,-0.275
2182,-0.205,-0.245
2183,-0.215,-0.235
2184,-0.215,-0.225
2185,-0.185,-0.195
2186,-0.145,-0.175
2187,-0.435,-0.355
2188,-0.675,-0.045
2189,-0.475,0.245
2190,0.405,0.085
2191,1.675,0.185
2192,2.745,0.785
2193,3.185,0.465
2194,1.725,-0.995
2195,-0.465,-1.075
2196,-1.045,-0.835
2197,-0.965,-0.615
2198,-0.745,-0.355
2199,-0.515,-0.075
2200,-0.285,0.065
2201,-0.245,0.085
2202,-0.205,0.105
2203,-0.165,0.125
2204,-0.145,0.145
2205,-0.135,0.155
2206,-0.095,0.205
2207,-0.095,0.235
2208,-0.055,0.255
2209,-0.025,0.295
2210,-0.005,0.325
2211,0.045,0.395
2212,0.065,0.415
2213,0.105,0.515
2214,0.165,0.575
2215,0.195,0.615
2216,0.245,0.635
2217,0.295,0.645
2218,0.345,0.685
2219,0.385,0.675
2220,0.375,0.645
2221,0.375,0.575
2222,0.405,0.505
2223,0.355,0.425
2224,0.305,0.275
2225,0.195,0.165
2226,0.125,0.105
2227,0.065,-0.025
2228,-0.055,-0.065
2229,-0.105,-0.135
2230,-0.135,-0.135
2231,-0.165,-0.185
2232,-0.165,-0.175
2233,-0.175,-0.195
2234,-0.155,-0.155
2235,-0.135,-0.195
2236,-0.135,-0.135
2237,-0.135,-0.165
2238,-0.135,-0.115
2239,-0.125,-0.125
2240,-0.095,-0.135
2241,-0.095,-0.125
2242,-0.095,-0.105
2243,-0.075,-0.115
2244,-0.115,-0.155
2245,-0.115,-0.155
2246,-0.085,-0.145
2247,-0.145,-0.185
2248,-0.125,-0.185
2249,-0.155,-0.205
2250,-0.125,-0.165
2251,-0.155,-0.205
2252,-0.165,-0.225
2253,-0.175,-0.225
2254,-0.195,-0.235
2255,-0.195,-0.205
2256,-0.155,-0.225
2257,-0.155,-0.245
2258,-0.195,-0.235
2259,-0.185,-0.225
2260,-0.175,-0.245
2261,-0.155,-0.215
2262,-0.145,-0.245
2263,-0.205,-0.245
2264,-0.185,-0.205
2265,-0.185,-0.235
2266,-0.185,-0.225
2267,-0.145,-0.225
2268,-0.175,-0.225
2269,-0.145,-0.215
2270,-0.125,-0.215
2271,-0.205,-0.205
2272,-0.185,-0.225
2273,-0.165,-0.185
2274,-0.155,-0.185
2275,-0.145,-0.205
2276,-0.115,-0.185
2277,-0.155,-0.165
2278,-0.125,-0.125
2279,-0.085,-0.095
2280,-0.005,-0.075
2281,0.005,-0.135
2282,0.005,-0.125
2283,-0.025,-0.165
2284,-0.105,-0.235
2285,-0.135,-0.265
2286,-0.145,-0.235
2287,-0.205,-0.195
2288,-0.195,-0.285
2289,-0.205,-0.285
2290,-0.165,-0.225
2291,-0.165,-0.255
2292,-0.165,-0.235
2293,-0.195,-0.275
2294,-0.565,-0.245
2295,-0.635,0.115
2296,-0.135,0.115
2297,0.925,-0.275
2298,2.265,0.055
2299,2.905,0.685
2300,3.085,-0.085
2301,0.885,-1.165
2302,-0.745,-0.985
2303,-0.995,-0.625
2304,-0.765,-0.325
2305,-0.445,-0.035
2306,-0.285,0.045
2307,-0.235,0.055
2308,-0.235,0.105
2309,-0.205,0.085
2310,-0.175,0.125
2311,-0.175,0.145
2312,-0.155,0.145
2313,-0.095,0.205
2314,-0.085,0.235
2315,-0.055,0.325
2316,-0.055,0.295
2317,-0.035,0.415
2318,0.025,0.415
2319,0.075,0.485
2320,0.135,0.565
2321,0.185,0.585
2322,0.205,0.695
2323,0.305,0.725
2324,0.335,0.735
2325,0.345,0.725
2326,0.345,0.755
2327,0.355,0.635
2328,0.355,0.575
2329,0.335,0.485
2330,0.285,0.365
2331,0.215,0.195
2332,0.125,0.075
2333,0.045,0.015
2334,-0.015,-0.065
2335,-0.105,-0.125
2336,-0.145,-0.185
2337,-0.175,-0.185
2338,-0.135,-0.195
2339,-0.195,-0.225
2340,-0.195,-0.205
2341,-0.165,-0.225
2342,-0.175,-0.165
2343,-0.165,-0.185
2344,-0.115,-0.165
2345,-0.155,-0.185
2346,-0.165,-0.085
2347,-0.115,-0.185
2348,-0.145,-0.195
2349,-0.155,-0.175
2350,-0.135,-0.185
2351,-0.125,-0.175
2352,-0.135,-0.215
2353,-0.155,-0.195
2354,-0.175,-0.205
2355,-0.155,-0.225
2356,-0.195,-0.275
2357,-0.205,-0.265
2358,-0.195,-0.255
2359,-0.225,-0.275
2360,-0.195,-0.295
2361,-0.205,-0.275
2362,-0.205,-0.265
2363,-0.215,-0.275
2364,-0.215,-0.275
2365,-0.205,-0.285
2366,-0.205,-0.295
2367,-0.205,-0.285
2368,-0.225,-0.295
2369,-0.205,-0.295
2370,-0.235,-0.295
2371,-0.215,-0.275
2372,-0.205,-0.315
2373,-0.235,-0.265
2374,-0.185,-0.195
2375,-0.155,-0.195
2376,-0.125,-0.195
2377,-0.085,-0.195
2378,-0.055,-0.205
2379,-0.065,-0.215
2380,-0.105,-0.255
2381,-0.145,-0.295
2382,-0.175,-0.325
2383,-0.215,-0.335
2384,-0.225,-0.325
2385,-0.255,-0.345
2386,-0.265,-0.325
2387,-0.255,-0.345
2388,-0.285,-0.355
2389,-0.245,-0.315
2390,-0.235,-0.305
2391,-0.355,-0.455
2392,-0.695,-0.275
2393,-0.675,0.015
2394,0.025,-0.105
2395,1.305,-0.025
2396,2.605,0.675
2397,3.115,0.415
2398,2.025,-1.025
2399,-0.325,-1.135
2400,-1.095,-0.905
2401,-0.995,-0.645
2402,-0.805,-0.375
2403,-0.505,-0.105
2404,-0.315,-0.055
2405,-0.285,-0.055
2406,-0.265,-0.015
2407,-0.235,0.025
2408,-0.205,0.015
2409,-0.195,0.065
2410,-0.195,0.095
2411,-0.155,0.125
2412,-0.115,0.165
2413,-0.065,0.185
2414,-0.085,0.215
2415,-0.035,0.275
2416,-0.005,0.335
2417,0.015,0.385
2418,0.095,0.475
2419,0.145,0.525
2420,0.185,0.555
2421,0.255,0.615
2422,0.295,0.585
2423,0.315,0.595
2424,0.335,0.555
2425,0.315,0.495
2426,0.325,0.445
2427,0.295,0.355
2428,0.215,0.205
2429,0.095,0.075
2430,0.045,-0.015
2431,-0.055,-0.095
2432,-0.075,-0.215
2433,-0.195,-0.245
2434,-0.165,-0.265
2435,-0.215,-0.265
2436,-0.285,-0.265
2437,-0.345,-0.255
2438,-0.285,-0.265
2439,-0.265,-0.235
2440,-0.255,-0.245
2441,-0.265,-0.295
2442,-0.235,-0.235
2443,-0.155,-0.215
2444,-0.165,-0.265
2445,-0.215,-0.235
2446,-0.275,-0.195
2447,-0.245,-0.225
2448,-0.215,-0.165
2449,-0.225,-0.265
2450,-0.215,-0.215
2451,-0.205,-0.295
2452,-0.205,-0.285
2453,-0.185,-0.265
2454,-0.235,-0.315
2455,-0.295,-0.275
2456,-0.185,-0.335
2457,-0.155,-0.305
2458,-0.305,-0.285
2459,-0.285,-0.305
2460,-0.255,-0.285
2461,-0.245,-0.215
2462,-0.225,-0.235
2463,-0.165,-0.235
2464,-0.145,-0.185
2465,-0.095,-0.205
2466,-0.065,-0.195
2467,-0.065,-0.265
2468,-0.105,-0.345
2469,-0.175,-0.335
2470,-0.315,-0.345
2471,-0.345,-0.345
2472,-0.325,-0.365
2473,-0.335,-0.365
2474,-0.315,-0.355
2475,-0.315,-0.335
2476,-0.325,-0.315
2477,-0.295,-0.355
2478,-0.255,-0.345
2479,-0.425,-0.505
2480,-0.795,-0.265
2481,-0.755,0.015
2482,-0.055,-0.065
2483,1.185,-0.035
2484,2.545,0.695
2485,3.145,0.305
2486,1.735,-1.145
2487,-0.485,-1.145
2488,-1.165,-0.885
2489,-1.045,-0.645
2490,-0.815,-0.365
2491,-0.515,-0.115
2492,-0.375,-0.065
2493,-0.335,-0.075
2494,-0.305,-0.045
2495,-0.305,-0.025
2496,-0.275,0.005
2497,-0.245,0.035
2498,-0.235,0.065
2499,-0.215,0.065
2500,-0.205,0.095
2501,-0.175,0.155
2502,-0.125,0.195
2503,-0.135,0.255
2504,-0.075,0.285
2505,-0.035,0.345
2506,-0.005,0.445
2507,0.085,0.495
2508,0.135,0.515
2509,0.165,0.555
2510,0.215,0.555
2511,0.225,0.575
2512,0.305,0.545
2513,0.235,0.485
2514,0.215,0.425
2515,0.215,0.315
2516,0.155,0.195
2517,0.075,0.085
2518,-0.045,-0.015
2519,-0.135,-0.095
2520,-0.185,-0.145
2521,-0.225,-0.205
2522,-0.275,-0.235
2523,-0.305,-0.255
2524,-0.305,-0.255
2525,-0.265,-0.275
2526,-0.295,-0.235
2527,-0.315,-0.225
2528,-0.255,-0.225
2529,-0.245,-0.225
2530,-0.265,-0.225
2531,-0.255,-0.215
2532,-0.265,-0.205
2533,-0.235,-0.225
2534,-0.235,-0.235
2535,-0.265,-0.225
2536,-0.255,-0.245
2537,-0.245,-0.235
2538,-0.255,-0.245
2539,-0.255,-0.255
2540,-0.275,-0.265
2541,-0.275,-0.265
2542,-0.275,-0.285
2543,-0.305,-0.285
2544,-0.285,-0.275
2545,-0.295,-0.285
2546,-0.295,-0.285
2547,-0.295,-0.275
2548,-0.305,-0.295
2549,-0.295,-0.245
2550,-0.235,-0.215
2551,-0.265,-0.215
2552,-0.265,-0.195
2553,-0.195,-0.155
2554,-0.145,-0.165
2555,-0.155,-0.205
2556,-0.215,-0.265
2557,-0.275,-0.305
2558,-0.265,-0.305
2559,-0.325,-0.345
2560,-0.345,-0.335
2561,-0.395,-0.345
2562,-0.385,-0.325
2563,-0.345,-0.325
2564,-0.375,-0.325
2565,-0.355,-0.305
2566,-0.345,-0.305
2567,-0.305,-0.325
2568,-0.675,-0.435
2569,-0.835,-0.085
2570,-0.495,0.205
2571,0.465,-0.035
2572,1.905,0.355
2573,2.815,0.835
2574,2.955,-0.305
2575,0.405,-1.295
2576,-0.945,-1.075
2577,-1.195,-0.855
2578,-1.035,-0.645
2579,-0.825,-0.385
2580,-0.525,-0.115
2581,-0.375,-0.055
2582,-0.395,-0.055
2583,-0.365,-0.025
2584,-0.315,-0.005
2585,-0.245,0.045
2586,-0.305,0.065
2587,-0.265,0.065
2588,-0.225,0.095
2589,-0.115,0.145
2590,-0.225,0.155
2591,-0.205,0.205
2592,-0.105,0.245
2593,-0.095,0.295
2594,-0.055,0.365
2595,0.055,0.395
2596,0.125,0.435
2597,0.165,0.495
2598,0.105,0.505
2599,0.105,0.535
2600,0.175,0.525
2601,0.195,0.495
2602,0.225,0.455
2603,0.205,0.365
2604,0.155,0.265
2605,0.055,0.165
2606,0.005,0.055
2607,-0.085,-0.025
2608,-0.155,-0.115
2609,-0.205,-0.155
2610,-0.245,-0.165
2611,-0.285,-0.215
2612,-0.315,-0.225
2613,-0.335,-0.225
2614,-0.285,-0.195
2615,-0.295,-0.205
2616,-0.275,-0.215
2617,-0.265,-0.205
2618,-0.225,-0.165
2619,-0.245,-0.195
2620,-0.255,-0.195
2621,-0.235,-0.185
2622,-0.215,-0.205
2623,-0.225,-0.195
2624,-0.205,-0.215
2625,-0.215,-0.225
2626,-0.235,-0.215
2627,-0.195,-0.225
2628,-0.235,-0.255
2629,-0.265,-0.255
2630,-0.245,-0.265
2631,-0.245,-0.255
2632,-0.245,-0.285
2633,-0.235,-0.285
2634,-0.225,-0.245
2635,-0.215,-0.265
2636,-0.235,-0.285
2637,-0.205,-0.225
2638,-0.175,-0.215
2639,-0.165,-0.195
2640,-0.125,-0.165
2641,-0.065,-0.165
2642,-0.055,-0.185
2643,-0.075,-0.205
2644,-0.125,-0.265
2645,-0.175,-0.285
2646,-0.195,-0.335
2647,-0.235,-0.315
2648,-0.265,-0.345
2649,-0.275,-0.355
2650,-0.265,-0.315
2651,-0.235,-0.325
2652,-0.275,-0.315
2653,-0.255,-0.325
2654,-0.275,-0.295
2655,-0.295,-0.375
2656,-0.665,-0.355
2657,-0.685,0.035
2658,-0.165,0.145
2659,0.825,-0.085
2660,2.185,0.295
2661,2.905,0.655
2662,2.895,-0.585
2663,0.325,-1.205
2664,-1.115,-0.975
2665,-1.195,-0.715
2666,-0.925,-0.465
2667,-0.695,-0.205
2668,-0.425,-0.025
2669,-0.335,-0.025
2670,-0.305,-0.005
2671,-0.265,0.035
2672,-0.255,0.035
2673,-0.225,0.075
2674,-0.185,0.105
2675,-0.135,0.125
2676,-0.135,0.145
2677,-0.155,0.195
2678,-0.065,0.235
2679,-0.075,0.285
2680,-0.045,0.315
2681,0.005,0.375
2682,0.045,0.455
2683,0.105,0.485
2684,0.145,0.525
2685,0.225,0.585
2686,0.245,0.585
2687,0.275,0.575
2688,0.295,0.545
2689,0.305,0.485
2690,0.305,0.435
2691,0.265,0.315
2692,0.195,0.215
2693,0.115,0.125
2694,0.055,0.035
2695,-0.035,-0.035
2696,-0.085,-0.115
2697,-0.115,-0.165
2698,-0.165,-0.175
2699,-0.185,-0.205
2700,-0.175,-0.225
2701,-0.155,-0.225
2702,-0.205,-0.205
2703,-0.245,-0.195
2704,-0.205,-0.185
2705,-0.195,-0.185
2706,-0.175,-0.195
2707,-0.155,-0.175
2708,-0.175,-0.185
2709,-0.155,-0.185
2710,-0.135,-0.185
2711,-0.155,-0.185
2712,-0.165,-0.205
2713,-0.165,-0.215
2714,-0.185,-0.205
2715,-0.175,-0.235
2716,-0.165,-0.235
2717,-0.175,-0.245
2718,-0.225,-0.265
2719,-0.115,-0.265
2720,-0.205,-0.275
2721,-0.145,-0.265
2722,-0.235,-0.245
2723,-0.275,-0.255
2724,-0.265,-0.275
2725,-0.235,-0.275
2726,-0.215,-0.255
2727,-0.205,-0.255
2728,-0.225,-0.275
2729,-0.215,-0.265
2730,-0.195,-0.225
2731,-0.185,-0.245
2732,-0.195,-0.215
2733,-0.165,-0.175
2734,-0.125,-0.165
2735,-0.095,-0.155
2736,-0.035,-0.155
2737,-0.015,-0.185
2738,-0.025,-0.135
2739,-0.085,-0.235
2740,-0.155,-0.285
2741,-0.145,-0.285
2742,-0.105,-0.305
2743,-0.235,-0.295
2744,-0.255,-0.315
2745,-0.275,-0.315
2746,-0.255,-0.275
2747,-0.245,-0.285
2748,-0.215,-0.295
2749,-0.185,-0.285
2750,-0.175,-0.385
2751,-0.635,-0.275
2752,-0.725,0.045
2753,-0.085,-0.045
2754,1.065,-0.185
2755,2.435,0.395
2756,3.035,0.605
2757,2.535,-0.655
2758,0.115,-1.125
2759,-0.945,-0.915
2760,-0.985,-0.615
2761,-0.785,-0.355
2762,-0.515,-0.095
2763,-0.305,0.015
2764,-0.275,0.015
2765,-0.235,0.025
2766,-0.215,0.065
2767,-0.215,0.085
2768,-0.155,0.115
2769,-0.125,0.135
2770,-0.155,0.165
2771,-0.095,0.215
2772,-0.095,0.235
2773,-0.015,0.275
2774,-0.005,0.335
2775,-0.005,0.385
2776,0.045,0.435
2777,0.085,0.495
2778,0.175,0.585
2779,0.215,0.625
2780,0.245,0.645
2781,0.295,0.675
2782,0.345,0.695
2783,0.335,0.665
2784,0.335,0.625
2785,0.345,0.545
2786,0.345,0.475
2787,0.285,0.345
2788,0.165,0.195
2789,0.115,0.095
2790,0.005,0.015
2791,-0.075,-0.065
2792,-0.095,-0.105
2793,-0.155,-0.145
2794,-0.155,-0.125
2795,-0.175,-0.165
2796,-0.175,-0.175
2797,-0.155,-0.165
2798,-0.145,-0.155
2799,-0.145,-0.135
2800,-0.145,-0.135
2801,-0.115,-0.125
2802,-0.085,-0.115
2803,-0.165,-0.115
2804,-0.125,-0.125
2805,-0.105,-0.125
2806,-0.055,-0.135
2807,-0.155,-0.145
2808,-0.225,-0.145
2809,-0.155,-0.155
2810,-0.105,-0.155
2811,-0.185,-0.175
2812,-0.225,-0.195
2813,-0.225,-0.195
2814,-0.205,-0.185
2815,-0.195,-0.215
2816,-0.195,-0.205
2817,-0.185,-0.215
2818,-0.195,-0.205
2819,-0.195,-0.225
2820,-0.265,-0.205
2821,-0.185,-0.205
2822,-0.185,-0.215
2823,-0.205,-0.205
2824,-0.185,-0.175
2825,-0.235,-0.215
2826,-0.245,-0.195
2827,-0.185,-0.185
2828,-0.245,-0.205
2829,-0.175,-0.185
2830,-0.215,-0.185
2831,-0.255,-0.215
2832,-0.215,-0.155
2833,-0.205,-0.195
2834,-0.175,-0.145
2835,-0.205,-0.195
2836,-0.335,-0.155
2837,-0.245,-0.175
2838,-0.205,-0.105
2839,-0.215,-0.175
2840,-0.195,-0.115
2841,-0.205,-0.105
2842,-0.205,-0.085
2843,-0.035,-0.045
2844,-0.205,0.005
2845,-0.175,0.015
2846,-0.055,0.025
2847,-0.125,-0.015
2848,-0.215,-0.105
2849,-0.215,-0.105
2850,-0.115,-0.155
2851,-0.165,-0.105
2852,-0.215,-0.135
2853,-0.325,-0.125
2854,-0.335,-0.155
2855,-0.345,-0.075
2856,-0.185,-0.065
2857,-0.225,-0.155
2858,-0.545,-0.285
2859,-0.695,0.145
2860,-0.505,0.405
2861,0.555,0.125
2862,1.935,0.405
2863,2.865,0.995
2864,2.945,0.005
2865,0.455,-1.055
2866,-0.825,-0.885
2867,-0.955,-0.585
2868,-0.955,-0.295
2869,-0.685,-0.005
2870,-0.365,0.165
2871,-0.345,0.155
2872,-0.365,0.145
2873,-0.305,0.165
2874,-0.275,0.245
2875,-0.285,0.235
2876,-0.235,0.235
2877,-0.235,0.295
2878,-0.225,0.325
2879,-0.065,0.315
2880,0.005,0.425
2881,-0.185,0.415
2882,-0.045,0.505
2883,-0.155,0.555
2884,-0.105,0.575
2885,0.025,0.645
2886,0.095,0.685
2887,0.215,0.745
2888,0.125,0.755
2889,0.185,0.765
2890,0.275,0.755
2891,0.285,0.725
2892,0.195,0.615
2893,0.275,0.515
2894,0.235,0.455
2895,0.195,0.335
2896,-0.155,0.225
2897,-0.165,0.125
2898,-0.135,0.055
2899,-0.175,-0.025
2900,-0.195,-0.055
2901,-0.205,-0.115
2902,-0.275,-0.075
2903,-0.305,-0.095
2904,-0.225,-0.125
2905,-0.205,-0.085
2906,-0.105,-0.035
2907,-0.265,-0.055
2908,-0.245,-0.085
2909,-0.245,-0.105
2910,-0.185,-0.055
2911,-0.155,-0.085
2912,-0.215,-0.065
2913,-0.275,-0.105
2914,-0.175,-0.095
2915,-0.155,-0.085
2916,-0.195,-0.145
2917,-0.115,-0.155
2918,-0.305,-0.115
2919,-0.275,-0.125
2920,-0.255,-0.185
2921,-0.225,-0.185
2922,-0.205,-0.165
2923,-0.225,-0.175
2924,-0.225,-0.185
2925,-0.225,-0.215
2926,-0.305,-0.225
2927,-0.105,-0.185
2928,-0.175,-0.205
2929,-0.325,-0.195
2930,-0.345,-0.205
2931,-0.265,-0.215
2932,-0.235,-0.195
2933,-0.225,-0.205
2934,-0.225,-0.235
2935,-0.235,-0.185
2936,-0.215,-0.225
2937,-0.185,-0.205
2938,-0.215,-0.185
2939,-0.205,-0.205
2940,-0.185,-0.205
2941,-0.185,-0.225
2942,-0.185,-0.195
2943,-0.195,-0.215
2944,-0.205,-0.195
2945,-0.155,-0.185
2946,-0.185,-0.185
2947,-0.125,-0.135
2948,-0.145,-0.115
2949,-0.045,-0.105
2950,-0.035,-0.095
2951,-0.025,-0.025
2952,-0.055,-0.195
2953,-0.045,-0.175
2954,0.015,-0.205
2955,-0.195,-0.225
2956,-0.235,-0.245
2957,-0.155,-0.265
2958,-0.145,-0.255
2959,-0.105,-0.245
2960,-0.275,-0.185
2961,-0.245,-0.185
2962,-0.115,-0.265
2963,-0.435,-0.275
2964,-0.615,0.065
2965,-0.215,0.395
2966,0.745,0.195
2967,2.145,0.455
2968,2.925,0.935
2969,3.105,-0.085
2970,0.385,-1.135
2971,-0.805,-0.965
2972,-0.935,-0.725
2973,-0.785,-0.575
2974,-0.615,-0.275
2975,-0.335,0.045
2976,-0.235,0.025
2977,-0.165,0.075
2978,-0.165,0.065
2979,-0.105,0.125
2980,-0.115,0.115
2981,-0.115,0.125
2982,-0.065,0.175
2983,-0.035,0.205
2984,-0.025,0.205
2985,-0.005,0.275
2986,0.065,0.255
2987,0.055,0.305
2988,0.105,0.365
2989,0.185,0.385
2990,0.205,0.465
2991,0.225,0.505
2992,0.275,0.535
2993,0.305,0.515
2994,0.355,0.535
2995,0.345,0.495
2996,0.405,0.495
2997,0.345,0.445
2998,0.325,0.345
2999,0.265,0.245
3000,0.225,0.115
3001,0.265,0.095
3002,0.085,0.005
3003,0.025,-0.075
3004,0.005,-0.115
3005,-0.035,-0.155
3006,-0.075,-0.185
3007,-0.065,-0.185
3008,-0.045,-0.175
3009,-0.065,-0.175
3010,-0.045,-0.155
3011,-0.045,-0.195
3012,-0.035,-0.195
3013,0.035,-0.165
3014,0.005,-0.155
3015,-0.095,-0.145
3016,-0.055,-0.195
3017,-0.025,-0.195
3018,0.005,-0.185
3019,-0.045,-0.205
3020,-0.035,-0.225
3021,0.005,-0.225
3022,-0.035,-0.245
3023,-0.035,-0.245
3024,-0.075,-0.275
3025,-0.035,-0.255
3026,-0.015,-0.265
3027,-0.045,-0.285
3028,-0.035,-0.285
3029,-0.075,-0.245
3030,-0.065,-0.265
3031,-0.035,-0.305
3032,-0.065,-0.325
3033,-0.065,-0.285
3034,-0.065,-0.275
3035,-0.025,-0.265
3036,-0.035,-0.295
3037,0.035,-0.305
3038,-0.055,-0.295
3039,-0.105,-0.265
3040,-0.115,-0.265
3041,-0.055,-0.295
3042,0.015,-0.255
3043,-0.025,-0.255
3044,-0.015,-0.295
3045,-0.005,-0.305
3046,-0.035,-0.285
3047,-0.055,-0.305
3048,-0.015,-0.205
3049,0.035,-0.165
3050,0.065,-0.195
3051,0.145,-0.165
3052,0.155,-0.155
3053,0.085,-0.225
3054,0.065,-0.235
3055,0.045,-0.295
3056,0.015,-0.325
3057,-0.035,-0.295
3058,-0.045,-0.305
3059,-0.035,-0.295
3060,-0.045,-0.285
3061,0.005,-0.305
3062,-0.055,-0.295
3063,-0.035,-0.265
3064,-0.065,-0.355
3065,-0.425,-0.375
3066,-0.475,0.005
3067,0.025,0.095
3068,1.075,-0.235
3069,2.325,0.145
3070,2.985,0.825
3071,3.115,-0.105
3072,0.695,-1.185
3073,-0.685,-1.005
3074,-0.805,-0.705
3075,-0.575,-0.435
3076,-0.435,-0.175
3077,-0.175,-0.015
3078,-0.125,-0.015
3079,-0.095,0.005
3080,-0.085,0.025
3081,-0.055,0.045
3082,-0.015,0.065
3083,-0.015,0.105
3084,0.025,0.135
3085,0.045,0.145
3086,0.055,0.185
3087,0.115,0.225
3088,0.115,0.265
3089,0.135,0.315
3090,0.185,0.375
3091,0.255,0.435
3092,0.275,0.465
3093,0.315,0.535
3094,0.355,0.585
3095,0.405,0.605
3096,0.425,0.615
3097,0.445,0.585
3098,0.465,0.565
3099,0.445,0.515
3100,0.405,0.425
3101,0.385,0.315
3102,0.355,0.215
3103,0.235,0.105
3104,0.185,0.005
3105,0.095,-0.105
3106,0.035,-0.155
3107,-0.015,-0.185
3108,-0.045,-0.235
3109,-0.055,-0.225
3110,-0.085,-0.235
3111,-0.105,-0.245
3112,-0.075,-0.235
3113,-0.085,-0.235
3114,-0.075,-0.205
3115,-0.045,-0.215
3116,-0.065,-0.225
3117,-0.055,-0.215
3118,-0.065,-0.195
3119,-0.055,-0.195
3120,-0.085,-0.225
3121,-0.055,-0.235
3122,-0.045,-0.225
3123,-0.055,-0.235
3124,-0.085,-0.295
3125,-0.105,-0.235
3126,-0.095,-0.275
3127,-0.115,-0.245
3128,-0.145,-0.325
3129,-0.115,-0.345
3130,-0.075,-0.305
3131,-0.105,-0.315
3132,-0.145,-0.335
3133,-0.155,-0.335
3134,-0.145,-0.335
3135,-0.165,-0.345
3136,-0.165,-0.315
3137,-0.145,-0.325
3138,-0.115,-0.305
3139,-0.165,-0.335
3140,-0.145,-0.335
3141,-0.155,-0.335
3142,-0.145,-0.315
3143,-0.135,-0.315
3144,-0.135,-0.315
3145,-0.145,-0.305
3146,-0.125,-0.265
3147,-0.085,-0.225
3148,-0.085,-0.235
3149,-0.015,-0.195
3150,0.005,-0.195
3151,0.035,-0.205
3152,-0.045,-0.265
3153,-0.105,-0.305
3154,-0.115,-0.315
3155,-0.155,-0.345
3156,-0.185,-0.335
3157,-0.175,-0.325
3158,-0.195,-0.325
3159,-0.205,-0.325
3160,-0.175,-0.305
3161,-0.175,-0.295
3162,-0.115,-0.285
3163,-0.385,-0.485
3164,-0.705,-0.285
3165,-0.565,-0.055
3166,0.145,-0.095
3167,1.255,-0.085
3168,2.515,0.625
3169,3.075,0.985
3170,2.235,-0.605
3171,-0.265,-1.175
3172,-1.095,-0.905
3173,-0.985,-0.655
3174,-0.785,-0.405
3175,-0.475,-0.145
3176,-0.305,-0.075
3177,-0.245,-0.045
3178,-0.225,-0.025
3179,-0.215,-0.005
3180,-0.195,0.015
3181,-0.165,0.045
3182,-0.165,0.075
3183,-0.125,0.105
3184,-0.115,0.115
3185,-0.095,0.155
3186,-0.055,0.215
3187,-0.045,0.245
3188,-0.005,0.285
3189,0.015,0.335
3190,0.055,0.385
3191,0.105,0.455
3192,0.165,0.505
3193,0.185,0.525
3194,0.255,0.595
3195,0.285,0.575
3196,0.295,0.555
3197,0.295,0.515
3198,0.295,0.475
3199,0.245,0.355
3200,0.235,0.265
3201,0.155,0.175
3202,0.075,0.055
3203,-0.015,-0.045
3204,-0.085,-0.135
3205,-0.145,-0.175
3206,-0.195,-0.205
3207,-0.215,-0.225
3208,-0.235,-0.255
3209,-0.265,-0.265
3210,-0.195,-0.205
3211,-0.205,-0.225
3212,-0.235,-0.205
3213,-0.225,-0.235
3214,-0.215,-0.215
3215,-0.205,-0.185
3216,-0.205,-0.195
3217,-0.195,-0.215
3218,-0.165,-0.185
3219,-0.215,-0.225
3220,-0.235,-0.225
3221,-0.185,-0.225
3222,-0.185,-0.225
3223,-0.205,-0.255
3224,-0.235,-0.285
3225,-0.255,-0.275
3226,-0.245,-0.285
3227,-0.235,-0.235
3228,-0.235,-0.265
3229,-0.245,-0.305
3230,-0.255,-0.305
3231,-0.275,-0.305
3232,-0.265,-0.295
3233,-0.265,-0.325
3234,-0.255,-0.315
3235,-0.255,-0.305
3236,-0.275,-0.315
3237,-0.265,-0.315
3238,-0.255,-0.305
3239,-0.245,-0.275
3240,-0.255,-0.245
3241,-0.175,-0.235
3242,-0.115,-0.185
3243,-0.065,-0.175
3244,-0.125,-0.235
3245,-0.115,-0.235
3246,-0.165,-0.295
3247,-0.225,-0.315
3248,-0.245,-0.345
3249,-0.255,-0.335
3250,-0.245,-0.315
3251,-0.275,-0.365
3252,-0.305,-0.375
3253,-0.285,-0.335
3254,-0.285,-0.315
3255,-0.295,-0.295
3256,-0.195,-0.315
3257,-0.545,-0.475
3258,-0.755,-0.125
3259,-0.515,0.125
3260,0.405,0.025
3261,1.845,0.215
3262,2.795,0.895
3263,3.135,0.285
3264,0.995,-1.205
3265,-0.785,-1.115
3266,-1.095,-0.865
3267,-1.025,-0.705
3268,-0.855,-0.465
3269,-0.585,-0.205
3270,-0.345,-0.065
3271,-0.305,-0.045
3272,-0.285,-0.035
3273,-0.245,0.005
3274,-0.195,0.035
3275,-0.205,0.035
3276,-0.195,0.065
3277,-0.155,0.095
3278,-0.115,0.135
3279,-0.115,0.165
3280,-0.065,0.195
3281,-0.055,0.225
3282,-0.025,0.275
3283,0.015,0.315
3284,0.065,0.375
3285,0.105,0.425
3286,0.165,0.475
3287,0.205,0.515
3288,0.245,0.515
3289,0.255,0.515
3290,0.285,0.515
3291,0.325,0.495
3292,0.275,0.415
3293,0.245,0.325
3294,0.185,0.225
3295,0.125,0.115
3296,0.025,0.015
3297,-0.055,-0.075
3298,-0.125,-0.155
3299,-0.165,-0.205
3300,-0.205,-0.235
3301,-0.235,-0.255
3302,-0.225,-0.235
3303,-0.255,-0.245
3304,-0.235,-0.245
3305,-0.225,-0.245
3306,-0.235,-0.245
3307,-0.205,-0.225
3308,-0.205,-0.245
3309,-0.205,-0.225
3310,-0.175,-0.225
3311,-0.185,-0.215
3312,-0.175,-0.235
3313,-0.165,-0.245
3314,-0.165,-0.235
3315,-0.185,-0.275
3316,-0.195,-0.285
3317,-0.195,-0.275
3318,-0.195,-0.295
3319,-0.215,-0.305
3320,-0.225,-0.305
3321,-0.215,-0.315
3322,-0.195,-0.295
3323,-0.225,-0.315
3324,-0.235,-0.325
3325,-0.235,-0.325
3326,-0.255,-0.325
3327,-0.225,-0.315
3328,-0.215,-0.305
3329,-0.215,-0.335
3330,-0.215,-0.245
3331,-0.175,-0.245
3332,-0.155,-0.245
3333,-0.105,-0.225
3334,-0.055,-0.205
3335,-0.065,-0.205
3336,-0.085,-0.265
3337,-0.155,-0.325
3338,-0.195,-0.325
3339,-0.255,-0.355
3340,-0.245,-0.345
3341,-0.265,-0.365
3342,-0.285,-0.355
3343,-0.265,-0.345
3344,-0.275,-0.345
3345,-0.285,-0.335
3346,-0.255,-0.305
3347,-0.195,-0.305
3348,-0.515,-0.465
3349,-0.775,-0.165
3350,-0.635,0.075
3351,0.255,-0.025
3352,1.625,0.045
3353,2.725,0.765
3354,3.135,0.505
3355,1.625,-1.045
3356,-0.515,-1.115
3357,-1.095,-0.875
3358,-1.035,-0.655
3359,-0.805,-0.375
3360,-0.535,-0.125
3361,-0.335,-0.025
3362,-0.255,0.005
3363,-0.265,-0.005
3364,-0.235,0.025
3365,-0.195,0.055
3366,-0.215,0.075
3367,-0.205,0.105
3368,-0.145,0.135
3369,-0.165,0.155
3370,-0.115,0.215
3371,-0.105,0.245
3372,-0.105,0.285
3373,0.005,0.355
3374,0.035,0.435
3375,0.065,0.465
3376,0.055,0.515
3377,0.155,0.585
3378,0.185,0.645
3379,0.205,0.625
3380,0.225,0.615
3381,0.255,0.585
3382,0.255,0.555
3383,0.225,0.465
3384,0.225,0.365
3385,0.125,0.225
3386,0.065,0.145
3387,-0.035,0.035
3388,-0.135,-0.055
3389,-0.175,-0.105
3390,-0.215,-0.135
3391,-0.245,-0.165
3392,-0.295,-0.205
3393,-0.255,-0.175
3394,-0.275,-0.165
3395,-0.285,-0.175
3396,-0.325,-0.185
3397,-0.275,-0.165
3398,-0.285,-0.165
3399,-0.275,-0.145
3400,-0.265,-0.135
3401,-0.225,-0.125
3402,-0.235,-0.115
3403,-0.215,-0.125
3404,-0.245,-0.145
3405,-0.235,-0.155
3406,-0.225,-0.145
3407,-0.255,-0.175
3408,-0.235,-0.175
3409,-0.235,-0.185
3410,-0.235,-0.185
3411,-0.255,-0.205
3412,-0.275,-0.235
3413,-0.285,-0.245
3414,-0.255,-0.215
3415,-0.255,-0.225
3416,-0.295,-0.245
3417,-0.285,-0.255
3418,-0.305,-0.245
3419,-0.265,-0.235
3420,-0.295,-0.265
3421,-0.295,-0.255
3422,-0.285,-0.255
3423,-0.295,-0.245
3424,-0.275,-0.245
3425,-0.295,-0.225
3426,-0.245,-0.175
3427,-0.275,-0.175
3428,-0.235,-0.175
3429,-0.165,-0.155
3430,-0.075,-0.125
3431,-0.085,-0.145
3432,-0.115,-0.175
3433,-0.185,-0.245
3434,-0.205,-0.255
3435,-0.225,-0.295
3436,-0.275,-0.285
3437,-0.295,-0.295
3438,-0.305,-0.305
3439,-0.295,-0.275
3440,-0.285,-0.275
3441,-0.285,-0.265
3442,-0.265,-0.235
3443,-0.235,-0.255
3444,-0.635,-0.425
3445,-0.785,-0.085
3446,-0.465,0.075
3447,0.575,-0.195
3448,1.995,0.225
3449,2.815,0.975
3450,3.105,0.255
3451,0.785,-1.165
3452,-0.875,-0.975
3453,-1.115,-0.725
3454,-0.985,-0.485
3455,-0.695,-0.195
3456,-0.395,-0.025
3457,-0.345,-0.025
3458,-0.295,0.035
3459,-0.275,0.025
3460,-0.255,0.055
3461,-0.245,0.075
3462,-0.235,0.095
3463,-0.195,0.135
3464,-0.195,0.165
3465,-0.155,0.205
3466,-0.105,0.225
3467,-0.085,0.265
3468,-0.085,0.335
3469,-0.025,0.385
3470,0.015,0.445
3471,0.055,0.505
3472,0.095,0.565
3473,0.165,0.605
3474,0.225,0.635
3475,0.225,0.625
3476,0.245,0.605
3477,0.235,0.585
3478,0.245,0.515
3479,0.225,0.415
3480,0.225,0.325
3481,0.165,0.165
3482,0.045,0.065
3483,-0.005,-0.005
3484,-0.105,-0.135
3485,-0.185,-0.185
3486,-0.235,-0.225
3487,-0.245,-0.245
3488,-0.285,-0.275
3489,-0.295,-0.245
3490,-0.215,-0.235
3491,-0.255,-0.245
3492,-0.265,-0.235
3493,-0.235,-0.225
3494,-0.255,-0.215
3495,-0.225,-0.205
3496,-0.235,-0.205
3497,-0.205,-0.185
3498,-0.195,-0.185
3499,-0.175,-0.165
3500,-0.205,-0.195
3501,-0.225,-0.205
3502,-0.225,-0.215
3503,-0.235,-0.235
3504,-0.215,-0.245
3505,-0.245,-0.245
3506,-0.235,-0.245
3507,-0.255,-0.275
3508,-0.255,-0.305
3509,-0.255,-0.285
3510,-0.235,-0.285
3511,-0.285,-0.325
3512,-0.265,-0.295
3513,-0.265,-0.295
3514,-0.285,-0.285
3515,-0.235,-0.285
3516,-0.255,-0.295
3517,-0.275,-0.315
3518,-0.275,-0.285
3519,-0.275,-0.295
3520,-0.285,-0.305
3521,-0.265,-0.285
3522,-0.265,-0.255
3523,-0.255,-0.265
3524,-0.255,-0.215
3525,-0.195,-0.205
3526,-0.165,-0.205
3527,-0.105,-0.145
3528,-0.075,-0.195
3529,-0.095,-0.195
3530,-0.135,-0.215
3531,-0.195,-0.275
3532,-0.225,-0.305
3533,-0.245,-0.305
3534,-0.255,-0.315
3535,-0.315,-0.325
3536,-0.315,-0.335
3537,-0.305,-0.295
3538,-0.265,-0.275
3539,-0.275,-0.265
3540,-0.255,-0.295
3541,-0.295,-0.355
3542,-0.725,-0.355
3543,-0.825,-0.065
3544,-0.275,0.095
3545,1.155,0.145
3546,2.615,0.935
3547,3.045,1.055
3548,2.245,-0.645
3549,-0.255,-1.115
3550,-1.135,-0.865
3551,-1.125,-0.655
3552,-0.965,-0.445
3553,-0.695,-0.195
3554,-0.385,-0.025
3555,-0.345,-0.015
3556,-0.305,-0.045
3557,-0.285,-0.005
3558,-0.265,0.025
3559,-0.225,0.085
3560,-0.205,0.065
3561,-0.215,0.075
3562,-0.125,0.145
3563,-0.135,0.175
3564,-0.125,0.185
3565,-0.085,0.245
3566,-0.055,0.295
3567,-0.015,0.345
3568,0.025,0.405
3569,0.065,0.445
3570,0.155,0.495
3571,0.195,0.515
3572,0.215,0.525
3573,0.265,0.535
3574,0.225,0.505
3575,0.255,0.495
3576,0.265,0.415
3577,0.245,0.345
3578,0.215,0.275
3579,0.145,0.155
3580,0.045,0.055
3581,-0.035,-0.075
3582,-0.095,-0.125
3583,-0.155,-0.155
3584,-0.195,-0.195
3585,-0.225,-0.215
3586,-0.215,-0.235
3587,-0.255,-0.225
3588,-0.235,-0.225
3589,-0.255,-0.205
3590,-0.205,-0.205
3591,-0.205,-0.205
3592,-0.205,-0.195
3593,-0.205,-0.195
3594,-0.175,-0.175
3595,-0.155,-0.185
3596,-0.205,-0.205
3597,-0.185,-0.215
3598,-0.165,-0.195
3599,-0.195,-0.225
3600,-0.185,-0.245
3601,-0.195,-0.235
3602,-0.165,-0.225
3603,-0.185,-0.265
3604,-0.205,-0.275
3605,-0.215,-0.265
3606,-0.225,-0.285
3607,-0.205,-0.285
3608,-0.215,-0.285
3609,-0.215,-0.275
3610,-0.215,-0.275
3611,-0.215,-0.275
3612,-0.215,-0.295
3613,-0.215,-0.295
3614,-0.235,-0.295
3615,-0.235,-0.285
3616,-0.225,-0.275
3617,-0.215,-0.285
3618,-0.185,-0.265
3619,-0.205,-0.265
3620,-0.205,-0.255
3621,-0.185,-0.245
3622,-0.195,-0.225
3623,-0.155,-0.195
3624,-0.095,-0.175
3625,-0.025,-0.155
3626,-0.005,-0.175
3627,-0.055,-0.185
3628,-0.095,-0.245
3629,-0.125,-0.255
3630,-0.145,-0.285
3631,-0.205,-0.285
3632,-0.205,-0.295
3633,-0.215,-0.305
3634,-0.185,-0.265
3635,-0.215,-0.285
3636,-0.205,-0.285
3637,-0.205,-0.265
3638,-0.175,-0.265
3639,-0.295,-0.365
3640,-0.685,-0.245
3641,-0.675,0.075
3642,0.095,0.265
3643,1.365,0.205
3644,2.665,0.885
3645,3.065,0.975
3646,2.315,-0.705
3647,-0.205,-1.115
3648,-1.035,-0.855
3649,-1.025,-0.675
3650,-0.865,-0.465
3651,-0.665,-0.225
3652,-0.365,-0.005
3653,-0.235,0.005
3654,-0.205,0.035
3655,-0.185,0.055
3656,-0.155,0.075
3657,-0.135,0.115
3658,-0.075,0.145
3659,-0.065,0.155
3660,-0.065,0.185
3661,-0.045,0.215
3662,0.005,0.275
3663,0.035,0.315
3664,0.065,0.335
3665,0.095,0.405
3666,0.165,0.475
3667,0.205,0.515
3668,0.235,0.545
3669,0.275,0.555
3670,0.315,0.585
3671,0.335,0.585
3672,0.355,0.535
3673,0.335,0.475
3674,0.335,0.445
3675,0.325,0.365
3676,0.235,0.235
3677,0.185,0.145
3678,0.115,0.055
3679,0.015,-0.025
3680,-0.025,-0.085
3681,-0.075,-0.115
3682,-0.105,-0.155
3683,-0.135,-0.175
3684,-0.145,-0.195
3685,-0.175,-0.185
3686,-0.135,-0.145
3687,-0.155,-0.175
3688,-0.155,-0.175
3689,-0.135,-0.165
3690,-0.125,-0.145
3691,-0.105,-0.145
3692,-0.115,-0.155
3693,-0.095,-0.165
3694,-0.115,-0.175
3695,-0.105,-0.155
3696,-0.085,-0.165
3697,-0.105,-0.195
3698,-0.105,-0.185
3699,-0.085,-0.175
3700,-0.115,-0.205
3701,-0.125,-0.205
3702,-0.145,-0.235
3703,-0.165,-0.225
3704,-0.135,-0.225
3705,-0.175,-0.245
3706,-0.125,-0.205
3707,-0.145,-0.245
3708,-0.185,-0.255
3709,-0.145,-0.235
3710,-0.165,-0.225
3711,-0.155,-0.245
3712,-0.165,-0.255
3713,-0.165,-0.255
3714,-0.145,-0.235
3715,-0.165,-0.235
3716,-0.155,-0.235
3717,-0.155,-0.225
3718,-0.155,-0.255
3719,-0.175,-0.235
3720,-0.155,-0.225
3721,-0.155,-0.205
3722,-0.105,-0.205
3723,-0.155,-0.245
3724,-0.155,-0.235
3725,-0.145,-0.215
3726,-0.125,-0.235
3727,-0.165,-0.235
3728,-0.155,-0.215
3729,-0.115,-0.185
3730,-0.095,-0.175
3731,-0.055,-0.135
3732,-0.095,-0.145
3733,0.015,-0.095
3734,0.065,-0.105
3735,0.025,-0.125
3736,-0.075,-0.195
3737,-0.055,-0.215
3738,-0.055,-0.225
3739,-0.125,-0.225
3740,-0.145,-0.235
3741,-0.135,-0.255
3742,-0.145,-0.225
3743,-0.125,-0.215
3744,-0.115,-0.205
3745,-0.105,-0.235
3746,-0.225,-0.335
3747,-0.625,-0.165
3748,-0.555,0.095
3749,0.355,-0.065
3750,1.675,0.135
3751,2.815,0.915
3752,3.225,0.805
3753,1.755,-0.885
3754,-0.255,-1.015
3755,-1.045,-0.725
3756,-0.945,-0.485
3757,-0.735,-0.245
3758,-0.425,-0.005
3759,-0.265,0.055
3760,-0.215,0.035
3761,-0.205,0.095
3762,-0.155,0.105
3763,-0.155,0.125
3764,-0.165,0.125
3765,-0.115,0.185
3766,-0.095,0.215
3767,-0.075,0.245
3768,-0.055,0.295
3769,-0.015,0.335
3770,0.025,0.405
3771,0.035,0.445
3772,0.075,0.505
3773,0.105,0.575
3774,0.155,0.635
3775,0.215,0.705
3776,0.255,0.725
3777,0.325,0.735
3778,0.355,0.735
3779,0.345,0.715
3780,0.355,0.645
3781,0.345,0.595
3782,0.325,0.485
3783,0.285,0.375
3784,0.215,0.245
3785,0.135,0.145
3786,0.055,0.065
3787,0.005,-0.005
3788,-0.075,-0.075
3789,-0.115,-0.125
3790,-0.145,-0.155
3791,-0.175,-0.155
3792,-0.175,-0.175
3793,-0.195,-0.185
3794,-0.155,-0.135
3795,-0.165,-0.165
3796,-0.155,-0.155
3797,-0.155,-0.135
3798,-0.135,-0.135
3799,-0.155,-0.135
3800,-0.155,-0.125
3801,-0.105,-0.125
3802,-0.145,-0.115
3803,-0.115,-0.115
3804,-0.125,-0.145
3805,-0.135,-0.155
3806,-0.125,-0.145
3807,-0.155,-0.165
3808,-0.165,-0.185
3809,-0.145,-0.195
3810,-0.135,-0.195
3811,-0.165,-0.205
3812,-0.165,-0.225
3813,-0.175,-0.235
3814,-0.195,-0.225
3815,-0.185,-0.215
3816,-0.185,-0.245
3817,-0.185,-0.245
3818,-0.185,-0.225
3819,-0.195,-0.235
3820,-0.195,-0.265
3821,-0.235,-0.245
3822,-0.155,-0.225
3823,-0.185,-0.235
3824,-0.205,-0.225
3825,-0.195,-0.265
3826,-0.165,-0.225
3827,-0.185,-0.235
3828,-0.185,-0.235
3829,-0.185,-0.225
3830,-0.185,-0.245
3831,-0.195,-0.225
3832,-0.185,-0.215
3833,-0.175,-0.225
3834,-0.155,-0.225
3835,-0.175,-0.215
3836,-0.175,-0.215
3837,-0.175,-0.225
3838,-0.195,-0.225
3839,-0.175,-0.215
3840,-0.185,-0.195
3841,-0.145,-0.165
3842,-0.095,-0.145
3843,-0.085,-0.125
3844,-0.055,-0.125
3845,-0.005,-0.095
3846,-0.045,-0.145
3847,-0.095,-0.225
3848,-0.115,-0.215
3849,-0.135,-0.225
3850,-0.155,-0.205
3851,-0.185,-0.225
3852,-0.185,-0.235
3853,-0.175,-0.235
3854,-0.175,-0.215
3855,-0.175,-0.205
3856,-0.145,-0.215
3857,-0.335,-0.365
3858,-0.655,-0.195
3859,-0.655,0.035
3860,0.205,-0.005
3861,1.745,0.365
3862,2.825,1.285
3863,3.195,1.005
3864,1.665,-0.865
3865,-0.475,-0.995
3866,-1.045,-0.675
3867,-0.945,-0.475
3868,-0.755,-0.255
3869,-0.405,-0.015
3870,-0.275,0.035
3871,-0.245,0.035
3872,-0.205,0.055
3873,-0.205,0.085
3874,-0.135,0.105
3875,-0.145,0.135
3876,-0.115,0.175
3877,-0.115,0.175
3878,-0.085,0.225
3879,-0.055,0.275
3880,-0.035,0.285
3881,0.005,0.355
3882,0.065,0.425
3883,0.065,0.475
3884,0.115,0.535
3885,0.145,0.585
3886,0.185,0.615
3887,0.245,0.665
3888,0.275,0.645
3889,0.295,0.655
3890,0.345,0.645
3891,0.325,0.585
3892,0.315,0.505
3893,0.305,0.415
3894,0.255,0.295
3895,0.175,0.185
3896,0.095,0.085
3897,0.015,-0.025
3898,-0.035,-0.075
3899,-0.115,-0.125
3900,-0.145,-0.175
3901,-0.175,-0.195
3902,-0.195,-0.185
3903,-0.195,-0.215
3904,-0.195,-0.215
3905,-0.175,-0.175
3906,-0.135,-0.175
3907,-0.165,-0.175
3908,-0.155,-0.195
3909,-0.135,-0.165
3910,-0.165,-0.155
3911,-0.145,-0.165
3912,-0.145,-0.175
3913,-0.155,-0.185
3914,-0.105,-0.155
3915,-0.135,-0.175
3916,-0.165,-0.215
3917,-0.155,-0.215
3918,-0.165,-0.225
3919,-0.165,-0.235
3920,-0.165,-0.245
3921,-0.185,-0.255
3922,-0.145,-0.245
3923,-0.165,-0.245
3924,-0.185,-0.275
3925,-0.195,-0.265
3926,-0.185,-0.265
3927,-0.175,-0.265
3928,-0.205,-0.275
3929,-0.185,-0.275
3930,-0.165,-0.275
3931,-0.175,-0.265
3932,-0.175,-0.285
3933,-0.185,-0.275
3934,-0.195,-0.255
3935,-0.185,-0.265
3936,-0.165,-0.265
3937,-0.175,-0.255
3938,-0.135,-0.255
3939,-0.155,-0.265
3940,-0.175,-0.265
3941,-0.165,-0.255
3942,-0.165,-0.255
3943,-0.165,-0.265
3944,-0.145,-0.255
3945,-0.165,-0.265
3946,-0.115,-0.245
3947,-0.135,-0.245
3948,-0.165,-0.245
3949,-0.135,-0.235
3950,-0.135,-0.245
3951,-0.135,-0.215
3952,-0.145,-0.235
3953,-0.135,-0.235
3954,-0.115,-0.225
3955,-0.125,-0.205
3956,-0.095,-0.195
3957,-0.075,-0.175
3958,-0.055,-0.135
3959,-0.015,-0.135
3960,0.035,-0.105
3961,0.035,-0.145
3962,-0.025,-0.205
3963,-0.085,-0.225
3964,-0.095,-0.255
3965,-0.115,-0.235
3966,-0.145,-0.225
3967,-0.125,-0.245
3968,-0.135,-0.245
3969,-0.125,-0.235
3970,-0.085,-0.205
3971,-0.075,-0.185
3972,-0.265,-0.365
3973,-0.625,-0.225
3974,-0.575,0.025
3975,0.265,0.065
3976,1.745,0.405
3977,2.835,1.275
3978,3.185,1.195
3979,2.125,-0.665
3980,-0.225,-1.045
3981,-0.965,-0.765
3982,-0.965,-0.565
3983,-0.775,-0.355
3984,-0.565,-0.155
3985,-0.265,0.005
3986,-0.155,0.035
3987,-0.155,0.045
3988,-0.135,0.055
3989,-0.105,0.085
3990,-0.105,0.115
3991,-0.065,0.135
3992,-0.035,0.165
3993,-0.005,0.195
3994,0.005,0.235
3995,0.025,0.265
3996,0.065,0.325
3997,0.095,0.355
3998,0.105,0.405
3999,0.155,0.485
4000,0.195,0.505
4001,0.225,0.555
4002,0.325,0.635
4003,0.385,0.645
4004,0.375,0.625
4005,0.375,0.595
4006,0.395,0.595
4007,0.405,0.535
4008,0.375,0.435
4009,0.325,0.325
4010,0.315,0.255
4011,0.195,0.115
4012,0.105,0.015
4013,0.035,-0.055
4014,-0.025,-0.095
4015,-0.085,-0.165
4016,-0.095,-0.165
4017,-0.105,-0.175
4018,-0.115,-0.175
4019,-0.125,-0.175
4020,-0.115,-0.185
4021,-0.105,-0.175
4022,-0.115,-0.155
4023,-0.095,-0.135
4024,-0.105,-0.175
4025,-0.085,-0.165
4026,-0.055,-0.145
4027,-0.065,-0.155
4028,-0.095,-0.165
4029,-0.085,-0.185
4030,-0.075,-0.175
4031,-0.095,-0.205
4032,-0.085,-0.205
4033,-0.115,-0.215
4034,-0.085,-0.205
4035,-0.085,-0.215
4036,-0.105,-0.215
4037,-0.115,-0.235
4038,-0.115,-0.245
4039,-0.115,-0.235
4040,-0.125,-0.245
4041,-0.125,-0.245
4042,-0.145,-0.265
4043,-0.105,-0.235
4044,-0.135,-0.255
4045,-0.125,-0.255
4046,-0.145,-0.255
4047,-0.135,-0.245
4048,-0.125,-0.255
4049,-0.115,-0.255
4050,-0.125,-0.245
4051,-0.115,-0.235
4052,-0.125,-0.255
4053,-0.125,-0.255
4054,-0.125,-0.235
4055,-0.135,-0.275
4056,-0.135,-0.245
4057,-0.105,-0.235
4058,-0.065,-0.225
4059,-0.115,-0.225
4060,-0.095,-0.245
4061,-0.095,-0.235
4062,-0.105,-0.225
4063,-0.095,-0.215
4064,-0.105,-0.225
4065,-0.085,-0.205
4066,-0.065,-0.185
4067,-0.035,-0.165
4068,-0.055,-0.155
4069,0.005,-0.125
4070,0.025,-0.115
4071,0.075,-0.085
4072,0.045,-0.165
4073,-0.005,-0.215
4074,-0.025,-0.205
4075,-0.075,-0.245
4076,-0.105,-0.255
4077,-0.105,-0.215
4078,-0.125,-0.245
4079,-0.105,-0.225
4080,-0.085,-0.195
4081,-0.095,-0.195
4082,-0.025,-0.195
4083,-0.405,-0.405
4084,-0.605,-0.035
4085,-0.345,0.195
4086,0.685,0.005
4087,2.235,0.505
4088,3.005,1.285
4089,3.195,0.225
4090,0.855,-1.085
4091,-0.705,-0.965
4092,-0.975,-0.685
4093,-0.815,-0.435
4094,-0.645,-0.205
4095,-0.285,0.045
4096,-0.195,0.045
4097,-0.135,0.095
4098,-0.095,0.125
4099,-0.125,0.125
4100,-0.095,0.225
4101,-0.075,0.155
4102,-0.015,0.195
4103,-0.015,0.235
4104,0.015,0.245
4105,0.035,0.315
4106,0.085,0.415
4107,0.115,0.425
4108,0.105,0.465
4109,0.145,0.525
4110,0.185,0.595
4111,0.265,0.655
4112,0.295,0.645
4113,0.305,0.815
4114,0.405,0.745
4115,0.445,0.695
4116,0.385,0.625
4117,0.365,0.665
4118,0.385,0.505
4119,0.295,0.455
4120,0.265,0.335
4121,0.165,0.125
4122,0.135,0.105
4123,0.045,-0.065
4124,0.005,-0.085
4125,-0.065,-0.135
4126,-0.145,-0.065
4127,-0.165,-0.095
4128,-0.175,-0.005
4129,-0.135,-0.195
4130,-0.105,-0.175
4131,-0.125,-0.165
4132,-0.105,-0.145
4133,-0.115,-0.175
4134,-0.135,-0.115
4135,-0.145,-0.125
4136,-0.145,-0.075
4137,-0.115,0.025
4138,-0.065,-0.175
4139,-0.035,-0.245
4140,-0.085,-0.075
4141,-0.095,-0.165
4142,-0.115,-0.215
4143,-0.095,-0.125
4144,-0.085,-0.165
4145,-0.105,-0.175
4146,-0.055,-0.225
4147,-0.135,-0.195
4148,-0.115,-0.225
4149,-0.105,-0.265
4150,-0.105,-0.255
4151,-0.115,-0.235
4152,-0.115,-0.205
4153,-0.105,-0.255
4154,-0.095,-0.235
4155,-0.105,-0.175
4156,-0.145,-0.285
4157,-0.105,-0.325
4158,-0.105,-0.265
4159,-0.105,-0.265
4160,-0.095,-0.215
4161,-0.075,-0.265
4162,-0.115,-0.175
4163,-0.085,-0.315
4164,-0.105,-0.255
4165,-0.105,-0.265
4166,-0.095,-0.215
4167,-0.095,-0.215
4168,-0.085,-0.255
4169,-0.085,-0.245
4170,-0.075,-0.255
4171,-0.095,-0.215
4172,-0.085,-0.195
4173,-0.085,-0.275
4174,-0.075,-0.225
4175,-0.075,-0.195
4176,-0.045,-0.155
4177,-0.015,-0.145
4178,0.035,-0.105
4179,0.045,-0.115
4180,0.085,-0.095
4181,0.025,-0.175
4182,-0.035,-0.215
4183,-0.055,-0.235
4184,-0.075,-0.255
4185,-0.115,-0.275
4186,-0.105,-0.225
4187,-0.085,-0.245
4188,-0.095,-0.245
4189,-0.115,-0.245
4190,-0.095,-0.215
4191,-0.055,-0.225
4192,-0.405,-0.385
4193,-0.605,-0.065
4194,-0.225,0.165
4195,0.645,-0.115
4196,1.995,0.255
4197,2.845,0.945
4198,3.195,0.375
4199,1.155,-1.045
4200,-0.605,-0.995
4201,-0.975,-0.705
4202,-0.725,-0.425
4203,-0.555,-0.225
4204,-0.275,0.015
4205,-0.185,0.025
4206,-0.165,0.045
4207,-0.135,0.085
4208,-0.125,0.075
4209,-0.105,0.125
4210,-0.075,0.155
4211,-0.055,0.175
4212,-0.055,0.175
4213,0.015,0.235
4214,0.005,0.275
4215,0.055,0.325
4216,0.075,0.365
4217,0.105,0.415
4218,0.175,0.515
4219,0.205,0.545
4220,0.245,0.605
4221,0.275,0.665
4222,0.355,0.705
4223,0.395,0.715
4224,0.385,0.695
4225,0.415,0.655
4226,0.425,0.625
4227,0.415,0.525
4228,0.355,0.405
4229,0.295,0.285
4230,0.195,0.175
4231,0.105,0.075
4232,0.015,-0.025
4233,-0.025,-0.095
4234,-0.075,-0.105
4235,-0.105,-0.175
4236,-0.135,-0.195
4237,-0.125,-0.185
4238,-0.165,-0.195
4239,-0.175,-0.205
4240,-0.145,-0.205
4241,-0.135,-0.185
4242,-0.105,-0.155
4243,-0.125,-0.185
4244,-0.145,-0.175
4245,-0.125,-0.165
4246,-0.115,-0.165
4247,-0.105,-0.175
4248,-0.135,-0.185
4249,-0.105,-0.185
4250,-0.095,-0.185
4251,-0.115,-0.185
4252,-0.145,-0.235
4253,-0.115,-0.215
4254,-0.145,-0.235
4255,-0.155,-0.245
4256,-0.155,-0.255
4257,-0.135,-0.255
4258,-0.165,-0.245
4259,-0.165,-0.255
4260,-0.195,-0.275
4261,-0.185,-0.275
4262,-0.145,-0.265
4263,-0.185,-0.275
4264,-0.205,-0.295
4265,-0.175,-0.275
4266,-0.155,-0.255
4267,-0.155,-0.275
4268,-0.215,-0.275
4269,-0.185,-0.265
4270,-0.195,-0.265
4271,-0.185,-0.265
4272,-0.175,-0.265
4273,-0.155,-0.255
4274,-0.145,-0.245
4275,-0.165,-0.265
4276,-0.165,-0.265
4277,-0.195,-0.245
4278,-0.195,-0.265
4279,-0.155,-0.225
4280,-0.165,-0.225
4281,-0.115,-0.205
4282,-0.085,-0.135
4283,-0.025,-0.135
4284,-0.065,-0.135
4285,0.005,-0.125
4286,-0.055,-0.205
4287,-0.115,-0.205
4288,-0.085,-0.255
4289,-0.145,-0.285
4290,-0.145,-0.265
4291,-0.195,-0.265
4292,-0.145,-0.275
4293,-0.145,-0.265
4294,-0.215,-0.245
4295,-0.165,-0.235
4296,-0.115,-0.255
4297,-0.485,-0.355
4298,-0.605,0.035
4299,-0.335,0.225
4300,0.685,0.075
4301,2.185,0.295
4302,2.915,0.815
4303,3.115,-0.025
4304,0.585,-1.165
4305,-0.755,-1.005
4306,-0.945,-0.785
4307,-0.875,-0.605
4308,-0.675,-0.345
4309,-0.395,-0.065
4310,-0.245,0.015
4311,-0.195,0.035
4312,-0.175,0.045
4313,-0.145,0.085
4314,-0.125,0.115
4315,-0.105,0.125
4316,-0.095,0.145
4317,-0.065,0.155
4318,-0.025,0.195
4319,-0.015,0.225
4320,0.015,0.255
4321,0.055,0.315
4322,0.085,0.355
4323,0.115,0.395
4324,0.165,0.455
4325,0.205,0.515
4326,0.235,0.545
4327,0.305,0.585
4328,0.345,0.595
4329,0.345,0.595
4330,0.385,0.575
4331,0.355,0.505
4332,0.345,0.435
4333,0.315,0.345
4334,0.235,0.245
4335,0.145,0.125
4336,0.065,0.025
4337,0.025,-0.045
4338,-0.045,-0.085
4339,-0.095,-0.135
4340,-0.165,-0.185
4341,-0.185,-0.195
4342,-0.165,-0.185
4343,-0.175,-0.185
4344,-0.145,-0.175
4345,-0.175,-0.185
4346,-0.125,-0.145
4347,-0.145,-0.165
4348,-0.145,-0.175
4349,-0.125,-0.175
4350,-0.155,-0.165
4351,-0.135,-0.165
4352,-0.125,-0.175
4353,-0.095,-0.175
4354,-0.135,-0.175
4355,-0.115,-0.185
4356,-0.145,-0.205
4357,-0.125,-0.225
4358,-0.155,-0.215
4359,-0.165,-0.215
4360,-0.145,-0.225
4361,-0.155,-0.255
4362,-0.145,-0.235
4363,-0.175,-0.245
4364,-0.185,-0.275
4365,-0.175,-0.255
4366,-0.205,-0.275
4367,-0.185,-0.265
4368,-0.195,-0.265
4369,-0.185,-0.255
4370,-0.155,-0.255
4371,-0.165,-0.255
4372,-0.205,-0.285
4373,-0.185,-0.275
4374,-0.195,-0.245
4375,-0.205,-0.265
4376,-0.185,-0.265
4377,-0.165,-0.275
4378,-0.145,-0.245
4379,-0.195,-0.255
4380,-0.155,-0.255
4381,-0.185,-0.255
4382,-0.155,-0.225
4383,-0.145,-0.195
4384,-0.105,-0.175
4385,-0.075,-0.145
4386,-0.025,-0.125
4387,-0.015,-0.105
4388,-0.035,-0.195
4389,-0.105,-0.245
4390,-0.145,-0.235
4391,-0.135,-0.275
4392,-0.155,-0.305
4393,-0.245,-0.295
4394,-0.075,-0.255
4395,-0.155,-0.265
4396,-0.225,-0.275
4397,-0.205,-0.255
4398,-0.125,-0.255
4399,-0.285,-0.345
4400,-0.635,-0.215
4401,-0.585,0.065
4402,0.195,0.055
4403,1.395,-0.045
4404,2.615,0.475
4405,3.075,0.625
4406,2.185,-0.725
4407,-0.215,-1.115
4408,-1.025,-0.855
4409,-0.945,-0.615
4410,-0.675,-0.335
4411,-0.415,-0.115
4412,-0.275,-0.005
4413,-0.275,-0.005
4414,-0.225,0.055
4415,-0.185,0.075
4416,-0.175,0.085
4417,-0.145,0.145
4418,-0.085,0.155
4419,-0.115,0.175
4420,-0.045,0.225
4421,-0.075,0.225
4422,-0.045,0.275
4423,0.015,0.345
4424,0.055,0.395
4425,0.055,0.445
4426,0.145,0.525
4427,0.185,0.595
4428,0.245,0.605
4429,0.285,0.645
4430,0.315,0.675
4431,0.355,0.665
4432,0.355,0.615
4433,0.365,0.585
4434,0.365,0.515
4435,0.335,0.395
4436,0.255,0.275
4437,0.175,0.165
4438,0.055,0.035
4439,0.005,-0.035
4440,-0.105,-0.125
4441,-0.145,-0.165
4442,-0.145,-0.175
4443,-0.195,-0.215
4444,-0.225,-0.245
4445,-0.235,-0.225
4446,-0.205,-0.225
4447,-0.235,-0.215
4448,-0.205,-0.215
4449,-0.185,-0.205
4450,-0.165,-0.185
4451,-0.175,-0.185
4452,-0.185,-0.185
4453,-0.155,-0.175
4454,-0.175,-0.175
4455,-0.135,-0.175
4456,-0.175,-0.185
4457,-0.165,-0.205
4458,-0.165,-0.205
4459,-0.165,-0.205
4460,-0.165,-0.215
4461,-0.185,-0.235
4462,-0.175,-0.235
4463,-0.175,-0.245
4464,-0.195,-0.255
4465,-0.205,-0.265
4466,-0.165,-0.255
4467,-0.245,-0.265
4468,-0.265,-0.285
4469,-0.245,-0.285
4470,-0.235,-0.275
4471,-0.255,-0.285
4472,-0.245,-0.265
4473,-0.215,-0.275
4474,-0.205,-0.265
4475,-0.225,-0.265
4476,-0.245,-0.275
4477,-0.235,-0.275
4478,-0.215,-0.285
4479,-0.225,-0.255
4480,-0.225,-0.265
4481,-0.215,-0.265
4482,-0.235,-0.255
4483,-0.215,-0.265
4484,-0.215,-0.265
4485,-0.225,-0.255
4486,-0.215,-0.255
4487,-0.205,-0.215
4488,-0.195,-0.215
4489,-0.155,-0.195
4490,-0.145,-0.145
4491,-0.095,-0.135
4492,-0.055,-0.125
4493,-0.065,-0.165
4494,-0.115,-0.225
4495,-0.155,-0.245
4496,-0.195,-0.285
4497,-0.215,-0.275
4498,-0.215,-0.265
4499,-0.215,-0.275
4500,-0.215,-0.265
4501,-0.225,-0.275
4502,-0.185,-0.245
4503,-0.185,-0.245
4504,-0.295,-0.345
4505,-0.625,-0.265
4506,-0.605,0.065
4507,0.095,-0.005
4508,1.275,-0.065
4509,2.525,0.535
4510,3.015,0.675
4511,1.905,-0.805
4512,-0.305,-1.095
4513,-1.005,-0.825
4514,-0.865,-0.535
4515,-0.695,-0.305
4516,-0.385,-0.025
4517,-0.285,0.015
4518,-0.255,0.035
4519,-0.245,0.055
4520,-0.205,0.085
4521,-0.195,0.095
4522,-0.145,0.135
4523,-0.145,0.175
4524,-0.125,0.195
4525,-0.085,0.225
4526,-0.085,0.265
4527,-0.055,0.305
4528,-0.015,0.355
4529,0.015,0.425
4530,0.085,0.485
4531,0.095,0.525
4532,0.145,0.585
4533,0.205,0.635
4534,0.245,0.685
4535,0.295,0.695
4536,0.305,0.675
4537,0.315,0.655
4538,0.345,0.615
4539,0.315,0.515
4540,0.255,0.385
4541,0.195,0.265
4542,0.095,0.165
4543,-0.005,0.045
4544,-0.055,-0.035
4545,-0.125,-0.115
4546,-0.145,-0.125
4547,-0.205,-0.185
4548,-0.235,-0.195
4549,-0.245,-0.205
4550,-0.245,-0.205
4551,-0.245,-0.215
4552,-0.245,-0.205
4553,-0.245,-0.185
4554,-0.195,-0.165
4555,-0.205,-0.165
4556,-0.205,-0.175
4557,-0.205,-0.175
4558,-0.205,-0.155
4559,-0.195,-0.165
4560,-0.205,-0.155
4561,-0.195,-0.185
4562,-0.175,-0.175
4563,-0.195,-0.195
4564,-0.215,-0.205
4565,-0.215,-0.205
4566,-0.225,-0.215
4567,-0.225,-0.235
4568,-0.245,-0.245
4569,-0.245,-0.235
4570,-0.215,-0.245
4571,-0.245,-0.255
4572,-0.255,-0.275
4573,-0.245,-0.265
4574,-0.255,-0.255
4575,-0.255,-0.255
4576,-0.245,-0.265
4577,-0.255,-0.265
4578,-0.245,-0.255
4579,-0.245,-0.245
4580,-0.265,-0.265
4581,-0.265,-0.265
4582,-0.265,-0.245
4583,-0.245,-0.245
4584,-0.265,-0.265
4585,-0.255,-0.255
4586,-0.225,-0.235
4587,-0.225,-0.245
4588,-0.245,-0.245
4589,-0.215,-0.235
4590,-0.245,-0.245
4591,-0.255,-0.235
4592,-0.245,-0.215
4593,-0.215,-0.195
4594,-0.155,-0.145
4595,-0.155,-0.135
4596,-0.125,-0.145
4597,-0.075,-0.095
4598,-0.085,-0.145
4599,-0.175,-0.225
4600,-0.185,-0.245
4601,-0.155,-0.265
4602,-0.235,-0.255
4603,-0.245,-0.255
4604,-0.255,-0.265
4605,-0.265,-0.265
4606,-0.225,-0.255
4607,-0.225,-0.245
4608,-0.235,-0.255
4609,-0.415,-0.385
4610,-0.665,-0.165
4611,-0.575,0.055
4612,0.165,0.055
4613,1.345,0.105
4614,2.565,0.735
4615,3.005,0.885
4616,2.365,-0.475
4617,-0.065,-1.135
4618,-0.975,-0.895
4619,-1.035,-0.685
4620,-0.865,-0.475
4621,-0.655,-0.235
4622,-0.375,0.005
4623,-0.285,0.025
4624,-0.275,0.005
4625,-0.265,0.035
4626,-0.215,0.085
4627,-0.195,0.105
4628,-0.185,0.115
4629,-0.175,0.145
4630,-0.155,0.165
4631,-0.125,0.215
4632,-0.095,0.225
4633,-0.075,0.275
4634,-0.005,0.355
4635,0.015,0.395
4636,0.055,0.445
4637,0.105,0.505
4638,0.155,0.555
4639,0.185,0.585
4640,0.225,0.625
4641,0.305,0.655
4642,0.315,0.615
4643,0.275,0.535
4644,0.275,0.475
4645,0.265,0.415
4646,0.195,0.295
4647,0.125,0.205
4648,0.025,0.065
4649,-0.045,-0.015
4650,-0.065,-0.045
4651,-0.175,-0.145
4652,-0.175,-0.175
4653,-0.235,-0.175
4654,-0.275,-0.175
4655,-0.255,-0.185
4656,-0.245,-0.215
4657,-0.255,-0.205
4658,-0.225,-0.175
4659,-0.235,-0.185
4660,-0.215,-0.185
4661,-0.225,-0.185
4662,-0.195,-0.155
4663,-0.205,-0.175
4664,-0.225,-0.165
4665,-0.195,-0.165
4666,-0.175,-0.115
4667,-0.185,-0.165
4668,-0.225,-0.205
4669,-0.215,-0.255
4670,-0.215,-0.235
4671,-0.245,-0.225
4672,-0.235,-0.235
4673,-0.225,-0.245
4674,-0.235,-0.235
4675,-0.245,-0.235
4676,-0.265,-0.265
4677,-0.265,-0.255
4678,-0.275,-0.255
4679,-0.265,-0.255
4680,-0.275,-0.265
4681,-0.275,-0.275
4682,-0.245,-0.245
4683,-0.255,-0.235
4684,-0.265,-0.265
4685,-0.245,-0.265
4686,-0.275,-0.245
4687,-0.275,-0.245
4688,-0.265,-0.275
4689,-0.275,-0.265
4690,-0.245,-0.235
4691,-0.255,-0.245
4692,-0.245,-0.245
4693,-0.265,-0.255
4694,-0.245,-0.205
4695,-0.225,-0.185
4696,-0.215,-0.175
4697,-0.215,-0.185
4698,-0.155,-0.135
4699,-0.095,-0.105
4700,-0.075,-0.125
4701,-0.145,-0.205
4702,-0.165,-0.215
4703,-0.195,-0.245
4704,-0.245,-0.255
4705,-0.245,-0.245
4706,-0.245,-0.265
4707,-0.255,-0.255
4708,-0.265,-0.245
4709,-0.235,-0.265
4710,-0.255,-0.235
4711,-0.225,-0.245
4712,-0.615,-0.345
4713,-0.745,0.035
4714,-0.235,0.235
4715,0.845,-0.005
4716,2.245,0.345
4717,2.945,0.925
4718,2.835,-0.235
4719,0.055,-1.165
4720,-1.045,-0.925
4721,-1.085,-0.695
4722,-0.855,-0.455
4723,-0.635,-0.185
4724,-0.365,-0.005
4725,-0.325,0.015
4726,-0.275,0.055
4727,-0.225,0.075
4728,-0.215,0.085
4729,-0.215,0.105
4730,-0.145,0.165
4731,-0.135,0.175
4732,-0.135,0.185
4733,-0.115,0.225
4734,-0.075,0.265
4735,-0.045,0.305
4736,-0.015,0.355
4737,0.035,0.425
4738,0.085,0.485
4739,0.105,0.535
4740,0.175,0.585
4741,0.225,0.625
4742,0.235,0.645
4743,0.295,0.645
4744,0.315,0.605
4745,0.315,0.545
4746,0.295,0.495
4747,0.265,0.375
4748,0.215,0.275
4749,0.125,0.155
4750,0.025,0.065
4751,-0.025,-0.005
4752,-0.105,-0.095
4753,-0.155,-0.155
4754,-0.185,-0.195
4755,-0.245,-0.215
4756,-0.265,-0.255
4757,-0.265,-0.215
4758,-0.235,-0.225
4759,-0.245,-0.205
4760,-0.245,-0.215
4761,-0.235,-0.205
4762,-0.195,-0.185
4763,-0.195,-0.195
4764,-0.235,-0.205
4765,-0.195,-0.195
4766,-0.215,-0.195
4767,-0.185,-0.195
4768,-0.185,-0.205
4769,-0.175,-0.195
4770,-0.165,-0.195
4771,-0.175,-0.215
4772,-0.205,-0.255
4773,-0.205,-0.245
4774,-0.195,-0.235
4775,-0.185,-0.255
4776,-0.205,-0.275
4777,-0.215,-0.275
4778,-0.235,-0.275
4779,-0.235,-0.285
4780,-0.215,-0.275
4781,-0.235,-0.305
4782,-0.235,-0.295
4783,-0.245,-0.285
4784,-0.215,-0.285
4785,-0.235,-0.315
4786,-0.245,-0.305
4787,-0.235,-0.305
4788,-0.225,-0.275
4789,-0.205,-0.315
4790,-0.215,-0.295
4791,-0.215,-0.285
4792,-0.205,-0.305
4793,-0.225,-0.295
4794,-0.205,-0.265
4795,-0.165,-0.275
4796,-0.215,-0.255
4797,-0.145,-0.205
4798,-0.135,-0.185
4799,-0.095,-0.205
4800,-0.015,-0.195
4801,-0.005,-0.195
4802,-0.055,-0.225
4803,-0.135,-0.275
4804,-0.155,-0.325
4805,-0.165,-0.315
4806,-0.175,-0.295
4807,-0.215,-0.315
4808,-0.205,-0.315
4809,-0.215,-0.295
4810,-0.185,-0.265
4811,-0.185,-0.275
4812,-0.155,-0.285
4813,-0.405,-0.435
4814,-0.735,-0.195
4815,-0.555,0.055
4816,0.375,-0.045
4817,1.735,0.235
4818,2.855,1.105
4819,3.225,0.885
4820,1.705,-0.925
4821,-0.485,-1.085
4822,-1.145,-0.745
4823,-0.915,-0.445
4824,-0.655,-0.205
4825,-0.325,-0.015
4826,-0.265,-0.025
4827,-0.255,-0.005
4828,-0.235,0.025
4829,-0.185,0.035
4830,-0.175,0.075
4831,-0.155,0.095
4832,-0.135,0.145
4833,-0.085,0.165
4834,-0.065,0.225
4835,-0.075,0.265
4836,-0.035,0.285
4837,-0.015,0.375
4838,0.025,0.405
4839,0.085,0.505
4840,0.165,0.565
4841,0.175,0.605
4842,0.265,0.685
4843,0.285,0.695
4844,0.335,0.705
4845,0.375,0.645
4846,0.365,0.605
4847,0.325,0.515
4848,0.335,0.415
4849,0.245,0.275
4850,0.245,0.185
4851,0.135,0.055
4852,0.015,-0.065
4853,-0.075,-0.135
4854,-0.125,-0.185
4855,-0.175,-0.225
4856,-0.205,-0.255
4857,-0.215,-0.265
4858,-0.185,-0.265
4859,-0.205,-0.275
4860,-0.225,-0.255
4861,-0.215,-0.275
4862,-0.185,-0.265
4863,-0.175,-0.245
4864,-0.205,-0.245
4865,-0.175,-0.215
4866,-0.155,-0.215
4867,-0.165,-0.215
4868,-0.135,-0.235
4869,-0.155,-0.235
4870,-0.165,-0.235
4871,-0.215,-0.245
4872,-0.155,-0.265
4873,-0.145,-0.265
4874,-0.135,-0.235
4875,-0.145,-0.275
4876,-0.175,-0.305
4877,-0.215,-0.315
4878,-0.215,-0.315
4879,-0.205,-0.305
4880,-0.195,-0.325
4881,-0.195,-0.325
4882,-0.155,-0.305
4883,-0.215,-0.305
4884,-0.205,-0.335
4885,-0.235,-0.335
4886,-0.225,-0.345
4887,-0.205,-0.315
4888,-0.205,-0.325
4889,-0.185,-0.315
4890,-0.175,-0.315
4891,-0.205,-0.325
4892,-0.215,-0.315
4893,-0.205,-0.325
4894,-0.185,-0.285
4895,-0.175,-0.285
4896,-0.195,-0.285
4897,-0.165,-0.255
4898,-0.075,-0.205
4899,-0.085,-0.205
4900,-0.055,-0.205
4901,-0.035,-0.205
4902,-0.015,-0.215
4903,-0.085,-0.255
4904,-0.115,-0.315
4905,-0.155,-0.345
4906,-0.175,-0.355
4907,-0.195,-0.315
4908,-0.185,-0.335
4909,-0.195,-0.325
4910,-0.205,-0.315
4911,-0.205,-0.305
4912,-0.165,-0.305
4913,-0.145,-0.295
4914,-0.555,-0.475
4915,-0.755,-0.175
4916,-0.395,0.065
4917,0.615,-0.075
4918,2.105,0.565
4919,2.925,1.435
4920,3.245,0.725
4921,1.325,-1.085
4922,-0.655,-1.015
4923,-1.105,-0.705
4924,-0.865,-0.425
4925,-0.635,-0.185
4926,-0.315,-0.045
4927,-0.265,-0.045
4928,-0.265,-0.025
4929,-0.185,0.015
4930,-0.155,0.045
4931,-0.155,0.065
4932,-0.145,0.075
4933,-0.155,0.095
4934,-0.085,0.145
4935,-0.055,0.185
4936,-0.025,0.205
4937,-0.025,0.265
4938,0.055,0.335
4939,0.085,0.375
4940,0.095,0.445
4941,0.135,0.505
4942,0.195,0.565
4943,0.225,0.625
4944,0.325,0.635
4945,0.355,0.655
4946,0.405,0.665
4947,0.425,0.615
4948,0.405,0.535
4949,0.415,0.465
4950,0.355,0.325
4951,0.225,0.195
4952,0.185,0.085
4953,0.085,-0.035
4954,0.035,-0.085
4955,-0.055,-0.165
4956,-0.145,-0.225
4957,-0.145,-0.255
4958,-0.165,-0.265
4959,-0.215,-0.275
4960,-0.195,-0.255
4961,-0.165,-0.265
4962,-0.165,-0.235
4963,-0.175,-0.245
4964,-0.165,-0.235
4965,-0.155,-0.225
4966,-0.135,-0.235
4967,-0.145,-0.205
4968,-0.155,-0.215
4969,-0.135,-0.205
4970,-0.085,-0.215
4971,-0.135,-0.215
4972,-0.145,-0.265
4973,-0.155,-0.235
4974,-0.085,-0.255
4975,-0.125,-0.235
4976,-0.145,-0.285
4977,-0.155,-0.275
4978,-0.125,-0.265
4979,-0.145,-0.305
4980,-0.165,-0.285
4981,-0.145,-0.295
4982,-0.205,-0.295
4983,-0.145,-0.285
4984,-0.165,-0.305
4985,-0.165,-0.305
4986,-0.145,-0.285
4987,-0.175,-0.305
4988,-0.205,-0.315
4989,-0.155,-0.295
4990,-0.145,-0.315
4991,-0.185,-0.295
4992,-0.155,-0.295
4993,-0.145,-0.295
4994,-0.115,-0.265
4995,-0.155,-0.315
4996,-0.195,-0.315
4997,-0.145,-0.265
4998,-0.145,-0.295
4999,-0.175,-0.275
5000,-0.145,-0.255
5001,-0.115,-0.225
5002,-0.075,-0.185
5003,-0.045,-0.165
5004,-0.045,-0.215
5005,0.015,-0.135
5006,-0.005,-0.215
5007,-0.085,-0.245
5008,-0.095,-0.285
5009,-0.115,-0.335
5010,-0.135,-0.295
5011,-0.145,-0.285
5012,-0.165,-0.305
5013,-0.165,-0.325
5014,-0.145,-0.285
5015,-0.165,-0.265
5016,-0.115,-0.255
5017,-0.185,-0.365
5018,-0.615,-0.275
5019,-0.665,-0.015
5020,-0.145,0.155
5021,1.145,0.155
5022,2.595,0.925
5023,3.105,1.195
5024,2.745,-0.535
5025,0.065,-1.165
5026,-1.005,-0.835
5027,-1.055,-0.645
5028,-0.885,-0.445
5029,-0.625,-0.165
5030,-0.285,-0.005
5031,-0.235,-0.005
5032,-0.195,0.025
5033,-0.185,0.035
5034,-0.135,0.075
5035,-0.105,0.095
5036,-0.095,0.115
5037,-0.095,0.155
5038,-0.035,0.185
5039,-0.025,0.215
5040,0.005,0.255
5041,0.035,0.295
5042,0.075,0.385
5043,0.105,0.425
5044,0.165,0.475
5045,0.165,0.525
5046,0.245,0.615
5047,0.315,0.645
5048,0.345,0.635
5049,0.395,0.645
5050,0.415,0.645
5051,0.395,0.585
5052,0.375,0.505
5053,0.375,0.415
5054,0.345,0.315
5055,0.265,0.185
5056,0.135,0.065
5057,0.065,-0.015
5058,0.005,-0.075
5059,-0.075,-0.155
5060,-0.105,-0.165
5061,-0.115,-0.215
5062,-0.165,-0.195
5063,-0.155,-0.205
5064,-0.175,-0.215
5065,-0.155,-0.205
5066,-0.155,-0.175
5067,-0.135,-0.175
5068,-0.115,-0.165
5069,-0.135,-0.175
5070,-0.105,-0.165
5071,-0.085,-0.175
5072,-0.095,-0.165
5073,-0.095,-0.185
5074,-0.105,-0.165
5075,-0.145,-0.195
5076,-0.085,-0.205
5077,-0.085,-0.215
5078,-0.105,-0.215
5079,-0.125,-0.225
5080,-0.145,-0.245
5081,-0.135,-0.265
5082,-0.125,-0.265
5083,-0.125,-0.245
5084,-0.145,-0.265
5085,-0.165,-0.275
5086,-0.165,-0.275
5087,-0.165,-0.275
5088,-0.175,-0.285
5089,-0.175,-0.285
5090,-0.135,-0.265
5091,-0.175,-0.285
5092,-0.175,-0.285
5093,-0.165,-0.285
5094,-0.165,-0.275
5095,-0.165,-0.285
5096,-0.185,-0.295
5097,-0.175,-0.265
5098,-0.145,-0.255
5099,-0.155,-0.245
5100,-0.135,-0.295
5101,-0.165,-0.275
5102,-0.145,-0.255
5103,-0.135,-0.255
5104,-0.165,-0.265
5105,-0.145,-0.245
5106,-0.135,-0.205
5107,-0.065,-0.195
5108,-0.065,-0.155
5109,-0.005,-0.135
5110,-0.005,-0.135
5111,0.015,-0.175
5112,-0.075,-0.255
5113,-0.095,-0.245
5114,-0.085,-0.275
5115,-0.135,-0.275
5116,-0.215,-0.295
5117,-0.145,-0.255
5118,-0.135,-0.265
5119,-0.155,-0.255
5120,-0.145,-0.265
5121,-0.105,-0.255
5122,-0.155,-0.315
5123,-0.605,-0.265
5124,-0.685,0.015
5125,-0.045,0.115
5126,1.185,0.115
5127,2.645,0.885
5128,3.135,1.125
5129,2.835,-0.445
5130,0.225,-1.135
5131,-0.975,-0.845
5132,-1.025,-0.605
5133,-0.795,-0.345
5134,-0.555,-0.105
5135,-0.285,0.015
5136,-0.185,0.035
5137,-0.175,0.035
5138,-0.135,0.085
5139,-0.125,0.105
5140,-0.125,0.125
5141,-0.125,0.145
5142,-0.035,0.185
5143,-0.025,0.215
5144,-0.015,0.265
5145,0.005,0.265
5146,0.045,0.375
5147,0.095,0.415
5148,0.105,0.425
5149,0.145,0.515
5150,0.205,0.605
5151,0.245,0.635
5152,0.295,0.695
5153,0.355,0.715
5154,0.385,0.715
5155,0.435,0.685
5156,0.415,0.645
5157,0.415,0.565
5158,0.385,0.475
5159,0.325,0.375
5160,0.285,0.225
5161,0.195,0.125
5162,0.115,0.045
5163,0.055,-0.025
5164,-0.025,-0.115
5165,-0.105,-0.165
5166,-0.115,-0.185
5167,-0.135,-0.185
5168,-0.165,-0.195
5169,-0.165,-0.215
5170,-0.145,-0.195
5171,-0.155,-0.195
5172,-0.155,-0.205
5173,-0.135,-0.175
5174,-0.105,-0.155
5175,-0.125,-0.145
5176,-0.105,-0.155
5177,-0.105,-0.165
5178,-0.105,-0.155
5179,-0.085,-0.155
5180,-0.115,-0.175
5181,-0.115,-0.185
5182,-0.085,-0.185
5183,-0.105,-0.185
5184,-0.125,-0.215
5185,-0.115,-0.235
5186,-0.125,-0.215
5187,-0.115,-0.225
5188,-0.155,-0.255
5189,-0.135,-0.245
5190,-0.145,-0.255
5191,-0.175,-0.265
5192,-0.155,-0.265
5193,-0.155,-0.265
5194,-0.185,-0.255
5195,-0.175,-0.255
5196,-0.175,-0.275
5197,-0.175,-0.275
5198,-0.155,-0.235
5199,-0.175,-0.265
5200,-0.185,-0.245
5201,-0.155,-0.265
5202,-0.165,-0.245
5203,-0.155,-0.255
5204,-0.165,-0.255
5205,-0.175,-0.255
5206,-0.145,-0.245
5207,-0.185,-0.225
5208,-0.145,-0.235
5209,-0.165,-0.235
5210,-0.165,-0.205
5211,-0.115,-0.235
5212,-0.145,-0.235
5213,-0.155,-0.215
5214,-0.135,-0.205
5215,-0.155,-0.235
5216,-0.145,-0.195
5217,-0.125,-0.195
5218,-0.085,-0.155
5219,-0.045,-0.115
5220,-0.005,-0.105
5221,0.005,-0.085
5222,0.035,-0.115
5223,-0.065,-0.205
5224,-0.065,-0.225
5225,-0.095,-0.245
5226,-0.125,-0.205
5227,-0.165,-0.225
5228,-0.155,-0.245
5229,-0.175,-0.245
5230,-0.145,-0.225
5231,-0.165,-0.205
5232,-0.105,-0.205
5233,-0.345,-0.405
5234,-0.635,-0.145
5235,-0.615,0.045
5236,0.125,0.025
5237,1.435,0.225
5238,2.715,1.095
5239,3.035,1.225
5240,2.865,-0.275
5241,0.345,-1.105
5242,-0.865,-0.805
5243,-0.995,-0.555
5244,-0.785,-0.365
5245,-0.605,-0.155
5246,-0.315,-0.005
5247,-0.245,0.045
5248,-0.205,0.055
5249,-0.185,0.075
5250,-0.195,0.095
5251,-0.125,0.145
5252,-0.115,0.175
5253,-0.095,0.195
5254,-0.075,0.235
5255,-0.055,0.255
5256,-0.025,0.315
5257,0.005,0.355
5258,0.025,0.415
5259,0.095,0.525
5260,0.125,0.565
5261,0.145,0.625
5262,0.225,0.705
5263,0.265,0.715
5264,0.315,0.755
5265,0.355,0.755
5266,0.385,0.755
5267,0.405,0.685
5268,0.395,0.605
5269,0.365,0.515
5270,0.345,0.375
5271,0.235,0.255
5272,0.155,0.125
5273,0.075,0.015
5274,0.015,-0.045
5275,-0.065,-0.105
5276,-0.115,-0.165
5277,-0.155,-0.185
5278,-0.145,-0.185
5279,-0.185,-0.225
5280,-0.195,-0.215
5281,-0.165,-0.185
5282,-0.135,-0.175
5283,-0.135,-0.175
5284,-0.145,-0.185
5285,-0.125,-0.175
5286,-0.125,-0.145
5287,-0.125,-0.145
5288,-0.115,-0.145
5289,-0.145,-0.195
5290,-0.105,-0.165
5291,-0.105,-0.175
5292,-0.125,-0.175
5293,-0.145,-0.205
5294,-0.155,-0.225
5295,-0.135,-0.225
5296,-0.135,-0.235
5297,-0.145,-0.235
5298,-0.155,-0.245
5299,-0.165,-0.255
5300,-0.185,-0.265
5301,-0.165,-0.265
5302,-0.165,-0.255
5303,-0.165,-0.275
5304,-0.225,-0.315
5305,-0.165,-0.275
5306,-0.175,-0.265
5307,-0.185,-0.285
5308,-0.205,-0.285
5309,-0.195,-0.285
5310,-0.205,-0.275
5311,-0.175,-0.275
5312,-0.175,-0.275
5313,-0.185,-0.285
5314,-0.165,-0.255
5315,-0.185,-0.285
5316,-0.185,-0.265
5317,-0.185,-0.265
5318,-0.185,-0.275
5319,-0.215,-0.275
5320,-0.185,-0.275
5321,-0.165,-0.255
5322,-0.145,-0.245
5323,-0.165,-0.265
5324,-0.195,-0.275
5325,-0.165,-0.255
5326,-0.165,-0.255
5327,-0.165,-0.255
5328,-0.165,-0.275
5329,-0.175,-0.235
5330,-0.125,-0.215
5331,-0.105,-0.205
5332,-0.135,-0.175
5333,-0.055,-0.165
5334,-0.015,-0.145
5335,-0.015,-0.115
5336,-0.005,-0.215
5337,-0.085,-0.255
5338,-0.115,-0.255
5339,-0.155,-0.275
5340,-0.165,-0.285
5341,-0.155,-0.285
5342,-0.175,-0.265
5343,-0.165,-0.255
5344,-0.185,-0.265
5345,-0.145,-0.255
5346,-0.095,-0.245
5347,-0.465,-0.415
5348,-0.735,-0.115
5349,-0.475,0.115
5350,0.445,0.005
5351,1.855,0.485
5352,2.875,1.325
5353,3.315,0.585
5354,1.325,-1.155
5355,-0.665,-1.015
5356,-1.115,-0.755
5357,-0.975,-0.545
5358,-0.775,-0.315
5359,-0.425,-0.025
5360,-0.255,-0.005
5361,-0.235,-0.015
5362,-0.195,0.025
5363,-0.165,0.065
5364,-0.175,0.065
5365,-0.135,0.105
5366,-0.115,0.115
5367,-0.095,0.145
5368,-0.095,0.185
5369,-0.045,0.215
5370,-0.015,0.275
5371,0.015,0.305
5372,0.035,0.365
5373,0.065,0.415
5374,0.105,0.485
5375,0.175,0.555
5376,0.225,0.595
5377,0.275,0.605
5378,0.325,0.665
5379,0.345,0.625
5380,0.335,0.585
5381,0.345,0.545
5382,0.355,0.465
5383,0.295,0.385
5384,0.255,0.255
5385,0.185,0.145
5386,0.105,0.045
5387,0.025,-0.055
5388,-0.085,-0.155
5389,-0.125,-0.175
5390,-0.145,-0.225
5391,-0.205,-0.245
5392,-0.195,-0.245
5393,-0.185,-0.235
5394,-0.215,-0.225
5395,-0.185,-0.225
5396,-0.185,-0.225
5397,-0.195,-0.215
5398,-0.165,-0.225
5399,-0.185,-0.235
5400,-0.185,-0.225
5401,-0.155,-0.195
5402,-0.145,-0.225
5403,-0.125,-0.215
5404,-0.155,-0.245
5405,-0.155,-0.245
5406,-0.145,-0.265
5407,-0.175,-0.265
5408,-0.165,-0.275
5409,-0.215,-0.285
5410,-0.185,-0.275
5411,-0.185,-0.305
5412,-0.215,-0.335
5413,-0.215,-0.315
5414,-0.195,-0.315
5415,-0.215,-0.305
5416,-0.215,-0.335
5417,-0.215,-0.335
5418,-0.245,-0.325
5419,-0.195,-0.315
5420,-0.215,-0.345
5421,-0.225,-0.335
5422,-0.215,-0.325
5423,-0.215,-0.315
5424,-0.235,-0.325
5425,-0.215,-0.335
5426,-0.215,-0.315
5427,-0.215,-0.325
5428,-0.205,-0.335
5429,-0.215,-0.335
5430,-0.195,-0.305
5431,-0.205,-0.325
5432,-0.195,-0.315
5433,-0.195,-0.315
5434,-0.195,-0.295
5435,-0.205,-0.315
5436,-0.205,-0.315
5437,-0.205,-0.305
5438,-0.155,-0.255
5439,-0.135,-0.235
5440,-0.105,-0.205
5441,-0.055,-0.215
5442,-0.035,-0.185
5443,-0.075,-0.235
5444,-0.105,-0.295
5445,-0.145,-0.325
5446,-0.145,-0.335
5447,-0.205,-0.345
5448,-0.215,-0.335
5449,-0.195,-0.315
5450,-0.195,-0.315
5451,-0.175,-0.315
5452,-0.195,-0.315
5453,-0.115,-0.315
5454,-0.425,-0.455
5455,-0.735,-0.105
5456,-0.485,0.085
5457,0.465,-0.095
5458,1.895,0.245
5459,2.865,1.005
5460,3.195,0.555
5461,1.835,-1.115
5462,-0.455,-1.115
5463,-1.105,-0.845
5464,-1.025,-0.635
5465,-0.795,-0.365
5466,-0.455,-0.075
5467,-0.275,-0.035
5468,-0.245,-0.045
5469,-0.225,-0.005
5470,-0.155,0.005
5471,-0.185,0.035
5472,-0.115,0.075
5473,-0.115,0.095
5474,-0.085,0.155
5475,-0.075,0.165
5476,-0.015,0.195
5477,-0.005,0.245
5478,0.025,0.295
5479,0.045,0.345
5480,0.115,0.425
5481,0.155,0.495
5482,0.225,0.555
5483,0.255,0.585
5484,0.315,0.625
5485,0.345,0.645
5486,0.365,0.625
5487,0.385,0.605
5488,0.365,0.525
5489,0.375,0.415
5490,0.335,0.315
5491,0.245,0.195
5492,0.185,0.065
5493,0.065,-0.045
5494,-0.045,-0.125
5495,-0.055,-0.155
5496,-0.125,-0.215
5497,-0.145,-0.255
5498,-0.155,-0.255
5499,-0.195,-0.265
5500,-0.195,-0.265
5501,-0.195,-0.265
5502,-0.185,-0.245
5503,-0.215,-0.255
5504,-0.215,-0.245
5505,-0.165,-0.245
5506,-0.145,-0.235
5507,-0.165,-0.245
5508,-0.195,-0.255
5509,-0.165,-0.235
5510,-0.145,-0.255
5511,-0.155,-0.275
5512,-0.195,-0.245
5513,-0.145,-0.265
5514,-0.135,-0.265
5515,-0.155,-0.285
5516,-0.205,-0.315
5517,-0.195,-0.315
5518,-0.185,-0.315
5519,-0.215,-0.315
5520,-0.225,-0.325
5521,-0.215,-0.345
5522,-0.205,-0.315
5523,-0.185,-0.335
5524,-0.215,-0.355
5525,-0.235,-0.345
5526,-0.235,-0.335
5527,-0.225,-0.345
5528,-0.215,-0.345
5529,-0.235,-0.335
5530,-0.225,-0.325
5531,-0.215,-0.325
5532,-0.245,-0.355
5533,-0.225,-0.355
5534,-0.225,-0.355
5535,-0.235,-0.345
5536,-0.245,-0.335
5537,-0.215,-0.345
5538,-0.215,-0.305
5539,-0.205,-0.325
5540,-0.235,-0.335
5541,-0.225,-0.315
5542,-0.215,-0.295
5543,-0.195,-0.245
5544,-0.155,-0.245
5545,-0.125,-0.215
5546,-0.065,-0.195
5547,-0.025,-0.205
5548,-0.145,-0.285
5549,-0.155,-0.315
5550,-0.175,-0.365
5551,-0.235,-0.335
5552,-0.225,-0.335
5553,-0.255,-0.355
5554,-0.225,-0.325
5555,-0.225,-0.335
5556,-0.235,-0.345
5557,-0.225,-0.315
5558,-0.245,-0.385
5559,-0.705,-0.385
5560,-0.795,-0.105
5561,-0.215,-0.005
5562,0.905,-0.085
5563,2.385,0.635
5564,2.955,1.245
5565,3.065,0.025
5566,0.635,-1.225
5567,-0.905,-0.975
5568,-1.135,-0.665
5569,-0.905,-0.425
5570,-0.645,-0.185
5571,-0.375,-0.035
5572,-0.325,-0.065
5573,-0.295,-0.035
5574,-0.255,-0.025
5575,-0.255,0.025
5576,-0.215,0.055
5577,-0.205,0.065
5578,-0.175,0.115
5579,-0.155,0.145
5580,-0.135,0.165
5581,-0.105,0.215
5582,-0.065,0.275
5583,-0.055,0.345
5584,-0.015,0.375
5585,0.045,0.455
5586,0.085,0.545
5587,0.155,0.605
5588,0.185,0.655
5589,0.255,0.675
5590,0.305,0.685
5591,0.325,0.665
5592,0.315,0.615
5593,0.295,0.535
5594,0.315,0.445
5595,0.245,0.315
5596,0.175,0.155
5597,0.085,0.055
5598,-0.005,-0.025
5599,-0.075,-0.115
5600,-0.165,-0.205
5601,-0.205,-0.225
5602,-0.195,-0.245
5603,-0.235,-0.255
5604,-0.255,-0.285
5605,-0.265,-0.275
5606,-0.275,-0.285
5607,-0.255,-0.265
5608,-0.265,-0.265
5609,-0.235,-0.265
5610,-0.215,-0.225
5611,-0.205,-0.235
5612,-0.225,-0.235
5613,-0.235,-0.235
5614,-0.215,-0.225
5615,-0.225,-0.225
5616,-0.215,-0.265
5617,-0.215,-0.255
5618,-0.205,-0.255
5619,-0.225,-0.265
5620,-0.225,-0.295
5621,-0.245,-0.295
5622,-0.265,-0.305
5623,-0.265,-0.315
5624,-0.255,-0.315
5625,-0.245,-0.315
5626,-0.235,-0.305
5627,-0.275,-0.325
5628,-0.275,-0.335
5629,-0.265,-0.335
5630,-0.275,-0.315
5631,-0.255,-0.305
5632,-0.275,-0.335
5633,-0.265,-0.325
5634,-0.225,-0.295
5635,-0.245,-0.325
5636,-0.265,-0.325
5637,-0.255,-0.335
5638,-0.265,-0.335
5639,-0.255,-0.295
5640,-0.255,-0.315
5641,-0.245,-0.315
5642,-0.225,-0.295
5643,-0.255,-0.305
5644,-0.245,-0.295
5645,-0.255,-0.325
5646,-0.255,-0.295
5647,-0.235,-0.265
5648,-0.175,-0.225
5649,-0.175,-0.225
5650,-0.115,-0.175
5651,-0.075,-0.175
5652,-0.065,-0.185
5653,-0.105,-0.245
5654,-0.155,-0.285
5655,-0.175,-0.305
5656,-0.205,-0.335
5657,-0.225,-0.315
5658,-0.235,-0.305
5659,-0.225,-0.305
5660,-0.235,-0.305
5661,-0.225,-0.305
5662,-0.225,-0.275
5663,-0.185,-0.265
5664,-0.465,-0.485
5665,-0.775,-0.205
5666,-0.585,0.015
5667,0.255,-0.095
5668,1.595,0.275
5669,2.765,1.155
5670,3.225,0.875
5671,1.645,-1.005
5672,-0.555,-1.095
5673,-1.155,-0.765
5674,-0.985,-0.495
5675,-0.775,-0.305
5676,-0.455,-0.045
5677,-0.315,-0.035
5678,-0.275,-0.005
5679,-0.285,0.035
5680,-0.215,0.045
5681,-0.215,0.065
5682,-0.175,0.115
5683,-0.155,0.135
5684,-0.135,0.165
5685,-0.105,0.185
5686,-0.085,0.225
5687,-0.075,0.275
5688,-0.035,0.345
5689,-0.005,0.385
5690,0.025,0.445
5691,0.105,0.525
5692,0.125,0.575
5693,0.205,0.655
5694,0.255,0.695
5695,0.305,0.735
5696,0.335,0.715
5697,0.345,0.655
5698,0.365,0.645
5699,0.335,0.545
5700,0.305,0.435
5701,0.225,0.275
5702,0.175,0.155
5703,0.055,0.045
5704,-0.015,-0.035
5705,-0.105,-0.105
5706,-0.115,-0.135
5707,-0.175,-0.195
5708,-0.215,-0.205
5709,-0.215,-0.225
5710,-0.225,-0.205
5711,-0.225,-0.215
5712,-0.225,-0.225
5713,-0.215,-0.195
5714,-0.185,-0.175
5715,-0.175,-0.185
5716,-0.195,-0.185
5717,-0.195,-0.185
5718,-0.185,-0.175
5719,-0.185,-0.195
5720,-0.175,-0.175
5721,-0.185,-0.185
5722,-0.145,-0.185
5723,-0.165,-0.205
5724,-0.195,-0.235
5725,-0.205,-0.225
5726,-0.205,-0.225
5727,-0.205,-0.245
5728,-0.205,-0.255
5729,-0.215,-0.245
5730,-0.215,-0.255
5731,-0.215,-0.255
5732,-0.245,-0.295
5733,-0.245,-0.265
5734,-0.225,-0.275
5735,-0.235,-0.265
5736,-0.225,-0.265
5737,-0.225,-0.265
5738,-0.205,-0.255
5739,-0.225,-0.255
5740,-0.225,-0.265
5741,-0.225,-0.245
5742,-0.235,-0.255
5743,-0.215,-0.275
5744,-0.245,-0.275
5745,-0.225,-0.245
5746,-0.185,-0.245
5747,-0.195,-0.235
5748,-0.215,-0.245
5749,-0.205,-0.225
5750,-0.195,-0.205
5751,-0.165,-0.175
5752,-0.155,-0.185
5753,-0.115,-0.135
5754,-0.035,-0.115
5755,-0.025,-0.125
5756,-0.105,-0.205
5757,-0.145,-0.235
5758,-0.155,-0.265
5759,-0.205,-0.265
5760,-0.215,-0.265
5761,-0.215,-0.265
5762,-0.185,-0.245
5763,-0.205,-0.245
5764,-0.205,-0.245
5765,-0.205,-0.225
5766,-0.145,-0.215
5767,-0.505,-0.355
5768,-0.725,-0.055
5769,-0.525,0.135
5770,0.525,0.025
5771,2.035,0.355
5772,2.905,1.065
5773,3.185,0.345
5774,0.895,-1.095
5775,-0.775,-0.955
5776,-1.095,-0.725
5777,-0.975,-0.525
5778,-0.735,-0.275
5779,-0.485,-0.045
5780,-0.305,0.035
5781,-0.255,0.065
5782,-0.225,0.095
5783,-0.205,0.115
5784,-0.165,0.135
5785,-0.155,0.155
5786,-0.115,0.215
5787,-0.105,0.235
5788,-0.085,0.255
5789,-0.065,0.275
5790,-0.035,0.335
5791,0.005,0.375
5792,0.045,0.425
5793,0.065,0.505
5794,0.155,0.585
5795,0.195,0.625
5796,0.215,0.685
5797,0.305,0.725
5798,0.325,0.725
5799,0.355,0.715
5800,0.365,0.685
5801,0.375,0.635
5802,0.355,0.565
5803,0.325,0.465
5804,0.245,0.335
5805,0.155,0.195
5806,0.075,0.105
5807,0.005,0.025
5808,-0.055,-0.045
5809,-0.115,-0.105
5810,-0.135,-0.105
5811,-0.165,-0.115
5812,-0.185,-0.145
5813,-0.195,-0.155
5814,-0.185,-0.145
5815,-0.195,-0.125
5816,-0.185,-0.135
5817,-0.175,-0.125
5818,-0.145,-0.105
5819,-0.145,-0.115
5820,-0.145,-0.135
5821,-0.145,-0.115
5822,-0.135,-0.125
5823,-0.145,-0.125
5824,-0.145,-0.135
5825,-0.145,-0.145
5826,-0.155,-0.135
5827,-0.145,-0.155
5828,-0.155,-0.175
5829,-0.165,-0.185
5830,-0.155,-0.185
5831,-0.175,-0.195
5832,-0.195,-0.205
5833,-0.185,-0.225
5834,-0.185,-0.195
5835,-0.195,-0.225
5836,-0.205,-0.225
5837,-0.205,-0.225
5838,-0.195,-0.215
5839,-0.185,-0.215
5840,-0.225,-0.235
5841,-0.205,-0.235
5842,-0.165,-0.205
5843,-0.195,-0.225
5844,-0.195,-0.225
5845,-0.185,-0.235
5846,-0.185,-0.225
5847,-0.195,-0.225
5848,-0.195,-0.215
5849,-0.185,-0.195
5850,-0.155,-0.175
5851,-0.125,-0.135
5852,-0.125,-0.135
5853,-0.065,-0.095
5854,0.005,-0.095
5855,0.005,-0.125
5856,-0.075,-0.155
5857,-0.105,-0.195
5858,-0.085,-0.195
5859,-0.165,-0.255
5860,-0.175,-0.225
5861,-0.175,-0.235
5862,-0.215,-0.235
5863,-0.185,-0.225
5864,-0.175,-0.225
5865,-0.185,-0.215
5866,-0.125,-0.195
5867,-0.295,-0.315
5868,-0.665,-0.215
5869,-0.635,0.065
5870,0.015,0.125
5871,1.345,0.125
5872,2.705,0.805
5873,3.125,0.965
5874,2.325,-0.515
5875,-0.155,-1.095
5876,-1.025,-0.825
5877,-0.975,-0.565
5878,-0.755,-0.295
5879,-0.455,-0.035
5880,-0.305,0.055
5881,-0.235,0.075
5882,-0.175,0.115
5883,-0.185,0.125
5884,-0.175,0.135
5885,-0.155,0.165
5886,-0.125,0.195
5887,-0.095,0.215
5888,-0.085,0.265
5889,-0.045,0.305
5890,0.035,0.365
5891,0.015,0.395
5892,0.025,0.425
5893,0.085,0.505
5894,0.125,0.585
5895,0.165,0.645
5896,0.225,0.695
5897,0.275,0.735
5898,0.355,0.795
5899,0.365,0.765
5900,0.385,0.735
5901,0.375,0.665
5902,0.375,0.595
5903,0.325,0.475
5904,0.275,0.345
5905,0.195,0.235
5906,0.125,0.165
5907,0.045,0.045
5908,-0.045,-0.065
5909,-0.095,-0.085
5910,-0.145,-0.115
5911,-0.145,-0.125
5912,-0.165,-0.165
5913,-0.155,-0.155
5914,-0.155,-0.155
5915,-0.175,-0.145
5916,-0.165,-0.155
5917,-0.175,-0.185
5918,-0.165,-0.125
5919,-0.135,-0.115
5920,-0.155,-0.135
5921,-0.125,-0.145
5922,-0.075,-0.115
5923,-0.095,-0.135
5924,-0.125,-0.135
5925,-0.115,-0.155
5926,-0.115,-0.175
5927,-0.145,-0.175
5928,-0.125,-0.185
5929,-0.125,-0.205
5930,-0.125,-0.195
5931,-0.115,-0.205
5932,-0.155,-0.235
5933,-0.145,-0.225
5934,-0.175,-0.225
5935,-0.145,-0.215
5936,-0.165,-0.255
5937,-0.165,-0.245
5938,-0.125,-0.235
5939,-0.155,-0.245
5940,-0.155,-0.265
5941,-0.185,-0.265
5942,-0.165,-0.255
5943,-0.175,-0.235
5944,-0.145,-0.255
5945,-0.145,-0.255
5946,-0.125,-0.245
5947,-0.155,-0.245
5948,-0.165,-0.255
5949,-0.135,-0.255
5950,-0.135,-0.235
5951,-0.135,-0.215
5952,-0.125,-0.225
5953,-0.105,-0.195
5954,-0.075,-0.165
5955,-0.025,-0.115
5956,0.025,-0.125
5957,0.045,-0.135
5958,-0.025,-0.175
5959,-0.035,-0.235
5960,-0.065,-0.285
5961,-0.115,-0.275
5962,-0.135,-0.255
5963,-0.115,-0.265
5964,-0.125,-0.275
5965,-0.105,-0.265
5966,-0.125,-0.245
5967,-0.125,-0.225
5968,-0.085,-0.235
5969,-0.325,-0.415
5970,-0.595,-0.225
5971,-0.555,0.015
5972,0.175,0.035
5973,1.525,0.145
5974,2.725,0.845
5975,3.085,1.155
5976,2.545,-0.325
5977,0.035,-1.165
5978,-0.915,-0.865
5979,-0.895,-0.605
5980,-0.705,-0.345
5981,-0.405,-0.075
5982,-0.215,0.025
5983,-0.175,0.045
5984,-0.135,0.045
5985,-0.135,0.065
5986,-0.085,0.125
5987,-0.085,0.135
5988,-0.085,0.135
5989,-0.055,0.195
5990,-0.025,0.235
5991,0.005,0.255
5992,0.005,0.285
5993,0.065,0.325
5994,0.105,0.415
5995,0.115,0.465
5996,0.165,0.525
5997,0.205,0.595
5998,0.275,0.685
5999,0.315,0.685
6000,0.335,0.685
6001,0.385,0.725
6002,0.425,0.715
6003,0.425,0.655
6004,0.395,0.585
6005,0.385,0.495
6006,0.355,0.375
6007,0.255,0.265
6008,0.145,0.155
6009,0.105,0.035
6010,0.065,-0.055
6011,-0.045,-0.085
6012,-0.065,-0.105
6013,-0.075,-0.205
6014,-0.125,-0.205
6015,-0.125,-0.205
6016,-0.135,-0.155
6017,-0.105,-0.155
6018,-0.085,-0.155
6019,-0.085,-0.105
6020,-0.105,-0.075
6021,-0.095,-0.155
6022,-0.055,-0.185
6023,-0.055,-0.185
6024,-0.055,-0.215
6025,-0.065,-0.175
6026,-0.045,-0.155
6027,-0.075,-0.105
6028,-0.075,-0.215
6029,-0.105,-0.215
6030,-0.085,-0.205
6031,-0.085,-0.205
6032,-0.115,-0.205
6033,-0.095,-0.215
6034,-0.075,-0.265
6035,-0.105,-0.275
6036,-0.135,-0.255
6037,-0.135,-0.195
6038,-0.115,-0.315
6039,-0.095,-0.295
6040,-0.135,-0.295
6041,-0.125,-0.275
6042,-0.095,-0.205
6043,-0.115,-0.235
6044,-0.145,-0.285
6045,-0.145,-0.305
6046,-0.125,-0.315
6047,-0.105,-0.265
6048,-0.135,-0.265
6049,-0.125,-0.265
6050,-0.085,-0.275
6051,-0.095,-0.265
6052,-0.105,-0.255
6053,-0.105,-0.235
6054,-0.115,-0.225
6055,-0.095,-0.215
6056,-0.055,-0.185
6057,-0.055,-0.175
6058,0.005,-0.135
6059,0.055,-0.105
6060,0.065,-0.135
6061,0.005,-0.185
6062,-0.035,-0.235
6063,-0.055,-0.255
6064,-0.095,-0.275
6065,-0.135,-0.265
6066,-0.075,-0.265
6067,-0.115,-0.265
6068,-0.115,-0.255
6069,-0.145,-0.255
6070,-0.185,-0.245
6071,-0.095,-0.225
6072,-0.325,-0.375
6073,-0.615,-0.195
6074,-0.455,0.095
6075,0.365,0.105
6076,1.745,0.215
6077,2.815,0.845
6078,3.155,0.485
6079,1.245,-0.985
6080,-0.575,-1.065
6081,-0.995,-0.835
6082,-0.865,-0.635
6083,-0.685,-0.395
6084,-0.425,-0.115
6085,-0.245,-0.005
6086,-0.195,0.015
6087,-0.175,0.045
6088,-0.145,0.065
6089,-0.135,0.085
6090,-0.085,0.115
6091,-0.105,0.115
6092,-0.065,0.165
6093,-0.045,0.175
6094,-0.035,0.205
6095,0.015,0.245
6096,0.015,0.275
6097,0.045,0.325
6098,0.115,0.395
6099,0.145,0.455
6100,0.185,0.515
6101,0.245,0.545
6102,0.265,0.585
6103,0.305,0.635
6104,0.315,0.635
6105,0.355,0.615
6106,0.385,0.605
6107,0.345,0.535
6108,0.315,0.445
6109,0.275,0.345
6110,0.205,0.225
6111,0.115,0.115
6112,0.045,0.035
6113,-0.015,-0.045
6114,-0.045,-0.085
6115,-0.095,-0.135
6116,-0.135,-0.155
6117,-0.145,-0.155
6118,-0.175,-0.155
6119,-0.155,-0.145
6120,-0.155,-0.155
6121,-0.145,-0.165
6122,-0.125,-0.135
6123,-0.115,-0.135
6124,-0.125,-0.155
6125,-0.125,-0.135
6126,-0.115,-0.135
6127,-0.115,-0.145
6128,-0.135,-0.155
6129,-0.135,-0.165
6130,-0.115,-0.155
6131,-0.115,-0.165
6132,-0.145,-0.195
6133,-0.145,-0.185
6134,-0.155,-0.195
6135,-0.155,-0.205
6136,-0.185,-0.225
6137,-0.175,-0.235
6138,-0.175,-0.225
6139,-0.165,-0.225
6140,-0.195,-0.245
6141,-0.195,-0.255
6142,-0.225,-0.255
6143,-0.175,-0.235
6144,-0.215,-0.245
6145,-0.225,-0.255
6146,-0.165,-0.235
6147,-0.225,-0.245
6148,-0.205,-0.255
6149,-0.195,-0.245
6150,-0.185,-0.225
6151,-0.205,-0.245
6152,-0.205,-0.255
6153,-0.185,-0.255
6154,-0.175,-0.225
6155,-0.185,-0.215
6156,-0.205,-0.215
6157,-0.165,-0.175
6158,-0.135,-0.165
6159,-0.075,-0.115
6160,-0.035,-0.115
6161,-0.045,-0.145
6162,-0.045,-0.165
6163,-0.125,-0.225
6164,-0.155,-0.255
6165,-0.175,-0.275
6166,-0.205,-0.265
6167,-0.205,-0.265
6168,-0.215,-0.285
6169,-0.215,-0.265
6170,-0.175,-0.255
6171,-0.175,-0.235
6172,-0.175,-0.245
6173,-0.405,-0.365
6174,-0.655,-0.145
6175,-0.515,0.095
6176,0.315,0.035
6177,1.685,0.055
6178,2.735,0.585
6179,3.145,0.455
6180,1.425,-0.935
6181,-0.525,-1.065
6182,-1.015,-0.805
6183,-0.915,-0.605
6184,-0.705,-0.345
6185,-0.425,-0.065
6186,-0.255,0.025
6187,-0.255,0.035
6188,-0.205,0.045
6189,-0.165,0.065
6190,-0.185,0.095
6191,-0.135,0.125
6192,-0.135,0.145
6193,-0.105,0.165
6194,-0.075,0.205
6195,-0.075,0.245
6196,-0.045,0.275
6197,0.005,0.325
6198,0.005,0.375
6199,0.075,0.445
6200,0.115,0.505
6201,0.165,0.555
6202,0.215,0.625
6203,0.295,0.655
6204,0.295,0.665
6205,0.335,0.665
6206,0.305,0.635
6207,0.305,0.605
6208,0.325,0.515
6209,0.285,0.425
6210,0.265,0.325
6211,0.175,0.195
6212,0.075,0.085
6213,0.005,-0.015
6214,-0.075,-0.065
6215,-0.105,-0.095
6216,-0.145,-0.145
6217,-0.195,-0.175
6218,-0.165,-0.155
6219,-0.175,-0.185
6220,-0.215,-0.185
6221,-0.215,-0.185
6222,-0.175,-0.155
6223,-0.185,-0.165
6224,-0.185,-0.185
6225,-0.165,-0.155
6226,-0.125,-0.125
6227,-0.155,-0.145
6228,-0.185,-0.165
6229,-0.145,-0.155
6230,-0.145,-0.155
6231,-0.155,-0.155
6232,-0.155,-0.185
6233,-0.165,-0.185
6234,-0.145,-0.175
6235,-0.115,-0.205
6236,-0.215,-0.235
6237,-0.205,-0.225
6238,-0.215,-0.235
6239,-0.195,-0.235
6240,-0.195,-0.245
6241,-0.195,-0.265
6242,-0.195,-0.235
6243,-0.195,-0.255
6244,-0.225,-0.265
6245,-0.225,-0.275
6246,-0.195,-0.245
6247,-0.215,-0.245
6248,-0.215,-0.255
6249,-0.195,-0.255
6250,-0.185,-0.255
6251,-0.205,-0.245
6252,-0.195,-0.245
6253,-0.215,-0.265
6254,-0.175,-0.235
6255,-0.195,-0.235
6256,-0.175,-0.235
6257,-0.195,-0.245
6258,-0.165,-0.235
6259,-0.195,-0.245
6260,-0.165,-0.245
6261,-0.205,-0.225
6262,-0.175,-0.205
6263,-0.145,-0.165
6264,-0.145,-0.175
6265,-0.075,-0.135
6266,-0.045,-0.105
6267,0.005,-0.105
6268,-0.075,-0.195
6269,-0.115,-0.225
6270,-0.125,-0.245
6271,-0.205,-0.265
6272,-0.215,-0.255
6273,-0.175,-0.265
6274,-0.165,-0.235
6275,-0.195,-0.265
6276,-0.185,-0.245
6277,-0.175,-0.235
6278,-0.115,-0.225
6279,-0.455,-0.385
6280,-0.655,-0.065
6281,-0.375,0.135
6282,0.595,-0.105
6283,1.995,0.145
6284,2.865,0.805
6285,3.105,0.185
6286,0.955,-1.085
6287,-0.615,-1.015
6288,-0.975,-0.785
6289,-0.855,-0.585
6290,-0.635,-0.275
6291,-0.325,0.005
6292,-0.245,0.025
6293,-0.215,0.025
6294,-0.195,0.055
6295,-0.155,0.075
6296,-0.115,0.105
6297,-0.145,0.125
6298,-0.095,0.175
6299,-0.055,0.205
6300,-0.045,0.215
6301,-0.045,0.245
6302,0.005,0.325
6303,0.035,0.365
6304,0.075,0.415
6305,0.135,0.465
6306,0.175,0.545
6307,0.215,0.595
6308,0.245,0.635
6309,0.295,0.665
6310,0.315,0.685
6311,0.395,0.685
6312,0.355,0.625
6313,0.335,0.585
6314,0.375,0.505
6315,0.295,0.395
6316,0.265,0.255
6317,0.135,0.135
6318,0.075,0.055
6319,0.005,-0.015
6320,-0.065,-0.085
6321,-0.085,-0.135
6322,-0.095,-0.135
6323,-0.155,-0.175
6324,-0.165,-0.185
6325,-0.165,-0.185
6326,-0.185,-0.185
6327,-0.155,-0.165
6328,-0.135,-0.165
6329,-0.135,-0.145
6330,-0.125,-0.145
6331,-0.115,-0.155
6332,-0.155,-0.165
6333,-0.125,-0.145
6334,-0.125,-0.155
6335,-0.135,-0.155
6336,-0.135,-0.175
6337,-0.115,-0.185
6338,-0.115,-0.165
6339,-0.135,-0.185
6340,-0.135,-0.205
6341,-0.155,-0.225
6342,-0.145,-0.225
6343,-0.175,-0.235
6344,-0.175,-0.245
6345,-0.165,-0.235
6346,-0.155,-0.255
6347,-0.205,-0.255
6348,-0.185,-0.235
6349,-0.175,-0.255
6350,-0.195,-0.255
6351,-0.195,-0.265
6352,-0.175,-0.245
6353,-0.195,-0.255
6354,-0.155,-0.225
6355,-0.195,-0.265
6356,-0.215,-0.245
6357,-0.185,-0.245
6358,-0.165,-0.235
6359,-0.195,-0.235
6360,-0.175,-0.245
6361,-0.165,-0.235
6362,-0.175,-0.235
6363,-0.165,-0.225
6364,-0.175,-0.245
6365,-0.175,-0.245
6366,-0.165,-0.235
6367,-0.175,-0.215
6368,-0.165,-0.225
6369,-0.165,-0.225
6370,-0.125,-0.205
6371,-0.165,-0.225
6372,-0.155,-0.205
6373,-0.115,-0.165
6374,-0.105,-0.155
6375,-0.055,-0.105
6376,-0.005,-0.115
6377,0.015,-0.085
6378,-0.045,-0.145
6379,-0.055,-0.195
6380,-0.125,-0.245
6381,-0.165,-0.255
6382,-0.145,-0.245
6383,-0.185,-0.255
6384,-0.185,-0.245
6385,-0.165,-0.245
6386,-0.145,-0.235
6387,-0.155,-0.225
6388,-0.115,-0.225
6389,-0.345,-0.395
6390,-0.645,-0.125
6391,-0.485,0.135
6392,0.455,-0.085
6393,1.955,0.225
6394,2.845,0.935
6395,3.145,0.335
6396,1.185,-1.095
6397,-0.595,-1.025
6398,-0.995,-0.765
6399,-0.805,-0.505
6400,-0.605,-0.255
6401,-0.325,0.005
6402,-0.205,0.025
6403,-0.195,0.035
6404,-0.155,0.065
6405,-0.165,0.095
6406,-0.145,0.125
6407,-0.105,0.145
6408,-0.115,0.145
6409,-0.065,0.195
6410,0.005,0.255
6411,-0.005,0.265
6412,-0.015,0.285
6413,0.065,0.355
6414,0.035,0.405
6415,0.095,0.475
6416,0.135,0.525
6417,0.205,0.585
6418,0.245,0.635
6419,0.275,0.665
6420,0.315,0.665
6421,0.335,0.665
6422,0.365,0.655
6423,0.345,0.595
6424,0.305,0.515
6425,0.325,0.435
6426,0.285,0.325
6427,0.165,0.195
6428,0.085,0.075
6429,0.045,0.005
6430,-0.065,-0.055
6431,-0.065,-0.105
6432,-0.155,-0.165
6433,-0.165,-0.185
6434,-0.145,-0.155
6435,-0.175,-0.175
6436,-0.165,-0.165
6437,-0.145,-0.165
6438,-0.175,-0.185
6439,-0.175,-0.165
6440,-0.125,-0.165
6441,-0.155,-0.155
6442,-0.125,-0.135
6443,-0.115,-0.155
6444,-0.145,-0.175
6445,-0.125,-0.155
6446,-0.125,-0.175
6447,-0.175,-0.185
6448,-0.135,-0.185
6449,-0.145,-0.185
6450,-0.155,-0.215
6451,-0.155,-0.225
6452,-0.165,-0.225
6453,-0.165,-0.225
6454,-0.185,-0.255
6455,-0.205,-0.245
6456,-0.185,-0.245
6457,-0.195,-0.265
6458,-0.205,-0.245
6459,-0.185,-0.255
6460,-0.205,-0.265
6461,-0.205,-0.265
6462,-0.195,-0.265
6463,-0.205,-0.265
6464,-0.205,-0.265
6465,-0.205,-0.265
6466,-0.195,-0.255
6467,-0.185,-0.255
6468,-0.195,-0.265
6469,-0.195,-0.255
6470,-0.185,-0.245
6471,-0.215,-0.255
6472,-0.225,-0.265
6473,-0.195,-0.265
6474,-0.165,-0.235
6475,-0.175,-0.245
6476,-0.205,-0.255
6477,-0.205,-0.255
6478,-0.215,-0.245
6479,-0.185,-0.245
6480,-0.195,-0.245
6481,-0.185,-0.235
6482,-0.155,-0.215
6483,-0.205,-0.235
6484,-0.195,-0.225
6485,-0.155,-0.185
6486,-0.155,-0.165
6487,-0.095,-0.125
6488,-0.055,-0.115
6489,-0.015,-0.095
6490,-0.045,-0.155
6491,-0.105,-0.215
6492,-0.135,-0.255
6493,-0.185,-0.265
6494,-0.225,-0.255
6495,-0.195,-0.255
6496,-0.185,-0.255
6497,-0.205,-0.255
6498,-0.195,-0.235
6499,-0.185,-0.235
6500,-0.165,-0.265
6501,-0.455,-0.405
6502,-0.695,-0.125
6503,-0.525,0.115
6504,0.365,-0.025
6505,1.865,0.315
6506,2.805,1.025
6507,3.155,0.295
6508,0.875,-1.155
6509,-0.755,-1.025
6510,-1.075,-0.795
6511,-0.935,-0.595
6512,-0.735,-0.355
6513,-0.485,-0.075
6514,-0.275,0.015
6515,-0.265,-0.005
6516,-0.255,0.035
6517,-0.225,0.075
6518,-0.195,0.095
6519,-0.185,0.115
6520,-0.155,0.135
6521,-0.135,0.155
6522,-0.075,0.195
6523,-0.095,0.225
6524,-0.075,0.255
6525,-0.035,0.285
6526,-0.015,0.355
6527,0.015,0.415
6528,0.045,0.445
6529,0.095,0.515
6530,0.185,0.595
6531,0.225,0.625
6532,0.235,0.635
6533,0.305,0.665
6534,0.275,0.615
6535,0.255,0.595
6536,0.285,0.545
6537,0.255,0.455
6538,0.235,0.365
6539,0.145,0.235
6540,0.055,0.125
6541,-0.025,0.035
6542,-0.105,-0.035
6543,-0.135,-0.075
6544,-0.155,-0.125
6545,-0.225,-0.175
6546,-0.225,-0.145
6547,-0.215,-0.155
6548,-0.245,-0.175
6549,-0.225,-0.175
6550,-0.235,-0.165
6551,-0.225,-0.155
6552,-0.205,-0.135
6553,-0.225,-0.175
