'sample interval','ECG0','ECG1'
'0.0078125 sec','mV','mV'
0,0.105,0.105
1,-0.125,0.075
2,-0.185,0.035
3,-0.165,-0.005
4,-0.205,-0.035
5,-0.195,-0.055
6,-0.185,-0.075
7,-0.225,-0.055
8,-0.165,-0.075
9,-0.175,0.025
10,-0.175,-0.075
11,-0.175,-0.135
12,-0.175,-0.085
13,-0.065,-0.075
14,-0.215,-0.105
15,-0.285,-0.195
16,0.075,-0.105
17,-0.015,0.215
18,-0.095,-0.145
19,-0.125,-0.125
20,-0.195,-0.045
21,0.125,-0.115
22,-0.075,-0.025
23,0.485,-0.125
24,0.255,-0.095
25,-0.175,-0.235
26,-0.025,-0.095
27,0.035,-0.135
28,-0.255,-0.195
29,-0.255,-0.255
30,-0.225,-0.225
31,-0.235,-0.265
32,-0.385,-0.285
33,-0.285,-0.275
34,-0.025,-0.245
35,-0.265,-0.215
36,-0.335,-0.215
37,-0.265,-0.255
38,-0.335,-0.225
39,-0.575,-0.295
40,-0.625,-0.125
41,0.145,0.105
42,1.575,0.095
43,1.715,-0.035
44,-0.145,-0.985
45,-1.385,-1.985
46,-1.435,-2.145
47,-0.745,-1.615
48,-0.385,-0.755
49,-0.265,-0.275
50,-0.215,-0.195
51,-0.145,-0.135
52,-0.125,-0.085
53,-0.085,-0.055
54,-0.055,-0.035
55,-0.015,-0.005
56,0.035,-0.005
57,0.085,0.025
58,0.105,0.075
59,0.125,0.085
60,0.165,0.135
61,0.185,0.185
62,0.215,0.215
63,0.265,0.255
64,0.385,0.305
65,0.455,0.385
66,0.515,0.445
67,0.615,0.485
68,0.655,0.535
69,0.655,0.575
70,0.605,0.555
71,0.545,0.525
72,0.495,0.475
73,0.445,0.385
74,0.335,0.295
75,0.265,0.205
76,0.155,0.105
77,0.095,0.045
78,0.055,0.005
79,0.015,-0.015
80,-0.035,-0.055
81,-0.035,-0.075
82,-0.015,-0.075
83,-0.025,-0.075
84,-0.045,-0.075
85,-0.065,-0.055
86,0.015,-0.055
87,0.025,-0.045
88,-0.035,-0.025
89,-0.035,-0.035
90,-0.025,-0.035
91,-0.015,-0.045
92,0.035,-0.045
93,-0.015,-0.035
94,-0.035,-0.015
95,0.025,-0.035
96,0.075,-0.025
97,0.115,0.035
98,0.095,0.075
99,0.135,0.065
100,0.135,0.065
101,0.115,0.025
102,0.115,-0.025
103,0.165,-0.065
104,0.105,-0.045
105,-0.005,-0.045
106,-0.115,-0.115
107,-0.135,-0.155
108,-0.145,-0.155
109,-0.145,-0.155
110,-0.185,-0.155
111,-0.195,-0.165
112,-0.175,-0.145
113,-0.145,-0.135
114,-0.115,-0.115
115,-0.135,-0.135
116,-0.205,-0.175
117,-0.485,-0.095
118,-0.265,0.145
119,0.765,0.225
120,1.975,0.175
121,1.515,-0.075
122,-0.645,-1.255
123,-1.425,-2.135
124,-1.115,-2.025
125,-0.345,-1.255
126,-0.165,-0.325
127,-0.125,-0.085
128,-0.135,-0.005
129,-0.085,0.045
130,-0.065,0.065
131,-0.075,0.075
132,-0.015,0.095
133,0.065,0.085
134,0.045,0.125
135,0.025,0.165
136,-0.095,0.135
137,0.095,0.215
138,0.295,0.165
139,0.025,0.215
140,0.225,0.365
141,0.235,0.345
142,0.275,0.475
143,0.455,0.445
144,0.385,0.485
145,0.505,0.575
146,0.495,0.625
147,0.485,0.655
148,0.565,0.605
149,0.415,0.585
150,0.465,0.485
151,0.365,0.375
152,0.075,0.265
153,-0.045,0.195
154,-0.085,0.085
155,0.045,-0.005
156,-0.145,-0.025
157,-0.215,-0.075
158,-0.195,-0.065
159,-0.135,-0.105
160,-0.105,-0.095
161,-0.175,-0.075
162,-0.295,-0.095
163,-0.115,-0.085
164,-0.085,0.005
165,-0.165,0.035
166,0.125,-0.105
167,-0.215,-0.105
168,-0.105,-0.015
169,-0.055,-0.015
170,-0.105,-0.005
171,-0.005,-0.035
172,-0.065,-0.055
173,-0.035,-0.015
174,-0.095,0.045
175,-0.145,0.015
176,-0.045,-0.015
177,0.185,0.015
178,0.075,0.075
179,0.095,0.015
180,0.205,-0.075
181,0.035,-0.125
182,-0.035,-0.025
183,-0.215,-0.045
184,-0.145,-0.165
185,-0.145,-0.055
186,-0.165,-0.075
187,-0.255,-0.325
188,-0.135,-0.215
189,-0.185,-0.155
190,-0.215,-0.215
191,-0.135,-0.185
192,-0.115,-0.185
193,-0.225,-0.155
194,-0.125,-0.165
195,-0.375,-0.165
196,-0.585,-0.065
197,-0.005,0.125
198,1.285,0.025
199,1.485,-0.055
200,0.285,-1.015
201,-0.695,-1.975
202,-0.935,-2.255
203,-0.455,-1.865
204,-0.295,-0.995
205,0.115,-0.285
206,-0.125,-0.065
207,-0.115,-0.015
208,-0.145,0.145
209,-0.065,0.135
210,-0.055,0.065
211,-0.005,0.115
212,-0.025,0.145
213,0.025,0.175
214,-0.015,0.165
215,0.055,0.195
216,0.045,0.215
217,0.245,0.265
218,0.195,0.325
219,0.255,0.405
220,0.265,0.495
221,0.305,0.565
222,0.445,0.625
223,0.355,0.675
224,0.625,0.705
225,0.555,0.725
226,0.485,0.685
227,0.595,0.665
228,0.385,0.595
229,0.335,0.485
230,0.275,0.355
231,0.175,0.245
232,0.095,0.125
233,-0.025,0.015
234,0.115,-0.045
235,-0.005,0.025
236,-0.125,-0.165
237,-0.135,-0.185
238,0.025,-0.155
239,-0.005,-0.135
240,-0.095,-0.155
241,0.035,-0.155
242,-0.075,-0.135
243,-0.095,-0.115
244,-0.065,-0.125
245,-0.135,-0.125
246,0.085,-0.115
247,-0.035,-0.165
248,-0.215,-0.155
249,0.015,-0.165
250,-0.015,-0.185
251,-0.035,-0.155
252,-0.055,-0.135
253,-0.015,-0.095
254,0.095,-0.115
255,0.145,-0.065
256,0.085,-0.025
257,0.025,-0.165
258,0.145,-0.205
259,0.055,-0.185
260,-0.025,-0.165
261,-0.145,-0.125
262,-0.145,-0.335
263,-0.185,-0.315
264,-0.175,-0.285
265,-0.175,-0.275
266,-0.195,-0.255
267,-0.165,-0.265
268,-0.175,-0.265
269,-0.205,-0.265
270,-0.165,-0.235
271,-0.125,-0.145
272,-0.295,-0.275
273,-0.615,-0.255
274,-0.365,-0.075
275,0.615,-0.075
276,1.545,-0.015
277,0.695,-0.375
278,-0.545,-1.645
279,-0.875,-2.255
280,-0.785,-2.135
281,-0.335,-1.585
282,-0.255,-0.795
283,-0.165,-0.375
284,-0.065,-0.125
285,-0.035,-0.055
286,-0.055,-0.035
287,-0.035,0.065
288,-0.005,0.055
289,-0.005,0.005
290,-0.005,0.045
291,0.085,0.085
292,0.115,0.105
293,0.135,0.105
294,0.175,0.135
295,0.215,0.185
296,0.205,0.195
297,0.325,0.265
298,0.435,0.405
299,0.495,0.415
300,0.565,0.425
301,0.605,0.505
302,0.625,0.535
303,0.625,0.545
304,0.625,0.525
305,0.545,0.515
306,0.435,0.425
307,0.405,0.345
308,0.275,0.355
309,0.245,0.145
310,0.095,0.005
311,0.045,-0.025
312,-0.035,-0.075
313,-0.015,-0.095
314,-0.095,-0.105
315,-0.125,-0.115
316,-0.115,-0.115
317,-0.035,-0.105
318,-0.065,-0.095
319,-0.065,-0.095
320,-0.065,-0.095
321,-0.095,-0.105
322,-0.085,-0.105
323,-0.075,-0.095
324,-0.105,-0.095
325,-0.105,-0.115
326,-0.115,-0.125
327,-0.135,-0.125
328,-0.105,-0.125
329,-0.115,-0.125
330,-0.055,-0.085
331,-0.085,-0.055
332,-0.075,-0.065
333,0.015,-0.045
334,0.075,-0.025
335,0.005,-0.055
336,0.015,-0.145
337,0.005,-0.155
338,-0.025,-0.125
339,-0.175,-0.155
340,-0.195,-0.215
341,-0.165,-0.195
342,-0.175,-0.205
343,-0.235,-0.205
344,-0.225,-0.205
345,-0.175,-0.195
346,-0.165,-0.195
347,-0.135,-0.185
348,-0.145,-0.185
349,-0.155,-0.175
350,-0.185,-0.165
351,-0.385,-0.115
352,-0.335,0.045
353,0.515,0.115
354,1.565,0.065
355,1.125,-0.165
356,-0.395,-1.165
357,-1.085,-1.905
358,-1.035,-1.945
359,-0.555,-1.485
360,-0.285,-0.695
361,-0.285,-0.235
362,-0.175,-0.025
363,-0.115,0.015
364,-0.135,0.035
365,-0.165,0.045
366,-0.115,0.065
367,-0.135,0.065
368,-0.125,0.105
369,-0.065,0.135
370,-0.005,0.125
371,-0.005,0.065
372,0.035,0.115
373,0.065,0.165
374,0.095,0.205
375,0.165,0.265
376,0.185,0.305
377,0.255,0.375
378,0.325,0.445
379,0.385,0.505
380,0.415,0.535
381,0.395,0.545
382,0.375,0.525
383,0.355,0.495
384,0.295,0.425
385,0.245,0.345
386,0.115,0.245
387,0.015,0.165
388,-0.065,0.055
389,-0.115,0.005
390,-0.085,-0.055
391,-0.135,-0.075
392,-0.165,-0.125
393,-0.145,-0.115
394,-0.125,-0.085
395,-0.125,-0.085
396,-0.145,-0.095
397,-0.125,-0.085
398,-0.135,-0.065
399,-0.135,-0.075
400,-0.125,-0.075
401,-0.115,-0.065
402,-0.125,-0.045
403,-0.115,-0.045
404,-0.105,-0.065
405,-0.145,-0.065
406,-0.145,-0.055
407,-0.055,-0.045
408,0.005,0.005
409,0.025,0.045
410,0.065,0.025
411,0.065,0.045
412,-0.035,-0.025
413,-0.025,-0.105
414,0.035,-0.095
415,0.025,-0.055
416,-0.185,-0.115
417,-0.235,-0.215
418,-0.255,-0.185
419,-0.265,-0.215
420,-0.255,-0.215
421,-0.185,-0.195
422,-0.245,-0.195
423,-0.285,-0.175
424,-0.285,-0.205
425,-0.185,-0.215
426,-0.165,-0.175
427,-0.285,-0.165
428,-0.545,-0.125
429,-0.325,0.075
430,0.855,0.125
431,1.735,0.065
432,0.685,-0.665
433,-0.715,-1.795
434,-1.135,-2.265
435,-0.895,-1.965
436,-0.385,-1.215
437,-0.235,-0.375
438,-0.165,-0.085
439,-0.175,0.015
440,-0.145,0.045
441,-0.145,0.065
442,-0.125,0.085
443,-0.105,0.105
444,-0.095,0.125
445,-0.065,0.145
446,-0.065,0.165
447,-0.025,0.175
448,0.025,0.185
449,0.065,0.245
450,0.065,0.295
451,0.155,0.325
452,0.195,0.375
453,0.285,0.435
454,0.315,0.545
455,0.395,0.595
456,0.445,0.645
457,0.465,0.675
458,0.455,0.675
459,0.415,0.635
460,0.395,0.575
461,0.325,0.505
462,0.235,0.415
463,0.125,0.285
464,0.015,0.145
465,-0.045,0.065
466,-0.095,0.015
467,-0.145,-0.045
468,-0.185,-0.105
469,-0.205,-0.125
470,-0.205,-0.135
471,-0.245,-0.155
472,-0.175,-0.155
473,-0.215,-0.155
474,-0.065,-0.135
475,-0.165,-0.125
476,-0.285,-0.135
477,-0.205,-0.115
478,-0.185,-0.105
479,-0.205,-0.105
480,-0.205,-0.125
481,-0.205,-0.125
482,-0.125,-0.125
483,-0.075,-0.115
484,-0.035,-0.075
485,-0.095,-0.045
486,-0.035,-0.025
487,-0.005,-0.005
488,-0.005,-0.035
489,-0.035,-0.095
490,-0.015,-0.165
491,-0.005,-0.135
492,-0.045,-0.155
493,-0.275,-0.185
494,-0.305,-0.225
495,-0.285,-0.235
496,-0.275,-0.245
497,-0.275,-0.245
498,-0.285,-0.225
499,-0.275,-0.225
500,-0.295,-0.225
501,-0.265,-0.225
502,-0.245,-0.215
503,-0.255,-0.225
504,-0.405,-0.205
505,-0.675,-0.105
506,-0.305,0.085
507,0.935,0.065
508,1.785,0.045
509,0.595,-0.585
510,-0.865,-1.795
511,-1.215,-2.165
512,-0.965,-1.845
513,-0.475,-1.185
514,-0.315,-0.435
515,-0.225,-0.155
516,-0.235,-0.055
517,-0.145,-0.025
518,-0.205,0.005
519,-0.175,0.005
520,-0.125,0.025
521,-0.155,0.045
522,-0.095,0.055
523,0.045,0.045
524,-0.055,0.075
525,-0.055,0.125
526,0.055,0.175
527,0.045,0.185
528,0.125,0.235
529,0.215,0.285
530,0.215,0.355
531,0.295,0.405
532,0.515,0.455
533,0.455,0.505
534,0.415,0.545
535,0.405,0.535
536,0.425,0.475
537,0.395,0.405
538,0.275,0.345
539,0.195,0.265
540,0.125,0.155
541,-0.015,0.045
542,-0.085,-0.015
543,-0.125,-0.065
544,-0.205,-0.115
545,-0.175,-0.125
546,-0.095,-0.125
547,-0.225,-0.155
548,-0.205,-0.145
549,-0.275,-0.135
550,-0.155,-0.135
551,-0.205,-0.095
552,-0.275,-0.075
553,-0.295,-0.135
554,-0.135,-0.135
555,-0.235,-0.165
556,0.015,-0.175
557,-0.025,-0.145
558,-0.315,-0.095
559,-0.275,-0.045
560,-0.195,-0.065
561,-0.115,-0.025
562,-0.055,-0.005
563,-0.005,0.005
564,0.075,0.025
565,-0.025,0.005
566,-0.025,-0.115
567,-0.045,-0.115
568,-0.065,-0.095
569,-0.195,-0.085
570,-0.275,-0.205
571,-0.385,-0.165
572,-0.395,-0.175
573,-0.315,-0.185
574,-0.295,-0.185
575,-0.295,-0.165
576,-0.325,-0.175
577,-0.285,-0.155
578,-0.295,-0.145
579,-0.275,-0.165
580,-0.335,-0.155
581,-0.595,-0.065
582,-0.515,0.115
583,0.195,0.165
584,1.415,0.125
585,1.505,-0.005
586,-0.075,-0.985
587,-1.235,-1.935
588,-1.395,-2.035
589,-0.875,-1.605
590,-0.415,-0.735
591,-0.315,-0.205
592,-0.285,-0.045
593,-0.345,0.045
594,-0.055,0.065
595,-0.155,0.075
596,-0.315,0.115
597,-0.205,0.155
598,-0.055,0.145
599,-0.085,0.175
600,-0.095,0.185
601,-0.085,0.195
602,-0.005,0.235
603,0.045,0.265
604,0.075,0.305
605,0.105,0.365
606,0.145,0.435
607,0.245,0.515
608,0.355,0.575
609,0.465,0.625
610,0.435,0.665
611,0.305,0.695
612,0.355,0.685
613,0.355,0.635
614,0.285,0.575
615,0.235,0.465
616,0.105,0.345
617,-0.005,0.245
618,0.095,0.125
619,-0.185,0.075
620,-0.275,0.045
621,-0.175,-0.005
622,-0.125,-0.025
623,-0.185,-0.025
624,-0.295,-0.035
625,-0.125,-0.035
626,-0.115,-0.035
627,-0.255,-0.005
628,-0.155,-0.025
629,-0.095,-0.025
630,-0.145,-0.005
631,-0.185,-0.015
632,-0.145,-0.015
633,-0.225,-0.005
634,-0.245,-0.005
635,-0.075,-0.035
636,-0.175,-0.055
637,-0.005,-0.015
638,-0.145,0.025
639,-0.095,0.045
640,-0.065,0.025
641,0.065,0.045
642,-0.085,-0.005
643,0.025,-0.075
644,-0.025,-0.085
645,-0.085,-0.075
646,-0.135,-0.125
647,-0.365,-0.175
648,-0.345,-0.145
649,-0.285,-0.175
650,-0.285,-0.175
651,-0.275,-0.185
652,-0.305,-0.185
653,-0.355,-0.165
654,-0.265,-0.175
655,-0.295,-0.175
656,-0.325,-0.175
657,-0.395,-0.165
658,-0.595,-0.105
659,-0.525,0.075
660,0.415,0.105
661,1.645,0.135
662,1.075,-0.345
663,-0.605,-1.615
664,-1.205,-2.225
665,-1.175,-2.005
666,-0.585,-1.405
667,-0.305,-0.615
668,-0.315,-0.225
669,-0.215,-0.035
670,-0.235,0.045
671,-0.215,0.075
672,-0.155,0.085
673,-0.175,0.105
674,-0.145,0.135
675,-0.105,0.145
676,-0.075,0.145
677,-0.075,0.185
678,0.015,0.215
679,0.015,0.245
680,0.065,0.265
681,0.055,0.325
682,0.175,0.395
683,0.245,0.455
684,0.215,0.525
685,0.335,0.605
686,0.455,0.665
687,0.405,0.685
688,0.455,0.685
689,0.455,0.675
690,0.415,0.615
691,0.345,0.555
692,0.245,0.455
693,0.155,0.345
694,0.055,0.235
695,-0.075,0.125
696,-0.105,0.045
697,-0.165,0.005
698,-0.155,-0.035
699,-0.205,-0.065
700,-0.235,-0.095
701,-0.135,-0.105
702,-0.185,-0.085
703,-0.195,-0.065
704,-0.215,-0.075
705,-0.195,-0.075
706,-0.185,-0.065
707,-0.185,-0.065
708,-0.195,-0.065
709,-0.185,-0.055
710,-0.155,-0.055
711,-0.195,-0.055
712,-0.215,-0.065
713,-0.125,-0.065
714,-0.175,-0.035
715,-0.035,-0.015
716,-0.085,-0.005
717,-0.025,0.015
718,0.045,0.035
719,-0.025,-0.005
720,-0.025,-0.115
721,-0.005,-0.115
722,-0.095,-0.105
723,-0.225,-0.145
724,-0.305,-0.205
725,-0.295,-0.195
726,-0.335,-0.195
727,-0.325,-0.205
728,-0.265,-0.225
729,-0.255,-0.185
730,-0.305,-0.175
731,-0.335,-0.175
732,-0.305,-0.195
733,-0.175,-0.195
734,-0.365,-0.165
735,-0.655,-0.095
736,-0.255,0.065
737,0.725,0.095
738,1.555,0.075
739,0.805,-0.405
740,-0.715,-1.715
741,-1.265,-2.235
742,-1.155,-1.985
743,-0.535,-1.365
744,-0.335,-0.505
745,-0.315,-0.165
746,-0.155,-0.065
747,-0.025,-0.025
748,-0.165,-0.005
749,-0.175,0.025
750,-0.225,0.065
751,-0.025,0.055
752,-0.085,0.065
753,-0.105,0.075
754,-0.035,0.095
755,0.005,0.115
756,0.025,0.135
757,0.085,0.175
758,0.135,0.225
759,0.185,0.275
760,0.235,0.325
761,0.305,0.395
762,0.415,0.465
763,0.455,0.505
764,0.475,0.515
765,0.415,0.525
766,0.665,0.485
767,0.455,0.435
768,0.315,0.395
769,0.225,0.305
770,0.155,0.195
771,0.025,0.095
772,-0.045,0.005
773,-0.075,-0.065
774,-0.125,-0.105
775,-0.185,-0.135
776,-0.185,-0.165
777,-0.175,-0.175
778,-0.225,-0.165
779,-0.175,-0.185
780,-0.155,-0.195
781,-0.205,-0.165
782,-0.255,-0.155
783,-0.215,-0.145
784,-0.195,-0.145
785,-0.185,-0.135
786,-0.165,-0.135
787,-0.145,-0.135
788,-0.155,-0.145
789,-0.165,-0.135
790,-0.105,-0.125
791,-0.065,-0.105
792,-0.045,-0.085
793,-0.075,-0.065
794,0.115,-0.045
795,0.055,-0.025
796,0.015,-0.075
797,-0.035,-0.175
798,0.065,-0.165
799,-0.045,-0.155
800,-0.205,-0.185
801,-0.215,-0.235
802,-0.295,-0.235
803,-0.275,-0.255
804,-0.245,-0.255
805,-0.305,-0.245
806,-0.205,-0.245
807,-0.195,-0.255
808,-0.315,-0.235
809,-0.265,-0.225
810,-0.175,-0.225
811,-0.305,-0.225
812,-0.585,-0.145
813,-0.435,0.055
814,0.665,0.085
815,1.815,0.055
816,1.205,-0.385
817,-0.625,-1.595
818,-1.255,-2.205
819,-1.195,-1.985
820,-0.565,-1.385
821,-0.305,-0.565
822,-0.195,-0.195
823,-0.185,-0.075
824,-0.235,-0.035
825,-0.065,-0.015
826,-0.065,0.005
827,-0.155,0.045
828,-0.115,0.065
829,-0.085,0.065
830,-0.085,0.095
831,0.015,0.095
832,0.035,0.105
833,0.025,0.145
834,0.105,0.185
835,0.195,0.225
836,0.185,0.275
837,0.275,0.345
838,0.395,0.405
839,0.435,0.475
840,0.455,0.515
841,0.515,0.545
842,0.545,0.535
843,0.485,0.505
844,0.445,0.455
845,0.405,0.395
846,0.275,0.305
847,0.065,0.185
848,0.085,0.065
849,-0.005,-0.015
850,-0.165,-0.055
851,-0.175,-0.095
852,-0.185,-0.135
853,-0.205,-0.135
854,-0.175,-0.155
855,-0.225,-0.155
856,-0.185,-0.175
857,-0.145,-0.165
858,-0.245,-0.135
859,-0.225,-0.115
860,-0.185,-0.125
861,-0.215,-0.125
862,-0.175,-0.115
863,-0.145,-0.105
864,-0.165,-0.115
865,-0.185,-0.105
866,-0.085,-0.105
867,0.015,-0.055
868,-0.045,-0.015
869,-0.065,-0.005
870,0.015,-0.005
871,0.065,-0.005
872,-0.015,-0.075
873,-0.015,-0.145
874,0.015,-0.135
875,-0.025,-0.115
876,-0.175,-0.165
877,-0.235,-0.225
878,-0.215,-0.215
879,-0.285,-0.235
880,-0.235,-0.255
881,-0.305,-0.225
882,-0.225,-0.215
883,-0.315,-0.225
884,-0.325,-0.215
885,-0.225,-0.215
886,-0.285,-0.205
887,-0.265,-0.195
888,-0.445,-0.175
889,-0.595,-0.065
890,-0.055,0.125
891,1.255,0.125
892,2.065,-0.045
893,0.775,-1.035
894,-0.985,-2.035
895,-1.405,-2.305
896,-0.825,-1.785
897,-0.395,-0.835
898,-0.255,-0.235
899,-0.235,-0.065
900,-0.225,-0.025
901,-0.115,0.005
902,-0.195,0.045
903,-0.085,0.055
904,-0.165,0.075
905,-0.075,0.095
906,-0.055,0.115
907,-0.045,0.135
908,-0.035,0.155
909,-0.035,0.195
910,0.065,0.245
911,0.095,0.275
912,0.135,0.335
913,0.245,0.425
914,0.325,0.495
915,0.405,0.575
916,0.505,0.625
917,0.465,0.655
918,0.455,0.675
919,0.475,0.645
920,0.405,0.575
921,0.395,0.505
922,0.335,0.395
923,0.155,0.265
924,-0.005,0.145
925,-0.085,0.045
926,-0.125,-0.035
927,-0.135,-0.085
928,-0.205,-0.105
929,-0.255,-0.135
930,-0.205,-0.135
931,-0.225,-0.135
932,-0.225,-0.155
933,-0.225,-0.155
934,-0.235,-0.125
935,-0.175,-0.135
936,-0.215,-0.125
937,-0.225,-0.095
938,-0.205,-0.095
939,-0.215,-0.105
940,-0.135,-0.105
941,-0.125,-0.085
942,-0.085,-0.065
943,-0.015,-0.025
944,-0.035,0.015
945,-0.045,-0.015
946,0.045,0.015
947,0.095,0.005
948,0.005,-0.075
949,0.035,-0.135
950,0.035,-0.085
951,-0.055,-0.085
952,-0.255,-0.165
953,-0.245,-0.235
954,-0.245,-0.195
955,-0.245,-0.215
956,-0.305,-0.225
957,-0.275,-0.225
958,-0.215,-0.225
959,-0.275,-0.185
960,-0.315,-0.205
961,-0.285,-0.195
962,-0.205,-0.185
963,-0.495,-0.165
964,-0.625,-0.065
965,-0.065,0.125
966,1.305,0.125
967,1.835,-0.165
968,0.405,-1.305
969,-1.115,-2.145
970,-1.375,-2.265
971,-0.685,-1.665
972,-0.335,-0.675
973,-0.245,-0.205
974,-0.205,-0.085
975,-0.185,-0.005
976,-0.185,0.025
977,-0.095,0.065
978,-0.085,0.085
979,-0.135,0.105
980,-0.065,0.105
981,-0.055,0.145
982,-0.035,0.175
983,-0.005,0.185
984,0.005,0.195
985,0.085,0.245
986,0.165,0.305
987,0.165,0.355
988,0.235,0.415
989,0.305,0.505
990,0.405,0.575
991,0.465,0.655
992,0.515,0.675
993,0.575,0.705
994,0.555,0.695
995,0.495,0.665
996,0.405,0.565
997,0.385,0.475
998,0.185,0.355
999,0.045,0.235
1000,-0.015,0.105
1001,-0.055,0.025
1002,-0.125,-0.025
1003,-0.165,-0.075
1004,-0.155,-0.105
1005,-0.215,-0.105
1006,-0.195,-0.105
1007,-0.215,-0.115
1008,-0.215,-0.105
1009,-0.215,-0.105
1010,-0.175,-0.085
1011,-0.175,-0.085
1012,-0.185,-0.095
1013,-0.175,-0.085
1014,-0.135,-0.065
1015,-0.115,-0.055
1016,-0.135,-0.045
1017,-0.025,-0.005
1018,0.065,0.035
1019,0.015,0.025
1020,0.055,0.045
1021,0.075,0.055
1022,0.035,-0.035
1023,0.065,-0.085
1024,0.035,-0.065
1025,-0.075,-0.075
1026,-0.215,-0.135
1027,-0.245,-0.165
1028,-0.215,-0.185
1029,-0.205,-0.185
1030,-0.195,-0.175
1031,-0.245,-0.175
1032,-0.255,-0.175
1033,-0.255,-0.175
1034,-0.235,-0.165
1035,-0.205,-0.155
1036,-0.315,-0.175
1037,-0.645,-0.105
1038,-0.555,0.045
1039,0.425,0.065
1040,1.755,0.065
1041,1.105,-0.665
1042,-0.715,-1.895
1043,-1.125,-2.355
1044,-0.855,-1.955
1045,-0.315,-1.025
1046,-0.215,-0.225
1047,-0.205,-0.015
1048,-0.135,0.035
1049,-0.115,0.105
1050,-0.115,0.125
1051,-0.115,0.115
1052,-0.085,0.165
1053,-0.065,0.195
1054,-0.055,0.185
1055,-0.045,0.195
1056,-0.025,0.175
1057,0.005,0.315
1058,0.065,0.335
1059,0.085,0.305
1060,0.135,0.375
1061,0.205,0.455
1062,0.255,0.545
1063,0.325,0.625
1064,0.405,0.685
1065,0.465,0.745
1066,0.485,0.775
1067,0.485,0.765
1068,0.465,0.735
1069,0.415,0.685
1070,0.335,0.605
1071,0.225,0.475
1072,0.135,0.315
1073,0.015,0.205
1074,-0.035,0.105
1075,-0.105,0.025
1076,-0.155,-0.035
1077,-0.175,-0.055
1078,-0.185,-0.075
1079,-0.225,-0.085
1080,-0.115,-0.105
1081,-0.205,-0.085
1082,-0.215,-0.065
1083,-0.195,-0.065
1084,-0.155,-0.065
1085,-0.135,-0.045
1086,-0.155,-0.055
1087,-0.155,-0.055
1088,-0.135,-0.055
1089,-0.125,-0.045
1090,-0.105,-0.035
1091,-0.045,-0.015
1092,-0.035,-0.005
1093,-0.005,0.045
1094,0.045,0.045
1095,0.115,0.035
1096,0.055,0.015
1097,0.055,-0.075
1098,0.055,-0.085
1099,0.005,-0.065
1100,-0.155,-0.105
1101,-0.205,-0.175
1102,-0.225,-0.145
1103,-0.225,-0.175
1104,-0.165,-0.205
1105,-0.225,-0.185
1106,-0.235,-0.185
1107,-0.225,-0.185
1108,-0.205,-0.185
1109,-0.205,-0.175
1110,-0.215,-0.165
1111,-0.345,-0.165
1112,-0.655,-0.115
1113,-0.345,0.015
1114,0.825,-0.015
1115,1.495,-0.045
1116,0.475,-0.945
1117,-0.775,-2.045
1118,-1.085,-2.315
1119,-0.845,-1.975
1120,-0.315,-1.265
1121,-0.215,-0.455
1122,-0.165,-0.145
1123,-0.135,-0.005
1124,-0.085,0.035
1125,-0.135,0.065
1126,-0.065,0.085
1127,-0.085,0.085
1128,-0.045,0.105
1129,-0.035,0.125
1130,-0.015,0.145
1131,0.045,0.155
1132,0.055,0.175
1133,0.095,0.215
1134,0.165,0.265
1135,0.195,0.315
1136,0.245,0.365
1137,0.315,0.445
1138,0.405,0.525
1139,0.455,0.585
1140,0.505,0.605
1141,0.505,0.635
1142,0.515,0.635
1143,0.515,0.595
1144,0.415,0.525
1145,0.385,0.455
1146,0.365,0.325
1147,0.165,0.225
1148,0.025,0.115
1149,-0.005,0.015
1150,0.005,-0.055
1151,-0.135,-0.095
1152,-0.145,-0.125
1153,-0.135,-0.145
1154,-0.125,-0.135
1155,-0.125,-0.145
1156,-0.115,-0.145
1157,-0.125,-0.145
1158,-0.115,-0.135
1159,-0.105,-0.135
1160,-0.105,-0.135
1161,-0.085,-0.135
1162,-0.075,-0.135
1163,-0.135,-0.135
1164,-0.115,-0.145
1165,-0.075,-0.145
1166,-0.035,-0.125
1167,0.015,-0.095
1168,-0.015,-0.065
1169,0.075,-0.065
1170,0.155,-0.045
1171,0.105,-0.025
1172,0.065,-0.135
1173,0.105,-0.175
1174,0.075,-0.135
1175,-0.065,-0.165
1176,-0.205,-0.235
1177,-0.195,-0.245
1178,-0.185,-0.255
1179,-0.175,-0.255
1180,-0.185,-0.265
1181,-0.195,-0.255
1182,-0.195,-0.235
1183,-0.135,-0.225
1184,-0.195,-0.235
1185,-0.145,-0.225
1186,-0.215,-0.205
1187,-0.445,-0.165
1188,-0.455,-0.005
1189,0.115,0.075
1190,1.435,0.045
1191,1.665,-0.055
1192,0.005,-1.055
1193,-1.195,-1.975
1194,-1.215,-2.105
1195,-0.735,-1.645
1196,-0.345,-0.825
1197,-0.175,-0.295
1198,-0.105,-0.125
1199,-0.075,-0.025
1200,-0.055,-0.015
1201,-0.035,0.005
1202,-0.005,0.035
1203,0.015,0.045
1204,0.045,0.045
1205,0.065,0.055
1206,0.085,0.085
1207,0.115,0.105
1208,0.165,0.105
1209,0.185,0.155
1210,0.245,0.205
1211,0.315,0.255
1212,0.365,0.305
1213,0.475,0.385
1214,0.525,0.445
1215,0.585,0.485
1216,0.615,0.505
1217,0.595,0.505
1218,0.575,0.485
1219,0.535,0.435
1220,0.475,0.365
1221,0.345,0.295
1222,0.225,0.185
1223,0.155,0.105
1224,0.035,0.015
1225,-0.025,-0.025
1226,-0.035,-0.065
1227,-0.015,-0.095
1228,-0.095,-0.115
1229,-0.085,-0.105
1230,-0.085,-0.105
1231,-0.075,-0.095
1232,-0.075,-0.095
1233,-0.065,-0.095
1234,-0.065,-0.085
1235,-0.045,-0.085
1236,-0.025,-0.075
1237,-0.055,-0.065
1238,-0.085,-0.085
1239,-0.095,-0.095
1240,-0.085,-0.095
1241,-0.045,-0.075
1242,0.035,-0.055
1243,0.125,-0.025
1244,0.115,-0.005
1245,0.085,0.005
1246,0.125,0.025
1247,0.165,-0.005
1248,0.085,-0.075
1249,0.105,-0.115
1250,0.085,-0.075
1251,-0.025,-0.115
1252,-0.125,-0.185
1253,-0.175,-0.215
1254,-0.205,-0.195
1255,-0.205,-0.215
1256,-0.175,-0.225
1257,-0.185,-0.195
1258,-0.165,-0.175
1259,-0.165,-0.175
1260,-0.185,-0.185
1261,-0.175,-0.185
1262,-0.195,-0.165
1263,-0.475,-0.105
1264,-0.495,0.055
1265,0.365,0.155
1266,1.715,0.105
1267,1.525,-0.065
1268,-0.615,-1.105
1269,-1.385,-1.925
1270,-1.235,-1.855
1271,-0.625,-1.295
1272,-0.325,-0.525
1273,-0.205,-0.215
1274,-0.125,-0.105
1275,-0.075,-0.035
1276,-0.095,-0.015
1277,-0.075,-0.005
1278,-0.065,0.015
1279,-0.025,0.025
1280,-0.005,0.025
1281,0.005,0.035
1282,0.035,0.065
1283,0.085,0.075
1284,0.025,0.095
1285,0.145,0.125
1286,0.215,0.165
1287,0.245,0.225
1288,0.325,0.265
1289,0.365,0.335
1290,0.445,0.405
1291,0.505,0.455
1292,0.575,0.485
1293,0.595,0.495
1294,0.555,0.465
1295,0.495,0.425
1296,0.455,0.365
1297,0.315,0.285
1298,0.185,0.205
1299,0.105,0.115
1300,-0.005,0.005
1301,-0.075,-0.035
1302,-0.115,-0.075
1303,-0.135,-0.105
1304,-0.175,-0.135
1305,-0.155,-0.135
1306,-0.175,-0.135
1307,-0.175,-0.125
1308,-0.125,-0.125
1309,-0.175,-0.115
1310,-0.155,-0.095
1311,-0.135,-0.105
1312,-0.135,-0.095
1313,-0.075,-0.075
1314,-0.125,-0.065
1315,-0.105,-0.085
1316,-0.095,-0.085
1317,-0.115,-0.075
1318,-0.045,-0.065
1319,-0.035,-0.035
1320,-0.035,0.005
1321,-0.025,0.005
1322,0.015,0.005
1323,0.075,0.035
1324,-0.045,-0.055
1325,0.035,-0.125
1326,0.015,-0.095
1327,-0.105,-0.115
1328,-0.355,-0.165
1329,-0.265,-0.225
1330,-0.245,-0.215
1331,-0.295,-0.225
1332,-0.265,-0.225
1333,-0.275,-0.205
1334,-0.305,-0.195
1335,-0.265,-0.205
1336,-0.255,-0.205
1337,-0.265,-0.195
1338,-0.265,-0.185
1339,-0.405,-0.165
1340,-0.575,-0.025
1341,-0.115,0.185
1342,1.245,0.145
1343,1.825,0.045
1344,0.335,-0.675
1345,-1.315,-1.765
1346,-1.485,-2.095
1347,-1.025,-1.655
1348,-0.545,-0.915
1349,-0.365,-0.285
1350,-0.265,-0.095
1351,-0.195,-0.035
1352,-0.205,-0.005
1353,-0.155,0.015
1354,-0.175,0.025
1355,-0.125,0.025
1356,-0.075,0.025
1357,-0.085,0.045
1358,-0.025,0.085
1359,-0.045,0.095
1360,-0.005,0.105
1361,0.025,0.145
1362,0.075,0.195
1363,0.165,0.225
1364,0.185,0.265
1365,0.255,0.345
1366,0.365,0.425
1367,0.425,0.495
1368,0.475,0.535
1369,0.525,0.555
1370,0.505,0.565
1371,0.505,0.505
1372,0.425,0.465
1373,0.335,0.395
1374,0.245,0.305
1375,0.115,0.195
1376,0.025,0.085
1377,-0.075,0.015
1378,-0.115,-0.025
1379,-0.135,-0.075
1380,-0.175,-0.115
1381,-0.195,-0.135
1382,-0.195,-0.145
1383,-0.215,-0.155
1384,-0.235,-0.165
1385,-0.205,-0.165
1386,-0.225,-0.145
1387,-0.185,-0.145
1388,-0.205,-0.135
1389,-0.205,-0.125
1390,-0.175,-0.125
1391,-0.155,-0.105
1392,-0.145,-0.105
1393,-0.155,-0.125
1394,-0.115,-0.105
1395,-0.105,-0.095
1396,-0.075,-0.085
1397,-0.025,-0.055
1398,-0.015,-0.035
1399,0.015,-0.025
1400,0.055,-0.015
1401,0.045,-0.045
1402,-0.005,-0.135
1403,0.015,-0.155
1404,-0.025,-0.115
1405,-0.135,-0.165
1406,-0.305,-0.215
1407,-0.315,-0.255
1408,-0.295,-0.245
1409,-0.275,-0.265
1410,-0.315,-0.255
1411,-0.315,-0.255
1412,-0.335,-0.265
1413,-0.295,-0.255
1414,-0.295,-0.245
1415,-0.275,-0.245
1416,-0.335,-0.265
1417,-0.585,-0.175
1418,-0.495,0.005
1419,0.365,0.105
1420,1.745,0.055
1421,1.545,-0.075
1422,-0.575,-1.125
1423,-1.455,-1.975
1424,-1.355,-1.895
1425,-0.795,-1.385
1426,-0.485,-0.715
1427,-0.355,-0.345
1428,-0.275,-0.205
1429,-0.225,-0.125
1430,-0.185,-0.095
1431,-0.125,-0.085
1432,-0.195,-0.095
1433,-0.155,-0.065
1434,-0.085,-0.035
1435,-0.095,-0.035
1436,-0.075,-0.035
1437,-0.055,-0.015
1438,-0.025,0.025
1439,0.055,0.055
1440,0.105,0.095
1441,0.145,0.145
1442,0.225,0.205
1443,0.265,0.285
1444,0.355,0.305
1445,0.445,0.395
1446,0.455,0.415
1447,0.455,0.415
1448,0.425,0.365
1449,0.385,0.325
1450,0.295,0.275
1451,0.215,0.185
1452,0.075,0.085
1453,-0.045,0.005
1454,-0.105,-0.065
1455,-0.175,-0.135
1456,-0.225,-0.175
1457,-0.235,-0.205
1458,-0.265,-0.205
1459,-0.265,-0.225
1460,-0.295,-0.235
1461,-0.275,-0.225
1462,-0.265,-0.215
1463,-0.295,-0.205
1464,-0.265,-0.215
1465,-0.265,-0.195
1466,-0.255,-0.185
1467,-0.255,-0.185
1468,-0.265,-0.185
1469,-0.175,-0.165
1470,-0.215,-0.175
1471,-0.185,-0.155
1472,-0.225,-0.165
1473,-0.215,-0.145
1474,-0.185,-0.145
1475,-0.135,-0.105
1476,-0.105,-0.095
1477,-0.105,-0.075
1478,-0.025,-0.065
1479,0.005,-0.045
1480,-0.115,-0.125
1481,-0.085,-0.185
1482,-0.085,-0.145
1483,-0.105,-0.165
1484,-0.315,-0.195
1485,-0.305,-0.255
1486,-0.245,-0.225
1487,-0.285,-0.245
1488,-0.255,-0.245
1489,-0.315,-0.255
1490,-0.315,-0.225
1491,-0.295,-0.245
1492,-0.295,-0.255
1493,-0.245,-0.245
1494,-0.245,-0.225
1495,-0.295,-0.205
1496,-0.545,-0.145
1497,-0.345,0.045
1498,0.715,0.115
1499,1.895,0.085
1500,1.225,-0.135
1501,-0.815,-1.215
1502,-1.525,-1.915
1503,-1.365,-1.845
1504,-0.755,-1.315
1505,-0.475,-0.625
1506,-0.305,-0.275
1507,-0.235,-0.165
1508,-0.175,-0.105
1509,-0.145,-0.055
1510,-0.115,-0.045
1511,-0.075,-0.045
1512,-0.075,-0.035
1513,-0.025,-0.035
1514,0.015,-0.005
1515,0.025,0.005
1516,0.065,0.025
1517,0.095,0.045
1518,0.145,0.075
1519,0.195,0.125
1520,0.245,0.165
1521,0.335,0.225
1522,0.425,0.305
1523,0.485,0.355
1524,0.525,0.385
1525,0.565,0.405
1526,0.575,0.425
1527,0.545,0.385
1528,0.465,0.335
1529,0.385,0.265
1530,0.285,0.205
1531,0.155,0.105
1532,0.055,0.005
1533,-0.045,-0.065
1534,-0.095,-0.105
1535,-0.125,-0.145
1536,-0.145,-0.155
1537,-0.165,-0.165
1538,-0.185,-0.175
1539,-0.165,-0.175
1540,-0.165,-0.165
1541,-0.135,-0.155
1542,-0.175,-0.145
1543,-0.165,-0.145
1544,-0.145,-0.145
1545,-0.125,-0.125
1546,-0.115,-0.095
1547,-0.075,-0.105
1548,-0.095,-0.085
1549,-0.085,-0.085
1550,-0.085,-0.095
1551,-0.075,-0.085
1552,-0.035,-0.085
1553,0.035,-0.045
1554,0.005,0.005
1555,-0.005,-0.005
1556,0.045,-0.005
1557,0.045,0.005
1558,0.005,-0.055
1559,-0.015,-0.135
1560,0.025,-0.105
1561,-0.025,-0.085
1562,-0.175,-0.135
1563,-0.205,-0.205
1564,-0.235,-0.215
1565,-0.275,-0.215
1566,-0.245,-0.205
1567,-0.245,-0.205
1568,-0.255,-0.215
1569,-0.265,-0.205
1570,-0.235,-0.195
1571,-0.255,-0.195
1572,-0.235,-0.205
1573,-0.375,-0.165
1574,-0.525,-0.045
1575,-0.175,0.155
1576,0.985,0.155
1577,1.995,0.095
1578,1.065,-0.435
1579,-1.015,-1.495
1580,-1.595,-2.115
1581,-1.205,-1.815
1582,-0.555,-1.085
1583,-0.345,-0.385
1584,-0.255,-0.155
1585,-0.195,-0.055
1586,-0.165,-0.005
1587,-0.165,0.025
1588,-0.145,0.015
1589,-0.105,0.045
1590,-0.075,0.065
1591,-0.065,0.075
1592,-0.055,0.095
1593,-0.015,0.105
1594,0.005,0.145
1595,0.035,0.175
1596,0.075,0.205
1597,0.125,0.265
1598,0.185,0.345
1599,0.265,0.415
1600,0.305,0.505
1601,0.405,0.565
1602,0.445,0.615
1603,0.455,0.625
1604,0.435,0.605
1605,0.445,0.565
1606,0.385,0.525
1607,0.325,0.425
1608,0.205,0.325
1609,0.085,0.235
1610,0.055,0.125
1611,-0.035,0.035
1612,-0.105,-0.055
1613,-0.155,-0.095
1614,-0.185,-0.105
1615,-0.195,-0.145
1616,-0.205,-0.165
1617,-0.215,-0.145
1618,-0.205,-0.145
1619,-0.225,-0.145
1620,-0.225,-0.155
1621,-0.205,-0.135
1622,-0.225,-0.135
1623,-0.215,-0.125
1624,-0.215,-0.145
1625,-0.215,-0.115
1626,-0.195,-0.115
1627,-0.205,-0.115
1628,-0.225,-0.125
1629,-0.215,-0.135
1630,-0.195,-0.115
1631,-0.125,-0.105
1632,-0.085,-0.055
1633,-0.095,-0.025
1634,-0.055,-0.045
1635,0.015,-0.025
1636,-0.025,-0.065
1637,-0.045,-0.125
1638,-0.005,-0.135
1639,-0.045,-0.105
1640,-0.215,-0.155
1641,-0.275,-0.205
1642,-0.285,-0.225
1643,-0.265,-0.225
1644,-0.275,-0.225
1645,-0.275,-0.215
1646,-0.285,-0.215
1647,-0.265,-0.215
1648,-0.255,-0.205
1649,-0.255,-0.195
1650,-0.245,-0.195
1651,-0.305,-0.205
1652,-0.555,-0.145
1653,-0.455,0.055
1654,0.515,0.175
1655,1.765,0.155
1656,1.645,-0.005
1657,-0.305,-0.995
1658,-1.395,-1.895
1659,-1.465,-2.025
1660,-0.805,-1.525
1661,-0.475,-0.695
1662,-0.295,-0.205
1663,-0.225,-0.065
1664,-0.195,0.005
1665,-0.175,0.035
1666,-0.135,0.055
1667,-0.115,0.075
1668,-0.125,0.075
1669,-0.095,0.095
1670,-0.055,0.135
1671,-0.045,0.135
1672,-0.025,0.145
1673,0.005,0.175
1674,0.065,0.205
1675,0.095,0.265
1676,0.135,0.295
1677,0.205,0.355
1678,0.275,0.435
1679,0.355,0.505
1680,0.415,0.565
1681,0.435,0.625
1682,0.455,0.635
1683,0.445,0.615
1684,0.435,0.575
1685,0.375,0.525
1686,0.285,0.445
1687,0.165,0.315
1688,0.055,0.195
1689,-0.015,0.105
1690,-0.095,0.025
1691,-0.155,-0.035
1692,-0.195,-0.085
1693,-0.215,-0.105
1694,-0.215,-0.115
1695,-0.225,-0.125
1696,-0.235,-0.135
1697,-0.225,-0.125
1698,-0.215,-0.115
1699,-0.205,-0.115
1700,-0.215,-0.105
1701,-0.215,-0.095
1702,-0.195,-0.095
1703,-0.195,-0.085
1704,-0.215,-0.095
1705,-0.205,-0.085
1706,-0.225,-0.085
1707,-0.215,-0.085
1708,-0.115,-0.095
1709,-0.035,-0.055
1710,-0.075,-0.005
1711,-0.065,-0.015
1712,-0.025,-0.025
1713,0.015,-0.015
1714,-0.035,-0.045
1715,-0.015,-0.125
1716,-0.025,-0.105
1717,-0.075,-0.105
1718,-0.255,-0.125
1719,-0.275,-0.205
1720,-0.295,-0.215
1721,-0.275,-0.215
1722,-0.285,-0.205
1723,-0.285,-0.215
1724,-0.285,-0.205
1725,-0.285,-0.205
1726,-0.275,-0.195
1727,-0.265,-0.215
1728,-0.285,-0.195
1729,-0.505,-0.165
1730,-0.575,-0.005
1731,0.035,0.185
1732,1.395,0.145
1733,1.715,-0.035
1734,0.055,-0.975
1735,-1.405,-1.915
1736,-1.545,-2.165
1737,-0.805,-1.665
1738,-0.425,-0.785
1739,-0.325,-0.265
1740,-0.265,-0.115
1741,-0.205,-0.045
1742,-0.195,0.005
1743,-0.185,0.015
1744,-0.145,0.015
1745,-0.125,0.045
1746,-0.095,0.055
1747,-0.095,0.075
1748,-0.085,0.065
1749,-0.045,0.115
1750,-0.005,0.145
1751,0.035,0.185
1752,0.065,0.205
1753,0.135,0.265
1754,0.185,0.335
1755,0.265,0.405
1756,0.325,0.465
1757,0.395,0.525
1758,0.445,0.585
1759,0.455,0.595
1760,0.445,0.585
1761,0.435,0.545
1762,0.395,0.515
1763,0.315,0.425
1764,0.195,0.305
1765,0.075,0.205
1766,-0.025,0.095
1767,-0.115,0.005
1768,-0.155,-0.085
1769,-0.185,-0.105
1770,-0.225,-0.125
1771,-0.235,-0.145
1772,-0.225,-0.155
1773,-0.215,-0.145
1774,-0.215,-0.145
1775,-0.205,-0.135
1776,-0.205,-0.135
1777,-0.195,-0.125
1778,-0.195,-0.115
1779,-0.205,-0.125
1780,-0.195,-0.115
1781,-0.185,-0.115
1782,-0.215,-0.105
1783,-0.185,-0.125
1784,-0.185,-0.115
1785,-0.185,-0.105
1786,-0.125,-0.105
1787,-0.065,-0.075
1788,-0.065,-0.025
1789,-0.075,-0.005
1790,-0.005,-0.035
1791,0.045,0.005
1792,-0.035,-0.025
1793,-0.015,-0.115
1794,0.005,-0.095
1795,-0.065,-0.095
1796,-0.265,-0.155
1797,-0.295,-0.215
1798,-0.295,-0.215
1799,-0.295,-0.225
1800,-0.295,-0.235
1801,-0.275,-0.225
1802,-0.275,-0.215
1803,-0.285,-0.205
1804,-0.285,-0.215
1805,-0.265,-0.215
1806,-0.275,-0.205
1807,-0.515,-0.175
1808,-0.555,-0.025
1809,0.155,0.145
1810,1.565,0.105
1811,1.625,-0.125
1812,-0.425,-1.235
1813,-1.555,-2.045
1814,-1.355,-2.095
1815,-0.605,-1.465
1816,-0.335,-0.545
1817,-0.215,-0.175
1818,-0.195,-0.055
1819,-0.165,-0.015
1820,-0.155,-0.005
1821,-0.105,0.015
1822,-0.105,0.025
1823,-0.085,0.055
1824,-0.075,0.065
1825,-0.045,0.095
1826,-0.015,0.115
1827,0.015,0.125
1828,0.035,0.145
1829,0.095,0.185
1830,0.135,0.225
1831,0.165,0.285
1832,0.245,0.325
1833,0.315,0.435
1834,0.385,0.495
1835,0.425,0.555
1836,0.455,0.565
1837,0.465,0.595
1838,0.435,0.595
1839,0.405,0.535
1840,0.365,0.465
1841,0.275,0.415
1842,0.205,0.305
1843,0.105,0.185
1844,0.015,0.085
1845,-0.045,0.015
1846,-0.115,-0.045
1847,-0.145,-0.095
1848,-0.165,-0.135
1849,-0.185,-0.135
1850,-0.175,-0.125
1851,-0.175,-0.135
1852,-0.155,-0.135
1853,-0.165,-0.125
1854,-0.145,-0.105
1855,-0.145,-0.105
1856,-0.155,-0.115
1857,-0.165,-0.115
1858,-0.145,-0.105
1859,-0.155,-0.105
1860,-0.155,-0.125
1861,-0.145,-0.115
1862,-0.165,-0.115
1863,-0.115,-0.115
1864,-0.075,-0.105
1865,-0.035,-0.065
1866,-0.025,-0.025
1867,0.045,-0.015
1868,0.105,-0.005
1869,0.015,-0.015
1870,0.045,-0.125
1871,0.045,-0.095
1872,-0.055,-0.115
1873,-0.245,-0.155
1874,-0.255,-0.235
1875,-0.265,-0.235
1876,-0.265,-0.255
1877,-0.275,-0.235
1878,-0.265,-0.225
1879,-0.265,-0.225
1880,-0.275,-0.235
1881,-0.265,-0.225
1882,-0.265,-0.215
1883,-0.245,-0.215
1884,-0.325,-0.225
1885,-0.595,-0.165
1886,-0.435,0.025
1887,0.575,0.085
1888,1.755,0.015
1889,0.755,-0.385
1890,-1.175,-1.605
1891,-1.575,-2.105
1892,-1.025,-1.865
1893,-0.495,-1.105
1894,-0.285,-0.405
1895,-0.215,-0.165
1896,-0.175,-0.085
1897,-0.155,-0.035
1898,-0.135,-0.015
1899,-0.115,-0.005
1900,-0.095,-0.005
1901,-0.065,0.035
1902,-0.055,0.045
1903,-0.045,0.055
1904,-0.025,0.075
1905,0.035,0.095
1906,0.075,0.135
1907,0.115,0.155
1908,0.155,0.195
1909,0.225,0.275
1910,0.285,0.335
1911,0.335,0.415
1912,0.385,0.475
1913,0.395,0.525
1914,0.395,0.535
1915,0.375,0.535
1916,0.355,0.485
1917,0.315,0.455
1918,0.265,0.395
1919,0.185,0.285
1920,0.085,0.185
1921,0.015,0.085
1922,-0.065,0.015
1923,-0.115,-0.055
1924,-0.145,-0.105
1925,-0.165,-0.125
1926,-0.175,-0.125
1927,-0.165,-0.125
1928,-0.165,-0.135
1929,-0.175,-0.125
1930,-0.135,-0.125
1931,-0.145,-0.115
1932,-0.145,-0.115
1933,-0.145,-0.115
1934,-0.145,-0.105
1935,-0.155,-0.105
1936,-0.165,-0.125
1937,-0.155,-0.115
1938,-0.155,-0.105
1939,-0.115,-0.105
1940,-0.045,-0.085
1941,-0.025,-0.035
1942,-0.035,-0.015
1943,0.035,-0.025
1944,0.085,-0.005
1945,0.015,-0.015
1946,0.055,-0.125
1947,0.045,-0.095
1948,-0.065,-0.105
1949,-0.245,-0.155
1950,-0.275,-0.245
1951,-0.265,-0.225
1952,-0.265,-0.245
1953,-0.265,-0.245
1954,-0.265,-0.235
1955,-0.265,-0.235
1956,-0.265,-0.225
1957,-0.265,-0.215
1958,-0.255,-0.215
1959,-0.275,-0.215
1960,-0.515,-0.195
1961,-0.555,-0.065
1962,0.035,0.075
1963,1.375,0.025
1964,1.475,-0.115
1965,-0.295,-1.135
1966,-1.365,-2.065
1967,-1.275,-2.185
1968,-0.605,-1.655
1969,-0.325,-0.745
1970,-0.225,-0.255
1971,-0.185,-0.105
1972,-0.155,-0.035
1973,-0.125,0.005
1974,-0.115,0.025
1975,-0.095,0.035
1976,-0.085,0.045
1977,-0.065,0.065
1978,-0.045,0.085
1979,-0.015,0.105
1980,0.015,0.115
1981,0.035,0.155
1982,0.085,0.185
1983,0.135,0.225
1984,0.165,0.265
1985,0.225,0.335
1986,0.295,0.415
1987,0.355,0.485
1988,0.385,0.535
1989,0.405,0.585
1990,0.415,0.605
1991,0.405,0.585
1992,0.375,0.545
1993,0.345,0.495
1994,0.295,0.415
1995,0.205,0.315
1996,0.115,0.205
1997,0.035,0.105
1998,-0.015,0.035
1999,-0.075,-0.035
2000,-0.115,-0.095
2001,-0.115,-0.115
2002,-0.115,-0.125
2003,-0.115,-0.135
2004,-0.125,-0.125
2005,-0.105,-0.125
2006,-0.115,-0.115
2007,-0.105,-0.115
2008,-0.115,-0.125
2009,-0.095,-0.115
2010,-0.095,-0.105
2011,-0.115,-0.105
2012,-0.095,-0.125
2013,-0.105,-0.125
2014,-0.095,-0.115
2015,-0.065,-0.115
2016,-0.035,-0.105
2017,0.005,-0.065
2018,0.025,-0.025
2019,0.065,-0.015
2020,0.145,-0.005
2021,0.095,0.015
2022,0.115,-0.085
2023,0.105,-0.105
2024,0.005,-0.105
2025,-0.185,-0.165
2026,-0.195,-0.255
2027,-0.215,-0.225
2028,-0.215,-0.245
2029,-0.205,-0.255
2030,-0.225,-0.245
2031,-0.225,-0.245
2032,-0.225,-0.245
2033,-0.215,-0.225
2034,-0.205,-0.225
2035,-0.205,-0.235
2036,-0.415,-0.225
2037,-0.595,-0.135
2038,-0.105,0.055
2039,1.205,0.015
2040,1.635,-0.065
2041,0.085,-0.825
2042,-1.255,-1.915
2043,-1.295,-2.185
2044,-0.615,-1.755
2045,-0.315,-0.835
2046,-0.195,-0.325
2047,-0.155,-0.135
2048,-0.115,-0.045
2049,-0.095,-0.015
2050,-0.085,0.005
2051,-0.075,0.025
2052,-0.045,0.025
2053,-0.035,0.055
2054,-0.015,0.075
2055,0.005,0.085
2056,0.045,0.105
2057,0.085,0.125
2058,0.105,0.175
2059,0.155,0.215
2060,0.205,0.245
2061,0.265,0.315
2062,0.315,0.385
2063,0.375,0.455
2064,0.415,0.505
2065,0.435,0.555
2066,0.425,0.585
2067,0.415,0.565
2068,0.405,0.525
2069,0.375,0.485
2070,0.315,0.425
2071,0.215,0.315
2072,0.115,0.215
2073,0.075,0.125
2074,0.025,0.045
2075,-0.035,-0.015
2076,-0.075,-0.065
2077,-0.105,-0.095
2078,-0.105,-0.105
2079,-0.115,-0.105
2080,-0.095,-0.115
2081,-0.095,-0.105
2082,-0.095,-0.085
2083,-0.095,-0.095
2084,-0.095,-0.095
2085,-0.085,-0.075
2086,-0.075,-0.075
2087,-0.075,-0.075
2088,-0.085,-0.085
2089,-0.085,-0.075
2090,-0.075,-0.075
2091,-0.065,-0.085
2092,-0.005,-0.065
2093,0.055,-0.035
2094,0.035,0.005
2095,0.095,0.015
2096,0.175,0.015
2097,0.105,0.035
2098,0.135,-0.045
2099,0.125,-0.065
2100,-0.025,-0.095
2101,-0.165,-0.145
2102,-0.195,-0.205
2103,-0.195,-0.195
2104,-0.215,-0.215
2105,-0.185,-0.215
2106,-0.205,-0.175
2107,-0.215,-0.185
2108,-0.205,-0.195
2109,-0.185,-0.195
2110,-0.185,-0.175
2111,-0.275,-0.195
2112,-0.575,-0.155
2113,-0.375,0.025
2114,0.725,0.065
2115,1.655,0.055
2116,0.665,-0.625
2117,-0.875,-1.835
2118,-1.225,-2.315
2119,-0.735,-2.005
2120,-0.245,-1.205
2121,-0.155,-0.335
2122,-0.135,-0.065
2123,-0.115,0.005
2124,-0.095,0.035
2125,-0.065,0.075
2126,-0.055,0.085
2127,-0.045,0.115
2128,-0.015,0.135
2129,-0.005,0.145
2130,0.015,0.165
2131,0.035,0.185
2132,0.065,0.235
2133,0.095,0.265
2134,0.145,0.285
2135,0.195,0.355
2136,0.225,0.405
2137,0.295,0.485
2138,0.365,0.565
2139,0.425,0.625
2140,0.415,0.675
2141,0.425,0.705
2142,0.415,0.705
2143,0.415,0.665
2144,0.365,0.615
2145,0.325,0.535
2146,0.255,0.455
2147,0.155,0.325
2148,0.075,0.195
2149,0.005,0.105
2150,-0.035,0.035
2151,-0.065,-0.025
2152,-0.105,-0.065
2153,-0.105,-0.095
2154,-0.115,-0.105
2155,-0.125,-0.115
2156,-0.145,-0.105
2157,-0.115,-0.095
2158,-0.105,-0.085
2159,-0.105,-0.075
2160,-0.085,-0.095
2161,-0.095,-0.065
2162,-0.095,-0.075
2163,-0.095,-0.085
2164,-0.105,-0.085
2165,-0.105,-0.085
2166,-0.075,-0.085
2167,-0.025,-0.055
2168,0.005,-0.035
2169,0.015,0.005
2170,0.075,0.015
2171,0.135,0.015
2172,0.085,0.035
2173,0.085,-0.055
2174,0.095,-0.075
2175,0.005,-0.075
2176,-0.195,-0.135
2177,-0.225,-0.205
2178,-0.245,-0.195
2179,-0.255,-0.225
2180,-0.245,-0.235
2181,-0.235,-0.215
2182,-0.225,-0.205
2183,-0.235,-0.205
2184,-0.235,-0.215
2185,-0.235,-0.215
2186,-0.225,-0.205
2187,-0.435,-0.205
2188,-0.625,-0.145
2189,-0.195,0.025
2190,1.055,0.015
2191,1.605,-0.045
2192,0.225,-0.935
2193,-1.025,-2.045
2194,-1.215,-2.285
2195,-0.605,-1.895
2196,-0.265,-1.005
2197,-0.185,-0.305
2198,-0.145,-0.085
2199,-0.155,0.005
2200,-0.135,0.025
2201,-0.125,0.055
2202,-0.105,0.065
2203,-0.085,0.065
2204,-0.065,0.085
2205,-0.035,0.115
2206,0.005,0.135
2207,0.025,0.155
2208,0.045,0.175
2209,0.105,0.225
2210,0.135,0.255
2211,0.175,0.305
2212,0.225,0.365
2213,0.315,0.435
2214,0.375,0.505
2215,0.405,0.575
2216,0.425,0.595
2217,0.455,0.605
2218,0.455,0.595
2219,0.435,0.575
2220,0.385,0.515
2221,0.315,0.435
2222,0.225,0.335
2223,0.115,0.215
2224,0.035,0.105
2225,-0.005,0.025
2226,-0.075,-0.035
2227,-0.105,-0.075
2228,-0.135,-0.115
2229,-0.125,-0.115
2230,-0.115,-0.115
2231,-0.125,-0.115
2232,-0.135,-0.115
2233,-0.155,-0.105
2234,-0.125,-0.105
2235,-0.115,-0.105
2236,-0.105,-0.105
2237,-0.065,-0.105
2238,-0.085,-0.105
2239,-0.155,-0.115
2240,-0.105,-0.115
2241,-0.035,-0.115
2242,-0.005,-0.095
2243,0.015,-0.055
2244,0.045,-0.035
2245,0.085,-0.005
2246,0.115,0.015
2247,0.135,0.025
2248,0.095,-0.055
2249,0.115,-0.105
2250,0.065,-0.095
2251,-0.165,-0.135
2252,-0.205,-0.225
2253,-0.215,-0.215
2254,-0.215,-0.235
2255,-0.225,-0.245
2256,-0.235,-0.245
2257,-0.245,-0.235
2258,-0.225,-0.235
2259,-0.235,-0.235
2260,-0.235,-0.225
2261,-0.235,-0.225
2262,-0.225,-0.225
2263,-0.425,-0.215
2264,-0.645,-0.125
2265,-0.265,0.045
2266,1.045,0.015
2267,1.595,-0.055
2268,0.315,-0.605
2269,-1.135,-1.675
2270,-1.435,-2.095
2271,-1.015,-1.885
2272,-0.475,-1.265
2273,-0.265,-0.545
2274,-0.195,-0.215
2275,-0.165,-0.075
2276,-0.135,-0.025
2277,-0.125,-0.015
2278,-0.105,-0.005
2279,-0.085,0.025
2280,-0.045,0.005
2281,-0.055,0.035
2282,-0.015,0.065
2283,0.025,0.085
2284,0.055,0.085
2285,0.085,0.105
2286,0.125,0.165
2287,0.155,0.205
2288,0.215,0.225
2289,0.285,0.295
2290,0.345,0.385
2291,0.395,0.435
2292,0.425,0.485
2293,0.415,0.505
2294,0.425,0.495
2295,0.415,0.465
2296,0.375,0.425
2297,0.275,0.345
2298,0.175,0.265
2299,0.075,0.165
2300,0.015,0.055
2301,-0.035,-0.015
2302,-0.085,-0.055
2303,-0.125,-0.085
2304,-0.155,-0.115
2305,-0.145,-0.105
2306,-0.135,-0.105
2307,-0.145,-0.115
2308,-0.115,-0.105
2309,-0.135,-0.085
2310,-0.135,-0.085
2311,-0.115,-0.095
2312,-0.115,-0.095
2313,-0.095,-0.065
2314,-0.105,-0.085
2315,-0.115,-0.075
2316,-0.075,-0.075
2317,-0.025,-0.055
2318,0.015,-0.015
2319,0.025,0.035
2320,0.075,0.005
2321,0.145,0.025
2322,0.065,0.045
2323,0.075,-0.065
2324,0.085,-0.075
2325,-0.035,-0.085
2326,-0.205,-0.135
2327,-0.225,-0.215
2328,-0.265,-0.205
2329,-0.255,-0.215
2330,-0.275,-0.225
2331,-0.245,-0.215
2332,-0.275,-0.215
2333,-0.275,-0.225
2334,-0.265,-0.215
2335,-0.255,-0.215
2336,-0.265,-0.225
2337,-0.515,-0.205
2338,-0.645,-0.125
2339,-0.175,0.065
2340,1.125,0.035
2341,1.615,-0.125
2342,0.135,-1.165
2343,-1.225,-2.085
2344,-1.385,-2.275
2345,-0.655,-1.785
2346,-0.355,-0.845
2347,-0.355,-0.285
2348,-0.505,-0.105
2349,-0.525,-0.025
2350,-0.435,-0.005
2351,-0.225,0.055
2352,-0.245,0.125
2353,-0.125,0.065
2354,-0.025,0.095
2355,-0.045,0.105
2356,-0.035,0.105
2357,0.055,0.165
2358,-0.025,0.225
2359,0.015,0.245
2360,0.065,0.275
2361,0.055,0.345
2362,0.165,0.435
2363,0.225,0.485
2364,0.285,0.565
2365,0.345,0.645
2366,0.325,0.705
2367,0.325,0.705
2368,0.325,0.675
2369,0.285,0.635
2370,0.245,0.585
2371,0.185,0.495
2372,0.125,0.365
2373,0.065,0.245
2374,-0.025,0.125
2375,-0.105,0.035
2376,-0.165,-0.055
2377,-0.175,-0.075
2378,-0.265,-0.125
2379,-0.315,-0.155
2380,-0.425,-0.145
2381,-0.235,-0.155
2382,-0.345,-0.145
2383,-0.335,-0.125
2384,-0.265,-0.175
2385,-0.135,-0.155
2386,-0.035,-0.095
2387,0.025,-0.065
2388,-0.245,-0.135
2389,-0.155,-0.125
2390,-0.025,-0.135
2391,-0.005,-0.145
2392,-0.035,-0.115
2393,-0.025,-0.135
2394,0.025,-0.095
2395,0.015,-0.065
2396,0.065,-0.065
2397,0.105,-0.045
2398,0.075,-0.015
2399,0.095,-0.075
2400,0.055,-0.125
2401,-0.075,-0.135
2402,-0.235,-0.195
2403,-0.245,-0.245
2404,-0.265,-0.255
2405,-0.245,-0.275
2406,-0.245,-0.265
2407,-0.265,-0.275
2408,-0.245,-0.275
2409,-0.255,-0.255
2410,-0.235,-0.245
2411,-0.495,-0.265
2412,-0.435,-0.295
2413,-0.655,-0.215
2414,-0.625,-0.095
2415,0.475,-0.075
2416,1.625,-0.025
2417,0.805,-0.565
2418,-0.655,-1.865
2419,-1.045,-2.365
2420,-0.745,-2.245
2421,-0.225,-1.735
2422,-0.155,-0.785
2423,-0.145,-0.345
2424,-0.175,-0.155
2425,-0.185,-0.035
2426,-0.185,0.015
2427,-0.115,0.025
2428,-0.135,0.055
2429,-0.105,0.085
2430,-0.105,0.115
2431,-0.165,0.105
2432,-0.075,0.145
2433,0.005,0.175
2434,0.015,0.205
2435,-0.005,0.265
2436,0.085,0.285
2437,0.145,0.365
2438,0.155,0.445
2439,0.165,0.485
2440,0.295,0.575
2441,0.305,0.615
2442,0.525,0.645
2443,0.485,0.595
2444,0.435,0.585
2445,0.335,0.525
2446,0.345,0.475
2447,0.225,0.395
2448,0.155,0.285
2449,0.075,0.145
2450,0.025,0.045
2451,-0.025,-0.005
2452,-0.075,-0.095
2453,-0.115,-0.125
2454,-0.145,-0.165
2455,-0.155,-0.175
2456,-0.245,-0.195
2457,-0.195,-0.205
2458,-0.185,-0.205
2459,-0.195,-0.185
2460,-0.145,-0.185
2461,-0.135,-0.185
2462,-0.195,-0.175
2463,-0.345,-0.195
2464,-0.155,-0.185
2465,-0.145,-0.195
2466,-0.295,-0.215
2467,-0.015,-0.185
2468,-0.125,-0.215
2469,0.005,-0.205
2470,0.015,-0.115
2471,0.045,-0.095
2472,0.105,-0.065
2473,0.115,-0.065
2474,-0.115,-0.085
2475,0.025,-0.165
2476,0.035,-0.195
2477,0.075,-0.195
2478,-0.155,-0.215
2479,-0.315,-0.275
2480,-0.265,-0.305
2481,-0.235,-0.335
2482,-0.285,-0.325
2483,-0.365,-0.345
2484,-0.275,-0.365
2485,-0.235,-0.325
2486,-0.305,-0.315
2487,-0.365,-0.325
2488,-0.435,-0.345
2489,-0.505,-0.305
2490,-0.515,-0.215
2491,0.015,-0.175
2492,1.165,-0.005
2493,0.425,-0.435
2494,-0.305,-1.785
2495,-0.695,-2.405
2496,-0.655,-2.355
2497,-0.225,-1.935
2498,-0.105,-1.005
2499,-0.165,-0.435
2500,-0.235,-0.225
2501,-0.235,-0.135
2502,-0.245,-0.075
2503,-0.205,-0.075
2504,-0.195,-0.055
2505,-0.185,-0.005
2506,-0.145,0.015
2507,-0.135,-0.005
2508,-0.145,0.025
2509,-0.105,0.055
2510,-0.165,0.115
2511,-0.075,0.135
2512,-0.005,0.185
2513,0.105,0.245
2514,0.165,0.285
2515,0.185,0.325
2516,0.205,0.395
2517,0.155,0.395
2518,0.155,0.415
2519,0.275,0.405
2520,0.295,0.385
2521,0.235,0.355
2522,0.165,0.295
2523,0.175,0.205
2524,0.085,0.145
2525,0.025,0.055
2526,-0.025,-0.035
2527,-0.125,-0.095
2528,-0.175,-0.175
2529,-0.215,-0.195
2530,-0.225,-0.205
2531,-0.245,-0.225
2532,-0.265,-0.245
2533,-0.275,-0.235
2534,-0.255,-0.225
2535,-0.205,-0.215
2536,-0.215,-0.215
2537,-0.255,-0.195
2538,-0.205,-0.185
2539,-0.215,-0.175
2540,-0.205,-0.185
2541,-0.185,-0.175
2542,-0.215,-0.175
2543,-0.195,-0.195
2544,-0.235,-0.185
2545,-0.235,-0.165
2546,-0.115,-0.175
2547,-0.105,-0.165
2548,-0.085,-0.135
2549,-0.085,-0.095
2550,-0.085,-0.065
2551,0.055,-0.025
2552,0.055,-0.015
2553,0.075,-0.035
2554,0.105,-0.095
2555,0.025,-0.085
2556,-0.105,-0.135
2557,-0.215,-0.185
2558,-0.235,-0.175
2559,-0.215,-0.225
2560,-0.235,-0.235
2561,-0.245,-0.235
2562,-0.245,-0.225
2563,-0.245,-0.225
2564,-0.265,-0.245
2565,-0.255,-0.225
2566,-0.255,-0.215
2567,-0.285,-0.235
2568,-0.505,-0.225
2569,-0.415,-0.135
2570,0.215,-0.045
2571,1.105,0.145
2572,0.645,-0.115
2573,-0.295,-1.485
2574,-0.765,-2.195
2575,-0.725,-2.245
2576,-0.355,-1.885
2577,-0.225,-0.995
2578,-0.195,-0.405
2579,-0.225,-0.145
2580,-0.275,-0.045
2581,-0.205,0.005
2582,-0.145,0.035
2583,-0.125,0.065
2584,-0.145,0.075
2585,-0.105,0.085
2586,-0.125,0.125
2587,-0.135,0.135
2588,-0.095,0.155
2589,-0.045,0.185
2590,0.005,0.235
2591,0.015,0.285
2592,0.025,0.325
2593,0.165,0.385
2594,0.155,0.465
2595,0.225,0.515
2596,0.275,0.525
2597,0.285,0.565
2598,0.245,0.555
2599,0.215,0.505
2600,0.205,0.435
2601,0.065,0.395
2602,0.165,0.335
2603,0.035,0.225
2604,-0.025,0.125
2605,-0.145,0.025
2606,-0.155,-0.035
2607,-0.055,-0.085
2608,-0.325,-0.135
2609,-0.185,-0.155
2610,-0.195,-0.155
2611,-0.065,-0.175
2612,-0.235,-0.185
2613,-0.135,-0.185
2614,-0.125,-0.155
2615,-0.145,-0.165
2616,-0.155,-0.175
2617,-0.185,-0.175
2618,-0.155,-0.165
2619,-0.135,-0.165
2620,-0.135,-0.185
2621,-0.135,-0.185
2622,-0.165,-0.175
2623,-0.135,-0.185
2624,-0.205,-0.205
2625,-0.175,-0.185
2626,-0.245,-0.195
2627,-0.095,-0.175
2628,-0.075,-0.165
2629,-0.105,-0.135
2630,0.005,-0.075
2631,-0.005,-0.045
2632,0.065,-0.055
2633,0.045,-0.075
2634,0.005,-0.145
2635,-0.045,-0.125
2636,-0.175,-0.195
2637,-0.235,-0.235
2638,-0.235,-0.215
2639,-0.255,-0.255
2640,-0.285,-0.275
2641,-0.295,-0.245
2642,-0.275,-0.255
2643,-0.255,-0.265
2644,-0.285,-0.265
2645,-0.225,-0.245
2646,-0.275,-0.225
2647,-0.385,-0.255
2648,-0.515,-0.215
2649,-0.355,-0.125
2650,0.375,-0.085
2651,1.015,0.055
2652,0.375,-0.455
2653,-0.405,-1.725
2654,-0.725,-2.175
2655,-0.585,-2.125
2656,-0.235,-1.695
2657,-0.165,-0.885
2658,-0.205,-0.385
2659,-0.165,-0.125
2660,-0.235,-0.035
2661,-0.155,0.015
2662,-0.155,0.045
2663,-0.195,0.065
2664,-0.115,0.065
2665,-0.095,0.085
2666,-0.055,0.115
2667,-0.065,0.145
2668,-0.045,0.165
2669,-0.025,0.215
2670,0.015,0.255
2671,0.045,0.295
2672,0.095,0.315
2673,0.135,0.405
2674,0.175,0.435
2675,0.225,0.485
2676,0.245,0.515
2677,0.255,0.545
2678,0.305,0.535
2679,0.315,0.495
2680,0.225,0.455
2681,0.225,0.415
2682,0.195,0.335
2683,0.105,0.235
2684,-0.015,0.135
2685,-0.065,0.065
2686,-0.085,-0.005
2687,-0.125,-0.045
2688,-0.185,-0.095
2689,-0.195,-0.115
2690,-0.155,-0.115
2691,-0.145,-0.105
2692,-0.165,-0.115
2693,-0.205,-0.115
2694,-0.175,-0.095
2695,-0.145,-0.105
2696,-0.155,-0.115
2697,-0.125,-0.115
2698,-0.145,-0.095
2699,-0.195,-0.105
2700,-0.145,-0.125
2701,-0.135,-0.095
2702,-0.155,-0.095
2703,-0.165,-0.105
2704,-0.165,-0.125
2705,-0.175,-0.105
2706,-0.135,-0.095
2707,-0.065,-0.065
2708,-0.065,-0.035
2709,-0.045,-0.025
2710,0.075,0.015
2711,0.085,0.045
2712,-0.015,-0.025
2713,0.015,-0.115
2714,-0.025,-0.085
2715,-0.195,-0.115
2716,-0.225,-0.175
2717,-0.255,-0.155
2718,-0.235,-0.165
2719,-0.285,-0.195
2720,-0.245,-0.205
2721,-0.235,-0.185
2722,-0.235,-0.175
2723,-0.255,-0.175
2724,-0.255,-0.195
2725,-0.235,-0.195
2726,-0.265,-0.175
2727,-0.545,-0.155
2728,-0.455,-0.095
2729,0.205,-0.035
2730,1.055,0.095
2731,0.665,-0.175
2732,-0.225,-1.505
2733,-0.695,-2.115
2734,-0.785,-2.175
2735,-0.365,-1.895
2736,-0.245,-1.095
2737,-0.155,-0.425
2738,-0.125,-0.115
2739,-0.185,0.015
2740,-0.175,0.065
2741,-0.105,0.095
2742,-0.165,0.115
2743,-0.085,0.125
2744,-0.045,0.145
2745,-0.035,0.175
2746,-0.045,0.195
2747,0.005,0.205
2748,0.015,0.235
2749,0.055,0.265
2750,0.085,0.325
2751,0.105,0.365
2752,0.175,0.405
2753,0.255,0.485
2754,0.285,0.565
2755,0.345,0.595
2756,0.375,0.605
2757,0.415,0.625
2758,0.335,0.615
2759,0.325,0.555
2760,0.335,0.515
2761,0.265,0.455
2762,0.225,0.365
2763,0.115,0.255
2764,-0.005,0.145
2765,-0.035,0.065
2766,-0.065,-0.005
2767,-0.105,-0.055
2768,-0.115,-0.075
2769,-0.125,-0.115
2770,-0.145,-0.105
2771,-0.135,-0.115
2772,-0.105,-0.125
2773,-0.115,-0.105
2774,-0.105,-0.105
2775,-0.095,-0.115
2776,-0.105,-0.105
2777,-0.085,-0.095
2778,-0.095,-0.095
2779,-0.095,-0.095
2780,-0.105,-0.115
2781,-0.085,-0.095
2782,-0.095,-0.095
2783,-0.085,-0.105
2784,-0.105,-0.105
2785,-0.075,-0.105
2786,-0.035,-0.065
2787,-0.025,-0.035
2788,0.015,-0.025
2789,0.135,-0.015
2790,0.075,0.045
2791,0.025,-0.015
2792,0.055,-0.135
2793,0.055,-0.095
2794,-0.035,-0.105
2795,-0.205,-0.165
2796,-0.185,-0.185
2797,-0.215,-0.175
2798,-0.205,-0.195
2799,-0.175,-0.185
2800,-0.235,-0.205
2801,-0.215,-0.205
2802,-0.185,-0.185
2803,-0.225,-0.175
2804,-0.255,-0.195
2805,-0.205,-0.205
2806,-0.485,-0.145
2807,-0.425,-0.075
2808,0.185,-0.035
2809,1.145,0.045
2810,0.995,-0.105
2811,-0.075,-1.365
2812,-0.615,-2.095
2813,-0.795,-2.255
2814,-0.335,-1.975
2815,-0.165,-1.175
2816,-0.155,-0.475
2817,-0.125,-0.135
2818,-0.105,0.015
2819,-0.095,0.085
2820,-0.085,0.105
2821,-0.115,0.125
2822,-0.075,0.145
2823,-0.015,0.165
2824,-0.045,0.185
2825,-0.035,0.205
2826,0.025,0.225
2827,0.075,0.275
2828,0.085,0.305
2829,0.115,0.365
2830,0.195,0.415
2831,0.185,0.485
2832,0.295,0.535
2833,0.335,0.615
2834,0.405,0.655
2835,0.415,0.675
2836,0.415,0.665
2837,0.415,0.645
2838,0.395,0.595
2839,0.295,0.545
2840,0.255,0.445
2841,0.145,0.355
2842,0.125,0.245
2843,0.005,0.145
2844,-0.035,0.035
2845,-0.095,-0.015
2846,-0.095,-0.065
2847,-0.125,-0.085
2848,-0.145,-0.125
2849,-0.105,-0.125
2850,-0.145,-0.125
2851,-0.165,-0.145
2852,-0.105,-0.135
2853,-0.105,-0.125
2854,-0.115,-0.125
2855,-0.105,-0.125
2856,-0.095,-0.115
2857,-0.125,-0.115
2858,-0.085,-0.115
2859,-0.065,-0.115
2860,-0.095,-0.115
2861,-0.095,-0.105
2862,-0.105,-0.115
2863,-0.095,-0.125
2864,-0.045,-0.115
2865,0.005,-0.055
2866,0.005,-0.035
2867,0.045,-0.025
2868,0.125,-0.005
2869,0.085,0.005
2870,-0.005,-0.075
2871,0.045,-0.145
2872,0.005,-0.115
2873,-0.085,-0.135
2874,-0.175,-0.175
2875,-0.185,-0.195
2876,-0.195,-0.185
2877,-0.185,-0.215
2878,-0.205,-0.195
2879,-0.215,-0.205
2880,-0.195,-0.205
2881,-0.185,-0.195
2882,-0.215,-0.185
2883,-0.175,-0.205
2884,-0.225,-0.205
2885,-0.395,-0.165
2886,-0.385,-0.095
2887,0.295,-0.045
2888,1.275,0.005
2889,0.875,-0.365
2890,-0.205,-1.655
2891,-0.695,-2.265
2892,-0.735,-2.305
2893,-0.235,-1.915
2894,-0.125,-0.975
2895,-0.095,-0.345
2896,-0.135,-0.095
2897,-0.115,0.045
2898,-0.075,0.095
2899,-0.065,0.115
2900,-0.075,0.115
2901,-0.055,0.135
2902,-0.015,0.155
2903,-0.005,0.175
2904,0.015,0.195
2905,0.045,0.215
2906,0.085,0.265
2907,0.105,0.295
2908,0.135,0.335
2909,0.205,0.405
2910,0.275,0.485
2911,0.335,0.565
2912,0.395,0.625
2913,0.465,0.665
2914,0.435,0.685
2915,0.435,0.685
2916,0.425,0.635
2917,0.405,0.605
2918,0.365,0.545
2919,0.295,0.445
2920,0.165,0.325
2921,0.105,0.215
2922,0.015,0.115
2923,-0.045,0.035
2924,-0.055,-0.045
2925,-0.105,-0.075
2926,-0.095,-0.105
2927,-0.135,-0.115
2928,-0.155,-0.155
2929,-0.125,-0.155
2930,-0.105,-0.145
2931,-0.115,-0.145
2932,-0.125,-0.145
2933,-0.135,-0.155
2934,-0.105,-0.135
2935,-0.115,-0.135
2936,-0.095,-0.135
2937,-0.105,-0.125
2938,-0.105,-0.125
2939,-0.115,-0.125
2940,-0.125,-0.145
2941,-0.105,-0.155
2942,-0.105,-0.145
2943,-0.135,-0.145
2944,-0.125,-0.145
2945,-0.085,-0.135
2946,-0.015,-0.095
2947,-0.035,-0.075
2948,0.045,-0.065
2949,0.095,-0.025
2950,0.045,-0.055
2951,0.015,-0.135
2952,0.075,-0.165
2953,0.005,-0.135
2954,-0.165,-0.155
2955,-0.165,-0.215
2956,-0.215,-0.205
2957,-0.225,-0.235
2958,-0.225,-0.245
2959,-0.215,-0.235
2960,-0.215,-0.225
2961,-0.195,-0.225
2962,-0.205,-0.215
2963,-0.185,-0.215
2964,-0.185,-0.215
2965,-0.285,-0.205
2966,-0.495,-0.155
2967,-0.295,-0.045
2968,0.465,0.005
2969,1.385,0.035
2970,0.875,-0.325
2971,-0.355,-1.585
2972,-0.885,-2.185
2973,-0.925,-2.255
2974,-0.355,-1.885
2975,-0.205,-0.945
2976,-0.145,-0.325
2977,-0.125,-0.085
2978,-0.145,0.015
2979,-0.105,0.045
2980,-0.105,0.075
2981,-0.075,0.105
2982,-0.035,0.125
2983,-0.025,0.135
2984,-0.025,0.145
2985,0.005,0.175
2986,0.065,0.215
2987,0.095,0.245
2988,0.105,0.285
2989,0.165,0.335
2990,0.185,0.395
2991,0.255,0.455
2992,0.305,0.525
2993,0.385,0.605
2994,0.445,0.665
2995,0.485,0.695
2996,0.485,0.695
2997,0.475,0.685
2998,0.445,0.645
2999,0.385,0.575
3000,0.305,0.485
3001,0.235,0.375
3002,0.135,0.265
3003,0.015,0.145
3004,-0.025,0.045
3005,-0.065,-0.015
3006,-0.105,-0.055
3007,-0.115,-0.085
3008,-0.135,-0.115
3009,-0.135,-0.115
3010,-0.105,-0.125
3011,-0.105,-0.125
3012,-0.115,-0.135
3013,-0.115,-0.115
3014,-0.105,-0.115
3015,-0.115,-0.115
3016,-0.125,-0.115
3017,-0.105,-0.095
3018,-0.105,-0.095
3019,-0.095,-0.105
3020,-0.115,-0.105
3021,-0.115,-0.115
3022,-0.125,-0.105
3023,-0.115,-0.115
3024,-0.125,-0.115
3025,-0.045,-0.115
3026,-0.005,-0.055
3027,-0.055,-0.035
3028,0.045,-0.045
3029,0.095,-0.005
3030,0.045,-0.025
3031,-0.005,-0.115
3032,0.015,-0.145
3033,-0.035,-0.115
3034,-0.095,-0.135
3035,-0.175,-0.185
3036,-0.195,-0.205
3037,-0.205,-0.185
3038,-0.195,-0.205
3039,-0.235,-0.205
3040,-0.225,-0.215
3041,-0.205,-0.205
3042,-0.205,-0.195
3043,-0.195,-0.185
3044,-0.195,-0.185
3045,-0.235,-0.195
3046,-0.435,-0.155
3047,-0.415,-0.045
3048,0.115,0.045
3049,1.155,0.045
3050,1.255,-0.135
3051,0.055,-1.155
3052,-0.795,-2.005
3053,-0.945,-2.295
3054,-0.555,-2.015
3055,-0.275,-1.325
3056,-0.175,-0.535
3057,-0.115,-0.185
3058,-0.125,-0.015
3059,-0.105,0.055
3060,-0.105,0.065
3061,-0.045,0.085
3062,-0.035,0.125
3063,-0.035,0.145
3064,-0.055,0.155
3065,0.025,0.165
3066,0.055,0.205
3067,0.065,0.235
3068,0.085,0.275
3069,0.145,0.305
3070,0.205,0.395
3071,0.255,0.455
3072,0.335,0.535
3073,0.395,0.615
3074,0.455,0.675
3075,0.495,0.705
3076,0.495,0.725
3077,0.485,0.725
3078,0.465,0.675
3079,0.415,0.595
3080,0.335,0.515
3081,0.235,0.405
3082,0.185,0.305
3083,0.085,0.185
3084,-0.015,0.085
3085,-0.055,0.015
3086,-0.075,-0.035
3087,-0.075,-0.075
3088,-0.135,-0.105
3089,-0.115,-0.125
3090,-0.105,-0.125
3091,-0.105,-0.105
3092,-0.125,-0.115
3093,-0.135,-0.115
3094,-0.095,-0.105
3095,-0.075,-0.095
3096,-0.095,-0.105
3097,-0.085,-0.095
3098,-0.095,-0.095
3099,-0.085,-0.095
3100,-0.135,-0.115
3101,-0.105,-0.105
3102,-0.075,-0.115
3103,-0.085,-0.115
3104,-0.155,-0.125
3105,-0.065,-0.125
3106,-0.035,-0.095
3107,-0.025,-0.055
3108,0.005,-0.045
3109,0.105,-0.035
3110,0.105,-0.005
3111,0.055,-0.055
3112,0.055,-0.135
3113,0.055,-0.135
3114,0.005,-0.125
3115,-0.125,-0.155
3116,-0.185,-0.205
3117,-0.185,-0.185
3118,-0.205,-0.195
3119,-0.195,-0.215
3120,-0.205,-0.215
3121,-0.205,-0.205
3122,-0.165,-0.195
3123,-0.165,-0.195
3124,-0.175,-0.195
3125,-0.155,-0.185
3126,-0.195,-0.175
3127,-0.395,-0.135
3128,-0.375,-0.015
3129,0.395,0.085
3130,1.435,0.055
3131,0.885,-0.355
3132,-0.405,-1.595
3133,-0.965,-2.185
3134,-0.865,-2.165
3135,-0.295,-1.675
3136,-0.145,-0.735
3137,-0.115,-0.215
3138,-0.085,-0.055
3139,-0.085,0.035
3140,-0.095,0.065
3141,-0.055,0.085
3142,-0.025,0.115
3143,-0.025,0.125
3144,-0.015,0.145
3145,0.015,0.165
3146,0.035,0.175
3147,0.065,0.205
3148,0.105,0.225
3149,0.155,0.275
3150,0.185,0.315
3151,0.235,0.365
3152,0.315,0.425
3153,0.375,0.505
3154,0.445,0.585
3155,0.495,0.635
3156,0.495,0.655
3157,0.525,0.665
3158,0.505,0.645
3159,0.485,0.605
3160,0.415,0.525
3161,0.315,0.445
3162,0.215,0.335
3163,0.115,0.225
3164,0.035,0.105
3165,-0.015,0.045
3166,-0.075,-0.015
3167,-0.105,-0.045
3168,-0.115,-0.095
3169,-0.115,-0.095
3170,-0.125,-0.095
3171,-0.125,-0.105
3172,-0.125,-0.105
3173,-0.105,-0.105
3174,-0.115,-0.095
3175,-0.105,-0.095
3176,-0.115,-0.105
3177,-0.085,-0.095
3178,-0.075,-0.085
3179,-0.085,-0.095
3180,-0.095,-0.095
3181,-0.055,-0.095
3182,-0.065,-0.085
3183,-0.095,-0.105
3184,-0.095,-0.115
3185,-0.085,-0.115
3186,-0.075,-0.105
3187,-0.025,-0.105
3188,0.005,-0.065
3189,0.005,-0.035
3190,0.055,-0.025
3191,0.115,-0.015
3192,0.105,-0.035
3193,0.085,-0.095
3194,0.125,-0.125
3195,0.115,-0.095
3196,-0.015,-0.115
3197,-0.135,-0.155
3198,-0.135,-0.195
3199,-0.135,-0.195
3200,-0.115,-0.205
3201,-0.115,-0.205
3202,-0.115,-0.195
3203,-0.135,-0.185
3204,-0.155,-0.195
3205,-0.105,-0.195
3206,-0.085,-0.185
3207,-0.115,-0.175
3208,-0.315,-0.165
3209,-0.345,-0.005
3210,0.255,0.185
3211,1.385,0.125
3212,1.775,-0.035
3213,0.415,-0.685
3214,-0.955,-1.735
3215,-1.175,-2.095
3216,-0.585,-1.725
3217,-0.205,-0.885
3218,-0.095,-0.275
3219,-0.015,-0.095
3220,-0.015,-0.025
3221,0.005,-0.005
3222,0.015,0.005
3223,0.025,0.015
3224,0.045,0.005
3225,0.075,0.035
3226,0.075,0.075
3227,0.075,0.075
3228,0.135,0.085
3229,0.145,0.115
3230,0.185,0.145
3231,0.225,0.175
3232,0.295,0.235
3233,0.355,0.295
3234,0.445,0.345
3235,0.505,0.415
3236,0.575,0.465
3237,0.605,0.515
3238,0.645,0.525
3239,0.645,0.515
3240,0.595,0.485
3241,0.535,0.445
3242,0.475,0.375
3243,0.365,0.285
3244,0.255,0.195
3245,0.165,0.115
3246,0.105,0.025
3247,0.045,-0.025
3248,-0.015,-0.055
3249,-0.035,-0.085
3250,-0.045,-0.095
3251,-0.075,-0.095
3252,-0.075,-0.105
3253,-0.045,-0.095
3254,-0.055,-0.095
3255,-0.035,-0.085
3256,-0.095,-0.105
3257,-0.055,-0.085
3258,-0.025,-0.075
3259,-0.025,-0.065
3260,-0.055,-0.075
3261,-0.055,-0.085
3262,-0.035,-0.075
3263,-0.025,-0.075
3264,-0.055,-0.085
3265,-0.065,-0.095
3266,-0.035,-0.085
3267,0.015,-0.085
3268,-0.005,-0.045
3269,0.095,-0.005
3270,0.105,0.005
3271,0.085,0.005
3272,0.095,0.025
3273,0.055,-0.055
3274,0.115,-0.115
3275,0.105,-0.075
3276,-0.025,-0.085
3277,-0.165,-0.135
3278,-0.155,-0.175
3279,-0.175,-0.165
3280,-0.195,-0.185
3281,-0.215,-0.185
3282,-0.215,-0.175
3283,-0.165,-0.165
3284,-0.195,-0.165
3285,-0.195,-0.175
3286,-0.145,-0.165
3287,-0.155,-0.145
3288,-0.415,-0.115
3289,-0.435,0.045
3290,0.345,0.205
3291,1.645,0.145
3292,1.885,0.065
3293,0.365,-0.435
3294,-1.085,-1.405
3295,-1.365,-1.845
3296,-0.945,-1.665
3297,-0.445,-0.995
3298,-0.225,-0.355
3299,-0.165,-0.155
3300,-0.115,-0.065
3301,-0.095,-0.025
3302,-0.075,-0.015
3303,-0.045,-0.005
3304,-0.035,-0.015
3305,-0.015,0.005
3306,0.015,0.035
3307,0.075,0.045
3308,0.105,0.055
3309,0.125,0.085
3310,0.155,0.105
3311,0.205,0.125
3312,0.265,0.185
3313,0.335,0.255
3314,0.385,0.315
3315,0.445,0.365
3316,0.505,0.425
3317,0.535,0.475
3318,0.545,0.485
3319,0.545,0.475
3320,0.495,0.465
3321,0.425,0.405
3322,0.315,0.345
3323,0.225,0.255
3324,0.115,0.165
3325,0.055,0.065
3326,-0.015,0.005
3327,-0.095,-0.045
3328,-0.135,-0.105
3329,-0.135,-0.115
3330,-0.145,-0.125
3331,-0.165,-0.145
3332,-0.175,-0.145
3333,-0.145,-0.135
3334,-0.145,-0.115
3335,-0.155,-0.115
3336,-0.155,-0.125
3337,-0.165,-0.125
3338,-0.145,-0.105
3339,-0.135,-0.095
3340,-0.125,-0.065
3341,-0.125,-0.085
3342,-0.115,-0.115
3343,-0.115,-0.115
3344,-0.145,-0.115
3345,-0.145,-0.115
3346,-0.075,-0.075
3347,-0.035,-0.035
3348,-0.085,-0.015
3349,-0.045,-0.035
3350,0.045,0.055
3351,0.015,-0.015
3352,-0.035,-0.085
3353,-0.015,-0.125
3354,-0.015,-0.095
3355,-0.085,-0.095
3356,-0.225,-0.115
3357,-0.245,-0.195
3358,-0.285,-0.185
3359,-0.285,-0.215
3360,-0.305,-0.205
3361,-0.255,-0.185
3362,-0.255,-0.185
3363,-0.245,-0.175
3364,-0.275,-0.185
3365,-0.295,-0.165
3366,-0.305,-0.165
3367,-0.425,-0.145
3368,-0.555,-0.035
3369,-0.135,0.205
3370,1.185,0.215
3371,1.865,0.105
3372,0.435,-0.505
3373,-1.195,-1.665
3374,-1.485,-2.225
3375,-0.885,-1.815
3376,-0.525,-0.975
3377,-0.385,-0.305
3378,-0.225,-0.085
3379,-0.215,-0.005
3380,-0.155,0.045
3381,-0.175,0.085
3382,-0.185,0.095
3383,-0.105,0.105
3384,-0.115,0.135
3385,-0.115,0.125
3386,-0.085,0.175
3387,-0.055,0.185
3388,-0.025,0.215
3389,0.005,0.245
3390,0.025,0.305
3391,0.095,0.335
3392,0.195,0.405
3393,0.255,0.485
3394,0.305,0.585
3395,0.365,0.645
3396,0.425,0.675
3397,0.435,0.715
3398,0.395,0.715
3399,0.385,0.665
3400,0.335,0.605
3401,0.255,0.535
3402,0.115,0.435
3403,0.045,0.305
3404,-0.035,0.185
3405,-0.105,0.085
3406,-0.175,0.015
3407,-0.215,-0.025
3408,-0.265,-0.085
3409,-0.245,-0.085
3410,-0.265,-0.095
3411,-0.255,-0.105
3412,-0.275,-0.125
3413,-0.275,-0.115
3414,-0.275,-0.115
3415,-0.245,-0.095
3416,-0.235,-0.105
3417,-0.245,-0.085
3418,-0.235,-0.085
3419,-0.235,-0.085
3420,-0.235,-0.095
3421,-0.235,-0.095
3422,-0.265,-0.085
3423,-0.215,-0.095
3424,-0.225,-0.115
3425,-0.225,-0.115
3426,-0.195,-0.105
3427,-0.155,-0.095
3428,-0.135,-0.055
3429,-0.135,-0.025
3430,-0.065,-0.015
3431,-0.025,0.015
3432,-0.055,-0.045
3433,-0.085,-0.135
3434,-0.055,-0.145
3435,-0.115,-0.125
3436,-0.295,-0.155
3437,-0.325,-0.245
3438,-0.315,-0.225
3439,-0.325,-0.245
3440,-0.315,-0.255
3441,-0.315,-0.235
3442,-0.305,-0.245
3443,-0.315,-0.265
3444,-0.325,-0.245
3445,-0.315,-0.225
3446,-0.295,-0.225
3447,-0.335,-0.235
3448,-0.535,-0.205
3449,-0.485,-0.025
3450,0.255,0.095
3451,1.495,0.025
3452,1.335,-0.165
3453,-0.265,-1.255
3454,-1.105,-2.135
3455,-1.275,-2.225
3456,-0.685,-1.775
3457,-0.475,-0.945
3458,-0.355,-0.385
3459,-0.265,-0.195
3460,-0.205,-0.115
3461,-0.175,-0.065
3462,-0.155,-0.045
3463,-0.165,-0.035
3464,-0.175,-0.025
3465,-0.145,-0.005
3466,-0.095,0.005
3467,-0.095,0.035
3468,-0.055,0.045
3469,-0.035,0.075
3470,0.005,0.105
3471,0.025,0.165
3472,0.035,0.205
3473,0.145,0.275
3474,0.215,0.355
3475,0.275,0.425
3476,0.325,0.485
3477,0.385,0.535
3478,0.415,0.555
3479,0.415,0.555
3480,0.435,0.505
3481,0.385,0.455
3482,0.265,0.385
3483,0.175,0.275
3484,0.055,0.175
3485,0.005,0.075
3486,-0.055,-0.015
3487,-0.145,-0.085
3488,-0.195,-0.155
3489,-0.215,-0.185
3490,-0.225,-0.205
3491,-0.255,-0.215
3492,-0.235,-0.225
3493,-0.215,-0.205
3494,-0.245,-0.205
3495,-0.225,-0.205
3496,-0.225,-0.205
3497,-0.215,-0.215
3498,-0.195,-0.185
3499,-0.185,-0.195
3500,-0.215,-0.195
3501,-0.205,-0.195
3502,-0.205,-0.185
3503,-0.205,-0.195
3504,-0.185,-0.205
3505,-0.185,-0.205
3506,-0.185,-0.195
3507,-0.185,-0.205
3508,-0.145,-0.205
3509,-0.085,-0.165
3510,-0.065,-0.125
3511,-0.045,-0.125
3512,-0.005,-0.105
3513,0.005,-0.095
3514,-0.025,-0.155
3515,0.035,-0.185
3516,-0.025,-0.175
3517,-0.195,-0.195
3518,-0.225,-0.265
3519,-0.325,-0.255
3520,-0.305,-0.285
3521,-0.245,-0.275
3522,-0.225,-0.275
3523,-0.235,-0.285
3524,-0.295,-0.275
3525,-0.295,-0.265
3526,-0.255,-0.255
3527,-0.255,-0.245
3528,-0.195,-0.275
3529,-0.415,-0.225
3530,-0.565,-0.095
3531,-0.055,0.075
3532,1.225,0.045
3533,1.895,0.045
3534,0.685,-0.425
3535,-0.945,-1.605
3536,-1.315,-2.225
3537,-0.995,-1.845
3538,-0.515,-1.025
3539,-0.305,-0.345
3540,-0.255,-0.245
3541,-0.215,-0.195
3542,-0.155,-0.085
3543,-0.185,-0.095
3544,-0.175,-0.085
3545,-0.165,-0.045
3546,-0.115,-0.035
3547,-0.095,-0.005
3548,-0.085,0.005
3549,-0.085,0.025
3550,-0.035,0.045
3551,0.025,0.105
3552,0.065,0.125
3553,0.105,0.165
3554,0.165,0.225
3555,0.215,0.295
3556,0.295,0.345
3557,0.365,0.435
3558,0.425,0.475
3559,0.435,0.495
3560,0.445,0.505
3561,0.425,0.485
3562,0.375,0.445
3563,0.295,0.385
3564,0.195,0.265
3565,0.095,0.185
3566,-0.045,0.085
3567,-0.095,-0.005
3568,-0.175,-0.075
3569,-0.205,-0.125
3570,-0.225,-0.155
3571,-0.255,-0.175
3572,-0.255,-0.195
3573,-0.285,-0.195
3574,-0.295,-0.195
3575,-0.275,-0.195
3576,-0.275,-0.205
3577,-0.315,-0.175
3578,-0.255,-0.185
3579,-0.215,-0.175
3580,-0.225,-0.175
3581,-0.255,-0.165
3582,-0.275,-0.155
3583,-0.245,-0.165
3584,-0.205,-0.175
3585,-0.225,-0.175
3586,-0.265,-0.175
3587,-0.285,-0.205
3588,-0.255,-0.195
3589,-0.225,-0.175
3590,-0.215,-0.135
3591,-0.195,-0.135
3592,-0.155,-0.125
3593,-0.085,-0.065
3594,-0.045,-0.075
3595,-0.115,-0.085
3596,-0.055,-0.185
3597,-0.025,-0.175
3598,-0.165,-0.165
3599,-0.345,-0.215
3600,-0.345,-0.265
3601,-0.295,-0.255
3602,-0.285,-0.245
3603,-0.335,-0.275
3604,-0.315,-0.265
3605,-0.315,-0.255
3606,-0.315,-0.235
3607,-0.355,-0.215
3608,-0.325,-0.245
3609,-0.245,-0.115
3610,-0.355,-0.295
3611,-0.555,-0.175
3612,-0.245,0.035
3613,0.785,0.045
3614,1.755,-0.065
3615,0.945,-0.385
3616,-0.815,-1.375
3617,-1.375,-1.935
3618,-1.185,-1.815
3619,-0.655,-1.245
3620,-0.435,-0.595
3621,-0.335,-0.285
3622,-0.265,-0.145
3623,-0.225,-0.075
3624,-0.185,-0.045
3625,-0.175,-0.025
3626,-0.175,-0.015
3627,-0.155,-0.015
3628,-0.105,-0.005
3629,-0.075,0.015
3630,-0.075,0.035
3631,0.015,0.045
3632,0.075,0.095
3633,0.115,0.115
3634,0.165,0.165
3635,0.205,0.205
3636,0.275,0.265
3637,0.375,0.345
3638,0.445,0.395
3639,0.485,0.425
3640,0.485,0.445
3641,0.535,0.445
3642,0.485,0.425
3643,0.455,0.375
3644,0.325,0.325
3645,0.235,0.255
3646,0.115,0.185
3647,0.015,0.085
3648,-0.065,0.015
3649,-0.105,-0.035
3650,-0.115,-0.085
3651,-0.165,-0.095
3652,-0.205,-0.135
3653,-0.205,-0.135
3654,-0.215,-0.135
3655,-0.245,-0.145
3656,-0.225,-0.145
3657,-0.215,-0.125
3658,-0.185,-0.095
3659,-0.205,-0.055
3660,-0.175,-0.115
3661,-0.165,-0.105
3662,-0.165,-0.115
3663,-0.185,-0.115
3664,-0.175,-0.085
3665,-0.155,-0.065
3666,-0.155,-0.105
3667,-0.145,-0.115
3668,-0.165,-0.115
3669,-0.125,-0.085
3670,-0.085,-0.065
3671,-0.105,-0.015
3672,-0.055,-0.005
3673,0.035,0.015
3674,0.035,0.015
3675,-0.025,-0.075
3676,-0.025,-0.115
3677,-0.035,-0.095
3678,-0.175,-0.105
3679,-0.265,-0.175
3680,-0.265,-0.195
3681,-0.285,-0.185
3682,-0.265,-0.195
3683,-0.265,-0.205
3684,-0.305,-0.205
3685,-0.295,-0.195
3686,-0.245,-0.175
3687,-0.265,-0.175
3688,-0.305,-0.195
3689,-0.235,-0.185
3690,-0.445,-0.135
3691,-0.505,0.055
3692,0.275,0.155
3693,1.575,0.105
3694,1.665,0.005
3695,-0.225,-0.885
3696,-1.385,-1.785
3697,-1.425,-1.935
3698,-0.895,-1.495
3699,-0.505,-0.785
3700,-0.325,-0.285
3701,-0.265,-0.115
3702,-0.205,-0.025
3703,-0.105,-0.005
3704,-0.105,0.005
3705,-0.095,0.005
3706,-0.035,0.025
3707,-0.015,0.055
3708,-0.075,0.045
3709,-0.045,0.045
3710,0.025,0.085
3711,0.125,0.085
3712,0.105,0.155
3713,0.105,0.145
3714,0.175,0.175
3715,0.235,0.245
3716,0.305,0.325
3717,0.345,0.415
3718,0.445,0.425
3719,0.505,0.475
3720,0.565,0.455
3721,0.485,0.425
3722,0.415,0.445
3723,0.395,0.445
3724,0.275,0.315
3725,0.185,0.245
3726,0.095,0.185
3727,-0.005,0.105
3728,-0.065,0.045
3729,-0.145,-0.025
3730,-0.215,-0.015
3731,-0.205,-0.065
3732,-0.295,-0.145
3733,-0.255,-0.145
3734,-0.205,-0.105
3735,-0.195,-0.075
3736,-0.195,-0.105
3737,-0.215,-0.085
3738,-0.205,-0.115
3739,-0.185,-0.095
3740,-0.185,-0.075
3741,-0.215,-0.055
3742,-0.215,-0.055
3743,-0.175,-0.045
3744,-0.185,-0.045
3745,-0.175,-0.045
3746,-0.205,-0.045
3747,-0.195,-0.055
3748,-0.165,-0.025
3749,-0.045,-0.025
3750,-0.125,-0.015
3751,-0.135,0.025
3752,-0.015,0.025
3753,0.015,0.065
3754,-0.025,0.055
3755,-0.075,-0.045
3756,-0.005,-0.075
3757,-0.055,-0.055
3758,-0.225,-0.095
3759,-0.245,-0.155
3760,-0.345,-0.145
3761,-0.295,-0.175
3762,-0.265,-0.155
3763,-0.275,-0.175
3764,-0.285,-0.175
3765,-0.265,-0.165
3766,-0.275,-0.145
3767,-0.265,-0.145
3768,-0.255,-0.155
3769,-0.265,-0.155
3770,-0.465,-0.075
3771,-0.495,0.075
3772,0.235,0.185
3773,1.615,0.105
3774,1.555,-0.105
3775,-0.255,-0.985
3776,-1.375,-1.745
3777,-1.465,-1.905
3778,-0.955,-1.525
3779,-0.555,-0.825
3780,-0.335,-0.295
3781,-0.185,-0.115
3782,-0.165,-0.035
3783,-0.115,0.005
3784,-0.115,-0.005
3785,-0.055,0.005
3786,-0.045,0.035
3787,-0.015,0.035
3788,0.015,0.035
3789,0.035,0.055
3790,0.075,0.075
3791,0.055,0.085
3792,0.125,0.105
3793,0.215,0.155
3794,0.215,0.215
3795,0.315,0.255
3796,0.385,0.315
3797,0.475,0.365
3798,0.535,0.415
3799,0.565,0.425
3800,0.565,0.425
3801,0.605,0.405
3802,0.555,0.375
3803,0.485,0.305
3804,0.385,0.225
3805,0.225,0.155
3806,0.125,0.085
3807,0.115,0.015
3808,0.035,-0.045
3809,-0.045,-0.095
3810,-0.075,-0.125
3811,-0.085,-0.125
3812,-0.105,-0.145
3813,-0.105,-0.175
3814,-0.155,-0.165
3815,-0.125,-0.155
3816,-0.135,-0.165
3817,-0.165,-0.155
3818,-0.115,-0.155
3819,-0.075,-0.155
3820,-0.085,-0.145
3821,-0.095,-0.135
3822,-0.115,-0.135
3823,-0.105,-0.135
3824,-0.115,-0.135
3825,-0.065,-0.135
3826,-0.045,-0.115
3827,0.005,-0.115
3828,0.015,-0.085
3829,0.015,-0.055
3830,0.015,-0.015
3831,0.135,-0.005
3832,0.145,-0.005
3833,0.075,-0.045
3834,0.065,-0.145
3835,0.085,-0.125
3836,0.045,-0.135
3837,-0.145,-0.165
3838,-0.185,-0.215
3839,-0.165,-0.215
3840,-0.175,-0.235
3841,-0.185,-0.235
3842,-0.215,-0.215
3843,-0.165,-0.225
3844,-0.195,-0.225
3845,-0.175,-0.205
3846,-0.145,-0.205
3847,-0.115,-0.205
3848,-0.275,-0.185
3849,-0.505,-0.065
3850,-0.015,0.165
3851,1.225,0.155
3852,2.135,0.065
3853,1.265,-0.235
3854,-0.825,-1.165
3855,-1.525,-1.785
3856,-1.265,-1.715
3857,-0.595,-1.135
3858,-0.365,-0.445
3859,-0.235,-0.205
3860,-0.105,-0.115
3861,-0.085,-0.065
3862,-0.075,-0.045
3863,-0.085,-0.045
3864,-0.035,-0.045
3865,0.025,-0.025
3866,0.005,0.035
3867,0.015,-0.005
3868,0.065,0.005
3869,0.115,0.025
3870,0.125,0.075
3871,0.155,0.115
3872,0.225,0.175
3873,0.295,0.165
3874,0.365,0.235
3875,0.495,0.295
3876,0.545,0.385
3877,0.605,0.465
3878,0.625,0.455
3879,0.615,0.475
3880,0.595,0.405
3881,0.565,0.345
3882,0.455,0.315
3883,0.315,0.225
3884,0.205,0.135
3885,0.115,0.065
3886,0.015,-0.015
3887,-0.025,-0.065
3888,-0.085,-0.105
3889,-0.105,-0.115
3890,-0.155,-0.145
3891,-0.165,-0.155
3892,-0.155,-0.165
3893,-0.145,-0.155
3894,-0.125,-0.145
3895,-0.135,-0.155
3896,-0.145,-0.155
3897,-0.155,-0.135
3898,-0.115,-0.135
3899,-0.125,-0.125
3900,-0.145,-0.125
3901,-0.145,-0.125
3902,-0.115,-0.115
3903,-0.115,-0.115
3904,-0.125,-0.115
3905,-0.095,-0.115
3906,-0.055,-0.105
3907,-0.045,-0.075
3908,-0.005,-0.055
3909,0.035,-0.015
3910,0.105,0.005
3911,0.115,0.025
3912,0.055,-0.035
3913,0.075,-0.135
3914,0.105,-0.115
3915,-0.045,-0.135
3916,-0.205,-0.205
3917,-0.245,-0.225
3918,-0.255,-0.225
3919,-0.205,-0.255
3920,-0.185,-0.245
3921,-0.205,-0.225
3922,-0.225,-0.235
3923,-0.225,-0.235
3924,-0.255,-0.245
3925,-0.195,-0.245
3926,-0.185,-0.235
3927,-0.355,-0.215
3928,-0.535,-0.095
3929,-0.005,0.115
3930,1.335,0.095
3931,1.985,-0.095
3932,0.655,-0.705
3933,-1.155,-1.565
3934,-1.545,-2.005
3935,-0.965,-1.655
3936,-0.465,-0.915
3937,-0.285,-0.335
3938,-0.155,-0.155
3939,-0.085,-0.085
3940,-0.085,-0.065
3941,-0.055,-0.045
3942,-0.025,-0.025
3943,-0.035,-0.015
3944,-0.045,-0.005
3945,-0.045,0.015
3946,-0.045,0.025
3947,-0.075,0.045
3948,0.025,0.045
3949,0.105,0.105
3950,0.145,0.135
3951,0.165,0.175
3952,0.205,0.225
3953,0.255,0.325
3954,0.315,0.375
3955,0.375,0.435
3956,0.475,0.475
3957,0.495,0.525
3958,0.475,0.545
3959,0.475,0.505
3960,0.385,0.465
3961,0.345,0.425
3962,0.245,0.345
3963,0.165,0.235
3964,0.085,0.135
3965,0.015,0.055
3966,-0.055,-0.015
3967,-0.105,-0.065
3968,-0.165,-0.105
3969,-0.185,-0.125
3970,-0.215,-0.135
3971,-0.205,-0.165
3972,-0.195,-0.155
3973,-0.195,-0.145
3974,-0.225,-0.135
3975,-0.185,-0.135
3976,-0.175,-0.135
3977,-0.175,-0.125
3978,-0.205,-0.115
3979,-0.185,-0.125
3980,-0.195,-0.115
3981,-0.165,-0.115
3982,-0.175,-0.125
3983,-0.165,-0.105
3984,-0.085,-0.075
3985,-0.065,-0.045
3986,-0.035,-0.005
3987,0.005,-0.005
3988,0.045,0.015
3989,0.005,0.005
3990,-0.025,-0.075
3991,0.035,-0.125
3992,-0.035,-0.115
3993,-0.235,-0.145
3994,-0.245,-0.215
3995,-0.275,-0.215
3996,-0.275,-0.235
3997,-0.285,-0.245
3998,-0.245,-0.235
3999,-0.295,-0.235
4000,-0.305,-0.255
4001,-0.315,-0.255
4002,-0.255,-0.235
4003,-0.265,-0.245
4004,-0.295,-0.245
4005,-0.485,-0.215
4006,-0.425,-0.015
4007,0.445,0.155
4008,1.785,0.085
4009,1.855,-0.135
4010,-0.115,-0.975
4011,-1.405,-1.725
4012,-1.535,-1.905
4013,-0.855,-1.445
4014,-0.415,-0.695
4015,-0.275,-0.295
4016,-0.215,-0.185
4017,-0.155,-0.115
4018,-0.115,-0.085
4019,-0.105,-0.075
4020,-0.105,-0.055
4021,-0.075,-0.045
4022,-0.045,-0.035
4023,-0.015,-0.015
4024,0.005,-0.005
4025,0.045,0.045
4026,0.085,0.075
4027,0.095,0.095
4028,0.155,0.125
4029,0.215,0.185
4030,0.285,0.255
4031,0.375,0.335
4032,0.455,0.385
4033,0.495,0.455
4034,0.545,0.485
4035,0.585,0.485
4036,0.585,0.465
4037,0.555,0.425
4038,0.475,0.385
4039,0.345,0.295
4040,0.215,0.195
4041,0.115,0.095
4042,0.025,0.015
4043,-0.025,-0.045
4044,-0.085,-0.085
4045,-0.135,-0.115
4046,-0.115,-0.135
4047,-0.165,-0.145
4048,-0.185,-0.175
4049,-0.145,-0.155
4050,-0.145,-0.135
4051,-0.175,-0.135
4052,-0.115,-0.135
4053,-0.085,-0.105
4054,-0.085,-0.095
4055,-0.085,-0.105
4056,-0.105,-0.105
4057,-0.085,-0.085
4058,-0.085,-0.085
4059,-0.065,-0.085
4060,-0.075,-0.105
4061,-0.105,-0.095
4062,-0.105,-0.085
4063,-0.005,-0.065
4064,0.045,-0.025
4065,0.025,0.005
4066,0.055,0.025
4067,0.095,0.025
4068,0.085,0.005
4069,0.105,-0.075
4070,0.125,-0.075
4071,0.035,-0.065
4072,-0.195,-0.115
4073,-0.205,-0.205
4074,-0.235,-0.175
4075,-0.245,-0.195
4076,-0.265,-0.215
4077,-0.245,-0.205
4078,-0.225,-0.185
4079,-0.215,-0.195
4080,-0.225,-0.205
4081,-0.205,-0.195
4082,-0.205,-0.185
4083,-0.245,-0.185
4084,-0.465,-0.125
4085,-0.365,0.085
4086,0.365,0.195
4087,1.665,0.135
4088,1.845,-0.135
4089,-0.005,-1.045
4090,-1.455,-1.815
4091,-1.525,-1.965
4092,-0.755,-1.465
4093,-0.375,-0.605
4094,-0.245,-0.205
4095,-0.165,-0.095
4096,-0.145,-0.035
4097,-0.115,0.015
4098,-0.055,0.025
4099,-0.045,0.035
4100,-0.045,0.045
4101,-0.025,0.065
4102,0.005,0.075
4103,0.015,0.085
4104,0.055,0.105
4105,0.085,0.145
4106,0.115,0.185
4107,0.175,0.225
4108,0.235,0.265
4109,0.265,0.335
4110,0.365,0.405
4111,0.455,0.475
4112,0.445,0.525
4113,0.465,0.565
4114,0.515,0.595
4115,0.515,0.575
4116,0.515,0.535
4117,0.455,0.465
4118,0.315,0.385
4119,0.215,0.275
4120,0.135,0.165
4121,0.005,0.085
4122,-0.055,0.005
4123,-0.055,-0.045
4124,-0.085,-0.085
4125,-0.095,-0.095
4126,-0.125,-0.115
4127,-0.125,-0.125
4128,-0.135,-0.135
4129,-0.145,-0.125
4130,-0.125,-0.125
4131,-0.145,-0.125
4132,-0.115,-0.105
4133,-0.145,-0.105
4134,-0.135,-0.105
4135,-0.135,-0.105
4136,-0.125,-0.095
4137,-0.095,-0.085
4138,-0.105,-0.095
4139,-0.105,-0.095
4140,-0.125,-0.115
4141,-0.085,-0.095
4142,-0.045,-0.065
4143,0.035,-0.015
4144,0.045,0.005
4145,0.065,0.025
4146,0.135,0.025
4147,0.125,0.055
4148,0.115,-0.025
4149,0.165,-0.055
4150,0.115,-0.055
4151,-0.135,-0.085
4152,-0.185,-0.175
4153,-0.175,-0.165
4154,-0.185,-0.175
4155,-0.255,-0.195
4156,-0.265,-0.195
4157,-0.345,-0.195
4158,-0.485,-0.205
4159,-0.395,-0.215
4160,-0.405,-0.215
4161,-0.395,-0.205
4162,-0.215,-0.205
4163,-0.445,-0.225
4164,-0.565,-0.075
4165,-0.025,0.145
4166,1.465,0.065
4167,1.825,-0.165
4168,0.035,-1.195
4169,-1.365,-1.965
4170,-1.405,-2.125
4171,-0.635,-1.605
4172,-0.345,-0.665
4173,-0.245,-0.255
4174,-0.165,-0.105
4175,-0.125,-0.045
4176,-0.155,-0.025
4177,-0.095,0.025
4178,-0.085,0.045
4179,-0.085,0.055
4180,-0.095,0.065
4181,-0.095,0.105
4182,-0.075,0.125
4183,-0.045,0.155
4184,-0.025,0.185
4185,0.005,0.245
4186,0.035,0.315
4187,0.105,0.365
4188,0.075,0.425
4189,0.075,0.525
4190,0.155,0.595
4191,0.155,0.675
4192,0.165,0.685
4193,0.305,0.695
4194,0.325,0.685
4195,0.355,0.665
4196,0.125,0.565
4197,0.355,0.495
4198,0.135,0.425
4199,0.075,0.325
4200,0.065,0.225
4201,0.005,0.135
4202,0.095,0.065
4203,0.075,0.005
4204,0.005,-0.045
4205,-0.045,-0.045
4206,-0.065,-0.075
4207,-0.075,-0.055
4208,-0.085,-0.055
4209,-0.095,-0.035
4210,-0.065,-0.025
4211,-0.065,-0.025
4212,-0.095,-0.035
4213,-0.135,-0.015
4214,-0.105,-0.005
4215,-0.105,-0.005
4216,-0.105,-0.005
4217,-0.075,-0.015
4218,-0.115,-0.015
4219,-0.085,-0.005
4220,-0.055,-0.015
4221,0.005,0.015
4222,0.045,0.045
4223,0.065,0.095
4224,0.135,0.085
4225,0.195,0.135
4226,0.175,0.105
4227,0.165,0.055
4228,0.115,0.005
4229,0.105,0.005
4230,-0.045,-0.025
4231,-0.145,-0.085
4232,-0.195,-0.075
4233,-0.215,-0.125
4234,-0.365,-0.105
4235,-0.215,-0.125
4236,-0.205,-0.115
4237,-0.225,-0.115
4238,-0.085,-0.115
4239,-0.195,-0.115
4240,-0.145,-0.145
4241,-0.105,-0.135
4242,-0.345,-0.075
4243,-0.385,0.055
4244,0.215,0.145
4245,1.435,0.195
4246,1.475,0.025
4247,-0.035,-1.215
4248,-0.895,-2.085
4249,-0.915,-2.175
4250,-0.425,-1.725
4251,-0.205,-0.855
4252,-0.165,-0.275
4253,-0.165,-0.065
4254,-0.105,0.065
4255,-0.075,0.105
4256,-0.115,0.115
4257,-0.055,0.155
4258,-0.055,0.165
4259,-0.015,0.195
4260,-0.005,0.185
4261,-0.025,0.205
4262,0.045,0.245
4263,0.055,0.275
4264,0.095,0.285
4265,0.115,0.335
4266,0.135,0.395
4267,0.155,0.455
4268,0.245,0.525
4269,0.335,0.615
4270,0.375,0.695
4271,0.385,0.735
4272,0.385,0.745
4273,0.395,0.745
4274,0.415,0.705
4275,0.345,0.655
4276,0.255,0.545
4277,0.205,0.425
4278,0.145,0.315
4279,0.025,0.185
4280,-0.035,0.085
4281,-0.075,0.025
4282,-0.105,-0.015
4283,-0.125,-0.045
4284,-0.145,-0.085
4285,-0.135,-0.085
4286,-0.155,-0.085
4287,-0.115,-0.085
4288,-0.135,-0.095
4289,-0.155,-0.085
4290,-0.185,-0.085
4291,-0.105,-0.075
4292,-0.085,-0.085
4293,-0.155,-0.075
4294,-0.185,-0.085
4295,-0.125,-0.085
4296,-0.125,-0.095
4297,-0.105,-0.085
4298,-0.095,-0.085
4299,-0.045,-0.075
4300,-0.015,-0.035
4301,0.045,-0.005
4302,0.095,0.025
4303,0.135,0.025
4304,0.095,-0.025
4305,0.075,-0.095
4306,0.065,-0.075
4307,-0.095,-0.105
4308,-0.195,-0.175
4309,-0.185,-0.165
4310,-0.205,-0.185
4311,-0.245,-0.225
4312,-0.275,-0.225
4313,-0.245,-0.225
4314,-0.255,-0.225
4315,-0.265,-0.215
4316,-0.265,-0.235
4317,-0.275,-0.225
4318,-0.225,-0.225
4319,-0.385,-0.205
4320,-0.525,-0.125
4321,-0.135,0.035
4322,0.945,0.045
4323,1.405,-0.015
4324,0.225,-0.985
4325,-0.755,-1.985
4326,-0.945,-2.265
4327,-0.685,-1.995
4328,-0.315,-1.375
4329,-0.205,-0.605
4330,-0.175,-0.255
4331,-0.155,-0.095
4332,-0.135,-0.015
4333,-0.115,0.025
4334,-0.105,0.055
4335,-0.085,0.065
4336,-0.065,0.065
4337,-0.035,0.105
4338,-0.035,0.135
4339,0.015,0.145
4340,0.025,0.175
4341,0.025,0.215
4342,0.075,0.245
4343,0.175,0.295
4344,0.195,0.345
4345,0.255,0.435
4346,0.305,0.525
4347,0.355,0.585
4348,0.415,0.635
4349,0.405,0.655
4350,0.415,0.665
4351,0.415,0.625
4352,0.365,0.575
4353,0.345,0.495
4354,0.275,0.415
4355,0.185,0.305
4356,0.105,0.185
4357,0.055,0.095
4358,-0.035,0.025
4359,-0.085,-0.045
4360,-0.085,-0.085
4361,-0.075,-0.095
4362,-0.045,-0.105
4363,-0.025,-0.105
4364,-0.075,-0.095
4365,-0.075,-0.095
4366,-0.095,-0.095
4367,-0.055,-0.095
4368,-0.075,-0.105
4369,-0.065,-0.095
4370,-0.095,-0.095
4371,-0.125,-0.115
4372,-0.105,-0.125
4373,-0.065,-0.115
4374,-0.065,-0.105
4375,-0.045,-0.105
4376,-0.015,-0.075
4377,0.035,-0.045
4378,0.105,-0.015
4379,0.135,-0.005
4380,0.095,-0.035
4381,0.065,-0.125
4382,0.075,-0.135
4383,0.035,-0.105
4384,-0.135,-0.145
4385,-0.195,-0.215
4386,-0.225,-0.185
4387,-0.245,-0.225
4388,-0.225,-0.245
4389,-0.225,-0.225
4390,-0.215,-0.225
4391,-0.255,-0.235
4392,-0.285,-0.245
4393,-0.265,-0.245
4394,-0.205,-0.235
4395,-0.285,-0.225
4396,-0.575,-0.165
4397,-0.435,-0.005
4398,0.505,0.035
4399,1.605,0.055
4400,0.995,-0.195
4401,-0.475,-1.445
4402,-1.035,-2.135
4403,-0.965,-2.015
4404,-0.505,-1.465
4405,-0.315,-0.705
4406,-0.185,-0.305
4407,-0.155,-0.135
4408,-0.155,-0.065
4409,-0.155,-0.035
4410,-0.105,-0.015
4411,-0.095,-0.015
4412,-0.075,-0.005
4413,-0.055,0.005
4414,-0.025,0.025
4415,-0.005,0.045
4416,0.015,0.045
4417,0.035,0.085
4418,0.075,0.125
4419,0.135,0.175
4420,0.195,0.225
4421,0.255,0.285
4422,0.295,0.345
4423,0.325,0.405
4424,0.375,0.435
4425,0.405,0.465
4426,0.405,0.465
4427,0.375,0.435
4428,0.365,0.385
4429,0.305,0.325
4430,0.205,0.255
4431,0.095,0.155
4432,0.015,0.065
4433,-0.045,-0.005
4434,-0.075,-0.065
4435,-0.105,-0.105
4436,-0.145,-0.145
4437,-0.145,-0.155
4438,-0.145,-0.165
4439,-0.175,-0.165
4440,-0.185,-0.165
4441,-0.155,-0.165
4442,-0.135,-0.155
4443,-0.145,-0.155
4444,-0.175,-0.155
4445,-0.145,-0.145
4446,-0.125,-0.135
4447,-0.125,-0.145
4448,-0.145,-0.145
4449,-0.165,-0.125
4450,-0.095,-0.125
4451,-0.045,-0.105
4452,-0.035,-0.085
4453,-0.035,-0.045
4454,0.095,-0.035
4455,0.135,-0.025
4456,0.015,-0.075
4457,0.025,-0.155
4458,0.035,-0.135
4459,-0.055,-0.135
4460,-0.225,-0.185
4461,-0.165,-0.245
4462,-0.205,-0.225
4463,-0.255,-0.225
4464,-0.265,-0.225
4465,-0.205,-0.235
4466,-0.225,-0.225
4467,-0.235,-0.235
4468,-0.215,-0.225
4469,-0.115,-0.205
4470,-0.255,-0.185
4471,-0.335,-0.175
4472,-0.495,-0.075
4473,-0.155,0.135
4474,1.215,0.115
4475,1.625,-0.005
4476,0.285,-0.675
4477,-0.795,-1.795
4478,-1.195,-2.185
4479,-0.915,-1.845
4480,-0.465,-1.125
4481,-0.325,-0.455
4482,-0.255,-0.165
4483,-0.195,-0.055
4484,-0.215,-0.005
4485,-0.155,0.015
4486,-0.175,0.025
4487,-0.125,0.045
4488,-0.165,0.055
4489,-0.125,0.075
4490,-0.005,0.105
4491,-0.065,0.135
4492,-0.075,0.155
4493,-0.035,0.185
4494,0.075,0.225
4495,0.115,0.265
4496,0.145,0.315
4497,0.215,0.395
4498,0.295,0.455
4499,0.465,0.505
4500,0.345,0.535
4501,0.315,0.605
4502,0.335,0.605
4503,0.325,0.565
4504,0.295,0.535
4505,0.295,0.445
4506,0.195,0.375
4507,0.065,0.315
4508,-0.045,0.175
4509,-0.055,0.065
4510,-0.115,0.005
4511,-0.155,-0.055
4512,0.055,-0.115
4513,-0.305,-0.125
4514,-0.385,-0.085
4515,-0.155,-0.115
4516,-0.215,-0.125
4517,-0.235,-0.105
4518,-0.235,-0.105
4519,-0.215,-0.105
4520,-0.195,-0.115
4521,0.025,-0.125
4522,-0.135,-0.125
4523,-0.305,-0.105
4524,0.025,-0.115
4525,-0.235,-0.115
4526,-0.175,-0.055
4527,-0.115,-0.035
4528,-0.165,-0.005
4529,-0.095,-0.005
4530,0.175,-0.015
4531,0.035,-0.025
4532,0.055,-0.115
4533,-0.095,-0.115
4534,-0.085,-0.055
4535,-0.175,-0.115
4536,-0.195,-0.175
4537,-0.295,-0.175
4538,-0.275,-0.185
4539,-0.285,-0.205
4540,-0.255,-0.205
4541,-0.245,-0.195
4542,-0.335,-0.155
4543,-0.275,-0.175
4544,-0.285,-0.175
4545,-0.315,-0.175
4546,-0.375,-0.175
4547,-0.615,-0.075
4548,-0.415,0.075
4549,0.475,0.095
4550,1.555,0.205
4551,1.335,0.255
4552,-0.245,-0.805
4553,-0.995,-2.015
4554,-1.065,-2.135
4555,-0.605,-1.595
4556,-0.445,-0.785
4557,-0.365,-0.315
4558,-0.305,-0.145
4559,-0.285,-0.045
4560,-0.305,-0.015
4561,-0.205,0.025
4562,-0.165,0.025
4563,-0.305,0.045
4564,-0.255,0.065
4565,-0.135,0.085
4566,-0.115,0.105
4567,-0.095,0.105
4568,-0.135,0.135
4569,-0.025,0.175
4570,0.015,0.225
4571,0.265,0.265
4572,0.135,0.305
4573,0.035,0.415
4574,0.185,0.495
4575,0.315,0.545
4576,0.295,0.585
4577,0.335,0.585
4578,0.365,0.565
4579,0.365,0.505
4580,0.245,0.445
4581,0.145,0.355
4582,0.095,0.245
4583,0.025,0.115
4584,-0.105,0.025
4585,-0.205,-0.025
4586,-0.185,-0.075
4587,-0.195,-0.115
4588,-0.235,-0.135
4589,-0.155,-0.145
4590,-0.195,-0.135
4591,-0.245,-0.155
4592,-0.235,-0.155
4593,-0.275,-0.135
4594,-0.195,-0.145
4595,-0.195,-0.145
4596,-0.165,-0.125
4597,-0.205,-0.125
4598,-0.255,-0.115
4599,-0.185,-0.135
4600,-0.185,-0.145
4601,-0.165,-0.125
4602,-0.105,-0.115
4603,-0.115,-0.085
4604,-0.065,-0.075
4605,-0.045,-0.055
4606,-0.035,-0.035
4607,-0.095,-0.085
4608,0.015,-0.185
4609,-0.005,-0.145
4610,-0.025,-0.155
4611,-0.225,-0.175
4612,-0.305,-0.255
4613,-0.225,-0.235
4614,-0.245,-0.245
4615,-0.285,-0.245
4616,-0.305,-0.235
4617,-0.315,-0.225
4618,-0.205,-0.215
4619,-0.275,-0.225
4620,-0.295,-0.215
4621,-0.285,-0.195
4622,-0.435,-0.165
4623,-0.625,-0.075
4624,-0.215,0.095
4625,0.975,0.095
4626,1.735,0.135
4627,0.725,-0.325
4628,-0.655,-1.565
4629,-1.125,-2.115
4630,-0.945,-1.895
4631,-0.515,-1.275
4632,-0.295,-0.545
4633,-0.165,-0.185
4634,-0.185,-0.035
4635,-0.165,-0.005
4636,-0.175,0.025
4637,-0.165,0.025
4638,-0.145,0.015
4639,-0.105,0.025
4640,-0.155,0.035
4641,-0.065,0.035
4642,-0.055,0.065
4643,-0.015,0.095
4644,0.025,0.125
4645,0.075,0.165
4646,0.105,0.215
4647,0.145,0.245
4648,0.225,0.305
4649,0.305,0.395
4650,0.365,0.435
4651,0.385,0.455
4652,0.405,0.445
4653,0.375,0.465
4654,0.385,0.435
4655,0.315,0.375
4656,0.245,0.305
4657,0.165,0.245
4658,0.035,0.155
4659,-0.045,0.055
4660,-0.095,-0.015
4661,-0.085,-0.065
4662,-0.125,-0.095
4663,-0.165,-0.135
4664,-0.195,-0.145
4665,-0.185,-0.155
4666,-0.165,-0.165
4667,-0.135,-0.155
4668,-0.175,-0.145
4669,-0.165,-0.145
4670,-0.145,-0.125
4671,-0.145,-0.125
4672,-0.135,-0.125
4673,-0.145,-0.115
4674,-0.125,-0.105
4675,-0.165,-0.105
4676,-0.125,-0.115
4677,-0.095,-0.095
4678,-0.075,-0.065
4679,-0.045,-0.065
4680,0.065,-0.055
4681,0.045,-0.025
4682,0.085,-0.045
4683,0.065,-0.155
4684,0.015,-0.135
4685,0.005,-0.145
4686,-0.195,-0.165
4687,-0.195,-0.215
4688,-0.205,-0.225
4689,-0.195,-0.235
4690,-0.195,-0.225
4691,-0.235,-0.225
4692,-0.245,-0.225
4693,-0.195,-0.215
4694,-0.215,-0.205
4695,-0.165,-0.205
4696,-0.155,-0.195
4697,-0.285,-0.185
4698,-0.545,-0.125
4699,-0.305,0.035
4700,0.825,0.075
4701,1.795,0.315
4702,0.775,0.115
4703,-0.545,-1.345
4704,-0.935,-2.285
4705,-0.725,-1.905
4706,-0.275,-1.185
4707,-0.155,-0.425
4708,-0.105,-0.165
4709,-0.085,-0.055
4710,-0.055,0.005
4711,-0.055,0.025
4712,-0.065,0.025
4713,-0.035,0.025
4714,-0.035,0.065
4715,-0.035,0.065
4716,0.005,0.075
4717,0.045,0.095
4718,0.065,0.125
4719,0.075,0.145
4720,0.105,0.175
4721,0.175,0.235
4722,0.235,0.295
4723,0.295,0.355
4724,0.325,0.405
4725,0.385,0.465
4726,0.445,0.515
4727,0.445,0.525
4728,0.435,0.505
4729,0.435,0.485
4730,0.395,0.455
4731,0.315,0.395
4732,0.245,0.305
4733,0.145,0.215
4734,0.065,0.115
4735,0.005,0.015
4736,-0.045,-0.055
4737,-0.085,-0.105
4738,-0.115,-0.135
4739,-0.165,-0.165
4740,-0.185,-0.185
4741,-0.195,-0.195
4742,-0.185,-0.185
4743,-0.165,-0.175
4744,-0.165,-0.175
4745,-0.175,-0.165
4746,-0.185,-0.155
4747,-0.185,-0.165
4748,-0.245,-0.175
4749,-0.195,-0.165
4750,-0.145,-0.145
4751,-0.145,-0.135
4752,-0.115,-0.145
4753,-0.055,-0.085
4754,-0.065,-0.055
4755,-0.045,-0.065
4756,-0.015,-0.055
4757,-0.045,-0.055
4758,-0.085,-0.165
4759,-0.045,-0.205
4760,-0.085,-0.175
4761,-0.205,-0.195
4762,-0.315,-0.245
4763,-0.325,-0.245
4764,-0.325,-0.285
4765,-0.305,-0.285
4766,-0.295,-0.275
4767,-0.305,-0.265
4768,-0.325,-0.265
4769,-0.295,-0.255
4770,-0.295,-0.245
4771,-0.275,-0.245
4772,-0.375,-0.245
4773,-0.595,-0.165
4774,-0.335,0.035
4775,0.775,0.065
4776,1.755,-0.025
4777,0.815,-0.395
4778,-0.765,-1.475
4779,-1.325,-2.035
4780,-1.215,-1.975
4781,-0.645,-1.485
4782,-0.385,-0.725
4783,-0.255,-0.295
4784,-0.175,-0.145
4785,-0.175,-0.085
4786,-0.165,-0.065
4787,-0.155,-0.055
4788,-0.115,-0.065
4789,-0.055,-0.035
4790,-0.055,-0.015
4791,-0.065,-0.005
4792,-0.065,-0.015
4793,-0.025,0.005
4794,-0.015,0.035
4795,0.035,0.065
4796,0.065,0.105
4797,0.125,0.155
4798,0.215,0.225
4799,0.255,0.275
4800,0.325,0.335
4801,0.385,0.385
4802,0.445,0.415
4803,0.485,0.425
4804,0.435,0.405
4805,0.405,0.385
4806,0.335,0.335
4807,0.195,0.265
4808,0.085,0.175
4809,0.025,0.105
4810,-0.015,0.035
4811,-0.105,-0.035
4812,-0.185,-0.095
4813,-0.175,-0.115
4814,-0.225,-0.145
4815,-0.225,-0.155
4816,-0.225,-0.165
4817,-0.225,-0.155
4818,-0.245,-0.145
4819,-0.235,-0.145
4820,-0.195,-0.135
4821,-0.215,-0.115
4822,-0.175,-0.105
4823,-0.135,-0.095
4824,-0.185,-0.095
4825,-0.165,-0.095
4826,-0.125,-0.075
4827,-0.085,-0.065
4828,-0.075,-0.035
4829,-0.065,-0.005
4830,-0.025,0.015
4831,0.075,0.035
4832,0.035,0.015
4833,-0.035,-0.075
4834,-0.035,-0.115
4835,-0.015,-0.085
4836,-0.115,-0.115
4837,-0.185,-0.155
4838,-0.235,-0.175
4839,-0.265,-0.205
4840,-0.265,-0.215
4841,-0.275,-0.205
4842,-0.295,-0.195
4843,-0.285,-0.185
4844,-0.235,-0.175
4845,-0.285,-0.175
4846,-0.245,-0.175
4847,-0.315,-0.165
4848,-0.615,-0.115
4849,-0.485,0.075
4850,0.445,0.175
4851,1.695,0.185
4852,1.505,0.145
4853,-0.225,-0.825
4854,-1.125,-1.885
4855,-1.185,-2.045
4856,-0.755,-1.545
4857,-0.425,-0.845
4858,-0.285,-0.285
4859,-0.215,-0.105
4860,-0.195,-0.025
4861,-0.195,0.005
4862,-0.175,0.025
4863,-0.165,0.025
4864,-0.145,0.035
4865,-0.105,0.035
4866,-0.115,0.055
4867,-0.075,0.065
4868,-0.065,0.095
4869,-0.025,0.115
4870,0.015,0.145
4871,0.065,0.175
4872,0.125,0.235
4873,0.195,0.295
4874,0.285,0.365
4875,0.325,0.455
4876,0.385,0.495
4877,0.445,0.525
4878,0.445,0.535
4879,0.435,0.505
4880,0.355,0.445
4881,0.305,0.375
4882,0.215,0.305
4883,0.095,0.195
4884,0.005,0.105
4885,-0.085,0.045
4886,-0.125,-0.025
4887,-0.105,-0.065
4888,-0.145,-0.115
4889,-0.185,-0.135
4890,-0.215,-0.155
4891,-0.235,-0.165
4892,-0.265,-0.185
4893,-0.225,-0.175
4894,-0.195,-0.165
4895,-0.205,-0.165
4896,-0.255,-0.165
4897,-0.195,-0.155
4898,-0.175,-0.145
4899,-0.215,-0.135
4900,-0.195,-0.145
4901,-0.205,-0.135
4902,-0.185,-0.135
4903,-0.105,-0.115
4904,-0.085,-0.095
4905,-0.065,-0.055
4906,-0.045,-0.025
4907,-0.005,-0.025
4908,0.025,-0.015
4909,-0.025,-0.075
4910,0.005,-0.165
4911,-0.015,-0.145
4912,-0.125,-0.155
4913,-0.225,-0.185
4914,-0.235,-0.235
4915,-0.285,-0.235
4916,-0.265,-0.265
4917,-0.245,-0.255
4918,-0.255,-0.245
4919,-0.295,-0.235
4920,-0.275,-0.245
4921,-0.245,-0.225
4922,-0.235,-0.215
4923,-0.225,-0.215
4924,-0.335,-0.215
4925,-0.565,-0.125
4926,-0.165,0.105
4927,0.985,0.095
4928,1.725,-0.025
4929,0.805,-0.455
4930,-0.745,-1.555
4931,-1.255,-2.075
4932,-1.055,-1.945
4933,-0.495,-1.365
4934,-0.305,-0.565
4935,-0.215,-0.215
4936,-0.155,-0.095
4937,-0.125,-0.025
4938,-0.115,0.015
4939,-0.095,0.015
4940,-0.125,0.015
4941,-0.095,0.025
4942,-0.075,0.055
4943,-0.055,0.065
4944,-0.035,0.075
4945,0.005,0.085
4946,0.045,0.125
4947,0.085,0.165
4948,0.095,0.205
4949,0.185,0.275
4950,0.315,0.355
4951,0.375,0.425
4952,0.425,0.475
4953,0.485,0.525
4954,0.485,0.545
4955,0.485,0.535
4956,0.445,0.515
4957,0.405,0.475
4958,0.335,0.415
4959,0.215,0.325
4960,0.065,0.225
4961,0.015,0.125
4962,-0.055,0.045
4963,-0.105,-0.025
4964,-0.185,-0.075
4965,-0.155,-0.105
4966,-0.205,-0.105
4967,-0.155,-0.125
4968,-0.155,-0.145
4969,-0.155,-0.135
4970,-0.185,-0.115
4971,-0.165,-0.115
4972,-0.165,-0.105
4973,-0.195,-0.105
4974,-0.145,-0.095
4975,-0.115,-0.085
4976,-0.135,-0.085
4977,-0.135,-0.075
4978,-0.195,-0.075
4979,-0.175,-0.075
4980,-0.095,-0.085
4981,-0.055,-0.055
4982,0.005,-0.025
4983,-0.015,0.005
4984,0.025,0.005
4985,0.075,0.025
4986,0.075,0.025
4987,0.035,-0.045
4988,0.065,-0.115
4989,-0.005,-0.095
4990,-0.125,-0.105
4991,-0.175,-0.165
4992,-0.205,-0.175
4993,-0.245,-0.195
4994,-0.225,-0.205
4995,-0.265,-0.195
4996,-0.265,-0.205
4997,-0.205,-0.195
4998,-0.195,-0.165
4999,-0.165,-0.165
5000,-0.205,-0.165
5001,-0.225,-0.165
5002,-0.435,-0.105
5003,-0.435,0.065
5004,0.205,0.175
5005,1.425,0.155
5006,1.785,0.115
5007,0.145,-0.675
5008,-1.065,-1.825
5009,-1.205,-2.095
5010,-0.745,-1.625
5011,-0.405,-0.905
5012,-0.245,-0.325
5013,-0.175,-0.115
5014,-0.125,-0.015
5015,-0.135,0.005
5016,-0.115,0.015
5017,-0.085,0.035
5018,-0.055,0.045
5019,-0.035,0.065
5020,-0.035,0.075
5021,-0.005,0.105
5022,0.045,0.115
5023,0.055,0.135
5024,0.085,0.155
5025,0.125,0.205
5026,0.225,0.265
5027,0.285,0.315
5028,0.355,0.375
5029,0.415,0.445
5030,0.475,0.495
5031,0.535,0.535
5032,0.525,0.525
5033,0.525,0.515
5034,0.475,0.495
5035,0.405,0.415
5036,0.295,0.335
5037,0.155,0.245
5038,0.075,0.155
5039,0.005,0.055
5040,-0.065,-0.025
5041,-0.165,-0.065
5042,-0.155,-0.095
5043,-0.145,-0.125
5044,-0.175,-0.145
5045,-0.175,-0.155
5046,-0.175,-0.145
5047,-0.155,-0.155
5048,-0.225,-0.165
5049,-0.215,-0.155
5050,-0.215,-0.145
5051,-0.185,-0.145
5052,-0.145,-0.145
5053,-0.175,-0.125
5054,-0.175,-0.125
5055,-0.165,-0.125
5056,-0.145,-0.135
5057,-0.125,-0.115
5058,-0.125,-0.105
5059,-0.135,-0.125
5060,-0.075,-0.105
5061,-0.045,-0.075
5062,-0.025,-0.045
5063,0.025,-0.025
5064,0.085,-0.005
5065,0.085,0.005
5066,0.055,-0.035
5067,0.095,-0.125
5068,0.065,-0.115
5069,-0.115,-0.115
5070,-0.155,-0.175
5071,-0.105,-0.185
5072,-0.135,-0.175
5073,-0.145,-0.195
5074,-0.125,-0.195
5075,-0.135,-0.185
5076,-0.155,-0.175
5077,-0.125,-0.175
5078,-0.135,-0.175
5079,-0.125,-0.175
5080,-0.195,-0.185
5081,-0.425,-0.125
5082,-0.385,0.035
5083,0.335,0.145
5084,1.505,0.085
5085,1.765,-0.075
5086,0.325,-0.745
5087,-1.015,-1.705
5088,-1.265,-2.025
5089,-1.025,-1.765
5090,-0.525,-1.215
5091,-0.295,-0.525
5092,-0.175,-0.215
5093,-0.145,-0.065
5094,-0.105,-0.005
5095,-0.075,0.015
5096,-0.055,0.025
5097,-0.045,0.045
5098,-0.025,0.055
5099,-0.015,0.065
5100,0.005,0.075
5101,0.025,0.095
5102,0.035,0.105
5103,0.095,0.145
5104,0.115,0.165
5105,0.165,0.185
5106,0.205,0.225
5107,0.285,0.315
5108,0.345,0.365
5109,0.415,0.435
5110,0.495,0.495
5111,0.545,0.555
5112,0.565,0.565
5113,0.575,0.555
5114,0.515,0.525
5115,0.475,0.485
5116,0.405,0.425
5117,0.335,0.335
5118,0.185,0.245
5119,0.065,0.155
5120,-0.015,0.085
5121,-0.045,0.015
5122,-0.105,-0.015
5123,-0.135,-0.035
5124,-0.125,-0.065
5125,-0.125,-0.065
5126,-0.115,-0.065
5127,-0.085,-0.055
5128,-0.125,-0.065
5129,-0.115,-0.045
5130,-0.105,-0.035
5131,-0.105,-0.025
5132,-0.105,-0.035
5133,-0.105,-0.015
5134,-0.115,0.005
5135,-0.105,-0.005
5136,-0.075,-0.015
5137,-0.085,-0.005
5138,-0.125,-0.005
5139,-0.075,-0.015
5140,-0.025,-0.015
5141,-0.015,0.015
5142,0.025,0.045
5143,0.075,0.075
5144,0.105,0.095
5145,0.195,0.125
5146,0.165,0.105
5147,0.155,0.055
5148,0.175,-0.005
5149,0.095,0.015
5150,-0.065,-0.015
5151,-0.135,-0.085
5152,-0.175,-0.085
5153,-0.175,-0.105
5154,-0.185,-0.115
5155,-0.155,-0.125
5156,-0.165,-0.135
5157,-0.185,-0.125
5158,-0.185,-0.125
5159,-0.175,-0.125
5160,-0.165,-0.125
5161,-0.155,-0.125
5162,-0.355,-0.075
5163,-0.485,0.045
5164,0.095,0.215
5165,1.355,0.205
5166,1.805,0.065
5167,0.455,-0.835
5168,-0.925,-1.835
5169,-1.275,-2.135
5170,-0.895,-1.775
5171,-0.455,-1.065
5172,-0.265,-0.365
5173,-0.145,-0.095
5174,-0.125,0.025
5175,-0.085,0.085
5176,-0.085,0.105
5177,-0.065,0.125
5178,-0.045,0.135
5179,-0.035,0.145
5180,-0.045,0.165
5181,0.025,0.185
5182,0.045,0.205
5183,0.085,0.225
5184,0.145,0.255
5185,0.185,0.305
5186,0.215,0.345
5187,0.255,0.395
5188,0.345,0.455
5189,0.405,0.525
5190,0.475,0.605
5191,0.535,0.645
5192,0.555,0.655
5193,0.575,0.675
5194,0.535,0.645
5195,0.505,0.585
5196,0.395,0.515
5197,0.285,0.415
5198,0.195,0.295
5199,0.055,0.185
5200,-0.005,0.095
5201,-0.045,0.025
5202,-0.085,-0.005
5203,-0.125,-0.045
5204,-0.135,-0.085
5205,-0.145,-0.085
5206,-0.155,-0.095
5207,-0.145,-0.105
5208,-0.165,-0.095
5209,-0.165,-0.095
5210,-0.145,-0.095
5211,-0.145,-0.075
5212,-0.165,-0.085
5213,-0.145,-0.075
5214,-0.155,-0.065
5215,-0.125,-0.065
5216,-0.105,-0.075
5217,-0.125,-0.055
5218,-0.095,-0.065
5219,-0.065,-0.055
5220,-0.085,-0.065
5221,-0.095,-0.065
5222,-0.095,-0.065
5223,-0.045,-0.055
5224,-0.035,-0.035
5225,-0.035,-0.005
5226,0.025,0.025
5227,0.055,0.025
5228,0.025,0.005
5229,0.005,-0.045
5230,0.035,-0.085
5231,-0.025,-0.085
5232,-0.185,-0.125
5233,-0.245,-0.185
5234,-0.245,-0.165
5235,-0.235,-0.205
5236,-0.255,-0.225
5237,-0.235,-0.215
5238,-0.265,-0.195
5239,-0.235,-0.205
5240,-0.205,-0.185
5241,-0.185,-0.185
5242,-0.195,-0.175
5243,-0.245,-0.175
5244,-0.485,-0.125
5245,-0.405,0.075
5246,0.435,0.175
5247,1.705,0.105
5248,1.405,-0.235
5249,-0.415,-1.385
5250,-1.275,-2.115
5251,-1.345,-2.105
5252,-0.795,-1.665
5253,-0.455,-0.905
5254,-0.295,-0.315
5255,-0.255,-0.115
5256,-0.235,-0.025
5257,-0.185,0.025
5258,-0.145,0.055
5259,-0.145,0.065
5260,-0.125,0.075
5261,-0.135,0.085
5262,-0.115,0.105
5263,-0.065,0.125
5264,-0.005,0.155
5265,-0.015,0.185
5266,0.045,0.225
5267,0.065,0.275
5268,0.085,0.315
5269,0.225,0.385
5270,0.315,0.475
5271,0.375,0.535
5272,0.445,0.595
5273,0.505,0.625
5274,0.525,0.615
5275,0.505,0.615
5276,0.495,0.565
5277,0.415,0.505
5278,0.275,0.405
5279,0.145,0.295
5280,0.065,0.195
5281,-0.035,0.115
5282,-0.105,0.045
5283,-0.185,-0.015
5284,-0.175,-0.055
5285,-0.215,-0.075
5286,-0.205,-0.085
5287,-0.195,-0.105
5288,-0.225,-0.105
5289,-0.185,-0.105
5290,-0.195,-0.085
5291,-0.195,-0.095
5292,-0.225,-0.105
5293,-0.245,-0.095
5294,-0.245,-0.095
5295,-0.235,-0.095
5296,-0.235,-0.095
5297,-0.215,-0.095
5298,-0.225,-0.085
5299,-0.235,-0.085
5300,-0.235,-0.105
5301,-0.235,-0.105
5302,-0.255,-0.105
5303,-0.255,-0.115
5304,-0.225,-0.125
5305,-0.205,-0.115
5306,-0.145,-0.095
5307,-0.145,-0.085
5308,-0.145,-0.055
5309,-0.075,-0.025
5310,-0.055,0.005
5311,-0.055,-0.015
5312,-0.015,-0.115
5313,-0.015,-0.105
5314,-0.105,-0.105
5315,-0.265,-0.155
5316,-0.285,-0.195
5317,-0.285,-0.185
5318,-0.285,-0.205
5319,-0.305,-0.205
5320,-0.285,-0.215
5321,-0.285,-0.195
5322,-0.295,-0.195
5323,-0.295,-0.195
5324,-0.285,-0.175
5325,-0.265,-0.195
5326,-0.415,-0.165
5327,-0.635,-0.055
5328,-0.155,0.135
5329,1.125,0.115
5330,1.865,0.035
5331,0.605,-0.465
5332,-0.995,-1.555
5333,-1.355,-2.015
5334,-1.155,-1.785
5335,-0.705,-1.265
5336,-0.475,-0.645
5337,-0.325,-0.285
5338,-0.215,-0.115
5339,-0.225,-0.045
5340,-0.205,-0.035
5341,-0.175,-0.005
5342,-0.145,0.005
5343,-0.115,0.015
5344,-0.125,0.025
5345,-0.095,0.045
5346,-0.055,0.055
5347,-0.045,0.075
5348,0.015,0.095
5349,0.075,0.125
5350,0.145,0.185
5351,0.185,0.235
5352,0.265,0.265
5353,0.315,0.365
5354,0.425,0.405
5355,0.475,0.465
5356,0.495,0.465
5357,0.505,0.475
5358,0.475,0.445
5359,0.435,0.405
5360,0.355,0.325
5361,0.255,0.255
5362,0.155,0.185
5363,0.065,0.105
5364,-0.015,0.005
5365,-0.055,-0.025
5366,-0.105,-0.065
5367,-0.155,-0.095
5368,-0.195,-0.105
5369,-0.205,-0.135
5370,-0.235,-0.145
5371,-0.245,-0.165
5372,-0.255,-0.165
5373,-0.255,-0.155
5374,-0.265,-0.155
5375,-0.255,-0.145
5376,-0.255,-0.155
5377,-0.265,-0.145
5378,-0.235,-0.125
5379,-0.245,-0.115
5380,-0.215,-0.115
5381,-0.165,-0.115
5382,-0.205,-0.105
5383,-0.185,-0.105
5384,-0.195,-0.125
5385,-0.185,-0.125
5386,-0.175,-0.115
5387,-0.195,-0.125
5388,-0.175,-0.125
5389,-0.145,-0.105
5390,-0.125,-0.065
5391,-0.085,-0.045
5392,-0.055,-0.035
5393,0.015,-0.015
5394,-0.025,-0.015
5395,-0.055,-0.095
5396,-0.015,-0.125
5397,-0.055,-0.095
5398,-0.245,-0.115
5399,-0.255,-0.185
5400,-0.295,-0.185
5401,-0.305,-0.205
5402,-0.275,-0.195
5403,-0.305,-0.195
5404,-0.285,-0.195
5405,-0.265,-0.195
5406,-0.275,-0.175
5407,-0.285,-0.165
5408,-0.275,-0.165
5409,-0.255,-0.175
5410,-0.515,-0.115
5411,-0.555,0.065
5412,0.185,0.205
5413,1.585,0.185
5414,1.675,0.085
5415,-0.125,-0.945
5416,-1.155,-2.025
5417,-1.305,-2.135
5418,-0.785,-1.575
5419,-0.495,-0.795
5420,-0.325,-0.245
5421,-0.265,-0.065
5422,-0.175,0.035
5423,-0.135,0.085
5424,-0.125,0.085
5425,-0.155,0.085
5426,-0.125,0.115
5427,-0.075,0.125
5428,-0.065,0.135
5429,-0.035,0.165
5430,0.005,0.195
5431,0.015,0.205
5432,0.085,0.245
5433,0.195,0.285
5434,0.235,0.355
5435,0.275,0.425
5436,0.385,0.475
5437,0.485,0.565
5438,0.505,0.625
5439,0.545,0.645
5440,0.565,0.645
5441,0.535,0.635
5442,0.505,0.595
5443,0.425,0.525
5444,0.315,0.425
5445,0.185,0.335
5446,0.065,0.225
5447,-0.015,0.125
5448,-0.095,0.035
5449,-0.135,-0.015
5450,-0.155,-0.055
5451,-0.165,-0.075
5452,-0.205,-0.105
5453,-0.175,-0.105
5454,-0.185,-0.115
5455,-0.215,-0.125
5456,-0.225,-0.125
5457,-0.155,-0.115
5458,-0.135,-0.095
5459,-0.145,-0.085
5460,-0.155,-0.095
5461,-0.145,-0.075
5462,-0.135,-0.065
5463,-0.155,-0.075
5464,-0.135,-0.085
5465,-0.135,-0.065
5466,-0.135,-0.075
5467,-0.155,-0.085
5468,-0.175,-0.095
5469,-0.175,-0.105
5470,-0.175,-0.105
5471,-0.165,-0.105
5472,-0.135,-0.095
5473,-0.075,-0.055
5474,-0.105,-0.015
5475,0.015,-0.015
5476,0.085,0.005
5477,0.015,-0.005
5478,-0.005,-0.095
5479,0.035,-0.115
5480,-0.065,-0.115
5481,-0.245,-0.145
5482,-0.245,-0.185
5483,-0.275,-0.195
5484,-0.275,-0.225
5485,-0.255,-0.215
5486,-0.255,-0.215
5487,-0.275,-0.215
5488,-0.285,-0.225
5489,-0.275,-0.205
5490,-0.265,-0.215
5491,-0.235,-0.195
5492,-0.315,-0.205
5493,-0.515,-0.145
5494,-0.445,0.055
5495,0.375,0.165
5496,1.605,0.075
5497,1.625,-0.175
5498,-0.125,-1.155
5499,-1.235,-1.975
5500,-1.335,-2.095
5501,-0.775,-1.625
5502,-0.425,-0.855
5503,-0.265,-0.285
5504,-0.155,-0.115
5505,-0.125,-0.025
5506,-0.095,0.005
5507,-0.065,0.025
5508,-0.055,0.025
5509,-0.005,0.045
5510,0.035,0.065
5511,0.035,0.065
5512,0.045,0.085
5513,0.055,0.105
5514,0.075,0.125
5515,0.085,0.145
5516,0.115,0.165
5517,0.145,0.225
5518,0.215,0.285
5519,0.285,0.355
5520,0.345,0.415
5521,0.445,0.465
5522,0.495,0.525
5523,0.535,0.525
5524,0.555,0.505
5525,0.535,0.485
5526,0.475,0.425
5527,0.345,0.345
5528,0.215,0.235
5529,0.125,0.155
5530,0.035,0.075
5531,-0.035,-0.015
5532,-0.095,-0.075
5533,-0.115,-0.105
5534,-0.145,-0.125
5535,-0.185,-0.145
5536,-0.175,-0.165
5537,-0.175,-0.165
5538,-0.175,-0.155
5539,-0.195,-0.155
5540,-0.195,-0.155
5541,-0.195,-0.145
5542,-0.195,-0.145
5543,-0.185,-0.135
5544,-0.175,-0.135
5545,-0.165,-0.115
5546,-0.185,-0.105
5547,-0.205,-0.115
5548,-0.215,-0.125
5549,-0.145,-0.125
5550,-0.175,-0.115
5551,-0.195,-0.135
5552,-0.185,-0.135
5553,-0.155,-0.115
5554,-0.135,-0.095
5555,-0.115,-0.075
5556,-0.075,-0.055
5557,-0.005,-0.035
5558,0.025,-0.015
5559,-0.015,-0.035
5560,-0.055,-0.125
5561,0.015,-0.115
5562,-0.055,-0.105
5563,-0.195,-0.125
5564,-0.245,-0.195
5565,-0.265,-0.155
5566,-0.235,-0.175
5567,-0.225,-0.185
5568,-0.265,-0.185
5569,-0.235,-0.175
5570,-0.215,-0.155
5571,-0.265,-0.155
5572,-0.235,-0.165
5573,-0.205,-0.145
5574,-0.345,-0.115
5575,-0.565,0.005
5576,-0.035,0.235
5577,1.175,0.205
5578,1.955,0.185
5579,1.125,-0.045
5580,-0.725,-1.175
5581,-1.325,-1.935
5582,-1.255,-1.865
5583,-0.675,-1.285
5584,-0.415,-0.565
5585,-0.275,-0.195
5586,-0.225,-0.065
5587,-0.185,-0.005
5588,-0.155,0.015
5589,-0.135,0.025
5590,-0.125,0.035
5591,-0.095,0.055
5592,-0.095,0.055
5593,-0.075,0.075
5594,-0.035,0.095
5595,0.005,0.105
5596,0.035,0.125
5597,0.065,0.145
5598,0.125,0.185
5599,0.145,0.225
5600,0.215,0.275
5601,0.355,0.335
5602,0.455,0.415
5603,0.525,0.465
5604,0.545,0.505
5605,0.555,0.515
5606,0.525,0.505
5607,0.465,0.475
5608,0.375,0.385
5609,0.275,0.315
5610,0.135,0.245
5611,0.035,0.145
5612,-0.075,0.045
5613,-0.135,-0.015
5614,-0.165,-0.055
5615,-0.185,-0.095
5616,-0.235,-0.125
5617,-0.225,-0.135
5618,-0.235,-0.145
5619,-0.255,-0.145
5620,-0.255,-0.155
5621,-0.255,-0.145
5622,-0.215,-0.125
5623,-0.205,-0.125
5624,-0.245,-0.125
5625,-0.215,-0.115
5626,-0.195,-0.095
5627,-0.205,-0.105
5628,-0.225,-0.115
5629,-0.205,-0.105
5630,-0.215,-0.095
5631,-0.215,-0.095
5632,-0.185,-0.105
5633,-0.195,-0.095
5634,-0.185,-0.105
5635,-0.155,-0.095
5636,-0.125,-0.075
5637,-0.125,-0.035
5638,-0.085,-0.025
5639,-0.005,-0.015
5640,-0.005,0.005
5641,-0.045,-0.045
5642,-0.025,-0.155
5643,-0.045,-0.105
5644,-0.145,-0.125
5645,-0.265,-0.165
5646,-0.265,-0.195
5647,-0.235,-0.185
5648,-0.245,-0.205
5649,-0.245,-0.195
5650,-0.235,-0.185
5651,-0.235,-0.185
5652,-0.225,-0.185
5653,-0.225,-0.165
5654,-0.215,-0.155
5655,-0.235,-0.155
5656,-0.335,-0.155
5657,-0.525,-0.025
5658,-0.175,0.205
5659,0.975,0.165
5660,1.835,0.015
5661,1.085,-0.385
5662,-0.715,-1.465
5663,-1.355,-2.065
5664,-1.335,-2.025
5665,-0.755,-1.525
5666,-0.465,-0.755
5667,-0.335,-0.245
5668,-0.245,-0.095
5669,-0.175,-0.005
5670,-0.155,0.045
5671,-0.145,0.055
5672,-0.125,0.055
5673,-0.105,0.065
5674,-0.085,0.095
5675,-0.055,0.115
5676,-0.035,0.115
5677,0.005,0.145
5678,0.025,0.175
5679,0.055,0.195
5680,0.085,0.235
5681,0.155,0.285
5682,0.225,0.375
5683,0.315,0.445
5684,0.355,0.515
5685,0.425,0.585
5686,0.455,0.625
5687,0.495,0.635
5688,0.485,0.615
5689,0.435,0.565
5690,0.385,0.535
5691,0.275,0.435
5692,0.135,0.325
5693,0.045,0.205
5694,-0.045,0.105
5695,-0.085,0.035
5696,-0.125,-0.025
5697,-0.165,-0.055
5698,-0.215,-0.065
5699,-0.235,-0.105
5700,-0.205,-0.105
5701,-0.215,-0.105
5702,-0.195,-0.105
5703,-0.265,-0.095
5704,-0.225,-0.095
5705,-0.195,-0.095
5706,-0.165,-0.075
5707,-0.175,-0.065
5708,-0.215,-0.065
5709,-0.225,-0.035
5710,-0.205,-0.035
5711,-0.145,-0.035
5712,-0.195,-0.035
5713,-0.165,-0.045
5714,-0.175,-0.045
5715,-0.145,-0.055
5716,-0.045,-0.025
5717,-0.055,0.025
5718,-0.035,0.055
5719,0.045,0.025
5720,0.085,0.045
5721,0.015,0.025
5722,-0.005,-0.085
5723,0.005,-0.085
5724,-0.075,-0.065
5725,-0.215,-0.095
5726,-0.265,-0.155
5727,-0.275,-0.155
5728,-0.275,-0.185
5729,-0.265,-0.175
5730,-0.285,-0.175
5731,-0.265,-0.185
5732,-0.255,-0.185
5733,-0.265,-0.175
5734,-0.265,-0.175
5735,-0.255,-0.175
5736,-0.315,-0.185
5737,-0.545,-0.095
5738,-0.345,0.125
5739,0.685,0.185
5740,1.785,0.115
5741,1.275,-0.255
5742,-0.485,-1.385
5743,-1.265,-2.155
5744,-1.255,-2.145
5745,-0.655,-1.615
5746,-0.385,-0.765
5747,-0.255,-0.195
5748,-0.185,-0.055
5749,-0.175,0.025
5750,-0.165,0.045
5751,-0.145,0.055
5752,-0.125,0.045
5753,-0.125,0.075
5754,-0.105,0.085
5755,-0.085,0.095
5756,-0.065,0.105
5757,-0.005,0.135
5758,-0.015,0.175
5759,0.035,0.195
5760,0.075,0.225
5761,0.135,0.275
5762,0.195,0.335
5763,0.285,0.415
5764,0.335,0.475
5765,0.385,0.535
5766,0.475,0.595
5767,0.515,0.605
5768,0.485,0.585
5769,0.485,0.555
5770,0.425,0.505
5771,0.305,0.425
5772,0.175,0.315
5773,0.115,0.185
5774,-0.005,0.115
5775,-0.065,0.015
5776,-0.115,-0.055
5777,-0.175,-0.095
5778,-0.195,-0.135
5779,-0.205,-0.155
5780,-0.205,-0.175
5781,-0.215,-0.175
5782,-0.215,-0.165
5783,-0.175,-0.175
5784,-0.215,-0.175
5785,-0.205,-0.165
5786,-0.185,-0.165
5787,-0.185,-0.155
5788,-0.185,-0.155
5789,-0.185,-0.155
5790,-0.145,-0.145
5791,-0.145,-0.145
5792,-0.155,-0.165
5793,-0.155,-0.165
5794,-0.125,-0.155
5795,-0.105,-0.155
5796,-0.095,-0.145
5797,-0.055,-0.145
5798,-0.035,-0.105
5799,-0.015,-0.065
5800,0.045,-0.065
5801,0.065,-0.045
5802,0.005,-0.075
5803,-0.005,-0.205
5804,0.015,-0.195
5805,-0.065,-0.165
5806,-0.235,-0.205
5807,-0.265,-0.275
5808,-0.285,-0.265
5809,-0.275,-0.265
5810,-0.275,-0.275
5811,-0.285,-0.275
5812,-0.265,-0.275
5813,-0.235,-0.255
5814,-0.225,-0.235
5815,-0.205,-0.235
5816,-0.195,-0.235
5817,-0.285,-0.225
5818,-0.515,-0.135
5819,-0.305,0.075
5820,0.715,0.145
5821,1.875,0.065
5822,1.465,-0.195
5823,-0.415,-1.185
5824,-1.345,-1.925
5825,-1.335,-2.035
5826,-0.815,-1.605
5827,-0.485,-0.895
5828,-0.265,-0.355
5829,-0.175,-0.155
5830,-0.125,-0.055
5831,-0.125,-0.025
5832,-0.095,-0.015
5833,-0.095,0.005
5834,-0.075,0.025
5835,-0.035,0.035
5836,-0.045,0.045
5837,-0.025,0.065
5838,0.035,0.075
5839,0.055,0.115
5840,0.105,0.135
5841,0.165,0.185
5842,0.225,0.245
5843,0.265,0.305
5844,0.325,0.375
5845,0.425,0.445
5846,0.515,0.505
5847,0.555,0.555
5848,0.565,0.555
5849,0.505,0.535
5850,0.495,0.515
5851,0.525,0.435
5852,0.405,0.365
5853,0.275,0.295
5854,0.165,0.195
5855,0.055,0.105
5856,-0.025,0.035
5857,-0.065,-0.025
5858,-0.125,-0.065
5859,-0.125,-0.095
5860,-0.165,-0.115
5861,-0.145,-0.105
5862,-0.125,-0.115
5863,-0.165,-0.105
5864,-0.135,-0.125
5865,-0.125,-0.105
5866,-0.135,-0.085
5867,-0.145,-0.085
5868,-0.175,-0.085
5869,-0.145,-0.085
5870,-0.185,-0.085
5871,-0.195,-0.085
5872,-0.165,-0.095
5873,-0.165,-0.095
5874,-0.175,-0.085
5875,-0.175,-0.095
5876,-0.195,-0.105
5877,-0.125,-0.105
5878,-0.075,-0.065
5879,-0.065,-0.035
5880,-0.065,-0.035
5881,0.015,-0.025
5882,0.005,-0.015
5883,-0.035,-0.085
5884,-0.005,-0.155
5885,-0.055,-0.105
5886,-0.185,-0.115
5887,-0.225,-0.165
5888,-0.255,-0.195
5889,-0.295,-0.185
5890,-0.265,-0.185
5891,-0.215,-0.195
5892,-0.225,-0.195
5893,-0.205,-0.185
5894,-0.235,-0.175
5895,-0.255,-0.175
5896,-0.225,-0.185
5897,-0.245,-0.175
5898,-0.455,-0.135
5899,-0.525,-0.005
5900,0.045,0.175
5901,1.325,0.145
5902,1.805,0.025
5903,0.385,-0.625
5904,-1.095,-1.685
5905,-1.345,-2.095
5906,-1.035,-1.805
5907,-0.555,-1.165
5908,-0.355,-0.455
5909,-0.225,-0.155
5910,-0.175,-0.065
5911,-0.135,-0.015
5912,-0.125,0.025
5913,-0.095,0.025
5914,-0.075,0.055
5915,-0.105,0.055
5916,-0.105,0.055
5917,-0.045,0.085
5918,-0.015,0.115
5919,0.015,0.125
5920,0.035,0.145
5921,0.105,0.195
5922,0.175,0.235
5923,0.205,0.285
5924,0.265,0.325
5925,0.335,0.425
5926,0.425,0.495
5927,0.495,0.545
5928,0.525,0.565
5929,0.505,0.585
5930,0.495,0.555
5931,0.455,0.505
5932,0.375,0.435
5933,0.245,0.355
5934,0.175,0.255
5935,0.105,0.165
5936,0.025,0.085
5937,-0.015,0.015
5938,-0.045,-0.045
5939,-0.085,-0.095
5940,-0.085,-0.135
5941,-0.105,-0.145
5942,-0.095,-0.135
5943,-0.145,-0.135
5944,-0.125,-0.155
5945,-0.145,-0.145
5946,-0.155,-0.145
5947,-0.175,-0.135
5948,-0.175,-0.145
5949,-0.165,-0.115
5950,-0.185,-0.115
5951,-0.185,-0.125
5952,-0.185,-0.135
5953,-0.165,-0.115
5954,-0.155,-0.115
5955,-0.145,-0.125
5956,-0.155,-0.125
5957,-0.075,-0.105
5958,0.015,-0.065
5959,-0.025,-0.035
5960,0.005,-0.055
5961,0.085,-0.025
5962,0.045,-0.015
5963,0.005,-0.095
5964,0.025,-0.155
5965,0.025,-0.115
5966,-0.055,-0.115
5967,-0.185,-0.135
5968,-0.235,-0.205
5969,-0.245,-0.185
5970,-0.225,-0.195
5971,-0.225,-0.195
5972,-0.225,-0.205
5973,-0.215,-0.195
5974,-0.225,-0.185
5975,-0.225,-0.185
5976,-0.215,-0.185
5977,-0.205,-0.175
5978,-0.355,-0.155
5979,-0.495,-0.035
5980,0.015,0.175
5981,1.305,0.185
5982,1.795,0.115
5983,0.615,-0.585
5984,-0.865,-1.745
5985,-1.255,-2.275
5986,-1.015,-2.025
5987,-0.495,-1.355
5988,-0.295,-0.505
5989,-0.215,-0.125
5990,-0.155,0.005
5991,-0.155,0.065
5992,-0.145,0.085
5993,-0.065,0.105
5994,-0.065,0.135
5995,-0.055,0.135
5996,-0.005,0.145
5997,0.005,0.175
5998,0.045,0.195
5999,0.065,0.225
6000,0.105,0.245
6001,0.155,0.275
6002,0.185,0.335
6003,0.225,0.375
6004,0.295,0.435
6005,0.335,0.515
6006,0.425,0.585
6007,0.495,0.635
6008,0.525,0.685
6009,0.525,0.695
6010,0.555,0.685
6011,0.525,0.645
6012,0.435,0.575
6013,0.365,0.475
6014,0.255,0.375
6015,0.125,0.235
6016,0.005,0.125
6017,-0.075,0.045
6018,-0.095,-0.025
6019,-0.115,-0.075
6020,-0.175,-0.105
6021,-0.175,-0.115
6022,-0.175,-0.135
6023,-0.165,-0.135
6024,-0.175,-0.145
6025,-0.185,-0.125
6026,-0.165,-0.115
6027,-0.145,-0.115
6028,-0.145,-0.135
6029,-0.155,-0.115
6030,-0.145,-0.105
6031,-0.125,-0.115
6032,-0.125,-0.135
6033,-0.145,-0.125
6034,-0.155,-0.125
6035,-0.145,-0.135
6036,-0.135,-0.135
6037,-0.105,-0.125
6038,-0.095,-0.095
6039,-0.025,-0.065
6040,0.045,-0.065
6041,0.095,-0.045
6042,0.025,-0.035
6043,0.015,-0.125
6044,0.045,-0.175
6045,-0.025,-0.135
6046,-0.205,-0.155
6047,-0.225,-0.215
6048,-0.215,-0.235
6049,-0.245,-0.235
6050,-0.245,-0.235
6051,-0.255,-0.235
6052,-0.245,-0.245
6053,-0.215,-0.245
6054,-0.205,-0.215
6055,-0.215,-0.225
6056,-0.245,-0.225
6057,-0.235,-0.215
6058,-0.405,-0.165
6059,-0.395,0.005
6060,0.345,0.145
6061,1.555,0.065
6062,1.695,-0.085
6063,-0.005,-0.795
6064,-1.235,-1.715
6065,-1.345,-2.025
6066,-0.885,-1.705
6067,-0.485,-1.065
6068,-0.275,-0.465
6069,-0.175,-0.215
6070,-0.155,-0.105
6071,-0.115,-0.065
6072,-0.085,-0.045
6073,-0.025,-0.015
6074,0.005,0.005
6075,0.015,0.005
6076,-0.015,0.015
6077,0.025,0.035
6078,0.075,0.045
6079,0.135,0.065
6080,0.155,0.095
6081,0.215,0.145
6082,0.225,0.185
6083,0.275,0.235
6084,0.385,0.275
6085,0.505,0.355
6086,0.555,0.415
6087,0.605,0.465
6088,0.615,0.465
6089,0.625,0.455
6090,0.615,0.425
6091,0.575,0.375
6092,0.495,0.305
6093,0.385,0.245
6094,0.255,0.145
6095,0.165,0.075
6096,0.035,0.005
6097,-0.025,-0.055
6098,-0.055,-0.095
6099,-0.125,-0.125
6100,-0.145,-0.165
6101,-0.165,-0.155
6102,-0.175,-0.145
6103,-0.155,-0.155
6104,-0.195,-0.155
6105,-0.165,-0.155
6106,-0.135,-0.135
6107,-0.095,-0.135
6108,-0.115,-0.135
6109,-0.095,-0.125
6110,-0.075,-0.115
6111,-0.055,-0.105
6112,-0.075,-0.105
6113,-0.065,-0.105
6114,-0.025,-0.095
6115,-0.045,-0.095
6116,-0.005,-0.095
6117,0.035,-0.055
6118,0.035,-0.005
6119,0.055,-0.015
6120,0.135,-0.005
6121,0.115,0.005
6122,0.075,-0.075
6123,0.075,-0.125
6124,0.055,-0.095
6125,-0.105,-0.105
6126,-0.155,-0.165
6127,-0.165,-0.175
6128,-0.185,-0.185
6129,-0.185,-0.185
6130,-0.185,-0.175
6131,-0.185,-0.175
6132,-0.175,-0.175
6133,-0.185,-0.155
6134,-0.165,-0.165
6135,-0.145,-0.155
6136,-0.155,-0.155
6137,-0.375,-0.105
6138,-0.455,0.065
6139,0.305,0.235
6140,1.655,0.205
6141,1.815,0.105
6142,0.045,-0.735
6143,-1.155,-1.795
6144,-1.305,-2.095
6145,-0.745,-1.635
6146,-0.375,-0.795
6147,-0.215,-0.215
6148,-0.165,-0.045
6149,-0.095,0.025
6150,-0.065,0.045
6151,-0.055,0.065
6152,-0.045,0.065
6153,-0.005,0.085
6154,-0.025,0.105
6155,0.035,0.105
6156,0.065,0.135
6157,0.095,0.155
6158,0.125,0.175
6159,0.155,0.205
6160,0.195,0.225
6161,0.255,0.305
6162,0.335,0.375
6163,0.395,0.445
6164,0.495,0.515
6165,0.555,0.595
6166,0.575,0.625
6167,0.575,0.635
6168,0.565,0.615
6169,0.545,0.575
6170,0.505,0.525
6171,0.395,0.425
6172,0.285,0.325
6173,0.205,0.225
6174,0.125,0.145
6175,0.055,0.075
6176,-0.025,0.005
6177,-0.065,-0.015
6178,-0.105,-0.045
6179,-0.135,-0.065
6180,-0.175,-0.085
6181,-0.155,-0.095
6182,-0.135,-0.085
6183,-0.135,-0.085
6184,-0.135,-0.085
6185,-0.135,-0.065
6186,-0.105,-0.055
6187,-0.115,-0.045
6188,-0.115,-0.055
6189,-0.135,-0.045
6190,-0.095,-0.045
6191,-0.095,-0.045
6192,-0.095,-0.045
6193,-0.075,-0.035
6194,-0.015,-0.025
6195,0.025,0.005
6196,0.005,0.035
6197,0.075,0.035
6198,0.115,0.055
6199,0.085,0.025
6200,0.045,-0.075
6201,0.085,-0.095
6202,0.055,-0.065
6203,-0.095,-0.075
6204,-0.165,-0.135
6205,-0.175,-0.165
6206,-0.205,-0.165
6207,-0.195,-0.185
6208,-0.205,-0.185
6209,-0.185,-0.175
6210,-0.185,-0.165
6211,-0.205,-0.175
6212,-0.175,-0.175
6213,-0.175,-0.165
6214,-0.235,-0.165
6215,-0.395,-0.115
6216,-0.345,0.055
6217,0.375,0.225
6218,1.585,0.155
6219,1.915,-0.005
6220,0.255,-0.575
6221,-1.225,-1.475
6222,-1.385,-1.885
6223,-0.965,-1.635
6224,-0.475,-1.035
6225,-0.305,-0.415
6226,-0.185,-0.185
6227,-0.105,-0.075
6228,-0.075,-0.025
6229,-0.055,-0.005
6230,-0.005,0.005
6231,0.025,0.015
6232,0.045,0.035
6233,0.065,0.055
6234,0.035,0.055
6235,0.075,0.075
6236,0.135,0.085
6237,0.145,0.125
6238,0.205,0.155
6239,0.295,0.195
6240,0.335,0.245
6241,0.395,0.295
6242,0.495,0.355
6243,0.555,0.425
6244,0.685,0.445
6245,0.685,0.475
6246,0.645,0.475
6247,0.615,0.435
6248,0.565,0.385
6249,0.475,0.345
6250,0.395,0.265
6251,0.265,0.175
6252,0.205,0.085
6253,0.115,0.045
6254,0.035,-0.005
6255,-0.035,-0.045
6256,-0.015,-0.085
6257,-0.035,-0.085
6258,-0.075,-0.095
6259,-0.065,-0.105
6260,-0.105,-0.105
6261,-0.115,-0.095
6262,-0.115,-0.085
6263,-0.105,-0.085
6264,-0.115,-0.085
6265,-0.125,-0.075
6266,-0.115,-0.065
6267,-0.135,-0.065
6268,-0.125,-0.075
6269,-0.145,-0.065
6270,-0.125,-0.065
6271,-0.125,-0.065
6272,-0.115,-0.055
6273,-0.025,-0.015
6274,0.025,0.025
6275,0.075,0.035
6276,0.115,0.025
6277,0.085,0.045
6278,0.085,-0.025
6279,0.105,-0.075
6280,0.085,-0.035
6281,-0.035,-0.045
6282,-0.185,-0.095
6283,-0.205,-0.155
6284,-0.215,-0.135
6285,-0.185,-0.155
6286,-0.225,-0.135
6287,-0.235,-0.135
6288,-0.205,-0.145
6289,-0.215,-0.135
6290,-0.205,-0.135
6291,-0.195,-0.125
6292,-0.195,-0.135
6293,-0.395,-0.105
6294,-0.475,0.065
6295,0.205,0.265
6296,1.585,0.205
6297,1.895,0.085
6298,0.205,-0.625
6299,-1.355,-1.505
6300,-1.585,-1.935
6301,-1.075,-1.655
6302,-0.535,-0.985
6303,-0.335,-0.345
6304,-0.225,-0.135
6305,-0.155,-0.055
6306,-0.105,0.005
6307,-0.115,0.035
6308,-0.095,0.055
6309,-0.055,0.055
6310,-0.035,0.045
6311,-0.075,0.075
6312,-0.005,0.045
6313,0.025,0.115
6314,0.065,0.145
6315,0.055,0.165
6316,0.125,0.165
6317,0.185,0.255
6318,0.225,0.285
6319,0.295,0.355
6320,0.405,0.405
6321,0.475,0.505
6322,0.515,0.555
6323,0.525,0.575
6324,0.455,0.555
6325,0.455,0.535
6326,0.485,0.485
6327,0.365,0.435
6328,0.205,0.305
6329,0.155,0.205
6330,0.045,0.145
6331,0.005,0.025
6332,-0.015,-0.015
6333,-0.035,-0.025
6334,-0.085,-0.065
6335,-0.145,-0.075
6336,-0.175,-0.135
6337,-0.185,-0.145
6338,-0.305,-0.095
6339,-0.285,-0.155
6340,-0.255,-0.135
6341,-0.145,-0.075
6342,-0.145,-0.035
6343,-0.215,0.025
6344,-0.245,-0.075
6345,-0.215,-0.065
6346,-0.215,-0.025
6347,-0.255,-0.075
6348,-0.175,-0.095
6349,-0.145,-0.035
6350,-0.075,-0.035
6351,-0.035,0.005
6352,-0.015,0.015
6353,0.055,0.015
6354,0.075,0.025
6355,0.075,0.025
6356,-0.035,-0.075
6357,-0.005,-0.125
6358,0.015,-0.085
6359,-0.045,-0.095
6360,-0.225,-0.125
6361,-0.235,-0.215
6362,-0.225,-0.175
6363,-0.235,-0.195
6364,-0.215,-0.195
6365,-0.195,-0.185
6366,-0.275,-0.185
6367,-0.345,-0.205
6368,-0.255,-0.205
6369,-0.255,-0.195
6370,-0.255,-0.195
6371,-0.365,-0.185
6372,-0.535,-0.095
6373,-0.355,0.155
6374,0.445,0.175
6375,1.825,0.115
6376,1.665,-0.105
6377,-0.235,-1.155
6378,-1.385,-1.895
6379,-1.515,-2.005
6380,-0.855,-1.545
6381,-0.415,-0.685
6382,-0.235,-0.225
6383,-0.155,-0.075
6384,-0.095,-0.005
6385,-0.125,0.045
6386,-0.115,0.005
6387,-0.075,0.045
6388,-0.075,0.045
6389,-0.085,0.065
6390,-0.045,0.095
6391,-0.045,0.085
6392,-0.045,0.115
6393,0.055,0.155
6394,0.125,0.175
6395,0.175,0.225
6396,0.215,0.265
6397,0.275,0.325
6398,0.335,0.395
6399,0.395,0.445
6400,0.545,0.495
6401,0.565,0.545
6402,0.515,0.565
6403,0.525,0.525
6404,0.485,0.485
6405,0.415,0.425
6406,0.305,0.335
6407,0.205,0.235
6408,0.145,0.135
6409,0.045,0.045
6410,-0.045,-0.025
6411,-0.095,-0.065
6412,-0.135,-0.125
6413,-0.135,-0.125
6414,-0.145,-0.155
6415,-0.215,-0.145
6416,-0.215,-0.155
6417,-0.215,-0.145
6418,-0.235,-0.125
6419,-0.235,-0.135
6420,-0.235,-0.135
6421,-0.195,-0.115
6422,-0.175,-0.105
6423,-0.195,-0.095
6424,-0.195,-0.105
6425,-0.175,-0.095
6426,-0.175,-0.085
6427,-0.155,-0.085
6428,-0.085,-0.065
6429,-0.015,-0.025
6430,-0.015,0.015
6431,0.015,0.025
6432,0.055,0.035
6433,0.045,0.035
6434,-0.035,-0.045
6435,-0.005,-0.125
6436,-0.025,-0.085
6437,-0.085,-0.095
6438,-0.235,-0.135
6439,-0.265,-0.185
6440,-0.305,-0.205
6441,-0.305,-0.195
6442,-0.295,-0.205
6443,-0.315,-0.195
6444,-0.315,-0.195
6445,-0.305,-0.185
6446,-0.285,-0.185
6447,-0.305,-0.175
6448,-0.285,-0.195
6449,-0.395,-0.155
6450,-0.585,-0.025
6451,-0.225,0.175
6452,0.985,0.145
6453,1.895,0.005
6454,0.835,-0.605
6455,-1.095,-1.665
6456,-1.605,-2.165
6457,-1.135,-1.845
6458,-0.595,-1.035
6459,-0.365,-0.325
6460,-0.275,-0.105
6461,-0.215,-0.015
6462,-0.195,0.025
6463,-0.165,0.025
6464,-0.185,0.025
6465,-0.155,0.055
6466,-0.075,0.075
6467,-0.025,0.095
6468,-0.025,0.085
6469,-0.045,0.115
6470,0.015,0.145
6471,0.035,0.155
6472,0.105,0.185
6473,0.115,0.245
6474,0.165,0.285
6475,0.235,0.355
6476,0.285,0.415
6477,0.375,0.485
6478,0.485,0.545
6479,0.465,0.585
6480,0.485,0.575
6481,0.525,0.565
6482,0.445,0.505
6483,0.335,0.425
6484,0.245,0.305
6485,0.155,0.245
6486,0.035,0.205
6487,-0.055,0.045
6488,-0.135,-0.015
6489,-0.175,-0.045
6490,-0.235,-0.085
6491,-0.305,-0.105
6492,-0.285,-0.135
6493,-0.295,-0.135
6494,-0.255,-0.125
6495,-0.295,-0.125
6496,-0.295,-0.125
6497,-0.265,-0.125
6498,-0.255,-0.095
6499,-0.285,-0.105
6500,-0.275,-0.115
6501,-0.265,-0.095
6502,-0.245,-0.075
6503,-0.225,-0.095
6504,-0.235,-0.095
6505,-0.215,-0.105
6506,-0.165,-0.065
6507,-0.105,-0.025
6508,-0.115,-0.005
6509,-0.105,-0.005
6510,-0.055,0.035
6511,-0.055,0.015
6512,-0.085,-0.055
6513,-0.025,-0.105
6514,-0.055,-0.085
6515,-0.175,-0.095
6516,-0.325,-0.125
6517,-0.345,-0.195
6518,-0.365,-0.185
6519,-0.375,-0.195
6520,-0.405,-0.215
6521,-0.445,-0.205
6522,-0.425,-0.185
6523,-0.375,-0.185
6524,-0.365,-0.195
6525,-0.345,-0.175
6526,-0.355,-0.175
6527,-0.555,-0.155
6528,-0.725,0.005
6529,-0.025,0.165
6530,1.315,0.105
6531,1.785,-0.085
6532,0.195,-0.875
6533,-1.365,-1.825
6534,-1.585,-2.125
6535,-1.135,-1.735
6536,-0.625,-1.015
6537,-0.435,-0.345
6538,-0.315,-0.115
6539,-0.345,-0.015
6540,-0.265,0.025
6541,-0.215,0.045
6542,-0.255,0.055
6543,-0.225,0.065
6544,-0.245,0.055
6545,-0.185,0.085
6546,-0.105,0.125
6547,-0.105,0.135
6548,-0.075,0.175
6549,-0.005,0.205
6550,-0.005,0.245
6551,0.035,0.265
6552,0.095,0.305
6553,0.195,0.385
6554,0.235,0.465
6555,0.315,0.525
6556,0.405,0.565
6557,0.455,0.625
6558,0.435,0.635
6559,0.425,0.585
6560,0.345,0.525
6561,0.245,0.455
6562,0.115,0.365
6563,-0.005,0.245
6564,-0.075,0.125
6565,-0.145,0.055
6566,-0.215,-0.015
6567,-0.245,-0.055
6568,-0.285,-0.095
6569,-0.295,-0.115
6570,-0.295,-0.125
6571,-0.275,-0.135
6572,-0.235,-0.135
6573,-0.255,-0.115
6574,-0.255,-0.105
6575,-0.225,-0.095
6576,-0.235,-0.095
6577,-0.215,-0.085
6578,-0.245,-0.085
6579,-0.285,-0.095
6580,-0.215,-0.095
6581,-0.195,-0.075
6582,-0.225,-0.065
6583,-0.235,-0.095
6584,-0.245,-0.105
6585,-0.215,-0.105
6586,-0.135,-0.065
6587,-0.105,-0.035
6588,-0.095,-0.025
6589,-0.005,-0.005
6590,0.035,0.025
6591,-0.035,-0.015
6592,-0.015,-0.115
6593,-0.035,-0.115
6594,-0.135,-0.115
6595,-0.275,-0.155
6596,-0.285,-0.215
6597,-0.315,-0.195
6598,-0.335,-0.215
6599,-0.315,-0.225
6600,-0.285,-0.225
6601,-0.285,-0.205
6602,-0.275,-0.195
6603,-0.285,-0.185
6604,-0.255,-0.205
6605,-0.265,-0.185
6606,-0.255,-0.185
6607,-0.505,-0.135
6608,-0.495,0.045
6609,0.285,0.155
6610,1.615,0.085
6611,1.495,-0.075
6612,-0.325,-1.015
6613,-1.325,-1.895
