'sample interval','ECG0','ECG1'
'0.0078125 sec','mV','mV'
0,-0.195,-0.095
1,-0.175,-0.085
2,-0.175,-0.095
3,-0.185,-0.095
4,-0.165,-0.085
5,-0.185,-0.105
6,-0.195,-0.105
7,-0.215,-0.125
8,-0.105,-0.055
9,-0.085,-0.055
10,-0.055,-0.075
11,-0.015,-0.115
12,-0.115,-0.125
13,-0.115,-0.085
14,-0.135,-0.115
15,-0.145,-0.125
16,-0.175,-0.085
17,-0.155,-0.085
18,-0.165,-0.095
19,-0.175,-0.095
20,-0.155,-0.095
21,-0.155,-0.085
22,-0.155,-0.085
23,-0.165,-0.095
24,-0.155,-0.085
25,-0.135,-0.085
26,-0.155,-0.085
27,-0.155,-0.095
28,-0.135,-0.085
29,-0.125,-0.085
30,-0.105,-0.065
31,-0.095,-0.025
32,-0.365,0.125
33,-0.525,0.175
34,-0.015,-0.345
35,1.425,-1.155
36,2.355,-0.605
37,2.765,-0.505
38,1.665,-0.475
39,0.185,-0.075
40,-0.025,0.045
41,-0.015,0.055
42,-0.095,0.015
43,-0.145,0.005
44,-0.155,0.005
45,-0.165,0.015
46,-0.165,0.015
47,-0.175,0.005
48,-0.165,0.005
49,-0.155,0.015
50,-0.165,0.015
51,-0.155,0.005
52,-0.145,-0.005
53,-0.145,-0.005
54,-0.145,0.005
55,-0.135,-0.005
56,-0.125,-0.005
57,-0.085,0.005
58,-0.095,-0.005
59,-0.075,-0.025
60,-0.055,-0.015
61,-0.025,-0.005
62,0.015,0.005
63,0.025,-0.005
64,0.075,0.005
65,0.135,0.005
66,0.185,0.015
67,0.235,-0.005
68,0.295,0.005
69,0.355,0.005
70,0.405,0.005
71,0.465,0.005
72,0.525,0.005
73,0.595,0.025
74,0.595,0.025
75,0.545,0.025
76,0.465,0.025
77,0.345,0.025
78,0.225,0.005
79,0.075,-0.025
80,-0.035,-0.035
81,-0.105,-0.035
82,-0.155,-0.055
83,-0.195,-0.085
84,-0.205,-0.075
85,-0.205,-0.075
86,-0.215,-0.065
87,-0.225,-0.075
88,-0.215,-0.065
89,-0.195,-0.055
90,-0.205,-0.055
91,-0.215,-0.065
92,-0.205,-0.065
93,-0.185,-0.065
94,-0.185,-0.055
95,-0.195,-0.055
96,-0.195,-0.055
97,-0.175,-0.035
98,-0.195,-0.045
99,-0.215,-0.065
100,-0.195,-0.065
101,-0.185,-0.055
102,-0.195,-0.055
103,-0.205,-0.075
104,-0.195,-0.075
105,-0.185,-0.075
106,-0.195,-0.085
107,-0.225,-0.095
108,-0.215,-0.095
109,-0.215,-0.095
110,-0.215,-0.095
111,-0.215,-0.105
112,-0.215,-0.095
113,-0.215,-0.095
114,-0.215,-0.095
115,-0.215,-0.125
116,-0.205,-0.105
117,-0.205,-0.105
118,-0.205,-0.105
119,-0.205,-0.115
120,-0.205,-0.115
121,-0.185,-0.105
122,-0.205,-0.105
123,-0.205,-0.125
124,-0.195,-0.105
125,-0.185,-0.125
126,-0.175,-0.115
127,-0.165,-0.095
128,-0.105,-0.075
129,-0.095,-0.085
130,-0.055,-0.065
131,-0.005,-0.125
132,-0.095,-0.135
133,-0.125,-0.125
134,-0.145,-0.135
135,-0.185,-0.135
136,-0.175,-0.125
137,-0.175,-0.125
138,-0.205,-0.135
139,-0.195,-0.145
140,-0.195,-0.145
141,-0.185,-0.145
142,-0.185,-0.135
143,-0.195,-0.135
144,-0.185,-0.135
145,-0.165,-0.125
146,-0.175,-0.135
147,-0.175,-0.145
148,-0.165,-0.125
149,-0.135,-0.135
150,-0.145,-0.025
151,-0.465,0.045
152,-0.565,0.085
153,0.335,-0.615
154,1.805,-0.965
155,2.625,-0.545
156,2.375,-0.595
157,0.475,-0.245
158,-0.095,-0.045
159,-0.035,-0.025
160,-0.085,-0.055
161,-0.125,-0.045
162,-0.165,-0.055
163,-0.175,-0.065
164,-0.185,-0.055
165,-0.185,-0.055
166,-0.195,-0.065
167,-0.195,-0.075
168,-0.195,-0.065
169,-0.175,-0.055
170,-0.185,-0.065
171,-0.185,-0.075
172,-0.175,-0.075
173,-0.165,-0.065
174,-0.145,-0.045
175,-0.145,-0.075
176,-0.125,-0.065
177,-0.105,-0.055
178,-0.095,-0.065
179,-0.075,-0.065
180,-0.045,-0.055
181,-0.015,-0.055
182,0.015,-0.055
183,0.065,-0.055
184,0.125,-0.055
185,0.185,-0.045
186,0.245,-0.055
187,0.305,-0.065
188,0.375,-0.055
189,0.425,-0.045
190,0.475,-0.045
191,0.515,-0.045
192,0.535,-0.035
193,0.515,-0.015
194,0.425,-0.015
195,0.305,-0.025
196,0.185,-0.025
197,0.055,-0.045
198,-0.055,-0.055
199,-0.145,-0.085
200,-0.195,-0.085
201,-0.215,-0.075
202,-0.245,-0.095
203,-0.255,-0.105
204,-0.255,-0.095
205,-0.255,-0.095
206,-0.255,-0.085
207,-0.265,-0.105
208,-0.255,-0.095
209,-0.235,-0.085
210,-0.245,-0.085
211,-0.245,-0.095
212,-0.245,-0.095
213,-0.235,-0.085
214,-0.225,-0.085
215,-0.235,-0.085
216,-0.235,-0.085
217,-0.205,-0.065
218,-0.235,-0.085
219,-0.235,-0.095
220,-0.225,-0.085
221,-0.235,-0.085
222,-0.235,-0.095
223,-0.255,-0.105
224,-0.245,-0.105
225,-0.235,-0.095
226,-0.255,-0.115
227,-0.265,-0.125
228,-0.255,-0.125
229,-0.255,-0.125
230,-0.255,-0.115
231,-0.275,-0.125
232,-0.255,-0.135
233,-0.245,-0.115
234,-0.255,-0.125
235,-0.265,-0.125
236,-0.245,-0.125
237,-0.245,-0.135
238,-0.245,-0.125
239,-0.245,-0.135
240,-0.235,-0.135
241,-0.235,-0.125
242,-0.235,-0.135
243,-0.245,-0.145
244,-0.235,-0.125
245,-0.225,-0.125
246,-0.225,-0.125
247,-0.205,-0.105
248,-0.155,-0.085
249,-0.145,-0.095
250,-0.115,-0.075
251,-0.035,-0.115
252,-0.125,-0.155
253,-0.185,-0.135
254,-0.185,-0.145
255,-0.185,-0.155
256,-0.225,-0.125
257,-0.225,-0.135
258,-0.235,-0.145
259,-0.235,-0.155
260,-0.225,-0.145
261,-0.215,-0.135
262,-0.215,-0.125
263,-0.215,-0.135
264,-0.215,-0.135
265,-0.175,-0.115
266,-0.185,-0.125
267,-0.185,-0.115
268,-0.345,0.115
269,-0.585,0.165
270,-0.395,-0.145
271,0.975,-1.205
272,2.115,-0.965
273,2.625,-0.535
274,2.365,-0.615
275,0.665,-0.265
276,-0.135,-0.035
277,-0.095,-0.015
278,-0.145,-0.025
279,-0.205,-0.035
280,-0.225,-0.035
281,-0.225,-0.015
282,-0.255,-0.035
283,-0.255,-0.035
284,-0.215,-0.015
285,-0.245,-0.035
286,-0.215,-0.015
287,-0.185,-0.005
288,-0.225,-0.025
289,-0.195,-0.005
290,-0.215,-0.045
291,-0.275,-0.065
292,-0.235,-0.055
293,-0.185,-0.025
294,-0.175,-0.035
295,-0.175,-0.035
296,-0.145,-0.015
297,-0.095,-0.005
298,-0.065,0.015
299,-0.025,0.005
300,-0.025,-0.015
301,-0.015,-0.025
302,0.045,0.005
303,0.125,0.015
304,0.195,0.015
305,0.275,0.025
306,0.325,0.025
307,0.375,0.005
308,0.445,0.035
309,0.485,0.035
310,0.505,0.035
311,0.465,0.025
312,0.375,0.025
313,0.265,0.015
314,0.105,-0.015
315,-0.025,-0.045
316,-0.115,-0.065
317,-0.175,-0.065
318,-0.215,-0.075
319,-0.245,-0.085
320,-0.245,-0.085
321,-0.265,-0.095
322,-0.275,-0.095
323,-0.275,-0.095
324,-0.265,-0.085
325,-0.265,-0.085
326,-0.265,-0.085
327,-0.265,-0.085
328,-0.265,-0.075
329,-0.245,-0.065
330,-0.255,-0.065
331,-0.255,-0.085
332,-0.235,-0.075
333,-0.245,-0.065
334,-0.235,-0.065
335,-0.245,-0.085
336,-0.245,-0.075
337,-0.235,-0.075
338,-0.245,-0.085
339,-0.255,-0.095
340,-0.245,-0.095
341,-0.245,-0.095
342,-0.245,-0.095
343,-0.245,-0.105
344,-0.255,-0.095
345,-0.245,-0.095
346,-0.255,-0.105
347,-0.265,-0.115
348,-0.255,-0.105
349,-0.255,-0.105
350,-0.255,-0.105
351,-0.255,-0.115
352,-0.245,-0.115
353,-0.235,-0.105
354,-0.245,-0.115
355,-0.255,-0.115
356,-0.235,-0.105
357,-0.245,-0.105
358,-0.235,-0.105
359,-0.245,-0.115
360,-0.235,-0.115
361,-0.235,-0.105
362,-0.245,-0.115
363,-0.235,-0.115
364,-0.225,-0.105
365,-0.225,-0.115
366,-0.215,-0.105
367,-0.235,-0.115
368,-0.215,-0.115
369,-0.195,-0.095
370,-0.215,-0.105
371,-0.205,-0.115
372,-0.215,-0.125
373,-0.195,-0.115
374,-0.195,-0.095
375,-0.135,-0.055
376,-0.135,-0.085
377,-0.095,-0.045
378,-0.005,-0.075
379,-0.095,-0.145
380,-0.145,-0.105
381,-0.165,-0.125
382,-0.145,-0.105
383,-0.195,-0.115
384,-0.205,-0.115
385,-0.195,-0.105
386,-0.205,-0.105
387,-0.195,-0.115
388,-0.195,-0.115
389,-0.185,-0.115
390,-0.185,-0.105
391,-0.195,-0.115
392,-0.185,-0.105
393,-0.165,-0.095
394,-0.145,-0.075
395,-0.295,0.115
396,-0.615,0.145
397,-0.425,-0.125
398,1.035,-1.225
399,2.205,-0.835
400,2.715,-0.535
401,2.055,-0.565
402,0.435,-0.175
403,-0.115,-0.015
404,-0.055,0.005
405,-0.105,-0.005
406,-0.165,-0.005
407,-0.205,-0.005
408,-0.225,0.005
409,-0.205,0.015
410,-0.225,0.005
411,-0.245,-0.005
412,-0.225,0.005
413,-0.215,-0.005
414,-0.215,0.005
415,-0.215,-0.005
416,-0.205,-0.005
417,-0.175,0.015
418,-0.185,0.005
419,-0.195,-0.005
420,-0.165,-0.005
421,-0.155,0.005
422,-0.145,0.015
423,-0.135,0.005
424,-0.105,0.015
425,-0.055,0.035
426,-0.055,0.025
427,-0.015,0.025
428,0.025,0.035
429,0.065,0.035
430,0.125,0.045
431,0.185,0.045
432,0.245,0.045
433,0.315,0.055
434,0.365,0.055
435,0.415,0.055
436,0.465,0.055
437,0.515,0.065
438,0.525,0.075
439,0.445,0.055
440,0.345,0.055
441,0.215,0.045
442,0.075,0.005
443,-0.055,-0.015
444,-0.125,-0.035
445,-0.185,-0.045
446,-0.215,-0.055
447,-0.245,-0.055
448,-0.245,-0.065
449,-0.235,-0.055
450,-0.255,-0.065
451,-0.255,-0.075
452,-0.255,-0.075
453,-0.245,-0.065
454,-0.245,-0.065
455,-0.255,-0.065
456,-0.245,-0.065
457,-0.215,-0.045
458,-0.235,-0.055
459,-0.235,-0.055
460,-0.225,-0.055
461,-0.235,-0.045
462,-0.235,-0.045
463,-0.235,-0.065
464,-0.235,-0.055
465,-0.225,-0.045
466,-0.235,-0.055
467,-0.255,-0.075
468,-0.235,-0.065
469,-0.245,-0.075
470,-0.235,-0.075
471,-0.255,-0.095
472,-0.245,-0.085
473,-0.245,-0.075
474,-0.255,-0.095
475,-0.265,-0.095
476,-0.255,-0.095
477,-0.255,-0.095
478,-0.245,-0.085
479,-0.255,-0.105
480,-0.255,-0.095
481,-0.245,-0.095
482,-0.245,-0.105
483,-0.255,-0.105
484,-0.245,-0.105
485,-0.245,-0.095
486,-0.245,-0.105
487,-0.245,-0.105
488,-0.245,-0.115
489,-0.225,-0.105
490,-0.225,-0.105
491,-0.245,-0.115
492,-0.235,-0.105
493,-0.235,-0.105
494,-0.235,-0.095
495,-0.235,-0.105
496,-0.235,-0.095
497,-0.225,-0.095
498,-0.225,-0.105
499,-0.215,-0.105
500,-0.185,-0.065
501,-0.135,-0.065
502,-0.145,-0.075
503,-0.065,-0.055
504,-0.035,-0.105
505,-0.125,-0.105
506,-0.155,-0.105
507,-0.185,-0.135
508,-0.195,-0.105
509,-0.215,-0.105
510,-0.215,-0.115
511,-0.225,-0.105
512,-0.215,-0.105
513,-0.205,-0.095
514,-0.205,-0.085
515,-0.225,-0.115
516,-0.215,-0.105
517,-0.195,-0.105
518,-0.205,-0.095
519,-0.195,-0.105
520,-0.165,-0.085
521,-0.275,0.105
522,-0.625,0.115
523,-0.465,-0.065
524,0.875,-1.045
525,2.055,-0.895
526,2.625,-0.495
527,2.265,-0.615
528,0.555,-0.235
529,-0.105,-0.005
530,-0.085,0.025
531,-0.125,-0.015
532,-0.175,-0.015
533,-0.205,-0.005
534,-0.215,-0.005
535,-0.235,-0.015
536,-0.235,-0.005
537,-0.225,-0.005
538,-0.225,-0.005
539,-0.225,-0.015
540,-0.215,-0.015
541,-0.215,-0.005
542,-0.205,-0.005
543,-0.205,-0.025
544,-0.195,-0.015
545,-0.175,-0.005
546,-0.175,-0.005
547,-0.165,-0.015
548,-0.135,-0.015
549,-0.105,-0.015
550,-0.085,-0.005
551,-0.075,-0.015
552,-0.035,-0.015
553,0.005,0.005
554,0.045,0.005
555,0.085,0.005
556,0.155,0.005
557,0.215,0.005
558,0.295,0.015
559,0.345,-0.005
560,0.405,0.005
561,0.455,0.025
562,0.515,0.025
563,0.535,0.005
564,0.515,0.035
565,0.445,0.035
566,0.325,0.035
567,0.185,0.005
568,0.055,-0.015
569,-0.035,-0.015
570,-0.115,-0.035
571,-0.185,-0.055
572,-0.215,-0.055
573,-0.225,-0.055
574,-0.225,-0.065
575,-0.235,-0.075
576,-0.245,-0.065
577,-0.225,-0.055
578,-0.225,-0.065
579,-0.225,-0.065
580,-0.225,-0.055
581,-0.215,-0.055
582,-0.215,-0.055
583,-0.215,-0.055
584,-0.215,-0.065
585,-0.205,-0.045
586,-0.205,-0.045
587,-0.205,-0.055
588,-0.195,-0.045
589,-0.195,-0.055
590,-0.205,-0.055
591,-0.205,-0.075
592,-0.215,-0.065
593,-0.195,-0.055
594,-0.205,-0.075
595,-0.215,-0.085
596,-0.215,-0.085
597,-0.215,-0.075
598,-0.225,-0.075
599,-0.235,-0.095
600,-0.215,-0.095
601,-0.195,-0.085
602,-0.225,-0.085
603,-0.235,-0.105
604,-0.215,-0.095
605,-0.215,-0.095
606,-0.215,-0.085
607,-0.235,-0.105
608,-0.215,-0.095
609,-0.195,-0.085
610,-0.195,-0.105
611,-0.215,-0.105
612,-0.205,-0.105
613,-0.205,-0.095
614,-0.205,-0.085
615,-0.205,-0.105
616,-0.205,-0.105
617,-0.175,-0.085
618,-0.185,-0.095
619,-0.195,-0.105
620,-0.185,-0.105
621,-0.185,-0.105
622,-0.175,-0.095
623,-0.165,-0.085
624,-0.095,-0.075
625,-0.095,-0.075
626,-0.055,-0.045
627,0.005,-0.095
628,-0.075,-0.135
629,-0.105,-0.105
630,-0.125,-0.115
631,-0.165,-0.105
632,-0.165,-0.105
633,-0.155,-0.115
634,-0.175,-0.115
635,-0.175,-0.115
636,-0.165,-0.105
637,-0.165,-0.115
638,-0.155,-0.105
639,-0.175,-0.115
640,-0.165,-0.125
641,-0.145,-0.105
642,-0.155,-0.115
643,-0.155,-0.115
644,-0.135,-0.115
645,-0.105,-0.075
646,-0.295,0.095
647,-0.555,0.105
648,-0.235,-0.145
649,1.305,-1.045
650,2.335,-0.645
651,2.755,-0.515
652,1.895,-0.545
653,0.305,-0.185
654,-0.045,-0.015
655,0.005,0.005
656,-0.055,-0.035
657,-0.115,-0.025
658,-0.155,-0.025
659,-0.165,-0.035
660,-0.175,-0.035
661,-0.175,-0.045
662,-0.175,-0.025
663,-0.185,-0.035
664,-0.165,-0.035
665,-0.155,-0.025
666,-0.155,-0.035
667,-0.155,-0.035
668,-0.145,-0.055
669,-0.125,-0.045
670,-0.115,-0.035
671,-0.115,-0.045
672,-0.095,-0.045
673,-0.055,-0.025
674,-0.045,-0.025
675,-0.035,-0.045
676,0.005,-0.035
677,0.035,-0.025
678,0.085,0.005
679,0.115,-0.025
680,0.175,-0.025
681,0.255,-0.005
682,0.305,-0.015
683,0.365,-0.025
684,0.435,-0.015
685,0.495,-0.005
686,0.545,-0.005
687,0.585,-0.005
688,0.565,0.005
689,0.515,0.025
690,0.395,0.025
691,0.255,-0.005
692,0.125,-0.015
693,0.015,-0.025
694,-0.065,-0.045
695,-0.125,-0.065
696,-0.155,-0.065
697,-0.165,-0.065
698,-0.185,-0.075
699,-0.195,-0.085
700,-0.195,-0.065
701,-0.185,-0.065
702,-0.175,-0.065
703,-0.185,-0.065
704,-0.185,-0.065
705,-0.165,-0.055
706,-0.185,-0.045
707,-0.185,-0.065
708,-0.155,-0.055
709,-0.155,-0.055
710,-0.155,-0.045
711,-0.165,-0.055
712,-0.165,-0.055
713,-0.135,-0.045
714,-0.155,-0.055
715,-0.165,-0.055
716,-0.165,-0.065
717,-0.155,-0.065
718,-0.165,-0.065
719,-0.175,-0.085
720,-0.175,-0.085
721,-0.165,-0.075
722,-0.175,-0.085
723,-0.185,-0.105
724,-0.185,-0.095
725,-0.185,-0.085
726,-0.175,-0.085
727,-0.185,-0.105
728,-0.185,-0.105
729,-0.175,-0.085
730,-0.175,-0.095
731,-0.185,-0.105
732,-0.175,-0.105
733,-0.175,-0.105
734,-0.175,-0.095
735,-0.175,-0.105
736,-0.165,-0.105
737,-0.155,-0.085
738,-0.175,-0.105
739,-0.175,-0.105
740,-0.165,-0.105
741,-0.155,-0.105
742,-0.165,-0.105
743,-0.165,-0.115
744,-0.155,-0.105
745,-0.135,-0.085
746,-0.155,-0.105
747,-0.145,-0.105
748,-0.145,-0.095
749,-0.135,-0.105
750,-0.105,-0.075
751,-0.065,-0.065
752,-0.085,-0.075
753,-0.015,-0.035
754,0.045,-0.105
755,-0.075,-0.125
756,-0.085,-0.105
757,-0.095,-0.125
758,-0.105,-0.115
759,-0.145,-0.105
760,-0.155,-0.115
761,-0.135,-0.105
762,-0.135,-0.105
763,-0.145,-0.105
764,-0.145,-0.105
765,-0.135,-0.095
766,-0.135,-0.105
767,-0.145,-0.105
768,-0.145,-0.105
769,-0.125,-0.095
770,-0.125,-0.105
771,-0.125,-0.115
772,-0.105,-0.095
773,-0.075,-0.095
774,-0.165,0.115
775,-0.525,0.155
776,-0.405,-0.065
777,0.925,-1.175
778,2.155,-0.955
779,2.745,-0.555
780,2.075,-0.535
781,0.445,-0.095
782,-0.005,0.055
783,-0.015,0.025
784,-0.065,-0.005
785,-0.115,0.015
786,-0.145,0.005
787,-0.175,-0.005
788,-0.165,-0.005
789,-0.165,0.005
790,-0.165,0.005
791,-0.175,-0.005
792,-0.165,-0.005
793,-0.155,0.005
794,-0.155,0.005
795,-0.155,-0.015
796,-0.145,-0.005
797,-0.125,-0.005
798,-0.115,0.005
799,-0.105,-0.015
800,-0.085,-0.005
801,-0.065,0.005
802,-0.045,0.005
803,-0.035,0.005
804,-0.005,0.005
805,0.025,0.005
806,0.065,0.015
807,0.085,0.005
808,0.145,0.025
809,0.215,0.045
810,0.285,0.035
811,0.345,0.035
812,0.415,0.035
813,0.475,0.055
814,0.525,0.055
815,0.565,0.045
816,0.595,0.055
817,0.585,0.065
818,0.485,0.065
819,0.365,0.035
820,0.255,0.015
821,0.115,-0.005
822,0.005,-0.015
823,-0.095,-0.045
824,-0.135,-0.055
825,-0.155,-0.035
826,-0.195,-0.055
827,-0.215,-0.075
828,-0.205,-0.065
829,-0.205,-0.065
830,-0.205,-0.065
831,-0.205,-0.075
832,-0.205,-0.065
833,-0.185,-0.055
834,-0.195,-0.045
835,-0.195,-0.045
836,-0.185,-0.045
837,-0.175,-0.045
838,-0.175,-0.045
839,-0.185,-0.045
840,-0.175,-0.055
841,-0.165,-0.035
842,-0.175,-0.045
843,-0.185,-0.055
844,-0.175,-0.045
845,-0.175,-0.055
846,-0.175,-0.055
847,-0.195,-0.075
848,-0.185,-0.075
849,-0.175,-0.055
850,-0.195,-0.065
851,-0.195,-0.085
852,-0.185,-0.085
853,-0.185,-0.075
854,-0.185,-0.075
855,-0.205,-0.085
856,-0.195,-0.095
857,-0.185,-0.095
858,-0.195,-0.095
859,-0.195,-0.095
860,-0.195,-0.095
861,-0.195,-0.085
862,-0.185,-0.085
863,-0.195,-0.105
864,-0.185,-0.095
865,-0.175,-0.075
866,-0.185,-0.095
867,-0.195,-0.105
868,-0.175,-0.095
869,-0.175,-0.095
870,-0.185,-0.085
871,-0.185,-0.105
872,-0.175,-0.095
873,-0.155,-0.085
874,-0.165,-0.095
875,-0.175,-0.095
876,-0.165,-0.095
877,-0.175,-0.085
878,-0.165,-0.085
879,-0.165,-0.095
880,-0.155,-0.095
881,-0.145,-0.075
882,-0.145,-0.085
883,-0.155,-0.085
884,-0.135,-0.075
885,-0.135,-0.095
886,-0.155,-0.105
887,-0.195,-0.115
888,-0.095,-0.045
889,-0.035,-0.045
890,-0.045,-0.075
891,0.015,-0.105
892,-0.065,-0.125
893,-0.095,-0.095
894,-0.115,-0.105
895,-0.115,-0.115
896,-0.155,-0.085
897,-0.135,-0.085
898,-0.145,-0.095
899,-0.145,-0.095
900,-0.135,-0.085
901,-0.135,-0.075
902,-0.125,-0.075
903,-0.135,-0.095
904,-0.145,-0.085
905,-0.125,-0.065
906,-0.135,-0.065
907,-0.135,-0.095
908,-0.125,-0.075
909,-0.115,-0.085
910,-0.105,-0.075
911,-0.085,-0.075
912,-0.135,0.105
913,-0.495,0.185
914,-0.445,0.025
915,0.745,-1.075
916,2.065,-1.045
917,2.645,-0.505
918,2.455,-0.575
919,0.745,-0.165
920,-0.025,0.045
921,0.015,0.085
922,-0.065,0.045
923,-0.135,0.025
924,-0.155,0.025
925,-0.165,0.025
926,-0.175,0.025
927,-0.175,0.005
928,-0.175,0.025
929,-0.165,0.025
930,-0.165,0.025
931,-0.175,0.005
932,-0.155,0.015
933,-0.145,0.015
934,-0.135,0.015
935,-0.135,0.005
936,-0.125,0.005
937,-0.095,0.025
938,-0.095,0.025
939,-0.085,0.015
940,-0.065,0.015
941,-0.035,0.035
942,-0.015,0.035
943,0.005,0.025
944,0.045,0.035
945,0.095,0.045
946,0.145,0.055
947,0.195,0.055
948,0.265,0.065
949,0.335,0.065
950,0.395,0.065
951,0.435,0.065
952,0.495,0.075
953,0.545,0.085
954,0.565,0.085
955,0.555,0.075
956,0.475,0.065
957,0.355,0.065
958,0.215,0.035
959,0.095,0.005
960,-0.015,-0.015
961,-0.085,-0.015
962,-0.155,-0.035
963,-0.195,-0.055
964,-0.205,-0.065
965,-0.205,-0.045
966,-0.215,-0.045
967,-0.215,-0.055
968,-0.215,-0.055
969,-0.205,-0.045
970,-0.215,-0.035
971,-0.215,-0.055
972,-0.195,-0.045
973,-0.195,-0.035
974,-0.195,-0.035
975,-0.205,-0.045
976,-0.185,-0.035
977,-0.185,-0.025
978,-0.185,-0.025
979,-0.205,-0.045
980,-0.195,-0.045
981,-0.185,-0.025
982,-0.185,-0.035
983,-0.205,-0.055
984,-0.195,-0.065
985,-0.175,-0.045
986,-0.205,-0.065
987,-0.205,-0.075
988,-0.205,-0.075
989,-0.205,-0.065
990,-0.195,-0.075
991,-0.215,-0.085
992,-0.205,-0.075
993,-0.185,-0.065
994,-0.205,-0.085
995,-0.215,-0.085
996,-0.205,-0.085
997,-0.205,-0.085
998,-0.215,-0.085
999,-0.215,-0.095
1000,-0.205,-0.085
1001,-0.195,-0.075
1002,-0.195,-0.085
1003,-0.205,-0.095
1004,-0.195,-0.085
1005,-0.195,-0.095
1006,-0.195,-0.085
1007,-0.195,-0.085
1008,-0.185,-0.095
1009,-0.185,-0.095
1010,-0.185,-0.085
1011,-0.185,-0.105
1012,-0.185,-0.095
1013,-0.185,-0.095
1014,-0.175,-0.085
1015,-0.175,-0.105
1016,-0.175,-0.095
1017,-0.165,-0.075
1018,-0.155,-0.075
1019,-0.185,-0.115
1020,-0.205,-0.125
1021,-0.175,-0.095
1022,-0.085,-0.055
1023,-0.095,-0.085
1024,-0.025,-0.105
1025,-0.005,-0.115
1026,-0.115,-0.105
1027,-0.125,-0.115
1028,-0.125,-0.115
1029,-0.165,-0.105
1030,-0.175,-0.085
1031,-0.175,-0.105
1032,-0.165,-0.095
1033,-0.135,-0.075
1034,-0.155,-0.095
1035,-0.155,-0.105
1036,-0.155,-0.095
1037,-0.165,-0.085
1038,-0.155,-0.075
1039,-0.155,-0.095
1040,-0.145,-0.085
1041,-0.115,-0.065
1042,-0.125,-0.065
1043,-0.135,-0.075
1044,-0.095,-0.075
1045,-0.125,0.075
1046,-0.505,0.135
1047,-0.435,-0.045
1048,1.005,-0.985
1049,2.185,-0.735
1050,2.735,-0.465
1051,2.055,-0.535
1052,0.375,-0.145
1053,-0.045,0.045
1054,-0.005,0.045
1055,-0.085,-0.005
1056,-0.125,-0.005
1057,-0.135,0.015
1058,-0.155,0.005
1059,-0.185,-0.005
1060,-0.175,0.005
1061,-0.165,-0.005
1062,-0.165,-0.005
1063,-0.165,-0.015
1064,-0.155,-0.005
1065,-0.145,-0.005
1066,-0.145,-0.015
1067,-0.135,-0.025
1068,-0.135,-0.025
1069,-0.125,-0.015
1070,-0.105,-0.005
1071,-0.105,-0.025
1072,-0.085,-0.025
1073,-0.045,-0.005
1074,-0.035,-0.015
1075,-0.025,-0.015
1076,0.015,-0.005
1077,0.045,-0.005
1078,0.095,0.005
1079,0.145,-0.005
1080,0.205,0.005
1081,0.285,0.015
1082,0.335,0.005
1083,0.385,-0.005
1084,0.455,0.015
1085,0.505,0.015
1086,0.555,0.015
1087,0.585,0.015
1088,0.565,0.035
1089,0.515,0.035
1090,0.395,0.025
1091,0.255,-0.005
1092,0.105,-0.005
1093,-0.005,-0.025
1094,-0.075,-0.035
1095,-0.155,-0.065
1096,-0.185,-0.065
1097,-0.195,-0.055
1098,-0.215,-0.065
1099,-0.225,-0.075
1100,-0.215,-0.065
1101,-0.225,-0.065
1102,-0.215,-0.055
1103,-0.225,-0.065
1104,-0.225,-0.065
1105,-0.195,-0.045
1106,-0.205,-0.055
1107,-0.205,-0.065
1108,-0.195,-0.055
1109,-0.185,-0.065
1110,-0.185,-0.055
1111,-0.205,-0.065
1112,-0.205,-0.055
1113,-0.185,-0.055
1114,-0.205,-0.065
1115,-0.215,-0.075
1116,-0.205,-0.065
1117,-0.215,-0.085
1118,-0.205,-0.075
1119,-0.225,-0.085
1120,-0.215,-0.085
1121,-0.205,-0.075
1122,-0.225,-0.095
1123,-0.235,-0.095
1124,-0.235,-0.105
1125,-0.235,-0.095
1126,-0.225,-0.095
1127,-0.245,-0.105
1128,-0.235,-0.105
1129,-0.215,-0.085
1130,-0.245,-0.095
1131,-0.245,-0.105
1132,-0.235,-0.105
1133,-0.235,-0.105
1134,-0.225,-0.105
1135,-0.235,-0.105
1136,-0.225,-0.105
1137,-0.215,-0.105
1138,-0.225,-0.105
1139,-0.235,-0.115
1140,-0.215,-0.115
1141,-0.225,-0.105
1142,-0.215,-0.115
1143,-0.215,-0.105
1144,-0.165,-0.075
1145,-0.135,-0.075
1146,-0.125,-0.055
1147,-0.025,-0.095
1148,-0.095,-0.135
1149,-0.155,-0.115
1150,-0.175,-0.135
1151,-0.205,-0.135
1152,-0.215,-0.115
1153,-0.215,-0.115
1154,-0.225,-0.135
1155,-0.235,-0.135
1156,-0.215,-0.125
1157,-0.225,-0.135
1158,-0.225,-0.115
1159,-0.235,-0.135
1160,-0.225,-0.135
1161,-0.215,-0.115
1162,-0.225,-0.125
1163,-0.225,-0.135
1164,-0.215,-0.125
1165,-0.195,-0.125
1166,-0.165,-0.095
1167,-0.285,0.075
1168,-0.615,0.125
1169,-0.405,-0.105
1170,1.015,-1.075
1171,2.175,-0.745
1172,2.695,-0.525
1173,2.055,-0.545
1174,0.355,-0.155
1175,-0.135,-0.015
1176,-0.105,-0.005
1177,-0.145,-0.025
1178,-0.205,-0.025
1179,-0.245,-0.045
1180,-0.255,-0.045
1181,-0.255,-0.045
1182,-0.255,-0.035
1183,-0.265,-0.055
1184,-0.255,-0.045
1185,-0.235,-0.035
1186,-0.245,-0.045
1187,-0.245,-0.055
1188,-0.235,-0.045
1189,-0.235,-0.045
1190,-0.215,-0.045
1191,-0.225,-0.055
1192,-0.195,-0.045
1193,-0.175,-0.035
1194,-0.165,-0.045
1195,-0.145,-0.055
1196,-0.115,-0.045
1197,-0.095,-0.035
1198,-0.065,-0.025
1199,-0.035,-0.025
1200,0.015,-0.025
1201,0.075,-0.005
1202,0.125,-0.015
1203,0.195,-0.015
1204,0.275,-0.005
1205,0.325,0.005
1206,0.385,0.005
1207,0.435,-0.015
1208,0.465,0.015
1209,0.505,0.025
1210,0.465,0.005
1211,0.365,0.005
1212,0.265,0.015
1213,0.125,-0.015
1214,-0.005,-0.035
1215,-0.115,-0.065
1216,-0.195,-0.065
1217,-0.245,-0.075
1218,-0.285,-0.085
1219,-0.305,-0.095
1220,-0.305,-0.095
1221,-0.315,-0.095
1222,-0.305,-0.085
1223,-0.305,-0.095
1224,-0.315,-0.085
1225,-0.295,-0.085
1226,-0.305,-0.085
1227,-0.305,-0.085
1228,-0.295,-0.085
1229,-0.285,-0.075
1230,-0.275,-0.075
1231,-0.285,-0.085
1232,-0.285,-0.075
1233,-0.265,-0.055
1234,-0.275,-0.065
1235,-0.285,-0.085
1236,-0.275,-0.075
1237,-0.275,-0.085
1238,-0.275,-0.075
1239,-0.285,-0.085
1240,-0.285,-0.095
1241,-0.285,-0.085
1242,-0.295,-0.085
1243,-0.295,-0.105
1244,-0.295,-0.105
1245,-0.295,-0.105
1246,-0.295,-0.095
1247,-0.305,-0.105
1248,-0.295,-0.115
1249,-0.295,-0.105
1250,-0.305,-0.115
1251,-0.305,-0.115
1252,-0.295,-0.115
1253,-0.305,-0.125
1254,-0.285,-0.115
1255,-0.305,-0.125
1256,-0.295,-0.125
1257,-0.275,-0.105
1258,-0.295,-0.115
1259,-0.295,-0.125
1260,-0.285,-0.125
1261,-0.275,-0.125
1262,-0.275,-0.115
1263,-0.295,-0.125
1264,-0.275,-0.115
1265,-0.245,-0.105
1266,-0.275,-0.115
1267,-0.275,-0.135
1268,-0.255,-0.115
1269,-0.265,-0.115
1270,-0.265,-0.115
1271,-0.275,-0.125
1272,-0.265,-0.125
1273,-0.235,-0.115
1274,-0.255,-0.115
1275,-0.255,-0.125
1276,-0.245,-0.115
1277,-0.205,-0.075
1278,-0.155,-0.065
1279,-0.175,-0.095
1280,-0.115,-0.055
1281,-0.035,-0.095
1282,-0.165,-0.135
1283,-0.195,-0.135
1284,-0.215,-0.145
1285,-0.225,-0.115
1286,-0.245,-0.105
1287,-0.255,-0.135
1288,-0.255,-0.135
1289,-0.225,-0.105
1290,-0.245,-0.125
1291,-0.265,-0.125
1292,-0.255,-0.125
1293,-0.245,-0.115
1294,-0.245,-0.115
1295,-0.255,-0.125
1296,-0.235,-0.115
1297,-0.225,-0.105
1298,-0.195,-0.105
1299,-0.225,0.015
1300,-0.535,0.095
1301,-0.655,0.115
1302,0.065,-0.745
1303,1.585,-1.315
1304,2.455,-0.605
1305,2.615,-0.625
1306,0.895,-0.265
1307,-0.115,-0.025
1308,-0.115,0.025
1309,-0.145,-0.005
1310,-0.195,-0.005
1311,-0.255,-0.015
1312,-0.265,-0.025
1313,-0.255,0.005
1314,-0.275,-0.015
1315,-0.275,-0.035
1316,-0.265,-0.025
1317,-0.265,-0.015
1318,-0.255,-0.015
1319,-0.245,-0.035
1320,-0.235,-0.025
1321,-0.215,-0.005
1322,-0.215,-0.005
1323,-0.215,-0.015
1324,-0.195,-0.015
1325,-0.175,-0.015
1326,-0.165,-0.005
1327,-0.155,-0.015
1328,-0.125,-0.005
1329,-0.085,0.015
1330,-0.075,0.015
1331,-0.055,0.005
1332,-0.005,0.015
1333,0.035,0.025
1334,0.085,0.035
1335,0.145,0.025
1336,0.215,0.045
1337,0.295,0.065
1338,0.355,0.055
1339,0.405,0.045
1340,0.445,0.055
1341,0.495,0.075
1342,0.505,0.075
1343,0.455,0.055
1344,0.355,0.045
1345,0.235,0.035
1346,0.095,0.005
1347,-0.035,-0.025
1348,-0.145,-0.045
1349,-0.205,-0.055
1350,-0.245,-0.065
1351,-0.265,-0.085
1352,-0.275,-0.075
1353,-0.265,-0.065
1354,-0.265,-0.075
1355,-0.285,-0.085
1356,-0.255,-0.085
1357,-0.265,-0.075
1358,-0.255,-0.065
1359,-0.255,-0.075
1360,-0.245,-0.065
1361,-0.235,-0.055
1362,-0.235,-0.065
1363,-0.235,-0.065
1364,-0.225,-0.055
1365,-0.235,-0.045
1366,-0.225,-0.055
1367,-0.235,-0.065
1368,-0.235,-0.065
1369,-0.225,-0.055
1370,-0.225,-0.065
1371,-0.235,-0.075
1372,-0.225,-0.075
1373,-0.235,-0.075
1374,-0.235,-0.075
1375,-0.235,-0.095
1376,-0.235,-0.095
1377,-0.225,-0.085
1378,-0.235,-0.085
1379,-0.245,-0.115
1380,-0.245,-0.105
1381,-0.245,-0.105
1382,-0.245,-0.095
1383,-0.255,-0.115
1384,-0.245,-0.105
1385,-0.215,-0.095
1386,-0.235,-0.105
1387,-0.245,-0.115
1388,-0.235,-0.105
1389,-0.235,-0.105
1390,-0.235,-0.095
1391,-0.235,-0.115
1392,-0.225,-0.105
1393,-0.205,-0.085
1394,-0.225,-0.105
1395,-0.225,-0.115
1396,-0.215,-0.115
1397,-0.215,-0.115
1398,-0.215,-0.105
1399,-0.215,-0.115
1400,-0.215,-0.105
1401,-0.185,-0.095
1402,-0.205,-0.105
1403,-0.205,-0.115
1404,-0.205,-0.115
1405,-0.195,-0.105
1406,-0.195,-0.105
1407,-0.205,-0.115
1408,-0.185,-0.105
1409,-0.165,-0.095
1410,-0.175,-0.105
1411,-0.185,-0.115
1412,-0.185,-0.095
1413,-0.175,-0.105
1414,-0.185,-0.105
1415,-0.145,-0.065
1416,-0.085,-0.065
1417,-0.075,-0.055
1418,0.005,-0.035
1419,-0.015,-0.125
1420,-0.115,-0.125
1421,-0.125,-0.125
1422,-0.125,-0.115
1423,-0.165,-0.105
1424,-0.165,-0.115
1425,-0.155,-0.105
1426,-0.175,-0.115
1427,-0.175,-0.115
1428,-0.175,-0.115
1429,-0.175,-0.105
1430,-0.165,-0.095
1431,-0.175,-0.115
1432,-0.175,-0.105
1433,-0.145,-0.095
1434,-0.145,-0.105
1435,-0.155,-0.105
1436,-0.135,-0.105
1437,-0.135,0.025
1438,-0.455,0.115
1439,-0.585,0.105
1440,0.265,-0.845
1441,1.765,-1.205
1442,2.525,-0.545
1443,2.585,-0.615
1444,0.945,-0.275
1445,-0.055,0.005
1446,-0.045,0.045
1447,-0.105,-0.005
1448,-0.145,-0.005
1449,-0.155,0.015
1450,-0.195,-0.005
1451,-0.215,-0.005
1452,-0.205,-0.005
1453,-0.195,-0.015
1454,-0.195,-0.005
1455,-0.195,-0.015
1456,-0.185,-0.015
1457,-0.155,0.005
1458,-0.175,-0.005
1459,-0.175,-0.015
1460,-0.155,-0.015
1461,-0.145,-0.015
1462,-0.135,-0.005
1463,-0.135,-0.015
1464,-0.105,-0.005
1465,-0.055,0.015
1466,-0.065,0.015
1467,-0.055,-0.005
1468,-0.015,0.005
1469,0.025,0.015
1470,0.065,0.035
1471,0.095,0.025
1472,0.155,0.035
1473,0.235,0.065
1474,0.285,0.055
1475,0.335,0.045
1476,0.405,0.055
1477,0.455,0.055
1478,0.505,0.075
1479,0.525,0.075
1480,0.555,0.085
1481,0.525,0.075
1482,0.445,0.065
1483,0.325,0.045
1484,0.195,0.025
1485,0.075,-0.005
1486,-0.025,-0.035
1487,-0.105,-0.045
1488,-0.175,-0.055
1489,-0.195,-0.055
1490,-0.225,-0.065
1491,-0.215,-0.075
1492,-0.225,-0.075
1493,-0.225,-0.075
1494,-0.215,-0.065
1495,-0.225,-0.075
1496,-0.215,-0.065
1497,-0.205,-0.065
1498,-0.205,-0.065
1499,-0.205,-0.065
1500,-0.195,-0.055
1501,-0.195,-0.055
1502,-0.185,-0.055
1503,-0.205,-0.065
1504,-0.195,-0.065
1505,-0.165,-0.035
1506,-0.195,-0.055
1507,-0.205,-0.075
1508,-0.195,-0.065
1509,-0.205,-0.065
1510,-0.205,-0.065
1511,-0.215,-0.075
1512,-0.215,-0.085
1513,-0.205,-0.075
1514,-0.215,-0.095
1515,-0.225,-0.105
1516,-0.215,-0.095
1517,-0.215,-0.085
1518,-0.205,-0.085
1519,-0.225,-0.105
1520,-0.215,-0.095
1521,-0.205,-0.095
1522,-0.215,-0.095
1523,-0.225,-0.115
1524,-0.215,-0.105
1525,-0.205,-0.105
1526,-0.215,-0.095
1527,-0.215,-0.105
1528,-0.205,-0.115
1529,-0.185,-0.085
1530,-0.205,-0.095
1531,-0.215,-0.105
1532,-0.205,-0.105
1533,-0.185,-0.095
1534,-0.195,-0.095
1535,-0.195,-0.105
1536,-0.195,-0.115
1537,-0.185,-0.095
1538,-0.185,-0.105
1539,-0.195,-0.115
1540,-0.175,-0.105
1541,-0.185,-0.095
1542,-0.175,-0.105
1543,-0.165,-0.095
1544,-0.125,-0.045
1545,-0.095,-0.055
1546,-0.095,-0.055
1547,0.015,-0.075
1548,-0.045,-0.125
1549,-0.125,-0.095
1550,-0.135,-0.115
1551,-0.155,-0.135
1552,-0.185,-0.095
1553,-0.175,-0.095
1554,-0.185,-0.105
1555,-0.185,-0.115
1556,-0.175,-0.105
1557,-0.175,-0.095
1558,-0.165,-0.105
1559,-0.185,-0.105
1560,-0.185,-0.095
1561,-0.165,-0.095
1562,-0.165,-0.105
1563,-0.165,-0.115
1564,-0.125,-0.065
1565,-0.285,0.105
1566,-0.615,0.135
1567,-0.255,-0.275
1568,1.275,-1.195
1569,2.255,-0.705
1570,2.705,-0.485
1571,1.885,-0.575
1572,0.345,-0.175
1573,-0.095,0.015
1574,-0.075,0.025
1575,-0.125,-0.005
1576,-0.175,-0.005
1577,-0.175,0.005
1578,-0.205,-0.005
1579,-0.205,-0.005
1580,-0.195,0.005
1581,-0.195,0.005
1582,-0.195,0.005
1583,-0.205,-0.015
1584,-0.205,-0.005
1585,-0.175,-0.005
1586,-0.175,-0.005
1587,-0.185,-0.025
1588,-0.155,-0.015
1589,-0.145,-0.005
1590,-0.135,-0.005
1591,-0.135,-0.015
1592,-0.115,-0.005
1593,-0.085,0.015
1594,-0.075,0.005
1595,-0.065,-0.005
1596,-0.025,-0.005
1597,0.005,0.015
1598,0.045,0.025
1599,0.085,0.005
1600,0.145,0.015
1601,0.235,0.035
1602,0.275,0.035
1603,0.325,0.025
1604,0.395,0.035
1605,0.445,0.045
1606,0.495,0.045
1607,0.525,0.035
1608,0.535,0.045
1609,0.505,0.075
1610,0.385,0.045
1611,0.255,0.025
1612,0.125,0.005
1613,0.005,-0.005
1614,-0.085,-0.025
1615,-0.155,-0.055
1616,-0.195,-0.065
1617,-0.195,-0.055
1618,-0.225,-0.065
1619,-0.245,-0.075
1620,-0.235,-0.065
1621,-0.225,-0.065
1622,-0.215,-0.055
1623,-0.235,-0.075
1624,-0.225,-0.065
1625,-0.205,-0.045
1626,-0.215,-0.055
1627,-0.205,-0.055
1628,-0.195,-0.055
1629,-0.185,-0.045
1630,-0.195,-0.045
1631,-0.205,-0.055
1632,-0.195,-0.055
1633,-0.195,-0.055
1634,-0.205,-0.055
1635,-0.215,-0.075
1636,-0.205,-0.065
1637,-0.205,-0.065
1638,-0.205,-0.075
1639,-0.215,-0.085
1640,-0.215,-0.085
1641,-0.215,-0.075
1642,-0.205,-0.085
1643,-0.215,-0.095
1644,-0.215,-0.095
1645,-0.215,-0.095
1646,-0.215,-0.095
1647,-0.215,-0.105
1648,-0.225,-0.095
1649,-0.215,-0.085
1650,-0.205,-0.095
1651,-0.205,-0.115
1652,-0.215,-0.095
1653,-0.205,-0.105
1654,-0.205,-0.095
1655,-0.205,-0.115
1656,-0.205,-0.095
1657,-0.195,-0.095
1658,-0.195,-0.095
1659,-0.195,-0.105
1660,-0.195,-0.105
1661,-0.185,-0.095
1662,-0.185,-0.105
1663,-0.195,-0.115
1664,-0.195,-0.105
1665,-0.165,-0.095
1666,-0.185,-0.105
1667,-0.185,-0.115
1668,-0.185,-0.105
1669,-0.175,-0.115
1670,-0.165,-0.105
1671,-0.135,-0.065
1672,-0.095,-0.065
1673,-0.095,-0.055
1674,-0.005,-0.045
1675,-0.005,-0.115
1676,-0.085,-0.115
1677,-0.095,-0.115
1678,-0.125,-0.135
1679,-0.165,-0.115
1680,-0.155,-0.105
1681,-0.155,-0.105
1682,-0.175,-0.105
1683,-0.175,-0.125
1684,-0.155,-0.115
1685,-0.155,-0.115
1686,-0.155,-0.105
1687,-0.155,-0.115
1688,-0.155,-0.115
1689,-0.125,-0.095
1690,-0.135,-0.105
1691,-0.115,-0.065
1692,-0.355,0.075
1693,-0.595,0.105
1694,-0.185,-0.225
1695,1.285,-1.065
1696,2.265,-0.595
1697,2.765,-0.485
1698,1.525,-0.465
1699,0.085,-0.105
1700,-0.045,0.015
1701,-0.055,0.005
1702,-0.095,-0.005
1703,-0.135,-0.015
1704,-0.155,-0.015
1705,-0.145,-0.005
1706,-0.175,-0.005
1707,-0.175,-0.015
1708,-0.175,-0.015
1709,-0.175,-0.015
1710,-0.175,-0.005
1711,-0.155,-0.015
1712,-0.155,-0.025
1713,-0.145,-0.025
1714,-0.135,-0.025
1715,-0.135,-0.025
1716,-0.115,-0.025
1717,-0.105,-0.025
1718,-0.095,-0.015
1719,-0.075,-0.025
1720,-0.045,-0.015
1721,-0.005,-0.005
1722,0.005,-0.015
1723,0.025,-0.025
1724,0.075,-0.015
1725,0.135,-0.005
1726,0.185,0.005
1727,0.225,-0.015
1728,0.295,-0.005
1729,0.375,0.015
1730,0.415,0.005
1731,0.455,0.005
1732,0.515,0.015
1733,0.565,0.025
1734,0.575,0.035
1735,0.515,0.025
1736,0.415,0.035
1737,0.305,0.025
1738,0.155,0.005
1739,0.015,-0.035
1740,-0.075,-0.045
1741,-0.135,-0.045
1742,-0.165,-0.045
1743,-0.195,-0.055
1744,-0.205,-0.055
1745,-0.205,-0.045
1746,-0.205,-0.055
1747,-0.205,-0.055
1748,-0.195,-0.055
1749,-0.195,-0.035
1750,-0.195,-0.045
1751,-0.195,-0.055
1752,-0.195,-0.055
1753,-0.175,-0.035
1754,-0.185,-0.045
1755,-0.185,-0.055
1756,-0.175,-0.035
1757,-0.175,-0.035
1758,-0.165,-0.035
1759,-0.185,-0.045
1760,-0.185,-0.055
1761,-0.175,-0.045
1762,-0.185,-0.055
1763,-0.195,-0.065
1764,-0.185,-0.055
1765,-0.185,-0.055
1766,-0.195,-0.055
1767,-0.205,-0.075
1768,-0.205,-0.075
1769,-0.185,-0.065
1770,-0.185,-0.075
1771,-0.205,-0.085
1772,-0.195,-0.075
1773,-0.195,-0.075
1774,-0.205,-0.075
1775,-0.205,-0.095
1776,-0.195,-0.085
1777,-0.185,-0.065
1778,-0.195,-0.075
1779,-0.205,-0.085
1780,-0.195,-0.085
1781,-0.195,-0.095
1782,-0.195,-0.075
1783,-0.195,-0.095
1784,-0.185,-0.085
1785,-0.175,-0.075
1786,-0.185,-0.085
1787,-0.195,-0.095
1788,-0.175,-0.085
1789,-0.165,-0.085
1790,-0.175,-0.085
1791,-0.185,-0.105
1792,-0.155,-0.075
1793,-0.095,-0.025
1794,-0.105,-0.045
1795,-0.095,-0.045
1796,0.015,-0.045
1797,-0.045,-0.115
1798,-0.105,-0.085
1799,-0.145,-0.105
1800,-0.145,-0.105
1801,-0.145,-0.065
1802,-0.175,-0.095
1803,-0.185,-0.105
1804,-0.175,-0.105
1805,-0.165,-0.095
1806,-0.165,-0.085
1807,-0.175,-0.105
1808,-0.165,-0.095
1809,-0.145,-0.085
1810,-0.155,-0.095
1811,-0.155,-0.095
1812,-0.125,-0.045
1813,-0.385,0.115
1814,-0.595,0.165
1815,0.025,-0.475
1816,1.645,-1.195
1817,2.495,-0.535
1818,2.665,-0.535
1819,1.345,-0.445
1820,0.045,-0.085
1821,-0.055,0.025
1822,-0.055,0.005
1823,-0.125,-0.005
1824,-0.155,-0.005
1825,-0.155,0.005
1826,-0.185,0.005
1827,-0.195,-0.005
1828,-0.185,-0.005
1829,-0.195,-0.005
1830,-0.185,0.005
1831,-0.195,-0.005
1832,-0.185,-0.005
1833,-0.165,0.005
1834,-0.175,0.005
1835,-0.175,-0.015
1836,-0.155,-0.015
1837,-0.135,-0.005
1838,-0.125,-0.005
1839,-0.125,-0.005
1840,-0.105,-0.005
1841,-0.065,0.005
1842,-0.055,0.015
1843,-0.025,0.005
1844,0.015,0.005
1845,0.055,0.025
1846,0.105,0.025
1847,0.155,0.005
1848,0.235,0.035
1849,0.305,0.045
1850,0.365,0.035
1851,0.405,0.025
1852,0.455,0.045
1853,0.505,0.045
1854,0.545,0.045
1855,0.535,0.045
1856,0.465,0.045
1857,0.365,0.045
1858,0.235,0.025
1859,0.085,-0.005
1860,-0.035,-0.015
1861,-0.115,-0.025
1862,-0.175,-0.045
1863,-0.205,-0.055
1864,-0.225,-0.055
1865,-0.225,-0.055
1866,-0.235,-0.055
1867,-0.235,-0.065
1868,-0.235,-0.055
1869,-0.235,-0.065
1870,-0.235,-0.055
1871,-0.235,-0.065
1872,-0.245,-0.055
1873,-0.225,-0.035
1874,-0.225,-0.055
1875,-0.225,-0.055
1876,-0.215,-0.055
1877,-0.215,-0.045
1878,-0.215,-0.035
1879,-0.225,-0.055
1880,-0.225,-0.055
1881,-0.215,-0.035
1882,-0.225,-0.045
1883,-0.225,-0.055
1884,-0.215,-0.065
1885,-0.225,-0.065
1886,-0.225,-0.065
1887,-0.235,-0.075
1888,-0.235,-0.085
1889,-0.235,-0.075
1890,-0.225,-0.055
1891,-0.245,-0.095
1892,-0.235,-0.085
1893,-0.245,-0.085
1894,-0.235,-0.085
1895,-0.255,-0.095
1896,-0.245,-0.095
1897,-0.235,-0.085
1898,-0.235,-0.095
1899,-0.255,-0.105
1900,-0.245,-0.105
1901,-0.235,-0.095
1902,-0.235,-0.095
1903,-0.235,-0.105
1904,-0.235,-0.105
1905,-0.215,-0.085
1906,-0.225,-0.095
1907,-0.235,-0.095
1908,-0.215,-0.105
1909,-0.225,-0.105
1910,-0.215,-0.095
1911,-0.215,-0.105
1912,-0.205,-0.095
1913,-0.195,-0.085
1914,-0.205,-0.105
1915,-0.225,-0.125
1916,-0.215,-0.105
1917,-0.145,-0.065
1918,-0.115,-0.045
1919,-0.085,-0.055
1920,-0.055,-0.095
1921,-0.095,-0.105
1922,-0.125,-0.085
1923,-0.185,-0.135
1924,-0.175,-0.125
1925,-0.215,-0.105
1926,-0.205,-0.095
1927,-0.205,-0.115
1928,-0.195,-0.105
1929,-0.165,-0.085
1930,-0.185,-0.095
1931,-0.205,-0.105
1932,-0.185,-0.095
1933,-0.185,-0.105
1934,-0.165,-0.085
1935,-0.155,-0.095
1936,-0.215,0.075
1937,-0.575,0.145
1938,-0.515,-0.015
1939,0.875,-1.125
1940,2.155,-0.895
1941,2.675,-0.505
1942,2.115,-0.575
1943,0.375,-0.175
1944,-0.105,0.035
1945,-0.065,0.045
1946,-0.125,0.015
1947,-0.175,0.005
1948,-0.185,0.015
1949,-0.195,0.015
1950,-0.205,0.015
1951,-0.215,-0.005
1952,-0.215,0.015
1953,-0.195,0.025
1954,-0.205,0.005
1955,-0.205,0.005
1956,-0.195,0.005
1957,-0.185,0.015
1958,-0.185,0.015
1959,-0.185,0.005
1960,-0.165,0.015
1961,-0.135,0.015
1962,-0.125,0.025
1963,-0.105,0.015
1964,-0.085,0.005
1965,-0.075,0.025
1966,-0.045,0.025
1967,-0.025,0.015
1968,0.025,0.035
1969,0.075,0.055
1970,0.125,0.055
1971,0.175,0.045
1972,0.255,0.045
1973,0.305,0.055
1974,0.365,0.065
1975,0.405,0.045
1976,0.455,0.045
1977,0.515,0.075
1978,0.535,0.075
1979,0.495,0.065
1980,0.425,0.065
1981,0.295,0.055
1982,0.155,0.025
1983,0.025,-0.005
1984,-0.085,-0.015
1985,-0.135,-0.015
1986,-0.185,-0.045
1987,-0.215,-0.055
1988,-0.225,-0.055
1989,-0.225,-0.055
1990,-0.235,-0.055
1991,-0.235,-0.065
1992,-0.235,-0.055
1993,-0.215,-0.055
1994,-0.215,-0.045
1995,-0.225,-0.065
1996,-0.215,-0.055
1997,-0.205,-0.045
1998,-0.205,-0.035
1999,-0.215,-0.045
2000,-0.205,-0.035
2001,-0.185,-0.035
2002,-0.205,-0.035
2003,-0.205,-0.045
2004,-0.195,-0.045
2005,-0.205,-0.035
2006,-0.195,-0.055
2007,-0.205,-0.055
2008,-0.205,-0.065
2009,-0.195,-0.045
2010,-0.205,-0.055
2011,-0.225,-0.085
2012,-0.215,-0.085
2013,-0.225,-0.075
2014,-0.215,-0.065
2015,-0.225,-0.085
2016,-0.225,-0.085
2017,-0.205,-0.075
2018,-0.225,-0.085
2019,-0.235,-0.095
2020,-0.215,-0.095
2021,-0.215,-0.085
2022,-0.205,-0.085
2023,-0.215,-0.105
2024,-0.215,-0.085
2025,-0.195,-0.085
2026,-0.205,-0.085
2027,-0.205,-0.105
2028,-0.195,-0.095
2029,-0.195,-0.085
2030,-0.195,-0.095
2031,-0.205,-0.105
2032,-0.195,-0.105
2033,-0.185,-0.085
2034,-0.195,-0.095
2035,-0.195,-0.095
2036,-0.175,-0.095
2037,-0.185,-0.095
2038,-0.165,-0.085
2039,-0.185,-0.105
2040,-0.175,-0.095
2041,-0.135,-0.065
2042,-0.095,-0.055
2043,-0.105,-0.075
2044,-0.035,-0.035
2045,0.025,-0.095
2046,-0.075,-0.115
2047,-0.115,-0.105
2048,-0.145,-0.135
2049,-0.135,-0.105
2050,-0.165,-0.105
2051,-0.185,-0.115
2052,-0.175,-0.115
2053,-0.165,-0.105
2054,-0.155,-0.105
2055,-0.165,-0.115
2056,-0.175,-0.105
2057,-0.155,-0.095
2058,-0.165,-0.105
2059,-0.165,-0.105
2060,-0.135,-0.105
2061,-0.115,-0.055
2062,-0.365,0.125
2063,-0.625,0.145
2064,-0.045,-0.575
2065,1.545,-1.325
2066,2.445,-0.595
2067,2.705,-0.585
2068,1.315,-0.425
2069,0.065,-0.075
2070,-0.045,0.035
2071,-0.055,0.005
2072,-0.115,-0.005
2073,-0.145,0.005
2074,-0.175,-0.005
2075,-0.185,-0.015
2076,-0.185,-0.005
2077,-0.195,0.005
2078,-0.185,0.005
2079,-0.185,-0.005
2080,-0.185,-0.005
2081,-0.165,0.015
2082,-0.165,-0.005
2083,-0.175,-0.005
2084,-0.155,0.005
2085,-0.145,-0.005
2086,-0.135,0.005
2087,-0.135,-0.005
2088,-0.115,-0.005
2089,-0.085,0.005
2090,-0.085,-0.015
2091,-0.065,-0.005
2092,-0.025,0.015
2093,0.005,0.015
2094,0.045,0.015
2095,0.085,0.005
2096,0.135,0.025
2097,0.215,0.045
2098,0.265,0.035
2099,0.315,0.025
2100,0.375,0.035
2101,0.435,0.045
2102,0.485,0.045
2103,0.515,0.045
2104,0.545,0.045
2105,0.555,0.055
2106,0.455,0.045
2107,0.315,0.025
2108,0.185,0.005
2109,0.055,-0.015
2110,-0.045,-0.035
2111,-0.125,-0.065
2112,-0.175,-0.075
2113,-0.185,-0.065
2114,-0.215,-0.075
2115,-0.225,-0.085
2116,-0.225,-0.085
2117,-0.225,-0.085
2118,-0.225,-0.075
2119,-0.225,-0.095
2120,-0.215,-0.085
2121,-0.195,-0.065
2122,-0.215,-0.075
2123,-0.215,-0.085
2124,-0.195,-0.075
2125,-0.195,-0.085
2126,-0.195,-0.065
2127,-0.205,-0.085
2128,-0.195,-0.075
2129,-0.185,-0.055
2130,-0.195,-0.065
2131,-0.205,-0.085
2132,-0.205,-0.075
2133,-0.205,-0.085
2134,-0.205,-0.085
2135,-0.215,-0.085
2136,-0.215,-0.095
2137,-0.185,-0.085
2138,-0.215,-0.105
2139,-0.225,-0.115
2140,-0.225,-0.105
2141,-0.215,-0.115
2142,-0.215,-0.115
2143,-0.225,-0.125
2144,-0.225,-0.115
2145,-0.205,-0.105
2146,-0.215,-0.115
2147,-0.225,-0.125
2148,-0.215,-0.115
2149,-0.225,-0.125
2150,-0.215,-0.115
2151,-0.225,-0.125
2152,-0.215,-0.125
2153,-0.205,-0.115
2154,-0.205,-0.115
2155,-0.225,-0.125
2156,-0.215,-0.125
2157,-0.195,-0.115
2158,-0.195,-0.115
2159,-0.205,-0.125
2160,-0.215,-0.125
2161,-0.185,-0.105
2162,-0.185,-0.115
2163,-0.195,-0.135
2164,-0.175,-0.095
2165,-0.115,-0.065
2166,-0.115,-0.085
2167,-0.095,-0.075
2168,-0.005,-0.085
2169,-0.055,-0.135
2170,-0.135,-0.125
2171,-0.145,-0.145
2172,-0.175,-0.145
2173,-0.185,-0.115
2174,-0.185,-0.115
2175,-0.195,-0.135
2176,-0.195,-0.135
2177,-0.185,-0.115
2178,-0.175,-0.115
2179,-0.185,-0.125
2180,-0.185,-0.125
2181,-0.185,-0.125
2182,-0.175,-0.115
2183,-0.175,-0.135
2184,-0.145,-0.125
2185,-0.195,0.045
2186,-0.605,0.085
2187,-0.495,-0.065
2188,0.955,-1.055
2189,2.085,-0.865
2190,2.625,-0.505
2191,2.325,-0.615
2192,0.625,-0.285
2193,-0.115,-0.025
2194,-0.055,0.015
2195,-0.095,-0.025
2196,-0.155,-0.025
2197,-0.185,-0.035
2198,-0.205,-0.025
2199,-0.215,-0.025
2200,-0.215,-0.025
2201,-0.205,-0.015
2202,-0.215,-0.015
2203,-0.225,-0.035
2204,-0.215,-0.015
2205,-0.215,-0.025
2206,-0.195,-0.015
2207,-0.195,-0.015
2208,-0.185,-0.025
2209,-0.175,-0.015
2210,-0.175,-0.025
2211,-0.165,-0.025
2212,-0.145,-0.035
2213,-0.135,-0.035
2214,-0.105,-0.015
2215,-0.085,-0.015
2216,-0.065,-0.025
2217,-0.005,-0.015
2218,0.005,-0.015
2219,0.045,-0.015
2220,0.115,-0.005
2221,0.175,-0.005
2222,0.235,0.005
2223,0.295,-0.005
2224,0.355,0.005
2225,0.425,0.015
2226,0.465,0.015
2227,0.495,0.005
2228,0.505,0.015
2229,0.475,0.035
2230,0.375,0.035
2231,0.245,0.005
2232,0.115,-0.005
2233,0.005,-0.015
2234,-0.105,-0.035
2235,-0.175,-0.055
2236,-0.205,-0.055
2237,-0.235,-0.065
2238,-0.255,-0.065
2239,-0.265,-0.075
2240,-0.255,-0.065
2241,-0.245,-0.045
2242,-0.255,-0.065
2243,-0.265,-0.075
2244,-0.245,-0.055
2245,-0.225,-0.045
2246,-0.235,-0.055
2247,-0.245,-0.065
2248,-0.215,-0.065
2249,-0.215,-0.055
2250,-0.235,-0.055
2251,-0.235,-0.055
2252,-0.235,-0.065
2253,-0.215,-0.055
2254,-0.225,-0.055
2255,-0.235,-0.065
2256,-0.235,-0.065
2257,-0.225,-0.055
2258,-0.235,-0.075
2259,-0.245,-0.085
2260,-0.245,-0.065
2261,-0.235,-0.095
2262,-0.245,-0.075
2263,-0.245,-0.095
2264,-0.255,-0.095
2265,-0.245,-0.085
2266,-0.245,-0.095
2267,-0.255,-0.105
2268,-0.245,-0.095
2269,-0.255,-0.085
2270,-0.245,-0.095
2271,-0.265,-0.105
2272,-0.255,-0.105
2273,-0.235,-0.095
2274,-0.245,-0.095
2275,-0.255,-0.105
2276,-0.245,-0.095
2277,-0.235,-0.085
2278,-0.235,-0.085
2279,-0.235,-0.105
2280,-0.245,-0.105
2281,-0.225,-0.095
2282,-0.245,-0.125
2283,-0.235,-0.105
2284,-0.165,-0.075
2285,-0.125,-0.045
2286,-0.095,-0.085
2287,-0.125,-0.115
2288,-0.155,-0.105
2289,-0.175,-0.115
2290,-0.205,-0.115
2291,-0.245,-0.105
2292,-0.235,-0.105
2293,-0.225,-0.095
2294,-0.225,-0.095
2295,-0.225,-0.115
2296,-0.215,-0.105
2297,-0.205,-0.095
2298,-0.215,-0.095
2299,-0.225,-0.115
2300,-0.205,-0.105
2301,-0.195,-0.105
2302,-0.175,-0.095
2303,-0.165,-0.085
2304,-0.345,0.075
2305,-0.615,0.125
2306,-0.365,-0.065
2307,1.205,-1.045
2308,2.285,-0.615
2309,2.705,-0.505
2310,1.375,-0.465
2311,-0.005,-0.115
2312,-0.105,0.015
2313,-0.075,0.015
2314,-0.135,-0.015
2315,-0.185,-0.025
2316,-0.205,-0.015
2317,-0.195,-0.005
2318,-0.215,-0.005
2319,-0.225,-0.025
2320,-0.225,-0.005
2321,-0.215,-0.005
2322,-0.215,-0.015
2323,-0.215,-0.025
2324,-0.205,-0.015
2325,-0.205,-0.015
2326,-0.205,-0.015
2327,-0.195,-0.025
2328,-0.185,-0.015
2329,-0.155,-0.005
2330,-0.155,-0.005
2331,-0.145,-0.025
2332,-0.115,-0.015
2333,-0.085,-0.005
2334,-0.065,-0.005
2335,-0.035,-0.005
2336,0.005,-0.015
2337,0.065,0.015
2338,0.115,0.005
2339,0.165,0.005
2340,0.225,0.005
2341,0.295,0.005
2342,0.345,0.015
2343,0.385,0.005
2344,0.445,0.015
2345,0.485,0.025
2346,0.485,0.035
2347,0.445,0.045
2348,0.355,0.035
2349,0.245,0.035
2350,0.115,0.015
2351,-0.015,-0.005
2352,-0.115,-0.025
2353,-0.175,-0.035
2354,-0.215,-0.045
2355,-0.245,-0.065
2356,-0.235,-0.055
2357,-0.245,-0.045
2358,-0.255,-0.045
2359,-0.265,-0.055
2360,-0.255,-0.055
2361,-0.235,-0.045
2362,-0.245,-0.045
2363,-0.255,-0.055
2364,-0.245,-0.045
2365,-0.245,-0.035
2366,-0.235,-0.035
2367,-0.235,-0.035
2368,-0.235,-0.035
2369,-0.215,-0.025
2370,-0.225,-0.035
2371,-0.235,-0.055
2372,-0.225,-0.045
2373,-0.225,-0.045
2374,-0.225,-0.055
2375,-0.245,-0.065
2376,-0.235,-0.055
2377,-0.225,-0.055
2378,-0.245,-0.065
2379,-0.255,-0.085
2380,-0.245,-0.075
2381,-0.245,-0.075
2382,-0.245,-0.075
2383,-0.265,-0.095
2384,-0.245,-0.085
2385,-0.235,-0.065
2386,-0.245,-0.085
2387,-0.255,-0.095
2388,-0.245,-0.095
2389,-0.255,-0.085
2390,-0.245,-0.085
2391,-0.255,-0.105
2392,-0.235,-0.095
2393,-0.215,-0.085
2394,-0.235,-0.085
2395,-0.245,-0.095
2396,-0.235,-0.105
2397,-0.225,-0.105
2398,-0.225,-0.085
2399,-0.235,-0.095
2400,-0.215,-0.095
2401,-0.195,-0.075
2402,-0.215,-0.095
2403,-0.245,-0.125
2404,-0.205,-0.095
2405,-0.125,-0.045
2406,-0.075,-0.035
2407,-0.095,-0.105
2408,-0.125,-0.095
2409,-0.135,-0.085
2410,-0.165,-0.115
2411,-0.185,-0.115
2412,-0.215,-0.085
2413,-0.205,-0.095
2414,-0.205,-0.085
2415,-0.205,-0.105
2416,-0.205,-0.095
2417,-0.195,-0.085
2418,-0.185,-0.085
2419,-0.195,-0.105
2420,-0.185,-0.095
2421,-0.185,-0.085
2422,-0.165,-0.085
2423,-0.145,-0.065
2424,-0.375,0.135
2425,-0.605,0.185
2426,-0.265,-0.195
2427,1.255,-1.235
2428,2.265,-0.765
2429,2.675,-0.525
2430,1.825,-0.535
2431,0.245,-0.135
2432,-0.105,0.035
2433,-0.075,0.035
2434,-0.135,0.005
2435,-0.185,-0.005
2436,-0.195,0.005
2437,-0.215,0.005
2438,-0.225,0.005
2439,-0.225,-0.005
2440,-0.225,0.005
2441,-0.215,0.005
2442,-0.215,0.005
2443,-0.215,-0.005
2444,-0.205,0.005
2445,-0.205,0.005
2446,-0.205,0.005
2447,-0.195,-0.005
2448,-0.185,0.015
2449,-0.155,0.005
2450,-0.145,0.005
2451,-0.145,-0.005
2452,-0.105,0.005
2453,-0.095,0.015
2454,-0.065,0.015
2455,-0.045,0.015
2456,-0.005,0.025
2457,0.055,0.045
2458,0.095,0.045
2459,0.135,0.025
2460,0.215,0.045
2461,0.285,0.055
2462,0.345,0.055
2463,0.385,0.045
2464,0.435,0.055
2465,0.495,0.065
2466,0.515,0.075
2467,0.475,0.065
2468,0.385,0.065
2469,0.275,0.055
2470,0.135,0.035
2471,0.005,-0.005
2472,-0.095,-0.025
2473,-0.155,-0.025
2474,-0.205,-0.045
2475,-0.235,-0.065
2476,-0.235,-0.065
2477,-0.245,-0.055
2478,-0.245,-0.055
2479,-0.245,-0.065
2480,-0.245,-0.065
2481,-0.245,-0.055
2482,-0.245,-0.055
2483,-0.245,-0.055
2484,-0.235,-0.045
2485,-0.235,-0.035
2486,-0.225,-0.045
2487,-0.235,-0.055
2488,-0.235,-0.035
2489,-0.225,-0.025
2490,-0.235,-0.045
2491,-0.235,-0.055
2492,-0.225,-0.045
2493,-0.225,-0.045
2494,-0.225,-0.045
2495,-0.235,-0.065
2496,-0.235,-0.075
2497,-0.225,-0.065
2498,-0.235,-0.065
2499,-0.235,-0.075
2500,-0.235,-0.085
2501,-0.235,-0.075
2502,-0.235,-0.075
2503,-0.245,-0.095
2504,-0.245,-0.085
2505,-0.235,-0.075
2506,-0.245,-0.095
2507,-0.245,-0.095
2508,-0.235,-0.095
2509,-0.235,-0.085
2510,-0.235,-0.085
2511,-0.245,-0.105
2512,-0.235,-0.095
2513,-0.215,-0.085
2514,-0.235,-0.095
2515,-0.245,-0.115
2516,-0.225,-0.085
2517,-0.225,-0.105
2518,-0.225,-0.095
2519,-0.235,-0.105
2520,-0.215,-0.105
2521,-0.205,-0.085
2522,-0.225,-0.095
2523,-0.215,-0.105
2524,-0.215,-0.105
2525,-0.215,-0.105
2526,-0.215,-0.095
2527,-0.215,-0.105
2528,-0.205,-0.095
2529,-0.205,-0.115
2530,-0.175,-0.065
2531,-0.125,-0.065
2532,-0.125,-0.055
2533,-0.065,-0.085
2534,-0.075,-0.105
2535,-0.145,-0.115
2536,-0.155,-0.135
2537,-0.145,-0.115
2538,-0.205,-0.095
2539,-0.215,-0.115
2540,-0.195,-0.115
2541,-0.205,-0.125
2542,-0.195,-0.095
2543,-0.195,-0.105
2544,-0.195,-0.115
2545,-0.175,-0.095
2546,-0.185,-0.105
2547,-0.195,-0.115
2548,-0.185,-0.105
2549,-0.175,-0.105
2550,-0.135,-0.075
2551,-0.295,0.105
2552,-0.605,0.145
2553,-0.275,-0.185
2554,1.215,-1.225
2555,2.255,-0.785
2556,2.705,-0.545
2557,1.545,-0.485
2558,0.055,-0.065
2559,-0.095,0.025
2560,-0.105,0.015
2561,-0.135,-0.005
2562,-0.195,-0.005
2563,-0.215,-0.015
2564,-0.215,-0.015
2565,-0.215,-0.005
2566,-0.225,-0.005
2567,-0.225,-0.025
2568,-0.215,-0.015
2569,-0.205,-0.005
2570,-0.205,-0.015
2571,-0.195,-0.025
2572,-0.185,-0.015
2573,-0.165,-0.005
2574,-0.175,-0.015
2575,-0.175,-0.005
2576,-0.155,-0.015
2577,-0.125,0.005
2578,-0.125,-0.005
2579,-0.105,-0.015
2580,-0.075,0.005
2581,-0.045,0.015
2582,-0.015,0.005
2583,0.015,0.005
2584,0.055,0.005
2585,0.125,0.025
2586,0.175,0.035
2587,0.225,0.025
2588,0.295,0.025
2589,0.355,0.025
2590,0.405,0.045
2591,0.445,0.025
2592,0.495,0.035
2593,0.525,0.055
2594,0.485,0.045
2595,0.395,0.035
2596,0.285,0.015
2597,0.165,0.005
2598,0.055,-0.015
2599,-0.065,-0.045
2600,-0.135,-0.055
2601,-0.175,-0.065
2602,-0.225,-0.075
2603,-0.235,-0.085
2604,-0.235,-0.085
2605,-0.225,-0.075
2606,-0.225,-0.065
2607,-0.235,-0.085
2608,-0.235,-0.085
2609,-0.205,-0.065
2610,-0.225,-0.065
2611,-0.235,-0.075
2612,-0.225,-0.075
2613,-0.215,-0.075
2614,-0.225,-0.055
2615,-0.215,-0.065
2616,-0.205,-0.065
2617,-0.195,-0.055
2618,-0.205,-0.065
2619,-0.215,-0.075
2620,-0.205,-0.075
2621,-0.205,-0.065
2622,-0.205,-0.075
2623,-0.215,-0.085
2624,-0.215,-0.085
2625,-0.215,-0.075
2626,-0.225,-0.095
2627,-0.225,-0.095
2628,-0.215,-0.095
2629,-0.215,-0.095
2630,-0.215,-0.095
2631,-0.235,-0.115
2632,-0.225,-0.105
2633,-0.215,-0.095
2634,-0.215,-0.115
2635,-0.225,-0.115
2636,-0.215,-0.115
2637,-0.225,-0.115
2638,-0.215,-0.105
2639,-0.225,-0.115
2640,-0.215,-0.105
2641,-0.195,-0.095
2642,-0.215,-0.105
2643,-0.215,-0.115
2644,-0.205,-0.115
2645,-0.205,-0.115
2646,-0.205,-0.105
2647,-0.205,-0.125
2648,-0.205,-0.115
2649,-0.175,-0.105
2650,-0.185,-0.105
2651,-0.195,-0.125
2652,-0.185,-0.105
2653,-0.185,-0.115
2654,-0.185,-0.105
2655,-0.175,-0.095
2656,-0.105,-0.065
2657,-0.095,-0.085
2658,-0.065,-0.055
2659,0.005,-0.085
2660,-0.075,-0.125
2661,-0.115,-0.105
2662,-0.125,-0.125
2663,-0.155,-0.125
2664,-0.175,-0.095
2665,-0.165,-0.095
2666,-0.175,-0.105
2667,-0.185,-0.115
2668,-0.165,-0.105
2669,-0.165,-0.105
2670,-0.155,-0.105
2671,-0.165,-0.115
2672,-0.155,-0.105
2673,-0.145,-0.085
2674,-0.155,-0.105
2675,-0.155,-0.115
2676,-0.125,-0.105
2677,-0.155,0.015
2678,-0.475,0.075
2679,-0.555,0.095
2680,0.275,-0.645
2681,1.745,-1.165
2682,2.505,-0.515
2683,2.605,-0.575
2684,0.985,-0.375
2685,-0.045,-0.065
2686,-0.005,0.025
2687,-0.045,0.005
2688,-0.095,-0.015
2689,-0.115,0.005
2690,-0.155,-0.005
2691,-0.185,-0.015
2692,-0.175,-0.005
2693,-0.185,-0.005
2694,-0.165,-0.005
2695,-0.185,-0.015
2696,-0.165,-0.005
2697,-0.145,-0.005
2698,-0.155,-0.005
2699,-0.155,-0.025
2700,-0.145,-0.015
2701,-0.125,-0.025
2702,-0.115,-0.005
2703,-0.105,-0.015
2704,-0.095,-0.015
2705,-0.055,-0.005
2706,-0.035,-0.015
2707,-0.015,-0.015
2708,0.015,-0.005
2709,0.045,0.005
2710,0.085,-0.005
2711,0.145,-0.005
2712,0.195,-0.005
2713,0.265,0.005
2714,0.325,0.015
2715,0.385,0.005
2716,0.445,0.005
2717,0.495,0.025
2718,0.545,0.025
2719,0.565,0.015
2720,0.555,0.035
2721,0.525,0.045
2722,0.415,0.035
2723,0.285,0.005
2724,0.155,-0.005
2725,0.035,-0.015
2726,-0.055,-0.035
2727,-0.125,-0.045
2728,-0.155,-0.055
2729,-0.155,-0.055
2730,-0.195,-0.045
2731,-0.185,-0.055
2732,-0.185,-0.055
2733,-0.185,-0.055
2734,-0.185,-0.045
2735,-0.185,-0.055
2736,-0.185,-0.055
2737,-0.175,-0.055
2738,-0.165,-0.055
2739,-0.165,-0.045
2740,-0.155,-0.035
2741,-0.165,-0.025
2742,-0.155,-0.035
2743,-0.165,-0.055
2744,-0.155,-0.035
2745,-0.145,-0.025
2746,-0.155,-0.045
2747,-0.175,-0.065
2748,-0.155,-0.055
2749,-0.165,-0.055
2750,-0.175,-0.055
2751,-0.175,-0.065
2752,-0.175,-0.065
2753,-0.175,-0.065
2754,-0.185,-0.075
2755,-0.185,-0.075
2756,-0.175,-0.075
2757,-0.185,-0.075
2758,-0.175,-0.075
2759,-0.185,-0.095
2760,-0.185,-0.085
2761,-0.175,-0.075
2762,-0.175,-0.085
2763,-0.175,-0.085
2764,-0.175,-0.085
2765,-0.185,-0.065
2766,-0.175,-0.075
2767,-0.175,-0.085
2768,-0.175,-0.075
2769,-0.155,-0.065
2770,-0.155,-0.085
2771,-0.165,-0.085
2772,-0.155,-0.085
2773,-0.155,-0.085
2774,-0.115,-0.055
2775,-0.085,-0.045
2776,-0.095,-0.065
2777,-0.025,-0.015
2778,0.045,-0.055
2779,-0.055,-0.115
2780,-0.075,-0.075
2781,-0.095,-0.095
2782,-0.135,-0.085
2783,-0.155,-0.085
2784,-0.165,-0.095
2785,-0.145,-0.075
2786,-0.145,-0.085
2787,-0.145,-0.095
2788,-0.145,-0.095
2789,-0.145,-0.085
2790,-0.145,-0.085
2791,-0.145,-0.095
2792,-0.135,-0.085
2793,-0.115,-0.075
2794,-0.095,-0.075
2795,-0.205,0.055
2796,-0.535,0.095
2797,-0.435,0.025
2798,0.975,-0.855
2799,2.155,-0.725
2800,2.735,-0.465
2801,2.125,-0.495
2802,0.385,-0.195
2803,-0.075,-0.015
2804,-0.015,0.025
2805,-0.065,-0.005
2806,-0.105,0.005
2807,-0.145,-0.005
2808,-0.155,-0.005
2809,-0.155,0.015
2810,-0.165,0.005
2811,-0.165,-0.005
2812,-0.155,0.005
2813,-0.145,-0.005
2814,-0.155,-0.005
2815,-0.155,-0.015
2816,-0.155,-0.005
2817,-0.135,-0.005
2818,-0.135,-0.005
2819,-0.135,-0.015
2820,-0.105,-0.015
2821,-0.095,-0.005
2822,-0.085,-0.005
2823,-0.075,-0.015
2824,-0.045,-0.005
2825,-0.005,0.005
2826,0.025,0.005
2827,0.035,-0.005
2828,0.095,0.005
2829,0.145,0.015
2830,0.205,0.015
2831,0.255,0.005
2832,0.315,0.015
2833,0.395,0.025
2834,0.435,0.025
2835,0.485,0.005
2836,0.525,0.025
2837,0.555,0.035
2838,0.525,0.055
2839,0.435,0.045
2840,0.315,0.025
2841,0.185,0.035
2842,0.055,0.015
2843,-0.055,-0.015
2844,-0.115,-0.015
2845,-0.165,-0.025
2846,-0.185,-0.025
2847,-0.205,-0.045
2848,-0.215,-0.035
2849,-0.195,-0.025
2850,-0.205,-0.025
2851,-0.205,-0.045
2852,-0.205,-0.025
2853,-0.205,-0.025
2854,-0.195,-0.015
2855,-0.205,-0.035
2856,-0.195,-0.025
2857,-0.185,-0.015
2858,-0.185,-0.015
2859,-0.195,-0.025
2860,-0.185,-0.025
2861,-0.175,-0.025
2862,-0.185,-0.025
2863,-0.195,-0.035
2864,-0.185,-0.035
2865,-0.175,-0.025
2866,-0.185,-0.045
2867,-0.205,-0.055
2868,-0.195,-0.055
2869,-0.195,-0.055
2870,-0.215,-0.055
2871,-0.205,-0.075
2872,-0.215,-0.075
2873,-0.205,-0.065
2874,-0.205,-0.065
2875,-0.215,-0.085
2876,-0.215,-0.085
2877,-0.215,-0.075
2878,-0.205,-0.075
2879,-0.225,-0.085
2880,-0.215,-0.085
2881,-0.195,-0.075
2882,-0.205,-0.085
2883,-0.215,-0.095
2884,-0.205,-0.085
2885,-0.205,-0.085
2886,-0.195,-0.075
2887,-0.215,-0.085
2888,-0.205,-0.085
2889,-0.185,-0.065
2890,-0.195,-0.075
2891,-0.205,-0.085
2892,-0.195,-0.085
2893,-0.215,-0.115
2894,-0.205,-0.095
2895,-0.145,-0.055
2896,-0.085,-0.025
2897,-0.035,-0.055
2898,-0.095,-0.085
2899,-0.135,-0.085
2900,-0.145,-0.105
2901,-0.155,-0.105
2902,-0.185,-0.075
2903,-0.205,-0.085
2904,-0.185,-0.095
2905,-0.165,-0.075
2906,-0.165,-0.075
2907,-0.185,-0.085
2908,-0.175,-0.075
2909,-0.165,-0.075
2910,-0.165,-0.075
2911,-0.175,-0.095
2912,-0.155,-0.085
2913,-0.125,-0.065
2914,-0.125,-0.035
2915,-0.305,0.145
2916,-0.605,0.175
2917,-0.255,-0.265
2918,1.365,-1.265
2919,2.385,-0.665
2920,2.735,-0.555
2921,1.435,-0.405
2922,0.045,-0.045
2923,-0.065,0.045
2924,-0.075,0.035
2925,-0.125,0.015
2926,-0.165,0.025
2927,-0.195,0.015
2928,-0.185,0.015
2929,-0.165,0.035
2930,-0.185,0.025
2931,-0.195,0.015
2932,-0.195,0.005
2933,-0.185,0.025
2934,-0.185,0.015
2935,-0.185,0.005
2936,-0.175,0.005
2937,-0.145,0.025
2938,-0.155,0.025
2939,-0.145,0.015
2940,-0.135,0.015
2941,-0.115,0.025
2942,-0.095,0.035
2943,-0.085,0.005
2944,-0.065,0.025
2945,-0.005,0.045
2946,0.015,0.055
2947,0.045,0.035
2948,0.095,0.045
2949,0.145,0.055
2950,0.215,0.065
2951,0.275,0.055
2952,0.345,0.065
2953,0.415,0.075
2954,0.455,0.065
2955,0.515,0.075
2956,0.545,0.075
2957,0.535,0.085
2958,0.475,0.085
2959,0.345,0.065
2960,0.215,0.045
2961,0.095,0.035
2962,-0.025,0.005
2963,-0.115,-0.015
2964,-0.155,-0.025
2965,-0.185,-0.035
2966,-0.195,-0.035
2967,-0.215,-0.045
2968,-0.215,-0.045
2969,-0.215,-0.045
2970,-0.215,-0.045
2971,-0.215,-0.045
2972,-0.195,-0.035
2973,-0.205,-0.035
2974,-0.195,-0.035
2975,-0.195,-0.035
2976,-0.205,-0.045
2977,-0.185,-0.015
2978,-0.195,-0.025
2979,-0.195,-0.035
2980,-0.185,-0.025
2981,-0.175,-0.025
2982,-0.175,-0.025
2983,-0.175,-0.035
2984,-0.185,-0.035
2985,-0.175,-0.025
2986,-0.195,-0.045
2987,-0.185,-0.055
2988,-0.185,-0.055
2989,-0.195,-0.055
2990,-0.195,-0.065
2991,-0.205,-0.065
2992,-0.205,-0.075
2993,-0.185,-0.065
2994,-0.205,-0.075
2995,-0.205,-0.085
2996,-0.195,-0.075
2997,-0.195,-0.065
2998,-0.195,-0.075
2999,-0.205,-0.085
3000,-0.205,-0.085
3001,-0.195,-0.075
3002,-0.185,-0.075
3003,-0.195,-0.095
3004,-0.185,-0.095
3005,-0.185,-0.085
3006,-0.185,-0.085
3007,-0.185,-0.095
3008,-0.185,-0.095
3009,-0.175,-0.085
3010,-0.175,-0.085
3011,-0.175,-0.105
3012,-0.165,-0.095
3013,-0.165,-0.095
3014,-0.155,-0.085
3015,-0.175,-0.095
3016,-0.165,-0.085
3017,-0.135,-0.075
3018,-0.155,-0.085
3019,-0.155,-0.095
3020,-0.155,-0.095
3021,-0.155,-0.095
3022,-0.115,-0.065
3023,-0.075,-0.045
3024,-0.075,-0.055
3025,-0.005,-0.025
3026,0.035,-0.085
3027,-0.075,-0.115
3028,-0.095,-0.105
3029,-0.115,-0.125
3030,-0.115,-0.105
3031,-0.155,-0.095
3032,-0.155,-0.095
3033,-0.125,-0.075
3034,-0.135,-0.095
3035,-0.145,-0.105
3036,-0.135,-0.095
3037,-0.145,-0.095
3038,-0.145,-0.095
3039,-0.155,-0.105
3040,-0.135,-0.095
3041,-0.105,-0.085
3042,-0.115,-0.085
3043,-0.105,-0.045
3044,-0.305,0.145
3045,-0.565,0.175
3046,-0.185,-0.355
3047,1.415,-1.335
3048,2.435,-0.635
3049,2.735,-0.585
3050,1.255,-0.355
3051,0.005,-0.015
3052,-0.035,0.055
3053,-0.085,0.015
3054,-0.135,0.015
3055,-0.175,0.005
3056,-0.185,0.005
3057,-0.175,0.005
3058,-0.175,0.005
3059,-0.175,0.005
3060,-0.165,-0.005
3061,-0.155,0.005
3062,-0.155,0.015
3063,-0.165,-0.005
3064,-0.155,0.005
3065,-0.135,0.015
3066,-0.135,-0.005
3067,-0.135,-0.005
3068,-0.115,0.005
3069,-0.105,0.005
3070,-0.085,0.005
3071,-0.075,-0.005
3072,-0.055,0.005
3073,-0.015,0.005
3074,-0.005,0.015
3075,0.035,0.005
3076,0.075,0.025
3077,0.125,0.035
3078,0.165,0.035
3079,0.225,0.025
3080,0.295,0.045
3081,0.365,0.045
3082,0.415,0.045
3083,0.455,0.025
3084,0.505,0.045
3085,0.555,0.055
3086,0.575,0.065
3087,0.525,0.055
3088,0.435,0.045
3089,0.325,0.045
3090,0.185,0.005
3091,0.065,-0.025
3092,-0.025,-0.045
3093,-0.105,-0.055
3094,-0.145,-0.065
3095,-0.175,-0.065
3096,-0.185,-0.075
3097,-0.175,-0.065
3098,-0.185,-0.065
3099,-0.195,-0.085
3100,-0.185,-0.075
3101,-0.175,-0.075
3102,-0.185,-0.065
3103,-0.195,-0.075
3104,-0.175,-0.065
3105,-0.155,-0.055
3106,-0.175,-0.055
3107,-0.175,-0.065
3108,-0.165,-0.065
3109,-0.165,-0.065
3110,-0.165,-0.055
3111,-0.175,-0.075
3112,-0.165,-0.075
3113,-0.155,-0.055
3114,-0.175,-0.065
3115,-0.185,-0.085
3116,-0.175,-0.085
3117,-0.185,-0.085
3118,-0.185,-0.095
3119,-0.195,-0.105
3120,-0.185,-0.105
3121,-0.175,-0.085
3122,-0.195,-0.105
3123,-0.205,-0.115
3124,-0.195,-0.115
3125,-0.195,-0.115
3126,-0.195,-0.105
3127,-0.205,-0.125
3128,-0.205,-0.115
3129,-0.185,-0.095
3130,-0.195,-0.125
3131,-0.195,-0.125
3132,-0.185,-0.125
3133,-0.175,-0.115
3134,-0.185,-0.115
3135,-0.185,-0.125
3136,-0.175,-0.115
3137,-0.175,-0.115
3138,-0.175,-0.125
3139,-0.175,-0.135
3140,-0.165,-0.115
3141,-0.175,-0.125
3142,-0.165,-0.105
3143,-0.175,-0.125
3144,-0.165,-0.125
3145,-0.155,-0.105
3146,-0.175,-0.125
3147,-0.175,-0.125
3148,-0.105,-0.075
3149,-0.085,-0.085
3150,-0.065,-0.075
3151,0.025,-0.085
3152,-0.025,-0.145
3153,-0.105,-0.115
3154,-0.135,-0.145
3155,-0.145,-0.145
3156,-0.165,-0.115
3157,-0.175,-0.135
3158,-0.175,-0.145
3159,-0.175,-0.145
3160,-0.175,-0.135
3161,-0.165,-0.125
3162,-0.175,-0.135
3163,-0.175,-0.145
3164,-0.175,-0.135
3165,-0.175,-0.135
3166,-0.165,-0.125
3167,-0.155,-0.135
3168,-0.145,-0.135
3169,-0.135,-0.035
3170,-0.465,0.075
3171,-0.605,0.085
3172,0.155,-0.655
3173,1.625,-1.315
3174,2.475,-0.575
3175,2.675,-0.615
3176,1.175,-0.435
3177,-0.045,-0.065
3178,-0.065,0.015
3179,-0.095,-0.035
3180,-0.145,-0.045
3181,-0.175,-0.035
3182,-0.195,-0.035
3183,-0.215,-0.035
3184,-0.215,-0.035
3185,-0.215,-0.025
3186,-0.215,-0.035
3187,-0.205,-0.045
3188,-0.195,-0.035
3189,-0.195,-0.035
3190,-0.205,-0.035
3191,-0.195,-0.045
3192,-0.185,-0.035
3193,-0.165,-0.035
3194,-0.155,-0.035
3195,-0.155,-0.045
3196,-0.145,-0.035
3197,-0.115,-0.035
3198,-0.095,-0.035
3199,-0.075,-0.035
3200,-0.045,-0.035
3201,0.005,-0.015
3202,0.035,-0.015
3203,0.065,-0.025
3204,0.135,-0.015
3205,0.195,0.005
3206,0.265,-0.005
3207,0.315,-0.015
3208,0.365,-0.005
3209,0.425,0.005
3210,0.475,0.005
3211,0.505,0.005
3212,0.525,0.005
3213,0.495,0.025
3214,0.405,0.025
3215,0.295,-0.005
3216,0.175,-0.015
3217,0.055,-0.025
3218,-0.055,-0.045
3219,-0.135,-0.085
3220,-0.185,-0.085
3221,-0.215,-0.085
3222,-0.225,-0.085
3223,-0.245,-0.095
3224,-0.235,-0.085
3225,-0.225,-0.085
3226,-0.235,-0.085
3227,-0.245,-0.095
3228,-0.235,-0.085
3229,-0.225,-0.085
3230,-0.215,-0.085
3231,-0.225,-0.095
3232,-0.225,-0.075
3233,-0.205,-0.065
3234,-0.205,-0.065
3235,-0.215,-0.085
3236,-0.205,-0.085
3237,-0.205,-0.075
3238,-0.215,-0.085
3239,-0.225,-0.095
3240,-0.215,-0.085
3241,-0.215,-0.085
3242,-0.215,-0.095
3243,-0.235,-0.115
3244,-0.235,-0.105
3245,-0.235,-0.095
3246,-0.235,-0.115
3247,-0.245,-0.115
3248,-0.245,-0.115
3249,-0.225,-0.115
3250,-0.235,-0.115
3251,-0.245,-0.125
3252,-0.235,-0.125
3253,-0.235,-0.125
3254,-0.235,-0.125
3255,-0.235,-0.125
3256,-0.245,-0.125
3257,-0.225,-0.115
3258,-0.225,-0.135
3259,-0.235,-0.135
3260,-0.225,-0.125
3261,-0.225,-0.115
3262,-0.225,-0.125
3263,-0.215,-0.135
3264,-0.215,-0.125
3265,-0.205,-0.115
3266,-0.225,-0.115
3267,-0.225,-0.135
3268,-0.215,-0.135
3269,-0.175,-0.085
3270,-0.125,-0.075
3271,-0.145,-0.105
3272,-0.075,-0.065
3273,-0.015,-0.115
3274,-0.115,-0.135
3275,-0.135,-0.135
3276,-0.165,-0.155
3277,-0.195,-0.125
3278,-0.195,-0.125
3279,-0.215,-0.145
3280,-0.225,-0.135
3281,-0.195,-0.115
3282,-0.205,-0.135
3283,-0.205,-0.135
3284,-0.205,-0.135
3285,-0.195,-0.115
3286,-0.195,-0.135
3287,-0.185,-0.135
3288,-0.195,-0.135
3289,-0.175,-0.125
3290,-0.135,-0.105
3291,-0.345,0.055
3292,-0.575,0.065
3293,-0.425,-0.025
3294,0.885,-0.865
3295,2.065,-0.815
3296,2.645,-0.485
3297,2.145,-0.565
3298,0.385,-0.255
3299,-0.125,-0.055
3300,-0.055,-0.015
3301,-0.095,-0.035
3302,-0.155,-0.035
3303,-0.185,-0.055
3304,-0.195,-0.035
3305,-0.195,-0.035
3306,-0.205,-0.045
3307,-0.215,-0.055
3308,-0.205,-0.045
3309,-0.195,-0.045
3310,-0.195,-0.035
3311,-0.195,-0.055
3312,-0.185,-0.055
3313,-0.165,-0.035
3314,-0.165,-0.045
3315,-0.155,-0.055
3316,-0.145,-0.045
3317,-0.135,-0.045
3318,-0.115,-0.045
3319,-0.105,-0.055
3320,-0.075,-0.045
3321,-0.035,-0.035
3322,-0.025,-0.035
3323,0.005,-0.045
3324,0.065,-0.035
3325,0.115,-0.035
3326,0.165,-0.025
3327,0.225,-0.035
3328,0.295,-0.025
3329,0.365,-0.015
3330,0.405,-0.015
3331,0.445,-0.015
3332,0.505,-0.015
3333,0.535,0.005
3334,0.505,0.005
3335,0.415,0.015
3336,0.305,0.005
3337,0.185,0.015
3338,0.045,-0.015
3339,-0.065,-0.035
3340,-0.125,-0.045
3341,-0.165,-0.055
3342,-0.195,-0.055
3343,-0.215,-0.075
3344,-0.225,-0.065
3345,-0.225,-0.065
3346,-0.235,-0.065
3347,-0.245,-0.075
3348,-0.225,-0.065
3349,-0.225,-0.045
3350,-0.215,-0.055
3351,-0.235,-0.075
3352,-0.215,-0.055
3353,-0.205,-0.035
3354,-0.205,-0.055
3355,-0.215,-0.055
3356,-0.215,-0.055
3357,-0.205,-0.055
3358,-0.205,-0.055
3359,-0.215,-0.065
3360,-0.215,-0.055
3361,-0.195,-0.055
3362,-0.205,-0.075
3363,-0.235,-0.085
3364,-0.225,-0.075
3365,-0.215,-0.075
3366,-0.215,-0.075
3367,-0.225,-0.075
3368,-0.225,-0.085
3369,-0.215,-0.075
3370,-0.235,-0.095
3371,-0.245,-0.105
3372,-0.235,-0.095
3373,-0.235,-0.085
3374,-0.225,-0.095
3375,-0.245,-0.105
3376,-0.235,-0.105
3377,-0.225,-0.085
3378,-0.225,-0.105
3379,-0.225,-0.105
3380,-0.225,-0.105
3381,-0.215,-0.095
3382,-0.215,-0.085
3383,-0.215,-0.105
3384,-0.215,-0.095
3385,-0.205,-0.085
3386,-0.215,-0.085
3387,-0.215,-0.115
3388,-0.195,-0.085
3389,-0.135,-0.045
3390,-0.125,-0.055
3391,-0.085,-0.055
3392,-0.045,-0.085
3393,-0.115,-0.105
3394,-0.145,-0.095
3395,-0.185,-0.135
3396,-0.175,-0.115
3397,-0.205,-0.095
3398,-0.205,-0.095
3399,-0.205,-0.105
3400,-0.205,-0.095
3401,-0.185,-0.095
3402,-0.185,-0.085
3403,-0.195,-0.105
3404,-0.185,-0.095
3405,-0.185,-0.095
3406,-0.185,-0.095
3407,-0.185,-0.105
3408,-0.155,-0.085
3409,-0.235,0.095
3410,-0.585,0.125
3411,-0.555,0.085
3412,0.635,-0.915
3413,2.035,-1.075
3414,2.655,-0.515
3415,2.195,-0.585
3416,0.435,-0.185
3417,-0.105,0.025
3418,-0.055,0.035
3419,-0.115,0.005
3420,-0.155,0.005
3421,-0.185,0.015
3422,-0.205,0.005
3423,-0.215,-0.005
3424,-0.215,0.005
3425,-0.205,0.015
3426,-0.215,0.005
3427,-0.215,-0.005
3428,-0.215,0.005
3429,-0.205,0.005
3430,-0.195,0.005
3431,-0.195,-0.005
3432,-0.195,0.005
3433,-0.175,0.005
3434,-0.155,0.005
3435,-0.145,0.005
3436,-0.125,0.005
3437,-0.105,0.015
3438,-0.085,0.015
3439,-0.065,0.015
3440,-0.035,0.005
3441,0.005,0.035
3442,0.045,0.045
3443,0.095,0.035
3444,0.155,0.045
3445,0.215,0.045
3446,0.285,0.045
3447,0.335,0.045
3448,0.395,0.055
3449,0.455,0.055
3450,0.495,0.055
3451,0.525,0.055
3452,0.495,0.065
3453,0.425,0.075
3454,0.325,0.065
3455,0.185,0.015
3456,0.045,0.005
3457,-0.055,-0.005
3458,-0.135,-0.035
3459,-0.195,-0.055
3460,-0.215,-0.045
3461,-0.225,-0.045
3462,-0.235,-0.045
3463,-0.245,-0.065
3464,-0.235,-0.055
3465,-0.235,-0.045
3466,-0.225,-0.055
3467,-0.235,-0.055
3468,-0.235,-0.055
3469,-0.225,-0.045
3470,-0.225,-0.045
3471,-0.225,-0.045
3472,-0.225,-0.035
3473,-0.205,-0.035
3474,-0.205,-0.035
3475,-0.215,-0.045
3476,-0.215,-0.045
3477,-0.215,-0.045
3478,-0.215,-0.035
3479,-0.225,-0.055
3480,-0.225,-0.045
3481,-0.205,-0.035
3482,-0.225,-0.045
3483,-0.235,-0.065
3484,-0.235,-0.065
3485,-0.225,-0.055
3486,-0.235,-0.065
3487,-0.245,-0.085
3488,-0.235,-0.075
3489,-0.225,-0.075
3490,-0.235,-0.065
3491,-0.245,-0.085
3492,-0.235,-0.085
3493,-0.225,-0.075
3494,-0.235,-0.075
3495,-0.235,-0.095
3496,-0.225,-0.085
3497,-0.225,-0.075
3498,-0.235,-0.085
3499,-0.235,-0.095
3500,-0.215,-0.085
3501,-0.215,-0.085
3502,-0.215,-0.085
3503,-0.225,-0.085
3504,-0.215,-0.095
3505,-0.205,-0.075
3506,-0.205,-0.075
3507,-0.205,-0.085
3508,-0.215,-0.075
3509,-0.185,-0.065
3510,-0.195,-0.075
3511,-0.205,-0.095
3512,-0.205,-0.105
3513,-0.145,-0.045
3514,-0.105,-0.055
3515,-0.105,-0.045
3516,-0.025,-0.065
3517,-0.065,-0.105
3518,-0.125,-0.085
3519,-0.175,-0.125
3520,-0.165,-0.115
3521,-0.185,-0.085
3522,-0.195,-0.085
3523,-0.205,-0.105
3524,-0.195,-0.095
3525,-0.185,-0.095
3526,-0.175,-0.095
3527,-0.195,-0.095
3528,-0.175,-0.095
3529,-0.175,-0.095
3530,-0.165,-0.095
3531,-0.165,-0.105
3532,-0.145,-0.095
3533,-0.135,-0.015
3534,-0.415,0.135
3535,-0.605,0.155
3536,0.185,-0.645
3537,1.635,-1.305
3538,2.465,-0.565
3539,2.625,-0.585
3540,1.135,-0.395
3541,-0.025,-0.035
3542,-0.065,0.055
3543,-0.095,0.015
3544,-0.135,0.015
3545,-0.165,0.015
3546,-0.195,0.005
3547,-0.195,-0.005
3548,-0.195,0.005
3549,-0.205,0.005
3550,-0.205,0.005
3551,-0.205,-0.005
3552,-0.195,-0.005
3553,-0.185,0.005
3554,-0.175,0.005
3555,-0.185,-0.005
3556,-0.175,0.005
3557,-0.165,-0.005
3558,-0.155,0.005
3559,-0.135,-0.005
3560,-0.125,-0.005
3561,-0.115,0.015
3562,-0.085,0.005
3563,-0.075,0.005
3564,-0.045,0.005
3565,-0.015,0.015
3566,0.025,0.015
3567,0.055,0.005
3568,0.115,0.025
3569,0.185,0.045
3570,0.245,0.045
3571,0.295,0.035
3572,0.345,0.035
3573,0.395,0.045
3574,0.445,0.055
3575,0.475,0.045
3576,0.515,0.045
3577,0.525,0.065
3578,0.445,0.055
3579,0.325,0.035
3580,0.205,0.005
3581,0.065,-0.015
3582,-0.035,-0.015
3583,-0.135,-0.055
3584,-0.175,-0.055
3585,-0.185,-0.055
3586,-0.215,-0.075
3587,-0.235,-0.085
3588,-0.225,-0.065
3589,-0.225,-0.065
3590,-0.225,-0.065
3591,-0.235,-0.085
3592,-0.225,-0.085
3593,-0.215,-0.065
3594,-0.215,-0.055
3595,-0.215,-0.065
3596,-0.205,-0.055
3597,-0.205,-0.055
3598,-0.205,-0.045
3599,-0.205,-0.065
3600,-0.205,-0.055
3601,-0.205,-0.055
3602,-0.205,-0.065
3603,-0.205,-0.075
3604,-0.215,-0.065
3605,-0.195,-0.075
3606,-0.205,-0.085
3607,-0.215,-0.105
3608,-0.215,-0.095
3609,-0.215,-0.085
3610,-0.215,-0.095
3611,-0.225,-0.115
3612,-0.225,-0.105
3613,-0.225,-0.105
3614,-0.225,-0.105
3615,-0.235,-0.115
3616,-0.235,-0.115
3617,-0.215,-0.105
3618,-0.225,-0.115
3619,-0.235,-0.125
3620,-0.225,-0.115
3621,-0.215,-0.115
3622,-0.215,-0.115
3623,-0.225,-0.135
3624,-0.225,-0.135
3625,-0.205,-0.115
3626,-0.205,-0.125
3627,-0.205,-0.135
3628,-0.195,-0.125
3629,-0.205,-0.125
3630,-0.195,-0.115
3631,-0.205,-0.135
3632,-0.195,-0.115
3633,-0.185,-0.105
3634,-0.185,-0.105
3635,-0.195,-0.125
3636,-0.185,-0.125
3637,-0.175,-0.115
3638,-0.135,-0.075
3639,-0.115,-0.085
3640,-0.105,-0.085
3641,-0.005,-0.055
3642,-0.005,-0.135
3643,-0.115,-0.135
3644,-0.105,-0.125
3645,-0.145,-0.135
3646,-0.155,-0.115
3647,-0.175,-0.125
3648,-0.165,-0.135
3649,-0.155,-0.115
3650,-0.165,-0.125
3651,-0.175,-0.135
3652,-0.165,-0.125
3653,-0.165,-0.115
3654,-0.155,-0.115
3655,-0.165,-0.135
3656,-0.165,-0.125
3657,-0.135,-0.115
3658,-0.115,-0.115
3659,-0.215,0.055
3660,-0.525,0.095
3661,-0.385,-0.105
3662,0.895,-1.105
3663,1.985,-0.825
3664,2.495,-0.515
3665,1.825,-0.545
3666,0.405,-0.155
3667,-0.015,-0.015
3668,-0.015,0.005
3669,-0.075,-0.015
3670,-0.115,-0.015
3671,-0.165,-0.025
3672,-0.175,-0.025
3673,-0.175,-0.015
3674,-0.185,-0.025
3675,-0.195,-0.035
3676,-0.185,-0.035
3677,-0.175,-0.025
3678,-0.175,-0.035
3679,-0.175,-0.035
3680,-0.175,-0.035
3681,-0.155,-0.025
3682,-0.145,-0.025
3683,-0.145,-0.045
3684,-0.125,-0.025
3685,-0.105,-0.025
3686,-0.085,-0.015
3687,-0.075,-0.025
3688,-0.055,-0.025
3689,-0.015,-0.005
3690,-0.005,-0.015
3691,0.025,-0.025
3692,0.075,-0.015
3693,0.125,-0.015
3694,0.185,-0.005
3695,0.235,-0.015
3696,0.305,-0.005
3697,0.385,0.015
3698,0.425,-0.005
3699,0.465,-0.015
3700,0.525,0.005
3701,0.555,0.015
3702,0.555,0.035
3703,0.475,0.025
3704,0.385,0.025
3705,0.265,0.015
3706,0.135,-0.015
3707,0.005,-0.045
3708,-0.065,-0.045
3709,-0.125,-0.055
3710,-0.155,-0.065
3711,-0.185,-0.075
3712,-0.185,-0.065
3713,-0.175,-0.065
3714,-0.205,-0.075
3715,-0.205,-0.075
3716,-0.185,-0.065
3717,-0.195,-0.065
3718,-0.195,-0.065
3719,-0.185,-0.065
3720,-0.185,-0.065
3721,-0.165,-0.055
3722,-0.165,-0.055
3723,-0.185,-0.055
3724,-0.165,-0.065
3725,-0.155,-0.055
3726,-0.165,-0.055
3727,-0.175,-0.055
3728,-0.165,-0.065
3729,-0.145,-0.045
3730,-0.155,-0.065
3731,-0.175,-0.075
3732,-0.185,-0.085
3733,-0.175,-0.085
3734,-0.185,-0.085
3735,-0.195,-0.095
3736,-0.185,-0.095
3737,-0.175,-0.085
3738,-0.185,-0.095
3739,-0.195,-0.115
3740,-0.185,-0.105
3741,-0.185,-0.105
3742,-0.185,-0.105
3743,-0.195,-0.105
3744,-0.185,-0.105
3745,-0.165,-0.095
3746,-0.175,-0.105
3747,-0.185,-0.115
3748,-0.175,-0.105
3749,-0.175,-0.115
3750,-0.175,-0.115
3751,-0.185,-0.125
3752,-0.165,-0.105
3753,-0.155,-0.095
3754,-0.165,-0.105
3755,-0.175,-0.135
3756,-0.165,-0.135
3757,-0.115,-0.075
3758,-0.085,-0.075
3759,-0.065,-0.065
3760,-0.005,-0.095
3761,-0.025,-0.115
3762,-0.075,-0.105
3763,-0.135,-0.145
3764,-0.135,-0.135
3765,-0.165,-0.115
3766,-0.155,-0.115
3767,-0.155,-0.135
3768,-0.145,-0.115
3769,-0.135,-0.115
3770,-0.145,-0.115
3771,-0.155,-0.115
3772,-0.155,-0.105
3773,-0.145,-0.115
3774,-0.145,-0.105
3775,-0.145,-0.115
3776,-0.125,-0.105
3777,-0.105,-0.045
3778,-0.345,0.095
3779,-0.565,0.115
3780,-0.165,-0.205
3781,1.385,-1.125
3782,2.365,-0.605
3783,2.785,-0.525
3784,1.525,-0.485
3785,0.095,-0.105
3786,-0.035,0.025
3787,-0.045,-0.005
3788,-0.095,-0.025
3789,-0.125,-0.005
3790,-0.135,-0.015
3791,-0.155,-0.015
3792,-0.165,-0.025
3793,-0.155,-0.015
3794,-0.155,-0.025
3795,-0.165,-0.035
3796,-0.155,-0.025
3797,-0.155,-0.015
3798,-0.135,-0.025
3799,-0.145,-0.035
3800,-0.145,-0.035
3801,-0.105,-0.015
3802,-0.115,-0.025
3803,-0.105,-0.035
3804,-0.085,-0.035
3805,-0.065,-0.015
3806,-0.055,-0.015
3807,-0.035,-0.025
3808,-0.005,-0.025
3809,0.035,-0.015
3810,0.075,-0.015
3811,0.115,-0.015
3812,0.175,-0.005
3813,0.235,-0.005
3814,0.285,-0.005
3815,0.335,-0.015
3816,0.395,-0.005
3817,0.455,-0.005
3818,0.505,-0.005
3819,0.555,-0.005
3820,0.555,0.015
3821,0.505,0.025
3822,0.415,0.025
3823,0.285,-0.005
3824,0.165,-0.005
3825,0.055,-0.005
3826,-0.055,-0.035
3827,-0.125,-0.055
3828,-0.155,-0.055
3829,-0.185,-0.055
3830,-0.195,-0.055
3831,-0.205,-0.065
3832,-0.215,-0.065
3833,-0.195,-0.055
3834,-0.205,-0.065
3835,-0.205,-0.065
3836,-0.195,-0.055
3837,-0.195,-0.045
3838,-0.195,-0.055
3839,-0.205,-0.065
3840,-0.195,-0.055
3841,-0.185,-0.035
3842,-0.185,-0.045
3843,-0.195,-0.055
3844,-0.175,-0.045
3845,-0.185,-0.055
3846,-0.185,-0.045
3847,-0.195,-0.065
3848,-0.195,-0.075
3849,-0.175,-0.065
3850,-0.195,-0.065
3851,-0.205,-0.075
3852,-0.195,-0.075
3853,-0.205,-0.075
3854,-0.205,-0.085
3855,-0.215,-0.095
3856,-0.225,-0.095
3857,-0.215,-0.085
3858,-0.225,-0.085
3859,-0.225,-0.095
3860,-0.215,-0.105
3861,-0.215,-0.095
3862,-0.215,-0.095
3863,-0.225,-0.105
3864,-0.215,-0.105
3865,-0.205,-0.095
3866,-0.205,-0.095
3867,-0.215,-0.115
3868,-0.205,-0.105
3869,-0.195,-0.105
3870,-0.205,-0.105
3871,-0.205,-0.115
3872,-0.195,-0.105
3873,-0.175,-0.105
3874,-0.195,-0.105
3875,-0.195,-0.115
3876,-0.195,-0.105
3877,-0.185,-0.105
3878,-0.175,-0.095
3879,-0.125,-0.065
3880,-0.105,-0.065
3881,-0.075,-0.045
3882,-0.005,-0.055
3883,-0.035,-0.135
3884,-0.115,-0.115
3885,-0.135,-0.125
3886,-0.145,-0.125
3887,-0.185,-0.115
3888,-0.195,-0.135
3889,-0.175,-0.125
3890,-0.185,-0.125
3891,-0.185,-0.125
3892,-0.175,-0.125
3893,-0.175,-0.135
3894,-0.185,-0.125
3895,-0.195,-0.135
3896,-0.185,-0.125
3897,-0.155,-0.105
3898,-0.145,-0.115
3899,-0.175,-0.045
3900,-0.505,0.075
3901,-0.565,0.075
3902,0.485,-0.835
3903,1.855,-1.175
3904,2.565,-0.555
3905,2.465,-0.605
3906,0.755,-0.295
3907,-0.105,-0.035
3908,-0.055,0.015
3909,-0.085,-0.015
3910,-0.155,-0.015
3911,-0.195,-0.025
3912,-0.205,-0.015
3913,-0.205,-0.015
3914,-0.205,-0.015
3915,-0.215,-0.035
3916,-0.205,-0.025
3917,-0.205,-0.025
3918,-0.195,-0.015
3919,-0.205,-0.025
3920,-0.195,-0.025
3921,-0.175,-0.015
3922,-0.185,-0.015
3923,-0.175,-0.025
3924,-0.155,-0.025
3925,-0.135,-0.015
3926,-0.125,-0.005
3927,-0.115,-0.025
3928,-0.095,-0.005
3929,-0.055,0.005
3930,-0.045,-0.005
3931,-0.005,-0.005
3932,0.035,0.005
3933,0.085,0.015
3934,0.145,0.015
3935,0.195,0.005
3936,0.265,0.025
3937,0.335,0.025
3938,0.385,0.025
3939,0.435,0.015
3940,0.475,0.025
3941,0.525,0.055
3942,0.515,0.045
3943,0.445,0.035
3944,0.335,0.035
3945,0.205,0.025
3946,0.085,-0.005
3947,-0.035,-0.045
3948,-0.115,-0.045
3949,-0.175,-0.055
3950,-0.195,-0.065
3951,-0.225,-0.085
3952,-0.225,-0.075
3953,-0.225,-0.065
3954,-0.235,-0.075
3955,-0.245,-0.085
3956,-0.235,-0.075
3957,-0.225,-0.065
3958,-0.225,-0.055
3959,-0.235,-0.065
3960,-0.225,-0.065
3961,-0.205,-0.045
3962,-0.215,-0.045
3963,-0.215,-0.055
3964,-0.215,-0.055
3965,-0.205,-0.055
3966,-0.205,-0.065
3967,-0.205,-0.065
3968,-0.215,-0.065
3969,-0.205,-0.055
3970,-0.215,-0.065
3971,-0.225,-0.085
3972,-0.215,-0.085
3973,-0.225,-0.085
3974,-0.215,-0.075
3975,-0.225,-0.095
3976,-0.235,-0.095
3977,-0.225,-0.085
3978,-0.235,-0.095
3979,-0.235,-0.105
3980,-0.235,-0.095
3981,-0.235,-0.095
3982,-0.235,-0.095
3983,-0.235,-0.105
3984,-0.235,-0.105
3985,-0.225,-0.095
3986,-0.225,-0.095
3987,-0.225,-0.115
3988,-0.215,-0.105
3989,-0.215,-0.095
3990,-0.225,-0.095
3991,-0.225,-0.105
3992,-0.235,-0.105
3993,-0.215,-0.095
3994,-0.215,-0.105
3995,-0.215,-0.115
3996,-0.205,-0.095
3997,-0.205,-0.095
3998,-0.205,-0.105
3999,-0.225,-0.125
4000,-0.195,-0.075
4001,-0.125,-0.055
4002,-0.115,-0.045
4003,-0.065,-0.085
4004,-0.065,-0.105
4005,-0.125,-0.105
4006,-0.155,-0.125
4007,-0.175,-0.135
4008,-0.185,-0.115
4009,-0.195,-0.095
4010,-0.195,-0.115
4011,-0.205,-0.125
4012,-0.195,-0.105
4013,-0.185,-0.105
4014,-0.185,-0.105
4015,-0.185,-0.105
4016,-0.185,-0.105
4017,-0.145,-0.085
4018,-0.165,-0.105
4019,-0.145,-0.105
4020,-0.175,0.045
4021,-0.555,0.115
4022,-0.575,0.035
4023,0.705,-1.085
4024,2.055,-1.015
4025,2.755,-0.525
4026,2.055,-0.575
4027,0.375,-0.175
4028,-0.095,-0.005
4029,-0.045,0.015
4030,-0.085,0.005
4031,-0.135,-0.015
4032,-0.165,-0.015
4033,-0.175,-0.005
4034,-0.185,0.005
4035,-0.205,-0.015
4036,-0.195,-0.005
4037,-0.195,-0.015
4038,-0.195,-0.005
4039,-0.185,-0.005
4040,-0.175,-0.015
4041,-0.175,-0.005
4042,-0.175,-0.005
4043,-0.175,0.005
4044,-0.165,-0.005
4045,-0.155,-0.015
4046,-0.125,-0.005
4047,-0.125,-0.005
4048,-0.095,-0.005
4049,-0.055,0.015
4050,-0.045,0.015
4051,-0.025,0.005
4052,0.015,0.015
4053,0.065,0.015
4054,0.115,0.025
4055,0.165,0.005
4056,0.235,0.015
4057,0.315,0.045
4058,0.355,0.025
4059,0.405,0.015
4060,0.465,0.035
4061,0.525,0.045
4062,0.545,0.045
4063,0.505,0.025
4064,0.405,0.035
4065,0.305,0.035
4066,0.155,0.005
4067,0.025,-0.025
4068,-0.065,-0.045
4069,-0.135,-0.055
4070,-0.175,-0.065
4071,-0.195,-0.085
4072,-0.215,-0.075
4073,-0.205,-0.065
4074,-0.205,-0.075
4075,-0.205,-0.085
4076,-0.205,-0.075
4077,-0.205,-0.065
4078,-0.195,-0.065
4079,-0.215,-0.075
4080,-0.215,-0.055
4081,-0.185,-0.055
4082,-0.185,-0.055
4083,-0.195,-0.075
4084,-0.185,-0.055
4085,-0.195,-0.055
4086,-0.185,-0.055
4087,-0.185,-0.065
4088,-0.185,-0.065
4089,-0.175,-0.055
4090,-0.185,-0.065
4091,-0.205,-0.095
4092,-0.195,-0.075
4093,-0.195,-0.085
4094,-0.195,-0.085
4095,-0.195,-0.095
4096,-0.205,-0.095
4097,-0.185,-0.085
4098,-0.195,-0.095
4099,-0.215,-0.105
4100,-0.205,-0.115
4101,-0.205,-0.105
4102,-0.205,-0.105
4103,-0.215,-0.125
4104,-0.205,-0.115
4105,-0.195,-0.105
4106,-0.205,-0.115
4107,-0.205,-0.125
4108,-0.195,-0.115
4109,-0.185,-0.115
4110,-0.185,-0.115
4111,-0.185,-0.135
4112,-0.185,-0.115
4113,-0.175,-0.105
4114,-0.185,-0.115
4115,-0.175,-0.135
4116,-0.175,-0.115
4117,-0.175,-0.115
4118,-0.175,-0.115
4119,-0.165,-0.125
4120,-0.155,-0.115
4121,-0.155,-0.105
4122,-0.165,-0.115
4123,-0.165,-0.105
4124,-0.095,-0.065
4125,-0.095,-0.085
4126,-0.085,-0.065
4127,0.025,-0.085
4128,-0.025,-0.145
4129,-0.095,-0.115
4130,-0.125,-0.145
4131,-0.135,-0.145
4132,-0.155,-0.115
4133,-0.155,-0.125
4134,-0.165,-0.135
4135,-0.175,-0.135
4136,-0.155,-0.135
4137,-0.145,-0.115
4138,-0.155,-0.135
4139,-0.165,-0.135
4140,-0.155,-0.135
4141,-0.145,-0.125
4142,-0.135,-0.125
4143,-0.125,-0.125
4144,-0.175,0.025
4145,-0.525,0.085
4146,-0.525,0.025
4147,0.595,-0.965
4148,1.915,-1.095
4149,2.625,-0.545
4150,2.425,-0.635
4151,0.605,-0.255
4152,-0.065,-0.035
4153,-0.025,0.005
4154,-0.085,-0.035
4155,-0.145,-0.055
4156,-0.155,-0.045
4157,-0.165,-0.045
4158,-0.165,-0.025
4159,-0.185,-0.045
4160,-0.175,-0.035
4161,-0.155,-0.035
4162,-0.175,-0.035
4163,-0.175,-0.045
4164,-0.155,-0.035
4165,-0.155,-0.055
4166,-0.145,-0.045
4167,-0.145,-0.045
4168,-0.125,-0.045
4169,-0.095,-0.025
4170,-0.105,-0.035
4171,-0.095,-0.055
4172,-0.075,-0.045
4173,-0.025,-0.035
4174,-0.005,-0.035
4175,0.015,-0.045
4176,0.055,-0.045
4177,0.115,-0.025
4178,0.165,-0.025
4179,0.205,-0.035
4180,0.285,-0.035
4181,0.345,-0.015
4182,0.395,-0.015
4183,0.465,-0.035
4184,0.515,-0.025
4185,0.555,-0.015
4186,0.575,-0.005
4187,0.525,-0.015
4188,0.455,0.005
4189,0.325,-0.005
4190,0.195,-0.025
4191,0.065,-0.065
4192,-0.045,-0.065
4193,-0.105,-0.075
4194,-0.155,-0.075
4195,-0.185,-0.085
4196,-0.195,-0.095
4197,-0.195,-0.085
4198,-0.195,-0.085
4199,-0.205,-0.105
4200,-0.205,-0.095
4201,-0.195,-0.085
4202,-0.205,-0.095
4203,-0.205,-0.105
4204,-0.185,-0.085
4205,-0.185,-0.085
4206,-0.175,-0.065
4207,-0.185,-0.095
4208,-0.185,-0.075
4209,-0.165,-0.065
4210,-0.185,-0.075
4211,-0.185,-0.085
4212,-0.185,-0.085
4213,-0.185,-0.085
4214,-0.185,-0.085
4215,-0.195,-0.095
4216,-0.195,-0.105
4217,-0.185,-0.095
4218,-0.205,-0.105
4219,-0.205,-0.115
4220,-0.205,-0.115
4221,-0.205,-0.115
4222,-0.205,-0.115
4223,-0.205,-0.125
4224,-0.215,-0.125
4225,-0.195,-0.115
4226,-0.205,-0.115
4227,-0.215,-0.135
4228,-0.195,-0.125
4229,-0.195,-0.125
4230,-0.195,-0.125
4231,-0.205,-0.125
4232,-0.195,-0.125
4233,-0.185,-0.115
4234,-0.195,-0.135
4235,-0.195,-0.135
4236,-0.185,-0.135
4237,-0.195,-0.125
4238,-0.195,-0.135
4239,-0.185,-0.145
4240,-0.165,-0.115
4241,-0.095,-0.085
4242,-0.105,-0.095
4243,-0.075,-0.085
4244,0.005,-0.105
4245,-0.075,-0.155
4246,-0.115,-0.135
4247,-0.155,-0.165
4248,-0.165,-0.145
4249,-0.185,-0.125
4250,-0.185,-0.145
4251,-0.195,-0.145
4252,-0.185,-0.145
4253,-0.175,-0.125
4254,-0.175,-0.125
4255,-0.185,-0.145
4256,-0.175,-0.145
4257,-0.155,-0.145
4258,-0.165,-0.135
4259,-0.165,-0.145
4260,-0.145,-0.145
4261,-0.125,-0.075
4262,-0.415,0.055
4263,-0.565,0.075
4264,0.075,-0.405
4265,1.545,-1.025
4266,2.415,-0.555
4267,2.715,-0.535
4268,1.295,-0.425
4269,0.005,-0.135
4270,-0.035,-0.025
4271,-0.045,-0.045
4272,-0.095,-0.055
4273,-0.125,-0.035
4274,-0.165,-0.045
4275,-0.185,-0.065
4276,-0.185,-0.045
4277,-0.175,-0.055
4278,-0.185,-0.045
4279,-0.185,-0.065
4280,-0.175,-0.055
4281,-0.145,-0.025
4282,-0.155,-0.055
4283,-0.175,-0.065
4284,-0.155,-0.065
4285,-0.145,-0.065
4286,-0.145,-0.055
4287,-0.135,-0.065
4288,-0.105,-0.065
4289,-0.085,-0.055
4290,-0.065,-0.065
4291,-0.065,-0.065
4292,-0.035,-0.055
4293,0.015,-0.055
4294,0.045,-0.055
4295,0.085,-0.065
4296,0.145,-0.055
4297,0.215,-0.045
4298,0.275,-0.055
4299,0.325,-0.075
4300,0.385,-0.065
4301,0.445,-0.055
4302,0.485,-0.045
4303,0.505,-0.055
4304,0.505,-0.035
4305,0.455,-0.015
4306,0.335,-0.015
4307,0.195,-0.035
4308,0.065,-0.025
4309,-0.025,-0.045
4310,-0.105,-0.055
4311,-0.185,-0.075
4312,-0.205,-0.085
4313,-0.215,-0.075
4314,-0.245,-0.085
4315,-0.265,-0.085
4316,-0.245,-0.085
4317,-0.245,-0.075
4318,-0.245,-0.065
4319,-0.255,-0.085
4320,-0.235,-0.075
4321,-0.225,-0.055
4322,-0.245,-0.055
4323,-0.245,-0.065
4324,-0.225,-0.065
4325,-0.225,-0.065
4326,-0.215,-0.055
4327,-0.235,-0.065
4328,-0.205,-0.065
4329,-0.195,-0.055
4330,-0.215,-0.065
4331,-0.225,-0.075
4332,-0.225,-0.085
4333,-0.215,-0.085
4334,-0.225,-0.085
4335,-0.235,-0.095
4336,-0.225,-0.095
4337,-0.215,-0.085
4338,-0.235,-0.095
4339,-0.255,-0.115
4340,-0.235,-0.105
4341,-0.235,-0.105
4342,-0.235,-0.095
4343,-0.245,-0.115
4344,-0.235,-0.115
4345,-0.215,-0.095
4346,-0.235,-0.115
4347,-0.245,-0.115
4348,-0.235,-0.115
4349,-0.235,-0.115
4350,-0.225,-0.115
4351,-0.235,-0.125
4352,-0.215,-0.105
4353,-0.205,-0.105
4354,-0.215,-0.115
4355,-0.255,-0.165
4356,-0.205,-0.115
4357,-0.145,-0.075
4358,-0.075,-0.055
4359,-0.085,-0.135
4360,-0.125,-0.115
4361,-0.145,-0.115
4362,-0.175,-0.135
4363,-0.195,-0.135
4364,-0.215,-0.105
4365,-0.215,-0.115
4366,-0.195,-0.115
4367,-0.195,-0.115
4368,-0.195,-0.115
4369,-0.185,-0.115
4370,-0.185,-0.105
4371,-0.195,-0.125
4372,-0.175,-0.115
4373,-0.175,-0.095
4374,-0.175,-0.115
4375,-0.145,-0.105
4376,-0.215,0.085
4377,-0.535,0.135
4378,-0.555,0.125
4379,0.425,-0.795
4380,1.865,-1.225
4381,2.545,-0.615
4382,2.645,-0.595
4383,1.035,-0.325
4384,-0.045,-0.025
4385,-0.035,0.045
4386,-0.085,0.005
4387,-0.145,-0.015
4388,-0.175,-0.005
4389,-0.185,-0.005
4390,-0.195,-0.005
4391,-0.205,-0.015
4392,-0.205,-0.015
4393,-0.195,-0.005
4394,-0.205,-0.005
4395,-0.205,-0.015
4396,-0.195,-0.005
4397,-0.195,-0.005
4398,-0.175,-0.005
4399,-0.185,-0.005
4400,-0.165,-0.005
4401,-0.135,-0.005
4402,-0.135,-0.005
4403,-0.135,-0.015
4404,-0.105,-0.005
4405,-0.085,-0.005
4406,-0.055,0.015
4407,-0.045,0.005
4408,-0.005,0.015
4409,0.045,0.035
4410,0.085,0.025
4411,0.125,0.025
4412,0.195,0.025
4413,0.265,0.035
4414,0.325,0.045
4415,0.375,0.025
4416,0.445,0.025
4417,0.515,0.055
4418,0.545,0.045
4419,0.535,0.025
4420,0.465,0.045
4421,0.365,0.035
4422,0.205,0.015
4423,0.065,-0.005
4424,-0.055,-0.035
4425,-0.125,-0.035
4426,-0.175,-0.055
4427,-0.215,-0.065
4428,-0.215,-0.065
4429,-0.215,-0.065
4430,-0.225,-0.055
4431,-0.235,-0.065
4432,-0.235,-0.065
4433,-0.215,-0.055
4434,-0.235,-0.055
4435,-0.245,-0.065
4436,-0.235,-0.055
4437,-0.225,-0.045
4438,-0.225,-0.045
4439,-0.225,-0.045
4440,-0.235,-0.045
4441,-0.215,-0.035
4442,-0.215,-0.035
4443,-0.225,-0.045
4444,-0.225,-0.035
4445,-0.215,-0.045
4446,-0.215,-0.045
4447,-0.225,-0.055
4448,-0.225,-0.055
4449,-0.205,-0.055
4450,-0.225,-0.065
4451,-0.235,-0.075
4452,-0.225,-0.065
4453,-0.225,-0.065
4454,-0.235,-0.085
4455,-0.235,-0.095
4456,-0.245,-0.085
4457,-0.235,-0.075
4458,-0.225,-0.085
4459,-0.245,-0.095
4460,-0.235,-0.085
4461,-0.235,-0.085
4462,-0.225,-0.075
4463,-0.235,-0.095
4464,-0.235,-0.095
4465,-0.225,-0.085
4466,-0.225,-0.095
4467,-0.235,-0.105
4468,-0.225,-0.095
4469,-0.225,-0.085
4470,-0.225,-0.095
4471,-0.215,-0.095
4472,-0.165,-0.055
4473,-0.115,-0.045
4474,-0.145,-0.065
4475,-0.045,-0.045
4476,-0.055,-0.115
4477,-0.165,-0.115
4478,-0.175,-0.105
4479,-0.185,-0.125
4480,-0.195,-0.105
4481,-0.195,-0.085
4482,-0.225,-0.105
4483,-0.235,-0.125
4484,-0.215,-0.105
4485,-0.205,-0.105
4486,-0.205,-0.095
4487,-0.225,-0.105
4488,-0.205,-0.105
4489,-0.185,-0.095
4490,-0.185,-0.105
4491,-0.185,-0.105
4492,-0.195,0.045
4493,-0.575,0.135
4494,-0.565,0.045
4495,0.665,-1.025
4496,1.995,-1.115
4497,2.625,-0.535
4498,2.305,-0.595
4499,0.515,-0.205
4500,-0.125,0.005
4501,-0.095,0.025
4502,-0.135,0.005
4503,-0.195,-0.015
4504,-0.205,-0.005
4505,-0.205,0.005
4506,-0.225,-0.005
4507,-0.235,-0.005
4508,-0.225,-0.005
4509,-0.225,-0.005
4510,-0.215,-0.005
4511,-0.215,-0.015
4512,-0.215,-0.015
4513,-0.195,0.005
4514,-0.195,-0.005
4515,-0.195,-0.015
4516,-0.175,-0.015
4517,-0.165,-0.005
4518,-0.155,0.005
4519,-0.155,-0.005
4520,-0.135,0.005
4521,-0.085,0.015
4522,-0.075,0.015
4523,-0.045,0.015
4524,-0.005,0.025
4525,0.045,0.035
4526,0.095,0.035
4527,0.145,0.035
4528,0.215,0.045
4529,0.285,0.045
4530,0.345,0.045
4531,0.395,0.025
4532,0.455,0.025
4533,0.505,0.055
4534,0.515,0.055
4535,0.465,0.055
4536,0.365,0.045
4537,0.255,0.045
4538,0.115,0.025
4539,-0.015,-0.015
4540,-0.115,-0.025
4541,-0.175,-0.035
4542,-0.205,-0.045
4543,-0.235,-0.055
4544,-0.245,-0.055
4545,-0.235,-0.045
4546,-0.255,-0.065
4547,-0.255,-0.065
4548,-0.255,-0.045
4549,-0.245,-0.055
4550,-0.245,-0.045
4551,-0.245,-0.065
4552,-0.245,-0.045
4553,-0.225,-0.035
4554,-0.245,-0.045
4555,-0.245,-0.055
4556,-0.225,-0.045
4557,-0.225,-0.035
4558,-0.225,-0.035
4559,-0.235,-0.045
4560,-0.235,-0.055
4561,-0.215,-0.035
4562,-0.235,-0.055
4563,-0.235,-0.065
4564,-0.235,-0.065
4565,-0.235,-0.065
4566,-0.235,-0.065
4567,-0.235,-0.085
4568,-0.235,-0.085
4569,-0.225,-0.075
4570,-0.245,-0.085
4571,-0.255,-0.105
4572,-0.245,-0.095
4573,-0.245,-0.095
4574,-0.245,-0.095
4575,-0.255,-0.105
4576,-0.235,-0.095
4577,-0.215,-0.085
4578,-0.235,-0.095
4579,-0.245,-0.115
4580,-0.225,-0.105
4581,-0.235,-0.105
4582,-0.235,-0.105
4583,-0.235,-0.115
4584,-0.215,-0.105
4585,-0.225,-0.095
4586,-0.225,-0.105
4587,-0.235,-0.105
4588,-0.225,-0.105
4589,-0.225,-0.095
4590,-0.215,-0.095
4591,-0.215,-0.105
4592,-0.215,-0.125
4593,-0.185,-0.075
4594,-0.145,-0.055
4595,-0.145,-0.075
4596,-0.095,-0.065
4597,-0.005,-0.085
4598,-0.095,-0.125
4599,-0.155,-0.105
4600,-0.175,-0.125
4601,-0.155,-0.105
4602,-0.205,-0.105
4603,-0.215,-0.125
4604,-0.205,-0.125
4605,-0.205,-0.105
4606,-0.215,-0.105
4607,-0.205,-0.115
4608,-0.215,-0.125
4609,-0.195,-0.095
4610,-0.205,-0.115
4611,-0.205,-0.115
4612,-0.205,-0.115
4613,-0.195,-0.105
4614,-0.185,-0.105
4615,-0.165,-0.125
4616,-0.135,-0.075
4617,-0.305,0.115
4618,-0.605,0.145
4619,-0.305,-0.205
4620,1.195,-1.195
4621,2.275,-0.765
4622,2.745,-0.555
4623,1.795,-0.565
4624,0.235,-0.135
4625,-0.055,0.025
4626,-0.045,0.005
4627,-0.105,-0.025
4628,-0.145,-0.025
4629,-0.175,-0.025
4630,-0.205,-0.015
4631,-0.225,-0.035
4632,-0.215,-0.035
4633,-0.205,-0.015
4634,-0.215,-0.025
4635,-0.215,-0.035
4636,-0.205,-0.015
4637,-0.195,-0.025
4638,-0.185,-0.035
4639,-0.195,-0.045
4640,-0.175,-0.025
4641,-0.135,-0.015
4642,-0.135,-0.025
4643,-0.145,-0.045
4644,-0.115,-0.045
4645,-0.105,-0.025
4646,-0.075,-0.015
4647,-0.065,-0.035
4648,-0.035,-0.025
4649,0.035,-0.015
4650,0.055,-0.015
4651,0.095,-0.025
4652,0.165,-0.025
4653,0.225,-0.015
4654,0.295,-0.005
4655,0.345,-0.025
4656,0.395,-0.015
4657,0.475,-0.005
4658,0.505,-0.005
4659,0.535,-0.015
4660,0.545,0.005
4661,0.465,0.005
4662,0.355,0.005
4663,0.225,-0.015
4664,0.105,-0.035
4665,0.005,-0.035
4666,-0.105,-0.055
4667,-0.165,-0.075
4668,-0.185,-0.065
4669,-0.215,-0.085
4670,-0.215,-0.065
4671,-0.225,-0.085
4672,-0.235,-0.085
4673,-0.205,-0.075
4674,-0.225,-0.065
4675,-0.225,-0.095
4676,-0.225,-0.085
4677,-0.205,-0.075
4678,-0.205,-0.065
4679,-0.215,-0.085
4680,-0.205,-0.065
4681,-0.185,-0.055
4682,-0.205,-0.055
4683,-0.205,-0.065
4684,-0.205,-0.065
4685,-0.195,-0.065
4686,-0.195,-0.065
4687,-0.215,-0.075
4688,-0.215,-0.075
4689,-0.205,-0.075
4690,-0.215,-0.085
4691,-0.225,-0.095
4692,-0.215,-0.085
4693,-0.205,-0.085
4694,-0.225,-0.095
4695,-0.235,-0.115
4696,-0.215,-0.115
4697,-0.215,-0.095
4698,-0.225,-0.105
4699,-0.225,-0.115
4700,-0.205,-0.115
4701,-0.205,-0.105
4702,-0.215,-0.105
4703,-0.215,-0.115
4704,-0.215,-0.115
4705,-0.195,-0.105
4706,-0.205,-0.115
4707,-0.205,-0.105
4708,-0.195,-0.095
4709,-0.205,-0.115
4710,-0.175,-0.085
4711,-0.125,-0.075
4712,-0.135,-0.095
4713,-0.045,-0.065
4714,-0.015,-0.105
4715,-0.125,-0.135
4716,-0.135,-0.105
4717,-0.145,-0.135
4718,-0.185,-0.115
4719,-0.195,-0.105
4720,-0.215,-0.125
4721,-0.195,-0.115
4722,-0.195,-0.115
4723,-0.205,-0.125
4724,-0.205,-0.125
4725,-0.195,-0.115
4726,-0.195,-0.125
4727,-0.205,-0.125
4728,-0.195,-0.115
4729,-0.185,-0.115
4730,-0.185,-0.115
4731,-0.185,-0.135
4732,-0.155,-0.115
4733,-0.135,-0.075
4734,-0.365,0.095
4735,-0.575,0.125
4736,-0.125,-0.215
4737,1.355,-1.075
4738,2.335,-0.645
4739,2.765,-0.545
4740,1.685,-0.495
4741,0.135,-0.135
4742,-0.065,-0.005
4743,-0.075,-0.025
4744,-0.135,-0.035
4745,-0.155,-0.025
4746,-0.185,-0.025
4747,-0.195,-0.045
4748,-0.195,-0.045
4749,-0.185,-0.035
4750,-0.185,-0.035
4751,-0.205,-0.045
4752,-0.195,-0.045
4753,-0.175,-0.035
4754,-0.185,-0.045
4755,-0.175,-0.055
4756,-0.165,-0.045
4757,-0.155,-0.045
4758,-0.145,-0.035
4759,-0.145,-0.055
4760,-0.135,-0.045
4761,-0.095,-0.035
4762,-0.085,-0.035
4763,-0.075,-0.045
4764,-0.035,-0.045
4765,0.005,-0.025
4766,0.035,-0.025
4767,0.065,-0.035
4768,0.125,-0.025
4769,0.205,-0.015
4770,0.245,-0.015
4771,0.305,-0.035
4772,0.375,-0.025
4773,0.425,-0.025
4774,0.475,-0.005
4775,0.505,-0.025
4776,0.535,-0.015
4777,0.515,0.015
4778,0.405,0.005
4779,0.265,-0.005
4780,0.145,-0.015
4781,0.015,-0.035
4782,-0.085,-0.045
4783,-0.155,-0.065
4784,-0.175,-0.065
4785,-0.195,-0.055
4786,-0.205,-0.065
4787,-0.225,-0.085
4788,-0.225,-0.085
4789,-0.215,-0.075
4790,-0.215,-0.065
4791,-0.225,-0.075
4792,-0.225,-0.065
4793,-0.195,-0.055
4794,-0.205,-0.055
4795,-0.205,-0.065
4796,-0.195,-0.055
4797,-0.195,-0.045
4798,-0.195,-0.045
4799,-0.205,-0.055
4800,-0.195,-0.055
4801,-0.175,-0.045
4802,-0.195,-0.055
4803,-0.205,-0.075
4804,-0.195,-0.065
4805,-0.195,-0.065
4806,-0.195,-0.065
4807,-0.215,-0.085
4808,-0.205,-0.075
4809,-0.195,-0.075
4810,-0.205,-0.085
4811,-0.225,-0.105
4812,-0.215,-0.095
4813,-0.225,-0.095
4814,-0.215,-0.105
4815,-0.215,-0.105
4816,-0.235,-0.105
4817,-0.215,-0.085
4818,-0.215,-0.095
4819,-0.225,-0.115
4820,-0.215,-0.105
4821,-0.215,-0.095
4822,-0.205,-0.105
4823,-0.215,-0.105
4824,-0.195,-0.095
4825,-0.205,-0.095
4826,-0.195,-0.085
4827,-0.195,-0.095
4828,-0.165,-0.075
4829,-0.115,-0.035
4830,-0.105,-0.035
4831,-0.115,-0.085
4832,0.005,-0.065
4833,-0.015,-0.085
4834,-0.095,-0.105
4835,-0.135,-0.115
4836,-0.135,-0.125
4837,-0.175,-0.125
4838,-0.185,-0.095
4839,-0.205,-0.125
4840,-0.215,-0.125
4841,-0.195,-0.105
4842,-0.195,-0.105
4843,-0.205,-0.125
4844,-0.195,-0.115
4845,-0.195,-0.115
4846,-0.195,-0.105
4847,-0.205,-0.115
4848,-0.185,-0.115
4849,-0.165,-0.105
4850,-0.175,-0.105
4851,-0.165,-0.115
4852,-0.145,-0.035
4853,-0.445,0.135
4854,-0.575,0.165
4855,0.135,-0.615
4856,1.635,-1.385
4857,2.485,-0.665
4858,2.675,-0.595
4859,1.275,-0.415
4860,0.015,-0.055
4861,-0.055,0.035
4862,-0.085,0.005
4863,-0.155,-0.015
4864,-0.175,-0.005
4865,-0.185,-0.005
4866,-0.195,-0.015
4867,-0.205,-0.015
4868,-0.195,-0.015
4869,-0.185,-0.015
4870,-0.195,-0.005
4871,-0.205,-0.015
4872,-0.185,-0.015
4873,-0.165,-0.005
4874,-0.175,-0.015
4875,-0.175,-0.015
4876,-0.145,-0.015
4877,-0.135,-0.005
4878,-0.125,-0.005
4879,-0.115,-0.015
4880,-0.095,-0.005
4881,-0.065,0.005
4882,-0.045,0.005
4883,-0.005,-0.005
4884,0.015,0.015
4885,0.065,0.025
4886,0.115,0.025
4887,0.165,0.025
4888,0.225,0.035
4889,0.315,0.045
4890,0.365,0.035
4891,0.425,0.035
4892,0.495,0.035
4893,0.535,0.055
4894,0.545,0.055
4895,0.505,0.045
4896,0.425,0.045
4897,0.315,0.025
4898,0.175,0.005
4899,0.045,-0.015
4900,-0.055,-0.035
4901,-0.115,-0.045
4902,-0.165,-0.065
4903,-0.195,-0.075
4904,-0.205,-0.065
4905,-0.205,-0.065
4906,-0.205,-0.075
4907,-0.215,-0.085
4908,-0.205,-0.075
4909,-0.205,-0.065
4910,-0.215,-0.065
4911,-0.205,-0.075
4912,-0.205,-0.065
4913,-0.195,-0.055
4914,-0.195,-0.045
4915,-0.195,-0.065
4916,-0.195,-0.045
4917,-0.185,-0.045
4918,-0.185,-0.035
4919,-0.195,-0.055
4920,-0.205,-0.045
4921,-0.185,-0.045
4922,-0.195,-0.065
4923,-0.205,-0.075
4924,-0.205,-0.065
4925,-0.195,-0.065
4926,-0.205,-0.075
4927,-0.205,-0.085
4928,-0.215,-0.085
4929,-0.195,-0.075
4930,-0.215,-0.095
4931,-0.225,-0.095
4932,-0.205,-0.095
4933,-0.205,-0.095
4934,-0.215,-0.095
4935,-0.215,-0.115
4936,-0.215,-0.105
4937,-0.195,-0.095
4938,-0.205,-0.115
4939,-0.205,-0.115
4940,-0.195,-0.105
4941,-0.195,-0.105
4942,-0.195,-0.095
4943,-0.195,-0.105
4944,-0.195,-0.105
4945,-0.185,-0.095
4946,-0.185,-0.105
4947,-0.185,-0.115
4948,-0.185,-0.115
4949,-0.185,-0.105
4950,-0.175,-0.095
4951,-0.165,-0.095
4952,-0.175,-0.105
4953,-0.145,-0.095
4954,-0.165,-0.105
4955,-0.125,-0.065
4956,-0.075,-0.055
4957,-0.085,-0.085
4958,0.015,-0.055
4959,0.025,-0.115
4960,-0.105,-0.115
4961,-0.105,-0.095
4962,-0.125,-0.125
4963,-0.135,-0.115
4964,-0.155,-0.105
4965,-0.165,-0.105
4966,-0.165,-0.105
4967,-0.165,-0.115
4968,-0.155,-0.105
4969,-0.145,-0.095
4970,-0.145,-0.095
4971,-0.165,-0.105
4972,-0.155,-0.105
4973,-0.145,-0.095
4974,-0.145,-0.095
4975,-0.145,-0.105
4976,-0.125,-0.095
4977,-0.085,-0.085
4978,-0.155,0.075
4979,-0.545,0.135
4980,-0.445,-0.005
4981,0.875,-1.125
4982,2.125,-1.105
4983,2.675,-0.555
4984,2.195,-0.595
4985,0.505,-0.135
4986,-0.045,0.035
4987,-0.015,0.025
4988,-0.065,0.005
4989,-0.125,0.005
4990,-0.145,0.015
4991,-0.175,-0.005
4992,-0.165,0.005
4993,-0.155,0.005
4994,-0.175,0.015
4995,-0.175,-0.005
4996,-0.165,0.005
4997,-0.155,0.015
4998,-0.145,0.015
4999,-0.155,-0.005
5000,-0.145,0.005
5001,-0.115,0.015
5002,-0.115,0.005
5003,-0.115,-0.005
5004,-0.095,0.005
5005,-0.075,0.015
5006,-0.065,0.015
5007,-0.055,0.005
5008,-0.015,0.015
5009,0.035,0.035
5010,0.045,0.045
5011,0.075,0.025
5012,0.135,0.035
5013,0.165,0.035
5014,0.245,0.055
5015,0.295,0.045
5016,0.365,0.055
5017,0.445,0.065
5018,0.485,0.065
5019,0.515,0.055
5020,0.565,0.065
5021,0.565,0.075
5022,0.505,0.065
5023,0.385,0.035
5024,0.265,0.025
5025,0.155,0.025
5026,0.015,-0.015
5027,-0.095,-0.045
5028,-0.125,-0.055
5029,-0.165,-0.065
5030,-0.185,-0.055
5031,-0.205,-0.065
5032,-0.185,-0.065
5033,-0.175,-0.065
5034,-0.185,-0.065
5035,-0.185,-0.065
5036,-0.175,-0.055
5037,-0.175,-0.055
5038,-0.175,-0.055
5039,-0.185,-0.065
5040,-0.175,-0.045
5041,-0.155,-0.025
5042,-0.165,-0.025
5043,-0.175,-0.055
5044,-0.165,-0.045
5045,-0.165,-0.035
5046,-0.175,-0.035
5047,-0.175,-0.055
5048,-0.175,-0.045
5049,-0.165,-0.035
5050,-0.185,-0.055
5051,-0.185,-0.075
5052,-0.175,-0.075
5053,-0.185,-0.065
5054,-0.185,-0.065
5055,-0.185,-0.085
5056,-0.195,-0.095
5057,-0.185,-0.085
5058,-0.185,-0.085
5059,-0.185,-0.095
5060,-0.185,-0.095
5061,-0.175,-0.095
5062,-0.185,-0.095
5063,-0.195,-0.095
5064,-0.195,-0.095
5065,-0.175,-0.085
5066,-0.175,-0.095
5067,-0.185,-0.105
5068,-0.175,-0.095
5069,-0.165,-0.095
5070,-0.165,-0.085
5071,-0.165,-0.095
5072,-0.165,-0.095
5073,-0.145,-0.085
5074,-0.165,-0.085
5075,-0.165,-0.105
5076,-0.155,-0.095
5077,-0.145,-0.095
5078,-0.145,-0.085
5079,-0.155,-0.085
5080,-0.145,-0.095
5081,-0.125,-0.095
5082,-0.145,-0.095
5083,-0.095,-0.055
5084,-0.065,-0.065
5085,-0.025,-0.065
5086,0.015,-0.085
5087,-0.055,-0.125
5088,-0.065,-0.105
5089,-0.095,-0.135
5090,-0.125,-0.115
5091,-0.145,-0.095
5092,-0.145,-0.105
5093,-0.155,-0.115
5094,-0.135,-0.105
5095,-0.135,-0.095
5096,-0.135,-0.105
5097,-0.105,-0.095
5098,-0.125,-0.095
5099,-0.135,-0.105
5100,-0.115,-0.115
5101,-0.105,-0.095
5102,-0.105,-0.095
5103,-0.085,-0.105
5104,-0.135,0.045
5105,-0.495,0.115
5106,-0.385,-0.005
5107,1.015,-1.015
5108,2.215,-0.825
5109,2.815,-0.525
5110,1.635,-0.495
5111,0.135,-0.105
5112,0.005,0.025
5113,0.015,0.025
5114,-0.045,0.005
5115,-0.105,-0.005
5116,-0.125,-0.005
5117,-0.135,-0.005
5118,-0.135,0.005
5119,-0.135,-0.015
5120,-0.145,-0.005
5121,-0.135,-0.005
5122,-0.145,-0.015
5123,-0.135,-0.015
5124,-0.135,-0.015
5125,-0.115,-0.015
5126,-0.105,-0.015
5127,-0.095,-0.025
5128,-0.085,-0.025
5129,-0.065,-0.015
5130,-0.055,-0.015
5131,-0.035,-0.025
5132,-0.005,-0.025
5133,0.005,-0.015
5134,0.025,-0.015
5135,0.055,-0.025
5136,0.115,-0.005
5137,0.165,-0.005
5138,0.225,-0.015
5139,0.285,-0.015
5140,0.355,-0.005
5141,0.405,-0.005
5142,0.465,-0.005
5143,0.515,-0.005
5144,0.555,-0.005
5145,0.595,0.005
5146,0.595,0.005
5147,0.525,-0.005
5148,0.435,0.005
5149,0.305,-0.005
5150,0.195,-0.005
5151,0.065,-0.045
5152,-0.035,-0.055
5153,-0.095,-0.065
5154,-0.125,-0.075
5155,-0.145,-0.085
5156,-0.155,-0.075
5157,-0.145,-0.075
5158,-0.165,-0.075
5159,-0.165,-0.085
5160,-0.165,-0.085
5161,-0.155,-0.075
5162,-0.155,-0.065
5163,-0.145,-0.075
5164,-0.155,-0.075
5165,-0.155,-0.065
5166,-0.135,-0.065
5167,-0.145,-0.075
5168,-0.135,-0.065
5169,-0.135,-0.055
5170,-0.135,-0.075
5171,-0.145,-0.085
5172,-0.135,-0.075
5173,-0.135,-0.065
5174,-0.145,-0.085
5175,-0.145,-0.095
5176,-0.165,-0.095
5177,-0.155,-0.085
5178,-0.155,-0.095
5179,-0.165,-0.105
5180,-0.155,-0.115
5181,-0.175,-0.095
5182,-0.175,-0.105
5183,-0.175,-0.115
5184,-0.175,-0.115
5185,-0.165,-0.105
5186,-0.185,-0.115
5187,-0.175,-0.125
5188,-0.165,-0.125
5189,-0.165,-0.115
5190,-0.165,-0.115
5191,-0.175,-0.125
5192,-0.185,-0.125
5193,-0.155,-0.125
5194,-0.165,-0.125
5195,-0.165,-0.135
5196,-0.165,-0.125
5197,-0.165,-0.115
5198,-0.185,-0.155
5199,-0.175,-0.145
5200,-0.115,-0.105
5201,-0.045,-0.065
5202,-0.015,-0.105
5203,-0.075,-0.145
5204,-0.065,-0.125
5205,-0.115,-0.145
5206,-0.135,-0.135
5207,-0.175,-0.125
5208,-0.175,-0.135
5209,-0.165,-0.125
5210,-0.155,-0.125
5211,-0.165,-0.135
5212,-0.155,-0.115
5213,-0.155,-0.115
5214,-0.155,-0.115
5215,-0.165,-0.125
5216,-0.155,-0.115
5217,-0.135,-0.115
5218,-0.115,-0.115
5219,-0.195,-0.005
5220,-0.515,0.065
5221,-0.495,0.075
5222,0.565,-0.695
5223,1.905,-0.945
5224,2.605,-0.535
5225,2.445,-0.545
5226,0.685,-0.305
5227,-0.085,-0.065
5228,-0.035,0.005
5229,-0.075,-0.025
5230,-0.125,-0.035
5231,-0.165,-0.035
5232,-0.175,-0.035
5233,-0.175,-0.025
5234,-0.185,-0.035
5235,-0.185,-0.045
5236,-0.175,-0.045
5237,-0.165,-0.025
5238,-0.165,-0.035
5239,-0.175,-0.055
5240,-0.175,-0.045
5241,-0.155,-0.035
5242,-0.155,-0.045
5243,-0.155,-0.055
5244,-0.135,-0.045
5245,-0.115,-0.045
5246,-0.105,-0.045
5247,-0.095,-0.045
5248,-0.075,-0.035
5249,-0.045,-0.035
5250,-0.025,-0.035
5251,0.005,-0.045
5252,0.055,-0.035
5253,0.105,-0.045
5254,0.145,-0.025
5255,0.195,-0.045
5256,0.265,-0.035
5257,0.345,-0.025
5258,0.385,-0.025
5259,0.425,-0.035
5260,0.475,-0.025
5261,0.515,-0.015
5262,0.495,0.005
5263,0.405,-0.005
5264,0.295,-0.005
5265,0.185,-0.005
5266,0.045,-0.035
5267,-0.075,-0.055
5268,-0.135,-0.055
5269,-0.175,-0.075
5270,-0.205,-0.075
5271,-0.235,-0.095
5272,-0.225,-0.085
5273,-0.215,-0.075
5274,-0.245,-0.075
5275,-0.245,-0.085
5276,-0.245,-0.075
5277,-0.235,-0.065
5278,-0.235,-0.065
5279,-0.235,-0.065
5280,-0.225,-0.065
5281,-0.205,-0.055
5282,-0.225,-0.055
5283,-0.235,-0.075
5284,-0.215,-0.065
5285,-0.215,-0.065
5286,-0.215,-0.065
5287,-0.225,-0.085
5288,-0.225,-0.065
5289,-0.215,-0.065
5290,-0.225,-0.075
5291,-0.235,-0.095
5292,-0.235,-0.095
5293,-0.235,-0.085
5294,-0.235,-0.095
5295,-0.235,-0.095
5296,-0.245,-0.105
5297,-0.235,-0.095
5298,-0.245,-0.105
5299,-0.245,-0.115
5300,-0.245,-0.105
5301,-0.245,-0.105
5302,-0.235,-0.095
5303,-0.245,-0.115
5304,-0.245,-0.115
5305,-0.215,-0.105
5306,-0.235,-0.105
5307,-0.245,-0.125
5308,-0.235,-0.115
5309,-0.235,-0.115
5310,-0.235,-0.115
5311,-0.245,-0.125
5312,-0.245,-0.115
5313,-0.225,-0.105
5314,-0.235,-0.105
5315,-0.235,-0.115
5316,-0.235,-0.105
5317,-0.215,-0.105
5318,-0.225,-0.125
5319,-0.245,-0.135
5320,-0.205,-0.105
5321,-0.125,-0.055
5322,-0.085,-0.045
5323,-0.085,-0.125
5324,-0.125,-0.135
5325,-0.145,-0.125
5326,-0.185,-0.135
5327,-0.205,-0.145
5328,-0.235,-0.115
5329,-0.215,-0.115
5330,-0.215,-0.115
5331,-0.205,-0.125
5332,-0.205,-0.115
5333,-0.195,-0.105
5334,-0.195,-0.125
5335,-0.215,-0.135
5336,-0.205,-0.105
5337,-0.185,-0.105
5338,-0.175,-0.115
5339,-0.175,-0.025
5340,-0.505,0.115
5341,-0.595,0.125
5342,0.425,-0.835
5343,1.855,-1.295
5344,2.515,-0.605
5345,2.495,-0.615
5346,0.795,-0.305
5347,-0.115,-0.025
5348,-0.075,0.025
5349,-0.115,-0.005
5350,-0.175,-0.015
5351,-0.215,-0.025
5352,-0.235,-0.015
5353,-0.225,-0.015
5354,-0.225,-0.015
5355,-0.225,-0.015
5356,-0.215,-0.015
5357,-0.215,0.005
5358,-0.215,-0.005
5359,-0.225,-0.015
5360,-0.215,-0.015
5361,-0.195,-0.005
5362,-0.195,-0.015
5363,-0.195,-0.025
5364,-0.175,-0.015
5365,-0.145,-0.005
5366,-0.135,0.005
5367,-0.125,-0.015
5368,-0.115,-0.005
5369,-0.065,0.005
5370,-0.045,0.005
5371,-0.005,0.005
5372,0.035,0.025
5373,0.085,0.035
5374,0.145,0.035
5375,0.205,0.035
5376,0.245,0.035
5377,0.325,0.045
5378,0.375,0.045
5379,0.415,0.045
5380,0.465,0.045
5381,0.505,0.055
5382,0.505,0.065
5383,0.425,0.045
5384,0.335,0.035
5385,0.225,0.045
5386,0.095,0.005
5387,-0.045,-0.035
5388,-0.115,-0.045
5389,-0.165,-0.045
5390,-0.205,-0.055
5391,-0.235,-0.075
5392,-0.235,-0.075
5393,-0.225,-0.055
5394,-0.235,-0.065
5395,-0.245,-0.075
5396,-0.235,-0.065
5397,-0.235,-0.065
5398,-0.225,-0.055
5399,-0.235,-0.065
5400,-0.225,-0.055
5401,-0.205,-0.035
5402,-0.225,-0.045
5403,-0.225,-0.055
5404,-0.205,-0.045
5405,-0.215,-0.045
5406,-0.205,-0.035
5407,-0.215,-0.045
5408,-0.205,-0.045
5409,-0.195,-0.045
5410,-0.205,-0.055
5411,-0.225,-0.065
5412,-0.215,-0.065
5413,-0.215,-0.065
5414,-0.215,-0.065
5415,-0.235,-0.085
5416,-0.225,-0.085
5417,-0.215,-0.065
5418,-0.235,-0.085
5419,-0.245,-0.095
5420,-0.235,-0.095
5421,-0.225,-0.095
5422,-0.225,-0.075
5423,-0.235,-0.095
5424,-0.225,-0.095
5425,-0.215,-0.085
5426,-0.215,-0.085
5427,-0.235,-0.105
5428,-0.225,-0.095
5429,-0.215,-0.085
5430,-0.215,-0.085
5431,-0.225,-0.095
5432,-0.225,-0.095
5433,-0.205,-0.085
5434,-0.205,-0.085
5435,-0.215,-0.095
5436,-0.215,-0.095
5437,-0.195,-0.095
5438,-0.195,-0.085
5439,-0.195,-0.085
5440,-0.205,-0.095
5441,-0.185,-0.075
5442,-0.185,-0.085
5443,-0.195,-0.095
5444,-0.175,-0.085
5445,-0.185,-0.075
5446,-0.175,-0.075
5447,-0.185,-0.105
5448,-0.195,-0.105
5449,-0.135,-0.055
5450,-0.085,-0.045
5451,-0.095,-0.055
5452,-0.025,-0.045
5453,-0.025,-0.095
5454,-0.095,-0.095
5455,-0.135,-0.105
5456,-0.135,-0.105
5457,-0.165,-0.085
5458,-0.185,-0.085
5459,-0.185,-0.105
5460,-0.165,-0.085
5461,-0.155,-0.075
5462,-0.165,-0.085
5463,-0.165,-0.095
5464,-0.175,-0.095
5465,-0.165,-0.085
5466,-0.155,-0.085
5467,-0.155,-0.095
5468,-0.145,-0.085
5469,-0.135,-0.025
5470,-0.375,0.155
5471,-0.595,0.175
5472,-0.175,-0.315
5473,1.385,-1.265
5474,2.325,-0.715
5475,2.675,-0.545
5476,1.515,-0.475
5477,0.165,-0.075
5478,-0.045,0.055
5479,-0.065,0.025
5480,-0.125,0.025
5481,-0.155,0.025
5482,-0.185,0.015
5483,-0.205,0.005
5484,-0.205,0.015
5485,-0.205,0.015
5486,-0.195,0.025
5487,-0.215,0.005
5488,-0.185,0.015
5489,-0.175,0.025
5490,-0.185,0.015
5491,-0.185,0.005
5492,-0.175,0.005
5493,-0.165,0.015
5494,-0.155,0.015
5495,-0.145,0.005
5496,-0.125,0.005
5497,-0.095,0.035
5498,-0.085,0.025
5499,-0.075,0.015
5500,-0.045,0.025
5501,-0.015,0.035
5502,0.025,0.045
5503,0.045,0.045
5504,0.105,0.045
5505,0.175,0.075
5506,0.225,0.065
5507,0.275,0.055
5508,0.335,0.055
5509,0.405,0.075
5510,0.455,0.075
5511,0.495,0.065
5512,0.515,0.075
5513,0.495,0.085
5514,0.405,0.085
5515,0.285,0.045
5516,0.165,0.025
5517,0.025,-0.005
5518,-0.075,-0.015
5519,-0.145,-0.045
5520,-0.195,-0.045
5521,-0.205,-0.045
5522,-0.225,-0.045
5523,-0.235,-0.065
5524,-0.225,-0.055
5525,-0.225,-0.045
5526,-0.225,-0.055
5527,-0.235,-0.055
5528,-0.235,-0.045
5529,-0.215,-0.035
5530,-0.225,-0.035
5531,-0.225,-0.045
5532,-0.205,-0.045
5533,-0.205,-0.035
5534,-0.205,-0.025
5535,-0.225,-0.045
5536,-0.215,-0.045
5537,-0.205,-0.025
5538,-0.225,-0.035
5539,-0.225,-0.045
5540,-0.215,-0.045
5541,-0.215,-0.055
5542,-0.215,-0.055
5543,-0.235,-0.075
5544,-0.225,-0.075
5545,-0.215,-0.065
5546,-0.225,-0.075
5547,-0.245,-0.085
5548,-0.235,-0.085
5549,-0.245,-0.085
5550,-0.235,-0.075
5551,-0.245,-0.085
5552,-0.235,-0.085
5553,-0.215,-0.075
5554,-0.245,-0.085
5555,-0.245,-0.095
5556,-0.245,-0.105
5557,-0.235,-0.085
5558,-0.235,-0.085
5559,-0.235,-0.095
5560,-0.225,-0.085
5561,-0.205,-0.085
5562,-0.215,-0.085
5563,-0.225,-0.105
5564,-0.215,-0.095
5565,-0.205,-0.085
5566,-0.205,-0.085
5567,-0.215,-0.105
5568,-0.215,-0.095
5569,-0.205,-0.085
5570,-0.195,-0.085
5571,-0.215,-0.095
5572,-0.195,-0.095
5573,-0.175,-0.075
5574,-0.145,-0.045
5575,-0.105,-0.055
5576,-0.135,-0.055
5577,-0.025,-0.025
5578,-0.025,-0.095
5579,-0.115,-0.105
5580,-0.135,-0.095
5581,-0.155,-0.105
5582,-0.185,-0.085
5583,-0.195,-0.105
5584,-0.205,-0.105
5585,-0.185,-0.095
5586,-0.185,-0.095
5587,-0.195,-0.105
5588,-0.185,-0.095
5589,-0.185,-0.095
5590,-0.175,-0.095
5591,-0.175,-0.115
5592,-0.175,-0.105
5593,-0.155,-0.095
5594,-0.155,-0.095
5595,-0.135,-0.085
5596,-0.305,0.085
5597,-0.575,0.125
5598,-0.325,-0.115
5599,1.145,-1.065
5600,2.245,-0.685
5601,2.725,-0.475
5602,1.695,-0.525
5603,0.165,-0.165
5604,-0.055,0.005
5605,-0.035,0.005
5606,-0.095,-0.015
5607,-0.155,-0.025
5608,-0.175,-0.025
5609,-0.175,-0.005
5610,-0.195,-0.005
5611,-0.195,-0.025
5612,-0.185,-0.015
5613,-0.185,-0.015
5614,-0.185,-0.005
5615,-0.185,-0.025
5616,-0.175,-0.025
5617,-0.145,-0.005
5618,-0.155,-0.015
5619,-0.145,-0.035
5620,-0.135,-0.015
5621,-0.105,-0.015
5622,-0.105,-0.015
5623,-0.095,-0.015
5624,-0.065,-0.015
5625,-0.035,-0.015
5626,-0.015,-0.015
5627,0.015,-0.025
5628,0.065,-0.015
5629,0.105,-0.005
5630,0.165,-0.005
5631,0.225,-0.025
5632,0.295,-0.015
5633,0.355,-0.005
5634,0.405,0.005
5635,0.445,-0.005
5636,0.505,0.005
5637,0.545,0.015
5638,0.555,0.025
5639,0.505,0.005
5640,0.395,0.005
5641,0.295,0.005
5642,0.155,-0.005
5643,0.025,-0.035
5644,-0.055,-0.035
5645,-0.115,-0.045
5646,-0.165,-0.055
5647,-0.175,-0.065
5648,-0.205,-0.075
5649,-0.205,-0.055
5650,-0.205,-0.065
5651,-0.215,-0.085
5652,-0.205,-0.075
5653,-0.195,-0.055
5654,-0.185,-0.055
5655,-0.195,-0.065
5656,-0.195,-0.055
5657,-0.175,-0.045
5658,-0.175,-0.065
5659,-0.175,-0.065
5660,-0.165,-0.055
5661,-0.175,-0.055
5662,-0.175,-0.055
5663,-0.185,-0.065
5664,-0.165,-0.065
5665,-0.145,-0.045
5666,-0.175,-0.065
5667,-0.175,-0.085
5668,-0.175,-0.075
5669,-0.185,-0.085
5670,-0.185,-0.085
5671,-0.195,-0.105
5672,-0.195,-0.095
5673,-0.175,-0.075
5674,-0.185,-0.085
5675,-0.205,-0.105
5676,-0.185,-0.095
5677,-0.185,-0.095
5678,-0.195,-0.105
5679,-0.195,-0.115
5680,-0.195,-0.105
5681,-0.185,-0.095
5682,-0.185,-0.105
5683,-0.195,-0.115
5684,-0.185,-0.115
5685,-0.185,-0.105
5686,-0.185,-0.105
5687,-0.175,-0.115
5688,-0.175,-0.115
5689,-0.155,-0.095
5690,-0.165,-0.105
5691,-0.175,-0.115
5692,-0.165,-0.105
5693,-0.095,-0.055
5694,-0.095,-0.075
5695,-0.055,-0.065
5696,0.025,-0.085
5697,-0.055,-0.125
5698,-0.095,-0.105
5699,-0.125,-0.125
5700,-0.135,-0.125
5701,-0.155,-0.095
5702,-0.165,-0.105
5703,-0.165,-0.125
5704,-0.175,-0.115
5705,-0.155,-0.115
5706,-0.155,-0.105
5707,-0.165,-0.115
5708,-0.155,-0.105
5709,-0.155,-0.105
5710,-0.145,-0.105
5711,-0.135,-0.115
5712,-0.115,-0.105
5713,-0.145,0.025
5714,-0.535,0.095
5715,-0.485,0.035
5716,0.885,-0.915
5717,2.105,-0.865
5718,2.725,-0.495
5719,2.255,-0.555
5720,0.495,-0.245
5721,-0.075,-0.025
5722,-0.015,0.025
5723,-0.065,-0.015
5724,-0.115,-0.015
5725,-0.145,-0.015
5726,-0.165,-0.015
5727,-0.175,-0.015
5728,-0.175,-0.015
5729,-0.155,0.005
5730,-0.155,-0.015
5731,-0.165,-0.015
5732,-0.155,-0.015
5733,-0.145,-0.015
5734,-0.145,-0.015
5735,-0.155,-0.025
5736,-0.145,-0.015
5737,-0.125,0.005
5738,-0.115,-0.005
5739,-0.105,-0.025
5740,-0.095,-0.015
5741,-0.075,-0.005
5742,-0.055,-0.005
5743,-0.035,-0.005
5744,-0.005,-0.005
5745,0.045,0.015
5746,0.075,0.005
5747,0.115,-0.005
5748,0.185,0.015
5749,0.245,0.025
5750,0.305,0.015
5751,0.355,0.005
5752,0.405,0.025
5753,0.475,0.035
5754,0.505,0.025
5755,0.535,0.025
5756,0.555,0.045
5757,0.515,0.045
5758,0.415,0.055
5759,0.295,0.025
5760,0.165,0.005
5761,0.055,0.005
5762,-0.055,-0.025
5763,-0.125,-0.055
5764,-0.155,-0.055
5765,-0.175,-0.065
5766,-0.185,-0.055
5767,-0.195,-0.065
5768,-0.195,-0.065
5769,-0.165,-0.055
5770,-0.185,-0.055
5771,-0.195,-0.055
5772,-0.185,-0.045
5773,-0.175,-0.045
5774,-0.175,-0.035
5775,-0.185,-0.045
5776,-0.165,-0.045
5777,-0.145,-0.025
5778,-0.155,-0.045
5779,-0.175,-0.045
5780,-0.165,-0.055
5781,-0.165,-0.055
5782,-0.155,-0.045
5783,-0.165,-0.065
5784,-0.155,-0.055
5785,-0.145,-0.055
5786,-0.175,-0.065
5787,-0.175,-0.075
5788,-0.175,-0.075
5789,-0.175,-0.085
5790,-0.175,-0.075
5791,-0.185,-0.085
5792,-0.175,-0.075
5793,-0.165,-0.075
5794,-0.185,-0.075
5795,-0.195,-0.095
5796,-0.175,-0.095
5797,-0.175,-0.095
5798,-0.175,-0.085
5799,-0.185,-0.095
5800,-0.175,-0.095
5801,-0.155,-0.075
5802,-0.175,-0.085
5803,-0.185,-0.095
5804,-0.175,-0.095
5805,-0.175,-0.095
5806,-0.165,-0.085
5807,-0.175,-0.095
5808,-0.165,-0.095
5809,-0.145,-0.075
5810,-0.155,-0.085
5811,-0.155,-0.095
5812,-0.145,-0.085
5813,-0.145,-0.075
5814,-0.165,-0.105
5815,-0.155,-0.085
5816,-0.075,-0.055
5817,-0.035,-0.025
5818,-0.015,-0.065
5819,-0.035,-0.095
5820,-0.065,-0.085
5821,-0.105,-0.095
5822,-0.115,-0.105
5823,-0.145,-0.095
5824,-0.165,-0.085
5825,-0.135,-0.095
5826,-0.125,-0.085
5827,-0.135,-0.095
5828,-0.125,-0.085
5829,-0.125,-0.075
5830,-0.125,-0.075
5831,-0.135,-0.095
5832,-0.135,-0.085
5833,-0.105,-0.075
5834,-0.105,-0.075
5835,-0.085,-0.035
5836,-0.325,0.145
5837,-0.565,0.185
5838,-0.075,-0.445
5839,1.565,-1.325
5840,2.475,-0.595
5841,2.765,-0.535
5842,1.465,-0.405
5843,0.085,-0.045
5844,-0.015,0.055
5845,-0.005,0.055
5846,-0.075,0.025
5847,-0.125,0.015
5848,-0.145,0.015
5849,-0.145,0.025
5850,-0.155,0.025
5851,-0.165,0.015
5852,-0.155,0.005
5853,-0.165,0.015
5854,-0.165,0.025
5855,-0.165,0.015
5856,-0.145,0.025
5857,-0.115,0.035
5858,-0.135,0.015
5859,-0.135,0.015
5860,-0.115,0.025
5861,-0.085,0.035
5862,-0.085,0.035
5863,-0.085,0.025
5864,-0.055,0.025
5865,-0.015,0.055
5866,-0.005,0.035
5867,0.015,0.025
5868,0.055,0.035
5869,0.105,0.055
5870,0.145,0.055
5871,0.195,0.055
5872,0.275,0.045
5873,0.355,0.075
5874,0.395,0.075
5875,0.445,0.065
5876,0.495,0.065
5877,0.535,0.075
5878,0.565,0.085
5879,0.525,0.075
5880,0.455,0.085
5881,0.355,0.065
5882,0.195,0.035
5883,0.065,0.005
5884,-0.025,-0.005
5885,-0.095,-0.025
5886,-0.145,-0.035
5887,-0.175,-0.045
5888,-0.175,-0.045
5889,-0.175,-0.035
5890,-0.185,-0.045
5891,-0.195,-0.055
5892,-0.185,-0.045
5893,-0.185,-0.045
5894,-0.185,-0.045
5895,-0.185,-0.045
5896,-0.185,-0.035
5897,-0.165,-0.025
5898,-0.165,-0.035
5899,-0.175,-0.045
5900,-0.165,-0.025
5901,-0.165,-0.025
5902,-0.165,-0.025
5903,-0.165,-0.035
5904,-0.175,-0.035
5905,-0.165,-0.025
5906,-0.165,-0.045
5907,-0.175,-0.055
5908,-0.165,-0.055
5909,-0.175,-0.055
5910,-0.175,-0.065
5911,-0.185,-0.085
5912,-0.185,-0.075
5913,-0.185,-0.055
5914,-0.185,-0.075
5915,-0.185,-0.085
5916,-0.175,-0.075
5917,-0.175,-0.075
5918,-0.175,-0.075
5919,-0.175,-0.085
5920,-0.175,-0.085
5921,-0.175,-0.075
5922,-0.185,-0.085
5923,-0.185,-0.085
5924,-0.175,-0.085
5925,-0.175,-0.095
5926,-0.165,-0.085
5927,-0.175,-0.095
5928,-0.165,-0.085
5929,-0.155,-0.075
5930,-0.155,-0.085
5931,-0.155,-0.085
5932,-0.145,-0.085
5933,-0.155,-0.075
5934,-0.145,-0.075
5935,-0.145,-0.085
5936,-0.145,-0.075
5937,-0.125,-0.075
5938,-0.135,-0.075
5939,-0.135,-0.085
5940,-0.135,-0.085
5941,-0.125,-0.085
5942,-0.105,-0.055
5943,-0.055,-0.035
5944,-0.065,-0.045
5945,-0.005,-0.015
5946,0.085,-0.055
5947,-0.005,-0.105
5948,-0.065,-0.085
5949,-0.075,-0.105
5950,-0.085,-0.095
5951,-0.135,-0.085
5952,-0.125,-0.095
5953,-0.115,-0.075
5954,-0.125,-0.075
5955,-0.125,-0.085
5956,-0.115,-0.095
5957,-0.115,-0.085
5958,-0.115,-0.075
5959,-0.135,-0.085
5960,-0.115,-0.085
5961,-0.095,-0.075
5962,-0.105,-0.075
5963,-0.075,-0.075
5964,-0.145,0.115
5965,-0.505,0.155
5966,-0.445,0.045
5967,0.615,-0.965
5968,1.945,-1.135
5969,2.625,-0.495
5970,2.545,-0.585
5971,0.785,-0.215
5972,-0.025,0.025
5973,0.005,0.065
5974,-0.055,0.045
5975,-0.105,0.015
5976,-0.135,0.015
5977,-0.125,0.045
5978,-0.145,0.035
5979,-0.155,0.025
5980,-0.145,0.025
5981,-0.135,0.035
5982,-0.135,0.035
5983,-0.145,0.015
5984,-0.125,0.025
5985,-0.105,0.035
5986,-0.115,0.015
5987,-0.115,0.015
5988,-0.095,0.005
5989,-0.085,0.025
5990,-0.075,0.025
5991,-0.055,0.015
5992,-0.035,0.025
5993,0.005,0.035
5994,0.015,0.035
5995,0.035,0.035
5996,0.085,0.045
5997,0.125,0.055
5998,0.175,0.065
5999,0.225,0.055
6000,0.285,0.075
6001,0.365,0.075
6002,0.415,0.075
6003,0.465,0.065
6004,0.515,0.085
6005,0.565,0.095
6006,0.585,0.095
6007,0.555,0.085
6008,0.475,0.085
6009,0.385,0.075
6010,0.245,0.045
6011,0.115,0.025
6012,0.015,-0.005
6013,-0.065,-0.025
6014,-0.115,-0.035
6015,-0.145,-0.045
6016,-0.145,-0.045
6017,-0.155,-0.035
6018,-0.175,-0.055
6019,-0.175,-0.055
6020,-0.165,-0.045
6021,-0.165,-0.045
6022,-0.155,-0.035
6023,-0.155,-0.045
6024,-0.155,-0.035
6025,-0.145,-0.015
6026,-0.155,-0.025
6027,-0.155,-0.035
6028,-0.145,-0.035
6029,-0.145,-0.025
6030,-0.145,-0.025
6031,-0.155,-0.035
6032,-0.145,-0.035
6033,-0.135,-0.035
6034,-0.155,-0.045
6035,-0.155,-0.055
6036,-0.145,-0.055
6037,-0.155,-0.045
6038,-0.165,-0.065
6039,-0.175,-0.075
6040,-0.175,-0.065
6041,-0.155,-0.055
6042,-0.175,-0.075
6043,-0.185,-0.085
6044,-0.175,-0.085
6045,-0.185,-0.085
6046,-0.175,-0.085
6047,-0.185,-0.085
6048,-0.175,-0.095
6049,-0.155,-0.085
6050,-0.175,-0.085
6051,-0.185,-0.105
6052,-0.165,-0.085
6053,-0.165,-0.095
6054,-0.165,-0.085
6055,-0.165,-0.095
6056,-0.165,-0.085
6057,-0.155,-0.085
6058,-0.165,-0.085
6059,-0.165,-0.095
6060,-0.155,-0.095
6061,-0.155,-0.095
6062,-0.155,-0.095
6063,-0.155,-0.105
6064,-0.155,-0.095
6065,-0.135,-0.075
6066,-0.155,-0.095
6067,-0.155,-0.105
6068,-0.115,-0.065
6069,-0.065,-0.045
6070,-0.075,-0.065
6071,0.015,-0.045
6072,0.045,-0.105
6073,-0.055,-0.095
6074,-0.085,-0.105
6075,-0.115,-0.125
6076,-0.135,-0.095
6077,-0.135,-0.095
6078,-0.135,-0.105
6079,-0.145,-0.115
6080,-0.135,-0.115
6081,-0.125,-0.095
6082,-0.135,-0.105
6083,-0.145,-0.105
6084,-0.145,-0.105
6085,-0.135,-0.115
6086,-0.145,-0.105
6087,-0.135,-0.105
6088,-0.125,-0.105
6089,-0.065,-0.075
6090,-0.255,0.095
6091,-0.575,0.115
6092,-0.335,-0.165
6093,1.285,-1.175
6094,2.345,-0.665
6095,2.775,-0.525
6096,1.815,-0.545
6097,0.275,-0.125
6098,-0.035,0.015
6099,-0.025,0.005
6100,-0.075,-0.015
6101,-0.115,-0.015
6102,-0.145,-0.015
6103,-0.165,-0.015
6104,-0.165,-0.015
6105,-0.145,-0.005
6106,-0.155,-0.015
6107,-0.165,-0.025
6108,-0.165,-0.025
6109,-0.145,-0.015
6110,-0.135,-0.015
6111,-0.135,-0.015
6112,-0.135,-0.025
6113,-0.115,-0.015
6114,-0.105,-0.025
6115,-0.105,-0.035
6116,-0.085,-0.025
6117,-0.065,-0.025
6118,-0.045,-0.015
6119,-0.015,-0.015
6120,0.005,-0.015
6121,0.045,-0.005
6122,0.075,-0.015
6123,0.115,-0.005
6124,0.175,-0.005
6125,0.235,0.015
6126,0.295,0.015
6127,0.345,0.005
6128,0.395,0.005
6129,0.455,0.015
6130,0.505,0.025
6131,0.535,0.015
6132,0.555,0.025
6133,0.535,0.035
6134,0.435,0.035
6135,0.315,0.005
6136,0.175,-0.005
6137,0.065,-0.015
6138,-0.035,-0.045
6139,-0.115,-0.065
6140,-0.155,-0.065
6141,-0.175,-0.075
6142,-0.185,-0.075
6143,-0.205,-0.085
6144,-0.215,-0.085
6145,-0.185,-0.065
6146,-0.195,-0.075
6147,-0.205,-0.075
6148,-0.195,-0.065
6149,-0.185,-0.065
6150,-0.175,-0.055
6151,-0.185,-0.065
6152,-0.175,-0.065
6153,-0.155,-0.045
6154,-0.165,-0.055
6155,-0.175,-0.075
6156,-0.165,-0.065
6157,-0.165,-0.065
6158,-0.175,-0.065
6159,-0.185,-0.075
6160,-0.185,-0.085
6161,-0.165,-0.065
6162,-0.185,-0.085
6163,-0.195,-0.095
6164,-0.195,-0.105
6165,-0.195,-0.095
6166,-0.195,-0.105
6167,-0.215,-0.105
6168,-0.205,-0.115
6169,-0.185,-0.105
6170,-0.195,-0.105
6171,-0.205,-0.115
6172,-0.205,-0.115
6173,-0.205,-0.115
6174,-0.195,-0.115
6175,-0.195,-0.115
6176,-0.195,-0.125
6177,-0.185,-0.115
6178,-0.185,-0.115
6179,-0.205,-0.125
6180,-0.185,-0.125
6181,-0.195,-0.135
6182,-0.185,-0.105
6183,-0.185,-0.125
6184,-0.185,-0.125
6185,-0.155,-0.115
6186,-0.185,-0.105
6187,-0.195,-0.125
6188,-0.175,-0.105
6189,-0.125,-0.065
6190,-0.095,-0.065
6191,-0.085,-0.065
6192,-0.005,-0.055
6193,-0.015,-0.125
6194,-0.085,-0.115
6195,-0.105,-0.115
6196,-0.135,-0.145
6197,-0.175,-0.115
6198,-0.175,-0.115
6199,-0.195,-0.135
6200,-0.175,-0.125
6201,-0.155,-0.115
6202,-0.175,-0.135
6203,-0.185,-0.135
6204,-0.175,-0.135
6205,-0.165,-0.125
6206,-0.165,-0.125
6207,-0.165,-0.135
6208,-0.135,-0.125
6209,-0.165,-0.005
6210,-0.505,0.045
6211,-0.565,0.075
6212,0.375,-0.605
6213,1.765,-1.035
6214,2.485,-0.505
6215,2.565,-0.565
6216,0.945,-0.395
6217,-0.055,-0.065
6218,-0.045,-0.005
6219,-0.105,-0.045
6220,-0.145,-0.045
6221,-0.165,-0.035
6222,-0.175,-0.035
6223,-0.195,-0.045
6224,-0.185,-0.045
6225,-0.185,-0.045
6226,-0.185,-0.045
6227,-0.185,-0.055
6228,-0.195,-0.045
6229,-0.185,-0.045
6230,-0.175,-0.045
6231,-0.165,-0.045
6232,-0.155,-0.045
6233,-0.155,-0.035
6234,-0.135,-0.045
6235,-0.125,-0.055
6236,-0.105,-0.045
6237,-0.085,-0.035
6238,-0.065,-0.045
6239,-0.045,-0.045
6240,-0.025,-0.035
6241,0.025,-0.025
6242,0.045,-0.035
6243,0.075,-0.045
6244,0.155,-0.045
6245,0.215,-0.035
6246,0.275,-0.025
6247,0.315,-0.035
6248,0.375,-0.035
6249,0.445,-0.015
6250,0.465,-0.005
6251,0.495,-0.025
6252,0.505,-0.005
6253,0.435,0.015
6254,0.325,0.015
6255,0.195,-0.015
6256,0.075,-0.035
6257,-0.025,-0.035
6258,-0.115,-0.055
6259,-0.185,-0.085
6260,-0.205,-0.085
6261,-0.215,-0.075
6262,-0.225,-0.085
6263,-0.235,-0.095
6264,-0.235,-0.085
6265,-0.225,-0.065
6266,-0.235,-0.075
6267,-0.245,-0.085
6268,-0.225,-0.085
6269,-0.215,-0.075
6270,-0.215,-0.065
6271,-0.215,-0.085
6272,-0.205,-0.075
6273,-0.195,-0.065
6274,-0.205,-0.065
6275,-0.215,-0.075
6276,-0.205,-0.075
6277,-0.215,-0.075
6278,-0.215,-0.075
6279,-0.215,-0.095
6280,-0.215,-0.085
6281,-0.205,-0.075
6282,-0.225,-0.085
6283,-0.235,-0.105
6284,-0.215,-0.095
6285,-0.225,-0.105
6286,-0.225,-0.095
6287,-0.245,-0.115
6288,-0.235,-0.105
6289,-0.215,-0.105
6290,-0.235,-0.115
6291,-0.235,-0.125
6292,-0.225,-0.125
6293,-0.225,-0.115
6294,-0.225,-0.115
6295,-0.235,-0.135
6296,-0.235,-0.135
6297,-0.205,-0.105
6298,-0.225,-0.125
6299,-0.235,-0.135
6300,-0.215,-0.125
6301,-0.215,-0.125
6302,-0.215,-0.115
6303,-0.225,-0.125
6304,-0.215,-0.115
6305,-0.195,-0.105
6306,-0.205,-0.125
6307,-0.205,-0.125
6308,-0.195,-0.115
6309,-0.215,-0.135
6310,-0.155,-0.085
6311,-0.125,-0.095
6312,-0.095,-0.075
6313,-0.055,-0.105
6314,-0.085,-0.135
6315,-0.135,-0.135
6316,-0.155,-0.145
6317,-0.165,-0.135
6318,-0.195,-0.125
6319,-0.205,-0.135
6320,-0.205,-0.135
6321,-0.175,-0.125
6322,-0.185,-0.125
6323,-0.185,-0.135
6324,-0.185,-0.125
6325,-0.185,-0.115
6326,-0.175,-0.115
6327,-0.175,-0.135
6328,-0.155,-0.125
6329,-0.135,-0.085
6330,-0.355,0.105
6331,-0.625,0.125
6332,-0.105,-0.425
6333,1.395,-1.275
6334,2.325,-0.715
6335,2.725,-0.555
6336,1.565,-0.505
6337,0.145,-0.115
6338,-0.085,0.005
6339,-0.085,-0.015
6340,-0.135,-0.025
6341,-0.165,-0.015
6342,-0.195,-0.025
6343,-0.195,-0.035
6344,-0.205,-0.025
6345,-0.205,-0.025
6346,-0.205,-0.025
6347,-0.205,-0.025
6348,-0.205,-0.025
6349,-0.205,-0.025
6350,-0.185,-0.015
6351,-0.185,-0.035
6352,-0.185,-0.025
6353,-0.165,-0.015
6354,-0.155,-0.025
6355,-0.155,-0.025
6356,-0.135,-0.015
6357,-0.115,-0.015
6358,-0.095,-0.005
6359,-0.075,-0.005
6360,-0.055,0.005
6361,-0.005,0.015
6362,0.005,0.005
6363,0.035,0.005
6364,0.095,0.015
6365,0.155,0.015
6366,0.215,0.025
6367,0.265,0.015
6368,0.325,0.025
6369,0.405,0.045
6370,0.435,0.035
6371,0.485,0.035
6372,0.515,0.045
6373,0.505,0.045
6374,0.435,0.055
6375,0.325,0.025
6376,0.215,0.015
6377,0.085,0.005
6378,-0.035,-0.025
6379,-0.135,-0.055
6380,-0.175,-0.055
6381,-0.205,-0.055
6382,-0.225,-0.065
6383,-0.235,-0.075
6384,-0.235,-0.065
6385,-0.215,-0.055
6386,-0.235,-0.065
6387,-0.245,-0.065
6388,-0.225,-0.065
6389,-0.215,-0.055
6390,-0.215,-0.045
6391,-0.225,-0.065
6392,-0.225,-0.055
6393,-0.195,-0.045
6394,-0.215,-0.045
6395,-0.215,-0.065
6396,-0.205,-0.045
6397,-0.205,-0.055
6398,-0.195,-0.055
6399,-0.205,-0.065
6400,-0.205,-0.065
6401,-0.195,-0.055
6402,-0.215,-0.075
6403,-0.215,-0.085
6404,-0.205,-0.085
6405,-0.215,-0.075
6406,-0.205,-0.075
6407,-0.225,-0.085
6408,-0.225,-0.095
6409,-0.215,-0.085
6410,-0.225,-0.085
6411,-0.225,-0.095
6412,-0.225,-0.095
6413,-0.225,-0.095
6414,-0.225,-0.095
6415,-0.225,-0.105
6416,-0.215,-0.095
6417,-0.205,-0.095
6418,-0.215,-0.095
6419,-0.225,-0.105
6420,-0.215,-0.095
6421,-0.215,-0.095
6422,-0.205,-0.085
6423,-0.215,-0.105
6424,-0.205,-0.095
6425,-0.195,-0.085
6426,-0.195,-0.105
6427,-0.205,-0.105
6428,-0.195,-0.095
6429,-0.185,-0.095
6430,-0.185,-0.095
6431,-0.185,-0.095
6432,-0.195,-0.085
6433,-0.185,-0.085
6434,-0.175,-0.075
6435,-0.115,-0.055
6436,-0.105,-0.065
6437,-0.095,-0.045
6438,0.015,-0.035
6439,-0.025,-0.125
6440,-0.125,-0.115
6441,-0.115,-0.105
6442,-0.145,-0.115
6443,-0.175,-0.105
6444,-0.175,-0.095
6445,-0.185,-0.115
6446,-0.185,-0.105
6447,-0.185,-0.105
6448,-0.175,-0.095
6449,-0.165,-0.085
6450,-0.185,-0.095
6451,-0.185,-0.105
6452,-0.185,-0.105
6453,-0.175,-0.115
6454,-0.165,-0.095
6455,-0.145,-0.105
6456,-0.165,0.035
6457,-0.545,0.125
6458,-0.525,0.025
6459,0.725,-1.035
6460,2.035,-1.055
6461,2.635,-0.525
6462,2.275,-0.595
6463,0.495,-0.195
6464,-0.105,0.005
6465,-0.055,0.045
6466,-0.115,0.005
6467,-0.165,-0.005
6468,-0.195,-0.005
6469,-0.205,0.005
6470,-0.215,0.015
6471,-0.225,-0.015
6472,-0.215,-0.005
6473,-0.195,0.015
6474,-0.205,0.005
6475,-0.215,-0.005
6476,-0.195,-0.005
6477,-0.195,-0.015
6478,-0.195,-0.005
6479,-0.195,-0.005
6480,-0.175,-0.005
6481,-0.135,0.015
6482,-0.145,0.005
6483,-0.145,-0.005
6484,-0.115,0.005
6485,-0.085,0.005
6486,-0.055,0.025
6487,-0.035,0.005
6488,0.005,0.025
6489,0.055,0.025
6490,0.105,0.045
