'sample interval','ECG0','ECG1'
'0.0078125 sec','mV','mV'
0,-0.165,-0.235
1,-0.175,-0.225
2,-0.155,-0.215
3,-0.105,-0.205
4,-0.315,-0.325
5,-0.555,-0.065
6,-0.375,0.265
7,0.455,0.045
8,1.675,-0.055
9,2.735,0.575
10,3.125,0.155
11,0.815,-1.145
12,-0.645,-0.965
13,-0.845,-0.665
14,-0.675,-0.435
15,-0.485,-0.165
16,-0.175,0.075
17,-0.125,0.075
18,-0.125,0.105
19,-0.085,0.125
20,-0.065,0.135
21,-0.055,0.165
22,-0.055,0.205
23,-0.015,0.215
24,0.005,0.235
25,0.035,0.265
26,0.065,0.325
27,0.105,0.345
28,0.115,0.385
29,0.135,0.455
30,0.195,0.515
31,0.235,0.585
32,0.275,0.635
33,0.345,0.735
34,0.455,0.835
35,0.505,0.915
36,0.585,0.955
37,0.645,1.025
38,0.735,1.075
39,0.795,1.055
40,0.815,0.995
41,0.845,0.885
42,0.815,0.755
43,0.725,0.595
44,0.585,0.385
45,0.415,0.215
46,0.245,0.075
47,0.105,-0.025
48,0.015,-0.105
49,-0.045,-0.165
50,-0.085,-0.195
51,-0.115,-0.205
52,-0.145,-0.245
53,-0.165,-0.235
54,-0.155,-0.225
55,-0.175,-0.235
56,-0.185,-0.225
57,-0.155,-0.225
58,-0.155,-0.215
59,-0.165,-0.215
60,-0.165,-0.225
61,-0.175,-0.225
62,-0.155,-0.215
63,-0.175,-0.225
64,-0.175,-0.225
65,-0.185,-0.235
66,-0.165,-0.205
67,-0.145,-0.205
68,-0.175,-0.235
69,-0.175,-0.225
70,-0.165,-0.225
71,-0.185,-0.235
72,-0.195,-0.255
73,-0.195,-0.245
74,-0.185,-0.225
75,-0.195,-0.265
76,-0.225,-0.265
77,-0.215,-0.265
78,-0.215,-0.275
79,-0.225,-0.255
80,-0.195,-0.245
81,-0.215,-0.275
82,-0.225,-0.285
83,-0.215,-0.265
84,-0.205,-0.255
85,-0.215,-0.275
86,-0.235,-0.275
87,-0.195,-0.255
88,-0.215,-0.285
89,-0.225,-0.245
90,-0.185,-0.245
91,-0.215,-0.255
92,-0.245,-0.275
93,-0.215,-0.265
94,-0.195,-0.255
95,-0.215,-0.245
96,-0.215,-0.265
97,-0.235,-0.255
98,-0.165,-0.245
99,-0.215,-0.255
100,-0.205,-0.255
101,-0.215,-0.255
102,-0.225,-0.245
103,-0.215,-0.245
104,-0.185,-0.245
105,-0.215,-0.235
106,-0.175,-0.225
107,-0.165,-0.235
108,-0.195,-0.255
109,-0.185,-0.225
110,-0.185,-0.195
111,-0.155,-0.185
112,-0.125,-0.145
113,-0.085,-0.135
114,-0.035,-0.085
115,-0.045,-0.155
116,-0.115,-0.215
117,-0.105,-0.215
118,-0.195,-0.265
119,-0.215,-0.255
120,-0.205,-0.265
121,-0.205,-0.255
122,-0.185,-0.235
123,-0.205,-0.235
124,-0.195,-0.235
125,-0.135,-0.225
126,-0.425,-0.305
127,-0.575,0.055
128,-0.235,0.385
129,0.695,0.185
130,1.895,0.025
131,2.765,0.485
132,3.035,-0.075
133,0.465,-1.185
134,-0.755,-0.915
135,-0.855,-0.695
136,-0.745,-0.535
137,-0.565,-0.265
138,-0.255,0.035
139,-0.185,0.055
140,-0.175,0.025
141,-0.155,0.095
142,-0.145,0.085
143,-0.085,0.115
144,-0.115,0.145
145,-0.075,0.175
146,-0.035,0.225
147,-0.035,0.225
148,-0.025,0.245
149,0.015,0.265
150,0.045,0.325
151,0.065,0.375
152,0.125,0.445
153,0.135,0.505
154,0.225,0.585
155,0.285,0.675
156,0.355,0.765
157,0.425,0.845
158,0.535,0.945
159,0.635,0.985
160,0.715,0.995
161,0.775,0.955
162,0.805,0.905
163,0.785,0.775
164,0.735,0.625
165,0.615,0.425
166,0.435,0.235
167,0.245,0.095
168,0.095,-0.045
169,-0.035,-0.145
170,-0.105,-0.185
171,-0.185,-0.265
172,-0.245,-0.265
173,-0.235,-0.305
174,-0.275,-0.305
175,-0.285,-0.305
176,-0.275,-0.315
177,-0.305,-0.305
178,-0.265,-0.275
179,-0.295,-0.295
180,-0.295,-0.305
181,-0.265,-0.275
182,-0.295,-0.295
183,-0.285,-0.285
184,-0.285,-0.295
185,-0.285,-0.275
186,-0.255,-0.275
187,-0.285,-0.285
188,-0.275,-0.285
189,-0.285,-0.275
190,-0.275,-0.305
191,-0.285,-0.275
192,-0.285,-0.335
193,-0.295,-0.315
194,-0.295,-0.295
195,-0.325,-0.325
196,-0.335,-0.325
197,-0.335,-0.345
198,-0.345,-0.335
199,-0.345,-0.325
200,-0.345,-0.355
201,-0.335,-0.335
202,-0.345,-0.345
203,-0.345,-0.335
204,-0.355,-0.335
205,-0.365,-0.355
206,-0.355,-0.335
207,-0.365,-0.345
208,-0.355,-0.335
209,-0.355,-0.335
210,-0.335,-0.325
211,-0.335,-0.325
212,-0.355,-0.335
213,-0.335,-0.335
214,-0.355,-0.335
215,-0.325,-0.305
216,-0.325,-0.325
217,-0.315,-0.315
218,-0.305,-0.305
219,-0.315,-0.305
220,-0.315,-0.265
221,-0.285,-0.305
222,-0.305,-0.325
223,-0.315,-0.295
224,-0.285,-0.265
225,-0.255,-0.245
226,-0.235,-0.215
227,-0.195,-0.185
228,-0.145,-0.185
229,-0.115,-0.165
230,-0.185,-0.245
231,-0.215,-0.275
232,-0.235,-0.295
233,-0.285,-0.335
234,-0.265,-0.315
235,-0.295,-0.325
236,-0.295,-0.315
237,-0.275,-0.315
238,-0.285,-0.315
239,-0.265,-0.295
240,-0.225,-0.295
241,-0.555,-0.395
242,-0.645,0.035
243,-0.275,0.205
244,0.695,-0.285
245,2.025,-0.185
246,2.805,0.425
247,2.685,-0.445
248,0.145,-1.275
249,-0.935,-0.945
250,-0.855,-0.605
251,-0.645,-0.345
252,-0.355,-0.065
253,-0.235,0.015
254,-0.235,0.025
255,-0.195,0.045
256,-0.175,0.045
257,-0.155,0.095
258,-0.115,0.135
259,-0.095,0.175
260,-0.085,0.165
261,-0.075,0.195
262,-0.045,0.265
263,-0.005,0.295
264,0.025,0.345
265,0.055,0.385
266,0.115,0.465
267,0.145,0.515
268,0.185,0.605
269,0.265,0.695
270,0.335,0.795
271,0.415,0.895
272,0.505,0.965
273,0.595,1.035
274,0.715,1.075
275,0.755,1.065
276,0.795,1.005
277,0.805,0.885
278,0.785,0.735
279,0.705,0.555
280,0.555,0.355
281,0.375,0.205
282,0.245,0.055
283,0.065,-0.075
284,-0.055,-0.165
285,-0.125,-0.215
286,-0.185,-0.255
287,-0.215,-0.285
288,-0.225,-0.295
289,-0.235,-0.305
290,-0.235,-0.295
291,-0.255,-0.295
292,-0.255,-0.305
293,-0.255,-0.315
294,-0.265,-0.295
295,-0.255,-0.275
296,-0.255,-0.265
297,-0.255,-0.295
298,-0.235,-0.265
299,-0.255,-0.255
300,-0.255,-0.295
301,-0.245,-0.275
302,-0.265,-0.275
303,-0.255,-0.275
304,-0.255,-0.265
305,-0.255,-0.285
306,-0.235,-0.265
307,-0.255,-0.295
308,-0.275,-0.285
309,-0.275,-0.315
310,-0.285,-0.295
311,-0.295,-0.305
312,-0.285,-0.305
313,-0.285,-0.305
314,-0.265,-0.325
315,-0.305,-0.315
316,-0.295,-0.315
317,-0.295,-0.325
318,-0.315,-0.315
319,-0.305,-0.305
320,-0.295,-0.325
321,-0.295,-0.325
322,-0.265,-0.295
323,-0.295,-0.295
324,-0.285,-0.325
325,-0.285,-0.295
326,-0.285,-0.295
327,-0.275,-0.285
328,-0.275,-0.315
329,-0.275,-0.305
330,-0.235,-0.265
331,-0.275,-0.275
332,-0.275,-0.295
333,-0.255,-0.285
334,-0.275,-0.275
335,-0.245,-0.265
336,-0.275,-0.275
337,-0.265,-0.265
338,-0.205,-0.235
339,-0.205,-0.205
340,-0.205,-0.175
341,-0.135,-0.135
342,-0.095,-0.135
343,-0.105,-0.175
344,-0.165,-0.235
345,-0.175,-0.245
346,-0.185,-0.285
347,-0.235,-0.285
348,-0.265,-0.305
349,-0.255,-0.275
350,-0.235,-0.275
351,-0.235,-0.265
352,-0.235,-0.265
353,-0.215,-0.255
354,-0.255,-0.285
355,-0.605,-0.245
356,-0.585,0.185
357,0.125,-0.005
358,1.295,-0.195
359,2.535,0.395
360,3.085,0.125
361,1.145,-1.175
362,-0.575,-1.015
363,-0.945,-0.665
364,-0.745,-0.435
365,-0.525,-0.175
366,-0.255,0.075
367,-0.215,0.075
368,-0.215,0.035
369,-0.175,0.095
370,-0.135,0.145
371,-0.135,0.145
372,-0.115,0.165
373,-0.105,0.215
374,-0.085,0.245
375,-0.045,0.305
376,-0.035,0.295
377,0.005,0.335
378,0.045,0.405
379,0.075,0.445
380,0.115,0.505
381,0.155,0.575
382,0.215,0.665
383,0.275,0.755
384,0.355,0.835
385,0.425,0.915
386,0.525,1.015
387,0.625,1.065
388,0.685,1.055
389,0.745,1.065
390,0.805,1.015
391,0.795,0.885
392,0.745,0.715
393,0.655,0.515
394,0.515,0.345
395,0.305,0.175
396,0.145,0.045
397,0.015,-0.075
398,-0.065,-0.135
399,-0.145,-0.185
400,-0.185,-0.205
401,-0.215,-0.225
402,-0.215,-0.195
403,-0.225,-0.245
404,-0.245,-0.245
405,-0.235,-0.245
406,-0.245,-0.225
407,-0.245,-0.215
408,-0.245,-0.235
409,-0.255,-0.225
410,-0.225,-0.205
411,-0.225,-0.205
412,-0.245,-0.225
413,-0.235,-0.205
414,-0.235,-0.225
415,-0.235,-0.225
416,-0.235,-0.225
417,-0.235,-0.215
418,-0.205,-0.205
419,-0.245,-0.225
420,-0.245,-0.235
421,-0.235,-0.255
422,-0.265,-0.245
423,-0.265,-0.225
424,-0.245,-0.265
425,-0.265,-0.275
426,-0.245,-0.255
427,-0.265,-0.255
428,-0.275,-0.265
429,-0.275,-0.255
430,-0.275,-0.275
431,-0.265,-0.265
432,-0.285,-0.275
433,-0.265,-0.255
434,-0.245,-0.235
435,-0.255,-0.265
436,-0.275,-0.265
437,-0.275,-0.265
438,-0.265,-0.235
439,-0.255,-0.255
440,-0.265,-0.255
441,-0.255,-0.245
442,-0.225,-0.225
443,-0.245,-0.215
444,-0.245,-0.245
445,-0.205,-0.195
446,-0.225,-0.195
447,-0.165,-0.135
448,-0.135,-0.135
449,-0.105,-0.105
450,-0.075,-0.145
451,-0.155,-0.195
452,-0.175,-0.225
453,-0.225,-0.265
454,-0.255,-0.275
455,-0.265,-0.255
456,-0.225,-0.245
457,-0.235,-0.265
458,-0.205,-0.205
459,-0.215,-0.245
460,-0.215,-0.235
461,-0.325,-0.295
462,-0.625,-0.075
463,-0.475,0.325
464,0.285,0.285
465,1.375,-0.005
466,2.545,0.375
467,3.085,0.245
468,1.605,-1.045
469,-0.415,-1.015
470,-0.875,-0.765
471,-0.835,-0.595
472,-0.665,-0.365
473,-0.435,-0.085
474,-0.225,0.075
475,-0.195,0.045
476,-0.165,0.075
477,-0.145,0.105
478,-0.105,0.145
479,-0.095,0.155
480,-0.075,0.185
481,-0.045,0.215
482,-0.015,0.265
483,-0.005,0.285
484,0.025,0.305
485,0.055,0.345
486,0.095,0.405
487,0.125,0.475
488,0.185,0.535
489,0.245,0.605
490,0.325,0.685
491,0.385,0.775
492,0.465,0.845
493,0.545,0.915
494,0.635,0.965
495,0.715,0.985
496,0.765,0.955
497,0.795,0.885
498,0.805,0.765
499,0.735,0.595
500,0.595,0.425
501,0.405,0.235
502,0.225,0.095
503,0.055,-0.015
504,-0.055,-0.095
505,-0.135,-0.175
506,-0.185,-0.195
507,-0.225,-0.205
508,-0.255,-0.245
509,-0.235,-0.235
510,-0.265,-0.235
511,-0.255,-0.225
512,-0.265,-0.255
513,-0.255,-0.225
514,-0.225,-0.215
515,-0.245,-0.215
516,-0.265,-0.235
517,-0.245,-0.205
518,-0.255,-0.205
519,-0.255,-0.185
520,-0.235,-0.225
521,-0.245,-0.225
522,-0.215,-0.195
523,-0.235,-0.215
524,-0.245,-0.235
525,-0.255,-0.245
526,-0.255,-0.235
527,-0.255,-0.235
528,-0.265,-0.245
529,-0.265,-0.275
530,-0.255,-0.255
531,-0.275,-0.265
532,-0.285,-0.275
533,-0.295,-0.285
534,-0.305,-0.285
535,-0.295,-0.275
536,-0.295,-0.285
537,-0.295,-0.285
538,-0.275,-0.255
539,-0.285,-0.285
540,-0.295,-0.285
541,-0.285,-0.265
542,-0.305,-0.285
543,-0.285,-0.275
544,-0.285,-0.285
545,-0.275,-0.275
546,-0.245,-0.245
547,-0.255,-0.275
548,-0.275,-0.285
549,-0.275,-0.245
550,-0.245,-0.225
551,-0.225,-0.195
552,-0.215,-0.185
553,-0.175,-0.155
554,-0.085,-0.135
555,-0.095,-0.145
556,-0.175,-0.245
557,-0.195,-0.245
558,-0.215,-0.285
559,-0.265,-0.305
560,-0.275,-0.305
561,-0.275,-0.305
562,-0.255,-0.285
563,-0.255,-0.275
564,-0.255,-0.275
565,-0.265,-0.275
566,-0.205,-0.255
567,-0.515,-0.345
568,-0.665,0.045
569,-0.355,0.215
570,0.605,-0.265
571,1.865,-0.245
572,2.795,0.375
573,2.955,-0.405
574,0.345,-1.225
575,-0.865,-0.905
576,-0.875,-0.585
577,-0.655,-0.325
578,-0.385,-0.015
579,-0.225,0.055
580,-0.215,0.045
581,-0.195,0.085
582,-0.165,0.115
583,-0.145,0.135
584,-0.125,0.155
585,-0.095,0.185
586,-0.045,0.235
587,-0.045,0.255
588,-0.025,0.285
589,0.005,0.325
590,0.025,0.365
591,0.065,0.445
592,0.115,0.495
593,0.175,0.585
594,0.255,0.675
595,0.295,0.755
596,0.375,0.855
597,0.465,0.955
598,0.545,1.025
599,0.635,1.065
600,0.705,1.075
601,0.765,1.065
602,0.815,0.995
603,0.815,0.835
604,0.765,0.665
605,0.655,0.475
606,0.495,0.285
607,0.295,0.105
608,0.115,-0.055
609,-0.005,-0.145
610,-0.075,-0.185
611,-0.145,-0.235
612,-0.195,-0.265
613,-0.225,-0.285
614,-0.235,-0.285
615,-0.225,-0.295
616,-0.245,-0.285
617,-0.255,-0.305
618,-0.215,-0.285
619,-0.245,-0.285
620,-0.245,-0.285
621,-0.235,-0.265
622,-0.255,-0.275
623,-0.245,-0.255
624,-0.235,-0.265
625,-0.245,-0.255
626,-0.195,-0.245
627,-0.215,-0.255
628,-0.235,-0.265
629,-0.225,-0.265
630,-0.225,-0.275
631,-0.245,-0.285
632,-0.235,-0.295
633,-0.245,-0.285
634,-0.225,-0.285
635,-0.245,-0.305
636,-0.275,-0.315
637,-0.255,-0.325
638,-0.265,-0.325
639,-0.265,-0.315
640,-0.275,-0.335
641,-0.265,-0.315
642,-0.255,-0.325
643,-0.265,-0.335
644,-0.285,-0.325
645,-0.275,-0.335
646,-0.275,-0.335
647,-0.275,-0.325
648,-0.285,-0.335
649,-0.265,-0.325
650,-0.245,-0.285
651,-0.265,-0.335
652,-0.265,-0.325
653,-0.265,-0.305
654,-0.265,-0.295
655,-0.255,-0.295
656,-0.245,-0.325
657,-0.255,-0.315
658,-0.255,-0.285
659,-0.235,-0.275
660,-0.225,-0.255
661,-0.195,-0.245
662,-0.165,-0.195
663,-0.125,-0.165
664,-0.095,-0.175
665,-0.105,-0.235
666,-0.175,-0.265
667,-0.165,-0.285
668,-0.215,-0.335
669,-0.245,-0.335
670,-0.255,-0.305
671,-0.255,-0.315
672,-0.255,-0.325
673,-0.255,-0.305
674,-0.245,-0.295
675,-0.175,-0.295
676,-0.305,-0.385
677,-0.615,-0.185
678,-0.505,0.185
679,0.195,-0.115
680,1.305,-0.295
681,2.505,0.205
682,3.075,0.035
683,1.485,-1.235
684,-0.455,-1.095
685,-0.935,-0.745
686,-0.725,-0.445
687,-0.535,-0.175
688,-0.245,0.035
689,-0.185,0.005
690,-0.175,0.045
691,-0.145,0.065
692,-0.135,0.095
693,-0.105,0.105
694,-0.105,0.145
695,-0.085,0.165
696,-0.045,0.195
697,-0.025,0.215
698,0.015,0.295
699,0.055,0.335
700,0.065,0.375
701,0.145,0.445
702,0.155,0.515
703,0.215,0.595
704,0.275,0.685
705,0.335,0.785
706,0.425,0.895
707,0.505,0.965
708,0.585,1.025
709,0.675,1.065
710,0.725,1.055
711,0.765,0.975
712,0.775,0.875
713,0.745,0.715
714,0.675,0.545
715,0.525,0.335
716,0.335,0.155
717,0.165,0.005
718,0.025,-0.095
719,-0.065,-0.175
720,-0.155,-0.225
721,-0.195,-0.245
722,-0.195,-0.265
723,-0.225,-0.275
724,-0.245,-0.285
725,-0.245,-0.285
726,-0.245,-0.285
727,-0.265,-0.265
728,-0.255,-0.285
729,-0.245,-0.265
730,-0.225,-0.235
731,-0.235,-0.255
732,-0.235,-0.255
733,-0.255,-0.255
734,-0.245,-0.255
735,-0.235,-0.255
736,-0.235,-0.255
737,-0.235,-0.245
738,-0.235,-0.245
739,-0.215,-0.255
740,-0.245,-0.275
741,-0.235,-0.275
742,-0.235,-0.275
743,-0.255,-0.285
744,-0.275,-0.295
745,-0.255,-0.295
746,-0.265,-0.275
747,-0.265,-0.305
748,-0.265,-0.305
749,-0.285,-0.315
750,-0.275,-0.305
751,-0.275,-0.305
752,-0.295,-0.315
753,-0.275,-0.305
754,-0.295,-0.295
755,-0.255,-0.305
756,-0.285,-0.315
757,-0.275,-0.305
758,-0.275,-0.315
759,-0.285,-0.285
760,-0.285,-0.295
761,-0.265,-0.305
762,-0.265,-0.275
763,-0.255,-0.285
764,-0.265,-0.285
765,-0.255,-0.275
766,-0.255,-0.285
767,-0.255,-0.275
768,-0.265,-0.275
769,-0.245,-0.275
770,-0.235,-0.255
771,-0.245,-0.255
772,-0.245,-0.255
773,-0.245,-0.265
774,-0.235,-0.265
775,-0.235,-0.255
776,-0.235,-0.265
777,-0.245,-0.255
778,-0.205,-0.245
779,-0.225,-0.255
780,-0.215,-0.235
781,-0.235,-0.225
782,-0.195,-0.175
783,-0.165,-0.165
784,-0.125,-0.135
785,-0.075,-0.105
786,-0.035,-0.125
787,-0.115,-0.215
788,-0.155,-0.235
789,-0.185,-0.285
790,-0.225,-0.265
791,-0.235,-0.265
792,-0.235,-0.275
793,-0.225,-0.265
794,-0.225,-0.245
795,-0.215,-0.245
796,-0.215,-0.255
797,-0.175,-0.235
798,-0.425,-0.345
799,-0.625,0.055
800,-0.315,0.245
801,0.615,-0.215
802,1.885,0.005
803,2.835,0.575
804,2.995,-0.325
805,0.575,-1.245
806,-0.765,-0.925
807,-0.895,-0.615
808,-0.675,-0.355
809,-0.435,-0.065
810,-0.215,0.065
811,-0.185,0.055
812,-0.155,0.065
813,-0.175,0.075
814,-0.125,0.125
815,-0.135,0.155
816,-0.105,0.165
817,-0.085,0.205
818,-0.055,0.255
819,-0.015,0.275
820,-0.005,0.305
821,0.015,0.355
822,0.065,0.415
823,0.105,0.475
824,0.145,0.545
825,0.185,0.605
826,0.245,0.725
827,0.335,0.805
828,0.375,0.885
829,0.465,0.945
830,0.575,1.035
831,0.625,1.075
832,0.675,1.065
833,0.755,1.025
834,0.745,0.935
835,0.765,0.795
836,0.725,0.615
837,0.565,0.415
838,0.415,0.235
839,0.215,0.075
840,0.075,-0.045
841,-0.065,-0.135
842,-0.155,-0.185
843,-0.185,-0.225
844,-0.215,-0.255
845,-0.265,-0.265
846,-0.275,-0.265
847,-0.285,-0.255
848,-0.265,-0.275
849,-0.305,-0.275
850,-0.285,-0.245
851,-0.285,-0.255
852,-0.265,-0.255
853,-0.275,-0.245
854,-0.285,-0.235
855,-0.305,-0.245
856,-0.295,-0.215
857,-0.265,-0.235
858,-0.265,-0.215
859,-0.265,-0.255
860,-0.295,-0.265
861,-0.265,-0.225
862,-0.275,-0.245
863,-0.305,-0.255
864,-0.315,-0.265
865,-0.305,-0.265
866,-0.305,-0.255
867,-0.305,-0.275
868,-0.305,-0.285
869,-0.335,-0.275
870,-0.295,-0.275
871,-0.355,-0.285
872,-0.335,-0.285
873,-0.315,-0.285
874,-0.295,-0.265
875,-0.315,-0.295
876,-0.305,-0.295
877,-0.315,-0.295
878,-0.335,-0.285
879,-0.305,-0.275
880,-0.305,-0.275
881,-0.295,-0.275
882,-0.275,-0.265
883,-0.285,-0.255
884,-0.285,-0.275
885,-0.285,-0.275
886,-0.275,-0.255
887,-0.265,-0.255
888,-0.265,-0.265
889,-0.255,-0.255
890,-0.255,-0.245
891,-0.245,-0.255
892,-0.265,-0.265
893,-0.255,-0.245
894,-0.235,-0.235
895,-0.225,-0.225
896,-0.225,-0.255
897,-0.215,-0.245
898,-0.205,-0.205
899,-0.215,-0.215
900,-0.205,-0.225
901,-0.215,-0.215
902,-0.195,-0.195
903,-0.205,-0.205
904,-0.195,-0.205
905,-0.215,-0.215
906,-0.185,-0.195
907,-0.185,-0.175
908,-0.155,-0.155
909,-0.105,-0.105
910,-0.065,-0.075
911,-0.045,-0.065
912,-0.045,-0.135
913,-0.115,-0.175
914,-0.095,-0.175
915,-0.155,-0.235
916,-0.235,-0.235
917,-0.215,-0.255
918,-0.195,-0.215
919,-0.195,-0.225
920,-0.185,-0.215
921,-0.205,-0.205
922,-0.145,-0.185
923,-0.215,-0.265
924,-0.535,-0.085
925,-0.495,0.305
926,0.135,0.435
927,1.275,0.115
928,2.495,0.425
929,2.985,0.565
930,2.475,-0.695
931,-0.005,-1.075
932,-0.805,-0.835
933,-0.835,-0.675
934,-0.685,-0.495
935,-0.575,-0.235
936,-0.275,0.035
937,-0.165,0.045
938,-0.185,0.075
939,-0.115,0.125
940,-0.125,0.125
941,-0.105,0.125
942,-0.065,0.185
943,-0.045,0.195
944,-0.025,0.235
945,-0.015,0.245
946,0.015,0.285
947,0.045,0.335
948,0.105,0.385
949,0.125,0.385
950,0.155,0.465
951,0.185,0.535
952,0.265,0.625
953,0.315,0.695
954,0.395,0.785
955,0.505,0.875
956,0.595,0.935
957,0.665,0.995
958,0.755,0.985
959,0.775,0.975
960,0.845,0.915
961,0.825,0.775
962,0.735,0.605
963,0.615,0.405
964,0.435,0.245
965,0.245,0.075
966,0.095,-0.025
967,-0.035,-0.115
968,-0.095,-0.175
969,-0.165,-0.215
970,-0.195,-0.225
971,-0.185,-0.225
972,-0.205,-0.255
973,-0.215,-0.245
974,-0.235,-0.245
975,-0.235,-0.235
976,-0.215,-0.215
977,-0.215,-0.235
978,-0.215,-0.205
979,-0.205,-0.215
980,-0.245,-0.235
981,-0.185,-0.215
982,-0.215,-0.215
983,-0.215,-0.205
984,-0.195,-0.225
985,-0.205,-0.205
986,-0.195,-0.215
987,-0.215,-0.245
988,-0.225,-0.245
989,-0.215,-0.225
990,-0.255,-0.245
991,-0.235,-0.255
992,-0.235,-0.255
993,-0.255,-0.275
994,-0.235,-0.245
995,-0.265,-0.265
996,-0.265,-0.275
997,-0.265,-0.275
998,-0.305,-0.295
999,-0.275,-0.265
1000,-0.305,-0.285
1001,-0.285,-0.275
1002,-0.265,-0.265
1003,-0.285,-0.285
1004,-0.305,-0.295
1005,-0.295,-0.285
1006,-0.305,-0.275
1007,-0.305,-0.285
1008,-0.285,-0.275
1009,-0.295,-0.275
1010,-0.265,-0.265
1011,-0.275,-0.255
1012,-0.275,-0.275
1013,-0.285,-0.285
1014,-0.275,-0.265
1015,-0.295,-0.255
1016,-0.275,-0.265
1017,-0.285,-0.275
1018,-0.225,-0.245
1019,-0.265,-0.275
1020,-0.285,-0.265
1021,-0.265,-0.255
1022,-0.265,-0.245
1023,-0.275,-0.235
1024,-0.255,-0.235
1025,-0.235,-0.195
1026,-0.195,-0.165
1027,-0.175,-0.135
1028,-0.135,-0.135
1029,-0.105,-0.135
1030,-0.135,-0.185
1031,-0.195,-0.225
1032,-0.205,-0.265
1033,-0.255,-0.275
1034,-0.255,-0.255
1035,-0.265,-0.275
1036,-0.285,-0.275
1037,-0.275,-0.265
1038,-0.265,-0.275
1039,-0.265,-0.245
1040,-0.225,-0.255
1041,-0.475,-0.325
1042,-0.635,0.095
1043,-0.385,0.325
1044,0.495,-0.025
1045,1.735,-0.075
1046,2.755,0.495
1047,3.125,-0.095
1048,0.725,-1.225
1049,-0.795,-0.945
1050,-0.925,-0.625
1051,-0.765,-0.415
1052,-0.605,-0.205
1053,-0.315,0.035
1054,-0.225,0.025
1055,-0.235,0.065
1056,-0.225,0.065
1057,-0.195,0.105
1058,-0.125,0.175
1059,-0.115,0.175
1060,-0.135,0.185
1061,-0.105,0.215
1062,-0.065,0.275
1063,-0.055,0.295
1064,-0.015,0.325
1065,0.005,0.395
1066,0.045,0.465
1067,0.105,0.525
1068,0.145,0.585
1069,0.205,0.665
1070,0.265,0.765
1071,0.345,0.885
1072,0.435,0.945
1073,0.535,1.025
1074,0.645,1.075
1075,0.705,1.065
1076,0.755,0.995
1077,0.765,0.895
1078,0.785,0.765
1079,0.695,0.575
1080,0.545,0.365
1081,0.355,0.145
1082,0.175,0.025
1083,0.015,-0.095
1084,-0.095,-0.185
1085,-0.175,-0.255
1086,-0.205,-0.265
1087,-0.245,-0.285
1088,-0.275,-0.305
1089,-0.315,-0.305
1090,-0.265,-0.305
1091,-0.285,-0.315
1092,-0.315,-0.305
1093,-0.325,-0.325
1094,-0.315,-0.325
1095,-0.295,-0.295
1096,-0.295,-0.305
1097,-0.305,-0.295
1098,-0.265,-0.275
1099,-0.275,-0.285
1100,-0.285,-0.295
1101,-0.265,-0.295
1102,-0.275,-0.275
1103,-0.285,-0.275
1104,-0.235,-0.295
1105,-0.265,-0.305
1106,-0.255,-0.285
1107,-0.265,-0.295
1108,-0.275,-0.325
1109,-0.295,-0.325
1110,-0.295,-0.325
1111,-0.305,-0.335
1112,-0.295,-0.335
1113,-0.315,-0.335
1114,-0.285,-0.315
1115,-0.295,-0.335
1116,-0.325,-0.355
1117,-0.315,-0.345
1118,-0.315,-0.335
1119,-0.335,-0.345
1120,-0.315,-0.335
1121,-0.325,-0.355
1122,-0.285,-0.325
1123,-0.315,-0.335
1124,-0.315,-0.355
1125,-0.305,-0.335
1126,-0.295,-0.335
1127,-0.315,-0.335
1128,-0.285,-0.335
1129,-0.295,-0.325
1130,-0.285,-0.315
1131,-0.295,-0.345
1132,-0.305,-0.335
1133,-0.285,-0.325
1134,-0.285,-0.315
1135,-0.295,-0.325
1136,-0.285,-0.315
1137,-0.265,-0.305
1138,-0.255,-0.295
1139,-0.255,-0.295
1140,-0.275,-0.325
1141,-0.265,-0.285
1142,-0.265,-0.295
1143,-0.215,-0.225
1144,-0.215,-0.225
1145,-0.165,-0.185
1146,-0.085,-0.155
1147,-0.075,-0.175
1148,-0.155,-0.265
1149,-0.185,-0.275
1150,-0.215,-0.315
1151,-0.255,-0.325
1152,-0.265,-0.315
1153,-0.245,-0.335
1154,-0.235,-0.295
1155,-0.235,-0.305
1156,-0.275,-0.325
1157,-0.245,-0.315
1158,-0.215,-0.305
1159,-0.545,-0.355
1160,-0.665,0.095
1161,-0.165,0.155
1162,0.915,-0.285
1163,2.235,-0.035
1164,2.945,0.405
1165,2.605,-0.655
1166,0.055,-1.255
1167,-0.925,-0.915
1168,-0.865,-0.605
1169,-0.655,-0.345
1170,-0.345,-0.015
1171,-0.235,0.015
1172,-0.215,0.005
1173,-0.205,0.035
1174,-0.195,0.065
1175,-0.165,0.095
1176,-0.125,0.125
1177,-0.105,0.135
1178,-0.085,0.185
1179,-0.065,0.215
1180,-0.035,0.245
1181,-0.005,0.295
1182,0.025,0.345
1183,0.055,0.385
1184,0.115,0.455
1185,0.155,0.535
1186,0.225,0.635
1187,0.275,0.715
1188,0.355,0.795
1189,0.425,0.915
1190,0.515,0.985
1191,0.615,1.035
1192,0.695,1.075
1193,0.765,1.045
1194,0.835,0.995
1195,0.825,0.885
1196,0.775,0.705
1197,0.715,0.525
1198,0.555,0.315
1199,0.365,0.165
1200,0.185,-0.005
1201,0.065,-0.115
1202,-0.025,-0.185
1203,-0.125,-0.245
1204,-0.195,-0.295
1205,-0.215,-0.315
1206,-0.245,-0.315
1207,-0.275,-0.325
1208,-0.245,-0.345
1209,-0.275,-0.345
1210,-0.245,-0.315
1211,-0.295,-0.325
1212,-0.295,-0.335
1213,-0.255,-0.315
1214,-0.255,-0.305
1215,-0.265,-0.305
1216,-0.295,-0.305
1217,-0.255,-0.305
1218,-0.225,-0.285
1219,-0.235,-0.275
1220,-0.265,-0.305
1221,-0.245,-0.315
1222,-0.265,-0.295
1223,-0.225,-0.295
1224,-0.265,-0.315
1225,-0.245,-0.305
1226,-0.235,-0.305
1227,-0.255,-0.315
1228,-0.265,-0.335
1229,-0.265,-0.345
1230,-0.265,-0.345
1231,-0.285,-0.335
1232,-0.275,-0.345
1233,-0.295,-0.365
1234,-0.265,-0.335
1235,-0.265,-0.335
1236,-0.305,-0.365
1237,-0.285,-0.345
1238,-0.305,-0.355
1239,-0.295,-0.335
1240,-0.285,-0.355
1241,-0.275,-0.345
1242,-0.265,-0.315
1243,-0.285,-0.345
1244,-0.275,-0.335
1245,-0.285,-0.325
1246,-0.265,-0.325
1247,-0.285,-0.325
1248,-0.295,-0.335
1249,-0.265,-0.315
1250,-0.255,-0.305
1251,-0.275,-0.315
1252,-0.255,-0.315
1253,-0.265,-0.315
1254,-0.235,-0.305
1255,-0.275,-0.295
1256,-0.265,-0.305
1257,-0.235,-0.285
1258,-0.225,-0.275
1259,-0.225,-0.285
1260,-0.235,-0.295
1261,-0.245,-0.275
1262,-0.225,-0.265
1263,-0.205,-0.245
1264,-0.195,-0.235
1265,-0.155,-0.185
1266,-0.085,-0.155
1267,-0.045,-0.135
1268,-0.115,-0.255
1269,-0.145,-0.265
1270,-0.155,-0.285
1271,-0.215,-0.305
1272,-0.245,-0.315
1273,-0.235,-0.305
1274,-0.205,-0.295
1275,-0.205,-0.295
1276,-0.235,-0.305
1277,-0.235,-0.295
1278,-0.155,-0.255
1279,-0.475,-0.385
1280,-0.595,-0.005
1281,-0.265,0.245
1282,0.675,-0.235
1283,1.915,-0.165
1284,2.805,0.445
1285,2.795,-0.425
1286,0.205,-1.245
1287,-0.875,-0.905
1288,-0.845,-0.605
1289,-0.615,-0.345
1290,-0.335,-0.025
1291,-0.175,0.025
1292,-0.175,0.025
1293,-0.185,0.045
1294,-0.145,0.085
1295,-0.125,0.085
1296,-0.085,0.145
1297,-0.085,0.155
1298,-0.045,0.195
1299,-0.045,0.215
1300,0.005,0.245
1301,0.025,0.285
1302,0.045,0.345
1303,0.085,0.385
1304,0.135,0.435
1305,0.155,0.505
1306,0.235,0.615
1307,0.305,0.695
1308,0.375,0.795
1309,0.445,0.865
1310,0.525,0.945
1311,0.635,1.025
1312,0.705,1.045
1313,0.775,1.045
1314,0.855,1.005
1315,0.835,0.895
1316,0.825,0.765
1317,0.765,0.585
1318,0.615,0.385
1319,0.425,0.205
1320,0.245,0.045
1321,0.105,-0.085
1322,-0.015,-0.155
1323,-0.085,-0.205
1324,-0.115,-0.225
1325,-0.175,-0.295
1326,-0.195,-0.295
1327,-0.215,-0.295
1328,-0.205,-0.295
1329,-0.205,-0.305
1330,-0.185,-0.275
1331,-0.215,-0.295
1332,-0.215,-0.295
1333,-0.205,-0.275
1334,-0.205,-0.265
1335,-0.205,-0.285
1336,-0.215,-0.275
1337,-0.185,-0.265
1338,-0.175,-0.235
1339,-0.205,-0.265
1340,-0.195,-0.275
1341,-0.205,-0.275
1342,-0.195,-0.235
1343,-0.195,-0.265
1344,-0.205,-0.285
1345,-0.205,-0.275
1346,-0.155,-0.265
1347,-0.205,-0.275
1348,-0.215,-0.295
1349,-0.215,-0.315
1350,-0.225,-0.295
1351,-0.215,-0.285
1352,-0.225,-0.315
1353,-0.215,-0.315
1354,-0.185,-0.295
1355,-0.215,-0.305
1356,-0.225,-0.295
1357,-0.215,-0.305
1358,-0.205,-0.285
1359,-0.215,-0.305
1360,-0.215,-0.305
1361,-0.225,-0.305
1362,-0.195,-0.275
1363,-0.195,-0.295
1364,-0.215,-0.295
1365,-0.195,-0.285
1366,-0.215,-0.275
1367,-0.205,-0.285
1368,-0.195,-0.285
1369,-0.185,-0.255
1370,-0.155,-0.255
1371,-0.175,-0.265
1372,-0.175,-0.265
1373,-0.155,-0.255
1374,-0.175,-0.255
1375,-0.155,-0.225
1376,-0.175,-0.265
1377,-0.145,-0.235
1378,-0.105,-0.205
1379,-0.105,-0.165
1380,-0.085,-0.175
1381,-0.045,-0.145
1382,-0.015,-0.115
1383,0.005,-0.115
1384,-0.055,-0.215
1385,-0.085,-0.235
1386,-0.095,-0.245
1387,-0.155,-0.245
1388,-0.145,-0.265
1389,-0.135,-0.265
1390,-0.135,-0.245
1391,-0.145,-0.235
1392,-0.135,-0.225
1393,-0.115,-0.225
1394,-0.095,-0.245
1395,-0.445,-0.225
1396,-0.515,0.165
1397,0.105,0.375
1398,1.315,-0.015
1399,2.585,0.335
1400,3.115,0.405
1401,1.855,-0.855
1402,-0.255,-1.015
1403,-0.785,-0.765
1404,-0.735,-0.585
1405,-0.565,-0.355
1406,-0.295,-0.065
1407,-0.115,0.065
1408,-0.095,0.065
1409,-0.075,0.085
1410,-0.015,0.155
1411,-0.015,0.145
1412,0.005,0.165
1413,0.025,0.195
1414,0.035,0.225
1415,0.085,0.265
1416,0.075,0.265
1417,0.125,0.315
1418,0.175,0.365
1419,0.195,0.415
1420,0.225,0.465
1421,0.285,0.545
1422,0.345,0.615
1423,0.395,0.675
1424,0.475,0.785
1425,0.555,0.855
1426,0.685,0.955
1427,0.735,0.995
1428,0.835,0.985
1429,0.875,0.975
1430,0.905,0.915
1431,0.885,0.775
1432,0.825,0.605
1433,0.705,0.445
1434,0.535,0.295
1435,0.335,0.105
1436,0.175,-0.005
1437,0.045,-0.105
1438,-0.045,-0.145
1439,-0.095,-0.195
1440,-0.125,-0.225
1441,-0.155,-0.235
1442,-0.145,-0.205
1443,-0.175,-0.265
1444,-0.205,-0.255
1445,-0.175,-0.225
1446,-0.205,-0.215
1447,-0.175,-0.215
1448,-0.205,-0.245
1449,-0.205,-0.215
1450,-0.155,-0.215
1451,-0.145,-0.195
1452,-0.185,-0.215
1453,-0.175,-0.225
1454,-0.165,-0.225
1455,-0.205,-0.215
1456,-0.205,-0.225
1457,-0.195,-0.225
1458,-0.155,-0.225
1459,-0.175,-0.225
1460,-0.195,-0.255
1461,-0.215,-0.245
1462,-0.225,-0.265
1463,-0.215,-0.255
1464,-0.225,-0.255
1465,-0.225,-0.265
1466,-0.225,-0.255
1467,-0.245,-0.275
1468,-0.255,-0.275
1469,-0.275,-0.275
1470,-0.265,-0.295
1471,-0.265,-0.275
1472,-0.255,-0.275
1473,-0.275,-0.285
1474,-0.225,-0.255
1475,-0.275,-0.275
1476,-0.275,-0.295
1477,-0.275,-0.275
1478,-0.275,-0.265
1479,-0.285,-0.265
1480,-0.285,-0.295
1481,-0.265,-0.265
1482,-0.235,-0.225
1483,-0.275,-0.275
1484,-0.275,-0.285
1485,-0.275,-0.235
1486,-0.235,-0.175
1487,-0.225,-0.225
1488,-0.205,-0.165
1489,-0.125,-0.135
1490,-0.095,-0.135
1491,-0.115,-0.175
1492,-0.205,-0.245
1493,-0.225,-0.265
1494,-0.275,-0.295
1495,-0.275,-0.285
1496,-0.285,-0.285
1497,-0.285,-0.295
1498,-0.265,-0.285
1499,-0.285,-0.275
1500,-0.255,-0.275
1501,-0.205,-0.255
1502,-0.455,-0.355
1503,-0.665,-0.045
1504,-0.475,0.245
1505,0.325,0.015
1506,1.475,-0.215
1507,2.595,0.235
1508,3.105,0.085
1509,1.345,-1.145
1510,-0.605,-1.045
1511,-0.965,-0.695
1512,-0.805,-0.485
1513,-0.625,-0.255
1514,-0.305,0.015
1515,-0.255,0.045
1516,-0.235,0.045
1517,-0.215,0.075
1518,-0.175,0.095
1519,-0.165,0.125
1520,-0.135,0.145
1521,-0.155,0.165
1522,-0.095,0.225
1523,-0.065,0.245
1524,-0.055,0.285
1525,-0.025,0.325
1526,0.015,0.365
1527,0.035,0.425
1528,0.075,0.485
1529,0.145,0.555
1530,0.185,0.625
1531,0.265,0.745
1532,0.325,0.825
1533,0.435,0.925
1534,0.495,0.995
1535,0.585,1.085
1536,0.685,1.075
1537,0.745,1.055
1538,0.785,1.005
1539,0.825,0.885
1540,0.765,0.725
1541,0.695,0.535
1542,0.515,0.325
1543,0.295,0.135
1544,0.115,-0.005
1545,-0.035,-0.125
1546,-0.115,-0.175
1547,-0.185,-0.205
1548,-0.265,-0.285
1549,-0.265,-0.295
1550,-0.255,-0.275
1551,-0.295,-0.295
1552,-0.295,-0.295
1553,-0.305,-0.295
1554,-0.305,-0.285
1555,-0.295,-0.275
1556,-0.285,-0.285
1557,-0.295,-0.295
1558,-0.275,-0.265
1559,-0.295,-0.255
1560,-0.285,-0.255
1561,-0.295,-0.255
1562,-0.275,-0.255
1563,-0.285,-0.265
1564,-0.265,-0.245
1565,-0.275,-0.285
1566,-0.265,-0.265
1567,-0.265,-0.255
1568,-0.285,-0.275
1569,-0.275,-0.295
1570,-0.245,-0.285
1571,-0.275,-0.295
1572,-0.285,-0.315
1573,-0.275,-0.305
1574,-0.315,-0.315
1575,-0.285,-0.325
1576,-0.305,-0.335
1577,-0.305,-0.325
1578,-0.285,-0.305
1579,-0.315,-0.335
1580,-0.285,-0.325
1581,-0.305,-0.315
1582,-0.315,-0.325
1583,-0.305,-0.325
1584,-0.315,-0.325
1585,-0.305,-0.335
1586,-0.275,-0.315
1587,-0.285,-0.315
1588,-0.295,-0.305
1589,-0.295,-0.305
1590,-0.295,-0.315
1591,-0.295,-0.325
1592,-0.285,-0.305
1593,-0.275,-0.295
1594,-0.255,-0.295
1595,-0.275,-0.305
1596,-0.265,-0.275
1597,-0.235,-0.265
1598,-0.245,-0.235
1599,-0.195,-0.205
1600,-0.145,-0.175
1601,-0.095,-0.175
1602,-0.085,-0.185
1603,-0.175,-0.265
1604,-0.195,-0.305
1605,-0.215,-0.325
1606,-0.245,-0.325
1607,-0.275,-0.325
1608,-0.275,-0.325
1609,-0.255,-0.315
1610,-0.245,-0.315
1611,-0.255,-0.295
1612,-0.235,-0.295
1613,-0.265,-0.355
1614,-0.615,-0.255
1615,-0.605,0.175
1616,0.065,-0.045
1617,1.155,-0.315
1618,2.415,0.105
1619,3.065,0.195
1620,2.055,-1.045
1621,-0.235,-1.175
1622,-0.995,-0.825
1623,-0.785,-0.485
1624,-0.595,-0.285
1625,-0.295,0.015
1626,-0.185,0.025
1627,-0.215,0.015
1628,-0.185,0.025
1629,-0.205,0.045
1630,-0.145,0.095
1631,-0.115,0.155
1632,-0.105,0.145
1633,-0.075,0.195
1634,-0.045,0.235
1635,-0.025,0.245
1636,-0.005,0.285
1637,0.015,0.365
1638,0.075,0.395
1639,0.145,0.485
1640,0.135,0.505
1641,0.185,0.615
1642,0.255,0.715
1643,0.345,0.815
1644,0.405,0.895
1645,0.485,0.965
1646,0.625,1.055
1647,0.675,1.095
1648,0.785,1.075
1649,0.815,1.005
1650,0.815,0.905
1651,0.805,0.725
1652,0.735,0.515
1653,0.555,0.325
1654,0.365,0.145
1655,0.185,-0.005
1656,0.025,-0.125
1657,-0.055,-0.185
1658,-0.115,-0.225
1659,-0.165,-0.265
1660,-0.195,-0.295
1661,-0.215,-0.305
1662,-0.225,-0.315
1663,-0.225,-0.295
1664,-0.245,-0.305
1665,-0.225,-0.305
1666,-0.225,-0.285
1667,-0.215,-0.305
1668,-0.265,-0.295
1669,-0.225,-0.275
1670,-0.215,-0.265
1671,-0.235,-0.285
1672,-0.195,-0.275
1673,-0.215,-0.265
1674,-0.175,-0.255
1675,-0.205,-0.275
1676,-0.205,-0.275
1677,-0.195,-0.285
1678,-0.195,-0.285
1679,-0.215,-0.295
1680,-0.195,-0.295
1681,-0.235,-0.315
1682,-0.175,-0.295
1683,-0.165,-0.315
1684,-0.225,-0.325
1685,-0.265,-0.305
1686,-0.255,-0.305
1687,-0.245,-0.335
1688,-0.245,-0.325
1689,-0.245,-0.335
1690,-0.205,-0.285
1691,-0.215,-0.315
1692,-0.235,-0.325
1693,-0.235,-0.315
1694,-0.215,-0.315
1695,-0.215,-0.305
1696,-0.205,-0.305
1697,-0.215,-0.315
1698,-0.185,-0.295
1699,-0.205,-0.295
1700,-0.205,-0.285
1701,-0.195,-0.295
1702,-0.205,-0.305
1703,-0.225,-0.305
1704,-0.195,-0.285
1705,-0.185,-0.295
1706,-0.175,-0.275
1707,-0.155,-0.275
1708,-0.175,-0.285
1709,-0.185,-0.275
1710,-0.185,-0.255
1711,-0.145,-0.215
1712,-0.145,-0.205
1713,-0.105,-0.175
1714,-0.045,-0.135
1715,0.025,-0.125
1716,-0.045,-0.205
1717,-0.095,-0.265
1718,-0.105,-0.265
1719,-0.155,-0.295
1720,-0.205,-0.295
1721,-0.205,-0.305
1722,-0.165,-0.275
1723,-0.165,-0.295
1724,-0.185,-0.275
1725,-0.185,-0.285
1726,-0.125,-0.265
1727,-0.345,-0.365
1728,-0.575,-0.015
1729,-0.325,0.295
1730,0.575,0.015
1731,1.855,-0.035
1732,2.785,0.485
1733,3.165,-0.035
1734,0.935,-1.195
1735,-0.625,-0.975
1736,-0.845,-0.715
1737,-0.715,-0.535
1738,-0.525,-0.255
1739,-0.195,0.015
1740,-0.125,0.015
1741,-0.125,0.015
1742,-0.085,0.055
1743,-0.085,0.095
1744,-0.045,0.125
1745,-0.015,0.135
1746,0.005,0.175
1747,0.025,0.195
1748,0.025,0.225
1749,0.075,0.265
1750,0.125,0.315
1751,0.125,0.345
1752,0.155,0.385
1753,0.185,0.465
1754,0.255,0.555
1755,0.335,0.625
1756,0.365,0.685
1757,0.425,0.785
1758,0.535,0.885
1759,0.625,0.965
1760,0.725,1.005
1761,0.835,1.025
1762,0.885,0.985
1763,0.905,0.865
1764,0.855,0.715
1765,0.785,0.545
1766,0.625,0.365
1767,0.445,0.195
1768,0.255,0.045
1769,0.125,-0.075
1770,0.015,-0.155
1771,-0.055,-0.195
1772,-0.095,-0.235
1773,-0.155,-0.265
1774,-0.185,-0.265
1775,-0.195,-0.255
1776,-0.175,-0.265
1777,-0.185,-0.265
1778,-0.185,-0.235
1779,-0.195,-0.265
1780,-0.215,-0.265
1781,-0.175,-0.245
1782,-0.205,-0.245
1783,-0.185,-0.225
1784,-0.175,-0.255
1785,-0.175,-0.235
1786,-0.135,-0.195
1787,-0.195,-0.255
1788,-0.185,-0.235
1789,-0.145,-0.255
1790,-0.175,-0.265
1791,-0.175,-0.235
1792,-0.175,-0.255
1793,-0.185,-0.275
1794,-0.165,-0.265
1795,-0.195,-0.285
1796,-0.205,-0.285
1797,-0.225,-0.305
1798,-0.225,-0.285
1799,-0.215,-0.295
1800,-0.235,-0.315
1801,-0.225,-0.305
1802,-0.215,-0.315
1803,-0.255,-0.315
1804,-0.255,-0.305
1805,-0.235,-0.335
1806,-0.245,-0.315
1807,-0.255,-0.315
1808,-0.245,-0.315
1809,-0.255,-0.325
1810,-0.245,-0.315
1811,-0.235,-0.305
1812,-0.245,-0.305
1813,-0.245,-0.305
1814,-0.275,-0.295
1815,-0.225,-0.295
1816,-0.235,-0.295
1817,-0.255,-0.305
1818,-0.205,-0.265
1819,-0.215,-0.285
1820,-0.245,-0.265
1821,-0.235,-0.295
1822,-0.235,-0.295
1823,-0.235,-0.265
1824,-0.265,-0.285
1825,-0.235,-0.305
1826,-0.225,-0.235
1827,-0.235,-0.255
1828,-0.195,-0.225
1829,-0.215,-0.205
1830,-0.145,-0.165
1831,-0.085,-0.135
1832,-0.065,-0.165
1833,-0.115,-0.215
1834,-0.135,-0.225
1835,-0.195,-0.295
1836,-0.225,-0.305
1837,-0.255,-0.295
1838,-0.265,-0.295
1839,-0.255,-0.275
1840,-0.235,-0.285
1841,-0.245,-0.295
1842,-0.215,-0.255
1843,-0.175,-0.275
1844,-0.545,-0.305
1845,-0.665,0.135
1846,-0.165,0.185
1847,0.905,-0.255
1848,2.285,0.035
1849,2.995,0.415
1850,2.475,-0.705
1851,-0.065,-1.175
1852,-0.935,-0.835
1853,-0.845,-0.545
1854,-0.655,-0.315
1855,-0.355,-0.015
1856,-0.225,0.025
1857,-0.195,0.035
1858,-0.165,0.065
1859,-0.165,0.105
1860,-0.115,0.105
1861,-0.115,0.135
1862,-0.105,0.165
1863,-0.065,0.215
1864,-0.055,0.225
1865,0.005,0.295
1866,0.045,0.305
1867,0.035,0.365
1868,0.085,0.425
1869,0.115,0.475
1870,0.145,0.545
1871,0.245,0.655
1872,0.285,0.725
1873,0.355,0.845
1874,0.455,0.915
1875,0.535,0.995
1876,0.625,1.045
1877,0.695,1.075
1878,0.745,1.055
1879,0.795,0.985
1880,0.805,0.875
1881,0.785,0.695
1882,0.715,0.545
1883,0.535,0.315
1884,0.365,0.145
1885,0.175,0.005
1886,0.035,-0.095
1887,-0.075,-0.165
1888,-0.125,-0.235
1889,-0.175,-0.255
1890,-0.185,-0.265
1891,-0.225,-0.265
1892,-0.235,-0.305
1893,-0.245,-0.305
1894,-0.255,-0.295
1895,-0.235,-0.265
1896,-0.235,-0.305
1897,-0.235,-0.285
1898,-0.225,-0.265
1899,-0.245,-0.275
1900,-0.255,-0.275
1901,-0.245,-0.275
1902,-0.235,-0.255
1903,-0.225,-0.245
1904,-0.235,-0.265
1905,-0.225,-0.265
1906,-0.205,-0.245
1907,-0.215,-0.255
1908,-0.225,-0.245
1909,-0.235,-0.265
1910,-0.235,-0.285
1911,-0.235,-0.295
1912,-0.235,-0.275
1913,-0.255,-0.285
1914,-0.245,-0.295
1915,-0.235,-0.305
1916,-0.275,-0.305
1917,-0.275,-0.315
1918,-0.265,-0.305
1919,-0.275,-0.305
1920,-0.255,-0.315
1921,-0.275,-0.305
1922,-0.255,-0.315
1923,-0.275,-0.315
1924,-0.285,-0.325
1925,-0.265,-0.325
1926,-0.265,-0.315
1927,-0.285,-0.315
1928,-0.285,-0.295
1929,-0.265,-0.305
1930,-0.255,-0.285
1931,-0.265,-0.315
1932,-0.255,-0.295
1933,-0.245,-0.275
1934,-0.255,-0.305
1935,-0.295,-0.295
1936,-0.265,-0.255
1937,-0.275,-0.295
1938,-0.235,-0.255
1939,-0.235,-0.265
1940,-0.245,-0.275
1941,-0.235,-0.275
1942,-0.245,-0.255
1943,-0.255,-0.275
1944,-0.265,-0.265
1945,-0.245,-0.265
1946,-0.205,-0.235
1947,-0.215,-0.255
1948,-0.245,-0.265
1949,-0.255,-0.275
1950,-0.215,-0.225
1951,-0.225,-0.195
1952,-0.195,-0.205
1953,-0.145,-0.155
1954,-0.045,-0.095
1955,-0.045,-0.145
1956,-0.125,-0.225
1957,-0.155,-0.235
1958,-0.175,-0.265
1959,-0.225,-0.255
1960,-0.245,-0.285
1961,-0.265,-0.285
1962,-0.215,-0.255
1963,-0.235,-0.285
1964,-0.195,-0.265
1965,-0.225,-0.265
1966,-0.195,-0.245
1967,-0.535,-0.295
1968,-0.635,0.135
1969,-0.145,0.175
1970,0.855,-0.245
1971,2.155,0.015
1972,2.925,0.525
1973,2.695,-0.545
1974,0.125,-1.215
1975,-0.885,-0.875
1976,-0.865,-0.585
1977,-0.605,-0.285
1978,-0.345,-0.005
1979,-0.195,0.065
1980,-0.185,0.055
1981,-0.185,0.075
1982,-0.155,0.105
1983,-0.145,0.125
1984,-0.125,0.145
1985,-0.085,0.165
1986,-0.035,0.235
1987,-0.025,0.255
1988,-0.035,0.265
1989,-0.005,0.295
1990,0.045,0.375
1991,0.075,0.425
1992,0.125,0.465
1993,0.165,0.565
1994,0.245,0.635
1995,0.285,0.725
1996,0.365,0.825
1997,0.445,0.915
1998,0.515,1.015
1999,0.635,1.075
2000,0.715,1.115
2001,0.775,1.115
2002,0.855,1.065
2003,0.845,0.955
2004,0.815,0.785
2005,0.745,0.605
2006,0.615,0.425
2007,0.435,0.225
2008,0.255,0.065
2009,0.105,-0.055
2010,0.025,-0.105
2011,-0.085,-0.185
2012,-0.155,-0.235
2013,-0.175,-0.245
2014,-0.185,-0.245
2015,-0.195,-0.265
2016,-0.215,-0.285
2017,-0.205,-0.285
2018,-0.195,-0.265
2019,-0.225,-0.285
2020,-0.205,-0.265
2021,-0.205,-0.265
2022,-0.215,-0.235
2023,-0.215,-0.245
2024,-0.195,-0.245
2025,-0.185,-0.235
2026,-0.175,-0.225
2027,-0.205,-0.225
2028,-0.215,-0.245
2029,-0.195,-0.245
2030,-0.205,-0.245
2031,-0.185,-0.235
2032,-0.195,-0.255
2033,-0.185,-0.255
2034,-0.185,-0.255
2035,-0.215,-0.245
2036,-0.215,-0.255
2037,-0.185,-0.265
2038,-0.215,-0.275
2039,-0.215,-0.275
2040,-0.205,-0.275
2041,-0.235,-0.295
2042,-0.225,-0.285
2043,-0.245,-0.295
2044,-0.225,-0.285
2045,-0.235,-0.295
2046,-0.225,-0.295
2047,-0.245,-0.295
2048,-0.255,-0.295
2049,-0.235,-0.295
2050,-0.215,-0.265
2051,-0.245,-0.285
2052,-0.235,-0.295
2053,-0.245,-0.275
2054,-0.225,-0.275
2055,-0.225,-0.275
2056,-0.205,-0.265
2057,-0.235,-0.295
2058,-0.205,-0.255
2059,-0.205,-0.275
2060,-0.215,-0.275
2061,-0.135,-0.265
2062,-0.215,-0.255
2063,-0.205,-0.245
2064,-0.225,-0.265
2065,-0.205,-0.255
2066,-0.175,-0.225
2067,-0.195,-0.245
2068,-0.215,-0.255
2069,-0.185,-0.255
2070,-0.195,-0.245
2071,-0.185,-0.225
2072,-0.155,-0.235
2073,-0.175,-0.225
2074,-0.145,-0.205
2075,-0.155,-0.215
2076,-0.145,-0.185
2077,-0.115,-0.175
2078,-0.115,-0.145
2079,-0.035,-0.105
2080,-0.015,-0.095
2081,-0.045,-0.165
2082,-0.055,-0.165
2083,-0.105,-0.235
2084,-0.195,-0.275
2085,-0.185,-0.245
2086,-0.175,-0.235
2087,-0.175,-0.235
2088,-0.185,-0.245
2089,-0.185,-0.235
2090,-0.115,-0.205
2091,-0.115,-0.205
2092,-0.375,-0.315
2093,-0.575,-0.025
2094,-0.315,0.345
2095,0.565,0.165
2096,1.815,0.025
2097,2.775,0.535
2098,3.115,0.035
2099,0.785,-1.135
2100,-0.655,-0.965
2101,-0.855,-0.715
2102,-0.725,-0.525
2103,-0.555,-0.265
2104,-0.295,0.005
2105,-0.155,0.045
2106,-0.135,0.065
2107,-0.135,0.085
2108,-0.135,0.095
2109,-0.085,0.145
2110,-0.065,0.155
2111,-0.065,0.175
2112,-0.035,0.215
2113,0.005,0.225
2114,0.025,0.265
2115,0.075,0.305
2116,0.075,0.345
2117,0.115,0.395
2118,0.155,0.465
2119,0.205,0.525
2120,0.245,0.605
2121,0.325,0.695
2122,0.435,0.825
2123,0.515,0.895
2124,0.575,0.955
2125,0.665,0.995
2126,0.755,1.035
2127,0.805,1.005
2128,0.845,0.945
2129,0.855,0.815
2130,0.835,0.675
2131,0.685,0.455
2132,0.475,0.265
2133,0.305,0.115
2134,0.145,0.005
2135,0.045,-0.085
2136,-0.075,-0.175
2137,-0.125,-0.205
2138,-0.175,-0.235
2139,-0.205,-0.255
2140,-0.205,-0.255
2141,-0.215,-0.275
2142,-0.225,-0.265
2143,-0.245,-0.255
2144,-0.235,-0.265
2145,-0.245,-0.265
2146,-0.245,-0.255
2147,-0.215,-0.245
2148,-0.255,-0.245
2149,-0.225,-0.245
2150,-0.215,-0.265
2151,-0.235,-0.235
2152,-0.235,-0.225
2153,-0.235,-0.245
2154,-0.235,-0.235
2155,-0.215,-0.245
2156,-0.225,-0.265
2157,-0.245,-0.265
2158,-0.225,-0.265
2159,-0.235,-0.245
2160,-0.265,-0.285
2161,-0.265,-0.295
2162,-0.245,-0.285
2163,-0.285,-0.305
2164,-0.295,-0.305
2165,-0.295,-0.305
2166,-0.315,-0.295
2167,-0.315,-0.305
2168,-0.305,-0.325
2169,-0.325,-0.325
2170,-0.295,-0.305
2171,-0.305,-0.305
2172,-0.325,-0.325
2173,-0.305,-0.315
2174,-0.325,-0.305
2175,-0.295,-0.305
2176,-0.305,-0.335
2177,-0.335,-0.305
2178,-0.285,-0.295
2179,-0.315,-0.325
2180,-0.305,-0.315
2181,-0.295,-0.305
2182,-0.315,-0.295
2183,-0.295,-0.295
2184,-0.295,-0.305
2185,-0.295,-0.295
2186,-0.285,-0.285
2187,-0.275,-0.285
2188,-0.305,-0.295
2189,-0.265,-0.275
2190,-0.285,-0.275
2191,-0.275,-0.275
2192,-0.295,-0.285
2193,-0.295,-0.275
2194,-0.245,-0.255
2195,-0.285,-0.285
2196,-0.275,-0.255
2197,-0.265,-0.235
2198,-0.245,-0.215
2199,-0.225,-0.205
2200,-0.185,-0.165
2201,-0.125,-0.145
2202,-0.085,-0.125
2203,-0.135,-0.195
2204,-0.185,-0.245
2205,-0.195,-0.245
2206,-0.245,-0.285
2207,-0.265,-0.265
2208,-0.295,-0.295
2209,-0.265,-0.285
2210,-0.245,-0.255
2211,-0.245,-0.255
2212,-0.295,-0.265
2213,-0.235,-0.265
2214,-0.435,-0.345
2215,-0.655,-0.105
2216,-0.515,0.245
2217,0.205,0.085
2218,1.345,-0.195
2219,2.555,0.285
2220,3.125,0.195
2221,1.205,-1.145
2222,-0.625,-1.025
2223,-0.945,-0.685
2224,-0.745,-0.455
2225,-0.535,-0.185
2226,-0.235,0.065
2227,-0.205,0.045
2228,-0.215,0.045
2229,-0.165,0.085
2230,-0.155,0.115
2231,-0.115,0.155
2232,-0.125,0.155
2233,-0.085,0.195
2234,-0.035,0.235
2235,-0.035,0.275
2236,-0.015,0.315
2237,0.015,0.345
2238,0.065,0.405
2239,0.105,0.465
2240,0.135,0.525
2241,0.175,0.605
2242,0.285,0.735
2243,0.335,0.835
2244,0.405,0.905
2245,0.495,1.005
2246,0.575,1.085
2247,0.675,1.125
2248,0.745,1.135
2249,0.795,1.075
2250,0.865,1.025
2251,0.825,0.895
2252,0.795,0.705
2253,0.705,0.515
2254,0.485,0.315
2255,0.315,0.135
2256,0.145,-0.005
2257,0.025,-0.095
2258,-0.065,-0.165
2259,-0.135,-0.215
2260,-0.185,-0.255
2261,-0.195,-0.275
2262,-0.245,-0.275
2263,-0.255,-0.285
2264,-0.255,-0.285
2265,-0.255,-0.305
2266,-0.225,-0.265
2267,-0.255,-0.275
2268,-0.265,-0.285
2269,-0.245,-0.255
2270,-0.245,-0.265
2271,-0.245,-0.265
2272,-0.265,-0.255
2273,-0.255,-0.255
2274,-0.215,-0.245
2275,-0.235,-0.245
2276,-0.255,-0.265
2277,-0.245,-0.255
2278,-0.235,-0.255
2279,-0.235,-0.245
2280,-0.235,-0.265
2281,-0.255,-0.275
2282,-0.235,-0.275
2283,-0.265,-0.285
2284,-0.265,-0.295
2285,-0.265,-0.315
2286,-0.285,-0.295
2287,-0.275,-0.295
2288,-0.275,-0.305
2289,-0.275,-0.295
2290,-0.255,-0.305
2291,-0.285,-0.305
2292,-0.295,-0.315
2293,-0.285,-0.315
2294,-0.285,-0.295
2295,-0.275,-0.305
2296,-0.305,-0.295
2297,-0.285,-0.305
2298,-0.255,-0.285
2299,-0.275,-0.285
2300,-0.285,-0.305
2301,-0.275,-0.305
2302,-0.295,-0.285
2303,-0.265,-0.275
2304,-0.255,-0.295
2305,-0.275,-0.295
2306,-0.235,-0.265
2307,-0.255,-0.275
2308,-0.255,-0.285
2309,-0.255,-0.275
2310,-0.265,-0.285
2311,-0.255,-0.275
2312,-0.235,-0.275
2313,-0.245,-0.275
2314,-0.205,-0.245
2315,-0.245,-0.275
2316,-0.255,-0.285
2317,-0.235,-0.255
2318,-0.225,-0.225
2319,-0.195,-0.205
2320,-0.185,-0.175
2321,-0.125,-0.145
2322,-0.035,-0.115
2323,-0.055,-0.135
2324,-0.145,-0.235
2325,-0.165,-0.255
2326,-0.195,-0.285
2327,-0.235,-0.275
2328,-0.255,-0.295
2329,-0.245,-0.275
2330,-0.215,-0.265
2331,-0.225,-0.265
2332,-0.225,-0.275
2333,-0.215,-0.265
2334,-0.285,-0.305
2335,-0.585,-0.205
2336,-0.535,0.185
2337,0.125,0.075
2338,1.175,-0.195
2339,2.375,0.185
2340,2.975,0.535
2341,2.305,-0.645
2342,-0.145,-1.155
2343,-0.915,-0.815
2344,-0.775,-0.525
2345,-0.565,-0.275
2346,-0.255,0.045
2347,-0.175,0.065
2348,-0.175,0.045
2349,-0.165,0.075
2350,-0.145,0.115
2351,-0.125,0.125
2352,-0.095,0.165
2353,-0.055,0.195
2354,-0.025,0.225
2355,-0.035,0.255
2356,-0.015,0.275
2357,0.025,0.325
2358,0.055,0.375
2359,0.095,0.435
2360,0.125,0.495
2361,0.175,0.565
2362,0.275,0.655
2363,0.315,0.765
2364,0.365,0.835
2365,0.445,0.925
2366,0.535,1.035
2367,0.635,1.095
2368,0.705,1.105
2369,0.785,1.115
2370,0.835,1.055
2371,0.815,0.935
2372,0.805,0.785
2373,0.735,0.595
2374,0.565,0.385
2375,0.385,0.205
2376,0.205,0.055
2377,0.055,-0.095
2378,-0.015,-0.135
2379,-0.125,-0.195
2380,-0.165,-0.235
2381,-0.205,-0.265
2382,-0.235,-0.275
2383,-0.225,-0.275
2384,-0.245,-0.285
2385,-0.245,-0.295
2386,-0.225,-0.265
2387,-0.235,-0.275
2388,-0.245,-0.265
2389,-0.245,-0.265
2390,-0.265,-0.265
2391,-0.245,-0.255
2392,-0.245,-0.245
2393,-0.235,-0.265
2394,-0.205,-0.225
2395,-0.245,-0.255
2396,-0.245,-0.245
2397,-0.245,-0.255
2398,-0.255,-0.245
2399,-0.245,-0.255
2400,-0.245,-0.265
2401,-0.265,-0.275
2402,-0.235,-0.255
2403,-0.255,-0.285
2404,-0.265,-0.285
2405,-0.265,-0.285
2406,-0.295,-0.285
2407,-0.265,-0.275
2408,-0.285,-0.315
2409,-0.275,-0.305
2410,-0.255,-0.275
2411,-0.275,-0.285
2412,-0.275,-0.305
2413,-0.255,-0.295
2414,-0.265,-0.295
2415,-0.275,-0.295
2416,-0.265,-0.285
2417,-0.275,-0.295
2418,-0.235,-0.265
2419,-0.245,-0.275
2420,-0.265,-0.285
2421,-0.255,-0.265
2422,-0.245,-0.275
2423,-0.255,-0.275
2424,-0.265,-0.285
2425,-0.245,-0.265
2426,-0.215,-0.245
2427,-0.235,-0.275
2428,-0.235,-0.255
2429,-0.225,-0.255
2430,-0.235,-0.255
2431,-0.235,-0.245
2432,-0.205,-0.245
2433,-0.215,-0.275
2434,-0.205,-0.235
2435,-0.215,-0.205
2436,-0.175,-0.205
2437,-0.165,-0.195
2438,-0.135,-0.135
2439,-0.075,-0.125
2440,-0.045,-0.095
2441,-0.085,-0.175
2442,-0.105,-0.195
2443,-0.145,-0.235
2444,-0.195,-0.265
2445,-0.215,-0.265
2446,-0.215,-0.245
2447,-0.205,-0.245
2448,-0.205,-0.245
2449,-0.185,-0.255
2450,-0.155,-0.215
2451,-0.115,-0.215
2452,-0.425,-0.325
2453,-0.565,0.005
2454,-0.275,0.345
2455,0.565,0.145
2456,1.815,0.075
2457,2.755,0.595
2458,3.065,-0.005
2459,0.575,-1.175
2460,-0.695,-0.915
2461,-0.855,-0.675
2462,-0.725,-0.485
2463,-0.505,-0.205
2464,-0.235,0.035
2465,-0.165,0.055
2466,-0.115,0.095
2467,-0.115,0.115
2468,-0.105,0.135
2469,-0.055,0.155
2470,-0.045,0.195
2471,-0.035,0.205
2472,0.005,0.235
2473,0.015,0.265
2474,0.055,0.305
2475,0.065,0.345
2476,0.085,0.365
2477,0.135,0.435
2478,0.175,0.495
2479,0.235,0.565
2480,0.305,0.635
2481,0.355,0.735
2482,0.455,0.825
2483,0.535,0.905
2484,0.615,0.955
2485,0.705,1.015
2486,0.765,1.035
2487,0.825,1.005
2488,0.855,0.905
2489,0.835,0.795
2490,0.805,0.655
2491,0.665,0.465
2492,0.475,0.265
2493,0.295,0.135
2494,0.125,-0.015
2495,0.005,-0.115
2496,-0.085,-0.185
2497,-0.135,-0.205
2498,-0.135,-0.215
2499,-0.185,-0.245
2500,-0.195,-0.265
2501,-0.215,-0.265
2502,-0.225,-0.245
2503,-0.205,-0.235
2504,-0.225,-0.265
2505,-0.205,-0.235
2506,-0.185,-0.245
2507,-0.205,-0.215
2508,-0.215,-0.245
2509,-0.205,-0.255
2510,-0.215,-0.225
2511,-0.215,-0.225
2512,-0.215,-0.235
2513,-0.205,-0.245
2514,-0.175,-0.225
2515,-0.195,-0.215
2516,-0.215,-0.255
2517,-0.205,-0.255
2518,-0.225,-0.255
2519,-0.225,-0.255
2520,-0.235,-0.275
2521,-0.225,-0.285
2522,-0.205,-0.235
2523,-0.245,-0.295
2524,-0.245,-0.305
2525,-0.245,-0.295
2526,-0.265,-0.295
2527,-0.255,-0.285
2528,-0.255,-0.305
2529,-0.255,-0.275
2530,-0.215,-0.285
2531,-0.255,-0.295
2532,-0.255,-0.285
2533,-0.245,-0.285
2534,-0.255,-0.295
2535,-0.255,-0.295
2536,-0.245,-0.285
2537,-0.245,-0.285
2538,-0.215,-0.255
2539,-0.245,-0.265
2540,-0.235,-0.285
2541,-0.225,-0.275
2542,-0.225,-0.265
2543,-0.235,-0.275
2544,-0.235,-0.265
2545,-0.205,-0.235
2546,-0.155,-0.205
2547,-0.155,-0.175
2548,-0.115,-0.175
2549,-0.065,-0.135
2550,-0.085,-0.185
2551,-0.145,-0.245
2552,-0.145,-0.265
2553,-0.185,-0.275
2554,-0.205,-0.285
2555,-0.215,-0.285
2556,-0.225,-0.295
2557,-0.205,-0.285
2558,-0.215,-0.265
2559,-0.215,-0.275
2560,-0.185,-0.275
2561,-0.245,-0.295
2562,-0.535,-0.215
2563,-0.515,0.225
2564,0.075,0.195
2565,1.145,-0.215
2566,2.375,0.105
2567,3.035,0.385
2568,2.075,-0.835
2569,-0.215,-1.125
2570,-0.855,-0.785
2571,-0.795,-0.585
2572,-0.615,-0.355
2573,-0.375,-0.085
2574,-0.205,0.065
2575,-0.175,0.045
2576,-0.165,0.045
2577,-0.135,0.095
2578,-0.085,0.145
2579,-0.075,0.135
2580,-0.075,0.155
2581,-0.045,0.215
2582,-0.025,0.245
2583,0.005,0.285
2584,0.025,0.305
2585,0.065,0.375
2586,0.135,0.415
2587,0.145,0.455
2588,0.185,0.525
2589,0.245,0.605
2590,0.305,0.695
2591,0.365,0.765
2592,0.435,0.875
2593,0.525,0.945
2594,0.635,1.035
2595,0.725,1.055
2596,0.785,1.055
2597,0.835,1.025
2598,0.865,0.945
2599,0.845,0.805
2600,0.795,0.655
2601,0.705,0.465
2602,0.525,0.305
2603,0.355,0.115
2604,0.185,-0.015
2605,0.045,-0.125
2606,-0.035,-0.175
2607,-0.105,-0.235
2608,-0.155,-0.275
2609,-0.185,-0.295
2610,-0.205,-0.275
2611,-0.195,-0.305
2612,-0.215,-0.315
2613,-0.235,-0.325
2614,-0.215,-0.295
2615,-0.235,-0.295
2616,-0.225,-0.285
2617,-0.215,-0.285
2618,-0.225,-0.275
2619,-0.205,-0.275
2620,-0.215,-0.295
2621,-0.205,-0.275
2622,-0.205,-0.275
2623,-0.225,-0.275
2624,-0.205,-0.285
2625,-0.215,-0.275
2626,-0.195,-0.285
2627,-0.215,-0.285
2628,-0.225,-0.295
2629,-0.225,-0.305
2630,-0.225,-0.305
2631,-0.245,-0.315
2632,-0.245,-0.325
2633,-0.245,-0.325
2634,-0.225,-0.325
2635,-0.235,-0.335
2636,-0.265,-0.345
2637,-0.245,-0.345
2638,-0.245,-0.335
2639,-0.255,-0.335
2640,-0.255,-0.345
2641,-0.255,-0.355
2642,-0.235,-0.335
2643,-0.245,-0.335
2644,-0.255,-0.325
2645,-0.245,-0.335
2646,-0.255,-0.335
2647,-0.225,-0.325
2648,-0.245,-0.345
2649,-0.225,-0.325
2650,-0.205,-0.315
2651,-0.215,-0.315
2652,-0.235,-0.325
2653,-0.225,-0.325
2654,-0.225,-0.295
2655,-0.205,-0.275
2656,-0.165,-0.255
2657,-0.165,-0.255
2658,-0.105,-0.195
2659,-0.055,-0.185
2660,-0.055,-0.215
2661,-0.135,-0.295
2662,-0.155,-0.285
2663,-0.185,-0.345
2664,-0.225,-0.345
2665,-0.225,-0.335
2666,-0.215,-0.325
2667,-0.215,-0.325
2668,-0.235,-0.335
2669,-0.215,-0.335
2670,-0.205,-0.305
2671,-0.215,-0.325
2672,-0.555,-0.295
2673,-0.535,0.125
2674,0.105,-0.005
2675,1.195,-0.315
2676,2.405,0.005
2677,2.985,0.355
2678,2.275,-0.825
2679,-0.135,-1.195
2680,-0.905,-0.865
2681,-0.745,-0.545
2682,-0.515,-0.285
2683,-0.255,-0.015
2684,-0.175,-0.005
2685,-0.155,-0.005
2686,-0.165,0.035
2687,-0.115,0.075
2688,-0.095,0.065
2689,-0.095,0.105
2690,-0.045,0.155
2691,-0.045,0.165
2692,-0.035,0.205
2693,0.015,0.225
2694,0.025,0.275
2695,0.055,0.325
2696,0.085,0.375
2697,0.145,0.405
2698,0.215,0.535
2699,0.255,0.595
2700,0.285,0.655
2701,0.355,0.765
2702,0.435,0.845
2703,0.515,0.935
2704,0.595,1.035
2705,0.715,1.045
2706,0.795,1.065
2707,0.835,1.005
2708,0.825,0.895
2709,0.825,0.795
2710,0.765,0.585
2711,0.635,0.395
2712,0.455,0.185
2713,0.265,0.025
2714,0.125,-0.085
2715,-0.005,-0.175
2716,-0.085,-0.225
2717,-0.125,-0.265
2718,-0.175,-0.315
2719,-0.195,-0.315
2720,-0.215,-0.325
2721,-0.205,-0.325
2722,-0.185,-0.305
2723,-0.205,-0.305
2724,-0.225,-0.325
2725,-0.205,-0.305
2726,-0.215,-0.305
2727,-0.205,-0.285
2728,-0.215,-0.285
2729,-0.205,-0.295
2730,-0.185,-0.285
2731,-0.205,-0.275
2732,-0.205,-0.285
2733,-0.205,-0.285
2734,-0.215,-0.285
2735,-0.205,-0.295
2736,-0.195,-0.285
2737,-0.215,-0.305
2738,-0.195,-0.285
2739,-0.215,-0.315
2740,-0.225,-0.325
2741,-0.225,-0.315
2742,-0.245,-0.315
2743,-0.245,-0.345
2744,-0.245,-0.335
2745,-0.245,-0.335
2746,-0.235,-0.315
2747,-0.245,-0.345
2748,-0.255,-0.335
2749,-0.255,-0.345
2750,-0.255,-0.315
2751,-0.245,-0.335
2752,-0.245,-0.335
2753,-0.255,-0.325
2754,-0.225,-0.285
2755,-0.245,-0.335
2756,-0.255,-0.335
2757,-0.245,-0.325
2758,-0.255,-0.285
2759,-0.225,-0.315
2760,-0.235,-0.325
2761,-0.245,-0.315
2762,-0.215,-0.285
2763,-0.235,-0.305
2764,-0.225,-0.315
2765,-0.225,-0.295
2766,-0.225,-0.275
2767,-0.215,-0.305
2768,-0.225,-0.305
2769,-0.215,-0.275
2770,-0.165,-0.235
2771,-0.175,-0.245
2772,-0.145,-0.205
2773,-0.085,-0.175
2774,-0.045,-0.125
2775,-0.095,-0.215
2776,-0.135,-0.275
2777,-0.165,-0.295
2778,-0.185,-0.305
2779,-0.215,-0.315
2780,-0.235,-0.315
2781,-0.225,-0.305
2782,-0.225,-0.285
2783,-0.215,-0.305
2784,-0.215,-0.295
2785,-0.165,-0.275
2786,-0.375,-0.365
2787,-0.595,-0.105
2788,-0.375,0.205
2789,0.385,-0.105
2790,1.495,-0.215
2791,2.595,0.285
2792,3.125,0.235
2793,1.455,-1.115
2794,-0.475,-1.115
2795,-0.915,-0.765
2796,-0.705,-0.495
2797,-0.515,-0.255
2798,-0.225,0.015
2799,-0.185,0.015
2800,-0.175,0.025
2801,-0.165,0.035
2802,-0.085,0.095
2803,-0.105,0.115
2804,-0.095,0.135
2805,-0.065,0.145
2806,-0.055,0.175
2807,-0.025,0.225
2808,-0.015,0.245
2809,0.025,0.305
2810,0.085,0.365
2811,0.085,0.395
2812,0.135,0.455
2813,0.185,0.525
2814,0.235,0.635
2815,0.295,0.705
2816,0.375,0.795
2817,0.445,0.885
2818,0.565,1.005
2819,0.625,1.035
2820,0.705,1.065
2821,0.775,1.035
2822,0.805,0.975
2823,0.805,0.855
2824,0.765,0.695
2825,0.685,0.505
2826,0.535,0.325
2827,0.325,0.125
2828,0.175,0.015
2829,0.035,-0.115
2830,-0.055,-0.185
2831,-0.135,-0.225
2832,-0.175,-0.265
2833,-0.215,-0.275
2834,-0.175,-0.275
2835,-0.215,-0.295
2836,-0.225,-0.305
2837,-0.235,-0.295
2838,-0.235,-0.275
2839,-0.225,-0.285
2840,-0.245,-0.295
2841,-0.235,-0.275
2842,-0.205,-0.245
2843,-0.225,-0.275
2844,-0.225,-0.265
2845,-0.235,-0.265
2846,-0.235,-0.255
2847,-0.235,-0.265
2848,-0.245,-0.275
2849,-0.235,-0.275
2850,-0.215,-0.255
2851,-0.235,-0.275
2852,-0.255,-0.305
2853,-0.265,-0.305
2854,-0.265,-0.285
2855,-0.265,-0.295
2856,-0.255,-0.305
2857,-0.275,-0.305
2858,-0.235,-0.305
2859,-0.275,-0.325
2860,-0.275,-0.315
2861,-0.285,-0.325
2862,-0.285,-0.325
2863,-0.295,-0.305
2864,-0.285,-0.325
2865,-0.295,-0.315
2866,-0.255,-0.295
2867,-0.285,-0.305
2868,-0.285,-0.325
2869,-0.275,-0.305
2870,-0.275,-0.305
2871,-0.265,-0.295
2872,-0.285,-0.295
2873,-0.265,-0.285
2874,-0.235,-0.295
2875,-0.265,-0.285
2876,-0.275,-0.285
2877,-0.265,-0.295
2878,-0.265,-0.255
2879,-0.255,-0.285
2880,-0.255,-0.285
2881,-0.255,-0.285
2882,-0.215,-0.265
2883,-0.245,-0.265
2884,-0.245,-0.265
2885,-0.225,-0.255
2886,-0.225,-0.265
2887,-0.245,-0.255
2888,-0.225,-0.225
2889,-0.205,-0.225
2890,-0.175,-0.195
2891,-0.135,-0.145
2892,-0.105,-0.145
2893,-0.065,-0.115
2894,-0.095,-0.165
2895,-0.155,-0.205
2896,-0.165,-0.245
2897,-0.185,-0.265
2898,-0.205,-0.245
2899,-0.235,-0.265
2900,-0.235,-0.265
2901,-0.215,-0.255
2902,-0.225,-0.225
2903,-0.215,-0.255
2904,-0.185,-0.235
2905,-0.295,-0.305
2906,-0.545,-0.145
2907,-0.485,0.225
2908,0.195,0.175
2909,1.285,-0.055
2910,2.535,0.415
2911,3.095,0.385
2912,1.485,-1.005
2913,-0.495,-1.055
2914,-0.875,-0.755
2915,-0.745,-0.555
2916,-0.595,-0.335
2917,-0.315,-0.025
2918,-0.175,0.055
2919,-0.175,0.045
2920,-0.165,0.075
2921,-0.115,0.125
2922,-0.065,0.145
2923,-0.075,0.165
2924,-0.075,0.175
2925,-0.035,0.215
2926,-0.035,0.235
2927,0.005,0.295
2928,0.015,0.295
2929,0.065,0.355
2930,0.115,0.425
2931,0.145,0.475
2932,0.175,0.525
2933,0.245,0.615
2934,0.305,0.695
2935,0.375,0.795
2936,0.455,0.875
2937,0.545,0.945
2938,0.665,1.015
2939,0.725,1.035
2940,0.775,1.025
2941,0.805,0.945
2942,0.805,0.845
2943,0.765,0.685
2944,0.645,0.495
2945,0.485,0.335
2946,0.325,0.155
2947,0.145,0.025
2948,0.015,-0.075
2949,-0.065,-0.145
2950,-0.135,-0.165
2951,-0.175,-0.215
2952,-0.205,-0.245
2953,-0.205,-0.235
2954,-0.205,-0.225
2955,-0.235,-0.245
2956,-0.225,-0.255
2957,-0.225,-0.235
2958,-0.245,-0.235
2959,-0.225,-0.225
2960,-0.225,-0.235
2961,-0.235,-0.245
2962,-0.215,-0.195
2963,-0.215,-0.215
2964,-0.215,-0.225
2965,-0.215,-0.215
2966,-0.225,-0.225
2967,-0.225,-0.235
2968,-0.225,-0.225
2969,-0.235,-0.255
2970,-0.215,-0.235
2971,-0.225,-0.225
2972,-0.245,-0.255
2973,-0.255,-0.265
2974,-0.265,-0.255
2975,-0.265,-0.265
2976,-0.275,-0.285
2977,-0.275,-0.275
2978,-0.245,-0.245
2979,-0.265,-0.295
2980,-0.275,-0.295
2981,-0.275,-0.275
2982,-0.295,-0.275
2983,-0.285,-0.275
2984,-0.305,-0.285
2985,-0.285,-0.285
2986,-0.245,-0.255
2987,-0.275,-0.275
2988,-0.285,-0.275
2989,-0.285,-0.285
2990,-0.275,-0.265
2991,-0.255,-0.265
2992,-0.265,-0.275
2993,-0.275,-0.245
2994,-0.225,-0.265
2995,-0.255,-0.275
2996,-0.265,-0.265
2997,-0.265,-0.255
2998,-0.255,-0.245
2999,-0.255,-0.265
3000,-0.245,-0.245
3001,-0.245,-0.235
3002,-0.195,-0.205
3003,-0.195,-0.175
3004,-0.155,-0.155
3005,-0.105,-0.125
3006,-0.105,-0.135
3007,-0.165,-0.225
3008,-0.185,-0.235
3009,-0.215,-0.275
3010,-0.225,-0.245
3011,-0.265,-0.295
3012,-0.275,-0.305
3013,-0.265,-0.275
3014,-0.275,-0.265
3015,-0.245,-0.255
3016,-0.235,-0.265
3017,-0.215,-0.265
3018,-0.505,-0.285
3019,-0.595,0.135
3020,-0.235,0.335
3021,0.665,-0.015
3022,1.925,-0.055
3023,2.765,0.455
3024,2.995,-0.135
3025,0.605,-1.215
3026,-0.755,-0.955
3027,-0.895,-0.675
3028,-0.755,-0.495
3029,-0.555,-0.225
3030,-0.275,0.035
3031,-0.225,0.045
3032,-0.215,0.055
3033,-0.185,0.085
3034,-0.135,0.135
3035,-0.135,0.145
3036,-0.095,0.165
3037,-0.085,0.185
3038,-0.065,0.255
3039,-0.015,0.275
3040,-0.015,0.315
3041,0.045,0.345
3042,0.075,0.395
3043,0.105,0.455
3044,0.115,0.515
3045,0.205,0.615
3046,0.285,0.715
3047,0.335,0.785
3048,0.395,0.845
3049,0.505,0.945
3050,0.605,1.025
3051,0.675,1.035
3052,0.705,1.005
3053,0.735,0.965
3054,0.805,0.885
3055,0.785,0.705
3056,0.655,0.505
3057,0.505,0.305
3058,0.335,0.155
3059,0.115,0.005
3060,0.005,-0.105
3061,-0.115,-0.195
3062,-0.215,-0.235
3063,-0.245,-0.255
3064,-0.265,-0.285
3065,-0.295,-0.305
3066,-0.295,-0.295
3067,-0.315,-0.305
3068,-0.315,-0.305
3069,-0.335,-0.295
3070,-0.335,-0.285
3071,-0.325,-0.285
3072,-0.335,-0.305
3073,-0.325,-0.285
3074,-0.295,-0.255
3075,-0.345,-0.265
3076,-0.325,-0.285
3077,-0.315,-0.265
3078,-0.315,-0.265
3079,-0.315,-0.275
3080,-0.315,-0.275
3081,-0.315,-0.295
3082,-0.285,-0.275
3083,-0.305,-0.285
3084,-0.325,-0.305
3085,-0.335,-0.305
3086,-0.335,-0.305
3087,-0.345,-0.305
3088,-0.335,-0.325
3089,-0.325,-0.315
3090,-0.315,-0.295
3091,-0.345,-0.315
3092,-0.375,-0.335
3093,-0.365,-0.345
3094,-0.365,-0.325
3095,-0.345,-0.325
3096,-0.345,-0.335
3097,-0.355,-0.315
3098,-0.315,-0.315
3099,-0.335,-0.305
3100,-0.335,-0.325
3101,-0.335,-0.345
3102,-0.315,-0.305
3103,-0.345,-0.325
3104,-0.345,-0.315
3105,-0.335,-0.315
3106,-0.295,-0.295
3107,-0.295,-0.305
3108,-0.315,-0.325
3109,-0.315,-0.315
3110,-0.315,-0.305
3111,-0.295,-0.295
3112,-0.325,-0.315
3113,-0.315,-0.315
3114,-0.265,-0.255
3115,-0.305,-0.265
3116,-0.265,-0.225
3117,-0.255,-0.205
3118,-0.215,-0.185
3119,-0.155,-0.165
3120,-0.175,-0.205
3121,-0.225,-0.275
3122,-0.225,-0.275
3123,-0.295,-0.325
3124,-0.315,-0.335
3125,-0.335,-0.335
3126,-0.355,-0.335
3127,-0.325,-0.305
3128,-0.315,-0.345
3129,-0.335,-0.335
3130,-0.285,-0.315
3131,-0.355,-0.345
3132,-0.655,-0.305
3133,-0.595,0.105
3134,0.075,0.075
3135,0.925,-0.415
3136,2.285,-0.135
3137,3.025,-0.135
3138,1.215,-1.245
3139,-0.685,-1.135
3140,-1.015,-0.735
3141,-0.765,-0.445
3142,-0.535,-0.175
3143,-0.265,-0.005
3144,-0.245,-0.025
3145,-0.195,0.005
3146,-0.275,0.065
3147,-0.295,0.075
3148,-0.275,0.085
3149,-0.175,0.125
3150,-0.195,0.155
3151,-0.145,0.185
3152,-0.145,0.205
3153,-0.105,0.235
3154,-0.045,0.315
3155,-0.035,0.345
3156,0.015,0.395
3157,0.045,0.465
3158,0.135,0.535
3159,0.205,0.625
3160,0.175,0.725
3161,0.235,0.815
3162,0.375,0.935
3163,0.465,1.005
3164,0.555,1.045
3165,0.645,1.085
3166,0.675,1.065
3167,0.725,1.015
3168,0.715,0.875
3169,0.715,0.715
3170,0.655,0.495
3171,0.615,0.285
3172,0.385,0.125
3173,-0.025,-0.035
3174,-0.125,-0.145
3175,-0.155,-0.205
3176,-0.255,-0.265
3177,-0.285,-0.295
3178,-0.255,-0.295
3179,-0.295,-0.315
3180,-0.305,-0.345
3181,-0.315,-0.335
3182,-0.335,-0.335
3183,-0.335,-0.325
3184,-0.365,-0.335
3185,-0.335,-0.335
3186,-0.305,-0.295
3187,-0.245,-0.315
3188,-0.295,-0.315
3189,-0.365,-0.295
3190,-0.355,-0.305
3191,-0.275,-0.275
3192,-0.335,-0.325
3193,-0.315,-0.295
3194,-0.235,-0.305
3195,-0.315,-0.315
3196,-0.365,-0.325
3197,-0.315,-0.325
3198,-0.265,-0.335
3199,-0.335,-0.335
3200,-0.355,-0.345
3201,-0.345,-0.355
3202,-0.275,-0.345
3203,-0.325,-0.355
3204,-0.365,-0.365
3205,-0.365,-0.375
3206,-0.365,-0.365
3207,-0.345,-0.365
3208,-0.335,-0.345
3209,-0.355,-0.375
3210,-0.325,-0.345
3211,-0.335,-0.365
3212,-0.285,-0.355
3213,-0.375,-0.345
3214,-0.375,-0.375
3215,-0.335,-0.345
3216,-0.335,-0.345
3217,-0.345,-0.355
3218,-0.295,-0.335
3219,-0.305,-0.345
3220,-0.345,-0.345
3221,-0.305,-0.345
3222,-0.335,-0.335
3223,-0.345,-0.325
3224,-0.315,-0.315
3225,-0.285,-0.325
3226,-0.275,-0.315
3227,-0.275,-0.315
3228,-0.325,-0.335
3229,-0.305,-0.295
3230,-0.285,-0.285
3231,-0.245,-0.255
3232,-0.215,-0.225
3233,-0.175,-0.195
3234,-0.095,-0.155
3235,-0.135,-0.215
3236,-0.195,-0.275
3237,-0.215,-0.315
3238,-0.255,-0.335
3239,-0.285,-0.335
3240,-0.285,-0.345
3241,-0.295,-0.335
3242,-0.255,-0.325
3243,-0.265,-0.315
3244,-0.285,-0.325
3245,-0.225,-0.315
3246,-0.265,-0.335
3247,-0.605,-0.305
3248,-0.645,0.085
3249,-0.075,0.105
3250,0.925,-0.345
3251,2.225,-0.085
3252,2.955,0.275
3253,2.175,-0.865
3254,-0.165,-1.175
3255,-0.915,-0.845
3256,-0.785,-0.585
3257,-0.595,-0.325
3258,-0.275,-0.005
3259,-0.215,-0.005
3260,-0.215,0.005
3261,-0.195,0.005
3262,-0.175,0.065
3263,-0.135,0.105
3264,-0.105,0.125
3265,-0.075,0.135
3266,-0.045,0.175
3267,-0.035,0.225
3268,-0.025,0.245
3269,-0.015,0.265
3270,0.015,0.315
3271,0.095,0.385
3272,0.095,0.445
3273,0.155,0.515
3274,0.255,0.615
3275,0.285,0.675
3276,0.345,0.775
3277,0.415,0.865
3278,0.505,0.965
3279,0.595,1.035
3280,0.705,1.075
3281,0.765,1.045
3282,0.805,1.035
3283,0.815,0.915
3284,0.785,0.745
3285,0.695,0.545
3286,0.545,0.365
3287,0.375,0.185
3288,0.185,0.015
3289,0.065,-0.075
3290,-0.015,-0.155
3291,-0.125,-0.225
3292,-0.185,-0.245
3293,-0.185,-0.255
3294,-0.215,-0.285
3295,-0.235,-0.285
3296,-0.245,-0.305
3297,-0.235,-0.295
3298,-0.215,-0.275
3299,-0.225,-0.275
3300,-0.225,-0.275
3301,-0.215,-0.265
3302,-0.235,-0.275
3303,-0.225,-0.265
3304,-0.215,-0.225
3305,-0.185,-0.265
3306,-0.175,-0.245
3307,-0.205,-0.255
3308,-0.225,-0.255
3309,-0.215,-0.265
3310,-0.225,-0.265
3311,-0.225,-0.255
3312,-0.205,-0.265
3313,-0.235,-0.285
3314,-0.195,-0.275
3315,-0.225,-0.285
3316,-0.225,-0.295
3317,-0.205,-0.295
3318,-0.255,-0.295
3319,-0.275,-0.305
3320,-0.245,-0.305
3321,-0.265,-0.315
3322,-0.255,-0.295
3323,-0.255,-0.305
3324,-0.265,-0.305
3325,-0.275,-0.295
3326,-0.265,-0.295
3327,-0.245,-0.295
3328,-0.255,-0.305
3329,-0.255,-0.305
3330,-0.245,-0.265
3331,-0.245,-0.295
3332,-0.245,-0.275
3333,-0.255,-0.285
3334,-0.245,-0.275
3335,-0.235,-0.255
3336,-0.225,-0.265
3337,-0.245,-0.275
3338,-0.215,-0.255
3339,-0.205,-0.255
3340,-0.245,-0.255
3341,-0.215,-0.265
3342,-0.215,-0.255
3343,-0.215,-0.235
3344,-0.205,-0.245
3345,-0.205,-0.245
3346,-0.205,-0.255
3347,-0.195,-0.245
3348,-0.205,-0.215
3349,-0.195,-0.215
3350,-0.155,-0.175
3351,-0.145,-0.145
3352,-0.095,-0.125
3353,-0.035,-0.095
3354,-0.055,-0.135
3355,-0.105,-0.185
3356,-0.125,-0.215
3357,-0.165,-0.275
3358,-0.185,-0.255
3359,-0.205,-0.235
3360,-0.215,-0.265
3361,-0.205,-0.255
3362,-0.205,-0.245
3363,-0.185,-0.225
3364,-0.155,-0.235
3365,-0.265,-0.305
3366,-0.545,-0.095
3367,-0.445,0.275
3368,0.285,0.075
3369,1.385,-0.185
3370,2.585,0.295
3371,3.135,0.155
3372,1.275,-1.135
3373,-0.545,-1.025
3374,-0.865,-0.645
3375,-0.615,-0.325
3376,-0.365,-0.055
3377,-0.185,0.075
3378,-0.135,0.075
3379,-0.145,0.095
3380,-0.125,0.125
3381,-0.105,0.175
3382,-0.085,0.175
3383,-0.045,0.205
3384,-0.065,0.225
3385,-0.035,0.255
3386,0.045,0.315
3387,0.025,0.345
3388,0.045,0.375
3389,0.095,0.425
3390,0.125,0.495
3391,0.185,0.565
3392,0.235,0.625
3393,0.275,0.705
3394,0.355,0.815
3395,0.435,0.915
3396,0.545,0.995
3397,0.615,1.065
3398,0.685,1.115
3399,0.775,1.105
3400,0.815,1.055
3401,0.825,0.955
3402,0.825,0.855
3403,0.765,0.665
3404,0.625,0.465
3405,0.455,0.265
3406,0.295,0.145
3407,0.125,0.005
3408,0.015,-0.075
3409,-0.065,-0.135
3410,-0.075,-0.165
3411,-0.145,-0.195
3412,-0.155,-0.225
3413,-0.195,-0.225
3414,-0.205,-0.215
3415,-0.185,-0.215
3416,-0.215,-0.225
3417,-0.205,-0.235
3418,-0.175,-0.205
3419,-0.185,-0.195
3420,-0.195,-0.205
3421,-0.185,-0.195
3422,-0.205,-0.195
3423,-0.185,-0.205
3424,-0.195,-0.195
3425,-0.175,-0.195
3426,-0.195,-0.175
3427,-0.195,-0.175
3428,-0.185,-0.225
3429,-0.185,-0.205
3430,-0.205,-0.205
3431,-0.205,-0.215
3432,-0.215,-0.215
3433,-0.205,-0.235
3434,-0.235,-0.235
3435,-0.205,-0.215
3436,-0.225,-0.245
3437,-0.205,-0.245
3438,-0.215,-0.245
3439,-0.225,-0.235
3440,-0.225,-0.225
3441,-0.215,-0.235
3442,-0.195,-0.225
3443,-0.215,-0.245
3444,-0.235,-0.265
3445,-0.225,-0.235
3446,-0.235,-0.255
3447,-0.245,-0.215
3448,-0.225,-0.235
3449,-0.205,-0.245
3450,-0.195,-0.205
3451,-0.205,-0.215
3452,-0.205,-0.235
3453,-0.195,-0.235
3454,-0.215,-0.225
3455,-0.225,-0.215
3456,-0.185,-0.215
3457,-0.195,-0.195
3458,-0.155,-0.195
3459,-0.185,-0.215
3460,-0.205,-0.205
3461,-0.185,-0.215
3462,-0.185,-0.205
3463,-0.175,-0.175
3464,-0.165,-0.175
3465,-0.125,-0.135
3466,-0.095,-0.095
3467,-0.065,-0.095
3468,-0.035,-0.055
3469,-0.025,-0.095
3470,-0.095,-0.165
3471,-0.105,-0.175
3472,-0.145,-0.235
3473,-0.185,-0.225
3474,-0.175,-0.215
3475,-0.175,-0.235
3476,-0.175,-0.215
3477,-0.175,-0.225
3478,-0.185,-0.205
3479,-0.145,-0.185
3480,-0.255,-0.275
3481,-0.525,-0.075
3482,-0.415,0.345
3483,0.225,0.425
3484,1.325,0.025
3485,2.555,0.345
3486,3.115,0.205
3487,1.525,-1.005
3488,-0.435,-1.015
3489,-0.825,-0.765
3490,-0.715,-0.565
3491,-0.605,-0.355
3492,-0.415,-0.095
3493,-0.195,0.085
3494,-0.165,0.085
3495,-0.135,0.105
3496,-0.105,0.135
3497,-0.085,0.165
3498,-0.035,0.205
3499,-0.035,0.225
3500,-0.025,0.225
3501,0.005,0.265
3502,0.015,0.305
3503,0.045,0.335
3504,0.075,0.375
3505,0.115,0.425
3506,0.185,0.485
3507,0.205,0.525
3508,0.255,0.615
3509,0.325,0.705
3510,0.385,0.795
3511,0.475,0.865
3512,0.555,0.925
3513,0.635,0.995
3514,0.745,1.035
3515,0.785,1.025
3516,0.825,0.965
3517,0.845,0.865
3518,0.795,0.725
3519,0.715,0.555
3520,0.565,0.345
3521,0.375,0.185
3522,0.205,0.075
3523,0.065,-0.035
3524,-0.045,-0.105
3525,-0.115,-0.175
3526,-0.165,-0.215
3527,-0.185,-0.205
3528,-0.205,-0.235
3529,-0.215,-0.235
3530,-0.205,-0.225
3531,-0.225,-0.235
3532,-0.235,-0.225
3533,-0.225,-0.225
3534,-0.225,-0.225
3535,-0.225,-0.215
3536,-0.225,-0.235
3537,-0.215,-0.215
3538,-0.215,-0.175
3539,-0.195,-0.225
3540,-0.225,-0.215
3541,-0.215,-0.225
3542,-0.215,-0.215
3543,-0.215,-0.215
3544,-0.215,-0.235
3545,-0.215,-0.235
3546,-0.215,-0.225
3547,-0.225,-0.245
3548,-0.245,-0.245
3549,-0.235,-0.265
3550,-0.245,-0.265
3551,-0.255,-0.255
3552,-0.275,-0.285
3553,-0.275,-0.285
3554,-0.235,-0.265
3555,-0.275,-0.295
3556,-0.275,-0.295
3557,-0.265,-0.275
3558,-0.275,-0.275
3559,-0.265,-0.265
3560,-0.285,-0.295
3561,-0.265,-0.285
3562,-0.235,-0.255
3563,-0.255,-0.285
3564,-0.265,-0.275
3565,-0.265,-0.285
3566,-0.265,-0.275
3567,-0.245,-0.265
3568,-0.255,-0.275
3569,-0.245,-0.285
3570,-0.245,-0.235
3571,-0.215,-0.235
3572,-0.205,-0.215
3573,-0.205,-0.205
3574,-0.165,-0.145
3575,-0.095,-0.125
3576,-0.085,-0.175
3577,-0.145,-0.235
3578,-0.145,-0.235
3579,-0.195,-0.285
3580,-0.245,-0.285
3581,-0.255,-0.295
3582,-0.265,-0.295
3583,-0.255,-0.295
3584,-0.255,-0.275
3585,-0.235,-0.265
3586,-0.195,-0.245
3587,-0.205,-0.285
3588,-0.525,-0.295
3589,-0.615,0.185
3590,-0.135,0.265
3591,0.825,-0.175
3592,2.085,-0.045
3593,2.875,0.455
3594,2.835,-0.455
3595,0.295,-1.195
3596,-0.835,-0.895
3597,-0.845,-0.605
3598,-0.645,-0.355
3599,-0.395,-0.055
3600,-0.205,0.055
3601,-0.185,0.035
3602,-0.145,0.075
3603,-0.135,0.085
3604,-0.125,0.115
3605,-0.095,0.145
3606,-0.065,0.175
3607,-0.045,0.215
3608,-0.025,0.215
3609,-0.015,0.255
3610,0.045,0.315
3611,0.055,0.355
3612,0.095,0.395
3613,0.135,0.445
3614,0.165,0.525
3615,0.225,0.615
3616,0.285,0.685
3617,0.355,0.775
3618,0.455,0.885
3619,0.535,0.965
3620,0.615,1.035
3621,0.705,1.045
3622,0.785,1.055
3623,0.825,0.995
3624,0.845,0.895
3625,0.815,0.745
3626,0.765,0.585
3627,0.615,0.395
3628,0.425,0.195
3629,0.235,0.035
3630,0.075,-0.075
3631,-0.035,-0.135
3632,-0.115,-0.235
3633,-0.155,-0.265
3634,-0.165,-0.255
3635,-0.205,-0.295
3636,-0.215,-0.295
3637,-0.225,-0.315
3638,-0.225,-0.305
3639,-0.235,-0.295
3640,-0.235,-0.295
3641,-0.215,-0.275
3642,-0.205,-0.265
3643,-0.225,-0.295
3644,-0.225,-0.285
3645,-0.215,-0.265
3646,-0.215,-0.255
3647,-0.205,-0.265
3648,-0.205,-0.265
3649,-0.215,-0.275
3650,-0.185,-0.255
3651,-0.185,-0.265
3652,-0.205,-0.285
3653,-0.215,-0.295
3654,-0.205,-0.295
3655,-0.225,-0.305
3656,-0.235,-0.295
3657,-0.235,-0.325
3658,-0.215,-0.325
3659,-0.235,-0.335
3660,-0.265,-0.345
3661,-0.235,-0.335
3662,-0.255,-0.345
3663,-0.245,-0.335
3664,-0.255,-0.325
3665,-0.255,-0.335
3666,-0.235,-0.315
3667,-0.225,-0.315
3668,-0.265,-0.335
3669,-0.255,-0.305
3670,-0.245,-0.325
3671,-0.235,-0.325
3672,-0.235,-0.315
3673,-0.255,-0.315
3674,-0.225,-0.315
3675,-0.265,-0.335
3676,-0.255,-0.305
3677,-0.225,-0.315
3678,-0.265,-0.325
3679,-0.235,-0.305
3680,-0.255,-0.325
3681,-0.255,-0.305
3682,-0.205,-0.265
3683,-0.185,-0.245
3684,-0.185,-0.255
3685,-0.145,-0.195
3686,-0.125,-0.165
3687,-0.065,-0.155
3688,-0.115,-0.255
3689,-0.175,-0.275
3690,-0.155,-0.295
3691,-0.235,-0.335
3692,-0.275,-0.315
3693,-0.275,-0.355
3694,-0.285,-0.335
3695,-0.265,-0.315
3696,-0.265,-0.315
3697,-0.265,-0.305
3698,-0.175,-0.275
3699,-0.415,-0.405
3700,-0.645,-0.075
3701,-0.455,0.245
3702,0.395,-0.155
3703,1.655,-0.155
3704,2.765,0.405
3705,3.125,-0.135
3706,0.845,-1.275
3707,-0.735,-1.025
3708,-0.925,-0.705
3709,-0.695,-0.435
3710,-0.545,-0.185
3711,-0.245,0.015
3712,-0.225,-0.005
3713,-0.205,0.025
3714,-0.165,0.065
3715,-0.175,0.085
3716,-0.145,0.095
3717,-0.115,0.135
3718,-0.055,0.165
3719,-0.125,0.195
3720,-0.085,0.215
3721,-0.005,0.265
3722,0.005,0.335
3723,0.005,0.365
3724,0.045,0.425
3725,0.105,0.485
3726,0.145,0.555
3727,0.215,0.675
3728,0.295,0.765
3729,0.325,0.845
3730,0.515,0.945
3731,0.535,1.025
3732,0.585,1.065
3733,0.715,1.075
3734,0.815,1.065
3735,0.755,0.975
3736,0.755,0.825
3737,0.725,0.655
3738,0.665,0.505
3739,0.485,0.285
3740,0.295,0.095
3741,0.265,-0.035
3742,0.005,-0.115
3743,-0.155,-0.205
3744,-0.165,-0.255
3745,-0.235,-0.285
3746,-0.225,-0.305
3747,-0.235,-0.315
3748,-0.245,-0.335
3749,-0.265,-0.355
3750,-0.235,-0.345
3751,-0.285,-0.325
3752,-0.205,-0.325
3753,-0.285,-0.315
3754,-0.335,-0.285
3755,-0.285,-0.295
3756,-0.275,-0.295
3757,-0.235,-0.325
3758,-0.225,-0.285
3759,-0.235,-0.305
3760,-0.275,-0.295
3761,-0.275,-0.315
3762,-0.205,-0.275
3763,-0.255,-0.295
3764,-0.265,-0.315
3765,-0.135,-0.325
3766,-0.265,-0.325
3767,-0.295,-0.335
3768,-0.275,-0.305
3769,-0.305,-0.335
3770,-0.275,-0.345
3771,-0.295,-0.345
3772,-0.295,-0.375
3773,-0.275,-0.345
3774,-0.255,-0.345
3775,-0.235,-0.345
3776,-0.325,-0.355
3777,-0.305,-0.365
3778,-0.215,-0.365
3779,-0.305,-0.335
3780,-0.285,-0.335
3781,-0.295,-0.355
3782,-0.315,-0.345
3783,-0.305,-0.335
3784,-0.285,-0.345
3785,-0.295,-0.325
3786,-0.295,-0.335
3787,-0.245,-0.335
3788,-0.255,-0.325
3789,-0.335,-0.345
3790,-0.215,-0.315
3791,-0.275,-0.325
3792,-0.285,-0.305
3793,-0.205,-0.325
3794,-0.265,-0.285
3795,-0.295,-0.305
3796,-0.205,-0.305
3797,-0.305,-0.315
3798,-0.205,-0.305
3799,-0.285,-0.275
3800,-0.265,-0.285
3801,-0.135,-0.235
3802,-0.195,-0.205
3803,-0.165,-0.175
3804,-0.115,-0.175
3805,-0.085,-0.165
3806,-0.135,-0.245
3807,-0.155,-0.285
3808,-0.215,-0.315
3809,-0.255,-0.305
3810,-0.205,-0.265
3811,-0.245,-0.305
3812,-0.215,-0.305
3813,-0.265,-0.305
3814,-0.245,-0.275
3815,-0.225,-0.285
3816,-0.245,-0.325
3817,-0.565,-0.235
3818,-0.565,0.215
3819,0.115,0.035
3820,1.305,-0.185
3821,2.595,0.265
3822,3.175,0.265
3823,1.575,-1.095
3824,-0.485,-1.055
3825,-0.925,-0.715
3826,-0.755,-0.425
3827,-0.585,-0.205
3828,-0.275,0.015
3829,-0.225,0.005
3830,-0.225,0.025
3831,-0.185,0.055
3832,-0.145,0.085
3833,-0.135,0.095
3834,-0.085,0.135
3835,-0.095,0.175
3836,-0.095,0.175
3837,-0.005,0.225
3838,-0.055,0.285
3839,-0.005,0.325
3840,0.045,0.345
3841,0.085,0.435
3842,0.125,0.485
3843,0.175,0.565
3844,0.205,0.625
3845,0.315,0.725
3846,0.315,0.825
3847,0.435,0.905
3848,0.505,0.985
3849,0.615,1.045
3850,0.725,1.075
3851,0.795,1.055
3852,0.745,0.965
3853,0.795,0.865
3854,0.775,0.715
3855,0.705,0.515
3856,0.535,0.315
3857,0.375,0.145
3858,0.215,-0.005
3859,0.045,-0.135
3860,-0.025,-0.195
3861,-0.145,-0.245
3862,-0.215,-0.285
3863,-0.245,-0.295
3864,-0.225,-0.305
3865,-0.215,-0.315
3866,-0.205,-0.305
3867,-0.235,-0.305
3868,-0.245,-0.315
3869,-0.235,-0.295
3870,-0.245,-0.305
3871,-0.255,-0.305
3872,-0.245,-0.305
3873,-0.215,-0.285
3874,-0.205,-0.275
3875,-0.205,-0.295
3876,-0.245,-0.285
3877,-0.235,-0.295
3878,-0.235,-0.285
3879,-0.215,-0.275
3880,-0.245,-0.295
3881,-0.205,-0.285
3882,-0.195,-0.285
3883,-0.225,-0.305
3884,-0.255,-0.325
3885,-0.195,-0.315
3886,-0.275,-0.325
3887,-0.245,-0.315
3888,-0.275,-0.325
3889,-0.255,-0.335
3890,-0.215,-0.315
3891,-0.275,-0.335
3892,-0.215,-0.345
3893,-0.255,-0.345
3894,-0.165,-0.335
3895,-0.325,-0.325
3896,-0.305,-0.325
3897,-0.275,-0.325
3898,-0.235,-0.305
3899,-0.245,-0.315
3900,-0.255,-0.315
3901,-0.235,-0.315
3902,-0.275,-0.305
3903,-0.215,-0.295
3904,-0.245,-0.325
3905,-0.255,-0.315
3906,-0.215,-0.285
3907,-0.255,-0.295
3908,-0.245,-0.295
3909,-0.185,-0.295
3910,-0.195,-0.285
3911,-0.255,-0.295
3912,-0.245,-0.265
3913,-0.235,-0.275
3914,-0.155,-0.265
3915,-0.255,-0.255
3916,-0.225,-0.265
3917,-0.185,-0.215
3918,-0.115,-0.175
3919,-0.115,-0.155
3920,-0.055,-0.155
3921,-0.055,-0.135
3922,-0.085,-0.175
3923,-0.095,-0.225
3924,-0.155,-0.285
3925,-0.195,-0.285
3926,-0.195,-0.285
3927,-0.225,-0.265
3928,-0.185,-0.285
3929,-0.195,-0.255
3930,-0.165,-0.255
3931,-0.215,-0.245
3932,-0.175,-0.235
3933,-0.475,-0.245
3934,-0.605,0.145
3935,-0.115,0.355
3936,1.045,-0.045
3937,2.395,0.205
3938,3.025,0.505
3939,2.365,-0.735
3940,-0.125,-1.095
3941,-0.785,-0.805
3942,-0.865,-0.615
3943,-0.755,-0.415
3944,-0.505,-0.175
3945,-0.255,0.015
3946,-0.105,0.065
3947,-0.135,0.065
3948,-0.115,0.075
3949,-0.075,0.115
3950,-0.035,0.155
3951,-0.125,0.165
3952,-0.055,0.185
3953,-0.045,0.225
3954,0.015,0.255
3955,0.085,0.285
3956,0.045,0.305
3957,0.095,0.365
3958,0.055,0.425
3959,0.255,0.465
3960,0.215,0.545
3961,0.175,0.625
3962,0.335,0.725
3963,0.405,0.795
3964,0.535,0.865
3965,0.575,0.935
3966,0.795,0.955
3967,0.755,1.005
3968,0.785,0.965
3969,0.775,0.915
3970,0.815,0.785
3971,0.755,0.615
3972,0.615,0.415
3973,0.435,0.235
3974,0.235,0.115
3975,0.085,0.005
3976,-0.015,-0.105
3977,-0.065,-0.145
3978,-0.095,-0.165
3979,0.005,-0.215
3980,-0.265,-0.245
3981,-0.255,-0.225
3982,-0.275,-0.225
3983,-0.255,-0.225
3984,-0.285,-0.225
3985,-0.225,-0.215
3986,-0.185,-0.205
3987,-0.185,-0.205
3988,-0.215,-0.215
3989,-0.205,-0.205
3990,-0.215,-0.205
3991,-0.215,-0.215
3992,-0.195,-0.205
3993,-0.145,-0.205
3994,-0.215,-0.205
3995,-0.195,-0.205
3996,-0.205,-0.235
3997,-0.225,-0.225
3998,-0.225,-0.215
3999,-0.195,-0.215
4000,-0.245,-0.255
4001,-0.205,-0.255
4002,-0.205,-0.235
4003,-0.265,-0.255
4004,-0.285,-0.265
4005,-0.245,-0.275
4006,-0.245,-0.275
4007,-0.235,-0.275
4008,-0.295,-0.285
4009,-0.305,-0.275
4010,-0.275,-0.265
4011,-0.285,-0.275
4012,-0.295,-0.295
4013,-0.285,-0.285
4014,-0.305,-0.275
4015,-0.275,-0.265
4016,-0.285,-0.285
4017,-0.285,-0.275
4018,-0.265,-0.275
4019,-0.265,-0.265
4020,-0.295,-0.295
4021,-0.305,-0.275
4022,-0.295,-0.265
4023,-0.295,-0.265
4024,-0.265,-0.275
4025,-0.275,-0.265
4026,-0.255,-0.255
4027,-0.265,-0.255
4028,-0.265,-0.275
4029,-0.255,-0.255
4030,-0.275,-0.255
4031,-0.275,-0.255
4032,-0.295,-0.295
4033,-0.235,-0.245
4034,-0.215,-0.195
4035,-0.225,-0.185
4036,-0.225,-0.175
4037,-0.165,-0.155
4038,-0.105,-0.115
4039,-0.115,-0.155
4040,-0.175,-0.225
4041,-0.225,-0.245
4042,-0.195,-0.265
4043,-0.265,-0.295
4044,-0.275,-0.275
4045,-0.275,-0.275
4046,-0.265,-0.275
4047,-0.275,-0.255
4048,-0.235,-0.255
4049,-0.225,-0.245
4050,-0.365,-0.305
4051,-0.625,-0.075
4052,-0.485,0.285
4053,0.385,0.145
4054,1.555,-0.145
4055,2.675,0.285
4056,3.165,0.085
4057,0.895,-1.125
4058,-0.705,-0.955
4059,-0.945,-0.675
4060,-0.775,-0.475
4061,-0.575,-0.215
4062,-0.305,0.045
4063,-0.245,0.055
4064,-0.215,0.055
4065,-0.215,0.085
4066,-0.135,0.115
4067,-0.145,0.145
4068,-0.135,0.155
4069,-0.115,0.175
4070,-0.075,0.225
4071,-0.045,0.255
4072,-0.045,0.275
4073,-0.015,0.325
4074,0.055,0.405
4075,0.075,0.445
4076,0.105,0.495
4077,0.155,0.575
4078,0.215,0.665
4079,0.285,0.725
4080,0.365,0.825
4081,0.425,0.915
4082,0.555,1.025
4083,0.625,1.065
4084,0.705,1.065
4085,0.765,1.055
4086,0.785,0.985
4087,0.805,0.875
4088,0.775,0.695
4089,0.665,0.495
4090,0.505,0.315
4091,0.285,0.125
4092,0.105,0.015
4093,0.025,-0.085
4094,-0.105,-0.175
4095,-0.165,-0.225
4096,-0.225,-0.255
4097,-0.245,-0.285
4098,-0.225,-0.275
4099,-0.265,-0.285
4100,-0.265,-0.295
4101,-0.255,-0.295
4102,-0.245,-0.275
4103,-0.275,-0.295
4104,-0.295,-0.285
4105,-0.275,-0.275
4106,-0.225,-0.235
4107,-0.265,-0.265
4108,-0.255,-0.275
4109,-0.255,-0.265
4110,-0.225,-0.255
4111,-0.245,-0.255
4112,-0.235,-0.245
4113,-0.245,-0.265
4114,-0.205,-0.245
4115,-0.225,-0.255
4116,-0.235,-0.265
4117,-0.245,-0.285
4118,-0.235,-0.265
4119,-0.245,-0.295
4120,-0.235,-0.305
4121,-0.255,-0.305
4122,-0.245,-0.295
4123,-0.285,-0.305
4124,-0.275,-0.325
4125,-0.255,-0.325
4126,-0.275,-0.305
4127,-0.305,-0.315
4128,-0.275,-0.325
4129,-0.285,-0.315
4130,-0.265,-0.325
4131,-0.295,-0.315
4132,-0.265,-0.315
4133,-0.265,-0.315
4134,-0.275,-0.305
4135,-0.285,-0.305
4136,-0.275,-0.305
4137,-0.275,-0.305
4138,-0.255,-0.305
4139,-0.265,-0.295
4140,-0.245,-0.295
4141,-0.295,-0.315
4142,-0.275,-0.295
4143,-0.265,-0.285
4144,-0.255,-0.275
4145,-0.275,-0.305
4146,-0.225,-0.265
4147,-0.235,-0.265
4148,-0.265,-0.285
4149,-0.255,-0.285
4150,-0.245,-0.275
4151,-0.245,-0.275
4152,-0.235,-0.275
4153,-0.235,-0.265
4154,-0.215,-0.265
4155,-0.225,-0.255
4156,-0.215,-0.265
4157,-0.235,-0.275
4158,-0.245,-0.265
4159,-0.215,-0.245
4160,-0.215,-0.255
4161,-0.225,-0.255
4162,-0.215,-0.255
4163,-0.205,-0.235
4164,-0.205,-0.235
4165,-0.175,-0.205
4166,-0.185,-0.185
4167,-0.105,-0.125
4168,-0.075,-0.135
4169,-0.015,-0.115
4170,-0.065,-0.175
4171,-0.135,-0.235
4172,-0.135,-0.255
4173,-0.195,-0.285
4174,-0.215,-0.255
4175,-0.245,-0.275
4176,-0.225,-0.265
4177,-0.205,-0.265
4178,-0.195,-0.255
4179,-0.195,-0.245
4180,-0.165,-0.255
4181,-0.505,-0.295
4182,-0.555,0.155
4183,-0.105,0.285
4184,0.845,-0.195
4185,2.155,-0.095
4186,2.865,0.385
4187,2.715,-0.455
4188,0.175,-1.195
4189,-0.875,-0.885
4190,-0.845,-0.585
4191,-0.615,-0.335
4192,-0.365,-0.075
4193,-0.205,0.055
4194,-0.185,0.055
4195,-0.165,0.085
4196,-0.155,0.095
4197,-0.155,0.125
4198,-0.135,0.155
4199,-0.095,0.185
4200,-0.065,0.215
4201,-0.055,0.215
4202,-0.005,0.275
4203,0.005,0.305
4204,0.035,0.345
4205,0.045,0.405
4206,0.085,0.455
4207,0.145,0.525
4208,0.175,0.605
4209,0.245,0.695
4210,0.355,0.815
4211,0.385,0.875
4212,0.465,0.965
4213,0.565,1.035
4214,0.635,1.095
4215,0.725,1.115
4216,0.785,1.095
4217,0.835,1.015
4218,0.855,0.905
4219,0.785,0.685
4220,0.645,0.475
4221,0.475,0.275
4222,0.285,0.105
4223,0.125,-0.015
4224,-0.005,-0.125
4225,-0.065,-0.185
4226,-0.125,-0.225
4227,-0.195,-0.255
4228,-0.215,-0.285
4229,-0.245,-0.305
4230,-0.255,-0.295
4231,-0.255,-0.305
4232,-0.245,-0.305
4233,-0.255,-0.305
4234,-0.225,-0.275
4235,-0.245,-0.285
4236,-0.245,-0.275
4237,-0.235,-0.275
4238,-0.235,-0.255
4239,-0.225,-0.245
4240,-0.225,-0.255
4241,-0.235,-0.245
4242,-0.195,-0.225
4243,-0.225,-0.255
4244,-0.215,-0.245
4245,-0.215,-0.255
4246,-0.225,-0.255
4247,-0.215,-0.265
4248,-0.215,-0.275
4249,-0.225,-0.275
4250,-0.215,-0.265
4251,-0.235,-0.295
4252,-0.235,-0.305
4253,-0.235,-0.305
4254,-0.255,-0.285
4255,-0.235,-0.305
4256,-0.255,-0.305
4257,-0.265,-0.305
4258,-0.245,-0.315
4259,-0.255,-0.305
4260,-0.275,-0.315
4261,-0.255,-0.305
4262,-0.265,-0.315
4263,-0.265,-0.305
4264,-0.255,-0.305
4265,-0.245,-0.295
4266,-0.235,-0.285
4267,-0.255,-0.305
4268,-0.255,-0.305
4269,-0.245,-0.285
4270,-0.245,-0.275
4271,-0.235,-0.275
4272,-0.245,-0.285
4273,-0.225,-0.285
4274,-0.205,-0.265
4275,-0.225,-0.275
4276,-0.235,-0.285
4277,-0.215,-0.275
4278,-0.235,-0.275
4279,-0.215,-0.265
4280,-0.215,-0.255
4281,-0.215,-0.255
4282,-0.195,-0.245
4283,-0.195,-0.255
4284,-0.215,-0.265
4285,-0.195,-0.235
4286,-0.195,-0.235
4287,-0.195,-0.245
4288,-0.195,-0.245
4289,-0.205,-0.245
4290,-0.175,-0.235
4291,-0.185,-0.235
4292,-0.185,-0.235
4293,-0.185,-0.235
4294,-0.185,-0.215
4295,-0.175,-0.225
4296,-0.185,-0.225
4297,-0.175,-0.225
4298,-0.135,-0.195
4299,-0.175,-0.205
4300,-0.165,-0.215
4301,-0.155,-0.205
4302,-0.165,-0.195
4303,-0.155,-0.195
4304,-0.155,-0.195
4305,-0.165,-0.205
4306,-0.115,-0.185
4307,-0.145,-0.195
4308,-0.145,-0.175
4309,-0.115,-0.175
4310,-0.125,-0.145
4311,-0.095,-0.105
4312,-0.065,-0.105
4313,-0.035,-0.095
4314,-0.015,-0.105
4315,-0.095,-0.215
4316,-0.135,-0.215
4317,-0.105,-0.215
4318,-0.135,-0.185
4319,-0.135,-0.185
4320,-0.155,-0.195
4321,-0.125,-0.195
4322,-0.105,-0.175
4323,-0.125,-0.185
4324,-0.125,-0.195
4325,-0.445,-0.215
4326,-0.485,0.255
4327,-0.005,0.315
4328,0.865,-0.165
4329,2.075,-0.045
4330,2.845,0.515
4331,2.825,-0.295
4332,0.325,-1.155
4333,-0.765,-0.825
4334,-0.735,-0.515
4335,-0.535,-0.245
4336,-0.275,0.025
4337,-0.125,0.125
4338,-0.095,0.135
4339,-0.075,0.145
4340,-0.085,0.165
4341,-0.045,0.195
4342,-0.035,0.225
4343,-0.015,0.255
4344,0.005,0.275
4345,0.025,0.285
4346,0.075,0.345
4347,0.075,0.355
4348,0.085,0.395
4349,0.115,0.445
4350,0.175,0.515
4351,0.195,0.575
4352,0.235,0.635
4353,0.295,0.725
4354,0.385,0.855
4355,0.445,0.935
4356,0.505,1.015
4357,0.605,1.105
4358,0.695,1.175
4359,0.785,1.175
4360,0.825,1.145
4361,0.855,1.075
4362,0.885,0.975
4363,0.845,0.805
4364,0.745,0.585
4365,0.595,0.415
4366,0.415,0.225
4367,0.225,0.065
4368,0.085,-0.055
4369,-0.015,-0.145
4370,-0.065,-0.175
4371,-0.105,-0.205
4372,-0.155,-0.225
4373,-0.165,-0.245
4374,-0.185,-0.255
4375,-0.175,-0.245
4376,-0.175,-0.255
4377,-0.185,-0.245
4378,-0.165,-0.225
4379,-0.175,-0.235
4380,-0.185,-0.235
4381,-0.185,-0.235
4382,-0.175,-0.215
4383,-0.155,-0.215
4384,-0.175,-0.215
4385,-0.175,-0.215
4386,-0.145,-0.195
4387,-0.165,-0.205
4388,-0.175,-0.235
4389,-0.185,-0.225
4390,-0.185,-0.235
4391,-0.175,-0.225
4392,-0.195,-0.245
4393,-0.195,-0.245
4394,-0.175,-0.225
4395,-0.185,-0.265
4396,-0.205,-0.265
4397,-0.205,-0.265
4398,-0.225,-0.265
4399,-0.225,-0.255
4400,-0.225,-0.285
4401,-0.225,-0.285
4402,-0.205,-0.265
4403,-0.225,-0.265
4404,-0.225,-0.285
4405,-0.235,-0.275
4406,-0.215,-0.265
4407,-0.225,-0.265
4408,-0.225,-0.265
4409,-0.225,-0.255
4410,-0.205,-0.245
4411,-0.225,-0.255
4412,-0.215,-0.275
4413,-0.205,-0.255
4414,-0.215,-0.245
4415,-0.205,-0.235
4416,-0.215,-0.245
4417,-0.195,-0.245
4418,-0.175,-0.225
4419,-0.185,-0.235
4420,-0.195,-0.245
4421,-0.195,-0.235
4422,-0.195,-0.225
4423,-0.175,-0.215
4424,-0.185,-0.235
4425,-0.185,-0.225
4426,-0.155,-0.215
4427,-0.165,-0.215
4428,-0.185,-0.215
4429,-0.175,-0.215
4430,-0.165,-0.215
4431,-0.165,-0.205
4432,-0.165,-0.195
4433,-0.165,-0.205
4434,-0.125,-0.185
4435,-0.155,-0.205
4436,-0.175,-0.205
4437,-0.145,-0.175
4438,-0.125,-0.155
4439,-0.135,-0.155
4440,-0.105,-0.115
4441,-0.065,-0.125
4442,-0.015,-0.075
4443,-0.045,-0.145
4444,-0.145,-0.245
4445,-0.145,-0.215
4446,-0.145,-0.195
4447,-0.155,-0.195
4448,-0.165,-0.215
4449,-0.155,-0.195
4450,-0.115,-0.165
4451,-0.125,-0.195
4452,-0.095,-0.175
4453,-0.255,-0.245
4454,-0.505,-0.015
4455,-0.365,0.375
4456,0.385,0.275
4457,1.585,0.075
4458,2.705,0.565
4459,3.175,0.165
4460,1.015,-1.105
4461,-0.575,-0.925
4462,-0.805,-0.665
4463,-0.665,-0.485
4464,-0.505,-0.255
4465,-0.265,0.025
4466,-0.085,0.135
4467,-0.095,0.115
4468,-0.075,0.135
4469,-0.035,0.165
4470,-0.035,0.205
4471,-0.015,0.225
4472,0.005,0.235
4473,0.025,0.265
4474,0.075,0.315
4475,0.075,0.325
4476,0.085,0.345
4477,0.125,0.415
4478,0.155,0.455
4479,0.205,0.525
4480,0.245,0.585
4481,0.315,0.675
4482,0.385,0.765
4483,0.435,0.855
4484,0.495,0.925
4485,0.605,1.005
4486,0.675,1.075
4487,0.775,1.115
4488,0.835,1.105
4489,0.885,1.075
4490,0.935,0.985
4491,0.895,0.825
4492,0.815,0.635
4493,0.675,0.445
4494,0.475,0.265
4495,0.305,0.115
4496,0.145,-0.015
4497,0.015,-0.105
4498,-0.035,-0.135
4499,-0.105,-0.195
4500,-0.155,-0.225
4501,-0.165,-0.235
4502,-0.185,-0.255
4503,-0.205,-0.245
4504,-0.205,-0.235
4505,-0.215,-0.245
4506,-0.195,-0.215
4507,-0.195,-0.235
4508,-0.225,-0.235
4509,-0.195,-0.225
4510,-0.185,-0.225
4511,-0.205,-0.225
4512,-0.185,-0.225
4513,-0.195,-0.225
4514,-0.175,-0.205
4515,-0.195,-0.215
4516,-0.205,-0.235
4517,-0.195,-0.215
4518,-0.195,-0.225
4519,-0.215,-0.225
4520,-0.215,-0.235
4521,-0.225,-0.265
4522,-0.215,-0.225
4523,-0.215,-0.255
4524,-0.245,-0.265
4525,-0.235,-0.265
4526,-0.245,-0.275
4527,-0.255,-0.285
4528,-0.255,-0.285
4529,-0.255,-0.275
4530,-0.255,-0.265
4531,-0.245,-0.275
4532,-0.265,-0.285
4533,-0.265,-0.285
4534,-0.265,-0.275
4535,-0.265,-0.275
4536,-0.275,-0.285
4537,-0.275,-0.275
4538,-0.255,-0.255
4539,-0.265,-0.275
4540,-0.275,-0.275
4541,-0.265,-0.275
4542,-0.255,-0.255
4543,-0.255,-0.255
4544,-0.245,-0.265
4545,-0.255,-0.275
4546,-0.255,-0.265
4547,-0.225,-0.245
4548,-0.255,-0.245
4549,-0.235,-0.255
4550,-0.225,-0.245
4551,-0.235,-0.255
4552,-0.235,-0.245
4553,-0.235,-0.255
4554,-0.235,-0.245
4555,-0.215,-0.235
4556,-0.225,-0.265
4557,-0.235,-0.235
4558,-0.215,-0.215
4559,-0.215,-0.215
4560,-0.205,-0.195
4561,-0.185,-0.165
4562,-0.145,-0.145
4563,-0.125,-0.145
4564,-0.135,-0.215
4565,-0.205,-0.275
4566,-0.195,-0.255
4567,-0.235,-0.275
4568,-0.245,-0.265
4569,-0.235,-0.265
4570,-0.215,-0.245
4571,-0.225,-0.235
4572,-0.205,-0.255
4573,-0.175,-0.225
4574,-0.415,-0.295
4575,-0.585,0.095
4576,-0.305,0.375
4577,0.545,0.035
4578,1.745,-0.055
4579,2.755,0.435
4580,3.065,-0.285
4581,0.565,-1.175
4582,-0.775,-0.885
4583,-0.865,-0.585
4584,-0.655,-0.375
4585,-0.445,-0.075
4586,-0.195,0.085
4587,-0.165,0.085
4588,-0.165,0.085
4589,-0.135,0.115
4590,-0.115,0.145
4591,-0.095,0.175
4592,-0.065,0.195
4593,-0.055,0.225
4594,-0.015,0.265
4595,-0.005,0.275
4596,0.015,0.325
4597,0.035,0.365
4598,0.075,0.415
4599,0.105,0.465
4600,0.145,0.535
4601,0.185,0.615
4602,0.275,0.735
4603,0.335,0.815
4604,0.395,0.905
4605,0.475,0.995
4606,0.555,1.075
4607,0.655,1.145
4608,0.755,1.145
4609,0.805,1.105
4610,0.865,1.055
4611,0.875,0.915
4612,0.815,0.735
4613,0.745,0.555
4614,0.595,0.355
4615,0.385,0.175
4616,0.195,0.005
4617,0.055,-0.095
4618,-0.055,-0.155
4619,-0.115,-0.215
4620,-0.195,-0.285
4621,-0.215,-0.285
4622,-0.215,-0.295
4623,-0.255,-0.305
4624,-0.265,-0.315
4625,-0.265,-0.305
4626,-0.255,-0.285
4627,-0.245,-0.295
4628,-0.275,-0.305
4629,-0.255,-0.305
4630,-0.265,-0.295
4631,-0.255,-0.265
4632,-0.265,-0.285
4633,-0.245,-0.275
4634,-0.245,-0.275
4635,-0.225,-0.275
4636,-0.255,-0.285
4637,-0.245,-0.285
4638,-0.245,-0.275
4639,-0.245,-0.285
4640,-0.255,-0.315
4641,-0.235,-0.295
4642,-0.225,-0.295
4643,-0.245,-0.315
4644,-0.265,-0.315
4645,-0.265,-0.345
4646,-0.275,-0.315
4647,-0.275,-0.325
4648,-0.285,-0.335
4649,-0.285,-0.335
4650,-0.275,-0.325
4651,-0.275,-0.335
4652,-0.285,-0.335
4653,-0.295,-0.345
4654,-0.275,-0.335
4655,-0.285,-0.335
4656,-0.285,-0.335
4657,-0.275,-0.325
4658,-0.285,-0.315
4659,-0.275,-0.335
4660,-0.295,-0.335
4661,-0.265,-0.335
4662,-0.265,-0.325
4663,-0.285,-0.315
4664,-0.265,-0.325
4665,-0.265,-0.315
4666,-0.265,-0.305
4667,-0.255,-0.305
4668,-0.265,-0.325
4669,-0.255,-0.305
4670,-0.245,-0.315
4671,-0.275,-0.295
4672,-0.235,-0.305
4673,-0.235,-0.295
4674,-0.225,-0.285
4675,-0.215,-0.285
4676,-0.235,-0.295
4677,-0.225,-0.285
4678,-0.225,-0.275
4679,-0.225,-0.295
4680,-0.215,-0.275
4681,-0.225,-0.265
4682,-0.175,-0.245
4683,-0.185,-0.225
4684,-0.185,-0.195
4685,-0.125,-0.185
4686,-0.115,-0.175
4687,-0.105,-0.235
4688,-0.175,-0.315
4689,-0.205,-0.295
4690,-0.165,-0.285
4691,-0.205,-0.285
4692,-0.225,-0.295
4693,-0.215,-0.285
4694,-0.205,-0.275
4695,-0.205,-0.265
4696,-0.175,-0.265
4697,-0.185,-0.295
4698,-0.505,-0.195
4699,-0.545,0.265
4700,0.025,0.175
4701,1.115,-0.215
4702,2.345,0.105
4703,3.035,0.245
4704,2.215,-1.075
4705,-0.175,-1.125
4706,-0.865,-0.765
4707,-0.735,-0.495
4708,-0.545,-0.255
4709,-0.265,0.035
4710,-0.165,0.045
4711,-0.145,0.055
4712,-0.135,0.075
4713,-0.095,0.105
4714,-0.075,0.145
4715,-0.065,0.165
4716,-0.045,0.185
4717,-0.025,0.215
4718,-0.015,0.245
4719,0.015,0.285
4720,0.045,0.325
4721,0.065,0.365
4722,0.105,0.425
4723,0.145,0.475
4724,0.185,0.535
4725,0.225,0.615
4726,0.285,0.725
4727,0.355,0.825
4728,0.445,0.905
4729,0.515,1.005
4730,0.595,1.105
4731,0.705,1.135
4732,0.775,1.145
4733,0.835,1.115
4734,0.895,1.045
4735,0.865,0.895
4736,0.845,0.725
4737,0.755,0.495
4738,0.555,0.305
4739,0.355,0.105
4740,0.165,-0.045
4741,0.035,-0.145
4742,-0.065,-0.205
4743,-0.125,-0.245
4744,-0.165,-0.275
4745,-0.195,-0.285
4746,-0.195,-0.295
4747,-0.225,-0.315
4748,-0.215,-0.295
4749,-0.235,-0.305
4750,-0.215,-0.285
4751,-0.225,-0.295
4752,-0.225,-0.285
4753,-0.215,-0.285
4754,-0.205,-0.265
4755,-0.195,-0.255
4756,-0.215,-0.275
4757,-0.205,-0.285
4758,-0.205,-0.265
4759,-0.215,-0.265
4760,-0.205,-0.285
4761,-0.205,-0.275
4762,-0.195,-0.265
4763,-0.205,-0.285
4764,-0.215,-0.285
4765,-0.215,-0.285
4766,-0.235,-0.285
4767,-0.235,-0.295
4768,-0.225,-0.315
4769,-0.225,-0.315
4770,-0.245,-0.305
4771,-0.235,-0.315
4772,-0.245,-0.325
4773,-0.245,-0.325
4774,-0.255,-0.335
4775,-0.255,-0.325
4776,-0.265,-0.315
4777,-0.255,-0.325
4778,-0.245,-0.315
4779,-0.255,-0.325
4780,-0.245,-0.315
4781,-0.265,-0.325
4782,-0.265,-0.315
4783,-0.255,-0.305
4784,-0.255,-0.305
4785,-0.265,-0.325
4786,-0.215,-0.285
4787,-0.245,-0.305
4788,-0.245,-0.305
4789,-0.245,-0.315
4790,-0.225,-0.305
4791,-0.235,-0.295
4792,-0.225,-0.305
4793,-0.215,-0.285
4794,-0.205,-0.275
4795,-0.235,-0.285
4796,-0.235,-0.285
4797,-0.235,-0.295
4798,-0.215,-0.285
4799,-0.205,-0.295
4800,-0.215,-0.275
4801,-0.215,-0.285
4802,-0.235,-0.265
4803,-0.205,-0.265
4804,-0.215,-0.275
4805,-0.205,-0.275
4806,-0.205,-0.265
4807,-0.185,-0.235
4808,-0.205,-0.265
4809,-0.175,-0.205
4810,-0.155,-0.165
4811,-0.105,-0.165
4812,-0.095,-0.175
4813,-0.125,-0.225
4814,-0.205,-0.315
4815,-0.205,-0.275
4816,-0.215,-0.305
4817,-0.215,-0.275
4818,-0.235,-0.275
4819,-0.205,-0.275
4820,-0.225,-0.275
4821,-0.225,-0.275
4822,-0.175,-0.255
4823,-0.235,-0.315
4824,-0.525,-0.205
4825,-0.585,0.255
4826,0.055,0.255
4827,1.105,-0.165
4828,2.355,0.115
4829,3.065,0.115
4830,1.975,-1.155
4831,-0.295,-1.125
4832,-0.925,-0.775
4833,-0.775,-0.555
4834,-0.555,-0.275
4835,-0.275,0.035
4836,-0.195,0.045
4837,-0.165,0.055
4838,-0.135,0.085
4839,-0.155,0.105
4840,-0.125,0.135
4841,-0.095,0.165
4842,-0.065,0.195
4843,-0.035,0.225
4844,-0.035,0.245
4845,-0.005,0.285
4846,0.035,0.325
4847,0.035,0.365
4848,0.085,0.435
4849,0.115,0.485
4850,0.155,0.585
4851,0.215,0.655
4852,0.275,0.745
4853,0.355,0.845
4854,0.465,0.965
4855,0.535,1.055
4856,0.635,1.095
4857,0.715,1.135
4858,0.805,1.135
4859,0.825,1.055
4860,0.855,0.935
4861,0.815,0.765
4862,0.755,0.595
4863,0.605,0.395
4864,0.395,0.175
4865,0.205,0.025
4866,0.065,-0.045
4867,-0.015,-0.135
4868,-0.135,-0.225
4869,-0.175,-0.245
4870,-0.205,-0.285
4871,-0.245,-0.275
4872,-0.245,-0.285
4873,-0.265,-0.305
4874,-0.265,-0.285
4875,-0.245,-0.295
4876,-0.255,-0.295
4877,-0.255,-0.265
4878,-0.265,-0.275
4879,-0.255,-0.265
4880,-0.245,-0.255
4881,-0.255,-0.265
4882,-0.265,-0.245
4883,-0.235,-0.245
4884,-0.245,-0.255
4885,-0.255,-0.255
4886,-0.235,-0.255
4887,-0.245,-0.245
4888,-0.245,-0.265
4889,-0.245,-0.275
4890,-0.245,-0.265
4891,-0.255,-0.285
4892,-0.265,-0.285
4893,-0.255,-0.285
4894,-0.285,-0.305
4895,-0.285,-0.315
4896,-0.275,-0.305
4897,-0.295,-0.295
4898,-0.285,-0.305
4899,-0.285,-0.305
4900,-0.295,-0.315
4901,-0.305,-0.315
4902,-0.285,-0.305
4903,-0.295,-0.315
4904,-0.295,-0.325
4905,-0.295,-0.315
4906,-0.295,-0.295
4907,-0.275,-0.285
4908,-0.305,-0.315
4909,-0.295,-0.305
4910,-0.275,-0.295
4911,-0.305,-0.295
4912,-0.285,-0.295
4913,-0.275,-0.285
4914,-0.295,-0.285
4915,-0.255,-0.275
4916,-0.285,-0.285
4917,-0.275,-0.285
4918,-0.255,-0.275
4919,-0.265,-0.275
4920,-0.265,-0.275
4921,-0.265,-0.265
4922,-0.255,-0.265
4923,-0.245,-0.265
4924,-0.255,-0.265
4925,-0.255,-0.275
4926,-0.225,-0.245
4927,-0.245,-0.245
4928,-0.245,-0.245
4929,-0.245,-0.245
4930,-0.245,-0.245
4931,-0.215,-0.255
4932,-0.235,-0.245
4933,-0.215,-0.225
4934,-0.195,-0.215
4935,-0.195,-0.195
4936,-0.205,-0.165
4937,-0.145,-0.125
4938,-0.105,-0.115
4939,-0.095,-0.175
4940,-0.165,-0.285
4941,-0.215,-0.275
4942,-0.205,-0.255
4943,-0.225,-0.245
4944,-0.225,-0.245
4945,-0.225,-0.245
4946,-0.215,-0.215
4947,-0.205,-0.235
4948,-0.185,-0.225
4949,-0.235,-0.305
4950,-0.545,-0.115
4951,-0.505,0.315
4952,0.155,0.205
4953,1.285,-0.035
4954,2.515,0.395
4955,3.095,0.255
4956,1.805,-1.045
4957,-0.335,-1.055
4958,-0.895,-0.745
4959,-0.755,-0.515
4960,-0.575,-0.285
4961,-0.315,0.005
4962,-0.155,0.105
4963,-0.145,0.085
4964,-0.145,0.105
4965,-0.115,0.145
4966,-0.095,0.165
4967,-0.085,0.185
4968,-0.055,0.205
4969,-0.035,0.235
4970,0.025,0.295
4971,0.025,0.295
4972,0.035,0.345
4973,0.065,0.375
4974,0.105,0.415
4975,0.135,0.495
4976,0.175,0.545
4977,0.235,0.635
4978,0.305,0.745
4979,0.375,0.835
4980,0.445,0.905
4981,0.535,0.985
4982,0.625,1.075
4983,0.725,1.125
4984,0.795,1.125
4985,0.865,1.085
4986,0.875,1.005
4987,0.865,0.845
4988,0.805,0.655
4989,0.665,0.445
4990,0.465,0.275
4991,0.285,0.115
4992,0.135,-0.015
4993,0.025,-0.105
4994,-0.075,-0.145
4995,-0.125,-0.205
4996,-0.185,-0.235
4997,-0.195,-0.245
4998,-0.215,-0.265
4999,-0.245,-0.255
5000,-0.245,-0.265
5001,-0.255,-0.265
5002,-0.235,-0.245
5003,-0.215,-0.245
5004,-0.245,-0.245
5005,-0.235,-0.245
5006,-0.215,-0.235
5007,-0.225,-0.225
5008,-0.225,-0.235
5009,-0.215,-0.245
5010,-0.215,-0.235
5011,-0.195,-0.235
5012,-0.235,-0.245
5013,-0.215,-0.235
5014,-0.215,-0.235
5015,-0.235,-0.255
5016,-0.235,-0.245
5017,-0.235,-0.265
5018,-0.225,-0.265
5019,-0.245,-0.285
5020,-0.255,-0.275
5021,-0.255,-0.285
5022,-0.265,-0.295
5023,-0.285,-0.285
5024,-0.275,-0.285
5025,-0.285,-0.295
5026,-0.285,-0.285
5027,-0.265,-0.295
5028,-0.285,-0.305
5029,-0.285,-0.295
5030,-0.275,-0.295
5031,-0.285,-0.285
5032,-0.295,-0.295
5033,-0.295,-0.295
5034,-0.285,-0.275
5035,-0.275,-0.285
5036,-0.295,-0.305
5037,-0.295,-0.295
5038,-0.265,-0.275
5039,-0.285,-0.275
5040,-0.275,-0.295
5041,-0.275,-0.275
5042,-0.275,-0.255
5043,-0.275,-0.265
5044,-0.275,-0.275
5045,-0.275,-0.285
5046,-0.275,-0.265
5047,-0.275,-0.265
5048,-0.265,-0.275
5049,-0.275,-0.275
5050,-0.245,-0.255
5051,-0.265,-0.265
5052,-0.285,-0.265
5053,-0.285,-0.245
5054,-0.265,-0.245
5055,-0.245,-0.235
5056,-0.245,-0.195
5057,-0.185,-0.155
5058,-0.175,-0.155
5059,-0.165,-0.185
5060,-0.205,-0.285
5061,-0.265,-0.295
5062,-0.255,-0.285
5063,-0.275,-0.265
5064,-0.275,-0.275
5065,-0.285,-0.275
5066,-0.245,-0.255
5067,-0.265,-0.255
5068,-0.275,-0.255
5069,-0.215,-0.245
5070,-0.425,-0.305
5071,-0.635,0.045
5072,-0.445,0.375
5073,0.335,0.165
5074,1.545,-0.035
5075,2.675,0.435
5076,3.155,-0.125
5077,0.945,-1.235
5078,-0.695,-0.975
5079,-0.955,-0.695
5080,-0.795,-0.485
5081,-0.615,-0.225
5082,-0.315,0.035
5083,-0.225,0.045
5084,-0.225,0.055
5085,-0.185,0.085
5086,-0.165,0.115
5087,-0.155,0.135
5088,-0.125,0.155
5089,-0.115,0.185
5090,-0.085,0.225
5091,-0.065,0.255
5092,-0.055,0.285
5093,-0.035,0.315
5094,0.025,0.365
5095,0.045,0.415
5096,0.085,0.495
5097,0.135,0.555
5098,0.185,0.655
5099,0.255,0.725
5100,0.305,0.835
5101,0.415,0.935
5102,0.505,1.015
5103,0.595,1.075
5104,0.675,1.065
5105,0.745,1.055
5106,0.785,1.025
5107,0.825,0.905
5108,0.785,0.725
5109,0.705,0.545
5110,0.575,0.355
5111,0.355,0.175
5112,0.165,0.005
5113,-0.005,-0.115
5114,-0.095,-0.185
5115,-0.185,-0.235
5116,-0.225,-0.275
5117,-0.265,-0.295
5118,-0.265,-0.295
5119,-0.295,-0.305
5120,-0.295,-0.325
5121,-0.305,-0.315
5122,-0.315,-0.295
5123,-0.295,-0.295
5124,-0.325,-0.305
5125,-0.305,-0.305
5126,-0.305,-0.295
5127,-0.305,-0.285
5128,-0.315,-0.285
5129,-0.285,-0.295
5130,-0.295,-0.275
5131,-0.285,-0.255
5132,-0.295,-0.295
5133,-0.285,-0.285
5134,-0.285,-0.285
5135,-0.295,-0.275
5136,-0.295,-0.295
5137,-0.295,-0.295
5138,-0.295,-0.305
5139,-0.285,-0.305
5140,-0.305,-0.325
5141,-0.325,-0.325
5142,-0.305,-0.315
5143,-0.335,-0.325
5144,-0.335,-0.345
5145,-0.345,-0.345
5146,-0.335,-0.325
5147,-0.335,-0.335
5148,-0.345,-0.335
5149,-0.335,-0.345
5150,-0.345,-0.345
5151,-0.355,-0.325
5152,-0.345,-0.345
5153,-0.335,-0.335
5154,-0.335,-0.335
5155,-0.315,-0.325
5156,-0.345,-0.345
5157,-0.335,-0.335
5158,-0.315,-0.325
5159,-0.335,-0.325
5160,-0.335,-0.325
5161,-0.325,-0.335
5162,-0.315,-0.315
5163,-0.315,-0.305
5164,-0.335,-0.325
5165,-0.325,-0.325
5166,-0.295,-0.315
5167,-0.315,-0.305
5168,-0.315,-0.315
5169,-0.315,-0.305
5170,-0.305,-0.295
5171,-0.295,-0.295
5172,-0.305,-0.305
5173,-0.295,-0.295
5174,-0.275,-0.285
5175,-0.305,-0.295
5176,-0.295,-0.285
5177,-0.285,-0.275
5178,-0.295,-0.275
5179,-0.285,-0.285
5180,-0.295,-0.285
5181,-0.275,-0.265
5182,-0.265,-0.255
5183,-0.265,-0.225
5184,-0.225,-0.185
5185,-0.185,-0.185
5186,-0.155,-0.175
5187,-0.195,-0.265
5188,-0.285,-0.315
5189,-0.265,-0.295
5190,-0.305,-0.295
5191,-0.305,-0.295
5192,-0.305,-0.295
5193,-0.295,-0.285
5194,-0.265,-0.255
5195,-0.275,-0.275
5196,-0.265,-0.275
5197,-0.365,-0.345
5198,-0.655,-0.095
5199,-0.535,0.285
5200,0.225,0.045
5201,1.335,-0.165
5202,2.515,0.285
5203,3.085,0.005
5204,1.375,-1.195
5205,-0.585,-1.045
5206,-0.985,-0.725
5207,-0.785,-0.475
5208,-0.605,-0.225
5209,-0.325,0.035
5210,-0.265,0.035
5211,-0.235,0.035
5212,-0.255,0.055
5213,-0.205,0.085
5214,-0.185,0.125
5215,-0.185,0.145
5216,-0.155,0.165
5217,-0.145,0.195
5218,-0.105,0.235
5219,-0.075,0.275
5220,-0.065,0.285
5221,-0.035,0.335
5222,0.015,0.405
5223,0.045,0.465
5224,0.085,0.525
5225,0.145,0.615
5226,0.195,0.715
5227,0.295,0.805
5228,0.345,0.885
5229,0.435,0.975
5230,0.545,1.045
5231,0.605,1.085
5232,0.695,1.085
5233,0.755,1.045
5234,0.775,0.955
5235,0.765,0.805
5236,0.705,0.605
5237,0.585,0.395
5238,0.395,0.195
5239,0.185,0.025
5240,0.025,-0.115
5241,-0.105,-0.185
5242,-0.195,-0.245
5243,-0.225,-0.265
5244,-0.295,-0.315
5245,-0.325,-0.335
5246,-0.315,-0.325
5247,-0.335,-0.325
5248,-0.335,-0.345
5249,-0.345,-0.335
5250,-0.345,-0.305
5251,-0.305,-0.315
5252,-0.335,-0.305
5253,-0.325,-0.315
5254,-0.315,-0.295
5255,-0.325,-0.295
5256,-0.315,-0.285
5257,-0.315,-0.285
5258,-0.305,-0.285
5259,-0.295,-0.285
5260,-0.305,-0.285
5261,-0.315,-0.295
5262,-0.305,-0.305
5263,-0.315,-0.285
5264,-0.315,-0.305
5265,-0.315,-0.315
5266,-0.315,-0.305
5267,-0.325,-0.315
5268,-0.335,-0.325
5269,-0.345,-0.335
5270,-0.355,-0.335
5271,-0.355,-0.325
5272,-0.345,-0.335
5273,-0.345,-0.335
5274,-0.355,-0.335
5275,-0.335,-0.325
5276,-0.365,-0.345
5277,-0.365,-0.345
5278,-0.355,-0.335
5279,-0.345,-0.325
5280,-0.355,-0.345
5281,-0.355,-0.335
5282,-0.335,-0.305
5283,-0.335,-0.325
5284,-0.355,-0.325
5285,-0.335,-0.315
5286,-0.325,-0.325
5287,-0.345,-0.305
5288,-0.335,-0.325
5289,-0.325,-0.315
5290,-0.325,-0.285
5291,-0.325,-0.305
5292,-0.325,-0.295
5293,-0.315,-0.305
5294,-0.325,-0.295
5295,-0.325,-0.285
5296,-0.315,-0.285
5297,-0.315,-0.305
5298,-0.315,-0.275
5299,-0.285,-0.275
5300,-0.305,-0.285
5301,-0.295,-0.275
5302,-0.285,-0.275
5303,-0.305,-0.265
5304,-0.295,-0.275
5305,-0.285,-0.265
5306,-0.285,-0.245
5307,-0.265,-0.255
5308,-0.275,-0.265
5309,-0.275,-0.265
5310,-0.255,-0.255
5311,-0.265,-0.245
5312,-0.265,-0.255
5313,-0.265,-0.255
5314,-0.255,-0.235
5315,-0.245,-0.245
5316,-0.255,-0.245
5317,-0.255,-0.235
5318,-0.235,-0.225
5319,-0.235,-0.215
5320,-0.215,-0.185
5321,-0.205,-0.155
5322,-0.145,-0.115
5323,-0.125,-0.135
5324,-0.145,-0.205
5325,-0.205,-0.275
5326,-0.215,-0.245
5327,-0.225,-0.255
5328,-0.235,-0.255
5329,-0.255,-0.265
5330,-0.225,-0.215
5331,-0.235,-0.225
5332,-0.225,-0.235
5333,-0.205,-0.225
5334,-0.265,-0.285
5335,-0.585,-0.105
5336,-0.515,0.345
5337,0.145,0.145
5338,1.235,-0.105
5339,2.495,0.355
5340,3.095,0.015
5341,1.355,-1.185
5342,-0.505,-1.005
5343,-0.915,-0.665
5344,-0.725,-0.425
5345,-0.545,-0.185
5346,-0.265,0.085
5347,-0.215,0.085
5348,-0.195,0.095
5349,-0.175,0.115
5350,-0.165,0.155
5351,-0.135,0.175
5352,-0.105,0.185
5353,-0.095,0.215
5354,-0.065,0.245
5355,-0.045,0.265
5356,-0.035,0.295
5357,-0.005,0.335
5358,0.035,0.385
5359,0.065,0.455
5360,0.105,0.495
5361,0.135,0.565
5362,0.205,0.655
5363,0.265,0.735
5364,0.315,0.805
5365,0.375,0.895
5366,0.475,1.005
5367,0.545,1.085
5368,0.635,1.125
5369,0.725,1.125
5370,0.785,1.095
5371,0.805,1.005
5372,0.805,0.845
5373,0.755,0.675
5374,0.665,0.485
5375,0.475,0.295
5376,0.285,0.095
5377,0.125,-0.005
5378,0.005,-0.095
5379,-0.085,-0.175
5380,-0.175,-0.235
5381,-0.225,-0.255
5382,-0.245,-0.275
5383,-0.255,-0.265
5384,-0.265,-0.285
5385,-0.265,-0.285
5386,-0.265,-0.265
5387,-0.255,-0.275
5388,-0.265,-0.265
5389,-0.275,-0.255
5390,-0.265,-0.265
5391,-0.255,-0.245
5392,-0.265,-0.255
5393,-0.245,-0.245
5394,-0.235,-0.225
5395,-0.245,-0.245
5396,-0.255,-0.245
5397,-0.235,-0.245
5398,-0.235,-0.245
5399,-0.255,-0.245
5400,-0.255,-0.255
5401,-0.235,-0.255
5402,-0.235,-0.245
5403,-0.245,-0.255
5404,-0.255,-0.285
5405,-0.265,-0.285
5406,-0.295,-0.285
5407,-0.265,-0.275
5408,-0.265,-0.285
5409,-0.285,-0.285
5410,-0.285,-0.265
5411,-0.275,-0.285
5412,-0.295,-0.295
5413,-0.295,-0.285
5414,-0.285,-0.285
5415,-0.285,-0.285
5416,-0.285,-0.295
5417,-0.285,-0.295
5418,-0.265,-0.265
5419,-0.275,-0.265
5420,-0.255,-0.275
5421,-0.275,-0.285
5422,-0.285,-0.265
5423,-0.255,-0.255
5424,-0.275,-0.265
5425,-0.265,-0.265
5426,-0.245,-0.245
5427,-0.245,-0.255
5428,-0.245,-0.245
5429,-0.255,-0.255
5430,-0.255,-0.245
5431,-0.245,-0.255
5432,-0.245,-0.255
5433,-0.235,-0.235
5434,-0.215,-0.225
5435,-0.235,-0.235
5436,-0.245,-0.225
5437,-0.225,-0.235
5438,-0.245,-0.235
5439,-0.225,-0.215
5440,-0.225,-0.225
5441,-0.225,-0.225
5442,-0.195,-0.215
5443,-0.225,-0.225
5444,-0.205,-0.215
5445,-0.205,-0.205
5446,-0.225,-0.215
5447,-0.205,-0.205
5448,-0.215,-0.215
5449,-0.195,-0.225
5450,-0.195,-0.165
5451,-0.185,-0.185
5452,-0.185,-0.185
5453,-0.195,-0.155
5454,-0.145,-0.115
5455,-0.095,-0.085
5456,-0.095,-0.115
5457,-0.115,-0.195
5458,-0.175,-0.225
5459,-0.175,-0.205
5460,-0.195,-0.225
5461,-0.205,-0.205
5462,-0.195,-0.205
5463,-0.205,-0.195
5464,-0.195,-0.205
5465,-0.195,-0.195
5466,-0.165,-0.185
5467,-0.185,-0.245
5468,-0.525,-0.095
5469,-0.505,0.345
5470,0.175,0.245
5471,1.285,-0.005
5472,2.535,0.415
5473,3.135,0.305
5474,1.745,-1.055
5475,-0.405,-1.015
5476,-0.885,-0.695
5477,-0.745,-0.485
5478,-0.545,-0.245
5479,-0.315,0.045
5480,-0.175,0.105
5481,-0.165,0.105
5482,-0.135,0.145
5483,-0.105,0.155
5484,-0.095,0.185
5485,-0.065,0.205
5486,-0.035,0.225
5487,-0.025,0.255
5488,-0.005,0.275
5489,0.005,0.305
5490,0.045,0.365
5491,0.065,0.395
5492,0.105,0.425
5493,0.135,0.485
5494,0.185,0.575
5495,0.235,0.645
5496,0.295,0.735
5497,0.365,0.825
5498,0.445,0.935
5499,0.545,1.015
5500,0.615,1.085
5501,0.715,1.125
5502,0.785,1.135
5503,0.845,1.095
5504,0.855,0.985
5505,0.845,0.865
5506,0.815,0.705
5507,0.695,0.485
5508,0.495,0.285
5509,0.305,0.105
5510,0.125,-0.015
5511,-0.015,-0.095
5512,-0.105,-0.175
5513,-0.155,-0.215
5514,-0.175,-0.235
5515,-0.205,-0.245
5516,-0.225,-0.255
5517,-0.245,-0.265
5518,-0.245,-0.265
5519,-0.235,-0.255
5520,-0.235,-0.255
5521,-0.235,-0.245
5522,-0.205,-0.225
5523,-0.225,-0.245
5524,-0.235,-0.245
5525,-0.215,-0.235
5526,-0.215,-0.235
5527,-0.225,-0.225
5528,-0.215,-0.245
5529,-0.215,-0.235
5530,-0.185,-0.215
5531,-0.205,-0.235
5532,-0.205,-0.235
5533,-0.215,-0.255
5534,-0.235,-0.255
5535,-0.225,-0.255
5536,-0.225,-0.255
5537,-0.235,-0.265
5538,-0.205,-0.245
5539,-0.245,-0.265
5540,-0.245,-0.285
5541,-0.245,-0.265
5542,-0.255,-0.285
5543,-0.255,-0.275
5544,-0.255,-0.285
5545,-0.255,-0.295
5546,-0.215,-0.255
5547,-0.245,-0.285
5548,-0.265,-0.285
5549,-0.265,-0.275
5550,-0.265,-0.275
5551,-0.255,-0.275
5552,-0.255,-0.275
5553,-0.245,-0.265
5554,-0.225,-0.255
5555,-0.235,-0.255
5556,-0.235,-0.265
5557,-0.255,-0.265
5558,-0.245,-0.255
5559,-0.235,-0.255
5560,-0.245,-0.265
5561,-0.245,-0.255
5562,-0.225,-0.235
5563,-0.235,-0.245
5564,-0.235,-0.265
5565,-0.235,-0.245
5566,-0.235,-0.245
5567,-0.225,-0.235
5568,-0.225,-0.245
5569,-0.225,-0.245
5570,-0.195,-0.215
5571,-0.205,-0.215
5572,-0.205,-0.235
5573,-0.205,-0.225
5574,-0.195,-0.225
5575,-0.195,-0.215
5576,-0.215,-0.225
5577,-0.205,-0.215
5578,-0.165,-0.195
5579,-0.165,-0.195
5580,-0.175,-0.215
5581,-0.165,-0.185
5582,-0.135,-0.125
5583,-0.095,-0.115
5584,-0.105,-0.125
5585,-0.105,-0.195
5586,-0.135,-0.255
5587,-0.175,-0.235
5588,-0.205,-0.245
5589,-0.205,-0.225
5590,-0.205,-0.225
5591,-0.195,-0.225
5592,-0.195,-0.225
5593,-0.185,-0.215
5594,-0.125,-0.185
5595,-0.255,-0.265
5596,-0.535,-0.075
5597,-0.425,0.365
5598,0.355,0.415
5599,1.455,0.095
5600,2.585,0.425
5601,3.085,0.245
5602,1.235,-1.035
5603,-0.505,-0.965
5604,-0.845,-0.765
5605,-0.755,-0.585
5606,-0.585,-0.325
5607,-0.365,-0.055
5608,-0.195,0.065
5609,-0.165,0.065
5610,-0.115,0.105
5611,-0.125,0.125
5612,-0.105,0.155
5613,-0.075,0.155
5614,-0.085,0.185
5615,-0.055,0.215
5616,-0.005,0.235
5617,0.005,0.265
5618,0.045,0.335
5619,0.045,0.355
5620,0.075,0.375
5621,0.115,0.425
5622,0.175,0.535
5623,0.245,0.615
5624,0.275,0.655
5625,0.355,0.765
5626,0.435,0.855
5627,0.505,0.935
5628,0.615,1.025
5629,0.695,1.035
5630,0.765,1.045
5631,0.795,0.985
5632,0.825,0.895
5633,0.815,0.745
5634,0.755,0.565
5635,0.575,0.375
5636,0.365,0.185
5637,0.165,0.025
5638,0.015,-0.065
5639,-0.065,-0.145
5640,-0.165,-0.225
5641,-0.215,-0.255
5642,-0.235,-0.255
5643,-0.255,-0.285
5644,-0.285,-0.305
5645,-0.275,-0.285
5646,-0.295,-0.285
5647,-0.275,-0.285
5648,-0.265,-0.285
5649,-0.295,-0.285
5650,-0.265,-0.255
5651,-0.265,-0.265
5652,-0.265,-0.285
5653,-0.295,-0.275
5654,-0.275,-0.265
5655,-0.255,-0.245
5656,-0.255,-0.265
5657,-0.255,-0.265
5658,-0.235,-0.265
5659,-0.285,-0.265
5660,-0.265,-0.265
5661,-0.265,-0.285
5662,-0.295,-0.275
5663,-0.295,-0.295
5664,-0.305,-0.295
5665,-0.275,-0.295
5666,-0.255,-0.305
5667,-0.305,-0.305
5668,-0.335,-0.335
5669,-0.315,-0.325
5670,-0.315,-0.315
5671,-0.315,-0.315
5672,-0.325,-0.335
5673,-0.325,-0.325
5674,-0.305,-0.315
5675,-0.315,-0.305
5676,-0.315,-0.315
5677,-0.315,-0.315
5678,-0.315,-0.305
5679,-0.295,-0.315
5680,-0.305,-0.315
5681,-0.305,-0.305
5682,-0.295,-0.305
5683,-0.295,-0.305
5684,-0.295,-0.305
5685,-0.295,-0.305
5686,-0.285,-0.295
5687,-0.295,-0.295
5688,-0.275,-0.295
5689,-0.285,-0.295
5690,-0.255,-0.285
5691,-0.265,-0.285
5692,-0.275,-0.295
5693,-0.255,-0.285
5694,-0.255,-0.275
5695,-0.255,-0.275
5696,-0.265,-0.275
5697,-0.245,-0.275
5698,-0.215,-0.255
5699,-0.235,-0.265
5700,-0.245,-0.265
5701,-0.215,-0.255
5702,-0.245,-0.265
5703,-0.215,-0.245
5704,-0.195,-0.235
5705,-0.195,-0.225
5706,-0.155,-0.185
5707,-0.155,-0.165
5708,-0.115,-0.155
5709,-0.105,-0.165
5710,-0.095,-0.165
5711,-0.155,-0.255
5712,-0.185,-0.275
5713,-0.165,-0.265
5714,-0.165,-0.245
5715,-0.195,-0.255
5716,-0.195,-0.255
5717,-0.175,-0.255
5718,-0.175,-0.235
5719,-0.165,-0.225
5720,-0.125,-0.225
5721,-0.445,-0.325
5722,-0.525,0.065
5723,-0.115,0.275
5724,0.895,-0.135
5725,2.145,-0.055
5726,2.895,0.515
5727,2.805,-0.145
5728,0.375,-1.155
5729,-0.755,-0.905
5730,-0.715,-0.565
5731,-0.535,-0.315
5732,-0.295,-0.035
5733,-0.145,0.065
5734,-0.125,0.075
5735,-0.105,0.085
5736,-0.095,0.105
5737,-0.065,0.145
5738,-0.005,0.185
5739,-0.005,0.195
5740,-0.005,0.205
5741,0.025,0.235
5742,0.045,0.285
5743,0.075,0.315
5744,0.075,0.335
5745,0.135,0.395
5746,0.185,0.465
5747,0.195,0.525
5748,0.235,0.565
5749,0.285,0.645
5750,0.335,0.755
5751,0.405,0.845
5752,0.505,0.935
5753,0.565,0.995
5754,0.655,1.085
5755,0.775,1.145
5756,0.845,1.145
5757,0.865,1.055
5758,0.885,0.955
5759,0.885,0.815
5760,0.785,0.635
5761,0.655,0.425
5762,0.475,0.235
5763,0.285,0.065
5764,0.105,-0.075
5765,0.005,-0.145
5766,-0.095,-0.215
5767,-0.125,-0.255
5768,-0.175,-0.275
5769,-0.175,-0.295
5770,-0.165,-0.305
5771,-0.205,-0.295
5772,-0.225,-0.305
5773,-0.205,-0.305
5774,-0.205,-0.295
5775,-0.215,-0.285
5776,-0.225,-0.295
5777,-0.205,-0.275
5778,-0.185,-0.265
5779,-0.195,-0.265
5780,-0.205,-0.275
5781,-0.195,-0.275
5782,-0.185,-0.245
5783,-0.215,-0.265
5784,-0.195,-0.265
5785,-0.205,-0.265
5786,-0.175,-0.265
5787,-0.205,-0.275
5788,-0.185,-0.285
5789,-0.185,-0.285
5790,-0.205,-0.275
5791,-0.215,-0.295
5792,-0.185,-0.285
5793,-0.225,-0.305
5794,-0.215,-0.295
5795,-0.215,-0.305
5796,-0.225,-0.315
5797,-0.215,-0.305
5798,-0.245,-0.305
5799,-0.225,-0.295
5800,-0.225,-0.305
5801,-0.225,-0.295
5802,-0.225,-0.295
5803,-0.215,-0.295
5804,-0.215,-0.295
5805,-0.225,-0.295
5806,-0.235,-0.285
5807,-0.205,-0.285
5808,-0.215,-0.285
5809,-0.195,-0.275
5810,-0.215,-0.285
5811,-0.205,-0.275
5812,-0.215,-0.295
5813,-0.215,-0.275
5814,-0.205,-0.265
5815,-0.195,-0.265
5816,-0.205,-0.275
5817,-0.185,-0.265
5818,-0.175,-0.255
5819,-0.195,-0.255
5820,-0.185,-0.265
5821,-0.185,-0.255
5822,-0.185,-0.245
5823,-0.185,-0.245
5824,-0.185,-0.255
5825,-0.165,-0.245
5826,-0.165,-0.225
5827,-0.165,-0.235
5828,-0.175,-0.245
5829,-0.165,-0.235
5830,-0.165,-0.225
5831,-0.185,-0.235
5832,-0.165,-0.225
5833,-0.155,-0.215
5834,-0.115,-0.175
5835,-0.135,-0.155
5836,-0.085,-0.145
5837,-0.055,-0.145
5838,-0.065,-0.165
5839,-0.155,-0.255
5840,-0.165,-0.245
5841,-0.155,-0.245
5842,-0.155,-0.235
5843,-0.175,-0.235
5844,-0.165,-0.245
5845,-0.155,-0.225
5846,-0.155,-0.215
5847,-0.155,-0.225
5848,-0.115,-0.215
5849,-0.455,-0.295
5850,-0.495,0.125
5851,-0.065,0.325
5852,0.825,-0.085
5853,2.035,-0.075
5854,2.835,0.525
5855,2.635,-0.215
5856,0.205,-1.165
5857,-0.795,-0.875
5858,-0.725,-0.535
5859,-0.535,-0.305
5860,-0.275,-0.025
5861,-0.155,0.075
5862,-0.145,0.085
5863,-0.115,0.095
5864,-0.105,0.115
5865,-0.075,0.145
5866,-0.025,0.185
5867,-0.025,0.195
5868,-0.035,0.205
5869,0.005,0.245
5870,0.025,0.285
5871,0.045,0.315
5872,0.075,0.355
5873,0.095,0.415
5874,0.145,0.465
5875,0.185,0.525
5876,0.215,0.585
5877,0.295,0.695
5878,0.355,0.775
5879,0.425,0.865
5880,0.495,0.945
5881,0.565,1.025
5882,0.685,1.105
5883,0.755,1.115
5884,0.815,1.075
5885,0.845,1.025
5886,0.845,0.935
5887,0.825,0.785
5888,0.725,0.595
5889,0.595,0.425
5890,0.425,0.235
5891,0.235,0.075
5892,0.065,-0.065
5893,-0.035,-0.145
5894,-0.125,-0.185
5895,-0.175,-0.235
5896,-0.215,-0.255
5897,-0.225,-0.275
5898,-0.205,-0.265
5899,-0.225,-0.275
5900,-0.255,-0.295
5901,-0.245,-0.295
5902,-0.245,-0.255
5903,-0.235,-0.275
5904,-0.245,-0.285
5905,-0.245,-0.265
5906,-0.215,-0.245
5907,-0.235,-0.255
5908,-0.245,-0.255
5909,-0.225,-0.255
5910,-0.235,-0.245
5911,-0.225,-0.245
5912,-0.245,-0.265
5913,-0.245,-0.255
5914,-0.225,-0.245
5915,-0.245,-0.265
5916,-0.235,-0.265
5917,-0.245,-0.275
5918,-0.245,-0.275
5919,-0.255,-0.285
5920,-0.265,-0.295
5921,-0.275,-0.305
5922,-0.255,-0.285
5923,-0.285,-0.305
5924,-0.275,-0.315
5925,-0.275,-0.295
5926,-0.285,-0.295
5927,-0.275,-0.305
5928,-0.285,-0.315
5929,-0.295,-0.305
5930,-0.265,-0.285
5931,-0.275,-0.285
5932,-0.295,-0.295
5933,-0.285,-0.295
5934,-0.275,-0.285
5935,-0.275,-0.265
5936,-0.275,-0.285
5937,-0.275,-0.285
5938,-0.255,-0.275
5939,-0.265,-0.265
5940,-0.265,-0.285
5941,-0.255,-0.265
5942,-0.275,-0.255
5943,-0.245,-0.255
5944,-0.265,-0.275
5945,-0.255,-0.265
5946,-0.215,-0.235
5947,-0.255,-0.255
5948,-0.255,-0.245
5949,-0.235,-0.255
5950,-0.245,-0.245
5951,-0.245,-0.235
5952,-0.225,-0.235
5953,-0.225,-0.245
5954,-0.205,-0.225
5955,-0.225,-0.235
5956,-0.235,-0.225
5957,-0.235,-0.235
5958,-0.215,-0.225
5959,-0.215,-0.215
5960,-0.225,-0.235
5961,-0.205,-0.225
5962,-0.185,-0.215
5963,-0.225,-0.215
5964,-0.205,-0.215
5965,-0.205,-0.195
5966,-0.205,-0.175
5967,-0.145,-0.115
5968,-0.115,-0.125
5969,-0.105,-0.135
5970,-0.105,-0.195
5971,-0.205,-0.255
5972,-0.205,-0.235
5973,-0.215,-0.245
5974,-0.215,-0.215
5975,-0.215,-0.225
5976,-0.205,-0.225
5977,-0.195,-0.215
5978,-0.175,-0.195
5979,-0.145,-0.195
5980,-0.395,-0.305
5981,-0.575,-0.015
5982,-0.305,0.325
5983,0.555,0.065
5984,1.715,-0.035
5985,2.675,0.475
5986,3.055,0.235
5987,0.865,-1.055
5988,-0.665,-0.955
5989,-0.845,-0.625
5990,-0.655,-0.375
5991,-0.425,-0.115
5992,-0.205,0.075
5993,-0.175,0.095
5994,-0.135,0.115
5995,-0.125,0.125
5996,-0.115,0.145
5997,-0.105,0.165
5998,-0.085,0.195
5999,-0.075,0.215
6000,-0.045,0.235
6001,-0.025,0.275
6002,0.025,0.315
6003,0.025,0.335
6004,0.055,0.385
6005,0.095,0.415
6006,0.125,0.485
6007,0.185,0.565
6008,0.225,0.615
6009,0.285,0.725
6010,0.375,0.805
6011,0.435,0.915
6012,0.515,0.985
6013,0.615,1.065
6014,0.705,1.115
6015,0.765,1.105
6016,0.815,1.045
6017,0.845,0.955
6018,0.835,0.835
6019,0.765,0.655
6020,0.605,0.445
6021,0.435,0.255
6022,0.235,0.105
6023,0.095,-0.015
6024,-0.015,-0.115
6025,-0.115,-0.175
6026,-0.145,-0.215
6027,-0.205,-0.245
6028,-0.225,-0.265
6029,-0.225,-0.265
6030,-0.235,-0.265
6031,-0.235,-0.265
6032,-0.245,-0.275
6033,-0.235,-0.265
6034,-0.225,-0.245
6035,-0.235,-0.255
6036,-0.245,-0.265
6037,-0.235,-0.245
6038,-0.225,-0.235
6039,-0.215,-0.225
6040,-0.225,-0.245
6041,-0.235,-0.245
6042,-0.205,-0.225
6043,-0.215,-0.235
6044,-0.225,-0.255
6045,-0.215,-0.265
6046,-0.215,-0.245
6047,-0.225,-0.245
6048,-0.235,-0.265
6049,-0.225,-0.265
6050,-0.235,-0.265
6051,-0.255,-0.275
6052,-0.245,-0.285
6053,-0.245,-0.275
6054,-0.255,-0.275
6055,-0.255,-0.275
6056,-0.255,-0.295
6057,-0.255,-0.295
6058,-0.225,-0.275
6059,-0.245,-0.285
6060,-0.255,-0.295
6061,-0.265,-0.295
6062,-0.255,-0.275
6063,-0.255,-0.275
6064,-0.255,-0.285
6065,-0.245,-0.285
6066,-0.225,-0.275
6067,-0.235,-0.265
6068,-0.245,-0.265
6069,-0.235,-0.275
6070,-0.265,-0.275
6071,-0.225,-0.265
6072,-0.245,-0.275
6073,-0.235,-0.265
6074,-0.195,-0.245
6075,-0.225,-0.265
6076,-0.225,-0.255
6077,-0.225,-0.265
6078,-0.235,-0.255
6079,-0.215,-0.235
6080,-0.215,-0.255
6081,-0.215,-0.255
6082,-0.185,-0.235
6083,-0.205,-0.245
6084,-0.205,-0.245
6085,-0.205,-0.245
6086,-0.195,-0.225
6087,-0.205,-0.245
6088,-0.215,-0.245
6089,-0.205,-0.215
6090,-0.155,-0.205
6091,-0.165,-0.205
6092,-0.185,-0.195
6093,-0.125,-0.145
6094,-0.105,-0.145
6095,-0.105,-0.145
6096,-0.135,-0.235
6097,-0.175,-0.265
6098,-0.145,-0.235
6099,-0.205,-0.245
6100,-0.195,-0.245
6101,-0.195,-0.255
6102,-0.195,-0.235
6103,-0.185,-0.225
6104,-0.185,-0.215
6105,-0.135,-0.215
6106,-0.415,-0.255
6107,-0.545,0.165
6108,-0.085,0.435
6109,0.935,0.085
6110,2.185,0.175
6111,2.865,0.585
6112,2.725,-0.315
6113,0.145,-1.165
6114,-0.765,-0.855
6115,-0.815,-0.635
6116,-0.695,-0.495
6117,-0.525,-0.245
6118,-0.255,0.025
6119,-0.185,0.055
6120,-0.165,0.065
6121,-0.145,0.065
6122,-0.085,0.125
6123,-0.095,0.125
6124,-0.075,0.145
6125,-0.065,0.165
6126,-0.045,0.205
6127,-0.015,0.235
6128,0.005,0.265
6129,0.025,0.285
6130,0.085,0.355
6131,0.095,0.385
6132,0.125,0.425
6133,0.175,0.495
6134,0.225,0.585
6135,0.285,0.665
6136,0.345,0.735
6137,0.425,0.825
6138,0.535,0.925
6139,0.615,0.975
6140,0.705,1.015
6141,0.765,0.995
6142,0.825,0.955
6143,0.825,0.855
6144,0.815,0.715
6145,0.745,0.545
6146,0.605,0.365
6147,0.375,0.165
6148,0.195,0.015
6149,0.025,-0.105
6150,-0.095,-0.165
6151,-0.145,-0.225
6152,-0.215,-0.265
6153,-0.235,-0.285
6154,-0.225,-0.275
6155,-0.255,-0.305
6156,-0.285,-0.305
6157,-0.275,-0.305
6158,-0.295,-0.295
6159,-0.275,-0.295
6160,-0.275,-0.295
6161,-0.275,-0.285
6162,-0.245,-0.275
6163,-0.255,-0.275
6164,-0.265,-0.285
6165,-0.265,-0.275
6166,-0.265,-0.265
6167,-0.255,-0.265
6168,-0.265,-0.275
6169,-0.235,-0.285
6170,-0.225,-0.265
6171,-0.245,-0.285
6172,-0.265,-0.295
6173,-0.255,-0.305
6174,-0.275,-0.305
6175,-0.275,-0.305
6176,-0.285,-0.325
6177,-0.275,-0.325
6178,-0.275,-0.315
6179,-0.285,-0.325
6180,-0.305,-0.325
6181,-0.295,-0.335
6182,-0.315,-0.335
6183,-0.295,-0.325
6184,-0.305,-0.335
6185,-0.305,-0.335
6186,-0.285,-0.315
6187,-0.295,-0.325
6188,-0.315,-0.335
6189,-0.315,-0.335
6190,-0.315,-0.325
6191,-0.315,-0.315
6192,-0.315,-0.325
6193,-0.295,-0.325
6194,-0.265,-0.295
6195,-0.285,-0.325
6196,-0.315,-0.325
6197,-0.295,-0.315
6198,-0.305,-0.325
6199,-0.295,-0.305
6200,-0.285,-0.305
6201,-0.285,-0.315
6202,-0.265,-0.285
6203,-0.285,-0.295
6204,-0.295,-0.305
6205,-0.295,-0.295
6206,-0.265,-0.285
6207,-0.275,-0.295
6208,-0.285,-0.295
6209,-0.275,-0.295
6210,-0.255,-0.265
6211,-0.255,-0.275
6212,-0.265,-0.285
6213,-0.255,-0.285
6214,-0.245,-0.295
6215,-0.265,-0.275
6216,-0.275,-0.265
6217,-0.235,-0.255
6218,-0.205,-0.215
6219,-0.235,-0.205
6220,-0.165,-0.185
6221,-0.155,-0.185
6222,-0.165,-0.225
6223,-0.215,-0.295
6224,-0.265,-0.305
6225,-0.225,-0.305
6226,-0.225,-0.265
6227,-0.265,-0.285
6228,-0.265,-0.295
6229,-0.245,-0.275
6230,-0.245,-0.275
6231,-0.245,-0.265
6232,-0.225,-0.255
6233,-0.525,-0.315
6234,-0.595,0.165
6235,-0.165,0.225
6236,0.815,-0.235
6237,2.075,-0.055
6238,2.825,0.455
6239,2.615,-0.575
6240,0.065,-1.195
6241,-0.895,-0.835
6242,-0.805,-0.525
6243,-0.625,-0.295
6244,-0.345,-0.005
6245,-0.245,0.035
6246,-0.225,0.045
6247,-0.205,0.075
6248,-0.185,0.105
6249,-0.175,0.125
6250,-0.115,0.175
6251,-0.115,0.175
6252,-0.105,0.195
6253,-0.075,0.225
6254,-0.055,0.255
6255,-0.035,0.295
6256,-0.005,0.335
6257,0.025,0.385
6258,0.075,0.455
6259,0.095,0.505
6260,0.135,0.585
6261,0.205,0.675
6262,0.265,0.765
6263,0.345,0.875
6264,0.425,0.965
6265,0.525,1.035
6266,0.645,1.125
6267,0.705,1.125
6268,0.755,1.075
6269,0.805,1.015
6270,0.795,0.865
6271,0.765,0.705
6272,0.665,0.505
6273,0.495,0.305
6274,0.335,0.145
6275,0.135,-0.015
6276,-0.025,-0.135
6277,-0.135,-0.205
6278,-0.205,-0.245
6279,-0.255,-0.275
6280,-0.275,-0.295
6281,-0.295,-0.315
6282,-0.275,-0.305
6283,-0.325,-0.325
6284,-0.325,-0.325
6285,-0.305,-0.325
6286,-0.335,-0.325
6287,-0.325,-0.315
6288,-0.315,-0.295
6289,-0.315,-0.305
6290,-0.285,-0.275
6291,-0.295,-0.295
6292,-0.305,-0.285
6293,-0.305,-0.285
6294,-0.285,-0.265
6295,-0.295,-0.275
6296,-0.295,-0.285
6297,-0.285,-0.295
6298,-0.275,-0.265
6299,-0.285,-0.285
6300,-0.295,-0.305
6301,-0.285,-0.295
6302,-0.305,-0.305
6303,-0.305,-0.295
6304,-0.315,-0.325
6305,-0.305,-0.335
6306,-0.265,-0.305
6307,-0.345,-0.325
6308,-0.335,-0.335
6309,-0.335,-0.335
6310,-0.375,-0.335
6311,-0.335,-0.325
6312,-0.325,-0.345
6313,-0.335,-0.325
6314,-0.295,-0.305
6315,-0.285,-0.325
6316,-0.335,-0.325
6317,-0.335,-0.325
6318,-0.345,-0.305
6319,-0.325,-0.305
6320,-0.315,-0.325
6321,-0.305,-0.305
6322,-0.335,-0.295
6323,-0.285,-0.295
6324,-0.295,-0.315
6325,-0.345,-0.325
6326,-0.325,-0.305
6327,-0.315,-0.275
6328,-0.295,-0.295
6329,-0.295,-0.285
6330,-0.265,-0.275
6331,-0.285,-0.275
6332,-0.325,-0.275
6333,-0.265,-0.265
6334,-0.315,-0.285
6335,-0.315,-0.275
6336,-0.305,-0.275
6337,-0.315,-0.275
6338,-0.275,-0.245
6339,-0.315,-0.265
6340,-0.305,-0.265
6341,-0.305,-0.275
6342,-0.315,-0.265
6343,-0.295,-0.245
6344,-0.275,-0.255
6345,-0.305,-0.255
6346,-0.265,-0.245
6347,-0.275,-0.235
6348,-0.315,-0.235
6349,-0.255,-0.235
6350,-0.285,-0.195
6351,-0.245,-0.165
6352,-0.195,-0.165
6353,-0.165,-0.135
6354,-0.175,-0.195
6355,-0.265,-0.295
6356,-0.285,-0.275
6357,-0.265,-0.275
6358,-0.285,-0.245
6359,-0.295,-0.245
6360,-0.295,-0.275
6361,-0.285,-0.255
6362,-0.235,-0.235
6363,-0.255,-0.235
6364,-0.255,-0.245
6365,-0.565,-0.275
6366,-0.645,0.205
6367,-0.165,0.285
6368,0.805,-0.205
6369,2.115,0.025
6370,2.855,0.505
6371,2.745,-0.495
6372,0.225,-1.195
6373,-0.845,-0.885
6374,-0.875,-0.555
6375,-0.675,-0.285
6376,-0.435,-0.005
6377,-0.255,0.075
6378,-0.215,0.105
6379,-0.225,0.105
6380,-0.195,0.145
6381,-0.165,0.155
6382,-0.165,0.185
6383,-0.145,0.205
6384,-0.105,0.225
6385,-0.105,0.265
6386,-0.065,0.305
6387,-0.035,0.335
6388,-0.015,0.365
6389,0.005,0.415
6390,0.065,0.495
6391,0.105,0.535
6392,0.145,0.615
6393,0.205,0.685
6394,0.265,0.805
6395,0.345,0.885
6396,0.415,0.975
6397,0.505,1.075
6398,0.585,1.105
6399,0.675,1.155
6400,0.755,1.125
6401,0.805,1.085
6402,0.825,0.985
6403,0.815,0.805
6404,0.715,0.625
6405,0.585,0.425
6406,0.415,0.225
6407,0.215,0.065
6408,0.055,-0.055
6409,-0.055,-0.135
6410,-0.165,-0.195
6411,-0.225,-0.255
6412,-0.265,-0.275
6413,-0.265,-0.295
6414,-0.285,-0.295
6415,-0.305,-0.295
6416,-0.325,-0.305
6417,-0.305,-0.305
6418,-0.305,-0.275
6419,-0.285,-0.285
6420,-0.295,-0.285
6421,-0.305,-0.285
6422,-0.295,-0.265
6423,-0.285,-0.245
6424,-0.285,-0.275
6425,-0.295,-0.255
6426,-0.275,-0.245
6427,-0.255,-0.245
6428,-0.265,-0.255
6429,-0.285,-0.275
6430,-0.275,-0.275
6431,-0.275,-0.255
6432,-0.275,-0.275
6433,-0.275,-0.275
6434,-0.265,-0.275
6435,-0.265,-0.275
6436,-0.285,-0.295
6437,-0.285,-0.295
6438,-0.285,-0.295
6439,-0.315,-0.305
6440,-0.295,-0.305
6441,-0.295,-0.295
6442,-0.285,-0.275
6443,-0.275,-0.285
6444,-0.305,-0.305
6445,-0.285,-0.285
6446,-0.295,-0.295
6447,-0.295,-0.285
6448,-0.305,-0.295
6449,-0.285,-0.275
6450,-0.265,-0.275
6451,-0.275,-0.275
6452,-0.275,-0.285
6453,-0.275,-0.275
6454,-0.265,-0.265
6455,-0.265,-0.265
6456,-0.265,-0.265
6457,-0.255,-0.265
6458,-0.245,-0.235
6459,-0.245,-0.245
6460,-0.245,-0.265
6461,-0.245,-0.265
6462,-0.235,-0.245
6463,-0.225,-0.235
6464,-0.245,-0.245
6465,-0.215,-0.235
6466,-0.235,-0.225
6467,-0.195,-0.215
6468,-0.235,-0.255
6469,-0.215,-0.235
6470,-0.195,-0.225
6471,-0.215,-0.225
6472,-0.215,-0.235
6473,-0.205,-0.215
6474,-0.195,-0.215
6475,-0.175,-0.205
6476,-0.185,-0.215
6477,-0.165,-0.205
6478,-0.155,-0.195
6479,-0.185,-0.195
6480,-0.165,-0.205
6481,-0.155,-0.205
6482,-0.155,-0.175
6483,-0.135,-0.185
6484,-0.135,-0.175
6485,-0.115,-0.155
6486,-0.105,-0.105
6487,-0.065,-0.105
6488,-0.045,-0.085
6489,-0.025,-0.135
6490,-0.095,-0.235
6491,-0.115,-0.205
6492,-0.125,-0.205
6493,-0.125,-0.195
6494,-0.125,-0.175
6495,-0.125,-0.195
6496,-0.105,-0.215
6497,-0.105,-0.185
6498,-0.085,-0.135
6499,-0.115,-0.235
6500,-0.435,-0.075
6501,-0.425,0.305
6502,0.205,0.245
6503,1.315,-0.005
6504,2.525,0.415
6505,3.035,0.425
6506,2.025,-0.895
6507,-0.155,-0.945
6508,-0.755,-0.675
6509,-0.675,-0.475
6510,-0.515,-0.195
6511,-0.215,0.095
6512,-0.075,0.125
6513,-0.055,0.135
6514,-0.005,0.175
6515,-0.005,0.185
6516,0.015,0.195
6517,0.025,0.235
6518,0.035,0.245
6519,0.065,0.285
6520,0.095,0.325
6521,0.125,0.315
6522,0.155,0.365
6523,0.145,0.415
6524,0.205,0.445
6525,0.215,0.505
6526,0.255,0.555
6527,0.295,0.635
6528,0.365,0.725
6529,0.425,0.805
6530,0.515,0.895
6531,0.605,0.965
6532,0.675,1.035
6533,0.805,1.115
6534,0.875,1.135
6535,0.935,1.095
6536,0.965,1.025
6537,0.945,0.905
6538,0.955,0.755
6539,0.825,0.555
6540,0.615,0.355
6541,0.485,0.205
6542,0.285,0.065
6543,0.145,-0.025
6544,0.065,-0.125
6545,-0.055,-0.165
