'sample interval','ECG0','ECG1'
'0.0078125 sec','mV','mV'
0,0.020,0.010
1,0.010,0.000
2,0.010,0.000
3,0.010,0.000
4,0.010,0.000
5,0.005,0.000
6,0.000,0.000
7,0.000,0.015
8,0.005,0.025
9,0.010,0.025
10,0.010,0.025
11,0.010,0.025
12,0.005,0.025
13,0.005,0.025
14,0.005,0.010
15,0.010,0.000
16,0.010,-0.005
17,0.010,-0.020
18,0.010,-0.030
19,0.010,-0.025
20,0.020,-0.010
21,0.020,0.000
22,0.015,0.000
23,0.010,0.010
24,0.005,0.020
25,0.000,0.020
26,0.000,0.025
27,0.005,0.035
28,0.005,0.025
29,0.000,0.010
30,0.000,0.020
31,0.025,0.080
32,0.100,0.230
33,0.260,0.470
34,0.450,0.710
35,0.525,0.760
36,0.390,0.540
37,0.170,0.200
38,0.035,-0.005
39,0.010,-0.020
40,0.010,0.030
41,0.010,0.050
42,0.010,0.035
43,0.010,0.025
44,0.010,0.025
45,0.005,0.030
46,0.005,0.035
47,0.010,0.040
48,0.010,0.045
49,0.010,0.050
50,0.010,0.050
51,0.015,0.060
52,0.020,0.080
53,0.020,0.065
54,0.020,0.045
55,0.025,0.055
56,0.040,0.085
57,0.045,0.095
58,0.040,0.090
59,0.040,0.090
60,0.055,0.105
61,0.070,0.130
62,0.085,0.150
63,0.090,0.160
64,0.095,0.170
65,0.100,0.175
66,0.095,0.175
67,0.085,0.170
68,0.070,0.150
69,0.055,0.125
70,0.045,0.090
71,0.040,0.075
72,0.040,0.075
73,0.050,0.065
74,0.055,0.050
75,0.055,0.035
76,0.055,0.035
77,0.055,0.040
78,0.060,0.045
79,0.055,0.045
80,0.055,0.045
81,0.050,0.055
82,0.050,0.050
83,0.045,0.030
84,0.035,0.000
85,0.030,0.000
86,0.040,0.000
87,0.060,0.015
88,0.070,0.030
89,0.065,0.025
90,0.060,0.015
91,0.050,0.005
92,0.050,0.000
93,0.050,0.010
94,0.040,0.030
95,0.030,0.055
96,0.030,0.075
97,0.040,0.090
98,0.045,0.095
99,0.045,0.105
100,0.050,0.125
101,0.090,0.210
102,0.200,0.395
103,0.385,0.645
104,0.545,0.835
105,0.540,0.795
106,0.365,0.525
107,0.170,0.225
108,0.075,0.070
109,0.055,0.070
110,0.055,0.110
111,0.055,0.115
112,0.055,0.100
113,0.050,0.095
114,0.045,0.090
115,0.035,0.070
116,0.025,0.055
117,0.025,0.045
118,0.030,0.040
119,0.035,0.040
120,0.040,0.045
121,0.050,0.070
122,0.050,0.080
123,0.045,0.080
124,0.045,0.085
125,0.045,0.085
126,0.045,0.085
127,0.050,0.095
128,0.055,0.095
129,0.055,0.095
130,0.060,0.120
131,0.075,0.135
132,0.080,0.150
133,0.085,0.155
134,0.090,0.160
135,0.085,0.150
136,0.090,0.150
137,0.095,0.145
138,0.090,0.135
139,0.080,0.125
140,0.065,0.120
141,0.065,0.105
142,0.065,0.100
143,0.065,0.090
144,0.060,0.085
145,0.060,0.090
146,0.060,0.105
147,0.060,0.115
148,0.060,0.100
149,0.060,0.090
150,0.060,0.085
151,0.060,0.075
152,0.055,0.050
153,0.050,0.035
154,0.055,0.035
155,0.055,0.065
156,0.055,0.090
157,0.060,0.100
158,0.065,0.100
159,0.065,0.090
160,0.060,0.080
161,0.055,0.085
162,0.050,0.090
163,0.040,0.090
164,0.035,0.085
165,0.025,0.085
166,0.025,0.090
167,0.040,0.115
168,0.055,0.130
169,0.085,0.175
170,0.195,0.340
171,0.390,0.625
172,0.580,0.855
173,0.590,0.830
174,0.400,0.560
175,0.195,0.245
176,0.085,0.075
177,0.045,0.050
178,0.040,0.065
179,0.040,0.085
180,0.050,0.095
181,0.050,0.085
182,0.040,0.080
183,0.035,0.080
184,0.035,0.065
185,0.030,0.050
186,0.025,0.045
187,0.020,0.035
188,0.020,0.025
189,0.015,0.020
190,0.015,0.020
191,0.020,0.030
192,0.030,0.045
193,0.040,0.055
194,0.050,0.055
195,0.050,0.035
196,0.050,0.030
197,0.050,0.035
198,0.055,0.060
199,0.060,0.075
200,0.065,0.080
201,0.075,0.080
202,0.085,0.085
203,0.085,0.080
204,0.080,0.060
205,0.060,0.040
206,0.055,0.030
207,0.060,0.030
208,0.060,0.030
209,0.060,0.030
210,0.060,0.035
211,0.055,0.035
212,0.050,0.035
213,0.050,0.040
214,0.050,0.040
215,0.045,0.055
216,0.035,0.060
217,0.030,0.065
218,0.030,0.065
219,0.040,0.065
220,0.050,0.075
221,0.055,0.080
222,0.055,0.080
223,0.055,0.085
224,0.055,0.080
225,0.050,0.065
226,0.050,0.065
227,0.050,0.075
228,0.050,0.085
229,0.050,0.100
230,0.040,0.110
231,0.030,0.115
232,0.025,0.125
233,0.025,0.130
234,0.025,0.120
235,0.020,0.115
236,0.025,0.125
237,0.085,0.215
238,0.240,0.435
239,0.455,0.720
240,0.590,0.885
241,0.540,0.790
242,0.340,0.490
243,0.150,0.195
244,0.055,0.050
245,0.025,0.025
246,0.015,0.040
247,0.015,0.055
248,0.025,0.065
249,0.040,0.080
250,0.035,0.075
251,0.020,0.075
252,0.015,0.090
253,0.010,0.085
254,0.010,0.060
255,0.010,0.040
256,0.010,0.040
257,0.010,0.025
258,0.005,0.015
259,0.005,0.025
260,0.010,0.055
261,0.020,0.075
262,0.025,0.085
263,0.030,0.095
264,0.030,0.105
265,0.035,0.120
266,0.040,0.125
267,0.045,0.125
268,0.045,0.125
269,0.050,0.125
270,0.055,0.125
271,0.065,0.125
272,0.070,0.125
273,0.070,0.115
274,0.060,0.100
275,0.050,0.080
276,0.040,0.075
277,0.025,0.075
278,0.020,0.075
279,0.020,0.080
280,0.035,0.100
281,0.045,0.130
282,0.050,0.150
283,0.045,0.155
284,0.045,0.160
285,0.040,0.160
286,0.035,0.150
287,0.025,0.115
288,0.020,0.070
289,0.020,0.045
290,0.030,0.045
291,0.040,0.050
292,0.040,0.045
293,0.040,0.040
294,0.040,0.035
295,0.030,0.020
296,0.010,0.010
297,0.010,0.015
298,0.010,0.010
299,0.010,0.005
300,0.010,0.005
301,0.010,0.040
302,0.015,0.060
303,0.015,0.060
304,0.020,0.075
305,0.090,0.180
306,0.250,0.420
307,0.465,0.710
308,0.580,0.830
309,0.480,0.665
310,0.265,0.345
311,0.100,0.090
312,0.030,0.005
313,0.020,0.020
314,0.020,0.040
315,0.015,0.035
316,0.010,0.015
317,0.010,0.000
318,0.000,-0.005
319,0.000,-0.020
320,0.000,-0.025
321,0.000,-0.020
322,0.005,-0.020
323,0.005,-0.025
324,0.005,-0.025
325,0.005,-0.020
326,0.010,-0.020
327,0.005,-0.030
328,0.000,-0.055
329,0.000,-0.080
330,0.005,-0.085
331,0.010,-0.080
332,0.010,-0.070
333,0.015,-0.050
334,0.025,-0.025
335,0.025,-0.010
336,0.025,-0.005
337,0.025,0.000
338,0.045,0.015
339,0.045,0.015
340,0.035,0.005
341,0.030,0.000
342,0.030,-0.005
343,0.030,-0.010
344,0.030,-0.010
345,0.025,-0.025
346,0.020,-0.030
347,0.020,-0.015
348,0.015,0.000
349,0.015,0.005
350,0.010,0.000
351,0.010,0.010
352,0.015,0.020
353,0.015,0.020
354,0.010,0.005
355,0.010,0.005
356,0.010,0.005
357,0.010,0.015
358,0.015,0.025
359,0.020,0.040
360,0.015,0.045
361,0.015,0.050
362,0.015,0.045
363,0.020,0.035
364,0.015,0.025
365,0.005,0.025
366,0.000,0.030
367,0.000,0.035
368,0.000,0.040
369,0.000,0.035
370,0.000,0.025
371,0.000,0.030
372,0.010,0.065
373,0.075,0.185
374,0.230,0.430
375,0.425,0.710
376,0.550,0.835
377,0.470,0.695
378,0.255,0.375
379,0.085,0.095
380,0.015,-0.010
381,0.005,-0.005
382,0.000,0.005
383,0.000,0.000
384,-0.015,0.000
385,-0.020,0.000
386,-0.025,0.005
387,-0.015,0.005
388,0.000,0.010
389,0.000,0.010
390,-0.005,0.000
391,-0.010,-0.005
392,-0.015,-0.015
393,-0.020,-0.035
394,-0.025,-0.060
395,-0.020,-0.065
396,-0.005,-0.065
397,0.000,-0.065
398,0.000,-0.065
399,0.000,-0.070
400,0.000,-0.060
401,0.005,-0.045
402,0.005,-0.035
403,0.010,-0.020
404,0.010,-0.010
405,0.020,-0.005
406,0.025,0.000
407,0.030,0.000
408,0.030,0.000
409,0.020,0.000
410,0.015,-0.010
411,0.010,-0.025
412,0.005,-0.045
413,0.000,-0.055
414,0.000,-0.040
415,0.005,-0.015
416,0.010,-0.005
417,0.010,-0.005
418,0.010,-0.025
419,0.010,-0.045
420,0.010,-0.065
421,0.010,-0.070
422,0.010,-0.075
423,0.010,-0.070
424,0.005,-0.070
425,0.000,-0.075
426,0.000,-0.080
427,0.000,-0.060
428,0.005,-0.035
429,0.010,-0.025
430,0.010,-0.025
431,0.010,-0.025
432,0.010,-0.020
433,0.005,-0.005
434,0.000,-0.005
435,-0.010,-0.020
436,-0.015,-0.025
437,-0.015,-0.010
438,-0.015,-0.005
439,-0.015,0.000
440,-0.005,0.010
441,0.035,0.095
442,0.165,0.300
443,0.360,0.585
444,0.505,0.760
445,0.475,0.675
446,0.285,0.385
447,0.100,0.090
448,0.015,-0.055
449,0.000,-0.065
450,-0.010,-0.030
451,-0.010,-0.010
452,-0.010,-0.010
453,-0.010,-0.025
454,-0.020,-0.045
455,-0.025,-0.065
456,-0.025,-0.070
457,-0.025,-0.065
458,-0.025,-0.055
459,-0.020,-0.055
460,-0.020,-0.075
461,-0.020,-0.090
462,-0.020,-0.105
463,-0.015,-0.105
464,-0.005,-0.095
465,-0.005,-0.075
466,0.000,-0.075
467,0.000,-0.075
468,0.000,-0.065
469,0.005,-0.045
470,0.005,-0.030
471,0.015,-0.015
472,0.025,0.000
473,0.035,0.000
474,0.040,0.005
475,0.030,0.005
476,0.020,0.000
477,0.010,0.000
478,0.010,-0.005
479,0.010,-0.010
480,0.010,-0.025
481,0.010,-0.040
482,0.010,-0.060
483,0.005,-0.080
484,0.005,-0.085
485,0.005,-0.085
486,0.005,-0.090
487,0.000,-0.095
488,0.000,-0.090
489,0.005,-0.070
490,0.010,-0.050
491,0.005,-0.045
492,0.000,-0.050
493,0.000,-0.055
494,0.000,-0.045
495,0.000,-0.035
496,0.005,-0.030
497,0.000,-0.040
498,0.000,-0.050
499,0.005,-0.045
500,0.010,-0.040
501,0.010,-0.045
502,0.005,-0.045
503,0.000,-0.025
504,0.000,-0.020
505,-0.005,-0.015
506,-0.010,-0.010
507,-0.015,0.000
508,-0.025,0.000
509,-0.025,0.010
510,0.000,0.070
511,0.105,0.225
512,0.290,0.475
513,0.470,0.670
514,0.490,0.620
515,0.315,0.330
516,0.105,0.020
517,0.000,-0.120
518,-0.010,-0.090
519,-0.010,-0.025
520,-0.005,-0.010
521,-0.005,-0.025
522,-0.005,-0.045
523,-0.005,-0.035
524,0.000,-0.030
525,-0.005,-0.040
526,-0.015,-0.055
527,-0.015,-0.050
528,-0.005,-0.030
529,-0.005,-0.015
530,-0.005,-0.010
531,-0.005,0.000
532,0.000,0.015
533,0.000,0.025
534,0.000,0.035
535,0.005,0.045
536,0.010,0.055
537,0.010,0.055
538,0.015,0.060
539,0.020,0.075
540,0.030,0.085
541,0.040,0.095
542,0.050,0.105
543,0.045,0.100
544,0.040,0.085
545,0.040,0.060
546,0.035,0.030
547,0.025,0.005
548,0.015,0.000
549,0.010,-0.010
550,0.010,-0.030
551,0.010,-0.035
552,0.010,-0.020
553,0.010,-0.005
554,0.010,0.000
555,0.010,0.000
556,0.010,0.000
557,0.010,0.005
558,0.010,0.010
559,0.010,0.010
560,0.010,0.010
561,0.010,0.000
562,0.010,-0.015
563,0.010,-0.020
564,0.005,-0.040
565,0.000,-0.060
566,0.000,-0.065
567,0.005,-0.050
568,0.010,-0.035
569,0.010,-0.020
570,0.010,-0.015
571,0.005,-0.030
572,0.000,-0.035
573,0.000,-0.025
574,0.000,-0.010
575,-0.010,-0.010
576,-0.015,-0.015
577,-0.020,-0.020
578,-0.020,-0.030
579,-0.010,-0.020
580,0.025,0.030
581,0.120,0.175
582,0.290,0.420
583,0.460,0.640
584,0.495,0.665
585,0.345,0.445
586,0.140,0.150
587,0.020,-0.025
588,-0.010,-0.055
589,-0.010,-0.025
590,0.000,-0.010
591,0.000,-0.005
592,-0.010,0.000
593,-0.020,0.000
594,-0.015,0.000
595,-0.015,0.000
596,-0.015,0.000
597,-0.020,-0.005
598,-0.020,-0.005
599,-0.015,-0.005
600,-0.010,0.000
601,-0.010,0.010
602,-0.010,0.015
603,0.000,0.005
604,0.000,-0.005
605,0.000,-0.015
606,0.000,-0.025
607,0.000,-0.025
608,0.005,-0.020
609,0.010,-0.020
610,0.010,-0.010
611,0.010,0.000
612,0.020,0.000
613,0.030,0.005
614,0.025,0.000
615,0.015,0.000
616,0.015,-0.005
617,0.010,0.000
618,0.010,-0.005
619,0.010,-0.015
620,0.010,-0.025
621,0.010,-0.015
622,0.010,-0.010
623,0.010,-0.015
624,0.010,-0.025
625,0.010,-0.035
626,0.010,-0.030
627,0.010,-0.030
628,0.010,-0.030
629,0.010,-0.035
630,0.005,-0.055
631,0.000,-0.085
632,0.000,-0.110
633,0.000,-0.105
634,0.010,-0.095
635,0.010,-0.095
636,0.010,-0.100
637,0.010,-0.115
638,0.010,-0.110
639,0.005,-0.095
640,0.005,-0.080
641,0.005,-0.040
642,0.000,-0.010
643,-0.010,0.000
644,-0.020,0.000
645,-0.020,0.000
646,-0.005,0.005
647,-0.005,0.005
648,0.005,0.025
649,0.085,0.145
650,0.255,0.390
651,0.450,0.635
652,0.530,0.700
653,0.410,0.515
654,0.205,0.210
655,0.060,-0.010
656,0.005,-0.090
657,0.000,-0.070
658,0.000,-0.035
659,0.000,-0.025
660,-0.005,-0.030
661,-0.010,-0.045
662,-0.015,-0.050
663,-0.015,-0.065
664,-0.020,-0.085
665,-0.025,-0.100
666,-0.020,-0.090
667,-0.015,-0.070
668,-0.010,-0.055
669,-0.005,-0.045
670,0.000,-0.030
671,0.000,-0.025
672,-0.005,-0.035
673,-0.010,-0.040
674,-0.005,-0.030
675,-0.005,-0.015
676,0.000,-0.010
677,0.000,-0.005
678,0.005,0.000
679,0.015,0.010
680,0.020,0.020
681,0.025,0.020
682,0.030,0.025
683,0.030,0.025
684,0.020,0.000
685,0.015,-0.025
686,0.010,-0.040
687,0.010,-0.040
688,0.010,-0.040
689,0.010,-0.040
690,0.010,-0.045
691,0.010,-0.035
692,0.010,-0.020
693,0.010,-0.005
694,0.010,0.000
695,0.010,0.005
696,0.000,0.000
697,0.000,0.000
698,0.000,0.000
699,0.005,-0.005
700,0.010,-0.025
701,0.010,-0.045
702,0.010,-0.045
703,0.010,-0.035
704,0.005,-0.040
705,0.005,-0.045
706,0.005,-0.055
707,0.010,-0.065
708,0.010,-0.060
709,0.005,-0.045
710,0.000,-0.030
711,0.000,-0.015
712,0.000,-0.005
713,-0.005,0.000
714,-0.010,0.010
715,-0.005,0.015
716,0.005,0.050
717,0.085,0.185
718,0.260,0.445
719,0.465,0.720
720,0.555,0.810
721,0.435,0.615
722,0.215,0.270
723,0.050,0.000
724,-0.005,-0.080
725,-0.010,-0.055
726,-0.010,-0.040
727,-0.015,-0.040
728,-0.015,-0.055
729,-0.015,-0.070
730,-0.015,-0.075
731,-0.005,-0.065
732,-0.005,-0.065
733,-0.010,-0.080
734,-0.020,-0.090
735,-0.025,-0.090
736,-0.025,-0.090
737,-0.025,-0.100
738,-0.030,-0.120
739,-0.025,-0.110
740,-0.020,-0.095
741,-0.015,-0.090
742,-0.015,-0.090
743,-0.005,-0.080
744,0.000,-0.065
745,0.000,-0.060
746,0.000,-0.060
747,0.000,-0.060
748,0.005,-0.040
749,0.010,-0.020
750,0.010,-0.005
751,0.015,0.000
752,0.015,0.010
753,0.015,0.005
754,0.010,0.000
755,0.010,-0.015
756,0.005,-0.015
757,0.000,-0.025
758,0.000,-0.040
759,-0.010,-0.045
760,-0.005,-0.045
761,-0.005,-0.045
762,0.000,-0.065
763,0.000,-0.085
764,0.000,-0.095
765,0.000,-0.090
766,0.000,-0.085
767,0.000,-0.085
768,-0.005,-0.095
769,-0.005,-0.105
770,0.000,-0.115
771,0.000,-0.110
772,0.000,-0.100
773,0.000,-0.095
774,0.000,-0.095
775,0.000,-0.100
776,-0.010,-0.090
777,-0.015,-0.070
778,-0.020,-0.060
779,-0.025,-0.055
780,-0.025,-0.055
781,-0.025,-0.070
782,-0.025,-0.075
783,-0.020,-0.070
784,0.000,-0.020
785,0.070,0.120
786,0.230,0.375
787,0.425,0.635
788,0.515,0.725
789,0.415,0.565
790,0.205,0.265
791,0.050,0.020
792,-0.005,-0.055
793,-0.020,-0.030
794,-0.015,0.000
795,-0.015,0.000
796,-0.020,-0.010
797,-0.030,-0.025
798,-0.035,-0.040
799,-0.045,-0.050
800,-0.045,-0.060
801,-0.040,-0.060
802,-0.040,-0.070
803,-0.040,-0.085
804,-0.050,-0.100
805,-0.055,-0.105
806,-0.055,-0.105
807,-0.055,-0.110
808,-0.050,-0.125
809,-0.040,-0.120
810,-0.030,-0.115
811,-0.030,-0.115
812,-0.030,-0.110
813,-0.020,-0.095
814,-0.020,-0.090
815,-0.015,-0.080
816,0.000,-0.050
817,0.005,-0.020
818,0.010,-0.020
819,0.010,-0.030
820,0.010,-0.050
821,0.005,-0.070
822,0.000,-0.090
823,-0.005,-0.100
824,-0.010,-0.105
825,-0.010,-0.105
826,-0.010,-0.110
827,-0.015,-0.110
828,-0.025,-0.110
829,-0.030,-0.100
830,-0.025,-0.095
831,-0.025,-0.095
832,-0.025,-0.095
833,-0.025,-0.095
834,-0.020,-0.095
835,-0.020,-0.095
836,-0.020,-0.105
837,-0.020,-0.110
838,-0.020,-0.105
839,-0.025,-0.095
840,-0.025,-0.090
841,-0.025,-0.080
842,-0.020,-0.070
843,-0.020,-0.065
844,-0.025,-0.065
845,-0.030,-0.065
846,-0.030,-0.055
847,-0.035,-0.050
848,-0.050,-0.050
849,-0.060,-0.050
850,-0.055,-0.045
851,-0.050,-0.040
852,-0.040,-0.015
853,0.000,0.075
854,0.135,0.305
855,0.350,0.610
856,0.510,0.795
857,0.470,0.690
858,0.255,0.360
859,0.060,0.045
860,-0.025,-0.095
861,-0.045,-0.090
862,-0.050,-0.045
863,-0.050,-0.035
864,-0.055,-0.045
865,-0.060,-0.050
866,-0.065,-0.050
867,-0.065,-0.045
868,-0.065,-0.045
869,-0.070,-0.050
870,-0.070,-0.050
871,-0.070,-0.050
872,-0.070,-0.055
873,-0.070,-0.065
874,-0.070,-0.075
875,-0.065,-0.080
876,-0.065,-0.080
877,-0.065,-0.085
878,-0.060,-0.090
879,-0.055,-0.080
880,-0.050,-0.065
881,-0.045,-0.045
882,-0.035,-0.015
883,-0.025,0.000
884,-0.020,0.015
885,-0.015,0.025
886,-0.005,0.025
887,0.000,0.025
888,0.000,0.020
889,-0.010,0.005
890,-0.025,0.000
891,-0.025,0.005
892,-0.025,0.005
893,-0.025,0.000
894,-0.025,0.000
895,-0.035,0.000
896,-0.045,0.000
897,-0.040,0.000
898,-0.035,0.000
899,-0.030,0.000
900,-0.035,-0.010
901,-0.040,-0.015
902,-0.035,-0.010
903,-0.035,-0.015
904,-0.050,-0.040
905,-0.055,-0.055
906,-0.040,-0.055
907,-0.035,-0.055
908,-0.035,-0.055
909,-0.030,-0.055
910,-0.025,-0.045
911,-0.025,-0.045
912,-0.025,-0.065
913,-0.030,-0.085
914,-0.040,-0.090
915,-0.050,-0.080
916,-0.055,-0.065
917,-0.065,-0.065
918,-0.070,-0.065
919,-0.070,-0.050
920,-0.065,-0.025
921,-0.045,0.010
922,0.015,0.115
923,0.160,0.335
924,0.350,0.605
925,0.465,0.730
926,0.385,0.575
927,0.175,0.240
928,0.005,-0.035
929,-0.055,-0.130
930,-0.060,-0.100
931,-0.060,-0.060
932,-0.065,-0.060
933,-0.070,-0.060
934,-0.070,-0.060
935,-0.070,-0.075
936,-0.070,-0.105
937,-0.070,-0.110
938,-0.070,-0.100
939,-0.070,-0.100
940,-0.075,-0.100
941,-0.065,-0.090
942,-0.055,-0.070
943,-0.055,-0.060
944,-0.055,-0.070
945,-0.060,-0.095
946,-0.060,-0.095
947,-0.040,-0.060
948,-0.030,-0.035
949,-0.025,-0.015
950,-0.025,0.000
951,-0.020,0.005
952,-0.010,0.020
953,0.000,0.030
954,0.000,0.035
955,0.000,0.030
956,0.000,0.015
957,0.000,0.000
958,-0.010,-0.030
959,-0.015,-0.065
960,-0.020,-0.090
961,-0.025,-0.090
962,-0.030,-0.090
963,-0.035,-0.090
964,-0.040,-0.090
965,-0.035,-0.075
966,-0.035,-0.065
967,-0.045,-0.080
968,-0.050,-0.085
969,-0.045,-0.075
970,-0.040,-0.075
971,-0.045,-0.070
972,-0.045,-0.070
973,-0.040,-0.075
974,-0.040,-0.085
975,-0.040,-0.100
976,-0.045,-0.110
977,-0.045,-0.130
978,-0.040,-0.135
979,-0.030,-0.135
980,-0.030,-0.130
981,-0.035,-0.125
982,-0.040,-0.120
983,-0.045,-0.100
984,-0.050,-0.075
985,-0.055,-0.065
986,-0.060,-0.060
987,-0.065,-0.055
988,-0.065,-0.055
989,-0.065,-0.055
990,-0.065,-0.045
991,-0.050,-0.015
992,0.000,0.070
993,0.130,0.270
994,0.320,0.500
995,0.430,0.575
996,0.350,0.405
997,0.155,0.105
998,0.000,-0.125
999,-0.050,-0.190
1000,-0.060,-0.140
1001,-0.050,-0.085
1002,-0.050,-0.080
1003,-0.060,-0.095
1004,-0.070,-0.115
1005,-0.070,-0.125
1006,-0.070,-0.110
1007,-0.070,-0.100
1008,-0.070,-0.105
1009,-0.070,-0.115
1010,-0.070,-0.105
1011,-0.060,-0.075
1012,-0.055,-0.050
1013,-0.055,-0.050
1014,-0.055,-0.050
1015,-0.055,-0.055
1016,-0.050,-0.055
1017,-0.045,-0.055
1018,-0.040,-0.045
1019,-0.030,-0.040
1020,-0.020,-0.035
1021,-0.015,-0.025
1022,-0.005,0.000
1023,0.000,0.025
1024,0.000,0.045
1025,0.000,0.045
1026,0.005,0.020
1027,0.000,-0.005
1028,-0.015,-0.025
1029,-0.020,-0.040
1030,-0.025,-0.045
1031,-0.030,-0.045
1032,-0.030,-0.040
1033,-0.035,-0.030
1034,-0.035,-0.030
1035,-0.035,-0.035
1036,-0.035,-0.050
1037,-0.045,-0.070
1038,-0.050,-0.080
1039,-0.045,-0.085
1040,-0.045,-0.100
1041,-0.045,-0.125
1042,-0.050,-0.140
1043,-0.055,-0.160
1044,-0.060,-0.175
1045,-0.055,-0.185
1046,-0.050,-0.185
1047,-0.040,-0.180
1048,-0.035,-0.180
1049,-0.035,-0.170
1050,-0.035,-0.155
1051,-0.035,-0.145
1052,-0.035,-0.140
1053,-0.045,-0.130
1054,-0.060,-0.105
1055,-0.060,-0.070
1056,-0.060,-0.060
1057,-0.070,-0.065
1058,-0.080,-0.080
1059,-0.075,-0.075
1060,-0.065,-0.055
1061,-0.040,-0.020
1062,0.000,0.060
1063,0.125,0.245
1064,0.315,0.495
1065,0.460,0.640
1066,0.405,0.515
1067,0.190,0.195
1068,0.015,-0.095
1069,-0.045,-0.205
1070,-0.055,-0.170
1071,-0.060,-0.110
1072,-0.060,-0.080
1073,-0.060,-0.085
1074,-0.060,-0.095
1075,-0.065,-0.100
1076,-0.070,-0.105
1077,-0.070,-0.125
1078,-0.075,-0.140
1079,-0.070,-0.150
1080,-0.065,-0.145
1081,-0.065,-0.140
1082,-0.070,-0.140
1083,-0.065,-0.140
1084,-0.060,-0.140
1085,-0.055,-0.140
1086,-0.055,-0.150
1087,-0.055,-0.160
1088,-0.060,-0.160
1089,-0.055,-0.160
1090,-0.050,-0.155
1091,-0.035,-0.140
1092,-0.025,-0.130
1093,-0.020,-0.130
1094,-0.015,-0.125
1095,-0.015,-0.115
1096,-0.015,-0.105
1097,-0.020,-0.105
1098,-0.025,-0.115
1099,-0.035,-0.110
1100,-0.030,-0.105
1101,-0.030,-0.105
1102,-0.035,-0.110
1103,-0.045,-0.130
1104,-0.040,-0.135
1105,-0.035,-0.120
1106,-0.035,-0.100
1107,-0.045,-0.090
1108,-0.045,-0.070
1109,-0.045,-0.065
1110,-0.045,-0.070
1111,-0.045,-0.090
1112,-0.045,-0.110
1113,-0.045,-0.140
1114,-0.050,-0.155
1115,-0.055,-0.155
1116,-0.045,-0.125
1117,-0.035,-0.110
1118,-0.035,-0.125
1119,-0.040,-0.150
1120,-0.050,-0.175
1121,-0.050,-0.170
1122,-0.045,-0.145
1123,-0.045,-0.120
1124,-0.055,-0.120
1125,-0.065,-0.130
1126,-0.070,-0.125
1127,-0.060,-0.110
1128,-0.055,-0.090
1129,-0.055,-0.070
1130,-0.025,-0.020
1131,0.065,0.120
1132,0.245,0.360
1133,0.415,0.575
1134,0.440,0.585
1135,0.300,0.365
1136,0.105,0.075
1137,-0.005,-0.105
1138,-0.045,-0.155
1139,-0.055,-0.130
1140,-0.055,-0.125
1141,-0.060,-0.145
1142,-0.070,-0.165
1143,-0.070,-0.170
1144,-0.070,-0.160
1145,-0.070,-0.150
1146,-0.070,-0.160
1147,-0.070,-0.180
1148,-0.070,-0.185
1149,-0.070,-0.175
1150,-0.070,-0.175
1151,-0.075,-0.185
1152,-0.075,-0.185
1153,-0.065,-0.155
1154,-0.060,-0.120
1155,-0.055,-0.095
1156,-0.055,-0.085
1157,-0.060,-0.075
1158,-0.055,-0.065
1159,-0.045,-0.055
1160,-0.030,-0.040
1161,-0.025,-0.040
1162,-0.020,-0.060
1163,-0.020,-0.080
1164,-0.020,-0.090
1165,-0.025,-0.080
1166,-0.025,-0.080
1167,-0.030,-0.080
1168,-0.030,-0.075
1169,-0.030,-0.065
1170,-0.030,-0.065
1171,-0.030,-0.065
1172,-0.030,-0.065
1173,-0.030,-0.070
1174,-0.030,-0.080
1175,-0.035,-0.085
1176,-0.040,-0.075
1177,-0.040,-0.065
1178,-0.035,-0.065
1179,-0.035,-0.075
1180,-0.045,-0.085
1181,-0.050,-0.095
1182,-0.045,-0.100
1183,-0.040,-0.100
1184,-0.035,-0.090
1185,-0.035,-0.075
1186,-0.040,-0.070
1187,-0.040,-0.060
1188,-0.040,-0.060
1189,-0.040,-0.070
1190,-0.035,-0.060
1191,-0.035,-0.045
1192,-0.050,-0.045
1193,-0.060,-0.060
1194,-0.070,-0.065
1195,-0.070,-0.065
1196,-0.060,-0.060
1197,-0.055,-0.045
1198,-0.030,0.000
1199,0.040,0.125
1200,0.215,0.375
1201,0.410,0.630
1202,0.490,0.700
1203,0.370,0.515
1204,0.160,0.200
1205,0.020,-0.040
1206,-0.035,-0.115
1207,-0.050,-0.095
1208,-0.040,-0.075
1209,-0.045,-0.100
1210,-0.055,-0.140
1211,-0.060,-0.160
1212,-0.065,-0.180
1213,-0.070,-0.180
1214,-0.065,-0.150
1215,-0.055,-0.115
1216,-0.055,-0.100
1217,-0.060,-0.095
1218,-0.070,-0.090
1219,-0.065,-0.080
1220,-0.060,-0.060
1221,-0.055,-0.050
1222,-0.050,-0.045
1223,-0.050,-0.040
1224,-0.055,-0.055
1225,-0.050,-0.070
1226,-0.040,-0.065
1227,-0.030,-0.050
1228,-0.025,-0.035
1229,-0.020,-0.030
1230,-0.020,-0.030
1231,-0.015,-0.025
1232,-0.005,-0.015
1233,-0.005,0.000
1234,-0.005,0.000
1235,-0.005,0.000
1236,-0.010,0.005
1237,-0.020,0.005
1238,-0.020,0.005
1239,-0.025,0.005
1240,-0.030,0.010
1241,-0.030,0.005
1242,-0.030,0.000
1243,-0.030,-0.005
1244,-0.030,-0.010
1245,-0.030,-0.025
1246,-0.035,-0.045
1247,-0.035,-0.060
1248,-0.030,-0.065
1249,-0.030,-0.080
1250,-0.035,-0.095
1251,-0.035,-0.095
1252,-0.025,-0.085
1253,-0.025,-0.080
1254,-0.025,-0.070
1255,-0.025,-0.055
1256,-0.020,-0.050
1257,-0.025,-0.060
1258,-0.030,-0.070
1259,-0.035,-0.055
1260,-0.045,-0.045
1261,-0.055,-0.045
1262,-0.060,-0.040
1263,-0.055,-0.030
1264,-0.055,-0.030
1265,-0.055,-0.035
1266,-0.045,-0.015
1267,0.010,0.075
1268,0.160,0.300
1269,0.360,0.575
1270,0.495,0.725
1271,0.450,0.630
1272,0.245,0.330
1273,0.055,0.030
1274,-0.020,-0.110
1275,-0.050,-0.115
1276,-0.050,-0.100
1277,-0.050,-0.105
1278,-0.055,-0.110
1279,-0.055,-0.105
1280,-0.055,-0.095
1281,-0.055,-0.090
1282,-0.055,-0.090
1283,-0.060,-0.095
1284,-0.065,-0.100
1285,-0.070,-0.105
1286,-0.065,-0.110
1287,-0.060,-0.095
1288,-0.060,-0.090
1289,-0.065,-0.090
1290,-0.065,-0.095
1291,-0.060,-0.090
1292,-0.055,-0.075
1293,-0.050,-0.075
1294,-0.040,-0.060
1295,-0.030,-0.035
1296,-0.020,-0.020
1297,-0.015,-0.020
1298,-0.005,-0.030
1299,0.000,-0.040
1300,0.000,-0.035
1301,0.000,-0.035
1302,-0.005,-0.040
1303,-0.015,-0.065
1304,-0.020,-0.090
1305,-0.015,-0.100
1306,-0.010,-0.095
1307,-0.010,-0.100
1308,-0.015,-0.115
1309,-0.020,-0.120
1310,-0.020,-0.115
1311,-0.020,-0.110
1312,-0.025,-0.120
1313,-0.025,-0.125
1314,-0.030,-0.120
1315,-0.035,-0.120
1316,-0.040,-0.115
1317,-0.045,-0.110
1318,-0.040,-0.105
1319,-0.030,-0.105
1320,-0.025,-0.105
1321,-0.020,-0.110
1322,-0.020,-0.110
1323,-0.020,-0.110
1324,-0.020,-0.105
1325,-0.015,-0.100
1326,-0.015,-0.100
1327,-0.020,-0.105
1328,-0.025,-0.105
1329,-0.035,-0.090
1330,-0.045,-0.065
1331,-0.050,-0.035
1332,-0.050,-0.015
1333,-0.055,-0.015
1334,-0.040,-0.015
1335,-0.020,0.005
1336,0.040,0.110
1337,0.190,0.330
1338,0.390,0.585
1339,0.485,0.665
1340,0.380,0.480
1341,0.175,0.165
1342,0.025,-0.070
1343,-0.020,-0.135
1344,-0.030,-0.115
1345,-0.030,-0.100
1346,-0.040,-0.110
1347,-0.050,-0.125
1348,-0.060,-0.130
1349,-0.055,-0.115
1350,-0.045,-0.095
1351,-0.045,-0.090
1352,-0.040,-0.100
1353,-0.040,-0.095
1354,-0.040,-0.095
1355,-0.045,-0.095
1356,-0.050,-0.105
1357,-0.045,-0.120
1358,-0.040,-0.125
1359,-0.030,-0.110
1360,-0.025,-0.090
1361,-0.020,-0.075
1362,-0.015,-0.065
1363,-0.010,-0.060
1364,0.000,-0.040
1365,0.000,-0.005
1366,0.000,0.010
1367,0.005,0.020
1368,0.010,0.025
1369,0.010,0.020
1370,0.010,0.005
1371,0.010,0.005
1372,0.005,0.010
1373,0.000,0.000
1374,0.000,0.000
1375,0.000,-0.015
1376,-0.010,-0.040
1377,-0.020,-0.060
1378,-0.025,-0.070
1379,-0.025,-0.070
1380,-0.020,-0.070
1381,-0.020,-0.070
1382,-0.020,-0.065
1383,-0.020,-0.065
1384,-0.025,-0.065
1385,-0.020,-0.055
1386,-0.015,-0.050
1387,-0.015,-0.055
1388,-0.020,-0.070
1389,-0.025,-0.085
1390,-0.025,-0.100
1391,-0.020,-0.110
1392,-0.020,-0.105
1393,-0.025,-0.095
1394,-0.020,-0.075
1395,-0.010,-0.060
1396,-0.010,-0.060
1397,-0.020,-0.060
1398,-0.030,-0.050
1399,-0.030,-0.050
1400,-0.030,-0.065
1401,-0.035,-0.070
1402,-0.045,-0.060
1403,-0.040,-0.040
1404,-0.035,-0.035
1405,-0.025,-0.005
1406,0.020,0.095
1407,0.170,0.345
1408,0.385,0.635
1409,0.480,0.710
1410,0.355,0.485
1411,0.135,0.130
1412,0.000,-0.085
1413,-0.035,-0.110
1414,-0.035,-0.050
1415,-0.030,-0.020
1416,-0.030,-0.020
1417,-0.030,-0.020
1418,-0.035,-0.025
1419,-0.040,-0.035
1420,-0.045,-0.040
1421,-0.045,-0.025
1422,-0.035,-0.010
1423,-0.035,0.000
1424,-0.035,0.000
1425,-0.030,0.000
1426,-0.030,0.000
1427,-0.030,0.000
1428,-0.020,0.000
1429,-0.020,-0.005
1430,-0.020,-0.010
1431,-0.020,-0.005
1432,-0.015,0.005
1433,-0.010,0.015
1434,-0.005,0.025
1435,0.000,0.040
1436,0.000,0.055
1437,0.010,0.065
1438,0.015,0.070
1439,0.010,0.060
1440,0.010,0.045
1441,0.005,0.035
1442,0.000,0.015
1443,0.000,-0.010
1444,-0.010,-0.045
1445,-0.015,-0.075
1446,-0.015,-0.090
1447,-0.015,-0.090
1448,-0.015,-0.090
1449,-0.020,-0.085
1450,-0.020,-0.075
1451,-0.020,-0.070
1452,-0.020,-0.060
1453,-0.020,-0.050
1454,-0.020,-0.045
1455,-0.025,-0.050
1456,-0.025,-0.055
1457,-0.025,-0.055
1458,-0.025,-0.085
1459,-0.030,-0.115
1460,-0.030,-0.135
1461,-0.025,-0.135
1462,-0.025,-0.130
1463,-0.025,-0.130
1464,-0.020,-0.120
1465,-0.015,-0.110
1466,-0.020,-0.100
1467,-0.025,-0.090
1468,-0.030,-0.080
1469,-0.035,-0.070
1470,-0.045,-0.070
1471,-0.050,-0.080
1472,-0.055,-0.085
1473,-0.050,-0.080
1474,-0.045,-0.070
1475,-0.020,-0.040
1476,0.045,0.075
1477,0.195,0.305
1478,0.380,0.570
1479,0.475,0.675
1480,0.385,0.530
1481,0.190,0.230
1482,0.035,-0.010
1483,-0.020,-0.090
1484,-0.035,-0.065
1485,-0.035,-0.030
1486,-0.040,-0.040
1487,-0.055,-0.065
1488,-0.060,-0.085
1489,-0.060,-0.095
1490,-0.060,-0.095
1491,-0.055,-0.095
1492,-0.050,-0.090
1493,-0.045,-0.085
1494,-0.045,-0.080
1495,-0.045,-0.080
1496,-0.045,-0.090
1497,-0.040,-0.095
1498,-0.030,-0.095
1499,-0.030,-0.090
1500,-0.030,-0.090
1501,-0.035,-0.090
1502,-0.045,-0.110
1503,-0.045,-0.115
1504,-0.030,-0.095
1505,-0.015,-0.070
1506,-0.005,-0.045
1507,0.000,-0.020
1508,0.000,-0.005
1509,0.000,0.000
1510,0.000,-0.005
1511,0.005,-0.015
1512,0.000,-0.025
1513,-0.005,-0.035
1514,-0.015,-0.045
1515,-0.020,-0.050
1516,-0.025,-0.065
1517,-0.030,-0.070
1518,-0.025,-0.055
1519,-0.025,-0.050
1520,-0.025,-0.055
1521,-0.025,-0.050
1522,-0.020,-0.040
1523,-0.020,-0.025
1524,-0.020,-0.015
1525,-0.025,-0.020
1526,-0.030,-0.045
1527,-0.030,-0.065
1528,-0.030,-0.075
1529,-0.035,-0.080
1530,-0.030,-0.080
1531,-0.025,-0.075
1532,-0.015,-0.065
1533,-0.010,-0.060
1534,-0.015,-0.075
1535,-0.025,-0.090
1536,-0.035,-0.095
1537,-0.040,-0.090
1538,-0.045,-0.085
1539,-0.050,-0.080
1540,-0.055,-0.070
1541,-0.060,-0.065
1542,-0.065,-0.070
1543,-0.045,-0.050
1544,0.010,0.050
1545,0.155,0.280
1546,0.360,0.565
1547,0.495,0.720
1548,0.435,0.615
1549,0.240,0.330
1550,0.065,0.065
1551,-0.005,-0.050
1552,-0.030,-0.055
1553,-0.040,-0.045
1554,-0.050,-0.055
1555,-0.055,-0.080
1556,-0.060,-0.105
1557,-0.060,-0.120
1558,-0.055,-0.115
1559,-0.055,-0.115
1560,-0.060,-0.115
1561,-0.065,-0.110
1562,-0.065,-0.095
1563,-0.060,-0.085
1564,-0.060,-0.080
1565,-0.060,-0.090
1566,-0.055,-0.105
1567,-0.050,-0.115
1568,-0.050,-0.125
1569,-0.050,-0.135
1570,-0.060,-0.130
1571,-0.055,-0.120
1572,-0.040,-0.105
1573,-0.025,-0.095
1574,-0.020,-0.090
1575,-0.010,-0.075
1576,0.000,-0.045
1577,0.000,-0.025
1578,0.000,-0.030
1579,-0.005,-0.045
1580,-0.010,-0.070
1581,-0.020,-0.085
1582,-0.025,-0.100
1583,-0.030,-0.110
1584,-0.030,-0.120
1585,-0.030,-0.125
1586,-0.025,-0.120
1587,-0.025,-0.125
1588,-0.025,-0.145
1589,-0.025,-0.155
1590,-0.030,-0.160
1591,-0.030,-0.150
1592,-0.030,-0.140
1593,-0.035,-0.145
1594,-0.035,-0.155
1595,-0.035,-0.165
1596,-0.030,-0.160
1597,-0.030,-0.160
1598,-0.030,-0.155
1599,-0.025,-0.135
1600,-0.020,-0.125
1601,-0.020,-0.130
1602,-0.020,-0.150
1603,-0.025,-0.165
1604,-0.035,-0.155
1605,-0.045,-0.135
1606,-0.050,-0.110
1607,-0.045,-0.100
1608,-0.045,-0.100
1609,-0.045,-0.110
1610,-0.050,-0.110
1611,-0.040,-0.095
1612,0.005,-0.020
1613,0.135,0.165
1614,0.330,0.445
1615,0.490,0.650
1616,0.470,0.605
1617,0.270,0.320
1618,0.075,0.005
1619,-0.015,-0.145
1620,-0.040,-0.145
1621,-0.040,-0.115
1622,-0.040,-0.115
1623,-0.045,-0.125
1624,-0.050,-0.130
1625,-0.055,-0.145
1626,-0.060,-0.155
1627,-0.060,-0.160
1628,-0.065,-0.150
1629,-0.065,-0.145
1630,-0.060,-0.140
1631,-0.060,-0.130
1632,-0.060,-0.125
1633,-0.060,-0.125
1634,-0.060,-0.130
1635,-0.065,-0.135
1636,-0.065,-0.125
1637,-0.055,-0.115
1638,-0.040,-0.100
1639,-0.030,-0.080
1640,-0.025,-0.060
1641,-0.020,-0.040
1642,-0.010,-0.015
1643,-0.005,0.000
1644,0.000,0.015
1645,0.005,0.020
1646,0.000,0.015
1647,0.000,0.000
1648,-0.005,-0.005
1649,-0.010,-0.015
1650,-0.015,-0.010
1651,-0.020,-0.010
1652,-0.015,-0.005
1653,-0.015,-0.005
1654,-0.020,-0.010
1655,-0.020,-0.025
1656,-0.020,-0.035
1657,-0.015,-0.040
1658,-0.015,-0.040
1659,-0.020,-0.045
1660,-0.025,-0.060
1661,-0.025,-0.065
1662,-0.025,-0.070
1663,-0.025,-0.090
1664,-0.025,-0.110
1665,-0.020,-0.120
1666,-0.015,-0.125
1667,-0.015,-0.125
1668,-0.015,-0.125
1669,-0.020,-0.130
1670,-0.010,-0.120
1671,-0.010,-0.110
1672,-0.015,-0.110
1673,-0.020,-0.105
1674,-0.025,-0.100
1675,-0.030,-0.105
1676,-0.035,-0.115
1677,-0.035,-0.110
1678,-0.035,-0.095
1679,-0.030,-0.070
1680,0.000,-0.010
1681,0.105,0.150
1682,0.295,0.405
1683,0.470,0.610
1684,0.485,0.595
1685,0.325,0.355
1686,0.135,0.080
1687,0.025,-0.080
1688,-0.015,-0.120
1689,-0.020,-0.110
1690,-0.020,-0.110
1691,-0.020,-0.130
1692,-0.030,-0.135
1693,-0.035,-0.130
1694,-0.040,-0.115
1695,-0.040,-0.105
1696,-0.045,-0.110
1697,-0.050,-0.115
1698,-0.045,-0.115
1699,-0.035,-0.115
1700,-0.035,-0.130
1701,-0.035,-0.130
1702,-0.030,-0.125
1703,-0.030,-0.125
1704,-0.030,-0.125
1705,-0.025,-0.125
1706,-0.015,-0.130
1707,-0.005,-0.135
1708,0.000,-0.140
1709,0.005,-0.130
1710,0.010,-0.110
1711,0.010,-0.080
1712,0.010,-0.060
1713,0.010,-0.050
1714,0.015,-0.040
1715,0.020,-0.040
1716,0.015,-0.055
1717,0.010,-0.085
1718,0.010,-0.095
1719,0.000,-0.105
1720,0.000,-0.110
1721,0.000,-0.090
1722,0.000,-0.065
1723,0.000,-0.055
1724,-0.005,-0.055
1725,-0.005,-0.060
1726,0.000,-0.060
1727,0.000,-0.070
1728,-0.005,-0.085
1729,-0.010,-0.095
1730,-0.005,-0.100
1731,0.000,-0.115
1732,-0.005,-0.125
1733,-0.010,-0.130
1734,-0.010,-0.125
1735,-0.005,-0.120
1736,0.000,-0.110
1737,0.000,-0.110
1738,0.000,-0.110
1739,0.005,-0.095
1740,0.000,-0.080
1741,-0.005,-0.065
1742,-0.005,-0.045
1743,-0.005,-0.025
1744,-0.015,-0.030
1745,-0.025,-0.050
1746,-0.025,-0.045
1747,-0.020,-0.040
1748,-0.015,-0.020
1749,0.010,0.050
1750,0.120,0.240
1751,0.320,0.515
1752,0.485,0.700
1753,0.465,0.610
1754,0.265,0.300
1755,0.070,0.000
1756,-0.010,-0.120
1757,-0.020,-0.085
1758,-0.015,-0.025
1759,-0.010,-0.015
1760,-0.015,-0.035
1761,-0.020,-0.055
1762,-0.025,-0.065
1763,-0.030,-0.070
1764,-0.025,-0.065
1765,-0.020,-0.065
1766,-0.020,-0.070
1767,-0.020,-0.075
1768,-0.015,-0.075
1769,-0.015,-0.065
1770,-0.015,-0.055
1771,-0.020,-0.050
1772,-0.015,-0.050
1773,-0.010,-0.045
1774,0.000,-0.035
1775,0.000,-0.015
1776,0.010,-0.005
1777,0.010,0.000
1778,0.010,0.010
1779,0.015,0.025
1780,0.025,0.040
1781,0.040,0.055
1782,0.035,0.065
1783,0.025,0.060
1784,0.015,0.050
1785,0.010,0.035
1786,0.010,0.020
1787,0.010,0.015
1788,0.010,0.010
1789,0.010,0.005
1790,0.005,0.000
1791,0.000,-0.005
1792,0.000,-0.010
1793,0.000,-0.005
1794,0.000,-0.005
1795,0.000,-0.005
1796,0.000,0.000
1797,0.000,0.010
1798,0.000,0.015
1799,0.000,0.000
1800,0.000,-0.005
1801,0.000,-0.025
1802,0.000,-0.045
1803,0.000,-0.070
1804,0.000,-0.090
1805,0.000,-0.095
1806,0.005,-0.110
1807,0.000,-0.120
1808,0.000,-0.120
1809,0.005,-0.115
1810,0.000,-0.115
1811,-0.010,-0.100
1812,-0.015,-0.080
1813,-0.015,-0.060
1814,-0.015,-0.050
1815,-0.020,-0.045
1816,-0.020,-0.050
1817,-0.015,-0.055
1818,-0.010,-0.065
1819,0.015,-0.030
1820,0.115,0.110
1821,0.290,0.355
1822,0.455,0.545
1823,0.475,0.505
1824,0.315,0.245
1825,0.110,-0.035
1826,0.000,-0.165
1827,-0.020,-0.150
1828,-0.020,-0.095
1829,-0.015,-0.065
1830,-0.005,-0.045
1831,-0.005,-0.045
1832,-0.015,-0.055
1833,-0.020,-0.070
1834,-0.025,-0.085
1835,-0.025,-0.095
1836,-0.030,-0.095
1837,-0.030,-0.075
1838,-0.025,-0.060
1839,-0.025,-0.055
1840,-0.020,-0.050
1841,-0.015,-0.050
1842,-0.015,-0.050
1843,-0.015,-0.050
1844,-0.010,-0.035
1845,-0.010,-0.040
1846,-0.015,-0.055
1847,0.000,-0.055
1848,0.000,-0.040
1849,0.010,-0.030
1850,0.015,-0.030
1851,0.020,-0.035
1852,0.020,-0.040
1853,0.020,-0.045
1854,0.020,-0.055
1855,0.010,-0.075
1856,0.005,-0.090
1857,0.000,-0.090
1858,0.000,-0.090
1859,0.005,-0.095
1860,0.000,-0.110
1861,0.000,-0.120
1862,0.000,-0.125
1863,0.000,-0.115
1864,0.000,-0.100
1865,0.000,-0.080
1866,0.000,-0.065
1867,0.000,-0.065
1868,-0.010,-0.080
1869,-0.015,-0.080
1870,-0.010,-0.060
1871,-0.010,-0.060
1872,-0.010,-0.080
1873,-0.005,-0.095
1874,0.000,-0.100
1875,0.000,-0.100
1876,0.000,-0.105
1877,0.000,-0.110
1878,0.000,-0.110
1879,0.000,-0.130
1880,-0.015,-0.135
1881,-0.020,-0.130
1882,-0.025,-0.110
1883,-0.030,-0.100
1884,-0.030,-0.100
1885,-0.030,-0.105
1886,-0.030,-0.110
1887,-0.025,-0.105
1888,-0.005,-0.060
1889,0.075,0.070
1890,0.250,0.320
1891,0.445,0.575
1892,0.515,0.650
1893,0.385,0.455
1894,0.175,0.145
1895,0.035,-0.070
1896,-0.010,-0.140
1897,-0.020,-0.115
1898,-0.020,-0.100
1899,-0.025,-0.115
1900,-0.035,-0.130
1901,-0.040,-0.130
1902,-0.035,-0.115
1903,-0.035,-0.100
1904,-0.035,-0.085
1905,-0.035,-0.065
1906,-0.035,-0.040
1907,-0.030,-0.025
1908,-0.030,-0.015
1909,-0.035,-0.010
1910,-0.040,-0.005
1911,-0.040,0.000
1912,-0.035,0.005
1913,-0.030,0.010
1914,-0.025,0.010
1915,-0.020,0.020
1916,-0.015,0.025
1917,-0.010,0.040
1918,-0.010,0.050
1919,-0.005,0.065
1920,0.000,0.080
1921,0.000,0.085
1922,0.005,0.085
1923,0.010,0.080
1924,0.005,0.080
1925,0.000,0.075
1926,0.000,0.055
1927,-0.005,0.025
1928,-0.010,0.000
1929,-0.010,-0.005
1930,-0.010,-0.020
1931,-0.010,-0.025
1932,-0.010,-0.015
1933,-0.015,0.000
1934,-0.020,0.000
1935,-0.015,0.005
1936,-0.015,0.010
1937,-0.020,0.010
1938,-0.025,0.010
1939,-0.025,0.005
1940,-0.020,0.000
1941,-0.015,0.000
1942,-0.015,0.000
1943,-0.020,0.000
1944,-0.020,-0.005
1945,-0.015,-0.005
1946,-0.015,-0.005
1947,-0.015,0.000
1948,-0.015,0.010
1949,-0.020,0.030
1950,-0.025,0.045
1951,-0.030,0.050
1952,-0.035,0.035
1953,-0.040,0.010
1954,-0.040,-0.010
1955,-0.050,-0.030
1956,-0.035,0.010
1957,0.035,0.155
1958,0.205,0.405
1959,0.415,0.675
1960,0.525,0.785
1961,0.425,0.620
1962,0.195,0.260
1963,0.035,-0.025
1964,-0.010,-0.120
1965,-0.020,-0.105
1966,-0.025,-0.085
1967,-0.030,-0.085
1968,-0.045,-0.110
1969,-0.055,-0.130
1970,-0.065,-0.145
1971,-0.065,-0.145
1972,-0.055,-0.105
1973,-0.045,-0.060
1974,-0.045,-0.035
1975,-0.045,-0.045
1976,-0.045,-0.070
1977,-0.045,-0.095
1978,-0.055,-0.120
1979,-0.060,-0.130
1980,-0.050,-0.130
1981,-0.045,-0.120
1982,-0.040,-0.100
1983,-0.035,-0.075
1984,-0.035,-0.070
1985,-0.040,-0.070
1986,-0.040,-0.075
1987,-0.025,-0.055
1988,-0.005,-0.030
1989,0.000,-0.005
1990,0.005,0.000
1991,0.000,-0.010
1992,0.000,-0.030
1993,-0.010,-0.045
1994,-0.015,-0.065
1995,-0.020,-0.080
1996,-0.020,-0.090
1997,-0.020,-0.080
1998,-0.020,-0.065
1999,-0.025,-0.060
2000,-0.025,-0.060
2001,-0.030,-0.055
2002,-0.025,-0.045
2003,-0.020,-0.040
2004,-0.020,-0.035
2005,-0.020,-0.020
2006,-0.020,-0.020
2007,-0.020,-0.055
2008,-0.025,-0.100
2009,-0.030,-0.115
2010,-0.025,-0.100
2011,-0.025,-0.070
2012,-0.025,-0.065
2013,-0.020,-0.065
2014,-0.015,-0.065
2015,-0.015,-0.070
2016,-0.025,-0.060
2017,-0.035,-0.045
2018,-0.040,-0.040
2019,-0.045,-0.040
2020,-0.050,-0.050
2021,-0.055,-0.060
2022,-0.060,-0.065
2023,-0.050,-0.040
2024,-0.025,0.005
2025,0.040,0.140
2026,0.190,0.395
2027,0.385,0.675
2028,0.495,0.800
2029,0.420,0.660
2030,0.220,0.345
2031,0.055,0.065
2032,-0.020,-0.050
2033,-0.040,-0.045
2034,-0.040,-0.020
2035,-0.045,-0.030
2036,-0.055,-0.040
2037,-0.050,-0.020
2038,-0.040,0.000
2039,-0.040,0.000
2040,-0.045,-0.010
2041,-0.055,-0.035
2042,-0.060,-0.055
2043,-0.060,-0.055
2044,-0.060,-0.050
2045,-0.055,-0.035
2046,-0.055,-0.015
2047,-0.055,-0.015
2048,-0.065,-0.035
2049,-0.060,-0.035
2050,-0.055,-0.025
2051,-0.045,-0.010
2052,-0.035,0.000
2053,-0.030,0.000
2054,-0.020,0.010
2055,-0.005,0.020
2056,0.000,0.035
2057,0.000,0.040
2058,0.000,0.045
2059,0.005,0.045
2060,0.000,0.030
2061,-0.005,0.015
2062,-0.015,0.010
2063,-0.020,0.005
2064,-0.025,0.000
2065,-0.030,0.000
2066,-0.020,0.005
2067,-0.015,0.010
2068,-0.010,0.010
2069,-0.010,0.010
2070,-0.015,0.015
2071,-0.015,0.025
2072,-0.020,0.025
2073,-0.025,0.010
2074,-0.030,-0.005
2075,-0.040,-0.020
2076,-0.050,-0.045
2077,-0.050,-0.060
2078,-0.035,-0.040
2079,-0.015,-0.010
2080,-0.010,-0.005
2081,-0.005,-0.015
2082,-0.005,-0.020
2083,-0.005,-0.020
2084,-0.015,-0.030
2085,-0.030,-0.030
2086,-0.040,-0.025
2087,-0.050,-0.005
2088,-0.050,0.005
2089,-0.055,0.005
2090,-0.050,0.000
2091,-0.050,0.000
2092,-0.045,0.000
2093,-0.005,0.065
2094,0.110,0.265
2095,0.320,0.560
2096,0.490,0.770
2097,0.470,0.700
2098,0.275,0.395
2099,0.085,0.090
2100,-0.005,-0.060
2101,-0.035,-0.080
2102,-0.035,-0.045
2103,-0.035,-0.015
2104,-0.045,-0.010
2105,-0.055,-0.020
2106,-0.055,-0.020
2107,-0.045,-0.010
2108,-0.045,-0.010
2109,-0.055,-0.015
2110,-0.060,-0.025
2111,-0.055,-0.020
2112,-0.055,-0.015
2113,-0.050,-0.005
2114,-0.045,-0.005
2115,-0.040,-0.010
2116,-0.045,-0.030
2117,-0.035,-0.045
2118,-0.025,-0.040
2119,-0.020,-0.045
2120,-0.020,-0.055
2121,-0.020,-0.065
2122,-0.015,-0.055
2123,-0.010,-0.030
2124,0.000,0.005
2125,0.005,0.050
2126,0.010,0.075
2127,0.010,0.085
2128,0.005,0.075
2129,0.000,0.050
2130,0.000,0.020
2131,-0.010,0.015
2132,-0.015,0.015
2133,-0.015,0.015
2134,-0.015,0.010
2135,-0.020,0.010
2136,-0.015,0.010
2137,-0.015,0.010
2138,-0.030,-0.010
2139,-0.035,-0.030
2140,-0.030,-0.020
2141,-0.020,-0.005
2142,-0.020,-0.010
2143,-0.025,-0.030
2144,-0.030,-0.050
2145,-0.025,-0.040
2146,-0.020,-0.035
2147,-0.020,-0.040
2148,-0.020,-0.035
2149,-0.015,-0.025
2150,-0.015,-0.030
2151,-0.020,-0.050
2152,-0.020,-0.075
2153,-0.020,-0.085
2154,-0.025,-0.080
2155,-0.030,-0.075
2156,-0.035,-0.070
2157,-0.040,-0.055
2158,-0.045,-0.045
2159,-0.045,-0.045
2160,-0.040,-0.040
2161,-0.030,-0.015
2162,0.010,0.075
2163,0.130,0.275
2164,0.310,0.530
2165,0.450,0.685
2166,0.420,0.590
2167,0.225,0.305
2168,0.040,0.030
2169,-0.035,-0.070
2170,-0.040,-0.035
2171,-0.030,0.005
2172,-0.030,0.005
2173,-0.035,0.000
2174,-0.040,-0.005
2175,-0.050,-0.035
2176,-0.060,-0.075
2177,-0.055,-0.075
2178,-0.040,-0.040
2179,-0.030,-0.040
2180,-0.030,-0.055
2181,-0.030,-0.060
2182,-0.035,-0.040
2183,-0.035,-0.025
2184,-0.035,-0.010
2185,-0.035,0.000
2186,-0.025,0.010
2187,-0.020,0.015
2188,-0.015,0.000
2189,-0.010,0.005
2190,0.000,0.035
2191,0.010,0.065
2192,0.015,0.075
2193,0.020,0.080
2194,0.020,0.085
2195,0.010,0.075
2196,0.010,0.050
2197,0.010,0.030
2198,0.005,0.020
2199,0.000,0.005
2200,-0.005,0.000
2201,-0.005,0.000
2202,-0.005,-0.005
2203,-0.010,0.000
2204,-0.015,0.000
2205,-0.015,0.005
2206,-0.015,0.010
2207,-0.015,0.015
2208,-0.020,0.010
2209,-0.020,0.000
2210,-0.025,-0.005
2211,-0.025,-0.015
2212,-0.020,-0.010
2213,-0.010,-0.010
2214,-0.010,-0.010
2215,-0.015,-0.035
2216,-0.030,-0.070
2217,-0.025,-0.080
2218,-0.010,-0.070
2219,-0.005,-0.050
2220,-0.005,-0.045
2221,-0.005,-0.055
2222,-0.015,-0.085
2223,-0.020,-0.105
2224,-0.020,-0.085
2225,-0.020,-0.050
2226,-0.025,-0.020
2227,-0.030,0.000
2228,-0.035,0.005
2229,-0.040,0.005
2230,-0.040,0.005
2231,-0.030,0.015
2232,0.000,0.090
2233,0.105,0.265
2234,0.285,0.520
2235,0.445,0.690
2236,0.435,0.630
2237,0.260,0.345
2238,0.075,0.050
2239,-0.010,-0.090
2240,-0.030,-0.085
2241,-0.025,-0.030
2242,-0.025,-0.010
2243,-0.030,-0.030
2244,-0.030,-0.055
2245,-0.030,-0.070
2246,-0.035,-0.060
2247,-0.035,-0.040
2248,-0.035,-0.020
2249,-0.035,-0.010
2250,-0.035,-0.015
2251,-0.035,-0.030
2252,-0.035,-0.035
2253,-0.030,-0.030
2254,-0.020,-0.020
2255,-0.020,-0.015
2256,-0.020,-0.025
2257,-0.025,-0.050
2258,-0.020,-0.055
2259,-0.010,-0.025
2260,-0.005,0.000
2261,-0.005,0.000
2262,-0.005,0.000
2263,0.000,0.000
2264,0.015,0.010
2265,0.025,0.015
2266,0.020,0.000
2267,0.010,-0.015
2268,0.010,-0.040
2269,0.005,-0.060
2270,0.000,-0.075
2271,0.000,-0.095
2272,0.000,-0.125
2273,-0.005,-0.155
2274,-0.010,-0.175
2275,-0.005,-0.180
2276,0.000,-0.175
2277,0.000,-0.175
2278,0.000,-0.165
2279,-0.005,-0.150
2280,-0.005,-0.140
2281,-0.005,-0.140
2282,-0.010,-0.150
2283,-0.015,-0.155
2284,-0.015,-0.160
2285,-0.010,-0.155
2286,-0.010,-0.145
2287,-0.010,-0.140
2288,-0.005,-0.135
2289,0.000,-0.130
2290,0.000,-0.135
2291,0.000,-0.135
2292,-0.005,-0.125
2293,-0.010,-0.095
2294,-0.010,-0.065
2295,-0.010,-0.050
2296,-0.020,-0.055
2297,-0.025,-0.060
2298,-0.030,-0.055
2299,-0.030,-0.040
2300,-0.025,-0.025
2301,-0.010,0.005
2302,0.060,0.135
2303,0.230,0.390
2304,0.445,0.665
2305,0.530,0.725
2306,0.405,0.520
2307,0.185,0.190
2308,0.040,-0.025
2309,0.000,-0.085
2310,-0.005,-0.055
2311,-0.010,-0.025
2312,-0.010,-0.030
2313,-0.015,-0.045
2314,-0.020,-0.055
2315,-0.025,-0.060
2316,-0.030,-0.055
2317,-0.025,-0.040
2318,-0.025,-0.025
2319,-0.030,-0.020
2320,-0.025,-0.010
2321,-0.020,-0.005
2322,-0.020,0.000
2323,-0.015,0.000
2324,-0.015,0.010
2325,-0.015,0.015
2326,-0.020,0.010
2327,-0.015,0.000
2328,-0.005,0.000
2329,0.000,0.005
2330,0.000,0.015
2331,0.000,0.020
2332,0.000,0.035
2333,0.010,0.045
2334,0.015,0.060
2335,0.015,0.065
2336,0.015,0.075
2337,0.015,0.070
2338,0.015,0.060
2339,0.010,0.045
2340,0.010,0.030
2341,0.010,0.030
2342,0.005,0.030
2343,0.000,0.015
2344,0.000,0.005
2345,0.000,0.005
2346,0.005,0.015
2347,0.005,0.015
2348,0.000,0.020
2349,0.000,0.025
2350,0.000,0.020
2351,0.000,0.010
2352,0.000,0.005
2353,0.000,0.000
2354,0.000,-0.005
2355,0.000,0.000
2356,0.005,0.005
2357,0.010,0.005
2358,0.010,0.000
2359,0.005,-0.020
2360,0.000,-0.040
2361,0.000,-0.040
2362,0.000,-0.030
2363,0.000,-0.015
2364,-0.005,-0.010
2365,-0.010,-0.010
2366,-0.015,-0.005
2367,-0.015,-0.005
2368,-0.015,0.000
2369,0.005,0.040
2370,0.085,0.165
2371,0.240,0.400
2372,0.430,0.660
2373,0.530,0.780
2374,0.435,0.635
2375,0.225,0.320
2376,0.060,0.060
2377,0.000,-0.015
2378,0.000,0.000
2379,0.005,0.025
2380,0.000,0.020
2381,-0.005,0.005
2382,-0.010,0.000
2383,-0.015,-0.005
2384,-0.015,-0.020
2385,-0.015,-0.020
2386,-0.020,-0.015
2387,-0.020,-0.010
2388,-0.020,-0.010
2389,-0.020,-0.010
2390,-0.020,-0.020
2391,-0.020,-0.035
2392,-0.020,-0.050
2393,-0.015,-0.060
2394,-0.005,-0.060
2395,-0.005,-0.050
2396,-0.010,-0.035
2397,0.000,-0.005
2398,0.000,0.015
2399,0.005,0.030
2400,0.010,0.045
2401,0.015,0.050
2402,0.015,0.055
2403,0.030,0.070
2404,0.035,0.065
2405,0.025,0.055
2406,0.015,0.040
2407,0.010,0.030
2408,0.010,0.030
2409,0.010,0.030
2410,0.015,0.020
2411,0.015,0.020
2412,0.010,0.020
2413,0.010,0.025
2414,0.010,0.040
2415,0.010,0.050
2416,0.010,0.040
2417,0.010,0.030
2418,0.010,0.035
2419,0.010,0.045
2420,0.010,0.030
2421,0.005,0.015
2422,0.000,0.000
2423,0.000,0.000
2424,0.005,0.015
2425,0.010,0.035
2426,0.015,0.055
2427,0.010,0.055
2428,0.010,0.045
2429,0.005,0.045
2430,0.000,0.045
2431,0.000,0.050
2432,0.000,0.070
2433,0.000,0.075
2434,-0.005,0.085
2435,-0.005,0.105
2436,0.000,0.135
2437,0.000,0.165
2438,0.065,0.265
2439,0.225,0.510
2440,0.435,0.800
2441,0.550,0.925
2442,0.455,0.765
2443,0.245,0.435
2444,0.080,0.155
2445,0.015,0.030
2446,0.000,0.015
2447,0.000,0.030
2448,-0.005,0.040
2449,-0.010,0.030
2450,-0.015,0.020
2451,-0.015,0.015
2452,-0.020,0.015
2453,-0.020,0.015
2454,-0.020,0.010
2455,-0.015,0.010
2456,-0.015,0.010
2457,-0.015,0.010
2458,-0.010,0.015
2459,-0.010,0.020
2460,-0.010,0.030
2461,-0.015,0.040
2462,-0.020,0.060
2463,-0.015,0.080
2464,-0.005,0.095
2465,0.000,0.100
2466,0.005,0.075
2467,0.010,0.060
2468,0.010,0.060
2469,0.015,0.080
2470,0.020,0.095
2471,0.025,0.105
2472,0.020,0.100
2473,0.020,0.095
2474,0.015,0.080
2475,0.015,0.065
2476,0.010,0.060
2477,0.010,0.065
2478,0.010,0.060
2479,0.010,0.040
2480,0.010,0.020
2481,0.010,0.005
2482,0.005,0.000
2483,0.005,0.000
2484,0.010,0.010
2485,0.010,0.015
2486,0.010,0.005
2487,0.010,0.000
2488,0.005,0.000
2489,0.000,-0.005
2490,0.000,-0.015
2491,0.000,-0.040
2492,0.000,-0.055
2493,0.000,-0.040
2494,0.010,-0.020
2495,0.015,-0.015
2496,0.010,-0.020
2497,0.010,-0.030
2498,0.005,-0.040
2499,-0.005,-0.050
2500,-0.020,-0.055
2501,-0.020,-0.040
2502,-0.010,-0.015
2503,-0.005,-0.015
2504,-0.010,-0.025
2505,-0.005,-0.025
2506,0.035,0.030
2507,0.155,0.215
2508,0.345,0.490
2509,0.510,0.705
2510,0.505,0.670
2511,0.325,0.405
2512,0.120,0.095
2513,0.015,-0.065
2514,0.000,-0.075
2515,-0.005,-0.035
2516,-0.015,-0.025
2517,-0.015,-0.035
2518,-0.015,-0.035
2519,-0.015,-0.040
2520,-0.020,-0.050
2521,-0.025,-0.060
2522,-0.030,-0.065
2523,-0.035,-0.045
2524,-0.035,-0.020
2525,-0.025,-0.005
2526,-0.025,0.000
2527,-0.025,0.000
2528,-0.030,0.000
2529,-0.025,0.000
2530,-0.020,0.000
2531,-0.015,0.010
2532,-0.015,0.015
2533,-0.015,0.020
2534,-0.005,0.020
2535,0.005,0.030
2536,0.010,0.045
2537,0.010,0.060
2538,0.010,0.075
2539,0.015,0.080
2540,0.010,0.075
2541,0.005,0.065
2542,0.005,0.055
2543,0.005,0.050
2544,0.010,0.050
2545,0.010,0.045
2546,0.005,0.035
2547,0.000,0.030
2548,0.000,0.035
2549,0.000,0.025
2550,-0.005,0.000
2551,0.000,-0.030
2552,0.000,-0.045
2553,0.000,-0.055
2554,0.000,-0.070
2555,0.000,-0.090
2556,0.000,-0.100
2557,0.000,-0.100
2558,-0.005,-0.110
2559,-0.005,-0.125
2560,-0.005,-0.140
2561,0.000,-0.145
2562,0.000,-0.145
2563,0.005,-0.130
2564,0.005,-0.125
2565,0.005,-0.130
2566,0.005,-0.125
2567,0.000,-0.120
2568,-0.010,-0.140
2569,-0.025,-0.155
2570,-0.030,-0.130
2571,-0.025,-0.095
2572,-0.025,-0.080
2573,-0.025,-0.080
2574,-0.005,-0.050
2575,0.060,0.065
2576,0.220,0.305
2577,0.415,0.570
2578,0.510,0.665
2579,0.420,0.505
2580,0.220,0.195
2581,0.055,-0.045
2582,0.000,-0.125
2583,-0.010,-0.090
2584,-0.010,-0.040
2585,-0.015,-0.030
2586,-0.025,-0.035
2587,-0.030,-0.040
2588,-0.030,-0.055
2589,-0.030,-0.085
2590,-0.030,-0.120
2591,-0.035,-0.145
2592,-0.035,-0.150
2593,-0.030,-0.130
2594,-0.020,-0.110
2595,-0.020,-0.100
2596,-0.020,-0.095
2597,-0.015,-0.085
2598,-0.010,-0.060
2599,-0.010,-0.060
2600,-0.010,-0.075
2601,-0.005,-0.085
2602,0.000,-0.080
2603,0.000,-0.055
2604,0.010,-0.015
2605,0.015,-0.005
2606,0.020,0.000
2607,0.025,0.010
2608,0.030,0.015
2609,0.030,0.000
2610,0.020,-0.020
2611,0.010,-0.035
2612,0.010,-0.050
2613,0.000,-0.070
2614,0.000,-0.075
2615,0.000,-0.070
2616,0.000,-0.070
2617,0.000,-0.070
2618,0.000,-0.065
2619,0.000,-0.060
2620,0.000,-0.050
2621,0.000,-0.050
2622,0.000,-0.050
2623,0.000,-0.050
2624,-0.005,-0.045
2625,-0.010,-0.045
2626,-0.015,-0.050
2627,-0.010,-0.065
2628,-0.005,-0.075
2629,-0.005,-0.080
2630,0.000,-0.065
2631,0.000,-0.040
2632,0.000,-0.025
2633,0.000,-0.020
2634,0.000,-0.020
2635,0.000,-0.030
2636,-0.005,-0.030
2637,-0.015,-0.025
2638,-0.025,-0.020
2639,-0.025,-0.010
2640,-0.030,0.000
2641,-0.030,0.000
2642,-0.025,-0.005
2643,-0.020,-0.005
2644,-0.010,0.015
2645,0.055,0.140
2646,0.220,0.370
2647,0.410,0.590
2648,0.490,0.615
2649,0.350,0.385
2650,0.135,0.055
2651,0.000,-0.145
2652,-0.030,-0.170
2653,-0.020,-0.105
2654,-0.015,-0.075
2655,-0.020,-0.075
2656,-0.025,-0.070
2657,-0.025,-0.060
2658,-0.025,-0.060
2659,-0.025,-0.045
2660,-0.025,-0.035
2661,-0.025,-0.040
2662,-0.025,-0.050
2663,-0.020,-0.055
2664,-0.020,-0.055
2665,-0.015,-0.055
2666,-0.015,-0.055
2667,-0.020,-0.055
2668,-0.015,-0.045
2669,-0.005,-0.030
2670,0.000,-0.015
2671,0.000,0.000
2672,0.005,0.010
2673,0.010,0.035
2674,0.020,0.055
2675,0.025,0.055
2676,0.025,0.040
2677,0.025,0.035
2678,0.025,0.030
2679,0.020,0.020
2680,0.010,0.010
2681,0.010,0.000
2682,0.010,-0.005
2683,0.005,-0.025
2684,0.000,-0.030
2685,0.000,-0.025
2686,0.000,-0.020
2687,-0.005,-0.025
2688,-0.005,-0.020
2689,0.000,0.000
2690,0.000,0.000
2691,0.000,0.000
2692,-0.010,-0.010
2693,-0.020,-0.005
2694,-0.020,0.000
2695,-0.015,-0.005
2696,-0.015,-0.035
2697,-0.015,-0.065
2698,-0.020,-0.100
2699,-0.020,-0.120
2700,-0.010,-0.130
2701,0.000,-0.115
2702,0.000,-0.100
2703,0.000,-0.100
2704,-0.005,-0.105
2705,-0.005,-0.110
2706,-0.010,-0.105
2707,-0.020,-0.100
2708,-0.030,-0.100
2709,-0.035,-0.110
2710,-0.035,-0.100
2711,-0.035,-0.075
2712,-0.035,-0.065
2713,-0.040,-0.060
2714,-0.025,-0.030
2715,0.030,0.055
2716,0.170,0.245
2717,0.360,0.480
2718,0.480,0.605
2719,0.420,0.495
2720,0.220,0.220
2721,0.050,-0.015
2722,-0.010,-0.090
2723,-0.020,-0.050
2724,-0.020,0.000
2725,-0.020,0.000
2726,-0.030,0.000
2727,-0.035,0.000
2728,-0.035,0.000
2729,-0.035,-0.010
2730,-0.040,-0.040
2731,-0.045,-0.075
2732,-0.050,-0.090
2733,-0.035,-0.070
2734,-0.025,-0.050
2735,-0.025,-0.035
2736,-0.025,-0.030
2737,-0.025,-0.025
2738,-0.025,-0.025
2739,-0.020,-0.025
2740,-0.020,-0.025
2741,-0.020,-0.030
2742,-0.020,-0.035
2743,-0.020,-0.025
2744,-0.005,-0.025
2745,0.000,-0.020
2746,0.000,-0.005
2747,0.005,0.020
2748,0.010,0.040
2749,0.010,0.035
2750,0.010,0.020
2751,0.010,0.005
2752,0.005,0.000
2753,0.000,-0.010
2754,-0.005,-0.025
2755,-0.010,-0.030
2756,-0.005,-0.025
2757,-0.005,-0.015
2758,-0.005,-0.015
2759,-0.010,-0.015
2760,-0.010,-0.020
2761,-0.010,-0.025
2762,-0.010,-0.025
2763,-0.010,-0.025
2764,-0.015,-0.025
2765,-0.020,-0.025
2766,-0.030,-0.050
2767,-0.025,-0.075
2768,-0.010,-0.085
2769,0.000,-0.090
2770,0.000,-0.085
2771,0.000,-0.070
2772,0.000,-0.065
2773,-0.010,-0.060
2774,-0.015,-0.055
2775,-0.020,-0.030
2776,-0.025,-0.010
2777,-0.030,-0.010
2778,-0.035,-0.010
2779,-0.040,-0.010
2780,-0.045,-0.010
2781,-0.045,-0.015
2782,-0.025,0.005
2783,0.005,0.090
2784,0.125,0.275
2785,0.315,0.540
2786,0.480,0.745
2787,0.480,0.725
2788,0.305,0.470
2789,0.105,0.165
2790,0.000,0.000
2791,-0.020,-0.010
2792,-0.015,0.015
2793,-0.015,0.030
2794,-0.025,0.015
2795,-0.030,0.005
2796,-0.040,0.000
2797,-0.045,0.000
2798,-0.050,-0.005
2799,-0.045,-0.010
2800,-0.045,0.000
2801,-0.045,0.000
2802,-0.055,-0.005
2803,-0.060,-0.025
2804,-0.055,-0.035
2805,-0.040,-0.015
2806,-0.025,0.000
2807,-0.025,0.000
2808,-0.030,0.000
2809,-0.030,-0.005
2810,-0.035,-0.035
2811,-0.035,-0.050
2812,-0.020,-0.045
2813,0.000,-0.030
2814,0.000,-0.015
2815,0.010,-0.015
2816,0.010,-0.015
2817,0.010,-0.015
2818,0.010,-0.015
2819,0.000,-0.025
2820,0.000,-0.025
2821,-0.005,-0.010
2822,-0.015,-0.010
2823,-0.020,-0.010
2824,-0.020,-0.005
2825,-0.015,-0.005
2826,-0.015,0.000
2827,-0.015,0.000
2828,-0.015,-0.005
2829,-0.015,-0.010
2830,-0.020,-0.005
2831,-0.020,0.000
2832,-0.025,-0.005
2833,-0.025,-0.030
2834,-0.030,-0.065
2835,-0.020,-0.090
2836,-0.010,-0.085
2837,-0.005,-0.070
2838,-0.005,-0.065
2839,-0.010,-0.070
2840,-0.010,-0.070
2841,-0.010,-0.065
2842,-0.015,-0.065
2843,-0.025,-0.060
2844,-0.030,-0.045
2845,-0.030,-0.030
2846,-0.040,-0.020
2847,-0.035,-0.015
2848,-0.025,0.000
2849,-0.025,0.005
2850,-0.020,0.015
2851,0.005,0.070
2852,0.100,0.240
2853,0.285,0.520
2854,0.475,0.765
2855,0.505,0.775
2856,0.335,0.520
2857,0.125,0.195
2858,0.005,0.000
2859,-0.020,-0.030
2860,-0.025,0.000
2861,-0.025,0.010
2862,-0.025,0.005
2863,-0.040,0.000
2864,-0.045,-0.005
2865,-0.050,0.000
2866,-0.045,0.000
2867,-0.045,0.000
2868,-0.050,0.000
2869,-0.045,0.000
2870,-0.045,0.000
2871,-0.045,-0.010
2872,-0.050,-0.025
2873,-0.055,-0.040
2874,-0.050,-0.045
2875,-0.045,-0.035
2876,-0.040,-0.015
2877,-0.035,0.000
2878,-0.025,0.015
2879,-0.020,0.025
2880,-0.015,0.030
2881,-0.010,0.035
2882,-0.005,0.045
2883,0.000,0.065
2884,0.000,0.080
2885,0.000,0.080
2886,0.005,0.065
2887,0.005,0.045
2888,0.000,0.030
2889,0.000,0.020
2890,-0.005,0.020
2891,-0.005,0.025
2892,-0.010,0.020
2893,-0.015,0.020
2894,-0.020,0.025
2895,-0.020,0.020
2896,-0.025,0.010
2897,-0.020,0.010
2898,-0.010,0.025
2899,-0.010,0.030
2900,-0.020,0.025
2901,-0.025,0.020
2902,-0.025,0.020
2903,-0.020,0.010
2904,-0.020,0.000
2905,-0.015,-0.020
2906,-0.015,-0.025
2907,-0.015,-0.030
2908,-0.015,-0.030
2909,-0.015,-0.030
2910,-0.015,-0.030
2911,-0.015,-0.015
2912,-0.030,-0.005
2913,-0.035,0.000
2914,-0.040,0.005
2915,-0.040,0.010
2916,-0.045,0.010
2917,-0.045,0.005
2918,-0.035,0.005
2919,-0.010,0.040
2920,0.075,0.175
2921,0.245,0.420
2922,0.430,0.655
2923,0.495,0.710
2924,0.370,0.515
2925,0.165,0.195
2926,0.025,-0.025
2927,-0.020,-0.090
2928,-0.030,-0.070
2929,-0.030,-0.055
2930,-0.035,-0.065
2931,-0.040,-0.065
2932,-0.040,-0.060
2933,-0.040,-0.060
2934,-0.045,-0.075
2935,-0.050,-0.085
2936,-0.055,-0.090
2937,-0.060,-0.095
2938,-0.055,-0.095
2939,-0.050,-0.085
2940,-0.040,-0.085
2941,-0.045,-0.090
2942,-0.050,-0.095
2943,-0.055,-0.100
2944,-0.060,-0.105
2945,-0.055,-0.105
2946,-0.040,-0.095
2947,-0.035,-0.090
2948,-0.030,-0.065
2949,-0.010,-0.030
2950,0.000,-0.015
2951,0.000,-0.010
2952,0.005,0.000
2953,0.010,0.005
2954,0.010,0.010
2955,0.005,0.005
2956,0.000,0.000
2957,0.000,-0.010
2958,0.000,-0.020
2959,-0.005,-0.025
2960,-0.015,-0.030
2961,-0.020,-0.035
2962,-0.020,-0.020
2963,-0.015,-0.005
2964,-0.010,0.000
2965,-0.010,0.005
2966,-0.010,0.005
2967,-0.015,0.000
2968,-0.020,-0.005
2969,-0.020,-0.015
2970,-0.025,-0.025
2971,-0.025,-0.035
2972,-0.020,-0.040
2973,-0.015,-0.050
2974,-0.010,-0.045
2975,-0.010,-0.035
2976,-0.010,-0.020
2977,-0.005,-0.010
2978,-0.005,-0.010
2979,-0.015,-0.005
2980,-0.025,0.000
2981,-0.035,0.010
2982,-0.040,0.005
2983,-0.035,0.000
2984,-0.030,0.000
2985,-0.030,0.000
2986,-0.025,0.005
2987,-0.025,0.020
2988,0.030,0.120
2989,0.180,0.350
2990,0.390,0.640
2991,0.530,0.795
2992,0.465,0.690
2993,0.250,0.385
2994,0.070,0.095
2995,-0.015,-0.040
2996,-0.030,-0.055
2997,-0.030,-0.040
2998,-0.030,-0.040
2999,-0.040,-0.050
3000,-0.050,-0.070
3001,-0.050,-0.075
3002,-0.050,-0.070
3003,-0.055,-0.070
3004,-0.050,-0.065
3005,-0.040,-0.065
3006,-0.035,-0.065
3007,-0.035,-0.070
3008,-0.040,-0.070
3009,-0.040,-0.065
3010,-0.035,-0.055
3011,-0.030,-0.045
3012,-0.025,-0.035
3013,-0.025,-0.020
3014,-0.020,-0.010
3015,-0.015,-0.005
3016,-0.010,-0.010
3017,-0.005,-0.015
3018,0.000,-0.010
3019,0.010,0.000
3020,0.015,0.015
3021,0.020,0.035
3022,0.015,0.030
3023,0.010,0.005
3024,0.005,-0.020
3025,0.000,-0.040
3026,0.000,-0.035
3027,0.000,-0.030
3028,-0.010,-0.030
3029,-0.010,-0.025
3030,0.000,-0.020
3031,0.000,-0.020
3032,0.000,-0.025
3033,0.000,-0.020
3034,-0.005,-0.010
3035,-0.015,-0.015
3036,-0.020,-0.040
3037,-0.020,-0.050
3038,-0.015,-0.065
3039,-0.015,-0.085
3040,-0.010,-0.100
3041,-0.005,-0.100
3042,0.000,-0.090
3043,0.000,-0.090
3044,0.005,-0.090
3045,0.005,-0.075
3046,0.010,-0.060
3047,0.010,-0.055
3048,0.000,-0.055
3049,-0.005,-0.045
3050,-0.015,-0.035
3051,-0.020,-0.035
3052,-0.025,-0.040
3053,-0.025,-0.045
3054,-0.025,-0.040
3055,-0.025,-0.035
3056,-0.010,-0.010
3057,0.040,0.085
3058,0.180,0.305
3059,0.375,0.585
3060,0.500,0.725
3061,0.445,0.585
3062,0.235,0.265
3063,0.050,-0.025
3064,-0.020,-0.135
3065,-0.025,-0.100
3066,-0.020,-0.045
3067,-0.020,-0.045
3068,-0.030,-0.080
3069,-0.040,-0.090
3070,-0.050,-0.085
3071,-0.045,-0.065
3072,-0.035,-0.040
3073,-0.025,-0.020
3074,-0.025,-0.020
3075,-0.025,-0.010
3076,-0.030,-0.010
3077,-0.025,-0.010
3078,-0.020,-0.015
3079,-0.015,-0.015
3080,-0.015,-0.015
3081,-0.020,0.000
3082,-0.010,0.010
3083,-0.010,0.035
3084,-0.005,0.070
3085,0.000,0.100
3086,0.010,0.135
3087,0.020,0.155
3088,0.030,0.155
3089,0.030,0.145
3090,0.025,0.130
3091,0.025,0.110
3092,0.025,0.075
3093,0.015,0.040
3094,0.010,0.020
3095,0.010,0.010
3096,0.005,0.010
3097,0.000,0.010
3098,0.000,0.005
3099,-0.005,0.000
3100,-0.010,0.000
3101,-0.010,0.010
3102,0.000,0.025
3103,0.000,0.035
3104,0.000,0.025
3105,-0.005,0.020
3106,-0.005,0.015
3107,0.000,0.010
3108,0.000,0.005
3109,-0.005,0.000
3110,-0.010,-0.010
3111,-0.005,-0.035
3112,0.000,-0.030
3113,0.000,0.000
3114,0.005,0.015
3115,0.005,0.025
3116,0.010,0.030
3117,0.010,0.030
3118,0.010,0.020
3119,0.005,0.020
3120,0.000,0.020
3121,-0.010,0.010
3122,-0.020,0.005
3123,-0.020,0.015
3124,-0.010,0.025
3125,-0.010,0.015
3126,-0.005,0.015
3127,0.025,0.075
3128,0.140,0.265
3129,0.330,0.545
3130,0.485,0.735
3131,0.465,0.680
3132,0.290,0.400
3133,0.100,0.105
3134,0.005,-0.035
3135,-0.015,-0.040
3136,-0.015,-0.010
3137,-0.015,0.005
3138,-0.015,0.000
3139,-0.020,-0.010
3140,-0.020,-0.025
3141,-0.015,-0.035
3142,-0.015,-0.045
3143,-0.010,-0.040
3144,-0.010,-0.040
3145,-0.010,-0.050
3146,-0.015,-0.075
3147,-0.020,-0.090
3148,-0.015,-0.085
3149,-0.010,-0.060
3150,-0.010,-0.030
3151,-0.010,-0.015
3152,0.000,0.000
3153,0.010,0.010
3154,0.010,0.025
3155,0.010,0.050
3156,0.015,0.070
3157,0.020,0.080
3158,0.025,0.080
3159,0.035,0.085
3160,0.045,0.090
3161,0.045,0.090
3162,0.035,0.075
3163,0.020,0.050
3164,0.015,0.045
3165,0.015,0.035
3166,0.010,0.015
3167,0.010,0.015
3168,0.010,0.015
3169,0.010,0.020
3170,0.010,0.025
3171,0.015,0.020
3172,0.015,0.010
3173,0.010,0.005
3174,0.010,0.000
3175,0.010,-0.005
3176,0.010,-0.015
3177,0.010,-0.005
3178,0.010,0.000
3179,0.010,0.000
3180,0.010,-0.015
3181,0.010,-0.030
3182,0.015,-0.020
3183,0.020,-0.010
3184,0.020,-0.005
3185,0.020,0.005
3186,0.025,0.015
3187,0.025,0.020
3188,0.015,0.015
3189,0.010,0.035
3190,0.010,0.055
3191,0.010,0.075
3192,0.010,0.090
3193,0.010,0.090
3194,0.010,0.085
3195,0.010,0.065
3196,0.015,0.070
3197,0.060,0.150
3198,0.195,0.360
3199,0.400,0.655
3200,0.575,0.865
3201,0.550,0.805
3202,0.340,0.520
3203,0.135,0.220
3204,0.040,0.085
3205,0.025,0.105
3206,0.025,0.150
3207,0.020,0.155
3208,0.015,0.135
3209,0.010,0.135
3210,0.010,0.145
3211,0.010,0.150
3212,0.010,0.130
3213,0.010,0.105
3214,0.015,0.085
3215,0.015,0.075
3216,0.015,0.075
3217,0.015,0.075
3218,0.015,0.075
3219,0.015,0.075
3220,0.020,0.075
3221,0.025,0.075
3222,0.030,0.075
3223,0.035,0.070
3224,0.040,0.070
3225,0.045,0.070
3226,0.045,0.080
3227,0.045,0.085
3228,0.055,0.100
3229,0.075,0.120
3230,0.090,0.135
3231,0.085,0.130
3232,0.080,0.120
3233,0.070,0.110
3234,0.065,0.110
3235,0.060,0.105
3236,0.055,0.095
3237,0.050,0.075
3238,0.050,0.075
3239,0.050,0.085
3240,0.055,0.090
3241,0.055,0.090
3242,0.055,0.095
3243,0.055,0.095
3244,0.055,0.085
3245,0.050,0.080
3246,0.050,0.080
3247,0.055,0.065
3248,0.050,0.035
3249,0.050,0.015
3250,0.050,0.025
3251,0.055,0.045
3252,0.060,0.050
3253,0.060,0.055
3254,0.060,0.065
3255,0.060,0.070
3256,0.055,0.065
3257,0.050,0.065
3258,0.045,0.065
3259,0.040,0.055
3260,0.030,0.035
3261,0.025,0.015
3262,0.025,0.005
3263,0.030,0.010
3264,0.040,0.040
3265,0.080,0.125
3266,0.200,0.325
3267,0.390,0.595
3268,0.560,0.805
3269,0.565,0.780
3270,0.400,0.525
3271,0.205,0.225
3272,0.090,0.055
3273,0.055,0.015
3274,0.045,0.030
3275,0.045,0.025
3276,0.040,0.025
3277,0.035,0.025
3278,0.025,0.030
3279,0.025,0.040
3280,0.025,0.040
3281,0.020,0.035
3282,0.020,0.025
3283,0.020,0.015
3284,0.020,0.005
3285,0.020,0.000
3286,0.020,0.000
3287,0.015,0.000
3288,0.015,0.000
3289,0.025,0.010
3290,0.035,0.025
3291,0.045,0.045
3292,0.050,0.055
3293,0.055,0.060
3294,0.050,0.055
3295,0.050,0.060
3296,0.060,0.095
3297,0.075,0.130
3298,0.080,0.150
3299,0.085,0.145
3300,0.080,0.125
3301,0.075,0.100
3302,0.065,0.095
3303,0.060,0.095
3304,0.055,0.085
3305,0.050,0.055
3306,0.045,0.030
3307,0.045,0.030
3308,0.050,0.045
3309,0.055,0.060
3310,0.055,0.070
3311,0.050,0.080
3312,0.045,0.085
3313,0.040,0.075
3314,0.040,0.055
3315,0.040,0.025
3316,0.040,0.000
3317,0.045,-0.010
3318,0.050,-0.015
3319,0.055,-0.010
3320,0.055,-0.005
3321,0.055,0.000
3322,0.055,0.000
3323,0.055,0.000
3324,0.050,0.005
3325,0.040,0.005
3326,0.030,0.000
3327,0.020,0.000
3328,0.020,0.000
3329,0.020,0.000
3330,0.015,0.000
3331,0.015,0.000
3332,0.015,0.020
3333,0.050,0.090
3334,0.165,0.265
3335,0.360,0.545
3336,0.545,0.775
3337,0.570,0.775
3338,0.405,0.520
3339,0.200,0.195
3340,0.080,0.005
3341,0.035,-0.030
3342,0.030,-0.005
3343,0.030,0.000
3344,0.020,0.000
3345,0.010,0.000
3346,0.010,0.000
3347,0.010,0.000
3348,0.015,-0.005
3349,0.015,-0.020
3350,0.010,-0.040
3351,0.010,-0.060
3352,0.010,-0.065
3353,0.010,-0.060
3354,0.010,-0.055
3355,0.010,-0.070
3356,0.010,-0.085
3357,0.010,-0.095
3358,0.010,-0.085
3359,0.015,-0.070
3360,0.020,-0.060
3361,0.020,-0.055
3362,0.020,-0.045
3363,0.025,-0.035
3364,0.035,-0.025
3365,0.045,-0.025
3366,0.055,-0.025
3367,0.060,-0.020
3368,0.060,-0.020
3369,0.055,-0.020
3370,0.050,-0.025
3371,0.050,-0.035
3372,0.045,-0.040
3373,0.040,-0.045
3374,0.030,-0.050
3375,0.025,-0.060
3376,0.020,-0.070
3377,0.020,-0.070
3378,0.030,-0.065
3379,0.035,-0.065
3380,0.025,-0.065
3381,0.025,-0.065
3382,0.020,-0.070
3383,0.015,-0.080
3384,0.015,-0.095
3385,0.020,-0.100
3386,0.025,-0.095
3387,0.025,-0.095
3388,0.020,-0.090
3389,0.020,-0.085
3390,0.020,-0.075
3391,0.025,-0.075
3392,0.020,-0.070
3393,0.015,-0.065
3394,0.010,-0.055
3395,0.010,-0.040
3396,0.010,-0.015
3397,0.010,0.000
3398,0.010,0.000
3399,0.010,-0.010
3400,0.010,-0.015
3401,0.040,0.020
3402,0.125,0.170
3403,0.295,0.450
3404,0.490,0.720
3405,0.565,0.795
3406,0.445,0.600
3407,0.225,0.285
3408,0.070,0.050
3409,0.015,-0.005
3410,0.010,0.015
3411,0.005,0.025
3412,0.000,0.015
3413,0.000,0.000
3414,0.000,0.000
3415,0.000,0.000
3416,0.000,-0.010
3417,0.005,-0.020
3418,0.005,-0.020
3419,0.000,-0.020
3420,0.000,-0.020
3421,0.000,-0.025
3422,-0.005,-0.020
3423,0.000,-0.005
3424,0.000,0.000
3425,0.005,0.000
3426,0.005,0.000
3427,0.010,0.000
3428,0.010,0.000
3429,0.010,-0.005
3430,0.010,0.000
3431,0.020,0.020
3432,0.030,0.035
3433,0.035,0.050
3434,0.040,0.055
3435,0.045,0.055
3436,0.045,0.055
3437,0.040,0.050
3438,0.030,0.035
3439,0.020,0.030
3440,0.015,0.030
3441,0.015,0.030
3442,0.010,0.025
3443,0.010,0.020
3444,0.010,0.015
3445,0.010,0.005
3446,0.015,0.005
3447,0.020,0.020
3448,0.015,0.035
3449,0.010,0.030
3450,0.010,0.020
3451,0.010,0.010
3452,0.010,0.000
3453,0.010,-0.025
3454,0.010,-0.040
3455,0.015,-0.020
3456,0.020,0.005
3457,0.020,0.005
3458,0.020,0.000
3459,0.020,-0.010
3460,0.020,-0.025
3461,0.015,-0.045
3462,0.010,-0.050
3463,0.010,-0.040
3464,0.000,-0.015
3465,0.000,-0.005
3466,0.000,0.000
3467,0.000,0.010
3468,0.000,0.020
3469,0.000,0.035
3470,0.040,0.110
3471,0.170,0.305
3472,0.365,0.570
3473,0.510,0.720
3474,0.475,0.620
3475,0.290,0.320
3476,0.110,0.030
3477,0.015,-0.105
3478,0.000,-0.110
3479,0.000,-0.070
3480,0.000,-0.050
3481,0.000,-0.045
3482,-0.005,-0.040
3483,-0.005,-0.030
3484,-0.005,-0.030
3485,-0.005,-0.035
3486,-0.015,-0.040
3487,-0.015,-0.045
3488,-0.020,-0.045
3489,-0.020,-0.045
3490,-0.015,-0.045
3491,-0.005,-0.030
3492,0.005,-0.005
3493,0.010,0.020
3494,0.010,0.055
3495,0.010,0.080
3496,0.010,0.085
3497,0.015,0.080
3498,0.020,0.080
3499,0.020,0.085
3500,0.030,0.105
3501,0.035,0.115
3502,0.040,0.115
3503,0.040,0.095
3504,0.040,0.080
3505,0.045,0.060
3506,0.030,0.045
3507,0.020,0.050
3508,0.020,0.060
3509,0.025,0.060
3510,0.025,0.045
3511,0.015,0.025
3512,0.010,0.010
3513,0.010,0.005
3514,0.010,0.000
3515,0.005,0.000
3516,0.005,0.000
3517,0.005,0.005
3518,0.005,0.015
3519,0.005,0.025
3520,0.010,0.035
3521,0.010,0.030
3522,0.010,0.010
3523,0.010,0.000
3524,0.010,-0.005
3525,0.010,0.000
3526,0.010,0.005
3527,0.005,0.000
3528,0.000,-0.010
3529,0.000,-0.010
3530,0.015,0.005
3531,0.015,0.025
3532,0.010,0.045
3533,0.000,0.060
3534,0.000,0.075
3535,-0.005,0.070
3536,-0.010,0.060
3537,-0.010,0.045
3538,-0.005,0.035
3539,0.000,0.040
3540,0.045,0.125
3541,0.190,0.335
3542,0.395,0.600
3543,0.510,0.705
3544,0.415,0.525
3545,0.200,0.205
3546,0.050,-0.010
3547,0.000,-0.035
3548,0.000,0.025
3549,0.000,0.075
3550,0.000,0.085
3551,-0.010,0.065
3552,-0.015,0.045
3553,-0.005,0.025
3554,0.000,0.025
3555,-0.005,0.030
3556,-0.010,0.035
3557,-0.015,0.045
3558,-0.005,0.050
3559,0.000,0.040
3560,0.000,0.030
3561,0.000,0.020
3562,0.005,0.015
3563,0.010,0.015
3564,0.010,0.015
3565,0.010,0.020
3566,0.010,0.040
3567,0.015,0.070
3568,0.025,0.115
3569,0.035,0.145
3570,0.040,0.160
3571,0.040,0.170
3572,0.045,0.185
3573,0.045,0.200
3574,0.040,0.195
3575,0.035,0.175
3576,0.025,0.155
3577,0.015,0.130
3578,0.010,0.120
3579,0.010,0.110
3580,0.010,0.095
3581,0.010,0.075
3582,0.010,0.070
3583,0.010,0.060
3584,0.010,0.040
3585,0.010,0.020
3586,0.010,0.010
3587,0.010,0.010
3588,0.010,0.015
3589,0.010,0.020
3590,0.010,0.025
3591,0.010,0.015
3592,0.000,0.005
3593,-0.005,0.000
3594,0.000,-0.005
3595,0.005,-0.010
3596,0.010,-0.010
3597,0.010,-0.010
3598,0.010,-0.020
3599,0.010,-0.035
3600,0.005,-0.045
3601,0.000,-0.040
3602,0.000,-0.025
3603,-0.005,-0.015
3604,-0.010,-0.010
3605,-0.015,0.000
3606,-0.015,0.000
3607,-0.015,0.005
3608,-0.010,0.020
3609,0.010,0.060
3610,0.085,0.185
3611,0.250,0.415
3612,0.435,0.650
3613,0.495,0.700
3614,0.375,0.505
3615,0.175,0.200
3616,0.045,0.000
3617,0.000,-0.040
3618,0.000,0.000
3619,0.000,0.030
3620,0.000,0.030
3621,-0.015,0.010
3622,-0.015,0.000
3623,-0.015,0.000
3624,-0.015,0.000
3625,-0.020,0.000
3626,-0.020,0.000
3627,-0.020,0.000
3628,-0.020,0.000
3629,-0.020,-0.005
3630,-0.015,-0.010
3631,-0.005,-0.005
3632,-0.005,-0.005
3633,-0.005,-0.020
3634,-0.010,-0.020
3635,0.000,0.000
3636,0.000,0.005
3637,0.000,0.010
3638,0.000,0.015
3639,0.005,0.025
3640,0.010,0.035
3641,0.010,0.045
3642,0.015,0.055
3643,0.020,0.060
3644,0.025,0.060
3645,0.020,0.050
3646,0.015,0.035
3647,0.005,0.025
3648,0.000,0.015
3649,0.000,0.005
3650,-0.005,0.005
3651,0.000,0.020
3652,0.010,0.030
3653,0.010,0.025
3654,0.010,0.015
3655,0.010,0.015
3656,0.010,0.010
3657,0.005,0.000
3658,0.005,-0.020
3659,0.000,-0.045
3660,0.000,-0.080
3661,0.000,-0.115
3662,0.000,-0.140
3663,0.000,-0.135
3664,0.005,-0.120
3665,0.005,-0.105
3666,0.005,-0.105
3667,0.000,-0.115
3668,0.000,-0.120
3669,0.000,-0.110
3670,0.000,-0.110
3671,-0.010,-0.110
3672,-0.015,-0.110
3673,-0.020,-0.095
3674,-0.020,-0.090
3675,-0.020,-0.090
3676,-0.020,-0.085
3677,0.000,-0.060
3678,0.075,0.045
3679,0.245,0.290
3680,0.445,0.550
3681,0.525,0.630
3682,0.400,0.450
3683,0.200,0.145
3684,0.050,-0.075
3685,0.000,-0.145
3686,-0.010,-0.120
3687,-0.015,-0.090
3688,-0.015,-0.090
3689,-0.020,-0.105
3690,-0.025,-0.105
3691,-0.025,-0.090
3692,-0.030,-0.075
3693,-0.030,-0.070
3694,-0.025,-0.085
3695,-0.025,-0.110
3696,-0.025,-0.140
3697,-0.025,-0.150
3698,-0.025,-0.145
3699,-0.025,-0.135
3700,-0.025,-0.125
3701,-0.020,-0.105
3702,-0.020,-0.080
3703,-0.015,-0.060
3704,-0.010,-0.045
3705,-0.005,-0.035
3706,0.000,-0.025
3707,0.000,-0.010
3708,0.005,0.000
3709,0.010,0.015
3710,0.015,0.025
3711,0.015,0.025
3712,0.015,0.025
3713,0.010,0.020
3714,0.010,0.015
3715,0.010,0.000
3716,0.005,-0.025
3717,0.005,-0.030
3718,0.005,-0.025
3719,0.005,-0.025
3720,0.000,-0.045
3721,0.000,-0.065
3722,0.000,-0.070
3723,-0.005,-0.075
3724,-0.005,-0.065
3725,-0.005,-0.050
3726,-0.005,-0.035
3727,-0.005,-0.040
3728,-0.010,-0.050
3729,-0.005,-0.060
3730,0.000,-0.050
3731,0.000,-0.045
3732,0.005,-0.045
3733,0.005,-0.040
3734,0.005,-0.035
3735,0.000,-0.035
3736,-0.005,-0.030
3737,-0.015,-0.025
3738,-0.015,-0.015
3739,-0.020,-0.010
3740,-0.025,-0.015
3741,-0.030,-0.025
3742,-0.025,-0.030
3743,-0.025,-0.045
3744,-0.025,-0.030
3745,0.010,0.030
3746,0.115,0.205
3747,0.300,0.475
3748,0.490,0.710
3749,0.525,0.710
3750,0.360,0.460
3751,0.140,0.140
3752,0.015,-0.055
3753,-0.015,-0.090
3754,-0.020,-0.055
3755,-0.020,-0.045
3756,-0.030,-0.050
3757,-0.040,-0.060
3758,-0.040,-0.055
3759,-0.030,-0.045
3760,-0.030,-0.045
3761,-0.030,-0.045
3762,-0.030,-0.045
3763,-0.035,-0.050
3764,-0.035,-0.055
3765,-0.035,-0.050
3766,-0.035,-0.040
3767,-0.035,-0.040
3768,-0.035,-0.040
3769,-0.035,-0.030
3770,-0.030,-0.020
3771,-0.025,-0.005
3772,-0.025,-0.005
3773,-0.020,-0.010
3774,-0.015,0.000
3775,-0.005,0.005
3776,0.000,0.015
3777,0.000,0.030
3778,0.010,0.040
3779,0.010,0.050
3780,0.010,0.045
3781,0.010,0.030
3782,0.005,0.020
3783,0.000,0.015
3784,0.000,0.010
3785,-0.005,0.005
3786,-0.015,0.000
3787,-0.010,0.000
3788,0.000,0.000
3789,0.000,0.000
3790,-0.010,-0.010
3791,-0.020,-0.025
3792,-0.015,-0.035
3793,-0.015,-0.035
3794,-0.015,-0.035
3795,-0.020,-0.040
3796,-0.025,-0.050
3797,-0.020,-0.060
3798,-0.020,-0.065
3799,-0.010,-0.065
3800,-0.010,-0.060
3801,-0.010,-0.060
3802,-0.005,-0.050
3803,0.000,-0.050
3804,0.000,-0.050
3805,-0.005,-0.055
3806,-0.020,-0.060
3807,-0.030,-0.060
3808,-0.035,-0.065
3809,-0.040,-0.065
3810,-0.045,-0.050
3811,-0.040,-0.030
3812,-0.030,-0.005
3813,0.005,0.055
3814,0.115,0.230
3815,0.310,0.495
3816,0.480,0.700
3817,0.485,0.680
3818,0.315,0.440
3819,0.120,0.145
3820,0.005,-0.025
3821,-0.020,-0.050
3822,-0.025,-0.020
3823,-0.025,-0.010
3824,-0.030,-0.025
3825,-0.035,-0.035
3826,-0.045,-0.035
3827,-0.045,-0.040
3828,-0.050,-0.045
3829,-0.050,-0.055
3830,-0.050,-0.055
3831,-0.055,-0.060
3832,-0.060,-0.055
3833,-0.065,-0.045
3834,-0.060,-0.045
3835,-0.055,-0.040
3836,-0.045,-0.035
3837,-0.035,-0.025
3838,-0.035,-0.015
3839,-0.035,-0.015
3840,-0.035,-0.025
3841,-0.030,-0.035
3842,-0.025,-0.040
3843,-0.015,-0.035
3844,0.000,-0.015
3845,0.000,0.000
3846,0.005,0.000
3847,0.010,-0.010
3848,0.005,-0.025
3849,0.000,-0.040
3850,0.000,-0.050
3851,-0.005,-0.065
3852,-0.010,-0.080
3853,-0.015,-0.080
3854,-0.020,-0.075
3855,-0.020,-0.070
3856,-0.020,-0.070
3857,-0.020,-0.070
3858,-0.025,-0.080
3859,-0.025,-0.085
3860,-0.030,-0.090
3861,-0.030,-0.100
3862,-0.030,-0.110
3863,-0.030,-0.130
3864,-0.030,-0.140
3865,-0.025,-0.135
3866,-0.025,-0.135
3867,-0.020,-0.135
3868,-0.020,-0.135
3869,-0.025,-0.140
3870,-0.025,-0.145
3871,-0.025,-0.145
3872,-0.025,-0.145
3873,-0.030,-0.140
3874,-0.035,-0.130
3875,-0.040,-0.115
3876,-0.050,-0.100
3877,-0.050,-0.095
3878,-0.045,-0.090
3879,-0.045,-0.085
3880,-0.040,-0.080
3881,-0.010,-0.010
3882,0.105,0.165
3883,0.315,0.445
3884,0.500,0.655
3885,0.505,0.615
3886,0.310,0.330
3887,0.095,0.010
3888,0.000,-0.155
3889,-0.030,-0.155
3890,-0.035,-0.110
3891,-0.035,-0.105
3892,-0.045,-0.120
3893,-0.055,-0.110
3894,-0.060,-0.095
3895,-0.065,-0.095
3896,-0.065,-0.110
3897,-0.065,-0.115
3898,-0.070,-0.120
3899,-0.070,-0.140
3900,-0.065,-0.150
3901,-0.065,-0.145
3902,-0.065,-0.145
3903,-0.065,-0.150
3904,-0.060,-0.160
3905,-0.055,-0.160
3906,-0.050,-0.155
3907,-0.050,-0.155
3908,-0.045,-0.150
3909,-0.040,-0.140
3910,-0.030,-0.125
3911,-0.025,-0.110
3912,-0.020,-0.100
3913,-0.015,-0.095
3914,0.000,-0.090
3915,0.000,-0.085
3916,0.000,-0.075
3917,-0.005,-0.060
3918,-0.015,-0.050
3919,-0.020,-0.050
3920,-0.025,-0.065
3921,-0.035,-0.095
3922,-0.040,-0.110
3923,-0.040,-0.115
3924,-0.045,-0.125
3925,-0.040,-0.140
3926,-0.040,-0.140
3927,-0.035,-0.140
3928,-0.035,-0.125
3929,-0.030,-0.105
3930,-0.025,-0.100
3931,-0.025,-0.105
3932,-0.035,-0.120
3933,-0.040,-0.130
3934,-0.040,-0.135
3935,-0.030,-0.135
3936,-0.030,-0.135
3937,-0.030,-0.125
3938,-0.025,-0.110
3939,-0.020,-0.105
3940,-0.025,-0.115
3941,-0.035,-0.130
3942,-0.045,-0.135
3943,-0.045,-0.125
3944,-0.045,-0.110
3945,-0.055,-0.100
3946,-0.060,-0.095
3947,-0.065,-0.090
3948,-0.060,-0.075
3949,-0.025,-0.010
3950,0.070,0.155
3951,0.250,0.420
3952,0.435,0.655
3953,0.475,0.670
3954,0.330,0.435
3955,0.115,0.120
3956,-0.005,-0.070
3957,-0.045,-0.110
3958,-0.050,-0.065
3959,-0.040,-0.035
3960,-0.040,-0.050
3961,-0.055,-0.090
3962,-0.060,-0.120
3963,-0.055,-0.130
3964,-0.055,-0.130
3965,-0.060,-0.130
3966,-0.065,-0.140
3967,-0.070,-0.160
3968,-0.070,-0.175
3969,-0.060,-0.160
3970,-0.050,-0.135
3971,-0.045,-0.115
3972,-0.040,-0.105
3973,-0.035,-0.100
3974,-0.035,-0.080
3975,-0.035,-0.050
3976,-0.025,-0.030
3977,-0.020,-0.010
3978,-0.015,0.000
3979,-0.005,0.000
3980,0.000,0.005
3981,0.000,0.010
3982,0.005,0.010
3983,0.005,0.020
3984,0.005,0.025
3985,0.000,0.015
3986,-0.005,0.000
3987,-0.015,0.000
3988,-0.015,0.000
3989,-0.015,-0.005
3990,-0.020,-0.020
3991,-0.025,-0.035
3992,-0.025,-0.025
3993,-0.030,-0.020
3994,-0.030,-0.025
3995,-0.030,-0.020
3996,-0.030,-0.010
3997,-0.025,-0.005
3998,-0.025,-0.010
3999,-0.030,-0.005
4000,-0.030,-0.005
4001,-0.030,-0.025
4002,-0.035,-0.065
4003,-0.030,-0.095
4004,-0.020,-0.090
4005,-0.015,-0.080
4006,-0.025,-0.075
4007,-0.025,-0.070
4008,-0.020,-0.065
4009,-0.020,-0.075
4010,-0.030,-0.070
4011,-0.030,-0.060
4012,-0.040,-0.035
4013,-0.045,-0.015
4014,-0.050,-0.015
4015,-0.050,-0.035
4016,-0.050,-0.045
4017,-0.050,-0.030
4018,-0.030,0.000
4019,0.025,0.110
4020,0.175,0.350
4021,0.365,0.600
4022,0.455,0.665
4023,0.355,0.470
4024,0.155,0.150
4025,0.005,-0.070
4026,-0.040,-0.125
4027,-0.040,-0.080
4028,-0.035,-0.035
4029,-0.035,-0.015
4030,-0.040,-0.015
4031,-0.050,-0.020
4032,-0.050,-0.020
4033,-0.050,-0.010
4034,-0.050,-0.010
4035,-0.050,-0.010
4036,-0.045,-0.005
4037,-0.040,0.000
4038,-0.040,0.005
4039,-0.035,0.005
4040,-0.030,0.000
4041,-0.025,-0.020
4042,-0.025,-0.040
4043,-0.025,-0.045
4044,-0.020,-0.030
4045,-0.010,-0.010
4046,0.000,0.000
4047,0.000,0.000
4048,0.000,0.005
4049,0.010,0.025
4050,0.015,0.030
4051,0.015,0.025
4052,0.010,0.015
4053,0.005,0.000
4054,0.005,0.000
4055,0.000,0.000
4056,0.000,-0.005
4057,0.000,-0.010
4058,-0.005,0.000
4059,-0.015,0.000
4060,-0.020,0.000
4061,-0.020,0.000
4062,-0.020,0.000
4063,-0.020,0.000
4064,-0.020,0.000
4065,-0.020,0.000
4066,-0.020,0.000
4067,-0.020,-0.010
4068,-0.025,-0.020
4069,-0.025,-0.035
4070,-0.025,-0.045
4071,-0.030,-0.055
4072,-0.030,-0.070
4073,-0.030,-0.075
4074,-0.020,-0.070
4075,-0.020,-0.070
4076,-0.015,-0.075
4077,-0.015,-0.070
4078,-0.015,-0.060
4079,-0.015,-0.060
4080,-0.025,-0.060
4081,-0.030,-0.050
4082,-0.035,-0.030
4083,-0.040,-0.020
4084,-0.045,-0.030
4085,-0.055,-0.045
4086,-0.055,-0.060
4087,-0.050,-0.050
4088,-0.020,-0.005
4089,0.045,0.115
4090,0.200,0.350
4091,0.395,0.595
4092,0.480,0.665
4093,0.360,0.480
4094,0.140,0.155
4095,0.000,-0.070
4096,-0.035,-0.125
4097,-0.035,-0.080
4098,-0.035,-0.055
4099,-0.040,-0.070
4100,-0.050,-0.100
4101,-0.055,-0.110
4102,-0.045,-0.115
4103,-0.045,-0.120
4104,-0.050,-0.135
4105,-0.055,-0.140
4106,-0.060,-0.115
4107,-0.050,-0.085
4108,-0.045,-0.085
4109,-0.045,-0.100
4110,-0.045,-0.115
4111,-0.035,-0.115
4112,-0.035,-0.095
4113,-0.035,-0.070
4114,-0.035,-0.065
4115,-0.035,-0.065
4116,-0.030,-0.055
4117,-0.025,-0.045
4118,-0.020,-0.040
4119,-0.015,-0.035
4120,-0.005,-0.025
4121,0.000,-0.010
4122,0.010,0.000
4123,0.005,0.000
4124,0.000,-0.005
4125,-0.005,-0.015
4126,-0.015,-0.020
4127,-0.015,-0.020
4128,-0.015,-0.015
4129,-0.020,-0.015
4130,-0.025,-0.030
4131,-0.025,-0.035
4132,-0.025,-0.035
4133,-0.025,-0.030
4134,-0.025,-0.020
4135,-0.025,-0.015
4136,-0.030,-0.020
4137,-0.030,-0.035
4138,-0.035,-0.050
4139,-0.035,-0.065
4140,-0.035,-0.085
4141,-0.035,-0.095
4142,-0.030,-0.110
4143,-0.025,-0.115
4144,-0.025,-0.115
4145,-0.025,-0.120
4146,-0.020,-0.145
4147,-0.020,-0.190
4148,-0.025,-0.220
4149,-0.040,-0.220
4150,-0.045,-0.190
4151,-0.045,-0.160
4152,-0.050,-0.130
4153,-0.055,-0.110
4154,-0.060,-0.090
4155,-0.050,-0.065
4156,-0.040,-0.035
4157,0.000,0.035
4158,0.120,0.225
4159,0.310,0.500
4160,0.465,0.695
4161,0.455,0.655
4162,0.285,0.405
4163,0.095,0.120
4164,-0.005,-0.030
4165,-0.035,-0.050
4166,-0.040,-0.025
4167,-0.040,-0.005
4168,-0.040,0.000
4169,-0.040,0.000
4170,-0.050,-0.020
4171,-0.055,-0.050
4172,-0.055,-0.085
4173,-0.055,-0.115
4174,-0.060,-0.140
4175,-0.060,-0.155
4176,-0.060,-0.150
4177,-0.060,-0.145
4178,-0.055,-0.140
4179,-0.050,-0.130
4180,-0.050,-0.110
4181,-0.050,-0.095
4182,-0.050,-0.090
4183,-0.050,-0.075
4184,-0.045,-0.070
4185,-0.035,-0.065
4186,-0.025,-0.070
4187,-0.025,-0.075
4188,-0.015,-0.055
4189,0.000,-0.030
4190,0.000,-0.040
4191,0.000,-0.060
4192,-0.005,-0.065
4193,-0.010,-0.045
4194,-0.015,-0.025
4195,-0.020,-0.025
4196,-0.020,-0.040
4197,-0.025,-0.055
4198,-0.030,-0.060
4199,-0.030,-0.060
4200,-0.030,-0.065
4201,-0.030,-0.070
4202,-0.030,-0.080
4203,-0.030,-0.085
4204,-0.030,-0.095
4205,-0.030,-0.100
4206,-0.030,-0.110
4207,-0.040,-0.120
4208,-0.045,-0.130
4209,-0.035,-0.140
4210,-0.035,-0.150
4211,-0.035,-0.155
4212,-0.030,-0.145
4213,-0.025,-0.140
4214,-0.025,-0.135
4215,-0.030,-0.130
4216,-0.040,-0.120
4217,-0.050,-0.090
4218,-0.050,-0.055
4219,-0.060,-0.030
4220,-0.060,-0.010
4221,-0.055,0.000
4222,-0.055,0.000
4223,-0.055,0.000
4224,-0.050,0.005
4225,0.000,0.075
4226,0.140,0.280
4227,0.350,0.550
4228,0.500,0.715
4229,0.445,0.615
4230,0.240,0.325
4231,0.055,0.025
4232,-0.025,-0.110
4233,-0.045,-0.105
4234,-0.045,-0.065
4235,-0.045,-0.055
4236,-0.050,-0.065
4237,-0.055,-0.070
4238,-0.060,-0.065
4239,-0.060,-0.055
4240,-0.065,-0.045
4241,-0.070,-0.040
4242,-0.065,-0.040
4243,-0.065,-0.045
4244,-0.065,-0.060
4245,-0.070,-0.060
4246,-0.070,-0.060
4247,-0.070,-0.060
4248,-0.065,-0.065
4249,-0.060,-0.055
4250,-0.050,-0.035
4251,-0.040,-0.030
4252,-0.040,-0.035
4253,-0.040,-0.025
4254,-0.030,0.000
4255,-0.025,0.010
4256,-0.020,0.015
4257,-0.015,0.015
4258,-0.015,0.005
4259,-0.010,0.000
4260,-0.005,0.010
4261,0.000,0.010
4262,-0.010,0.000
4263,-0.020,-0.005
4264,-0.025,0.000
4265,-0.025,0.000
4266,-0.025,-0.010
4267,-0.025,-0.025
4268,-0.025,-0.030
4269,-0.030,-0.035
4270,-0.035,-0.035
4271,-0.030,-0.020
4272,-0.030,-0.010
4273,-0.030,-0.010
4274,-0.030,-0.020
4275,-0.030,-0.040
4276,-0.030,-0.070
4277,-0.035,-0.090
4278,-0.035,-0.085
4279,-0.030,-0.065
4280,-0.025,-0.035
4281,-0.025,-0.015
4282,-0.025,0.000
4283,-0.025,0.000
4284,-0.025,0.000
4285,-0.035,-0.005
4286,-0.045,-0.010
4287,-0.050,-0.005
4288,-0.055,0.000
4289,-0.055,0.000
4290,-0.055,0.015
4291,-0.050,0.030
4292,-0.035,0.065
4293,0.020,0.175
4294,0.165,0.400
4295,0.365,0.665
4296,0.495,0.810
4297,0.435,0.700
4298,0.230,0.390
4299,0.055,0.100
4300,-0.020,-0.025
4301,-0.045,-0.035
4302,-0.050,-0.010
4303,-0.050,-0.010
4304,-0.060,-0.025
4305,-0.065,-0.055
4306,-0.065,-0.085
4307,-0.065,-0.080
4308,-0.065,-0.065
4309,-0.065,-0.065
4310,-0.065,-0.065
4311,-0.060,-0.060
4312,-0.060,-0.070
4313,-0.060,-0.090
4314,-0.065,-0.105
4315,-0.060,-0.105
4316,-0.060,-0.100
4317,-0.065,-0.090
4318,-0.055,-0.065
4319,-0.050,-0.040
4320,-0.045,-0.040
4321,-0.045,-0.050
4322,-0.035,-0.040
4323,-0.020,-0.010
4324,-0.010,0.015
4325,0.000,0.030
4326,0.000,0.020
4327,0.000,0.010
4328,-0.005,0.005
4329,-0.015,0.000
4330,-0.020,-0.005
4331,-0.025,-0.010
4332,-0.025,0.000
4333,-0.025,0.005
4334,-0.025,0.010
4335,-0.025,0.000
4336,-0.030,0.000
4337,-0.030,0.000
4338,-0.035,-0.010
4339,-0.035,-0.020
4340,-0.030,-0.020
4341,-0.030,-0.025
4342,-0.035,-0.045
4343,-0.045,-0.065
4344,-0.040,-0.085
4345,-0.030,-0.085
4346,-0.030,-0.080
4347,-0.030,-0.080
4348,-0.030,-0.075
4349,-0.025,-0.070
4350,-0.025,-0.055
4351,-0.025,-0.055
4352,-0.025,-0.065
4353,-0.030,-0.045
4354,-0.045,-0.020
4355,-0.060,-0.015
4356,-0.065,-0.010
4357,-0.055,0.000
4358,-0.050,0.000
4359,-0.050,-0.005
4360,-0.055,-0.005
4361,-0.010,0.070
4362,0.130,0.290
4363,0.335,0.580
4364,0.485,0.765
4365,0.450,0.675
4366,0.255,0.380
4367,0.070,0.085
4368,-0.015,-0.055
4369,-0.040,-0.060
4370,-0.045,-0.045
4371,-0.055,-0.060
4372,-0.060,-0.085
4373,-0.065,-0.090
4374,-0.065,-0.085
4375,-0.065,-0.080
4376,-0.070,-0.075
4377,-0.070,-0.065
4378,-0.070,-0.065
4379,-0.070,-0.065
4380,-0.070,-0.060
4381,-0.065,-0.050
4382,-0.065,-0.030
4383,-0.060,-0.015
4384,-0.060,-0.015
4385,-0.065,-0.035
4386,-0.060,-0.055
4387,-0.055,-0.060
4388,-0.050,-0.055
4389,-0.045,-0.030
4390,-0.035,-0.005
4391,-0.025,0.005
4392,-0.015,0.010
4393,-0.015,0.010
4394,-0.010,0.015
4395,-0.005,0.015
4396,-0.005,0.015
4397,-0.005,0.000
4398,-0.010,-0.025
4399,-0.015,-0.050
4400,-0.020,-0.055
4401,-0.025,-0.045
4402,-0.025,-0.045
4403,-0.030,-0.045
4404,-0.035,-0.045
4405,-0.030,-0.045
4406,-0.030,-0.050
4407,-0.040,-0.045
4408,-0.045,-0.035
4409,-0.040,-0.020
4410,-0.030,-0.010
4411,-0.030,-0.025
4412,-0.035,-0.060
4413,-0.040,-0.085
4414,-0.035,-0.090
4415,-0.030,-0.090
4416,-0.030,-0.090
4417,-0.025,-0.095
4418,-0.025,-0.095
4419,-0.025,-0.095
4420,-0.035,-0.100
4421,-0.045,-0.085
4422,-0.050,-0.065
4423,-0.060,-0.060
4424,-0.070,-0.055
4425,-0.065,-0.040
4426,-0.055,-0.030
4427,-0.055,-0.035
4428,-0.045,-0.040
4429,-0.010,0.005
4430,0.090,0.175
4431,0.285,0.450
4432,0.470,0.680
4433,0.490,0.680
4434,0.315,0.420
4435,0.100,0.095
4436,-0.015,-0.095
4437,-0.055,-0.130
4438,-0.055,-0.100
4439,-0.055,-0.070
4440,-0.055,-0.065
4441,-0.055,-0.065
4442,-0.055,-0.050
4443,-0.060,-0.045
4444,-0.065,-0.045
4445,-0.070,-0.050
4446,-0.070,-0.055
4447,-0.070,-0.060
4448,-0.070,-0.070
4449,-0.070,-0.080
4450,-0.070,-0.075
4451,-0.065,-0.065
4452,-0.065,-0.065
4453,-0.060,-0.065
4454,-0.055,-0.055
4455,-0.055,-0.045
4456,-0.055,-0.040
4457,-0.050,-0.045
4458,-0.040,-0.040
4459,-0.030,-0.025
4460,-0.020,-0.005
4461,-0.015,0.005
4462,-0.005,0.015
4463,0.000,0.020
4464,0.000,0.015
4465,-0.010,0.000
4466,-0.020,-0.005
4467,-0.025,-0.020
4468,-0.030,-0.030
4469,-0.040,-0.045
4470,-0.045,-0.060
4471,-0.035,-0.055
4472,-0.025,-0.050
4473,-0.025,-0.060
4474,-0.030,-0.080
4475,-0.030,-0.110
4476,-0.030,-0.135
4477,-0.035,-0.160
4478,-0.040,-0.170
4479,-0.045,-0.170
4480,-0.050,-0.170
4481,-0.040,-0.170
4482,-0.035,-0.155
4483,-0.025,-0.150
4484,-0.025,-0.150
4485,-0.025,-0.170
4486,-0.025,-0.185
4487,-0.020,-0.200
4488,-0.020,-0.230
4489,-0.030,-0.250
4490,-0.040,-0.250
4491,-0.045,-0.235
4492,-0.050,-0.230
4493,-0.055,-0.240
4494,-0.060,-0.245
4495,-0.055,-0.215
4496,-0.035,-0.175
4497,-0.015,-0.120
4498,0.040,0.000
4499,0.185,0.240
4500,0.380,0.520
4501,0.480,0.625
4502,0.390,0.450
4503,0.185,0.120
4504,0.020,-0.140
4505,-0.040,-0.235
4506,-0.055,-0.210
4507,-0.050,-0.160
4508,-0.050,-0.145
4509,-0.050,-0.160
4510,-0.055,-0.180
4511,-0.065,-0.195
4512,-0.065,-0.195
4513,-0.065,-0.195
4514,-0.065,-0.205
4515,-0.060,-0.210
4516,-0.055,-0.200
4517,-0.040,-0.185
4518,-0.040,-0.185
4519,-0.050,-0.205
4520,-0.045,-0.225
4521,-0.035,-0.220
4522,-0.025,-0.195
4523,-0.025,-0.170
4524,-0.020,-0.140
4525,-0.015,-0.125
4526,-0.010,-0.125
4527,0.000,-0.100
4528,0.010,-0.065
4529,0.015,-0.060
4530,0.015,-0.060
4531,0.015,-0.060
4532,0.015,-0.060
4533,0.015,-0.070
4534,0.005,-0.090
4535,0.000,-0.115
4536,0.000,-0.140
4537,-0.005,-0.155
4538,-0.015,-0.160
4539,-0.020,-0.160
4540,-0.020,-0.145
4541,-0.010,-0.125
4542,-0.010,-0.125
4543,-0.015,-0.135
4544,-0.010,-0.140
4545,-0.005,-0.135
4546,-0.005,-0.130
4547,-0.015,-0.115
4548,-0.025,-0.105
4549,-0.025,-0.105
4550,-0.025,-0.130
4551,-0.025,-0.165
4552,-0.020,-0.180
4553,-0.010,-0.170
4554,0.000,-0.160
4555,0.000,-0.160
4556,0.000,-0.180
4557,-0.005,-0.195
4558,-0.015,-0.200
4559,-0.025,-0.195
4560,-0.030,-0.175
4561,-0.030,-0.165
4562,-0.030,-0.155
4563,-0.035,-0.140
4564,-0.040,-0.120
4565,-0.035,-0.105
4566,-0.030,-0.100
4567,0.000,-0.060
4568,0.085,0.080
4569,0.265,0.340
4570,0.440,0.550
4571,0.450,0.510
4572,0.270,0.235
4573,0.065,-0.065
4574,-0.025,-0.220
4575,-0.040,-0.210
4576,-0.025,-0.140
4577,-0.020,-0.110
4578,-0.025,-0.130
4579,-0.030,-0.155
4580,-0.035,-0.165
4581,-0.030,-0.165
4582,-0.025,-0.165
4583,-0.025,-0.165
4584,-0.030,-0.155
4585,-0.030,-0.140
4586,-0.030,-0.125
4587,-0.030,-0.115
4588,-0.025,-0.110
4589,-0.015,-0.105
4590,-0.010,-0.105
4591,-0.005,-0.105
4592,0.000,-0.090
4593,0.000,-0.075
4594,0.005,-0.065
4595,0.010,-0.050
4596,0.010,-0.045
4597,0.015,-0.030
4598,0.025,-0.015
4599,0.030,-0.010
4600,0.025,-0.020
4601,0.020,-0.025
4602,0.015,-0.040
4603,0.010,-0.065
4604,0.010,-0.070
4605,0.010,-0.060
4606,0.010,-0.055
4607,0.005,-0.070
4608,0.005,-0.100
4609,0.000,-0.115
4610,0.000,-0.125
4611,0.000,-0.125
4612,0.000,-0.125
4613,0.000,-0.125
4614,0.000,-0.130
4615,0.000,-0.135
4616,0.000,-0.140
4617,0.000,-0.150
4618,-0.005,-0.155
4619,-0.005,-0.155
4620,-0.005,-0.165
4621,-0.010,-0.175
4622,-0.010,-0.180
4623,0.000,-0.180
4624,0.000,-0.175
4625,0.000,-0.165
4626,0.000,-0.150
4627,0.000,-0.145
4628,-0.005,-0.150
4629,-0.010,-0.140
4630,-0.015,-0.130
4631,-0.015,-0.130
4632,-0.020,-0.155
4633,-0.030,-0.175
4634,-0.025,-0.165
4635,-0.020,-0.145
4636,-0.010,-0.110
4637,0.020,-0.050
4638,0.115,0.090
4639,0.290,0.335
4640,0.470,0.555
4641,0.490,0.550
4642,0.325,0.290
4643,0.115,-0.010
4644,0.010,-0.170
4645,-0.015,-0.175
4646,-0.015,-0.125
4647,-0.015,-0.090
4648,-0.020,-0.090
4649,-0.020,-0.120
4650,-0.015,-0.130
4651,-0.010,-0.130
4652,-0.005,-0.125
4653,-0.005,-0.125
4654,-0.015,-0.130
4655,-0.020,-0.130
4656,-0.025,-0.130
4657,-0.020,-0.140
4658,-0.015,-0.160
4659,-0.010,-0.165
4660,-0.005,-0.150
4661,0.000,-0.140
4662,0.000,-0.135
4663,-0.005,-0.130
4664,0.000,-0.120
4665,0.005,-0.120
4666,0.010,-0.115
4667,0.010,-0.100
4668,0.010,-0.075
4669,0.015,-0.055
4670,0.020,-0.040
4671,0.025,-0.025
4672,0.020,-0.030
4673,0.015,-0.045
4674,0.015,-0.065
4675,0.015,-0.070
4676,0.015,-0.070
4677,0.010,-0.075
4678,0.010,-0.100
4679,0.010,-0.120
4680,0.010,-0.125
4681,0.010,-0.130
4682,0.010,-0.140
4683,0.010,-0.130
4684,0.010,-0.110
4685,0.010,-0.090
4686,0.010,-0.090
4687,0.005,-0.095
4688,0.005,-0.115
4689,0.005,-0.140
4690,0.010,-0.155
4691,0.010,-0.165
4692,0.010,-0.160
4693,0.010,-0.155
4694,0.010,-0.155
4695,0.010,-0.170
4696,0.010,-0.175
4697,0.005,-0.155
4698,0.000,-0.120
4699,-0.005,-0.100
4700,-0.010,-0.095
4701,-0.015,-0.095
4702,-0.010,-0.090
4703,-0.010,-0.085
4704,-0.005,-0.070
4705,0.015,-0.025
4706,0.110,0.115
4707,0.290,0.370
4708,0.475,0.605
4709,0.525,0.650
4710,0.385,0.440
4711,0.180,0.130
4712,0.045,-0.075
4713,0.000,-0.125
4714,0.000,-0.105
4715,-0.005,-0.095
4716,-0.010,-0.095
4717,-0.015,-0.090
4718,-0.020,-0.090
4719,-0.025,-0.105
4720,-0.025,-0.115
4721,-0.025,-0.115
4722,-0.025,-0.110
4723,-0.025,-0.105
4724,-0.025,-0.095
4725,-0.030,-0.085
4726,-0.030,-0.085
4727,-0.025,-0.090
4728,-0.025,-0.085
4729,-0.020,-0.075
4730,-0.010,-0.060
4731,-0.005,-0.045
4732,0.000,-0.040
4733,0.000,-0.035
4734,0.000,-0.020
4735,0.005,-0.015
4736,0.010,-0.005
4737,0.010,0.000
4738,0.010,0.000
4739,0.010,0.000
4740,0.010,-0.005
4741,0.015,0.000
4742,0.015,0.000
4743,0.010,-0.020
4744,0.005,-0.040
4745,0.005,-0.045
4746,0.005,-0.055
4747,0.010,-0.070
4748,0.005,-0.100
4749,0.000,-0.115
4750,0.000,-0.095
4751,0.005,-0.055
4752,0.010,-0.050
4753,0.010,-0.065
4754,0.010,-0.080
4755,0.010,-0.095
4756,0.000,-0.115
4757,0.000,-0.110
4758,0.000,-0.100
4759,0.005,-0.090
4760,0.010,-0.090
4761,0.010,-0.085
4762,0.010,-0.070
4763,0.010,-0.060
4764,0.010,-0.050
4765,0.005,-0.040
4766,0.000,-0.035
4767,-0.005,-0.035
4768,-0.015,-0.040
4769,-0.015,-0.040
4770,-0.010,-0.030
4771,-0.010,-0.010
4772,-0.005,0.005
4773,0.020,0.055
4774,0.120,0.220
4775,0.300,0.500
4776,0.500,0.760
4777,0.555,0.800
4778,0.395,0.550
4779,0.165,0.185
4780,0.030,-0.055
4781,0.000,-0.125
4782,-0.005,-0.105
4783,-0.005,-0.090
4784,-0.010,-0.095
4785,-0.020,-0.105
4786,-0.025,-0.110
4787,-0.025,-0.115
4788,-0.025,-0.115
4789,-0.025,-0.105
4790,-0.020,-0.105
4791,-0.020,-0.105
4792,-0.025,-0.120
4793,-0.030,-0.125
4794,-0.030,-0.115
4795,-0.020,-0.095
4796,-0.020,-0.090
4797,-0.020,-0.095
4798,-0.020,-0.090
4799,-0.020,-0.080
4800,-0.015,-0.070
4801,-0.010,-0.070
4802,-0.005,-0.070
4803,0.000,-0.055
4804,0.010,-0.045
4805,0.010,-0.040
4806,0.010,-0.030
4807,0.015,-0.030
4808,0.015,-0.040
4809,0.010,-0.050
4810,0.010,-0.060
4811,0.010,-0.065
4812,0.005,-0.065
4813,0.000,-0.070
4814,0.000,-0.065
4815,0.000,-0.055
4816,0.000,-0.050
4817,0.000,-0.065
4818,0.000,-0.075
4819,0.000,-0.080
4820,0.000,-0.080
4821,0.000,-0.085
4822,0.000,-0.085
4823,0.000,-0.105
4824,0.000,-0.125
4825,-0.010,-0.140
4826,-0.015,-0.150
4827,0.000,-0.155
4828,0.005,-0.155
4829,0.010,-0.165
4830,0.010,-0.185
4831,0.005,-0.210
4832,0.000,-0.225
4833,0.000,-0.215
4834,-0.010,-0.200
4835,-0.015,-0.170
4836,-0.020,-0.145
4837,-0.025,-0.135
4838,-0.030,-0.135
4839,-0.030,-0.140
4840,-0.020,-0.145
4841,0.000,-0.110
4842,0.080,0.025
4843,0.255,0.290
4844,0.450,0.570
4845,0.530,0.650
4846,0.415,0.460
4847,0.200,0.135
4848,0.050,-0.100
4849,-0.005,-0.165
4850,-0.020,-0.115
4851,-0.025,-0.060
4852,-0.025,-0.040
4853,-0.020,-0.040
4854,-0.020,-0.045
4855,-0.030,-0.060
4856,-0.035,-0.070
4857,-0.030,-0.070
4858,-0.030,-0.075
4859,-0.025,-0.075
4860,-0.025,-0.075
4861,-0.030,-0.095
4862,-0.035,-0.105
4863,-0.035,-0.110
4864,-0.035,-0.125
4865,-0.035,-0.140
4866,-0.035,-0.145
4867,-0.030,-0.140
4868,-0.020,-0.115
4869,-0.015,-0.095
4870,-0.015,-0.090
4871,-0.010,-0.070
4872,0.000,-0.045
4873,0.005,-0.020
4874,0.010,-0.020
4875,0.010,-0.025
4876,0.010,-0.015
4877,0.010,-0.015
4878,0.005,-0.040
4879,0.000,-0.070
4880,0.000,-0.085
4881,0.000,-0.090
4882,0.000,-0.090
4883,0.000,-0.095
4884,0.000,-0.095
4885,0.000,-0.080
4886,0.000,-0.065
4887,-0.005,-0.055
4888,-0.005,-0.050
4889,-0.005,-0.050
4890,-0.015,-0.065
4891,-0.020,-0.085
4892,-0.015,-0.100
4893,-0.015,-0.110
4894,-0.015,-0.125
4895,-0.010,-0.125
4896,0.000,-0.105
4897,0.000,-0.080
4898,0.000,-0.080
4899,0.000,-0.095
4900,-0.010,-0.115
4901,-0.020,-0.120
4902,-0.025,-0.100
4903,-0.025,-0.070
4904,-0.030,-0.055
4905,-0.030,-0.055
4906,-0.030,-0.060
4907,-0.030,-0.060
4908,-0.030,-0.060
4909,-0.020,-0.030
4910,0.025,0.050
4911,0.165,0.270
4912,0.380,0.570
4913,0.520,0.750
4914,0.470,0.645
4915,0.270,0.330
4916,0.080,0.030
4917,0.000,-0.100
4918,-0.015,-0.095
4919,-0.020,-0.065
4920,-0.020,-0.070
4921,-0.025,-0.080
4922,-0.030,-0.085
4923,-0.035,-0.095
4924,-0.045,-0.105
4925,-0.050,-0.110
4926,-0.045,-0.090
4927,-0.040,-0.060
4928,-0.040,-0.040
4929,-0.040,-0.020
4930,-0.040,-0.010
4931,-0.040,-0.015
4932,-0.040,-0.030
4933,-0.040,-0.040
4934,-0.035,-0.040
4935,-0.025,-0.025
4936,-0.025,-0.005
4937,-0.025,0.000
4938,-0.020,0.005
4939,-0.010,0.010
4940,0.000,0.010
4941,0.000,0.010
4942,0.010,0.020
4943,0.010,0.035
4944,0.010,0.040
4945,0.010,0.035
4946,0.010,0.020
4947,0.005,0.010
4948,0.000,0.005
4949,0.000,0.000
4950,0.000,0.000
4951,-0.005,-0.015
4952,-0.010,-0.030
4953,-0.015,-0.045
4954,-0.015,-0.050
4955,-0.010,-0.045
4956,-0.010,-0.040
4957,-0.015,-0.040
4958,-0.020,-0.035
4959,-0.015,-0.020
4960,-0.015,-0.025
4961,-0.015,-0.040
4962,-0.015,-0.050
4963,-0.015,-0.050
4964,-0.010,-0.050
4965,-0.010,-0.060
4966,-0.010,-0.080
4967,0.000,-0.090
4968,0.000,-0.085
4969,0.000,-0.085
4970,0.000,-0.090
4971,-0.005,-0.095
4972,-0.015,-0.100
4973,-0.025,-0.095
4974,-0.030,-0.095
4975,-0.030,-0.095
4976,-0.030,-0.100
4977,-0.025,-0.100
4978,0.000,-0.055
4979,0.085,0.090
4980,0.260,0.350
4981,0.445,0.605
4982,0.520,0.660
4983,0.385,0.445
4984,0.165,0.115
4985,0.010,-0.105
4986,-0.030,-0.145
4987,-0.025,-0.080
4988,-0.025,-0.050
4989,-0.030,-0.070
4990,-0.030,-0.080
4991,-0.035,-0.080
4992,-0.040,-0.085
4993,-0.040,-0.085
4994,-0.045,-0.090
4995,-0.040,-0.085
4996,-0.035,-0.085
4997,-0.035,-0.085
4998,-0.030,-0.090
4999,-0.025,-0.095
5000,-0.025,-0.105
5001,-0.030,-0.110
5002,-0.030,-0.105
5003,-0.025,-0.090
5004,-0.010,-0.075
5005,0.000,-0.055
5006,0.000,-0.035
5007,0.005,-0.010
5008,0.010,0.005
5009,0.010,0.015
5010,0.010,0.015
5011,0.020,0.010
5012,0.020,0.000
5013,0.015,-0.005
5014,0.015,-0.005
5015,0.010,-0.010
5016,0.010,-0.030
5017,0.010,-0.045
5018,0.005,-0.045
5019,0.000,-0.035
5020,0.000,-0.035
5021,0.000,-0.045
5022,-0.005,-0.060
5023,-0.005,-0.055
5024,-0.015,-0.040
5025,-0.015,-0.030
5026,-0.010,-0.015
5027,0.000,0.000
5028,0.000,0.010
5029,0.000,0.015
5030,-0.005,0.010
5031,-0.005,0.000
5032,-0.005,-0.010
5033,0.000,-0.030
5034,0.000,-0.025
5035,0.005,-0.015
5036,0.005,-0.015
5037,0.005,-0.030
5038,0.005,-0.045
5039,0.000,-0.050
5040,0.000,-0.050
5041,0.000,-0.050
5042,-0.010,-0.055
5043,-0.015,-0.040
5044,-0.020,-0.020
5045,-0.020,-0.020
5046,-0.020,-0.030
5047,-0.020,-0.035
5048,0.000,0.005
5049,0.095,0.155
5050,0.270,0.400
5051,0.440,0.600
5052,0.465,0.595
5053,0.310,0.345
5054,0.110,0.035
5055,0.000,-0.130
5056,-0.030,-0.130
5057,-0.020,-0.055
5058,-0.010,-0.015
5059,-0.015,-0.025
5060,-0.025,-0.050
5061,-0.030,-0.065
5062,-0.030,-0.075
5063,-0.030,-0.085
5064,-0.025,-0.090
5065,-0.025,-0.085
5066,-0.025,-0.070
5067,-0.025,-0.060
5068,-0.025,-0.060
5069,-0.020,-0.065
5070,-0.020,-0.060
5071,-0.020,-0.055
5072,-0.015,-0.045
5073,-0.005,-0.025
5074,0.000,0.000
5075,0.000,0.015
5076,0.005,0.035
5077,0.015,0.050
5078,0.015,0.050
5079,0.020,0.040
5080,0.025,0.040
5081,0.030,0.045
5082,0.030,0.040
5083,0.020,0.025
5084,0.015,0.015
5085,0.010,0.015
5086,0.010,0.015
5087,0.005,0.010
5088,0.000,0.000
5089,-0.005,-0.015
5090,0.000,-0.015
5091,0.000,-0.015
5092,0.000,-0.025
5093,0.000,-0.040
5094,0.000,-0.050
5095,0.000,-0.055
5096,-0.005,-0.060
5097,-0.010,-0.055
5098,-0.015,-0.055
5099,-0.020,-0.060
5100,-0.020,-0.055
5101,-0.015,-0.045
5102,-0.005,-0.045
5103,0.000,-0.065
5104,0.000,-0.075
5105,0.005,-0.075
5106,0.005,-0.070
5107,0.000,-0.070
5108,0.000,-0.070
5109,-0.005,-0.065
5110,-0.010,-0.050
5111,-0.015,-0.045
5112,-0.025,-0.050
5113,-0.025,-0.045
5114,-0.030,-0.040
5115,-0.030,-0.025
5116,-0.030,-0.025
5117,-0.025,-0.025
5118,-0.005,0.010
5119,0.080,0.160
5120,0.265,0.420
5121,0.460,0.665
5122,0.510,0.700
5123,0.350,0.465
5124,0.135,0.135
5125,0.010,-0.060
5126,-0.020,-0.090
5127,-0.025,-0.055
5128,-0.025,-0.045
5129,-0.025,-0.060
5130,-0.030,-0.085
5131,-0.030,-0.090
5132,-0.030,-0.100
5133,-0.035,-0.110
5134,-0.040,-0.120
5135,-0.040,-0.120
5136,-0.035,-0.115
5137,-0.035,-0.115
5138,-0.035,-0.115
5139,-0.035,-0.125
5140,-0.035,-0.130
5141,-0.035,-0.125
5142,-0.030,-0.120
5143,-0.025,-0.110
5144,-0.025,-0.105
5145,-0.025,-0.100
5146,-0.020,-0.090
5147,-0.015,-0.075
5148,-0.005,-0.050
5149,0.000,-0.025
5150,0.010,-0.010
5151,0.010,0.000
5152,0.010,0.000
5153,0.010,-0.015
5154,0.010,-0.035
5155,0.010,-0.040
5156,0.005,-0.045
5157,0.000,-0.060
5158,0.000,-0.065
5159,0.000,-0.065
5160,0.000,-0.065
5161,0.000,-0.065
5162,-0.005,-0.070
5163,-0.005,-0.070
5164,0.000,-0.055
5165,0.000,-0.045
5166,0.000,-0.045
5167,0.000,-0.050
5168,0.000,-0.050
5169,-0.005,-0.060
5170,-0.015,-0.085
5171,-0.020,-0.100
5172,-0.010,-0.105
5173,-0.005,-0.110
5174,0.000,-0.110
5175,0.000,-0.105
5176,0.000,-0.105
5177,-0.005,-0.110
5178,-0.015,-0.120
5179,-0.020,-0.120
5180,-0.025,-0.110
5181,-0.030,-0.095
5182,-0.030,-0.085
5183,-0.030,-0.075
5184,-0.030,-0.065
5185,-0.025,-0.055
5186,0.000,-0.020
5187,0.075,0.095
5188,0.245,0.330
5189,0.440,0.580
5190,0.520,0.665
5191,0.405,0.500
5192,0.195,0.200
5193,0.040,-0.030
5194,-0.020,-0.105
5195,-0.030,-0.080
5196,-0.025,-0.050
5197,-0.025,-0.050
5198,-0.030,-0.060
5199,-0.030,-0.055
5200,-0.030,-0.050
5201,-0.035,-0.050
5202,-0.040,-0.065
5203,-0.050,-0.075
5204,-0.050,-0.070
5205,-0.040,-0.045
5206,-0.040,-0.040
5207,-0.040,-0.040
5208,-0.035,-0.040
5209,-0.030,-0.035
5210,-0.025,-0.040
5211,-0.025,-0.055
5212,-0.025,-0.060
5213,-0.015,-0.040
5214,-0.015,-0.030
5215,-0.015,-0.030
5216,-0.015,-0.020
5217,0.000,0.000
5218,0.005,0.015
5219,0.010,0.020
5220,0.010,0.020
5221,0.010,0.015
5222,0.010,0.010
5223,0.010,0.010
5224,0.005,0.010
5225,0.005,0.005
5226,0.000,0.000
5227,0.000,-0.010
5228,-0.005,-0.020
5229,-0.005,-0.020
5230,0.000,-0.010
5231,0.000,-0.005
5232,0.000,-0.005
5233,0.000,-0.005
5234,-0.005,-0.005
5235,0.000,-0.010
5236,0.000,-0.020
5237,0.000,-0.040
5238,-0.005,-0.055
5239,-0.010,-0.065
5240,-0.005,-0.060
5241,0.000,-0.040
5242,0.000,-0.040
5243,0.000,-0.040
5244,0.000,-0.050
5245,0.000,-0.060
5246,-0.010,-0.055
5247,-0.020,-0.045
5248,-0.020,-0.035
5249,-0.020,-0.015
5250,-0.020,-0.015
5251,-0.030,-0.020
5252,-0.030,-0.015
5253,-0.020,0.000
5254,0.000,0.040
5255,0.070,0.175
5256,0.240,0.430
5257,0.445,0.695
5258,0.530,0.770
5259,0.405,0.560
5260,0.190,0.230
5261,0.040,-0.010
5262,-0.015,-0.085
5263,-0.025,-0.075
5264,-0.030,-0.060
5265,-0.025,-0.060
5266,-0.030,-0.070
5267,-0.040,-0.090
5268,-0.045,-0.105
5269,-0.050,-0.100
5270,-0.050,-0.100
5271,-0.045,-0.100
5272,-0.040,-0.110
5273,-0.035,-0.110
5274,-0.030,-0.105
5275,-0.030,-0.105
5276,-0.035,-0.110
5277,-0.035,-0.105
5278,-0.030,-0.090
5279,-0.025,-0.090
5280,-0.025,-0.085
5281,-0.025,-0.080
5282,-0.020,-0.055
5283,-0.010,-0.035
5284,0.000,-0.010
5285,0.000,0.000
5286,0.005,0.010
5287,0.005,0.015
5288,0.000,0.000
5289,0.000,-0.025
5290,0.005,-0.030
5291,0.005,-0.020
5292,0.010,-0.015
5293,0.000,-0.020
5294,0.000,-0.025
5295,0.000,-0.040
5296,0.000,-0.070
5297,-0.005,-0.085
5298,-0.005,-0.085
5299,-0.005,-0.060
5300,-0.010,-0.040
5301,0.000,-0.020
5302,0.000,-0.005
5303,0.000,0.000
5304,0.000,-0.010
5305,-0.010,-0.035
5306,-0.020,-0.070
5307,-0.020,-0.090
5308,-0.010,-0.090
5309,0.000,-0.075
5310,0.000,-0.060
5311,0.000,-0.050
5312,0.000,-0.055
5313,0.000,-0.065
5314,-0.005,-0.075
5315,-0.010,-0.065
5316,-0.015,-0.055
5317,-0.020,-0.055
5318,-0.030,-0.065
5319,-0.030,-0.055
5320,-0.030,-0.040
5321,-0.035,-0.030
5322,-0.025,0.000
5323,0.050,0.115
5324,0.210,0.370
5325,0.415,0.665
5326,0.535,0.795
5327,0.450,0.645
5328,0.230,0.320
5329,0.050,0.040
5330,-0.015,-0.060
5331,-0.025,-0.025
5332,-0.030,0.010
5333,-0.030,0.005
5334,-0.030,0.000
5335,-0.040,-0.010
5336,-0.045,-0.015
5337,-0.035,-0.010
5338,-0.035,0.000
5339,-0.045,0.000
5340,-0.050,-0.005
5341,-0.035,0.000
5342,-0.030,0.000
5343,-0.025,0.000
5344,-0.025,0.000
5345,-0.030,-0.010
5346,-0.045,-0.020
5347,-0.045,-0.020
5348,-0.035,-0.010
5349,-0.025,0.000
5350,-0.015,0.000
5351,0.000,0.005
5352,0.000,0.015
5353,0.005,0.020
5354,0.005,0.020
5355,0.005,0.015
5356,0.005,0.015
5357,0.005,0.020
5358,0.015,0.025
5359,0.010,0.025
5360,0.010,0.020
5361,0.005,0.015
5362,0.000,0.005
5363,0.000,0.000
5364,-0.005,-0.005
5365,-0.005,-0.015
5366,-0.005,-0.025
5367,-0.010,-0.030
5368,-0.020,-0.045
5369,-0.030,-0.065
5370,-0.025,-0.060
5371,0.000,-0.030
5372,0.000,-0.020
5373,0.000,-0.035
5374,-0.010,-0.065
5375,-0.010,-0.085
5376,-0.010,-0.085
5377,0.000,-0.080
5378,0.000,-0.100
5379,-0.005,-0.115
5380,0.000,-0.095
5381,0.000,-0.085
5382,-0.010,-0.090
5383,-0.015,-0.090
5384,-0.020,-0.065
5385,-0.020,-0.055
5386,-0.030,-0.065
5387,-0.035,-0.070
5388,-0.030,-0.055
5389,-0.025,-0.055
5390,-0.015,-0.040
5391,0.020,0.030
5392,0.145,0.235
5393,0.345,0.535
5394,0.500,0.740
5395,0.480,0.690
5396,0.305,0.425
5397,0.120,0.135
5398,0.020,-0.020
5399,-0.010,-0.040
5400,-0.020,-0.020
5401,-0.025,-0.010
5402,-0.030,-0.015
5403,-0.040,-0.030
5404,-0.050,-0.040
5405,-0.045,-0.035
5406,-0.035,-0.025
5407,-0.035,-0.030
5408,-0.035,-0.035
5409,-0.035,-0.035
5410,-0.035,-0.040
5411,-0.040,-0.050
5412,-0.040,-0.055
5413,-0.035,-0.070
5414,-0.035,-0.095
5415,-0.030,-0.125
5416,-0.025,-0.130
5417,-0.025,-0.115
5418,-0.025,-0.100
5419,-0.025,-0.095
5420,-0.020,-0.090
5421,-0.005,-0.075
5422,0.000,-0.055
5423,0.005,-0.045
5424,0.010,-0.040
5425,0.010,-0.045
5426,0.010,-0.065
5427,0.010,-0.080
5428,0.005,-0.085
5429,0.005,-0.090
5430,0.000,-0.085
5431,0.000,-0.080
5432,0.000,-0.075
5433,0.000,-0.080
5434,-0.005,-0.090
5435,-0.005,-0.095
5436,-0.010,-0.100
5437,-0.010,-0.095
5438,-0.010,-0.095
5439,-0.015,-0.095
5440,-0.020,-0.100
5441,-0.020,-0.105
5442,-0.020,-0.105
5443,-0.020,-0.105
5444,-0.015,-0.115
5445,-0.005,-0.105
5446,0.000,-0.090
5447,0.000,-0.085
5448,0.000,-0.085
5449,0.000,-0.095
5450,-0.005,-0.115
5451,-0.015,-0.125
5452,-0.025,-0.105
5453,-0.030,-0.070
5454,-0.030,-0.045
5455,-0.030,-0.030
5456,-0.025,-0.015
5457,-0.025,-0.015
5458,-0.020,-0.015
5459,0.000,0.015
5460,0.090,0.165
5461,0.275,0.445
5462,0.480,0.705
5463,0.530,0.740
5464,0.380,0.500
5465,0.155,0.165
5466,0.025,-0.045
5467,-0.010,-0.100
5468,-0.020,-0.075
5469,-0.025,-0.055
5470,-0.030,-0.060
5471,-0.035,-0.080
5472,-0.035,-0.095
5473,-0.030,-0.095
5474,-0.025,-0.090
5475,-0.025,-0.090
5476,-0.030,-0.095
5477,-0.040,-0.100
5478,-0.045,-0.105
5479,-0.045,-0.110
5480,-0.050,-0.125
5481,-0.050,-0.140
5482,-0.045,-0.135
5483,-0.035,-0.120
5484,-0.025,-0.105
5485,-0.025,-0.105
5486,-0.025,-0.115
5487,-0.020,-0.115
5488,-0.015,-0.105
5489,-0.005,-0.090
5490,0.000,-0.070
5491,0.000,-0.040
5492,0.010,-0.020
5493,0.010,-0.020
5494,0.010,-0.025
5495,0.010,-0.035
5496,0.005,-0.040
5497,0.000,-0.055
5498,0.000,-0.070
5499,0.000,-0.075
5500,-0.010,-0.070
5501,-0.010,-0.060
5502,0.000,-0.035
5503,0.005,-0.020
5504,0.005,-0.030
5505,0.000,-0.040
5506,-0.010,-0.045
5507,-0.015,-0.040
5508,-0.015,-0.030
5509,-0.010,-0.025
5510,-0.010,-0.030
5511,-0.010,-0.050
5512,-0.005,-0.070
5513,0.000,-0.075
5514,0.000,-0.080
5515,0.000,-0.080
5516,0.005,-0.065
5517,0.005,-0.065
5518,0.000,-0.070
5519,0.000,-0.070
5520,-0.005,-0.060
5521,-0.015,-0.050
5522,-0.020,-0.045
5523,-0.025,-0.035
5524,-0.030,-0.035
5525,-0.030,-0.035
5526,-0.025,-0.030
5527,-0.005,0.000
5528,0.055,0.095
5529,0.200,0.305
5530,0.400,0.560
5531,0.525,0.690
5532,0.460,0.565
5533,0.250,0.255
5534,0.070,-0.015
5535,-0.005,-0.125
5536,-0.020,-0.110
5537,-0.020,-0.075
5538,-0.025,-0.070
5539,-0.025,-0.080
5540,-0.025,-0.075
5541,-0.025,-0.075
5542,-0.030,-0.085
5543,-0.030,-0.095
5544,-0.030,-0.090
5545,-0.030,-0.090
5546,-0.030,-0.085
5547,-0.030,-0.085
5548,-0.030,-0.075
5549,-0.030,-0.075
5550,-0.025,-0.070
5551,-0.015,-0.050
5552,0.000,-0.025
5553,0.000,-0.020
5554,0.000,-0.030
5555,0.000,-0.035
5556,0.000,-0.020
5557,0.010,0.000
5558,0.015,0.010
5559,0.025,0.020
5560,0.030,0.025
5561,0.030,0.025
5562,0.030,0.025
5563,0.030,0.035
5564,0.025,0.030
5565,0.020,0.010
5566,0.010,-0.015
5567,0.010,-0.050
5568,0.010,-0.065
5569,0.010,-0.065
5570,0.005,-0.065
5571,0.005,-0.065
5572,0.005,-0.080
5573,0.010,-0.090
5574,0.005,-0.080
5575,0.005,-0.060
5576,0.005,-0.035
5577,0.010,-0.025
5578,0.005,-0.030
5579,0.000,-0.045
5580,0.000,-0.060
5581,0.000,-0.060
5582,0.005,-0.060
5583,0.005,-0.060
5584,0.010,-0.060
5585,0.010,-0.065
5586,0.010,-0.050
5587,0.015,-0.035
5588,0.010,-0.035
5589,0.010,-0.030
5590,0.010,-0.025
5591,0.000,-0.025
5592,-0.005,-0.030
5593,-0.010,-0.030
5594,-0.005,-0.030
5595,0.000,-0.030
5596,0.000,-0.005
5597,0.020,0.060
5598,0.125,0.235
5599,0.305,0.500
5600,0.480,0.705
5601,0.495,0.665
5602,0.335,0.385
5603,0.140,0.070
5604,0.030,-0.095
5605,0.000,-0.095
5606,0.000,-0.045
5607,0.005,-0.030
5608,0.005,-0.045
5609,0.000,-0.060
5610,0.000,-0.050
5611,0.000,-0.050
5612,0.000,-0.050
5613,0.000,-0.040
5614,0.005,-0.025
5615,0.010,-0.025
5616,0.010,-0.020
5617,0.010,-0.005
5618,0.010,0.000
5619,0.010,0.000
5620,0.010,-0.005
5621,0.015,0.000
5622,0.020,0.010
5623,0.025,0.025
5624,0.035,0.030
5625,0.040,0.045
5626,0.050,0.075
5627,0.055,0.110
5628,0.055,0.115
5629,0.060,0.100
5630,0.065,0.085
5631,0.060,0.080
5632,0.060,0.080
5633,0.055,0.070
5634,0.045,0.055
5635,0.040,0.045
5636,0.030,0.035
5637,0.030,0.030
5638,0.025,0.030
5639,0.020,0.020
5640,0.020,0.015
5641,0.025,0.015
5642,0.030,0.020
5643,0.025,0.020
5644,0.025,0.025
5645,0.020,0.030
5646,0.020,0.035
5647,0.020,0.040
5648,0.025,0.035
5649,0.020,0.020
5650,0.015,0.010
5651,0.015,0.000
5652,0.020,0.000
5653,0.025,0.000
5654,0.030,0.000
5655,0.035,-0.010
5656,0.030,-0.025
5657,0.025,-0.040
5658,0.025,-0.035
5659,0.030,-0.010
5660,0.025,0.000
5661,0.020,0.000
5662,0.010,0.000
5663,0.010,0.000
5664,0.010,0.000
5665,0.010,0.010
5666,0.010,0.025
5667,0.035,0.075
5668,0.115,0.215
5669,0.280,0.450
5670,0.470,0.680
5671,0.550,0.730
5672,0.425,0.515
5673,0.195,0.190
5674,0.050,-0.020
5675,0.015,-0.035
5676,0.015,0.010
5677,0.020,0.030
5678,0.020,0.020
5679,0.015,0.010
5680,0.010,0.000
5681,0.010,-0.015
5682,0.010,-0.020
5683,0.010,-0.015
5684,0.010,-0.010
5685,0.010,-0.005
5686,0.015,0.000
5687,0.015,0.010
5688,0.020,0.015
5689,0.015,0.015
5690,0.015,0.020
5691,0.020,0.025
5692,0.025,0.030
5693,0.025,0.025
5694,0.025,0.025
5695,0.030,0.030
5696,0.040,0.035
5697,0.045,0.045
5698,0.050,0.060
5699,0.060,0.075
5700,0.060,0.080
5701,0.060,0.085
5702,0.060,0.090
5703,0.060,0.085
5704,0.055,0.080
5705,0.050,0.070
5706,0.040,0.060
5707,0.040,0.060
5708,0.035,0.070
5709,0.030,0.075
5710,0.025,0.070
5711,0.020,0.065
5712,0.020,0.065
5713,0.035,0.085
5714,0.035,0.085
5715,0.025,0.070
5716,0.025,0.055
5717,0.020,0.050
5718,0.020,0.045
5719,0.020,0.035
5720,0.025,0.030
5721,0.025,0.020
5722,0.025,0.010
5723,0.020,0.000
5724,0.020,0.005
5725,0.035,0.015
5726,0.040,0.015
5727,0.025,0.005
5728,0.020,0.005
5729,0.020,0.010
5730,0.010,0.015
5731,0.010,0.025
5732,0.010,0.035
5733,0.010,0.035
5734,0.010,0.025
5735,0.010,0.030
5736,0.035,0.085
5737,0.125,0.235
5738,0.290,0.480
5739,0.475,0.720
5740,0.545,0.775
5741,0.425,0.585
5742,0.225,0.270
5743,0.080,0.045
5744,0.020,-0.020
5745,0.010,-0.010
5746,0.010,0.005
5747,0.010,0.010
5748,0.010,0.010
5749,0.010,0.005
5750,0.010,0.000
5751,0.010,0.000
5752,0.010,0.005
5753,0.010,0.010
5754,0.010,0.005
5755,0.010,0.000
5756,0.010,-0.005
5757,0.010,-0.005
5758,0.010,-0.015
5759,0.010,-0.025
5760,0.010,-0.030
5761,0.010,-0.015
5762,0.010,0.000
5763,0.010,0.000
5764,0.010,0.000
5765,0.010,0.000
5766,0.020,0.015
5767,0.030,0.040
5768,0.040,0.060
5769,0.045,0.075
5770,0.050,0.080
5771,0.045,0.070
5772,0.035,0.050
5773,0.035,0.045
5774,0.030,0.050
5775,0.020,0.055
5776,0.020,0.055
5777,0.020,0.060
5778,0.025,0.065
5779,0.025,0.065
5780,0.020,0.060
5781,0.020,0.060
5782,0.020,0.055
5783,0.020,0.045
5784,0.015,0.025
5785,0.010,0.005
5786,0.010,-0.010
5787,0.010,-0.040
5788,0.010,-0.070
5789,0.015,-0.060
5790,0.025,-0.030
5791,0.025,-0.010
5792,0.020,-0.005
5793,0.020,-0.005
5794,0.020,-0.005
5795,0.015,0.000
5796,0.010,0.000
5797,0.005,0.005
5798,0.000,0.005
5799,0.000,0.005
5800,0.000,0.015
5801,0.005,0.025
5802,0.005,0.035
5803,0.005,0.035
5804,0.030,0.080
5805,0.125,0.240
5806,0.310,0.525
5807,0.510,0.790
5808,0.555,0.820
5809,0.395,0.580
5810,0.185,0.275
5811,0.060,0.075
5812,0.020,0.005
5813,0.010,0.000
5814,0.005,0.000
5815,0.000,0.000
5816,0.000,0.000
5817,0.000,0.000
5818,0.000,0.005
5819,-0.005,0.010
5820,-0.005,0.015
5821,-0.005,0.020
5822,0.000,0.020
5823,0.000,0.020
5824,0.000,0.015
5825,0.000,0.010
5826,0.000,0.005
5827,0.000,0.005
5828,0.000,0.005
5829,0.000,0.005
5830,0.000,0.010
5831,0.005,0.010
5832,0.010,0.010
5833,0.010,0.010
5834,0.010,0.020
5835,0.015,0.045
5836,0.030,0.075
5837,0.040,0.090
5838,0.040,0.090
5839,0.040,0.095
5840,0.035,0.095
5841,0.030,0.080
5842,0.020,0.050
5843,0.020,0.040
5844,0.015,0.040
5845,0.010,0.035
5846,0.010,0.030
5847,0.010,0.030
5848,0.010,0.050
5849,0.010,0.060
5850,0.010,0.065
5851,0.010,0.070
5852,0.010,0.070
5853,0.010,0.060
5854,0.010,0.040
5855,0.010,0.025
5856,0.010,0.015
5857,0.010,0.015
5858,0.010,0.015
5859,0.010,0.020
5860,0.010,0.025
5861,0.015,0.025
5862,0.020,0.030
5863,0.010,0.020
5864,0.000,0.015
5865,0.000,0.010
5866,0.000,0.010
5867,0.000,0.015
5868,0.000,0.025
5869,0.000,0.035
5870,0.000,0.035
5871,0.005,0.040
5872,0.040,0.105
5873,0.145,0.275
5874,0.325,0.545
5875,0.495,0.765
5876,0.525,0.770
5877,0.380,0.535
5878,0.175,0.220
5879,0.050,0.020
5880,0.010,-0.020
5881,0.005,0.000
5882,0.000,0.015
5883,0.000,0.015
5884,-0.005,0.015
5885,-0.010,0.010
5886,-0.020,-0.010
5887,-0.025,-0.025
5888,-0.015,-0.015
5889,0.000,-0.005
5890,0.000,-0.010
5891,0.000,-0.015
5892,-0.005,-0.005
5893,0.000,0.000
5894,-0.005,0.005
5895,-0.015,0.000
5896,-0.015,0.000
5897,0.000,0.000
5898,0.000,0.010
5899,0.005,0.025
5900,0.010,0.040
5901,0.010,0.050
5902,0.010,0.055
5903,0.015,0.065
5904,0.025,0.085
5905,0.030,0.095
5906,0.020,0.090
5907,0.015,0.085
5908,0.020,0.085
5909,0.035,0.085
5910,0.035,0.075
5911,0.025,0.055
5912,0.015,0.050
5913,0.010,0.045
5914,0.005,0.045
5915,0.010,0.060
5916,0.010,0.085
5917,0.010,0.105
5918,0.010,0.115
5919,0.010,0.115
5920,0.010,0.105
5921,0.010,0.095
5922,0.010,0.080
5923,0.010,0.055
5924,0.010,0.030
5925,0.010,0.005
5926,0.010,0.000
5927,0.010,0.005
5928,0.010,0.020
5929,0.010,0.045
5930,0.010,0.045
5931,0.010,0.040
5932,0.010,0.045
5933,0.005,0.070
5934,0.000,0.075
5935,-0.005,0.075
5936,-0.015,0.075
5937,-0.020,0.075
5938,-0.005,0.075
5939,0.000,0.080
5940,0.015,0.115
5941,0.105,0.280
5942,0.285,0.555
5943,0.475,0.805
5944,0.535,0.830
5945,0.400,0.595
5946,0.190,0.250
5947,0.045,0.020
5948,0.000,-0.035
5949,0.000,0.000
5950,0.005,0.025
5951,0.005,0.020
5952,0.000,0.010
5953,-0.010,0.000
5954,-0.020,0.000
5955,-0.025,0.000
5956,-0.025,0.005
5957,-0.025,0.015
5958,-0.025,0.020
5959,-0.025,0.020
5960,-0.025,0.020
5961,-0.025,0.025
5962,-0.025,0.020
5963,-0.025,0.010
5964,-0.020,0.000
5965,-0.015,0.000
5966,0.000,0.010
5967,0.000,0.025
5968,0.005,0.040
5969,0.010,0.060
5970,0.010,0.075
5971,0.010,0.090
5972,0.010,0.095
5973,0.015,0.095
5974,0.025,0.110
5975,0.035,0.125
5976,0.035,0.115
5977,0.020,0.075
5978,0.015,0.040
5979,0.010,0.020
5980,0.010,0.015
5981,0.010,0.015
5982,0.010,0.025
5983,0.010,0.035
5984,0.005,0.035
5985,0.000,0.025
5986,0.000,0.020
5987,0.000,0.015
5988,0.000,0.015
5989,0.005,0.030
5990,0.010,0.050
5991,0.010,0.055
5992,0.010,0.045
5993,0.005,0.030
5994,0.005,0.030
5995,0.010,0.025
5996,0.010,0.010
5997,0.010,-0.005
5998,0.005,-0.025
5999,0.000,-0.065
6000,-0.010,-0.090
6001,-0.005,-0.065
6002,0.000,-0.020
6003,0.000,0.000
6004,0.000,-0.015
6005,-0.005,-0.035
6006,-0.015,-0.050
6007,-0.010,-0.060
6008,0.005,-0.030
6009,0.075,0.085
6010,0.235,0.340
6011,0.435,0.635
6012,0.550,0.745
6013,0.440,0.540
6014,0.210,0.190
6015,0.060,-0.035
6016,0.020,-0.095
6017,0.015,-0.065
6018,0.005,-0.050
6019,0.000,-0.055
6020,-0.005,-0.060
6021,-0.015,-0.070
6022,-0.020,-0.075
6023,-0.025,-0.065
6024,-0.020,-0.050
6025,-0.015,-0.040
6026,-0.005,-0.030
6027,0.000,-0.030
6028,0.000,-0.030
6029,-0.005,-0.020
6030,-0.010,-0.010
6031,-0.005,-0.010
6032,-0.005,-0.015
6033,0.000,-0.020
6034,0.000,-0.010
6035,0.005,0.000
6036,0.010,0.005
6037,0.010,0.010
6038,0.010,0.015
6039,0.015,0.020
6040,0.030,0.030
6041,0.040,0.045
6042,0.045,0.045
6043,0.045,0.035
6044,0.035,0.025
6045,0.025,0.025
6046,0.020,0.020
6047,0.010,0.015
6048,0.010,0.010
6049,0.010,0.015
6050,0.010,0.015
6051,0.010,0.010
6052,0.010,0.010
6053,0.010,0.015
6054,0.010,0.015
6055,0.010,0.010
6056,0.010,0.000
6057,0.005,-0.005
6058,0.000,-0.025
6059,0.000,-0.040
6060,0.000,-0.055
6061,0.000,-0.080
6062,0.005,-0.090
6063,0.010,-0.075
6064,0.015,-0.045
6065,0.010,-0.035
6066,0.010,-0.035
6067,0.010,-0.025
6068,0.010,-0.025
6069,0.005,-0.025
6070,0.000,-0.010
6071,-0.005,0.000
6072,-0.010,0.005
6073,-0.010,0.010
6074,-0.010,0.005
6075,-0.015,0.000
6076,-0.020,0.005
6077,0.005,0.060
6078,0.100,0.220
6079,0.265,0.470
6080,0.440,0.695
6081,0.490,0.720
6082,0.360,0.490
6083,0.155,0.165
6084,0.025,-0.035
6085,-0.010,-0.065
6086,-0.005,-0.015
6087,-0.005,0.005
6088,-0.005,0.010
6089,-0.010,0.005
6090,-0.015,0.000
6091,-0.025,-0.015
6092,-0.020,-0.015
6093,-0.005,0.000
6094,-0.005,0.005
6095,-0.010,-0.005
6096,-0.010,-0.025
6097,0.000,-0.020
6098,0.000,-0.020
6099,-0.005,-0.030
6100,0.000,-0.045
6101,0.000,-0.050
6102,0.000,-0.050
6103,0.005,-0.030
6104,0.010,-0.010
6105,0.010,0.000
6106,0.015,0.000
6107,0.030,0.010
6108,0.040,0.030
6109,0.045,0.045
6110,0.050,0.045
6111,0.035,0.035
6112,0.020,0.025
6113,0.020,0.020
6114,0.020,0.020
6115,0.020,0.005
6116,0.015,0.000
6117,0.010,0.000
6118,0.010,-0.010
6119,0.010,-0.020
6120,0.005,-0.030
6121,0.005,-0.040
6122,0.005,-0.050
6123,0.005,-0.065
6124,0.000,-0.090
6125,0.000,-0.095
6126,0.005,-0.080
6127,0.000,-0.070
6128,0.000,-0.065
6129,0.005,-0.055
6130,0.000,-0.055
6131,0.000,-0.075
6132,-0.005,-0.090
6133,0.000,-0.090
6134,0.005,-0.080
6135,0.010,-0.075
6136,0.010,-0.080
6137,0.005,-0.095
6138,0.000,-0.100
6139,0.000,-0.085
6140,0.000,-0.050
6141,-0.010,-0.030
6142,-0.020,-0.020
6143,-0.020,-0.010
6144,-0.025,-0.005
6145,-0.020,0.000
6146,-0.010,0.015
6147,0.000,0.065
6148,0.075,0.205
6149,0.245,0.445
6150,0.440,0.675
6151,0.495,0.690
6152,0.350,0.445
6153,0.135,0.110
6154,0.010,-0.080
6155,-0.015,-0.090
6156,-0.005,-0.035
6157,-0.005,-0.005
6158,-0.005,0.000
6159,-0.015,-0.005
6160,-0.020,-0.020
6161,-0.025,-0.020
6162,-0.025,-0.005
6163,-0.030,0.000
6164,-0.030,0.000
6165,-0.030,0.000
6166,-0.030,0.005
6167,-0.025,0.015
6168,-0.015,0.020
6169,-0.015,0.015
6170,-0.020,0.010
6171,-0.015,0.010
6172,-0.015,0.015
6173,-0.010,0.020
6174,-0.005,0.030
6175,0.000,0.040
6176,0.000,0.045
6177,0.000,0.050
6178,0.010,0.070
6179,0.020,0.080
6180,0.020,0.080
6181,0.020,0.070
6182,0.015,0.055
6183,0.010,0.045
6184,0.010,0.025
6185,0.005,0.005
6186,0.005,0.000
6187,0.005,-0.005
6188,0.000,-0.015
6189,0.000,-0.035
6190,-0.005,-0.055
6191,-0.005,-0.060
6192,0.000,-0.065
6193,0.000,-0.070
6194,0.000,-0.070
6195,0.000,-0.070
6196,0.000,-0.065
6197,0.000,-0.055
6198,-0.005,-0.055
6199,-0.010,-0.070
6200,-0.015,-0.100
6201,-0.020,-0.125
6202,-0.010,-0.130
6203,0.000,-0.120
6204,0.000,-0.120
6205,0.000,-0.130
6206,-0.005,-0.130
6207,-0.005,-0.120
6208,-0.010,-0.100
6209,-0.010,-0.070
6210,-0.020,-0.045
6211,-0.030,-0.030
6212,-0.030,-0.015
6213,-0.030,-0.005
6214,-0.035,-0.005
6215,-0.035,-0.005
6216,-0.015,0.020
6217,0.040,0.125
6218,0.180,0.330
6219,0.365,0.590
6220,0.495,0.735
6221,0.445,0.630
6222,0.245,0.320
6223,0.065,0.035
6224,0.000,-0.055
6225,-0.020,-0.025
6226,-0.025,0.000
6227,-0.025,0.000
6228,-0.025,-0.010
6229,-0.025,-0.030
6230,-0.030,-0.045
6231,-0.035,-0.055
6232,-0.030,-0.050
6233,-0.025,-0.045
6234,-0.025,-0.045
6235,-0.025,-0.050
6236,-0.030,-0.055
6237,-0.030,-0.060
6238,-0.030,-0.070
6239,-0.025,-0.070
6240,-0.020,-0.055
6241,-0.015,-0.035
6242,-0.015,-0.035
6243,-0.020,-0.035
6244,-0.010,-0.030
6245,0.000,-0.020
6246,0.000,-0.005
6247,0.005,0.000
6248,0.010,0.005
6249,0.010,0.005
6250,0.010,0.000
6251,0.005,-0.005
6252,0.005,-0.010
6253,0.010,-0.015
6254,0.005,-0.030
6255,0.000,-0.040
6256,0.000,-0.050
6257,0.000,-0.050
6258,0.000,-0.050
6259,0.000,-0.060
6260,0.000,-0.065
6261,-0.005,-0.070
6262,-0.005,-0.070
6263,-0.005,-0.085
6264,-0.010,-0.105
6265,-0.015,-0.130
6266,-0.015,-0.145
6267,-0.015,-0.175
6268,-0.010,-0.195
6269,0.000,-0.190
6270,0.000,-0.170
6271,0.000,-0.170
6272,0.000,-0.175
6273,-0.005,-0.175
6274,0.000,-0.165
6275,0.000,-0.155
6276,0.000,-0.150
6277,-0.015,-0.150
6278,-0.025,-0.150
6279,-0.030,-0.145
6280,-0.030,-0.135
6281,-0.025,-0.135
6282,-0.025,-0.140
6283,-0.030,-0.145
6284,-0.020,-0.120
6285,0.025,-0.030
6286,0.160,0.185
6287,0.355,0.450
6288,0.490,0.590
6289,0.445,0.490
6290,0.260,0.210
6291,0.085,-0.070
6292,0.000,-0.210
6293,-0.020,-0.205
6294,-0.020,-0.165
6295,-0.020,-0.150
6296,-0.025,-0.155
6297,-0.030,-0.155
6298,-0.030,-0.165
6299,-0.035,-0.185
6300,-0.040,-0.190
6301,-0.035,-0.185
6302,-0.030,-0.170
6303,-0.035,-0.165
6304,-0.040,-0.160
6305,-0.035,-0.160
6306,-0.030,-0.165
6307,-0.025,-0.165
6308,-0.025,-0.160
6309,-0.030,-0.150
6310,-0.025,-0.150
6311,-0.020,-0.145
6312,-0.015,-0.135
6313,-0.010,-0.115
6314,-0.005,-0.100
6315,-0.005,-0.100
6316,0.000,-0.105
6317,0.005,-0.110
6318,0.010,-0.100
6319,0.010,-0.095
6320,0.010,-0.100
6321,0.005,-0.105
6322,0.000,-0.100
6323,0.000,-0.095
6324,-0.005,-0.105
6325,-0.015,-0.125
6326,-0.010,-0.125
6327,0.000,-0.110
6328,-0.005,-0.120
6329,-0.010,-0.130
6330,-0.005,-0.125
6331,-0.005,-0.125
6332,-0.010,-0.130
6333,-0.015,-0.135
6334,-0.015,-0.135
6335,-0.015,-0.125
6336,-0.015,-0.125
6337,-0.020,-0.125
6338,-0.020,-0.135
6339,-0.015,-0.135
6340,-0.005,-0.130
6341,0.000,-0.135
6342,0.000,-0.135
6343,0.000,-0.140
6344,-0.005,-0.150
6345,-0.015,-0.150
6346,-0.020,-0.150
6347,-0.025,-0.150
6348,-0.030,-0.150
6349,-0.030,-0.145
6350,-0.035,-0.140
6351,-0.035,-0.135
6352,-0.030,-0.115
6353,0.010,-0.025
6354,0.145,0.175
6355,0.345,0.460
6356,0.510,0.645
6357,0.475,0.550
6358,0.260,0.240
6359,0.070,-0.050
6360,-0.005,-0.190
6361,-0.020,-0.200
6362,-0.025,-0.170
6363,-0.030,-0.170
6364,-0.035,-0.170
6365,-0.030,-0.175
6366,-0.030,-0.185
6367,-0.040,-0.190
6368,-0.045,-0.185
6369,-0.045,-0.180
6370,-0.050,-0.170
6371,-0.040,-0.160
6372,-0.035,-0.155
6373,-0.035,-0.155
6374,-0.030,-0.145
6375,-0.030,-0.135
6376,-0.030,-0.120
6377,-0.035,-0.115
6378,-0.035,-0.110
6379,-0.030,-0.100
6380,-0.025,-0.080
6381,-0.020,-0.065
6382,-0.015,-0.045
6383,-0.005,-0.035
6384,0.000,-0.030
6385,0.005,-0.015
6386,0.010,-0.005
6387,0.010,0.000
6388,0.010,0.000
6389,0.005,0.000
6390,0.000,-0.010
6391,-0.005,-0.025
6392,-0.010,-0.025
6393,-0.015,-0.025
6394,-0.015,-0.040
6395,-0.020,-0.060
6396,-0.020,-0.065
6397,-0.015,-0.065
6398,-0.015,-0.060
6399,-0.010,-0.040
6400,-0.010,-0.025
6401,-0.010,-0.015
6402,-0.015,-0.015
6403,-0.020,-0.030
6404,-0.025,-0.040
6405,-0.025,-0.050
6406,-0.025,-0.060
6407,-0.015,-0.060
6408,-0.010,-0.055
6409,-0.005,-0.050
6410,-0.005,-0.050
6411,-0.010,-0.060
6412,-0.020,-0.065
6413,-0.025,-0.050
6414,-0.030,-0.035
6415,-0.035,-0.025
6416,-0.035,-0.010
6417,-0.035,0.000
6418,-0.035,-0.010
6419,-0.045,-0.025
6420,-0.035,-0.015
6421,0.005,0.055
6422,0.125,0.235
6423,0.320,0.495
6424,0.475,0.680
6425,0.460,0.625
6426,0.285,0.345
6427,0.085,0.040
6428,-0.005,-0.100
6429,-0.025,-0.100
6430,-0.025,-0.065
6431,-0.025,-0.060
6432,-0.035,-0.075
6433,-0.045,-0.075
6434,-0.040,-0.055
6435,-0.035,-0.050
6436,-0.035,-0.040
6437,-0.040,-0.040
6438,-0.045,-0.050
6439,-0.045,-0.060
6440,-0.045,-0.065
6441,-0.040,-0.075
6442,-0.040,-0.095
6443,-0.040,-0.120
6444,-0.045,-0.130
6445,-0.040,-0.135
6446,-0.030,-0.135
6447,-0.025,-0.125
6448,-0.020,-0.095
6449,-0.015,-0.070
6450,-0.010,-0.050
6451,-0.005,-0.050
6452,0.000,-0.055
6453,0.000,-0.055
6454,0.005,-0.065
6455,0.010,-0.080
6456,0.010,-0.090
6457,0.005,-0.100
6458,0.000,-0.105
6459,0.000,-0.105
6460,0.000,-0.105
6461,0.000,-0.120
6462,-0.010,-0.135
6463,-0.015,-0.140
6464,-0.015,-0.140
6465,-0.015,-0.140
6466,-0.015,-0.135
6467,-0.015,-0.130
6468,-0.010,-0.120
6469,-0.010,-0.110
6470,-0.010,-0.105
6471,-0.020,-0.120
6472,-0.025,-0.140
6473,-0.020,-0.155
6474,-0.015,-0.155
6475,-0.010,-0.150
6476,-0.010,-0.145
6477,-0.015,-0.145
6478,-0.010,-0.140
6479,-0.005,-0.140
6480,-0.005,-0.140
6481,-0.015,-0.135
6482,-0.020,-0.125
6483,-0.030,-0.110
6484,-0.045,-0.110
6485,-0.050,-0.105
6486,-0.045,-0.100
6487,-0.035,-0.080
6488,-0.030,-0.070
6489,-0.005,-0.030
6490,0.090,0.125
6491,0.285,0.415
6492,0.470,0.650
6493,0.490,0.645
6494,0.325,0.390
6495,0.125,0.070
6496,0.005,-0.115
6497,-0.025,-0.140
6498,-0.025,-0.100
6499,-0.025,-0.080
6500,-0.030,-0.095
6501,-0.040,-0.120
6502,-0.045,-0.135
6503,-0.045,-0.130
6504,-0.040,-0.125
6505,-0.040,-0.120
6506,-0.040,-0.110
6507,-0.040,-0.100
6508,-0.040,-0.095
6509,-0.045,-0.110
6510,-0.050,-0.115
6511,-0.045,-0.105
6512,-0.035,-0.095
6513,-0.035,-0.105
6514,-0.035,-0.110
6515,-0.030,-0.105
6516,-0.025,-0.100
6517,-0.020,-0.095
6518,-0.015,-0.085
6519,-0.005,-0.070
6520,0.000,-0.060
6521,0.010,-0.055
6522,0.010,-0.045
6523,0.010,-0.035
6524,0.005,-0.035
6525,0.000,-0.055
6526,-0.005,-0.085
6527,-0.010,-0.090
6528,-0.010,-0.085
6529,-0.015,-0.080
6530,-0.020,-0.080
6531,-0.010,-0.075
6532,-0.010,-0.060
6533,-0.010,-0.060
6534,-0.010,-0.070
6535,-0.015,-0.085
6536,-0.015,-0.110
6537,-0.020,-0.125
6538,-0.025,-0.130
6539,-0.030,-0.120
6540,-0.025,-0.120
6541,-0.025,-0.135
6542,-0.020,-0.130
6543,-0.015,-0.110
6544,-0.015,-0.095
6545,-0.015,-0.095
6546,-0.020,-0.105
6547,-0.015,-0.110
6548,-0.015,-0.105
6549,-0.015,-0.105
6550,-0.020,-0.105
6551,-0.030,-0.100
6552,-0.035,-0.095
6553,-0.045,-0.095
6554,-0.050,-0.095
6555,-0.045,-0.075
6556,-0.030,-0.045
6557,0.000,0.005
6558,0.095,0.150
6559,0.270,0.395
6560,0.450,0.615
6561,0.490,0.620
6562,0.340,0.370
6563,0.125,0.045
6564,0.005,-0.135
6565,-0.020,-0.150
6566,-0.030,-0.110
6567,-0.035,-0.095
6568,-0.035,-0.095
6569,-0.035,-0.115
6570,-0.045,-0.145
6571,-0.045,-0.165
6572,-0.050,-0.170
6573,-0.050,-0.160
6574,-0.050,-0.155
6575,-0.055,-0.160
6576,-0.055,-0.165
6577,-0.050,-0.170
6578,-0.050,-0.165
6579,-0.040,-0.150
6580,-0.035,-0.135
6581,-0.035,-0.130
6582,-0.035,-0.125
6583,-0.035,-0.135
6584,-0.030,-0.165
6585,-0.020,-0.180
6586,-0.015,-0.150
6587,-0.015,-0.100
6588,-0.005,-0.050
6589,0.005,-0.020
6590,0.010,-0.015
6591,0.010,-0.030
6592,0.010,-0.045
6593,0.005,-0.055
6594,0.000,-0.070
6595,-0.005,-0.080
6596,-0.010,-0.090
6597,-0.015,-0.095
6598,-0.020,-0.090
6599,-0.020,-0.090
6600,-0.020,-0.095
6601,-0.020,-0.095
6602,-0.010,-0.085
6603,-0.010,-0.080
6604,-0.015,-0.085
6605,-0.020,-0.085
6606,-0.025,-0.085
6607,-0.025,-0.085
6608,-0.025,-0.080
6609,-0.020,-0.075
6610,-0.015,-0.065
6611,-0.015,-0.060
6612,-0.020,-0.060
6613,-0.015,-0.055
6614,-0.010,-0.050
6615,-0.005,-0.050
6616,-0.010,-0.055
6617,-0.015,-0.060
6618,-0.020,-0.055
6619,-0.030,-0.050
6620,-0.040,-0.045
6621,-0.045,-0.035
6622,-0.045,-0.035
6623,-0.045,-0.055
6624,-0.040,-0.060
6625,0.000,0.000
6626,0.110,0.185
6627,0.300,0.465
6628,0.470,0.670
6629,0.475,0.640
6630,0.305,0.375
6631,0.110,0.060
6632,0.000,-0.110
6633,-0.025,-0.120
6634,-0.025,-0.075
6635,-0.030,-0.065
6636,-0.045,-0.080
6637,-0.050,-0.095
6638,-0.050,-0.095
6639,-0.050,-0.105
6640,-0.050,-0.125
6641,-0.050,-0.130
6642,-0.055,-0.125
6643,-0.055,-0.115
6644,-0.050,-0.095
6645,-0.040,-0.080
6646,-0.035,-0.070
6647,-0.035,-0.085
6648,-0.045,-0.105
6649,-0.050,-0.125
6650,-0.045,-0.130
6651,-0.035,-0.125
6652,-0.020,-0.085
6653,-0.010,-0.050
6654,-0.010,-0.040
6655,-0.005,-0.035
6656,0.000,-0.025
6657,0.005,-0.005
6658,0.010,0.000
6659,0.010,0.000
6660,0.005,-0.045
6661,0.000,-0.100
6662,0.000,-0.140
6663,0.000,-0.135
6664,0.000,-0.125
6665,0.000,-0.135
6666,-0.010,-0.155
6667,-0.015,-0.180
6668,-0.020,-0.200
6669,-0.020,-0.190
