'sample interval','ECG0','ECG1'
'0.0078125 sec','mV','mV'
0,-0.175,-0.115
1,-0.155,-0.105
2,-0.175,-0.095
3,-0.175,-0.105
4,-0.155,-0.095
5,-0.105,-0.075
6,-0.125,-0.065
7,-0.505,0.045
8,-0.695,0.225
9,-0.145,0.375
10,1.585,0.115
11,2.875,-0.525
12,3.305,-0.975
13,1.685,-1.115
14,0.215,-0.675
15,-0.125,-0.165
16,-0.175,-0.005
17,-0.195,0.005
18,-0.225,-0.035
19,-0.235,-0.035
20,-0.225,-0.025
21,-0.225,-0.015
22,-0.225,-0.025
23,-0.225,-0.025
24,-0.215,-0.015
25,-0.215,-0.015
26,-0.215,-0.015
27,-0.215,-0.025
28,-0.225,-0.025
29,-0.205,-0.015
30,-0.185,-0.035
31,-0.195,-0.025
32,-0.185,-0.025
33,-0.175,-0.015
34,-0.155,-0.025
35,-0.145,-0.035
36,-0.135,-0.035
37,-0.135,-0.025
38,-0.115,-0.035
39,-0.085,-0.045
40,-0.065,-0.035
41,-0.035,-0.025
42,0.015,-0.025
43,0.065,-0.035
44,0.105,-0.025
45,0.185,-0.025
46,0.245,-0.035
47,0.325,-0.045
48,0.385,-0.025
49,0.435,-0.025
50,0.485,-0.025
51,0.545,-0.025
52,0.545,-0.025
53,0.495,-0.005
54,0.345,0.005
55,0.195,0.005
56,0.075,0.025
57,-0.035,0.025
58,-0.125,0.015
59,-0.195,0.015
60,-0.205,0.025
61,-0.225,0.025
62,-0.245,0.005
63,-0.245,-0.005
64,-0.265,-0.005
65,-0.265,0.005
66,-0.275,-0.005
67,-0.265,-0.015
68,-0.265,-0.015
69,-0.245,0.005
70,-0.235,-0.005
71,-0.235,-0.015
72,-0.235,-0.005
73,-0.235,0.005
74,-0.235,-0.015
75,-0.225,-0.025
76,-0.225,-0.005
77,-0.235,0.005
78,-0.245,-0.005
79,-0.245,-0.015
80,-0.225,-0.015
81,-0.215,-0.015
82,-0.235,-0.015
83,-0.245,-0.025
84,-0.235,-0.035
85,-0.225,-0.015
86,-0.245,-0.025
87,-0.255,-0.045
88,-0.245,-0.035
89,-0.235,-0.025
90,-0.235,-0.045
91,-0.235,-0.045
92,-0.245,-0.035
93,-0.245,-0.035
94,-0.235,-0.045
95,-0.245,-0.055
96,-0.225,-0.045
97,-0.235,-0.035
98,-0.235,-0.035
99,-0.245,-0.045
100,-0.225,-0.045
101,-0.245,-0.035
102,-0.235,-0.045
103,-0.235,-0.035
104,-0.245,-0.025
105,-0.195,-0.015
106,-0.185,0.025
107,-0.135,0.045
108,-0.055,0.035
109,-0.085,0.015
110,-0.135,-0.065
111,-0.145,-0.065
112,-0.145,-0.045
113,-0.185,-0.045
114,-0.215,-0.065
115,-0.195,-0.085
116,-0.195,-0.065
117,-0.185,-0.065
118,-0.175,-0.075
119,-0.165,-0.075
120,-0.155,-0.065
121,-0.155,-0.045
122,-0.115,-0.045
123,-0.445,0.045
124,-0.695,0.225
125,-0.265,0.365
126,1.325,0.335
127,2.825,-0.245
128,3.405,-0.765
129,2.035,-1.055
130,0.225,-0.745
131,-0.095,-0.255
132,-0.135,-0.005
133,-0.135,0.035
134,-0.185,-0.005
135,-0.225,-0.015
136,-0.235,0.005
137,-0.215,0.005
138,-0.225,0.015
139,-0.215,0.005
140,-0.205,0.005
141,-0.205,0.025
142,-0.205,0.005
143,-0.205,0.005
144,-0.195,0.005
145,-0.185,0.005
146,-0.175,-0.005
147,-0.175,-0.005
148,-0.165,-0.015
149,-0.145,-0.005
150,-0.145,-0.015
151,-0.145,-0.025
152,-0.115,-0.015
153,-0.095,-0.015
154,-0.075,-0.025
155,-0.075,-0.035
156,-0.035,-0.035
157,0.005,-0.025
158,0.025,-0.035
159,0.065,-0.045
160,0.125,-0.035
161,0.195,-0.025
162,0.245,-0.035
163,0.315,-0.045
164,0.375,-0.045
165,0.455,-0.025
166,0.505,-0.035
167,0.545,-0.045
168,0.585,-0.035
169,0.575,-0.015
170,0.455,-0.005
171,0.325,-0.005
172,0.185,0.015
173,0.065,0.025
174,-0.055,0.025
175,-0.115,0.005
176,-0.155,0.005
177,-0.175,0.025
178,-0.175,0.005
179,-0.185,0.005
180,-0.185,-0.005
181,-0.185,0.015
182,-0.175,-0.005
183,-0.175,-0.015
184,-0.165,-0.005
185,-0.155,0.005
186,-0.155,-0.005
187,-0.155,-0.015
188,-0.145,-0.015
189,-0.145,0.005
190,-0.135,-0.015
191,-0.155,-0.025
192,-0.135,-0.015
193,-0.145,-0.015
194,-0.155,-0.025
195,-0.155,-0.025
196,-0.155,-0.025
197,-0.165,-0.015
198,-0.175,-0.025
199,-0.175,-0.035
200,-0.165,-0.025
201,-0.175,-0.015
202,-0.195,-0.035
203,-0.195,-0.045
204,-0.195,-0.045
205,-0.185,-0.025
206,-0.185,-0.045
207,-0.185,-0.055
208,-0.195,-0.055
209,-0.175,-0.045
210,-0.175,-0.045
211,-0.165,-0.055
212,-0.175,-0.055
213,-0.165,-0.055
214,-0.155,-0.055
215,-0.165,-0.065
216,-0.155,-0.065
217,-0.165,-0.055
218,-0.155,-0.065
219,-0.155,-0.065
220,-0.145,-0.065
221,-0.145,-0.055
222,-0.145,-0.065
223,-0.165,-0.055
224,-0.125,-0.045
225,-0.105,-0.005
226,-0.085,0.015
227,-0.015,0.005
228,0.015,0.015
229,-0.085,-0.065
230,-0.095,-0.095
231,-0.095,-0.075
232,-0.105,-0.075
233,-0.145,-0.065
234,-0.175,-0.095
235,-0.155,-0.115
236,-0.145,-0.095
237,-0.135,-0.085
238,-0.135,-0.095
239,-0.115,-0.095
240,-0.095,-0.095
241,-0.065,-0.075
242,-0.325,-0.015
243,-0.655,0.185
244,-0.405,0.335
245,1.015,0.225
246,2.695,-0.375
247,3.345,-0.915
248,2.585,-1.225
249,0.615,-0.865
250,0.025,-0.325
251,-0.085,-0.055
252,-0.105,-0.005
253,-0.135,-0.025
254,-0.155,-0.045
255,-0.175,-0.045
256,-0.165,-0.045
257,-0.165,-0.025
258,-0.175,-0.025
259,-0.165,-0.035
260,-0.185,-0.025
261,-0.175,-0.025
262,-0.185,-0.035
263,-0.185,-0.045
264,-0.175,-0.035
265,-0.155,-0.025
266,-0.155,-0.045
267,-0.155,-0.045
268,-0.135,-0.045
269,-0.115,-0.035
270,-0.115,-0.045
271,-0.125,-0.055
272,-0.095,-0.055
273,-0.075,-0.035
274,-0.055,-0.045
275,-0.045,-0.055
276,-0.005,-0.055
277,0.035,-0.045
278,0.055,-0.045
279,0.095,-0.045
280,0.165,-0.045
281,0.225,-0.035
282,0.305,-0.045
283,0.355,-0.045
284,0.425,-0.035
285,0.505,-0.035
286,0.545,-0.035
287,0.575,-0.045
288,0.575,-0.035
289,0.515,-0.035
290,0.375,-0.025
291,0.225,-0.025
292,0.095,-0.015
293,-0.005,-0.005
294,-0.095,-0.015
295,-0.155,-0.025
296,-0.175,-0.025
297,-0.175,-0.025
298,-0.205,-0.035
299,-0.205,-0.045
300,-0.195,-0.035
301,-0.185,-0.035
302,-0.185,-0.045
303,-0.185,-0.045
304,-0.165,-0.055
305,-0.155,-0.035
306,-0.165,-0.055
307,-0.165,-0.055
308,-0.155,-0.035
309,-0.145,-0.035
310,-0.155,-0.045
311,-0.155,-0.055
312,-0.145,-0.045
313,-0.155,-0.045
314,-0.155,-0.045
315,-0.165,-0.055
316,-0.165,-0.055
317,-0.165,-0.045
318,-0.175,-0.065
319,-0.185,-0.065
320,-0.175,-0.065
321,-0.175,-0.065
322,-0.175,-0.065
323,-0.185,-0.085
324,-0.195,-0.085
325,-0.185,-0.065
326,-0.215,-0.075
327,-0.215,-0.085
328,-0.215,-0.085
329,-0.205,-0.085
330,-0.215,-0.095
331,-0.205,-0.105
332,-0.205,-0.085
333,-0.195,-0.085
334,-0.195,-0.085
335,-0.185,-0.095
336,-0.195,-0.095
337,-0.185,-0.085
338,-0.185,-0.095
339,-0.185,-0.095
340,-0.185,-0.095
341,-0.175,-0.095
342,-0.175,-0.095
343,-0.175,-0.105
344,-0.175,-0.105
345,-0.175,-0.095
346,-0.165,-0.105
347,-0.165,-0.105
348,-0.175,-0.105
349,-0.165,-0.095
350,-0.165,-0.095
351,-0.155,-0.105
352,-0.155,-0.095
353,-0.155,-0.095
354,-0.145,-0.105
355,-0.155,-0.115
356,-0.155,-0.095
357,-0.145,-0.095
358,-0.175,-0.085
359,-0.145,-0.085
360,-0.115,-0.045
361,-0.075,-0.015
362,-0.015,-0.025
363,-0.015,-0.035
364,-0.105,-0.115
365,-0.095,-0.115
366,-0.095,-0.105
367,-0.095,-0.105
368,-0.135,-0.115
369,-0.175,-0.125
370,-0.155,-0.135
371,-0.155,-0.135
372,-0.135,-0.135
373,-0.125,-0.115
374,-0.125,-0.125
375,-0.105,-0.125
376,-0.065,-0.115
377,-0.415,-0.005
378,-0.685,0.195
379,-0.195,0.325
380,1.595,0.005
381,2.935,-0.655
382,3.345,-1.125
383,1.685,-1.195
384,0.255,-0.695
385,-0.055,-0.195
386,-0.105,-0.035
387,-0.145,-0.055
388,-0.165,-0.065
389,-0.185,-0.055
390,-0.195,-0.055
391,-0.195,-0.065
392,-0.195,-0.065
393,-0.185,-0.045
394,-0.195,-0.055
395,-0.205,-0.065
396,-0.205,-0.065
397,-0.185,-0.045
398,-0.205,-0.055
399,-0.215,-0.065
400,-0.195,-0.065
401,-0.185,-0.055
402,-0.175,-0.055
403,-0.185,-0.075
404,-0.155,-0.065
405,-0.155,-0.065
406,-0.145,-0.065
407,-0.125,-0.075
408,-0.095,-0.065
409,-0.075,-0.065
410,-0.055,-0.065
411,-0.035,-0.075
412,0.005,-0.065
413,0.065,-0.055
414,0.115,-0.055
415,0.165,-0.065
416,0.225,-0.055
417,0.305,-0.045
418,0.375,-0.055
419,0.425,-0.055
420,0.495,-0.045
421,0.555,-0.045
422,0.575,-0.055
423,0.545,-0.065
424,0.455,-0.055
425,0.345,-0.045
426,0.175,-0.045
427,0.055,-0.045
428,-0.075,-0.045
429,-0.145,-0.045
430,-0.185,-0.055
431,-0.205,-0.065
432,-0.225,-0.055
433,-0.225,-0.065
434,-0.235,-0.075
435,-0.225,-0.085
436,-0.215,-0.065
437,-0.215,-0.075
438,-0.205,-0.075
439,-0.215,-0.075
440,-0.205,-0.075
441,-0.195,-0.075
442,-0.185,-0.075
443,-0.195,-0.075
444,-0.185,-0.075
445,-0.195,-0.065
446,-0.185,-0.075
447,-0.205,-0.085
448,-0.195,-0.075
449,-0.185,-0.065
450,-0.195,-0.085
451,-0.215,-0.095
452,-0.205,-0.085
453,-0.205,-0.075
454,-0.215,-0.085
455,-0.225,-0.095
456,-0.225,-0.095
457,-0.235,-0.095
458,-0.245,-0.105
459,-0.245,-0.115
460,-0.245,-0.095
461,-0.245,-0.095
462,-0.245,-0.105
463,-0.255,-0.115
464,-0.245,-0.105
465,-0.225,-0.095
466,-0.245,-0.115
467,-0.235,-0.115
468,-0.235,-0.105
469,-0.235,-0.105
470,-0.235,-0.115
471,-0.235,-0.105
472,-0.235,-0.115
473,-0.245,-0.105
474,-0.225,-0.115
475,-0.225,-0.115
476,-0.215,-0.105
477,-0.225,-0.105
478,-0.235,-0.105
479,-0.225,-0.115
480,-0.225,-0.115
481,-0.225,-0.105
482,-0.215,-0.115
483,-0.225,-0.115
484,-0.225,-0.105
485,-0.225,-0.105
486,-0.225,-0.105
487,-0.235,-0.115
488,-0.235,-0.105
489,-0.225,-0.105
490,-0.225,-0.105
491,-0.225,-0.115
492,-0.215,-0.105
493,-0.205,-0.105
494,-0.195,-0.105
495,-0.205,-0.115
496,-0.205,-0.105
497,-0.195,-0.095
498,-0.195,-0.105
499,-0.205,-0.105
500,-0.195,-0.105
501,-0.175,-0.095
502,-0.185,-0.105
503,-0.195,-0.105
504,-0.195,-0.105
505,-0.175,-0.095
506,-0.175,-0.105
507,-0.175,-0.105
508,-0.175,-0.095
509,-0.175,-0.085
510,-0.185,-0.085
511,-0.205,-0.095
512,-0.175,-0.085
513,-0.145,-0.035
514,-0.105,-0.025
515,-0.025,-0.015
516,-0.065,-0.025
517,-0.125,-0.105
518,-0.135,-0.115
519,-0.135,-0.105
520,-0.165,-0.095
521,-0.185,-0.105
522,-0.205,-0.125
523,-0.185,-0.135
524,-0.165,-0.125
525,-0.155,-0.105
526,-0.145,-0.115
527,-0.135,-0.105
528,-0.095,-0.095
529,-0.345,-0.035
530,-0.685,0.155
531,-0.335,0.315
532,1.185,0.245
533,2.675,-0.285
534,3.285,-0.785
535,2.295,-1.145
536,0.365,-0.835
537,-0.085,-0.305
538,-0.135,-0.055
539,-0.165,-0.015
540,-0.225,-0.035
541,-0.225,-0.035
542,-0.215,-0.045
543,-0.235,-0.045
544,-0.225,-0.045
545,-0.235,-0.035
546,-0.245,-0.035
547,-0.265,-0.045
548,-0.255,-0.045
549,-0.235,-0.035
550,-0.235,-0.035
551,-0.235,-0.045
552,-0.245,-0.035
553,-0.215,-0.045
554,-0.205,-0.055
555,-0.205,-0.055
556,-0.205,-0.045
557,-0.185,-0.045
558,-0.175,-0.055
559,-0.175,-0.055
560,-0.145,-0.065
561,-0.125,-0.055
562,-0.115,-0.055
563,-0.085,-0.055
564,-0.055,-0.045
565,-0.005,-0.045
566,0.015,-0.055
567,0.075,-0.065
568,0.145,-0.045
569,0.225,-0.045
570,0.275,-0.055
571,0.335,-0.065
572,0.385,-0.045
573,0.455,-0.035
574,0.495,-0.045
575,0.485,-0.045
576,0.475,-0.055
577,0.405,-0.025
578,0.275,-0.035
579,0.125,-0.035
580,-0.015,-0.015
581,-0.125,-0.005
582,-0.195,-0.015
583,-0.245,-0.025
584,-0.265,-0.025
585,-0.275,-0.015
586,-0.295,-0.025
587,-0.305,-0.045
588,-0.295,-0.045
589,-0.285,-0.025
590,-0.285,-0.025
591,-0.295,-0.045
592,-0.275,-0.045
593,-0.265,-0.035
594,-0.265,-0.045
595,-0.275,-0.045
596,-0.255,-0.035
597,-0.245,-0.035
598,-0.245,-0.035
599,-0.275,-0.045
600,-0.265,-0.045
601,-0.265,-0.035
602,-0.285,-0.035
603,-0.305,-0.055
604,-0.295,-0.055
605,-0.295,-0.045
606,-0.295,-0.065
607,-0.305,-0.065
608,-0.305,-0.065
609,-0.295,-0.055
610,-0.295,-0.065
611,-0.295,-0.065
612,-0.305,-0.075
613,-0.295,-0.065
614,-0.295,-0.075
615,-0.305,-0.085
616,-0.305,-0.075
617,-0.295,-0.065
618,-0.305,-0.075
619,-0.305,-0.095
620,-0.295,-0.085
621,-0.275,-0.075
622,-0.295,-0.075
623,-0.285,-0.085
624,-0.275,-0.085
625,-0.275,-0.075
626,-0.275,-0.085
627,-0.275,-0.085
628,-0.265,-0.075
629,-0.275,-0.065
630,-0.285,-0.075
631,-0.275,-0.085
632,-0.265,-0.075
633,-0.265,-0.065
634,-0.295,-0.055
635,-0.245,-0.055
636,-0.205,-0.015
637,-0.155,0.015
638,-0.085,0.025
639,-0.145,-0.025
640,-0.185,-0.105
641,-0.175,-0.085
642,-0.185,-0.075
643,-0.215,-0.085
644,-0.255,-0.105
645,-0.235,-0.095
646,-0.235,-0.115
647,-0.235,-0.115
648,-0.215,-0.105
649,-0.205,-0.095
650,-0.205,-0.095
651,-0.165,-0.085
652,-0.235,-0.075
653,-0.625,0.095
654,-0.675,0.245
655,0.185,0.365
656,1.995,0.055
657,2.975,-0.565
658,3.165,-1.045
659,1.005,-1.075
660,-0.035,-0.555
661,-0.195,-0.105
662,-0.215,-0.005
663,-0.225,-0.025
664,-0.245,-0.035
665,-0.245,-0.035
666,-0.245,-0.035
667,-0.255,-0.035
668,-0.255,-0.035
669,-0.255,-0.015
670,-0.245,-0.035
671,-0.245,-0.035
672,-0.245,-0.035
673,-0.235,-0.025
674,-0.225,-0.025
675,-0.235,-0.045
676,-0.235,-0.035
677,-0.215,-0.025
678,-0.215,-0.035
679,-0.205,-0.045
680,-0.185,-0.045
681,-0.175,-0.035
682,-0.165,-0.045
683,-0.155,-0.045
684,-0.145,-0.045
685,-0.115,-0.035
686,-0.095,-0.045
687,-0.085,-0.055
688,-0.045,-0.045
689,0.015,-0.025
690,0.075,-0.035
691,0.145,-0.045
692,0.215,-0.035
693,0.285,-0.025
694,0.365,-0.025
695,0.415,-0.035
696,0.485,-0.025
697,0.535,-0.015
698,0.555,-0.025
699,0.515,-0.015
700,0.425,-0.015
701,0.285,0.015
702,0.115,0.015
703,-0.025,0.025
704,-0.125,0.025
705,-0.185,0.035
706,-0.235,0.015
707,-0.255,0.005
708,-0.265,0.005
709,-0.265,-0.005
710,-0.265,-0.005
711,-0.265,-0.015
712,-0.265,-0.005
713,-0.265,0.005
714,-0.275,-0.005
715,-0.265,-0.015
716,-0.265,-0.005
717,-0.245,0.015
718,-0.255,-0.005
719,-0.275,-0.005
720,-0.265,-0.005
721,-0.255,-0.005
722,-0.265,-0.005
723,-0.265,-0.025
724,-0.275,-0.015
725,-0.265,-0.005
726,-0.275,-0.015
727,-0.285,-0.015
728,-0.275,-0.025
729,-0.285,-0.015
730,-0.285,-0.025
731,-0.305,-0.035
732,-0.295,-0.025
733,-0.295,-0.025
734,-0.295,-0.035
735,-0.305,-0.045
736,-0.295,-0.035
737,-0.285,-0.035
738,-0.295,-0.045
739,-0.305,-0.045
740,-0.295,-0.045
741,-0.285,-0.045
742,-0.285,-0.055
743,-0.285,-0.055
744,-0.275,-0.055
745,-0.275,-0.045
746,-0.275,-0.055
747,-0.275,-0.055
748,-0.275,-0.055
749,-0.255,-0.045
750,-0.255,-0.055
751,-0.265,-0.065
752,-0.255,-0.055
753,-0.235,-0.045
754,-0.235,-0.065
755,-0.235,-0.065
756,-0.225,-0.065
757,-0.245,-0.055
758,-0.245,-0.055
759,-0.235,-0.065
760,-0.225,-0.055
761,-0.235,-0.045
762,-0.235,-0.045
763,-0.205,-0.025
764,-0.165,0.005
765,-0.095,0.035
766,-0.055,0.025
767,-0.145,-0.045
768,-0.155,-0.095
769,-0.145,-0.065
770,-0.155,-0.065
771,-0.205,-0.075
772,-0.225,-0.085
773,-0.205,-0.095
774,-0.195,-0.105
775,-0.195,-0.105
776,-0.185,-0.085
777,-0.175,-0.065
778,-0.165,-0.075
779,-0.125,-0.075
780,-0.385,-0.035
781,-0.705,0.185
782,-0.415,0.335
783,0.965,0.255
784,2.555,-0.255
785,3.225,-0.805
786,2.575,-1.215
787,0.615,-0.935
788,-0.045,-0.395
789,-0.155,-0.045
790,-0.185,0.015
791,-0.215,-0.015
792,-0.225,-0.025
793,-0.235,-0.015
794,-0.245,-0.015
795,-0.255,-0.025
796,-0.245,-0.015
797,-0.235,-0.005
798,-0.235,-0.015
799,-0.225,-0.015
800,-0.215,-0.015
801,-0.215,-0.005
802,-0.215,-0.015
803,-0.205,-0.025
804,-0.205,-0.015
805,-0.185,-0.015
806,-0.185,-0.025
807,-0.175,-0.035
808,-0.175,-0.025
809,-0.185,-0.025
810,-0.165,-0.025
811,-0.155,-0.035
812,-0.135,-0.035
813,-0.105,-0.025
814,-0.085,-0.025
815,-0.045,-0.035
816,-0.005,-0.025
817,0.055,-0.015
818,0.115,-0.015
819,0.165,-0.025
820,0.235,-0.015
821,0.325,-0.005
822,0.385,-0.015
823,0.435,-0.015
824,0.505,-0.005
825,0.555,0.005
826,0.545,-0.015
827,0.485,-0.015
828,0.365,-0.005
829,0.215,0.005
830,0.065,0.015
831,-0.065,0.005
832,-0.135,0.005
833,-0.195,0.015
834,-0.215,-0.005
835,-0.235,-0.005
836,-0.235,-0.015
837,-0.235,-0.005
838,-0.245,-0.015
839,-0.235,-0.025
840,-0.255,-0.015
841,-0.245,-0.005
842,-0.245,-0.015
843,-0.235,-0.025
844,-0.225,-0.025
845,-0.215,-0.015
846,-0.215,-0.025
847,-0.205,-0.035
848,-0.205,-0.025
849,-0.205,-0.025
850,-0.205,-0.025
851,-0.205,-0.035
852,-0.205,-0.025
853,-0.205,-0.025
854,-0.205,-0.035
855,-0.215,-0.045
856,-0.215,-0.045
857,-0.215,-0.035
858,-0.215,-0.055
859,-0.225,-0.055
860,-0.215,-0.055
861,-0.215,-0.055
862,-0.215,-0.065
863,-0.215,-0.075
864,-0.215,-0.075
865,-0.215,-0.065
866,-0.215,-0.085
867,-0.215,-0.085
868,-0.205,-0.075
869,-0.205,-0.075
870,-0.205,-0.085
871,-0.205,-0.095
872,-0.205,-0.095
873,-0.205,-0.075
874,-0.195,-0.095
875,-0.205,-0.095
876,-0.205,-0.095
877,-0.195,-0.085
878,-0.205,-0.095
879,-0.195,-0.095
880,-0.195,-0.085
881,-0.185,-0.085
882,-0.195,-0.085
883,-0.195,-0.095
884,-0.185,-0.095
885,-0.175,-0.085
886,-0.175,-0.095
887,-0.185,-0.095
888,-0.175,-0.095
889,-0.165,-0.095
890,-0.165,-0.095
891,-0.165,-0.095
892,-0.165,-0.095
893,-0.165,-0.095
894,-0.165,-0.095
895,-0.175,-0.105
896,-0.155,-0.105
897,-0.145,-0.095
898,-0.155,-0.095
899,-0.155,-0.105
900,-0.155,-0.105
901,-0.145,-0.105
902,-0.135,-0.105
903,-0.135,-0.105
904,-0.145,-0.105
905,-0.125,-0.095
906,-0.125,-0.105
907,-0.125,-0.105
908,-0.115,-0.105
909,-0.105,-0.105
910,-0.105,-0.105
911,-0.115,-0.105
912,-0.105,-0.115
913,-0.095,-0.095
914,-0.095,-0.105
915,-0.105,-0.105
916,-0.085,-0.115
917,-0.085,-0.105
918,-0.085,-0.105
919,-0.095,-0.105
920,-0.085,-0.115
921,-0.105,-0.095
922,-0.095,-0.085
923,-0.055,-0.075
924,-0.015,-0.045
925,0.075,-0.015
926,0.055,-0.025
927,-0.035,-0.105
928,-0.035,-0.135
929,-0.015,-0.105
930,-0.055,-0.105
931,-0.105,-0.135
932,-0.095,-0.145
933,-0.065,-0.135
934,-0.065,-0.135
935,-0.085,-0.145
936,-0.085,-0.125
937,-0.055,-0.115
938,-0.055,-0.115
939,-0.425,-0.035
940,-0.645,0.175
941,0.025,0.335
942,1.785,0.005
943,2.925,-0.615
944,3.305,-1.055
945,1.565,-1.175
946,0.265,-0.685
947,-0.015,-0.205
948,-0.065,-0.055
949,-0.095,-0.035
950,-0.125,-0.075
951,-0.155,-0.075
952,-0.155,-0.065
953,-0.145,-0.055
954,-0.145,-0.055
955,-0.155,-0.065
956,-0.155,-0.065
957,-0.145,-0.045
958,-0.145,-0.045
959,-0.145,-0.055
960,-0.135,-0.055
961,-0.155,-0.055
962,-0.145,-0.055
963,-0.155,-0.055
964,-0.135,-0.055
965,-0.125,-0.055
966,-0.115,-0.055
967,-0.115,-0.055
968,-0.105,-0.055
969,-0.085,-0.055
970,-0.065,-0.055
971,-0.045,-0.055
972,-0.025,-0.045
973,-0.005,-0.045
974,0.025,-0.045
975,0.075,-0.045
976,0.135,-0.035
977,0.215,-0.025
978,0.275,-0.035
979,0.335,-0.025
980,0.395,-0.035
981,0.465,-0.025
982,0.515,-0.025
983,0.565,-0.025
984,0.595,-0.025
985,0.585,-0.025
986,0.485,-0.035
987,0.335,-0.035
988,0.205,-0.035
989,0.085,-0.025
990,-0.035,-0.025
991,-0.105,-0.035
992,-0.155,-0.025
993,-0.165,-0.025
994,-0.205,-0.035
995,-0.205,-0.045
996,-0.195,-0.035
997,-0.195,-0.035
998,-0.195,-0.045
999,-0.185,-0.055
1000,-0.195,-0.045
1001,-0.185,-0.045
1002,-0.185,-0.055
1003,-0.165,-0.045
1004,-0.195,-0.035
1005,-0.185,-0.035
1006,-0.185,-0.045
1007,-0.175,-0.045
1008,-0.185,-0.045
1009,-0.195,-0.025
1010,-0.185,-0.035
1011,-0.185,-0.045
1012,-0.185,-0.045
1013,-0.195,-0.045
1014,-0.195,-0.055
1015,-0.205,-0.055
1016,-0.205,-0.045
1017,-0.205,-0.045
1018,-0.205,-0.055
1019,-0.205,-0.055
1020,-0.215,-0.055
1021,-0.215,-0.055
1022,-0.215,-0.065
1023,-0.225,-0.075
1024,-0.205,-0.075
1025,-0.205,-0.065
1026,-0.205,-0.065
1027,-0.225,-0.075
1028,-0.225,-0.075
1029,-0.215,-0.065
1030,-0.215,-0.075
1031,-0.235,-0.085
1032,-0.225,-0.075
1033,-0.205,-0.065
1034,-0.205,-0.085
1035,-0.215,-0.085
1036,-0.205,-0.075
1037,-0.195,-0.065
1038,-0.215,-0.075
1039,-0.225,-0.085
1040,-0.215,-0.075
1041,-0.205,-0.065
1042,-0.205,-0.075
1043,-0.205,-0.085
1044,-0.195,-0.085
1045,-0.185,-0.065
1046,-0.195,-0.075
1047,-0.195,-0.085
1048,-0.175,-0.075
1049,-0.155,-0.065
1050,-0.155,-0.075
1051,-0.175,-0.085
1052,-0.165,-0.065
1053,-0.165,-0.065
1054,-0.155,-0.075
1055,-0.175,-0.085
1056,-0.175,-0.065
1057,-0.125,-0.055
1058,-0.105,-0.025
1059,-0.055,-0.005
1060,0.025,0.015
1061,-0.035,-0.005
1062,-0.065,-0.095
1063,-0.075,-0.085
1064,-0.085,-0.075
1065,-0.135,-0.075
1066,-0.165,-0.095
1067,-0.145,-0.105
1068,-0.145,-0.105
1069,-0.125,-0.085
1070,-0.135,-0.085
1071,-0.125,-0.095
1072,-0.095,-0.075
1073,-0.045,-0.055
1074,-0.295,-0.035
1075,-0.625,0.135
1076,-0.345,0.295
1077,1.175,0.365
1078,2.725,-0.115
1079,3.345,-0.665
1080,2.175,-1.085
1081,0.295,-0.825
1082,-0.055,-0.335
1083,-0.105,-0.055
1084,-0.125,-0.005
1085,-0.145,-0.025
1086,-0.175,-0.025
1087,-0.185,-0.045
1088,-0.185,-0.035
1089,-0.185,-0.025
1090,-0.185,-0.025
1091,-0.175,-0.035
1092,-0.165,-0.025
1093,-0.185,-0.025
1094,-0.165,-0.035
1095,-0.185,-0.045
1096,-0.175,-0.035
1097,-0.155,-0.035
1098,-0.155,-0.045
1099,-0.145,-0.055
1100,-0.155,-0.045
1101,-0.135,-0.045
1102,-0.125,-0.045
1103,-0.105,-0.055
1104,-0.095,-0.055
1105,-0.075,-0.035
1106,-0.065,-0.055
1107,-0.035,-0.065
1108,-0.015,-0.065
1109,0.015,-0.045
1110,0.055,-0.055
1111,0.105,-0.065
1112,0.175,-0.055
1113,0.245,-0.055
1114,0.315,-0.055
1115,0.365,-0.065
1116,0.435,-0.055
1117,0.505,-0.045
1118,0.555,-0.045
1119,0.585,-0.055
1120,0.625,-0.055
1121,0.595,-0.045
1122,0.465,-0.035
1123,0.305,-0.025
1124,0.165,-0.005
1125,0.045,0.015
1126,-0.075,0.005
1127,-0.145,0.005
1128,-0.175,0.005
1129,-0.195,0.005
1130,-0.205,-0.015
1131,-0.225,-0.015
1132,-0.215,-0.015
1133,-0.195,-0.005
1134,-0.215,-0.015
1135,-0.205,-0.015
1136,-0.195,-0.015
1137,-0.195,-0.005
1138,-0.185,-0.015
1139,-0.185,-0.025
1140,-0.205,-0.015
1141,-0.185,-0.015
1142,-0.195,-0.025
1143,-0.195,-0.025
1144,-0.195,-0.015
1145,-0.175,-0.015
1146,-0.185,-0.015
1147,-0.195,-0.025
1148,-0.175,-0.015
1149,-0.165,-0.015
1150,-0.175,-0.025
1151,-0.195,-0.025
1152,-0.185,-0.025
1153,-0.185,-0.025
1154,-0.205,-0.035
1155,-0.205,-0.045
1156,-0.205,-0.045
1157,-0.195,-0.035
1158,-0.195,-0.045
1159,-0.205,-0.045
1160,-0.205,-0.045
1161,-0.185,-0.035
1162,-0.185,-0.045
1163,-0.205,-0.055
1164,-0.195,-0.045
1165,-0.185,-0.035
1166,-0.195,-0.045
1167,-0.185,-0.055
1168,-0.185,-0.055
1169,-0.195,-0.035
1170,-0.185,-0.055
1171,-0.195,-0.045
1172,-0.205,-0.035
1173,-0.155,-0.025
1174,-0.135,0.005
1175,-0.085,0.025
1176,0.005,0.045
1177,-0.035,0.025
1178,-0.095,-0.065
1179,-0.095,-0.075
1180,-0.095,-0.055
1181,-0.115,-0.045
1182,-0.165,-0.075
1183,-0.165,-0.095
1184,-0.135,-0.085
1185,-0.135,-0.075
1186,-0.125,-0.075
1187,-0.125,-0.085
1188,-0.105,-0.065
1189,-0.065,-0.065
1190,-0.175,-0.045
1191,-0.565,0.105
1192,-0.545,0.265
1193,0.375,0.385
1194,2.245,0.045
1195,3.145,-0.595
1196,3.055,-1.055
1197,0.975,-0.995
1198,0.055,-0.545
1199,-0.095,-0.115
1200,-0.105,0.005
1201,-0.135,-0.005
1202,-0.165,-0.025
1203,-0.175,-0.035
1204,-0.175,-0.025
1205,-0.165,-0.015
1206,-0.165,-0.015
1207,-0.165,-0.025
1208,-0.165,-0.015
1209,-0.165,-0.015
1210,-0.155,-0.025
1211,-0.155,-0.025
1212,-0.145,-0.025
1213,-0.135,-0.015
1214,-0.135,-0.025
1215,-0.135,-0.025
1216,-0.125,-0.035
1217,-0.115,-0.025
1218,-0.115,-0.035
1219,-0.095,-0.045
1220,-0.085,-0.045
1221,-0.055,-0.025
1222,-0.035,-0.045
1223,-0.005,-0.045
1224,0.025,-0.035
1225,0.045,-0.025
1226,0.075,-0.045
1227,0.125,-0.045
1228,0.185,-0.035
1229,0.265,-0.025
1230,0.325,-0.035
1231,0.415,-0.045
1232,0.475,-0.035
1233,0.545,-0.025
1234,0.585,-0.025
1235,0.635,-0.035
1236,0.635,-0.015
1237,0.565,-0.005
1238,0.425,0.005
1239,0.285,0.005
1240,0.145,0.015
1241,0.025,0.025
1242,-0.065,0.025
1243,-0.135,0.015
1244,-0.165,0.005
1245,-0.185,0.005
1246,-0.185,-0.005
1247,-0.185,-0.005
1248,-0.175,-0.005
1249,-0.185,-0.005
1250,-0.175,-0.005
1251,-0.175,-0.015
1252,-0.175,-0.015
1253,-0.185,-0.015
1254,-0.185,-0.015
1255,-0.175,-0.025
1256,-0.165,-0.015
1257,-0.155,-0.015
1258,-0.155,-0.005
1259,-0.145,-0.015
1260,-0.145,-0.015
1261,-0.145,-0.015
1262,-0.145,-0.015
1263,-0.145,-0.025
1264,-0.145,-0.025
1265,-0.155,-0.015
1266,-0.155,-0.025
1267,-0.165,-0.035
1268,-0.165,-0.035
1269,-0.165,-0.035
1270,-0.175,-0.045
1271,-0.175,-0.055
1272,-0.175,-0.045
1273,-0.175,-0.045
1274,-0.175,-0.055
1275,-0.185,-0.055
1276,-0.175,-0.055
1277,-0.175,-0.045
1278,-0.185,-0.055
1279,-0.185,-0.065
1280,-0.195,-0.055
1281,-0.185,-0.045
1282,-0.185,-0.055
1283,-0.185,-0.065
1284,-0.185,-0.055
1285,-0.175,-0.045
1286,-0.185,-0.055
1287,-0.165,-0.065
1288,-0.165,-0.055
1289,-0.155,-0.055
1290,-0.155,-0.065
1291,-0.155,-0.065
1292,-0.185,-0.045
1293,-0.135,-0.025
1294,-0.115,0.005
1295,-0.055,0.015
1296,0.025,0.035
1297,-0.055,0.005
1298,-0.095,-0.095
1299,-0.105,-0.075
1300,-0.095,-0.055
1301,-0.115,-0.045
1302,-0.165,-0.075
1303,-0.175,-0.105
1304,-0.155,-0.095
1305,-0.145,-0.075
1306,-0.145,-0.085
1307,-0.145,-0.095
1308,-0.125,-0.085
1309,-0.105,-0.075
1310,-0.175,-0.065
1311,-0.585,0.085
1312,-0.615,0.265
1313,0.155,0.365
1314,2.065,-0.005
1315,3.095,-0.655
1316,3.105,-1.145
1317,1.085,-1.055
1318,0.105,-0.535
1319,-0.105,-0.095
1320,-0.115,0.005
1321,-0.135,-0.005
1322,-0.175,-0.035
1323,-0.185,-0.035
1324,-0.195,-0.025
1325,-0.185,-0.025
1326,-0.185,-0.025
1327,-0.185,-0.035
1328,-0.195,-0.035
1329,-0.185,-0.025
1330,-0.185,-0.035
1331,-0.205,-0.035
1332,-0.195,-0.045
1333,-0.185,-0.025
1334,-0.185,-0.035
1335,-0.185,-0.045
1336,-0.175,-0.035
1337,-0.155,-0.035
1338,-0.135,-0.035
1339,-0.135,-0.045
1340,-0.115,-0.045
1341,-0.095,-0.035
1342,-0.075,-0.055
1343,-0.055,-0.055
1344,-0.025,-0.055
1345,0.005,-0.035
1346,0.035,-0.035
1347,0.085,-0.045
1348,0.145,-0.045
1349,0.205,-0.035
1350,0.275,-0.045
1351,0.335,-0.045
1352,0.405,-0.035
1353,0.475,-0.025
1354,0.525,-0.035
1355,0.575,-0.045
1356,0.595,-0.035
1357,0.555,-0.025
1358,0.455,-0.035
1359,0.325,-0.035
1360,0.165,-0.015
1361,0.025,0.005
1362,-0.085,-0.005
1363,-0.155,-0.015
1364,-0.195,-0.015
1365,-0.195,-0.015
1366,-0.215,-0.025
1367,-0.215,-0.035
1368,-0.215,-0.045
1369,-0.195,-0.025
1370,-0.205,-0.035
1371,-0.205,-0.045
1372,-0.195,-0.045
1373,-0.195,-0.035
1374,-0.185,-0.045
1375,-0.195,-0.055
1376,-0.185,-0.045
1377,-0.175,-0.045
1378,-0.175,-0.045
1379,-0.195,-0.055
1380,-0.195,-0.045
1381,-0.185,-0.035
1382,-0.195,-0.045
1383,-0.195,-0.055
1384,-0.195,-0.045
1385,-0.185,-0.035
1386,-0.195,-0.055
1387,-0.205,-0.065
1388,-0.215,-0.055
1389,-0.215,-0.055
1390,-0.215,-0.065
1391,-0.215,-0.075
1392,-0.215,-0.075
1393,-0.235,-0.065
1394,-0.235,-0.075
1395,-0.235,-0.075
1396,-0.235,-0.085
1397,-0.225,-0.065
1398,-0.235,-0.085
1399,-0.235,-0.085
1400,-0.225,-0.075
1401,-0.215,-0.085
1402,-0.225,-0.085
1403,-0.225,-0.095
1404,-0.215,-0.085
1405,-0.215,-0.075
1406,-0.215,-0.085
1407,-0.225,-0.105
1408,-0.215,-0.095
1409,-0.215,-0.085
1410,-0.205,-0.095
1411,-0.225,-0.095
1412,-0.215,-0.085
1413,-0.205,-0.085
1414,-0.205,-0.095
1415,-0.215,-0.095
1416,-0.215,-0.095
1417,-0.205,-0.085
1418,-0.205,-0.095
1419,-0.205,-0.105
1420,-0.205,-0.095
1421,-0.205,-0.075
1422,-0.205,-0.085
1423,-0.185,-0.055
1424,-0.155,-0.025
1425,-0.085,-0.005
1426,-0.055,-0.015
1427,-0.145,-0.105
1428,-0.155,-0.125
1429,-0.145,-0.095
1430,-0.165,-0.105
1431,-0.215,-0.115
1432,-0.225,-0.135
1433,-0.215,-0.135
1434,-0.215,-0.125
1435,-0.215,-0.135
1436,-0.195,-0.125
1437,-0.185,-0.125
1438,-0.145,-0.115
1439,-0.115,-0.115
1440,-0.415,-0.055
1441,-0.735,0.185
1442,-0.335,0.335
1443,1.175,0.155
1444,2.695,-0.405
1445,3.285,-0.885
1446,2.355,-1.225
1447,0.445,-0.895
1448,-0.065,-0.335
1449,-0.165,-0.065
1450,-0.205,-0.035
1451,-0.235,-0.055
1452,-0.255,-0.055
1453,-0.245,-0.055
1454,-0.265,-0.055
1455,-0.275,-0.055
1456,-0.265,-0.065
1457,-0.255,-0.045
1458,-0.245,-0.055
1459,-0.275,-0.055
1460,-0.275,-0.055
1461,-0.265,-0.045
1462,-0.265,-0.065
1463,-0.265,-0.065
1464,-0.265,-0.065
1465,-0.255,-0.055
1466,-0.235,-0.065
1467,-0.235,-0.075
1468,-0.215,-0.065
1469,-0.205,-0.065
1470,-0.205,-0.065
1471,-0.195,-0.075
1472,-0.155,-0.065
1473,-0.135,-0.065
1474,-0.105,-0.065
1475,-0.075,-0.065
1476,-0.025,-0.065
1477,0.045,-0.055
1478,0.095,-0.055
1479,0.155,-0.065
1480,0.215,-0.065
1481,0.315,-0.055
1482,0.375,-0.055
1483,0.415,-0.065
1484,0.485,-0.065
1485,0.505,-0.055
1486,0.465,-0.055
1487,0.405,-0.055
1488,0.275,-0.035
1489,0.125,-0.025
1490,-0.025,-0.025
1491,-0.105,-0.035
1492,-0.195,-0.025
1493,-0.245,-0.025
1494,-0.265,-0.035
1495,-0.285,-0.045
1496,-0.295,-0.045
1497,-0.295,-0.025
1498,-0.285,-0.045
1499,-0.305,-0.055
1500,-0.295,-0.045
1501,-0.285,-0.045
1502,-0.285,-0.055
1503,-0.285,-0.055
1504,-0.285,-0.045
1505,-0.275,-0.045
1506,-0.285,-0.055
1507,-0.285,-0.065
1508,-0.275,-0.055
1509,-0.255,-0.045
1510,-0.265,-0.055
1511,-0.305,-0.065
1512,-0.305,-0.055
1513,-0.315,-0.045
1514,-0.305,-0.045
1515,-0.295,-0.065
1516,-0.305,-0.065
1517,-0.295,-0.055
1518,-0.315,-0.065
1519,-0.305,-0.065
1520,-0.305,-0.075
1521,-0.305,-0.065
1522,-0.315,-0.075
1523,-0.315,-0.075
1524,-0.295,-0.085
1525,-0.305,-0.075
1526,-0.315,-0.085
1527,-0.305,-0.095
1528,-0.305,-0.095
1529,-0.315,-0.085
1530,-0.315,-0.095
1531,-0.335,-0.095
1532,-0.335,-0.095
1533,-0.315,-0.075
1534,-0.325,-0.085
1535,-0.325,-0.105
1536,-0.305,-0.085
1537,-0.305,-0.085
1538,-0.305,-0.105
1539,-0.305,-0.105
1540,-0.295,-0.105
1541,-0.295,-0.085
1542,-0.305,-0.095
1543,-0.295,-0.115
1544,-0.295,-0.095
1545,-0.295,-0.085
1546,-0.275,-0.075
1547,-0.245,-0.055
1548,-0.195,-0.025
1549,-0.125,-0.005
1550,-0.155,-0.045
1551,-0.205,-0.125
1552,-0.205,-0.115
1553,-0.205,-0.095
1554,-0.265,-0.105
1555,-0.295,-0.135
1556,-0.265,-0.135
1557,-0.265,-0.135
1558,-0.255,-0.135
1559,-0.255,-0.135
1560,-0.245,-0.135
1561,-0.235,-0.115
1562,-0.215,-0.105
1563,-0.205,-0.105
1564,-0.545,0.005
1565,-0.745,0.175
1566,-0.205,0.335
1567,1.605,0.205
1568,2.875,-0.385
1569,3.335,-0.875
1570,1.665,-1.095
1571,0.015,-0.755
1572,-0.215,-0.255
1573,-0.245,-0.045
1574,-0.255,-0.045
1575,-0.275,-0.075
1576,-0.305,-0.065
1577,-0.295,-0.065
1578,-0.305,-0.065
1579,-0.315,-0.075
1580,-0.295,-0.075
1581,-0.295,-0.055
1582,-0.295,-0.055
1583,-0.285,-0.065
1584,-0.275,-0.065
1585,-0.265,-0.065
1586,-0.275,-0.065
1587,-0.265,-0.085
1588,-0.265,-0.075
1589,-0.245,-0.075
1590,-0.235,-0.075
1591,-0.235,-0.085
1592,-0.215,-0.085
1593,-0.195,-0.065
1594,-0.185,-0.085
1595,-0.175,-0.095
1596,-0.145,-0.085
1597,-0.125,-0.085
1598,-0.085,-0.085
1599,-0.055,-0.085
1600,-0.015,-0.085
1601,0.055,-0.085
1602,0.115,-0.085
1603,0.185,-0.105
1604,0.255,-0.095
1605,0.315,-0.075
1606,0.385,-0.085
1607,0.435,-0.095
1608,0.495,-0.085
1609,0.525,-0.075
1610,0.495,-0.085
1611,0.405,-0.075
1612,0.265,-0.055
1613,0.115,-0.035
1614,-0.035,-0.025
1615,-0.145,-0.025
1616,-0.215,-0.025
1617,-0.255,-0.025
1618,-0.275,-0.025
1619,-0.285,-0.035
1620,-0.295,-0.035
1621,-0.285,-0.025
1622,-0.285,-0.045
1623,-0.265,-0.045
1624,-0.255,-0.045
1625,-0.255,-0.035
1626,-0.255,-0.045
1627,-0.255,-0.055
1628,-0.245,-0.045
1629,-0.225,-0.045
1630,-0.225,-0.045
1631,-0.235,-0.055
1632,-0.235,-0.055
1633,-0.225,-0.045
1634,-0.235,-0.055
1635,-0.245,-0.055
1636,-0.245,-0.055
1637,-0.235,-0.045
1638,-0.245,-0.055
1639,-0.265,-0.065
1640,-0.275,-0.055
1641,-0.265,-0.055
1642,-0.265,-0.065
1643,-0.275,-0.075
1644,-0.275,-0.065
1645,-0.265,-0.055
1646,-0.265,-0.065
1647,-0.275,-0.075
1648,-0.255,-0.075
1649,-0.265,-0.065
1650,-0.275,-0.065
1651,-0.295,-0.095
1652,-0.285,-0.085
1653,-0.265,-0.065
1654,-0.265,-0.085
1655,-0.275,-0.085
1656,-0.265,-0.095
1657,-0.255,-0.075
1658,-0.255,-0.085
1659,-0.255,-0.095
1660,-0.245,-0.085
1661,-0.235,-0.075
1662,-0.235,-0.085
1663,-0.225,-0.095
1664,-0.245,-0.085
1665,-0.235,-0.065
1666,-0.205,-0.045
1667,-0.185,-0.015
1668,-0.115,-0.005
1669,-0.045,0.005
1670,-0.155,-0.065
1671,-0.165,-0.125
1672,-0.165,-0.085
1673,-0.155,-0.085
1674,-0.205,-0.085
1675,-0.235,-0.115
1676,-0.235,-0.135
1677,-0.215,-0.125
1678,-0.215,-0.125
1679,-0.205,-0.125
1680,-0.195,-0.125
1681,-0.175,-0.105
1682,-0.145,-0.095
1683,-0.355,-0.055
1684,-0.705,0.155
1685,-0.535,0.315
1686,0.635,0.285
1687,2.455,-0.265
1688,3.225,-0.815
1689,2.805,-1.215
1690,0.625,-0.935
1691,-0.065,-0.395
1692,-0.165,-0.075
1693,-0.185,-0.005
1694,-0.205,-0.055
1695,-0.235,-0.065
1696,-0.245,-0.055
1697,-0.235,-0.035
1698,-0.245,-0.055
1699,-0.235,-0.055
1700,-0.235,-0.045
1701,-0.235,-0.045
1702,-0.235,-0.045
1703,-0.235,-0.055
1704,-0.225,-0.055
1705,-0.225,-0.045
1706,-0.215,-0.055
1707,-0.215,-0.055
1708,-0.215,-0.065
1709,-0.185,-0.055
1710,-0.175,-0.055
1711,-0.165,-0.065
1712,-0.145,-0.065
1713,-0.135,-0.055
1714,-0.145,-0.055
1715,-0.125,-0.065
1716,-0.095,-0.055
1717,-0.055,-0.045
1718,-0.015,-0.055
1719,0.015,-0.055
1720,0.075,-0.055
1721,0.145,-0.045
1722,0.225,-0.045
1723,0.275,-0.055
1724,0.345,-0.045
1725,0.405,-0.035
1726,0.475,-0.045
1727,0.515,-0.045
1728,0.555,-0.045
1729,0.555,-0.025
1730,0.465,-0.035
1731,0.325,-0.035
1732,0.175,-0.015
1733,0.045,-0.005
1734,-0.075,-0.015
1735,-0.145,-0.015
1736,-0.195,-0.005
1737,-0.215,-0.015
1738,-0.235,-0.025
1739,-0.235,-0.035
1740,-0.225,-0.035
1741,-0.225,-0.025
1742,-0.235,-0.035
1743,-0.215,-0.045
1744,-0.235,-0.035
1745,-0.235,-0.025
1746,-0.225,-0.045
1747,-0.215,-0.045
1748,-0.215,-0.035
1749,-0.205,-0.035
1750,-0.205,-0.045
1751,-0.195,-0.045
1752,-0.195,-0.045
1753,-0.195,-0.025
1754,-0.195,-0.045
1755,-0.195,-0.045
1756,-0.205,-0.035
1757,-0.205,-0.035
1758,-0.205,-0.045
1759,-0.225,-0.055
1760,-0.225,-0.055
1761,-0.235,-0.045
1762,-0.235,-0.055
1763,-0.245,-0.065
1764,-0.235,-0.055
1765,-0.245,-0.065
1766,-0.245,-0.075
1767,-0.235,-0.075
1768,-0.235,-0.065
1769,-0.235,-0.065
1770,-0.245,-0.065
1771,-0.235,-0.075
1772,-0.245,-0.075
1773,-0.235,-0.065
1774,-0.245,-0.075
1775,-0.265,-0.075
1776,-0.265,-0.075
1777,-0.255,-0.055
1778,-0.235,-0.065
1779,-0.235,-0.075
1780,-0.235,-0.075
1781,-0.235,-0.065
1782,-0.225,-0.075
1783,-0.215,-0.075
1784,-0.215,-0.075
1785,-0.215,-0.065
1786,-0.215,-0.075
1787,-0.215,-0.075
1788,-0.215,-0.065
1789,-0.215,-0.065
1790,-0.215,-0.065
1791,-0.215,-0.065
1792,-0.205,-0.065
1793,-0.195,-0.065
1794,-0.215,-0.055
1795,-0.205,-0.065
1796,-0.165,-0.015
1797,-0.125,0.015
1798,-0.065,0.015
1799,-0.035,-0.005
1800,-0.125,-0.065
1801,-0.125,-0.095
1802,-0.125,-0.075
1803,-0.135,-0.075
1804,-0.195,-0.085
1805,-0.215,-0.095
1806,-0.205,-0.105
1807,-0.195,-0.115
1808,-0.195,-0.095
1809,-0.185,-0.085
1810,-0.175,-0.095
1811,-0.145,-0.085
1812,-0.115,-0.065
1813,-0.465,0.045
1814,-0.725,0.245
1815,-0.195,0.365
1816,1.485,0.055
1817,2.865,-0.565
1818,3.365,-1.055
1819,2.085,-1.205
1820,0.325,-0.755
1821,-0.095,-0.205
1822,-0.155,-0.005
1823,-0.175,-0.005
1824,-0.205,-0.015
1825,-0.225,-0.015
1826,-0.235,-0.025
1827,-0.245,-0.025
1828,-0.255,-0.005
1829,-0.255,-0.005
1830,-0.255,-0.015
1831,-0.255,-0.015
1832,-0.245,-0.005
1833,-0.245,-0.005
1834,-0.245,-0.015
1835,-0.245,-0.015
1836,-0.235,-0.005
1837,-0.225,-0.005
1838,-0.225,-0.015
1839,-0.225,-0.025
1840,-0.215,-0.015
1841,-0.195,-0.005
1842,-0.185,-0.015
1843,-0.185,-0.025
1844,-0.155,-0.015
1845,-0.135,-0.005
1846,-0.135,-0.025
1847,-0.115,-0.025
1848,-0.065,-0.015
1849,-0.015,-0.005
1850,0.035,-0.005
1851,0.095,-0.015
1852,0.165,-0.005
1853,0.245,0.005
1854,0.315,-0.005
1855,0.375,-0.015
1856,0.445,-0.005
1857,0.495,0.015
1858,0.525,0.005
1859,0.505,-0.005
1860,0.445,-0.005
1861,0.325,0.005
1862,0.155,0.005
1863,0.005,-0.005
1864,-0.095,0.005
1865,-0.165,0.015
1866,-0.225,-0.005
1867,-0.235,-0.015
1868,-0.245,-0.005
1869,-0.265,-0.005
1870,-0.255,-0.025
1871,-0.265,-0.025
1872,-0.265,-0.025
1873,-0.255,-0.005
1874,-0.255,-0.025
1875,-0.245,-0.025
1876,-0.245,-0.025
1877,-0.225,-0.015
1878,-0.225,-0.035
1879,-0.245,-0.035
1880,-0.235,-0.035
1881,-0.225,-0.025
1882,-0.235,-0.025
1883,-0.235,-0.035
1884,-0.235,-0.035
1885,-0.245,-0.025
1886,-0.245,-0.035
1887,-0.255,-0.045
1888,-0.255,-0.035
1889,-0.245,-0.035
1890,-0.255,-0.035
1891,-0.255,-0.045
1892,-0.265,-0.045
1893,-0.265,-0.035
1894,-0.275,-0.045
1895,-0.275,-0.045
1896,-0.275,-0.045
1897,-0.265,-0.035
1898,-0.265,-0.035
1899,-0.255,-0.055
1900,-0.275,-0.045
1901,-0.265,-0.045
1902,-0.265,-0.045
1903,-0.265,-0.055
1904,-0.265,-0.035
1905,-0.265,-0.025
1906,-0.275,-0.035
1907,-0.265,-0.045
1908,-0.265,-0.035
1909,-0.255,-0.035
1910,-0.255,-0.035
1911,-0.255,-0.045
1912,-0.245,-0.035
1913,-0.235,-0.025
1914,-0.245,-0.035
1915,-0.245,-0.035
1916,-0.245,-0.045
1917,-0.235,-0.035
1918,-0.245,-0.035
1919,-0.265,-0.045
1920,-0.255,-0.035
1921,-0.235,-0.035
1922,-0.235,-0.045
1923,-0.235,-0.045
1924,-0.225,-0.055
1925,-0.225,-0.035
1926,-0.225,-0.045
1927,-0.235,-0.065
1928,-0.225,-0.055
1929,-0.195,-0.045
1930,-0.225,-0.055
1931,-0.215,-0.065
1932,-0.205,-0.055
1933,-0.195,-0.045
1934,-0.215,-0.065
1935,-0.225,-0.065
1936,-0.215,-0.055
1937,-0.185,-0.045
1938,-0.195,-0.055
1939,-0.195,-0.065
1940,-0.185,-0.055
1941,-0.205,-0.035
1942,-0.225,-0.055
1943,-0.195,-0.045
1944,-0.165,0.005
1945,-0.085,0.015
1946,-0.015,0.015
1947,-0.105,-0.045
1948,-0.125,-0.095
1949,-0.115,-0.075
1950,-0.145,-0.075
1951,-0.185,-0.095
1952,-0.195,-0.105
1953,-0.165,-0.095
1954,-0.175,-0.095
1955,-0.165,-0.105
1956,-0.165,-0.105
1957,-0.155,-0.085
1958,-0.125,-0.095
1959,-0.105,-0.075
1960,-0.445,0.005
1961,-0.685,0.205
1962,-0.095,0.365
1963,1.695,0.155
1964,2.935,-0.435
1965,3.355,-0.925
1966,1.495,-1.075
1967,0.135,-0.665
1968,-0.085,-0.165
1969,-0.115,-0.005
1970,-0.155,-0.025
1971,-0.195,-0.065
1972,-0.205,-0.055
1973,-0.205,-0.035
1974,-0.195,-0.035
1975,-0.205,-0.045
1976,-0.205,-0.035
1977,-0.205,-0.025
1978,-0.215,-0.035
1979,-0.205,-0.035
1980,-0.185,-0.035
1981,-0.205,-0.035
1982,-0.205,-0.035
1983,-0.195,-0.045
1984,-0.175,-0.045
1985,-0.165,-0.035
1986,-0.145,-0.055
1987,-0.155,-0.055
1988,-0.135,-0.055
1989,-0.115,-0.045
1990,-0.105,-0.055
1991,-0.105,-0.065
1992,-0.075,-0.055
1993,-0.025,-0.045
1994,-0.015,-0.055
1995,0.035,-0.055
1996,0.065,-0.055
1997,0.115,-0.045
1998,0.185,-0.055
1999,0.265,-0.065
2000,0.325,-0.055
2001,0.385,-0.045
2002,0.455,-0.055
2003,0.515,-0.055
2004,0.575,-0.035
2005,0.585,-0.035
2006,0.555,-0.035
2007,0.465,-0.025
2008,0.335,-0.015
2009,0.175,0.015
2010,0.025,0.005
2011,-0.085,0.005
2012,-0.155,0.005
2013,-0.195,0.015
2014,-0.215,-0.005
2015,-0.245,-0.015
2016,-0.245,-0.005
2017,-0.245,-0.005
2018,-0.245,-0.005
2019,-0.245,-0.015
2020,-0.245,-0.015
2021,-0.225,-0.015
2022,-0.225,-0.025
2023,-0.215,-0.035
2024,-0.215,-0.025
2025,-0.225,-0.015
2026,-0.225,-0.025
2027,-0.215,-0.035
2028,-0.215,-0.025
2029,-0.205,-0.025
2030,-0.215,-0.035
2031,-0.215,-0.035
2032,-0.205,-0.035
2033,-0.215,-0.035
2034,-0.215,-0.045
2035,-0.225,-0.045
2036,-0.215,-0.055
2037,-0.205,-0.045
2038,-0.225,-0.055
2039,-0.255,-0.075
2040,-0.225,-0.065
2041,-0.235,-0.055
2042,-0.225,-0.065
2043,-0.235,-0.075
2044,-0.225,-0.075
2045,-0.225,-0.065
2046,-0.225,-0.075
2047,-0.235,-0.095
2048,-0.235,-0.095
2049,-0.215,-0.075
2050,-0.215,-0.085
2051,-0.225,-0.085
2052,-0.235,-0.085
2053,-0.205,-0.085
2054,-0.215,-0.085
2055,-0.215,-0.095
2056,-0.225,-0.095
2057,-0.215,-0.075
2058,-0.225,-0.095
2059,-0.225,-0.095
2060,-0.225,-0.085
2061,-0.185,-0.085
2062,-0.195,-0.085
2063,-0.215,-0.095
2064,-0.165,-0.065
2065,-0.135,-0.025
2066,-0.105,-0.005
2067,-0.015,-0.005
2068,-0.045,-0.025
2069,-0.115,-0.105
2070,-0.115,-0.105
2071,-0.125,-0.105
2072,-0.145,-0.105
2073,-0.185,-0.095
2074,-0.185,-0.125
2075,-0.175,-0.145
2076,-0.155,-0.125
2077,-0.145,-0.115
2078,-0.135,-0.115
2079,-0.125,-0.125
2080,-0.085,-0.105
2081,-0.165,-0.075
2082,-0.585,0.085
2083,-0.585,0.235
2084,0.365,0.335
2085,2.245,-0.035
2086,3.115,-0.655
2087,3.225,-1.105
2088,1.185,-1.085
2089,0.075,-0.605
2090,-0.105,-0.165
2091,-0.115,-0.025
2092,-0.145,-0.045
2093,-0.145,-0.055
2094,-0.185,-0.055
2095,-0.195,-0.055
2096,-0.185,-0.065
2097,-0.175,-0.055
2098,-0.185,-0.055
2099,-0.185,-0.055
2100,-0.175,-0.045
2101,-0.155,-0.045
2102,-0.155,-0.055
2103,-0.165,-0.055
2104,-0.145,-0.055
2105,-0.155,-0.055
2106,-0.145,-0.055
2107,-0.135,-0.065
2108,-0.125,-0.065
2109,-0.135,-0.055
2110,-0.125,-0.065
2111,-0.125,-0.065
2112,-0.085,-0.065
2113,-0.055,-0.055
2114,-0.045,-0.065
2115,-0.025,-0.065
2116,0.015,-0.065
2117,0.065,-0.055
2118,0.105,-0.065
2119,0.175,-0.065
2120,0.245,-0.065
2121,0.325,-0.055
2122,0.385,-0.065
2123,0.445,-0.075
2124,0.515,-0.055
2125,0.575,-0.045
2126,0.625,-0.045
2127,0.625,-0.055
2128,0.575,-0.045
2129,0.475,-0.025
2130,0.335,-0.025
2131,0.175,-0.025
2132,0.045,-0.005
2133,-0.055,0.005
2134,-0.145,-0.015
2135,-0.185,-0.025
2136,-0.195,-0.015
2137,-0.205,-0.015
2138,-0.195,-0.025
2139,-0.195,-0.035
2140,-0.205,-0.035
2141,-0.195,-0.025
2142,-0.185,-0.035
2143,-0.185,-0.035
2144,-0.175,-0.035
2145,-0.155,-0.025
2146,-0.155,-0.025
2147,-0.165,-0.035
2148,-0.155,-0.035
2149,-0.145,-0.025
2150,-0.145,-0.035
2151,-0.145,-0.035
2152,-0.145,-0.035
2153,-0.135,-0.025
2154,-0.135,-0.035
2155,-0.135,-0.045
2156,-0.155,-0.045
2157,-0.155,-0.035
2158,-0.155,-0.035
2159,-0.165,-0.055
2160,-0.175,-0.045
2161,-0.165,-0.045
2162,-0.175,-0.055
2163,-0.175,-0.055
2164,-0.165,-0.055
2165,-0.165,-0.055
2166,-0.185,-0.065
2167,-0.185,-0.075
2168,-0.185,-0.065
2169,-0.185,-0.065
2170,-0.185,-0.075
2171,-0.195,-0.075
2172,-0.195,-0.065
2173,-0.185,-0.065
2174,-0.185,-0.065
2175,-0.195,-0.075
2176,-0.185,-0.075
2177,-0.175,-0.065
2178,-0.165,-0.065
2179,-0.165,-0.085
2180,-0.155,-0.075
2181,-0.145,-0.065
2182,-0.145,-0.075
2183,-0.155,-0.085
2184,-0.155,-0.065
2185,-0.145,-0.065
2186,-0.145,-0.075
2187,-0.145,-0.075
2188,-0.145,-0.065
2189,-0.145,-0.065
2190,-0.155,-0.065
2191,-0.105,-0.045
2192,-0.075,-0.005
2193,-0.025,0.025
2194,0.045,0.015
2195,-0.045,-0.035
2196,-0.065,-0.115
2197,-0.065,-0.075
2198,-0.065,-0.075
2199,-0.095,-0.075
2200,-0.135,-0.105
2201,-0.135,-0.105
2202,-0.115,-0.115
2203,-0.115,-0.115
2204,-0.115,-0.105
2205,-0.105,-0.095
2206,-0.095,-0.085
2207,-0.065,-0.085
2208,-0.245,-0.055
2209,-0.615,0.155
2210,-0.505,0.305
2211,0.535,0.305
2212,2.375,-0.165
2213,3.205,-0.765
2214,3.085,-1.215
2215,1.045,-1.055
2216,0.095,-0.525
2217,-0.085,-0.085
2218,-0.115,0.005
2219,-0.145,-0.025
2220,-0.165,-0.035
2221,-0.155,-0.025
2222,-0.165,-0.025
2223,-0.175,-0.035
2224,-0.165,-0.035
2225,-0.165,-0.015
2226,-0.165,-0.025
2227,-0.165,-0.035
2228,-0.145,-0.035
2229,-0.135,-0.015
2230,-0.135,-0.035
2231,-0.145,-0.035
2232,-0.135,-0.035
2233,-0.115,-0.025
2234,-0.125,-0.035
2235,-0.115,-0.045
2236,-0.095,-0.045
2237,-0.085,-0.035
2238,-0.075,-0.045
2239,-0.075,-0.045
2240,-0.055,-0.045
2241,-0.025,-0.035
2242,0.005,-0.035
2243,0.015,-0.045
2244,0.065,-0.035
2245,0.125,-0.025
2246,0.175,-0.025
2247,0.245,-0.035
2248,0.315,-0.035
2249,0.385,-0.015
2250,0.435,-0.025
2251,0.485,-0.025
2252,0.545,-0.015
2253,0.615,-0.015
2254,0.625,-0.015
2255,0.585,-0.025
2256,0.505,-0.025
2257,0.365,-0.005
2258,0.205,-0.005
2259,0.075,-0.005
2260,-0.025,-0.005
2261,-0.085,0.005
2262,-0.125,0.005
2263,-0.155,-0.015
2264,-0.155,-0.025
2265,-0.165,-0.015
2266,-0.175,-0.015
2267,-0.185,-0.025
2268,-0.175,-0.025
2269,-0.155,-0.015
2270,-0.155,-0.025
2271,-0.155,-0.035
2272,-0.145,-0.035
2273,-0.135,-0.015
2274,-0.135,-0.025
2275,-0.145,-0.035
2276,-0.135,-0.035
2277,-0.135,-0.015
2278,-0.135,-0.025
2279,-0.135,-0.045
2280,-0.135,-0.035
2281,-0.145,-0.025
2282,-0.145,-0.035
2283,-0.145,-0.045
2284,-0.145,-0.035
2285,-0.155,-0.035
2286,-0.165,-0.045
2287,-0.155,-0.045
2288,-0.165,-0.045
2289,-0.165,-0.045
2290,-0.175,-0.055
2291,-0.155,-0.055
2292,-0.175,-0.055
2293,-0.175,-0.055
2294,-0.185,-0.065
2295,-0.185,-0.065
2296,-0.185,-0.065
2297,-0.175,-0.055
2298,-0.175,-0.065
2299,-0.175,-0.065
2300,-0.175,-0.065
2301,-0.155,-0.065
2302,-0.165,-0.065
2303,-0.165,-0.085
2304,-0.165,-0.075
2305,-0.165,-0.055
2306,-0.165,-0.065
2307,-0.175,-0.075
2308,-0.155,-0.065
2309,-0.165,-0.055
2310,-0.155,-0.075
2311,-0.155,-0.075
2312,-0.145,-0.065
2313,-0.145,-0.065
2314,-0.145,-0.065
2315,-0.145,-0.075
2316,-0.135,-0.075
2317,-0.135,-0.055
2318,-0.145,-0.065
2319,-0.145,-0.075
2320,-0.145,-0.075
2321,-0.145,-0.055
2322,-0.145,-0.075
2323,-0.145,-0.075
2324,-0.145,-0.065
2325,-0.135,-0.055
2326,-0.145,-0.065
2327,-0.145,-0.075
2328,-0.145,-0.075
2329,-0.135,-0.055
2330,-0.135,-0.065
2331,-0.145,-0.075
2332,-0.125,-0.065
2333,-0.115,-0.055
2334,-0.115,-0.075
2335,-0.125,-0.075
2336,-0.115,-0.065
2337,-0.115,-0.055
2338,-0.115,-0.065
2339,-0.115,-0.075
2340,-0.115,-0.065
2341,-0.115,-0.055
2342,-0.115,-0.045
2343,-0.085,-0.035
2344,-0.065,-0.005
2345,0.005,0.025
2346,0.055,0.005
2347,-0.035,-0.055
2348,-0.065,-0.095
2349,-0.045,-0.065
2350,-0.065,-0.055
2351,-0.115,-0.085
2352,-0.115,-0.105
2353,-0.095,-0.095
2354,-0.115,-0.085
2355,-0.115,-0.095
2356,-0.105,-0.095
2357,-0.095,-0.075
2358,-0.075,-0.065
2359,-0.135,-0.065
2360,-0.495,0.085
2361,-0.605,0.265
2362,0.165,0.365
2363,1.905,-0.025
2364,2.925,-0.645
2365,3.165,-1.085
2366,1.515,-1.085
2367,0.255,-0.625
2368,-0.045,-0.145
2369,-0.085,0.005
2370,-0.135,0.005
2371,-0.175,-0.015
2372,-0.185,-0.015
2373,-0.185,-0.005
2374,-0.195,0.005
2375,-0.195,0.005
2376,-0.195,-0.005
2377,-0.195,0.005
2378,-0.195,-0.005
2379,-0.195,-0.015
2380,-0.205,-0.005
2381,-0.185,0.005
2382,-0.195,-0.005
2383,-0.205,-0.015
2384,-0.215,-0.005
2385,-0.195,0.005
2386,-0.175,-0.015
2387,-0.165,-0.015
2388,-0.165,-0.015
2389,-0.145,-0.005
2390,-0.125,-0.015
2391,-0.105,-0.025
2392,-0.085,-0.005
2393,-0.045,-0.005
2394,-0.025,-0.015
2395,0.005,-0.005
2396,0.045,0.005
2397,0.125,0.005
2398,0.195,-0.005
2399,0.245,-0.005
2400,0.335,-0.005
2401,0.405,0.005
2402,0.455,0.005
2403,0.495,0.005
2404,0.555,0.005
2405,0.575,0.015
2406,0.525,0.005
2407,0.405,-0.005
2408,0.275,0.015
2409,0.125,0.035
2410,-0.035,0.015
2411,-0.145,0.015
2412,-0.205,0.025
2413,-0.235,0.005
2414,-0.255,0.005
2415,-0.265,-0.005
2416,-0.285,-0.005
2417,-0.275,0.005
2418,-0.275,0.005
2419,-0.275,-0.015
2420,-0.265,-0.005
2421,-0.245,0.005
2422,-0.255,-0.015
2423,-0.245,-0.015
2424,-0.245,-0.005
2425,-0.245,-0.005
2426,-0.235,-0.015
2427,-0.245,-0.025
2428,-0.235,-0.015
2429,-0.245,-0.015
2430,-0.235,-0.015
2431,-0.255,-0.025
2432,-0.245,-0.015
2433,-0.235,-0.005
2434,-0.265,-0.015
2435,-0.255,-0.025
2436,-0.255,-0.025
2437,-0.255,-0.015
2438,-0.255,-0.035
2439,-0.255,-0.045
2440,-0.275,-0.035
2441,-0.265,-0.035
2442,-0.275,-0.045
2443,-0.265,-0.055
2444,-0.295,-0.045
2445,-0.285,-0.045
2446,-0.285,-0.055
2447,-0.285,-0.055
2448,-0.275,-0.045
2449,-0.275,-0.045
2450,-0.295,-0.055
2451,-0.275,-0.065
2452,-0.265,-0.055
2453,-0.265,-0.055
2454,-0.265,-0.055
2455,-0.255,-0.065
2456,-0.245,-0.065
2457,-0.245,-0.045
2458,-0.245,-0.065
2459,-0.265,-0.075
2460,-0.245,-0.065
2461,-0.245,-0.055
2462,-0.255,-0.065
2463,-0.255,-0.065
2464,-0.245,-0.065
2465,-0.255,-0.055
2466,-0.235,-0.065
2467,-0.235,-0.065
2468,-0.235,-0.065
2469,-0.235,-0.055
2470,-0.235,-0.055
2471,-0.245,-0.075
2472,-0.225,-0.065
2473,-0.215,-0.065
2474,-0.235,-0.065
2475,-0.225,-0.065
2476,-0.235,-0.065
2477,-0.235,-0.065
2478,-0.235,-0.065
2479,-0.225,-0.065
2480,-0.215,-0.075
2481,-0.255,-0.035
2482,-0.215,-0.055
2483,-0.195,-0.015
2484,-0.125,0.005
2485,-0.045,0.035
2486,-0.105,-0.015
2487,-0.135,-0.095
2488,-0.135,-0.075
2489,-0.165,-0.045
2490,-0.205,-0.075
2491,-0.235,-0.095
2492,-0.225,-0.095
2493,-0.205,-0.085
2494,-0.205,-0.095
2495,-0.205,-0.095
2496,-0.175,-0.095
2497,-0.155,-0.065
2498,-0.115,-0.065
2499,-0.365,-0.025
2500,-0.675,0.165
2501,-0.445,0.305
2502,0.885,0.355
2503,2.565,-0.105
2504,3.215,-0.635
2505,2.695,-1.045
2506,0.555,-0.905
2507,-0.085,-0.425
2508,-0.175,-0.065
2509,-0.205,0.005
2510,-0.215,-0.025
2511,-0.225,-0.035
2512,-0.245,-0.035
2513,-0.255,-0.025
2514,-0.255,-0.025
2515,-0.255,-0.035
2516,-0.245,-0.015
2517,-0.245,-0.015
2518,-0.245,-0.025
2519,-0.245,-0.025
2520,-0.225,-0.025
2521,-0.225,-0.015
2522,-0.225,-0.025
2523,-0.225,-0.035
2524,-0.215,-0.035
2525,-0.205,-0.025
2526,-0.195,-0.035
2527,-0.185,-0.045
2528,-0.175,-0.045
2529,-0.165,-0.035
2530,-0.145,-0.045
2531,-0.135,-0.055
2532,-0.095,-0.055
2533,-0.065,-0.045
2534,-0.035,-0.055
2535,-0.005,-0.055
2536,0.045,-0.055
2537,0.115,-0.045
2538,0.185,-0.045
2539,0.255,-0.055
2540,0.325,-0.055
2541,0.415,-0.055
2542,0.475,-0.065
2543,0.525,-0.065
2544,0.585,-0.065
2545,0.595,-0.055
2546,0.515,-0.055
2547,0.395,-0.045
2548,0.245,-0.035
2549,0.105,-0.015
2550,-0.025,-0.015
2551,-0.125,-0.025
2552,-0.185,-0.025
2553,-0.215,-0.025
2554,-0.245,-0.035
2555,-0.265,-0.045
2556,-0.275,-0.045
2557,-0.275,-0.035
2558,-0.265,-0.045
2559,-0.275,-0.045
2560,-0.265,-0.055
2561,-0.255,-0.045
2562,-0.255,-0.045
2563,-0.255,-0.055
2564,-0.235,-0.055
2565,-0.225,-0.045
2566,-0.225,-0.055
2567,-0.215,-0.055
2568,-0.215,-0.065
2569,-0.215,-0.055
2570,-0.225,-0.055
2571,-0.235,-0.065
2572,-0.235,-0.065
2573,-0.225,-0.065
2574,-0.225,-0.065
2575,-0.235,-0.075
2576,-0.235,-0.075
2577,-0.225,-0.065
2578,-0.235,-0.075
2579,-0.235,-0.075
2580,-0.245,-0.095
2581,-0.225,-0.085
2582,-0.235,-0.085
2583,-0.235,-0.095
2584,-0.225,-0.095
2585,-0.225,-0.095
2586,-0.235,-0.095
2587,-0.245,-0.115
2588,-0.235,-0.095
2589,-0.225,-0.095
2590,-0.235,-0.105
2591,-0.245,-0.105
2592,-0.235,-0.105
2593,-0.225,-0.105
2594,-0.235,-0.105
2595,-0.225,-0.115
2596,-0.225,-0.105
2597,-0.215,-0.095
2598,-0.225,-0.115
2599,-0.235,-0.125
2600,-0.235,-0.115
2601,-0.215,-0.105
2602,-0.215,-0.115
2603,-0.205,-0.125
2604,-0.205,-0.115
2605,-0.195,-0.105
2606,-0.195,-0.125
2607,-0.195,-0.125
2608,-0.195,-0.115
2609,-0.175,-0.105
2610,-0.175,-0.115
2611,-0.195,-0.115
2612,-0.175,-0.095
2613,-0.135,-0.065
2614,-0.115,-0.035
2615,-0.035,-0.035
2616,-0.025,-0.035
2617,-0.115,-0.095
2618,-0.115,-0.145
2619,-0.115,-0.115
2620,-0.135,-0.105
2621,-0.165,-0.115
2622,-0.185,-0.155
2623,-0.175,-0.155
2624,-0.165,-0.145
2625,-0.155,-0.125
2626,-0.155,-0.135
2627,-0.145,-0.145
2628,-0.135,-0.125
2629,-0.145,-0.105
2630,-0.505,-0.025
2631,-0.705,0.165
2632,-0.125,0.325
2633,1.635,0.085
2634,2.875,-0.565
2635,3.325,-1.045
2636,1.815,-1.215
2637,0.265,-0.805
2638,-0.075,-0.285
2639,-0.135,-0.075
2640,-0.155,-0.055
2641,-0.175,-0.065
2642,-0.205,-0.075
2643,-0.215,-0.075
2644,-0.225,-0.065
2645,-0.215,-0.055
2646,-0.215,-0.065
2647,-0.215,-0.055
2648,-0.195,-0.055
2649,-0.195,-0.045
2650,-0.195,-0.055
2651,-0.205,-0.065
2652,-0.185,-0.065
2653,-0.185,-0.055
2654,-0.185,-0.065
2655,-0.195,-0.065
2656,-0.175,-0.065
2657,-0.175,-0.065
2658,-0.165,-0.065
2659,-0.165,-0.075
2660,-0.155,-0.065
2661,-0.135,-0.055
2662,-0.115,-0.065
2663,-0.085,-0.085
2664,-0.055,-0.075
2665,-0.015,-0.065
2666,0.025,-0.075
2667,0.085,-0.085
2668,0.145,-0.075
2669,0.235,-0.055
2670,0.305,-0.075
2671,0.375,-0.075
2672,0.445,-0.075
2673,0.505,-0.065
2674,0.555,-0.065
2675,0.595,-0.075
2676,0.595,-0.075
2677,0.545,-0.065
2678,0.415,-0.065
2679,0.235,-0.065
2680,0.095,-0.045
2681,-0.035,-0.035
2682,-0.135,-0.055
2683,-0.185,-0.065
2684,-0.215,-0.055
2685,-0.235,-0.055
2686,-0.255,-0.065
2687,-0.265,-0.075
2688,-0.265,-0.075
2689,-0.265,-0.065
2690,-0.265,-0.075
2691,-0.275,-0.085
2692,-0.265,-0.075
2693,-0.255,-0.065
2694,-0.255,-0.075
2695,-0.255,-0.085
2696,-0.245,-0.075
2697,-0.235,-0.075
2698,-0.235,-0.075
2699,-0.225,-0.075
2700,-0.225,-0.075
2701,-0.215,-0.065
2702,-0.225,-0.085
2703,-0.225,-0.085
2704,-0.215,-0.085
2705,-0.215,-0.075
2706,-0.225,-0.085
2707,-0.235,-0.095
2708,-0.235,-0.095
2709,-0.225,-0.085
2710,-0.235,-0.105
2711,-0.235,-0.115
2712,-0.235,-0.095
2713,-0.235,-0.095
2714,-0.245,-0.105
2715,-0.245,-0.105
2716,-0.245,-0.105
2717,-0.235,-0.095
2718,-0.245,-0.115
2719,-0.245,-0.115
2720,-0.245,-0.105
2721,-0.235,-0.105
2722,-0.235,-0.115
2723,-0.245,-0.115
2724,-0.225,-0.105
2725,-0.235,-0.105
2726,-0.235,-0.105
2727,-0.245,-0.125
2728,-0.225,-0.115
2729,-0.225,-0.105
2730,-0.215,-0.115
2731,-0.225,-0.115
2732,-0.235,-0.105
2733,-0.205,-0.105
2734,-0.215,-0.115
2735,-0.215,-0.125
2736,-0.205,-0.115
2737,-0.205,-0.105
2738,-0.195,-0.115
2739,-0.195,-0.125
2740,-0.185,-0.115
2741,-0.175,-0.105
2742,-0.185,-0.115
2743,-0.175,-0.125
2744,-0.175,-0.115
2745,-0.175,-0.105
2746,-0.175,-0.115
2747,-0.195,-0.105
2748,-0.175,-0.095
2749,-0.145,-0.055
2750,-0.115,-0.035
2751,-0.035,-0.025
2752,-0.045,-0.045
2753,-0.125,-0.115
2754,-0.135,-0.135
2755,-0.135,-0.115
2756,-0.145,-0.105
2757,-0.205,-0.115
2758,-0.195,-0.145
2759,-0.195,-0.155
2760,-0.185,-0.145
2761,-0.175,-0.135
2762,-0.175,-0.135
2763,-0.165,-0.135
2764,-0.145,-0.125
2765,-0.175,-0.105
2766,-0.585,0.045
2767,-0.685,0.205
2768,0.015,0.325
2769,1.765,-0.025
2770,2.855,-0.635
2771,3.245,-1.095
2772,1.915,-1.215
2773,0.325,-0.765
2774,-0.075,-0.255
2775,-0.135,-0.055
2776,-0.165,-0.045
2777,-0.185,-0.065
2778,-0.205,-0.055
2779,-0.215,-0.065
2780,-0.215,-0.065
2781,-0.225,-0.055
2782,-0.245,-0.055
2783,-0.235,-0.065
2784,-0.235,-0.065
2785,-0.235,-0.045
2786,-0.245,-0.055
2787,-0.245,-0.065
2788,-0.235,-0.065
2789,-0.245,-0.055
2790,-0.235,-0.065
2791,-0.235,-0.075
2792,-0.215,-0.065
2793,-0.205,-0.055
2794,-0.205,-0.055
2795,-0.195,-0.065
2796,-0.185,-0.065
2797,-0.145,-0.055
2798,-0.115,-0.065
2799,-0.105,-0.075
2800,-0.075,-0.065
2801,-0.025,-0.055
2802,0.005,-0.045
2803,0.055,-0.055
2804,0.135,-0.055
2805,0.215,-0.035
2806,0.295,-0.045
2807,0.355,-0.045
2808,0.425,-0.035
2809,0.495,-0.035
2810,0.535,-0.035
2811,0.555,-0.035
2812,0.505,-0.035
2813,0.405,-0.035
2814,0.265,-0.025
2815,0.105,-0.025
2816,-0.035,-0.015
2817,-0.145,-0.015
2818,-0.205,-0.015
2819,-0.255,-0.025
2820,-0.275,-0.025
2821,-0.275,-0.025
2822,-0.275,-0.045
2823,-0.285,-0.045
2824,-0.275,-0.045
2825,-0.275,-0.045
2826,-0.275,-0.055
2827,-0.275,-0.045
2828,-0.265,-0.045
2829,-0.265,-0.045
2830,-0.275,-0.045
2831,-0.255,-0.055
2832,-0.255,-0.045
2833,-0.245,-0.035
2834,-0.265,-0.065
2835,-0.265,-0.055
2836,-0.255,-0.055
2837,-0.245,-0.045
2838,-0.255,-0.045
2839,-0.265,-0.065
2840,-0.265,-0.045
2841,-0.265,-0.045
2842,-0.265,-0.055
2843,-0.275,-0.065
2844,-0.285,-0.075
2845,-0.265,-0.065
2846,-0.275,-0.065
2847,-0.275,-0.075
2848,-0.265,-0.075
2849,-0.285,-0.055
2850,-0.295,-0.065
2851,-0.295,-0.075
2852,-0.285,-0.075
2853,-0.285,-0.075
2854,-0.275,-0.085
2855,-0.275,-0.085
2856,-0.285,-0.085
2857,-0.275,-0.075
2858,-0.275,-0.075
2859,-0.265,-0.085
2860,-0.265,-0.085
2861,-0.265,-0.075
2862,-0.255,-0.075
2863,-0.245,-0.095
2864,-0.265,-0.085
2865,-0.245,-0.075
2866,-0.255,-0.085
2867,-0.265,-0.095
2868,-0.255,-0.085
2869,-0.235,-0.075
2870,-0.255,-0.085
2871,-0.265,-0.095
2872,-0.245,-0.075
2873,-0.255,-0.065
2874,-0.255,-0.075
2875,-0.255,-0.085
2876,-0.235,-0.075
2877,-0.235,-0.065
2878,-0.235,-0.075
2879,-0.235,-0.085
2880,-0.245,-0.085
2881,-0.265,-0.075
2882,-0.255,-0.065
2883,-0.245,-0.075
2884,-0.245,-0.065
2885,-0.265,-0.055
2886,-0.255,-0.065
2887,-0.215,-0.045
2888,-0.185,-0.005
2889,-0.105,0.015
2890,-0.055,0.005
2891,-0.145,-0.055
2892,-0.165,-0.105
2893,-0.145,-0.065
2894,-0.175,-0.065
2895,-0.205,-0.085
2896,-0.235,-0.105
2897,-0.205,-0.105
2898,-0.215,-0.105
2899,-0.215,-0.105
2900,-0.195,-0.095
2901,-0.175,-0.075
2902,-0.155,-0.075
2903,-0.155,-0.075
2904,-0.505,0.025
2905,-0.695,0.205
2906,-0.225,0.365
2907,1.385,0.295
2908,2.785,-0.265
2909,3.325,-0.785
2910,1.715,-1.085
2911,0.105,-0.745
2912,-0.175,-0.215
2913,-0.185,0.005
2914,-0.215,-0.005
2915,-0.255,-0.035
2916,-0.255,-0.025
2917,-0.275,-0.025
2918,-0.275,-0.025
2919,-0.275,-0.035
2920,-0.265,-0.035
2921,-0.265,-0.015
2922,-0.255,-0.025
2923,-0.255,-0.035
2924,-0.255,-0.025
2925,-0.245,-0.015
2926,-0.255,-0.025
2927,-0.235,-0.035
2928,-0.235,-0.035
2929,-0.225,-0.025
2930,-0.225,-0.035
2931,-0.205,-0.045
2932,-0.205,-0.035
2933,-0.195,-0.035
2934,-0.175,-0.045
2935,-0.155,-0.045
2936,-0.135,-0.045
2937,-0.115,-0.035
2938,-0.075,-0.035
2939,-0.045,-0.035
2940,0.015,-0.035
2941,0.065,-0.025
2942,0.125,-0.035
2943,0.195,-0.045
2944,0.275,-0.045
2945,0.335,-0.035
2946,0.405,-0.045
2947,0.435,-0.035
2948,0.495,-0.035
2949,0.545,-0.035
2950,0.555,-0.035
2951,0.475,-0.035
2952,0.345,-0.015
2953,0.205,0.005
2954,0.055,0.005
2955,-0.065,0.005
2956,-0.145,0.015
2957,-0.195,0.015
2958,-0.245,0.015
2959,-0.265,0.005
2960,-0.275,-0.005
2961,-0.275,-0.005
2962,-0.285,0.005
2963,-0.285,-0.015
2964,-0.285,-0.015
2965,-0.265,-0.005
2966,-0.265,-0.005
2967,-0.265,-0.015
2968,-0.265,-0.015
2969,-0.255,-0.005
2970,-0.235,-0.005
2971,-0.245,-0.005
2972,-0.255,-0.005
2973,-0.245,-0.005
2974,-0.245,-0.005
2975,-0.245,-0.005
2976,-0.235,-0.005
2977,-0.235,-0.005
2978,-0.265,-0.015
2979,-0.265,-0.025
2980,-0.255,-0.025
2981,-0.265,-0.015
2982,-0.255,-0.015
2983,-0.265,-0.035
2984,-0.255,-0.035
2985,-0.235,-0.025
2986,-0.245,-0.035
2987,-0.245,-0.035
2988,-0.245,-0.045
2989,-0.235,-0.045
2990,-0.245,-0.045
2991,-0.255,-0.055
2992,-0.245,-0.055
2993,-0.235,-0.035
2994,-0.235,-0.045
2995,-0.225,-0.055
2996,-0.235,-0.055
2997,-0.225,-0.045
2998,-0.225,-0.045
2999,-0.235,-0.055
3000,-0.225,-0.055
3001,-0.225,-0.045
3002,-0.225,-0.055
3003,-0.225,-0.055
3004,-0.205,-0.065
3005,-0.215,-0.055
3006,-0.215,-0.045
3007,-0.175,-0.025
3008,-0.155,0.015
3009,-0.085,0.035
3010,-0.035,0.035
3011,-0.135,-0.025
3012,-0.145,-0.095
3013,-0.125,-0.065
3014,-0.145,-0.065
3015,-0.185,-0.085
3016,-0.205,-0.105
3017,-0.185,-0.095
3018,-0.175,-0.105
3019,-0.165,-0.095
3020,-0.165,-0.095
3021,-0.145,-0.085
3022,-0.125,-0.075
3023,-0.095,-0.085
3024,-0.365,-0.025
3025,-0.665,0.205
3026,-0.295,0.365
3027,1.175,0.285
3028,2.755,-0.285
3029,3.375,-0.835
3030,2.115,-1.175
3031,0.275,-0.805
3032,-0.085,-0.245
3033,-0.115,-0.005
3034,-0.155,-0.005
3035,-0.185,-0.035
3036,-0.185,-0.035
3037,-0.185,-0.025
3038,-0.195,-0.025
3039,-0.185,-0.045
3040,-0.185,-0.035
3041,-0.175,-0.025
3042,-0.175,-0.025
3043,-0.185,-0.035
3044,-0.165,-0.035
3045,-0.165,-0.025
3046,-0.155,-0.035
3047,-0.155,-0.045
3048,-0.145,-0.035
3049,-0.135,-0.025
3050,-0.125,-0.035
3051,-0.115,-0.045
3052,-0.095,-0.045
3053,-0.075,-0.035
3054,-0.085,-0.045
3055,-0.065,-0.055
3056,-0.035,-0.045
3057,-0.005,-0.045
3058,0.015,-0.045
3059,0.075,-0.035
3060,0.125,-0.035
3061,0.185,-0.035
3062,0.255,-0.045
3063,0.335,-0.045
3064,0.405,-0.035
3065,0.475,-0.035
3066,0.545,-0.035
3067,0.605,-0.035
3068,0.665,-0.035
3069,0.645,-0.025
3070,0.555,-0.025
3071,0.425,-0.015
3072,0.275,0.005
3073,0.145,0.015
3074,0.005,-0.005
3075,-0.085,0.005
3076,-0.135,0.005
3077,-0.175,0.005
3078,-0.205,-0.005
3079,-0.205,-0.015
3080,-0.205,-0.015
3081,-0.205,-0.005
3082,-0.185,-0.025
3083,-0.195,-0.025
3084,-0.185,-0.025
3085,-0.185,-0.025
3086,-0.175,-0.025
3087,-0.165,-0.035
3088,-0.165,-0.025
3089,-0.155,-0.015
3090,-0.165,-0.025
3091,-0.165,-0.025
3092,-0.145,-0.025
3093,-0.135,-0.025
3094,-0.135,-0.025
3095,-0.145,-0.035
3096,-0.135,-0.035
3097,-0.135,-0.025
3098,-0.135,-0.025
3099,-0.135,-0.025
3100,-0.155,-0.035
3101,-0.165,-0.035
3102,-0.165,-0.035
3103,-0.185,-0.035
3104,-0.185,-0.045
3105,-0.175,-0.045
3106,-0.175,-0.035
3107,-0.175,-0.045
3108,-0.185,-0.055
3109,-0.175,-0.055
3110,-0.185,-0.045
3111,-0.175,-0.065
3112,-0.185,-0.065
3113,-0.175,-0.055
3114,-0.185,-0.055
3115,-0.175,-0.045
3116,-0.175,-0.065
3117,-0.175,-0.055
3118,-0.175,-0.055
3119,-0.175,-0.045
3120,-0.185,-0.055
3121,-0.175,-0.055
3122,-0.175,-0.065
3123,-0.175,-0.055
3124,-0.165,-0.055
3125,-0.165,-0.055
3126,-0.165,-0.055
3127,-0.155,-0.055
3128,-0.145,-0.065
3129,-0.145,-0.045
3130,-0.145,-0.055
3131,-0.155,-0.065
3132,-0.145,-0.055
3133,-0.155,-0.045
3134,-0.105,-0.025
3135,-0.095,0.015
3136,-0.045,0.025
3137,0.035,0.045
3138,-0.055,-0.005
3139,-0.085,-0.095
3140,-0.075,-0.065
3141,-0.055,-0.045
3142,-0.105,-0.045
3143,-0.155,-0.085
3144,-0.145,-0.095
3145,-0.125,-0.085
3146,-0.125,-0.085
3147,-0.115,-0.085
3148,-0.125,-0.065
3149,-0.115,-0.065
3150,-0.075,-0.055
3151,-0.295,-0.035
3152,-0.665,0.195
3153,-0.365,0.375
3154,1.185,0.245
3155,2.785,-0.385
3156,3.385,-0.925
3157,2.205,-1.185
3158,0.405,-0.775
3159,-0.015,-0.235
3160,-0.085,0.005
3161,-0.115,0.045
3162,-0.145,-0.005
3163,-0.165,-0.015
3164,-0.175,0.005
3165,-0.175,0.005
3166,-0.175,-0.005
3167,-0.165,0.005
3168,-0.165,0.005
3169,-0.165,0.005
3170,-0.165,0.005
3171,-0.165,-0.005
3172,-0.165,0.005
3173,-0.155,0.015
3174,-0.155,0.005
3175,-0.145,-0.005
3176,-0.145,-0.005
3177,-0.125,-0.005
3178,-0.115,-0.005
3179,-0.125,-0.015
3180,-0.125,-0.005
3181,-0.095,0.005
3182,-0.085,-0.005
3183,-0.065,-0.015
3184,-0.035,-0.005
3185,-0.005,0.005
3186,0.035,-0.005
3187,0.075,-0.005
3188,0.125,0.005
3189,0.195,0.015
3190,0.265,0.015
3191,0.345,0.005
3192,0.415,0.005
3193,0.485,0.025
3194,0.535,0.015
3195,0.595,0.005
3196,0.635,0.015
3197,0.625,0.025
3198,0.555,0.015
3199,0.435,0.025
3200,0.305,0.035
3201,0.155,0.055
3202,0.025,0.045
3203,-0.075,0.035
3204,-0.115,0.025
3205,-0.145,0.045
3206,-0.165,0.025
3207,-0.185,0.015
3208,-0.185,0.025
3209,-0.185,0.025
3210,-0.175,0.015
3211,-0.175,0.005
3212,-0.165,0.015
3213,-0.155,0.015
3214,-0.145,0.015
3215,-0.145,-0.005
3216,-0.155,0.005
3217,-0.135,0.025
3218,-0.145,0.015
3219,-0.135,0.005
3220,-0.145,0.015
3221,-0.125,0.025
3222,-0.135,0.015
3223,-0.155,-0.005
3224,-0.155,0.005
3225,-0.155,0.015
3226,-0.165,0.005
3227,-0.165,-0.005
3228,-0.175,-0.005
3229,-0.165,0.005
3230,-0.175,-0.015
3231,-0.165,-0.015
3232,-0.165,-0.005
3233,-0.165,-0.005
3234,-0.165,-0.015
3235,-0.175,-0.025
3236,-0.165,-0.015
3237,-0.155,-0.015
3238,-0.165,-0.025
3239,-0.165,-0.035
3240,-0.165,-0.025
3241,-0.165,-0.015
3242,-0.155,-0.025
3243,-0.155,-0.025
3244,-0.165,-0.015
3245,-0.155,-0.015
3246,-0.155,-0.025
3247,-0.165,-0.035
3248,-0.155,-0.025
3249,-0.155,-0.005
3250,-0.165,-0.025
3251,-0.175,-0.025
3252,-0.155,-0.015
3253,-0.145,-0.005
3254,-0.155,-0.015
3255,-0.155,-0.025
3256,-0.145,-0.015
3257,-0.155,-0.005
3258,-0.155,-0.025
3259,-0.155,-0.025
3260,-0.155,-0.015
3261,-0.155,-0.005
3262,-0.145,-0.015
3263,-0.155,-0.025
3264,-0.155,-0.015
3265,-0.155,-0.005
3266,-0.135,-0.015
3267,-0.135,-0.015
3268,-0.145,-0.015
3269,-0.135,0.005
3270,-0.135,-0.005
3271,-0.155,-0.015
3272,-0.145,-0.005
3273,-0.145,0.005
3274,-0.155,0.005
3275,-0.145,-0.005
3276,-0.145,0.005
3277,-0.135,0.015
3278,-0.135,0.005
3279,-0.145,-0.005
3280,-0.145,0.005
3281,-0.125,0.015
3282,-0.125,0.015
3283,-0.125,0.005
3284,-0.125,0.005
3285,-0.105,0.015
3286,-0.125,0.005
3287,-0.115,0.005
3288,-0.115,0.015
3289,-0.105,0.015
3290,-0.115,0.015
3291,-0.125,0.005
3292,-0.115,0.025
3293,-0.125,0.035
3294,-0.135,0.025
3295,-0.105,0.025
3296,-0.085,0.085
3297,0.005,0.105
3298,0.005,0.085
3299,-0.045,0.015
3300,-0.055,-0.005
3301,-0.055,0.015
3302,-0.075,0.015
3303,-0.115,-0.005
3304,-0.115,-0.005
3305,-0.105,-0.005
3306,-0.095,-0.005
3307,-0.115,-0.005
3308,-0.105,-0.005
3309,-0.095,0.015
3310,-0.075,0.015
3311,-0.195,0.035
3312,-0.585,0.215
3313,-0.555,0.375
3314,0.455,0.425
3315,2.285,0.025
3316,3.105,-0.535
3317,3.085,-0.985
3318,1.025,-0.885
3319,0.085,-0.385
3320,-0.045,-0.005
3321,-0.075,0.095
3322,-0.125,0.075
3323,-0.155,0.045
3324,-0.145,0.065
3325,-0.155,0.075
3326,-0.155,0.075
3327,-0.175,0.045
3328,-0.185,0.075
3329,-0.165,0.085
3330,-0.155,0.075
3331,-0.165,0.065
3332,-0.165,0.075
3333,-0.155,0.075
3334,-0.165,0.065
3335,-0.165,0.045
3336,-0.165,0.065
3337,-0.155,0.065
3338,-0.155,0.065
3339,-0.125,0.045
3340,-0.135,0.055
3341,-0.115,0.065
3342,-0.105,0.055
3343,-0.085,0.045
3344,-0.065,0.055
3345,-0.035,0.065
3346,-0.005,0.045
3347,0.055,0.055
3348,0.105,0.055
3349,0.155,0.065
3350,0.225,0.055
3351,0.265,0.055
3352,0.345,0.065
3353,0.425,0.075
3354,0.465,0.065
3355,0.525,0.065
3356,0.595,0.065
3357,0.615,0.065
3358,0.585,0.065
3359,0.475,0.055
3360,0.345,0.075
3361,0.195,0.085
3362,0.055,0.085
3363,-0.055,0.065
3364,-0.135,0.085
3365,-0.195,0.085
3366,-0.215,0.085
3367,-0.215,0.065
3368,-0.225,0.065
3369,-0.235,0.065
3370,-0.225,0.075
3371,-0.235,0.055
3372,-0.215,0.065
3373,-0.215,0.065
3374,-0.215,0.055
3375,-0.195,0.045
3376,-0.195,0.065
3377,-0.195,0.065
3378,-0.195,0.055
3379,-0.225,0.045
3380,-0.215,0.055
3381,-0.205,0.065
3382,-0.215,0.055
3383,-0.225,0.045
3384,-0.205,0.055
3385,-0.205,0.065
3386,-0.215,0.055
3387,-0.225,0.045
3388,-0.215,0.055
3389,-0.205,0.055
3390,-0.215,0.045
3391,-0.225,0.045
3392,-0.215,0.035
3393,-0.215,0.045
3394,-0.225,0.035
3395,-0.225,0.025
3396,-0.215,0.025
3397,-0.215,0.045
3398,-0.215,0.035
3399,-0.235,0.025
3400,-0.235,0.025
3401,-0.215,0.035
3402,-0.225,0.025
3403,-0.215,0.005
3404,-0.225,0.015
3405,-0.225,0.035
3406,-0.225,0.025
3407,-0.225,0.005
3408,-0.215,0.015
3409,-0.205,0.035
3410,-0.215,0.025
3411,-0.215,0.015
3412,-0.205,0.025
3413,-0.195,0.035
3414,-0.205,0.025
3415,-0.205,0.025
3416,-0.195,0.015
3417,-0.185,0.025
3418,-0.185,0.025
3419,-0.195,0.005
3420,-0.175,0.025
3421,-0.185,0.035
3422,-0.175,0.025
3423,-0.175,0.005
3424,-0.165,0.025
3425,-0.155,0.025
3426,-0.155,0.005
3427,-0.155,0.015
3428,-0.145,0.025
3429,-0.155,0.045
3430,-0.145,0.045
3431,-0.115,0.075
3432,-0.055,0.105
3433,0.025,0.135
3434,-0.035,0.085
3435,-0.105,0.005
3436,-0.095,0.015
3437,-0.085,0.045
3438,-0.135,0.025
3439,-0.165,-0.005
3440,-0.155,-0.025
3441,-0.135,-0.005
3442,-0.145,-0.005
3443,-0.135,-0.015
3444,-0.125,0.005
3445,-0.105,0.015
3446,-0.075,0.025
3447,-0.435,0.095
3448,-0.665,0.305
3449,-0.075,0.465
3450,1.695,0.225
3451,2.955,-0.435
3452,3.335,-0.885
3453,1.865,-1.035
3454,0.225,-0.615
3455,-0.055,-0.125
3456,-0.095,0.065
3457,-0.115,0.085
3458,-0.135,0.045
3459,-0.165,0.045
3460,-0.155,0.055
3461,-0.155,0.065
3462,-0.175,0.065
3463,-0.185,0.055
3464,-0.175,0.065
3465,-0.185,0.085
3466,-0.185,0.075
3467,-0.185,0.065
3468,-0.185,0.055
3469,-0.165,0.065
3470,-0.165,0.055
3471,-0.155,0.065
3472,-0.165,0.055
3473,-0.145,0.065
3474,-0.145,0.055
3475,-0.135,0.045
3476,-0.115,0.045
3477,-0.105,0.055
3478,-0.085,0.055
3479,-0.055,0.045
3480,-0.025,0.055
3481,0.015,0.045
3482,0.055,0.055
3483,0.095,0.045
3484,0.145,0.045
3485,0.215,0.065
3486,0.295,0.055
3487,0.365,0.055
3488,0.435,0.065
3489,0.505,0.075
3490,0.565,0.065
3491,0.615,0.065
3492,0.655,0.065
3493,0.645,0.075
3494,0.545,0.065
3495,0.395,0.075
3496,0.235,0.085
3497,0.095,0.105
3498,-0.025,0.095
3499,-0.105,0.095
3500,-0.155,0.105
3501,-0.175,0.095
3502,-0.205,0.095
3503,-0.215,0.065
3504,-0.225,0.075
3505,-0.215,0.085
3506,-0.225,0.075
3507,-0.225,0.075
3508,-0.225,0.075
3509,-0.205,0.075
3510,-0.205,0.075
3511,-0.215,0.065
3512,-0.195,0.065
3513,-0.195,0.075
3514,-0.195,0.065
3515,-0.195,0.045
3516,-0.185,0.065
3517,-0.175,0.065
3518,-0.185,0.065
3519,-0.185,0.045
3520,-0.185,0.055
3521,-0.185,0.065
3522,-0.195,0.055
3523,-0.225,0.045
3524,-0.215,0.055
3525,-0.215,0.055
3526,-0.225,0.045
3527,-0.235,0.045
3528,-0.225,0.045
3529,-0.205,0.045
3530,-0.225,0.035
3531,-0.215,0.025
3532,-0.215,0.025
3533,-0.215,0.035
3534,-0.225,0.035
3535,-0.225,0.025
3536,-0.225,0.025
3537,-0.215,0.045
3538,-0.225,0.025
3539,-0.225,0.025
3540,-0.225,0.025
3541,-0.215,0.025
3542,-0.215,0.025
3543,-0.225,0.025
3544,-0.235,0.025
3545,-0.225,0.035
3546,-0.225,0.035
3547,-0.235,0.025
3548,-0.225,0.025
3549,-0.215,0.045
3550,-0.205,0.035
3551,-0.215,0.025
3552,-0.195,0.035
3553,-0.195,0.045
3554,-0.195,0.025
3555,-0.195,0.025
3556,-0.195,0.025
3557,-0.185,0.025
3558,-0.185,0.025
3559,-0.185,0.025
3560,-0.175,0.035
3561,-0.175,0.045
3562,-0.175,0.025
3563,-0.175,0.025
3564,-0.165,0.035
3565,-0.185,0.045
3566,-0.155,0.045
3567,-0.135,0.085
3568,-0.105,0.105
3569,-0.005,0.125
3570,-0.035,0.105
3571,-0.115,0.005
3572,-0.105,0.025
3573,-0.105,0.025
3574,-0.135,0.025
3575,-0.175,-0.005
3576,-0.185,-0.005
3577,-0.165,0.005
3578,-0.165,0.005
3579,-0.155,-0.005
3580,-0.145,0.015
3581,-0.135,0.025
3582,-0.095,0.025
3583,-0.275,0.055
3584,-0.655,0.265
3585,-0.565,0.405
3586,0.545,0.395
3587,2.395,-0.135
3588,3.165,-0.715
3589,2.885,-1.115
3590,0.745,-0.845
3591,0.015,-0.265
3592,-0.115,0.045
3593,-0.145,0.115
3594,-0.175,0.065
3595,-0.205,0.065
3596,-0.205,0.065
3597,-0.215,0.065
3598,-0.225,0.075
3599,-0.215,0.075
3600,-0.215,0.075
3601,-0.205,0.075
3602,-0.215,0.065
3603,-0.215,0.055
3604,-0.215,0.065
3605,-0.195,0.065
3606,-0.205,0.055
3607,-0.195,0.045
3608,-0.195,0.055
3609,-0.195,0.065
3610,-0.185,0.045
3611,-0.175,0.025
3612,-0.155,0.045
3613,-0.145,0.045
3614,-0.125,0.035
3615,-0.115,0.025
3616,-0.075,0.035
3617,-0.055,0.045
3618,-0.015,0.035
3619,0.005,0.025
3620,0.055,0.035
3621,0.125,0.045
3622,0.185,0.035
3623,0.265,0.025
3624,0.335,0.035
3625,0.405,0.025
3626,0.465,0.025
3627,0.515,0.025
3628,0.575,0.035
3629,0.605,0.045
3630,0.585,0.025
3631,0.495,0.005
3632,0.375,0.025
3633,0.225,0.035
3634,0.075,0.025
3635,-0.045,0.025
3636,-0.135,0.025
3637,-0.175,0.025
3638,-0.215,0.005
3639,-0.245,-0.005
3640,-0.245,-0.005
3641,-0.245,0.005
3642,-0.245,-0.015
3643,-0.245,-0.015
3644,-0.245,-0.025
3645,-0.225,-0.015
3646,-0.235,-0.025
3647,-0.235,-0.025
3648,-0.215,-0.015
3649,-0.215,-0.025
3650,-0.215,-0.035
3651,-0.225,-0.045
3652,-0.215,-0.035
3653,-0.215,-0.025
3654,-0.215,-0.045
3655,-0.215,-0.055
3656,-0.215,-0.045
3657,-0.205,-0.045
3658,-0.205,-0.045
3659,-0.215,-0.055
3660,-0.225,-0.065
3661,-0.225,-0.055
3662,-0.235,-0.065
3663,-0.235,-0.085
3664,-0.235,-0.075
3665,-0.235,-0.075
3666,-0.235,-0.085
3667,-0.245,-0.095
3668,-0.235,-0.095
3669,-0.235,-0.085
3670,-0.245,-0.105
3671,-0.245,-0.115
3672,-0.235,-0.105
3673,-0.245,-0.095
3674,-0.255,-0.115
3675,-0.255,-0.125
3676,-0.235,-0.115
3677,-0.235,-0.105
3678,-0.235,-0.115
3679,-0.245,-0.125
3680,-0.235,-0.115
3681,-0.235,-0.125
3682,-0.235,-0.125
3683,-0.245,-0.145
3684,-0.235,-0.135
3685,-0.235,-0.125
3686,-0.225,-0.135
3687,-0.225,-0.145
3688,-0.225,-0.135
3689,-0.215,-0.125
3690,-0.215,-0.145
3691,-0.225,-0.155
3692,-0.215,-0.135
3693,-0.215,-0.145
3694,-0.215,-0.135
3695,-0.215,-0.145
3696,-0.225,-0.145
3697,-0.205,-0.135
3698,-0.205,-0.155
3699,-0.215,-0.155
3700,-0.205,-0.145
3701,-0.195,-0.135
3702,-0.195,-0.155
3703,-0.215,-0.155
3704,-0.205,-0.145
3705,-0.205,-0.135
3706,-0.215,-0.135
3707,-0.175,-0.135
3708,-0.155,-0.095
3709,-0.105,-0.065
3710,-0.035,-0.075
3711,-0.125,-0.115
3712,-0.135,-0.195
3713,-0.125,-0.155
3714,-0.125,-0.165
3715,-0.185,-0.175
3716,-0.205,-0.185
3717,-0.185,-0.185
3718,-0.175,-0.195
3719,-0.185,-0.195
3720,-0.185,-0.185
3721,-0.165,-0.165
3722,-0.145,-0.175
3723,-0.115,-0.165
3724,-0.385,-0.115
3725,-0.695,0.105
3726,-0.355,0.245
3727,1.135,0.145
3728,2.675,-0.385
3729,3.305,-0.905
3730,2.095,-1.245
3731,0.325,-0.905
3732,-0.105,-0.365
3733,-0.165,-0.125
3734,-0.205,-0.105
3735,-0.235,-0.145
3736,-0.255,-0.155
3737,-0.255,-0.145
3738,-0.245,-0.165
3739,-0.255,-0.185
3740,-0.275,-0.205
3741,-0.265,-0.275
3742,-0.265,-1.135
3743,-0.275,-1.535
3744,-0.265,-1.465
3745,-0.265,-1.415
3746,-0.265,-1.395
3747,-0.275,-1.405
3748,-0.265,-1.405
3749,-0.245,-1.405
3750,-0.235,-1.405
3751,-0.225,-1.415
3752,-0.205,-1.405
3753,-0.215,-1.395
3754,-0.205,-1.395
3755,-0.185,-1.395
3756,-0.165,-1.375
3757,-0.135,-1.375
3758,-0.095,-1.365
3759,-0.065,-1.365
3760,-0.015,-1.345
3761,0.035,-1.325
3762,0.105,-1.315
3763,0.185,-1.305
3764,0.225,-1.305
3765,0.295,-1.285
3766,0.355,-1.285
3767,0.425,-1.265
3768,0.485,-1.245
3769,0.515,-1.225
3770,0.515,-1.215
3771,0.455,-1.225
3772,0.335,-1.185
3773,0.195,-1.165
3774,0.045,-1.145
3775,-0.095,-1.145
3776,-0.185,-1.125
3777,-0.235,-1.105
3778,-0.275,-1.105
3779,-0.315,-1.095
3780,-0.325,-1.095
3781,-0.315,-1.085
3782,-0.325,-1.075
3783,-0.335,-1.075
3784,-0.315,-1.065
3785,-0.305,-1.035
3786,-0.305,-1.035
3787,-0.305,-1.025
3788,-0.305,-1.015
3789,-0.285,-0.985
3790,-0.295,-0.995
3791,-0.305,-0.985
3792,-0.285,-0.975
3793,-0.265,-0.945
3794,-0.285,-0.945
3795,-0.295,-0.955
3796,-0.305,-0.925
3797,-0.295,-0.895
3798,-0.295,-0.895
3799,-0.305,-0.905
3800,-0.315,-0.885
3801,-0.305,-0.865
3802,-0.305,-0.855
3803,-0.335,-0.865
3804,-0.315,-0.845
3805,-0.305,-0.835
3806,-0.295,-0.835
3807,-0.335,-0.825
3808,-0.325,-0.815
3809,-0.325,-0.805
3810,-0.335,-0.795
3811,-0.325,-0.785
3812,-0.305,-0.775
3813,-0.305,-0.765
3814,-0.315,-0.755
3815,-0.325,-0.765
3816,-0.305,-0.745
3817,-0.315,-0.725
3818,-0.305,-0.735
3819,-0.305,-0.725
3820,-0.305,-0.705
3821,-0.305,-0.685
3822,-0.305,-0.685
3823,-0.305,-0.685
3824,-0.285,-0.665
3825,-0.295,-0.645
3826,-0.305,-0.645
3827,-0.275,-0.635
3828,-0.255,-0.585
3829,-0.205,-0.545
3830,-0.125,-0.535
3831,-0.155,-0.545
3832,-0.215,-0.625
3833,-0.215,-0.605
3834,-0.225,-0.595
3835,-0.265,-0.585
3836,-0.285,-0.595
3837,-0.285,-0.595
3838,-0.265,-0.605
3839,-0.265,-0.585
3840,-0.245,-0.565
3841,-0.245,-0.555
3842,-0.235,-0.545
3843,-0.215,-0.535
3844,-0.245,-0.515
3845,-0.625,-0.375
3846,-0.705,-0.215
3847,0.125,-0.075
3848,2.045,-0.255
3849,3.025,-0.855
3850,2.995,-1.345
3851,0.775,-1.375
3852,-0.115,-0.955
3853,-0.205,-0.515
3854,-0.215,-0.395
3855,-0.255,-0.385
3856,-0.275,-0.405
3857,-0.285,-0.395
3858,-0.285,-0.385
3859,-0.295,-0.385
3860,-0.295,-0.375
3861,-0.275,-0.355
3862,-0.295,-0.365
3863,-0.285,-0.365
3864,-0.275,-0.345
3865,-0.275,-0.345
3866,-0.255,-0.345
3867,-0.255,-0.345
3868,-0.245,-0.335
3869,-0.225,-0.325
3870,-0.225,-0.335
3871,-0.225,-0.335
3872,-0.205,-0.335
3873,-0.205,-0.315
3874,-0.175,-0.325
3875,-0.155,-0.315
3876,-0.125,-0.305
3877,-0.115,-0.295
3878,-0.085,-0.305
3879,-0.065,-0.315
3880,-0.015,-0.305
3881,0.045,-0.285
3882,0.115,-0.285
3883,0.175,-0.285
3884,0.245,-0.275
3885,0.325,-0.265
3886,0.385,-0.265
3887,0.445,-0.275
3888,0.495,-0.255
3889,0.545,-0.235
3890,0.545,-0.245
3891,0.485,-0.235
3892,0.375,-0.215
3893,0.245,-0.195
3894,0.075,-0.175
3895,-0.045,-0.165
3896,-0.155,-0.155
3897,-0.215,-0.145
3898,-0.255,-0.155
3899,-0.275,-0.155
3900,-0.285,-0.145
3901,-0.275,-0.135
3902,-0.285,-0.135
3903,-0.285,-0.135
3904,-0.275,-0.125
3905,-0.265,-0.125
3906,-0.265,-0.125
3907,-0.265,-0.125
3908,-0.255,-0.115
3909,-0.245,-0.105
3910,-0.245,-0.115
3911,-0.245,-0.115
3912,-0.235,-0.095
3913,-0.225,-0.085
3914,-0.225,-0.095
3915,-0.235,-0.095
3916,-0.235,-0.085
3917,-0.235,-0.075
3918,-0.255,-0.075
3919,-0.255,-0.075
3920,-0.265,-0.075
3921,-0.245,-0.065
3922,-0.265,-0.075
3923,-0.265,-0.075
3924,-0.265,-0.065
3925,-0.265,-0.055
3926,-0.265,-0.065
3927,-0.265,-0.065
3928,-0.255,-0.065
3929,-0.255,-0.055
3930,-0.255,-0.055
3931,-0.265,-0.055
3932,-0.265,-0.045
3933,-0.265,-0.035
3934,-0.275,-0.035
3935,-0.265,-0.045
3936,-0.265,-0.035
3937,-0.265,-0.025
3938,-0.255,-0.035
3939,-0.255,-0.035
3940,-0.255,-0.025
3941,-0.255,-0.005
3942,-0.245,-0.015
3943,-0.245,-0.025
3944,-0.245,-0.015
3945,-0.245,0.005
3946,-0.235,0.005
3947,-0.265,0.005
3948,-0.235,0.005
3949,-0.195,0.055
3950,-0.175,0.085
3951,-0.095,0.085
3952,-0.075,0.085
3953,-0.155,0.045
3954,-0.165,-0.005
3955,-0.185,0.015
3956,-0.185,0.025
3957,-0.225,0.035
3958,-0.245,0.005
3959,-0.225,-0.005
3960,-0.225,0.005
3961,-0.215,0.025
3962,-0.215,0.015
3963,-0.205,0.025
3964,-0.175,0.035
3965,-0.155,0.055
3966,-0.535,0.115
3967,-0.745,0.325
3968,-0.115,0.495
3969,1.715,0.275
3970,2.925,-0.365
3971,3.255,-0.865
3972,1.455,-1.005
3973,0.115,-0.595
3974,-0.175,-0.075
3975,-0.205,0.125
3976,-0.215,0.135
3977,-0.235,0.115
3978,-0.255,0.115
3979,-0.265,0.105
3980,-0.255,0.115
3981,-0.265,0.125
3982,-0.255,0.125
3983,-0.255,0.125
3984,-0.255,0.135
3985,-0.245,0.145
3986,-0.245,0.125
3987,-0.255,0.125
3988,-0.255,0.135
3989,-0.235,0.145
3990,-0.235,0.135
3991,-0.225,0.125
3992,-0.215,0.125
3993,-0.205,0.145
3994,-0.195,0.135
3995,-0.185,0.125
3996,-0.175,0.135
3997,-0.155,0.135
3998,-0.135,0.145
3999,-0.105,0.135
4000,-0.075,0.145
4001,-0.045,0.145
4002,0.005,0.145
4003,0.055,0.135
4004,0.125,0.155
4005,0.205,0.155
4006,0.275,0.165
4007,0.345,0.155
4008,0.415,0.165
4009,0.475,0.175
4010,0.535,0.175
4011,0.555,0.165
4012,0.535,0.165
4013,0.455,0.175
4014,0.325,0.175
4015,0.175,0.185
4016,0.035,0.195
4017,-0.075,0.195
4018,-0.145,0.205
4019,-0.205,0.185
4020,-0.225,0.185
4021,-0.235,0.185
4022,-0.255,0.175
4023,-0.245,0.175
4024,-0.255,0.165
4025,-0.245,0.185
4026,-0.255,0.175
4027,-0.255,0.165
4028,-0.235,0.175
4029,-0.215,0.185
4030,-0.225,0.175
4031,-0.225,0.165
4032,-0.215,0.175
4033,-0.215,0.185
4034,-0.215,0.165
4035,-0.215,0.165
4036,-0.205,0.165
4037,-0.205,0.185
4038,-0.205,0.175
4039,-0.215,0.165
4040,-0.215,0.165
4041,-0.215,0.175
4042,-0.235,0.165
4043,-0.235,0.165
4044,-0.235,0.165
4045,-0.225,0.175
4046,-0.235,0.155
4047,-0.245,0.145
4048,-0.245,0.145
4049,-0.235,0.165
4050,-0.245,0.155
4051,-0.245,0.145
4052,-0.235,0.145
4053,-0.235,0.155
4054,-0.235,0.155
4055,-0.245,0.145
4056,-0.245,0.145
4057,-0.235,0.155
4058,-0.235,0.135
4059,-0.245,0.145
4060,-0.235,0.125
4061,-0.215,0.155
4062,-0.235,0.145
4063,-0.225,0.135
4064,-0.225,0.125
4065,-0.215,0.145
4066,-0.215,0.135
4067,-0.225,0.135
4068,-0.225,0.135
4069,-0.215,0.155
4070,-0.205,0.135
4071,-0.215,0.125
4072,-0.195,0.145
4073,-0.195,0.145
4074,-0.205,0.135
4075,-0.195,0.125
4076,-0.185,0.135
4077,-0.185,0.145
4078,-0.185,0.135
4079,-0.185,0.135
4080,-0.185,0.145
4081,-0.195,0.155
4082,-0.175,0.145
4083,-0.145,0.185
4084,-0.115,0.215
4085,-0.025,0.225
4086,-0.035,0.215
4087,-0.115,0.135
4088,-0.135,0.105
4089,-0.105,0.135
4090,-0.135,0.135
4091,-0.185,0.115
4092,-0.195,0.095
4093,-0.175,0.105
4094,-0.165,0.105
4095,-0.175,0.105
4096,-0.165,0.105
4097,-0.145,0.125
4098,-0.115,0.125
4099,-0.145,0.115
4100,-0.545,0.245
4101,-0.635,0.445
4102,0.255,0.545
4103,2.135,0.165
4104,3.065,-0.475
4105,3.085,-0.925
4106,1.175,-0.865
4107,0.105,-0.395
4108,-0.095,0.045
4109,-0.135,0.205
4110,-0.155,0.195
4111,-0.195,0.165
4112,-0.215,0.165
4113,-0.225,0.185
4114,-0.225,0.185
4115,-0.225,0.175
4116,-0.225,0.175
4117,-0.215,0.185
4118,-0.225,0.175
4119,-0.215,0.165
4120,-0.215,0.175
4121,-0.205,0.175
4122,-0.205,0.165
4123,-0.195,0.155
4124,-0.195,0.165
4125,-0.185,0.165
4126,-0.185,0.155
4127,-0.175,0.155
4128,-0.165,0.155
4129,-0.145,0.155
4130,-0.125,0.155
4131,-0.095,0.155
4132,-0.065,0.155
4133,-0.045,0.155
4134,-0.015,0.155
4135,0.015,0.145
4136,0.075,0.155
4137,0.135,0.165
4138,0.205,0.165
4139,0.265,0.165
4140,0.335,0.165
4141,0.395,0.165
4142,0.445,0.175
4143,0.505,0.165
4144,0.565,0.175
4145,0.585,0.175
4146,0.565,0.165
4147,0.475,0.155
4148,0.355,0.175
4149,0.215,0.175
4150,0.065,0.175
4151,-0.055,0.175
4152,-0.125,0.175
4153,-0.165,0.175
4154,-0.205,0.155
4155,-0.215,0.155
4156,-0.225,0.155
4157,-0.215,0.155
4158,-0.215,0.145
4159,-0.215,0.135
4160,-0.205,0.135
4161,-0.205,0.145
4162,-0.205,0.135
4163,-0.205,0.125
4164,-0.195,0.135
4165,-0.185,0.135
4166,-0.185,0.135
4167,-0.195,0.125
4168,-0.185,0.135
4169,-0.175,0.135
4170,-0.185,0.135
4171,-0.195,0.125
4172,-0.185,0.125
4173,-0.185,0.135
4174,-0.195,0.125
4175,-0.205,0.115
4176,-0.205,0.115
4177,-0.195,0.125
4178,-0.205,0.115
4179,-0.215,0.095
4180,-0.215,0.095
4181,-0.215,0.115
4182,-0.215,0.095
4183,-0.215,0.085
4184,-0.215,0.085
4185,-0.205,0.105
4186,-0.215,0.085
4187,-0.215,0.075
4188,-0.225,0.085
4189,-0.195,0.095
4190,-0.215,0.075
4191,-0.225,0.075
4192,-0.215,0.075
4193,-0.205,0.075
4194,-0.205,0.065
4195,-0.215,0.065
4196,-0.215,0.065
4197,-0.205,0.075
4198,-0.215,0.065
4199,-0.235,0.055
4200,-0.235,0.075
4201,-0.225,0.075
4202,-0.235,0.065
4203,-0.245,0.055
4204,-0.235,0.065
4205,-0.235,0.075
4206,-0.235,0.065
4207,-0.245,0.065
4208,-0.225,0.065
4209,-0.215,0.075
4210,-0.225,0.075
4211,-0.225,0.055
4212,-0.235,0.055
4213,-0.225,0.075
4214,-0.225,0.065
4215,-0.225,0.055
4216,-0.215,0.055
4217,-0.215,0.065
4218,-0.215,0.055
4219,-0.215,0.045
4220,-0.205,0.065
4221,-0.205,0.075
4222,-0.205,0.055
4223,-0.195,0.055
4224,-0.195,0.055
4225,-0.185,0.075
4226,-0.195,0.065
4227,-0.205,0.055
4228,-0.185,0.065
4229,-0.175,0.065
4230,-0.175,0.065
4231,-0.175,0.065
4232,-0.175,0.065
4233,-0.175,0.075
4234,-0.175,0.065
4235,-0.165,0.045
4236,-0.165,0.065
4237,-0.155,0.075
4238,-0.165,0.075
4239,-0.175,0.085
4240,-0.165,0.075
4241,-0.125,0.105
4242,-0.115,0.135
4243,-0.045,0.145
4244,0.005,0.165
4245,-0.075,0.105
4246,-0.105,0.045
4247,-0.085,0.065
4248,-0.115,0.075
4249,-0.155,0.065
4250,-0.145,0.035
4251,-0.135,0.025
4252,-0.135,0.035
4253,-0.115,0.045
4254,-0.125,0.045
4255,-0.125,0.035
4256,-0.065,0.065
4257,-0.235,0.095
4258,-0.615,0.265
4259,-0.445,0.415
4260,0.745,0.485
4261,2.465,0.095
4262,3.205,-0.485
4263,2.845,-0.945
4264,0.785,-0.835
4265,0.025,-0.335
4266,-0.095,0.035
4267,-0.125,0.125
4268,-0.155,0.105
4269,-0.175,0.105
4270,-0.195,0.105
4271,-0.185,0.095
4272,-0.205,0.105
4273,-0.205,0.105
4274,-0.195,0.115
4275,-0.195,0.105
4276,-0.205,0.115
4277,-0.205,0.125
4278,-0.195,0.105
4279,-0.185,0.105
4280,-0.195,0.105
4281,-0.175,0.115
4282,-0.185,0.105
4283,-0.155,0.095
4284,-0.155,0.105
4285,-0.155,0.105
4286,-0.155,0.095
4287,-0.125,0.095
4288,-0.105,0.095
4289,-0.105,0.095
4290,-0.075,0.095
4291,-0.055,0.085
4292,-0.015,0.095
4293,0.025,0.095
4294,0.065,0.105
4295,0.105,0.095
4296,0.155,0.095
4297,0.245,0.105
4298,0.315,0.105
4299,0.365,0.095
4300,0.445,0.105
4301,0.495,0.105
4302,0.535,0.115
4303,0.575,0.095
4304,0.595,0.105
4305,0.545,0.115
4306,0.435,0.115
4307,0.285,0.115
4308,0.135,0.115
4309,0.025,0.125
4310,-0.085,0.135
4311,-0.145,0.115
4312,-0.185,0.115
4313,-0.215,0.125
4314,-0.225,0.115
4315,-0.215,0.105
4316,-0.215,0.105
4317,-0.225,0.105
4318,-0.225,0.105
4319,-0.215,0.105
4320,-0.215,0.085
4321,-0.205,0.095
4322,-0.195,0.095
4323,-0.195,0.095
4324,-0.185,0.085
4325,-0.185,0.095
4326,-0.185,0.095
4327,-0.185,0.085
4328,-0.195,0.065
4329,-0.205,0.095
4330,-0.205,0.085
4331,-0.195,0.085
4332,-0.205,0.075
4333,-0.205,0.095
4334,-0.215,0.085
4335,-0.225,0.075
4336,-0.235,0.065
4337,-0.205,0.075
4338,-0.205,0.065
4339,-0.215,0.065
4340,-0.215,0.065
4341,-0.205,0.065
4342,-0.205,0.055
4343,-0.215,0.055
4344,-0.205,0.055
4345,-0.195,0.055
4346,-0.205,0.045
4347,-0.215,0.035
4348,-0.205,0.055
4349,-0.195,0.065
4350,-0.205,0.045
4351,-0.205,0.045
4352,-0.195,0.055
4353,-0.185,0.055
4354,-0.195,0.045
4355,-0.195,0.035
4356,-0.195,0.045
4357,-0.165,0.055
4358,-0.165,0.045
4359,-0.155,0.035
4360,-0.155,0.035
4361,-0.165,0.045
4362,-0.155,0.025
4363,-0.175,0.045
4364,-0.155,0.055
4365,-0.135,0.065
4366,-0.085,0.105
4367,-0.005,0.125
4368,0.025,0.115
4369,-0.055,0.075
4370,-0.085,0.005
4371,-0.065,0.025
4372,-0.085,0.035
4373,-0.115,0.025
4374,-0.135,-0.005
4375,-0.145,-0.015
4376,-0.125,-0.005
4377,-0.115,0.015
4378,-0.115,-0.005
4379,-0.105,-0.005
4380,-0.085,0.015
4381,-0.035,0.035
4382,-0.315,0.065
4383,-0.605,0.265
4384,-0.195,0.405
4385,1.115,0.435
4386,2.685,-0.055
4387,3.325,-0.605
4388,2.655,-1.025
4389,0.575,-0.815
4390,0.005,-0.345
4391,-0.065,-0.005
4392,-0.085,0.085
4393,-0.115,0.065
4394,-0.125,0.045
4395,-0.135,0.045
4396,-0.135,0.055
4397,-0.145,0.065
4398,-0.135,0.045
4399,-0.125,0.045
4400,-0.125,0.055
4401,-0.125,0.055
4402,-0.125,0.055
4403,-0.115,0.055
4404,-0.115,0.045
4405,-0.105,0.045
4406,-0.115,0.045
4407,-0.095,0.035
4408,-0.085,0.045
4409,-0.075,0.045
4410,-0.055,0.035
4411,-0.055,0.025
4412,-0.045,0.035
4413,-0.025,0.045
4414,-0.015,0.035
4415,0.015,0.025
4416,0.045,0.025
4417,0.075,0.045
4418,0.125,0.035
4419,0.165,0.025
4420,0.235,0.025
4421,0.305,0.045
4422,0.385,0.025
4423,0.445,0.025
4424,0.505,0.025
4425,0.575,0.025
4426,0.635,0.035
4427,0.665,0.045
4428,0.685,0.045
4429,0.605,0.055
4430,0.475,0.055
4431,0.305,0.055
4432,0.155,0.075
4433,0.045,0.085
4434,-0.045,0.085
4435,-0.095,0.075
4436,-0.135,0.065
4437,-0.145,0.065
4438,-0.165,0.065
4439,-0.165,0.045
4440,-0.165,0.055
4441,-0.155,0.065
4442,-0.155,0.055
4443,-0.145,0.055
4444,-0.145,0.055
4445,-0.135,0.045
4446,-0.145,0.045
4447,-0.135,0.025
4448,-0.135,0.045
4449,-0.115,0.055
4450,-0.115,0.045
4451,-0.115,0.045
4452,-0.125,0.045
4453,-0.125,0.045
4454,-0.125,0.045
4455,-0.135,0.025
4456,-0.115,0.045
4457,-0.125,0.045
4458,-0.125,0.035
4459,-0.135,0.025
4460,-0.135,0.035
4461,-0.135,0.025
4462,-0.145,0.025
4463,-0.145,0.005
4464,-0.145,0.015
4465,-0.145,0.025
4466,-0.135,0.005
4467,-0.145,0.005
4468,-0.135,0.005
4469,-0.135,0.015
4470,-0.145,0.015
4471,-0.145,-0.005
4472,-0.145,0.005
4473,-0.135,0.005
4474,-0.145,-0.005
4475,-0.145,-0.005
4476,-0.145,-0.005
4477,-0.125,0.005
4478,-0.125,-0.005
4479,-0.145,-0.005
4480,-0.135,-0.005
4481,-0.135,0.005
4482,-0.125,-0.005
4483,-0.145,-0.005
4484,-0.135,0.005
4485,-0.095,0.035
4486,-0.055,0.065
4487,0.005,0.075
4488,0.055,0.085
4489,-0.045,0.025
4490,-0.065,-0.045
4491,-0.075,-0.025
4492,-0.065,-0.015
4493,-0.105,-0.015
4494,-0.135,-0.035
4495,-0.125,-0.055
4496,-0.115,-0.055
4497,-0.095,-0.045
4498,-0.105,-0.045
4499,-0.095,-0.045
4500,-0.075,-0.035
4501,-0.035,-0.025
4502,-0.235,-0.005
4503,-0.605,0.185
4504,-0.435,0.345
4505,0.895,0.365
4506,2.595,-0.145
4507,3.255,-0.725
4508,2.925,-1.115
4509,0.885,-0.925
4510,0.105,-0.435
4511,-0.045,-0.055
4512,-0.065,0.045
4513,-0.095,0.035
4514,-0.125,0.015
4515,-0.145,0.015
4516,-0.135,0.005
4517,-0.145,0.035
4518,-0.135,0.025
4519,-0.155,0.005
4520,-0.145,0.025
4521,-0.135,0.025
4522,-0.145,0.025
4523,-0.135,0.005
4524,-0.135,0.015
4525,-0.125,0.025
4526,-0.125,0.005
4527,-0.115,0.005
4528,-0.115,0.015
4529,-0.095,0.015
4530,-0.085,0.005
4531,-0.075,-0.005
4532,-0.065,-0.005
4533,-0.035,0.015
4534,-0.025,0.005
4535,-0.015,-0.005
4536,0.025,-0.005
4537,0.055,0.015
4538,0.085,-0.005
4539,0.135,-0.005
4540,0.195,0.005
4541,0.265,0.015
4542,0.335,0.015
4543,0.395,0.005
4544,0.475,0.005
4545,0.525,0.025
4546,0.585,0.015
4547,0.615,0.005
4548,0.645,0.015
4549,0.605,0.025
4550,0.505,0.025
4551,0.355,0.025
4552,0.215,0.035
4553,0.065,0.045
4554,-0.045,0.045
4555,-0.115,0.025
4556,-0.145,0.025
4557,-0.155,0.035
4558,-0.165,0.025
4559,-0.175,0.005
4560,-0.165,0.015
4561,-0.155,0.015
4562,-0.165,0.005
4563,-0.175,-0.005
4564,-0.165,-0.005
4565,-0.145,0.005
4566,-0.155,-0.005
4567,-0.155,-0.005
4568,-0.145,0.005
4569,-0.135,0.005
4570,-0.135,-0.005
4571,-0.145,-0.015
4572,-0.145,-0.005
4573,-0.135,0.005
4574,-0.135,-0.015
4575,-0.145,-0.015
4576,-0.145,-0.005
4577,-0.145,-0.005
4578,-0.145,-0.015
4579,-0.155,-0.025
4580,-0.165,-0.015
4581,-0.175,-0.015
4582,-0.175,-0.025
4583,-0.175,-0.035
4584,-0.175,-0.025
4585,-0.185,-0.025
4586,-0.175,-0.035
4587,-0.175,-0.055
4588,-0.185,-0.045
4589,-0.185,-0.035
4590,-0.185,-0.045
4591,-0.175,-0.055
4592,-0.175,-0.055
4593,-0.175,-0.045
4594,-0.185,-0.045
4595,-0.185,-0.055
4596,-0.175,-0.055
4597,-0.165,-0.045
4598,-0.175,-0.055
4599,-0.175,-0.065
4600,-0.175,-0.055
4601,-0.165,-0.055
4602,-0.165,-0.065
4603,-0.165,-0.065
4604,-0.175,-0.055
4605,-0.155,-0.045
4606,-0.155,-0.055
4607,-0.165,-0.055
4608,-0.155,-0.045
4609,-0.115,-0.005
4610,-0.095,0.025
4611,-0.035,0.005
4612,0.005,0.015
4613,-0.085,-0.035
4614,-0.105,-0.095
4615,-0.105,-0.065
4616,-0.105,-0.065
4617,-0.145,-0.065
4618,-0.175,-0.085
4619,-0.165,-0.115
4620,-0.155,-0.095
4621,-0.135,-0.085
4622,-0.135,-0.085
4623,-0.135,-0.095
4624,-0.115,-0.085
4625,-0.065,-0.055
4626,-0.265,-0.045
4627,-0.645,0.155
4628,-0.475,0.315
4629,0.755,0.275
4630,2.535,-0.245
4631,3.255,-0.835
4632,2.725,-1.225
4633,0.705,-0.915
4634,0.035,-0.385
4635,-0.095,-0.065
4636,-0.135,0.005
4637,-0.165,-0.005
4638,-0.195,-0.025
4639,-0.215,-0.035
4640,-0.195,-0.025
4641,-0.195,-0.015
4642,-0.195,-0.025
4643,-0.205,-0.035
4644,-0.195,-0.025
4645,-0.195,-0.015
4646,-0.195,-0.025
4647,-0.195,-0.035
4648,-0.195,-0.035
4649,-0.185,-0.025
4650,-0.175,-0.035
4651,-0.185,-0.045
4652,-0.165,-0.045
4653,-0.155,-0.035
4654,-0.145,-0.045
4655,-0.135,-0.055
4656,-0.125,-0.045
4657,-0.105,-0.035
4658,-0.085,-0.045
4659,-0.065,-0.055
4660,-0.025,-0.055
4661,0.015,-0.035
4662,0.055,-0.035
4663,0.115,-0.035
4664,0.175,-0.025
4665,0.245,-0.015
4666,0.315,-0.035
4667,0.375,-0.035
4668,0.425,-0.025
4669,0.495,-0.015
4670,0.545,-0.025
4671,0.585,-0.035
4672,0.565,-0.025
4673,0.475,-0.015
4674,0.325,-0.025
4675,0.175,-0.015
4676,0.035,-0.005
4677,-0.075,-0.005
4678,-0.155,-0.015
4679,-0.195,-0.025
4680,-0.215,-0.025
4681,-0.235,-0.025
4682,-0.245,-0.035
4683,-0.245,-0.045
4684,-0.235,-0.045
4685,-0.235,-0.045
4686,-0.235,-0.055
4687,-0.225,-0.055
4688,-0.225,-0.045
4689,-0.235,-0.035
4690,-0.235,-0.045
4691,-0.225,-0.045
4692,-0.225,-0.045
4693,-0.205,-0.035
4694,-0.215,-0.045
4695,-0.205,-0.045
4696,-0.225,-0.045
4697,-0.215,-0.035
4698,-0.235,-0.045
4699,-0.235,-0.055
4700,-0.235,-0.055
4701,-0.235,-0.045
4702,-0.245,-0.055
4703,-0.265,-0.065
4704,-0.255,-0.065
4705,-0.255,-0.065
4706,-0.255,-0.075
4707,-0.265,-0.075
4708,-0.265,-0.075
4709,-0.265,-0.065
4710,-0.265,-0.075
4711,-0.275,-0.085
4712,-0.275,-0.085
4713,-0.265,-0.065
4714,-0.265,-0.085
4715,-0.275,-0.095
4716,-0.275,-0.085
4717,-0.265,-0.085
4718,-0.265,-0.095
4719,-0.275,-0.105
4720,-0.265,-0.095
4721,-0.255,-0.075
4722,-0.265,-0.095
4723,-0.255,-0.105
4724,-0.265,-0.095
4725,-0.255,-0.085
4726,-0.255,-0.095
4727,-0.265,-0.095
4728,-0.255,-0.085
4729,-0.245,-0.085
4730,-0.245,-0.095
4731,-0.245,-0.095
4732,-0.245,-0.085
4733,-0.235,-0.065
4734,-0.215,-0.045
4735,-0.205,-0.025
4736,-0.115,-0.005
4737,-0.075,-0.005
4738,-0.165,-0.085
4739,-0.175,-0.125
4740,-0.175,-0.095
4741,-0.185,-0.085
4742,-0.245,-0.105
4743,-0.265,-0.125
4744,-0.245,-0.125
4745,-0.225,-0.115
4746,-0.215,-0.115
4747,-0.225,-0.125
4748,-0.225,-0.095
4749,-0.195,-0.095
4750,-0.165,-0.095
4751,-0.385,-0.055
4752,-0.725,0.135
4753,-0.505,0.295
4754,0.715,0.325
4755,2.445,-0.115
4756,3.205,-0.665
4757,2.625,-1.105
4758,0.455,-0.925
4759,-0.145,-0.405
4760,-0.215,-0.085
4761,-0.225,-0.015
4762,-0.255,-0.055
4763,-0.285,-0.075
4764,-0.295,-0.065
4765,-0.295,-0.045
4766,-0.305,-0.055
4767,-0.295,-0.065
4768,-0.275,-0.065
4769,-0.275,-0.065
4770,-0.275,-0.055
4771,-0.295,-0.075
4772,-0.285,-0.065
4773,-0.255,-0.065
4774,-0.255,-0.065
4775,-0.255,-0.075
4776,-0.255,-0.075
4777,-0.245,-0.075
4778,-0.235,-0.085
4779,-0.225,-0.085
4780,-0.215,-0.085
4781,-0.185,-0.075
4782,-0.185,-0.085
4783,-0.175,-0.085
4784,-0.135,-0.095
4785,-0.105,-0.085
4786,-0.065,-0.085
4787,-0.035,-0.085
4788,0.045,-0.085
4789,0.115,-0.075
4790,0.165,-0.095
4791,0.245,-0.095
4792,0.305,-0.085
4793,0.365,-0.085
4794,0.445,-0.095
4795,0.495,-0.095
4796,0.505,-0.085
4797,0.475,-0.075
4798,0.345,-0.065
4799,0.215,-0.045
4800,0.055,-0.025
4801,-0.065,-0.025
4802,-0.165,-0.015
4803,-0.235,-0.035
4804,-0.285,-0.025
4805,-0.305,-0.025
4806,-0.295,-0.035
4807,-0.315,-0.035
4808,-0.315,-0.045
4809,-0.305,-0.035
4810,-0.305,-0.045
4811,-0.305,-0.055
4812,-0.305,-0.045
4813,-0.275,-0.035
4814,-0.285,-0.055
4815,-0.285,-0.065
4816,-0.275,-0.045
4817,-0.275,-0.045
4818,-0.275,-0.055
4819,-0.275,-0.065
4820,-0.285,-0.055
4821,-0.275,-0.045
4822,-0.285,-0.055
4823,-0.285,-0.055
4824,-0.275,-0.055
4825,-0.275,-0.055
4826,-0.285,-0.065
4827,-0.295,-0.065
4828,-0.295,-0.065
4829,-0.295,-0.055
4830,-0.285,-0.065
4831,-0.305,-0.075
4832,-0.295,-0.075
4833,-0.295,-0.065
4834,-0.295,-0.085
4835,-0.295,-0.095
4836,-0.295,-0.085
4837,-0.285,-0.085
4838,-0.295,-0.085
4839,-0.295,-0.095
4840,-0.295,-0.085
4841,-0.285,-0.085
4842,-0.295,-0.085
4843,-0.285,-0.105
4844,-0.275,-0.095
4845,-0.265,-0.085
4846,-0.275,-0.095
4847,-0.275,-0.095
4848,-0.265,-0.085
4849,-0.255,-0.085
4850,-0.275,-0.085
4851,-0.275,-0.085
4852,-0.225,-0.055
4853,-0.205,-0.015
4854,-0.145,-0.005
4855,-0.105,-0.015
4856,-0.175,-0.065
4857,-0.195,-0.115
4858,-0.175,-0.105
4859,-0.205,-0.105
4860,-0.235,-0.105
4861,-0.265,-0.115
4862,-0.265,-0.135
4863,-0.245,-0.135
4864,-0.225,-0.125
4865,-0.205,-0.115
4866,-0.205,-0.115
4867,-0.205,-0.115
4868,-0.165,-0.105
4869,-0.325,-0.065
4870,-0.725,0.125
4871,-0.525,0.275
4872,0.745,0.315
4873,2.525,-0.155
4874,3.265,-0.745
4875,2.685,-1.175
4876,0.505,-0.945
4877,-0.115,-0.425
4878,-0.195,-0.085
4879,-0.215,-0.035
4880,-0.255,-0.055
4881,-0.265,-0.055
4882,-0.265,-0.065
4883,-0.265,-0.075
4884,-0.275,-0.065
4885,-0.265,-0.055
4886,-0.255,-0.055
4887,-0.255,-0.065
4888,-0.265,-0.055
4889,-0.245,-0.055
4890,-0.245,-0.065
4891,-0.245,-0.065
4892,-0.245,-0.065
4893,-0.235,-0.055
4894,-0.245,-0.075
4895,-0.225,-0.075
4896,-0.225,-0.065
4897,-0.205,-0.065
4898,-0.195,-0.075
4899,-0.175,-0.085
4900,-0.145,-0.075
4901,-0.125,-0.075
4902,-0.105,-0.085
4903,-0.075,-0.085
4904,-0.035,-0.095
4905,0.015,-0.075
4906,0.075,-0.085
4907,0.135,-0.085
4908,0.215,-0.085
4909,0.275,-0.075
4910,0.355,-0.085
4911,0.405,-0.085
4912,0.465,-0.075
4913,0.525,-0.075
4914,0.555,-0.075
4915,0.525,-0.085
4916,0.435,-0.065
4917,0.315,-0.045
4918,0.165,-0.025
4919,0.035,-0.035
4920,-0.085,-0.025
4921,-0.155,-0.005
4922,-0.205,-0.015
4923,-0.235,-0.025
4924,-0.245,-0.035
4925,-0.235,-0.025
4926,-0.235,-0.035
4927,-0.245,-0.055
4928,-0.245,-0.045
4929,-0.245,-0.035
4930,-0.245,-0.045
4931,-0.245,-0.045
4932,-0.235,-0.045
4933,-0.215,-0.045
4934,-0.215,-0.055
4935,-0.225,-0.055
4936,-0.215,-0.045
4937,-0.195,-0.035
4938,-0.205,-0.055
4939,-0.205,-0.055
4940,-0.195,-0.055
4941,-0.195,-0.045
4942,-0.195,-0.055
4943,-0.215,-0.055
4944,-0.205,-0.065
4945,-0.205,-0.055
4946,-0.225,-0.065
4947,-0.245,-0.065
4948,-0.235,-0.065
4949,-0.225,-0.055
4950,-0.235,-0.065
4951,-0.245,-0.075
4952,-0.245,-0.085
4953,-0.235,-0.075
4954,-0.245,-0.075
4955,-0.255,-0.095
4956,-0.245,-0.095
4957,-0.235,-0.085
4958,-0.245,-0.105
4959,-0.255,-0.125
4960,-0.245,-0.125
4961,-0.225,-0.105
4962,-0.225,-0.125
4963,-0.235,-0.135
4964,-0.225,-0.125
4965,-0.235,-0.115
4966,-0.225,-0.125
4967,-0.225,-0.125
4968,-0.225,-0.115
4969,-0.215,-0.105
4970,-0.215,-0.105
4971,-0.225,-0.115
4972,-0.205,-0.105
4973,-0.195,-0.095
4974,-0.195,-0.105
4975,-0.205,-0.105
4976,-0.195,-0.105
4977,-0.195,-0.085
4978,-0.165,-0.085
4979,-0.155,-0.045
4980,-0.115,-0.025
4981,-0.025,-0.005
4982,-0.075,-0.035
4983,-0.145,-0.135
4984,-0.135,-0.125
4985,-0.115,-0.105
4986,-0.145,-0.085
4987,-0.195,-0.125
4988,-0.195,-0.135
4989,-0.175,-0.135
4990,-0.175,-0.125
4991,-0.185,-0.125
4992,-0.165,-0.125
4993,-0.145,-0.105
4994,-0.135,-0.105
4995,-0.145,-0.105
4996,-0.525,0.035
4997,-0.695,0.235
4998,-0.055,0.345
4999,1.835,-0.035
5000,2.975,-0.695
5001,3.275,-1.145
5002,1.345,-1.115
5003,0.115,-0.595
5004,-0.125,-0.145
5005,-0.155,-0.015
5006,-0.195,-0.035
5007,-0.215,-0.055
5008,-0.225,-0.045
5009,-0.235,-0.045
5010,-0.225,-0.055
5011,-0.235,-0.065
5012,-0.225,-0.055
5013,-0.205,-0.035
5014,-0.225,-0.045
5015,-0.215,-0.045
5016,-0.215,-0.045
5017,-0.215,-0.045
5018,-0.215,-0.055
5019,-0.195,-0.055
5020,-0.195,-0.055
5021,-0.175,-0.055
5022,-0.175,-0.055
5023,-0.175,-0.065
5024,-0.155,-0.055
5025,-0.135,-0.045
5026,-0.125,-0.055
5027,-0.125,-0.065
5028,-0.085,-0.055
5029,-0.055,-0.055
5030,-0.025,-0.055
5031,0.015,-0.065
5032,0.075,-0.055
5033,0.135,-0.045
5034,0.205,-0.045
5035,0.275,-0.055
5036,0.355,-0.045
5037,0.425,-0.035
5038,0.495,-0.045
5039,0.545,-0.045
5040,0.585,-0.035
5041,0.605,-0.035
5042,0.515,-0.045
5043,0.415,-0.035
5044,0.265,-0.025
5045,0.125,-0.005
5046,0.005,-0.015
5047,-0.085,-0.015
5048,-0.135,-0.005
5049,-0.175,-0.005
5050,-0.205,-0.015
5051,-0.215,-0.035
5052,-0.215,-0.035
5053,-0.205,-0.035
5054,-0.205,-0.045
5055,-0.215,-0.045
5056,-0.215,-0.035
5057,-0.205,-0.025
5058,-0.205,-0.035
5059,-0.215,-0.035
5060,-0.195,-0.045
5061,-0.175,-0.035
5062,-0.175,-0.035
5063,-0.185,-0.045
5064,-0.175,-0.035
5065,-0.165,-0.025
5066,-0.185,-0.035
5067,-0.175,-0.045
5068,-0.185,-0.045
5069,-0.165,-0.035
5070,-0.175,-0.035
5071,-0.185,-0.045
5072,-0.195,-0.045
5073,-0.185,-0.035
5074,-0.195,-0.045
5075,-0.195,-0.055
5076,-0.205,-0.055
5077,-0.195,-0.045
5078,-0.195,-0.055
5079,-0.195,-0.065
5080,-0.195,-0.065
5081,-0.185,-0.055
5082,-0.195,-0.065
5083,-0.195,-0.065
5084,-0.185,-0.065
5085,-0.195,-0.065
5086,-0.185,-0.075
5087,-0.205,-0.075
5088,-0.195,-0.075
5089,-0.175,-0.065
5090,-0.185,-0.075
5091,-0.185,-0.085
5092,-0.185,-0.075
5093,-0.185,-0.075
5094,-0.185,-0.065
5095,-0.195,-0.075
5096,-0.185,-0.065
5097,-0.175,-0.065
5098,-0.185,-0.075
5099,-0.195,-0.085
5100,-0.185,-0.075
5101,-0.175,-0.065
5102,-0.175,-0.065
5103,-0.175,-0.085
5104,-0.165,-0.075
5105,-0.165,-0.065
5106,-0.165,-0.075
5107,-0.165,-0.075
5108,-0.155,-0.075
5109,-0.145,-0.065
5110,-0.155,-0.075
5111,-0.155,-0.085
5112,-0.155,-0.075
5113,-0.145,-0.065
5114,-0.155,-0.075
5115,-0.155,-0.085
5116,-0.145,-0.075
5117,-0.145,-0.065
5118,-0.145,-0.075
5119,-0.145,-0.085
5120,-0.145,-0.075
5121,-0.145,-0.065
5122,-0.145,-0.075
5123,-0.135,-0.085
5124,-0.135,-0.075
5125,-0.135,-0.075
5126,-0.125,-0.085
5127,-0.125,-0.075
5128,-0.115,-0.075
5129,-0.125,-0.075
5130,-0.125,-0.085
5131,-0.125,-0.075
5132,-0.115,-0.065
5133,-0.125,-0.075
5134,-0.135,-0.075
5135,-0.125,-0.085
5136,-0.115,-0.085
5137,-0.095,-0.075
5138,-0.105,-0.085
5139,-0.115,-0.075
5140,-0.105,-0.075
5141,-0.115,-0.075
5142,-0.115,-0.085
5143,-0.095,-0.085
5144,-0.105,-0.075
5145,-0.105,-0.075
5146,-0.125,-0.065
5147,-0.135,-0.085
5148,-0.135,-0.075
5149,-0.085,-0.045
5150,-0.005,-0.015
5151,-0.015,-0.035
5152,-0.075,-0.085
5153,-0.085,-0.095
5154,-0.075,-0.085
5155,-0.095,-0.085
5156,-0.115,-0.095
5157,-0.115,-0.095
5158,-0.105,-0.105
5159,-0.105,-0.105
5160,-0.105,-0.095
5161,-0.095,-0.085
5162,-0.055,-0.085
5163,-0.135,-0.065
5164,-0.545,0.115
5165,-0.575,0.275
5166,0.205,0.345
5167,1.975,-0.065
5168,2.965,-0.655
5169,3.305,-1.035
5170,1.735,-1.125
5171,0.265,-0.685
5172,-0.065,-0.165
5173,-0.105,0.005
5174,-0.135,-0.005
5175,-0.155,-0.035
5176,-0.175,-0.035
5177,-0.175,-0.025
5178,-0.185,-0.035
5179,-0.185,-0.025
5180,-0.185,-0.025
5181,-0.165,-0.015
5182,-0.175,-0.025
5183,-0.195,-0.035
5184,-0.185,-0.035
5185,-0.175,-0.015
5186,-0.185,-0.025
5187,-0.195,-0.035
5188,-0.175,-0.035
5189,-0.185,-0.025
5190,-0.155,-0.035
5191,-0.155,-0.035
5192,-0.155,-0.045
5193,-0.135,-0.035
5194,-0.125,-0.035
5195,-0.125,-0.035
5196,-0.105,-0.045
5197,-0.085,-0.035
5198,-0.055,-0.035
5199,-0.025,-0.045
5200,0.025,-0.035
5201,0.075,-0.025
5202,0.145,-0.025
5203,0.205,-0.035
5204,0.265,-0.025
5205,0.345,-0.015
5206,0.405,-0.025
5207,0.455,-0.025
5208,0.525,-0.025
5209,0.575,-0.015
5210,0.555,-0.025
5211,0.485,-0.045
5212,0.365,-0.025
5213,0.225,-0.015
5214,0.085,-0.025
5215,-0.045,-0.025
5216,-0.125,-0.025
5217,-0.175,-0.015
5218,-0.215,-0.015
5219,-0.255,-0.045
5220,-0.255,-0.035
5221,-0.245,-0.035
5222,-0.245,-0.055
5223,-0.235,-0.055
5224,-0.235,-0.055
5225,-0.235,-0.045
5226,-0.235,-0.055
5227,-0.235,-0.065
5228,-0.225,-0.055
5229,-0.215,-0.055
5230,-0.225,-0.055
5231,-0.215,-0.065
5232,-0.205,-0.055
5233,-0.205,-0.055
5234,-0.225,-0.065
5235,-0.225,-0.055
5236,-0.215,-0.065
5237,-0.215,-0.055
5238,-0.225,-0.075
5239,-0.235,-0.065
5240,-0.245,-0.075
5241,-0.225,-0.065
5242,-0.245,-0.075
5243,-0.245,-0.075
5244,-0.245,-0.085
5245,-0.245,-0.075
5246,-0.235,-0.085
5247,-0.245,-0.095
5248,-0.245,-0.095
5249,-0.245,-0.085
5250,-0.225,-0.085
5251,-0.245,-0.105
5252,-0.225,-0.095
5253,-0.235,-0.085
5254,-0.235,-0.095
5255,-0.235,-0.105
5256,-0.225,-0.095
5257,-0.235,-0.095
5258,-0.225,-0.095
5259,-0.245,-0.105
5260,-0.235,-0.095
5261,-0.215,-0.095
5262,-0.225,-0.105
5263,-0.215,-0.105
5264,-0.215,-0.105
5265,-0.205,-0.095
5266,-0.205,-0.105
5267,-0.215,-0.105
5268,-0.215,-0.105
5269,-0.205,-0.095
5270,-0.205,-0.105
5271,-0.205,-0.105
5272,-0.195,-0.105
5273,-0.195,-0.095
5274,-0.195,-0.105
5275,-0.205,-0.115
5276,-0.195,-0.105
5277,-0.185,-0.095
5278,-0.185,-0.105
5279,-0.205,-0.115
5280,-0.185,-0.105
5281,-0.175,-0.095
5282,-0.175,-0.115
5283,-0.185,-0.115
5284,-0.175,-0.115
5285,-0.165,-0.105
5286,-0.165,-0.115
5287,-0.165,-0.115
5288,-0.155,-0.105
5289,-0.155,-0.095
5290,-0.155,-0.105
5291,-0.145,-0.105
5292,-0.165,-0.095
5293,-0.135,-0.085
5294,-0.095,-0.035
5295,-0.045,-0.015
5296,0.025,0.005
5297,-0.005,-0.025
5298,-0.075,-0.115
5299,-0.085,-0.115
5300,-0.095,-0.085
5301,-0.135,-0.085
5302,-0.165,-0.115
5303,-0.165,-0.135
5304,-0.155,-0.125
5305,-0.145,-0.115
5306,-0.125,-0.115
5307,-0.115,-0.125
5308,-0.105,-0.105
5309,-0.065,-0.095
5310,-0.335,-0.045
5311,-0.615,0.145
5312,-0.265,0.295
5313,1.265,0.255
5314,2.745,-0.305
5315,3.315,-0.805
5316,2.505,-1.155
5317,0.475,-0.855
5318,-0.015,-0.345
5319,-0.095,-0.075
5320,-0.125,-0.035
5321,-0.145,-0.055
5322,-0.155,-0.065
5323,-0.175,-0.055
5324,-0.175,-0.055
5325,-0.175,-0.045
5326,-0.175,-0.045
5327,-0.175,-0.055
5328,-0.165,-0.045
5329,-0.155,-0.045
5330,-0.165,-0.045
5331,-0.165,-0.055
5332,-0.155,-0.045
5333,-0.155,-0.055
5334,-0.155,-0.065
5335,-0.145,-0.065
5336,-0.125,-0.055
5337,-0.105,-0.055
5338,-0.105,-0.055
5339,-0.095,-0.065
5340,-0.085,-0.055
5341,-0.065,-0.055
5342,-0.045,-0.065
5343,-0.015,-0.065
5344,0.015,-0.055
5345,0.055,-0.045
5346,0.085,-0.055
5347,0.145,-0.055
5348,0.205,-0.045
5349,0.275,-0.035
5350,0.335,-0.045
5351,0.405,-0.045
5352,0.475,-0.045
5353,0.535,-0.025
5354,0.585,-0.035
5355,0.625,-0.055
5356,0.645,-0.045
5357,0.605,-0.035
5358,0.495,-0.035
5359,0.365,-0.045
5360,0.215,-0.025
5361,0.085,-0.015
5362,-0.025,-0.015
5363,-0.105,-0.035
5364,-0.145,-0.025
5365,-0.165,-0.025
5366,-0.195,-0.035
5367,-0.205,-0.035
5368,-0.215,-0.035
5369,-0.195,-0.035
5370,-0.195,-0.045
5371,-0.195,-0.055
5372,-0.185,-0.055
5373,-0.175,-0.045
5374,-0.165,-0.045
5375,-0.175,-0.045
5376,-0.175,-0.055
5377,-0.165,-0.045
5378,-0.145,-0.045
5379,-0.145,-0.055
5380,-0.145,-0.055
5381,-0.145,-0.055
5382,-0.145,-0.055
5383,-0.155,-0.055
5384,-0.145,-0.065
5385,-0.145,-0.055
5386,-0.155,-0.055
5387,-0.165,-0.065
5388,-0.165,-0.065
5389,-0.165,-0.055
5390,-0.175,-0.055
5391,-0.165,-0.065
5392,-0.165,-0.075
5393,-0.165,-0.065
5394,-0.175,-0.075
5395,-0.165,-0.085
5396,-0.175,-0.085
5397,-0.175,-0.075
5398,-0.185,-0.075
5399,-0.175,-0.085
5400,-0.175,-0.085
5401,-0.155,-0.065
5402,-0.175,-0.075
5403,-0.175,-0.085
5404,-0.165,-0.075
5405,-0.155,-0.075
5406,-0.155,-0.075
5407,-0.155,-0.085
5408,-0.155,-0.085
5409,-0.155,-0.075
5410,-0.155,-0.085
5411,-0.155,-0.095
5412,-0.155,-0.085
5413,-0.145,-0.075
5414,-0.145,-0.085
5415,-0.155,-0.095
5416,-0.135,-0.095
5417,-0.135,-0.075
5418,-0.125,-0.085
5419,-0.125,-0.085
5420,-0.125,-0.085
5421,-0.125,-0.075
5422,-0.125,-0.085
5423,-0.125,-0.095
5424,-0.115,-0.095
5425,-0.115,-0.065
5426,-0.145,-0.065
5427,-0.105,-0.065
5428,-0.065,-0.015
5429,0.015,0.015
5430,0.065,0.025
5431,-0.005,-0.025
5432,-0.055,-0.105
5433,-0.035,-0.085
5434,-0.055,-0.065
5435,-0.085,-0.085
5436,-0.125,-0.105
5437,-0.105,-0.115
5438,-0.105,-0.105
5439,-0.115,-0.105
5440,-0.115,-0.095
5441,-0.085,-0.095
5442,-0.055,-0.085
5443,-0.075,-0.075
5444,-0.455,0.065
5445,-0.605,0.235
5446,-0.045,0.365
5447,1.605,0.085
5448,2.925,-0.535
5449,3.405,-0.985
5450,2.025,-1.185
5451,0.335,-0.745
5452,-0.035,-0.205
5453,-0.065,-0.005
5454,-0.105,-0.015
5455,-0.125,-0.045
5456,-0.135,-0.045
5457,-0.145,-0.035
5458,-0.145,-0.035
5459,-0.145,-0.045
5460,-0.145,-0.025
5461,-0.135,-0.025
5462,-0.125,-0.035
5463,-0.135,-0.035
5464,-0.125,-0.035
5465,-0.135,-0.025
5466,-0.125,-0.035
5467,-0.125,-0.035
5468,-0.125,-0.035
5469,-0.115,-0.015
5470,-0.105,-0.035
5471,-0.095,-0.025
5472,-0.095,-0.035
5473,-0.075,-0.025
5474,-0.065,-0.035
5475,-0.055,-0.035
5476,-0.025,-0.035
5477,0.005,-0.025
5478,0.015,-0.025
5479,0.055,-0.035
5480,0.095,-0.025
5481,0.155,-0.015
5482,0.215,-0.025
5483,0.285,-0.025
5484,0.355,-0.015
5485,0.435,-0.015
5486,0.485,-0.015
5487,0.545,-0.015
5488,0.615,-0.005
5489,0.675,0.005
5490,0.675,-0.005
5491,0.605,-0.015
5492,0.475,-0.005
5493,0.335,0.005
5494,0.185,0.005
5495,0.045,0.005
5496,-0.045,0.005
5497,-0.095,0.015
5498,-0.135,-0.005
5499,-0.165,-0.025
5500,-0.175,-0.015
5501,-0.175,-0.015
5502,-0.175,-0.025
5503,-0.175,-0.035
5504,-0.175,-0.035
5505,-0.165,-0.025
5506,-0.165,-0.025
5507,-0.175,-0.035
5508,-0.145,-0.035
5509,-0.155,-0.025
5510,-0.155,-0.025
5511,-0.155,-0.035
5512,-0.145,-0.025
5513,-0.145,-0.025
5514,-0.145,-0.035
5515,-0.155,-0.045
5516,-0.145,-0.025
5517,-0.145,-0.025
5518,-0.145,-0.035
5519,-0.145,-0.035
5520,-0.155,-0.035
5521,-0.155,-0.025
5522,-0.155,-0.035
5523,-0.155,-0.045
5524,-0.165,-0.035
5525,-0.155,-0.045
5526,-0.165,-0.045
5527,-0.175,-0.055
5528,-0.175,-0.055
5529,-0.165,-0.045
5530,-0.165,-0.045
5531,-0.175,-0.065
5532,-0.175,-0.055
5533,-0.165,-0.035
5534,-0.165,-0.055
5535,-0.175,-0.065
5536,-0.165,-0.055
5537,-0.155,-0.045
5538,-0.165,-0.055
5539,-0.165,-0.065
5540,-0.155,-0.055
5541,-0.155,-0.055
5542,-0.155,-0.055
5543,-0.155,-0.065
5544,-0.155,-0.065
5545,-0.155,-0.055
5546,-0.145,-0.055
5547,-0.155,-0.065
5548,-0.145,-0.065
5549,-0.135,-0.045
5550,-0.135,-0.055
5551,-0.145,-0.065
5552,-0.135,-0.055
5553,-0.125,-0.045
5554,-0.135,-0.055
5555,-0.125,-0.055
5556,-0.135,-0.055
5557,-0.125,-0.045
5558,-0.125,-0.055
5559,-0.125,-0.065
5560,-0.115,-0.055
5561,-0.125,-0.035
5562,-0.125,-0.045
5563,-0.115,-0.055
5564,-0.125,-0.055
5565,-0.115,-0.045
5566,-0.115,-0.055
5567,-0.115,-0.055
5568,-0.105,-0.055
5569,-0.105,-0.045
5570,-0.105,-0.055
5571,-0.115,-0.045
5572,-0.115,-0.035
5573,-0.075,-0.005
5574,-0.045,0.025
5575,0.035,0.025
5576,0.035,0.035
5577,-0.045,-0.035
5578,-0.055,-0.075
5579,-0.055,-0.065
5580,-0.055,-0.055
5581,-0.085,-0.055
5582,-0.105,-0.085
5583,-0.115,-0.095
5584,-0.095,-0.085
5585,-0.085,-0.075
5586,-0.085,-0.075
5587,-0.075,-0.085
5588,-0.035,-0.065
5589,-0.105,-0.035
5590,-0.495,0.115
5591,-0.585,0.275
5592,0.205,0.355
5593,2.045,-0.015
5594,3.055,-0.645
5595,3.285,-1.085
5596,1.505,-1.085
5597,0.275,-0.585
5598,-0.035,-0.125
5599,-0.085,0.015
5600,-0.125,0.005
5601,-0.145,0.005
5602,-0.175,-0.015
5603,-0.175,-0.005
5604,-0.175,0.005
5605,-0.175,0.015
5606,-0.175,0.005
5607,-0.185,-0.005
5608,-0.185,0.005
5609,-0.185,0.005
5610,-0.185,0.005
5611,-0.185,-0.015
5612,-0.185,-0.005
5613,-0.175,0.005
5614,-0.165,-0.005
5615,-0.185,-0.015
5616,-0.165,-0.005
5617,-0.145,-0.005
5618,-0.135,-0.005
5619,-0.145,-0.015
5620,-0.115,-0.015
5621,-0.105,-0.005
5622,-0.085,-0.005
5623,-0.055,-0.015
5624,-0.025,-0.015
5625,0.015,-0.005
5626,0.045,-0.005
5627,0.105,-0.005
5628,0.155,0.005
5629,0.225,0.015
5630,0.285,0.005
5631,0.365,-0.005
5632,0.425,-0.005
5633,0.495,0.015
5634,0.565,0.005
5635,0.595,-0.005
5636,0.605,0.005
5637,0.545,0.005
5638,0.415,-0.005
5639,0.285,-0.005
5640,0.145,-0.005
5641,0.005,0.015
5642,-0.085,-0.005
5643,-0.155,-0.015
5644,-0.205,0.005
5645,-0.225,-0.005
5646,-0.245,-0.015
5647,-0.255,-0.025
5648,-0.255,-0.025
5649,-0.255,-0.015
5650,-0.255,-0.025
5651,-0.255,-0.035
5652,-0.235,-0.035
5653,-0.235,-0.025
5654,-0.235,-0.035
5655,-0.225,-0.045
5656,-0.235,-0.025
5657,-0.215,-0.025
5658,-0.225,-0.025
5659,-0.225,-0.025
5660,-0.235,-0.025
5661,-0.225,-0.025
5662,-0.235,-0.045
5663,-0.235,-0.045
5664,-0.225,-0.025
5665,-0.235,-0.035
5666,-0.245,-0.045
5667,-0.265,-0.035
5668,-0.265,-0.045
5669,-0.275,-0.045
5670,-0.255,-0.055
5671,-0.265,-0.065
5672,-0.265,-0.065
5673,-0.265,-0.045
5674,-0.255,-0.065
5675,-0.265,-0.075
5676,-0.275,-0.075
5677,-0.275,-0.065
5678,-0.275,-0.065
5679,-0.265,-0.075
5680,-0.255,-0.065
5681,-0.255,-0.065
5682,-0.275,-0.075
5683,-0.285,-0.075
5684,-0.265,-0.075
5685,-0.255,-0.065
5686,-0.275,-0.085
5687,-0.265,-0.085
5688,-0.265,-0.075
5689,-0.255,-0.065
5690,-0.255,-0.075
5691,-0.265,-0.085
5692,-0.265,-0.075
5693,-0.245,-0.075
5694,-0.245,-0.085
5695,-0.245,-0.085
5696,-0.255,-0.085
5697,-0.245,-0.075
5698,-0.235,-0.085
5699,-0.235,-0.075
5700,-0.255,-0.065
5701,-0.215,-0.055
5702,-0.195,-0.025
5703,-0.145,-0.015
5704,-0.055,0.015
5705,-0.125,-0.015
5706,-0.155,-0.105
5707,-0.175,-0.105
5708,-0.205,-0.085
5709,-0.245,-0.085
5710,-0.255,-0.115
5711,-0.225,-0.125
5712,-0.225,-0.115
5713,-0.225,-0.105
5714,-0.215,-0.115
5715,-0.215,-0.115
5716,-0.205,-0.095
5717,-0.145,-0.075
5718,-0.325,-0.065
5719,-0.725,0.095
5720,-0.525,0.265
5721,0.825,0.355
5722,2.565,-0.105
5723,3.305,-0.675
5724,2.245,-1.115
5725,0.275,-0.865
5726,-0.155,-0.355
5727,-0.205,-0.075
5728,-0.235,-0.015
5729,-0.235,-0.035
5730,-0.265,-0.065
5731,-0.285,-0.065
5732,-0.295,-0.045
5733,-0.275,-0.045
5734,-0.275,-0.055
5735,-0.285,-0.065
5736,-0.265,-0.045
5737,-0.265,-0.045
5738,-0.275,-0.055
5739,-0.265,-0.065
5740,-0.255,-0.065
5741,-0.265,-0.055
5742,-0.255,-0.065
5743,-0.245,-0.065
5744,-0.245,-0.075
5745,-0.235,-0.065
5746,-0.225,-0.075
5747,-0.215,-0.085
5748,-0.195,-0.065
5749,-0.185,-0.065
5750,-0.175,-0.075
5751,-0.145,-0.085
5752,-0.105,-0.075
5753,-0.075,-0.075
5754,-0.055,-0.085
5755,0.015,-0.095
5756,0.085,-0.075
5757,0.155,-0.065
5758,0.225,-0.075
5759,0.295,-0.085
5760,0.375,-0.085
5761,0.435,-0.065
5762,0.465,-0.075
5763,0.525,-0.085
5764,0.525,-0.075
5765,0.455,-0.055
5766,0.345,-0.055
5767,0.185,-0.045
5768,0.025,-0.025
5769,-0.085,-0.015
5770,-0.185,-0.015
5771,-0.255,-0.025
5772,-0.275,-0.035
5773,-0.285,-0.025
5774,-0.295,-0.035
5775,-0.305,-0.045
5776,-0.315,-0.045
5777,-0.305,-0.035
5778,-0.305,-0.045
5779,-0.305,-0.055
5780,-0.285,-0.045
5781,-0.265,-0.045
5782,-0.275,-0.055
5783,-0.285,-0.065
5784,-0.275,-0.055
5785,-0.275,-0.055
5786,-0.265,-0.055
5787,-0.275,-0.065
5788,-0.265,-0.055
5789,-0.265,-0.045
5790,-0.265,-0.055
5791,-0.265,-0.065
5792,-0.275,-0.065
5793,-0.265,-0.055
5794,-0.285,-0.065
5795,-0.285,-0.075
5796,-0.265,-0.075
5797,-0.275,-0.075
5798,-0.285,-0.075
5799,-0.285,-0.075
5800,-0.285,-0.075
5801,-0.275,-0.075
5802,-0.275,-0.085
5803,-0.285,-0.095
5804,-0.275,-0.095
5805,-0.275,-0.085
5806,-0.275,-0.095
5807,-0.285,-0.105
5808,-0.275,-0.105
5809,-0.275,-0.085
5810,-0.275,-0.095
5811,-0.265,-0.105
5812,-0.255,-0.105
5813,-0.235,-0.095
5814,-0.255,-0.095
5815,-0.255,-0.105
5816,-0.255,-0.105
5817,-0.235,-0.095
5818,-0.265,-0.095
5819,-0.245,-0.095
5820,-0.205,-0.065
5821,-0.165,-0.025
5822,-0.095,-0.015
5823,-0.105,-0.045
5824,-0.175,-0.105
5825,-0.165,-0.135
5826,-0.175,-0.115
5827,-0.205,-0.125
5828,-0.235,-0.135
5829,-0.245,-0.145
5830,-0.225,-0.145
5831,-0.215,-0.155
5832,-0.205,-0.155
5833,-0.195,-0.135
5834,-0.185,-0.135
5835,-0.165,-0.135
5836,-0.145,-0.115
5837,-0.475,-0.035
5838,-0.715,0.155
5839,-0.265,0.295
5840,1.445,0.185
5841,2.835,-0.465
5842,3.265,-0.965
5843,1.665,-1.195
5844,0.175,-0.775
5845,-0.115,-0.265
5846,-0.165,-0.065
5847,-0.195,-0.055
5848,-0.205,-0.085
5849,-0.215,-0.085
5850,-0.235,-0.085
5851,-0.235,-0.085
5852,-0.235,-0.085
5853,-0.235,-0.075
5854,-0.225,-0.075
5855,-0.235,-0.075
5856,-0.225,-0.085
5857,-0.215,-0.065
5858,-0.215,-0.075
5859,-0.215,-0.085
5860,-0.205,-0.085
5861,-0.205,-0.075
5862,-0.195,-0.095
5863,-0.185,-0.105
5864,-0.175,-0.095
5865,-0.155,-0.085
5866,-0.145,-0.105
5867,-0.125,-0.105
5868,-0.105,-0.095
5869,-0.085,-0.095
5870,-0.055,-0.095
5871,-0.025,-0.105
5872,0.015,-0.105
5873,0.075,-0.095
5874,0.125,-0.105
5875,0.185,-0.095
5876,0.255,-0.095
5877,0.325,-0.085
5878,0.395,-0.085
5879,0.445,-0.105
5880,0.505,-0.095
5881,0.555,-0.075
5882,0.575,-0.085
5883,0.515,-0.085
5884,0.415,-0.075
5885,0.275,-0.055
5886,0.135,-0.055
5887,0.005,-0.055
5888,-0.105,-0.045
5889,-0.165,-0.035
5890,-0.205,-0.055
5891,-0.235,-0.055
5892,-0.245,-0.065
5893,-0.245,-0.055
5894,-0.245,-0.065
5895,-0.235,-0.075
5896,-0.235,-0.075
5897,-0.225,-0.065
5898,-0.215,-0.075
5899,-0.225,-0.085
5900,-0.215,-0.075
5901,-0.215,-0.065
5902,-0.205,-0.075
5903,-0.215,-0.085
5904,-0.205,-0.075
5905,-0.195,-0.075
5906,-0.195,-0.075
5907,-0.205,-0.085
5908,-0.215,-0.075
5909,-0.205,-0.075
5910,-0.215,-0.085
5911,-0.215,-0.085
5912,-0.225,-0.085
5913,-0.215,-0.075
5914,-0.225,-0.095
5915,-0.225,-0.095
5916,-0.235,-0.095
5917,-0.235,-0.075
5918,-0.235,-0.095
5919,-0.245,-0.105
5920,-0.235,-0.105
5921,-0.235,-0.095
5922,-0.245,-0.115
5923,-0.235,-0.115
5924,-0.235,-0.105
5925,-0.245,-0.105
5926,-0.235,-0.115
5927,-0.245,-0.115
5928,-0.235,-0.115
5929,-0.225,-0.115
5930,-0.225,-0.105
5931,-0.235,-0.125
5932,-0.225,-0.115
5933,-0.215,-0.105
5934,-0.235,-0.115
5935,-0.225,-0.125
5936,-0.215,-0.115
5937,-0.205,-0.105
5938,-0.215,-0.115
5939,-0.215,-0.125
5940,-0.205,-0.115
5941,-0.195,-0.105
5942,-0.205,-0.105
5943,-0.225,-0.105
5944,-0.195,-0.095
5945,-0.155,-0.045
5946,-0.125,-0.025
5947,-0.045,-0.035
5948,-0.055,-0.035
5949,-0.135,-0.115
5950,-0.135,-0.135
5951,-0.135,-0.115
5952,-0.155,-0.115
5953,-0.195,-0.115
5954,-0.215,-0.145
5955,-0.205,-0.155
5956,-0.185,-0.145
5957,-0.175,-0.135
5958,-0.175,-0.145
5959,-0.175,-0.145
5960,-0.135,-0.135
5961,-0.135,-0.115
5962,-0.515,-0.015
5963,-0.715,0.185
5964,-0.065,0.325
5965,1.755,0.025
5966,2.915,-0.615
5967,3.315,-1.075
5968,1.875,-1.235
5969,0.265,-0.785
5970,-0.095,-0.265
5971,-0.165,-0.065
5972,-0.185,-0.045
5973,-0.215,-0.065
5974,-0.235,-0.075
5975,-0.245,-0.065
5976,-0.245,-0.065
5977,-0.235,-0.055
5978,-0.245,-0.055
5979,-0.235,-0.065
5980,-0.245,-0.065
5981,-0.225,-0.055
5982,-0.245,-0.065
5983,-0.235,-0.065
5984,-0.225,-0.065
5985,-0.215,-0.055
5986,-0.215,-0.065
5987,-0.215,-0.075
5988,-0.195,-0.065
5989,-0.175,-0.065
5990,-0.175,-0.065
5991,-0.175,-0.075
5992,-0.165,-0.075
5993,-0.135,-0.065
5994,-0.115,-0.065
5995,-0.105,-0.075
5996,-0.065,-0.075
5997,-0.025,-0.065
5998,0.015,-0.055
5999,0.055,-0.065
6000,0.135,-0.065
6001,0.215,-0.055
6002,0.275,-0.055
6003,0.345,-0.055
6004,0.405,-0.055
6005,0.475,-0.035
6006,0.525,-0.045
6007,0.555,-0.045
6008,0.535,-0.045
6009,0.445,-0.045
6010,0.315,-0.045
6011,0.175,-0.035
6012,0.035,-0.025
6013,-0.085,-0.015
6014,-0.165,-0.035
6015,-0.205,-0.035
6016,-0.225,-0.045
6017,-0.235,-0.035
6018,-0.255,-0.055
6019,-0.245,-0.055
6020,-0.245,-0.055
6021,-0.245,-0.055
6022,-0.245,-0.065
6023,-0.235,-0.075
6024,-0.225,-0.065
6025,-0.215,-0.055
6026,-0.215,-0.065
6027,-0.215,-0.065
6028,-0.205,-0.065
6029,-0.195,-0.065
6030,-0.205,-0.065
6031,-0.215,-0.075
6032,-0.215,-0.065
6033,-0.215,-0.055
6034,-0.215,-0.065
6035,-0.215,-0.075
6036,-0.225,-0.065
6037,-0.225,-0.065
6038,-0.235,-0.075
6039,-0.245,-0.075
6040,-0.245,-0.075
6041,-0.235,-0.075
6042,-0.245,-0.075
6043,-0.255,-0.085
6044,-0.255,-0.085
6045,-0.245,-0.075
6046,-0.245,-0.095
6047,-0.255,-0.095
6048,-0.245,-0.095
6049,-0.245,-0.085
6050,-0.255,-0.095
6051,-0.255,-0.105
6052,-0.255,-0.105
6053,-0.245,-0.095
6054,-0.245,-0.095
6055,-0.245,-0.105
6056,-0.255,-0.105
6057,-0.245,-0.085
6058,-0.235,-0.095
6059,-0.245,-0.105
6060,-0.235,-0.095
6061,-0.225,-0.085
6062,-0.235,-0.095
6063,-0.235,-0.105
6064,-0.225,-0.095
6065,-0.215,-0.095
6066,-0.215,-0.105
6067,-0.215,-0.105
6068,-0.215,-0.105
6069,-0.205,-0.095
6070,-0.205,-0.095
6071,-0.215,-0.105
6072,-0.215,-0.105
6073,-0.205,-0.085
6074,-0.225,-0.085
6075,-0.185,-0.085
6076,-0.155,-0.035
6077,-0.105,-0.015
6078,-0.025,-0.015
6079,-0.115,-0.065
6080,-0.155,-0.145
6081,-0.145,-0.115
6082,-0.135,-0.105
6083,-0.175,-0.125
6084,-0.215,-0.145
6085,-0.195,-0.145
6086,-0.195,-0.145
6087,-0.195,-0.145
6088,-0.185,-0.125
6089,-0.165,-0.125
6090,-0.145,-0.115
6091,-0.125,-0.115
6092,-0.455,-0.045
6093,-0.725,0.165
6094,-0.335,0.325
6095,1.335,0.125
6096,2.815,-0.505
6097,3.345,-0.995
6098,1.935,-1.255
6099,0.305,-0.815
6100,-0.115,-0.255
6101,-0.175,-0.055
6102,-0.185,-0.025
6103,-0.215,-0.065
6104,-0.245,-0.065
6105,-0.245,-0.065
6106,-0.245,-0.065
6107,-0.255,-0.065
6108,-0.255,-0.055
6109,-0.255,-0.045
6110,-0.255,-0.045
6111,-0.265,-0.055
6112,-0.265,-0.045
6113,-0.255,-0.045
6114,-0.255,-0.055
6115,-0.245,-0.065
6116,-0.235,-0.055
6117,-0.225,-0.045
6118,-0.235,-0.045
6119,-0.245,-0.065
6120,-0.225,-0.065
6121,-0.205,-0.055
6122,-0.205,-0.065
6123,-0.185,-0.075
6124,-0.175,-0.055
6125,-0.145,-0.055
6126,-0.135,-0.055
6127,-0.105,-0.065
6128,-0.055,-0.055
6129,-0.005,-0.045
6130,0.055,-0.045
6131,0.105,-0.045
6132,0.155,-0.055
6133,0.235,-0.045
6134,0.285,-0.045
6135,0.345,-0.045
6136,0.415,-0.035
6137,0.485,-0.035
6138,0.505,-0.035
6139,0.495,-0.045
6140,0.435,-0.035
6141,0.325,-0.025
6142,0.165,-0.015
6143,0.025,-0.015
6144,-0.085,-0.015
6145,-0.185,-0.015
6146,-0.235,-0.025
6147,-0.265,-0.025
6148,-0.295,-0.025
6149,-0.295,-0.025
6150,-0.295,-0.035
6151,-0.295,-0.035
6152,-0.295,-0.045
6153,-0.295,-0.045
6154,-0.265,-0.045
6155,-0.265,-0.045
6156,-0.275,-0.045
6157,-0.265,-0.045
6158,-0.275,-0.045
6159,-0.265,-0.045
6160,-0.275,-0.055
6161,-0.265,-0.035
6162,-0.275,-0.035
6163,-0.285,-0.045
6164,-0.285,-0.055
6165,-0.265,-0.035
6166,-0.265,-0.045
6167,-0.275,-0.055
6168,-0.275,-0.055
6169,-0.285,-0.055
6170,-0.285,-0.065
6171,-0.295,-0.065
6172,-0.305,-0.065
6173,-0.285,-0.065
6174,-0.295,-0.065
6175,-0.295,-0.075
6176,-0.305,-0.075
6177,-0.285,-0.065
6178,-0.285,-0.075
6179,-0.305,-0.085
6180,-0.295,-0.075
6181,-0.305,-0.075
6182,-0.295,-0.075
6183,-0.305,-0.085
6184,-0.285,-0.085
6185,-0.285,-0.075
6186,-0.285,-0.085
6187,-0.295,-0.085
6188,-0.285,-0.085
6189,-0.285,-0.075
6190,-0.275,-0.085
6191,-0.275,-0.085
6192,-0.265,-0.075
6193,-0.275,-0.085
6194,-0.295,-0.085
6195,-0.295,-0.065
6196,-0.225,-0.055
6197,-0.225,-0.015
6198,-0.165,-0.015
6199,-0.085,-0.015
6200,-0.145,-0.035
6201,-0.215,-0.095
6202,-0.205,-0.095
6203,-0.185,-0.085
6204,-0.235,-0.085
6205,-0.265,-0.095
6206,-0.255,-0.125
6207,-0.245,-0.125
6208,-0.235,-0.115
6209,-0.245,-0.105
6210,-0.245,-0.115
6211,-0.245,-0.105
6212,-0.205,-0.095
6213,-0.165,-0.075
6214,-0.325,-0.055
6215,-0.695,0.095
6216,-0.615,0.245
6217,0.485,0.375
6218,2.325,0.065
6219,3.145,-0.515
6220,2.805,-1.015
6221,0.505,-0.935
6222,-0.135,-0.455
6223,-0.215,-0.105
6224,-0.235,-0.025
6225,-0.235,-0.035
6226,-0.275,-0.055
6227,-0.285,-0.075
6228,-0.285,-0.055
6229,-0.275,-0.045
6230,-0.275,-0.055
6231,-0.285,-0.055
6232,-0.285,-0.055
6233,-0.255,-0.045
6234,-0.265,-0.055
6235,-0.275,-0.065
6236,-0.255,-0.055
6237,-0.245,-0.055
6238,-0.255,-0.065
6239,-0.255,-0.065
6240,-0.245,-0.065
6241,-0.215,-0.055
6242,-0.205,-0.065
6243,-0.195,-0.065
6244,-0.185,-0.075
6245,-0.165,-0.065
6246,-0.145,-0.075
6247,-0.115,-0.085
6248,-0.085,-0.075
6249,-0.065,-0.065
6250,-0.015,-0.075
6251,0.035,-0.075
6252,0.095,-0.075
6253,0.165,-0.065
6254,0.225,-0.065
6255,0.295,-0.085
6256,0.355,-0.065
6257,0.425,-0.065
6258,0.485,-0.065
6259,0.505,-0.065
6260,0.525,-0.065
6261,0.445,-0.045
6262,0.315,-0.025
6263,0.175,-0.015
6264,0.035,-0.005
6265,-0.075,0.015
6266,-0.165,-0.005
6267,-0.215,-0.005
6268,-0.245,0.005
6269,-0.255,-0.005
6270,-0.265,-0.015
6271,-0.265,-0.015
6272,-0.265,-0.015
6273,-0.255,-0.005
6274,-0.265,-0.025
6275,-0.265,-0.025
6276,-0.245,-0.015
6277,-0.225,-0.015
6278,-0.225,-0.015
6279,-0.215,-0.025
6280,-0.215,-0.025
6281,-0.215,-0.015
6282,-0.225,-0.035
6283,-0.225,-0.045
6284,-0.215,-0.035
6285,-0.215,-0.035
6286,-0.215,-0.035
6287,-0.225,-0.045
6288,-0.235,-0.045
6289,-0.225,-0.045
6290,-0.235,-0.045
6291,-0.235,-0.065
6292,-0.225,-0.055
6293,-0.235,-0.055
6294,-0.235,-0.065
6295,-0.255,-0.075
6296,-0.245,-0.065
6297,-0.235,-0.065
6298,-0.245,-0.075
6299,-0.245,-0.085
6300,-0.235,-0.075
6301,-0.235,-0.075
6302,-0.245,-0.095
6303,-0.235,-0.095
6304,-0.235,-0.095
6305,-0.225,-0.085
6306,-0.225,-0.095
6307,-0.225,-0.095
6308,-0.225,-0.095
6309,-0.205,-0.085
6310,-0.225,-0.085
6311,-0.235,-0.085
6312,-0.195,-0.075
6313,-0.175,-0.025
6314,-0.125,-0.015
6315,-0.055,-0.005
6316,-0.115,-0.035
6317,-0.145,-0.115
6318,-0.125,-0.105
6319,-0.135,-0.105
6320,-0.165,-0.095
6321,-0.205,-0.115
6322,-0.195,-0.135
6323,-0.205,-0.135
6324,-0.195,-0.135
6325,-0.165,-0.125
6326,-0.165,-0.125
6327,-0.165,-0.135
6328,-0.125,-0.115
6329,-0.175,-0.095
6330,-0.615,0.055
6331,-0.635,0.215
6332,0.275,0.335
6333,2.145,0.005
6334,3.075,-0.635
6335,3.125,-1.115
6336,0.995,-1.065
6337,0.015,-0.585
6338,-0.145,-0.145
6339,-0.165,-0.035
6340,-0.185,-0.045
6341,-0.195,-0.065
6342,-0.215,-0.065
6343,-0.215,-0.065
6344,-0.215,-0.055
6345,-0.215,-0.055
6346,-0.215,-0.055
6347,-0.225,-0.065
6348,-0.215,-0.065
6349,-0.205,-0.055
6350,-0.205,-0.065
6351,-0.205,-0.065
6352,-0.195,-0.065
6353,-0.195,-0.055
6354,-0.185,-0.065
6355,-0.175,-0.075
6356,-0.175,-0.075
6357,-0.175,-0.065
6358,-0.165,-0.065
6359,-0.155,-0.085
6360,-0.125,-0.075
6361,-0.105,-0.065
6362,-0.095,-0.075
6363,-0.065,-0.085
6364,-0.035,-0.065
6365,0.015,-0.065
6366,0.055,-0.075
6367,0.105,-0.085
6368,0.165,-0.075
6369,0.245,-0.065
6370,0.305,-0.075
6371,0.355,-0.075
6372,0.425,-0.075
6373,0.475,-0.065
6374,0.525,-0.065
6375,0.535,-0.065
6376,0.525,-0.055
6377,0.435,-0.045
6378,0.305,-0.035
6379,0.155,-0.035
6380,0.035,-0.025
6381,-0.055,-0.025
6382,-0.135,-0.025
6383,-0.185,-0.035
6384,-0.195,-0.045
6385,-0.205,-0.035
6386,-0.205,-0.045
6387,-0.215,-0.055
6388,-0.205,-0.045
6389,-0.195,-0.045
6390,-0.205,-0.055
6391,-0.205,-0.065
6392,-0.195,-0.055
6393,-0.175,-0.055
6394,-0.175,-0.055
6395,-0.185,-0.065
6396,-0.175,-0.055
6397,-0.165,-0.055
6398,-0.175,-0.055
6399,-0.165,-0.065
6400,-0.165,-0.055
6401,-0.155,-0.055
6402,-0.165,-0.055
6403,-0.175,-0.065
6404,-0.185,-0.065
6405,-0.185,-0.065
6406,-0.185,-0.075
6407,-0.195,-0.075
6408,-0.195,-0.075
6409,-0.205,-0.065
6410,-0.205,-0.075
6411,-0.205,-0.085
6412,-0.205,-0.085
6413,-0.195,-0.075
6414,-0.205,-0.085
6415,-0.215,-0.105
6416,-0.205,-0.095
6417,-0.205,-0.085
6418,-0.195,-0.095
6419,-0.195,-0.095
6420,-0.185,-0.095
6421,-0.195,-0.095
6422,-0.185,-0.095
6423,-0.195,-0.105
6424,-0.195,-0.105
6425,-0.185,-0.095
6426,-0.185,-0.095
6427,-0.175,-0.105
6428,-0.175,-0.105
6429,-0.165,-0.095
6430,-0.165,-0.095
6431,-0.165,-0.105
6432,-0.165,-0.105
6433,-0.185,-0.085
6434,-0.185,-0.085
6435,-0.135,-0.065
6436,-0.115,-0.025
6437,-0.035,-0.005
6438,0.015,-0.015
6439,-0.095,-0.085
6440,-0.105,-0.125
6441,-0.105,-0.095
6442,-0.095,-0.095
6443,-0.145,-0.115
6444,-0.175,-0.125
6445,-0.175,-0.125
6446,-0.145,-0.135
6447,-0.155,-0.135
6448,-0.135,-0.125
6449,-0.125,-0.115
6450,-0.105,-0.115
6451,-0.075,-0.105
6452,-0.355,-0.045
6453,-0.655,0.165
6454,-0.345,0.325
6455,1.055,0.185
6456,2.715,-0.365
6457,3.365,-0.905
6458,2.555,-1.245
6459,0.585,-0.905
6460,-0.005,-0.325
6461,-0.105,-0.045
6462,-0.145,-0.025
6463,-0.165,-0.055
6464,-0.185,-0.065
6465,-0.185,-0.045
6466,-0.185,-0.055
6467,-0.195,-0.055
6468,-0.195,-0.045
6469,-0.195,-0.035
6470,-0.195,-0.045
6471,-0.205,-0.055
6472,-0.185,-0.035
6473,-0.185,-0.035
6474,-0.175,-0.035
6475,-0.175,-0.055
6476,-0.165,-0.045
6477,-0.165,-0.045
6478,-0.165,-0.045
6479,-0.165,-0.055
6480,-0.135,-0.045
6481,-0.125,-0.045
6482,-0.125,-0.045
6483,-0.105,-0.055
6484,-0.095,-0.055
6485,-0.055,-0.045
6486,-0.035,-0.045
6487,-0.015,-0.045
6488,0.035,-0.035
6489,0.085,-0.025
6490,0.145,-0.035
6491,0.195,-0.035
6492,0.265,-0.025
6493,0.355,-0.015
6494,0.405,-0.025
