'sample interval','ECG0','ECG1'
'0.0078125 sec','mV','mV'
0,-0.345,-0.125
1,-0.295,-0.115
2,-0.295,-0.125
3,-0.285,-0.135
4,-0.275,-0.145
5,-0.265,-0.155
6,-0.245,-0.175
7,-0.235,-0.225
8,-0.195,-0.235
9,-0.165,-0.235
10,-0.175,-0.295
11,-0.125,-0.325
12,-0.145,-0.375
13,-0.125,-0.395
14,-0.095,-0.415
15,-0.095,-0.425
16,-0.095,-0.445
17,-0.075,-0.385
18,-0.085,-0.345
19,-0.065,-0.305
20,-0.035,-0.235
21,-0.025,-0.165
22,-0.025,-0.085
23,-0.055,-0.075
24,-0.055,-0.035
25,-0.075,-0.015
26,-0.085,-0.015
27,-0.065,-0.045
28,-0.105,-0.025
29,-0.135,-0.005
30,-0.135,0.055
31,-0.095,-0.015
32,-0.085,0.005
33,-0.055,-0.045
34,-0.065,-0.065
35,-0.075,-0.055
36,-0.135,-0.025
37,-0.055,-0.005
38,-0.095,-0.005
39,-0.095,-0.015
40,-0.105,-0.045
41,-0.095,-0.015
42,-0.095,-0.015
43,-0.075,-0.045
44,-0.085,-0.035
45,-0.135,-0.015
46,-0.065,-0.025
47,-0.155,-0.015
48,-0.145,-0.025
49,-0.145,-0.025
50,-0.115,0.005
51,-0.075,0.005
52,-0.065,0.005
53,-0.085,0.045
54,0.025,0.045
55,0.055,-0.025
56,-0.015,-0.045
57,-0.015,-0.015
58,-0.065,-0.055
59,-0.055,-0.045
60,-0.105,-0.025
61,-0.095,-0.025
62,-0.135,-0.035
63,-0.125,-0.055
64,-0.155,-0.055
65,-0.155,-0.045
66,-0.115,-0.015
67,-0.115,-0.025
68,-0.385,0.165
69,-0.845,0.165
70,-0.295,-0.195
71,1.335,-0.525
72,2.675,-0.185
73,2.795,0.275
74,2.315,0.525
75,0.455,-0.675
76,-0.505,-0.715
77,-0.385,-0.205
78,-0.325,-0.055
79,-0.325,-0.065
80,-0.385,-0.055
81,-0.335,-0.035
82,-0.345,-0.045
83,-0.295,-0.065
84,-0.305,-0.075
85,-0.295,-0.075
86,-0.285,-0.085
87,-0.295,-0.075
88,-0.235,-0.105
89,-0.215,-0.155
90,-0.185,-0.135
91,-0.165,-0.165
92,-0.165,-0.195
93,-0.115,-0.205
94,-0.105,-0.235
95,-0.155,-0.265
96,-0.095,-0.285
97,-0.035,-0.285
98,-0.035,-0.275
99,-0.065,-0.285
100,-0.065,-0.275
101,-0.035,-0.225
102,-0.025,-0.165
103,-0.025,-0.135
104,-0.005,-0.095
105,-0.055,-0.055
106,-0.045,-0.015
107,-0.055,-0.025
108,-0.085,-0.005
109,-0.085,-0.015
110,-0.085,-0.005
111,-0.115,-0.005
112,-0.115,-0.025
113,-0.105,-0.025
114,-0.095,0.005
115,-0.105,-0.005
116,-0.105,-0.035
117,-0.135,-0.015
118,-0.115,-0.015
119,-0.125,-0.025
120,-0.125,-0.055
121,-0.125,-0.055
122,-0.105,-0.035
123,-0.125,-0.045
124,-0.145,-0.095
125,-0.105,-0.075
126,-0.175,-0.045
127,-0.195,-0.045
128,-0.085,-0.115
129,-0.155,-0.115
130,-0.165,-0.085
131,-0.165,-0.095
132,-0.095,-0.075
133,-0.105,-0.015
134,-0.145,-0.035
135,-0.075,-0.045
136,0.005,-0.085
137,-0.045,-0.105
138,-0.055,-0.145
139,-0.115,-0.145
140,-0.135,-0.125
141,-0.135,-0.165
142,-0.175,-0.145
143,-0.195,-0.165
144,-0.215,-0.185
145,-0.205,-0.185
146,-0.195,-0.175
147,-0.205,-0.185
148,-0.165,-0.185
149,-0.485,0.025
150,-0.955,0.155
151,-0.365,-0.155
152,1.305,-0.435
153,2.675,-0.555
154,2.915,-0.345
155,2.595,0.025
156,0.505,-0.955
157,-0.565,-0.995
158,-0.445,-0.365
159,-0.415,-0.165
160,-0.425,-0.175
161,-0.455,-0.165
162,-0.445,-0.195
163,-0.415,-0.205
164,-0.455,-0.205
165,-0.405,-0.195
166,-0.365,-0.205
167,-0.365,-0.225
168,-0.345,-0.225
169,-0.355,-0.215
170,-0.315,-0.215
171,-0.295,-0.255
172,-0.285,-0.265
173,-0.235,-0.265
174,-0.215,-0.295
175,-0.225,-0.285
176,-0.215,-0.345
177,-0.145,-0.355
178,-0.135,-0.345
179,-0.155,-0.345
180,-0.145,-0.365
181,-0.155,-0.345
182,-0.155,-0.335
183,-0.125,-0.285
184,-0.155,-0.215
185,-0.125,-0.205
186,-0.105,-0.205
187,-0.165,-0.185
188,-0.185,-0.165
189,-0.215,-0.155
190,-0.195,-0.135
191,-0.205,-0.125
192,-0.225,-0.165
193,-0.225,-0.155
194,-0.205,-0.135
195,-0.205,-0.125
196,-0.225,-0.125
197,-0.205,-0.145
198,-0.205,-0.115
199,-0.245,-0.145
200,-0.195,-0.125
201,-0.215,-0.095
202,-0.235,-0.135
203,-0.205,-0.135
204,-0.205,-0.145
205,-0.215,-0.135
206,-0.205,-0.115
207,-0.205,-0.135
208,-0.215,-0.135
209,-0.245,-0.135
210,-0.235,-0.115
211,-0.235,-0.135
212,-0.215,-0.115
213,-0.175,-0.095
214,-0.135,-0.075
215,-0.175,-0.045
216,-0.105,-0.055
217,-0.055,-0.105
218,-0.115,-0.105
219,-0.175,-0.155
220,-0.165,-0.165
221,-0.195,-0.145
222,-0.195,-0.105
223,-0.225,-0.125
224,-0.225,-0.165
225,-0.265,-0.125
226,-0.295,-0.115
227,-0.235,-0.125
228,-0.235,-0.155
229,-0.235,-0.095
230,-0.835,0.225
231,-0.955,0.135
232,0.015,-0.275
233,1.865,-0.425
234,2.865,-0.615
235,2.845,-0.015
236,1.725,-0.445
237,-0.095,-1.095
238,-0.505,-0.515
239,-0.415,-0.095
240,-0.415,-0.065
241,-0.435,-0.105
242,-0.475,-0.095
243,-0.455,-0.095
244,-0.425,-0.115
245,-0.445,-0.115
246,-0.385,-0.115
247,-0.385,-0.095
248,-0.385,-0.115
249,-0.355,-0.115
250,-0.315,-0.115
251,-0.315,-0.115
252,-0.265,-0.125
253,-0.235,-0.165
254,-0.215,-0.155
255,-0.185,-0.155
256,-0.165,-0.185
257,-0.135,-0.195
258,-0.135,-0.215
259,-0.115,-0.235
260,-0.135,-0.235
261,-0.125,-0.245
262,-0.125,-0.235
263,-0.135,-0.205
264,-0.155,-0.175
265,-0.115,-0.125
266,-0.135,-0.105
267,-0.145,-0.065
268,-0.155,-0.065
269,-0.155,-0.075
270,-0.165,-0.065
271,-0.195,-0.025
272,-0.175,-0.045
273,-0.215,-0.055
274,-0.175,-0.045
275,-0.165,-0.055
276,-0.165,-0.045
277,-0.165,-0.045
278,-0.175,-0.035
279,-0.155,-0.035
280,-0.185,-0.015
281,-0.175,-0.035
282,-0.185,-0.035
283,-0.155,-0.065
284,-0.195,-0.035
285,-0.165,-0.035
286,-0.195,-0.055
287,-0.175,-0.035
288,-0.135,-0.045
289,-0.185,-0.065
290,-0.165,-0.015
291,-0.185,-0.045
292,-0.175,-0.065
293,-0.195,-0.055
294,-0.165,-0.035
295,-0.145,-0.035
296,-0.115,-0.025
297,-0.095,0.005
298,-0.155,0.015
299,-0.015,0.015
300,-0.045,-0.045
301,-0.065,-0.065
302,-0.145,-0.055
303,-0.115,-0.065
304,-0.095,-0.085
305,-0.145,-0.045
306,-0.165,-0.055
307,-0.205,-0.075
308,-0.235,-0.065
309,-0.225,-0.065
310,-0.215,-0.065
311,-0.195,-0.075
312,-0.185,-0.065
313,-0.735,0.215
314,-0.945,0.085
315,-0.045,-0.495
316,1.905,-0.435
317,2.835,-0.145
318,2.815,0.585
319,1.575,-0.175
320,-0.105,-0.935
321,-0.415,-0.435
322,-0.425,-0.065
323,-0.395,-0.045
324,-0.405,-0.065
325,-0.435,-0.085
326,-0.395,-0.075
327,-0.385,-0.105
328,-0.375,-0.115
329,-0.355,-0.105
330,-0.345,-0.125
331,-0.345,-0.135
332,-0.335,-0.145
333,-0.295,-0.125
334,-0.255,-0.155
335,-0.225,-0.175
336,-0.215,-0.185
337,-0.205,-0.205
338,-0.135,-0.225
339,-0.165,-0.265
340,-0.145,-0.305
341,-0.145,-0.305
342,-0.125,-0.305
343,-0.165,-0.335
344,-0.125,-0.345
345,-0.115,-0.305
346,-0.145,-0.295
347,-0.105,-0.245
348,-0.115,-0.185
349,-0.095,-0.135
350,-0.095,-0.075
351,-0.145,-0.065
352,-0.165,-0.065
353,-0.125,-0.035
354,-0.135,-0.025
355,-0.165,-0.025
356,-0.185,-0.035
357,-0.165,-0.035
358,-0.125,-0.035
359,-0.135,-0.015
360,-0.155,-0.035
361,-0.145,-0.005
362,-0.145,-0.025
363,-0.155,-0.035
364,-0.125,-0.015
365,-0.165,-0.005
366,-0.135,-0.025
367,-0.175,-0.045
368,-0.175,-0.015
369,-0.155,-0.035
370,-0.145,-0.015
371,-0.165,-0.025
372,-0.155,-0.055
373,-0.185,-0.055
374,-0.155,-0.025
375,-0.165,-0.025
376,-0.165,-0.055
377,-0.185,-0.045
378,-0.145,-0.045
379,-0.075,-0.015
380,-0.135,-0.005
381,-0.105,0.025
382,0.005,0.025
383,-0.005,-0.045
384,-0.105,-0.065
385,-0.095,-0.075
386,-0.105,-0.075
387,-0.115,-0.055
388,-0.165,-0.035
389,-0.175,-0.065
390,-0.195,-0.075
391,-0.225,-0.065
392,-0.225,-0.085
393,-0.195,-0.075
394,-0.185,-0.065
395,-0.205,-0.055
396,-0.655,0.135
397,-0.935,-0.005
398,-0.155,-0.595
399,1.915,-0.475
400,2.805,0.155
401,2.695,0.785
402,1.345,-0.085
403,-0.245,-0.815
404,-0.395,-0.355
405,-0.405,-0.105
406,-0.435,-0.095
407,-0.405,-0.125
408,-0.415,-0.135
409,-0.415,-0.135
410,-0.405,-0.135
411,-0.405,-0.145
412,-0.365,-0.155
413,-0.365,-0.145
414,-0.305,-0.175
415,-0.325,-0.205
416,-0.295,-0.205
417,-0.255,-0.225
418,-0.235,-0.235
419,-0.215,-0.255
420,-0.225,-0.275
421,-0.215,-0.345
422,-0.165,-0.345
423,-0.145,-0.385
424,-0.165,-0.415
425,-0.145,-0.405
426,-0.165,-0.415
427,-0.175,-0.415
428,-0.195,-0.405
429,-0.155,-0.355
430,-0.145,-0.275
431,-0.135,-0.215
432,-0.145,-0.175
433,-0.115,-0.135
434,-0.135,-0.075
435,-0.135,-0.065
436,-0.155,-0.085
437,-0.155,-0.085
438,-0.185,-0.065
439,-0.155,-0.055
440,-0.155,-0.065
441,-0.135,-0.065
442,-0.145,-0.045
443,-0.165,-0.075
444,-0.175,-0.075
445,-0.175,-0.055
446,-0.155,-0.045
447,-0.175,-0.055
448,-0.185,-0.075
449,-0.165,-0.085
450,-0.155,-0.065
451,-0.165,-0.065
452,-0.155,-0.065
453,-0.175,-0.075
454,-0.165,-0.075
455,-0.165,-0.065
456,-0.175,-0.085
457,-0.175,-0.075
458,-0.195,-0.065
459,-0.175,-0.085
460,-0.115,-0.055
461,-0.125,-0.025
462,-0.105,-0.015
463,-0.055,-0.015
464,-0.015,-0.065
465,-0.015,-0.095
466,-0.085,-0.115
467,-0.115,-0.105
468,-0.125,-0.085
469,-0.135,-0.075
470,-0.175,-0.095
471,-0.185,-0.095
472,-0.185,-0.145
473,-0.195,-0.115
474,-0.225,-0.095
475,-0.185,-0.065
476,-0.175,-0.115
477,-0.485,0.065
478,-0.875,0.045
479,-0.335,-0.455
480,1.495,-0.665
481,2.675,-0.025
482,2.695,0.645
483,2.015,0.555
484,0.175,-0.765
485,-0.515,-0.665
486,-0.405,-0.225
487,-0.395,-0.155
488,-0.425,-0.135
489,-0.375,-0.135
490,-0.415,-0.125
491,-0.365,-0.145
492,-0.385,-0.195
493,-0.355,-0.175
494,-0.295,-0.165
495,-0.315,-0.215
496,-0.275,-0.255
497,-0.285,-0.225
498,-0.295,-0.235
499,-0.245,-0.265
500,-0.245,-0.275
501,-0.215,-0.315
502,-0.215,-0.325
503,-0.145,-0.375
504,-0.165,-0.415
505,-0.175,-0.395
506,-0.165,-0.425
507,-0.155,-0.415
508,-0.135,-0.435
509,-0.165,-0.405
510,-0.125,-0.355
511,-0.165,-0.325
512,-0.095,-0.285
513,-0.075,-0.235
514,-0.085,-0.175
515,-0.095,-0.145
516,-0.135,-0.125
517,-0.155,-0.115
518,-0.185,-0.095
519,-0.195,-0.105
520,-0.175,-0.105
521,-0.165,-0.095
522,-0.155,-0.085
523,-0.145,-0.115
524,-0.215,-0.115
525,-0.195,-0.135
526,-0.175,-0.095
527,-0.235,-0.105
528,-0.225,-0.125
529,-0.155,-0.105
530,-0.175,-0.095
531,-0.195,-0.115
532,-0.175,-0.115
533,-0.245,-0.095
534,-0.215,-0.115
535,-0.175,-0.105
536,-0.225,-0.115
537,-0.205,-0.125
538,-0.205,-0.055
539,-0.125,-0.055
540,-0.125,-0.055
541,-0.185,-0.025
542,-0.005,-0.065
543,-0.075,-0.125
544,-0.115,-0.135
545,-0.195,-0.115
546,-0.165,-0.095
547,-0.185,-0.085
548,-0.205,-0.115
549,-0.245,-0.105
550,-0.245,-0.105
551,-0.285,-0.095
552,-0.245,-0.105
553,-0.225,-0.095
554,-0.195,-0.075
555,-0.635,0.085
556,-0.935,0.035
557,-0.265,-0.315
558,1.545,-0.605
559,2.765,-0.315
560,2.715,0.435
561,1.845,0.355
562,0.075,-0.785
563,-0.455,-0.615
564,-0.425,-0.135
565,-0.385,-0.055
566,-0.405,-0.075
567,-0.445,-0.095
568,-0.415,-0.075
569,-0.395,-0.095
570,-0.395,-0.105
571,-0.395,-0.115
572,-0.305,-0.105
573,-0.305,-0.105
574,-0.355,-0.095
575,-0.255,-0.105
576,-0.255,-0.135
577,-0.255,-0.145
578,-0.185,-0.145
579,-0.135,-0.155
580,-0.145,-0.185
581,-0.115,-0.205
582,-0.115,-0.225
583,-0.105,-0.245
584,-0.085,-0.275
585,-0.105,-0.265
586,-0.125,-0.265
587,-0.135,-0.275
588,-0.135,-0.255
589,-0.145,-0.215
590,-0.135,-0.155
591,-0.105,-0.125
592,-0.095,-0.085
593,-0.095,-0.055
594,-0.115,-0.015
595,-0.125,-0.005
596,-0.115,0.005
597,-0.145,0.005
598,-0.145,0.025
599,-0.155,0.015
600,-0.135,0.035
601,-0.115,0.015
602,-0.125,0.015
603,-0.145,0.025
604,-0.135,-0.005
605,-0.155,-0.005
606,-0.115,0.035
607,-0.125,0.015
608,-0.135,-0.005
609,-0.135,0.035
610,-0.145,0.015
611,-0.125,0.005
612,-0.145,0.005
613,-0.145,0.005
614,-0.105,0.035
615,-0.065,0.055
616,-0.085,0.075
617,-0.095,0.085
618,-0.035,0.105
619,0.085,0.045
620,-0.005,0.005
621,-0.075,-0.035
622,-0.075,0.015
623,-0.045,0.025
624,-0.115,0.045
625,-0.115,0.025
626,-0.155,0.015
627,-0.195,0.045
628,-0.205,0.015
629,-0.165,0.015
630,-0.135,0.035
631,-0.145,0.025
632,-0.585,0.265
633,-0.825,0.145
634,-0.155,-0.465
635,1.735,-0.475
636,2.845,0.185
637,2.855,0.965
638,1.595,0.185
639,-0.035,-0.735
640,-0.375,-0.315
641,-0.355,0.025
642,-0.355,0.045
643,-0.365,0.005
644,-0.395,-0.015
645,-0.395,-0.005
646,-0.345,-0.025
647,-0.365,-0.035
648,-0.295,-0.025
649,-0.305,-0.035
650,-0.305,-0.055
651,-0.255,-0.075
652,-0.255,-0.085
653,-0.245,-0.105
654,-0.195,-0.105
655,-0.185,-0.125
656,-0.145,-0.175
657,-0.155,-0.195
658,-0.095,-0.215
659,-0.115,-0.255
660,-0.145,-0.275
661,-0.105,-0.295
662,-0.125,-0.285
663,-0.135,-0.275
664,-0.125,-0.265
665,-0.115,-0.205
666,-0.145,-0.135
667,-0.065,-0.085
668,-0.065,-0.045
669,-0.045,0.025
670,-0.075,0.065
671,-0.115,0.075
672,-0.075,0.065
673,-0.075,0.105
674,-0.085,0.085
675,-0.115,0.085
676,-0.095,0.085
677,-0.055,0.095
678,-0.085,0.155
679,-0.105,0.085
680,-0.095,0.065
681,-0.105,0.075
682,-0.085,0.105
683,-0.095,0.075
684,-0.055,0.085
685,-0.065,0.065
686,-0.105,0.105
687,-0.095,0.095
688,-0.095,0.095
689,-0.035,0.125
690,-0.025,0.145
691,-0.045,0.155
692,0.055,0.145
693,0.095,0.085
694,0.025,0.065
695,0.005,0.045
696,-0.065,0.065
697,-0.045,0.095
698,-0.075,0.125
699,-0.115,0.085
700,-0.095,0.065
701,-0.095,0.085
702,-0.155,0.085
703,-0.145,0.085
704,-0.105,0.085
705,-0.095,0.075
706,-0.505,0.265
707,-0.885,0.155
708,-0.415,-0.325
709,1.435,-0.625
710,2.795,0.275
711,2.835,1.075
712,2.075,0.815
713,0.325,-0.505
714,-0.335,-0.385
715,-0.275,-0.055
716,-0.295,0.025
717,-0.335,0.025
718,-0.345,0.005
719,-0.315,0.005
720,-0.335,-0.005
721,-0.285,-0.025
722,-0.285,-0.025
723,-0.265,-0.035
724,-0.225,-0.045
725,-0.225,-0.065
726,-0.225,-0.095
727,-0.205,-0.115
728,-0.165,-0.135
729,-0.165,-0.145
730,-0.145,-0.165
731,-0.145,-0.225
732,-0.135,-0.265
733,-0.105,-0.265
734,-0.085,-0.295
735,-0.095,-0.315
736,-0.125,-0.315
737,-0.135,-0.295
738,-0.145,-0.265
739,-0.105,-0.215
740,-0.085,-0.175
741,-0.055,-0.095
742,-0.055,-0.035
743,-0.025,0.005
744,-0.035,0.025
745,-0.025,0.045
746,-0.075,0.085
747,-0.075,0.065
748,-0.065,0.065
749,-0.075,0.075
750,-0.065,0.085
751,-0.095,0.055
752,-0.055,0.045
753,-0.065,0.045
754,-0.085,0.065
755,-0.085,0.055
756,-0.105,0.045
757,-0.115,0.055
758,-0.095,0.065
759,-0.105,0.045
760,-0.095,0.045
761,-0.045,0.085
762,-0.025,0.085
763,-0.045,0.105
764,0.055,0.105
765,0.045,0.055
766,-0.005,0.025
767,-0.025,-0.025
768,-0.065,-0.005
769,-0.065,0.045
770,-0.105,0.075
771,-0.125,0.025
772,-0.135,0.005
773,-0.155,0.015
774,-0.145,0.015
775,-0.175,0.005
776,-0.175,-0.005
777,-0.145,0.015
778,-0.845,0.225
779,-0.895,0.065
780,0.155,-0.315
781,2.045,-0.375
782,2.875,0.065
783,2.735,0.755
784,1.735,0.625
785,-0.095,-0.655
786,-0.485,-0.525
787,-0.335,-0.135
788,-0.315,-0.015
789,-0.345,-0.045
790,-0.345,-0.045
791,-0.355,-0.055
792,-0.335,-0.045
793,-0.345,-0.055
794,-0.315,-0.055
795,-0.315,-0.075
796,-0.285,-0.075
797,-0.245,-0.085
798,-0.215,-0.105
799,-0.205,-0.115
800,-0.205,-0.125
801,-0.175,-0.165
802,-0.165,-0.165
803,-0.155,-0.185
804,-0.165,-0.235
805,-0.145,-0.245
806,-0.145,-0.245
807,-0.135,-0.255
808,-0.145,-0.265
809,-0.165,-0.255
810,-0.165,-0.235
811,-0.145,-0.215
812,-0.105,-0.175
813,-0.105,-0.105
814,-0.045,-0.055
815,-0.065,-0.025
816,-0.085,-0.025
817,-0.095,-0.005
818,-0.115,0.015
819,-0.145,0.005
820,-0.125,-0.005
821,-0.125,-0.005
822,-0.135,0.025
823,-0.125,-0.015
824,-0.135,-0.015
825,-0.125,-0.015
826,-0.125,-0.015
827,-0.165,-0.025
828,-0.145,-0.035
829,-0.155,-0.015
830,-0.135,0.015
831,-0.125,-0.005
832,-0.095,0.025
833,-0.095,0.035
834,-0.055,0.055
835,0.065,0.025
836,-0.025,-0.035
837,-0.045,-0.055
838,-0.075,-0.035
839,-0.135,-0.045
840,-0.125,-0.055
841,-0.145,-0.005
842,-0.145,0.005
843,-0.185,-0.045
844,-0.215,-0.065
845,-0.215,-0.045
846,-0.185,-0.015
847,-0.165,-0.015
848,-0.255,0.025
849,-0.995,0.285
850,-0.885,0.135
851,0.505,-0.195
852,2.315,-0.165
853,2.995,-0.235
854,2.925,0.325
855,1.355,0.025
856,-0.395,-0.835
857,-0.505,-0.395
858,-0.385,-0.055
859,-0.385,0.035
860,-0.375,-0.005
861,-0.395,-0.005
862,-0.375,-0.015
863,-0.345,-0.035
864,-0.345,-0.045
865,-0.315,-0.025
866,-0.305,-0.015
867,-0.315,-0.045
868,-0.295,-0.055
869,-0.255,-0.075
870,-0.235,-0.055
871,-0.235,-0.075
872,-0.175,-0.075
873,-0.155,-0.115
874,-0.165,-0.105
875,-0.145,-0.135
876,-0.175,-0.145
877,-0.125,-0.125
878,-0.145,-0.105
879,-0.155,-0.105
880,-0.175,-0.125
881,-0.135,-0.095
882,-0.135,-0.035
883,-0.105,-0.035
884,-0.105,-0.015
885,-0.105,0.005
886,-0.085,0.035
887,-0.105,0.045
888,-0.115,0.045
889,-0.135,0.025
890,-0.115,0.055
891,-0.175,0.035
892,-0.155,0.015
893,-0.095,0.065
894,-0.155,0.055
895,-0.145,0.055
896,-0.145,0.025
897,-0.135,0.035
898,-0.135,0.035
899,-0.115,0.025
900,-0.115,0.055
901,-0.095,0.105
902,-0.035,0.105
903,-0.015,0.135
904,0.035,0.055
905,-0.015,0.015
906,-0.045,0.015
907,-0.095,0.005
908,-0.095,0.005
909,-0.115,0.035
910,-0.155,0.045
911,-0.155,0.005
912,-0.175,0.025
913,-0.235,0.015
914,-0.215,0.015
915,-0.165,0.015
916,-0.135,0.035
917,-0.645,0.185
918,-1.305,0.315
919,-0.535,0.125
920,1.425,-0.015
921,2.925,-0.235
922,3.075,-0.245
923,2.745,0.215
924,0.425,-0.665
925,-0.565,-0.605
926,-0.405,-0.105
927,-0.395,0.085
928,-0.415,0.025
929,-0.415,0.045
930,-0.405,0.055
931,-0.385,0.035
932,-0.375,0.045
933,-0.385,0.015
934,-0.345,0.025
935,-0.335,0.055
936,-0.305,0.005
937,-0.235,0.035
938,-0.225,0.055
939,-0.235,0.025
940,-0.225,0.025
941,-0.145,-0.005
942,-0.115,0.045
943,-0.155,-0.005
944,-0.105,-0.025
945,-0.105,0.025
946,-0.125,-0.055
947,-0.175,-0.095
948,-0.175,-0.085
949,-0.215,-0.035
950,-0.185,-0.045
951,-0.165,-0.085
952,-0.125,-0.025
953,-0.175,0.005
954,-0.105,-0.015
955,-0.175,0.005
956,-0.125,0.025
957,-0.095,0.085
958,-0.105,0.025
959,-0.155,0.035
960,-0.145,-0.005
961,-0.165,0.035
962,-0.155,0.035
963,-0.185,0.015
964,-0.125,0.015
965,-0.135,0.025
966,-0.135,0.035
967,-0.165,0.005
968,-0.135,0.015
969,-0.055,0.035
970,-0.085,0.055
971,-0.075,0.075
972,0.055,0.055
973,0.055,-0.015
974,-0.055,-0.015
975,-0.055,-0.045
976,-0.035,-0.065
977,-0.045,-0.005
978,-0.115,0.025
979,-0.125,-0.055
980,-0.115,-0.075
981,-0.125,-0.025
982,-0.185,-0.005
983,-0.135,-0.055
984,-0.105,-0.055
985,-0.225,0.045
986,-1.085,0.365
987,-1.045,0.265
988,0.235,-0.095
989,2.435,-0.285
990,3.175,-0.545
991,3.165,0.065
992,1.785,-0.555
993,-0.095,-0.955
994,-0.395,-0.285
995,-0.325,0.015
996,-0.405,0.015
997,-0.445,0.005
998,-0.365,0.045
999,-0.375,-0.015
1000,-0.385,-0.005
1001,-0.375,-0.025
1002,-0.325,-0.015
1003,-0.335,-0.025
1004,-0.335,-0.025
1005,-0.285,0.005
1006,-0.245,0.035
1007,-0.215,-0.025
1008,-0.235,-0.065
1009,-0.185,-0.005
1010,-0.185,-0.065
1011,-0.065,-0.035
1012,-0.205,-0.035
1013,-0.085,-0.135
1014,-0.085,-0.065
1015,-0.145,-0.095
1016,-0.225,-0.175
1017,-0.155,-0.165
1018,-0.215,-0.095
1019,-0.215,-0.195
1020,-0.165,-0.095
1021,-0.165,-0.065
1022,-0.085,-0.105
1023,-0.095,-0.015
1024,-0.165,-0.065
1025,-0.075,-0.045
1026,-0.145,-0.025
1027,-0.135,-0.045
1028,-0.115,-0.085
1029,-0.125,-0.065
1030,-0.095,-0.025
1031,-0.125,-0.015
1032,-0.175,-0.055
1033,-0.075,-0.125
1034,-0.165,-0.005
1035,-0.095,-0.025
1036,-0.065,-0.025
1037,-0.045,-0.035
1038,-0.085,0.015
1039,-0.005,0.035
1040,0.035,-0.095
1041,-0.045,-0.115
1042,-0.005,-0.105
1043,-0.065,-0.045
1044,-0.155,-0.105
1045,-0.105,-0.185
1046,-0.105,-0.045
1047,-0.125,-0.055
1048,-0.225,-0.065
1049,-0.185,-0.075
1050,-0.205,-0.085
1051,-0.175,-0.085
1052,-0.135,-0.065
1053,-0.585,0.065
1054,-1.205,0.225
1055,-0.875,-0.105
1056,1.005,-0.455
1057,2.775,-0.375
1058,3.215,0.045
1059,2.925,0.335
1060,1.025,-0.785
1061,-0.325,-0.755
1062,-0.425,-0.195
1063,-0.365,-0.065
1064,-0.465,-0.075
1065,-0.465,-0.135
1066,-0.455,-0.105
1067,-0.415,-0.165
1068,-0.445,-0.105
1069,-0.425,-0.125
1070,-0.355,-0.155
1071,-0.295,-0.125
1072,-0.325,-0.135
1073,-0.325,-0.165
1074,-0.275,-0.155
1075,-0.265,-0.145
1076,-0.285,-0.165
1077,-0.255,-0.235
1078,-0.185,-0.175
1079,-0.245,-0.195
1080,-0.235,-0.245
1081,-0.155,-0.225
1082,-0.215,-0.265
1083,-0.185,-0.295
1084,-0.265,-0.245
1085,-0.235,-0.245
1086,-0.265,-0.295
1087,-0.225,-0.225
1088,-0.155,-0.175
1089,-0.175,-0.155
1090,-0.085,-0.145
1091,-0.125,-0.105
1092,-0.155,-0.145
1093,-0.175,-0.105
1094,-0.125,-0.155
1095,-0.135,-0.045
1096,-0.165,-0.085
1097,-0.095,-0.165
1098,-0.155,-0.105
1099,-0.105,-0.115
1100,-0.125,-0.085
1101,-0.185,-0.095
1102,-0.095,-0.085
1103,-0.145,-0.075
1104,-0.115,-0.075
1105,-0.025,-0.055
1106,-0.155,-0.025
1107,-0.015,-0.085
1108,-0.005,-0.015
1109,-0.015,-0.155
1110,-0.005,-0.095
1111,-0.005,-0.145
1112,-0.195,-0.105
1113,-0.085,-0.195
1114,-0.105,-0.055
1115,-0.135,-0.145
1116,-0.145,0.005
1117,-0.195,-0.135
1118,-0.145,-0.075
1119,-0.235,-0.105
1120,-0.215,-0.105
1121,-0.145,-0.075
1122,-0.665,0.135
1123,-1.245,0.155
1124,-0.685,-0.305
1125,1.535,-0.465
1126,2.955,-0.075
1127,3.125,0.575
1128,2.705,0.395
1129,0.575,-0.785
1130,-0.375,-0.605
1131,-0.365,-0.165
1132,-0.425,-0.105
1133,-0.425,-0.145
1134,-0.445,-0.105
1135,-0.445,-0.135
1136,-0.425,-0.165
1137,-0.385,-0.165
1138,-0.375,-0.135
1139,-0.375,-0.155
1140,-0.305,-0.195
1141,-0.345,-0.165
1142,-0.295,-0.205
1143,-0.275,-0.175
1144,-0.245,-0.225
1145,-0.225,-0.215
1146,-0.245,-0.225
1147,-0.235,-0.265
1148,-0.215,-0.295
1149,-0.225,-0.315
1150,-0.205,-0.305
1151,-0.245,-0.325
1152,-0.225,-0.345
1153,-0.265,-0.375
1154,-0.265,-0.345
1155,-0.265,-0.305
1156,-0.235,-0.285
1157,-0.215,-0.235
1158,-0.155,-0.165
1159,-0.115,-0.135
1160,-0.105,-0.115
1161,-0.135,-0.105
1162,-0.155,-0.105
1163,-0.135,-0.055
1164,-0.115,-0.085
1165,-0.135,-0.105
1166,-0.135,-0.065
1167,-0.125,-0.075
1168,-0.125,-0.065
1169,-0.115,-0.075
1170,-0.105,-0.045
1171,-0.125,-0.065
1172,-0.125,-0.075
1173,-0.095,-0.065
1174,-0.085,-0.035
1175,-0.045,-0.055
1176,-0.065,-0.015
1177,-0.015,0.015
1178,0.085,-0.065
1179,0.075,-0.105
1180,-0.025,-0.105
1181,-0.045,-0.095
1182,-0.045,-0.075
1183,-0.075,-0.085
1184,-0.115,-0.035
1185,-0.135,-0.085
1186,-0.155,-0.075
1187,-0.165,-0.085
1188,-0.185,-0.065
1189,-0.165,-0.045
1190,-0.115,-0.095
1191,-0.355,0.025
1192,-1.105,0.185
1193,-0.915,-0.135
1194,0.675,-0.625
1195,2.565,-0.185
1196,3.025,0.325
1197,2.885,0.805
1198,1.185,-0.255
1199,-0.335,-0.795
1200,-0.415,-0.305
1201,-0.395,-0.095
1202,-0.415,-0.065
1203,-0.395,-0.105
1204,-0.435,-0.115
1205,-0.415,-0.115
1206,-0.405,-0.105
1207,-0.395,-0.125
1208,-0.375,-0.145
1209,-0.355,-0.125
1210,-0.345,-0.135
1211,-0.315,-0.165
1212,-0.305,-0.165
1213,-0.275,-0.185
1214,-0.255,-0.165
1215,-0.265,-0.215
1216,-0.275,-0.245
1217,-0.255,-0.255
1218,-0.225,-0.285
1219,-0.225,-0.315
1220,-0.235,-0.335
1221,-0.275,-0.335
1222,-0.295,-0.365
1223,-0.315,-0.345
1224,-0.335,-0.325
1225,-0.305,-0.275
1226,-0.235,-0.225
1227,-0.215,-0.175
1228,-0.185,-0.135
1229,-0.195,-0.085
1230,-0.255,-0.055
1231,-0.235,-0.075
1232,-0.155,-0.065
1233,-0.135,-0.055
1234,-0.165,-0.045
1235,-0.155,-0.055
1236,-0.185,-0.055
1237,-0.165,-0.045
1238,-0.205,0.015
1239,-0.235,0.015
1240,-0.185,0.035
1241,-0.205,-0.045
1242,-0.215,0.055
1243,-0.095,-0.035
1244,-0.035,-0.145
1245,-0.025,-0.055
1246,0.005,-0.035
1247,-0.005,-0.095
1248,-0.045,-0.105
1249,-0.075,-0.075
1250,-0.125,-0.055
1251,-0.115,-0.055
1252,-0.155,-0.025
1253,-0.175,-0.045
1254,-0.235,-0.025
1255,-0.265,0.015
1256,-0.275,-0.005
1257,-0.205,0.005
1258,-0.135,-0.115
1259,-0.195,-0.085
1260,-0.885,0.125
1261,-1.105,-0.065
1262,-0.145,-0.645
1263,1.965,-0.375
1264,2.915,0.335
1265,2.885,0.985
1266,1.925,0.345
1267,0.075,-0.765
1268,-0.455,-0.455
1269,-0.435,-0.145
1270,-0.445,-0.095
1271,-0.455,-0.105
1272,-0.455,-0.115
1273,-0.455,-0.135
1274,-0.445,-0.135
1275,-0.415,-0.155
1276,-0.385,-0.165
1277,-0.385,-0.155
1278,-0.355,-0.165
1279,-0.355,-0.185
1280,-0.325,-0.195
1281,-0.295,-0.205
1282,-0.265,-0.215
1283,-0.235,-0.245
1284,-0.205,-0.265
1285,-0.185,-0.295
1286,-0.205,-0.315
1287,-0.165,-0.355
1288,-0.195,-0.375
1289,-0.215,-0.385
1290,-0.235,-0.385
1291,-0.255,-0.365
1292,-0.245,-0.315
1293,-0.215,-0.255
1294,-0.175,-0.195
1295,-0.145,-0.155
1296,-0.125,-0.115
1297,-0.115,-0.085
1298,-0.115,-0.055
1299,-0.145,-0.035
1300,-0.155,-0.035
1301,-0.135,-0.045
1302,-0.145,-0.025
1303,-0.165,-0.025
1304,-0.165,-0.025
1305,-0.165,-0.025
1306,-0.155,-0.015
1307,-0.165,-0.015
1308,-0.175,-0.015
1309,-0.155,-0.025
1310,-0.115,-0.005
1311,-0.085,0.015
1312,-0.125,0.025
1313,-0.055,0.045
1314,0.025,0.005
1315,-0.005,-0.015
1316,-0.075,-0.085
1317,-0.105,-0.055
1318,-0.095,-0.025
1319,-0.135,-0.025
1320,-0.155,-0.035
1321,-0.175,-0.025
1322,-0.235,-0.015
1323,-0.215,-0.045
1324,-0.205,-0.055
1325,-0.195,-0.015
1326,-0.175,-0.005
1327,-0.535,0.105
1328,-1.195,0.125
1329,-0.675,-0.195
1330,1.045,-0.625
1331,2.645,-0.165
1332,2.715,0.405
1333,2.565,0.905
1334,0.615,-0.115
1335,-0.555,-0.715
1336,-0.455,-0.335
1337,-0.385,-0.085
1338,-0.415,-0.045
1339,-0.405,-0.075
1340,-0.415,-0.095
1341,-0.395,-0.095
1342,-0.385,-0.095
1343,-0.355,-0.105
1344,-0.345,-0.125
1345,-0.325,-0.125
1346,-0.285,-0.115
1347,-0.265,-0.135
1348,-0.245,-0.145
1349,-0.245,-0.175
1350,-0.195,-0.185
1351,-0.195,-0.215
1352,-0.195,-0.255
1353,-0.195,-0.285
1354,-0.185,-0.295
1355,-0.195,-0.325
1356,-0.205,-0.335
1357,-0.215,-0.335
1358,-0.235,-0.305
1359,-0.245,-0.285
1360,-0.235,-0.245
1361,-0.205,-0.205
1362,-0.165,-0.145
1363,-0.125,-0.105
1364,-0.135,-0.075
1365,-0.145,-0.045
1366,-0.145,-0.025
1367,-0.155,-0.025
1368,-0.155,-0.015
1369,-0.155,-0.015
1370,-0.155,-0.005
1371,-0.155,-0.025
1372,-0.165,-0.035
1373,-0.155,-0.025
1374,-0.175,-0.005
1375,-0.155,-0.015
1376,-0.135,-0.035
1377,-0.145,-0.025
1378,-0.105,0.005
1379,-0.085,0.025
1380,-0.105,0.015
1381,-0.085,0.025
1382,0.015,0.015
1383,0.005,-0.025
1384,-0.075,-0.045
1385,-0.085,-0.055
1386,-0.105,-0.045
1387,-0.105,-0.025
1388,-0.165,-0.015
1389,-0.155,-0.025
1390,-0.185,-0.025
1391,-0.215,-0.035
1392,-0.225,-0.045
1393,-0.195,-0.025
1394,-0.175,-0.005
1395,-0.435,0.105
1396,-1.155,0.235
1397,-0.655,-0.045
1398,1.035,-0.445
1399,2.685,-0.265
1400,2.905,0.115
1401,2.615,0.555
1402,0.495,-0.475
1403,-0.505,-0.695
1404,-0.405,-0.195
1405,-0.375,-0.005
1406,-0.385,-0.015
1407,-0.385,-0.035
1408,-0.395,-0.045
1409,-0.385,-0.045
1410,-0.345,-0.025
1411,-0.325,-0.035
1412,-0.325,-0.065
1413,-0.315,-0.055
1414,-0.255,-0.045
1415,-0.235,-0.065
1416,-0.215,-0.075
1417,-0.215,-0.085
1418,-0.175,-0.085
1419,-0.175,-0.135
1420,-0.135,-0.155
1421,-0.155,-0.175
1422,-0.155,-0.185
1423,-0.165,-0.205
1424,-0.125,-0.235
1425,-0.185,-0.255
1426,-0.185,-0.235
1427,-0.225,-0.225
1428,-0.195,-0.205
1429,-0.135,-0.125
1430,-0.135,-0.085
1431,-0.105,-0.065
1432,-0.125,-0.045
1433,-0.125,-0.015
1434,-0.115,0.015
1435,-0.105,0.035
1436,-0.085,0.005
1437,-0.165,0.005
1438,-0.135,0.005
1439,-0.125,-0.015
1440,-0.165,0.005
1441,-0.095,0.005
1442,-0.055,-0.005
1443,-0.105,0.025
1444,-0.135,0.035
1445,-0.175,0.005
1446,-0.135,0.025
1447,-0.105,0.015
1448,-0.065,0.025
1449,-0.045,0.065
1450,-0.085,0.085
1451,-0.025,0.075
1452,0.035,0.015
1453,0.015,0.005
1454,-0.075,-0.015
1455,-0.085,-0.015
1456,-0.115,-0.025
1457,-0.105,-0.005
1458,-0.145,0.015
1459,-0.165,0.005
1460,-0.185,-0.025
1461,-0.245,0.015
1462,-0.155,0.015
1463,-0.275,-0.025
1464,-0.175,0.095
1465,-0.325,0.125
1466,-1.065,0.285
1467,-0.855,-0.035
1468,0.485,-0.505
1469,2.465,-0.195
1470,3.005,0.135
1471,2.895,0.715
1472,1.455,-0.035
1473,-0.255,-0.725
1474,-0.525,-0.305
1475,-0.425,0.005
1476,-0.485,-0.025
1477,-0.435,-0.025
1478,-0.405,-0.035
1479,-0.435,-0.075
1480,-0.465,-0.045
1481,-0.345,-0.015
1482,-0.425,-0.065
1483,-0.225,-0.085
1484,-0.385,-0.065
1485,-0.375,0.025
1486,-0.245,0.035
1487,-0.205,-0.125
1488,-0.195,-0.165
1489,-0.165,-0.125
1490,-0.155,-0.135
1491,-0.115,-0.185
1492,-0.135,-0.175
1493,-0.135,-0.235
1494,-0.075,-0.265
1495,-0.135,-0.265
1496,-0.225,-0.245
1497,-0.195,-0.225
1498,-0.185,-0.155
1499,-0.175,-0.165
1500,-0.155,-0.145
1501,-0.105,-0.115
1502,-0.125,0.025
1503,-0.085,0.005
1504,-0.125,-0.025
1505,-0.115,0.035
1506,-0.115,0.035
1507,-0.115,-0.025
1508,-0.145,-0.035
1509,-0.145,0.015
1510,-0.135,0.035
1511,-0.115,0.035
1512,-0.155,-0.005
1513,-0.135,0.035
1514,-0.125,0.075
1515,-0.125,0.035
1516,-0.155,0.025
1517,-0.125,0.045
1518,-0.115,0.055
1519,-0.155,0.065
1520,-0.105,0.015
1521,-0.055,0.045
1522,-0.065,0.075
1523,-0.095,0.085
1524,0.005,0.065
1525,0.035,-0.025
1526,-0.045,0.045
1527,-0.085,-0.015
1528,-0.145,0.005
1529,-0.075,0.005
1530,-0.155,0.065
1531,-0.195,0.035
1532,-0.235,-0.025
1533,-0.205,-0.005
1534,-0.235,-0.005
1535,-0.175,-0.005
1536,-0.205,0.015
1537,-0.175,0.005
1538,-0.675,0.225
1539,-1.005,0.065
1540,-0.325,-0.485
1541,1.745,-0.515
1542,2.855,0.175
1543,2.845,0.895
1544,2.005,0.515
1545,0.155,-0.655
1546,-0.425,-0.505
1547,-0.375,-0.075
1548,-0.385,-0.025
1549,-0.395,-0.035
1550,-0.375,-0.035
1551,-0.405,-0.045
1552,-0.365,-0.035
1553,-0.355,-0.085
1554,-0.355,-0.095
1555,-0.295,-0.085
1556,-0.305,-0.085
1557,-0.285,-0.115
1558,-0.235,-0.095
1559,-0.245,-0.115
1560,-0.195,-0.135
1561,-0.205,-0.165
1562,-0.185,-0.185
1563,-0.175,-0.205
1564,-0.175,-0.255
1565,-0.205,-0.265
1566,-0.135,-0.285
1567,-0.155,-0.305
1568,-0.175,-0.335
1569,-0.205,-0.325
1570,-0.195,-0.275
1571,-0.175,-0.235
1572,-0.175,-0.215
1573,-0.145,-0.125
1574,-0.105,-0.075
1575,-0.095,-0.045
1576,-0.135,0.015
1577,-0.115,0.005
1578,-0.135,0.025
1579,-0.135,0.025
1580,-0.165,0.025
1581,-0.135,0.045
1582,-0.115,0.025
1583,-0.115,0.035
1584,-0.115,0.035
1585,-0.155,0.015
1586,-0.115,0.045
1587,-0.115,0.055
1588,-0.115,0.035
1589,-0.105,0.045
1590,-0.105,0.035
1591,-0.125,0.035
1592,-0.085,0.055
1593,-0.105,0.045
1594,-0.105,0.055
1595,-0.085,0.055
1596,-0.055,0.075
1597,-0.055,0.095
1598,-0.035,0.115
1599,0.075,0.065
1600,0.035,0.015
1601,-0.035,-0.005
1602,-0.045,0.015
1603,-0.025,0.025
1604,-0.065,0.045
1605,-0.135,0.045
1606,-0.125,0.035
1607,-0.145,0.005
1608,-0.185,0.015
1609,-0.165,0.015
1610,-0.135,0.035
1611,-0.155,0.005
1612,-0.475,0.145
1613,-0.925,0.115
1614,-0.475,-0.345
1615,1.455,-0.685
1616,2.785,0.075
1617,2.815,0.875
1618,2.015,0.775
1619,0.155,-0.555
1620,-0.425,-0.495
1621,-0.375,-0.105
1622,-0.345,-0.025
1623,-0.395,-0.025
1624,-0.385,-0.055
1625,-0.395,-0.095
1626,-0.355,-0.055
1627,-0.345,-0.085
1628,-0.315,-0.095
1629,-0.285,-0.075
1630,-0.275,-0.095
1631,-0.255,-0.115
1632,-0.235,-0.135
1633,-0.205,-0.145
1634,-0.145,-0.145
1635,-0.155,-0.175
1636,-0.155,-0.225
1637,-0.155,-0.255
1638,-0.145,-0.265
1639,-0.135,-0.315
1640,-0.155,-0.325
1641,-0.135,-0.345
1642,-0.155,-0.365
1643,-0.175,-0.355
1644,-0.175,-0.325
1645,-0.165,-0.275
1646,-0.145,-0.215
1647,-0.095,-0.155
1648,-0.105,-0.105
1649,-0.085,-0.055
1650,-0.075,-0.035
1651,-0.105,-0.005
1652,-0.115,-0.005
1653,-0.105,0.005
1654,-0.085,0.015
1655,-0.115,0.005
1656,-0.105,0.005
1657,-0.115,0.005
1658,-0.085,0.025
1659,-0.095,0.025
1660,-0.125,0.005
1661,-0.105,0.015
1662,-0.085,0.015
1663,-0.095,0.005
1664,-0.115,-0.015
1665,-0.095,0.015
1666,-0.085,0.025
1667,-0.085,0.005
1668,-0.145,0.035
1669,-0.105,0.005
1670,-0.125,0.005
1671,-0.115,0.005
1672,-0.105,0.005
1673,-0.065,0.045
1674,-0.095,0.085
1675,-0.015,0.055
1676,0.065,0.025
1677,0.055,-0.025
1678,-0.025,-0.015
1679,-0.085,-0.045
1680,-0.035,-0.045
1681,-0.055,-0.005
1682,-0.105,-0.005
1683,-0.135,-0.025
1684,-0.155,-0.045
1685,-0.165,-0.035
1686,-0.155,-0.025
1687,-0.155,-0.035
1688,-0.145,-0.045
1689,-0.315,0.065
1690,-0.845,0.195
1691,-0.505,-0.125
1692,1.195,-0.685
1693,2.645,-0.185
1694,2.775,0.405
1695,2.185,0.705
1696,0.215,-0.565
1697,-0.495,-0.645
1698,-0.345,-0.195
1699,-0.335,-0.085
1700,-0.365,-0.065
1701,-0.345,-0.055
1702,-0.355,-0.055
1703,-0.345,-0.095
1704,-0.325,-0.135
1705,-0.305,-0.115
1706,-0.305,-0.095
1707,-0.255,-0.125
1708,-0.255,-0.135
1709,-0.205,-0.155
1710,-0.205,-0.155
1711,-0.175,-0.195
1712,-0.205,-0.235
1713,-0.185,-0.235
1714,-0.195,-0.265
1715,-0.075,-0.345
1716,-0.105,-0.335
1717,-0.155,-0.315
1718,-0.165,-0.325
1719,-0.125,-0.325
1720,-0.115,-0.305
1721,-0.115,-0.285
1722,-0.095,-0.265
1723,-0.065,-0.195
1724,-0.065,-0.165
1725,0.005,-0.135
1726,0.025,-0.095
1727,-0.115,-0.045
1728,-0.085,-0.045
1729,-0.075,-0.005
1730,-0.115,-0.015
1731,-0.095,-0.045
1732,-0.135,-0.025
1733,-0.085,-0.035
1734,-0.025,-0.035
1735,-0.115,-0.035
1736,-0.075,-0.065
1737,-0.065,-0.075
1738,-0.035,-0.025
1739,-0.135,0.015
1740,-0.075,-0.015
1741,-0.105,0.015
1742,-0.085,-0.015
1743,-0.105,-0.035
1744,-0.045,-0.055
1745,-0.085,-0.065
1746,-0.095,-0.025
1747,-0.015,-0.065
1748,-0.005,-0.025
1749,-0.055,0.035
1750,-0.055,0.095
1751,-0.025,0.085
1752,0.065,0.045
1753,0.045,-0.015
1754,0.025,-0.035
1755,-0.005,-0.055
1756,-0.015,-0.045
1757,-0.065,-0.035
1758,0.055,-0.045
1759,-0.105,-0.095
1760,-0.225,0.015
1761,-0.065,-0.035
1762,-0.115,-0.035
1763,-0.115,0.005
1764,-0.105,0.015
1765,-0.375,0.105
1766,-0.795,0.275
1767,-0.205,-0.025
1768,1.615,-0.315
1769,2.875,-0.345
1770,2.995,-0.015
1771,2.505,0.225
1772,0.485,-0.705
1773,-0.445,-0.775
1774,-0.265,-0.205
1775,-0.295,0.015
1776,-0.315,0.025
1777,-0.305,0.005
1778,-0.255,-0.005
1779,-0.275,-0.035
1780,-0.265,0.015
1781,-0.295,0.015
1782,-0.275,-0.005
1783,-0.155,-0.025
1784,-0.235,-0.025
1785,-0.175,-0.035
1786,-0.155,-0.065
1787,-0.125,-0.055
1788,-0.135,-0.095
1789,-0.135,-0.085
1790,-0.045,-0.135
1791,-0.105,-0.145
1792,-0.085,-0.145
1793,-0.065,-0.155
1794,-0.065,-0.155
1795,-0.025,-0.185
1796,-0.065,-0.175
1797,-0.095,-0.115
1798,-0.075,-0.115
1799,-0.075,-0.085
1800,-0.035,-0.075
1801,0.025,-0.055
1802,0.025,-0.015
1803,0.005,-0.005
1804,-0.025,-0.005
1805,0.005,-0.015
1806,-0.055,0.005
1807,-0.055,0.025
1808,-0.045,0.005
1809,-0.055,0.005
1810,-0.065,-0.005
1811,-0.015,-0.015
1812,-0.075,-0.015
1813,-0.085,-0.015
1814,0.015,-0.015
1815,-0.095,-0.035
1816,-0.085,-0.025
1817,-0.005,-0.075
1818,-0.085,-0.085
1819,-0.095,0.015
1820,-0.075,-0.045
1821,-0.125,-0.075
1822,-0.065,-0.065
1823,-0.075,-0.045
1824,-0.035,-0.065
1825,-0.065,-0.015
1826,-0.045,-0.015
1827,0.045,-0.065
1828,0.105,-0.105
1829,-0.035,-0.075
1830,-0.095,-0.115
1831,-0.105,-0.125
1832,-0.075,-0.145
1833,-0.115,-0.115
1834,-0.105,-0.105
1835,-0.215,-0.145
1836,-0.155,-0.185
1837,-0.175,-0.205
1838,-0.105,-0.175
1839,-0.225,-0.135
1840,-0.255,-0.085
1841,-0.755,0.175
1842,-0.855,0.125
1843,0.265,-0.205
1844,2.125,-0.355
1845,2.925,-0.645
1846,2.985,-0.225
1847,1.805,-0.415
1848,-0.245,-1.185
1849,-0.515,-0.695
1850,-0.415,-0.175
1851,-0.425,-0.105
1852,-0.445,-0.115
1853,-0.475,-0.135
1854,-0.405,-0.155
1855,-0.395,-0.155
1856,-0.405,-0.155
1857,-0.425,-0.155
1858,-0.395,-0.145
1859,-0.335,-0.165
1860,-0.315,-0.195
1861,-0.315,-0.185
1862,-0.285,-0.185
1863,-0.275,-0.205
1864,-0.285,-0.215
1865,-0.275,-0.205
1866,-0.215,-0.225
1867,-0.235,-0.245
1868,-0.215,-0.265
1869,-0.185,-0.265
1870,-0.175,-0.255
1871,-0.215,-0.255
1872,-0.215,-0.235
1873,-0.185,-0.205
1874,-0.195,-0.205
1875,-0.145,-0.175
1876,-0.165,-0.155
1877,-0.155,-0.165
1878,-0.165,-0.135
1879,-0.175,-0.135
1880,-0.155,-0.125
1881,-0.185,-0.135
1882,-0.215,-0.115
1883,-0.145,-0.115
1884,-0.215,-0.115
1885,-0.245,-0.095
1886,-0.225,-0.105
1887,-0.205,-0.105
1888,-0.185,-0.135
1889,-0.205,-0.105
1890,-0.165,-0.105
1891,-0.195,-0.115
1892,-0.195,-0.115
1893,-0.185,-0.095
1894,-0.165,-0.125
1895,-0.195,-0.095
1896,-0.215,-0.125
1897,-0.225,-0.135
1898,-0.205,-0.085
1899,-0.185,-0.105
1900,-0.175,-0.085
1901,-0.195,-0.055
1902,-0.115,-0.055
1903,-0.075,-0.055
1904,-0.075,-0.055
1905,-0.165,-0.085
1906,-0.145,-0.135
1907,-0.195,-0.145
1908,-0.225,-0.135
1909,-0.195,-0.105
1910,-0.215,-0.115
1911,-0.225,-0.145
1912,-0.255,-0.135
1913,-0.285,-0.135
1914,-0.265,-0.105
1915,-0.235,-0.105
1916,-0.255,-0.065
1917,-0.845,0.225
1918,-0.785,0.205
1919,0.635,-0.145
1920,2.475,-0.325
1921,3.035,-0.705
1922,2.835,-0.225
1923,0.755,-0.945
1924,-0.555,-0.945
1925,-0.475,-0.235
1926,-0.395,-0.005
1927,-0.425,-0.025
1928,-0.435,-0.055
1929,-0.435,-0.075
1930,-0.405,-0.045
1931,-0.405,-0.045
1932,-0.405,-0.085
1933,-0.365,-0.075
1934,-0.355,-0.065
1935,-0.315,-0.055
1936,-0.275,-0.085
1937,-0.295,-0.075
1938,-0.255,-0.085
1939,-0.245,-0.085
1940,-0.225,-0.115
1941,-0.185,-0.105
1942,-0.175,-0.135
1943,-0.175,-0.125
1944,-0.175,-0.125
1945,-0.125,-0.145
1946,-0.165,-0.135
1947,-0.215,-0.135
1948,-0.205,-0.105
1949,-0.155,-0.105
1950,-0.135,-0.085
1951,-0.125,-0.075
1952,-0.155,-0.065
1953,-0.125,-0.055
1954,-0.095,-0.065
1955,-0.175,-0.055
1956,-0.165,-0.075
1957,-0.185,-0.065
1958,-0.175,-0.045
1959,-0.165,-0.045
1960,-0.145,-0.075
1961,-0.155,-0.055
1962,-0.185,-0.055
1963,-0.165,-0.065
1964,-0.185,-0.055
1965,-0.175,-0.055
1966,-0.155,-0.065
1967,-0.175,-0.075
1968,-0.185,-0.075
1969,-0.165,-0.075
1970,-0.165,-0.055
1971,-0.195,-0.095
1972,-0.175,-0.085
1973,-0.145,-0.075
1974,-0.095,-0.025
1975,-0.095,-0.025
1976,-0.125,-0.015
1977,-0.045,-0.005
1978,-0.035,-0.055
1979,-0.115,-0.085
1980,-0.105,-0.135
1981,-0.135,-0.125
1982,-0.165,-0.105
1983,-0.155,-0.085
1984,-0.205,-0.105
1985,-0.205,-0.125
1986,-0.225,-0.105
1987,-0.265,-0.115
1988,-0.225,-0.105
1989,-0.195,-0.105
1990,-0.185,-0.095
1991,-0.715,0.155
1992,-0.945,0.255
1993,-0.235,-0.015
1994,1.785,-0.245
1995,2.945,-0.695
1996,3.015,-0.295
1997,1.645,-0.515
1998,-0.215,-1.115
1999,-0.455,-0.465
2000,-0.395,-0.055
2001,-0.415,-0.015
2002,-0.435,-0.035
2003,-0.415,-0.035
2004,-0.435,-0.065
2005,-0.445,-0.065
2006,-0.375,-0.055
2007,-0.385,-0.055
2008,-0.395,-0.075
2009,-0.325,-0.065
2010,-0.295,-0.065
2011,-0.315,-0.085
2012,-0.255,-0.075
2013,-0.245,-0.065
2014,-0.255,-0.085
2015,-0.205,-0.095
2016,-0.195,-0.105
2017,-0.175,-0.135
2018,-0.165,-0.115
2019,-0.155,-0.155
2020,-0.255,-0.185
2021,-0.155,-0.165
2022,-0.185,-0.155
2023,-0.205,-0.155
2024,-0.215,-0.135
2025,-0.155,-0.115
2026,-0.135,-0.085
2027,-0.175,-0.085
2028,-0.145,-0.075
2029,-0.145,-0.055
2030,-0.165,-0.045
2031,-0.185,-0.055
2032,-0.145,-0.075
2033,-0.165,-0.035
2034,-0.185,-0.035
2035,-0.165,-0.055
2036,-0.185,-0.075
2037,-0.195,-0.045
2038,-0.165,-0.035
2039,-0.205,-0.045
2040,-0.175,-0.055
2041,-0.165,-0.025
2042,-0.175,-0.065
2043,-0.215,-0.065
2044,-0.165,-0.055
2045,-0.195,-0.075
2046,-0.155,-0.055
2047,-0.185,-0.075
2048,-0.205,-0.065
2049,-0.175,-0.055
2050,-0.145,-0.045
2051,-0.135,-0.035
2052,-0.135,-0.035
2053,-0.145,0.005
2054,-0.005,0.015
2055,-0.035,-0.055
2056,-0.085,-0.085
2057,-0.135,-0.115
2058,-0.155,-0.095
2059,-0.155,-0.085
2060,-0.135,-0.075
2061,-0.195,-0.065
2062,-0.235,-0.095
2063,-0.225,-0.095
2064,-0.215,-0.105
2065,-0.265,-0.055
2066,-0.195,-0.065
2067,-0.255,-0.035
2068,-0.895,0.285
2069,-0.765,0.115
2070,0.685,-0.305
2071,2.475,-0.445
2072,2.925,-0.465
2073,2.665,0.085
2074,0.855,-0.705
2075,-0.395,-0.965
2076,-0.425,-0.265
2077,-0.385,0.015
2078,-0.395,-0.005
2079,-0.415,-0.035
2080,-0.445,-0.045
2081,-0.425,-0.045
2082,-0.365,-0.045
2083,-0.355,-0.065
2084,-0.345,-0.045
2085,-0.335,-0.035
2086,-0.335,-0.065
2087,-0.285,-0.055
2088,-0.295,-0.075
2089,-0.245,-0.085
2090,-0.245,-0.085
2091,-0.225,-0.085
2092,-0.205,-0.125
2093,-0.185,-0.135
2094,-0.165,-0.135
2095,-0.175,-0.155
2096,-0.195,-0.185
2097,-0.185,-0.205
2098,-0.195,-0.195
2099,-0.215,-0.175
2100,-0.245,-0.165
2101,-0.215,-0.185
2102,-0.175,-0.145
2103,-0.175,-0.105
2104,-0.125,-0.085
2105,-0.145,-0.055
2106,-0.125,-0.015
2107,-0.135,-0.025
2108,-0.115,-0.035
2109,-0.145,-0.015
2110,-0.125,-0.015
2111,-0.135,-0.005
2112,-0.165,0.015
2113,-0.135,-0.015
2114,-0.115,0.005
2115,-0.135,-0.005
2116,-0.195,-0.015
2117,-0.135,-0.005
2118,-0.115,-0.005
2119,-0.135,-0.005
2120,-0.155,-0.015
2121,-0.135,-0.015
2122,-0.125,-0.015
2123,-0.165,-0.005
2124,-0.105,-0.035
2125,-0.135,-0.015
2126,-0.135,-0.005
2127,-0.165,-0.025
2128,-0.215,-0.025
2129,-0.135,-0.035
2130,-0.085,0.005
2131,-0.055,0.015
2132,-0.105,0.025
2133,-0.085,0.045
2134,0.045,0.045
2135,-0.005,-0.015
2136,-0.055,-0.065
2137,-0.065,-0.075
2138,-0.095,-0.045
2139,-0.085,-0.015
2140,-0.155,-0.015
2141,-0.165,-0.045
2142,-0.145,-0.025
2143,-0.205,-0.035
2144,-0.185,-0.025
2145,-0.185,-0.035
2146,-0.135,-0.025
2147,-0.275,0.075
2148,-0.845,0.265
2149,-0.725,-0.025
2150,0.775,-0.545
2151,2.485,-0.345
2152,2.885,0.005
2153,2.355,0.355
2154,0.415,-0.735
2155,-0.365,-0.685
2156,-0.345,-0.125
2157,-0.345,-0.005
2158,-0.395,-0.015
2159,-0.385,-0.015
2160,-0.385,-0.015
2161,-0.315,-0.065
2162,-0.335,-0.055
2163,-0.345,-0.045
2164,-0.325,-0.065
2165,-0.295,-0.075
2166,-0.265,-0.075
2167,-0.265,-0.085
2168,-0.225,-0.105
2169,-0.215,-0.105
2170,-0.185,-0.115
2171,-0.165,-0.135
2172,-0.195,-0.155
2173,-0.135,-0.195
2174,-0.125,-0.185
2175,-0.165,-0.225
2176,-0.145,-0.245
2177,-0.165,-0.255
2178,-0.175,-0.245
2179,-0.185,-0.235
2180,-0.225,-0.235
2181,-0.145,-0.185
2182,-0.115,-0.135
2183,-0.115,-0.095
2184,-0.095,-0.065
2185,-0.105,-0.035
2186,-0.085,-0.005
2187,-0.115,0.005
2188,-0.105,-0.025
2189,-0.115,0.005
2190,-0.115,0.025
2191,-0.085,0.015
2192,-0.125,0.005
2193,-0.105,0.015
2194,-0.115,0.025
2195,-0.075,0.035
2196,-0.115,0.005
2197,-0.115,-0.005
2198,-0.155,0.005
2199,-0.125,0.035
2200,-0.105,-0.005
2201,-0.145,-0.015
2202,-0.135,0.025
2203,-0.135,0.005
2204,-0.135,0.005
2205,-0.115,-0.015
2206,-0.155,0.005
2207,-0.145,-0.005
2208,-0.145,-0.005
2209,-0.125,0.005
2210,-0.105,0.025
2211,-0.075,0.025
2212,-0.085,0.025
2213,-0.055,0.055
2214,0.035,0.065
2215,0.035,-0.005
2216,-0.055,-0.065
2217,-0.045,-0.055
2218,-0.085,-0.015
2219,-0.085,-0.005
2220,-0.105,-0.005
2221,-0.155,-0.025
2222,-0.145,-0.005
2223,-0.185,-0.025
2224,-0.205,-0.045
2225,-0.165,-0.045
2226,-0.155,-0.005
2227,-0.265,0.045
2228,-0.745,0.245
2229,-0.675,-0.045
2230,0.845,-0.655
2231,2.505,-0.245
2232,2.815,0.235
2233,2.325,0.565
2234,0.545,-0.565
2235,-0.365,-0.735
2236,-0.345,-0.185
2237,-0.355,-0.015
2238,-0.335,-0.015
2239,-0.345,-0.055
2240,-0.355,-0.025
2241,-0.345,-0.085
2242,-0.325,-0.075
2243,-0.335,-0.065
2244,-0.295,-0.105
2245,-0.275,-0.095
2246,-0.265,-0.085
2247,-0.245,-0.105
2248,-0.225,-0.135
2249,-0.215,-0.155
2250,-0.205,-0.155
2251,-0.145,-0.205
2252,-0.135,-0.215
2253,-0.155,-0.245
2254,-0.125,-0.255
2255,-0.155,-0.295
2256,-0.155,-0.295
2257,-0.095,-0.325
2258,-0.185,-0.305
2259,-0.185,-0.295
2260,-0.185,-0.265
2261,-0.155,-0.215
2262,-0.075,-0.165
2263,-0.085,-0.135
2264,-0.065,-0.095
2265,-0.055,-0.035
2266,-0.065,-0.005
2267,-0.105,-0.005
2268,-0.075,-0.005
2269,-0.075,0.015
2270,-0.115,0.005
2271,-0.095,0.025
2272,-0.125,0.015
2273,-0.105,0.005
2274,-0.115,0.005
2275,-0.135,0.025
2276,-0.105,0.015
2277,-0.125,0.005
2278,-0.105,0.015
2279,-0.125,-0.005
2280,-0.115,0.005
2281,-0.095,0.025
2282,-0.125,0.005
2283,-0.125,-0.015
2284,-0.135,0.005
2285,-0.125,0.005
2286,-0.155,0.005
2287,-0.095,-0.005
2288,-0.105,0.025
2289,-0.065,0.045
2290,-0.085,0.065
2291,-0.045,0.065
2292,0.085,0.035
2293,-0.015,0.005
2294,-0.025,-0.035
2295,-0.075,-0.025
2296,-0.075,-0.035
2297,-0.105,-0.005
2298,-0.095,0.005
2299,-0.145,-0.035
2300,-0.155,-0.025
2301,-0.195,-0.005
2302,-0.165,-0.025
2303,-0.145,-0.025
2304,-0.135,-0.035
2305,-0.455,0.115
2306,-0.835,0.245
2307,-0.365,-0.065
2308,1.245,-0.505
2309,2.665,-0.215
2310,2.725,0.195
2311,2.235,0.475
2312,0.285,-0.655
2313,-0.475,-0.675
2314,-0.325,-0.165
2315,-0.315,-0.005
2316,-0.355,-0.035
2317,-0.365,-0.035
2318,-0.345,-0.035
2319,-0.325,-0.055
2320,-0.345,-0.035
2321,-0.305,-0.055
2322,-0.295,-0.045
2323,-0.285,-0.075
2324,-0.275,-0.085
2325,-0.245,-0.105
2326,-0.215,-0.085
2327,-0.225,-0.115
2328,-0.215,-0.145
2329,-0.175,-0.155
2330,-0.135,-0.165
2331,-0.125,-0.195
2332,-0.175,-0.225
2333,-0.125,-0.245
2334,-0.145,-0.225
2335,-0.165,-0.255
2336,-0.185,-0.265
2337,-0.195,-0.235
2338,-0.165,-0.175
2339,-0.145,-0.165
2340,-0.105,-0.145
2341,-0.065,-0.075
2342,-0.105,-0.035
2343,-0.085,-0.005
2344,-0.065,-0.005
2345,-0.085,0.045
2346,-0.065,0.015
2347,-0.095,0.025
2348,-0.155,0.025
2349,-0.145,0.025
2350,-0.095,0.045
2351,-0.075,0.015
2352,-0.105,0.015
2353,-0.125,-0.005
2354,-0.105,0.025
2355,-0.115,0.005
2356,-0.125,0.005
2357,-0.135,-0.005
2358,-0.145,0.035
2359,-0.095,0.005
2360,-0.145,-0.005
2361,-0.095,-0.005
2362,-0.125,0.025
2363,-0.135,0.035
2364,-0.085,0.005
2365,-0.075,0.045
2366,-0.055,0.075
2367,-0.065,0.085
2368,0.045,0.055
2369,0.025,0.025
2370,-0.085,-0.025
2371,-0.025,-0.025
2372,-0.065,-0.015
2373,-0.115,0.015
2374,-0.135,0.015
2375,-0.175,-0.025
2376,-0.135,-0.005
2377,-0.185,-0.015
2378,-0.185,0.015
2379,-0.145,-0.005
2380,-0.145,-0.015
2381,-0.445,0.155
2382,-0.855,0.255
2383,-0.315,-0.095
2384,1.515,-0.425
2385,2.785,-0.215
2386,2.855,0.325
2387,1.905,0.135
2388,0.045,-0.855
2389,-0.455,-0.495
2390,-0.315,-0.055
2391,-0.325,0.025
2392,-0.345,-0.015
2393,-0.355,0.025
2394,-0.355,0.005
2395,-0.345,-0.025
2396,-0.345,-0.035
2397,-0.335,-0.005
2398,-0.275,-0.025
2399,-0.275,-0.055
2400,-0.285,-0.065
2401,-0.275,-0.065
2402,-0.195,-0.065
2403,-0.205,-0.085
2404,-0.215,-0.135
2405,-0.195,-0.125
2406,-0.135,-0.145
2407,-0.155,-0.175
2408,-0.135,-0.205
2409,-0.165,-0.205
2410,-0.135,-0.225
2411,-0.175,-0.235
2412,-0.205,-0.225
2413,-0.185,-0.185
2414,-0.155,-0.155
2415,-0.155,-0.105
2416,-0.135,-0.105
2417,-0.055,-0.055
2418,-0.055,-0.005
2419,-0.065,0.015
2420,-0.075,0.025
2421,-0.095,0.065
2422,-0.125,0.065
2423,-0.085,0.055
2424,-0.085,0.045
2425,-0.135,0.055
2426,-0.065,0.045
2427,-0.085,0.075
2428,-0.095,0.045
2429,-0.095,0.035
2430,-0.075,0.045
2431,-0.135,0.045
2432,-0.085,0.045
2433,-0.085,0.045
2434,-0.115,0.045
2435,-0.105,0.045
2436,-0.165,0.025
2437,-0.095,0.045
2438,-0.085,0.045
2439,-0.105,0.055
2440,-0.095,0.045
2441,-0.075,0.085
2442,-0.015,0.085
2443,-0.055,0.105
2444,0.005,0.105
2445,0.085,0.075
2446,0.015,0.025
2447,-0.075,-0.015
2448,-0.045,0.005
2449,-0.055,0.005
2450,-0.085,0.055
2451,-0.125,0.055
2452,-0.115,0.025
2453,-0.145,0.015
2454,-0.145,0.025
2455,-0.155,0.005
2456,-0.145,0.025
2457,-0.125,0.045
2458,-0.655,0.305
2459,-0.765,0.175
2460,0.125,-0.385
2461,2.025,-0.305
2462,2.885,-0.005
2463,2.745,0.605
2464,1.645,-0.035
2465,0.035,-0.845
2466,-0.335,-0.365
2467,-0.295,0.015
2468,-0.345,0.065
2469,-0.375,0.035
2470,-0.355,0.025
2471,-0.355,0.005
2472,-0.285,-0.005
2473,-0.295,-0.005
2474,-0.305,-0.005
2475,-0.265,-0.005
2476,-0.255,-0.045
2477,-0.245,-0.055
2478,-0.195,-0.045
2479,-0.215,-0.065
2480,-0.185,-0.075
2481,-0.165,-0.125
2482,-0.125,-0.145
2483,-0.145,-0.175
2484,-0.135,-0.195
2485,-0.125,-0.195
2486,-0.115,-0.185
2487,-0.135,-0.245
2488,-0.155,-0.235
2489,-0.185,-0.215
2490,-0.125,-0.135
2491,-0.115,-0.125
2492,-0.065,-0.075
2493,-0.045,-0.015
2494,-0.055,0.025
2495,-0.045,0.025
2496,-0.025,0.075
2497,-0.095,0.095
2498,-0.075,0.085
2499,-0.095,0.105
2500,-0.075,0.105
2501,-0.085,0.085
2502,-0.035,0.125
2503,-0.065,0.115
2504,-0.095,0.095
2505,-0.095,0.135
2506,-0.045,0.105
2507,-0.105,0.105
2508,-0.065,0.085
2509,-0.075,0.125
2510,-0.095,0.095
2511,-0.045,0.095
2512,-0.065,0.095
2513,-0.095,0.095
2514,-0.085,0.105
2515,-0.105,0.115
2516,-0.105,0.105
2517,-0.025,0.105
2518,-0.035,0.155
2519,-0.045,0.175
2520,-0.015,0.145
2521,0.085,0.145
2522,0.085,0.125
2523,0.045,0.065
2524,-0.025,0.065
2525,-0.045,0.055
2526,-0.045,0.085
2527,-0.105,0.095
2528,-0.095,0.055
2529,-0.075,0.065
2530,-0.145,0.085
2531,-0.115,0.075
2532,-0.115,0.045
2533,-0.065,0.085
2534,-0.275,0.205
2535,-0.795,0.355
2536,-0.415,0.095
2537,1.215,-0.335
2538,2.655,-0.175
2539,2.875,0.115
2540,2.435,0.385
2541,0.525,-0.665
2542,-0.405,-0.555
2543,-0.315,-0.045
2544,-0.315,0.075
2545,-0.305,0.075
2546,-0.305,0.065
2547,-0.305,0.065
2548,-0.325,0.065
2549,-0.285,0.065
2550,-0.275,0.005
2551,-0.275,0.015
2552,-0.235,0.005
2553,-0.255,0.015
2554,-0.245,-0.005
2555,-0.165,-0.035
2556,-0.175,-0.065
2557,-0.175,-0.065
2558,-0.135,-0.085
2559,-0.135,-0.115
2560,-0.145,-0.115
2561,-0.135,-0.135
2562,-0.155,-0.155
2563,-0.135,-0.175
2564,-0.145,-0.165
2565,-0.175,-0.155
2566,-0.165,-0.125
2567,-0.195,-0.125
2568,-0.115,-0.075
2569,-0.115,-0.035
2570,-0.045,-0.015
2571,-0.045,0.005
2572,-0.065,0.005
2573,-0.075,0.025
2574,-0.115,0.065
2575,-0.105,0.045
2576,-0.085,0.025
2577,-0.105,0.045
2578,-0.125,0.055
2579,-0.105,0.005
2580,-0.125,-0.005
2581,-0.135,0.025
2582,-0.105,0.025
2583,-0.125,0.005
2584,-0.115,-0.005
2585,-0.095,-0.005
2586,-0.095,0.005
2587,-0.165,0.005
2588,-0.105,-0.015
2589,-0.125,-0.015
2590,-0.125,-0.025
2591,-0.165,-0.035
2592,-0.165,-0.025
2593,-0.115,-0.035
2594,-0.095,-0.005
2595,-0.065,0.035
2596,-0.115,0.025
2597,-0.045,0.065
2598,0.045,0.025
2599,-0.035,-0.045
2600,-0.095,-0.085
2601,-0.115,-0.085
2602,-0.085,-0.065
2603,-0.115,-0.045
2604,-0.165,-0.065
2605,-0.225,-0.075
2606,-0.175,-0.065
2607,-0.185,-0.085
2608,-0.235,-0.085
2609,-0.185,-0.085
2610,-0.115,-0.065
2611,-0.515,0.155
2612,-0.865,0.235
2613,-0.215,-0.095
2614,1.615,-0.385
2615,2.835,-0.515
2616,2.925,-0.055
2617,2.075,-0.175
2618,0.135,-1.045
2619,-0.485,-0.605
2620,-0.375,-0.125
2621,-0.385,-0.035
2622,-0.385,-0.045
2623,-0.435,-0.075
2624,-0.445,-0.085
2625,-0.405,-0.085
2626,-0.365,-0.095
2627,-0.345,-0.095
2628,-0.395,-0.105
2629,-0.375,-0.115
2630,-0.315,-0.115
2631,-0.265,-0.135
2632,-0.295,-0.135
2633,-0.225,-0.145
2634,-0.225,-0.155
2635,-0.225,-0.175
2636,-0.255,-0.195
2637,-0.225,-0.205
2638,-0.235,-0.215
2639,-0.205,-0.225
2640,-0.235,-0.255
2641,-0.275,-0.255
2642,-0.225,-0.235
2643,-0.265,-0.215
2644,-0.235,-0.205
2645,-0.235,-0.145
2646,-0.215,-0.095
2647,-0.195,-0.095
2648,-0.205,-0.055
2649,-0.175,-0.095
2650,-0.235,-0.085
2651,-0.095,-0.065
2652,-0.145,-0.155
2653,-0.165,-0.145
2654,-0.215,-0.075
2655,-0.205,-0.045
2656,-0.245,-0.065
2657,-0.215,-0.065
2658,-0.195,-0.105
2659,-0.175,-0.085
2660,-0.235,-0.115
2661,-0.135,-0.125
2662,-0.175,-0.145
2663,-0.225,-0.135
2664,-0.135,-0.105
2665,-0.215,-0.125
2666,-0.255,-0.065
2667,-0.225,-0.085
2668,-0.195,-0.095
2669,-0.205,-0.125
2670,-0.195,-0.085
2671,-0.185,-0.125
2672,-0.095,-0.105
2673,-0.135,-0.065
2674,-0.165,-0.025
2675,-0.035,-0.035
2676,-0.045,-0.105
2677,-0.055,-0.095
2678,-0.135,-0.165
2679,-0.165,-0.175
2680,-0.195,-0.135
2681,-0.145,-0.125
2682,-0.195,-0.145
2683,-0.215,-0.145
2684,-0.285,-0.165
2685,-0.205,-0.175
2686,-0.205,-0.135
2687,-0.225,-0.115
2688,-0.245,-0.075
2689,-0.835,0.155
2690,-0.805,0.105
2691,0.385,-0.345
2692,2.235,-0.415
2693,2.925,-0.565
2694,2.845,-0.085
2695,1.435,-0.685
2696,-0.265,-1.095
2697,-0.455,-0.425
2698,-0.415,-0.075
2699,-0.415,-0.075
2700,-0.425,-0.105
2701,-0.435,-0.115
2702,-0.385,-0.115
2703,-0.405,-0.125
2704,-0.415,-0.125
2705,-0.385,-0.105
2706,-0.355,-0.135
2707,-0.345,-0.145
2708,-0.335,-0.155
2709,-0.315,-0.135
2710,-0.275,-0.155
2711,-0.255,-0.175
2712,-0.255,-0.195
2713,-0.215,-0.185
2714,-0.235,-0.205
2715,-0.205,-0.225
2716,-0.185,-0.245
2717,-0.215,-0.235
2718,-0.215,-0.235
2719,-0.265,-0.225
2720,-0.245,-0.215
2721,-0.195,-0.205
2722,-0.215,-0.165
2723,-0.185,-0.135
2724,-0.175,-0.125
2725,-0.175,-0.095
2726,-0.145,-0.085
2727,-0.185,-0.095
2728,-0.155,-0.085
2729,-0.205,-0.085
2730,-0.195,-0.065
2731,-0.185,-0.075
2732,-0.195,-0.075
2733,-0.195,-0.075
2734,-0.185,-0.075
2735,-0.195,-0.075
2736,-0.205,-0.095
2737,-0.175,-0.075
2738,-0.195,-0.065
2739,-0.145,-0.085
2740,-0.185,-0.125
2741,-0.145,-0.105
2742,-0.185,-0.095
2743,-0.185,-0.115
2744,-0.175,-0.095
2745,-0.165,-0.095
2746,-0.165,-0.085
2747,-0.215,-0.085
2748,-0.175,-0.095
2749,-0.105,-0.075
2750,-0.105,-0.025
2751,-0.095,-0.015
2752,-0.085,-0.005
2753,-0.025,-0.025
2754,-0.015,-0.065
2755,-0.055,-0.095
2756,-0.135,-0.125
2757,-0.115,-0.115
2758,-0.115,-0.095
2759,-0.125,-0.075
2760,-0.195,-0.105
2761,-0.215,-0.105
2762,-0.235,-0.105
2763,-0.205,-0.115
2764,-0.195,-0.105
2765,-0.185,-0.085
2766,-0.395,0.045
2767,-0.885,0.245
2768,-0.365,0.005
2769,1.335,-0.305
2770,2.745,-0.445
2771,3.025,-0.335
2772,2.505,-0.105
2773,0.305,-1.015
2774,-0.395,-0.655
2775,-0.375,-0.085
2776,-0.365,-0.015
2777,-0.375,-0.035
2778,-0.375,-0.035
2779,-0.385,-0.055
2780,-0.375,-0.065
2781,-0.375,-0.045
2782,-0.345,-0.055
2783,-0.325,-0.065
2784,-0.315,-0.065
2785,-0.285,-0.065
2786,-0.275,-0.075
2787,-0.245,-0.095
2788,-0.255,-0.095
2789,-0.165,-0.095
2790,-0.155,-0.085
2791,-0.115,-0.115
2792,-0.145,-0.145
2793,-0.125,-0.135
2794,-0.125,-0.135
2795,-0.145,-0.165
2796,-0.155,-0.165
2797,-0.205,-0.155
2798,-0.195,-0.155
2799,-0.185,-0.145
2800,-0.185,-0.135
2801,-0.115,-0.125
2802,-0.155,-0.105
2803,-0.055,-0.115
2804,-0.105,-0.105
2805,-0.165,-0.035
2806,-0.205,0.005
2807,-0.165,-0.025
2808,-0.175,-0.045
2809,-0.175,-0.055
2810,-0.155,-0.065
2811,-0.195,-0.055
2812,-0.155,-0.085
2813,-0.045,-0.085
2814,-0.125,-0.085
2815,-0.155,-0.045
2816,-0.145,-0.085
2817,-0.095,-0.095
2818,-0.175,-0.025
2819,-0.135,-0.045
2820,-0.135,-0.075
2821,-0.155,-0.065
2822,-0.115,-0.045
2823,-0.135,-0.075
2824,-0.115,-0.075
2825,-0.155,-0.075
2826,-0.135,-0.065
2827,-0.135,-0.065
2828,-0.095,-0.075
2829,-0.035,-0.015
2830,-0.055,-0.005
2831,-0.075,0.015
2832,0.025,-0.015
2833,-0.015,-0.065
2834,-0.015,-0.085
2835,-0.085,-0.085
2836,-0.115,-0.135
2837,-0.115,-0.125
2838,-0.135,-0.075
2839,-0.155,-0.095
2840,-0.195,-0.115
2841,-0.195,-0.105
2842,-0.195,-0.115
2843,-0.175,-0.105
2844,-0.095,-0.115
2845,-0.445,0.005
2846,-1.025,0.225
2847,-0.345,0.045
2848,1.305,-0.165
2849,2.835,-0.505
2850,3.015,-0.565
2851,2.715,-0.255
2852,0.605,-1.025
2853,-0.345,-0.735
2854,-0.305,-0.125
2855,-0.315,-0.005
2856,-0.355,-0.025
2857,-0.375,-0.035
2858,-0.375,-0.035
2859,-0.355,-0.045
2860,-0.355,-0.045
2861,-0.345,-0.045
2862,-0.315,-0.025
2863,-0.275,-0.065
2864,-0.315,-0.045
2865,-0.215,-0.055
2866,-0.155,-0.045
2867,-0.205,-0.025
2868,-0.175,-0.045
2869,-0.145,-0.055
2870,-0.095,-0.045
2871,-0.105,-0.055
2872,-0.075,-0.075
2873,-0.055,-0.065
2874,-0.035,-0.095
2875,-0.075,-0.125
2876,-0.165,-0.085
2877,-0.215,-0.125
2878,-0.205,-0.145
2879,-0.085,-0.155
2880,-0.035,-0.155
2881,-0.055,-0.145
2882,-0.115,-0.095
2883,-0.085,-0.015
2884,-0.185,-0.025
2885,-0.215,-0.015
2886,-0.185,-0.035
2887,-0.135,-0.045
2888,-0.115,-0.055
2889,-0.105,-0.065
2890,-0.105,-0.055
2891,-0.105,-0.075
2892,-0.135,-0.075
2893,-0.195,-0.065
2894,-0.225,-0.015
2895,-0.095,0.035
2896,-0.065,-0.155
2897,-0.085,-0.135
2898,-0.105,-0.115
2899,-0.115,-0.105
2900,-0.055,-0.125
2901,-0.085,-0.085
2902,-0.115,-0.085
2903,-0.095,-0.075
2904,-0.095,-0.085
2905,-0.085,-0.065
2906,-0.025,-0.015
2907,-0.015,-0.025
2908,-0.065,-0.005
2909,0.075,0.005
2910,0.045,-0.055
2911,-0.015,-0.085
2912,-0.045,-0.115
2913,-0.085,-0.105
2914,-0.075,-0.085
2915,-0.085,-0.075
2916,-0.125,-0.095
2917,-0.175,-0.115
2918,-0.175,-0.095
2919,-0.175,-0.095
2920,-0.175,-0.095
2921,-0.105,-0.095
2922,-0.255,-0.045
2923,-0.965,0.195
2924,-0.775,0.075
2925,0.465,-0.245
2926,2.365,-0.305
2927,3.005,-0.535
2928,2.925,0.045
2929,1.205,-0.235
2930,-0.335,-0.885
2931,-0.335,-0.325
2932,-0.345,-0.035
2933,-0.355,-0.025
2934,-0.345,-0.035
2935,-0.305,-0.075
2936,-0.315,-0.065
2937,-0.325,-0.055
2938,-0.295,-0.035
2939,-0.265,-0.055
2940,-0.285,-0.065
2941,-0.255,-0.035
2942,-0.215,-0.035
2943,-0.195,-0.085
2944,-0.155,-0.065
2945,-0.145,-0.055
2946,-0.125,-0.065
2947,-0.115,-0.085
2948,-0.065,-0.115
2949,-0.015,-0.115
2950,-0.035,-0.155
2951,-0.045,-0.175
2952,-0.115,-0.185
2953,-0.135,-0.215
2954,0.005,-0.225
2955,-0.125,-0.175
2956,-0.225,-0.125
2957,-0.105,-0.135
2958,-0.085,-0.135
2959,-0.125,-0.095
2960,-0.115,-0.085
2961,-0.115,-0.065
2962,-0.115,-0.045
2963,-0.095,-0.025
2964,-0.135,-0.035
2965,-0.105,-0.055
2966,-0.065,-0.025
2967,-0.135,-0.025
2968,-0.115,-0.055
2969,-0.085,-0.045
2970,-0.125,-0.005
2971,-0.135,-0.015
2972,-0.135,-0.045
2973,-0.135,-0.045
2974,-0.105,-0.045
2975,-0.055,-0.065
2976,-0.095,-0.065
2977,-0.155,-0.045
2978,-0.095,-0.015
2979,-0.135,-0.035
2980,-0.165,-0.045
2981,-0.045,-0.065
2982,-0.005,-0.005
2983,-0.145,0.075
2984,-0.055,0.025
2985,0.095,-0.035
2986,0.005,-0.085
2987,-0.055,-0.085
2988,-0.015,-0.095
2989,-0.115,-0.055
2990,-0.105,-0.015
2991,-0.155,-0.025
2992,-0.175,-0.065
2993,-0.175,-0.085
2994,-0.205,-0.075
2995,-0.215,-0.065
2996,-0.205,-0.085
2997,-0.165,-0.045
2998,-0.295,0.025
2999,-0.935,0.225
3000,-0.775,-0.045
3001,0.795,-0.545
3002,2.655,-0.395
3003,2.885,0.015
3004,2.405,0.395
3005,0.405,-0.735
3006,-0.445,-0.715
3007,-0.385,-0.165
3008,-0.425,-0.015
3009,-0.455,-0.015
3010,-0.425,-0.035
3011,-0.405,-0.075
3012,-0.395,-0.095
3013,-0.365,-0.065
3014,-0.375,-0.025
3015,-0.335,-0.065
3016,-0.285,-0.085
3017,-0.295,-0.055
3018,-0.275,-0.075
3019,-0.265,-0.105
3020,-0.205,-0.135
3021,-0.175,-0.135
3022,-0.185,-0.165
3023,-0.135,-0.215
3024,-0.125,-0.235
3025,-0.125,-0.245
3026,-0.105,-0.245
3027,-0.125,-0.275
3028,-0.125,-0.255
3029,-0.125,-0.255
3030,-0.115,-0.235
3031,-0.105,-0.205
3032,-0.105,-0.165
3033,-0.065,-0.105
3034,-0.055,-0.055
3035,-0.085,-0.035
3036,-0.095,-0.015
3037,-0.105,0.005
3038,-0.095,0.035
3039,-0.145,0.025
3040,-0.125,0.005
3041,-0.115,0.035
3042,-0.125,0.005
3043,-0.135,0.005
3044,-0.145,0.005
3045,-0.135,0.005
3046,-0.145,-0.005
3047,-0.135,0.005
3048,-0.165,0.005
3049,-0.065,-0.005
3050,-0.135,0.015
3051,-0.155,0.025
3052,-0.165,0.015
3053,-0.145,0.045
3054,-0.085,0.055
3055,-0.085,0.035
3056,-0.055,0.045
3057,-0.065,0.065
3058,0.055,0.065
3059,0.055,-0.015
3060,-0.025,-0.025
3061,-0.075,-0.035
3062,-0.075,-0.025
3063,-0.085,-0.025
3064,-0.135,0.005
3065,-0.135,-0.015
3066,-0.165,-0.025
3067,-0.185,-0.035
3068,-0.215,-0.055
3069,-0.175,-0.055
3070,-0.145,-0.035
3071,-0.185,-0.045
3072,-0.825,0.145
3073,-0.835,0.005
3074,0.405,-0.275
3075,2.245,-0.295
3076,2.835,-0.095
3077,2.705,0.525
3078,1.375,0.415
3079,-0.335,-0.735
3080,-0.535,-0.515
3081,-0.365,-0.195
3082,-0.345,-0.005
3083,-0.405,-0.005
3084,-0.365,-0.045
3085,-0.305,-0.085
3086,-0.335,-0.055
3087,-0.365,-0.045
3088,-0.315,-0.075
3089,-0.285,-0.075
3090,-0.215,-0.085
3091,-0.235,-0.085
3092,-0.265,-0.095
3093,-0.185,-0.125
3094,-0.225,-0.145
3095,-0.155,-0.135
3096,-0.125,-0.165
3097,-0.125,-0.185
3098,-0.095,-0.175
3099,-0.105,-0.195
3100,-0.115,-0.225
3101,-0.125,-0.205
3102,-0.045,-0.195
3103,-0.105,-0.195
3104,-0.105,-0.175
3105,-0.075,-0.165
3106,-0.105,-0.075
3107,-0.125,-0.055
3108,-0.075,-0.035
3109,-0.105,-0.015
3110,-0.125,-0.005
3111,-0.115,-0.025
3112,-0.145,-0.025
3113,-0.155,-0.025
3114,-0.135,-0.005
3115,-0.125,-0.025
3116,-0.145,-0.035
3117,-0.125,-0.015
3118,-0.205,-0.005
3119,-0.265,-0.005
3120,-0.105,-0.025
3121,-0.065,-0.015
3122,-0.075,-0.005
3123,-0.075,-0.025
3124,-0.115,-0.025
3125,-0.065,-0.025
3126,-0.005,-0.005
3127,-0.055,0.045
3128,-0.105,0.065
3129,-0.035,0.065
3130,0.025,0.015
3131,-0.055,-0.025
3132,-0.095,-0.065
3133,-0.115,-0.055
3134,-0.145,-0.035
3135,-0.115,-0.075
3136,-0.195,-0.075
3137,-0.235,-0.045
3138,-0.235,-0.025
3139,-0.205,-0.045
3140,-0.225,-0.055
3141,-0.175,-0.005
3142,-0.255,-0.005
3143,-0.925,0.205
3144,-1.125,0.205
3145,0.015,-0.015
3146,2.125,-0.095
3147,3.085,-0.405
3148,3.035,-0.185
3149,2.015,0.005
3150,-0.125,-0.885
3151,-0.545,-0.505
3152,-0.355,-0.055
3153,-0.345,0.035
3154,-0.365,0.035
3155,-0.405,0.025
3156,-0.405,0.015
3157,-0.325,-0.015
3158,-0.335,0.025
3159,-0.315,0.005
3160,-0.285,0.005
3161,-0.295,0.025
3162,-0.255,0.035
3163,-0.225,0.015
3164,-0.185,0.015
3165,-0.135,0.025
3166,-0.155,0.035
3167,-0.105,0.025
3168,-0.075,0.015
3169,-0.055,0.015
3170,-0.055,0.035
3171,-0.045,-0.005
3172,-0.095,-0.015
3173,-0.115,-0.015
3174,-0.145,-0.025
3175,-0.135,-0.045
3176,-0.155,-0.075
3177,-0.135,-0.035
3178,-0.155,-0.025
3179,-0.125,-0.025
3180,-0.115,-0.045
3181,-0.145,-0.015
3182,-0.165,-0.015
3183,-0.175,-0.015
3184,-0.145,-0.015
3185,-0.175,0.015
3186,-0.185,0.005
3187,-0.135,0.035
3188,-0.155,-0.035
3189,-0.155,-0.035
3190,-0.185,-0.045
3191,-0.135,-0.045
3192,-0.175,-0.045
3193,-0.125,-0.035
3194,-0.105,-0.035
3195,-0.235,-0.025
3196,-0.195,0.035
3197,-0.155,0.045
3198,-0.075,0.025
3199,-0.135,0.035
3200,0.055,0.015
3201,-0.085,-0.015
3202,-0.045,-0.005
3203,-0.075,-0.105
3204,-0.085,-0.125
3205,-0.185,-0.065
3206,-0.205,-0.005
3207,-0.205,-0.035
3208,-0.175,-0.045
3209,-0.195,-0.065
3210,-0.265,-0.035
3211,-0.205,-0.065
3212,-0.205,-0.105
3213,-0.105,-0.045
3214,-0.425,0.105
3215,-1.145,0.305
3216,-0.925,0.195
3217,0.565,-0.105
3218,2.635,-0.375
3219,3.225,-0.585
3220,3.125,-0.165
3221,1.205,-0.985
3222,-0.235,-0.735
3223,-0.335,-0.055
3224,-0.405,0.125
3225,-0.405,0.015
3226,-0.415,0.035
3227,-0.465,0.025
3228,-0.375,-0.005
3229,-0.405,-0.015
3230,-0.425,0.035
3231,-0.375,0.005
3232,-0.405,-0.005
3233,-0.315,-0.025
3234,-0.295,0.025
3235,-0.285,0.055
3236,-0.265,0.005
3237,-0.215,0.005
3238,-0.225,0.015
3239,-0.185,0.005
3240,-0.145,-0.005
3241,-0.215,0.005
3242,-0.185,-0.015
3243,-0.125,-0.015
3244,-0.185,-0.055
3245,-0.175,-0.065
3246,-0.165,-0.055
3247,-0.195,-0.065
3248,-0.165,-0.055
3249,-0.165,-0.035
3250,-0.155,-0.035
3251,-0.145,-0.035
3252,-0.155,-0.025
3253,-0.175,-0.015
3254,-0.195,0.005
3255,-0.195,-0.015
3256,-0.205,0.005
3257,-0.225,0.045
3258,-0.175,0.015
3259,-0.145,-0.005
3260,-0.205,-0.045
3261,-0.145,-0.105
3262,-0.115,-0.075
3263,-0.155,-0.055
3264,-0.165,-0.035
3265,-0.205,-0.015
3266,-0.175,0.045
3267,-0.175,-0.045
3268,-0.195,-0.025
3269,-0.195,-0.075
3270,-0.145,-0.055
3271,-0.095,0.005
3272,-0.155,0.005
3273,-0.085,-0.005
3274,-0.005,-0.005
3275,-0.085,-0.035
3276,-0.105,-0.085
3277,-0.185,-0.075
3278,-0.165,-0.055
3279,-0.225,-0.055
3280,-0.165,-0.055
3281,-0.215,-0.075
3282,-0.295,-0.075
3283,-0.265,-0.085
3284,-0.235,-0.085
3285,-0.215,-0.055
3286,-0.225,-0.065
3287,-0.585,0.095
3288,-1.015,0.175
3289,-0.535,-0.075
3290,1.175,-0.325
3291,2.775,-0.475
3292,3.045,-0.185
3293,2.745,0.025
3294,0.675,-0.905
3295,-0.395,-0.755
3296,-0.415,-0.145
3297,-0.425,-0.015
3298,-0.415,-0.025
3299,-0.425,-0.035
3300,-0.465,-0.075
3301,-0.445,-0.035
3302,-0.425,-0.065
3303,-0.485,-0.055
3304,-0.325,-0.055
3305,-0.365,-0.085
3306,-0.345,-0.105
3307,-0.295,-0.085
3308,-0.245,-0.085
3309,-0.285,-0.045
3310,-0.225,-0.075
3311,-0.205,-0.095
3312,-0.145,-0.105
3313,-0.165,-0.105
3314,-0.135,-0.115
3315,-0.135,-0.115
3316,-0.145,-0.155
3317,-0.155,-0.135
3318,-0.195,-0.155
3319,-0.245,-0.165
3320,-0.235,-0.135
3321,-0.215,-0.115
3322,-0.195,-0.095
3323,-0.135,-0.085
3324,-0.175,-0.065
3325,-0.185,-0.055
3326,-0.225,-0.035
3327,-0.175,-0.085
3328,-0.255,-0.055
3329,-0.235,-0.065
3330,-0.195,-0.025
3331,-0.195,-0.065
3332,-0.255,-0.055
3333,-0.205,-0.045
3334,-0.205,-0.035
3335,-0.205,-0.025
3336,-0.225,-0.045
3337,-0.175,-0.065
3338,-0.185,-0.075
3339,-0.225,-0.055
3340,-0.215,-0.035
3341,-0.205,-0.045
3342,-0.155,-0.065
3343,-0.185,-0.085
3344,-0.205,-0.085
3345,-0.155,-0.095
3346,-0.215,-0.055
3347,-0.235,-0.055
3348,-0.235,-0.035
3349,-0.185,-0.015
3350,-0.155,-0.015
3351,-0.155,0.005
3352,-0.095,-0.035
3353,-0.075,-0.035
3354,-0.055,-0.015
3355,-0.135,-0.075
3356,-0.195,-0.095
3357,-0.145,-0.085
3358,-0.165,-0.075
3359,-0.205,-0.035
3360,-0.205,-0.085
3361,-0.265,-0.085
3362,-0.235,-0.055
3363,-0.255,-0.085
3364,-0.215,-0.075
3365,-0.205,-0.045
3366,-0.245,-0.035
3367,-0.885,0.205
3368,-0.785,0.095
3369,0.715,-0.265
3370,2.445,-0.315
3371,3.035,-0.385
3372,2.855,0.055
3373,1.085,-0.785
3374,-0.215,-0.945
3375,-0.365,-0.285
3376,-0.355,-0.015
3377,-0.345,-0.025
3378,-0.425,-0.015
3379,-0.405,-0.045
3380,-0.435,-0.015
3381,-0.405,-0.045
3382,-0.365,-0.035
3383,-0.355,-0.015
3384,-0.325,-0.025
3385,-0.315,-0.045
3386,-0.295,-0.035
3387,-0.275,-0.035
3388,-0.265,-0.025
3389,-0.215,-0.085
3390,-0.145,-0.085
3391,-0.195,-0.055
3392,-0.195,-0.045
3393,-0.145,-0.065
3394,-0.095,-0.085
3395,-0.105,-0.105
3396,-0.105,-0.135
3397,-0.105,-0.135
3398,-0.125,-0.115
3399,-0.145,-0.125
3400,-0.175,-0.135
3401,-0.145,-0.105
3402,-0.115,-0.095
3403,-0.135,-0.075
3404,-0.105,-0.075
3405,-0.105,-0.065
3406,-0.105,-0.045
3407,-0.135,-0.055
3408,-0.145,-0.045
3409,-0.145,-0.045
3410,-0.135,-0.045
3411,-0.195,-0.055
3412,-0.175,-0.055
3413,-0.145,-0.015
3414,-0.165,-0.015
3415,-0.135,-0.035
3416,-0.145,-0.045
3417,-0.115,-0.055
3418,-0.195,-0.025
3419,-0.175,-0.035
3420,-0.145,-0.055
3421,-0.105,-0.055
3422,-0.145,-0.035
3423,-0.165,-0.045
3424,-0.135,-0.055
3425,-0.145,-0.035
3426,-0.115,-0.045
3427,-0.135,-0.065
3428,-0.155,-0.065
3429,-0.185,-0.045
3430,-0.155,-0.035
3431,-0.145,-0.075
3432,-0.105,-0.055
3433,-0.125,-0.055
3434,-0.145,-0.055
3435,-0.155,-0.055
3436,-0.155,-0.045
3437,-0.135,-0.035
3438,-0.055,0.005
3439,-0.095,0.005
3440,-0.045,-0.005
3441,0.075,-0.055
3442,0.025,-0.045
3443,-0.045,-0.075
3444,-0.065,-0.095
3445,-0.055,-0.075
3446,-0.095,-0.025
3447,-0.085,-0.035
3448,-0.155,-0.055
3449,-0.155,-0.075
3450,-0.175,-0.045
3451,-0.105,-0.035
3452,-0.105,-0.035
3453,-0.155,-0.005
3454,-0.535,0.185
3455,-0.905,0.235
3456,-0.225,-0.065
3457,1.595,-0.265
3458,2.775,-0.455
3459,2.875,-0.005
3460,2.045,0.055
3461,0.095,-0.895
3462,-0.405,-0.525
3463,-0.355,-0.035
3464,-0.325,0.055
3465,-0.335,0.045
3466,-0.365,0.045
3467,-0.315,0.025
3468,-0.315,0.005
3469,-0.305,0.025
3470,-0.315,0.025
3471,-0.225,0.015
3472,-0.205,0.005
3473,-0.205,-0.005
3474,-0.185,0.015
3475,-0.125,0.005
3476,-0.115,0.005
3477,-0.155,0.005
3478,-0.085,0.005
3479,-0.035,-0.015
3480,-0.035,-0.015
3481,-0.045,-0.025
3482,-0.025,-0.045
3483,-0.025,-0.055
3484,-0.085,-0.085
3485,-0.025,-0.095
3486,-0.025,-0.105
3487,-0.085,-0.095
3488,-0.135,-0.105
3489,-0.095,-0.085
3490,-0.045,-0.055
3491,-0.075,-0.005
3492,-0.075,-0.005
3493,-0.035,-0.005
3494,-0.035,0.005
3495,-0.045,0.005
3496,-0.075,0.035
3497,-0.095,0.025
3498,-0.055,0.035
3499,-0.085,0.055
3500,-0.115,0.025
3501,-0.095,-0.005
3502,-0.085,0.025
3503,-0.115,0.025
3504,-0.085,0.015
3505,-0.085,0.025
3506,-0.065,0.025
3507,-0.115,0.005
3508,-0.065,0.005
3509,-0.025,0.005
3510,-0.085,0.025
3511,-0.085,0.025
3512,-0.125,0.005
3513,-0.035,-0.035
3514,-0.075,-0.035
3515,-0.125,0.035
3516,-0.125,0.015
3517,-0.125,0.025
3518,-0.135,0.015
3519,-0.095,0.005
3520,-0.105,-0.005
3521,-0.115,0.015
3522,-0.105,-0.005
3523,-0.095,-0.005
3524,-0.115,-0.005
3525,-0.115,-0.005
3526,-0.055,0.025
3527,-0.025,0.045
3528,-0.055,0.045
3529,0.015,0.045
3530,0.075,0.015
3531,0.015,-0.025
3532,-0.005,-0.045
3533,-0.075,-0.055
3534,-0.035,-0.025
3535,-0.045,-0.015
3536,-0.095,-0.045
3537,-0.105,-0.015
3538,-0.115,-0.015
3539,-0.125,0.005
3540,-0.155,-0.045
3541,-0.135,-0.035
3542,-0.055,-0.015
3543,-0.195,0.095
3544,-0.865,0.265
3545,-0.565,0.025
3546,0.905,-0.335
3547,2.565,-0.425
3548,2.825,-0.115
3549,2.405,0.395
3550,0.555,-0.585
3551,-0.395,-0.695
3552,-0.315,-0.165
3553,-0.285,0.005
3554,-0.345,0.045
3555,-0.315,0.005
3556,-0.285,-0.015
3557,-0.295,-0.055
3558,-0.275,-0.015
3559,-0.285,-0.035
3560,-0.255,-0.035
3561,-0.245,-0.025
3562,-0.225,0.005
3563,-0.175,-0.055
3564,-0.155,-0.055
3565,-0.075,-0.075
3566,-0.135,-0.025
3567,-0.075,-0.035
3568,-0.075,-0.065
3569,-0.085,-0.085
3570,-0.055,-0.025
3571,0.005,-0.145
3572,0.035,-0.165
3573,-0.015,-0.205
3574,-0.035,-0.185
3575,-0.085,-0.205
3576,-0.065,-0.175
3577,-0.095,-0.165
3578,-0.085,-0.145
3579,-0.045,-0.115
3580,-0.065,-0.105
3581,-0.045,-0.085
3582,-0.115,0.015
3583,-0.045,-0.045
3584,-0.105,-0.035
3585,-0.105,-0.055
3586,-0.075,0.005
3587,-0.095,-0.035
3588,-0.095,-0.045
3589,-0.115,-0.015
3590,-0.095,-0.025
3591,-0.095,-0.055
3592,-0.115,-0.045
3593,-0.075,-0.035
3594,-0.095,-0.045
3595,-0.115,-0.055
3596,-0.105,-0.055
3597,-0.105,-0.045
3598,-0.115,-0.065
3599,-0.115,-0.035
3600,-0.165,-0.055
3601,-0.105,-0.035
3602,-0.095,-0.045
3603,-0.165,-0.075
3604,-0.125,-0.075
3605,-0.125,-0.095
3606,-0.125,-0.055
3607,-0.165,-0.035
3608,-0.125,-0.055
3609,-0.085,-0.115
3610,-0.075,-0.135
3611,-0.195,-0.055
3612,-0.085,-0.055
3613,-0.135,-0.105
3614,-0.085,-0.025
3615,-0.085,-0.015
3616,-0.055,0.015
3617,-0.025,-0.045
3618,0.075,-0.085
3619,-0.095,-0.135
3620,-0.125,-0.115
3621,-0.085,-0.135
3622,-0.085,-0.105
3623,-0.135,-0.145
3624,-0.055,-0.105
3625,-0.095,-0.105
3626,-0.165,-0.055
3627,-0.275,-0.065
3628,-0.235,-0.055
3629,-0.115,-0.085
3630,-0.095,-0.115
3631,-0.335,-0.015
3632,-0.905,0.025
3633,-0.495,-0.185
3634,1.015,-0.625
3635,2.635,-0.375
3636,2.705,0.055
3637,2.535,0.735
3638,0.775,0.065
3639,-0.485,-0.855
3640,-0.485,-0.405
3641,-0.385,-0.185
3642,-0.315,-0.135
3643,-0.375,-0.185
3644,-0.325,-0.205
3645,-0.345,-0.175
3646,-0.335,-0.135
3647,-0.425,-0.145
3648,-0.385,-0.075
3649,-0.295,-0.205
3650,-0.295,-0.205
3651,-0.185,-0.225
3652,-0.285,-0.265
3653,-0.255,-0.215
3654,-0.225,-0.255
3655,-0.205,-0.245
3656,-0.145,-0.265
3657,-0.145,-0.395
3658,-0.145,-0.295
3659,-0.135,-0.235
3660,-0.115,-0.375
3661,-0.095,-0.355
3662,-0.085,-0.315
3663,-0.045,-0.305
3664,-0.125,-0.275
3665,-0.105,-0.205
3666,-0.115,-0.145
3667,-0.075,-0.215
3668,-0.085,-0.175
3669,-0.095,-0.165
3670,-0.135,-0.135
3671,-0.135,-0.105
3672,-0.255,-0.105
3673,-0.215,-0.075
3674,-0.225,-0.055
3675,-0.125,-0.185
3676,-0.215,-0.205
3677,-0.245,-0.105
3678,-0.235,-0.075
3679,-0.205,-0.065
3680,-0.195,-0.135
3681,-0.235,-0.105
3682,-0.145,-0.125
3683,-0.155,-0.125
3684,-0.135,-0.145
3685,-0.215,-0.165
3686,-0.125,-0.175
3687,-0.235,-0.125
3688,-0.255,-0.025
3689,-0.185,-0.185
3690,-0.195,-0.145
3691,-0.225,-0.095
3692,-0.275,-0.095
3693,-0.135,-0.145
3694,-0.135,-0.065
3695,-0.165,-0.105
3696,-0.095,-0.105
3697,-0.075,-0.135
3698,-0.105,-0.125
3699,-0.135,-0.145
3700,-0.185,-0.175
3701,-0.215,-0.135
3702,-0.225,-0.105
3703,-0.185,-0.125
3704,-0.285,-0.145
3705,-0.135,-0.205
3706,-0.275,-0.205
3707,-0.305,-0.095
3708,-0.265,-0.065
3709,-0.195,-0.145
3710,-0.445,-0.055
3711,-1.105,0.165
3712,-0.595,0.015
3713,0.995,-0.295
3714,2.615,-0.445
3715,2.975,-0.425
3716,2.835,0.055
3717,0.695,-0.605
3718,-0.545,-0.835
3719,-0.545,-0.435
3720,-0.505,-0.055
3721,-0.425,-0.045
3722,-0.365,-0.105
3723,-0.455,-0.115
3724,-0.435,-0.065
3725,-0.415,-0.065
3726,-0.365,-0.125
3727,-0.395,-0.145
3728,-0.385,-0.065
3729,-0.285,-0.105
3730,-0.275,-0.125
3731,-0.195,-0.115
3732,-0.305,-0.155
3733,-0.325,-0.015
3734,-0.205,-0.055
3735,-0.145,-0.185
3736,-0.105,-0.185
3737,-0.115,-0.165
3738,-0.095,-0.135
3739,-0.055,-0.175
3740,-0.095,-0.185
3741,-0.085,-0.215
3742,-0.165,-0.125
3743,-0.135,-0.165
3744,-0.105,-0.225
3745,-0.165,-0.245
3746,-0.055,-0.195
3747,-0.115,-0.145
3748,-0.245,-0.065
3749,-0.235,0.015
3750,-0.225,-0.055
3751,-0.205,-0.055
3752,-0.195,-0.075
3753,-0.235,-0.115
3754,-0.065,-0.175
3755,-0.135,-0.185
3756,-0.305,-0.055
3757,-0.255,-0.015
3758,-0.215,-0.035
3759,-0.225,-0.075
3760,-0.185,-0.065
3761,-0.205,-0.065
3762,-0.175,-0.085
3763,-0.185,-0.105
3764,-0.165,-0.125
3765,-0.175,-0.115
3766,-0.185,-0.095
3767,-0.165,-0.095
3768,-0.175,-0.105
3769,-0.215,-0.075
3770,-0.205,-0.085
3771,-0.195,-0.115
3772,-0.165,-0.105
3773,-0.165,-0.105
3774,-0.135,-0.065
3775,-0.065,-0.065
3776,-0.175,-0.055
3777,-0.105,-0.065
3778,-0.035,-0.095
3779,-0.095,-0.105
3780,-0.135,-0.085
3781,-0.195,-0.105
3782,-0.135,-0.135
3783,-0.105,-0.135
3784,-0.135,-0.185
3785,-0.285,-0.095
3786,-0.265,-0.035
3787,-0.195,-0.095
3788,-0.205,-0.125
3789,-0.245,-0.105
3790,-0.145,-0.055
3791,-0.605,0.125
3792,-0.945,0.145
3793,-0.345,-0.185
3794,1.675,-0.345
3795,2.905,-0.605
3796,2.935,-0.075
3797,2.225,-0.265
3798,0.085,-1.005
3799,-0.425,-0.585
3800,-0.345,-0.075
3801,-0.345,-0.035
3802,-0.395,-0.055
3803,-0.365,-0.055
3804,-0.435,-0.015
3805,-0.285,-0.085
3806,-0.375,-0.085
3807,-0.395,-0.015
3808,-0.365,0.015
3809,-0.295,-0.095
3810,-0.315,-0.015
3811,-0.285,-0.075
3812,-0.175,-0.075
3813,-0.215,-0.145
3814,-0.165,-0.085
3815,-0.165,-0.145
3816,-0.155,-0.115
3817,-0.105,-0.145
3818,-0.085,-0.155
3819,-0.135,-0.185
3820,-0.145,-0.155
3821,-0.105,-0.165
3822,-0.115,-0.205
3823,-0.155,-0.095
3824,-0.125,-0.135
3825,-0.115,-0.095
3826,-0.115,-0.105
3827,-0.015,-0.085
3828,-0.105,-0.105
3829,-0.135,-0.055
3830,-0.065,-0.105
3831,-0.155,-0.085
3832,-0.205,-0.015
3833,-0.195,0.035
3834,-0.145,-0.005
3835,-0.155,-0.015
3836,-0.165,-0.025
3837,-0.145,-0.015
3838,-0.125,-0.015
3839,-0.135,-0.025
3840,-0.145,-0.045
3841,-0.145,-0.035
3842,-0.125,-0.025
3843,-0.125,-0.015
3844,-0.155,-0.005
3845,-0.095,-0.035
3846,-0.115,-0.015
3847,-0.155,-0.065
3848,-0.125,-0.025
3849,-0.115,-0.025
3850,-0.105,-0.005
3851,-0.115,-0.045
3852,-0.065,-0.025
3853,-0.055,0.035
3854,-0.075,0.045
3855,0.015,0.005
3856,0.055,-0.045
3857,-0.025,-0.045
3858,-0.055,-0.065
3859,-0.035,-0.095
3860,-0.065,-0.075
3861,-0.145,-0.005
3862,-0.145,0.005
3863,-0.165,-0.025
3864,-0.125,-0.045
3865,-0.135,-0.025
3866,-0.145,-0.035
3867,-0.155,-0.035
3868,-0.105,-0.035
3869,-0.355,0.125
3870,-0.835,0.285
3871,-0.405,-0.065
3872,1.105,-0.465
3873,2.665,-0.315
3874,2.965,0.105
3875,2.415,0.245
3876,0.365,-0.805
3877,-0.375,-0.595
3878,-0.285,-0.075
3879,-0.255,0.025
3880,-0.305,0.005
3881,-0.295,-0.015
3882,-0.295,-0.025
3883,-0.295,-0.005
3884,-0.295,-0.025
3885,-0.265,-0.025
3886,-0.275,-0.015
3887,-0.235,-0.025
3888,-0.215,-0.045
3889,-0.185,-0.055
3890,-0.155,-0.055
3891,-0.125,-0.065
3892,-0.145,-0.085
3893,-0.105,-0.085
3894,-0.085,-0.105
3895,-0.065,-0.135
3896,-0.045,-0.155
3897,-0.005,-0.165
3898,-0.015,-0.185
3899,-0.025,-0.215
3900,-0.095,-0.215
3901,-0.015,-0.215
3902,-0.045,-0.165
3903,-0.075,-0.145
3904,-0.055,-0.115
3905,-0.065,-0.075
3906,-0.015,-0.025
3907,-0.025,0.015
3908,-0.025,0.035
3909,-0.055,0.045
3910,-0.045,0.065
3911,-0.045,0.045
3912,-0.065,0.045
3913,-0.055,0.065
3914,-0.025,0.065
3915,-0.045,0.055
3916,-0.065,0.045
3917,-0.045,0.065
3918,-0.075,0.075
3919,-0.045,0.045
3920,-0.055,0.055
3921,-0.085,0.065
3922,-0.045,0.065
3923,-0.035,0.065
3924,-0.055,0.045
3925,-0.065,0.055
3926,-0.045,0.055
3927,-0.055,0.045
3928,-0.075,0.045
3929,-0.065,0.045
3930,-0.065,0.065
3931,-0.105,0.045
3932,-0.025,0.065
3933,0.015,0.085
3934,0.005,0.085
3935,0.065,0.105
3936,0.105,0.045
3937,0.045,0.025
3938,0.005,0.015
3939,-0.025,0.015
3940,-0.015,0.005
3941,-0.055,0.055
3942,-0.065,0.055
3943,-0.145,0.025
3944,-0.105,0.005
3945,-0.125,0.025
3946,-0.115,0.045
3947,-0.135,0.045
3948,-0.095,0.035
3949,-0.275,0.155
3950,-0.765,0.215
3951,-0.525,-0.125
3952,0.995,-0.645
3953,2.615,-0.145
3954,2.875,0.505
3955,2.455,0.835
3956,0.595,-0.365
3957,-0.345,-0.675
3958,-0.285,-0.165
3959,-0.265,0.015
3960,-0.325,-0.015
3961,-0.295,0.005
3962,-0.275,0.005
3963,-0.265,-0.025
3964,-0.275,-0.025
3965,-0.255,-0.015
3966,-0.235,-0.025
3967,-0.205,-0.045
3968,-0.185,-0.045
3969,-0.185,-0.065
3970,-0.155,-0.085
3971,-0.125,-0.095
3972,-0.095,-0.095
3973,-0.065,-0.115
3974,-0.035,-0.125
3975,-0.025,-0.165
3976,-0.015,-0.215
3977,0.015,-0.225
3978,0.035,-0.235
3979,0.005,-0.255
3980,0.005,-0.265
3981,0.005,-0.225
3982,-0.015,-0.185
3983,0.005,-0.165
3984,0.025,-0.125
3985,0.015,-0.075
3986,0.035,0.005
3987,0.005,0.025
3988,-0.025,0.015
3989,-0.025,0.045
3990,-0.025,0.075
3991,-0.055,0.065
3992,-0.045,0.065
3993,-0.035,0.045
3994,-0.035,0.065
3995,-0.045,0.065
3996,-0.075,0.065
3997,-0.055,0.065
3998,-0.045,0.065
3999,-0.055,0.065
4000,-0.035,0.055
4001,-0.055,0.065
4002,-0.055,0.065
4003,-0.065,0.045
4004,-0.045,0.065
4005,-0.065,0.065
4006,-0.055,0.055
4007,-0.055,0.045
4008,-0.075,0.075
4009,-0.085,0.055
4010,-0.045,0.075
4011,-0.035,0.075
4012,-0.025,0.085
4013,-0.045,0.095
4014,0.025,0.125
4015,0.105,0.065
4016,0.105,0.005
4017,-0.025,0.035
4018,-0.035,0.045
4019,-0.025,0.005
4020,-0.055,0.035
4021,-0.065,0.045
4022,-0.075,0.045
4023,-0.095,0.045
4024,-0.135,0.025
4025,-0.125,0.045
4026,-0.125,0.045
4027,-0.085,0.045
4028,-0.205,0.095
4029,-0.845,0.295
4030,-0.445,0.095
4031,1.155,-0.245
4032,2.755,-0.205
4033,2.945,0.075
4034,2.555,0.615
4035,0.465,-0.295
4036,-0.505,-0.675
4037,-0.365,-0.205
4038,-0.305,0.015
4039,-0.305,0.045
4040,-0.295,0.035
4041,-0.305,0.015
4042,-0.295,0.015
4043,-0.275,0.015
4044,-0.255,0.015
4045,-0.225,-0.005
4046,-0.235,0.005
4047,-0.175,-0.045
4048,-0.175,-0.035
4049,-0.155,-0.015
4050,-0.135,-0.025
4051,-0.115,-0.065
4052,-0.085,-0.085
4053,-0.055,-0.105
4054,-0.025,-0.115
4055,-0.015,-0.135
4056,0.035,-0.155
4057,0.025,-0.155
4058,0.025,-0.145
4059,0.015,-0.175
4060,-0.005,-0.145
4061,-0.005,-0.115
4062,-0.015,-0.125
4063,-0.015,-0.065
4064,0.005,-0.045
4065,-0.035,-0.025
4066,-0.045,0.045
4067,-0.045,0.015
4068,-0.105,-0.005
4069,-0.115,0.015
4070,-0.105,0.025
4071,-0.145,0.005
4072,-0.125,0.025
4073,-0.095,0.005
4074,-0.105,0.045
4075,-0.145,0.025
4076,-0.145,-0.055
4077,-0.095,-0.025
4078,-0.105,0.075
4079,-0.115,0.035
4080,-0.125,0.025
4081,-0.115,-0.055
4082,-0.125,-0.005
4083,-0.125,-0.015
4084,-0.125,-0.015
4085,-0.095,-0.005
4086,-0.105,-0.035
4087,-0.115,0.005
4088,-0.125,-0.055
4089,-0.135,-0.055
4090,-0.095,0.035
4091,-0.075,0.025
4092,-0.105,-0.015
4093,-0.055,0.045
4094,-0.025,0.025
4095,0.005,-0.075
4096,-0.045,-0.065
4097,-0.095,-0.075
4098,-0.075,-0.035
4099,-0.105,-0.055
4100,-0.115,-0.015
4101,-0.145,-0.075
4102,-0.155,-0.095
4103,-0.165,-0.035
4104,-0.185,-0.055
4105,-0.165,-0.065
4106,-0.115,-0.015
4107,-0.185,-0.045
4108,-0.735,0.225
4109,-0.885,0.245
4110,0.175,-0.165
4111,1.975,-0.175
4112,3.005,-0.355
4113,2.945,-0.055
4114,2.045,0.015
4115,-0.035,-0.815
4116,-0.555,-0.605
4117,-0.345,-0.135
4118,-0.355,-0.005
4119,-0.335,-0.035
4120,-0.365,-0.045
4121,-0.345,-0.025
4122,-0.315,-0.055
4123,-0.325,-0.055
4124,-0.355,-0.055
4125,-0.235,-0.075
4126,-0.285,-0.035
4127,-0.255,-0.055
4128,-0.215,-0.115
4129,-0.185,-0.075
4130,-0.165,-0.085
4131,-0.135,-0.135
4132,-0.115,-0.155
4133,-0.105,-0.115
4134,-0.055,-0.155
4135,-0.045,-0.205
4136,-0.025,-0.205
4137,-0.035,-0.185
4138,0.005,-0.235
4139,-0.045,-0.185
4140,-0.055,-0.195
4141,-0.065,-0.215
4142,-0.055,-0.105
4143,-0.065,-0.095
4144,-0.085,-0.095
4145,-0.105,-0.105
4146,-0.105,-0.035
4147,-0.115,-0.065
4148,-0.165,-0.045
4149,-0.175,-0.065
4150,-0.175,-0.055
4151,-0.165,-0.085
4152,-0.155,-0.045
4153,-0.155,-0.085
4154,-0.145,-0.065
4155,-0.155,-0.075
4156,-0.185,-0.075
4157,-0.175,-0.075
4158,-0.185,-0.055
4159,-0.165,-0.065
4160,-0.125,-0.105
4161,-0.115,-0.075
4162,-0.145,-0.105
4163,-0.145,-0.075
4164,-0.155,-0.145
4165,-0.155,-0.105
4166,-0.155,-0.105
4167,-0.145,-0.075
4168,-0.175,-0.105
4169,-0.135,-0.095
4170,-0.085,-0.055
4171,-0.105,-0.045
4172,-0.095,-0.035
4173,-0.015,-0.075
4174,-0.005,-0.125
4175,-0.075,-0.125
4176,-0.085,-0.155
4177,-0.145,-0.155
4178,-0.145,-0.125
4179,-0.125,-0.085
4180,-0.145,-0.125
4181,-0.165,-0.125
4182,-0.215,-0.105
4183,-0.205,-0.115
4184,-0.205,-0.105
4185,-0.175,-0.105
4186,-0.155,-0.105
4187,-0.585,0.095
4188,-0.985,0.155
4189,-0.235,-0.135
4190,1.545,-0.345
4191,2.775,-0.525
4192,2.915,-0.145
4193,2.425,0.035
4194,0.295,-0.905
4195,-0.525,-0.765
4196,-0.365,-0.215
4197,-0.335,-0.045
4198,-0.355,-0.055
4199,-0.385,-0.085
4200,-0.355,-0.085
4201,-0.345,-0.095
4202,-0.375,-0.085
4203,-0.335,-0.085
4204,-0.315,-0.095
4205,-0.305,-0.105
4206,-0.255,-0.105
4207,-0.225,-0.105
4208,-0.235,-0.105
4209,-0.215,-0.115
4210,-0.165,-0.135
4211,-0.165,-0.135
4212,-0.155,-0.175
4213,-0.105,-0.195
4214,-0.085,-0.205
4215,-0.075,-0.225
4216,-0.055,-0.265
4217,-0.065,-0.265
4218,-0.065,-0.245
4219,-0.085,-0.235
4220,-0.065,-0.235
4221,-0.095,-0.195
4222,-0.115,-0.145
4223,-0.045,-0.105
4224,-0.085,-0.095
4225,-0.105,-0.075
4226,-0.095,-0.055
4227,-0.135,-0.065
4228,-0.145,-0.055
4229,-0.145,-0.065
4230,-0.135,-0.055
4231,-0.155,-0.065
4232,-0.155,-0.075
4233,-0.115,-0.055
4234,-0.135,-0.045
4235,-0.165,-0.065
4236,-0.125,-0.075
4237,-0.135,-0.065
4238,-0.155,-0.045
4239,-0.135,-0.055
4240,-0.135,-0.075
4241,-0.165,-0.065
4242,-0.155,-0.065
4243,-0.135,-0.065
4244,-0.175,-0.085
4245,-0.145,-0.065
4246,-0.105,-0.055
4247,-0.105,-0.075
4248,-0.125,-0.045
4249,-0.155,-0.055
4250,-0.055,-0.015
4251,-0.065,-0.005
4252,-0.035,-0.035
4253,0.015,-0.075
4254,-0.065,-0.085
4255,-0.075,-0.115
4256,-0.125,-0.105
4257,-0.085,-0.085
4258,-0.155,-0.045
4259,-0.175,-0.075
4260,-0.195,-0.095
4261,-0.175,-0.065
4262,-0.165,-0.105
4263,-0.185,-0.075
4264,-0.175,-0.075
4265,-0.175,-0.075
4266,-0.455,0.155
4267,-0.915,0.215
4268,-0.465,-0.195
4269,1.395,-0.465
4270,2.775,-0.455
4271,2.895,0.085
4272,2.285,0.075
4273,0.215,-0.955
4274,-0.465,-0.665
4275,-0.375,-0.115
4276,-0.375,-0.035
4277,-0.385,-0.045
4278,-0.385,-0.045
4279,-0.415,-0.065
4280,-0.375,-0.085
4281,-0.345,-0.085
4282,-0.345,-0.075
4283,-0.295,-0.085
4284,-0.295,-0.105
4285,-0.255,-0.105
4286,-0.245,-0.105
4287,-0.235,-0.115
4288,-0.235,-0.145
4289,-0.215,-0.165
4290,-0.155,-0.175
4291,-0.145,-0.205
4292,-0.125,-0.235
4293,-0.115,-0.255
4294,-0.085,-0.265
4295,-0.065,-0.275
4296,-0.085,-0.305
4297,-0.075,-0.295
4298,-0.085,-0.265
4299,-0.095,-0.245
4300,-0.085,-0.215
4301,-0.065,-0.155
4302,-0.105,-0.105
4303,-0.095,-0.055
4304,-0.105,-0.045
4305,-0.105,-0.035
4306,-0.145,-0.005
4307,-0.105,-0.015
4308,-0.145,-0.035
4309,-0.135,-0.035
4310,-0.125,-0.025
4311,-0.115,-0.025
4312,-0.135,-0.035
4313,-0.125,-0.005
4314,-0.165,-0.005
4315,-0.105,-0.025
4316,-0.115,-0.035
4317,-0.145,-0.025
4318,-0.165,-0.025
4319,-0.135,-0.025
4320,-0.135,-0.015
4321,-0.155,-0.015
4322,-0.105,-0.035
4323,-0.145,-0.045
4324,-0.145,-0.045
4325,-0.135,-0.035
4326,-0.145,-0.015
4327,-0.175,-0.055
4328,-0.185,-0.065
4329,-0.135,-0.045
4330,-0.095,-0.015
4331,-0.105,0.005
4332,-0.115,-0.005
4333,-0.055,-0.015
4334,-0.005,-0.025
4335,-0.015,-0.065
4336,-0.045,-0.105
4337,-0.115,-0.105
4338,-0.125,-0.065
4339,-0.145,-0.045
4340,-0.175,-0.065
4341,-0.175,-0.085
4342,-0.175,-0.095
4343,-0.215,-0.065
4344,-0.215,-0.055
4345,-0.195,-0.065
4346,-0.215,-0.095
4347,-0.155,0.005
4348,-0.845,0.265
4349,-0.745,-0.015
4350,0.495,-0.415
4351,2.335,-0.295
4352,2.925,-0.135
4353,2.825,0.475
4354,1.285,-0.155
4355,-0.355,-0.955
4356,-0.485,-0.475
4357,-0.375,-0.095
4358,-0.385,-0.045
4359,-0.405,-0.065
4360,-0.395,-0.085
4361,-0.435,-0.095
4362,-0.425,-0.085
4363,-0.335,-0.095
4364,-0.335,-0.075
4365,-0.325,-0.095
4366,-0.305,-0.135
4367,-0.265,-0.135
4368,-0.265,-0.135
4369,-0.255,-0.155
4370,-0.255,-0.155
4371,-0.255,-0.165
4372,-0.195,-0.215
4373,-0.145,-0.245
4374,-0.135,-0.265
4375,-0.105,-0.275
4376,-0.125,-0.285
4377,-0.105,-0.305
4378,-0.145,-0.305
4379,-0.085,-0.305
4380,-0.145,-0.245
4381,-0.055,-0.195
4382,-0.095,-0.165
4383,-0.105,-0.155
4384,-0.115,-0.095
4385,-0.115,-0.075
4386,-0.125,-0.015
4387,-0.165,-0.045
4388,-0.155,-0.025
4389,-0.185,-0.025
4390,-0.185,-0.005
4391,-0.185,-0.055
4392,-0.175,-0.035
4393,-0.185,-0.035
4394,-0.175,-0.025
4395,-0.195,-0.025
4396,-0.165,-0.045
4397,-0.165,-0.045
4398,-0.145,-0.015
4399,-0.165,-0.015
4400,-0.165,-0.045
4401,-0.165,-0.035
4402,-0.155,-0.025
4403,-0.195,-0.045
4404,-0.185,-0.035
4405,-0.185,-0.035
4406,-0.145,-0.045
4407,-0.145,-0.015
4408,-0.155,-0.035
4409,-0.195,-0.035
4410,-0.185,-0.035
4411,-0.165,-0.035
4412,-0.175,-0.045
4413,-0.185,-0.045
4414,-0.185,-0.035
4415,-0.145,-0.035
4416,-0.095,0.025
4417,-0.145,0.025
4418,-0.075,0.005
4419,-0.025,-0.035
4420,-0.065,-0.045
4421,-0.105,-0.085
4422,-0.095,-0.075
4423,-0.125,-0.055
4424,-0.135,-0.025
4425,-0.145,-0.025
4426,-0.165,-0.035
4427,-0.195,-0.045
4428,-0.205,-0.055
4429,-0.195,-0.055
4430,-0.185,-0.025
4431,-0.165,-0.025
4432,-0.215,0.005
4433,-0.905,0.325
4434,-0.715,0.105
4435,0.675,-0.355
4436,2.455,-0.305
4437,2.995,-0.125
4438,2.825,0.395
4439,0.825,-0.595
4440,-0.455,-0.845
4441,-0.425,-0.225
4442,-0.365,0.015
4443,-0.395,-0.005
4444,-0.425,-0.015
4445,-0.405,-0.025
4446,-0.405,-0.035
4447,-0.375,-0.045
4448,-0.355,-0.045
4449,-0.315,-0.055
4450,-0.345,-0.085
4451,-0.295,-0.085
4452,-0.275,-0.095
4453,-0.255,-0.105
4454,-0.235,-0.105
4455,-0.215,-0.105
4456,-0.195,-0.175
4457,-0.185,-0.175
4458,-0.165,-0.175
4459,-0.125,-0.215
4460,-0.115,-0.215
4461,-0.115,-0.205
4462,-0.095,-0.235
4463,-0.115,-0.215
4464,-0.075,-0.225
4465,-0.095,-0.185
4466,-0.075,-0.135
4467,-0.095,-0.115
4468,-0.105,-0.095
4469,-0.095,-0.065
4470,-0.115,-0.015
4471,-0.125,-0.025
4472,-0.155,-0.015
4473,-0.185,-0.055
4474,-0.165,-0.015
4475,-0.175,-0.045
4476,-0.195,-0.035
4477,-0.215,-0.035
4478,-0.175,-0.015
4479,-0.175,-0.025
4480,-0.185,-0.045
4481,-0.195,-0.035
4482,-0.185,-0.015
4483,-0.165,-0.035
4484,-0.195,-0.035
4485,-0.165,-0.025
4486,-0.165,-0.035
4487,-0.195,-0.045
4488,-0.175,-0.045
4489,-0.185,-0.035
4490,-0.155,-0.025
4491,-0.195,-0.045
4492,-0.185,-0.045
4493,-0.195,-0.055
4494,-0.175,-0.045
4495,-0.205,-0.075
4496,-0.205,-0.045
4497,-0.195,-0.045
4498,-0.205,-0.065
4499,-0.205,-0.065
4500,-0.205,-0.065
4501,-0.195,-0.055
4502,-0.175,-0.045
4503,-0.165,-0.055
4504,-0.135,-0.025
4505,-0.165,-0.015
4506,-0.085,0.025
4507,-0.085,-0.045
4508,-0.065,-0.085
4509,-0.085,-0.085
4510,-0.145,-0.095
4511,-0.155,-0.085
4512,-0.165,-0.075
4513,-0.175,-0.045
4514,-0.165,-0.065
4515,-0.225,-0.075
4516,-0.215,-0.095
4517,-0.195,-0.075
4518,-0.165,-0.055
4519,-0.135,-0.075
4520,-0.155,-0.035
4521,-0.685,0.235
4522,-0.915,0.265
4523,-0.005,-0.075
4524,1.835,-0.235
4525,2.905,-0.535
4526,3.045,-0.155
4527,2.445,-0.085
4528,0.185,-0.985
4529,-0.495,-0.655
4530,-0.375,-0.085
4531,-0.345,0.025
4532,-0.365,-0.005
4533,-0.375,-0.015
4534,-0.395,-0.015
4535,-0.375,-0.025
4536,-0.385,-0.035
4537,-0.345,-0.035
4538,-0.325,-0.015
4539,-0.295,-0.025
4540,-0.305,-0.045
4541,-0.295,-0.035
4542,-0.205,-0.025
4543,-0.205,-0.035
4544,-0.165,-0.055
4545,-0.145,-0.045
4546,-0.135,-0.035
4547,-0.105,-0.075
4548,-0.055,-0.075
4549,-0.085,-0.065
4550,-0.025,-0.085
4551,-0.045,-0.095
4552,-0.065,-0.095
4553,-0.105,-0.095
4554,-0.075,-0.085
4555,-0.095,-0.085
4556,-0.095,-0.065
4557,-0.105,-0.045
4558,-0.155,-0.035
4559,-0.155,-0.035
4560,-0.185,-0.045
4561,-0.145,-0.025
4562,-0.145,-0.025
4563,-0.175,-0.045
4564,-0.195,-0.035
4565,-0.195,-0.035
4566,-0.195,-0.025
4567,-0.195,-0.025
4568,-0.165,-0.025
4569,-0.195,-0.025
4570,-0.165,-0.025
4571,-0.155,-0.025
4572,-0.175,-0.035
4573,-0.175,-0.035
4574,-0.175,-0.015
4575,-0.215,-0.035
4576,-0.135,-0.045
4577,-0.125,-0.025
4578,-0.165,-0.015
4579,-0.155,-0.025
4580,-0.205,-0.045
4581,-0.175,-0.045
4582,-0.165,-0.025
4583,-0.195,-0.035
4584,-0.185,-0.055
4585,-0.175,-0.035
4586,-0.175,-0.035
4587,-0.195,-0.045
4588,-0.205,-0.055
4589,-0.175,-0.045
4590,-0.155,-0.015
4591,-0.155,-0.045
4592,-0.155,-0.045
4593,-0.175,-0.035
4594,-0.095,-0.015
4595,-0.105,0.025
4596,-0.115,0.025
4597,-0.065,0.015
4598,0.005,-0.035
4599,-0.085,-0.055
4600,-0.115,-0.075
4601,-0.135,-0.075
4602,-0.105,-0.055
4603,-0.115,-0.045
4604,-0.135,-0.045
4605,-0.185,-0.065
4606,-0.195,-0.045
4607,-0.205,-0.065
4608,-0.215,-0.085
4609,-0.215,-0.055
4610,-0.155,-0.035
4611,-0.195,-0.025
4612,-0.805,0.265
4613,-0.975,0.245
4614,0.075,-0.125
4615,2.045,-0.335
4616,3.055,-0.625
4617,3.135,-0.015
4618,2.115,-0.715
4619,0.125,-0.975
4620,-0.325,-0.305
4621,-0.345,0.055
4622,-0.365,0.045
4623,-0.415,0.025
4624,-0.415,0.005
4625,-0.355,0.005
4626,-0.455,0.005
4627,-0.385,-0.005
4628,-0.345,0.005
4629,-0.325,-0.005
4630,-0.305,-0.005
4631,-0.325,-0.025
4632,-0.285,-0.005
4633,-0.225,-0.005
4634,-0.215,-0.005
4635,-0.195,-0.015
4636,-0.185,-0.035
4637,-0.135,-0.035
4638,-0.095,-0.025
4639,-0.135,-0.045
4640,-0.065,-0.055
4641,-0.025,-0.075
4642,-0.065,-0.065
4643,-0.095,-0.095
4644,-0.115,-0.095
4645,-0.115,-0.085
4646,-0.065,-0.065
4647,-0.145,-0.055
4648,-0.095,-0.035
4649,-0.085,-0.025
4650,-0.105,0.015
4651,-0.145,-0.005
4652,-0.145,-0.005
4653,-0.145,0.015
4654,-0.175,0.015
4655,-0.155,-0.005
4656,-0.195,-0.005
4657,-0.145,0.015
4658,-0.175,0.015
4659,-0.145,0.005
4660,-0.145,-0.015
4661,-0.155,-0.015
4662,-0.155,0.035
4663,-0.125,0.025
4664,-0.175,0.025
4665,-0.195,-0.005
4666,-0.155,0.005
4667,-0.135,0.005
4668,-0.155,-0.015
4669,-0.145,-0.005
4670,-0.165,0.005
4671,-0.175,-0.005
4672,-0.185,-0.015
4673,-0.155,0.005
4674,-0.175,-0.015
4675,-0.175,-0.005
4676,-0.195,-0.025
4677,-0.155,-0.015
4678,-0.175,0.005
4679,-0.155,-0.025
4680,-0.155,-0.035
4681,-0.185,-0.025
4682,-0.155,-0.005
4683,-0.165,-0.025
4684,-0.185,-0.015
4685,-0.165,-0.015
4686,-0.135,-0.025
4687,-0.165,-0.025
4688,-0.155,-0.025
4689,-0.145,-0.025
4690,-0.135,-0.015
4691,-0.135,-0.025
4692,-0.155,-0.035
4693,-0.165,-0.025
4694,-0.105,-0.025
4695,-0.085,0.025
4696,-0.085,0.025
4697,-0.075,0.045
4698,0.005,-0.015
4699,0.005,-0.055
4700,-0.095,-0.035
4701,-0.085,-0.065
4702,-0.115,-0.065
4703,-0.095,-0.055
4704,-0.145,-0.035
4705,-0.165,-0.035
4706,-0.175,-0.045
4707,-0.195,-0.045
4708,-0.215,-0.065
4709,-0.145,-0.045
4710,-0.125,-0.005
4711,-0.245,0.045
4712,-0.805,0.275
4713,-0.785,0.145
4714,0.615,-0.275
4715,2.425,-0.435
4716,3.115,-0.385
4717,3.005,0.145
4718,1.295,-0.775
4719,-0.155,-0.855
4720,-0.305,-0.165
4721,-0.325,0.065
4722,-0.325,0.055
4723,-0.355,-0.005
4724,-0.355,0.005
4725,-0.355,-0.005
4726,-0.345,0.015
4727,-0.325,-0.005
4728,-0.315,-0.015
4729,-0.295,-0.005
4730,-0.285,-0.005
4731,-0.215,-0.025
4732,-0.215,-0.025
4733,-0.175,-0.035
4734,-0.155,-0.015
4735,-0.125,-0.065
4736,-0.115,-0.085
4737,-0.095,-0.085
4738,-0.085,-0.095
4739,-0.075,-0.115
4740,-0.105,-0.125
4741,-0.025,-0.145
4742,-0.085,-0.135
4743,-0.065,-0.165
4744,-0.065,-0.155
4745,-0.055,-0.135
4746,-0.015,-0.085
4747,-0.015,-0.075
4748,-0.035,-0.045
4749,-0.045,-0.005
4750,-0.025,0.025
4751,-0.035,0.025
4752,-0.075,0.025
4753,-0.085,0.045
4754,-0.095,0.055
4755,-0.115,0.045
4756,-0.055,0.045
4757,-0.065,0.025
4758,-0.065,0.065
4759,-0.105,0.065
4760,-0.085,0.065
4761,-0.115,0.045
4762,-0.115,0.075
4763,-0.075,0.055
4764,-0.135,0.065
4765,-0.135,0.065
4766,-0.065,0.085
4767,-0.065,0.055
4768,-0.085,0.035
4769,-0.135,0.065
4770,-0.085,0.075
4771,-0.095,0.065
4772,-0.105,0.035
4773,-0.095,0.065
4774,-0.125,0.075
4775,-0.115,0.075
4776,-0.105,0.045
4777,-0.105,0.025
4778,-0.075,0.035
4779,-0.115,0.025
4780,-0.095,0.005
4781,-0.055,0.005
4782,-0.085,0.075
4783,-0.115,0.085
4784,-0.125,0.055
4785,-0.045,0.065
4786,-0.015,0.115
4787,-0.045,0.105
4788,0.025,0.095
4789,0.055,0.025
4790,0.055,0.015
4791,0.045,-0.015
4792,-0.015,-0.025
4793,-0.055,0.005
4794,-0.075,0.065
4795,-0.085,0.075
4796,-0.125,0.035
4797,-0.105,0.015
4798,-0.125,0.035
4799,-0.095,-0.005
4800,-0.095,-0.005
4801,-0.085,0.005
4802,-0.145,0.075
4803,-0.795,0.235
4804,-0.525,0.005
4805,0.705,-0.515
4806,2.455,-0.185
4807,2.745,0.195
4808,2.435,0.665
4809,0.615,-0.365
4810,-0.325,-0.665
4811,-0.285,-0.195
4812,-0.235,-0.015
4813,-0.245,-0.035
4814,-0.275,-0.025
4815,-0.295,-0.005
4816,-0.315,-0.005
4817,-0.305,-0.025
4818,-0.255,-0.055
4819,-0.265,-0.045
4820,-0.235,-0.025
4821,-0.195,-0.065
4822,-0.185,-0.115
4823,-0.105,-0.115
4824,-0.135,-0.105
4825,-0.125,-0.165
4826,-0.105,-0.165
4827,-0.065,-0.195
4828,-0.085,-0.205
4829,0.005,-0.245
4830,-0.045,-0.245
4831,0.005,-0.295
4832,-0.025,-0.325
4833,-0.065,-0.315
4834,-0.015,-0.275
4835,-0.105,-0.275
4836,-0.005,-0.245
4837,0.015,-0.315
4838,-0.035,-0.155
4839,-0.095,-0.045
4840,-0.015,-0.065
4841,-0.035,-0.105
4842,-0.045,-0.065
4843,-0.095,-0.035
4844,-0.085,-0.045
4845,-0.125,-0.045
4846,-0.025,-0.055
4847,-0.055,-0.075
4848,-0.055,-0.015
4849,-0.135,-0.035
4850,-0.075,-0.045
4851,-0.145,-0.045
4852,-0.095,0.005
4853,-0.115,-0.115
4854,-0.085,-0.095
4855,-0.075,-0.085
4856,-0.085,-0.085
4857,-0.095,-0.105
4858,-0.135,-0.065
4859,-0.175,-0.055
4860,-0.115,-0.025
4861,-0.085,-0.115
4862,-0.125,-0.095
4863,-0.125,-0.095
4864,-0.115,-0.095
4865,-0.125,-0.135
4866,-0.125,-0.115
4867,-0.145,-0.105
4868,-0.145,-0.065
4869,-0.145,-0.105
4870,-0.145,-0.115
4871,-0.145,-0.125
4872,-0.055,-0.115
4873,-0.075,-0.085
4874,-0.115,-0.075
4875,-0.025,-0.055
4876,-0.005,-0.075
4877,-0.005,-0.125
4878,-0.035,-0.205
4879,-0.105,-0.155
4880,-0.075,-0.175
4881,-0.105,-0.145
4882,-0.145,-0.125
4883,-0.105,-0.155
4884,-0.175,-0.155
4885,-0.185,-0.115
4886,-0.215,-0.125
4887,-0.185,-0.145
4888,-0.145,-0.145
4889,-0.245,-0.105
4890,-0.735,0.095
4891,-0.665,-0.195
4892,0.555,-0.795
4893,2.325,-0.395
4894,2.725,0.085
4895,2.535,0.605
4896,0.925,-0.155
4897,-0.335,-0.815
4898,-0.415,-0.405
4899,-0.385,-0.205
4900,-0.365,-0.185
4901,-0.345,-0.205
4902,-0.355,-0.205
4903,-0.355,-0.215
4904,-0.345,-0.235
4905,-0.345,-0.215
4906,-0.305,-0.225
4907,-0.305,-0.245
4908,-0.305,-0.235
4909,-0.265,-0.285
4910,-0.225,-0.305
4911,-0.215,-0.295
4912,-0.225,-0.325
4913,-0.195,-0.395
4914,-0.205,-0.345
4915,-0.155,-0.445
4916,-0.175,-0.485
4917,-0.095,-0.505
4918,-0.125,-0.485
4919,-0.085,-0.525
4920,-0.125,-0.525
4921,-0.145,-0.445
4922,-0.125,-0.415
4923,-0.085,-0.355
4924,-0.135,-0.345
4925,-0.095,-0.265
4926,-0.035,-0.225
4927,-0.025,-0.225
4928,-0.085,-0.185
4929,-0.095,-0.125
4930,-0.145,-0.085
4931,-0.085,-0.105
4932,-0.185,-0.145
4933,-0.205,-0.075
4934,-0.145,-0.105
4935,-0.105,-0.155
4936,-0.105,-0.155
4937,-0.135,-0.115
4938,-0.135,-0.125
4939,-0.145,-0.155
4940,-0.185,-0.135
4941,-0.195,-0.095
4942,-0.125,-0.115
4943,-0.145,-0.145
4944,-0.155,-0.115
4945,-0.165,-0.145
4946,-0.105,-0.125
4947,-0.155,-0.135
4948,-0.185,-0.145
4949,-0.095,-0.155
4950,-0.165,-0.145
4951,-0.165,-0.095
4952,-0.185,-0.125
4953,-0.145,-0.135
4954,-0.095,-0.115
4955,-0.115,-0.085
4956,-0.085,-0.055
4957,-0.035,-0.075
4958,0.065,-0.185
4959,-0.085,-0.145
4960,-0.065,-0.145
4961,-0.115,-0.165
4962,-0.075,-0.155
4963,-0.095,-0.105
4964,-0.155,-0.115
4965,-0.145,-0.135
4966,-0.155,-0.125
4967,-0.155,-0.145
4968,-0.225,-0.165
4969,-0.135,-0.135
4970,-0.105,-0.155
4971,-0.605,0.065
4972,-0.855,0.045
4973,-0.155,-0.335
4974,1.615,-0.585
4975,2.775,-0.265
4976,2.735,0.235
4977,2.165,0.385
4978,0.195,-0.775
4979,-0.495,-0.725
4980,-0.375,-0.265
4981,-0.375,-0.095
4982,-0.385,-0.125
4983,-0.365,-0.105
4984,-0.375,-0.165
4985,-0.365,-0.185
4986,-0.345,-0.165
4987,-0.395,-0.105
4988,-0.345,-0.125
4989,-0.335,-0.195
4990,-0.265,-0.205
4991,-0.215,-0.195
4992,-0.285,-0.175
4993,-0.235,-0.175
4994,-0.175,-0.185
4995,-0.175,-0.225
4996,-0.185,-0.255
4997,-0.045,-0.325
4998,-0.135,-0.325
4999,-0.095,-0.365
5000,-0.115,-0.375
5001,-0.215,-0.345
5002,-0.145,-0.265
5003,-0.165,-0.365
5004,-0.185,-0.295
5005,-0.105,-0.295
5006,-0.055,-0.205
5007,-0.075,-0.165
5008,-0.095,-0.155
5009,-0.085,-0.135
5010,-0.135,-0.065
5011,-0.125,-0.065
5012,-0.155,-0.065
5013,-0.095,-0.065
5014,-0.165,-0.085
5015,-0.115,-0.075
5016,-0.135,-0.065
5017,-0.135,-0.065
5018,-0.145,-0.075
5019,-0.125,-0.085
5020,-0.165,-0.145
5021,-0.195,-0.035
5022,-0.165,-0.025
5023,-0.145,-0.095
5024,-0.125,-0.125
5025,-0.155,-0.125
5026,-0.165,-0.015
5027,-0.155,-0.095
5028,-0.145,-0.145
5029,-0.155,-0.125
5030,-0.135,-0.085
5031,-0.205,-0.075
5032,-0.155,-0.105
5033,-0.095,-0.095
5034,-0.105,-0.055
5035,-0.115,-0.025
5036,-0.085,0.025
5037,0.005,-0.085
5038,0.025,-0.115
5039,-0.155,-0.125
5040,-0.105,-0.125
5041,-0.075,-0.115
5042,-0.085,-0.085
5043,-0.165,-0.095
5044,-0.205,-0.045
5045,-0.245,-0.055
5046,-0.225,-0.065
5047,-0.175,-0.105
5048,-0.155,-0.085
5049,-0.165,-0.115
5050,-0.235,-0.045
5051,-0.805,0.185
5052,-0.665,-0.045
5053,0.865,-0.575
5054,2.505,-0.335
5055,2.995,0.055
5056,2.635,0.365
5057,0.695,-0.745
5058,-0.325,-0.775
5059,-0.295,-0.225
5060,-0.335,-0.045
5061,-0.355,-0.065
5062,-0.345,-0.065
5063,-0.355,-0.115
5064,-0.355,-0.055
5065,-0.365,-0.095
5066,-0.315,-0.045
5067,-0.265,-0.135
5068,-0.325,-0.125
5069,-0.265,-0.135
5070,-0.315,-0.125
5071,-0.275,-0.095
5072,-0.225,-0.155
5073,-0.195,-0.155
5074,-0.145,-0.195
5075,-0.115,-0.205
5076,-0.085,-0.245
5077,-0.115,-0.255
5078,-0.115,-0.245
5079,-0.105,-0.255
5080,-0.085,-0.285
5081,-0.125,-0.245
5082,-0.135,-0.245
5083,-0.145,-0.235
5084,-0.095,-0.175
5085,-0.095,-0.195
5086,-0.085,-0.145
5087,-0.085,-0.105
5088,-0.035,-0.065
5089,-0.065,-0.045
5090,-0.155,-0.005
5091,-0.065,-0.005
5092,-0.145,-0.015
5093,-0.165,0.065
5094,-0.125,0.045
5095,-0.075,0.005
5096,-0.095,-0.035
5097,-0.105,-0.015
5098,-0.165,0.015
5099,-0.055,-0.035
5100,-0.115,-0.005
5101,-0.185,0.075
5102,-0.105,0.055
5103,-0.105,-0.035
5104,-0.085,-0.065
5105,-0.125,0.015
5106,-0.135,0.015
5107,-0.115,-0.025
5108,-0.115,0.025
5109,-0.135,0.005
5110,-0.115,0.025
5111,-0.105,-0.015
5112,-0.125,0.025
5113,-0.105,-0.005
5114,-0.055,0.015
5115,-0.045,0.045
5116,-0.075,0.045
5117,-0.005,0.005
5118,-0.045,-0.025
5119,-0.015,-0.045
5120,-0.035,-0.015
5121,-0.115,-0.035
5122,-0.035,-0.015
5123,-0.105,0.035
5124,-0.135,-0.035
5125,-0.195,0.005
5126,-0.145,-0.055
5127,-0.155,-0.005
5128,-0.155,-0.005
5129,-0.165,-0.035
5130,-0.195,0.065
5131,-0.695,0.235
5132,-0.735,0.055
5133,-0.035,-0.425
5134,1.945,-0.435
5135,2.885,-0.025
5136,2.825,0.555
5137,1.665,0.015
5138,0.005,-0.745
5139,-0.305,-0.345
5140,-0.335,-0.035
5141,-0.305,-0.015
5142,-0.355,-0.005
5143,-0.335,-0.005
5144,-0.395,-0.015
5145,-0.315,-0.025
5146,-0.305,-0.015
5147,-0.305,-0.045
5148,-0.225,-0.095
5149,-0.285,-0.085
5150,-0.245,-0.055
5151,-0.205,-0.085
5152,-0.245,-0.115
5153,-0.215,-0.105
5154,-0.185,-0.105
5155,-0.175,-0.135
5156,-0.175,-0.175
5157,-0.105,-0.185
5158,-0.055,-0.225
5159,-0.105,-0.245
5160,-0.125,-0.255
5161,-0.085,-0.275
5162,-0.155,-0.235
5163,-0.175,-0.235
5164,-0.115,-0.195
5165,-0.075,-0.145
5166,-0.075,-0.085
5167,-0.085,-0.045
5168,-0.065,-0.015
5169,-0.095,0.015
5170,-0.015,0.045
5171,-0.125,0.035
5172,-0.135,0.065
5173,-0.105,0.075
5174,-0.115,0.075
5175,-0.095,0.095
5176,-0.095,0.035
5177,-0.055,0.025
5178,-0.065,0.025
5179,-0.075,0.025
5180,-0.055,0.015
5181,-0.115,0.065
5182,-0.125,0.075
5183,-0.105,0.055
5184,-0.105,0.035
5185,-0.105,0.045
5186,-0.105,0.065
5187,-0.085,0.045
5188,-0.145,0.025
5189,-0.135,0.045
5190,-0.125,0.055
5191,-0.035,0.055
5192,-0.045,0.025
5193,-0.095,0.045
5194,-0.095,0.085
5195,-0.065,0.095
5196,-0.025,0.085
5197,0.005,0.105
5198,0.105,0.035
5199,0.035,0.025
5200,0.005,0.005
5201,-0.045,0.005
5202,-0.055,0.035
5203,-0.065,0.055
5204,-0.025,-0.005
5205,-0.115,0.025
5206,-0.175,0.085
5207,-0.205,0.035
5208,-0.125,0.015
5209,-0.165,0.015
5210,-0.085,0.045
5211,-0.395,0.185
5212,-0.735,0.175
5213,-0.345,-0.215
5214,1.395,-0.615
5215,2.785,-0.025
5216,2.895,0.685
5217,2.155,0.515
5218,0.355,-0.615
5219,-0.295,-0.445
5220,-0.265,-0.025
5221,-0.295,0.055
5222,-0.365,0.015
5223,-0.295,-0.015
5224,-0.275,-0.015
5225,-0.325,-0.015
5226,-0.285,-0.015
5227,-0.265,-0.025
5228,-0.275,-0.045
5229,-0.245,-0.035
5230,-0.215,-0.055
5231,-0.215,-0.065
5232,-0.205,-0.075
5233,-0.175,-0.115
5234,-0.125,-0.135
5235,-0.125,-0.155
5236,-0.115,-0.185
5237,-0.085,-0.195
5238,-0.065,-0.235
5239,-0.065,-0.255
5240,-0.085,-0.275
5241,-0.085,-0.275
5242,-0.105,-0.275
5243,-0.135,-0.265
5244,-0.105,-0.235
5245,-0.085,-0.175
5246,-0.045,-0.105
5247,-0.005,-0.055
5248,0.005,-0.005
5249,-0.045,0.025
5250,-0.035,0.095
5251,-0.055,0.055
5252,-0.085,0.045
5253,-0.055,0.085
5254,-0.065,0.095
5255,-0.085,0.105
5256,-0.085,0.105
5257,-0.065,0.095
5258,-0.065,0.085
5259,-0.065,0.075
5260,-0.065,0.055
5261,-0.055,0.075
5262,-0.095,0.075
5263,-0.105,0.065
5264,-0.035,0.055
5265,-0.065,0.065
5266,-0.105,0.085
5267,-0.115,0.085
5268,-0.105,0.055
5269,-0.095,0.065
5270,-0.085,0.055
5271,-0.115,0.065
5272,-0.105,0.055
5273,-0.085,0.045
5274,-0.095,0.065
5275,-0.135,0.055
5276,-0.025,0.065
5277,-0.025,0.095
5278,-0.015,0.105
5279,0.025,0.085
5280,0.065,0.015
5281,0.025,0.025
5282,-0.025,0.015
5283,-0.045,0.005
5284,-0.055,0.035
5285,-0.065,0.075
5286,-0.095,0.045
5287,-0.135,0.025
5288,-0.195,0.015
5289,-0.155,0.045
5290,-0.145,0.045
5291,-0.105,0.035
5292,-0.125,0.035
5293,-0.515,0.185
5294,-0.755,0.115
5295,-0.205,-0.325
5296,1.655,-0.555
5297,2.815,0.075
5298,2.805,0.825
5299,1.845,0.375
5300,0.185,-0.675
5301,-0.285,-0.375
5302,-0.285,-0.005
5303,-0.305,0.025
5304,-0.355,-0.025
5305,-0.315,-0.005
5306,-0.325,-0.005
5307,-0.315,-0.045
5308,-0.315,-0.045
5309,-0.295,-0.045
5310,-0.255,-0.055
5311,-0.235,-0.095
5312,-0.235,-0.085
5313,-0.215,-0.115
5314,-0.205,-0.105
5315,-0.195,-0.135
5316,-0.155,-0.165
5317,-0.125,-0.185
5318,-0.125,-0.195
5319,-0.095,-0.245
5320,-0.095,-0.285
5321,-0.125,-0.295
5322,-0.115,-0.315
5323,-0.125,-0.325
5324,-0.165,-0.305
5325,-0.145,-0.285
5326,-0.125,-0.225
5327,-0.085,-0.205
5328,-0.075,-0.135
5329,-0.085,-0.075
5330,-0.065,-0.015
5331,-0.075,0.025
5332,-0.105,0.035
5333,-0.115,0.045
5334,-0.125,0.075
5335,-0.115,0.065
5336,-0.125,0.055
5337,-0.135,0.075
5338,-0.125,0.065
5339,-0.115,0.015
5340,-0.135,0.035
5341,-0.155,0.025
5342,-0.125,0.045
5343,-0.145,0.035
5344,-0.145,0.045
5345,-0.125,0.035
5346,-0.145,0.045
5347,-0.125,0.045
5348,-0.145,0.045
5349,-0.135,0.015
5350,-0.135,0.025
5351,-0.145,0.045
5352,-0.135,0.045
5353,-0.135,0.025
5354,-0.145,0.025
5355,-0.145,0.035
5356,-0.125,0.045
5357,-0.155,0.075
5358,-0.085,0.085
5359,-0.045,0.075
5360,0.025,0.005
5361,-0.015,-0.015
5362,-0.035,-0.035
5363,-0.105,-0.015
5364,-0.095,-0.005
5365,-0.125,0.035
5366,-0.105,-0.005
5367,-0.185,-0.005
5368,-0.215,0.015
5369,-0.175,0.025
5370,-0.205,0.005
5371,-0.195,-0.025
5372,-0.165,0.005
5373,-0.425,0.145
5374,-0.865,0.155
5375,-0.595,-0.205
5376,0.975,-0.705
5377,2.655,-0.085
5378,2.765,0.665
5379,2.325,0.815
5380,0.555,-0.485
5381,-0.325,-0.515
5382,-0.335,-0.105
5383,-0.355,-0.015
5384,-0.375,-0.055
5385,-0.385,-0.055
5386,-0.365,-0.055
5387,-0.365,-0.075
5388,-0.375,-0.085
5389,-0.315,-0.055
5390,-0.315,-0.085
5391,-0.305,-0.105
5392,-0.325,-0.135
5393,-0.245,-0.135
5394,-0.235,-0.135
5395,-0.235,-0.165
5396,-0.215,-0.185
5397,-0.195,-0.205
5398,-0.185,-0.235
5399,-0.155,-0.275
5400,-0.145,-0.295
5401,-0.105,-0.295
5402,-0.135,-0.345
5403,-0.155,-0.355
5404,-0.165,-0.355
5405,-0.165,-0.315
5406,-0.155,-0.255
5407,-0.105,-0.215
5408,-0.095,-0.195
5409,-0.065,-0.115
5410,-0.035,-0.115
5411,-0.065,-0.065
5412,-0.075,-0.025
5413,-0.105,0.025
5414,-0.115,0.015
5415,-0.115,0.025
5416,-0.115,0.025
5417,-0.125,0.005
5418,-0.115,0.025
5419,-0.105,0.005
5420,-0.125,0.015
5421,-0.135,0.045
5422,-0.125,0.005
5423,-0.125,0.005
5424,-0.125,-0.015
5425,-0.115,-0.005
5426,-0.115,0.035
5427,-0.125,-0.005
5428,-0.155,-0.015
5429,-0.125,-0.015
5430,-0.115,0.015
5431,-0.145,-0.005
5432,-0.145,-0.015
5433,-0.085,-0.005
5434,-0.065,0.045
5435,-0.065,0.055
5436,-0.025,0.055
5437,0.045,0.005
5438,0.025,-0.045
5439,-0.035,-0.065
5440,-0.075,-0.055
5441,-0.075,-0.025
5442,-0.085,0.025
5443,-0.135,0.005
5444,-0.145,-0.015
5445,-0.195,-0.025
5446,-0.145,-0.015
5447,-0.175,-0.005
5448,-0.165,-0.035
5449,-0.125,-0.045
5450,-0.325,0.045
5451,-0.875,0.115
5452,-0.515,-0.245
5453,0.955,-0.765
5454,2.585,-0.125
5455,2.525,0.555
5456,2.315,1.005
5457,0.515,-0.225
5458,-0.345,-0.605
5459,-0.315,-0.235
5460,-0.355,-0.075
5461,-0.325,-0.085
5462,-0.345,-0.085
5463,-0.345,-0.115
5464,-0.335,-0.115
5465,-0.345,-0.115
5466,-0.275,-0.095
5467,-0.265,-0.145
5468,-0.265,-0.155
5469,-0.255,-0.155
5470,-0.225,-0.165
5471,-0.205,-0.175
5472,-0.185,-0.185
5473,-0.175,-0.235
5474,-0.145,-0.255
5475,-0.135,-0.285
5476,-0.135,-0.315
5477,-0.115,-0.315
5478,-0.085,-0.345
5479,-0.095,-0.395
5480,-0.105,-0.395
5481,-0.115,-0.355
5482,-0.115,-0.345
5483,-0.105,-0.325
5484,-0.075,-0.265
5485,-0.085,-0.185
5486,-0.015,-0.125
5487,-0.055,-0.095
5488,-0.065,-0.055
5489,-0.085,-0.015
5490,-0.095,-0.005
5491,-0.105,0.005
5492,-0.115,-0.005
5493,-0.105,-0.015
5494,-0.065,-0.015
5495,-0.115,-0.015
5496,-0.125,-0.005
5497,-0.095,-0.015
5498,-0.115,-0.015
5499,-0.125,-0.015
5500,-0.125,-0.025
5501,-0.105,-0.015
5502,-0.115,-0.005
5503,-0.145,-0.025
5504,-0.135,-0.025
5505,-0.125,-0.025
5506,-0.115,-0.025
5507,-0.115,-0.035
5508,-0.105,-0.005
5509,-0.065,0.015
5510,-0.055,0.045
5511,-0.015,0.045
5512,0.035,-0.005
5513,0.025,-0.055
5514,-0.045,-0.035
5515,-0.055,-0.055
5516,-0.085,-0.065
5517,-0.095,-0.025
5518,-0.105,0.005
5519,-0.125,-0.055
5520,-0.145,-0.045
5521,-0.185,-0.035
5522,-0.165,-0.015
5523,-0.155,-0.025
5524,-0.105,-0.035
5525,-0.235,0.045
5526,-0.895,0.235
5527,-0.725,-0.015
5528,0.405,-0.425
5529,2.235,-0.335
5530,2.725,-0.085
5531,2.665,0.535
5532,1.415,0.205
5533,-0.225,-0.795
5534,-0.415,-0.385
5535,-0.315,-0.075
5536,-0.325,-0.045
5537,-0.355,-0.035
5538,-0.345,-0.035
5539,-0.345,-0.055
5540,-0.325,-0.075
5541,-0.285,-0.075
5542,-0.295,-0.045
5543,-0.285,-0.085
5544,-0.285,-0.105
5545,-0.235,-0.115
5546,-0.225,-0.115
5547,-0.165,-0.145
5548,-0.165,-0.155
5549,-0.165,-0.195
5550,-0.155,-0.205
5551,-0.125,-0.225
5552,-0.115,-0.265
5553,-0.125,-0.255
5554,-0.125,-0.295
5555,-0.095,-0.315
5556,-0.135,-0.275
5557,-0.145,-0.275
5558,-0.135,-0.235
5559,-0.075,-0.195
5560,-0.075,-0.175
5561,-0.065,-0.115
5562,-0.025,-0.065
5563,-0.075,-0.045
5564,-0.065,-0.015
5565,-0.095,-0.015
5566,-0.095,0.005
5567,-0.125,0.005
5568,-0.135,0.005
5569,-0.115,0.015
5570,-0.105,-0.015
5571,-0.125,0.005
5572,-0.095,-0.005
5573,-0.095,-0.015
5574,-0.105,-0.025
5575,-0.085,-0.045
5576,-0.095,-0.025
5577,-0.145,0.005
5578,-0.095,-0.015
5579,-0.095,-0.035
5580,-0.125,-0.025
5581,-0.145,-0.035
5582,-0.115,-0.005
5583,-0.085,0.035
5584,-0.065,0.015
5585,-0.035,0.025
5586,0.025,0.055
5587,0.035,-0.045
5588,-0.045,-0.055
5589,-0.095,-0.065
5590,-0.085,-0.045
5591,-0.095,-0.035
5592,-0.145,-0.015
5593,-0.115,-0.035
5594,-0.175,-0.015
5595,-0.175,-0.045
5596,-0.165,-0.045
5597,-0.165,-0.015
5598,-0.125,-0.015
5599,-0.235,0.045
5600,-0.925,0.245
5601,-0.805,0.085
5602,0.315,-0.325
5603,2.215,-0.315
5604,2.865,-0.215
5605,2.805,0.405
5606,1.595,0.045
5607,-0.205,-0.845
5608,-0.475,-0.425
5609,-0.335,-0.065
5610,-0.325,0.025
5611,-0.365,-0.015
5612,-0.385,-0.035
5613,-0.375,-0.045
5614,-0.365,-0.015
5615,-0.355,-0.035
5616,-0.325,-0.065
5617,-0.315,-0.075
5618,-0.285,-0.075
5619,-0.275,-0.075
5620,-0.255,-0.065
5621,-0.215,-0.115
5622,-0.205,-0.125
5623,-0.195,-0.125
5624,-0.195,-0.165
5625,-0.155,-0.185
5626,-0.155,-0.195
5627,-0.125,-0.245
5628,-0.135,-0.265
5629,-0.115,-0.265
5630,-0.145,-0.225
5631,-0.165,-0.265
5632,-0.155,-0.245
5633,-0.125,-0.185
5634,-0.105,-0.125
5635,-0.115,-0.085
5636,-0.095,-0.045
5637,-0.095,-0.005
5638,-0.085,-0.005
5639,-0.125,0.005
5640,-0.135,0.005
5641,-0.165,0.005
5642,-0.135,0.035
5643,-0.135,0.005
5644,-0.135,-0.005
5645,-0.135,0.025
5646,-0.135,0.025
5647,-0.105,-0.005
5648,-0.125,-0.015
5649,-0.125,0.005
5650,-0.105,0.015
5651,-0.105,-0.005
5652,-0.155,0.005
5653,-0.125,-0.015
5654,-0.125,0.005
5655,-0.145,-0.005
5656,-0.075,-0.015
5657,-0.085,0.045
5658,-0.065,0.045
5659,-0.025,0.055
5660,0.035,-0.005
5661,-0.005,-0.025
5662,-0.065,-0.035
5663,-0.075,-0.045
5664,-0.125,-0.045
5665,-0.095,-0.035
5666,-0.085,0.025
5667,-0.135,-0.015
5668,-0.165,-0.035
5669,-0.195,-0.025
5670,-0.145,-0.015
5671,-0.175,-0.015
5672,-0.125,-0.015
5673,-0.155,0.025
5674,-0.825,0.305
5675,-0.915,0.125
5676,0.115,-0.345
5677,2.025,-0.335
5678,2.905,-0.175
5679,2.865,0.425
5680,1.685,-0.025
5681,-0.105,-0.885
5682,-0.415,-0.375
5683,-0.335,-0.015
5684,-0.355,-0.005
5685,-0.395,-0.005
5686,-0.385,-0.015
5687,-0.335,-0.015
5688,-0.345,-0.055
5689,-0.325,-0.045
5690,-0.315,-0.035
5691,-0.305,-0.065
5692,-0.305,-0.055
5693,-0.275,-0.095
5694,-0.225,-0.085
5695,-0.215,-0.095
5696,-0.195,-0.125
5697,-0.175,-0.135
5698,-0.155,-0.125
5699,-0.135,-0.185
5700,-0.135,-0.225
5701,-0.135,-0.215
5702,-0.105,-0.235
5703,-0.125,-0.245
5704,-0.145,-0.285
5705,-0.145,-0.245
5706,-0.145,-0.195
5707,-0.135,-0.145
5708,-0.125,-0.105
5709,-0.115,-0.055
5710,-0.105,-0.025
5711,-0.095,-0.005
5712,-0.125,0.035
5713,-0.085,0.045
5714,-0.115,0.065
5715,-0.105,0.005
5716,-0.125,0.025
5717,-0.125,0.025
5718,-0.115,0.045
5719,-0.095,0.035
5720,-0.105,0.015
5721,-0.115,0.055
5722,-0.095,0.035
5723,-0.085,0.035
5724,-0.135,0.035
5725,-0.095,0.035
5726,-0.095,0.045
5727,-0.085,0.035
5728,-0.105,0.015
5729,-0.095,0.035
5730,-0.085,0.045
5731,-0.115,0.045
5732,-0.155,0.025
5733,-0.095,0.055
5734,-0.065,0.035
5735,-0.055,0.065
5736,-0.065,0.075
5737,-0.035,0.075
5738,0.015,0.065
5739,0.025,0.035
5740,-0.025,-0.015
5741,-0.055,-0.015
5742,-0.085,0.015
5743,-0.085,0.015
5744,-0.105,0.035
5745,-0.135,0.025
5746,-0.105,0.045
5747,-0.155,0.015
5748,-0.155,0.015
5749,-0.175,0.005
5750,-0.125,0.035
5751,-0.105,0.015
5752,-0.505,0.255
5753,-0.875,0.245
5754,-0.125,-0.325
5755,1.785,-0.435
5756,2.845,-0.095
5757,2.825,0.675
5758,1.905,0.105
5759,0.135,-0.815
5760,-0.345,-0.435
5761,-0.325,0.005
5762,-0.325,0.065
5763,-0.345,0.035
5764,-0.375,0.015
5765,-0.365,-0.005
5766,-0.335,0.005
5767,-0.315,-0.015
5768,-0.305,-0.025
5769,-0.305,-0.025
5770,-0.285,-0.025
5771,-0.245,-0.045
5772,-0.205,-0.055
5773,-0.195,-0.065
5774,-0.215,-0.065
5775,-0.135,-0.105
5776,-0.125,-0.125
5777,-0.115,-0.155
5778,-0.105,-0.165
5779,-0.075,-0.195
5780,-0.075,-0.225
5781,-0.065,-0.235
5782,-0.085,-0.225
5783,-0.095,-0.225
5784,-0.105,-0.225
5785,-0.085,-0.185
5786,-0.065,-0.115
5787,-0.075,-0.065
5788,-0.065,-0.015
5789,-0.055,0.035
5790,-0.075,0.065
5791,-0.095,0.065
5792,-0.115,0.085
5793,-0.135,0.085
5794,-0.125,0.085
5795,-0.135,0.075
5796,-0.085,0.065
5797,-0.105,0.065
5798,-0.105,0.085
5799,-0.105,0.065
5800,-0.105,0.065
5801,-0.115,0.065
5802,-0.095,0.075
5803,-0.095,0.065
5804,-0.105,0.055
5805,-0.095,0.065
5806,-0.085,0.085
5807,-0.095,0.055
5808,-0.105,0.045
5809,-0.095,0.065
5810,-0.115,0.055
5811,-0.095,0.035
5812,-0.125,0.045
5813,-0.135,0.025
5814,-0.115,0.045
5815,-0.105,0.055
5816,-0.155,0.045
5817,-0.105,0.035
5818,-0.095,0.045
5819,-0.145,0.025
5820,-0.125,0.015
5821,-0.125,0.005
5822,-0.135,0.025
5823,-0.085,-0.005
5824,-0.055,0.025
5825,-0.085,0.025
5826,-0.105,0.115
5827,0.025,0.035
5828,0.065,-0.055
5829,-0.025,-0.025
5830,-0.025,-0.025
5831,-0.075,-0.045
5832,-0.055,-0.035
5833,-0.115,-0.035
5834,-0.085,-0.035
5835,-0.135,-0.015
5836,-0.155,-0.045
5837,-0.145,-0.045
5838,-0.155,-0.035
5839,-0.115,-0.025
5840,-0.115,-0.025
5841,-0.725,0.245
5842,-0.695,0.055
5843,0.475,-0.465
5844,2.325,-0.365
5845,2.895,0.005
5846,2.805,0.645
5847,1.445,-0.055
5848,-0.225,-0.935
5849,-0.455,-0.515
5850,-0.315,-0.125
5851,-0.335,-0.075
5852,-0.375,-0.105
5853,-0.375,-0.095
5854,-0.365,-0.095
5855,-0.355,-0.105
5856,-0.355,-0.125
5857,-0.345,-0.135
5858,-0.315,-0.125
5859,-0.305,-0.145
5860,-0.315,-0.165
5861,-0.325,-0.155
5862,-0.245,-0.165
5863,-0.225,-0.195
5864,-0.225,-0.235
5865,-0.175,-0.245
5866,-0.155,-0.265
5867,-0.135,-0.295
5868,-0.175,-0.315
5869,-0.125,-0.335
5870,-0.165,-0.335
5871,-0.155,-0.345
5872,-0.145,-0.325
5873,-0.125,-0.305
5874,-0.165,-0.285
5875,-0.115,-0.235
5876,-0.085,-0.205
5877,-0.115,-0.175
5878,-0.155,-0.155
5879,-0.145,-0.145
5880,-0.135,-0.115
5881,-0.215,-0.115
5882,-0.175,-0.105
5883,-0.205,-0.115
5884,-0.225,-0.125
5885,-0.195,-0.125
5886,-0.215,-0.125
5887,-0.215,-0.135
5888,-0.225,-0.135
5889,-0.195,-0.115
5890,-0.195,-0.115
5891,-0.235,-0.135
5892,-0.215,-0.125
5893,-0.215,-0.115
5894,-0.205,-0.135
5895,-0.185,-0.135
5896,-0.195,-0.125
5897,-0.215,-0.115
5898,-0.215,-0.105
5899,-0.205,-0.135
5900,-0.235,-0.145
5901,-0.235,-0.115
5902,-0.235,-0.145
5903,-0.215,-0.155
5904,-0.205,-0.135
5905,-0.235,-0.135
5906,-0.215,-0.115
5907,-0.205,-0.135
5908,-0.215,-0.135
5909,-0.235,-0.135
5910,-0.215,-0.135
5911,-0.225,-0.145
5912,-0.225,-0.145
5913,-0.225,-0.135
5914,-0.215,-0.135
5915,-0.185,-0.115
5916,-0.175,-0.115
5917,-0.195,-0.095
5918,-0.155,-0.095
5919,-0.085,-0.155
5920,-0.095,-0.185
5921,-0.145,-0.185
5922,-0.195,-0.175
5923,-0.185,-0.165
5924,-0.225,-0.165
5925,-0.195,-0.165
5926,-0.235,-0.165
5927,-0.245,-0.165
5928,-0.265,-0.165
5929,-0.275,-0.155
5930,-0.185,-0.145
5931,-0.185,-0.135
5932,-0.215,-0.125
5933,-0.835,0.175
5934,-0.965,0.125
5935,0.185,-0.275
5936,2.125,-0.455
5937,2.985,-0.685
5938,2.955,-0.025
5939,1.545,-0.735
5940,-0.135,-1.065
5941,-0.395,-0.395
5942,-0.355,-0.045
5943,-0.435,-0.075
5944,-0.465,-0.115
5945,-0.475,-0.105
5946,-0.435,-0.095
5947,-0.435,-0.105
5948,-0.385,-0.125
5949,-0.375,-0.125
5950,-0.395,-0.115
5951,-0.385,-0.145
5952,-0.325,-0.145
5953,-0.325,-0.155
5954,-0.265,-0.135
5955,-0.245,-0.115
5956,-0.195,-0.125
5957,-0.235,-0.135
5958,-0.215,-0.145
5959,-0.105,-0.205
5960,-0.125,-0.245
5961,-0.075,-0.245
5962,-0.075,-0.225
5963,-0.135,-0.205
5964,-0.175,-0.185
5965,-0.215,-0.165
5966,-0.235,-0.175
5967,-0.155,-0.175
5968,-0.145,-0.165
5969,-0.125,-0.135
5970,-0.145,-0.125
5971,-0.205,-0.125
5972,-0.135,-0.135
5973,-0.185,-0.125
5974,-0.225,-0.095
5975,-0.215,-0.125
5976,-0.255,-0.135
5977,-0.255,-0.125
5978,-0.205,-0.115
5979,-0.125,-0.125
5980,-0.265,-0.095
5981,-0.235,-0.065
5982,-0.205,-0.095
5983,-0.215,-0.115
5984,-0.225,-0.105
5985,-0.215,-0.115
5986,-0.185,-0.105
5987,-0.265,-0.105
5988,-0.245,-0.135
5989,-0.185,-0.045
5990,-0.285,-0.055
5991,-0.195,-0.075
5992,-0.215,-0.175
5993,-0.205,-0.135
5994,-0.225,-0.115
5995,-0.215,-0.145
5996,-0.165,-0.125
5997,-0.285,-0.105
5998,-0.185,-0.085
5999,-0.175,-0.105
6000,-0.165,-0.135
6001,-0.215,-0.135
6002,-0.215,-0.095
6003,-0.195,-0.105
6004,-0.205,-0.065
6005,-0.165,-0.105
6006,-0.165,-0.115
6007,-0.185,-0.105
6008,-0.145,-0.125
6009,-0.165,-0.125
6010,-0.155,-0.115
6011,-0.205,-0.125
6012,-0.135,-0.135
6013,-0.195,-0.045
6014,-0.085,-0.045
6015,-0.105,-0.095
6016,-0.115,-0.135
6017,0.035,-0.195
6018,-0.025,-0.175
6019,-0.085,-0.155
6020,-0.115,-0.155
6021,-0.095,-0.165
6022,-0.095,-0.145
6023,-0.175,-0.095
6024,-0.195,-0.075
6025,-0.125,-0.095
6026,-0.035,-0.095
6027,-0.185,-0.085
6028,-0.175,-0.055
6029,-0.125,-0.075
6030,-0.385,0.095
6031,-0.765,0.195
6032,-0.255,-0.125
6033,1.335,-0.495
6034,2.785,-0.605
6035,2.965,-0.045
6036,2.285,-0.195
6037,0.335,-1.015
6038,-0.185,-0.605
6039,-0.245,-0.065
6040,-0.255,0.005
6041,-0.175,-0.075
6042,-0.345,-0.035
6043,-0.415,0.015
6044,-0.335,-0.035
6045,-0.305,-0.035
6046,-0.255,-0.085
6047,-0.255,-0.105
6048,-0.195,-0.125
6049,-0.225,-0.095
6050,-0.195,-0.085
6051,-0.195,-0.105
6052,-0.135,-0.115
6053,-0.105,-0.085
6054,-0.105,-0.055
6055,-0.085,-0.115
6056,-0.045,-0.135
6057,-0.025,-0.155
6058,-0.005,-0.165
6059,-0.005,-0.175
6060,0.025,-0.195
6061,0.005,-0.195
6062,0.005,-0.195
6063,-0.035,-0.195
6064,-0.055,-0.185
6065,-0.045,-0.155
6066,-0.035,-0.125
6067,-0.045,-0.095
6068,-0.065,-0.075
6069,-0.095,-0.055
6070,-0.065,-0.035
6071,-0.095,-0.035
6072,-0.105,-0.045
6073,-0.115,-0.025
6074,-0.135,-0.025
6075,-0.085,-0.045
6076,-0.125,-0.025
6077,-0.125,-0.025
6078,-0.165,-0.015
6079,-0.135,-0.005
6080,-0.055,-0.005
6081,-0.145,-0.025
6082,-0.135,-0.025
6083,-0.115,-0.025
6084,-0.095,-0.025
6085,-0.095,-0.045
6086,-0.095,-0.045
6087,-0.095,-0.035
6088,-0.095,-0.015
6089,-0.105,-0.015
6090,-0.165,-0.005
6091,-0.115,-0.015
6092,-0.105,-0.035
6093,-0.125,-0.035
6094,-0.115,-0.015
6095,-0.085,-0.035
6096,-0.085,-0.035
6097,-0.105,-0.025
6098,-0.115,-0.005
6099,-0.135,-0.045
6100,-0.105,-0.055
6101,-0.115,-0.025
6102,-0.135,-0.015
6103,-0.115,-0.005
6104,-0.125,-0.035
6105,-0.115,-0.045
6106,-0.115,-0.045
6107,-0.135,-0.025
6108,-0.105,-0.025
6109,-0.125,-0.055
6110,-0.125,-0.015
6111,-0.065,-0.015
6112,-0.025,-0.035
6113,0.035,-0.135
6114,0.035,-0.095
6115,-0.085,-0.025
6116,-0.065,-0.025
6117,-0.125,-0.045
6118,-0.075,-0.055
6119,-0.095,-0.035
6120,-0.125,-0.005
6121,-0.125,-0.025
6122,-0.065,-0.025
6123,-0.115,-0.025
6124,-0.085,-0.035
6125,-0.105,0.015
6126,-0.095,0.025
6127,-0.365,0.115
6128,-0.945,0.235
6129,-0.585,-0.045
6130,1.155,-0.485
6131,2.785,-0.245
6132,2.925,0.355
6133,2.395,0.805
6134,0.605,-0.285
6135,-0.295,-0.615
6136,-0.295,-0.195
6137,-0.285,0.015
6138,-0.305,0.015
6139,-0.305,0.005
6140,-0.295,-0.025
6141,-0.295,-0.015
6142,-0.275,-0.005
6143,-0.255,-0.025
6144,-0.185,-0.045
6145,-0.215,-0.055
6146,-0.165,-0.025
6147,-0.145,-0.025
6148,-0.145,-0.055
6149,-0.105,-0.055
6150,-0.085,-0.065
6151,-0.045,-0.095
6152,-0.015,-0.115
6153,0.005,-0.145
6154,0.035,-0.165
6155,0.045,-0.205
6156,0.035,-0.235
6157,0.045,-0.245
6158,0.025,-0.265
6159,0.015,-0.265
6160,-0.025,-0.265
6161,-0.025,-0.235
6162,-0.025,-0.185
6163,-0.025,-0.145
6164,-0.045,-0.115
6165,-0.035,-0.065
6166,-0.035,-0.015
6167,-0.065,0.005
6168,-0.105,0.025
6169,-0.075,0.045
6170,-0.075,0.035
6171,-0.055,0.035
6172,-0.125,0.015
6173,-0.155,0.055
6174,-0.105,0.055
6175,-0.145,0.045
6176,-0.115,0.025
6177,-0.115,0.035
6178,-0.085,0.055
6179,-0.095,0.035
6180,-0.115,0.035
6181,-0.145,0.035
6182,-0.105,0.025
6183,-0.105,0.025
6184,-0.105,0.035
6185,-0.135,0.035
6186,-0.175,0.035
6187,-0.155,0.015
6188,-0.125,0.025
6189,-0.125,0.035
6190,-0.135,0.035
6191,-0.115,0.035
6192,-0.145,0.025
6193,-0.095,0.025
6194,-0.115,0.035
6195,-0.125,0.025
6196,-0.115,0.015
6197,-0.125,0.015
6198,-0.135,0.015
6199,-0.145,0.025
6200,-0.145,0.005
6201,-0.125,0.015
6202,-0.125,0.025
6203,-0.115,0.015
6204,-0.055,0.005
6205,-0.025,0.005
6206,-0.065,-0.015
6207,0.015,-0.075
6208,0.005,-0.015
6209,-0.035,-0.025
6210,-0.075,-0.005
6211,-0.085,-0.025
6212,-0.075,-0.025
6213,-0.115,0.015
6214,-0.115,0.015
6215,-0.115,0.025
6216,-0.155,0.015
6217,-0.145,0.025
6218,-0.085,0.035
6219,-0.095,0.025
6220,-0.295,0.075
6221,-0.935,0.165
6222,-0.645,-0.125
6223,0.555,-0.665
6224,2.375,-0.335
6225,2.785,0.415
6226,2.715,1.095
6227,1.035,0.435
6228,-0.325,-0.575
6229,-0.385,-0.295
6230,-0.315,-0.035
6231,-0.335,-0.015
6232,-0.375,-0.035
6233,-0.315,-0.035
6234,-0.305,-0.035
6235,-0.305,-0.045
6236,-0.295,-0.065
6237,-0.305,-0.055
6238,-0.225,-0.045
6239,-0.225,-0.065
6240,-0.215,-0.085
6241,-0.195,-0.115
6242,-0.165,-0.105
6243,-0.145,-0.125
6244,-0.165,-0.145
6245,-0.125,-0.165
6246,-0.055,-0.205
6247,-0.065,-0.235
6248,-0.025,-0.275
6249,-0.025,-0.305
6250,-0.005,-0.305
6251,-0.025,-0.335
6252,-0.025,-0.335
6253,-0.025,-0.325
6254,-0.055,-0.285
6255,-0.035,-0.235
6256,-0.065,-0.175
6257,-0.065,-0.125
6258,-0.095,-0.065
6259,-0.095,-0.015
6260,-0.105,0.025
6261,-0.105,0.035
6262,-0.095,0.055
6263,-0.125,0.055
6264,-0.115,0.035
6265,-0.105,0.025
6266,-0.115,0.045
6267,-0.115,0.045
6268,-0.115,0.025
6269,-0.105,0.015
6270,-0.085,0.045
6271,-0.095,0.055
6272,-0.095,0.025
6273,-0.105,0.015
6274,-0.125,0.045
6275,-0.095,0.025
6276,-0.125,0.045
6277,-0.065,0.015
6278,-0.095,0.015
6279,-0.115,0.005
6280,-0.135,-0.005
6281,-0.095,-0.005
6282,-0.145,0.035
6283,-0.125,0.035
6284,-0.155,0.035
6285,-0.135,0.035
6286,-0.135,0.035
6287,-0.125,0.035
6288,-0.135,0.015
6289,-0.155,0.025
6290,-0.145,0.025
6291,-0.085,0.035
6292,-0.055,0.005
6293,-0.005,-0.035
6294,0.045,-0.045
6295,-0.035,-0.025
6296,-0.105,-0.015
6297,-0.135,-0.005
6298,-0.075,-0.025
6299,-0.115,0.005
6300,-0.105,0.035
6301,-0.155,0.015
6302,-0.145,0.015
6303,-0.145,0.005
6304,-0.135,-0.005
6305,-0.115,0.005
6306,-0.105,0.025
6307,-0.535,0.145
6308,-0.965,0.095
6309,-0.415,-0.145
6310,1.355,-0.585
6311,2.805,-0.215
6312,2.665,0.545
6313,2.415,1.075
6314,0.425,0.045
6315,-0.515,-0.605
6316,-0.355,-0.275
6317,-0.285,-0.055
6318,-0.275,-0.015
6319,-0.285,-0.045
6320,-0.315,-0.045
6321,-0.315,-0.045
6322,-0.305,-0.045
6323,-0.275,-0.085
6324,-0.285,-0.095
6325,-0.195,-0.095
6326,-0.205,-0.125
6327,-0.205,-0.115
6328,-0.205,-0.135
6329,-0.185,-0.135
6330,-0.145,-0.155
6331,-0.135,-0.195
6332,-0.105,-0.265
6333,-0.095,-0.295
6334,-0.035,-0.295
6335,-0.005,-0.315
6336,0.015,-0.355
6337,0.015,-0.355
6338,0.015,-0.335
6339,0.015,-0.335
6340,0.015,-0.285
6341,0.005,-0.225
6342,-0.015,-0.155
6343,0.025,-0.125
6344,-0.005,-0.085
6345,-0.035,-0.035
6346,-0.055,-0.005
6347,-0.095,-0.005
6348,-0.105,0.015
6349,-0.135,0.015
6350,-0.135,0.025
6351,-0.105,-0.005
6352,-0.115,0.005
6353,-0.155,0.015
6354,-0.095,-0.005
6355,-0.105,-0.005
6356,-0.115,-0.015
6357,-0.115,-0.005
6358,-0.115,-0.015
6359,-0.105,-0.025
6360,-0.115,-0.035
6361,-0.115,-0.005
6362,-0.135,0.005
6363,-0.095,-0.035
6364,-0.115,-0.035
6365,-0.135,-0.015
6366,-0.125,-0.015
6367,-0.135,-0.015
6368,-0.135,-0.015
6369,-0.105,-0.005
6370,-0.095,0.015
6371,-0.085,0.025
6372,-0.035,-0.025
6373,-0.005,-0.065
6374,-0.035,-0.025
6375,-0.065,-0.055
6376,-0.115,-0.075
6377,-0.125,-0.065
6378,-0.115,-0.025
6379,-0.115,-0.025
6380,-0.155,-0.025
6381,-0.185,-0.025
6382,-0.175,-0.045
6383,-0.205,-0.035
6384,-0.165,-0.025
6385,-0.115,-0.015
6386,-0.375,0.065
6387,-0.945,0.235
6388,-0.525,0.015
6389,0.935,-0.325
6390,2.595,-0.295
6391,2.975,-0.045
6392,2.865,0.535
6393,1.495,0.335
6394,-0.275,-0.735
6395,-0.565,-0.515
6396,-0.375,-0.155
6397,-0.345,-0.035
6398,-0.365,-0.005
6399,-0.365,-0.015
6400,-0.365,-0.035
6401,-0.335,-0.045
6402,-0.315,-0.035
6403,-0.305,-0.065
6404,-0.305,-0.075
6405,-0.305,-0.065
6406,-0.245,-0.055
6407,-0.205,-0.095
6408,-0.205,-0.145
6409,-0.185,-0.105
6410,-0.155,-0.135
6411,-0.135,-0.165
6412,-0.125,-0.195
6413,-0.115,-0.225
6414,-0.075,-0.275
6415,-0.035,-0.295
6416,-0.005,-0.305
6417,-0.015,-0.315
6418,0.015,-0.305
6419,-0.015,-0.275
6420,-0.055,-0.215
6421,-0.045,-0.145
6422,-0.045,-0.115
6423,-0.085,-0.095
6424,-0.115,-0.065
6425,-0.105,0.015
6426,-0.125,0.005
6427,-0.155,-0.025
6428,-0.165,-0.035
6429,-0.155,-0.025
6430,-0.175,0.005
6431,-0.195,-0.025
6432,-0.195,-0.005
6433,-0.175,-0.005
6434,-0.185,-0.005
6435,-0.145,-0.035
6436,-0.165,-0.055
6437,-0.155,-0.055
6438,-0.145,-0.055
6439,-0.175,-0.035
6440,-0.175,-0.045
6441,-0.165,-0.045
6442,-0.155,-0.015
6443,-0.105,-0.025
6444,-0.105,0.005
6445,-0.135,-0.005
6446,-0.055,0.035
6447,0.015,-0.045
6448,-0.065,-0.055
6449,-0.135,-0.065
6450,-0.135,-0.075
6451,-0.145,-0.095
6452,-0.175,-0.055
6453,-0.185,-0.045
6454,-0.195,-0.075
6455,-0.215,-0.075
6456,-0.215,-0.075
6457,-0.225,-0.075
6458,-0.205,-0.025
6459,-0.175,-0.065
6460,-0.605,0.075
6461,-1.065,0.215
6462,-0.245,0.015
6463,1.715,-0.245
6464,2.965,-0.295
6465,3.025,-0.105
6466,2.435,0.275
6467,0.065,-0.585
6468,-0.635,-0.705
6469,-0.415,-0.185
6470,-0.405,-0.035
6471,-0.435,-0.045
6472,-0.405,-0.045
6473,-0.415,-0.055
6474,-0.385,-0.055
6475,-0.375,-0.055
6476,-0.355,-0.075
6477,-0.355,-0.055
6478,-0.325,-0.085
6479,-0.315,-0.095
6480,-0.295,-0.115
6481,-0.255,-0.095
6482,-0.235,-0.095
