'sample interval','ECG0','ECG1'
'0.0078125 sec','mV','mV'
0,0.025,-0.010
1,0.025,-0.005
2,0.030,-0.005
3,0.025,0.000
4,0.025,0.000
5,0.025,0.000
6,0.025,0.000
7,0.025,0.005
8,0.025,0.005
9,0.025,0.005
10,0.025,0.005
11,0.025,0.000
12,0.020,0.000
13,0.020,0.000
14,0.020,-0.005
15,0.025,-0.010
16,0.020,-0.010
17,0.015,-0.005
18,0.015,0.000
19,0.015,0.000
20,0.010,0.000
21,0.010,0.010
22,0.010,0.015
23,0.005,0.025
24,0.005,0.030
25,0.005,0.030
26,0.005,0.035
27,0.005,0.040
28,0.005,0.040
29,0.005,0.040
30,0.005,0.040
31,0.005,0.040
32,0.005,0.040
33,0.005,0.040
34,0.000,0.040
35,0.000,0.035
36,0.000,0.035
37,0.000,0.035
38,0.000,0.050
39,0.000,0.070
40,0.000,0.085
41,-0.005,0.085
42,-0.005,0.085
43,-0.005,0.085
44,-0.005,0.065
45,0.000,0.045
46,0.000,0.045
47,0.000,0.055
48,0.000,0.055
49,0.000,0.045
50,0.005,0.030
51,0.010,0.010
52,0.015,0.000
53,0.015,0.000
54,0.010,0.000
55,0.010,0.010
56,0.010,0.015
57,0.010,0.020
58,0.010,0.035
59,0.000,0.075
60,-0.040,0.150
61,-0.115,0.255
62,-0.195,0.340
63,-0.220,0.325
64,-0.190,0.205
65,-0.120,0.055
66,-0.045,-0.055
67,0.005,-0.120
68,0.030,-0.150
69,0.045,-0.145
70,0.045,-0.120
71,0.045,-0.080
72,0.045,-0.055
73,0.040,-0.040
74,0.035,-0.030
75,0.035,-0.020
76,0.035,-0.020
77,0.035,-0.020
78,0.035,-0.025
79,0.040,-0.025
80,0.040,-0.025
81,0.040,-0.030
82,0.040,-0.030
83,0.040,-0.030
84,0.035,-0.030
85,0.035,-0.030
86,0.035,-0.030
87,0.035,-0.030
88,0.035,-0.035
89,0.035,-0.040
90,0.035,-0.040
91,0.035,-0.040
92,0.040,-0.045
93,0.040,-0.045
94,0.035,-0.050
95,0.035,-0.045
96,0.030,-0.040
97,0.025,-0.040
98,0.025,-0.040
99,0.025,-0.035
100,0.025,-0.030
101,0.020,-0.020
102,0.015,-0.015
103,0.015,-0.005
104,0.010,-0.005
105,0.010,-0.005
106,0.010,-0.005
107,0.010,0.000
108,0.015,0.000
109,0.015,0.000
110,0.015,0.000
111,0.015,0.000
112,0.015,0.000
113,0.015,-0.005
114,0.015,-0.010
115,0.015,-0.015
116,0.015,-0.015
117,0.015,-0.010
118,0.015,-0.005
119,0.015,-0.005
120,0.015,-0.010
121,0.010,-0.010
122,0.010,-0.010
123,0.010,-0.020
124,0.010,-0.015
125,0.010,-0.010
126,0.010,-0.005
127,0.005,0.000
128,0.005,0.020
129,0.005,0.030
130,0.005,0.040
131,0.000,0.055
132,0.000,0.065
133,-0.005,0.060
134,-0.005,0.050
135,-0.005,0.055
136,-0.010,0.060
137,-0.005,0.050
138,0.000,0.030
139,0.000,0.015
140,0.005,-0.005
141,0.010,-0.030
142,0.015,-0.045
143,0.015,-0.050
144,0.020,-0.055
145,0.020,-0.050
146,0.020,-0.045
147,0.015,-0.030
148,0.000,0.005
149,-0.045,0.100
150,-0.120,0.230
151,-0.190,0.325
152,-0.210,0.325
153,-0.175,0.215
154,-0.110,0.070
155,-0.040,-0.050
156,0.005,-0.130
157,0.025,-0.165
158,0.040,-0.155
159,0.045,-0.125
160,0.045,-0.095
161,0.045,-0.075
162,0.040,-0.060
163,0.040,-0.045
164,0.035,-0.035
165,0.030,-0.015
166,0.025,-0.010
167,0.015,-0.005
168,0.015,0.000
169,0.015,0.000
170,0.015,0.010
171,0.015,0.010
172,0.015,0.015
173,0.015,0.020
174,0.020,0.025
175,0.020,0.030
176,0.015,0.025
177,0.015,0.015
178,0.015,0.005
179,0.020,0.000
180,0.020,-0.010
181,0.020,-0.020
182,0.025,-0.030
183,0.025,-0.035
184,0.030,-0.040
185,0.030,-0.040
186,0.030,-0.040
187,0.025,-0.040
188,0.020,-0.040
189,0.015,-0.035
190,0.015,-0.025
191,0.015,-0.020
192,0.010,-0.015
193,0.010,-0.005
194,0.010,0.000
195,0.010,0.000
196,0.010,0.005
197,0.005,0.005
198,0.000,0.005
199,0.000,0.005
200,0.005,0.010
201,0.005,0.010
202,0.000,0.010
203,0.000,0.015
204,0.000,0.020
205,0.000,0.025
206,0.000,0.030
207,0.000,0.040
208,0.000,0.040
209,0.000,0.045
210,0.000,0.060
211,-0.005,0.075
212,-0.010,0.095
213,-0.015,0.110
214,-0.015,0.110
215,-0.020,0.110
216,-0.025,0.110
217,-0.025,0.090
218,-0.025,0.075
219,-0.025,0.075
220,-0.020,0.070
221,-0.005,0.060
222,0.000,0.040
223,0.000,0.010
224,0.005,-0.010
225,0.005,-0.030
226,0.005,-0.040
227,0.015,-0.045
228,0.020,-0.045
229,0.020,-0.045
230,0.020,-0.045
231,0.020,-0.040
232,0.010,-0.015
233,-0.020,0.050
234,-0.095,0.160
235,-0.175,0.255
236,-0.215,0.260
237,-0.185,0.160
238,-0.120,0.010
239,-0.045,-0.105
240,0.015,-0.185
241,0.050,-0.220
242,0.060,-0.215
243,0.060,-0.175
244,0.060,-0.130
245,0.060,-0.090
246,0.055,-0.070
247,0.050,-0.055
248,0.045,-0.045
249,0.035,-0.035
250,0.035,-0.030
251,0.040,-0.020
252,0.040,-0.005
253,0.035,0.000
254,0.025,0.000
255,0.020,0.000
256,0.020,0.010
257,0.020,0.015
258,0.020,0.020
259,0.015,0.025
260,0.015,0.020
261,0.015,0.015
262,0.020,0.005
263,0.025,0.000
264,0.030,0.000
265,0.030,-0.005
266,0.035,-0.015
267,0.040,-0.025
268,0.035,-0.040
269,0.030,-0.050
270,0.030,-0.055
271,0.030,-0.050
272,0.030,-0.050
273,0.025,-0.045
274,0.025,-0.040
275,0.025,-0.030
276,0.025,-0.020
277,0.020,-0.015
278,0.015,-0.010
279,0.010,-0.005
280,0.010,0.000
281,0.010,0.005
282,0.010,0.010
283,0.005,0.010
284,0.005,0.010
285,0.005,0.020
286,0.005,0.030
287,0.005,0.030
288,0.005,0.030
289,0.005,0.035
290,0.005,0.040
291,0.005,0.040
292,0.005,0.040
293,0.000,0.035
294,0.000,0.025
295,0.000,0.020
296,0.000,0.020
297,0.000,0.030
298,0.000,0.045
299,0.000,0.060
300,0.000,0.075
301,0.000,0.080
302,-0.005,0.080
303,-0.010,0.080
304,-0.015,0.085
305,-0.015,0.070
306,-0.015,0.065
307,-0.020,0.060
308,-0.015,0.045
309,0.000,0.025
310,0.000,0.010
311,0.005,0.000
312,0.010,-0.020
313,0.015,-0.035
314,0.020,-0.040
315,0.020,-0.045
316,0.020,-0.050
317,0.025,-0.050
318,0.030,-0.045
319,0.015,-0.020
320,-0.020,0.040
321,-0.100,0.150
322,-0.180,0.260
323,-0.225,0.285
324,-0.210,0.200
325,-0.140,0.060
326,-0.060,-0.055
327,0.005,-0.140
328,0.040,-0.185
329,0.055,-0.190
330,0.050,-0.160
331,0.050,-0.125
332,0.050,-0.085
333,0.055,-0.055
334,0.050,-0.040
335,0.040,-0.040
336,0.030,-0.035
337,0.030,-0.030
338,0.035,-0.020
339,0.035,-0.015
340,0.030,-0.010
341,0.030,0.000
342,0.030,0.000
343,0.025,0.000
344,0.025,0.000
345,0.025,0.000
346,0.025,0.005
347,0.030,0.005
348,0.030,0.010
349,0.030,0.000
350,0.020,0.000
351,0.020,-0.005
352,0.020,0.000
353,0.020,0.000
354,0.020,0.000
355,0.015,0.000
356,0.015,0.000
357,0.015,0.000
358,0.020,0.000
359,0.020,0.000
360,0.020,-0.005
361,0.020,0.000
362,0.015,0.000
363,0.010,0.000
364,0.010,0.000
365,0.010,0.000
366,0.005,0.005
367,0.005,0.005
368,0.010,0.010
369,0.005,0.015
370,0.005,0.020
371,0.005,0.030
372,0.005,0.040
373,0.005,0.040
374,0.005,0.040
375,0.005,0.045
376,0.000,0.040
377,0.000,0.030
378,0.000,0.020
379,0.000,0.020
380,0.000,0.025
381,0.005,0.025
382,0.000,0.035
383,0.000,0.055
384,0.000,0.075
385,0.000,0.085
386,-0.005,0.090
387,-0.015,0.095
388,-0.020,0.100
389,-0.025,0.085
390,-0.020,0.080
391,-0.020,0.080
392,-0.015,0.085
393,-0.005,0.065
394,0.000,0.045
395,0.000,0.020
396,0.005,0.000
397,0.010,-0.020
398,0.015,-0.030
399,0.020,-0.030
400,0.020,-0.030
401,0.020,-0.035
402,0.020,-0.025
403,0.020,-0.015
404,0.005,0.010
405,-0.040,0.090
406,-0.125,0.210
407,-0.200,0.295
408,-0.225,0.280
409,-0.190,0.160
410,-0.120,0.010
411,-0.040,-0.095
412,0.010,-0.165
413,0.035,-0.190
414,0.050,-0.180
415,0.050,-0.145
416,0.050,-0.105
417,0.050,-0.070
418,0.045,-0.055
419,0.040,-0.040
420,0.040,-0.030
421,0.040,-0.030
422,0.040,-0.025
423,0.040,-0.020
424,0.035,-0.015
425,0.035,-0.010
426,0.035,-0.010
427,0.035,-0.010
428,0.030,-0.010
429,0.030,-0.010
430,0.030,-0.005
431,0.030,0.000
432,0.030,0.000
433,0.030,0.000
434,0.030,0.005
435,0.030,0.010
436,0.020,0.015
437,0.020,0.010
438,0.020,0.010
439,0.020,0.005
440,0.020,0.000
441,0.020,0.000
442,0.020,0.000
443,0.020,-0.005
444,0.020,-0.010
445,0.015,-0.005
446,0.010,0.000
447,0.010,0.000
448,0.010,0.000
449,0.010,0.000
450,0.010,0.005
451,0.010,0.010
452,0.010,0.010
453,0.010,0.015
454,0.010,0.015
455,0.010,0.015
456,0.010,0.020
457,0.010,0.025
458,0.005,0.025
459,0.005,0.025
460,0.005,0.020
461,0.005,0.020
462,0.005,0.020
463,0.010,0.020
464,0.010,0.015
465,0.010,0.015
466,0.005,0.015
467,0.000,0.015
468,0.000,0.015
469,0.000,0.030
470,0.000,0.050
471,0.000,0.070
472,-0.005,0.080
473,-0.010,0.085
474,-0.015,0.090
475,-0.015,0.080
476,-0.015,0.075
477,-0.020,0.075
478,-0.020,0.075
479,-0.010,0.070
480,0.000,0.055
481,0.000,0.030
482,0.005,0.010
483,0.010,-0.005
484,0.010,-0.015
485,0.015,-0.030
486,0.015,-0.035
487,0.015,-0.040
488,0.015,-0.040
489,0.020,-0.025
490,0.010,0.000
491,-0.030,0.075
492,-0.115,0.190
493,-0.195,0.285
494,-0.235,0.285
495,-0.205,0.180
496,-0.130,0.035
497,-0.050,-0.075
498,0.005,-0.155
499,0.035,-0.190
500,0.050,-0.180
501,0.050,-0.145
502,0.050,-0.105
503,0.050,-0.070
504,0.050,-0.050
505,0.045,-0.045
506,0.045,-0.040
507,0.045,-0.030
508,0.040,-0.025
509,0.035,-0.020
510,0.035,-0.020
511,0.035,-0.015
512,0.035,-0.010
513,0.035,0.000
514,0.030,0.000
515,0.025,0.000
516,0.025,0.000
517,0.020,0.005
518,0.020,0.010
519,0.020,0.015
520,0.020,0.020
521,0.020,0.025
522,0.025,0.025
523,0.020,0.025
524,0.020,0.020
525,0.020,0.015
526,0.015,0.010
527,0.015,0.005
528,0.015,0.000
529,0.015,0.000
530,0.015,0.000
531,0.015,0.000
532,0.015,0.000
533,0.010,0.000
534,0.010,0.000
535,0.010,0.005
536,0.010,0.010
537,0.010,0.020
538,0.005,0.025
539,0.005,0.030
540,0.005,0.040
541,0.005,0.040
542,0.005,0.045
543,0.005,0.045
544,0.000,0.045
545,0.000,0.045
546,0.005,0.040
547,0.000,0.035
548,0.000,0.030
549,0.000,0.025
550,0.000,0.025
551,0.000,0.030
552,0.000,0.030
553,0.000,0.030
554,0.000,0.040
555,0.000,0.065
556,0.000,0.085
557,-0.005,0.095
558,-0.010,0.100
559,-0.020,0.105
560,-0.025,0.105
561,-0.025,0.085
562,-0.025,0.080
563,-0.025,0.080
564,-0.020,0.075
565,-0.010,0.055
566,0.000,0.040
567,0.000,0.010
568,0.005,-0.005
569,0.010,-0.030
570,0.015,-0.040
571,0.010,-0.035
572,0.010,-0.035
573,0.015,-0.035
574,0.020,-0.030
575,0.020,-0.010
576,0.000,0.035
577,-0.055,0.125
578,-0.145,0.235
579,-0.215,0.295
580,-0.230,0.255
581,-0.185,0.120
582,-0.105,-0.015
583,-0.025,-0.110
584,0.015,-0.170
585,0.035,-0.190
586,0.050,-0.170
587,0.050,-0.130
588,0.050,-0.085
589,0.050,-0.055
590,0.045,-0.045
591,0.040,-0.040
592,0.035,-0.035
593,0.035,-0.030
594,0.035,-0.020
595,0.035,-0.015
596,0.035,-0.010
597,0.030,-0.010
598,0.030,-0.010
599,0.030,-0.005
600,0.030,0.000
601,0.030,0.000
602,0.030,0.000
603,0.025,0.000
604,0.025,0.000
605,0.030,0.005
606,0.025,0.010
607,0.015,0.005
608,0.015,0.005
609,0.020,0.005
610,0.015,0.000
611,0.015,0.000
612,0.015,0.000
613,0.020,0.000
614,0.020,0.000
615,0.020,0.000
616,0.015,-0.005
617,0.015,0.000
618,0.010,0.000
619,0.005,0.000
620,0.005,0.000
621,0.005,0.000
622,0.010,0.005
623,0.010,0.010
624,0.010,0.015
625,0.010,0.020
626,0.010,0.025
627,0.010,0.035
628,0.005,0.035
629,0.005,0.035
630,0.000,0.035
631,0.000,0.035
632,0.005,0.035
633,0.000,0.030
634,0.000,0.025
635,0.000,0.020
636,0.000,0.015
637,0.000,0.015
638,0.000,0.015
639,0.000,0.015
640,0.000,0.025
641,0.000,0.040
642,0.000,0.065
643,0.000,0.075
644,-0.005,0.085
645,-0.015,0.090
646,-0.020,0.090
647,-0.025,0.075
648,-0.020,0.065
649,-0.020,0.065
650,-0.020,0.060
651,-0.010,0.045
652,0.000,0.030
653,0.000,0.005
654,0.005,-0.010
655,0.010,-0.030
656,0.015,-0.040
657,0.015,-0.045
658,0.015,-0.040
659,0.015,-0.035
660,0.015,-0.030
661,0.020,-0.015
662,0.000,0.020
663,-0.050,0.100
664,-0.135,0.210
665,-0.210,0.285
666,-0.235,0.270
667,-0.190,0.150
668,-0.115,0.010
669,-0.040,-0.090
670,0.005,-0.160
671,0.030,-0.185
672,0.045,-0.175
673,0.050,-0.135
674,0.050,-0.095
675,0.045,-0.065
676,0.045,-0.045
677,0.040,-0.035
678,0.035,-0.020
679,0.035,-0.015
680,0.030,-0.010
681,0.030,-0.005
682,0.030,0.000
683,0.030,0.000
684,0.025,0.000
685,0.025,0.005
686,0.030,0.000
687,0.030,0.000
688,0.025,0.005
689,0.025,0.005
690,0.025,0.010
691,0.025,0.010
692,0.025,0.010
693,0.020,0.010
694,0.020,0.010
695,0.020,0.010
696,0.020,0.005
697,0.020,0.000
698,0.020,0.000
699,0.025,-0.005
700,0.020,-0.005
701,0.020,-0.010
702,0.020,-0.010
703,0.020,-0.010
704,0.015,-0.010
705,0.010,-0.010
706,0.010,-0.015
707,0.010,-0.010
708,0.010,0.000
709,0.010,0.000
710,0.010,0.000
711,0.010,0.010
712,0.010,0.015
713,0.010,0.025
714,0.005,0.030
715,0.005,0.030
716,0.005,0.030
717,0.005,0.030
718,0.005,0.030
719,0.005,0.025
720,0.000,0.020
721,0.000,0.010
722,0.005,0.010
723,0.005,0.010
724,0.005,0.010
725,0.005,0.010
726,0.005,0.015
727,0.000,0.035
728,0.000,0.055
729,0.000,0.065
730,-0.005,0.070
731,-0.010,0.075
732,-0.015,0.080
733,-0.015,0.070
734,-0.015,0.065
735,-0.020,0.060
736,-0.015,0.055
737,-0.005,0.040
738,0.000,0.025
739,0.005,0.005
740,0.015,-0.010
741,0.020,-0.025
742,0.015,-0.035
743,0.015,-0.035
744,0.020,-0.040
745,0.025,-0.035
746,0.025,-0.030
747,0.025,-0.020
748,0.010,0.010
749,-0.035,0.090
750,-0.115,0.200
751,-0.185,0.270
752,-0.210,0.240
753,-0.165,0.120
754,-0.090,-0.005
755,-0.020,-0.095
756,0.020,-0.150
757,0.045,-0.175
758,0.060,-0.160
759,0.060,-0.125
760,0.060,-0.085
761,0.060,-0.060
762,0.055,-0.050
763,0.055,-0.040
764,0.050,-0.035
765,0.050,-0.030
766,0.045,-0.025
767,0.045,-0.020
768,0.045,-0.020
769,0.040,-0.015
770,0.035,0.000
771,0.035,0.000
772,0.030,0.005
773,0.030,0.010
774,0.030,0.015
775,0.030,0.015
776,0.030,0.015
777,0.030,0.010
778,0.030,0.005
779,0.030,0.000
780,0.035,-0.010
781,0.040,-0.020
782,0.040,-0.030
783,0.040,-0.040
784,0.045,-0.050
785,0.040,-0.060
786,0.040,-0.065
787,0.040,-0.065
788,0.040,-0.060
789,0.035,-0.055
790,0.030,-0.050
791,0.025,-0.035
792,0.020,-0.025
793,0.020,-0.015
794,0.015,-0.005
795,0.015,0.000
796,0.015,0.005
797,0.015,0.010
798,0.015,0.010
799,0.010,0.015
800,0.010,0.015
801,0.010,0.020
802,0.010,0.025
803,0.010,0.025
804,0.010,0.025
805,0.010,0.025
806,0.010,0.025
807,0.005,0.025
808,0.005,0.025
809,0.005,0.020
810,0.005,0.015
811,0.005,0.015
812,0.005,0.015
813,0.005,0.015
814,0.000,0.030
815,0.000,0.040
816,0.000,0.050
817,0.000,0.055
818,0.000,0.060
819,-0.005,0.065
820,-0.005,0.050
821,-0.005,0.050
822,-0.005,0.050
823,-0.005,0.055
824,0.000,0.040
825,0.000,0.025
826,0.000,0.005
827,0.005,-0.010
828,0.010,-0.025
829,0.015,-0.035
830,0.015,-0.040
831,0.015,-0.040
832,0.015,-0.040
833,0.015,-0.040
834,0.015,-0.020
835,0.000,0.025
836,-0.050,0.125
837,-0.135,0.255
838,-0.205,0.345
839,-0.220,0.320
840,-0.175,0.190
841,-0.100,0.035
842,-0.035,-0.075
843,0.010,-0.145
844,0.035,-0.170
845,0.045,-0.155
846,0.045,-0.120
847,0.040,-0.080
848,0.035,-0.050
849,0.035,-0.030
850,0.030,-0.020
851,0.030,-0.010
852,0.025,-0.005
853,0.025,0.000
854,0.025,0.000
855,0.025,0.000
856,0.020,0.000
857,0.015,0.010
858,0.015,0.020
859,0.010,0.030
860,0.010,0.040
861,0.010,0.045
862,0.010,0.045
863,0.010,0.040
864,0.010,0.035
865,0.010,0.020
866,0.015,0.010
867,0.015,0.000
868,0.015,0.000
869,0.020,-0.010
870,0.025,-0.015
871,0.025,-0.025
872,0.030,-0.035
873,0.025,-0.040
874,0.025,-0.040
875,0.020,-0.040
876,0.020,-0.035
877,0.020,-0.030
878,0.015,-0.020
879,0.010,-0.010
880,0.005,0.000
881,0.005,0.000
882,0.005,0.005
883,0.005,0.015
884,0.000,0.020
885,0.000,0.025
886,0.000,0.030
887,0.000,0.040
888,0.000,0.040
889,0.000,0.045
890,0.000,0.050
891,-0.005,0.055
892,-0.005,0.060
893,-0.005,0.065
894,-0.005,0.060
895,-0.005,0.060
896,-0.005,0.060
897,0.000,0.060
898,0.000,0.065
899,-0.005,0.070
900,-0.010,0.080
901,-0.015,0.090
902,-0.020,0.100
903,-0.020,0.110
904,-0.020,0.110
905,-0.025,0.090
906,-0.030,0.075
907,-0.025,0.070
908,-0.025,0.075
909,-0.015,0.075
910,-0.005,0.060
911,0.000,0.045
912,0.000,0.020
913,0.000,0.000
914,0.000,-0.010
915,0.000,-0.020
916,0.005,-0.020
917,0.005,-0.020
918,0.005,-0.025
919,0.010,-0.020
920,0.010,-0.005
921,-0.010,0.040
922,-0.075,0.145
923,-0.155,0.260
924,-0.215,0.310
925,-0.220,0.245
926,-0.165,0.095
927,-0.085,-0.030
928,-0.015,-0.120
929,0.020,-0.165
930,0.040,-0.175
931,0.040,-0.150
932,0.040,-0.105
933,0.035,-0.065
934,0.035,-0.035
935,0.030,-0.020
936,0.030,-0.015
937,0.030,-0.005
938,0.025,0.000
939,0.025,0.000
940,0.025,0.000
941,0.020,0.000
942,0.015,0.000
943,0.015,0.010
944,0.010,0.020
945,0.010,0.025
946,0.010,0.030
947,0.010,0.030
948,0.015,0.020
949,0.015,0.010
950,0.015,0.000
951,0.020,0.000
952,0.020,0.000
953,0.020,-0.010
954,0.025,-0.015
955,0.030,-0.020
956,0.030,-0.025
957,0.030,-0.035
958,0.020,-0.040
959,0.020,-0.040
960,0.020,-0.035
961,0.025,-0.035
962,0.020,-0.030
963,0.010,-0.025
964,0.005,-0.015
965,0.005,-0.005
966,0.005,0.000
967,0.010,0.000
968,0.005,0.010
969,0.005,0.020
970,0.005,0.020
971,0.005,0.020
972,0.005,0.030
973,0.000,0.035
974,0.000,0.035
975,0.000,0.035
976,0.000,0.040
977,0.000,0.050
978,0.000,0.045
979,0.000,0.045
980,0.000,0.045
981,0.000,0.045
982,0.000,0.045
983,0.000,0.040
984,0.000,0.040
985,-0.005,0.040
986,-0.005,0.060
987,-0.005,0.080
988,-0.005,0.085
989,-0.010,0.090
990,-0.015,0.090
991,-0.015,0.095
992,-0.020,0.080
993,-0.020,0.065
994,-0.020,0.065
995,-0.020,0.065
996,-0.015,0.055
997,-0.005,0.035
998,0.000,0.020
999,0.005,0.005
1000,0.010,-0.005
1001,0.015,-0.020
1002,0.015,-0.030
1003,0.015,-0.035
1004,0.015,-0.045
1005,0.015,-0.040
1006,0.020,-0.025
1007,0.005,0.000
1008,-0.040,0.075
1009,-0.120,0.190
1010,-0.195,0.280
1011,-0.225,0.285
1012,-0.195,0.185
1013,-0.125,0.035
1014,-0.045,-0.065
1015,0.005,-0.140
1016,0.035,-0.175
1017,0.045,-0.170
1018,0.045,-0.135
1019,0.045,-0.095
1020,0.045,-0.060
1021,0.040,-0.040
1022,0.030,-0.035
1023,0.030,-0.030
1024,0.035,-0.025
1025,0.035,-0.020
1026,0.035,-0.010
1027,0.035,0.000
1028,0.035,0.000
1029,0.025,0.000
1030,0.020,0.000
1031,0.015,0.015
1032,0.015,0.020
1033,0.015,0.025
1034,0.015,0.020
1035,0.020,0.020
1036,0.020,0.020
1037,0.025,0.015
1038,0.030,0.015
1039,0.035,0.015
1040,0.025,0.005
1041,0.015,0.000
1042,0.015,-0.005
1043,0.015,-0.010
1044,0.020,-0.010
1045,0.020,-0.010
1046,0.025,-0.010
1047,0.025,-0.010
1048,0.025,-0.010
1049,0.020,-0.015
1050,0.015,-0.020
1051,0.010,-0.020
1052,0.010,-0.015
1053,0.010,-0.005
1054,0.010,0.000
1055,0.010,0.005
1056,0.010,0.005
1057,0.010,0.015
1058,0.010,0.025
1059,0.005,0.030
1060,0.005,0.030
1061,0.000,0.035
1062,0.000,0.030
1063,0.000,0.020
1064,0.005,0.015
1065,0.005,0.015
1066,0.005,0.015
1067,0.005,0.015
1068,0.005,0.015
1069,0.005,0.015
1070,0.005,0.015
1071,0.005,0.020
1072,0.000,0.035
1073,0.000,0.050
1074,0.000,0.065
1075,0.000,0.070
1076,-0.010,0.080
1077,-0.015,0.080
1078,-0.015,0.070
1079,-0.015,0.070
1080,-0.015,0.070
1081,-0.015,0.070
1082,-0.010,0.060
1083,0.000,0.035
1084,0.000,0.015
1085,0.005,-0.005
1086,0.010,-0.020
1087,0.015,-0.030
1088,0.015,-0.035
1089,0.015,-0.040
1090,0.020,-0.040
1091,0.025,-0.035
1092,0.025,-0.025
1093,0.015,0.005
1094,-0.030,0.085
1095,-0.115,0.195
1096,-0.200,0.285
1097,-0.235,0.285
1098,-0.205,0.175
1099,-0.130,0.030
1100,-0.045,-0.070
1101,0.010,-0.145
1102,0.045,-0.190
1103,0.060,-0.180
1104,0.055,-0.145
1105,0.045,-0.105
1106,0.045,-0.070
1107,0.040,-0.050
1108,0.040,-0.045
1109,0.040,-0.035
1110,0.040,-0.035
1111,0.035,-0.025
1112,0.035,-0.020
1113,0.040,-0.015
1114,0.035,-0.015
1115,0.035,-0.015
1116,0.035,-0.010
1117,0.030,-0.010
1118,0.025,-0.005
1119,0.025,-0.005
1120,0.025,-0.005
1121,0.030,0.000
1122,0.025,0.000
1123,0.025,0.000
1124,0.030,-0.005
1125,0.035,-0.010
1126,0.030,-0.010
1127,0.030,-0.015
1128,0.030,-0.010
1129,0.030,-0.010
1130,0.025,-0.010
1131,0.020,-0.015
1132,0.020,-0.025
1133,0.025,-0.025
1134,0.020,-0.025
1135,0.015,-0.025
1136,0.015,-0.020
1137,0.015,-0.015
1138,0.020,-0.005
1139,0.015,0.000
1140,0.010,0.000
1141,0.010,0.000
1142,0.010,0.005
1143,0.010,0.010
1144,0.010,0.020
1145,0.010,0.025
1146,0.005,0.030
1147,0.005,0.030
1148,0.005,0.035
1149,0.005,0.035
1150,0.005,0.030
1151,0.000,0.020
1152,0.000,0.020
1153,0.000,0.020
1154,0.000,0.020
1155,0.000,0.015
1156,0.000,0.015
1157,0.005,0.025
1158,0.000,0.040
1159,0.000,0.055
1160,0.000,0.060
1161,-0.010,0.060
1162,-0.015,0.060
1163,-0.020,0.065
1164,-0.015,0.055
1165,-0.015,0.050
1166,-0.015,0.050
1167,-0.015,0.045
1168,-0.010,0.035
1169,0.000,0.015
1170,0.000,0.000
1171,0.010,-0.015
1172,0.015,-0.035
1173,0.015,-0.050
1174,0.015,-0.055
1175,0.015,-0.060
1176,0.020,-0.055
1177,0.025,-0.050
1178,0.025,-0.035
1179,0.010,0.000
1180,-0.040,0.080
1181,-0.125,0.195
1182,-0.200,0.280
1183,-0.225,0.275
1184,-0.190,0.155
1185,-0.110,0.005
1186,-0.035,-0.100
1187,0.015,-0.170
1188,0.050,-0.205
1189,0.065,-0.195
1190,0.060,-0.155
1191,0.055,-0.110
1192,0.055,-0.075
1193,0.050,-0.055
1194,0.045,-0.040
1195,0.045,-0.035
1196,0.045,-0.020
1197,0.040,-0.005
1198,0.035,-0.005
1199,0.035,0.000
1200,0.035,0.005
1201,0.030,0.005
1202,0.025,0.005
1203,0.025,0.005
1204,0.025,0.005
1205,0.025,0.000
1206,0.025,0.000
1207,0.025,-0.005
1208,0.030,-0.015
1209,0.030,-0.020
1210,0.030,-0.025
1211,0.030,-0.025
1212,0.030,-0.025
1213,0.030,-0.025
1214,0.030,-0.030
1215,0.030,-0.030
1216,0.030,-0.030
1217,0.025,-0.035
1218,0.015,-0.045
1219,0.015,-0.045
1220,0.015,-0.040
1221,0.015,-0.040
1222,0.015,-0.035
1223,0.010,-0.030
1224,0.010,-0.020
1225,0.010,-0.015
1226,0.010,-0.015
1227,0.010,-0.010
1228,0.010,-0.010
1229,0.010,-0.010
1230,0.010,-0.010
1231,0.010,-0.005
1232,0.010,0.000
1233,0.010,0.000
1234,0.010,0.000
1235,0.010,-0.005
1236,0.010,0.000
1237,0.005,0.000
1238,0.005,0.000
1239,0.005,0.000
1240,0.005,0.000
1241,0.005,0.000
1242,0.005,0.005
1243,0.005,0.000
1244,0.005,0.000
1245,0.005,0.000
1246,0.005,0.010
1247,0.005,0.030
1248,0.005,0.040
1249,0.000,0.045
1250,0.000,0.050
1251,-0.005,0.050
1252,-0.005,0.040
1253,-0.005,0.035
1254,-0.005,0.035
1255,-0.005,0.030
1256,0.000,0.020
1257,0.000,0.005
1258,0.005,-0.010
1259,0.010,-0.035
1260,0.015,-0.060
1261,0.020,-0.075
1262,0.020,-0.085
1263,0.020,-0.085
1264,0.020,-0.080
1265,0.020,-0.075
1266,0.015,-0.055
1267,-0.005,0.000
1268,-0.060,0.105
1269,-0.140,0.240
1270,-0.200,0.320
1271,-0.205,0.280
1272,-0.155,0.135
1273,-0.080,-0.010
1274,-0.015,-0.120
1275,0.015,-0.185
1276,0.035,-0.200
1277,0.040,-0.175
1278,0.040,-0.135
1279,0.035,-0.090
1280,0.035,-0.070
1281,0.030,-0.055
1282,0.020,-0.040
1283,0.015,-0.030
1284,0.015,-0.025
1285,0.015,-0.020
1286,0.020,-0.015
1287,0.010,-0.005
1288,0.005,0.000
1289,0.005,0.000
1290,0.005,0.010
1291,0.000,0.015
1292,0.000,0.020
1293,0.000,0.015
1294,0.005,0.010
1295,0.005,0.000
1296,0.005,0.000
1297,0.005,-0.010
1298,0.010,-0.015
1299,0.010,-0.025
1300,0.015,-0.030
1301,0.010,-0.035
1302,0.010,-0.040
1303,0.005,-0.050
1304,0.005,-0.055
1305,0.010,-0.060
1306,0.010,-0.055
1307,0.005,-0.050
1308,0.005,-0.045
1309,0.005,-0.040
1310,0.000,-0.035
1311,0.000,-0.025
1312,0.000,-0.020
1313,0.000,-0.010
1314,-0.005,-0.010
1315,-0.010,-0.010
1316,-0.005,-0.005
1317,-0.005,0.000
1318,-0.010,0.000
1319,-0.010,0.005
1320,-0.015,0.015
1321,-0.015,0.025
1322,-0.015,0.040
1323,-0.015,0.045
1324,-0.020,0.050
1325,-0.020,0.055
1326,-0.025,0.055
1327,-0.030,0.060
1328,-0.030,0.070
1329,-0.035,0.090
1330,-0.040,0.110
1331,-0.045,0.115
1332,-0.045,0.120
1333,-0.050,0.120
1334,-0.040,0.105
1335,-0.040,0.090
1336,-0.040,0.080
1337,-0.045,0.080
1338,-0.045,0.075
1339,-0.035,0.065
1340,-0.025,0.050
1341,-0.015,0.035
1342,-0.005,0.015
1343,-0.005,0.000
1344,-0.005,0.000
1345,0.000,-0.005
1346,0.000,-0.010
1347,0.000,-0.015
1348,0.005,-0.020
1349,0.000,-0.015
1350,-0.010,0.015
1351,-0.065,0.105
1352,-0.150,0.230
1353,-0.225,0.310
1354,-0.235,0.280
1355,-0.190,0.140
1356,-0.110,-0.010
1357,-0.040,-0.115
1358,0.005,-0.185
1359,0.030,-0.210
1360,0.045,-0.195
1361,0.040,-0.155
1362,0.030,-0.110
1363,0.030,-0.070
1364,0.030,-0.045
1365,0.030,-0.025
1366,0.030,-0.015
1367,0.030,-0.005
1368,0.020,0.000
1369,0.015,0.000
1370,0.015,0.000
1371,0.015,0.005
1372,0.015,0.010
1373,0.015,0.015
1374,0.015,0.020
1375,0.020,0.020
1376,0.020,0.015
1377,0.020,0.010
1378,0.020,0.010
1379,0.025,0.000
1380,0.030,-0.005
1381,0.030,-0.015
1382,0.030,-0.025
1383,0.035,-0.035
1384,0.040,-0.040
1385,0.035,-0.045
1386,0.035,-0.050
1387,0.035,-0.055
1388,0.035,-0.060
1389,0.035,-0.065
1390,0.030,-0.060
1391,0.025,-0.055
1392,0.025,-0.050
1393,0.030,-0.040
1394,0.025,-0.035
1395,0.020,-0.025
1396,0.015,-0.015
1397,0.015,-0.005
1398,0.015,0.000
1399,0.010,0.000
1400,0.010,0.005
1401,0.010,0.010
1402,0.005,0.015
1403,0.005,0.015
1404,0.010,0.015
1405,0.010,0.015
1406,0.010,0.020
1407,0.010,0.015
1408,0.010,0.015
1409,0.010,0.010
1410,0.005,0.005
1411,0.005,0.005
1412,0.005,0.005
1413,0.010,0.010
1414,0.010,0.010
1415,0.005,0.015
1416,0.005,0.025
1417,0.005,0.045
1418,0.000,0.060
1419,0.000,0.065
1420,-0.005,0.070
1421,-0.010,0.075
1422,-0.010,0.065
1423,-0.010,0.060
1424,-0.005,0.060
1425,-0.005,0.065
1426,-0.005,0.055
1427,0.000,0.035
1428,0.000,0.015
1429,0.010,0.000
1430,0.020,-0.025
1431,0.025,-0.040
1432,0.025,-0.045
1433,0.025,-0.040
1434,0.030,-0.040
1435,0.030,-0.040
1436,0.025,-0.030
1437,0.015,0.000
1438,-0.020,0.075
1439,-0.105,0.190
1440,-0.185,0.280
1441,-0.225,0.280
1442,-0.190,0.170
1443,-0.115,0.025
1444,-0.040,-0.080
1445,0.010,-0.160
1446,0.045,-0.200
1447,0.060,-0.195
1448,0.060,-0.155
1449,0.050,-0.115
1450,0.045,-0.085
1451,0.045,-0.070
1452,0.050,-0.060
1453,0.055,-0.045
1454,0.040,-0.045
1455,0.035,-0.040
1456,0.035,-0.030
1457,0.040,-0.020
1458,0.040,-0.015
1459,0.035,-0.010
1460,0.035,-0.005
1461,0.035,0.000
1462,0.025,0.000
1463,0.025,0.000
1464,0.025,0.000
1465,0.030,0.005
1466,0.030,0.005
1467,0.030,0.005
1468,0.035,0.005
1469,0.030,0.000
1470,0.025,0.000
1471,0.025,0.000
1472,0.025,-0.010
1473,0.025,-0.015
1474,0.030,-0.015
1475,0.025,-0.010
1476,0.025,-0.010
1477,0.030,-0.015
1478,0.030,-0.020
1479,0.025,-0.020
1480,0.020,-0.015
1481,0.015,-0.015
1482,0.010,-0.010
1483,0.015,-0.005
1484,0.015,0.000
1485,0.010,0.005
1486,0.010,0.005
1487,0.015,0.015
1488,0.010,0.020
1489,0.005,0.025
1490,0.005,0.030
1491,0.005,0.035
1492,0.010,0.030
1493,0.005,0.025
1494,0.005,0.025
1495,0.005,0.020
1496,0.005,0.020
1497,0.010,0.020
1498,0.010,0.020
1499,0.005,0.015
1500,0.000,0.020
1501,0.000,0.040
1502,0.000,0.060
1503,0.000,0.065
1504,0.000,0.070
1505,-0.005,0.080
1506,-0.010,0.080
1507,-0.005,0.070
1508,-0.005,0.065
1509,-0.010,0.060
1510,-0.015,0.055
1511,-0.010,0.045
1512,0.000,0.025
1513,0.005,0.005
1514,0.015,-0.005
1515,0.020,-0.020
1516,0.020,-0.030
1517,0.025,-0.035
1518,0.025,-0.040
1519,0.020,-0.045
1520,0.020,-0.050
1521,0.025,-0.040
1522,0.010,0.000
1523,-0.035,0.080
1524,-0.115,0.195
1525,-0.190,0.285
1526,-0.215,0.270
1527,-0.180,0.145
1528,-0.100,0.000
1529,-0.020,-0.095
1530,0.025,-0.175
1531,0.055,-0.205
1532,0.060,-0.200
1533,0.060,-0.165
1534,0.060,-0.115
1535,0.060,-0.075
1536,0.060,-0.060
1537,0.060,-0.055
1538,0.055,-0.055
1539,0.045,-0.050
1540,0.040,-0.050
1541,0.040,-0.045
1542,0.040,-0.035
1543,0.045,-0.020
1544,0.040,-0.015
1545,0.040,-0.010
1546,0.035,-0.005
1547,0.035,0.000
1548,0.035,0.000
1549,0.030,0.000
1550,0.030,0.000
1551,0.030,0.000
1552,0.030,0.005
1553,0.030,0.010
1554,0.030,0.005
1555,0.030,0.000
1556,0.025,-0.005
1557,0.025,-0.010
1558,0.030,-0.010
1559,0.030,-0.010
1560,0.030,-0.015
1561,0.030,-0.020
1562,0.025,-0.020
1563,0.025,-0.025
1564,0.025,-0.025
1565,0.020,-0.020
1566,0.020,-0.015
1567,0.020,-0.015
1568,0.025,-0.010
1569,0.020,-0.005
1570,0.020,0.000
1571,0.015,0.000
1572,0.015,0.005
1573,0.015,0.015
1574,0.015,0.020
1575,0.010,0.015
1576,0.005,0.015
1577,0.005,0.015
1578,0.015,0.015
1579,0.015,0.015
1580,0.010,0.010
1581,0.010,0.005
1582,0.010,0.005
1583,0.015,0.005
1584,0.010,0.005
1585,0.005,0.000
1586,0.005,0.005
1587,0.005,0.025
1588,0.005,0.045
1589,0.000,0.050
1590,0.000,0.055
1591,0.000,0.065
1592,-0.005,0.070
1593,-0.005,0.070
1594,-0.010,0.060
1595,-0.005,0.065
1596,-0.005,0.070
1597,-0.010,0.055
1598,-0.005,0.030
1599,0.000,0.015
1600,0.010,0.000
1601,0.015,-0.020
1602,0.020,-0.035
1603,0.025,-0.040
1604,0.025,-0.035
1605,0.025,-0.035
1606,0.025,-0.030
1607,0.020,-0.025
1608,0.010,-0.010
1609,-0.025,0.045
1610,-0.095,0.160
1611,-0.175,0.270
1612,-0.225,0.300
1613,-0.210,0.210
1614,-0.145,0.060
1615,-0.060,-0.055
1616,0.005,-0.130
1617,0.045,-0.180
1618,0.050,-0.190
1619,0.050,-0.170
1620,0.050,-0.125
1621,0.045,-0.085
1622,0.045,-0.070
1623,0.045,-0.055
1624,0.050,-0.040
1625,0.050,-0.030
1626,0.045,-0.030
1627,0.035,-0.030
1628,0.030,-0.035
1629,0.030,-0.025
1630,0.035,-0.015
1631,0.035,-0.010
1632,0.035,0.000
1633,0.035,0.000
1634,0.035,0.005
1635,0.030,0.000
1636,0.025,0.000
1637,0.025,0.000
1638,0.025,0.000
1639,0.025,0.005
1640,0.030,0.010
1641,0.030,0.005
1642,0.030,0.000
1643,0.025,-0.005
1644,0.025,-0.015
1645,0.025,-0.020
1646,0.030,-0.020
1647,0.030,-0.020
1648,0.030,-0.025
1649,0.030,-0.020
1650,0.030,-0.015
1651,0.030,-0.010
1652,0.025,-0.010
1653,0.025,-0.005
1654,0.025,0.000
1655,0.025,0.000
1656,0.025,0.020
1657,0.020,0.020
1658,0.020,0.020
1659,0.020,0.020
1660,0.015,0.020
1661,0.015,0.020
1662,0.015,0.025
1663,0.020,0.020
1664,0.020,0.015
1665,0.020,0.005
1666,0.015,0.005
1667,0.015,0.005
1668,0.015,0.010
1669,0.020,0.015
1670,0.020,0.015
1671,0.015,0.020
1672,0.010,0.040
1673,0.005,0.055
1674,0.005,0.060
1675,0.005,0.065
1676,0.000,0.070
1677,-0.005,0.075
1678,-0.005,0.070
1679,-0.005,0.065
1680,-0.010,0.065
1681,-0.005,0.070
1682,0.000,0.065
1683,0.000,0.050
1684,0.000,0.025
1685,0.010,0.000
1686,0.015,-0.015
1687,0.020,-0.025
1688,0.015,-0.035
1689,0.015,-0.040
1690,0.020,-0.035
1691,0.025,-0.035
1692,0.020,-0.025
1693,0.010,0.010
1694,-0.030,0.090
1695,-0.110,0.205
1696,-0.180,0.300
1697,-0.195,0.300
1698,-0.155,0.190
1699,-0.085,0.040
1700,-0.015,-0.070
1701,0.020,-0.155
1702,0.045,-0.190
1703,0.060,-0.180
1704,0.060,-0.145
1705,0.055,-0.100
1706,0.050,-0.065
1707,0.050,-0.045
1708,0.045,-0.025
1709,0.045,-0.015
1710,0.035,-0.015
1711,0.030,-0.015
1712,0.030,-0.015
1713,0.030,-0.010
1714,0.030,-0.010
1715,0.035,-0.010
1716,0.030,-0.010
1717,0.025,-0.005
1718,0.025,0.000
1719,0.025,0.000
1720,0.030,-0.005
1721,0.030,-0.010
1722,0.025,-0.010
1723,0.020,-0.020
1724,0.020,-0.025
1725,0.020,-0.035
1726,0.025,-0.040
1727,0.030,-0.040
1728,0.035,-0.040
1729,0.030,-0.045
1730,0.025,-0.040
1731,0.020,-0.035
1732,0.015,-0.035
1733,0.010,-0.030
1734,0.010,-0.020
1735,0.010,-0.005
1736,0.005,0.000
1737,0.005,0.010
1738,0.005,0.015
1739,0.010,0.010
1740,0.005,0.010
1741,0.000,0.010
1742,0.000,0.015
1743,0.005,0.010
1744,0.010,0.005
1745,0.010,0.000
1746,0.005,0.000
1747,0.005,-0.005
1748,0.015,-0.005
1749,0.015,-0.005
1750,0.015,-0.005
1751,0.005,-0.005
1752,0.005,-0.005
1753,0.010,-0.005
1754,0.010,0.000
1755,0.010,0.000
1756,0.010,0.015
1757,0.005,0.040
1758,0.000,0.060
1759,-0.015,0.080
1760,-0.020,0.085
1761,-0.025,0.100
1762,-0.025,0.110
1763,-0.030,0.110
1764,-0.030,0.105
1765,-0.030,0.105
1766,-0.025,0.105
1767,-0.025,0.105
1768,-0.020,0.095
1769,-0.010,0.070
1770,-0.005,0.040
1771,0.000,0.015
1772,0.000,0.005
1773,0.000,0.000
1774,0.000,0.000
1775,0.000,0.000
1776,0.005,0.005
1777,0.005,0.010
1778,-0.005,0.035
1779,-0.050,0.105
1780,-0.130,0.220
1781,-0.210,0.330
1782,-0.255,0.340
1783,-0.225,0.235
1784,-0.150,0.085
1785,-0.060,-0.035
1786,-0.005,-0.125
1787,0.025,-0.160
1788,0.025,-0.155
1789,0.025,-0.110
1790,0.020,-0.050
1791,0.015,-0.005
1792,0.015,0.020
1793,0.010,0.035
1794,0.000,0.050
1795,0.000,0.075
1796,0.000,0.085
1797,0.000,0.090
1798,-0.005,0.100
1799,-0.005,0.115
1800,-0.005,0.125
1801,-0.010,0.130
1802,-0.010,0.130
1803,-0.005,0.130
1804,-0.005,0.135
1805,-0.010,0.125
1806,-0.005,0.120
1807,0.000,0.110
1808,0.000,0.090
1809,0.000,0.065
1810,0.005,0.050
1811,0.010,0.045
1812,0.010,0.040
1813,0.010,0.025
1814,0.015,0.010
1815,0.020,-0.005
1816,0.020,-0.020
1817,0.015,-0.015
1818,0.015,-0.010
1819,0.015,-0.010
1820,0.015,-0.020
1821,0.015,-0.020
1822,0.010,-0.015
1823,0.010,-0.015
1824,0.005,-0.010
1825,0.005,0.000
1826,0.010,0.005
1827,0.005,0.020
1828,0.000,0.025
1829,0.000,0.020
1830,0.005,0.015
1831,0.005,0.010
1832,0.005,0.015
1833,0.005,0.020
1834,0.005,0.010
1835,0.005,0.000
1836,0.005,0.000
1837,0.005,-0.005
1838,0.010,0.000
1839,0.010,0.000
1840,0.005,0.000
1841,0.000,0.005
1842,0.000,0.010
1843,0.000,0.025
1844,0.000,0.035
1845,0.000,0.055
1846,-0.010,0.070
1847,-0.015,0.080
1848,-0.015,0.085
1849,-0.025,0.085
1850,-0.030,0.090
1851,-0.025,0.090
1852,-0.015,0.080
1853,0.000,0.060
1854,0.000,0.025
1855,0.010,-0.015
1856,0.015,-0.045
1857,0.020,-0.055
1858,0.020,-0.055
1859,0.020,-0.045
1860,0.020,-0.045
1861,0.025,-0.050
1862,0.020,-0.030
1863,-0.010,0.025
1864,-0.090,0.130
1865,-0.180,0.225
1866,-0.225,0.240
1867,-0.200,0.145
1868,-0.125,0.000
1869,-0.040,-0.120
1870,0.020,-0.205
1871,0.065,-0.255
1872,0.075,-0.255
1873,0.075,-0.230
1874,0.075,-0.195
1875,0.070,-0.160
1876,0.065,-0.130
1877,0.055,-0.100
1878,0.055,-0.080
1879,0.055,-0.070
1880,0.050,-0.070
1881,0.045,-0.070
1882,0.045,-0.070
1883,0.055,-0.080
1884,0.060,-0.100
1885,0.065,-0.105
1886,0.060,-0.105
1887,0.060,-0.100
1888,0.060,-0.095
1889,0.060,-0.095
1890,0.060,-0.085
1891,0.055,-0.075
1892,0.055,-0.065
1893,0.055,-0.065
1894,0.055,-0.065
1895,0.055,-0.060
1896,0.050,-0.060
1897,0.045,-0.065
1898,0.045,-0.070
1899,0.045,-0.075
1900,0.050,-0.085
1901,0.045,-0.085
1902,0.045,-0.085
1903,0.045,-0.085
1904,0.045,-0.080
1905,0.035,-0.065
1906,0.025,-0.050
1907,0.020,-0.035
1908,0.025,-0.030
1909,0.020,-0.020
1910,0.015,-0.010
1911,0.010,0.000
1912,0.010,0.015
1913,0.010,0.035
1914,0.010,0.030
1915,0.010,0.025
1916,0.010,0.010
1917,0.010,0.005
1918,0.010,0.005
1919,0.005,0.015
1920,0.000,0.020
1921,0.000,0.015
1922,0.000,0.015
1923,0.000,0.015
1924,0.005,0.015
1925,0.000,0.015
1926,0.000,0.035
1927,0.000,0.055
1928,-0.005,0.080
1929,-0.005,0.095
1930,-0.015,0.105
1931,-0.025,0.115
1932,-0.030,0.120
1933,-0.030,0.125
1934,-0.035,0.125
1935,-0.035,0.125
1936,-0.025,0.110
1937,-0.015,0.080
1938,0.000,0.045
1939,0.010,0.010
1940,0.015,-0.025
1941,0.025,-0.065
1942,0.030,-0.080
1943,0.035,-0.085
1944,0.030,-0.075
1945,0.025,-0.065
1946,0.025,-0.060
1947,0.025,-0.045
1948,0.000,0.010
1949,-0.065,0.120
1950,-0.160,0.245
1951,-0.230,0.310
1952,-0.235,0.255
1953,-0.180,0.120
1954,-0.095,-0.005
1955,-0.025,-0.095
1956,0.010,-0.160
1957,0.040,-0.185
1958,0.055,-0.175
1959,0.055,-0.140
1960,0.050,-0.105
1961,0.045,-0.080
1962,0.035,-0.070
1963,0.035,-0.065
1964,0.035,-0.055
1965,0.035,-0.045
1966,0.040,-0.040
1967,0.040,-0.035
1968,0.035,-0.040
1969,0.035,-0.045
1970,0.040,-0.045
1971,0.040,-0.035
1972,0.035,-0.030
1973,0.030,-0.020
1974,0.025,-0.005
1975,0.025,0.000
1976,0.025,0.000
1977,0.020,0.000
1978,0.020,0.005
1979,0.020,0.005
1980,0.015,0.000
1981,0.015,0.000
1982,0.015,0.000
1983,0.015,0.000
1984,0.015,0.000
1985,0.015,0.000
1986,0.010,0.000
1987,0.005,-0.005
1988,0.005,0.000
1989,0.005,0.000
1990,0.000,0.005
1991,0.000,0.005
1992,0.000,0.005
1993,0.005,0.010
1994,0.005,0.025
1995,0.000,0.040
1996,0.000,0.045
1997,0.000,0.050
1998,0.000,0.055
1999,0.000,0.055
2000,0.000,0.055
2001,0.000,0.055
2002,0.000,0.050
2003,0.005,0.045
2004,0.005,0.040
2005,0.000,0.030
2006,0.000,0.020
2007,0.000,0.015
2008,0.000,0.015
2009,0.000,0.020
2010,0.000,0.040
2011,-0.005,0.070
2012,-0.010,0.085
2013,-0.010,0.100
2014,-0.020,0.115
2015,-0.025,0.120
2016,-0.025,0.105
2017,-0.030,0.100
2018,-0.035,0.100
2019,-0.030,0.105
2020,-0.020,0.095
2021,-0.010,0.080
2022,0.000,0.055
2023,0.000,0.030
2024,0.000,0.005
2025,0.005,0.000
2026,0.005,-0.005
2027,0.010,0.000
2028,0.015,0.000
2029,0.015,0.000
2030,0.010,0.005
2031,-0.005,0.045
2032,-0.060,0.140
2033,-0.145,0.250
2034,-0.210,0.320
2035,-0.220,0.280
2036,-0.175,0.145
2037,-0.095,0.000
2038,-0.020,-0.095
2039,0.030,-0.155
2040,0.055,-0.175
2041,0.065,-0.155
2042,0.065,-0.115
2043,0.065,-0.075
2044,0.060,-0.045
2045,0.050,-0.030
2046,0.050,-0.020
2047,0.050,-0.005
2048,0.050,0.000
2049,0.045,0.005
2050,0.045,0.000
2051,0.045,0.000
2052,0.045,0.000
2053,0.045,0.000
2054,0.040,0.005
2055,0.040,0.005
2056,0.040,0.000
2057,0.040,0.000
2058,0.035,0.000
2059,0.025,0.015
2060,0.020,0.020
2061,0.020,0.020
2062,0.020,0.025
2063,0.015,0.020
2064,0.015,0.020
2065,0.015,0.010
2066,0.020,0.005
2067,0.025,0.000
2068,0.020,0.000
2069,0.020,-0.005
2070,0.015,-0.005
2071,0.015,-0.005
2072,0.015,-0.005
2073,0.015,-0.005
2074,0.015,0.000
2075,0.010,0.000
2076,0.010,0.000
2077,0.010,0.000
2078,0.010,0.000
2079,0.015,0.000
2080,0.015,0.000
2081,0.015,0.010
2082,0.020,0.015
2083,0.025,0.010
2084,0.020,0.010
2085,0.015,0.010
2086,0.015,0.010
2087,0.015,0.010
2088,0.015,0.015
2089,0.010,0.010
2090,0.010,0.005
2091,0.010,0.005
2092,0.015,0.005
2093,0.015,0.005
2094,0.010,0.005
2095,0.010,0.005
2096,0.010,0.015
2097,0.010,0.030
2098,0.015,0.035
2099,0.015,0.035
2100,0.005,0.040
2101,0.000,0.050
2102,0.000,0.050
2103,0.000,0.045
2104,0.000,0.045
2105,0.000,0.045
2106,0.000,0.035
2107,0.000,0.025
2108,0.005,0.015
2109,0.010,0.000
2110,0.015,-0.020
2111,0.020,-0.040
2112,0.020,-0.045
2113,0.020,-0.050
2114,0.025,-0.055
2115,0.030,-0.055
2116,0.025,-0.040
2117,0.000,0.000
2118,-0.050,0.095
2119,-0.140,0.220
2120,-0.210,0.300
2121,-0.225,0.270
2122,-0.180,0.150
2123,-0.105,0.010
2124,-0.030,-0.095
2125,0.010,-0.160
2126,0.035,-0.180
2127,0.045,-0.170
2128,0.045,-0.140
2129,0.040,-0.105
2130,0.035,-0.080
2131,0.035,-0.060
2132,0.035,-0.050
2133,0.030,-0.035
2134,0.030,-0.035
2135,0.025,-0.030
2136,0.025,-0.020
2137,0.020,-0.015
2138,0.020,-0.010
2139,0.020,-0.010
2140,0.020,-0.010
2141,0.020,0.000
2142,0.020,0.000
2143,0.020,0.005
2144,0.020,0.005
2145,0.020,0.000
2146,0.020,0.000
2147,0.015,0.000
2148,0.015,0.000
2149,0.020,0.000
2150,0.025,-0.005
2151,0.025,-0.010
2152,0.020,-0.015
2153,0.020,-0.020
2154,0.020,-0.025
2155,0.020,-0.025
2156,0.015,-0.020
2157,0.010,-0.015
2158,0.010,-0.015
2159,0.010,-0.015
2160,0.005,-0.005
2161,0.000,0.000
2162,0.000,0.005
2163,0.000,0.010
2164,0.000,0.015
2165,0.000,0.015
2166,0.000,0.010
2167,0.000,0.010
2168,0.000,0.020
2169,0.000,0.035
2170,-0.005,0.040
2171,-0.005,0.045
2172,-0.005,0.045
2173,-0.005,0.040
2174,-0.005,0.040
2175,-0.005,0.050
2176,-0.010,0.065
2177,-0.010,0.075
2178,-0.015,0.090
2179,-0.020,0.100
2180,-0.025,0.110
2181,-0.030,0.115
2182,-0.035,0.110
2183,-0.035,0.090
2184,-0.035,0.080
2185,-0.030,0.080
2186,-0.025,0.070
2187,-0.010,0.050
2188,0.000,0.030
2189,0.000,0.005
2190,0.000,-0.010
2191,0.005,-0.025
2192,0.010,-0.035
2193,0.010,-0.040
2194,0.010,-0.040
2195,0.010,-0.035
2196,0.010,-0.030
2197,0.005,-0.015
2198,-0.005,0.020
2199,-0.065,0.115
2200,-0.155,0.230
2201,-0.225,0.295
2202,-0.235,0.255
2203,-0.190,0.125
2204,-0.110,-0.010
2205,-0.040,-0.110
2206,0.005,-0.175
2207,0.030,-0.200
2208,0.040,-0.190
2209,0.035,-0.145
2210,0.030,-0.095
2211,0.025,-0.060
2212,0.025,-0.045
2213,0.025,-0.040
2214,0.020,-0.030
2215,0.020,-0.025
2216,0.020,-0.025
2217,0.020,-0.020
2218,0.020,-0.010
2219,0.020,0.000
2220,0.020,0.000
2221,0.015,0.005
2222,0.015,0.010
2223,0.015,0.015
2224,0.015,0.015
2225,0.020,0.015
2226,0.020,0.005
2227,0.020,0.000
2228,0.025,0.000
2229,0.030,-0.005
2230,0.030,-0.010
2231,0.030,-0.015
2232,0.030,-0.015
2233,0.030,-0.020
2234,0.030,-0.020
2235,0.030,-0.025
2236,0.030,-0.035
2237,0.025,-0.040
2238,0.025,-0.035
2239,0.020,-0.030
2240,0.015,-0.030
2241,0.015,-0.025
2242,0.015,-0.020
2243,0.015,-0.010
2244,0.010,0.000
2245,0.005,0.005
2246,0.005,0.010
2247,0.005,0.015
2248,0.005,0.020
2249,0.005,0.025
2250,0.005,0.025
2251,0.010,0.025
2252,0.005,0.035
2253,0.005,0.035
2254,0.000,0.035
2255,0.000,0.035
2256,0.000,0.030
2257,0.005,0.030
2258,0.005,0.030
2259,0.005,0.025
2260,0.005,0.025
2261,0.005,0.030
2262,0.005,0.035
2263,0.000,0.050
2264,0.000,0.065
2265,-0.005,0.070
2266,0.000,0.075
2267,0.000,0.075
2268,0.000,0.065
2269,-0.005,0.055
2270,-0.010,0.055
2271,-0.005,0.055
2272,0.000,0.050
2273,0.000,0.040
2274,0.010,0.025
2275,0.020,0.010
2276,0.020,0.000
2277,0.010,-0.005
2278,0.010,-0.010
2279,0.015,-0.020
2280,0.020,-0.025
2281,0.025,-0.020
2282,0.015,-0.005
2283,0.000,0.020
2284,-0.045,0.100
2285,-0.125,0.215
2286,-0.195,0.290
2287,-0.215,0.270
2288,-0.180,0.160
2289,-0.110,0.025
2290,-0.040,-0.070
2291,0.010,-0.140
2292,0.040,-0.175
2293,0.050,-0.170
2294,0.045,-0.135
2295,0.040,-0.090
2296,0.040,-0.060
2297,0.040,-0.045
2298,0.035,-0.030
2299,0.035,-0.015
2300,0.030,0.000
2301,0.025,0.000
2302,0.025,0.000
2303,0.030,0.000
2304,0.030,0.010
2305,0.025,0.010
2306,0.025,0.015
2307,0.025,0.010
2308,0.020,0.015
2309,0.020,0.020
2310,0.020,0.020
2311,0.020,0.020
2312,0.025,0.020
2313,0.025,0.020
2314,0.015,0.020
2315,0.015,0.025
2316,0.015,0.025
2317,0.015,0.020
2318,0.015,0.015
2319,0.015,0.010
2320,0.015,0.000
2321,0.010,0.000
2322,0.000,0.000
2323,0.000,0.000
2324,0.005,0.000
2325,0.010,0.000
2326,0.005,0.000
2327,0.005,0.000
2328,0.005,0.000
2329,0.000,0.005
2330,0.000,0.015
2331,0.000,0.020
2332,0.000,0.025
2333,0.000,0.035
2334,0.000,0.050
2335,0.000,0.045
2336,-0.005,0.045
2337,-0.010,0.050
2338,-0.005,0.050
2339,0.000,0.045
2340,0.000,0.035
2341,0.000,0.020
2342,0.000,0.015
2343,0.000,0.010
2344,-0.010,0.015
2345,-0.015,0.030
2346,-0.010,0.045
2347,-0.010,0.055
2348,-0.010,0.060
2349,-0.020,0.070
2350,-0.025,0.075
2351,-0.025,0.060
2352,-0.025,0.055
2353,-0.030,0.060
2354,-0.035,0.065
2355,-0.030,0.055
2356,-0.010,0.035
2357,0.000,0.015
2358,0.000,0.000
2359,0.000,-0.010
2360,0.000,-0.015
2361,0.005,-0.020
2362,0.010,-0.025
2363,0.010,-0.035
2364,0.010,-0.035
2365,0.005,-0.020
2366,0.000,0.005
2367,-0.040,0.080
2368,-0.120,0.190
2369,-0.195,0.275
2370,-0.230,0.275
2371,-0.195,0.165
2372,-0.125,0.020
2373,-0.045,-0.090
2374,0.010,-0.150
2375,0.045,-0.180
2376,0.055,-0.175
2377,0.060,-0.145
2378,0.060,-0.105
2379,0.055,-0.080
2380,0.055,-0.070
2381,0.055,-0.055
2382,0.055,-0.050
2383,0.055,-0.045
2384,0.055,-0.040
2385,0.050,-0.040
2386,0.050,-0.040
2387,0.045,-0.035
2388,0.045,-0.025
2389,0.040,-0.015
2390,0.040,-0.015
2391,0.040,-0.005
2392,0.035,0.000
2393,0.030,0.000
2394,0.030,0.000
2395,0.030,0.000
2396,0.025,0.010
2397,0.025,0.015
2398,0.025,0.015
2399,0.025,0.005
2400,0.025,0.005
2401,0.020,0.000
2402,0.015,0.000
2403,0.015,0.000
2404,0.015,-0.005
2405,0.015,-0.010
2406,0.010,-0.010
2407,0.010,-0.005
2408,0.010,-0.005
2409,0.010,-0.005
2410,0.015,0.000
2411,0.015,0.000
2412,0.015,0.000
2413,0.010,0.010
2414,0.010,0.010
2415,0.010,0.015
2416,0.015,0.020
2417,0.015,0.025
2418,0.020,0.025
2419,0.015,0.025
2420,0.015,0.030
2421,0.010,0.035
2422,0.005,0.035
2423,0.005,0.035
2424,0.005,0.030
2425,0.005,0.030
2426,0.005,0.025
2427,0.010,0.020
2428,0.010,0.020
2429,0.005,0.025
2430,0.000,0.040
2431,0.000,0.060
2432,0.000,0.075
2433,0.005,0.080
2434,0.000,0.085
2435,-0.005,0.090
2436,-0.010,0.090
2437,-0.010,0.085
2438,-0.010,0.085
2439,-0.020,0.090
2440,-0.020,0.095
2441,-0.005,0.075
2442,0.000,0.055
2443,0.000,0.035
2444,0.000,0.015
2445,0.000,0.000
2446,0.000,-0.005
2447,0.005,-0.010
2448,0.000,-0.015
2449,0.005,-0.025
2450,0.015,-0.035
2451,0.010,-0.020
2452,-0.015,0.045
2453,-0.095,0.155
2454,-0.180,0.270
2455,-0.225,0.315
2456,-0.215,0.245
2457,-0.160,0.105
2458,-0.090,-0.020
2459,-0.030,-0.110
2460,0.010,-0.160
2461,0.030,-0.165
2462,0.025,-0.140
2463,0.020,-0.095
2464,0.015,-0.060
2465,0.010,-0.030
2466,0.010,-0.015
2467,0.005,0.000
2468,0.005,0.000
2469,0.005,0.010
2470,0.005,0.015
2471,0.005,0.020
2472,0.005,0.020
2473,0.005,0.025
2474,0.000,0.025
2475,0.000,0.025
2476,0.000,0.035
2477,0.000,0.040
2478,0.000,0.040
2479,0.000,0.030
2480,0.005,0.020
2481,0.005,0.010
2482,0.000,0.005
2483,0.000,0.000
2484,0.000,-0.010
2485,0.005,-0.015
2486,0.010,-0.015
2487,0.010,-0.015
2488,0.005,-0.020
2489,0.005,-0.025
2490,0.005,-0.025
2491,0.000,-0.015
2492,0.000,-0.010
2493,-0.005,-0.010
2494,-0.005,0.000
2495,-0.005,0.000
2496,-0.005,0.005
2497,-0.005,0.005
2498,-0.005,0.005
2499,-0.005,0.005
2500,-0.010,0.015
2501,-0.015,0.025
2502,-0.015,0.025
2503,-0.015,0.030
2504,-0.015,0.035
2505,-0.020,0.045
2506,-0.015,0.045
2507,-0.015,0.040
2508,-0.015,0.040
2509,-0.015,0.040
2510,-0.015,0.045
2511,-0.020,0.060
2512,-0.020,0.075
2513,-0.020,0.095
2514,-0.020,0.105
2515,-0.025,0.105
2516,-0.030,0.100
2517,-0.030,0.095
2518,-0.030,0.090
2519,-0.035,0.080
2520,-0.030,0.080
2521,-0.025,0.070
2522,-0.015,0.055
2523,-0.005,0.030
2524,0.000,0.005
2525,0.010,-0.005
2526,0.015,-0.020
2527,0.010,-0.025
2528,0.010,-0.025
2529,0.010,-0.025
2530,0.010,-0.020
2531,0.010,-0.015
2532,0.010,-0.005
2533,-0.005,0.040
2534,-0.065,0.145
2535,-0.155,0.265
2536,-0.220,0.330
2537,-0.230,0.285
2538,-0.180,0.155
2539,-0.100,0.020
2540,-0.030,-0.070
2541,0.005,-0.140
2542,0.030,-0.170
2543,0.045,-0.155
2544,0.045,-0.115
2545,0.040,-0.070
2546,0.035,-0.040
2547,0.035,-0.035
2548,0.035,-0.030
2549,0.035,-0.020
2550,0.030,-0.005
2551,0.025,0.000
2552,0.020,0.000
2553,0.020,0.000
2554,0.020,0.000
2555,0.025,0.010
2556,0.030,0.010
2557,0.030,0.010
2558,0.030,0.015
2559,0.030,0.020
2560,0.030,0.020
2561,0.025,0.020
2562,0.025,0.020
2563,0.020,0.025
2564,0.020,0.025
2565,0.020,0.015
2566,0.025,0.010
2567,0.030,0.005
2568,0.030,0.005
2569,0.030,0.010
2570,0.025,0.010
2571,0.020,0.005
2572,0.020,0.000
2573,0.020,0.000
2574,0.015,0.000
2575,0.010,0.005
2576,0.010,0.010
2577,0.010,0.010
2578,0.015,0.010
2579,0.015,0.015
2580,0.015,0.020
2581,0.010,0.025
2582,0.005,0.030
2583,0.000,0.035
2584,0.005,0.040
2585,0.010,0.045
2586,0.005,0.050
2587,0.005,0.055
2588,0.005,0.055
2589,0.005,0.055
2590,0.005,0.050
2591,0.005,0.050
2592,0.005,0.050
2593,0.005,0.045
2594,0.005,0.045
2595,0.000,0.050
2596,0.000,0.065
2597,0.000,0.080
2598,0.000,0.095
2599,0.000,0.100
2600,0.000,0.105
2601,-0.005,0.105
2602,-0.005,0.100
2603,-0.005,0.095
2604,-0.015,0.095
2605,-0.020,0.095
2606,-0.010,0.090
2607,0.000,0.070
2608,0.005,0.045
2609,0.010,0.020
2610,0.015,0.000
2611,0.015,-0.005
2612,0.020,-0.015
2613,0.025,-0.020
2614,0.030,-0.020
2615,0.030,-0.005
2616,0.025,0.005
2617,0.005,0.040
2618,-0.040,0.130
2619,-0.130,0.250
2620,-0.205,0.330
2621,-0.220,0.300
2622,-0.175,0.175
2623,-0.105,0.040
2624,-0.035,-0.060
2625,0.020,-0.135
2626,0.050,-0.170
2627,0.065,-0.155
2628,0.060,-0.120
2629,0.055,-0.080
2630,0.055,-0.055
2631,0.055,-0.045
2632,0.050,-0.035
2633,0.045,-0.025
2634,0.040,-0.015
2635,0.040,-0.005
2636,0.040,0.000
2637,0.035,0.015
2638,0.035,0.025
2639,0.035,0.035
2640,0.035,0.040
2641,0.035,0.040
2642,0.030,0.040
2643,0.030,0.045
2644,0.030,0.055
2645,0.035,0.055
2646,0.035,0.055
2647,0.030,0.055
2648,0.030,0.050
2649,0.030,0.050
2650,0.030,0.055
2651,0.025,0.055
2652,0.025,0.040
2653,0.025,0.035
2654,0.030,0.035
2655,0.025,0.035
2656,0.025,0.030
2657,0.030,0.015
2658,0.030,0.010
2659,0.030,0.010
2660,0.030,0.010
2661,0.030,0.015
2662,0.020,0.015
2663,0.020,0.020
2664,0.020,0.025
2665,0.025,0.035
2666,0.020,0.040
2667,0.015,0.045
2668,0.015,0.045
2669,0.015,0.060
2670,0.010,0.070
2671,0.010,0.075
2672,0.010,0.070
2673,0.015,0.070
2674,0.010,0.070
2675,0.005,0.075
2676,0.005,0.075
2677,0.005,0.090
2678,0.000,0.110
2679,0.000,0.135
2680,-0.005,0.160
2681,-0.015,0.180
2682,-0.020,0.180
2683,-0.015,0.170
2684,-0.010,0.150
2685,-0.010,0.130
2686,-0.005,0.125
2687,0.000,0.115
2688,0.000,0.095
2689,0.005,0.065
2690,0.015,0.040
2691,0.025,0.010
2692,0.035,-0.005
2693,0.040,-0.020
2694,0.045,-0.025
2695,0.045,-0.030
2696,0.045,-0.035
2697,0.060,-0.025
2698,0.065,-0.005
2699,0.035,0.040
2700,-0.025,0.130
2701,-0.100,0.240
2702,-0.160,0.300
2703,-0.170,0.245
2704,-0.120,0.120
2705,-0.045,0.000
2706,0.010,-0.070
2707,0.050,-0.115
2708,0.075,-0.135
2709,0.085,-0.115
2710,0.090,-0.080
2711,0.085,-0.050
2712,0.085,-0.035
2713,0.085,-0.030
2714,0.085,-0.025
2715,0.085,-0.020
2716,0.085,-0.010
2717,0.080,-0.010
2718,0.070,-0.010
2719,0.070,-0.005
2720,0.070,0.000
2721,0.070,0.000
2722,0.065,0.010
2723,0.060,0.015
2724,0.060,0.015
2725,0.055,0.015
2726,0.050,0.020
2727,0.050,0.030
2728,0.045,0.035
2729,0.035,0.040
2730,0.035,0.035
2731,0.035,0.035
2732,0.040,0.030
2733,0.045,0.030
2734,0.045,0.030
2735,0.045,0.030
2736,0.040,0.025
2737,0.040,0.020
2738,0.035,0.020
2739,0.035,0.025
2740,0.030,0.025
2741,0.030,0.025
2742,0.030,0.020
2743,0.030,0.020
2744,0.030,0.015
2745,0.030,0.015
2746,0.035,0.015
2747,0.035,0.010
2748,0.045,0.005
2749,0.045,0.000
2750,0.045,0.000
2751,0.045,0.005
2752,0.040,0.015
2753,0.035,0.015
2754,0.030,0.010
2755,0.030,0.005
2756,0.035,0.000
2757,0.040,0.000
2758,0.040,0.000
2759,0.035,0.000
2760,0.035,0.000
2761,0.040,0.000
2762,0.040,0.005
2763,0.035,0.020
2764,0.025,0.040
2765,0.020,0.055
2766,0.020,0.065
2767,0.015,0.075
2768,0.005,0.075
2769,0.005,0.075
2770,0.005,0.075
2771,0.005,0.075
2772,0.005,0.070
2773,0.015,0.060
2774,0.015,0.050
2775,0.020,0.035
2776,0.025,0.010
2777,0.030,-0.005
2778,0.040,-0.015
2779,0.045,-0.020
2780,0.050,-0.025
2781,0.045,-0.030
2782,0.040,-0.020
2783,0.030,0.000
2784,0.010,0.050
2785,-0.040,0.160
2786,-0.115,0.285
2787,-0.175,0.335
2788,-0.170,0.265
2789,-0.120,0.120
2790,-0.045,-0.010
2791,0.005,-0.105
2792,0.045,-0.155
2793,0.070,-0.170
2794,0.080,-0.150
2795,0.080,-0.120
2796,0.075,-0.075
2797,0.070,-0.035
2798,0.060,-0.010
2799,0.055,0.000
2800,0.055,0.010
2801,0.050,0.015
2802,0.045,0.020
2803,0.045,0.035
2804,0.040,0.045
2805,0.040,0.050
2806,0.035,0.050
2807,0.035,0.060
2808,0.035,0.065
2809,0.030,0.065
2810,0.030,0.070
2811,0.030,0.070
2812,0.030,0.070
2813,0.035,0.075
2814,0.035,0.070
2815,0.030,0.065
2816,0.030,0.065
2817,0.030,0.070
2818,0.030,0.070
2819,0.030,0.065
2820,0.025,0.065
2821,0.025,0.070
2822,0.020,0.070
2823,0.015,0.070
2824,0.010,0.075
2825,0.010,0.070
2826,0.010,0.070
2827,0.010,0.070
2828,0.005,0.070
2829,0.005,0.070
2830,0.005,0.075
2831,0.005,0.075
2832,0.005,0.075
2833,0.010,0.075
2834,0.010,0.075
2835,0.005,0.085
2836,0.005,0.090
2837,0.005,0.090
2838,0.000,0.090
2839,0.000,0.090
2840,0.000,0.085
2841,0.000,0.085
2842,0.000,0.095
2843,0.000,0.115
2844,-0.005,0.130
2845,-0.005,0.140
2846,-0.005,0.140
2847,-0.015,0.140
2848,-0.015,0.135
2849,-0.015,0.115
2850,-0.015,0.105
2851,-0.010,0.105
2852,-0.005,0.100
2853,0.000,0.085
2854,0.000,0.060
2855,0.010,0.030
2856,0.015,0.000
2857,0.020,-0.005
2858,0.020,-0.010
2859,0.020,-0.010
2860,0.020,-0.015
2861,0.025,-0.020
2862,0.020,-0.015
2863,0.015,0.000
2864,0.000,0.050
2865,-0.060,0.155
2866,-0.145,0.270
2867,-0.205,0.320
2868,-0.205,0.245
2869,-0.145,0.095
2870,-0.070,-0.040
2871,-0.010,-0.130
2872,0.030,-0.185
2873,0.050,-0.205
2874,0.060,-0.190
2875,0.065,-0.155
2876,0.060,-0.115
2877,0.060,-0.090
2878,0.055,-0.075
2879,0.050,-0.065
2880,0.045,-0.060
2881,0.040,-0.050
2882,0.040,-0.045
2883,0.040,-0.040
2884,0.040,-0.035
2885,0.035,-0.025
2886,0.035,-0.015
2887,0.040,-0.010
2888,0.035,-0.005
2889,0.030,0.000
2890,0.030,0.000
2891,0.030,0.005
2892,0.025,0.005
2893,0.020,0.005
2894,0.020,0.005
2895,0.025,0.005
2896,0.025,0.000
2897,0.030,0.000
2898,0.025,0.000
2899,0.025,0.000
2900,0.025,0.000
2901,0.025,-0.005
2902,0.025,-0.005
2903,0.020,0.000
2904,0.015,0.000
2905,0.010,-0.005
2906,0.010,0.000
2907,0.015,0.000
2908,0.015,0.000
2909,0.015,0.000
2910,0.010,0.000
2911,0.010,0.010
2912,0.005,0.015
2913,0.005,0.020
2914,0.005,0.025
2915,0.005,0.030
2916,0.005,0.035
2917,0.005,0.030
2918,0.005,0.025
2919,0.005,0.025
2920,0.005,0.025
2921,0.005,0.015
2922,0.005,0.010
2923,0.005,0.005
2924,0.005,0.000
2925,0.005,0.000
2926,0.000,0.010
2927,0.000,0.030
2928,0.000,0.045
2929,0.000,0.055
2930,0.000,0.060
2931,-0.010,0.070
2932,-0.015,0.070
2933,-0.015,0.065
2934,-0.015,0.055
2935,-0.015,0.055
2936,-0.010,0.050
2937,-0.005,0.040
2938,0.000,0.025
2939,0.005,0.005
2940,0.015,-0.010
2941,0.020,-0.030
2942,0.020,-0.045
2943,0.020,-0.050
2944,0.020,-0.055
2945,0.020,-0.055
2946,0.020,-0.055
2947,0.025,-0.030
2948,0.000,0.015
2949,-0.070,0.125
2950,-0.155,0.235
2951,-0.205,0.280
2952,-0.195,0.195
2953,-0.140,0.045
2954,-0.065,-0.070
2955,-0.010,-0.155
2956,0.025,-0.205
2957,0.045,-0.215
2958,0.055,-0.190
2959,0.055,-0.155
2960,0.055,-0.115
2961,0.055,-0.090
2962,0.055,-0.075
2963,0.050,-0.065
2964,0.045,-0.055
2965,0.035,-0.045
2966,0.035,-0.040
2967,0.030,-0.035
2968,0.030,-0.035
2969,0.030,-0.030
2970,0.035,-0.020
2971,0.040,-0.020
2972,0.035,-0.015
2973,0.035,-0.010
2974,0.030,-0.005
2975,0.025,0.000
2976,0.025,0.000
2977,0.020,0.005
2978,0.020,0.005
2979,0.020,0.000
2980,0.025,0.000
2981,0.030,0.000
2982,0.025,0.000
2983,0.020,-0.005
2984,0.020,-0.015
2985,0.025,-0.020
2986,0.025,-0.025
2987,0.025,-0.025
2988,0.025,-0.025
2989,0.020,-0.025
2990,0.015,-0.020
2991,0.015,-0.020
2992,0.015,-0.015
2993,0.015,-0.010
2994,0.010,-0.005
2995,0.010,0.000
2996,0.010,0.000
2997,0.010,0.005
2998,0.005,0.020
2999,0.005,0.030
3000,0.005,0.035
3001,0.005,0.030
3002,0.005,0.030
3003,0.000,0.030
3004,0.000,0.035
3005,0.005,0.035
3006,0.005,0.025
3007,0.000,0.025
3008,0.000,0.035
3009,0.000,0.045
3010,0.000,0.055
3011,0.000,0.060
3012,0.000,0.065
3013,-0.010,0.065
3014,-0.010,0.055
3015,-0.010,0.050
3016,-0.015,0.050
3017,-0.015,0.050
3018,-0.010,0.040
3019,0.000,0.025
3020,0.005,0.005
3021,0.010,-0.005
3022,0.015,-0.030
3023,0.020,-0.045
3024,0.020,-0.050
3025,0.020,-0.045
3026,0.020,-0.045
3027,0.025,-0.045
3028,0.025,-0.040
3029,0.020,-0.010
3030,-0.015,0.055
3031,-0.100,0.180
3032,-0.185,0.285
3033,-0.220,0.290
3034,-0.185,0.165
3035,-0.115,0.010
3036,-0.040,-0.095
3037,0.010,-0.165
3038,0.040,-0.200
3039,0.060,-0.200
3040,0.060,-0.170
3041,0.050,-0.130
3042,0.050,-0.095
3043,0.050,-0.070
3044,0.055,-0.065
3045,0.050,-0.055
3046,0.050,-0.050
3047,0.045,-0.045
3048,0.045,-0.040
3049,0.045,-0.035
3050,0.040,-0.030
3051,0.040,-0.025
3052,0.040,-0.020
3053,0.035,-0.020
3054,0.030,-0.010
3055,0.025,0.000
3056,0.025,0.005
3057,0.025,0.015
3058,0.025,0.015
3059,0.020,0.015
3060,0.015,0.015
3061,0.015,0.015
3062,0.015,0.010
3063,0.020,0.005
3064,0.025,0.000
3065,0.020,0.000
3066,0.020,0.000
3067,0.020,-0.005
3068,0.020,-0.005
3069,0.020,-0.010
3070,0.015,-0.015
3071,0.010,-0.015
3072,0.010,-0.020
3073,0.010,-0.020
3074,0.015,-0.020
3075,0.015,-0.015
3076,0.015,-0.010
3077,0.015,-0.005
3078,0.010,0.000
3079,0.010,0.005
3080,0.010,0.010
3081,0.005,0.015
3082,0.005,0.020
3083,0.005,0.025
3084,0.000,0.030
3085,0.000,0.025
3086,0.000,0.015
3087,0.005,0.010
3088,0.010,0.010
3089,0.010,0.010
3090,0.005,0.020
3091,0.005,0.030
3092,0.000,0.040
3093,0.000,0.050
3094,0.000,0.055
3095,0.000,0.060
3096,-0.005,0.065
3097,-0.010,0.050
3098,-0.010,0.045
3099,-0.005,0.045
3100,-0.005,0.045
3101,0.000,0.035
3102,0.000,0.015
3103,0.005,0.000
3104,0.015,-0.015
3105,0.020,-0.030
3106,0.015,-0.035
3107,0.015,-0.035
3108,0.015,-0.030
3109,0.015,-0.025
3110,0.010,-0.020
3111,0.005,0.000
3112,-0.005,0.035
3113,-0.065,0.125
3114,-0.150,0.245
3115,-0.200,0.290
3116,-0.200,0.210
3117,-0.140,0.050
3118,-0.060,-0.080
3119,0.000,-0.170
3120,0.045,-0.215
3121,0.060,-0.225
3122,0.065,-0.210
3123,0.065,-0.180
3124,0.065,-0.150
3125,0.065,-0.125
3126,0.065,-0.120
3127,0.055,-0.105
3128,0.055,-0.090
3129,0.050,-0.080
3130,0.050,-0.075
3131,0.050,-0.065
3132,0.045,-0.055
3133,0.040,-0.050
3134,0.035,-0.040
3135,0.035,-0.030
3136,0.035,-0.025
3137,0.030,-0.025
3138,0.030,-0.020
3139,0.025,-0.015
3140,0.025,-0.010
3141,0.025,-0.010
3142,0.020,-0.015
3143,0.020,-0.020
3144,0.020,-0.025
3145,0.025,-0.030
3146,0.030,-0.040
3147,0.030,-0.040
3148,0.030,-0.045
3149,0.025,-0.050
3150,0.025,-0.055
3151,0.025,-0.055
3152,0.025,-0.060
3153,0.025,-0.060
3154,0.030,-0.060
3155,0.025,-0.065
3156,0.025,-0.070
3157,0.025,-0.075
3158,0.025,-0.075
3159,0.025,-0.060
3160,0.025,-0.040
3161,0.025,-0.030
3162,0.025,-0.025
3163,0.020,-0.020
3164,0.020,-0.020
3165,0.020,-0.020
3166,0.015,-0.015
3167,0.015,-0.010
3168,0.015,-0.010
3169,0.020,-0.020
3170,0.020,-0.025
3171,0.025,-0.030
3172,0.025,-0.030
3173,0.020,-0.030
3174,0.020,-0.020
3175,0.015,-0.005
3176,0.015,0.005
3177,0.010,0.020
3178,0.010,0.025
3179,0.005,0.030
3180,0.000,0.040
3181,0.000,0.050
3182,0.000,0.045
3183,0.000,0.045
3184,-0.005,0.055
3185,-0.005,0.050
3186,0.000,0.040
3187,0.010,0.020
3188,0.015,0.000
3189,0.015,-0.015
3190,0.020,-0.030
3191,0.025,-0.040
3192,0.025,-0.040
3193,0.035,-0.040
3194,0.030,-0.035
3195,0.025,-0.030
3196,0.015,0.000
3197,-0.030,0.085
3198,-0.110,0.210
3199,-0.190,0.300
3200,-0.215,0.275
3201,-0.165,0.125
3202,-0.080,-0.020
3203,-0.010,-0.130
3204,0.035,-0.195
3205,0.060,-0.220
3206,0.065,-0.210
3207,0.070,-0.175
3208,0.070,-0.135
3209,0.065,-0.100
3210,0.060,-0.075
3211,0.060,-0.065
3212,0.055,-0.055
3213,0.045,-0.040
3214,0.045,-0.025
3215,0.045,-0.015
3216,0.045,-0.015
3217,0.035,-0.015
3218,0.030,-0.005
3219,0.030,0.000
3220,0.025,0.005
3221,0.025,0.015
3222,0.020,0.020
3223,0.020,0.025
3224,0.025,0.020
3225,0.030,0.020
3226,0.030,0.015
3227,0.030,0.010
3228,0.030,0.005
3229,0.030,0.000
3230,0.030,0.000
3231,0.025,0.000
3232,0.025,0.000
3233,0.025,-0.010
3234,0.025,-0.005
3235,0.020,0.000
3236,0.020,0.000
3237,0.020,0.000
3238,0.015,0.005
3239,0.005,0.005
3240,0.005,0.010
3241,0.005,0.015
3242,0.005,0.025
3243,0.005,0.025
3244,0.005,0.030
3245,0.000,0.040
3246,0.000,0.045
3247,0.000,0.045
3248,0.000,0.035
3249,0.005,0.030
3250,0.010,0.030
3251,0.005,0.035
3252,0.005,0.035
3253,0.005,0.030
3254,0.005,0.030
3255,0.000,0.045
3256,0.000,0.060
3257,0.000,0.065
3258,0.000,0.070
3259,-0.010,0.075
3260,-0.015,0.070
3261,-0.015,0.060
3262,-0.010,0.050
3263,-0.005,0.050
3264,0.000,0.045
3265,0.000,0.035
3266,0.005,0.015
3267,0.010,0.000
3268,0.015,-0.015
3269,0.020,-0.035
3270,0.020,-0.050
3271,0.020,-0.045
3272,0.020,-0.035
3273,0.020,-0.035
3274,0.020,-0.030
3275,0.015,-0.025
3276,0.010,0.000
3277,-0.020,0.070
3278,-0.100,0.180
3279,-0.185,0.285
3280,-0.225,0.300
3281,-0.195,0.195
3282,-0.120,0.045
3283,-0.040,-0.070
3284,0.005,-0.160
3285,0.035,-0.195
3286,0.045,-0.190
3287,0.050,-0.150
3288,0.055,-0.105
3289,0.055,-0.070
3290,0.050,-0.050
3291,0.045,-0.035
3292,0.040,-0.025
3293,0.035,-0.020
3294,0.030,-0.015
3295,0.030,-0.010
3296,0.035,-0.010
3297,0.040,-0.010
3298,0.035,-0.010
3299,0.030,0.000
3300,0.030,0.000
3301,0.030,0.000
3302,0.030,0.000
3303,0.030,0.000
3304,0.025,0.005
3305,0.025,0.005
3306,0.030,0.005
3307,0.025,0.005
3308,0.025,0.000
3309,0.025,0.000
3310,0.030,0.000
3311,0.030,0.000
3312,0.030,0.000
3313,0.025,0.000
3314,0.020,-0.005
3315,0.015,0.000
3316,0.015,0.000
3317,0.020,0.000
3318,0.015,-0.005
3319,0.015,-0.010
3320,0.015,-0.005
3321,0.015,-0.005
3322,0.015,0.000
3323,0.015,0.000
3324,0.015,0.000
3325,0.010,0.005
3326,0.005,0.005
3327,0.005,0.015
3328,0.005,0.030
3329,0.005,0.030
3330,0.005,0.035
3331,0.005,0.035
3332,0.005,0.035
3333,0.000,0.040
3334,0.000,0.040
3335,0.000,0.040
3336,0.005,0.040
3337,0.000,0.040
3338,0.000,0.050
3339,0.000,0.065
3340,0.000,0.075
3341,0.000,0.085
3342,-0.005,0.090
3343,-0.015,0.095
3344,-0.020,0.085
3345,-0.020,0.070
3346,-0.020,0.070
3347,-0.015,0.075
3348,-0.005,0.065
3349,0.000,0.050
3350,0.000,0.035
3351,0.005,0.010
3352,0.010,-0.005
3353,0.015,-0.020
3354,0.020,-0.030
3355,0.020,-0.035
3356,0.025,-0.040
3357,0.025,-0.035
3358,0.025,-0.015
3359,0.010,0.015
3360,-0.025,0.085
3361,-0.105,0.200
3362,-0.190,0.305
3363,-0.230,0.315
3364,-0.205,0.195
3365,-0.130,0.040
3366,-0.050,-0.060
3367,0.000,-0.130
3368,0.035,-0.175
3369,0.050,-0.175
3370,0.060,-0.150
3371,0.060,-0.110
3372,0.055,-0.080
3373,0.055,-0.055
3374,0.055,-0.040
3375,0.045,-0.035
3376,0.040,-0.030
3377,0.030,-0.025
3378,0.030,-0.015
3379,0.035,-0.005
3380,0.040,0.000
3381,0.035,0.000
3382,0.030,0.005
3383,0.030,0.010
3384,0.030,0.010
3385,0.025,0.010
3386,0.025,0.010
3387,0.025,0.010
3388,0.030,0.015
3389,0.030,0.015
3390,0.035,0.010
3391,0.030,0.005
3392,0.030,0.000
3393,0.030,0.000
3394,0.035,0.000
3395,0.030,0.000
3396,0.025,0.000
3397,0.020,-0.005
3398,0.020,-0.005
3399,0.025,-0.005
3400,0.020,0.000
3401,0.020,0.000
3402,0.020,0.000
3403,0.020,0.000
3404,0.015,0.000
3405,0.015,0.000
3406,0.015,0.000
3407,0.015,0.000
3408,0.015,0.005
3409,0.010,0.015
3410,0.010,0.020
3411,0.010,0.025
3412,0.010,0.030
3413,0.005,0.035
3414,0.005,0.035
3415,0.005,0.035
3416,0.005,0.040
3417,0.005,0.035
3418,0.005,0.035
3419,0.005,0.050
3420,0.000,0.065
3421,0.000,0.075
3422,-0.005,0.080
3423,-0.005,0.080
3424,-0.010,0.075
3425,-0.005,0.070
3426,-0.005,0.070
3427,-0.010,0.070
3428,-0.010,0.075
3429,-0.010,0.070
3430,-0.005,0.050
3431,0.000,0.030
3432,0.010,0.010
3433,0.020,-0.010
3434,0.020,-0.030
3435,0.025,-0.035
3436,0.030,-0.035
3437,0.030,-0.035
3438,0.025,-0.030
3439,0.020,-0.020
3440,0.010,0.000
3441,-0.025,0.075
3442,-0.105,0.195
3443,-0.185,0.290
3444,-0.220,0.295
3445,-0.190,0.195
3446,-0.130,0.055
3447,-0.050,-0.055
3448,0.010,-0.135
3449,0.050,-0.185
3450,0.055,-0.190
3451,0.050,-0.150
3452,0.045,-0.100
3453,0.045,-0.065
3454,0.045,-0.050
3455,0.045,-0.045
3456,0.050,-0.040
3457,0.050,-0.030
3458,0.045,-0.025
3459,0.045,-0.015
3460,0.045,-0.010
3461,0.040,-0.005
3462,0.040,0.000
3463,0.035,0.000
3464,0.035,0.000
3465,0.040,-0.010
3466,0.035,-0.015
3467,0.035,-0.015
3468,0.035,-0.005
3469,0.040,-0.005
3470,0.035,0.000
3471,0.030,0.000
3472,0.030,0.000
3473,0.030,0.000
3474,0.030,0.005
3475,0.030,0.010
3476,0.025,0.000
3477,0.020,0.000
3478,0.020,0.000
3479,0.025,0.000
3480,0.025,0.000
3481,0.020,0.000
3482,0.015,0.000
3483,0.015,0.000
3484,0.010,0.005
3485,0.010,0.000
3486,0.010,0.000
3487,0.015,0.000
3488,0.015,0.010
3489,0.015,0.015
3490,0.010,0.020
3491,0.010,0.020
3492,0.010,0.025
3493,0.015,0.025
3494,0.010,0.025
3495,0.005,0.035
3496,0.005,0.030
3497,0.010,0.020
3498,0.010,0.010
3499,0.010,0.010
3500,0.010,0.010
3501,0.005,0.030
3502,0.000,0.050
3503,0.000,0.065
3504,0.000,0.075
3505,0.000,0.080
3506,-0.005,0.080
3507,-0.010,0.080
3508,-0.010,0.070
3509,-0.010,0.060
3510,-0.015,0.060
3511,-0.010,0.060
3512,0.000,0.045
3513,0.005,0.030
3514,0.010,0.005
3515,0.010,-0.005
3516,0.010,-0.020
3517,0.015,-0.020
3518,0.020,-0.020
3519,0.020,-0.030
3520,0.020,-0.030
3521,0.020,-0.020
3522,0.010,0.010
3523,-0.030,0.085
3524,-0.105,0.200
3525,-0.185,0.290
3526,-0.225,0.285
3527,-0.200,0.175
3528,-0.125,0.030
3529,-0.040,-0.075
3530,0.010,-0.160
3531,0.045,-0.205
3532,0.065,-0.200
3533,0.070,-0.160
3534,0.065,-0.110
3535,0.055,-0.080
3536,0.055,-0.065
3537,0.055,-0.055
3538,0.055,-0.045
3539,0.055,-0.030
3540,0.045,-0.020
3541,0.040,-0.020
3542,0.040,-0.020
3543,0.040,-0.020
3544,0.045,-0.010
3545,0.040,0.000
3546,0.035,0.000
3547,0.035,0.000
3548,0.035,0.000
3549,0.035,0.000
3550,0.030,0.000
3551,0.030,0.000
3552,0.025,0.000
3553,0.025,0.000
3554,0.030,0.000
3555,0.020,-0.005
3556,0.020,-0.010
3557,0.020,-0.010
3558,0.025,-0.015
3559,0.030,-0.025
3560,0.020,-0.030
3561,0.020,-0.030
3562,0.020,-0.025
3563,0.025,-0.020
3564,0.020,-0.020
3565,0.015,-0.025
3566,0.015,-0.030
3567,0.020,-0.025
3568,0.020,-0.025
3569,0.020,-0.025
3570,0.020,-0.025
3571,0.025,-0.020
3572,0.025,-0.010
3573,0.030,-0.005
3574,0.025,0.000
3575,0.020,0.000
3576,0.015,0.000
3577,0.015,0.000
3578,0.015,0.000
3579,0.015,0.000
3580,0.020,0.000
3581,0.020,0.000
3582,0.020,0.000
3583,0.020,-0.005
3584,0.020,-0.005
3585,0.020,0.000
3586,0.015,0.015
3587,0.015,0.025
3588,0.015,0.030
3589,0.005,0.040
3590,0.000,0.045
3591,0.000,0.040
3592,0.005,0.030
3593,0.005,0.025
3594,0.005,0.025
3595,0.005,0.025
3596,0.010,0.010
3597,0.020,0.000
3598,0.025,-0.025
3599,0.030,-0.040
3600,0.030,-0.050
3601,0.025,-0.055
3602,0.025,-0.055
3603,0.025,-0.055
3604,0.030,-0.045
3605,0.030,-0.035
3606,0.010,0.000
3607,-0.040,0.095
3608,-0.120,0.220
3609,-0.175,0.305
3610,-0.185,0.275
3611,-0.140,0.140
3612,-0.070,-0.005
3613,0.000,-0.120
3614,0.035,-0.185
3615,0.060,-0.210
3616,0.075,-0.200
3617,0.070,-0.175
3618,0.060,-0.145
3619,0.060,-0.115
3620,0.060,-0.095
3621,0.060,-0.080
3622,0.060,-0.070
3623,0.055,-0.055
3624,0.045,-0.040
3625,0.045,-0.040
3626,0.045,-0.035
3627,0.045,-0.030
3628,0.045,-0.020
3629,0.035,-0.010
3630,0.030,0.000
3631,0.025,0.000
3632,0.025,0.005
3633,0.025,0.010
3634,0.025,0.015
3635,0.025,0.020
3636,0.025,0.025
3637,0.020,0.015
3638,0.020,0.005
3639,0.020,0.000
3640,0.025,0.000
3641,0.025,0.000
3642,0.030,0.000
3643,0.030,-0.010
3644,0.030,-0.015
3645,0.030,-0.010
3646,0.030,-0.010
3647,0.025,-0.015
3648,0.020,-0.015
3649,0.020,-0.015
3650,0.015,-0.010
3651,0.015,-0.005
3652,0.015,0.000
3653,0.015,0.000
3654,0.015,0.000
3655,0.015,0.005
3656,0.010,0.005
3657,0.010,0.015
3658,0.010,0.020
3659,0.005,0.035
3660,0.005,0.045
3661,0.005,0.045
3662,0.000,0.045
3663,0.000,0.055
3664,0.000,0.070
3665,0.000,0.095
3666,0.000,0.110
3667,-0.005,0.120
3668,-0.005,0.130
3669,-0.010,0.130
3670,-0.020,0.120
3671,-0.025,0.105
3672,-0.030,0.100
3673,-0.025,0.100
3674,-0.015,0.105
3675,-0.005,0.085
3676,0.000,0.065
3677,0.000,0.040
3678,0.005,0.015
3679,0.005,0.000
3680,0.005,0.000
3681,0.010,0.000
3682,0.010,0.000
3683,0.010,0.000
3684,0.015,0.000
3685,0.015,0.020
3686,-0.010,0.075
3687,-0.080,0.175
3688,-0.170,0.290
3689,-0.225,0.345
3690,-0.215,0.280
3691,-0.160,0.130
3692,-0.080,0.000
3693,-0.010,-0.100
3694,0.025,-0.165
3695,0.045,-0.185
3696,0.055,-0.165
3697,0.050,-0.125
3698,0.045,-0.085
3699,0.040,-0.050
3700,0.040,-0.030
3701,0.035,-0.020
3702,0.035,-0.010
3703,0.035,-0.010
3704,0.030,-0.005
3705,0.030,0.000
3706,0.030,0.000
3707,0.030,0.000
3708,0.030,0.000
3709,0.030,0.000
3710,0.030,0.005
3711,0.035,0.010
3712,0.035,0.015
3713,0.030,0.010
3714,0.025,0.000
3715,0.025,0.000
3716,0.025,0.000
3717,0.030,0.005
3718,0.030,0.000
3719,0.035,0.000
3720,0.035,0.000
3721,0.035,-0.005
3722,0.030,-0.010
3723,0.015,-0.015
3724,0.015,-0.015
3725,0.015,-0.010
3726,0.015,-0.005
3727,0.015,-0.005
3728,0.015,0.000
3729,0.015,0.000
3730,0.015,0.000
3731,0.010,0.010
3732,0.010,0.020
3733,0.005,0.030
3734,0.005,0.035
3735,0.005,0.040
3736,0.005,0.035
3737,0.005,0.035
3738,0.005,0.040
3739,0.005,0.040
3740,0.005,0.040
3741,0.000,0.035
3742,0.000,0.025
3743,0.005,0.020
3744,0.005,0.015
3745,0.005,0.015
3746,0.005,0.015
3747,0.000,0.025
3748,0.000,0.040
3749,0.000,0.055
3750,0.000,0.070
3751,0.000,0.085
3752,-0.010,0.080
3753,-0.015,0.065
3754,-0.010,0.065
3755,-0.010,0.065
3756,-0.010,0.065
3757,-0.015,0.075
3758,-0.015,0.075
3759,-0.005,0.055
3760,0.000,0.040
3761,0.005,0.010
3762,0.010,0.000
3763,0.010,-0.010
3764,0.010,-0.015
3765,0.010,-0.015
3766,0.010,-0.010
3767,0.010,0.000
3768,0.010,0.005
3769,-0.005,0.045
3770,-0.070,0.145
3771,-0.155,0.275
3772,-0.220,0.355
3773,-0.235,0.325
3774,-0.190,0.185
3775,-0.110,0.020
3776,-0.030,-0.115
3777,0.035,-0.225
3778,0.075,-0.295
3779,0.095,-0.310
3780,0.100,-0.285
3781,0.090,-0.245
3782,0.080,-0.215
3783,0.080,-0.200
3784,0.075,-0.200
3785,0.075,-0.200
3786,0.080,-0.200
3787,0.085,-0.205
3788,0.095,-0.215
3789,0.100,-0.235
3790,0.115,-0.285
3791,0.150,-0.425
3792,0.230,-0.670
3793,0.315,-0.780
3794,0.350,-0.780
3795,0.325,-0.780
3796,0.295,-0.780
3797,0.295,-0.775
3798,0.295,-0.775
3799,0.240,-0.635
3800,0.155,-0.375
3801,0.065,-0.120
3802,0.005,0.065
3803,-0.030,0.190
3804,-0.050,0.275
3805,-0.060,0.330
3806,-0.070,0.355
3807,-0.075,0.360
3808,-0.065,0.335
3809,-0.055,0.290
3810,-0.040,0.225
3811,-0.025,0.160
3812,-0.010,0.100
3813,0.000,0.055
3814,0.010,0.015
3815,0.015,0.000
3816,0.020,0.000
3817,0.020,0.005
3818,0.015,0.025
3819,0.010,0.045
3820,0.005,0.065
3821,0.000,0.085
3822,0.000,0.100
3823,-0.010,0.115
3824,-0.015,0.130
3825,-0.020,0.140
3826,-0.020,0.150
3827,-0.025,0.155
3828,-0.025,0.170
3829,-0.030,0.190
3830,-0.035,0.205
3831,-0.040,0.225
3832,-0.045,0.225
3833,-0.055,0.225
3834,-0.060,0.230
3835,-0.060,0.230
3836,-0.060,0.220
3837,-0.060,0.220
3838,-0.055,0.220
3839,-0.045,0.215
3840,-0.045,0.200
3841,-0.040,0.180
3842,-0.025,0.150
3843,-0.010,0.120
3844,-0.010,0.095
3845,-0.010,0.090
3846,-0.005,0.085
3847,0.000,0.080
3848,0.000,0.080
3849,0.000,0.090
3850,-0.005,0.115
3851,-0.050,0.185
3852,-0.130,0.295
3853,-0.215,0.400
3854,-0.255,0.415
3855,-0.235,0.315
3856,-0.170,0.170
3857,-0.090,0.045
3858,-0.025,-0.035
3859,0.005,-0.090
3860,0.030,-0.100
3861,0.040,-0.080
3862,0.040,-0.045
3863,0.035,-0.010
3864,0.030,0.000
3865,0.025,0.010
3866,0.025,0.015
3867,0.025,0.025
3868,0.020,0.030
3869,0.020,0.030
3870,0.025,0.030
3871,0.030,0.030
3872,0.025,0.025
3873,0.020,0.025
3874,0.020,0.030
3875,0.015,0.035
3876,0.015,0.035
3877,0.010,0.040
3878,0.010,0.045
3879,0.015,0.045
3880,0.015,0.050
3881,0.020,0.045
3882,0.020,0.045
3883,0.020,0.045
3884,0.015,0.035
3885,0.015,0.030
3886,0.020,0.025
3887,0.015,0.020
3888,0.015,0.005
3889,0.010,0.000
3890,0.010,0.000
3891,0.010,0.000
3892,0.015,0.005
3893,0.015,0.005
3894,0.020,0.010
3895,0.015,0.015
3896,0.010,0.020
3897,0.010,0.025
3898,0.005,0.030
3899,0.000,0.030
3900,0.000,0.030
3901,0.000,0.035
3902,0.000,0.045
3903,0.005,0.055
3904,0.010,0.065
3905,0.005,0.070
3906,0.000,0.070
3907,0.000,0.080
3908,-0.005,0.090
3909,-0.005,0.090
3910,-0.010,0.090
3911,-0.015,0.110
3912,-0.025,0.140
3913,-0.025,0.175
3914,-0.030,0.200
3915,-0.045,0.215
3916,-0.050,0.220
3917,-0.050,0.215
3918,-0.045,0.190
3919,-0.045,0.170
3920,-0.040,0.150
3921,-0.030,0.125
3922,-0.015,0.085
3923,0.000,0.040
3924,0.000,0.000
3925,0.010,-0.030
3926,0.015,-0.040
3927,0.020,-0.035
3928,0.015,-0.020
3929,0.015,-0.010
3930,0.010,0.000
3931,0.010,0.000
3932,0.010,0.000
3933,-0.010,0.045
3934,-0.075,0.130
3935,-0.160,0.220
3936,-0.205,0.245
3937,-0.190,0.165
3938,-0.125,0.030
3939,-0.050,-0.080
3940,0.000,-0.150
3941,0.020,-0.180
3942,0.035,-0.170
3943,0.035,-0.125
3944,0.030,-0.075
3945,0.030,-0.040
3946,0.035,-0.025
3947,0.040,-0.030
3948,0.045,-0.045
3949,0.045,-0.060
3950,0.050,-0.070
3951,0.055,-0.080
3952,0.065,-0.085
3953,0.065,-0.095
3954,0.065,-0.105
3955,0.065,-0.110
3956,0.070,-0.105
3957,0.070,-0.100
3958,0.070,-0.100
3959,0.065,-0.100
3960,0.065,-0.100
3961,0.065,-0.100
3962,0.060,-0.100
3963,0.055,-0.100
3964,0.050,-0.095
3965,0.050,-0.085
3966,0.055,-0.075
3967,0.050,-0.055
3968,0.045,-0.040
3969,0.040,-0.025
3970,0.030,-0.015
3971,0.020,-0.005
3972,0.015,0.000
3973,0.010,0.015
3974,0.000,0.035
3975,0.000,0.055
3976,0.000,0.075
3977,-0.005,0.085
3978,0.000,0.090
3979,0.000,0.095
3980,-0.005,0.095
3981,-0.005,0.090
3982,0.000,0.085
3983,0.000,0.080
3984,0.000,0.080
3985,0.000,0.075
3986,0.000,0.075
3987,0.000,0.075
3988,0.000,0.070
3989,0.000,0.060
3990,0.000,0.050
3991,0.000,0.040
3992,0.000,0.040
3993,0.000,0.045
3994,0.000,0.050
3995,0.005,0.055
3996,0.005,0.050
3997,0.000,0.050
3998,0.000,0.045
3999,-0.005,0.035
4000,0.000,0.020
4001,0.000,0.005
4002,0.000,0.000
4003,0.000,-0.005
4004,0.005,-0.020
4005,0.015,-0.040
4006,0.025,-0.065
4007,0.040,-0.085
4008,0.035,-0.090
4009,0.035,-0.080
4010,0.035,-0.070
4011,0.035,-0.065
4012,0.035,-0.050
4013,0.025,-0.035
4014,0.015,-0.015
4015,-0.010,0.030
4016,-0.080,0.140
4017,-0.165,0.265
4018,-0.220,0.310
4019,-0.215,0.240
4020,-0.160,0.100
4021,-0.080,-0.015
4022,-0.015,-0.100
4023,0.025,-0.155
4024,0.045,-0.170
4025,0.050,-0.155
4026,0.050,-0.115
4027,0.050,-0.080
4028,0.050,-0.060
4029,0.050,-0.050
4030,0.050,-0.050
4031,0.050,-0.055
4032,0.050,-0.060
4033,0.050,-0.070
4034,0.050,-0.085
4035,0.055,-0.095
4036,0.065,-0.105
4037,0.070,-0.115
4038,0.070,-0.115
4039,0.060,-0.105
4040,0.050,-0.090
4041,0.045,-0.065
4042,0.040,-0.045
4043,0.030,-0.030
4044,0.025,-0.015
4045,0.020,0.000
4046,0.015,0.020
4047,0.010,0.045
4048,0.005,0.065
4049,0.000,0.080
4050,0.000,0.090
4051,0.000,0.095
4052,-0.005,0.105
4053,0.000,0.100
4054,0.000,0.100
4055,0.000,0.095
4056,0.000,0.090
4057,0.000,0.080
4058,0.000,0.075
4059,0.000,0.075
4060,0.000,0.080
4061,-0.005,0.075
4062,-0.005,0.075
4063,0.000,0.075
4064,0.000,0.075
4065,0.000,0.070
4066,0.000,0.060
4067,0.000,0.050
4068,0.005,0.040
4069,0.010,0.030
4070,0.005,0.020
4071,0.005,0.015
4072,0.005,0.015
4073,0.005,0.010
4074,0.005,0.010
4075,0.000,0.020
4076,0.000,0.040
4077,0.000,0.065
4078,0.000,0.080
4079,-0.005,0.095
4080,-0.015,0.105
4081,-0.015,0.105
4082,-0.015,0.100
4083,-0.020,0.100
4084,-0.025,0.100
4085,-0.030,0.095
4086,-0.020,0.085
4087,-0.010,0.070
4088,0.000,0.045
4089,0.005,0.020
4090,0.010,0.000
4091,0.015,-0.010
4092,0.015,-0.015
4093,0.020,-0.010
4094,0.025,-0.010
4095,0.025,-0.020
4096,0.030,-0.025
4097,0.015,-0.005
4098,-0.040,0.065
4099,-0.120,0.180
4100,-0.190,0.250
4101,-0.205,0.215
4102,-0.165,0.080
4103,-0.080,-0.060
4104,0.000,-0.165
4105,0.050,-0.230
4106,0.065,-0.255
4107,0.070,-0.240
4108,0.075,-0.200
4109,0.075,-0.160
4110,0.070,-0.135
4111,0.070,-0.120
4112,0.070,-0.110
4113,0.065,-0.100
4114,0.060,-0.090
4115,0.055,-0.085
4116,0.050,-0.080
4117,0.050,-0.070
4118,0.055,-0.060
4119,0.050,-0.050
4120,0.045,-0.045
4121,0.040,-0.035
4122,0.035,-0.030
4123,0.035,-0.025
4124,0.035,-0.020
4125,0.040,-0.020
4126,0.035,-0.020
4127,0.030,-0.025
4128,0.030,-0.025
4129,0.030,-0.015
4130,0.030,-0.010
4131,0.030,-0.010
4132,0.030,-0.010
4133,0.030,-0.010
4134,0.030,-0.010
4135,0.030,-0.020
4136,0.025,-0.020
4137,0.025,-0.020
4138,0.020,-0.020
4139,0.020,-0.020
4140,0.015,-0.020
4141,0.020,-0.020
4142,0.025,-0.015
4143,0.030,-0.005
4144,0.020,0.000
4145,0.020,0.000
4146,0.020,0.005
4147,0.025,0.015
4148,0.015,0.025
4149,0.010,0.030
4150,0.010,0.030
4151,0.010,0.025
4152,0.010,0.025
4153,0.010,0.025
4154,0.010,0.025
4155,0.005,0.025
4156,0.005,0.025
4157,0.010,0.030
4158,0.005,0.050
4159,0.000,0.070
4160,0.000,0.085
4161,0.000,0.090
4162,0.000,0.090
4163,-0.005,0.085
4164,-0.010,0.070
4165,-0.015,0.060
4166,-0.015,0.060
4167,-0.010,0.055
4168,0.000,0.045
4169,0.000,0.025
4170,0.010,0.000
4171,0.020,-0.025
4172,0.025,-0.045
4173,0.030,-0.065
4174,0.035,-0.090
4175,0.040,-0.095
4176,0.040,-0.095
4177,0.040,-0.095
4178,0.045,-0.090
4179,0.040,-0.080
4180,0.010,-0.030
4181,-0.050,0.075
4182,-0.130,0.200
4183,-0.180,0.255
4184,-0.175,0.195
4185,-0.115,0.055
4186,-0.035,-0.080
4187,0.020,-0.185
4188,0.060,-0.240
4189,0.080,-0.250
4190,0.085,-0.230
4191,0.090,-0.190
4192,0.080,-0.155
4193,0.075,-0.135
4194,0.070,-0.120
4195,0.065,-0.100
4196,0.065,-0.085
4197,0.060,-0.075
4198,0.060,-0.070
4199,0.055,-0.065
4200,0.050,-0.060
4201,0.050,-0.050
4202,0.055,-0.045
4203,0.050,-0.050
4204,0.040,-0.055
4205,0.040,-0.050
4206,0.040,-0.045
4207,0.040,-0.040
4208,0.040,-0.035
4209,0.045,-0.040
4210,0.040,-0.050
4211,0.040,-0.055
4212,0.040,-0.060
4213,0.040,-0.070
4214,0.040,-0.070
4215,0.040,-0.070
4216,0.040,-0.070
4217,0.040,-0.075
4218,0.040,-0.075
4219,0.035,-0.070
4220,0.030,-0.065
4221,0.030,-0.055
4222,0.030,-0.050
4223,0.030,-0.050
4224,0.030,-0.050
4225,0.025,-0.050
4226,0.025,-0.050
4227,0.025,-0.040
4228,0.025,-0.030
4229,0.025,-0.025
4230,0.025,-0.015
4231,0.020,-0.015
4232,0.020,-0.010
4233,0.020,0.000
4234,0.020,0.000
4235,0.015,0.005
4236,0.010,0.005
4237,0.010,0.005
4238,0.010,0.005
4239,0.010,0.005
4240,0.010,0.005
4241,0.005,0.015
4242,0.005,0.030
4243,0.005,0.050
4244,0.010,0.060
4245,0.005,0.065
4246,0.000,0.070
4247,0.000,0.075
4248,0.000,0.070
4249,0.000,0.065
4250,-0.010,0.065
4251,-0.005,0.070
4252,0.000,0.065
4253,0.000,0.050
4254,0.000,0.030
4255,0.005,0.005
4256,0.015,-0.005
4257,0.020,-0.015
4258,0.015,-0.010
4259,0.015,-0.010
4260,0.015,-0.010
4261,0.015,-0.005
4262,0.010,0.000
4263,0.005,0.025
4264,-0.035,0.100
4265,-0.115,0.230
4266,-0.195,0.350
4267,-0.220,0.355
4268,-0.190,0.235
4269,-0.115,0.070
4270,-0.040,-0.050
4271,0.005,-0.135
4272,0.040,-0.180
4273,0.045,-0.175
4274,0.050,-0.140
4275,0.050,-0.090
4276,0.045,-0.055
4277,0.035,-0.030
4278,0.030,-0.015
4279,0.025,0.000
4280,0.015,0.005
4281,0.015,0.015
4282,0.015,0.030
4283,0.015,0.045
4284,0.015,0.055
4285,0.015,0.060
4286,0.010,0.065
4287,0.010,0.065
4288,0.010,0.060
4289,0.010,0.055
4290,0.010,0.050
4291,0.010,0.045
4292,0.015,0.045
4293,0.015,0.040
4294,0.015,0.030
4295,0.020,0.025
4296,0.025,0.015
4297,0.020,0.010
4298,0.015,0.005
4299,0.015,0.000
4300,0.015,0.000
4301,0.015,-0.010
4302,0.015,-0.005
4303,0.015,0.000
4304,0.015,0.000
4305,0.010,0.005
4306,0.010,0.005
4307,0.010,0.015
4308,0.005,0.025
4309,0.000,0.025
4310,0.000,0.025
4311,0.000,0.030
4312,0.000,0.035
4313,0.000,0.040
4314,0.005,0.040
4315,0.005,0.040
4316,0.000,0.050
4317,0.000,0.055
4318,0.000,0.045
4319,0.000,0.045
4320,0.000,0.045
4321,0.000,0.050
4322,0.000,0.055
4323,0.000,0.070
4324,0.000,0.085
4325,-0.005,0.110
4326,-0.010,0.140
4327,-0.020,0.145
4328,-0.030,0.130
4329,-0.035,0.115
4330,-0.025,0.100
4331,-0.025,0.100
4332,-0.020,0.095
4333,-0.015,0.090
4334,-0.010,0.075
4335,0.000,0.055
4336,0.000,0.025
4337,0.010,0.000
4338,0.015,-0.010
4339,0.010,-0.020
4340,0.010,-0.020
4341,0.010,-0.030
4342,0.015,-0.030
4343,0.025,-0.025
4344,0.020,-0.020
4345,0.000,0.010
4346,-0.045,0.105
4347,-0.130,0.230
4348,-0.210,0.315
4349,-0.230,0.285
4350,-0.185,0.145
4351,-0.105,0.000
4352,-0.030,-0.090
4353,0.015,-0.155
4354,0.040,-0.180
4355,0.050,-0.175
4356,0.055,-0.130
4357,0.050,-0.090
4358,0.040,-0.060
4359,0.035,-0.040
4360,0.035,-0.030
4361,0.035,-0.025
4362,0.030,-0.015
4363,0.030,-0.010
4364,0.030,0.000
4365,0.035,0.000
4366,0.025,0.000
4367,0.025,0.000
4368,0.025,0.000
4369,0.030,0.005
4370,0.025,0.010
4371,0.025,0.010
4372,0.025,0.005
4373,0.025,0.005
4374,0.025,0.005
4375,0.025,0.000
4376,0.020,0.000
4377,0.020,0.000
4378,0.030,0.000
4379,0.030,-0.005
4380,0.025,-0.010
4381,0.020,-0.010
4382,0.025,-0.015
4383,0.030,-0.015
4384,0.030,-0.020
4385,0.025,-0.020
4386,0.010,-0.025
4387,0.010,-0.020
4388,0.010,-0.010
4389,0.010,0.000
4390,0.015,0.000
4391,0.020,0.000
4392,0.020,0.000
4393,0.015,0.010
4394,0.010,0.020
4395,0.010,0.020
4396,0.005,0.025
4397,0.000,0.030
4398,0.000,0.035
4399,0.000,0.040
4400,0.005,0.045
4401,0.005,0.040
4402,0.000,0.040
4403,0.000,0.035
4404,0.005,0.035
4405,0.000,0.035
4406,0.000,0.035
4407,0.000,0.050
4408,0.000,0.070
4409,0.000,0.080
4410,0.000,0.090
4411,-0.010,0.090
4412,-0.015,0.085
4413,-0.015,0.075
4414,-0.010,0.065
4415,-0.010,0.065
4416,-0.015,0.060
4417,-0.010,0.050
4418,0.000,0.035
4419,0.005,0.010
4420,0.010,-0.005
4421,0.020,-0.015
4422,0.020,-0.025
4423,0.015,-0.030
4424,0.015,-0.040
4425,0.015,-0.040
4426,0.015,-0.035
4427,0.015,-0.025
4428,0.005,0.010
4429,-0.035,0.090
4430,-0.120,0.205
4431,-0.200,0.290
4432,-0.230,0.270
4433,-0.190,0.150
4434,-0.105,0.010
4435,-0.025,-0.085
4436,0.015,-0.160
4437,0.045,-0.195
4438,0.050,-0.185
4439,0.055,-0.140
4440,0.050,-0.090
4441,0.050,-0.060
4442,0.050,-0.040
4443,0.050,-0.030
4444,0.035,-0.015
4445,0.030,-0.005
4446,0.025,0.000
4447,0.020,0.000
4448,0.020,0.000
4449,0.025,0.005
4450,0.030,0.010
4451,0.030,0.015
4452,0.030,0.015
4453,0.030,0.020
4454,0.025,0.025
4455,0.020,0.030
4456,0.020,0.035
4457,0.025,0.030
4458,0.020,0.025
4459,0.015,0.020
4460,0.015,0.020
4461,0.015,0.020
4462,0.020,0.015
4463,0.020,0.010
4464,0.020,0.005
4465,0.020,0.000
4466,0.025,0.000
4467,0.025,0.000
4468,0.020,-0.005
4469,0.015,-0.005
4470,0.015,0.000
4471,0.020,0.000
4472,0.015,0.000
4473,0.010,0.000
4474,0.015,0.000
4475,0.010,0.005
4476,0.005,0.005
4477,0.010,0.015
4478,0.010,0.030
4479,0.005,0.040
4480,0.005,0.045
4481,0.005,0.045
4482,0.005,0.050
4483,0.005,0.050
4484,0.000,0.045
4485,0.000,0.040
4486,0.005,0.035
4487,0.000,0.030
4488,0.000,0.030
4489,0.000,0.045
4490,0.000,0.065
4491,0.000,0.085
4492,-0.005,0.090
4493,-0.010,0.095
4494,-0.010,0.100
4495,-0.010,0.100
4496,-0.010,0.090
4497,-0.015,0.075
4498,-0.020,0.070
4499,-0.015,0.065
4500,0.000,0.050
4501,0.005,0.030
4502,0.010,0.010
4503,0.015,-0.005
4504,0.015,-0.025
4505,0.015,-0.035
4506,0.015,-0.040
4507,0.015,-0.035
4508,0.020,-0.025
4509,0.025,-0.020
4510,0.020,0.000
4511,-0.005,0.050
4512,-0.065,0.155
4513,-0.155,0.275
4514,-0.220,0.325
4515,-0.230,0.250
4516,-0.170,0.105
4517,-0.075,-0.015
4518,-0.005,-0.115
4519,0.035,-0.180
4520,0.055,-0.195
4521,0.050,-0.165
4522,0.050,-0.120
4523,0.050,-0.085
4524,0.050,-0.060
4525,0.050,-0.045
4526,0.055,-0.035
4527,0.055,-0.020
4528,0.045,-0.010
4529,0.040,-0.005
4530,0.030,-0.005
4531,0.025,-0.005
4532,0.025,0.000
4533,0.025,0.000
4534,0.030,0.000
4535,0.030,0.000
4536,0.020,0.000
4537,0.020,0.000
4538,0.025,0.000
4539,0.030,0.005
4540,0.025,0.005
4541,0.025,0.005
4542,0.025,0.000
4543,0.030,0.000
4544,0.030,0.000
4545,0.030,0.000
4546,0.030,0.000
4547,0.025,-0.005
4548,0.025,-0.005
4549,0.020,-0.005
4550,0.015,-0.010
4551,0.015,-0.010
4552,0.025,-0.005
4553,0.025,0.000
4554,0.015,0.000
4555,0.005,-0.010
4556,0.005,-0.005
4557,0.010,0.000
4558,0.010,0.000
4559,0.010,0.015
4560,0.015,0.025
4561,0.015,0.035
4562,0.005,0.035
4563,0.005,0.040
4564,0.005,0.045
4565,0.005,0.040
4566,0.005,0.040
4567,0.005,0.040
4568,0.005,0.040
4569,0.010,0.035
4570,0.010,0.025
4571,0.005,0.025
4572,0.005,0.045
4573,0.000,0.065
4574,0.000,0.085
4575,0.000,0.090
4576,0.000,0.100
4577,-0.005,0.110
4578,-0.005,0.100
4579,-0.010,0.085
4580,-0.010,0.080
4581,-0.010,0.080
4582,0.000,0.070
4583,0.005,0.050
4584,0.010,0.020
4585,0.020,0.000
4586,0.025,-0.030
4587,0.030,-0.055
4588,0.035,-0.075
4589,0.035,-0.085
4590,0.045,-0.095
4591,0.050,-0.090
4592,0.050,-0.085
4593,0.045,-0.070
4594,0.015,-0.010
4595,-0.040,0.085
4596,-0.130,0.195
4597,-0.185,0.235
4598,-0.175,0.165
4599,-0.110,0.025
4600,-0.030,-0.095
4601,0.015,-0.180
4602,0.055,-0.225
4603,0.075,-0.225
4604,0.075,-0.195
4605,0.070,-0.150
4606,0.070,-0.115
4607,0.065,-0.095
4608,0.065,-0.085
4609,0.055,-0.070
4610,0.050,-0.055
4611,0.045,-0.045
4612,0.045,-0.045
4613,0.045,-0.045
4614,0.045,-0.040
4615,0.045,-0.040
4616,0.040,-0.035
4617,0.040,-0.030
4618,0.040,-0.025
4619,0.045,-0.020
4620,0.045,-0.020
4621,0.035,-0.020
4622,0.035,-0.025
4623,0.035,-0.030
4624,0.040,-0.035
4625,0.035,-0.025
4626,0.035,-0.020
4627,0.035,-0.020
4628,0.035,-0.025
4629,0.035,-0.030
4630,0.030,-0.035
4631,0.030,-0.035
4632,0.030,-0.035
4633,0.025,-0.030
4634,0.025,-0.025
4635,0.020,-0.025
4636,0.020,-0.025
4637,0.025,-0.020
4638,0.020,-0.020
4639,0.020,-0.015
4640,0.020,-0.010
4641,0.020,0.000
4642,0.015,0.000
4643,0.015,0.000
4644,0.015,0.000
4645,0.015,0.005
4646,0.015,0.010
4647,0.010,0.015
4648,0.010,0.010
4649,0.010,0.010
4650,0.005,0.015
4651,0.005,0.015
4652,0.005,0.020
4653,0.005,0.020
4654,0.005,0.025
4655,0.005,0.030
4656,0.005,0.040
4657,0.000,0.050
4658,0.000,0.060
4659,0.000,0.075
4660,0.000,0.085
4661,-0.005,0.095
4662,-0.010,0.090
4663,-0.015,0.080
4664,-0.010,0.080
4665,-0.010,0.085
4666,-0.010,0.090
4667,0.000,0.080
4668,0.000,0.065
4669,0.005,0.045
4670,0.010,0.015
4671,0.010,0.000
4672,0.005,-0.010
4673,0.005,-0.015
4674,0.010,-0.020
4675,0.010,-0.020
4676,0.010,-0.015
4677,0.010,0.005
4678,-0.010,0.070
4679,-0.075,0.185
4680,-0.165,0.310
4681,-0.220,0.365
4682,-0.220,0.300
4683,-0.160,0.150
4684,-0.080,0.005
4685,-0.015,-0.095
4686,0.020,-0.160
4687,0.045,-0.175
4688,0.045,-0.150
4689,0.040,-0.115
4690,0.035,-0.075
4691,0.035,-0.050
4692,0.035,-0.030
4693,0.035,-0.015
4694,0.035,-0.010
4695,0.030,-0.005
4696,0.030,0.000
4697,0.025,0.000
4698,0.020,0.005
4699,0.020,0.010
4700,0.020,0.010
4701,0.020,0.015
4702,0.020,0.020
4703,0.020,0.025
4704,0.020,0.030
4705,0.020,0.030
4706,0.015,0.025
4707,0.015,0.025
4708,0.015,0.020
4709,0.015,0.015
4710,0.015,0.010
4711,0.020,0.005
4712,0.020,0.005
4713,0.020,0.000
4714,0.015,0.000
4715,0.015,0.000
4716,0.015,0.000
4717,0.015,0.000
4718,0.010,0.005
4719,0.010,0.005
4720,0.010,0.010
4721,0.010,0.015
4722,0.005,0.010
4723,0.005,0.010
4724,0.000,0.015
4725,0.000,0.020
4726,0.000,0.020
4727,0.005,0.030
4728,0.005,0.035
4729,0.000,0.040
4730,0.000,0.045
4731,0.000,0.050
4732,0.000,0.050
4733,0.000,0.045
4734,0.005,0.045
4735,0.005,0.045
4736,0.005,0.045
4737,0.000,0.045
4738,0.000,0.040
4739,0.000,0.050
4740,0.000,0.070
4741,-0.005,0.085
4742,-0.010,0.090
4743,-0.015,0.095
4744,-0.020,0.095
4745,-0.020,0.090
4746,-0.020,0.080
4747,-0.015,0.075
4748,-0.015,0.080
4749,-0.005,0.075
4750,0.000,0.060
4751,0.000,0.035
4752,0.005,0.005
4753,0.010,-0.005
4754,0.010,-0.020
4755,0.010,-0.030
4756,0.010,-0.030
4757,0.015,-0.030
4758,0.015,-0.030
4759,0.020,-0.025
4760,0.010,-0.005
4761,-0.015,0.050
4762,-0.080,0.160
4763,-0.160,0.275
4764,-0.215,0.315
4765,-0.205,0.250
4766,-0.140,0.110
4767,-0.065,-0.020
4768,-0.010,-0.115
4769,0.015,-0.175
4770,0.035,-0.190
4771,0.045,-0.165
4772,0.045,-0.120
4773,0.045,-0.075
4774,0.040,-0.045
4775,0.035,-0.025
4776,0.035,-0.015
4777,0.035,0.000
4778,0.040,0.005
4779,0.035,0.005
4780,0.025,0.000
4781,0.020,0.000
4782,0.020,0.000
4783,0.025,0.010
4784,0.025,0.015
4785,0.015,0.015
4786,0.010,0.015
4787,0.010,0.015
4788,0.010,0.015
4789,0.015,0.015
4790,0.020,0.015
4791,0.020,0.010
4792,0.020,0.010
4793,0.025,0.010
4794,0.030,0.010
4795,0.025,0.000
4796,0.020,0.000
4797,0.020,-0.005
4798,0.025,-0.010
4799,0.020,-0.010
4800,0.020,-0.010
4801,0.020,-0.005
4802,0.015,-0.005
4803,0.010,-0.010
4804,0.010,-0.015
4805,0.010,-0.010
4806,0.005,0.000
4807,0.005,0.000
4808,0.010,0.010
4809,0.010,0.015
4810,0.010,0.020
4811,0.010,0.020
4812,0.010,0.025
4813,0.010,0.030
4814,0.010,0.035
4815,0.005,0.030
4816,0.000,0.020
4817,0.000,0.020
4818,0.000,0.020
4819,0.000,0.025
4820,0.000,0.030
4821,0.000,0.030
4822,0.000,0.030
4823,0.000,0.040
4824,0.000,0.060
4825,0.000,0.075
4826,0.000,0.085
4827,-0.005,0.095
4828,-0.010,0.100
4829,-0.010,0.085
4830,-0.020,0.070
4831,-0.025,0.065
4832,-0.020,0.070
4833,-0.010,0.065
4834,0.000,0.050
4835,0.000,0.030
4836,0.000,0.010
4837,0.005,0.000
4838,0.010,-0.015
4839,0.010,-0.020
4840,0.020,-0.020
4841,0.020,-0.020
4842,0.020,-0.025
4843,0.020,-0.020
4844,0.015,0.000
4845,-0.010,0.050
4846,-0.080,0.145
4847,-0.165,0.265
4848,-0.225,0.325
4849,-0.220,0.270
4850,-0.165,0.140
4851,-0.085,0.005
4852,-0.015,-0.090
4853,0.025,-0.155
4854,0.050,-0.175
4855,0.050,-0.155
4856,0.045,-0.115
4857,0.045,-0.075
4858,0.040,-0.050
4859,0.040,-0.035
4860,0.035,-0.025
4861,0.030,-0.015
4862,0.030,-0.010
4863,0.035,0.000
4864,0.040,0.000
4865,0.035,0.000
4866,0.030,0.000
4867,0.030,0.000
4868,0.030,0.000
4869,0.030,0.005
4870,0.035,0.010
4871,0.025,0.015
4872,0.015,0.010
4873,0.015,0.010
4874,0.015,0.010
4875,0.020,0.015
4876,0.020,0.015
4877,0.025,0.015
4878,0.025,0.015
4879,0.025,0.015
4880,0.025,0.010
4881,0.025,0.005
4882,0.025,0.000
4883,0.025,0.000
4884,0.020,0.000
4885,0.010,0.000
4886,0.010,0.000
4887,0.010,0.000
4888,0.010,0.005
4889,0.010,0.010
4890,0.010,0.020
4891,0.005,0.025
4892,0.005,0.020
4893,0.005,0.020
4894,0.005,0.035
4895,0.005,0.050
4896,0.005,0.055
4897,0.000,0.060
4898,0.000,0.060
4899,0.000,0.065
4900,0.000,0.065
4901,0.000,0.060
4902,0.000,0.050
4903,0.000,0.050
4904,0.000,0.055
4905,0.000,0.060
4906,0.000,0.065
4907,-0.005,0.070
4908,-0.010,0.090
4909,-0.010,0.105
4910,-0.010,0.115
4911,-0.015,0.120
4912,-0.020,0.120
4913,-0.020,0.105
4914,-0.015,0.095
4915,-0.015,0.090
4916,-0.020,0.090
4917,-0.015,0.075
4918,-0.005,0.060
4919,0.000,0.040
4920,0.000,0.015
4921,0.010,0.000
4922,0.015,-0.010
4923,0.015,-0.015
4924,0.020,-0.015
4925,0.020,-0.015
4926,0.020,-0.005
4927,0.020,0.000
4928,0.015,0.020
4929,-0.020,0.085
4930,-0.095,0.190
4931,-0.180,0.295
4932,-0.235,0.330
4933,-0.220,0.255
4934,-0.155,0.115
4935,-0.075,-0.010
4936,-0.010,-0.100
4937,0.025,-0.160
4938,0.045,-0.170
4939,0.045,-0.150
4940,0.050,-0.110
4941,0.045,-0.065
4942,0.045,-0.040
4943,0.040,-0.025
4944,0.040,-0.015
4945,0.040,-0.005
4946,0.040,0.000
4947,0.035,0.000
4948,0.025,0.000
4949,0.015,0.000
4950,0.015,0.000
4951,0.015,0.005
4952,0.020,0.010
4953,0.025,0.015
4954,0.025,0.020
4955,0.030,0.020
4956,0.030,0.025
4957,0.025,0.030
4958,0.020,0.030
4959,0.020,0.030
4960,0.015,0.025
4961,0.015,0.020
4962,0.020,0.020
4963,0.020,0.015
4964,0.015,0.010
4965,0.015,0.010
4966,0.015,0.005
4967,0.020,0.005
4968,0.015,0.005
4969,0.015,0.005
4970,0.010,0.000
4971,0.005,0.000
4972,0.005,0.005
4973,0.010,0.015
4974,0.010,0.020
4975,0.005,0.020
4976,0.005,0.020
4977,0.005,0.030
4978,0.005,0.030
4979,0.005,0.030
4980,0.005,0.035
4981,0.005,0.040
4982,0.000,0.045
4983,0.000,0.045
4984,0.000,0.045
4985,0.000,0.040
4986,0.000,0.040
4987,0.000,0.040
4988,0.000,0.045
4989,0.000,0.045
4990,0.000,0.045
4991,0.000,0.050
4992,-0.005,0.065
4993,-0.005,0.075
4994,-0.005,0.085
4995,-0.010,0.090
4996,-0.015,0.090
4997,-0.015,0.080
4998,-0.015,0.065
4999,-0.015,0.065
5000,-0.020,0.065
5001,-0.015,0.060
5002,-0.005,0.045
5003,0.000,0.030
5004,0.005,0.010
5005,0.010,-0.005
5006,0.010,-0.020
5007,0.010,-0.025
5008,0.010,-0.025
5009,0.015,-0.025
5010,0.015,-0.025
5011,0.015,-0.015
5012,0.010,0.005
5013,-0.015,0.070
5014,-0.095,0.175
5015,-0.180,0.280
5016,-0.230,0.310
5017,-0.215,0.235
5018,-0.150,0.095
5019,-0.070,-0.025
5020,0.000,-0.115
5021,0.035,-0.170
5022,0.050,-0.175
5023,0.045,-0.150
5024,0.045,-0.110
5025,0.045,-0.070
5026,0.050,-0.050
5027,0.045,-0.040
5028,0.040,-0.030
5029,0.035,-0.020
5030,0.030,-0.020
5031,0.030,-0.020
5032,0.030,-0.015
5033,0.025,-0.010
5034,0.025,-0.005
5035,0.025,0.000
5036,0.025,0.000
5037,0.025,0.000
5038,0.025,0.005
5039,0.025,0.005
5040,0.020,0.005
5041,0.015,0.005
5042,0.015,0.005
5043,0.015,0.005
5044,0.020,0.010
5045,0.020,0.010
5046,0.020,0.005
5047,0.020,0.000
5048,0.020,0.000
5049,0.020,0.000
5050,0.020,0.000
5051,0.015,-0.010
5052,0.015,-0.015
5053,0.015,-0.015
5054,0.015,-0.010
5055,0.015,0.000
5056,0.015,0.000
5057,0.010,0.000
5058,0.005,0.000
5059,0.005,0.000
5060,0.005,0.005
5061,0.005,0.010
5062,0.005,0.020
5063,0.000,0.020
5064,0.000,0.020
5065,0.000,0.025
5066,0.005,0.025
5067,0.005,0.030
5068,0.005,0.040
5069,0.005,0.035
5070,0.000,0.025
5071,0.000,0.025
5072,0.000,0.025
5073,0.000,0.025
5074,0.000,0.030
5075,0.000,0.040
5076,0.000,0.060
5077,-0.005,0.080
5078,-0.005,0.085
5079,-0.005,0.090
5080,-0.015,0.095
5081,-0.020,0.090
5082,-0.020,0.075
5083,-0.020,0.070
5084,-0.020,0.070
5085,-0.020,0.065
5086,-0.005,0.050
5087,0.000,0.030
5088,0.000,0.005
5089,0.010,-0.010
5090,0.015,-0.025
5091,0.015,-0.040
5092,0.015,-0.045
5093,0.020,-0.040
5094,0.020,-0.040
5095,0.020,-0.030
5096,0.010,-0.010
5097,-0.010,0.040
5098,-0.085,0.140
5099,-0.170,0.255
5100,-0.225,0.310
5101,-0.220,0.250
5102,-0.160,0.110
5103,-0.080,-0.015
5104,-0.010,-0.115
5105,0.025,-0.175
5106,0.045,-0.195
5107,0.050,-0.175
5108,0.050,-0.130
5109,0.050,-0.085
5110,0.050,-0.060
5111,0.045,-0.045
5112,0.040,-0.035
5113,0.040,-0.025
5114,0.040,-0.020
5115,0.040,-0.020
5116,0.040,-0.015
5117,0.035,-0.015
5118,0.020,-0.010
5119,0.020,-0.005
5120,0.025,-0.005
5121,0.025,0.000
5122,0.030,0.000
5123,0.030,0.000
5124,0.020,0.000
5125,0.020,0.010
5126,0.025,0.015
5127,0.025,0.020
5128,0.030,0.020
5129,0.025,0.015
5130,0.020,0.005
5131,0.020,0.005
5132,0.015,0.000
5133,0.015,0.000
5134,0.015,-0.005
5135,0.015,-0.005
5136,0.015,-0.010
5137,0.015,-0.010
5138,0.015,-0.005
5139,0.015,0.000
5140,0.015,0.000
5141,0.015,0.000
5142,0.010,0.000
5143,0.005,0.000
5144,0.005,0.000
5145,0.010,0.005
5146,0.005,0.010
5147,0.005,0.015
5148,0.010,0.015
5149,0.005,0.020
5150,0.005,0.020
5151,0.005,0.025
5152,0.005,0.030
5153,0.005,0.030
5154,0.005,0.025
5155,0.005,0.020
5156,0.000,0.015
5157,0.000,0.015
5158,0.000,0.015
5159,0.000,0.025
5160,0.000,0.045
5161,0.000,0.060
5162,0.000,0.070
5163,0.000,0.075
5164,-0.010,0.085
5165,-0.015,0.090
5166,-0.015,0.080
5167,-0.020,0.075
5168,-0.020,0.080
5169,-0.015,0.075
5170,-0.005,0.060
5171,0.000,0.040
5172,0.000,0.020
5173,0.000,0.000
5174,0.000,-0.015
5175,0.005,-0.025
5176,0.010,-0.030
5177,0.015,-0.030
5178,0.015,-0.025
5179,0.015,-0.020
5180,0.020,-0.005
5181,0.005,0.025
5182,-0.045,0.115
5183,-0.130,0.230
5184,-0.210,0.310
5185,-0.235,0.285
5186,-0.195,0.175
5187,-0.115,0.040
5188,-0.040,-0.070
5189,0.015,-0.150
5190,0.040,-0.190
5191,0.050,-0.180
5192,0.050,-0.150
5193,0.050,-0.105
5194,0.050,-0.075
5195,0.045,-0.060
5196,0.045,-0.045
5197,0.045,-0.035
5198,0.045,-0.025
5199,0.040,-0.025
5200,0.030,-0.025
5201,0.030,-0.025
5202,0.030,-0.020
5203,0.030,-0.010
5204,0.030,0.000
5205,0.030,0.000
5206,0.030,0.000
5207,0.030,0.000
5208,0.030,0.000
5209,0.030,0.000
5210,0.025,0.000
5211,0.025,0.000
5212,0.020,0.000
5213,0.020,0.000
5214,0.025,0.000
5215,0.025,0.000
5216,0.025,0.000
5217,0.020,-0.005
5218,0.015,-0.005
5219,0.015,-0.005
5220,0.015,-0.010
5221,0.015,-0.010
5222,0.010,-0.010
5223,0.010,-0.010
5224,0.015,-0.005
5225,0.015,-0.005
5226,0.010,0.000
5227,0.010,0.000
5228,0.010,0.000
5229,0.005,0.010
5230,0.005,0.015
5231,0.005,0.025
5232,0.005,0.035
5233,0.000,0.045
5234,0.000,0.055
5235,0.000,0.050
5236,0.000,0.045
5237,0.000,0.045
5238,0.000,0.045
5239,0.000,0.040
5240,0.000,0.035
5241,0.000,0.030
5242,0.000,0.025
5243,0.000,0.025
5244,0.000,0.035
5245,0.000,0.055
5246,-0.010,0.070
5247,-0.010,0.080
5248,-0.015,0.085
5249,-0.015,0.090
5250,-0.020,0.095
5251,-0.020,0.085
5252,-0.020,0.080
5253,-0.020,0.080
5254,-0.025,0.075
5255,-0.010,0.055
5256,0.000,0.035
5257,0.000,0.015
5258,0.005,0.000
5259,0.010,-0.015
5260,0.015,-0.025
5261,0.015,-0.030
5262,0.015,-0.030
5263,0.015,-0.030
5264,0.015,-0.025
5265,0.020,-0.005
5266,0.000,0.030
5267,-0.055,0.120
5268,-0.150,0.235
5269,-0.215,0.305
5270,-0.230,0.270
5271,-0.180,0.155
5272,-0.100,0.020
5273,-0.025,-0.080
5274,0.015,-0.150
5275,0.040,-0.185
5276,0.050,-0.170
5277,0.050,-0.135
5278,0.045,-0.100
5279,0.045,-0.070
5280,0.045,-0.055
5281,0.040,-0.045
5282,0.040,-0.035
5283,0.035,-0.020
5284,0.030,-0.015
5285,0.030,-0.015
5286,0.030,-0.015
5287,0.030,-0.010
5288,0.030,0.000
5289,0.030,0.000
5290,0.030,0.000
5291,0.030,0.000
5292,0.030,0.005
5293,0.025,0.005
5294,0.020,0.005
5295,0.015,0.005
5296,0.010,0.005
5297,0.010,0.010
5298,0.015,0.015
5299,0.015,0.015
5300,0.015,0.015
5301,0.015,0.005
5302,0.020,0.005
5303,0.020,0.005
5304,0.015,0.000
5305,0.015,0.000
5306,0.010,0.000
5307,0.010,0.000
5308,0.005,0.000
5309,0.005,0.000
5310,0.005,0.005
5311,0.010,0.010
5312,0.005,0.010
5313,0.005,0.010
5314,0.010,0.015
5315,0.010,0.025
5316,0.005,0.035
5317,0.005,0.040
5318,0.005,0.045
5319,0.005,0.040
5320,0.005,0.040
5321,0.005,0.040
5322,0.005,0.035
5323,0.005,0.035
5324,0.010,0.030
5325,0.005,0.025
5326,0.005,0.020
5327,0.005,0.025
5328,0.005,0.025
5329,0.000,0.030
5330,0.000,0.050
5331,0.000,0.070
5332,0.000,0.075
5333,0.000,0.070
5334,0.000,0.070
5335,-0.005,0.055
5336,-0.005,0.040
5337,0.000,0.035
5338,0.000,0.035
5339,0.000,0.030
5340,0.000,0.010
5341,0.005,0.000
5342,0.015,-0.020
5343,0.020,-0.040
5344,0.025,-0.055
5345,0.030,-0.065
5346,0.030,-0.070
5347,0.030,-0.070
5348,0.035,-0.070
5349,0.035,-0.065
5350,0.030,-0.045
5351,0.005,0.000
5352,-0.050,0.095
5353,-0.135,0.205
5354,-0.190,0.260
5355,-0.185,0.195
5356,-0.130,0.060
5357,-0.050,-0.070
5358,0.010,-0.165
5359,0.045,-0.220
5360,0.065,-0.230
5361,0.075,-0.210
5362,0.070,-0.170
5363,0.065,-0.130
5364,0.060,-0.105
5365,0.055,-0.090
5366,0.050,-0.080
5367,0.050,-0.070
5368,0.045,-0.055
5369,0.045,-0.050
5370,0.040,-0.045
5371,0.040,-0.040
5372,0.040,-0.035
5373,0.040,-0.030
5374,0.035,-0.025
5375,0.035,-0.020
5376,0.035,-0.020
5377,0.035,-0.020
5378,0.035,-0.015
5379,0.030,-0.015
5380,0.030,-0.020
5381,0.030,-0.020
5382,0.030,-0.020
5383,0.030,-0.015
5384,0.030,-0.010
5385,0.030,-0.010
5386,0.030,-0.015
5387,0.030,-0.020
5388,0.030,-0.025
5389,0.030,-0.025
5390,0.025,-0.030
5391,0.020,-0.025
5392,0.020,-0.025
5393,0.020,-0.030
5394,0.020,-0.025
5395,0.020,-0.020
5396,0.020,-0.020
5397,0.015,-0.010
5398,0.015,-0.005
5399,0.015,0.000
5400,0.015,0.000
5401,0.015,0.000
5402,0.015,0.005
5403,0.010,0.010
5404,0.010,0.015
5405,0.010,0.015
5406,0.010,0.015
5407,0.010,0.015
5408,0.005,0.015
5409,0.005,0.015
5410,0.005,0.015
5411,0.005,0.015
5412,0.005,0.015
5413,0.005,0.015
5414,0.005,0.015
5415,0.000,0.025
5416,0.000,0.050
5417,0.000,0.070
5418,0.000,0.075
5419,0.000,0.080
5420,-0.005,0.085
5421,-0.005,0.085
5422,-0.005,0.070
5423,-0.010,0.065
5424,-0.010,0.070
5425,-0.010,0.070
5426,-0.005,0.045
5427,0.000,0.025
5428,0.000,0.005
5429,0.010,-0.020
5430,0.015,-0.040
5431,0.015,-0.040
5432,0.015,-0.040
5433,0.015,-0.040
5434,0.015,-0.040
5435,0.015,-0.030
5436,0.010,-0.005
5437,-0.020,0.065
5438,-0.090,0.190
5439,-0.170,0.305
5440,-0.215,0.340
5441,-0.200,0.255
5442,-0.135,0.100
5443,-0.060,-0.035
5444,0.000,-0.130
5445,0.030,-0.175
5446,0.045,-0.175
5447,0.045,-0.145
5448,0.045,-0.105
5449,0.050,-0.070
5450,0.045,-0.045
5451,0.030,-0.035
5452,0.030,-0.025
5453,0.030,-0.015
5454,0.030,-0.010
5455,0.025,-0.005
5456,0.025,0.000
5457,0.025,0.000
5458,0.025,0.005
5459,0.020,0.015
5460,0.015,0.015
5461,0.015,0.020
5462,0.015,0.025
5463,0.010,0.035
5464,0.010,0.040
5465,0.010,0.040
5466,0.010,0.040
5467,0.010,0.030
5468,0.015,0.030
5469,0.015,0.030
5470,0.015,0.030
5471,0.010,0.020
5472,0.010,0.015
5473,0.010,0.010
5474,0.010,0.010
5475,0.010,0.010
5476,0.005,0.005
5477,0.005,0.005
5478,0.005,0.010
5479,0.005,0.010
5480,0.005,0.015
5481,0.005,0.015
5482,0.005,0.020
5483,0.000,0.020
5484,0.000,0.025
5485,0.000,0.025
5486,0.000,0.030
5487,0.000,0.035
5488,0.000,0.045
5489,0.000,0.045
5490,0.000,0.050
5491,0.000,0.045
5492,0.000,0.045
5493,0.000,0.050
5494,0.000,0.050
5495,0.000,0.045
5496,0.000,0.040
5497,0.000,0.040
5498,0.000,0.040
5499,0.000,0.050
5500,-0.005,0.065
5501,-0.005,0.080
5502,-0.010,0.085
5503,-0.015,0.090
5504,-0.020,0.095
5505,-0.020,0.090
5506,-0.020,0.080
5507,-0.020,0.080
5508,-0.020,0.080
5509,-0.020,0.075
5510,-0.010,0.055
5511,0.000,0.035
5512,0.000,0.015
5513,0.000,0.000
5514,0.005,-0.020
5515,0.005,-0.025
5516,0.010,-0.025
5517,0.015,-0.030
5518,0.015,-0.030
5519,0.015,-0.025
5520,0.010,-0.005
5521,-0.010,0.050
5522,-0.080,0.160
5523,-0.165,0.270
5524,-0.225,0.315
5525,-0.215,0.245
5526,-0.155,0.105
5527,-0.075,-0.025
5528,-0.015,-0.120
5529,0.020,-0.175
5530,0.040,-0.185
5531,0.050,-0.165
5532,0.045,-0.120
5533,0.040,-0.085
5534,0.035,-0.055
5535,0.035,-0.035
5536,0.035,-0.025
5537,0.030,-0.020
5538,0.030,-0.015
5539,0.030,-0.005
5540,0.025,0.000
5541,0.025,0.000
5542,0.025,0.000
5543,0.030,0.000
5544,0.025,0.000
5545,0.025,0.005
5546,0.025,0.005
5547,0.025,0.005
5548,0.025,0.005
5549,0.025,0.005
5550,0.025,0.010
5551,0.025,0.005
5552,0.020,0.000
5553,0.015,0.000
5554,0.015,-0.005
5555,0.020,-0.010
5556,0.025,-0.015
5557,0.025,-0.015
5558,0.025,-0.020
5559,0.025,-0.025
5560,0.030,-0.030
5561,0.025,-0.030
5562,0.020,-0.030
5563,0.020,-0.025
5564,0.015,-0.020
5565,0.015,-0.015
5566,0.010,-0.010
5567,0.010,0.000
5568,0.010,0.000
5569,0.010,0.000
5570,0.010,0.000
5571,0.010,0.005
5572,0.010,0.015
5573,0.010,0.020
5574,0.005,0.015
5575,0.005,0.015
5576,0.005,0.020
5577,0.005,0.015
5578,0.005,0.010
5579,0.005,0.010
5580,0.005,0.010
5581,0.005,0.010
5582,0.010,0.005
5583,0.010,0.005
5584,0.005,0.005
5585,0.000,0.020
5586,0.000,0.035
5587,0.000,0.050
5588,0.000,0.055
5589,-0.005,0.055
5590,-0.005,0.055
5591,-0.010,0.045
5592,-0.010,0.040
5593,-0.010,0.040
5594,-0.010,0.045
5595,0.000,0.035
5596,0.000,0.015
5597,0.010,0.000
5598,0.015,-0.020
5599,0.015,-0.045
5600,0.015,-0.060
5601,0.020,-0.065
5602,0.025,-0.065
5603,0.020,-0.065
5604,0.020,-0.055
5605,0.025,-0.030
5606,0.000,0.025
5607,-0.065,0.125
5608,-0.155,0.240
5609,-0.210,0.300
5610,-0.210,0.245
5611,-0.160,0.110
5612,-0.080,-0.015
5613,-0.010,-0.115
5614,0.030,-0.175
5615,0.050,-0.195
5616,0.060,-0.175
5617,0.060,-0.135
5618,0.060,-0.095
5619,0.055,-0.070
5620,0.045,-0.055
5621,0.035,-0.050
5622,0.035,-0.045
5623,0.035,-0.040
5624,0.035,-0.035
5625,0.035,-0.030
5626,0.040,-0.025
5627,0.040,-0.025
5628,0.040,-0.020
5629,0.035,-0.020
5630,0.035,-0.015
5631,0.035,-0.015
5632,0.040,-0.015
5633,0.035,-0.010
5634,0.035,-0.010
5635,0.035,-0.010
5636,0.035,-0.015
5637,0.035,-0.015
5638,0.040,-0.015
5639,0.035,-0.015
5640,0.035,-0.020
5641,0.030,-0.025
5642,0.030,-0.030
5643,0.030,-0.030
5644,0.030,-0.030
5645,0.030,-0.035
5646,0.030,-0.035
5647,0.030,-0.030
5648,0.025,-0.025
5649,0.025,-0.020
5650,0.020,-0.015
5651,0.015,-0.005
5652,0.015,0.000
5653,0.015,0.000
5654,0.010,0.000
5655,0.010,0.010
5656,0.010,0.020
5657,0.010,0.030
5658,0.010,0.035
5659,0.005,0.040
5660,0.005,0.035
5661,0.010,0.030
5662,0.010,0.025
5663,0.010,0.020
5664,0.005,0.015
5665,0.005,0.010
5666,0.005,0.005
5667,0.005,0.005
5668,0.010,0.005
5669,0.005,0.015
5670,0.005,0.035
5671,0.005,0.055
5672,0.000,0.060
5673,0.000,0.065
5674,0.000,0.065
5675,-0.005,0.065
5676,-0.010,0.050
5677,-0.010,0.045
5678,-0.010,0.045
5679,0.000,0.040
5680,0.000,0.025
5681,0.010,0.000
5682,0.020,-0.015
5683,0.025,-0.035
5684,0.030,-0.050
5685,0.030,-0.060
5686,0.030,-0.065
5687,0.030,-0.070
5688,0.030,-0.060
5689,0.035,-0.050
5690,0.030,-0.025
5691,0.000,0.030
5692,-0.070,0.140
5693,-0.155,0.250
5694,-0.210,0.285
5695,-0.205,0.205
5696,-0.145,0.070
5697,-0.060,-0.050
5698,0.005,-0.140
5699,0.045,-0.195
5700,0.060,-0.205
5701,0.065,-0.180
5702,0.060,-0.140
5703,0.060,-0.100
5704,0.060,-0.070
5705,0.055,-0.055
5706,0.050,-0.050
5707,0.050,-0.045
5708,0.045,-0.045
5709,0.040,-0.045
5710,0.040,-0.040
5711,0.040,-0.030
5712,0.035,-0.020
5713,0.035,-0.010
5714,0.040,-0.005
5715,0.035,0.000
5716,0.035,0.000
5717,0.030,0.000
5718,0.030,0.000
5719,0.030,0.000
5720,0.030,0.000
5721,0.030,0.000
5722,0.025,0.005
5723,0.025,0.005
5724,0.030,0.000
5725,0.030,0.000
5726,0.030,0.000
5727,0.030,0.000
5728,0.025,-0.010
5729,0.025,-0.020
5730,0.025,-0.025
5731,0.020,-0.030
5732,0.020,-0.030
5733,0.020,-0.030
5734,0.025,-0.025
5735,0.025,-0.015
5736,0.025,-0.005
5737,0.015,0.000
5738,0.010,0.000
5739,0.010,0.000
5740,0.010,0.000
5741,0.010,0.005
5742,0.015,0.010
5743,0.015,0.015
5744,0.015,0.020
5745,0.015,0.025
5746,0.010,0.025
5747,0.005,0.020
5748,0.005,0.020
5749,0.005,0.015
5750,0.005,0.005
5751,0.005,0.005
5752,0.005,0.010
5753,0.005,0.015
5754,0.005,0.025
5755,0.005,0.040
5756,0.000,0.060
5757,0.000,0.070
5758,-0.005,0.075
5759,-0.015,0.075
5760,-0.015,0.070
5761,-0.010,0.060
5762,-0.010,0.055
5763,-0.015,0.055
5764,-0.005,0.050
5765,0.000,0.040
5766,0.005,0.020
5767,0.010,0.000
5768,0.015,-0.020
5769,0.020,-0.030
5770,0.025,-0.035
5771,0.025,-0.040
5772,0.025,-0.045
5773,0.025,-0.045
5774,0.030,-0.035
5775,0.015,-0.005
5776,-0.025,0.065
5777,-0.110,0.180
5778,-0.190,0.280
5779,-0.225,0.285
5780,-0.195,0.185
5781,-0.120,0.040
5782,-0.040,-0.075
5783,0.015,-0.155
5784,0.045,-0.200
5785,0.060,-0.195
5786,0.060,-0.160
5787,0.060,-0.120
5788,0.060,-0.085
5789,0.055,-0.065
5790,0.050,-0.055
5791,0.050,-0.050
5792,0.045,-0.050
5793,0.045,-0.045
5794,0.045,-0.045
5795,0.040,-0.040
5796,0.040,-0.035
5797,0.040,-0.030
5798,0.040,-0.020
5799,0.035,-0.010
5800,0.030,-0.005
5801,0.030,-0.005
5802,0.030,0.000
5803,0.030,0.000
5804,0.030,0.000
5805,0.030,0.000
5806,0.030,0.000
5807,0.035,0.000
5808,0.030,0.000
5809,0.025,0.000
5810,0.025,0.000
5811,0.025,-0.005
5812,0.025,-0.010
5813,0.025,-0.015
5814,0.025,-0.015
5815,0.020,-0.015
5816,0.020,-0.015
5817,0.020,-0.010
5818,0.020,-0.010
5819,0.015,-0.010
5820,0.010,-0.005
5821,0.010,-0.005
5822,0.015,0.000
5823,0.015,0.000
5824,0.015,0.000
5825,0.015,0.000
5826,0.010,0.010
5827,0.010,0.015
5828,0.010,0.020
5829,0.005,0.020
5830,0.005,0.030
5831,0.005,0.025
5832,0.005,0.020
5833,0.005,0.015
5834,0.005,0.015
5835,0.005,0.010
5836,0.005,0.010
5837,0.010,0.010
5838,0.010,0.010
5839,0.005,0.025
5840,0.000,0.050
5841,0.000,0.065
5842,0.000,0.070
5843,-0.005,0.075
5844,-0.010,0.070
5845,-0.010,0.060
5846,-0.010,0.060
5847,-0.010,0.060
5848,-0.010,0.060
5849,0.000,0.050
5850,0.000,0.030
5851,0.005,0.005
5852,0.010,-0.010
5853,0.015,-0.030
5854,0.020,-0.040
5855,0.020,-0.045
5856,0.025,-0.045
5857,0.025,-0.045
5858,0.025,-0.040
5859,0.025,-0.020
5860,0.005,0.020
5861,-0.050,0.115
5862,-0.145,0.235
5863,-0.215,0.305
5864,-0.225,0.265
5865,-0.170,0.135
5866,-0.090,0.000
5867,-0.015,-0.100
5868,0.030,-0.170
5869,0.050,-0.200
5870,0.060,-0.180
5871,0.055,-0.140
5872,0.055,-0.100
5873,0.050,-0.070
5874,0.050,-0.060
5875,0.045,-0.055
5876,0.045,-0.050
5877,0.045,-0.040
5878,0.045,-0.035
5879,0.040,-0.030
5880,0.035,-0.025
5881,0.035,-0.020
5882,0.035,-0.015
5883,0.035,-0.010
5884,0.035,-0.005
5885,0.035,-0.005
5886,0.030,-0.005
5887,0.030,0.000
5888,0.030,0.000
5889,0.030,0.000
5890,0.030,0.000
5891,0.030,0.000
5892,0.030,0.000
5893,0.025,0.000
5894,0.025,0.000
5895,0.025,0.000
5896,0.025,0.000
5897,0.025,-0.005
5898,0.025,-0.010
5899,0.025,-0.010
5900,0.020,-0.015
5901,0.020,-0.015
5902,0.020,-0.010
5903,0.015,-0.010
5904,0.015,-0.010
5905,0.015,-0.005
5906,0.015,0.000
5907,0.020,0.000
5908,0.015,0.010
5909,0.010,0.015
5910,0.010,0.020
5911,0.005,0.025
5912,0.005,0.025
5913,0.005,0.030
5914,0.005,0.030
5915,0.005,0.030
5916,0.005,0.030
5917,0.005,0.025
5918,0.005,0.025
5919,0.005,0.020
5920,0.005,0.020
5921,0.005,0.015
5922,0.005,0.015
5923,0.000,0.020
5924,0.000,0.040
5925,0.000,0.065
5926,0.000,0.070
5927,-0.005,0.075
5928,-0.015,0.075
5929,-0.015,0.070
5930,-0.015,0.060
5931,-0.015,0.060
5932,-0.015,0.060
5933,-0.010,0.060
5934,0.000,0.045
5935,0.000,0.025
5936,0.005,0.000
5937,0.005,-0.015
5938,0.015,-0.035
5939,0.020,-0.040
5940,0.020,-0.045
5941,0.025,-0.045
5942,0.025,-0.050
5943,0.025,-0.045
5944,0.025,-0.025
5945,0.000,0.025
5946,-0.065,0.130
5947,-0.155,0.245
5948,-0.215,0.300
5949,-0.215,0.245
5950,-0.160,0.115
5951,-0.085,-0.015
5952,-0.015,-0.115
5953,0.025,-0.175
5954,0.045,-0.195
5955,0.055,-0.170
5956,0.055,-0.135
5957,0.050,-0.095
5958,0.050,-0.070
5959,0.050,-0.060
5960,0.050,-0.050
5961,0.045,-0.040
5962,0.045,-0.030
5963,0.040,-0.030
5964,0.035,-0.030
5965,0.035,-0.030
5966,0.040,-0.025
5967,0.040,-0.020
5968,0.035,-0.010
5969,0.035,-0.005
5970,0.030,0.000
5971,0.030,0.000
5972,0.030,0.000
5973,0.030,0.000
5974,0.030,0.000
5975,0.030,0.000
5976,0.030,0.005
5977,0.025,0.000
5978,0.025,0.000
5979,0.025,0.000
5980,0.025,0.000
5981,0.025,0.000
5982,0.025,-0.005
5983,0.020,-0.010
5984,0.020,-0.010
5985,0.015,-0.015
5986,0.015,-0.010
5987,0.015,-0.005
5988,0.020,-0.005
5989,0.015,0.000
5990,0.015,0.005
5991,0.010,0.015
5992,0.010,0.020
5993,0.010,0.030
5994,0.010,0.035
5995,0.010,0.035
5996,0.010,0.035
5997,0.005,0.045
5998,0.005,0.040
5999,0.005,0.035
6000,0.010,0.030
6001,0.010,0.025
6002,0.005,0.025
6003,0.005,0.020
6004,0.005,0.015
6005,0.010,0.010
6006,0.015,0.000
6007,0.010,0.000
6008,0.010,0.000
6009,0.010,0.010
6010,0.005,0.025
6011,0.000,0.040
6012,0.000,0.050
6013,-0.005,0.055
6014,-0.005,0.050
6015,-0.005,0.040
6016,-0.010,0.040
6017,-0.010,0.050
6018,-0.015,0.055
6019,0.000,0.045
6020,0.000,0.025
6021,0.005,0.005
6022,0.010,-0.005
6023,0.015,-0.020
6024,0.015,-0.025
6025,0.020,-0.030
6026,0.025,-0.030
6027,0.020,-0.035
6028,0.020,-0.030
6029,0.020,-0.005
6030,0.000,0.040
6031,-0.070,0.140
6032,-0.160,0.250
6033,-0.215,0.300
6034,-0.215,0.240
6035,-0.160,0.105
6036,-0.080,-0.020
6037,-0.010,-0.115
6038,0.030,-0.175
6039,0.050,-0.195
6040,0.060,-0.170
6041,0.055,-0.135
6042,0.050,-0.095
6043,0.050,-0.070
6044,0.050,-0.055
6045,0.045,-0.045
6046,0.045,-0.035
6047,0.045,-0.025
6048,0.040,-0.020
6049,0.035,-0.015
6050,0.030,-0.015
6051,0.030,-0.010
6052,0.035,-0.005
6053,0.030,0.000
6054,0.030,0.000
6055,0.030,0.000
6056,0.025,0.005
6057,0.025,0.005
6058,0.025,0.010
6059,0.025,0.010
6060,0.025,0.010
6061,0.025,0.010
6062,0.025,0.005
6063,0.025,0.000
6064,0.025,0.000
6065,0.025,0.000
6066,0.030,-0.005
6067,0.025,-0.010
6068,0.025,-0.010
6069,0.025,-0.015
6070,0.025,-0.015
6071,0.025,-0.020
6072,0.025,-0.020
6073,0.025,-0.020
6074,0.025,-0.020
6075,0.025,-0.020
6076,0.025,-0.015
6077,0.030,-0.015
6078,0.030,-0.015
6079,0.025,-0.015
6080,0.025,-0.010
6081,0.025,-0.010
6082,0.025,-0.005
6083,0.025,-0.005
6084,0.020,0.000
6085,0.015,0.000
6086,0.015,0.000
6087,0.015,0.000
6088,0.015,0.000
6089,0.015,0.000
6090,0.010,0.000
6091,0.010,0.000
6092,0.005,0.000
6093,0.005,0.010
6094,0.005,0.020
6095,0.005,0.035
6096,0.005,0.050
6097,0.000,0.055
6098,0.000,0.055
6099,0.000,0.050
6100,0.000,0.040
6101,0.000,0.030
6102,0.000,0.030
6103,0.000,0.030
6104,0.000,0.025
6105,0.000,0.010
6106,0.010,0.000
6107,0.015,-0.020
6108,0.020,-0.045
6109,0.025,-0.060
6110,0.030,-0.065
6111,0.030,-0.065
6112,0.030,-0.070
6113,0.030,-0.070
6114,0.035,-0.060
6115,0.020,-0.025
6116,-0.015,0.045
6117,-0.090,0.165
6118,-0.160,0.270
6119,-0.190,0.280
6120,-0.160,0.175
6121,-0.090,0.030
6122,-0.020,-0.090
6123,0.020,-0.180
6124,0.050,-0.215
6125,0.065,-0.205
6126,0.070,-0.180
6127,0.070,-0.150
6128,0.065,-0.125
6129,0.060,-0.105
6130,0.060,-0.095
6131,0.055,-0.085
6132,0.055,-0.075
6133,0.050,-0.070
6134,0.050,-0.070
6135,0.045,-0.065
6136,0.045,-0.060
6137,0.040,-0.055
6138,0.040,-0.050
6139,0.035,-0.040
6140,0.035,-0.040
6141,0.030,-0.035
6142,0.030,-0.030
6143,0.030,-0.020
6144,0.030,-0.020
6145,0.030,-0.020
6146,0.030,-0.020
6147,0.025,-0.015
6148,0.020,-0.015
6149,0.020,-0.010
6150,0.020,-0.010
6151,0.020,-0.010
6152,0.020,-0.010
6153,0.020,-0.015
6154,0.015,-0.010
6155,0.010,-0.005
6156,0.010,0.000
6157,0.010,0.000
6158,0.010,0.000
6159,0.010,0.000
6160,0.010,0.000
6161,0.010,0.000
6162,0.005,0.005
6163,0.005,0.015
6164,0.005,0.020
6165,0.005,0.020
6166,0.005,0.020
6167,0.010,0.020
6168,0.005,0.025
6169,0.005,0.030
6170,0.005,0.030
6171,0.005,0.030
6172,0.005,0.030
6173,0.005,0.025
6174,0.005,0.020
6175,0.005,0.020
6176,0.005,0.020
6177,0.005,0.020
6178,0.005,0.025
6179,0.005,0.030
6180,0.000,0.045
6181,0.000,0.065
6182,0.000,0.075
6183,0.000,0.080
6184,-0.005,0.085
6185,-0.010,0.080
6186,-0.010,0.075
6187,-0.010,0.075
6188,-0.010,0.080
6189,-0.010,0.085
6190,-0.005,0.065
6191,0.000,0.045
6192,0.000,0.025
6193,0.005,0.000
6194,0.010,-0.005
6195,0.010,-0.010
6196,0.010,-0.015
6197,0.010,-0.015
6198,0.010,-0.015
6199,0.010,-0.010
6200,0.005,0.005
6201,-0.020,0.070
6202,-0.090,0.190
6203,-0.180,0.320
6204,-0.235,0.375
6205,-0.230,0.300
6206,-0.165,0.145
6207,-0.085,0.000
6208,-0.020,-0.095
6209,0.015,-0.155
6210,0.035,-0.170
6211,0.045,-0.145
6212,0.045,-0.110
6213,0.045,-0.070
6214,0.040,-0.045
6215,0.035,-0.035
6216,0.030,-0.030
6217,0.030,-0.020
6218,0.030,-0.015
6219,0.035,-0.015
6220,0.030,-0.010
6221,0.025,-0.005
6222,0.025,0.000
6223,0.020,0.000
6224,0.020,0.000
6225,0.015,0.005
6226,0.015,0.010
6227,0.020,0.010
6228,0.015,0.015
6229,0.015,0.025
6230,0.015,0.025
6231,0.015,0.025
6232,0.015,0.020
6233,0.015,0.020
6234,0.015,0.020
6235,0.015,0.020
6236,0.015,0.015
6237,0.010,0.015
6238,0.010,0.015
6239,0.005,0.015
6240,0.005,0.010
6241,0.005,0.010
6242,0.005,0.010
6243,0.005,0.010
6244,0.005,0.015
6245,0.005,0.020
6246,0.005,0.020
6247,0.005,0.020
6248,0.005,0.020
6249,0.005,0.030
6250,0.000,0.035
6251,0.000,0.040
6252,0.000,0.040
6253,0.000,0.040
6254,0.000,0.045
6255,0.000,0.045
6256,0.000,0.050
6257,0.000,0.045
6258,0.000,0.040
6259,0.000,0.035
6260,0.000,0.025
6261,0.000,0.020
6262,0.000,0.025
6263,0.000,0.030
6264,0.000,0.045
6265,0.000,0.060
6266,0.000,0.075
6267,-0.005,0.075
6268,-0.015,0.075
6269,-0.015,0.075
6270,-0.015,0.065
6271,-0.015,0.060
6272,-0.020,0.070
6273,-0.015,0.070
6274,-0.005,0.055
6275,0.000,0.035
6276,0.000,0.015
6277,0.005,0.000
6278,0.010,-0.020
6279,0.015,-0.025
6280,0.020,-0.030
6281,0.015,-0.035
6282,0.015,-0.035
6283,0.015,-0.030
6284,0.020,-0.015
6285,0.005,0.025
6286,-0.050,0.120
6287,-0.135,0.240
6288,-0.200,0.310
6289,-0.215,0.270
6290,-0.170,0.135
6291,-0.095,0.000
6292,-0.025,-0.100
6293,0.015,-0.160
6294,0.040,-0.185
6295,0.055,-0.175
6296,0.055,-0.140
6297,0.050,-0.095
6298,0.045,-0.065
6299,0.040,-0.050
6300,0.035,-0.035
6301,0.030,-0.025
6302,0.030,-0.015
6303,0.030,-0.005
6304,0.030,0.000
6305,0.030,0.000
6306,0.030,0.000
6307,0.030,0.005
6308,0.025,0.005
6309,0.025,0.010
6310,0.025,0.010
6311,0.025,0.010
6312,0.020,0.015
6313,0.020,0.010
6314,0.020,0.010
6315,0.020,0.010
6316,0.025,0.005
6317,0.025,0.000
6318,0.025,0.000
6319,0.025,0.000
6320,0.020,-0.005
6321,0.020,-0.005
6322,0.020,-0.010
6323,0.025,-0.015
6324,0.025,-0.015
6325,0.020,-0.015
6326,0.020,-0.015
6327,0.020,-0.015
6328,0.015,-0.010
6329,0.010,-0.005
6330,0.010,0.000
6331,0.010,0.000
6332,0.010,0.005
6333,0.010,0.015
6334,0.005,0.020
6335,0.005,0.025
6336,0.005,0.030
6337,0.005,0.030
6338,0.005,0.035
6339,0.005,0.040
6340,0.005,0.035
6341,0.005,0.035
6342,0.005,0.030
6343,0.005,0.025
6344,0.005,0.020
6345,0.005,0.020
6346,0.005,0.020
6347,0.005,0.020
6348,0.005,0.020
6349,0.000,0.025
6350,0.000,0.040
6351,0.000,0.060
6352,0.000,0.070
6353,-0.005,0.075
6354,-0.015,0.070
6355,-0.015,0.065
6356,-0.010,0.055
6357,-0.010,0.055
6358,-0.010,0.055
6359,-0.015,0.055
6360,-0.005,0.040
6361,0.000,0.025
6362,0.005,0.000
6363,0.010,-0.010
6364,0.010,-0.030
6365,0.015,-0.040
6366,0.020,-0.045
6367,0.020,-0.045
6368,0.020,-0.045
6369,0.020,-0.040
6370,0.015,-0.015
6371,-0.005,0.040
6372,-0.075,0.150
6373,-0.165,0.260
6374,-0.220,0.305
6375,-0.210,0.230
6376,-0.150,0.095
6377,-0.065,-0.030
6378,0.000,-0.125
6379,0.030,-0.175
6380,0.045,-0.185
6381,0.055,-0.160
6382,0.050,-0.115
6383,0.045,-0.075
6384,0.045,-0.050
6385,0.040,-0.035
6386,0.035,-0.025
6387,0.035,-0.020
6388,0.035,-0.010
6389,0.035,0.000
6390,0.035,0.000
6391,0.035,0.000
6392,0.030,0.000
6393,0.030,0.005
6394,0.030,0.005
6395,0.025,0.010
6396,0.025,0.010
6397,0.025,0.020
6398,0.025,0.015
6399,0.025,0.015
6400,0.025,0.015
6401,0.025,0.010
6402,0.025,0.005
6403,0.025,0.000
6404,0.025,0.000
6405,0.030,0.000
6406,0.030,-0.010
6407,0.030,-0.015
6408,0.025,-0.015
6409,0.025,-0.020
6410,0.025,-0.025
6411,0.020,-0.030
6412,0.020,-0.035
6413,0.020,-0.030
6414,0.020,-0.025
6415,0.015,-0.025
6416,0.015,-0.015
6417,0.015,0.000
6418,0.015,0.000
6419,0.015,0.005
6420,0.010,0.010
6421,0.010,0.015
6422,0.010,0.020
6423,0.005,0.025
6424,0.005,0.025
6425,0.005,0.035
6426,0.005,0.040
6427,0.005,0.040
6428,0.000,0.035
6429,0.000,0.030
6430,0.005,0.030
6431,0.005,0.030
6432,0.005,0.030
6433,0.000,0.030
6434,0.000,0.040
6435,0.000,0.060
6436,-0.005,0.075
6437,-0.005,0.090
6438,-0.010,0.090
6439,-0.015,0.090
6440,-0.020,0.085
6441,-0.020,0.075
6442,-0.020,0.075
6443,-0.020,0.075
6444,-0.010,0.070
6445,0.000,0.055
6446,0.000,0.030
6447,0.005,0.005
6448,0.010,-0.010
6449,0.015,-0.025
6450,0.020,-0.035
6451,0.020,-0.040
6452,0.020,-0.040
6453,0.020,-0.040
6454,0.020,-0.030
6455,0.020,-0.010
6456,-0.005,0.050
6457,-0.075,0.155
6458,-0.160,0.270
6459,-0.215,0.310
6460,-0.210,0.235
6461,-0.150,0.095
6462,-0.070,-0.030
6463,-0.005,-0.120
6464,0.035,-0.175
6465,0.050,-0.185
6466,0.055,-0.160
6467,0.050,-0.120
6468,0.050,-0.080
6469,0.050,-0.055
6470,0.045,-0.040
6471,0.040,-0.030
6472,0.040,-0.025
6473,0.045,-0.020
6474,0.040,-0.015
6475,0.035,-0.015
6476,0.035,-0.010
6477,0.030,0.000
6478,0.030,0.000
6479,0.030,0.005
6480,0.030,0.010
6481,0.025,0.015
6482,0.025,0.015
6483,0.030,0.010
6484,0.030,0.010
6485,0.025,0.010
6486,0.025,0.010
6487,0.020,0.010
6488,0.020,0.010
6489,0.025,0.005
6490,0.025,0.000
6491,0.030,0.000
6492,0.030,0.000
6493,0.030,-0.005
6494,0.030,-0.010
6495,0.025,-0.015
6496,0.020,-0.020
6497,0.020,-0.025
6498,0.020,-0.020
6499,0.015,-0.015
6500,0.015,-0.010
6501,0.015,-0.005
6502,0.015,0.000
6503,0.015,0.005
6504,0.015,0.015
6505,0.015,0.020
6506,0.010,0.030
6507,0.005,0.035
6508,0.005,0.040
6509,0.000,0.045
6510,0.000,0.050
6511,0.000,0.045
6512,0.005,0.045
6513,0.005,0.040
6514,0.005,0.040
6515,0.005,0.035
6516,0.005,0.035
6517,0.000,0.030
6518,0.000,0.030
6519,0.000,0.040
6520,0.000,0.060
6521,0.000,0.075
6522,-0.005,0.090
6523,-0.010,0.095
6524,-0.015,0.095
6525,-0.015,0.090
6526,-0.020,0.075
6527,-0.025,0.075
6528,-0.025,0.080
6529,-0.015,0.070
6530,-0.005,0.050
6531,0.000,0.030
6532,0.000,0.005
6533,0.010,-0.010
6534,0.020,-0.030
6535,0.025,-0.035
6536,0.025,-0.040
6537,0.020,-0.040
6538,0.020,-0.040
6539,0.025,-0.030
6540,0.020,-0.010
6541,0.000,0.040
6542,-0.075,0.145
6543,-0.160,0.260
6544,-0.220,0.310
6545,-0.215,0.250
6546,-0.160,0.120
6547,-0.080,-0.005
6548,-0.015,-0.105
6549,0.025,-0.165
6550,0.050,-0.185
6551,0.060,-0.160
6552,0.055,-0.120
6553,0.050,-0.080
6554,0.050,-0.055
6555,0.050,-0.045
6556,0.045,-0.040
6557,0.045,-0.035
6558,0.040,-0.035
6559,0.040,-0.030
6560,0.040,-0.020
6561,0.040,-0.015
6562,0.035,-0.010
6563,0.035,-0.005
6564,0.035,-0.005
6565,0.035,-0.005
6566,0.030,0.000
6567,0.030,0.000
6568,0.030,0.000
6569,0.030,0.005
6570,0.030,0.005
6571,0.030,0.005
6572,0.030,0.000
6573,0.025,0.000
6574,0.025,0.000
6575,0.025,0.000
6576,0.025,0.000
6577,0.025,0.000
6578,0.025,0.000
6579,0.025,0.000
6580,0.020,-0.005
6581,0.020,-0.010
6582,0.015,-0.010
6583,0.015,-0.010
6584,0.015,-0.010
6585,0.015,-0.005
6586,0.015,0.000
6587,0.015,0.000
6588,0.015,0.005
6589,0.010,0.010
6590,0.010,0.020
6591,0.005,0.030
6592,0.005,0.035
6593,0.005,0.035
6594,0.005,0.030
6595,0.005,0.030
6596,0.005,0.035
6597,0.005,0.030
6598,0.005,0.025
6599,0.005,0.025
6600,0.005,0.020
6601,0.005,0.020
6602,0.005,0.020
6603,0.000,0.020
6604,0.000,0.025
6605,0.000,0.045
6606,0.000,0.065
6607,0.000,0.075
6608,-0.005,0.085
6609,-0.015,0.085
6610,-0.015,0.080
6611,-0.015,0.070
6612,-0.015,0.065
6613,-0.015,0.065
6614,-0.015,0.065
6615,-0.005,0.050
6616,0.000,0.025
6617,0.005,0.005
6618,0.010,-0.010
6619,0.015,-0.030
6620,0.020,-0.035
6621,0.020,-0.040
6622,0.020,-0.040
6623,0.025,-0.040
6624,0.025,-0.035
6625,0.020,-0.015
6626,0.000,0.035
6627,-0.070,0.135
6628,-0.160,0.255
6629,-0.220,0.305
6630,-0.220,0.245
6631,-0.160,0.110
6632,-0.075,-0.015
6633,-0.010,-0.115
6634,0.030,-0.175
6635,0.050,-0.190
6636,0.060,-0.170
6637,0.055,-0.130
6638,0.050,-0.090
6639,0.045,-0.060
6640,0.045,-0.050
6641,0.045,-0.040
6642,0.045,-0.035
6643,0.040,-0.025
6644,0.035,-0.025
6645,0.035,-0.020
6646,0.035,-0.015
6647,0.035,-0.010
6648,0.035,-0.005
6649,0.035,-0.005
6650,0.035,0.000
6651,0.030,0.000
6652,0.030,0.000
6653,0.030,0.000
6654,0.030,0.000
6655,0.025,0.000
6656,0.025,0.005
6657,0.020,0.005
6658,0.020,0.005
6659,0.025,0.005
6660,0.025,0.005
6661,0.025,0.000
6662,0.025,0.000
6663,0.025,0.000
6664,0.025,0.000
6665,0.025,-0.005
6666,0.025,-0.010
6667,0.025,-0.015
6668,0.025,-0.020
6669,0.025,-0.020
6670,0.025,-0.020
6671,0.025,-0.010
6672,0.025,-0.005
6673,0.030,0.000
6674,0.025,0.000
6675,0.025,0.000
6676,0.025,0.000
6677,0.025,0.005
6678,0.025,0.010
6679,0.025,0.005
6680,0.025,0.000
6681,0.020,0.000
6682,0.020,0.000
6683,0.025,0.000
6684,0.025,0.000
6685,0.025,-0.005
6686,0.020,-0.010
6687,0.020,-0.015
6688,0.015,-0.010
6689,0.015,-0.005
6690,0.015,0.005
6691,0.010,0.025
6692,0.010,0.045
6693,0.005,0.050
6694,0.000,0.060
6695,0.000,0.060
6696,0.000,0.055
6697,0.000,0.040
6698,-0.005,0.040
6699,-0.005,0.040
6700,0.000,0.035
6701,0.005,0.015
6702,0.010,0.000
6703,0.020,-0.020
6704,0.025,-0.050
6705,0.030,-0.060
6706,0.030,-0.065
6707,0.030,-0.065
6708,0.035,-0.065
6709,0.035,-0.065
6710,0.035,-0.055
6711,0.020,-0.030
6712,-0.015,0.035
6713,-0.085,0.155
6714,-0.160,0.265
6715,-0.195,0.285
6716,-0.175,0.190
6717,-0.100,0.045
6718,-0.025,-0.080
6719,0.020,-0.165
6720,0.055,-0.205
6721,0.070,-0.200
6722,0.070,-0.170
6723,0.065,-0.130
6724,0.065,-0.105
6725,0.060,-0.085
6726,0.055,-0.075
6727,0.050,-0.065
6728,0.045,-0.060
6729,0.045,-0.050
6730,0.045,-0.050
6731,0.050,-0.050
6732,0.045,-0.050
6733,0.045,-0.050
6734,0.040,-0.050
6735,0.040,-0.050
6736,0.040,-0.050
6737,0.040,-0.045
6738,0.035,-0.040
6739,0.035,-0.040
6740,0.035,-0.035
6741,0.030,-0.035
6742,0.030,-0.035
6743,0.030,-0.035
6744,0.030,-0.035
6745,0.030,-0.040
6746,0.030,-0.040
6747,0.030,-0.045
6748,0.030,-0.040
6749,0.025,-0.035
6750,0.020,-0.035
6751,0.020,-0.025
6752,0.020,-0.025
6753,0.020,-0.025
6754,0.015,-0.025
6755,0.015,-0.015
6756,0.010,-0.010
6757,0.010,0.000
6758,0.010,0.000
6759,0.010,0.000
6760,0.005,0.005
6761,0.005,0.015
6762,0.005,0.020
6763,0.005,0.025
6764,0.005,0.030
6765,0.005,0.035
6766,0.005,0.035
6767,0.000,0.035
6768,0.000,0.035
6769,0.000,0.035
6770,0.000,0.030
6771,0.000,0.030
6772,0.000,0.030
6773,0.000,0.025
6774,0.005,0.025
6775,0.000,0.030
6776,0.000,0.045
6777,0.000,0.065
6778,0.000,0.075
6779,0.000,0.080
6780,0.000,0.090
6781,-0.005,0.090
6782,-0.005,0.080
6783,-0.010,0.080
6784,-0.015,0.080
6785,-0.015,0.080
6786,-0.010,0.070
6787,0.000,0.055
6788,0.000,0.035
6789,0.005,0.005
6790,0.010,-0.005
6791,0.015,-0.010
6792,0.015,-0.015
6793,0.015,-0.020
6794,0.015,-0.020
6795,0.015,-0.015
6796,0.020,0.000
6797,0.005,0.030
6798,-0.045,0.130
6799,-0.130,0.265
6800,-0.205,0.360
6801,-0.225,0.340
6802,-0.185,0.210
6803,-0.110,0.055
6804,-0.035,-0.065
6805,0.010,-0.140
6806,0.035,-0.165
6807,0.045,-0.155
6808,0.045,-0.120
6809,0.040,-0.075
6810,0.035,-0.045
6811,0.030,-0.020
6812,0.025,-0.005
6813,0.020,0.000
6814,0.020,0.005
6815,0.020,0.010
6816,0.020,0.015
6817,0.015,0.025
6818,0.015,0.030
6819,0.015,0.035
6820,0.015,0.040
6821,0.015,0.040
6822,0.015,0.045
6823,0.010,0.050
6824,0.010,0.045
6825,0.010,0.045
6826,0.010,0.040
6827,0.010,0.040
6828,0.015,0.040
6829,0.010,0.040
6830,0.010,0.035
6831,0.015,0.030
6832,0.010,0.030
6833,0.010,0.025
6834,0.010,0.020
6835,0.010,0.015
6836,0.015,0.010
6837,0.010,0.010
6838,0.010,0.010
6839,0.010,0.010
6840,0.005,0.010
6841,0.005,0.010
6842,0.005,0.010
6843,0.005,0.015
6844,0.005,0.020
6845,0.005,0.025
6846,0.005,0.025
6847,0.005,0.030
6848,0.005,0.035
6849,0.005,0.040
6850,0.000,0.050
6851,0.000,0.055
6852,0.000,0.060
6853,0.000,0.065
6854,0.000,0.065
6855,0.000,0.065
6856,-0.005,0.065
6857,-0.005,0.065
6858,-0.005,0.070
6859,-0.005,0.080
6860,-0.010,0.095
6861,-0.015,0.110
6862,-0.015,0.115
6863,-0.020,0.115
6864,-0.025,0.115
6865,-0.025,0.110
6866,-0.025,0.095
6867,-0.025,0.095
6868,-0.020,0.095
6869,-0.015,0.090
6870,-0.010,0.075
6871,0.000,0.055
6872,0.000,0.035
6873,0.000,0.010
6874,0.005,0.000
6875,0.010,0.000
6876,0.010,-0.005
6877,0.010,-0.010
6878,0.010,-0.015
6879,0.010,-0.010
6880,0.010,0.005
6881,-0.010,0.060
6882,-0.075,0.165
6883,-0.165,0.285
6884,-0.225,0.335
6885,-0.220,0.265
6886,-0.160,0.115
6887,-0.085,-0.010
6888,-0.015,-0.105
6889,0.020,-0.160
