'sample interval','ECG0','ECG1'
'0.0078125 sec','mV','mV'
0,-0.015,0.000
1,-0.015,-0.005
2,-0.010,-0.005
3,-0.010,-0.005
4,-0.015,-0.010
5,-0.015,0.000
6,0.045,0.000
7,0.245,-0.010
8,0.535,-0.160
9,0.680,-0.410
10,0.555,-0.485
11,0.310,-0.375
12,0.110,-0.225
13,0.010,-0.100
14,-0.020,-0.025
15,-0.035,0.000
16,-0.040,0.005
17,-0.040,0.010
18,-0.045,0.010
19,-0.040,0.015
20,-0.040,0.010
21,-0.040,0.015
22,-0.035,0.015
23,-0.035,0.010
24,-0.030,0.015
25,-0.025,0.015
26,-0.025,0.020
27,-0.025,0.020
28,-0.020,0.030
29,-0.015,0.030
30,-0.010,0.030
31,-0.005,0.030
32,0.000,0.040
33,0.000,0.040
34,0.005,0.045
35,0.010,0.055
36,0.015,0.060
37,0.020,0.060
38,0.035,0.065
39,0.045,0.070
40,0.060,0.070
41,0.070,0.075
42,0.080,0.070
43,0.080,0.070
44,0.085,0.065
45,0.085,0.065
46,0.075,0.040
47,0.065,0.040
48,0.055,0.020
49,0.035,0.020
50,0.020,0.010
51,0.010,0.010
52,0.000,0.010
53,0.000,0.005
54,-0.010,0.000
55,-0.015,0.000
56,-0.020,0.000
57,-0.025,0.000
58,-0.025,0.000
59,-0.030,0.000
60,-0.035,0.000
61,-0.035,0.000
62,-0.030,0.000
63,-0.030,0.000
64,-0.030,0.000
65,-0.030,0.000
66,-0.030,0.000
67,-0.030,0.005
68,-0.030,0.005
69,-0.030,0.000
70,-0.025,0.000
71,-0.025,0.005
72,-0.020,0.000
73,-0.020,0.000
74,-0.015,0.000
75,-0.015,0.000
76,-0.015,0.000
77,-0.015,0.000
78,-0.010,0.000
79,-0.005,0.000
80,-0.005,0.000
81,0.000,0.000
82,0.000,0.000
83,0.000,0.000
84,0.000,0.005
85,-0.005,0.010
86,-0.005,0.010
87,-0.005,0.000
88,-0.005,0.000
89,-0.005,0.000
90,-0.005,0.000
91,-0.010,-0.005
92,-0.005,-0.005
93,-0.005,-0.010
94,-0.015,0.000
95,0.000,0.000
96,0.105,0.005
97,0.350,-0.030
98,0.605,-0.225
99,0.660,-0.415
100,0.475,-0.420
101,0.230,-0.295
102,0.065,-0.150
103,-0.005,-0.065
104,-0.030,-0.020
105,-0.035,0.000
106,-0.040,0.000
107,-0.040,0.000
108,-0.040,0.000
109,-0.040,0.000
110,-0.040,0.000
111,-0.035,0.000
112,-0.035,0.000
113,-0.030,0.000
114,-0.025,0.000
115,-0.025,0.000
116,-0.020,0.000
117,-0.015,0.000
118,-0.010,0.005
119,-0.005,0.005
120,-0.005,0.005
121,0.000,0.005
122,0.000,0.010
123,0.005,0.010
124,0.010,0.020
125,0.015,0.020
126,0.020,0.030
127,0.035,0.030
128,0.045,0.040
129,0.055,0.035
130,0.065,0.040
131,0.070,0.040
132,0.080,0.040
133,0.085,0.040
134,0.090,0.035
135,0.085,0.030
136,0.075,0.020
137,0.065,0.010
138,0.045,0.010
139,0.030,0.005
140,0.015,0.000
141,0.005,0.000
142,0.000,0.000
143,-0.005,0.000
144,-0.015,-0.005
145,-0.020,0.000
146,-0.025,0.000
147,-0.030,0.000
148,-0.035,0.000
149,-0.040,0.000
150,-0.040,0.000
151,-0.040,0.000
152,-0.035,0.000
153,-0.035,0.000
154,-0.030,0.000
155,-0.030,0.000
156,-0.025,0.000
157,-0.025,0.000
158,-0.030,0.000
159,-0.030,0.000
160,-0.030,0.000
161,-0.030,0.000
162,-0.030,0.000
163,-0.030,0.000
164,-0.025,-0.005
165,-0.025,-0.005
166,-0.020,-0.005
167,-0.015,0.000
168,-0.015,0.000
169,-0.010,0.000
170,-0.005,-0.005
171,-0.005,0.000
172,0.000,0.000
173,0.000,0.000
174,0.000,0.000
175,0.000,0.005
176,-0.005,0.010
177,-0.005,0.005
178,-0.005,0.000
179,-0.005,0.000
180,-0.010,-0.005
181,-0.015,-0.005
182,-0.015,-0.005
183,-0.015,-0.010
184,-0.020,0.000
185,-0.005,0.000
186,0.080,0.005
187,0.305,-0.010
188,0.570,-0.180
189,0.650,-0.380
190,0.490,-0.405
191,0.240,-0.285
192,0.070,-0.150
193,-0.005,-0.060
194,-0.025,-0.015
195,-0.035,0.000
196,-0.040,0.000
197,-0.045,0.000
198,-0.040,0.000
199,-0.040,0.000
200,-0.040,0.000
201,-0.040,0.005
202,-0.035,0.005
203,-0.035,0.005
204,-0.030,0.005
205,-0.025,0.010
206,-0.020,0.005
207,-0.020,0.010
208,-0.015,0.010
209,-0.010,0.010
210,-0.005,0.010
211,0.000,0.015
212,0.000,0.015
213,0.000,0.025
214,0.000,0.025
215,0.005,0.025
216,0.010,0.035
217,0.020,0.040
218,0.035,0.050
219,0.045,0.050
220,0.055,0.050
221,0.065,0.055
222,0.070,0.055
223,0.075,0.050
224,0.080,0.050
225,0.075,0.040
226,0.070,0.035
227,0.055,0.025
228,0.045,0.025
229,0.030,0.015
230,0.015,0.010
231,0.005,0.005
232,0.000,0.005
233,-0.010,0.005
234,-0.020,0.000
235,-0.025,0.000
236,-0.035,0.000
237,-0.040,0.000
238,-0.040,0.000
239,-0.040,0.005
240,-0.040,0.010
241,-0.040,0.010
242,-0.040,0.010
243,-0.040,0.010
244,-0.040,0.010
245,-0.040,0.010
246,-0.040,0.015
247,-0.035,0.015
248,-0.035,0.015
249,-0.035,0.010
250,-0.030,0.020
251,-0.025,0.020
252,-0.025,0.015
253,-0.030,0.010
254,-0.030,0.010
255,-0.030,0.010
256,-0.030,0.015
257,-0.030,0.010
258,-0.030,0.010
259,-0.025,0.010
260,-0.020,0.010
261,-0.010,0.010
262,-0.005,0.020
263,0.000,0.025
264,0.000,0.025
265,0.000,0.035
266,-0.010,0.040
267,-0.015,0.040
268,-0.015,0.030
269,-0.015,0.025
270,-0.015,0.010
271,-0.015,0.010
272,-0.015,0.010
273,-0.015,0.010
274,-0.020,0.010
275,-0.025,0.020
276,-0.010,0.035
277,0.090,0.035
278,0.330,-0.010
279,0.575,-0.190
280,0.635,-0.390
281,0.460,-0.405
282,0.215,-0.265
283,0.055,-0.120
284,-0.010,-0.025
285,-0.035,0.010
286,-0.045,0.030
287,-0.050,0.035
288,-0.050,0.035
289,-0.050,0.035
290,-0.050,0.040
291,-0.045,0.035
292,-0.040,0.035
293,-0.040,0.040
294,-0.040,0.040
295,-0.035,0.050
296,-0.035,0.050
297,-0.030,0.050
298,-0.025,0.050
299,-0.025,0.050
300,-0.025,0.055
301,-0.020,0.060
302,-0.010,0.060
303,-0.005,0.065
304,0.000,0.065
305,0.000,0.070
306,0.005,0.075
307,0.010,0.085
308,0.015,0.085
309,0.025,0.095
310,0.040,0.095
311,0.050,0.100
312,0.055,0.095
313,0.065,0.095
314,0.070,0.095
315,0.075,0.085
316,0.070,0.080
317,0.060,0.070
318,0.050,0.060
319,0.035,0.050
320,0.025,0.045
321,0.015,0.035
322,0.005,0.035
323,0.000,0.030
324,-0.010,0.025
325,-0.020,0.030
326,-0.030,0.025
327,-0.035,0.020
328,-0.040,0.015
329,-0.040,0.015
330,-0.040,0.010
331,-0.040,0.020
332,-0.040,0.020
333,-0.040,0.020
334,-0.040,0.020
335,-0.040,0.020
336,-0.040,0.020
337,-0.040,0.020
338,-0.040,0.015
339,-0.040,0.020
340,-0.040,0.015
341,-0.035,0.010
342,-0.035,0.010
343,-0.035,0.010
344,-0.030,0.010
345,-0.030,0.005
346,-0.025,0.005
347,-0.025,0.005
348,-0.025,0.005
349,-0.030,0.000
350,-0.025,0.000
351,-0.020,0.005
352,-0.015,0.005
353,-0.015,0.010
354,-0.005,0.010
355,-0.005,0.015
356,-0.005,0.020
357,-0.010,0.025
358,-0.015,0.025
359,-0.015,0.015
360,-0.015,0.005
361,-0.015,0.000
362,-0.020,0.000
363,-0.015,0.000
364,-0.015,0.000
365,-0.020,0.000
366,-0.025,0.000
367,-0.005,0.005
368,0.090,0.005
369,0.320,-0.040
370,0.580,-0.220
371,0.655,-0.445
372,0.480,-0.465
373,0.225,-0.320
374,0.060,-0.165
375,-0.010,-0.055
376,-0.040,0.000
377,-0.045,0.005
378,-0.050,0.015
379,-0.050,0.015
380,-0.050,0.020
381,-0.050,0.020
382,-0.050,0.020
383,-0.045,0.020
384,-0.045,0.030
385,-0.040,0.025
386,-0.040,0.025
387,-0.040,0.030
388,-0.035,0.030
389,-0.035,0.035
390,-0.030,0.035
391,-0.025,0.035
392,-0.020,0.040
393,-0.015,0.040
394,-0.010,0.045
395,-0.005,0.050
396,0.000,0.050
397,0.005,0.055
398,0.010,0.060
399,0.015,0.060
400,0.020,0.065
401,0.030,0.070
402,0.045,0.070
403,0.055,0.070
404,0.060,0.065
405,0.065,0.065
406,0.065,0.060
407,0.065,0.050
408,0.060,0.040
409,0.050,0.030
410,0.035,0.020
411,0.020,0.015
412,0.010,0.010
413,0.005,0.005
414,0.000,0.000
415,-0.010,0.000
416,-0.020,0.000
417,-0.030,0.000
418,-0.035,0.000
419,-0.040,0.000
420,-0.040,0.000
421,-0.040,0.000
422,-0.040,0.000
423,-0.040,0.000
424,-0.040,0.000
425,-0.040,0.000
426,-0.040,0.000
427,-0.040,0.000
428,-0.040,0.000
429,-0.040,0.000
430,-0.040,0.005
431,-0.040,0.005
432,-0.040,0.000
433,-0.035,0.000
434,-0.035,0.000
435,-0.035,0.000
436,-0.035,0.000
437,-0.030,0.000
438,-0.025,0.000
439,-0.025,0.000
440,-0.025,0.000
441,-0.025,0.000
442,-0.020,0.000
443,-0.015,0.000
444,-0.010,0.005
445,-0.005,0.010
446,-0.005,0.010
447,-0.010,0.020
448,-0.015,0.025
449,-0.015,0.020
450,-0.015,0.010
451,-0.015,0.000
452,-0.015,0.000
453,-0.015,0.000
454,-0.015,0.000
455,-0.015,0.000
456,-0.020,-0.005
457,-0.025,0.000
458,0.010,0.005
459,0.150,0.000
460,0.415,-0.075
461,0.650,-0.315
462,0.635,-0.510
463,0.400,-0.445
464,0.160,-0.280
465,0.020,-0.130
466,-0.020,-0.040
467,-0.040,0.000
468,-0.050,0.010
469,-0.050,0.015
470,-0.050,0.015
471,-0.050,0.015
472,-0.050,0.015
473,-0.050,0.015
474,-0.045,0.020
475,-0.040,0.020
476,-0.040,0.020
477,-0.040,0.020
478,-0.035,0.025
479,-0.035,0.030
480,-0.030,0.030
481,-0.025,0.030
482,-0.020,0.030
483,-0.020,0.035
484,-0.010,0.035
485,-0.005,0.040
486,0.000,0.045
487,0.000,0.050
488,0.005,0.055
489,0.010,0.060
490,0.020,0.065
491,0.025,0.065
492,0.035,0.060
493,0.045,0.065
494,0.055,0.065
495,0.065,0.065
496,0.070,0.060
497,0.070,0.055
498,0.065,0.045
499,0.060,0.035
500,0.050,0.025
501,0.035,0.020
502,0.020,0.010
503,0.010,0.005
504,0.000,0.000
505,0.000,0.000
506,-0.015,0.000
507,-0.020,0.000
508,-0.030,0.000
509,-0.035,-0.005
510,-0.040,0.000
511,-0.040,0.000
512,-0.040,0.000
513,-0.040,0.000
514,-0.040,0.000
515,-0.040,0.000
516,-0.040,0.000
517,-0.040,0.000
518,-0.040,0.000
519,-0.040,0.000
520,-0.040,0.000
521,-0.040,0.000
522,-0.040,0.000
523,-0.040,0.000
524,-0.035,0.000
525,-0.035,0.000
526,-0.030,0.000
527,-0.025,0.000
528,-0.025,0.000
529,-0.030,0.000
530,-0.030,0.000
531,-0.025,0.000
532,-0.020,0.000
533,-0.015,0.000
534,-0.015,0.000
535,-0.010,0.000
536,-0.005,0.005
537,-0.005,0.005
538,-0.010,0.010
539,-0.015,0.010
540,-0.015,0.010
541,-0.015,0.000
542,-0.015,0.000
543,-0.015,0.000
544,-0.015,0.000
545,-0.015,-0.005
546,-0.015,-0.005
547,-0.020,-0.005
548,-0.025,0.000
549,0.015,0.000
550,0.165,-0.005
551,0.450,-0.085
552,0.680,-0.355
553,0.635,-0.515
554,0.380,-0.440
555,0.140,-0.265
556,0.015,-0.125
557,-0.025,-0.040
558,-0.040,-0.010
559,-0.045,0.005
560,-0.050,0.005
561,-0.050,0.010
562,-0.050,0.005
563,-0.045,0.010
564,-0.045,0.010
565,-0.040,0.010
566,-0.040,0.010
567,-0.040,0.010
568,-0.040,0.010
569,-0.035,0.015
570,-0.030,0.010
571,-0.025,0.010
572,-0.025,0.015
573,-0.020,0.015
574,-0.010,0.020
575,-0.005,0.025
576,0.000,0.030
577,0.000,0.035
578,0.005,0.045
579,0.010,0.050
580,0.015,0.055
581,0.025,0.065
582,0.035,0.065
583,0.050,0.065
584,0.060,0.065
585,0.070,0.065
586,0.075,0.065
587,0.080,0.060
588,0.080,0.050
589,0.075,0.045
590,0.065,0.030
591,0.055,0.025
592,0.040,0.015
593,0.020,0.010
594,0.010,0.000
595,0.000,0.000
596,0.000,0.000
597,-0.015,0.000
598,-0.015,0.000
599,-0.025,0.000
600,-0.030,0.000
601,-0.030,0.000
602,-0.035,0.000
603,-0.040,0.000
604,-0.040,0.000
605,-0.040,0.000
606,-0.040,0.000
607,-0.035,0.000
608,-0.035,0.000
609,-0.035,0.000
610,-0.035,0.000
611,-0.030,0.000
612,-0.025,0.000
613,-0.025,0.000
614,-0.030,0.000
615,-0.030,0.000
616,-0.030,0.000
617,-0.025,0.000
618,-0.025,0.000
619,-0.020,0.000
620,-0.020,0.000
621,-0.020,0.000
622,-0.015,0.000
623,-0.010,0.000
624,-0.005,0.000
625,-0.005,0.000
626,0.000,0.000
627,0.000,0.000
628,0.000,0.000
629,-0.005,0.005
630,-0.010,0.005
631,-0.010,0.000
632,-0.010,0.000
633,-0.010,-0.010
634,-0.015,-0.015
635,-0.015,-0.015
636,-0.015,-0.010
637,-0.015,-0.010
638,-0.015,-0.005
639,-0.010,0.000
640,0.050,0.000
641,0.270,-0.005
642,0.575,-0.150
643,0.700,-0.415
644,0.535,-0.455
645,0.275,-0.340
646,0.085,-0.180
647,0.000,-0.080
648,-0.025,-0.020
649,-0.035,0.000
650,-0.040,0.000
651,-0.040,0.000
652,-0.040,0.000
653,-0.040,0.000
654,-0.040,0.000
655,-0.040,0.000
656,-0.040,0.000
657,-0.035,0.000
658,-0.035,0.000
659,-0.030,0.005
660,-0.025,0.000
661,-0.020,0.005
662,-0.015,0.005
663,-0.015,0.005
664,-0.010,0.005
665,0.000,0.005
666,0.000,0.010
667,0.000,0.010
668,0.005,0.015
669,0.010,0.015
670,0.015,0.025
671,0.020,0.025
672,0.035,0.035
673,0.050,0.035
674,0.060,0.040
675,0.070,0.040
676,0.080,0.035
677,0.085,0.030
678,0.085,0.030
679,0.080,0.025
680,0.075,0.015
681,0.060,0.010
682,0.050,0.005
683,0.035,0.005
684,0.020,0.000
685,0.010,0.000
686,0.000,-0.005
687,0.000,0.000
688,-0.010,-0.005
689,-0.020,-0.010
690,-0.030,-0.010
691,-0.035,-0.010
692,-0.040,-0.010
693,-0.040,0.000
694,-0.040,-0.005
695,-0.040,0.000
696,-0.040,0.000
697,-0.040,0.000
698,-0.035,0.000
699,-0.035,0.000
700,-0.035,0.000
701,-0.030,0.000
702,-0.030,0.000
703,-0.030,0.000
704,-0.025,0.000
705,-0.025,0.000
706,-0.030,0.000
707,-0.030,0.000
708,-0.030,0.000
709,-0.030,0.000
710,-0.025,0.000
711,-0.025,-0.005
712,-0.020,0.000
713,-0.020,0.000
714,-0.015,0.000
715,-0.005,0.000
716,-0.005,0.000
717,0.000,0.000
718,0.000,0.000
719,0.000,0.005
720,-0.005,0.005
721,-0.015,0.005
722,-0.010,0.000
723,-0.010,0.000
724,-0.010,0.000
725,-0.015,0.000
726,-0.015,-0.005
727,-0.015,-0.005
728,-0.015,-0.005
729,-0.020,-0.005
730,-0.020,0.000
731,0.035,0.005
732,0.230,0.000
733,0.525,-0.125
734,0.670,-0.360
735,0.545,-0.430
736,0.295,-0.325
737,0.100,-0.180
738,0.005,-0.075
739,-0.025,-0.020
740,-0.035,0.000
741,-0.040,0.000
742,-0.045,0.000
743,-0.040,0.000
744,-0.040,0.000
745,-0.040,0.000
746,-0.040,0.005
747,-0.040,0.005
748,-0.040,0.005
749,-0.035,0.010
750,-0.035,0.010
751,-0.030,0.010
752,-0.020,0.010
753,-0.020,0.010
754,-0.015,0.010
755,-0.010,0.010
756,-0.005,0.015
757,0.000,0.020
758,0.000,0.025
759,0.005,0.030
760,0.010,0.035
761,0.015,0.045
762,0.020,0.045
763,0.035,0.045
764,0.045,0.055
765,0.060,0.055
766,0.070,0.055
767,0.075,0.055
768,0.080,0.060
769,0.080,0.055
770,0.080,0.055
771,0.070,0.035
772,0.060,0.030
773,0.045,0.025
774,0.030,0.025
775,0.020,0.010
776,0.010,0.010
777,0.000,0.010
778,0.000,0.010
779,-0.010,0.005
780,-0.020,0.005
781,-0.030,0.005
782,-0.035,0.005
783,-0.040,0.005
784,-0.040,0.010
785,-0.040,0.010
786,-0.040,0.010
787,-0.040,0.010
788,-0.040,0.010
789,-0.040,0.010
790,-0.040,0.010
791,-0.035,0.010
792,-0.035,0.010
793,-0.035,0.010
794,-0.035,0.015
795,-0.035,0.010
796,-0.035,0.010
797,-0.030,0.010
798,-0.025,0.010
799,-0.025,0.010
800,-0.030,0.010
801,-0.030,0.010
802,-0.030,0.015
803,-0.030,0.010
804,-0.025,0.010
805,-0.020,0.010
806,-0.015,0.010
807,-0.010,0.010
808,-0.005,0.020
809,0.000,0.020
810,0.000,0.025
811,0.000,0.030
812,-0.010,0.035
813,-0.015,0.045
814,-0.015,0.035
815,-0.015,0.025
816,-0.015,0.010
817,-0.015,0.010
818,-0.015,0.010
819,-0.015,0.020
820,-0.015,0.010
821,-0.020,0.025
822,-0.005,0.035
823,0.105,0.045
824,0.350,-0.005
825,0.595,-0.200
826,0.630,-0.385
827,0.445,-0.385
828,0.205,-0.255
829,0.050,-0.110
830,-0.010,-0.020
831,-0.035,0.015
832,-0.045,0.030
833,-0.050,0.035
834,-0.045,0.035
835,-0.045,0.035
836,-0.040,0.040
837,-0.040,0.040
838,-0.040,0.040
839,-0.040,0.045
840,-0.035,0.045
841,-0.035,0.050
842,-0.030,0.050
843,-0.025,0.050
844,-0.025,0.050
845,-0.020,0.055
846,-0.015,0.055
847,-0.010,0.055
848,-0.005,0.055
849,0.000,0.065
850,0.000,0.065
851,0.005,0.075
852,0.010,0.075
853,0.015,0.090
854,0.015,0.090
855,0.030,0.090
856,0.040,0.095
857,0.050,0.100
858,0.060,0.095
859,0.065,0.100
860,0.070,0.095
861,0.075,0.090
862,0.070,0.085
863,0.065,0.070
864,0.055,0.060
865,0.040,0.050
866,0.025,0.050
867,0.015,0.040
868,0.005,0.035
869,0.000,0.030
870,-0.005,0.030
871,-0.020,0.025
872,-0.025,0.025
873,-0.030,0.020
874,-0.035,0.020
875,-0.040,0.020
876,-0.040,0.020
877,-0.040,0.025
878,-0.040,0.020
879,-0.040,0.025
880,-0.040,0.025
881,-0.040,0.025
882,-0.040,0.025
883,-0.040,0.025
884,-0.040,0.025
885,-0.035,0.025
886,-0.035,0.025
887,-0.035,0.020
888,-0.030,0.015
889,-0.030,0.015
890,-0.025,0.010
891,-0.025,0.010
892,-0.025,0.010
893,-0.030,0.010
894,-0.025,0.010
895,-0.025,0.010
896,-0.025,0.015
897,-0.020,0.010
898,-0.015,0.015
899,-0.010,0.015
900,-0.005,0.020
901,-0.005,0.015
902,-0.005,0.025
903,-0.010,0.025
904,-0.015,0.025
905,-0.015,0.010
906,-0.015,0.000
907,-0.015,0.000
908,-0.015,0.000
909,-0.015,0.000
910,-0.020,0.000
911,-0.020,0.000
912,-0.025,0.000
913,0.010,0.005
914,0.155,0.000
915,0.415,-0.085
916,0.635,-0.305
917,0.615,-0.470
918,0.400,-0.425
919,0.170,-0.270
920,0.030,-0.125
921,-0.020,-0.035
922,-0.040,0.000
923,-0.045,0.005
924,-0.050,0.015
925,-0.050,0.015
926,-0.050,0.010
927,-0.050,0.010
928,-0.045,0.015
929,-0.045,0.015
930,-0.040,0.025
931,-0.040,0.020
932,-0.040,0.030
933,-0.035,0.030
934,-0.035,0.030
935,-0.030,0.030
936,-0.020,0.035
937,-0.020,0.035
938,-0.015,0.040
939,-0.015,0.040
940,-0.005,0.040
941,0.000,0.040
942,0.000,0.045
943,0.005,0.055
944,0.010,0.060
945,0.015,0.065
946,0.025,0.070
947,0.040,0.070
948,0.050,0.070
949,0.060,0.070
950,0.065,0.065
951,0.070,0.065
952,0.075,0.055
953,0.065,0.050
954,0.055,0.035
955,0.045,0.030
956,0.030,0.020
957,0.015,0.015
958,0.010,0.005
959,0.000,0.005
960,-0.005,0.000
961,-0.010,0.000
962,-0.020,0.000
963,-0.030,0.000
964,-0.035,0.000
965,-0.040,0.000
966,-0.040,0.000
967,-0.040,0.000
968,-0.040,0.000
969,-0.040,0.000
970,-0.040,0.000
971,-0.040,0.000
972,-0.040,0.000
973,-0.040,0.000
974,-0.040,0.000
975,-0.040,0.005
976,-0.040,0.000
977,-0.035,0.000
978,-0.035,0.000
979,-0.030,0.005
980,-0.025,0.000
981,-0.025,0.000
982,-0.025,0.000
983,-0.025,0.000
984,-0.030,0.000
985,-0.025,0.000
986,-0.025,0.000
987,-0.020,0.000
988,-0.015,0.000
989,-0.010,0.000
990,-0.005,0.005
991,-0.005,0.005
992,-0.005,0.015
993,-0.010,0.015
994,-0.015,0.020
995,-0.015,0.010
996,-0.015,0.000
997,-0.015,0.000
998,-0.015,0.000
999,-0.015,0.000
1000,-0.015,0.000
1001,-0.020,0.000
1002,-0.025,0.000
1003,0.000,0.005
1004,0.115,0.000
1005,0.365,-0.060
1006,0.610,-0.265
1007,0.650,-0.470
1008,0.460,-0.465
1009,0.210,-0.310
1010,0.050,-0.155
1011,-0.015,-0.055
1012,-0.040,-0.005
1013,-0.045,0.005
1014,-0.050,0.010
1015,-0.050,0.010
1016,-0.050,0.010
1017,-0.050,0.015
1018,-0.045,0.015
1019,-0.040,0.015
1020,-0.040,0.015
1021,-0.040,0.015
1022,-0.040,0.020
1023,-0.035,0.025
1024,-0.035,0.030
1025,-0.035,0.030
1026,-0.030,0.030
1027,-0.025,0.030
1028,-0.020,0.035
1029,-0.015,0.035
1030,-0.010,0.035
1031,-0.005,0.040
1032,0.000,0.045
1033,0.000,0.045
1034,0.010,0.055
1035,0.015,0.060
1036,0.025,0.060
1037,0.040,0.065
1038,0.050,0.065
1039,0.060,0.070
1040,0.065,0.065
1041,0.070,0.060
1042,0.075,0.050
1043,0.070,0.040
1044,0.060,0.030
1045,0.050,0.025
1046,0.035,0.015
1047,0.025,0.010
1048,0.015,0.005
1049,0.005,0.000
1050,0.000,0.000
1051,-0.010,0.000
1052,-0.020,0.000
1053,-0.025,0.000
1054,-0.035,0.000
1055,-0.040,-0.005
1056,-0.040,0.000
1057,-0.040,-0.005
1058,-0.040,0.000
1059,-0.040,0.000
1060,-0.040,0.000
1061,-0.040,0.000
1062,-0.040,0.000
1063,-0.040,0.000
1064,-0.040,0.000
1065,-0.040,0.000
1066,-0.035,0.000
1067,-0.035,0.000
1068,-0.035,0.000
1069,-0.035,0.000
1070,-0.035,0.000
1071,-0.030,0.000
1072,-0.025,0.000
1073,-0.025,0.000
1074,-0.025,0.000
1075,-0.025,0.000
1076,-0.020,0.000
1077,-0.020,0.000
1078,-0.015,0.000
1079,-0.005,0.005
1080,0.000,0.000
1081,0.000,0.005
1082,-0.010,0.010
1083,-0.015,0.010
1084,-0.015,0.010
1085,-0.015,0.005
1086,-0.015,0.000
1087,-0.015,-0.005
1088,-0.015,-0.005
1089,-0.015,-0.010
1090,-0.015,-0.010
1091,-0.020,-0.010
1092,-0.020,0.000
1093,0.015,0.000
1094,0.160,-0.005
1095,0.425,-0.100
1096,0.645,-0.325
1097,0.625,-0.495
1098,0.395,-0.435
1099,0.165,-0.275
1100,0.030,-0.140
1101,-0.015,-0.050
1102,-0.035,-0.010
1103,-0.045,0.000
1104,-0.050,0.000
1105,-0.050,0.005
1106,-0.050,0.005
1107,-0.045,0.010
1108,-0.040,0.010
1109,-0.040,0.010
1110,-0.040,0.010
1111,-0.040,0.010
1112,-0.040,0.010
1113,-0.040,0.015
1114,-0.035,0.015
1115,-0.030,0.020
1116,-0.025,0.020
1117,-0.020,0.020
1118,-0.020,0.025
1119,-0.010,0.030
1120,-0.005,0.035
1121,0.000,0.045
1122,0.000,0.050
1123,0.010,0.055
1124,0.015,0.055
1125,0.025,0.060
1126,0.035,0.065
1127,0.045,0.070
1128,0.060,0.070
1129,0.065,0.070
1130,0.070,0.070
1131,0.075,0.060
1132,0.075,0.055
1133,0.070,0.045
1134,0.065,0.035
1135,0.050,0.030
1136,0.035,0.025
1137,0.020,0.015
1138,0.010,0.010
1139,0.000,0.005
1140,0.000,0.000
1141,-0.015,0.000
1142,-0.020,0.000
1143,-0.030,0.000
1144,-0.035,0.000
1145,-0.040,0.000
1146,-0.040,0.000
1147,-0.040,0.000
1148,-0.040,0.000
1149,-0.040,0.000
1150,-0.040,0.000
1151,-0.040,0.000
1152,-0.040,0.000
1153,-0.040,0.000
1154,-0.040,0.000
1155,-0.035,0.000
1156,-0.035,0.000
1157,-0.030,0.000
1158,-0.025,0.000
1159,-0.025,0.000
1160,-0.030,0.000
1161,-0.030,0.000
1162,-0.030,0.000
1163,-0.025,0.000
1164,-0.025,0.000
1165,-0.020,0.000
1166,-0.010,0.000
1167,-0.010,0.000
1168,-0.005,0.000
1169,0.000,0.000
1170,0.000,0.000
1171,-0.005,0.005
1172,-0.010,0.010
1173,-0.010,0.010
1174,-0.010,0.005
1175,-0.010,0.000
1176,-0.010,-0.010
1177,-0.015,-0.010
1178,-0.015,-0.010
1179,-0.015,-0.010
1180,-0.020,-0.010
1181,-0.020,-0.005
1182,0.000,0.000
1183,0.110,0.000
1184,0.360,-0.055
1185,0.620,-0.245
1186,0.660,-0.440
1187,0.460,-0.430
1188,0.205,-0.280
1189,0.045,-0.145
1190,-0.010,-0.050
1191,-0.030,-0.010
1192,-0.040,0.000
1193,-0.045,0.000
1194,-0.045,0.000
1195,-0.045,0.000
1196,-0.040,0.000
1197,-0.040,0.000
1198,-0.040,0.000
1199,-0.040,0.005
1200,-0.035,0.000
1201,-0.035,0.000
1202,-0.030,0.000
1203,-0.025,0.000
1204,-0.025,0.005
1205,-0.020,0.005
1206,-0.015,0.000
1207,-0.010,0.005
1208,-0.005,0.005
1209,0.000,0.010
1210,0.000,0.010
1211,0.005,0.020
1212,0.010,0.025
1213,0.015,0.025
1214,0.025,0.030
1215,0.040,0.035
1216,0.050,0.035
1217,0.060,0.035
1218,0.070,0.040
1219,0.075,0.040
1220,0.085,0.035
1221,0.080,0.025
1222,0.075,0.020
1223,0.065,0.010
1224,0.055,0.005
1225,0.040,0.000
1226,0.025,0.000
1227,0.015,0.000
1228,0.005,0.000
1229,0.000,0.000
1230,-0.010,-0.005
1231,-0.020,-0.005
1232,-0.030,-0.005
1233,-0.035,-0.005
1234,-0.040,-0.010
1235,-0.040,-0.010
1236,-0.040,-0.010
1237,-0.040,-0.010
1238,-0.040,-0.010
1239,-0.040,0.000
1240,-0.040,-0.005
1241,-0.040,0.000
1242,-0.040,0.000
1243,-0.035,0.000
1244,-0.035,0.000
1245,-0.030,0.000
1246,-0.025,0.000
1247,-0.025,0.000
1248,-0.030,0.000
1249,-0.030,0.000
1250,-0.030,-0.005
1251,-0.030,0.000
1252,-0.030,0.000
1253,-0.025,-0.005
1254,-0.025,0.000
1255,-0.020,0.000
1256,-0.010,0.000
1257,-0.005,0.000
1258,0.000,0.000
1259,0.000,0.000
1260,0.000,0.000
1261,-0.010,0.000
1262,-0.015,0.000
1263,-0.015,0.005
1264,-0.015,0.000
1265,-0.015,-0.005
1266,-0.015,-0.015
1267,-0.020,-0.010
1268,-0.020,-0.010
1269,-0.020,-0.010
1270,-0.025,-0.005
1271,-0.010,0.000
1272,0.080,0.000
1273,0.310,-0.020
1274,0.590,-0.185
1275,0.670,-0.415
1276,0.480,-0.425
1277,0.220,-0.290
1278,0.050,-0.140
1279,-0.015,-0.050
1280,-0.035,-0.010
1281,-0.040,0.000
1282,-0.045,0.000
1283,-0.050,0.000
1284,-0.045,0.000
1285,-0.045,0.000
1286,-0.040,0.000
1287,-0.040,0.000
1288,-0.040,0.000
1289,-0.040,0.000
1290,-0.035,0.005
1291,-0.035,0.005
1292,-0.030,0.005
1293,-0.025,0.010
1294,-0.020,0.005
1295,-0.015,0.005
1296,-0.010,0.005
1297,-0.005,0.005
1298,0.000,0.010
1299,0.000,0.015
1300,0.005,0.020
1301,0.010,0.025
1302,0.015,0.030
1303,0.020,0.035
1304,0.035,0.040
1305,0.045,0.040
1306,0.055,0.045
1307,0.065,0.045
1308,0.075,0.045
1309,0.075,0.040
1310,0.075,0.035
1311,0.070,0.025
1312,0.065,0.020
1313,0.055,0.010
1314,0.040,0.010
1315,0.020,0.005
1316,0.010,0.000
1317,0.000,0.000
1318,0.000,0.000
1319,-0.015,0.000
1320,-0.020,0.000
1321,-0.030,0.000
1322,-0.035,0.000
1323,-0.035,0.000
1324,-0.040,0.000
1325,-0.040,0.000
1326,-0.040,0.000
1327,-0.040,0.000
1328,-0.040,0.000
1329,-0.040,0.005
1330,-0.040,0.010
1331,-0.040,0.010
1332,-0.035,0.010
1333,-0.035,0.020
1334,-0.030,0.010
1335,-0.030,0.005
1336,-0.030,0.000
1337,-0.025,0.000
1338,-0.025,0.000
1339,-0.025,0.000
1340,-0.030,0.000
1341,-0.030,0.000
1342,-0.025,0.000
1343,-0.020,0.000
1344,-0.020,0.005
1345,-0.015,0.005
1346,-0.005,0.010
1347,0.000,0.010
1348,0.000,0.010
1349,0.000,0.015
1350,-0.010,0.025
1351,-0.015,0.030
1352,-0.015,0.025
1353,-0.015,0.015
1354,-0.015,0.005
1355,-0.015,0.005
1356,-0.015,0.005
1357,-0.015,0.000
1358,-0.020,0.000
1359,-0.025,0.010
1360,-0.015,0.020
1361,0.050,0.025
1362,0.255,0.005
1363,0.550,-0.125
1364,0.675,-0.390
1365,0.515,-0.430
1366,0.245,-0.310
1367,0.065,-0.140
1368,-0.005,-0.045
1369,-0.030,0.005
1370,-0.040,0.020
1371,-0.045,0.025
1372,-0.050,0.030
1373,-0.050,0.035
1374,-0.050,0.035
1375,-0.045,0.035
1376,-0.040,0.040
1377,-0.040,0.040
1378,-0.040,0.040
1379,-0.040,0.045
1380,-0.035,0.050
1381,-0.030,0.050
1382,-0.025,0.050
1383,-0.020,0.050
1384,-0.020,0.050
1385,-0.015,0.045
1386,-0.010,0.050
1387,-0.005,0.055
1388,0.000,0.060
1389,0.000,0.065
1390,0.005,0.070
1391,0.010,0.075
1392,0.015,0.080
1393,0.025,0.085
1394,0.035,0.085
1395,0.050,0.095
1396,0.060,0.095
1397,0.065,0.090
1398,0.070,0.085
1399,0.075,0.085
1400,0.070,0.075
1401,0.065,0.070
1402,0.055,0.055
1403,0.040,0.050
1404,0.025,0.045
1405,0.015,0.035
1406,0.005,0.030
1407,0.000,0.030
1408,-0.010,0.030
1409,-0.015,0.030
1410,-0.025,0.030
1411,-0.030,0.025
1412,-0.035,0.025
1413,-0.040,0.020
1414,-0.040,0.025
1415,-0.040,0.025
1416,-0.040,0.030
1417,-0.040,0.030
1418,-0.040,0.030
1419,-0.040,0.030
1420,-0.040,0.030
1421,-0.040,0.025
1422,-0.035,0.025
1423,-0.035,0.025
1424,-0.030,0.025
1425,-0.030,0.030
1426,-0.030,0.025
1427,-0.030,0.015
1428,-0.030,0.010
1429,-0.030,0.010
1430,-0.030,0.010
1431,-0.025,0.010
1432,-0.020,0.015
1433,-0.015,0.015
1434,-0.015,0.015
1435,-0.010,0.015
1436,-0.005,0.020
1437,-0.005,0.020
1438,-0.010,0.030
1439,-0.015,0.030
1440,-0.015,0.035
1441,-0.015,0.015
1442,-0.015,0.005
1443,-0.015,0.000
1444,-0.015,0.000
1445,-0.015,0.000
1446,-0.015,0.000
1447,-0.020,0.000
1448,-0.020,0.005
1449,0.005,0.010
1450,0.140,0.005
1451,0.430,-0.050
1452,0.670,-0.320
1453,0.630,-0.490
1454,0.385,-0.415
1455,0.150,-0.255
1456,0.025,-0.120
1457,-0.015,-0.030
1458,-0.035,0.000
1459,-0.040,0.005
1460,-0.045,0.010
1461,-0.045,0.010
1462,-0.050,0.015
1463,-0.045,0.020
1464,-0.040,0.015
1465,-0.040,0.020
1466,-0.040,0.020
1467,-0.040,0.025
1468,-0.035,0.020
1469,-0.030,0.025
1470,-0.025,0.025
1471,-0.025,0.025
1472,-0.020,0.030
1473,-0.015,0.030
1474,-0.010,0.030
1475,-0.005,0.035
1476,0.000,0.040
1477,0.000,0.040
1478,0.005,0.050
1479,0.010,0.055
1480,0.015,0.060
1481,0.020,0.065
1482,0.035,0.070
1483,0.045,0.070
1484,0.055,0.080
1485,0.065,0.075
1486,0.070,0.070
1487,0.075,0.065
1488,0.070,0.050
1489,0.065,0.045
1490,0.060,0.035
1491,0.045,0.030
1492,0.030,0.020
1493,0.015,0.015
1494,0.010,0.010
1495,0.000,0.010
1496,0.000,0.000
1497,-0.010,0.000
1498,-0.015,0.000
1499,-0.020,0.000
1500,-0.025,0.000
1501,-0.030,0.000
1502,-0.035,0.000
1503,-0.040,0.000
1504,-0.040,0.005
1505,-0.040,0.005
1506,-0.040,0.005
1507,-0.035,0.005
1508,-0.035,0.005
1509,-0.035,0.005
1510,-0.030,0.005
1511,-0.025,0.005
1512,-0.025,0.005
1513,-0.030,0.005
1514,-0.030,0.005
1515,-0.030,0.005
1516,-0.030,0.005
1517,-0.030,0.005
1518,-0.025,0.000
1519,-0.020,0.000
1520,-0.015,0.000
1521,-0.010,0.000
1522,-0.005,0.000
1523,0.000,0.005
1524,0.000,0.005
1525,0.000,0.010
1526,-0.010,0.015
1527,-0.015,0.015
1528,-0.010,0.010
1529,-0.010,0.005
1530,-0.010,0.000
1531,-0.015,0.000
1532,-0.015,0.000
1533,-0.015,0.000
1534,-0.015,-0.005
1535,-0.020,-0.005
1536,-0.020,0.000
1537,0.005,0.000
1538,0.165,0.000
1539,0.460,-0.090
1540,0.675,-0.355
1541,0.620,-0.495
1542,0.370,-0.420
1543,0.145,-0.265
1544,0.020,-0.120
1545,-0.015,-0.040
1546,-0.035,-0.005
1547,-0.040,0.000
1548,-0.045,0.005
1549,-0.045,0.005
1550,-0.045,0.005
1551,-0.040,0.005
1552,-0.040,0.010
1553,-0.040,0.010
1554,-0.040,0.010
1555,-0.035,0.015
1556,-0.030,0.015
1557,-0.025,0.015
1558,-0.025,0.015
1559,-0.025,0.025
1560,-0.020,0.030
1561,-0.020,0.030
1562,-0.015,0.030
1563,-0.005,0.035
1564,0.000,0.040
1565,0.000,0.050
1566,0.005,0.050
1567,0.010,0.055
1568,0.015,0.060
1569,0.020,0.065
1570,0.035,0.070
1571,0.050,0.065
1572,0.060,0.075
1573,0.065,0.070
1574,0.070,0.065
1575,0.075,0.060
1576,0.070,0.055
1577,0.065,0.045
1578,0.060,0.035
1579,0.050,0.025
1580,0.035,0.015
1581,0.020,0.005
1582,0.010,0.005
1583,0.000,0.000
1584,0.000,0.000
1585,-0.010,0.000
1586,-0.015,0.000
1587,-0.025,0.000
1588,-0.030,0.000
1589,-0.035,-0.005
1590,-0.040,-0.005
1591,-0.040,0.000
1592,-0.040,0.000
1593,-0.040,0.000
1594,-0.040,0.000
1595,-0.040,0.000
1596,-0.035,0.000
1597,-0.035,0.000
1598,-0.035,0.000
1599,-0.035,0.000
1600,-0.030,0.000
1601,-0.025,0.000
1602,-0.025,0.000
1603,-0.025,0.000
1604,-0.030,0.000
1605,-0.025,0.000
1606,-0.025,0.000
1607,-0.020,0.000
1608,-0.015,0.000
1609,-0.015,0.000
1610,-0.010,0.000
1611,0.000,0.000
1612,0.000,0.000
1613,-0.005,0.005
1614,-0.015,0.010
1615,-0.015,0.010
1616,-0.010,0.005
1617,-0.010,0.000
1618,-0.015,-0.010
1619,-0.015,-0.010
1620,-0.015,-0.010
1621,-0.015,-0.010
1622,-0.015,-0.010
1623,-0.020,0.000
1624,-0.015,0.000
1625,0.055,0.000
1626,0.280,-0.010
1627,0.570,-0.185
1628,0.670,-0.445
1629,0.515,-0.475
1630,0.260,-0.355
1631,0.080,-0.195
1632,0.000,-0.085
1633,-0.025,-0.020
1634,-0.040,0.000
1635,-0.045,0.005
1636,-0.050,0.005
1637,-0.045,0.005
1638,-0.045,0.010
1639,-0.040,0.005
1640,-0.040,0.005
1641,-0.040,0.010
1642,-0.040,0.015
1643,-0.035,0.015
1644,-0.035,0.015
1645,-0.030,0.025
1646,-0.025,0.025
1647,-0.020,0.025
1648,-0.020,0.025
1649,-0.015,0.035
1650,-0.010,0.035
1651,-0.005,0.040
1652,0.000,0.040
1653,0.000,0.050
1654,0.005,0.055
1655,0.015,0.065
1656,0.020,0.065
1657,0.030,0.070
1658,0.040,0.075
1659,0.050,0.075
1660,0.060,0.075
1661,0.070,0.070
1662,0.075,0.065
1663,0.075,0.055
1664,0.075,0.055
1665,0.070,0.040
1666,0.055,0.035
1667,0.040,0.025
1668,0.025,0.025
1669,0.015,0.010
1670,0.005,0.010
1671,0.000,0.005
1672,-0.005,0.005
1673,-0.015,0.000
1674,-0.020,0.000
1675,-0.025,0.000
1676,-0.030,0.000
1677,-0.035,0.000
1678,-0.040,0.000
1679,-0.040,0.000
1680,-0.040,0.000
1681,-0.040,0.000
1682,-0.040,0.005
1683,-0.040,0.005
1684,-0.035,0.005
1685,-0.035,0.005
1686,-0.030,0.010
1687,-0.030,0.005
1688,-0.025,0.005
1689,-0.025,0.005
1690,-0.030,0.000
1691,-0.030,0.000
1692,-0.025,0.000
1693,-0.025,0.000
1694,-0.020,0.000
1695,-0.015,0.000
1696,-0.010,0.000
1697,-0.005,0.000
1698,0.000,0.010
1699,0.000,0.010
1700,0.000,0.010
1701,-0.005,0.015
1702,-0.015,0.020
1703,-0.010,0.010
1704,-0.010,0.005
1705,-0.010,0.000
1706,-0.015,0.000
1707,-0.015,0.000
1708,-0.015,0.000
1709,-0.015,0.000
1710,-0.015,0.000
1711,-0.020,0.000
1712,0.005,0.000
1713,0.155,0.005
1714,0.435,-0.065
1715,0.650,-0.305
1716,0.615,-0.445
1717,0.385,-0.395
1718,0.160,-0.250
1719,0.030,-0.120
1720,-0.015,-0.040
1721,-0.030,-0.005
1722,-0.040,0.010
1723,-0.040,0.015
1724,-0.040,0.010
1725,-0.040,0.010
1726,-0.040,0.005
1727,-0.040,0.005
1728,-0.040,0.000
1729,-0.035,0.000
1730,-0.035,0.000
1731,-0.030,0.000
1732,-0.025,0.010
1733,-0.025,0.010
1734,-0.020,0.010
1735,-0.015,0.010
1736,-0.010,0.010
1737,-0.005,0.010
1738,0.000,0.010
1739,0.000,0.010
1740,0.000,0.020
1741,0.010,0.025
1742,0.015,0.030
1743,0.020,0.030
1744,0.030,0.035
1745,0.045,0.040
1746,0.055,0.040
1747,0.065,0.045
1748,0.075,0.040
1749,0.085,0.045
1750,0.085,0.035
1751,0.085,0.035
1752,0.075,0.020
1753,0.065,0.020
1754,0.055,0.005
1755,0.035,0.005
1756,0.020,0.000
1757,0.010,0.000
1758,0.000,-0.005
1759,0.000,-0.005
1760,-0.010,-0.010
1761,-0.020,-0.010
1762,-0.025,-0.010
1763,-0.030,-0.010
1764,-0.035,-0.010
1765,-0.040,-0.005
1766,-0.040,-0.005
1767,-0.040,0.000
1768,-0.040,0.000
1769,-0.040,0.000
1770,-0.035,0.000
1771,-0.035,0.000
1772,-0.030,0.000
1773,-0.030,0.000
1774,-0.030,0.000
1775,-0.025,0.000
1776,-0.025,0.000
1777,-0.030,0.000
1778,-0.030,0.000
1779,-0.030,0.000
1780,-0.030,-0.005
1781,-0.025,0.000
1782,-0.020,-0.005
1783,-0.015,0.000
1784,-0.005,-0.005
1785,-0.005,0.000
1786,0.000,0.000
1787,0.000,0.000
1788,0.000,0.000
1789,-0.005,0.000
1790,-0.010,0.000
1791,-0.010,0.000
1792,-0.010,0.000
1793,-0.010,-0.005
1794,-0.010,-0.010
1795,-0.015,-0.010
1796,-0.015,-0.010
1797,-0.015,-0.010
1798,-0.020,-0.015
1799,-0.020,0.000
1800,0.020,0.000
1801,0.200,0.000
1802,0.490,-0.100
1803,0.660,-0.335
1804,0.565,-0.425
1805,0.320,-0.340
1806,0.115,-0.195
1807,0.005,-0.085
1808,-0.025,-0.030
1809,-0.040,-0.005
1810,-0.045,0.000
1811,-0.045,0.000
1812,-0.050,0.000
1813,-0.045,0.000
1814,-0.040,0.000
1815,-0.040,0.000
1816,-0.040,0.005
1817,-0.040,0.005
1818,-0.035,0.005
1819,-0.035,0.005
1820,-0.030,0.005
1821,-0.025,0.005
1822,-0.020,0.005
1823,-0.015,0.005
1824,-0.010,0.005
1825,-0.005,0.005
1826,0.000,0.010
1827,0.000,0.010
1828,0.000,0.020
1829,0.010,0.020
1830,0.015,0.030
1831,0.020,0.030
1832,0.030,0.035
1833,0.045,0.035
1834,0.055,0.045
1835,0.060,0.040
1836,0.065,0.045
1837,0.075,0.040
1838,0.080,0.045
1839,0.075,0.035
1840,0.070,0.030
1841,0.060,0.020
1842,0.045,0.015
1843,0.025,0.005
1844,0.015,0.000
1845,0.005,0.000
1846,0.000,0.000
1847,-0.010,0.000
1848,-0.020,0.000
1849,-0.025,0.000
1850,-0.030,0.000
1851,-0.035,0.000
1852,-0.040,0.000
1853,-0.040,0.000
1854,-0.040,0.000
1855,-0.040,0.000
1856,-0.040,0.000
1857,-0.040,0.000
1858,-0.040,0.000
1859,-0.035,0.000
1860,-0.035,0.000
1861,-0.030,0.000
1862,-0.030,0.000
1863,-0.025,0.000
1864,-0.025,0.000
1865,-0.030,0.000
1866,-0.030,0.000
1867,-0.030,0.000
1868,-0.030,0.000
1869,-0.030,0.000
1870,-0.025,0.000
1871,-0.020,0.000
1872,-0.015,0.000
1873,-0.005,0.000
1874,-0.005,0.000
1875,0.000,0.000
1876,0.000,0.000
1877,-0.005,0.005
1878,-0.005,0.005
1879,-0.010,0.015
1880,-0.015,0.010
1881,-0.010,0.005
1882,-0.010,0.005
1883,-0.015,0.010
1884,-0.015,0.010
1885,-0.015,0.000
1886,-0.015,-0.005
1887,-0.020,0.000
1888,-0.015,0.005
1889,0.050,0.020
1890,0.250,0.005
1891,0.525,-0.130
1892,0.645,-0.350
1893,0.510,-0.410
1894,0.270,-0.305
1895,0.085,-0.160
1896,0.000,-0.055
1897,-0.030,-0.005
1898,-0.040,0.010
1899,-0.045,0.015
1900,-0.050,0.020
1901,-0.050,0.025
1902,-0.050,0.025
1903,-0.045,0.030
1904,-0.040,0.030
1905,-0.040,0.030
1906,-0.040,0.030
1907,-0.035,0.035
1908,-0.030,0.035
1909,-0.025,0.045
1910,-0.025,0.040
1911,-0.020,0.050
1912,-0.015,0.045
1913,-0.010,0.055
1914,-0.005,0.055
1915,0.000,0.055
1916,0.000,0.055
1917,0.005,0.065
1918,0.010,0.070
1919,0.015,0.085
1920,0.020,0.090
1921,0.020,0.090
1922,0.035,0.095
1923,0.045,0.095
1924,0.055,0.100
1925,0.065,0.095
1926,0.070,0.095
1927,0.075,0.090
1928,0.070,0.085
1929,0.060,0.070
1930,0.050,0.065
1931,0.035,0.055
1932,0.025,0.055
1933,0.015,0.040
1934,0.000,0.040
1935,0.000,0.030
1936,-0.010,0.030
1937,-0.020,0.025
1938,-0.030,0.025
1939,-0.035,0.020
1940,-0.040,0.025
1941,-0.040,0.020
1942,-0.040,0.020
1943,-0.040,0.030
1944,-0.040,0.030
1945,-0.040,0.030
1946,-0.040,0.030
1947,-0.040,0.035
1948,-0.040,0.035
1949,-0.040,0.040
1950,-0.040,0.035
1951,-0.040,0.030
1952,-0.040,0.030
1953,-0.035,0.030
1954,-0.035,0.030
1955,-0.035,0.025
1956,-0.030,0.025
1957,-0.030,0.025
1958,-0.030,0.020
1959,-0.025,0.015
1960,-0.020,0.020
1961,-0.015,0.015
1962,-0.015,0.030
1963,-0.015,0.030
1964,-0.005,0.030
1965,-0.005,0.030
1966,-0.010,0.040
1967,-0.015,0.035
1968,-0.015,0.035
1969,-0.015,0.025
1970,-0.015,0.015
1971,-0.015,0.005
1972,-0.015,0.005
1973,-0.015,0.000
1974,-0.015,0.000
1975,-0.020,0.000
1976,-0.025,0.010
1977,0.005,0.015
1978,0.150,0.005
1979,0.415,-0.075
1980,0.625,-0.300
1981,0.600,-0.450
1982,0.385,-0.405
1983,0.160,-0.260
1984,0.030,-0.125
1985,-0.020,-0.035
1986,-0.035,0.000
1987,-0.045,0.005
1988,-0.050,0.010
1989,-0.050,0.010
1990,-0.050,0.010
1991,-0.045,0.010
1992,-0.040,0.015
1993,-0.040,0.015
1994,-0.040,0.020
1995,-0.040,0.020
1996,-0.035,0.025
1997,-0.035,0.025
1998,-0.030,0.025
1999,-0.025,0.025
2000,-0.020,0.030
2001,-0.020,0.030
2002,-0.015,0.035
2003,-0.005,0.035
2004,0.000,0.035
2005,0.000,0.045
2006,0.000,0.045
2007,0.005,0.050
2008,0.010,0.055
2009,0.020,0.060
2010,0.030,0.060
2011,0.040,0.065
2012,0.050,0.065
2013,0.060,0.070
2014,0.065,0.065
2015,0.070,0.065
2016,0.070,0.055
2017,0.065,0.050
2018,0.055,0.035
2019,0.040,0.030
2020,0.030,0.020
2021,0.015,0.010
2022,0.005,0.005
2023,0.000,0.005
2024,-0.005,0.000
2025,-0.015,0.000
2026,-0.025,0.000
2027,-0.030,0.000
2028,-0.035,0.000
2029,-0.040,0.000
2030,-0.040,0.000
2031,-0.040,0.000
2032,-0.040,0.000
2033,-0.040,0.000
2034,-0.040,0.000
2035,-0.040,0.000
2036,-0.040,0.000
2037,-0.040,0.000
2038,-0.040,0.000
2039,-0.040,0.000
2040,-0.035,0.000
2041,-0.035,0.000
2042,-0.030,0.000
2043,-0.030,0.000
2044,-0.030,0.000
2045,-0.025,0.000
2046,-0.025,0.000
2047,-0.025,0.000
2048,-0.025,0.000
2049,-0.020,0.000
2050,-0.015,0.000
2051,-0.005,0.000
2052,0.000,0.000
2053,0.000,0.005
2054,-0.005,0.010
2055,-0.010,0.015
2056,-0.015,0.010
2057,-0.015,0.000
2058,-0.015,0.000
2059,-0.015,-0.005
2060,-0.015,0.000
2061,-0.015,-0.010
2062,-0.020,-0.010
2063,-0.025,-0.010
2064,-0.025,-0.005
2065,0.020,0.000
2066,0.180,0.000
2067,0.450,-0.110
2068,0.645,-0.340
2069,0.595,-0.480
2070,0.365,-0.415
2071,0.145,-0.265
2072,0.020,-0.125
2073,-0.020,-0.040
2074,-0.035,0.000
2075,-0.045,0.005
2076,-0.050,0.005
2077,-0.050,0.005
2078,-0.050,0.010
2079,-0.045,0.010
2080,-0.040,0.010
2081,-0.040,0.010
2082,-0.040,0.010
2083,-0.035,0.015
2084,-0.035,0.015
2085,-0.030,0.015
2086,-0.025,0.025
2087,-0.020,0.020
2088,-0.015,0.030
2089,-0.015,0.025
2090,-0.010,0.030
2091,-0.010,0.025
2092,-0.005,0.035
2093,0.000,0.035
2094,0.000,0.045
2095,0.005,0.050
2096,0.010,0.055
2097,0.020,0.060
2098,0.035,0.065
2099,0.045,0.065
2100,0.055,0.065
2101,0.065,0.065
2102,0.070,0.065
2103,0.075,0.060
2104,0.075,0.050
2105,0.065,0.040
2106,0.055,0.030
2107,0.045,0.025
2108,0.030,0.015
2109,0.015,0.010
2110,0.005,0.000
2111,0.000,0.000
2112,-0.005,0.000
2113,-0.015,0.000
2114,-0.020,0.000
2115,-0.030,-0.005
2116,-0.035,0.000
2117,-0.040,0.000
2118,-0.040,0.000
2119,-0.040,0.000
2120,-0.040,0.000
2121,-0.040,0.000
2122,-0.040,0.000
2123,-0.040,0.000
2124,-0.040,0.000
2125,-0.035,0.000
2126,-0.035,0.000
2127,-0.035,0.000
2128,-0.030,0.000
2129,-0.025,0.000
2130,-0.025,0.000
2131,-0.030,0.000
2132,-0.030,0.000
2133,-0.030,0.000
2134,-0.030,0.000
2135,-0.025,0.000
2136,-0.020,0.000
2137,-0.015,0.000
2138,-0.015,0.000
2139,-0.005,0.000
2140,0.000,0.000
2141,0.000,0.010
2142,-0.010,0.015
2143,-0.015,0.015
2144,-0.015,0.005
2145,-0.015,0.000
2146,-0.015,0.000
2147,-0.015,-0.005
2148,-0.015,-0.005
2149,-0.015,-0.005
2150,-0.015,-0.005
2151,-0.025,0.000
2152,-0.010,0.000
2153,0.070,0.000
2154,0.280,-0.025
2155,0.550,-0.190
2156,0.660,-0.420
2157,0.520,-0.480
2158,0.275,-0.365
2159,0.085,-0.205
2160,-0.005,-0.090
2161,-0.035,-0.025
2162,-0.045,0.000
2163,-0.050,0.005
2164,-0.050,0.005
2165,-0.050,0.005
2166,-0.050,0.005
2167,-0.050,0.005
2168,-0.045,0.005
2169,-0.040,0.010
2170,-0.040,0.010
2171,-0.035,0.015
2172,-0.035,0.010
2173,-0.030,0.020
2174,-0.025,0.015
2175,-0.025,0.025
2176,-0.025,0.025
2177,-0.020,0.025
2178,-0.015,0.030
2179,-0.010,0.035
2180,-0.005,0.040
2181,0.000,0.045
2182,0.000,0.050
2183,0.010,0.055
2184,0.015,0.060
2185,0.025,0.065
2186,0.040,0.070
2187,0.050,0.070
2188,0.055,0.070
2189,0.065,0.065
2190,0.070,0.065
2191,0.075,0.060
2192,0.070,0.050
2193,0.060,0.040
2194,0.050,0.035
2195,0.035,0.025
2196,0.020,0.020
2197,0.010,0.010
2198,0.005,0.010
2199,0.000,0.005
2200,-0.005,0.005
2201,-0.015,0.000
2202,-0.025,0.000
2203,-0.030,0.000
2204,-0.035,0.000
2205,-0.040,0.000
2206,-0.040,0.000
2207,-0.040,0.000
2208,-0.040,0.000
2209,-0.040,0.000
2210,-0.040,0.000
2211,-0.040,0.000
2212,-0.040,0.000
2213,-0.035,0.000
2214,-0.035,0.005
2215,-0.030,0.005
2216,-0.030,0.000
2217,-0.025,0.000
2218,-0.025,0.005
2219,-0.025,0.000
2220,-0.030,0.005
2221,-0.030,0.000
2222,-0.025,0.000
2223,-0.020,0.005
2224,-0.020,0.005
2225,-0.015,0.005
2226,-0.005,0.010
2227,0.000,0.010
2228,0.000,0.015
2229,-0.005,0.020
2230,-0.010,0.025
2231,-0.015,0.015
2232,-0.015,0.010
2233,-0.015,0.000
2234,-0.015,0.000
2235,-0.015,0.000
2236,-0.015,0.000
2237,-0.015,0.000
2238,-0.020,-0.005
2239,-0.015,0.000
2240,0.025,0.000
2241,0.175,0.000
2242,0.440,-0.095
2243,0.635,-0.315
2244,0.600,-0.455
2245,0.375,-0.405
2246,0.155,-0.255
2247,0.025,-0.120
2248,-0.015,-0.035
2249,-0.035,-0.005
2250,-0.040,0.000
2251,-0.045,0.000
2252,-0.045,0.010
2253,-0.040,0.010
2254,-0.040,0.010
2255,-0.040,0.010
2256,-0.040,0.020
2257,-0.040,0.030
2258,-0.035,0.030
2259,-0.030,0.030
2260,-0.025,0.030
2261,-0.025,0.030
2262,-0.025,0.030
2263,-0.020,0.030
2264,-0.015,0.025
2265,-0.010,0.025
2266,-0.005,0.025
2267,0.000,0.030
2268,0.000,0.025
2269,0.005,0.035
2270,0.010,0.035
2271,0.015,0.045
2272,0.030,0.050
2273,0.040,0.055
2274,0.050,0.055
2275,0.060,0.055
2276,0.070,0.055
2277,0.075,0.055
2278,0.080,0.045
2279,0.080,0.040
2280,0.070,0.030
2281,0.060,0.025
2282,0.045,0.015
2283,0.030,0.005
2284,0.020,0.000
2285,0.010,0.000
2286,0.000,0.000
2287,-0.005,0.000
2288,-0.015,0.000
2289,-0.020,-0.005
2290,-0.030,-0.010
2291,-0.035,-0.010
2292,-0.040,-0.010
2293,-0.040,-0.010
2294,-0.040,-0.005
2295,-0.040,-0.005
2296,-0.040,-0.005
2297,-0.035,0.000
2298,-0.035,0.000
2299,-0.035,0.000
2300,-0.035,0.000
2301,-0.030,0.000
2302,-0.025,0.000
2303,-0.025,0.000
2304,-0.025,0.000
2305,-0.025,0.000
2306,-0.030,0.000
2307,-0.030,0.000
2308,-0.030,0.000
2309,-0.025,0.000
2310,-0.020,0.000
2311,-0.015,0.000
2312,-0.010,-0.005
2313,-0.005,-0.005
2314,0.000,0.000
2315,0.000,0.000
2316,0.000,0.000
2317,0.000,0.000
2318,-0.005,0.000
2319,-0.005,0.000
2320,-0.005,0.000
2321,-0.010,-0.005
2322,-0.015,-0.010
2323,-0.015,-0.015
2324,-0.015,-0.010
2325,-0.015,-0.015
2326,-0.020,-0.010
2327,-0.015,0.000
2328,0.045,0.000
2329,0.235,-0.010
2330,0.505,-0.130
2331,0.655,-0.340
2332,0.550,-0.430
2333,0.300,-0.335
2334,0.100,-0.190
2335,0.000,-0.085
2336,-0.025,-0.035
2337,-0.035,-0.010
2338,-0.045,0.000
2339,-0.045,0.000
2340,-0.045,0.000
2341,-0.040,0.000
2342,-0.040,0.000
2343,-0.040,0.000
2344,-0.040,0.000
2345,-0.035,0.000
2346,-0.030,0.005
2347,-0.030,0.005
2348,-0.025,0.005
2349,-0.025,0.000
2350,-0.020,0.005
2351,-0.015,0.005
2352,-0.010,0.005
2353,-0.005,0.005
2354,0.000,0.010
2355,0.000,0.010
2356,0.005,0.025
2357,0.010,0.025
2358,0.010,0.030
2359,0.020,0.035
2360,0.030,0.035
2361,0.040,0.040
2362,0.055,0.040
2363,0.065,0.040
2364,0.070,0.040
2365,0.075,0.040
2366,0.075,0.035
2367,0.070,0.030
2368,0.065,0.025
2369,0.055,0.015
2370,0.040,0.010
2371,0.025,0.005
2372,0.015,0.005
2373,0.005,0.000
2374,0.000,0.000
2375,-0.010,0.000
2376,-0.020,0.000
2377,-0.030,0.000
2378,-0.035,0.000
2379,-0.040,0.000
2380,-0.040,0.000
2381,-0.040,0.000
2382,-0.040,0.000
2383,-0.040,0.000
2384,-0.040,0.000
2385,-0.040,0.000
2386,-0.040,0.000
2387,-0.040,0.000
2388,-0.040,0.005
2389,-0.035,0.000
2390,-0.035,0.000
2391,-0.035,0.000
2392,-0.035,0.005
2393,-0.030,0.005
2394,-0.030,0.005
2395,-0.025,0.005
2396,-0.025,0.000
2397,-0.030,0.000
2398,-0.025,0.000
2399,-0.020,0.005
2400,-0.020,0.000
2401,-0.010,0.000
2402,-0.005,0.000
2403,0.000,0.005
2404,0.000,0.005
2405,-0.005,0.010
2406,-0.010,0.015
2407,-0.015,0.020
2408,-0.015,0.010
2409,-0.015,0.000
2410,-0.015,0.000
2411,-0.020,0.000
2412,-0.020,0.000
2413,-0.020,0.000
2414,-0.020,0.000
2415,-0.025,0.000
2416,0.010,0.010
2417,0.155,0.010
2418,0.420,-0.065
2419,0.630,-0.270
2420,0.600,-0.420
2421,0.365,-0.355
2422,0.135,-0.205
2423,0.010,-0.085
2424,-0.025,-0.025
2425,-0.040,0.000
2426,-0.045,0.000
2427,-0.050,0.005
2428,-0.050,0.000
2429,-0.050,0.010
2430,-0.045,0.010
2431,-0.040,0.010
2432,-0.040,0.010
2433,-0.040,0.030
2434,-0.040,0.030
2435,-0.035,0.020
2436,-0.035,0.015
2437,-0.030,0.020
2438,-0.025,0.025
2439,-0.020,0.025
2440,-0.020,0.030
2441,-0.015,0.030
2442,-0.005,0.035
2443,0.000,0.035
2444,0.000,0.045
2445,0.000,0.055
2446,0.010,0.055
2447,0.015,0.060
2448,0.020,0.070
2449,0.030,0.080
2450,0.045,0.080
2451,0.055,0.085
2452,0.060,0.085
2453,0.065,0.080
2454,0.070,0.075
2455,0.070,0.070
2456,0.065,0.065
2457,0.055,0.055
2458,0.040,0.050
2459,0.025,0.045
2460,0.015,0.035
2461,0.005,0.030
2462,0.000,0.030
2463,-0.010,0.030
2464,-0.020,0.025
2465,-0.030,0.025
2466,-0.035,0.025
2467,-0.040,0.030
2468,-0.040,0.030
2469,-0.040,0.030
2470,-0.045,0.030
2471,-0.045,0.030
2472,-0.040,0.035
2473,-0.040,0.040
2474,-0.040,0.035
2475,-0.040,0.035
2476,-0.040,0.035
2477,-0.040,0.035
2478,-0.040,0.040
2479,-0.040,0.035
2480,-0.040,0.035
2481,-0.040,0.030
2482,-0.040,0.030
2483,-0.040,0.030
2484,-0.040,0.030
2485,-0.035,0.025
2486,-0.030,0.025
2487,-0.025,0.030
2488,-0.020,0.030
2489,-0.015,0.030
2490,-0.010,0.035
2491,-0.005,0.035
2492,-0.005,0.035
2493,-0.010,0.045
2494,-0.015,0.050
2495,-0.015,0.050
2496,-0.015,0.040
2497,-0.015,0.030
2498,-0.020,0.025
2499,-0.025,0.025
2500,-0.020,0.020
2501,-0.020,0.020
2502,-0.020,0.025
2503,-0.025,0.030
2504,0.005,0.040
2505,0.130,0.030
2506,0.380,-0.030
2507,0.620,-0.240
2508,0.620,-0.430
2509,0.400,-0.395
2510,0.165,-0.235
2511,0.025,-0.100
2512,-0.020,-0.015
2513,-0.040,0.010
2514,-0.050,0.030
2515,-0.050,0.035
2516,-0.050,0.040
2517,-0.050,0.040
2518,-0.050,0.040
2519,-0.050,0.040
2520,-0.045,0.045
2521,-0.040,0.045
2522,-0.040,0.045
2523,-0.040,0.045
2524,-0.035,0.050
2525,-0.035,0.050
2526,-0.030,0.050
2527,-0.025,0.050
2528,-0.020,0.050
2529,-0.015,0.055
2530,-0.010,0.055
2531,-0.005,0.065
2532,0.000,0.060
2533,0.000,0.065
2534,0.005,0.070
2535,0.010,0.075
2536,0.020,0.080
2537,0.030,0.085
2538,0.045,0.090
2539,0.050,0.090
2540,0.060,0.085
2541,0.065,0.080
2542,0.070,0.075
2543,0.070,0.060
2544,0.065,0.050
2545,0.055,0.045
2546,0.045,0.035
2547,0.030,0.030
2548,0.015,0.025
2549,0.005,0.020
2550,0.000,0.010
2551,-0.005,0.005
2552,-0.015,0.005
2553,-0.025,0.005
2554,-0.030,0.005
2555,-0.035,0.000
2556,-0.040,0.000
2557,-0.040,0.000
2558,-0.040,0.000
2559,-0.040,0.005
2560,-0.040,0.005
2561,-0.040,0.005
2562,-0.040,0.010
2563,-0.040,0.010
2564,-0.040,0.010
2565,-0.040,0.010
2566,-0.040,0.010
2567,-0.040,0.010
2568,-0.035,0.010
2569,-0.035,0.010
2570,-0.030,0.010
2571,-0.030,0.005
2572,-0.030,0.005
2573,-0.025,0.000
2574,-0.025,0.000
2575,-0.020,0.005
2576,-0.020,0.005
2577,-0.015,0.005
2578,-0.005,0.010
2579,-0.005,0.005
2580,-0.005,0.015
2581,-0.010,0.020
2582,-0.015,0.020
2583,-0.015,0.020
2584,-0.015,0.010
2585,-0.015,0.000
2586,-0.015,0.000
2587,-0.015,0.000
2588,-0.015,0.000
2589,-0.015,0.000
2590,-0.025,0.000
2591,-0.020,0.005
2592,0.035,0.010
2593,0.205,0.000
2594,0.480,-0.110
2595,0.670,-0.365
2596,0.585,-0.490
2597,0.325,-0.390
2598,0.115,-0.225
2599,0.005,-0.095
2600,-0.030,-0.015
2601,-0.045,0.000
2602,-0.050,0.010
2603,-0.050,0.010
2604,-0.050,0.010
2605,-0.050,0.010
2606,-0.050,0.010
2607,-0.050,0.015
2608,-0.045,0.020
2609,-0.040,0.015
2610,-0.040,0.025
2611,-0.035,0.020
2612,-0.035,0.025
2613,-0.030,0.030
2614,-0.025,0.035
2615,-0.025,0.030
2616,-0.020,0.035
2617,-0.015,0.035
2618,-0.010,0.035
2619,-0.005,0.040
2620,0.000,0.045
2621,0.000,0.055
2622,0.010,0.060
2623,0.015,0.060
2624,0.025,0.065
2625,0.030,0.070
2626,0.040,0.070
2627,0.050,0.070
2628,0.060,0.070
2629,0.070,0.070
2630,0.070,0.060
2631,0.070,0.055
2632,0.065,0.045
2633,0.055,0.035
2634,0.040,0.025
2635,0.025,0.015
2636,0.015,0.015
2637,0.005,0.005
2638,0.000,0.000
2639,-0.010,0.000
2640,-0.020,0.000
2641,-0.030,0.000
2642,-0.035,0.000
2643,-0.040,0.000
2644,-0.040,0.000
2645,-0.040,0.000
2646,-0.040,0.000
2647,-0.040,0.000
2648,-0.040,0.000
2649,-0.040,0.000
2650,-0.040,0.000
2651,-0.040,0.000
2652,-0.040,0.000
2653,-0.040,0.005
2654,-0.040,0.000
2655,-0.035,0.000
2656,-0.035,0.000
2657,-0.030,0.000
2658,-0.030,0.000
2659,-0.025,0.000
2660,-0.025,0.000
2661,-0.025,0.000
2662,-0.020,0.000
2663,-0.015,0.000
2664,-0.015,0.000
2665,-0.010,0.000
2666,-0.005,0.000
2667,-0.005,0.000
2668,-0.010,0.010
2669,-0.015,0.010
2670,-0.015,0.010
2671,-0.015,0.000
2672,-0.015,0.000
2673,-0.015,-0.010
2674,-0.020,-0.010
2675,-0.020,-0.010
2676,-0.020,-0.015
2677,-0.020,-0.010
2678,-0.020,-0.005
2679,0.010,0.000
2680,0.155,-0.005
2681,0.425,-0.075
2682,0.655,-0.330
2683,0.625,-0.495
2684,0.380,-0.435
2685,0.145,-0.265
2686,0.015,-0.130
2687,-0.025,-0.035
2688,-0.045,-0.005
2689,-0.045,0.000
2690,-0.050,0.005
2691,-0.050,0.005
2692,-0.050,0.010
2693,-0.050,0.010
2694,-0.045,0.010
2695,-0.040,0.010
2696,-0.040,0.010
2697,-0.040,0.010
2698,-0.040,0.015
2699,-0.035,0.020
2700,-0.035,0.020
2701,-0.030,0.025
2702,-0.025,0.025
2703,-0.020,0.030
2704,-0.015,0.030
2705,-0.010,0.035
2706,-0.005,0.040
2707,0.000,0.045
2708,0.000,0.050
2709,0.005,0.055
2710,0.010,0.060
2711,0.015,0.070
2712,0.025,0.070
2713,0.040,0.075
2714,0.050,0.070
2715,0.060,0.075
2716,0.065,0.070
2717,0.070,0.065
2718,0.065,0.050
2719,0.060,0.045
2720,0.055,0.030
2721,0.040,0.025
2722,0.025,0.020
2723,0.015,0.015
2724,0.005,0.005
2725,0.000,0.000
2726,-0.010,0.000
2727,-0.020,0.000
2728,-0.030,0.000
2729,-0.035,0.000
2730,-0.040,0.000
2731,-0.040,0.000
2732,-0.040,0.000
2733,-0.040,0.000
2734,-0.040,0.000
2735,-0.040,0.000
2736,-0.040,0.000
2737,-0.040,0.000
2738,-0.040,0.000
2739,-0.040,0.000
2740,-0.040,0.000
2741,-0.040,0.000
2742,-0.040,0.000
2743,-0.040,0.000
2744,-0.035,0.000
2745,-0.035,0.000
2746,-0.030,0.000
2747,-0.025,0.000
2748,-0.025,0.000
2749,-0.025,0.000
2750,-0.020,0.000
2751,-0.015,0.000
2752,-0.010,0.000
2753,-0.005,0.000
2754,-0.005,0.005
2755,-0.005,0.010
2756,-0.015,0.015
2757,-0.015,0.015
2758,-0.015,0.005
2759,-0.015,0.000
2760,-0.015,0.000
2761,-0.015,-0.005
2762,-0.015,0.000
2763,-0.015,-0.010
2764,-0.015,-0.005
2765,-0.020,-0.010
2766,-0.005,0.000
2767,0.080,0.000
2768,0.310,-0.025
2769,0.595,-0.215
2770,0.680,-0.455
2771,0.485,-0.465
2772,0.220,-0.325
2773,0.050,-0.165
2774,-0.010,-0.060
2775,-0.035,-0.010
2776,-0.040,0.000
2777,-0.045,0.005
2778,-0.050,0.005
2779,-0.050,0.005
2780,-0.050,0.010
2781,-0.045,0.010
2782,-0.040,0.010
2783,-0.040,0.010
2784,-0.040,0.010
2785,-0.040,0.010
2786,-0.035,0.010
2787,-0.035,0.015
2788,-0.025,0.010
2789,-0.025,0.010
2790,-0.020,0.010
2791,-0.015,0.015
2792,-0.010,0.020
2793,-0.005,0.025
2794,0.000,0.030
2795,0.000,0.030
2796,0.005,0.040
2797,0.015,0.040
2798,0.020,0.050
2799,0.030,0.050
2800,0.045,0.055
2801,0.055,0.055
2802,0.060,0.060
2803,0.070,0.055
2804,0.075,0.050
2805,0.075,0.045
2806,0.070,0.040
2807,0.060,0.035
2808,0.050,0.025
2809,0.035,0.020
2810,0.020,0.005
2811,0.010,0.000
2812,0.000,0.000
2813,-0.005,0.000
2814,-0.015,0.000
2815,-0.025,0.000
2816,-0.030,-0.010
2817,-0.030,0.000
2818,-0.035,-0.005
2819,-0.040,-0.005
2820,-0.040,-0.005
2821,-0.040,0.000
2822,-0.040,-0.005
2823,-0.040,-0.005
2824,-0.040,-0.005
2825,-0.040,0.000
2826,-0.040,0.000
2827,-0.040,0.000
2828,-0.035,0.000
2829,-0.035,0.000
2830,-0.030,0.000
2831,-0.025,0.000
2832,-0.025,0.000
2833,-0.030,0.000
2834,-0.030,0.000
2835,-0.030,0.000
2836,-0.025,0.000
2837,-0.020,0.000
2838,-0.015,-0.005
2839,-0.015,-0.005
2840,-0.010,-0.005
2841,0.000,0.000
2842,0.000,0.000
2843,-0.005,0.000
2844,-0.010,0.000
2845,-0.005,0.000
2846,-0.005,0.000
2847,-0.005,0.000
2848,-0.010,-0.010
2849,-0.015,-0.010
2850,-0.015,-0.015
2851,-0.015,-0.015
2852,-0.020,-0.015
2853,-0.020,-0.005
2854,0.005,0.000
2855,0.140,0.000
2856,0.425,-0.055
2857,0.665,-0.295
2858,0.640,-0.460
2859,0.385,-0.395
2860,0.145,-0.240
2861,0.020,-0.115
2862,-0.020,-0.050
2863,-0.035,-0.020
2864,-0.045,0.000
2865,-0.050,-0.005
2866,-0.050,0.000
2867,-0.050,0.000
2868,-0.045,0.000
2869,-0.040,0.000
2870,-0.040,0.000
2871,-0.040,0.000
2872,-0.035,0.000
2873,-0.035,0.000
2874,-0.030,0.000
2875,-0.025,0.000
2876,-0.025,0.000
2877,-0.020,0.000
2878,-0.010,0.005
2879,-0.005,0.005
2880,-0.005,0.005
2881,0.000,0.005
2882,0.000,0.010
2883,0.005,0.010
2884,0.010,0.020
2885,0.015,0.020
2886,0.030,0.030
2887,0.040,0.035
2888,0.050,0.045
2889,0.065,0.040
2890,0.070,0.045
2891,0.080,0.040
2892,0.080,0.045
2893,0.075,0.035
2894,0.070,0.030
2895,0.060,0.015
2896,0.045,0.010
2897,0.030,0.010
2898,0.010,0.005
2899,0.005,0.000
2900,0.000,0.000
2901,-0.010,0.000
2902,-0.015,0.000
2903,-0.025,0.000
2904,-0.030,0.000
2905,-0.035,0.000
2906,-0.040,0.000
2907,-0.040,0.000
2908,-0.040,0.000
2909,-0.040,0.000
2910,-0.040,0.000
2911,-0.040,0.000
2912,-0.040,0.000
2913,-0.040,0.000
2914,-0.040,0.000
2915,-0.035,0.000
2916,-0.035,0.000
2917,-0.030,0.000
2918,-0.025,0.000
2919,-0.025,0.000
2920,-0.030,0.000
2921,-0.030,0.000
2922,-0.030,0.000
2923,-0.030,0.000
2924,-0.025,0.000
2925,-0.020,0.000
2926,-0.015,0.000
2927,-0.010,0.000
2928,-0.005,0.000
2929,0.000,0.000
2930,0.000,0.000
2931,0.000,0.000
2932,-0.005,0.005
2933,-0.005,0.010
2934,-0.005,0.010
2935,-0.005,0.005
2936,-0.005,0.000
2937,-0.010,0.000
2938,-0.015,0.000
2939,-0.015,0.000
2940,-0.015,0.000
2941,-0.020,0.000
2942,-0.015,0.005
2943,0.030,0.010
2944,0.230,0.010
2945,0.535,-0.100
2946,0.685,-0.365
2947,0.545,-0.420
2948,0.280,-0.315
2949,0.085,-0.160
2950,0.000,-0.070
2951,-0.030,-0.015
2952,-0.040,0.000
2953,-0.045,0.000
2954,-0.050,0.000
2955,-0.045,0.000
2956,-0.040,0.005
2957,-0.040,0.005
2958,-0.040,0.005
2959,-0.040,0.005
2960,-0.040,0.005
2961,-0.035,0.005
2962,-0.035,0.010
2963,-0.030,0.010
2964,-0.025,0.015
2965,-0.020,0.015
2966,-0.020,0.015
2967,-0.015,0.020
2968,-0.005,0.025
2969,0.000,0.030
2970,0.000,0.030
2971,0.005,0.025
2972,0.010,0.015
2973,0.015,0.030
2974,0.020,0.035
2975,0.030,0.045
2976,0.040,0.045
2977,0.055,0.055
2978,0.065,0.055
2979,0.070,0.055
2980,0.075,0.055
2981,0.075,0.050
2982,0.070,0.045
2983,0.060,0.040
2984,0.050,0.035
2985,0.035,0.025
2986,0.020,0.020
2987,0.015,0.010
2988,0.005,0.010
2989,0.000,0.010
2990,-0.010,0.010
2991,-0.020,0.005
2992,-0.025,0.005
2993,-0.030,0.005
2994,-0.035,0.010
2995,-0.040,0.010
2996,-0.040,0.015
2997,-0.040,0.015
2998,-0.040,0.025
2999,-0.040,0.020
3000,-0.040,0.025
3001,-0.040,0.025
3002,-0.040,0.025
3003,-0.040,0.025
3004,-0.040,0.025
3005,-0.040,0.030
3006,-0.040,0.030
3007,-0.035,0.020
3008,-0.035,0.020
3009,-0.035,0.025
3010,-0.030,0.020
3011,-0.030,0.020
3012,-0.025,0.020
3013,-0.025,0.020
3014,-0.025,0.025
3015,-0.020,0.025
3016,-0.015,0.025
3017,-0.005,0.025
3018,0.000,0.030
3019,0.000,0.030
3020,0.000,0.040
3021,-0.005,0.040
3022,-0.015,0.045
3023,-0.015,0.035
3024,-0.015,0.030
3025,-0.015,0.015
3026,-0.015,0.015
3027,-0.015,0.010
3028,-0.015,0.010
3029,-0.020,0.010
3030,-0.020,0.010
3031,-0.025,0.020
3032,0.030,0.025
3033,0.230,0.015
3034,0.520,-0.110
3035,0.665,-0.375
3036,0.535,-0.445
3037,0.280,-0.335
3038,0.090,-0.185
3039,0.000,-0.065
3040,-0.030,-0.010
3041,-0.045,0.015
3042,-0.050,0.025
3043,-0.050,0.025
3044,-0.050,0.025
3045,-0.050,0.030
3046,-0.050,0.030
3047,-0.050,0.035
3048,-0.050,0.030
3049,-0.045,0.035
3050,-0.040,0.040
3051,-0.040,0.040
3052,-0.035,0.045
3053,-0.030,0.045
3054,-0.025,0.050
3055,-0.025,0.050
3056,-0.020,0.055
3057,-0.015,0.055
3058,-0.005,0.060
3059,0.000,0.060
3060,0.000,0.065
3061,0.005,0.070
3062,0.010,0.075
3063,0.015,0.080
3064,0.020,0.085
3065,0.030,0.090
3066,0.045,0.090
3067,0.055,0.090
3068,0.065,0.090
3069,0.065,0.085
3070,0.065,0.070
3071,0.060,0.065
3072,0.060,0.055
3073,0.050,0.055
3074,0.035,0.040
3075,0.020,0.040
3076,0.010,0.030
3077,0.000,0.030
3078,-0.005,0.020
3079,-0.015,0.020
3080,-0.025,0.020
3081,-0.030,0.015
3082,-0.035,0.010
3083,-0.040,0.010
3084,-0.040,0.015
3085,-0.045,0.015
3086,-0.050,0.015
3087,-0.045,0.015
3088,-0.040,0.015
3089,-0.040,0.015
3090,-0.040,0.015
3091,-0.040,0.015
3092,-0.040,0.015
3093,-0.040,0.015
3094,-0.040,0.015
3095,-0.040,0.015
3096,-0.035,0.010
3097,-0.035,0.005
3098,-0.030,0.005
3099,-0.025,0.005
3100,-0.025,0.000
3101,-0.025,0.000
3102,-0.025,0.000
3103,-0.020,0.000
3104,-0.020,0.000
3105,-0.015,0.000
3106,-0.010,0.000
3107,0.000,0.005
3108,0.000,0.005
3109,-0.005,0.015
3110,-0.015,0.020
3111,-0.015,0.020
3112,-0.015,0.010
3113,-0.015,0.000
3114,-0.015,0.000
3115,-0.015,-0.005
3116,-0.015,0.000
3117,-0.015,0.000
3118,-0.015,-0.005
3119,-0.025,-0.005
3120,-0.015,0.000
3121,0.070,0.000
3122,0.300,-0.020
3123,0.575,-0.215
3124,0.660,-0.440
3125,0.495,-0.475
3126,0.245,-0.340
3127,0.070,-0.185
3128,0.000,-0.070
3129,-0.030,-0.010
3130,-0.045,0.000
3131,-0.050,0.005
3132,-0.050,0.010
3133,-0.050,0.010
3134,-0.050,0.010
3135,-0.045,0.010
3136,-0.045,0.010
3137,-0.040,0.015
3138,-0.040,0.020
3139,-0.040,0.020
3140,-0.040,0.025
3141,-0.035,0.025
3142,-0.035,0.030
3143,-0.030,0.030
3144,-0.020,0.035
3145,-0.020,0.035
3146,-0.015,0.040
3147,-0.005,0.040
3148,0.000,0.045
3149,0.000,0.045
3150,0.005,0.055
3151,0.010,0.055
3152,0.015,0.070
3153,0.025,0.065
3154,0.035,0.075
3155,0.045,0.075
3156,0.060,0.075
3157,0.065,0.070
3158,0.065,0.070
3159,0.070,0.060
3160,0.070,0.055
3161,0.060,0.040
3162,0.050,0.035
3163,0.030,0.025
3164,0.020,0.025
3165,0.010,0.015
3166,0.000,0.010
3167,-0.005,0.005
3168,-0.015,0.005
3169,-0.020,0.000
3170,-0.030,0.000
3171,-0.035,0.000
3172,-0.040,0.000
3173,-0.040,0.000
3174,-0.040,0.000
3175,-0.040,0.000
3176,-0.040,0.000
3177,-0.040,0.000
3178,-0.040,0.000
3179,-0.040,0.000
3180,-0.040,0.000
3181,-0.035,0.000
3182,-0.035,0.000
3183,-0.035,0.000
3184,-0.030,0.000
3185,-0.025,0.000
3186,-0.025,0.000
3187,-0.030,0.000
3188,-0.030,0.000
3189,-0.030,0.000
3190,-0.030,0.000
3191,-0.025,0.000
3192,-0.020,0.000
3193,-0.015,0.000
3194,-0.010,0.000
3195,-0.005,0.000
3196,0.000,0.000
3197,0.000,0.005
3198,-0.005,0.010
3199,-0.010,0.010
3200,-0.015,0.010
3201,-0.010,0.010
3202,-0.010,0.000
3203,-0.010,0.000
3204,-0.015,-0.005
3205,-0.015,0.000
3206,-0.015,-0.005
3207,-0.015,0.000
3208,-0.020,0.000
3209,-0.010,0.000
3210,0.070,0.005
3211,0.295,-0.015
3212,0.570,-0.200
3213,0.665,-0.430
3214,0.510,-0.475
3215,0.265,-0.350
3216,0.085,-0.195
3217,0.000,-0.080
3218,-0.030,-0.015
3219,-0.040,0.000
3220,-0.045,0.005
3221,-0.050,0.010
3222,-0.050,0.010
3223,-0.050,0.015
3224,-0.045,0.010
3225,-0.040,0.010
3226,-0.040,0.015
3227,-0.040,0.020
3228,-0.040,0.020
3229,-0.035,0.025
3230,-0.035,0.025
3231,-0.030,0.025
3232,-0.025,0.020
3233,-0.020,0.030
3234,-0.015,0.030
3235,-0.010,0.035
3236,-0.005,0.030
3237,0.000,0.040
3238,0.000,0.045
3239,0.005,0.055
3240,0.015,0.060
3241,0.020,0.060
3242,0.025,0.070
3243,0.035,0.070
3244,0.045,0.075
3245,0.055,0.070
3246,0.060,0.070
3247,0.065,0.065
3248,0.070,0.065
3249,0.070,0.050
3250,0.060,0.040
3251,0.050,0.030
3252,0.035,0.030
3253,0.020,0.015
3254,0.010,0.015
3255,0.000,0.000
3256,-0.005,0.000
3257,-0.015,0.000
3258,-0.020,0.000
3259,-0.025,0.000
3260,-0.030,0.000
3261,-0.035,0.000
3262,-0.040,0.000
3263,-0.040,0.000
3264,-0.040,0.000
3265,-0.040,0.000
3266,-0.040,0.000
3267,-0.040,0.000
3268,-0.040,0.000
3269,-0.035,0.000
3270,-0.035,0.000
3271,-0.035,0.000
3272,-0.030,0.000
3273,-0.025,0.000
3274,-0.025,0.000
3275,-0.025,0.000
3276,-0.030,0.000
3277,-0.030,0.000
3278,-0.025,0.000
3279,-0.020,0.000
3280,-0.020,0.000
3281,-0.015,0.000
3282,-0.010,0.000
3283,-0.005,0.000
3284,0.000,0.005
3285,0.000,0.005
3286,0.000,0.005
3287,0.000,0.005
3288,-0.005,0.015
3289,-0.010,0.015
3290,-0.005,0.015
3291,-0.005,0.000
3292,-0.010,0.000
3293,-0.010,0.000
3294,-0.015,-0.005
3295,-0.015,-0.010
3296,-0.015,-0.010
3297,-0.015,0.000
3298,-0.005,0.000
3299,0.085,0.000
3300,0.320,-0.035
3301,0.580,-0.230
3302,0.655,-0.445
3303,0.495,-0.475
3304,0.250,-0.340
3305,0.070,-0.185
3306,-0.005,-0.075
3307,-0.030,-0.020
3308,-0.040,0.000
3309,-0.045,0.000
3310,-0.050,0.000
3311,-0.045,0.000
3312,-0.040,0.010
3313,-0.040,0.010
3314,-0.040,0.010
3315,-0.040,0.015
3316,-0.040,0.010
3317,-0.035,0.010
3318,-0.035,0.015
3319,-0.030,0.010
3320,-0.025,0.010
3321,-0.020,0.020
3322,-0.015,0.020
3323,-0.010,0.025
3324,-0.005,0.025
3325,0.000,0.035
3326,0.005,0.035
3327,0.010,0.045
3328,0.010,0.045
3329,0.010,0.055
3330,0.020,0.060
3331,0.030,0.065
3332,0.045,0.065
3333,0.055,0.070
3334,0.065,0.070
3335,0.070,0.070
3336,0.075,0.065
3337,0.075,0.060
3338,0.075,0.050
3339,0.065,0.040
3340,0.055,0.030
3341,0.040,0.025
3342,0.020,0.015
3343,0.015,0.015
3344,0.005,0.005
3345,0.000,0.005
3346,-0.010,0.000
3347,-0.020,0.000
3348,-0.025,0.000
3349,-0.030,0.000
3350,-0.035,0.000
3351,-0.040,0.000
3352,-0.040,0.000
3353,-0.040,0.000
3354,-0.040,0.000
3355,-0.035,0.000
3356,-0.035,0.000
3357,-0.030,0.000
3358,-0.025,0.000
3359,-0.025,0.000
3360,-0.030,0.000
3361,-0.030,0.000
3362,-0.030,0.000
3363,-0.025,0.000
3364,-0.025,0.000
3365,-0.020,0.000
3366,-0.020,0.000
3367,-0.020,0.000
3368,-0.020,0.000
3369,-0.015,0.000
3370,-0.010,0.000
3371,-0.010,0.000
3372,-0.005,0.000
3373,-0.005,0.000
3374,0.000,0.000
3375,0.000,0.000
3376,0.000,0.005
3377,0.000,0.010
3378,-0.005,0.015
3379,-0.005,0.010
3380,-0.005,0.000
3381,-0.005,-0.005
3382,-0.010,0.000
3383,-0.015,-0.005
3384,-0.015,-0.010
3385,-0.015,-0.010
3386,-0.015,-0.005
3387,0.000,0.000
3388,0.090,0.000
3389,0.320,-0.030
3390,0.580,-0.200
3391,0.655,-0.395
3392,0.490,-0.425
3393,0.245,-0.305
3394,0.070,-0.165
3395,-0.005,-0.065
3396,-0.025,-0.015
3397,-0.035,0.000
3398,-0.040,-0.005
3399,-0.040,-0.015
3400,-0.040,-0.015
3401,-0.040,-0.010
3402,-0.040,-0.005
3403,-0.040,0.000
3404,-0.035,0.000
3405,-0.035,0.000
3406,-0.030,0.000
3407,-0.025,0.000
3408,-0.025,0.000
3409,-0.020,0.000
3410,-0.015,0.000
3411,-0.010,0.000
3412,-0.005,0.000
3413,0.000,0.000
3414,0.000,0.000
3415,0.000,0.005
3416,0.005,0.010
3417,0.010,0.015
3418,0.015,0.020
3419,0.025,0.025
3420,0.040,0.030
3421,0.050,0.035
3422,0.060,0.035
3423,0.070,0.040
3424,0.080,0.040
3425,0.085,0.040
3426,0.085,0.030
3427,0.075,0.030
3428,0.065,0.020
3429,0.055,0.015
3430,0.040,0.005
3431,0.025,0.000
3432,0.010,0.000
3433,0.000,0.000
3434,0.000,-0.005
3435,-0.010,-0.010
3436,-0.020,-0.005
3437,-0.030,-0.010
3438,-0.035,-0.005
3439,-0.040,-0.010
3440,-0.040,-0.005
3441,-0.040,-0.005
3442,-0.040,0.000
3443,-0.040,-0.005
3444,-0.040,0.000
3445,-0.040,-0.005
3446,-0.035,0.000
3447,-0.035,0.000
3448,-0.030,0.000
3449,-0.030,0.000
3450,-0.025,0.000
3451,-0.025,-0.005
3452,-0.030,0.000
3453,-0.025,0.000
3454,-0.025,-0.005
3455,-0.020,-0.005
3456,-0.020,-0.010
3457,-0.020,0.000
3458,-0.020,-0.015
3459,-0.015,-0.010
3460,-0.015,-0.010
3461,-0.010,0.000
3462,-0.005,-0.010
3463,0.000,0.000
3464,0.000,0.000
3465,0.000,0.000
3466,0.000,0.000
3467,0.000,0.000
3468,-0.005,0.005
3469,-0.005,0.000
3470,-0.005,-0.005
3471,-0.005,-0.010
3472,-0.010,-0.010
3473,-0.015,-0.010
3474,-0.015,-0.015
3475,-0.015,-0.015
3476,-0.015,-0.005
3477,0.010,0.000
3478,0.130,0.000
3479,0.385,-0.055
3480,0.615,-0.240
3481,0.630,-0.410
3482,0.425,-0.390
3483,0.185,-0.250
3484,0.035,-0.125
3485,-0.015,-0.045
3486,-0.030,-0.015
3487,-0.040,0.000
3488,-0.045,0.000
3489,-0.045,0.000
3490,-0.040,0.000
3491,-0.040,0.000
3492,-0.040,0.000
3493,-0.040,0.000
3494,-0.035,0.000
3495,-0.035,0.000
3496,-0.030,0.000
3497,-0.025,0.005
3498,-0.025,0.005
3499,-0.025,0.005
3500,-0.020,0.005
3501,-0.015,0.010
3502,-0.010,0.010
3503,0.000,0.010
3504,0.000,0.010
3505,0.000,0.015
3506,0.005,0.020
3507,0.010,0.025
3508,0.015,0.030
3509,0.030,0.035
3510,0.040,0.040
3511,0.055,0.035
3512,0.065,0.040
3513,0.070,0.040
3514,0.075,0.045
3515,0.080,0.040
3516,0.080,0.045
3517,0.070,0.035
3518,0.060,0.030
3519,0.045,0.020
3520,0.035,0.015
3521,0.020,0.010
3522,0.010,0.005
3523,0.000,0.005
3524,-0.005,0.005
3525,-0.015,0.000
3526,-0.025,0.000
3527,-0.030,0.000
3528,-0.035,0.000
3529,-0.040,0.000
3530,-0.040,0.005
3531,-0.040,0.005
3532,-0.040,0.010
3533,-0.040,0.010
3534,-0.040,0.010
3535,-0.040,0.010
3536,-0.040,0.010
3537,-0.040,0.010
3538,-0.040,0.015
3539,-0.040,0.015
3540,-0.040,0.015
3541,-0.040,0.010
3542,-0.040,0.015
3543,-0.035,0.015
3544,-0.035,0.015
3545,-0.030,0.010
3546,-0.025,0.010
3547,-0.025,0.010
3548,-0.030,0.015
3549,-0.025,0.015
3550,-0.025,0.020
3551,-0.020,0.025
3552,-0.010,0.015
3553,-0.005,0.015
3554,0.000,0.020
3555,0.000,0.025
3556,0.000,0.030
3557,-0.010,0.040
3558,-0.015,0.040
3559,-0.015,0.040
3560,-0.015,0.025
3561,-0.015,0.015
3562,-0.015,0.010
3563,-0.015,0.010
3564,-0.015,0.015
3565,-0.015,0.010
3566,-0.020,0.020
3567,-0.010,0.030
3568,0.060,0.035
3569,0.265,0.005
3570,0.530,-0.130
3571,0.650,-0.355
3572,0.515,-0.420
3573,0.265,-0.310
3574,0.075,-0.155
3575,-0.005,-0.045
3576,-0.035,0.000
3577,-0.045,0.025
3578,-0.050,0.035
3579,-0.050,0.035
3580,-0.050,0.040
3581,-0.050,0.035
3582,-0.050,0.035
3583,-0.045,0.035
3584,-0.045,0.035
3585,-0.040,0.035
3586,-0.040,0.040
3587,-0.035,0.045
3588,-0.035,0.050
3589,-0.030,0.050
3590,-0.025,0.050
3591,-0.020,0.060
3592,-0.020,0.055
3593,-0.010,0.060
3594,-0.005,0.060
3595,0.000,0.065
3596,0.000,0.070
3597,0.000,0.075
3598,0.010,0.080
3599,0.015,0.085
3600,0.025,0.090
3601,0.040,0.090
3602,0.050,0.090
3603,0.055,0.090
3604,0.060,0.090
3605,0.065,0.085
3606,0.070,0.080
3607,0.065,0.075
3608,0.060,0.065
3609,0.050,0.055
3610,0.035,0.050
3611,0.020,0.040
3612,0.010,0.035
3613,0.000,0.025
3614,0.000,0.015
3615,-0.015,0.015
3616,-0.020,0.010
3617,-0.030,0.015
3618,-0.035,0.010
3619,-0.040,0.010
3620,-0.040,0.010
3621,-0.040,0.005
3622,-0.040,0.005
3623,-0.040,0.015
3624,-0.040,0.015
3625,-0.040,0.015
3626,-0.040,0.015
3627,-0.040,0.015
3628,-0.040,0.015
3629,-0.040,0.010
3630,-0.035,0.010
3631,-0.035,0.010
3632,-0.030,0.010
3633,-0.030,0.010
3634,-0.030,0.010
3635,-0.025,0.005
3636,-0.025,0.005
3637,-0.025,0.005
3638,-0.030,0.005
3639,-0.030,0.000
3640,-0.025,0.000
3641,-0.020,0.005
3642,-0.015,0.005
3643,-0.010,0.005
3644,-0.005,0.015
3645,-0.005,0.010
3646,-0.005,0.020
3647,-0.010,0.030
3648,-0.015,0.030
3649,-0.015,0.025
3650,-0.015,0.015
3651,-0.015,0.005
3652,-0.015,0.000
3653,-0.015,0.000
3654,-0.015,0.000
3655,-0.015,0.000
3656,-0.020,0.000
3657,-0.015,0.005
3658,0.045,0.010
3659,0.230,-0.005
3660,0.510,-0.130
3661,0.675,-0.390
3662,0.570,-0.490
3663,0.310,-0.390
3664,0.100,-0.215
3665,0.000,-0.090
3666,-0.035,-0.010
3667,-0.045,0.000
3668,-0.050,0.010
3669,-0.050,0.010
3670,-0.050,0.015
3671,-0.050,0.010
3672,-0.050,0.020
3673,-0.045,0.015
3674,-0.040,0.020
3675,-0.040,0.025
3676,-0.040,0.025
3677,-0.035,0.030
3678,-0.035,0.030
3679,-0.030,0.030
3680,-0.025,0.030
3681,-0.025,0.030
3682,-0.020,0.030
3683,-0.010,0.035
3684,-0.005,0.035
3685,0.000,0.040
3686,0.000,0.045
3687,0.005,0.050
3688,0.010,0.055
3689,0.015,0.060
3690,0.025,0.065
3691,0.035,0.070
3692,0.045,0.075
3693,0.055,0.070
3694,0.065,0.075
3695,0.070,0.070
3696,0.075,0.060
3697,0.070,0.055
3698,0.065,0.045
3699,0.055,0.030
3700,0.040,0.025
3701,0.025,0.015
3702,0.015,0.010
3703,0.005,0.010
3704,0.000,0.005
3705,-0.010,0.005
3706,-0.020,0.005
3707,-0.025,0.000
3708,-0.035,0.000
3709,-0.040,0.000
3710,-0.040,0.000
3711,-0.040,0.000
3712,-0.040,0.000
3713,-0.040,0.000
3714,-0.040,0.005
3715,-0.040,0.005
3716,-0.040,0.005
3717,-0.040,0.005
3718,-0.035,0.010
3719,-0.035,0.015
3720,-0.035,0.010
3721,-0.030,0.010
3722,-0.025,0.010
3723,-0.025,0.010
3724,-0.030,0.005
3725,-0.030,0.005
3726,-0.030,0.005
3727,-0.025,0.005
3728,-0.025,0.005
3729,-0.025,0.005
3730,-0.020,0.005
3731,-0.010,0.005
3732,-0.005,0.005
3733,-0.005,0.010
3734,0.000,0.010
3735,0.000,0.015
3736,0.000,0.020
3737,-0.010,0.025
3738,-0.010,0.025
3739,-0.005,0.020
3740,-0.005,0.005
3741,-0.010,0.000
3742,-0.015,0.000
3743,-0.015,0.000
3744,-0.015,0.000
3745,-0.015,0.000
3746,-0.020,0.000
3747,-0.005,0.010
3748,0.075,0.005
3749,0.305,-0.020
3750,0.595,-0.200
3751,0.690,-0.460
3752,0.510,-0.495
3753,0.240,-0.345
3754,0.060,-0.180
3755,-0.005,-0.065
3756,-0.030,-0.010
3757,-0.040,0.000
3758,-0.045,0.005
3759,-0.050,0.010
3760,-0.050,0.010
3761,-0.045,0.010
3762,-0.045,0.010
3763,-0.040,0.015
3764,-0.040,0.020
3765,-0.040,0.015
3766,-0.040,0.020
3767,-0.035,0.020
3768,-0.035,0.025
3769,-0.025,0.025
3770,-0.025,0.025
3771,-0.020,0.025
3772,-0.015,0.030
3773,-0.010,0.030
3774,0.000,0.035
3775,0.000,0.040
3776,0.005,0.045
3777,0.010,0.055
3778,0.010,0.055
3779,0.015,0.060
3780,0.030,0.065
3781,0.040,0.070
3782,0.050,0.070
3783,0.060,0.075
3784,0.070,0.065
3785,0.075,0.060
3786,0.075,0.055
3787,0.070,0.050
3788,0.060,0.040
3789,0.050,0.025
3790,0.040,0.015
3791,0.020,0.010
3792,0.010,0.005
3793,0.000,0.000
3794,0.000,0.000
3795,-0.010,0.000
3796,-0.020,0.000
3797,-0.030,0.000
3798,-0.030,0.000
3799,-0.035,-0.005
3800,-0.040,0.000
3801,-0.040,0.000
3802,-0.040,0.000
3803,-0.040,0.000
3804,-0.040,0.000
3805,-0.040,0.000
3806,-0.035,0.000
3807,-0.035,0.005
3808,-0.035,0.005
3809,-0.030,0.005
3810,-0.025,0.005
3811,-0.025,0.005
3812,-0.030,0.005
3813,-0.030,0.000
3814,-0.030,0.000
3815,-0.030,0.000
3816,-0.030,0.000
3817,-0.025,0.000
3818,-0.025,0.000
3819,-0.020,0.000
3820,-0.015,0.000
3821,-0.005,0.000
3822,-0.005,0.000
3823,0.000,0.000
3824,0.000,0.005
3825,0.000,0.010
3826,-0.005,0.015
3827,-0.010,0.015
3828,-0.010,0.015
3829,-0.010,0.000
3830,-0.010,0.000
3831,-0.015,0.000
3832,-0.015,0.000
3833,-0.015,0.000
3834,-0.015,0.000
3835,-0.015,-0.005
3836,-0.015,0.005
3837,0.030,0.000
3838,0.205,0.000
3839,0.505,-0.110
3840,0.705,-0.405
3841,0.595,-0.510
3842,0.330,-0.410
3843,0.115,-0.235
3844,0.005,-0.110
3845,-0.025,-0.025
3846,-0.040,0.000
3847,-0.045,0.000
3848,-0.050,0.005
3849,-0.050,0.005
3850,-0.045,0.005
3851,-0.040,0.005
3852,-0.040,0.005
3853,-0.040,0.010
3854,-0.040,0.010
3855,-0.035,0.010
3856,-0.035,0.010
3857,-0.030,0.015
3858,-0.025,0.015
3859,-0.020,0.020
3860,-0.020,0.025
3861,-0.010,0.025
3862,-0.010,0.030
3863,-0.005,0.030
3864,0.000,0.035
3865,0.000,0.040
3866,0.005,0.040
3867,0.010,0.050
3868,0.020,0.055
3869,0.030,0.060
3870,0.040,0.060
3871,0.050,0.065
3872,0.060,0.065
3873,0.070,0.065
3874,0.080,0.060
3875,0.085,0.060
3876,0.080,0.050
3877,0.070,0.045
3878,0.060,0.030
3879,0.045,0.025
3880,0.025,0.015
3881,0.010,0.010
3882,0.005,0.005
3883,0.000,0.005
3884,-0.005,0.005
3885,-0.015,0.005
3886,-0.020,0.000
3887,-0.025,0.000
3888,-0.030,0.000
3889,-0.035,0.000
3890,-0.040,0.000
3891,-0.040,0.000
3892,-0.040,0.000
3893,-0.040,0.000
3894,-0.040,0.000
3895,-0.035,0.000
3896,-0.035,0.000
3897,-0.030,0.000
3898,-0.025,0.000
3899,-0.025,0.000
3900,-0.030,0.000
3901,-0.030,0.000
3902,-0.030,0.000
3903,-0.025,0.000
3904,-0.020,0.000
3905,-0.020,0.000
3906,-0.015,0.000
3907,-0.015,0.000
3908,-0.015,0.000
3909,-0.010,0.000
3910,-0.005,0.000
3911,-0.005,0.000
3912,0.000,0.000
3913,0.000,0.000
3914,0.000,0.000
3915,0.000,0.005
3916,-0.005,0.010
3917,-0.005,0.005
3918,-0.005,0.000
3919,-0.005,0.000
3920,-0.005,0.000
3921,-0.010,-0.010
3922,-0.005,-0.010
3923,-0.005,-0.010
3924,-0.010,-0.010
3925,-0.015,-0.005
3926,0.000,0.000
3927,0.120,0.000
3928,0.395,-0.030
3929,0.655,-0.270
3930,0.655,-0.450
3931,0.425,-0.415
3932,0.185,-0.270
3933,0.040,-0.140
3934,-0.010,-0.055
3935,-0.030,-0.015
3936,-0.035,0.000
3937,-0.040,0.000
3938,-0.040,0.000
3939,-0.040,0.000
3940,-0.040,0.000
3941,-0.040,0.000
3942,-0.040,0.000
3943,-0.035,0.000
3944,-0.035,0.000
3945,-0.030,0.000
3946,-0.025,0.000
3947,-0.020,0.000
3948,-0.020,0.000
3949,-0.015,0.000
3950,-0.010,0.000
3951,-0.005,0.000
3952,0.000,0.005
3953,0.000,0.005
3954,0.005,0.010
3955,0.010,0.010
3956,0.010,0.020
3957,0.015,0.020
3958,0.025,0.030
3959,0.040,0.030
3960,0.055,0.030
3961,0.065,0.030
3962,0.075,0.035
3963,0.085,0.030
3964,0.085,0.030
3965,0.080,0.025
3966,0.075,0.010
3967,0.065,0.000
3968,0.055,0.000
3969,0.040,0.000
3970,0.025,0.000
3971,0.010,0.000
3972,0.000,-0.015
3973,0.000,-0.010
3974,-0.010,-0.015
3975,-0.020,-0.015
3976,-0.025,-0.015
3977,-0.030,-0.015
3978,-0.035,-0.015
3979,-0.040,-0.015
3980,-0.040,-0.015
3981,-0.040,-0.010
3982,-0.040,-0.010
3983,-0.040,-0.010
3984,-0.035,-0.010
3985,-0.035,-0.005
3986,-0.030,-0.005
3987,-0.030,0.000
3988,-0.025,-0.005
3989,-0.025,-0.010
3990,-0.030,-0.010
3991,-0.030,-0.005
3992,-0.030,-0.005
3993,-0.025,-0.005
3994,-0.025,-0.010
3995,-0.020,-0.010
3996,-0.015,-0.010
3997,-0.015,-0.010
3998,-0.015,-0.010
3999,-0.010,-0.010
4000,-0.005,-0.010
4001,0.000,-0.010
4002,0.000,-0.005
4003,0.005,-0.005
4004,0.000,-0.005
4005,0.000,0.000
4006,-0.005,0.000
4007,-0.005,0.000
4008,-0.005,0.000
4009,-0.005,-0.005
4010,-0.005,-0.015
4011,-0.005,-0.015
4012,-0.010,-0.015
4013,-0.005,-0.015
4014,-0.005,-0.015
4015,-0.015,-0.005
4016,0.000,0.000
4017,0.125,0.000
4018,0.390,-0.040
4019,0.635,-0.255
4020,0.630,-0.415
4021,0.415,-0.385
4022,0.180,-0.240
4023,0.035,-0.115
4024,-0.015,-0.040
4025,-0.030,-0.010
4026,-0.035,0.000
4027,-0.040,0.000
4028,-0.040,0.000
4029,-0.040,0.000
4030,-0.040,0.005
4031,-0.040,0.000
4032,-0.040,0.005
4033,-0.035,0.005
4034,-0.035,0.005
4035,-0.030,0.005
4036,-0.025,0.005
4037,-0.020,0.010
4038,-0.015,0.010
4039,-0.015,0.010
4040,-0.010,0.010
4041,0.000,0.010
4042,0.000,0.010
4043,0.000,0.015
4044,0.005,0.015
4045,0.010,0.015
4046,0.015,0.030
4047,0.020,0.035
4048,0.030,0.035
4049,0.045,0.035
4050,0.055,0.045
4051,0.065,0.040
4052,0.075,0.045
4053,0.085,0.040
4054,0.085,0.045
4055,0.085,0.035
4056,0.080,0.035
4057,0.065,0.020
4058,0.055,0.020
4059,0.035,0.005
4060,0.020,0.005
4061,0.010,0.005
4062,0.000,0.005
4063,0.000,0.000
4064,-0.010,0.000
4065,-0.020,0.000
4066,-0.025,0.000
4067,-0.030,0.000
4068,-0.035,0.000
4069,-0.040,0.000
4070,-0.040,0.005
4071,-0.040,0.020
4072,-0.040,0.030
4073,-0.040,0.020
4074,-0.040,0.005
4075,-0.040,0.000
4076,-0.035,0.005
4077,-0.035,0.005
4078,-0.030,0.005
4079,-0.030,0.005
4080,-0.030,0.010
4081,-0.030,0.015
4082,-0.025,0.030
4083,-0.025,0.030
4084,-0.030,0.035
4085,-0.030,0.030
4086,-0.030,0.025
4087,-0.025,0.025
4088,-0.025,0.025
4089,-0.020,0.025
4090,-0.015,0.030
4091,-0.005,0.025
4092,-0.005,0.025
4093,0.000,0.030
4094,0.000,0.025
4095,0.000,0.005
4096,0.000,0.010
4097,0.000,0.020
4098,-0.005,0.025
4099,-0.005,0.020
4100,-0.005,0.010
4101,-0.010,0.015
4102,-0.015,0.010
4103,-0.015,0.015
4104,-0.015,0.020
4105,-0.015,0.020
4106,-0.015,0.030
4107,0.035,0.040
4108,0.220,0.015
4109,0.490,-0.105
4110,0.645,-0.330
4111,0.550,-0.420
4112,0.315,-0.330
4113,0.115,-0.180
4114,0.010,-0.065
4115,-0.025,-0.005
4116,-0.040,0.020
4117,-0.045,0.025
4118,-0.050,0.025
4119,-0.045,0.030
4120,-0.045,0.030
4121,-0.040,0.030
4122,-0.040,0.030
4123,-0.040,0.035
4124,-0.040,0.035
4125,-0.035,0.040
4126,-0.030,0.040
4127,-0.025,0.045
4128,-0.025,0.040
4129,-0.020,0.045
4130,-0.020,0.045
4131,-0.015,0.050
4132,-0.010,0.050
4133,-0.005,0.060
4134,0.000,0.065
4135,0.000,0.070
4136,0.010,0.070
4137,0.010,0.080
4138,0.015,0.085
4139,0.020,0.090
4140,0.035,0.090
4141,0.045,0.090
4142,0.060,0.095
4143,0.065,0.095
4144,0.070,0.095
4145,0.075,0.085
4146,0.070,0.080
4147,0.065,0.075
4148,0.055,0.065
4149,0.045,0.055
4150,0.030,0.050
4151,0.015,0.035
4152,0.005,0.035
4153,0.000,0.025
4154,-0.005,0.025
4155,-0.015,0.020
4156,-0.025,0.020
4157,-0.030,0.015
4158,-0.035,0.020
4159,-0.040,0.020
4160,-0.040,0.025
4161,-0.040,0.025
4162,-0.040,0.020
4163,-0.040,0.030
4164,-0.040,0.030
4165,-0.040,0.030
4166,-0.040,0.030
4167,-0.040,0.025
4168,-0.035,0.025
4169,-0.035,0.025
4170,-0.035,0.025
4171,-0.030,0.025
4172,-0.030,0.020
4173,-0.025,0.015
4174,-0.025,0.015
4175,-0.030,0.015
4176,-0.030,0.015
4177,-0.030,0.015
4178,-0.025,0.010
4179,-0.020,0.010
4180,-0.015,0.020
4181,-0.010,0.010
4182,-0.010,0.025
4183,-0.005,0.025
4184,0.000,0.025
4185,0.000,0.030
4186,0.000,0.045
4187,-0.005,0.040
4188,-0.010,0.040
4189,-0.005,0.025
4190,-0.005,0.015
4191,-0.010,0.005
4192,-0.015,0.005
4193,-0.015,0.005
4194,-0.015,0.005
4195,-0.020,0.010
4196,-0.015,0.015
4197,0.050,0.025
4198,0.250,0.000
4199,0.520,-0.140
4200,0.655,-0.375
4201,0.545,-0.460
4202,0.305,-0.355
4203,0.105,-0.200
4204,0.005,-0.080
4205,-0.025,-0.015
4206,-0.035,0.005
4207,-0.045,0.015
4208,-0.050,0.020
4209,-0.050,0.015
4210,-0.045,0.020
4211,-0.040,0.015
4212,-0.040,0.025
4213,-0.040,0.020
4214,-0.040,0.025
4215,-0.035,0.020
4216,-0.035,0.030
4217,-0.030,0.030
4218,-0.025,0.030
4219,-0.020,0.030
4220,-0.015,0.035
4221,-0.015,0.035
4222,-0.010,0.040
4223,0.000,0.040
4224,0.000,0.040
4225,0.000,0.050
4226,0.005,0.055
4227,0.010,0.060
4228,0.010,0.065
4229,0.020,0.070
4230,0.035,0.070
4231,0.045,0.080
4232,0.055,0.075
4233,0.065,0.075
4234,0.070,0.065
4235,0.075,0.065
4236,0.070,0.055
4237,0.065,0.050
4238,0.055,0.035
4239,0.040,0.030
4240,0.025,0.020
4241,0.015,0.015
4242,0.005,0.005
4243,0.000,0.005
4244,-0.010,0.005
4245,-0.020,0.005
4246,-0.025,0.000
4247,-0.030,0.000
4248,-0.035,0.000
4249,-0.040,0.000
4250,-0.040,0.000
4251,-0.040,0.000
4252,-0.040,0.000
4253,-0.040,0.005
4254,-0.040,0.005
4255,-0.040,0.005
4256,-0.040,0.005
4257,-0.040,0.005
4258,-0.035,0.005
4259,-0.035,0.005
4260,-0.035,0.005
4261,-0.030,0.000
4262,-0.025,0.000
4263,-0.025,0.000
4264,-0.030,0.000
4265,-0.030,0.000
4266,-0.030,0.000
4267,-0.030,0.000
4268,-0.025,0.000
4269,-0.020,0.000
4270,-0.015,0.000
4271,-0.005,0.000
4272,-0.005,0.005
4273,0.000,0.010
4274,0.000,0.010
4275,0.000,0.020
4276,-0.005,0.025
4277,-0.010,0.030
4278,-0.005,0.015
4279,-0.005,0.000
4280,-0.005,0.000
4281,-0.010,0.000
4282,-0.010,0.000
4283,-0.010,0.000
4284,-0.015,0.000
4285,-0.020,0.000
4286,0.005,0.005
4287,0.130,0.000
4288,0.385,-0.065
4289,0.620,-0.275
4290,0.640,-0.465
4291,0.440,-0.450
4292,0.200,-0.300
4293,0.045,-0.145
4294,-0.010,-0.050
4295,-0.035,-0.005
4296,-0.045,0.000
4297,-0.050,0.010
4298,-0.050,0.010
4299,-0.045,0.010
4300,-0.040,0.010
4301,-0.040,0.015
4302,-0.040,0.015
4303,-0.040,0.015
4304,-0.040,0.020
4305,-0.035,0.020
4306,-0.035,0.025
4307,-0.030,0.025
4308,-0.025,0.025
4309,-0.025,0.025
4310,-0.025,0.030
4311,-0.020,0.030
4312,-0.010,0.045
4313,-0.005,0.040
4314,0.000,0.045
4315,0.000,0.050
4316,0.005,0.060
4317,0.010,0.065
4318,0.020,0.070
4319,0.030,0.075
4320,0.040,0.080
4321,0.055,0.080
4322,0.065,0.080
4323,0.070,0.080
4324,0.075,0.070
4325,0.075,0.060
4326,0.070,0.050
4327,0.060,0.040
4328,0.050,0.030
4329,0.030,0.030
4330,0.015,0.020
4331,0.010,0.015
4332,0.000,0.010
4333,0.000,0.010
4334,-0.010,0.005
4335,-0.020,0.000
4336,-0.030,0.000
4337,-0.035,0.000
4338,-0.040,0.000
4339,-0.040,0.000
4340,-0.040,0.000
4341,-0.040,0.000
4342,-0.040,0.000
4343,-0.040,0.000
4344,-0.040,0.005
4345,-0.040,0.005
4346,-0.040,0.005
4347,-0.040,0.005
4348,-0.040,0.010
4349,-0.035,0.010
4350,-0.035,0.005
4351,-0.035,0.005
4352,-0.035,0.005
4353,-0.035,0.005
4354,-0.030,0.000
4355,-0.025,0.000
4356,-0.025,0.005
4357,-0.025,0.005
4358,-0.020,0.000
4359,-0.015,0.000
4360,-0.010,0.000
4361,-0.005,0.005
4362,-0.005,0.010
4363,0.000,0.010
4364,0.000,0.010
4365,0.000,0.020
4366,-0.005,0.025
4367,-0.010,0.015
4368,-0.005,0.005
4369,-0.005,0.000
4370,-0.010,0.000
4371,-0.015,0.000
4372,-0.010,-0.005
4373,-0.010,0.000
4374,-0.010,0.000
4375,-0.015,0.000
4376,0.030,0.000
4377,0.195,-0.010
4378,0.465,-0.120
4379,0.655,-0.355
4380,0.600,-0.495
4381,0.365,-0.420
4382,0.140,-0.255
4383,0.015,-0.120
4384,-0.025,-0.035
4385,-0.040,0.000
4386,-0.045,0.000
4387,-0.050,0.005
4388,-0.050,0.005
4389,-0.050,0.005
4390,-0.045,0.005
4391,-0.040,0.010
4392,-0.040,0.010
4393,-0.040,0.010
4394,-0.035,0.010
4395,-0.035,0.020
4396,-0.035,0.015
4397,-0.030,0.020
4398,-0.025,0.020
4399,-0.020,0.025
4400,-0.020,0.025
4401,-0.010,0.025
4402,-0.005,0.030
4403,0.000,0.030
4404,0.000,0.035
4405,0.005,0.045
4406,0.010,0.050
4407,0.015,0.055
4408,0.030,0.060
4409,0.040,0.065
4410,0.055,0.070
4411,0.065,0.065
4412,0.070,0.065
4413,0.080,0.060
4414,0.085,0.055
4415,0.075,0.050
4416,0.070,0.045
4417,0.060,0.035
4418,0.045,0.030
4419,0.030,0.020
4420,0.020,0.015
4421,0.010,0.010
4422,0.000,0.010
4423,-0.005,0.005
4424,-0.015,0.005
4425,-0.025,0.000
4426,-0.030,0.000
4427,-0.035,0.000
4428,-0.040,0.000
4429,-0.040,0.000
4430,-0.040,0.005
4431,-0.040,0.005
4432,-0.040,0.005
4433,-0.040,0.005
4434,-0.040,0.005
4435,-0.040,0.005
4436,-0.035,0.005
4437,-0.035,0.005
4438,-0.035,0.005
4439,-0.030,0.005
4440,-0.025,0.005
4441,-0.025,0.000
4442,-0.030,0.000
4443,-0.030,0.000
4444,-0.030,0.000
4445,-0.025,0.000
4446,-0.025,0.000
4447,-0.020,0.000
4448,-0.020,0.000
4449,-0.010,0.000
4450,-0.010,0.000
4451,-0.005,0.000
4452,0.000,0.000
4453,0.000,0.000
4454,0.000,0.000
4455,0.000,0.005
4456,-0.005,0.010
4457,-0.005,0.005
4458,-0.005,0.000
4459,-0.005,0.000
4460,-0.005,-0.010
4461,-0.005,-0.010
4462,-0.005,-0.010
4463,-0.010,-0.005
4464,-0.010,0.000
4465,0.000,0.010
4466,0.065,0.020
4467,0.270,-0.005
4468,0.550,-0.140
4469,0.680,-0.370
4470,0.545,-0.435
4471,0.285,-0.330
4472,0.090,-0.175
4473,0.000,-0.070
4474,-0.025,-0.010
4475,-0.035,0.000
4476,-0.040,0.000
4477,-0.040,0.000
4478,-0.040,-0.015
4479,-0.040,-0.010
4480,-0.040,-0.010
4481,-0.040,-0.005
4482,-0.040,0.000
4483,-0.035,0.000
4484,-0.035,0.000
4485,-0.025,0.000
4486,-0.025,0.000
4487,-0.020,0.000
4488,-0.015,0.000
4489,-0.015,0.000
4490,-0.010,0.000
4491,-0.005,0.000
4492,0.000,0.005
4493,0.000,0.015
4494,0.005,0.010
4495,0.010,0.015
4496,0.015,0.025
4497,0.025,0.030
4498,0.035,0.030
4499,0.050,0.035
4500,0.065,0.035
4501,0.075,0.035
4502,0.080,0.035
4503,0.085,0.035
4504,0.085,0.030
4505,0.080,0.025
4506,0.070,0.020
4507,0.060,0.010
4508,0.045,0.005
4509,0.030,0.000
4510,0.015,0.000
4511,0.005,0.000
4512,0.000,0.000
4513,-0.005,0.000
4514,-0.015,-0.005
4515,-0.025,0.000
4516,-0.035,-0.005
4517,-0.040,0.000
4518,-0.040,-0.005
4519,-0.040,0.000
4520,-0.040,-0.005
4521,-0.040,0.000
4522,-0.040,-0.005
4523,-0.040,0.000
4524,-0.040,-0.005
4525,-0.040,0.000
4526,-0.035,-0.005
4527,-0.035,0.000
4528,-0.030,-0.005
4529,-0.030,0.000
4530,-0.030,0.000
4531,-0.030,0.000
4532,-0.030,-0.005
4533,-0.030,-0.005
4534,-0.030,-0.005
4535,-0.030,-0.005
4536,-0.030,-0.010
4537,-0.025,-0.010
4538,-0.020,0.000
4539,-0.015,0.000
4540,-0.010,0.000
4541,-0.005,0.000
4542,-0.005,0.000
4543,0.000,0.000
4544,0.000,0.000
4545,0.000,0.000
4546,-0.005,0.000
4547,-0.010,0.005
4548,-0.010,0.005
4549,-0.010,0.000
4550,-0.015,-0.005
4551,-0.015,0.000
4552,-0.015,-0.005
4553,-0.015,0.000
4554,-0.015,-0.005
4555,-0.015,0.000
4556,0.000,0.000
4557,0.090,0.000
4558,0.325,-0.025
4559,0.600,-0.190
4560,0.670,-0.410
4561,0.475,-0.420
4562,0.215,-0.275
4563,0.050,-0.135
4564,-0.015,-0.050
4565,-0.035,-0.010
4566,-0.040,0.000
4567,-0.045,0.000
4568,-0.050,0.000
4569,-0.045,0.000
4570,-0.040,0.000
4571,-0.040,0.000
4572,-0.040,0.000
4573,-0.035,0.000
4574,-0.035,0.000
4575,-0.030,0.000
4576,-0.025,0.000
4577,-0.025,0.000
4578,-0.020,0.005
4579,-0.015,0.010
4580,-0.015,0.010
4581,-0.010,0.010
4582,-0.005,0.010
4583,0.000,0.015
4584,0.000,0.020
4585,0.005,0.030
4586,0.010,0.030
4587,0.015,0.035
4588,0.025,0.040
4589,0.040,0.040
4590,0.050,0.050
4591,0.060,0.050
4592,0.070,0.050
4593,0.075,0.050
4594,0.080,0.050
4595,0.080,0.045
4596,0.075,0.040
4597,0.065,0.030
4598,0.055,0.025
4599,0.040,0.010
4600,0.020,0.010
4601,0.010,0.000
4602,0.000,0.000
4603,0.000,0.000
4604,-0.015,0.000
4605,-0.020,0.000
4606,-0.030,0.000
4607,-0.035,0.000
4608,-0.040,0.000
4609,-0.040,0.000
4610,-0.040,0.000
4611,-0.040,0.000
4612,-0.040,0.000
4613,-0.040,0.000
4614,-0.040,0.005
4615,-0.040,0.005
4616,-0.040,0.010
4617,-0.040,0.020
4618,-0.035,0.030
4619,-0.035,0.030
4620,-0.030,0.005
4621,-0.025,0.005
4622,-0.025,0.000
4623,-0.030,0.000
4624,-0.030,0.000
4625,-0.030,0.005
4626,-0.030,0.000
4627,-0.030,0.005
4628,-0.030,0.000
4629,-0.025,0.005
4630,-0.020,0.010
4631,-0.015,0.010
4632,-0.010,0.010
4633,-0.005,0.010
4634,0.000,0.020
4635,0.000,0.030
4636,-0.005,0.055
4637,-0.015,0.060
4638,-0.015,0.055
4639,-0.015,0.050
4640,-0.015,0.035
4641,-0.015,0.025
4642,-0.015,0.015
4643,-0.015,0.005
4644,-0.015,-0.005
4645,-0.015,0.000
4646,-0.020,0.000
4647,0.000,0.020
4648,0.115,0.015
4649,0.380,-0.015
4650,0.645,-0.245
4651,0.645,-0.445
4652,0.410,-0.405
4653,0.165,-0.240
4654,0.030,-0.115
4655,-0.020,-0.020
4656,-0.035,0.000
4657,-0.045,0.020
4658,-0.050,0.020
4659,-0.050,0.025
4660,-0.050,0.030
4661,-0.045,0.030
4662,-0.040,0.030
4663,-0.040,0.030
4664,-0.040,0.035
4665,-0.040,0.035
4666,-0.035,0.045
4667,-0.035,0.045
4668,-0.025,0.045
4669,-0.025,0.045
4670,-0.020,0.045
4671,-0.015,0.045
4672,-0.010,0.050
4673,-0.005,0.055
4674,0.000,0.055
4675,0.000,0.060
4676,0.005,0.065
4677,0.010,0.080
4678,0.015,0.080
4679,0.020,0.090
4680,0.030,0.090
4681,0.045,0.095
4682,0.055,0.095
4683,0.060,0.090
4684,0.070,0.090
4685,0.075,0.085
4686,0.070,0.075
4687,0.065,0.070
4688,0.060,0.060
4689,0.050,0.050
4690,0.030,0.040
4691,0.015,0.035
4692,0.010,0.030
4693,0.000,0.025
4694,0.000,0.025
4695,-0.015,0.020
4696,-0.025,0.020
4697,-0.030,0.015
4698,-0.035,0.020
4699,-0.040,0.020
4700,-0.040,0.020
4701,-0.040,0.020
4702,-0.040,0.025
4703,-0.040,0.025
4704,-0.040,0.025
4705,-0.040,0.025
4706,-0.040,0.025
4707,-0.040,0.020
4708,-0.040,0.020
4709,-0.040,0.015
4710,-0.040,0.015
4711,-0.035,0.010
4712,-0.035,0.010
4713,-0.035,0.010
4714,-0.035,0.010
4715,-0.030,0.010
4716,-0.025,0.010
4717,-0.025,0.010
4718,-0.025,0.010
4719,-0.025,0.010
4720,-0.025,0.010
4721,-0.020,0.010
4722,-0.015,0.010
4723,-0.010,0.010
4724,-0.005,0.020
4725,-0.005,0.015
4726,-0.005,0.030
4727,-0.015,0.035
4728,-0.015,0.035
4729,-0.015,0.020
4730,-0.015,0.010
4731,-0.015,0.000
4732,-0.015,0.000
4733,-0.015,0.000
4734,-0.015,0.000
4735,-0.020,0.000
4736,-0.025,0.005
4737,-0.015,0.005
4738,0.075,0.015
4739,0.320,-0.005
4740,0.600,-0.210
4741,0.670,-0.455
4742,0.485,-0.460
4743,0.230,-0.325
4744,0.060,-0.170
4745,-0.005,-0.060
4746,-0.035,-0.005
4747,-0.045,0.005
4748,-0.050,0.010
4749,-0.050,0.015
4750,-0.050,0.015
4751,-0.050,0.020
4752,-0.045,0.015
4753,-0.045,0.015
4754,-0.040,0.015
4755,-0.040,0.020
4756,-0.035,0.025
4757,-0.035,0.025
4758,-0.030,0.025
4759,-0.025,0.025
4760,-0.025,0.030
4761,-0.020,0.030
4762,-0.015,0.035
4763,-0.010,0.030
4764,-0.005,0.035
4765,0.000,0.035
4766,0.000,0.050
4767,0.005,0.050
4768,0.010,0.060
4769,0.015,0.060
4770,0.025,0.065
4771,0.040,0.070
4772,0.050,0.070
4773,0.060,0.070
4774,0.070,0.065
4775,0.075,0.060
4776,0.070,0.055
4777,0.065,0.050
4778,0.060,0.035
4779,0.055,0.035
4780,0.035,0.020
4781,0.020,0.020
4782,0.015,0.010
4783,0.005,0.010
4784,0.000,0.000
4785,-0.010,0.000
4786,-0.020,0.000
4787,-0.025,0.000
4788,-0.030,0.000
4789,-0.035,0.000
4790,-0.040,0.000
4791,-0.040,0.000
4792,-0.040,0.000
4793,-0.040,0.000
4794,-0.040,0.000
4795,-0.040,0.000
4796,-0.040,0.000
4797,-0.040,0.000
4798,-0.040,0.000
4799,-0.040,0.000
4800,-0.040,0.000
4801,-0.035,0.000
4802,-0.035,0.000
4803,-0.030,0.000
4804,-0.025,0.000
4805,-0.025,0.000
4806,-0.025,0.000
4807,-0.030,0.000
4808,-0.025,0.000
4809,-0.020,0.000
4810,-0.015,0.000
4811,-0.005,0.000
4812,0.000,0.000
4813,0.000,0.005
4814,0.000,0.005
4815,0.000,0.010
4816,-0.005,0.015
4817,-0.010,0.015
4818,-0.005,0.010
4819,-0.005,0.000
4820,-0.010,0.000
4821,-0.015,0.000
4822,-0.015,0.000
4823,-0.015,0.000
4824,-0.010,0.000
4825,-0.010,0.000
4826,-0.015,0.000
4827,0.045,0.000
4828,0.245,0.000
4829,0.535,-0.155
4830,0.680,-0.410
4831,0.555,-0.495
4832,0.305,-0.380
4833,0.100,-0.225
4834,0.005,-0.100
4835,-0.025,-0.030
4836,-0.040,0.000
4837,-0.045,0.000
4838,-0.050,0.005
4839,-0.050,0.000
4840,-0.045,0.005
4841,-0.045,0.005
4842,-0.040,0.005
4843,-0.040,0.010
4844,-0.040,0.010
4845,-0.035,0.010
4846,-0.035,0.010
4847,-0.030,0.015
4848,-0.025,0.015
4849,-0.025,0.020
4850,-0.020,0.025
4851,-0.020,0.025
4852,-0.015,0.030
4853,-0.005,0.030
4854,0.000,0.040
4855,0.000,0.040
4856,0.005,0.055
4857,0.010,0.055
4858,0.015,0.065
4859,0.025,0.065
4860,0.035,0.075
4861,0.050,0.070
4862,0.060,0.075
4863,0.070,0.070
4864,0.075,0.070
4865,0.075,0.060
4866,0.075,0.060
4867,0.065,0.050
4868,0.055,0.040
4869,0.040,0.030
4870,0.025,0.020
4871,0.015,0.010
4872,0.005,0.005
4873,0.000,0.005
4874,-0.010,0.000
4875,-0.020,0.000
4876,-0.025,0.000
4877,-0.030,0.000
4878,-0.035,-0.005
4879,-0.040,0.000
4880,-0.040,0.000
4881,-0.040,0.000
4882,-0.040,0.000
4883,-0.040,0.000
4884,-0.040,0.000
4885,-0.040,0.000
4886,-0.040,0.000
4887,-0.040,0.000
4888,-0.040,0.000
4889,-0.035,0.000
4890,-0.035,0.000
4891,-0.035,0.000
4892,-0.030,0.000
4893,-0.025,0.000
4894,-0.025,0.000
4895,-0.030,0.000
4896,-0.025,0.000
4897,-0.025,0.000
4898,-0.020,0.000
4899,-0.015,0.000
4900,-0.005,0.000
4901,0.000,0.005
4902,0.000,0.005
4903,0.000,0.010
4904,0.000,0.010
4905,-0.010,0.015
4906,-0.010,0.015
4907,-0.010,0.015
4908,-0.010,0.000
4909,-0.010,0.000
4910,-0.010,-0.005
4911,-0.015,0.000
4912,-0.015,-0.010
4913,-0.015,0.000
4914,-0.015,0.000
4915,-0.010,0.000
4916,0.055,0.000
4917,0.265,-0.015
4918,0.550,-0.185
4919,0.670,-0.420
4920,0.535,-0.480
4921,0.285,-0.370
4922,0.095,-0.210
4923,0.000,-0.090
4924,-0.030,-0.025
4925,-0.040,0.000
4926,-0.045,0.000
4927,-0.050,0.000
4928,-0.050,0.000
4929,-0.045,0.000
4930,-0.040,0.000
4931,-0.040,0.005
4932,-0.040,0.005
4933,-0.040,0.010
4934,-0.035,0.005
4935,-0.035,0.010
4936,-0.030,0.010
4937,-0.025,0.015
4938,-0.025,0.015
4939,-0.020,0.025
4940,-0.015,0.025
4941,-0.010,0.030
4942,-0.005,0.030
4943,0.000,0.045
4944,0.000,0.045
4945,0.005,0.050
4946,0.010,0.055
4947,0.020,0.065
4948,0.030,0.065
4949,0.040,0.070
4950,0.050,0.070
4951,0.060,0.065
4952,0.070,0.065
4953,0.075,0.060
4954,0.080,0.060
4955,0.075,0.050
4956,0.070,0.045
4957,0.055,0.030
4958,0.040,0.030
4959,0.025,0.015
4960,0.015,0.015
4961,0.005,0.005
4962,0.000,0.005
4963,-0.010,0.000
4964,-0.015,0.005
4965,-0.020,0.000
4966,-0.025,0.000
4967,-0.030,0.000
4968,-0.035,0.000
4969,-0.040,0.000
4970,-0.040,0.000
4971,-0.040,0.005
4972,-0.040,0.005
4973,-0.040,0.005
4974,-0.040,0.005
4975,-0.035,0.005
4976,-0.035,0.005
4977,-0.035,0.005
4978,-0.030,0.005
4979,-0.025,0.005
4980,-0.025,0.005
4981,-0.030,0.000
4982,-0.030,0.000
4983,-0.030,0.000
4984,-0.025,0.000
4985,-0.020,0.000
4986,-0.020,0.000
4987,-0.015,0.000
4988,-0.005,0.005
4989,-0.005,0.000
4990,0.000,0.000
4991,0.000,0.000
4992,0.000,0.005
4993,0.000,0.005
4994,0.000,0.010
4995,-0.005,0.015
4996,-0.005,0.010
4997,-0.005,0.000
4998,-0.005,0.000
4999,-0.005,0.000
5000,-0.005,-0.005
5001,-0.005,-0.005
5002,-0.005,-0.010
5003,-0.010,0.000
5004,0.000,0.000
5005,0.090,0.000
5006,0.320,-0.025
5007,0.585,-0.190
5008,0.660,-0.385
5009,0.495,-0.415
5010,0.250,-0.300
5011,0.075,-0.160
5012,0.000,-0.060
5013,-0.025,-0.010
5014,-0.035,0.000
5015,-0.040,0.000
5016,-0.040,0.000
5017,-0.040,0.000
5018,-0.040,0.005
5019,-0.040,0.000
5020,-0.040,0.000
5021,-0.035,-0.005
5022,-0.035,0.000
5023,-0.030,0.000
5024,-0.025,0.000
5025,-0.020,0.000
5026,-0.020,0.000
5027,-0.015,0.005
5028,-0.010,0.005
5029,-0.005,0.005
5030,0.000,0.005
5031,0.000,0.010
5032,0.005,0.010
5033,0.010,0.020
5034,0.015,0.020
5035,0.015,0.030
5036,0.025,0.035
5037,0.040,0.035
5038,0.050,0.035
5039,0.060,0.035
5040,0.070,0.035
5041,0.080,0.035
5042,0.085,0.030
5043,0.085,0.030
5044,0.080,0.020
5045,0.070,0.015
5046,0.055,0.000
5047,0.040,0.000
5048,0.025,0.000
5049,0.015,0.000
5050,0.005,-0.005
5051,0.000,-0.010
5052,-0.010,-0.010
5053,-0.020,-0.010
5054,-0.025,-0.010
5055,-0.030,-0.010
5056,-0.035,-0.010
5057,-0.040,-0.010
5058,-0.040,-0.005
5059,-0.040,0.000
5060,-0.040,-0.005
5061,-0.040,-0.005
5062,-0.040,-0.005
5063,-0.040,0.000
5064,-0.035,-0.005
5065,-0.035,0.000
5066,-0.030,-0.005
5067,-0.030,0.000
5068,-0.030,-0.005
5069,-0.025,0.000
5070,-0.025,-0.005
5071,-0.030,0.000
5072,-0.030,-0.005
5073,-0.030,0.000
5074,-0.025,-0.005
5075,-0.025,0.000
5076,-0.020,-0.005
5077,-0.015,0.000
5078,-0.010,-0.005
5079,-0.005,-0.005
5080,0.000,0.000
5081,0.000,0.000
5082,0.000,0.000
5083,-0.005,0.000
5084,-0.010,0.005
5085,-0.010,0.000
5086,-0.010,0.000
5087,-0.010,-0.005
5088,-0.015,-0.005
5089,-0.015,-0.005
5090,-0.015,-0.005
5091,-0.015,-0.010
5092,-0.020,-0.005
5093,-0.005,0.000
5094,0.090,0.005
5095,0.325,-0.025
5096,0.585,-0.195
5097,0.645,-0.385
5098,0.470,-0.400
5099,0.225,-0.275
5100,0.055,-0.140
5101,-0.010,-0.055
5102,-0.030,-0.010
5103,-0.040,0.000
5104,-0.050,0.000
5105,-0.050,0.000
5106,-0.050,0.000
5107,-0.045,0.000
5108,-0.040,0.000
5109,-0.040,0.000
5110,-0.040,0.005
5111,-0.035,0.005
5112,-0.035,0.005
5113,-0.030,0.000
5114,-0.025,0.005
5115,-0.020,0.005
5116,-0.015,0.010
5117,-0.010,0.010
5118,-0.005,0.010
5119,0.000,0.010
5120,0.000,0.020
5121,0.000,0.015
5122,0.005,0.025
5123,0.010,0.030
5124,0.010,0.040
5125,0.020,0.040
5126,0.035,0.045
5127,0.050,0.050
5128,0.060,0.055
5129,0.065,0.050
5130,0.070,0.050
5131,0.075,0.050
5132,0.075,0.040
5133,0.070,0.040
5134,0.060,0.030
5135,0.050,0.025
5136,0.035,0.015
5137,0.020,0.010
5138,0.010,0.005
5139,0.000,0.005
5140,-0.005,0.000
5141,-0.015,0.000
5142,-0.020,0.000
5143,-0.030,0.000
5144,-0.035,0.000
5145,-0.040,0.000
5146,-0.040,0.000
5147,-0.040,0.000
5148,-0.040,0.000
5149,-0.040,0.000
5150,-0.040,0.000
5151,-0.040,0.000
5152,-0.040,0.000
5153,-0.040,0.000
5154,-0.035,0.000
5155,-0.035,0.000
5156,-0.035,0.005
5157,-0.030,0.000
5158,-0.025,0.000
5159,-0.025,0.005
5160,-0.030,0.005
5161,-0.030,0.000
5162,-0.030,0.000
5163,-0.030,0.000
5164,-0.030,0.000
5165,-0.025,0.025
5166,-0.020,0.030
5167,-0.015,0.030
5168,-0.010,0.010
5169,-0.005,0.010
5170,0.000,0.005
5171,0.000,0.010
5172,-0.005,0.015
5173,-0.010,0.025
5174,-0.015,0.025
5175,-0.010,0.020
5176,-0.010,0.005
5177,-0.010,0.005
5178,-0.015,0.000
5179,-0.015,0.000
5180,-0.015,0.005
5181,-0.020,0.005
5182,-0.020,0.015
5183,0.010,0.030
5184,0.150,0.030
5185,0.405,-0.045
5186,0.620,-0.245
5187,0.610,-0.405
5188,0.390,-0.365
5189,0.160,-0.225
5190,0.025,-0.090
5191,-0.020,-0.015
5192,-0.035,0.010
5193,-0.045,0.025
5194,-0.050,0.025
5195,-0.050,0.030
5196,-0.045,0.030
5197,-0.045,0.030
5198,-0.040,0.030
5199,-0.040,0.035
5200,-0.040,0.035
5201,-0.035,0.045
5202,-0.035,0.040
5203,-0.030,0.050
5204,-0.025,0.050
5205,-0.020,0.055
5206,-0.020,0.055
5207,-0.020,0.055
5208,-0.010,0.060
5209,-0.010,0.065
5210,-0.005,0.065
5211,0.000,0.070
5212,0.000,0.075
5213,0.005,0.080
5214,0.010,0.085
5215,0.020,0.090
5216,0.030,0.090
5217,0.045,0.095
5218,0.055,0.100
5219,0.065,0.095
5220,0.070,0.095
5221,0.075,0.090
5222,0.075,0.085
5223,0.070,0.075
5224,0.060,0.075
5225,0.045,0.065
5226,0.030,0.055
5227,0.020,0.050
5228,0.005,0.045
5229,0.000,0.040
5230,-0.005,0.030
5231,-0.015,0.025
5232,-0.025,0.025
5233,-0.035,0.025
5234,-0.040,0.025
5235,-0.040,0.025
5236,-0.040,0.025
5237,-0.040,0.025
5238,-0.040,0.025
5239,-0.040,0.025
5240,-0.040,0.030
5241,-0.040,0.030
5242,-0.040,0.035
5243,-0.040,0.035
5244,-0.040,0.035
5245,-0.040,0.035
5246,-0.040,0.030
5247,-0.035,0.030
5248,-0.035,0.040
5249,-0.035,0.030
5250,-0.035,0.030
5251,-0.035,0.025
5252,-0.035,0.025
5253,-0.030,0.015
5254,-0.025,0.015
5255,-0.025,0.015
5256,-0.020,0.015
5257,-0.015,0.015
5258,-0.015,0.020
5259,-0.005,0.025
5260,-0.005,0.030
5261,-0.005,0.035
5262,-0.010,0.040
5263,-0.015,0.040
5264,-0.015,0.030
5265,-0.015,0.020
5266,-0.015,0.010
5267,-0.015,0.010
5268,-0.015,0.000
5269,-0.020,0.000
5270,-0.020,0.000
5271,-0.020,0.010
5272,-0.010,0.020
5273,0.075,0.015
5274,0.295,-0.015
5275,0.555,-0.185
5276,0.650,-0.400
5277,0.495,-0.450
5278,0.245,-0.325
5279,0.065,-0.170
5280,-0.005,-0.060
5281,-0.035,-0.005
5282,-0.045,0.010
5283,-0.050,0.015
5284,-0.050,0.020
5285,-0.050,0.020
5286,-0.050,0.025
5287,-0.050,0.020
5288,-0.045,0.020
5289,-0.040,0.025
5290,-0.040,0.025
5291,-0.040,0.030
5292,-0.040,0.030
5293,-0.035,0.030
5294,-0.035,0.035
5295,-0.030,0.040
5296,-0.025,0.035
5297,-0.020,0.040
5298,-0.015,0.035
5299,-0.010,0.050
5300,-0.005,0.050
5301,0.000,0.055
5302,0.000,0.060
5303,0.010,0.065
5304,0.015,0.070
5305,0.025,0.075
5306,0.035,0.080
5307,0.050,0.085
5308,0.060,0.085
5309,0.065,0.080
5310,0.070,0.080
5311,0.070,0.070
5312,0.065,0.065
5313,0.060,0.055
5314,0.050,0.050
5315,0.035,0.035
5316,0.020,0.030
5317,0.010,0.020
5318,0.000,0.015
5319,-0.005,0.015
5320,-0.015,0.010
5321,-0.020,0.010
5322,-0.030,0.000
5323,-0.035,0.005
5324,-0.040,0.000
5325,-0.040,0.000
5326,-0.040,0.000
5327,-0.040,0.000
5328,-0.040,0.000
5329,-0.040,0.000
5330,-0.040,0.000
5331,-0.040,0.005
5332,-0.040,0.005
5333,-0.040,0.005
5334,-0.040,0.005
5335,-0.040,0.005
5336,-0.040,0.010
5337,-0.040,0.005
5338,-0.035,0.005
5339,-0.035,0.005
5340,-0.030,0.000
5341,-0.025,0.000
5342,-0.025,0.000
5343,-0.025,0.000
5344,-0.025,0.000
5345,-0.020,0.000
5346,-0.015,0.000
5347,-0.005,0.000
5348,0.000,0.005
5349,0.000,0.005
5350,0.000,0.015
5351,-0.010,0.015
5352,-0.015,0.020
5353,-0.010,0.015
5354,-0.010,0.005
5355,-0.010,0.000
5356,-0.015,0.000
5357,-0.015,0.000
5358,-0.015,0.000
5359,-0.015,0.000
5360,-0.020,0.000
5361,-0.015,0.005
5362,0.045,0.010
5363,0.230,-0.010
5364,0.505,-0.140
5365,0.670,-0.385
5366,0.570,-0.485
5367,0.315,-0.385
5368,0.105,-0.215
5369,0.000,-0.095
5370,-0.030,-0.020
5371,-0.045,0.000
5372,-0.050,0.010
5373,-0.050,0.010
5374,-0.050,0.015
5375,-0.050,0.015
5376,-0.050,0.025
5377,-0.045,0.015
5378,-0.045,0.020
5379,-0.040,0.015
5380,-0.040,0.025
5381,-0.040,0.025
5382,-0.035,0.025
5383,-0.035,0.020
5384,-0.025,0.025
5385,-0.025,0.030
5386,-0.020,0.030
5387,-0.015,0.030
5388,-0.010,0.035
5389,-0.005,0.040
5390,0.000,0.045
5391,0.000,0.050
5392,0.010,0.055
5393,0.015,0.060
5394,0.025,0.065
5395,0.035,0.065
5396,0.045,0.070
5397,0.055,0.070
5398,0.060,0.070
5399,0.070,0.065
5400,0.070,0.055
5401,0.065,0.050
5402,0.060,0.040
5403,0.055,0.035
5404,0.040,0.025
5405,0.025,0.015
5406,0.015,0.010
5407,0.005,0.000
5408,0.000,0.000
5409,-0.010,0.000
5410,-0.020,0.000
5411,-0.030,0.000
5412,-0.030,0.000
5413,-0.035,0.000
5414,-0.040,0.000
5415,-0.040,0.000
5416,-0.040,0.000
5417,-0.040,0.000
5418,-0.040,0.000
5419,-0.040,0.000
5420,-0.040,0.000
5421,-0.040,0.000
5422,-0.040,0.000
5423,-0.040,0.000
5424,-0.035,0.000
5425,-0.035,0.000
5426,-0.030,0.000
5427,-0.025,0.000
5428,-0.025,0.000
5429,-0.030,0.000
5430,-0.030,0.000
5431,-0.030,0.000
5432,-0.025,0.000
5433,-0.020,0.000
5434,-0.020,0.000
5435,-0.015,0.000
5436,-0.010,0.000
5437,0.000,0.000
5438,0.000,0.005
5439,-0.005,0.010
5440,-0.010,0.015
5441,-0.015,0.015
5442,-0.010,0.010
5443,-0.010,0.000
5444,-0.015,0.000
5445,-0.015,0.000
5446,-0.015,-0.010
5447,-0.015,-0.010
5448,-0.015,-0.010
5449,-0.020,-0.005
5450,-0.010,0.000
5451,0.055,0.000
5452,0.255,-0.025
5453,0.535,-0.160
5454,0.680,-0.420
5455,0.550,-0.495
5456,0.285,-0.385
5457,0.085,-0.210
5458,0.000,-0.090
5459,-0.035,-0.020
5460,-0.045,0.000
5461,-0.050,0.005
5462,-0.050,0.005
5463,-0.050,0.005
5464,-0.050,0.010
5465,-0.050,0.005
5466,-0.045,0.005
5467,-0.040,0.010
5468,-0.040,0.010
5469,-0.040,0.015
5470,-0.035,0.015
5471,-0.035,0.020
5472,-0.030,0.025
5473,-0.025,0.025
5474,-0.025,0.025
5475,-0.020,0.030
5476,-0.015,0.030
5477,-0.010,0.030
5478,-0.005,0.040
5479,0.000,0.045
5480,0.005,0.050
5481,0.010,0.055
5482,0.015,0.060
5483,0.020,0.065
5484,0.035,0.065
5485,0.045,0.070
5486,0.055,0.070
5487,0.065,0.075
5488,0.070,0.065
5489,0.075,0.060
5490,0.070,0.050
5491,0.065,0.045
5492,0.055,0.030
5493,0.040,0.025
5494,0.025,0.015
5495,0.010,0.010
5496,0.000,0.005
5497,0.000,0.000
5498,-0.010,0.000
5499,-0.020,0.000
5500,-0.025,0.000
5501,-0.030,0.000
5502,-0.035,0.000
5503,-0.040,0.000
5504,-0.040,0.000
5505,-0.040,0.000
5506,-0.040,0.000
5507,-0.040,0.000
5508,-0.040,0.000
5509,-0.040,0.000
5510,-0.040,0.000
5511,-0.040,0.000
5512,-0.035,0.000
5513,-0.030,0.005
5514,-0.025,0.005
5515,-0.025,0.000
5516,-0.025,0.000
5517,-0.030,0.000
5518,-0.030,0.000
5519,-0.030,0.000
5520,-0.025,0.000
5521,-0.020,0.000
5522,-0.015,0.005
5523,-0.010,0.000
5524,-0.005,0.000
5525,0.000,0.005
5526,0.000,0.005
5527,0.000,0.005
5528,0.000,0.015
5529,-0.005,0.015
5530,-0.005,0.015
5531,-0.005,0.005
5532,-0.005,0.000
5533,-0.010,0.000
5534,-0.015,0.000
5535,-0.015,-0.010
5536,-0.015,0.000
5537,-0.015,-0.005
5538,-0.015,0.000
5539,0.000,0.000
5540,0.105,0.000
5541,0.355,-0.040
5542,0.625,-0.235
5543,0.670,-0.450
5544,0.455,-0.435
5545,0.200,-0.290
5546,0.040,-0.140
5547,-0.010,-0.050
5548,-0.030,-0.015
5549,-0.040,0.000
5550,-0.045,0.020
5551,-0.050,0.025
5552,-0.045,0.025
5553,-0.040,0.025
5554,-0.040,0.015
5555,-0.040,0.015
5556,-0.040,0.015
5557,-0.035,0.020
5558,-0.035,0.020
5559,-0.030,0.020
5560,-0.025,0.015
5561,-0.020,0.020
5562,-0.015,0.020
5563,-0.010,0.020
5564,-0.005,0.005
5565,-0.005,0.000
5566,0.000,0.005
5567,0.000,0.015
5568,0.005,0.025
5569,0.010,0.025
5570,0.015,0.030
5571,0.025,0.035
5572,0.040,0.040
5573,0.055,0.050
5574,0.065,0.050
5575,0.075,0.045
5576,0.085,0.040
5577,0.090,0.035
5578,0.085,0.030
5579,0.080,0.025
5580,0.070,0.015
5581,0.060,0.010
5582,0.040,0.000
5583,0.020,0.000
5584,0.010,0.000
5585,0.000,0.000
5586,0.000,-0.005
5587,-0.015,0.000
5588,-0.020,-0.005
5589,-0.030,0.000
5590,-0.030,-0.005
5591,-0.035,0.000
5592,-0.040,0.000
5593,-0.040,0.000
5594,-0.040,0.000
5595,-0.040,0.000
5596,-0.040,0.000
5597,-0.040,0.000
5598,-0.035,0.000
5599,-0.035,0.000
5600,-0.035,0.000
5601,-0.035,0.000
5602,-0.030,0.000
5603,-0.025,0.000
5604,-0.025,0.000
5605,-0.030,0.000
5606,-0.030,0.000
5607,-0.025,0.000
5608,-0.025,0.000
5609,-0.020,-0.005
5610,-0.015,0.000
5611,-0.015,0.000
5612,-0.010,0.000
5613,-0.005,0.000
5614,0.000,-0.005
5615,0.000,0.000
5616,0.000,0.000
5617,0.000,0.000
5618,0.000,0.005
5619,-0.005,0.005
5620,-0.005,0.000
5621,-0.005,0.000
5622,-0.005,-0.005
5623,-0.010,-0.010
5624,-0.015,-0.010
5625,-0.015,-0.010
5626,-0.015,-0.010
5627,-0.020,-0.010
5628,-0.010,0.000
5629,0.055,0.000
5630,0.265,-0.005
5631,0.570,-0.155
5632,0.700,-0.395
5633,0.520,-0.440
5634,0.255,-0.305
5635,0.070,-0.165
5636,0.000,-0.060
5637,-0.025,-0.015
5638,-0.035,0.000
5639,-0.040,0.000
5640,-0.040,0.000
5641,-0.045,0.000
5642,-0.040,0.000
5643,-0.040,0.000
5644,-0.040,0.000
5645,-0.040,0.005
5646,-0.035,0.005
5647,-0.035,0.005
5648,-0.030,0.010
5649,-0.025,0.010
5650,-0.020,0.010
5651,-0.020,0.010
5652,-0.015,0.015
5653,-0.010,0.015
5654,-0.005,0.015
5655,0.000,0.015
5656,0.000,0.020
5657,0.005,0.020
5658,0.010,0.030
5659,0.015,0.030
5660,0.025,0.040
5661,0.035,0.040
5662,0.045,0.045
5663,0.060,0.040
5664,0.070,0.045
5665,0.075,0.040
5666,0.080,0.045
5667,0.080,0.035
5668,0.075,0.030
5669,0.065,0.025
5670,0.050,0.020
5671,0.035,0.010
5672,0.020,0.005
5673,0.010,0.000
5674,0.000,0.000
5675,0.000,0.000
5676,-0.010,0.000
5677,-0.020,0.000
5678,-0.030,0.000
5679,-0.035,0.000
5680,-0.040,0.000
5681,-0.040,0.000
5682,-0.040,0.000
5683,-0.040,0.000
5684,-0.040,0.000
5685,-0.040,0.000
5686,-0.040,0.000
5687,-0.040,0.000
5688,-0.040,0.000
5689,-0.040,0.000
5690,-0.035,0.000
5691,-0.035,0.000
5692,-0.030,0.000
5693,-0.025,0.000
5694,-0.025,0.000
5695,-0.030,0.000
5696,-0.030,0.000
5697,-0.030,0.000
5698,-0.030,0.000
5699,-0.025,0.000
5700,-0.020,0.000
5701,-0.015,0.000
5702,-0.010,0.000
5703,-0.005,0.000
5704,0.000,0.000
5705,0.000,0.010
5706,0.000,0.010
5707,0.000,0.015
5708,-0.005,0.015
5709,-0.005,0.025
5710,-0.005,0.010
5711,-0.005,0.000
5712,-0.010,0.000
5713,-0.015,0.010
5714,-0.015,0.025
5715,-0.015,0.020
5716,-0.015,0.000
5717,-0.015,0.000
5718,-0.005,0.005
5719,0.105,0.010
5720,0.365,-0.010
5721,0.625,-0.230
5722,0.645,-0.425
5723,0.425,-0.395
5724,0.180,-0.255
5725,0.035,-0.115
5726,-0.015,-0.035
5727,-0.035,-0.005
5728,-0.045,0.005
5729,-0.050,0.010
5730,-0.050,0.015
5731,-0.050,0.020
5732,-0.045,0.025
5733,-0.040,0.025
5734,-0.040,0.030
5735,-0.040,0.030
5736,-0.040,0.035
5737,-0.035,0.030
5738,-0.035,0.035
5739,-0.030,0.035
5740,-0.025,0.040
5741,-0.020,0.045
5742,-0.015,0.045
5743,-0.010,0.055
5744,-0.005,0.055
5745,0.000,0.060
5746,0.000,0.060
5747,0.005,0.070
5748,0.010,0.070
5749,0.015,0.080
5750,0.020,0.085
5751,0.030,0.090
5752,0.040,0.095
5753,0.055,0.095
5754,0.065,0.095
5755,0.070,0.090
5756,0.075,0.085
5757,0.070,0.085
5758,0.065,0.080
5759,0.055,0.065
5760,0.050,0.065
5761,0.035,0.050
5762,0.020,0.050
5763,0.010,0.040
5764,0.000,0.040
5765,-0.005,0.030
5766,-0.015,0.030
5767,-0.025,0.025
5768,-0.030,0.025
5769,-0.035,0.025
5770,-0.040,0.025
5771,-0.040,0.025
5772,-0.040,0.025
5773,-0.040,0.030
5774,-0.040,0.030
5775,-0.040,0.030
5776,-0.040,0.030
5777,-0.040,0.030
5778,-0.040,0.025
5779,-0.040,0.025
5780,-0.040,0.030
5781,-0.035,0.030
5782,-0.035,0.025
5783,-0.035,0.025
5784,-0.030,0.025
5785,-0.025,0.025
5786,-0.025,0.025
5787,-0.025,0.025
5788,-0.030,0.020
5789,-0.025,0.015
5790,-0.025,0.020
5791,-0.020,0.020
5792,-0.015,0.025
5793,-0.005,0.015
5794,0.000,0.030
5795,0.000,0.030
5796,0.000,0.030
5797,-0.005,0.035
5798,-0.015,0.045
5799,-0.010,0.030
5800,-0.010,0.025
5801,-0.010,0.010
5802,-0.015,0.000
5803,-0.015,0.000
5804,-0.015,0.000
5805,-0.015,0.005
5806,-0.015,0.000
5807,-0.020,0.010
5808,0.000,0.015
5809,0.135,0.020
5810,0.405,-0.045
5811,0.640,-0.285
5812,0.620,-0.455
5813,0.400,-0.410
5814,0.170,-0.265
5815,0.030,-0.120
5816,-0.020,-0.035
5817,-0.035,0.000
5818,-0.045,0.010
5819,-0.050,0.015
5820,-0.050,0.015
5821,-0.050,0.020
5822,-0.050,0.025
5823,-0.045,0.025
5824,-0.040,0.025
5825,-0.040,0.025
5826,-0.040,0.025
5827,-0.040,0.025
5828,-0.035,0.030
5829,-0.035,0.030
5830,-0.030,0.035
5831,-0.025,0.035
5832,-0.020,0.040
5833,-0.015,0.035
5834,-0.010,0.035
5835,-0.005,0.040
5836,0.000,0.040
5837,0.000,0.055
5838,0.010,0.055
5839,0.015,0.065
5840,0.020,0.070
5841,0.025,0.075
5842,0.040,0.070
5843,0.050,0.075
5844,0.060,0.070
5845,0.065,0.080
5846,0.065,0.070
5847,0.070,0.065
5848,0.070,0.055
5849,0.060,0.050
5850,0.045,0.035
5851,0.030,0.030
5852,0.020,0.020
5853,0.010,0.015
5854,0.000,0.005
5855,-0.005,0.005
5856,-0.015,0.005
5857,-0.025,0.000
5858,-0.030,0.000
5859,-0.035,0.000
5860,-0.040,0.000
5861,-0.040,0.000
5862,-0.040,0.000
5863,-0.040,0.005
5864,-0.040,0.005
5865,-0.040,0.000
5866,-0.040,0.005
5867,-0.040,0.005
5868,-0.040,0.005
5869,-0.040,0.010
5870,-0.035,0.005
5871,-0.035,0.000
5872,-0.030,0.000
5873,-0.025,0.000
5874,-0.025,0.000
5875,-0.030,0.000
5876,-0.030,0.000
5877,-0.025,0.000
5878,-0.025,0.000
5879,-0.020,0.000
5880,-0.015,0.000
5881,-0.010,0.000
5882,-0.010,0.000
5883,-0.005,0.000
5884,0.000,0.005
5885,0.000,0.005
5886,0.000,0.010
5887,-0.010,0.010
5888,-0.015,0.020
5889,-0.010,0.010
5890,-0.005,0.005
5891,-0.005,0.000
5892,-0.010,0.000
5893,-0.015,-0.005
5894,-0.015,0.000
5895,-0.015,-0.005
5896,-0.015,0.000
5897,-0.015,0.000
5898,0.045,0.000
5899,0.240,-0.005
5900,0.520,-0.155
5901,0.670,-0.400
5902,0.555,-0.485
5903,0.310,-0.380
5904,0.110,-0.225
5905,0.010,-0.095
5906,-0.025,-0.020
5907,-0.040,0.000
5908,-0.045,0.005
5909,-0.050,0.005
5910,-0.050,0.010
5911,-0.045,0.010
5912,-0.045,0.015
5913,-0.040,0.015
5914,-0.040,0.020
5915,-0.040,0.020
5916,-0.040,0.025
5917,-0.035,0.025
5918,-0.030,0.025
5919,-0.025,0.025
5920,-0.025,0.030
5921,-0.020,0.030
5922,-0.015,0.035
5923,-0.010,0.035
5924,-0.005,0.040
5925,0.000,0.040
5926,0.000,0.050
5927,0.005,0.055
5928,0.010,0.060
5929,0.020,0.060
5930,0.025,0.075
5931,0.035,0.075
5932,0.045,0.075
5933,0.055,0.075
5934,0.065,0.075
5935,0.070,0.070
5936,0.075,0.060
5937,0.075,0.055
5938,0.065,0.045
5939,0.055,0.040
5940,0.040,0.025
5941,0.025,0.025
5942,0.015,0.010
5943,0.005,0.010
5944,0.000,0.005
5945,-0.005,0.005
5946,-0.015,0.000
5947,-0.025,0.000
5948,-0.030,0.000
5949,-0.035,0.000
5950,-0.040,0.000
5951,-0.040,0.000
5952,-0.040,0.000
5953,-0.040,0.000
5954,-0.040,0.000
5955,-0.040,0.000
5956,-0.040,0.000
5957,-0.040,0.000
5958,-0.040,0.000
5959,-0.035,0.000
5960,-0.035,0.000
5961,-0.030,0.000
5962,-0.025,0.000
5963,-0.025,0.000
5964,-0.030,0.000
5965,-0.030,0.000
5966,-0.030,0.000
5967,-0.025,0.000
5968,-0.020,0.000
5969,-0.015,0.000
5970,-0.010,0.000
5971,-0.005,0.000
5972,-0.005,0.000
5973,0.000,0.000
5974,0.000,0.000
5975,0.000,0.005
5976,0.000,0.010
5977,-0.005,0.010
5978,-0.010,0.010
5979,-0.005,0.000
5980,-0.005,-0.005
5981,-0.010,-0.005
5982,-0.010,-0.005
5983,-0.010,-0.010
5984,-0.010,-0.005
5985,-0.015,-0.005
5986,-0.015,0.000
5987,0.025,0.000
5988,0.200,0.000
5989,0.475,-0.125
5990,0.660,-0.365
5991,0.590,-0.490
5992,0.360,-0.415
5993,0.140,-0.255
5994,0.020,-0.120
5995,-0.020,-0.040
5996,-0.035,-0.005
5997,-0.045,0.000
5998,-0.045,0.000
5999,-0.045,0.010
6000,-0.045,0.010
6001,-0.045,0.010
6002,-0.040,0.010
6003,-0.040,0.010
6004,-0.040,0.010
6005,-0.035,0.015
6006,-0.035,0.020
6007,-0.030,0.020
6008,-0.025,0.020
6009,-0.025,0.030
6010,-0.020,0.025
6011,-0.015,0.025
6012,-0.010,0.030
6013,-0.005,0.030
6014,0.000,0.035
6015,0.000,0.040
6016,0.005,0.055
6017,0.005,0.055
6018,0.010,0.060
6019,0.020,0.060
6020,0.030,0.070
6021,0.045,0.065
6022,0.055,0.075
6023,0.065,0.075
6024,0.070,0.075
6025,0.075,0.065
6026,0.075,0.060
6027,0.070,0.050
6028,0.055,0.040
6029,0.040,0.030
6030,0.025,0.025
6031,0.015,0.015
6032,0.005,0.015
6033,0.000,0.010
6034,-0.005,0.005
6035,-0.015,0.005
6036,-0.020,0.000
6037,-0.025,0.000
6038,-0.030,0.000
6039,-0.035,0.000
6040,-0.040,0.000
6041,-0.040,0.000
6042,-0.040,0.000
6043,-0.040,0.000
6044,-0.040,0.000
6045,-0.040,0.000
6046,-0.040,0.000
6047,-0.035,0.000
6048,-0.035,0.000
6049,-0.030,0.000
6050,-0.030,0.005
6051,-0.025,0.000
6052,-0.025,0.000
6053,-0.030,0.000
6054,-0.030,0.000
6055,-0.025,0.000
6056,-0.025,0.000
6057,-0.020,0.000
6058,-0.015,0.000
6059,-0.015,0.000
6060,-0.010,0.000
6061,-0.005,0.000
6062,0.000,0.005
6063,0.000,0.010
6064,0.000,0.010
6065,0.000,0.015
6066,-0.005,0.020
6067,-0.010,0.020
6068,-0.005,0.000
6069,-0.005,0.000
6070,-0.005,0.000
6071,-0.005,-0.005
6072,-0.005,-0.005
6073,-0.005,0.000
6074,-0.010,-0.005
6075,-0.015,0.000
6076,0.025,0.000
6077,0.180,0.000
6078,0.440,-0.090
6079,0.645,-0.305
6080,0.610,-0.450
6081,0.385,-0.400
6082,0.160,-0.255
6083,0.030,-0.120
6084,-0.015,-0.040
6085,-0.030,-0.005
6086,-0.040,0.000
6087,-0.040,0.000
6088,-0.040,0.005
6089,-0.040,0.005
6090,-0.040,0.010
6091,-0.040,0.010
6092,-0.035,0.015
6093,-0.035,0.035
6094,-0.030,0.035
6095,-0.025,0.030
6096,-0.025,0.030
6097,-0.020,0.025
6098,-0.015,0.025
6099,-0.010,0.020
6100,-0.005,0.005
6101,-0.005,0.000
6102,-0.005,0.000
6103,0.000,0.010
6104,0.000,0.015
6105,0.005,0.025
6106,0.015,0.030
6107,0.020,0.035
6108,0.035,0.040
6109,0.050,0.045
6110,0.060,0.050
6111,0.065,0.050
6112,0.075,0.050
6113,0.080,0.050
6114,0.085,0.040
6115,0.085,0.030
6116,0.075,0.025
6117,0.065,0.015
6118,0.055,0.010
6119,0.035,0.005
6120,0.020,0.000
6121,0.010,0.000
6122,0.000,0.000
6123,0.000,0.000
6124,-0.010,0.000
6125,-0.020,0.000
6126,-0.025,-0.005
6127,-0.030,0.000
6128,-0.035,-0.005
6129,-0.040,-0.005
6130,-0.040,-0.010
6131,-0.040,0.000
6132,-0.040,0.000
6133,-0.035,0.000
6134,-0.035,0.000
6135,-0.035,0.000
6136,-0.035,0.000
6137,-0.030,0.000
6138,-0.025,0.000
6139,-0.025,0.000
6140,-0.030,0.000
6141,-0.030,0.000
6142,-0.030,0.000
6143,-0.030,0.000
6144,-0.030,0.000
6145,-0.030,0.000
6146,-0.025,-0.005
6147,-0.025,-0.005
6148,-0.020,-0.005
6149,-0.015,-0.005
6150,-0.010,-0.005
6151,-0.005,-0.010
6152,0.000,0.000
6153,0.000,-0.010
6154,0.000,0.000
6155,0.000,0.000
6156,0.000,0.000
6157,-0.005,0.000
6158,-0.005,0.000
6159,-0.005,-0.010
6160,-0.005,-0.015
6161,-0.005,-0.015
6162,-0.005,-0.015
6163,-0.010,-0.015
6164,-0.010,-0.010
6165,-0.005,0.000
6166,0.045,0.000
6167,0.225,-0.005
6168,0.495,-0.125
6169,0.660,-0.335
6170,0.570,-0.435
6171,0.325,-0.350
6172,0.115,-0.200
6173,0.010,-0.090
6174,-0.020,-0.035
6175,-0.035,-0.010
6176,-0.040,0.000
6177,-0.040,0.000
6178,-0.040,0.000
6179,-0.040,0.000
6180,-0.040,0.000
6181,-0.040,0.000
6182,-0.035,0.000
6183,-0.035,0.000
6184,-0.030,0.000
6185,-0.025,0.000
6186,-0.020,0.000
6187,-0.020,0.000
6188,-0.015,0.000
6189,-0.015,0.005
6190,-0.010,0.005
6191,-0.005,0.005
6192,0.000,0.005
6193,0.000,0.010
6194,0.005,0.015
6195,0.010,0.020
6196,0.015,0.025
6197,0.020,0.025
6198,0.035,0.030
6199,0.050,0.035
6200,0.060,0.040
6201,0.070,0.045
6202,0.080,0.040
6203,0.085,0.040
6204,0.085,0.035
6205,0.080,0.030
6206,0.070,0.020
6207,0.060,0.015
6208,0.045,0.010
6209,0.030,0.005
6210,0.020,0.000
6211,0.010,0.000
6212,0.000,0.000
6213,-0.005,0.000
6214,-0.015,0.000
6215,-0.020,0.000
6216,-0.030,0.000
6217,-0.035,0.000
6218,-0.040,0.000
6219,-0.040,0.000
6220,-0.040,0.000
6221,-0.040,0.000
6222,-0.040,0.000
6223,-0.040,0.000
6224,-0.035,0.000
6225,-0.035,0.000
6226,-0.030,0.000
6227,-0.025,0.000
6228,-0.025,0.000
6229,-0.030,0.000
6230,-0.030,0.000
6231,-0.030,0.000
6232,-0.030,0.000
6233,-0.030,0.000
6234,-0.030,0.000
6235,-0.030,0.000
6236,-0.025,0.000
6237,-0.025,0.000
6238,-0.020,0.000
6239,-0.015,0.000
6240,-0.010,0.000
6241,-0.005,0.000
6242,-0.005,0.000
6243,0.000,0.000
6244,0.000,0.000
6245,0.000,0.005
6246,-0.005,0.005
6247,-0.005,0.005
6248,-0.005,0.000
6249,-0.010,0.000
6250,-0.015,0.000
6251,-0.015,0.000
6252,-0.015,-0.005
6253,-0.015,0.000
6254,-0.020,0.000
6255,-0.015,0.000
6256,0.025,0.010
6257,0.180,0.010
6258,0.445,-0.075
6259,0.645,-0.280
6260,0.590,-0.425
6261,0.350,-0.350
6262,0.130,-0.185
6263,0.015,-0.060
6264,-0.020,-0.015
6265,-0.035,0.000
6266,-0.040,0.005
6267,-0.045,0.010
6268,-0.045,0.010
6269,-0.040,0.010
6270,-0.040,0.010
6271,-0.040,0.015
6272,-0.040,0.015
6273,-0.040,0.020
6274,-0.035,0.025
6275,-0.035,0.025
6276,-0.030,0.030
6277,-0.025,0.035
6278,-0.020,0.035
6279,-0.015,0.040
6280,-0.015,0.045
6281,-0.005,0.040
6282,-0.005,0.055
6283,0.000,0.055
6284,0.000,0.060
6285,0.005,0.060
6286,0.010,0.065
6287,0.015,0.070
6288,0.025,0.075
6289,0.040,0.085
6290,0.050,0.090
6291,0.060,0.090
6292,0.065,0.090
6293,0.070,0.090
6294,0.075,0.085
6295,0.075,0.080
6296,0.070,0.070
6297,0.060,0.060
6298,0.045,0.055
6299,0.030,0.050
6300,0.020,0.040
6301,0.010,0.035
6302,0.000,0.030
6303,0.000,0.030
6304,-0.015,0.030
6305,-0.020,0.030
6306,-0.030,0.025
6307,-0.035,0.020
6308,-0.040,0.025
6309,-0.040,0.020
6310,-0.040,0.020
6311,-0.040,0.020
6312,-0.040,0.025
6313,-0.040,0.025
6314,-0.040,0.030
6315,-0.040,0.030
6316,-0.040,0.030
6317,-0.035,0.035
6318,-0.035,0.035
6319,-0.030,0.035
6320,-0.025,0.035
6321,-0.025,0.030
6322,-0.030,0.030
6323,-0.030,0.030
6324,-0.030,0.030
6325,-0.030,0.030
6326,-0.030,0.025
6327,-0.030,0.025
6328,-0.025,0.025
6329,-0.020,0.025
6330,-0.015,0.025
6331,-0.010,0.025
6332,-0.005,0.030
6333,0.000,0.035
6334,0.000,0.035
6335,0.000,0.040
6336,-0.010,0.050
6337,-0.015,0.050
6338,-0.010,0.040
6339,-0.010,0.025
6340,-0.010,0.020
6341,-0.015,0.015
6342,-0.015,0.010
6343,-0.015,0.010
6344,-0.020,0.010
6345,-0.020,0.010
6346,0.000,0.025
6347,0.085,0.020
6348,0.310,-0.015
6349,0.580,-0.180
6350,0.670,-0.420
6351,0.495,-0.445
6352,0.235,-0.310
6353,0.060,-0.145
6354,-0.005,-0.045
6355,-0.030,0.005
6356,-0.040,0.015
6357,-0.045,0.025
6358,-0.045,0.025
6359,-0.045,0.030
6360,-0.040,0.030
6361,-0.040,0.030
6362,-0.040,0.030
6363,-0.040,0.030
6364,-0.040,0.030
6365,-0.035,0.035
6366,-0.035,0.030
6367,-0.030,0.035
6368,-0.025,0.035
6369,-0.020,0.040
6370,-0.015,0.040
6371,-0.010,0.045
6372,-0.005,0.050
6373,0.000,0.055
6374,0.000,0.055
6375,0.000,0.060
6376,0.005,0.065
6377,0.010,0.070
6378,0.020,0.075
6379,0.030,0.080
6380,0.040,0.080
6381,0.050,0.080
6382,0.060,0.080
6383,0.070,0.075
6384,0.075,0.070
6385,0.075,0.060
6386,0.070,0.055
6387,0.065,0.050
6388,0.060,0.040
6389,0.040,0.035
6390,0.025,0.025
6391,0.015,0.020
6392,0.005,0.010
6393,0.000,0.005
6394,-0.005,0.005
6395,-0.015,0.000
6396,-0.025,0.000
6397,-0.030,0.000
6398,-0.035,0.000
6399,-0.040,0.000
6400,-0.040,0.000
6401,-0.040,0.000
6402,-0.040,0.005
6403,-0.040,0.000
6404,-0.040,0.005
6405,-0.040,0.010
6406,-0.040,0.010
6407,-0.040,0.010
6408,-0.035,0.010
6409,-0.035,0.005
6410,-0.030,0.010
6411,-0.030,0.005
6412,-0.030,0.005
6413,-0.030,0.000
6414,-0.030,0.005
6415,-0.030,0.000
6416,-0.030,0.000
6417,-0.025,0.000
6418,-0.025,0.000
6419,-0.020,0.000
6420,-0.010,0.000
6421,-0.005,0.000
6422,-0.005,0.000
6423,0.000,0.010
6424,0.000,0.010
6425,0.000,0.015
6426,-0.005,0.020
6427,-0.010,0.025
6428,-0.010,0.020
6429,-0.010,0.010
6430,-0.010,0.000
6431,-0.015,0.000
6432,-0.015,0.000
6433,-0.010,0.000
6434,-0.010,0.000
6435,-0.015,-0.005
6436,-0.010,0.005
6437,0.035,0.005
6438,0.215,-0.005
6439,0.510,-0.125
6440,0.695,-0.395
6441,0.590,-0.520
6442,0.320,-0.395
6443,0.105,-0.230
6444,0.005,-0.090
6445,-0.020,-0.025
6446,-0.035,0.000
6447,-0.040,0.005
6448,-0.040,0.010
6449,-0.040,0.010
6450,-0.040,0.010
6451,-0.040,0.015
6452,-0.040,0.015
6453,-0.040,0.020
6454,-0.040,0.025
6455,-0.035,0.025
6456,-0.035,0.025
6457,-0.030,0.025
6458,-0.025,0.030
6459,-0.020,0.035
6460,-0.020,0.035
6461,-0.015,0.040
6462,-0.005,0.040
6463,-0.005,0.045
6464,0.000,0.050
6465,0.000,0.050
6466,0.005,0.060
6467,0.010,0.060
6468,0.015,0.070
6469,0.025,0.070
6470,0.035,0.075
6471,0.045,0.070
6472,0.055,0.075
6473,0.065,0.070
6474,0.075,0.065
6475,0.075,0.060
6476,0.070,0.055
6477,0.065,0.045
6478,0.060,0.035
6479,0.050,0.030
6480,0.030,0.015
6481,0.015,0.010
6482,0.005,0.005
6483,0.000,0.000
6484,-0.005,0.000
6485,-0.015,0.000
6486,-0.020,0.000
6487,-0.025,0.000
6488,-0.030,0.000
6489,-0.035,0.000
6490,-0.040,0.000
6491,-0.040,0.000
6492,-0.040,0.000
6493,-0.040,0.000
6494,-0.040,0.000
6495,-0.040,0.000
6496,-0.040,0.000
6497,-0.035,0.000
6498,-0.035,0.000
6499,-0.035,0.000
6500,-0.030,0.000
6501,-0.025,0.000
6502,-0.025,0.000
6503,-0.030,0.000
6504,-0.030,0.000
6505,-0.030,0.000
6506,-0.030,0.000
6507,-0.025,0.000
6508,-0.025,0.000
6509,-0.020,0.000
6510,-0.015,0.000
6511,-0.010,0.000
6512,-0.005,0.000
6513,0.000,0.000
6514,0.000,0.000
6515,0.000,0.005
6516,0.000,0.010
6517,-0.010,0.015
6518,-0.010,0.015
6519,-0.005,0.010
6520,-0.005,0.000
6521,-0.010,-0.010
6522,-0.015,-0.015
6523,-0.015,-0.010
6524,-0.015,-0.010
6525,-0.015,-0.010
6526,-0.015,-0.005
6527,0.000,0.000
6528,0.095,0.000
6529,0.350,-0.030
6530,0.635,-0.260
6531,0.680,-0.490
6532,0.470,-0.475
6533,0.220,-0.320
6534,0.055,-0.165
6535,-0.010,-0.065
6536,-0.030,-0.005
6537,-0.040,0.000
6538,-0.045,0.000
6539,-0.050,0.005
6540,-0.045,0.005
6541,-0.040,0.005
6542,-0.040,0.005
6543,-0.040,0.010
6544,-0.040,0.010
6545,-0.040,0.010
6546,-0.035,0.015
6547,-0.035,0.015
6548,-0.030,0.020
6549,-0.025,0.025
6550,-0.020,0.025
6551,-0.020,0.030
6552,-0.015,0.030
6553,-0.010,0.035
6554,-0.005,0.035
6555,0.000,0.040
6556,0.000,0.045
6557,0.005,0.050
6558,0.015,0.055
6559,0.020,0.055
6560,0.030,0.065
6561,0.040,0.065
6562,0.055,0.065
6563,0.065,0.065
6564,0.075,0.065
6565,0.075,0.060
6566,0.075,0.055
6567,0.070,0.040
6568,0.065,0.035
6569,0.050,0.020
6570,0.035,0.020
6571,0.025,0.005
6572,0.015,0.005
6573,0.005,0.000
6574,0.000,0.000
6575,-0.005,0.000
6576,-0.015,0.000
6577,-0.020,0.000
6578,-0.025,0.000
6579,-0.030,-0.005
6580,-0.035,0.000
6581,-0.040,0.000
6582,-0.040,0.000
6583,-0.040,0.000
6584,-0.040,0.000
6585,-0.040,0.000
6586,-0.040,0.000
6587,-0.035,0.000
6588,-0.035,0.000
6589,-0.030,0.000
6590,-0.025,0.000
6591,-0.025,0.000
6592,-0.030,0.000
6593,-0.030,0.000
6594,-0.030,0.000
6595,-0.025,0.000
6596,-0.025,0.000
6597,-0.020,0.000
6598,-0.020,0.000
6599,-0.020,0.000
6600,-0.015,0.000
6601,-0.010,0.000
6602,-0.005,0.000
6603,0.000,0.000
6604,0.000,0.000
6605,0.000,0.000
6606,-0.005,0.015
6607,-0.010,0.015
6608,-0.005,0.010
6609,-0.005,0.000
6610,-0.005,0.000
6611,-0.010,0.000
6612,-0.010,-0.010
6613,-0.010,-0.005
6614,-0.010,-0.005
6615,-0.010,-0.005
6616,-0.015,0.000
6617,0.010,0.000
6618,0.165,0.000
6619,0.450,-0.070
6620,0.670,-0.325
6621,0.625,-0.460
6622,0.390,-0.410
6623,0.160,-0.250
6624,0.030,-0.120
6625,-0.015,-0.035
6626,-0.030,0.000
6627,-0.035,0.000
6628,-0.040,0.005
6629,-0.040,0.010
6630,-0.040,0.010
6631,-0.040,0.010
6632,-0.040,0.010
6633,-0.040,0.010
6634,-0.035,0.015
6635,-0.035,0.015
6636,-0.030,0.015
6637,-0.025,0.020
6638,-0.020,0.015
6639,-0.015,0.020
6640,-0.015,0.020
6641,-0.010,0.035
6642,-0.005,0.050
6643,0.000,0.055
6644,0.000,0.055
6645,0.005,0.055
6646,0.010,0.050
6647,0.015,0.055
6648,0.020,0.055
6649,0.030,0.065
6650,0.045,0.065
6651,0.060,0.070
6652,0.070,0.065
6653,0.075,0.065
6654,0.085,0.060
6655,0.090,0.055
6656,0.090,0.025
6657,0.085,0.020
6658,0.070,0.015
6659,0.055,0.015
6660,0.040,0.005
6661,0.025,0.005
6662,0.010,0.000
6663,0.000,0.000
6664,0.000,0.000
6665,-0.010,0.000
6666,-0.015,0.000
6667,-0.025,0.000
6668,-0.030,0.000
6669,-0.035,0.000
6670,-0.040,0.000
6671,-0.040,0.000
6672,-0.040,0.000
6673,-0.040,0.000
6674,-0.040,0.000
6675,-0.040,0.000
6676,-0.035,0.000
6677,-0.035,0.000
6678,-0.030,0.000
6679,-0.025,0.000
6680,-0.025,0.000
6681,-0.025,0.000
6682,-0.030,0.000
6683,-0.030,0.000
6684,-0.030,0.000
6685,-0.030,0.000
6686,-0.030,0.000
6687,-0.025,0.000
6688,-0.020,0.000
6689,-0.020,0.000
6690,-0.015,0.000
6691,-0.005,0.000
6692,-0.005,0.000
6693,0.000,0.000
6694,0.000,0.000
6695,0.000,0.000
6696,0.000,0.000
6697,-0.005,0.000
6698,-0.005,0.005
6699,-0.005,0.000
6700,-0.005,0.000
6701,-0.005,-0.015
6702,-0.010,-0.015
6703,-0.015,-0.015
6704,-0.015,-0.010
6705,-0.015,-0.015
6706,-0.020,-0.005
6707,0.000,0.000
6708,0.135,0.000
6709,0.405,-0.060
6710,0.640,-0.270
6711,0.635,-0.425
6712,0.415,-0.395
6713,0.180,-0.250
6714,0.035,-0.120
6715,-0.015,-0.050
6716,-0.030,-0.015
6717,-0.040,0.000
6718,-0.045,0.000
6719,-0.045,0.000
6720,-0.040,0.000
6721,-0.040,0.000
6722,-0.040,0.000
6723,-0.040,0.000
6724,-0.035,0.000
6725,-0.035,0.000
6726,-0.030,0.000
6727,-0.025,0.000
6728,-0.025,0.000
6729,-0.020,0.000
6730,-0.015,0.000
6731,-0.010,0.000
6732,-0.005,0.005
6733,0.000,0.005
6734,0.000,0.010
6735,0.005,0.010
6736,0.010,0.015
6737,0.015,0.025
6738,0.020,0.030
6739,0.030,0.035
6740,0.045,0.035
6741,0.055,0.040
6742,0.060,0.040
6743,0.070,0.040
6744,0.080,0.035
6745,0.085,0.035
6746,0.085,0.030
6747,0.075,0.030
6748,0.065,0.010
6749,0.050,0.010
6750,0.035,0.005
6751,0.020,0.005
6752,0.010,0.000
6753,0.000,0.000
6754,0.000,-0.005
6755,-0.010,0.000
6756,-0.020,-0.005
6757,-0.030,-0.005
6758,-0.035,-0.010
6759,-0.040,-0.005
6760,-0.040,-0.005
6761,-0.040,-0.005
6762,-0.040,0.000
6763,-0.040,0.000
6764,-0.040,0.000
6765,-0.035,0.000
6766,-0.035,0.000
6767,-0.035,0.000
6768,-0.030,0.000
6769,-0.025,0.000
6770,-0.025,0.000
6771,-0.030,0.000
6772,-0.030,0.000
6773,-0.030,0.000
6774,-0.030,0.000
6775,-0.030,0.000
6776,-0.030,0.000
6777,-0.030,0.000
6778,-0.025,0.000
6779,-0.020,0.000
6780,-0.020,0.000
6781,-0.015,0.000
6782,-0.010,0.000
6783,-0.005,0.000
6784,-0.005,0.000
6785,0.000,0.000
6786,0.000,0.000
6787,0.000,0.005
6788,-0.005,0.010
6789,-0.010,0.010
6790,-0.005,0.005
6791,-0.005,0.000
6792,-0.005,0.000
6793,-0.010,-0.005
6794,-0.015,0.000
6795,-0.015,-0.010
6796,-0.015,0.000
6797,-0.020,0.000
6798,0.000,0.010
6799,0.115,0.015
6800,0.365,-0.030
6801,0.605,-0.225
