'sample interval','ECG0','ECG1'
'0.0078125 sec','mV','mV'
0,-0.005,-0.045
1,-0.015,-0.045
2,-0.015,-0.045
3,-0.015,-0.055
4,-0.005,-0.055
5,-0.005,-0.055
6,-0.015,-0.065
7,-0.025,-0.075
8,-0.005,-0.075
9,-0.025,-0.075
10,-0.015,-0.085
11,-0.015,-0.105
12,0.015,-0.075
13,0.115,0.015
14,0.135,0.005
15,0.075,-0.055
16,0.035,-0.075
17,-0.005,-0.105
18,-0.015,-0.105
19,-0.035,-0.115
20,-0.045,-0.125
21,-0.035,-0.125
22,-0.055,-0.115
23,-0.045,-0.125
24,-0.045,-0.125
25,-0.065,-0.125
26,-0.045,-0.125
27,-0.045,-0.125
28,-0.045,-0.135
29,-0.035,-0.125
30,-0.035,-0.125
31,-0.035,-0.115
32,0.005,-0.115
33,-0.055,-0.065
34,-0.255,0.035
35,-0.165,0.165
36,0.385,0.425
37,1.375,-0.655
38,1.775,-1.005
39,0.515,-0.915
40,-0.445,-0.915
41,-0.465,-0.495
42,-0.205,-0.185
43,-0.055,-0.055
44,-0.025,-0.015
45,-0.045,-0.035
46,-0.055,-0.045
47,-0.055,-0.055
48,-0.045,-0.035
49,-0.055,-0.025
50,-0.045,-0.025
51,-0.055,-0.035
52,-0.045,-0.025
53,-0.025,-0.015
54,-0.025,-0.015
55,-0.025,-0.025
56,-0.015,-0.015
57,0.005,-0.005
58,0.015,-0.005
59,0.015,-0.005
60,0.035,0.015
61,0.045,0.025
62,0.055,0.025
63,0.075,0.025
64,0.095,0.035
65,0.115,0.055
66,0.145,0.045
67,0.175,0.045
68,0.205,0.055
69,0.235,0.075
70,0.275,0.065
71,0.305,0.055
72,0.335,0.065
73,0.365,0.085
74,0.385,0.085
75,0.395,0.075
76,0.385,0.085
77,0.355,0.105
78,0.295,0.085
79,0.235,0.045
80,0.155,0.025
81,0.115,-0.005
82,0.065,-0.035
83,0.025,-0.065
84,0.005,-0.085
85,-0.015,-0.085
86,-0.025,-0.095
87,-0.025,-0.105
88,-0.045,-0.105
89,-0.035,-0.095
90,-0.035,-0.105
91,-0.025,-0.095
92,-0.025,-0.085
93,-0.025,-0.085
94,-0.025,-0.085
95,-0.025,-0.095
96,-0.045,-0.085
97,-0.035,-0.075
98,-0.035,-0.085
99,-0.035,-0.095
100,-0.025,-0.085
101,-0.035,-0.085
102,-0.045,-0.085
103,-0.045,-0.105
104,-0.075,-0.105
105,-0.055,-0.115
106,-0.055,-0.105
107,-0.065,-0.125
108,-0.065,-0.135
109,-0.065,-0.115
110,-0.075,-0.125
111,-0.075,-0.145
112,-0.085,-0.145
113,-0.085,-0.135
114,-0.085,-0.135
115,-0.085,-0.155
116,-0.075,-0.145
117,-0.075,-0.125
118,-0.085,-0.145
119,-0.085,-0.165
120,-0.085,-0.155
121,-0.015,-0.085
122,0.035,-0.055
123,0.015,-0.105
124,-0.025,-0.125
125,-0.045,-0.125
126,-0.085,-0.145
127,-0.085,-0.165
128,-0.135,-0.165
129,-0.135,-0.155
130,-0.135,-0.165
131,-0.135,-0.165
132,-0.125,-0.165
133,-0.135,-0.155
134,-0.135,-0.155
135,-0.145,-0.165
136,-0.155,-0.165
137,-0.145,-0.145
138,-0.135,-0.155
139,-0.135,-0.155
140,-0.115,-0.145
141,-0.095,-0.125
142,-0.195,-0.065
143,-0.415,-0.025
144,-0.245,0.225
145,0.415,0.315
146,1.435,-0.695
147,1.505,-1.015
148,0.245,-0.975
149,-0.575,-0.925
150,-0.575,-0.575
151,-0.375,-0.285
152,-0.205,-0.125
153,-0.155,-0.045
154,-0.165,-0.065
155,-0.195,-0.085
156,-0.185,-0.075
157,-0.175,-0.055
158,-0.185,-0.055
159,-0.195,-0.055
160,-0.165,-0.055
161,-0.195,-0.055
162,-0.165,-0.045
163,-0.165,-0.045
164,-0.165,-0.045
165,-0.145,-0.035
166,-0.145,-0.035
167,-0.145,-0.025
168,-0.145,-0.035
169,-0.145,-0.025
170,-0.115,-0.005
171,-0.115,-0.005
172,-0.095,-0.015
173,-0.075,0.005
174,-0.055,0.015
175,-0.045,0.015
176,-0.015,0.015
177,-0.005,0.025
178,0.035,0.035
179,0.065,0.035
180,0.105,0.035
181,0.145,0.045
182,0.175,0.045
183,0.205,0.045
184,0.235,0.055
185,0.225,0.065
186,0.235,0.085
187,0.205,0.085
188,0.165,0.065
189,0.105,0.065
190,0.035,0.045
191,-0.035,-0.005
192,-0.075,-0.035
193,-0.135,-0.055
194,-0.145,-0.065
195,-0.165,-0.085
196,-0.175,-0.085
197,-0.175,-0.085
198,-0.175,-0.095
199,-0.185,-0.095
200,-0.175,-0.095
201,-0.195,-0.075
202,-0.185,-0.075
203,-0.195,-0.085
204,-0.195,-0.085
205,-0.175,-0.075
206,-0.185,-0.075
207,-0.185,-0.075
208,-0.195,-0.085
209,-0.195,-0.075
210,-0.205,-0.075
211,-0.205,-0.095
212,-0.195,-0.095
213,-0.205,-0.095
214,-0.215,-0.095
215,-0.215,-0.115
216,-0.245,-0.115
217,-0.225,-0.105
218,-0.225,-0.115
219,-0.225,-0.135
220,-0.225,-0.125
221,-0.225,-0.125
222,-0.235,-0.125
223,-0.225,-0.135
224,-0.255,-0.125
225,-0.235,-0.125
226,-0.235,-0.125
227,-0.235,-0.135
228,-0.225,-0.135
229,-0.245,-0.125
230,-0.235,-0.115
231,-0.245,-0.145
232,-0.255,-0.135
233,-0.245,-0.125
234,-0.245,-0.125
235,-0.235,-0.145
236,-0.225,-0.135
237,-0.235,-0.125
238,-0.235,-0.125
239,-0.235,-0.135
240,-0.255,-0.125
241,-0.225,-0.115
242,-0.225,-0.115
243,-0.225,-0.135
244,-0.205,-0.145
245,-0.195,-0.115
246,-0.125,-0.045
247,-0.085,-0.035
248,-0.135,-0.085
249,-0.175,-0.095
250,-0.175,-0.095
251,-0.195,-0.125
252,-0.205,-0.115
253,-0.215,-0.115
254,-0.225,-0.115
255,-0.245,-0.135
256,-0.225,-0.125
257,-0.225,-0.105
258,-0.225,-0.115
259,-0.235,-0.135
260,-0.225,-0.125
261,-0.225,-0.105
262,-0.215,-0.105
263,-0.225,-0.115
264,-0.205,-0.115
265,-0.195,-0.095
266,-0.195,-0.085
267,-0.415,0.005
268,-0.425,0.045
269,0.025,0.505
270,0.965,-0.315
271,1.625,-0.885
272,0.575,-0.875
273,-0.545,-0.935
274,-0.665,-0.595
275,-0.445,-0.265
276,-0.265,-0.085
277,-0.185,0.015
278,-0.225,-0.015
279,-0.235,-0.035
280,-0.245,-0.025
281,-0.235,-0.015
282,-0.225,-0.005
283,-0.225,-0.025
284,-0.215,-0.005
285,-0.215,0.005
286,-0.215,0.005
287,-0.205,-0.005
288,-0.205,0.005
289,-0.195,0.015
290,-0.175,0.015
291,-0.165,0.005
292,-0.145,0.015
293,-0.135,0.035
294,-0.125,0.025
295,-0.115,0.025
296,-0.115,0.045
297,-0.065,0.055
298,-0.055,0.055
299,-0.035,0.045
300,0.015,0.065
301,0.035,0.075
302,0.065,0.075
303,0.105,0.065
304,0.115,0.065
305,0.175,0.075
306,0.205,0.085
307,0.235,0.075
308,0.265,0.095
309,0.265,0.105
310,0.235,0.115
311,0.205,0.105
312,0.135,0.095
313,0.095,0.095
314,0.045,0.065
315,-0.015,0.025
316,-0.055,0.005
317,-0.085,-0.005
318,-0.115,-0.025
319,-0.145,-0.055
320,-0.155,-0.055
321,-0.155,-0.045
322,-0.155,-0.045
323,-0.165,-0.065
324,-0.155,-0.055
325,-0.165,-0.045
326,-0.155,-0.045
327,-0.155,-0.055
328,-0.155,-0.045
329,-0.155,-0.035
330,-0.155,-0.035
331,-0.165,-0.055
332,-0.165,-0.035
333,-0.145,-0.035
334,-0.155,-0.045
335,-0.175,-0.055
336,-0.165,-0.055
337,-0.175,-0.055
338,-0.185,-0.065
339,-0.185,-0.075
340,-0.175,-0.075
341,-0.165,-0.065
342,-0.185,-0.085
343,-0.185,-0.095
344,-0.175,-0.095
345,-0.185,-0.085
346,-0.175,-0.085
347,-0.175,-0.105
348,-0.175,-0.095
349,-0.185,-0.095
350,-0.165,-0.085
351,-0.185,-0.105
352,-0.175,-0.105
353,-0.155,-0.105
354,-0.115,-0.065
355,-0.055,-0.015
356,-0.065,-0.035
357,-0.105,-0.085
358,-0.125,-0.075
359,-0.165,-0.105
360,-0.175,-0.115
361,-0.205,-0.105
362,-0.195,-0.105
363,-0.195,-0.135
364,-0.185,-0.115
365,-0.185,-0.105
366,-0.195,-0.105
367,-0.195,-0.135
368,-0.205,-0.115
369,-0.195,-0.105
370,-0.185,-0.105
371,-0.185,-0.115
372,-0.165,-0.115
373,-0.165,-0.095
374,-0.135,-0.095
375,-0.275,-0.025
376,-0.475,0.025
377,-0.245,0.275
378,0.505,0.385
379,1.615,-0.555
380,1.195,-0.825
381,-0.045,-0.905
382,-0.635,-0.775
383,-0.535,-0.465
384,-0.355,-0.205
385,-0.205,-0.075
386,-0.165,-0.015
387,-0.175,-0.035
388,-0.185,-0.035
389,-0.185,-0.035
390,-0.195,-0.035
391,-0.185,-0.035
392,-0.205,-0.035
393,-0.185,-0.025
394,-0.175,-0.015
395,-0.165,-0.025
396,-0.135,-0.015
397,-0.145,-0.015
398,-0.135,-0.005
399,-0.135,-0.015
400,-0.145,-0.005
401,-0.115,-0.005
402,-0.095,0.005
403,-0.095,-0.005
404,-0.085,0.005
405,-0.055,0.025
406,-0.035,0.025
407,-0.025,0.015
408,-0.005,0.025
409,0.025,0.045
410,0.045,0.045
411,0.075,0.025
412,0.105,0.035
413,0.145,0.045
414,0.185,0.045
415,0.195,0.035
416,0.255,0.045
417,0.265,0.065
418,0.285,0.065
419,0.255,0.075
420,0.255,0.085
421,0.215,0.095
422,0.155,0.085
423,0.095,0.065
424,0.045,0.045
425,-0.015,0.025
426,-0.045,0.005
427,-0.075,-0.025
428,-0.115,-0.045
429,-0.115,-0.045
430,-0.125,-0.045
431,-0.135,-0.055
432,-0.135,-0.055
433,-0.155,-0.045
434,-0.125,-0.035
435,-0.125,-0.045
436,-0.135,-0.045
437,-0.125,-0.045
438,-0.125,-0.035
439,-0.135,-0.045
440,-0.125,-0.045
441,-0.145,-0.045
442,-0.145,-0.045
443,-0.145,-0.055
444,-0.135,-0.055
445,-0.125,-0.055
446,-0.145,-0.055
447,-0.155,-0.075
448,-0.145,-0.075
449,-0.145,-0.075
450,-0.145,-0.065
451,-0.155,-0.095
452,-0.125,-0.085
453,-0.135,-0.085
454,-0.145,-0.095
455,-0.135,-0.125
456,-0.115,-0.095
457,-0.045,-0.005
458,-0.005,-0.005
459,-0.055,-0.075
460,-0.065,-0.065
461,-0.095,-0.105
462,-0.135,-0.105
463,-0.155,-0.125
464,-0.155,-0.125
465,-0.155,-0.115
466,-0.165,-0.125
467,-0.155,-0.125
468,-0.145,-0.125
469,-0.155,-0.115
470,-0.155,-0.125
471,-0.145,-0.125
472,-0.145,-0.115
473,-0.135,-0.115
474,-0.135,-0.125
475,-0.135,-0.125
476,-0.125,-0.115
477,-0.105,-0.095
478,-0.165,-0.055
479,-0.405,0.015
480,-0.275,0.195
481,0.305,0.435
482,1.415,-0.355
483,1.735,-0.825
484,0.285,-0.845
485,-0.485,-0.785
486,-0.575,-0.545
487,-0.385,-0.305
488,-0.215,-0.125
489,-0.115,-0.025
490,-0.125,-0.035
491,-0.145,-0.065
492,-0.135,-0.055
493,-0.135,-0.045
494,-0.135,-0.045
495,-0.135,-0.055
496,-0.145,-0.045
497,-0.115,-0.025
498,-0.115,-0.025
499,-0.115,-0.035
500,-0.105,-0.035
501,-0.085,-0.025
502,-0.075,-0.025
503,-0.085,-0.025
504,-0.055,-0.025
505,-0.045,-0.015
506,-0.035,-0.015
507,-0.035,-0.015
508,-0.015,-0.015
509,0.015,0.005
510,0.035,0.005
511,0.045,0.005
512,0.085,0.015
513,0.085,0.005
514,0.125,0.025
515,0.155,0.025
516,0.195,0.015
517,0.215,0.025
518,0.255,0.035
519,0.275,0.025
520,0.305,0.035
521,0.305,0.035
522,0.335,0.065
523,0.315,0.075
524,0.275,0.065
525,0.255,0.065
526,0.185,0.065
527,0.115,0.035
528,0.065,0.005
529,0.015,-0.015
530,-0.005,-0.035
531,-0.035,-0.055
532,-0.045,-0.065
533,-0.045,-0.075
534,-0.045,-0.065
535,-0.055,-0.065
536,-0.055,-0.075
537,-0.065,-0.065
538,-0.045,-0.045
539,-0.045,-0.055
540,-0.035,-0.055
541,-0.025,-0.055
542,-0.025,-0.045
543,-0.035,-0.045
544,-0.035,-0.055
545,-0.055,-0.055
546,-0.035,-0.045
547,-0.025,-0.055
548,-0.035,-0.065
549,-0.035,-0.065
550,-0.045,-0.065
551,-0.045,-0.075
552,-0.045,-0.095
553,-0.055,-0.085
554,-0.045,-0.085
555,-0.055,-0.095
556,-0.045,-0.095
557,-0.045,-0.105
558,-0.055,-0.105
559,-0.045,-0.115
560,0.025,-0.055
561,0.085,-0.005
562,0.055,-0.045
563,-0.005,-0.085
564,-0.005,-0.105
565,-0.025,-0.105
566,-0.045,-0.105
567,-0.065,-0.125
568,-0.095,-0.135
569,-0.075,-0.115
570,-0.075,-0.125
571,-0.075,-0.135
572,-0.065,-0.125
573,-0.065,-0.115
574,-0.075,-0.115
575,-0.075,-0.125
576,-0.085,-0.125
577,-0.065,-0.115
578,-0.065,-0.115
579,-0.055,-0.125
580,-0.025,-0.115
581,-0.045,-0.085
582,-0.235,0.025
583,-0.265,0.065
584,0.145,0.485
585,0.945,-0.245
586,1.845,-0.885
587,1.025,-0.925
588,-0.235,-0.935
589,-0.525,-0.665
590,-0.345,-0.295
591,-0.145,-0.125
592,-0.065,-0.025
593,-0.065,-0.025
594,-0.085,-0.035
595,-0.085,-0.045
596,-0.075,-0.035
597,-0.075,-0.025
598,-0.075,-0.025
599,-0.065,-0.035
600,-0.085,-0.025
601,-0.055,-0.015
602,-0.055,-0.005
603,-0.055,-0.015
604,-0.035,-0.005
605,-0.025,0.015
606,-0.025,0.005
607,-0.015,-0.005
608,-0.015,0.015
609,0.015,0.035
610,0.025,0.035
611,0.035,0.025
612,0.065,0.035
613,0.075,0.055
614,0.095,0.055
615,0.115,0.045
616,0.135,0.065
617,0.185,0.075
618,0.225,0.085
619,0.245,0.075
620,0.295,0.085
621,0.315,0.095
622,0.335,0.095
623,0.355,0.085
624,0.335,0.095
625,0.335,0.105
626,0.295,0.095
627,0.245,0.065
628,0.205,0.055
629,0.135,0.035
630,0.065,-0.005
631,0.025,-0.035
632,-0.025,-0.055
633,-0.035,-0.065
634,-0.055,-0.085
635,-0.065,-0.105
636,-0.055,-0.095
637,-0.065,-0.095
638,-0.065,-0.085
639,-0.075,-0.105
640,-0.085,-0.095
641,-0.075,-0.075
642,-0.065,-0.065
643,-0.065,-0.085
644,-0.055,-0.085
645,-0.065,-0.065
646,-0.075,-0.065
647,-0.075,-0.075
648,-0.085,-0.075
649,-0.075,-0.065
650,-0.085,-0.075
651,-0.085,-0.095
652,-0.085,-0.085
653,-0.085,-0.085
654,-0.105,-0.095
655,-0.105,-0.105
656,-0.115,-0.115
657,-0.105,-0.105
658,-0.115,-0.115
659,-0.115,-0.125
660,-0.095,-0.125
661,-0.115,-0.115
662,-0.115,-0.115
663,-0.115,-0.125
664,-0.135,-0.125
665,-0.115,-0.125
666,-0.125,-0.125
667,-0.115,-0.135
668,-0.115,-0.125
669,-0.115,-0.125
670,-0.125,-0.125
671,-0.125,-0.145
672,-0.145,-0.135
673,-0.125,-0.125
674,-0.125,-0.125
675,-0.135,-0.135
676,-0.115,-0.125
677,-0.125,-0.115
678,-0.125,-0.125
679,-0.135,-0.135
680,-0.135,-0.125
681,-0.125,-0.115
682,-0.125,-0.115
683,-0.125,-0.135
684,-0.115,-0.125
685,-0.125,-0.115
686,-0.125,-0.125
687,-0.125,-0.135
688,-0.135,-0.125
689,-0.125,-0.115
690,-0.125,-0.105
691,-0.125,-0.125
692,-0.135,-0.115
693,-0.115,-0.105
694,-0.125,-0.115
695,-0.135,-0.125
696,-0.115,-0.125
697,-0.125,-0.115
698,-0.125,-0.105
699,-0.125,-0.125
700,-0.125,-0.115
701,-0.115,-0.115
702,-0.115,-0.105
703,-0.125,-0.125
704,-0.115,-0.115
705,-0.125,-0.105
706,-0.125,-0.105
707,-0.125,-0.115
708,-0.105,-0.115
709,-0.115,-0.105
710,-0.115,-0.105
711,-0.125,-0.115
712,-0.125,-0.115
713,-0.115,-0.095
714,-0.115,-0.105
715,-0.125,-0.115
716,-0.105,-0.115
717,-0.115,-0.105
718,-0.125,-0.105
719,-0.125,-0.115
720,-0.135,-0.105
721,-0.115,-0.095
722,-0.115,-0.105
723,-0.135,-0.125
724,-0.125,-0.115
725,-0.135,-0.125
726,-0.115,-0.115
727,-0.055,-0.065
728,-0.075,-0.075
729,-0.095,-0.115
730,-0.075,-0.085
731,-0.095,-0.115
732,-0.085,-0.095
733,-0.115,-0.095
734,-0.115,-0.105
735,-0.115,-0.105
736,-0.135,-0.095
737,-0.115,-0.095
738,-0.115,-0.085
739,-0.105,-0.095
740,-0.095,-0.085
741,-0.095,-0.075
742,-0.075,-0.075
743,-0.135,-0.045
744,-0.355,0.035
745,-0.235,0.125
746,0.205,0.475
747,1.075,-0.475
748,1.745,-0.925
749,0.765,-0.855
750,-0.395,-0.935
751,-0.595,-0.665
752,-0.385,-0.285
753,-0.185,-0.085
754,-0.105,0.015
755,-0.125,-0.005
756,-0.135,-0.015
757,-0.135,-0.005
758,-0.145,-0.005
759,-0.145,-0.015
760,-0.135,-0.005
761,-0.145,0.005
762,-0.135,0.005
763,-0.145,0.005
764,-0.135,-0.005
765,-0.125,0.015
766,-0.125,0.015
767,-0.125,0.005
768,-0.115,0.015
769,-0.125,0.015
770,-0.105,0.025
771,-0.085,0.015
772,-0.075,0.025
773,-0.045,0.035
774,-0.045,0.045
775,-0.035,0.045
776,-0.005,0.045
777,0.005,0.055
778,0.035,0.065
779,0.065,0.065
780,0.095,0.065
781,0.135,0.075
782,0.155,0.085
783,0.195,0.085
784,0.225,0.085
785,0.245,0.085
786,0.295,0.105
787,0.315,0.105
788,0.325,0.105
789,0.305,0.115
790,0.255,0.115
791,0.185,0.085
792,0.155,0.065
793,0.065,0.035
794,0.015,0.015
795,-0.025,-0.015
796,-0.065,-0.035
797,-0.085,-0.055
798,-0.105,-0.055
799,-0.115,-0.075
800,-0.115,-0.075
801,-0.125,-0.065
802,-0.125,-0.065
803,-0.135,-0.075
804,-0.115,-0.065
805,-0.115,-0.055
806,-0.115,-0.045
807,-0.125,-0.065
808,-0.135,-0.055
809,-0.125,-0.045
810,-0.115,-0.055
811,-0.125,-0.075
812,-0.115,-0.065
813,-0.125,-0.065
814,-0.125,-0.065
815,-0.135,-0.085
816,-0.155,-0.095
817,-0.145,-0.085
818,-0.135,-0.095
819,-0.145,-0.115
820,-0.145,-0.105
821,-0.155,-0.105
822,-0.155,-0.105
823,-0.155,-0.115
824,-0.165,-0.115
825,-0.155,-0.105
826,-0.165,-0.125
827,-0.155,-0.135
828,-0.145,-0.125
829,-0.155,-0.115
830,-0.155,-0.115
831,-0.155,-0.135
832,-0.165,-0.125
833,-0.155,-0.115
834,-0.145,-0.115
835,-0.155,-0.135
836,-0.145,-0.125
837,-0.155,-0.115
838,-0.155,-0.115
839,-0.155,-0.135
840,-0.165,-0.125
841,-0.145,-0.115
842,-0.145,-0.115
843,-0.145,-0.125
844,-0.145,-0.125
845,-0.135,-0.115
846,-0.145,-0.115
847,-0.145,-0.125
848,-0.135,-0.115
849,-0.145,-0.115
850,-0.135,-0.115
851,-0.145,-0.125
852,-0.135,-0.125
853,-0.125,-0.115
854,-0.135,-0.115
855,-0.135,-0.125
856,-0.115,-0.125
857,-0.135,-0.115
858,-0.125,-0.105
859,-0.135,-0.115
860,-0.115,-0.125
861,-0.115,-0.115
862,-0.125,-0.105
863,-0.125,-0.115
864,-0.105,-0.115
865,-0.135,-0.105
866,-0.115,-0.105
867,-0.125,-0.125
868,-0.115,-0.135
869,-0.125,-0.145
870,-0.095,-0.105
871,-0.035,-0.075
872,-0.035,-0.095
873,-0.095,-0.125
874,-0.065,-0.095
875,-0.085,-0.115
876,-0.085,-0.105
877,-0.095,-0.115
878,-0.105,-0.105
879,-0.105,-0.115
880,-0.105,-0.115
881,-0.105,-0.095
882,-0.095,-0.095
883,-0.095,-0.095
884,-0.095,-0.095
885,-0.075,-0.075
886,-0.055,-0.075
887,-0.095,-0.055
888,-0.325,0.035
889,-0.235,0.155
890,0.305,0.475
891,1.305,-0.525
892,1.685,-0.905
893,0.515,-0.825
894,-0.455,-0.895
895,-0.535,-0.555
896,-0.295,-0.225
897,-0.115,-0.045
898,-0.075,0.025
899,-0.095,-0.005
900,-0.085,-0.005
901,-0.095,0.005
902,-0.095,0.005
903,-0.095,-0.005
904,-0.105,0.005
905,-0.095,0.005
906,-0.085,0.015
907,-0.095,0.005
908,-0.075,0.005
909,-0.075,0.015
910,-0.075,0.015
911,-0.065,0.015
912,-0.075,0.015
913,-0.045,0.035
914,-0.025,0.035
915,-0.015,0.025
916,0.005,0.045
917,0.015,0.055
918,0.015,0.045
919,0.045,0.045
920,0.055,0.055
921,0.095,0.075
922,0.115,0.075
923,0.145,0.065
924,0.195,0.075
925,0.225,0.095
926,0.245,0.085
927,0.285,0.075
928,0.295,0.085
929,0.335,0.105
930,0.355,0.105
931,0.335,0.095
932,0.325,0.105
933,0.255,0.105
934,0.195,0.085
935,0.135,0.045
936,0.055,0.025
937,0.015,-0.005
938,-0.025,-0.025
939,-0.065,-0.055
940,-0.075,-0.065
941,-0.085,-0.065
942,-0.105,-0.075
943,-0.115,-0.095
944,-0.125,-0.085
945,-0.105,-0.075
946,-0.095,-0.075
947,-0.105,-0.075
948,-0.095,-0.075
949,-0.095,-0.065
950,-0.105,-0.065
951,-0.095,-0.075
952,-0.125,-0.065
953,-0.115,-0.065
954,-0.105,-0.065
955,-0.105,-0.085
956,-0.095,-0.075
957,-0.105,-0.085
958,-0.115,-0.085
959,-0.115,-0.095
960,-0.145,-0.105
961,-0.125,-0.095
962,-0.125,-0.105
963,-0.135,-0.115
964,-0.125,-0.125
965,-0.135,-0.105
966,-0.135,-0.115
967,-0.135,-0.125
968,-0.145,-0.125
969,-0.145,-0.115
970,-0.145,-0.125
971,-0.145,-0.135
972,-0.115,-0.135
973,-0.135,-0.125
974,-0.145,-0.125
975,-0.145,-0.145
976,-0.155,-0.135
977,-0.135,-0.125
978,-0.145,-0.125
979,-0.145,-0.135
980,-0.135,-0.135
981,-0.135,-0.125
982,-0.125,-0.125
983,-0.125,-0.115
984,-0.135,-0.145
985,-0.155,-0.135
986,-0.125,-0.125
987,-0.135,-0.135
988,-0.125,-0.135
989,-0.115,-0.125
990,-0.145,-0.145
991,-0.155,-0.155
992,-0.115,-0.155
993,-0.125,-0.145
994,-0.075,-0.105
995,-0.035,-0.095
996,-0.065,-0.145
997,-0.065,-0.115
998,-0.095,-0.125
999,-0.115,-0.135
1000,-0.135,-0.135
1001,-0.125,-0.125
1002,-0.125,-0.125
1003,-0.115,-0.145
1004,-0.105,-0.125
1005,-0.115,-0.115
1006,-0.115,-0.125
1007,-0.115,-0.135
1008,-0.125,-0.125
1009,-0.095,-0.115
1010,-0.075,-0.105
1011,-0.095,-0.095
1012,-0.345,-0.005
1013,-0.315,0.065
1014,0.095,0.445
1015,1.105,-0.215
1016,1.745,-0.805
1017,0.835,-0.815
1018,-0.295,-0.935
1019,-0.585,-0.705
1020,-0.425,-0.385
1021,-0.225,-0.175
1022,-0.105,-0.045
1023,-0.105,-0.045
1024,-0.115,-0.055
1025,-0.125,-0.055
1026,-0.115,-0.055
1027,-0.125,-0.055
1028,-0.115,-0.055
1029,-0.115,-0.035
1030,-0.115,-0.035
1031,-0.105,-0.055
1032,-0.105,-0.045
1033,-0.115,-0.045
1034,-0.105,-0.025
1035,-0.095,-0.045
1036,-0.085,-0.045
1037,-0.065,-0.035
1038,-0.065,-0.025
1039,-0.055,-0.025
1040,-0.045,-0.025
1041,-0.045,-0.015
1042,-0.015,-0.005
1043,-0.005,-0.005
1044,0.015,-0.015
1045,0.045,-0.005
1046,0.065,0.015
1047,0.085,0.005
1048,0.145,0.005
1049,0.155,0.025
1050,0.195,0.025
1051,0.225,0.025
1052,0.255,0.015
1053,0.285,0.035
1054,0.325,0.045
1055,0.335,0.035
1056,0.335,0.055
1057,0.295,0.055
1058,0.245,0.065
1059,0.175,0.045
1060,0.115,0.025
1061,0.065,-0.005
1062,-0.015,-0.025
1063,-0.055,-0.065
1064,-0.075,-0.085
1065,-0.105,-0.085
1066,-0.105,-0.085
1067,-0.135,-0.105
1068,-0.125,-0.105
1069,-0.125,-0.095
1070,-0.125,-0.095
1071,-0.125,-0.105
1072,-0.145,-0.095
1073,-0.125,-0.085
1074,-0.125,-0.085
1075,-0.135,-0.105
1076,-0.105,-0.085
1077,-0.115,-0.085
1078,-0.135,-0.095
1079,-0.115,-0.105
1080,-0.125,-0.105
1081,-0.125,-0.105
1082,-0.145,-0.105
1083,-0.135,-0.135
1084,-0.125,-0.115
1085,-0.135,-0.115
1086,-0.145,-0.125
1087,-0.145,-0.135
1088,-0.145,-0.135
1089,-0.135,-0.135
1090,-0.145,-0.135
1091,-0.155,-0.155
1092,-0.145,-0.135
1093,-0.145,-0.135
1094,-0.145,-0.135
1095,-0.155,-0.155
1096,-0.165,-0.145
1097,-0.165,-0.155
1098,-0.165,-0.155
1099,-0.165,-0.185
1100,-0.165,-0.195
1101,-0.145,-0.155
1102,-0.105,-0.115
1103,-0.075,-0.125
1104,-0.095,-0.155
1105,-0.105,-0.135
1106,-0.135,-0.145
1107,-0.145,-0.155
1108,-0.165,-0.165
1109,-0.155,-0.155
1110,-0.165,-0.145
1111,-0.175,-0.165
1112,-0.155,-0.165
1113,-0.175,-0.165
1114,-0.165,-0.145
1115,-0.165,-0.155
1116,-0.155,-0.165
1117,-0.145,-0.155
1118,-0.145,-0.135
1119,-0.145,-0.135
1120,-0.135,-0.155
1121,-0.125,-0.125
1122,-0.315,-0.035
1123,-0.395,0.025
1124,-0.115,0.325
1125,0.715,0.095
1126,1.765,-0.725
1127,1.205,-0.845
1128,-0.175,-0.925
1129,-0.615,-0.685
1130,-0.505,-0.425
1131,-0.295,-0.215
1132,-0.165,-0.095
1133,-0.145,-0.065
1134,-0.145,-0.075
1135,-0.165,-0.085
1136,-0.165,-0.085
1137,-0.165,-0.085
1138,-0.165,-0.065
1139,-0.145,-0.055
1140,-0.145,-0.075
1141,-0.135,-0.065
1142,-0.135,-0.045
1143,-0.145,-0.055
1144,-0.125,-0.065
1145,-0.125,-0.055
1146,-0.115,-0.035
1147,-0.095,-0.035
1148,-0.085,-0.045
1149,-0.075,-0.035
1150,-0.055,-0.025
1151,-0.045,-0.015
1152,-0.015,-0.015
1153,-0.015,-0.005
1154,0.035,0.015
1155,0.055,0.005
1156,0.085,0.015
1157,0.135,0.025
1158,0.155,0.035
1159,0.185,0.025
1160,0.225,0.025
1161,0.245,0.045
1162,0.275,0.055
1163,0.295,0.045
1164,0.295,0.055
1165,0.255,0.075
1166,0.205,0.065
1167,0.145,0.025
1168,0.065,0.015
1169,0.025,-0.005
1170,-0.025,-0.035
1171,-0.065,-0.075
1172,-0.085,-0.075
1173,-0.105,-0.075
1174,-0.125,-0.095
1175,-0.125,-0.105
1176,-0.135,-0.095
1177,-0.125,-0.095
1178,-0.125,-0.085
1179,-0.125,-0.095
1180,-0.115,-0.085
1181,-0.105,-0.075
1182,-0.125,-0.075
1183,-0.115,-0.085
1184,-0.135,-0.065
1185,-0.125,-0.065
1186,-0.125,-0.065
1187,-0.135,-0.085
1188,-0.115,-0.075
1189,-0.135,-0.075
1190,-0.135,-0.075
1191,-0.135,-0.095
1192,-0.145,-0.095
1193,-0.145,-0.095
1194,-0.135,-0.095
1195,-0.145,-0.105
1196,-0.135,-0.105
1197,-0.145,-0.105
1198,-0.145,-0.105
1199,-0.155,-0.125
1200,-0.155,-0.125
1201,-0.155,-0.105
1202,-0.145,-0.105
1203,-0.155,-0.125
1204,-0.155,-0.125
1205,-0.135,-0.115
1206,-0.145,-0.105
1207,-0.145,-0.125
1208,-0.145,-0.125
1209,-0.135,-0.125
1210,-0.135,-0.125
1211,-0.075,-0.065
1212,-0.025,-0.045
1213,-0.045,-0.075
1214,-0.095,-0.085
1215,-0.095,-0.115
1216,-0.105,-0.135
1217,-0.135,-0.115
1218,-0.145,-0.115
1219,-0.165,-0.135
1220,-0.155,-0.135
1221,-0.145,-0.125
1222,-0.155,-0.125
1223,-0.155,-0.125
1224,-0.165,-0.125
1225,-0.165,-0.125
1226,-0.155,-0.115
1227,-0.145,-0.105
1228,-0.135,-0.115
1229,-0.115,-0.105
1230,-0.255,-0.005
1231,-0.415,0.035
1232,-0.125,0.375
1233,0.585,-0.035
1234,1.625,-0.855
1235,1.205,-0.975
1236,-0.155,-0.955
1237,-0.625,-0.705
1238,-0.445,-0.295
1239,-0.225,-0.095
1240,-0.115,-0.005
1241,-0.145,-0.005
1242,-0.155,-0.015
1243,-0.165,-0.025
1244,-0.165,-0.015
1245,-0.145,-0.005
1246,-0.145,-0.005
1247,-0.155,-0.015
1248,-0.145,-0.005
1249,-0.145,0.005
1250,-0.125,0.015
1251,-0.125,0.005
1252,-0.095,0.025
1253,-0.095,0.025
1254,-0.095,0.035
1255,-0.075,0.025
1256,-0.075,0.045
1257,-0.055,0.055
1258,-0.035,0.065
1259,-0.015,0.065
1260,0.015,0.085
1261,0.035,0.095
1262,0.055,0.095
1263,0.105,0.105
1264,0.125,0.125
1265,0.155,0.125
1266,0.185,0.115
1267,0.215,0.125
1268,0.265,0.135
1269,0.285,0.145
1270,0.315,0.135
1271,0.325,0.135
1272,0.305,0.155
1273,0.285,0.145
1274,0.225,0.115
1275,0.165,0.095
1276,0.125,0.065
1277,0.055,0.045
1278,-0.005,0.015
1279,-0.035,-0.025
1280,-0.085,-0.035
1281,-0.095,-0.035
1282,-0.105,-0.055
1283,-0.115,-0.085
1284,-0.105,-0.065
1285,-0.115,-0.065
1286,-0.125,-0.065
1287,-0.125,-0.075
1288,-0.125,-0.065
1289,-0.115,-0.045
1290,-0.105,-0.045
1291,-0.115,-0.055
1292,-0.095,-0.055
1293,-0.105,-0.035
1294,-0.115,-0.045
1295,-0.115,-0.055
1296,-0.115,-0.055
1297,-0.105,-0.045
1298,-0.115,-0.045
1299,-0.125,-0.065
1300,-0.115,-0.065
1301,-0.105,-0.055
1302,-0.125,-0.065
1303,-0.135,-0.085
1304,-0.125,-0.085
1305,-0.125,-0.075
1306,-0.125,-0.075
1307,-0.125,-0.085
1308,-0.125,-0.105
1309,-0.115,-0.095
1310,-0.105,-0.085
1311,-0.045,-0.025
1312,0.025,0.005
1313,-0.035,-0.045
1314,-0.065,-0.065
1315,-0.095,-0.095
1316,-0.105,-0.105
1317,-0.125,-0.095
1318,-0.145,-0.095
1319,-0.155,-0.115
1320,-0.145,-0.125
1321,-0.155,-0.105
1322,-0.155,-0.105
1323,-0.155,-0.105
1324,-0.145,-0.115
1325,-0.135,-0.105
1326,-0.145,-0.105
1327,-0.145,-0.105
1328,-0.125,-0.105
1329,-0.125,-0.095
1330,-0.095,-0.085
1331,-0.165,-0.045
1332,-0.375,0.035
1333,-0.265,0.145
1334,0.225,0.505
1335,1.145,-0.405
1336,1.715,-0.915
1337,0.535,-0.865
1338,-0.465,-0.915
1339,-0.585,-0.595
1340,-0.365,-0.245
1341,-0.165,-0.055
1342,-0.115,0.025
1343,-0.145,-0.015
1344,-0.135,-0.025
1345,-0.155,-0.005
1346,-0.145,-0.005
1347,-0.155,-0.015
1348,-0.125,-0.005
1349,-0.125,0.005
1350,-0.125,0.005
1351,-0.135,-0.005
1352,-0.125,0.005
1353,-0.115,0.025
1354,-0.105,0.025
1355,-0.105,0.005
1356,-0.075,0.025
1357,-0.065,0.035
1358,-0.055,0.035
1359,-0.045,0.035
1360,-0.045,0.055
1361,-0.015,0.065
1362,0.005,0.065
1363,0.025,0.065
1364,0.055,0.075
1365,0.085,0.095
1366,0.115,0.095
1367,0.135,0.095
1368,0.175,0.095
1369,0.205,0.115
1370,0.235,0.115
1371,0.255,0.095
1372,0.295,0.115
1373,0.305,0.125
1374,0.315,0.145
1375,0.285,0.125
1376,0.255,0.125
1377,0.175,0.115
1378,0.145,0.105
1379,0.075,0.065
1380,0.025,0.025
1381,-0.015,0.015
1382,-0.055,-0.005
1383,-0.085,-0.025
1384,-0.095,-0.055
1385,-0.125,-0.055
1386,-0.115,-0.055
1387,-0.125,-0.055
1388,-0.115,-0.065
1389,-0.115,-0.065
1390,-0.115,-0.045
1391,-0.115,-0.055
1392,-0.115,-0.055
1393,-0.125,-0.045
1394,-0.105,-0.035
1395,-0.105,-0.035
1396,-0.105,-0.055
1397,-0.105,-0.045
1398,-0.105,-0.035
1399,-0.115,-0.045
1400,-0.115,-0.065
1401,-0.145,-0.065
1402,-0.115,-0.045
1403,-0.125,-0.065
1404,-0.125,-0.075
1405,-0.115,-0.075
1406,-0.125,-0.075
1407,-0.135,-0.085
1408,-0.125,-0.095
1409,-0.145,-0.085
1410,-0.135,-0.085
1411,-0.145,-0.095
1412,-0.135,-0.105
1413,-0.135,-0.095
1414,-0.135,-0.085
1415,-0.125,-0.095
1416,-0.125,-0.105
1417,-0.135,-0.105
1418,-0.105,-0.095
1419,-0.045,-0.045
1420,0.015,-0.015
1421,-0.015,-0.055
1422,-0.075,-0.065
1423,-0.085,-0.105
1424,-0.095,-0.105
1425,-0.125,-0.095
1426,-0.145,-0.105
1427,-0.145,-0.125
1428,-0.145,-0.115
1429,-0.135,-0.105
1430,-0.145,-0.105
1431,-0.135,-0.115
1432,-0.165,-0.105
1433,-0.135,-0.095
1434,-0.135,-0.105
1435,-0.125,-0.115
1436,-0.115,-0.095
1437,-0.095,-0.095
1438,-0.125,-0.065
1439,-0.355,0.015
1440,-0.305,0.115
1441,0.215,0.505
1442,1.155,-0.375
1443,1.675,-0.925
1444,0.515,-0.855
1445,-0.435,-0.935
1446,-0.575,-0.615
1447,-0.365,-0.275
1448,-0.185,-0.085
1449,-0.115,0.005
1450,-0.115,-0.015
1451,-0.135,-0.035
1452,-0.135,-0.025
1453,-0.135,-0.015
1454,-0.125,-0.015
1455,-0.125,-0.025
1456,-0.145,-0.005
1457,-0.125,0.005
1458,-0.125,-0.005
1459,-0.115,-0.015
1460,-0.095,0.005
1461,-0.085,0.015
1462,-0.095,0.015
1463,-0.085,0.005
1464,-0.095,0.015
1465,-0.055,0.025
1466,-0.045,0.025
1467,-0.035,0.025
1468,-0.015,0.035
1469,0.005,0.045
1470,0.015,0.055
1471,0.035,0.045
1472,0.055,0.065
1473,0.095,0.075
1474,0.125,0.075
1475,0.155,0.065
1476,0.205,0.075
1477,0.235,0.095
1478,0.255,0.095
1479,0.285,0.085
1480,0.305,0.095
1481,0.335,0.115
1482,0.335,0.115
1483,0.285,0.105
1484,0.255,0.105
1485,0.185,0.095
1486,0.125,0.075
1487,0.065,0.025
1488,-0.005,-0.005
1489,-0.025,-0.015
1490,-0.055,-0.035
1491,-0.065,-0.065
1492,-0.075,-0.065
1493,-0.085,-0.055
1494,-0.095,-0.065
1495,-0.085,-0.075
1496,-0.105,-0.065
1497,-0.095,-0.055
1498,-0.085,-0.055
1499,-0.085,-0.075
1500,-0.075,-0.065
1501,-0.085,-0.045
1502,-0.095,-0.055
1503,-0.095,-0.065
1504,-0.095,-0.055
1505,-0.095,-0.055
1506,-0.095,-0.055
1507,-0.095,-0.075
1508,-0.085,-0.075
1509,-0.095,-0.075
1510,-0.115,-0.075
1511,-0.115,-0.095
1512,-0.105,-0.095
1513,-0.115,-0.085
1514,-0.105,-0.095
1515,-0.125,-0.115
1516,-0.115,-0.105
1517,-0.115,-0.105
1518,-0.125,-0.115
1519,-0.125,-0.125
1520,-0.125,-0.115
1521,-0.115,-0.115
1522,-0.135,-0.115
1523,-0.125,-0.125
1524,-0.105,-0.125
1525,-0.105,-0.105
1526,-0.115,-0.115
1527,-0.115,-0.125
1528,-0.135,-0.135
1529,-0.085,-0.125
1530,-0.065,-0.105
1531,-0.005,-0.035
1532,0.025,-0.045
1533,-0.035,-0.085
1534,-0.055,-0.095
1535,-0.085,-0.135
1536,-0.115,-0.135
1537,-0.125,-0.125
1538,-0.125,-0.125
1539,-0.135,-0.145
1540,-0.115,-0.135
1541,-0.135,-0.135
1542,-0.125,-0.135
1543,-0.135,-0.145
1544,-0.145,-0.135
1545,-0.135,-0.125
1546,-0.095,-0.115
1547,-0.115,-0.135
1548,-0.095,-0.125
1549,-0.095,-0.115
1550,-0.085,-0.105
1551,-0.295,-0.025
1552,-0.375,0.015
1553,-0.045,0.405
1554,0.835,0.065
1555,1.775,-0.725
1556,1.085,-0.845
1557,-0.175,-0.955
1558,-0.585,-0.755
1559,-0.475,-0.465
1560,-0.265,-0.235
1561,-0.135,-0.075
1562,-0.095,-0.025
1563,-0.115,-0.065
1564,-0.135,-0.065
1565,-0.135,-0.055
1566,-0.125,-0.045
1567,-0.135,-0.065
1568,-0.105,-0.055
1569,-0.125,-0.035
1570,-0.105,-0.035
1571,-0.115,-0.055
1572,-0.095,-0.045
1573,-0.075,-0.025
1574,-0.085,-0.025
1575,-0.085,-0.045
1576,-0.065,-0.025
1577,-0.055,-0.015
1578,-0.035,-0.015
1579,-0.035,-0.035
1580,-0.005,-0.025
1581,0.015,-0.005
1582,0.015,-0.005
1583,0.045,-0.005
1584,0.055,-0.005
1585,0.095,0.015
1586,0.125,0.015
1587,0.145,0.005
1588,0.205,0.005
1589,0.225,0.025
1590,0.245,0.015
1591,0.285,0.015
1592,0.295,0.015
1593,0.325,0.045
1594,0.325,0.055
1595,0.305,0.055
1596,0.265,0.055
1597,0.195,0.055
1598,0.135,0.035
1599,0.085,-0.005
1600,0.015,-0.015
1601,-0.015,-0.035
1602,-0.045,-0.055
1603,-0.075,-0.085
1604,-0.055,-0.085
1605,-0.075,-0.065
1606,-0.075,-0.075
1607,-0.085,-0.085
1608,-0.095,-0.075
1609,-0.075,-0.075
1610,-0.085,-0.065
1611,-0.085,-0.085
1612,-0.075,-0.075
1613,-0.075,-0.065
1614,-0.085,-0.065
1615,-0.085,-0.085
1616,-0.095,-0.085
1617,-0.085,-0.075
1618,-0.095,-0.075
1619,-0.085,-0.105
1620,-0.075,-0.095
1621,-0.085,-0.085
1622,-0.105,-0.105
1623,-0.095,-0.115
1624,-0.125,-0.115
1625,-0.095,-0.105
1626,-0.095,-0.115
1627,-0.095,-0.125
1628,-0.085,-0.115
1629,-0.095,-0.125
1630,-0.095,-0.125
1631,-0.075,-0.145
1632,-0.045,-0.095
1633,0.045,-0.025
1634,0.025,-0.055
1635,-0.015,-0.105
1636,-0.015,-0.095
1637,-0.055,-0.125
1638,-0.085,-0.135
1639,-0.115,-0.155
1640,-0.115,-0.145
1641,-0.115,-0.145
1642,-0.115,-0.145
1643,-0.125,-0.155
1644,-0.105,-0.145
1645,-0.095,-0.135
1646,-0.105,-0.135
1647,-0.105,-0.145
1648,-0.105,-0.145
1649,-0.085,-0.135
1650,-0.115,-0.125
1651,-0.105,-0.135
1652,-0.105,-0.135
1653,-0.085,-0.135
1654,-0.035,-0.115
1655,-0.185,-0.045
1656,-0.375,0.015
1657,-0.105,0.315
1658,0.805,0.135
1659,1.805,-0.705
1660,1.155,-0.845
1661,-0.215,-0.905
1662,-0.545,-0.635
1663,-0.405,-0.385
1664,-0.195,-0.175
1665,-0.095,-0.045
1666,-0.085,-0.045
1667,-0.105,-0.065
1668,-0.105,-0.065
1669,-0.095,-0.055
1670,-0.085,-0.045
1671,-0.085,-0.055
1672,-0.075,-0.055
1673,-0.095,-0.045
1674,-0.075,-0.045
1675,-0.075,-0.055
1676,-0.055,-0.045
1677,-0.025,-0.015
1678,-0.045,-0.025
1679,-0.035,-0.035
1680,-0.025,-0.025
1681,0.005,-0.015
1682,0.015,-0.015
1683,0.025,-0.015
1684,0.065,-0.005
1685,0.075,0.015
1686,0.085,0.005
1687,0.115,0.005
1688,0.125,0.015
1689,0.165,0.025
1690,0.205,0.015
1691,0.225,0.015
1692,0.275,0.025
1693,0.295,0.025
1694,0.315,0.025
1695,0.345,0.025
1696,0.335,0.045
1697,0.335,0.065
1698,0.295,0.075
1699,0.245,0.055
1700,0.195,0.055
1701,0.135,0.035
1702,0.085,0.015
1703,0.035,-0.015
1704,-0.005,-0.035
1705,-0.005,-0.045
1706,-0.035,-0.055
1707,-0.035,-0.065
1708,-0.025,-0.065
1709,-0.035,-0.055
1710,-0.035,-0.045
1711,-0.035,-0.065
1712,-0.055,-0.045
1713,-0.045,-0.035
1714,-0.025,-0.035
1715,-0.045,-0.045
1716,-0.025,-0.045
1717,-0.025,-0.035
1718,-0.035,-0.035
1719,-0.025,-0.055
1720,-0.045,-0.045
1721,-0.025,-0.045
1722,-0.035,-0.045
1723,-0.035,-0.065
1724,-0.035,-0.065
1725,-0.035,-0.055
1726,-0.035,-0.065
1727,-0.045,-0.085
1728,-0.055,-0.085
1729,-0.045,-0.075
1730,-0.035,-0.075
1731,-0.045,-0.095
1732,-0.045,-0.095
1733,-0.045,-0.095
1734,-0.025,-0.095
1735,0.035,-0.035
1736,0.095,-0.005
1737,0.065,-0.035
1738,0.025,-0.055
1739,-0.005,-0.085
1740,-0.025,-0.095
1741,-0.035,-0.085
1742,-0.055,-0.105
1743,-0.075,-0.115
1744,-0.075,-0.115
1745,-0.065,-0.105
1746,-0.065,-0.105
1747,-0.065,-0.115
1748,-0.065,-0.115
1749,-0.055,-0.105
1750,-0.065,-0.095
1751,-0.065,-0.115
1752,-0.055,-0.115
1753,-0.045,-0.095
1754,-0.045,-0.095
1755,-0.025,-0.105
1756,-0.085,-0.035
1757,-0.315,0.055
1758,-0.125,0.255
1759,0.465,0.375
1760,1.465,-0.605
1761,1.755,-0.935
1762,0.445,-0.855
1763,-0.465,-0.865
1764,-0.485,-0.525
1765,-0.255,-0.195
1766,-0.085,-0.045
1767,-0.055,-0.005
1768,-0.065,-0.025
1769,-0.075,-0.015
1770,-0.075,-0.015
1771,-0.075,-0.025
1772,-0.055,-0.005
1773,-0.065,0.005
1774,-0.065,0.005
1775,-0.055,-0.005
1776,-0.065,0.015
1777,-0.045,0.015
1778,-0.045,0.025
1779,-0.035,0.015
1780,-0.015,0.025
1781,-0.005,0.035
1782,-0.005,0.045
1783,0.015,0.035
1784,0.005,0.055
1785,0.045,0.065
1786,0.055,0.065
1787,0.075,0.055
1788,0.105,0.085
1789,0.125,0.085
1790,0.135,0.085
1791,0.175,0.085
1792,0.185,0.105
1793,0.225,0.105
1794,0.265,0.115
1795,0.295,0.105
1796,0.335,0.115
1797,0.345,0.125
1798,0.355,0.125
1799,0.345,0.125
1800,0.295,0.125
1801,0.255,0.125
1802,0.215,0.095
1803,0.145,0.045
1804,0.105,0.025
1805,0.045,0.005
1806,0.005,-0.015
1807,-0.025,-0.045
1808,-0.055,-0.055
1809,-0.055,-0.045
1810,-0.065,-0.065
1811,-0.075,-0.075
1812,-0.055,-0.065
1813,-0.055,-0.055
1814,-0.065,-0.055
1815,-0.065,-0.065
1816,-0.085,-0.055
1817,-0.055,-0.035
1818,-0.055,-0.045
1819,-0.065,-0.055
1820,-0.055,-0.045
1821,-0.055,-0.035
1822,-0.075,-0.035
1823,-0.075,-0.055
1824,-0.075,-0.055
1825,-0.075,-0.055
1826,-0.075,-0.055
1827,-0.085,-0.075
1828,-0.075,-0.075
1829,-0.085,-0.065
1830,-0.085,-0.075
1831,-0.095,-0.095
1832,-0.095,-0.095
1833,-0.095,-0.085
1834,-0.095,-0.085
1835,-0.105,-0.105
1836,-0.095,-0.105
1837,-0.095,-0.095
1838,-0.095,-0.095
1839,-0.105,-0.105
1840,-0.095,-0.095
1841,-0.085,-0.075
1842,-0.105,-0.085
1843,-0.115,-0.115
1844,-0.085,-0.125
1845,-0.035,-0.075
1846,0.025,0.005
1847,-0.005,-0.045
1848,-0.065,-0.095
1849,-0.085,-0.095
1850,-0.085,-0.095
1851,-0.095,-0.105
1852,-0.125,-0.115
1853,-0.115,-0.125
1854,-0.115,-0.115
1855,-0.125,-0.115
1856,-0.125,-0.115
1857,-0.145,-0.115
1858,-0.125,-0.105
1859,-0.125,-0.105
1860,-0.115,-0.115
1861,-0.105,-0.105
1862,-0.105,-0.095
1863,-0.095,-0.095
1864,-0.075,-0.095
1865,-0.245,-0.005
1866,-0.365,0.045
1867,-0.165,0.275
1868,0.495,0.285
1869,1.685,-0.775
1870,1.145,-0.955
1871,-0.225,-0.975
1872,-0.575,-0.705
1873,-0.385,-0.295
1874,-0.175,-0.085
1875,-0.095,0.005
1876,-0.105,-0.015
1877,-0.115,-0.005
1878,-0.125,-0.015
1879,-0.125,-0.015
1880,-0.145,-0.015
1881,-0.115,0.005
1882,-0.115,-0.005
1883,-0.115,-0.005
1884,-0.095,0.005
1885,-0.095,0.015
1886,-0.085,0.015
1887,-0.085,0.005
1888,-0.085,0.015
1889,-0.065,0.035
1890,-0.055,0.035
1891,-0.045,0.025
1892,-0.025,0.045
1893,-0.015,0.055
1894,0.005,0.055
1895,0.015,0.045
1896,0.025,0.065
1897,0.055,0.075
1898,0.085,0.075
1899,0.115,0.065
1900,0.155,0.085
1901,0.185,0.105
1902,0.205,0.105
1903,0.235,0.095
1904,0.255,0.095
1905,0.305,0.115
1906,0.315,0.115
1907,0.325,0.105
1908,0.325,0.115
1909,0.285,0.135
1910,0.225,0.115
1911,0.165,0.085
1912,0.115,0.065
1913,0.065,0.055
1914,0.015,0.015
1915,-0.035,-0.025
1916,-0.045,-0.035
1917,-0.065,-0.045
1918,-0.085,-0.045
1919,-0.085,-0.075
1920,-0.095,-0.065
1921,-0.085,-0.055
1922,-0.085,-0.055
1923,-0.085,-0.065
1924,-0.065,-0.055
1925,-0.075,-0.035
1926,-0.075,-0.035
1927,-0.085,-0.055
1928,-0.085,-0.045
1929,-0.075,-0.035
1930,-0.085,-0.045
1931,-0.085,-0.055
1932,-0.085,-0.055
1933,-0.085,-0.045
1934,-0.095,-0.055
1935,-0.105,-0.075
1936,-0.115,-0.075
1937,-0.105,-0.075
1938,-0.115,-0.085
1939,-0.115,-0.095
1940,-0.115,-0.095
1941,-0.105,-0.085
1942,-0.115,-0.085
1943,-0.125,-0.105
1944,-0.115,-0.105
1945,-0.115,-0.095
1946,-0.115,-0.105
1947,-0.125,-0.115
1948,-0.115,-0.115
1949,-0.115,-0.105
1950,-0.115,-0.105
1951,-0.125,-0.125
1952,-0.135,-0.115
1953,-0.115,-0.105
1954,-0.115,-0.105
1955,-0.125,-0.125
1956,-0.105,-0.115
1957,-0.115,-0.105
1958,-0.115,-0.105
1959,-0.105,-0.115
1960,-0.125,-0.105
1961,-0.115,-0.115
1962,-0.095,-0.125
1963,-0.085,-0.125
1964,0.005,-0.025
1965,0.035,-0.015
1966,-0.025,-0.085
1967,-0.065,-0.105
1968,-0.085,-0.115
1969,-0.085,-0.105
1970,-0.105,-0.115
1971,-0.125,-0.135
1972,-0.115,-0.125
1973,-0.115,-0.115
1974,-0.125,-0.125
1975,-0.115,-0.135
1976,-0.145,-0.125
1977,-0.115,-0.115
1978,-0.115,-0.115
1979,-0.115,-0.125
1980,-0.095,-0.115
1981,-0.095,-0.095
1982,-0.075,-0.105
1983,-0.185,-0.055
1984,-0.405,0.005
1985,-0.205,0.195
1986,0.375,0.415
1987,1.365,-0.585
1988,1.615,-0.945
1989,0.315,-0.885
1990,-0.555,-0.895
1991,-0.555,-0.565
1992,-0.335,-0.245
1993,-0.145,-0.075
1994,-0.105,-0.005
1995,-0.125,-0.045
1996,-0.125,-0.055
1997,-0.135,-0.035
1998,-0.135,-0.035
1999,-0.145,-0.035
2000,-0.155,-0.045
2001,-0.125,-0.025
2002,-0.125,-0.015
2003,-0.135,-0.045
2004,-0.115,-0.025
2005,-0.115,-0.015
2006,-0.115,-0.005
2007,-0.105,-0.025
2008,-0.105,-0.015
2009,-0.075,0.005
2010,-0.075,-0.005
2011,-0.065,-0.005
2012,-0.035,0.005
2013,-0.015,0.015
2014,-0.015,0.015
2015,0.005,0.015
2016,0.015,0.005
2017,0.055,0.035
2018,0.085,0.035
2019,0.115,0.025
2020,0.155,0.035
2021,0.185,0.045
2022,0.215,0.045
2023,0.245,0.035
2024,0.255,0.045
2025,0.295,0.065
2026,0.295,0.065
2027,0.285,0.065
2028,0.255,0.075
2029,0.195,0.075
2030,0.135,0.055
2031,0.065,0.025
2032,0.005,0.005
2033,-0.035,-0.005
2034,-0.055,-0.035
2035,-0.085,-0.075
2036,-0.095,-0.075
2037,-0.115,-0.075
2038,-0.125,-0.075
2039,-0.135,-0.095
2040,-0.145,-0.095
2041,-0.125,-0.075
2042,-0.135,-0.075
2043,-0.125,-0.085
2044,-0.125,-0.075
2045,-0.125,-0.065
2046,-0.145,-0.075
2047,-0.145,-0.085
2048,-0.165,-0.085
2049,-0.145,-0.085
2050,-0.135,-0.075
2051,-0.145,-0.095
2052,-0.135,-0.095
2053,-0.155,-0.095
2054,-0.145,-0.105
2055,-0.165,-0.115
2056,-0.165,-0.115
2057,-0.165,-0.115
2058,-0.175,-0.115
2059,-0.165,-0.135
2060,-0.165,-0.135
2061,-0.155,-0.125
2062,-0.155,-0.115
2063,-0.145,-0.115
2064,-0.165,-0.125
2065,-0.185,-0.145
2066,-0.175,-0.145
2067,-0.145,-0.145
2068,-0.105,-0.135
2069,-0.045,-0.055
2070,-0.045,-0.065
2071,-0.105,-0.115
2072,-0.115,-0.135
2073,-0.165,-0.155
2074,-0.175,-0.145
2075,-0.195,-0.165
2076,-0.175,-0.165
2077,-0.185,-0.165
2078,-0.195,-0.145
2079,-0.185,-0.165
2080,-0.185,-0.165
2081,-0.205,-0.165
2082,-0.185,-0.165
2083,-0.195,-0.165
2084,-0.185,-0.165
2085,-0.165,-0.155
2086,-0.165,-0.155
2087,-0.165,-0.155
2088,-0.135,-0.145
2089,-0.265,-0.085
2090,-0.475,-0.015
2091,-0.275,0.165
2092,0.405,0.385
2093,1.515,-0.515
2094,1.385,-0.865
2095,-0.085,-0.945
2096,-0.645,-0.775
2097,-0.535,-0.475
2098,-0.345,-0.245
2099,-0.205,-0.115
2100,-0.185,-0.085
2101,-0.175,-0.085
2102,-0.205,-0.085
2103,-0.205,-0.105
2104,-0.225,-0.095
2105,-0.195,-0.075
2106,-0.195,-0.075
2107,-0.195,-0.095
2108,-0.175,-0.085
2109,-0.175,-0.065
2110,-0.165,-0.075
2111,-0.165,-0.075
2112,-0.165,-0.075
2113,-0.145,-0.065
2114,-0.135,-0.065
2115,-0.145,-0.065
2116,-0.105,-0.045
2117,-0.095,-0.045
2118,-0.085,-0.055
2119,-0.075,-0.055
2120,-0.055,-0.035
2121,-0.025,-0.025
2122,-0.005,-0.035
2123,0.015,-0.035
2124,0.055,-0.025
2125,0.075,-0.025
2126,0.115,-0.025
2127,0.145,-0.025
2128,0.175,-0.015
2129,0.195,-0.015
2130,0.205,-0.015
2131,0.205,-0.005
2132,0.195,0.015
2133,0.155,0.025
2134,0.095,0.015
2135,0.045,-0.005
2136,-0.015,-0.015
2137,-0.065,-0.035
2138,-0.125,-0.065
2139,-0.145,-0.095
2140,-0.145,-0.085
2141,-0.165,-0.095
2142,-0.205,-0.105
2143,-0.185,-0.115
2144,-0.205,-0.115
2145,-0.195,-0.105
2146,-0.195,-0.095
2147,-0.195,-0.105
2148,-0.185,-0.095
2149,-0.195,-0.085
2150,-0.195,-0.085
2151,-0.205,-0.105
2152,-0.215,-0.105
2153,-0.195,-0.085
2154,-0.205,-0.085
2155,-0.215,-0.115
2156,-0.205,-0.115
2157,-0.195,-0.105
2158,-0.215,-0.105
2159,-0.225,-0.115
2160,-0.215,-0.125
2161,-0.225,-0.115
2162,-0.215,-0.125
2163,-0.225,-0.125
2164,-0.225,-0.135
2165,-0.215,-0.135
2166,-0.225,-0.145
2167,-0.205,-0.135
2168,-0.145,-0.095
2169,-0.115,-0.045
2170,-0.115,-0.065
2171,-0.155,-0.105
2172,-0.175,-0.115
2173,-0.195,-0.145
2174,-0.225,-0.145
2175,-0.245,-0.155
2176,-0.245,-0.165
2177,-0.265,-0.165
2178,-0.255,-0.155
2179,-0.255,-0.155
2180,-0.255,-0.165
2181,-0.235,-0.155
2182,-0.235,-0.145
2183,-0.245,-0.155
2184,-0.245,-0.165
2185,-0.255,-0.155
2186,-0.225,-0.135
2187,-0.225,-0.135
2188,-0.205,-0.145
2189,-0.215,-0.115
2190,-0.445,-0.005
2191,-0.415,0.065
2192,0.005,0.395
2193,1.015,-0.225
2194,1.695,-0.835
2195,0.435,-0.845
2196,-0.555,-0.885
2197,-0.655,-0.595
2198,-0.465,-0.305
2199,-0.295,-0.135
2200,-0.205,-0.055
2201,-0.235,-0.065
2202,-0.235,-0.065
2203,-0.245,-0.065
2204,-0.235,-0.065
2205,-0.225,-0.055
2206,-0.225,-0.045
2207,-0.225,-0.055
2208,-0.205,-0.045
2209,-0.215,-0.035
2210,-0.195,-0.035
2211,-0.195,-0.035
2212,-0.195,-0.025
2213,-0.175,-0.015
2214,-0.165,-0.015
2215,-0.165,-0.025
2216,-0.155,-0.005
2217,-0.125,0.015
2218,-0.115,0.025
2219,-0.095,0.015
2220,-0.055,0.025
2221,-0.045,0.045
2222,-0.025,0.045
2223,-0.005,0.045
2224,0.015,0.055
2225,0.065,0.065
2226,0.095,0.065
2227,0.115,0.055
2228,0.165,0.075
2229,0.175,0.085
2230,0.195,0.085
2231,0.205,0.075
2232,0.165,0.085
2233,0.135,0.095
2234,0.085,0.075
2235,0.025,0.045
2236,-0.025,0.025
2237,-0.065,0.005
2238,-0.115,-0.025
2239,-0.145,-0.055
2240,-0.165,-0.065
2241,-0.165,-0.055
2242,-0.175,-0.065
2243,-0.185,-0.085
2244,-0.165,-0.075
2245,-0.175,-0.065
2246,-0.175,-0.055
2247,-0.185,-0.075
2248,-0.195,-0.055
2249,-0.175,-0.045
2250,-0.165,-0.045
2251,-0.175,-0.055
2252,-0.155,-0.055
2253,-0.165,-0.035
2254,-0.175,-0.045
2255,-0.175,-0.055
2256,-0.185,-0.055
2257,-0.185,-0.055
2258,-0.185,-0.055
2259,-0.195,-0.065
2260,-0.195,-0.075
2261,-0.185,-0.065
2262,-0.205,-0.075
2263,-0.205,-0.085
2264,-0.205,-0.085
2265,-0.205,-0.095
2266,-0.205,-0.085
2267,-0.215,-0.095
2268,-0.215,-0.105
2269,-0.205,-0.085
2270,-0.195,-0.085
2271,-0.215,-0.105
2272,-0.195,-0.115
2273,-0.205,-0.105
2274,-0.125,-0.065
2275,-0.095,-0.015
2276,-0.095,-0.025
2277,-0.145,-0.075
2278,-0.155,-0.085
2279,-0.185,-0.105
2280,-0.175,-0.105
2281,-0.215,-0.105
2282,-0.215,-0.105
2283,-0.225,-0.105
2284,-0.215,-0.115
2285,-0.215,-0.105
2286,-0.225,-0.105
2287,-0.225,-0.115
2288,-0.225,-0.115
2289,-0.215,-0.095
2290,-0.205,-0.105
2291,-0.215,-0.105
2292,-0.175,-0.095
2293,-0.165,-0.085
2294,-0.315,0.005
2295,-0.465,0.045
2296,-0.165,0.395
2297,0.645,0.015
2298,1.635,-0.835
2299,0.975,-0.945
2300,-0.395,-0.935
2301,-0.665,-0.665
2302,-0.465,-0.275
2303,-0.255,-0.095
2304,-0.195,0.015
2305,-0.195,0.005
2306,-0.215,-0.005
2307,-0.215,-0.015
2308,-0.215,-0.005
2309,-0.205,-0.005
2310,-0.205,0.005
2311,-0.195,-0.005
2312,-0.215,0.005
2313,-0.195,0.015
2314,-0.195,0.015
2315,-0.195,0.005
2316,-0.175,0.025
2317,-0.165,0.035
2318,-0.155,0.035
2319,-0.145,0.035
2320,-0.135,0.035
2321,-0.125,0.055
2322,-0.105,0.055
2323,-0.095,0.055
2324,-0.075,0.075
2325,-0.065,0.075
2326,-0.045,0.085
2327,-0.015,0.085
2328,0.005,0.095
2329,0.055,0.105
2330,0.075,0.115
2331,0.105,0.095
2332,0.145,0.115
2333,0.175,0.125
2334,0.185,0.125
2335,0.215,0.115
2336,0.215,0.125
2337,0.225,0.145
2338,0.185,0.145
2339,0.135,0.115
2340,0.105,0.105
2341,0.045,0.085
2342,-0.015,0.055
2343,-0.065,0.015
2344,-0.115,-0.005
2345,-0.135,-0.015
2346,-0.135,-0.035
2347,-0.155,-0.045
2348,-0.165,-0.055
2349,-0.155,-0.045
2350,-0.175,-0.045
2351,-0.165,-0.055
2352,-0.155,-0.045
2353,-0.165,-0.035
2354,-0.165,-0.025
2355,-0.165,-0.035
2356,-0.155,-0.025
2357,-0.145,-0.025
2358,-0.155,-0.025
2359,-0.165,-0.035
2360,-0.165,-0.035
2361,-0.165,-0.025
2362,-0.165,-0.035
2363,-0.165,-0.055
2364,-0.155,-0.055
2365,-0.165,-0.045
2366,-0.175,-0.055
2367,-0.185,-0.065
2368,-0.195,-0.075
2369,-0.185,-0.075
2370,-0.185,-0.075
2371,-0.195,-0.095
2372,-0.175,-0.085
2373,-0.185,-0.075
2374,-0.195,-0.075
2375,-0.195,-0.095
2376,-0.205,-0.085
2377,-0.185,-0.085
2378,-0.185,-0.075
2379,-0.195,-0.095
2380,-0.165,-0.095
2381,-0.175,-0.075
2382,-0.185,-0.085
2383,-0.185,-0.105
2384,-0.185,-0.105
2385,-0.135,-0.075
2386,-0.075,-0.005
2387,-0.055,-0.015
2388,-0.105,-0.065
2389,-0.135,-0.065
2390,-0.145,-0.085
2391,-0.155,-0.105
2392,-0.195,-0.095
2393,-0.185,-0.095
2394,-0.185,-0.105
2395,-0.185,-0.105
2396,-0.185,-0.105
2397,-0.185,-0.095
2398,-0.185,-0.095
2399,-0.185,-0.105
2400,-0.195,-0.095
2401,-0.175,-0.085
2402,-0.175,-0.095
2403,-0.165,-0.095
2404,-0.135,-0.085
2405,-0.175,-0.055
2406,-0.385,0.035
2407,-0.345,0.065
2408,0.115,0.505
2409,1.005,-0.285
2410,1.655,-0.895
2411,0.545,-0.875
2412,-0.475,-0.935
2413,-0.625,-0.665
2414,-0.415,-0.275
2415,-0.235,-0.095
2416,-0.165,0.005
2417,-0.165,0.005
2418,-0.175,-0.015
2419,-0.185,-0.025
2420,-0.175,-0.015
2421,-0.175,0.005
2422,-0.175,-0.005
2423,-0.175,-0.005
2424,-0.185,-0.005
2425,-0.155,0.005
2426,-0.165,0.015
2427,-0.165,0.005
2428,-0.135,0.015
2429,-0.125,0.025
2430,-0.125,0.035
2431,-0.115,0.015
2432,-0.125,0.025
2433,-0.085,0.045
2434,-0.085,0.045
2435,-0.065,0.035
2436,-0.035,0.045
2437,-0.015,0.065
2438,-0.005,0.075
2439,0.005,0.065
2440,0.035,0.065
2441,0.065,0.085
2442,0.095,0.085
2443,0.115,0.075
2444,0.155,0.075
2445,0.205,0.095
2446,0.215,0.105
2447,0.235,0.095
2448,0.255,0.095
2449,0.265,0.115
2450,0.245,0.125
2451,0.195,0.105
2452,0.155,0.095
2453,0.095,0.085
2454,0.025,0.055
2455,-0.025,0.005
2456,-0.085,-0.015
2457,-0.085,-0.015
2458,-0.115,-0.035
2459,-0.115,-0.065
2460,-0.115,-0.055
2461,-0.115,-0.055
2462,-0.115,-0.055
2463,-0.135,-0.055
2464,-0.145,-0.055
2465,-0.125,-0.045
2466,-0.115,-0.045
2467,-0.125,-0.055
2468,-0.105,-0.045
2469,-0.115,-0.035
2470,-0.125,-0.045
2471,-0.135,-0.065
2472,-0.145,-0.055
2473,-0.125,-0.045
2474,-0.115,-0.055
2475,-0.135,-0.085
2476,-0.125,-0.065
2477,-0.145,-0.065
2478,-0.135,-0.085
2479,-0.135,-0.095
2480,-0.145,-0.085
2481,-0.135,-0.085
2482,-0.145,-0.095
2483,-0.145,-0.105
2484,-0.135,-0.105
2485,-0.145,-0.095
2486,-0.145,-0.105
2487,-0.135,-0.105
2488,-0.155,-0.105
2489,-0.135,-0.105
2490,-0.135,-0.115
2491,-0.135,-0.115
2492,-0.135,-0.115
2493,-0.125,-0.105
2494,-0.135,-0.105
2495,-0.135,-0.115
2496,-0.125,-0.115
2497,-0.135,-0.115
2498,-0.135,-0.115
2499,-0.105,-0.125
2500,-0.045,-0.085
2501,-0.005,-0.015
2502,-0.005,-0.035
2503,-0.045,-0.095
2504,-0.065,-0.085
2505,-0.075,-0.105
2506,-0.085,-0.115
2507,-0.135,-0.135
2508,-0.115,-0.125
2509,-0.115,-0.115
2510,-0.115,-0.115
2511,-0.115,-0.135
2512,-0.125,-0.125
2513,-0.115,-0.115
2514,-0.115,-0.115
2515,-0.115,-0.115
2516,-0.095,-0.115
2517,-0.095,-0.115
2518,-0.095,-0.105
2519,-0.075,-0.115
2520,-0.085,-0.105
2521,-0.295,-0.015
2522,-0.315,0.055
2523,0.065,0.425
2524,0.885,0.085
2525,1.755,-0.705
2526,1.005,-0.835
2527,-0.225,-0.935
2528,-0.565,-0.725
2529,-0.425,-0.405
2530,-0.215,-0.185
2531,-0.105,-0.065
2532,-0.085,-0.035
2533,-0.085,-0.045
2534,-0.095,-0.045
2535,-0.115,-0.055
2536,-0.105,-0.055
2537,-0.095,-0.045
2538,-0.075,-0.035
2539,-0.095,-0.045
2540,-0.085,-0.035
2541,-0.075,-0.025
2542,-0.065,-0.025
2543,-0.065,-0.035
2544,-0.065,-0.025
2545,-0.045,-0.015
2546,-0.025,-0.005
2547,-0.005,-0.015
2548,0.005,-0.005
2549,0.025,0.005
2550,0.025,0.005
2551,0.045,-0.005
2552,0.045,0.005
2553,0.085,0.015
2554,0.105,0.015
2555,0.135,0.005
2556,0.175,0.015
2557,0.195,0.025
2558,0.225,0.025
2559,0.265,0.015
2560,0.275,0.025
2561,0.315,0.035
2562,0.345,0.035
2563,0.345,0.045
2564,0.345,0.065
2565,0.295,0.075
2566,0.255,0.065
2567,0.195,0.045
2568,0.115,0.025
2569,0.085,0.005
2570,0.045,-0.015
2571,0.015,-0.045
2572,-0.005,-0.045
2573,-0.025,-0.055
2574,-0.025,-0.065
2575,-0.025,-0.065
2576,-0.045,-0.055
2577,-0.035,-0.055
2578,-0.025,-0.055
2579,-0.025,-0.065
2580,-0.025,-0.055
2581,-0.025,-0.045
2582,-0.025,-0.055
2583,-0.015,-0.065
2584,-0.035,-0.055
2585,-0.025,-0.045
2586,-0.035,-0.055
2587,-0.035,-0.075
2588,-0.025,-0.075
2589,-0.025,-0.065
2590,-0.035,-0.075
2591,-0.055,-0.095
2592,-0.065,-0.095
2593,-0.045,-0.085
2594,-0.045,-0.085
2595,-0.055,-0.115
2596,-0.025,-0.105
2597,-0.045,-0.095
2598,-0.045,-0.105
2599,-0.045,-0.115
2600,-0.045,-0.115
2601,-0.045,-0.105
2602,-0.045,-0.115
2603,-0.015,-0.125
2604,0.025,-0.085
2605,0.095,-0.025
2606,0.085,-0.035
2607,0.035,-0.095
2608,0.045,-0.085
2609,-0.005,-0.115
2610,-0.015,-0.115
2611,-0.045,-0.135
2612,-0.045,-0.145
2613,-0.035,-0.135
2614,-0.035,-0.125
2615,-0.045,-0.135
2616,-0.045,-0.145
2617,-0.055,-0.135
2618,-0.035,-0.125
2619,-0.035,-0.135
2620,-0.035,-0.135
2621,-0.025,-0.135
2622,-0.025,-0.115
2623,-0.025,-0.125
2624,-0.005,-0.125
2625,-0.015,-0.105
2626,-0.195,-0.005
2627,-0.255,0.055
2628,0.125,0.385
2629,1.055,0.025
2630,1.925,-0.745
2631,0.965,-0.815
2632,-0.225,-0.875
2633,-0.475,-0.605
2634,-0.305,-0.345
2635,-0.125,-0.155
2636,-0.005,-0.035
2637,0.005,-0.035
2638,-0.015,-0.045
2639,-0.025,-0.055
2640,-0.015,-0.055
2641,-0.025,-0.035
2642,-0.005,-0.035
2643,-0.005,-0.035
2644,0.005,-0.035
2645,0.015,-0.015
2646,0.015,-0.015
2647,0.015,-0.025
2648,0.035,-0.025
2649,0.045,-0.015
2650,0.045,-0.005
2651,0.055,-0.015
2652,0.075,-0.005
2653,0.095,0.015
2654,0.105,0.005
2655,0.105,0.005
2656,0.125,0.015
2657,0.155,0.035
2658,0.185,0.045
2659,0.195,0.025
2660,0.235,0.035
2661,0.255,0.055
2662,0.285,0.055
2663,0.305,0.045
2664,0.325,0.055
2665,0.365,0.055
2666,0.405,0.075
2667,0.405,0.065
2668,0.415,0.085
2669,0.365,0.095
2670,0.335,0.085
2671,0.275,0.055
2672,0.215,0.045
2673,0.175,0.035
2674,0.135,0.005
2675,0.095,-0.025
2676,0.075,-0.045
2677,0.065,-0.045
2678,0.045,-0.045
2679,0.045,-0.065
2680,0.025,-0.065
2681,0.045,-0.045
2682,0.045,-0.045
2683,0.045,-0.055
2684,0.045,-0.055
2685,0.055,-0.035
2686,0.045,-0.035
2687,0.045,-0.045
2688,0.035,-0.045
2689,0.045,-0.035
2690,0.045,-0.035
2691,0.045,-0.055
2692,0.055,-0.045
2693,0.035,-0.045
2694,0.035,-0.045
2695,0.025,-0.065
2696,0.005,-0.065
2697,0.015,-0.065
2698,0.015,-0.065
2699,0.005,-0.085
2700,0.025,-0.085
2701,0.015,-0.075
2702,0.005,-0.085
2703,-0.005,-0.095
2704,-0.025,-0.095
2705,0.005,-0.085
2706,0.015,-0.085
2707,-0.005,-0.105
2708,0.015,-0.105
2709,0.025,-0.095
2710,0.065,-0.055
2711,0.125,-0.015
2712,0.085,-0.035
2713,0.065,-0.065
2714,0.045,-0.085
2715,0.025,-0.105
2716,0.025,-0.105
2717,0.005,-0.105
2718,-0.005,-0.105
2719,-0.015,-0.115
2720,-0.045,-0.115
2721,-0.025,-0.095
2722,-0.025,-0.115
2723,-0.015,-0.105
2724,-0.015,-0.105
2725,-0.015,-0.095
2726,-0.015,-0.105
2727,-0.015,-0.115
2728,-0.015,-0.095
2729,0.015,-0.085
2730,-0.045,-0.035
2731,-0.265,0.025
2732,-0.105,0.195
2733,0.405,0.455
2734,1.355,-0.645
2735,1.745,-1.035
2736,0.515,-0.875
2737,-0.365,-0.905
2738,-0.455,-0.565
2739,-0.225,-0.205
2740,-0.045,-0.045
2741,0.005,0.025
2742,-0.025,-0.015
2743,-0.025,-0.025
2744,-0.055,-0.025
2745,-0.035,-0.005
2746,-0.035,-0.005
2747,-0.035,-0.015
2748,-0.025,-0.005
2749,-0.025,0.005
2750,-0.035,0.005
2751,-0.015,0.005
2752,-0.035,0.005
2753,-0.005,0.025
2754,-0.005,0.025
2755,0.005,0.015
2756,0.025,0.035
2757,0.035,0.045
2758,0.045,0.045
2759,0.055,0.045
2760,0.045,0.055
2761,0.085,0.065
2762,0.105,0.075
2763,0.125,0.065
2764,0.155,0.075
2765,0.175,0.095
2766,0.205,0.095
2767,0.225,0.085
2768,0.245,0.105
2769,0.295,0.105
2770,0.325,0.105
2771,0.345,0.095
2772,0.375,0.105
2773,0.385,0.125
2774,0.365,0.125
2775,0.325,0.115
2776,0.305,0.105
2777,0.235,0.095
2778,0.185,0.065
2779,0.115,0.025
2780,0.085,-0.005
2781,0.055,-0.015
2782,0.015,-0.025
2783,-0.005,-0.055
2784,-0.005,-0.065
2785,-0.035,-0.065
2786,-0.025,-0.055
2787,-0.025,-0.075
2788,-0.025,-0.075
2789,-0.015,-0.065
2790,-0.015,-0.045
2791,-0.025,-0.045
2792,-0.025,-0.055
2793,-0.025,-0.055
2794,-0.025,-0.035
2795,-0.015,-0.045
2796,-0.025,-0.055
2797,-0.025,-0.055
2798,-0.015,-0.035
2799,-0.035,-0.045
2800,-0.045,-0.065
2801,-0.045,-0.075
2802,-0.045,-0.055
2803,-0.045,-0.065
2804,-0.055,-0.085
2805,-0.055,-0.085
2806,-0.045,-0.085
2807,-0.055,-0.085
2808,-0.065,-0.105
2809,-0.065,-0.105
2810,-0.065,-0.085
2811,-0.065,-0.095
2812,-0.075,-0.115
2813,-0.065,-0.115
2814,-0.065,-0.095
2815,-0.075,-0.105
2816,-0.075,-0.115
2817,-0.095,-0.105
2818,-0.075,-0.095
2819,-0.075,-0.105
2820,-0.065,-0.105
2821,-0.065,-0.115
2822,-0.055,-0.115
2823,-0.045,-0.115
2824,0.035,-0.035
2825,0.055,-0.015
2826,0.005,-0.085
2827,-0.035,-0.095
2828,-0.055,-0.115
2829,-0.045,-0.095
2830,-0.085,-0.105
2831,-0.095,-0.125
2832,-0.095,-0.125
2833,-0.095,-0.105
2834,-0.095,-0.115
2835,-0.095,-0.125
2836,-0.085,-0.115
2837,-0.095,-0.105
2838,-0.085,-0.105
2839,-0.085,-0.115
2840,-0.095,-0.105
2841,-0.055,-0.095
2842,-0.075,-0.075
2843,-0.295,0.015
2844,-0.265,0.075
2845,0.135,0.505
2846,1.045,-0.365
2847,1.765,-0.935
2848,0.685,-0.875
2849,-0.355,-0.955
2850,-0.555,-0.655
2851,-0.355,-0.295
2852,-0.135,-0.095
2853,-0.065,0.005
2854,-0.085,-0.005
2855,-0.105,-0.045
2856,-0.115,-0.035
2857,-0.095,-0.015
2858,-0.095,-0.015
2859,-0.095,-0.025
2860,-0.085,-0.015
2861,-0.085,0.005
2862,-0.085,-0.005
2863,-0.095,-0.015
2864,-0.095,-0.005
2865,-0.075,0.015
2866,-0.065,0.015
2867,-0.065,0.005
2868,-0.045,0.005
2869,-0.035,0.035
2870,-0.035,0.035
2871,-0.015,0.025
2872,-0.025,0.025
2873,0.005,0.055
2874,0.025,0.055
2875,0.045,0.045
2876,0.075,0.055
2877,0.105,0.075
2878,0.125,0.085
2879,0.155,0.065
2880,0.165,0.075
2881,0.215,0.095
2882,0.255,0.095
2883,0.275,0.075
2884,0.315,0.095
2885,0.315,0.105
2886,0.305,0.115
2887,0.275,0.105
2888,0.215,0.105
2889,0.185,0.095
2890,0.125,0.075
2891,0.055,0.035
2892,0.025,0.005
2893,-0.025,-0.005
2894,-0.055,-0.025
2895,-0.085,-0.055
2896,-0.095,-0.055
2897,-0.085,-0.045
2898,-0.095,-0.045
2899,-0.095,-0.065
2900,-0.085,-0.055
2901,-0.085,-0.035
2902,-0.095,-0.045
2903,-0.095,-0.055
2904,-0.105,-0.045
2905,-0.085,-0.025
2906,-0.085,-0.035
2907,-0.095,-0.045
2908,-0.085,-0.045
2909,-0.095,-0.035
2910,-0.095,-0.045
2911,-0.095,-0.065
2912,-0.115,-0.055
2913,-0.105,-0.055
2914,-0.105,-0.065
2915,-0.115,-0.085
2916,-0.115,-0.085
2917,-0.125,-0.075
2918,-0.125,-0.085
2919,-0.125,-0.095
2920,-0.135,-0.095
2921,-0.125,-0.085
2922,-0.125,-0.085
2923,-0.135,-0.105
2924,-0.115,-0.095
2925,-0.125,-0.085
2926,-0.125,-0.095
2927,-0.125,-0.115
2928,-0.145,-0.105
2929,-0.135,-0.095
2930,-0.135,-0.095
2931,-0.135,-0.115
2932,-0.115,-0.105
2933,-0.125,-0.085
2934,-0.135,-0.095
2935,-0.135,-0.105
2936,-0.145,-0.105
2937,-0.125,-0.085
2938,-0.125,-0.095
2939,-0.135,-0.115
2940,-0.095,-0.115
2941,-0.065,-0.085
2942,-0.015,-0.015
2943,0.005,-0.025
2944,-0.045,-0.085
2945,-0.085,-0.075
2946,-0.085,-0.085
2947,-0.115,-0.105
2948,-0.135,-0.115
2949,-0.135,-0.115
2950,-0.135,-0.105
2951,-0.145,-0.115
2952,-0.135,-0.115
2953,-0.155,-0.105
2954,-0.135,-0.105
2955,-0.145,-0.115
2956,-0.145,-0.115
2957,-0.125,-0.105
2958,-0.125,-0.095
2959,-0.115,-0.095
2960,-0.095,-0.105
2961,-0.195,-0.055
2962,-0.395,0.025
2963,-0.265,0.145
2964,0.275,0.465
2965,1.295,-0.495
2966,1.635,-0.915
2967,0.465,-0.865
2968,-0.485,-0.945
2969,-0.595,-0.605
2970,-0.365,-0.255
2971,-0.175,-0.085
2972,-0.115,-0.005
2973,-0.135,-0.015
2974,-0.145,-0.015
2975,-0.155,-0.025
2976,-0.145,-0.025
2977,-0.165,-0.015
2978,-0.145,-0.015
2979,-0.145,-0.015
2980,-0.135,-0.015
2981,-0.135,-0.005
2982,-0.135,-0.005
2983,-0.135,-0.005
2984,-0.125,-0.005
2985,-0.115,0.015
2986,-0.105,0.015
2987,-0.095,0.015
2988,-0.085,0.015
2989,-0.055,0.035
2990,-0.055,0.045
2991,-0.045,0.045
2992,-0.015,0.035
2993,0.005,0.055
2994,0.025,0.065
2995,0.055,0.045
2996,0.095,0.055
2997,0.125,0.085
2998,0.145,0.065
2999,0.175,0.055
3000,0.195,0.065
3001,0.245,0.085
3002,0.265,0.085
3003,0.275,0.085
3004,0.275,0.105
3005,0.235,0.115
3006,0.175,0.095
3007,0.115,0.065
3008,0.035,0.055
3009,0.015,0.035
3010,-0.045,-0.005
3011,-0.085,-0.035
3012,-0.105,-0.035
3013,-0.115,-0.055
3014,-0.125,-0.065
3015,-0.135,-0.075
3016,-0.135,-0.065
3017,-0.145,-0.065
3018,-0.135,-0.065
3019,-0.135,-0.065
3020,-0.125,-0.055
3021,-0.135,-0.055
3022,-0.135,-0.055
3023,-0.135,-0.065
3024,-0.145,-0.055
3025,-0.145,-0.045
3026,-0.135,-0.055
3027,-0.145,-0.075
3028,-0.135,-0.065
3029,-0.145,-0.065
3030,-0.155,-0.075
3031,-0.155,-0.095
3032,-0.185,-0.095
3033,-0.165,-0.085
3034,-0.165,-0.095
3035,-0.175,-0.115
3036,-0.165,-0.115
3037,-0.175,-0.105
3038,-0.175,-0.105
3039,-0.175,-0.125
3040,-0.195,-0.125
3041,-0.175,-0.115
3042,-0.175,-0.115
3043,-0.195,-0.125
3044,-0.175,-0.115
3045,-0.185,-0.115
3046,-0.185,-0.115
3047,-0.185,-0.125
3048,-0.175,-0.135
3049,-0.185,-0.115
3050,-0.175,-0.115
3051,-0.195,-0.135
3052,-0.185,-0.135
3053,-0.155,-0.125
3054,-0.105,-0.075
3055,-0.055,-0.035
3056,-0.065,-0.075
3057,-0.125,-0.105
3058,-0.135,-0.105
3059,-0.165,-0.125
3060,-0.175,-0.145
3061,-0.195,-0.135
3062,-0.205,-0.135
3063,-0.205,-0.145
3064,-0.185,-0.145
3065,-0.195,-0.135
3066,-0.185,-0.135
3067,-0.185,-0.135
3068,-0.195,-0.135
3069,-0.175,-0.125
3070,-0.175,-0.125
3071,-0.185,-0.125
3072,-0.145,-0.135
3073,-0.175,-0.105
3074,-0.375,-0.025
3075,-0.435,-0.005
3076,-0.065,0.405
3077,0.905,-0.085
3078,1.705,-0.785
3079,0.735,-0.855
3080,-0.375,-0.985
3081,-0.655,-0.715
3082,-0.475,-0.385
3083,-0.265,-0.175
3084,-0.175,-0.055
3085,-0.165,-0.045
3086,-0.195,-0.065
3087,-0.205,-0.075
3088,-0.195,-0.065
3089,-0.185,-0.055
3090,-0.185,-0.055
3091,-0.185,-0.065
3092,-0.185,-0.055
3093,-0.175,-0.035
3094,-0.175,-0.045
3095,-0.175,-0.055
3096,-0.165,-0.055
3097,-0.145,-0.025
3098,-0.145,-0.035
3099,-0.145,-0.045
3100,-0.135,-0.035
3101,-0.115,-0.015
3102,-0.105,-0.015
3103,-0.085,-0.025
3104,-0.085,-0.015
3105,-0.045,-0.005
3106,-0.025,-0.005
3107,-0.005,-0.015
3108,0.035,-0.005
3109,0.065,0.005
3110,0.085,0.005
3111,0.125,0.005
3112,0.125,0.005
3113,0.185,0.015
3114,0.215,0.015
3115,0.215,0.015
3116,0.235,0.025
3117,0.205,0.055
3118,0.165,0.045
3119,0.105,0.025
3120,0.035,0.025
3121,-0.005,0.005
3122,-0.055,-0.015
3123,-0.095,-0.055
3124,-0.115,-0.065
3125,-0.145,-0.075
3126,-0.165,-0.085
3127,-0.175,-0.095
3128,-0.195,-0.105
3129,-0.175,-0.085
3130,-0.185,-0.085
3131,-0.185,-0.105
3132,-0.185,-0.095
3133,-0.175,-0.085
3134,-0.185,-0.085
3135,-0.185,-0.105
3136,-0.175,-0.095
3137,-0.175,-0.085
3138,-0.185,-0.085
3139,-0.195,-0.105
3140,-0.185,-0.105
3141,-0.165,-0.095
3142,-0.185,-0.105
3143,-0.195,-0.115
3144,-0.195,-0.125
3145,-0.205,-0.115
3146,-0.185,-0.115
3147,-0.195,-0.135
3148,-0.205,-0.135
3149,-0.185,-0.125
3150,-0.205,-0.125
3151,-0.195,-0.135
3152,-0.195,-0.145
3153,-0.205,-0.145
3154,-0.175,-0.155
3155,-0.155,-0.145
3156,-0.085,-0.065
3157,-0.035,-0.035
3158,-0.115,-0.105
3159,-0.125,-0.125
3160,-0.175,-0.145
3161,-0.175,-0.145
3162,-0.195,-0.145
3163,-0.215,-0.165
3164,-0.205,-0.165
3165,-0.195,-0.155
3166,-0.215,-0.155
3167,-0.205,-0.165
3168,-0.215,-0.155
3169,-0.205,-0.155
3170,-0.205,-0.145
3171,-0.195,-0.165
3172,-0.175,-0.155
3173,-0.195,-0.145
3174,-0.185,-0.145
3175,-0.135,-0.135
3176,-0.315,-0.065
3177,-0.465,0.005
3178,-0.225,0.275
3179,0.615,0.245
3180,1.675,-0.665
3181,1.335,-0.855
3182,-0.105,-0.925
3183,-0.655,-0.755
3184,-0.575,-0.455
3185,-0.355,-0.225
3186,-0.205,-0.085
3187,-0.185,-0.055
3188,-0.185,-0.075
3189,-0.195,-0.075
3190,-0.205,-0.075
3191,-0.195,-0.075
3192,-0.195,-0.055
3193,-0.185,-0.055
3194,-0.185,-0.065
3195,-0.185,-0.065
3196,-0.165,-0.045
3197,-0.155,-0.045
3198,-0.165,-0.055
3199,-0.145,-0.065
3200,-0.165,-0.045
3201,-0.145,-0.045
3202,-0.105,-0.035
3203,-0.105,-0.045
3204,-0.085,-0.035
3205,-0.085,-0.025
3206,-0.065,-0.025
3207,-0.065,-0.025
3208,-0.045,-0.015
3209,-0.015,-0.005
3210,0.005,-0.005
3211,0.035,-0.015
3212,0.065,-0.005
3213,0.095,0.005
3214,0.115,-0.005
3215,0.145,-0.005
3216,0.185,-0.005
3217,0.195,0.015
3218,0.225,0.015
3219,0.235,0.015
3220,0.225,0.035
3221,0.205,0.045
3222,0.145,0.055
3223,0.095,0.035
3224,0.055,0.005
3225,-0.025,-0.005
3226,-0.055,-0.025
3227,-0.085,-0.035
3228,-0.115,-0.065
3229,-0.135,-0.075
3230,-0.145,-0.075
3231,-0.155,-0.075
3232,-0.145,-0.085
3233,-0.165,-0.075
3234,-0.155,-0.065
3235,-0.145,-0.065
3236,-0.145,-0.075
3237,-0.145,-0.065
3238,-0.145,-0.055
3239,-0.145,-0.065
3240,-0.145,-0.075
3241,-0.155,-0.065
3242,-0.145,-0.055
3243,-0.135,-0.065
3244,-0.145,-0.075
3245,-0.135,-0.065
3246,-0.135,-0.065
3247,-0.145,-0.075
3248,-0.155,-0.075
3249,-0.145,-0.095
3250,-0.155,-0.095
3251,-0.155,-0.095
3252,-0.145,-0.095
3253,-0.155,-0.115
3254,-0.135,-0.105
3255,-0.155,-0.105
3256,-0.155,-0.115
3257,-0.135,-0.125
3258,-0.085,-0.075
3259,-0.025,-0.015
3260,-0.035,-0.055
3261,-0.080,-0.085
3262,-0.100,-0.085
3263,-0.130,-0.115
3264,-0.150,-0.125
3265,-0.180,-0.125
3266,-0.170,-0.125
3267,-0.170,-0.125
3268,-0.160,-0.125
3269,-0.160,-0.115
3270,-0.170,-0.115
3271,-0.170,-0.135
3272,-0.150,-0.125
3273,-0.160,-0.105
3274,-0.150,-0.115
3275,-0.150,-0.115
3276,-0.120,-0.105
3277,-0.120,-0.085
3278,-0.330,0.015
3279,-0.345,0.065
3280,0.125,0.475
3281,0.995,-0.225
3282,1.795,-0.845
3283,0.635,-0.845
3284,-0.485,-0.875
3285,-0.605,-0.595
3286,-0.395,-0.265
3287,-0.185,-0.075
3288,-0.125,0.005
3289,-0.145,-0.015
3290,-0.155,-0.035
3291,-0.165,-0.035
3292,-0.145,-0.025
3293,-0.155,-0.015
3294,-0.165,-0.015
3295,-0.145,-0.015
3296,-0.155,-0.005
3297,-0.135,0.005
3298,-0.125,0.005
3299,-0.125,-0.005
3300,-0.105,0.005
3301,-0.115,0.015
3302,-0.105,0.025
3303,-0.105,0.015
3304,-0.105,0.025
3305,-0.075,0.045
3306,-0.055,0.045
3307,-0.055,0.045
3308,-0.025,0.055
3309,-0.005,0.075
3310,0.005,0.075
3311,0.025,0.065
3312,0.045,0.075
3313,0.085,0.095
3314,0.105,0.095
3315,0.125,0.095
3316,0.165,0.095
3317,0.205,0.115
3318,0.225,0.115
3319,0.245,0.105
3320,0.265,0.115
3321,0.245,0.125
3322,0.225,0.125
3323,0.175,0.105
3324,0.115,0.085
3325,0.065,0.075
3326,0.005,0.045
3327,-0.045,0.005
3328,-0.085,-0.015
3329,-0.105,-0.015
3330,-0.125,-0.035
3331,-0.145,-0.065
3332,-0.135,-0.055
3333,-0.145,-0.045
3334,-0.145,-0.045
3335,-0.145,-0.055
3336,-0.145,-0.055
3337,-0.135,-0.035
3338,-0.135,-0.025
3339,-0.135,-0.045
3340,-0.115,-0.045
3341,-0.125,-0.025
3342,-0.135,-0.025
3343,-0.135,-0.035
3344,-0.155,-0.035
3345,-0.135,-0.035
3346,-0.145,-0.045
3347,-0.145,-0.055
3348,-0.145,-0.055
3349,-0.155,-0.055
3350,-0.165,-0.055
3351,-0.165,-0.075
3352,-0.185,-0.075
3353,-0.175,-0.065
3354,-0.175,-0.075
3355,-0.175,-0.085
3356,-0.165,-0.085
3357,-0.175,-0.075
3358,-0.175,-0.085
3359,-0.175,-0.085
3360,-0.185,-0.085
3361,-0.175,-0.085
3362,-0.175,-0.105
3363,-0.165,-0.105
3364,-0.075,-0.025
3365,-0.035,0.005
3366,-0.085,-0.035
3367,-0.135,-0.075
3368,-0.145,-0.085
3369,-0.155,-0.085
3370,-0.165,-0.085
3371,-0.195,-0.105
3372,-0.185,-0.105
3373,-0.195,-0.095
3374,-0.195,-0.095
3375,-0.195,-0.115
3376,-0.215,-0.105
3377,-0.195,-0.095
3378,-0.195,-0.095
3379,-0.185,-0.115
3380,-0.175,-0.105
3381,-0.175,-0.095
3382,-0.175,-0.085
3383,-0.155,-0.095
3384,-0.215,-0.045
3385,-0.425,0.045
3386,-0.305,0.175
3387,0.235,0.455
3388,1.255,-0.595
3389,1.595,-0.975
3390,0.255,-0.895
3391,-0.625,-0.875
3392,-0.605,-0.475
3393,-0.355,-0.165
3394,-0.185,-0.015
3395,-0.175,0.005
3396,-0.185,-0.015
3397,-0.185,-0.005
3398,-0.205,-0.005
3399,-0.205,-0.015
3400,-0.205,-0.015
3401,-0.195,0.015
3402,-0.185,0.005
3403,-0.195,0.005
3404,-0.185,0.005
3405,-0.165,0.015
3406,-0.165,0.015
3407,-0.165,0.005
3408,-0.145,0.015
3409,-0.135,0.035
3410,-0.135,0.045
3411,-0.125,0.025
3412,-0.105,0.045
3413,-0.075,0.055
3414,-0.075,0.055
3415,-0.065,0.055
3416,-0.035,0.065
3417,-0.025,0.075
3418,0.005,0.085
3419,0.035,0.075
3420,0.065,0.085
3421,0.105,0.095
3422,0.135,0.095
3423,0.145,0.085
3424,0.205,0.095
3425,0.215,0.115
3426,0.255,0.115
3427,0.245,0.105
3428,0.245,0.115
3429,0.215,0.125
3430,0.155,0.115
3431,0.095,0.085
3432,0.055,0.055
3433,-0.025,0.035
3434,-0.065,0.005
3435,-0.095,-0.025
3436,-0.125,-0.035
3437,-0.125,-0.035
3438,-0.145,-0.045
3439,-0.145,-0.065
3440,-0.135,-0.055
3441,-0.145,-0.045
3442,-0.135,-0.045
3443,-0.145,-0.045
3444,-0.145,-0.055
3445,-0.115,-0.035
3446,-0.135,-0.035
3447,-0.135,-0.045
3448,-0.125,-0.035
3449,-0.125,-0.035
3450,-0.125,-0.025
3451,-0.145,-0.055
3452,-0.135,-0.045
3453,-0.125,-0.035
3454,-0.135,-0.045
3455,-0.145,-0.065
3456,-0.125,-0.065
3457,-0.145,-0.065
3458,-0.145,-0.065
3459,-0.155,-0.085
3460,-0.155,-0.085
3461,-0.135,-0.075
3462,-0.145,-0.085
3463,-0.155,-0.095
3464,-0.135,-0.095
3465,-0.145,-0.095
3466,-0.135,-0.095
3467,-0.155,-0.105
3468,-0.145,-0.095
3469,-0.125,-0.085
3470,-0.135,-0.085
3471,-0.145,-0.115
3472,-0.115,-0.115
3473,-0.105,-0.085
3474,-0.025,-0.015
3475,0.005,-0.015
3476,-0.035,-0.065
3477,-0.075,-0.075
3478,-0.085,-0.085
3479,-0.105,-0.115
3480,-0.105,-0.105
3481,-0.135,-0.105
3482,-0.135,-0.105
3483,-0.145,-0.115
3484,-0.135,-0.115
3485,-0.125,-0.105
3486,-0.125,-0.095
3487,-0.135,-0.115
3488,-0.125,-0.105
3489,-0.125,-0.105
3490,-0.115,-0.095
3491,-0.125,-0.105
3492,-0.105,-0.095
3493,-0.075,-0.085
3494,-0.145,-0.035
3495,-0.375,0.015
3496,-0.225,0.175
3497,0.385,0.425
3498,1.405,-0.615
3499,1.565,-0.955
3500,0.275,-0.915
3501,-0.535,-0.825
3502,-0.495,-0.445
3503,-0.255,-0.185
3504,-0.115,-0.015
3505,-0.085,0.015
3506,-0.115,-0.015
3507,-0.115,-0.035
3508,-0.125,-0.025
3509,-0.105,-0.005
3510,-0.115,-0.005
3511,-0.105,-0.015
3512,-0.105,-0.005
3513,-0.095,0.005
3514,-0.095,-0.005
3515,-0.095,-0.015
3516,-0.075,-0.005
3517,-0.065,0.015
3518,-0.065,0.015
3519,-0.055,0.005
3520,-0.065,0.005
3521,-0.035,0.035
3522,-0.015,0.045
3523,-0.005,0.035
3524,0.025,0.045
3525,0.035,0.055
3526,0.055,0.055
3527,0.085,0.045
3528,0.105,0.055
3529,0.135,0.075
3530,0.175,0.075
3531,0.195,0.065
3532,0.245,0.075
3533,0.275,0.085
3534,0.295,0.085
3535,0.315,0.075
3536,0.315,0.095
3537,0.315,0.115
3538,0.285,0.105
3539,0.235,0.085
3540,0.185,0.075
3541,0.135,0.065
3542,0.065,0.025
3543,0.025,-0.005
3544,-0.025,-0.035
3545,-0.035,-0.035
3546,-0.055,-0.055
3547,-0.065,-0.065
3548,-0.065,-0.075
3549,-0.065,-0.065
3550,-0.075,-0.055
3551,-0.075,-0.075
3552,-0.065,-0.065
3553,-0.065,-0.055
3554,-0.065,-0.055
3555,-0.075,-0.055
3556,-0.065,-0.055
3557,-0.065,-0.045
3558,-0.065,-0.045
3559,-0.075,-0.065
3560,-0.065,-0.065
3561,-0.085,-0.055
3562,-0.075,-0.055
3563,-0.085,-0.075
3564,-0.075,-0.085
3565,-0.065,-0.075
3566,-0.085,-0.075
3567,-0.085,-0.085
3568,-0.095,-0.105
3569,-0.105,-0.095
3570,-0.095,-0.095
3571,-0.095,-0.105
3572,-0.095,-0.115
3573,-0.085,-0.105
3574,-0.095,-0.105
3575,-0.105,-0.115
3576,-0.085,-0.115
3577,-0.105,-0.105
3578,-0.095,-0.105
3579,-0.105,-0.125
3580,-0.105,-0.115
3581,-0.085,-0.105
3582,-0.085,-0.105
3583,-0.095,-0.115
3584,-0.095,-0.135
3585,-0.085,-0.125
3586,-0.065,-0.115
3587,-0.005,-0.045
3588,0.055,-0.025
3589,-0.005,-0.085
3590,-0.055,-0.085
3591,-0.065,-0.135
3592,-0.095,-0.125
3593,-0.115,-0.125
3594,-0.105,-0.125
3595,-0.115,-0.135
3596,-0.095,-0.125
3597,-0.105,-0.125
3598,-0.105,-0.125
3599,-0.105,-0.135
3600,-0.115,-0.125
3601,-0.105,-0.125
3602,-0.105,-0.125
3603,-0.105,-0.125
3604,-0.075,-0.115
3605,-0.065,-0.105
3606,-0.125,-0.075
3607,-0.335,-0.005
3608,-0.295,0.065
3609,0.005,0.445
3610,0.875,-0.125
3611,1.785,-0.835
3612,0.935,-0.885
3613,-0.245,-0.985
3614,-0.585,-0.715
3615,-0.395,-0.345
3616,-0.205,-0.125
3617,-0.095,-0.015
3618,-0.095,-0.025
3619,-0.125,-0.055
3620,-0.105,-0.045
3621,-0.125,-0.035
3622,-0.125,-0.035
3623,-0.125,-0.055
3624,-0.135,-0.045
3625,-0.115,-0.025
3626,-0.105,-0.025
3627,-0.105,-0.035
3628,-0.085,-0.025
3629,-0.085,-0.015
3630,-0.095,-0.015
3631,-0.075,-0.035
3632,-0.085,-0.015
3633,-0.065,-0.005
3634,-0.045,-0.005
3635,-0.035,-0.005
3636,-0.025,-0.005
3637,0.015,0.025
3638,0.025,0.015
3639,0.045,0.005
3640,0.065,0.015
3641,0.085,0.035
3642,0.125,0.035
3643,0.135,0.015
3644,0.165,0.025
3645,0.215,0.045
3646,0.245,0.035
3647,0.255,0.025
3648,0.305,0.045
3649,0.305,0.065
3650,0.335,0.075
3651,0.315,0.075
3652,0.275,0.075
3653,0.225,0.085
3654,0.165,0.055
3655,0.105,0.035
3656,0.065,0.005
3657,0.005,-0.015
3658,-0.025,-0.025
3659,-0.065,-0.045
3660,-0.075,-0.075
3661,-0.065,-0.075
3662,-0.095,-0.075
3663,-0.095,-0.075
3664,-0.095,-0.085
3665,-0.115,-0.085
3666,-0.095,-0.065
3667,-0.105,-0.065
3668,-0.095,-0.065
3669,-0.085,-0.075
3670,-0.095,-0.055
3671,-0.105,-0.075
3672,-0.105,-0.075
3673,-0.115,-0.075
3674,-0.105,-0.065
3675,-0.105,-0.075
3676,-0.105,-0.085
3677,-0.095,-0.095
3678,-0.105,-0.085
3679,-0.115,-0.095
3680,-0.115,-0.115
3681,-0.145,-0.105
3682,-0.125,-0.105
3683,-0.115,-0.105
3684,-0.115,-0.125
3685,-0.115,-0.115
3686,-0.115,-0.115
3687,-0.115,-0.115
3688,-0.115,-0.125
3689,-0.135,-0.125
3690,-0.125,-0.125
3691,-0.095,-0.125
3692,-0.035,-0.065
3693,0.045,-0.025
3694,-0.005,-0.075
3695,-0.045,-0.105
3696,-0.065,-0.105
3697,-0.105,-0.115
3698,-0.135,-0.125
3699,-0.145,-0.155
3700,-0.135,-0.145
3701,-0.125,-0.135
3702,-0.125,-0.125
3703,-0.135,-0.145
3704,-0.125,-0.135
3705,-0.135,-0.135
3706,-0.125,-0.125
3707,-0.135,-0.145
3708,-0.125,-0.135
3709,-0.115,-0.125
3710,-0.115,-0.115
3711,-0.105,-0.125
3712,-0.075,-0.115
3713,-0.255,-0.025
3714,-0.385,0.035
3715,-0.055,0.395
3716,0.885,0.015
3717,1.775,-0.725
3718,1.085,-0.805
3719,-0.185,-0.935
3720,-0.575,-0.695
3721,-0.465,-0.415
3722,-0.265,-0.205
3723,-0.145,-0.085
3724,-0.105,-0.045
3725,-0.105,-0.055
3726,-0.135,-0.065
3727,-0.135,-0.065
3728,-0.125,-0.065
3729,-0.125,-0.045
3730,-0.125,-0.045
3731,-0.115,-0.055
3732,-0.105,-0.055
3733,-0.095,-0.035
3734,-0.095,-0.025
3735,-0.095,-0.035
3736,-0.085,-0.035
3737,-0.075,-0.025
3738,-0.055,-0.025
3739,-0.055,-0.035
3740,-0.035,-0.015
3741,-0.025,-0.005
3742,-0.015,-0.005
3743,-0.005,-0.015
3744,0.025,-0.005
3745,0.035,0.015
3746,0.065,0.015
3747,0.085,-0.005
3748,0.115,0.015
3749,0.145,0.015
3750,0.175,0.015
3751,0.195,0.005
3752,0.235,0.015
3753,0.255,0.025
3754,0.285,0.025
3755,0.285,0.025
3756,0.285,0.045
3757,0.265,0.065
3758,0.225,0.065
3759,0.155,0.055
3760,0.125,0.035
3761,0.055,0.015
3762,0.005,-0.005
3763,-0.035,-0.045
3764,-0.065,-0.055
3765,-0.065,-0.055
3766,-0.095,-0.065
3767,-0.105,-0.065
3768,-0.085,-0.065
3769,-0.105,-0.055
3770,-0.095,-0.055
3771,-0.105,-0.075
3772,-0.105,-0.055
3773,-0.085,-0.045
3774,-0.105,-0.045
3775,-0.105,-0.065
3776,-0.095,-0.055
3777,-0.105,-0.055
3778,-0.095,-0.055
3779,-0.105,-0.075
3780,-0.095,-0.065
3781,-0.105,-0.065
3782,-0.115,-0.075
3783,-0.115,-0.095
3784,-0.125,-0.085
3785,-0.125,-0.085
3786,-0.125,-0.095
3787,-0.135,-0.115
3788,-0.105,-0.105
3789,-0.115,-0.085
3790,-0.115,-0.105
3791,-0.125,-0.125
3792,-0.135,-0.125
3793,-0.095,-0.105
3794,-0.005,-0.025
3795,0.025,-0.025
3796,-0.025,-0.075
3797,-0.055,-0.085
3798,-0.095,-0.115
3799,-0.105,-0.125
3800,-0.145,-0.125
3801,-0.145,-0.125
3802,-0.145,-0.135
3803,-0.145,-0.145
3804,-0.135,-0.135
3805,-0.145,-0.125
3806,-0.145,-0.135
3807,-0.135,-0.145
3808,-0.155,-0.135
3809,-0.135,-0.125
3810,-0.135,-0.125
3811,-0.125,-0.135
3812,-0.115,-0.125
3813,-0.115,-0.105
3814,-0.095,-0.115
3815,-0.155,-0.075
3816,-0.405,0.015
3817,-0.285,0.155
3818,0.235,0.455
3819,1.155,-0.345
3820,1.815,-0.845
3821,0.565,-0.835
3822,-0.425,-0.855
3823,-0.575,-0.615
3824,-0.395,-0.325
3825,-0.225,-0.145
3826,-0.115,-0.035
3827,-0.125,-0.045
3828,-0.135,-0.055
3829,-0.115,-0.045
3830,-0.135,-0.045
3831,-0.135,-0.045
3832,-0.115,-0.045
3833,-0.135,-0.025
3834,-0.115,-0.025
3835,-0.115,-0.035
3836,-0.105,-0.035
3837,-0.085,-0.025
3838,-0.085,-0.015
3839,-0.085,-0.025
3840,-0.065,-0.015
3841,-0.065,-0.005
3842,-0.035,0.005
3843,-0.055,-0.005
3844,-0.025,0.005
3845,0.005,0.025
3846,0.015,0.025
3847,0.025,0.025
3848,0.055,0.035
3849,0.065,0.045
3850,0.095,0.055
3851,0.115,0.055
3852,0.145,0.045
3853,0.195,0.065
3854,0.205,0.065
3855,0.235,0.065
3856,0.265,0.065
3857,0.275,0.075
3858,0.295,0.095
3859,0.285,0.085
3860,0.245,0.085
3861,0.215,0.085
3862,0.155,0.075
3863,0.095,0.035
3864,0.055,0.015
3865,-0.015,-0.005
3866,-0.035,-0.015
3867,-0.035,-0.025
3868,-0.055,-0.055
3869,-0.065,-0.065
3870,-0.065,-0.055
3871,-0.085,-0.065
3872,-0.085,-0.065
3873,-0.085,-0.065
3874,-0.075,-0.045
3875,-0.085,-0.055
3876,-0.075,-0.045
3877,-0.055,-0.045
3878,-0.065,-0.045
3879,-0.075,-0.045
3880,-0.065,-0.045
3881,-0.075,-0.035
3882,-0.075,-0.045
3883,-0.085,-0.065
3884,-0.075,-0.065
3885,-0.075,-0.055
3886,-0.075,-0.065
3887,-0.085,-0.085
3888,-0.095,-0.075
3889,-0.095,-0.075
3890,-0.095,-0.085
3891,-0.095,-0.095
3892,-0.085,-0.085
3893,-0.095,-0.085
3894,-0.095,-0.095
3895,-0.085,-0.095
3896,-0.105,-0.095
3897,-0.085,-0.095
3898,-0.085,-0.095
3899,0.005,-0.015
3900,0.055,-0.005
3901,0.005,-0.045
3902,-0.045,-0.075
3903,-0.055,-0.095
3904,-0.085,-0.105
3905,-0.075,-0.095
3906,-0.095,-0.105
3907,-0.115,-0.115
3908,-0.095,-0.115
3909,-0.105,-0.105
3910,-0.105,-0.105
3911,-0.115,-0.115
3912,-0.105,-0.105
3913,-0.105,-0.095
3914,-0.095,-0.105
3915,-0.105,-0.115
3916,-0.095,-0.115
3917,-0.075,-0.085
3918,-0.075,-0.085
3919,-0.075,-0.085
3920,-0.225,0.015
3921,-0.355,0.045
3922,-0.035,0.445
3923,0.755,-0.095
3924,1.735,-0.845
3925,1.135,-0.925
3926,-0.195,-0.935
3927,-0.585,-0.715
3928,-0.385,-0.295
3929,-0.165,-0.075
3930,-0.065,0.025
3931,-0.085,-0.015
3932,-0.095,-0.025
3933,-0.105,-0.005
3934,-0.105,-0.005
3935,-0.115,-0.025
3936,-0.105,-0.005
3937,-0.095,0.005
3938,-0.085,0.005
3939,-0.095,-0.005
3940,-0.065,0.015
3941,-0.075,0.025
3942,-0.065,0.025
3943,-0.055,0.015
3944,-0.065,0.025
3945,-0.045,0.045
3946,-0.025,0.035
3947,-0.015,0.035
3948,0.015,0.055
3949,0.015,0.065
3950,0.025,0.065
3951,0.045,0.065
3952,0.055,0.075
3953,0.095,0.085
3954,0.125,0.085
3955,0.155,0.085
3956,0.195,0.095
3957,0.215,0.105
3958,0.245,0.105
3959,0.275,0.095
3960,0.275,0.105
3961,0.305,0.125
3962,0.315,0.125
3963,0.285,0.115
3964,0.245,0.115
3965,0.185,0.105
3966,0.135,0.075
3967,0.085,0.035
3968,0.015,0.005
3969,-0.015,-0.005
3970,-0.035,-0.025
3971,-0.065,-0.055
3972,-0.065,-0.065
3973,-0.075,-0.055
3974,-0.085,-0.055
3975,-0.085,-0.075
3976,-0.105,-0.065
3977,-0.075,-0.055
3978,-0.075,-0.045
3979,-0.085,-0.055
3980,-0.075,-0.055
3981,-0.075,-0.045
3982,-0.075,-0.035
3983,-0.085,-0.055
3984,-0.085,-0.055
3985,-0.075,-0.045
3986,-0.075,-0.045
3987,-0.095,-0.065
3988,-0.085,-0.065
3989,-0.085,-0.065
3990,-0.085,-0.065
3991,-0.095,-0.085
3992,-0.085,-0.085
3993,-0.105,-0.085
3994,-0.095,-0.085
3995,-0.105,-0.105
3996,-0.105,-0.105
3997,-0.105,-0.105
3998,-0.105,-0.095
3999,-0.115,-0.105
4000,-0.105,-0.115
4001,-0.125,-0.115
4002,-0.105,-0.105
4003,-0.105,-0.105
4004,-0.115,-0.115
4005,-0.095,-0.115
4006,-0.095,-0.095
4007,-0.095,-0.095
4008,-0.105,-0.125
4009,-0.105,-0.135
4010,-0.085,-0.105
4011,-0.005,-0.025
4012,0.045,-0.025
4013,-0.005,-0.085
4014,-0.055,-0.085
4015,-0.065,-0.105
4016,-0.085,-0.125
4017,-0.105,-0.115
4018,-0.115,-0.115
4019,-0.115,-0.125
4020,-0.115,-0.125
4021,-0.105,-0.135
4022,-0.115,-0.115
4023,-0.115,-0.125
4024,-0.115,-0.125
4025,-0.125,-0.125
4026,-0.115,-0.115
4027,-0.095,-0.115
4028,-0.095,-0.115
4029,-0.065,-0.105
4030,-0.155,-0.035
4031,-0.385,-0.005
4032,-0.165,0.225
4033,0.525,0.255
4034,1.585,-0.725
4035,1.315,-0.965
4036,-0.005,-0.955
4037,-0.555,-0.785
4038,-0.425,-0.375
4039,-0.215,-0.165
4040,-0.095,-0.025
4041,-0.105,-0.025
4042,-0.105,-0.035
4043,-0.125,-0.045
4044,-0.105,-0.035
4045,-0.115,-0.025
4046,-0.105,-0.025
4047,-0.105,-0.035
4048,-0.105,-0.025
4049,-0.105,-0.015
4050,-0.095,-0.015
4051,-0.085,-0.015
4052,-0.065,-0.005
4053,-0.065,0.005
4054,-0.055,-0.005
4055,-0.045,-0.005
4056,-0.045,0.015
4057,-0.025,0.005
4058,-0.025,0.025
4059,0.005,0.015
4060,0.025,0.035
4061,0.045,0.035
4062,0.055,0.045
4063,0.085,0.035
4064,0.095,0.045
4065,0.135,0.065
4066,0.175,0.055
4067,0.195,0.055
4068,0.245,0.055
4069,0.265,0.065
4070,0.295,0.075
4071,0.305,0.065
4072,0.295,0.085
4073,0.285,0.105
4074,0.255,0.095
4075,0.195,0.065
4076,0.145,0.055
4077,0.085,0.035
4078,0.035,-0.005
4079,-0.015,-0.035
4080,-0.055,-0.055
4081,-0.065,-0.055
4082,-0.075,-0.075
4083,-0.085,-0.085
4084,-0.085,-0.095
4085,-0.085,-0.075
4086,-0.095,-0.085
4087,-0.095,-0.085
4088,-0.105,-0.075
4089,-0.095,-0.065
4090,-0.095,-0.065
4091,-0.085,-0.075
4092,-0.085,-0.075
4093,-0.085,-0.065
4094,-0.095,-0.065
4095,-0.095,-0.085
4096,-0.115,-0.085
4097,-0.105,-0.075
4098,-0.095,-0.085
4099,-0.115,-0.105
4100,-0.105,-0.105
4101,-0.105,-0.095
4102,-0.105,-0.105
4103,-0.125,-0.125
4104,-0.125,-0.115
4105,-0.115,-0.115
4106,-0.125,-0.125
4107,-0.135,-0.135
4108,-0.125,-0.135
4109,-0.105,-0.115
4110,-0.125,-0.125
4111,-0.125,-0.135
4112,-0.115,-0.135
4113,-0.115,-0.115
4114,-0.115,-0.125
4115,-0.125,-0.155
4116,-0.105,-0.155
4117,-0.045,-0.105
4118,-0.005,-0.035
4119,-0.005,-0.075
4120,-0.045,-0.125
4121,-0.075,-0.115
4122,-0.095,-0.135
4123,-0.115,-0.165
4124,-0.125,-0.155
4125,-0.125,-0.145
4126,-0.135,-0.155
4127,-0.145,-0.175
4128,-0.145,-0.165
4129,-0.135,-0.155
4130,-0.135,-0.145
4131,-0.145,-0.155
4132,-0.135,-0.155
4133,-0.125,-0.145
4134,-0.125,-0.145
4135,-0.135,-0.145
4136,-0.115,-0.135
4137,-0.115,-0.115
4138,-0.325,-0.025
4139,-0.365,-0.015
4140,0.065,0.425
4141,1.035,-0.255
4142,1.705,-0.905
4143,0.525,-0.925
4144,-0.515,-0.965
4145,-0.575,-0.615
4146,-0.345,-0.275
4147,-0.175,-0.125
4148,-0.105,-0.035
4149,-0.125,-0.045
4150,-0.155,-0.065
4151,-0.155,-0.075
4152,-0.165,-0.065
4153,-0.135,-0.045
4154,-0.135,-0.055
4155,-0.135,-0.065
4156,-0.125,-0.055
4157,-0.115,-0.035
4158,-0.115,-0.045
4159,-0.105,-0.045
4160,-0.125,-0.035
4161,-0.095,-0.015
4162,-0.085,-0.015
4163,-0.085,-0.025
4164,-0.055,-0.015
4165,-0.055,-0.005
4166,-0.035,-0.005
4167,-0.035,-0.015
4168,-0.015,-0.005
4169,0.015,0.005
4170,0.035,0.015
4171,0.045,0.005
4172,0.075,0.005
4173,0.115,0.025
4174,0.135,0.025
4175,0.155,0.015
4176,0.205,0.025
4177,0.225,0.035
4178,0.265,0.045
4179,0.275,0.035
4180,0.285,0.045
4181,0.295,0.065
4182,0.245,0.075
4183,0.185,0.065
4184,0.145,0.045
4185,0.075,0.025
4186,0.035,0.005
4187,-0.025,-0.025
4188,-0.055,-0.055
4189,-0.075,-0.065
4190,-0.085,-0.065
4191,-0.125,-0.095
4192,-0.115,-0.095
4193,-0.125,-0.095
4194,-0.105,-0.085
4195,-0.115,-0.085
4196,-0.115,-0.085
4197,-0.115,-0.085
4198,-0.115,-0.065
4199,-0.105,-0.075
4200,-0.105,-0.085
4201,-0.115,-0.075
4202,-0.115,-0.065
4203,-0.115,-0.085
4204,-0.125,-0.085
4205,-0.105,-0.075
4206,-0.125,-0.085
4207,-0.125,-0.105
4208,-0.125,-0.105
4209,-0.125,-0.105
4210,-0.125,-0.105
4211,-0.135,-0.125
4212,-0.135,-0.125
4213,-0.125,-0.115
4214,-0.135,-0.125
4215,-0.125,-0.125
4216,-0.145,-0.125
4217,-0.135,-0.125
4218,-0.115,-0.145
4219,-0.075,-0.125
4220,0.005,-0.045
4221,0.015,-0.035
4222,-0.055,-0.095
4223,-0.065,-0.115
4224,-0.105,-0.135
4225,-0.115,-0.135
4226,-0.155,-0.145
4227,-0.145,-0.155
4228,-0.145,-0.145
4229,-0.135,-0.135
4230,-0.135,-0.145
4231,-0.135,-0.155
4232,-0.145,-0.135
4233,-0.145,-0.135
4234,-0.135,-0.135
4235,-0.135,-0.145
4236,-0.115,-0.135
4237,-0.125,-0.125
4238,-0.115,-0.125
4239,-0.095,-0.125
4240,-0.125,-0.115
4241,-0.305,-0.015
4242,-0.355,0.035
4243,0.015,0.395
4244,0.845,0.135
4245,1.735,-0.675
4246,1.015,-0.825
4247,-0.175,-0.945
4248,-0.595,-0.735
4249,-0.475,-0.455
4250,-0.275,-0.225
4251,-0.135,-0.095
4252,-0.105,-0.045
4253,-0.125,-0.055
4254,-0.135,-0.065
4255,-0.135,-0.065
4256,-0.115,-0.055
4257,-0.135,-0.045
4258,-0.115,-0.045
4259,-0.125,-0.045
4260,-0.115,-0.045
4261,-0.095,-0.045
4262,-0.095,-0.035
4263,-0.105,-0.035
4264,-0.065,-0.035
4265,-0.085,-0.025
4266,-0.075,-0.015
4267,-0.055,-0.015
4268,-0.045,-0.025
4269,-0.025,-0.015
4270,-0.035,0.005
4271,-0.005,-0.005
4272,0.025,-0.005
4273,0.025,0.005
4274,0.055,0.015
4275,0.085,0.005
4276,0.095,0.005
4277,0.145,0.015
4278,0.155,0.035
4279,0.195,0.025
4280,0.235,0.025
4281,0.235,0.025
4282,0.285,0.035
4283,0.295,0.035
4284,0.305,0.045
4285,0.275,0.075
4286,0.235,0.085
4287,0.155,0.055
4288,0.115,0.055
4289,0.065,0.035
4290,0.015,0.005
4291,-0.025,-0.035
4292,-0.045,-0.045
4293,-0.075,-0.045
4294,-0.075,-0.035
4295,-0.095,-0.055
4296,-0.085,-0.055
4297,-0.095,-0.045
4298,-0.095,-0.045
4299,-0.095,-0.055
4300,-0.075,-0.045
4301,-0.075,-0.035
4302,-0.095,-0.035
4303,-0.095,-0.055
4304,-0.105,-0.045
4305,-0.085,-0.045
4306,-0.095,-0.045
4307,-0.105,-0.055
4308,-0.085,-0.055
4309,-0.095,-0.055
4310,-0.105,-0.055
4311,-0.095,-0.065
4312,-0.115,-0.065
4313,-0.105,-0.065
4314,-0.105,-0.095
4315,-0.065,-0.075
4316,0.015,0.005
4317,0.045,0.025
4318,-0.015,-0.055
4319,-0.025,-0.065
4320,-0.075,-0.075
4321,-0.095,-0.105
4322,-0.125,-0.105
4323,-0.125,-0.115
4324,-0.125,-0.105
4325,-0.115,-0.105
4326,-0.125,-0.105
4327,-0.125,-0.115
4328,-0.135,-0.105
4329,-0.125,-0.105
4330,-0.115,-0.105
4331,-0.115,-0.115
4332,-0.105,-0.105
4333,-0.105,-0.095
4334,-0.095,-0.095
4335,-0.095,-0.105
4336,-0.105,-0.095
4337,-0.065,-0.075
4338,-0.205,-0.005
4339,-0.355,0.045
4340,-0.115,0.315
4341,0.535,0.405
4342,1.475,-0.465
4343,1.665,-0.825
4344,0.295,-0.825
4345,-0.475,-0.765
4346,-0.515,-0.515
4347,-0.335,-0.255
4348,-0.155,-0.095
4349,-0.075,0.005
4350,-0.095,-0.015
4351,-0.125,-0.035
4352,-0.105,-0.035
4353,-0.125,-0.025
4354,-0.105,-0.005
4355,-0.095,-0.005
4356,-0.095,-0.015
4357,-0.075,-0.005
4358,-0.085,0.015
4359,-0.075,0.005
4360,-0.075,0.005
4361,-0.075,0.005
4362,-0.055,0.025
4363,-0.045,0.025
4364,-0.035,0.015
4365,-0.015,0.025
4366,-0.005,0.045
4367,0.005,0.045
4368,0.015,0.045
4369,0.015,0.055
4370,0.055,0.075
4371,0.075,0.065
4372,0.095,0.065
4373,0.125,0.075
4374,0.145,0.095
4375,0.165,0.085
4376,0.205,0.075
4377,0.215,0.085
4378,0.255,0.095
4379,0.275,0.105
4380,0.295,0.105
4381,0.295,0.115
4382,0.275,0.125
4383,0.235,0.105
4384,0.185,0.095
4385,0.115,0.085
4386,0.075,0.055
4387,0.025,0.025
4388,-0.005,-0.005
4389,-0.035,-0.015
4390,-0.055,-0.025
4391,-0.065,-0.035
4392,-0.065,-0.045
4393,-0.075,-0.035
4394,-0.065,-0.025
4395,-0.075,-0.025
4396,-0.065,-0.035
4397,-0.055,-0.015
4398,-0.055,-0.015
4399,-0.065,-0.025
4400,-0.055,-0.025
4401,-0.055,-0.005
4402,-0.065,-0.015
4403,-0.075,-0.035
4404,-0.065,-0.025
4405,-0.075,-0.025
4406,-0.085,-0.035
4407,-0.085,-0.045
4408,-0.105,-0.045
4409,-0.085,-0.035
4410,-0.085,-0.045
4411,-0.095,-0.065
4412,-0.095,-0.065
4413,-0.075,-0.065
4414,-0.035,-0.035
4415,0.025,0.025
4416,0.015,0.025
4417,-0.015,-0.025
4418,-0.055,-0.045
4419,-0.085,-0.095
4420,-0.075,-0.075
4421,-0.115,-0.065
4422,-0.125,-0.085
4423,-0.135,-0.095
4424,-0.135,-0.095
4425,-0.135,-0.085
4426,-0.135,-0.095
4427,-0.135,-0.095
4428,-0.125,-0.095
4429,-0.125,-0.075
4430,-0.135,-0.085
4431,-0.125,-0.095
4432,-0.135,-0.085
4433,-0.115,-0.065
4434,-0.095,-0.075
4435,-0.125,-0.055
4436,-0.335,0.065
4437,-0.285,0.125
4438,0.195,0.535
4439,1.085,-0.485
4440,1.715,-0.935
4441,0.765,-0.855
4442,-0.425,-0.905
4443,-0.585,-0.575
4444,-0.345,-0.195
4445,-0.175,-0.035
4446,-0.115,0.035
4447,-0.135,-0.005
4448,-0.165,-0.005
4449,-0.155,-0.005
4450,-0.145,0.005
4451,-0.145,-0.005
4452,-0.135,0.015
4453,-0.135,0.015
4454,-0.135,0.025
4455,-0.135,0.005
4456,-0.135,0.015
4457,-0.125,0.035
4458,-0.115,0.035
4459,-0.115,0.015
4460,-0.085,0.035
4461,-0.085,0.055
4462,-0.075,0.055
4463,-0.075,0.045
4464,-0.065,0.065
4465,-0.045,0.075
4466,-0.025,0.075
4467,-0.005,0.065
4468,0.025,0.075
4469,0.045,0.105
4470,0.075,0.095
4471,0.095,0.085
4472,0.115,0.095
4473,0.165,0.105
4474,0.185,0.105
4475,0.215,0.095
4476,0.255,0.105
4477,0.265,0.125
4478,0.255,0.135
4479,0.245,0.125
4480,0.175,0.115
4481,0.135,0.105
4482,0.075,0.085
4483,0.025,0.035
4484,-0.015,0.005
4485,-0.065,-0.005
4486,-0.095,-0.015
4487,-0.115,-0.055
4488,-0.135,-0.055
4489,-0.135,-0.045
4490,-0.125,-0.055
4491,-0.135,-0.065
4492,-0.115,-0.055
4493,-0.125,-0.045
4494,-0.115,-0.045
4495,-0.115,-0.045
4496,-0.135,-0.035
4497,-0.125,-0.025
4498,-0.115,-0.025
4499,-0.125,-0.035
4500,-0.115,-0.035
4501,-0.125,-0.025
4502,-0.125,-0.035
4503,-0.115,-0.055
4504,-0.135,-0.045
4505,-0.125,-0.045
4506,-0.135,-0.065
4507,-0.135,-0.075
4508,-0.135,-0.065
4509,-0.135,-0.065
4510,-0.135,-0.075
4511,-0.135,-0.085
4512,-0.155,-0.095
4513,-0.125,-0.085
4514,-0.055,-0.035
4515,-0.005,0.005
4516,-0.005,-0.015
4517,-0.065,-0.055
4518,-0.095,-0.065
4519,-0.125,-0.105
4520,-0.145,-0.105
4521,-0.155,-0.095
4522,-0.165,-0.105
4523,-0.175,-0.125
4524,-0.165,-0.115
4525,-0.165,-0.105
4526,-0.165,-0.105
4527,-0.175,-0.115
4528,-0.155,-0.115
4529,-0.165,-0.105
4530,-0.165,-0.105
4531,-0.175,-0.125
4532,-0.165,-0.115
4533,-0.145,-0.105
4534,-0.145,-0.095
4535,-0.145,-0.095
4536,-0.115,-0.105
4537,-0.305,-0.005
4538,-0.405,0.035
4539,-0.075,0.445
4540,0.695,0.035
4541,1.665,-0.805
4542,1.075,-0.935
4543,-0.155,-0.955
4544,-0.625,-0.775
4545,-0.495,-0.375
4546,-0.255,-0.145
4547,-0.145,-0.015
4548,-0.145,-0.025
4549,-0.155,-0.035
4550,-0.165,-0.025
4551,-0.165,-0.025
4552,-0.155,-0.035
4553,-0.185,-0.025
4554,-0.155,-0.005
4555,-0.145,-0.015
4556,-0.155,-0.025
4557,-0.135,-0.005
4558,-0.135,0.005
4559,-0.125,-0.005
4560,-0.115,-0.015
4561,-0.115,0.005
4562,-0.095,0.015
4563,-0.095,0.015
4564,-0.075,0.015
4565,-0.055,0.025
4566,-0.045,0.035
4567,-0.025,0.025
4568,-0.005,0.035
4569,0.005,0.045
4570,0.045,0.055
4571,0.065,0.045
4572,0.095,0.045
4573,0.135,0.065
4574,0.155,0.065
4575,0.185,0.055
4576,0.215,0.065
4577,0.245,0.075
4578,0.245,0.085
4579,0.225,0.085
4580,0.205,0.085
4581,0.145,0.095
4582,0.085,0.065
4583,0.025,0.025
4584,-0.035,0.005
4585,-0.055,-0.015
4586,-0.075,-0.035
4587,-0.105,-0.065
4588,-0.105,-0.075
4589,-0.115,-0.065
4590,-0.125,-0.075
4591,-0.135,-0.085
4592,-0.145,-0.085
4593,-0.125,-0.065
4594,-0.125,-0.065
4595,-0.125,-0.065
4596,-0.115,-0.065
4597,-0.105,-0.045
4598,-0.125,-0.055
4599,-0.115,-0.065
4600,-0.115,-0.055
4601,-0.115,-0.045
4602,-0.125,-0.055
4603,-0.135,-0.075
4604,-0.125,-0.075
4605,-0.125,-0.075
4606,-0.135,-0.075
4607,-0.145,-0.095
4608,-0.125,-0.095
4609,-0.155,-0.095
4610,-0.135,-0.095
4611,-0.155,-0.105
4612,-0.145,-0.115
4613,-0.145,-0.105
4614,-0.145,-0.115
4615,-0.155,-0.125
4616,-0.135,-0.125
4617,-0.155,-0.115
4618,-0.145,-0.115
4619,-0.145,-0.125
4620,-0.145,-0.125
4621,-0.135,-0.115
4622,-0.145,-0.115
4623,-0.155,-0.125
4624,-0.135,-0.125
4625,-0.145,-0.125
4626,-0.145,-0.125
4627,-0.145,-0.125
4628,-0.145,-0.135
4629,-0.125,-0.105
4630,-0.125,-0.115
4631,-0.135,-0.135
4632,-0.135,-0.135
4633,-0.105,-0.125
4634,-0.035,-0.055
4635,0.015,-0.045
4636,-0.025,-0.095
4637,-0.075,-0.095
4638,-0.085,-0.105
4639,-0.115,-0.135
4640,-0.105,-0.125
4641,-0.145,-0.125
4642,-0.135,-0.125
4643,-0.145,-0.145
4644,-0.125,-0.135
4645,-0.125,-0.125
4646,-0.135,-0.125
4647,-0.145,-0.135
4648,-0.145,-0.125
4649,-0.135,-0.115
4650,-0.125,-0.115
4651,-0.125,-0.125
4652,-0.095,-0.115
4653,-0.085,-0.105
4654,-0.235,-0.025
4655,-0.395,-0.015
4656,-0.135,0.365
4657,0.685,0.085
4658,1.675,-0.785
4659,1.085,-0.935
4660,-0.205,-0.985
4661,-0.585,-0.755
4662,-0.425,-0.365
4663,-0.215,-0.145
4664,-0.115,-0.015
4665,-0.105,-0.015
4666,-0.115,-0.035
4667,-0.125,-0.055
4668,-0.125,-0.035
4669,-0.115,-0.025
4670,-0.125,-0.025
4671,-0.115,-0.025
4672,-0.135,-0.015
4673,-0.115,-0.015
4674,-0.105,-0.015
4675,-0.115,-0.015
4676,-0.085,-0.005
4677,-0.085,0.005
4678,-0.085,0.005
4679,-0.065,-0.005
4680,-0.075,0.005
4681,-0.055,0.025
4682,-0.035,0.025
4683,-0.025,0.015
4684,0.005,0.025
4685,0.015,0.045
4686,0.025,0.045
4687,0.045,0.035
4688,0.055,0.035
4689,0.105,0.055
4690,0.125,0.055
4691,0.155,0.045
4692,0.195,0.055
4693,0.225,0.075
4694,0.265,0.075
4695,0.285,0.065
4696,0.295,0.075
4697,0.295,0.105
4698,0.285,0.105
4699,0.235,0.095
4700,0.195,0.085
4701,0.155,0.075
4702,0.095,0.055
4703,0.035,0.015
4704,0.005,-0.005
4705,-0.035,-0.025
4706,-0.055,-0.035
4707,-0.085,-0.065
4708,-0.085,-0.065
4709,-0.085,-0.055
4710,-0.085,-0.055
4711,-0.095,-0.065
4712,-0.085,-0.065
4713,-0.105,-0.045
4714,-0.085,-0.045
4715,-0.085,-0.055
4716,-0.085,-0.055
4717,-0.075,-0.045
4718,-0.085,-0.035
4719,-0.095,-0.055
4720,-0.085,-0.065
4721,-0.105,-0.045
4722,-0.095,-0.045
4723,-0.105,-0.065
4724,-0.105,-0.085
4725,-0.105,-0.075
4726,-0.115,-0.075
4727,-0.115,-0.085
4728,-0.115,-0.095
4729,-0.135,-0.095
4730,-0.125,-0.095
4731,-0.135,-0.105
4732,-0.125,-0.115
4733,-0.115,-0.105
4734,-0.125,-0.095
4735,-0.125,-0.115
4736,-0.125,-0.125
4737,-0.145,-0.115
4738,-0.135,-0.105
4739,-0.125,-0.115
4740,-0.135,-0.125
4741,-0.125,-0.125
4742,-0.125,-0.115
4743,-0.125,-0.115
4744,-0.115,-0.115
4745,-0.145,-0.115
4746,-0.115,-0.125
4747,-0.105,-0.125
4748,-0.025,-0.045
4749,0.035,-0.015
4750,-0.035,-0.085
4751,-0.075,-0.095
4752,-0.085,-0.115
4753,-0.115,-0.125
4754,-0.135,-0.115
4755,-0.135,-0.135
4756,-0.135,-0.135
4757,-0.125,-0.125
4758,-0.135,-0.115
4759,-0.145,-0.145
4760,-0.155,-0.125
4761,-0.135,-0.115
4762,-0.135,-0.125
4763,-0.125,-0.125
4764,-0.115,-0.115
4765,-0.115,-0.105
4766,-0.115,-0.105
4767,-0.095,-0.105
4768,-0.305,-0.015
4769,-0.405,0.025
4770,-0.055,0.425
4771,0.865,-0.025
4772,1.765,-0.805
4773,0.965,-0.855
4774,-0.265,-0.965
4775,-0.605,-0.735
4776,-0.445,-0.375
4777,-0.255,-0.185
4778,-0.125,-0.045
4779,-0.125,-0.035
4780,-0.125,-0.045
4781,-0.135,-0.035
4782,-0.145,-0.045
4783,-0.135,-0.055
4784,-0.155,-0.045
4785,-0.135,-0.035
4786,-0.125,-0.035
4787,-0.125,-0.035
4788,-0.115,-0.025
4789,-0.105,-0.015
4790,-0.125,-0.015
4791,-0.115,-0.025
4792,-0.115,-0.015
4793,-0.075,-0.005
4794,-0.065,-0.005
4795,-0.065,-0.005
4796,-0.035,0.005
4797,-0.035,0.005
4798,-0.035,0.015
4799,-0.005,0.005
4800,-0.005,0.015
4801,0.025,0.025
4802,0.055,0.025
4803,0.075,0.015
4804,0.105,0.015
4805,0.155,0.025
4806,0.175,0.035
4807,0.195,0.025
4808,0.215,0.035
4809,0.245,0.055
4810,0.275,0.055
4811,0.255,0.055
4812,0.235,0.065
4813,0.215,0.085
4814,0.155,0.065
4815,0.085,0.045
4816,0.045,0.025
4817,-0.015,0.015
4818,-0.055,-0.025
4819,-0.075,-0.055
4820,-0.115,-0.065
4821,-0.115,-0.065
4822,-0.135,-0.065
4823,-0.135,-0.075
4824,-0.135,-0.075
4825,-0.135,-0.055
4826,-0.135,-0.055
4827,-0.145,-0.075
4828,-0.135,-0.065
4829,-0.135,-0.055
4830,-0.135,-0.055
4831,-0.145,-0.065
4832,-0.145,-0.065
4833,-0.145,-0.065
4834,-0.135,-0.055
4835,-0.145,-0.085
4836,-0.145,-0.085
4837,-0.155,-0.075
4838,-0.145,-0.075
4839,-0.155,-0.095
4840,-0.165,-0.095
4841,-0.165,-0.095
4842,-0.155,-0.095
4843,-0.185,-0.115
4844,-0.165,-0.115
4845,-0.145,-0.095
4846,-0.165,-0.105
4847,-0.175,-0.135
4848,-0.155,-0.135
4849,-0.125,-0.095
4850,-0.065,-0.025
4851,-0.035,-0.025
4852,-0.085,-0.095
4853,-0.105,-0.085
4854,-0.135,-0.125
4855,-0.155,-0.135
4856,-0.195,-0.135
4857,-0.185,-0.125
4858,-0.185,-0.135
4859,-0.185,-0.145
4860,-0.185,-0.135
4861,-0.195,-0.125
4862,-0.195,-0.125
4863,-0.175,-0.135
4864,-0.195,-0.135
4865,-0.185,-0.125
4866,-0.185,-0.125
4867,-0.185,-0.135
4868,-0.165,-0.125
4869,-0.165,-0.105
4870,-0.145,-0.105
4871,-0.175,-0.095
4872,-0.435,0.005
4873,-0.375,0.095
4874,0.105,0.465
4875,1.075,-0.165
4876,1.785,-0.785
4877,0.615,-0.805
4878,-0.435,-0.875
4879,-0.635,-0.645
4880,-0.505,-0.375
4881,-0.285,-0.165
4882,-0.185,-0.055
4883,-0.185,-0.035
4884,-0.185,-0.055
4885,-0.185,-0.045
4886,-0.195,-0.045
4887,-0.195,-0.065
4888,-0.185,-0.045
4889,-0.175,-0.035
4890,-0.165,-0.035
4891,-0.175,-0.035
4892,-0.165,-0.045
4893,-0.155,-0.025
4894,-0.145,-0.015
4895,-0.135,-0.025
4896,-0.135,-0.025
4897,-0.105,-0.005
4898,-0.105,-0.005
4899,-0.095,-0.025
4900,-0.065,-0.005
4901,-0.075,0.005
4902,-0.055,0.005
4903,-0.035,-0.005
4904,-0.025,0.005
4905,0.015,0.025
4906,0.045,0.015
4907,0.065,0.005
4908,0.115,0.015
4909,0.145,0.025
4910,0.165,0.025
4911,0.195,0.015
4912,0.215,0.025
4913,0.245,0.035
4914,0.235,0.055
4915,0.205,0.055
4916,0.175,0.065
4917,0.115,0.065
4918,0.055,0.045
4919,0.005,0.005
4920,-0.065,-0.015
4921,-0.085,-0.015
4922,-0.115,-0.045
4923,-0.135,-0.065
4924,-0.135,-0.065
4925,-0.135,-0.055
4926,-0.145,-0.055
4927,-0.155,-0.065
4928,-0.165,-0.055
4929,-0.155,-0.055
4930,-0.145,-0.045
4931,-0.145,-0.065
4932,-0.135,-0.045
4933,-0.135,-0.035
4934,-0.135,-0.045
4935,-0.145,-0.065
4936,-0.165,-0.055
4937,-0.145,-0.045
4938,-0.135,-0.055
4939,-0.165,-0.075
4940,-0.155,-0.075
4941,-0.135,-0.065
4942,-0.155,-0.065
4943,-0.165,-0.085
4944,-0.145,-0.085
4945,-0.155,-0.075
4946,-0.155,-0.085
4947,-0.145,-0.085
4948,-0.125,-0.095
4949,-0.125,-0.095
4950,-0.035,0.005
4951,-0.015,0.005
4952,-0.065,-0.065
4953,-0.085,-0.075
4954,-0.135,-0.095
4955,-0.145,-0.105
4956,-0.175,-0.125
4957,-0.175,-0.125
4958,-0.165,-0.115
4959,-0.165,-0.125
4960,-0.185,-0.125
4961,-0.155,-0.125
4962,-0.175,-0.115
4963,-0.165,-0.125
4964,-0.175,-0.135
4965,-0.155,-0.125
4966,-0.155,-0.115
4967,-0.155,-0.115
4968,-0.155,-0.125
4969,-0.145,-0.115
4970,-0.115,-0.095
4971,-0.275,-0.015
4972,-0.415,0.045
4973,-0.025,0.405
4974,0.825,0.035
4975,1.825,-0.785
4976,0.855,-0.865
4977,-0.425,-0.885
4978,-0.605,-0.585
4979,-0.405,-0.285
4980,-0.205,-0.115
4981,-0.115,-0.005
4982,-0.145,-0.025
4983,-0.155,-0.055
4984,-0.165,-0.035
4985,-0.145,-0.025
4986,-0.145,-0.015
4987,-0.145,-0.025
4988,-0.125,-0.025
4989,-0.115,-0.005
4990,-0.115,-0.005
4991,-0.105,-0.015
4992,-0.115,0.005
4993,-0.095,0.005
4994,-0.085,0.005
4995,-0.075,-0.005
4996,-0.055,0.025
4997,-0.035,0.025
4998,-0.035,0.025
4999,-0.015,0.025
5000,0.005,0.045
5001,0.025,0.045
5002,0.045,0.045
5003,0.075,0.055
5004,0.105,0.075
5005,0.125,0.075
5006,0.155,0.075
5007,0.185,0.065
5008,0.215,0.075
5009,0.235,0.085
5010,0.255,0.075
5011,0.265,0.085
5012,0.275,0.105
5013,0.245,0.105
5014,0.195,0.085
5015,0.145,0.065
5016,0.085,0.055
5017,0.045,0.025
5018,-0.015,-0.005
5019,-0.045,-0.035
5020,-0.065,-0.045
5021,-0.085,-0.055
5022,-0.105,-0.075
5023,-0.095,-0.075
5024,-0.115,-0.065
5025,-0.105,-0.065
5026,-0.095,-0.065
5027,-0.105,-0.075
5028,-0.085,-0.065
5029,-0.095,-0.045
5030,-0.095,-0.055
5031,-0.095,-0.065
5032,-0.105,-0.055
5033,-0.095,-0.045
5034,-0.095,-0.045
5035,-0.095,-0.065
5036,-0.085,-0.055
5037,-0.095,-0.065
5038,-0.105,-0.055
5039,-0.095,-0.075
5040,-0.105,-0.075
5041,-0.105,-0.075
5042,-0.115,-0.085
5043,-0.115,-0.085
5044,-0.115,-0.095
5045,-0.115,-0.085
5046,-0.115,-0.095
5047,-0.125,-0.105
5048,-0.115,-0.105
5049,-0.135,-0.095
5050,-0.105,-0.095
5051,-0.115,-0.115
5052,-0.125,-0.115
5053,-0.095,-0.115
5054,-0.055,-0.075
5055,0.005,-0.025
5056,0.005,-0.035
5057,-0.055,-0.085
5058,-0.065,-0.095
5059,-0.095,-0.115
5060,-0.105,-0.115
5061,-0.115,-0.115
5062,-0.135,-0.115
5063,-0.135,-0.135
5064,-0.135,-0.135
5065,-0.145,-0.125
5066,-0.135,-0.115
5067,-0.135,-0.125
5068,-0.135,-0.135
5069,-0.115,-0.125
5070,-0.125,-0.115
5071,-0.125,-0.125
5072,-0.115,-0.135
5073,-0.125,-0.125
5074,-0.095,-0.105
5075,-0.115,-0.095
5076,-0.305,-0.005
5077,-0.315,0.055
5078,0.175,0.505
5079,0.995,-0.375
5080,1.775,-0.965
5081,0.785,-0.925
5082,-0.385,-0.955
5083,-0.585,-0.675
5084,-0.375,-0.315
5085,-0.165,-0.125
5086,-0.095,-0.015
5087,-0.115,-0.035
5088,-0.125,-0.055
5089,-0.145,-0.055
5090,-0.125,-0.025
5091,-0.125,-0.035
5092,-0.125,-0.045
5093,-0.105,-0.035
5094,-0.105,-0.015
5095,-0.105,-0.025
5096,-0.095,-0.035
5097,-0.115,-0.025
5098,-0.085,-0.005
5099,-0.075,-0.005
5100,-0.065,-0.015
5101,-0.045,-0.005
5102,-0.045,0.005
5103,-0.035,0.005
5104,-0.025,0.005
5105,-0.015,0.015
5106,0.015,0.035
5107,0.035,0.035
5108,0.055,0.025
5109,0.075,0.035
5110,0.105,0.055
5111,0.135,0.055
5112,0.165,0.045
5113,0.195,0.065
5114,0.235,0.065
5115,0.255,0.065
5116,0.295,0.065
5117,0.305,0.075
5118,0.305,0.095
5119,0.265,0.085
5120,0.235,0.075
5121,0.155,0.055
5122,0.125,0.035
5123,0.045,-0.015
5124,0.005,-0.035
5125,-0.025,-0.055
5126,-0.055,-0.075
5127,-0.085,-0.095
5128,-0.085,-0.105
5129,-0.095,-0.095
5130,-0.085,-0.105
5131,-0.095,-0.105
5132,-0.085,-0.105
5133,-0.085,-0.085
5134,-0.085,-0.085
5135,-0.095,-0.095
5136,-0.105,-0.085
5137,-0.095,-0.065
5138,-0.095,-0.085
5139,-0.085,-0.095
5140,-0.085,-0.095
5141,-0.085,-0.075
5142,-0.095,-0.095
5143,-0.095,-0.105
5144,-0.115,-0.105
5145,-0.105,-0.105
5146,-0.115,-0.105
5147,-0.115,-0.125
5148,-0.105,-0.115
5149,-0.115,-0.125
5150,-0.125,-0.135
5151,-0.115,-0.145
5152,-0.125,-0.135
5153,-0.115,-0.125
5154,-0.125,-0.135
5155,-0.125,-0.145
5156,-0.115,-0.135
5157,-0.125,-0.135
5158,-0.125,-0.145
5159,-0.135,-0.145
5160,-0.135,-0.135
5161,-0.125,-0.135
5162,-0.125,-0.145
5163,-0.135,-0.155
5164,-0.115,-0.145
5165,-0.115,-0.135
5166,-0.125,-0.135
5167,-0.125,-0.145
5168,-0.135,-0.145
5169,-0.115,-0.125
5170,-0.115,-0.135
5171,-0.125,-0.145
5172,-0.115,-0.145
5173,-0.105,-0.135
5174,-0.115,-0.135
5175,-0.115,-0.145
5176,-0.135,-0.145
5177,-0.105,-0.125
5178,-0.115,-0.125
5179,-0.105,-0.155
5180,-0.085,-0.155
5181,-0.075,-0.135
5182,0.005,-0.045
5183,0.035,-0.055
5184,-0.045,-0.125
5185,-0.065,-0.115
5186,-0.065,-0.125
5187,-0.085,-0.145
5188,-0.095,-0.135
5189,-0.105,-0.135
5190,-0.115,-0.135
5191,-0.125,-0.155
5192,-0.135,-0.145
5193,-0.125,-0.135
5194,-0.115,-0.125
5195,-0.125,-0.145
5196,-0.105,-0.135
5197,-0.105,-0.115
5198,-0.105,-0.115
5199,-0.095,-0.125
5200,-0.085,-0.125
5201,-0.255,-0.025
5202,-0.375,-0.005
5203,-0.035,0.385
5204,0.775,-0.085
5205,1.715,-0.845
5206,1.095,-0.955
5207,-0.195,-1.005
5208,-0.595,-0.785
5209,-0.425,-0.405
5210,-0.225,-0.175
5211,-0.105,-0.055
5212,-0.105,-0.025
5213,-0.115,-0.045
5214,-0.125,-0.045
5215,-0.135,-0.055
5216,-0.125,-0.035
5217,-0.125,-0.025
5218,-0.115,-0.025
5219,-0.125,-0.035
5220,-0.115,-0.035
5221,-0.105,-0.015
5222,-0.105,-0.025
5223,-0.105,-0.025
5224,-0.085,-0.015
5225,-0.085,-0.005
5226,-0.075,0.005
5227,-0.075,-0.005
5228,-0.055,0.005
5229,-0.035,0.015
5230,-0.035,0.025
5231,-0.025,0.025
5232,0.005,0.025
5233,0.005,0.035
5234,0.035,0.045
5235,0.065,0.045
5236,0.095,0.045
5237,0.135,0.055
5238,0.155,0.055
5239,0.175,0.045
5240,0.225,0.065
5241,0.245,0.065
5242,0.285,0.075
5243,0.305,0.075
5244,0.315,0.075
5245,0.305,0.105
5246,0.265,0.095
5247,0.205,0.075
5248,0.165,0.055
5249,0.085,0.035
5250,0.035,0.005
5251,-0.015,-0.035
5252,-0.035,-0.045
5253,-0.055,-0.055
5254,-0.075,-0.065
5255,-0.095,-0.075
5256,-0.085,-0.085
5257,-0.095,-0.065
5258,-0.095,-0.065
5259,-0.095,-0.075
5260,-0.075,-0.065
5261,-0.085,-0.045
5262,-0.085,-0.055
5263,-0.085,-0.065
5264,-0.095,-0.065
5265,-0.095,-0.055
5266,-0.095,-0.065
5267,-0.095,-0.075
5268,-0.085,-0.065
5269,-0.095,-0.075
5270,-0.105,-0.085
5271,-0.095,-0.095
5272,-0.115,-0.095
5273,-0.115,-0.095
5274,-0.115,-0.105
5275,-0.115,-0.105
5276,-0.105,-0.105
5277,-0.115,-0.105
5278,-0.125,-0.115
5279,-0.115,-0.115
5280,-0.125,-0.105
5281,-0.125,-0.105
5282,-0.125,-0.115
5283,-0.125,-0.115
5284,-0.115,-0.115
5285,-0.115,-0.105
5286,-0.125,-0.115
5287,-0.115,-0.125
5288,-0.135,-0.115
5289,-0.125,-0.115
5290,-0.115,-0.105
5291,-0.125,-0.115
5292,-0.115,-0.115
5293,-0.095,-0.095
5294,-0.115,-0.115
5295,-0.125,-0.135
5296,-0.095,-0.125
5297,-0.045,-0.065
5298,0.015,-0.015
5299,0.005,-0.045
5300,-0.045,-0.095
5301,-0.055,-0.085
5302,-0.075,-0.105
5303,-0.105,-0.115
5304,-0.105,-0.115
5305,-0.135,-0.115
5306,-0.125,-0.115
5307,-0.135,-0.125
5308,-0.125,-0.125
5309,-0.115,-0.115
5310,-0.125,-0.115
5311,-0.125,-0.115
5312,-0.125,-0.115
5313,-0.145,-0.115
5314,-0.115,-0.105
5315,-0.115,-0.105
5316,-0.095,-0.105
5317,-0.125,-0.065
5318,-0.365,0.025
5319,-0.275,0.115
5320,0.235,0.475
5321,1.225,-0.435
5322,1.685,-0.895
5323,0.505,-0.875
5324,-0.475,-0.945
5325,-0.565,-0.595
5326,-0.365,-0.255
5327,-0.185,-0.095
5328,-0.105,-0.015
5329,-0.145,-0.025
5330,-0.135,-0.025
5331,-0.145,-0.015
5332,-0.145,-0.025
5333,-0.145,-0.015
5334,-0.135,-0.005
5335,-0.135,-0.015
5336,-0.135,-0.015
5337,-0.145,-0.005
5338,-0.115,0.005
5339,-0.125,-0.005
5340,-0.115,0.005
5341,-0.095,0.015
5342,-0.095,0.025
5343,-0.085,0.005
5344,-0.085,0.025
5345,-0.055,0.035
5346,-0.055,0.035
5347,-0.035,0.035
5348,-0.005,0.035
5349,0.005,0.055
5350,0.035,0.055
5351,0.065,0.045
5352,0.075,0.055
5353,0.105,0.065
5354,0.145,0.065
5355,0.175,0.055
5356,0.215,0.065
5357,0.235,0.075
5358,0.265,0.085
5359,0.265,0.075
5360,0.245,0.105
5361,0.205,0.105
5362,0.155,0.095
5363,0.095,0.065
5364,0.045,0.045
5365,-0.015,0.025
5366,-0.065,-0.005
5367,-0.095,-0.045
5368,-0.135,-0.045
5369,-0.135,-0.055
5370,-0.145,-0.055
5371,-0.155,-0.075
5372,-0.145,-0.065
5373,-0.155,-0.055
5374,-0.155,-0.065
5375,-0.165,-0.065
5376,-0.185,-0.065
5377,-0.165,-0.055
5378,-0.165,-0.055
5379,-0.165,-0.065
5380,-0.155,-0.065
5381,-0.165,-0.045
5382,-0.175,-0.055
5383,-0.165,-0.075
5384,-0.185,-0.065
5385,-0.165,-0.065
5386,-0.185,-0.065
5387,-0.195,-0.085
5388,-0.185,-0.085
5389,-0.175,-0.075
5390,-0.185,-0.075
5391,-0.195,-0.105
5392,-0.175,-0.095
5393,-0.195,-0.095
5394,-0.195,-0.095
5395,-0.195,-0.105
5396,-0.205,-0.105
5397,-0.185,-0.095
5398,-0.185,-0.085
5399,-0.205,-0.105
5400,-0.185,-0.115
5401,-0.185,-0.115
5402,-0.115,-0.035
5403,-0.055,-0.005
5404,-0.075,-0.055
5405,-0.115,-0.085
5406,-0.135,-0.075
5407,-0.165,-0.105
5408,-0.185,-0.125
5409,-0.215,-0.125
5410,-0.225,-0.105
5411,-0.225,-0.115
5412,-0.215,-0.125
5413,-0.205,-0.125
5414,-0.215,-0.105
5415,-0.215,-0.115
5416,-0.205,-0.125
5417,-0.225,-0.115
5418,-0.205,-0.115
5419,-0.195,-0.105
5420,-0.195,-0.115
5421,-0.195,-0.105
5422,-0.165,-0.085
5423,-0.335,-0.015
5424,-0.475,0.025
5425,-0.175,0.395
5426,0.765,0.135
5427,1.715,-0.715
5428,0.915,-0.815
5429,-0.345,-0.925
5430,-0.665,-0.675
5431,-0.515,-0.385
5432,-0.305,-0.175
5433,-0.195,-0.025
5434,-0.185,-0.015
5435,-0.215,-0.045
5436,-0.215,-0.045
5437,-0.205,-0.035
5438,-0.195,-0.025
5439,-0.205,-0.045
5440,-0.185,-0.025
5441,-0.195,-0.015
5442,-0.185,-0.015
5443,-0.185,-0.035
5444,-0.165,-0.015
5445,-0.175,-0.015
5446,-0.145,-0.005
5447,-0.145,-0.015
5448,-0.155,-0.005
5449,-0.135,0.015
5450,-0.105,0.015
5451,-0.085,0.005
5452,-0.055,0.015
5453,-0.065,0.035
5454,-0.035,0.025
5455,-0.005,0.025
5456,0.005,0.035
5457,0.045,0.045
5458,0.075,0.045
5459,0.105,0.035
5460,0.135,0.045
5461,0.175,0.055
5462,0.195,0.045
5463,0.205,0.045
5464,0.195,0.055
5465,0.225,0.085
5466,0.185,0.085
5467,0.145,0.075
5468,0.095,0.075
5469,0.035,0.065
5470,-0.025,0.035
5471,-0.085,-0.005
5472,-0.135,-0.025
5473,-0.135,-0.025
5474,-0.165,-0.045
5475,-0.175,-0.055
5476,-0.175,-0.055
5477,-0.175,-0.055
5478,-0.175,-0.045
5479,-0.195,-0.055
5480,-0.195,-0.055
5481,-0.165,-0.035
5482,-0.175,-0.035
5483,-0.175,-0.055
5484,-0.165,-0.045
5485,-0.165,-0.035
5486,-0.175,-0.045
5487,-0.185,-0.055
5488,-0.195,-0.055
5489,-0.175,-0.055
5490,-0.165,-0.055
5491,-0.185,-0.065
5492,-0.175,-0.075
5493,-0.155,-0.055
5494,-0.185,-0.065
5495,-0.185,-0.085
5496,-0.175,-0.095
5497,-0.135,-0.065
5498,-0.065,-0.005
5499,-0.025,0.005
5500,-0.075,-0.055
5501,-0.095,-0.055
5502,-0.135,-0.075
5503,-0.175,-0.115
5504,-0.195,-0.115
5505,-0.195,-0.115
5506,-0.185,-0.105
5507,-0.205,-0.135
5508,-0.205,-0.125
5509,-0.205,-0.105
5510,-0.195,-0.115
5511,-0.205,-0.125
5512,-0.195,-0.125
5513,-0.195,-0.105
5514,-0.205,-0.115
5515,-0.185,-0.125
5516,-0.155,-0.115
5517,-0.165,-0.095
5518,-0.135,-0.105
5519,-0.245,-0.055
5520,-0.475,0.035
5521,-0.255,0.265
5522,0.485,0.375
5523,1.545,-0.565
5524,1.525,-0.855
5525,0.065,-0.865
5526,-0.605,-0.725
5527,-0.585,-0.505
5528,-0.395,-0.235
5529,-0.215,-0.085
5530,-0.155,-0.005
5531,-0.175,-0.045
5532,-0.175,-0.045
5533,-0.175,-0.035
5534,-0.175,-0.035
5535,-0.185,-0.045
5536,-0.175,-0.035
5537,-0.145,-0.025
5538,-0.155,-0.015
5539,-0.155,-0.035
5540,-0.135,-0.025
5541,-0.125,-0.015
5542,-0.125,-0.015
5543,-0.115,-0.025
5544,-0.115,-0.015
5545,-0.085,0.005
5546,-0.075,-0.005
5547,-0.055,-0.005
5548,-0.035,0.005
5549,-0.015,0.015
5550,-0.005,0.015
5551,0.015,0.015
5552,0.025,0.025
5553,0.065,0.035
5554,0.095,0.035
5555,0.125,0.035
5556,0.175,0.035
5557,0.195,0.045
5558,0.185,0.055
5559,0.215,0.045
5560,0.245,0.045
5561,0.255,0.065
5562,0.275,0.085
5563,0.245,0.085
5564,0.215,0.075
5565,0.155,0.075
5566,0.105,0.055
5567,0.045,0.025
5568,-0.005,-0.005
5569,-0.055,-0.025
5570,-0.065,-0.035
5571,-0.085,-0.065
5572,-0.095,-0.065
5573,-0.085,-0.075
5574,-0.095,-0.065
5575,-0.095,-0.065
5576,-0.085,-0.065
5577,-0.105,-0.055
5578,-0.095,-0.055
5579,-0.085,-0.055
5580,-0.085,-0.065
5581,-0.075,-0.055
5582,-0.085,-0.045
5583,-0.075,-0.055
5584,-0.085,-0.065
5585,-0.095,-0.065
5586,-0.085,-0.045
5587,-0.085,-0.065
5588,-0.075,-0.075
5589,-0.065,-0.065
5590,-0.075,-0.065
5591,-0.085,-0.075
5592,-0.075,-0.095
5593,-0.075,-0.085
5594,0.025,0.005
5595,0.055,0.015
5596,0.015,-0.055
5597,-0.025,-0.065
5598,-0.055,-0.095
5599,-0.075,-0.125
5600,-0.085,-0.115
5601,-0.115,-0.115
5602,-0.105,-0.115
5603,-0.115,-0.135
5604,-0.105,-0.135
5605,-0.105,-0.125
5606,-0.105,-0.115
5607,-0.115,-0.135
5608,-0.105,-0.125
5609,-0.105,-0.115
5610,-0.105,-0.115
5611,-0.105,-0.135
5612,-0.075,-0.115
5613,-0.055,-0.105
5614,-0.135,-0.045
5615,-0.365,0.025
5616,-0.125,0.355
5617,0.555,0.225
5618,1.675,-0.795
5619,1.395,-0.985
5620,-0.055,-0.935
5621,-0.575,-0.755
5622,-0.435,-0.335
5623,-0.175,-0.105
5624,-0.075,0.005
5625,-0.075,-0.005
5626,-0.105,-0.035
5627,-0.105,-0.035
5628,-0.085,-0.025
5629,-0.095,-0.015
5630,-0.095,-0.025
5631,-0.075,-0.025
5632,-0.075,-0.005
5633,-0.085,0.005
5634,-0.065,-0.005
5635,-0.055,-0.005
5636,-0.045,0.005
5637,-0.045,0.015
5638,-0.035,0.015
5639,-0.025,0.015
5640,-0.035,0.025
5641,-0.005,0.045
5642,0.005,0.035
5643,0.025,0.035
5644,0.055,0.055
5645,0.055,0.065
5646,0.075,0.075
5647,0.095,0.065
5648,0.115,0.075
5649,0.145,0.095
5650,0.175,0.085
5651,0.205,0.085
5652,0.225,0.085
5653,0.275,0.105
5654,0.295,0.105
5655,0.305,0.095
5656,0.345,0.105
5657,0.325,0.115
5658,0.315,0.125
5659,0.275,0.115
5660,0.235,0.085
5661,0.185,0.065
5662,0.125,0.045
5663,0.065,0.005
5664,0.025,-0.025
5665,-0.025,-0.045
5666,-0.035,-0.055
5667,-0.045,-0.065
5668,-0.055,-0.085
5669,-0.055,-0.085
5670,-0.055,-0.075
5671,-0.055,-0.075
5672,-0.055,-0.085
5673,-0.055,-0.075
5674,-0.045,-0.055
5675,-0.045,-0.055
5676,-0.045,-0.055
5677,-0.045,-0.065
5678,-0.035,-0.045
5679,-0.045,-0.045
5680,-0.045,-0.065
5681,-0.025,-0.065
5682,-0.035,-0.045
5683,-0.045,-0.055
5684,-0.045,-0.065
5685,-0.045,-0.075
5686,-0.045,-0.075
5687,-0.055,-0.065
5688,-0.065,-0.085
5689,-0.060,-0.095
5690,-0.060,-0.085
5691,-0.060,-0.075
5692,-0.070,-0.105
5693,-0.050,-0.115
5694,0.000,-0.075
5695,0.070,0.005
5696,0.040,-0.045
5697,-0.030,-0.085
5698,-0.030,-0.095
5699,-0.050,-0.115
5700,-0.070,-0.115
5701,-0.080,-0.115
5702,-0.090,-0.115
5703,-0.100,-0.135
5704,-0.080,-0.125
5705,-0.100,-0.115
5706,-0.090,-0.115
5707,-0.100,-0.135
5708,-0.080,-0.125
5709,-0.080,-0.105
5710,-0.080,-0.115
5711,-0.080,-0.125
5712,-0.080,-0.115
5713,-0.040,-0.105
5714,-0.170,-0.015
5715,-0.345,0.015
5716,0.045,0.475
5717,0.855,-0.085
5718,1.835,-0.895
5719,0.915,-0.905
5720,-0.345,-0.955
5721,-0.535,-0.675
5722,-0.345,-0.295
5723,-0.125,-0.095
5724,-0.045,0.005
5725,-0.065,-0.015
5726,-0.085,-0.035
5727,-0.075,-0.035
5728,-0.095,-0.025
5729,-0.075,-0.015
5730,-0.075,-0.015
5731,-0.075,-0.025
5732,-0.055,-0.005
5733,-0.065,-0.005
5734,-0.065,-0.005
5735,-0.045,-0.005
5736,-0.055,0.005
5737,-0.045,0.015
5738,-0.025,0.015
5739,-0.015,0.015
5740,0.005,0.025
5741,0.005,0.035
5742,0.015,0.035
5743,0.035,0.035
5744,0.025,0.035
5745,0.065,0.055
5746,0.085,0.055
5747,0.105,0.045
5748,0.135,0.055
5749,0.165,0.075
5750,0.185,0.065
5751,0.215,0.065
5752,0.235,0.065
5753,0.275,0.085
5754,0.305,0.085
5755,0.325,0.085
5756,0.345,0.095
5757,0.345,0.105
5758,0.305,0.115
5759,0.255,0.095
5760,0.215,0.085
5761,0.145,0.065
5762,0.095,0.045
5763,0.045,-0.005
5764,0.005,-0.025
5765,-0.015,-0.035
5766,-0.035,-0.045
5767,-0.055,-0.075
5768,-0.045,-0.075
5769,-0.055,-0.065
5770,-0.055,-0.065
5771,-0.065,-0.075
5772,-0.055,-0.065
5773,-0.045,-0.055
5774,-0.055,-0.045
5775,-0.055,-0.055
5776,-0.045,-0.055
5777,-0.055,-0.045
5778,-0.045,-0.045
5779,-0.055,-0.065
5780,-0.055,-0.055
5781,-0.055,-0.055
5782,-0.065,-0.055
5783,-0.065,-0.075
5784,-0.065,-0.075
5785,-0.075,-0.085
5786,-0.075,-0.085
5787,-0.085,-0.095
5788,-0.075,-0.095
5789,-0.075,-0.095
5790,-0.085,-0.095
5791,-0.085,-0.105
5792,-0.085,-0.115
5793,-0.095,-0.105
5794,-0.085,-0.105
5795,-0.095,-0.115
5796,-0.085,-0.115
5797,-0.075,-0.105
5798,-0.075,-0.105
5799,-0.095,-0.125
5800,-0.055,-0.135
5801,-0.045,-0.095
5802,0.035,-0.025
5803,0.055,-0.035
5804,0.005,-0.095
5805,-0.025,-0.085
5806,-0.045,-0.115
5807,-0.065,-0.125
5808,-0.095,-0.125
5809,-0.105,-0.125
5810,-0.095,-0.125
5811,-0.095,-0.135
5812,-0.085,-0.135
5813,-0.085,-0.115
5814,-0.095,-0.125
5815,-0.095,-0.135
5816,-0.095,-0.125
5817,-0.085,-0.115
5818,-0.085,-0.125
5819,-0.075,-0.125
5820,-0.055,-0.115
5821,-0.035,-0.105
5822,-0.165,-0.035
5823,-0.365,-0.005
5824,-0.145,0.315
5825,0.585,0.275
5826,1.625,-0.705
5827,1.445,-0.965
5828,0.115,-0.955
5829,-0.535,-0.845
5830,-0.455,-0.455
5831,-0.215,-0.175
5832,-0.085,-0.025
5833,-0.065,-0.005
5834,-0.085,-0.025
5835,-0.105,-0.055
5836,-0.085,-0.025
5837,-0.095,-0.015
5838,-0.095,-0.015
5839,-0.085,-0.035
5840,-0.095,-0.025
5841,-0.075,-0.015
5842,-0.075,-0.005
5843,-0.065,-0.015
5844,-0.045,-0.005
5845,-0.045,0.005
5846,-0.045,0.005
5847,-0.035,0.005
5848,-0.035,0.005
5849,-0.015,0.025
5850,0.005,0.025
5851,0.025,0.025
5852,0.045,0.025
5853,0.065,0.045
5854,0.075,0.045
5855,0.105,0.045
5856,0.105,0.045
5857,0.145,0.055
5858,0.175,0.065
5859,0.205,0.055
5860,0.245,0.065
5861,0.275,0.075
5862,0.295,0.075
5863,0.315,0.075
5864,0.345,0.085
5865,0.335,0.105
5866,0.325,0.105
5867,0.275,0.095
5868,0.225,0.085
5869,0.185,0.075
5870,0.115,0.055
5871,0.055,0.005
5872,0.035,-0.015
5873,-0.015,-0.025
5874,-0.035,-0.045
5875,-0.055,-0.065
5876,-0.055,-0.065
5877,-0.045,-0.065
5878,-0.055,-0.065
5879,-0.065,-0.065
5880,-0.055,-0.065
5881,-0.065,-0.055
5882,-0.055,-0.045
5883,-0.055,-0.055
5884,-0.055,-0.055
5885,-0.045,-0.045
5886,-0.055,-0.045
5887,-0.065,-0.055
5888,-0.055,-0.065
5889,-0.065,-0.045
5890,-0.055,-0.055
5891,-0.075,-0.075
5892,-0.075,-0.075
5893,-0.065,-0.075
5894,-0.075,-0.075
5895,-0.095,-0.095
5896,-0.075,-0.105
5897,-0.095,-0.095
5898,-0.095,-0.095
5899,-0.105,-0.115
5900,-0.105,-0.115
5901,-0.095,-0.105
5902,-0.095,-0.105
5903,-0.105,-0.115
5904,-0.085,-0.115
5905,-0.095,-0.095
5906,-0.095,-0.115
5907,-0.095,-0.135
5908,-0.075,-0.115
5909,0.005,-0.045
5910,0.065,-0.005
5911,-0.005,-0.085
5912,-0.035,-0.105
5913,-0.065,-0.095
5914,-0.075,-0.105
5915,-0.095,-0.125
5916,-0.105,-0.125
5917,-0.115,-0.135
5918,-0.115,-0.125
5919,-0.125,-0.125
5920,-0.125,-0.135
5921,-0.135,-0.135
5922,-0.125,-0.115
5923,-0.115,-0.125
5924,-0.115,-0.125
5925,-0.105,-0.125
5926,-0.105,-0.115
5927,-0.105,-0.115
5928,-0.095,-0.125
5929,-0.105,-0.125
5930,-0.165,-0.045
5931,-0.385,-0.005
5932,-0.235,0.165
5933,0.455,0.405
5934,1.505,-0.605
5935,1.545,-0.935
5936,0.235,-0.935
5937,-0.565,-0.865
5938,-0.495,-0.475
5939,-0.285,-0.215
5940,-0.125,-0.065
5941,-0.105,-0.015
5942,-0.125,-0.035
5943,-0.145,-0.045
5944,-0.135,-0.045
5945,-0.145,-0.035
5946,-0.135,-0.025
5947,-0.135,-0.035
5948,-0.125,-0.035
5949,-0.115,-0.015
5950,-0.115,-0.015
5951,-0.125,-0.025
5952,-0.105,-0.015
5953,-0.105,-0.005
5954,-0.075,0.005
5955,-0.085,-0.005
5956,-0.065,-0.005
5957,-0.045,0.015
5958,-0.035,0.015
5959,-0.035,-0.005
5960,-0.025,0.015
5961,0.005,0.035
5962,0.035,0.025
5963,0.055,0.025
5964,0.095,0.035
5965,0.115,0.035
5966,0.155,0.035
5967,0.195,0.035
5968,0.225,0.045
5969,0.245,0.055
5970,0.265,0.045
5971,0.275,0.065
5972,0.265,0.085
5973,0.215,0.085
5974,0.165,0.065
5975,0.115,0.055
5976,0.045,0.035
5977,0.005,0.015
5978,-0.045,-0.025
5979,-0.085,-0.055
5980,-0.095,-0.055
5981,-0.105,-0.075
5982,-0.135,-0.075
5983,-0.135,-0.085
5984,-0.155,-0.085
5985,-0.145,-0.065
5986,-0.135,-0.075
5987,-0.145,-0.085
5988,-0.125,-0.075
5989,-0.135,-0.065
5990,-0.135,-0.065
5991,-0.135,-0.085
5992,-0.165,-0.065
5993,-0.135,-0.065
5994,-0.145,-0.065
5995,-0.145,-0.085
5996,-0.155,-0.085
5997,-0.135,-0.075
5998,-0.155,-0.085
5999,-0.165,-0.095
6000,-0.165,-0.105
6001,-0.175,-0.105
6002,-0.155,-0.095
6003,-0.175,-0.115
6004,-0.165,-0.125
6005,-0.165,-0.125
6006,-0.165,-0.115
6007,-0.175,-0.115
6008,-0.175,-0.135
6009,-0.195,-0.135
6010,-0.145,-0.135
6011,-0.125,-0.125
6012,-0.055,-0.055
6013,-0.015,-0.035
6014,-0.075,-0.095
6015,-0.115,-0.105
6016,-0.135,-0.135
6017,-0.175,-0.145
6018,-0.185,-0.145
6019,-0.195,-0.145
6020,-0.195,-0.165
6021,-0.185,-0.165
6022,-0.195,-0.145
6023,-0.195,-0.155
6024,-0.195,-0.165
6025,-0.215,-0.155
6026,-0.195,-0.145
6027,-0.185,-0.145
6028,-0.185,-0.145
6029,-0.175,-0.145
6030,-0.175,-0.135
6031,-0.165,-0.135
6032,-0.155,-0.125
6033,-0.395,-0.035
6034,-0.405,0.035
6035,0.115,0.445
6036,1.175,-0.255
6037,1.645,-0.835
6038,0.315,-0.875
6039,-0.575,-0.905
6040,-0.635,-0.605
6041,-0.405,-0.295
6042,-0.225,-0.125
6043,-0.175,-0.065
6044,-0.185,-0.075
6045,-0.205,-0.085
6046,-0.205,-0.075
6047,-0.195,-0.095
6048,-0.225,-0.075
6049,-0.195,-0.075
6050,-0.195,-0.065
6051,-0.185,-0.075
6052,-0.175,-0.065
6053,-0.175,-0.055
6054,-0.175,-0.065
6055,-0.155,-0.055
6056,-0.155,-0.055
6057,-0.145,-0.045
6058,-0.135,-0.055
6059,-0.115,-0.055
6060,-0.085,-0.035
6061,-0.085,-0.035
6062,-0.065,-0.035
6063,-0.055,-0.035
6064,-0.035,-0.025
6065,-0.015,-0.015
6066,0.005,-0.015
6067,0.025,-0.025
6068,0.075,-0.025
6069,0.105,-0.025
6070,0.125,-0.015
6071,0.165,-0.025
6072,0.175,-0.005
6073,0.215,0.005
6074,0.205,0.015
6075,0.195,0.015
6076,0.175,0.035
6077,0.105,0.035
6078,0.055,0.015
6079,0.005,-0.015
6080,-0.055,-0.025
6081,-0.095,-0.045
6082,-0.125,-0.065
6083,-0.145,-0.095
6084,-0.155,-0.105
6085,-0.165,-0.095
6086,-0.185,-0.095
6087,-0.185,-0.115
6088,-0.195,-0.105
6089,-0.175,-0.095
6090,-0.185,-0.095
6091,-0.185,-0.105
6092,-0.175,-0.105
6093,-0.175,-0.085
6094,-0.175,-0.085
6095,-0.185,-0.095
6096,-0.185,-0.105
6097,-0.185,-0.105
6098,-0.185,-0.095
6099,-0.185,-0.105
6100,-0.185,-0.125
6101,-0.185,-0.115
6102,-0.195,-0.115
6103,-0.185,-0.135
6104,-0.195,-0.135
6105,-0.215,-0.135
6106,-0.195,-0.125
6107,-0.195,-0.135
6108,-0.215,-0.155
6109,-0.195,-0.155
6110,-0.185,-0.145
6111,-0.125,-0.115
6112,-0.065,-0.065
6113,-0.105,-0.075
6114,-0.135,-0.115
6115,-0.145,-0.125
6116,-0.175,-0.165
6117,-0.195,-0.165
6118,-0.235,-0.165
6119,-0.225,-0.175
6120,-0.235,-0.185
6121,-0.245,-0.175
6122,-0.235,-0.165
6123,-0.205,-0.155
6124,-0.215,-0.145
6125,-0.225,-0.175
6126,-0.225,-0.185
6127,-0.235,-0.165
6128,-0.225,-0.165
6129,-0.225,-0.185
6130,-0.225,-0.165
6131,-0.205,-0.155
6132,-0.185,-0.165
6133,-0.245,-0.135
6134,-0.485,-0.025
6135,-0.355,0.115
6136,0.225,0.385
6137,1.425,-0.525
6138,1.445,-0.885
6139,-0.075,-0.915
6140,-0.665,-0.765
6141,-0.605,-0.505
6142,-0.385,-0.245
6143,-0.235,-0.105
6144,-0.205,-0.085
6145,-0.245,-0.105
6146,-0.235,-0.095
6147,-0.235,-0.095
6148,-0.235,-0.095
6149,-0.225,-0.075
6150,-0.215,-0.065
6151,-0.225,-0.085
6152,-0.205,-0.085
6153,-0.205,-0.075
6154,-0.195,-0.065
6155,-0.195,-0.075
6156,-0.175,-0.075
6157,-0.165,-0.055
6158,-0.155,-0.055
6159,-0.145,-0.065
6160,-0.145,-0.055
6161,-0.115,-0.035
6162,-0.105,-0.035
6163,-0.075,-0.045
6164,-0.045,-0.025
6165,-0.035,-0.015
6166,-0.025,-0.025
6167,0.015,-0.035
6168,0.025,-0.025
6169,0.075,-0.015
6170,0.095,-0.025
6171,0.135,-0.015
6172,0.165,-0.005
6173,0.175,0.005
6174,0.175,0.015
6175,0.165,0.015
6176,0.105,0.035
6177,0.065,0.025
6178,0.015,0.005
6179,-0.035,-0.025
6180,-0.075,-0.035
6181,-0.115,-0.055
6182,-0.145,-0.085
6183,-0.165,-0.105
6184,-0.185,-0.095
6185,-0.175,-0.095
6186,-0.175,-0.095
6187,-0.175,-0.105
6188,-0.165,-0.095
6189,-0.165,-0.085
6190,-0.165,-0.085
6191,-0.165,-0.085
6192,-0.185,-0.085
6193,-0.155,-0.065
6194,-0.165,-0.075
6195,-0.165,-0.085
6196,-0.155,-0.085
6197,-0.155,-0.075
6198,-0.165,-0.085
6199,-0.165,-0.095
6200,-0.185,-0.095
6201,-0.175,-0.095
6202,-0.175,-0.095
6203,-0.175,-0.115
6204,-0.175,-0.105
6205,-0.165,-0.105
6206,-0.185,-0.115
6207,-0.175,-0.135
6208,-0.175,-0.135
6209,-0.145,-0.115
6210,-0.065,-0.035
6211,-0.035,-0.035
6212,-0.075,-0.085
6213,-0.125,-0.095
6214,-0.145,-0.135
6215,-0.155,-0.145
6216,-0.195,-0.135
6217,-0.195,-0.135
6218,-0.195,-0.145
6219,-0.205,-0.155
6220,-0.185,-0.155
6221,-0.185,-0.135
6222,-0.195,-0.135
6223,-0.195,-0.155
6224,-0.205,-0.145
6225,-0.195,-0.135
6226,-0.185,-0.135
6227,-0.185,-0.155
6228,-0.165,-0.135
6229,-0.165,-0.125
6230,-0.145,-0.115
6231,-0.305,-0.025
6232,-0.445,0.025
6233,-0.115,0.415
6234,0.625,-0.015
6235,1.615,-0.845
6236,1.185,-0.985
6237,-0.185,-0.955
6238,-0.665,-0.735
6239,-0.485,-0.345
6240,-0.285,-0.135
6241,-0.165,-0.015
6242,-0.175,-0.035
6243,-0.185,-0.055
6244,-0.185,-0.045
6245,-0.195,-0.035
6246,-0.185,-0.025
6247,-0.185,-0.035
6248,-0.195,-0.025
6249,-0.175,-0.015
6250,-0.165,-0.015
6251,-0.155,-0.025
6252,-0.145,-0.015
6253,-0.145,-0.005
6254,-0.135,0.005
6255,-0.135,-0.005
6256,-0.135,0.015
6257,-0.105,0.025
6258,-0.095,0.025
6259,-0.085,0.025
6260,-0.065,0.045
6261,-0.045,0.045
6262,-0.035,0.055
6263,-0.005,0.055
6264,-0.015,0.065
6265,0.035,0.065
6266,0.065,0.085
6267,0.095,0.075
6268,0.115,0.085
6269,0.155,0.095
6270,0.175,0.095
6271,0.205,0.075
6272,0.225,0.085
6273,0.235,0.105
6274,0.225,0.115
6275,0.185,0.095
6276,0.155,0.085
6277,0.105,0.065
6278,0.045,0.045
6279,-0.015,0.005
6280,-0.045,-0.025
6281,-0.095,-0.035
6282,-0.115,-0.045
6283,-0.125,-0.075
6284,-0.145,-0.085
6285,-0.135,-0.085
6286,-0.145,-0.075
6287,-0.135,-0.075
6288,-0.135,-0.085
6289,-0.155,-0.075
6290,-0.135,-0.055
6291,-0.135,-0.065
6292,-0.125,-0.065
6293,-0.115,-0.055
6294,-0.125,-0.045
6295,-0.125,-0.055
6296,-0.115,-0.055
6297,-0.145,-0.055
6298,-0.125,-0.055
6299,-0.125,-0.065
6300,-0.125,-0.075
6301,-0.125,-0.075
6302,-0.125,-0.065
6303,-0.135,-0.085
6304,-0.135,-0.095
6305,-0.155,-0.095
6306,-0.135,-0.095
6307,-0.145,-0.105
6308,-0.145,-0.105
6309,-0.135,-0.095
6310,-0.145,-0.105
6311,-0.145,-0.105
6312,-0.145,-0.115
6313,-0.145,-0.105
6314,-0.145,-0.095
6315,-0.135,-0.105
6316,-0.135,-0.115
6317,-0.125,-0.115
6318,-0.115,-0.115
6319,-0.075,-0.075
6320,-0.025,-0.025
6321,-0.015,-0.035
6322,-0.065,-0.085
6323,-0.085,-0.105
6324,-0.105,-0.115
6325,-0.105,-0.105
6326,-0.135,-0.105
6327,-0.145,-0.135
6328,-0.165,-0.125
6329,-0.135,-0.105
6330,-0.145,-0.105
6331,-0.135,-0.125
6332,-0.135,-0.115
6333,-0.135,-0.105
6334,-0.125,-0.105
6335,-0.135,-0.125
6336,-0.135,-0.105
6337,-0.115,-0.085
6338,-0.075,-0.085
6339,-0.165,-0.045
6340,-0.375,0.025
6341,-0.205,0.215
6342,0.315,0.465
6343,1.225,-0.585
6344,1.685,-0.975
6345,0.475,-0.875
6346,-0.495,-0.905
6347,-0.555,-0.575
6348,-0.315,-0.215
6349,-0.135,-0.045
6350,-0.095,0.015
6351,-0.115,-0.015
6352,-0.135,-0.015
6353,-0.115,-0.005
6354,-0.125,-0.005
6355,-0.125,-0.005
6356,-0.115,-0.005
6357,-0.105,0.015
6358,-0.105,0.015
6359,-0.105,0.005
6360,-0.095,0.005
6361,-0.095,0.025
6362,-0.085,0.025
6363,-0.085,0.015
6364,-0.055,0.025
6365,-0.045,0.045
6366,-0.045,0.045
6367,-0.035,0.045
6368,-0.025,0.045
6369,0.005,0.065
6370,0.015,0.075
6371,0.035,0.065
6372,0.075,0.065
6373,0.085,0.095
6374,0.115,0.085
6375,0.145,0.085
6376,0.155,0.095
6377,0.205,0.105
6378,0.235,0.095
6379,0.265,0.085
6380,0.305,0.105
6381,0.315,0.115
6382,0.305,0.125
6383,0.285,0.115
6384,0.215,0.105
6385,0.185,0.105
6386,0.115,0.075
6387,0.065,0.025
6388,0.025,0.015
6389,-0.005,-0.005
6390,-0.035,-0.025
6391,-0.055,-0.045
6392,-0.095,-0.055
6393,-0.075,-0.045
6394,-0.065,-0.045
6395,-0.075,-0.065
6396,-0.065,-0.055
6397,-0.065,-0.035
6398,-0.065,-0.035
6399,-0.075,-0.045
6400,-0.085,-0.035
6401,-0.065,-0.025
6402,-0.055,-0.025
6403,-0.065,-0.045
6404,-0.065,-0.035
6405,-0.065,-0.025
6406,-0.065,-0.035
6407,-0.085,-0.065
6408,-0.085,-0.055
6409,-0.085,-0.045
6410,-0.085,-0.065
6411,-0.095,-0.075
6412,-0.075,-0.085
6413,-0.095,-0.065
6414,-0.095,-0.075
6415,-0.095,-0.085
6416,-0.105,-0.095
6417,-0.095,-0.085
6418,-0.085,-0.095
6419,-0.095,-0.105
6420,-0.085,-0.105
6421,-0.085,-0.095
6422,-0.095,-0.095
6423,-0.105,-0.115
6424,-0.105,-0.105
6425,-0.095,-0.095
6426,-0.085,-0.085
6427,-0.085,-0.105
6428,-0.085,-0.115
6429,-0.065,-0.105
6430,-0.015,-0.065
6431,0.035,-0.015
6432,0.025,-0.025
6433,-0.015,-0.085
6434,-0.035,-0.085
6435,-0.055,-0.105
6436,-0.055,-0.115
6437,-0.085,-0.095
6438,-0.095,-0.105
6439,-0.105,-0.125
6440,-0.105,-0.115
6441,-0.095,-0.095
6442,-0.095,-0.095
6443,-0.095,-0.115
6444,-0.085,-0.105
6445,-0.085,-0.085
6446,-0.085,-0.095
6447,-0.085,-0.115
6448,-0.065,-0.105
6449,-0.065,-0.085
6450,-0.035,-0.085
6451,-0.145,-0.035
6452,-0.355,0.025
6453,-0.135,0.285
6454,0.505,0.365
6455,1.485,-0.635
6456,1.575,-0.945
6457,0.275,-0.905
6458,-0.495,-0.865
6459,-0.485,-0.525
6460,-0.255,-0.215
6461,-0.085,-0.045
6462,-0.045,0.015
6463,-0.085,-0.015
6464,-0.075,-0.015
6465,-0.095,-0.005
6466,-0.075,-0.005
6467,-0.085,-0.005
6468,-0.075,-0.005
6469,-0.065,-0.005
6470,-0.065,0.005
6471,-0.075,-0.005
6472,-0.055,0.005
6473,-0.065,0.015
6474,-0.045,0.015
6475,-0.045,0.005
6476,-0.035,0.015
6477,-0.005,0.045
6478,-0.005,0.045
6479,-0.005,0.025
6480,0.025,0.035
6481,0.035,0.065
6482,0.045,0.065
6483,0.065,0.045
6484,0.085,0.065
6485,0.125,0.075
6486,0.135,0.075
6487,0.165,0.065
6488,0.205,0.075
6489,0.225,0.085
6490,0.265,0.085
6491,0.285,0.075
6492,0.315,0.085
6493,0.335,0.105
6494,0.325,0.115
6495,0.285,0.105
6496,0.255,0.095
6497,0.195,0.095
6498,0.145,0.075
6499,0.085,0.025
6500,0.035,0.005
6501,0.015,-0.005
6502,-0.025,-0.025
6503,-0.045,-0.055
6504,-0.035,-0.065
6505,-0.055,-0.055
6506,-0.065,-0.055
6507,-0.065,-0.065
6508,-0.065,-0.055
6509,-0.055,-0.045
6510,-0.055,-0.035
6511,-0.055,-0.045
6512,-0.075,-0.045
6513,-0.055,-0.035
6514,-0.055,-0.035
6515,-0.065,-0.055
6516,-0.055,-0.045
6517,-0.055,-0.045
6518,-0.065,-0.045
6519,-0.065,-0.065
6520,-0.095,-0.075
6521,-0.075,-0.065
6522,-0.085,-0.075
6523,-0.085,-0.085
6524,-0.085,-0.085
6525,-0.085,-0.085
6526,-0.095,-0.095
6527,-0.095,-0.105
6528,-0.105,-0.105
6529,-0.095,-0.105
6530,-0.095,-0.105
6531,-0.105,-0.115
