'sample interval','ECG0','ECG1'
'0.0078125 sec','mV','mV'
0,0.420,0.510
1,0.280,0.460
2,0.310,0.330
3,0.170,0.230
4,0.100,0.150
5,0.030,0.030
6,-0.010,-0.020
7,-0.020,0.020
8,-0.020,-0.050
9,-0.110,-0.060
10,-0.060,-0.010
11,-0.060,-0.040
12,-0.120,-0.060
13,-0.140,-0.040
14,-0.110,-0.070
15,-0.110,-0.120
16,-0.090,-0.070
17,-0.080,-0.030
18,-0.100,-0.110
19,-0.110,-0.090
20,-0.130,-0.020
21,-0.090,-0.030
22,-0.100,0.000
23,-0.150,-0.060
24,-0.100,-0.010
25,-0.240,-0.050
26,-0.070,-0.100
27,-0.090,0.090
28,-0.150,-0.030
29,-0.150,-0.030
30,-0.030,-0.010
31,-0.070,-0.020
32,-0.110,0.060
33,-0.060,-0.030
34,-0.150,0.010
35,-0.110,-0.040
36,-0.100,-0.040
37,-0.170,-0.070
38,-0.120,-0.020
39,-0.170,-0.100
40,-0.110,-0.080
41,-0.100,-0.070
42,-0.160,-0.070
43,-0.160,-0.030
44,-0.110,-0.050
45,-0.150,-0.050
46,-0.200,-0.060
47,-0.100,-0.100
48,-0.010,-0.010
49,0.040,0.040
50,-0.020,0.080
51,0.060,0.020
52,0.190,0.100
53,0.130,0.150
54,0.100,0.070
55,0.220,0.040
56,0.200,0.020
57,0.100,0.090
58,-0.060,0.040
59,-0.170,-0.060
60,-0.310,-0.100
61,-0.320,-0.180
62,-0.300,-0.150
63,-0.270,-0.190
64,-0.400,-0.140
65,-0.360,-0.190
66,-0.400,-0.140
67,-0.370,-0.190
68,-0.390,-0.140
69,-0.430,-0.160
70,-0.400,-0.140
71,-0.460,-0.170
72,-0.770,-0.150
73,-0.660,0.020
74,0.570,0.680
75,2.040,1.140
76,2.890,0.100
77,1.790,-1.420
78,-0.220,-1.930
79,0.120,-2.410
80,-0.190,-0.890
81,-0.330,-0.440
82,-0.300,-0.140
83,-0.330,-0.100
84,-0.420,-0.030
85,-0.370,-0.060
86,-0.330,0.020
87,-0.350,0.070
88,-0.360,0.040
89,-0.340,0.070
90,-0.330,0.100
91,-0.270,0.100
92,-0.350,0.160
93,-0.360,0.130
94,-0.330,0.120
95,-0.280,0.150
96,-0.280,0.210
97,-0.240,0.200
98,-0.240,0.260
99,-0.230,0.280
100,-0.190,0.310
101,-0.190,0.340
102,-0.200,0.380
103,-0.120,0.390
104,-0.070,0.470
105,-0.060,0.530
106,-0.070,0.530
107,0.040,0.580
108,0.110,0.580
109,0.150,0.680
110,0.170,0.720
111,0.280,0.720
112,0.320,0.740
113,0.340,0.760
114,0.400,0.760
115,0.390,0.700
116,0.440,0.640
117,0.380,0.550
118,0.280,0.430
119,0.230,0.350
120,0.210,0.270
121,0.060,0.160
122,0.070,0.100
123,-0.010,0.070
124,-0.040,0.060
125,-0.120,0.020
126,-0.150,-0.030
127,-0.110,-0.020
128,-0.140,-0.020
129,-0.140,-0.080
130,-0.070,-0.030
131,-0.140,-0.040
132,-0.120,-0.040
133,-0.080,-0.030
134,-0.140,-0.020
135,-0.120,0.000
136,-0.140,-0.010
137,-0.150,-0.010
138,-0.100,-0.050
139,-0.170,0.010
140,-0.140,-0.050
141,-0.140,-0.020
142,-0.130,-0.010
143,-0.090,-0.020
144,-0.100,0.020
145,-0.120,0.030
146,-0.100,0.030
147,-0.110,-0.010
148,-0.100,0.010
149,-0.130,0.020
150,-0.110,-0.020
151,-0.090,-0.020
152,-0.100,-0.020
153,-0.060,-0.040
154,-0.120,-0.050
155,-0.070,-0.050
156,-0.120,-0.020
157,-0.100,-0.030
158,-0.130,-0.050
159,-0.160,-0.080
160,-0.120,-0.090
161,-0.180,-0.070
162,-0.200,-0.030
163,-0.170,-0.090
164,-0.170,-0.120
165,-0.110,-0.080
166,-0.080,-0.040
167,0.020,-0.090
168,0.050,0.070
169,0.110,0.070
170,0.100,0.110
171,0.230,0.110
172,0.190,0.160
173,0.180,0.110
174,0.230,0.050
175,0.230,0.030
176,0.170,0.080
177,0.060,0.060
178,-0.120,-0.050
179,-0.180,-0.080
180,-0.200,-0.100
181,-0.230,-0.150
182,-0.230,-0.140
183,-0.290,-0.140
184,-0.280,-0.180
185,-0.350,-0.110
186,-0.300,-0.190
187,-0.310,-0.160
188,-0.280,-0.190
189,-0.270,-0.110
190,-0.290,-0.120
191,-0.430,-0.100
192,-0.910,-0.140
193,0.140,0.460
194,1.520,1.110
195,2.590,0.460
196,2.900,-0.430
197,0.140,-2.210
198,0.130,-2.260
199,0.040,-1.520
200,-0.120,-0.620
201,-0.190,-0.190
202,-0.240,-0.070
203,-0.300,-0.040
204,-0.350,-0.030
205,-0.320,0.010
206,-0.320,0.050
207,-0.310,0.060
208,-0.320,0.080
209,-0.240,0.090
210,-0.240,0.130
211,-0.250,0.110
212,-0.220,0.130
213,-0.230,0.210
214,-0.190,0.160
215,-0.240,0.180
216,-0.210,0.200
217,-0.200,0.230
218,-0.170,0.270
219,-0.140,0.290
220,-0.090,0.340
221,-0.100,0.330
222,-0.030,0.380
223,0.000,0.440
224,0.010,0.510
225,0.080,0.540
226,0.120,0.580
227,0.130,0.640
228,0.220,0.650
229,0.250,0.700
230,0.270,0.720
231,0.340,0.720
232,0.380,0.730
233,0.460,0.710
234,0.480,0.710
235,0.480,0.720
236,0.460,0.600
237,0.400,0.530
238,0.340,0.410
239,0.240,0.310
240,0.210,0.240
241,0.110,0.180
242,0.050,0.060
243,0.010,0.080
244,-0.020,0.000
245,0.000,0.000
246,-0.060,0.040
247,-0.060,-0.010
248,-0.070,-0.010
249,-0.030,-0.010
250,-0.120,0.010
251,-0.120,-0.040
252,-0.090,-0.030
253,-0.110,-0.010
254,-0.080,-0.020
255,-0.100,-0.010
256,-0.050,-0.010
257,-0.120,-0.010
258,-0.080,0.020
259,-0.090,0.010
260,-0.090,0.010
261,-0.110,0.010
262,-0.120,0.020
263,-0.100,0.000
264,-0.120,0.010
265,-0.110,0.010
266,-0.110,-0.010
267,-0.060,-0.050
268,-0.100,-0.010
269,-0.100,-0.030
270,-0.110,-0.030
271,-0.130,-0.050
272,-0.060,-0.040
273,-0.210,-0.040
274,-0.170,-0.180
275,-0.220,-0.130
276,-0.150,-0.160
277,-0.170,-0.130
278,-0.140,-0.100
279,-0.160,-0.150
280,-0.170,-0.130
281,-0.200,-0.150
282,-0.210,-0.160
283,-0.180,-0.140
284,-0.230,-0.110
285,-0.250,-0.170
286,-0.220,-0.160
287,-0.280,-0.130
288,-0.270,-0.180
289,-0.250,-0.170
290,-0.150,-0.180
291,-0.090,-0.120
292,-0.050,-0.080
293,-0.010,-0.050
294,0.010,0.050
295,0.080,0.010
296,0.020,0.030
297,0.050,-0.060
298,0.120,-0.060
299,0.030,-0.010
300,-0.070,-0.010
301,-0.240,-0.120
302,-0.330,-0.190
303,-0.370,-0.240
304,-0.400,-0.220
305,-0.410,-0.270
306,-0.420,-0.250
307,-0.560,-0.240
308,-0.480,-0.330
309,-0.480,-0.280
310,-0.510,-0.260
311,-0.480,-0.280
312,-0.460,-0.290
313,-0.440,-0.320
314,-0.450,-0.260
315,-0.740,-0.260
316,-0.680,-0.080
317,0.480,0.520
318,1.790,1.110
319,2.670,0.110
320,1.910,-0.850
321,-0.390,-1.960
322,-0.310,-2.380
323,-0.360,-1.290
324,-0.350,-0.620
325,-0.400,-0.340
326,-0.420,-0.270
327,-0.460,-0.200
328,-0.480,-0.160
329,-0.470,-0.180
330,-0.550,-0.110
331,-0.400,-0.160
332,-0.470,-0.060
333,-0.420,-0.120
334,-0.410,-0.080
335,-0.410,-0.130
336,-0.440,-0.040
337,-0.380,-0.090
338,-0.360,-0.010
339,-0.390,-0.030
340,-0.350,-0.010
341,-0.340,0.040
342,-0.370,0.040
343,-0.310,0.050
344,-0.220,0.150
345,-0.210,0.120
346,-0.210,0.180
347,-0.090,0.180
348,-0.020,0.250
349,-0.040,0.330
350,0.050,0.340
351,0.070,0.400
352,0.140,0.420
353,0.130,0.420
354,0.230,0.420
355,0.250,0.450
356,0.320,0.460
357,0.330,0.480
358,0.390,0.420
359,0.360,0.380
360,0.280,0.310
361,0.250,0.230
362,0.160,0.140
363,0.100,0.110
364,0.020,-0.030
365,-0.050,-0.060
366,-0.110,-0.100
367,-0.120,-0.150
368,-0.130,-0.170
369,-0.160,-0.220
370,-0.130,-0.110
371,-0.190,-0.190
372,-0.160,-0.210
373,-0.190,-0.170
374,-0.150,-0.160
375,-0.230,-0.170
376,-0.270,-0.230
377,-0.200,-0.150
378,-0.190,-0.160
379,-0.230,-0.190
380,-0.240,-0.140
381,-0.200,-0.230
382,-0.200,-0.160
383,-0.190,-0.130
384,-0.190,-0.160
385,-0.100,-0.170
386,-0.150,-0.120
387,-0.170,-0.120
388,-0.100,-0.150
389,-0.160,-0.160
390,-0.110,-0.240
391,-0.150,-0.150
392,-0.120,-0.150
393,-0.130,-0.170
394,-0.200,-0.150
395,-0.090,-0.140
396,-0.200,-0.170
397,-0.140,-0.110
398,-0.220,-0.170
399,-0.240,-0.190
400,-0.250,-0.190
401,-0.210,-0.180
402,-0.210,-0.180
403,-0.190,-0.180
404,-0.250,-0.240
405,-0.210,-0.160
406,-0.180,-0.200
407,-0.280,-0.150
408,-0.200,-0.200
409,-0.210,-0.150
410,-0.110,-0.070
411,-0.090,-0.060
412,-0.040,-0.040
413,0.000,-0.010
414,0.100,0.000
415,0.090,0.030
416,0.040,-0.110
417,0.040,-0.110
418,0.070,-0.050
419,0.000,0.010
420,-0.260,-0.100
421,-0.350,-0.190
422,-0.370,-0.240
423,-0.370,-0.280
424,-0.420,-0.300
425,-0.430,-0.330
426,-0.450,-0.320
427,-0.430,-0.350
428,-0.440,-0.310
429,-0.500,-0.310
430,-0.480,-0.420
431,-0.490,-0.310
432,-0.450,-0.370
433,-0.470,-0.280
434,-0.800,-0.360
435,-0.610,-0.120
436,0.600,0.440
437,1.810,1.070
438,2.640,0.250
439,1.970,-0.600
440,-0.680,-1.710
441,-0.530,-2.170
442,-0.280,-1.400
443,-0.410,-0.590
444,-0.440,-0.340
445,-0.490,-0.230
446,-0.480,-0.190
447,-0.480,-0.270
448,-0.460,-0.110
449,-0.510,-0.160
450,-0.420,-0.150
451,-0.430,-0.120
452,-0.400,-0.120
453,-0.420,-0.100
454,-0.470,-0.100
455,-0.440,-0.120
456,-0.440,-0.100
457,-0.430,-0.100
458,-0.400,-0.080
459,-0.410,0.000
460,-0.370,-0.020
461,-0.350,-0.040
462,-0.360,0.040
463,-0.270,0.010
464,-0.220,0.130
465,-0.300,0.140
466,-0.180,0.130
467,-0.190,0.170
468,-0.130,0.180
469,-0.090,0.270
470,0.020,0.300
471,0.110,0.330
472,0.150,0.410
473,0.190,0.430
474,0.210,0.430
475,0.220,0.480
476,0.270,0.370
477,0.270,0.370
478,0.260,0.360
479,0.240,0.250
480,0.160,0.190
481,0.070,0.080
482,0.050,-0.020
483,-0.020,-0.030
484,-0.060,-0.110
485,-0.130,-0.110
486,-0.090,-0.150
487,-0.190,-0.140
488,-0.200,-0.220
489,-0.210,-0.220
490,-0.240,-0.200
491,-0.230,-0.190
492,-0.230,-0.180
493,-0.190,-0.230
494,-0.200,-0.160
495,-0.250,-0.180
496,-0.280,-0.180
497,-0.320,-0.190
498,-0.300,-0.230
499,-0.290,-0.170
500,-0.250,-0.140
501,-0.270,-0.210
502,-0.210,-0.150
503,-0.220,-0.120
504,-0.160,-0.170
505,-0.180,-0.130
506,-0.210,-0.140
507,-0.100,-0.130
508,-0.210,-0.080
509,-0.110,-0.090
510,-0.200,-0.100
511,-0.190,-0.150
512,-0.220,-0.080
513,-0.190,-0.090
514,-0.210,-0.110
515,-0.260,-0.150
516,-0.220,-0.140
517,-0.260,-0.130
518,-0.210,-0.150
519,-0.220,-0.080
520,-0.280,-0.140
521,-0.250,-0.150
522,-0.300,-0.150
523,-0.250,-0.180
524,-0.280,-0.140
525,-0.230,-0.150
526,-0.300,-0.170
527,-0.240,-0.180
528,-0.130,-0.160
529,-0.100,-0.080
530,0.000,-0.050
531,-0.020,-0.030
532,0.040,0.050
533,0.070,-0.040
534,0.030,0.010
535,0.070,-0.080
536,0.130,-0.080
537,0.130,-0.050
538,0.030,-0.030
539,-0.230,-0.080
540,-0.230,-0.160
541,-0.280,-0.200
542,-0.320,-0.220
543,-0.370,-0.220
544,-0.360,-0.260
545,-0.430,-0.200
546,-0.350,-0.240
547,-0.370,-0.270
548,-0.420,-0.260
549,-0.290,-0.270
550,-0.370,-0.180
551,-0.370,-0.180
552,-0.360,-0.240
553,-0.510,-0.190
554,-0.810,-0.100
555,0.250,0.440
556,1.590,1.020
557,2.590,0.440
558,2.670,-0.300
559,-0.280,-1.920
560,-0.180,-2.020
561,-0.100,-1.520
562,-0.280,-0.600
563,-0.300,-0.240
564,-0.260,-0.090
565,-0.370,-0.100
566,-0.330,-0.100
567,-0.350,-0.040
568,-0.350,0.050
569,-0.370,0.010
570,-0.270,-0.020
571,-0.310,0.070
572,-0.250,0.100
573,-0.310,0.120
574,-0.280,0.120
575,-0.260,0.150
576,-0.310,0.140
577,-0.270,0.150
578,-0.220,0.160
579,-0.200,0.180
580,-0.190,0.240
581,-0.150,0.250
582,-0.110,0.250
583,-0.090,0.330
584,-0.100,0.360
585,0.010,0.410
586,0.030,0.420
587,0.010,0.520
588,0.130,0.500
589,0.160,0.560
590,0.160,0.620
591,0.320,0.630
592,0.330,0.680
593,0.380,0.650
594,0.390,0.700
595,0.460,0.660
596,0.480,0.630
597,0.470,0.640
598,0.410,0.520
599,0.390,0.420
600,0.310,0.310
601,0.210,0.240
602,0.170,0.170
603,0.160,0.050
604,0.100,0.000
605,0.060,0.050
606,0.020,0.040
607,0.000,-0.020
608,-0.050,-0.020
609,-0.030,-0.010
610,-0.040,-0.080
611,-0.020,0.020
612,-0.070,-0.080
613,-0.040,-0.010
614,-0.060,-0.090
615,-0.020,-0.060
616,-0.030,-0.040
617,-0.100,-0.030
618,-0.010,-0.050
619,-0.070,0.010
620,-0.060,-0.030
621,-0.040,-0.020
622,-0.010,0.000
623,-0.030,0.010
624,-0.010,-0.010
625,0.020,-0.020
626,0.040,0.010
627,0.010,0.060
628,0.020,0.000
629,0.070,0.020
630,0.080,0.050
631,0.010,0.030
632,0.020,-0.020
633,-0.010,-0.020
634,-0.020,-0.030
635,0.040,-0.050
636,0.000,-0.020
637,0.020,-0.050
638,-0.030,-0.030
639,-0.030,-0.080
640,-0.020,-0.030
641,-0.020,-0.040
642,-0.070,-0.040
643,0.000,-0.070
644,-0.120,-0.010
645,-0.070,-0.030
646,-0.090,-0.080
647,-0.070,-0.090
648,0.000,-0.070
649,-0.080,-0.020
650,-0.030,-0.040
651,0.060,-0.030
652,0.080,0.030
653,0.130,0.030
654,0.130,0.090
655,0.190,0.090
656,0.220,0.100
657,0.260,0.130
658,0.270,0.080
659,0.250,-0.010
660,0.370,0.020
661,0.190,0.100
662,0.130,0.030
663,-0.110,-0.010
664,-0.130,-0.120
665,-0.170,-0.120
666,-0.210,-0.140
667,-0.130,-0.100
668,-0.260,-0.180
669,-0.290,-0.160
670,-0.190,-0.200
671,-0.220,-0.130
672,-0.220,-0.160
673,-0.190,-0.070
674,-0.220,-0.140
675,-0.260,-0.110
676,-0.280,-0.080
677,-0.710,-0.150
678,-0.220,0.170
679,0.960,0.790
680,2.300,1.010
681,2.860,0.040
682,1.140,-1.630
683,-0.230,-1.870
684,0.030,-2.190
685,-0.050,-0.760
686,-0.180,-0.330
687,-0.200,-0.110
688,-0.290,-0.060
689,-0.210,0.000
690,-0.270,0.000
691,-0.240,0.000
692,-0.230,0.060
693,-0.220,0.040
694,-0.230,0.070
695,-0.280,0.090
696,-0.190,0.110
697,-0.270,0.090
698,-0.200,0.100
699,-0.250,0.100
700,-0.250,0.130
701,-0.240,0.180
702,-0.180,0.160
703,-0.160,0.180
704,-0.110,0.230
705,-0.170,0.260
706,-0.050,0.280
707,-0.090,0.310
708,-0.020,0.340
709,-0.010,0.350
710,0.000,0.420
711,0.030,0.440
712,0.140,0.470
713,0.220,0.550
714,0.300,0.560
715,0.330,0.610
716,0.340,0.660
717,0.410,0.610
718,0.430,0.710
719,0.490,0.620
720,0.460,0.590
721,0.490,0.530
722,0.440,0.420
723,0.370,0.400
724,0.330,0.240
725,0.260,0.150
726,0.200,0.060
727,0.150,0.020
728,0.080,-0.020
729,0.070,-0.010
730,0.060,-0.040
731,-0.020,-0.090
732,-0.040,-0.070
733,0.010,-0.120
734,-0.080,-0.070
735,0.010,-0.050
736,0.020,-0.100
737,0.010,-0.090
738,-0.060,-0.070
739,0.030,-0.050
740,-0.050,-0.050
741,-0.020,-0.050
742,-0.080,-0.070
743,-0.030,-0.030
744,-0.020,-0.040
745,-0.040,-0.030
746,-0.010,-0.080
747,0.040,0.000
748,0.060,-0.030
749,-0.020,0.000
750,0.060,-0.030
751,0.080,0.020
752,0.070,0.020
753,-0.010,-0.040
754,0.010,0.010
755,0.040,-0.060
756,0.030,-0.010
757,0.050,-0.090
758,-0.040,-0.030
759,0.060,-0.080
760,-0.020,-0.050
761,0.010,-0.120
762,-0.030,-0.020
763,0.010,-0.140
764,-0.010,-0.060
765,-0.040,-0.110
766,-0.040,-0.060
767,0.010,-0.090
768,-0.040,-0.110
769,-0.090,-0.100
770,-0.030,-0.160
771,-0.050,-0.090
772,-0.040,-0.110
773,-0.060,-0.100
774,0.000,-0.090
775,0.030,-0.080
776,0.120,-0.060
777,0.100,0.040
778,0.220,0.010
779,0.190,0.100
780,0.300,0.110
781,0.260,0.090
782,0.250,0.010
783,0.290,0.000
784,0.300,0.080
785,0.150,0.060
786,0.000,0.000
787,-0.100,-0.070
788,-0.140,-0.170
789,-0.190,-0.160
790,-0.130,-0.140
791,-0.240,-0.210
792,-0.170,-0.210
793,-0.170,-0.210
794,-0.160,-0.150
795,-0.210,-0.180
796,-0.230,-0.170
797,-0.150,-0.110
798,-0.230,-0.160
799,-0.240,-0.180
800,-0.350,-0.170
801,-0.740,-0.110
802,0.250,0.360
803,1.500,0.930
804,2.510,0.500
805,2.930,-0.490
806,-0.010,-2.320
807,0.190,-2.140
808,0.070,-1.620
809,-0.110,-0.600
810,-0.090,-0.240
811,-0.090,-0.180
812,-0.210,-0.070
813,-0.210,-0.050
814,-0.170,0.000
815,-0.150,0.050
816,-0.140,0.030
817,-0.150,0.080
818,-0.190,0.080
819,-0.140,0.050
820,-0.220,0.070
821,-0.110,0.060
822,-0.120,0.090
823,-0.120,0.140
824,-0.170,0.170
825,-0.150,0.150
826,-0.070,0.130
827,-0.050,0.230
828,-0.020,0.260
829,-0.040,0.280
830,-0.010,0.300
831,0.080,0.380
832,0.050,0.390
833,0.070,0.430
834,0.130,0.470
835,0.190,0.510
836,0.250,0.570
837,0.310,0.590
838,0.390,0.620
839,0.400,0.680
840,0.470,0.700
841,0.530,0.690
842,0.580,0.720
843,0.540,0.710
844,0.580,0.620
845,0.550,0.560
846,0.510,0.460
847,0.480,0.330
848,0.420,0.270
849,0.370,0.200
850,0.220,0.120
851,0.220,0.120
852,0.170,0.010
853,0.140,-0.040
854,0.090,-0.020
855,0.120,-0.080
856,0.020,0.010
857,0.090,-0.100
858,0.100,-0.030
859,0.090,-0.060
860,0.090,-0.040
861,0.100,-0.020
862,0.080,-0.030
863,-0.030,0.010
864,0.100,-0.050
865,-0.030,0.030
866,0.010,-0.010
867,-0.010,-0.020
868,0.020,-0.050
869,0.020,-0.010
870,0.050,0.010
871,0.020,-0.020
872,0.090,0.020
873,0.060,0.040
874,0.070,0.040
875,0.050,0.070
876,0.020,0.060
877,0.020,0.020
878,0.070,-0.020
879,0.060,0.030
880,0.050,-0.020
881,0.020,-0.090
882,0.060,-0.100
883,0.010,-0.070
884,0.020,-0.120
885,-0.010,-0.100
886,-0.030,-0.120
887,-0.020,-0.120
888,-0.020,-0.100
889,-0.070,-0.180
890,-0.060,-0.090
891,-0.060,-0.170
892,0.010,-0.190
893,-0.020,-0.130
894,-0.060,-0.150
895,-0.070,-0.170
896,-0.020,-0.140
897,-0.070,-0.180
898,-0.070,-0.160
899,-0.060,-0.180
900,-0.070,-0.170
901,0.000,-0.190
902,0.050,-0.200
903,0.150,-0.100
904,0.190,-0.060
905,0.190,-0.040
906,0.270,-0.020
907,0.300,-0.030
908,0.250,0.020
909,0.240,-0.080
910,0.300,-0.220
911,0.180,0.000
912,0.100,-0.080
913,-0.020,-0.170
914,-0.130,-0.210
915,-0.150,-0.300
916,-0.150,-0.240
917,-0.170,-0.310
918,-0.170,-0.270
919,-0.220,-0.200
920,-0.210,-0.320
921,-0.230,-0.320
922,-0.250,-0.250
923,-0.210,-0.250
924,-0.220,-0.250
925,-0.170,-0.290
926,-0.300,-0.240
927,-0.650,-0.270
928,-0.060,0.130
929,1.070,0.750
930,2.300,0.780
931,2.810,-0.160
932,0.870,-1.820
933,-0.220,-1.960
934,-0.020,-2.390
935,-0.140,-0.980
936,-0.140,-0.520
937,-0.140,-0.210
938,-0.170,-0.220
939,-0.160,-0.080
940,-0.160,-0.130
941,-0.220,-0.070
942,-0.210,-0.040
943,-0.190,-0.050
944,-0.190,-0.020
945,-0.210,-0.010
946,-0.140,-0.010
947,-0.170,-0.080
948,-0.160,0.020
949,-0.140,0.020
950,-0.090,-0.030
951,-0.100,0.070
952,-0.040,0.110
953,-0.030,0.120
954,-0.100,0.180
955,-0.090,0.110
956,-0.010,0.150
957,-0.010,0.220
958,0.030,0.250
959,0.050,0.200
960,0.120,0.320
961,0.200,0.320
962,0.220,0.390
963,0.270,0.430
964,0.320,0.490
965,0.390,0.490
966,0.360,0.540
967,0.380,0.490
968,0.480,0.510
969,0.510,0.530
970,0.480,0.500
971,0.460,0.410
972,0.440,0.300
973,0.390,0.250
974,0.300,0.150
975,0.230,0.020
976,0.200,0.070
977,0.090,-0.090
978,0.050,-0.090
979,0.020,-0.120
980,0.000,-0.160
981,-0.040,-0.150
982,-0.010,-0.200
983,0.000,-0.220
984,-0.030,-0.180
985,-0.050,-0.190
986,-0.060,-0.220
987,-0.060,-0.170
988,-0.060,-0.240
989,-0.090,-0.190
990,-0.090,-0.250
991,-0.080,-0.170
992,-0.060,-0.190
993,-0.050,-0.180
994,-0.040,-0.180
995,0.000,-0.160
996,-0.020,-0.130
997,-0.010,-0.110
998,0.020,-0.110
999,-0.030,-0.100
1000,0.010,-0.140
1001,-0.010,-0.120
1002,0.020,-0.160
1003,0.010,-0.090
1004,0.020,-0.170
1005,0.030,-0.140
1006,0.030,-0.100
1007,0.000,-0.170
1008,0.020,-0.110
1009,-0.020,-0.130
1010,-0.010,-0.180
1011,-0.060,-0.170
1012,-0.070,-0.190
1013,-0.090,-0.180
1014,-0.040,-0.190
1015,-0.060,-0.220
1016,-0.040,-0.200
1017,-0.060,-0.150
1018,-0.040,-0.170
1019,-0.070,-0.160
1020,-0.100,-0.170
1021,-0.070,-0.170
1022,-0.110,-0.170
1023,-0.050,-0.190
1024,0.000,-0.170
1025,0.040,-0.120
1026,0.070,-0.100
1027,0.160,-0.080
1028,0.160,-0.050
1029,0.270,-0.040
1030,0.260,0.000
1031,0.190,-0.010
1032,0.240,-0.060
1033,0.270,-0.040
1034,0.200,-0.050
1035,0.040,-0.070
1036,-0.060,-0.150
1037,-0.140,-0.170
1038,-0.130,-0.270
1039,-0.140,-0.240
1040,-0.170,-0.260
1041,-0.180,-0.250
1042,-0.180,-0.270
1043,-0.220,-0.250
1044,-0.260,-0.270
1045,-0.240,-0.260
1046,-0.260,-0.300
1047,-0.210,-0.230
1048,-0.180,-0.230
1049,-0.310,-0.240
1050,-0.710,-0.220
1051,0.210,0.310
1052,1.400,0.810
1053,2.390,0.560
1054,2.720,-0.170
1055,0.110,-1.770
1056,-0.050,-1.820
1057,-0.010,-1.760
1058,-0.150,-0.710
1059,-0.150,-0.340
1060,-0.180,-0.140
1061,-0.220,-0.160
1062,-0.220,-0.090
1063,-0.220,-0.090
1064,-0.270,-0.030
1065,-0.220,-0.030
1066,-0.260,-0.040
1067,-0.270,0.020
1068,-0.230,0.000
1069,-0.270,0.020
1070,-0.260,0.050
1071,-0.220,0.040
1072,-0.250,0.020
1073,-0.200,0.050
1074,-0.190,0.120
1075,-0.240,0.110
1076,-0.170,0.150
1077,-0.150,0.130
1078,-0.130,0.250
1079,-0.150,0.250
1080,-0.120,0.230
1081,-0.050,0.270
1082,-0.010,0.320
1083,0.060,0.340
1084,0.110,0.370
1085,0.120,0.460
1086,0.200,0.490
1087,0.280,0.560
1088,0.270,0.500
1089,0.290,0.520
1090,0.360,0.560
1091,0.390,0.540
1092,0.400,0.520
1093,0.400,0.450
1094,0.380,0.410
1095,0.330,0.290
1096,0.270,0.210
1097,0.180,0.130
1098,0.120,0.060
1099,0.070,0.060
1100,0.010,0.000
1101,-0.010,-0.100
1102,-0.080,-0.020
1103,-0.050,-0.130
1104,-0.080,-0.110
1105,-0.010,-0.120
1106,-0.100,-0.100
1107,-0.040,-0.080
1108,-0.080,-0.100
1109,-0.080,-0.090
1110,-0.070,-0.090
1111,-0.120,-0.100
1112,-0.160,-0.120
1113,-0.130,-0.150
1114,-0.120,-0.070
1115,-0.110,-0.110
1116,-0.100,-0.100
1117,-0.090,-0.070
1118,-0.020,-0.080
1119,-0.060,-0.030
1120,-0.040,0.020
1121,-0.060,-0.030
1122,-0.050,0.010
1123,-0.060,-0.030
1124,-0.070,-0.040
1125,-0.030,-0.050
1126,-0.030,-0.020
1127,-0.040,-0.030
1128,-0.030,-0.080
1129,-0.010,-0.040
1130,-0.030,-0.060
1131,-0.030,-0.080
1132,-0.060,-0.050
1133,-0.080,-0.040
1134,-0.110,-0.100
1135,-0.140,-0.060
1136,-0.110,-0.080
1137,-0.110,-0.080
1138,-0.100,-0.110
1139,-0.110,-0.080
1140,-0.060,-0.080
1141,-0.150,-0.030
1142,-0.150,-0.090
1143,-0.130,-0.080
1144,-0.100,-0.090
1145,-0.100,-0.110
1146,-0.070,-0.010
1147,0.060,-0.060
1148,0.050,0.060
1149,0.070,0.020
1150,0.170,0.120
1151,0.150,0.070
1152,0.150,0.130
1153,0.180,0.040
1154,0.220,0.060
1155,0.200,0.080
1156,0.060,0.170
1157,-0.190,0.040
1158,-0.210,-0.110
1159,-0.230,-0.050
1160,-0.270,-0.150
1161,-0.250,-0.130
1162,-0.280,-0.150
1163,-0.290,-0.100
1164,-0.290,-0.140
1165,-0.310,-0.140
1166,-0.320,-0.150
1167,-0.380,-0.160
1168,-0.350,-0.130
1169,-0.260,-0.170
1170,-0.320,-0.160
1171,-0.710,-0.070
1172,-0.340,0.020
1173,0.810,0.550
1174,1.990,1.130
1175,2.550,0.260
1176,1.340,-0.880
1177,-0.230,-1.380
1178,-0.110,-2.070
1179,-0.170,-0.960
1180,-0.220,-0.370
1181,-0.250,-0.120
1182,-0.290,-0.110
1183,-0.280,-0.110
1184,-0.290,-0.030
1185,-0.320,-0.010
1186,-0.260,0.000
1187,-0.280,0.080
1188,-0.300,0.070
1189,-0.320,0.080
1190,-0.330,0.030
1191,-0.310,0.040
1192,-0.270,0.040
1193,-0.290,0.080
1194,-0.290,0.150
1195,-0.220,0.120
1196,-0.240,0.130
1197,-0.200,0.170
1198,-0.190,0.230
1199,-0.120,0.230
1200,-0.160,0.270
1201,-0.140,0.270
1202,-0.080,0.320
1203,-0.100,0.310
1204,0.020,0.330
1205,0.040,0.450
1206,0.090,0.410
1207,0.180,0.490
1208,0.210,0.550
1209,0.270,0.540
1210,0.270,0.600
1211,0.360,0.600
1212,0.370,0.580
1213,0.400,0.510
1214,0.410,0.590
1215,0.380,0.400
1216,0.330,0.380
1217,0.300,0.270
1218,0.200,0.180
1219,0.160,0.140
1220,0.090,0.040
1221,0.040,0.050
1222,0.020,0.060
1223,-0.030,-0.020
1224,-0.090,-0.070
1225,-0.040,-0.050
1226,-0.080,-0.030
1227,-0.070,-0.080
1228,-0.080,-0.040
1229,-0.100,-0.100
1230,-0.060,-0.100
1231,-0.110,-0.020
1232,-0.090,-0.050
1233,-0.100,-0.080
1234,-0.110,-0.040
1235,-0.170,-0.080
1236,-0.110,-0.080
1237,-0.100,-0.060
1238,-0.090,-0.070
1239,-0.100,-0.030
1240,-0.080,-0.060
1241,-0.060,-0.050
1242,-0.050,-0.030
1243,-0.080,-0.030
1244,0.010,0.050
1245,-0.010,-0.020
1246,0.010,0.040
1247,-0.040,0.000
1248,-0.030,0.000
1249,-0.060,-0.010
1250,-0.050,0.010
1251,-0.040,-0.020
1252,0.030,-0.050
1253,-0.020,0.050
1254,-0.070,-0.050
1255,-0.110,-0.020
1256,-0.080,-0.050
1257,-0.110,-0.020
1258,-0.110,-0.020
1259,-0.150,-0.050
1260,-0.110,-0.080
1261,-0.100,-0.070
1262,-0.130,-0.040
1263,-0.110,-0.040
1264,-0.120,-0.060
1265,-0.090,-0.020
1266,-0.140,-0.050
1267,-0.130,-0.020
1268,-0.100,-0.050
1269,-0.090,-0.040
1270,-0.090,-0.020
1271,0.010,-0.040
1272,0.120,0.010
1273,0.080,0.060
1274,0.150,0.100
1275,0.240,0.090
1276,0.270,0.120
1277,0.190,0.190
1278,0.220,0.040
1279,0.310,0.060
1280,0.270,0.100
1281,0.120,0.120
1282,-0.080,0.050
1283,-0.140,-0.070
1284,-0.120,-0.110
1285,-0.160,-0.100
1286,-0.130,-0.070
1287,-0.230,-0.110
1288,-0.210,-0.100
1289,-0.250,-0.070
1290,-0.200,-0.120
1291,-0.230,-0.110
1292,-0.300,-0.110
1293,-0.280,-0.130
1294,-0.250,-0.110
1295,-0.300,-0.120
1296,-0.840,-0.110
1297,-0.060,0.230
1298,1.190,0.720
1299,2.280,0.830
1300,2.710,0.110
1301,0.420,-1.480
1302,0.010,-1.530
1303,0.000,-1.750
1304,-0.080,-0.620
1305,-0.140,-0.230
1306,-0.200,-0.120
1307,-0.210,-0.080
1308,-0.210,-0.040
1309,-0.230,-0.030
1310,-0.250,0.010
1311,-0.220,0.050
1312,-0.240,-0.030
1313,-0.220,0.040
1314,-0.290,0.030
1315,-0.260,0.060
1316,-0.250,0.050
1317,-0.240,0.060
1318,-0.230,0.050
1319,-0.190,0.110
1320,-0.210,0.090
1321,-0.190,0.130
1322,-0.200,0.170
1323,-0.180,0.200
1324,-0.130,0.200
1325,-0.150,0.260
1326,-0.160,0.240
1327,-0.080,0.290
1328,-0.040,0.340
1329,0.030,0.360
1330,0.060,0.400
1331,0.140,0.420
1332,0.160,0.510
1333,0.220,0.530
1334,0.280,0.570
1335,0.360,0.580
1336,0.400,0.630
1337,0.400,0.610
1338,0.470,0.570
1339,0.490,0.530
1340,0.440,0.470
1341,0.360,0.370
1342,0.340,0.260
1343,0.300,0.200
1344,0.190,0.110
1345,0.120,0.080
1346,0.060,0.040
1347,0.090,-0.030
1348,-0.020,-0.010
1349,-0.020,-0.030
1350,-0.020,-0.060
1351,0.020,-0.060
1352,-0.050,-0.010
1353,0.000,-0.080
1354,-0.050,-0.040
1355,-0.030,-0.050
1356,-0.050,-0.020
1357,-0.050,-0.040
1358,-0.100,-0.040
1359,-0.090,0.000
1360,-0.110,-0.050
1361,-0.090,0.000
1362,-0.110,0.000
1363,-0.060,-0.010
1364,-0.060,0.020
1365,-0.060,-0.030
1366,-0.020,0.000
1367,-0.020,0.040
1368,-0.040,0.010
1369,-0.010,0.050
1370,-0.030,0.000
1371,0.000,0.020
1372,0.040,0.040
1373,-0.020,-0.010
1374,0.020,0.000
1375,-0.030,-0.020
1376,0.000,-0.010
1377,0.020,0.000
1378,-0.030,0.000
1379,-0.060,-0.020
1380,-0.030,-0.010
1381,-0.060,-0.040
1382,-0.050,-0.030
1383,-0.120,-0.040
1384,-0.110,-0.050
1385,-0.060,-0.060
1386,-0.090,-0.060
1387,-0.100,-0.040
1388,-0.080,-0.040
1389,-0.090,-0.040
1390,-0.100,-0.040
1391,-0.080,-0.050
1392,-0.110,-0.020
1393,-0.140,-0.010
1394,-0.140,-0.040
1395,-0.100,-0.050
1396,-0.040,0.000
1397,0.020,-0.010
1398,0.080,0.020
1399,0.090,0.110
1400,0.130,0.090
1401,0.200,0.140
1402,0.190,0.160
1403,0.220,0.100
1404,0.200,0.120
1405,0.240,0.020
1406,0.150,0.140
1407,0.060,0.050
1408,-0.100,-0.010
1409,-0.130,-0.070
1410,-0.150,-0.110
1411,-0.160,-0.080
1412,-0.210,-0.100
1413,-0.230,-0.140
1414,-0.210,-0.090
1415,-0.230,-0.120
1416,-0.250,-0.150
1417,-0.260,-0.110
1418,-0.240,-0.130
1419,-0.210,-0.110
1420,-0.180,-0.120
1421,-0.360,-0.130
1422,-0.790,-0.010
1423,0.220,0.440
1424,1.480,0.990
1425,2.470,0.550
1426,2.810,-0.200
1427,0.140,-1.730
1428,0.170,-1.760
1429,0.050,-1.500
1430,-0.100,-0.490
1431,-0.120,-0.190
1432,-0.160,-0.080
1433,-0.200,-0.050
1434,-0.200,0.030
1435,-0.240,0.040
1436,-0.210,0.080
1437,-0.240,0.090
1438,-0.240,0.070
1439,-0.170,0.080
1440,-0.240,0.060
1441,-0.280,0.110
1442,-0.200,0.070
1443,-0.180,0.110
1444,-0.190,0.130
1445,-0.160,0.140
1446,-0.130,0.220
1447,-0.160,0.210
1448,-0.100,0.250
1449,-0.150,0.240
1450,-0.130,0.280
1451,-0.080,0.300
1452,-0.080,0.360
1453,-0.020,0.380
1454,0.040,0.410
1455,0.130,0.490
1456,0.140,0.490
1457,0.170,0.610
1458,0.260,0.590
1459,0.220,0.640
1460,0.320,0.650
1461,0.310,0.670
1462,0.380,0.680
1463,0.470,0.680
1464,0.410,0.690
1465,0.450,0.570
1466,0.450,0.560
1467,0.400,0.450
1468,0.310,0.350
1469,0.260,0.260
1470,0.200,0.220
1471,0.120,0.150
1472,0.040,0.100
1473,0.030,0.030
1474,0.020,0.010
1475,-0.010,0.020
1476,-0.010,-0.010
1477,-0.010,0.010
1478,-0.020,0.000
1479,-0.040,0.010
1480,-0.040,-0.010
1481,-0.050,-0.020
1482,-0.040,0.020
1483,-0.070,0.040
1484,-0.110,-0.010
1485,-0.100,0.030
1486,-0.140,-0.030
1487,-0.080,-0.010
1488,-0.070,0.010
1489,-0.100,0.000
1490,-0.060,-0.010
1491,-0.080,0.060
1492,-0.110,0.050
1493,-0.070,0.020
1494,-0.070,0.070
1495,-0.120,0.030
1496,-0.060,0.060
1497,-0.080,-0.010
1498,-0.060,0.070
1499,-0.040,-0.010
1500,-0.020,0.020
1501,-0.010,0.010
1502,-0.050,0.050
1503,-0.040,-0.020
1504,-0.070,0.010
1505,-0.030,-0.010
1506,-0.110,-0.010
1507,-0.100,-0.020
1508,-0.110,-0.030
1509,-0.070,-0.010
1510,-0.090,0.000
1511,-0.090,-0.050
1512,-0.090,-0.030
1513,-0.120,-0.040
1514,-0.080,-0.050
1515,-0.110,-0.020
1516,-0.090,-0.050
1517,-0.140,-0.020
1518,-0.130,-0.060
1519,-0.110,-0.080
1520,-0.020,-0.050
1521,0.080,0.030
1522,0.080,0.060
1523,0.160,0.060
1524,0.180,0.160
1525,0.140,0.120
1526,0.180,0.090
1527,0.170,0.110
1528,0.210,0.040
1529,0.140,0.100
1530,0.040,0.070
1531,-0.170,0.030
1532,-0.190,-0.050
1533,-0.230,-0.090
1534,-0.220,-0.100
1535,-0.230,-0.100
1536,-0.290,-0.010
1537,-0.300,-0.090
1538,-0.340,-0.120
1539,-0.320,-0.090
1540,-0.350,-0.110
1541,-0.350,-0.140
1542,-0.320,-0.130
1543,-0.350,-0.100
1544,-0.370,-0.170
1545,-0.940,-0.110
1546,-0.220,0.250
1547,1.060,0.790
1548,2.310,0.760
1549,2.810,-0.030
1550,0.580,-1.750
1551,0.010,-1.660
1552,0.060,-1.960
1553,-0.150,-0.610
1554,-0.190,-0.260
1555,-0.270,-0.120
1556,-0.220,-0.070
1557,-0.260,-0.010
1558,-0.260,0.020
1559,-0.260,0.020
1560,-0.290,0.080
1561,-0.280,0.080
1562,-0.280,0.100
1563,-0.260,0.130
1564,-0.260,0.140
1565,-0.220,0.150
1566,-0.220,0.150
1567,-0.200,0.190
1568,-0.200,0.200
1569,-0.200,0.170
1570,-0.150,0.280
1571,-0.170,0.280
1572,-0.160,0.270
1573,-0.110,0.310
1574,-0.130,0.360
1575,-0.100,0.340
1576,-0.080,0.380
1577,-0.010,0.430
1578,0.020,0.480
1579,0.110,0.500
1580,0.140,0.600
1581,0.160,0.610
1582,0.230,0.640
1583,0.300,0.690
1584,0.290,0.720
1585,0.340,0.730
1586,0.410,0.720
1587,0.400,0.670
1588,0.360,0.650
1589,0.400,0.560
1590,0.360,0.470
1591,0.280,0.360
1592,0.190,0.300
1593,0.140,0.200
1594,0.100,0.130
1595,0.050,0.120
1596,-0.060,0.060
1597,-0.080,0.010
1598,-0.060,-0.040
1599,-0.090,0.010
1600,-0.070,-0.040
1601,-0.070,-0.040
1602,-0.060,-0.030
1603,-0.080,-0.010
1604,-0.120,0.000
1605,-0.090,-0.060
1606,-0.100,0.040
1607,-0.110,-0.030
1608,-0.120,0.030
1609,-0.160,-0.050
1610,-0.130,0.040
1611,-0.150,-0.010
1612,-0.140,0.050
1613,-0.100,0.000
1614,-0.080,0.030
1615,-0.100,0.060
1616,-0.100,0.070
1617,-0.070,0.050
1618,-0.090,0.040
1619,-0.120,0.060
1620,-0.060,0.010
1621,-0.080,0.040
1622,-0.060,0.040
1623,-0.060,0.020
1624,0.000,0.010
1625,-0.070,0.040
1626,-0.070,0.000
1627,-0.050,0.010
1628,-0.100,0.020
1629,-0.060,0.040
1630,-0.060,-0.030
1631,-0.080,-0.020
1632,-0.130,-0.040
1633,-0.140,-0.020
1634,-0.140,-0.080
1635,-0.080,-0.080
1636,-0.110,-0.020
1637,-0.130,-0.090
1638,-0.120,-0.070
1639,-0.160,-0.020
1640,-0.130,-0.050
1641,-0.060,-0.050
1642,0.000,0.010
1643,0.070,0.030
1644,0.100,0.080
1645,0.110,0.090
1646,0.210,0.160
1647,0.180,0.110
1648,0.190,0.120
1649,0.230,0.070
1650,0.260,0.090
1651,0.170,0.140
1652,0.050,0.150
1653,-0.150,0.000
1654,-0.210,-0.050
1655,-0.190,-0.070
1656,-0.220,-0.070
1657,-0.250,-0.100
1658,-0.250,-0.090
1659,-0.250,-0.120
1660,-0.280,-0.090
1661,-0.270,-0.080
1662,-0.260,-0.110
1663,-0.250,-0.100
1664,-0.350,-0.090
1665,-0.290,-0.130
1666,-0.480,-0.110
1667,-0.910,-0.070
1668,0.180,0.430
1669,1.530,1.030
1670,2.530,0.390
1671,2.640,-0.500
1672,-0.180,-2.030
1673,0.100,-2.150
1674,-0.120,-1.370
1675,-0.220,-0.490
1676,-0.250,-0.140
1677,-0.310,-0.090
1678,-0.310,-0.080
1679,-0.320,0.040
1680,-0.270,-0.010
1681,-0.320,0.050
1682,-0.320,0.040
1683,-0.310,0.050
1684,-0.260,0.100
1685,-0.320,0.070
1686,-0.280,0.110
1687,-0.300,0.120
1688,-0.290,0.130
1689,-0.260,0.140
1690,-0.270,0.140
1691,-0.260,0.170
1692,-0.180,0.200
1693,-0.190,0.240
1694,-0.150,0.270
1695,-0.110,0.350
1696,-0.130,0.390
1697,-0.100,0.370
1698,-0.040,0.390
1699,-0.050,0.500
1700,0.030,0.480
1701,0.080,0.520
1702,0.170,0.610
1703,0.220,0.550
1704,0.280,0.670
1705,0.300,0.710
1706,0.380,0.690
1707,0.410,0.760
1708,0.470,0.700
1709,0.450,0.690
1710,0.400,0.660
1711,0.450,0.500
1712,0.380,0.510
1713,0.260,0.370
1714,0.260,0.270
1715,0.200,0.160
1716,0.050,0.170
1717,0.090,0.050
1718,-0.010,0.160
1719,-0.050,-0.010
1720,-0.010,-0.010
1721,-0.070,0.110
1722,-0.020,0.000
1723,-0.090,0.030
1724,-0.080,-0.010
1725,-0.060,0.030
1726,-0.070,0.010
1727,-0.060,0.020
1728,-0.100,0.020
1729,-0.080,0.060
1730,-0.070,0.010
1731,-0.140,0.120
1732,-0.150,0.010
1733,-0.090,0.070
1734,-0.130,0.060
1735,-0.120,0.020
1736,-0.070,0.040
1737,-0.070,0.030
1738,-0.070,0.040
1739,-0.140,0.020
1740,-0.030,0.050
1741,-0.070,0.100
1742,0.010,0.020
1743,-0.060,0.020
1744,-0.060,0.040
1745,-0.060,0.060
1746,-0.010,-0.010
1747,-0.050,-0.020
1748,-0.030,-0.020
1749,0.000,0.000
1750,-0.010,-0.020
1751,-0.090,0.020
1752,-0.040,-0.040
1753,-0.050,-0.040
1754,-0.090,-0.020
1755,-0.070,-0.030
1756,-0.130,-0.050
1757,-0.060,-0.050
1758,-0.080,-0.060
1759,-0.130,-0.070
1760,-0.010,-0.070
1761,0.020,-0.060
1762,0.100,0.030
1763,0.110,0.050
1764,0.160,0.100
1765,0.210,0.130
1766,0.200,0.120
1767,0.190,0.130
1768,0.210,0.090
1769,0.270,0.020
1770,0.210,0.060
1771,0.150,0.120
1772,-0.030,0.020
1773,-0.140,-0.030
1774,-0.140,-0.070
1775,-0.220,-0.100
1776,-0.230,-0.120
1777,-0.220,-0.160
1778,-0.270,-0.140
1779,-0.320,-0.110
1780,-0.290,-0.180
1781,-0.280,-0.190
1782,-0.220,-0.160
1783,-0.250,-0.190
1784,-0.220,-0.110
1785,-0.340,-0.150
1786,-0.880,-0.120
1787,0.010,0.310
1788,1.310,0.860
1789,2.440,0.580
1790,2.860,-0.230
1791,0.150,-2.150
1792,0.170,-2.060
1793,0.060,-1.740
1794,-0.090,-0.620
1795,-0.120,-0.260
1796,-0.210,-0.140
1797,-0.200,-0.080
1798,-0.220,-0.040
1799,-0.250,-0.050
1800,-0.240,0.010
1801,-0.290,0.020
1802,-0.220,0.040
1803,-0.250,0.040
1804,-0.270,0.070
1805,-0.200,0.040
1806,-0.190,0.090
1807,-0.220,0.090
1808,-0.180,0.120
1809,-0.170,0.120
1810,-0.200,0.120
1811,-0.200,0.160
1812,-0.180,0.200
1813,-0.120,0.220
1814,-0.140,0.230
1815,-0.150,0.280
1816,-0.030,0.280
1817,-0.010,0.360
1818,0.010,0.380
1819,0.050,0.460
1820,0.060,0.490
1821,0.130,0.540
1822,0.200,0.580
1823,0.220,0.600
1824,0.290,0.640
1825,0.370,0.650
1826,0.410,0.690
1827,0.460,0.660
1828,0.500,0.630
1829,0.520,0.610
1830,0.510,0.530
1831,0.440,0.480
1832,0.390,0.370
1833,0.290,0.270
1834,0.240,0.170
1835,0.180,0.110
1836,0.130,0.040
1837,0.080,-0.010
1838,0.010,-0.030
1839,0.030,-0.060
1840,0.020,-0.060
1841,0.010,-0.080
1842,0.010,-0.040
1843,-0.020,-0.080
1844,0.030,-0.080
1845,-0.090,-0.050
1846,-0.080,-0.080
1847,-0.040,-0.070
1848,-0.040,-0.100
1849,-0.070,-0.050
1850,-0.040,-0.060
1851,-0.040,-0.070
1852,-0.030,-0.020
1853,-0.030,-0.080
1854,-0.060,-0.030
1855,-0.070,-0.020
1856,-0.090,-0.020
1857,-0.080,-0.010
1858,-0.050,-0.050
1859,-0.050,-0.030
1860,-0.010,-0.070
1861,-0.040,-0.050
1862,-0.010,-0.080
1863,-0.030,-0.050
1864,-0.050,-0.100
1865,-0.020,-0.020
1866,-0.010,-0.100
1867,-0.060,-0.040
1868,-0.080,-0.100
1869,-0.040,-0.090
1870,-0.090,-0.040
1871,-0.060,-0.100
1872,-0.090,-0.120
1873,-0.070,-0.130
1874,-0.070,-0.120
1875,-0.060,-0.100
1876,-0.080,-0.120
1877,-0.100,-0.140
1878,-0.090,-0.100
1879,-0.110,-0.090
1880,-0.010,-0.130
1881,0.030,-0.090
1882,0.050,-0.040
1883,0.110,-0.040
1884,0.130,0.090
1885,0.210,0.010
1886,0.210,0.030
1887,0.180,0.010
1888,0.210,-0.030
1889,0.300,-0.010
1890,0.160,0.040
1891,-0.040,-0.060
1892,-0.150,-0.140
1893,-0.180,-0.170
1894,-0.170,-0.210
1895,-0.240,-0.190
1896,-0.220,-0.200
1897,-0.260,-0.260
1898,-0.250,-0.250
1899,-0.270,-0.210
1900,-0.280,-0.250
1901,-0.270,-0.240
1902,-0.260,-0.250
1903,-0.270,-0.210
1904,-0.260,-0.190
1905,-0.500,-0.190
1906,-0.800,-0.160
1907,0.350,0.430
1908,1.730,1.040
1909,2.590,0.300
1910,2.400,-0.710
1911,-0.210,-2.190
1912,0.150,-2.350
1913,-0.060,-1.270
1914,-0.180,-0.490
1915,-0.210,-0.210
1916,-0.230,-0.110
1917,-0.260,-0.080
1918,-0.240,-0.070
1919,-0.230,-0.070
1920,-0.210,-0.010
1921,-0.240,-0.020
1922,-0.210,0.060
1923,-0.230,0.010
1924,-0.230,0.070
1925,-0.210,0.040
1926,-0.260,0.060
1927,-0.230,0.050
1928,-0.230,0.090
1929,-0.220,0.070
1930,-0.200,0.100
1931,-0.160,0.140
1932,-0.130,0.140
1933,-0.140,0.180
1934,-0.110,0.150
1935,-0.090,0.210
1936,0.030,0.320
1937,-0.100,0.270
1938,-0.030,0.320
1939,0.080,0.390
1940,0.060,0.390
1941,0.170,0.470
1942,0.240,0.450
1943,0.270,0.550
1944,0.320,0.580
1945,0.380,0.600
1946,0.380,0.620
1947,0.490,0.560
1948,0.540,0.560
1949,0.500,0.510
1950,0.440,0.430
1951,0.400,0.340
1952,0.410,0.230
1953,0.250,0.150
1954,0.210,0.040
1955,0.170,0.040
1956,0.100,-0.070
1957,0.030,-0.070
1958,0.080,-0.110
1959,-0.020,-0.110
1960,-0.080,-0.140
1961,-0.030,-0.200
1962,-0.020,-0.150
1963,-0.090,-0.140
1964,-0.090,-0.180
1965,-0.050,-0.140
1966,-0.090,-0.200
1967,-0.110,-0.190
1968,-0.110,-0.170
1969,-0.090,-0.170
1970,-0.100,-0.110
1971,-0.100,-0.160
1972,-0.170,-0.140
1973,-0.180,-0.190
1974,-0.120,-0.200
1975,-0.110,-0.080
1976,-0.170,-0.170
1977,-0.110,-0.140
1978,-0.100,-0.140
1979,-0.150,-0.100
1980,-0.100,-0.150
1981,-0.100,-0.130
1982,-0.130,-0.170
1983,-0.120,-0.150
1984,-0.160,-0.150
1985,-0.190,-0.170
1986,-0.210,-0.150
1987,-0.200,-0.170
1988,-0.210,-0.170
1989,-0.160,-0.210
1990,-0.190,-0.180
1991,-0.240,-0.190
1992,-0.250,-0.220
1993,-0.240,-0.180
1994,-0.240,-0.220
1995,-0.330,-0.260
1996,-0.280,-0.230
1997,-0.320,-0.270
1998,-0.270,-0.300
1999,-0.280,-0.210
2000,-0.240,-0.220
2001,-0.300,-0.250
2002,-0.290,-0.280
2003,-0.240,-0.270
2004,-0.210,-0.260
2005,-0.130,-0.220
2006,-0.120,-0.200
2007,-0.110,-0.140
2008,-0.040,-0.150
2009,0.030,-0.130
2010,-0.030,-0.100
2011,0.020,-0.200
2012,0.090,-0.190
2013,0.000,-0.190
2014,-0.130,-0.180
2015,-0.320,-0.190
2016,-0.370,-0.350
2017,-0.410,-0.340
2018,-0.490,-0.350
2019,-0.490,-0.370
2020,-0.500,-0.390
2021,-0.560,-0.420
2022,-0.470,-0.410
2023,-0.510,-0.430
2024,-0.530,-0.420
2025,-0.540,-0.420
2026,-0.530,-0.400
2027,-0.520,-0.380
2028,-0.490,-0.330
2029,-0.770,-0.430
2030,-0.810,-0.260
2031,0.390,0.320
2032,1.690,0.870
2033,2.510,-0.010
2034,1.640,-0.960
2035,-0.530,-2.040
2036,-0.340,-2.440
2037,-0.360,-1.270
2038,-0.440,-0.610
2039,-0.420,-0.380
2040,-0.530,-0.310
2041,-0.560,-0.340
2042,-0.450,-0.260
2043,-0.510,-0.210
2044,-0.490,-0.200
2045,-0.510,-0.190
2046,-0.470,-0.220
2047,-0.510,-0.180
2048,-0.470,-0.160
2049,-0.490,-0.160
2050,-0.450,-0.150
2051,-0.490,-0.150
2052,-0.430,-0.130
2053,-0.460,-0.090
2054,-0.430,-0.110
2055,-0.430,-0.080
2056,-0.390,-0.060
2057,-0.370,0.000
2058,-0.340,-0.040
2059,-0.340,0.070
2060,-0.280,0.070
2061,-0.260,0.090
2062,-0.200,0.150
2063,-0.200,0.120
2064,-0.160,0.220
2065,-0.100,0.210
2066,-0.050,0.250
2067,0.030,0.290
2068,0.090,0.300
2069,0.120,0.330
2070,0.160,0.350
2071,0.180,0.330
2072,0.220,0.340
2073,0.220,0.250
2074,0.100,0.210
2075,0.090,0.110
2076,-0.010,0.040
2077,-0.030,-0.040
2078,-0.180,-0.150
2079,-0.150,-0.230
2080,-0.210,-0.160
2081,-0.280,-0.250
2082,-0.320,-0.200
2083,-0.330,-0.340
2084,-0.380,-0.240
2085,-0.380,-0.300
2086,-0.380,-0.260
2087,-0.450,-0.310
2088,-0.350,-0.310
2089,-0.410,-0.280
2090,-0.430,-0.250
2091,-0.380,-0.310
2092,-0.480,-0.240
2093,-0.390,-0.260
2094,-0.460,-0.270
2095,-0.350,-0.230
2096,-0.350,-0.210
2097,-0.440,-0.230
2098,-0.290,-0.270
2099,-0.400,-0.220
2100,-0.360,-0.230
2101,-0.370,-0.210
2102,-0.280,-0.250
2103,-0.290,-0.200
2104,-0.320,-0.250
2105,-0.310,-0.250
2106,-0.270,-0.230
2107,-0.300,-0.210
2108,-0.290,-0.300
2109,-0.400,-0.240
2110,-0.370,-0.320
2111,-0.370,-0.290
2112,-0.290,-0.290
2113,-0.380,-0.300
2114,-0.420,-0.340
2115,-0.370,-0.350
2116,-0.360,-0.350
2117,-0.420,-0.270
2118,-0.400,-0.330
2119,-0.480,-0.250
2120,-0.430,-0.380
2121,-0.430,-0.320
2122,-0.400,-0.300
2123,-0.340,-0.280
2124,-0.280,-0.280
2125,-0.150,-0.220
2126,-0.140,-0.190
2127,-0.210,-0.070
2128,0.040,-0.100
2129,-0.110,-0.040
2130,-0.130,-0.110
2131,-0.140,-0.130
2132,-0.070,-0.200
2133,-0.120,-0.090
2134,-0.450,-0.180
2135,-0.400,-0.260
2136,-0.490,-0.300
2137,-0.500,-0.330
2138,-0.520,-0.290
2139,-0.530,-0.260
2140,-0.560,-0.300
2141,-0.570,-0.290
2142,-0.690,-0.340
2143,-0.570,-0.360
2144,-0.610,-0.330
2145,-0.640,-0.340
2146,-0.580,-0.350
2147,-0.570,-0.310
2148,-0.600,-0.400
2149,-1.070,-0.260
2150,-0.100,0.130
2151,1.150,0.640
2152,2.290,0.540
2153,2.380,-0.080
2154,-0.420,-1.660
2155,-0.450,-1.870
2156,-0.330,-1.690
2157,-0.460,-0.770
2158,-0.410,-0.390
2159,-0.480,-0.250
2160,-0.500,-0.160
2161,-0.510,-0.280
2162,-0.510,-0.210
2163,-0.550,-0.150
2164,-0.500,-0.130
2165,-0.460,-0.160
2166,-0.500,-0.140
2167,-0.540,-0.070
2168,-0.530,-0.190
2169,-0.550,-0.100
2170,-0.490,-0.120
2171,-0.520,-0.140
2172,-0.470,-0.110
2173,-0.430,-0.030
2174,-0.440,0.060
2175,-0.410,-0.040
2176,-0.470,0.010
2177,-0.440,0.050
2178,-0.380,0.010
2179,-0.330,0.110
2180,-0.280,0.100
2181,-0.300,0.180
2182,-0.160,0.210
2183,-0.150,0.130
2184,-0.120,0.320
2185,-0.060,0.280
2186,0.010,0.380
2187,0.050,0.380
2188,0.100,0.400
2189,0.160,0.420
2190,0.100,0.440
2191,0.190,0.340
2192,0.200,0.340
2193,0.190,0.230
2194,0.130,0.230
2195,0.030,0.100
2196,-0.030,0.040
2197,-0.030,-0.090
2198,-0.210,-0.020
2199,-0.200,-0.060
2200,-0.270,-0.200
2201,-0.340,-0.190
2202,-0.300,-0.240
2203,-0.290,-0.190
2204,-0.270,-0.230
2205,-0.280,-0.210
2206,-0.280,-0.120
2207,-0.300,-0.160
2208,-0.320,-0.170
2209,-0.330,-0.140
2210,-0.310,-0.170
2211,-0.420,-0.120
2212,-0.320,-0.210
2213,-0.360,-0.170
2214,-0.260,-0.120
2215,-0.320,-0.110
2216,-0.280,-0.140
2217,-0.250,-0.090
2218,-0.140,-0.120
2219,-0.370,-0.030
2220,-0.240,-0.080
2221,-0.200,-0.090
2222,-0.230,-0.050
2223,-0.260,-0.030
2224,-0.210,-0.080
2225,-0.220,-0.110
2226,-0.220,-0.070
2227,-0.180,-0.120
2228,-0.200,-0.060
2229,-0.260,-0.100
2230,-0.210,-0.070
2231,-0.220,-0.110
2232,-0.240,-0.060
2233,-0.300,-0.100
2234,-0.290,-0.110
2235,-0.320,-0.110
2236,-0.300,-0.160
2237,-0.290,-0.160
2238,-0.280,-0.130
2239,-0.220,-0.160
2240,-0.280,-0.100
2241,-0.270,-0.180
2242,-0.300,-0.110
2243,-0.190,-0.150
2244,-0.100,-0.110
2245,-0.100,-0.010
2246,-0.110,0.000
2247,-0.080,0.000
2248,0.050,0.050
2249,0.010,0.090
2250,0.090,0.020
2251,0.120,-0.030
2252,0.080,0.040
2253,-0.020,0.010
2254,-0.150,0.010
2255,-0.230,-0.070
2256,-0.370,-0.120
2257,-0.340,-0.200
2258,-0.370,-0.090
2259,-0.380,-0.190
2260,-0.340,-0.160
2261,-0.400,-0.150
2262,-0.350,-0.220
2263,-0.350,-0.190
2264,-0.390,-0.200
2265,-0.380,-0.180
2266,-0.280,-0.220
2267,-0.310,-0.180
2268,-0.470,-0.210
2269,-0.960,-0.140
2270,-0.010,0.180
2271,1.300,0.700
2272,2.380,0.600
2273,2.660,-0.150
2274,0.050,-1.590
2275,0.060,-1.680
2276,0.030,-1.490
2277,-0.080,-0.540
2278,-0.230,-0.180
2279,-0.270,-0.120
2280,-0.260,-0.060
2281,-0.280,-0.090
2282,-0.290,-0.040
2283,-0.290,-0.010
2284,-0.310,-0.030
2285,-0.230,-0.020
2286,-0.250,0.060
2287,-0.220,0.000
2288,-0.240,0.070
2289,-0.240,0.060
2290,-0.230,0.070
2291,-0.190,0.100
2292,-0.190,0.120
2293,-0.200,0.110
2294,-0.210,0.120
2295,-0.110,0.140
2296,-0.100,0.190
2297,-0.110,0.200
2298,-0.090,0.130
2299,-0.050,0.300
2300,0.030,0.340
2301,0.030,0.390
2302,0.060,0.410
2303,0.120,0.480
2304,0.150,0.540
2305,0.250,0.570
2306,0.300,0.590
2307,0.350,0.640
2308,0.390,0.670
2309,0.430,0.620
2310,0.470,0.700
2311,0.510,0.600
2312,0.500,0.590
2313,0.490,0.530
2314,0.420,0.480
2315,0.380,0.360
2316,0.300,0.300
2317,0.250,0.210
2318,0.230,0.170
2319,0.150,0.130
2320,0.090,0.120
2321,0.120,0.040
2322,0.050,0.080
2323,0.090,0.110
2324,0.050,0.100
2325,0.080,0.050
2326,0.020,0.100
2327,0.060,0.070
2328,0.050,0.120
2329,0.060,0.110
2330,0.030,0.100
2331,0.100,0.110
2332,0.060,0.170
2333,0.050,0.160
2334,0.070,0.130
2335,0.020,0.150
2336,0.040,0.150
2337,0.060,0.160
2338,0.080,0.140
2339,0.100,0.190
2340,0.100,0.190
2341,0.150,0.160
2342,0.130,0.210
2343,0.160,0.230
2344,0.140,0.230
2345,0.150,0.230
2346,0.170,0.200
2347,0.130,0.230
2348,0.140,0.200
2349,0.140,0.200
2350,0.130,0.200
2351,0.130,0.160
2352,0.130,0.150
2353,0.130,0.150
2354,0.130,0.200
2355,0.130,0.130
2356,0.120,0.150
2357,0.120,0.170
2358,0.080,0.150
2359,0.090,0.110
2360,0.080,0.120
2361,0.100,0.090
2362,0.110,0.090
2363,0.070,0.090
2364,0.120,0.050
2365,0.110,0.070
2366,0.120,0.090
2367,0.110,0.080
2368,0.180,0.080
2369,0.250,0.120
2370,0.260,0.160
2371,0.330,0.200
2372,0.340,0.210
2373,0.370,0.220
2374,0.390,0.230
2375,0.390,0.130
2376,0.460,0.110
2377,0.380,0.180
2378,0.290,0.180
2379,0.150,0.120
2380,0.060,0.040
2381,0.020,0.000
2382,-0.020,-0.040
2383,-0.060,-0.050
2384,-0.050,-0.090
2385,-0.050,-0.090
2386,-0.080,-0.080
2387,-0.030,-0.100
2388,-0.080,-0.060
2389,-0.090,-0.080
2390,-0.090,-0.060
2391,-0.090,-0.060
2392,-0.110,-0.050
2393,-0.470,-0.020
2394,-0.340,0.090
2395,0.730,0.610
2396,1.970,1.130
2397,2.730,0.240
2398,2.030,-0.710
2399,0.010,-1.530
2400,0.250,-2.120
2401,0.060,-0.930
2402,0.000,-0.360
2403,-0.020,-0.080
2404,-0.120,-0.020
2405,-0.100,-0.020
2406,-0.110,0.010
2407,-0.090,0.030
2408,-0.090,0.060
2409,-0.090,0.090
2410,-0.080,0.050
2411,-0.050,0.120
2412,-0.060,0.080
2413,-0.080,0.120
2414,-0.070,0.160
2415,-0.040,0.170
2416,-0.050,0.170
2417,-0.060,0.190
2418,-0.040,0.250
2419,-0.020,0.250
2420,0.000,0.290
2421,0.040,0.290
2422,0.100,0.330
2423,0.090,0.350
2424,0.080,0.390
2425,0.130,0.380
2426,0.200,0.430
2427,0.230,0.480
2428,0.240,0.500
2429,0.320,0.490
2430,0.400,0.520
2431,0.470,0.610
2432,0.490,0.580
2433,0.560,0.590
2434,0.600,0.640
2435,0.630,0.600
2436,0.630,0.600
2437,0.640,0.570
2438,0.540,0.500
2439,0.500,0.420
2440,0.420,0.310
2441,0.350,0.230
2442,0.270,0.180
2443,0.190,0.110
2444,0.180,0.090
2445,0.130,0.060
2446,0.080,0.060
2447,0.100,0.040
2448,0.100,0.040
2449,0.090,0.040
2450,0.060,0.060
2451,0.070,0.050
2452,0.040,0.030
2453,0.030,0.050
2454,0.030,0.010
2455,0.030,0.020
2456,0.060,0.020
2457,0.060,0.070
2458,0.030,0.070
2459,0.060,0.060
2460,0.050,0.090
2461,0.030,0.070
2462,0.050,0.060
2463,0.030,0.080
2464,0.040,0.070
2465,0.090,0.100
2466,0.070,0.080
2467,0.090,0.080
2468,0.010,0.040
2469,0.060,0.040
2470,0.020,0.090
2471,0.040,0.030
2472,0.020,0.080
2473,-0.010,0.060
2474,-0.020,0.020
2475,-0.040,0.010
2476,-0.010,0.000
2477,-0.070,0.000
2478,-0.020,-0.020
2479,-0.070,-0.050
2480,-0.050,0.000
2481,-0.070,-0.010
2482,-0.090,-0.020
2483,-0.100,-0.030
2484,-0.090,-0.030
2485,-0.150,0.010
2486,-0.110,-0.060
2487,-0.120,-0.020
2488,-0.150,-0.070
2489,-0.150,-0.030
2490,-0.120,-0.040
2491,-0.090,-0.050
2492,-0.100,-0.040
2493,-0.030,-0.040
2494,0.060,0.010
2495,0.050,0.070
2496,0.080,0.090
2497,0.110,0.120
2498,0.180,0.090
2499,0.150,0.150
2500,0.140,0.090
2501,0.190,0.060
2502,0.210,0.060
2503,0.100,0.100
2504,-0.040,0.040
2505,-0.150,-0.010
2506,-0.170,0.000
2507,-0.200,-0.090
2508,-0.210,-0.080
2509,-0.220,-0.080
2510,-0.240,-0.120
2511,-0.240,-0.140
2512,-0.270,-0.110
2513,-0.190,-0.140
2514,-0.220,-0.100
2515,-0.230,-0.120
2516,-0.240,-0.110
2517,-0.220,-0.080
2518,-0.410,-0.080
2519,-0.730,-0.020
2520,0.360,0.430
2521,1.680,1.060
2522,2.620,0.290
2523,2.050,-0.470
2524,-0.100,-1.690
2525,0.090,-2.180
2526,-0.070,-1.060
2527,-0.140,-0.420
2528,-0.150,-0.140
2529,-0.280,-0.040
2530,-0.280,-0.040
2531,-0.320,-0.020
2532,-0.240,-0.010
2533,-0.350,0.040
2534,-0.280,0.050
2535,-0.270,0.010
2536,-0.230,0.040
2537,-0.260,0.080
2538,-0.240,0.090
2539,-0.280,0.080
2540,-0.210,0.110
2541,-0.210,0.150
2542,-0.210,0.140
2543,-0.260,0.150
2544,-0.200,0.150
2545,-0.120,0.180
2546,-0.160,0.230
2547,-0.110,0.240
2548,-0.100,0.270
2549,-0.040,0.300
2550,-0.030,0.380
2551,0.050,0.410
2552,0.060,0.450
2553,0.160,0.500
2554,0.190,0.520
2555,0.230,0.530
2556,0.280,0.550
2557,0.370,0.610
2558,0.330,0.580
2559,0.410,0.600
2560,0.530,0.580
2561,0.500,0.600
2562,0.490,0.540
2563,0.430,0.480
2564,0.420,0.370
2565,0.300,0.370
2566,0.230,0.210
2567,0.180,0.150
2568,0.110,0.090
2569,0.040,0.020
2570,0.000,0.010
2571,0.010,-0.050
2572,-0.020,-0.030
2573,-0.040,-0.040
2574,-0.050,-0.030
2575,-0.060,0.000
2576,-0.080,-0.050
2577,-0.110,-0.050
2578,-0.100,-0.060
2579,-0.120,-0.060
2580,-0.120,-0.060
2581,-0.110,-0.070
2582,-0.100,-0.060
2583,-0.130,-0.040
2584,-0.110,-0.080
2585,-0.130,-0.020
2586,-0.090,-0.050
2587,-0.120,-0.020
2588,-0.130,-0.030
2589,-0.090,-0.060
2590,-0.120,0.020
2591,-0.090,-0.050
2592,-0.090,-0.050
2593,-0.070,-0.050
2594,-0.130,-0.060
2595,-0.060,-0.010
2596,-0.140,-0.040
2597,-0.140,-0.050
2598,-0.130,-0.060
2599,-0.160,-0.040
2600,-0.190,-0.100
2601,-0.180,-0.090
2602,-0.160,-0.110
2603,-0.190,-0.110
2604,-0.160,-0.060
2605,-0.190,-0.120
2606,-0.220,-0.130
2607,-0.160,-0.120
2608,-0.220,-0.100
2609,-0.170,-0.110
2610,-0.210,-0.100
2611,-0.250,-0.100
2612,-0.230,-0.130
2613,-0.260,-0.090
2614,-0.230,-0.110
2615,-0.230,-0.100
2616,-0.220,-0.100
2617,-0.210,-0.130
2618,-0.190,-0.100
2619,-0.210,-0.080
2620,-0.190,-0.090
2621,-0.100,-0.060
2622,-0.040,-0.030
2623,-0.060,0.000
2624,0.000,0.020
2625,0.040,0.050
2626,0.090,0.070
2627,0.090,0.050
2628,0.090,0.010
2629,0.200,0.000
2630,0.070,0.030
2631,0.010,0.020
2632,-0.170,0.020
2633,-0.230,-0.120
2634,-0.300,-0.120
2635,-0.250,-0.170
2636,-0.300,-0.150
2637,-0.300,-0.170
2638,-0.300,-0.180
2639,-0.290,-0.210
2640,-0.290,-0.200
2641,-0.310,-0.180
2642,-0.290,-0.160
2643,-0.290,-0.190
2644,-0.230,-0.160
2645,-0.330,-0.160
2646,-0.710,-0.150
2647,-0.310,0.010
2648,0.790,0.550
2649,2.010,1.060
2650,2.590,0.140
2651,1.280,-1.040
2652,-0.200,-1.580
2653,-0.170,-2.130
2654,-0.130,-1.000
2655,-0.160,-0.360
2656,-0.180,-0.170
2657,-0.260,-0.110
2658,-0.250,-0.090
2659,-0.260,-0.070
2660,-0.250,-0.050
2661,-0.270,-0.020
2662,-0.190,0.000
2663,-0.210,0.050
2664,-0.240,0.040
2665,-0.210,0.070
2666,-0.200,0.100
2667,-0.200,0.110
2668,-0.230,0.100
2669,-0.200,0.150
2670,-0.150,0.130
2671,-0.180,0.190
2672,-0.140,0.190
2673,-0.130,0.200
2674,-0.090,0.220
2675,-0.080,0.240
2676,-0.030,0.280
2677,0.000,0.310
2678,0.020,0.320
2679,0.060,0.370
2680,0.110,0.390
2681,0.140,0.430
2682,0.220,0.430
2683,0.240,0.470
2684,0.340,0.480
2685,0.370,0.500
2686,0.410,0.530
2687,0.450,0.550
2688,0.460,0.510
2689,0.480,0.520
2690,0.440,0.400
2691,0.410,0.370
2692,0.330,0.270
2693,0.250,0.180
2694,0.220,0.110
2695,0.140,0.050
2696,0.110,-0.020
2697,0.040,-0.060
2698,0.070,-0.050
2699,0.020,-0.060
2700,0.030,-0.080
2701,0.010,-0.050
2702,-0.030,-0.070
2703,-0.010,-0.060
2704,-0.030,-0.070
2705,-0.050,-0.100
2706,-0.070,-0.100
2707,-0.020,-0.090
2708,-0.010,-0.110
2709,-0.030,-0.050
2710,-0.020,-0.100
2711,-0.030,-0.050
2712,0.010,-0.040
2713,-0.030,-0.080
2714,0.020,-0.070
2715,0.020,-0.050
2716,0.010,-0.060
2717,0.050,-0.070
2718,0.050,-0.040
2719,0.070,-0.060
2720,0.100,-0.030
2721,0.100,-0.030
2722,0.090,0.000
2723,0.070,-0.030
2724,0.060,-0.030
2725,0.020,-0.050
2726,0.020,-0.070
2727,0.010,-0.070
2728,0.010,-0.080
2729,0.020,-0.090
2730,0.000,-0.100
2731,0.000,-0.090
2732,-0.020,-0.080
2733,-0.040,-0.090
2734,0.000,-0.080
2735,-0.050,-0.090
2736,-0.050,-0.060
2737,-0.050,-0.100
2738,-0.050,-0.080
2739,-0.050,-0.100
2740,-0.040,-0.080
2741,-0.020,-0.120
2742,-0.010,-0.110
2743,-0.030,-0.100
2744,-0.010,-0.120
2745,0.010,-0.070
2746,-0.040,-0.100
2747,-0.040,-0.100
2748,0.030,-0.120
2749,0.100,-0.090
2750,0.160,-0.030
2751,0.180,0.030
2752,0.220,0.010
2753,0.290,0.060
2754,0.250,0.090
2755,0.240,0.080
2756,0.270,0.040
2757,0.320,0.010
2758,0.200,0.050
2759,0.090,0.020
2760,-0.050,-0.060
2761,-0.080,-0.120
2762,-0.110,-0.120
2763,-0.100,-0.150
2764,-0.100,-0.190
2765,-0.130,-0.150
2766,-0.160,-0.180
2767,-0.140,-0.150
2768,-0.180,-0.160
2769,-0.170,-0.170
2770,-0.200,-0.170
2771,-0.180,-0.170
2772,-0.170,-0.180
2773,-0.160,-0.160
2774,-0.650,-0.140
2775,-0.180,0.010
2776,0.910,0.580
2777,2.140,0.960
2778,2.740,0.040
2779,0.950,-1.200
2780,-0.020,-1.570
2781,0.050,-2.110
2782,-0.020,-0.730
2783,-0.030,-0.380
2784,-0.070,-0.140
2785,-0.120,-0.080
2786,-0.080,-0.070
2787,-0.080,-0.030
2788,-0.070,0.010
2789,-0.100,0.030
2790,-0.060,0.050
2791,-0.060,0.080
2792,-0.100,0.080
2793,-0.080,0.090
2794,-0.080,0.100
2795,-0.070,0.100
2796,-0.060,0.130
2797,-0.040,0.130
2798,-0.050,0.160
2799,0.000,0.180
2800,-0.040,0.190
2801,-0.020,0.220
2802,0.020,0.250
2803,0.050,0.280
2804,0.020,0.300
2805,0.080,0.300
2806,0.090,0.340
2807,0.160,0.400
2808,0.200,0.440
2809,0.300,0.460
2810,0.310,0.530
2811,0.350,0.540
2812,0.420,0.570
2813,0.450,0.610
2814,0.500,0.650
2815,0.500,0.660
2816,0.590,0.630
2817,0.570,0.570
2818,0.570,0.500
2819,0.510,0.470
2820,0.460,0.340
2821,0.400,0.250
2822,0.320,0.180
2823,0.240,0.140
2824,0.230,0.070
2825,0.150,0.020
2826,0.100,0.020
2827,0.100,-0.030
2828,0.100,-0.010
2829,0.090,-0.040
2830,0.090,0.000
2831,0.060,-0.080
2832,0.100,-0.030
2833,0.070,-0.070
2834,0.070,-0.030
2835,0.040,-0.040
2836,0.080,0.000
2837,0.070,-0.010
2838,0.060,-0.030
2839,0.050,-0.050
2840,0.050,-0.030
2841,0.070,-0.040
2842,0.080,-0.060
2843,0.120,-0.030
2844,0.120,-0.050
2845,0.100,-0.030
2846,0.100,-0.030
2847,0.110,0.010
2848,0.120,0.000
2849,0.080,0.000
2850,0.090,-0.020
2851,0.090,-0.050
2852,0.080,-0.030
2853,0.050,-0.050
2854,0.070,-0.060
2855,0.080,-0.070
2856,0.050,-0.060
2857,0.020,-0.060
2858,0.030,-0.050
2859,0.000,-0.040
2860,-0.050,-0.070
2861,-0.020,-0.060
2862,-0.020,-0.080
2863,-0.040,-0.090
2864,-0.030,-0.070
2865,-0.020,-0.060
2866,0.020,-0.130
2867,-0.010,-0.080
2868,-0.010,-0.090
2869,0.000,-0.070
2870,-0.020,-0.080
2871,-0.050,-0.090
2872,-0.020,-0.090
2873,-0.060,-0.090
2874,-0.040,-0.090
2875,-0.030,-0.130
2876,-0.030,-0.110
2877,0.000,-0.110
2878,0.010,-0.110
2879,-0.020,-0.080
2880,0.000,-0.090
2881,0.020,-0.090
2882,0.110,-0.060
2883,0.150,-0.040
2884,0.170,0.040
2885,0.190,0.040
2886,0.270,0.060
2887,0.220,0.070
2888,0.260,0.030
2889,0.300,-0.010
2890,0.290,0.010
2891,0.210,0.020
2892,0.120,0.030
2893,-0.010,-0.030
2894,-0.080,-0.120
2895,-0.120,-0.110
2896,-0.100,-0.190
2897,-0.160,-0.170
2898,-0.160,-0.180
2899,-0.100,-0.160
2900,-0.160,-0.180
2901,-0.130,-0.170
2902,-0.160,-0.140
2903,-0.170,-0.160
2904,-0.120,-0.160
2905,-0.190,-0.140
2906,-0.380,-0.130
2907,-0.640,-0.100
2908,0.370,0.410
2909,1.600,0.960
2910,2.580,0.300
2911,2.360,-0.420
2912,-0.070,-1.780
2913,0.140,-2.070
2914,0.000,-1.170
2915,-0.090,-0.450
2916,-0.110,-0.160
2917,-0.180,-0.070
2918,-0.170,-0.070
2919,-0.210,-0.020
2920,-0.180,-0.020
2921,-0.190,-0.010
2922,-0.130,0.040
2923,-0.170,0.060
2924,-0.170,0.060
2925,-0.160,0.050
2926,-0.140,0.090
2927,-0.170,0.060
2928,-0.170,0.100
2929,-0.170,0.100
2930,-0.130,0.120
2931,-0.130,0.120
2932,-0.120,0.150
2933,-0.080,0.170
2934,-0.040,0.200
2935,-0.050,0.260
2936,0.000,0.280
2937,0.020,0.320
2938,0.090,0.370
2939,0.070,0.380
2940,0.110,0.440
2941,0.160,0.460
2942,0.240,0.510
2943,0.270,0.540
2944,0.350,0.590
2945,0.390,0.600
2946,0.430,0.610
2947,0.500,0.660
2948,0.520,0.650
2949,0.540,0.650
2950,0.540,0.590
2951,0.520,0.530
2952,0.440,0.420
2953,0.390,0.330
2954,0.300,0.250
2955,0.270,0.180
2956,0.230,0.100
2957,0.160,0.050
2958,0.130,0.040
2959,0.100,0.010
2960,0.080,0.000
2961,0.060,-0.040
2962,0.010,-0.010
2963,0.030,-0.090
2964,0.030,-0.060
2965,0.040,-0.070
2966,0.010,-0.080
2967,0.020,-0.090
2968,0.030,-0.120
2969,0.030,-0.030
2970,-0.020,-0.060
2971,0.010,-0.050
2972,0.020,-0.070
2973,0.000,-0.070
2974,-0.010,-0.040
2975,0.010,-0.040
2976,0.000,-0.060
2977,0.030,-0.060
2978,0.040,-0.010
2979,0.070,-0.060
2980,0.070,-0.030
2981,0.050,0.000
2982,0.050,-0.030
2983,0.040,0.020
2984,-0.020,-0.040
2985,0.040,-0.070
2986,0.000,-0.070
2987,-0.020,-0.070
2988,-0.050,-0.090
2989,-0.040,-0.070
2990,-0.010,-0.080
2991,-0.060,-0.080
2992,-0.040,-0.060
2993,-0.060,-0.080
2994,-0.080,-0.070
2995,-0.070,-0.080
2996,-0.080,-0.100
2997,-0.110,-0.120
2998,-0.080,-0.110
2999,-0.100,-0.150
3000,-0.110,-0.120
3001,-0.090,-0.170
3002,-0.070,-0.110
3003,-0.090,-0.130
3004,-0.140,-0.110
3005,-0.060,-0.170
3006,-0.080,-0.130
3007,-0.130,-0.150
3008,-0.130,-0.140
3009,-0.120,-0.140
3010,-0.090,-0.140
3011,-0.070,-0.140
3012,0.040,-0.110
3013,0.100,-0.070
3014,0.070,0.030
3015,0.090,0.020
3016,0.190,0.060
3017,0.150,0.060
3018,0.100,0.010
3019,0.190,-0.030
3020,0.150,0.000
3021,0.070,-0.010
3022,-0.090,-0.030
3023,-0.140,-0.110
3024,-0.190,-0.170
3025,-0.200,-0.200
3026,-0.200,-0.150
3027,-0.240,-0.180
3028,-0.220,-0.180
3029,-0.290,-0.200
3030,-0.280,-0.230
3031,-0.270,-0.190
3032,-0.270,-0.230
3033,-0.260,-0.210
3034,-0.250,-0.210
3035,-0.200,-0.200
3036,-0.710,-0.160
3037,-0.340,-0.020
3038,0.700,0.540
3039,2.040,0.930
3040,2.710,-0.020
3041,1.100,-1.130
3042,-0.060,-1.660
3043,0.060,-2.170
3044,-0.110,-0.810
3045,-0.160,-0.390
3046,-0.170,-0.190
3047,-0.210,-0.100
3048,-0.210,-0.060
3049,-0.210,-0.050
3050,-0.200,-0.020
3051,-0.250,0.030
3052,-0.280,0.040
3053,-0.250,0.010
3054,-0.250,0.020
3055,-0.250,0.040
3056,-0.240,0.040
3057,-0.220,0.050
3058,-0.210,0.060
3059,-0.220,0.100
3060,-0.180,0.140
3061,-0.190,0.110
3062,-0.190,0.160
3063,-0.170,0.170
3064,-0.170,0.190
3065,-0.110,0.220
3066,-0.090,0.260
3067,-0.060,0.290
3068,-0.010,0.300
3069,0.070,0.340
3070,0.100,0.420
3071,0.140,0.470
3072,0.200,0.500
3073,0.240,0.530
3074,0.310,0.570
3075,0.320,0.600
3076,0.380,0.590
3077,0.430,0.580
3078,0.470,0.610
3079,0.470,0.580
3080,0.510,0.520
3081,0.430,0.480
3082,0.400,0.340
3083,0.330,0.310
3084,0.250,0.220
3085,0.180,0.120
3086,0.070,0.090
3087,0.080,0.020
3088,0.020,-0.040
3089,-0.050,-0.050
3090,-0.020,-0.080
3091,-0.020,-0.090
3092,-0.030,-0.090
3093,-0.040,-0.080
3094,-0.030,-0.080
3095,-0.040,-0.060
3096,-0.040,-0.100
3097,-0.120,-0.080
3098,-0.080,-0.110
3099,-0.080,-0.100
3100,-0.090,-0.080
3101,-0.090,-0.080
3102,-0.070,-0.060
3103,-0.070,-0.100
3104,-0.080,-0.050
3105,-0.080,-0.040
3106,-0.090,-0.030
3107,-0.070,-0.040
3108,-0.110,-0.020
3109,-0.070,-0.060
3110,-0.080,-0.040
3111,-0.060,-0.050
3112,-0.090,-0.100
3113,-0.090,-0.070
3114,-0.060,-0.120
3115,-0.080,-0.090
3116,-0.090,-0.090
3117,-0.110,-0.090
3118,-0.110,-0.110
3119,-0.140,-0.140
3120,-0.170,-0.120
3121,-0.150,-0.180
3122,-0.140,-0.160
3123,-0.180,-0.180
3124,-0.170,-0.170
3125,-0.180,-0.180
3126,-0.160,-0.170
3127,-0.160,-0.180
3128,-0.220,-0.170
3129,-0.170,-0.190
3130,-0.180,-0.170
3131,-0.240,-0.160
3132,-0.240,-0.190
3133,-0.210,-0.180
3134,-0.240,-0.210
3135,-0.230,-0.170
3136,-0.210,-0.200
3137,-0.190,-0.150
3138,-0.200,-0.150
3139,-0.230,-0.150
3140,-0.190,-0.120
3141,-0.150,-0.140
3142,-0.080,-0.110
3143,-0.040,-0.050
3144,0.010,-0.030
3145,0.010,-0.020
3146,0.110,0.000
3147,0.070,0.020
3148,0.090,-0.020
3149,0.150,-0.020
3150,0.170,-0.060
3151,0.040,-0.010
3152,-0.070,-0.070
3153,-0.220,-0.110
3154,-0.250,-0.210
3155,-0.260,-0.260
3156,-0.310,-0.250
3157,-0.280,-0.270
3158,-0.310,-0.260
3159,-0.310,-0.300
3160,-0.310,-0.260
3161,-0.320,-0.280
3162,-0.340,-0.280
3163,-0.320,-0.260
3164,-0.340,-0.260
3165,-0.330,-0.260
3166,-0.620,-0.230
3167,-0.740,-0.190
3168,0.310,0.340
3169,1.620,0.940
3170,2.570,0.090
3171,1.780,-0.800
3172,-0.180,-1.910
3173,-0.020,-2.330
3174,-0.200,-1.060
3175,-0.270,-0.510
3176,-0.310,-0.270
3177,-0.330,-0.190
3178,-0.350,-0.150
3179,-0.370,-0.130
3180,-0.370,-0.120
3181,-0.340,-0.090
3182,-0.310,-0.030
3183,-0.340,-0.010
3184,-0.330,-0.020
3185,-0.320,0.000
3186,-0.300,0.040
3187,-0.330,0.010
3188,-0.270,0.040
3189,-0.290,0.050
3190,-0.270,0.050
3191,-0.240,0.070
3192,-0.250,0.110
3193,-0.170,0.110
3194,-0.220,0.140
3195,-0.170,0.180
3196,-0.190,0.210
3197,-0.110,0.260
3198,-0.130,0.270
3199,-0.030,0.310
3200,-0.040,0.380
3201,0.010,0.400
3202,0.070,0.460
3203,0.130,0.500
3204,0.220,0.520
3205,0.270,0.580
3206,0.280,0.610
3207,0.330,0.610
3208,0.380,0.650
3209,0.370,0.630
3210,0.390,0.570
3211,0.320,0.500
3212,0.250,0.410
3213,0.180,0.300
3214,0.130,0.200
3215,0.100,0.120
3216,0.010,0.040
3217,-0.040,0.020
3218,-0.060,-0.040
3219,-0.150,-0.060
3220,-0.110,-0.100
3221,-0.190,-0.130
3222,-0.190,-0.130
3223,-0.140,-0.150
3224,-0.180,-0.130
3225,-0.200,-0.170
3226,-0.140,-0.170
3227,-0.180,-0.150
3228,-0.190,-0.160
3229,-0.200,-0.130
3230,-0.220,-0.120
3231,-0.190,-0.110
3232,-0.210,-0.150
3233,-0.170,-0.100
3234,-0.210,-0.150
3235,-0.180,-0.100
3236,-0.170,-0.140
3237,-0.130,-0.090
3238,-0.200,-0.120
3239,-0.140,-0.080
3240,-0.110,-0.070
3241,-0.140,-0.110
3242,-0.100,-0.060
3243,-0.150,-0.070
3244,-0.160,-0.100
3245,-0.150,-0.120
3246,-0.150,-0.120
3247,-0.220,-0.130
3248,-0.200,-0.170
3249,-0.170,-0.140
3250,-0.190,-0.180
3251,-0.200,-0.140
3252,-0.180,-0.160
3253,-0.220,-0.140
3254,-0.240,-0.190
3255,-0.250,-0.160
3256,-0.240,-0.230
3257,-0.250,-0.190
3258,-0.240,-0.200
3259,-0.250,-0.200
3260,-0.250,-0.230
3261,-0.180,-0.220
3262,-0.290,-0.190
3263,-0.230,-0.190
3264,-0.210,-0.180
3265,-0.170,-0.170
3266,-0.050,-0.160
3267,-0.070,-0.090
3268,-0.030,-0.070
3269,0.000,-0.020
3270,0.050,-0.050
3271,0.080,-0.020
3272,0.040,-0.030
3273,0.110,-0.090
3274,0.080,-0.080
3275,-0.040,-0.060
3276,-0.180,-0.100
3277,-0.310,-0.180
3278,-0.300,-0.240
3279,-0.300,-0.260
3280,-0.350,-0.250
3281,-0.320,-0.290
3282,-0.360,-0.260
3283,-0.310,-0.300
3284,-0.370,-0.300
3285,-0.340,-0.270
3286,-0.400,-0.250
3287,-0.320,-0.260
3288,-0.380,-0.240
3289,-0.430,-0.260
3290,-0.960,-0.250
3291,-0.250,0.010
3292,0.960,0.650
3293,2.260,0.720
3294,2.690,-0.180
3295,0.170,-1.610
3296,-0.060,-1.920
3297,-0.060,-1.770
3298,-0.260,-0.620
3299,-0.260,-0.320
3300,-0.340,-0.180
3301,-0.360,-0.110
3302,-0.370,-0.130
3303,-0.330,-0.070
3304,-0.400,-0.030
3305,-0.320,-0.030
3306,-0.340,0.000
3307,-0.350,0.000
3308,-0.340,0.020
3309,-0.290,0.010
3310,-0.340,0.040
3311,-0.320,0.030
3312,-0.320,0.050
3313,-0.280,0.030
3314,-0.290,0.080
3315,-0.300,0.100
3316,-0.200,0.070
3317,-0.190,0.130
3318,-0.200,0.150
3319,-0.150,0.190
3320,-0.140,0.200
3321,-0.090,0.240
3322,-0.080,0.290
3323,-0.020,0.330
3324,0.020,0.370
3325,0.090,0.400
3326,0.150,0.440
3327,0.200,0.470
3328,0.260,0.480
3329,0.320,0.540
3330,0.320,0.560
3331,0.390,0.570
3332,0.410,0.560
3333,0.390,0.550
3334,0.390,0.480
3335,0.330,0.400
3336,0.240,0.300
3337,0.240,0.230
3338,0.150,0.140
3339,0.110,0.050
3340,0.020,0.020
3341,-0.040,-0.030
3342,-0.060,-0.070
3343,-0.050,-0.070
3344,-0.130,-0.110
3345,-0.150,-0.110
3346,-0.120,-0.130
3347,-0.160,-0.110
3348,-0.190,-0.120
3349,-0.130,-0.090
3350,-0.140,-0.120
3351,-0.120,-0.100
3352,-0.150,-0.070
3353,-0.140,-0.080
3354,-0.120,-0.100
3355,-0.150,-0.080
3356,-0.140,-0.070
3357,-0.150,-0.080
3358,-0.110,-0.040
3359,-0.110,-0.080
3360,-0.070,-0.050
3361,-0.060,-0.070
3362,-0.040,-0.030
3363,-0.070,-0.040
3364,-0.040,-0.010
3365,-0.040,-0.030
3366,-0.060,-0.030
3367,-0.060,-0.040
3368,-0.060,-0.050
3369,-0.080,-0.060
3370,-0.050,-0.080
3371,-0.120,-0.090
3372,-0.070,-0.090
3373,-0.100,-0.110
3374,-0.060,-0.110
3375,-0.110,-0.090
3376,-0.110,-0.090
3377,-0.110,-0.100
3378,-0.150,-0.090
3379,-0.110,-0.120
3380,-0.180,-0.090
3381,-0.130,-0.120
3382,-0.160,-0.140
3383,-0.120,-0.130
3384,-0.140,-0.130
3385,-0.140,-0.110
3386,-0.160,-0.120
3387,-0.170,-0.100
3388,-0.120,-0.100
3389,-0.220,-0.120
3390,-0.180,-0.160
3391,-0.110,-0.120
3392,-0.050,-0.110
3393,0.010,-0.040
3394,0.040,0.000
3395,0.080,0.030
3396,0.120,0.060
3397,0.150,0.110
3398,0.090,0.100
3399,0.150,0.040
3400,0.120,0.040
3401,0.070,0.080
3402,-0.150,-0.010
3403,-0.170,-0.070
3404,-0.240,-0.120
3405,-0.270,-0.150
3406,-0.250,-0.160
3407,-0.260,-0.160
3408,-0.290,-0.180
3409,-0.310,-0.150
3410,-0.300,-0.190
3411,-0.340,-0.150
3412,-0.320,-0.200
3413,-0.360,-0.180
3414,-0.360,-0.170
3415,-0.320,-0.190
3416,-0.650,-0.120
3417,-0.500,-0.050
3418,0.480,0.540
3419,1.780,1.160
3420,2.620,0.280
3421,1.680,-0.600
3422,-0.160,-1.490
3423,-0.270,-2.130
3424,-0.180,-1.070
3425,-0.260,-0.380
3426,-0.230,-0.180
3427,-0.290,-0.100
3428,-0.270,-0.070
3429,-0.300,-0.030
3430,-0.320,0.010
3431,-0.270,-0.010
3432,-0.260,0.030
3433,-0.340,0.040
3434,-0.340,0.020
3435,-0.260,0.020
3436,-0.290,0.080
3437,-0.280,0.030
3438,-0.290,0.030
3439,-0.230,0.040
3440,-0.250,0.070
3441,-0.260,0.090
3442,-0.190,0.120
3443,-0.200,0.130
3444,-0.210,0.150
3445,-0.210,0.150
3446,-0.180,0.180
3447,-0.120,0.200
3448,-0.110,0.240
3449,-0.050,0.270
3450,0.030,0.300
3451,0.020,0.350
3452,0.110,0.390
3453,0.140,0.470
3454,0.190,0.470
3455,0.240,0.480
3456,0.260,0.500
3457,0.290,0.520
3458,0.350,0.540
3459,0.340,0.480
3460,0.340,0.460
3461,0.310,0.370
3462,0.250,0.330
3463,0.140,0.230
3464,0.080,0.160
3465,0.030,0.090
3466,0.000,0.060
3467,-0.120,0.010
3468,-0.120,-0.030
3469,-0.150,-0.060
3470,-0.150,-0.080
3471,-0.160,-0.090
3472,-0.150,-0.060
3473,-0.160,-0.110
3474,-0.150,-0.090
3475,-0.230,-0.070
3476,-0.180,-0.080
3477,-0.220,-0.070
3478,-0.190,-0.060
3479,-0.250,-0.060
3480,-0.250,-0.090
3481,-0.210,-0.070
3482,-0.240,-0.080
3483,-0.160,-0.070
3484,-0.150,-0.060
3485,-0.150,-0.050
3486,-0.120,-0.050
3487,-0.170,-0.020
3488,-0.140,-0.020
3489,-0.130,-0.030
3490,-0.150,-0.050
3491,-0.150,-0.030
3492,-0.150,-0.070
3493,-0.140,-0.060
3494,-0.140,-0.060
3495,-0.150,-0.070
3496,-0.100,-0.080
3497,-0.170,-0.050
3498,-0.200,-0.060
3499,-0.130,-0.070
3500,-0.190,-0.050
3501,-0.260,-0.050
3502,-0.220,-0.080
3503,-0.220,-0.070
3504,-0.230,-0.090
3505,-0.220,-0.090
3506,-0.220,-0.100
3507,-0.210,-0.100
3508,-0.240,-0.070
3509,-0.210,-0.080
3510,-0.270,-0.070
3511,-0.240,-0.080
3512,-0.260,-0.080
3513,-0.300,-0.110
3514,-0.250,-0.120
3515,-0.210,-0.100
3516,-0.250,-0.110
3517,-0.240,-0.120
3518,-0.220,-0.100
3519,-0.140,-0.140
3520,-0.110,-0.080
3521,-0.080,0.000
3522,0.000,0.020
3523,0.030,0.060
3524,0.020,0.100
3525,0.040,0.060
3526,0.080,0.090
3527,0.070,0.020
3528,0.130,-0.020
3529,0.080,0.020
3530,-0.030,0.010
3531,-0.190,-0.040
3532,-0.230,-0.120
3533,-0.290,-0.150
3534,-0.260,-0.140
3535,-0.340,-0.140
3536,-0.320,-0.190
3537,-0.350,-0.170
3538,-0.350,-0.210
3539,-0.380,-0.190
3540,-0.340,-0.220
3541,-0.340,-0.210
3542,-0.350,-0.170
3543,-0.360,-0.170
3544,-0.310,-0.140
3545,-0.670,-0.130
3546,-0.650,-0.030
3547,0.460,0.500
3548,1.840,1.130
3549,2.620,0.190
3550,1.320,-0.840
3551,-0.230,-1.510
3552,-0.220,-2.100
3553,-0.280,-0.950
3554,-0.270,-0.380
3555,-0.320,-0.160
3556,-0.350,-0.100
3557,-0.440,-0.070
3558,-0.370,-0.090
3559,-0.400,0.000
3560,-0.400,-0.050
3561,-0.400,-0.010
3562,-0.380,0.000
3563,-0.350,0.020
3564,-0.310,0.050
3565,-0.360,0.050
3566,-0.330,0.070
3567,-0.330,0.080
3568,-0.300,0.120
3569,-0.320,0.110
3570,-0.290,0.110
3571,-0.270,0.150
3572,-0.240,0.140
3573,-0.250,0.170
3574,-0.170,0.210
3575,-0.140,0.240
3576,-0.140,0.260
3577,-0.090,0.300
3578,-0.020,0.370
3579,0.000,0.410
3580,0.010,0.430
3581,0.120,0.460
3582,0.140,0.500
3583,0.210,0.540
3584,0.260,0.550
3585,0.350,0.570
3586,0.360,0.600
3587,0.390,0.610
3588,0.440,0.570
3589,0.400,0.550
3590,0.380,0.470
3591,0.260,0.410
3592,0.240,0.260
3593,0.150,0.200
3594,0.080,0.120
3595,-0.010,0.070
3596,0.000,0.020
3597,-0.050,-0.020
3598,-0.070,-0.010
3599,-0.110,-0.020
3600,-0.090,-0.020
3601,-0.140,-0.020
3602,-0.190,-0.010
3603,-0.170,-0.080
3604,-0.160,-0.030
3605,-0.180,-0.050
3606,-0.160,-0.070
3607,-0.170,-0.060
3608,-0.140,-0.040
3609,-0.160,-0.050
3610,-0.160,-0.010
3611,-0.110,-0.020
3612,-0.110,0.000
3613,-0.200,0.000
3614,-0.130,-0.030
3615,-0.110,-0.040
3616,-0.120,-0.050
3617,-0.120,-0.060
3618,-0.100,-0.040
3619,-0.070,-0.090
3620,-0.080,-0.030
3621,-0.140,-0.040
3622,-0.070,-0.070
3623,-0.090,-0.010
3624,-0.150,-0.060
3625,-0.180,-0.060
3626,-0.160,-0.060
3627,-0.180,-0.100
3628,-0.180,-0.100
3629,-0.220,-0.110
3630,-0.190,-0.110
3631,-0.190,-0.090
3632,-0.220,-0.110
3633,-0.200,-0.100
3634,-0.250,-0.090
3635,-0.190,-0.120
3636,-0.250,-0.100
3637,-0.230,-0.120
3638,-0.280,-0.110
3639,-0.260,-0.140
3640,-0.190,-0.120
3641,-0.230,-0.120
3642,-0.220,-0.140
3643,-0.250,-0.110
3644,-0.220,-0.100
3645,-0.250,-0.130
3646,-0.220,-0.100
3647,-0.250,-0.120
3648,-0.260,-0.120
3649,-0.260,-0.150
3650,-0.260,-0.140
3651,-0.250,-0.140
3652,-0.230,-0.140
3653,-0.250,-0.150
3654,-0.230,-0.140
3655,-0.220,-0.120
3656,-0.260,-0.130
3657,-0.220,-0.130
3658,-0.300,-0.120
3659,-0.230,-0.140
3660,-0.220,-0.150
3661,-0.120,-0.130
3662,-0.020,-0.080
3663,-0.040,-0.020
3664,0.030,0.000
3665,0.060,0.040
3666,0.010,0.040
3667,0.080,0.060
3668,0.050,0.000
3669,0.090,-0.020
3670,0.020,-0.010
3671,-0.040,-0.010
3672,-0.180,-0.060
3673,-0.240,-0.120
3674,-0.310,-0.200
3675,-0.290,-0.200
3676,-0.270,-0.180
3677,-0.310,-0.200
3678,-0.320,-0.190
3679,-0.320,-0.200
3680,-0.350,-0.180
3681,-0.370,-0.210
3682,-0.350,-0.210
3683,-0.370,-0.230
3684,-0.330,-0.210
3685,-0.350,-0.210
3686,-0.740,-0.200
3687,-0.570,-0.010
3688,0.540,0.520
3689,1.930,1.050
3690,2.750,0.120
3691,1.730,-0.880
3692,-0.160,-1.610
3693,0.000,-2.280
3694,-0.180,-0.950
3695,-0.260,-0.420
3696,-0.240,-0.190
3697,-0.310,-0.110
3698,-0.290,-0.100
3699,-0.310,-0.030
3700,-0.330,-0.020
3701,-0.320,0.010
3702,-0.350,0.040
3703,-0.330,0.030
3704,-0.320,0.020
3705,-0.310,0.050
3706,-0.290,0.090
3707,-0.330,0.040
3708,-0.240,0.080
3709,-0.240,0.100
3710,-0.230,0.100
3711,-0.240,0.110
3712,-0.230,0.140
3713,-0.170,0.180
3714,-0.200,0.220
3715,-0.170,0.220
3716,-0.100,0.270
3717,-0.110,0.290
3718,-0.030,0.330
3719,0.030,0.360
3720,0.080,0.430
3721,0.120,0.450
3722,0.210,0.500
3723,0.240,0.570
3724,0.280,0.580
3725,0.340,0.600
3726,0.370,0.640
3727,0.430,0.630
3728,0.480,0.650
3729,0.440,0.600
3730,0.460,0.570
3731,0.510,0.480
3732,0.430,0.440
3733,0.290,0.290
3734,0.270,0.250
3735,0.200,0.160
3736,0.140,0.090
3737,0.030,0.070
3738,0.030,-0.010
3739,-0.020,-0.030
3740,0.010,-0.040
3741,-0.020,-0.080
3742,-0.040,-0.060
3743,-0.040,-0.060
3744,-0.060,-0.080
3745,-0.010,-0.050
3746,-0.090,-0.050
3747,-0.100,-0.070
3748,-0.100,-0.070
3749,-0.140,-0.070
3750,-0.100,-0.080
3751,-0.130,-0.040
3752,-0.090,-0.060
3753,-0.050,-0.070
3754,-0.070,-0.050
3755,-0.080,-0.030
3756,-0.040,-0.030
3757,-0.050,-0.020
3758,-0.050,-0.020
3759,-0.070,-0.030
3760,-0.090,-0.050
3761,-0.070,-0.050
3762,-0.050,-0.060
3763,-0.020,-0.040
3764,-0.070,-0.050
3765,-0.040,-0.050
3766,-0.060,-0.050
3767,-0.070,-0.060
3768,-0.080,-0.080
3769,-0.120,-0.080
3770,-0.120,-0.100
3771,-0.130,-0.120
3772,-0.160,-0.060
3773,-0.100,-0.110
3774,-0.140,-0.120
3775,-0.130,-0.120
3776,-0.130,-0.140
3777,-0.140,-0.100
3778,-0.140,-0.130
3779,-0.170,-0.120
3780,-0.150,-0.150
3781,-0.190,-0.110
3782,-0.140,-0.140
3783,-0.190,-0.140
3784,-0.170,-0.150
3785,-0.170,-0.140
3786,-0.160,-0.170
3787,-0.140,-0.150
3788,-0.150,-0.110
3789,-0.170,-0.140
3790,-0.170,-0.110
3791,-0.180,-0.150
3792,-0.230,-0.140
3793,-0.220,-0.160
3794,-0.140,-0.160
3795,-0.190,-0.140
3796,-0.150,-0.180
3797,-0.170,-0.130
3798,-0.120,-0.210
3799,-0.020,-0.150
3800,-0.010,-0.090
3801,0.000,-0.030
3802,0.080,-0.010
3803,0.070,0.010
3804,0.120,0.020
3805,0.110,0.050
3806,0.120,-0.030
3807,0.160,-0.070
3808,0.150,-0.030
3809,0.070,-0.050
3810,-0.110,-0.020
3811,-0.180,-0.160
3812,-0.220,-0.180
3813,-0.220,-0.210
3814,-0.250,-0.200
3815,-0.310,-0.240
3816,-0.290,-0.240
3817,-0.310,-0.260
3818,-0.300,-0.250
3819,-0.260,-0.280
3820,-0.310,-0.260
3821,-0.290,-0.250
3822,-0.250,-0.270
3823,-0.280,-0.210
3824,-0.650,-0.200
3825,-0.430,-0.010
3826,0.670,0.520
3827,2.010,1.080
3828,2.690,0.070
3829,1.420,-1.040
3830,-0.200,-1.530
3831,-0.120,-2.180
3832,-0.150,-1.000
3833,-0.180,-0.400
3834,-0.230,-0.210
3835,-0.200,-0.120
3836,-0.280,-0.090
3837,-0.270,-0.090
3838,-0.240,-0.080
3839,-0.260,-0.020
3840,-0.260,-0.040
3841,-0.210,-0.030
3842,-0.230,0.000
3843,-0.210,0.030
3844,-0.210,0.030
3845,-0.230,0.060
3846,-0.170,0.050
3847,-0.200,0.080
3848,-0.220,0.090
3849,-0.180,0.100
3850,-0.160,0.110
3851,-0.120,0.140
3852,-0.130,0.150
3853,-0.090,0.180
3854,-0.060,0.240
3855,-0.050,0.260
3856,0.030,0.330
3857,0.030,0.360
3858,0.120,0.400
3859,0.120,0.450
3860,0.170,0.450
3861,0.250,0.510
3862,0.320,0.520
3863,0.350,0.530
3864,0.420,0.550
3865,0.470,0.580
3866,0.490,0.570
3867,0.520,0.560
3868,0.490,0.500
3869,0.470,0.460
3870,0.360,0.310
3871,0.300,0.240
3872,0.230,0.160
3873,0.170,0.050
3874,0.110,0.030
3875,0.040,-0.040
3876,0.050,-0.100
3877,0.020,-0.010
3878,-0.050,-0.120
3879,-0.020,-0.100
3880,-0.030,-0.040
3881,-0.080,-0.080
3882,-0.060,-0.110
3883,-0.080,-0.080
3884,-0.100,-0.140
3885,-0.100,-0.100
3886,-0.090,-0.120
3887,-0.090,-0.050
3888,-0.090,-0.120
3889,-0.100,-0.060
3890,-0.090,-0.080
3891,-0.050,-0.050
3892,-0.120,-0.090
3893,-0.090,-0.070
3894,-0.070,-0.050
3895,0.000,-0.070
3896,-0.060,-0.040
3897,-0.010,-0.060
3898,0.020,-0.050
3899,-0.030,-0.050
3900,0.060,-0.050
3901,0.020,0.000
3902,0.000,-0.030
3903,0.000,-0.020
3904,-0.020,-0.030
3905,-0.040,-0.060
3906,-0.040,-0.080
3907,-0.040,-0.090
3908,-0.040,-0.070
3909,-0.050,-0.110
3910,-0.020,-0.080
3911,-0.070,-0.110
3912,-0.100,-0.080
3913,-0.070,-0.080
3914,-0.100,-0.080
3915,-0.080,-0.110
3916,-0.090,-0.080
3917,-0.120,-0.110
3918,-0.100,-0.100
3919,-0.100,-0.110
3920,-0.110,-0.120
3921,-0.140,-0.110
3922,-0.100,-0.090
3923,-0.140,-0.100
3924,-0.130,-0.070
3925,-0.140,-0.080
3926,-0.150,-0.130
3927,-0.180,-0.100
3928,-0.150,-0.100
3929,-0.130,-0.100
3930,-0.110,-0.080
3931,-0.100,-0.090
3932,-0.090,-0.090
3933,-0.120,-0.070
3934,-0.060,-0.070
3935,0.020,-0.040
3936,0.090,-0.010
3937,0.070,0.040
3938,0.100,0.070
3939,0.160,0.070
3940,0.130,0.100
3941,0.140,0.060
3942,0.190,-0.010
3943,0.240,-0.030
3944,0.170,0.030
3945,0.030,0.010
3946,-0.090,-0.060
3947,-0.160,-0.130
3948,-0.220,-0.160
3949,-0.220,-0.150
3950,-0.220,-0.210
3951,-0.240,-0.170
3952,-0.220,-0.200
3953,-0.240,-0.190
3954,-0.220,-0.200
3955,-0.250,-0.170
3956,-0.220,-0.190
3957,-0.230,-0.180
3958,-0.220,-0.150
3959,-0.320,-0.160
3960,-0.840,-0.160
3961,-0.140,0.220
3962,1.040,0.730
3963,2.280,0.710
3964,2.840,-0.060
3965,0.510,-1.560
3966,-0.030,-1.710
3967,-0.020,-1.720
3968,-0.140,-0.610
3969,-0.150,-0.260
3970,-0.230,-0.140
3971,-0.240,-0.090
3972,-0.270,-0.080
3973,-0.240,-0.010
3974,-0.240,-0.030
3975,-0.230,0.010
3976,-0.210,0.010
3977,-0.200,0.050
3978,-0.190,0.060
3979,-0.180,0.090
3980,-0.190,0.090
3981,-0.190,0.130
3982,-0.180,0.100
3983,-0.160,0.140
3984,-0.160,0.170
3985,-0.150,0.160
3986,-0.120,0.180
3987,-0.070,0.190
3988,-0.060,0.250
3989,-0.060,0.290
3990,-0.020,0.290
3991,0.040,0.360
3992,0.050,0.380
3993,0.080,0.430
3994,0.150,0.460
3995,0.260,0.500
3996,0.250,0.550
3997,0.310,0.580
3998,0.410,0.590
3999,0.440,0.630
4000,0.500,0.660
4001,0.520,0.670
4002,0.580,0.640
4003,0.550,0.650
4004,0.530,0.570
4005,0.470,0.490
4006,0.400,0.400
4007,0.310,0.300
4008,0.270,0.220
4009,0.200,0.170
4010,0.180,0.100
4011,0.050,0.120
4012,0.040,0.060
4013,0.040,0.050
4014,-0.020,0.090
4015,0.010,0.080
4016,-0.110,0.040
4017,-0.080,0.050
4018,-0.040,-0.010
4019,-0.100,0.060
4020,-0.010,-0.010
4021,-0.070,0.040
4022,-0.110,-0.010
4023,-0.080,0.070
4024,-0.120,0.040
4025,-0.090,0.080
4026,-0.140,0.070
4027,-0.100,0.040
4028,-0.150,0.060
4029,-0.130,0.050
4030,-0.080,0.060
4031,-0.070,0.080
4032,-0.060,0.050
4033,-0.070,0.070
4034,-0.060,0.060
4035,-0.060,0.070
4036,-0.080,0.070
4037,-0.040,0.070
4038,-0.160,0.070
4039,-0.090,0.010
4040,-0.110,0.060
4041,-0.100,0.010
4042,-0.150,0.020
4043,-0.090,0.040
4044,-0.110,0.030
4045,-0.140,0.010
4046,-0.120,-0.020
4047,-0.150,0.000
4048,-0.170,-0.010
4049,-0.250,-0.060
4050,-0.170,-0.070
4051,-0.210,-0.020
4052,-0.180,-0.060
4053,-0.170,-0.080
4054,-0.210,-0.110
4055,-0.140,-0.090
4056,-0.170,-0.060
4057,-0.180,-0.090
4058,-0.160,-0.110
4059,-0.220,-0.100
4060,-0.180,-0.110
4061,-0.230,-0.130
4062,-0.200,-0.140
4063,-0.220,-0.150
4064,-0.260,-0.080
4065,-0.210,-0.120
4066,-0.210,-0.060
4067,-0.160,0.020
4068,-0.130,0.040
4069,0.010,0.120
4070,-0.070,0.110
4071,0.050,0.210
4072,0.060,0.130
4073,0.030,0.100
4074,0.050,0.210
4075,0.090,0.030
4076,0.230,0.070
4077,0.050,0.180
4078,-0.030,0.110
4079,-0.150,0.130
4080,-0.290,0.040
4081,-0.210,-0.040
4082,-0.230,-0.010
4083,-0.340,-0.010
4084,-0.380,-0.060
4085,-0.350,-0.030
4086,-0.260,-0.100
4087,-0.390,-0.050
4088,-0.280,-0.100
4089,-0.280,-0.180
4090,-0.380,-0.110
4091,-0.230,-0.130
4092,-0.380,-0.070
4093,-0.850,-0.060
4094,-0.290,0.120
4095,0.860,0.710
4096,2.150,0.740
4097,2.770,-0.120
4098,0.300,-1.550
4099,-0.150,-1.810
4100,0.000,-1.760
4101,-0.230,-0.630
4102,-0.260,-0.230
4103,-0.330,-0.090
4104,-0.370,-0.040
4105,-0.360,0.000
4106,-0.360,0.000
4107,-0.380,0.010
4108,-0.380,-0.020
4109,-0.320,0.050
4110,-0.340,0.060
4111,-0.380,0.030
4112,-0.300,0.060
4113,-0.330,0.090
4114,-0.290,0.140
4115,-0.290,0.150
4116,-0.340,0.160
4117,-0.320,0.110
4118,-0.260,0.240
4119,-0.270,0.250
4120,-0.270,0.250
4121,-0.190,0.160
4122,-0.230,0.330
4123,-0.190,0.290
4124,-0.070,0.310
4125,-0.050,0.370
4126,-0.040,0.420
4127,0.090,0.510
4128,0.080,0.550
4129,0.170,0.540
4130,0.190,0.630
4131,0.340,0.590
4132,0.340,0.620
4133,0.380,0.590
4134,0.480,0.620
4135,0.490,0.620
4136,0.480,0.650
4137,0.410,0.560
4138,0.410,0.450
4139,0.320,0.340
4140,0.280,0.300
4141,0.140,0.190
4142,0.130,0.140
4143,0.060,0.090
4144,-0.010,0.060
4145,0.040,0.050
4146,-0.040,-0.020
4147,-0.070,0.050
4148,-0.070,-0.040
4149,-0.050,-0.010
4150,-0.140,-0.080
4151,-0.130,0.030
4152,-0.090,-0.070
4153,-0.100,0.010
4154,-0.080,-0.060
4155,-0.120,-0.040
4156,-0.100,-0.040
4157,-0.060,-0.010
4158,-0.140,0.010
4159,-0.130,-0.030
4160,-0.070,0.030
4161,-0.070,-0.040
4162,-0.100,0.020
4163,-0.060,-0.050
4164,-0.090,0.060
4165,-0.080,0.040
4166,-0.070,-0.070
4167,0.030,-0.100
4168,0.000,0.030
4169,0.010,-0.070
4170,0.040,0.010
4171,-0.050,-0.060
4172,0.070,-0.090
4173,-0.020,-0.030
4174,0.010,-0.070
4175,-0.020,-0.120
4176,0.000,-0.090
4177,-0.060,-0.140
4178,-0.030,-0.140
4179,0.010,-0.160
4180,-0.030,-0.210
4181,0.070,-0.180
4182,-0.050,-0.130
4183,-0.020,-0.240
4184,-0.070,-0.190
4185,-0.110,-0.250
4186,-0.030,-0.160
4187,-0.100,-0.200
4188,-0.120,-0.190
4189,-0.050,-0.270
4190,-0.030,-0.160
4191,-0.060,-0.210
4192,0.000,-0.150
4193,-0.090,-0.190
4194,0.100,-0.070
4195,0.150,-0.160
4196,0.090,-0.040
4197,0.140,-0.100
4198,0.150,0.000
4199,0.230,-0.050
4200,0.230,-0.060
4201,0.170,-0.080
4202,0.310,-0.160
4203,0.250,-0.100
4204,0.170,-0.120
4205,-0.010,-0.100
4206,-0.030,-0.220
4207,-0.170,-0.270
4208,-0.210,-0.310
4209,-0.210,-0.320
4210,-0.190,-0.270
4211,-0.220,-0.280
4212,-0.270,-0.300
4213,-0.250,-0.350
4214,-0.220,-0.250
4215,-0.200,-0.270
4216,-0.230,-0.330
4217,-0.140,-0.290
4218,-0.310,-0.350
4219,-0.760,-0.410
4220,-0.220,0.010
4221,0.880,0.490
4222,2.220,0.750
4223,2.790,-0.120
4224,0.780,-1.480
4225,-0.120,-1.780
4226,0.060,-1.980
4227,-0.090,-0.760
4228,-0.210,-0.500
4229,-0.110,-0.260
4230,-0.170,-0.290
4231,-0.210,-0.200
4232,-0.210,-0.190
4233,-0.180,-0.190
4234,-0.210,-0.120
4235,-0.130,-0.160
4236,-0.080,-0.100
4237,-0.110,-0.100
4238,-0.170,-0.090
4239,-0.090,-0.070
4240,-0.120,-0.070
4241,-0.140,-0.040
4242,-0.070,-0.080
4243,-0.040,-0.040
4244,-0.060,-0.040
4245,0.010,0.030
4246,0.040,0.040
4247,0.050,0.050
4248,0.050,0.080
4249,0.070,0.120
4250,0.130,0.200
4251,0.150,0.220
4252,0.170,0.250
4253,0.220,0.310
4254,0.280,0.320
4255,0.380,0.390
4256,0.380,0.390
4257,0.450,0.450
4258,0.530,0.430
4259,0.530,0.470
4260,0.590,0.450
4261,0.650,0.510
4262,0.650,0.460
4263,0.610,0.430
4264,0.590,0.350
4265,0.520,0.240
4266,0.410,0.170
4267,0.330,0.100
4268,0.290,0.020
4269,0.230,-0.050
4270,0.190,-0.060
4271,0.090,-0.100
4272,0.160,-0.100
4273,0.070,-0.100
4274,0.130,-0.150
4275,0.060,-0.110
4276,0.040,-0.090
4277,0.030,-0.130
4278,0.050,-0.120
4279,0.040,-0.180
4280,0.070,-0.150
4281,0.140,-0.110
4282,0.040,-0.110
4283,0.020,-0.070
4284,0.070,-0.120
4285,0.040,-0.090
4286,0.020,-0.080
4287,0.000,-0.030
4288,-0.020,-0.160
4289,0.070,-0.070
4290,-0.010,-0.120
4291,0.110,-0.110
4292,0.150,-0.060
4293,0.110,-0.080
4294,0.090,-0.060
4295,0.130,-0.060
4296,0.140,-0.010
4297,0.040,-0.080
4298,0.050,-0.050
4299,0.050,-0.070
4300,0.080,-0.080
4301,0.080,-0.090
4302,0.070,-0.060
4303,0.060,-0.090
4304,0.050,-0.090
4305,0.070,-0.080
4306,0.020,-0.050
4307,0.050,-0.070
4308,0.010,-0.090
4309,0.000,-0.030
4310,0.020,-0.070
4311,-0.040,-0.100
4312,-0.030,-0.070
4313,0.010,-0.100
4314,0.000,-0.050
4315,-0.020,-0.100
4316,0.020,-0.110
4317,-0.020,-0.090
4318,0.040,-0.090
4319,0.080,-0.090
4320,0.170,-0.050
4321,0.150,0.000
4322,0.240,0.020
4323,0.190,0.050
4324,0.290,0.030
4325,0.290,0.050
4326,0.250,0.020
4327,0.330,-0.070
4328,0.320,0.090
4329,0.180,0.090
4330,0.080,0.000
4331,-0.050,-0.050
4332,-0.110,-0.080
4333,-0.140,-0.150
4334,-0.140,-0.150
4335,-0.110,-0.140
4336,-0.150,-0.150
4337,-0.160,-0.180
4338,-0.150,-0.180
4339,-0.130,-0.140
4340,-0.140,-0.190
4341,-0.160,-0.120
4342,-0.170,-0.180
4343,-0.140,-0.130
4344,-0.700,-0.180
4345,0.070,0.200
4346,1.190,0.750
4347,2.320,0.760
4348,2.790,-0.170
4349,0.320,-1.640
4350,0.010,-1.790
4351,0.030,-1.620
4352,-0.020,-0.600
4353,-0.050,-0.240
4354,-0.110,-0.140
4355,-0.180,-0.110
4356,-0.170,-0.040
4357,-0.190,-0.050
4358,-0.150,-0.020
4359,-0.140,0.000
4360,-0.110,0.060
4361,-0.140,0.050
4362,-0.140,0.050
4363,-0.100,0.070
4364,-0.090,0.120
4365,-0.100,0.090
4366,-0.110,0.120
4367,-0.080,0.100
4368,-0.050,0.130
4369,-0.070,0.140
4370,-0.010,0.130
4371,-0.020,0.210
4372,0.020,0.130
4373,0.030,0.250
4374,0.060,0.280
4375,0.120,0.310
4376,0.110,0.330
4377,0.170,0.390
4378,0.200,0.420
4379,0.250,0.450
4380,0.370,0.470
4381,0.380,0.520
4382,0.470,0.540
4383,0.500,0.570
4384,0.600,0.570
4385,0.610,0.620
4386,0.620,0.600
4387,0.630,0.580
4388,0.580,0.530
4389,0.530,0.450
4390,0.420,0.390
4391,0.400,0.270
4392,0.300,0.220
4393,0.230,0.130
4394,0.200,0.090
4395,0.230,0.050
4396,0.090,0.050
4397,0.120,0.000
4398,0.110,0.020
4399,0.020,-0.010
4400,0.010,-0.050
4401,-0.100,-0.050
4402,0.080,-0.140
4403,-0.340,-0.050
4404,-0.040,-0.150
4405,0.090,-0.180
4406,0.130,-0.180
4407,0.090,-0.070
4408,0.000,-0.040
4409,0.040,0.120
4410,-0.110,0.210
4411,0.030,0.100
4412,0.010,0.070
4413,-0.010,0.060
4414,0.000,0.090
4415,-0.020,0.040
4416,-0.060,-0.040
4417,0.040,-0.040
4418,-0.010,-0.090
4419,0.070,-0.040
4420,0.100,-0.100
4421,0.040,-0.090
4422,0.050,-0.090
4423,0.030,-0.110
4424,-0.030,-0.100
4425,0.060,-0.120
4426,0.060,-0.050
4427,-0.030,-0.050
4428,0.020,-0.050
4429,-0.030,-0.050
4430,0.050,-0.110
4431,-0.020,-0.060
4432,0.010,-0.140
4433,-0.060,-0.150
4434,-0.070,-0.150
4435,-0.050,-0.210
4436,-0.110,-0.140
4437,-0.100,-0.200
4438,-0.100,-0.200
4439,-0.070,-0.150
4440,-0.070,-0.190
4441,-0.090,-0.200
4442,-0.120,-0.130
4443,-0.060,-0.130
4444,0.040,-0.110
4445,0.060,0.000
4446,0.050,-0.010
4447,0.100,0.010
4448,0.090,0.020
4449,0.140,0.050
4450,0.130,0.070
4451,0.180,0.050
4452,0.250,-0.010
4453,0.120,0.100
4454,0.030,0.070
4455,-0.080,0.000
4456,-0.190,-0.050
4457,-0.250,-0.130
4458,-0.150,-0.140
4459,-0.250,-0.140
4460,-0.270,-0.150
4461,-0.190,-0.230
4462,-0.320,-0.180
4463,-0.190,-0.240
4464,-0.260,-0.130
4465,-0.230,-0.230
4466,-0.250,-0.190
4467,-0.220,-0.190
4468,-0.430,-0.110
4469,-0.790,-0.230
4470,0.350,0.380
4471,1.470,1.020
4472,2.510,0.380
4473,2.600,-0.320
4474,-0.010,-1.760
4475,-0.010,-1.990
4476,-0.020,-1.400
4477,-0.190,-0.520
4478,-0.130,-0.230
4479,-0.220,-0.120
4480,-0.200,-0.080
4481,-0.210,-0.020
4482,-0.260,0.000
4483,-0.210,0.040
4484,-0.230,0.030
4485,-0.290,0.070
4486,-0.220,0.050
4487,-0.150,0.070
4488,-0.170,0.120
4489,-0.210,0.140
4490,-0.130,0.110
4491,-0.220,0.190
4492,-0.210,0.090
4493,-0.110,0.150
4494,-0.180,0.200
4495,-0.080,0.110
4496,-0.180,0.230
4497,-0.050,0.210
4498,-0.050,0.280
4499,-0.030,0.310
4500,-0.010,0.300
4501,0.150,0.360
4502,0.170,0.430
4503,0.150,0.450
4504,0.240,0.480
4505,0.290,0.490
4506,0.330,0.530
4507,0.420,0.500
4508,0.450,0.550
4509,0.570,0.580
4510,0.560,0.610
4511,0.540,0.550
4512,0.520,0.530
4513,0.500,0.480
4514,0.510,0.360
4515,0.370,0.310
4516,0.320,0.180
4517,0.250,0.150
4518,0.120,0.070
4519,0.080,-0.050
4520,0.060,-0.070
4521,0.000,-0.050
4522,0.000,-0.110
4523,0.000,-0.090
4524,-0.020,-0.090
4525,-0.100,-0.120
4526,-0.020,-0.180
4527,-0.120,-0.090
4528,-0.100,-0.120
4529,-0.120,-0.180
4530,-0.140,-0.190
4531,-0.080,-0.140
4532,-0.090,-0.160
4533,-0.140,-0.190
4534,-0.050,-0.170
4535,-0.100,-0.130
4536,-0.120,-0.140
4537,-0.090,-0.140
4538,-0.140,-0.130
4539,-0.130,-0.170
4540,-0.090,-0.150
4541,-0.080,-0.140
4542,-0.100,-0.150
4543,-0.040,-0.180
4544,-0.100,-0.070
4545,-0.110,-0.180
4546,-0.160,-0.130
4547,-0.100,-0.160
4548,-0.160,-0.160
4549,-0.170,-0.200
4550,-0.280,-0.170
4551,-0.230,-0.200
4552,-0.260,-0.200
4553,-0.280,-0.230
4554,-0.190,-0.240
4555,-0.290,-0.210
4556,-0.270,-0.230
4557,-0.330,-0.250
4558,-0.270,-0.220
4559,-0.330,-0.210
4560,-0.330,-0.230
4561,-0.340,-0.280
4562,-0.370,-0.230
4563,-0.400,-0.290
4564,-0.340,-0.310
4565,-0.360,-0.270
4566,-0.340,-0.220
4567,-0.380,-0.250
4568,-0.380,-0.290
4569,-0.290,-0.250
4570,-0.300,-0.250
4571,-0.250,-0.210
4572,-0.220,-0.210
4573,-0.100,-0.170
4574,-0.130,-0.120
4575,-0.060,-0.110
4576,-0.010,-0.130
4577,-0.040,-0.050
4578,0.020,-0.190
4579,0.030,-0.200
4580,-0.060,-0.110
4581,-0.290,-0.170
4582,-0.400,-0.250
4583,-0.410,-0.280
4584,-0.550,-0.340
4585,-0.520,-0.300
4586,-0.480,-0.350
4587,-0.510,-0.340
4588,-0.530,-0.370
4589,-0.610,-0.300
4590,-0.570,-0.360
4591,-0.550,-0.290
4592,-0.570,-0.300
4593,-0.580,-0.280
4594,-0.570,-0.300
4595,-0.560,-0.310
4596,-1.120,-0.230
4597,-0.180,0.130
4598,1.110,0.660
4599,2.230,0.680
4600,2.440,-0.270
4601,-0.140,-1.830
4602,-0.550,-1.880
4603,-0.410,-1.900
4604,-0.600,-0.850
4605,-0.530,-0.460
4606,-0.500,-0.350
4607,-0.570,-0.230
4608,-0.520,-0.240
4609,-0.580,-0.190
4610,-0.480,-0.210
4611,-0.550,-0.140
4612,-0.470,-0.160
4613,-0.520,-0.060
4614,-0.560,-0.110
4615,-0.540,-0.160
4616,-0.510,-0.090
4617,-0.550,-0.090
4618,-0.460,-0.090
4619,-0.510,-0.100
4620,-0.500,-0.070
4621,-0.410,-0.040
4622,-0.450,0.000
4623,-0.420,-0.020
4624,-0.460,0.000
4625,-0.390,0.080
4626,-0.380,0.070
4627,-0.360,0.090
4628,-0.270,0.160
4629,-0.220,0.210
4630,-0.160,0.260
4631,-0.070,0.270
4632,-0.050,0.330
4633,0.030,0.350
4634,0.070,0.380
4635,0.160,0.420
4636,0.180,0.440
4637,0.170,0.460
4638,0.220,0.410
4639,0.200,0.410
4640,0.200,0.340
4641,0.100,0.260
4642,0.080,0.160
4643,0.020,0.090
4644,-0.110,0.020
4645,-0.130,-0.040
4646,-0.260,-0.100
4647,-0.300,-0.160
4648,-0.260,-0.140
4649,-0.380,-0.160
4650,-0.360,-0.220
4651,-0.350,-0.180
4652,-0.410,-0.170
4653,-0.340,-0.190
4654,-0.390,-0.200
4655,-0.350,-0.230
4656,-0.350,-0.120
4657,-0.350,-0.190
4658,-0.410,-0.140
4659,-0.330,-0.160
4660,-0.410,-0.150
4661,-0.410,-0.200
4662,-0.420,-0.160
4663,-0.350,-0.160
4664,-0.360,-0.150
4665,-0.380,-0.150
4666,-0.310,-0.130
4667,-0.320,-0.120
4668,-0.360,-0.130
4669,-0.280,-0.140
4670,-0.300,-0.090
4671,-0.330,-0.120
4672,-0.260,-0.110
4673,-0.330,-0.090
4674,-0.330,-0.110
4675,-0.350,-0.110
4676,-0.370,-0.130
4677,-0.340,-0.130
4678,-0.320,-0.150
4679,-0.360,-0.110
4680,-0.370,-0.150
4681,-0.390,-0.120
4682,-0.380,-0.130
4683,-0.430,-0.130
4684,-0.450,-0.160
4685,-0.500,-0.150
4686,-0.410,-0.190
4687,-0.420,-0.180
4688,-0.400,-0.160
4689,-0.440,-0.200
4690,-0.360,-0.210
4691,-0.410,-0.130
4692,-0.420,-0.180
4693,-0.350,-0.160
4694,-0.260,-0.140
4695,-0.270,-0.070
4696,-0.250,-0.040
4697,-0.120,0.000
4698,-0.160,0.050
4699,-0.050,0.000
4700,-0.080,0.090
4701,-0.050,0.020
4702,0.000,0.000
4703,-0.030,0.020
4704,-0.080,0.000
4705,-0.360,0.030
4706,-0.420,-0.110
4707,-0.490,-0.240
4708,-0.450,-0.250
4709,-0.430,-0.180
4710,-0.470,-0.170
4711,-0.470,-0.250
4712,-0.500,-0.250
4713,-0.490,-0.260
4714,-0.480,-0.240
4715,-0.490,-0.220
4716,-0.450,-0.230
4717,-0.490,-0.200
4718,-0.440,-0.240
4719,-0.540,-0.190
4720,-0.870,-0.190
4721,0.040,0.290
4722,1.240,0.810
4723,2.340,0.720
4724,2.470,-0.070
4725,-0.310,-1.600
4726,-0.390,-1.810
4727,-0.270,-1.540
4728,-0.340,-0.630
4729,-0.360,-0.310
4730,-0.370,-0.200
4731,-0.400,-0.140
4732,-0.440,-0.150
4733,-0.450,-0.070
4734,-0.360,-0.110
4735,-0.300,-0.020
4736,-0.380,-0.040
4737,-0.350,0.020
4738,-0.350,0.030
4739,-0.340,0.050
4740,-0.370,0.050
4741,-0.350,0.050
4742,-0.330,0.090
4743,-0.330,0.090
4744,-0.310,0.080
4745,-0.260,0.100
4746,-0.220,0.140
4747,-0.210,0.140
4748,-0.230,0.140
4749,-0.230,0.200
4750,-0.110,0.200
4751,-0.130,0.270
4752,-0.050,0.270
4753,-0.040,0.300
4754,0.030,0.350
4755,0.110,0.370
4756,0.130,0.420
4757,0.220,0.410
4758,0.280,0.470
4759,0.280,0.510
4760,0.390,0.500
4761,0.400,0.550
4762,0.420,0.530
4763,0.400,0.480
4764,0.390,0.410
4765,0.330,0.340
4766,0.250,0.260
4767,0.140,0.190
4768,0.180,0.070
4769,0.040,0.050
4770,0.030,0.040
4771,-0.060,-0.020
4772,-0.070,-0.040
4773,-0.070,-0.020
4774,-0.100,-0.030
4775,-0.120,-0.020
4776,-0.140,-0.030
4777,-0.120,0.000
4778,-0.140,-0.080
4779,-0.110,0.010
4780,-0.140,-0.040
4781,-0.140,0.000
4782,-0.120,-0.070
4783,-0.170,-0.010
4784,-0.040,-0.010
4785,-0.230,-0.010
4786,-0.140,-0.010
4787,0.000,0.000
4788,-0.200,0.080
4789,-0.190,0.110
4790,-0.100,0.070
4791,-0.070,0.070
4792,-0.020,0.110
4793,-0.080,0.080
4794,-0.030,0.060
4795,-0.020,0.090
4796,-0.100,0.060
4797,0.090,0.000
4798,-0.090,0.060
4799,-0.090,0.000
4800,-0.060,0.040
4801,-0.090,0.070
4802,-0.130,-0.020
4803,-0.060,0.080
4804,-0.110,0.030
4805,-0.110,0.040
4806,-0.200,0.040
4807,-0.120,0.090
4808,-0.170,0.140
4809,-0.180,0.260
4810,-0.200,0.290
4811,-0.240,0.300
4812,-0.190,0.330
4813,-0.180,0.320
4814,-0.260,0.220
4815,-0.160,0.110
4816,-0.230,0.130
4817,-0.220,0.070
4818,-0.180,0.080
4819,-0.240,0.140
4820,-0.200,0.120
4821,-0.120,0.120
4822,-0.110,0.140
4823,-0.030,0.150
4824,0.010,0.220
4825,0.030,0.200
4826,0.100,0.240
4827,0.070,0.180
4828,0.040,0.180
4829,0.110,0.130
4830,0.060,0.130
4831,0.020,0.130
4832,-0.110,0.120
4833,-0.210,0.050
4834,-0.270,-0.030
4835,-0.300,-0.030
4836,-0.250,-0.040
4837,-0.320,-0.040
4838,-0.330,-0.030
4839,-0.360,-0.040
4840,-0.350,-0.090
4841,-0.410,-0.100
4842,-0.380,-0.100
4843,-0.340,-0.080
4844,-0.370,-0.070
4845,-0.320,-0.100
4846,-0.380,-0.120
4847,-0.740,-0.090
4848,-0.430,0.220
4849,0.710,0.700
4850,2.070,1.050
4851,2.790,0.160
4852,1.290,-1.080
4853,-0.330,-1.450
4854,-0.070,-2.110
4855,-0.220,-0.810
4856,-0.220,-0.360
4857,-0.250,-0.290
4858,-0.310,-0.270
4859,-0.230,-0.290
4860,-0.370,-0.260
4861,-0.260,-0.240
4862,-0.310,-0.220
4863,-0.290,-0.160
4864,-0.320,-0.090
4865,-0.310,-0.030
4866,-0.260,0.000
4867,-0.310,0.060
4868,-0.250,0.150
4869,-0.230,0.220
4870,-0.180,0.130
4871,-0.180,0.100
4872,-0.170,0.170
4873,-0.130,0.140
4874,-0.130,0.160
4875,-0.080,0.220
4876,-0.080,0.280
4877,-0.070,0.290
4878,-0.010,0.290
4879,0.050,0.310
4880,0.100,0.350
4881,0.180,0.410
4882,0.230,0.500
4883,0.280,0.570
4884,0.340,0.590
4885,0.430,0.650
4886,0.440,0.650
4887,0.480,0.680
4888,0.500,0.690
4889,0.530,0.660
4890,0.570,0.610
4891,0.530,0.590
4892,0.530,0.480
4893,0.510,0.380
4894,0.370,0.340
4895,0.300,0.220
4896,0.240,0.140
4897,0.180,0.130
4898,0.170,0.060
4899,0.100,0.030
4900,0.060,0.030
4901,0.080,0.040
4902,0.070,0.020
4903,0.060,-0.020
4904,0.040,0.000
4905,0.050,-0.010
4906,0.050,0.010
4907,0.020,0.040
4908,0.020,0.010
4909,0.000,0.020
4910,-0.010,0.030
4911,-0.030,0.010
4912,-0.050,0.020
4913,-0.030,0.020
4914,-0.010,0.000
4915,-0.020,0.020
4916,0.020,0.000
4917,-0.010,0.020
4918,-0.030,0.070
4919,-0.040,0.050
4920,-0.020,0.060
4921,-0.060,0.030
4922,-0.060,0.020
4923,-0.030,0.060
4924,-0.040,0.020
4925,-0.020,0.010
4926,-0.040,0.000
4927,-0.040,-0.040
4928,-0.030,-0.010
4929,-0.050,-0.010
4930,-0.070,-0.020
4931,-0.040,0.000
4932,-0.120,-0.020
4933,-0.150,-0.050
4934,-0.130,-0.070
4935,-0.140,-0.070
4936,-0.140,-0.050
4937,-0.140,-0.080
4938,-0.090,-0.080
4939,-0.150,-0.080
4940,-0.150,-0.090
4941,-0.190,-0.080
4942,-0.150,-0.080
4943,-0.180,-0.090
4944,-0.200,-0.100
4945,-0.190,-0.120
4946,-0.190,-0.100
4947,-0.200,-0.100
4948,-0.190,-0.120
4949,-0.140,-0.130
4950,0.030,-0.070
4951,0.000,-0.030
4952,0.050,0.010
4953,0.050,0.050
4954,0.140,0.050
4955,0.110,0.090
4956,0.090,0.030
4957,0.130,-0.020
4958,0.120,-0.030
4959,0.030,-0.020
4960,-0.060,-0.050
4961,-0.140,-0.110
4962,-0.220,-0.120
4963,-0.190,-0.180
4964,-0.280,-0.130
4965,-0.280,-0.170
4966,-0.290,-0.150
4967,-0.360,-0.160
4968,-0.330,-0.180
4969,-0.320,-0.170
4970,-0.310,-0.220
4971,-0.370,-0.170
4972,-0.330,-0.170
4973,-0.330,-0.210
4974,-0.240,-0.140
4975,-0.870,-0.110
4976,-0.220,0.150
4977,0.960,0.740
4978,2.260,0.860
4979,2.760,-0.020
4980,0.540,-1.490
4981,-0.300,-1.630
4982,-0.150,-1.820
4983,-0.220,-0.700
4984,-0.220,-0.340
4985,-0.280,-0.150
4986,-0.240,-0.120
4987,-0.290,-0.060
4988,-0.310,-0.050
4989,-0.290,-0.060
4990,-0.310,-0.030
4991,-0.320,-0.010
4992,-0.290,0.000
4993,-0.330,-0.020
4994,-0.290,-0.010
4995,-0.300,-0.020
4996,-0.220,0.010
4997,-0.220,0.030
4998,-0.210,0.070
4999,-0.210,0.130
5000,-0.110,0.180
5001,-0.270,0.200
5002,-0.230,0.130
5003,-0.140,0.120
5004,-0.220,0.160
5005,-0.080,0.180
5006,-0.020,0.240
5007,-0.040,0.330
5008,0.010,0.320
5009,0.020,0.360
5010,0.140,0.350
5011,0.170,0.470
5012,0.240,0.490
5013,0.280,0.480
5014,0.250,0.510
5015,0.370,0.540
5016,0.420,0.520
5017,0.410,0.520
5018,0.450,0.520
5019,0.430,0.450
5020,0.380,0.390
5021,0.320,0.290
5022,0.240,0.200
5023,0.090,0.150
5024,0.030,0.010
5025,0.020,-0.020
5026,-0.050,-0.030
5027,-0.090,-0.080
5028,-0.140,-0.100
5029,-0.120,-0.120
5030,-0.110,-0.130
5031,-0.100,-0.090
5032,-0.160,-0.090
5033,-0.130,-0.090
5034,-0.180,-0.110
5035,-0.190,-0.070
5036,-0.180,-0.090
5037,-0.170,-0.100
5038,-0.160,-0.100
5039,-0.200,-0.100
5040,-0.160,-0.130
5041,-0.140,-0.120
5042,-0.130,-0.100
5043,-0.100,-0.090
5044,-0.120,-0.090
5045,-0.030,-0.090
5046,-0.070,-0.040
5047,-0.080,-0.070
5048,-0.060,-0.070
5049,0.040,-0.060
5050,-0.160,-0.080
5051,-0.040,-0.090
5052,-0.060,-0.060
5053,-0.050,-0.070
5054,-0.110,-0.070
5055,-0.040,-0.090
5056,-0.120,-0.050
5057,-0.100,-0.090
5058,-0.150,-0.090
5059,-0.170,-0.090
5060,-0.140,-0.120
5061,-0.140,-0.100
5062,-0.180,-0.100
5063,-0.150,-0.110
5064,-0.160,-0.100
5065,-0.170,-0.110
5066,-0.160,-0.100
5067,-0.140,-0.100
5068,-0.180,-0.080
5069,-0.200,-0.120
5070,-0.220,-0.120
5071,-0.160,-0.130
5072,-0.180,-0.120
5073,-0.120,-0.090
5074,-0.060,-0.080
5075,0.050,-0.100
5076,0.050,-0.010
5077,0.090,0.040
5078,0.140,0.080
5079,0.210,0.100
5080,0.170,0.130
5081,0.120,0.020
5082,0.220,0.010
5083,0.160,0.020
5084,0.140,0.030
5085,-0.090,-0.040
5086,-0.150,-0.150
5087,-0.090,-0.160
5088,-0.160,-0.150
5089,-0.210,-0.160
5090,-0.230,-0.180
5091,-0.230,-0.210
5092,-0.320,-0.190
5093,-0.300,-0.280
5094,-0.300,-0.270
5095,-0.270,-0.250
5096,-0.260,-0.270
5097,-0.310,-0.230
5098,-0.090,-0.250
5099,-0.290,-0.200
5100,-0.660,-0.170
5101,-0.030,0.200
5102,1.100,0.710
5103,2.320,0.870
5104,2.750,0.060
5105,0.820,-1.440
5106,-0.260,-1.530
5107,-0.180,-2.010
5108,-0.060,-0.920
5109,-0.090,-0.360
5110,-0.070,-0.250
5111,-0.110,-0.100
5112,-0.120,-0.100
5113,-0.110,-0.080
5114,-0.110,-0.060
5115,-0.130,-0.050
5116,-0.140,-0.040
5117,-0.110,-0.020
5118,-0.120,-0.020
5119,-0.140,-0.030
5120,-0.060,-0.030
5121,-0.050,0.010
5122,-0.070,0.000
5123,-0.060,0.010
5124,-0.010,0.080
5125,-0.010,0.080
5126,-0.040,0.090
5127,-0.020,0.120
5128,0.030,0.110
5129,0.100,0.180
5130,0.100,0.190
5131,0.170,0.250
5132,0.210,0.270
5133,0.220,0.350
5134,0.280,0.390
5135,0.360,0.410
5136,0.370,0.480
5137,0.420,0.490
5138,0.470,0.540
5139,0.520,0.520
5140,0.560,0.530
5141,0.600,0.540
5142,0.650,0.520
5143,0.660,0.480
5144,0.680,0.440
5145,0.600,0.430
5146,0.540,0.300
5147,0.470,0.220
5148,0.460,0.160
5149,0.340,0.090
5150,0.280,0.020
5151,0.250,0.000
5152,0.220,-0.030
5153,0.230,-0.010
5154,0.220,-0.040
5155,0.180,-0.060
5156,0.180,-0.060
5157,0.190,-0.040
5158,0.160,-0.030
5159,0.150,-0.050
5160,0.110,-0.010
5161,0.130,-0.050
5162,0.120,-0.020
5163,0.120,-0.050
5164,0.120,-0.010
5165,0.120,-0.020
5166,0.120,-0.010
5167,0.140,-0.010
5168,0.140,0.010
5169,0.110,0.020
5170,0.120,0.020
5171,0.110,0.000
5172,0.120,0.010
5173,0.160,-0.010
5174,0.130,0.000
5175,0.150,0.000
5176,0.140,0.010
5177,0.140,-0.030
5178,0.200,0.000
5179,0.120,0.020
5180,0.170,-0.010
5181,0.120,0.030
5182,0.080,-0.020
5183,0.120,-0.020
5184,0.120,-0.020
5185,0.080,-0.040
5186,0.100,-0.060
5187,0.160,-0.030
5188,0.140,-0.050
5189,0.110,-0.040
5190,0.140,-0.040
5191,0.140,-0.040
5192,0.110,-0.060
5193,0.120,-0.070
5194,0.080,-0.060
5195,0.080,-0.100
5196,0.120,-0.090
5197,0.110,-0.080
5198,0.060,-0.090
5199,0.110,-0.100
5200,0.130,-0.080
5201,0.100,-0.030
5202,0.080,-0.030
5203,0.060,-0.040
5204,0.060,-0.040
5205,0.010,-0.070
5206,0.030,-0.050
5207,0.040,-0.060
5208,0.070,-0.060
5209,0.040,-0.050
5210,0.120,-0.080
5211,0.180,-0.030
5212,0.260,0.040
5213,0.240,0.100
5214,0.310,0.100
5215,0.300,0.150
5216,0.280,0.120
5217,0.320,0.090
5218,0.250,0.080
5219,0.360,-0.010
5220,0.270,0.020
5221,0.060,-0.020
5222,0.310,-0.140
5223,0.120,0.030
5224,0.020,-0.110
5225,0.010,-0.070
5226,0.000,-0.130
5227,-0.030,-0.140
5228,-0.060,-0.160
5229,-0.120,-0.160
5230,-0.080,-0.170
5231,-0.090,-0.200
5232,-0.030,-0.180
5233,-0.080,-0.170
5234,-0.050,-0.190
5235,-0.020,-0.100
5236,-0.280,-0.130
5237,-0.490,-0.090
5238,0.570,0.510
5239,1.900,1.090
5240,2.740,0.150
5241,2.480,-0.850
5242,-0.220,-1.760
5243,0.230,-2.340
5244,0.060,-1.060
5245,-0.050,-0.460
5246,-0.060,-0.160
5247,-0.070,-0.090
5248,-0.140,-0.070
5249,-0.140,-0.040
5250,-0.130,-0.030
5251,-0.160,0.000
5252,-0.130,0.020
5253,-0.130,0.040
5254,-0.130,0.010
5255,-0.130,0.040
5256,-0.090,0.080
5257,-0.120,0.090
5258,-0.060,0.100
5259,-0.100,0.150
5260,-0.100,0.140
5261,-0.090,0.160
5262,-0.080,0.180
5263,-0.020,0.210
5264,-0.050,0.240
5265,0.030,0.270
5266,0.030,0.300
5267,0.080,0.340
5268,0.130,0.400
5269,0.120,0.490
5270,0.210,0.510
5271,0.230,0.560
5272,0.230,0.630
5273,0.380,0.640
5274,0.340,0.830
5275,0.420,0.640
5276,0.490,0.670
5277,0.530,0.670
5278,0.580,0.690
5279,0.590,0.700
5280,0.600,0.690
5281,0.580,0.610
5282,0.520,0.480
5283,0.420,0.370
5284,0.380,0.290
5285,0.290,0.200
5286,0.190,0.140
5287,0.170,0.100
5288,0.150,0.040
5289,0.140,0.030
5290,0.070,0.010
5291,0.040,0.010
5292,0.020,0.040
5293,0.050,-0.040
5294,-0.010,-0.010
5295,-0.040,-0.040
5296,0.010,-0.030
5297,-0.060,-0.020
5298,-0.020,-0.020
5299,0.010,-0.030
5300,-0.020,-0.020
5301,0.020,0.030
5302,-0.030,0.050
5303,-0.020,0.020
5304,-0.040,0.050
5305,-0.040,0.020
5306,-0.020,0.020
5307,-0.030,0.020
5308,-0.050,0.070
5309,0.000,-0.010
5310,-0.030,0.070
5311,-0.010,-0.010
5312,-0.010,0.030
5313,0.000,0.020
5314,0.000,0.140
5315,0.010,0.040
5316,0.000,0.070
5317,-0.050,0.000
5318,-0.050,0.010
5319,-0.070,0.040
5320,-0.060,0.030
5321,-0.060,-0.020
5322,-0.050,-0.030
5323,-0.070,0.010
5324,-0.120,-0.010
5325,-0.120,-0.030
5326,-0.070,-0.060
5327,-0.130,-0.030
5328,-0.140,-0.080
5329,-0.150,-0.150
5330,-0.170,-0.090
5331,-0.130,-0.120
5332,-0.150,-0.100
5333,-0.140,-0.140
5334,-0.140,-0.120
5335,-0.160,-0.120
5336,-0.150,-0.100
5337,-0.160,-0.080
5338,-0.140,-0.110
5339,-0.180,-0.110
5340,-0.150,-0.110
5341,-0.140,-0.120
5342,-0.160,-0.120
5343,-0.180,-0.150
5344,-0.080,-0.150
5345,-0.120,-0.130
5346,-0.110,-0.160
5347,-0.080,-0.110
5348,-0.030,-0.090
5349,0.080,-0.090
5350,0.100,-0.010
5351,0.090,-0.010
5352,0.110,0.040
5353,0.210,0.020
5354,0.180,0.070
5355,0.170,0.000
5356,0.240,-0.130
5357,0.210,-0.020
5358,0.130,0.020
5359,0.030,-0.040
5360,-0.100,-0.110
5361,-0.140,-0.140
5362,-0.180,-0.200
5363,-0.190,-0.170
5364,-0.190,-0.190
5365,-0.140,-0.190
5366,-0.220,-0.190
5367,-0.200,-0.220
5368,-0.210,-0.200
5369,-0.230,-0.170
5370,-0.200,-0.180
5371,-0.220,-0.150
5372,-0.230,-0.150
5373,-0.470,-0.140
5374,-0.610,-0.040
5375,0.480,0.540
5376,1.770,1.090
5377,2.680,0.070
5378,2.390,-0.920
5379,-0.240,-1.810
5380,0.070,-2.330
5381,-0.060,-1.000
5382,-0.120,-0.420
5383,-0.160,-0.150
5384,-0.230,-0.070
5385,-0.210,-0.040
5386,-0.190,-0.030
5387,-0.190,0.000
5388,-0.170,0.020
5389,-0.170,0.050
5390,-0.190,0.090
5391,-0.170,0.060
5392,-0.180,0.100
5393,-0.150,0.100
5394,-0.150,0.110
5395,-0.190,0.120
5396,-0.150,0.110
5397,-0.190,0.130
5398,-0.140,0.110
5399,-0.070,0.180
5400,-0.110,0.200
5401,-0.090,0.220
5402,-0.050,0.270
5403,-0.020,0.300
5404,0.010,0.330
5405,0.010,0.350
5406,0.050,0.360
5407,0.090,0.390
5408,0.150,0.470
5409,0.210,0.480
5410,0.280,0.530
5411,0.350,0.540
5412,0.340,0.570
5413,0.470,0.590
5414,0.460,0.620
5415,0.510,0.620
5416,0.530,0.600
5417,0.510,0.560
5418,0.490,0.490
5419,0.410,0.380
5420,0.290,0.320
5421,0.240,0.230
5422,0.220,0.120
5423,0.120,0.090
5424,0.040,0.070
5425,0.030,0.040
5426,0.040,0.010
5427,-0.070,-0.020
5428,-0.060,-0.040
5429,-0.080,-0.040
5430,-0.110,-0.080
5431,-0.090,-0.060
5432,-0.120,-0.050
5433,-0.110,-0.120
5434,-0.150,-0.100
5435,-0.060,-0.060
5436,-0.210,-0.090
5437,-0.080,-0.110
5438,-0.080,-0.130
5439,-0.180,-0.110
5440,-0.140,-0.070
5441,-0.130,-0.090
5442,-0.170,-0.080
5443,-0.130,-0.090
5444,-0.130,-0.020
5445,-0.100,-0.060
5446,-0.130,-0.010
5447,-0.130,-0.020
5448,-0.130,-0.010
5449,-0.100,-0.030
5450,-0.140,-0.010
5451,-0.130,-0.040
5452,-0.140,-0.050
5453,-0.140,-0.040
5454,-0.170,-0.090
5455,-0.140,-0.100
5456,-0.170,-0.100
5457,-0.190,-0.100
5458,-0.210,-0.140
5459,-0.180,-0.100
5460,-0.220,-0.130
5461,-0.220,-0.090
5462,-0.270,-0.160
5463,-0.240,-0.180
5464,-0.260,-0.160
5465,-0.260,-0.190
5466,-0.240,-0.150
5467,-0.260,-0.140
5468,-0.230,-0.130
5469,-0.310,-0.170
5470,-0.270,-0.170
5471,-0.270,-0.140
5472,-0.310,-0.170
5473,-0.290,-0.150
5474,-0.300,-0.150
5475,-0.340,-0.170
5476,-0.310,-0.160
5477,-0.230,-0.120
5478,-0.270,-0.090
5479,-0.170,-0.080
5480,-0.140,-0.020
5481,-0.080,0.050
5482,-0.070,0.040
5483,-0.040,0.090
5484,0.010,0.100
5485,0.000,0.090
5486,-0.050,0.070
5487,0.050,-0.020
5488,0.020,0.030
5489,-0.090,0.060
5490,-0.250,-0.040
5491,-0.290,-0.080
5492,-0.380,-0.130
5493,-0.360,-0.190
5494,-0.380,-0.180
5495,-0.420,-0.240
5496,-0.420,-0.230
5497,-0.410,-0.240
5498,-0.450,-0.230
5499,-0.420,-0.280
5500,-0.390,-0.240
5501,-0.420,-0.230
5502,-0.380,-0.240
5503,-0.410,-0.210
5504,-0.770,-0.180
5505,-0.350,0.060
5506,0.780,0.580
5507,2.030,0.930
5508,2.520,-0.010
5509,0.500,-1.400
5510,-0.370,-1.550
5511,-0.360,-1.940
5512,-0.280,-0.800
5513,-0.300,-0.310
5514,-0.390,-0.170
5515,-0.340,-0.120
5516,-0.410,-0.100
5517,-0.370,-0.130
5518,-0.390,-0.080
5519,-0.390,-0.080
5520,-0.410,-0.070
5521,-0.360,-0.090
5522,-0.310,-0.070
5523,-0.390,0.000
5524,-0.330,-0.050
5525,-0.300,-0.040
5526,-0.350,-0.010
5527,-0.350,-0.020
5528,-0.340,0.010
5529,-0.340,0.000
5530,-0.290,0.030
5531,-0.270,0.100
5532,-0.240,0.060
5533,-0.180,0.070
5534,-0.170,0.150
5535,-0.130,0.140
5536,-0.050,0.200
5537,-0.070,0.260
5538,-0.010,0.310
5539,0.070,0.340
5540,0.120,0.380
5541,0.100,0.430
5542,0.230,0.420
5543,0.250,0.480
5544,0.350,0.470
5545,0.400,0.530
5546,0.370,0.550
5547,0.400,0.520
5548,0.430,0.460
5549,0.340,0.400
5550,0.200,0.320
5551,0.270,0.210
5552,0.140,0.170
5553,0.090,0.090
5554,0.000,0.050
5555,0.010,-0.020
5556,-0.030,-0.030
5557,-0.080,0.010
5558,-0.110,-0.020
5559,-0.070,-0.010
5560,-0.100,0.000
5561,-0.130,-0.020
5562,-0.080,-0.030
5563,-0.150,-0.010
5564,-0.120,-0.030
5565,-0.150,-0.060
5566,-0.080,-0.060
5567,-0.120,-0.050
5568,-0.100,-0.040
5569,-0.140,-0.030
5570,-0.080,-0.020
5571,-0.080,-0.020
5572,-0.110,-0.020
5573,-0.060,-0.010
5574,-0.110,0.010
5575,-0.050,0.000
5576,-0.100,-0.090
5577,-0.070,-0.010
5578,0.050,-0.060
5579,0.020,0.020
5580,0.030,0.000
5581,0.050,0.040
5582,0.050,-0.020
5583,0.010,-0.010
5584,0.000,-0.050
5585,-0.010,-0.040
5586,-0.030,-0.090
5587,-0.050,-0.110
5588,0.030,-0.120
5589,-0.010,-0.050
5590,-0.050,-0.060
5591,-0.040,-0.060
5592,-0.060,-0.060
5593,-0.050,-0.050
5594,-0.060,-0.080
5595,-0.060,-0.070
5596,-0.070,-0.100
5597,-0.070,-0.090
5598,-0.070,-0.110
5599,0.000,-0.120
5600,0.000,-0.080
5601,-0.100,-0.090
5602,-0.070,-0.120
5603,0.000,-0.010
5604,-0.020,-0.070
5605,-0.130,-0.060
5606,0.000,-0.080
5607,-0.100,-0.080
5608,0.000,-0.080
5609,0.010,-0.110
5610,0.060,-0.060
5611,0.180,-0.050
5612,0.240,0.070
5613,0.270,0.080
5614,0.260,0.140
5615,0.310,0.100
5616,0.380,0.120
5617,0.310,0.120
5618,0.340,0.050
5619,0.410,0.030
5620,0.380,0.050
5621,0.190,-0.030
5622,0.110,-0.140
5623,0.040,-0.110
5624,0.050,-0.170
5625,0.000,-0.120
5626,-0.050,-0.140
5627,-0.020,-0.160
5628,-0.020,-0.180
5629,-0.100,-0.160
5630,-0.070,-0.220
5631,-0.070,-0.200
5632,-0.050,-0.190
5633,-0.040,-0.160
5634,-0.020,-0.170
5635,-0.090,-0.080
5636,-0.600,-0.100
5637,0.110,0.360
5638,1.370,0.900
5639,2.500,0.630
5640,2.900,-0.240
5641,0.390,-1.930
5642,0.330,-1.910
5643,0.240,-1.540
5644,0.120,-0.460
5645,0.070,-0.120
5646,-0.030,0.000
5647,0.020,0.070
5648,0.010,0.100
5649,-0.040,0.120
5650,-0.060,0.130
5651,-0.010,0.120
5652,0.070,0.120
5653,-0.020,0.180
5654,-0.020,0.160
5655,0.120,0.160
5656,0.140,0.170
5657,0.040,0.190
5658,0.140,0.080
5659,0.010,0.160
5660,0.210,0.230
5661,0.080,0.270
5662,0.160,0.260
5663,0.160,0.280
5664,0.210,0.230
5665,0.300,0.380
5666,0.310,0.390
5667,0.300,0.470
5668,0.300,0.440
5669,0.390,0.480
5670,0.430,0.540
5671,0.450,0.590
5672,0.500,0.650
5673,0.590,0.660
5674,0.640,0.690
5675,0.620,0.720
5676,0.620,0.690
5677,0.850,0.690
5678,0.740,0.700
5679,0.770,0.670
5680,0.730,0.580
5681,0.750,0.520
5682,0.640,0.400
5683,0.620,0.330
5684,0.480,0.180
5685,0.470,0.130
5686,0.330,0.060
5687,0.370,-0.050
5688,0.300,-0.040
5689,0.310,-0.070
5690,0.300,-0.060
5691,0.270,-0.060
5692,0.310,-0.080
5693,0.240,-0.020
5694,0.320,-0.070
5695,0.270,-0.060
5696,0.250,-0.060
5697,0.260,-0.100
5698,0.290,-0.100
5699,0.280,-0.090
5700,0.260,-0.080
5701,0.280,-0.090
5702,0.290,-0.060
5703,0.220,-0.050
5704,0.260,-0.080
5705,0.250,-0.040
5706,0.300,-0.050
5707,0.260,0.010
5708,0.260,-0.030
5709,0.270,-0.020
5710,0.250,-0.050
5711,0.290,-0.030
5712,0.260,-0.040
5713,0.230,-0.030
5714,0.210,-0.060
5715,0.230,-0.030
5716,0.210,-0.070
5717,0.190,-0.030
5718,0.140,-0.090
5719,0.200,-0.100
5720,0.150,-0.140
5721,0.140,-0.080
5722,0.170,-0.160
5723,0.180,-0.110
5724,0.110,-0.110
5725,0.120,-0.130
5726,0.180,-0.120
5727,0.110,-0.080
5728,0.030,-0.110
5729,0.090,-0.150
5730,0.070,-0.140
5731,0.090,-0.150
5732,-0.010,-0.150
5733,0.070,-0.180
5734,0.130,-0.120
5735,0.010,-0.130
5736,0.000,-0.130
5737,0.110,-0.160
5738,0.000,-0.110
5739,-0.010,-0.070
5740,0.030,-0.160
5741,-0.030,-0.120
5742,-0.040,-0.170
5743,0.050,-0.190
5744,0.050,-0.160
5745,0.170,-0.100
5746,0.180,-0.020
5747,0.240,-0.040
5748,0.260,0.080
5749,0.250,0.060
5750,0.260,0.080
5751,0.240,0.030
5752,0.290,-0.040
5753,0.300,-0.030
5754,0.280,0.050
5755,-0.020,-0.050
5756,-0.040,-0.150
5757,-0.100,-0.180
5758,-0.140,-0.210
5759,-0.160,-0.200
5760,-0.190,-0.180
5761,-0.180,-0.270
5762,-0.160,-0.210
5763,-0.300,-0.070
5764,-0.320,-0.240
5765,-0.290,-0.310
5766,-0.160,-0.340
5767,-0.160,-0.250
5768,-0.210,-0.220
5769,-0.590,-0.220
5770,-0.060,0.170
5771,0.970,0.630
5772,2.140,0.790
5773,2.670,-0.200
5774,1.050,-1.880
5775,-0.090,-1.760
5776,-0.140,-2.190
5777,-0.170,-0.910
5778,-0.210,-0.420
5779,-0.290,-0.210
5780,-0.330,-0.240
5781,-0.380,-0.250
5782,-0.270,-0.170
5783,-0.440,-0.240
5784,-0.420,-0.250
5785,-0.440,-0.530
5786,-0.380,-0.400
5787,-0.620,-0.460
5788,-0.550,-0.610
5789,-0.430,-0.670
5790,-0.400,-0.630
5791,-0.520,-0.760
5792,-0.440,-0.550
5793,-0.400,-0.550
5794,-0.550,-0.370
5795,-0.480,-0.330
5796,-0.610,-0.300
5797,-0.390,-0.580
5798,-0.480,-0.570
5799,-0.430,-0.400
5800,-0.400,-0.310
5801,-0.440,-0.300
5802,-0.200,-0.300
5803,-0.430,-0.020
5804,-0.340,-0.150
5805,-0.420,0.030
5806,-0.330,-0.170
5807,0.000,-0.100
5808,-0.030,0.140
5809,0.230,0.240
5810,0.010,0.220
5811,0.000,0.040
5812,0.200,-0.030
5813,-0.030,0.080
5814,0.000,-0.130
5815,-0.070,-0.140
5816,-0.040,-0.170
5817,-0.120,-0.230
5818,-0.320,-0.250
5819,-0.420,-0.350
5820,-0.400,-0.330
5821,-0.360,-0.290
5822,-0.570,-0.480
5823,-0.460,-0.510
5824,-0.420,-0.500
5825,-0.550,-0.450
5826,-0.550,-0.500
5827,-0.500,-0.420
5828,-0.600,-0.420
5829,-0.520,-0.410
5830,-0.600,-0.420
5831,-0.600,-0.310
5832,-0.680,-0.390
5833,-0.440,-0.380
5834,-0.500,-0.370
5835,-0.450,-0.340
5836,-0.550,-0.290
5837,-0.380,-0.390
5838,-0.410,-0.200
5839,-0.570,-0.340
5840,-0.510,-0.340
5841,-0.410,-0.300
5842,-0.410,-0.220
5843,-0.520,-0.240
5844,-0.450,-0.320
5845,-0.380,-0.260
5846,-0.430,-0.250
5847,-0.290,-0.220
5848,-0.460,-0.180
5849,-0.380,-0.230
5850,-0.480,-0.250
5851,-0.490,-0.270
5852,-0.720,-0.270
5853,-0.400,-0.230
5854,-0.450,-0.190
5855,-0.430,-0.190
5856,-0.420,-0.220
5857,-0.450,-0.210
5858,-0.610,-0.250
5859,-0.400,-0.260
5860,-0.480,-0.150
5861,-0.490,-0.260
5862,-0.570,-0.220
5863,-0.460,-0.230
5864,-0.640,-0.140
5865,-0.410,-0.260
5866,-0.520,-0.210
5867,-0.340,-0.180
5868,-0.270,-0.150
5869,-0.210,-0.150
5870,-0.250,0.000
5871,-0.070,-0.020
5872,-0.020,0.070
5873,-0.270,-0.070
5874,-0.190,-0.120
5875,-0.100,-0.170
5876,-0.050,-0.130
5877,-0.290,-0.020
5878,-0.460,-0.150
5879,-0.490,-0.260
5880,-0.500,-0.300
5881,-0.550,-0.270
5882,-0.470,-0.260
5883,-0.550,-0.240
5884,-0.560,-0.300
5885,-0.610,-0.250
5886,-0.700,-0.310
5887,-0.560,-0.360
5888,-0.470,-0.310
5889,-0.540,-0.230
5890,-0.480,-0.300
5891,-0.700,-0.310
5892,-0.740,-0.150
5893,0.380,0.400
5894,1.590,1.000
5895,2.360,0.260
5896,1.940,-0.820
5897,-0.350,-1.770
5898,-0.370,-2.290
5899,-0.280,-1.310
5900,-0.390,-0.630
5901,-0.320,-0.420
5902,-0.460,-0.280
5903,-0.470,-0.330
5904,-0.490,-0.280
5905,-0.460,-0.230
5906,-0.450,-0.190
5907,-0.460,-0.160
5908,-0.520,-0.120
5909,-0.560,-0.170
5910,-0.410,-0.140
5911,-0.470,-0.040
5912,-0.450,-0.050
5913,-0.510,-0.020
5914,-0.470,-0.040
5915,-0.330,0.030
5916,-0.420,0.110
5917,-0.500,0.140
5918,-0.320,0.070
5919,-0.390,0.190
5920,-0.220,0.190
5921,-0.310,0.270
5922,-0.330,0.280
5923,-0.190,0.300
5924,-0.150,0.420
5925,-0.170,0.430
5926,-0.080,0.510
5927,-0.070,0.530
5928,-0.020,0.570
5929,0.010,0.580
5930,-0.010,0.580
5931,0.140,0.580
5932,0.230,0.620
5933,0.230,0.640
5934,0.250,0.630
5935,0.140,0.550
5936,0.210,0.390
5937,0.240,0.370
5938,0.120,0.280
5939,-0.030,0.200
5940,-0.040,0.060
5941,-0.090,0.020
5942,-0.180,-0.050
5943,-0.230,-0.050
5944,-0.340,-0.100
5945,-0.170,-0.120
5946,-0.240,-0.080
5947,-0.210,-0.090
5948,-0.270,-0.050
5949,-0.280,-0.020
5950,-0.360,-0.040
5951,-0.310,0.060
5952,-0.250,0.130
5953,-0.330,0.080
5954,-0.310,0.100
5955,-0.330,0.050
5956,-0.210,0.050
5957,-0.190,0.040
5958,-0.310,0.060
5959,-0.170,0.000
5960,-0.210,0.020
5961,-0.180,0.020
5962,-0.040,0.100
5963,-0.180,0.170
5964,-0.160,0.130
5965,-0.310,0.070
5966,-0.180,0.000
5967,-0.130,0.000
5968,-0.170,0.000
5969,-0.130,-0.040
5970,-0.180,-0.030
5971,-0.170,-0.010
5972,-0.180,-0.040
5973,-0.220,-0.050
5974,-0.230,0.030
5975,-0.250,0.040
5976,-0.240,0.030
5977,-0.150,0.010
5978,-0.200,0.040
5979,-0.300,0.010
5980,-0.260,-0.060
5981,-0.240,-0.080
5982,-0.240,-0.090
5983,-0.220,-0.080
5984,-0.260,-0.090
5985,-0.220,-0.110
5986,-0.270,-0.070
5987,-0.260,-0.140
5988,-0.310,-0.110
5989,-0.230,-0.180
5990,-0.240,-0.120
5991,-0.150,-0.130
5992,-0.170,-0.080
5993,0.050,-0.080
5994,-0.010,0.070
5995,0.010,0.080
5996,0.060,0.110
5997,0.190,0.150
5998,0.090,0.120
5999,0.110,0.100
6000,0.180,0.080
6001,-0.050,0.120
6002,0.020,0.040
6003,-0.130,0.040
6004,-0.260,-0.020
6005,-0.260,0.000
6006,-0.300,-0.100
6007,-0.220,-0.040
6008,-0.270,-0.050
6009,-0.320,-0.030
6010,-0.370,-0.080
6011,-0.390,-0.070
6012,-0.330,-0.140
6013,-0.270,-0.090
6014,-0.380,-0.100
6015,-0.290,-0.140
6016,-0.680,-0.020
6017,-0.470,0.130
6018,0.660,0.750
6019,1.990,1.040
6020,2.730,0.220
6021,1.620,-1.290
6022,0.010,-1.300
6023,0.180,-2.120
6024,-0.110,-0.860
6025,-0.310,-0.220
6026,-0.100,-0.070
6027,-0.470,-0.100
6028,-0.270,0.050
6029,-0.120,0.120
6030,-0.330,0.100
6031,-0.330,0.100
6032,-0.280,0.130
6033,-0.360,0.130
6034,-0.330,0.110
6035,-0.280,0.130
6036,-0.330,0.110
6037,-0.270,0.150
6038,-0.290,0.170
6039,-0.150,0.160
6040,-0.270,0.240
6041,-0.190,0.260
6042,-0.230,0.310
6043,-0.190,0.300
6044,-0.240,0.350
6045,-0.180,0.310
6046,-0.220,0.380
6047,-0.040,0.320
6048,-0.100,0.450
6049,-0.050,0.480
6050,-0.010,0.510
6051,0.090,0.590
6052,0.080,0.680
6053,0.170,0.670
6054,0.160,0.760
6055,0.290,0.730
6056,0.260,0.770
6057,0.300,0.740
6058,0.330,0.750
6059,0.400,0.740
6060,0.410,0.680
6061,0.360,0.630
6062,0.320,0.560
6063,0.260,0.460
6064,0.140,0.380
6065,0.100,0.280
6066,0.050,0.240
6067,0.000,0.220
6068,-0.080,0.110
6069,-0.080,0.140
6070,-0.110,0.110
6071,-0.110,0.100
6072,-0.070,0.100
6073,-0.120,0.030
6074,-0.010,0.030
6075,-0.040,0.060
6076,-0.190,0.070
6077,-0.110,0.000
6078,-0.110,0.050
6079,-0.180,0.110
6080,-0.210,0.070
6081,-0.120,0.070
6082,-0.090,0.110
6083,-0.110,0.120
6084,-0.090,0.100
6085,-0.050,0.100
6086,-0.130,0.160
6087,-0.020,0.100
6088,-0.030,0.160
6089,-0.060,0.150
6090,-0.070,0.120
6091,-0.030,0.120
6092,-0.100,0.110
6093,-0.040,0.080
6094,-0.110,0.100
6095,0.000,0.080
6096,-0.050,0.130
6097,-0.050,0.080
6098,-0.080,0.110
6099,-0.080,0.070
6100,-0.070,0.130
6101,-0.060,0.100
6102,-0.130,0.090
6103,-0.180,0.110
6104,-0.080,0.050
6105,-0.110,0.080
6106,-0.130,0.080
6107,-0.110,0.070
6108,-0.050,0.060
6109,-0.110,0.130
6110,-0.090,0.080
6111,-0.120,0.110
6112,-0.120,0.100
6113,-0.110,0.080
6114,-0.080,0.080
6115,-0.150,0.120
6116,-0.020,0.060
6117,-0.120,0.100
6118,0.060,0.080
6119,0.130,0.140
6120,0.190,0.200
6121,0.130,0.250
6122,0.250,0.220
6123,0.250,0.300
6124,0.240,0.250
6125,0.290,0.220
6126,0.280,0.210
6127,0.230,0.250
6128,0.050,0.210
6129,-0.020,0.130
6130,-0.070,0.070
6131,-0.090,0.080
6132,-0.120,0.080
6133,-0.150,0.060
6134,-0.230,0.040
6135,-0.200,0.020
6136,-0.190,0.010
6137,-0.220,0.020
6138,-0.190,0.050
6139,-0.250,0.000
6140,-0.180,0.050
6141,-0.090,-0.010
6142,-0.380,0.050
6143,-0.600,0.110
6144,0.360,0.740
6145,1.650,1.250
6146,2.600,0.480
6147,2.690,-0.460
6148,0.150,-1.680
6149,0.110,-2.160
6150,0.050,-1.060
6151,-0.140,-0.430
6152,-0.040,-0.080
6153,-0.200,-0.010
6154,-0.140,0.020
6155,-0.120,0.080
6156,-0.240,0.160
6157,-0.230,0.100
6158,-0.220,0.120
6159,-0.230,0.150
6160,-0.180,0.180
6161,-0.180,0.170
6162,-0.250,0.180
6163,-0.190,0.200
6164,-0.230,0.180
6165,-0.140,0.220
6166,-0.090,0.300
6167,-0.190,0.250
6168,-0.100,0.290
6169,-0.120,0.310
6170,-0.100,0.320
6171,-0.100,0.350
6172,-0.090,0.390
6173,-0.020,0.370
6174,-0.030,0.460
6175,0.070,0.460
6176,0.100,0.550
6177,0.150,0.610
6178,0.200,0.610
6179,0.230,0.680
6180,0.290,0.690
6181,0.330,0.710
6182,0.370,0.730
6183,0.390,0.800
6184,0.430,0.750
6185,0.460,0.750
6186,0.450,0.700
6187,0.530,0.640
6188,0.420,0.610
6189,0.390,0.490
6190,0.270,0.430
6191,0.250,0.320
6192,0.140,0.280
6193,0.040,0.210
6194,0.080,0.140
6195,-0.050,0.150
6196,-0.020,0.050
6197,0.030,0.070
6198,-0.050,0.090
6199,0.050,0.050
6200,-0.070,0.120
6201,0.030,0.070
6202,-0.030,0.080
6203,0.030,0.080
6204,-0.100,0.040
6205,-0.040,0.100
6206,-0.030,0.040
6207,-0.050,0.040
6208,0.020,0.060
6209,-0.020,0.090
6210,0.020,0.050
6211,0.020,0.050
6212,0.060,0.070
6213,0.020,0.080
6214,-0.040,0.080
6215,0.060,0.050
6216,0.010,0.120
6217,-0.020,0.060
6218,-0.020,0.060
6219,-0.020,0.040
6220,0.010,0.050
6221,0.060,0.040
6222,-0.010,0.050
6223,-0.050,0.040
6224,0.000,0.050
6225,-0.080,0.080
6226,-0.080,0.020
6227,-0.030,0.020
6228,-0.100,0.060
6229,-0.070,0.030
6230,-0.070,0.010
6231,-0.140,0.010
6232,-0.030,-0.060
6233,-0.060,0.020
6234,-0.100,-0.030
6235,-0.070,-0.010
6236,-0.140,0.000
6237,-0.060,-0.010
6238,-0.120,0.050
6239,-0.080,-0.020
6240,-0.100,0.020
6241,-0.010,0.020
6242,0.050,0.060
6243,0.100,0.090
6244,0.190,0.140
6245,0.170,0.170
6246,0.200,0.180
6247,0.230,0.160
6248,0.230,0.140
6249,0.360,0.110
6250,0.240,0.170
6251,0.130,0.140
6252,-0.130,0.060
6253,-0.170,-0.060
6254,-0.240,-0.100
6255,-0.190,-0.090
6256,-0.220,-0.150
6257,-0.170,-0.070
6258,-0.210,-0.080
6259,-0.290,-0.070
6260,-0.330,-0.120
6261,-0.280,-0.120
6262,-0.300,-0.120
6263,-0.250,-0.110
6264,-0.230,-0.040
6265,-0.300,-0.090
6266,-0.700,-0.060
6267,-0.220,0.270
6268,0.960,0.740
6269,2.150,1.030
6270,2.690,0.140
6271,1.230,-1.620
6272,-0.040,-1.380
6273,-0.080,-1.920
6274,-0.130,-0.680
6275,-0.140,-0.200
6276,-0.190,-0.050
6277,-0.270,-0.010
6278,-0.230,0.040
6279,-0.200,0.030
6280,-0.320,0.150
6281,-0.300,0.120
6282,-0.250,0.140
6283,-0.210,0.150
6284,-0.330,0.220
6285,-0.270,0.170
6286,-0.270,0.170
6287,-0.190,0.240
6288,-0.230,0.230
6289,-0.250,0.230
6290,-0.240,0.240
6291,-0.130,0.250
6292,-0.160,0.290
6293,-0.120,0.320
6294,-0.170,0.330
6295,-0.120,0.330
6296,-0.110,0.370
6297,-0.010,0.400
6298,-0.050,0.430
6299,-0.010,0.470
6300,0.060,0.480
6301,0.140,0.550
6302,0.080,0.600
6303,0.370,0.590
6304,0.300,0.620
6305,0.340,0.730
6306,0.360,0.710
6307,0.420,0.760
6308,0.450,0.740
6309,0.440,0.690
6310,0.440,0.630
6311,0.460,0.530
6312,0.380,0.460
6313,0.320,0.360
6314,0.290,0.280
6315,0.250,0.210
6316,0.180,0.190
6317,0.110,0.130
6318,0.060,0.080
6319,0.070,0.030
6320,0.030,0.030
6321,-0.060,0.030
6322,0.010,-0.050
6323,0.070,0.000
6324,0.050,0.010
6325,0.100,-0.010
6326,0.090,-0.010
6327,-0.020,0.030
6328,0.060,-0.040
6329,0.030,0.020
6330,-0.040,-0.020
6331,-0.020,-0.040
6332,0.050,0.010
6333,0.040,0.000
6334,0.040,-0.050
6335,0.090,-0.040
6336,0.110,0.010
6337,0.170,-0.030
6338,0.080,0.080
6339,0.130,0.000
6340,0.160,0.000
6341,0.130,0.030
6342,0.120,0.040
6343,0.040,-0.040
6344,0.110,-0.060
6345,0.110,-0.120
6346,0.190,-0.060
6347,0.130,-0.120
6348,0.090,-0.060
6349,0.010,-0.050
6350,0.070,-0.050
6351,0.100,-0.060
6352,0.020,0.070
6353,0.020,-0.060
6354,0.030,-0.040
6355,0.000,-0.050
6356,0.010,-0.040
6357,-0.040,-0.030
6358,0.080,-0.110
6359,-0.040,-0.040
6360,0.060,-0.060
6361,-0.030,-0.100
6362,0.020,-0.100
6363,-0.090,-0.080
6364,0.020,-0.180
6365,-0.070,-0.170
6366,0.030,-0.170
6367,0.190,-0.130
6368,0.070,-0.110
6369,0.230,-0.110
6370,0.350,-0.080
6371,0.180,-0.030
6372,0.290,-0.060
6373,0.280,-0.020
6374,0.410,-0.130
6375,0.340,0.000
6376,0.170,0.030
6377,0.050,-0.040
6378,-0.090,-0.130
6379,-0.140,-0.150
6380,-0.130,-0.200
6381,-0.120,-0.200
6382,-0.220,-0.210
6383,-0.190,-0.230
6384,-0.260,-0.200
6385,-0.230,-0.250
6386,-0.150,-0.230
6387,-0.350,-0.160
6388,-0.260,-0.080
6389,-0.240,-0.190
6390,-0.280,-0.120
6391,-0.730,-0.200
6392,-0.220,0.150
6393,0.900,0.660
6394,2.090,1.060
6395,2.700,0.080
6396,1.530,-1.500
6397,-0.130,-1.640
6398,0.000,-2.180
6399,-0.060,-0.880
6400,-0.140,-0.330
6401,-0.120,-0.110
6402,-0.240,-0.110
6403,-0.150,-0.050
6404,-0.080,-0.050
6405,-0.230,0.040
6406,-0.160,0.040
6407,-0.160,0.040
6408,-0.140,0.040
6409,-0.150,0.080
6410,-0.130,0.070
6411,-0.140,0.070
6412,-0.090,0.060
6413,-0.040,0.090
6414,-0.090,0.130
6415,0.000,0.090
6416,-0.100,0.130
6417,-0.040,0.180
6418,0.040,0.190
6419,-0.130,0.220
6420,0.070,0.200
6421,-0.090,0.310
6422,0.140,0.250
6423,0.020,0.330
6424,0.020,0.410
6425,0.090,0.400
6426,0.180,0.410
6427,0.200,0.490
6428,0.220,0.570
6429,0.340,0.600
6430,0.380,0.650
6431,0.370,0.660
6432,0.340,0.650
6433,0.490,0.620
6434,0.460,0.610
6435,0.430,0.580
6436,0.420,0.490
6437,0.410,0.400
6438,0.340,0.340
6439,0.260,0.280
6440,0.230,0.170
6441,0.080,0.160
6442,0.020,0.080
6443,-0.030,-0.050
6444,-0.060,0.000
6445,-0.010,-0.080
6446,-0.080,-0.020
6447,-0.120,-0.090
6448,-0.010,-0.100
6449,-0.010,-0.080
6450,-0.050,-0.040
6451,-0.110,-0.090
6452,-0.060,-0.050
6453,0.020,-0.030
6454,-0.070,-0.030
6455,-0.110,-0.020
6456,-0.100,0.000
6457,-0.070,0.000
6458,-0.120,-0.010
6459,-0.040,-0.010
6460,-0.020,-0.010
6461,-0.040,0.000
6462,0.000,-0.020
6463,0.010,0.040
6464,-0.100,0.020
6465,-0.010,0.010
6466,0.050,0.070
6467,-0.030,0.040
6468,0.000,0.030
6469,-0.040,0.010
6470,0.010,-0.030
6471,0.000,-0.020
6472,-0.020,-0.020
6473,0.030,0.010
6474,-0.060,0.010
6475,-0.010,-0.020
6476,0.000,0.020
6477,-0.030,0.000
6478,-0.030,-0.040
6479,-0.060,-0.120
6480,-0.140,-0.150
6481,-0.070,-0.180
6482,0.040,-0.120
6483,0.000,-0.190
6484,-0.060,-0.160
6485,-0.030,-0.040
6486,-0.060,0.000
6487,0.070,0.140
6488,-0.170,0.150
6489,-0.060,0.120
6490,0.070,0.130
6491,0.100,0.160
6492,0.060,0.190
6493,0.260,0.300
6494,0.170,0.350
6495,0.220,0.350
6496,0.260,0.310
6497,0.190,0.330
6498,0.370,0.200
6499,0.220,0.420
6500,0.100,0.240
6501,-0.070,0.240
6502,-0.050,0.190
6503,-0.300,0.110
6504,-0.120,0.170
6505,-0.180,0.080
6506,-0.160,0.040
6507,-0.170,0.100
6508,-0.180,-0.060
6509,-0.150,-0.030
6510,-0.150,0.020
6511,-0.280,-0.060
6512,-0.130,-0.070
6513,-0.170,0.020
6514,-0.270,-0.020
6515,-0.750,0.000
6516,0.210,0.550
6517,1.580,0.970
6518,2.540,0.390
6519,2.880,-0.330
6520,0.440,-1.770
6521,0.220,-1.850
6522,0.090,-1.200
6523,-0.060,-0.400
6524,-0.080,-0.080
6525,-0.220,0.050
6526,-0.160,0.130
6527,-0.140,0.180
6528,-0.150,0.320
6529,-0.190,0.210
6530,-0.160,0.220
6531,-0.230,0.370
6532,-0.190,0.250
6533,-0.230,0.290
6534,-0.200,0.300
6535,-0.230,0.250
6536,-0.190,0.290
6537,-0.190,0.360
6538,-0.180,0.330
6539,-0.220,0.370
6540,-0.110,0.290
6541,-0.170,0.400
6542,-0.190,0.430
6543,-0.140,0.380
6544,-0.110,0.530
6545,-0.140,0.540
6546,-0.100,0.560
6547,0.000,0.540
6548,-0.020,0.670
6549,0.060,0.630
6550,0.110,0.740
6551,0.130,0.780
6552,0.240,0.830
6553,0.280,0.920
6554,0.320,0.940
6555,0.330,0.920
6556,0.410,0.870
6557,0.400,0.930
6558,0.480,0.800
6559,0.440,0.760
6560,0.400,0.670
6561,0.340,0.520
6562,0.320,0.470
6563,0.200,0.340
6564,0.160,0.330
6565,0.140,0.290
6566,0.030,0.230
6567,0.090,0.130
6568,-0.050,0.160
6569,-0.050,0.140
6570,0.000,0.050
6571,-0.110,0.180
6572,-0.060,0.050
6573,-0.050,0.060
6574,-0.020,0.140
6575,-0.090,0.110
6576,-0.060,0.100
6577,-0.140,0.120
6578,-0.120,0.090
6579,-0.150,0.100
6580,-0.160,0.120
6581,-0.120,0.080
6582,-0.090,0.130
6583,-0.080,0.110
6584,-0.090,0.150
6585,-0.040,0.130
6586,-0.150,0.160
6587,-0.050,0.040
6588,-0.020,0.160
6589,-0.010,0.190
6590,-0.080,0.150
6591,-0.050,0.040
6592,-0.050,0.160
6593,-0.080,0.050
6594,-0.010,0.060
6595,-0.050,0.070
6596,-0.010,0.060
6597,-0.070,0.050
6598,-0.080,0.030
6599,-0.070,0.030
6600,-0.080,0.010
6601,-0.170,-0.010
6602,-0.140,-0.050
6603,-0.130,-0.080
6604,-0.120,-0.010
6605,-0.110,-0.060
6606,-0.140,-0.080
6607,-0.010,-0.080
6608,-0.030,-0.020
6609,-0.120,-0.070
6610,-0.150,-0.080
6611,-0.060,-0.090
6612,-0.010,-0.110
6613,-0.100,-0.050
6614,0.080,-0.090
6615,0.160,0.020
6616,0.240,0.030
6617,0.290,0.080
6618,0.370,0.060
6619,0.390,0.110
6620,0.280,0.060
6621,0.380,-0.020
6622,0.330,0.020
6623,0.270,0.040
6624,-0.010,-0.040
6625,-0.150,-0.200
6626,-0.130,-0.260
6627,-0.070,-0.240
6628,-0.170,-0.190
6629,-0.170,-0.290
6630,-0.180,-0.260
6631,-0.220,-0.250
6632,-0.210,-0.250
6633,-0.230,-0.250
6634,-0.220,-0.240
6635,-0.340,-0.240
6636,-0.270,-0.290
6637,-0.310,-0.270
6638,-0.760,-0.230
6639,-0.410,0.040
6640,0.770,0.600
6641,2.160,0.900
6642,2.770,-0.050
6643,1.490,-1.900
6644,0.050,-1.810
6645,0.010,-2.360
6646,-0.180,-0.930
6647,-0.180,-0.440
6648,-0.270,-0.280
