'sample interval','ECG0','ECG1'
'0.0078125 sec','mV','mV'
0,-0.065,-0.095
1,0.195,-0.055
2,0.845,-0.085
3,1.885,-0.295
4,1.085,-0.695
5,-0.545,-0.825
6,-0.785,-0.395
7,-0.445,-0.185
8,-0.175,-0.105
9,-0.125,-0.095
10,-0.115,-0.095
11,-0.115,-0.085
12,-0.105,-0.095
13,-0.105,-0.095
14,-0.095,-0.075
15,-0.075,-0.065
16,-0.075,-0.075
17,-0.085,-0.075
18,-0.075,-0.065
19,-0.065,-0.045
20,-0.055,-0.055
21,-0.055,-0.055
22,-0.045,-0.045
23,-0.035,-0.015
24,-0.025,-0.025
25,-0.005,-0.025
26,-0.005,-0.015
27,0.015,0.005
28,0.025,0.015
29,0.035,0.015
30,0.055,0.025
31,0.065,0.045
32,0.075,0.045
33,0.085,0.025
34,0.085,0.025
35,0.075,0.045
36,0.075,0.025
37,0.075,0.005
38,0.075,-0.005
39,0.065,-0.005
40,0.045,-0.025
41,0.015,-0.055
42,-0.005,-0.075
43,-0.025,-0.065
44,-0.045,-0.095
45,-0.085,-0.105
46,-0.095,-0.105
47,-0.095,-0.105
48,-0.115,-0.115
49,-0.115,-0.115
50,-0.135,-0.115
51,-0.105,-0.095
52,-0.105,-0.095
53,-0.095,-0.105
54,-0.095,-0.105
55,-0.095,-0.095
56,-0.095,-0.095
57,-0.085,-0.095
58,-0.105,-0.105
59,-0.095,-0.085
60,-0.095,-0.085
61,-0.085,-0.105
62,-0.085,-0.095
63,-0.105,-0.095
64,-0.115,-0.095
65,-0.115,-0.105
66,-0.115,-0.105
67,-0.115,-0.105
68,-0.125,-0.105
69,-0.135,-0.115
70,-0.115,-0.105
71,-0.115,-0.105
72,-0.125,-0.095
73,-0.115,-0.095
74,-0.105,-0.075
75,-0.095,-0.055
76,-0.055,-0.065
77,-0.065,-0.085
78,-0.015,-0.065
79,-0.005,-0.065
80,0.005,-0.075
81,-0.065,-0.115
82,-0.105,-0.115
83,-0.135,-0.115
84,-0.165,-0.125
85,-0.165,-0.135
86,-0.155,-0.135
87,-0.165,-0.125
88,-0.185,-0.135
89,-0.185,-0.145
90,-0.195,-0.135
91,-0.195,-0.135
92,-0.205,-0.135
93,-0.185,-0.135
94,-0.175,-0.125
95,-0.195,-0.125
96,-0.185,-0.125
97,-0.185,-0.135
98,-0.195,-0.115
99,-0.185,-0.075
100,0.005,-0.035
101,0.455,0.015
102,1.535,-0.175
103,1.565,-0.505
104,-0.265,-0.835
105,-0.915,-0.505
106,-0.665,-0.205
107,-0.325,-0.085
108,-0.215,-0.065
109,-0.225,-0.065
110,-0.215,-0.055
111,-0.195,-0.045
112,-0.205,-0.045
113,-0.205,-0.055
114,-0.185,-0.045
115,-0.185,-0.035
116,-0.185,-0.025
117,-0.185,-0.035
118,-0.175,-0.025
119,-0.155,-0.015
120,-0.145,-0.015
121,-0.155,-0.015
122,-0.145,-0.005
123,-0.145,-0.005
124,-0.115,0.015
125,-0.115,0.005
126,-0.105,0.005
127,-0.095,0.035
128,-0.085,0.045
129,-0.065,0.055
130,-0.045,0.055
131,-0.055,0.075
132,-0.035,0.085
133,-0.025,0.085
134,-0.025,0.065
135,-0.025,0.065
136,-0.035,0.045
137,-0.045,0.025
138,-0.035,0.015
139,-0.035,0.005
140,-0.065,-0.015
141,-0.085,-0.045
142,-0.125,-0.065
143,-0.145,-0.065
144,-0.165,-0.075
145,-0.195,-0.095
146,-0.215,-0.105
147,-0.215,-0.105
148,-0.215,-0.095
149,-0.215,-0.105
150,-0.215,-0.105
151,-0.215,-0.095
152,-0.205,-0.095
153,-0.205,-0.085
154,-0.195,-0.085
155,-0.195,-0.085
156,-0.185,-0.075
157,-0.195,-0.085
158,-0.175,-0.075
159,-0.165,-0.065
160,-0.175,-0.065
161,-0.185,-0.085
162,-0.195,-0.085
163,-0.195,-0.075
164,-0.185,-0.085
165,-0.195,-0.105
166,-0.195,-0.095
167,-0.205,-0.095
168,-0.205,-0.085
169,-0.205,-0.105
170,-0.205,-0.095
171,-0.205,-0.095
172,-0.205,-0.095
173,-0.195,-0.105
174,-0.195,-0.095
175,-0.195,-0.095
176,-0.205,-0.085
177,-0.165,-0.065
178,-0.165,-0.055
179,-0.145,-0.045
180,-0.135,-0.055
181,-0.125,-0.065
182,-0.075,-0.065
183,-0.065,-0.045
184,-0.055,-0.055
185,-0.055,-0.075
186,-0.095,-0.085
187,-0.135,-0.085
188,-0.185,-0.105
189,-0.195,-0.115
190,-0.195,-0.115
191,-0.205,-0.115
192,-0.205,-0.115
193,-0.195,-0.115
194,-0.215,-0.115
195,-0.215,-0.115
196,-0.215,-0.115
197,-0.215,-0.125
198,-0.205,-0.115
199,-0.205,-0.115
200,-0.195,-0.115
201,-0.185,-0.115
202,-0.195,-0.105
203,-0.195,-0.065
204,-0.045,-0.025
205,0.405,-0.005
206,1.525,-0.225
207,1.835,-0.475
208,-0.035,-0.855
209,-0.895,-0.565
210,-0.685,-0.225
211,-0.315,-0.055
212,-0.215,-0.035
213,-0.215,-0.055
214,-0.205,-0.035
215,-0.195,-0.025
216,-0.195,-0.025
217,-0.195,-0.035
218,-0.195,-0.025
219,-0.165,-0.015
220,-0.165,-0.015
221,-0.155,-0.015
222,-0.145,-0.015
223,-0.145,0.015
224,-0.135,0.005
225,-0.135,0.005
226,-0.115,0.015
227,-0.115,0.035
228,-0.105,0.045
229,-0.085,0.045
230,-0.075,0.045
231,-0.055,0.085
232,-0.055,0.085
233,-0.045,0.095
234,-0.015,0.105
235,-0.005,0.125
236,0.005,0.125
237,0.005,0.115
238,0.025,0.105
239,0.035,0.105
240,0.015,0.095
241,0.015,0.065
242,0.005,0.045
243,0.015,0.045
244,-0.005,0.025
245,-0.035,-0.015
246,-0.065,-0.035
247,-0.095,-0.045
248,-0.125,-0.065
249,-0.155,-0.085
250,-0.175,-0.095
251,-0.175,-0.085
252,-0.175,-0.095
253,-0.165,-0.095
254,-0.155,-0.085
255,-0.155,-0.085
256,-0.155,-0.085
257,-0.155,-0.085
258,-0.145,-0.075
259,-0.135,-0.065
260,-0.135,-0.075
261,-0.145,-0.075
262,-0.125,-0.065
263,-0.125,-0.055
264,-0.125,-0.065
265,-0.125,-0.075
266,-0.145,-0.075
267,-0.135,-0.065
268,-0.135,-0.085
269,-0.135,-0.095
270,-0.135,-0.095
271,-0.135,-0.085
272,-0.145,-0.085
273,-0.145,-0.095
274,-0.135,-0.105
275,-0.135,-0.095
276,-0.135,-0.095
277,-0.135,-0.095
278,-0.135,-0.105
279,-0.125,-0.095
280,-0.135,-0.095
281,-0.135,-0.095
282,-0.125,-0.095
283,-0.085,-0.065
284,-0.075,-0.055
285,-0.055,-0.065
286,-0.045,-0.055
287,-0.015,-0.055
288,0.005,-0.055
289,0.015,-0.055
290,0.045,-0.055
291,0.045,-0.065
292,-0.005,-0.085
293,-0.045,-0.095
294,-0.075,-0.095
295,-0.085,-0.105
296,-0.105,-0.115
297,-0.105,-0.125
298,-0.095,-0.115
299,-0.105,-0.115
300,-0.105,-0.115
301,-0.115,-0.115
302,-0.105,-0.115
303,-0.095,-0.115
304,-0.095,-0.105
305,-0.095,-0.115
306,-0.085,-0.115
307,-0.075,-0.105
308,-0.055,-0.095
309,-0.105,-0.075
310,0.015,-0.045
311,0.355,0.025
312,1.205,-0.135
313,2.135,-0.365
314,0.575,-0.785
315,-0.715,-0.665
316,-0.635,-0.285
317,-0.255,-0.095
318,-0.085,-0.045
319,-0.065,-0.035
320,-0.065,-0.025
321,-0.065,-0.025
322,-0.055,-0.045
323,-0.055,-0.025
324,-0.055,-0.015
325,-0.035,-0.015
326,-0.025,-0.015
327,-0.005,-0.005
328,-0.015,-0.005
329,-0.005,0.005
330,0.015,-0.005
331,0.015,0.005
332,0.025,0.015
333,0.035,0.025
334,0.045,0.025
335,0.075,0.045
336,0.075,0.065
337,0.095,0.065
338,0.105,0.065
339,0.105,0.085
340,0.135,0.105
341,0.155,0.105
342,0.155,0.105
343,0.175,0.095
344,0.165,0.085
345,0.165,0.075
346,0.165,0.045
347,0.165,0.055
348,0.155,0.025
349,0.135,0.005
350,0.125,-0.005
351,0.095,-0.015
352,0.055,-0.035
353,0.035,-0.065
354,-0.005,-0.075
355,-0.015,-0.075
356,-0.015,-0.085
357,-0.015,-0.095
358,0.005,-0.085
359,-0.005,-0.075
360,-0.015,-0.085
361,-0.005,-0.085
362,-0.015,-0.075
363,0.005,-0.075
364,0.005,-0.075
365,-0.005,-0.075
366,0.015,-0.065
367,0.035,-0.065
368,0.025,-0.075
369,0.015,-0.085
370,0.005,-0.075
371,0.005,-0.065
372,0.015,-0.075
373,0.015,-0.085
374,0.015,-0.085
375,0.015,-0.075
376,-0.005,-0.095
377,-0.005,-0.095
378,-0.005,-0.095
379,-0.005,-0.085
380,-0.005,-0.085
381,0.005,-0.095
382,0.025,-0.085
383,0.025,-0.065
384,0.035,-0.055
385,0.055,-0.055
386,0.075,-0.055
387,0.085,-0.055
388,0.135,-0.035
389,0.145,-0.055
390,0.145,-0.065
391,0.085,-0.105
392,0.055,-0.095
393,0.025,-0.105
394,0.005,-0.115
395,0.005,-0.115
396,-0.015,-0.125
397,-0.025,-0.125
398,-0.015,-0.125
399,-0.015,-0.115
400,-0.025,-0.115
401,-0.035,-0.135
402,-0.025,-0.115
403,-0.015,-0.105
404,-0.015,-0.125
405,-0.015,-0.115
406,0.005,-0.115
407,0.025,-0.105
408,0.005,-0.105
409,-0.025,-0.085
410,0.145,-0.055
411,0.605,0.025
412,1.645,-0.155
413,1.825,-0.485
414,-0.115,-0.805
415,-0.745,-0.455
416,-0.455,-0.175
417,-0.115,-0.105
418,-0.015,-0.065
419,-0.015,-0.055
420,-0.005,-0.045
421,-0.005,-0.065
422,0.005,-0.055
423,0.005,-0.045
424,0.005,-0.055
425,0.015,-0.045
426,0.015,-0.045
427,0.035,-0.025
428,0.025,-0.035
429,0.025,-0.035
430,0.045,-0.025
431,0.055,-0.005
432,0.055,-0.015
433,0.055,-0.015
434,0.055,-0.005
435,0.085,0.025
436,0.095,0.025
437,0.105,0.025
438,0.115,0.045
439,0.115,0.065
440,0.125,0.065
441,0.135,0.065
442,0.125,0.065
443,0.135,0.065
444,0.115,0.045
445,0.115,0.025
446,0.125,0.025
447,0.115,0.025
448,0.095,-0.005
449,0.075,-0.025
450,0.045,-0.045
451,0.025,-0.045
452,-0.005,-0.065
453,-0.035,-0.095
454,-0.045,-0.095
455,-0.065,-0.095
456,-0.085,-0.105
457,-0.105,-0.115
458,-0.105,-0.105
459,-0.105,-0.095
460,-0.095,-0.095
461,-0.095,-0.105
462,-0.095,-0.095
463,-0.085,-0.075
464,-0.085,-0.085
465,-0.085,-0.095
466,-0.085,-0.095
467,-0.085,-0.075
468,-0.085,-0.085
469,-0.075,-0.085
470,-0.075,-0.095
471,-0.075,-0.085
472,-0.095,-0.085
473,-0.105,-0.095
474,-0.095,-0.105
475,-0.105,-0.095
476,-0.105,-0.105
477,-0.105,-0.105
478,-0.115,-0.115
479,-0.105,-0.105
480,-0.115,-0.105
481,-0.115,-0.105
482,-0.105,-0.105
483,-0.105,-0.095
484,-0.085,-0.065
485,-0.075,-0.065
486,-0.045,-0.065
487,-0.035,-0.065
488,0.005,-0.065
489,-0.005,-0.065
490,0.025,-0.075
491,-0.025,-0.095
492,-0.055,-0.115
493,-0.095,-0.115
494,-0.115,-0.135
495,-0.125,-0.135
496,-0.135,-0.135
497,-0.135,-0.145
498,-0.145,-0.145
499,-0.145,-0.135
500,-0.155,-0.135
501,-0.155,-0.145
502,-0.155,-0.145
503,-0.145,-0.135
504,-0.135,-0.125
505,-0.145,-0.135
506,-0.135,-0.135
507,-0.125,-0.125
508,-0.135,-0.125
509,-0.135,-0.085
510,0.065,-0.045
511,0.655,-0.015
512,1.795,-0.235
513,1.405,-0.595
514,-0.445,-0.835
515,-0.815,-0.405
516,-0.445,-0.145
517,-0.195,-0.065
518,-0.135,-0.065
519,-0.135,-0.045
520,-0.135,-0.045
521,-0.125,-0.055
522,-0.125,-0.055
523,-0.115,-0.045
524,-0.115,-0.035
525,-0.105,-0.035
526,-0.085,-0.025
527,-0.085,-0.015
528,-0.075,-0.025
529,-0.075,-0.015
530,-0.075,-0.005
531,-0.055,0.015
532,-0.045,0.015
533,-0.045,0.015
534,-0.025,0.035
535,-0.015,0.055
536,-0.005,0.055
537,0.005,0.065
538,0.015,0.075
539,0.045,0.105
540,0.045,0.095
541,0.065,0.095
542,0.065,0.095
543,0.065,0.105
544,0.055,0.095
545,0.065,0.075
546,0.055,0.055
547,0.055,0.055
548,0.055,0.025
549,0.035,-0.005
550,0.005,-0.015
551,-0.035,-0.035
552,-0.065,-0.055
553,-0.095,-0.085
554,-0.115,-0.085
555,-0.135,-0.085
556,-0.145,-0.095
557,-0.145,-0.105
558,-0.135,-0.105
559,-0.135,-0.095
560,-0.145,-0.095
561,-0.145,-0.095
562,-0.135,-0.085
563,-0.115,-0.075
564,-0.125,-0.075
565,-0.125,-0.085
566,-0.115,-0.075
567,-0.105,-0.065
568,-0.115,-0.075
569,-0.115,-0.085
570,-0.125,-0.085
571,-0.115,-0.075
572,-0.115,-0.075
573,-0.125,-0.085
574,-0.125,-0.095
575,-0.125,-0.095
576,-0.135,-0.095
577,-0.125,-0.105
578,-0.135,-0.095
579,-0.135,-0.095
580,-0.135,-0.095
581,-0.135,-0.105
582,-0.125,-0.105
583,-0.135,-0.095
584,-0.135,-0.105
585,-0.135,-0.115
586,-0.145,-0.105
587,-0.125,-0.095
588,-0.135,-0.095
589,-0.135,-0.105
590,-0.115,-0.085
591,-0.075,-0.055
592,-0.085,-0.065
593,-0.065,-0.065
594,-0.075,-0.075
595,-0.025,-0.055
596,-0.005,-0.055
597,-0.005,-0.065
598,0.025,-0.065
599,-0.015,-0.095
600,-0.045,-0.085
601,-0.085,-0.105
602,-0.125,-0.125
603,-0.125,-0.125
604,-0.125,-0.125
605,-0.135,-0.135
606,-0.135,-0.125
607,-0.145,-0.115
608,-0.145,-0.125
609,-0.135,-0.125
610,-0.145,-0.125
611,-0.145,-0.115
612,-0.135,-0.115
613,-0.135,-0.125
614,-0.105,-0.125
615,-0.105,-0.115
616,-0.135,-0.095
617,-0.115,-0.065
618,0.125,-0.005
619,0.955,-0.105
620,2.125,-0.335
621,0.755,-0.805
622,-0.695,-0.725
623,-0.715,-0.295
624,-0.305,-0.075
625,-0.145,-0.035
626,-0.135,-0.035
627,-0.105,-0.025
628,-0.115,-0.035
629,-0.095,-0.025
630,-0.095,-0.025
631,-0.095,-0.015
632,-0.105,-0.015
633,-0.085,-0.015
634,-0.085,-0.015
635,-0.075,0.005
636,-0.065,0.005
637,-0.055,0.005
638,-0.045,0.015
639,-0.035,0.025
640,-0.045,0.025
641,-0.035,0.035
642,-0.015,0.055
643,-0.005,0.065
644,0.005,0.065
645,0.005,0.085
646,0.035,0.095
647,0.055,0.125
648,0.055,0.115
649,0.065,0.125
650,0.085,0.115
651,0.095,0.125
652,0.085,0.105
653,0.075,0.105
654,0.075,0.085
655,0.095,0.075
656,0.075,0.055
657,0.065,0.045
658,0.055,0.005
659,0.025,-0.005
660,-0.005,-0.025
661,-0.035,-0.045
662,-0.065,-0.075
663,-0.075,-0.075
664,-0.095,-0.085
665,-0.115,-0.095
666,-0.105,-0.095
667,-0.105,-0.085
668,-0.095,-0.085
669,-0.105,-0.095
670,-0.105,-0.085
671,-0.085,-0.075
672,-0.075,-0.065
673,-0.085,-0.075
674,-0.075,-0.085
675,-0.085,-0.065
676,-0.065,-0.055
677,-0.065,-0.065
678,-0.065,-0.085
679,-0.075,-0.075
680,-0.085,-0.065
681,-0.075,-0.075
682,-0.085,-0.095
683,-0.095,-0.085
684,-0.095,-0.085
685,-0.095,-0.095
686,-0.095,-0.105
687,-0.085,-0.095
688,-0.095,-0.095
689,-0.105,-0.105
690,-0.095,-0.105
691,-0.095,-0.095
692,-0.095,-0.105
693,-0.095,-0.105
694,-0.095,-0.115
695,-0.075,-0.095
696,-0.095,-0.105
697,-0.085,-0.095
698,-0.055,-0.075
699,-0.025,-0.055
700,-0.025,-0.065
701,-0.015,-0.065
702,0.005,-0.075
703,0.045,-0.055
704,0.055,-0.055
705,0.085,-0.075
706,0.055,-0.095
707,0.015,-0.095
708,-0.045,-0.095
709,-0.065,-0.115
710,-0.075,-0.125
711,-0.065,-0.125
712,-0.085,-0.125
713,-0.085,-0.135
714,-0.085,-0.125
715,-0.085,-0.125
716,-0.095,-0.135
717,-0.095,-0.125
718,-0.085,-0.115
719,-0.075,-0.115
720,-0.075,-0.125
721,-0.065,-0.135
722,-0.055,-0.115
723,-0.075,-0.085
724,-0.005,-0.065
725,0.295,-0.015
726,1.135,-0.125
727,2.065,-0.315
728,1.035,-0.715
729,-0.515,-0.815
730,-0.775,-0.405
731,-0.405,-0.155
732,-0.135,-0.055
733,-0.085,-0.055
734,-0.065,-0.055
735,-0.065,-0.035
736,-0.055,-0.035
737,-0.055,-0.045
738,-0.055,-0.045
739,-0.055,-0.025
740,-0.045,-0.025
741,-0.025,-0.025
742,-0.015,-0.025
743,-0.025,-0.015
744,-0.015,-0.015
745,-0.015,-0.015
746,-0.005,-0.015
747,0.005,0.005
748,0.015,0.015
749,0.025,0.015
750,0.045,0.035
751,0.065,0.045
752,0.055,0.045
753,0.075,0.065
754,0.085,0.075
755,0.115,0.095
756,0.115,0.085
757,0.105,0.075
758,0.125,0.085
759,0.125,0.085
760,0.115,0.065
761,0.105,0.045
762,0.095,0.025
763,0.105,0.025
764,0.105,0.005
765,0.075,-0.015
766,0.055,-0.035
767,0.025,-0.035
768,-0.005,-0.055
769,-0.025,-0.075
770,-0.055,-0.085
771,-0.065,-0.075
772,-0.065,-0.085
773,-0.065,-0.095
774,-0.065,-0.085
775,-0.065,-0.085
776,-0.075,-0.085
777,-0.065,-0.085
778,-0.055,-0.075
779,-0.045,-0.075
780,-0.055,-0.075
781,-0.055,-0.075
782,-0.045,-0.075
783,-0.045,-0.075
784,-0.045,-0.085
785,-0.055,-0.095
786,-0.065,-0.085
787,-0.055,-0.075
788,-0.055,-0.085
789,-0.065,-0.105
790,-0.065,-0.095
791,-0.055,-0.095
792,-0.085,-0.095
793,-0.075,-0.105
794,-0.085,-0.095
795,-0.085,-0.095
796,-0.075,-0.105
797,-0.075,-0.095
798,-0.055,-0.075
799,-0.035,-0.055
800,-0.035,-0.065
801,-0.005,-0.065
802,-0.015,-0.055
803,0.045,-0.055
804,0.045,-0.055
805,0.065,-0.075
806,0.005,-0.095
807,-0.015,-0.095
808,-0.055,-0.095
809,-0.075,-0.115
810,-0.095,-0.125
811,-0.105,-0.125
812,-0.095,-0.125
813,-0.105,-0.125
814,-0.105,-0.125
815,-0.105,-0.115
816,-0.115,-0.115
817,-0.115,-0.125
818,-0.125,-0.135
819,-0.125,-0.115
820,-0.115,-0.115
821,-0.105,-0.125
822,-0.095,-0.125
823,-0.075,-0.105
824,-0.115,-0.085
825,-0.045,-0.075
826,0.215,-0.025
827,0.945,-0.035
828,1.935,-0.255
829,1.065,-0.625
830,-0.555,-0.795
831,-0.825,-0.385
832,-0.495,-0.165
833,-0.205,-0.095
834,-0.125,-0.065
835,-0.135,-0.055
836,-0.115,-0.045
837,-0.115,-0.045
838,-0.125,-0.065
839,-0.105,-0.045
840,-0.115,-0.035
841,-0.095,-0.035
842,-0.095,-0.045
843,-0.105,-0.035
844,-0.095,-0.025
845,-0.095,-0.025
846,-0.085,-0.025
847,-0.065,-0.025
848,-0.075,-0.005
849,-0.065,-0.005
850,-0.045,-0.005
851,-0.055,0.005
852,-0.045,0.025
853,-0.035,0.025
854,-0.015,0.025
855,0.005,0.055
856,0.015,0.065
857,0.005,0.055
858,0.005,0.045
859,0.005,0.055
860,0.005,0.055
861,-0.005,0.045
862,-0.015,0.005
863,-0.015,0.015
864,-0.025,0.005
865,-0.035,-0.015
866,-0.055,-0.035
867,-0.095,-0.055
868,-0.115,-0.065
869,-0.135,-0.075
870,-0.165,-0.095
871,-0.175,-0.085
872,-0.195,-0.095
873,-0.205,-0.105
874,-0.205,-0.105
875,-0.205,-0.095
876,-0.195,-0.095
877,-0.205,-0.105
878,-0.195,-0.105
879,-0.185,-0.095
880,-0.185,-0.085
881,-0.175,-0.095
882,-0.185,-0.095
883,-0.175,-0.085
884,-0.185,-0.095
885,-0.195,-0.105
886,-0.185,-0.095
887,-0.185,-0.085
888,-0.195,-0.095
889,-0.195,-0.105
890,-0.215,-0.105
891,-0.205,-0.095
892,-0.205,-0.105
893,-0.215,-0.115
894,-0.215,-0.115
895,-0.225,-0.105
896,-0.215,-0.105
897,-0.205,-0.105
898,-0.185,-0.095
899,-0.185,-0.075
900,-0.165,-0.075
901,-0.135,-0.075
902,-0.115,-0.075
903,-0.085,-0.065
904,-0.095,-0.075
905,-0.095,-0.085
906,-0.145,-0.115
907,-0.165,-0.105
908,-0.195,-0.115
909,-0.235,-0.145
910,-0.235,-0.145
911,-0.235,-0.135
912,-0.235,-0.145
913,-0.245,-0.145
914,-0.255,-0.145
915,-0.245,-0.135
916,-0.245,-0.145
917,-0.245,-0.145
918,-0.245,-0.145
919,-0.235,-0.135
920,-0.225,-0.145
921,-0.215,-0.145
922,-0.215,-0.145
923,-0.255,-0.095
924,-0.135,-0.075
925,0.165,-0.025
926,1.015,-0.105
927,2.025,-0.315
928,0.625,-0.725
929,-0.795,-0.805
930,-0.855,-0.375
931,-0.445,-0.135
932,-0.265,-0.065
933,-0.245,-0.075
934,-0.235,-0.065
935,-0.235,-0.065
936,-0.235,-0.055
937,-0.235,-0.055
938,-0.225,-0.055
939,-0.215,-0.035
940,-0.215,-0.035
941,-0.205,-0.045
942,-0.185,-0.035
943,-0.175,-0.025
944,-0.185,-0.025
945,-0.175,-0.025
946,-0.165,-0.015
947,-0.155,-0.005
948,-0.145,0.005
949,-0.145,0.005
950,-0.125,0.015
951,-0.105,0.035
952,-0.095,0.045
953,-0.095,0.055
954,-0.085,0.065
955,-0.055,0.085
956,-0.045,0.095
957,-0.055,0.065
958,-0.045,0.075
959,-0.035,0.075
960,-0.035,0.075
961,-0.045,0.045
962,-0.045,0.025
963,-0.055,0.015
964,-0.055,-0.005
965,-0.085,-0.035
966,-0.115,-0.055
967,-0.145,-0.075
968,-0.185,-0.085
969,-0.215,-0.115
970,-0.225,-0.115
971,-0.225,-0.105
972,-0.235,-0.115
973,-0.235,-0.125
974,-0.235,-0.115
975,-0.215,-0.105
976,-0.215,-0.105
977,-0.205,-0.115
978,-0.215,-0.115
979,-0.205,-0.095
980,-0.205,-0.105
981,-0.195,-0.095
982,-0.185,-0.095
983,-0.185,-0.095
984,-0.195,-0.095
985,-0.195,-0.105
986,-0.205,-0.105
987,-0.195,-0.105
988,-0.205,-0.105
989,-0.215,-0.115
990,-0.215,-0.105
991,-0.205,-0.115
992,-0.205,-0.125
993,-0.205,-0.135
994,-0.215,-0.125
995,-0.205,-0.115
996,-0.205,-0.125
997,-0.205,-0.145
998,-0.205,-0.125
999,-0.205,-0.115
1000,-0.195,-0.115
1001,-0.215,-0.135
1002,-0.195,-0.105
1003,-0.155,-0.075
1004,-0.155,-0.085
1005,-0.145,-0.095
1006,-0.135,-0.095
1007,-0.115,-0.085
1008,-0.075,-0.075
1009,-0.085,-0.085
1010,-0.065,-0.085
1011,-0.065,-0.105
1012,-0.105,-0.115
1013,-0.155,-0.135
1014,-0.185,-0.135
1015,-0.185,-0.145
1016,-0.205,-0.145
1017,-0.195,-0.155
1018,-0.215,-0.155
1019,-0.215,-0.135
1020,-0.215,-0.145
1021,-0.215,-0.155
1022,-0.215,-0.145
1023,-0.205,-0.135
1024,-0.205,-0.145
1025,-0.205,-0.145
1026,-0.185,-0.145
1027,-0.175,-0.135
1028,-0.225,-0.115
1029,-0.145,-0.085
1030,0.155,-0.035
1031,1.095,-0.155
1032,2.045,-0.375
1033,0.475,-0.805
1034,-0.795,-0.755
1035,-0.735,-0.315
1036,-0.355,-0.115
1037,-0.225,-0.075
1038,-0.205,-0.075
1039,-0.195,-0.055
1040,-0.195,-0.055
1041,-0.195,-0.065
1042,-0.195,-0.065
1043,-0.185,-0.045
1044,-0.175,-0.045
1045,-0.165,-0.055
1046,-0.155,-0.045
1047,-0.155,-0.035
1048,-0.145,-0.025
1049,-0.135,-0.025
1050,-0.125,-0.015
1051,-0.115,-0.005
1052,-0.115,0.005
1053,-0.105,0.005
1054,-0.085,0.025
1055,-0.055,0.045
1056,-0.065,0.045
1057,-0.055,0.045
1058,-0.045,0.065
1059,-0.025,0.095
1060,-0.015,0.095
1061,0.005,0.075
1062,0.005,0.085
1063,0.005,0.085
1064,-0.005,0.075
1065,0.005,0.045
1066,0.005,0.045
1067,-0.005,0.025
1068,-0.005,-0.005
1069,-0.045,-0.025
1070,-0.055,-0.045
1071,-0.085,-0.055
1072,-0.115,-0.085
1073,-0.145,-0.115
1074,-0.175,-0.105
1075,-0.165,-0.115
1076,-0.175,-0.115
1077,-0.175,-0.125
1078,-0.165,-0.115
1079,-0.165,-0.105
1080,-0.155,-0.105
1081,-0.145,-0.105
1082,-0.155,-0.105
1083,-0.145,-0.085
1084,-0.145,-0.095
1085,-0.135,-0.095
1086,-0.125,-0.095
1087,-0.135,-0.095
1088,-0.135,-0.095
1089,-0.135,-0.105
1090,-0.145,-0.105
1091,-0.145,-0.105
1092,-0.145,-0.105
1093,-0.145,-0.115
1094,-0.135,-0.115
1095,-0.145,-0.115
1096,-0.145,-0.115
1097,-0.145,-0.125
1098,-0.145,-0.125
1099,-0.145,-0.115
1100,-0.145,-0.115
1101,-0.145,-0.125
1102,-0.135,-0.125
1103,-0.135,-0.125
1104,-0.145,-0.135
1105,-0.145,-0.135
1106,-0.145,-0.125
1107,-0.105,-0.105
1108,-0.095,-0.085
1109,-0.095,-0.085
1110,-0.065,-0.085
1111,-0.045,-0.075
1112,-0.035,-0.095
1113,-0.005,-0.085
1114,-0.005,-0.085
1115,0.025,-0.075
1116,0.005,-0.105
1117,-0.035,-0.125
1118,-0.095,-0.135
1119,-0.105,-0.125
1120,-0.115,-0.145
1121,-0.135,-0.155
1122,-0.135,-0.155
1123,-0.135,-0.135
1124,-0.135,-0.145
1125,-0.145,-0.145
1126,-0.135,-0.145
1127,-0.135,-0.135
1128,-0.135,-0.135
1129,-0.125,-0.145
1130,-0.135,-0.145
1131,-0.105,-0.135
1132,-0.105,-0.135
1133,-0.145,-0.115
1134,-0.025,-0.085
1135,0.305,-0.015
1136,1.105,-0.135
1137,2.085,-0.375
1138,0.535,-0.795
1139,-0.725,-0.715
1140,-0.725,-0.325
1141,-0.335,-0.135
1142,-0.145,-0.065
1143,-0.115,-0.055
1144,-0.115,-0.055
1145,-0.125,-0.065
1146,-0.115,-0.055
1147,-0.105,-0.035
1148,-0.095,-0.035
1149,-0.095,-0.055
1150,-0.075,-0.045
1151,-0.065,-0.035
1152,-0.075,-0.025
1153,-0.065,-0.025
1154,-0.055,-0.025
1155,-0.025,-0.015
1156,-0.035,-0.005
1157,-0.025,-0.005
1158,-0.005,0.005
1159,0.005,0.015
1160,0.015,0.035
1161,0.015,0.025
1162,0.035,0.055
1163,0.055,0.065
1164,0.065,0.075
1165,0.075,0.065
1166,0.085,0.075
1167,0.085,0.075
1168,0.095,0.065
1169,0.085,0.045
1170,0.065,0.025
1171,0.065,0.035
1172,0.075,0.015
1173,0.065,-0.005
1174,0.045,-0.025
1175,0.025,-0.025
1176,0.005,-0.055
1177,-0.025,-0.075
1178,-0.035,-0.075
1179,-0.055,-0.085
1180,-0.075,-0.085
1181,-0.085,-0.105
1182,-0.075,-0.095
1183,-0.075,-0.095
1184,-0.085,-0.085
1185,-0.075,-0.095
1186,-0.065,-0.085
1187,-0.055,-0.085
1188,-0.055,-0.075
1189,-0.065,-0.085
1190,-0.055,-0.085
1191,-0.045,-0.075
1192,-0.055,-0.075
1193,-0.055,-0.075
1194,-0.035,-0.075
1195,-0.045,-0.075
1196,-0.055,-0.085
1197,-0.075,-0.085
1198,-0.065,-0.095
1199,-0.045,-0.085
1200,-0.075,-0.095
1201,-0.075,-0.095
1202,-0.065,-0.105
1203,-0.075,-0.085
1204,-0.075,-0.085
1205,-0.075,-0.105
1206,-0.075,-0.095
1207,-0.045,-0.075
1208,-0.025,-0.055
1209,-0.025,-0.065
1210,0.005,-0.065
1211,0.015,-0.065
1212,0.075,-0.045
1213,0.075,-0.055
1214,0.065,-0.065
1215,0.005,-0.095
1216,-0.015,-0.095
1217,-0.045,-0.105
1218,-0.065,-0.125
1219,-0.085,-0.115
1220,-0.105,-0.115
1221,-0.105,-0.125
1222,-0.095,-0.125
1223,-0.095,-0.115
1224,-0.095,-0.115
1225,-0.115,-0.125
1226,-0.115,-0.135
1227,-0.095,-0.115
1228,-0.095,-0.115
1229,-0.095,-0.125
1230,-0.085,-0.125
1231,-0.065,-0.105
1232,-0.105,-0.085
1233,-0.005,-0.065
1234,0.285,-0.015
1235,1.185,-0.065
1236,2.095,-0.335
1237,0.415,-0.755
1238,-0.765,-0.635
1239,-0.655,-0.235
1240,-0.295,-0.125
1241,-0.135,-0.065
1242,-0.105,-0.055
1243,-0.095,-0.035
1244,-0.095,-0.045
1245,-0.105,-0.055
1246,-0.085,-0.035
1247,-0.085,-0.025
1248,-0.075,-0.035
1249,-0.075,-0.035
1250,-0.085,-0.035
1251,-0.075,-0.015
1252,-0.065,-0.015
1253,-0.055,-0.015
1254,-0.035,-0.005
1255,-0.035,0.005
1256,-0.035,0.005
1257,-0.025,0.005
1258,-0.015,0.025
1259,-0.005,0.035
1260,0.005,0.045
1261,0.005,0.045
1262,0.035,0.065
1263,0.035,0.075
1264,0.035,0.075
1265,0.045,0.065
1266,0.035,0.075
1267,0.035,0.075
1268,0.025,0.045
1269,0.015,0.025
1270,0.015,0.025
1271,0.005,0.025
1272,-0.005,-0.005
1273,-0.015,-0.025
1274,-0.055,-0.035
1275,-0.065,-0.035
1276,-0.105,-0.065
1277,-0.115,-0.075
1278,-0.135,-0.085
1279,-0.155,-0.075
1280,-0.155,-0.085
1281,-0.155,-0.085
1282,-0.165,-0.085
1283,-0.155,-0.085
1284,-0.155,-0.075
1285,-0.145,-0.085
1286,-0.135,-0.075
1287,-0.145,-0.065
1288,-0.135,-0.065
1289,-0.135,-0.065
1290,-0.135,-0.065
1291,-0.125,-0.065
1292,-0.125,-0.055
1293,-0.125,-0.065
1294,-0.125,-0.075
1295,-0.125,-0.065
1296,-0.145,-0.075
1297,-0.145,-0.075
1298,-0.145,-0.085
1299,-0.145,-0.075
1300,-0.155,-0.085
1301,-0.165,-0.085
1302,-0.155,-0.095
1303,-0.135,-0.075
1304,-0.155,-0.085
1305,-0.155,-0.095
1306,-0.155,-0.075
1307,-0.115,-0.045
1308,-0.115,-0.035
1309,-0.095,-0.045
1310,-0.075,-0.045
1311,-0.045,-0.035
1312,-0.015,-0.035
1313,-0.015,-0.045
1314,-0.045,-0.085
1315,-0.075,-0.085
1316,-0.105,-0.075
1317,-0.135,-0.095
1318,-0.155,-0.105
1319,-0.155,-0.105
1320,-0.165,-0.105
1321,-0.165,-0.115
1322,-0.175,-0.115
1323,-0.165,-0.095
1324,-0.175,-0.115
1325,-0.185,-0.115
1326,-0.165,-0.115
1327,-0.155,-0.095
1328,-0.165,-0.105
1329,-0.155,-0.115
1330,-0.155,-0.105
1331,-0.165,-0.085
1332,-0.135,-0.055
1333,0.065,-0.015
1334,0.705,-0.015
1335,1.945,-0.235
1336,1.075,-0.645
1337,-0.585,-0.785
1338,-0.825,-0.355
1339,-0.425,-0.105
1340,-0.205,-0.025
1341,-0.155,-0.025
1342,-0.145,-0.025
1343,-0.145,-0.015
1344,-0.155,-0.025
1345,-0.145,-0.025
1346,-0.145,-0.015
1347,-0.125,-0.005
1348,-0.125,-0.015
1349,-0.125,-0.015
1350,-0.105,-0.005
1351,-0.095,0.015
1352,-0.085,0.005
1353,-0.085,0.005
1354,-0.085,0.015
1355,-0.055,0.035
1356,-0.055,0.035
1357,-0.055,0.035
1358,-0.035,0.055
1359,-0.015,0.075
1360,-0.005,0.085
1361,-0.005,0.085
1362,0.005,0.105
1363,0.025,0.125
1364,0.045,0.125
1365,0.035,0.105
1366,0.045,0.095
1367,0.045,0.115
1368,0.045,0.105
1369,0.045,0.075
1370,0.045,0.055
1371,0.045,0.055
1372,0.035,0.035
1373,0.005,-0.005
1374,-0.015,-0.025
1375,-0.045,-0.035
1376,-0.075,-0.045
1377,-0.105,-0.065
1378,-0.115,-0.075
1379,-0.135,-0.075
1380,-0.135,-0.075
1381,-0.135,-0.085
1382,-0.125,-0.085
1383,-0.125,-0.075
1384,-0.125,-0.075
1385,-0.125,-0.075
1386,-0.105,-0.065
1387,-0.105,-0.055
1388,-0.105,-0.055
1389,-0.105,-0.065
1390,-0.105,-0.065
1391,-0.085,-0.055
1392,-0.095,-0.065
1393,-0.105,-0.065
1394,-0.095,-0.065
1395,-0.095,-0.055
1396,-0.105,-0.065
1397,-0.115,-0.075
1398,-0.125,-0.085
1399,-0.105,-0.075
1400,-0.105,-0.075
1401,-0.115,-0.085
1402,-0.105,-0.095
1403,-0.115,-0.085
1404,-0.105,-0.085
1405,-0.115,-0.095
1406,-0.105,-0.085
1407,-0.105,-0.085
1408,-0.115,-0.085
1409,-0.115,-0.085
1410,-0.105,-0.085
1411,-0.075,-0.055
1412,-0.055,-0.055
1413,-0.065,-0.055
1414,-0.035,-0.045
1415,-0.015,-0.045
1416,0.015,-0.055
1417,0.015,-0.055
1418,0.035,-0.045
1419,0.035,-0.065
1420,-0.005,-0.085
1421,-0.055,-0.095
1422,-0.075,-0.105
1423,-0.105,-0.115
1424,-0.105,-0.115
1425,-0.105,-0.135
1426,-0.125,-0.115
1427,-0.115,-0.105
1428,-0.125,-0.115
1429,-0.125,-0.115
1430,-0.115,-0.115
1431,-0.115,-0.105
1432,-0.115,-0.115
1433,-0.115,-0.125
1434,-0.105,-0.115
1435,-0.075,-0.095
1436,-0.125,-0.085
1437,-0.015,-0.045
1438,0.325,0.015
1439,1.215,-0.125
1440,2.185,-0.365
1441,0.645,-0.805
1442,-0.705,-0.715
1443,-0.705,-0.305
1444,-0.305,-0.095
1445,-0.145,-0.045
1446,-0.105,-0.045
1447,-0.115,-0.035
1448,-0.115,-0.035
1449,-0.105,-0.035
1450,-0.105,-0.035
1451,-0.095,-0.025
1452,-0.085,-0.015
1453,-0.075,-0.025
1454,-0.055,-0.015
1455,-0.065,-0.005
1456,-0.065,-0.015
1457,-0.045,-0.005
1458,-0.045,-0.005
1459,-0.025,0.015
1460,-0.025,0.015
1461,-0.015,0.025
1462,0.005,0.035
1463,0.025,0.055
1464,0.025,0.055
1465,0.035,0.065
1466,0.035,0.085
1467,0.065,0.105
1468,0.065,0.105
1469,0.085,0.095
1470,0.095,0.105
1471,0.095,0.115
1472,0.095,0.095
1473,0.085,0.065
1474,0.075,0.055
1475,0.075,0.055
1476,0.075,0.035
1477,0.075,0.005
1478,0.055,-0.015
1479,0.005,-0.025
1480,-0.015,-0.045
1481,-0.045,-0.075
1482,-0.065,-0.085
1483,-0.075,-0.085
1484,-0.095,-0.095
1485,-0.095,-0.105
1486,-0.095,-0.105
1487,-0.085,-0.095
1488,-0.095,-0.095
1489,-0.095,-0.095
1490,-0.085,-0.095
1491,-0.065,-0.075
1492,-0.075,-0.085
1493,-0.075,-0.085
1494,-0.055,-0.075
1495,-0.055,-0.065
1496,-0.055,-0.085
1497,-0.065,-0.095
1498,-0.065,-0.095
1499,-0.065,-0.085
1500,-0.065,-0.085
1501,-0.075,-0.105
1502,-0.055,-0.095
1503,-0.065,-0.095
1504,-0.065,-0.095
1505,-0.065,-0.115
1506,-0.075,-0.115
1507,-0.095,-0.105
1508,-0.075,-0.105
1509,-0.085,-0.115
1510,-0.075,-0.115
1511,-0.075,-0.105
1512,-0.075,-0.105
1513,-0.075,-0.105
1514,-0.065,-0.105
1515,-0.055,-0.075
1516,-0.025,-0.065
1517,-0.025,-0.075
1518,-0.005,-0.065
1519,0.005,-0.055
1520,0.035,-0.065
1521,0.065,-0.065
1522,0.065,-0.065
1523,0.105,-0.055
1524,0.065,-0.095
1525,0.025,-0.095
1526,-0.015,-0.105
1527,-0.045,-0.105
1528,-0.045,-0.115
1529,-0.045,-0.125
1530,-0.065,-0.125
1531,-0.065,-0.125
1532,-0.065,-0.115
1533,-0.055,-0.125
1534,-0.055,-0.115
1535,-0.055,-0.115
1536,-0.065,-0.125
1537,-0.055,-0.125
1538,-0.055,-0.115
1539,-0.055,-0.115
1540,-0.025,-0.115
1541,-0.055,-0.105
1542,-0.005,-0.065
1543,0.235,-0.015
1544,0.905,-0.055
1545,1.955,-0.285
1546,1.335,-0.655
1547,-0.395,-0.815
1548,-0.745,-0.415
1549,-0.425,-0.175
1550,-0.125,-0.075
1551,-0.045,-0.035
1552,-0.055,-0.045
1553,-0.035,-0.035
1554,-0.035,-0.045
1555,-0.025,-0.035
1556,-0.015,-0.035
1557,-0.015,-0.045
1558,-0.015,-0.035
1559,0.005,-0.015
1560,0.015,-0.015
1561,0.005,-0.015
1562,0.015,-0.015
1563,0.025,-0.005
1564,0.045,0.005
1565,0.035,-0.005
1566,0.045,0.015
1567,0.075,0.025
1568,0.075,0.035
1569,0.085,0.045
1570,0.105,0.045
1571,0.105,0.065
1572,0.125,0.095
1573,0.155,0.085
1574,0.165,0.085
1575,0.175,0.095
1576,0.145,0.095
1577,0.155,0.085
1578,0.165,0.065
1579,0.145,0.055
1580,0.145,0.045
1581,0.145,0.025
1582,0.125,0.005
1583,0.125,-0.005
1584,0.095,-0.025
1585,0.055,-0.055
1586,0.035,-0.065
1587,0.015,-0.065
1588,-0.005,-0.075
1589,-0.015,-0.085
1590,-0.005,-0.095
1591,-0.015,-0.075
1592,-0.025,-0.075
1593,-0.015,-0.075
1594,-0.015,-0.075
1595,-0.005,-0.065
1596,-0.005,-0.075
1597,-0.005,-0.065
1598,-0.005,-0.065
1599,0.015,-0.055
1600,0.005,-0.065
1601,0.005,-0.075
1602,-0.005,-0.065
1603,-0.005,-0.065
1604,-0.005,-0.065
1605,-0.005,-0.075
1606,-0.005,-0.075
1607,-0.015,-0.075
1608,-0.025,-0.075
1609,-0.025,-0.085
1610,-0.025,-0.085
1611,-0.005,-0.075
1612,-0.025,-0.085
1613,-0.035,-0.085
1614,-0.015,-0.075
1615,-0.015,-0.065
1616,0.005,-0.075
1617,0.025,-0.055
1618,0.015,-0.035
1619,0.045,-0.025
1620,0.065,-0.045
1621,0.085,-0.055
1622,0.115,-0.035
1623,0.125,-0.025
1624,0.105,-0.055
1625,0.055,-0.095
1626,0.025,-0.075
1627,0.025,-0.075
1628,-0.025,-0.105
1629,-0.035,-0.115
1630,-0.025,-0.105
1631,-0.025,-0.085
1632,-0.025,-0.095
1633,-0.035,-0.105
1634,-0.055,-0.105
1635,-0.045,-0.095
1636,-0.025,-0.095
1637,-0.045,-0.105
1638,-0.025,-0.095
1639,-0.025,-0.085
1640,-0.015,-0.085
1641,-0.005,-0.095
1642,-0.045,-0.085
1643,0.035,-0.025
1644,0.315,0.025
1645,1.025,-0.025
1646,2.135,-0.265
1647,0.875,-0.695
1648,-0.605,-0.695
1649,-0.695,-0.285
1650,-0.335,-0.125
1651,-0.095,-0.045
1652,-0.035,-0.025
1653,-0.025,-0.035
1654,-0.025,-0.025
1655,-0.015,-0.015
1656,-0.025,-0.025
1657,-0.025,-0.015
1658,-0.005,-0.025
1659,0.005,-0.005
1660,0.005,-0.015
1661,-0.005,-0.015
1662,0.015,-0.005
1663,0.015,0.015
1664,0.025,0.005
1665,0.025,-0.005
1666,0.035,0.005
1667,0.045,0.035
1668,0.055,0.025
1669,0.055,0.035
1670,0.075,0.045
1671,0.095,0.065
1672,0.105,0.075
1673,0.105,0.075
1674,0.115,0.085
1675,0.125,0.095
1676,0.115,0.095
1677,0.115,0.065
1678,0.125,0.065
1679,0.105,0.065
1680,0.085,0.045
1681,0.085,0.025
1682,0.075,0.005
1683,0.075,0.005
1684,0.035,-0.015
1685,0.005,-0.035
1686,-0.005,-0.045
1687,-0.025,-0.035
1688,-0.055,-0.055
1689,-0.075,-0.065
1690,-0.095,-0.075
1691,-0.085,-0.055
1692,-0.085,-0.055
1693,-0.085,-0.065
1694,-0.085,-0.055
1695,-0.075,-0.055
1696,-0.085,-0.055
1697,-0.085,-0.065
1698,-0.085,-0.055
1699,-0.075,-0.045
1700,-0.075,-0.045
1701,-0.085,-0.055
1702,-0.075,-0.045
1703,-0.075,-0.045
1704,-0.085,-0.055
1705,-0.085,-0.055
1706,-0.095,-0.055
1707,-0.085,-0.055
1708,-0.095,-0.065
1709,-0.105,-0.075
1710,-0.115,-0.065
1711,-0.105,-0.055
1712,-0.105,-0.065
1713,-0.115,-0.075
1714,-0.115,-0.065
1715,-0.105,-0.045
1716,-0.095,-0.045
1717,-0.075,-0.035
1718,-0.055,-0.025
1719,-0.025,-0.015
1720,-0.035,-0.025
1721,0.015,-0.025
1722,0.005,-0.025
1723,0.005,-0.025
1724,-0.035,-0.065
1725,-0.075,-0.065
1726,-0.105,-0.075
1727,-0.115,-0.085
1728,-0.135,-0.095
1729,-0.145,-0.095
1730,-0.135,-0.095
1731,-0.155,-0.085
1732,-0.155,-0.075
1733,-0.155,-0.095
1734,-0.155,-0.095
1735,-0.155,-0.095
1736,-0.155,-0.075
1737,-0.145,-0.085
1738,-0.145,-0.095
1739,-0.145,-0.085
1740,-0.125,-0.075
1741,-0.155,-0.065
1742,-0.095,-0.035
1743,0.195,0.035
1744,0.925,-0.015
1745,2.005,-0.225
1746,1.095,-0.625
1747,-0.585,-0.765
1748,-0.825,-0.345
1749,-0.465,-0.115
1750,-0.205,-0.035
1751,-0.155,-0.005
1752,-0.145,-0.005
1753,-0.155,-0.005
1754,-0.155,-0.015
1755,-0.155,-0.005
1756,-0.125,0.005
1757,-0.135,-0.005
1758,-0.125,-0.005
1759,-0.105,0.005
1760,-0.095,0.015
1761,-0.105,0.025
1762,-0.095,0.005
1763,-0.095,0.035
1764,-0.075,0.045
1765,-0.075,0.055
1766,-0.055,0.045
1767,-0.035,0.055
1768,-0.035,0.065
1769,-0.015,0.085
1770,-0.005,0.085
1771,-0.005,0.105
1772,0.015,0.125
1773,0.025,0.125
1774,0.035,0.135
1775,0.055,0.145
1776,0.045,0.135
1777,0.045,0.105
1778,0.035,0.095
1779,0.045,0.085
1780,0.025,0.075
1781,0.025,0.045
1782,0.005,0.015
1783,-0.025,0.005
1784,-0.065,-0.015
1785,-0.105,-0.035
1786,-0.125,-0.045
1787,-0.135,-0.045
1788,-0.145,-0.055
1789,-0.145,-0.075
1790,-0.145,-0.065
1791,-0.145,-0.055
1792,-0.145,-0.055
1793,-0.145,-0.065
1794,-0.155,-0.055
1795,-0.135,-0.035
1796,-0.125,-0.045
1797,-0.125,-0.045
1798,-0.115,-0.045
1799,-0.115,-0.045
1800,-0.115,-0.045
1801,-0.105,-0.055
1802,-0.125,-0.045
1803,-0.115,-0.045
1804,-0.125,-0.045
1805,-0.125,-0.065
1806,-0.125,-0.055
1807,-0.125,-0.055
1808,-0.135,-0.065
1809,-0.135,-0.075
1810,-0.145,-0.065
1811,-0.135,-0.065
1812,-0.145,-0.075
1813,-0.145,-0.085
1814,-0.145,-0.075
1815,-0.135,-0.065
1816,-0.135,-0.065
1817,-0.145,-0.075
1818,-0.145,-0.065
1819,-0.105,-0.045
1820,-0.095,-0.025
1821,-0.095,-0.045
1822,-0.075,-0.035
1823,-0.075,-0.025
1824,-0.045,-0.045
1825,-0.015,-0.035
1826,-0.025,-0.035
1827,0.005,-0.025
1828,-0.025,-0.065
1829,-0.055,-0.075
1830,-0.095,-0.075
1831,-0.135,-0.085
1832,-0.145,-0.095
1833,-0.145,-0.105
1834,-0.155,-0.095
1835,-0.155,-0.095
1836,-0.155,-0.095
1837,-0.155,-0.105
1838,-0.145,-0.105
1839,-0.155,-0.085
1840,-0.155,-0.105
1841,-0.155,-0.105
1842,-0.145,-0.095
1843,-0.125,-0.085
1844,-0.135,-0.095
1845,-0.165,-0.065
1846,0.005,-0.025
1847,0.425,0.035
1848,1.505,-0.185
1849,1.835,-0.465
1850,-0.005,-0.835
1851,-0.835,-0.545
1852,-0.615,-0.205
1853,-0.275,-0.055
1854,-0.165,-0.025
1855,-0.155,-0.015
1856,-0.165,-0.025
1857,-0.165,-0.035
1858,-0.155,-0.025
1859,-0.155,-0.015
1860,-0.145,-0.005
1861,-0.135,-0.015
1862,-0.115,-0.005
1863,-0.115,0.005
1864,-0.115,-0.005
1865,-0.105,0.005
1866,-0.095,0.005
1867,-0.085,0.025
1868,-0.075,0.025
1869,-0.065,0.025
1870,-0.045,0.045
1871,-0.035,0.065
1872,-0.025,0.065
1873,-0.025,0.065
1874,-0.025,0.085
1875,0.005,0.105
1876,0.025,0.115
1877,0.035,0.105
1878,0.045,0.115
1879,0.045,0.125
1880,0.035,0.105
1881,0.055,0.085
1882,0.035,0.075
1883,0.035,0.065
1884,0.035,0.045
1885,0.025,0.015
1886,0.015,0.005
1887,-0.015,-0.015
1888,-0.055,-0.045
1889,-0.075,-0.065
1890,-0.115,-0.075
1891,-0.135,-0.075
1892,-0.145,-0.095
1893,-0.145,-0.105
1894,-0.135,-0.105
1895,-0.135,-0.095
1896,-0.145,-0.085
1897,-0.135,-0.095
1898,-0.125,-0.095
1899,-0.125,-0.085
1900,-0.125,-0.085
1901,-0.115,-0.075
1902,-0.105,-0.085
1903,-0.105,-0.095
1904,-0.125,-0.075
1905,-0.115,-0.085
1906,-0.105,-0.095
1907,-0.115,-0.085
1908,-0.115,-0.085
1909,-0.115,-0.095
1910,-0.115,-0.105
1911,-0.115,-0.105
1912,-0.135,-0.105
1913,-0.135,-0.115
1914,-0.115,-0.115
1915,-0.125,-0.115
1916,-0.125,-0.115
1917,-0.135,-0.125
1918,-0.125,-0.115
1919,-0.115,-0.125
1920,-0.115,-0.115
1921,-0.125,-0.125
1922,-0.125,-0.125
1923,-0.125,-0.115
1924,-0.085,-0.075
1925,-0.065,-0.085
1926,-0.075,-0.095
1927,-0.035,-0.085
1928,-0.035,-0.085
1929,-0.005,-0.085
1930,0.015,-0.075
1931,0.015,-0.085
1932,0.035,-0.085
1933,0.005,-0.115
1934,-0.035,-0.125
1935,-0.075,-0.125
1936,-0.105,-0.145
1937,-0.105,-0.145
1938,-0.105,-0.155
1939,-0.115,-0.145
1940,-0.115,-0.145
1941,-0.125,-0.155
1942,-0.125,-0.145
1943,-0.115,-0.145
1944,-0.115,-0.145
1945,-0.115,-0.155
1946,-0.095,-0.155
1947,-0.105,-0.135
1948,-0.085,-0.135
1949,-0.115,-0.125
1950,0.025,-0.075
1951,0.345,-0.005
1952,1.355,-0.205
1953,2.015,-0.495
1954,0.075,-0.875
1955,-0.805,-0.585
1956,-0.575,-0.245
1957,-0.225,-0.125
1958,-0.115,-0.075
1959,-0.095,-0.075
1960,-0.085,-0.075
1961,-0.085,-0.085
1962,-0.085,-0.075
1963,-0.085,-0.065
1964,-0.075,-0.065
1965,-0.055,-0.065
1966,-0.045,-0.055
1967,-0.055,-0.055
1968,-0.055,-0.055
1969,-0.035,-0.055
1970,-0.035,-0.035
1971,-0.015,-0.025
1972,-0.015,-0.035
1973,-0.005,-0.025
1974,0.015,-0.015
1975,0.025,0.005
1976,0.035,0.005
1977,0.055,0.015
1978,0.045,0.025
1979,0.085,0.045
1980,0.085,0.045
1981,0.095,0.045
1982,0.115,0.045
1983,0.115,0.045
1984,0.105,0.045
1985,0.105,0.005
1986,0.095,0.015
1987,0.105,0.005
1988,0.095,-0.005
1989,0.085,-0.035
1990,0.065,-0.065
1991,0.055,-0.055
1992,0.025,-0.085
1993,-0.005,-0.105
1994,-0.035,-0.115
1995,-0.055,-0.115
1996,-0.065,-0.125
1997,-0.065,-0.125
1998,-0.065,-0.135
1999,-0.065,-0.125
2000,-0.075,-0.125
2001,-0.065,-0.135
2002,-0.075,-0.135
2003,-0.065,-0.115
2004,-0.055,-0.115
2005,-0.055,-0.125
2006,-0.055,-0.125
2007,-0.045,-0.105
2008,-0.055,-0.105
2009,-0.065,-0.115
2010,-0.055,-0.115
2011,-0.045,-0.105
2012,-0.065,-0.115
2013,-0.065,-0.135
2014,-0.065,-0.125
2015,-0.045,-0.115
2016,-0.065,-0.125
2017,-0.085,-0.145
2018,-0.075,-0.135
2019,-0.075,-0.125
2020,-0.065,-0.125
2021,-0.075,-0.135
2022,-0.065,-0.125
2023,-0.045,-0.095
2024,-0.035,-0.085
2025,-0.025,-0.095
2026,0.005,-0.095
2027,0.015,-0.085
2028,0.055,-0.075
2029,0.065,-0.095
2030,0.045,-0.115
2031,-0.005,-0.135
2032,-0.035,-0.125
2033,-0.065,-0.145
2034,-0.085,-0.155
2035,-0.075,-0.145
2036,-0.095,-0.155
2037,-0.105,-0.165
2038,-0.105,-0.165
2039,-0.095,-0.145
2040,-0.105,-0.165
2041,-0.105,-0.165
2042,-0.115,-0.165
2043,-0.105,-0.145
2044,-0.095,-0.145
2045,-0.095,-0.155
2046,-0.085,-0.145
2047,-0.065,-0.145
2048,-0.105,-0.105
2049,0.025,-0.095
2050,0.485,-0.015
2051,1.535,-0.195
2052,1.695,-0.555
2053,-0.255,-0.845
2054,-0.825,-0.465
2055,-0.575,-0.215
2056,-0.225,-0.135
2057,-0.115,-0.095
2058,-0.115,-0.085
2059,-0.095,-0.065
2060,-0.095,-0.085
2061,-0.105,-0.095
2062,-0.095,-0.085
2063,-0.075,-0.065
2064,-0.085,-0.075
2065,-0.075,-0.075
2066,-0.085,-0.065
2067,-0.055,-0.055
2068,-0.055,-0.055
2069,-0.055,-0.065
2070,-0.055,-0.055
2071,-0.045,-0.035
2072,-0.045,-0.035
2073,-0.025,-0.035
2074,-0.025,-0.025
2075,-0.015,-0.005
2076,-0.005,0.005
2077,0.005,0.005
2078,0.015,0.005
2079,0.045,0.045
2080,0.045,0.045
2081,0.035,0.035
2082,0.045,0.025
2083,0.045,0.035
2084,0.035,0.015
2085,0.015,0.005
2086,0.015,-0.005
2087,0.025,-0.015
2088,0.005,-0.025
2089,-0.015,-0.055
2090,-0.025,-0.065
2091,-0.055,-0.075
2092,-0.085,-0.095
2093,-0.115,-0.105
2094,-0.145,-0.115
2095,-0.145,-0.115
2096,-0.175,-0.125
2097,-0.175,-0.125
2098,-0.175,-0.125
2099,-0.175,-0.115
2100,-0.185,-0.115
2101,-0.175,-0.125
2102,-0.165,-0.125
2103,-0.155,-0.105
2104,-0.165,-0.115
2105,-0.175,-0.125
2106,-0.165,-0.115
2107,-0.165,-0.105
2108,-0.155,-0.095
2109,-0.165,-0.115
2110,-0.175,-0.115
2111,-0.165,-0.105
2112,-0.165,-0.095
2113,-0.185,-0.115
2114,-0.175,-0.115
2115,-0.185,-0.115
2116,-0.185,-0.115
2117,-0.185,-0.125
2118,-0.195,-0.135
2119,-0.185,-0.125
2120,-0.195,-0.125
2121,-0.185,-0.125
2122,-0.165,-0.115
2123,-0.145,-0.075
2124,-0.135,-0.075
2125,-0.115,-0.085
2126,-0.105,-0.085
2127,-0.045,-0.065
2128,-0.055,-0.075
2129,-0.065,-0.105
2130,-0.115,-0.135
2131,-0.135,-0.115
2132,-0.175,-0.125
2133,-0.205,-0.145
2134,-0.195,-0.155
2135,-0.205,-0.145
2136,-0.225,-0.155
2137,-0.215,-0.165
2138,-0.225,-0.145
2139,-0.225,-0.145
2140,-0.235,-0.145
2141,-0.235,-0.155
2142,-0.215,-0.145
2143,-0.215,-0.135
2144,-0.205,-0.145
2145,-0.195,-0.145
2146,-0.235,-0.125
2147,-0.185,-0.085
2148,0.025,-0.035
2149,0.685,-0.065
2150,1.895,-0.295
2151,1.255,-0.655
2152,-0.565,-0.835
2153,-0.905,-0.415
2154,-0.535,-0.155
2155,-0.285,-0.075
2156,-0.225,-0.055
2157,-0.205,-0.065
2158,-0.205,-0.065
2159,-0.215,-0.065
2160,-0.215,-0.055
2161,-0.195,-0.055
2162,-0.195,-0.055
2163,-0.185,-0.045
2164,-0.185,-0.045
2165,-0.165,-0.045
2166,-0.165,-0.025
2167,-0.145,-0.015
2168,-0.155,-0.025
2169,-0.145,-0.025
2170,-0.145,-0.015
2171,-0.125,0.005
2172,-0.115,0.015
2173,-0.105,0.015
2174,-0.085,0.025
2175,-0.075,0.055
2176,-0.055,0.055
2177,-0.065,0.045
2178,-0.035,0.065
2179,-0.025,0.095
2180,-0.015,0.085
2181,-0.015,0.065
2182,-0.015,0.065
2183,-0.005,0.065
2184,-0.005,0.055
2185,-0.025,0.025
2186,-0.015,0.015
2187,-0.025,0.005
2188,-0.035,-0.025
2189,-0.075,-0.045
2190,-0.115,-0.075
2191,-0.135,-0.075
2192,-0.165,-0.095
2193,-0.185,-0.115
2194,-0.195,-0.115
2195,-0.195,-0.105
2196,-0.205,-0.115
2197,-0.205,-0.115
2198,-0.205,-0.115
2199,-0.185,-0.105
2200,-0.195,-0.105
2201,-0.195,-0.105
2202,-0.185,-0.095
2203,-0.175,-0.085
2204,-0.175,-0.085
2205,-0.175,-0.105
2206,-0.165,-0.095
2207,-0.165,-0.085
2208,-0.165,-0.085
2209,-0.185,-0.095
2210,-0.185,-0.105
2211,-0.185,-0.095
2212,-0.175,-0.095
2213,-0.185,-0.115
2214,-0.185,-0.115
2215,-0.185,-0.105
2216,-0.195,-0.105
2217,-0.185,-0.115
2218,-0.185,-0.115
2219,-0.185,-0.115
2220,-0.185,-0.115
2221,-0.185,-0.125
2222,-0.175,-0.115
2223,-0.175,-0.095
2224,-0.145,-0.085
2225,-0.135,-0.085
2226,-0.135,-0.085
2227,-0.115,-0.065
2228,-0.095,-0.085
2229,-0.055,-0.085
2230,-0.045,-0.075
2231,-0.025,-0.065
2232,-0.045,-0.095
2233,-0.075,-0.115
2234,-0.145,-0.115
2235,-0.165,-0.115
2236,-0.185,-0.135
2237,-0.175,-0.135
2238,-0.175,-0.135
2239,-0.185,-0.135
2240,-0.195,-0.135
2241,-0.185,-0.145
2242,-0.195,-0.135
2243,-0.195,-0.135
2244,-0.185,-0.125
2245,-0.185,-0.135
2246,-0.165,-0.135
2247,-0.165,-0.125
2248,-0.155,-0.125
2249,-0.175,-0.125
2250,-0.175,-0.095
2251,0.025,-0.025
2252,0.485,-0.015
2253,1.565,-0.245
2254,1.755,-0.535
2255,-0.095,-0.865
2256,-0.845,-0.585
2257,-0.655,-0.255
2258,-0.285,-0.085
2259,-0.175,-0.035
2260,-0.175,-0.055
2261,-0.175,-0.045
2262,-0.165,-0.045
2263,-0.155,-0.035
2264,-0.155,-0.035
2265,-0.155,-0.035
2266,-0.135,-0.035
2267,-0.135,-0.025
2268,-0.115,-0.025
2269,-0.125,-0.025
2270,-0.105,-0.015
2271,-0.095,-0.005
2272,-0.085,0.005
2273,-0.085,0.005
2274,-0.075,0.005
2275,-0.065,0.025
2276,-0.055,0.035
2277,-0.045,0.045
2278,-0.035,0.045
2279,-0.005,0.075
2280,0.005,0.095
2281,0.015,0.105
2282,0.025,0.095
2283,0.035,0.105
2284,0.055,0.115
2285,0.055,0.115
2286,0.055,0.085
2287,0.055,0.075
2288,0.065,0.085
2289,0.065,0.055
2290,0.055,0.015
2291,0.025,0.005
2292,0.015,-0.005
2293,-0.025,-0.035
2294,-0.055,-0.065
2295,-0.075,-0.065
2296,-0.105,-0.085
2297,-0.125,-0.085
2298,-0.125,-0.105
2299,-0.135,-0.105
2300,-0.115,-0.095
2301,-0.125,-0.095
2302,-0.115,-0.105
2303,-0.115,-0.085
2304,-0.105,-0.085
2305,-0.105,-0.095
2306,-0.095,-0.095
2307,-0.095,-0.075
2308,-0.095,-0.075
2309,-0.095,-0.085
2310,-0.085,-0.085
2311,-0.075,-0.065
2312,-0.085,-0.075
2313,-0.095,-0.095
2314,-0.095,-0.095
2315,-0.095,-0.085
2316,-0.105,-0.085
2317,-0.095,-0.105
2318,-0.095,-0.105
2319,-0.105,-0.095
2320,-0.095,-0.105
2321,-0.095,-0.105
2322,-0.105,-0.105
2323,-0.095,-0.105
2324,-0.105,-0.105
2325,-0.055,-0.085
2326,-0.035,-0.075
2327,-0.025,-0.065
2328,-0.025,-0.065
2329,-0.005,-0.075
2330,0.025,-0.055
2331,0.065,-0.055
2332,0.065,-0.055
2333,0.065,-0.085
2334,0.025,-0.105
2335,-0.015,-0.095
2336,-0.055,-0.105
2337,-0.075,-0.135
2338,-0.085,-0.135
2339,-0.085,-0.115
2340,-0.075,-0.115
2341,-0.075,-0.125
2342,-0.085,-0.125
2343,-0.085,-0.125
2344,-0.085,-0.125
2345,-0.085,-0.125
2346,-0.105,-0.125
2347,-0.075,-0.115
2348,-0.065,-0.115
2349,-0.065,-0.125
2350,-0.055,-0.125
2351,-0.085,-0.075
2352,0.035,-0.045
2353,0.355,0.005
2354,1.275,-0.155
2355,2.105,-0.415
2356,0.425,-0.815
2357,-0.725,-0.665
2358,-0.655,-0.285
2359,-0.255,-0.105
2360,-0.095,-0.055
2361,-0.075,-0.055
2362,-0.045,-0.045
2363,-0.055,-0.045
2364,-0.055,-0.045
2365,-0.055,-0.045
2366,-0.025,-0.035
2367,-0.015,-0.025
2368,-0.025,-0.035
2369,-0.035,-0.035
2370,-0.005,-0.025
2371,0.005,-0.005
2372,0.015,-0.015
2373,0.015,-0.025
2374,0.025,-0.005
2375,0.045,0.015
2376,0.065,0.015
2377,0.065,0.015
2378,0.075,0.025
2379,0.085,0.055
2380,0.105,0.055
2381,0.125,0.055
2382,0.145,0.075
2383,0.155,0.085
2384,0.155,0.085
2385,0.165,0.075
2386,0.165,0.065
2387,0.175,0.075
2388,0.155,0.045
2389,0.165,0.035
2390,0.165,0.005
2391,0.165,0.015
2392,0.125,-0.015
2393,0.095,-0.045
2394,0.065,-0.045
2395,0.045,-0.055
2396,0.025,-0.075
2397,0.005,-0.095
2398,-0.015,-0.095
2399,-0.015,-0.085
2400,-0.025,-0.095
2401,-0.015,-0.105
2402,-0.015,-0.095
2403,-0.025,-0.095
2404,-0.015,-0.095
2405,-0.005,-0.085
2406,0.005,-0.075
2407,-0.005,-0.075
2408,-0.005,-0.075
2409,0.005,-0.075
2410,0.005,-0.075
2411,0.015,-0.075
2412,0.005,-0.075
2413,0.005,-0.085
2414,0.015,-0.075
2415,0.005,-0.075
2416,-0.005,-0.085
2417,0.005,-0.095
2418,-0.015,-0.095
2419,-0.005,-0.085
2420,-0.005,-0.085
2421,0.005,-0.095
2422,0.025,-0.075
2423,0.035,-0.045
2424,0.055,-0.055
2425,0.075,-0.055
2426,0.075,-0.065
2427,0.115,-0.055
2428,0.125,-0.055
2429,0.125,-0.085
2430,0.075,-0.115
2431,0.055,-0.095
2432,0.015,-0.105
2433,-0.005,-0.125
2434,-0.035,-0.135
2435,-0.035,-0.125
2436,-0.035,-0.125
2437,-0.035,-0.135
2438,-0.035,-0.135
2439,-0.035,-0.125
2440,-0.035,-0.125
2441,-0.045,-0.135
2442,-0.035,-0.145
2443,-0.035,-0.125
2444,-0.035,-0.125
2445,-0.025,-0.135
2446,-0.015,-0.135
2447,0.005,-0.125
2448,-0.045,-0.095
2449,0.095,-0.075
2450,0.435,0.005
2451,1.275,-0.105
2452,2.185,-0.355
2453,0.605,-0.775
2454,-0.645,-0.705
2455,-0.655,-0.265
2456,-0.275,-0.135
2457,-0.095,-0.085
2458,-0.045,-0.075
2459,-0.045,-0.065
2460,-0.045,-0.065
2461,-0.055,-0.075
2462,-0.045,-0.065
2463,-0.035,-0.055
2464,-0.035,-0.045
2465,-0.025,-0.045
2466,-0.025,-0.055
2467,-0.025,-0.045
2468,-0.015,-0.035
2469,-0.015,-0.035
2470,-0.005,-0.035
2471,0.015,-0.025
2472,0.005,-0.015
2473,0.005,-0.015
2474,0.025,-0.005
2475,0.045,0.005
2476,0.035,0.015
2477,0.055,0.015
2478,0.065,0.015
2479,0.095,0.055
2480,0.085,0.045
2481,0.095,0.045
2482,0.085,0.025
2483,0.095,0.045
2484,0.095,0.025
2485,0.075,-0.005
2486,0.075,-0.005
2487,0.065,-0.005
2488,0.055,-0.025
2489,0.035,-0.055
2490,-0.005,-0.065
2491,-0.025,-0.085
2492,-0.065,-0.095
2493,-0.085,-0.115
2494,-0.095,-0.115
2495,-0.105,-0.105
2496,-0.115,-0.115
2497,-0.105,-0.115
2498,-0.115,-0.115
2499,-0.105,-0.105
2500,-0.105,-0.115
2501,-0.095,-0.105
2502,-0.095,-0.105
2503,-0.095,-0.095
2504,-0.095,-0.095
2505,-0.085,-0.095
2506,-0.095,-0.095
2507,-0.095,-0.095
2508,-0.095,-0.095
2509,-0.085,-0.095
2510,-0.075,-0.095
2511,-0.085,-0.095
2512,-0.095,-0.105
2513,-0.105,-0.105
2514,-0.105,-0.105
2515,-0.105,-0.105
2516,-0.105,-0.105
2517,-0.115,-0.105
2518,-0.105,-0.095
2519,-0.095,-0.075
2520,-0.075,-0.065
2521,-0.075,-0.065
2522,-0.045,-0.055
2523,-0.025,-0.055
2524,-0.005,-0.055
2525,0.005,-0.065
2526,0.045,-0.065
2527,-0.015,-0.095
2528,-0.045,-0.105
2529,-0.085,-0.105
2530,-0.105,-0.115
2531,-0.125,-0.125
2532,-0.125,-0.115
2533,-0.135,-0.145
2534,-0.145,-0.125
2535,-0.145,-0.115
2536,-0.145,-0.125
2537,-0.155,-0.135
2538,-0.165,-0.135
2539,-0.155,-0.115
2540,-0.145,-0.115
2541,-0.135,-0.125
2542,-0.125,-0.135
2543,-0.115,-0.115
2544,-0.125,-0.115
2545,-0.145,-0.085
2546,-0.005,-0.055
2547,0.385,0.035
2548,1.375,-0.135
2549,2.055,-0.405
2550,0.245,-0.825
2551,-0.805,-0.605
2552,-0.675,-0.235
2553,-0.295,-0.095
2554,-0.145,-0.055
2555,-0.145,-0.035
2556,-0.135,-0.035
2557,-0.145,-0.045
2558,-0.135,-0.045
2559,-0.115,-0.025
2560,-0.115,-0.025
2561,-0.125,-0.035
2562,-0.095,-0.025
2563,-0.085,-0.015
2564,-0.085,-0.005
2565,-0.075,-0.015
2566,-0.075,-0.015
2567,-0.055,0.015
2568,-0.045,0.025
2569,-0.045,0.005
2570,-0.035,0.025
2571,-0.015,0.055
2572,-0.015,0.055
2573,0.005,0.055
2574,0.025,0.075
2575,0.035,0.095
2576,0.045,0.105
2577,0.055,0.105
2578,0.065,0.105
2579,0.075,0.115
2580,0.075,0.105
2581,0.075,0.095
2582,0.085,0.075
2583,0.095,0.075
2584,0.065,0.045
2585,0.045,0.025
2586,0.015,-0.005
2587,-0.015,-0.015
2588,-0.055,-0.035
2589,-0.075,-0.065
2590,-0.095,-0.075
2591,-0.125,-0.075
2592,-0.135,-0.085
2593,-0.135,-0.095
2594,-0.135,-0.085
2595,-0.125,-0.075
2596,-0.135,-0.085
2597,-0.135,-0.085
2598,-0.115,-0.065
2599,-0.105,-0.055
2600,-0.115,-0.065
2601,-0.105,-0.065
2602,-0.105,-0.065
2603,-0.095,-0.055
2604,-0.105,-0.065
2605,-0.105,-0.075
2606,-0.095,-0.065
2607,-0.095,-0.055
2608,-0.105,-0.065
2609,-0.115,-0.085
2610,-0.125,-0.075
2611,-0.115,-0.065
2612,-0.115,-0.085
2613,-0.105,-0.095
2614,-0.115,-0.095
2615,-0.105,-0.075
2616,-0.115,-0.085
2617,-0.125,-0.095
2618,-0.125,-0.095
2619,-0.115,-0.085
2620,-0.105,-0.085
2621,-0.115,-0.085
2622,-0.095,-0.065
2623,-0.065,-0.045
2624,-0.055,-0.045
2625,-0.055,-0.055
2626,-0.045,-0.065
2627,-0.015,-0.045
2628,0.015,-0.045
2629,0.015,-0.045
2630,0.025,-0.065
2631,0.005,-0.085
2632,-0.045,-0.075
2633,-0.075,-0.095
2634,-0.105,-0.115
2635,-0.115,-0.115
2636,-0.115,-0.105
2637,-0.115,-0.105
2638,-0.125,-0.115
2639,-0.125,-0.115
2640,-0.125,-0.105
2641,-0.125,-0.105
2642,-0.125,-0.115
2643,-0.125,-0.105
2644,-0.115,-0.115
2645,-0.115,-0.105
2646,-0.105,-0.105
2647,-0.075,-0.095
2648,-0.115,-0.075
2649,-0.075,-0.045
2650,0.225,0.015
2651,1.155,-0.125
2652,2.175,-0.365
2653,0.415,-0.815
2654,-0.745,-0.645
2655,-0.635,-0.245
2656,-0.245,-0.045
2657,-0.135,-0.025
2658,-0.115,-0.025
2659,-0.105,-0.015
2660,-0.115,-0.015
2661,-0.105,-0.025
2662,-0.095,-0.025
2663,-0.085,-0.005
2664,-0.075,-0.005
2665,-0.075,-0.015
2666,-0.075,-0.005
2667,-0.055,0.005
2668,-0.045,0.015
2669,-0.025,0.005
2670,-0.025,0.025
2671,-0.025,0.035
2672,-0.015,0.045
2673,-0.005,0.045
2674,0.005,0.065
2675,0.025,0.085
2676,0.035,0.085
2677,0.055,0.085
2678,0.065,0.115
2679,0.085,0.135
2680,0.095,0.125
2681,0.095,0.125
2682,0.095,0.125
2683,0.115,0.125
2684,0.105,0.105
2685,0.105,0.085
2686,0.115,0.075
2687,0.105,0.065
2688,0.085,0.045
2689,0.055,-0.005
2690,0.015,-0.015
2691,-0.005,-0.025
2692,-0.025,-0.045
2693,-0.065,-0.065
2694,-0.085,-0.085
2695,-0.095,-0.075
2696,-0.095,-0.085
2697,-0.095,-0.095
2698,-0.095,-0.085
2699,-0.085,-0.065
2700,-0.085,-0.065
2701,-0.075,-0.075
2702,-0.065,-0.075
2703,-0.075,-0.055
2704,-0.075,-0.055
2705,-0.065,-0.065
2706,-0.075,-0.055
2707,-0.065,-0.055
2708,-0.075,-0.055
2709,-0.065,-0.075
2710,-0.065,-0.065
2711,-0.065,-0.065
2712,-0.065,-0.065
2713,-0.075,-0.075
2714,-0.065,-0.075
2715,-0.065,-0.065
2716,-0.085,-0.075
2717,-0.085,-0.095
2718,-0.065,-0.085
2719,-0.055,-0.075
2720,-0.065,-0.085
2721,-0.075,-0.095
2722,-0.075,-0.085
2723,-0.065,-0.085
2724,-0.065,-0.085
2725,-0.065,-0.105
2726,-0.055,-0.095
2727,-0.045,-0.075
2728,-0.025,-0.065
2729,-0.025,-0.065
2730,-0.015,-0.065
2731,0.015,-0.035
2732,0.025,-0.045
2733,0.045,-0.055
2734,0.075,-0.055
2735,0.095,-0.035
2736,0.105,-0.045
2737,0.055,-0.085
2738,0.035,-0.085
2739,-0.015,-0.085
2740,-0.045,-0.095
2741,-0.045,-0.105
2742,-0.045,-0.115
2743,-0.045,-0.105
2744,-0.065,-0.105
2745,-0.065,-0.115
2746,-0.055,-0.115
2747,-0.045,-0.105
2748,-0.055,-0.115
2749,-0.065,-0.115
2750,-0.045,-0.115
2751,-0.035,-0.105
2752,-0.035,-0.095
2753,-0.025,-0.115
2754,-0.065,-0.085
2755,0.055,-0.045
2756,0.385,0.015
2757,1.385,-0.165
2758,2.105,-0.435
2759,0.185,-0.815
2760,-0.745,-0.555
2761,-0.555,-0.215
2762,-0.185,-0.075
2763,-0.055,-0.035
2764,-0.045,-0.035
2765,-0.045,-0.045
2766,-0.025,-0.035
2767,-0.025,-0.025
2768,-0.015,-0.025
2769,-0.005,-0.035
2770,-0.005,-0.025
2771,0.005,-0.005
2772,0.015,-0.015
2773,0.015,-0.005
2774,0.025,-0.015
2775,0.025,0.005
2776,0.035,0.005
2777,0.055,0.005
2778,0.045,0.015
2779,0.065,0.025
2780,0.075,0.045
2781,0.105,0.045
2782,0.115,0.065
2783,0.125,0.075
2784,0.125,0.075
2785,0.155,0.085
2786,0.165,0.095
2787,0.165,0.105
2788,0.175,0.095
2789,0.175,0.075
2790,0.185,0.065
2791,0.175,0.065
2792,0.165,0.045
2793,0.165,0.025
2794,0.155,0.015
2795,0.145,0.005
2796,0.105,-0.015
2797,0.085,-0.035
2798,0.065,-0.055
2799,0.045,-0.055
2800,0.015,-0.065
2801,-0.005,-0.075
2802,-0.015,-0.085
2803,-0.015,-0.075
2804,-0.015,-0.075
2805,-0.025,-0.085
2806,-0.015,-0.075
2807,-0.015,-0.065
2808,-0.015,-0.065
2809,-0.015,-0.065
2810,-0.005,-0.065
2811,-0.005,-0.055
2812,0.005,-0.055
2813,-0.005,-0.065
2814,-0.005,-0.075
2815,0.005,-0.065
2816,0.005,-0.065
2817,-0.005,-0.065
2818,-0.005,-0.075
2819,-0.005,-0.065
2820,-0.005,-0.065
2821,-0.015,-0.075
2822,-0.015,-0.085
2823,-0.015,-0.075
2824,-0.025,-0.075
2825,-0.025,-0.085
2826,-0.035,-0.105
2827,-0.045,-0.095
2828,-0.015,-0.065
2829,-0.015,-0.065
2830,0.015,-0.065
2831,0.015,-0.055
2832,0.045,-0.035
2833,0.055,-0.055
2834,0.075,-0.045
2835,0.085,-0.045
2836,0.125,-0.035
2837,0.065,-0.085
2838,0.045,-0.085
2839,0.005,-0.085
2840,-0.035,-0.095
2841,-0.045,-0.115
2842,-0.045,-0.115
2843,-0.055,-0.115
2844,-0.065,-0.115
2845,-0.065,-0.115
2846,-0.065,-0.115
2847,-0.075,-0.105
2848,-0.075,-0.105
2849,-0.075,-0.105
2850,-0.065,-0.105
2851,-0.065,-0.105
2852,-0.065,-0.105
2853,-0.045,-0.105
2854,-0.075,-0.085
2855,-0.005,-0.045
2856,0.245,-0.005
2857,1.015,-0.055
2858,2.125,-0.315
2859,0.515,-0.745
2860,-0.745,-0.605
2861,-0.655,-0.235
2862,-0.275,-0.125
2863,-0.115,-0.055
2864,-0.095,-0.055
2865,-0.085,-0.045
2866,-0.095,-0.055
2867,-0.085,-0.045
2868,-0.085,-0.045
2869,-0.075,-0.045
2870,-0.065,-0.045
2871,-0.075,-0.025
2872,-0.075,-0.035
2873,-0.065,-0.035
2874,-0.075,-0.035
2875,-0.055,-0.015
2876,-0.055,-0.015
2877,-0.045,-0.025
2878,-0.035,-0.015
2879,-0.025,0.015
2880,-0.015,0.005
2881,-0.005,0.005
2882,-0.015,0.025
2883,0.005,0.045
2884,0.025,0.045
2885,0.035,0.045
2886,0.045,0.055
2887,0.045,0.085
2888,0.055,0.065
2889,0.035,0.055
2890,0.025,0.045
2891,0.025,0.045
2892,0.015,0.015
2893,0.015,0.015
2894,0.015,-0.015
2895,-0.005,-0.025
2896,-0.045,-0.035
2897,-0.065,-0.055
2898,-0.105,-0.075
2899,-0.125,-0.075
2900,-0.155,-0.085
2901,-0.165,-0.105
2902,-0.175,-0.105
2903,-0.175,-0.105
2904,-0.185,-0.105
2905,-0.185,-0.105
2906,-0.165,-0.095
2907,-0.175,-0.085
2908,-0.175,-0.095
2909,-0.175,-0.095
2910,-0.165,-0.095
2911,-0.155,-0.075
2912,-0.155,-0.085
2913,-0.175,-0.085
2914,-0.165,-0.085
2915,-0.155,-0.085
2916,-0.155,-0.085
2917,-0.165,-0.095
2918,-0.165,-0.105
2919,-0.165,-0.085
2920,-0.175,-0.105
2921,-0.185,-0.105
2922,-0.185,-0.105
2923,-0.185,-0.095
2924,-0.185,-0.095
2925,-0.195,-0.125
2926,-0.195,-0.125
2927,-0.185,-0.095
2928,-0.185,-0.095
2929,-0.175,-0.095
2930,-0.155,-0.085
2931,-0.145,-0.065
2932,-0.115,-0.065
2933,-0.115,-0.075
2934,-0.065,-0.065
2935,-0.045,-0.065
2936,-0.045,-0.075
2937,-0.105,-0.115
2938,-0.135,-0.115
2939,-0.155,-0.105
2940,-0.185,-0.125
2941,-0.215,-0.155
2942,-0.205,-0.145
2943,-0.215,-0.125
2944,-0.215,-0.135
2945,-0.215,-0.135
2946,-0.235,-0.145
2947,-0.225,-0.125
2948,-0.225,-0.125
2949,-0.215,-0.135
2950,-0.205,-0.135
2951,-0.205,-0.125
2952,-0.205,-0.135
2953,-0.185,-0.135
2954,-0.225,-0.105
2955,-0.125,-0.065
2956,0.135,-0.015
2957,1.015,-0.135
2958,2.075,-0.365
2959,0.775,-0.755
2960,-0.735,-0.775
2961,-0.855,-0.365
2962,-0.485,-0.145
2963,-0.255,-0.055
2964,-0.225,-0.055
2965,-0.225,-0.075
2966,-0.215,-0.065
2967,-0.215,-0.045
2968,-0.215,-0.045
2969,-0.215,-0.065
2970,-0.195,-0.055
2971,-0.185,-0.035
2972,-0.185,-0.035
2973,-0.185,-0.045
2974,-0.175,-0.045
2975,-0.155,-0.025
2976,-0.145,-0.025
2977,-0.155,-0.035
2978,-0.145,-0.015
2979,-0.125,-0.005
2980,-0.125,0.005
2981,-0.105,0.015
2982,-0.105,0.015
2983,-0.075,0.045
2984,-0.075,0.045
2985,-0.055,0.055
2986,-0.055,0.055
2987,-0.035,0.075
2988,-0.025,0.095
2989,-0.015,0.085
2990,-0.015,0.065
2991,-0.005,0.065
2992,-0.015,0.065
2993,-0.005,0.045
2994,-0.015,0.005
2995,-0.035,0.005
2996,-0.045,-0.015
2997,-0.075,-0.035
2998,-0.105,-0.065
2999,-0.135,-0.075
3000,-0.175,-0.095
3001,-0.195,-0.105
3002,-0.205,-0.125
3003,-0.215,-0.125
3004,-0.215,-0.115
3005,-0.215,-0.115
3006,-0.205,-0.125
3007,-0.205,-0.115
3008,-0.195,-0.105
3009,-0.205,-0.115
3010,-0.205,-0.115
3011,-0.205,-0.095
3012,-0.185,-0.095
3013,-0.185,-0.095
3014,-0.195,-0.105
3015,-0.175,-0.095
3016,-0.185,-0.095
3017,-0.185,-0.095
3018,-0.195,-0.105
3019,-0.195,-0.105
3020,-0.205,-0.105
3021,-0.215,-0.125
3022,-0.205,-0.115
3023,-0.195,-0.105
3024,-0.205,-0.125
3025,-0.215,-0.135
3026,-0.215,-0.135
3027,-0.205,-0.115
3028,-0.205,-0.115
3029,-0.205,-0.135
3030,-0.195,-0.135
3031,-0.205,-0.125
3032,-0.205,-0.135
3033,-0.205,-0.135
3034,-0.215,-0.125
3035,-0.195,-0.125
3036,-0.205,-0.125
3037,-0.195,-0.115
3038,-0.155,-0.095
3039,-0.155,-0.085
3040,-0.135,-0.085
3041,-0.135,-0.105
3042,-0.115,-0.095
3043,-0.085,-0.075
3044,-0.065,-0.085
3045,-0.055,-0.095
3046,-0.065,-0.115
3047,-0.105,-0.115
3048,-0.145,-0.125
3049,-0.165,-0.135
3050,-0.195,-0.155
3051,-0.195,-0.145
3052,-0.195,-0.145
3053,-0.195,-0.145
3054,-0.195,-0.145
3055,-0.215,-0.145
3056,-0.215,-0.145
3057,-0.215,-0.145
3058,-0.205,-0.135
3059,-0.205,-0.135
3060,-0.195,-0.145
3061,-0.185,-0.145
3062,-0.165,-0.145
3063,-0.205,-0.115
3064,-0.175,-0.085
3065,0.065,-0.025
3066,0.755,-0.125
3067,1.945,-0.335
3068,1.115,-0.755
3069,-0.585,-0.835
3070,-0.855,-0.415
3071,-0.485,-0.145
3072,-0.245,-0.055
3073,-0.215,-0.075
3074,-0.215,-0.065
3075,-0.205,-0.055
3076,-0.195,-0.055
3077,-0.195,-0.065
3078,-0.185,-0.055
3079,-0.175,-0.035
3080,-0.165,-0.035
3081,-0.175,-0.045
3082,-0.165,-0.045
3083,-0.145,-0.025
3084,-0.135,-0.015
3085,-0.135,-0.025
3086,-0.125,-0.015
3087,-0.105,0.005
3088,-0.105,0.005
3089,-0.095,0.005
3090,-0.085,0.025
3091,-0.075,0.045
3092,-0.065,0.055
3093,-0.055,0.065
3094,-0.045,0.075
3095,-0.025,0.085
3096,-0.015,0.095
3097,-0.015,0.095
3098,0.005,0.085
3099,-0.005,0.095
3100,0.005,0.085
3101,-0.015,0.065
3102,-0.005,0.045
3103,0.015,0.045
3104,-0.005,0.015
3105,-0.025,-0.015
3106,-0.045,-0.035
3107,-0.075,-0.045
3108,-0.105,-0.075
3109,-0.145,-0.095
3110,-0.155,-0.105
3111,-0.165,-0.095
3112,-0.175,-0.115
3113,-0.185,-0.135
3114,-0.185,-0.135
3115,-0.175,-0.105
3116,-0.165,-0.105
3117,-0.175,-0.115
3118,-0.165,-0.115
3119,-0.155,-0.105
3120,-0.155,-0.095
3121,-0.145,-0.105
3122,-0.145,-0.105
3123,-0.145,-0.095
3124,-0.145,-0.095
3125,-0.145,-0.115
3126,-0.145,-0.115
3127,-0.135,-0.105
3128,-0.155,-0.115
3129,-0.165,-0.135
3130,-0.165,-0.135
3131,-0.155,-0.115
3132,-0.165,-0.125
3133,-0.155,-0.135
3134,-0.165,-0.145
3135,-0.155,-0.135
3136,-0.165,-0.135
3137,-0.155,-0.145
3138,-0.155,-0.135
3139,-0.155,-0.135
3140,-0.165,-0.145
3141,-0.165,-0.145
3142,-0.145,-0.145
3143,-0.145,-0.145
3144,-0.145,-0.145
3145,-0.145,-0.135
3146,-0.125,-0.105
3147,-0.095,-0.095
3148,-0.085,-0.105
3149,-0.085,-0.115
3150,-0.055,-0.115
3151,-0.015,-0.095
3152,-0.005,-0.095
3153,-0.005,-0.095
3154,0.005,-0.105
3155,-0.015,-0.125
3156,-0.065,-0.135
3157,-0.105,-0.145
3158,-0.125,-0.165
3159,-0.125,-0.145
3160,-0.125,-0.155
3161,-0.135,-0.165
3162,-0.155,-0.165
3163,-0.135,-0.145
3164,-0.135,-0.145
3165,-0.145,-0.165
3166,-0.135,-0.155
3167,-0.135,-0.145
3168,-0.125,-0.155
3169,-0.115,-0.145
3170,-0.105,-0.155
3171,-0.125,-0.135
3172,-0.105,-0.095
3173,0.095,-0.055
3174,0.625,-0.075
3175,1.735,-0.315
3176,1.525,-0.655
3177,-0.285,-0.885
3178,-0.835,-0.515
3179,-0.515,-0.205
3180,-0.205,-0.095
3181,-0.125,-0.085
3182,-0.115,-0.075
3183,-0.105,-0.065
3184,-0.105,-0.075
3185,-0.115,-0.085
3186,-0.095,-0.065
3187,-0.085,-0.055
3188,-0.085,-0.055
3189,-0.095,-0.075
3190,-0.065,-0.055
3191,-0.055,-0.045
3192,-0.055,-0.035
3193,-0.055,-0.045
3194,-0.045,-0.035
3195,-0.035,-0.025
3196,-0.015,-0.015
3197,-0.025,-0.015
3198,0.005,-0.005
3199,0.025,0.025
3200,0.025,0.035
3201,0.035,0.025
3202,0.055,0.035
3203,0.075,0.055
3204,0.075,0.065
3205,0.085,0.065
3206,0.085,0.055
3207,0.095,0.055
3208,0.075,0.045
3209,0.075,0.005
3210,0.085,0.005
3211,0.075,-0.005
3212,0.065,-0.025
3213,0.045,-0.045
3214,0.025,-0.065
3215,0.005,-0.065
3216,-0.035,-0.095
3217,-0.055,-0.105
3218,-0.075,-0.115
3219,-0.085,-0.115
3220,-0.085,-0.115
3221,-0.085,-0.125
3222,-0.085,-0.125
3223,-0.095,-0.105
3224,-0.085,-0.105
3225,-0.065,-0.115
3226,-0.075,-0.105
3227,-0.065,-0.095
3228,-0.065,-0.095
3229,-0.065,-0.105
3230,-0.055,-0.105
3231,-0.055,-0.085
3232,-0.065,-0.095
3233,-0.065,-0.105
3234,-0.065,-0.105
3235,-0.055,-0.095
3236,-0.065,-0.095
3237,-0.075,-0.125
3238,-0.075,-0.115
3239,-0.065,-0.105
3240,-0.075,-0.105
3241,-0.075,-0.125
3242,-0.085,-0.125
3243,-0.085,-0.115
3244,-0.075,-0.115
3245,-0.065,-0.115
3246,-0.065,-0.105
3247,-0.045,-0.085
3248,-0.035,-0.075
3249,-0.015,-0.085
3250,0.005,-0.085
3251,0.015,-0.075
3252,0.045,-0.065
3253,0.075,-0.085
3254,0.065,-0.095
3255,0.015,-0.115
3256,-0.025,-0.105
3257,-0.055,-0.115
3258,-0.075,-0.145
3259,-0.065,-0.135
3260,-0.065,-0.135
3261,-0.095,-0.155
3262,-0.085,-0.135
3263,-0.095,-0.125
3264,-0.095,-0.135
3265,-0.105,-0.145
3266,-0.095,-0.135
3267,-0.085,-0.115
3268,-0.085,-0.125
3269,-0.075,-0.135
3270,-0.065,-0.135
3271,-0.065,-0.115
3272,-0.085,-0.085
3273,0.065,-0.055
3274,0.505,-0.005
3275,1.545,-0.195
3276,1.695,-0.565
3277,-0.165,-0.825
3278,-0.785,-0.475
3279,-0.575,-0.195
3280,-0.225,-0.105
3281,-0.075,-0.075
3282,-0.085,-0.065
3283,-0.075,-0.055
3284,-0.075,-0.055
3285,-0.075,-0.055
3286,-0.055,-0.055
3287,-0.045,-0.035
3288,-0.045,-0.035
3289,-0.045,-0.045
3290,-0.045,-0.035
3291,-0.015,-0.025
3292,-0.025,-0.025
3293,-0.015,-0.035
3294,-0.005,-0.025
3295,0.005,-0.005
3296,0.005,0.005
3297,0.015,-0.005
3298,0.025,0.005
3299,0.035,0.025
3300,0.045,0.025
3301,0.065,0.045
3302,0.085,0.055
3303,0.085,0.065
3304,0.085,0.075
3305,0.095,0.055
3306,0.085,0.055
3307,0.085,0.065
3308,0.075,0.045
3309,0.075,0.025
3310,0.085,0.005
3311,0.075,0.005
3312,0.045,-0.015
3313,0.035,-0.035
3314,0.005,-0.045
3315,-0.005,-0.045
3316,-0.055,-0.075
3317,-0.075,-0.085
3318,-0.085,-0.085
3319,-0.085,-0.075
3320,-0.115,-0.095
3321,-0.115,-0.105
3322,-0.105,-0.095
3323,-0.105,-0.085
3324,-0.105,-0.085
3325,-0.115,-0.095
3326,-0.105,-0.085
3327,-0.085,-0.075
3328,-0.085,-0.075
3329,-0.095,-0.085
3330,-0.095,-0.075
3331,-0.085,-0.065
3332,-0.085,-0.065
3333,-0.095,-0.075
3334,-0.095,-0.085
3335,-0.085,-0.065
3336,-0.095,-0.065
3337,-0.095,-0.075
3338,-0.105,-0.095
3339,-0.115,-0.085
3340,-0.105,-0.085
3341,-0.115,-0.085
3342,-0.125,-0.105
3343,-0.115,-0.075
3344,-0.105,-0.075
3345,-0.075,-0.045
3346,-0.075,-0.055
3347,-0.065,-0.045
3348,-0.035,-0.045
3349,-0.005,-0.045
3350,0.015,-0.055
3351,0.035,-0.045
3352,-0.015,-0.075
3353,-0.055,-0.085
3354,-0.075,-0.095
3355,-0.125,-0.095
3356,-0.145,-0.115
3357,-0.155,-0.115
3358,-0.145,-0.115
3359,-0.145,-0.105
3360,-0.155,-0.105
3361,-0.165,-0.115
3362,-0.175,-0.125
3363,-0.165,-0.115
3364,-0.165,-0.115
3365,-0.155,-0.115
3366,-0.165,-0.115
3367,-0.145,-0.105
3368,-0.135,-0.095
3369,-0.175,-0.085
3370,-0.075,-0.055
3371,0.255,0.035
3372,1.115,-0.095
3373,2.165,-0.335
3374,0.485,-0.805
3375,-0.785,-0.665
3376,-0.775,-0.285
3377,-0.365,-0.105
3378,-0.185,-0.045
3379,-0.165,-0.035
3380,-0.165,-0.035
3381,-0.155,-0.055
3382,-0.155,-0.045
3383,-0.145,-0.035
3384,-0.145,-0.025
3385,-0.135,-0.035
3386,-0.135,-0.025
3387,-0.135,-0.025
3388,-0.115,-0.015
3389,-0.115,-0.025
3390,-0.095,-0.005
3391,-0.085,0.005
3392,-0.095,0.005
3393,-0.085,0.005
3394,-0.075,0.025
3395,-0.055,0.045
3396,-0.035,0.045
3397,-0.035,0.055
3398,-0.015,0.075
3399,0.005,0.095
3400,0.015,0.085
3401,0.025,0.085
3402,0.025,0.095
3403,0.025,0.095
3404,0.025,0.085
3405,0.035,0.065
3406,0.045,0.055
3407,0.035,0.055
3408,0.025,0.025
3409,0.015,0.005
3410,-0.035,-0.015
3411,-0.055,-0.025
3412,-0.095,-0.055
3413,-0.115,-0.075
3414,-0.135,-0.095
3415,-0.155,-0.085
3416,-0.175,-0.105
3417,-0.175,-0.095
3418,-0.185,-0.105
3419,-0.175,-0.085
3420,-0.175,-0.095
3421,-0.175,-0.095
3422,-0.165,-0.095
3423,-0.155,-0.075
3424,-0.155,-0.085
3425,-0.155,-0.095
3426,-0.155,-0.085
3427,-0.135,-0.075
3428,-0.135,-0.065
3429,-0.135,-0.095
3430,-0.135,-0.085
3431,-0.135,-0.075
3432,-0.135,-0.075
3433,-0.145,-0.095
3434,-0.165,-0.095
3435,-0.145,-0.085
3436,-0.145,-0.095
3437,-0.165,-0.105
3438,-0.165,-0.115
3439,-0.155,-0.095
3440,-0.165,-0.105
3441,-0.165,-0.105
3442,-0.155,-0.095
3443,-0.135,-0.085
3444,-0.115,-0.065
3445,-0.105,-0.065
3446,-0.085,-0.055
3447,-0.055,-0.045
3448,-0.055,-0.065
3449,-0.025,-0.055
3450,-0.015,-0.065
3451,-0.025,-0.085
3452,-0.075,-0.115
3453,-0.105,-0.125
3454,-0.125,-0.105
3455,-0.145,-0.125
3456,-0.155,-0.135
3457,-0.165,-0.145
3458,-0.175,-0.145
3459,-0.175,-0.135
3460,-0.175,-0.145
3461,-0.175,-0.145
3462,-0.175,-0.145
3463,-0.175,-0.135
3464,-0.165,-0.135
3465,-0.165,-0.135
3466,-0.165,-0.145
3467,-0.145,-0.135
3468,-0.175,-0.115
3469,-0.145,-0.085
3470,0.135,-0.025
3471,0.985,-0.135
3472,2.115,-0.365
3473,0.765,-0.825
3474,-0.725,-0.765
3475,-0.775,-0.345
3476,-0.385,-0.135
3477,-0.195,-0.075
3478,-0.165,-0.065
3479,-0.155,-0.065
3480,-0.155,-0.065
3481,-0.155,-0.075
3482,-0.155,-0.065
3483,-0.135,-0.045
3484,-0.135,-0.045
3485,-0.115,-0.055
3486,-0.115,-0.045
3487,-0.105,-0.045
3488,-0.095,-0.035
3489,-0.085,-0.025
3490,-0.085,-0.025
3491,-0.075,-0.005
3492,-0.065,-0.005
3493,-0.055,0.005
3494,-0.035,0.025
3495,-0.025,0.035
3496,-0.015,0.035
3497,-0.005,0.045
3498,0.015,0.065
3499,0.025,0.085
3500,0.045,0.085
3501,0.045,0.085
3502,0.065,0.095
3503,0.075,0.095
3504,0.065,0.075
3505,0.075,0.045
3506,0.055,0.045
3507,0.075,0.045
3508,0.055,0.015
3509,0.035,-0.015
3510,0.015,-0.035
3511,-0.005,-0.045
3512,-0.055,-0.065
3513,-0.095,-0.095
3514,-0.105,-0.105
3515,-0.115,-0.105
3516,-0.115,-0.115
3517,-0.135,-0.125
3518,-0.125,-0.125
3519,-0.115,-0.105
3520,-0.115,-0.115
3521,-0.115,-0.115
3522,-0.105,-0.115
3523,-0.095,-0.095
3524,-0.085,-0.095
3525,-0.095,-0.095
3526,-0.085,-0.105
3527,-0.075,-0.095
3528,-0.085,-0.085
3529,-0.075,-0.095
3530,-0.075,-0.105
3531,-0.085,-0.095
3532,-0.075,-0.095
3533,-0.075,-0.105
3534,-0.085,-0.115
3535,-0.085,-0.115
3536,-0.095,-0.105
3537,-0.095,-0.115
3538,-0.085,-0.115
3539,-0.095,-0.115
3540,-0.105,-0.115
3541,-0.095,-0.115
3542,-0.085,-0.135
3543,-0.075,-0.125
3544,-0.085,-0.125
3545,-0.095,-0.115
3546,-0.055,-0.105
3547,-0.035,-0.075
3548,-0.035,-0.075
3549,-0.015,-0.075
3550,-0.005,-0.095
3551,0.025,-0.075
3552,0.065,-0.065
3553,0.065,-0.075
3554,0.085,-0.095
3555,0.035,-0.115
3556,-0.005,-0.105
3557,-0.035,-0.125
3558,-0.055,-0.145
3559,-0.045,-0.135
3560,-0.055,-0.135
3561,-0.065,-0.145
3562,-0.065,-0.145
3563,-0.065,-0.135
3564,-0.055,-0.135
3565,-0.065,-0.145
3566,-0.055,-0.145
3567,-0.045,-0.125
3568,-0.045,-0.125
3569,-0.035,-0.135
3570,-0.045,-0.135
3571,-0.055,-0.085
3572,0.085,-0.045
3573,0.475,-0.005
3574,1.575,-0.215
3575,1.985,-0.495
3576,0.015,-0.865
3577,-0.775,-0.525
3578,-0.505,-0.215
3579,-0.145,-0.085
3580,-0.055,-0.065
3581,-0.035,-0.065
3582,-0.035,-0.055
3583,-0.025,-0.045
3584,-0.015,-0.055
3585,-0.025,-0.065
3586,-0.015,-0.045
3587,-0.005,-0.035
3588,0.015,-0.025
3589,0.015,-0.045
3590,0.035,-0.035
3591,0.025,-0.025
3592,0.045,-0.015
3593,0.035,-0.015
3594,0.045,-0.015
3595,0.075,0.005
3596,0.085,0.005
3597,0.105,0.005
3598,0.125,0.025
3599,0.135,0.045
3600,0.135,0.045
3601,0.155,0.055
3602,0.175,0.065
3603,0.195,0.075
3604,0.185,0.085
3605,0.195,0.065
3606,0.215,0.065
3607,0.205,0.055
3608,0.205,0.045
3609,0.205,0.035
3610,0.195,0.005
3611,0.195,0.005
3612,0.165,-0.015
3613,0.145,-0.035
3614,0.125,-0.055
3615,0.085,-0.065
3616,0.075,-0.075
3617,0.035,-0.105
3618,0.025,-0.095
3619,0.035,-0.095
3620,0.025,-0.095
3621,0.035,-0.095
3622,0.045,-0.095
3623,0.035,-0.075
3624,0.045,-0.075
3625,0.045,-0.095
3626,0.045,-0.085
3627,0.045,-0.075
3628,0.055,-0.075
3629,0.065,-0.085
3630,0.065,-0.075
3631,0.065,-0.065
3632,0.055,-0.065
3633,0.045,-0.075
3634,0.045,-0.075
3635,0.075,-0.075
3636,0.055,-0.085
3637,0.045,-0.085
3638,0.055,-0.085
3639,0.055,-0.075
3640,0.045,-0.095
3641,0.055,-0.085
3642,0.045,-0.085
3643,0.085,-0.055
3644,0.085,-0.045
3645,0.105,-0.055
3646,0.135,-0.045
3647,0.165,-0.035
3648,0.185,-0.035
3649,0.205,-0.055
3650,0.145,-0.075
3651,0.105,-0.085
3652,0.075,-0.075
3653,0.065,-0.095
3654,0.045,-0.115
3655,0.035,-0.105
3656,0.035,-0.105
3657,0.025,-0.115
3658,0.005,-0.115
3659,0.015,-0.105
3660,0.005,-0.105
3661,0.035,-0.115
3662,0.055,-0.115
3663,0.035,-0.105
3664,0.045,-0.105
3665,0.045,-0.105
3666,0.065,-0.105
3667,0.095,-0.085
3668,0.055,-0.065
3669,0.215,-0.045
3670,0.605,0.025
3671,1.545,-0.105
3672,2.215,-0.365
3673,0.455,-0.745
3674,-0.605,-0.575
3675,-0.505,-0.205
3676,-0.125,-0.095
3677,0.045,-0.065
3678,0.095,-0.045
3679,0.125,-0.025
3680,0.115,-0.025
3681,0.105,-0.045
3682,0.115,-0.045
3683,0.145,-0.025
3684,0.155,-0.015
3685,0.155,-0.025
3686,0.165,-0.035
3687,0.175,-0.005
3688,0.195,-0.005
3689,0.195,-0.015
3690,0.195,-0.015
3691,0.225,0.005
3692,0.225,0.015
3693,0.245,0.005
3694,0.235,0.025
3695,0.285,0.025
3696,0.315,0.045
3697,0.305,0.045
3698,0.335,0.055
3699,0.315,0.055
3700,0.375,0.065
3701,0.355,0.065
3702,0.405,0.055
3703,0.375,0.055
3704,0.355,0.045
3705,0.345,0.035
3706,0.355,0.025
3707,0.355,0.015
3708,0.355,0.015
3709,0.305,0.005
3710,0.295,-0.015
3711,0.295,-0.025
3712,0.275,-0.025
3713,0.225,-0.045
3714,0.205,-0.065
3715,0.155,-0.055
3716,0.215,-0.045
3717,0.215,-0.065
3718,0.185,-0.065
3719,0.195,-0.045
3720,0.195,-0.045
3721,0.175,-0.065
3722,0.205,-0.065
3723,0.205,-0.045
3724,0.235,-0.035
3725,0.195,-0.045
3726,0.165,-0.045
3727,0.255,-0.035
3728,0.215,-0.045
3729,0.195,-0.055
3730,0.185,-0.045
3731,0.245,-0.025
3732,0.205,-0.035
3733,0.195,-0.045
3734,0.235,-0.035
3735,0.235,-0.005
3736,0.255,0.005
3737,0.245,0.005
3738,0.265,-0.015
3739,0.285,-0.005
3740,0.295,-0.025
3741,0.315,-0.025
3742,0.265,-0.055
3743,0.225,-0.045
3744,0.185,-0.065
3745,0.145,-0.085
3746,0.115,-0.085
3747,0.125,-0.075
3748,0.105,-0.095
3749,0.085,-0.095
3750,0.085,-0.085
3751,0.065,-0.075
3752,0.055,-0.085
3753,0.045,-0.095
3754,0.045,-0.095
3755,0.045,-0.085
3756,0.035,-0.085
3757,0.045,-0.085
3758,0.045,-0.085
3759,0.005,-0.055
3760,0.105,-0.035
3761,0.515,0.015
3762,1.425,-0.045
3763,2.175,-0.235
3764,0.425,-0.585
3765,-0.705,-0.505
3766,-0.655,-0.165
3767,-0.315,-0.065
3768,-0.105,-0.075
3769,-0.065,-0.045
3770,-0.075,-0.035
3771,-0.055,-0.025
3772,-0.065,-0.045
3773,-0.085,-0.045
3774,-0.075,-0.035
3775,-0.065,-0.015
3776,-0.075,-0.025
3777,-0.065,-0.035
3778,-0.075,-0.025
3779,-0.065,-0.005
3780,-0.065,-0.015
3781,-0.065,-0.015
3782,-0.055,-0.005
3783,-0.055,0.005
3784,-0.055,0.005
3785,-0.045,0.005
3786,-0.035,0.005
3787,-0.035,0.025
3788,-0.025,0.025
3789,-0.025,0.045
3790,-0.005,0.045
3791,-0.025,0.065
3792,-0.015,0.065
3793,-0.025,0.055
3794,-0.035,0.045
3795,-0.035,0.045
3796,-0.055,0.025
3797,-0.065,0.005
3798,-0.065,-0.005
3799,-0.075,0.005
3800,-0.095,-0.025
3801,-0.125,-0.035
3802,-0.145,-0.045
3803,-0.155,-0.035
3804,-0.185,-0.055
3805,-0.215,-0.065
3806,-0.205,-0.075
3807,-0.205,-0.065
3808,-0.215,-0.065
3809,-0.225,-0.085
3810,-0.225,-0.075
3811,-0.215,-0.055
3812,-0.215,-0.065
3813,-0.215,-0.075
3814,-0.215,-0.065
3815,-0.205,-0.055
3816,-0.195,-0.045
3817,-0.205,-0.055
3818,-0.215,-0.055
3819,-0.195,-0.045
3820,-0.205,-0.045
3821,-0.205,-0.055
3822,-0.205,-0.055
3823,-0.205,-0.045
3824,-0.225,-0.045
3825,-0.195,-0.035
3826,-0.195,-0.015
3827,-0.185,-0.005
3828,-0.165,-0.005
3829,-0.165,-0.015
3830,-0.135,-0.035
3831,-0.115,-0.015
3832,-0.105,-0.025
3833,-0.155,-0.055
3834,-0.195,-0.075
3835,-0.225,-0.055
3836,-0.265,-0.075
3837,-0.275,-0.095
3838,-0.285,-0.095
3839,-0.285,-0.085
3840,-0.305,-0.085
3841,-0.305,-0.105
3842,-0.315,-0.085
3843,-0.305,-0.085
3844,-0.325,-0.095
3845,-0.325,-0.105
3846,-0.305,-0.095
3847,-0.305,-0.085
3848,-0.295,-0.095
3849,-0.295,-0.095
3850,-0.335,-0.055
3851,-0.215,-0.025
3852,0.175,0.035
3853,1.175,-0.075
3854,2.045,-0.295
3855,0.295,-0.725
3856,-0.985,-0.655
3857,-0.935,-0.285
3858,-0.565,-0.105
3859,-0.365,-0.035
3860,-0.355,-0.025
3861,-0.355,-0.045
3862,-0.355,-0.035
3863,-0.345,-0.025
3864,-0.335,-0.025
3865,-0.345,-0.025
3866,-0.345,-0.025
3867,-0.315,-0.015
3868,-0.315,-0.015
3869,-0.315,-0.015
3870,-0.315,-0.005
3871,-0.295,0.005
3872,-0.295,0.005
3873,-0.295,0.005
3874,-0.275,0.005
3875,-0.275,0.015
3876,-0.255,0.035
3877,-0.245,0.025
3878,-0.245,0.045
3879,-0.225,0.055
3880,-0.205,0.075
3881,-0.185,0.085
3882,-0.165,0.085
3883,-0.165,0.105
3884,-0.155,0.105
3885,-0.145,0.095
3886,-0.145,0.085
3887,-0.145,0.075
3888,-0.155,0.065
3889,-0.145,0.045
3890,-0.135,0.025
3891,-0.165,0.005
3892,-0.195,-0.015
3893,-0.235,-0.045
3894,-0.265,-0.065
3895,-0.295,-0.085
3896,-0.315,-0.095
3897,-0.335,-0.105
3898,-0.345,-0.105
3899,-0.345,-0.105
3900,-0.335,-0.105
3901,-0.345,-0.115
3902,-0.345,-0.115
3903,-0.335,-0.105
3904,-0.325,-0.095
3905,-0.325,-0.105
3906,-0.325,-0.105
3907,-0.315,-0.095
3908,-0.315,-0.085
3909,-0.305,-0.095
3910,-0.305,-0.095
3911,-0.295,-0.085
3912,-0.305,-0.085
3913,-0.315,-0.085
3914,-0.295,-0.095
3915,-0.295,-0.095
3916,-0.285,-0.085
3917,-0.275,-0.085
3918,-0.255,-0.055
3919,-0.235,-0.055
3920,-0.215,-0.055
3921,-0.205,-0.065
3922,-0.195,-0.075
3923,-0.165,-0.055
3924,-0.155,-0.075
3925,-0.215,-0.115
3926,-0.235,-0.125
3927,-0.275,-0.115
3928,-0.315,-0.135
3929,-0.315,-0.145
3930,-0.325,-0.155
3931,-0.315,-0.135
3932,-0.335,-0.145
3933,-0.325,-0.155
3934,-0.325,-0.145
3935,-0.325,-0.145
3936,-0.325,-0.145
3937,-0.305,-0.155
3938,-0.325,-0.145
3939,-0.305,-0.135
3940,-0.285,-0.145
3941,-0.285,-0.145
3942,-0.305,-0.105
3943,-0.185,-0.065
3944,0.225,-0.015
3945,1.345,-0.195
3946,1.845,-0.435
3947,0.075,-0.825
3948,-0.955,-0.665
3949,-0.805,-0.295
3950,-0.425,-0.115
3951,-0.305,-0.065
3952,-0.295,-0.065
3953,-0.285,-0.075
3954,-0.285,-0.065
3955,-0.275,-0.065
3956,-0.275,-0.065
3957,-0.265,-0.065
3958,-0.245,-0.065
3959,-0.235,-0.055
3960,-0.245,-0.055
3961,-0.235,-0.055
3962,-0.225,-0.045
3963,-0.205,-0.035
3964,-0.215,-0.035
3965,-0.195,-0.035
3966,-0.175,-0.015
3967,-0.155,0.005
3968,-0.165,0.005
3969,-0.145,0.005
3970,-0.155,0.025
3971,-0.115,0.045
3972,-0.095,0.065
3973,-0.075,0.055
3974,-0.055,0.065
3975,-0.045,0.075
3976,-0.035,0.085
3977,-0.035,0.065
3978,-0.035,0.045
3979,-0.025,0.055
3980,-0.025,0.045
3981,-0.025,0.025
3982,-0.025,-0.005
3983,-0.055,-0.025
3984,-0.105,-0.045
3985,-0.135,-0.075
3986,-0.165,-0.095
3987,-0.185,-0.105
3988,-0.215,-0.125
3989,-0.235,-0.145
3990,-0.225,-0.145
3991,-0.225,-0.135
3992,-0.225,-0.145
3993,-0.235,-0.155
3994,-0.235,-0.145
3995,-0.215,-0.125
3996,-0.215,-0.125
3997,-0.215,-0.135
3998,-0.195,-0.125
3999,-0.185,-0.105
4000,-0.185,-0.105
4001,-0.185,-0.115
4002,-0.195,-0.115
4003,-0.185,-0.115
4004,-0.195,-0.115
4005,-0.185,-0.115
4006,-0.185,-0.125
4007,-0.195,-0.125
4008,-0.205,-0.125
4009,-0.205,-0.135
4010,-0.195,-0.115
4011,-0.165,-0.095
4012,-0.145,-0.085
4013,-0.145,-0.095
4014,-0.115,-0.075
4015,-0.095,-0.075
4016,-0.055,-0.095
4017,-0.065,-0.095
4018,-0.055,-0.105
4019,-0.095,-0.125
4020,-0.125,-0.145
4021,-0.165,-0.145
4022,-0.195,-0.155
4023,-0.205,-0.165
4024,-0.215,-0.165
4025,-0.205,-0.165
4026,-0.215,-0.165
4027,-0.205,-0.155
4028,-0.205,-0.165
4029,-0.205,-0.175
4030,-0.205,-0.175
4031,-0.215,-0.165
4032,-0.205,-0.165
4033,-0.205,-0.175
4034,-0.195,-0.165
4035,-0.185,-0.155
4036,-0.165,-0.155
4037,-0.205,-0.135
4038,-0.145,-0.105
4039,0.115,-0.045
4040,0.885,-0.125
4041,2.005,-0.325
4042,1.095,-0.695
4043,-0.605,-0.835
4044,-0.855,-0.435
4045,-0.505,-0.205
4046,-0.255,-0.095
4047,-0.185,-0.075
4048,-0.205,-0.075
4049,-0.195,-0.075
4050,-0.185,-0.075
4051,-0.175,-0.065
4052,-0.175,-0.065
4053,-0.175,-0.065
4054,-0.155,-0.065
4055,-0.155,-0.055
4056,-0.145,-0.055
4057,-0.145,-0.045
4058,-0.125,-0.045
4059,-0.125,-0.035
4060,-0.115,-0.025
4061,-0.105,-0.025
4062,-0.095,-0.015
4063,-0.065,0.005
4064,-0.065,0.005
4065,-0.055,0.025
4066,-0.045,0.025
4067,-0.035,0.045
4068,-0.015,0.065
4069,0.005,0.065
4070,0.015,0.065
4071,0.025,0.075
4072,0.035,0.085
4073,0.055,0.075
4074,0.055,0.055
4075,0.055,0.045
4076,0.065,0.035
4077,0.055,0.015
4078,0.045,-0.005
4079,0.015,-0.025
4080,-0.025,-0.045
4081,-0.065,-0.075
4082,-0.095,-0.105
4083,-0.135,-0.115
4084,-0.145,-0.125
4085,-0.165,-0.125
4086,-0.155,-0.135
4087,-0.145,-0.125
4088,-0.155,-0.125
4089,-0.165,-0.125
4090,-0.145,-0.125
4091,-0.155,-0.115
4092,-0.135,-0.105
4093,-0.145,-0.115
4094,-0.135,-0.105
4095,-0.135,-0.105
4096,-0.135,-0.095
4097,-0.135,-0.105
4098,-0.135,-0.115
4099,-0.135,-0.105
4100,-0.135,-0.105
4101,-0.145,-0.115
4102,-0.135,-0.115
4103,-0.145,-0.115
4104,-0.145,-0.125
4105,-0.165,-0.135
4106,-0.155,-0.135
4107,-0.155,-0.125
4108,-0.145,-0.125
4109,-0.135,-0.135
4110,-0.135,-0.115
4111,-0.105,-0.095
4112,-0.095,-0.085
4113,-0.075,-0.085
4114,-0.055,-0.075
4115,-0.055,-0.085
4116,-0.025,-0.095
4117,-0.015,-0.085
4118,0.015,-0.075
4119,0.005,-0.095
4120,-0.035,-0.135
4121,-0.075,-0.125
4122,-0.115,-0.125
4123,-0.115,-0.135
4124,-0.125,-0.145
4125,-0.135,-0.155
4126,-0.135,-0.145
4127,-0.135,-0.135
4128,-0.145,-0.145
4129,-0.135,-0.145
4130,-0.145,-0.155
4131,-0.135,-0.135
4132,-0.125,-0.135
4133,-0.135,-0.145
4134,-0.115,-0.145
4135,-0.115,-0.135
4136,-0.095,-0.135
4137,-0.125,-0.135
4138,-0.115,-0.105
4139,0.085,-0.055
4140,0.685,-0.065
4141,1.815,-0.305
4142,1.625,-0.595
4143,-0.295,-0.855
4144,-0.835,-0.485
4145,-0.505,-0.215
4146,-0.205,-0.095
4147,-0.115,-0.055
4148,-0.115,-0.055
4149,-0.105,-0.065
4150,-0.115,-0.065
4151,-0.095,-0.055
4152,-0.095,-0.045
4153,-0.095,-0.055
4154,-0.085,-0.045
4155,-0.075,-0.035
4156,-0.075,-0.035
4157,-0.075,-0.035
4158,-0.045,-0.025
4159,-0.025,-0.015
4160,-0.025,-0.015
4161,-0.035,-0.015
4162,-0.025,-0.005
4163,0.005,0.015
4164,0.015,0.025
4165,0.015,0.025
4166,0.035,0.045
4167,0.065,0.065
4168,0.065,0.065
4169,0.085,0.075
4170,0.105,0.065
4171,0.125,0.085
4172,0.125,0.085
4173,0.135,0.065
4174,0.115,0.045
4175,0.145,0.055
4176,0.125,0.045
4177,0.125,0.005
4178,0.105,-0.005
4179,0.105,-0.005
4180,0.055,-0.035
4181,0.025,-0.065
4182,-0.005,-0.075
4183,-0.035,-0.085
4184,-0.065,-0.095
4185,-0.075,-0.105
4186,-0.075,-0.105
4187,-0.065,-0.095
4188,-0.075,-0.095
4189,-0.085,-0.105
4190,-0.065,-0.105
4191,-0.065,-0.095
4192,-0.055,-0.085
4193,-0.055,-0.105
4194,-0.065,-0.095
4195,-0.075,-0.085
4196,-0.065,-0.085
4197,-0.065,-0.085
4198,-0.055,-0.095
4199,-0.065,-0.085
4200,-0.065,-0.085
4201,-0.065,-0.095
4202,-0.075,-0.095
4203,-0.065,-0.095
4204,-0.085,-0.105
4205,-0.085,-0.105
4206,-0.075,-0.105
4207,-0.065,-0.095
4208,-0.065,-0.085
4209,-0.055,-0.085
4210,-0.055,-0.055
4211,-0.025,-0.055
4212,-0.005,-0.055
4213,-0.005,-0.065
4214,0.045,-0.065
4215,0.065,-0.055
4216,0.065,-0.065
4217,0.005,-0.115
4218,-0.035,-0.115
4219,-0.055,-0.095
4220,-0.085,-0.115
4221,-0.105,-0.145
4222,-0.105,-0.145
4223,-0.125,-0.135
4224,-0.135,-0.135
4225,-0.135,-0.145
4226,-0.145,-0.145
4227,-0.135,-0.125
4228,-0.145,-0.135
4229,-0.135,-0.135
4230,-0.125,-0.135
4231,-0.125,-0.125
4232,-0.125,-0.115
4233,-0.125,-0.125
4234,-0.115,-0.125
4235,-0.145,-0.095
4236,-0.085,-0.075
4237,0.155,-0.025
4238,0.805,-0.025
4239,1.925,-0.235
4240,1.235,-0.605
4241,-0.505,-0.805
4242,-0.855,-0.405
4243,-0.525,-0.175
4244,-0.225,-0.095
4245,-0.155,-0.065
4246,-0.155,-0.055
4247,-0.145,-0.055
4248,-0.145,-0.055
4249,-0.155,-0.055
4250,-0.135,-0.055
4251,-0.135,-0.045
4252,-0.135,-0.045
4253,-0.125,-0.045
4254,-0.115,-0.035
4255,-0.105,-0.025
4256,-0.095,-0.015
4257,-0.095,-0.025
4258,-0.085,-0.015
4259,-0.075,0.005
4260,-0.075,0.015
4261,-0.055,0.015
4262,-0.055,0.005
4263,-0.035,0.035
4264,-0.035,0.045
4265,-0.015,0.065
4266,-0.005,0.045
4267,0.005,0.075
4268,0.015,0.095
4269,0.025,0.085
4270,0.025,0.065
4271,0.035,0.065
4272,0.025,0.065
4273,0.015,0.045
4274,0.025,0.035
4275,0.015,0.025
4276,-0.005,-0.005
4277,-0.035,-0.025
4278,-0.055,-0.035
4279,-0.085,-0.055
4280,-0.115,-0.065
4281,-0.155,-0.085
4282,-0.165,-0.095
4283,-0.175,-0.085
4284,-0.175,-0.075
4285,-0.185,-0.085
4286,-0.175,-0.085
4287,-0.165,-0.075
4288,-0.165,-0.075
4289,-0.165,-0.075
4290,-0.165,-0.075
4291,-0.155,-0.055
4292,-0.145,-0.065
4293,-0.145,-0.065
4294,-0.135,-0.065
4295,-0.135,-0.065
4296,-0.125,-0.065
4297,-0.145,-0.075
4298,-0.155,-0.075
4299,-0.145,-0.065
4300,-0.145,-0.075
4301,-0.155,-0.085
4302,-0.145,-0.085
4303,-0.155,-0.065
4304,-0.155,-0.075
4305,-0.145,-0.085
4306,-0.165,-0.095
4307,-0.155,-0.085
4308,-0.165,-0.085
4309,-0.145,-0.085
4310,-0.145,-0.085
4311,-0.155,-0.085
4312,-0.145,-0.065
4313,-0.115,-0.055
4314,-0.115,-0.055
4315,-0.085,-0.035
4316,-0.095,-0.045
4317,-0.075,-0.055
4318,-0.025,-0.035
4319,-0.025,-0.035
4320,-0.015,-0.045
4321,-0.045,-0.085
4322,-0.085,-0.065
4323,-0.115,-0.075
4324,-0.145,-0.095
4325,-0.165,-0.125
4326,-0.155,-0.115
4327,-0.155,-0.105
4328,-0.165,-0.105
4329,-0.165,-0.115
4330,-0.175,-0.115
4331,-0.175,-0.095
4332,-0.165,-0.095
4333,-0.155,-0.105
4334,-0.155,-0.115
4335,-0.145,-0.095
4336,-0.145,-0.105
4337,-0.125,-0.105
4338,-0.165,-0.075
4339,-0.075,-0.035
4340,0.215,0.015
4341,1.045,-0.105
4342,2.105,-0.295
4343,0.985,-0.695
4344,-0.615,-0.775
4345,-0.805,-0.355
4346,-0.425,-0.115
4347,-0.185,-0.025
4348,-0.155,-0.025
4349,-0.155,-0.035
4350,-0.155,-0.025
4351,-0.135,-0.015
4352,-0.145,-0.015
4353,-0.135,-0.025
4354,-0.135,-0.015
4355,-0.125,0.005
4356,-0.105,0.005
4357,-0.105,-0.015
4358,-0.095,0.005
4359,-0.085,0.025
4360,-0.075,0.025
4361,-0.075,0.025
4362,-0.055,0.025
4363,-0.045,0.045
4364,-0.045,0.055
4365,-0.025,0.065
4366,-0.005,0.075
4367,0.005,0.095
4368,0.015,0.105
4369,0.025,0.105
4370,0.045,0.125
4371,0.065,0.135
4372,0.075,0.135
4373,0.075,0.105
4374,0.085,0.105
4375,0.095,0.115
4376,0.085,0.085
4377,0.085,0.045
4378,0.055,0.045
4379,0.045,0.025
4380,0.015,0.005
4381,-0.015,-0.025
4382,-0.045,-0.045
4383,-0.085,-0.055
4384,-0.105,-0.075
4385,-0.115,-0.085
4386,-0.125,-0.085
4387,-0.125,-0.085
4388,-0.125,-0.075
4389,-0.125,-0.085
4390,-0.105,-0.075
4391,-0.115,-0.065
4392,-0.105,-0.065
4393,-0.095,-0.065
4394,-0.105,-0.065
4395,-0.095,-0.065
4396,-0.095,-0.065
4397,-0.095,-0.065
4398,-0.085,-0.065
4399,-0.085,-0.055
4400,-0.095,-0.065
4401,-0.105,-0.075
4402,-0.105,-0.075
4403,-0.095,-0.065
4404,-0.105,-0.085
4405,-0.105,-0.085
4406,-0.115,-0.085
4407,-0.105,-0.075
4408,-0.115,-0.085
4409,-0.125,-0.095
4410,-0.115,-0.095
4411,-0.115,-0.095
4412,-0.115,-0.095
4413,-0.115,-0.105
4414,-0.105,-0.105
4415,-0.095,-0.095
4416,-0.105,-0.095
4417,-0.115,-0.105
4418,-0.105,-0.105
4419,-0.105,-0.105
4420,-0.105,-0.095
4421,-0.105,-0.095
4422,-0.075,-0.075
4423,-0.045,-0.065
4424,-0.045,-0.055
4425,-0.025,-0.055
4426,-0.015,-0.085
4427,0.005,-0.065
4428,0.035,-0.045
4429,0.045,-0.055
4430,0.045,-0.075
4431,0.015,-0.105
4432,-0.035,-0.095
4433,-0.065,-0.095
4434,-0.085,-0.125
4435,-0.095,-0.125
4436,-0.095,-0.115
4437,-0.095,-0.125
4438,-0.095,-0.135
4439,-0.095,-0.125
4440,-0.095,-0.125
4441,-0.105,-0.125
4442,-0.095,-0.125
4443,-0.095,-0.115
4444,-0.085,-0.115
4445,-0.085,-0.125
4446,-0.075,-0.135
4447,-0.055,-0.115
4448,-0.095,-0.085
4449,0.005,-0.065
4450,0.375,-0.005
4451,1.435,-0.195
4452,2.045,-0.445
4453,0.125,-0.875
4454,-0.755,-0.615
4455,-0.525,-0.225
4456,-0.185,-0.065
4457,-0.105,-0.045
4458,-0.085,-0.055
4459,-0.075,-0.035
4460,-0.075,-0.045
4461,-0.085,-0.045
4462,-0.065,-0.045
4463,-0.055,-0.035
4464,-0.055,-0.035
4465,-0.035,-0.025
4466,-0.035,-0.025
4467,-0.035,-0.015
4468,-0.025,-0.015
4469,-0.015,-0.015
4470,-0.005,-0.005
4471,0.005,0.015
4472,0.005,0.015
4473,0.025,0.025
4474,0.035,0.045
4475,0.055,0.055
4476,0.065,0.065
4477,0.085,0.065
4478,0.095,0.095
4479,0.105,0.105
4480,0.115,0.095
4481,0.125,0.085
4482,0.115,0.085
4483,0.125,0.085
4484,0.135,0.075
4485,0.125,0.045
4486,0.135,0.045
4487,0.115,0.035
4488,0.115,0.005
4489,0.085,-0.025
4490,0.045,-0.045
4491,0.015,-0.045
4492,-0.005,-0.075
4493,-0.035,-0.095
4494,-0.055,-0.105
4495,-0.065,-0.105
4496,-0.065,-0.105
4497,-0.065,-0.115
4498,-0.065,-0.105
4499,-0.055,-0.095
4500,-0.065,-0.095
4501,-0.045,-0.095
4502,-0.035,-0.095
4503,-0.035,-0.085
4504,-0.045,-0.095
4505,-0.035,-0.095
4506,-0.025,-0.095
4507,-0.025,-0.075
4508,-0.035,-0.085
4509,-0.035,-0.095
4510,-0.025,-0.095
4511,-0.025,-0.085
4512,-0.035,-0.095
4513,-0.045,-0.115
4514,-0.045,-0.105
4515,-0.035,-0.095
4516,-0.045,-0.095
4517,-0.045,-0.115
4518,-0.035,-0.115
4519,-0.035,-0.105
4520,-0.035,-0.105
4521,-0.035,-0.115
4522,-0.045,-0.115
4523,-0.035,-0.105
4524,-0.035,-0.095
4525,-0.025,-0.115
4526,-0.015,-0.115
4527,-0.025,-0.105
4528,-0.035,-0.105
4529,-0.015,-0.115
4530,-0.025,-0.115
4531,-0.015,-0.105
4532,-0.025,-0.105
4533,-0.015,-0.105
4534,0.025,-0.085
4535,0.035,-0.065
4536,0.025,-0.065
4537,0.045,-0.065
4538,0.055,-0.065
4539,0.085,-0.065
4540,0.115,-0.055
4541,0.115,-0.065
4542,0.145,-0.065
4543,0.105,-0.085
4544,0.075,-0.085
4545,0.035,-0.105
4546,0.015,-0.125
4547,-0.005,-0.125
4548,0.005,-0.125
4549,-0.005,-0.135
4550,0.005,-0.125
4551,-0.005,-0.115
4552,-0.025,-0.115
4553,-0.005,-0.125
4554,-0.005,-0.125
4555,0.005,-0.115
4556,0.005,-0.115
4557,0.005,-0.115
4558,0.035,-0.115
4559,0.015,-0.105
4560,0.005,-0.065
4561,0.215,-0.035
4562,0.745,-0.015
4563,1.825,-0.235
4564,1.725,-0.545
4565,-0.155,-0.845
4566,-0.705,-0.455
4567,-0.405,-0.175
4568,-0.095,-0.075
4569,-0.005,-0.045
4570,-0.015,-0.045
4571,0.005,-0.035
4572,0.005,-0.035
4573,0.015,-0.045
4574,0.025,-0.035
4575,0.015,-0.025
4576,0.025,-0.015
4577,0.045,-0.025
4578,0.055,-0.015
4579,0.055,-0.015
4580,0.065,-0.005
4581,0.075,-0.015
4582,0.085,0.005
4583,0.095,0.015
4584,0.085,0.015
4585,0.105,0.015
4586,0.125,0.025
4587,0.135,0.045
4588,0.145,0.055
4589,0.155,0.055
4590,0.175,0.065
4591,0.195,0.085
4592,0.185,0.095
4593,0.195,0.095
4594,0.225,0.085
4595,0.215,0.085
4596,0.205,0.085
4597,0.205,0.065
4598,0.205,0.055
4599,0.215,0.045
4600,0.195,0.035
4601,0.175,0.015
4602,0.175,-0.015
4603,0.135,-0.025
4604,0.125,-0.035
4605,0.085,-0.055
4606,0.055,-0.065
4607,0.055,-0.065
4608,0.035,-0.065
4609,0.025,-0.075
4610,0.015,-0.085
4611,0.025,-0.075
4612,0.025,-0.065
4613,0.025,-0.075
4614,0.025,-0.075
4615,0.035,-0.065
4616,0.035,-0.055
4617,0.045,-0.055
4618,0.035,-0.065
4619,0.035,-0.055
4620,0.035,-0.055
4621,0.035,-0.055
4622,0.035,-0.065
4623,0.035,-0.065
4624,0.025,-0.065
4625,0.005,-0.075
4626,0.005,-0.075
4627,0.015,-0.065
4628,0.005,-0.075
4629,-0.005,-0.085
4630,-0.005,-0.095
4631,-0.005,-0.075
4632,-0.015,-0.085
4633,-0.015,-0.095
4634,-0.025,-0.095
4635,-0.015,-0.075
4636,-0.025,-0.095
4637,-0.025,-0.095
4638,-0.015,-0.095
4639,-0.025,-0.075
4640,-0.035,-0.075
4641,-0.005,-0.065
4642,0.005,-0.055
4643,0.025,-0.035
4644,0.025,-0.045
4645,0.045,-0.065
4646,0.085,-0.045
4647,0.085,-0.035
4648,0.105,-0.035
4649,0.075,-0.075
4650,0.035,-0.075
4651,-0.005,-0.065
4652,-0.025,-0.085
4653,-0.055,-0.105
4654,-0.055,-0.105
4655,-0.055,-0.105
4656,-0.075,-0.105
4657,-0.055,-0.105
4658,-0.075,-0.105
4659,-0.065,-0.095
4660,-0.075,-0.105
4661,-0.075,-0.105
4662,-0.065,-0.095
4663,-0.055,-0.095
4664,-0.055,-0.095
4665,-0.045,-0.105
4666,-0.085,-0.065
4667,0.055,-0.025
4668,0.375,0.025
4669,1.325,-0.095
4670,2.105,-0.345
4671,0.385,-0.775
4672,-0.725,-0.645
4673,-0.635,-0.275
4674,-0.255,-0.095
4675,-0.095,-0.025
4676,-0.085,-0.035
4677,-0.075,-0.035
4678,-0.065,-0.025
4679,-0.065,-0.015
4680,-0.065,-0.025
4681,-0.055,-0.025
4682,-0.055,-0.015
4683,-0.045,-0.005
4684,-0.035,-0.005
4685,-0.025,-0.005
4686,-0.015,-0.005
4687,-0.025,0.005
4688,-0.015,0.015
4689,-0.005,0.015
4690,0.005,0.025
4691,0.015,0.035
4692,0.015,0.045
4693,0.035,0.045
4694,0.055,0.065
4695,0.055,0.085
4696,0.065,0.085
4697,0.075,0.105
4698,0.085,0.105
4699,0.105,0.115
4700,0.105,0.125
4701,0.105,0.095
4702,0.105,0.095
4703,0.105,0.095
4704,0.095,0.065
4705,0.085,0.045
4706,0.075,0.045
4707,0.075,0.035
4708,0.055,0.005
4709,0.015,-0.025
4710,-0.005,-0.035
4711,-0.035,-0.035
4712,-0.055,-0.045
4713,-0.065,-0.065
4714,-0.095,-0.075
4715,-0.095,-0.055
4716,-0.095,-0.055
4717,-0.095,-0.065
4718,-0.085,-0.075
4719,-0.085,-0.055
4720,-0.095,-0.055
4721,-0.085,-0.055
4722,-0.085,-0.045
4723,-0.065,-0.035
4724,-0.075,-0.045
4725,-0.065,-0.055
4726,-0.065,-0.045
4727,-0.055,-0.025
4728,-0.065,-0.045
4729,-0.065,-0.055
4730,-0.085,-0.055
4731,-0.085,-0.045
4732,-0.085,-0.055
4733,-0.085,-0.075
4734,-0.085,-0.065
4735,-0.095,-0.065
4736,-0.105,-0.065
4737,-0.095,-0.075
4738,-0.105,-0.075
4739,-0.105,-0.065
4740,-0.105,-0.065
4741,-0.105,-0.075
4742,-0.095,-0.075
4743,-0.095,-0.065
4744,-0.095,-0.075
4745,-0.105,-0.075
4746,-0.105,-0.065
4747,-0.095,-0.055
4748,-0.105,-0.065
4749,-0.105,-0.075
4750,-0.095,-0.075
4751,-0.085,-0.065
4752,-0.105,-0.065
4753,-0.105,-0.075
4754,-0.085,-0.055
4755,-0.045,-0.025
4756,-0.055,-0.025
4757,-0.035,-0.035
4758,-0.025,-0.025
4759,0.005,-0.025
4760,0.025,-0.025
4761,0.025,-0.035
4762,0.045,-0.025
4763,0.035,-0.045
4764,-0.005,-0.065
4765,-0.055,-0.055
4766,-0.075,-0.065
4767,-0.085,-0.075
4768,-0.095,-0.085
4769,-0.105,-0.085
4770,-0.095,-0.095
4771,-0.105,-0.085
4772,-0.115,-0.085
4773,-0.125,-0.085
4774,-0.125,-0.085
4775,-0.105,-0.085
4776,-0.095,-0.075
4777,-0.095,-0.075
4778,-0.095,-0.095
4779,-0.085,-0.085
4780,-0.105,-0.055
4781,-0.055,-0.035
4782,0.195,0.015
4783,0.955,-0.075
4784,2.065,-0.275
4785,1.025,-0.685
4786,-0.565,-0.765
4787,-0.735,-0.325
4788,-0.325,-0.075
4789,-0.135,-0.005
4790,-0.115,-0.015
4791,-0.115,-0.005
4792,-0.115,-0.005
4793,-0.105,0.005
4794,-0.105,-0.005
4795,-0.105,-0.005
4796,-0.095,0.005
4797,-0.095,0.005
4798,-0.085,0.015
4799,-0.065,0.025
4800,-0.065,0.025
4801,-0.065,0.025
4802,-0.055,0.025
4803,-0.055,0.045
4804,-0.035,0.055
4805,-0.025,0.065
4806,-0.025,0.065
4807,-0.005,0.085
4808,0.005,0.105
4809,0.015,0.105
4810,0.025,0.115
4811,0.045,0.125
4812,0.055,0.145
4813,0.065,0.145
4814,0.075,0.145
4815,0.085,0.145
4816,0.075,0.125
4817,0.065,0.105
4818,0.065,0.095
4819,0.075,0.085
4820,0.065,0.065
4821,0.035,0.025
4822,0.015,0.005
4823,-0.015,-0.005
4824,-0.065,-0.025
4825,-0.085,-0.055
4826,-0.105,-0.055
4827,-0.105,-0.055
4828,-0.125,-0.065
4829,-0.115,-0.075
4830,-0.115,-0.065
4831,-0.115,-0.055
4832,-0.115,-0.065
4833,-0.125,-0.065
4834,-0.115,-0.055
4835,-0.095,-0.045
4836,-0.095,-0.055
4837,-0.105,-0.055
4838,-0.095,-0.055
4839,-0.085,-0.045
4840,-0.085,-0.045
4841,-0.095,-0.055
4842,-0.105,-0.055
4843,-0.105,-0.055
4844,-0.105,-0.055
4845,-0.115,-0.065
4846,-0.105,-0.075
4847,-0.115,-0.065
4848,-0.125,-0.065
4849,-0.125,-0.085
4850,-0.125,-0.075
4851,-0.125,-0.065
4852,-0.135,-0.075
4853,-0.125,-0.085
4854,-0.125,-0.075
4855,-0.125,-0.075
4856,-0.135,-0.075
4857,-0.135,-0.085
4858,-0.135,-0.085
4859,-0.115,-0.075
4860,-0.125,-0.085
4861,-0.125,-0.095
4862,-0.115,-0.085
4863,-0.105,-0.075
4864,-0.125,-0.085
4865,-0.125,-0.095
4866,-0.125,-0.095
4867,-0.105,-0.075
4868,-0.115,-0.085
4869,-0.115,-0.105
4870,-0.105,-0.085
4871,-0.065,-0.055
4872,-0.065,-0.045
4873,-0.065,-0.055
4874,-0.045,-0.045
4875,-0.025,-0.045
4876,-0.005,-0.055
4877,0.015,-0.055
4878,0.015,-0.055
4879,0.045,-0.045
4880,-0.005,-0.085
4881,-0.035,-0.085
4882,-0.075,-0.095
4883,-0.095,-0.095
4884,-0.105,-0.095
4885,-0.095,-0.105
4886,-0.105,-0.115
4887,-0.105,-0.105
4888,-0.125,-0.105
4889,-0.125,-0.115
4890,-0.115,-0.115
4891,-0.125,-0.105
4892,-0.105,-0.105
4893,-0.115,-0.115
4894,-0.095,-0.115
4895,-0.085,-0.095
4896,-0.115,-0.065
4897,0.005,-0.035
4898,0.395,0.015
4899,1.355,-0.185
4900,2.095,-0.425
4901,0.195,-0.865
4902,-0.775,-0.585
4903,-0.585,-0.225
4904,-0.235,-0.055
4905,-0.135,-0.035
4906,-0.125,-0.045
4907,-0.115,-0.025
4908,-0.115,-0.025
4909,-0.105,-0.035
4910,-0.095,-0.035
4911,-0.095,-0.015
4912,-0.095,-0.025
4913,-0.075,-0.015
4914,-0.075,-0.015
4915,-0.055,0.005
4916,-0.045,-0.005
4917,-0.045,-0.005
4918,-0.035,0.015
4919,-0.015,0.025
4920,-0.015,0.035
4921,-0.005,0.025
4922,-0.005,0.035
4923,0.015,0.065
4924,0.035,0.065
4925,0.055,0.085
4926,0.065,0.085
4927,0.075,0.105
4928,0.085,0.115
4929,0.095,0.105
4930,0.095,0.105
4931,0.095,0.085
4932,0.095,0.085
4933,0.095,0.065
4934,0.105,0.055
4935,0.095,0.045
4936,0.095,0.015
4937,0.075,-0.005
4938,0.045,-0.025
4939,0.025,-0.035
4940,-0.005,-0.065
4941,-0.035,-0.085
4942,-0.045,-0.095
4943,-0.055,-0.085
4944,-0.075,-0.105
4945,-0.085,-0.115
4946,-0.065,-0.115
4947,-0.075,-0.095
4948,-0.075,-0.105
4949,-0.075,-0.115
4950,-0.075,-0.095
4951,-0.045,-0.085
4952,-0.055,-0.085
4953,-0.065,-0.095
4954,-0.045,-0.095
4955,-0.045,-0.085
4956,-0.045,-0.085
4957,-0.055,-0.095
4958,-0.055,-0.095
4959,-0.045,-0.085
4960,-0.055,-0.095
4961,-0.065,-0.105
4962,-0.055,-0.115
4963,-0.055,-0.105
4964,-0.055,-0.105
4965,-0.065,-0.115
4966,-0.075,-0.125
4967,-0.055,-0.115
4968,-0.065,-0.115
4969,-0.065,-0.115
4970,-0.055,-0.125
4971,-0.065,-0.125
4972,-0.075,-0.125
4973,-0.065,-0.125
4974,-0.065,-0.135
4975,-0.055,-0.115
4976,-0.065,-0.125
4977,-0.065,-0.125
4978,-0.055,-0.125
4979,-0.055,-0.115
4980,-0.045,-0.115
4981,-0.055,-0.135
4982,-0.055,-0.125
4983,-0.025,-0.105
4984,-0.005,-0.095
4985,-0.015,-0.095
4986,0.015,-0.085
4987,0.035,-0.075
4988,0.055,-0.085
4989,0.075,-0.085
4990,0.095,-0.085
4991,0.125,-0.065
4992,0.075,-0.105
4993,0.045,-0.125
4994,-0.005,-0.125
4995,-0.025,-0.135
4996,-0.035,-0.145
4997,-0.045,-0.145
4998,-0.035,-0.145
4999,-0.045,-0.135
5000,-0.045,-0.135
5001,-0.055,-0.145
5002,-0.065,-0.145
5003,-0.045,-0.125
5004,-0.045,-0.135
5005,-0.045,-0.135
5006,-0.015,-0.135
5007,-0.035,-0.115
5008,-0.035,-0.085
5009,0.165,-0.045
5010,0.655,-0.025
5011,1.725,-0.235
5012,1.575,-0.625
5013,-0.225,-0.845
5014,-0.755,-0.455
5015,-0.495,-0.195
5016,-0.175,-0.105
5017,-0.065,-0.075
5018,-0.065,-0.065
5019,-0.045,-0.045
5020,-0.045,-0.055
5021,-0.045,-0.055
5022,-0.015,-0.045
5023,-0.025,-0.045
5024,-0.025,-0.045
5025,-0.015,-0.055
5026,-0.025,-0.045
5027,-0.015,-0.025
5028,0.005,-0.035
5029,-0.005,-0.035
5030,0.015,-0.025
5031,0.015,-0.015
5032,0.015,-0.015
5033,0.025,-0.015
5034,0.035,-0.005
5035,0.055,0.035
5036,0.055,0.025
5037,0.085,0.035
5038,0.095,0.045
5039,0.095,0.055
5040,0.105,0.055
5041,0.115,0.055
5042,0.115,0.055
5043,0.105,0.055
5044,0.105,0.035
5045,0.095,0.025
5046,0.095,0.015
5047,0.095,0.005
5048,0.085,-0.015
5049,0.055,-0.035
5050,0.045,-0.045
5051,0.015,-0.055
5052,-0.015,-0.075
5053,-0.045,-0.095
5054,-0.055,-0.095
5055,-0.075,-0.095
5056,-0.095,-0.105
5057,-0.105,-0.115
5058,-0.105,-0.105
5059,-0.105,-0.095
5060,-0.085,-0.095
5061,-0.095,-0.105
5062,-0.095,-0.095
5063,-0.095,-0.085
5064,-0.095,-0.085
5065,-0.085,-0.095
5066,-0.095,-0.095
5067,-0.095,-0.085
5068,-0.085,-0.085
5069,-0.095,-0.095
5070,-0.095,-0.105
5071,-0.095,-0.085
5072,-0.105,-0.095
5073,-0.115,-0.095
5074,-0.115,-0.105
5075,-0.115,-0.105
5076,-0.125,-0.105
5077,-0.125,-0.115
5078,-0.115,-0.105
5079,-0.125,-0.095
5080,-0.135,-0.115
5081,-0.155,-0.125
5082,-0.145,-0.115
5083,-0.135,-0.095
5084,-0.135,-0.105
5085,-0.145,-0.105
5086,-0.125,-0.095
5087,-0.105,-0.065
5088,-0.095,-0.065
5089,-0.075,-0.075
5090,-0.075,-0.075
5091,-0.025,-0.055
5092,-0.005,-0.055
5093,-0.005,-0.075
5094,-0.055,-0.105
5095,-0.085,-0.095
5096,-0.125,-0.105
5097,-0.145,-0.125
5098,-0.165,-0.135
5099,-0.165,-0.125
5100,-0.175,-0.135
5101,-0.175,-0.145
5102,-0.175,-0.135
5103,-0.185,-0.125
5104,-0.185,-0.125
5105,-0.195,-0.135
5106,-0.195,-0.135
5107,-0.175,-0.115
5108,-0.185,-0.125
5109,-0.165,-0.135
5110,-0.175,-0.115
5111,-0.185,-0.065
5112,-0.005,-0.035
5113,0.445,-0.005
5114,1.465,-0.185
5115,1.815,-0.485
5116,-0.095,-0.855
5117,-0.895,-0.555
5118,-0.715,-0.245
5119,-0.335,-0.085
5120,-0.215,-0.055
5121,-0.215,-0.065
5122,-0.195,-0.055
5123,-0.195,-0.035
5124,-0.195,-0.035
5125,-0.195,-0.045
5126,-0.195,-0.045
5127,-0.165,-0.025
5128,-0.175,-0.025
5129,-0.165,-0.025
5130,-0.165,-0.025
5131,-0.165,-0.015
5132,-0.155,-0.015
5133,-0.145,-0.005
5134,-0.145,-0.005
5135,-0.115,0.005
5136,-0.115,0.025
5137,-0.105,0.025
5138,-0.105,0.025
5139,-0.105,0.045
5140,-0.085,0.065
5141,-0.065,0.065
5142,-0.055,0.065
5143,-0.045,0.085
5144,-0.035,0.085
5145,-0.025,0.095
5146,-0.025,0.085
5147,-0.035,0.075
5148,-0.025,0.065
5149,-0.035,0.055
5150,-0.035,0.035
5151,-0.035,0.025
5152,-0.055,0.005
5153,-0.085,-0.015
5154,-0.115,-0.045
5155,-0.145,-0.055
5156,-0.175,-0.075
5157,-0.205,-0.085
5158,-0.225,-0.105
5159,-0.225,-0.095
5160,-0.235,-0.095
5161,-0.245,-0.095
5162,-0.245,-0.105
5163,-0.245,-0.105
5164,-0.225,-0.085
5165,-0.225,-0.095
5166,-0.215,-0.095
5167,-0.205,-0.085
5168,-0.215,-0.085
5169,-0.215,-0.085
5170,-0.205,-0.075
5171,-0.195,-0.075
5172,-0.195,-0.075
5173,-0.195,-0.095
5174,-0.205,-0.095
5175,-0.195,-0.085
5176,-0.205,-0.085
5177,-0.215,-0.095
5178,-0.225,-0.105
5179,-0.215,-0.105
5180,-0.225,-0.105
5181,-0.225,-0.105
5182,-0.215,-0.105
5183,-0.215,-0.105
5184,-0.225,-0.105
5185,-0.215,-0.125
5186,-0.235,-0.115
5187,-0.225,-0.105
5188,-0.225,-0.105
5189,-0.225,-0.125
5190,-0.215,-0.115
5191,-0.215,-0.105
5192,-0.215,-0.105
5193,-0.205,-0.105
5194,-0.185,-0.075
5195,-0.175,-0.065
5196,-0.155,-0.055
5197,-0.145,-0.065
5198,-0.125,-0.075
5199,-0.095,-0.065
5200,-0.085,-0.055
5201,-0.065,-0.065
5202,-0.075,-0.085
5203,-0.105,-0.105
5204,-0.145,-0.105
5205,-0.175,-0.115
5206,-0.195,-0.135
5207,-0.195,-0.125
5208,-0.205,-0.125
5209,-0.205,-0.125
5210,-0.215,-0.125
5211,-0.215,-0.115
5212,-0.215,-0.125
5213,-0.215,-0.135
5214,-0.205,-0.125
5215,-0.205,-0.115
5216,-0.195,-0.115
5217,-0.185,-0.125
5218,-0.185,-0.115
5219,-0.215,-0.075
5220,-0.085,-0.045
5221,0.245,0.005
5222,1.155,-0.185
5223,2.055,-0.425
5224,0.355,-0.855
5225,-0.815,-0.665
5226,-0.765,-0.275
5227,-0.365,-0.075
5228,-0.215,-0.035
5229,-0.215,-0.055
5230,-0.215,-0.045
5231,-0.195,-0.035
5232,-0.185,-0.035
5233,-0.195,-0.045
5234,-0.185,-0.045
5235,-0.175,-0.025
5236,-0.175,-0.025
5237,-0.165,-0.025
5238,-0.155,-0.025
5239,-0.145,-0.005
5240,-0.135,0.005
5241,-0.135,-0.005
5242,-0.115,0.005
5243,-0.105,0.025
5244,-0.095,0.035
5245,-0.095,0.035
5246,-0.075,0.045
5247,-0.055,0.075
5248,-0.045,0.085
5249,-0.045,0.085
5250,-0.015,0.095
5251,-0.005,0.115
5252,0.005,0.115
5253,0.005,0.105
5254,0.015,0.105
5255,0.025,0.115
5256,0.015,0.105
5257,0.015,0.075
5258,0.015,0.045
5259,0.015,0.055
5260,0.005,0.025
5261,-0.025,0.005
5262,-0.055,-0.035
5263,-0.075,-0.045
5264,-0.115,-0.065
5265,-0.145,-0.085
5266,-0.155,-0.095
5267,-0.165,-0.095
5268,-0.175,-0.105
5269,-0.185,-0.105
5270,-0.175,-0.105
5271,-0.165,-0.085
5272,-0.175,-0.095
5273,-0.155,-0.095
5274,-0.155,-0.085
5275,-0.145,-0.075
5276,-0.135,-0.075
5277,-0.135,-0.085
5278,-0.125,-0.085
5279,-0.135,-0.075
5280,-0.135,-0.075
5281,-0.125,-0.095
5282,-0.135,-0.085
5283,-0.135,-0.085
5284,-0.135,-0.085
5285,-0.135,-0.095
5286,-0.125,-0.105
5287,-0.135,-0.095
5288,-0.145,-0.105
5289,-0.135,-0.105
5290,-0.135,-0.105
5291,-0.135,-0.105
5292,-0.135,-0.105
5293,-0.135,-0.105
5294,-0.125,-0.105
5295,-0.125,-0.095
5296,-0.115,-0.115
5297,-0.115,-0.105
5298,-0.115,-0.115
5299,-0.115,-0.095
5300,-0.115,-0.105
5301,-0.115,-0.115
5302,-0.115,-0.105
5303,-0.075,-0.075
5304,-0.065,-0.065
5305,-0.065,-0.085
5306,-0.035,-0.065
5307,-0.025,-0.065
5308,-0.005,-0.065
5309,0.025,-0.065
5310,0.035,-0.065
5311,0.075,-0.055
5312,0.035,-0.095
5313,-0.015,-0.105
5314,-0.045,-0.105
5315,-0.065,-0.105
5316,-0.075,-0.125
5317,-0.085,-0.135
5318,-0.095,-0.135
5319,-0.095,-0.125
5320,-0.095,-0.125
5321,-0.095,-0.135
5322,-0.085,-0.135
5323,-0.085,-0.115
5324,-0.085,-0.125
5325,-0.075,-0.125
5326,-0.065,-0.125
5327,-0.045,-0.125
5328,-0.085,-0.105
5329,-0.045,-0.065
5330,0.185,-0.025
5331,0.895,-0.075
5332,2.015,-0.315
5333,1.095,-0.725
5334,-0.515,-0.775
5335,-0.725,-0.365
5336,-0.375,-0.145
5337,-0.125,-0.075
5338,-0.075,-0.055
5339,-0.055,-0.035
5340,-0.055,-0.045
5341,-0.065,-0.055
5342,-0.065,-0.045
5343,-0.035,-0.045
5344,-0.035,-0.035
5345,-0.035,-0.035
5346,-0.005,-0.035
5347,-0.015,-0.025
5348,-0.005,-0.025
5349,0.005,-0.015
5350,0.005,-0.025
5351,0.015,-0.005
5352,0.025,-0.005
5353,0.025,0.005
5354,0.055,0.015
5355,0.065,0.035
5356,0.085,0.045
5357,0.095,0.045
5358,0.105,0.055
5359,0.115,0.085
5360,0.145,0.085
5361,0.145,0.075
5362,0.125,0.065
5363,0.145,0.075
5364,0.135,0.065
5365,0.145,0.045
5366,0.145,0.025
5367,0.145,0.025
5368,0.115,0.005
5369,0.115,-0.015
5370,0.085,-0.035
5371,0.065,-0.045
5372,0.035,-0.065
5373,0.005,-0.085
5374,-0.005,-0.085
5375,-0.025,-0.085
5376,-0.035,-0.095
5377,-0.035,-0.105
5378,-0.035,-0.105
5379,-0.015,-0.085
5380,-0.025,-0.095
5381,-0.035,-0.105
5382,-0.025,-0.095
5383,-0.005,-0.075
5384,-0.015,-0.085
5385,-0.005,-0.095
5386,-0.015,-0.085
5387,-0.015,-0.085
5388,-0.005,-0.085
5389,-0.005,-0.085
5390,0.005,-0.095
5391,-0.005,-0.075
5392,-0.015,-0.085
5393,-0.025,-0.105
5394,-0.025,-0.095
5395,-0.015,-0.095
5396,-0.025,-0.095
5397,-0.025,-0.105
5398,-0.025,-0.105
5399,-0.025,-0.105
5400,-0.035,-0.105
5401,-0.035,-0.115
5402,-0.035,-0.105
5403,-0.025,-0.105
5404,-0.035,-0.105
5405,-0.035,-0.105
5406,-0.025,-0.095
5407,-0.005,-0.075
5408,0.005,-0.065
5409,0.005,-0.065
5410,0.025,-0.065
5411,0.045,-0.065
5412,0.085,-0.055
5413,0.095,-0.075
5414,0.085,-0.095
5415,0.025,-0.105
5416,-0.005,-0.105
5417,-0.025,-0.115
5418,-0.065,-0.135
5419,-0.065,-0.135
5420,-0.075,-0.135
5421,-0.065,-0.135
5422,-0.075,-0.135
5423,-0.085,-0.135
5424,-0.105,-0.125
5425,-0.085,-0.135
5426,-0.095,-0.135
5427,-0.085,-0.125
5428,-0.095,-0.125
5429,-0.075,-0.135
5430,-0.065,-0.125
5431,-0.075,-0.115
5432,-0.095,-0.085
5433,0.095,-0.045
5434,0.675,-0.005
5435,1.805,-0.205
5436,1.415,-0.585
5437,-0.415,-0.835
5438,-0.815,-0.425
5439,-0.495,-0.175
5440,-0.195,-0.075
5441,-0.125,-0.075
5442,-0.125,-0.065
5443,-0.115,-0.055
5444,-0.115,-0.055
5445,-0.105,-0.055
5446,-0.095,-0.055
5447,-0.095,-0.045
5448,-0.095,-0.045
5449,-0.085,-0.045
5450,-0.085,-0.045
5451,-0.065,-0.025
5452,-0.065,-0.025
5453,-0.055,-0.025
5454,-0.045,-0.025
5455,-0.035,-0.005
5456,-0.035,-0.005
5457,-0.025,-0.005
5458,-0.015,0.005
5459,0.005,0.035
5460,0.005,0.045
5461,0.025,0.045
5462,0.035,0.045
5463,0.055,0.075
5464,0.055,0.075
5465,0.055,0.065
5466,0.045,0.045
5467,0.055,0.065
5468,0.055,0.045
5469,0.045,0.025
5470,0.045,0.005
5471,0.035,0.005
5472,0.025,-0.015
5473,-0.005,-0.045
5474,-0.025,-0.055
5475,-0.055,-0.065
5476,-0.065,-0.085
5477,-0.095,-0.105
5478,-0.115,-0.115
5479,-0.135,-0.105
5480,-0.135,-0.115
5481,-0.145,-0.115
5482,-0.135,-0.125
5483,-0.135,-0.105
5484,-0.135,-0.105
5485,-0.135,-0.105
5486,-0.125,-0.105
5487,-0.115,-0.105
5488,-0.115,-0.095
5489,-0.115,-0.105
5490,-0.105,-0.095
5491,-0.105,-0.095
5492,-0.115,-0.085
5493,-0.115,-0.085
5494,-0.105,-0.085
5495,-0.105,-0.085
5496,-0.115,-0.085
5497,-0.125,-0.105
5498,-0.115,-0.105
5499,-0.125,-0.105
5500,-0.135,-0.105
5501,-0.135,-0.105
5502,-0.135,-0.115
5503,-0.125,-0.105
5504,-0.135,-0.105
5505,-0.135,-0.115
5506,-0.135,-0.115
5507,-0.135,-0.105
5508,-0.135,-0.105
5509,-0.125,-0.115
5510,-0.135,-0.125
5511,-0.135,-0.105
5512,-0.135,-0.105
5513,-0.125,-0.105
5514,-0.125,-0.105
5515,-0.105,-0.085
5516,-0.095,-0.065
5517,-0.085,-0.075
5518,-0.065,-0.065
5519,-0.035,-0.065
5520,-0.025,-0.065
5521,-0.005,-0.065
5522,0.005,-0.065
5523,0.025,-0.065
5524,-0.025,-0.105
5525,-0.065,-0.105
5526,-0.095,-0.105
5527,-0.115,-0.125
5528,-0.125,-0.125
5529,-0.125,-0.125
5530,-0.135,-0.125
5531,-0.135,-0.125
5532,-0.145,-0.115
5533,-0.145,-0.125
5534,-0.135,-0.125
5535,-0.125,-0.115
5536,-0.125,-0.115
5537,-0.115,-0.125
5538,-0.115,-0.115
5539,-0.125,-0.095
5540,-0.105,-0.065
5541,0.095,-0.025
5542,0.785,-0.065
5543,1.875,-0.255
5544,1.245,-0.655
5545,-0.495,-0.825
5546,-0.765,-0.395
5547,-0.425,-0.135
5548,-0.175,-0.045
5549,-0.135,-0.045
5550,-0.125,-0.045
5551,-0.125,-0.035
5552,-0.135,-0.035
5553,-0.115,-0.035
5554,-0.115,-0.025
5555,-0.105,-0.015
5556,-0.105,-0.025
5557,-0.095,-0.025
5558,-0.085,-0.005
5559,-0.065,0.005
5560,-0.075,-0.005
5561,-0.065,0.005
5562,-0.065,0.015
5563,-0.035,0.025
5564,-0.045,0.035
5565,-0.035,0.035
5566,-0.015,0.055
5567,0.005,0.075
5568,0.015,0.085
5569,0.025,0.075
5570,0.025,0.095
5571,0.045,0.125
5572,0.065,0.125
5573,0.065,0.125
5574,0.075,0.115
5575,0.065,0.125
5576,0.065,0.105
5577,0.075,0.085
5578,0.065,0.075
5579,0.065,0.075
5580,0.055,0.045
5581,0.045,0.005
5582,0.025,-0.015
5583,-0.015,-0.025
5584,-0.055,-0.055
5585,-0.075,-0.065
5586,-0.095,-0.085
5587,-0.105,-0.085
5588,-0.125,-0.085
5589,-0.115,-0.095
5590,-0.105,-0.085
5591,-0.095,-0.085
5592,-0.105,-0.085
5593,-0.115,-0.075
5594,-0.105,-0.075
5595,-0.095,-0.055
5596,-0.085,-0.065
5597,-0.095,-0.075
5598,-0.075,-0.065
5599,-0.065,-0.055
5600,-0.065,-0.055
5601,-0.085,-0.075
5602,-0.085,-0.065
5603,-0.075,-0.055
5604,-0.075,-0.065
5605,-0.085,-0.085
5606,-0.085,-0.085
5607,-0.095,-0.065
5608,-0.095,-0.075
5609,-0.095,-0.085
5610,-0.105,-0.085
5611,-0.095,-0.075
5612,-0.105,-0.075
5613,-0.095,-0.085
5614,-0.085,-0.095
5615,-0.085,-0.085
5616,-0.095,-0.085
5617,-0.095,-0.085
5618,-0.095,-0.095
5619,-0.075,-0.065
5620,-0.085,-0.095
5621,-0.085,-0.085
5622,-0.075,-0.085
5623,-0.075,-0.075
5624,-0.085,-0.075
5625,-0.055,-0.065
5626,-0.055,-0.045
5627,-0.025,-0.045
5628,-0.015,-0.035
5629,-0.005,-0.055
5630,0.035,-0.055
5631,0.045,-0.035
5632,0.065,-0.035
5633,0.065,-0.055
5634,0.035,-0.075
5635,-0.005,-0.075
5636,-0.045,-0.085
5637,-0.065,-0.115
5638,-0.045,-0.105
5639,-0.055,-0.095
5640,-0.065,-0.105
5641,-0.065,-0.105
5642,-0.075,-0.105
5643,-0.065,-0.095
5644,-0.075,-0.105
5645,-0.075,-0.105
5646,-0.055,-0.095
5647,-0.045,-0.085
5648,-0.045,-0.095
5649,-0.035,-0.105
5650,-0.085,-0.065
5651,0.055,-0.015
5652,0.415,0.035
5653,1.295,-0.155
5654,2.145,-0.375
5655,0.555,-0.775
5656,-0.635,-0.695
5657,-0.625,-0.325
5658,-0.265,-0.095
5659,-0.075,-0.025
5660,-0.055,-0.015
5661,-0.055,-0.035
5662,-0.055,-0.025
5663,-0.045,-0.015
5664,-0.035,-0.005
5665,-0.025,-0.015
5666,-0.025,-0.015
5667,-0.015,-0.005
5668,-0.005,0.005
5669,-0.005,0.005
5670,0.005,0.005
5671,0.015,0.015
5672,0.025,0.025
5673,0.035,0.015
5674,0.035,0.025
5675,0.045,0.045
5676,0.065,0.045
5677,0.085,0.065
5678,0.075,0.055
5679,0.105,0.085
5680,0.105,0.085
5681,0.125,0.105
5682,0.155,0.105
5683,0.155,0.125
5684,0.155,0.125
5685,0.155,0.115
5686,0.165,0.115
5687,0.175,0.115
5688,0.165,0.085
5689,0.155,0.075
5690,0.165,0.055
5691,0.155,0.045
5692,0.145,0.015
5693,0.105,-0.005
5694,0.085,-0.015
5695,0.055,-0.025
5696,0.035,-0.045
5697,0.015,-0.055
5698,-0.005,-0.075
5699,-0.015,-0.065
5700,-0.015,-0.065
5701,0.005,-0.065
5702,0.005,-0.065
5703,0.005,-0.055
5704,-0.015,-0.065
5705,-0.005,-0.055
5706,-0.005,-0.055
5707,0.025,-0.045
5708,0.025,-0.055
5709,0.005,-0.055
5710,0.025,-0.055
5711,0.025,-0.045
5712,0.015,-0.055
5713,0.005,-0.065
5714,0.005,-0.065
5715,0.005,-0.055
5716,-0.005,-0.055
5717,0.015,-0.065
5718,0.005,-0.065
5719,-0.005,-0.065
5720,-0.005,-0.075
5721,-0.005,-0.075
5722,-0.015,-0.075
5723,-0.005,-0.065
5724,-0.005,-0.075
5725,-0.015,-0.085
5726,-0.005,-0.075
5727,0.005,-0.065
5728,-0.005,-0.065
5729,-0.005,-0.085
5730,-0.015,-0.065
5731,0.025,-0.045
5732,0.055,-0.025
5733,0.035,-0.035
5734,0.055,-0.035
5735,0.065,-0.035
5736,0.095,-0.035
5737,0.135,-0.035
5738,0.135,-0.035
5739,0.145,-0.025
5740,0.105,-0.075
5741,0.065,-0.065
5742,0.035,-0.075
5743,0.005,-0.085
5744,-0.005,-0.095
5745,-0.005,-0.095
5746,-0.015,-0.095
5747,-0.005,-0.085
5748,-0.015,-0.085
5749,-0.015,-0.095
5750,-0.015,-0.085
5751,-0.015,-0.085
5752,-0.015,-0.095
5753,-0.015,-0.085
5754,-0.015,-0.095
5755,0.015,-0.075
5756,-0.025,-0.065
5757,0.025,-0.045
5758,0.275,0.015
5759,1.005,-0.005
5760,2.035,-0.245
5761,1.065,-0.645
5762,-0.495,-0.735
5763,-0.715,-0.315
5764,-0.365,-0.125
5765,-0.105,-0.065
5766,-0.025,-0.025
5767,-0.035,-0.015
5768,-0.025,-0.005
5769,-0.025,-0.015
5770,-0.025,-0.025
5771,-0.025,-0.005
5772,-0.015,-0.005
5773,-0.015,-0.015
5774,0.005,-0.005
5775,-0.005,0.005
5776,-0.005,0.005
5777,0.005,0.005
5778,0.005,0.015
5779,0.025,0.025
5780,0.015,0.035
5781,0.015,0.025
5782,0.045,0.045
5783,0.055,0.055
5784,0.045,0.045
5785,0.055,0.065
5786,0.065,0.075
5787,0.085,0.095
5788,0.085,0.095
5789,0.085,0.085
5790,0.085,0.095
5791,0.085,0.105
5792,0.075,0.095
5793,0.065,0.055
5794,0.055,0.055
5795,0.045,0.055
5796,0.045,0.015
5797,0.035,0.005
5798,0.025,-0.005
5799,-0.015,-0.015
5800,-0.035,-0.035
5801,-0.065,-0.055
5802,-0.085,-0.055
5803,-0.095,-0.055
5804,-0.115,-0.065
5805,-0.125,-0.075
5806,-0.115,-0.065
5807,-0.115,-0.055
5808,-0.125,-0.065
5809,-0.125,-0.075
5810,-0.135,-0.065
5811,-0.115,-0.055
5812,-0.115,-0.055
5813,-0.115,-0.065
5814,-0.105,-0.055
5815,-0.105,-0.045
5816,-0.105,-0.055
5817,-0.105,-0.055
5818,-0.115,-0.065
5819,-0.125,-0.055
5820,-0.115,-0.055
5821,-0.125,-0.075
5822,-0.125,-0.065
5823,-0.125,-0.055
5824,-0.125,-0.065
5825,-0.145,-0.075
5826,-0.145,-0.075
5827,-0.145,-0.065
5828,-0.135,-0.065
5829,-0.145,-0.085
5830,-0.145,-0.085
5831,-0.135,-0.075
5832,-0.135,-0.075
5833,-0.135,-0.075
5834,-0.135,-0.075
5835,-0.115,-0.045
5836,-0.105,-0.035
5837,-0.075,-0.025
5838,-0.065,-0.045
5839,-0.055,-0.035
5840,-0.015,-0.015
5841,-0.005,-0.025
5842,-0.015,-0.055
5843,-0.075,-0.085
5844,-0.095,-0.065
5845,-0.115,-0.075
5846,-0.135,-0.105
5847,-0.145,-0.105
5848,-0.155,-0.095
5849,-0.155,-0.095
5850,-0.155,-0.115
5851,-0.175,-0.115
5852,-0.175,-0.105
5853,-0.165,-0.105
5854,-0.165,-0.115
5855,-0.165,-0.105
5856,-0.165,-0.105
5857,-0.155,-0.095
5858,-0.155,-0.105
5859,-0.135,-0.105
5860,-0.175,-0.055
5861,-0.005,-0.015
5862,0.355,0.035
5863,1.435,-0.155
5864,1.805,-0.455
5865,-0.045,-0.845
5866,-0.845,-0.565
5867,-0.635,-0.205
5868,-0.275,-0.055
5869,-0.195,-0.025
5870,-0.185,-0.035
5871,-0.175,-0.035
5872,-0.175,-0.025
5873,-0.165,-0.025
5874,-0.155,-0.025
5875,-0.165,-0.025
5876,-0.155,-0.015
5877,-0.145,-0.005
5878,-0.135,-0.015
5879,-0.125,-0.005
5880,-0.125,0.005
5881,-0.125,0.005
5882,-0.105,0.005
5883,-0.105,0.025
5884,-0.085,0.035
5885,-0.085,0.025
5886,-0.075,0.035
5887,-0.055,0.065
5888,-0.045,0.075
5889,-0.035,0.065
5890,-0.015,0.095
5891,-0.015,0.105
5892,-0.015,0.115
5893,-0.005,0.085
5894,0.005,0.095
5895,0.005,0.095
5896,0.005,0.075
5897,0.005,0.045
5898,-0.005,0.025
5899,-0.025,0.015
5900,-0.045,-0.005
5901,-0.075,-0.025
5902,-0.095,-0.055
5903,-0.125,-0.065
5904,-0.155,-0.075
5905,-0.175,-0.095
5906,-0.195,-0.095
5907,-0.195,-0.095
5908,-0.205,-0.105
5909,-0.195,-0.095
5910,-0.185,-0.095
5911,-0.185,-0.085
5912,-0.185,-0.105
5913,-0.175,-0.095
5914,-0.185,-0.085
5915,-0.165,-0.075
5916,-0.175,-0.085
5917,-0.175,-0.085
5918,-0.155,-0.085
5919,-0.165,-0.075
5920,-0.165,-0.085
5921,-0.175,-0.095
5922,-0.175,-0.095
5923,-0.165,-0.085
5924,-0.175,-0.095
5925,-0.185,-0.105
5926,-0.185,-0.105
5927,-0.175,-0.095
5928,-0.185,-0.095
5929,-0.195,-0.115
5930,-0.195,-0.115
5931,-0.185,-0.095
5932,-0.185,-0.105
5933,-0.185,-0.105
5934,-0.195,-0.115
5935,-0.185,-0.105
5936,-0.185,-0.105
5937,-0.195,-0.115
5938,-0.195,-0.125
5939,-0.185,-0.095
5940,-0.185,-0.105
5941,-0.185,-0.115
5942,-0.175,-0.105
5943,-0.145,-0.075
5944,-0.135,-0.075
5945,-0.135,-0.085
5946,-0.115,-0.085
5947,-0.095,-0.075
5948,-0.065,-0.065
5949,-0.065,-0.075
5950,-0.045,-0.075
5951,-0.035,-0.085
5952,-0.085,-0.115
5953,-0.135,-0.115
5954,-0.165,-0.125
5955,-0.175,-0.125
5956,-0.175,-0.145
5957,-0.185,-0.145
5958,-0.185,-0.145
5959,-0.185,-0.135
5960,-0.185,-0.135
5961,-0.195,-0.155
5962,-0.195,-0.145
5963,-0.185,-0.135
5964,-0.185,-0.135
5965,-0.185,-0.145
5966,-0.165,-0.145
5967,-0.165,-0.135
5968,-0.195,-0.095
5969,-0.035,-0.055
5970,0.375,-0.025
5971,1.425,-0.235
5972,1.915,-0.485
5973,0.015,-0.905
5974,-0.835,-0.585
5975,-0.625,-0.225
5976,-0.295,-0.085
5977,-0.205,-0.065
5978,-0.195,-0.075
5979,-0.185,-0.055
5980,-0.175,-0.065
5981,-0.185,-0.075
5982,-0.165,-0.065
5983,-0.155,-0.045
5984,-0.145,-0.045
5985,-0.145,-0.055
5986,-0.145,-0.045
5987,-0.145,-0.035
5988,-0.125,-0.025
5989,-0.115,-0.035
5990,-0.095,-0.015
5991,-0.105,-0.005
5992,-0.095,-0.005
5993,-0.075,0.005
5994,-0.075,0.015
5995,-0.055,0.025
5996,-0.055,0.045
5997,-0.035,0.045
5998,-0.015,0.065
5999,0.005,0.085
6000,0.005,0.085
6001,0.015,0.085
6002,0.005,0.095
6003,0.015,0.085
6004,0.015,0.055
6005,0.005,0.045
6006,0.015,0.035
6007,0.025,0.025
6008,0.005,0.005
6009,-0.025,-0.025
6010,-0.045,-0.045
6011,-0.065,-0.055
6012,-0.095,-0.075
6013,-0.115,-0.105
6014,-0.135,-0.115
6015,-0.145,-0.105
6016,-0.155,-0.115
6017,-0.175,-0.135
6018,-0.155,-0.125
6019,-0.155,-0.115
6020,-0.155,-0.115
6021,-0.145,-0.115
6022,-0.155,-0.115
6023,-0.135,-0.095
6024,-0.135,-0.105
6025,-0.135,-0.115
6026,-0.125,-0.105
6027,-0.125,-0.095
6028,-0.115,-0.095
6029,-0.115,-0.105
6030,-0.125,-0.115
6031,-0.125,-0.105
6032,-0.125,-0.115
6033,-0.145,-0.115
6034,-0.135,-0.125
6035,-0.135,-0.125
6036,-0.135,-0.125
6037,-0.145,-0.135
6038,-0.145,-0.135
6039,-0.125,-0.125
6040,-0.135,-0.125
6041,-0.155,-0.145
6042,-0.135,-0.135
6043,-0.135,-0.135
6044,-0.145,-0.125
6045,-0.145,-0.145
6046,-0.135,-0.135
6047,-0.125,-0.135
6048,-0.135,-0.135
6049,-0.135,-0.145
6050,-0.135,-0.145
6051,-0.135,-0.125
6052,-0.125,-0.125
6053,-0.115,-0.115
6054,-0.095,-0.105
6055,-0.075,-0.095
6056,-0.065,-0.085
6057,-0.055,-0.095
6058,-0.025,-0.105
6059,0.015,-0.085
6060,0.005,-0.075
6061,0.035,-0.095
6062,0.005,-0.135
6063,-0.025,-0.115
6064,-0.075,-0.125
6065,-0.105,-0.155
6066,-0.115,-0.165
6067,-0.105,-0.145
6068,-0.115,-0.145
6069,-0.115,-0.155
6070,-0.115,-0.155
6071,-0.125,-0.135
6072,-0.135,-0.145
6073,-0.115,-0.145
6074,-0.125,-0.145
6075,-0.095,-0.145
6076,-0.105,-0.145
6077,-0.085,-0.145
6078,-0.115,-0.105
6079,-0.065,-0.075
6080,0.215,-0.035
6081,1.045,-0.135
6082,2.135,-0.375
6083,0.785,-0.795
6084,-0.675,-0.745
6085,-0.765,-0.355
6086,-0.365,-0.155
6087,-0.145,-0.065
6088,-0.105,-0.065
6089,-0.095,-0.065
6090,-0.105,-0.065
6091,-0.105,-0.055
6092,-0.095,-0.055
6093,-0.085,-0.055
6094,-0.075,-0.055
6095,-0.075,-0.035
6096,-0.075,-0.045
6097,-0.045,-0.045
6098,-0.055,-0.045
6099,-0.045,-0.025
6100,-0.035,-0.025
6101,-0.035,-0.035
6102,-0.025,-0.025
6103,-0.005,-0.005
6104,0.005,0.005
6105,0.015,0.005
6106,0.015,0.025
6107,0.035,0.035
6108,0.045,0.045
6109,0.055,0.055
6110,0.085,0.045
6111,0.085,0.075
6112,0.075,0.065
6113,0.075,0.065
6114,0.085,0.045
6115,0.075,0.055
6116,0.065,0.035
6117,0.065,0.005
6118,0.065,-0.005
6119,0.065,-0.005
6120,0.055,-0.025
6121,0.025,-0.065
6122,0.005,-0.065
6123,-0.015,-0.075
6124,-0.045,-0.095
6125,-0.065,-0.105
6126,-0.085,-0.115
6127,-0.085,-0.105
6128,-0.095,-0.095
6129,-0.085,-0.115
6130,-0.095,-0.115
6131,-0.095,-0.095
6132,-0.075,-0.095
6133,-0.075,-0.095
6134,-0.065,-0.095
6135,-0.065,-0.085
6136,-0.085,-0.085
6137,-0.075,-0.095
6138,-0.055,-0.085
6139,-0.075,-0.095
6140,-0.075,-0.095
6141,-0.085,-0.095
6142,-0.065,-0.095
6143,-0.085,-0.095
6144,-0.085,-0.095
6145,-0.105,-0.115
6146,-0.105,-0.105
6147,-0.105,-0.095
6148,-0.105,-0.105
6149,-0.115,-0.115
6150,-0.105,-0.115
6151,-0.105,-0.105
6152,-0.105,-0.105
6153,-0.105,-0.115
6154,-0.115,-0.115
6155,-0.125,-0.115
6156,-0.115,-0.105
6157,-0.115,-0.115
6158,-0.105,-0.095
6159,-0.075,-0.065
6160,-0.095,-0.075
6161,-0.075,-0.075
6162,-0.075,-0.085
6163,-0.045,-0.075
6164,-0.015,-0.075
6165,-0.015,-0.075
6166,0.015,-0.075
6167,-0.025,-0.105
6168,-0.065,-0.105
6169,-0.105,-0.125
6170,-0.155,-0.135
6171,-0.145,-0.135
6172,-0.145,-0.135
6173,-0.145,-0.135
6174,-0.155,-0.145
6175,-0.165,-0.135
6176,-0.165,-0.125
6177,-0.165,-0.145
6178,-0.185,-0.145
6179,-0.175,-0.125
6180,-0.165,-0.125
6181,-0.165,-0.135
6182,-0.155,-0.135
6183,-0.145,-0.125
6184,-0.195,-0.095
6185,-0.065,-0.065
6186,0.205,0.005
6187,1.015,-0.075
6188,2.025,-0.325
6189,0.825,-0.755
6190,-0.625,-0.775
6191,-0.875,-0.375
6192,-0.555,-0.155
6193,-0.275,-0.085
6194,-0.195,-0.065
6195,-0.195,-0.055
6196,-0.195,-0.045
6197,-0.185,-0.045
6198,-0.185,-0.055
6199,-0.175,-0.045
6200,-0.175,-0.035
6201,-0.165,-0.035
6202,-0.165,-0.045
6203,-0.165,-0.035
6204,-0.155,-0.025
6205,-0.145,-0.025
6206,-0.145,-0.025
6207,-0.135,-0.025
6208,-0.135,0.005
6209,-0.115,0.005
6210,-0.115,0.005
6211,-0.105,0.005
6212,-0.105,0.035
6213,-0.075,0.045
6214,-0.075,0.035
6215,-0.065,0.045
6216,-0.045,0.085
6217,-0.035,0.095
6218,-0.035,0.085
6219,-0.035,0.065
6220,-0.025,0.085
6221,-0.035,0.075
6222,-0.035,0.055
6223,-0.045,0.045
6224,-0.035,0.035
6225,-0.055,0.015
6226,-0.065,-0.015
6227,-0.075,-0.015
6228,-0.095,-0.025
6229,-0.125,-0.055
6230,-0.155,-0.075
6231,-0.175,-0.085
6232,-0.175,-0.085
6233,-0.185,-0.085
6234,-0.205,-0.105
6235,-0.205,-0.095
6236,-0.205,-0.085
6237,-0.195,-0.085
6238,-0.185,-0.095
6239,-0.175,-0.085
6240,-0.175,-0.075
6241,-0.185,-0.075
6242,-0.175,-0.075
6243,-0.165,-0.075
6244,-0.165,-0.065
6245,-0.165,-0.075
6246,-0.175,-0.085
6247,-0.165,-0.065
6248,-0.175,-0.075
6249,-0.175,-0.075
6250,-0.165,-0.085
6251,-0.175,-0.085
6252,-0.185,-0.085
6253,-0.195,-0.095
6254,-0.195,-0.095
6255,-0.185,-0.085
6256,-0.195,-0.085
6257,-0.195,-0.105
6258,-0.205,-0.105
6259,-0.185,-0.095
6260,-0.195,-0.095
6261,-0.185,-0.095
6262,-0.185,-0.095
6263,-0.185,-0.085
6264,-0.195,-0.095
6265,-0.185,-0.095
6266,-0.185,-0.085
6267,-0.185,-0.075
6268,-0.155,-0.065
6269,-0.145,-0.065
6270,-0.125,-0.055
6271,-0.115,-0.045
6272,-0.095,-0.065
6273,-0.075,-0.065
6274,-0.065,-0.045
6275,-0.035,-0.045
6276,-0.045,-0.065
6277,-0.085,-0.095
6278,-0.115,-0.095
6279,-0.145,-0.085
6280,-0.165,-0.105
6281,-0.175,-0.125
6282,-0.195,-0.115
6283,-0.175,-0.105
6284,-0.175,-0.105
6285,-0.185,-0.115
6286,-0.185,-0.115
6287,-0.185,-0.105
6288,-0.185,-0.105
6289,-0.185,-0.115
6290,-0.185,-0.115
6291,-0.185,-0.105
6292,-0.165,-0.105
6293,-0.185,-0.095
6294,-0.135,-0.055
6295,0.075,0.005
6296,0.765,-0.075
6297,1.935,-0.295
6298,1.095,-0.725
6299,-0.555,-0.795
6300,-0.855,-0.375
6301,-0.485,-0.125
6302,-0.235,-0.035
6303,-0.185,-0.025
6304,-0.185,-0.025
6305,-0.185,-0.045
6306,-0.185,-0.025
6307,-0.165,-0.015
6308,-0.165,-0.025
6309,-0.165,-0.025
6310,-0.155,-0.015
6311,-0.135,0.005
6312,-0.135,-0.005
6313,-0.135,-0.005
6314,-0.125,0.005
6315,-0.115,0.025
6316,-0.105,0.025
6317,-0.095,0.015
6318,-0.095,0.025
6319,-0.075,0.045
6320,-0.055,0.055
6321,-0.065,0.065
6322,-0.045,0.065
6323,-0.035,0.095
6324,-0.025,0.105
6325,-0.005,0.105
6326,-0.005,0.115
6327,0.005,0.125
6328,0.005,0.125
6329,0.005,0.105
6330,0.015,0.095
6331,0.005,0.095
6332,0.005,0.075
6333,-0.005,0.055
6334,-0.005,0.035
6335,-0.005,0.025
6336,-0.035,-0.015
6337,-0.065,-0.045
6338,-0.105,-0.055
6339,-0.115,-0.055
6340,-0.135,-0.065
6341,-0.155,-0.095
6342,-0.155,-0.095
6343,-0.155,-0.085
6344,-0.155,-0.095
6345,-0.155,-0.095
6346,-0.155,-0.085
6347,-0.155,-0.075
6348,-0.145,-0.085
6349,-0.135,-0.085
6350,-0.125,-0.085
6351,-0.125,-0.075
6352,-0.135,-0.085
6353,-0.125,-0.085
6354,-0.135,-0.085
6355,-0.115,-0.065
6356,-0.135,-0.085
6357,-0.135,-0.095
6358,-0.135,-0.095
6359,-0.135,-0.085
6360,-0.145,-0.095
6361,-0.135,-0.105
6362,-0.155,-0.115
6363,-0.145,-0.095
6364,-0.135,-0.105
6365,-0.145,-0.115
6366,-0.145,-0.115
6367,-0.145,-0.095
6368,-0.145,-0.105
6369,-0.145,-0.115
6370,-0.145,-0.125
6371,-0.145,-0.105
6372,-0.145,-0.115
6373,-0.145,-0.125
6374,-0.135,-0.125
6375,-0.135,-0.115
6376,-0.135,-0.115
6377,-0.145,-0.105
6378,-0.115,-0.095
6379,-0.095,-0.075
6380,-0.095,-0.075
6381,-0.065,-0.075
6382,-0.065,-0.085
6383,-0.035,-0.075
6384,-0.005,-0.065
6385,0.005,-0.065
6386,0.035,-0.065
6387,-0.005,-0.095
6388,-0.025,-0.105
6389,-0.075,-0.115
6390,-0.105,-0.125
6391,-0.115,-0.135
6392,-0.125,-0.135
6393,-0.135,-0.135
6394,-0.125,-0.135
6395,-0.125,-0.125
6396,-0.135,-0.125
6397,-0.135,-0.145
6398,-0.125,-0.135
6399,-0.125,-0.135
6400,-0.115,-0.125
6401,-0.115,-0.145
6402,-0.105,-0.145
6403,-0.135,-0.115
6404,-0.105,-0.075
6405,0.085,-0.035
6406,0.675,-0.065
6407,1.815,-0.275
6408,1.535,-0.625
6409,-0.295,-0.875
6410,-0.795,-0.485
6411,-0.485,-0.185
6412,-0.195,-0.065
6413,-0.135,-0.065
6414,-0.125,-0.065
6415,-0.105,-0.055
6416,-0.115,-0.055
6417,-0.125,-0.065
6418,-0.095,-0.055
6419,-0.095,-0.045
6420,-0.085,-0.045
6421,-0.085,-0.055
6422,-0.085,-0.045
6423,-0.065,-0.025
6424,-0.055,-0.025
6425,-0.055,-0.025
6426,-0.055,-0.015
6427,-0.045,-0.005
6428,-0.025,0.015
6429,-0.015,0.005
6430,0.005,0.035
6431,0.015,0.045
6432,0.025,0.055
6433,0.035,0.055
6434,0.045,0.085
6435,0.075,0.105
6436,0.065,0.095
6437,0.075,0.075
6438,0.085,0.075
6439,0.075,0.075
6440,0.075,0.055
6441,0.085,0.025
6442,0.065,0.015
6443,0.065,0.015
6444,0.055,-0.015
6445,0.045,-0.045
6446,0.025,-0.075
6447,-0.015,-0.075
6448,-0.045,-0.095
6449,-0.055,-0.115
6450,-0.075,-0.125
6451,-0.075,-0.125
6452,-0.085,-0.125
6453,-0.085,-0.125
6454,-0.075,-0.125
6455,-0.065,-0.125
6456,-0.075,-0.125
6457,-0.065,-0.115
6458,-0.065,-0.115
6459,-0.055,-0.105
6460,-0.065,-0.115
6461,-0.065,-0.115
6462,-0.035,-0.115
6463,-0.045,-0.105
6464,-0.055,-0.115
6465,-0.055,-0.115
6466,-0.055,-0.115
6467,-0.055,-0.115
6468,-0.065,-0.125
6469,-0.075,-0.135
6470,-0.065,-0.135
6471,-0.055,-0.125
6472,-0.065,-0.135
6473,-0.075,-0.145
6474,-0.075,-0.145
6475,-0.055,-0.125
6476,-0.065,-0.135
6477,-0.065,-0.155
6478,-0.075,-0.145
6479,-0.065,-0.135
6480,-0.075,-0.145
6481,-0.055,-0.155
6482,-0.075,-0.145
6483,-0.065,-0.145
6484,-0.065,-0.145
6485,-0.065,-0.145
6486,-0.055,-0.135
6487,-0.035,-0.115
6488,-0.025,-0.105
6489,-0.035,-0.115
6490,-0.005,-0.105
6491,0.015,-0.105
6492,0.035,-0.105
6493,0.065,-0.095
6494,0.085,-0.095
6495,0.105,-0.085
6496,0.065,-0.125
6497,0.025,-0.145
6498,-0.015,-0.135
6499,-0.025,-0.145
6500,-0.045,-0.155
6501,-0.055,-0.165
6502,-0.055,-0.165
6503,-0.055,-0.155
6504,-0.065,-0.155
6505,-0.075,-0.165
6506,-0.085,-0.165
6507,-0.075,-0.145
6508,-0.055,-0.145
6509,-0.045,-0.145
6510,-0.035,-0.145
6511,-0.025,-0.145
6512,-0.075,-0.125
6513,0.035,-0.095
6514,0.345,-0.025
6515,1.265,-0.135
