'sample interval','ECG0','ECG1'
'0.0078125 sec','mV','mV'
0,-0.035,0.000
1,-0.035,0.000
2,-0.035,0.000
3,-0.035,0.000
4,-0.035,0.000
5,-0.035,-0.005
6,-0.030,0.000
7,-0.030,0.000
8,-0.030,0.000
9,-0.030,-0.005
10,-0.030,-0.005
11,-0.025,-0.005
12,-0.025,-0.005
13,-0.030,-0.005
14,-0.025,0.000
15,-0.025,0.000
16,-0.025,0.000
17,-0.025,0.000
18,-0.030,0.005
19,-0.020,0.000
20,-0.015,0.000
21,-0.010,0.000
22,-0.010,0.000
23,-0.010,-0.010
24,-0.010,-0.005
25,-0.010,-0.005
26,-0.010,0.000
27,-0.010,0.000
28,-0.010,0.000
29,-0.010,0.000
30,-0.010,0.000
31,-0.005,-0.005
32,-0.005,-0.015
33,-0.005,-0.020
34,-0.005,-0.020
35,-0.005,-0.020
36,-0.005,-0.030
37,-0.005,-0.020
38,-0.005,-0.020
39,-0.005,-0.020
40,-0.005,-0.015
41,-0.005,-0.015
42,-0.005,-0.020
43,-0.005,-0.035
44,-0.035,-0.045
45,-0.035,-0.015
46,0.020,0.030
47,0.135,0.085
48,0.245,0.185
49,0.285,0.325
50,0.285,0.490
51,0.220,0.495
52,0.125,0.320
53,0.030,0.065
54,-0.010,-0.100
55,-0.030,-0.140
56,-0.050,-0.115
57,-0.055,-0.105
58,-0.060,-0.100
59,-0.060,-0.100
60,-0.060,-0.105
61,-0.055,-0.105
62,-0.055,-0.105
63,-0.045,-0.105
64,-0.050,-0.100
65,-0.050,-0.085
66,-0.050,-0.075
67,-0.045,-0.070
68,-0.040,-0.055
69,-0.035,-0.040
70,-0.035,-0.030
71,-0.030,-0.015
72,-0.030,-0.005
73,-0.030,0.000
74,-0.030,0.000
75,-0.030,0.000
76,-0.030,0.005
77,-0.030,0.010
78,-0.030,0.010
79,-0.030,0.015
80,-0.035,0.020
81,-0.035,0.020
82,-0.035,0.020
83,-0.035,0.025
84,-0.035,0.020
85,-0.035,0.020
86,-0.035,0.020
87,-0.035,0.015
88,-0.030,0.015
89,-0.030,0.015
90,-0.030,0.015
91,-0.025,0.010
92,-0.020,0.010
93,-0.020,0.010
94,-0.020,0.010
95,-0.015,0.005
96,-0.015,0.005
97,-0.015,0.000
98,-0.015,0.000
99,-0.020,0.010
100,-0.030,0.030
101,-0.040,0.065
102,-0.055,0.090
103,-0.075,0.125
104,-0.095,0.195
105,-0.105,0.270
106,-0.115,0.300
107,-0.145,0.305
108,-0.180,0.315
109,-0.205,0.350
110,-0.215,0.440
111,-0.230,0.470
112,-0.255,0.340
113,-0.255,0.195
114,-0.210,0.100
115,-0.110,0.040
116,0.000,-0.015
117,0.070,-0.065
118,0.100,-0.140
119,0.115,-0.210
120,0.115,-0.235
121,0.115,-0.240
122,0.115,-0.235
123,0.115,-0.225
124,0.115,-0.220
125,0.115,-0.210
126,0.110,-0.195
127,0.110,-0.190
128,0.115,-0.190
129,0.115,-0.185
130,0.110,-0.180
131,0.110,-0.170
132,0.110,-0.165
133,0.105,-0.160
134,0.095,-0.155
135,0.090,-0.145
136,0.085,-0.135
137,0.080,-0.135
138,0.080,-0.125
139,0.070,-0.120
140,0.065,-0.110
141,0.060,-0.100
142,0.055,-0.090
143,0.050,-0.080
144,0.040,-0.065
145,0.035,-0.055
146,0.030,-0.040
147,0.020,-0.030
148,0.010,-0.020
149,0.005,-0.005
150,0.000,0.000
151,0.000,0.000
152,0.000,0.000
153,0.000,0.000
154,-0.010,0.000
155,-0.010,0.000
156,-0.010,0.005
157,-0.010,0.005
158,-0.010,0.010
159,-0.010,0.010
160,-0.010,0.010
161,-0.015,0.010
162,-0.010,0.010
163,-0.010,0.010
164,-0.010,0.005
165,-0.010,0.005
166,-0.010,0.010
167,-0.010,0.010
168,-0.010,0.005
169,-0.010,0.005
170,-0.010,0.005
171,-0.010,0.005
172,-0.010,0.005
173,-0.010,0.005
174,-0.005,0.000
175,-0.005,0.000
176,-0.010,0.005
177,-0.005,0.005
178,-0.005,0.005
179,-0.005,0.000
180,-0.005,0.000
181,-0.005,0.000
182,-0.005,0.000
183,-0.005,0.000
184,-0.005,0.000
185,-0.005,0.000
186,-0.005,0.000
187,-0.005,0.000
188,-0.005,0.000
189,-0.005,0.000
190,-0.005,0.000
191,-0.005,0.005
192,-0.005,0.010
193,-0.005,0.015
194,0.000,0.015
195,0.000,0.015
196,-0.005,0.015
197,-0.005,0.010
198,-0.005,0.010
199,0.000,0.015
200,0.000,0.015
201,-0.005,0.010
202,-0.005,0.000
203,-0.005,0.010
204,-0.005,0.010
205,-0.005,0.010
206,-0.005,0.020
207,-0.005,0.030
208,-0.010,0.035
209,-0.010,0.035
210,-0.010,0.040
211,-0.005,0.030
212,0.000,0.015
213,0.000,0.005
214,0.000,0.005
215,0.000,0.000
216,0.000,0.000
217,0.000,0.015
218,0.000,0.015
219,0.000,0.005
220,0.000,0.005
221,0.000,0.010
222,0.000,0.010
223,0.000,0.000
224,0.000,0.000
225,0.000,0.000
226,0.000,0.000
227,0.000,0.000
228,0.000,0.000
229,0.000,0.000
230,0.000,0.000
231,0.000,0.000
232,0.000,0.000
233,0.000,0.000
234,-0.020,-0.005
235,-0.025,0.000
236,0.015,0.050
237,0.105,0.115
238,0.215,0.195
239,0.280,0.310
240,0.290,0.440
241,0.250,0.470
242,0.155,0.315
243,0.060,0.080
244,0.000,-0.085
245,-0.020,-0.130
246,-0.035,-0.105
247,-0.045,-0.075
248,-0.055,-0.075
249,-0.050,-0.080
250,-0.045,-0.085
251,-0.055,-0.080
252,-0.050,-0.075
253,-0.040,-0.070
254,-0.040,-0.060
255,-0.040,-0.050
256,-0.040,-0.045
257,-0.035,-0.030
258,-0.035,-0.010
259,-0.035,0.000
260,-0.035,0.000
261,-0.030,0.000
262,-0.030,0.015
263,-0.030,0.020
264,-0.030,0.025
265,-0.030,0.030
266,-0.030,0.035
267,-0.030,0.035
268,-0.030,0.040
269,-0.035,0.040
270,-0.035,0.040
271,-0.035,0.040
272,-0.035,0.035
273,-0.040,0.035
274,-0.040,0.040
275,-0.040,0.045
276,-0.040,0.045
277,-0.040,0.045
278,-0.040,0.050
279,-0.035,0.060
280,-0.030,0.060
281,-0.025,0.055
282,-0.015,0.050
283,-0.015,0.045
284,-0.010,0.040
285,-0.010,0.035
286,-0.005,0.030
287,0.000,0.025
288,0.000,0.015
289,0.000,0.005
290,0.000,0.000
291,0.000,0.000
292,0.000,0.000
293,0.000,0.000
294,0.000,0.000
295,0.005,0.000
296,0.005,0.000
297,0.005,0.000
298,0.005,0.000
299,0.005,0.000
300,0.010,0.000
301,0.010,0.000
302,0.010,0.000
303,0.010,0.015
304,0.010,0.020
305,0.010,0.025
306,0.005,0.020
307,0.005,0.020
308,0.015,0.005
309,0.020,0.000
310,0.025,0.000
311,0.030,0.000
312,0.030,0.000
313,0.030,0.005
314,0.030,0.005
315,0.030,0.005
316,0.030,0.005
317,0.030,0.005
318,0.030,0.000
319,0.035,0.000
320,0.035,0.000
321,0.035,0.000
322,0.035,0.000
323,0.035,0.000
324,0.035,0.000
325,0.035,0.000
326,0.035,0.000
327,0.035,0.000
328,0.030,0.000
329,0.030,0.000
330,0.025,0.000
331,0.015,-0.005
332,0.005,0.000
333,0.055,0.030
334,0.145,0.095
335,0.255,0.165
336,0.315,0.295
337,0.335,0.455
338,0.295,0.545
339,0.200,0.420
340,0.090,0.160
341,0.020,-0.050
342,0.000,-0.090
343,0.000,-0.075
344,-0.005,-0.045
345,-0.010,-0.050
346,-0.015,-0.055
347,-0.015,-0.055
348,-0.010,-0.065
349,-0.010,-0.070
350,-0.010,-0.070
351,-0.010,-0.065
352,-0.010,-0.060
353,-0.010,-0.055
354,-0.005,-0.040
355,-0.005,-0.035
356,0.000,-0.025
357,0.000,-0.015
358,0.000,-0.005
359,0.000,0.000
360,0.000,0.000
361,0.000,0.000
362,0.000,0.000
363,0.000,0.005
364,0.000,0.015
365,0.000,0.020
366,0.000,0.020
367,-0.005,0.020
368,-0.005,0.015
369,-0.005,0.015
370,-0.005,0.015
371,-0.010,0.010
372,-0.010,0.005
373,-0.010,0.000
374,-0.010,0.000
375,-0.010,0.000
376,-0.005,0.000
377,-0.005,0.000
378,-0.005,0.000
379,-0.010,0.000
380,-0.010,0.000
381,-0.010,0.000
382,-0.010,0.000
383,-0.010,0.000
384,-0.010,0.000
385,-0.010,0.000
386,-0.010,0.000
387,-0.010,0.000
388,-0.010,0.000
389,-0.010,0.000
390,-0.010,0.000
391,-0.010,0.000
392,-0.010,-0.005
393,-0.010,-0.005
394,-0.010,-0.005
395,-0.005,0.000
396,-0.005,0.000
397,-0.010,0.000
398,-0.015,0.000
399,-0.015,0.000
400,-0.015,0.000
401,-0.010,0.000
402,-0.005,0.000
403,0.000,-0.015
404,0.000,-0.025
405,0.000,-0.030
406,0.000,-0.035
407,-0.005,-0.030
408,0.000,-0.025
409,0.000,-0.030
410,-0.005,-0.035
411,-0.005,-0.035
412,-0.005,-0.035
413,-0.005,-0.035
414,-0.005,-0.040
415,-0.005,-0.040
416,-0.005,-0.040
417,-0.005,-0.040
418,-0.005,-0.040
419,-0.005,-0.035
420,-0.005,-0.035
421,-0.010,-0.035
422,-0.005,-0.030
423,-0.005,-0.030
424,-0.005,-0.040
425,-0.015,-0.055
426,-0.040,-0.050
427,-0.015,-0.010
428,0.065,0.030
429,0.180,0.105
430,0.265,0.215
431,0.290,0.375
432,0.265,0.500
433,0.180,0.420
434,0.080,0.200
435,0.010,-0.025
436,-0.025,-0.140
437,-0.050,-0.140
438,-0.055,-0.120
439,-0.060,-0.110
440,-0.065,-0.110
441,-0.060,-0.115
442,-0.060,-0.120
443,-0.060,-0.120
444,-0.060,-0.120
445,-0.060,-0.115
446,-0.060,-0.110
447,-0.055,-0.105
448,-0.055,-0.100
449,-0.055,-0.085
450,-0.050,-0.070
451,-0.040,-0.060
452,-0.040,-0.045
453,-0.035,-0.030
454,-0.035,-0.020
455,-0.035,-0.010
456,-0.035,0.000
457,-0.035,0.000
458,-0.035,0.000
459,-0.035,0.000
460,-0.040,0.000
461,-0.040,0.000
462,-0.040,0.000
463,-0.040,0.000
464,-0.040,0.000
465,-0.040,0.000
466,-0.040,0.000
467,-0.040,0.000
468,-0.040,0.000
469,-0.035,0.000
470,-0.035,0.000
471,-0.035,0.000
472,-0.035,0.000
473,-0.035,0.000
474,-0.035,0.000
475,-0.030,0.000
476,-0.030,0.000
477,-0.030,0.000
478,-0.030,0.000
479,-0.025,0.000
480,-0.025,0.000
481,-0.025,0.000
482,-0.025,0.000
483,-0.020,0.000
484,-0.020,-0.005
485,-0.020,-0.010
486,-0.015,-0.015
487,-0.015,-0.015
488,-0.015,-0.015
489,-0.015,-0.010
490,-0.015,-0.010
491,-0.015,-0.005
492,-0.015,0.000
493,-0.015,0.000
494,-0.015,0.000
495,-0.015,0.000
496,-0.010,0.000
497,-0.005,0.000
498,-0.005,0.000
499,-0.005,-0.005
500,0.000,-0.010
501,0.000,-0.010
502,0.000,-0.005
503,0.000,0.000
504,0.000,-0.005
505,-0.005,-0.010
506,0.000,-0.010
507,0.000,-0.010
508,-0.005,-0.015
509,0.000,-0.025
510,0.000,-0.030
511,0.000,-0.035
512,0.000,-0.035
513,0.000,-0.035
514,0.000,-0.030
515,0.000,-0.030
516,0.000,-0.025
517,0.000,-0.015
518,0.000,-0.015
519,0.000,-0.030
520,-0.005,-0.045
521,-0.025,-0.035
522,-0.005,-0.010
523,0.060,0.025
524,0.170,0.090
525,0.255,0.190
526,0.295,0.340
527,0.275,0.465
528,0.205,0.425
529,0.105,0.230
530,0.025,0.010
531,-0.015,-0.115
532,-0.035,-0.130
533,-0.050,-0.100
534,-0.055,-0.095
535,-0.060,-0.095
536,-0.055,-0.095
537,-0.055,-0.100
538,-0.055,-0.105
539,-0.050,-0.100
540,-0.050,-0.095
541,-0.055,-0.095
542,-0.050,-0.090
543,-0.040,-0.085
544,-0.040,-0.070
545,-0.040,-0.050
546,-0.035,-0.045
547,-0.035,-0.025
548,-0.035,0.000
549,-0.030,0.000
550,-0.030,0.000
551,-0.030,0.000
552,-0.030,0.000
553,-0.030,0.010
554,-0.030,0.010
555,-0.030,0.010
556,-0.030,0.010
557,-0.030,0.005
558,-0.035,0.000
559,-0.035,0.000
560,-0.035,0.000
561,-0.035,0.000
562,-0.035,0.000
563,-0.035,0.000
564,-0.030,0.000
565,-0.030,0.000
566,-0.015,0.000
567,-0.015,0.000
568,-0.015,0.000
569,-0.015,0.000
570,-0.010,0.000
571,-0.010,0.000
572,-0.010,0.000
573,-0.010,0.000
574,-0.010,0.000
575,-0.010,0.000
576,-0.010,0.000
577,-0.005,0.000
578,-0.005,-0.010
579,-0.005,-0.010
580,0.000,-0.010
581,0.000,-0.010
582,0.000,-0.010
583,0.000,-0.010
584,0.000,-0.010
585,0.000,-0.010
586,0.000,-0.015
587,0.000,-0.010
588,0.000,0.000
589,0.000,0.000
590,0.000,0.000
591,0.000,0.000
592,0.000,0.000
593,0.000,0.000
594,0.005,0.000
595,0.005,-0.005
596,0.005,-0.010
597,0.005,-0.010
598,0.005,-0.010
599,0.005,0.000
600,0.005,0.000
601,0.010,-0.005
602,0.005,-0.005
603,0.005,-0.005
604,0.005,-0.010
605,0.005,-0.020
606,0.010,-0.025
607,0.010,-0.025
608,0.005,-0.025
609,0.005,-0.025
610,0.010,-0.020
611,0.005,-0.015
612,0.005,-0.010
613,0.010,-0.010
614,0.005,-0.010
615,0.000,-0.015
616,0.000,-0.025
617,-0.010,-0.015
618,0.005,0.005
619,0.070,0.050
620,0.175,0.115
621,0.265,0.220
622,0.305,0.360
623,0.295,0.470
624,0.225,0.420
625,0.125,0.215
626,0.040,0.000
627,0.000,-0.115
628,-0.010,-0.115
629,-0.025,-0.090
630,-0.030,-0.070
631,-0.030,-0.075
632,-0.030,-0.075
633,-0.025,-0.080
634,-0.025,-0.080
635,-0.020,-0.080
636,-0.015,-0.075
637,-0.015,-0.070
638,-0.015,-0.065
639,-0.010,-0.045
640,-0.010,-0.035
641,-0.010,-0.025
642,-0.005,-0.010
643,-0.005,0.000
644,0.000,0.000
645,0.000,0.000
646,0.000,0.010
647,0.000,0.015
648,0.000,0.020
649,0.000,0.025
650,0.000,0.025
651,0.000,0.025
652,0.000,0.030
653,0.000,0.035
654,0.000,0.030
655,0.000,0.030
656,0.000,0.025
657,0.000,0.030
658,0.000,0.025
659,0.000,0.025
660,0.000,0.020
661,0.000,0.020
662,0.000,0.020
663,0.000,0.020
664,0.000,0.020
665,0.000,0.020
666,0.000,0.020
667,0.000,0.020
668,0.000,0.030
669,0.000,0.040
670,0.000,0.075
671,-0.015,0.110
672,-0.030,0.130
673,-0.045,0.175
674,-0.065,0.255
675,-0.075,0.315
676,-0.110,0.335
677,-0.140,0.345
678,-0.175,0.375
679,-0.190,0.440
680,-0.190,0.540
681,-0.215,0.415
682,-0.225,0.245
683,-0.200,0.160
684,-0.110,0.105
685,0.000,0.015
686,0.080,-0.025
687,0.120,-0.100
688,0.130,-0.175
689,0.135,-0.210
690,0.135,-0.225
691,0.130,-0.230
692,0.130,-0.225
693,0.125,-0.225
694,0.120,-0.225
695,0.120,-0.220
696,0.115,-0.215
697,0.110,-0.210
698,0.110,-0.210
699,0.110,-0.210
700,0.110,-0.205
701,0.105,-0.205
702,0.105,-0.195
703,0.095,-0.185
704,0.095,-0.185
705,0.090,-0.180
706,0.085,-0.170
707,0.080,-0.160
708,0.075,-0.155
709,0.070,-0.150
710,0.065,-0.140
711,0.060,-0.125
712,0.050,-0.115
713,0.045,-0.105
714,0.035,-0.090
715,0.030,-0.075
716,0.020,-0.065
717,0.010,-0.055
718,0.005,-0.045
719,0.000,-0.035
720,0.000,-0.030
721,0.000,-0.020
722,-0.005,-0.015
723,-0.005,-0.010
724,-0.005,-0.005
725,-0.010,0.000
726,-0.010,0.000
727,-0.010,0.000
728,-0.015,0.000
729,-0.015,0.000
730,-0.015,0.000
731,-0.015,0.000
732,-0.015,0.000
733,-0.015,0.000
734,-0.015,0.000
735,-0.015,0.000
736,-0.015,0.000
737,-0.015,0.000
738,-0.015,0.000
739,-0.010,0.000
740,-0.010,0.000
741,-0.010,0.000
742,-0.010,0.000
743,-0.010,0.000
744,-0.010,0.000
745,-0.010,0.000
746,-0.015,0.000
747,-0.015,-0.005
748,-0.010,0.000
749,-0.010,0.000
750,-0.015,0.000
751,-0.010,0.000
752,-0.010,0.000
753,-0.010,0.000
754,-0.010,0.000
755,-0.010,0.000
756,-0.010,0.000
757,-0.010,0.000
758,-0.010,0.000
759,-0.010,0.000
760,-0.010,0.000
761,-0.010,0.000
762,-0.010,0.000
763,-0.010,0.000
764,-0.010,0.000
765,-0.010,0.000
766,-0.010,0.000
767,-0.010,0.000
768,-0.010,0.000
769,-0.010,0.000
770,-0.010,0.000
771,-0.010,0.000
772,-0.010,0.000
773,-0.010,0.000
774,-0.010,0.000
775,-0.010,0.000
776,-0.010,0.000
777,-0.010,0.000
778,-0.015,0.010
779,-0.020,0.010
780,-0.020,0.010
781,-0.015,0.015
782,-0.015,0.015
783,-0.010,0.005
784,-0.010,0.000
785,-0.005,0.000
786,-0.005,0.000
787,-0.005,0.000
788,-0.010,0.005
789,-0.010,0.000
790,-0.005,0.000
791,-0.005,0.000
792,-0.010,0.000
793,-0.005,0.000
794,-0.005,0.000
795,-0.005,-0.005
796,-0.005,-0.005
797,-0.005,-0.010
798,0.000,-0.005
799,0.000,-0.005
800,-0.005,0.000
801,-0.005,0.000
802,-0.005,0.000
803,-0.005,-0.005
804,-0.010,-0.015
805,-0.015,-0.025
806,-0.045,-0.010
807,-0.005,0.010
808,0.075,0.070
809,0.195,0.145
810,0.285,0.255
811,0.295,0.425
812,0.260,0.505
813,0.170,0.340
814,0.070,0.110
815,0.005,-0.085
816,-0.025,-0.155
817,-0.040,-0.135
818,-0.055,-0.110
819,-0.060,-0.100
820,-0.060,-0.100
821,-0.060,-0.105
822,-0.060,-0.110
823,-0.055,-0.100
824,-0.055,-0.095
825,-0.055,-0.085
826,-0.055,-0.075
827,-0.045,-0.060
828,-0.045,-0.045
829,-0.040,-0.035
830,-0.035,-0.020
831,-0.035,-0.005
832,-0.035,0.000
833,-0.035,0.000
834,-0.035,0.005
835,-0.035,0.010
836,-0.035,0.020
837,-0.035,0.025
838,-0.035,0.025
839,-0.040,0.025
840,-0.040,0.020
841,-0.045,0.020
842,-0.045,0.020
843,-0.045,0.020
844,-0.050,0.025
845,-0.055,0.025
846,-0.055,0.025
847,-0.055,0.030
848,-0.055,0.030
849,-0.055,0.035
850,-0.055,0.040
851,-0.050,0.040
852,-0.045,0.035
853,-0.045,0.025
854,-0.040,0.025
855,-0.040,0.020
856,-0.035,0.015
857,-0.035,0.000
858,-0.035,0.000
859,-0.030,0.000
860,-0.030,0.000
861,-0.020,0.000
862,-0.015,-0.005
863,-0.015,-0.010
864,-0.015,-0.020
865,-0.015,-0.025
866,-0.015,-0.025
867,-0.015,-0.025
868,-0.010,-0.025
869,-0.010,-0.025
870,-0.010,-0.025
871,-0.005,-0.025
872,-0.005,-0.020
873,-0.005,-0.010
874,-0.005,0.000
875,-0.010,0.000
876,-0.010,0.000
877,-0.010,0.000
878,-0.005,0.000
879,0.000,0.000
880,0.000,0.000
881,0.000,-0.015
882,0.005,-0.030
883,0.005,-0.025
884,0.005,-0.020
885,0.005,-0.015
886,0.005,-0.015
887,0.005,-0.020
888,0.005,-0.020
889,0.005,-0.015
890,0.005,-0.020
891,0.005,-0.025
892,0.010,-0.035
893,0.005,-0.035
894,0.005,-0.030
895,0.005,-0.030
896,0.010,-0.030
897,0.005,-0.025
898,0.005,-0.025
899,0.005,-0.015
900,0.005,-0.015
901,0.005,-0.015
902,0.000,-0.040
903,-0.005,-0.045
904,-0.010,-0.015
905,0.025,0.010
906,0.115,0.055
907,0.220,0.135
908,0.280,0.260
909,0.295,0.415
910,0.255,0.460
911,0.160,0.320
912,0.065,0.090
913,0.005,-0.085
914,-0.015,-0.135
915,-0.035,-0.110
916,-0.040,-0.085
917,-0.045,-0.080
918,-0.045,-0.085
919,-0.045,-0.090
920,-0.045,-0.090
921,-0.040,-0.095
922,-0.040,-0.095
923,-0.035,-0.090
924,-0.035,-0.085
925,-0.035,-0.080
926,-0.035,-0.070
927,-0.030,-0.055
928,-0.025,-0.045
929,-0.025,-0.030
930,-0.025,-0.020
931,-0.015,-0.010
932,-0.015,0.000
933,-0.015,0.000
934,-0.020,0.000
935,-0.015,0.000
936,-0.015,0.005
937,-0.020,0.010
938,-0.030,0.015
939,-0.030,0.015
940,-0.030,0.015
941,-0.030,0.010
942,-0.030,0.010
943,-0.030,0.005
944,-0.030,0.005
945,-0.030,0.005
946,-0.030,0.000
947,-0.030,0.000
948,-0.030,0.000
949,-0.025,0.000
950,-0.020,0.000
951,-0.015,0.000
952,-0.010,0.000
953,-0.010,0.000
954,-0.010,0.000
955,-0.010,0.000
956,-0.010,0.000
957,-0.005,0.000
958,-0.005,0.000
959,-0.005,0.000
960,-0.005,0.000
961,-0.005,0.000
962,-0.005,0.000
963,-0.005,0.000
964,0.000,0.000
965,0.000,0.000
966,0.000,0.000
967,0.000,0.000
968,0.000,0.000
969,0.000,0.000
970,0.000,0.000
971,0.000,0.010
972,-0.005,0.000
973,0.000,0.000
974,0.000,0.005
975,0.000,0.005
976,0.005,0.000
977,0.010,0.000
978,0.010,0.000
979,0.010,0.000
980,0.010,-0.005
981,0.010,0.000
982,0.010,0.000
983,0.010,-0.005
984,0.010,-0.010
985,0.010,-0.005
986,0.010,-0.005
987,0.010,-0.020
988,0.005,-0.025
989,0.005,-0.025
990,0.005,-0.025
991,0.005,-0.025
992,0.005,-0.015
993,0.005,-0.015
994,0.005,-0.015
995,0.005,-0.010
996,0.000,-0.005
997,0.000,-0.020
998,0.000,-0.030
999,-0.015,-0.020
1000,-0.010,0.000
1001,0.055,0.040
1002,0.165,0.105
1003,0.265,0.200
1004,0.315,0.340
1005,0.300,0.465
1006,0.230,0.430
1007,0.130,0.225
1008,0.045,-0.005
1009,0.000,-0.140
1010,-0.010,-0.155
1011,-0.025,-0.120
1012,-0.035,-0.095
1013,-0.040,-0.095
1014,-0.040,-0.095
1015,-0.040,-0.105
1016,-0.035,-0.100
1017,-0.035,-0.095
1018,-0.030,-0.090
1019,-0.030,-0.080
1020,-0.030,-0.070
1021,-0.025,-0.060
1022,-0.020,-0.045
1023,-0.020,-0.035
1024,-0.020,-0.025
1025,-0.015,-0.010
1026,-0.015,0.000
1027,-0.015,0.000
1028,-0.015,0.010
1029,-0.015,0.015
1030,-0.015,0.025
1031,-0.015,0.030
1032,-0.015,0.040
1033,-0.015,0.045
1034,-0.015,0.040
1035,-0.015,0.040
1036,-0.015,0.040
1037,-0.015,0.040
1038,-0.015,0.040
1039,-0.015,0.040
1040,-0.015,0.040
1041,-0.015,0.040
1042,-0.010,0.040
1043,-0.010,0.040
1044,-0.010,0.035
1045,-0.005,0.030
1046,0.000,0.030
1047,0.000,0.030
1048,0.000,0.030
1049,0.000,0.030
1050,0.000,0.025
1051,0.000,0.020
1052,0.000,0.015
1053,0.000,0.015
1054,0.000,0.010
1055,0.000,0.010
1056,0.005,0.005
1057,0.000,0.005
1058,0.000,0.005
1059,0.005,0.005
1060,0.010,0.005
1061,0.010,0.005
1062,0.010,0.005
1063,0.010,0.010
1064,0.010,0.015
1065,0.010,0.020
1066,0.005,0.030
1067,0.005,0.030
1068,0.005,0.030
1069,0.005,0.030
1070,0.005,0.025
1071,0.020,0.020
1072,0.025,0.005
1073,0.030,0.000
1074,0.030,0.000
1075,0.030,0.000
1076,0.030,0.000
1077,0.025,0.000
1078,0.025,0.000
1079,0.030,0.000
1080,0.030,0.000
1081,0.030,0.000
1082,0.030,0.000
1083,0.030,0.000
1084,0.030,0.000
1085,0.030,0.000
1086,0.030,0.000
1087,0.030,0.000
1088,0.030,0.000
1089,0.030,0.000
1090,0.030,0.000
1091,0.030,0.000
1092,0.030,0.000
1093,0.025,0.000
1094,0.015,-0.010
1095,0.005,-0.005
1096,0.040,0.015
1097,0.130,0.065
1098,0.230,0.130
1099,0.305,0.250
1100,0.330,0.410
1101,0.300,0.530
1102,0.215,0.465
1103,0.110,0.230
1104,0.035,-0.010
1105,0.000,-0.100
1106,0.000,-0.080
1107,-0.015,-0.060
1108,-0.015,-0.055
1109,-0.015,-0.060
1110,-0.015,-0.060
1111,-0.015,-0.065
1112,-0.020,-0.070
1113,-0.015,-0.075
1114,-0.015,-0.075
1115,-0.015,-0.075
1116,-0.015,-0.065
1117,-0.015,-0.060
1118,-0.015,-0.050
1119,-0.015,-0.035
1120,-0.015,-0.030
1121,-0.010,-0.015
1122,-0.010,-0.010
1123,-0.010,0.000
1124,-0.010,0.000
1125,-0.005,0.000
1126,-0.005,0.000
1127,-0.010,0.000
1128,-0.010,0.000
1129,-0.010,0.000
1130,-0.010,0.000
1131,-0.010,0.000
1132,-0.015,0.000
1133,-0.015,0.000
1134,-0.015,0.000
1135,-0.015,0.000
1136,-0.015,0.000
1137,-0.015,0.000
1138,-0.015,0.000
1139,-0.015,0.000
1140,-0.015,0.000
1141,-0.015,0.000
1142,-0.015,0.000
1143,-0.015,0.000
1144,-0.015,0.000
1145,-0.015,0.000
1146,-0.015,0.000
1147,-0.015,0.000
1148,-0.015,0.000
1149,-0.015,0.000
1150,-0.015,0.000
1151,-0.015,-0.005
1152,-0.015,-0.010
1153,-0.015,-0.010
1154,-0.015,-0.015
1155,-0.010,-0.015
1156,-0.010,-0.015
1157,-0.015,-0.015
1158,-0.010,-0.020
1159,-0.010,-0.020
1160,-0.010,-0.015
1161,-0.010,-0.005
1162,-0.015,0.000
1163,-0.015,0.000
1164,-0.020,0.000
1165,-0.015,0.000
1166,-0.010,0.000
1167,-0.005,-0.005
1168,-0.005,-0.015
1169,-0.005,-0.025
1170,-0.005,-0.025
1171,-0.005,-0.025
1172,-0.005,-0.015
1173,-0.005,-0.015
1174,-0.005,-0.025
1175,-0.005,-0.035
1176,-0.005,-0.035
1177,-0.010,-0.035
1178,-0.005,-0.040
1179,-0.005,-0.050
1180,-0.005,-0.050
1181,-0.010,-0.045
1182,-0.005,-0.045
1183,-0.005,-0.045
1184,-0.005,-0.045
1185,-0.010,-0.040
1186,-0.005,-0.030
1187,-0.005,-0.030
1188,-0.010,-0.035
1189,-0.010,-0.060
1190,-0.020,-0.070
1191,-0.040,-0.060
1192,0.000,-0.020
1193,0.090,0.010
1194,0.210,0.090
1195,0.280,0.210
1196,0.300,0.370
1197,0.265,0.490
1198,0.170,0.400
1199,0.060,0.170
1200,0.000,-0.060
1201,-0.035,-0.150
1202,-0.050,-0.140
1203,-0.060,-0.115
1204,-0.065,-0.115
1205,-0.065,-0.115
1206,-0.065,-0.115
1207,-0.065,-0.115
1208,-0.065,-0.120
1209,-0.065,-0.120
1210,-0.060,-0.120
1211,-0.055,-0.110
1212,-0.055,-0.095
1213,-0.055,-0.085
1214,-0.050,-0.075
1215,-0.050,-0.065
1216,-0.045,-0.050
1217,-0.040,-0.035
1218,-0.040,-0.020
1219,-0.040,-0.010
1220,-0.040,0.000
1221,-0.035,0.000
1222,-0.035,0.000
1223,-0.035,0.000
1224,-0.035,0.000
1225,-0.040,0.000
1226,-0.040,0.005
1227,-0.040,0.005
1228,-0.040,0.000
1229,-0.040,0.000
1230,-0.040,0.005
1231,-0.040,0.010
1232,-0.040,0.000
1233,-0.040,0.000
1234,-0.040,0.000
1235,-0.040,0.000
1236,-0.035,0.000
1237,-0.035,0.000
1238,-0.035,0.000
1239,-0.035,0.000
1240,-0.030,0.000
1241,-0.030,0.000
1242,-0.030,0.000
1243,-0.030,0.000
1244,-0.030,0.000
1245,-0.030,0.000
1246,-0.030,0.000
1247,-0.025,0.000
1248,-0.020,0.000
1249,-0.020,0.000
1250,-0.020,0.000
1251,-0.015,0.000
1252,-0.015,0.000
1253,-0.015,0.000
1254,-0.015,-0.005
1255,-0.010,0.000
1256,-0.010,0.000
1257,-0.010,0.000
1258,-0.010,0.000
1259,-0.010,0.000
1260,-0.010,0.000
1261,-0.010,0.000
1262,-0.010,0.005
1263,-0.010,0.005
1264,-0.005,0.000
1265,0.000,0.000
1266,0.000,0.000
1267,0.000,-0.005
1268,0.000,-0.005
1269,0.000,0.000
1270,0.000,0.000
1271,0.000,0.000
1272,0.000,-0.010
1273,0.000,-0.005
1274,0.000,0.000
1275,0.000,0.000
1276,0.000,-0.005
1277,0.005,-0.015
1278,0.005,-0.010
1279,0.005,-0.005
1280,0.005,-0.005
1281,0.005,-0.005
1282,0.005,0.000
1283,0.005,0.000
1284,0.005,0.000
1285,0.005,0.000
1286,0.005,0.000
1287,0.000,-0.020
1288,-0.015,-0.015
1289,-0.010,0.000
1290,0.045,0.045
1291,0.150,0.110
1292,0.255,0.205
1293,0.305,0.340
1294,0.295,0.470
1295,0.230,0.430
1296,0.135,0.235
1297,0.045,0.010
1298,0.000,-0.120
1299,-0.020,-0.135
1300,-0.035,-0.105
1301,-0.040,-0.085
1302,-0.045,-0.080
1303,-0.040,-0.085
1304,-0.040,-0.085
1305,-0.040,-0.085
1306,-0.040,-0.085
1307,-0.040,-0.075
1308,-0.040,-0.070
1309,-0.035,-0.065
1310,-0.035,-0.050
1311,-0.035,-0.045
1312,-0.030,-0.030
1313,-0.030,-0.025
1314,-0.025,-0.015
1315,-0.025,-0.005
1316,-0.025,0.000
1317,-0.020,0.000
1318,-0.020,0.000
1319,-0.020,0.010
1320,-0.020,0.015
1321,-0.020,0.020
1322,-0.030,0.020
1323,-0.030,0.020
1324,-0.030,0.025
1325,-0.030,0.025
1326,-0.030,0.025
1327,-0.030,0.025
1328,-0.030,0.025
1329,-0.030,0.025
1330,-0.035,0.020
1331,-0.030,0.010
1332,-0.030,0.005
1333,-0.030,0.005
1334,-0.030,0.000
1335,-0.030,0.000
1336,-0.030,0.000
1337,-0.020,0.000
1338,-0.020,0.000
1339,-0.020,0.000
1340,-0.015,0.000
1341,-0.015,0.000
1342,-0.015,0.000
1343,-0.015,0.000
1344,-0.015,0.000
1345,-0.015,0.000
1346,-0.015,0.000
1347,-0.015,0.000
1348,-0.010,0.000
1349,-0.010,0.000
1350,-0.010,0.000
1351,-0.010,0.000
1352,-0.010,0.000
1353,-0.010,0.000
1354,-0.010,0.000
1355,-0.010,0.000
1356,-0.015,0.010
1357,-0.015,0.015
1358,-0.010,0.015
1359,-0.005,0.010
1360,0.000,0.000
1361,0.000,0.000
1362,0.000,0.000
1363,0.000,0.000
1364,0.000,0.000
1365,0.000,0.000
1366,0.000,0.000
1367,0.000,0.000
1368,0.000,-0.005
1369,0.000,-0.005
1370,0.000,-0.010
1371,0.000,-0.010
1372,0.000,-0.015
1373,0.000,-0.020
1374,0.000,-0.015
1375,0.000,-0.015
1376,0.000,-0.015
1377,0.000,-0.015
1378,0.000,-0.010
1379,0.000,-0.005
1380,0.000,-0.005
1381,0.000,-0.005
1382,0.000,-0.020
1383,-0.005,-0.030
1384,-0.015,-0.020
1385,0.005,0.000
1386,0.080,0.045
1387,0.185,0.105
1388,0.270,0.210
1389,0.300,0.350
1390,0.275,0.455
1391,0.195,0.400
1392,0.090,0.195
1393,0.015,-0.015
1394,-0.015,-0.125
1395,-0.030,-0.120
1396,-0.040,-0.090
1397,-0.055,-0.080
1398,-0.055,-0.080
1399,-0.050,-0.090
1400,-0.045,-0.095
1401,-0.045,-0.095
1402,-0.040,-0.090
1403,-0.040,-0.085
1404,-0.040,-0.080
1405,-0.040,-0.065
1406,-0.035,-0.055
1407,-0.030,-0.040
1408,-0.030,-0.040
1409,-0.030,-0.035
1410,-0.030,-0.015
1411,-0.030,0.000
1412,-0.030,0.000
1413,-0.025,0.000
1414,-0.025,0.000
1415,-0.020,0.005
1416,-0.020,0.010
1417,-0.025,0.015
1418,-0.025,0.015
1419,-0.030,0.020
1420,-0.030,0.020
1421,-0.030,0.020
1422,-0.030,0.015
1423,-0.030,0.015
1424,-0.030,0.015
1425,-0.030,0.005
1426,-0.030,0.005
1427,-0.030,0.000
1428,-0.025,0.000
1429,-0.025,0.000
1430,-0.020,0.000
1431,-0.015,0.000
1432,-0.010,0.000
1433,-0.010,0.000
1434,-0.010,0.000
1435,-0.005,0.000
1436,-0.005,0.000
1437,-0.005,0.000
1438,-0.005,0.000
1439,-0.005,0.000
1440,-0.005,0.000
1441,-0.005,0.000
1442,-0.005,0.000
1443,-0.005,-0.005
1444,0.000,-0.005
1445,0.000,0.000
1446,0.000,-0.005
1447,0.000,-0.015
1448,0.000,-0.010
1449,0.000,-0.010
1450,0.000,-0.010
1451,0.000,-0.010
1452,0.000,-0.005
1453,0.000,0.000
1454,0.000,0.000
1455,0.000,0.000
1456,0.000,0.000
1457,0.000,0.000
1458,0.000,0.000
1459,0.005,0.000
1460,0.010,-0.005
1461,0.010,-0.020
1462,0.010,-0.025
1463,0.010,-0.010
1464,0.010,-0.015
1465,0.010,-0.015
1466,0.010,-0.010
1467,0.010,-0.010
1468,0.010,-0.010
1469,0.010,-0.015
1470,0.010,-0.020
1471,0.005,-0.020
1472,0.005,-0.020
1473,0.005,-0.020
1474,0.005,-0.015
1475,0.005,-0.010
1476,0.005,-0.010
1477,0.005,-0.010
1478,0.005,-0.010
1479,0.000,-0.010
1480,0.000,-0.020
1481,-0.005,-0.025
1482,-0.020,-0.005
1483,0.025,0.025
1484,0.125,0.090
1485,0.240,0.165
1486,0.305,0.285
1487,0.310,0.435
1488,0.260,0.470
1489,0.165,0.295
1490,0.065,0.060
1491,0.005,-0.100
1492,-0.010,-0.135
1493,-0.025,-0.095
1494,-0.025,-0.070
1495,-0.030,-0.070
1496,-0.030,-0.070
1497,-0.030,-0.075
1498,-0.030,-0.075
1499,-0.030,-0.075
1500,-0.030,-0.075
1501,-0.025,-0.070
1502,-0.020,-0.065
1503,-0.015,-0.055
1504,-0.015,-0.045
1505,-0.015,-0.035
1506,-0.010,-0.020
1507,-0.005,-0.010
1508,-0.005,0.000
1509,-0.005,0.000
1510,0.000,0.000
1511,0.000,0.010
1512,0.000,0.020
1513,0.000,0.025
1514,0.000,0.030
1515,0.000,0.035
1516,0.000,0.035
1517,0.000,0.040
1518,0.000,0.040
1519,0.000,0.040
1520,0.000,0.030
1521,0.000,0.025
1522,0.000,0.025
1523,0.000,0.020
1524,0.000,0.020
1525,0.000,0.015
1526,0.000,0.015
1527,0.000,0.015
1528,0.000,0.015
1529,0.000,0.015
1530,0.000,0.020
1531,0.005,0.020
1532,0.005,0.020
1533,0.005,0.020
1534,0.005,0.025
1535,0.005,0.025
1536,0.005,0.025
1537,0.005,0.025
1538,0.005,0.020
1539,0.005,0.020
1540,0.005,0.015
1541,0.005,0.015
1542,0.005,0.010
1543,0.005,0.010
1544,0.010,0.010
1545,0.010,0.010
1546,0.010,0.010
1547,0.010,0.020
1548,0.005,0.025
1549,0.005,0.035
1550,0.005,0.035
1551,0.005,0.035
1552,0.010,0.030
1553,0.015,0.020
1554,0.020,0.005
1555,0.025,0.000
1556,0.025,0.000
1557,0.015,0.000
1558,0.015,0.005
1559,0.025,0.000
1560,0.025,0.000
1561,0.025,0.000
1562,0.025,0.000
1563,0.025,0.000
1564,0.030,0.000
1565,0.030,-0.005
1566,0.030,-0.005
1567,0.030,-0.005
1568,0.025,-0.005
1569,0.025,-0.005
1570,0.025,-0.005
1571,0.025,0.000
1572,0.025,0.000
1573,0.025,0.000
1574,0.020,-0.005
1575,0.010,-0.020
1576,0.000,-0.040
1577,0.000,-0.030
1578,0.045,0.000
1579,0.140,0.040
1580,0.255,0.125
1581,0.305,0.255
1582,0.325,0.425
1583,0.275,0.530
1584,0.180,0.415
1585,0.080,0.165
1586,0.015,-0.055
1587,-0.005,-0.125
1588,-0.025,-0.115
1589,-0.030,-0.095
1590,-0.035,-0.095
1591,-0.040,-0.100
1592,-0.040,-0.110
1593,-0.035,-0.115
1594,-0.035,-0.120
1595,-0.035,-0.120
1596,-0.035,-0.120
1597,-0.035,-0.120
1598,-0.035,-0.110
1599,-0.035,-0.100
1600,-0.035,-0.090
1601,-0.030,-0.075
1602,-0.030,-0.065
1603,-0.030,-0.050
1604,-0.025,-0.040
1605,-0.020,-0.030
1606,-0.025,-0.025
1607,-0.020,-0.015
1608,-0.020,-0.015
1609,-0.020,-0.010
1610,-0.025,-0.010
1611,-0.030,-0.015
1612,-0.030,-0.010
1613,-0.030,-0.010
1614,-0.035,-0.015
1615,-0.035,-0.020
1616,-0.035,-0.025
1617,-0.035,-0.030
1618,-0.035,-0.035
1619,-0.035,-0.035
1620,-0.035,-0.035
1621,-0.030,-0.035
1622,-0.030,-0.035
1623,-0.030,-0.035
1624,-0.030,-0.035
1625,-0.030,-0.035
1626,-0.025,-0.035
1627,-0.025,-0.035
1628,-0.025,-0.035
1629,-0.025,-0.035
1630,-0.030,-0.035
1631,-0.030,-0.035
1632,-0.030,-0.035
1633,-0.030,-0.035
1634,-0.030,-0.035
1635,-0.030,-0.035
1636,-0.025,-0.035
1637,-0.025,-0.035
1638,-0.020,-0.035
1639,-0.020,-0.035
1640,-0.020,-0.030
1641,-0.020,-0.030
1642,-0.015,-0.035
1643,-0.015,-0.035
1644,-0.020,-0.030
1645,-0.020,-0.020
1646,-0.030,-0.010
1647,-0.030,-0.005
1648,-0.030,-0.010
1649,-0.020,-0.010
1650,-0.015,-0.015
1651,-0.010,-0.025
1652,-0.010,-0.035
1653,-0.010,-0.040
1654,-0.010,-0.040
1655,-0.010,-0.035
1656,-0.010,-0.025
1657,-0.010,-0.030
1658,-0.010,-0.035
1659,-0.010,-0.035
1660,-0.010,-0.035
1661,-0.010,-0.040
1662,-0.010,-0.050
1663,-0.005,-0.050
1664,-0.005,-0.050
1665,-0.005,-0.050
1666,-0.010,-0.050
1667,-0.010,-0.045
1668,-0.010,-0.035
1669,-0.010,-0.035
1670,-0.005,-0.035
1671,-0.005,-0.040
1672,-0.010,-0.045
1673,-0.020,-0.065
1674,-0.040,-0.060
1675,-0.010,-0.020
1676,0.065,0.025
1677,0.180,0.085
1678,0.260,0.190
1679,0.300,0.345
1680,0.270,0.465
1681,0.185,0.420
1682,0.085,0.210
1683,0.010,-0.010
1684,-0.025,-0.130
1685,-0.050,-0.135
1686,-0.060,-0.110
1687,-0.065,-0.095
1688,-0.065,-0.100
1689,-0.060,-0.105
1690,-0.060,-0.110
1691,-0.065,-0.110
1692,-0.060,-0.105
1693,-0.060,-0.105
1694,-0.055,-0.100
1695,-0.055,-0.090
1696,-0.055,-0.085
1697,-0.050,-0.070
1698,-0.040,-0.065
1699,-0.040,-0.050
1700,-0.040,-0.030
1701,-0.035,-0.020
1702,-0.035,-0.005
1703,-0.035,0.000
1704,-0.035,0.000
1705,-0.035,0.000
1706,-0.035,0.000
1707,-0.035,0.000
1708,-0.035,0.000
1709,-0.030,0.000
1710,-0.030,0.005
1711,-0.035,0.005
1712,-0.035,0.005
1713,-0.035,0.000
1714,-0.035,0.000
1715,-0.035,0.000
1716,-0.035,0.000
1717,-0.035,0.000
1718,-0.035,0.000
1719,-0.030,0.000
1720,-0.030,0.000
1721,-0.020,0.000
1722,-0.020,0.000
1723,-0.015,0.000
1724,-0.015,0.000
1725,-0.015,0.000
1726,-0.015,0.000
1727,-0.015,0.000
1728,-0.015,0.000
1729,-0.015,0.000
1730,-0.015,0.000
1731,-0.010,-0.005
1732,-0.010,-0.005
1733,-0.010,-0.010
1734,-0.015,-0.015
1735,-0.010,-0.020
1736,-0.010,-0.020
1737,-0.010,-0.020
1738,-0.005,-0.020
1739,-0.005,-0.020
1740,-0.005,-0.025
1741,-0.005,-0.020
1742,-0.005,-0.015
1743,-0.005,-0.010
1744,-0.005,0.000
1745,-0.010,0.000
1746,-0.010,0.000
1747,-0.010,0.000
1748,-0.005,0.000
1749,0.000,0.000
1750,0.000,0.000
1751,0.000,0.000
1752,0.000,-0.005
1753,0.000,-0.010
1754,0.000,-0.010
1755,0.000,0.000
1756,0.000,0.000
1757,0.000,-0.005
1758,0.000,-0.010
1759,0.000,-0.010
1760,0.000,-0.010
1761,0.000,-0.010
1762,0.000,-0.020
1763,0.000,-0.025
1764,0.000,-0.025
1765,0.000,-0.020
1766,0.000,-0.020
1767,0.000,-0.025
1768,0.000,-0.020
1769,0.000,-0.015
1770,0.000,-0.015
1771,0.000,-0.025
1772,0.000,-0.040
1773,-0.020,-0.040
1774,-0.020,-0.020
1775,0.035,0.015
1776,0.140,0.065
1777,0.235,0.150
1778,0.285,0.285
1779,0.285,0.415
1780,0.230,0.415
1781,0.125,0.230
1782,0.035,0.005
1783,-0.005,-0.130
1784,-0.025,-0.140
1785,-0.040,-0.105
1786,-0.055,-0.090
1787,-0.055,-0.090
1788,-0.055,-0.095
1789,-0.055,-0.095
1790,-0.050,-0.105
1791,-0.050,-0.100
1792,-0.055,-0.100
1793,-0.045,-0.095
1794,-0.040,-0.095
1795,-0.040,-0.085
1796,-0.040,-0.075
1797,-0.035,-0.060
1798,-0.035,-0.050
1799,-0.030,-0.040
1800,-0.030,-0.020
1801,-0.030,-0.010
1802,-0.030,0.000
1803,-0.030,0.000
1804,-0.030,0.000
1805,-0.030,0.000
1806,-0.030,0.005
1807,-0.030,0.010
1808,-0.030,0.010
1809,-0.030,0.015
1810,-0.030,0.015
1811,-0.030,0.010
1812,-0.030,0.010
1813,-0.035,0.000
1814,-0.035,0.000
1815,-0.035,0.000
1816,-0.035,0.000
1817,-0.030,0.000
1818,-0.030,0.000
1819,-0.030,-0.010
1820,-0.030,-0.010
1821,-0.030,-0.005
1822,-0.025,-0.005
1823,-0.015,0.000
1824,-0.015,0.000
1825,-0.015,0.000
1826,-0.010,0.000
1827,-0.010,0.000
1828,-0.010,0.000
1829,-0.010,0.000
1830,-0.010,0.000
1831,-0.010,0.000
1832,-0.010,0.000
1833,-0.010,0.000
1834,-0.010,0.000
1835,-0.010,0.000
1836,-0.005,0.000
1837,-0.005,0.000
1838,-0.005,0.000
1839,-0.005,0.000
1840,-0.005,0.000
1841,-0.005,0.000
1842,-0.005,0.000
1843,-0.010,0.000
1844,-0.010,0.000
1845,-0.005,0.000
1846,0.000,0.000
1847,0.000,0.000
1848,0.000,-0.005
1849,0.005,-0.010
1850,0.000,-0.015
1851,0.000,-0.005
1852,0.000,0.000
1853,0.000,0.000
1854,0.000,-0.005
1855,0.005,-0.010
1856,0.000,-0.010
1857,0.000,-0.010
1858,0.005,-0.015
1859,0.000,-0.015
1860,0.000,-0.015
1861,0.005,-0.010
1862,0.005,-0.010
1863,0.005,-0.010
1864,0.005,-0.010
1865,0.005,-0.010
1866,0.005,-0.010
1867,0.005,-0.010
1868,0.000,-0.020
1869,0.000,-0.035
1870,-0.015,-0.030
1871,0.000,0.000
1872,0.075,0.030
1873,0.185,0.090
1874,0.275,0.190
1875,0.310,0.335
1876,0.300,0.470
1877,0.210,0.410
1878,0.100,0.195
1879,0.015,-0.025
1880,-0.010,-0.145
1881,-0.025,-0.130
1882,-0.035,-0.095
1883,-0.045,-0.085
1884,-0.045,-0.090
1885,-0.045,-0.095
1886,-0.045,-0.095
1887,-0.040,-0.100
1888,-0.040,-0.100
1889,-0.040,-0.095
1890,-0.040,-0.090
1891,-0.035,-0.085
1892,-0.035,-0.075
1893,-0.035,-0.065
1894,-0.030,-0.045
1895,-0.030,-0.035
1896,-0.030,-0.025
1897,-0.020,-0.015
1898,-0.020,0.000
1899,-0.020,0.000
1900,-0.020,0.005
1901,-0.020,0.015
1902,-0.025,0.020
1903,-0.020,0.030
1904,-0.020,0.035
1905,-0.020,0.040
1906,-0.020,0.040
1907,-0.030,0.035
1908,-0.030,0.035
1909,-0.030,0.035
1910,-0.030,0.030
1911,-0.030,0.020
1912,-0.030,0.015
1913,-0.030,0.010
1914,-0.025,0.010
1915,-0.015,0.015
1916,-0.010,0.010
1917,-0.010,0.005
1918,-0.005,0.005
1919,-0.005,0.005
1920,-0.005,0.005
1921,-0.005,0.005
1922,-0.005,0.005
1923,-0.005,0.005
1924,0.000,0.005
1925,0.000,0.005
1926,0.000,0.000
1927,-0.005,0.000
1928,0.000,0.000
1929,0.000,0.000
1930,0.000,0.000
1931,0.000,0.000
1932,0.000,0.000
1933,0.000,0.000
1934,0.000,0.000
1935,0.000,0.000
1936,0.000,0.000
1937,0.005,0.000
1938,0.005,0.000
1939,0.005,0.000
1940,0.005,0.000
1941,0.000,0.010
1942,0.000,0.020
1943,0.000,0.020
1944,0.005,0.020
1945,0.005,0.020
1946,0.015,0.010
1947,0.015,0.000
1948,0.010,0.000
1949,0.010,0.000
1950,0.010,0.000
1951,0.010,0.010
1952,0.015,0.000
1953,0.015,0.000
1954,0.015,0.005
1955,0.015,0.010
1956,0.015,0.010
1957,0.015,0.000
1958,0.015,0.000
1959,0.025,0.005
1960,0.025,0.005
1961,0.030,0.005
1962,0.030,0.015
1963,0.030,0.015
1964,0.025,0.015
1965,0.025,0.015
1966,0.025,0.015
1967,0.025,0.000
1968,0.010,0.000
1969,0.000,0.000
1970,0.020,0.025
1971,0.100,0.075
1972,0.210,0.135
1973,0.290,0.240
1974,0.330,0.395
1975,0.315,0.510
1976,0.235,0.435
1977,0.130,0.225
1978,0.045,0.010
1979,0.005,-0.080
1980,0.000,-0.075
1981,-0.005,-0.050
1982,-0.010,-0.040
1983,-0.015,-0.045
1984,-0.015,-0.050
1985,-0.010,-0.050
1986,-0.010,-0.055
1987,-0.010,-0.065
1988,-0.010,-0.065
1989,-0.010,-0.055
1990,-0.010,-0.040
1991,-0.005,-0.035
1992,0.000,-0.030
1993,0.000,-0.015
1994,0.000,0.000
1995,0.000,0.000
1996,0.000,0.000
1997,0.000,0.000
1998,0.005,0.015
1999,0.005,0.025
2000,0.005,0.035
2001,0.005,0.040
2002,0.005,0.040
2003,0.000,0.050
2004,0.000,0.050
2005,0.000,0.050
2006,0.000,0.050
2007,0.000,0.050
2008,0.000,0.045
2009,0.000,0.045
2010,0.000,0.045
2011,0.000,0.040
2012,0.000,0.035
2013,0.000,0.035
2014,0.000,0.035
2015,0.000,0.035
2016,0.000,0.025
2017,0.005,0.030
2018,0.005,0.035
2019,0.000,0.040
2020,0.000,0.035
2021,0.000,0.035
2022,0.000,0.030
2023,0.005,0.025
2024,0.005,0.025
2025,0.005,0.025
2026,0.005,0.020
2027,0.005,0.015
2028,0.005,0.005
2029,0.000,0.005
2030,0.000,0.000
2031,0.005,0.000
2032,0.000,0.000
2033,0.000,0.000
2034,0.000,0.000
2035,0.000,0.000
2036,0.000,0.000
2037,0.000,0.000
2038,0.000,0.000
2039,0.000,0.000
2040,0.000,0.000
2041,0.000,0.000
2042,0.005,0.000
2043,0.005,-0.010
2044,0.005,-0.020
2045,0.005,-0.025
2046,0.005,-0.020
2047,0.005,-0.010
2048,0.005,-0.015
2049,0.005,-0.015
2050,0.005,-0.020
2051,0.005,-0.015
2052,0.005,-0.015
2053,0.000,-0.025
2054,0.000,-0.030
2055,0.005,-0.030
2056,0.005,-0.030
2057,0.000,-0.030
2058,0.000,-0.035
2059,0.000,-0.035
2060,0.000,-0.030
2061,0.000,-0.030
2062,0.000,-0.030
2063,0.000,-0.035
2064,0.000,-0.055
2065,-0.020,-0.070
2066,-0.015,-0.060
2067,0.030,-0.020
2068,0.125,0.025
2069,0.230,0.100
2070,0.290,0.230
2071,0.300,0.385
2072,0.250,0.465
2073,0.155,0.365
2074,0.055,0.135
2075,-0.005,-0.070
2076,-0.030,-0.150
2077,-0.045,-0.135
2078,-0.060,-0.115
2079,-0.060,-0.115
2080,-0.060,-0.115
2081,-0.060,-0.120
2082,-0.060,-0.125
2083,-0.060,-0.125
2084,-0.060,-0.115
2085,-0.060,-0.115
2086,-0.055,-0.110
2087,-0.055,-0.100
2088,-0.055,-0.090
2089,-0.055,-0.080
2090,-0.055,-0.070
2091,-0.050,-0.060
2092,-0.040,-0.040
2093,-0.040,-0.030
2094,-0.040,-0.015
2095,-0.040,-0.005
2096,-0.040,0.000
2097,-0.040,0.000
2098,-0.040,0.000
2099,-0.040,0.000
2100,-0.040,0.005
2101,-0.045,0.005
2102,-0.045,0.005
2103,-0.045,0.000
2104,-0.045,0.000
2105,-0.050,0.000
2106,-0.050,0.000
2107,-0.040,0.000
2108,-0.040,0.000
2109,-0.040,0.000
2110,-0.040,0.000
2111,-0.040,0.000
2112,-0.035,0.000
2113,-0.035,0.000
2114,-0.035,0.000
2115,-0.035,0.000
2116,-0.035,0.000
2117,-0.035,0.000
2118,-0.035,0.000
2119,-0.035,0.000
2120,-0.035,0.000
2121,-0.035,0.000
2122,-0.035,0.000
2123,-0.030,0.000
2124,-0.030,0.000
2125,-0.030,0.000
2126,-0.030,-0.010
2127,-0.030,-0.015
2128,-0.030,-0.015
2129,-0.030,-0.015
2130,-0.025,-0.025
2131,-0.020,-0.025
2132,-0.015,-0.025
2133,-0.015,-0.015
2134,-0.015,-0.015
2135,-0.015,-0.015
2136,-0.015,-0.020
2137,-0.015,-0.005
2138,-0.015,0.000
2139,-0.025,0.000
2140,-0.025,0.000
2141,-0.020,0.000
2142,-0.010,0.000
2143,-0.010,0.000
2144,-0.005,-0.010
2145,-0.005,-0.015
2146,-0.005,-0.020
2147,-0.005,-0.005
2148,-0.005,0.000
2149,0.000,0.000
2150,0.000,-0.005
2151,0.000,0.000
2152,0.000,0.000
2153,0.000,-0.005
2154,0.000,-0.010
2155,0.000,-0.015
2156,0.000,-0.010
2157,0.000,-0.010
2158,0.000,-0.015
2159,0.000,-0.010
2160,0.000,-0.010
2161,0.000,-0.005
2162,0.000,-0.005
2163,0.000,-0.005
2164,0.000,-0.010
2165,-0.005,-0.020
2166,-0.025,-0.020
2167,-0.005,0.010
2168,0.070,0.060
2169,0.180,0.130
2170,0.285,0.230
2171,0.315,0.370
2172,0.290,0.495
2173,0.200,0.405
2174,0.095,0.150
2175,0.010,-0.055
2176,-0.015,-0.155
2177,-0.030,-0.130
2178,-0.040,-0.090
2179,-0.050,-0.080
2180,-0.055,-0.080
2181,-0.055,-0.080
2182,-0.055,-0.085
2183,-0.055,-0.085
2184,-0.055,-0.085
2185,-0.045,-0.085
2186,-0.040,-0.080
2187,-0.040,-0.065
2188,-0.040,-0.060
2189,-0.035,-0.045
2190,-0.035,-0.035
2191,-0.030,-0.025
2192,-0.030,-0.010
2193,-0.030,0.000
2194,-0.030,0.000
2195,-0.030,0.000
2196,-0.030,0.010
2197,-0.030,0.015
2198,-0.030,0.020
2199,-0.030,0.025
2200,-0.030,0.025
2201,-0.035,0.025
2202,-0.035,0.030
2203,-0.035,0.025
2204,-0.035,0.025
2205,-0.035,0.020
2206,-0.035,0.015
2207,-0.035,0.005
2208,-0.035,0.000
2209,-0.035,0.000
2210,-0.030,0.000
2211,-0.030,0.000
2212,-0.030,0.000
2213,-0.030,0.000
2214,-0.030,0.000
2215,-0.025,0.000
2216,-0.020,0.005
2217,-0.020,0.005
2218,-0.015,0.010
2219,-0.015,0.010
2220,-0.015,0.015
2221,-0.015,0.010
2222,-0.015,0.005
2223,-0.015,0.000
2224,-0.015,0.000
2225,-0.015,0.000
2226,-0.015,0.000
2227,-0.015,0.000
2228,-0.015,0.000
2229,-0.015,0.000
2230,-0.015,0.000
2231,-0.010,0.000
2232,-0.010,0.000
2233,-0.010,-0.005
2234,-0.010,-0.005
2235,-0.005,-0.005
2236,-0.005,0.000
2237,-0.010,0.000
2238,-0.010,0.000
2239,-0.015,0.000
2240,-0.010,0.000
2241,-0.005,0.000
2242,0.000,0.000
2243,0.000,-0.010
2244,0.000,-0.015
2245,0.000,-0.015
2246,0.000,-0.015
2247,0.000,-0.005
2248,0.000,-0.005
2249,0.000,-0.010
2250,0.000,-0.010
2251,0.000,-0.010
2252,0.000,-0.010
2253,0.000,-0.010
2254,0.000,-0.015
2255,0.000,-0.015
2256,0.000,-0.010
2257,0.000,-0.005
2258,0.000,0.000
2259,0.000,0.000
2260,0.000,0.000
2261,0.000,0.000
2262,0.000,0.000
2263,0.000,-0.005
2264,0.000,-0.025
2265,-0.025,-0.020
2266,-0.015,0.000
2267,0.055,0.050
2268,0.160,0.095
2269,0.255,0.185
2270,0.290,0.310
2271,0.280,0.435
2272,0.205,0.375
2273,0.105,0.185
2274,0.020,-0.015
2275,-0.020,-0.130
2276,-0.035,-0.135
2277,-0.050,-0.095
2278,-0.055,-0.080
2279,-0.060,-0.080
2280,-0.060,-0.085
2281,-0.060,-0.090
2282,-0.060,-0.090
2283,-0.055,-0.085
2284,-0.055,-0.080
2285,-0.055,-0.075
2286,-0.050,-0.075
2287,-0.045,-0.070
2288,-0.045,-0.060
2289,-0.040,-0.045
2290,-0.035,-0.030
2291,-0.035,-0.010
2292,-0.030,0.000
2293,-0.030,0.000
2294,-0.030,0.000
2295,-0.030,0.000
2296,-0.030,0.015
2297,-0.030,0.020
2298,-0.030,0.020
2299,-0.030,0.025
2300,-0.025,0.045
2301,-0.020,0.040
2302,-0.020,0.035
2303,-0.030,0.035
2304,-0.030,0.040
2305,-0.030,0.035
2306,-0.020,0.030
2307,-0.020,0.020
2308,-0.015,0.015
2309,-0.015,0.015
2310,-0.015,0.005
2311,-0.015,0.000
2312,-0.015,0.000
2313,-0.010,0.000
2314,-0.010,0.000
2315,-0.010,0.000
2316,-0.010,0.005
2317,-0.010,0.020
2318,-0.025,0.060
2319,-0.035,0.095
2320,-0.060,0.145
2321,-0.080,0.215
2322,-0.090,0.275
2323,-0.115,0.295
2324,-0.140,0.300
2325,-0.175,0.300
2326,-0.200,0.320
2327,-0.210,0.400
2328,-0.225,0.415
2329,-0.255,0.290
2330,-0.265,0.155
2331,-0.225,0.060
2332,-0.120,0.000
2333,0.000,-0.055
2334,0.075,-0.110
2335,0.110,-0.175
2336,0.115,-0.220
2337,0.120,-0.235
2338,0.120,-0.240
2339,0.130,-0.245
2340,0.135,-0.250
2341,0.140,-0.245
2342,0.140,-0.240
2343,0.135,-0.230
2344,0.135,-0.215
2345,0.135,-0.190
2346,0.135,-0.180
2347,0.135,-0.180
2348,0.130,-0.165
2349,0.130,-0.160
2350,0.115,-0.160
2351,0.115,-0.160
2352,0.110,-0.160
2353,0.110,-0.160
2354,0.105,-0.150
2355,0.095,-0.140
2356,0.085,-0.135
2357,0.080,-0.125
2358,0.070,-0.115
2359,0.065,-0.100
2360,0.055,-0.090
2361,0.045,-0.075
2362,0.035,-0.055
2363,0.030,-0.040
2364,0.020,-0.025
2365,0.010,-0.015
2366,0.000,0.000
2367,0.000,0.000
2368,0.000,0.000
2369,-0.005,0.000
2370,-0.010,0.000
2371,-0.010,0.000
2372,-0.015,0.000
2373,-0.015,0.000
2374,-0.015,0.000
2375,-0.015,0.000
2376,-0.015,0.000
2377,-0.015,0.000
2378,-0.015,0.000
2379,-0.015,0.000
2380,-0.015,0.000
2381,-0.015,0.000
2382,-0.015,0.000
2383,-0.015,0.000
2384,-0.015,0.000
2385,-0.015,0.000
2386,-0.010,0.000
2387,-0.010,0.000
2388,-0.010,0.000
2389,-0.010,0.000
2390,-0.010,0.000
2391,-0.010,0.000
2392,-0.010,0.000
2393,-0.010,0.000
2394,-0.010,0.000
2395,-0.010,0.000
2396,-0.005,0.000
2397,-0.005,0.000
2398,-0.005,0.000
2399,0.000,0.000
2400,0.000,0.000
2401,0.000,0.000
2402,0.000,0.000
2403,0.000,0.000
2404,0.000,0.000
2405,0.000,0.000
2406,0.000,0.000
2407,0.000,0.000
2408,0.000,0.000
2409,0.000,0.000
2410,0.000,0.000
2411,0.000,0.000
2412,0.000,0.000
2413,0.000,0.000
2414,0.000,0.000
2415,0.000,0.000
2416,0.000,0.000
2417,0.000,0.000
2418,0.000,0.000
2419,0.000,0.005
2420,0.000,0.005
2421,0.000,0.005
2422,0.000,0.010
2423,0.000,0.015
2424,0.000,0.015
2425,0.000,0.020
2426,0.000,0.015
2427,0.000,0.015
2428,0.000,0.015
2429,0.000,0.010
2430,0.000,0.005
2431,0.000,0.005
2432,0.000,0.010
2433,0.000,0.015
2434,0.000,0.020
2435,-0.005,0.025
2436,-0.010,0.030
2437,-0.010,0.030
2438,-0.005,0.025
2439,0.000,0.010
2440,0.000,0.000
2441,0.000,0.000
2442,0.005,0.000
2443,0.000,0.000
2444,0.000,0.000
2445,0.000,0.000
2446,0.000,0.000
2447,0.000,0.000
2448,0.000,0.000
2449,0.005,0.000
2450,0.005,0.000
2451,0.005,0.000
2452,0.005,0.000
2453,0.005,0.000
2454,0.000,0.000
2455,0.000,0.000
2456,0.000,0.000
2457,0.000,0.000
2458,0.000,0.000
2459,0.000,0.000
2460,0.000,0.000
2461,-0.015,0.000
2462,-0.020,0.025
2463,0.030,0.075
2464,0.130,0.120
2465,0.235,0.190
2466,0.295,0.305
2467,0.300,0.405
2468,0.235,0.345
2469,0.125,0.150
2470,0.035,-0.030
2471,-0.005,-0.120
2472,-0.030,-0.110
2473,-0.040,-0.065
2474,-0.045,-0.040
2475,-0.045,-0.040
2476,-0.050,-0.045
2477,-0.040,-0.050
2478,-0.040,-0.055
2479,-0.040,-0.060
2480,-0.040,-0.045
2481,-0.035,-0.040
2482,-0.030,-0.040
2483,-0.030,-0.035
2484,-0.030,-0.020
2485,-0.015,-0.010
2486,-0.015,-0.010
2487,-0.015,0.000
2488,-0.015,0.000
2489,-0.015,0.010
2490,-0.015,0.025
2491,-0.015,0.035
2492,-0.015,0.045
2493,-0.015,0.045
2494,-0.015,0.045
2495,-0.015,0.045
2496,-0.015,0.045
2497,-0.020,0.040
2498,-0.025,0.035
2499,-0.030,0.035
2500,-0.030,0.040
2501,-0.030,0.035
2502,-0.035,0.025
2503,-0.035,0.025
2504,-0.035,0.035
2505,-0.035,0.040
2506,-0.035,0.040
2507,-0.035,0.040
2508,-0.030,0.040
2509,-0.025,0.035
2510,-0.020,0.030
2511,-0.015,0.025
2512,-0.010,0.020
2513,-0.010,0.015
2514,-0.005,0.005
2515,-0.005,0.000
2516,-0.005,0.000
2517,-0.005,0.000
2518,-0.005,0.000
2519,-0.005,-0.005
2520,-0.005,-0.015
2521,-0.005,-0.020
2522,0.000,-0.030
2523,0.000,-0.035
2524,0.000,-0.035
2525,0.000,-0.035
2526,0.000,-0.035
2527,0.000,-0.035
2528,0.000,-0.040
2529,0.000,-0.040
2530,0.000,-0.030
2531,0.000,-0.020
2532,0.000,-0.015
2533,0.000,-0.010
2534,0.000,-0.010
2535,0.000,-0.015
2536,0.005,-0.030
2537,0.010,-0.045
2538,0.015,-0.050
2539,0.015,-0.050
2540,0.015,-0.045
2541,0.015,-0.030
2542,0.015,-0.025
2543,0.010,-0.025
2544,0.010,-0.020
2545,0.010,-0.015
2546,0.010,-0.010
2547,0.010,-0.015
2548,0.010,-0.015
2549,0.010,-0.015
2550,0.010,-0.010
2551,0.010,0.000
2552,0.005,0.000
2553,0.005,0.000
2554,0.005,0.000
2555,0.005,0.000
2556,0.005,0.000
2557,0.005,0.000
2558,0.000,-0.005
2559,0.000,-0.015
2560,-0.035,0.000
2561,-0.005,0.030
2562,0.075,0.075
2563,0.200,0.115
2564,0.280,0.205
2565,0.310,0.325
2566,0.280,0.350
2567,0.195,0.200
2568,0.090,0.015
2569,0.015,-0.130
2570,-0.005,-0.160
2571,-0.020,-0.120
2572,-0.035,-0.080
2573,-0.040,-0.075
2574,-0.040,-0.080
2575,-0.040,-0.085
2576,-0.040,-0.090
2577,-0.040,-0.090
2578,-0.035,-0.085
2579,-0.035,-0.085
2580,-0.035,-0.075
2581,-0.030,-0.065
2582,-0.030,-0.060
2583,-0.020,-0.045
2584,-0.015,-0.035
2585,-0.015,-0.020
2586,-0.010,-0.005
2587,-0.010,0.000
2588,-0.005,0.000
2589,-0.005,0.000
2590,-0.010,0.015
2591,-0.010,0.025
2592,-0.010,0.035
2593,-0.010,0.035
2594,-0.010,0.035
2595,-0.010,0.040
2596,-0.015,0.035
2597,-0.015,0.035
2598,-0.015,0.035
2599,-0.015,0.030
2600,-0.020,0.025
2601,-0.020,0.020
2602,-0.025,0.015
2603,-0.025,0.015
2604,-0.020,0.005
2605,-0.015,0.005
2606,-0.015,0.000
2607,-0.015,0.000
2608,-0.015,0.000
2609,-0.015,0.000
2610,-0.015,0.000
2611,-0.015,0.000
2612,-0.010,0.000
2613,-0.010,0.005
2614,-0.010,0.000
2615,-0.010,0.000
2616,-0.010,0.000
2617,-0.010,0.000
2618,-0.010,0.000
2619,-0.010,0.000
2620,-0.010,0.000
2621,-0.005,0.000
2622,0.000,-0.010
2623,0.000,-0.015
2624,0.000,-0.015
2625,0.000,-0.010
2626,0.000,-0.005
2627,0.000,0.000
2628,-0.005,0.000
2629,-0.005,0.000
2630,-0.005,-0.010
2631,0.000,-0.010
2632,0.000,-0.015
2633,0.005,-0.030
2634,0.010,-0.030
2635,0.010,-0.030
2636,0.010,-0.020
2637,0.010,-0.015
2638,0.015,-0.015
2639,0.015,-0.020
2640,0.015,-0.020
2641,0.015,-0.020
2642,0.015,-0.015
2643,0.015,-0.020
2644,0.015,-0.025
2645,0.020,-0.030
2646,0.020,-0.030
2647,0.025,-0.025
2648,0.020,-0.025
2649,0.020,-0.015
2650,0.020,-0.010
2651,0.020,-0.005
2652,0.015,-0.005
2653,0.015,-0.005
2654,0.015,-0.010
2655,0.000,-0.015
2656,-0.010,-0.005
2657,0.015,0.035
2658,0.110,0.075
2659,0.225,0.135
2660,0.305,0.225
2661,0.335,0.340
2662,0.300,0.350
2663,0.210,0.210
2664,0.110,0.015
2665,0.030,-0.120
2666,0.000,-0.165
2667,-0.010,-0.135
2668,-0.020,-0.095
2669,-0.030,-0.080
2670,-0.030,-0.075
2671,-0.030,-0.075
2672,-0.030,-0.075
2673,-0.030,-0.075
2674,-0.025,-0.070
2675,-0.025,-0.065
2676,-0.020,-0.060
2677,-0.015,-0.050
2678,-0.015,-0.040
2679,-0.010,-0.020
2680,-0.010,-0.005
2681,-0.010,0.000
2682,-0.010,0.000
2683,-0.010,0.005
2684,-0.010,0.015
2685,-0.005,0.020
2686,-0.005,0.020
2687,-0.010,0.030
2688,-0.010,0.030
2689,-0.010,0.030
2690,-0.010,0.030
2691,-0.015,0.035
2692,-0.015,0.035
2693,-0.015,0.035
2694,-0.025,0.025
2695,-0.030,0.025
2696,-0.030,0.020
2697,-0.030,0.020
2698,-0.030,0.020
2699,-0.030,0.020
2700,-0.030,0.020
2701,-0.030,0.020
2702,-0.030,0.020
2703,-0.030,0.015
2704,-0.020,0.015
2705,-0.025,0.015
2706,-0.020,0.015
2707,-0.015,0.015
2708,-0.015,0.015
2709,-0.015,0.015
2710,-0.015,0.010
2711,-0.015,0.000
2712,-0.020,0.000
2713,-0.020,0.000
2714,-0.020,0.000
2715,-0.015,0.000
2716,-0.015,0.000
2717,-0.010,0.000
2718,-0.010,0.000
2719,-0.010,0.000
2720,-0.010,-0.010
2721,-0.010,-0.005
2722,-0.010,0.000
2723,-0.015,0.000
2724,-0.015,0.000
2725,-0.015,0.000
2726,-0.015,0.000
2727,-0.010,0.000
2728,-0.005,0.000
2729,0.000,0.000
2730,0.000,-0.010
2731,0.000,-0.010
2732,0.000,-0.015
2733,0.000,-0.010
2734,0.000,-0.005
2735,0.000,-0.010
2736,0.000,-0.010
2737,0.000,-0.015
2738,0.000,-0.015
2739,0.000,-0.015
2740,0.000,-0.030
2741,0.000,-0.035
2742,0.000,-0.035
2743,0.000,-0.035
2744,0.000,-0.035
2745,0.000,-0.025
2746,0.000,-0.020
2747,0.000,-0.020
2748,0.000,-0.020
2749,0.000,-0.020
2750,0.000,-0.025
2751,-0.005,-0.035
2752,-0.020,-0.025
2753,-0.015,0.000
2754,0.040,0.040
2755,0.145,0.080
2756,0.245,0.150
2757,0.300,0.260
2758,0.300,0.350
2759,0.235,0.310
2760,0.135,0.130
2761,0.040,-0.050
2762,-0.005,-0.155
2763,-0.020,-0.155
2764,-0.040,-0.115
2765,-0.050,-0.090
2766,-0.055,-0.085
2767,-0.050,-0.090
2768,-0.045,-0.090
2769,-0.045,-0.095
2770,-0.040,-0.095
2771,-0.035,-0.090
2772,-0.035,-0.085
2773,-0.035,-0.080
2774,-0.035,-0.075
2775,-0.025,-0.060
2776,-0.025,-0.055
2777,-0.030,-0.040
2778,-0.015,-0.025
2779,-0.015,-0.015
2780,-0.015,0.000
2781,-0.015,0.000
2782,-0.015,0.000
2783,-0.015,0.000
2784,-0.015,0.010
2785,-0.015,0.015
2786,-0.015,0.015
2787,-0.015,0.015
2788,-0.015,0.020
2789,-0.015,0.020
2790,-0.020,0.025
2791,-0.020,0.020
2792,-0.025,0.020
2793,-0.030,0.015
2794,-0.030,0.015
2795,-0.030,0.010
2796,-0.025,0.005
2797,-0.020,0.005
2798,-0.020,0.005
2799,-0.020,0.005
2800,-0.015,0.000
2801,-0.015,0.000
2802,-0.015,0.000
2803,-0.010,0.000
2804,-0.010,0.000
2805,-0.010,0.000
2806,-0.010,0.000
2807,-0.005,0.000
2808,-0.005,0.000
2809,0.000,0.000
2810,0.000,-0.005
2811,-0.005,-0.015
2812,0.000,-0.015
2813,0.000,-0.015
2814,0.000,-0.015
2815,0.000,-0.015
2816,0.000,-0.025
2817,0.000,-0.030
2818,0.000,-0.030
2819,0.000,-0.025
2820,0.000,-0.010
2821,0.000,-0.010
2822,0.000,-0.010
2823,0.000,-0.010
2824,0.005,-0.015
2825,0.010,-0.020
2826,0.020,-0.025
2827,0.025,-0.025
2828,0.025,-0.025
2829,0.025,-0.015
2830,0.030,-0.010
2831,0.030,-0.010
2832,0.030,-0.005
2833,0.030,-0.010
2834,0.030,-0.010
2835,0.030,-0.005
2836,0.030,-0.010
2837,0.030,-0.020
2838,0.035,-0.020
2839,0.035,-0.015
2840,0.035,-0.015
2841,0.035,-0.010
2842,0.035,-0.010
2843,0.035,-0.005
2844,0.035,-0.005
2845,0.035,-0.010
2846,0.030,-0.015
2847,0.020,-0.020
2848,0.000,-0.005
2849,0.015,0.015
2850,0.110,0.070
2851,0.230,0.125
2852,0.330,0.220
2853,0.355,0.330
2854,0.335,0.400
2855,0.245,0.255
2856,0.140,0.030
2857,0.055,-0.120
2858,0.015,-0.180
2859,0.000,-0.135
2860,0.000,-0.090
2861,-0.005,-0.070
2862,-0.010,-0.070
2863,-0.010,-0.075
2864,-0.010,-0.075
2865,-0.010,-0.070
2866,-0.010,-0.070
2867,-0.010,-0.070
2868,-0.010,-0.055
2869,-0.005,-0.055
2870,-0.005,-0.040
2871,-0.005,-0.020
2872,-0.005,-0.015
2873,0.000,-0.005
2874,0.000,0.000
2875,0.000,0.000
2876,0.000,0.010
2877,0.000,0.015
2878,0.000,0.015
2879,-0.005,0.025
2880,-0.005,0.030
2881,-0.005,0.030
2882,-0.005,0.035
2883,-0.005,0.040
2884,-0.010,0.035
2885,-0.010,0.035
2886,-0.015,0.045
2887,-0.015,0.040
2888,-0.020,0.035
2889,-0.015,0.035
2890,-0.015,0.025
2891,-0.020,0.025
2892,-0.025,0.020
2893,-0.025,0.015
2894,-0.025,0.010
2895,-0.015,0.005
2896,-0.015,0.005
2897,-0.015,0.005
2898,-0.015,0.000
2899,-0.020,0.000
2900,-0.020,0.000
2901,-0.015,0.000
2902,-0.015,0.000
2903,-0.015,0.000
2904,-0.015,0.000
2905,-0.015,0.000
2906,-0.015,0.000
2907,-0.015,0.000
2908,-0.015,0.000
2909,-0.015,-0.005
2910,-0.010,-0.005
2911,-0.010,-0.005
2912,-0.010,-0.010
2913,-0.010,-0.005
2914,-0.010,0.000
2915,-0.010,0.000
2916,-0.015,0.000
2917,-0.020,0.000
2918,-0.020,0.000
2919,-0.010,0.000
2920,0.000,0.000
2921,0.000,0.000
2922,0.000,0.000
2923,0.000,-0.005
2924,0.000,0.000
2925,0.000,0.000
2926,0.000,0.000
2927,0.000,0.000
2928,0.000,0.000
2929,0.000,0.000
2930,0.000,0.000
2931,0.000,0.000
2932,0.000,0.000
2933,0.000,-0.005
2934,0.000,-0.005
2935,0.000,0.000
2936,0.000,0.000
2937,0.000,0.000
2938,0.000,0.000
2939,0.000,0.000
2940,0.000,0.000
2941,0.000,0.000
2942,0.000,-0.010
2943,-0.015,-0.015
2944,-0.040,0.000
2945,0.000,0.030
2946,0.090,0.070
2947,0.210,0.125
2948,0.290,0.215
2949,0.310,0.345
2950,0.270,0.380
2951,0.175,0.230
2952,0.070,0.030
2953,0.010,-0.115
2954,-0.015,-0.165
2955,-0.030,-0.130
2956,-0.040,-0.090
2957,-0.045,-0.080
2958,-0.050,-0.080
2959,-0.050,-0.085
2960,-0.040,-0.085
2961,-0.040,-0.085
2962,-0.045,-0.085
2963,-0.040,-0.075
2964,-0.040,-0.070
2965,-0.035,-0.060
2966,-0.035,-0.050
2967,-0.035,-0.040
2968,-0.030,-0.025
2969,-0.030,-0.010
2970,-0.025,0.000
2971,-0.015,0.000
2972,-0.015,0.010
2973,-0.015,0.020
2974,-0.015,0.025
2975,-0.015,0.025
2976,-0.015,0.035
2977,-0.015,0.040
2978,-0.015,0.045
2979,-0.025,0.045
2980,-0.025,0.050
2981,-0.025,0.045
2982,-0.025,0.040
2983,-0.030,0.040
2984,-0.030,0.040
2985,-0.030,0.030
2986,-0.030,0.025
2987,-0.030,0.020
2988,-0.030,0.015
2989,-0.030,0.010
2990,-0.030,0.005
2991,-0.020,0.000
2992,-0.020,0.000
2993,-0.015,0.005
2994,-0.015,0.005
2995,-0.015,0.010
2996,-0.015,0.015
2997,-0.015,0.020
2998,-0.015,0.025
2999,-0.010,0.010
3000,-0.010,0.000
3001,-0.010,0.000
3002,-0.010,0.000
3003,-0.010,0.000
3004,-0.010,0.000
3005,-0.010,-0.005
3006,-0.005,-0.005
3007,-0.005,-0.005
3008,0.000,-0.010
3009,0.000,-0.005
3010,-0.005,0.000
3011,-0.010,0.000
3012,-0.005,0.000
3013,0.000,0.000
3014,0.000,0.000
3015,0.005,0.000
3016,0.005,-0.010
3017,0.005,-0.015
3018,0.010,-0.015
3019,0.010,-0.015
3020,0.010,-0.005
3021,0.015,-0.005
3022,0.015,-0.010
3023,0.015,-0.005
3024,0.015,0.000
3025,0.020,0.000
3026,0.025,-0.010
3027,0.025,-0.010
3028,0.025,-0.005
3029,0.025,-0.005
3030,0.025,-0.005
3031,0.030,-0.005
3032,0.030,-0.005
3033,0.030,0.000
3034,0.030,0.000
3035,0.030,0.000
3036,0.030,-0.005
3037,0.025,-0.010
3038,0.005,-0.010
3039,0.000,0.005
3040,0.060,0.060
3041,0.165,0.105
3042,0.280,0.175
3043,0.340,0.280
3044,0.345,0.395
3045,0.280,0.355
3046,0.180,0.165
3047,0.090,-0.025
3048,0.025,-0.135
3049,0.000,-0.145
3050,-0.005,-0.095
3051,-0.010,-0.065
3052,-0.015,-0.060
3053,-0.015,-0.060
3054,-0.015,-0.060
3055,-0.015,-0.055
3056,-0.015,-0.055
3057,-0.015,-0.055
3058,-0.010,-0.050
3059,-0.010,-0.045
3060,-0.010,-0.030
3061,-0.005,-0.020
3062,-0.005,-0.005
3063,-0.005,0.000
3064,-0.005,0.000
3065,-0.005,0.010
3066,-0.005,0.020
3067,-0.005,0.025
3068,-0.005,0.030
3069,-0.005,0.035
3070,-0.005,0.040
3071,-0.005,0.045
3072,-0.005,0.045
3073,-0.005,0.045
3074,-0.010,0.050
3075,-0.015,0.055
3076,-0.015,0.060
3077,-0.015,0.050
3078,-0.025,0.050
3079,-0.020,0.050
3080,-0.025,0.050
3081,-0.030,0.045
3082,-0.030,0.040
3083,-0.030,0.030
3084,-0.030,0.030
3085,-0.030,0.025
3086,-0.025,0.025
3087,-0.025,0.015
3088,-0.025,0.015
3089,-0.025,0.010
3090,-0.020,0.005
3091,-0.020,0.000
3092,-0.020,0.000
3093,-0.020,0.000
3094,-0.025,0.000
3095,-0.020,0.000
3096,-0.015,0.000
3097,-0.020,0.000
3098,-0.020,0.000
3099,-0.015,0.000
3100,-0.015,0.000
3101,-0.015,0.000
3102,-0.015,0.000
3103,-0.015,0.000
3104,-0.015,0.000
3105,-0.015,0.000
3106,-0.020,0.005
3107,-0.030,0.005
3108,-0.030,0.000
3109,-0.025,0.000
3110,-0.010,0.000
3111,-0.005,0.000
3112,-0.005,0.000
3113,-0.005,-0.005
3114,-0.005,0.000
3115,-0.005,0.000
3116,-0.005,0.000
3117,0.000,0.000
3118,0.000,0.000
3119,0.000,-0.005
3120,0.000,0.000
3121,0.000,0.000
3122,0.000,0.000
3123,0.000,0.000
3124,0.000,-0.005
3125,0.000,0.000
3126,0.000,0.000
3127,0.000,0.000
3128,0.000,0.000
3129,0.000,0.000
3130,0.000,0.000
3131,0.000,0.000
3132,0.000,0.000
3133,-0.005,-0.005
3134,-0.025,-0.005
3135,-0.025,0.005
3136,0.025,0.045
3137,0.120,0.090
3138,0.225,0.150
3139,0.290,0.250
3140,0.295,0.355
3141,0.245,0.355
3142,0.145,0.190
3143,0.050,0.000
3144,0.000,-0.125
3145,-0.025,-0.155
3146,-0.040,-0.115
3147,-0.055,-0.080
3148,-0.055,-0.075
3149,-0.055,-0.080
3150,-0.055,-0.080
3151,-0.055,-0.085
3152,-0.055,-0.080
3153,-0.050,-0.080
3154,-0.040,-0.075
3155,-0.040,-0.070
3156,-0.035,-0.055
3157,-0.035,-0.040
3158,-0.035,-0.035
3159,-0.030,-0.015
3160,-0.030,0.000
3161,-0.030,0.000
3162,-0.020,0.000
3163,-0.015,0.010
3164,-0.015,0.020
3165,-0.015,0.030
3166,-0.015,0.040
3167,-0.015,0.045
3168,-0.015,0.040
3169,-0.015,0.045
3170,-0.020,0.045
3171,-0.025,0.045
3172,-0.030,0.045
3173,-0.030,0.045
3174,-0.030,0.045
3175,-0.030,0.035
3176,-0.030,0.025
3177,-0.030,0.025
3178,-0.030,0.015
3179,-0.025,0.010
3180,-0.025,0.005
3181,-0.025,0.000
3182,-0.020,0.000
3183,-0.020,0.000
3184,-0.015,0.000
3185,-0.015,0.000
3186,-0.015,0.000
3187,-0.015,0.000
3188,-0.015,0.000
3189,-0.015,0.000
3190,-0.015,0.000
3191,-0.010,0.000
3192,-0.010,0.000
3193,-0.010,0.000
3194,-0.010,0.000
3195,-0.010,0.000
3196,-0.010,-0.005
3197,-0.010,-0.005
3198,-0.005,-0.005
3199,-0.005,-0.005
3200,-0.005,-0.005
3201,-0.005,0.000
3202,-0.010,0.000
3203,-0.015,0.000
3204,-0.015,0.000
3205,-0.010,0.000
3206,0.000,0.000
3207,0.000,-0.015
3208,0.000,-0.025
3209,0.000,-0.030
3210,0.000,-0.025
3211,0.000,-0.020
3212,0.005,-0.020
3213,0.005,-0.010
3214,0.010,-0.010
3215,0.010,-0.015
3216,0.010,-0.015
3217,0.010,-0.010
3218,0.010,-0.015
3219,0.010,-0.020
3220,0.010,-0.015
3221,0.010,-0.005
3222,0.010,0.000
3223,0.010,0.000
3224,0.010,0.000
3225,0.010,0.000
3226,0.010,0.000
3227,0.010,0.000
3228,0.005,0.000
3229,0.000,-0.005
3230,-0.010,0.000
3231,0.020,0.020
3232,0.110,0.080
3233,0.220,0.125
3234,0.310,0.220
3235,0.330,0.335
3236,0.305,0.400
3237,0.210,0.265
3238,0.105,0.045
3239,0.025,-0.110
3240,0.000,-0.175
3241,-0.020,-0.140
3242,-0.030,-0.085
3243,-0.030,-0.080
3244,-0.035,-0.080
3245,-0.035,-0.080
3246,-0.035,-0.080
3247,-0.030,-0.070
3248,-0.030,-0.070
3249,-0.030,-0.065
3250,-0.025,-0.055
3251,-0.020,-0.040
3252,-0.015,-0.030
3253,-0.015,-0.010
3254,-0.010,0.000
3255,-0.010,0.000
3256,-0.010,0.005
3257,-0.010,0.015
3258,-0.005,0.025
3259,-0.005,0.035
3260,0.000,0.045
3261,0.000,0.050
3262,0.000,0.055
3263,0.000,0.065
3264,0.000,0.070
3265,0.000,0.070
3266,0.000,0.070
3267,0.000,0.070
3268,0.000,0.070
3269,0.000,0.065
3270,0.000,0.060
3271,0.000,0.055
3272,0.000,0.045
3273,0.000,0.040
3274,0.000,0.040
3275,0.005,0.040
3276,0.005,0.035
3277,0.010,0.035
3278,0.005,0.030
3279,0.005,0.025
3280,0.005,0.020
3281,0.010,0.010
3282,0.010,0.010
3283,0.010,0.015
3284,0.010,0.015
3285,0.010,0.020
3286,0.005,0.020
3287,0.005,0.005
3288,0.005,0.000
3289,0.010,0.000
3290,0.010,0.000
3291,0.010,0.000
3292,0.010,0.000
3293,0.010,0.000
3294,0.010,0.000
3295,0.005,0.000
3296,0.005,-0.005
3297,0.000,0.000
3298,0.000,0.000
3299,0.000,0.000
3300,0.000,0.000
3301,0.000,-0.005
3302,0.005,-0.020
3303,0.010,-0.025
3304,0.005,-0.035
3305,0.005,-0.045
3306,0.000,-0.055
3307,0.000,-0.045
3308,0.000,-0.040
3309,0.000,-0.055
3310,0.000,-0.055
3311,0.000,-0.055
3312,0.000,-0.050
3313,0.000,-0.040
3314,0.000,-0.050
3315,0.000,-0.060
3316,-0.005,-0.075
3317,-0.005,-0.070
3318,-0.005,-0.065
3319,-0.005,-0.065
3320,-0.005,-0.070
3321,-0.010,-0.060
3322,-0.010,-0.075
3323,-0.010,-0.085
3324,-0.015,-0.085
3325,-0.025,-0.100
3326,-0.045,-0.085
3327,-0.010,-0.050
3328,0.065,-0.010
3329,0.185,0.015
3330,0.270,0.105
3331,0.295,0.240
3332,0.265,0.350
3333,0.180,0.280
3334,0.070,0.080
3335,0.000,-0.125
3336,-0.030,-0.225
3337,-0.055,-0.210
3338,-0.060,-0.170
3339,-0.065,-0.150
3340,-0.065,-0.145
3341,-0.065,-0.155
3342,-0.065,-0.145
3343,-0.065,-0.160
3344,-0.065,-0.160
3345,-0.065,-0.150
3346,-0.065,-0.150
3347,-0.060,-0.145
3348,-0.060,-0.140
3349,-0.060,-0.125
3350,-0.060,-0.110
3351,-0.055,-0.095
3352,-0.050,-0.075
3353,-0.050,-0.065
3354,-0.050,-0.055
3355,-0.055,-0.045
3356,-0.050,-0.035
3357,-0.050,-0.020
3358,-0.055,-0.015
3359,-0.055,-0.005
3360,-0.055,-0.005
3361,-0.055,0.000
3362,-0.055,0.000
3363,-0.055,0.000
3364,-0.055,0.000
3365,-0.055,0.000
3366,-0.055,0.000
3367,-0.055,-0.005
3368,-0.055,-0.005
3369,-0.055,-0.010
3370,-0.055,-0.010
3371,-0.055,-0.015
3372,-0.055,-0.020
3373,-0.055,-0.025
3374,-0.040,-0.025
3375,-0.040,-0.020
3376,-0.040,-0.020
3377,-0.040,-0.025
3378,-0.045,-0.025
3379,-0.040,-0.020
3380,-0.040,-0.025
3381,-0.040,-0.030
3382,-0.040,-0.030
3383,-0.040,-0.030
3384,-0.040,-0.035
3385,-0.035,-0.035
3386,-0.035,-0.035
3387,-0.035,-0.035
3388,-0.035,-0.035
3389,-0.035,-0.040
3390,-0.030,-0.040
3391,-0.030,-0.040
3392,-0.030,-0.040
3393,-0.025,-0.035
3394,-0.025,-0.030
3395,-0.030,-0.020
3396,-0.035,-0.015
3397,-0.035,-0.015
3398,-0.030,-0.010
3399,-0.025,-0.005
3400,-0.020,0.000
3401,-0.010,-0.010
3402,-0.010,-0.025
3403,-0.010,-0.030
3404,-0.010,-0.030
3405,-0.010,-0.020
3406,-0.010,-0.005
3407,-0.010,-0.005
3408,-0.005,-0.005
3409,-0.005,0.000
3410,-0.010,0.000
3411,-0.010,0.000
3412,-0.010,0.000
3413,-0.010,0.000
3414,-0.010,0.000
3415,-0.005,0.000
3416,-0.005,0.000
3417,-0.005,0.000
3418,-0.005,0.000
3419,-0.005,0.000
3420,-0.005,0.000
3421,-0.010,0.000
3422,-0.010,0.000
3423,-0.010,-0.005
3424,-0.040,0.000
3425,-0.020,0.010
3426,0.040,0.055
3427,0.150,0.105
3428,0.255,0.185
3429,0.305,0.305
3430,0.285,0.420
3431,0.210,0.395
3432,0.115,0.230
3433,0.030,0.025
3434,-0.015,-0.100
3435,-0.035,-0.130
3436,-0.050,-0.090
3437,-0.060,-0.065
3438,-0.065,-0.060
3439,-0.060,-0.055
3440,-0.060,-0.055
3441,-0.060,-0.060
3442,-0.055,-0.055
3443,-0.055,-0.050
3444,-0.055,-0.045
3445,-0.055,-0.035
3446,-0.050,-0.030
3447,-0.040,-0.020
3448,-0.035,-0.005
3449,-0.035,0.000
3450,-0.030,0.005
3451,-0.030,0.015
3452,-0.030,0.035
3453,-0.030,0.045
3454,-0.030,0.060
3455,-0.030,0.070
3456,-0.030,0.075
3457,-0.030,0.075
3458,-0.030,0.075
3459,-0.030,0.085
3460,-0.030,0.090
3461,-0.030,0.090
3462,-0.035,0.080
3463,-0.035,0.080
3464,-0.035,0.080
3465,-0.035,0.075
3466,-0.035,0.060
3467,-0.030,0.060
3468,-0.030,0.050
3469,-0.030,0.050
3470,-0.030,0.045
3471,-0.025,0.040
3472,-0.015,0.035
3473,-0.015,0.035
3474,-0.015,0.035
3475,-0.015,0.030
3476,-0.015,0.025
3477,-0.010,0.025
3478,-0.010,0.020
3479,-0.010,0.020
3480,-0.010,0.020
3481,-0.010,0.015
3482,-0.010,0.015
3483,-0.010,0.010
3484,-0.010,0.005
3485,-0.010,0.005
3486,-0.005,0.000
3487,-0.005,0.000
3488,-0.005,0.000
3489,-0.005,0.000
3490,-0.005,0.000
3491,-0.005,0.000
3492,-0.005,0.005
3493,-0.010,0.015
3494,-0.010,0.015
3495,-0.010,0.010
3496,-0.005,0.005
3497,0.000,0.000
3498,0.000,0.000
3499,0.000,0.000
3500,0.000,0.000
3501,0.000,0.000
3502,0.000,0.000
3503,0.000,0.000
3504,0.000,0.000
3505,0.000,0.000
3506,0.005,0.000
3507,0.000,0.000
3508,0.000,0.000
3509,0.000,0.000
3510,0.005,0.000
3511,0.005,0.000
3512,0.005,0.000
3513,0.005,0.000
3514,0.000,0.000
3515,0.000,0.000
3516,0.000,0.000
3517,0.000,0.000
3518,0.000,0.000
3519,0.000,0.000
3520,-0.005,0.000
3521,-0.015,0.000
3522,-0.005,0.020
3523,0.060,0.060
3524,0.170,0.110
3525,0.270,0.190
3526,0.320,0.305
3527,0.305,0.405
3528,0.235,0.375
3529,0.130,0.195
3530,0.040,-0.010
3531,0.000,-0.130
3532,-0.015,-0.135
3533,-0.035,-0.105
3534,-0.040,-0.080
3535,-0.040,-0.080
3536,-0.040,-0.080
3537,-0.040,-0.080
3538,-0.040,-0.075
3539,-0.035,-0.065
3540,-0.035,-0.065
3541,-0.035,-0.065
3542,-0.035,-0.065
3543,-0.035,-0.045
3544,-0.030,-0.025
3545,-0.025,-0.015
3546,-0.025,-0.010
3547,-0.020,0.000
3548,-0.015,0.005
3549,-0.015,0.020
3550,-0.015,0.030
3551,-0.015,0.040
3552,-0.015,0.050
3553,-0.015,0.060
3554,-0.010,0.065
3555,-0.010,0.065
3556,-0.010,0.065
3557,-0.015,0.065
3558,-0.015,0.065
3559,-0.015,0.065
3560,-0.015,0.060
3561,-0.015,0.055
3562,-0.015,0.055
3563,-0.015,0.055
3564,-0.015,0.050
3565,-0.010,0.040
3566,-0.010,0.030
3567,-0.010,0.025
3568,-0.005,0.025
3569,-0.005,0.020
3570,-0.005,0.020
3571,0.000,0.015
3572,0.000,0.015
3573,0.000,0.015
3574,0.000,0.010
3575,0.000,0.005
3576,0.000,0.000
3577,0.000,0.000
3578,0.000,0.000
3579,0.000,0.000
3580,0.000,0.000
3581,0.000,0.000
3582,0.000,-0.005
3583,0.000,-0.005
3584,0.000,-0.010
3585,0.000,-0.010
3586,0.000,-0.015
3587,0.000,-0.015
3588,0.000,-0.015
3589,0.000,-0.010
3590,0.000,0.000
3591,0.000,0.000
3592,0.000,0.000
3593,0.000,0.000
3594,0.000,0.000
3595,0.000,0.000
3596,0.005,-0.005
3597,0.005,-0.015
3598,0.005,-0.020
3599,0.005,-0.020
3600,0.005,-0.010
3601,0.005,-0.010
3602,0.010,-0.015
3603,0.010,-0.010
3604,0.005,-0.010
3605,0.005,-0.005
3606,0.005,-0.005
3607,0.005,-0.005
3608,0.005,-0.005
3609,0.005,-0.005
3610,0.005,0.000
3611,0.005,0.000
3612,0.000,0.000
3613,0.000,0.000
3614,0.000,0.000
3615,0.000,0.000
3616,0.000,0.000
3617,0.000,-0.010
3618,-0.015,-0.010
3619,-0.025,0.005
3620,0.015,0.040
3621,0.115,0.085
3622,0.230,0.145
3623,0.300,0.260
3624,0.315,0.390
3625,0.260,0.400
3626,0.155,0.220
3627,0.055,0.000
3628,0.000,-0.135
3629,-0.005,-0.140
3630,-0.020,-0.100
3631,-0.030,-0.075
3632,-0.035,-0.070
3633,-0.035,-0.070
3634,-0.035,-0.075
3635,-0.030,-0.075
3636,-0.030,-0.075
3637,-0.020,-0.070
3638,-0.015,-0.070
3639,-0.015,-0.065
3640,-0.010,-0.055
3641,-0.005,-0.045
3642,-0.005,-0.030
3643,0.000,-0.015
3644,0.000,-0.005
3645,0.000,0.000
3646,0.000,0.000
3647,0.000,0.010
3648,0.000,0.020
3649,0.005,0.025
3650,0.000,0.035
3651,0.000,0.045
3652,0.000,0.050
3653,0.000,0.060
3654,0.000,0.065
3655,0.000,0.065
3656,0.000,0.065
3657,0.000,0.060
3658,0.000,0.055
3659,0.000,0.055
3660,0.000,0.050
3661,0.000,0.045
3662,0.000,0.040
3663,0.000,0.030
3664,0.000,0.025
3665,0.000,0.025
3666,0.005,0.020
3667,0.005,0.015
3668,0.005,0.015
3669,0.010,0.015
3670,0.010,0.015
3671,0.010,0.015
3672,0.005,0.015
3673,0.005,0.015
3674,0.010,0.015
3675,0.010,0.010
3676,0.010,0.010
3677,0.010,0.010
3678,0.010,0.005
3679,0.015,0.005
3680,0.015,0.010
3681,0.015,0.015
3682,0.015,0.015
3683,0.015,0.010
3684,0.015,0.015
3685,0.010,0.030
3686,0.010,0.040
3687,0.010,0.040
3688,0.010,0.035
3689,0.010,0.030
3690,0.020,0.020
3691,0.025,0.005
3692,0.030,0.000
3693,0.030,0.000
3694,0.025,0.000
3695,0.020,0.000
3696,0.015,0.000
3697,0.025,0.000
3698,0.020,0.005
3699,0.015,0.005
3700,0.015,0.000
3701,0.015,0.000
3702,0.020,0.000
3703,0.020,0.000
3704,0.015,0.000
3705,0.015,0.000
3706,0.015,0.000
3707,0.015,0.000
3708,0.015,0.000
3709,0.015,0.000
3710,0.015,0.000
3711,0.015,0.000
3712,0.015,-0.015
3713,0.005,-0.030
3714,0.000,-0.035
3715,0.025,-0.005
3716,0.125,0.035
3717,0.245,0.105
3718,0.305,0.215
3719,0.335,0.385
3720,0.290,0.495
3721,0.195,0.400
3722,0.090,0.170
3723,0.020,-0.045
3724,-0.005,-0.140
3725,-0.020,-0.135
3726,-0.030,-0.100
3727,-0.035,-0.090
3728,-0.035,-0.095
3729,-0.035,-0.100
3730,-0.035,-0.100
3731,-0.035,-0.100
3732,-0.035,-0.105
3733,-0.035,-0.100
3734,-0.035,-0.100
3735,-0.035,-0.095
3736,-0.030,-0.080
3737,-0.030,-0.070
3738,-0.030,-0.060
3739,-0.025,-0.040
3740,-0.015,-0.025
3741,-0.015,-0.015
3742,-0.015,0.000
3743,-0.015,0.000
3744,-0.015,0.000
3745,-0.015,0.000
3746,-0.020,0.000
3747,-0.020,0.000
3748,-0.020,0.000
3749,-0.030,0.000
3750,-0.030,0.000
3751,-0.030,0.000
3752,-0.030,0.000
3753,-0.035,0.000
3754,-0.035,0.000
3755,-0.035,0.000
3756,-0.035,-0.005
3757,-0.035,-0.010
3758,-0.030,-0.010
3759,-0.030,-0.010
3760,-0.035,-0.015
3761,-0.030,-0.010
3762,-0.030,-0.005
3763,-0.030,-0.005
3764,-0.030,-0.005
3765,-0.030,-0.010
3766,-0.030,-0.010
3767,-0.035,-0.005
3768,-0.030,-0.005
3769,-0.030,-0.005
3770,-0.030,-0.005
3771,-0.030,-0.010
3772,-0.030,-0.010
3773,-0.030,-0.015
3774,-0.030,-0.015
3775,-0.030,-0.015
3776,-0.025,-0.010
3777,-0.020,-0.010
3778,-0.020,-0.010
3779,-0.025,-0.020
3780,-0.020,-0.015
3781,-0.030,-0.005
3782,-0.030,-0.005
3783,-0.030,-0.005
3784,-0.025,-0.005
3785,-0.025,-0.005
3786,-0.020,-0.020
3787,-0.010,-0.030
3788,-0.010,-0.040
3789,-0.010,-0.055
3790,-0.010,-0.060
3791,-0.010,-0.050
3792,-0.010,-0.040
3793,-0.010,-0.045
3794,-0.010,-0.045
3795,-0.010,-0.040
3796,-0.010,-0.035
3797,-0.010,-0.040
3798,-0.010,-0.045
3799,-0.015,-0.045
3800,-0.015,-0.045
3801,-0.015,-0.040
3802,-0.015,-0.035
3803,-0.015,-0.020
3804,-0.010,-0.015
3805,-0.010,-0.015
3806,-0.015,-0.015
3807,-0.015,-0.010
3808,-0.015,-0.015
3809,-0.030,-0.030
3810,-0.050,-0.020
3811,-0.015,0.000
3812,0.075,0.050
3813,0.190,0.115
3814,0.270,0.215
3815,0.300,0.360
3816,0.265,0.465
3817,0.175,0.405
3818,0.070,0.200
3819,0.000,-0.005
3820,-0.025,-0.115
3821,-0.045,-0.125
3822,-0.055,-0.105
3823,-0.065,-0.095
3824,-0.065,-0.090
3825,-0.065,-0.090
3826,-0.060,-0.095
3827,-0.060,-0.105
3828,-0.060,-0.100
3829,-0.060,-0.095
3830,-0.060,-0.095
3831,-0.055,-0.090
3832,-0.055,-0.080
3833,-0.050,-0.065
3834,-0.040,-0.050
3835,-0.040,-0.030
3836,-0.040,-0.020
3837,-0.035,-0.005
3838,-0.035,0.000
3839,-0.040,0.000
3840,-0.040,0.005
3841,-0.040,0.015
3842,-0.035,0.030
3843,-0.035,0.035
3844,-0.040,0.035
3845,-0.040,0.040
3846,-0.040,0.040
3847,-0.040,0.040
3848,-0.040,0.035
3849,-0.050,0.035
3850,-0.050,0.035
3851,-0.050,0.035
3852,-0.045,0.030
3853,-0.040,0.025
3854,-0.040,0.020
3855,-0.040,0.010
3856,-0.035,0.010
3857,-0.035,0.010
3858,-0.035,0.005
3859,-0.035,0.000
3860,-0.035,0.000
3861,-0.030,0.000
3862,-0.030,0.000
3863,-0.030,0.000
3864,-0.030,0.000
3865,-0.025,0.000
3866,-0.025,0.000
3867,-0.030,0.000
3868,-0.030,0.000
3869,-0.030,0.000
3870,-0.025,0.000
3871,-0.015,0.000
3872,-0.015,0.000
3873,-0.020,0.000
3874,-0.015,0.000
3875,-0.010,0.000
3876,-0.010,0.000
3877,-0.015,0.000
3878,-0.015,0.010
3879,-0.025,0.010
3880,-0.015,0.005
3881,-0.010,0.005
3882,-0.005,0.005
3883,-0.005,0.000
3884,0.000,0.000
3885,0.000,-0.005
3886,0.000,-0.010
3887,0.000,-0.005
3888,0.000,0.000
3889,0.000,-0.005
3890,0.000,-0.010
3891,0.000,-0.015
3892,0.000,-0.010
3893,0.000,-0.010
3894,0.000,-0.010
3895,0.000,-0.020
3896,0.000,-0.020
3897,0.000,-0.015
3898,0.000,-0.015
3899,0.000,-0.015
3900,0.000,-0.010
3901,0.000,0.000
3902,0.000,0.000
3903,0.000,0.000
3904,0.000,-0.010
3905,-0.005,-0.015
3906,-0.020,-0.005
3907,-0.005,0.025
3908,0.075,0.080
3909,0.190,0.135
3910,0.290,0.225
3911,0.325,0.360
3912,0.295,0.460
3913,0.205,0.370
3914,0.110,0.145
3915,0.030,-0.050
3916,0.000,-0.140
3917,-0.015,-0.130
3918,-0.035,-0.105
3919,-0.035,-0.085
3920,-0.035,-0.075
3921,-0.035,-0.085
3922,-0.035,-0.085
3923,-0.030,-0.080
3924,-0.025,-0.075
3925,-0.025,-0.065
3926,-0.020,-0.055
3927,-0.020,-0.045
3928,-0.015,-0.040
3929,-0.010,-0.025
3930,-0.010,-0.010
3931,-0.005,0.000
3932,-0.005,0.000
3933,-0.005,0.000
3934,0.000,0.015
3935,0.000,0.020
3936,0.000,0.030
3937,0.000,0.035
3938,-0.005,0.040
3939,-0.005,0.040
3940,-0.005,0.040
3941,-0.005,0.035
3942,-0.010,0.040
3943,-0.010,0.045
3944,-0.010,0.045
3945,-0.010,0.050
3946,-0.010,0.050
3947,-0.010,0.045
3948,-0.015,0.045
3949,-0.015,0.040
3950,-0.010,0.035
3951,-0.010,0.030
3952,-0.010,0.030
3953,-0.010,0.025
3954,-0.010,0.020
3955,-0.005,0.015
3956,-0.005,0.010
3957,-0.005,0.005
3958,-0.005,0.000
3959,0.000,0.000
3960,0.000,0.000
3961,0.000,0.000
3962,0.000,0.000
3963,0.000,0.000
3964,0.000,0.000
3965,0.000,0.000
3966,0.005,0.000
3967,0.005,0.000
3968,0.005,0.000
3969,0.005,0.000
3970,0.010,0.000
3971,0.010,0.000
3972,0.010,0.000
3973,0.010,0.005
3974,0.005,0.010
3975,0.005,0.020
3976,0.005,0.025
3977,0.005,0.025
3978,0.010,0.015
3979,0.015,0.005
3980,0.020,0.000
3981,0.025,0.000
3982,0.025,0.000
3983,0.025,0.000
3984,0.030,0.000
3985,0.030,0.000
3986,0.030,0.000
3987,0.030,0.000
3988,0.030,0.005
3989,0.030,0.000
3990,0.030,0.000
3991,0.030,0.000
3992,0.025,0.000
3993,0.025,0.000
3994,0.030,0.000
3995,0.030,0.000
3996,0.030,0.000
3997,0.030,0.000
3998,0.030,0.000
3999,0.030,0.000
4000,0.025,-0.005
4001,0.015,-0.015
4002,0.000,-0.010
4003,0.030,0.005
4004,0.120,0.055
4005,0.225,0.125
4006,0.310,0.240
4007,0.335,0.400
4008,0.310,0.520
4009,0.220,0.420
4010,0.110,0.170
4011,0.030,-0.055
4012,0.000,-0.120
4013,0.000,-0.095
4014,-0.010,-0.065
4015,-0.015,-0.060
4016,-0.020,-0.065
4017,-0.020,-0.065
4018,-0.025,-0.065
4019,-0.020,-0.070
4020,-0.020,-0.070
4021,-0.015,-0.070
4022,-0.015,-0.065
4023,-0.015,-0.055
4024,-0.015,-0.040
4025,-0.015,-0.035
4026,-0.010,-0.025
4027,-0.010,-0.015
4028,-0.005,0.000
4029,-0.005,0.000
4030,-0.005,0.000
4031,0.000,0.010
4032,0.000,0.015
4033,0.000,0.015
4034,0.000,0.020
4035,0.000,0.025
4036,-0.005,0.020
4037,-0.005,0.020
4038,-0.005,0.015
4039,-0.005,0.015
4040,-0.010,0.010
4041,-0.010,0.010
4042,-0.010,0.005
4043,-0.010,0.000
4044,-0.010,0.000
4045,-0.010,0.000
4046,-0.010,0.000
4047,-0.010,0.000
4048,-0.010,0.000
4049,-0.010,0.000
4050,-0.010,0.000
4051,-0.005,0.000
4052,-0.005,0.000
4053,-0.005,0.000
4054,-0.005,0.000
4055,-0.005,0.000
4056,-0.005,0.000
4057,-0.005,0.000
4058,-0.005,0.000
4059,-0.005,0.000
4060,-0.005,0.000
4061,-0.005,0.000
4062,-0.005,0.000
4063,0.000,0.000
4064,0.000,0.000
4065,0.000,0.000
4066,0.000,0.000
4067,0.000,0.000
4068,-0.005,0.000
4069,-0.005,0.005
4070,-0.010,0.005
4071,-0.005,0.005
4072,0.000,0.005
4073,0.000,0.000
4074,0.000,0.000
4075,0.000,-0.005
4076,0.005,-0.015
4077,0.000,-0.010
4078,0.000,-0.005
4079,0.000,-0.005
4080,0.000,-0.015
4081,0.000,-0.015
4082,0.000,-0.015
4083,0.000,-0.015
4084,0.000,-0.030
4085,0.000,-0.030
4086,0.000,-0.035
4087,0.000,-0.035
4088,0.000,-0.035
4089,0.005,-0.035
4090,0.000,-0.035
4091,0.000,-0.030
4092,0.000,-0.025
4093,0.000,-0.025
4094,0.000,-0.025
4095,0.000,-0.035
4096,-0.015,-0.055
4097,-0.025,-0.050
4098,0.015,-0.015
4099,0.110,0.025
4100,0.230,0.105
4101,0.285,0.230
4102,0.310,0.395
4103,0.260,0.510
4104,0.160,0.400
4105,0.045,0.160
4106,-0.005,-0.065
4107,-0.030,-0.155
4108,-0.050,-0.140
4109,-0.065,-0.120
4110,-0.070,-0.115
4111,-0.065,-0.120
4112,-0.065,-0.125
4113,-0.070,-0.130
4114,-0.070,-0.125
4115,-0.065,-0.125
4116,-0.065,-0.120
4117,-0.065,-0.115
4118,-0.065,-0.110
4119,-0.065,-0.095
4120,-0.060,-0.080
4121,-0.060,-0.065
4122,-0.060,-0.045
4123,-0.060,-0.035
4124,-0.060,-0.020
4125,-0.055,-0.005
4126,-0.055,0.000
4127,-0.055,0.000
4128,-0.055,0.000
4129,-0.055,0.000
4130,-0.055,0.000
4131,-0.055,0.000
4132,-0.055,0.005
4133,-0.055,0.000
4134,-0.060,0.000
4135,-0.060,0.000
4136,-0.060,0.000
4137,-0.055,0.000
4138,-0.055,0.000
4139,-0.055,-0.005
4140,-0.055,-0.010
4141,-0.055,-0.010
4142,-0.055,-0.020
4143,-0.050,-0.025
4144,-0.050,-0.020
4145,-0.045,-0.020
4146,-0.045,-0.020
4147,-0.045,-0.020
4148,-0.040,-0.025
4149,-0.040,-0.015
4150,-0.040,-0.015
4151,-0.040,-0.015
4152,-0.035,-0.015
4153,-0.035,-0.015
4154,-0.035,-0.015
4155,-0.035,-0.015
4156,-0.035,-0.015
4157,-0.030,-0.010
4158,-0.030,-0.010
4159,-0.030,-0.010
4160,-0.030,-0.005
4161,-0.030,-0.005
4162,-0.030,-0.005
4163,-0.030,-0.005
4164,-0.030,0.000
4165,-0.030,0.000
4166,-0.030,0.000
4167,-0.035,0.000
4168,-0.030,0.000
4169,-0.025,0.000
4170,-0.015,0.000
4171,-0.015,-0.005
4172,-0.010,-0.020
4173,-0.010,-0.025
4174,-0.010,-0.025
4175,-0.010,-0.020
4176,-0.005,-0.020
4177,-0.005,-0.035
4178,-0.010,-0.035
4179,-0.010,-0.035
4180,-0.010,-0.035
4181,-0.005,-0.045
4182,-0.005,-0.045
4183,-0.005,-0.045
4184,-0.005,-0.045
4185,-0.005,-0.040
4186,-0.005,-0.035
4187,-0.005,-0.035
4188,-0.005,-0.035
4189,-0.005,-0.035
4190,-0.005,-0.030
4191,-0.005,-0.030
4192,-0.010,-0.050
4193,-0.035,-0.050
4194,-0.030,-0.025
4195,0.030,0.010
4196,0.140,0.070
4197,0.245,0.155
4198,0.295,0.280
4199,0.295,0.420
4200,0.230,0.440
4201,0.130,0.280
4202,0.035,0.055
4203,-0.010,-0.095
4204,-0.030,-0.135
4205,-0.045,-0.110
4206,-0.060,-0.090
4207,-0.060,-0.080
4208,-0.060,-0.085
4209,-0.055,-0.095
4210,-0.055,-0.095
4211,-0.055,-0.090
4212,-0.055,-0.080
4213,-0.050,-0.075
4214,-0.040,-0.070
4215,-0.040,-0.060
4216,-0.035,-0.050
4217,-0.035,-0.035
4218,-0.035,-0.020
4219,-0.030,-0.015
4220,-0.030,0.000
4221,-0.030,0.000
4222,-0.030,0.005
4223,-0.030,0.015
4224,-0.030,0.020
4225,-0.030,0.025
4226,-0.030,0.030
4227,-0.030,0.035
4228,-0.030,0.040
4229,-0.030,0.045
4230,-0.030,0.045
4231,-0.025,0.045
4232,-0.025,0.035
4233,-0.030,0.040
4234,-0.030,0.045
4235,-0.030,0.045
4236,-0.020,0.035
4237,-0.015,0.030
4238,-0.015,0.025
4239,-0.015,0.020
4240,-0.010,0.020
4241,-0.010,0.010
4242,-0.010,0.005
4243,-0.005,0.005
4244,-0.005,0.000
4245,-0.005,0.000
4246,-0.005,0.000
4247,-0.005,0.000
4248,-0.005,0.000
4249,0.000,0.000
4250,0.000,0.000
4251,0.000,0.000
4252,0.000,0.000
4253,-0.005,0.000
4254,0.000,0.000
4255,0.000,0.000
4256,0.000,0.000
4257,0.000,0.000
4258,0.000,0.000
4259,0.000,0.000
4260,0.000,0.000
4261,0.000,0.000
4262,0.000,0.000
4263,-0.005,0.015
4264,-0.005,0.020
4265,0.000,0.020
4266,0.000,0.015
4267,0.000,0.010
4268,0.000,0.000
4269,0.005,0.000
4270,0.005,0.000
4271,0.005,0.000
4272,0.005,0.005
4273,0.005,0.000
4274,0.005,0.000
4275,0.005,0.000
4276,0.005,0.000
4277,0.005,0.000
4278,0.005,0.000
4279,0.000,0.000
4280,0.000,-0.005
4281,0.005,-0.005
4282,0.005,-0.005
4283,0.005,-0.005
4284,0.000,-0.005
4285,0.000,-0.005
4286,0.000,-0.010
4287,0.000,-0.010
4288,0.000,-0.015
4289,0.000,-0.025
4290,-0.015,-0.030
4291,-0.020,-0.010
4292,0.020,0.020
4293,0.115,0.070
4294,0.220,0.140
4295,0.290,0.260
4296,0.290,0.375
4297,0.240,0.370
4298,0.145,0.190
4299,0.045,-0.010
4300,0.000,-0.140
4301,-0.020,-0.150
4302,-0.035,-0.105
4303,-0.040,-0.075
4304,-0.045,-0.070
4305,-0.050,-0.075
4306,-0.040,-0.075
4307,-0.040,-0.080
4308,-0.040,-0.075
4309,-0.040,-0.070
4310,-0.040,-0.065
4311,-0.035,-0.065
4312,-0.030,-0.055
4313,-0.030,-0.035
4314,-0.030,-0.025
4315,-0.020,-0.010
4316,-0.015,0.000
4317,-0.010,0.000
4318,-0.010,0.005
4319,-0.005,0.010
4320,0.000,0.015
4321,0.000,0.025
4322,0.000,0.035
4323,0.000,0.040
4324,0.000,0.045
4325,0.000,0.045
4326,0.000,0.050
4327,0.000,0.050
4328,0.000,0.050
4329,0.000,0.045
4330,0.000,0.040
4331,0.000,0.035
4332,0.000,0.030
4333,0.000,0.025
4334,0.000,0.020
4335,0.000,0.010
4336,0.000,0.000
4337,0.000,0.000
4338,0.000,0.000
4339,0.000,0.000
4340,0.000,0.000
4341,0.000,0.000
4342,0.000,0.005
4343,0.005,0.010
4344,0.005,0.015
4345,0.005,0.015
4346,0.000,0.015
4347,0.000,0.020
4348,0.005,0.020
4349,0.005,0.020
4350,0.005,0.015
4351,0.010,0.015
4352,0.010,0.015
4353,0.010,0.015
4354,0.010,0.020
4355,0.015,0.025
4356,0.010,0.025
4357,0.010,0.030
4358,0.005,0.035
4359,0.005,0.035
4360,0.005,0.025
4361,0.010,0.025
4362,0.010,0.015
4363,0.020,0.000
4364,0.025,0.000
4365,0.030,0.000
4366,0.025,0.000
4367,0.025,0.000
4368,0.025,0.000
4369,0.025,0.000
4370,0.030,0.000
4371,0.025,0.000
4372,0.025,0.000
4373,0.025,0.000
4374,0.025,0.000
4375,0.030,0.000
4376,0.025,0.000
4377,0.025,0.000
4378,0.030,0.000
4379,0.030,0.000
4380,0.030,0.005
4381,0.030,0.005
4382,0.030,0.010
4383,0.025,0.005
4384,0.020,0.000
4385,0.010,0.000
4386,0.000,-0.005
4387,0.020,0.005
4388,0.105,0.050
4389,0.210,0.115
4390,0.305,0.220
4391,0.335,0.360
4392,0.325,0.515
4393,0.245,0.505
4394,0.125,0.290
4395,0.040,0.025
4396,0.000,-0.100
4397,-0.005,-0.095
4398,-0.020,-0.065
4399,-0.025,-0.060
4400,-0.030,-0.060
4401,-0.030,-0.065
4402,-0.030,-0.070
4403,-0.030,-0.075
4404,-0.030,-0.080
4405,-0.030,-0.080
4406,-0.020,-0.075
4407,-0.015,-0.070
4408,-0.015,-0.055
4409,-0.015,-0.050
4410,-0.010,-0.040
4411,-0.010,-0.025
4412,-0.010,-0.015
4413,-0.005,0.000
4414,-0.005,0.000
4415,0.000,0.000
4416,0.000,0.005
4417,0.000,0.015
4418,0.000,0.015
4419,0.000,0.015
4420,-0.005,0.020
4421,-0.005,0.020
4422,-0.005,0.025
4423,-0.010,0.025
4424,-0.010,0.025
4425,-0.010,0.020
4426,-0.010,0.020
4427,-0.010,0.020
4428,-0.010,0.020
4429,-0.010,0.015
4430,-0.010,0.015
4431,-0.010,0.010
4432,-0.010,0.005
4433,-0.005,0.005
4434,-0.005,0.005
4435,-0.005,0.005
4436,-0.005,0.005
4437,-0.005,0.000
4438,-0.005,0.000
4439,-0.005,0.000
4440,-0.005,0.000
4441,-0.005,0.000
4442,-0.005,0.000
4443,-0.005,0.000
4444,0.000,0.000
4445,0.000,0.000
4446,0.000,0.000
4447,0.000,0.000
4448,0.000,0.000
4449,0.000,0.000
4450,0.000,0.000
4451,0.000,-0.005
4452,0.000,-0.005
4453,0.000,0.000
4454,0.000,0.000
4455,0.000,0.000
4456,0.000,0.000
4457,-0.005,0.000
4458,0.000,0.000
4459,0.000,0.000
4460,0.000,0.000
4461,0.005,0.000
4462,0.005,-0.005
4463,0.005,0.000
4464,0.000,0.000
4465,0.000,0.000
4466,0.000,0.000
4467,0.005,0.000
4468,0.000,0.000
4469,0.000,0.000
4470,0.000,-0.005
4471,0.005,-0.010
4472,0.000,-0.015
4473,0.000,-0.015
4474,0.000,-0.015
4475,0.000,-0.015
4476,0.000,-0.015
4477,0.000,-0.015
4478,0.000,-0.010
4479,0.000,-0.010
4480,0.000,-0.015
4481,0.000,-0.030
4482,-0.005,-0.060
4483,-0.035,-0.070
4484,-0.010,-0.045
4485,0.065,-0.005
4486,0.175,0.055
4487,0.265,0.165
4488,0.300,0.315
4489,0.285,0.475
4490,0.195,0.470
4491,0.085,0.280
4492,0.005,0.025
4493,-0.030,-0.120
4494,-0.055,-0.140
4495,-0.070,-0.115
4496,-0.075,-0.100
4497,-0.080,-0.105
4498,-0.080,-0.110
4499,-0.070,-0.115
4500,-0.075,-0.115
4501,-0.080,-0.115
4502,-0.075,-0.110
4503,-0.070,-0.110
4504,-0.070,-0.105
4505,-0.065,-0.095
4506,-0.065,-0.085
4507,-0.065,-0.075
4508,-0.065,-0.060
4509,-0.060,-0.050
4510,-0.060,-0.035
4511,-0.060,-0.025
4512,-0.055,-0.015
4513,-0.055,-0.005
4514,-0.055,-0.005
4515,-0.055,-0.005
4516,-0.060,-0.005
4517,-0.060,-0.005
4518,-0.060,-0.010
4519,-0.060,-0.010
4520,-0.060,-0.010
4521,-0.065,-0.010
4522,-0.065,-0.010
4523,-0.065,-0.010
4524,-0.060,-0.015
4525,-0.060,-0.015
4526,-0.060,-0.015
4527,-0.060,-0.020
4528,-0.060,-0.025
4529,-0.060,-0.030
4530,-0.055,-0.030
4531,-0.055,-0.030
4532,-0.055,-0.025
4533,-0.055,-0.015
4534,-0.055,-0.015
4535,-0.055,-0.015
4536,-0.055,-0.015
4537,-0.055,-0.015
4538,-0.045,-0.010
4539,-0.045,-0.010
4540,-0.045,-0.010
4541,-0.040,-0.010
4542,-0.040,-0.015
4543,-0.040,-0.015
4544,-0.040,-0.015
4545,-0.040,-0.015
4546,-0.040,-0.015
4547,-0.035,-0.015
4548,-0.035,-0.015
4549,-0.035,-0.015
4550,-0.035,-0.015
4551,-0.030,-0.015
4552,-0.030,-0.015
4553,-0.030,-0.010
4554,-0.035,0.000
4555,-0.035,0.000
4556,-0.035,0.000
4557,-0.035,0.000
4558,-0.030,-0.005
4559,-0.025,-0.015
4560,-0.015,-0.035
4561,-0.015,-0.040
4562,-0.015,-0.050
4563,-0.015,-0.050
4564,-0.020,-0.045
4565,-0.015,-0.045
4566,-0.015,-0.050
4567,-0.015,-0.050
4568,-0.015,-0.050
4569,-0.015,-0.040
4570,-0.015,-0.040
4571,-0.010,-0.040
4572,-0.010,-0.040
4573,-0.015,-0.040
4574,-0.015,-0.040
4575,-0.010,-0.040
4576,-0.010,-0.040
4577,-0.015,-0.035
4578,-0.015,-0.035
4579,-0.015,-0.035
4580,-0.015,-0.035
4581,-0.015,-0.050
4582,-0.035,-0.060
4583,-0.040,-0.040
4584,0.005,0.000
4585,0.100,0.040
4586,0.210,0.120
4587,0.280,0.240
4588,0.290,0.390
4589,0.245,0.445
4590,0.145,0.325
4591,0.045,0.105
4592,-0.010,-0.080
4593,-0.035,-0.150
4594,-0.050,-0.120
4595,-0.060,-0.090
4596,-0.065,-0.090
4597,-0.065,-0.095
4598,-0.060,-0.100
4599,-0.060,-0.100
4600,-0.060,-0.095
4601,-0.060,-0.095
4602,-0.060,-0.095
4603,-0.055,-0.090
4604,-0.055,-0.075
4605,-0.050,-0.070
4606,-0.040,-0.055
4607,-0.040,-0.040
4608,-0.040,-0.030
4609,-0.035,-0.015
4610,-0.035,-0.005
4611,-0.035,0.000
4612,-0.030,0.000
4613,-0.030,0.000
4614,-0.030,0.005
4615,-0.030,0.010
4616,-0.035,0.020
4617,-0.035,0.030
4618,-0.035,0.025
4619,-0.035,0.025
4620,-0.035,0.025
4621,-0.035,0.025
4622,-0.035,0.025
4623,-0.035,0.015
4624,-0.035,0.010
4625,-0.030,0.005
4626,-0.030,0.000
4627,-0.030,0.000
4628,-0.030,0.000
4629,-0.030,0.000
4630,-0.020,0.000
4631,-0.010,0.000
4632,-0.010,0.000
4633,-0.010,0.000
4634,-0.010,0.000
4635,-0.005,0.000
4636,-0.005,0.000
4637,-0.005,0.000
4638,-0.005,-0.005
4639,-0.005,-0.005
4640,0.000,-0.005
4641,0.000,-0.005
4642,0.000,-0.005
4643,0.000,-0.005
4644,0.000,-0.010
4645,0.000,-0.010
4646,0.000,-0.015
4647,0.000,-0.015
4648,0.000,-0.020
4649,0.000,-0.025
4650,0.000,-0.020
4651,0.000,-0.015
4652,0.000,-0.010
4653,0.000,-0.005
4654,0.000,0.000
4655,0.000,0.000
4656,0.000,0.000
4657,0.000,0.000
4658,0.000,0.000
4659,0.005,-0.010
4660,0.005,-0.015
4661,0.010,-0.015
4662,0.005,-0.005
4663,0.005,-0.005
4664,0.010,-0.005
4665,0.010,-0.010
4666,0.010,-0.005
4667,0.005,-0.005
4668,0.000,-0.005
4669,0.000,-0.010
4670,0.005,-0.015
4671,0.000,-0.015
4672,0.000,-0.015
4673,0.005,-0.015
4674,0.000,-0.015
4675,0.000,-0.015
4676,0.000,-0.015
4677,0.000,-0.015
4678,0.000,-0.020
4679,0.000,-0.035
4680,-0.005,-0.045
4681,-0.025,-0.030
4682,-0.005,0.000
4683,0.060,0.035
4684,0.170,0.090
4685,0.265,0.185
4686,0.295,0.305
4687,0.280,0.395
4688,0.200,0.305
4689,0.090,0.095
4690,0.015,-0.080
4691,-0.010,-0.170
4692,-0.030,-0.140
4693,-0.045,-0.100
4694,-0.050,-0.090
4695,-0.055,-0.090
4696,-0.055,-0.095
4697,-0.055,-0.095
4698,-0.055,-0.095
4699,-0.045,-0.085
4700,-0.045,-0.075
4701,-0.040,-0.075
4702,-0.040,-0.065
4703,-0.040,-0.060
4704,-0.035,-0.050
4705,-0.035,-0.035
4706,-0.035,-0.025
4707,-0.030,-0.010
4708,-0.030,0.000
4709,-0.025,0.000
4710,-0.025,0.000
4711,-0.030,0.005
4712,-0.030,0.015
4713,-0.030,0.020
4714,-0.030,0.025
4715,-0.030,0.025
4716,-0.030,0.035
4717,-0.030,0.035
4718,-0.030,0.035
4719,-0.030,0.035
4720,-0.035,0.030
4721,-0.035,0.030
4722,-0.035,0.025
4723,-0.035,0.020
4724,-0.035,0.015
4725,-0.030,0.015
4726,-0.025,0.010
4727,-0.020,0.000
4728,-0.015,0.000
4729,-0.015,0.000
4730,-0.015,0.000
4731,-0.015,0.000
4732,-0.015,0.000
4733,-0.015,0.000
4734,-0.015,0.000
4735,-0.015,0.000
4736,-0.015,0.000
4737,-0.010,0.000
4738,-0.010,0.000
4739,-0.010,0.000
4740,-0.010,0.000
4741,-0.010,0.000
4742,-0.010,0.000
4743,-0.010,0.000
4744,-0.010,0.000
4745,-0.005,0.000
4746,0.000,0.000
4747,0.000,0.000
4748,-0.005,0.000
4749,-0.005,0.000
4750,-0.010,0.000
4751,-0.010,0.000
4752,-0.010,0.000
4753,-0.005,0.000
4754,0.000,0.000
4755,0.000,-0.010
4756,0.000,-0.020
4757,0.000,-0.020
4758,0.000,-0.020
4759,0.000,-0.015
4760,0.000,-0.010
4761,0.005,-0.020
4762,0.005,-0.020
4763,0.000,-0.015
4764,0.000,-0.015
4765,0.000,-0.020
4766,0.000,-0.025
4767,0.005,-0.025
4768,0.005,-0.025
4769,0.000,-0.025
4770,0.000,-0.025
4771,0.000,-0.015
4772,0.000,-0.010
4773,0.000,-0.010
4774,0.000,-0.010
4775,0.000,-0.010
4776,0.000,-0.020
4777,-0.010,-0.025
4778,-0.035,-0.005
4779,0.000,0.015
4780,0.095,0.060
4781,0.215,0.115
4782,0.285,0.220
4783,0.305,0.350
4784,0.265,0.375
4785,0.165,0.225
4786,0.065,0.030
4787,0.005,-0.110
4788,-0.020,-0.145
4789,-0.035,-0.115
4790,-0.050,-0.090
4791,-0.055,-0.085
4792,-0.055,-0.085
4793,-0.055,-0.090
4794,-0.045,-0.090
4795,-0.040,-0.085
4796,-0.040,-0.080
4797,-0.040,-0.080
4798,-0.035,-0.075
4799,-0.035,-0.075
4800,-0.030,-0.065
4801,-0.030,-0.050
4802,-0.025,-0.040
4803,-0.015,-0.025
4804,-0.015,-0.015
4805,-0.015,-0.005
4806,-0.010,0.000
4807,-0.010,0.000
4808,-0.015,0.000
4809,-0.015,0.005
4810,-0.015,0.010
4811,-0.015,0.015
4812,-0.015,0.020
4813,-0.015,0.020
4814,-0.010,0.015
4815,-0.010,0.020
4816,-0.010,0.020
4817,-0.010,0.020
4818,-0.015,0.020
4819,-0.010,0.015
4820,-0.010,0.015
4821,-0.010,0.010
4822,-0.010,0.010
4823,-0.010,0.010
4824,-0.005,0.005
4825,-0.005,0.000
4826,-0.005,0.000
4827,0.000,0.000
4828,0.000,0.000
4829,0.000,0.000
4830,0.000,0.000
4831,0.000,0.000
4832,0.000,0.000
4833,0.000,0.000
4834,0.000,0.000
4835,0.000,0.000
4836,0.005,0.000
4837,0.005,0.000
4838,0.005,0.000
4839,0.005,0.000
4840,0.000,-0.005
4841,0.000,-0.005
4842,0.005,-0.010
4843,0.005,-0.010
4844,0.005,-0.005
4845,0.005,0.000
4846,0.000,0.000
4847,0.000,0.000
4848,0.000,0.000
4849,0.000,0.000
4850,0.005,0.000
4851,0.010,-0.010
4852,0.015,-0.015
4853,0.015,-0.025
4854,0.015,-0.030
4855,0.010,-0.025
4856,0.010,-0.015
4857,0.010,-0.020
4858,0.010,-0.025
4859,0.010,-0.025
4860,0.010,-0.020
4861,0.010,-0.020
4862,0.010,-0.030
4863,0.010,-0.030
4864,0.010,-0.030
4865,0.010,-0.025
4866,0.010,-0.025
4867,0.010,-0.025
4868,0.010,-0.025
4869,0.010,-0.020
4870,0.010,-0.020
4871,0.010,-0.020
4872,0.010,-0.030
4873,0.000,-0.035
4874,-0.020,-0.015
4875,0.000,0.005
4876,0.070,0.045
4877,0.180,0.090
4878,0.280,0.180
4879,0.315,0.305
4880,0.295,0.365
4881,0.215,0.265
4882,0.110,0.080
4883,0.035,-0.085
4884,0.000,-0.160
4885,-0.020,-0.145
4886,-0.030,-0.105
4887,-0.035,-0.085
4888,-0.040,-0.085
4889,-0.040,-0.095
4890,-0.035,-0.100
4891,-0.035,-0.095
4892,-0.035,-0.095
4893,-0.030,-0.090
4894,-0.030,-0.085
4895,-0.030,-0.075
4896,-0.025,-0.070
4897,-0.015,-0.060
4898,-0.015,-0.050
4899,-0.015,-0.040
4900,-0.010,-0.030
4901,-0.010,-0.005
4902,-0.010,0.000
4903,-0.010,0.000
4904,-0.010,0.000
4905,-0.010,0.005
4906,-0.010,0.010
4907,-0.010,0.010
4908,-0.010,0.015
4909,-0.010,0.020
4910,-0.010,0.020
4911,-0.015,0.020
4912,-0.015,0.025
4913,-0.015,0.020
4914,-0.020,0.015
4915,-0.020,0.005
4916,-0.025,0.005
4917,-0.020,0.005
4918,-0.015,0.000
4919,-0.015,0.000
4920,-0.015,0.000
4921,-0.015,0.000
4922,-0.015,0.000
4923,-0.015,0.000
4924,-0.015,0.000
4925,-0.015,0.000
4926,-0.010,0.000
4927,-0.010,0.000
4928,-0.010,0.000
4929,-0.010,0.000
4930,-0.010,0.000
4931,-0.010,0.000
4932,-0.010,0.000
4933,-0.010,0.000
4934,-0.005,0.000
4935,-0.005,0.000
4936,-0.005,0.000
4937,-0.005,-0.005
4938,-0.005,-0.005
4939,-0.005,-0.005
4940,-0.005,0.000
4941,-0.005,0.000
4942,-0.005,0.000
4943,-0.005,0.000
4944,-0.005,0.000
4945,0.000,-0.010
4946,0.000,-0.015
4947,0.000,-0.025
4948,0.005,-0.030
4949,0.005,-0.030
4950,0.005,-0.030
4951,0.005,-0.030
4952,0.005,-0.020
4953,0.005,-0.020
4954,0.010,-0.015
4955,0.010,-0.010
4956,0.010,-0.005
4957,0.010,-0.010
4958,0.010,-0.020
4959,0.010,-0.020
4960,0.010,-0.015
4961,0.010,-0.010
4962,0.010,-0.010
4963,0.010,-0.010
4964,0.010,-0.005
4965,0.005,-0.005
4966,0.005,0.000
4967,0.010,-0.005
4968,0.000,-0.015
4969,-0.010,-0.010
4970,-0.010,0.005
4971,0.030,0.040
4972,0.125,0.085
4973,0.235,0.150
4974,0.305,0.250
4975,0.315,0.355
4976,0.265,0.355
4977,0.170,0.195
4978,0.070,0.000
4979,0.010,-0.140
4980,-0.015,-0.170
4981,-0.030,-0.130
4982,-0.035,-0.100
4983,-0.040,-0.090
4984,-0.035,-0.090
4985,-0.035,-0.095
4986,-0.040,-0.090
4987,-0.035,-0.085
4988,-0.035,-0.080
4989,-0.030,-0.075
4990,-0.025,-0.070
4991,-0.025,-0.060
4992,-0.030,-0.055
4993,-0.025,-0.045
4994,-0.020,-0.035
4995,-0.015,-0.025
4996,-0.015,-0.020
4997,-0.010,-0.010
4998,-0.010,0.000
4999,-0.010,0.000
5000,-0.010,0.000
5001,-0.010,0.000
5002,-0.015,0.000
5003,-0.015,0.000
5004,-0.015,0.005
5005,-0.015,0.005
5006,-0.015,0.000
5007,-0.020,0.005
5008,-0.015,0.010
5009,-0.015,0.015
5010,-0.020,0.005
5011,-0.020,0.000
5012,-0.025,0.000
5013,-0.025,0.000
5014,-0.020,0.000
5015,-0.020,0.000
5016,-0.015,0.000
5017,-0.015,0.000
5018,-0.015,0.000
5019,-0.015,0.000
5020,-0.010,0.000
5021,-0.010,0.000
5022,-0.010,0.000
5023,-0.010,0.000
5024,-0.010,0.000
5025,-0.015,-0.005
5026,-0.010,-0.010
5027,-0.010,-0.010
5028,-0.010,-0.005
5029,-0.010,-0.015
5030,-0.015,-0.015
5031,-0.010,-0.010
5032,-0.010,-0.010
5033,-0.010,-0.025
5034,-0.010,-0.035
5035,-0.010,-0.030
5036,-0.015,-0.015
5037,-0.025,-0.025
5038,-0.030,-0.025
5039,-0.025,-0.025
5040,-0.025,-0.025
5041,-0.015,-0.030
5042,-0.015,-0.035
5043,-0.010,-0.050
5044,-0.010,-0.055
5045,-0.010,-0.070
5046,-0.010,-0.065
5047,-0.015,-0.045
5048,-0.010,-0.055
5049,-0.015,-0.060
5050,-0.015,-0.060
5051,-0.020,-0.055
5052,-0.020,-0.060
5053,-0.015,-0.065
5054,-0.015,-0.060
5055,-0.015,-0.060
5056,-0.020,-0.060
5057,-0.025,-0.055
5058,-0.025,-0.055
5059,-0.020,-0.045
5060,-0.025,-0.045
5061,-0.025,-0.050
5062,-0.025,-0.040
5063,-0.025,-0.045
5064,-0.040,-0.060
5065,-0.055,-0.060
5066,-0.050,-0.020
5067,0.030,0.015
5068,0.140,0.050
5069,0.240,0.140
5070,0.280,0.245
5071,0.265,0.330
5072,0.175,0.280
5073,0.070,0.080
5074,0.000,-0.120
5075,-0.045,-0.235
5076,-0.070,-0.195
5077,-0.080,-0.145
5078,-0.080,-0.120
5079,-0.085,-0.130
5080,-0.085,-0.135
5081,-0.085,-0.110
5082,-0.085,-0.125
5083,-0.085,-0.135
5084,-0.085,-0.115
5085,-0.080,-0.125
5086,-0.075,-0.120
5087,-0.075,-0.100
5088,-0.065,-0.125
5089,-0.060,-0.070
5090,-0.060,-0.040
5091,-0.055,-0.015
5092,-0.045,-0.020
5093,-0.050,-0.010
5094,-0.045,0.000
5095,-0.050,-0.005
5096,-0.045,-0.030
5097,-0.050,-0.025
5098,-0.050,0.000
5099,-0.050,0.010
5100,-0.055,0.010
5101,-0.050,0.000
5102,-0.045,0.000
5103,-0.050,-0.005
5104,-0.045,0.000
5105,-0.055,-0.005
5106,-0.055,-0.010
5107,-0.055,-0.005
5108,-0.045,-0.015
5109,-0.035,0.000
5110,-0.040,0.005
5111,-0.015,-0.100
5112,-0.020,-0.225
5113,-0.050,-0.105
5114,-0.030,-0.070
5115,-0.025,-0.030
5116,-0.035,0.000
5117,-0.030,-0.015
5118,-0.005,-0.140
5119,-0.035,-0.155
5120,-0.020,0.000
5121,-0.015,0.080
5122,-0.010,0.000
5123,-0.015,-0.120
5124,-0.020,-0.165
5125,-0.015,-0.060
5126,-0.015,-0.015
5127,0.000,-0.040
5128,0.000,-0.095
5129,-0.020,-0.090
5130,-0.005,-0.085
5131,-0.010,-0.075
5132,-0.015,-0.035
5133,-0.030,-0.010
5134,-0.020,-0.065
5135,-0.010,-0.080
5136,-0.005,-0.040
5137,-0.010,-0.020
5138,-0.010,-0.020
5139,-0.010,-0.050
5140,0.000,-0.090
5141,0.005,-0.085
5142,0.000,-0.060
5143,-0.005,-0.060
5144,0.000,-0.095
5145,0.000,-0.055
5146,0.000,0.000
5147,-0.005,-0.025
5148,0.000,-0.040
5149,0.000,-0.100
5150,0.000,-0.100
5151,-0.005,-0.070
5152,-0.005,-0.010
5153,-0.010,-0.050
5154,0.000,-0.065
5155,-0.015,0.000
5156,0.000,-0.005
5157,-0.020,-0.095
5158,-0.010,-0.115
5159,-0.015,-0.035
5160,-0.035,-0.085
5161,-0.070,-0.045
5162,0.005,0.045
5163,0.125,0.005
5164,0.275,0.130
5165,0.315,0.250
5166,0.290,0.310
5167,0.220,0.305
5168,0.115,0.135
5169,0.025,0.015
5170,-0.025,-0.100
5171,-0.040,-0.185
5172,-0.060,-0.185
5173,-0.080,-0.165
5174,-0.080,-0.060
5175,-0.080,-0.055
5176,-0.085,-0.090
5177,-0.075,-0.105
5178,-0.075,-0.095
5179,-0.070,-0.095
5180,-0.075,-0.095
5181,-0.070,-0.080
5182,-0.075,-0.040
5183,-0.080,-0.030
5184,-0.075,-0.035
5185,-0.065,-0.015
5186,-0.065,0.000
5187,-0.065,0.000
5188,-0.060,0.005
5189,-0.060,0.010
5190,-0.065,-0.005
5191,-0.075,0.015
5192,-0.080,0.045
5193,-0.080,0.025
5194,-0.080,0.005
5195,-0.085,0.010
5196,-0.085,0.025
5197,-0.085,0.040
5198,-0.085,0.055
5199,-0.090,0.035
5200,-0.095,0.030
5201,-0.105,0.015
5202,-0.110,0.010
5203,-0.110,0.020
5204,-0.105,0.040
5205,-0.105,0.055
5206,-0.105,0.030
5207,-0.105,0.020
5208,-0.105,0.000
5209,-0.095,0.000
5210,-0.100,0.000
5211,-0.105,0.005
5212,-0.095,0.015
5213,-0.090,0.000
5214,-0.085,0.000
5215,-0.085,-0.005
5216,-0.085,-0.005
5217,-0.090,-0.005
5218,-0.090,-0.005
5219,-0.090,-0.015
5220,-0.090,-0.025
5221,-0.085,-0.010
5222,-0.085,0.000
5223,-0.085,-0.005
5224,-0.090,-0.005
5225,-0.095,-0.005
5226,-0.090,-0.010
5227,-0.090,-0.005
5228,-0.105,0.000
5229,-0.100,0.000
5230,-0.090,0.000
5231,-0.080,0.000
5232,-0.075,0.000
5233,-0.065,0.000
5234,-0.065,0.000
5235,-0.060,-0.010
5236,-0.060,-0.005
5237,-0.060,0.000
5238,-0.060,0.000
5239,-0.055,0.000
5240,-0.055,0.000
5241,-0.055,0.000
5242,-0.055,0.000
5243,-0.055,0.000
5244,-0.050,-0.010
5245,-0.040,-0.010
5246,-0.040,-0.005
5247,-0.045,-0.005
5248,-0.045,-0.025
5249,-0.040,-0.035
5250,-0.040,0.000
5251,-0.040,-0.005
5252,-0.035,-0.020
5253,-0.035,-0.025
5254,-0.045,-0.030
5255,-0.080,-0.005
5256,-0.050,0.025
5257,0.045,0.070
5258,0.180,0.115
5259,0.270,0.190
5260,0.295,0.320
5261,0.255,0.410
5262,0.165,0.320
5263,0.070,0.115
5264,0.000,-0.055
5265,-0.040,-0.120
5266,-0.060,-0.105
5267,-0.070,-0.070
5268,-0.080,-0.055
5269,-0.080,-0.050
5270,-0.075,-0.045
5271,-0.065,-0.040
5272,-0.060,-0.040
5273,-0.055,-0.035
5274,-0.050,-0.025
5275,-0.045,-0.020
5276,-0.040,-0.020
5277,-0.040,0.000
5278,-0.035,0.000
5279,-0.030,0.000
5280,-0.030,0.005
5281,-0.030,0.020
5282,-0.025,0.025
5283,-0.025,0.045
5284,-0.025,0.045
5285,-0.025,0.035
5286,-0.025,0.045
5287,-0.020,0.050
5288,-0.020,0.035
5289,-0.025,0.045
5290,-0.030,0.050
5291,-0.030,0.050
5292,-0.025,0.045
5293,-0.025,0.045
5294,-0.030,0.045
5295,-0.020,0.045
5296,-0.020,0.050
5297,-0.025,0.045
5298,-0.020,0.035
5299,-0.015,0.035
5300,-0.015,0.020
5301,-0.015,0.010
5302,-0.015,0.005
5303,-0.015,0.010
5304,-0.015,0.005
5305,-0.015,0.010
5306,-0.010,0.010
5307,-0.010,0.010
5308,-0.010,0.005
5309,-0.020,0.010
5310,-0.035,0.045
5311,-0.055,0.085
5312,-0.075,0.140
5313,-0.090,0.210
5314,-0.105,0.255
5315,-0.125,0.275
5316,-0.150,0.270
5317,-0.175,0.260
5318,-0.205,0.275
5319,-0.225,0.340
5320,-0.255,0.370
5321,-0.295,0.290
5322,-0.320,0.195
5323,-0.280,0.105
5324,-0.160,0.035
5325,-0.035,-0.005
5326,0.040,-0.060
5327,0.080,-0.135
5328,0.105,-0.180
5329,0.115,-0.195
5330,0.130,-0.210
5331,0.135,-0.220
5332,0.140,-0.215
5333,0.140,-0.210
5334,0.140,-0.205
5335,0.135,-0.195
5336,0.135,-0.195
5337,0.135,-0.195
5338,0.135,-0.185
5339,0.135,-0.185
5340,0.130,-0.180
5341,0.130,-0.180
5342,0.130,-0.170
5343,0.120,-0.160
5344,0.115,-0.170
5345,0.115,-0.160
5346,0.110,-0.155
5347,0.105,-0.150
5348,0.095,-0.135
5349,0.085,-0.120
5350,0.085,-0.105
5351,0.080,-0.090
5352,0.070,-0.075
5353,0.065,-0.070
5354,0.055,-0.065
5355,0.045,-0.050
5356,0.035,-0.035
5357,0.030,-0.030
5358,0.020,-0.025
5359,0.010,-0.025
5360,0.005,-0.020
5361,0.000,-0.015
5362,0.000,-0.005
5363,0.000,0.000
5364,-0.005,0.000
5365,-0.005,0.000
5366,-0.005,0.000
5367,-0.005,0.000
5368,-0.005,0.000
5369,-0.005,0.000
5370,-0.005,0.000
5371,-0.005,0.000
5372,0.000,0.005
5373,0.000,0.000
5374,0.000,0.000
5375,0.000,0.000
5376,0.000,0.000
5377,0.000,0.000
5378,0.000,0.000
5379,0.000,0.000
5380,0.000,0.000
5381,0.000,0.000
5382,0.000,0.000
5383,0.000,0.000
5384,0.000,0.000
5385,0.000,0.000
5386,0.005,0.000
5387,0.005,0.000
5388,0.005,0.000
5389,0.005,0.000
5390,0.005,0.000
5391,0.005,0.000
5392,0.005,0.000
5393,0.005,0.000
5394,0.010,0.000
5395,0.010,0.000
5396,0.010,0.000
5397,0.010,0.000
5398,0.010,0.000
5399,0.010,0.000
5400,0.010,0.000
5401,0.010,0.000
5402,0.010,0.000
5403,0.010,0.000
5404,0.010,0.000
5405,0.010,0.000
5406,0.010,0.000
5407,0.010,0.000
5408,0.010,0.000
5409,0.010,0.000
5410,0.010,0.000
5411,0.010,0.000
5412,0.010,0.000
5413,0.010,0.000
5414,0.010,0.000
5415,0.010,0.000
5416,0.010,0.000
5417,0.010,0.000
5418,0.010,0.000
5419,0.010,0.000
5420,0.015,0.000
5421,0.010,0.000
5422,0.010,0.000
5423,0.010,0.005
5424,0.010,0.015
5425,0.005,0.025
5426,0.005,0.025
5427,0.000,0.020
5428,0.000,0.025
5429,0.010,0.020
5430,0.015,0.010
5431,0.015,0.000
5432,0.020,0.000
5433,0.025,0.000
5434,0.020,0.000
5435,0.020,0.005
5436,0.025,0.010
5437,0.030,0.010
5438,0.030,0.015
5439,0.030,0.010
5440,0.030,0.005
5441,0.030,0.000
5442,0.030,0.000
5443,0.030,0.000
5444,0.030,0.000
5445,0.030,0.000
5446,0.030,0.000
5447,0.030,0.000
5448,0.025,0.000
5449,0.025,0.000
5450,0.025,0.000
5451,0.010,0.000
5452,0.000,0.005
5453,0.015,0.045
5454,0.105,0.085
5455,0.225,0.120
5456,0.320,0.215
5457,0.345,0.335
5458,0.305,0.375
5459,0.210,0.235
5460,0.115,0.040
5461,0.035,-0.110
5462,0.010,-0.140
5463,0.000,-0.090
5464,-0.005,-0.060
5465,-0.010,-0.055
5466,-0.010,-0.055
5467,-0.010,-0.055
5468,-0.010,-0.050
5469,-0.010,-0.050
5470,-0.005,-0.045
5471,-0.005,-0.025
5472,0.000,-0.025
5473,0.000,-0.020
5474,0.000,-0.005
5475,0.000,0.000
5476,0.000,0.005
5477,0.000,0.000
5478,0.005,0.010
5479,0.005,0.020
5480,0.005,0.035
5481,0.010,0.045
5482,0.010,0.045
5483,0.010,0.045
5484,0.010,0.035
5485,0.005,0.030
5486,0.000,0.035
5487,0.000,0.030
5488,0.000,0.035
5489,0.005,0.030
5490,0.005,0.010
5491,0.000,0.025
5492,-0.005,0.050
5493,-0.005,0.040
5494,0.000,0.005
5495,0.000,0.030
5496,-0.010,0.020
5497,-0.005,0.040
5498,-0.025,0.005
5499,-0.025,0.065
5500,-0.030,0.085
5501,-0.035,0.000
5502,-0.035,0.010
5503,-0.030,0.000
5504,-0.035,0.000
5505,-0.030,0.040
5506,-0.025,0.000
5507,-0.035,0.000
5508,-0.035,0.000
5509,-0.040,-0.075
5510,-0.035,-0.135
5511,-0.030,-0.060
5512,-0.035,-0.060
5513,-0.020,-0.070
5514,-0.025,-0.065
5515,-0.035,-0.095
5516,-0.025,-0.130
5517,-0.025,-0.090
5518,-0.010,-0.095
5519,0.000,-0.095
5520,0.000,-0.155
5521,0.005,-0.185
5522,0.000,-0.190
5523,-0.005,-0.165
5524,-0.005,-0.070
5525,0.000,0.005
5526,0.010,0.015
5527,0.010,0.000
5528,0.025,-0.020
5529,0.030,0.000
5530,0.035,0.015
5531,0.025,-0.040
5532,0.020,-0.045
5533,0.020,-0.015
5534,0.020,0.000
5535,0.050,-0.035
5536,0.000,-0.065
5537,0.005,-0.015
5538,0.030,-0.020
5539,0.010,-0.085
5540,0.010,-0.105
5541,0.010,0.005
5542,0.005,-0.010
5543,0.000,-0.095
5544,0.005,-0.070
5545,0.005,-0.100
5546,0.000,-0.045
5547,0.000,-0.055
5548,0.000,-0.110
5549,-0.015,-0.070
5550,-0.055,-0.035
5551,0.000,0.005
5552,0.110,0.045
5553,0.235,0.095
5554,0.305,0.245
5555,0.320,0.385
5556,0.245,0.325
5557,0.160,0.140
5558,0.055,-0.045
5559,-0.010,-0.110
5560,-0.030,-0.080
5561,-0.050,-0.080
5562,-0.060,-0.070
5563,-0.065,-0.055
5564,-0.065,-0.040
5565,-0.065,-0.055
5566,-0.060,-0.060
5567,-0.055,-0.070
5568,-0.050,-0.045
5569,-0.045,-0.010
5570,-0.055,-0.030
5571,-0.055,-0.085
5572,-0.055,-0.090
5573,-0.055,-0.025
5574,-0.050,-0.005
5575,-0.045,0.005
5576,-0.040,0.000
5577,-0.025,-0.055
5578,-0.025,-0.070
5579,-0.035,-0.110
5580,-0.045,-0.070
5581,-0.040,0.035
5582,-0.035,0.095
5583,-0.035,0.000
5584,-0.055,0.015
5585,-0.050,0.055
5586,-0.050,0.010
5587,-0.065,0.005
5588,-0.035,-0.015
5589,-0.035,0.080
5590,-0.050,0.010
5591,-0.055,0.015
5592,-0.060,0.005
5593,-0.035,0.005
5594,-0.045,-0.025
5595,-0.055,0.010
5596,-0.050,0.000
5597,-0.040,0.015
5598,-0.025,0.000
5599,-0.055,0.000
5600,-0.050,-0.025
5601,-0.040,-0.005
5602,-0.040,-0.010
5603,-0.045,0.000
5604,-0.050,0.010
5605,-0.030,0.000
5606,-0.025,-0.010
5607,-0.035,-0.005
5608,-0.040,0.000
5609,-0.040,0.000
5610,-0.040,-0.005
5611,-0.035,-0.010
5612,-0.025,0.005
5613,-0.025,0.015
5614,-0.035,0.015
5615,-0.035,0.010
5616,-0.035,0.010
5617,-0.045,0.020
5618,-0.040,0.015
5619,-0.035,0.005
5620,-0.030,0.015
5621,-0.025,0.045
5622,-0.015,0.045
5623,-0.015,0.015
5624,-0.010,0.000
5625,-0.010,0.000
5626,-0.015,0.000
5627,-0.015,-0.005
5628,-0.015,0.000
5629,-0.015,0.000
5630,-0.010,0.000
5631,-0.010,0.000
5632,-0.025,0.000
5633,-0.020,-0.010
5634,-0.015,-0.020
5635,-0.015,0.000
5636,-0.020,0.000
5637,-0.020,-0.010
5638,-0.005,-0.010
5639,-0.010,-0.040
5640,-0.025,-0.065
5641,-0.025,-0.010
5642,-0.015,0.015
5643,-0.025,0.000
5644,-0.045,-0.020
5645,-0.050,-0.005
5646,0.015,0.025
5647,0.140,0.075
5648,0.250,0.155
5649,0.305,0.260
5650,0.280,0.370
5651,0.205,0.335
5652,0.105,0.140
5653,0.020,-0.035
5654,-0.025,-0.115
5655,-0.050,-0.150
5656,-0.055,-0.140
5657,-0.070,-0.100
5658,-0.075,-0.075
5659,-0.070,-0.055
5660,-0.060,-0.065
5661,-0.055,-0.085
5662,-0.055,-0.085
5663,-0.040,-0.090
5664,-0.020,-0.190
5665,-0.020,-0.190
5666,-0.030,-0.145
5667,-0.025,-0.050
5668,-0.015,-0.010
5669,-0.025,-0.030
5670,-0.030,0.000
5671,-0.015,-0.010
5672,-0.030,-0.005
5673,-0.005,0.035
5674,-0.035,0.030
5675,-0.025,0.000
5676,0.000,0.020
5677,-0.020,0.000
5678,-0.025,0.000
5679,-0.020,0.055
5680,-0.035,0.010
5681,-0.020,0.020
5682,-0.025,0.070
5683,-0.040,0.065
5684,-0.035,0.055
5685,-0.035,0.015
5686,-0.040,0.015
5687,-0.025,0.030
5688,-0.030,0.030
5689,-0.045,0.035
5690,-0.030,0.020
5691,-0.025,0.010
5692,-0.035,0.020
5693,-0.030,0.020
5694,-0.030,0.010
5695,-0.035,0.010
5696,-0.030,0.005
5697,-0.030,0.000
5698,-0.035,0.000
5699,-0.030,-0.005
5700,-0.030,0.000
5701,-0.025,0.000
5702,-0.025,-0.005
5703,-0.030,-0.015
5704,-0.030,-0.005
5705,-0.025,0.000
5706,-0.020,-0.010
5707,-0.015,-0.010
5708,-0.015,0.000
5709,-0.020,0.000
5710,-0.020,0.005
5711,-0.020,0.025
5712,-0.015,0.020
5713,-0.015,0.010
5714,-0.005,0.015
5715,0.000,0.005
5716,0.000,0.000
5717,0.000,0.000
5718,0.000,0.000
5719,0.000,0.010
5720,0.000,0.045
5721,0.000,0.030
5722,0.000,0.015
5723,0.000,0.000
5724,0.000,0.020
5725,0.000,0.035
5726,0.005,0.015
5727,0.005,0.010
5728,0.005,0.000
5729,0.005,0.000
5730,0.005,0.000
5731,0.005,0.000
5732,0.005,0.000
5733,0.005,0.000
5734,0.000,0.000
5735,0.000,0.000
5736,0.000,0.000
5737,-0.010,-0.005
5738,-0.030,0.000
5739,0.000,0.030
5740,0.090,0.075
5741,0.215,0.120
5742,0.305,0.200
5743,0.335,0.305
5744,0.295,0.370
5745,0.200,0.270
5746,0.100,0.090
5747,0.030,-0.065
5748,0.000,-0.130
5749,-0.020,-0.110
5750,-0.035,-0.070
5751,-0.030,-0.050
5752,-0.030,-0.045
5753,-0.030,-0.045
5754,-0.030,-0.055
5755,-0.030,-0.055
5756,-0.025,-0.045
5757,-0.015,-0.050
5758,-0.015,-0.030
5759,-0.015,-0.030
5760,-0.015,-0.035
5761,-0.010,-0.040
5762,-0.010,-0.005
5763,-0.005,0.000
5764,-0.005,0.000
5765,-0.005,0.010
5766,-0.005,0.015
5767,-0.005,0.010
5768,-0.005,0.025
5769,-0.005,0.030
5770,-0.005,0.035
5771,-0.005,0.035
5772,-0.005,0.025
5773,-0.005,0.020
5774,-0.010,0.020
5775,-0.015,0.020
5776,-0.015,0.020
5777,-0.015,0.020
5778,-0.010,0.020
5779,-0.010,0.020
5780,-0.015,0.010
5781,-0.015,0.010
5782,-0.015,0.015
5783,-0.010,0.025
5784,-0.005,0.010
5785,-0.005,0.000
5786,-0.005,0.000
5787,-0.005,0.000
5788,-0.005,0.000
5789,-0.005,0.000
5790,-0.005,0.000
5791,0.000,0.000
5792,0.000,0.000
5793,0.000,0.000
5794,0.000,0.000
5795,0.000,-0.010
5796,0.000,-0.010
5797,0.000,-0.005
5798,0.000,-0.015
5799,0.000,-0.015
5800,0.000,-0.020
5801,0.000,-0.015
5802,0.000,-0.010
5803,0.000,-0.005
5804,0.000,0.000
5805,0.000,-0.010
5806,0.000,-0.005
5807,0.000,0.000
5808,0.000,0.000
5809,0.000,0.000
5810,0.005,0.000
5811,0.010,0.000
5812,0.015,-0.010
5813,0.015,-0.010
5814,0.015,0.000
5815,0.015,0.000
5816,0.015,-0.005
5817,0.015,-0.010
5818,0.020,-0.005
5819,0.020,-0.005
5820,0.015,-0.005
5821,0.015,-0.005
5822,0.015,-0.010
5823,0.015,-0.020
5824,0.015,-0.020
5825,0.020,-0.015
5826,0.015,-0.015
5827,0.015,-0.020
5828,0.015,-0.015
5829,0.020,-0.010
5830,0.015,-0.020
5831,0.010,-0.025
5832,0.000,-0.025
5833,-0.010,0.000
5834,0.025,0.030
5835,0.135,0.065
5836,0.250,0.095
5837,0.330,0.195
5838,0.345,0.315
5839,0.290,0.315
5840,0.190,0.160
5841,0.090,-0.030
5842,0.025,-0.150
5843,0.000,-0.165
5844,-0.005,-0.115
5845,-0.015,-0.075
5846,-0.015,-0.075
5847,-0.015,-0.075
5848,-0.010,-0.080
5849,-0.010,-0.080
5850,-0.010,-0.075
5851,-0.005,-0.085
5852,0.000,-0.065
5853,0.000,-0.050
5854,0.000,-0.050
5855,0.000,-0.040
5856,0.000,-0.020
5857,0.000,-0.015
5858,0.000,-0.005
5859,0.000,0.000
5860,0.000,0.000
5861,0.000,0.000
5862,0.005,0.005
5863,0.005,0.015
5864,0.005,0.015
5865,0.005,0.015
5866,0.000,0.015
5867,0.000,0.015
5868,0.000,0.020
5869,0.000,0.020
5870,0.000,0.015
5871,0.000,0.020
5872,0.000,0.020
5873,0.000,0.025
5874,0.000,0.025
5875,0.000,0.020
5876,0.000,0.015
5877,0.005,0.010
5878,0.005,0.005
5879,0.005,0.005
5880,0.010,0.000
5881,0.010,0.000
5882,0.010,0.000
5883,0.015,0.000
5884,0.015,0.000
5885,0.015,0.000
5886,0.015,0.000
5887,0.020,0.000
5888,0.015,-0.005
5889,0.015,0.000
5890,0.020,0.000
5891,0.020,0.000
5892,0.025,-0.005
5893,0.030,-0.010
5894,0.030,-0.005
5895,0.030,-0.005
5896,0.030,-0.010
5897,0.030,-0.010
5898,0.030,0.000
5899,0.030,0.000
5900,0.030,0.000
5901,0.030,0.000
5902,0.030,0.000
5903,0.035,0.000
5904,0.040,0.000
5905,0.045,0.000
5906,0.050,-0.005
5907,0.055,-0.010
5908,0.055,-0.010
5909,0.055,0.000
5910,0.055,0.000
5911,0.055,-0.010
5912,0.055,-0.005
5913,0.055,-0.005
5914,0.055,0.000
5915,0.055,-0.005
5916,0.055,-0.015
5917,0.055,-0.015
5918,0.055,-0.015
5919,0.055,-0.020
5920,0.060,-0.020
5921,0.055,-0.015
5922,0.055,-0.010
5923,0.055,-0.010
5924,0.055,-0.020
5925,0.055,-0.015
5926,0.050,-0.020
5927,0.025,-0.015
5928,0.000,0.000
5929,0.055,0.055
5930,0.170,0.080
5931,0.300,0.120
5932,0.365,0.220
5933,0.375,0.340
5934,0.310,0.290
5935,0.205,0.115
5936,0.115,-0.050
5937,0.055,-0.135
5938,0.025,-0.125
5939,0.015,-0.080
5940,0.010,-0.060
5941,0.010,-0.060
5942,0.010,-0.060
5943,0.010,-0.060
5944,0.010,-0.060
5945,0.010,-0.055
5946,0.010,-0.050
5947,0.015,-0.050
5948,0.015,-0.040
5949,0.020,-0.035
5950,0.025,-0.025
5951,0.030,-0.010
5952,0.035,-0.005
5953,0.040,0.000
5954,0.040,0.000
5955,0.050,0.000
5956,0.055,0.000
5957,0.055,0.010
5958,0.050,0.015
5959,0.050,0.025
5960,0.045,0.025
5961,0.040,0.025
5962,0.040,0.030
5963,0.040,0.035
5964,0.035,0.035
5965,0.035,0.035
5966,0.035,0.035
5967,0.030,0.030
5968,0.030,0.030
5969,0.030,0.030
5970,0.030,0.025
5971,0.030,0.020
5972,0.030,0.010
5973,0.035,0.005
5974,0.035,0.005
5975,0.035,0.000
5976,0.030,0.000
5977,0.030,0.000
5978,0.030,0.000
5979,0.030,0.000
5980,0.030,0.000
5981,0.030,0.000
5982,0.030,0.000
5983,0.030,0.000
5984,0.030,0.000
5985,0.030,0.000
5986,0.030,0.000
5987,0.030,0.000
5988,0.030,0.000
5989,0.030,0.000
5990,0.030,0.000
5991,0.030,0.000
5992,0.030,0.000
5993,0.020,0.000
5994,0.015,0.000
5995,0.015,0.000
5996,0.015,0.000
5997,0.015,0.000
5998,0.025,0.000
5999,0.035,0.000
6000,0.035,0.000
6001,0.035,-0.010
6002,0.035,-0.005
6003,0.035,0.000
6004,0.035,0.000
6005,0.035,-0.010
6006,0.035,-0.010
6007,0.035,-0.005
6008,0.035,0.000
6009,0.035,-0.010
6010,0.035,-0.015
6011,0.035,-0.015
6012,0.035,-0.010
6013,0.035,-0.010
6014,0.035,-0.010
6015,0.035,-0.010
6016,0.035,-0.010
6017,0.035,-0.010
6018,0.035,-0.005
6019,0.030,-0.005
6020,0.025,-0.025
6021,0.005,-0.020
6022,-0.010,0.000
6023,0.020,0.040
6024,0.115,0.060
6025,0.230,0.115
6026,0.310,0.205
6027,0.335,0.310
6028,0.285,0.275
6029,0.190,0.125
6030,0.095,-0.035
6031,0.040,-0.145
6032,0.005,-0.150
6033,0.000,-0.105
6034,-0.005,-0.080
6035,-0.010,-0.075
6036,-0.010,-0.070
6037,-0.010,-0.070
6038,-0.010,-0.075
6039,-0.010,-0.075
6040,-0.005,-0.070
6041,-0.005,-0.070
6042,-0.005,-0.065
6043,0.000,-0.055
6044,0.000,-0.045
6045,0.000,-0.035
6046,0.000,-0.025
6047,0.005,-0.015
6048,0.000,-0.005
6049,0.000,0.000
6050,0.005,0.000
6051,0.005,0.000
6052,0.000,0.000
6053,0.000,0.000
6054,0.000,0.000
6055,0.000,0.005
6056,0.000,0.010
6057,0.000,0.015
6058,0.000,0.015
6059,0.000,0.015
6060,0.000,0.015
6061,0.000,0.020
6062,-0.005,0.020
6063,0.000,0.020
6064,0.000,0.015
6065,-0.005,0.015
6066,0.000,0.015
6067,0.000,0.010
6068,0.000,0.005
6069,0.000,0.005
6070,0.000,0.005
6071,0.000,0.000
6072,0.000,0.000
6073,0.000,0.000
6074,0.000,0.000
6075,0.000,0.000
6076,0.000,0.000
6077,0.000,0.000
6078,0.000,0.000
6079,0.000,0.000
6080,0.005,0.000
6081,0.005,0.000
6082,0.005,0.000
6083,0.005,0.000
6084,0.005,0.000
6085,0.005,0.000
6086,0.005,0.000
6087,0.000,0.000
6088,0.000,0.000
6089,0.000,0.000
6090,0.000,0.000
6091,0.000,0.000
6092,0.005,0.000
6093,0.010,0.000
6094,0.015,-0.010
6095,0.015,-0.015
6096,0.015,-0.015
6097,0.015,-0.005
6098,0.015,-0.005
6099,0.015,-0.010
6100,0.015,-0.010
6101,0.015,-0.005
6102,0.015,-0.005
6103,0.015,-0.005
6104,0.015,-0.010
6105,0.020,-0.015
6106,0.020,-0.015
6107,0.020,-0.015
6108,0.015,-0.020
6109,0.015,-0.020
6110,0.015,-0.015
6111,0.015,-0.015
6112,0.015,-0.015
6113,0.015,-0.015
6114,0.015,-0.025
6115,0.000,-0.030
6116,-0.015,-0.010
6117,-0.005,0.025
6118,0.065,0.050
6119,0.175,0.085
6120,0.275,0.160
6121,0.315,0.265
6122,0.300,0.305
6123,0.225,0.205
6124,0.120,0.035
6125,0.045,-0.105
6126,0.005,-0.150
6127,-0.005,-0.120
6128,-0.020,-0.080
6129,-0.030,-0.060
6130,-0.030,-0.060
6131,-0.030,-0.060
6132,-0.030,-0.065
6133,-0.025,-0.060
6134,-0.015,-0.055
6135,-0.015,-0.055
6136,-0.010,-0.050
6137,-0.010,-0.045
6138,-0.010,-0.035
6139,-0.005,-0.030
6140,-0.005,-0.025
6141,0.000,-0.015
6142,0.000,-0.005
6143,0.000,0.000
6144,0.000,0.000
6145,0.000,0.000
6146,0.000,0.000
6147,0.000,0.005
6148,0.000,0.010
6149,0.000,0.015
6150,0.000,0.020
6151,-0.005,0.025
6152,-0.005,0.030
6153,-0.005,0.035
6154,-0.005,0.030
6155,-0.010,0.030
6156,-0.010,0.030
6157,-0.010,0.025
6158,-0.010,0.025
6159,-0.010,0.020
6160,-0.005,0.015
6161,-0.005,0.010
6162,-0.005,0.005
6163,-0.005,0.005
6164,0.000,0.000
6165,0.000,0.000
6166,-0.005,0.000
6167,0.000,0.000
6168,0.000,0.000
6169,0.000,0.000
6170,0.000,0.000
6171,0.000,0.000
6172,0.000,0.000
6173,0.000,0.000
6174,0.000,0.000
6175,0.000,0.000
6176,0.000,0.000
6177,0.000,0.000
6178,0.000,0.000
6179,0.000,0.000
6180,0.000,0.000
6181,0.000,0.000
6182,0.000,0.000
6183,0.000,0.000
6184,0.000,0.000
6185,0.000,0.000
6186,0.000,0.000
6187,0.000,0.000
6188,0.005,0.000
6189,0.010,0.000
6190,0.010,0.000
6191,0.010,0.000
6192,0.010,0.000
6193,0.010,0.000
6194,0.010,0.000
6195,0.010,0.000
6196,0.010,0.000
6197,0.015,0.000
6198,0.015,0.000
6199,0.015,0.000
6200,0.015,-0.005
6201,0.010,-0.010
6202,0.010,-0.010
6203,0.015,-0.010
6204,0.015,-0.010
6205,0.010,-0.010
6206,0.010,-0.010
6207,0.010,-0.010
6208,0.010,-0.010
6209,0.005,-0.020
6210,0.000,-0.025
6211,-0.015,-0.005
6212,0.005,0.025
6213,0.090,0.060
6214,0.200,0.105
6215,0.290,0.195
6216,0.320,0.295
6217,0.290,0.320
6218,0.200,0.185
6219,0.095,0.010
6220,0.025,-0.115
6221,0.000,-0.150
6222,-0.015,-0.105
6223,-0.025,-0.065
6224,-0.030,-0.060
6225,-0.030,-0.060
6226,-0.030,-0.060
6227,-0.025,-0.060
6228,-0.025,-0.060
6229,-0.020,-0.060
6230,-0.015,-0.060
6231,-0.015,-0.055
6232,-0.010,-0.045
6233,-0.010,-0.035
6234,-0.005,-0.030
6235,-0.005,-0.020
6236,-0.005,-0.010
6237,-0.005,0.000
6238,0.000,0.000
6239,0.000,0.000
6240,0.000,0.000
6241,0.000,0.000
6242,0.000,0.015
6243,-0.005,0.020
6244,-0.005,0.025
6245,-0.005,0.030
6246,-0.005,0.035
6247,-0.010,0.035
6248,-0.010,0.040
6249,-0.010,0.045
6250,-0.010,0.040
6251,-0.015,0.040
6252,-0.015,0.040
6253,-0.015,0.040
6254,-0.010,0.035
6255,-0.010,0.030
6256,-0.010,0.025
6257,-0.010,0.020
6258,-0.010,0.020
6259,-0.010,0.015
6260,-0.005,0.015
6261,-0.005,0.015
6262,-0.005,0.015
6263,-0.005,0.005
6264,-0.005,0.000
6265,-0.005,0.000
6266,-0.005,0.005
6267,-0.005,0.005
6268,0.000,0.000
6269,0.000,0.000
6270,0.000,0.000
6271,0.000,0.000
6272,0.000,0.000
6273,0.000,0.000
6274,0.000,0.000
6275,0.000,0.000
6276,0.000,0.000
6277,0.000,0.000
6278,0.000,0.000
6279,0.000,0.005
6280,0.000,0.010
6281,0.000,0.015
6282,0.000,0.005
6283,0.005,0.000
6284,0.010,0.000
6285,0.010,0.000
6286,0.010,0.000
6287,0.010,0.000
6288,0.010,0.000
6289,0.010,0.000
6290,0.015,0.000
6291,0.015,0.000
6292,0.010,0.000
6293,0.010,0.000
6294,0.010,0.000
6295,0.010,0.000
6296,0.010,0.000
6297,0.010,0.000
6298,0.010,0.000
6299,0.015,0.000
6300,0.010,0.000
6301,0.015,0.000
6302,0.015,0.000
6303,0.010,0.000
6304,0.005,-0.005
6305,0.000,-0.020
6306,-0.015,0.000
6307,0.000,0.030
6308,0.075,0.075
6309,0.190,0.090
6310,0.290,0.170
6311,0.320,0.295
6312,0.300,0.355
6313,0.215,0.225
6314,0.105,0.035
6315,0.030,-0.110
6316,0.000,-0.150
6317,-0.010,-0.115
6318,-0.020,-0.070
6319,-0.025,-0.060
6320,-0.030,-0.060
6321,-0.030,-0.065
6322,-0.030,-0.065
6323,-0.025,-0.055
6324,-0.025,-0.040
6325,-0.015,-0.040
6326,-0.015,-0.045
6327,-0.010,-0.045
6328,-0.010,-0.035
6329,-0.010,-0.025
6330,-0.005,-0.015
6331,-0.005,0.000
6332,-0.005,0.000
6333,-0.005,0.000
6334,-0.005,0.005
6335,0.000,0.015
6336,0.000,0.025
6337,0.000,0.030
6338,0.000,0.035
6339,-0.005,0.040
6340,-0.005,0.045
6341,-0.005,0.045
6342,-0.010,0.045
6343,-0.010,0.050
6344,-0.010,0.050
6345,-0.010,0.050
6346,-0.015,0.040
6347,-0.010,0.040
6348,-0.010,0.035
6349,-0.010,0.030
6350,-0.010,0.025
6351,-0.010,0.025
6352,-0.010,0.020
6353,-0.010,0.020
6354,-0.010,0.015
6355,-0.005,0.015
6356,-0.005,0.010
6357,-0.005,0.005
6358,-0.005,0.000
6359,-0.005,0.000
6360,-0.005,0.000
6361,-0.005,0.000
6362,-0.005,0.000
6363,-0.005,0.000
6364,-0.005,0.000
6365,-0.005,0.000
6366,-0.005,0.000
6367,0.000,0.000
6368,0.000,0.000
6369,0.000,0.000
6370,0.000,-0.005
6371,0.000,0.000
6372,0.000,0.000
6373,0.000,0.000
6374,-0.005,0.000
6375,-0.005,0.000
6376,-0.005,0.000
6377,0.000,0.000
6378,0.000,0.000
6379,0.005,0.000
6380,0.005,0.000
6381,0.010,0.000
6382,0.005,0.000
6383,0.005,0.000
6384,0.005,0.000
6385,0.010,0.000
6386,0.010,0.000
6387,0.010,0.000
6388,0.010,0.000
6389,0.010,0.000
6390,0.010,-0.010
6391,0.010,-0.010
6392,0.010,-0.005
6393,0.010,-0.005
6394,0.005,-0.015
6395,0.005,-0.010
6396,0.010,-0.010
6397,0.010,-0.010
6398,0.010,-0.010
6399,0.005,-0.020
6400,0.000,-0.035
6401,-0.010,-0.030
6402,-0.025,0.000
6403,0.030,0.035
6404,0.135,0.065
6405,0.250,0.140
6406,0.305,0.245
6407,0.310,0.350
6408,0.245,0.290
6409,0.145,0.125
6410,0.055,-0.045
6411,0.005,-0.140
6412,-0.010,-0.130
6413,-0.025,-0.090
6414,-0.030,-0.060
6415,-0.035,-0.060
6416,-0.030,-0.060
6417,-0.030,-0.065
6418,-0.035,-0.060
6419,-0.035,-0.060
6420,-0.030,-0.060
6421,-0.030,-0.055
6422,-0.025,-0.050
6423,-0.020,-0.045
6424,-0.015,-0.035
6425,-0.015,-0.025
6426,-0.010,-0.015
6427,-0.010,-0.005
6428,-0.010,0.000
6429,-0.010,0.000
6430,-0.010,0.000
6431,-0.010,0.015
6432,-0.010,0.020
6433,-0.010,0.025
6434,-0.010,0.030
6435,-0.010,0.035
6436,-0.010,0.035
6437,-0.015,0.045
6438,-0.015,0.045
6439,-0.015,0.045
6440,-0.015,0.045
6441,-0.015,0.045
6442,-0.015,0.045
6443,-0.015,0.045
6444,-0.015,0.045
6445,-0.020,0.045
6446,-0.020,0.040
6447,-0.015,0.035
6448,-0.015,0.030
6449,-0.015,0.025
6450,-0.015,0.025
6451,-0.015,0.020
6452,-0.015,0.015
6453,-0.010,0.015
6454,-0.010,0.010
6455,-0.010,0.010
6456,-0.010,0.000
6457,-0.010,0.000
6458,-0.010,0.000
6459,-0.010,0.000
6460,-0.010,0.000
6461,-0.005,0.000
6462,-0.005,0.000
6463,-0.005,0.000
6464,-0.005,0.000
6465,-0.005,0.000
6466,-0.005,0.000
6467,-0.005,0.000
6468,-0.005,0.000
6469,-0.010,0.005
6470,-0.010,0.005
6471,-0.005,0.005
6472,0.000,0.000
6473,0.000,0.000
6474,0.000,0.000
6475,0.000,0.000
6476,0.000,0.000
6477,0.000,0.000
6478,0.005,0.000
6479,0.005,0.000
6480,0.005,0.000
6481,0.000,0.000
6482,0.000,0.000
6483,0.005,0.000
6484,0.005,0.000
6485,0.005,0.000
6486,0.005,0.000
6487,0.005,0.000
6488,0.005,0.000
6489,0.000,0.000
6490,0.000,0.000
6491,0.005,0.000
6492,0.000,0.000
6493,0.000,0.000
6494,0.000,0.000
6495,0.000,0.000
6496,-0.025,0.005
6497,-0.020,0.035
6498,0.035,0.085
6499,0.145,0.120
6500,0.245,0.190
6501,0.300,0.300
6502,0.295,0.375
6503,0.225,0.310
6504,0.125,0.145
6505,0.040,-0.020
6506,0.000,-0.110
6507,-0.020,-0.110
6508,-0.035,-0.080
6509,-0.040,-0.060
6510,-0.045,-0.050
6511,-0.040,-0.050
6512,-0.040,-0.055
6513,-0.040,-0.065
6514,-0.040,-0.070
6515,-0.040,-0.065
6516,-0.040,-0.065
6517,-0.035,-0.070
6518,-0.030,-0.065
6519,-0.025,-0.060
6520,-0.020,-0.055
6521,-0.020,-0.050
6522,-0.015,-0.050
6523,-0.015,-0.045
6524,-0.015,-0.035
6525,-0.015,-0.025
6526,-0.015,-0.010
6527,-0.015,0.000
6528,-0.015,0.005
6529,-0.015,0.010
6530,-0.015,0.015
6531,-0.020,0.030
6532,-0.025,0.040
6533,-0.020,0.040
6534,-0.025,0.040
6535,-0.030,0.045
6536,-0.030,0.050
6537,-0.030,0.055
6538,-0.030,0.050
6539,-0.030,0.045
6540,-0.030,0.045
6541,-0.030,0.030
6542,-0.030,0.015
6543,-0.020,0.010
6544,-0.020,0.010
6545,-0.015,0.010
6546,-0.015,0.000
6547,-0.020,0.000
6548,-0.015,0.000
6549,-0.015,0.000
6550,-0.020,0.000
6551,-0.015,0.000
6552,-0.015,0.000
6553,-0.015,0.000
6554,-0.015,0.000
6555,-0.015,0.000
6556,-0.015,-0.005
6557,-0.010,-0.010
6558,-0.010,-0.005
6559,-0.010,0.000
6560,-0.010,0.000
6561,-0.010,-0.005
6562,-0.015,0.000
6563,-0.015,0.000
6564,-0.015,0.000
6565,-0.015,0.000
6566,-0.010,0.000
6567,0.000,0.000
6568,0.000,-0.005
6569,0.000,-0.010
6570,0.000,-0.015
6571,0.000,-0.015
6572,0.000,-0.005
6573,0.000,0.000
6574,0.000,0.000
6575,0.000,0.000
6576,0.000,-0.005
6577,0.000,-0.010
6578,0.000,-0.015
6579,0.000,-0.020
6580,0.000,-0.030
6581,0.000,-0.035
6582,0.000,-0.035
6583,0.000,-0.035
6584,0.000,-0.035
6585,0.000,-0.040
6586,0.000,-0.050
6587,0.000,-0.055
6588,0.000,-0.060
6589,0.000,-0.070
6590,-0.015,-0.065
6591,-0.020,-0.030
6592,0.030,0.000
6593,0.125,0.035
6594,0.235,0.095
6595,0.305,0.200
6596,0.310,0.300
6597,0.255,0.280
6598,0.160,0.140
6599,0.065,-0.035
6600,0.005,-0.155
6601,-0.010,-0.170
6602,-0.025,-0.125
6603,-0.030,-0.090
6604,-0.035,-0.080
6605,-0.035,-0.070
6606,-0.035,-0.070
6607,-0.030,-0.080
6608,-0.025,-0.080
6609,-0.025,-0.065
6610,-0.025,-0.055
6611,-0.020,-0.045
6612,-0.015,-0.035
6613,-0.015,-0.040
6614,-0.015,-0.030
6615,-0.010,-0.030
6616,-0.010,-0.015
6617,-0.005,-0.015
6618,-0.005,-0.005
6619,-0.005,0.000
6620,-0.005,0.015
6621,-0.005,0.020
6622,-0.010,0.010
6623,-0.010,0.035
6624,-0.015,0.015
6625,-0.025,-0.010
6626,-0.030,-0.005
6627,-0.035,0.035
6628,-0.045,0.040
6629,-0.055,0.060
6630,-0.050,0.035
6631,-0.055,-0.015
6632,-0.065,-0.015
6633,-0.065,0.030
6634,-0.065,0.030
6635,-0.065,0.000
6636,-0.060,0.005
6637,-0.060,0.015
6638,-0.070,-0.010
6639,-0.080,-0.025
6640,-0.075,-0.030
6641,-0.070,-0.060
6642,-0.075,-0.050
6643,-0.080,0.000
6644,-0.085,-0.020
6645,-0.075,-0.085
6646,-0.070,-0.095
6647,-0.095,-0.055
6648,-0.090,-0.040
6649,-0.100,-0.050
6650,-0.095,-0.075
6651,-0.085,-0.065
6652,-0.105,-0.025
6653,-0.100,-0.065
6654,-0.090,-0.050
6655,-0.090,-0.035
6656,-0.090,-0.090
6657,-0.120,-0.020
6658,-0.075,-0.015
6659,-0.065,-0.165
6660,-0.080,-0.145
6661,-0.100,-0.100
6662,-0.085,-0.025
6663,-0.085,-0.015
6664,-0.070,-0.035
6665,-0.055,0.000
6666,-0.055,0.005
6667,-0.055,-0.005
6668,-0.065,-0.045
6669,-0.065,-0.040
6670,-0.040,-0.010
6671,-0.050,-0.040
6672,-0.040,-0.045
6673,-0.035,-0.010
6674,-0.045,0.000
6675,-0.045,-0.050
6676,-0.030,-0.045
6677,-0.035,-0.020
6678,-0.045,-0.030
6679,-0.040,0.000
6680,-0.040,-0.010
6681,-0.040,-0.070
6682,-0.040,-0.045
6683,-0.040,-0.030
6684,-0.045,-0.010
6685,-0.050,0.000
6686,-0.065,-0.005
6687,-0.015,0.000
6688,0.080,0.015
6689,0.205,0.075
6690,0.275,0.250
6691,0.275,0.410
6692,0.195,0.465
6693,0.110,0.290
6694,0.015,0.005
6695,-0.040,-0.165
6696,-0.070,-0.160
6697,-0.065,-0.110
6698,-0.090,-0.050
6699,-0.090,-0.050
6700,-0.100,-0.105
6701,-0.100,-0.090
6702,-0.090,-0.075
6703,-0.085,-0.055
6704,-0.080,-0.055
6705,-0.080,-0.140
6706,-0.085,-0.085
6707,-0.080,-0.060
6708,-0.090,-0.050
6709,-0.080,-0.020
6710,-0.075,-0.015
6711,-0.080,-0.015
6712,-0.085,-0.010
6713,-0.070,0.015
6714,-0.075,0.005
6715,-0.075,0.015
6716,-0.060,-0.030
6717,-0.045,-0.085
6718,-0.050,-0.070
6719,-0.075,-0.015
6720,-0.070,0.035
6721,-0.060,0.050
6722,-0.060,0.080
6723,-0.075,0.100
6724,-0.075,0.015
