'sample interval','ECG0','ECG1'
'0.0078125 sec','mV','mV'
0,-0.020,0.005
1,-0.020,0.000
2,-0.015,0.000
3,-0.010,0.000
4,-0.005,0.000
5,0.000,0.000
6,0.000,0.000
7,0.000,0.005
8,0.005,0.010
9,0.010,0.020
10,0.010,0.025
11,0.015,0.035
12,0.025,0.050
13,0.040,0.055
14,0.050,0.055
15,0.060,0.060
16,0.065,0.055
17,0.070,0.050
18,0.075,0.040
19,0.080,0.035
20,0.070,0.025
21,0.060,0.015
22,0.045,0.010
23,0.030,0.005
24,0.015,0.000
25,0.005,0.000
26,0.000,0.000
27,-0.010,0.000
28,-0.020,0.000
29,-0.025,0.000
30,-0.030,-0.010
31,-0.035,-0.010
32,-0.040,-0.010
33,-0.040,-0.010
34,-0.040,-0.010
35,-0.040,-0.005
36,-0.040,-0.005
37,-0.040,0.000
38,-0.035,0.000
39,-0.035,0.000
40,-0.030,-0.005
41,-0.030,0.000
42,-0.025,0.000
43,-0.025,-0.005
44,-0.025,-0.015
45,-0.030,-0.035
46,-0.030,-0.045
47,-0.025,-0.050
48,-0.025,-0.050
49,-0.020,-0.055
50,-0.020,-0.055
51,-0.015,-0.055
52,-0.010,-0.050
53,-0.005,-0.045
54,0.000,-0.035
55,0.000,-0.035
56,0.000,-0.025
57,0.000,-0.010
58,-0.005,0.000
59,-0.005,0.000
60,-0.005,0.000
61,-0.005,-0.005
62,-0.010,-0.010
63,-0.015,-0.010
64,-0.015,-0.010
65,-0.015,-0.010
66,-0.015,-0.010
67,-0.010,-0.015
68,0.015,-0.015
69,0.130,-0.095
70,0.350,-0.410
71,0.550,-0.845
72,0.550,-1.020
73,0.365,-1.020
74,0.165,-1.020
75,0.040,-1.020
76,-0.005,-1.020
77,-0.025,-1.020
78,-0.030,-1.020
79,-0.035,-1.020
80,-0.040,-1.020
81,-0.040,-1.020
82,-0.035,-1.020
83,-0.035,-1.020
84,-0.030,-1.020
85,-0.025,-1.020
86,-0.025,-1.020
87,-0.025,-1.020
88,-0.020,-1.020
89,-0.015,-1.020
90,-0.015,-1.020
91,-0.015,-1.020
92,-0.010,-1.020
93,-0.005,-1.020
94,0.000,-1.020
95,0.000,-1.020
96,0.000,-1.020
97,0.005,-1.020
98,0.010,-1.020
99,0.015,-1.020
100,0.025,-1.020
101,0.030,-1.020
102,0.040,-1.020
103,0.055,-1.020
104,0.065,-1.020
105,0.075,-1.020
106,0.080,-1.020
107,0.085,-1.020
108,0.085,-1.020
109,0.080,-1.020
110,0.070,-1.010
111,0.055,-0.990
112,0.040,-0.975
113,0.020,-0.950
114,0.010,-0.925
115,0.000,-0.900
116,-0.005,-0.880
117,-0.015,-0.870
118,-0.020,-0.855
119,-0.030,-0.840
120,-0.035,-0.830
121,-0.040,-0.815
122,-0.040,-0.800
123,-0.040,-0.790
124,-0.040,-0.775
125,-0.040,-0.755
126,-0.040,-0.740
127,-0.035,-0.725
128,-0.035,-0.705
129,-0.035,-0.695
130,-0.035,-0.670
131,-0.030,-0.660
132,-0.025,-0.640
133,-0.025,-0.625
134,-0.025,-0.620
135,-0.030,-0.600
136,-0.025,-0.590
137,-0.020,-0.575
138,-0.020,-0.565
139,-0.015,-0.555
140,-0.015,-0.550
141,-0.010,-0.535
142,-0.005,-0.530
143,0.000,-0.515
144,0.000,-0.500
145,0.000,-0.490
146,0.000,-0.475
147,0.000,-0.455
148,0.000,-0.445
149,-0.005,-0.435
150,-0.005,-0.435
151,-0.005,-0.430
152,-0.015,-0.420
153,-0.015,-0.410
154,-0.015,-0.400
155,-0.015,-0.390
156,-0.015,-0.385
157,-0.005,-0.380
158,0.045,-0.365
159,0.210,-0.380
160,0.460,-0.520
161,0.590,-0.775
162,0.490,-0.840
163,0.260,-0.715
164,0.090,-0.535
165,0.005,-0.390
166,-0.020,-0.320
167,-0.030,-0.280
168,-0.035,-0.265
169,-0.040,-0.260
170,-0.040,-0.245
171,-0.040,-0.230
172,-0.035,-0.215
173,-0.035,-0.205
174,-0.030,-0.185
175,-0.025,-0.175
176,-0.025,-0.170
177,-0.025,-0.170
178,-0.020,-0.175
179,-0.015,-0.175
180,-0.015,-0.180
181,-0.010,-0.180
182,-0.005,-0.180
183,-0.005,-0.165
184,0.000,-0.150
185,0.000,-0.140
186,0.005,-0.120
187,0.010,-0.105
188,0.010,-0.100
189,0.015,-0.090
190,0.025,-0.075
191,0.035,-0.070
192,0.045,-0.065
193,0.050,-0.060
194,0.060,-0.055
195,0.070,-0.050
196,0.080,-0.050
197,0.085,-0.050
198,0.080,-0.050
199,0.075,-0.050
200,0.065,-0.050
201,0.045,-0.050
202,0.030,-0.060
203,0.015,-0.065
204,0.005,-0.070
205,0.000,-0.075
206,-0.010,-0.075
207,-0.020,-0.080
208,-0.030,-0.085
209,-0.035,-0.085
210,-0.040,-0.085
211,-0.040,-0.080
212,-0.040,-0.075
213,-0.040,-0.075
214,-0.040,-0.075
215,-0.040,-0.075
216,-0.040,-0.075
217,-0.040,-0.075
218,-0.040,-0.070
219,-0.035,-0.065
220,-0.035,-0.060
221,-0.030,-0.065
222,-0.030,-0.070
223,-0.025,-0.070
224,-0.025,-0.070
225,-0.030,-0.070
226,-0.030,-0.065
227,-0.025,-0.065
228,-0.020,-0.060
229,-0.020,-0.060
230,-0.010,-0.055
231,-0.010,-0.055
232,-0.005,-0.050
233,0.000,-0.050
234,0.000,-0.050
235,0.000,-0.050
236,0.000,-0.045
237,-0.005,-0.040
238,-0.005,-0.040
239,-0.005,-0.040
240,-0.005,-0.045
241,-0.010,-0.050
242,-0.015,-0.050
243,-0.015,-0.050
244,-0.015,-0.050
245,-0.015,-0.050
246,-0.010,-0.045
247,0.010,-0.040
248,0.115,-0.030
249,0.340,-0.090
250,0.555,-0.325
251,0.565,-0.530
252,0.360,-0.450
253,0.150,-0.290
254,0.025,-0.130
255,-0.015,-0.045
256,-0.025,-0.015
257,-0.030,0.000
258,-0.035,0.000
259,-0.040,0.000
260,-0.040,0.000
261,-0.040,0.005
262,-0.035,0.005
263,-0.035,0.005
264,-0.030,0.005
265,-0.025,0.015
266,-0.025,0.025
267,-0.025,0.040
268,-0.020,0.050
269,-0.015,0.050
270,-0.015,0.050
271,-0.010,0.045
272,-0.005,0.045
273,0.000,0.045
274,0.000,0.045
275,0.000,0.050
276,0.005,0.055
277,0.010,0.055
278,0.015,0.060
279,0.020,0.085
280,0.025,0.120
281,0.035,0.140
282,0.045,0.150
283,0.055,0.150
284,0.065,0.155
285,0.070,0.150
286,0.080,0.130
287,0.080,0.105
288,0.075,0.085
289,0.065,0.075
290,0.050,0.065
291,0.035,0.055
292,0.020,0.045
293,0.005,0.045
294,0.000,0.050
295,-0.010,0.055
296,-0.020,0.065
297,-0.025,0.075
298,-0.030,0.090
299,-0.030,0.110
300,-0.035,0.140
301,-0.040,0.165
302,-0.040,0.195
303,-0.040,0.250
304,-0.040,0.300
305,-0.040,0.335
306,-0.040,0.345
307,-0.040,0.365
308,-0.040,0.390
309,-0.035,0.415
310,-0.035,0.445
311,-0.030,0.500
312,-0.025,0.570
313,-0.025,0.635
314,-0.025,0.660
315,-0.030,0.705
316,-0.030,0.805
317,-0.025,0.915
318,-0.020,0.995
319,-0.015,1.020
320,-0.010,1.020
321,-0.005,1.020
322,-0.005,1.020
323,0.000,1.020
324,0.000,1.020
325,0.000,1.020
326,0.000,1.020
327,-0.005,1.020
328,-0.005,1.020
329,-0.005,1.020
330,-0.010,1.020
331,-0.015,1.020
332,-0.015,1.020
333,-0.015,1.020
334,-0.015,1.020
335,-0.015,1.020
336,-0.010,1.020
337,0.035,1.020
338,0.190,1.015
339,0.445,0.970
340,0.595,0.675
341,0.490,0.590
342,0.260,0.690
343,0.090,0.855
344,0.005,0.970
345,-0.015,1.015
346,-0.025,1.020
347,-0.030,1.020
348,-0.035,1.020
349,-0.040,1.010
350,-0.040,1.005
351,-0.035,0.985
352,-0.035,0.970
353,-0.030,0.955
354,-0.025,0.940
355,-0.025,0.925
356,-0.025,0.915
357,-0.020,0.905
358,-0.015,0.895
359,-0.015,0.885
360,-0.010,0.870
361,-0.005,0.855
362,0.000,0.845
363,0.000,0.835
364,0.000,0.820
365,0.005,0.805
366,0.010,0.800
367,0.010,0.785
368,0.015,0.770
369,0.020,0.760
370,0.025,0.755
371,0.040,0.750
372,0.045,0.745
373,0.055,0.735
374,0.065,0.730
375,0.075,0.720
376,0.080,0.700
377,0.075,0.675
378,0.070,0.650
379,0.060,0.630
380,0.045,0.610
381,0.025,0.595
382,0.010,0.580
383,0.000,0.560
384,0.000,0.540
385,-0.010,0.525
386,-0.015,0.515
387,-0.020,0.505
388,-0.025,0.495
389,-0.030,0.485
390,-0.035,0.470
391,-0.040,0.460
392,-0.040,0.445
393,-0.040,0.435
394,-0.040,0.430
395,-0.040,0.425
396,-0.035,0.410
397,-0.035,0.400
398,-0.035,0.395
399,-0.035,0.385
400,-0.035,0.370
401,-0.030,0.355
402,-0.025,0.345
403,-0.025,0.335
404,-0.030,0.325
405,-0.030,0.315
406,-0.025,0.305
407,-0.020,0.295
408,-0.015,0.290
409,-0.010,0.285
410,-0.005,0.280
411,0.000,0.280
412,0.000,0.280
413,0.000,0.270
414,0.000,0.265
415,-0.005,0.270
416,-0.005,0.260
417,-0.005,0.250
418,-0.005,0.230
419,-0.010,0.215
420,-0.015,0.205
421,-0.015,0.205
422,-0.015,0.200
423,-0.015,0.195
424,-0.010,0.190
425,-0.005,0.205
426,0.045,0.200
427,0.240,0.175
428,0.505,-0.015
429,0.600,-0.305
430,0.455,-0.325
431,0.230,-0.190
432,0.070,-0.040
433,0.000,0.070
434,-0.020,0.145
435,-0.030,0.175
436,-0.035,0.180
437,-0.040,0.175
438,-0.040,0.175
439,-0.035,0.170
440,-0.035,0.160
441,-0.035,0.155
442,-0.030,0.150
443,-0.030,0.140
444,-0.025,0.140
445,-0.025,0.135
446,-0.020,0.130
447,-0.015,0.130
448,-0.015,0.135
449,-0.015,0.140
450,-0.010,0.140
451,-0.005,0.135
452,0.000,0.135
453,0.000,0.135
454,0.000,0.140
455,0.010,0.140
456,0.010,0.140
457,0.015,0.140
458,0.020,0.140
459,0.030,0.140
460,0.040,0.140
461,0.050,0.140
462,0.060,0.140
463,0.070,0.135
464,0.075,0.120
465,0.075,0.110
466,0.070,0.095
467,0.065,0.075
468,0.050,0.060
469,0.035,0.050
470,0.025,0.050
471,0.010,0.040
472,0.000,0.040
473,0.000,0.025
474,-0.010,0.020
475,-0.020,0.015
476,-0.025,0.010
477,-0.025,0.010
478,-0.030,0.010
479,-0.035,0.005
480,-0.040,0.005
481,-0.040,0.005
482,-0.040,0.005
483,-0.040,0.010
484,-0.040,0.010
485,-0.040,0.015
486,-0.040,0.020
487,-0.040,0.020
488,-0.035,0.020
489,-0.035,0.020
490,-0.030,0.020
491,-0.025,0.025
492,-0.025,0.020
493,-0.025,0.020
494,-0.025,0.020
495,-0.025,0.020
496,-0.020,0.020
497,-0.015,0.020
498,-0.010,0.015
499,-0.005,0.015
500,0.000,0.020
501,0.000,0.020
502,0.000,0.020
503,0.000,0.030
504,-0.005,0.040
505,-0.010,0.040
506,-0.010,0.035
507,-0.010,0.025
508,-0.015,0.025
509,-0.015,0.030
510,-0.015,0.035
511,-0.015,0.035
512,-0.015,0.040
513,-0.015,0.035
514,-0.005,0.035
515,0.065,0.040
516,0.280,0.000
517,0.525,-0.220
518,0.580,-0.480
519,0.415,-0.465
520,0.205,-0.325
521,0.060,-0.160
522,0.000,-0.045
523,-0.020,0.000
524,-0.030,0.015
525,-0.035,0.020
526,-0.040,0.020
527,-0.040,0.025
528,-0.040,0.030
529,-0.040,0.035
530,-0.035,0.040
531,-0.035,0.040
532,-0.030,0.035
533,-0.025,0.035
534,-0.025,0.045
535,-0.020,0.060
536,-0.015,0.065
537,-0.015,0.065
538,-0.010,0.070
539,-0.005,0.080
540,-0.005,0.080
541,0.000,0.080
542,0.000,0.085
543,0.000,0.085
544,0.010,0.085
545,0.010,0.080
546,0.015,0.075
547,0.020,0.075
548,0.030,0.080
549,0.040,0.085
550,0.050,0.090
551,0.060,0.090
552,0.070,0.085
553,0.075,0.080
554,0.075,0.070
555,0.075,0.065
556,0.070,0.050
557,0.055,0.040
558,0.040,0.030
559,0.020,0.025
560,0.010,0.020
561,0.000,0.015
562,-0.005,0.010
563,-0.015,0.010
564,-0.020,0.010
565,-0.025,0.010
566,-0.030,0.005
567,-0.035,0.005
568,-0.040,0.000
569,-0.040,0.000
570,-0.040,0.000
571,-0.040,0.000
572,-0.040,0.000
573,-0.040,0.000
574,-0.040,0.000
575,-0.035,0.005
576,-0.035,0.000
577,-0.035,0.000
578,-0.035,0.000
579,-0.030,0.000
580,-0.025,0.000
581,-0.025,0.000
582,-0.030,0.000
583,-0.025,0.000
584,-0.020,0.005
585,-0.020,0.005
586,-0.015,0.005
587,-0.005,0.000
588,-0.005,-0.015
589,0.000,-0.125
590,0.000,-0.300
591,0.000,-0.380
592,0.000,-0.415
593,-0.005,-0.635
594,-0.010,-0.925
595,-0.010,-1.020
596,-0.010,-1.020
597,-0.015,-1.020
598,-0.015,-1.020
599,-0.015,-1.020
600,-0.015,-1.020
601,-0.015,-1.020
602,-0.015,-1.020
603,0.000,-1.020
604,0.115,-1.020
605,0.355,-1.020
606,0.560,-1.020
607,0.545,-1.020
608,0.355,-1.020
609,0.155,-1.020
610,0.035,-1.020
611,-0.010,-1.020
612,-0.025,-1.020
613,-0.030,-1.020
614,-0.035,-1.020
615,-0.040,-1.020
616,-0.040,-1.020
617,-0.040,-1.020
618,-0.035,-1.020
619,-0.035,-1.020
620,-0.030,-1.020
621,-0.025,-1.020
622,-0.025,-1.020
623,-0.020,-1.020
624,-0.020,-1.020
625,-0.015,-1.015
626,-0.015,-1.005
627,-0.010,-0.985
628,0.000,-0.965
629,0.000,-0.940
630,0.000,-0.915
631,0.005,-0.895
632,0.005,-0.880
633,0.010,-0.850
634,0.015,-0.815
635,0.020,-0.785
636,0.030,-0.750
637,0.045,-0.725
638,0.055,-0.705
639,0.065,-0.695
640,0.075,-0.680
641,0.080,-0.665
642,0.085,-0.645
643,0.090,-0.650
644,0.085,-0.665
645,0.070,-0.670
646,0.055,-0.660
647,0.035,-0.645
648,0.020,-0.635
649,0.005,-0.630
650,0.000,-0.625
651,-0.010,-0.620
652,-0.020,-0.605
653,-0.025,-0.595
654,-0.030,-0.585
655,-0.035,-0.570
656,-0.040,-0.545
657,-0.040,-0.520
658,-0.040,-0.505
659,-0.040,-0.495
660,-0.040,-0.490
661,-0.040,-0.475
662,-0.040,-0.465
663,-0.040,-0.450
664,-0.035,-0.430
665,-0.035,-0.405
666,-0.030,-0.395
667,-0.025,-0.390
668,-0.025,-0.375
669,-0.025,-0.365
670,-0.030,-0.345
671,-0.025,-0.330
672,-0.020,-0.315
673,-0.020,-0.310
674,-0.015,-0.305
675,-0.010,-0.290
676,-0.005,-0.275
677,0.000,-0.270
678,0.000,-0.265
679,0.000,-0.255
680,0.000,-0.250
681,0.000,-0.230
682,0.000,-0.210
683,0.000,-0.205
684,-0.005,-0.205
685,-0.005,-0.205
686,-0.010,-0.200
687,-0.015,-0.200
688,-0.015,-0.200
689,-0.015,-0.200
690,-0.015,-0.200
691,-0.015,-0.185
692,0.000,-0.180
693,0.095,-0.180
694,0.325,-0.245
695,0.545,-0.490
696,0.565,-0.660
697,0.385,-0.615
698,0.180,-0.450
699,0.045,-0.290
700,0.000,-0.180
701,-0.020,-0.125
702,-0.030,-0.090
703,-0.035,-0.065
704,-0.040,-0.050
705,-0.040,-0.045
706,-0.040,-0.045
707,-0.035,-0.050
708,-0.030,-0.055
709,-0.025,-0.070
710,-0.025,-0.075
711,-0.025,-0.075
712,-0.020,-0.080
713,-0.015,-0.080
714,-0.015,-0.085
715,-0.010,-0.085
716,-0.005,-0.090
717,-0.005,-0.085
718,0.000,-0.085
719,0.000,-0.080
720,0.005,-0.070
721,0.010,-0.060
722,0.010,-0.050
723,0.015,-0.050
724,0.025,-0.045
725,0.035,-0.035
726,0.040,-0.030
727,0.050,-0.020
728,0.060,-0.010
729,0.070,-0.005
730,0.080,-0.005
731,0.085,-0.010
732,0.090,-0.010
733,0.085,-0.010
734,0.070,-0.015
735,0.055,-0.020
736,0.040,-0.020
737,0.020,-0.020
738,0.010,-0.025
739,0.000,-0.025
740,-0.005,-0.025
741,-0.015,-0.025
742,-0.025,-0.030
743,-0.030,-0.025
744,-0.035,-0.030
745,-0.040,-0.040
746,-0.040,-0.045
747,-0.040,-0.050
748,-0.040,-0.050
749,-0.040,-0.050
750,-0.040,-0.050
751,-0.040,-0.050
752,-0.040,-0.050
753,-0.040,-0.050
754,-0.035,-0.050
755,-0.035,-0.050
756,-0.030,-0.050
757,-0.025,-0.050
758,-0.025,-0.050
759,-0.030,-0.050
760,-0.030,-0.050
761,-0.030,-0.050
762,-0.025,-0.045
763,-0.020,-0.045
764,-0.015,-0.040
765,-0.010,-0.040
766,-0.005,-0.045
767,0.000,-0.040
768,0.000,-0.040
769,0.000,-0.040
770,0.000,-0.040
771,0.000,-0.020
772,0.000,-0.020
773,-0.005,-0.020
774,-0.005,-0.020
775,-0.005,-0.035
776,-0.010,-0.040
777,-0.015,-0.040
778,-0.015,-0.030
779,-0.015,-0.015
780,-0.010,-0.015
781,-0.010,-0.015
782,0.015,-0.005
783,0.140,-0.005
784,0.375,-0.095
785,0.560,-0.335
786,0.535,-0.475
787,0.345,-0.415
788,0.145,-0.260
789,0.030,-0.125
790,-0.010,-0.040
791,-0.025,-0.005
792,-0.035,0.000
793,-0.040,0.000
794,-0.040,0.000
795,-0.040,0.005
796,-0.035,0.005
797,-0.035,0.010
798,-0.030,0.010
799,-0.025,0.010
800,-0.025,0.010
801,-0.025,0.010
802,-0.020,0.010
803,-0.015,0.005
804,-0.015,0.000
805,-0.010,0.005
806,-0.005,0.005
807,0.000,0.010
808,0.000,0.015
809,0.000,0.015
810,0.005,0.015
811,0.005,0.015
812,0.010,0.015
813,0.010,0.020
814,0.015,0.025
815,0.025,0.040
816,0.040,0.045
817,0.050,0.055
818,0.060,0.060
819,0.065,0.065
820,0.075,0.065
821,0.080,0.060
822,0.085,0.050
823,0.080,0.050
824,0.065,0.040
825,0.055,0.040
826,0.035,0.040
827,0.020,0.040
828,0.005,0.040
829,0.000,0.030
830,-0.010,0.020
831,-0.020,0.010
832,-0.030,0.005
833,-0.035,0.000
834,-0.040,0.000
835,-0.040,0.005
836,-0.040,0.010
837,-0.040,0.020
838,-0.040,0.030
839,-0.040,0.040
840,-0.040,0.040
841,-0.040,0.050
842,-0.040,0.055
843,-0.040,0.060
844,-0.035,0.055
845,-0.035,0.055
846,-0.030,0.055
847,-0.030,0.055
848,-0.025,0.055
849,-0.025,0.055
850,-0.030,0.055
851,-0.030,0.050
852,-0.025,0.045
853,-0.020,0.040
854,-0.020,0.040
855,-0.015,0.040
856,-0.005,0.040
857,-0.005,0.040
858,0.000,0.050
859,0.000,0.055
860,0.000,0.080
861,0.000,0.100
862,-0.005,0.115
863,-0.005,0.120
864,-0.005,0.110
865,-0.010,0.090
866,-0.015,0.070
867,-0.015,0.055
868,-0.015,0.045
869,-0.015,0.040
870,-0.015,0.040
871,-0.005,0.045
872,0.040,0.050
873,0.200,0.035
874,0.430,-0.095
875,0.560,-0.330
876,0.480,-0.420
877,0.275,-0.320
878,0.100,-0.165
879,0.010,-0.040
880,-0.020,0.020
881,-0.030,0.050
882,-0.035,0.055
883,-0.040,0.065
884,-0.040,0.065
885,-0.040,0.060
886,-0.040,0.055
887,-0.040,0.050
888,-0.035,0.050
889,-0.035,0.050
890,-0.030,0.050
891,-0.025,0.060
892,-0.020,0.075
893,-0.015,0.085
894,-0.015,0.105
895,-0.010,0.115
896,-0.010,0.140
897,-0.005,0.145
898,-0.005,0.150
899,0.000,0.145
900,0.000,0.145
901,0.005,0.150
902,0.010,0.145
903,0.015,0.145
904,0.020,0.145
905,0.025,0.145
906,0.040,0.145
907,0.050,0.145
908,0.060,0.140
909,0.070,0.140
910,0.075,0.125
911,0.080,0.115
912,0.080,0.100
913,0.070,0.085
914,0.060,0.075
915,0.045,0.065
916,0.030,0.055
917,0.015,0.040
918,0.005,0.035
919,0.000,0.025
920,-0.010,0.015
921,-0.020,0.010
922,-0.030,0.010
923,-0.035,0.010
924,-0.040,0.015
925,-0.040,0.015
926,-0.040,0.015
927,-0.040,0.015
928,-0.040,0.020
929,-0.040,0.020
930,-0.040,0.020
931,-0.040,0.020
932,-0.040,0.015
933,-0.040,0.015
934,-0.040,0.015
935,-0.035,0.015
936,-0.035,0.015
937,-0.030,0.010
938,-0.030,0.010
939,-0.030,0.010
940,-0.025,0.010
941,-0.025,0.010
942,-0.025,0.010
943,-0.020,0.005
944,-0.020,0.000
945,-0.010,0.000
946,-0.005,0.000
947,-0.005,0.000
948,0.000,0.000
949,0.000,0.000
950,-0.005,0.005
951,-0.010,0.010
952,-0.015,0.010
953,-0.015,0.010
954,-0.015,0.000
955,-0.015,0.000
956,-0.015,0.000
957,-0.015,0.000
958,-0.015,0.000
959,-0.015,0.000
960,-0.015,0.000
961,0.005,0.000
962,0.105,0.000
963,0.315,-0.065
964,0.525,-0.295
965,0.550,-0.510
966,0.385,-0.500
967,0.175,-0.375
968,0.045,-0.210
969,-0.005,-0.105
970,-0.025,-0.040
971,-0.035,-0.025
972,-0.040,-0.045
973,-0.040,-0.045
974,-0.040,-0.030
975,-0.040,-0.010
976,-0.040,-0.005
977,-0.035,0.000
978,-0.030,0.000
979,-0.025,0.005
980,-0.025,0.005
981,-0.025,0.025
982,-0.025,0.035
983,-0.020,0.040
984,-0.015,0.050
985,-0.015,0.065
986,-0.010,0.080
987,-0.005,0.085
988,0.000,0.085
989,0.000,0.095
990,0.000,0.105
991,0.005,0.110
992,0.010,0.115
993,0.015,0.110
994,0.025,0.110
995,0.035,0.110
996,0.045,0.100
997,0.055,0.090
998,0.065,0.080
999,0.070,0.070
1000,0.075,0.065
1001,0.080,0.055
1002,0.075,0.045
1003,0.065,0.035
1004,0.050,0.025
1005,0.035,0.015
1006,0.020,0.005
1007,0.005,0.000
1008,0.000,0.000
1009,-0.005,0.000
1010,-0.015,0.000
1011,-0.025,0.000
1012,-0.030,-0.005
1013,-0.035,-0.010
1014,-0.040,-0.015
1015,-0.040,-0.015
1016,-0.040,-0.015
1017,-0.040,-0.010
1018,-0.040,-0.010
1019,-0.040,-0.010
1020,-0.040,-0.010
1021,-0.040,-0.010
1022,-0.040,-0.010
1023,-0.040,-0.010
1024,-0.040,-0.010
1025,-0.035,-0.015
1026,-0.035,-0.015
1027,-0.030,-0.015
1028,-0.025,-0.020
1029,-0.025,-0.015
1030,-0.030,-0.015
1031,-0.025,-0.015
1032,-0.020,-0.020
1033,-0.020,-0.020
1034,-0.010,-0.020
1035,-0.010,-0.020
1036,-0.005,-0.020
1037,0.000,-0.010
1038,0.000,-0.010
1039,0.000,-0.005
1040,0.000,0.000
1041,-0.005,0.000
1042,-0.010,0.000
1043,-0.010,0.000
1044,-0.010,-0.010
1045,-0.015,-0.010
1046,-0.015,-0.010
1047,-0.015,-0.030
1048,-0.015,-0.055
1049,-0.015,-0.070
1050,-0.005,-0.080
1051,0.035,-0.080
1052,0.185,-0.110
1053,0.420,-0.230
1054,0.575,-0.465
1055,0.505,-0.555
1056,0.295,-0.445
1057,0.110,-0.275
1058,0.015,-0.135
1059,-0.015,-0.045
1060,-0.025,-0.010
1061,-0.035,0.000
1062,-0.040,0.000
1063,-0.040,0.000
1064,-0.035,0.000
1065,-0.035,0.005
1066,-0.030,0.000
1067,-0.030,0.000
1068,-0.025,0.000
1069,-0.025,0.000
1070,-0.025,0.005
1071,-0.020,0.025
1072,-0.015,0.050
1073,-0.015,0.065
1074,-0.015,0.070
1075,-0.010,0.070
1076,-0.005,0.060
1077,0.000,0.060
1078,0.000,0.060
1079,0.000,0.060
1080,0.005,0.070
1081,0.010,0.075
1082,0.015,0.080
1083,0.020,0.085
1084,0.030,0.085
1085,0.040,0.085
1086,0.050,0.080
1087,0.060,0.070
1088,0.065,0.065
1089,0.070,0.060
1090,0.075,0.055
1091,0.080,0.045
1092,0.075,0.035
1093,0.060,0.025
1094,0.045,0.015
1095,0.025,0.010
1096,0.015,0.000
1097,0.005,0.000
1098,0.000,0.000
1099,-0.010,-0.010
1100,-0.020,-0.015
1101,-0.025,-0.015
1102,-0.030,-0.015
1103,-0.035,-0.015
1104,-0.040,-0.015
1105,-0.040,-0.010
1106,-0.040,-0.015
1107,-0.040,-0.010
1108,-0.040,-0.010
1109,-0.040,-0.005
1110,-0.040,0.000
1111,-0.040,0.000
1112,-0.040,0.000
1113,-0.035,0.000
1114,-0.035,0.000
1115,-0.030,0.000
1116,-0.030,0.000
1117,-0.025,0.000
1118,-0.025,0.000
1119,-0.025,0.000
1120,-0.025,0.000
1121,-0.020,0.000
1122,-0.020,0.000
1123,-0.015,0.000
1124,-0.010,0.000
1125,-0.005,0.000
1126,0.000,0.000
1127,0.000,0.000
1128,0.000,0.000
1129,0.000,0.000
1130,-0.005,0.000
1131,-0.010,-0.005
1132,-0.010,-0.030
1133,-0.010,-0.045
1134,-0.010,-0.035
1135,-0.015,-0.020
1136,-0.015,-0.010
1137,-0.015,0.000
1138,-0.015,0.000
1139,-0.010,0.000
1140,0.000,0.000
1141,0.085,0.000
1142,0.280,-0.035
1143,0.515,-0.230
1144,0.575,-0.480
1145,0.420,-0.475
1146,0.200,-0.320
1147,0.055,-0.155
1148,0.000,-0.075
1149,-0.025,-0.025
1150,-0.035,0.015
1151,-0.040,0.055
1152,-0.040,0.060
1153,-0.040,0.045
1154,-0.040,0.030
1155,-0.035,0.030
1156,-0.035,0.045
1157,-0.030,0.045
1158,-0.025,0.045
1159,-0.025,0.045
1160,-0.025,0.035
1161,-0.020,0.030
1162,-0.015,0.015
1163,-0.015,0.015
1164,-0.015,0.005
1165,-0.005,0.000
1166,-0.005,0.005
1167,0.000,0.005
1168,0.000,0.000
1169,0.005,0.005
1170,0.010,0.010
1171,0.015,0.020
1172,0.020,0.030
1173,0.030,0.035
1174,0.035,0.040
1175,0.050,0.040
1176,0.060,0.035
1177,0.070,0.035
1178,0.075,0.035
1179,0.085,0.035
1180,0.085,0.025
1181,0.080,0.005
1182,0.075,0.000
1183,0.060,0.000
1184,0.045,-0.010
1185,0.025,-0.025
1186,0.010,-0.035
1187,0.000,-0.055
1188,-0.010,-0.050
1189,-0.020,-0.050
1190,-0.025,-0.045
1191,-0.030,-0.040
1192,-0.035,-0.045
1193,-0.040,-0.050
1194,-0.040,-0.045
1195,-0.040,-0.040
1196,-0.040,-0.025
1197,-0.040,-0.015
1198,-0.040,-0.015
1199,-0.040,-0.015
1200,-0.040,-0.015
1201,-0.040,-0.040
1202,-0.040,-0.050
1203,-0.035,-0.110
1204,-0.035,-0.185
1205,-0.035,-0.225
1206,-0.030,-0.245
1207,-0.025,-0.250
1208,-0.025,-0.240
1209,-0.025,-0.170
1210,-0.025,-0.090
1211,-0.020,-0.045
1212,-0.020,-0.030
1213,-0.015,-0.010
1214,-0.010,0.000
1215,-0.005,0.010
1216,0.000,0.025
1217,0.000,0.035
1218,0.000,0.040
1219,0.000,0.050
1220,-0.005,0.065
1221,-0.005,0.070
1222,-0.005,0.065
1223,-0.005,0.055
1224,-0.010,0.050
1225,-0.015,0.055
1226,-0.015,0.055
1227,-0.015,0.060
1228,-0.015,0.055
1229,-0.010,0.055
1230,0.000,0.070
1231,0.090,0.080
1232,0.310,0.045
1233,0.555,-0.145
1234,0.590,-0.405
1235,0.400,-0.360
1236,0.175,-0.200
1237,0.035,-0.035
1238,-0.005,0.055
1239,-0.020,0.100
1240,-0.030,0.115
1241,-0.035,0.120
1242,-0.040,0.115
1243,-0.040,0.115
1244,-0.040,0.115
1245,-0.035,0.115
1246,-0.035,0.115
1247,-0.030,0.105
1248,-0.025,0.095
1249,-0.025,0.085
1250,-0.025,0.085
1251,-0.020,0.085
1252,-0.015,0.080
1253,-0.015,0.060
1254,-0.010,0.055
1255,-0.005,0.045
1256,0.000,0.040
1257,0.000,0.040
1258,0.000,0.045
1259,0.005,0.050
1260,0.010,0.060
1261,0.015,0.075
1262,0.020,0.085
1263,0.030,0.095
1264,0.040,0.105
1265,0.050,0.110
1266,0.060,0.110
1267,0.070,0.105
1268,0.080,0.095
1269,0.085,0.085
1270,0.085,0.085
1271,0.080,0.100
1272,0.070,0.115
1273,0.055,0.105
1274,0.040,0.085
1275,0.020,0.080
1276,0.005,0.075
1277,0.000,0.045
1278,-0.010,0.030
1279,-0.020,0.000
1280,-0.030,0.000
1281,-0.030,0.005
1282,-0.035,0.020
1283,-0.040,0.010
1284,-0.040,0.020
1285,-0.040,0.015
1286,-0.045,0.035
1287,-0.040,0.040
1288,-0.040,0.045
1289,-0.040,0.050
1290,-0.040,0.015
1291,-0.040,0.010
1292,-0.040,0.025
1293,-0.035,0.035
1294,-0.035,0.040
1295,-0.030,0.040
1296,-0.025,0.035
1297,-0.025,0.035
1298,-0.025,0.020
1299,-0.025,0.000
1300,-0.025,0.000
1301,-0.020,0.000
1302,-0.015,0.005
1303,-0.015,0.000
1304,-0.010,0.000
1305,-0.005,0.000
1306,0.000,-0.005
1307,0.000,-0.030
1308,0.000,-0.040
1309,0.000,-0.035
1310,-0.005,-0.020
1311,-0.010,-0.020
1312,-0.010,-0.020
1313,-0.010,-0.015
1314,-0.015,-0.035
1315,-0.015,-0.035
1316,-0.015,-0.015
1317,-0.015,-0.005
1318,-0.015,0.000
1319,-0.015,0.000
1320,-0.005,0.000
1321,0.075,0.000
1322,0.290,-0.010
1323,0.550,-0.240
1324,0.595,-0.500
1325,0.410,-0.450
1326,0.185,-0.295
1327,0.045,-0.145
1328,-0.005,-0.055
1329,-0.025,-0.015
1330,-0.030,0.000
1331,-0.035,0.000
1332,-0.040,0.000
1333,-0.040,0.000
1334,-0.040,0.000
1335,-0.040,0.000
1336,-0.035,-0.005
1337,-0.035,0.000
1338,-0.030,0.000
1339,-0.025,0.000
1340,-0.025,0.000
1341,-0.020,0.000
1342,-0.020,-0.005
1343,-0.015,-0.010
1344,-0.010,-0.015
1345,-0.005,-0.020
1346,0.000,-0.025
1347,0.000,-0.010
1348,0.000,0.000
1349,0.005,0.000
1350,0.010,0.005
1351,0.015,0.005
1352,0.020,0.010
1353,0.025,0.015
1354,0.035,0.005
1355,0.045,0.005
1356,0.060,0.015
1357,0.070,0.025
1358,0.075,0.030
1359,0.085,0.025
1360,0.085,0.000
1361,0.080,-0.020
1362,0.065,-0.040
1363,0.055,-0.030
1364,0.035,-0.095
1365,0.020,-0.165
1366,0.010,-0.195
1367,0.000,-0.190
1368,-0.005,-0.155
1369,-0.015,-0.100
1370,-0.025,-0.055
1371,-0.030,-0.050
1372,-0.035,-0.045
1373,-0.040,-0.020
1374,-0.040,-0.015
1375,-0.040,-0.015
1376,-0.040,-0.010
1377,-0.040,-0.005
1378,-0.040,-0.010
1379,-0.040,0.000
1380,-0.040,0.000
1381,-0.040,0.000
1382,-0.040,0.005
1383,-0.035,0.015
1384,-0.035,0.020
1385,-0.030,0.030
1386,-0.025,0.020
1387,-0.025,0.015
1388,-0.030,0.030
1389,-0.030,0.035
1390,-0.030,0.035
1391,-0.025,0.045
1392,-0.020,0.050
1393,-0.020,0.060
1394,-0.015,0.070
1395,-0.010,0.070
1396,-0.005,0.065
1397,0.000,0.060
1398,0.000,0.070
1399,0.000,0.085
1400,-0.005,0.085
1401,-0.015,0.070
1402,-0.015,0.065
1403,-0.015,0.050
1404,-0.015,0.060
1405,-0.015,0.080
1406,-0.015,0.085
1407,-0.015,0.095
1408,-0.015,0.095
1409,-0.015,0.095
1410,-0.010,0.110
1411,0.055,0.115
1412,0.260,0.090
1413,0.510,-0.115
1414,0.575,-0.375
1415,0.415,-0.375
1416,0.205,-0.245
1417,0.060,-0.095
1418,0.000,0.000
1419,-0.025,0.055
1420,-0.030,0.080
1421,-0.035,0.100
1422,-0.040,0.095
1423,-0.040,0.090
1424,-0.040,0.090
1425,-0.040,0.090
1426,-0.035,0.085
1427,-0.035,0.085
1428,-0.035,0.085
1429,-0.030,0.085
1430,-0.025,0.095
1431,-0.020,0.105
1432,-0.020,0.110
1433,-0.015,0.120
1434,-0.015,0.115
1435,-0.010,0.115
1436,-0.005,0.110
1437,0.000,0.110
1438,0.000,0.110
1439,0.000,0.105
1440,0.005,0.105
1441,0.010,0.105
1442,0.015,0.110
1443,0.020,0.115
1444,0.030,0.120
1445,0.040,0.120
1446,0.050,0.120
1447,0.065,0.120
1448,0.070,0.120
1449,0.080,0.115
1450,0.075,0.095
1451,0.075,0.095
1452,0.070,0.085
1453,0.055,0.080
1454,0.040,0.055
1455,0.025,0.040
1456,0.010,0.035
1457,0.000,0.030
1458,-0.005,0.005
1459,-0.015,0.005
1460,-0.025,0.005
1461,-0.030,0.010
1462,-0.035,0.010
1463,-0.040,0.010
1464,-0.040,0.010
1465,-0.040,0.005
1466,-0.040,0.000
1467,-0.040,0.005
1468,-0.040,0.010
1469,-0.040,0.015
1470,-0.040,0.020
1471,-0.040,0.030
1472,-0.035,0.035
1473,-0.035,0.035
1474,-0.030,0.030
1475,-0.025,0.025
1476,-0.025,0.025
1477,-0.030,0.030
1478,-0.030,0.030
1479,-0.030,0.040
1480,-0.025,0.040
1481,-0.025,0.035
1482,-0.020,0.030
1483,-0.015,0.030
1484,-0.010,0.025
1485,-0.005,0.020
1486,0.000,0.020
1487,0.000,0.035
1488,0.000,0.040
1489,0.000,0.050
1490,-0.005,0.060
1491,-0.015,0.060
1492,-0.015,0.055
1493,-0.015,0.040
1494,-0.015,0.040
1495,-0.015,0.040
1496,-0.015,0.040
1497,-0.015,0.045
1498,-0.015,0.040
1499,-0.015,0.040
1500,0.000,0.045
1501,0.110,0.040
1502,0.340,-0.015
1503,0.550,-0.280
1504,0.550,-0.455
1505,0.365,-0.420
1506,0.165,-0.260
1507,0.040,-0.110
1508,-0.005,-0.020
1509,-0.025,0.010
1510,-0.030,0.015
1511,-0.035,0.020
1512,-0.040,0.025
1513,-0.040,0.030
1514,-0.040,0.035
1515,-0.040,0.040
1516,-0.035,0.040
1517,-0.030,0.035
1518,-0.025,0.035
1519,-0.025,0.035
1520,-0.020,0.035
1521,-0.020,0.040
1522,-0.015,0.040
1523,-0.010,0.040
1524,-0.005,0.050
1525,0.000,0.050
1526,0.000,0.045
1527,0.000,0.040
1528,0.005,0.040
1529,0.010,0.045
1530,0.010,0.045
1531,0.015,0.045
1532,0.020,0.055
1533,0.030,0.060
1534,0.040,0.065
1535,0.050,0.065
1536,0.060,0.075
1537,0.060,0.070
1538,0.070,0.070
1539,0.075,0.065
1540,0.080,0.050
1541,0.075,0.040
1542,0.065,0.015
1543,0.050,0.000
1544,0.035,0.000
1545,0.015,-0.010
1546,0.005,-0.015
1547,0.000,-0.025
1548,-0.005,-0.035
1549,-0.015,-0.040
1550,-0.020,-0.025
1551,-0.025,-0.010
1552,-0.030,-0.010
1553,-0.035,0.000
1554,-0.040,0.000
1555,-0.040,0.000
1556,-0.035,0.000
1557,-0.035,0.000
1558,-0.035,0.000
1559,-0.030,0.000
1560,-0.030,0.000
1561,-0.030,0.000
1562,-0.025,0.000
1563,-0.025,0.000
1564,-0.025,0.000
1565,-0.030,0.000
1566,-0.030,0.000
1567,-0.025,0.000
1568,-0.025,0.000
1569,-0.020,0.000
1570,-0.020,0.000
1571,-0.015,0.000
1572,-0.015,0.000
1573,-0.010,0.000
1574,-0.005,-0.005
1575,0.000,0.000
1576,0.000,0.005
1577,0.000,0.005
1578,0.000,0.005
1579,0.000,0.010
1580,0.000,0.015
1581,-0.005,0.015
1582,-0.005,0.020
1583,-0.005,0.010
1584,-0.010,0.005
1585,-0.015,0.005
1586,-0.015,0.000
1587,-0.015,0.000
1588,-0.015,0.000
1589,-0.015,0.000
1590,0.020,0.000
1591,0.160,-0.010
1592,0.400,-0.125
1593,0.565,-0.380
1594,0.515,-0.505
1595,0.320,-0.430
1596,0.135,-0.275
1597,0.030,-0.130
1598,-0.010,-0.055
1599,-0.025,-0.025
1600,-0.035,-0.010
1601,-0.040,-0.010
1602,-0.040,-0.010
1603,-0.040,-0.005
1604,-0.035,0.000
1605,-0.035,0.000
1606,-0.030,0.005
1607,-0.025,0.005
1608,-0.025,0.005
1609,-0.025,0.010
1610,-0.020,0.000
1611,-0.015,0.000
1612,-0.015,0.000
1613,-0.010,0.000
1614,-0.005,0.005
1615,0.000,0.010
1616,0.000,0.010
1617,0.000,0.030
1618,0.005,0.045
1619,0.010,0.055
1620,0.010,0.060
1621,0.015,0.080
1622,0.015,0.080
1623,0.025,0.085
1624,0.035,0.085
1625,0.045,0.080
1626,0.055,0.045
1627,0.065,0.010
1628,0.070,0.010
1629,0.075,0.020
1630,0.080,0.030
1631,0.075,0.035
1632,0.065,0.030
1633,0.050,0.020
1634,0.035,0.015
1635,0.015,0.010
1636,0.005,0.000
1637,0.000,0.000
1638,-0.010,-0.005
1639,-0.020,-0.010
1640,-0.025,0.000
1641,-0.025,-0.005
1642,-0.030,-0.010
1643,-0.035,-0.010
1644,-0.040,-0.005
1645,-0.040,-0.010
1646,-0.040,-0.020
1647,-0.040,-0.055
1648,-0.040,-0.095
1649,-0.040,-0.085
1650,-0.035,-0.075
1651,-0.035,-0.090
1652,-0.030,-0.110
1653,-0.025,-0.110
1654,-0.025,-0.110
1655,-0.025,-0.105
1656,-0.030,-0.105
1657,-0.025,-0.100
1658,-0.025,-0.080
1659,-0.020,-0.060
1660,-0.020,-0.020
1661,-0.015,0.000
1662,-0.015,0.005
1663,-0.010,0.005
1664,-0.010,0.015
1665,-0.005,0.015
1666,0.000,0.020
1667,0.000,-0.015
1668,0.000,-0.045
1669,0.000,-0.050
1670,-0.010,-0.035
1671,-0.015,-0.005
1672,-0.015,0.000
1673,-0.015,0.000
1674,-0.015,0.010
1675,-0.015,0.000
1676,-0.015,-0.020
1677,-0.015,-0.015
1678,-0.015,0.000
1679,-0.005,0.015
1680,0.045,0.035
1681,0.210,0.030
1682,0.450,-0.110
1683,0.570,-0.350
1684,0.475,-0.435
1685,0.270,-0.330
1686,0.100,-0.170
1687,0.015,-0.050
1688,-0.015,0.015
1689,-0.025,0.045
1690,-0.035,0.055
1691,-0.040,0.060
1692,-0.040,0.075
1693,-0.040,0.080
1694,-0.035,0.085
1695,-0.035,0.090
1696,-0.030,0.100
1697,-0.025,0.110
1698,-0.025,0.105
1699,-0.025,0.085
1700,-0.020,0.085
1701,-0.015,0.085
1702,-0.015,0.085
1703,-0.010,0.080
1704,-0.005,0.075
1705,0.000,0.075
1706,0.000,0.075
1707,0.000,0.060
1708,0.000,0.040
1709,0.005,0.025
1710,0.010,0.025
1711,0.015,0.035
1712,0.025,0.040
1713,0.035,0.045
1714,0.045,0.050
1715,0.050,0.040
1716,0.065,0.045
1717,0.070,0.050
1718,0.080,0.055
1719,0.085,0.060
1720,0.085,0.055
1721,0.075,0.035
1722,0.065,0.030
1723,0.050,0.035
1724,0.030,0.030
1725,0.015,0.020
1726,0.000,0.020
1727,-0.005,0.025
1728,-0.015,0.025
1729,-0.020,0.015
1730,-0.030,0.010
1731,-0.035,0.005
1732,-0.040,0.005
1733,-0.040,0.000
1734,-0.040,-0.010
1735,-0.040,-0.020
1736,-0.040,-0.020
1737,-0.040,-0.015
1738,-0.040,-0.020
1739,-0.040,-0.020
1740,-0.035,-0.015
1741,-0.035,-0.010
1742,-0.035,-0.010
1743,-0.030,-0.010
1744,-0.025,-0.010
1745,-0.025,-0.005
1746,-0.030,0.000
1747,-0.030,0.000
1748,-0.030,-0.005
1749,-0.025,-0.010
1750,-0.025,-0.010
1751,-0.025,-0.005
1752,-0.020,0.000
1753,-0.010,0.000
1754,-0.010,-0.005
1755,-0.005,-0.020
1756,0.000,-0.035
1757,0.000,-0.040
1758,0.000,-0.015
1759,-0.005,-0.010
1760,-0.010,-0.010
1761,-0.015,-0.010
1762,-0.015,-0.050
1763,-0.015,-0.095
1764,-0.015,-0.135
1765,-0.015,-0.150
1766,-0.015,-0.125
1767,-0.015,-0.105
1768,-0.020,-0.090
1769,-0.005,-0.075
1770,0.065,-0.080
1771,0.260,-0.120
1772,0.495,-0.295
1773,0.580,-0.505
1774,0.445,-0.520
1775,0.230,-0.370
1776,0.070,-0.195
1777,0.000,-0.075
1778,-0.020,-0.020
1779,-0.030,0.000
1780,-0.040,0.020
1781,-0.040,0.040
1782,-0.040,0.045
1783,-0.040,0.045
1784,-0.035,0.045
1785,-0.035,0.035
1786,-0.035,0.020
1787,-0.030,0.015
1788,-0.025,0.015
1789,-0.020,0.005
1790,-0.020,0.000
1791,-0.015,0.000
1792,-0.015,-0.010
1793,-0.010,-0.025
1794,-0.005,-0.040
1795,0.000,-0.040
1796,0.000,-0.020
1797,0.005,-0.010
1798,0.010,-0.040
1799,0.010,-0.035
1800,0.010,-0.005
1801,0.020,0.000
1802,0.030,0.000
1803,0.040,0.015
1804,0.050,0.035
1805,0.060,0.060
1806,0.070,0.065
1807,0.080,0.055
1808,0.085,0.030
1809,0.090,0.025
1810,0.085,0.040
1811,0.075,0.060
1812,0.065,0.070
1813,0.045,0.060
1814,0.030,0.055
1815,0.010,0.050
1816,0.000,0.040
1817,-0.005,0.020
1818,-0.015,0.005
1819,-0.025,0.000
1820,-0.035,-0.005
1821,-0.040,-0.020
1822,-0.040,-0.015
1823,-0.040,-0.005
1824,-0.040,0.000
1825,-0.040,0.000
1826,-0.040,0.000
1827,-0.040,-0.005
1828,-0.040,-0.010
1829,-0.040,-0.010
1830,-0.035,-0.015
1831,-0.035,-0.020
1832,-0.030,-0.035
1833,-0.025,-0.045
1834,-0.025,-0.040
1835,-0.025,-0.040
1836,-0.025,-0.035
1837,-0.025,-0.035
1838,-0.025,-0.035
1839,-0.025,-0.040
1840,-0.020,-0.040
1841,-0.020,-0.040
1842,-0.015,-0.030
1843,-0.015,-0.030
1844,-0.005,-0.035
1845,-0.005,-0.025
1846,0.000,-0.025
1847,0.000,-0.025
1848,0.000,-0.010
1849,0.000,-0.010
1850,-0.005,-0.010
1851,-0.005,-0.010
1852,-0.005,-0.015
1853,-0.010,-0.030
1854,-0.015,-0.040
1855,-0.015,-0.030
1856,-0.015,-0.025
1857,-0.015,-0.035
1858,-0.015,-0.060
1859,-0.010,-0.080
1860,0.040,-0.065
1861,0.195,-0.060
1862,0.440,-0.185
1863,0.585,-0.425
1864,0.495,-0.520
1865,0.280,-0.410
1866,0.100,-0.260
1867,0.010,-0.125
1868,-0.015,-0.060
1869,-0.030,-0.045
1870,-0.035,-0.030
1871,-0.040,-0.010
1872,-0.040,-0.005
1873,-0.040,0.000
1874,-0.035,0.000
1875,-0.035,0.000
1876,-0.035,0.005
1877,-0.030,0.000
1878,-0.030,0.000
1879,-0.025,0.000
1880,-0.020,-0.025
1881,-0.020,-0.070
1882,-0.015,-0.090
1883,-0.015,-0.065
1884,-0.005,-0.045
1885,0.000,-0.025
1886,0.000,-0.005
1887,0.000,0.000
1888,0.005,0.000
1889,0.010,0.010
1890,0.010,0.025
1891,0.020,0.030
1892,0.030,0.015
1893,0.040,-0.010
1894,0.050,-0.040
1895,0.060,-0.055
1896,0.065,-0.105
1897,0.075,-0.160
1898,0.080,-0.185
1899,0.085,-0.190
1900,0.080,-0.175
1901,0.075,-0.135
1902,0.060,-0.085
1903,0.045,-0.055
1904,0.030,-0.050
1905,0.015,-0.050
1906,0.005,-0.045
1907,0.000,-0.025
1908,-0.010,-0.015
1909,-0.020,-0.030
1910,-0.030,-0.030
1911,-0.035,-0.010
1912,-0.040,0.000
1913,-0.040,0.010
1914,-0.040,0.015
1915,-0.040,0.015
1916,-0.040,0.035
1917,-0.040,0.035
1918,-0.040,0.040
1919,-0.035,0.040
1920,-0.035,0.045
1921,-0.035,0.040
1922,-0.035,0.045
1923,-0.030,0.050
1924,-0.025,0.050
1925,-0.025,0.050
1926,-0.025,0.055
1927,-0.030,0.055
1928,-0.030,0.050
1929,-0.025,0.050
1930,-0.025,0.050
1931,-0.020,0.050
1932,-0.020,0.050
1933,-0.015,0.050
1934,-0.010,0.055
1935,-0.005,0.055
1936,0.000,0.065
1937,0.000,0.065
1938,0.000,0.065
1939,0.000,0.065
1940,-0.010,0.075
1941,-0.015,0.085
1942,-0.015,0.090
1943,-0.015,0.090
1944,-0.015,0.085
1945,-0.015,0.085
1946,-0.015,0.090
1947,-0.015,0.090
1948,-0.015,0.090
1949,-0.010,0.105
1950,0.005,0.125
1951,0.110,0.135
1952,0.330,0.080
1953,0.540,-0.130
1954,0.550,-0.355
1955,0.365,-0.325
1956,0.155,-0.180
1957,0.030,-0.030
1958,-0.010,0.045
1959,-0.025,0.090
1960,-0.035,0.110
1961,-0.040,0.135
1962,-0.040,0.135
1963,-0.040,0.135
1964,-0.040,0.135
1965,-0.035,0.135
1966,-0.035,0.120
1967,-0.035,0.110
1968,-0.030,0.110
1969,-0.025,0.115
1970,-0.025,0.130
1971,-0.020,0.145
1972,-0.020,0.150
1973,-0.010,0.155
1974,-0.005,0.145
1975,-0.005,0.135
1976,0.000,0.135
1977,0.000,0.135
1978,0.005,0.135
1979,0.010,0.140
1980,0.010,0.145
1981,0.015,0.150
1982,0.020,0.150
1983,0.030,0.150
1984,0.040,0.150
1985,0.045,0.150
1986,0.055,0.145
1987,0.065,0.145
1988,0.070,0.145
1989,0.080,0.145
1990,0.080,0.130
1991,0.075,0.115
1992,0.070,0.100
1993,0.055,0.085
1994,0.035,0.075
1995,0.020,0.065
1996,0.010,0.055
1997,0.000,0.055
1998,-0.005,0.050
1999,-0.015,0.050
2000,-0.025,0.045
2001,-0.035,0.040
2002,-0.040,0.045
2003,-0.040,0.045
2004,-0.040,0.045
2005,-0.040,0.040
2006,-0.040,0.040
2007,-0.040,0.035
2008,-0.040,0.005
2009,-0.040,0.000
2010,-0.040,-0.045
2011,-0.035,-0.110
2012,-0.035,-0.135
2013,-0.035,-0.135
2014,-0.030,-0.120
2015,-0.025,-0.110
2016,-0.025,-0.105
2017,-0.030,-0.085
2018,-0.030,-0.065
2019,-0.025,-0.050
2020,-0.025,-0.045
2021,-0.020,-0.035
2022,-0.015,-0.010
2023,-0.015,0.000
2024,-0.010,0.005
2025,-0.005,0.010
2026,0.000,0.015
2027,0.000,0.015
2028,0.000,0.015
2029,0.000,0.025
2030,-0.005,0.035
2031,-0.010,0.040
2032,-0.010,0.020
2033,-0.010,-0.010
2034,-0.015,-0.030
2035,-0.015,-0.045
2036,-0.015,-0.050
2037,-0.015,-0.050
2038,-0.015,-0.040
2039,-0.005,-0.015
2040,0.030,0.005
2041,0.180,0.020
2042,0.430,-0.075
2043,0.595,-0.370
2044,0.510,-0.475
2045,0.285,-0.375
2046,0.105,-0.210
2047,0.005,-0.045
2048,-0.020,0.030
2049,-0.025,0.035
2050,-0.030,0.040
2051,-0.035,0.055
2052,-0.040,0.075
2053,-0.040,0.060
2054,-0.040,0.055
2055,-0.035,0.055
2056,-0.035,0.050
2057,-0.030,0.050
2058,-0.025,0.050
2059,-0.025,0.050
2060,-0.020,0.060
2061,-0.015,0.075
2062,-0.015,0.090
2063,-0.010,0.105
2064,-0.005,0.110
2065,0.000,0.110
2066,0.000,0.110
2067,0.000,0.090
2068,0.005,0.070
2069,0.010,0.070
2070,0.010,0.070
2071,0.015,0.075
2072,0.020,0.085
2073,0.030,0.085
2074,0.040,0.085
2075,0.050,0.085
2076,0.060,0.085
2077,0.070,0.085
2078,0.080,0.085
2079,0.080,0.080
2080,0.075,0.075
2081,0.070,0.055
2082,0.060,0.020
2083,0.050,0.000
2084,0.030,0.000
2085,0.015,0.005
2086,0.005,0.015
2087,0.000,0.020
2088,-0.010,0.015
2089,-0.020,0.010
2090,-0.025,0.005
2091,-0.025,0.005
2092,-0.030,0.000
2093,-0.035,0.000
2094,-0.040,0.000
2095,-0.040,0.000
2096,-0.040,-0.025
2097,-0.035,-0.045
2098,-0.035,-0.050
2099,-0.035,-0.050
2100,-0.035,-0.050
2101,-0.035,-0.040
2102,-0.030,-0.045
2103,-0.025,-0.050
2104,-0.025,-0.050
2105,-0.030,-0.050
2106,-0.030,-0.060
2107,-0.030,-0.055
2108,-0.025,-0.050
2109,-0.025,-0.035
2110,-0.020,-0.020
2111,-0.015,-0.020
2112,-0.010,-0.015
2113,-0.005,-0.005
2114,-0.005,0.000
2115,0.000,0.000
2116,0.000,0.000
2117,0.000,0.000
2118,0.000,0.000
2119,-0.005,0.000
2120,-0.010,0.000
2121,-0.010,0.005
2122,-0.010,0.000
2123,-0.015,0.000
2124,-0.015,0.015
2125,-0.015,0.030
2126,-0.015,0.030
2127,-0.015,0.030
2128,-0.010,0.030
2129,0.000,0.035
2130,0.090,0.025
2131,0.310,-0.005
2132,0.560,-0.240
2133,0.585,-0.485
2134,0.390,-0.435
2135,0.175,-0.275
2136,0.040,-0.120
2137,-0.005,-0.025
2138,-0.020,0.020
2139,-0.030,0.035
2140,-0.035,0.040
2141,-0.040,0.050
2142,-0.040,0.040
2143,-0.035,0.035
2144,-0.035,0.040
2145,-0.030,0.030
2146,-0.030,0.025
2147,-0.025,0.030
2148,-0.025,0.045
2149,-0.020,0.055
2150,-0.020,0.055
2151,-0.015,0.060
2152,-0.015,0.055
2153,-0.010,0.055
2154,-0.005,0.070
2155,0.000,0.070
2156,0.000,0.055
2157,0.005,0.055
2158,0.010,0.060
2159,0.010,0.060
2160,0.015,0.070
2161,0.020,0.080
2162,0.025,0.085
2163,0.035,0.085
2164,0.045,0.085
2165,0.055,0.095
2166,0.065,0.100
2167,0.070,0.095
2168,0.075,0.085
2169,0.075,0.080
2170,0.070,0.065
2171,0.065,0.045
2172,0.050,0.035
2173,0.035,0.010
2174,0.020,0.005
2175,0.005,0.005
2176,0.000,0.010
2177,-0.005,0.000
2178,-0.015,0.000
2179,-0.020,0.000
2180,-0.025,0.000
2181,-0.030,0.000
2182,-0.035,0.000
2183,-0.040,0.000
2184,-0.040,0.000
2185,-0.040,-0.010
2186,-0.040,0.000
2187,-0.040,0.000
2188,-0.035,0.000
2189,-0.035,0.000
2190,-0.035,0.000
2191,-0.030,0.000
2192,-0.025,0.000
2193,-0.025,0.000
2194,-0.030,0.000
2195,-0.030,0.000
2196,-0.025,0.000
2197,-0.025,0.000
2198,-0.020,0.000
2199,-0.020,0.000
2200,-0.015,-0.005
2201,-0.015,-0.005
2202,-0.010,0.000
2203,-0.005,0.000
2204,0.000,-0.005
2205,0.000,-0.015
2206,0.000,-0.015
2207,0.000,-0.005
2208,-0.005,0.000
2209,-0.010,0.010
2210,-0.010,0.005
2211,-0.010,0.000
2212,-0.010,0.000
2213,-0.015,-0.030
2214,-0.015,-0.065
2215,-0.015,-0.090
2216,-0.015,-0.105
2217,-0.010,-0.100
2218,-0.005,-0.085
2219,0.045,-0.050
2220,0.245,-0.035
2221,0.510,-0.205
2222,0.595,-0.480
2223,0.445,-0.485
2224,0.225,-0.355
2225,0.075,-0.215
2226,0.005,-0.095
2227,-0.020,-0.025
2228,-0.025,0.000
2229,-0.030,-0.030
2230,-0.035,-0.075
2231,-0.040,-0.080
2232,-0.040,-0.060
2233,-0.035,-0.065
2234,-0.030,-0.080
2235,-0.025,-0.060
2236,-0.025,-0.030
2237,-0.025,-0.005
2238,-0.020,0.000
2239,-0.015,-0.005
2240,-0.015,-0.015
2241,-0.015,-0.010
2242,-0.010,0.005
2243,-0.005,0.020
2244,0.000,0.035
2245,0.000,0.055
2246,0.000,0.070
2247,0.005,0.080
2248,0.010,0.080
2249,0.015,0.085
2250,0.020,0.085
2251,0.025,0.100
2252,0.040,0.110
2253,0.050,0.120
2254,0.060,0.120
2255,0.070,0.115
2256,0.080,0.110
2257,0.085,0.105
2258,0.085,0.090
2259,0.080,0.085
2260,0.075,0.075
2261,0.060,0.060
2262,0.050,0.040
2263,0.030,0.035
2264,0.015,0.030
2265,0.000,0.015
2266,0.000,0.015
2267,-0.010,0.010
2268,-0.020,0.005
2269,-0.025,0.005
2270,-0.030,0.000
2271,-0.035,0.000
2272,-0.040,-0.005
2273,-0.040,-0.010
2274,-0.040,-0.015
2275,-0.040,-0.010
2276,-0.040,-0.010
2277,-0.040,-0.030
2278,-0.040,-0.030
2279,-0.035,-0.020
2280,-0.035,-0.025
2281,-0.030,-0.020
2282,-0.025,-0.010
2283,-0.025,-0.005
2284,-0.030,-0.005
2285,-0.030,-0.010
2286,-0.025,-0.025
2287,-0.020,-0.040
2288,-0.020,-0.050
2289,-0.015,-0.050
2290,-0.015,-0.050
2291,-0.010,-0.055
2292,-0.005,-0.065
2293,-0.005,-0.070
2294,0.000,-0.055
2295,0.000,-0.055
2296,0.000,-0.045
2297,0.000,-0.020
2298,-0.005,-0.010
2299,-0.005,-0.010
2300,-0.005,-0.015
2301,-0.010,-0.035
2302,-0.015,-0.045
2303,-0.015,-0.045
2304,-0.015,-0.050
2305,-0.015,-0.050
2306,-0.015,-0.050
2307,-0.015,-0.090
2308,0.000,-0.065
2309,0.080,-0.045
2310,0.305,-0.065
2311,0.545,-0.295
2312,0.590,-0.520
2313,0.415,-0.490
2314,0.200,-0.340
2315,0.060,-0.190
2316,0.000,-0.090
2317,-0.020,-0.040
2318,-0.030,-0.025
2319,-0.035,-0.020
2320,-0.040,-0.010
2321,-0.040,0.000
2322,-0.035,0.000
2323,-0.035,-0.020
2324,-0.030,-0.045
2325,-0.025,-0.050
2326,-0.025,-0.050
2327,-0.020,-0.045
2328,-0.020,-0.030
2329,-0.015,-0.015
2330,-0.015,-0.010
2331,-0.010,-0.015
2332,-0.005,-0.020
2333,0.000,-0.015
2334,0.000,-0.015
2335,0.000,-0.025
2336,0.005,-0.050
2337,0.010,-0.045
2338,0.010,-0.045
2339,0.015,-0.040
2340,0.025,-0.015
2341,0.030,-0.005
2342,0.045,0.000
2343,0.055,0.000
2344,0.065,0.000
2345,0.075,-0.010
2346,0.085,-0.020
2347,0.085,-0.020
2348,0.090,-0.020
2349,0.085,-0.035
2350,0.080,-0.070
2351,0.065,-0.075
2352,0.045,-0.070
2353,0.025,-0.050
2354,0.010,-0.050
2355,0.000,-0.050
2356,-0.005,-0.050
2357,-0.015,-0.050
2358,-0.025,-0.050
2359,-0.030,-0.030
2360,-0.035,-0.025
2361,-0.040,-0.030
2362,-0.040,-0.045
2363,-0.040,-0.040
2364,-0.040,-0.035
2365,-0.040,-0.025
2366,-0.040,-0.030
2367,-0.040,-0.040
2368,-0.040,-0.040
2369,-0.040,-0.040
2370,-0.035,-0.045
2371,-0.035,-0.050
2372,-0.030,-0.050
2373,-0.025,-0.050
2374,-0.025,-0.055
2375,-0.025,-0.070
2376,-0.025,-0.085
2377,-0.020,-0.080
2378,-0.020,-0.065
2379,-0.015,-0.055
2380,-0.015,-0.050
2381,-0.015,-0.050
2382,-0.010,-0.050
2383,-0.005,-0.050
2384,0.000,-0.045
2385,0.000,-0.040
2386,0.000,-0.035
2387,0.000,-0.030
2388,-0.005,-0.035
2389,-0.005,-0.045
2390,-0.005,-0.045
2391,-0.005,-0.050
2392,-0.005,-0.050
2393,-0.010,-0.060
2394,-0.015,-0.090
2395,-0.015,-0.110
2396,-0.015,-0.120
2397,-0.015,-0.145
2398,-0.010,-0.140
2399,0.035,-0.130
2400,0.200,-0.125
2401,0.450,-0.265
2402,0.590,-0.525
2403,0.500,-0.595
2404,0.285,-0.495
2405,0.110,-0.345
2406,0.015,-0.220
2407,-0.015,-0.155
2408,-0.030,-0.135
2409,-0.035,-0.130
2410,-0.040,-0.115
2411,-0.040,-0.095
2412,-0.040,-0.065
2413,-0.035,-0.030
2414,-0.035,-0.010
2415,-0.030,-0.010
2416,-0.025,-0.010
2417,-0.025,-0.020
2418,-0.020,-0.045
2419,-0.020,-0.030
2420,-0.015,-0.005
2421,-0.015,0.000
2422,-0.010,0.010
2423,0.000,0.030
2424,0.000,0.025
2425,0.000,0.010
2426,0.000,0.005
2427,0.005,0.000
2428,0.010,0.010
2429,0.015,0.005
2430,0.020,0.000
2431,0.030,-0.005
2432,0.040,-0.010
2433,0.045,-0.025
2434,0.055,-0.045
2435,0.065,-0.035
2436,0.075,0.000
2437,0.080,-0.015
2438,0.085,-0.020
2439,0.085,-0.020
2440,0.080,0.000
2441,0.065,0.005
2442,0.050,0.010
2443,0.035,0.000
2444,0.015,0.000
2445,0.005,0.005
2446,0.000,0.005
2447,-0.010,0.005
2448,-0.020,0.005
2449,-0.030,0.010
2450,-0.035,0.015
2451,-0.040,0.005
2452,-0.040,0.000
2453,-0.040,0.000
2454,-0.040,0.005
2455,-0.040,0.010
2456,-0.040,0.005
2457,-0.040,0.000
2458,-0.040,0.005
2459,-0.040,0.015
2460,-0.040,0.015
2461,-0.040,0.020
2462,-0.035,0.030
2463,-0.035,0.010
2464,-0.030,0.000
2465,-0.025,0.000
2466,-0.025,0.000
2467,-0.030,-0.010
2468,-0.030,-0.005
2469,-0.025,0.005
2470,-0.025,0.015
2471,-0.020,0.030
2472,-0.015,0.065
2473,-0.010,0.075
2474,-0.005,0.085
2475,-0.005,0.095
2476,0.000,0.100
2477,0.000,0.090
2478,0.000,0.090
2479,-0.005,0.110
2480,-0.010,0.115
2481,-0.015,0.115
2482,-0.015,0.110
2483,-0.015,0.110
2484,-0.015,0.110
2485,-0.015,0.110
2486,-0.015,0.100
2487,-0.015,0.105
2488,-0.015,0.115
2489,-0.005,0.135
2490,0.080,0.145
2491,0.285,0.100
2492,0.505,-0.115
2493,0.560,-0.340
2494,0.415,-0.345
2495,0.205,-0.195
2496,0.060,-0.040
2497,0.000,0.060
2498,-0.020,0.120
2499,-0.030,0.140
2500,-0.035,0.155
2501,-0.040,0.165
2502,-0.040,0.160
2503,-0.040,0.155
2504,-0.040,0.140
2505,-0.035,0.125
2506,-0.035,0.120
2507,-0.030,0.110
2508,-0.025,0.070
2509,-0.020,0.080
2510,-0.020,0.095
2511,-0.015,0.105
2512,-0.015,0.100
2513,-0.010,0.070
2514,-0.005,0.090
2515,0.000,0.090
2516,0.000,0.110
2517,0.000,0.135
2518,0.000,0.140
2519,0.005,0.145
2520,0.010,0.150
2521,0.010,0.150
2522,0.020,0.150
2523,0.030,0.150
2524,0.040,0.145
2525,0.050,0.125
2526,0.060,0.125
2527,0.070,0.135
2528,0.080,0.140
2529,0.085,0.135
2530,0.080,0.125
2531,0.070,0.110
2532,0.060,0.100
2533,0.040,0.085
2534,0.025,0.065
2535,0.010,0.045
2536,0.000,0.025
2537,-0.005,0.015
2538,-0.015,0.010
2539,-0.020,0.005
2540,-0.030,-0.015
2541,-0.035,-0.025
2542,-0.040,-0.015
2543,-0.040,-0.015
2544,-0.040,0.000
2545,-0.040,0.030
2546,-0.040,0.065
2547,-0.040,0.080
2548,-0.040,0.090
2549,-0.040,0.095
2550,-0.040,0.100
2551,-0.035,0.095
2552,-0.035,0.115
2553,-0.030,0.110
2554,-0.025,0.110
2555,-0.025,0.110
2556,-0.030,0.110
2557,-0.030,0.085
2558,-0.025,0.085
2559,-0.025,0.090
2560,-0.025,0.105
2561,-0.020,0.085
2562,-0.015,0.085
2563,-0.015,0.085
2564,-0.010,0.085
2565,-0.005,0.080
2566,0.000,0.085
2567,0.000,0.090
2568,0.000,0.100
2569,-0.005,0.105
2570,-0.010,0.105
2571,-0.015,0.105
2572,-0.015,0.085
2573,-0.015,0.065
2574,-0.015,0.035
2575,-0.015,0.030
2576,-0.015,0.030
2577,-0.015,0.025
2578,-0.015,0.015
2579,-0.005,0.020
2580,0.050,0.040
2581,0.210,0.045
2582,0.445,-0.085
2583,0.575,-0.325
2584,0.485,-0.415
2585,0.275,-0.315
2586,0.100,-0.175
2587,0.010,-0.050
2588,-0.020,0.010
2589,-0.030,0.030
2590,-0.035,0.040
2591,-0.040,0.040
2592,-0.040,0.035
2593,-0.040,0.025
2594,-0.035,0.005
2595,-0.035,0.000
2596,-0.030,0.005
2597,-0.025,0.020
2598,-0.025,0.025
2599,-0.025,0.025
2600,-0.020,0.050
2601,-0.015,0.065
2602,-0.015,0.075
2603,-0.015,0.085
2604,-0.015,0.095
2605,-0.005,0.105
2606,-0.005,0.100
2607,0.000,0.110
2608,0.000,0.115
2609,0.000,0.105
2610,0.005,0.085
2611,0.010,0.105
2612,0.015,0.115
2613,0.025,0.100
2614,0.035,0.095
2615,0.045,0.095
2616,0.055,0.085
2617,0.065,0.090
2618,0.070,0.085
2619,0.075,0.080
2620,0.075,0.065
2621,0.070,0.035
2622,0.060,0.010
2623,0.045,0.000
2624,0.030,0.000
2625,0.015,0.000
2626,0.005,0.000
2627,0.000,-0.005
2628,-0.010,-0.010
2629,-0.020,-0.010
2630,-0.030,-0.015
2631,-0.035,-0.025
2632,-0.040,-0.045
2633,-0.040,-0.035
2634,-0.040,-0.020
2635,-0.040,-0.005
2636,-0.040,0.000
2637,-0.040,-0.010
2638,-0.040,-0.010
2639,-0.035,0.000
2640,-0.035,0.000
2641,-0.030,0.015
2642,-0.025,0.040
2643,-0.025,0.050
2644,-0.025,0.045
2645,-0.030,0.040
2646,-0.030,0.040
2647,-0.030,0.030
2648,-0.025,0.020
2649,-0.025,0.010
2650,-0.020,0.000
2651,-0.020,0.000
2652,-0.015,0.000
2653,-0.015,0.000
2654,-0.010,0.000
2655,-0.005,0.000
2656,0.000,0.020
2657,0.000,0.030
2658,0.000,0.035
2659,0.000,0.050
2660,-0.005,0.050
2661,-0.005,0.030
2662,-0.005,0.010
2663,-0.005,0.005
2664,-0.010,0.005
2665,-0.015,0.005
2666,-0.015,0.015
2667,-0.015,0.010
2668,-0.015,0.000
2669,-0.015,0.000
2670,0.000,0.000
2671,0.070,0.010
2672,0.260,-0.015
2673,0.495,-0.170
2674,0.585,-0.410
2675,0.455,-0.440
2676,0.235,-0.315
2677,0.075,-0.155
2678,0.000,-0.045
2679,-0.020,0.000
2680,-0.030,0.010
2681,-0.035,0.005
2682,-0.040,0.005
2683,-0.040,0.015
2684,-0.035,0.025
2685,-0.035,0.025
2686,-0.030,0.030
2687,-0.030,0.025
2688,-0.030,0.005
2689,-0.025,0.005
2690,-0.025,0.010
2691,-0.020,0.020
2692,-0.015,0.035
2693,-0.015,0.010
2694,-0.015,0.030
2695,-0.005,0.060
2696,-0.005,0.075
2697,0.000,0.060
2698,0.000,0.055
2699,0.000,0.070
2700,0.005,0.100
2701,0.010,0.105
2702,0.015,0.105
2703,0.020,0.110
2704,0.030,0.100
2705,0.040,0.085
2706,0.050,0.085
2707,0.055,0.090
2708,0.065,0.100
2709,0.070,0.110
2710,0.075,0.110
2711,0.075,0.090
2712,0.070,0.060
2713,0.060,0.040
2714,0.045,0.030
2715,0.025,0.020
2716,0.015,0.010
2717,0.005,0.005
2718,0.000,0.000
2719,-0.015,0.000
2720,-0.020,-0.005
2721,-0.030,-0.005
2722,-0.030,-0.005
2723,-0.035,-0.010
2724,-0.040,-0.005
2725,-0.040,0.000
2726,-0.040,-0.010
2727,-0.040,-0.005
2728,-0.040,0.000
2729,-0.035,0.000
2730,-0.035,0.000
2731,-0.035,0.005
2732,-0.030,0.000
2733,-0.025,0.000
2734,-0.025,0.000
2735,-0.030,-0.005
2736,-0.030,-0.005
2737,-0.025,0.000
2738,-0.025,0.000
2739,-0.020,0.025
2740,-0.020,0.035
2741,-0.020,0.040
2742,-0.020,0.035
2743,-0.015,0.035
2744,-0.010,0.030
2745,-0.005,0.005
2746,-0.005,-0.030
2747,0.000,-0.050
2748,0.000,-0.065
2749,0.000,-0.065
2750,0.000,-0.050
2751,-0.005,-0.050
2752,-0.005,-0.045
2753,-0.005,-0.045
2754,-0.005,-0.060
2755,-0.010,-0.065
2756,-0.015,-0.055
2757,-0.010,-0.050
2758,-0.010,-0.050
2759,-0.010,-0.050
2760,-0.010,-0.050
2761,0.015,-0.050
2762,0.125,-0.065
2763,0.355,-0.145
2764,0.565,-0.390
2765,0.565,-0.590
2766,0.370,-0.510
2767,0.155,-0.315
2768,0.035,-0.115
2769,-0.005,0.000
2770,-0.025,0.065
2771,-0.030,0.100
2772,-0.035,0.115
2773,-0.035,0.115
2774,-0.035,0.115
2775,-0.035,0.120
2776,-0.030,0.135
2777,-0.025,0.120
2778,-0.025,0.120
2779,-0.025,0.130
2780,-0.025,0.135
2781,-0.020,0.140
2782,-0.015,0.140
2783,-0.015,0.140
2784,-0.015,0.140
2785,-0.010,0.125
2786,-0.005,0.120
2787,0.000,0.125
2788,0.000,0.135
2789,0.000,0.140
2790,0.005,0.140
2791,0.010,0.140
2792,0.015,0.140
2793,0.020,0.140
2794,0.030,0.130
2795,0.035,0.120
2796,0.045,0.125
2797,0.055,0.125
2798,0.065,0.110
2799,0.075,0.110
2800,0.085,0.115
2801,0.085,0.115
2802,0.080,0.105
2803,0.075,0.085
2804,0.060,0.075
2805,0.040,0.065
2806,0.025,0.060
2807,0.010,0.055
2808,0.000,0.040
2809,-0.005,0.035
2810,-0.015,0.045
2811,-0.025,0.020
2812,-0.025,0.040
2813,-0.030,0.050
2814,-0.035,0.045
2815,-0.040,0.040
2816,-0.040,0.015
2817,-0.040,0.005
2818,-0.040,0.010
2819,-0.040,0.015
2820,-0.035,0.015
2821,-0.035,0.020
2822,-0.035,0.025
2823,-0.035,0.025
2824,-0.030,0.025
2825,-0.025,0.025
2826,-0.025,0.020
2827,-0.025,0.020
2828,-0.025,0.020
2829,-0.020,0.020
2830,-0.015,0.025
2831,-0.015,0.030
2832,-0.015,0.020
2833,-0.015,0.015
2834,-0.015,0.020
2835,-0.010,0.015
2836,-0.005,0.015
2837,0.000,0.015
2838,0.000,0.015
2839,0.000,0.020
2840,0.000,0.025
2841,0.000,0.035
2842,-0.005,0.035
2843,-0.005,0.030
2844,-0.005,0.020
2845,-0.010,0.005
2846,-0.015,0.000
2847,-0.015,0.000
2848,-0.015,0.000
2849,-0.015,0.000
2850,-0.015,0.000
2851,-0.010,0.005
2852,0.025,0.010
2853,0.180,0.000
2854,0.435,-0.100
2855,0.615,-0.405
2856,0.540,-0.515
2857,0.305,-0.395
2858,0.110,-0.230
2859,0.015,-0.110
2860,-0.010,-0.055
2861,-0.025,-0.025
2862,-0.030,-0.020
2863,-0.035,-0.010
2864,-0.040,0.000
2865,-0.040,0.000
2866,-0.035,-0.030
2867,-0.035,-0.050
2868,-0.030,-0.050
2869,-0.025,-0.060
2870,-0.025,-0.090
2871,-0.025,-0.075
2872,-0.020,-0.040
2873,-0.015,-0.020
2874,-0.010,-0.010
2875,-0.005,-0.005
2876,-0.005,0.000
2877,0.000,0.000
2878,0.000,-0.010
2879,0.005,-0.020
2880,0.010,-0.020
2881,0.010,-0.015
2882,0.015,-0.010
2883,0.020,0.000
2884,0.025,0.000
2885,0.035,-0.005
2886,0.045,-0.015
2887,0.055,-0.015
2888,0.065,-0.020
2889,0.075,-0.035
2890,0.085,-0.050
2891,0.090,-0.055
2892,0.085,-0.040
2893,0.080,-0.025
2894,0.070,-0.020
2895,0.055,-0.020
2896,0.035,-0.040
2897,0.020,-0.045
2898,0.005,-0.065
2899,0.000,-0.075
2900,-0.010,-0.080
2901,-0.020,-0.095
2902,-0.025,-0.100
2903,-0.030,-0.090
2904,-0.035,-0.075
2905,-0.040,-0.075
2906,-0.040,-0.075
2907,-0.040,-0.090
2908,-0.040,-0.095
2909,-0.040,-0.095
2910,-0.040,-0.060
2911,-0.040,-0.035
2912,-0.040,-0.025
2913,-0.040,-0.015
2914,-0.035,-0.010
2915,-0.035,-0.005
2916,-0.030,0.000
2917,-0.025,-0.005
2918,-0.025,-0.005
2919,-0.025,-0.010
2920,-0.025,-0.030
2921,-0.025,-0.045
2922,-0.020,-0.040
2923,-0.020,-0.040
2924,-0.020,-0.045
2925,-0.015,-0.040
2926,-0.010,-0.040
2927,-0.005,-0.040
2928,-0.005,-0.050
2929,0.000,-0.055
2930,0.000,-0.065
2931,0.000,-0.065
2932,0.000,-0.035
2933,0.000,-0.015
2934,-0.005,0.000
2935,-0.005,0.000
2936,-0.010,0.000
2937,-0.015,0.000
2938,-0.015,0.000
2939,-0.015,0.000
2940,-0.015,0.000
2941,-0.020,-0.015
2942,-0.015,-0.015
2943,0.005,0.000
2944,0.145,0.000
2945,0.410,-0.065
2946,0.615,-0.375
2947,0.555,-0.510
2948,0.325,-0.415
2949,0.125,-0.245
2950,0.020,-0.100
2951,-0.015,-0.035
2952,-0.025,-0.005
2953,-0.030,0.000
2954,-0.035,0.000
2955,-0.040,0.000
2956,-0.040,0.000
2957,-0.040,0.005
2958,-0.035,0.010
2959,-0.035,0.015
2960,-0.030,0.020
2961,-0.025,0.015
2962,-0.025,0.010
2963,-0.020,0.010
2964,-0.015,0.015
2965,-0.015,0.020
2966,-0.010,0.020
2967,-0.005,0.025
2968,-0.005,0.030
2969,0.000,0.030
2970,0.000,0.035
2971,0.005,0.030
2972,0.005,0.020
2973,0.010,0.015
2974,0.015,0.005
2975,0.020,0.015
2976,0.030,0.030
2977,0.040,0.030
2978,0.050,0.035
2979,0.060,0.040
2980,0.070,0.045
2981,0.080,0.045
2982,0.085,0.040
2983,0.080,0.030
2984,0.075,0.020
2985,0.065,0.005
2986,0.050,0.000
2987,0.040,0.000
2988,0.020,0.005
2989,0.010,0.010
2990,0.000,0.010
2991,-0.010,0.000
2992,-0.015,0.000
2993,-0.025,0.000
2994,-0.030,0.005
2995,-0.035,0.010
2996,-0.040,0.015
2997,-0.040,0.015
2998,-0.040,0.015
2999,-0.040,0.015
3000,-0.040,0.015
3001,-0.040,0.015
3002,-0.040,0.015
3003,-0.040,0.005
3004,-0.040,0.000
3005,-0.040,0.010
3006,-0.035,0.010
3007,-0.035,0.010
3008,-0.030,0.020
3009,-0.025,0.025
3010,-0.025,0.025
3011,-0.025,0.030
3012,-0.025,0.025
3013,-0.025,0.025
3014,-0.025,0.035
3015,-0.020,0.040
3016,-0.020,0.045
3017,-0.015,0.040
3018,-0.010,0.030
3019,-0.005,0.020
3020,0.000,0.000
3021,0.000,0.000
3022,0.000,0.010
3023,0.000,0.035
3024,-0.005,0.055
3025,-0.005,0.070
3026,-0.010,0.075
3027,-0.015,0.065
3028,-0.015,0.045
3029,-0.015,0.030
3030,-0.015,0.030
3031,-0.015,0.040
3032,-0.015,0.045
3033,-0.015,0.050
3034,0.000,0.060
3035,0.090,0.075
3036,0.315,0.035
3037,0.545,-0.195
3038,0.570,-0.400
3039,0.390,-0.390
3040,0.180,-0.240
3041,0.050,-0.080
3042,0.000,0.015
3043,-0.025,0.050
3044,-0.030,0.060
3045,-0.035,0.070
3046,-0.040,0.080
3047,-0.040,0.085
3048,-0.040,0.095
3049,-0.035,0.100
3050,-0.035,0.090
3051,-0.035,0.085
3052,-0.030,0.080
3053,-0.025,0.080
3054,-0.025,0.085
3055,-0.020,0.085
3056,-0.015,0.095
3057,-0.015,0.105
3058,-0.010,0.110
3059,-0.005,0.110
3060,0.000,0.110
3061,0.000,0.120
3062,0.000,0.115
3063,0.005,0.100
3064,0.010,0.085
3065,0.015,0.090
3066,0.020,0.100
3067,0.025,0.110
3068,0.035,0.125
3069,0.045,0.125
3070,0.055,0.140
3071,0.065,0.145
3072,0.070,0.145
3073,0.075,0.140
3074,0.080,0.120
3075,0.080,0.115
3076,0.070,0.110
3077,0.055,0.095
3078,0.040,0.080
3079,0.025,0.065
3080,0.010,0.055
3081,0.000,0.055
3082,0.000,0.055
3083,-0.010,0.055
3084,-0.020,0.055
3085,-0.025,0.055
3086,-0.030,0.045
3087,-0.035,0.045
3088,-0.040,0.050
3089,-0.040,0.050
3090,-0.040,0.055
3091,-0.040,0.060
3092,-0.040,0.055
3093,-0.040,0.045
3094,-0.040,0.020
3095,-0.040,0.000
3096,-0.035,0.005
3097,-0.035,0.020
3098,-0.030,0.035
3099,-0.030,0.035
3100,-0.025,0.040
3101,-0.025,0.050
3102,-0.025,0.045
3103,-0.025,0.040
3104,-0.025,0.050
3105,-0.020,0.055
3106,-0.020,0.055
3107,-0.015,0.050
3108,-0.010,0.065
3109,-0.005,0.075
3110,-0.005,0.080
3111,0.000,0.085
3112,0.000,0.080
3113,0.000,0.065
3114,-0.005,0.060
3115,-0.005,0.035
3116,-0.005,0.025
3117,-0.010,-0.020
3118,-0.010,-0.070
3119,-0.010,-0.075
3120,-0.015,-0.030
3121,-0.015,0.000
3122,-0.015,0.000
3123,-0.015,0.020
3124,-0.015,0.050
3125,0.000,0.075
3126,0.110,0.085
3127,0.335,0.030
3128,0.550,-0.210
3129,0.560,-0.385
3130,0.380,-0.365
3131,0.175,-0.215
3132,0.045,-0.075
3133,-0.005,0.015
3134,-0.025,0.065
3135,-0.030,0.085
3136,-0.035,0.085
3137,-0.040,0.090
3138,-0.040,0.090
3139,-0.035,0.085
3140,-0.035,0.080
3141,-0.030,0.075
3142,-0.025,0.070
3143,-0.025,0.070
3144,-0.025,0.085
3145,-0.020,0.105
3146,-0.015,0.110
3147,-0.015,0.110
3148,-0.015,0.105
3149,-0.010,0.105
3150,-0.005,0.110
3151,0.000,0.110
3152,0.000,0.110
3153,0.000,0.110
3154,0.000,0.115
3155,0.005,0.120
3156,0.010,0.120
3157,0.015,0.130
3158,0.020,0.130
3159,0.025,0.135
3160,0.040,0.135
3161,0.050,0.125
3162,0.055,0.130
3163,0.065,0.135
3164,0.070,0.125
3165,0.075,0.115
3166,0.075,0.095
3167,0.065,0.075
3168,0.055,0.060
3169,0.040,0.040
3170,0.020,0.035
3171,0.010,0.030
3172,0.000,0.025
3173,-0.005,0.015
3174,-0.015,0.015
3175,-0.020,0.010
3176,-0.025,0.000
3177,-0.030,0.000
3178,-0.035,0.005
3179,-0.040,0.005
3180,-0.040,0.000
3181,-0.040,0.000
3182,-0.040,0.005
3183,-0.040,0.010
3184,-0.040,0.010
3185,-0.040,0.010
3186,-0.035,0.015
3187,-0.035,0.015
3188,-0.030,0.010
3189,-0.025,0.010
3190,-0.025,0.005
3191,-0.030,0.000
3192,-0.025,0.000
3193,-0.025,0.000
3194,-0.020,0.000
3195,-0.020,0.000
3196,-0.015,-0.010
3197,-0.015,-0.015
3198,-0.015,-0.015
3199,-0.010,-0.020
3200,-0.010,-0.030
3201,-0.005,-0.040
3202,0.000,-0.025
3203,0.000,-0.010
3204,0.000,0.000
3205,0.000,0.010
3206,-0.005,0.015
3207,-0.005,0.015
3208,-0.005,0.010
3209,-0.005,0.010
3210,-0.010,0.000
3211,-0.015,-0.015
3212,-0.015,-0.040
3213,-0.015,-0.060
3214,-0.015,-0.085
3215,-0.010,-0.085
3216,0.025,-0.085
3217,0.170,-0.085
3218,0.410,-0.195
3219,0.575,-0.435
3220,0.525,-0.555
3221,0.325,-0.460
3222,0.130,-0.270
3223,0.025,-0.100
3224,-0.010,-0.010
3225,-0.025,0.025
3226,-0.035,0.040
3227,-0.040,0.045
3228,-0.040,0.040
3229,-0.040,0.040
3230,-0.035,0.050
3231,-0.035,0.050
3232,-0.030,0.050
3233,-0.025,0.050
3234,-0.025,0.040
3235,-0.025,0.000
3236,-0.020,-0.025
3237,-0.020,-0.025
3238,-0.015,-0.010
3239,-0.015,-0.005
3240,-0.010,0.000
3241,-0.005,0.000
3242,0.000,0.005
3243,0.000,0.055
3244,0.000,0.090
3245,0.000,0.110
3246,0.005,0.115
3247,0.010,0.135
3248,0.015,0.125
3249,0.025,0.125
3250,0.030,0.130
3251,0.040,0.125
3252,0.050,0.120
3253,0.060,0.120
3254,0.065,0.120
3255,0.070,0.120
3256,0.075,0.095
3257,0.070,0.070
3258,0.060,0.040
3259,0.050,0.015
3260,0.030,0.000
3261,0.015,0.000
3262,0.005,0.000
3263,-0.005,0.000
3264,-0.015,0.005
3265,-0.020,0.010
3266,-0.025,0.010
3267,-0.030,0.010
3268,-0.035,0.005
3269,-0.040,0.005
3270,-0.040,0.010
3271,-0.040,0.010
3272,-0.040,0.005
3273,-0.040,-0.005
3274,-0.040,-0.030
3275,-0.040,-0.045
3276,-0.040,-0.035
3277,-0.040,-0.005
3278,-0.035,0.000
3279,-0.030,0.000
3280,-0.025,0.000
3281,-0.025,0.005
3282,-0.025,0.010
3283,-0.030,0.010
3284,-0.030,0.000
3285,-0.025,0.000
3286,-0.025,0.000
3287,-0.025,0.005
3288,-0.020,0.005
3289,-0.015,0.010
3290,-0.015,0.005
3291,-0.005,0.005
3292,-0.005,0.010
3293,0.000,0.005
3294,0.000,0.015
3295,0.000,0.030
3296,-0.005,0.035
3297,-0.010,0.040
3298,-0.010,0.030
3299,-0.010,0.000
3300,-0.010,-0.035
3301,-0.015,-0.070
3302,-0.015,-0.075
3303,-0.015,-0.080
3304,-0.015,-0.085
3305,-0.015,-0.075
3306,0.000,-0.075
3307,0.090,-0.070
3308,0.300,-0.135
3309,0.525,-0.335
3310,0.575,-0.510
3311,0.415,-0.470
3312,0.205,-0.315
3313,0.060,-0.135
3314,0.000,-0.020
3315,-0.020,0.025
3316,-0.030,0.050
3317,-0.035,0.065
3318,-0.040,0.065
3319,-0.040,0.055
3320,-0.040,0.055
3321,-0.040,0.050
3322,-0.035,0.045
3323,-0.030,0.040
3324,-0.025,0.045
3325,-0.025,0.045
3326,-0.025,0.040
3327,-0.020,0.040
3328,-0.020,0.040
3329,-0.015,0.040
3330,-0.015,0.045
3331,-0.010,0.050
3332,-0.005,0.055
3333,0.000,0.065
3334,0.000,0.075
3335,0.000,0.080
3336,0.005,0.090
3337,0.010,0.110
3338,0.015,0.115
3339,0.020,0.120
3340,0.035,0.125
3341,0.040,0.130
3342,0.050,0.135
3343,0.060,0.140
3344,0.070,0.140
3345,0.075,0.140
3346,0.080,0.140
3347,0.075,0.130
3348,0.070,0.120
3349,0.060,0.120
3350,0.045,0.115
3351,0.025,0.110
3352,0.010,0.095
3353,0.000,0.080
3354,-0.005,0.070
3355,-0.015,0.055
3356,-0.020,0.050
3357,-0.030,0.045
3358,-0.035,0.035
3359,-0.040,0.025
3360,-0.040,0.015
3361,-0.040,0.015
3362,-0.040,0.025
3363,-0.040,0.030
3364,-0.040,0.025
3365,-0.040,0.020
3366,-0.040,0.015
3367,-0.035,0.015
3368,-0.035,0.015
3369,-0.030,0.015
3370,-0.025,0.015
3371,-0.025,0.025
3372,-0.025,0.035
3373,-0.030,0.040
3374,-0.030,0.040
3375,-0.030,0.040
3376,-0.025,0.040
3377,-0.025,0.045
3378,-0.020,0.050
3379,-0.020,0.050
3380,-0.015,0.040
3381,-0.010,0.040
3382,-0.005,0.040
3383,0.000,0.045
3384,0.000,0.050
3385,0.000,0.050
3386,0.000,0.055
3387,-0.005,0.060
3388,-0.010,0.055
3389,-0.005,0.045
3390,-0.005,0.030
3391,-0.010,0.020
3392,-0.015,0.015
3393,-0.015,0.005
3394,-0.015,0.000
3395,-0.015,0.000
3396,-0.015,0.000
3397,0.015,0.000
3398,0.140,0.005
3399,0.375,-0.070
3400,0.575,-0.300
3401,0.565,-0.480
3402,0.365,-0.400
3403,0.150,-0.235
3404,0.030,-0.090
3405,-0.010,-0.010
3406,-0.025,0.015
3407,-0.035,0.030
3408,-0.040,0.025
3409,-0.040,0.025
3410,-0.040,0.040
3411,-0.035,0.055
3412,-0.035,0.050
3413,-0.030,0.035
3414,-0.030,0.025
3415,-0.025,0.005
3416,-0.025,0.000
3417,-0.025,0.000
3418,-0.020,0.000
3419,-0.015,0.000
3420,-0.015,0.000
3421,-0.010,0.000
3422,-0.005,0.000
3423,0.000,0.000
3424,0.000,0.000
3425,0.000,0.000
3426,0.005,0.005
3427,0.010,0.015
3428,0.015,0.030
3429,0.020,0.045
3430,0.030,0.060
3431,0.040,0.070
3432,0.050,0.080
3433,0.060,0.085
3434,0.070,0.085
3435,0.075,0.080
3436,0.085,0.080
3437,0.085,0.070
3438,0.080,0.060
3439,0.070,0.060
3440,0.055,0.055
3441,0.040,0.045
3442,0.025,0.030
3443,0.010,0.030
3444,0.000,0.040
3445,-0.005,0.040
3446,-0.020,0.040
3447,-0.030,0.040
3448,-0.035,0.040
3449,-0.040,0.035
3450,-0.040,0.025
3451,-0.040,0.020
3452,-0.040,0.015
3453,-0.040,0.015
3454,-0.040,0.010
3455,-0.040,0.010
3456,-0.040,0.010
3457,-0.040,0.000
3458,-0.040,0.000
3459,-0.035,0.000
3460,-0.035,0.000
3461,-0.030,0.000
3462,-0.025,0.000
3463,-0.025,0.005
3464,-0.030,0.005
3465,-0.025,0.000
3466,-0.025,0.000
3467,-0.025,0.000
3468,-0.020,0.000
3469,-0.020,0.000
3470,-0.015,0.000
3471,-0.010,0.000
3472,-0.005,0.000
3473,-0.005,0.000
3474,0.000,0.005
3475,0.000,0.005
3476,0.000,0.005
3477,0.000,0.010
3478,-0.005,0.015
3479,-0.010,0.015
3480,-0.010,0.010
3481,-0.010,0.000
3482,-0.015,0.000
3483,-0.015,0.000
3484,-0.015,0.000
3485,-0.015,0.000
3486,-0.015,-0.010
3487,-0.010,-0.030
3488,0.025,-0.015
3489,0.165,-0.005
3490,0.415,-0.095
3491,0.600,-0.370
3492,0.540,-0.520
3493,0.320,-0.415
3494,0.120,-0.235
3495,0.015,-0.090
3496,-0.015,-0.020
3497,-0.030,0.000
3498,-0.035,0.000
3499,-0.035,0.000
3500,-0.040,0.005
3501,-0.040,0.010
3502,-0.040,0.015
3503,-0.035,0.025
3504,-0.035,0.030
3505,-0.030,0.035
3506,-0.025,0.035
3507,-0.025,0.035
3508,-0.020,0.035
3509,-0.020,0.035
3510,-0.015,0.035
3511,-0.010,0.035
3512,-0.005,0.035
3513,-0.005,0.035
3514,0.000,0.030
3515,0.000,0.030
3516,0.005,0.030
3517,0.010,0.030
3518,0.010,0.030
3519,0.015,0.035
3520,0.025,0.040
3521,0.030,0.040
3522,0.040,0.050
3523,0.050,0.050
3524,0.060,0.055
3525,0.070,0.060
3526,0.080,0.060
3527,0.085,0.055
3528,0.085,0.050
3529,0.080,0.045
3530,0.070,0.035
3531,0.055,0.030
3532,0.040,0.015
3533,0.020,0.010
3534,0.005,0.010
3535,0.000,0.010
3536,-0.010,0.010
3537,-0.020,0.010
3538,-0.030,0.010
3539,-0.035,0.015
3540,-0.040,0.015
3541,-0.040,0.015
3542,-0.040,0.015
3543,-0.040,0.015
3544,-0.040,0.020
3545,-0.040,0.015
3546,-0.040,0.010
3547,-0.040,0.000
3548,-0.040,0.000
3549,-0.040,0.005
3550,-0.035,0.005
3551,-0.035,0.005
3552,-0.030,0.010
3553,-0.025,0.010
3554,-0.025,0.010
3555,-0.030,0.010
3556,-0.030,0.005
3557,-0.025,0.005
3558,-0.025,0.005
3559,-0.025,0.005
3560,-0.020,0.005
3561,-0.020,0.010
3562,-0.010,0.005
3563,-0.005,0.000
3564,-0.005,0.005
3565,0.000,0.015
3566,0.000,0.015
3567,0.000,0.025
3568,-0.005,0.035
3569,-0.010,0.035
3570,-0.015,0.030
3571,-0.015,0.020
3572,-0.015,0.005
3573,-0.015,0.005
3574,-0.015,0.005
3575,-0.015,0.010
3576,-0.015,0.010
3577,-0.020,0.010
3578,-0.010,0.020
3579,0.045,0.035
3580,0.225,0.020
3581,0.485,-0.115
3582,0.600,-0.420
3583,0.460,-0.465
3584,0.235,-0.325
3585,0.070,-0.165
3586,0.000,-0.060
3587,-0.020,0.000
3588,-0.030,0.015
3589,-0.035,0.030
3590,-0.040,0.045
3591,-0.040,0.050
3592,-0.040,0.055
3593,-0.035,0.055
3594,-0.035,0.055
3595,-0.035,0.060
3596,-0.035,0.060
3597,-0.025,0.060
3598,-0.025,0.070
3599,-0.020,0.070
3600,-0.015,0.070
3601,-0.015,0.070
3602,-0.015,0.070
3603,-0.010,0.075
3604,-0.005,0.080
3605,0.000,0.085
3606,0.000,0.085
3607,0.000,0.085
3608,0.005,0.095
3609,0.010,0.105
3610,0.015,0.105
3611,0.020,0.105
3612,0.030,0.105
3613,0.035,0.110
3614,0.045,0.110
3615,0.055,0.110
3616,0.065,0.105
3617,0.075,0.090
3618,0.075,0.085
3619,0.075,0.070
3620,0.070,0.065
3621,0.060,0.050
3622,0.045,0.045
3623,0.025,0.030
3624,0.010,0.000
3625,0.000,-0.010
3626,0.000,-0.005
3627,-0.010,0.000
3628,-0.015,-0.005
3629,-0.025,-0.010
3630,-0.030,0.000
3631,-0.035,0.000
3632,-0.040,0.000
3633,-0.040,0.000
3634,-0.040,0.000
3635,-0.040,0.000
3636,-0.040,0.000
3637,-0.035,0.000
3638,-0.035,-0.010
3639,-0.030,-0.025
3640,-0.025,-0.035
3641,-0.025,-0.030
3642,-0.030,-0.010
3643,-0.030,0.000
3644,-0.030,0.000
3645,-0.025,0.000
3646,-0.025,0.005
3647,-0.020,0.005
3648,-0.015,0.005
3649,-0.015,0.005
3650,-0.015,0.010
3651,-0.015,0.015
3652,-0.010,0.020
3653,-0.005,0.025
3654,0.000,0.025
3655,0.000,0.030
3656,0.000,0.035
3657,0.000,0.050
3658,-0.010,0.050
3659,-0.015,0.050
3660,-0.010,0.045
3661,-0.010,0.030
3662,-0.015,0.005
3663,-0.015,-0.005
3664,-0.015,-0.050
3665,-0.015,-0.045
3666,-0.015,-0.040
3667,-0.015,-0.035
3668,-0.005,-0.005
3669,0.070,0.000
3670,0.290,0.000
3671,0.545,-0.215
3672,0.595,-0.475
3673,0.420,-0.460
3674,0.200,-0.325
3675,0.055,-0.160
3676,0.000,-0.045
3677,-0.020,0.000
3678,-0.030,0.015
3679,-0.035,0.020
3680,-0.040,0.025
3681,-0.040,0.025
3682,-0.040,0.015
3683,-0.035,0.000
3684,-0.035,-0.005
3685,-0.030,-0.005
3686,-0.025,0.000
3687,-0.025,0.015
3688,-0.025,0.030
3689,-0.020,0.035
3690,-0.015,0.045
3691,-0.015,0.055
3692,-0.010,0.060
3693,-0.005,0.070
3694,0.000,0.075
3695,0.000,0.070
3696,0.000,0.070
3697,0.005,0.080
3698,0.010,0.085
3699,0.010,0.085
3700,0.015,0.090
3701,0.020,0.095
3702,0.030,0.100
3703,0.040,0.085
3704,0.050,0.080
3705,0.060,0.075
3706,0.065,0.055
3707,0.070,0.055
3708,0.075,0.050
3709,0.070,0.035
3710,0.065,0.020
3711,0.050,0.000
3712,0.040,-0.005
3713,0.025,-0.010
3714,0.010,0.000
3715,0.000,0.000
3716,0.000,0.000
3717,-0.010,0.000
3718,-0.020,0.000
3719,-0.025,0.000
3720,-0.030,0.005
3721,-0.035,0.005
3722,-0.040,0.005
3723,-0.040,0.000
3724,-0.040,0.000
3725,-0.040,0.000
3726,-0.035,0.000
3727,-0.035,0.000
3728,-0.030,0.000
3729,-0.025,0.000
3730,-0.025,0.005
3731,-0.025,0.005
3732,-0.030,0.005
3733,-0.030,0.010
3734,-0.030,0.010
3735,-0.030,0.010
3736,-0.025,0.015
3737,-0.020,0.015
3738,-0.020,0.015
3739,-0.015,0.015
3740,-0.015,0.015
3741,-0.010,0.015
3742,-0.005,0.015
3743,0.000,0.025
3744,0.000,0.025
3745,0.000,0.025
3746,0.000,0.035
3747,-0.005,0.040
3748,-0.010,0.035
3749,-0.005,0.030
3750,-0.005,0.010
3751,-0.010,0.000
3752,-0.015,0.000
3753,-0.015,0.000
3754,-0.015,0.000
3755,-0.015,0.000
3756,-0.015,-0.005
3757,-0.010,-0.015
3758,0.045,-0.045
3759,0.235,-0.065
3760,0.500,-0.255
3761,0.595,-0.515
3762,0.465,-0.535
3763,0.245,-0.395
3764,0.080,-0.220
3765,0.005,-0.090
3766,-0.015,-0.025
3767,-0.030,-0.010
3768,-0.035,-0.010
3769,-0.040,-0.010
3770,-0.040,-0.015
3771,-0.040,-0.010
3772,-0.035,0.000
3773,-0.035,0.000
3774,-0.030,0.000
3775,-0.025,0.000
3776,-0.025,0.005
3777,-0.025,0.010
3778,-0.020,0.025
3779,-0.020,0.030
3780,-0.015,0.030
3781,-0.015,0.030
3782,-0.010,0.030
3783,-0.005,0.040
3784,0.000,0.045
3785,0.000,0.055
3786,0.005,0.060
3787,0.010,0.060
3788,0.010,0.060
3789,0.015,0.075
3790,0.020,0.075
3791,0.025,0.085
3792,0.040,0.085
3793,0.045,0.085
3794,0.055,0.085
3795,0.065,0.095
3796,0.070,0.095
3797,0.075,0.090
3798,0.075,0.080
3799,0.070,0.070
3800,0.060,0.055
3801,0.045,0.050
3802,0.025,0.035
3803,0.010,0.030
3804,0.000,0.020
3805,0.000,0.015
3806,-0.010,0.005
3807,-0.020,0.000
3808,-0.025,0.000
3809,-0.030,0.000
3810,-0.035,0.000
3811,-0.035,0.000
3812,-0.040,0.000
3813,-0.040,0.000
3814,-0.040,0.000
3815,-0.035,0.000
3816,-0.035,0.000
3817,-0.030,0.000
3818,-0.025,0.000
3819,-0.025,0.000
3820,-0.030,0.005
3821,-0.030,0.005
3822,-0.030,0.005
3823,-0.025,0.010
3824,-0.025,0.015
3825,-0.020,0.015
3826,-0.020,0.015
3827,-0.020,0.020
3828,-0.015,0.020
3829,-0.010,0.010
3830,-0.005,0.005
3831,-0.005,0.000
3832,0.000,0.000
3833,0.000,0.000
3834,0.000,0.000
3835,-0.005,0.010
3836,-0.005,0.020
3837,-0.005,0.025
3838,-0.005,0.025
3839,-0.010,0.010
3840,-0.015,0.010
3841,-0.015,0.005
3842,-0.015,0.005
3843,-0.015,0.000
3844,-0.015,0.000
3845,-0.015,0.000
3846,0.005,0.000
3847,0.120,-0.005
3848,0.360,-0.070
3849,0.560,-0.345
3850,0.550,-0.500
3851,0.360,-0.460
3852,0.160,-0.295
3853,0.040,-0.140
3854,-0.005,-0.040
3855,-0.020,-0.005
3856,-0.030,0.005
3857,-0.035,0.010
3858,-0.040,0.015
3859,-0.040,0.015
3860,-0.040,0.015
3861,-0.035,0.015
3862,-0.035,0.015
3863,-0.030,0.015
3864,-0.025,0.020
3865,-0.025,0.025
3866,-0.020,0.035
3867,-0.020,0.035
3868,-0.015,0.035
3869,-0.015,0.035
3870,-0.010,0.030
3871,-0.005,0.025
3872,0.000,0.025
3873,0.000,0.040
3874,0.000,0.050
3875,0.005,0.035
3876,0.010,0.025
3877,0.015,0.035
3878,0.020,0.040
3879,0.025,0.040
3880,0.035,0.055
3881,0.045,0.070
3882,0.055,0.075
3883,0.060,0.075
3884,0.065,0.080
3885,0.075,0.085
3886,0.080,0.085
3887,0.075,0.085
3888,0.065,0.080
3889,0.050,0.080
3890,0.035,0.070
3891,0.015,0.070
3892,0.005,0.065
3893,0.000,0.070
3894,-0.010,0.070
3895,-0.015,0.075
3896,-0.025,0.070
3897,-0.030,0.070
3898,-0.035,0.060
3899,-0.040,0.055
3900,-0.040,0.055
3901,-0.040,0.050
3902,-0.040,0.050
3903,-0.040,0.055
3904,-0.040,0.055
3905,-0.040,0.050
3906,-0.035,0.050
3907,-0.035,0.055
3908,-0.030,0.055
3909,-0.025,0.060
3910,-0.025,0.065
3911,-0.025,0.070
3912,-0.025,0.070
3913,-0.025,0.070
3914,-0.020,0.080
3915,-0.020,0.080
3916,-0.015,0.080
3917,-0.015,0.085
3918,-0.010,0.085
3919,-0.005,0.085
3920,0.000,0.080
3921,0.000,0.080
3922,0.000,0.080
3923,0.000,0.080
3924,-0.005,0.075
3925,-0.005,0.075
3926,-0.005,0.075
3927,-0.005,0.070
3928,-0.005,0.055
3929,-0.010,0.040
3930,-0.015,0.040
3931,-0.015,0.040
3932,-0.015,0.045
3933,-0.015,0.040
3934,-0.010,0.045
3935,0.030,0.050
3936,0.190,0.040
3937,0.440,-0.080
3938,0.590,-0.350
3939,0.505,-0.440
3940,0.295,-0.340
3941,0.115,-0.175
3942,0.020,-0.045
3943,-0.010,0.010
3944,-0.025,0.020
3945,-0.030,0.005
3946,-0.035,0.005
3947,-0.040,0.015
3948,-0.040,0.025
3949,-0.035,0.025
3950,-0.035,0.025
3951,-0.030,0.030
3952,-0.025,0.030
3953,-0.025,0.020
3954,-0.020,0.015
3955,-0.020,0.015
3956,-0.015,0.015
3957,-0.010,0.010
3958,-0.005,0.010
3959,0.000,0.010
3960,0.000,0.015
3961,0.000,0.020
3962,0.000,0.035
3963,0.005,0.050
3964,0.010,0.060
3965,0.015,0.070
3966,0.020,0.085
3967,0.025,0.095
3968,0.035,0.105
3969,0.040,0.105
3970,0.050,0.110
3971,0.060,0.110
3972,0.070,0.110
3973,0.080,0.110
3974,0.085,0.095
3975,0.085,0.080
3976,0.075,0.080
3977,0.065,0.085
3978,0.050,0.100
3979,0.035,0.110
3980,0.015,0.115
3981,0.000,0.115
3982,-0.005,0.120
3983,-0.015,0.120
3984,-0.020,0.120
3985,-0.025,0.120
3986,-0.030,0.110
3987,-0.035,0.105
3988,-0.040,0.105
3989,-0.040,0.095
3990,-0.040,0.095
3991,-0.040,0.095
3992,-0.040,0.090
3993,-0.040,0.085
3994,-0.040,0.085
3995,-0.040,0.080
3996,-0.035,0.080
3997,-0.035,0.075
3998,-0.030,0.065
3999,-0.030,0.050
4000,-0.025,0.050
4001,-0.025,0.045
4002,-0.025,0.030
4003,-0.025,0.000
4004,-0.020,0.005
4005,-0.020,0.020
4006,-0.015,0.040
4007,-0.010,0.035
4008,-0.005,0.030
4009,0.000,0.035
4010,0.000,0.050
4011,0.000,0.050
4012,0.000,0.055
4013,0.000,0.065
4014,-0.005,0.070
4015,-0.005,0.075
4016,-0.010,0.070
4017,-0.010,0.055
4018,-0.015,0.055
4019,-0.015,0.045
4020,-0.015,0.010
4021,-0.015,0.000
4022,-0.020,0.000
4023,-0.010,0.000
4024,0.050,0.015
4025,0.235,0.005
4026,0.485,-0.150
4027,0.585,-0.380
4028,0.465,-0.425
4029,0.250,-0.300
4030,0.085,-0.140
4031,0.005,-0.030
4032,-0.020,0.010
4033,-0.030,0.025
4034,-0.035,0.030
4035,-0.040,0.035
4036,-0.040,0.040
4037,-0.040,0.040
4038,-0.040,0.050
4039,-0.035,0.050
4040,-0.030,0.050
4041,-0.025,0.045
4042,-0.025,0.030
4043,-0.025,0.015
4044,-0.020,0.015
4045,-0.015,0.010
4046,-0.015,0.010
4047,-0.010,0.005
4048,-0.005,0.005
4049,0.000,0.000
4050,0.000,0.000
4051,0.005,0.000
4052,0.010,0.005
4053,0.010,0.010
4054,0.010,0.010
4055,0.015,0.015
4056,0.025,0.015
4057,0.035,0.015
4058,0.045,0.015
4059,0.055,0.010
4060,0.060,0.010
4061,0.070,0.005
4062,0.080,0.005
4063,0.085,0.005
4064,0.080,0.000
4065,0.070,0.000
4066,0.055,-0.015
4067,0.040,-0.035
4068,0.030,-0.045
4069,0.015,-0.050
4070,0.000,-0.050
4071,-0.005,-0.050
4072,-0.015,-0.050
4073,-0.025,-0.055
4074,-0.030,-0.055
4075,-0.035,-0.050
4076,-0.040,-0.050
4077,-0.040,-0.060
4078,-0.040,-0.070
4079,-0.040,-0.060
4080,-0.040,-0.050
4081,-0.040,-0.050
4082,-0.040,-0.050
4083,-0.040,-0.050
4084,-0.040,-0.050
4085,-0.035,-0.050
4086,-0.035,-0.050
4087,-0.030,-0.050
4088,-0.025,-0.050
4089,-0.025,-0.050
4090,-0.030,-0.050
4091,-0.030,-0.050
4092,-0.025,-0.045
4093,-0.025,-0.040
4094,-0.020,-0.035
4095,-0.015,-0.025
4096,-0.010,-0.025
4097,-0.010,-0.025
4098,-0.005,-0.015
4099,0.000,-0.010
4100,0.000,-0.010
4101,0.000,0.000
4102,0.000,0.000
4103,-0.005,0.005
4104,-0.010,0.000
4105,-0.010,-0.005
4106,-0.010,-0.010
4107,-0.015,-0.010
4108,-0.015,-0.010
4109,-0.015,-0.010
4110,-0.015,-0.010
4111,-0.020,-0.010
4112,-0.005,0.000
4113,0.065,0.000
4114,0.260,-0.025
4115,0.490,-0.215
4116,0.565,-0.445
4117,0.430,-0.475
4118,0.220,-0.345
4119,0.065,-0.185
4120,-0.005,-0.070
4121,-0.025,-0.015
4122,-0.035,0.000
4123,-0.040,0.000
4124,-0.040,0.010
4125,-0.040,0.010
4126,-0.040,0.020
4127,-0.040,0.020
4128,-0.035,0.025
4129,-0.035,0.030
4130,-0.030,0.040
4131,-0.025,0.040
4132,-0.025,0.050
4133,-0.020,0.050
4134,-0.015,0.055
4135,-0.015,0.070
4136,-0.010,0.070
4137,-0.005,0.080
4138,0.000,0.085
4139,0.000,0.090
4140,0.000,0.100
4141,0.000,0.105
4142,0.005,0.090
4143,0.010,0.070
4144,0.010,0.075
4145,0.015,0.095
4146,0.025,0.105
4147,0.035,0.115
4148,0.045,0.120
4149,0.055,0.120
4150,0.065,0.125
4151,0.070,0.110
4152,0.075,0.100
4153,0.075,0.095
4154,0.065,0.085
4155,0.055,0.075
4156,0.040,0.065
4157,0.025,0.050
4158,0.010,0.030
4159,0.000,0.020
4160,-0.005,0.020
4161,-0.015,0.015
4162,-0.020,0.015
4163,-0.030,0.015
4164,-0.035,0.015
4165,-0.040,0.015
4166,-0.040,0.005
4167,-0.040,0.000
4168,-0.040,0.010
4169,-0.040,0.015
4170,-0.040,0.020
4171,-0.040,0.020
4172,-0.035,0.025
4173,-0.035,0.030
4174,-0.030,0.035
4175,-0.025,0.035
4176,-0.025,0.035
4177,-0.025,0.035
4178,-0.030,0.030
4179,-0.030,0.025
4180,-0.030,0.020
4181,-0.025,0.020
4182,-0.025,0.020
4183,-0.020,0.020
4184,-0.015,0.015
4185,-0.010,0.015
4186,-0.005,0.020
4187,0.000,0.025
4188,0.000,0.015
4189,0.000,0.030
4190,-0.005,0.040
4191,-0.010,0.045
4192,-0.010,0.040
4193,-0.015,0.030
4194,-0.015,0.020
4195,-0.015,0.020
4196,-0.015,0.025
4197,-0.015,0.025
4198,-0.015,0.030
4199,-0.015,0.030
4200,-0.005,0.035
4201,0.035,0.015
4202,0.195,-0.005
4203,0.435,-0.130
4204,0.570,-0.365
4205,0.490,-0.465
4206,0.285,-0.365
4207,0.105,-0.225
4208,0.015,-0.120
4209,-0.015,-0.060
4210,-0.025,-0.040
4211,-0.035,-0.040
4212,-0.040,-0.050
4213,-0.040,-0.045
4214,-0.040,-0.025
4215,-0.040,0.000
4216,-0.035,0.000
4217,-0.035,0.000
4218,-0.030,0.010
4219,-0.025,0.020
4220,-0.025,0.020
4221,-0.020,0.030
4222,-0.015,0.050
4223,-0.015,0.065
4224,-0.015,0.075
4225,-0.010,0.075
4226,-0.005,0.080
4227,-0.005,0.080
4228,0.000,0.080
4229,0.000,0.065
4230,0.000,0.060
4231,0.005,0.055
4232,0.010,0.060
4233,0.015,0.055
4234,0.025,0.060
4235,0.035,0.065
4236,0.040,0.065
4237,0.050,0.070
4238,0.060,0.070
4239,0.065,0.070
4240,0.070,0.070
4241,0.070,0.050
4242,0.065,0.025
4243,0.055,0.005
4244,0.040,0.000
4245,0.025,-0.005
4246,0.015,-0.010
4247,0.005,-0.010
4248,-0.005,-0.010
4249,-0.015,-0.005
4250,-0.020,0.000
4251,-0.030,0.000
4252,-0.035,0.000
4253,-0.040,0.000
4254,-0.040,0.000
4255,-0.040,0.000
4256,-0.040,0.000
4257,-0.040,0.000
4258,-0.040,0.000
4259,-0.035,0.000
4260,-0.035,0.000
4261,-0.030,0.000
4262,-0.025,-0.005
4263,-0.025,-0.005
4264,-0.025,0.000
4265,-0.030,0.000
4266,-0.030,0.000
4267,-0.030,0.000
4268,-0.030,0.000
4269,-0.025,0.000
4270,-0.025,0.000
4271,-0.020,0.000
4272,-0.015,0.000
4273,-0.010,0.000
4274,-0.005,0.000
4275,0.000,0.000
4276,0.000,0.000
4277,0.000,0.005
4278,-0.005,0.010
4279,-0.010,0.015
4280,-0.010,0.015
4281,-0.010,0.005
4282,-0.010,-0.005
4283,-0.015,-0.005
4284,-0.015,0.000
4285,-0.015,0.000
4286,-0.015,-0.005
4287,-0.015,0.000
4288,-0.005,0.000
4289,0.045,0.005
4290,0.200,0.000
4291,0.440,-0.135
4292,0.580,-0.395
4293,0.495,-0.505
4294,0.285,-0.400
4295,0.100,-0.230
4296,0.010,-0.095
4297,-0.015,-0.015
4298,-0.030,0.005
4299,-0.035,0.015
4300,-0.040,0.020
4301,-0.040,0.020
4302,-0.040,0.020
4303,-0.035,0.025
4304,-0.035,0.020
4305,-0.030,0.020
4306,-0.025,0.020
4307,-0.025,0.020
4308,-0.025,0.020
4309,-0.020,0.020
4310,-0.020,0.000
4311,-0.015,0.000
4312,-0.015,0.000
4313,-0.010,0.000
4314,-0.005,0.015
4315,-0.005,0.035
4316,0.000,0.045
4317,0.000,0.050
4318,0.005,0.055
4319,0.010,0.060
4320,0.010,0.065
4321,0.015,0.070
4322,0.025,0.070
4323,0.035,0.070
4324,0.045,0.075
4325,0.055,0.075
4326,0.060,0.075
4327,0.065,0.070
4328,0.070,0.055
4329,0.075,0.040
4330,0.065,0.030
4331,0.055,0.020
4332,0.040,0.015
4333,0.025,0.010
4334,0.015,0.010
4335,0.005,0.010
4336,0.000,0.005
4337,-0.010,0.005
4338,-0.020,0.000
4339,-0.025,0.000
4340,-0.030,0.000
4341,-0.035,0.000
4342,-0.040,0.000
4343,-0.040,0.000
4344,-0.040,0.000
4345,-0.035,0.000
4346,-0.035,0.000
4347,-0.030,0.000
4348,-0.025,0.000
4349,-0.025,0.000
4350,-0.025,0.000
4351,-0.030,0.000
4352,-0.030,0.010
4353,-0.030,0.010
4354,-0.030,0.020
4355,-0.025,0.020
4356,-0.025,0.020
4357,-0.020,0.010
4358,-0.020,0.010
4359,-0.015,0.010
4360,-0.010,0.005
4361,-0.005,0.005
4362,0.000,0.005
4363,0.000,0.005
4364,0.000,0.005
4365,0.000,0.010
4366,-0.005,0.015
4367,-0.005,0.010
4368,-0.005,0.005
4369,-0.005,-0.005
4370,-0.010,-0.020
4371,-0.015,-0.025
4372,-0.015,-0.015
4373,-0.015,-0.015
4374,-0.015,-0.015
4375,-0.015,-0.015
4376,0.000,-0.005
4377,0.075,-0.005
4378,0.270,-0.040
4379,0.495,-0.225
4380,0.575,-0.465
4381,0.430,-0.485
4382,0.220,-0.360
4383,0.070,-0.200
4384,0.000,-0.080
4385,-0.020,-0.020
4386,-0.030,0.000
4387,-0.035,0.000
4388,-0.040,0.010
4389,-0.040,0.015
4390,-0.035,0.010
4391,-0.035,0.000
4392,-0.030,0.000
4393,-0.025,0.000
4394,-0.025,0.000
4395,-0.025,0.000
4396,-0.025,0.005
4397,-0.020,0.000
4398,-0.015,-0.045
4399,-0.015,-0.090
4400,-0.015,-0.100
4401,-0.010,-0.070
4402,-0.005,-0.020
4403,0.000,0.010
4404,0.000,0.040
4405,0.000,0.060
4406,0.005,0.065
4407,0.010,0.065
4408,0.010,0.075
4409,0.020,0.080
4410,0.030,0.085
4411,0.040,0.085
4412,0.050,0.080
4413,0.055,0.080
4414,0.065,0.080
4415,0.070,0.085
4416,0.070,0.090
4417,0.070,0.085
4418,0.065,0.070
4419,0.050,0.055
4420,0.035,0.045
4421,0.020,0.035
4422,0.005,0.030
4423,0.000,0.030
4424,-0.005,0.035
4425,-0.015,0.035
4426,-0.025,0.040
4427,-0.030,0.040
4428,-0.035,0.040
4429,-0.040,0.035
4430,-0.040,0.035
4431,-0.040,0.035
4432,-0.040,0.035
4433,-0.035,0.035
4434,-0.035,0.025
4435,-0.030,0.015
4436,-0.030,0.025
4437,-0.025,0.035
4438,-0.025,0.035
4439,-0.025,0.035
4440,-0.025,0.040
4441,-0.030,0.040
4442,-0.030,0.045
4443,-0.030,0.050
4444,-0.025,0.050
4445,-0.020,0.050
4446,-0.020,0.050
4447,-0.010,0.050
4448,-0.010,0.055
4449,-0.005,0.065
4450,0.000,0.080
4451,0.000,0.070
4452,0.000,0.075
4453,0.000,0.080
4454,-0.005,0.080
4455,-0.005,0.075
4456,-0.005,0.070
4457,-0.005,0.060
4458,-0.010,0.055
4459,-0.015,0.050
4460,-0.015,0.040
4461,-0.015,0.035
4462,-0.015,0.035
4463,-0.010,0.035
4464,0.025,0.040
4465,0.160,0.035
4466,0.395,-0.060
4467,0.575,-0.300
4468,0.530,-0.455
4469,0.325,-0.380
4470,0.125,-0.235
4471,0.020,-0.100
4472,-0.015,-0.015
4473,-0.025,0.005
4474,-0.035,0.010
4475,-0.040,0.015
4476,-0.040,0.020
4477,-0.035,0.025
4478,-0.035,0.020
4479,-0.030,0.010
4480,-0.030,0.005
4481,-0.025,0.000
4482,-0.025,0.000
4483,-0.025,0.000
4484,-0.020,0.000
4485,-0.015,0.000
4486,-0.015,0.000
4487,-0.005,0.000
4488,-0.005,0.000
4489,-0.005,-0.015
4490,0.000,-0.010
4491,0.000,0.000
4492,0.005,0.010
4493,0.005,0.005
4494,0.010,0.005
4495,0.015,0.005
4496,0.025,0.000
4497,0.035,0.000
4498,0.045,0.005
4499,0.055,0.015
4500,0.065,0.030
4501,0.075,0.045
4502,0.080,0.050
4503,0.085,0.055
4504,0.085,0.055
4505,0.075,0.050
4506,0.060,0.035
4507,0.045,0.020
4508,0.030,0.015
4509,0.020,0.015
4510,0.005,0.020
4511,0.000,0.020
4512,-0.010,0.015
4513,-0.020,0.000
4514,-0.030,-0.005
4515,-0.035,-0.040
4516,-0.040,-0.115
4517,-0.040,-0.145
4518,-0.040,-0.120
4519,-0.040,-0.110
4520,-0.040,-0.135
4521,-0.040,-0.160
4522,-0.040,-0.145
4523,-0.040,-0.140
4524,-0.040,-0.110
4525,-0.035,-0.070
4526,-0.035,-0.075
4527,-0.030,-0.055
4528,-0.025,-0.025
4529,-0.025,-0.015
4530,-0.030,-0.005
4531,-0.025,0.000
4532,-0.025,0.000
4533,-0.020,0.020
4534,-0.020,0.030
4535,-0.015,0.035
4536,-0.010,0.025
4537,-0.005,0.025
4538,0.000,0.025
4539,0.000,0.020
4540,0.000,0.020
4541,0.000,0.035
4542,-0.005,0.040
4543,-0.005,0.040
4544,-0.005,0.040
4545,-0.010,0.025
4546,-0.015,0.005
4547,-0.015,0.000
4548,-0.015,0.000
4549,-0.015,0.000
4550,-0.015,0.000
4551,-0.015,0.000
4552,0.005,0.000
4553,0.110,0.000
4554,0.330,-0.050
4555,0.555,-0.260
4556,0.570,-0.475
4557,0.380,-0.430
4558,0.165,-0.280
4559,0.035,-0.140
4560,-0.010,-0.055
4561,-0.025,-0.020
4562,-0.035,-0.015
4563,-0.040,-0.010
4564,-0.040,-0.010
4565,-0.040,-0.010
4566,-0.040,-0.010
4567,-0.040,-0.010
4568,-0.035,-0.010
4569,-0.035,-0.010
4570,-0.030,-0.015
4571,-0.025,-0.015
4572,-0.020,-0.015
4573,-0.020,-0.015
4574,-0.015,-0.025
4575,-0.015,-0.045
4576,-0.010,-0.050
4577,-0.005,-0.045
4578,0.000,-0.030
4579,0.000,-0.015
4580,0.005,-0.020
4581,0.005,-0.020
4582,0.010,-0.010
4583,0.015,0.000
4584,0.025,0.000
4585,0.030,0.000
4586,0.040,0.000
4587,0.045,0.000
4588,0.055,0.005
4589,0.065,0.005
4590,0.075,0.005
4591,0.085,0.000
4592,0.080,-0.010
4593,0.075,-0.010
4594,0.065,-0.010
4595,0.055,-0.020
4596,0.035,-0.040
4597,0.020,-0.045
4598,0.005,-0.040
4599,0.000,-0.030
4600,-0.010,-0.025
4601,-0.020,-0.025
4602,-0.030,-0.025
4603,-0.035,-0.020
4604,-0.040,-0.020
4605,-0.040,-0.025
4606,-0.040,-0.025
4607,-0.040,-0.030
4608,-0.040,-0.030
4609,-0.040,-0.025
4610,-0.040,-0.025
4611,-0.040,-0.045
4612,-0.040,-0.065
4613,-0.040,-0.055
4614,-0.035,-0.050
4615,-0.035,-0.045
4616,-0.030,-0.030
4617,-0.025,-0.025
4618,-0.025,-0.025
4619,-0.030,-0.045
4620,-0.030,-0.065
4621,-0.025,-0.080
4622,-0.020,-0.085
4623,-0.020,-0.085
4624,-0.010,-0.085
4625,-0.010,-0.085
4626,-0.005,-0.095
4627,0.000,-0.090
4628,0.000,-0.065
4629,0.000,-0.035
4630,0.000,-0.010
4631,-0.005,0.000
4632,-0.005,0.000
4633,-0.005,0.000
4634,-0.010,0.000
4635,-0.015,0.005
4636,-0.015,0.015
4637,-0.015,0.015
4638,-0.015,0.015
4639,-0.020,0.015
4640,-0.010,0.030
4641,0.055,0.035
4642,0.250,0.010
4643,0.500,-0.150
4644,0.590,-0.415
4645,0.440,-0.425
4646,0.210,-0.295
4647,0.055,-0.135
4648,0.000,-0.025
4649,-0.025,0.010
4650,-0.035,0.020
4651,-0.035,0.030
4652,-0.040,0.035
4653,-0.040,0.045
4654,-0.040,0.050
4655,-0.040,0.055
4656,-0.040,0.055
4657,-0.035,0.055
4658,-0.035,0.060
4659,-0.030,0.065
4660,-0.025,0.085
4661,-0.025,0.100
4662,-0.020,0.090
4663,-0.015,0.110
4664,-0.015,0.130
4665,-0.010,0.140
4666,-0.005,0.150
4667,0.000,0.160
4668,0.000,0.160
4669,0.000,0.165
4670,0.005,0.170
4671,0.010,0.170
4672,0.015,0.170
4673,0.020,0.175
4674,0.030,0.185
4675,0.040,0.195
4676,0.050,0.205
4677,0.060,0.205
4678,0.065,0.205
4679,0.070,0.200
4680,0.075,0.195
4681,0.070,0.180
4682,0.065,0.165
4683,0.055,0.150
4684,0.040,0.140
4685,0.020,0.135
4686,0.005,0.130
4687,0.000,0.125
4688,-0.010,0.120
4689,-0.020,0.115
4690,-0.030,0.110
4691,-0.035,0.090
4692,-0.040,0.090
4693,-0.040,0.105
4694,-0.040,0.105
4695,-0.040,0.110
4696,-0.040,0.095
4697,-0.040,0.095
4698,-0.040,0.100
4699,-0.040,0.085
4700,-0.035,0.080
4701,-0.035,0.080
4702,-0.030,0.060
4703,-0.025,0.050
4704,-0.025,0.040
4705,-0.030,0.030
4706,-0.030,0.030
4707,-0.030,0.025
4708,-0.030,0.020
4709,-0.025,0.015
4710,-0.020,0.015
4711,-0.015,0.015
4712,-0.010,0.015
4713,-0.005,0.025
4714,0.000,0.035
4715,0.000,0.040
4716,0.000,0.040
4717,-0.005,0.050
4718,-0.010,0.060
4719,-0.015,0.055
4720,-0.015,0.040
4721,-0.015,0.025
4722,-0.015,0.020
4723,-0.015,0.020
4724,-0.015,0.015
4725,-0.015,0.015
4726,-0.015,0.000
4727,-0.015,0.000
4728,-0.005,0.005
4729,0.065,0.010
4730,0.260,-0.005
4731,0.505,-0.170
4732,0.590,-0.455
4733,0.430,-0.470
4734,0.205,-0.340
4735,0.055,-0.165
4736,0.000,-0.050
4737,-0.020,-0.005
4738,-0.030,0.000
4739,-0.035,0.000
4740,-0.040,0.000
4741,-0.040,0.000
4742,-0.040,0.005
4743,-0.035,0.010
4744,-0.035,0.010
4745,-0.035,0.015
4746,-0.030,0.020
4747,-0.025,0.025
4748,-0.025,0.030
4749,-0.020,0.035
4750,-0.015,0.035
4751,-0.015,0.040
4752,-0.015,0.040
4753,-0.010,0.025
4754,-0.005,0.010
4755,0.000,0.015
4756,0.000,0.035
4757,0.005,0.060
4758,0.005,0.075
4759,0.010,0.090
4760,0.015,0.105
4761,0.020,0.110
4762,0.030,0.115
4763,0.040,0.115
4764,0.045,0.110
4765,0.055,0.110
4766,0.065,0.120
4767,0.070,0.115
4768,0.075,0.110
4769,0.070,0.105
4770,0.060,0.085
4771,0.050,0.080
4772,0.035,0.080
4773,0.020,0.065
4774,0.005,0.055
4775,0.000,0.045
4776,-0.010,0.030
4777,-0.020,0.025
4778,-0.025,0.020
4779,-0.025,0.015
4780,-0.030,0.020
4781,-0.035,0.025
4782,-0.040,0.020
4783,-0.040,0.020
4784,-0.040,0.025
4785,-0.040,0.005
4786,-0.035,0.000
4787,-0.035,0.000
4788,-0.035,-0.005
4789,-0.030,0.000
4790,-0.025,0.000
4791,-0.025,0.005
4792,-0.025,0.010
4793,-0.030,0.015
4794,-0.030,0.020
4795,-0.025,0.015
4796,-0.025,0.010
4797,-0.020,0.010
4798,-0.020,0.010
4799,-0.010,0.005
4800,-0.010,0.000
4801,-0.005,0.000
4802,0.000,-0.010
4803,0.000,-0.015
4804,0.000,-0.005
4805,-0.005,0.000
4806,-0.005,0.000
4807,-0.005,0.000
4808,-0.005,0.005
4809,-0.010,0.000
4810,-0.015,0.000
4811,-0.015,-0.010
4812,-0.015,-0.015
4813,-0.015,-0.015
4814,-0.015,-0.010
4815,-0.010,-0.010
4816,0.020,-0.010
4817,0.150,-0.015
4818,0.405,-0.110
4819,0.600,-0.420
4820,0.540,-0.550
4821,0.315,-0.445
4822,0.120,-0.270
4823,0.015,-0.140
4824,-0.010,-0.060
4825,-0.020,-0.030
4826,-0.030,-0.025
4827,-0.035,-0.015
4828,-0.040,-0.010
4829,-0.040,-0.010
4830,-0.035,-0.020
4831,-0.035,-0.020
4832,-0.030,-0.015
4833,-0.025,-0.015
4834,-0.025,-0.005
4835,-0.025,0.005
4836,-0.020,0.015
4837,-0.015,0.035
4838,-0.015,0.040
4839,-0.015,0.030
4840,-0.010,0.035
4841,-0.005,0.050
4842,0.000,0.045
4843,0.000,0.045
4844,0.000,0.055
4845,0.005,0.055
4846,0.010,0.065
4847,0.010,0.070
4848,0.015,0.075
4849,0.025,0.070
4850,0.030,0.060
4851,0.040,0.050
4852,0.050,0.050
4853,0.060,0.060
4854,0.070,0.065
4855,0.075,0.060
4856,0.070,0.050
4857,0.065,0.035
4858,0.055,0.015
4859,0.040,0.015
4860,0.025,0.015
4861,0.010,0.010
4862,0.000,0.005
4863,0.000,0.005
4864,-0.015,0.005
4865,-0.020,0.000
4866,-0.025,0.000
4867,-0.030,-0.005
4868,-0.035,-0.010
4869,-0.040,-0.015
4870,-0.040,-0.035
4871,-0.040,-0.045
4872,-0.040,-0.035
4873,-0.040,-0.015
4874,-0.040,-0.010
4875,-0.035,-0.010
4876,-0.030,0.000
4877,-0.025,0.000
4878,-0.025,0.000
4879,-0.025,0.000
4880,-0.030,0.000
4881,-0.030,-0.005
4882,-0.025,-0.010
4883,-0.025,-0.010
4884,-0.020,0.000
4885,-0.015,0.000
4886,-0.015,0.005
4887,-0.010,0.010
4888,-0.005,0.005
4889,0.000,0.005
4890,0.000,0.015
4891,0.000,0.025
4892,0.000,0.035
4893,-0.005,0.035
4894,-0.005,0.025
4895,-0.010,0.015
4896,-0.010,0.000
4897,-0.015,-0.020
4898,-0.015,-0.020
4899,-0.015,-0.015
4900,-0.015,-0.015
4901,-0.015,-0.020
4902,-0.010,-0.015
4903,0.000,-0.010
4904,0.100,-0.010
4905,0.330,-0.035
4906,0.570,-0.300
4907,0.575,-0.515
4908,0.380,-0.450
4909,0.165,-0.290
4910,0.035,-0.125
4911,-0.005,-0.025
4912,-0.020,0.010
4913,-0.030,0.030
4914,-0.035,0.020
4915,-0.040,0.010
4916,-0.040,0.000
4917,-0.040,0.000
4918,-0.035,0.000
4919,-0.035,0.000
4920,-0.030,0.005
4921,-0.025,0.005
4922,-0.025,0.005
4923,-0.025,0.020
4924,-0.020,0.040
4925,-0.015,0.065
4926,-0.015,0.080
4927,-0.015,0.085
4928,-0.010,0.085
4929,0.000,0.085
4930,0.000,0.085
4931,0.000,0.090
4932,0.005,0.095
4933,0.010,0.110
4934,0.010,0.115
4935,0.015,0.110
4936,0.020,0.105
4937,0.030,0.095
4938,0.040,0.090
4939,0.050,0.090
4940,0.060,0.090
4941,0.065,0.090
4942,0.070,0.085
4943,0.070,0.080
4944,0.065,0.065
4945,0.055,0.060
4946,0.045,0.055
4947,0.025,0.050
4948,0.010,0.030
4949,0.000,0.025
4950,0.000,0.025
4951,-0.010,0.025
4952,-0.015,0.020
4953,-0.020,0.010
4954,-0.025,0.010
4955,-0.030,0.005
4956,-0.035,0.005
4957,-0.040,0.000
4958,-0.040,0.000
4959,-0.040,0.005
4960,-0.040,0.005
4961,-0.040,0.000
4962,-0.035,0.000
4963,-0.035,0.005
4964,-0.030,0.020
4965,-0.025,0.035
4966,-0.025,0.040
4967,-0.030,0.045
4968,-0.030,0.045
4969,-0.025,0.050
4970,-0.025,0.050
4971,-0.020,0.050
4972,-0.020,0.055
4973,-0.015,0.055
4974,-0.010,0.055
4975,-0.005,0.045
4976,0.000,0.025
4977,0.000,0.025
4978,0.000,0.055
4979,0.000,0.080
4980,-0.005,0.075
4981,-0.010,0.060
4982,-0.010,0.060
4983,-0.010,0.055
4984,-0.010,0.050
4985,-0.015,0.055
4986,-0.015,0.055
4987,-0.015,0.065
4988,-0.015,0.065
4989,-0.015,0.065
4990,-0.005,0.075
4991,0.075,0.075
4992,0.295,0.065
4993,0.540,-0.140
4994,0.585,-0.390
4995,0.405,-0.370
4996,0.190,-0.215
4997,0.055,-0.060
4998,0.000,0.025
4999,-0.020,0.075
5000,-0.030,0.085
5001,-0.035,0.085
5002,-0.040,0.085
5003,-0.040,0.065
5004,-0.035,0.060
5005,-0.035,0.060
5006,-0.035,0.065
5007,-0.030,0.065
5008,-0.025,0.070
5009,-0.025,0.080
5010,-0.020,0.085
5011,-0.020,0.075
5012,-0.015,0.070
5013,-0.010,0.065
5014,-0.005,0.060
5015,-0.005,0.055
5016,0.000,0.055
5017,0.000,0.055
5018,0.000,0.060
5019,0.005,0.070
5020,0.010,0.075
5021,0.015,0.080
5022,0.020,0.085
5023,0.030,0.085
5024,0.040,0.090
5025,0.050,0.105
5026,0.060,0.115
5027,0.070,0.115
5028,0.080,0.105
5029,0.085,0.090
5030,0.085,0.090
5031,0.080,0.085
5032,0.065,0.080
5033,0.050,0.065
5034,0.030,0.060
5035,0.020,0.060
5036,0.010,0.065
5037,0.000,0.065
5038,-0.005,0.050
5039,-0.015,0.045
5040,-0.025,0.040
5041,-0.030,0.040
5042,-0.035,0.030
5043,-0.040,0.015
5044,-0.040,0.010
5045,-0.040,0.005
5046,-0.040,0.000
5047,-0.040,0.000
5048,-0.040,0.000
5049,-0.040,0.000
5050,-0.040,0.000
5051,-0.035,0.000
5052,-0.035,0.000
5053,-0.030,0.000
5054,-0.025,0.005
5055,-0.025,0.005
5056,-0.030,0.005
5057,-0.030,0.005
5058,-0.025,0.005
5059,-0.020,0.000
5060,-0.020,0.000
5061,-0.015,0.000
5062,-0.005,-0.005
5063,-0.005,-0.020
5064,0.000,-0.020
5065,0.000,-0.030
5066,0.000,-0.045
5067,0.000,-0.060
5068,-0.005,-0.080
5069,-0.005,-0.080
5070,-0.005,-0.095
5071,-0.010,-0.105
5072,-0.015,-0.105
5073,-0.015,-0.075
5074,-0.015,-0.075
5075,-0.015,-0.075
5076,-0.020,-0.075
5077,-0.015,-0.055
5078,0.010,-0.055
5079,0.170,-0.045
5080,0.440,-0.195
5081,0.610,-0.520
5082,0.515,-0.605
5083,0.290,-0.460
5084,0.105,-0.265
5085,0.010,-0.120
5086,-0.015,-0.060
5087,-0.030,-0.015
5088,-0.035,0.000
5089,-0.040,0.000
5090,-0.040,0.000
5091,-0.040,0.005
5092,-0.040,0.000
5093,-0.035,0.000
5094,-0.030,0.000
5095,-0.025,-0.005
5096,-0.025,0.000
5097,-0.025,0.000
5098,-0.020,0.000
5099,-0.015,0.000
5100,-0.015,-0.015
5101,-0.010,-0.025
5102,-0.005,-0.010
5103,0.000,0.000
5104,0.000,0.005
5105,0.000,0.015
5106,0.005,0.015
5107,0.010,0.010
5108,0.010,0.010
5109,0.015,0.010
5110,0.025,0.015
5111,0.040,0.020
5112,0.050,0.025
5113,0.060,0.025
5114,0.065,0.030
5115,0.075,0.025
5116,0.085,0.010
5117,0.085,0.000
5118,0.080,0.000
5119,0.075,0.000
5120,0.065,0.000
5121,0.045,-0.015
5122,0.025,-0.020
5123,0.015,-0.015
5124,0.000,-0.015
5125,0.000,-0.030
5126,-0.015,-0.040
5127,-0.025,-0.050
5128,-0.030,-0.055
5129,-0.035,-0.055
5130,-0.040,-0.045
5131,-0.040,-0.035
5132,-0.040,-0.025
5133,-0.040,-0.020
5134,-0.040,-0.010
5135,-0.040,-0.010
5136,-0.040,-0.010
5137,-0.040,-0.010
5138,-0.040,-0.015
5139,-0.040,-0.010
5140,-0.035,-0.005
5141,-0.030,-0.005
5142,-0.025,-0.010
5143,-0.025,-0.010
5144,-0.025,-0.025
5145,-0.030,-0.035
5146,-0.025,-0.020
5147,-0.020,-0.015
5148,-0.015,-0.015
5149,-0.010,-0.025
5150,-0.005,-0.030
5151,0.000,-0.045
5152,0.000,-0.045
5153,0.000,-0.045
5154,0.000,-0.040
5155,0.000,-0.035
5156,-0.005,-0.020
5157,-0.005,-0.015
5158,-0.005,-0.015
5159,-0.010,-0.030
5160,-0.015,-0.030
5161,-0.015,-0.040
5162,-0.015,-0.040
5163,-0.015,-0.040
5164,-0.015,-0.045
5165,-0.020,-0.045
5166,0.020,-0.030
5167,0.185,-0.030
5168,0.450,-0.145
5169,0.600,-0.435
5170,0.505,-0.505
5171,0.280,-0.400
5172,0.100,-0.230
5173,0.015,-0.120
5174,-0.015,-0.080
5175,-0.030,-0.050
5176,-0.035,-0.020
5177,-0.040,-0.010
5178,-0.040,-0.010
5179,-0.040,-0.045
5180,-0.040,-0.095
5181,-0.035,-0.130
5182,-0.035,-0.140
5183,-0.030,-0.135
5184,-0.025,-0.115
5185,-0.020,-0.060
5186,-0.020,-0.015
5187,-0.015,0.000
5188,-0.015,0.015
5189,-0.015,0.020
5190,-0.010,0.010
5191,0.000,0.015
5192,0.000,0.035
5193,0.000,0.060
5194,0.005,0.080
5195,0.010,0.085
5196,0.010,0.095
5197,0.015,0.105
5198,0.020,0.090
5199,0.030,0.090
5200,0.045,0.085
5201,0.055,0.105
5202,0.065,0.100
5203,0.070,0.090
5204,0.075,0.085
5205,0.075,0.080
5206,0.075,0.080
5207,0.070,0.085
5208,0.060,0.090
5209,0.045,0.080
5210,0.025,0.080
5211,0.010,0.060
5212,0.000,0.050
5213,-0.005,0.050
5214,-0.015,0.045
5215,-0.025,0.045
5216,-0.030,0.035
5217,-0.035,0.035
5218,-0.040,0.050
5219,-0.040,0.070
5220,-0.040,0.075
5221,-0.040,0.075
5222,-0.040,0.070
5223,-0.040,0.055
5224,-0.040,0.055
5225,-0.040,0.070
5226,-0.040,0.080
5227,-0.040,0.080
5228,-0.040,0.070
5229,-0.035,0.070
5230,-0.030,0.090
5231,-0.025,0.105
5232,-0.025,0.105
5233,-0.025,0.110
5234,-0.025,0.110
5235,-0.025,0.110
5236,-0.020,0.095
5237,-0.015,0.075
5238,-0.015,0.055
5239,-0.010,0.055
5240,0.000,0.080
5241,0.000,0.085
5242,0.000,0.095
5243,-0.010,0.125
5244,-0.015,0.125
5245,-0.015,0.125
5246,-0.015,0.115
5247,-0.015,0.115
5248,-0.015,0.120
5249,-0.015,0.120
5250,-0.015,0.135
5251,-0.015,0.145
5252,-0.015,0.150
5253,-0.020,0.165
5254,0.010,0.170
5255,0.140,0.175
5256,0.380,0.085
5257,0.565,-0.180
5258,0.520,-0.325
5259,0.325,-0.260
5260,0.135,-0.110
5261,0.025,0.010
5262,-0.015,0.095
5263,-0.030,0.135
5264,-0.035,0.145
5265,-0.040,0.145
5266,-0.040,0.145
5267,-0.040,0.140
5268,-0.040,0.140
5269,-0.040,0.140
5270,-0.035,0.135
5271,-0.030,0.135
5272,-0.025,0.130
5273,-0.025,0.125
5274,-0.025,0.125
5275,-0.020,0.140
5276,-0.015,0.140
5277,-0.015,0.135
5278,-0.010,0.125
5279,-0.005,0.115
5280,0.000,0.140
5281,0.000,0.145
5282,0.000,0.150
5283,0.005,0.155
5284,0.010,0.165
5285,0.015,0.165
5286,0.020,0.155
5287,0.025,0.155
5288,0.035,0.170
5289,0.045,0.170
5290,0.055,0.160
5291,0.055,0.135
5292,0.065,0.115
5293,0.070,0.120
5294,0.075,0.130
5295,0.070,0.110
5296,0.060,0.095
5297,0.045,0.090
5298,0.025,0.090
5299,0.010,0.090
5300,0.000,0.090
5301,-0.005,0.085
5302,-0.015,0.080
5303,-0.020,0.080
5304,-0.025,0.080
5305,-0.030,0.080
5306,-0.035,0.075
5307,-0.040,0.075
5308,-0.040,0.065
5309,-0.040,0.065
5310,-0.040,0.060
5311,-0.040,0.060
5312,-0.035,0.060
5313,-0.035,0.060
5314,-0.030,0.065
5315,-0.025,0.060
5316,-0.025,0.060
5317,-0.030,0.055
5318,-0.030,0.045
5319,-0.030,0.030
5320,-0.030,0.020
5321,-0.025,0.010
5322,-0.020,0.005
5323,-0.020,0.005
5324,-0.015,0.010
5325,-0.010,0.015
5326,-0.005,0.020
5327,0.000,0.025
5328,0.000,0.035
5329,0.000,0.030
5330,0.000,0.030
5331,-0.005,0.035
5332,-0.010,0.035
5333,-0.010,0.035
5334,-0.010,0.030
5335,-0.010,0.020
5336,-0.015,0.020
5337,-0.015,0.010
5338,-0.015,0.005
5339,-0.015,0.000
5340,-0.015,0.000
5341,-0.010,0.010
5342,0.045,0.015
5343,0.230,0.010
5344,0.475,-0.160
5345,0.580,-0.420
5346,0.460,-0.475
5347,0.250,-0.360
5348,0.085,-0.200
5349,0.005,-0.080
5350,-0.015,-0.015
5351,-0.030,0.005
5352,-0.035,0.015
5353,-0.040,0.020
5354,-0.040,0.020
5355,-0.035,0.020
5356,-0.035,0.020
5357,-0.030,0.020
5358,-0.025,0.020
5359,-0.025,0.020
5360,-0.025,0.020
5361,-0.020,0.015
5362,-0.020,0.010
5363,-0.015,0.035
5364,-0.015,0.055
5365,-0.010,0.070
5366,-0.005,0.080
5367,0.000,0.085
5368,0.000,0.085
5369,0.000,0.090
5370,0.005,0.090
5371,0.010,0.090
5372,0.010,0.090
5373,0.015,0.100
5374,0.020,0.110
5375,0.030,0.105
5376,0.040,0.105
5377,0.045,0.085
5378,0.055,0.080
5379,0.065,0.085
5380,0.070,0.100
5381,0.075,0.095
5382,0.075,0.090
5383,0.065,0.080
5384,0.055,0.070
5385,0.035,0.060
5386,0.020,0.055
5387,0.010,0.040
5388,0.000,0.040
5389,-0.005,0.030
5390,-0.015,0.025
5391,-0.020,0.015
5392,-0.025,0.015
5393,-0.030,0.010
5394,-0.030,0.010
5395,-0.035,0.000
5396,-0.040,0.000
5397,-0.040,0.000
5398,-0.040,0.000
5399,-0.040,0.000
5400,-0.035,0.000
5401,-0.035,0.000
5402,-0.030,0.000
5403,-0.030,0.000
5404,-0.025,0.000
5405,-0.025,0.000
5406,-0.025,0.010
5407,-0.025,0.005
5408,-0.020,0.005
5409,-0.020,0.005
5410,-0.020,0.010
5411,-0.015,0.010
5412,-0.010,0.005
5413,-0.005,0.005
5414,0.000,0.005
5415,0.000,0.005
5416,0.000,0.010
5417,0.000,0.015
5418,-0.005,0.020
5419,-0.005,0.015
5420,-0.005,0.015
5421,-0.005,0.005
5422,-0.005,0.000
5423,-0.010,-0.005
5424,-0.015,-0.040
5425,-0.015,-0.060
5426,-0.015,-0.065
5427,-0.015,-0.070
5428,-0.010,-0.060
5429,0.020,-0.050
5430,0.170,-0.045
5431,0.415,-0.150
5432,0.575,-0.420
5433,0.515,-0.550
5434,0.310,-0.465
5435,0.125,-0.290
5436,0.025,-0.125
5437,-0.010,-0.030
5438,-0.025,0.000
5439,-0.030,0.010
5440,-0.035,0.015
5441,-0.035,0.020
5442,-0.035,0.020
5443,-0.035,0.020
5444,-0.030,0.025
5445,-0.025,0.025
5446,-0.025,0.020
5447,-0.025,0.010
5448,-0.020,0.005
5449,-0.015,0.015
5450,-0.015,0.035
5451,-0.015,0.050
5452,-0.010,0.055
5453,-0.005,0.060
5454,0.000,0.065
5455,0.000,0.075
5456,0.000,0.085
5457,0.005,0.090
5458,0.010,0.090
5459,0.010,0.105
5460,0.015,0.105
5461,0.020,0.110
5462,0.025,0.110
5463,0.035,0.110
5464,0.045,0.100
5465,0.055,0.095
5466,0.060,0.100
5467,0.070,0.105
5468,0.075,0.105
5469,0.075,0.090
5470,0.070,0.080
5471,0.055,0.065
5472,0.040,0.055
5473,0.025,0.045
5474,0.010,0.040
5475,0.000,0.025
5476,0.000,0.015
5477,-0.010,0.005
5478,-0.020,0.000
5479,-0.025,0.000
5480,-0.030,0.000
5481,-0.035,0.000
5482,-0.035,0.000
5483,-0.035,0.000
5484,-0.035,0.000
5485,-0.035,0.000
5486,-0.040,0.000
5487,-0.040,0.000
5488,-0.035,-0.005
5489,-0.035,0.000
5490,-0.030,0.000
5491,-0.025,0.005
5492,-0.025,0.005
5493,-0.025,0.010
5494,-0.025,0.005
5495,-0.020,0.005
5496,-0.020,0.005
5497,-0.015,0.005
5498,-0.015,0.010
5499,-0.010,0.010
5500,-0.005,0.010
5501,0.000,0.010
5502,0.000,0.010
5503,0.000,0.010
5504,0.000,0.010
5505,0.000,0.020
5506,-0.005,0.025
5507,-0.005,0.025
5508,-0.005,0.030
5509,-0.005,0.015
5510,-0.010,0.005
5511,-0.015,0.005
5512,-0.015,0.010
5513,-0.010,-0.005
5514,-0.010,-0.040
5515,-0.015,-0.060
5516,0.005,-0.050
5517,0.120,-0.020
5518,0.350,-0.065
5519,0.550,-0.305
5520,0.545,-0.470
5521,0.365,-0.435
5522,0.170,-0.285
5523,0.045,-0.130
5524,0.000,-0.030
5525,-0.020,0.010
5526,-0.025,0.030
5527,-0.035,0.045
5528,-0.040,0.050
5529,-0.035,0.050
5530,-0.035,0.060
5531,-0.030,0.070
5532,-0.025,0.070
5533,-0.025,0.075
5534,-0.025,0.070
5535,-0.020,0.070
5536,-0.015,0.065
5537,-0.015,0.060
5538,-0.015,0.055
5539,-0.010,0.055
5540,-0.005,0.055
5541,0.000,0.040
5542,0.000,0.040
5543,0.000,0.050
5544,0.005,0.055
5545,0.010,0.055
5546,0.015,0.065
5547,0.015,0.065
5548,0.020,0.065
5549,0.030,0.065
5550,0.040,0.075
5551,0.050,0.080
5552,0.060,0.085
5553,0.070,0.085
5554,0.080,0.085
5555,0.085,0.050
5556,0.085,0.045
5557,0.075,0.040
5558,0.065,0.035
5559,0.050,0.035
5560,0.035,0.020
5561,0.020,0.005
5562,0.005,0.000
5563,0.000,0.005
5564,-0.010,0.010
5565,-0.020,0.010
5566,-0.025,0.015
5567,-0.030,0.015
5568,-0.035,0.015
5569,-0.040,0.010
5570,-0.040,0.005
5571,-0.040,0.005
5572,-0.040,0.005
5573,-0.040,0.005
5574,-0.040,0.010
5575,-0.040,0.010
5576,-0.035,0.015
5577,-0.035,0.020
5578,-0.030,0.015
5579,-0.025,0.000
5580,-0.025,-0.020
5581,-0.030,-0.065
5582,-0.030,-0.115
5583,-0.025,-0.170
5584,-0.020,-0.230
5585,-0.020,-0.260
5586,-0.015,-0.245
5587,-0.005,-0.195
5588,0.000,-0.120
5589,0.000,-0.070
5590,0.000,-0.055
5591,0.000,-0.040
5592,0.000,-0.015
5593,0.000,-0.005
5594,0.000,-0.010
5595,-0.005,-0.015
5596,-0.005,-0.035
5597,-0.005,-0.040
5598,-0.010,-0.045
5599,-0.015,-0.045
5600,-0.015,-0.055
5601,-0.015,-0.065
5602,-0.015,-0.070
5603,-0.005,-0.060
5604,0.040,-0.060
5605,0.215,-0.085
5606,0.460,-0.240
5607,0.590,-0.495
5608,0.490,-0.565
5609,0.280,-0.435
5610,0.105,-0.270
5611,0.015,-0.145
5612,-0.010,-0.080
5613,-0.020,-0.055
5614,-0.030,-0.025
5615,-0.035,0.000
5616,-0.035,0.005
5617,-0.030,0.015
5618,-0.030,0.025
5619,-0.025,0.025
5620,-0.025,0.000
5621,-0.025,-0.005
5622,-0.020,0.000
5623,-0.020,0.010
5624,-0.015,0.005
5625,-0.015,0.000
5626,-0.010,-0.030
5627,-0.005,-0.040
5628,0.000,-0.010
5629,0.000,0.000
5630,0.000,0.010
5631,0.005,0.020
5632,0.010,0.025
5633,0.010,0.020
5634,0.015,0.020
5635,0.020,0.010
5636,0.030,0.010
5637,0.040,0.025
5638,0.055,0.025
5639,0.065,0.005
5640,0.075,0.005
5641,0.080,0.005
5642,0.085,0.010
5643,0.090,0.020
5644,0.085,0.035
5645,0.075,0.025
5646,0.060,0.000
5647,0.050,-0.015
5648,0.030,-0.030
5649,0.015,-0.040
5650,0.000,-0.045
5651,0.000,-0.040
5652,-0.010,-0.040
5653,-0.020,-0.045
5654,-0.025,-0.035
5655,-0.035,-0.020
5656,-0.040,-0.015
5657,-0.040,-0.015
5658,-0.040,-0.010
5659,-0.040,0.000
5660,-0.040,0.000
5661,-0.040,0.000
5662,-0.040,0.000
5663,-0.040,-0.005
5664,-0.035,-0.015
5665,-0.030,-0.005
5666,-0.025,-0.005
5667,-0.025,-0.010
5668,-0.025,-0.010
5669,-0.030,-0.015
5670,-0.025,-0.030
5671,-0.025,-0.045
5672,-0.020,-0.050
5673,-0.015,-0.045
5674,-0.010,-0.040
5675,-0.010,-0.040
5676,-0.005,-0.045
5677,-0.005,-0.040
5678,0.000,-0.040
5679,0.000,-0.045
5680,0.000,-0.050
5681,0.000,-0.050
5682,-0.005,-0.045
5683,-0.005,-0.030
5684,-0.010,-0.035
5685,-0.015,-0.045
5686,-0.015,-0.040
5687,-0.015,-0.025
5688,-0.015,-0.010
5689,-0.015,-0.010
5690,-0.020,0.000
5691,0.000,0.005
5692,0.100,0.010
5693,0.320,-0.035
5694,0.540,-0.245
5695,0.570,-0.435
5696,0.400,-0.420
5697,0.185,-0.280
5698,0.050,-0.140
5699,-0.005,-0.050
5700,-0.020,-0.015
5701,-0.030,0.000
5702,-0.035,0.000
5703,-0.040,0.000
5704,-0.040,0.000
5705,-0.035,0.000
5706,-0.035,0.010
5707,-0.030,0.015
5708,-0.025,0.025
5709,-0.025,0.030
5710,-0.020,0.035
5711,-0.020,0.035
5712,-0.015,0.035
5713,-0.015,0.035
5714,-0.010,0.035
5715,-0.005,0.035
5716,0.000,0.035
5717,0.000,0.035
5718,0.000,0.035
5719,0.000,0.030
5720,0.005,0.020
5721,0.010,0.020
5722,0.015,0.020
5723,0.025,0.035
5724,0.035,0.045
5725,0.045,0.065
5726,0.055,0.075
5727,0.065,0.080
5728,0.075,0.075
5729,0.080,0.060
5730,0.085,0.040
5731,0.085,0.015
5732,0.080,0.005
5733,0.070,0.000
5734,0.055,0.005
5735,0.035,0.000
5736,0.020,0.000
5737,0.005,0.000
5738,0.000,0.010
5739,-0.005,0.015
5740,-0.015,0.030
5741,-0.025,0.040
5742,-0.035,0.040
5743,-0.040,0.040
5744,-0.040,0.045
5745,-0.040,0.040
5746,-0.040,0.010
5747,-0.040,-0.005
5748,-0.040,0.000
5749,-0.040,0.005
5750,-0.040,0.010
5751,-0.040,0.015
5752,-0.035,0.010
5753,-0.035,-0.015
5754,-0.035,-0.040
5755,-0.030,-0.035
5756,-0.025,0.000
5757,-0.025,0.015
5758,-0.025,0.010
5759,-0.025,-0.005
5760,-0.025,-0.020
5761,-0.025,0.005
5762,-0.020,0.045
5763,-0.015,0.060
5764,-0.010,0.070
5765,-0.005,0.075
5766,0.000,0.080
5767,0.000,0.080
5768,-0.005,0.080
5769,-0.010,0.065
5770,-0.015,0.065
5771,-0.015,0.050
5772,-0.015,0.045
5773,-0.015,0.050
5774,-0.015,0.055
5775,-0.015,0.050
5776,-0.015,0.060
5777,-0.020,0.070
5778,-0.015,0.095
5779,0.030,0.115
5780,0.185,0.110
5781,0.425,-0.005
5782,0.565,-0.240
5783,0.490,-0.350
5784,0.285,-0.255
5785,0.105,-0.105
5786,0.015,0.005
5787,-0.015,0.070
5788,-0.025,0.085
5789,-0.035,0.075
5790,-0.040,0.070
5791,-0.040,0.085
5792,-0.040,0.090
5793,-0.035,0.095
5794,-0.035,0.095
5795,-0.030,0.105
5796,-0.025,0.105
5797,-0.025,0.105
5798,-0.025,0.115
5799,-0.020,0.115
5800,-0.015,0.125
5801,-0.015,0.100
5802,-0.010,0.095
5803,-0.010,0.130
5804,-0.005,0.135
5805,0.000,0.160
5806,0.000,0.155
5807,0.000,0.145
5808,0.005,0.150
5809,0.010,0.160
5810,0.010,0.165
5811,0.020,0.145
5812,0.030,0.125
5813,0.040,0.130
5814,0.045,0.160
5815,0.055,0.185
5816,0.065,0.180
5817,0.070,0.170
5818,0.075,0.155
5819,0.075,0.150
5820,0.065,0.145
5821,0.055,0.140
5822,0.040,0.135
5823,0.020,0.125
5824,0.010,0.120
5825,0.000,0.115
5826,-0.005,0.105
5827,-0.015,0.090
5828,-0.020,0.065
5829,-0.030,0.060
5830,-0.035,0.065
5831,-0.040,0.060
5832,-0.040,0.060
5833,-0.040,0.065
5834,-0.040,0.075
5835,-0.040,0.075
5836,-0.040,0.080
5837,-0.040,0.090
5838,-0.040,0.085
5839,-0.035,0.080
5840,-0.035,0.075
5841,-0.030,0.080
5842,-0.025,0.080
5843,-0.025,0.080
5844,-0.025,0.080
5845,-0.030,0.075
5846,-0.030,0.065
5847,-0.025,0.065
5848,-0.020,0.070
5849,-0.015,0.075
5850,-0.010,0.060
5851,-0.005,0.040
5852,0.000,0.040
5853,0.000,0.050
5854,0.000,0.065
5855,-0.005,0.075
5856,-0.010,0.075
5857,-0.010,0.080
5858,-0.015,0.070
5859,-0.015,0.065
5860,-0.015,0.065
5861,-0.015,0.055
5862,-0.015,0.055
5863,-0.015,0.050
5864,-0.020,0.055
5865,-0.005,0.065
5866,0.050,0.065
5867,0.220,0.040
5868,0.460,-0.120
5869,0.580,-0.365
5870,0.480,-0.450
5871,0.265,-0.335
5872,0.095,-0.165
5873,0.010,-0.035
5874,-0.015,0.020
5875,-0.025,0.055
5876,-0.035,0.070
5877,-0.040,0.075
5878,-0.040,0.075
5879,-0.035,0.075
5880,-0.035,0.070
5881,-0.030,0.060
5882,-0.025,0.055
5883,-0.025,0.065
5884,-0.025,0.075
5885,-0.020,0.075
5886,-0.015,0.085
5887,-0.015,0.085
5888,-0.015,0.085
5889,-0.015,0.080
5890,-0.010,0.080
5891,-0.005,0.090
5892,0.000,0.120
5893,0.000,0.140
5894,0.000,0.155
5895,0.005,0.160
5896,0.010,0.165
5897,0.010,0.170
5898,0.020,0.175
5899,0.030,0.170
5900,0.040,0.170
5901,0.050,0.165
5902,0.055,0.155
5903,0.065,0.150
5904,0.070,0.140
5905,0.075,0.130
5906,0.070,0.120
5907,0.060,0.100
5908,0.050,0.085
5909,0.035,0.075
5910,0.020,0.070
5911,0.005,0.060
5912,0.000,0.050
5913,-0.005,0.050
5914,-0.015,0.045
5915,-0.025,0.030
5916,-0.030,0.020
5917,-0.035,0.015
5918,-0.040,0.020
5919,-0.040,0.025
5920,-0.040,0.030
5921,-0.040,0.040
5922,-0.040,0.035
5923,-0.040,0.035
5924,-0.040,0.035
5925,-0.035,0.035
5926,-0.035,0.040
5927,-0.035,0.045
5928,-0.030,0.040
5929,-0.025,0.040
5930,-0.025,0.040
5931,-0.025,0.040
5932,-0.030,0.040
5933,-0.025,0.040
5934,-0.025,0.040
5935,-0.020,0.040
5936,-0.015,0.040
5937,-0.010,0.040
5938,-0.005,0.040
5939,0.000,0.040
5940,0.000,0.040
5941,-0.005,0.045
5942,-0.010,0.040
5943,-0.010,0.045
5944,-0.015,0.040
5945,-0.015,0.030
5946,-0.015,0.030
5947,-0.015,0.030
5948,-0.015,0.035
5949,-0.015,0.040
5950,-0.015,0.030
5951,-0.015,0.040
5952,0.010,0.050
5953,0.125,0.050
5954,0.345,-0.020
5955,0.545,-0.250
5956,0.550,-0.445
5957,0.365,-0.400
5958,0.160,-0.250
5959,0.035,-0.095
5960,-0.005,-0.005
5961,-0.025,0.020
5962,-0.030,0.035
5963,-0.035,0.040
5964,-0.040,0.035
5965,-0.035,0.035
5966,-0.035,0.040
5967,-0.035,0.040
5968,-0.035,0.035
5969,-0.030,0.030
5970,-0.025,0.030
5971,-0.025,0.040
5972,-0.020,0.040
5973,-0.020,0.040
5974,-0.020,0.050
5975,-0.015,0.055
5976,-0.015,0.060
5977,-0.010,0.060
5978,-0.005,0.065
5979,0.000,0.070
5980,0.000,0.080
5981,0.000,0.090
5982,0.005,0.100
5983,0.010,0.105
5984,0.015,0.110
5985,0.025,0.115
5986,0.035,0.115
5987,0.045,0.115
5988,0.055,0.115
5989,0.065,0.115
5990,0.070,0.110
5991,0.075,0.105
5992,0.075,0.095
5993,0.065,0.080
5994,0.055,0.070
5995,0.045,0.065
5996,0.025,0.055
5997,0.015,0.040
5998,0.005,0.030
5999,0.000,0.020
6000,-0.010,0.010
6001,-0.020,0.005
6002,-0.030,0.005
6003,-0.035,0.000
6004,-0.035,0.000
6005,-0.040,0.000
6006,-0.040,0.000
6007,-0.040,0.000
6008,-0.040,0.000
6009,-0.040,0.000
6010,-0.040,0.000
6011,-0.040,0.005
6012,-0.040,0.005
6013,-0.035,0.010
6014,-0.035,0.010
6015,-0.030,0.010
6016,-0.030,0.015
6017,-0.025,0.015
6018,-0.025,0.010
6019,-0.030,0.010
6020,-0.025,0.010
6021,-0.020,0.010
6022,-0.020,0.010
6023,-0.015,0.005
6024,-0.010,0.010
6025,-0.005,0.015
6026,0.000,0.010
6027,0.000,0.015
6028,-0.005,0.025
6029,-0.010,0.025
6030,-0.015,0.020
6031,-0.015,0.010
6032,-0.015,0.005
6033,-0.015,0.000
6034,-0.015,0.000
6035,-0.015,0.000
6036,-0.015,0.000
6037,-0.015,0.000
6038,-0.010,0.005
6039,0.035,0.010
6040,0.185,0.005
6041,0.420,-0.105
6042,0.570,-0.350
6043,0.500,-0.470
6044,0.295,-0.390
6045,0.110,-0.240
6046,0.015,-0.105
6047,-0.010,-0.025
6048,-0.025,0.000
6049,-0.035,0.000
6050,-0.040,0.000
6051,-0.040,0.000
6052,-0.040,0.000
6053,-0.035,0.000
6054,-0.035,0.000
6055,-0.030,0.000
6056,-0.025,0.000
6057,-0.025,0.000
6058,-0.020,0.000
6059,-0.020,0.000
6060,-0.020,0.000
6061,-0.015,0.000
6062,-0.015,0.000
6063,-0.010,0.000
6064,-0.005,0.005
6065,0.000,0.010
6066,0.000,0.020
6067,0.000,0.025
6068,0.005,0.030
6069,0.010,0.035
6070,0.015,0.035
6071,0.020,0.045
6072,0.035,0.050
6073,0.045,0.040
6074,0.055,0.035
6075,0.065,0.035
6076,0.070,0.045
6077,0.080,0.060
6078,0.085,0.070
6079,0.080,0.060
6080,0.070,0.050
6081,0.055,0.030
6082,0.040,0.020
6083,0.025,0.010
6084,0.010,0.010
6085,0.000,0.010
6086,-0.005,0.005
6087,-0.015,0.000
6088,-0.025,0.000
6089,-0.030,0.000
6090,-0.035,0.000
6091,-0.040,0.000
6092,-0.040,0.000
6093,-0.040,-0.015
6094,-0.040,-0.035
6095,-0.040,-0.025
6096,-0.040,-0.025
6097,-0.040,-0.050
6098,-0.040,-0.045
6099,-0.040,-0.015
6100,-0.035,-0.010
6101,-0.035,-0.005
6102,-0.035,-0.005
6103,-0.030,0.000
6104,-0.025,0.000
6105,-0.025,-0.005
6106,-0.030,-0.020
6107,-0.025,-0.025
6108,-0.020,-0.050
6109,-0.015,-0.090
6110,-0.010,-0.170
6111,-0.005,-0.215
6112,0.000,-0.240
6113,0.000,-0.215
6114,0.000,-0.135
6115,0.000,-0.065
6116,-0.005,-0.040
6117,-0.010,-0.025
6118,-0.010,-0.025
6119,-0.010,-0.020
6120,-0.015,-0.010
6121,-0.015,0.000
6122,-0.015,0.000
6123,-0.015,0.000
6124,-0.015,0.000
6125,-0.010,-0.005
6126,0.040,-0.015
6127,0.190,-0.030
6128,0.435,-0.165
6129,0.585,-0.410
6130,0.510,-0.515
6131,0.290,-0.390
6132,0.110,-0.220
6133,0.015,-0.095
6134,-0.010,-0.020
6135,-0.025,0.000
6136,-0.030,0.000
6137,-0.035,-0.015
6138,-0.040,-0.035
6139,-0.035,-0.010
6140,-0.035,0.000
6141,-0.030,0.020
6142,-0.025,0.025
6143,-0.025,0.005
6144,-0.030,0.000
6145,-0.025,0.000
6146,-0.020,0.005
6147,-0.015,0.000
6148,-0.015,-0.045
6149,-0.005,-0.040
6150,-0.005,-0.005
6151,0.000,0.000
6152,0.000,0.005
6153,0.000,-0.010
6154,0.005,-0.015
6155,0.010,-0.015
6156,0.015,0.000
6157,0.020,-0.005
6158,0.030,0.000
6159,0.040,0.020
6160,0.055,0.035
6161,0.065,0.050
6162,0.075,0.075
6163,0.080,0.090
6164,0.085,0.075
6165,0.090,0.055
6166,0.085,0.045
6167,0.075,0.050
6168,0.060,0.015
6169,0.040,-0.030
6170,0.020,-0.030
6171,0.010,0.005
6172,0.000,0.015
6173,-0.005,0.025
6174,-0.020,0.040
6175,-0.030,0.040
6176,-0.035,0.030
6177,-0.040,0.000
6178,-0.040,-0.050
6179,-0.040,-0.055
6180,-0.040,-0.030
6181,-0.040,0.000
6182,-0.040,0.000
6183,-0.040,0.005
6184,-0.040,0.000
6185,-0.040,0.000
6186,-0.040,0.000
6187,-0.040,0.000
6188,-0.040,0.000
6189,-0.035,0.000
6190,-0.035,0.000
6191,-0.030,0.005
6192,-0.025,0.015
6193,-0.025,0.020
6194,-0.030,0.025
6195,-0.025,0.015
6196,-0.020,0.010
6197,-0.015,0.005
6198,-0.015,0.005
6199,-0.005,0.005
6200,0.000,0.010
6201,0.000,0.000
6202,0.000,0.000
6203,-0.005,0.000
6204,-0.010,0.000
6205,-0.015,0.000
6206,-0.015,-0.005
6207,-0.015,-0.020
6208,-0.015,-0.020
6209,-0.015,-0.010
6210,-0.015,0.000
6211,-0.020,0.000
6212,-0.020,0.000
6213,-0.005,0.005
6214,0.070,0.010
6215,0.270,-0.025
6216,0.510,-0.195
6217,0.590,-0.430
6218,0.435,-0.435
6219,0.215,-0.310
6220,0.060,-0.160
6221,0.000,-0.065
6222,-0.025,-0.030
6223,-0.035,-0.015
6224,-0.040,-0.005
6225,-0.040,0.000
6226,-0.040,0.000
6227,-0.040,0.005
6228,-0.035,0.000
6229,-0.035,0.000
6230,-0.035,0.000
6231,-0.030,0.000
6232,-0.025,0.000
6233,-0.025,0.000
6234,-0.020,0.005
6235,-0.015,0.005
6236,-0.015,0.005
6237,-0.010,0.005
6238,-0.005,0.005
6239,0.000,0.005
6240,0.000,0.010
6241,0.000,0.010
6242,0.005,0.010
6243,0.010,0.010
6244,0.015,0.010
6245,0.025,0.020
6246,0.035,0.025
6247,0.045,0.030
6248,0.055,0.020
6249,0.065,0.020
6250,0.075,0.030
6251,0.080,0.030
6252,0.085,0.025
6253,0.085,0.020
6254,0.080,0.010
6255,0.070,0.000
6256,0.055,0.000
6257,0.035,0.000
6258,0.020,-0.010
6259,0.005,-0.010
6260,0.000,-0.015
6261,-0.010,-0.015
6262,-0.020,-0.025
6263,-0.030,-0.025
6264,-0.035,-0.035
6265,-0.040,-0.040
6266,-0.040,-0.040
6267,-0.040,-0.040
6268,-0.040,-0.035
6269,-0.040,-0.020
6270,-0.040,-0.020
6271,-0.040,-0.020
6272,-0.040,-0.060
6273,-0.040,-0.115
6274,-0.040,-0.140
6275,-0.040,-0.120
6276,-0.040,-0.100
6277,-0.035,-0.080
6278,-0.035,-0.065
6279,-0.030,-0.050
6280,-0.025,-0.025
6281,-0.025,-0.020
6282,-0.025,-0.010
6283,-0.025,-0.010
6284,-0.020,-0.010
6285,-0.015,-0.020
6286,-0.010,-0.025
6287,-0.005,-0.030
6288,-0.005,-0.020
6289,-0.005,-0.005
6290,-0.010,0.005
6291,-0.015,0.020
6292,-0.015,0.035
6293,-0.015,0.030
6294,-0.015,0.030
6295,-0.015,0.035
6296,-0.020,0.035
6297,-0.025,0.030
6298,-0.025,0.020
6299,-0.025,0.005
6300,-0.020,0.005
6301,0.005,0.020
6302,0.125,0.015
6303,0.355,-0.050
6304,0.555,-0.275
6305,0.540,-0.465
6306,0.340,-0.400
6307,0.135,-0.245
6308,0.020,-0.110
6309,-0.015,-0.025
6310,-0.030,0.005
6311,-0.035,0.020
6312,-0.040,0.040
6313,-0.040,0.040
6314,-0.040,0.055
6315,-0.040,0.060
6316,-0.040,0.065
6317,-0.035,0.055
6318,-0.035,0.005
6319,-0.030,-0.035
6320,-0.025,-0.015
6321,-0.025,0.010
6322,-0.025,0.035
6323,-0.020,0.045
6324,-0.015,0.065
6325,-0.010,0.060
6326,-0.005,0.070
6327,-0.005,0.085
6328,0.000,0.105
6329,0.000,0.125
6330,0.005,0.135
6331,0.010,0.135
6332,0.010,0.135
6333,0.020,0.140
6334,0.030,0.150
6335,0.040,0.160
6336,0.050,0.165
6337,0.055,0.170
6338,0.065,0.180
6339,0.070,0.165
6340,0.080,0.130
6341,0.075,0.110
6342,0.070,0.115
6343,0.055,0.110
6344,0.045,0.100
6345,0.025,0.085
6346,0.010,0.075
6347,0.000,0.065
6348,0.000,0.065
6349,-0.015,0.075
6350,-0.025,0.080
6351,-0.030,0.075
6352,-0.035,0.070
6353,-0.040,0.070
6354,-0.040,0.070
6355,-0.040,0.065
6356,-0.040,0.060
6357,-0.040,0.065
6358,-0.040,0.065
6359,-0.040,0.065
6360,-0.040,0.075
6361,-0.040,0.075
6362,-0.040,0.075
6363,-0.040,0.085
6364,-0.035,0.080
6365,-0.035,0.080
6366,-0.035,0.080
6367,-0.030,0.085
6368,-0.025,0.090
6369,-0.025,0.090
6370,-0.025,0.100
6371,-0.025,0.105
6372,-0.020,0.110
6373,-0.015,0.110
6374,-0.010,0.115
6375,-0.005,0.120
6376,-0.005,0.120
6377,-0.005,0.125
6378,-0.010,0.120
6379,-0.015,0.110
6380,-0.015,0.095
6381,-0.015,0.075
6382,-0.015,0.055
6383,-0.015,0.055
6384,-0.015,0.065
6385,-0.015,0.080
6386,-0.015,0.075
6387,-0.020,0.085
6388,-0.010,0.085
6389,0.040,0.090
6390,0.205,0.075
6391,0.455,-0.060
6392,0.585,-0.330
6393,0.480,-0.410
6394,0.250,-0.310
6395,0.080,-0.140
6396,0.000,-0.010
6397,-0.020,0.050
6398,-0.035,0.075
6399,-0.040,0.065
6400,-0.040,0.050
6401,-0.040,0.050
6402,-0.040,0.040
6403,-0.040,0.040
6404,-0.035,0.045
6405,-0.035,0.055
6406,-0.030,0.075
6407,-0.025,0.070
6408,-0.025,0.060
6409,-0.020,0.065
6410,-0.020,0.065
6411,-0.015,0.050
6412,-0.015,0.055
6413,-0.010,0.075
6414,-0.005,0.085
6415,0.000,0.100
6416,0.000,0.090
6417,0.000,0.040
6418,0.005,0.005
6419,0.010,-0.005
6420,0.015,-0.015
6421,0.020,-0.020
6422,0.025,-0.015
6423,0.035,-0.005
6424,0.045,0.000
6425,0.055,0.000
6426,0.065,0.000
6427,0.070,-0.015
6428,0.075,-0.035
6429,0.070,-0.055
6430,0.065,-0.070
6431,0.055,-0.075
6432,0.040,-0.075
6433,0.020,-0.080
6434,0.005,-0.080
6435,0.000,-0.075
6436,-0.010,-0.075
6437,-0.020,-0.075
6438,-0.025,-0.075
6439,-0.030,-0.075
6440,-0.035,-0.070
6441,-0.040,-0.060
6442,-0.040,-0.050
6443,-0.040,-0.035
6444,-0.040,0.000
6445,-0.040,0.040
6446,-0.040,0.050
6447,-0.040,0.065
6448,-0.040,0.070
6449,-0.040,0.075
6450,-0.040,0.085
6451,-0.035,0.085
6452,-0.035,0.085
6453,-0.030,0.080
6454,-0.030,0.075
6455,-0.025,0.075
6456,-0.025,0.060
6457,-0.025,0.050
6458,-0.020,0.035
6459,-0.015,0.015
6460,-0.015,0.005
6461,-0.005,0.000
6462,0.000,0.000
6463,0.000,0.000
6464,0.000,0.015
6465,-0.005,0.040
6466,-0.005,0.055
6467,-0.010,0.065
6468,-0.010,0.060
6469,-0.010,0.055
6470,-0.015,0.045
6471,-0.015,0.025
6472,-0.015,0.025
6473,-0.015,0.040
6474,-0.015,0.040
6475,-0.005,0.035
6476,0.055,0.030
6477,0.235,-0.005
6478,0.485,-0.160
6479,0.595,-0.430
6480,0.460,-0.445
6481,0.235,-0.305
6482,0.070,-0.125
6483,0.000,-0.005
6484,-0.020,0.050
6485,-0.030,0.070
6486,-0.030,0.070
6487,-0.035,0.070
6488,-0.040,0.075
6489,-0.035,0.070
6490,-0.035,0.070
6491,-0.035,0.065
6492,-0.030,0.065
6493,-0.025,0.075
6494,-0.025,0.080
6495,-0.020,0.095
6496,-0.020,0.100
6497,-0.015,0.105
6498,-0.015,0.110
6499,-0.015,0.115
6500,-0.010,0.120
6501,-0.005,0.125
6502,0.000,0.125
6503,0.000,0.135
6504,0.005,0.135
6505,0.005,0.110
6506,0.010,0.080
6507,0.015,0.075
6508,0.020,0.075
6509,0.030,0.090
6510,0.040,0.110
6511,0.050,0.125
6512,0.060,0.135
6513,0.070,0.135
6514,0.075,0.125
6515,0.075,0.105
6516,0.070,0.070
6517,0.060,0.030
6518,0.050,0.005
6519,0.035,0.000
6520,0.020,0.000
6521,0.005,0.015
6522,0.000,0.020
6523,-0.010,0.030
6524,-0.020,0.045
6525,-0.025,0.045
6526,-0.030,0.040
6527,-0.035,0.035
6528,-0.040,0.025
6529,-0.040,0.030
6530,-0.040,0.025
6531,-0.040,0.030
6532,-0.040,0.035
6533,-0.040,0.035
6534,-0.040,0.025
6535,-0.040,0.025
6536,-0.035,0.035
6537,-0.035,0.040
6538,-0.035,0.040
6539,-0.030,0.035
6540,-0.025,0.040
6541,-0.025,0.040
6542,-0.025,0.040
6543,-0.025,0.040
6544,-0.020,0.035
6545,-0.015,0.030
6546,-0.015,0.025
6547,-0.010,0.020
6548,0.000,0.020
6549,0.000,0.010
6550,0.000,0.020
6551,0.000,0.040
6552,-0.005,0.050
6553,-0.005,0.055
6554,-0.005,0.045
6555,-0.005,0.030
6556,-0.010,0.020
6557,-0.015,0.020
6558,-0.015,0.025
6559,-0.015,0.025
6560,-0.015,0.020
6561,-0.010,0.015
6562,0.000,0.015
6563,0.095,0.020
6564,0.320,0.000
6565,0.550,-0.225
6566,0.570,-0.465
6567,0.385,-0.435
6568,0.170,-0.275
6569,0.035,-0.120
6570,-0.005,-0.015
6571,-0.015,0.010
6572,-0.025,0.030
6573,-0.030,0.035
6574,-0.035,0.030
6575,-0.035,0.030
6576,-0.035,0.035
6577,-0.030,0.030
6578,-0.025,0.030
6579,-0.025,0.035
6580,-0.025,0.040
6581,-0.020,0.040
6582,-0.020,0.040
6583,-0.020,0.045
6584,-0.015,0.060
6585,-0.015,0.065
6586,-0.010,0.070
6587,-0.005,0.075
6588,0.000,0.075
6589,0.000,0.080
6590,0.000,0.085
6591,0.005,0.085
6592,0.010,0.070
6593,0.010,0.060
6594,0.015,0.065
6595,0.020,0.075
6596,0.035,0.085
6597,0.045,0.090
6598,0.055,0.090
6599,0.065,0.090
6600,0.070,0.090
6601,0.075,0.070
6602,0.075,0.040
6603,0.070,0.030
6604,0.060,0.040
6605,0.045,0.040
6606,0.025,0.045
6607,0.010,0.035
6608,0.000,0.030
6609,0.000,0.025
6610,-0.015,0.020
6611,-0.020,0.015
6612,-0.030,0.010
6613,-0.035,0.010
6614,-0.035,0.015
6615,-0.035,0.020
6616,-0.040,0.020
6617,-0.040,0.020
6618,-0.040,0.015
6619,-0.040,0.015
6620,-0.040,0.015
6621,-0.035,0.015
6622,-0.035,0.005
6623,-0.035,0.010
6624,-0.035,0.015
6625,-0.035,0.020
6626,-0.030,0.025
6627,-0.025,0.030
6628,-0.025,0.030
6629,-0.025,0.030
6630,-0.020,0.035
6631,-0.020,0.040
6632,-0.015,0.035
6633,-0.010,0.030
6634,-0.005,0.030
6635,0.000,0.025
6636,0.000,0.010
6637,0.000,-0.005
6638,-0.005,-0.030
6639,-0.005,-0.065
6640,-0.005,-0.110
6641,-0.005,-0.160
6642,-0.005,-0.185
6643,-0.010,-0.165
6644,-0.015,-0.120
6645,-0.015,-0.080
6646,-0.015,-0.070
6647,-0.015,-0.065
6648,-0.005,-0.060
6649,0.045,-0.050
6650,0.215,-0.050
6651,0.470,-0.150
6652,0.600,-0.430
6653,0.480,-0.470
6654,0.255,-0.350
6655,0.080,-0.180
6656,0.005,-0.095
6657,-0.010,-0.065
6658,-0.020,-0.015
6659,-0.025,0.000
6660,-0.030,0.000
6661,-0.035,0.005
6662,-0.035,0.005
6663,-0.030,0.010
6664,-0.025,-0.005
6665,-0.025,-0.025
6666,-0.025,-0.020
6667,-0.025,-0.020
6668,-0.020,-0.020
6669,-0.015,-0.035
6670,-0.015,-0.040
6671,-0.010,-0.045
6672,-0.005,-0.045
6673,-0.005,-0.045
6674,0.000,-0.030
6675,0.000,-0.005
6676,0.005,0.005
6677,0.010,-0.030
6678,0.010,-0.120
6679,0.015,-0.205
6680,0.025,-0.240
6681,0.035,-0.175
6682,0.045,-0.060
6683,0.055,0.000
6684,0.065,0.035
6685,0.075,0.025
6686,0.085,-0.020
6687,0.090,-0.005
6688,0.090,0.030
6689,0.085,0.035
6690,0.075,0.025
6691,0.060,0.025
6692,0.040,0.030
6693,0.020,0.040
6694,0.010,0.040
6695,0.000,0.050
6696,-0.010,0.050
6697,-0.020,0.050
6698,-0.025,0.030
6699,-0.025,0.025
6700,-0.030,0.025
6701,-0.035,0.025
6702,-0.040,0.025
6703,-0.040,0.015
6704,-0.040,0.015
6705,-0.040,0.020
6706,-0.040,0.010
6707,-0.040,0.000
6708,-0.040,0.005
6709,-0.040,0.000
6710,-0.035,0.000
6711,-0.030,0.000
6712,-0.025,0.015
6713,-0.025,0.025
6714,-0.025,0.035
6715,-0.030,0.040
6716,-0.025,0.040
6717,-0.020,0.045
6718,-0.020,0.050
6719,-0.010,0.045
6720,-0.005,0.045
6721,-0.005,0.045
6722,0.000,0.050
6723,0.000,0.040
6724,0.000,0.040
6725,0.000,0.035
6726,-0.005,0.025
6727,-0.005,0.020
6728,-0.005,0.015
6729,-0.010,0.005
6730,-0.015,0.000
6731,-0.015,-0.025
6732,-0.015,-0.010
6733,-0.015,-0.005
6734,-0.020,0.000
6735,-0.010,0.000
6736,0.035,0.000
6737,0.210,-0.020
6738,0.475,-0.155
6739,0.620,-0.450
6740,0.500,-0.495
6741,0.255,-0.340
6742,0.080,-0.175
6743,0.000,-0.050
6744,-0.015,0.000
6745,-0.025,0.010
6746,-0.030,0.020
6747,-0.035,0.035
6748,-0.040,0.030
6749,-0.040,0.015
6750,-0.035,0.015
6751,-0.035,0.015
6752,-0.030,0.015
