'sample interval','ECG0','ECG1'
'0.0078125 sec','mV','mV'
0,0.015,0.015
1,0.015,0.015
2,0.015,0.010
3,0.015,0.005
4,0.015,0.005
5,0.015,0.000
6,0.015,0.000
7,0.015,0.000
8,0.015,0.000
9,0.015,-0.005
10,0.015,-0.010
11,0.015,-0.010
12,0.015,-0.015
13,0.015,-0.020
14,0.015,-0.020
15,0.015,-0.020
16,0.010,-0.025
17,0.010,-0.025
18,0.010,-0.020
19,0.010,-0.020
20,0.015,-0.020
21,0.015,-0.020
22,0.015,-0.025
23,0.015,-0.020
24,0.015,-0.020
25,0.015,-0.020
26,0.015,-0.020
27,0.015,-0.015
28,0.015,-0.015
29,0.015,-0.015
30,0.015,-0.015
31,0.015,-0.015
32,0.015,-0.015
33,0.015,-0.015
34,0.015,-0.010
35,0.015,-0.005
36,0.015,-0.005
37,0.015,-0.005
38,0.015,0.000
39,0.020,0.000
40,0.030,0.005
41,0.050,0.020
42,0.070,0.040
43,0.080,0.050
44,0.070,0.065
45,0.050,0.075
46,0.030,0.090
47,0.020,0.095
48,0.010,0.085
49,0.010,0.055
50,0.005,0.035
51,0.005,0.010
52,0.010,-0.005
53,0.015,-0.025
54,0.015,-0.035
55,0.015,-0.040
56,0.030,-0.050
57,0.075,-0.070
58,0.140,-0.045
59,0.175,0.105
60,0.095,0.455
61,-0.105,0.865
62,-0.325,1.010
63,-0.470,0.690
64,-0.500,0.170
65,-0.405,-0.150
66,-0.225,-0.200
67,-0.060,-0.140
68,0.020,-0.090
69,0.055,-0.075
70,0.065,-0.070
71,0.065,-0.065
72,0.065,-0.060
73,0.065,-0.060
74,0.065,-0.060
75,0.070,-0.060
76,0.075,-0.055
77,0.075,-0.055
78,0.075,-0.050
79,0.080,-0.040
80,0.080,-0.025
81,0.080,-0.015
82,0.080,-0.005
83,0.080,0.000
84,0.090,0.005
85,0.095,0.020
86,0.095,0.020
87,0.100,0.035
88,0.105,0.050
89,0.110,0.055
90,0.110,0.070
91,0.115,0.090
92,0.120,0.105
93,0.125,0.115
94,0.130,0.125
95,0.130,0.140
96,0.130,0.150
97,0.130,0.160
98,0.130,0.170
99,0.130,0.175
100,0.130,0.185
101,0.130,0.190
102,0.130,0.195
103,0.130,0.200
104,0.130,0.205
105,0.125,0.205
106,0.115,0.195
107,0.110,0.185
108,0.105,0.165
109,0.100,0.140
110,0.095,0.115
111,0.080,0.095
112,0.065,0.070
113,0.055,0.055
114,0.045,0.045
115,0.035,0.040
116,0.025,0.035
117,0.020,0.025
118,0.015,0.015
119,0.015,0.010
120,0.015,0.010
121,0.015,0.005
122,0.015,0.000
123,0.015,0.000
124,0.015,0.000
125,0.015,-0.010
126,0.015,-0.010
127,0.015,-0.015
128,0.015,-0.020
129,0.015,-0.020
130,0.015,-0.020
131,0.015,-0.025
132,0.010,-0.025
133,0.005,-0.030
134,0.005,-0.030
135,0.000,-0.035
136,0.000,-0.040
137,0.000,-0.045
138,0.000,-0.040
139,0.005,-0.040
140,0.010,-0.045
141,0.010,-0.045
142,0.010,-0.045
143,0.015,-0.040
144,0.015,-0.040
145,0.015,-0.040
146,0.015,-0.045
147,0.015,-0.040
148,0.015,-0.030
149,0.015,-0.030
150,0.015,-0.030
151,0.015,-0.035
152,0.015,-0.035
153,0.015,-0.035
154,0.015,-0.030
155,0.015,-0.030
156,0.015,-0.030
157,0.015,-0.030
158,0.015,-0.030
159,0.015,-0.030
160,0.015,-0.025
161,0.015,-0.020
162,0.015,-0.020
163,0.020,-0.015
164,0.025,-0.005
165,0.045,0.005
166,0.065,0.025
167,0.070,0.035
168,0.055,0.045
169,0.025,0.055
170,0.010,0.065
171,0.010,0.065
172,0.005,0.060
173,0.000,0.030
174,-0.005,0.010
175,0.000,-0.010
176,0.005,-0.040
177,0.010,-0.060
178,0.015,-0.065
179,0.015,-0.070
180,0.030,-0.085
181,0.080,-0.105
182,0.140,-0.080
183,0.165,0.085
184,0.070,0.450
185,-0.145,0.865
186,-0.370,0.985
187,-0.505,0.635
188,-0.525,0.115
189,-0.420,-0.180
190,-0.225,-0.215
191,-0.060,-0.160
192,0.020,-0.125
193,0.045,-0.115
194,0.055,-0.105
195,0.055,-0.100
196,0.055,-0.095
197,0.055,-0.095
198,0.055,-0.095
199,0.055,-0.090
200,0.060,-0.085
201,0.060,-0.085
202,0.065,-0.080
203,0.065,-0.070
204,0.070,-0.060
205,0.075,-0.050
206,0.075,-0.035
207,0.080,-0.025
208,0.080,-0.010
209,0.085,0.000
210,0.085,0.005
211,0.090,0.015
212,0.095,0.025
213,0.105,0.045
214,0.105,0.050
215,0.105,0.070
216,0.110,0.085
217,0.115,0.090
218,0.120,0.100
219,0.120,0.110
220,0.115,0.120
221,0.110,0.125
222,0.110,0.130
223,0.105,0.135
224,0.105,0.145
225,0.105,0.155
226,0.105,0.160
227,0.105,0.165
228,0.105,0.170
229,0.105,0.170
230,0.105,0.160
231,0.105,0.150
232,0.095,0.130
233,0.085,0.110
234,0.070,0.085
235,0.065,0.065
236,0.055,0.045
237,0.045,0.030
238,0.035,0.020
239,0.025,0.010
240,0.020,0.005
241,0.015,0.000
242,0.015,0.000
243,0.015,0.000
244,0.010,-0.005
245,0.010,-0.010
246,0.005,-0.015
247,0.000,-0.020
248,0.000,-0.025
249,0.000,-0.030
250,0.000,-0.035
251,0.000,-0.040
252,0.000,-0.045
253,0.000,-0.050
254,0.000,-0.055
255,0.000,-0.060
256,0.000,-0.060
257,0.000,-0.060
258,0.000,-0.065
259,0.000,-0.065
260,0.000,-0.065
261,0.000,-0.070
262,0.000,-0.070
263,-0.005,-0.070
264,-0.010,-0.070
265,-0.005,-0.070
266,-0.005,-0.070
267,-0.005,-0.070
268,-0.010,-0.070
269,-0.010,-0.070
270,-0.010,-0.070
271,-0.010,-0.070
272,-0.010,-0.070
273,-0.015,-0.070
274,-0.015,-0.065
275,-0.015,-0.065
276,-0.015,-0.065
277,-0.020,-0.065
278,-0.015,-0.065
279,-0.015,-0.070
280,-0.010,-0.065
281,-0.010,-0.060
282,-0.010,-0.060
283,-0.010,-0.065
284,-0.010,-0.065
285,-0.010,-0.065
286,-0.005,-0.060
287,0.000,-0.055
288,0.005,-0.040
289,0.015,-0.025
290,0.025,-0.005
291,0.025,0.005
292,0.020,0.015
293,0.005,0.025
294,0.000,0.040
295,-0.005,0.040
296,-0.025,0.025
297,-0.045,0.005
298,-0.040,-0.015
299,-0.030,-0.045
300,-0.020,-0.075
301,-0.020,-0.090
302,-0.020,-0.095
303,-0.020,-0.100
304,0.000,-0.115
305,0.045,-0.145
306,0.105,-0.115
307,0.120,0.070
308,0.015,0.450
309,-0.210,0.875
310,-0.430,0.970
311,-0.545,0.575
312,-0.545,0.040
313,-0.430,-0.230
314,-0.240,-0.250
315,-0.080,-0.195
316,-0.005,-0.160
317,0.010,-0.145
318,0.015,-0.140
319,0.015,-0.135
320,0.015,-0.135
321,0.015,-0.135
322,0.015,-0.135
323,0.015,-0.135
324,0.015,-0.135
325,0.015,-0.130
326,0.020,-0.125
327,0.025,-0.115
328,0.025,-0.105
329,0.025,-0.090
330,0.025,-0.080
331,0.025,-0.065
332,0.025,-0.050
333,0.030,-0.035
334,0.035,-0.025
335,0.045,-0.005
336,0.050,0.005
337,0.055,0.015
338,0.060,0.025
339,0.065,0.045
340,0.075,0.050
341,0.075,0.060
342,0.075,0.070
343,0.075,0.075
344,0.080,0.085
345,0.080,0.090
346,0.080,0.100
347,0.080,0.110
348,0.075,0.120
349,0.075,0.125
350,0.075,0.135
351,0.075,0.140
352,0.075,0.140
353,0.075,0.145
354,0.070,0.135
355,0.060,0.120
356,0.050,0.100
357,0.040,0.075
358,0.030,0.050
359,0.020,0.030
360,0.015,0.015
361,0.015,0.005
362,0.010,0.000
363,0.005,0.000
364,0.000,-0.010
365,0.000,-0.020
366,0.000,-0.025
367,-0.010,-0.025
368,-0.015,-0.030
369,-0.015,-0.035
370,-0.020,-0.040
371,-0.020,-0.045
372,-0.020,-0.055
373,-0.020,-0.060
374,-0.020,-0.065
375,-0.020,-0.070
376,-0.020,-0.070
377,-0.025,-0.075
378,-0.030,-0.080
379,-0.030,-0.085
380,-0.030,-0.085
381,-0.030,-0.085
382,-0.030,-0.085
383,-0.030,-0.085
384,-0.030,-0.095
385,-0.030,-0.095
386,-0.035,-0.095
387,-0.035,-0.095
388,-0.035,-0.095
389,-0.035,-0.100
390,-0.035,-0.100
391,-0.035,-0.095
392,-0.035,-0.095
393,-0.035,-0.095
394,-0.035,-0.100
395,-0.035,-0.100
396,-0.035,-0.100
397,-0.030,-0.095
398,-0.030,-0.095
399,-0.030,-0.095
400,-0.030,-0.095
401,-0.030,-0.090
402,-0.030,-0.090
403,-0.030,-0.090
404,-0.030,-0.095
405,-0.025,-0.095
406,-0.020,-0.090
407,-0.020,-0.085
408,-0.020,-0.080
409,-0.020,-0.080
410,-0.020,-0.075
411,-0.015,-0.070
412,-0.005,-0.060
413,0.000,-0.045
414,0.010,-0.025
415,0.020,-0.010
416,0.020,0.000
417,0.010,0.005
418,0.000,0.020
419,0.000,0.030
420,-0.015,0.030
421,-0.030,0.015
422,-0.035,0.000
423,-0.030,-0.020
424,-0.020,-0.055
425,-0.020,-0.075
426,-0.020,-0.090
427,-0.020,-0.090
428,-0.010,-0.095
429,0.010,-0.110
430,0.075,-0.130
431,0.130,-0.045
432,0.105,0.235
433,-0.070,0.675
434,-0.315,1.015
435,-0.485,0.870
436,-0.545,0.335
437,-0.490,-0.110
438,-0.320,-0.240
439,-0.135,-0.200
440,-0.025,-0.150
441,0.015,-0.130
442,0.025,-0.120
443,0.025,-0.115
444,0.025,-0.105
445,0.030,-0.100
446,0.035,-0.095
447,0.040,-0.095
448,0.040,-0.090
449,0.045,-0.085
450,0.050,-0.075
451,0.055,-0.070
452,0.055,-0.060
453,0.055,-0.045
454,0.060,-0.035
455,0.065,-0.025
456,0.070,-0.015
457,0.075,-0.005
458,0.080,0.000
459,0.080,0.005
460,0.090,0.025
461,0.100,0.040
462,0.105,0.050
463,0.110,0.065
464,0.115,0.075
465,0.115,0.090
466,0.125,0.110
467,0.130,0.130
468,0.130,0.140
469,0.130,0.150
470,0.130,0.160
471,0.130,0.165
472,0.130,0.175
473,0.125,0.180
474,0.125,0.190
475,0.125,0.205
476,0.125,0.215
477,0.120,0.220
478,0.115,0.220
479,0.110,0.200
480,0.105,0.185
481,0.100,0.160
482,0.085,0.130
483,0.075,0.110
484,0.065,0.090
485,0.055,0.075
486,0.050,0.060
487,0.040,0.055
488,0.035,0.045
489,0.030,0.035
490,0.025,0.030
491,0.025,0.025
492,0.025,0.020
493,0.025,0.015
494,0.020,0.015
495,0.015,0.010
496,0.015,0.005
497,0.015,0.000
498,0.015,0.000
499,0.015,0.000
500,0.015,0.000
501,0.015,-0.005
502,0.015,-0.010
503,0.015,-0.010
504,0.015,-0.015
505,0.015,-0.020
506,0.010,-0.025
507,0.010,-0.025
508,0.010,-0.025
509,0.010,-0.030
510,0.010,-0.025
511,0.005,-0.025
512,0.005,-0.025
513,0.005,-0.025
514,0.005,-0.030
515,0.010,-0.025
516,0.010,-0.025
517,0.015,-0.025
518,0.015,-0.025
519,0.015,-0.020
520,0.015,-0.020
521,0.015,-0.020
522,0.015,-0.020
523,0.015,-0.020
524,0.015,-0.020
525,0.015,-0.020
526,0.015,-0.015
527,0.015,-0.010
528,0.015,-0.010
529,0.015,-0.010
530,0.015,-0.010
531,0.015,-0.005
532,0.015,0.000
533,0.015,0.000
534,0.015,0.000
535,0.015,0.000
536,0.015,0.000
537,0.030,0.015
538,0.050,0.030
539,0.065,0.050
540,0.070,0.065
541,0.055,0.075
542,0.035,0.080
543,0.020,0.095
544,0.015,0.095
545,0.005,0.075
546,0.000,0.050
547,0.000,0.030
548,0.005,0.005
549,0.010,-0.010
550,0.015,-0.025
551,0.015,-0.035
552,0.015,-0.040
553,0.035,-0.055
554,0.095,-0.080
555,0.165,-0.045
556,0.175,0.165
557,0.050,0.585
558,-0.195,0.995
559,-0.405,1.005
560,-0.505,0.520
561,-0.495,0.005
562,-0.360,-0.195
563,-0.165,-0.175
564,-0.025,-0.120
565,0.030,-0.090
566,0.055,-0.080
567,0.060,-0.075
568,0.060,-0.070
569,0.060,-0.065
570,0.060,-0.065
571,0.060,-0.060
572,0.065,-0.060
573,0.065,-0.060
574,0.070,-0.055
575,0.070,-0.045
576,0.070,-0.035
577,0.075,-0.025
578,0.080,-0.015
579,0.080,-0.005
580,0.080,0.000
581,0.080,0.005
582,0.090,0.015
583,0.095,0.030
584,0.100,0.040
585,0.105,0.055
586,0.105,0.070
587,0.110,0.085
588,0.115,0.100
589,0.120,0.110
590,0.130,0.125
591,0.130,0.145
592,0.130,0.150
593,0.130,0.160
594,0.130,0.170
595,0.130,0.175
596,0.130,0.180
597,0.125,0.190
598,0.125,0.190
599,0.125,0.200
600,0.125,0.210
601,0.125,0.215
602,0.125,0.210
603,0.120,0.200
604,0.115,0.180
605,0.110,0.155
606,0.100,0.135
607,0.085,0.105
608,0.075,0.085
609,0.065,0.065
610,0.050,0.050
611,0.040,0.045
612,0.030,0.040
613,0.030,0.030
614,0.025,0.025
615,0.025,0.015
616,0.020,0.010
617,0.015,0.005
618,0.015,0.000
619,0.015,0.000
620,0.015,0.000
621,0.015,0.000
622,0.015,-0.005
623,0.015,-0.010
624,0.015,-0.010
625,0.015,-0.010
626,0.015,-0.005
627,0.015,-0.005
628,0.015,-0.015
629,0.015,-0.020
630,0.015,-0.030
631,0.015,-0.030
632,0.010,-0.035
633,0.010,-0.035
634,0.010,-0.035
635,0.010,-0.035
636,0.015,-0.035
637,0.015,-0.035
638,0.010,-0.030
639,0.010,-0.030
640,0.010,-0.030
641,0.010,-0.030
642,0.010,-0.025
643,0.010,-0.025
644,0.010,-0.025
645,0.010,-0.025
646,0.015,-0.025
647,0.015,-0.020
648,0.015,-0.020
649,0.015,-0.020
650,0.015,-0.020
651,0.015,-0.015
652,0.015,-0.010
653,0.015,-0.010
654,0.015,-0.010
655,0.015,-0.010
656,0.015,-0.010
657,0.015,-0.010
658,0.015,-0.010
659,0.015,-0.010
660,0.015,0.000
661,0.030,0.005
662,0.045,0.015
663,0.065,0.035
664,0.070,0.050
665,0.055,0.060
666,0.035,0.070
667,0.020,0.080
668,0.010,0.075
669,0.005,0.060
670,0.000,0.045
671,0.000,0.025
672,0.005,0.000
673,0.010,-0.020
674,0.010,-0.040
675,0.010,-0.055
676,0.010,-0.055
677,0.030,-0.060
678,0.085,-0.085
679,0.155,-0.050
680,0.165,0.145
681,0.045,0.550
682,-0.200,0.995
683,-0.430,1.040
684,-0.535,0.560
685,-0.530,0.015
686,-0.390,-0.200
687,-0.185,-0.180
688,-0.025,-0.120
689,0.030,-0.090
690,0.050,-0.075
691,0.055,-0.070
692,0.055,-0.065
693,0.055,-0.065
694,0.055,-0.065
695,0.060,-0.065
696,0.060,-0.065
697,0.060,-0.060
698,0.060,-0.055
699,0.065,-0.045
700,0.065,-0.040
701,0.070,-0.030
702,0.075,-0.015
703,0.075,0.000
704,0.080,0.000
705,0.080,0.005
706,0.080,0.015
707,0.085,0.030
708,0.095,0.040
709,0.100,0.050
710,0.105,0.065
711,0.105,0.085
712,0.110,0.100
713,0.115,0.115
714,0.115,0.130
715,0.120,0.140
716,0.125,0.150
717,0.125,0.160
718,0.120,0.165
719,0.110,0.175
720,0.105,0.180
721,0.105,0.185
722,0.105,0.190
723,0.105,0.190
724,0.105,0.200
725,0.105,0.200
726,0.105,0.200
727,0.105,0.195
728,0.105,0.180
729,0.090,0.155
730,0.080,0.125
731,0.070,0.105
732,0.060,0.080
733,0.045,0.060
734,0.035,0.050
735,0.025,0.045
736,0.020,0.035
737,0.015,0.025
738,0.015,0.020
739,0.010,0.015
740,0.010,0.005
741,0.005,0.000
742,0.000,0.000
743,0.000,0.000
744,0.000,0.000
745,0.000,-0.005
746,0.000,-0.010
747,0.000,-0.015
748,0.000,-0.020
749,0.000,-0.025
750,0.000,-0.030
751,-0.005,-0.035
752,-0.005,-0.035
753,-0.010,-0.040
754,-0.015,-0.040
755,-0.015,-0.040
756,-0.015,-0.050
757,-0.020,-0.055
758,-0.020,-0.060
759,-0.020,-0.060
760,-0.020,-0.060
761,-0.020,-0.060
762,-0.020,-0.055
763,-0.020,-0.055
764,-0.020,-0.055
765,-0.020,-0.055
766,-0.020,-0.055
767,-0.020,-0.050
768,-0.020,-0.050
769,-0.020,-0.050
770,-0.020,-0.050
771,-0.020,-0.055
772,-0.020,-0.045
773,-0.020,-0.040
774,-0.020,-0.040
775,-0.020,-0.040
776,-0.010,-0.045
777,-0.010,-0.045
778,-0.005,-0.045
779,-0.005,-0.040
780,-0.005,-0.040
781,-0.005,-0.040
782,-0.005,-0.040
783,0.000,-0.030
784,0.000,-0.020
785,0.010,-0.005
786,0.020,0.005
787,0.035,0.010
788,0.030,0.020
789,0.020,0.035
790,0.010,0.045
791,0.000,0.055
792,-0.005,0.055
793,-0.015,0.035
794,-0.025,0.015
795,-0.030,-0.005
796,-0.025,-0.030
797,-0.020,-0.060
798,-0.020,-0.075
799,-0.020,-0.080
800,-0.015,-0.085
801,0.005,-0.105
802,0.055,-0.120
803,0.115,-0.060
804,0.105,0.165
805,-0.030,0.585
806,-0.280,0.980
807,-0.485,0.965
808,-0.565,0.445
809,-0.535,-0.085
810,-0.390,-0.270
811,-0.180,-0.220
812,-0.040,-0.160
813,0.000,-0.135
814,0.010,-0.125
815,0.015,-0.125
816,0.015,-0.120
817,0.015,-0.120
818,0.015,-0.120
819,0.015,-0.115
820,0.015,-0.115
821,0.015,-0.115
822,0.015,-0.110
823,0.015,-0.095
824,0.015,-0.085
825,0.020,-0.075
826,0.025,-0.065
827,0.025,-0.055
828,0.025,-0.040
829,0.025,-0.020
830,0.035,-0.005
831,0.040,0.000
832,0.050,0.005
833,0.055,0.015
834,0.055,0.030
835,0.055,0.040
836,0.065,0.045
837,0.070,0.060
838,0.075,0.075
839,0.080,0.090
840,0.080,0.100
841,0.080,0.105
842,0.080,0.115
843,0.080,0.125
844,0.080,0.125
845,0.080,0.135
846,0.080,0.145
847,0.080,0.155
848,0.075,0.160
849,0.075,0.165
850,0.070,0.160
851,0.065,0.150
852,0.055,0.135
853,0.045,0.115
854,0.040,0.100
855,0.030,0.070
856,0.020,0.050
857,0.015,0.035
858,0.010,0.020
859,0.010,0.010
860,0.000,0.005
861,0.000,0.000
862,0.000,0.000
863,0.000,-0.005
864,-0.010,-0.010
865,-0.015,-0.010
866,-0.020,-0.010
867,-0.020,-0.015
868,-0.020,-0.025
869,-0.020,-0.035
870,-0.020,-0.040
871,-0.020,-0.045
872,-0.020,-0.045
873,-0.020,-0.045
874,-0.020,-0.050
875,-0.020,-0.055
876,-0.020,-0.065
877,-0.030,-0.070
878,-0.030,-0.070
879,-0.030,-0.070
880,-0.030,-0.070
881,-0.030,-0.070
882,-0.035,-0.075
883,-0.035,-0.075
884,-0.035,-0.075
885,-0.035,-0.080
886,-0.035,-0.085
887,-0.035,-0.080
888,-0.035,-0.080
889,-0.035,-0.085
890,-0.035,-0.085
891,-0.035,-0.085
892,-0.035,-0.080
893,-0.030,-0.075
894,-0.025,-0.070
895,-0.025,-0.070
896,-0.025,-0.070
897,-0.020,-0.070
898,-0.020,-0.070
899,-0.020,-0.065
900,-0.020,-0.060
901,-0.020,-0.060
902,-0.020,-0.060
903,-0.015,-0.055
904,-0.010,-0.055
905,-0.010,-0.050
906,-0.005,-0.050
907,0.000,-0.050
908,0.000,-0.040
909,0.010,-0.025
910,0.025,-0.005
911,0.035,0.005
912,0.040,0.015
913,0.030,0.030
914,0.015,0.040
915,0.010,0.045
916,0.000,0.050
917,-0.005,0.035
918,-0.010,0.020
919,-0.015,0.000
920,-0.005,-0.025
921,0.000,-0.050
922,0.000,-0.065
923,0.000,-0.070
924,0.000,-0.070
925,0.020,-0.080
926,0.075,-0.095
927,0.130,-0.050
928,0.135,0.150
929,0.015,0.540
930,-0.210,0.945
931,-0.425,1.000
932,-0.520,0.565
933,-0.505,0.015
934,-0.375,-0.210
935,-0.175,-0.185
936,-0.025,-0.120
937,0.025,-0.090
938,0.040,-0.080
939,0.045,-0.075
940,0.050,-0.070
941,0.050,-0.070
942,0.055,-0.065
943,0.055,-0.065
944,0.055,-0.060
945,0.055,-0.055
946,0.055,-0.050
947,0.055,-0.045
948,0.060,-0.030
949,0.065,-0.020
950,0.070,-0.010
951,0.075,0.000
952,0.075,0.005
953,0.080,0.010
954,0.085,0.020
955,0.090,0.030
956,0.095,0.045
957,0.100,0.055
958,0.105,0.070
959,0.110,0.090
960,0.115,0.105
961,0.120,0.120
962,0.130,0.135
963,0.130,0.145
964,0.130,0.155
965,0.130,0.170
966,0.130,0.180
967,0.130,0.185
968,0.130,0.190
969,0.130,0.200
970,0.130,0.205
971,0.130,0.215
972,0.130,0.225
973,0.130,0.230
974,0.125,0.225
975,0.120,0.220
976,0.110,0.205
977,0.105,0.185
978,0.095,0.155
979,0.080,0.135
980,0.070,0.110
981,0.060,0.090
982,0.055,0.080
983,0.050,0.070
984,0.040,0.060
985,0.030,0.050
986,0.030,0.050
987,0.025,0.040
988,0.025,0.035
989,0.025,0.030
990,0.020,0.025
991,0.015,0.025
992,0.015,0.015
993,0.015,0.015
994,0.015,0.015
995,0.015,0.005
996,0.015,0.005
997,0.015,0.000
998,0.015,0.000
999,0.015,0.000
1000,0.015,0.000
1001,0.015,-0.005
1002,0.015,-0.010
1003,0.015,-0.010
1004,0.010,-0.010
1005,0.010,-0.010
1006,0.015,-0.015
1007,0.015,-0.015
1008,0.015,-0.015
1009,0.015,-0.015
1010,0.015,-0.015
1011,0.015,-0.015
1012,0.015,-0.015
1013,0.015,-0.015
1014,0.015,-0.015
1015,0.015,-0.015
1016,0.015,-0.015
1017,0.015,-0.015
1018,0.015,-0.015
1019,0.015,-0.010
1020,0.015,-0.010
1021,0.015,-0.005
1022,0.015,-0.005
1023,0.015,-0.005
1024,0.015,-0.005
1025,0.015,-0.005
1026,0.015,-0.005
1027,0.015,0.000
1028,0.015,0.000
1029,0.015,0.000
1030,0.015,0.000
1031,0.015,0.000
1032,0.015,0.000
1033,0.030,0.015
1034,0.050,0.030
1035,0.070,0.045
1036,0.075,0.060
1037,0.055,0.075
1038,0.035,0.095
1039,0.025,0.105
1040,0.015,0.100
1041,0.010,0.080
1042,0.000,0.055
1043,0.000,0.030
1044,0.005,0.005
1045,0.010,-0.015
1046,0.015,-0.030
1047,0.015,-0.035
1048,0.015,-0.035
1049,0.035,-0.050
1050,0.090,-0.065
1051,0.155,-0.020
1052,0.165,0.185
1053,0.050,0.570
1054,-0.170,0.950
1055,-0.390,0.990
1056,-0.500,0.570
1057,-0.500,0.035
1058,-0.375,-0.200
1059,-0.175,-0.180
1060,-0.020,-0.110
1061,0.035,-0.080
1062,0.055,-0.070
1063,0.060,-0.065
1064,0.060,-0.060
1065,0.060,-0.055
1066,0.065,-0.055
1067,0.065,-0.055
1068,0.065,-0.055
1069,0.065,-0.055
1070,0.065,-0.050
1071,0.070,-0.045
1072,0.075,-0.035
1073,0.075,-0.020
1074,0.075,-0.015
1075,0.080,0.000
1076,0.080,0.000
1077,0.080,0.010
1078,0.090,0.025
1079,0.095,0.040
1080,0.100,0.050
1081,0.105,0.060
1082,0.105,0.070
1083,0.105,0.085
1084,0.110,0.100
1085,0.115,0.115
1086,0.125,0.130
1087,0.130,0.140
1088,0.130,0.150
1089,0.130,0.160
1090,0.130,0.170
1091,0.130,0.180
1092,0.125,0.185
1093,0.125,0.190
1094,0.125,0.190
1095,0.125,0.200
1096,0.130,0.205
1097,0.125,0.205
1098,0.120,0.195
1099,0.110,0.190
1100,0.110,0.180
1101,0.105,0.165
1102,0.095,0.135
1103,0.080,0.110
1104,0.065,0.090
1105,0.055,0.070
1106,0.040,0.055
1107,0.030,0.045
1108,0.025,0.040
1109,0.020,0.035
1110,0.020,0.030
1111,0.015,0.025
1112,0.015,0.015
1113,0.015,0.010
1114,0.015,0.010
1115,0.015,0.005
1116,0.015,0.000
1117,0.015,0.000
1118,0.015,0.000
1119,0.010,-0.010
1120,0.010,-0.015
1121,0.010,-0.020
1122,0.010,-0.020
1123,0.010,-0.025
1124,0.005,-0.025
1125,0.000,-0.030
1126,0.000,-0.030
1127,0.000,-0.035
1128,0.000,-0.040
1129,0.000,-0.040
1130,0.000,-0.040
1131,0.000,-0.045
1132,0.000,-0.040
1133,0.005,-0.040
1134,0.010,-0.040
1135,0.010,-0.040
1136,0.010,-0.040
1137,0.010,-0.040
1138,0.010,-0.040
1139,0.010,-0.035
1140,0.010,-0.030
1141,0.015,-0.020
1142,0.015,-0.020
1143,0.015,-0.025
1144,0.015,-0.025
1145,0.015,-0.025
1146,0.015,-0.020
1147,0.015,-0.020
1148,0.015,-0.020
1149,0.015,-0.020
1150,0.015,-0.020
1151,0.015,-0.015
1152,0.015,-0.015
1153,0.015,-0.015
1154,0.015,-0.010
1155,0.015,-0.010
1156,0.015,0.000
1157,0.030,0.005
1158,0.050,0.020
1159,0.065,0.035
1160,0.060,0.050
1161,0.040,0.060
1162,0.015,0.075
1163,0.010,0.080
1164,0.005,0.080
1165,0.000,0.065
1166,0.000,0.040
1167,0.000,0.010
1168,0.000,-0.015
1169,0.005,-0.030
1170,0.000,-0.040
1171,0.000,-0.045
1172,0.010,-0.055
1173,0.045,-0.075
1174,0.105,-0.080
1175,0.155,0.005
1176,0.125,0.280
1177,-0.035,0.695
1178,-0.285,1.000
1179,-0.475,0.880
1180,-0.540,0.380
1181,-0.490,-0.070
1182,-0.325,-0.210
1183,-0.130,-0.170
1184,-0.010,-0.115
1185,0.030,-0.095
1186,0.050,-0.085
1187,0.055,-0.085
1188,0.055,-0.080
1189,0.055,-0.075
1190,0.055,-0.070
1191,0.055,-0.070
1192,0.055,-0.070
1193,0.055,-0.065
1194,0.055,-0.050
1195,0.055,-0.045
1196,0.055,-0.040
1197,0.055,-0.030
1198,0.060,-0.015
1199,0.070,0.000
1200,0.075,0.000
1201,0.075,0.010
1202,0.080,0.020
1203,0.080,0.035
1204,0.085,0.050
1205,0.095,0.065
1206,0.100,0.075
1207,0.105,0.090
1208,0.105,0.105
1209,0.105,0.110
1210,0.110,0.120
1211,0.115,0.130
1212,0.115,0.140
1213,0.110,0.150
1214,0.105,0.155
1215,0.105,0.160
1216,0.105,0.170
1217,0.100,0.175
1218,0.100,0.180
1219,0.095,0.190
1220,0.095,0.195
1221,0.095,0.195
1222,0.090,0.190
1223,0.085,0.180
1224,0.080,0.165
1225,0.070,0.145
1226,0.060,0.115
1227,0.055,0.095
1228,0.045,0.075
1229,0.030,0.055
1230,0.020,0.045
1231,0.015,0.035
1232,0.010,0.030
1233,0.005,0.020
1234,0.000,0.010
1235,0.000,0.005
1236,0.000,0.000
1237,-0.005,0.000
1238,-0.005,0.000
1239,-0.010,0.000
1240,-0.010,-0.005
1241,-0.015,-0.015
1242,-0.015,-0.020
1243,-0.015,-0.025
1244,-0.015,-0.025
1245,-0.020,-0.030
1246,-0.020,-0.030
1247,-0.020,-0.035
1248,-0.020,-0.040
1249,-0.020,-0.045
1250,-0.020,-0.050
1251,-0.020,-0.055
1252,-0.020,-0.055
1253,-0.020,-0.055
1254,-0.020,-0.060
1255,-0.025,-0.060
1256,-0.030,-0.060
1257,-0.025,-0.060
1258,-0.020,-0.060
1259,-0.020,-0.060
1260,-0.020,-0.060
1261,-0.020,-0.060
1262,-0.020,-0.060
1263,-0.020,-0.055
1264,-0.020,-0.055
1265,-0.020,-0.055
1266,-0.020,-0.060
1267,-0.020,-0.060
1268,-0.020,-0.060
1269,-0.020,-0.055
1270,-0.020,-0.055
1271,-0.020,-0.055
1272,-0.020,-0.050
1273,-0.020,-0.045
1274,-0.020,-0.040
1275,-0.020,-0.040
1276,-0.020,-0.040
1277,-0.015,-0.040
1278,-0.010,-0.035
1279,-0.005,-0.030
1280,0.000,-0.025
1281,0.005,-0.010
1282,0.020,0.000
1283,0.025,0.015
1284,0.020,0.030
1285,0.010,0.035
1286,0.000,0.045
1287,-0.005,0.050
1288,-0.020,0.040
1289,-0.030,0.020
1290,-0.035,0.000
1291,-0.035,-0.025
1292,-0.025,-0.055
1293,-0.020,-0.075
1294,-0.020,-0.085
1295,-0.020,-0.085
1296,-0.005,-0.095
1297,0.030,-0.120
1298,0.080,-0.105
1299,0.115,0.030
1300,0.045,0.370
1301,-0.155,0.795
1302,-0.385,0.985
1303,-0.525,0.710
1304,-0.555,0.175
1305,-0.465,-0.190
1306,-0.285,-0.260
1307,-0.115,-0.200
1308,-0.020,-0.160
1309,0.005,-0.140
1310,0.015,-0.125
1311,0.015,-0.125
1312,0.015,-0.125
1313,0.015,-0.120
1314,0.015,-0.120
1315,0.015,-0.120
1316,0.015,-0.115
1317,0.015,-0.110
1318,0.015,-0.100
1319,0.020,-0.090
1320,0.025,-0.080
1321,0.025,-0.070
1322,0.025,-0.055
1323,0.025,-0.050
1324,0.025,-0.035
1325,0.025,-0.020
1326,0.030,-0.010
1327,0.040,0.000
1328,0.045,0.010
1329,0.050,0.015
1330,0.055,0.030
1331,0.060,0.045
1332,0.065,0.055
1333,0.070,0.065
1334,0.075,0.075
1335,0.080,0.090
1336,0.080,0.100
1337,0.080,0.105
1338,0.080,0.110
1339,0.075,0.120
1340,0.075,0.130
1341,0.075,0.140
1342,0.075,0.145
1343,0.080,0.150
1344,0.080,0.155
1345,0.075,0.160
1346,0.070,0.155
1347,0.065,0.145
1348,0.055,0.125
1349,0.040,0.105
1350,0.030,0.080
1351,0.020,0.055
1352,0.015,0.040
1353,0.010,0.030
1354,0.010,0.015
1355,0.005,0.010
1356,0.000,0.005
1357,0.000,0.000
1358,0.000,0.000
1359,-0.005,-0.005
1360,-0.010,-0.010
1361,-0.015,-0.010
1362,-0.020,-0.015
1363,-0.020,-0.025
1364,-0.020,-0.025
1365,-0.020,-0.030
1366,-0.020,-0.030
1367,-0.020,-0.035
1368,-0.020,-0.045
1369,-0.020,-0.050
1370,-0.020,-0.050
1371,-0.020,-0.055
1372,-0.025,-0.060
1373,-0.025,-0.060
1374,-0.025,-0.060
1375,-0.025,-0.060
1376,-0.025,-0.065
1377,-0.020,-0.060
1378,-0.020,-0.060
1379,-0.020,-0.065
1380,-0.020,-0.065
1381,-0.020,-0.065
1382,-0.020,-0.065
1383,-0.020,-0.060
1384,-0.020,-0.060
1385,-0.020,-0.060
1386,-0.020,-0.060
1387,-0.015,-0.055
1388,-0.010,-0.055
1389,-0.010,-0.055
1390,-0.005,-0.050
1391,-0.005,-0.045
1392,0.000,-0.045
1393,0.000,-0.050
1394,0.000,-0.050
1395,0.000,-0.040
1396,0.000,-0.040
1397,0.000,-0.040
1398,0.000,-0.040
1399,0.000,-0.035
1400,0.000,-0.030
1401,0.000,-0.030
1402,0.000,-0.025
1403,0.005,-0.020
1404,0.010,-0.005
1405,0.020,0.000
1406,0.035,0.010
1407,0.055,0.030
1408,0.055,0.040
1409,0.035,0.045
1410,0.020,0.055
1411,0.015,0.070
1412,0.010,0.075
1413,0.000,0.055
1414,0.000,0.030
1415,-0.005,0.010
1416,0.000,-0.005
1417,0.000,-0.025
1418,0.000,-0.040
1419,0.000,-0.045
1420,0.005,-0.050
1421,0.035,-0.065
1422,0.095,-0.075
1423,0.150,-0.005
1424,0.135,0.250
1425,-0.010,0.665
1426,-0.245,1.000
1427,-0.425,0.925
1428,-0.505,0.450
1429,-0.470,-0.015
1430,-0.325,-0.185
1431,-0.135,-0.160
1432,-0.010,-0.105
1433,0.030,-0.070
1434,0.045,-0.060
1435,0.055,-0.060
1436,0.055,-0.055
1437,0.055,-0.050
1438,0.055,-0.050
1439,0.060,-0.045
1440,0.060,-0.040
1441,0.065,-0.035
1442,0.065,-0.030
1443,0.065,-0.025
1444,0.070,-0.020
1445,0.075,-0.010
1446,0.080,0.000
1447,0.080,0.000
1448,0.080,0.015
1449,0.090,0.025
1450,0.095,0.040
1451,0.095,0.045
1452,0.100,0.055
1453,0.105,0.070
1454,0.110,0.090
1455,0.115,0.105
1456,0.125,0.120
1457,0.130,0.130
1458,0.130,0.145
1459,0.130,0.160
1460,0.130,0.170
1461,0.130,0.175
1462,0.130,0.185
1463,0.130,0.190
1464,0.130,0.195
1465,0.130,0.205
1466,0.130,0.215
1467,0.130,0.220
1468,0.130,0.230
1469,0.130,0.235
1470,0.125,0.225
1471,0.120,0.215
1472,0.115,0.200
1473,0.105,0.175
1474,0.095,0.145
1475,0.085,0.120
1476,0.075,0.100
1477,0.065,0.080
1478,0.055,0.065
1479,0.045,0.055
1480,0.035,0.050
1481,0.025,0.045
1482,0.025,0.035
1483,0.025,0.030
1484,0.020,0.025
1485,0.015,0.020
1486,0.015,0.015
1487,0.015,0.010
1488,0.015,0.005
1489,0.015,0.000
1490,0.015,0.000
1491,0.015,0.000
1492,0.015,0.000
1493,0.015,0.000
1494,0.015,-0.005
1495,0.015,-0.010
1496,0.015,-0.010
1497,0.015,-0.015
1498,0.015,-0.020
1499,0.015,-0.020
1500,0.015,-0.025
1501,0.015,-0.025
1502,0.015,-0.025
1503,0.015,-0.025
1504,0.015,-0.025
1505,0.015,-0.020
1506,0.015,-0.015
1507,0.015,-0.015
1508,0.015,-0.015
1509,0.015,-0.020
1510,0.015,-0.020
1511,0.015,-0.015
1512,0.015,-0.010
1513,0.015,-0.010
1514,0.015,-0.010
1515,0.015,-0.010
1516,0.015,-0.015
1517,0.015,-0.010
1518,0.015,-0.010
1519,0.015,-0.005
1520,0.015,0.000
1521,0.015,0.000
1522,0.015,0.000
1523,0.015,0.000
1524,0.015,-0.005
1525,0.015,0.000
1526,0.015,0.000
1527,0.015,0.000
1528,0.020,0.005
1529,0.035,0.015
1530,0.055,0.035
1531,0.070,0.050
1532,0.065,0.060
1533,0.045,0.070
1534,0.025,0.085
1535,0.020,0.095
1536,0.015,0.090
1537,0.005,0.065
1538,0.000,0.045
1539,0.000,0.020
1540,0.005,0.000
1541,0.010,-0.025
1542,0.015,-0.035
1543,0.015,-0.040
1544,0.015,-0.045
1545,0.055,-0.065
1546,0.120,-0.075
1547,0.175,0.020
1548,0.135,0.310
1549,-0.035,0.740
1550,-0.275,1.020
1551,-0.455,0.850
1552,-0.520,0.335
1553,-0.460,-0.075
1554,-0.295,-0.200
1555,-0.110,-0.160
1556,0.000,-0.110
1557,0.045,-0.085
1558,0.055,-0.080
1559,0.055,-0.075
1560,0.060,-0.070
1561,0.060,-0.065
1562,0.060,-0.065
1563,0.065,-0.060
1564,0.065,-0.060
1565,0.065,-0.060
1566,0.065,-0.055
1567,0.070,-0.045
1568,0.075,-0.030
1569,0.080,-0.015
1570,0.080,-0.005
1571,0.080,0.000
1572,0.080,0.005
1573,0.085,0.020
1574,0.090,0.030
1575,0.100,0.040
1576,0.105,0.055
1577,0.105,0.065
1578,0.110,0.080
1579,0.110,0.090
1580,0.115,0.100
1581,0.115,0.110
1582,0.120,0.125
1583,0.125,0.135
1584,0.130,0.145
1585,0.130,0.150
1586,0.130,0.160
1587,0.130,0.165
1588,0.125,0.170
1589,0.120,0.175
1590,0.120,0.180
1591,0.120,0.185
1592,0.120,0.195
1593,0.120,0.200
1594,0.115,0.190
1595,0.110,0.180
1596,0.105,0.170
1597,0.100,0.150
1598,0.090,0.130
1599,0.075,0.100
1600,0.065,0.075
1601,0.050,0.055
1602,0.040,0.045
1603,0.030,0.040
1604,0.025,0.035
1605,0.020,0.030
1606,0.015,0.020
1607,0.015,0.015
1608,0.015,0.010
1609,0.010,0.005
1610,0.010,0.005
1611,0.010,0.000
1612,0.010,0.000
1613,0.005,-0.005
1614,0.005,-0.010
1615,0.005,-0.015
1616,0.005,-0.015
1617,0.005,-0.020
1618,0.000,-0.020
1619,0.000,-0.030
1620,0.000,-0.030
1621,0.005,-0.035
1622,0.005,-0.035
1623,0.010,-0.040
1624,0.010,-0.045
1625,0.010,-0.045
1626,0.005,-0.045
1627,0.005,-0.045
1628,0.010,-0.040
1629,0.010,-0.040
1630,0.005,-0.040
1631,0.005,-0.045
1632,0.005,-0.045
1633,0.005,-0.045
1634,0.005,-0.045
1635,0.005,-0.045
1636,0.005,-0.045
1637,0.005,-0.040
1638,0.010,-0.040
1639,0.010,-0.040
1640,0.010,-0.030
1641,0.010,-0.030
1642,0.010,-0.030
1643,0.010,-0.035
1644,0.010,-0.035
1645,0.010,-0.030
1646,0.015,-0.030
1647,0.015,-0.030
1648,0.015,-0.030
1649,0.015,-0.025
1650,0.015,-0.025
1651,0.015,-0.020
1652,0.020,-0.010
1653,0.035,0.005
1654,0.050,0.020
1655,0.065,0.040
1656,0.060,0.040
1657,0.040,0.055
1658,0.020,0.070
1659,0.010,0.070
1660,0.005,0.060
1661,0.000,0.040
1662,0.000,0.015
1663,0.000,0.000
1664,0.005,-0.030
1665,0.005,-0.045
1666,0.005,-0.050
1667,0.000,-0.055
1668,0.010,-0.060
1669,0.050,-0.085
1670,0.120,-0.085
1671,0.165,0.030
1672,0.105,0.350
1673,-0.095,0.790
1674,-0.345,1.035
1675,-0.495,0.780
1676,-0.540,0.240
1677,-0.465,-0.135
1678,-0.280,-0.210
1679,-0.095,-0.165
1680,0.000,-0.125
1681,0.035,-0.105
1682,0.050,-0.090
1683,0.055,-0.085
1684,0.055,-0.085
1685,0.055,-0.085
1686,0.055,-0.080
1687,0.055,-0.075
1688,0.055,-0.070
1689,0.055,-0.065
1690,0.055,-0.060
1691,0.055,-0.055
1692,0.055,-0.045
1693,0.055,-0.035
1694,0.060,-0.025
1695,0.065,-0.010
1696,0.065,0.000
1697,0.070,0.000
1698,0.075,0.015
1699,0.080,0.025
1700,0.080,0.040
1701,0.085,0.050
1702,0.095,0.070
1703,0.100,0.080
1704,0.100,0.095
1705,0.105,0.100
1706,0.105,0.110
1707,0.105,0.120
1708,0.105,0.130
1709,0.105,0.135
1710,0.100,0.140
1711,0.100,0.150
1712,0.100,0.155
1713,0.095,0.165
1714,0.090,0.175
1715,0.085,0.180
1716,0.080,0.185
1717,0.080,0.185
1718,0.080,0.180
1719,0.075,0.165
1720,0.070,0.150
1721,0.060,0.125
1722,0.050,0.105
1723,0.040,0.080
1724,0.025,0.060
1725,0.020,0.045
1726,0.015,0.035
1727,0.010,0.025
1728,0.005,0.015
1729,0.000,0.010
1730,0.000,0.005
1731,0.000,0.000
1732,-0.005,0.000
1733,-0.010,0.000
1734,-0.015,-0.005
1735,-0.020,-0.015
1736,-0.020,-0.020
1737,-0.020,-0.025
1738,-0.020,-0.030
1739,-0.020,-0.035
1740,-0.020,-0.040
1741,-0.020,-0.045
1742,-0.020,-0.050
1743,-0.020,-0.055
1744,-0.020,-0.055
1745,-0.020,-0.060
1746,-0.020,-0.060
1747,-0.020,-0.065
1748,-0.020,-0.070
1749,-0.020,-0.065
1750,-0.020,-0.065
1751,-0.020,-0.060
1752,-0.020,-0.060
1753,-0.025,-0.060
1754,-0.025,-0.060
1755,-0.025,-0.065
1756,-0.025,-0.070
1757,-0.025,-0.070
1758,-0.025,-0.070
1759,-0.025,-0.070
1760,-0.025,-0.065
1761,-0.025,-0.065
1762,-0.025,-0.070
1763,-0.025,-0.070
1764,-0.025,-0.065
1765,-0.025,-0.065
1766,-0.025,-0.060
1767,-0.020,-0.060
1768,-0.020,-0.055
1769,-0.020,-0.055
1770,-0.020,-0.055
1771,-0.020,-0.050
1772,-0.020,-0.045
1773,-0.020,-0.045
1774,-0.020,-0.050
1775,-0.015,-0.045
1776,-0.005,-0.030
1777,0.000,-0.015
1778,0.010,0.000
1779,0.020,0.005
1780,0.015,0.020
1781,0.005,0.035
1782,0.000,0.040
1783,-0.005,0.050
1784,-0.025,0.045
1785,-0.040,0.020
1786,-0.045,0.000
1787,-0.040,-0.020
1788,-0.035,-0.050
1789,-0.035,-0.080
1790,-0.030,-0.090
1791,-0.025,-0.095
1792,-0.020,-0.095
1793,0.005,-0.120
1794,0.070,-0.130
1795,0.120,-0.015
1796,0.070,0.295
1797,-0.125,0.750
1798,-0.375,1.030
1799,-0.530,0.795
1800,-0.575,0.225
1801,-0.490,-0.175
1802,-0.310,-0.265
1803,-0.135,-0.215
1804,-0.025,-0.165
1805,0.005,-0.140
1806,0.010,-0.135
1807,0.015,-0.130
1808,0.015,-0.125
1809,0.015,-0.125
1810,0.015,-0.125
1811,0.015,-0.120
1812,0.015,-0.115
1813,0.015,-0.115
1814,0.015,-0.110
1815,0.015,-0.100
1816,0.015,-0.090
1817,0.015,-0.080
1818,0.020,-0.070
1819,0.025,-0.055
1820,0.025,-0.040
1821,0.025,-0.030
1822,0.030,-0.015
1823,0.040,-0.005
1824,0.045,0.000
1825,0.050,0.015
1826,0.055,0.020
1827,0.060,0.040
1828,0.070,0.055
1829,0.075,0.060
1830,0.080,0.075
1831,0.080,0.090
1832,0.080,0.100
1833,0.080,0.110
1834,0.080,0.115
1835,0.080,0.120
1836,0.080,0.125
1837,0.080,0.135
1838,0.080,0.145
1839,0.080,0.160
1840,0.080,0.165
1841,0.075,0.170
1842,0.075,0.170
1843,0.065,0.155
1844,0.055,0.135
1845,0.045,0.110
1846,0.030,0.090
1847,0.025,0.070
1848,0.020,0.050
1849,0.015,0.035
1850,0.015,0.025
1851,0.010,0.015
1852,0.005,0.005
1853,0.000,0.005
1854,0.000,0.005
1855,0.000,0.005
1856,0.000,0.000
1857,0.000,0.000
1858,0.000,0.000
1859,0.000,0.000
1860,-0.005,0.000
1861,-0.005,0.000
1862,-0.005,0.000
1863,-0.005,-0.005
1864,-0.005,-0.010
1865,-0.005,-0.015
1866,-0.005,-0.015
1867,-0.005,-0.020
1868,-0.005,-0.020
1869,-0.005,-0.030
1870,-0.005,-0.030
1871,-0.005,-0.035
1872,-0.005,-0.035
1873,-0.005,-0.035
1874,-0.005,-0.040
1875,-0.005,-0.040
1876,-0.005,-0.040
1877,0.000,-0.040
1878,0.000,-0.040
1879,0.000,-0.040
1880,0.000,-0.040
1881,0.000,-0.040
1882,0.000,-0.040
1883,0.000,-0.035
1884,0.000,-0.035
1885,0.000,-0.035
1886,0.000,-0.035
1887,0.000,-0.035
1888,0.000,-0.030
1889,0.000,-0.030
1890,0.000,-0.025
1891,0.000,-0.025
1892,0.000,-0.020
1893,0.000,-0.020
1894,0.005,-0.020
1895,0.010,-0.020
1896,0.010,-0.015
1897,0.015,-0.010
1898,0.015,-0.010
1899,0.015,-0.010
1900,0.015,-0.005
1901,0.030,0.010
1902,0.050,0.030
1903,0.065,0.045
1904,0.060,0.060
1905,0.045,0.070
1906,0.025,0.075
1907,0.010,0.090
1908,0.005,0.090
1909,0.000,0.070
1910,0.000,0.045
1911,0.000,0.015
1912,0.005,0.000
1913,0.010,-0.025
1914,0.005,-0.030
1915,0.005,-0.035
1916,0.010,-0.035
1917,0.040,-0.055
1918,0.110,-0.070
1919,0.165,0.005
1920,0.150,0.285
1921,-0.020,0.740
1922,-0.275,1.075
1923,-0.450,0.905
1924,-0.510,0.340
1925,-0.455,-0.090
1926,-0.290,-0.195
1927,-0.105,-0.145
1928,0.000,-0.090
1929,0.040,-0.070
1930,0.050,-0.065
1931,0.055,-0.060
1932,0.055,-0.055
1933,0.055,-0.055
1934,0.060,-0.045
1935,0.065,-0.040
1936,0.065,-0.040
1937,0.065,-0.035
1938,0.065,-0.030
1939,0.070,-0.025
1940,0.075,-0.015
1941,0.080,-0.005
1942,0.080,0.000
1943,0.080,0.000
1944,0.080,0.010
1945,0.080,0.025
1946,0.090,0.035
1947,0.100,0.045
1948,0.105,0.055
1949,0.110,0.070
1950,0.115,0.090
1951,0.120,0.105
1952,0.125,0.115
1953,0.130,0.125
1954,0.130,0.135
1955,0.130,0.150
1956,0.130,0.165
1957,0.135,0.175
1958,0.130,0.180
1959,0.130,0.190
1960,0.130,0.195
1961,0.130,0.200
1962,0.130,0.205
1963,0.130,0.205
1964,0.130,0.210
1965,0.130,0.215
1966,0.130,0.215
1967,0.120,0.200
1968,0.115,0.180
1969,0.105,0.160
1970,0.090,0.135
1971,0.080,0.110
1972,0.070,0.095
1973,0.060,0.075
1974,0.050,0.060
1975,0.045,0.050
1976,0.035,0.040
1977,0.030,0.030
1978,0.025,0.025
1979,0.025,0.015
1980,0.025,0.010
1981,0.020,0.010
1982,0.015,0.005
1983,0.015,0.005
1984,0.015,0.000
1985,0.015,0.000
1986,0.015,0.000
1987,0.015,0.000
1988,0.015,-0.005
1989,0.015,-0.010
1990,0.015,-0.010
1991,0.015,-0.015
1992,0.015,-0.020
1993,0.015,-0.020
1994,0.015,-0.025
1995,0.015,-0.025
1996,0.015,-0.025
1997,0.015,-0.030
1998,0.015,-0.030
1999,0.015,-0.030
2000,0.015,-0.030
2001,0.015,-0.030
2002,0.015,-0.030
2003,0.015,-0.030
2004,0.015,-0.025
2005,0.015,-0.025
2006,0.015,-0.025
2007,0.015,-0.025
2008,0.015,-0.025
2009,0.015,-0.025
2010,0.015,-0.020
2011,0.015,-0.015
2012,0.015,-0.015
2013,0.015,-0.015
2014,0.015,-0.015
2015,0.015,-0.015
2016,0.015,-0.010
2017,0.015,-0.010
2018,0.015,-0.010
2019,0.015,-0.010
2020,0.015,-0.010
2021,0.015,-0.005
2022,0.015,0.000
2023,0.015,0.000
2024,0.025,0.005
2025,0.045,0.015
2026,0.065,0.030
2027,0.075,0.040
2028,0.065,0.055
2029,0.045,0.070
2030,0.030,0.080
2031,0.020,0.090
2032,0.010,0.080
2033,0.005,0.060
2034,0.000,0.035
2035,0.005,0.005
2036,0.010,-0.015
2037,0.015,-0.030
2038,0.015,-0.040
2039,0.015,-0.045
2040,0.025,-0.050
2041,0.070,-0.075
2042,0.140,-0.070
2043,0.180,0.060
2044,0.115,0.410
2045,-0.095,0.860
2046,-0.350,1.075
2047,-0.500,0.750
2048,-0.535,0.150
2049,-0.440,-0.185
2050,-0.235,-0.210
2051,-0.060,-0.145
2052,0.025,-0.105
2053,0.045,-0.095
2054,0.050,-0.085
2055,0.055,-0.075
2056,0.060,-0.070
2057,0.060,-0.070
2058,0.060,-0.070
2059,0.060,-0.065
2060,0.065,-0.065
2061,0.065,-0.060
2062,0.065,-0.055
2063,0.065,-0.045
2064,0.070,-0.030
2065,0.075,-0.020
2066,0.075,-0.010
2067,0.080,0.000
2068,0.080,0.005
2069,0.085,0.015
2070,0.090,0.030
2071,0.100,0.040
2072,0.105,0.050
2073,0.105,0.065
2074,0.105,0.080
2075,0.110,0.095
2076,0.120,0.105
2077,0.130,0.115
2078,0.130,0.130
2079,0.130,0.145
2080,0.130,0.155
2081,0.130,0.160
2082,0.130,0.165
2083,0.125,0.165
2084,0.125,0.175
2085,0.125,0.180
2086,0.125,0.190
2087,0.130,0.200
2088,0.130,0.205
2089,0.125,0.200
2090,0.115,0.190
2091,0.115,0.185
2092,0.110,0.165
2093,0.100,0.140
2094,0.085,0.115
2095,0.075,0.095
2096,0.060,0.075
2097,0.050,0.060
2098,0.040,0.045
2099,0.030,0.040
2100,0.025,0.030
2101,0.020,0.025
2102,0.015,0.025
2103,0.015,0.015
2104,0.015,0.010
2105,0.015,0.005
2106,0.015,0.000
2107,0.015,0.000
2108,0.010,0.000
2109,0.010,0.000
2110,0.010,-0.010
2111,0.010,-0.015
2112,0.010,-0.020
2113,0.005,-0.020
2114,0.005,-0.020
2115,0.005,-0.025
2116,0.000,-0.025
2117,0.000,-0.030
2118,0.000,-0.035
2119,0.000,-0.035
2120,0.000,-0.040
2121,0.000,-0.040
2122,0.000,-0.040
2123,0.000,-0.040
2124,0.000,-0.040
2125,0.000,-0.040
2126,0.000,-0.040
2127,0.005,-0.040
2128,0.005,-0.040
2129,0.010,-0.040
2130,0.010,-0.040
2131,0.005,-0.040
2132,0.005,-0.035
2133,0.005,-0.030
2134,0.005,-0.030
2135,0.005,-0.030
2136,0.010,-0.035
2137,0.010,-0.035
2138,0.010,-0.035
2139,0.015,-0.035
2140,0.015,-0.035
2141,0.015,-0.030
2142,0.015,-0.030
2143,0.015,-0.030
2144,0.015,-0.030
2145,0.015,-0.030
2146,0.015,-0.025
2147,0.015,-0.010
2148,0.030,0.000
2149,0.055,0.015
2150,0.065,0.030
2151,0.055,0.040
2152,0.035,0.045
2153,0.015,0.055
2154,0.010,0.070
2155,0.005,0.065
2156,0.000,0.040
2157,0.000,0.020
2158,0.000,0.000
2159,0.000,-0.030
2160,0.005,-0.055
2161,0.000,-0.065
2162,0.000,-0.070
2163,0.015,-0.075
2164,0.050,-0.095
2165,0.110,-0.090
2166,0.155,0.015
2167,0.115,0.310
2168,-0.065,0.740
2169,-0.320,1.025
2170,-0.490,0.840
2171,-0.545,0.280
2172,-0.485,-0.140
2173,-0.305,-0.235
2174,-0.105,-0.170
2175,0.000,-0.115
2176,0.030,-0.105
2177,0.035,-0.100
2178,0.040,-0.095
2179,0.040,-0.095
2180,0.040,-0.085
2181,0.040,-0.085
2182,0.040,-0.080
2183,0.040,-0.080
2184,0.040,-0.075
2185,0.040,-0.070
2186,0.040,-0.065
2187,0.045,-0.055
2188,0.045,-0.040
2189,0.050,-0.035
2190,0.050,-0.020
2191,0.055,-0.010
2192,0.055,0.000
2193,0.060,0.005
2194,0.065,0.020
2195,0.065,0.030
2196,0.070,0.045
2197,0.075,0.060
2198,0.080,0.070
2199,0.080,0.085
2200,0.085,0.100
2201,0.090,0.115
2202,0.095,0.125
2203,0.095,0.135
2204,0.095,0.140
2205,0.090,0.145
2206,0.090,0.150
2207,0.085,0.155
2208,0.080,0.160
2209,0.080,0.170
2210,0.080,0.180
2211,0.080,0.185
2212,0.080,0.185
2213,0.075,0.180
2214,0.070,0.165
2215,0.060,0.150
2216,0.050,0.130
2217,0.040,0.100
2218,0.030,0.075
2219,0.025,0.060
2220,0.020,0.050
2221,0.015,0.040
2222,0.010,0.030
2223,0.005,0.020
2224,0.000,0.015
2225,0.000,0.005
2226,0.000,0.005
2227,-0.005,0.000
2228,-0.010,0.000
2229,-0.015,-0.005
2230,-0.010,-0.010
2231,-0.010,-0.015
2232,-0.015,-0.020
2233,-0.015,-0.020
2234,-0.015,-0.025
2235,-0.020,-0.030
2236,-0.020,-0.035
2237,-0.020,-0.045
2238,-0.020,-0.050
2239,-0.020,-0.055
2240,-0.020,-0.055
2241,-0.020,-0.060
2242,-0.020,-0.060
2243,-0.025,-0.055
2244,-0.025,-0.055
2245,-0.025,-0.060
2246,-0.025,-0.060
2247,-0.025,-0.060
2248,-0.025,-0.060
2249,-0.025,-0.060
2250,-0.025,-0.060
2251,-0.020,-0.060
2252,-0.020,-0.060
2253,-0.020,-0.060
2254,-0.025,-0.060
2255,-0.025,-0.060
2256,-0.025,-0.060
2257,-0.020,-0.060
2258,-0.020,-0.060
2259,-0.020,-0.060
2260,-0.025,-0.060
2261,-0.020,-0.060
2262,-0.020,-0.060
2263,-0.020,-0.055
2264,-0.020,-0.055
2265,-0.020,-0.055
2266,-0.020,-0.055
2267,-0.020,-0.055
2268,-0.020,-0.055
2269,-0.020,-0.050
2270,-0.015,-0.035
2271,0.000,-0.015
2272,0.005,0.000
2273,0.020,0.005
2274,0.020,0.020
2275,0.010,0.030
2276,0.000,0.040
2277,-0.005,0.050
2278,-0.015,0.050
2279,-0.030,0.035
2280,-0.040,0.010
2281,-0.040,-0.005
2282,-0.030,-0.035
2283,-0.025,-0.055
2284,-0.025,-0.065
2285,-0.030,-0.075
2286,-0.025,-0.080
2287,0.000,-0.100
2288,0.045,-0.115
2289,0.100,-0.065
2290,0.100,0.145
2291,-0.020,0.540
2292,-0.255,0.930
2293,-0.465,0.965
2294,-0.555,0.525
2295,-0.540,-0.015
2296,-0.410,-0.250
2297,-0.210,-0.225
2298,-0.065,-0.170
2299,0.000,-0.140
2300,0.010,-0.135
2301,0.015,-0.120
2302,0.015,-0.115
2303,0.015,-0.115
2304,0.015,-0.115
2305,0.015,-0.115
2306,0.015,-0.110
2307,0.015,-0.105
2308,0.015,-0.100
2309,0.015,-0.090
2310,0.015,-0.080
2311,0.015,-0.070
2312,0.015,-0.055
2313,0.020,-0.040
2314,0.025,-0.030
2315,0.025,-0.015
2316,0.030,0.000
2317,0.035,0.005
2318,0.045,0.015
2319,0.050,0.025
2320,0.055,0.040
2321,0.060,0.050
2322,0.065,0.060
2323,0.070,0.075
2324,0.075,0.095
2325,0.080,0.110
2326,0.080,0.115
2327,0.080,0.125
2328,0.080,0.130
2329,0.080,0.140
2330,0.080,0.150
2331,0.080,0.160
2332,0.080,0.170
2333,0.080,0.180
2334,0.085,0.190
2335,0.085,0.190
2336,0.080,0.185
2337,0.075,0.180
2338,0.070,0.175
2339,0.065,0.160
2340,0.050,0.140
2341,0.040,0.115
2342,0.030,0.090
2343,0.025,0.060
2344,0.015,0.050
2345,0.015,0.045
2346,0.015,0.040
2347,0.015,0.040
2348,0.015,0.030
2349,0.015,0.025
2350,0.015,0.020
2351,0.015,0.015
2352,0.010,0.005
2353,0.010,0.005
2354,0.005,0.005
2355,0.000,0.000
2356,0.000,0.000
2357,0.000,0.000
2358,0.000,0.000
2359,0.000,-0.010
2360,0.000,-0.015
2361,0.000,-0.020
2362,0.000,-0.025
2363,0.000,-0.030
2364,0.000,-0.030
2365,0.000,-0.030
2366,0.000,-0.030
2367,0.000,-0.030
2368,0.000,-0.035
2369,0.000,-0.030
2370,0.000,-0.030
2371,0.000,-0.030
2372,0.000,-0.030
2373,0.000,-0.025
2374,0.000,-0.025
2375,0.000,-0.025
2376,0.000,-0.020
2377,0.000,-0.015
2378,0.000,-0.010
2379,0.005,-0.010
2380,0.005,-0.010
2381,0.005,-0.010
2382,0.005,-0.010
2383,0.005,-0.010
2384,0.005,-0.005
2385,0.005,0.000
2386,0.010,0.000
2387,0.015,0.000
2388,0.015,0.000
2389,0.015,0.000
2390,0.015,0.000
2391,0.015,0.000
2392,0.015,0.000
2393,0.015,0.000
2394,0.015,0.000
2395,0.030,0.015
2396,0.050,0.035
2397,0.065,0.050
2398,0.065,0.055
2399,0.045,0.075
2400,0.030,0.090
2401,0.020,0.095
2402,0.010,0.095
2403,0.005,0.080
2404,0.000,0.055
2405,0.000,0.030
2406,0.005,0.000
2407,0.010,-0.015
2408,0.015,-0.025
2409,0.015,-0.025
2410,0.020,-0.035
2411,0.045,-0.055
2412,0.110,-0.055
2413,0.160,0.030
2414,0.135,0.295
2415,-0.010,0.705
2416,-0.240,1.010
2417,-0.420,0.895
2418,-0.495,0.395
2419,-0.455,-0.055
2420,-0.300,-0.200
2421,-0.115,-0.155
2422,0.000,-0.095
2423,0.040,-0.070
2424,0.055,-0.060
2425,0.055,-0.055
2426,0.060,-0.050
2427,0.060,-0.045
2428,0.060,-0.045
2429,0.065,-0.045
2430,0.065,-0.045
2431,0.065,-0.040
2432,0.070,-0.040
2433,0.070,-0.035
2434,0.075,-0.020
2435,0.075,-0.015
2436,0.075,0.000
2437,0.080,0.000
2438,0.080,0.000
2439,0.085,0.015
2440,0.090,0.025
2441,0.095,0.040
2442,0.100,0.050
2443,0.105,0.065
2444,0.110,0.075
2445,0.115,0.090
2446,0.120,0.105
2447,0.125,0.115
2448,0.130,0.130
2449,0.130,0.145
2450,0.130,0.155
2451,0.130,0.160
2452,0.130,0.170
2453,0.130,0.175
2454,0.130,0.180
2455,0.130,0.190
2456,0.130,0.200
2457,0.130,0.205
2458,0.130,0.210
2459,0.130,0.215
2460,0.125,0.215
2461,0.120,0.205
2462,0.110,0.185
2463,0.105,0.165
2464,0.095,0.145
2465,0.085,0.120
2466,0.075,0.095
2467,0.060,0.075
2468,0.055,0.065
2469,0.045,0.050
2470,0.035,0.045
2471,0.025,0.035
2472,0.025,0.030
2473,0.025,0.020
2474,0.020,0.015
2475,0.020,0.015
2476,0.015,0.010
2477,0.015,0.005
2478,0.015,0.000
2479,0.015,0.000
2480,0.015,0.000
2481,0.015,-0.005
2482,0.015,-0.010
2483,0.015,-0.015
2484,0.015,-0.020
2485,0.015,-0.020
2486,0.015,-0.020
2487,0.015,-0.025
2488,0.015,-0.030
2489,0.015,-0.030
2490,0.015,-0.035
2491,0.015,-0.035
2492,0.015,-0.035
2493,0.015,-0.035
2494,0.015,-0.035
2495,0.010,-0.035
2496,0.010,-0.035
2497,0.015,-0.035
2498,0.015,-0.035
2499,0.015,-0.030
2500,0.015,-0.025
2501,0.015,-0.025
2502,0.015,-0.025
2503,0.015,-0.025
2504,0.015,-0.025
2505,0.015,-0.030
2506,0.015,-0.030
2507,0.015,-0.025
2508,0.015,-0.025
2509,0.015,-0.020
2510,0.015,-0.020
2511,0.015,-0.020
2512,0.015,-0.020
2513,0.015,-0.020
2514,0.015,-0.020
2515,0.015,-0.015
2516,0.015,-0.010
2517,0.020,-0.005
2518,0.020,0.000
2519,0.040,0.010
2520,0.060,0.030
2521,0.070,0.040
2522,0.065,0.050
2523,0.040,0.065
2524,0.025,0.075
2525,0.015,0.080
2526,0.010,0.075
2527,0.000,0.055
2528,0.000,0.030
2529,0.005,0.005
2530,0.010,-0.020
2531,0.010,-0.035
2532,0.015,-0.040
2533,0.015,-0.045
2534,0.025,-0.055
2535,0.070,-0.075
2536,0.135,-0.055
2537,0.170,0.085
2538,0.095,0.415
2539,-0.105,0.830
2540,-0.335,1.010
2541,-0.485,0.730
2542,-0.520,0.200
2543,-0.430,-0.145
2544,-0.250,-0.205
2545,-0.075,-0.145
2546,0.010,-0.100
2547,0.040,-0.085
2548,0.050,-0.080
2549,0.055,-0.070
2550,0.060,-0.065
2551,0.060,-0.065
2552,0.055,-0.065
2553,0.055,-0.060
2554,0.060,-0.055
2555,0.065,-0.055
2556,0.065,-0.050
2557,0.065,-0.045
2558,0.070,-0.035
2559,0.075,-0.025
2560,0.075,-0.020
2561,0.075,-0.005
2562,0.080,0.000
2563,0.080,0.010
2564,0.080,0.025
2565,0.090,0.040
2566,0.100,0.045
2567,0.105,0.060
2568,0.105,0.080
2569,0.110,0.100
2570,0.115,0.110
2571,0.125,0.125
2572,0.130,0.135
2573,0.130,0.145
2574,0.130,0.160
2575,0.130,0.165
2576,0.125,0.170
2577,0.125,0.180
2578,0.120,0.185
2579,0.120,0.195
2580,0.120,0.200
2581,0.120,0.205
2582,0.120,0.210
2583,0.115,0.205
2584,0.110,0.195
2585,0.105,0.180
2586,0.100,0.165
2587,0.090,0.150
2588,0.080,0.130
2589,0.070,0.105
2590,0.060,0.080
2591,0.050,0.065
2592,0.040,0.050
2593,0.025,0.035
2594,0.020,0.030
2595,0.015,0.020
2596,0.015,0.010
2597,0.015,0.005
2598,0.015,0.000
2599,0.015,0.000
2600,0.010,0.000
2601,0.010,-0.005
2602,0.010,-0.010
2603,0.010,-0.010
2604,0.010,-0.010
2605,0.005,-0.015
2606,0.005,-0.020
2607,0.005,-0.025
2608,0.005,-0.025
2609,0.005,-0.035
2610,0.000,-0.040
2611,0.000,-0.045
2612,0.000,-0.040
2613,0.000,-0.040
2614,0.000,-0.040
2615,0.000,-0.040
2616,0.000,-0.040
2617,0.000,-0.040
2618,0.000,-0.040
2619,0.000,-0.040
2620,0.000,-0.040
2621,0.000,-0.040
2622,0.000,-0.040
2623,0.000,-0.040
2624,0.000,-0.040
2625,0.000,-0.040
2626,0.000,-0.040
2627,0.000,-0.040
2628,0.000,-0.040
2629,0.000,-0.040
2630,0.000,-0.040
2631,0.005,-0.035
2632,0.010,-0.035
2633,0.010,-0.035
2634,0.015,-0.035
2635,0.015,-0.030
2636,0.010,-0.030
2637,0.010,-0.035
2638,0.010,-0.035
2639,0.010,-0.030
2640,0.015,-0.025
2641,0.015,-0.015
2642,0.020,-0.005
2643,0.040,0.005
2644,0.060,0.020
2645,0.060,0.035
2646,0.045,0.040
2647,0.025,0.045
2648,0.010,0.060
2649,0.005,0.070
2650,0.000,0.055
2651,-0.010,0.030
2652,-0.015,0.010
2653,0.000,-0.010
2654,0.000,-0.040
2655,0.000,-0.060
2656,0.000,-0.065
2657,0.000,-0.070
2658,0.015,-0.085
2659,0.065,-0.105
2660,0.120,-0.075
2661,0.135,0.095
2662,0.035,0.465
2663,-0.185,0.875
2664,-0.400,0.980
2665,-0.520,0.620
2666,-0.530,0.100
2667,-0.425,-0.185
2668,-0.235,-0.215
2669,-0.070,-0.160
2670,0.005,-0.120
2671,0.020,-0.110
2672,0.025,-0.105
2673,0.025,-0.100
2674,0.025,-0.095
2675,0.025,-0.095
2676,0.025,-0.095
2677,0.025,-0.095
2678,0.025,-0.090
2679,0.025,-0.085
2680,0.025,-0.080
2681,0.025,-0.070
2682,0.030,-0.060
2683,0.035,-0.045
2684,0.040,-0.035
2685,0.045,-0.030
2686,0.045,-0.015
2687,0.050,-0.005
2688,0.055,0.005
2689,0.055,0.010
2690,0.060,0.030
2691,0.065,0.045
2692,0.070,0.055
2693,0.075,0.070
2694,0.075,0.085
2695,0.080,0.095
2696,0.080,0.110
2697,0.080,0.120
2698,0.085,0.130
2699,0.085,0.135
2700,0.080,0.140
2701,0.080,0.145
2702,0.080,0.150
2703,0.080,0.160
2704,0.080,0.165
2705,0.080,0.170
2706,0.080,0.175
2707,0.080,0.180
2708,0.075,0.170
2709,0.075,0.150
2710,0.070,0.135
2711,0.055,0.110
2712,0.040,0.085
2713,0.030,0.060
2714,0.020,0.045
2715,0.015,0.035
2716,0.010,0.025
2717,0.005,0.015
2718,0.000,0.005
2719,0.000,0.000
2720,0.000,0.000
2721,0.000,-0.010
2722,-0.010,-0.015
2723,-0.015,-0.020
2724,-0.020,-0.030
2725,-0.020,-0.035
2726,-0.020,-0.040
2727,-0.020,-0.040
2728,-0.020,-0.050
2729,-0.020,-0.055
2730,-0.020,-0.060
2731,-0.020,-0.060
2732,-0.020,-0.065
2733,-0.020,-0.070
2734,-0.020,-0.075
2735,-0.020,-0.080
2736,-0.020,-0.080
2737,-0.020,-0.085
2738,-0.020,-0.085
2739,-0.025,-0.085
2740,-0.030,-0.085
2741,-0.030,-0.080
2742,-0.035,-0.080
2743,-0.035,-0.080
2744,-0.035,-0.080
2745,-0.035,-0.080
2746,-0.030,-0.085
2747,-0.030,-0.085
2748,-0.030,-0.085
2749,-0.030,-0.085
2750,-0.025,-0.085
2751,-0.025,-0.085
2752,-0.025,-0.085
2753,-0.020,-0.085
2754,-0.020,-0.080
2755,-0.020,-0.080
2756,-0.020,-0.080
2757,-0.020,-0.080
2758,-0.020,-0.080
2759,-0.020,-0.075
2760,-0.020,-0.070
2761,-0.020,-0.065
2762,-0.020,-0.060
2763,-0.020,-0.060
2764,-0.015,-0.055
2765,-0.010,-0.050
2766,0.000,-0.040
2767,0.010,-0.020
2768,0.020,0.000
2769,0.020,0.005
2770,0.015,0.015
2771,0.000,0.020
2772,-0.005,0.035
2773,-0.020,0.035
2774,-0.030,0.025
2775,-0.040,0.000
2776,-0.045,-0.020
2777,-0.035,-0.055
2778,-0.030,-0.085
2779,-0.030,-0.095
2780,-0.030,-0.100
2781,-0.025,-0.105
2782,-0.005,-0.120
2783,0.045,-0.140
2784,0.105,-0.090
2785,0.105,0.120
2786,-0.025,0.520
2787,-0.265,0.910
2788,-0.465,0.935
2789,-0.555,0.495
2790,-0.535,-0.015
2791,-0.400,-0.250
2792,-0.210,-0.245
2793,-0.065,-0.190
2794,0.000,-0.155
2795,0.010,-0.140
2796,0.015,-0.135
2797,0.015,-0.130
2798,0.015,-0.125
2799,0.015,-0.125
2800,0.015,-0.120
2801,0.015,-0.120
2802,0.015,-0.115
2803,0.015,-0.110
2804,0.020,-0.100
2805,0.025,-0.085
2806,0.025,-0.070
2807,0.025,-0.060
2808,0.025,-0.045
2809,0.025,-0.035
2810,0.035,-0.025
2811,0.040,-0.005
2812,0.050,0.000
2813,0.055,0.020
2814,0.065,0.040
2815,0.075,0.055
2816,0.075,0.060
2817,0.075,0.070
2818,0.085,0.090
2819,0.095,0.105
2820,0.100,0.115
2821,0.105,0.125
2822,0.105,0.135
2823,0.105,0.145
2824,0.105,0.150
2825,0.105,0.155
2826,0.105,0.165
2827,0.105,0.175
2828,0.105,0.180
2829,0.105,0.190
2830,0.105,0.195
2831,0.105,0.195
2832,0.100,0.185
2833,0.090,0.175
2834,0.080,0.155
2835,0.070,0.135
2836,0.060,0.110
2837,0.045,0.085
2838,0.040,0.075
2839,0.030,0.060
2840,0.025,0.045
2841,0.020,0.035
2842,0.015,0.030
2843,0.015,0.025
2844,0.015,0.025
2845,0.015,0.020
2846,0.015,0.015
2847,0.015,0.010
2848,0.015,0.005
2849,0.010,0.000
2850,0.005,0.000
2851,0.005,0.000
2852,0.005,0.000
2853,0.005,-0.005
2854,0.000,-0.010
2855,0.000,-0.010
2856,0.000,-0.010
2857,0.000,-0.015
2858,0.000,-0.015
2859,0.000,-0.015
2860,0.000,-0.020
2861,0.000,-0.020
2862,0.000,-0.020
2863,0.000,-0.020
2864,0.000,-0.020
2865,0.000,-0.020
2866,0.000,-0.020
2867,0.000,-0.020
2868,0.000,-0.020
2869,0.000,-0.020
2870,0.000,-0.020
2871,0.005,-0.020
2872,0.005,-0.020
2873,0.005,-0.020
2874,0.005,-0.015
2875,0.010,-0.010
2876,0.015,-0.010
2877,0.015,-0.010
2878,0.015,-0.010
2879,0.015,-0.010
2880,0.015,-0.010
2881,0.015,-0.010
2882,0.015,-0.005
2883,0.015,-0.005
2884,0.015,0.000
2885,0.015,0.000
2886,0.015,0.000
2887,0.015,0.000
2888,0.015,0.000
2889,0.020,0.000
2890,0.035,0.010
2891,0.055,0.030
2892,0.070,0.050
2893,0.070,0.055
2894,0.055,0.070
2895,0.030,0.080
2896,0.015,0.100
2897,0.010,0.095
2898,0.005,0.080
2899,0.005,0.050
2900,0.005,0.025
2901,0.010,0.000
2902,0.010,-0.015
2903,0.015,-0.025
2904,0.015,-0.030
2905,0.015,-0.035
2906,0.040,-0.055
2907,0.105,-0.070
2908,0.165,-0.010
2909,0.160,0.235
2910,0.015,0.660
2911,-0.220,1.010
2912,-0.410,0.930
2913,-0.495,0.440
2914,-0.465,-0.025
2915,-0.320,-0.195
2916,-0.140,-0.165
2917,-0.010,-0.105
2918,0.040,-0.075
2919,0.050,-0.065
2920,0.055,-0.060
2921,0.060,-0.055
2922,0.065,-0.045
2923,0.065,-0.045
2924,0.065,-0.040
2925,0.065,-0.040
2926,0.065,-0.035
2927,0.065,-0.030
2928,0.070,-0.025
2929,0.075,-0.015
2930,0.075,-0.005
2931,0.075,0.000
2932,0.080,0.010
2933,0.085,0.015
2934,0.090,0.025
2935,0.095,0.040
2936,0.100,0.050
2937,0.105,0.060
2938,0.110,0.075
2939,0.115,0.090
2940,0.115,0.110
2941,0.120,0.120
2942,0.130,0.135
2943,0.130,0.145
2944,0.135,0.155
2945,0.130,0.165
2946,0.130,0.175
2947,0.130,0.180
2948,0.130,0.180
2949,0.130,0.180
2950,0.130,0.190
2951,0.130,0.205
2952,0.130,0.215
2953,0.130,0.220
2954,0.130,0.220
2955,0.125,0.220
2956,0.120,0.210
2957,0.110,0.195
2958,0.105,0.170
2959,0.095,0.150
2960,0.085,0.130
2961,0.070,0.110
2962,0.060,0.090
2963,0.055,0.075
2964,0.045,0.065
2965,0.040,0.050
2966,0.035,0.045
2967,0.025,0.035
2968,0.025,0.030
2969,0.020,0.025
2970,0.015,0.020
2971,0.015,0.015
2972,0.015,0.010
2973,0.015,0.000
2974,0.015,0.000
2975,0.015,0.000
2976,0.015,0.000
2977,0.015,-0.005
2978,0.015,-0.010
2979,0.015,-0.010
2980,0.015,-0.015
2981,0.015,-0.015
2982,0.015,-0.020
2983,0.015,-0.020
2984,0.015,-0.025
2985,0.015,-0.025
2986,0.015,-0.025
2987,0.015,-0.025
2988,0.010,-0.025
2989,0.010,-0.025
2990,0.010,-0.025
2991,0.010,-0.030
2992,0.015,-0.035
2993,0.015,-0.030
2994,0.015,-0.030
2995,0.015,-0.025
2996,0.010,-0.025
2997,0.010,-0.025
2998,0.015,-0.030
2999,0.015,-0.030
3000,0.015,-0.030
3001,0.015,-0.025
3002,0.015,-0.020
3003,0.015,-0.020
3004,0.015,-0.020
3005,0.015,-0.020
3006,0.015,-0.020
3007,0.015,-0.020
3008,0.015,-0.020
3009,0.015,-0.020
3010,0.015,-0.015
3011,0.015,-0.010
3012,0.015,-0.005
3013,0.020,0.000
3014,0.035,0.010
3015,0.060,0.030
3016,0.070,0.040
3017,0.060,0.050
3018,0.040,0.060
3019,0.025,0.075
3020,0.015,0.080
3021,0.005,0.075
3022,0.000,0.055
3023,0.000,0.030
3024,0.005,0.005
3025,0.010,-0.020
3026,0.010,-0.040
3027,0.010,-0.055
3028,0.010,-0.055
3029,0.020,-0.060
3030,0.055,-0.075
3031,0.130,-0.080
3032,0.180,0.025
3033,0.125,0.350
3034,-0.080,0.805
3035,-0.330,1.045
3036,-0.480,0.775
3037,-0.525,0.215
3038,-0.455,-0.145
3039,-0.265,-0.210
3040,-0.085,-0.150
3041,0.005,-0.105
3042,0.040,-0.090
3043,0.050,-0.085
3044,0.055,-0.080
3045,0.055,-0.075
3046,0.055,-0.070
3047,0.055,-0.070
3048,0.055,-0.070
3049,0.055,-0.065
3050,0.055,-0.060
3051,0.060,-0.060
3052,0.065,-0.055
3053,0.065,-0.040
3054,0.065,-0.030
3055,0.070,-0.020
3056,0.075,-0.005
3057,0.080,0.000
3058,0.080,0.005
3059,0.080,0.020
3060,0.085,0.035
3061,0.095,0.045
3062,0.105,0.060
3063,0.105,0.075
3064,0.105,0.090
3065,0.110,0.110
3066,0.115,0.120
3067,0.120,0.130
3068,0.120,0.140
3069,0.120,0.150
3070,0.125,0.160
3071,0.120,0.165
3072,0.120,0.175
3073,0.120,0.175
3074,0.120,0.180
3075,0.120,0.185
3076,0.115,0.195
3077,0.115,0.200
3078,0.110,0.200
3079,0.105,0.195
3080,0.105,0.185
3081,0.095,0.165
3082,0.085,0.145
3083,0.075,0.125
3084,0.065,0.100
3085,0.050,0.080
3086,0.040,0.060
3087,0.030,0.050
3088,0.025,0.040
3089,0.020,0.035
3090,0.015,0.025
3091,0.015,0.015
3092,0.015,0.010
3093,0.010,0.005
3094,0.010,0.005
3095,0.005,0.005
3096,0.000,0.000
3097,0.000,-0.005
3098,0.000,-0.010
3099,0.000,-0.010
3100,0.000,-0.020
3101,0.000,-0.025
3102,0.000,-0.025
3103,0.000,-0.030
3104,0.000,-0.035
3105,0.000,-0.040
3106,0.000,-0.050
3107,0.000,-0.055
3108,0.000,-0.050
3109,0.000,-0.045
3110,0.000,-0.050
3111,0.000,-0.055
3112,0.000,-0.055
3113,0.000,-0.055
3114,0.000,-0.050
3115,0.000,-0.045
3116,0.000,-0.045
3117,0.000,-0.045
3118,0.000,-0.045
3119,0.000,-0.050
3120,0.000,-0.055
3121,0.000,-0.050
3122,0.000,-0.045
3123,0.000,-0.040
3124,0.000,-0.040
3125,0.000,-0.045
3126,0.000,-0.040
3127,0.000,-0.040
3128,0.000,-0.040
3129,0.000,-0.045
3130,0.000,-0.040
3131,0.000,-0.040
3132,0.000,-0.035
3133,0.000,-0.035
3134,0.000,-0.030
3135,0.005,-0.025
3136,0.010,-0.020
3137,0.020,-0.005
3138,0.035,0.005
3139,0.050,0.015
3140,0.045,0.030
3141,0.030,0.040
3142,0.015,0.050
3143,0.005,0.060
3144,0.000,0.055
3145,-0.010,0.035
3146,-0.020,0.010
3147,-0.015,-0.010
3148,-0.005,-0.035
3149,-0.005,-0.055
3150,-0.005,-0.075
3151,-0.005,-0.085
3152,0.000,-0.090
3153,0.025,-0.110
3154,0.085,-0.120
3155,0.140,-0.035
3156,0.115,0.235
3157,-0.055,0.695
3158,-0.320,1.035
3159,-0.495,0.865
3160,-0.560,0.295
3161,-0.510,-0.145
3162,-0.335,-0.255
3163,-0.140,-0.200
3164,-0.025,-0.155
3165,0.010,-0.135
3166,0.020,-0.125
3167,0.025,-0.125
3168,0.025,-0.120
3169,0.025,-0.115
3170,0.025,-0.115
3171,0.025,-0.110
3172,0.025,-0.105
3173,0.025,-0.100
3174,0.025,-0.095
3175,0.025,-0.090
3176,0.025,-0.080
3177,0.025,-0.070
3178,0.025,-0.060
3179,0.025,-0.045
3180,0.030,-0.030
3181,0.040,-0.020
3182,0.045,-0.005
3183,0.050,0.000
3184,0.055,0.010
3185,0.055,0.025
3186,0.060,0.035
3187,0.065,0.045
3188,0.070,0.060
3189,0.075,0.075
3190,0.080,0.090
3191,0.080,0.100
3192,0.080,0.110
3193,0.080,0.115
3194,0.080,0.125
3195,0.080,0.125
3196,0.080,0.135
3197,0.080,0.140
3198,0.080,0.150
3199,0.080,0.160
3200,0.080,0.165
3201,0.080,0.165
3202,0.075,0.160
3203,0.070,0.150
3204,0.060,0.130
3205,0.050,0.105
3206,0.045,0.085
3207,0.030,0.065
3208,0.020,0.040
3209,0.015,0.025
3210,0.015,0.015
3211,0.010,0.005
3212,0.005,0.000
3213,0.000,0.000
3214,0.000,0.000
3215,0.000,-0.010
3216,-0.005,-0.015
3217,-0.010,-0.025
3218,-0.015,-0.030
3219,-0.020,-0.035
3220,-0.020,-0.040
3221,-0.020,-0.045
3222,-0.020,-0.050
3223,-0.020,-0.055
3224,-0.020,-0.060
3225,-0.020,-0.065
3226,-0.020,-0.065
3227,-0.020,-0.075
3228,-0.020,-0.080
3229,-0.025,-0.080
3230,-0.020,-0.085
3231,-0.020,-0.085
3232,-0.025,-0.090
3233,-0.025,-0.095
3234,-0.030,-0.095
3235,-0.030,-0.095
3236,-0.030,-0.095
3237,-0.030,-0.095
3238,-0.025,-0.095
3239,-0.025,-0.095
3240,-0.025,-0.095
3241,-0.025,-0.090
3242,-0.025,-0.085
3243,-0.025,-0.085
3244,-0.025,-0.080
3245,-0.025,-0.080
3246,-0.025,-0.085
3247,-0.020,-0.085
3248,-0.020,-0.085
3249,-0.020,-0.085
3250,-0.020,-0.085
3251,-0.020,-0.080
3252,-0.020,-0.080
3253,-0.020,-0.080
3254,-0.020,-0.075
3255,-0.020,-0.070
3256,-0.020,-0.070
3257,-0.020,-0.070
3258,-0.015,-0.065
3259,-0.005,-0.055
3260,0.000,-0.045
3261,0.010,-0.025
3262,0.020,-0.005
3263,0.020,0.005
3264,0.015,0.010
3265,0.005,0.015
3266,0.000,0.025
3267,-0.015,0.025
3268,-0.030,0.015
3269,-0.040,0.000
3270,-0.040,-0.025
3271,-0.035,-0.055
3272,-0.030,-0.080
3273,-0.030,-0.095
3274,-0.030,-0.100
3275,-0.025,-0.105
3276,-0.005,-0.120
3277,0.035,-0.135
3278,0.105,-0.095
3279,0.115,0.095
3280,0.000,0.485
3281,-0.235,0.905
3282,-0.450,1.000
3283,-0.555,0.560
3284,-0.550,-0.015
3285,-0.420,-0.270
3286,-0.215,-0.245
3287,-0.065,-0.175
3288,0.000,-0.145
3289,0.010,-0.135
3290,0.015,-0.125
3291,0.015,-0.125
3292,0.015,-0.120
3293,0.020,-0.115
3294,0.020,-0.115
3295,0.020,-0.110
3296,0.025,-0.105
3297,0.025,-0.100
3298,0.025,-0.090
3299,0.030,-0.075
3300,0.035,-0.065
3301,0.040,-0.055
3302,0.045,-0.045
3303,0.050,-0.030
3304,0.055,-0.020
3305,0.065,-0.005
3306,0.070,0.005
3307,0.075,0.015
3308,0.080,0.025
3309,0.080,0.040
3310,0.090,0.050
3311,0.100,0.065
3312,0.105,0.080
3313,0.105,0.100
3314,0.110,0.110
3315,0.115,0.120
3316,0.115,0.130
3317,0.115,0.140
3318,0.115,0.155
3319,0.115,0.160
3320,0.115,0.165
3321,0.115,0.175
3322,0.115,0.185
3323,0.115,0.195
3324,0.110,0.205
3325,0.110,0.205
3326,0.105,0.200
3327,0.100,0.185
3328,0.095,0.175
3329,0.085,0.155
3330,0.075,0.125
3331,0.065,0.105
3332,0.050,0.085
3333,0.045,0.075
3334,0.040,0.060
3335,0.030,0.050
3336,0.030,0.045
3337,0.025,0.040
3338,0.020,0.035
3339,0.015,0.030
3340,0.015,0.025
3341,0.015,0.015
3342,0.015,0.015
3343,0.015,0.010
3344,0.015,0.005
3345,0.015,0.000
3346,0.015,0.000
3347,0.015,0.000
3348,0.015,0.000
3349,0.010,0.000
3350,0.010,-0.005
3351,0.005,-0.010
3352,0.005,-0.010
3353,0.010,-0.015
3354,0.010,-0.020
3355,0.010,-0.025
3356,0.005,-0.025
3357,0.005,-0.020
3358,0.005,-0.020
3359,0.000,-0.020
3360,0.000,-0.025
3361,0.005,-0.025
3362,0.010,-0.025
3363,0.010,-0.025
3364,0.015,-0.030
3365,0.015,-0.030
3366,0.015,-0.025
3367,0.015,-0.025
3368,0.015,-0.025
3369,0.010,-0.025
3370,0.010,-0.020
3371,0.010,-0.020
3372,0.010,-0.020
3373,0.015,-0.020
3374,0.015,-0.015
3375,0.015,-0.010
3376,0.015,-0.010
3377,0.015,-0.010
3378,0.015,-0.010
3379,0.015,-0.010
3380,0.015,0.000
3381,0.015,0.000
3382,0.015,0.000
3383,0.030,0.010
3384,0.045,0.025
3385,0.065,0.035
3386,0.070,0.050
3387,0.060,0.065
3388,0.040,0.075
3389,0.025,0.085
3390,0.015,0.090
3391,0.010,0.075
3392,0.005,0.055
3393,0.005,0.030
3394,0.005,0.010
3395,0.010,-0.010
3396,0.015,-0.025
3397,0.015,-0.035
3398,0.015,-0.035
3399,0.035,-0.045
3400,0.080,-0.065
3401,0.145,-0.035
3402,0.170,0.125
3403,0.085,0.485
3404,-0.125,0.895
3405,-0.350,1.020
3406,-0.480,0.655
3407,-0.495,0.095
3408,-0.395,-0.195
3409,-0.200,-0.195
3410,-0.035,-0.120
3411,0.030,-0.080
3412,0.050,-0.065
3413,0.055,-0.055
3414,0.055,-0.055
3415,0.060,-0.055
3416,0.065,-0.050
3417,0.065,-0.045
3418,0.065,-0.040
3419,0.065,-0.040
3420,0.065,-0.040
3421,0.065,-0.035
3422,0.070,-0.025
3423,0.075,-0.020
3424,0.080,-0.010
3425,0.080,0.000
3426,0.080,0.005
3427,0.085,0.015
3428,0.090,0.025
3429,0.095,0.035
3430,0.100,0.045
3431,0.105,0.065
3432,0.105,0.080
3433,0.110,0.095
3434,0.115,0.110
3435,0.120,0.125
3436,0.130,0.135
3437,0.130,0.145
3438,0.130,0.155
3439,0.130,0.165
3440,0.130,0.175
3441,0.130,0.180
3442,0.130,0.180
3443,0.130,0.180
3444,0.130,0.185
3445,0.130,0.195
3446,0.130,0.205
3447,0.130,0.210
3448,0.125,0.210
3449,0.120,0.205
3450,0.115,0.190
3451,0.110,0.175
3452,0.100,0.150
3453,0.085,0.130
3454,0.075,0.100
3455,0.065,0.075
3456,0.060,0.070
3457,0.055,0.055
3458,0.045,0.050
3459,0.035,0.040
3460,0.030,0.035
3461,0.025,0.020
3462,0.020,0.015
3463,0.015,0.015
3464,0.015,0.005
3465,0.015,0.000
3466,0.015,0.000
3467,0.015,0.000
3468,0.015,-0.005
3469,0.015,-0.010
3470,0.015,-0.010
3471,0.015,-0.020
3472,0.015,-0.025
3473,0.015,-0.025
3474,0.015,-0.025
3475,0.015,-0.030
3476,0.015,-0.035
3477,0.015,-0.040
3478,0.010,-0.040
3479,0.010,-0.040
3480,0.015,-0.040
3481,0.015,-0.045
3482,0.010,-0.050
3483,0.010,-0.055
3484,0.010,-0.050
3485,0.015,-0.045
3486,0.015,-0.045
3487,0.015,-0.040
3488,0.015,-0.040
3489,0.015,-0.040
3490,0.015,-0.045
3491,0.015,-0.045
3492,0.015,-0.045
3493,0.015,-0.040
3494,0.015,-0.040
3495,0.015,-0.035
3496,0.015,-0.025
3497,0.015,-0.025
3498,0.015,-0.025
3499,0.015,-0.025
3500,0.015,-0.025
3501,0.015,-0.020
3502,0.015,-0.020
3503,0.015,-0.020
3504,0.015,-0.015
3505,0.015,0.000
3506,0.035,0.005
3507,0.055,0.015
3508,0.070,0.030
3509,0.065,0.045
3510,0.050,0.055
3511,0.030,0.070
3512,0.020,0.075
3513,0.010,0.070
3514,0.005,0.055
3515,0.000,0.030
3516,0.000,0.010
3517,0.005,-0.015
3518,0.010,-0.040
3519,0.015,-0.055
3520,0.015,-0.060
3521,0.015,-0.060
3522,0.045,-0.075
3523,0.105,-0.085
3524,0.160,-0.010
3525,0.145,0.235
3526,0.000,0.640
3527,-0.235,0.970
3528,-0.440,0.890
3529,-0.525,0.405
3530,-0.490,-0.060
3531,-0.340,-0.225
3532,-0.145,-0.185
3533,-0.005,-0.125
3534,0.035,-0.100
3535,0.050,-0.095
3536,0.055,-0.090
3537,0.055,-0.085
3538,0.055,-0.080
3539,0.055,-0.080
3540,0.055,-0.080
3541,0.055,-0.075
3542,0.055,-0.075
3543,0.060,-0.070
3544,0.065,-0.065
3545,0.065,-0.050
3546,0.070,-0.035
3547,0.070,-0.020
3548,0.070,-0.015
3549,0.075,0.000
3550,0.080,0.000
3551,0.080,0.015
3552,0.085,0.030
3553,0.095,0.035
3554,0.100,0.050
3555,0.105,0.070
3556,0.105,0.080
3557,0.110,0.095
3558,0.115,0.110
3559,0.115,0.115
3560,0.120,0.125
3561,0.125,0.135
3562,0.125,0.140
3563,0.120,0.145
3564,0.115,0.150
3565,0.110,0.160
3566,0.105,0.165
3567,0.105,0.175
3568,0.105,0.180
3569,0.105,0.185
3570,0.105,0.190
3571,0.105,0.185
3572,0.100,0.180
3573,0.095,0.165
3574,0.085,0.145
3575,0.075,0.120
3576,0.065,0.100
3577,0.055,0.075
3578,0.040,0.055
3579,0.030,0.045
3580,0.025,0.035
3581,0.020,0.025
3582,0.015,0.020
3583,0.015,0.010
3584,0.015,0.010
3585,0.015,0.000
3586,0.015,0.000
3587,0.010,0.000
3588,0.010,-0.005
3589,0.005,-0.010
3590,0.000,-0.010
3591,0.000,-0.020
3592,0.000,-0.025
3593,0.000,-0.025
3594,0.000,-0.035
3595,0.000,-0.040
3596,0.000,-0.045
3597,0.000,-0.045
3598,0.000,-0.045
3599,0.000,-0.050
3600,0.000,-0.055
3601,0.000,-0.060
3602,0.000,-0.060
3603,0.000,-0.060
3604,0.000,-0.060
3605,0.000,-0.065
3606,0.000,-0.060
3607,0.000,-0.060
3608,-0.005,-0.060
3609,-0.005,-0.060
3610,-0.005,-0.060
3611,-0.005,-0.055
3612,-0.005,-0.055
3613,-0.010,-0.055
3614,-0.010,-0.055
3615,-0.010,-0.050
3616,-0.010,-0.045
3617,-0.015,-0.040
3618,-0.010,-0.040
3619,-0.010,-0.040
3620,-0.010,-0.040
3621,-0.010,-0.040
3622,-0.005,-0.040
3623,-0.005,-0.040
3624,-0.005,-0.040
3625,-0.005,-0.035
3626,0.000,-0.030
3627,0.000,-0.030
3628,0.005,-0.015
3629,0.020,0.000
3630,0.030,0.015
3631,0.035,0.025
3632,0.020,0.035
3633,0.010,0.040
3634,0.000,0.045
3635,-0.005,0.050
3636,-0.015,0.040
3637,-0.020,0.020
3638,-0.025,0.000
3639,-0.020,-0.025
3640,-0.015,-0.060
3641,-0.015,-0.075
3642,-0.020,-0.085
3643,-0.015,-0.085
3644,0.000,-0.100
3645,0.050,-0.115
3646,0.110,-0.070
3647,0.115,0.125
3648,0.005,0.505
3649,-0.215,0.890
3650,-0.430,0.940
3651,-0.540,0.535
3652,-0.535,0.015
3653,-0.410,-0.240
3654,-0.220,-0.240
3655,-0.065,-0.175
3656,0.000,-0.140
3657,0.015,-0.125
3658,0.015,-0.120
3659,0.015,-0.115
3660,0.015,-0.115
3661,0.015,-0.115
3662,0.015,-0.115
3663,0.015,-0.115
3664,0.020,-0.110
3665,0.020,-0.105
3666,0.020,-0.095
3667,0.025,-0.085
3668,0.025,-0.075
3669,0.025,-0.060
3670,0.025,-0.055
3671,0.025,-0.040
3672,0.025,-0.030
3673,0.030,-0.015
3674,0.035,0.000
3675,0.040,0.010
3676,0.050,0.020
3677,0.055,0.035
3678,0.055,0.045
3679,0.060,0.050
3680,0.070,0.065
3681,0.075,0.080
3682,0.075,0.090
3683,0.080,0.100
3684,0.080,0.110
3685,0.080,0.115
3686,0.080,0.120
3687,0.080,0.125
3688,0.075,0.135
3689,0.075,0.140
3690,0.075,0.150
3691,0.080,0.155
3692,0.075,0.160
3693,0.075,0.160
3694,0.070,0.150
3695,0.060,0.135
3696,0.050,0.120
3697,0.040,0.095
3698,0.030,0.070
3699,0.020,0.045
3700,0.015,0.030
3701,0.015,0.020
3702,0.010,0.010
3703,0.005,0.000
3704,0.000,0.000
3705,0.000,0.000
3706,0.000,-0.010
3707,-0.005,-0.015
3708,-0.010,-0.020
3709,-0.015,-0.030
3710,-0.020,-0.035
3711,-0.020,-0.040
3712,-0.020,-0.050
3713,-0.020,-0.050
3714,-0.020,-0.055
3715,-0.020,-0.060
3716,-0.020,-0.065
3717,-0.020,-0.070
3718,-0.020,-0.075
3719,-0.020,-0.080
3720,-0.020,-0.085
3721,-0.025,-0.085
3722,-0.030,-0.085
3723,-0.030,-0.090
3724,-0.035,-0.095
3725,-0.035,-0.095
3726,-0.035,-0.095
3727,-0.035,-0.095
3728,-0.035,-0.095
3729,-0.035,-0.095
3730,-0.035,-0.095
3731,-0.035,-0.095
3732,-0.030,-0.095
3733,-0.030,-0.095
3734,-0.030,-0.090
3735,-0.030,-0.090
3736,-0.035,-0.090
3737,-0.030,-0.095
3738,-0.025,-0.095
3739,-0.025,-0.090
3740,-0.025,-0.085
3741,-0.020,-0.085
3742,-0.020,-0.080
3743,-0.020,-0.080
3744,-0.020,-0.080
3745,-0.020,-0.080
3746,-0.020,-0.075
3747,-0.020,-0.070
3748,-0.020,-0.070
3749,-0.015,-0.065
3750,-0.005,-0.060
3751,0.000,-0.040
3752,0.015,-0.015
3753,0.020,0.000
3754,0.015,0.005
3755,0.010,0.005
3756,0.000,0.010
3757,-0.005,0.020
3758,-0.020,0.025
3759,-0.030,0.010
3760,-0.040,-0.005
3761,-0.040,-0.035
3762,-0.030,-0.065
3763,-0.025,-0.090
3764,-0.025,-0.095
3765,-0.025,-0.100
3766,-0.015,-0.105
3767,0.005,-0.125
3768,0.065,-0.130
3769,0.115,-0.040
3770,0.090,0.235
3771,-0.080,0.660
3772,-0.315,0.965
3773,-0.490,0.840
3774,-0.550,0.340
3775,-0.490,-0.100
3776,-0.330,-0.245
3777,-0.140,-0.205
3778,-0.025,-0.150
3779,0.015,-0.130
3780,0.025,-0.120
3781,0.025,-0.120
3782,0.025,-0.120
3783,0.025,-0.115
3784,0.025,-0.115
3785,0.035,-0.115
3786,0.040,-0.110
3787,0.045,-0.105
3788,0.050,-0.100
3789,0.055,-0.090
3790,0.055,-0.075
3791,0.055,-0.065
3792,0.060,-0.050
3793,0.065,-0.035
3794,0.075,-0.025
3795,0.075,-0.010
3796,0.080,0.000
3797,0.080,0.015
3798,0.085,0.020
3799,0.095,0.035
3800,0.100,0.055
3801,0.105,0.065
3802,0.105,0.080
3803,0.110,0.090
3804,0.120,0.110
3805,0.125,0.125
3806,0.130,0.140
3807,0.130,0.145
3808,0.130,0.150
3809,0.130,0.160
3810,0.125,0.170
3811,0.125,0.180
3812,0.125,0.190
3813,0.125,0.205
3814,0.130,0.215
3815,0.125,0.220
3816,0.115,0.215
3817,0.110,0.205
3818,0.105,0.190
3819,0.100,0.175
3820,0.085,0.150
3821,0.075,0.120
3822,0.070,0.100
3823,0.060,0.085
3824,0.050,0.075
3825,0.045,0.065
3826,0.040,0.060
3827,0.030,0.050
3828,0.025,0.045
3829,0.025,0.040
3830,0.025,0.035
3831,0.025,0.025
3832,0.020,0.020
3833,0.015,0.015
3834,0.015,0.015
3835,0.015,0.010
3836,0.015,0.000
3837,0.015,0.000
3838,0.015,0.000
3839,0.015,0.000
3840,0.015,0.000
3841,0.015,0.000
3842,0.015,0.000
3843,0.015,0.000
3844,0.015,-0.005
3845,0.015,-0.010
3846,0.015,-0.010
3847,0.015,-0.015
3848,0.015,-0.015
3849,0.015,-0.010
3850,0.015,-0.010
3851,0.015,-0.015
3852,0.015,-0.020
3853,0.015,-0.020
3854,0.015,-0.020
3855,0.015,-0.020
3856,0.015,-0.020
3857,0.015,-0.020
3858,0.015,-0.015
3859,0.015,-0.010
3860,0.015,-0.010
3861,0.015,-0.010
3862,0.015,-0.010
3863,0.015,-0.010
3864,0.015,-0.010
3865,0.015,-0.010
3866,0.015,-0.005
3867,0.015,-0.005
3868,0.015,-0.005
3869,0.015,-0.005
3870,0.015,0.000
3871,0.015,0.000
3872,0.015,0.000
3873,0.020,0.005
3874,0.035,0.020
3875,0.055,0.035
3876,0.075,0.055
3877,0.070,0.070
3878,0.050,0.080
3879,0.030,0.085
3880,0.020,0.095
3881,0.010,0.090
3882,0.005,0.070
3883,0.005,0.055
3884,0.005,0.030
3885,0.005,0.005
3886,0.010,-0.010
3887,0.015,-0.025
3888,0.015,-0.030
3889,0.015,-0.035
3890,0.050,-0.060
3891,0.120,-0.070
3892,0.175,0.000
3893,0.155,0.265
3894,0.000,0.690
3895,-0.235,1.010
3896,-0.425,0.890
3897,-0.500,0.395
3898,-0.465,-0.040
3899,-0.310,-0.190
3900,-0.125,-0.155
3901,-0.005,-0.100
3902,0.040,-0.075
3903,0.055,-0.065
3904,0.060,-0.060
3905,0.065,-0.055
3906,0.065,-0.055
3907,0.065,-0.055
3908,0.065,-0.050
3909,0.065,-0.040
3910,0.065,-0.040
3911,0.065,-0.040
3912,0.065,-0.035
3913,0.070,-0.025
3914,0.075,-0.015
3915,0.080,-0.005
3916,0.080,0.000
3917,0.080,0.010
3918,0.085,0.020
3919,0.090,0.035
3920,0.100,0.045
3921,0.105,0.055
3922,0.105,0.075
3923,0.110,0.090
3924,0.115,0.100
3925,0.120,0.115
3926,0.120,0.125
3927,0.125,0.140
3928,0.130,0.155
3929,0.130,0.160
3930,0.130,0.165
3931,0.130,0.175
3932,0.130,0.180
3933,0.130,0.185
3934,0.130,0.190
3935,0.130,0.200
3936,0.130,0.210
3937,0.130,0.215
3938,0.130,0.220
3939,0.130,0.220
3940,0.120,0.210
3941,0.110,0.195
3942,0.105,0.170
3943,0.095,0.150
3944,0.080,0.125
3945,0.070,0.100
3946,0.060,0.080
3947,0.055,0.065
3948,0.050,0.055
3949,0.040,0.045
3950,0.030,0.040
3951,0.025,0.035
3952,0.020,0.025
3953,0.015,0.020
3954,0.015,0.010
3955,0.015,0.005
3956,0.015,0.005
3957,0.015,0.005
3958,0.015,0.000
3959,0.015,0.000
3960,0.015,0.000
3961,0.015,0.000
3962,0.015,-0.005
3963,0.015,-0.010
3964,0.015,-0.010
3965,0.015,-0.015
3966,0.015,-0.020
3967,0.015,-0.025
3968,0.015,-0.025
3969,0.015,-0.025
3970,0.015,-0.025
3971,0.015,-0.025
3972,0.015,-0.025
3973,0.010,-0.025
3974,0.010,-0.025
3975,0.010,-0.030
3976,0.015,-0.025
3977,0.015,-0.025
3978,0.015,-0.025
3979,0.015,-0.025
3980,0.015,-0.025
3981,0.015,-0.025
3982,0.015,-0.025
3983,0.015,-0.025
3984,0.015,-0.020
3985,0.015,-0.020
3986,0.015,-0.020
3987,0.015,-0.015
3988,0.015,-0.015
3989,0.015,-0.015
3990,0.015,-0.015
3991,0.015,-0.020
3992,0.015,-0.020
3993,0.015,-0.015
3994,0.015,-0.010
3995,0.015,-0.010
3996,0.020,0.000
3997,0.030,0.005
3998,0.050,0.025
3999,0.065,0.040
4000,0.065,0.055
4001,0.045,0.065
4002,0.025,0.075
4003,0.010,0.090
4004,0.005,0.085
4005,0.000,0.065
4006,0.000,0.040
4007,0.000,0.015
4008,0.005,-0.005
4009,0.010,-0.030
4010,0.010,-0.040
4011,0.010,-0.045
4012,0.010,-0.050
4013,0.035,-0.065
4014,0.100,-0.085
4015,0.160,-0.025
4016,0.155,0.215
4017,0.010,0.635
4018,-0.235,0.995
4019,-0.435,0.935
4020,-0.525,0.440
4021,-0.500,-0.030
4022,-0.350,-0.205
4023,-0.155,-0.180
4024,-0.020,-0.125
4025,0.030,-0.090
4026,0.050,-0.075
4027,0.055,-0.070
4028,0.055,-0.070
4029,0.055,-0.065
4030,0.055,-0.060
4031,0.055,-0.060
4032,0.055,-0.060
4033,0.055,-0.055
4034,0.055,-0.050
4035,0.055,-0.045
4036,0.060,-0.035
4037,0.065,-0.025
4038,0.065,-0.015
4039,0.070,-0.005
4040,0.075,0.000
4041,0.080,0.005
4042,0.080,0.020
4043,0.080,0.035
4044,0.080,0.050
4045,0.090,0.065
4046,0.100,0.080
4047,0.105,0.095
4048,0.105,0.110
4049,0.110,0.125
4050,0.115,0.135
4051,0.115,0.145
4052,0.115,0.155
4053,0.110,0.165
4054,0.110,0.165
4055,0.110,0.170
4056,0.105,0.175
4057,0.105,0.175
4058,0.105,0.185
4059,0.105,0.190
4060,0.105,0.195
4061,0.105,0.200
4062,0.105,0.195
4063,0.105,0.185
4064,0.095,0.170
4065,0.080,0.155
4066,0.075,0.125
4067,0.065,0.105
4068,0.055,0.085
4069,0.040,0.070
4070,0.025,0.055
4071,0.025,0.045
4072,0.020,0.040
4073,0.015,0.030
4074,0.015,0.025
4075,0.010,0.020
4076,0.010,0.010
4077,0.005,0.005
4078,0.005,0.000
4079,0.000,0.000
4080,0.000,0.000
4081,0.000,-0.010
4082,0.000,-0.015
4083,0.000,-0.015
4084,0.000,-0.020
4085,0.000,-0.025
4086,0.000,-0.030
4087,0.000,-0.035
4088,-0.005,-0.040
4089,-0.005,-0.040
4090,-0.005,-0.045
4091,-0.005,-0.045
4092,-0.010,-0.045
4093,-0.015,-0.050
4094,-0.020,-0.055
4095,-0.020,-0.055
4096,-0.020,-0.055
4097,-0.020,-0.055
4098,-0.020,-0.055
4099,-0.020,-0.045
4100,-0.020,-0.045
4101,-0.020,-0.045
4102,-0.020,-0.050
4103,-0.020,-0.055
4104,-0.020,-0.045
4105,-0.020,-0.045
4106,-0.020,-0.045
4107,-0.020,-0.045
4108,-0.020,-0.045
4109,-0.020,-0.040
4110,-0.020,-0.040
4111,-0.020,-0.040
4112,-0.020,-0.040
4113,-0.015,-0.035
4114,-0.015,-0.030
4115,-0.010,-0.030
4116,-0.010,-0.035
4117,-0.005,-0.035
4118,0.000,-0.030
4119,0.000,-0.025
4120,0.005,-0.010
4121,0.020,0.000
4122,0.030,0.015
4123,0.030,0.030
4124,0.015,0.040
4125,0.005,0.040
4126,0.000,0.055
4127,-0.010,0.055
4128,-0.025,0.035
4129,-0.035,0.015
4130,-0.030,-0.005
4131,-0.025,-0.030
4132,-0.020,-0.055
4133,-0.020,-0.075
4134,-0.020,-0.080
4135,-0.015,-0.085
4136,0.000,-0.100
4137,0.055,-0.120
4138,0.120,-0.075
4139,0.120,0.150
4140,-0.015,0.585
4141,-0.275,0.990
4142,-0.475,0.965
4143,-0.560,0.460
4144,-0.535,-0.055
4145,-0.390,-0.250
4146,-0.200,-0.225
4147,-0.060,-0.165
4148,0.000,-0.135
4149,0.010,-0.120
4150,0.015,-0.115
4151,0.015,-0.110
4152,0.015,-0.105
4153,0.015,-0.105
4154,0.015,-0.105
4155,0.015,-0.105
4156,0.015,-0.100
4157,0.015,-0.090
4158,0.020,-0.085
4159,0.020,-0.075
4160,0.025,-0.070
4161,0.025,-0.055
4162,0.025,-0.040
4163,0.025,-0.025
4164,0.025,-0.015
4165,0.035,-0.005
4166,0.045,0.000
4167,0.050,0.010
4168,0.055,0.025
4169,0.055,0.035
4170,0.060,0.045
4171,0.065,0.060
4172,0.070,0.075
4173,0.075,0.090
4174,0.080,0.105
4175,0.080,0.110
4176,0.080,0.115
4177,0.080,0.125
4178,0.080,0.130
4179,0.080,0.135
4180,0.080,0.145
4181,0.080,0.150
4182,0.080,0.150
4183,0.080,0.160
4184,0.080,0.165
4185,0.075,0.165
4186,0.070,0.165
4187,0.060,0.145
4188,0.050,0.125
4189,0.040,0.100
4190,0.030,0.075
4191,0.020,0.050
4192,0.015,0.035
4193,0.010,0.025
4194,0.005,0.020
4195,0.000,0.010
4196,0.000,0.005
4197,0.000,0.000
4198,0.000,0.000
4199,-0.005,0.000
4200,-0.010,-0.005
4201,-0.015,-0.010
4202,-0.020,-0.015
4203,-0.020,-0.020
4204,-0.020,-0.030
4205,-0.020,-0.030
4206,-0.025,-0.035
4207,-0.025,-0.040
4208,-0.025,-0.045
4209,-0.025,-0.045
4210,-0.025,-0.045
4211,-0.025,-0.055
4212,-0.030,-0.060
4213,-0.030,-0.065
4214,-0.035,-0.065
4215,-0.040,-0.065
4216,-0.040,-0.070
4217,-0.040,-0.070
4218,-0.040,-0.070
4219,-0.040,-0.070
4220,-0.040,-0.070
4221,-0.040,-0.075
4222,-0.040,-0.075
4223,-0.035,-0.075
4224,-0.035,-0.075
4225,-0.035,-0.070
4226,-0.035,-0.070
4227,-0.035,-0.070
4228,-0.035,-0.070
4229,-0.035,-0.070
4230,-0.035,-0.070
4231,-0.035,-0.070
4232,-0.035,-0.070
4233,-0.030,-0.065
4234,-0.030,-0.060
4235,-0.030,-0.060
4236,-0.025,-0.060
4237,-0.025,-0.055
4238,-0.020,-0.055
4239,-0.020,-0.055
4240,-0.020,-0.055
4241,-0.020,-0.055
4242,-0.010,-0.040
4243,0.000,-0.020
4244,0.010,-0.005
4245,0.020,0.005
4246,0.020,0.015
4247,0.015,0.025
4248,0.005,0.035
4249,0.000,0.040
4250,-0.005,0.045
4251,-0.020,0.035
4252,-0.030,0.015
4253,-0.030,-0.005
4254,-0.020,-0.025
4255,-0.020,-0.055
4256,-0.020,-0.070
4257,-0.015,-0.075
4258,-0.010,-0.080
4259,0.005,-0.095
4260,0.065,-0.110
4261,0.125,-0.055
4262,0.130,0.160
4263,-0.010,0.570
4264,-0.255,0.980
4265,-0.460,1.005
4266,-0.540,0.505
4267,-0.525,-0.045
4268,-0.370,-0.235
4269,-0.165,-0.200
4270,-0.030,-0.140
4271,0.015,-0.110
4272,0.020,-0.105
4273,0.025,-0.095
4274,0.025,-0.095
4275,0.030,-0.090
4276,0.035,-0.085
4277,0.035,-0.085
4278,0.045,-0.085
4279,0.050,-0.075
4280,0.050,-0.065
4281,0.055,-0.060
4282,0.055,-0.050
4283,0.055,-0.040
4284,0.060,-0.030
4285,0.065,-0.015
4286,0.070,-0.005
4287,0.075,0.005
4288,0.080,0.015
4289,0.080,0.030
4290,0.085,0.040
4291,0.095,0.055
4292,0.105,0.070
4293,0.110,0.090
4294,0.115,0.100
4295,0.115,0.115
4296,0.125,0.125
4297,0.130,0.140
4298,0.130,0.155
4299,0.130,0.170
4300,0.130,0.180
4301,0.130,0.185
4302,0.130,0.190
4303,0.130,0.200
4304,0.130,0.210
4305,0.130,0.225
4306,0.130,0.230
4307,0.125,0.235
4308,0.120,0.230
4309,0.110,0.220
4310,0.110,0.210
4311,0.100,0.190
4312,0.085,0.165
4313,0.075,0.140
4314,0.070,0.115
4315,0.060,0.100
4316,0.055,0.090
4317,0.050,0.075
4318,0.040,0.060
4319,0.035,0.050
4320,0.030,0.045
4321,0.025,0.040
4322,0.025,0.030
4323,0.025,0.030
4324,0.020,0.020
4325,0.015,0.015
4326,0.015,0.010
4327,0.015,0.010
4328,0.015,0.010
4329,0.015,0.000
4330,0.015,0.000
4331,0.015,0.000
4332,0.015,0.000
4333,0.015,0.000
4334,0.015,-0.005
4335,0.010,-0.005
4336,0.010,-0.010
4337,0.005,-0.015
4338,0.005,-0.015
4339,0.005,-0.015
4340,0.010,-0.020
4341,0.010,-0.020
4342,0.010,-0.020
4343,0.010,-0.020
4344,0.010,-0.020
4345,0.005,-0.015
4346,0.005,-0.015
4347,0.005,-0.015
4348,0.010,-0.010
4349,0.015,-0.010
4350,0.015,-0.010
4351,0.015,-0.010
4352,0.015,-0.010
4353,0.015,-0.010
4354,0.015,-0.010
4355,0.015,-0.005
4356,0.015,-0.005
4357,0.015,0.000
4358,0.015,0.000
4359,0.015,0.000
4360,0.015,0.000
4361,0.015,0.000
4362,0.015,0.000
4363,0.015,0.000
4364,0.015,0.000
4365,0.015,0.000
4366,0.030,0.015
4367,0.050,0.025
4368,0.065,0.045
4369,0.070,0.060
4370,0.055,0.075
4371,0.035,0.085
4372,0.020,0.095
4373,0.015,0.095
4374,0.010,0.080
4375,0.005,0.055
4376,0.000,0.030
4377,0.005,0.010
4378,0.010,-0.005
4379,0.015,-0.020
4380,0.015,-0.030
4381,0.015,-0.035
4382,0.035,-0.045
4383,0.095,-0.065
4384,0.155,-0.020
4385,0.165,0.180
4386,0.050,0.565
4387,-0.175,0.960
4388,-0.390,1.000
4389,-0.500,0.555
4390,-0.495,0.010
4391,-0.370,-0.210
4392,-0.175,-0.180
4393,-0.020,-0.110
4394,0.035,-0.080
4395,0.045,-0.070
4396,0.055,-0.060
4397,0.060,-0.055
4398,0.060,-0.055
4399,0.060,-0.055
4400,0.060,-0.045
4401,0.065,-0.040
4402,0.065,-0.035
4403,0.065,-0.030
4404,0.065,-0.030
4405,0.065,-0.020
4406,0.070,-0.010
4407,0.075,0.000
4408,0.080,0.000
4409,0.080,0.010
4410,0.080,0.020
4411,0.080,0.030
4412,0.090,0.045
4413,0.095,0.055
4414,0.100,0.070
4415,0.105,0.085
4416,0.105,0.100
4417,0.110,0.115
4418,0.115,0.130
4419,0.125,0.145
4420,0.130,0.150
4421,0.130,0.155
4422,0.130,0.165
4423,0.130,0.165
4424,0.125,0.165
4425,0.125,0.175
4426,0.125,0.185
4427,0.120,0.190
4428,0.120,0.200
4429,0.120,0.205
4430,0.120,0.205
4431,0.115,0.200
4432,0.110,0.190
4433,0.105,0.175
4434,0.100,0.160
4435,0.090,0.140
4436,0.080,0.115
4437,0.070,0.095
4438,0.065,0.080
4439,0.055,0.065
4440,0.045,0.055
4441,0.035,0.045
4442,0.030,0.040
4443,0.025,0.035
4444,0.025,0.025
4445,0.020,0.015
4446,0.015,0.015
4447,0.015,0.010
4448,0.015,0.005
4449,0.015,0.000
4450,0.015,0.000
4451,0.015,0.000
4452,0.015,0.000
4453,0.015,-0.005
4454,0.015,-0.010
4455,0.015,-0.010
4456,0.015,-0.015
4457,0.015,-0.020
4458,0.010,-0.025
4459,0.010,-0.030
4460,0.010,-0.035
4461,0.010,-0.035
4462,0.010,-0.040
4463,0.005,-0.040
4464,0.005,-0.035
4465,0.005,-0.035
4466,0.005,-0.035
4467,0.005,-0.040
4468,0.010,-0.040
4469,0.010,-0.040
4470,0.005,-0.040
4471,0.005,-0.035
4472,0.005,-0.035
4473,0.010,-0.035
4474,0.010,-0.040
4475,0.010,-0.035
4476,0.010,-0.030
4477,0.010,-0.030
4478,0.010,-0.035
4479,0.010,-0.030
4480,0.010,-0.030
4481,0.010,-0.030
4482,0.010,-0.030
4483,0.015,-0.025
4484,0.015,-0.020
4485,0.015,-0.020
4486,0.015,-0.020
4487,0.015,-0.020
4488,0.015,-0.015
4489,0.020,0.000
4490,0.040,0.005
4491,0.060,0.020
4492,0.070,0.035
4493,0.055,0.045
4494,0.035,0.055
4495,0.020,0.065
4496,0.010,0.075
4497,0.000,0.065
4498,0.000,0.040
4499,0.000,0.015
4500,0.000,-0.005
4501,0.005,-0.030
4502,0.010,-0.050
4503,0.005,-0.055
4504,0.005,-0.055
4505,0.025,-0.065
4506,0.075,-0.085
4507,0.135,-0.065
4508,0.160,0.095
4509,0.075,0.445
4510,-0.135,0.850
4511,-0.375,0.995
4512,-0.510,0.655
4513,-0.525,0.110
4514,-0.420,-0.195
4515,-0.230,-0.220
4516,-0.060,-0.155
4517,0.015,-0.115
4518,0.045,-0.100
4519,0.055,-0.095
4520,0.055,-0.090
4521,0.055,-0.085
4522,0.055,-0.085
4523,0.055,-0.085
4524,0.055,-0.085
4525,0.055,-0.080
4526,0.055,-0.080
4527,0.055,-0.070
4528,0.060,-0.060
4529,0.065,-0.050
4530,0.070,-0.035
4531,0.075,-0.020
4532,0.075,-0.015
4533,0.075,0.000
4534,0.080,0.005
4535,0.080,0.015
4536,0.090,0.030
4537,0.095,0.040
4538,0.100,0.050
4539,0.105,0.065
4540,0.110,0.080
4541,0.115,0.095
4542,0.115,0.105
4543,0.120,0.115
4544,0.120,0.125
4545,0.120,0.130
4546,0.120,0.140
4547,0.120,0.145
4548,0.115,0.155
4549,0.110,0.165
4550,0.110,0.170
4551,0.115,0.180
4552,0.115,0.190
4553,0.115,0.190
4554,0.110,0.185
4555,0.105,0.180
4556,0.100,0.170
4557,0.090,0.150
4558,0.080,0.130
4559,0.070,0.105
4560,0.060,0.085
4561,0.045,0.065
4562,0.035,0.045
4563,0.025,0.035
4564,0.015,0.025
4565,0.015,0.015
4566,0.015,0.015
4567,0.010,0.010
4568,0.005,0.005
4569,0.000,0.000
4570,0.000,0.000
4571,0.000,-0.005
4572,0.000,-0.010
4573,0.000,-0.015
4574,0.000,-0.025
4575,0.000,-0.030
4576,0.000,-0.030
4577,-0.005,-0.035
4578,-0.010,-0.040
4579,-0.010,-0.045
4580,-0.010,-0.050
4581,-0.010,-0.055
4582,-0.010,-0.055
4583,-0.015,-0.055
4584,-0.020,-0.060
4585,-0.020,-0.060
4586,-0.015,-0.065
4587,-0.015,-0.065
4588,-0.015,-0.070
4589,-0.015,-0.070
4590,-0.015,-0.070
4591,-0.015,-0.070
4592,-0.015,-0.070
4593,-0.015,-0.070
4594,-0.015,-0.070
4595,-0.015,-0.070
4596,-0.020,-0.065
4597,-0.020,-0.065
4598,-0.015,-0.065
4599,-0.015,-0.065
4600,-0.020,-0.060
4601,-0.020,-0.055
4602,-0.020,-0.055
4603,-0.015,-0.050
4604,-0.015,-0.045
4605,-0.015,-0.045
4606,-0.015,-0.045
4607,-0.015,-0.045
4608,-0.015,-0.045
4609,-0.015,-0.045
4610,-0.010,-0.045
4611,-0.005,-0.035
4612,0.000,-0.020
4613,0.010,0.000
4614,0.020,0.005
4615,0.030,0.015
4616,0.020,0.025
4617,0.010,0.035
4618,0.000,0.045
4619,-0.005,0.050
4620,-0.020,0.040
4621,-0.035,0.015
4622,-0.040,0.000
4623,-0.030,-0.025
4624,-0.020,-0.055
4625,-0.020,-0.075
4626,-0.020,-0.090
4627,-0.015,-0.095
4628,0.000,-0.100
4629,0.035,-0.120
4630,0.090,-0.095
4631,0.115,0.060
4632,0.030,0.410
4633,-0.175,0.825
4634,-0.405,0.980
4635,-0.535,0.655
4636,-0.545,0.110
4637,-0.450,-0.220
4638,-0.265,-0.260
4639,-0.090,-0.200
4640,-0.005,-0.165
4641,0.010,-0.145
4642,0.015,-0.140
4643,0.015,-0.135
4644,0.015,-0.130
4645,0.015,-0.125
4646,0.015,-0.125
4647,0.015,-0.120
4648,0.015,-0.120
4649,0.015,-0.115
4650,0.020,-0.110
4651,0.020,-0.110
4652,0.025,-0.095
4653,0.025,-0.075
4654,0.025,-0.065
4655,0.025,-0.055
4656,0.025,-0.035
4657,0.030,-0.015
4658,0.035,-0.005
4659,0.040,0.000
4660,0.045,0.015
4661,0.050,0.030
4662,0.055,0.035
4663,0.060,0.045
4664,0.070,0.050
4665,0.075,0.060
4666,0.080,0.075
4667,0.080,0.085
4668,0.080,0.095
4669,0.080,0.105
4670,0.080,0.115
4671,0.080,0.120
4672,0.080,0.125
4673,0.080,0.130
4674,0.080,0.135
4675,0.080,0.145
4676,0.075,0.150
4677,0.075,0.155
4678,0.070,0.150
4679,0.060,0.135
4680,0.050,0.115
4681,0.040,0.090
4682,0.025,0.070
4683,0.015,0.050
4684,0.015,0.035
4685,0.010,0.015
4686,0.010,0.005
4687,0.005,0.000
4688,0.000,0.000
4689,0.000,-0.005
4690,0.000,-0.010
4691,-0.005,-0.015
4692,-0.010,-0.020
4693,-0.015,-0.025
4694,-0.015,-0.025
4695,-0.020,-0.035
4696,-0.020,-0.040
4697,-0.020,-0.040
4698,-0.020,-0.040
4699,-0.020,-0.045
4700,-0.025,-0.050
4701,-0.025,-0.055
4702,-0.025,-0.060
4703,-0.025,-0.060
4704,-0.025,-0.060
4705,-0.025,-0.065
4706,-0.025,-0.065
4707,-0.030,-0.070
4708,-0.035,-0.065
4709,-0.035,-0.065
4710,-0.035,-0.070
4711,-0.035,-0.070
4712,-0.035,-0.070
4713,-0.035,-0.065
4714,-0.035,-0.065
4715,-0.035,-0.070
4716,-0.030,-0.070
4717,-0.030,-0.065
4718,-0.025,-0.065
4719,-0.025,-0.065
4720,-0.025,-0.065
4721,-0.025,-0.065
4722,-0.025,-0.065
4723,-0.025,-0.065
4724,-0.020,-0.060
4725,-0.020,-0.055
4726,-0.020,-0.055
4727,-0.020,-0.050
4728,-0.020,-0.045
4729,-0.015,-0.045
4730,-0.015,-0.040
4731,-0.015,-0.040
4732,-0.010,-0.040
4733,-0.005,-0.040
4734,0.000,-0.035
4735,0.000,-0.030
4736,0.005,-0.020
4737,0.015,0.000
4738,0.035,0.010
4739,0.040,0.030
4740,0.035,0.035
4741,0.020,0.040
4742,0.010,0.050
4743,0.000,0.055
4744,-0.005,0.040
4745,-0.010,0.020
4746,-0.015,0.000
4747,-0.010,-0.015
4748,0.000,-0.045
4749,0.000,-0.060
4750,0.000,-0.065
4751,0.000,-0.070
4752,0.015,-0.080
4753,0.060,-0.100
4754,0.120,-0.065
4755,0.140,0.105
4756,0.040,0.465
4757,-0.170,0.875
4758,-0.390,0.995
4759,-0.510,0.650
4760,-0.510,0.125
4761,-0.400,-0.170
4762,-0.215,-0.195
4763,-0.055,-0.135
4764,0.015,-0.100
4765,0.035,-0.085
4766,0.045,-0.075
4767,0.050,-0.070
4768,0.055,-0.070
4769,0.055,-0.070
4770,0.055,-0.065
4771,0.055,-0.065
4772,0.055,-0.060
4773,0.055,-0.050
4774,0.055,-0.040
4775,0.060,-0.035
4776,0.065,-0.025
4777,0.070,-0.015
4778,0.075,-0.005
4779,0.075,0.000
4780,0.080,0.005
4781,0.085,0.010
4782,0.095,0.030
4783,0.100,0.040
4784,0.105,0.050
4785,0.110,0.070
4786,0.115,0.085
4787,0.120,0.100
4788,0.125,0.120
4789,0.130,0.130
4790,0.130,0.145
4791,0.135,0.155
4792,0.130,0.160
4793,0.130,0.170
4794,0.130,0.175
4795,0.130,0.185
4796,0.130,0.190
4797,0.130,0.200
4798,0.130,0.215
4799,0.130,0.225
4800,0.130,0.230
4801,0.130,0.225
4802,0.125,0.220
4803,0.115,0.210
4804,0.105,0.190
4805,0.100,0.170
4806,0.085,0.145
4807,0.075,0.125
4808,0.065,0.100
4809,0.055,0.085
4810,0.050,0.070
4811,0.045,0.065
4812,0.040,0.055
4813,0.030,0.045
4814,0.025,0.040
4815,0.025,0.035
4816,0.025,0.030
4817,0.020,0.025
4818,0.020,0.020
4819,0.015,0.015
4820,0.015,0.015
4821,0.015,0.010
4822,0.015,0.005
4823,0.015,0.005
4824,0.015,0.005
4825,0.015,0.005
4826,0.015,0.000
4827,0.015,0.000
4828,0.015,0.000
4829,0.015,0.000
4830,0.015,-0.005
4831,0.015,-0.010
4832,0.015,-0.010
4833,0.015,-0.010
4834,0.015,-0.015
4835,0.015,-0.015
4836,0.010,-0.020
4837,0.010,-0.020
4838,0.010,-0.020
4839,0.015,-0.015
4840,0.015,-0.010
4841,0.015,-0.010
4842,0.015,-0.010
4843,0.015,-0.010
4844,0.015,-0.010
4845,0.015,-0.010
4846,0.015,-0.010
4847,0.015,-0.010
4848,0.015,-0.010
4849,0.015,-0.010
4850,0.015,-0.010
4851,0.015,-0.010
4852,0.015,-0.005
4853,0.015,-0.005
4854,0.015,0.000
4855,0.015,0.000
4856,0.015,0.000
4857,0.015,0.000
4858,0.015,0.000
4859,0.025,0.005
4860,0.040,0.020
4861,0.060,0.045
4862,0.075,0.060
4863,0.070,0.070
4864,0.050,0.075
4865,0.030,0.085
4866,0.020,0.100
4867,0.015,0.100
4868,0.010,0.080
4869,0.005,0.050
4870,0.005,0.020
4871,0.005,0.000
4872,0.010,-0.025
4873,0.015,-0.035
4874,0.015,-0.040
4875,0.020,-0.045
4876,0.060,-0.060
4877,0.125,-0.065
4878,0.170,0.025
4879,0.130,0.310
4880,-0.035,0.735
4881,-0.265,1.010
4882,-0.440,0.835
4883,-0.505,0.325
4884,-0.450,-0.085
4885,-0.285,-0.200
4886,-0.105,-0.160
4887,0.005,-0.105
4888,0.050,-0.075
4889,0.060,-0.070
4890,0.065,-0.065
4891,0.065,-0.065
4892,0.065,-0.060
4893,0.065,-0.055
4894,0.065,-0.055
4895,0.065,-0.055
4896,0.065,-0.050
4897,0.070,-0.045
4898,0.075,-0.040
4899,0.075,-0.035
4900,0.080,-0.020
4901,0.080,-0.010
4902,0.080,0.000
4903,0.085,0.005
4904,0.090,0.020
4905,0.100,0.030
4906,0.105,0.045
4907,0.105,0.050
4908,0.105,0.065
4909,0.110,0.085
4910,0.120,0.105
4911,0.125,0.120
4912,0.125,0.130
4913,0.130,0.140
4914,0.130,0.150
4915,0.130,0.165
4916,0.130,0.175
4917,0.130,0.180
4918,0.130,0.185
4919,0.130,0.190
4920,0.130,0.190
4921,0.130,0.195
4922,0.130,0.205
4923,0.130,0.210
4924,0.130,0.210
4925,0.125,0.200
4926,0.115,0.190
4927,0.110,0.175
4928,0.105,0.160
4929,0.095,0.135
4930,0.085,0.105
4931,0.075,0.080
4932,0.065,0.065
4933,0.055,0.055
4934,0.045,0.045
4935,0.040,0.035
4936,0.030,0.030
4937,0.020,0.025
4938,0.015,0.020
4939,0.015,0.010
4940,0.015,0.005
4941,0.015,0.000
4942,0.015,0.000
4943,0.015,0.000
4944,0.015,-0.005
4945,0.015,-0.010
4946,0.015,-0.015
4947,0.015,-0.020
4948,0.015,-0.020
4949,0.015,-0.025
4950,0.015,-0.025
4951,0.015,-0.025
4952,0.015,-0.030
4953,0.015,-0.035
4954,0.015,-0.035
4955,0.015,-0.035
4956,0.015,-0.035
4957,0.015,-0.035
4958,0.015,-0.030
4959,0.015,-0.030
4960,0.015,-0.035
4961,0.015,-0.040
4962,0.015,-0.030
4963,0.015,-0.030
4964,0.015,-0.030
4965,0.015,-0.035
4966,0.015,-0.035
4967,0.015,-0.030
4968,0.015,-0.025
4969,0.015,-0.025
4970,0.015,-0.025
4971,0.015,-0.020
4972,0.015,-0.020
4973,0.015,-0.015
4974,0.015,-0.010
4975,0.015,-0.010
4976,0.015,-0.010
4977,0.015,-0.010
4978,0.015,-0.010
4979,0.015,-0.005
4980,0.015,-0.005
4981,0.015,0.000
4982,0.020,0.000
4983,0.035,0.005
4984,0.055,0.025
4985,0.070,0.045
4986,0.070,0.050
4987,0.050,0.060
4988,0.025,0.080
4989,0.010,0.095
4990,0.005,0.090
4991,0.000,0.075
4992,-0.005,0.050
4993,0.000,0.025
4994,0.000,0.000
4995,0.005,-0.020
4996,0.005,-0.035
4997,0.005,-0.045
4998,0.005,-0.050
4999,0.035,-0.065
5000,0.095,-0.090
5001,0.155,-0.030
5002,0.150,0.200
5003,0.010,0.615
5004,-0.230,0.980
5005,-0.430,0.940
5006,-0.520,0.470
5007,-0.495,0.000
5008,-0.355,-0.195
5009,-0.160,-0.180
5010,-0.025,-0.125
5011,0.030,-0.100
5012,0.050,-0.085
5013,0.055,-0.085
5014,0.055,-0.080
5015,0.055,-0.075
5016,0.055,-0.070
5017,0.060,-0.070
5018,0.060,-0.070
5019,0.065,-0.065
5020,0.065,-0.060
5021,0.065,-0.055
5022,0.070,-0.045
5023,0.070,-0.030
5024,0.075,-0.020
5025,0.080,-0.010
5026,0.080,0.000
5027,0.085,0.010
5028,0.090,0.020
5029,0.095,0.035
5030,0.100,0.050
5031,0.105,0.060
5032,0.105,0.080
5033,0.110,0.095
5034,0.115,0.110
5035,0.115,0.125
5036,0.125,0.135
5037,0.125,0.145
5038,0.120,0.160
5039,0.120,0.165
5040,0.115,0.170
5041,0.115,0.175
5042,0.110,0.175
5043,0.105,0.185
5044,0.105,0.190
5045,0.105,0.195
5046,0.105,0.200
5047,0.105,0.200
5048,0.105,0.200
5049,0.100,0.190
5050,0.090,0.175
5051,0.080,0.150
5052,0.070,0.130
5053,0.060,0.110
5054,0.050,0.085
5055,0.040,0.065
5056,0.030,0.055
5057,0.020,0.045
5058,0.015,0.035
5059,0.015,0.030
5060,0.010,0.020
5061,0.010,0.015
5062,0.005,0.010
5063,0.000,0.005
5064,0.000,0.000
5065,0.000,0.000
5066,0.000,0.000
5067,0.000,-0.005
5068,-0.005,-0.010
5069,-0.005,-0.015
5070,-0.005,-0.015
5071,-0.005,-0.020
5072,-0.010,-0.025
5073,-0.020,-0.030
5074,-0.020,-0.035
5075,-0.020,-0.035
5076,-0.020,-0.040
5077,-0.020,-0.045
5078,-0.020,-0.045
5079,-0.020,-0.045
5080,-0.020,-0.045
5081,-0.020,-0.045
5082,-0.020,-0.045
5083,-0.020,-0.045
5084,-0.020,-0.040
5085,-0.020,-0.040
5086,-0.020,-0.040
5087,-0.020,-0.040
5088,-0.020,-0.040
5089,-0.020,-0.040
5090,-0.020,-0.045
5091,-0.020,-0.045
5092,-0.020,-0.045
5093,-0.020,-0.045
5094,-0.020,-0.045
5095,-0.020,-0.045
5096,-0.020,-0.045
5097,-0.020,-0.040
5098,-0.020,-0.040
5099,-0.020,-0.040
5100,-0.020,-0.035
5101,-0.015,-0.030
5102,-0.010,-0.030
5103,-0.010,-0.035
5104,-0.010,-0.030
5105,-0.005,-0.025
5106,0.000,-0.015
5107,0.010,0.000
5108,0.025,0.010
5109,0.035,0.025
5110,0.030,0.035
5111,0.015,0.045
5112,0.000,0.055
5113,0.000,0.060
5114,-0.015,0.055
5115,-0.025,0.035
5116,-0.030,0.015
5117,-0.025,0.000
5118,-0.020,-0.030
5119,-0.020,-0.050
5120,-0.020,-0.060
5121,-0.020,-0.060
5122,-0.015,-0.070
5123,0.020,-0.095
5124,0.085,-0.100
5125,0.130,0.015
5126,0.075,0.340
5127,-0.130,0.795
5128,-0.370,1.045
5129,-0.515,0.795
5130,-0.555,0.245
5131,-0.475,-0.140
5132,-0.300,-0.225
5133,-0.125,-0.175
5134,-0.020,-0.130
5135,0.005,-0.115
5136,0.015,-0.115
5137,0.015,-0.110
5138,0.015,-0.105
5139,0.015,-0.100
5140,0.015,-0.100
5141,0.015,-0.100
5142,0.015,-0.095
5143,0.015,-0.090
5144,0.015,-0.085
5145,0.020,-0.080
5146,0.025,-0.070
5147,0.025,-0.060
5148,0.025,-0.045
5149,0.025,-0.030
5150,0.025,-0.015
5151,0.035,0.000
5152,0.045,0.000
5153,0.050,0.015
5154,0.050,0.025
5155,0.055,0.040
5156,0.065,0.055
5157,0.075,0.060
5158,0.075,0.075
5159,0.080,0.095
5160,0.080,0.110
5161,0.080,0.120
5162,0.080,0.130
5163,0.080,0.140
5164,0.080,0.150
5165,0.080,0.155
5166,0.080,0.155
5167,0.080,0.165
5168,0.080,0.175
5169,0.080,0.180
5170,0.080,0.185
5171,0.080,0.190
5172,0.075,0.185
5173,0.070,0.175
5174,0.060,0.160
5175,0.050,0.140
5176,0.035,0.110
5177,0.025,0.085
5178,0.020,0.065
5179,0.015,0.050
5180,0.015,0.040
5181,0.010,0.030
5182,0.005,0.025
5183,0.000,0.015
5184,0.000,0.015
5185,0.000,0.010
5186,0.000,0.000
5187,-0.005,0.000
5188,-0.010,0.000
5189,-0.010,-0.005
5190,-0.015,-0.010
5191,-0.020,-0.010
5192,-0.020,-0.015
5193,-0.020,-0.020
5194,-0.020,-0.020
5195,-0.020,-0.030
5196,-0.020,-0.035
5197,-0.020,-0.040
5198,-0.020,-0.040
5199,-0.020,-0.040
5200,-0.025,-0.040
5201,-0.020,-0.040
5202,-0.020,-0.040
5203,-0.025,-0.045
5204,-0.020,-0.040
5205,-0.020,-0.040
5206,-0.020,-0.040
5207,-0.020,-0.040
5208,-0.020,-0.045
5209,-0.020,-0.040
5210,-0.020,-0.040
5211,-0.020,-0.035
5212,-0.020,-0.030
5213,-0.015,-0.030
5214,-0.010,-0.035
5215,-0.010,-0.035
5216,-0.010,-0.035
5217,-0.005,-0.035
5218,-0.005,-0.035
5219,0.000,-0.035
5220,0.000,-0.030
5221,0.000,-0.025
5222,0.000,-0.025
5223,0.000,-0.025
5224,0.000,-0.030
5225,0.000,-0.035
5226,0.000,-0.035
5227,0.000,-0.030
5228,0.000,-0.025
5229,0.005,-0.015
5230,0.010,-0.005
5231,0.025,0.005
5232,0.040,0.020
5233,0.055,0.035
5234,0.055,0.045
5235,0.035,0.055
5236,0.020,0.060
5237,0.010,0.070
5238,0.005,0.065
5239,0.000,0.045
5240,0.000,0.030
5241,0.000,0.005
5242,0.000,-0.015
5243,0.000,-0.040
5244,0.000,-0.045
5245,0.000,-0.045
5246,0.005,-0.045
5247,0.035,-0.065
5248,0.105,-0.080
5249,0.160,0.000
5250,0.140,0.275
5251,-0.035,0.720
5252,-0.290,1.055
5253,-0.460,0.905
5254,-0.515,0.360
5255,-0.460,-0.080
5256,-0.295,-0.195
5257,-0.110,-0.150
5258,-0.005,-0.105
5259,0.035,-0.085
5260,0.050,-0.070
5261,0.055,-0.060
5262,0.055,-0.055
5263,0.055,-0.055
5264,0.055,-0.055
5265,0.060,-0.055
5266,0.060,-0.055
5267,0.065,-0.050
5268,0.065,-0.040
5269,0.065,-0.035
5270,0.065,-0.030
5271,0.070,-0.025
5272,0.075,-0.015
5273,0.075,-0.005
5274,0.080,0.005
5275,0.080,0.015
5276,0.090,0.030
5277,0.100,0.040
5278,0.105,0.050
5279,0.110,0.065
5280,0.115,0.080
5281,0.115,0.095
5282,0.125,0.110
5283,0.130,0.125
5284,0.135,0.140
5285,0.135,0.150
5286,0.130,0.165
5287,0.130,0.175
5288,0.130,0.175
5289,0.130,0.175
5290,0.130,0.185
5291,0.130,0.190
5292,0.130,0.200
5293,0.130,0.210
5294,0.130,0.215
5295,0.130,0.215
5296,0.125,0.210
5297,0.115,0.200
5298,0.110,0.185
5299,0.105,0.165
5300,0.090,0.140
5301,0.075,0.115
5302,0.065,0.095
5303,0.055,0.080
5304,0.050,0.060
5305,0.045,0.050
5306,0.035,0.045
5307,0.030,0.040
5308,0.025,0.035
5309,0.025,0.025
5310,0.020,0.015
5311,0.015,0.015
5312,0.015,0.010
5313,0.015,0.005
5314,0.015,0.005
5315,0.015,0.000
5316,0.015,0.000
5317,0.015,0.000
5318,0.015,-0.005
5319,0.015,-0.010
5320,0.015,-0.010
5321,0.015,-0.015
5322,0.015,-0.015
5323,0.015,-0.020
5324,0.015,-0.020
5325,0.015,-0.020
5326,0.015,-0.025
5327,0.015,-0.025
5328,0.015,-0.025
5329,0.010,-0.025
5330,0.005,-0.025
5331,0.005,-0.025
5332,0.005,-0.025
5333,0.010,-0.025
5334,0.010,-0.025
5335,0.010,-0.030
5336,0.010,-0.030
5337,0.015,-0.030
5338,0.015,-0.030
5339,0.015,-0.025
5340,0.015,-0.025
5341,0.015,-0.025
5342,0.015,-0.020
5343,0.015,-0.020
5344,0.015,-0.020
5345,0.015,-0.020
5346,0.015,-0.020
5347,0.015,-0.020
5348,0.015,-0.020
5349,0.015,-0.020
5350,0.015,-0.020
5351,0.015,-0.015
5352,0.015,-0.010
5353,0.015,-0.010
5354,0.015,0.000
5355,0.025,0.000
5356,0.050,0.010
5357,0.065,0.025
5358,0.070,0.040
5359,0.060,0.050
5360,0.035,0.065
5361,0.025,0.075
5362,0.015,0.080
5363,0.005,0.065
5364,0.000,0.040
5365,0.000,0.015
5366,0.005,-0.005
5367,0.010,-0.030
5368,0.010,-0.045
5369,0.010,-0.045
5370,0.015,-0.050
5371,0.035,-0.065
5372,0.090,-0.090
5373,0.160,-0.055
5374,0.175,0.135
5375,0.055,0.545
5376,-0.185,0.985
5377,-0.405,1.030
5378,-0.515,0.545
5379,-0.510,0.005
5380,-0.370,-0.210
5381,-0.170,-0.190
5382,-0.025,-0.130
5383,0.030,-0.100
5384,0.050,-0.090
5385,0.055,-0.080
5386,0.055,-0.075
5387,0.055,-0.070
5388,0.055,-0.070
5389,0.060,-0.070
5390,0.060,-0.070
5391,0.055,-0.070
5392,0.055,-0.065
5393,0.060,-0.055
5394,0.065,-0.045
5395,0.065,-0.035
5396,0.070,-0.025
5397,0.075,-0.010
5398,0.080,-0.005
5399,0.080,0.000
5400,0.080,0.015
5401,0.090,0.030
5402,0.100,0.040
5403,0.105,0.055
5404,0.105,0.070
5405,0.110,0.080
5406,0.115,0.095
5407,0.120,0.110
5408,0.125,0.125
5409,0.130,0.135
5410,0.130,0.150
5411,0.130,0.155
5412,0.130,0.165
5413,0.130,0.170
5414,0.125,0.175
5415,0.120,0.180
5416,0.110,0.190
5417,0.110,0.200
5418,0.115,0.205
5419,0.115,0.205
5420,0.110,0.210
5421,0.110,0.200
5422,0.105,0.185
5423,0.100,0.160
5424,0.085,0.135
5425,0.075,0.110
5426,0.065,0.090
5427,0.050,0.070
5428,0.040,0.050
5429,0.030,0.040
5430,0.025,0.035
5431,0.020,0.025
5432,0.015,0.020
5433,0.015,0.015
5434,0.015,0.005
5435,0.015,0.000
5436,0.015,0.000
5437,0.015,0.000
5438,0.010,-0.005
5439,0.010,-0.010
5440,0.005,-0.010
5441,0.000,-0.015
5442,0.000,-0.025
5443,0.000,-0.025
5444,0.000,-0.025
5445,0.000,-0.030
5446,0.000,-0.035
5447,0.000,-0.040
5448,0.000,-0.040
5449,0.000,-0.045
5450,0.000,-0.045
5451,0.000,-0.045
5452,0.000,-0.045
5453,0.000,-0.045
5454,0.000,-0.045
5455,0.000,-0.045
5456,0.000,-0.045
5457,0.000,-0.050
5458,0.000,-0.050
5459,0.000,-0.045
5460,0.000,-0.045
5461,0.000,-0.040
5462,0.000,-0.040
5463,0.000,-0.040
5464,0.000,-0.040
5465,0.000,-0.045
5466,0.000,-0.040
5467,0.000,-0.040
5468,0.000,-0.045
5469,0.000,-0.040
5470,0.000,-0.035
5471,0.000,-0.035
5472,0.000,-0.035
5473,0.000,-0.030
5474,0.000,-0.030
5475,0.000,-0.035
5476,0.000,-0.030
5477,0.000,-0.025
5478,0.005,-0.020
5479,0.015,-0.010
5480,0.030,0.000
5481,0.045,0.015
5482,0.055,0.025
5483,0.045,0.035
5484,0.025,0.045
5485,0.010,0.060
5486,0.005,0.070
5487,0.000,0.060
5488,-0.005,0.030
5489,-0.010,0.005
5490,-0.005,-0.015
5491,0.000,-0.045
5492,0.000,-0.065
5493,0.000,-0.070
5494,0.000,-0.070
5495,0.015,-0.085
5496,0.060,-0.105
5497,0.130,-0.080
5498,0.155,0.080
5499,0.065,0.455
5500,-0.160,0.895
5501,-0.405,1.035
5502,-0.525,0.645
5503,-0.540,0.065
5504,-0.430,-0.225
5505,-0.220,-0.225
5506,-0.050,-0.155
5507,0.020,-0.120
5508,0.040,-0.105
5509,0.045,-0.095
5510,0.050,-0.095
5511,0.055,-0.095
5512,0.055,-0.095
5513,0.055,-0.090
5514,0.055,-0.085
5515,0.055,-0.085
5516,0.055,-0.075
5517,0.055,-0.070
5518,0.055,-0.065
5519,0.055,-0.055
5520,0.055,-0.040
5521,0.060,-0.025
5522,0.065,-0.015
5523,0.070,0.000
5524,0.075,0.000
5525,0.080,0.010
5526,0.080,0.025
5527,0.080,0.040
5528,0.085,0.055
5529,0.095,0.070
5530,0.100,0.085
5531,0.105,0.100
5532,0.105,0.115
5533,0.105,0.125
5534,0.105,0.135
5535,0.100,0.140
5536,0.100,0.145
5537,0.095,0.155
5538,0.090,0.165
5539,0.085,0.165
5540,0.080,0.175
5541,0.080,0.180
5542,0.080,0.185
5543,0.080,0.190
5544,0.080,0.185
5545,0.075,0.180
5546,0.070,0.165
5547,0.070,0.150
5548,0.060,0.120
5549,0.050,0.100
5550,0.040,0.075
5551,0.025,0.055
5552,0.020,0.040
5553,0.015,0.025
5554,0.010,0.015
5555,0.005,0.010
5556,0.000,0.005
5557,0.000,0.000
5558,0.000,0.000
5559,-0.005,0.000
5560,-0.010,-0.005
5561,-0.015,-0.010
5562,-0.015,-0.015
5563,-0.020,-0.025
5564,-0.020,-0.035
5565,-0.020,-0.040
5566,-0.020,-0.045
5567,-0.020,-0.050
5568,-0.020,-0.055
5569,-0.020,-0.060
5570,-0.020,-0.060
5571,-0.025,-0.065
5572,-0.030,-0.070
5573,-0.030,-0.070
5574,-0.030,-0.070
5575,-0.030,-0.070
5576,-0.035,-0.070
5577,-0.030,-0.070
5578,-0.025,-0.070
5579,-0.020,-0.070
5580,-0.020,-0.070
5581,-0.025,-0.070
5582,-0.020,-0.080
5583,-0.020,-0.075
5584,-0.020,-0.075
5585,-0.025,-0.075
5586,-0.025,-0.070
5587,-0.025,-0.070
5588,-0.020,-0.070
5589,-0.020,-0.075
5590,-0.020,-0.075
5591,-0.020,-0.075
5592,-0.020,-0.075
5593,-0.020,-0.070
5594,-0.020,-0.070
5595,-0.020,-0.070
5596,-0.020,-0.070
5597,-0.020,-0.070
5598,-0.020,-0.070
5599,-0.020,-0.070
5600,-0.020,-0.070
5601,-0.020,-0.065
5602,-0.010,-0.060
5603,0.000,-0.045
5604,0.005,-0.035
5605,0.015,-0.015
5606,0.025,0.000
5607,0.015,0.005
5608,0.005,0.010
5609,0.000,0.020
5610,-0.010,0.025
5611,-0.025,0.025
5612,-0.035,0.010
5613,-0.045,-0.010
5614,-0.035,-0.040
5615,-0.025,-0.070
5616,-0.025,-0.090
5617,-0.025,-0.100
5618,-0.025,-0.105
5619,-0.010,-0.115
5620,0.025,-0.135
5621,0.085,-0.110
5622,0.115,0.050
5623,0.030,0.395
5624,-0.180,0.825
5625,-0.420,1.005
5626,-0.540,0.670
5627,-0.555,0.080
5628,-0.455,-0.250
5629,-0.260,-0.275
5630,-0.090,-0.205
5631,0.000,-0.165
5632,0.015,-0.160
5633,0.015,-0.150
5634,0.015,-0.145
5635,0.015,-0.140
5636,0.015,-0.140
5637,0.015,-0.135
5638,0.015,-0.135
5639,0.015,-0.125
5640,0.015,-0.125
5641,0.015,-0.120
5642,0.015,-0.110
5643,0.015,-0.095
5644,0.020,-0.080
5645,0.025,-0.065
5646,0.025,-0.050
5647,0.025,-0.040
5648,0.030,-0.025
5649,0.040,-0.005
5650,0.045,0.000
5651,0.050,0.010
5652,0.055,0.020
5653,0.060,0.030
5654,0.065,0.045
5655,0.075,0.060
5656,0.080,0.070
5657,0.080,0.080
5658,0.080,0.095
5659,0.080,0.105
5660,0.080,0.115
5661,0.080,0.120
5662,0.080,0.125
5663,0.080,0.135
5664,0.080,0.140
5665,0.080,0.145
5666,0.080,0.155
5667,0.080,0.165
5668,0.075,0.165
5669,0.070,0.160
5670,0.065,0.140
5671,0.055,0.120
5672,0.040,0.095
5673,0.030,0.070
5674,0.020,0.045
5675,0.020,0.040
5676,0.015,0.025
5677,0.010,0.015
5678,0.010,0.005
5679,0.005,0.000
5680,0.000,0.000
5681,0.000,0.000
5682,0.000,-0.005
5683,0.000,-0.010
5684,0.000,-0.015
5685,0.000,-0.010
5686,-0.005,-0.010
5687,-0.005,-0.010
5688,-0.005,-0.010
5689,-0.005,-0.015
5690,-0.005,-0.020
5691,-0.005,-0.025
5692,-0.005,-0.030
5693,-0.005,-0.030
5694,-0.005,-0.035
5695,-0.005,-0.040
5696,-0.005,-0.045
5697,-0.005,-0.050
5698,-0.005,-0.055
5699,-0.010,-0.055
5700,-0.010,-0.060
5701,-0.005,-0.060
5702,-0.005,-0.060
5703,-0.005,-0.055
5704,-0.005,-0.055
5705,-0.005,-0.055
5706,-0.005,-0.055
5707,0.000,-0.060
5708,0.000,-0.055
5709,0.000,-0.055
5710,0.000,-0.055
5711,0.000,-0.050
5712,0.000,-0.045
5713,0.000,-0.045
5714,0.000,-0.045
5715,0.000,-0.040
5716,0.000,-0.040
5717,0.000,-0.040
5718,0.000,-0.040
5719,0.000,-0.030
5720,0.000,-0.030
5721,0.005,-0.035
5722,0.010,-0.030
5723,0.010,-0.025
5724,0.010,-0.020
5725,0.010,-0.015
5726,0.015,-0.010
5727,0.025,0.000
5728,0.045,0.015
5729,0.065,0.030
5730,0.065,0.045
5731,0.045,0.050
5732,0.025,0.060
5733,0.015,0.075
5734,0.010,0.075
5735,0.005,0.060
5736,0.000,0.035
5737,0.000,0.010
5738,0.005,-0.005
5739,0.010,-0.025
5740,0.010,-0.040
5741,0.010,-0.050
5742,0.015,-0.055
5743,0.040,-0.070
5744,0.100,-0.080
5745,0.160,0.000
5746,0.140,0.245
5747,0.000,0.650
5748,-0.235,0.985
5749,-0.425,0.925
5750,-0.500,0.435
5751,-0.470,-0.045
5752,-0.320,-0.205
5753,-0.125,-0.165
5754,0.000,-0.110
5755,0.040,-0.085
5756,0.050,-0.070
5757,0.055,-0.065
5758,0.060,-0.060
5759,0.055,-0.060
5760,0.055,-0.065
5761,0.055,-0.060
5762,0.060,-0.055
5763,0.065,-0.055
5764,0.065,-0.050
5765,0.065,-0.040
5766,0.070,-0.030
5767,0.070,-0.025
5768,0.075,-0.015
5769,0.080,-0.005
5770,0.080,0.000
5771,0.085,0.015
5772,0.095,0.025
5773,0.100,0.040
5774,0.105,0.055
5775,0.105,0.065
5776,0.110,0.080
5777,0.120,0.095
5778,0.125,0.115
5779,0.130,0.130
5780,0.135,0.140
5781,0.135,0.155
5782,0.130,0.165
5783,0.130,0.175
5784,0.130,0.180
5785,0.130,0.185
5786,0.130,0.190
5787,0.130,0.200
5788,0.130,0.205
5789,0.130,0.210
5790,0.130,0.220
5791,0.130,0.220
5792,0.125,0.215
5793,0.120,0.205
5794,0.110,0.190
5795,0.105,0.170
5796,0.095,0.150
5797,0.080,0.120
5798,0.070,0.095
5799,0.055,0.075
5800,0.050,0.065
5801,0.040,0.050
5802,0.035,0.045
5803,0.030,0.045
5804,0.030,0.040
5805,0.025,0.030
5806,0.025,0.020
5807,0.020,0.015
5808,0.020,0.005
5809,0.015,0.000
5810,0.015,0.000
5811,0.015,0.000
5812,0.015,0.000
5813,0.015,-0.010
5814,0.015,-0.015
5815,0.015,-0.020
5816,0.015,-0.020
5817,0.015,-0.020
5818,0.015,-0.020
5819,0.015,-0.025
5820,0.015,-0.030
5821,0.015,-0.030
5822,0.015,-0.030
5823,0.015,-0.030
5824,0.010,-0.030
5825,0.010,-0.035
5826,0.005,-0.030
5827,0.005,-0.030
5828,0.010,-0.030
5829,0.010,-0.025
5830,0.010,-0.025
5831,0.010,-0.025
5832,0.010,-0.025
5833,0.010,-0.020
5834,0.010,-0.020
5835,0.010,-0.020
5836,0.010,-0.020
5837,0.010,-0.020
5838,0.015,-0.020
5839,0.015,-0.020
5840,0.015,-0.020
5841,0.015,-0.020
5842,0.015,-0.020
5843,0.015,-0.015
5844,0.015,-0.010
5845,0.015,-0.010
5846,0.015,-0.010
5847,0.015,-0.010
5848,0.015,-0.010
5849,0.015,0.000
5850,0.030,0.005
5851,0.050,0.020
5852,0.070,0.035
5853,0.070,0.050
5854,0.050,0.060
5855,0.030,0.075
5856,0.020,0.090
5857,0.010,0.090
5858,0.005,0.075
5859,0.000,0.045
5860,0.000,0.020
5861,0.005,-0.005
5862,0.010,-0.025
5863,0.005,-0.035
5864,0.005,-0.040
5865,0.015,-0.050
5866,0.040,-0.065
5867,0.100,-0.080
5868,0.160,-0.020
5869,0.155,0.195
5870,0.025,0.590
5871,-0.195,0.950
5872,-0.405,0.945
5873,-0.510,0.505
5874,-0.500,0.005
5875,-0.365,-0.210
5876,-0.165,-0.195
5877,-0.020,-0.130
5878,0.030,-0.095
5879,0.050,-0.080
5880,0.055,-0.080
5881,0.055,-0.075
5882,0.055,-0.070
5883,0.060,-0.065
5884,0.065,-0.065
5885,0.060,-0.060
5886,0.060,-0.050
5887,0.060,-0.040
5888,0.065,-0.040
5889,0.065,-0.035
5890,0.065,-0.030
5891,0.070,-0.020
5892,0.075,-0.010
5893,0.080,0.000
5894,0.080,0.010
5895,0.085,0.020
5896,0.090,0.035
5897,0.095,0.050
5898,0.100,0.070
5899,0.105,0.080
5900,0.105,0.090
5901,0.110,0.105
5902,0.115,0.125
5903,0.120,0.140
5904,0.125,0.150
5905,0.130,0.155
5906,0.130,0.160
5907,0.130,0.165
5908,0.130,0.170
5909,0.130,0.180
5910,0.125,0.185
5911,0.120,0.195
5912,0.120,0.200
5913,0.120,0.205
5914,0.120,0.210
5915,0.115,0.210
5916,0.105,0.200
5917,0.100,0.185
5918,0.095,0.165
5919,0.080,0.145
5920,0.070,0.120
5921,0.060,0.095
5922,0.045,0.075
5923,0.035,0.060
5924,0.025,0.050
5925,0.020,0.035
5926,0.015,0.025
5927,0.015,0.020
5928,0.015,0.015
5929,0.015,0.010
5930,0.010,0.005
5931,0.010,0.005
5932,0.010,0.000
5933,0.005,0.000
5934,0.005,-0.005
5935,0.000,-0.010
5936,0.000,-0.015
5937,0.000,-0.020
5938,0.000,-0.020
5939,0.000,-0.025
5940,0.000,-0.030
5941,0.000,-0.035
5942,0.000,-0.035
5943,0.000,-0.040
5944,0.000,-0.045
5945,0.000,-0.050
5946,0.000,-0.045
5947,0.000,-0.045
5948,0.000,-0.045
5949,0.000,-0.050
5950,0.000,-0.045
5951,0.000,-0.045
5952,0.000,-0.045
5953,0.000,-0.045
5954,0.000,-0.045
5955,0.000,-0.040
5956,0.000,-0.040
5957,0.000,-0.040
5958,0.000,-0.040
5959,0.000,-0.040
5960,0.000,-0.040
5961,0.000,-0.035
5962,0.000,-0.030
5963,0.000,-0.030
5964,0.005,-0.035
5965,0.005,-0.035
5966,0.000,-0.035
5967,0.000,-0.035
5968,0.000,-0.035
5969,0.000,-0.030
5970,0.005,-0.025
5971,0.010,-0.020
5972,0.015,-0.010
5973,0.025,0.000
5974,0.035,0.015
5975,0.055,0.025
5976,0.060,0.040
5977,0.045,0.045
5978,0.025,0.050
5979,0.015,0.065
5980,0.010,0.070
5981,0.000,0.055
5982,0.000,0.035
5983,-0.005,0.010
5984,0.000,-0.015
5985,0.000,-0.045
5986,0.000,-0.055
5987,0.000,-0.060
5988,0.005,-0.060
5989,0.025,-0.075
5990,0.075,-0.090
5991,0.135,-0.050
5992,0.140,0.145
5993,0.025,0.525
5994,-0.200,0.915
5995,-0.415,0.965
5996,-0.530,0.570
5997,-0.525,0.060
5998,-0.405,-0.195
5999,-0.210,-0.205
6000,-0.050,-0.145
6001,0.015,-0.110
6002,0.035,-0.100
6003,0.040,-0.095
6004,0.040,-0.090
6005,0.035,-0.085
6006,0.035,-0.085
6007,0.035,-0.085
6008,0.035,-0.085
6009,0.040,-0.080
6010,0.040,-0.075
6011,0.045,-0.070
6012,0.045,-0.060
6013,0.045,-0.050
6014,0.050,-0.035
6015,0.055,-0.025
6016,0.055,-0.015
6017,0.055,0.000
6018,0.055,0.005
6019,0.060,0.020
6020,0.065,0.030
6021,0.070,0.045
6022,0.075,0.055
6023,0.080,0.065
6024,0.080,0.080
6025,0.085,0.090
6026,0.090,0.105
6027,0.095,0.115
6028,0.100,0.130
6029,0.095,0.140
6030,0.095,0.145
6031,0.100,0.150
6032,0.095,0.155
6033,0.090,0.160
6034,0.090,0.170
6035,0.090,0.175
6036,0.090,0.180
6037,0.085,0.185
6038,0.080,0.180
6039,0.075,0.175
6040,0.070,0.160
6041,0.060,0.145
6042,0.045,0.120
6043,0.035,0.095
6044,0.025,0.070
6045,0.015,0.050
6046,0.015,0.035
6047,0.010,0.020
6048,0.005,0.010
6049,0.000,0.005
6050,0.000,0.000
6051,0.000,0.000
6052,-0.010,-0.005
6053,-0.015,-0.010
6054,-0.015,-0.015
6055,-0.015,-0.025
6056,-0.015,-0.035
6057,-0.020,-0.040
6058,-0.020,-0.045
6059,-0.020,-0.045
6060,-0.020,-0.050
6061,-0.020,-0.055
6062,-0.020,-0.060
6063,-0.020,-0.065
6064,-0.020,-0.070
6065,-0.020,-0.075
6066,-0.020,-0.080
6067,-0.020,-0.085
6068,-0.020,-0.085
6069,-0.025,-0.080
6070,-0.030,-0.080
6071,-0.030,-0.085
6072,-0.030,-0.085
6073,-0.030,-0.085
6074,-0.030,-0.085
6075,-0.030,-0.085
6076,-0.030,-0.085
6077,-0.030,-0.090
6078,-0.030,-0.080
6079,-0.030,-0.075
6080,-0.030,-0.075
6081,-0.030,-0.080
6082,-0.025,-0.080
6083,-0.025,-0.080
6084,-0.025,-0.080
6085,-0.025,-0.080
6086,-0.025,-0.080
6087,-0.025,-0.080
6088,-0.025,-0.080
6089,-0.020,-0.080
6090,-0.020,-0.080
6091,-0.020,-0.080
6092,-0.020,-0.080
6093,-0.020,-0.080
6094,-0.015,-0.080
6095,-0.010,-0.070
6096,0.000,-0.055
6097,0.010,-0.035
6098,0.025,-0.010
6099,0.020,0.000
6100,0.010,0.000
6101,0.000,0.010
6102,0.000,0.010
6103,-0.015,0.015
6104,-0.030,0.005
6105,-0.040,-0.005
6106,-0.045,-0.035
6107,-0.035,-0.070
6108,-0.025,-0.105
6109,-0.025,-0.110
6110,-0.025,-0.115
6111,-0.025,-0.120
6112,0.000,-0.140
6113,0.055,-0.155
6114,0.110,-0.090
6115,0.100,0.140
6116,-0.040,0.550
6117,-0.280,0.915
6118,-0.470,0.885
6119,-0.550,0.420
6120,-0.525,-0.060
6121,-0.380,-0.265
6122,-0.190,-0.255
6123,-0.055,-0.200
6124,0.000,-0.170
6125,0.010,-0.165
6126,0.015,-0.160
6127,0.015,-0.160
6128,0.015,-0.155
6129,0.015,-0.150
6130,0.015,-0.150
6131,0.015,-0.150
6132,0.015,-0.145
6133,0.015,-0.135
6134,0.015,-0.130
6135,0.020,-0.120
6136,0.025,-0.110
6137,0.025,-0.090
6138,0.025,-0.080
6139,0.025,-0.065
6140,0.030,-0.045
6141,0.040,-0.030
6142,0.050,-0.015
6143,0.055,0.000
6144,0.055,0.005
6145,0.055,0.015
6146,0.060,0.025
6147,0.070,0.040
6148,0.075,0.045
6149,0.080,0.055
6150,0.085,0.070
6151,0.090,0.075
6152,0.090,0.090
6153,0.090,0.100
6154,0.085,0.105
6155,0.085,0.110
6156,0.085,0.120
6157,0.085,0.130
6158,0.085,0.135
6159,0.085,0.145
6160,0.085,0.150
6161,0.080,0.155
6162,0.080,0.150
6163,0.075,0.140
6164,0.065,0.120
6165,0.050,0.095
6166,0.040,0.075
6167,0.030,0.055
6168,0.025,0.045
6169,0.020,0.030
6170,0.015,0.020
6171,0.015,0.015
6172,0.015,0.010
6173,0.015,0.000
6174,0.015,0.000
6175,0.015,0.000
6176,0.015,-0.005
6177,0.010,-0.010
6178,0.005,-0.010
6179,0.005,-0.015
6180,0.000,-0.020
6181,0.000,-0.020
6182,0.000,-0.030
6183,0.000,-0.030
6184,0.000,-0.035
6185,0.000,-0.035
6186,0.000,-0.035
6187,0.000,-0.035
6188,0.000,-0.040
6189,0.000,-0.045
6190,0.000,-0.050
6191,0.000,-0.055
6192,0.000,-0.055
6193,0.000,-0.055
6194,0.000,-0.055
6195,0.000,-0.055
6196,0.000,-0.055
6197,0.000,-0.055
6198,0.000,-0.050
6199,0.000,-0.050
6200,0.000,-0.055
6201,0.000,-0.050
6202,0.000,-0.050
6203,0.000,-0.050
6204,0.000,-0.045
6205,0.005,-0.040
6206,0.005,-0.040
6207,0.005,-0.030
6208,0.005,-0.030
6209,0.005,-0.030
6210,0.005,-0.035
6211,0.005,-0.030
6212,0.010,-0.025
6213,0.010,-0.025
6214,0.015,-0.025
6215,0.015,-0.025
6216,0.015,-0.020
6217,0.015,-0.015
6218,0.015,-0.005
6219,0.025,0.000
6220,0.045,0.015
6221,0.065,0.035
6222,0.065,0.045
6223,0.050,0.050
6224,0.025,0.065
6225,0.015,0.080
6226,0.005,0.075
6227,0.000,0.060
6228,0.000,0.040
6229,0.005,0.015
6230,0.005,0.000
6231,0.010,-0.025
6232,0.010,-0.035
6233,0.010,-0.040
6234,0.010,-0.045
6235,0.035,-0.060
6236,0.090,-0.080
6237,0.155,-0.020
6238,0.155,0.205
6239,0.020,0.615
6240,-0.210,0.985
6241,-0.405,0.945
6242,-0.495,0.480
6243,-0.475,0.000
6244,-0.335,-0.185
6245,-0.145,-0.160
6246,-0.020,-0.105
6247,0.035,-0.080
6248,0.050,-0.065
6249,0.055,-0.060
6250,0.055,-0.055
6251,0.055,-0.055
6252,0.055,-0.055
6253,0.055,-0.055
6254,0.055,-0.050
6255,0.060,-0.045
6256,0.065,-0.040
6257,0.065,-0.035
6258,0.070,-0.025
6259,0.075,-0.015
6260,0.075,-0.005
6261,0.080,0.000
6262,0.080,0.010
6263,0.080,0.020
6264,0.090,0.035
6265,0.100,0.045
6266,0.105,0.055
6267,0.105,0.075
6268,0.110,0.095
6269,0.115,0.110
6270,0.125,0.120
6271,0.130,0.130
6272,0.135,0.145
6273,0.130,0.150
6274,0.130,0.165
6275,0.130,0.175
6276,0.130,0.180
6277,0.130,0.185
6278,0.130,0.195
6279,0.130,0.200
6280,0.130,0.210
6281,0.130,0.220
6282,0.130,0.225
6283,0.130,0.230
6284,0.130,0.235
6285,0.120,0.220
6286,0.115,0.205
6287,0.105,0.185
6288,0.095,0.165
6289,0.085,0.140
6290,0.075,0.120
6291,0.060,0.100
6292,0.050,0.085
6293,0.045,0.070
6294,0.040,0.065
6295,0.030,0.055
6296,0.025,0.045
6297,0.025,0.040
6298,0.020,0.035
6299,0.015,0.025
6300,0.015,0.020
6301,0.015,0.015
6302,0.015,0.010
6303,0.015,0.000
6304,0.015,0.000
6305,0.015,0.000
6306,0.015,0.000
6307,0.015,-0.005
6308,0.015,-0.010
6309,0.015,-0.010
6310,0.015,-0.010
6311,0.015,-0.015
6312,0.015,-0.020
6313,0.010,-0.025
6314,0.005,-0.025
6315,0.005,-0.025
6316,0.005,-0.025
6317,0.005,-0.025
6318,0.005,-0.030
6319,0.005,-0.030
6320,0.005,-0.030
6321,0.005,-0.030
6322,0.005,-0.030
6323,0.005,-0.025
6324,0.005,-0.025
6325,0.005,-0.025
6326,0.005,-0.020
6327,0.005,-0.020
6328,0.010,-0.020
6329,0.010,-0.025
6330,0.010,-0.020
6331,0.010,-0.020
6332,0.015,-0.020
6333,0.015,-0.015
6334,0.015,-0.010
6335,0.015,-0.010
6336,0.015,-0.010
6337,0.015,-0.010
6338,0.015,-0.010
6339,0.015,-0.005
6340,0.015,0.000
6341,0.020,0.000
6342,0.035,0.015
6343,0.060,0.035
6344,0.070,0.045
6345,0.060,0.055
6346,0.040,0.070
6347,0.025,0.080
6348,0.015,0.090
6349,0.005,0.085
6350,0.000,0.065
6351,0.000,0.040
6352,0.000,0.010
6353,0.005,-0.015
6354,0.010,-0.030
6355,0.010,-0.040
6356,0.010,-0.040
6357,0.015,-0.050
6358,0.055,-0.075
6359,0.125,-0.080
6360,0.175,0.030
6361,0.125,0.355
6362,-0.065,0.805
6363,-0.315,1.060
6364,-0.475,0.800
6365,-0.525,0.245
6366,-0.455,-0.125
6367,-0.270,-0.195
6368,-0.090,-0.145
6369,0.000,-0.100
6370,0.040,-0.080
6371,0.050,-0.075
6372,0.055,-0.070
6373,0.055,-0.065
6374,0.055,-0.065
6375,0.055,-0.065
6376,0.055,-0.060
6377,0.055,-0.055
6378,0.055,-0.050
6379,0.060,-0.045
6380,0.060,-0.035
6381,0.065,-0.030
6382,0.065,-0.025
6383,0.070,-0.010
6384,0.075,0.000
6385,0.075,0.005
6386,0.080,0.015
6387,0.085,0.030
6388,0.090,0.045
6389,0.100,0.050
6390,0.100,0.065
6391,0.105,0.085
6392,0.110,0.105
6393,0.115,0.115
6394,0.120,0.135
6395,0.125,0.150
6396,0.130,0.165
6397,0.130,0.170
6398,0.125,0.175
6399,0.125,0.180
6400,0.125,0.190
6401,0.120,0.190
6402,0.120,0.195
6403,0.120,0.205
6404,0.120,0.215
6405,0.120,0.220
6406,0.120,0.215
6407,0.115,0.205
6408,0.110,0.190
6409,0.105,0.175
6410,0.095,0.155
6411,0.080,0.140
6412,0.070,0.110
6413,0.055,0.085
6414,0.045,0.065
6415,0.035,0.055
6416,0.025,0.040
6417,0.020,0.035
6418,0.015,0.025
6419,0.015,0.025
6420,0.015,0.015
6421,0.015,0.005
6422,0.010,0.000
6423,0.010,0.000
6424,0.005,0.000
6425,0.005,0.000
6426,0.000,-0.010
6427,0.000,-0.010
6428,0.000,-0.015
6429,0.000,-0.025
6430,0.000,-0.030
6431,0.005,-0.035
6432,0.010,-0.035
6433,0.010,-0.035
6434,0.005,-0.040
6435,0.005,-0.040
6436,0.000,-0.045
6437,0.000,-0.045
6438,0.000,-0.045
6439,0.000,-0.040
6440,0.000,-0.040
6441,0.000,-0.040
6442,0.000,-0.045
6443,0.000,-0.045
6444,0.000,-0.045
6445,0.000,-0.045
6446,0.000,-0.045
6447,0.000,-0.040
6448,0.000,-0.040
6449,0.000,-0.040
6450,0.000,-0.040
6451,0.000,-0.040
6452,0.005,-0.040
6453,0.005,-0.040
6454,0.010,-0.035
6455,0.005,-0.030
6456,0.005,-0.030
6457,0.005,-0.025
6458,0.005,-0.025
6459,0.010,-0.025
6460,0.005,-0.025
6461,0.005,-0.020
6462,0.010,-0.020
6463,0.015,-0.015
6464,0.015,-0.010
6465,0.025,0.000
6466,0.040,0.010
6467,0.060,0.030
6468,0.065,0.040
6469,0.050,0.050
6470,0.025,0.065
6471,0.010,0.075
6472,0.005,0.075
6473,0.000,0.055
6474,-0.005,0.030
6475,-0.005,0.010
6476,0.000,-0.010
6477,0.000,-0.035
6478,0.000,-0.055
6479,0.000,-0.060
6480,0.000,-0.060
6481,0.025,-0.080
6482,0.080,-0.100
6483,0.145,-0.055
6484,0.155,0.150
6485,0.020,0.575
6486,-0.235,0.995
6487,-0.445,0.995
6488,-0.535,0.490
6489,-0.530,-0.030
6490,-0.385,-0.230
6491,-0.180,-0.200
6492,-0.040,-0.140
6493,0.010,-0.105
6494,0.020,-0.100
6495,0.025,-0.095
6496,0.025,-0.095
6497,0.025,-0.090
6498,0.025,-0.085
6499,0.025,-0.085
6500,0.025,-0.085
6501,0.025,-0.080
6502,0.025,-0.075
6503,0.025,-0.065
6504,0.030,-0.060
6505,0.035,-0.050
6506,0.040,-0.040
6507,0.045,-0.025
6508,0.045,-0.010
6509,0.050,0.000
6510,0.055,0.005
6511,0.055,0.015
6512,0.055,0.030
6513,0.065,0.040
6514,0.070,0.050
6515,0.075,0.065
6516,0.080,0.080
6517,0.080,0.095
6518,0.080,0.110
6519,0.090,0.125
6520,0.090,0.135
6521,0.095,0.145
6522,0.090,0.145
6523,0.085,0.150
6524,0.080,0.155
6525,0.080,0.155
6526,0.080,0.165
6527,0.080,0.175
6528,0.080,0.180
6529,0.080,0.180
6530,0.080,0.175
6531,0.080,0.165
6532,0.075,0.150
6533,0.065,0.125
6534,0.050,0.105
6535,0.040,0.080
6536,0.025,0.065
6537,0.020,0.045
6538,0.015,0.025
6539,0.015,0.020
6540,0.010,0.010
6541,0.005,0.005
6542,0.000,0.000
6543,0.000,0.000
6544,0.000,-0.005
6545,-0.005,-0.015
6546,-0.010,-0.025
6547,-0.015,-0.030
6548,-0.020,-0.030
6549,-0.020,-0.035
6550,-0.020,-0.040
6551,-0.020,-0.045
6552,-0.020,-0.055
6553,-0.020,-0.055
6554,-0.020,-0.055
6555,-0.020,-0.060
6556,-0.020,-0.065
6557,-0.020,-0.070
6558,-0.025,-0.075
6559,-0.025,-0.075
6560,-0.030,-0.075
6561,-0.030,-0.075
6562,-0.035,-0.080
6563,-0.035,-0.080
6564,-0.035,-0.080
6565,-0.035,-0.085
6566,-0.030,-0.085
6567,-0.030,-0.080
6568,-0.030,-0.080
6569,-0.030,-0.080
6570,-0.030,-0.080
6571,-0.030,-0.080
6572,-0.035,-0.080
6573,-0.030,-0.085
6574,-0.025,-0.085
6575,-0.025,-0.080
6576,-0.025,-0.080
6577,-0.025,-0.080
6578,-0.025,-0.080
6579,-0.020,-0.085
6580,-0.020,-0.080
6581,-0.020,-0.075
6582,-0.020,-0.075
6583,-0.020,-0.075
6584,-0.020,-0.075
6585,-0.020,-0.080
6586,-0.020,-0.075
6587,-0.015,-0.070
6588,-0.005,-0.060
6589,0.000,-0.040
6590,0.010,-0.020
6591,0.020,-0.005
6592,0.020,0.005
6593,0.015,0.010
6594,0.005,0.015
6595,-0.005,0.025
6596,-0.020,0.025
6597,-0.030,0.010
6598,-0.040,-0.005
6599,-0.040,-0.035
6600,-0.035,-0.065
6601,-0.030,-0.090
6602,-0.030,-0.105
6603,-0.025,-0.115
6604,-0.020,-0.120
6605,0.000,-0.130
6606,0.055,-0.145
6607,0.115,-0.075
6608,0.095,0.170
6609,-0.055,0.595
6610,-0.315,0.975
6611,-0.500,0.915
6612,-0.570,0.370
6613,-0.530,-0.145
6614,-0.365,-0.285
6615,-0.170,-0.235
6616,-0.040,-0.180
6617,0.000,-0.160
6618,0.010,-0.150
6619,0.015,-0.145
6620,0.015,-0.140
6621,0.015,-0.140
6622,0.015,-0.140
6623,0.015,-0.140
6624,0.015,-0.135
6625,0.015,-0.125
6626,0.015,-0.120
6627,0.015,-0.115
6628,0.020,-0.105
6629,0.020,-0.095
6630,0.025,-0.075
6631,0.025,-0.060
6632,0.025,-0.045
6633,0.025,-0.030
6634,0.035,-0.020
6635,0.040,-0.010
6636,0.050,0.000
6637,0.055,0.010
6638,0.060,0.020
6639,0.070,0.035
6640,0.080,0.045
6641,0.080,0.060
6642,0.085,0.070
6643,0.095,0.080
6644,0.100,0.095
6645,0.105,0.110
6646,0.105,0.120
6647,0.105,0.125
6648,0.105,0.125
6649,0.105,0.135
6650,0.105,0.150
6651,0.105,0.160
6652,0.105,0.170
6653,0.105,0.175
6654,0.100,0.175
6655,0.090,0.165
6656,0.085,0.155
6657,0.075,0.135
6658,0.070,0.110
6659,0.060,0.085
6660,0.045,0.065
6661,0.035,0.050
6662,0.030,0.045
6663,0.025,0.040
6664,0.025,0.030
6665,0.020,0.025
6666,0.015,0.025
6667,0.015,0.015
6668,0.015,0.015
6669,0.015,0.010
6670,0.015,0.005
6671,0.010,0.005
6672,0.010,0.000
6673,0.000,0.000
6674,0.000,0.000
6675,0.000,0.000
6676,0.000,-0.005
6677,0.000,-0.010
6678,0.000,-0.015
6679,0.000,-0.015
6680,0.000,-0.015
6681,0.000,-0.020
6682,0.000,-0.025
6683,0.000,-0.030
6684,0.000,-0.030
6685,0.000,-0.030
6686,0.000,-0.030
6687,0.000,-0.025
6688,0.000,-0.025
6689,0.000,-0.030
6690,0.000,-0.035
6691,0.000,-0.035
6692,0.000,-0.030
6693,0.000,-0.025
6694,0.000,-0.020
6695,0.000,-0.020
6696,0.005,-0.020
6697,0.005,-0.020
6698,0.005,-0.015
6699,0.005,-0.015
6700,0.005,-0.010
6701,0.010,-0.010
6702,0.010,-0.010
6703,0.015,-0.010
6704,0.015,-0.010
6705,0.015,-0.010
6706,0.015,-0.010
6707,0.015,-0.010
6708,0.015,-0.005
6709,0.015,-0.005
6710,0.015,-0.005
6711,0.015,0.000
6712,0.030,0.005
6713,0.045,0.020
6714,0.065,0.040
6715,0.070,0.050
6716,0.055,0.060
6717,0.035,0.075
6718,0.020,0.085
6719,0.015,0.090
6720,0.010,0.080
6721,0.005,0.060
6722,0.000,0.035
6723,0.005,0.010
6724,0.010,-0.010
6725,0.015,-0.025
6726,0.015,-0.030
6727,0.015,-0.035
6728,0.030,-0.045
6729,0.080,-0.065
6730,0.145,-0.035
6731,0.170,0.130
6732,0.075,0.490
6733,-0.135,0.905
6734,-0.355,1.030
6735,-0.480,0.655
6736,-0.495,0.095
6737,-0.385,-0.190
6738,-0.195,-0.190
6739,-0.030,-0.115
6740,0.035,-0.075
6741,0.055,-0.060
6742,0.055,-0.060
6743,0.055,-0.055
6744,0.060,-0.050
6745,0.060,-0.045
6746,0.065,-0.045
6747,0.065,-0.045
6748,0.070,-0.040
6749,0.070,-0.040
6750,0.075,-0.030
6751,0.075,-0.025
6752,0.080,-0.015
6753,0.080,0.000
6754,0.080,0.000
6755,0.080,0.010
6756,0.085,0.020
6757,0.090,0.030
6758,0.095,0.040
6759,0.100,0.060
6760,0.105,0.075
6761,0.105,0.090
6762,0.110,0.105
6763,0.115,0.120
6764,0.125,0.135
6765,0.130,0.145
6766,0.130,0.160
6767,0.130,0.170
6768,0.130,0.180
6769,0.135,0.185
6770,0.130,0.190
6771,0.130,0.200
6772,0.130,0.205
6773,0.130,0.215
6774,0.130,0.225
6775,0.130,0.235
6776,0.130,0.240
6777,0.130,0.235
6778,0.125,0.225
6779,0.115,0.215
6780,0.105,0.200
6781,0.100,0.175
6782,0.090,0.150
6783,0.075,0.130
6784,0.070,0.115
6785,0.060,0.095
6786,0.050,0.080
6787,0.040,0.070
6788,0.030,0.060
6789,0.025,0.050
6790,0.025,0.050
6791,0.025,0.040
6792,0.020,0.035
6793,0.015,0.030
6794,0.015,0.025
6795,0.015,0.025
6796,0.015,0.015
6797,0.015,0.010
6798,0.015,0.005
6799,0.015,0.000
6800,0.015,0.000
6801,0.015,0.000
6802,0.015,0.000
6803,0.015,0.000
6804,0.015,-0.005
6805,0.015,-0.010
6806,0.015,-0.010
6807,0.015,-0.010
6808,0.015,-0.010
6809,0.015,-0.010
6810,0.015,-0.010
6811,0.010,-0.010
6812,0.010,-0.005
6813,0.010,-0.005
6814,0.015,-0.010
6815,0.015,-0.010
6816,0.015,-0.010
6817,0.015,-0.010
6818,0.015,-0.010
6819,0.015,-0.005
6820,0.015,-0.005
