'sample interval','ECG0','ECG1'
'0.0078125 sec','mV','mV'
0,-0.285,-0.075
1,-0.285,-0.055
2,-0.275,-0.075
3,-0.285,-0.055
4,-0.255,-0.075
5,-0.215,-0.085
6,-0.225,-0.105
7,-0.175,-0.105
8,-0.135,-0.115
9,-0.065,-0.105
10,-0.015,-0.125
11,0.045,-0.135
12,0.075,-0.125
13,0.095,-0.115
14,0.085,-0.105
15,0.095,-0.085
16,0.065,-0.065
17,0.045,-0.045
18,-0.035,-0.055
19,-0.075,0.015
20,-0.095,-0.045
21,-0.115,-0.015
22,-0.135,-0.045
23,-0.135,-0.045
24,-0.135,-0.045
25,-0.135,-0.045
26,-0.135,-0.045
27,-0.135,-0.065
28,-0.125,-0.055
29,-0.115,-0.035
30,-0.095,-0.055
31,-0.095,-0.045
32,-0.095,-0.045
33,-0.085,-0.035
34,-0.095,-0.045
35,-0.095,-0.035
36,-0.075,-0.005
37,-0.075,-0.035
38,-0.085,-0.005
39,-0.085,-0.065
40,-0.095,-0.045
41,-0.095,-0.025
42,-0.105,-0.045
43,-0.125,-0.055
44,-0.125,-0.065
45,-0.115,-0.055
46,-0.125,-0.075
47,-0.125,-0.065
48,-0.135,-0.045
49,-0.105,-0.055
50,-0.115,-0.055
51,-0.105,-0.085
52,-0.125,-0.065
53,-0.115,-0.075
54,-0.115,-0.095
55,-0.105,-0.095
56,-0.105,-0.085
57,-0.105,-0.075
58,-0.105,-0.065
59,-0.075,-0.065
60,-0.075,-0.095
61,-0.075,-0.085
62,-0.075,-0.075
63,-0.105,-0.065
64,-0.095,-0.075
65,-0.075,-0.105
66,-0.095,-0.075
67,-0.085,-0.085
68,-0.135,-0.065
69,-0.075,-0.055
70,-0.005,-0.015
71,0.035,-0.035
72,-0.035,-0.065
73,-0.065,-0.135
74,-0.075,-0.125
75,-0.095,-0.105
76,-0.115,-0.125
77,-0.105,-0.085
78,-0.105,-0.105
79,-0.095,-0.115
80,-0.055,-0.095
81,-0.065,-0.075
82,-0.495,-0.005
83,-0.575,0.125
84,0.165,0.355
85,2.015,0.425
86,3.085,0.005
87,3.285,-0.705
88,1.385,-1.025
89,0.115,-0.685
90,-0.235,-0.265
91,-0.315,-0.085
92,-0.305,-0.045
93,-0.295,-0.055
94,-0.305,-0.085
95,-0.295,-0.065
96,-0.285,-0.075
97,-0.275,-0.045
98,-0.305,-0.055
99,-0.315,-0.075
100,-0.295,-0.065
101,-0.275,-0.055
102,-0.285,-0.055
103,-0.275,-0.075
104,-0.285,-0.085
105,-0.265,-0.065
106,-0.265,-0.065
107,-0.275,-0.095
108,-0.245,-0.105
109,-0.225,-0.085
110,-0.205,-0.115
111,-0.175,-0.135
112,-0.125,-0.145
113,-0.065,-0.165
114,-0.025,-0.165
115,0.025,-0.165
116,0.075,-0.165
117,0.095,-0.145
118,0.095,-0.125
119,0.085,-0.115
120,0.095,-0.095
121,0.075,-0.055
122,0.025,-0.035
123,-0.015,-0.015
124,-0.035,-0.005
125,-0.065,0.015
126,-0.075,0.025
127,-0.075,0.005
128,-0.075,-0.015
129,-0.065,0.025
130,-0.075,0.015
131,-0.065,0.005
132,-0.065,0.015
133,-0.055,0.005
134,-0.065,-0.005
135,-0.055,-0.005
136,-0.035,0.005
137,-0.035,0.005
138,-0.045,-0.005
139,-0.045,0.005
140,-0.045,0.035
141,-0.035,-0.005
142,-0.055,0.015
143,-0.065,-0.005
144,-0.075,-0.005
145,-0.075,0.035
146,-0.085,-0.005
147,-0.095,-0.015
148,-0.105,-0.015
149,-0.105,-0.005
150,-0.115,-0.005
151,-0.125,-0.035
152,-0.115,-0.025
153,-0.105,-0.025
154,-0.105,-0.015
155,-0.115,-0.035
156,-0.105,-0.045
157,-0.095,-0.025
158,-0.105,-0.005
159,-0.095,-0.045
160,-0.105,-0.045
161,-0.095,-0.045
162,-0.085,-0.035
163,-0.105,-0.055
164,-0.095,-0.045
165,-0.105,-0.025
166,-0.105,-0.025
167,-0.105,-0.025
168,-0.095,-0.015
169,0.005,0.025
170,0.015,-0.005
171,-0.045,-0.055
172,-0.065,-0.085
173,-0.055,-0.065
174,-0.075,-0.025
175,-0.115,-0.065
176,-0.125,-0.065
177,-0.085,-0.025
178,-0.095,-0.085
179,-0.075,-0.115
180,-0.035,-0.085
181,-0.425,-0.005
182,-0.615,0.175
183,-0.005,0.385
184,1.765,0.275
185,3.065,-0.205
186,3.335,-0.875
187,1.635,-1.045
188,0.215,-0.625
189,-0.215,-0.165
190,-0.305,0.005
191,-0.325,0.005
192,-0.325,0.005
193,-0.305,-0.025
194,-0.305,-0.025
195,-0.315,-0.015
196,-0.295,-0.015
197,-0.295,0.005
198,-0.315,-0.015
199,-0.325,-0.015
200,-0.305,0.015
201,-0.295,-0.015
202,-0.305,-0.015
203,-0.305,-0.035
204,-0.295,-0.015
205,-0.295,-0.015
206,-0.275,-0.045
207,-0.255,-0.045
208,-0.235,-0.045
209,-0.205,-0.005
210,-0.165,-0.105
211,-0.085,-0.075
212,-0.025,-0.085
213,0.025,-0.105
214,0.055,-0.085
215,0.065,-0.085
216,0.085,-0.075
217,0.095,-0.055
218,0.075,-0.025
219,0.035,-0.025
220,-0.005,0.005
221,-0.045,0.045
222,-0.075,0.045
223,-0.115,0.045
224,-0.125,0.035
225,-0.135,0.045
226,-0.135,0.065
227,-0.135,0.025
228,-0.135,0.015
229,-0.135,0.025
230,-0.105,0.015
231,-0.105,0.025
232,-0.095,-0.015
233,-0.065,0.005
234,-0.055,0.005
235,-0.065,0.015
236,-0.055,0.005
237,-0.065,0.005
238,-0.075,0.005
239,-0.065,0.005
240,-0.065,0.035
241,-0.065,0.005
242,-0.085,0.005
243,-0.105,0.025
244,-0.105,-0.015
245,-0.105,-0.005
246,-0.115,0.005
247,-0.125,0.005
248,-0.145,0.015
249,-0.145,-0.015
250,-0.125,-0.015
251,-0.145,-0.025
252,-0.145,-0.045
253,-0.135,-0.045
254,-0.145,-0.045
255,-0.145,-0.055
256,-0.155,-0.055
257,-0.155,-0.055
258,-0.145,-0.055
259,-0.155,-0.065
260,-0.125,-0.045
261,-0.135,-0.065
262,-0.135,-0.045
263,-0.145,-0.095
264,-0.145,-0.045
265,-0.125,-0.065
266,-0.125,-0.095
267,-0.135,-0.115
268,-0.135,-0.095
269,-0.125,-0.055
270,-0.145,-0.085
271,-0.145,-0.075
272,-0.145,-0.045
273,-0.065,-0.015
274,-0.005,-0.025
275,-0.055,-0.065
276,-0.115,-0.195
277,-0.085,-0.135
278,-0.085,-0.115
279,-0.135,-0.125
280,-0.135,-0.105
281,-0.125,-0.115
282,-0.125,-0.125
283,-0.105,-0.115
284,-0.065,-0.095
285,-0.495,-0.015
286,-0.595,0.115
287,0.115,0.345
288,1.975,0.275
289,3.055,-0.125
290,3.385,-0.795
291,1.665,-1.055
292,0.215,-0.745
293,-0.275,-0.245
294,-0.335,-0.095
295,-0.355,-0.085
296,-0.345,-0.115
297,-0.345,-0.085
298,-0.335,-0.075
299,-0.335,-0.105
300,-0.345,-0.095
301,-0.325,-0.085
302,-0.325,-0.085
303,-0.315,-0.095
304,-0.325,-0.095
305,-0.325,-0.095
306,-0.325,-0.115
307,-0.315,-0.105
308,-0.315,-0.085
309,-0.305,-0.115
310,-0.295,-0.135
311,-0.275,-0.135
312,-0.265,-0.135
313,-0.225,-0.145
314,-0.185,-0.155
315,-0.155,-0.185
316,-0.105,-0.185
317,-0.025,-0.185
318,0.025,-0.195
319,0.045,-0.195
320,0.045,-0.165
321,0.055,-0.165
322,0.065,-0.145
323,0.025,-0.095
324,0.015,-0.095
325,-0.025,-0.095
326,-0.075,-0.065
327,-0.105,-0.065
328,-0.125,-0.025
329,-0.155,-0.035
330,-0.155,-0.045
331,-0.155,-0.045
332,-0.145,-0.055
333,-0.115,-0.035
334,-0.105,-0.015
335,-0.195,-0.085
336,-0.105,-0.055
337,-0.085,-0.065
338,-0.075,-0.045
339,-0.065,-0.045
340,-0.045,-0.015
341,-0.045,-0.035
342,-0.045,-0.045
343,-0.045,-0.055
344,-0.055,-0.015
345,-0.055,-0.005
346,-0.045,-0.055
347,-0.065,-0.045
348,-0.085,-0.055
349,-0.075,-0.025
350,-0.075,-0.065
351,-0.085,-0.065
352,-0.085,-0.055
353,-0.075,-0.055
354,-0.085,-0.065
355,-0.085,-0.075
356,-0.085,-0.065
357,-0.065,-0.055
358,-0.075,-0.055
359,-0.085,-0.085
360,-0.085,-0.065
361,-0.075,-0.055
362,-0.095,-0.055
363,-0.085,-0.095
364,-0.075,-0.085
365,-0.075,-0.055
366,-0.075,-0.065
367,-0.095,-0.045
368,-0.015,-0.045
369,0.035,-0.055
370,0.005,-0.105
371,-0.055,-0.125
372,0.015,-0.165
373,-0.015,-0.115
374,-0.055,-0.135
375,-0.075,-0.155
376,-0.105,-0.095
377,-0.105,-0.075
378,-0.085,-0.075
379,-0.045,-0.055
380,-0.465,-0.015
381,-0.665,0.175
382,-0.045,0.345
383,1.875,0.155
384,3.045,-0.405
385,3.465,-0.915
386,2.175,-1.335
387,0.395,-0.885
388,-0.215,-0.325
389,-0.315,-0.085
390,-0.345,-0.045
391,-0.355,-0.085
392,-0.355,-0.085
393,-0.285,-0.085
394,-0.305,-0.115
395,-0.315,-0.075
396,-0.275,-0.095
397,-0.285,-0.095
398,-0.355,-0.045
399,-0.345,-0.015
400,-0.345,-0.065
401,-0.335,-0.065
402,-0.335,-0.145
403,-0.315,-0.115
404,-0.325,-0.105
405,-0.305,-0.115
406,-0.285,-0.125
407,-0.265,-0.135
408,-0.245,-0.145
409,-0.205,-0.125
410,-0.175,-0.115
411,-0.105,-0.145
412,-0.045,-0.135
413,0.015,-0.125
414,0.045,-0.115
415,0.055,-0.115
416,0.075,-0.115
417,0.085,-0.105
418,0.045,-0.085
419,0.005,-0.055
420,-0.035,0.005
421,-0.075,-0.075
422,-0.135,-0.085
423,-0.195,0.115
424,-0.175,0.035
425,-0.185,-0.045
426,-0.195,-0.145
427,-0.095,-0.135
428,-0.085,-0.125
429,-0.205,-0.185
430,-0.195,-0.065
431,-0.165,-0.095
432,-0.135,-0.095
433,-0.115,-0.105
434,-0.115,-0.105
435,-0.145,-0.035
436,-0.115,-0.075
437,-0.105,-0.055
438,-0.115,-0.065
439,-0.135,-0.075
440,-0.115,-0.095
441,-0.135,-0.065
442,-0.155,-0.055
443,-0.185,-0.095
444,-0.175,-0.085
445,-0.165,-0.065
446,-0.215,-0.065
447,-0.205,-0.105
448,-0.195,-0.045
449,-0.195,-0.095
450,-0.195,-0.095
451,-0.195,-0.125
452,-0.195,-0.095
453,-0.205,-0.115
454,-0.195,-0.105
455,-0.195,-0.095
456,-0.195,-0.095
457,-0.195,-0.085
458,-0.215,-0.125
459,-0.215,-0.115
460,-0.215,-0.105
461,-0.205,-0.105
462,-0.195,-0.115
463,-0.185,-0.095
464,-0.185,-0.115
465,-0.195,-0.105
466,-0.205,-0.125
467,-0.215,-0.125
468,-0.175,-0.095
469,-0.215,-0.055
470,-0.185,-0.095
471,-0.105,-0.065
472,-0.125,-0.115
473,-0.175,-0.145
474,-0.175,-0.145
475,-0.165,-0.135
476,-0.215,-0.125
477,-0.245,-0.135
478,-0.235,-0.135
479,-0.205,-0.145
480,-0.175,-0.145
481,-0.155,-0.125
482,-0.585,-0.065
483,-0.815,0.195
484,-0.055,0.325
485,1.705,0.025
486,2.965,-0.575
487,3.455,-1.205
488,2.195,-1.235
489,0.365,-0.765
490,-0.265,-0.295
491,-0.415,-0.085
492,-0.435,-0.065
493,-0.435,-0.105
494,-0.425,-0.075
495,-0.425,-0.105
496,-0.415,-0.095
497,-0.405,-0.085
498,-0.415,-0.085
499,-0.415,-0.085
500,-0.415,-0.045
501,-0.405,-0.055
502,-0.405,-0.085
503,-0.395,-0.105
504,-0.385,-0.095
505,-0.375,-0.055
506,-0.375,-0.085
507,-0.365,-0.085
508,-0.365,-0.075
509,-0.335,-0.075
510,-0.325,-0.085
511,-0.285,-0.085
512,-0.245,-0.075
513,-0.175,-0.075
514,-0.115,-0.085
515,-0.055,-0.075
516,-0.005,-0.085
517,0.015,-0.045
518,0.025,-0.065
519,0.035,-0.055
520,0.015,-0.025
521,0.005,0.005
522,-0.025,-0.005
523,-0.075,-0.005
524,-0.115,0.005
525,-0.145,0.005
526,-0.175,-0.025
527,-0.205,-0.025
528,-0.195,-0.035
529,-0.185,-0.035
530,-0.175,-0.045
531,-0.175,-0.045
532,-0.165,-0.045
533,-0.145,-0.035
534,-0.165,-0.045
535,-0.185,-0.065
536,-0.175,-0.025
537,-0.175,-0.015
538,-0.165,-0.035
539,-0.165,-0.035
540,-0.165,-0.025
541,-0.165,-0.025
542,-0.175,-0.045
543,-0.155,-0.035
544,-0.185,-0.035
545,-0.215,-0.055
546,-0.205,-0.075
547,-0.225,-0.045
548,-0.225,-0.085
549,-0.215,-0.095
550,-0.225,-0.075
551,-0.245,-0.095
552,-0.245,-0.085
553,-0.245,-0.085
554,-0.235,-0.095
555,-0.235,-0.105
556,-0.205,-0.125
557,-0.215,-0.095
558,-0.205,-0.095
559,-0.235,-0.105
560,-0.235,-0.095
561,-0.195,-0.105
562,-0.215,-0.115
563,-0.205,-0.105
564,-0.205,-0.095
565,-0.205,-0.105
566,-0.215,-0.125
567,-0.195,-0.115
568,-0.185,-0.115
569,-0.225,-0.115
570,-0.235,-0.095
571,-0.135,-0.055
572,-0.035,-0.055
573,-0.105,-0.085
574,-0.165,-0.165
575,-0.155,-0.155
576,-0.185,-0.135
577,-0.185,-0.135
578,-0.185,-0.135
579,-0.185,-0.155
580,-0.155,-0.145
581,-0.125,-0.105
582,-0.205,-0.125
583,-0.655,-0.025
584,-0.565,0.175
585,0.565,0.385
586,2.525,0.215
587,3.295,-0.375
588,2.875,-1.035
589,0.895,-1.025
590,-0.065,-0.585
591,-0.285,-0.225
592,-0.335,-0.085
593,-0.335,-0.075
594,-0.335,-0.105
595,-0.325,-0.115
596,-0.295,-0.115
597,-0.285,-0.115
598,-0.305,-0.115
599,-0.305,-0.115
600,-0.305,-0.085
601,-0.295,-0.095
602,-0.295,-0.115
603,-0.295,-0.125
604,-0.285,-0.125
605,-0.275,-0.115
606,-0.285,-0.125
607,-0.275,-0.145
608,-0.275,-0.145
609,-0.255,-0.135
610,-0.235,-0.155
611,-0.215,-0.155
612,-0.175,-0.175
613,-0.115,-0.165
614,-0.075,-0.165
615,-0.035,-0.175
616,0.015,-0.175
617,0.045,-0.145
618,0.055,-0.145
619,0.065,-0.175
620,0.055,-0.145
621,0.055,-0.115
622,0.025,-0.075
623,-0.015,-0.075
624,-0.035,-0.055
625,-0.055,-0.045
626,-0.085,-0.055
627,-0.105,-0.055
628,-0.105,-0.045
629,-0.105,-0.045
630,-0.105,-0.045
631,-0.095,-0.045
632,-0.075,-0.065
633,-0.055,-0.035
634,-0.055,-0.045
635,-0.065,-0.075
636,-0.065,-0.075
637,-0.065,-0.055
638,-0.045,-0.065
639,-0.065,-0.065
640,-0.065,-0.075
641,-0.065,-0.065
642,-0.075,-0.045
643,-0.095,-0.055
644,-0.095,-0.065
645,-0.115,-0.055
646,-0.135,-0.065
647,-0.135,-0.085
648,-0.135,-0.075
649,-0.135,-0.065
650,-0.135,-0.075
651,-0.155,-0.085
652,-0.165,-0.085
653,-0.135,-0.075
654,-0.145,-0.075
655,-0.165,-0.095
656,-0.155,-0.095
657,-0.155,-0.075
658,-0.165,-0.105
659,-0.175,-0.105
660,-0.145,-0.095
661,-0.135,-0.085
662,-0.155,-0.105
663,-0.155,-0.085
664,-0.145,-0.105
665,-0.135,-0.095
666,-0.155,-0.095
667,-0.155,-0.105
668,-0.155,-0.095
669,-0.155,-0.075
670,-0.125,-0.095
671,-0.145,-0.075
672,-0.115,-0.075
673,-0.035,-0.045
674,-0.085,-0.115
675,-0.125,-0.135
676,-0.115,-0.135
677,-0.115,-0.105
678,-0.145,-0.105
679,-0.165,-0.125
680,-0.165,-0.125
681,-0.155,-0.115
682,-0.125,-0.125
683,-0.075,-0.115
684,-0.505,-0.025
685,-0.815,0.215
686,-0.155,0.405
687,1.835,-0.005
688,3.105,-0.745
689,3.575,-1.295
690,2.095,-1.135
691,0.355,-0.575
692,-0.215,-0.175
693,-0.365,-0.035
694,-0.405,-0.045
695,-0.385,-0.075
696,-0.385,-0.075
697,-0.385,-0.055
698,-0.385,-0.055
699,-0.375,-0.075
700,-0.375,-0.045
701,-0.375,-0.045
702,-0.385,-0.025
703,-0.375,-0.055
704,-0.365,-0.045
705,-0.355,-0.025
706,-0.355,-0.045
707,-0.365,-0.045
708,-0.365,-0.045
709,-0.345,-0.045
710,-0.325,-0.045
711,-0.315,-0.055
712,-0.275,-0.035
713,-0.235,-0.045
714,-0.175,-0.035
715,-0.135,-0.045
716,-0.075,-0.055
717,-0.025,-0.045
718,0.015,-0.035
719,0.035,-0.025
720,0.065,-0.015
721,0.075,0.005
722,0.055,0.005
723,0.025,0.025
724,-0.015,0.045
725,-0.055,0.045
726,-0.115,0.035
727,-0.135,0.025
728,-0.165,0.015
729,-0.175,0.015
730,-0.165,-0.015
731,-0.185,-0.005
732,-0.185,-0.005
733,-0.155,-0.015
734,-0.135,-0.035
735,-0.135,-0.045
736,-0.125,-0.035
737,-0.115,-0.015
738,-0.115,-0.035
739,-0.125,-0.035
740,-0.115,-0.025
741,-0.115,-0.025
742,-0.115,-0.035
743,-0.125,-0.045
744,-0.135,-0.045
745,-0.115,-0.025
746,-0.135,-0.035
747,-0.155,-0.055
748,-0.145,-0.055
749,-0.155,-0.055
750,-0.175,-0.055
751,-0.175,-0.075
752,-0.165,-0.055
753,-0.165,-0.065
754,-0.165,-0.065
755,-0.165,-0.065
756,-0.165,-0.065
757,-0.175,-0.055
758,-0.175,-0.055
759,-0.175,-0.035
760,-0.175,-0.075
761,-0.175,-0.075
762,-0.185,-0.065
763,-0.165,-0.065
764,-0.175,-0.085
765,-0.175,-0.075
766,-0.175,-0.075
767,-0.175,-0.075
768,-0.185,-0.085
769,-0.175,-0.065
770,-0.165,-0.065
771,-0.145,-0.025
772,-0.145,-0.065
773,-0.075,-0.055
774,-0.045,-0.055
775,-0.105,-0.095
776,-0.125,-0.145
777,-0.105,-0.105
778,-0.125,-0.085
779,-0.175,-0.115
780,-0.165,-0.095
781,-0.135,-0.115
782,-0.125,-0.125
783,-0.085,-0.105
784,-0.285,-0.075
785,-0.715,0.085
786,-0.405,0.325
787,1.285,0.225
788,2.895,-0.295
789,3.495,-1.015
790,2.275,-1.095
791,0.455,-0.615
792,-0.185,-0.185
793,-0.375,-0.025
794,-0.395,-0.045
795,-0.375,-0.065
796,-0.365,-0.065
797,-0.355,-0.055
798,-0.355,-0.055
799,-0.355,-0.065
800,-0.365,-0.055
801,-0.345,-0.025
802,-0.365,-0.035
803,-0.345,-0.055
804,-0.335,-0.055
805,-0.335,-0.045
806,-0.325,-0.035
807,-0.325,-0.055
808,-0.315,-0.045
809,-0.305,-0.035
810,-0.305,-0.045
811,-0.275,-0.055
812,-0.255,-0.055
813,-0.215,-0.065
814,-0.175,-0.055
815,-0.115,-0.095
816,-0.065,-0.095
817,-0.005,-0.065
818,0.025,-0.055
819,0.055,-0.055
820,0.065,-0.075
821,0.065,-0.035
822,0.045,-0.005
823,0.015,-0.005
824,-0.025,0.005
825,-0.065,0.035
826,-0.105,0.005
827,-0.145,-0.005
828,-0.155,0.005
829,-0.145,0.005
830,-0.155,-0.005
831,-0.155,-0.015
832,-0.135,-0.025
833,-0.125,-0.015
834,-0.125,-0.025
835,-0.105,-0.025
836,-0.105,-0.015
837,-0.095,0.005
838,-0.105,-0.005
839,-0.095,-0.015
840,-0.105,-0.005
841,-0.115,0.015
842,-0.105,-0.015
843,-0.105,-0.025
844,-0.135,-0.015
845,-0.115,0.005
846,-0.135,-0.005
847,-0.145,-0.025
848,-0.155,-0.025
849,-0.145,-0.025
850,-0.165,-0.055
851,-0.175,-0.055
852,-0.155,-0.055
853,-0.165,-0.055
854,-0.165,-0.025
855,-0.165,-0.065
856,-0.175,-0.065
857,-0.145,-0.065
858,-0.165,-0.065
859,-0.155,-0.085
860,-0.165,-0.075
861,-0.155,-0.055
862,-0.155,-0.055
863,-0.165,-0.085
864,-0.165,-0.085
865,-0.145,-0.065
866,-0.155,-0.085
867,-0.165,-0.065
868,-0.165,-0.085
869,-0.155,-0.035
870,-0.145,-0.095
871,-0.155,-0.055
872,-0.125,-0.055
873,-0.035,-0.005
874,-0.045,-0.055
875,-0.115,-0.135
876,-0.135,-0.125
877,-0.125,-0.075
878,-0.165,-0.075
879,-0.175,-0.105
880,-0.175,-0.105
881,-0.155,-0.095
882,-0.145,-0.085
883,-0.105,-0.095
884,-0.285,-0.065
885,-0.665,0.075
886,-0.455,0.325
887,1.015,0.305
888,2.765,-0.085
889,3.465,-0.875
890,2.095,-1.075
891,0.415,-0.685
892,-0.195,-0.225
893,-0.355,-0.045
894,-0.365,-0.045
895,-0.375,-0.065
896,-0.355,-0.055
897,-0.345,-0.075
898,-0.345,-0.085
899,-0.355,-0.085
900,-0.355,-0.075
901,-0.355,-0.065
902,-0.345,-0.075
903,-0.355,-0.085
904,-0.345,-0.085
905,-0.335,-0.065
906,-0.335,-0.095
907,-0.325,-0.105
908,-0.335,-0.045
909,-0.305,-0.105
910,-0.305,-0.115
911,-0.275,-0.115
912,-0.265,-0.115
913,-0.225,-0.105
914,-0.185,-0.135
915,-0.125,-0.135
916,-0.075,-0.155
917,-0.015,-0.135
918,0.005,-0.105
919,0.025,-0.115
920,0.045,-0.095
921,0.055,-0.055
922,0.055,-0.045
923,0.015,-0.025
924,0.005,0.005
925,-0.035,0.035
926,-0.085,0.005
927,-0.125,0.005
928,-0.135,0.025
929,-0.155,0.005
930,-0.145,-0.015
931,-0.125,-0.005
932,-0.115,0.035
933,-0.125,-0.015
934,-0.115,-0.035
935,-0.095,0.005
936,-0.085,0.005
937,-0.075,-0.005
938,-0.085,0.015
939,-0.085,-0.005
940,-0.095,-0.045
941,-0.105,-0.015
942,-0.105,0.005
943,-0.095,-0.025
944,-0.105,-0.025
945,-0.115,-0.055
946,-0.145,-0.055
947,-0.135,-0.045
948,-0.135,-0.025
949,-0.125,-0.025
950,-0.155,-0.025
951,-0.165,-0.055
952,-0.165,-0.035
953,-0.165,-0.045
954,-0.165,-0.035
955,-0.175,-0.055
956,-0.165,-0.035
957,-0.175,-0.025
958,-0.185,-0.065
959,-0.175,-0.075
960,-0.165,-0.035
961,-0.145,-0.055
962,-0.155,-0.065
963,-0.155,-0.055
964,-0.145,-0.045
965,-0.135,-0.045
966,-0.135,-0.045
967,-0.145,-0.015
968,-0.145,-0.055
969,-0.105,-0.045
970,-0.175,-0.045
971,-0.115,-0.045
972,0.015,0.005
973,-0.015,-0.005
974,-0.095,-0.125
975,-0.105,-0.115
976,-0.115,-0.085
977,-0.155,-0.055
978,-0.165,-0.095
979,-0.145,-0.105
980,-0.125,-0.095
981,-0.125,-0.075
982,-0.075,-0.085
983,-0.295,-0.045
984,-0.635,0.085
985,-0.305,0.285
986,1.335,0.395
987,2.805,0.125
988,3.315,-0.595
989,1.755,-0.805
990,0.315,-0.555
991,-0.145,-0.285
992,-0.315,-0.035
993,-0.315,-0.015
994,-0.315,-0.145
995,-0.325,-0.135
996,-0.325,-0.125
997,-0.315,-0.105
998,-0.335,-0.095
999,-0.325,-0.105
1000,-0.335,-0.095
1001,-0.305,-0.065
1002,-0.325,-0.085
1003,-0.325,-0.115
1004,-0.315,-0.095
1005,-0.295,-0.115
1006,-0.315,-0.105
1007,-0.295,-0.115
1008,-0.275,-0.125
1009,-0.265,-0.135
1010,-0.235,-0.145
1011,-0.225,-0.165
1012,-0.195,-0.175
1013,-0.145,-0.165
1014,-0.105,-0.205
1015,-0.065,-0.215
1016,-0.035,-0.205
1017,0.015,-0.205
1018,0.045,-0.195
1019,0.075,-0.185
1020,0.085,-0.165
1021,0.065,-0.135
1022,0.035,-0.095
1023,0.035,-0.055
1024,-0.005,-0.035
1025,-0.055,-0.025
1026,-0.075,-0.025
1027,-0.075,-0.045
1028,-0.095,-0.015
1029,-0.075,-0.045
1030,-0.085,-0.045
1031,-0.065,-0.035
1032,-0.055,-0.035
1033,-0.055,-0.055
1034,-0.045,-0.035
1035,-0.025,-0.035
1036,-0.035,-0.025
1037,-0.005,-0.015
1038,-0.025,-0.025
1039,-0.035,-0.025
1040,-0.035,-0.045
1041,-0.035,-0.005
1042,-0.055,-0.025
1043,-0.025,-0.025
1044,-0.035,-0.075
1045,-0.105,-0.045
1046,-0.105,-0.025
1047,-0.105,-0.045
1048,-0.085,-0.045
1049,-0.095,-0.035
1050,-0.075,-0.055
1051,-0.105,-0.045
1052,-0.105,-0.055
1053,-0.105,-0.055
1054,-0.115,-0.055
1055,-0.135,-0.075
1056,-0.095,-0.075
1057,-0.085,-0.065
1058,-0.105,-0.065
1059,-0.085,-0.085
1060,-0.095,-0.065
1061,-0.095,-0.045
1062,-0.115,-0.035
1063,-0.055,-0.035
1064,0.035,0.035
1065,0.065,-0.015
1066,-0.025,-0.065
1067,-0.055,-0.135
1068,-0.075,-0.105
1069,-0.105,-0.105
1070,-0.095,-0.065
1071,-0.105,-0.115
1072,-0.105,-0.095
1073,-0.065,-0.085
1074,-0.035,-0.085
1075,-0.095,-0.075
1076,-0.485,0.025
1077,-0.475,0.185
1078,0.475,0.415
1079,2.325,0.425
1080,3.245,-0.065
1081,2.935,-0.785
1082,0.825,-0.905
1083,-0.045,-0.555
1084,-0.275,-0.185
1085,-0.295,-0.055
1086,-0.305,-0.065
1087,-0.305,-0.105
1088,-0.285,-0.075
1089,-0.275,-0.085
1090,-0.275,-0.095
1091,-0.275,-0.105
1092,-0.285,-0.095
1093,-0.285,-0.035
1094,-0.285,-0.095
1095,-0.265,-0.105
1096,-0.275,-0.095
1097,-0.285,-0.125
1098,-0.275,-0.115
1099,-0.245,-0.115
1100,-0.225,-0.115
1101,-0.215,-0.125
1102,-0.215,-0.125
1103,-0.205,-0.155
1104,-0.155,-0.175
1105,-0.125,-0.175
1106,-0.085,-0.205
1107,-0.035,-0.185
1108,-0.005,-0.235
1109,0.025,-0.235
1110,0.065,-0.185
1111,0.065,-0.185
1112,0.085,-0.175
1113,0.065,-0.115
1114,0.055,-0.105
1115,0.035,-0.055
1116,0.025,-0.035
1117,-0.015,0.015
1118,-0.025,-0.005
1119,-0.045,-0.015
1120,-0.055,0.015
1121,-0.055,0.015
1122,-0.035,0.025
1123,-0.045,-0.015
1124,-0.025,0.015
1125,-0.015,0.015
1126,-0.015,0.025
1127,0.015,-0.005
1128,0.005,-0.005
1129,0.015,0.005
1130,0.015,0.015
1131,-0.005,-0.015
1132,0.005,-0.005
1133,0.005,0.015
1134,-0.015,0.005
1135,-0.045,-0.005
1136,-0.045,-0.005
1137,-0.045,-0.005
1138,-0.065,-0.005
1139,-0.085,-0.015
1140,-0.075,-0.015
1141,-0.075,-0.005
1142,-0.085,-0.025
1143,-0.095,-0.025
1144,-0.085,-0.025
1145,-0.085,-0.015
1146,-0.095,-0.015
1147,-0.105,-0.035
1148,-0.095,-0.025
1149,-0.085,-0.015
1150,-0.105,-0.035
1151,-0.125,-0.045
1152,-0.115,-0.045
1153,-0.105,-0.005
1154,-0.095,-0.025
1155,-0.115,-0.035
1156,-0.105,-0.035
1157,0.005,0.005
1158,0.015,-0.005
1159,-0.045,-0.075
1160,-0.075,-0.095
1161,-0.055,-0.075
1162,-0.085,-0.055
1163,-0.135,-0.085
1164,-0.135,-0.075
1165,-0.115,-0.075
1166,-0.095,-0.065
1167,-0.065,-0.065
1168,-0.125,-0.025
1169,-0.545,0.125
1170,-0.535,0.255
1171,0.385,0.385
1172,2.325,0.155
1173,3.235,-0.485
1174,3.105,-1.065
1175,1.195,-0.965
1176,0.115,-0.495
1177,-0.235,-0.095
1178,-0.325,0.015
1179,-0.335,-0.015
1180,-0.325,-0.025
1181,-0.315,-0.015
1182,-0.325,-0.015
1183,-0.315,-0.015
1184,-0.315,-0.005
1185,-0.305,-0.015
1186,-0.315,-0.005
1187,-0.325,0.005
1188,-0.315,-0.015
1189,-0.295,-0.015
1190,-0.315,-0.025
1191,-0.305,-0.035
1192,-0.295,-0.045
1193,-0.265,-0.035
1194,-0.265,-0.035
1195,-0.245,-0.045
1196,-0.215,-0.055
1197,-0.195,-0.055
1198,-0.135,-0.065
1199,-0.095,-0.075
1200,-0.035,-0.095
1201,0.025,-0.085
1202,0.055,-0.075
1203,0.065,-0.065
1204,0.075,-0.075
1205,0.085,-0.035
1206,0.075,-0.035
1207,0.035,-0.005
1208,0.005,0.025
1209,-0.045,0.045
1210,-0.075,0.045
1211,-0.105,0.045
1212,-0.125,0.035
1213,-0.125,0.045
1214,-0.135,0.035
1215,-0.135,0.005
1216,-0.125,0.025
1217,-0.125,0.025
1218,-0.105,0.005
1219,-0.105,0.025
1220,-0.085,0.005
1221,-0.065,0.025
1222,-0.065,0.015
1223,-0.065,0.005
1224,-0.065,0.005
1225,-0.065,0.015
1226,-0.045,0.015
1227,-0.055,-0.015
1228,-0.065,0.005
1229,-0.055,0.005
1230,-0.085,-0.005
1231,-0.085,0.005
1232,-0.085,-0.015
1233,-0.105,0.025
1234,-0.115,-0.035
1235,-0.105,-0.025
1236,-0.135,-0.005
1237,-0.125,-0.025
1238,-0.145,-0.025
1239,-0.145,-0.035
1240,-0.145,-0.045
1241,-0.145,-0.035
1242,-0.155,-0.045
1243,-0.145,-0.055
1244,-0.135,-0.045
1245,-0.145,-0.045
1246,-0.145,-0.045
1247,-0.125,-0.055
1248,-0.125,-0.055
1249,-0.125,-0.055
1250,-0.145,-0.045
1251,-0.125,-0.065
1252,-0.145,-0.035
1253,-0.115,-0.025
1254,-0.015,-0.025
1255,-0.045,-0.045
1256,-0.085,-0.115
1257,-0.115,-0.095
1258,-0.105,-0.075
1259,-0.155,-0.095
1260,-0.195,-0.105
1261,-0.165,-0.075
1262,-0.165,-0.095
1263,-0.165,-0.105
1264,-0.145,-0.095
1265,-0.125,-0.065
1266,-0.565,0.015
1267,-0.585,0.185
1268,0.155,0.375
1269,2.095,0.215
1270,3.105,-0.385
1271,3.095,-1.005
1272,1.165,-0.985
1273,0.055,-0.535
1274,-0.325,-0.175
1275,-0.395,-0.065
1276,-0.385,-0.075
1277,-0.345,-0.075
1278,-0.365,-0.085
1279,-0.375,-0.095
1280,-0.355,-0.085
1281,-0.345,-0.055
1282,-0.365,-0.065
1283,-0.345,-0.085
1284,-0.325,-0.065
1285,-0.325,-0.065
1286,-0.345,-0.075
1287,-0.325,-0.075
1288,-0.315,-0.075
1289,-0.305,-0.065
1290,-0.305,-0.085
1291,-0.295,-0.085
1292,-0.265,-0.075
1293,-0.235,-0.095
1294,-0.215,-0.105
1295,-0.185,-0.115
1296,-0.155,-0.145
1297,-0.065,-0.155
1298,-0.015,-0.165
1299,0.015,-0.175
1300,0.055,-0.155
1301,0.075,-0.135
1302,0.085,-0.125
1303,0.095,-0.115
1304,0.045,-0.085
1305,0.025,-0.045
1306,-0.015,-0.015
1307,-0.055,-0.015
1308,-0.075,-0.025
1309,-0.105,-0.025
1310,-0.115,-0.025
1311,-0.125,-0.035
1312,-0.115,-0.015
1313,-0.105,-0.025
1314,-0.105,-0.035
1315,-0.105,-0.055
1316,-0.105,-0.045
1317,-0.085,-0.035
1318,-0.075,-0.025
1319,-0.055,-0.055
1320,-0.055,-0.025
1321,-0.055,-0.025
1322,-0.055,-0.045
1323,-0.065,-0.045
1324,-0.065,-0.045
1325,-0.085,-0.045
1326,-0.095,-0.045
1327,-0.065,-0.045
1328,-0.085,-0.045
1329,-0.095,-0.055
1330,-0.095,-0.055
1331,-0.105,-0.065
1332,-0.115,-0.055
1333,-0.115,-0.065
1334,-0.115,-0.075
1335,-0.125,-0.085
1336,-0.125,-0.075
1337,-0.125,-0.065
1338,-0.125,-0.085
1339,-0.125,-0.085
1340,-0.145,-0.045
1341,-0.135,-0.085
1342,-0.125,-0.065
1343,-0.135,-0.065
1344,-0.115,-0.055
1345,-0.125,-0.055
1346,-0.055,-0.025
1347,0.025,-0.035
1348,-0.015,-0.065
1349,-0.065,-0.125
1350,-0.065,-0.115
1351,-0.095,-0.105
1352,-0.125,-0.115
1353,-0.125,-0.105
1354,-0.125,-0.105
1355,-0.105,-0.125
1356,-0.095,-0.105
1357,-0.045,-0.075
1358,-0.285,-0.055
1359,-0.655,0.105
1360,-0.315,0.305
1361,1.225,0.385
1362,2.865,0.025
1363,3.455,-0.645
1364,2.155,-1.105
1365,0.395,-0.865
1366,-0.175,-0.375
1367,-0.315,-0.105
1368,-0.335,-0.035
1369,-0.335,-0.045
1370,-0.335,-0.075
1371,-0.335,-0.065
1372,-0.335,-0.055
1373,-0.315,-0.045
1374,-0.325,-0.055
1375,-0.335,-0.065
1376,-0.335,-0.055
1377,-0.325,-0.045
1378,-0.325,-0.065
1379,-0.335,-0.065
1380,-0.335,-0.065
1381,-0.305,-0.065
1382,-0.305,-0.065
1383,-0.305,-0.095
1384,-0.295,-0.115
1385,-0.275,-0.095
1386,-0.255,-0.115
1387,-0.235,-0.115
1388,-0.195,-0.145
1389,-0.145,-0.135
1390,-0.095,-0.165
1391,-0.055,-0.175
1392,-0.025,-0.155
1393,0.005,-0.145
1394,0.025,-0.155
1395,0.015,-0.155
1396,0.015,-0.125
1397,-0.015,-0.085
1398,-0.055,-0.065
1399,-0.085,-0.055
1400,-0.105,-0.025
1401,-0.135,-0.005
1402,-0.145,-0.015
1403,-0.155,-0.025
1404,-0.155,-0.025
1405,-0.155,-0.005
1406,-0.145,-0.045
1407,-0.155,-0.025
1408,-0.135,-0.045
1409,-0.115,-0.035
1410,-0.115,-0.025
1411,-0.105,-0.035
1412,-0.095,-0.015
1413,-0.095,-0.025
1414,-0.105,-0.045
1415,-0.095,-0.035
1416,-0.105,-0.035
1417,-0.105,-0.025
1418,-0.115,-0.035
1419,-0.135,-0.045
1420,-0.135,-0.055
1421,-0.135,-0.045
1422,-0.145,-0.025
1423,-0.165,-0.065
1424,-0.175,-0.065
1425,-0.175,-0.055
1426,-0.175,-0.065
1427,-0.185,-0.085
1428,-0.175,-0.085
1429,-0.175,-0.065
1430,-0.175,-0.085
1431,-0.175,-0.105
1432,-0.195,-0.095
1433,-0.175,-0.095
1434,-0.175,-0.105
1435,-0.185,-0.105
1436,-0.185,-0.105
1437,-0.175,-0.085
1438,-0.165,-0.095
1439,-0.165,-0.085
1440,-0.155,-0.085
1441,-0.135,-0.075
1442,-0.135,-0.085
1443,-0.145,-0.105
1444,-0.155,-0.085
1445,-0.165,-0.095
1446,-0.135,-0.095
1447,-0.155,-0.065
1448,-0.125,-0.055
1449,-0.035,-0.045
1450,-0.075,-0.115
1451,-0.135,-0.175
1452,-0.145,-0.175
1453,-0.135,-0.125
1454,-0.155,-0.125
1455,-0.195,-0.145
1456,-0.185,-0.135
1457,-0.165,-0.145
1458,-0.155,-0.135
1459,-0.105,-0.125
1460,-0.225,-0.105
1461,-0.625,0.025
1462,-0.515,0.225
1463,0.555,0.255
1464,2.335,-0.025
1465,3.195,-0.665
1466,2.865,-1.125
1467,0.915,-0.975
1468,-0.025,-0.475
1469,-0.305,-0.125
1470,-0.365,-0.045
1471,-0.365,-0.075
1472,-0.365,-0.095
1473,-0.355,-0.085
1474,-0.355,-0.085
1475,-0.365,-0.095
1476,-0.345,-0.085
1477,-0.345,-0.085
1478,-0.335,-0.075
1479,-0.345,-0.085
1480,-0.345,-0.085
1481,-0.335,-0.095
1482,-0.325,-0.095
1483,-0.325,-0.085
1484,-0.325,-0.095
1485,-0.295,-0.095
1486,-0.305,-0.105
1487,-0.285,-0.115
1488,-0.255,-0.115
1489,-0.215,-0.105
1490,-0.185,-0.115
1491,-0.135,-0.145
1492,-0.065,-0.135
1493,-0.005,-0.125
1494,0.025,-0.135
1495,0.055,-0.125
1496,0.075,-0.105
1497,0.085,-0.085
1498,0.055,-0.075
1499,0.045,-0.065
1500,-0.005,-0.045
1501,-0.035,-0.025
1502,-0.075,-0.025
1503,-0.115,-0.035
1504,-0.145,-0.025
1505,-0.155,-0.035
1506,-0.165,-0.065
1507,-0.155,-0.055
1508,-0.155,-0.055
1509,-0.145,-0.065
1510,-0.145,-0.055
1511,-0.135,-0.065
1512,-0.115,-0.055
1513,-0.105,-0.055
1514,-0.115,-0.055
1515,-0.105,-0.055
1516,-0.115,-0.055
1517,-0.105,-0.035
1518,-0.115,-0.055
1519,-0.125,-0.055
1520,-0.115,-0.065
1521,-0.125,-0.045
1522,-0.135,-0.055
1523,-0.155,-0.065
1524,-0.145,-0.065
1525,-0.145,-0.065
1526,-0.175,-0.085
1527,-0.175,-0.085
1528,-0.175,-0.075
1529,-0.185,-0.095
1530,-0.185,-0.095
1531,-0.205,-0.105
1532,-0.185,-0.095
1533,-0.185,-0.085
1534,-0.175,-0.085
1535,-0.165,-0.115
1536,-0.175,-0.095
1537,-0.165,-0.105
1538,-0.165,-0.105
1539,-0.155,-0.105
1540,-0.165,-0.115
1541,-0.165,-0.105
1542,-0.155,-0.105
1543,-0.155,-0.105
1544,-0.155,-0.105
1545,-0.155,-0.095
1546,-0.175,-0.095
1547,-0.155,-0.125
1548,-0.145,-0.095
1549,-0.145,-0.095
1550,-0.155,-0.095
1551,-0.185,-0.105
1552,-0.155,-0.105
1553,-0.185,-0.065
1554,-0.135,-0.085
1555,-0.035,-0.045
1556,-0.075,-0.075
1557,-0.125,-0.145
1558,-0.135,-0.155
1559,-0.135,-0.135
1560,-0.145,-0.125
1561,-0.165,-0.115
1562,-0.185,-0.115
1563,-0.165,-0.115
1564,-0.135,-0.125
1565,-0.105,-0.105
1566,-0.215,-0.085
1567,-0.605,0.005
1568,-0.505,0.205
1569,0.615,0.335
1570,2.445,0.135
1571,3.225,-0.495
1572,2.815,-1.025
1573,0.845,-0.945
1574,-0.075,-0.505
1575,-0.345,-0.155
1576,-0.385,-0.075
1577,-0.375,-0.055
1578,-0.355,-0.075
1579,-0.345,-0.075
1580,-0.345,-0.085
1581,-0.355,-0.075
1582,-0.355,-0.075
1583,-0.355,-0.085
1584,-0.365,-0.065
1585,-0.365,-0.055
1586,-0.345,-0.085
1587,-0.355,-0.085
1588,-0.355,-0.085
1589,-0.335,-0.095
1590,-0.325,-0.085
1591,-0.325,-0.115
1592,-0.295,-0.115
1593,-0.295,-0.105
1594,-0.265,-0.105
1595,-0.235,-0.135
1596,-0.185,-0.135
1597,-0.145,-0.135
1598,-0.095,-0.125
1599,-0.035,-0.155
1600,-0.005,-0.195
1601,0.055,-0.165
1602,0.055,-0.155
1603,0.055,-0.155
1604,0.075,-0.115
1605,0.065,-0.095
1606,-0.005,-0.085
1607,-0.015,0.055
1608,-0.045,-0.065
1609,-0.075,-0.065
1610,-0.105,-0.055
1611,-0.125,-0.095
1612,-0.135,-0.075
1613,-0.125,-0.065
1614,-0.135,-0.065
1615,-0.145,-0.085
1616,-0.145,-0.075
1617,-0.125,-0.065
1618,-0.125,-0.075
1619,-0.115,-0.085
1620,-0.105,-0.065
1621,-0.085,-0.055
1622,-0.115,-0.075
1623,-0.125,-0.075
1624,-0.095,-0.075
1625,-0.085,-0.055
1626,-0.105,-0.085
1627,-0.105,-0.055
1628,-0.105,-0.085
1629,-0.115,-0.095
1630,-0.115,-0.095
1631,-0.135,-0.085
1632,-0.155,-0.035
1633,-0.155,-0.085
1634,-0.145,-0.065
1635,-0.155,-0.135
1636,-0.145,-0.115
1637,-0.145,-0.095
1638,-0.165,-0.075
1639,-0.145,-0.115
1640,-0.145,-0.125
1641,-0.145,-0.125
1642,-0.135,-0.125
1643,-0.155,-0.135
1644,-0.145,-0.115
1645,-0.125,-0.125
1646,-0.145,-0.095
1647,-0.145,-0.125
1648,-0.145,-0.115
1649,-0.145,-0.095
1650,-0.155,-0.115
1651,-0.125,-0.115
1652,-0.145,-0.075
1653,-0.135,-0.095
1654,-0.175,-0.095
1655,-0.105,-0.095
1656,0.035,-0.045
1657,0.005,-0.105
1658,-0.095,-0.145
1659,-0.135,-0.155
1660,-0.115,-0.105
1661,-0.135,-0.115
1662,-0.145,-0.135
1663,-0.125,-0.135
1664,-0.105,-0.135
1665,-0.095,-0.125
1666,-0.055,-0.135
1667,-0.235,-0.115
1668,-0.605,0.025
1669,-0.385,0.255
1670,0.785,0.375
1671,2.545,0.205
1672,3.225,-0.325
1673,2.885,-0.955
1674,0.805,-1.035
1675,-0.085,-0.645
1676,-0.335,-0.215
1677,-0.345,-0.075
1678,-0.335,-0.085
1679,-0.345,-0.105
1680,-0.335,-0.105
1681,-0.325,-0.085
1682,-0.315,-0.085
1683,-0.325,-0.095
1684,-0.305,-0.085
1685,-0.305,-0.075
1686,-0.315,-0.075
1687,-0.315,-0.105
1688,-0.285,-0.095
1689,-0.215,-0.115
1690,-0.275,-0.115
1691,-0.315,-0.105
1692,-0.285,-0.075
1693,-0.275,-0.095
1694,-0.275,-0.095
1695,-0.235,-0.105
1696,-0.205,-0.135
1697,-0.155,-0.145
1698,-0.115,-0.165
1699,-0.065,-0.165
1700,-0.005,-0.185
1701,0.035,-0.165
1702,0.065,-0.165
1703,0.055,-0.135
1704,0.065,-0.165
1705,0.065,-0.135
1706,0.035,-0.105
1707,0.005,-0.095
1708,-0.035,-0.055
1709,-0.075,-0.025
1710,-0.115,-0.025
1711,-0.155,-0.045
1712,-0.135,-0.025
1713,-0.145,-0.045
1714,-0.155,-0.055
1715,-0.125,-0.075
1716,-0.135,-0.055
1717,-0.115,-0.055
1718,-0.105,-0.065
1719,-0.105,-0.035
1720,-0.095,-0.045
1721,-0.085,-0.015
1722,-0.085,-0.065
1723,-0.085,-0.075
1724,-0.115,-0.055
1725,-0.105,-0.025
1726,-0.125,-0.035
1727,-0.115,-0.055
1728,-0.125,-0.045
1729,-0.145,-0.065
1730,-0.155,-0.075
1731,-0.175,-0.075
1732,-0.155,-0.065
1733,-0.175,-0.065
1734,-0.185,-0.085
1735,-0.195,-0.085
1736,-0.185,-0.065
1737,-0.165,-0.055
1738,-0.185,-0.075
1739,-0.195,-0.085
1740,-0.195,-0.085
1741,-0.185,-0.085
1742,-0.195,-0.095
1743,-0.175,-0.095
1744,-0.175,-0.095
1745,-0.185,-0.085
1746,-0.165,-0.095
1747,-0.175,-0.095
1748,-0.165,-0.085
1749,-0.155,-0.085
1750,-0.165,-0.095
1751,-0.165,-0.095
1752,-0.155,-0.095
1753,-0.145,-0.085
1754,-0.155,-0.085
1755,-0.155,-0.075
1756,-0.155,-0.095
1757,-0.155,-0.095
1758,-0.155,-0.095
1759,-0.165,-0.095
1760,-0.135,-0.085
1761,-0.145,-0.025
1762,-0.115,-0.055
1763,-0.035,-0.035
1764,-0.065,-0.065
1765,-0.115,-0.125
1766,-0.135,-0.135
1767,-0.115,-0.115
1768,-0.135,-0.095
1769,-0.165,-0.085
1770,-0.185,-0.105
1771,-0.155,-0.135
1772,-0.145,-0.105
1773,-0.075,-0.085
1774,-0.375,-0.075
1775,-0.705,0.105
1776,-0.305,0.305
1777,1.395,0.255
1778,2.865,-0.125
1779,3.425,-0.835
1780,2.165,-1.095
1781,0.405,-0.815
1782,-0.195,-0.335
1783,-0.355,-0.075
1784,-0.375,-0.025
1785,-0.365,-0.035
1786,-0.365,-0.045
1787,-0.365,-0.055
1788,-0.365,-0.045
1789,-0.355,-0.025
1790,-0.365,-0.025
1791,-0.365,0.005
1792,-0.355,-0.045
1793,-0.355,-0.025
1794,-0.345,-0.015
1795,-0.345,-0.035
1796,-0.345,-0.045
1797,-0.335,-0.035
1798,-0.325,-0.025
1799,-0.335,-0.035
1800,-0.315,-0.025
1801,-0.285,-0.025
1802,-0.265,-0.055
1803,-0.255,-0.055
1804,-0.195,-0.055
1805,-0.155,-0.035
1806,-0.095,-0.085
1807,-0.035,-0.075
1808,0.015,-0.075
1809,0.045,-0.055
1810,0.045,-0.015
1811,0.055,-0.065
1812,0.065,-0.045
1813,0.055,-0.005
1814,0.015,0.005
1815,-0.035,-0.005
1816,-0.075,0.005
1817,-0.115,0.035
1818,-0.135,0.015
1819,-0.155,0.005
1820,-0.165,0.005
1821,-0.155,0.015
1822,-0.165,-0.005
1823,-0.155,-0.025
1824,-0.145,-0.025
1825,-0.125,-0.015
1826,-0.125,-0.025
1827,-0.125,-0.025
1828,-0.105,-0.015
1829,-0.095,-0.015
1830,-0.095,-0.015
1831,-0.115,-0.025
1832,-0.105,-0.015
1833,-0.115,-0.005
1834,-0.115,-0.015
1835,-0.125,-0.025
1836,-0.135,-0.025
1837,-0.135,-0.015
1838,-0.155,-0.055
1839,-0.165,-0.045
1840,-0.165,-0.055
1841,-0.155,-0.055
1842,-0.175,-0.065
1843,-0.165,-0.075
1844,-0.155,-0.065
1845,-0.165,-0.055
1846,-0.175,-0.065
1847,-0.185,-0.055
1848,-0.175,-0.075
1849,-0.165,-0.065
1850,-0.165,-0.065
1851,-0.165,-0.065
1852,-0.165,-0.075
1853,-0.165,-0.065
1854,-0.155,-0.065
1855,-0.165,-0.065
1856,-0.155,-0.055
1857,-0.135,-0.025
1858,-0.145,-0.095
1859,-0.145,-0.085
1860,-0.145,-0.065
1861,-0.145,-0.055
1862,-0.145,-0.055
1863,-0.155,-0.085
1864,-0.145,-0.055
1865,-0.165,-0.045
1866,-0.135,-0.055
1867,-0.155,-0.035
1868,-0.035,-0.005
1869,-0.015,0.005
1870,-0.085,-0.095
1871,-0.105,-0.125
1872,-0.105,-0.095
1873,-0.115,-0.065
1874,-0.165,-0.095
1875,-0.165,-0.095
1876,-0.135,-0.095
1877,-0.125,-0.085
1878,-0.105,-0.085
1879,-0.075,-0.065
1880,-0.455,-0.025
1881,-0.645,0.135
1882,-0.175,0.345
1883,1.365,0.325
1884,2.785,-0.005
1885,3.355,-0.665
1886,2.575,-1.045
1887,0.725,-0.905
1888,-0.025,-0.445
1889,-0.265,-0.105
1890,-0.335,-0.015
1891,-0.355,-0.025
1892,-0.335,-0.035
1893,-0.325,-0.025
1894,-0.335,-0.045
1895,-0.335,-0.045
1896,-0.325,-0.035
1897,-0.325,-0.015
1898,-0.335,-0.035
1899,-0.325,-0.035
1900,-0.325,-0.035
1901,-0.325,-0.025
1902,-0.325,-0.035
1903,-0.325,-0.045
1904,-0.315,-0.055
1905,-0.315,-0.045
1906,-0.305,-0.035
1907,-0.295,-0.045
1908,-0.265,-0.065
1909,-0.235,-0.035
1910,-0.195,-0.085
1911,-0.155,-0.095
1912,-0.105,-0.105
1913,-0.045,-0.095
1914,0.005,-0.095
1915,0.035,-0.105
1916,0.075,-0.085
1917,0.075,-0.075
1918,0.085,-0.055
1919,0.075,-0.035
1920,0.055,-0.035
1921,0.025,0.005
1922,-0.025,0.015
1923,-0.065,0.015
1924,-0.115,0.025
1925,-0.135,0.015
1926,-0.145,0.015
1927,-0.135,0.005
1928,-0.135,-0.005
1929,-0.135,-0.005
1930,-0.125,-0.015
1931,-0.115,-0.005
1932,-0.105,-0.025
1933,-0.085,-0.015
1934,-0.095,-0.005
1935,-0.085,0.005
1936,-0.075,-0.025
1937,-0.075,-0.035
1938,-0.075,-0.005
1939,-0.075,-0.025
1940,-0.085,-0.025
1941,-0.085,-0.015
1942,-0.095,-0.035
1943,-0.095,-0.025
1944,-0.115,-0.035
1945,-0.095,-0.035
1946,-0.125,-0.035
1947,-0.135,-0.045
1948,-0.125,-0.055
1949,-0.115,-0.025
1950,-0.125,-0.045
1951,-0.135,-0.065
1952,-0.135,-0.075
1953,-0.125,-0.045
1954,-0.135,-0.075
1955,-0.145,-0.085
1956,-0.135,-0.055
1957,-0.135,-0.055
1958,-0.115,-0.025
1959,-0.125,-0.105
1960,-0.105,-0.095
1961,-0.125,-0.085
1962,-0.125,-0.075
1963,-0.115,-0.095
1964,-0.115,-0.075
1965,-0.115,-0.085
1966,-0.105,-0.085
1967,-0.125,-0.085
1968,-0.095,-0.085
1969,-0.135,-0.055
1970,-0.055,-0.055
1971,0.025,-0.035
1972,-0.045,-0.085
1973,-0.075,-0.115
1974,-0.085,-0.135
1975,-0.075,-0.125
1976,-0.135,-0.125
1977,-0.125,-0.135
1978,-0.115,-0.105
1979,-0.105,-0.125
1980,-0.065,-0.115
1981,-0.035,-0.095
1982,-0.305,-0.085
1983,-0.585,0.045
1984,-0.355,0.245
1985,0.885,0.325
1986,2.555,0.155
1987,3.265,-0.455
1988,2.825,-0.975
1989,0.875,-0.915
1990,0.025,-0.555
1991,-0.255,-0.145
1992,-0.305,-0.075
1993,-0.315,-0.085
1994,-0.295,-0.075
1995,-0.285,-0.085
1996,-0.295,-0.085
1997,-0.275,-0.085
1998,-0.275,-0.075
1999,-0.295,-0.085
2000,-0.285,-0.065
2001,-0.285,-0.055
2002,-0.275,-0.055
2003,-0.275,-0.075
2004,-0.275,-0.095
2005,-0.265,-0.075
2006,-0.295,-0.055
2007,-0.285,-0.105
2008,-0.235,-0.105
2009,-0.215,-0.125
2010,-0.225,-0.105
2011,-0.195,-0.145
2012,-0.145,-0.135
2013,-0.095,-0.135
2014,-0.055,-0.155
2015,0.015,-0.165
2016,0.045,-0.155
2017,0.085,-0.135
2018,0.105,-0.135
2019,0.115,-0.135
2020,0.125,-0.125
2021,0.095,-0.035
2022,0.035,-0.065
2023,0.025,-0.055
2024,-0.015,-0.045
2025,-0.055,-0.025
2026,-0.095,-0.045
2027,-0.105,-0.035
2028,-0.105,-0.055
2029,-0.105,-0.055
2030,-0.095,-0.025
2031,-0.085,-0.115
2032,-0.075,-0.075
2033,-0.055,-0.055
2034,-0.025,-0.065
2035,-0.025,-0.085
2036,-0.045,-0.065
2037,-0.025,-0.075
2038,-0.035,-0.075
2039,-0.045,-0.095
2040,-0.035,-0.055
2041,-0.025,-0.075
2042,-0.055,-0.085
2043,-0.045,-0.075
2044,-0.055,-0.055
2045,-0.055,-0.055
2046,-0.065,-0.115
2047,-0.055,-0.085
2048,-0.075,-0.105
2049,-0.065,-0.075
2050,-0.085,-0.105
2051,-0.075,-0.095
2052,-0.075,-0.105
2053,-0.075,-0.115
2054,-0.085,-0.095
2055,-0.085,-0.115
2056,-0.075,-0.135
2057,-0.045,-0.075
2058,-0.065,-0.125
2059,-0.085,-0.135
2060,-0.075,-0.095
2061,-0.035,-0.125
2062,-0.045,-0.125
2063,-0.065,-0.105
2064,-0.095,-0.095
2065,0.005,-0.095
2066,0.115,-0.065
2067,0.065,-0.055
2068,0.015,-0.165
2069,0.005,-0.175
2070,-0.045,-0.145
2071,-0.055,-0.145
2072,-0.045,-0.135
2073,-0.035,-0.145
2074,-0.025,-0.145
2075,-0.025,-0.135
2076,0.025,-0.135
2077,-0.305,-0.065
2078,-0.505,0.095
2079,0.065,0.275
2080,2.005,0.375
2081,3.145,-0.015
2082,3.355,-0.645
2083,1.325,-1.015
2084,0.115,-0.755
2085,-0.145,-0.245
2086,-0.185,-0.075
2087,-0.275,0.005
2088,-0.265,-0.165
2089,-0.235,-0.105
2090,-0.225,-0.095
2091,-0.205,-0.105
2092,-0.195,-0.085
2093,-0.185,-0.055
2094,-0.195,-0.075
2095,-0.195,-0.105
2096,-0.215,-0.085
2097,-0.195,-0.065
2098,-0.175,-0.095
2099,-0.185,-0.095
2100,-0.175,-0.095
2101,-0.155,-0.095
2102,-0.155,-0.115
2103,-0.125,-0.135
2104,-0.115,-0.135
2105,-0.085,-0.105
2106,-0.045,-0.155
2107,-0.015,-0.205
2108,0.045,-0.175
2109,0.095,-0.165
2110,0.135,-0.135
2111,0.165,-0.185
2112,0.195,-0.145
2113,0.185,-0.145
2114,0.185,-0.125
2115,0.175,-0.085
2116,0.135,-0.065
2117,0.095,0.005
2118,0.055,-0.035
2119,0.025,-0.015
2120,0.015,-0.015
2121,0.005,-0.015
2122,-0.005,-0.025
2123,0.005,-0.015
2124,0.015,-0.005
2125,0.025,-0.005
2126,0.035,0.015
2127,0.035,-0.045
2128,0.045,-0.025
2129,0.045,-0.025
2130,0.035,-0.045
2131,0.045,-0.045
2132,0.045,-0.025
2133,0.025,-0.015
2134,0.015,-0.025
2135,0.015,-0.045
2136,0.015,-0.045
2137,-0.005,-0.045
2138,-0.025,-0.045
2139,-0.035,-0.045
2140,-0.045,-0.055
2141,-0.045,-0.045
2142,-0.075,-0.045
2143,-0.065,-0.045
2144,-0.065,-0.045
2145,-0.055,-0.035
2146,-0.065,-0.045
2147,-0.075,0.005
2148,-0.065,-0.075
2149,-0.075,-0.045
2150,-0.085,-0.055
2151,-0.085,-0.075
2152,-0.075,-0.055
2153,-0.075,-0.045
2154,-0.065,-0.055
2155,-0.075,-0.055
2156,-0.075,-0.065
2157,0.035,-0.005
2158,0.035,0.075
2159,-0.015,0.045
2160,0.015,0.025
2161,0.025,-0.015
2162,0.005,-0.105
2163,-0.025,-0.085
2164,-0.055,-0.085
2165,-0.025,-0.075
2166,-0.075,-0.055
2167,-0.125,-0.105
2168,-0.125,-0.115
2169,-0.105,-0.105
2170,-0.095,-0.105
2171,-0.045,-0.095
2172,-0.185,-0.045
2173,-0.635,0.115
2174,-0.585,0.285
2175,0.705,0.335
2176,2.625,-0.155
2177,3.325,-0.935
2178,3.295,-1.325
2179,1.145,-1.055
2180,0.065,-0.465
2181,-0.275,-0.095
2182,-0.345,-0.005
2183,-0.365,-0.055
2184,-0.345,-0.045
2185,-0.335,-0.005
2186,-0.305,-0.015
2187,-0.345,-0.005
2188,-0.375,-0.045
2189,-0.335,-0.015
2190,-0.345,-0.015
2191,-0.335,-0.015
2192,-0.315,-0.015
2193,-0.335,-0.005
2194,-0.335,-0.005
2195,-0.325,-0.025
2196,-0.305,-0.005
2197,-0.285,0.005
2198,-0.285,-0.015
2199,-0.285,-0.005
2200,-0.255,0.025
2201,-0.205,0.015
2202,-0.155,-0.005
2203,-0.135,-0.005
2204,-0.075,0.015
2205,0.005,0.015
2206,0.055,0.025
2207,0.075,0.015
2208,0.095,0.025
2209,0.105,0.045
2210,0.095,0.095
2211,0.065,0.045
2212,0.025,0.075
2213,-0.025,0.065
2214,-0.075,0.045
2215,-0.125,0.025
2216,-0.145,0.045
2217,-0.145,0.045
2218,-0.145,0.025
2219,-0.145,0.015
2220,-0.135,0.005
2221,-0.125,-0.005
2222,-0.125,-0.005
2223,-0.125,-0.005
2224,-0.115,-0.005
2225,-0.095,0.005
2226,-0.075,0.005
2227,-0.085,0.015
2228,-0.085,0.005
2229,-0.085,0.005
2230,-0.095,-0.005
2231,-0.095,0.015
2232,-0.105,-0.015
2233,-0.115,-0.005
2234,-0.125,-0.015
2235,-0.135,-0.025
2236,-0.145,-0.025
2237,-0.135,-0.035
2238,-0.145,-0.035
2239,-0.165,-0.055
2240,-0.155,-0.045
2241,-0.145,-0.035
2242,-0.155,-0.035
2243,-0.165,-0.055
2244,-0.165,-0.045
2245,-0.175,-0.045
2246,-0.125,-0.035
2247,-0.035,0.015
2248,0.015,0.085
2249,-0.015,0.145
2250,0.105,0.125
2251,0.085,0.125
2252,0.065,0.005
2253,-0.035,-0.005
2254,-0.035,-0.055
2255,-0.105,-0.035
2256,-0.215,-0.065
2257,-0.235,-0.125
2258,-0.245,-0.085
2259,-0.215,-0.165
2260,-0.205,-0.105
2261,-0.205,-0.095
2262,-0.195,-0.105
2263,-0.155,-0.105
2264,-0.615,-0.005
2265,-0.845,0.155
2266,-0.105,0.385
2267,1.905,0.095
2268,3.065,-0.645
2269,3.445,-1.235
2270,1.755,-1.195
2271,0.185,-0.685
2272,-0.295,-0.215
2273,-0.405,-0.015
2274,-0.425,-0.025
2275,-0.435,-0.085
2276,-0.435,-0.075
2277,-0.425,-0.045
2278,-0.415,-0.045
2279,-0.415,-0.045
2280,-0.415,-0.025
2281,-0.415,-0.015
2282,-0.415,0.005
2283,-0.415,-0.015
2284,-0.405,-0.025
2285,-0.375,-0.025
2286,-0.385,-0.025
2287,-0.395,-0.005
2288,-0.375,0.005
2289,-0.365,-0.025
2290,-0.355,-0.025
2291,-0.345,-0.005
2292,-0.315,-0.035
2293,-0.255,-0.015
2294,-0.235,-0.005
2295,-0.185,-0.045
2296,-0.125,0.005
2297,-0.075,-0.015
2298,-0.025,-0.025
2299,-0.005,0.025
2300,0.015,-0.005
2301,0.035,0.025
2302,0.005,0.065
2303,-0.005,0.065
2304,-0.025,0.055
2305,-0.095,0.145
2306,-0.135,0.215
2307,-0.175,0.085
2308,-0.165,0.125
2309,-0.125,0.015
2310,-0.135,-0.085
2311,-0.145,-0.045
2312,-0.145,-0.025
2313,-0.135,0.005
2314,-0.135,0.015
2315,-0.135,-0.025
2316,-0.105,-0.015
2317,-0.095,0.015
2318,-0.095,-0.025
2319,-0.105,-0.005
2320,-0.105,-0.005
2321,-0.085,0.045
2322,-0.095,-0.035
2323,-0.115,-0.035
2324,-0.105,-0.015
2325,-0.115,-0.005
2326,-0.125,-0.005
2327,-0.135,-0.015
2328,-0.155,-0.015
2329,-0.145,-0.015
2330,-0.165,-0.025
2331,-0.175,-0.015
2332,-0.165,-0.005
2333,-0.155,-0.015
2334,-0.175,-0.035
2335,-0.175,-0.025
2336,-0.165,-0.045
2337,-0.155,-0.045
2338,-0.175,-0.035
2339,-0.175,-0.045
2340,-0.045,0.025
2341,-0.015,0.115
2342,-0.015,0.125
2343,0.085,0.105
2344,0.065,0.165
2345,0.025,0.025
2346,-0.035,-0.035
2347,-0.055,-0.045
2348,-0.125,0.015
2349,-0.205,-0.125
2350,-0.245,-0.125
2351,-0.235,-0.115
2352,-0.205,-0.105
2353,-0.195,-0.105
2354,-0.195,-0.105
2355,-0.155,-0.105
2356,-0.345,-0.085
2357,-0.745,0.055
2358,-0.555,0.255
2359,0.675,0.305
2360,2.455,0.005
2361,3.275,-0.715
2362,2.665,-1.115
2363,0.715,-0.925
2364,-0.125,-0.425
2365,-0.365,-0.085
2366,-0.415,-0.085
2367,-0.405,-0.095
2368,-0.395,-0.095
2369,-0.405,-0.075
2370,-0.405,-0.065
2371,-0.405,-0.055
2372,-0.395,-0.055
2373,-0.385,-0.055
2374,-0.395,-0.055
2375,-0.405,-0.015
2376,-0.375,-0.015
2377,-0.365,-0.055
2378,-0.355,-0.025
2379,-0.345,-0.065
2380,-0.355,-0.075
2381,-0.325,-0.075
2382,-0.315,-0.035
2383,-0.295,-0.095
2384,-0.275,-0.005
2385,-0.255,0.005
2386,-0.215,-0.105
2387,-0.185,-0.115
2388,-0.125,-0.085
2389,-0.065,-0.095
2390,-0.025,-0.125
2391,-0.015,-0.055
2392,0.015,-0.035
2393,0.055,-0.065
2394,0.045,-0.085
2395,0.035,-0.015
2396,0.015,-0.005
2397,-0.015,-0.005
2398,-0.075,0.005
2399,-0.105,0.025
2400,-0.115,0.035
2401,-0.145,0.025
2402,-0.145,-0.005
2403,-0.145,0.025
2404,-0.095,-0.005
2405,-0.125,-0.055
2406,-0.105,0.025
2407,-0.095,-0.005
2408,-0.085,-0.045
2409,-0.075,-0.015
2410,-0.085,-0.045
2411,-0.095,-0.035
2412,-0.085,-0.015
2413,-0.095,-0.005
2414,-0.095,-0.005
2415,-0.095,-0.045
2416,-0.105,-0.025
2417,-0.115,-0.025
2418,-0.145,-0.015
2419,-0.145,-0.045
2420,-0.145,-0.045
2421,-0.165,-0.025
2422,-0.195,-0.045
2423,-0.185,-0.055
2424,-0.185,-0.045
2425,-0.195,-0.015
2426,-0.195,-0.045
2427,-0.195,-0.065
2428,-0.205,-0.075
2429,-0.205,-0.055
2430,-0.215,-0.045
2431,-0.215,-0.075
2432,-0.205,-0.055
2433,-0.185,-0.065
2434,-0.185,-0.075
2435,-0.195,-0.085
2436,-0.165,-0.075
2437,-0.075,0.005
2438,-0.095,0.075
2439,-0.125,0.005
2440,0.005,0.005
2441,-0.005,0.035
2442,-0.045,-0.075
2443,-0.105,-0.075
2444,-0.135,-0.105
2445,-0.145,-0.065
2446,-0.195,-0.115
2447,-0.235,-0.125
2448,-0.205,-0.125
2449,-0.195,-0.115
2450,-0.195,-0.105
2451,-0.185,-0.095
2452,-0.175,-0.105
2453,-0.585,-0.005
2454,-0.685,0.145
2455,0.055,0.385
2456,1.965,0.215
2457,3.085,-0.335
2458,3.055,-0.985
2459,1.125,-0.945
2460,0.015,-0.605
2461,-0.315,-0.205
2462,-0.405,-0.065
2463,-0.425,-0.065
2464,-0.425,-0.105
2465,-0.405,-0.095
2466,-0.405,-0.085
2467,-0.405,-0.095
2468,-0.375,-0.085
2469,-0.395,-0.075
2470,-0.405,-0.075
2471,-0.385,-0.105
2472,-0.385,-0.085
2473,-0.365,-0.095
2474,-0.365,-0.095
2475,-0.365,-0.115
2476,-0.365,-0.105
2477,-0.345,-0.105
2478,-0.345,-0.115
2479,-0.335,-0.145
2480,-0.305,-0.145
2481,-0.275,-0.135
2482,-0.255,-0.155
2483,-0.195,-0.185
2484,-0.135,-0.205
2485,-0.105,-0.205
2486,-0.065,-0.205
2487,-0.035,-0.175
2488,-0.015,-0.155
2489,0.005,-0.155
2490,0.015,-0.145
2491,0.005,-0.125
2492,-0.015,-0.095
2493,-0.035,-0.065
2494,-0.065,-0.055
2495,-0.105,-0.055
2496,-0.125,-0.055
2497,-0.125,-0.045
2498,-0.155,-0.065
2499,-0.155,-0.045
2500,-0.135,-0.035
2501,-0.125,-0.075
2502,-0.105,-0.075
2503,-0.095,-0.085
2504,-0.085,-0.065
2505,-0.075,-0.065
2506,-0.075,-0.075
2507,-0.095,-0.055
2508,-0.095,-0.065
2509,-0.095,-0.065
2510,-0.125,-0.065
2511,-0.115,-0.065
2512,-0.155,-0.085
2513,-0.145,-0.105
2514,-0.135,-0.085
2515,-0.165,-0.035
2516,-0.175,-0.095
2517,-0.155,-0.105
2518,-0.165,-0.095
2519,-0.175,-0.105
2520,-0.185,-0.105
2521,-0.195,-0.095
2522,-0.195,-0.105
2523,-0.165,-0.095
2524,-0.195,-0.085
2525,-0.225,-0.115
2526,-0.185,-0.075
2527,-0.185,-0.105
2528,-0.185,-0.115
2529,-0.215,-0.075
2530,-0.145,-0.075
2531,-0.025,-0.005
2532,-0.065,-0.065
2533,-0.135,-0.145
2534,-0.135,-0.145
2535,-0.205,-0.135
2536,-0.225,-0.125
2537,-0.195,-0.125
2538,-0.205,-0.155
2539,-0.205,-0.145
2540,-0.185,-0.135
2541,-0.125,-0.105
2542,-0.405,-0.075
2543,-0.735,0.055
2544,-0.295,0.295
2545,1.345,0.425
2546,2.855,0.105
2547,3.375,-0.595
2548,1.685,-1.035
2549,0.135,-0.805
2550,-0.275,-0.405
2551,-0.365,-0.085
2552,-0.375,-0.105
2553,-0.375,-0.105
2554,-0.385,-0.105
2555,-0.375,-0.105
2556,-0.385,-0.125
2557,-0.355,-0.095
2558,-0.375,-0.095
2559,-0.355,-0.095
2560,-0.365,-0.095
2561,-0.345,-0.085
2562,-0.365,-0.105
2563,-0.375,-0.085
2564,-0.355,-0.125
2565,-0.325,-0.095
2566,-0.335,-0.135
2567,-0.305,-0.125
2568,-0.315,-0.125
2569,-0.295,-0.145
2570,-0.285,-0.135
2571,-0.255,-0.165
2572,-0.215,-0.165
2573,-0.175,-0.185
2574,-0.135,-0.175
2575,-0.105,-0.225
2576,-0.075,-0.215
2577,-0.035,-0.195
2578,-0.025,-0.195
2579,-0.035,-0.185
2580,-0.015,-0.145
2581,-0.025,-0.115
2582,-0.045,-0.095
2583,-0.065,-0.045
2584,-0.085,-0.045
2585,-0.105,-0.015
2586,-0.125,0.005
2587,-0.135,0.015
2588,-0.155,-0.035
2589,-0.135,0.025
2590,-0.135,-0.025
2591,-0.125,-0.025
2592,-0.105,-0.005
2593,-0.105,-0.015
2594,-0.115,-0.025
2595,-0.085,-0.025
2596,-0.095,-0.015
2597,-0.105,0.005
2598,-0.095,-0.025
2599,-0.095,-0.035
2600,-0.105,-0.055
2601,-0.095,-0.045
2602,-0.115,-0.025
2603,-0.155,-0.055
2604,-0.155,-0.035
2605,-0.145,-0.025
2606,-0.155,-0.065
2607,-0.185,-0.065
2608,-0.175,-0.025
2609,-0.185,-0.075
2610,-0.185,-0.045
2611,-0.195,-0.075
2612,-0.185,-0.075
2613,-0.175,-0.045
2614,-0.185,-0.035
2615,-0.205,-0.085
2616,-0.195,-0.115
2617,-0.185,-0.075
2618,-0.185,-0.075
2619,-0.195,-0.085
2620,-0.195,-0.065
2621,-0.155,-0.055
2622,-0.215,-0.015
2623,-0.175,-0.085
2624,-0.055,-0.065
2625,-0.085,-0.075
2626,-0.145,-0.135
2627,-0.135,-0.145
2628,-0.155,-0.095
2629,-0.195,-0.115
2630,-0.215,-0.145
2631,-0.185,-0.135
2632,-0.185,-0.125
2633,-0.155,-0.105
2634,-0.145,-0.065
2635,-0.575,-0.025
2636,-0.715,0.195
2637,0.075,0.365
2638,2.075,0.095
2639,3.085,-0.585
2640,3.265,-1.175
2641,1.485,-1.135
2642,0.105,-0.625
2643,-0.315,-0.195
2644,-0.405,-0.035
2645,-0.415,-0.045
2646,-0.405,-0.065
2647,-0.405,-0.095
2648,-0.405,-0.055
2649,-0.395,-0.055
2650,-0.395,-0.095
2651,-0.405,-0.075
2652,-0.395,-0.055
2653,-0.395,-0.045
2654,-0.385,-0.065
2655,-0.395,-0.055
2656,-0.365,-0.065
2657,-0.375,-0.035
2658,-0.375,-0.055
2659,-0.375,-0.085
2660,-0.355,-0.055
2661,-0.345,-0.065
2662,-0.325,-0.085
2663,-0.295,-0.105
2664,-0.265,-0.105
2665,-0.215,-0.085
2666,-0.185,-0.115
2667,-0.125,-0.105
2668,-0.085,-0.085
2669,-0.045,-0.115
2670,-0.025,-0.105
2671,-0.025,-0.095
2672,-0.005,-0.055
2673,-0.015,0.015
2674,-0.035,-0.055
2675,-0.085,-0.025
2676,-0.105,-0.005
2677,-0.145,0.015
2678,-0.175,0.015
2679,-0.205,0.005
2680,-0.185,0.005
2681,-0.185,0.005
2682,-0.175,-0.025
2683,-0.165,-0.015
2684,-0.155,-0.025
2685,-0.135,0.015
2686,-0.125,0.015
2687,-0.125,-0.045
2688,-0.125,-0.025
2689,-0.115,0.005
2690,-0.125,-0.025
2691,-0.125,-0.045
2692,-0.115,-0.025
2693,-0.115,-0.025
2694,-0.135,-0.015
2695,-0.135,-0.045
2696,-0.135,-0.035
2697,-0.135,-0.045
2698,-0.155,-0.005
2699,-0.175,-0.095
2700,-0.165,-0.085
2701,-0.175,-0.045
2702,-0.175,-0.055
2703,-0.195,-0.085
2704,-0.185,-0.065
2705,-0.195,-0.065
2706,-0.175,-0.065
2707,-0.195,-0.085
2708,-0.195,-0.085
2709,-0.195,-0.085
2710,-0.185,-0.065
2711,-0.205,-0.085
2712,-0.185,-0.105
2713,-0.175,-0.085
2714,-0.175,-0.095
2715,-0.205,-0.095
2716,-0.195,-0.095
2717,-0.175,-0.065
2718,-0.175,-0.055
2719,-0.185,-0.075
2720,-0.095,-0.035
2721,-0.055,-0.045
2722,-0.125,-0.105
2723,-0.175,-0.155
2724,-0.165,-0.135
2725,-0.175,-0.085
2726,-0.235,-0.135
2727,-0.225,-0.165
2728,-0.205,-0.145
2729,-0.175,-0.115
2730,-0.135,-0.105
2731,-0.245,-0.115
2732,-0.695,0.045
2733,-0.515,0.335
2734,0.875,0.225
2735,2.575,-0.175
2736,3.325,-0.865
2737,2.635,-1.175
2738,0.655,-0.905
2739,-0.145,-0.355
2740,-0.365,-0.095
2741,-0.415,-0.025
2742,-0.405,-0.065
2743,-0.415,-0.075
2744,-0.405,-0.075
2745,-0.395,-0.055
2746,-0.395,-0.065
2747,-0.395,-0.055
2748,-0.385,-0.045
2749,-0.395,-0.045
2750,-0.395,-0.035
2751,-0.385,-0.055
2752,-0.385,-0.065
2753,-0.385,-0.005
2754,-0.375,-0.075
2755,-0.365,-0.075
2756,-0.365,-0.075
2757,-0.345,-0.065
2758,-0.325,-0.075
2759,-0.295,-0.075
2760,-0.295,-0.085
2761,-0.235,-0.075
2762,-0.185,-0.105
2763,-0.125,-0.095
2764,-0.095,-0.115
2765,-0.045,-0.105
2766,-0.025,-0.095
2767,0.005,-0.085
2768,0.015,-0.065
2769,0.025,-0.035
2770,0.005,-0.015
2771,-0.025,-0.015
2772,-0.065,-0.015
2773,-0.095,0.005
2774,-0.125,0.055
2775,-0.155,-0.005
2776,-0.155,-0.015
2777,-0.165,-0.005
2778,-0.155,-0.025
2779,-0.155,-0.015
2780,-0.145,-0.015
2781,-0.145,-0.025
2782,-0.125,-0.015
2783,-0.115,-0.015
2784,-0.105,-0.035
2785,-0.085,-0.015
2786,-0.095,-0.015
2787,-0.105,-0.015
2788,-0.105,-0.025
2789,-0.085,-0.005
2790,-0.125,0.005
2791,-0.125,-0.055
2792,-0.145,-0.055
2793,-0.125,-0.035
2794,-0.145,-0.045
2795,-0.155,-0.055
2796,-0.155,-0.055
2797,-0.155,-0.055
2798,-0.165,-0.045
2799,-0.175,-0.075
2800,-0.165,-0.075
2801,-0.165,-0.025
2802,-0.165,-0.095
2803,-0.165,-0.075
2804,-0.165,-0.035
2805,-0.165,-0.075
2806,-0.155,-0.095
2807,-0.155,-0.085
2808,-0.135,-0.095
2809,-0.145,-0.065
2810,-0.145,-0.085
2811,-0.155,-0.095
2812,-0.145,-0.085
2813,-0.135,-0.065
2814,-0.135,-0.045
2815,-0.115,-0.055
2816,-0.135,-0.055
2817,-0.055,-0.005
2818,0.005,-0.045
2819,-0.055,-0.125
2820,-0.115,-0.135
2821,-0.085,-0.075
2822,-0.115,-0.115
2823,-0.165,-0.105
2824,-0.165,-0.095
2825,-0.135,-0.115
2826,-0.155,-0.105
2827,-0.125,-0.115
2828,-0.075,-0.095
2829,-0.465,-0.025
2830,-0.665,0.175
2831,0.005,0.365
2832,1.895,0.155
2833,3.075,-0.445
2834,3.225,-1.065
2835,1.325,-1.035
2836,0.115,-0.585
2837,-0.255,-0.185
2838,-0.345,-0.035
2839,-0.375,-0.035
2840,-0.355,-0.065
2841,-0.345,-0.065
2842,-0.335,-0.055
2843,-0.355,-0.065
2844,-0.335,-0.055
2845,-0.345,-0.045
2846,-0.335,-0.035
2847,-0.335,-0.045
2848,-0.325,-0.055
2849,-0.315,-0.065
2850,-0.325,-0.045
2851,-0.325,-0.065
2852,-0.315,-0.055
2853,-0.285,-0.035
2854,-0.285,-0.045
2855,-0.265,-0.095
2856,-0.265,-0.095
2857,-0.215,-0.065
2858,-0.185,-0.105
2859,-0.135,-0.135
2860,-0.085,-0.115
2861,-0.025,-0.115
2862,0.005,-0.115
2863,0.055,-0.125
2864,0.065,-0.085
2865,0.085,-0.095
2866,0.105,-0.065
2867,0.085,-0.035
2868,0.065,-0.015
2869,0.035,0.015
2870,0.005,0.005
2871,-0.045,0.005
2872,-0.065,0.005
2873,-0.095,0.015
2874,-0.085,0.005
2875,-0.105,-0.005
2876,-0.065,-0.015
2877,-0.065,0.005
2878,-0.045,-0.015
2879,-0.045,-0.005
2880,-0.025,-0.025
2881,-0.035,-0.015
2882,-0.015,0.005
2883,-0.025,0.005
2884,-0.015,-0.015
2885,-0.035,0.005
2886,-0.045,-0.025
2887,-0.045,-0.025
2888,-0.055,-0.015
2889,-0.045,-0.005
2890,-0.065,-0.015
2891,-0.065,-0.025
2892,-0.085,-0.025
2893,-0.075,-0.015
2894,-0.095,-0.015
2895,-0.105,-0.065
2896,-0.115,-0.055
2897,-0.115,-0.025
2898,-0.125,-0.045
2899,-0.115,-0.055
2900,-0.105,-0.025
2901,-0.095,-0.055
2902,-0.095,-0.055
2903,-0.115,-0.025
2904,-0.105,-0.075
2905,-0.105,-0.045
2906,-0.085,-0.065
2907,-0.105,-0.055
2908,-0.105,-0.065
2909,-0.095,-0.055
2910,-0.095,-0.045
2911,-0.085,-0.045
2912,-0.125,-0.055
2913,-0.005,0.005
2914,0.075,0.015
2915,0.005,-0.035
2916,-0.065,-0.085
2917,-0.035,-0.125
2918,-0.095,-0.075
2919,-0.135,-0.095
2920,-0.125,-0.085
2921,-0.085,-0.085
2922,-0.095,-0.085
2923,-0.075,-0.085
2924,-0.075,-0.095
2925,-0.445,0.025
2926,-0.535,0.175
2927,0.155,0.375
2928,2.045,0.345
2929,3.155,-0.055
2930,3.385,-0.745
2931,1.435,-0.895
2932,0.115,-0.685
2933,-0.225,-0.295
2934,-0.275,-0.085
2935,-0.315,-0.045
2936,-0.315,-0.065
2937,-0.285,-0.065
2938,-0.265,-0.065
2939,-0.295,-0.095
2940,-0.285,-0.075
2941,-0.275,-0.055
2942,-0.285,-0.055
2943,-0.275,-0.055
2944,-0.255,-0.075
2945,-0.255,-0.025
2946,-0.265,-0.085
2947,-0.275,-0.105
2948,-0.265,-0.085
2949,-0.245,-0.075
2950,-0.235,-0.075
2951,-0.215,-0.105
2952,-0.205,-0.125
2953,-0.155,-0.115
2954,-0.135,-0.135
2955,-0.095,-0.145
2956,-0.045,-0.165
2957,0.025,-0.175
2958,0.035,-0.165
2959,0.055,-0.185
2960,0.095,-0.155
2961,0.095,-0.105
2962,0.085,-0.115
2963,0.075,-0.085
2964,0.065,-0.055
2965,0.025,0.005
2966,-0.005,-0.025
2967,-0.025,0.005
2968,-0.025,0.015
2969,-0.055,0.025
2970,-0.065,0.015
2971,-0.065,0.005
2972,-0.055,0.025
2973,-0.045,0.035
2974,-0.015,0.035
2975,-0.025,0.025
2976,-0.015,0.005
2977,-0.005,0.035
2978,-0.015,0.035
2979,-0.025,0.035
2980,-0.015,0.025
2981,-0.005,0.035
2982,-0.035,0.035
2983,-0.025,0.005
2984,-0.035,0.025
2985,-0.045,0.025
2986,-0.065,0.045
2987,-0.065,-0.005
2988,-0.065,-0.015
2989,-0.065,0.015
2990,-0.075,-0.005
2991,-0.085,0.005
2992,-0.095,0.005
2993,-0.085,0.015
2994,-0.085,-0.015
2995,-0.075,-0.005
2996,-0.095,0.005
2997,-0.085,-0.005
2998,-0.085,-0.015
2999,-0.085,-0.015
3000,-0.085,-0.015
3001,-0.085,-0.005
3002,-0.085,-0.015
3003,-0.095,-0.015
3004,-0.105,-0.035
3005,-0.095,-0.015
3006,-0.095,-0.015
3007,-0.065,-0.005
3008,-0.095,-0.015
3009,-0.055,0.005
3010,0.035,0.015
3011,-0.015,-0.055
3012,-0.055,-0.075
3013,-0.055,-0.075
3014,-0.065,-0.035
3015,-0.105,-0.055
3016,-0.135,-0.065
3017,-0.115,-0.075
3018,-0.105,-0.065
3019,-0.085,-0.045
3020,-0.025,-0.085
3021,-0.325,-0.045
3022,-0.665,0.145
3023,-0.295,0.345
3024,1.335,0.275
3025,2.925,-0.075
3026,3.495,-0.775
3027,2.545,-1.125
3028,0.565,-0.865
3029,-0.095,-0.345
3030,-0.285,-0.055
3031,-0.335,-0.025
3032,-0.325,-0.005
3033,-0.305,-0.055
3034,-0.305,-0.055
3035,-0.325,-0.055
3036,-0.305,-0.045
3037,-0.315,-0.025
3038,-0.305,-0.025
3039,-0.315,-0.025
3040,-0.315,-0.035
3041,-0.305,-0.025
3042,-0.295,-0.025
3043,-0.305,-0.065
3044,-0.285,-0.055
3045,-0.285,-0.055
3046,-0.285,-0.055
3047,-0.265,-0.055
3048,-0.255,-0.065
3049,-0.225,-0.045
3050,-0.195,-0.075
3051,-0.155,-0.075
3052,-0.105,-0.105
3053,-0.035,-0.095
3054,-0.005,-0.095
3055,0.035,-0.095
3056,0.065,-0.085
3057,0.085,-0.065
3058,0.085,-0.075
3059,0.085,-0.045
3060,0.055,-0.035
3061,0.025,-0.005
3062,-0.015,0.005
3063,-0.065,0.015
3064,-0.095,0.015
3065,-0.115,0.065
3066,-0.125,-0.015
3067,-0.135,-0.015
3068,-0.125,-0.015
3069,-0.115,-0.005
3070,-0.095,-0.005
3071,-0.095,-0.035
3072,-0.075,-0.005
3073,-0.085,-0.015
3074,-0.075,-0.015
3075,-0.085,0.005
3076,-0.075,-0.015
3077,-0.065,-0.005
3078,-0.065,-0.005
3079,-0.085,-0.015
3080,-0.085,0.015
3081,-0.085,-0.035
3082,-0.115,-0.025
3083,-0.105,-0.045
3084,-0.125,-0.025
3085,-0.115,-0.025
3086,-0.135,-0.055
3087,-0.125,-0.045
3088,-0.145,-0.055
3089,-0.145,-0.045
3090,-0.155,-0.055
3091,-0.145,-0.055
3092,-0.155,-0.045
3093,-0.145,-0.055
3094,-0.145,-0.065
3095,-0.145,-0.035
3096,-0.135,-0.095
3097,-0.135,-0.075
3098,-0.125,-0.085
3099,-0.135,-0.075
3100,-0.115,-0.075
3101,-0.115,-0.075
3102,-0.125,-0.085
3103,-0.135,-0.095
3104,-0.115,-0.085
3105,-0.115,-0.065
3106,-0.115,-0.085
3107,-0.125,-0.065
3108,-0.105,-0.025
3109,-0.075,-0.075
3110,-0.135,-0.035
3111,-0.075,-0.045
3112,-0.005,-0.025
3113,-0.035,-0.085
3114,-0.105,-0.115
3115,-0.095,-0.125
3116,-0.115,-0.085
3117,-0.135,-0.085
3118,-0.165,-0.095
3119,-0.135,-0.115
3120,-0.125,-0.105
3121,-0.075,-0.095
3122,-0.135,-0.095
3123,-0.575,0.025
3124,-0.595,0.195
3125,0.375,0.385
3126,2.325,0.055
3127,3.225,-0.605
3128,3.135,-1.135
3129,1.055,-0.995
3130,-0.015,-0.455
3131,-0.315,-0.125
3132,-0.365,0.005
3133,-0.375,-0.035
3134,-0.375,-0.055
3135,-0.375,-0.055
3136,-0.375,-0.045
3137,-0.365,-0.025
3138,-0.365,-0.035
3139,-0.375,-0.025
3140,-0.355,0.005
3141,-0.365,-0.045
3142,-0.355,-0.045
3143,-0.355,-0.045
3144,-0.345,-0.025
3145,-0.335,-0.025
3146,-0.335,-0.045
3147,-0.325,-0.045
3148,-0.325,-0.055
3149,-0.295,-0.035
3150,-0.275,-0.055
3151,-0.235,-0.065
3152,-0.205,-0.055
3153,-0.155,-0.065
3154,-0.105,-0.055
3155,-0.055,-0.115
3156,-0.005,-0.075
3157,0.035,-0.085
3158,0.045,-0.055
3159,0.075,-0.055
3160,0.075,-0.015
3161,0.065,-0.005
3162,0.045,-0.005
3163,-0.005,0.025
3164,-0.045,0.015
3165,-0.085,0.035
3166,-0.115,0.025
3167,-0.145,0.025
3168,-0.135,0.005
3169,-0.145,0.005
3170,-0.125,0.015
3171,-0.135,-0.025
3172,-0.115,-0.015
3173,-0.115,0.015
3174,-0.105,-0.005
3175,-0.095,-0.025
3176,-0.095,-0.005
3177,-0.095,0.005
3178,-0.105,-0.005
3179,-0.095,-0.005
3180,-0.115,-0.005
3181,-0.105,-0.005
3182,-0.125,-0.005
3183,-0.125,0.005
3184,-0.135,-0.035
3185,-0.135,-0.015
3186,-0.155,-0.015
3187,-0.165,-0.045
3188,-0.175,-0.045
3189,-0.155,-0.025
3190,-0.165,-0.045
3191,-0.185,-0.035
3192,-0.175,-0.055
3193,-0.185,-0.045
3194,-0.165,-0.045
3195,-0.175,-0.065
3196,-0.175,-0.055
3197,-0.175,-0.055
3198,-0.165,-0.055
3199,-0.175,-0.085
3200,-0.165,-0.035
3201,-0.165,-0.075
3202,-0.155,-0.085
3203,-0.165,-0.065
3204,-0.155,-0.075
3205,-0.165,-0.065
3206,-0.165,-0.075
3207,-0.155,-0.055
3208,-0.165,-0.065
3209,-0.145,-0.065
3210,-0.175,-0.065
3211,-0.155,-0.065
3212,-0.185,-0.035
3213,-0.135,-0.025
3214,-0.035,-0.005
3215,-0.045,-0.025
3216,-0.115,-0.125
3217,-0.115,-0.105
3218,-0.125,-0.055
3219,-0.165,-0.105
3220,-0.175,-0.105
3221,-0.155,-0.095
3222,-0.155,-0.095
3223,-0.135,-0.085
3224,-0.075,-0.095
3225,-0.335,-0.055
3226,-0.635,0.055
3227,-0.235,0.295
3228,1.305,0.305
3229,2.765,0.055
3230,3.345,-0.615
3231,2.145,-0.945
3232,0.475,-0.785
3233,-0.115,-0.305
3234,-0.285,-0.105
3235,-0.335,-0.065
3236,-0.325,-0.075
3237,-0.315,-0.045
3238,-0.315,-0.065
3239,-0.315,-0.065
3240,-0.295,-0.055
3241,-0.305,-0.065
3242,-0.305,-0.055
3243,-0.305,-0.055
3244,-0.295,-0.055
3245,-0.295,-0.045
3246,-0.295,-0.055
3247,-0.295,-0.065
3248,-0.295,-0.065
3249,-0.275,-0.065
3250,-0.265,-0.085
3251,-0.265,-0.095
3252,-0.255,-0.075
3253,-0.225,-0.075
3254,-0.195,-0.095
3255,-0.165,-0.135
3256,-0.115,-0.125
3257,-0.065,-0.125
3258,-0.015,-0.135
3259,0.005,-0.145
3260,0.055,-0.135
3261,0.095,-0.105
3262,0.115,-0.085
3263,0.095,-0.075
3264,0.085,-0.045
3265,0.045,-0.025
3266,0.015,0.015
3267,-0.025,0.005
3268,-0.065,0.005
3269,-0.075,0.025
3270,-0.105,0.005
3271,-0.105,0.015
3272,-0.095,0.045
3273,-0.075,-0.005
3274,-0.075,-0.005
3275,-0.065,-0.035
3276,-0.045,-0.015
3277,-0.035,0.005
3278,-0.045,0.005
3279,-0.055,0.005
3280,-0.055,0.005
3281,-0.055,0.005
3282,-0.065,-0.005
3283,-0.095,0.015
3284,-0.075,-0.015
3285,-0.075,0.005
3286,-0.085,-0.005
3287,-0.105,-0.005
3288,-0.095,-0.025
3289,-0.105,-0.015
3290,-0.105,-0.025
3291,-0.115,-0.015
3292,-0.115,-0.045
3293,-0.125,-0.025
3294,-0.125,-0.025
3295,-0.135,-0.055
3296,-0.125,-0.035
3297,-0.115,-0.035
3298,-0.125,-0.045
3299,-0.125,-0.065
3300,-0.115,-0.045
3301,-0.115,-0.025
3302,-0.105,-0.045
3303,-0.105,-0.055
3304,-0.095,-0.045
3305,-0.105,-0.055
3306,-0.095,-0.035
3307,-0.095,-0.045
3308,-0.105,-0.045
3309,-0.085,-0.035
3310,-0.095,-0.045
3311,-0.075,-0.045
3312,-0.095,-0.045
3313,-0.105,0.005
3314,-0.075,-0.055
3315,0.015,0.005
3316,0.055,0.005
3317,-0.015,-0.055
3318,-0.055,-0.105
3319,-0.035,-0.085
3320,-0.095,-0.055
3321,-0.105,-0.045
3322,-0.105,-0.055
3323,-0.105,-0.055
3324,-0.075,-0.035
3325,-0.025,-0.055
3326,-0.085,-0.045
3327,-0.485,0.025
3328,-0.395,0.205
3329,0.555,0.425
3330,2.375,0.415
3331,3.205,-0.035
3332,3.085,-0.685
3333,1.115,-0.805
3334,0.085,-0.525
3335,-0.215,-0.175
3336,-0.285,0.005
3337,-0.255,-0.015
3338,-0.255,-0.035
3339,-0.255,-0.045
3340,-0.265,-0.045
3341,-0.245,-0.025
3342,-0.245,-0.025
3343,-0.275,-0.065
3344,-0.255,-0.015
3345,-0.235,-0.045
3346,-0.235,-0.015
3347,-0.215,-0.065
3348,-0.225,-0.075
3349,-0.235,-0.055
3350,-0.265,-0.065
3351,-0.255,-0.055
3352,-0.225,-0.085
3353,-0.205,-0.075
3354,-0.175,-0.085
3355,-0.155,-0.095
3356,-0.125,-0.105
3357,-0.085,-0.115
3358,-0.035,-0.165
3359,-0.005,-0.165
3360,0.045,-0.165
3361,0.085,-0.165
3362,0.105,-0.145
3363,0.105,-0.155
3364,0.115,-0.135
3365,0.135,-0.085
3366,0.095,-0.065
3367,0.075,-0.035
3368,0.035,0.005
3369,0.065,-0.005
3370,-0.025,0.005
3371,-0.035,0.035
3372,-0.015,0.005
3373,-0.055,0.045
3374,-0.055,0.025
3375,-0.045,-0.005
3376,-0.045,0.055
3377,0.015,0.055
3378,-0.025,0.035
3379,-0.025,0.025
3380,-0.015,0.055
3381,-0.005,0.025
3382,0.045,-0.005
3383,-0.005,-0.055
3384,-0.025,-0.015
3385,-0.035,0.045
3386,-0.035,0.045
3387,-0.065,-0.015
3388,-0.055,-0.015
3389,-0.025,0.005
3390,-0.045,-0.025
3391,-0.105,-0.025
3392,-0.045,-0.015
3393,-0.045,-0.035
3394,-0.125,-0.005
3395,-0.105,-0.005
3396,-0.095,-0.005
3397,-0.085,-0.015
3398,-0.075,-0.035
3399,-0.085,-0.025
3400,-0.085,-0.045
3401,-0.075,-0.015
3402,-0.085,-0.025
3403,-0.075,-0.035
3404,-0.085,-0.025
3405,-0.075,-0.035
3406,-0.075,-0.035
3407,-0.075,-0.045
3408,-0.085,0.005
3409,-0.065,-0.045
3410,-0.085,-0.035
3411,-0.055,-0.035
3412,0.015,0.065
3413,0.075,-0.015
3414,-0.005,-0.075
3415,-0.045,-0.085
3416,-0.035,-0.065
3417,-0.065,-0.045
3418,-0.105,-0.065
3419,-0.105,-0.065
3420,-0.095,-0.065
3421,-0.075,-0.045
3422,-0.045,-0.045
3423,-0.115,-0.055
3424,-0.515,0.055
3425,-0.525,0.225
3426,0.335,0.385
3427,2.275,0.265
3428,3.205,-0.225
3429,3.155,-0.855
3430,1.065,-0.935
3431,0.055,-0.505
3432,-0.235,-0.115
3433,-0.305,-0.005
3434,-0.295,0.035
3435,-0.265,-0.035
3436,-0.305,-0.045
3437,-0.295,-0.015
3438,-0.305,-0.005
3439,-0.285,-0.025
3440,-0.305,-0.015
3441,-0.305,0.005
3442,-0.295,-0.005
3443,-0.295,-0.005
3444,-0.275,-0.025
3445,-0.265,0.035
3446,-0.275,-0.025
3447,-0.275,-0.025
3448,-0.275,-0.025
3449,-0.275,-0.015
3450,-0.245,-0.015
3451,-0.235,-0.035
3452,-0.215,-0.045
3453,-0.115,-0.075
3454,-0.145,-0.085
3455,-0.105,-0.075
3456,-0.045,-0.105
3457,-0.005,-0.095
3458,0.025,-0.085
3459,0.045,-0.095
3460,0.055,-0.085
3461,0.075,-0.045
3462,0.075,-0.045
3463,0.025,-0.005
3464,-0.025,0.005
3465,-0.045,0.035
3466,-0.095,0.035
3467,-0.135,0.065
3468,-0.135,0.065
3469,-0.135,0.045
3470,-0.165,0.025
3471,-0.145,0.045
3472,-0.155,0.055
3473,-0.135,0.045
3474,-0.115,0.045
3475,-0.105,0.025
3476,-0.085,0.055
3477,-0.095,0.055
3478,-0.095,0.045
3479,-0.105,0.045
3480,-0.095,0.065
3481,-0.095,0.045
3482,-0.115,0.065
3483,-0.125,0.015
3484,-0.115,0.065
3485,-0.125,0.025
3486,-0.145,0.025
3487,-0.155,0.015
3488,-0.165,0.035
3489,-0.165,0.065
3490,-0.175,0.025
3491,-0.185,0.025
3492,-0.195,0.005
3493,-0.155,0.015
3494,-0.175,-0.005
3495,-0.175,-0.005
3496,-0.175,0.015
3497,-0.145,-0.015
3498,-0.175,-0.035
3499,-0.165,-0.025
3500,-0.155,-0.015
3501,-0.145,-0.015
3502,-0.135,-0.025
3503,-0.125,-0.005
3504,-0.115,-0.005
3505,-0.155,-0.025
3506,-0.125,-0.025
3507,-0.165,-0.055
3508,-0.165,-0.055
3509,-0.135,-0.045
3510,-0.145,-0.055
3511,-0.135,-0.055
3512,-0.125,-0.035
3513,-0.135,-0.035
3514,-0.055,0.005
3515,-0.035,-0.005
3516,-0.075,-0.105
3517,-0.105,-0.125
3518,-0.095,-0.095
3519,-0.125,-0.065
3520,-0.165,-0.075
3521,-0.165,-0.085
3522,-0.155,-0.105
3523,-0.135,-0.115
3524,-0.095,-0.085
3525,-0.155,-0.065
3526,-0.585,0.035
3527,-0.525,0.225
3528,0.535,0.285
3529,2.475,0.095
3530,3.295,-0.565
3531,2.695,-1.005
3532,0.715,-0.845
3533,-0.045,-0.365
3534,-0.295,-0.075
3535,-0.345,-0.045
3536,-0.335,-0.055
3537,-0.335,-0.055
3538,-0.335,-0.055
3539,-0.335,-0.045
3540,-0.335,-0.065
3541,-0.325,-0.055
3542,-0.335,-0.055
3543,-0.335,-0.055
3544,-0.325,-0.045
3545,-0.325,-0.045
3546,-0.325,-0.045
3547,-0.315,-0.055
3548,-0.315,-0.085
3549,-0.305,-0.065
3550,-0.305,-0.055
3551,-0.285,-0.085
3552,-0.265,-0.085
3553,-0.245,-0.095
3554,-0.205,-0.105
3555,-0.185,-0.125
3556,-0.125,-0.105
3557,-0.065,-0.125
3558,-0.015,-0.135
3559,0.025,-0.145
3560,0.055,-0.105
3561,0.095,-0.075
3562,0.085,-0.085
3563,0.085,-0.075
3564,0.065,-0.045
3565,0.045,-0.015
3566,-0.005,0.025
3567,-0.045,-0.005
3568,-0.075,0.025
3569,-0.125,0.025
3570,-0.145,0.005
3571,-0.145,-0.005
3572,-0.145,0.005
3573,-0.135,-0.015
3574,-0.115,-0.025
3575,-0.115,-0.025
3576,-0.095,-0.025
3577,-0.095,-0.015
3578,-0.095,0.025
3579,-0.095,-0.025
3580,-0.105,-0.015
3581,-0.095,-0.025
3582,-0.095,-0.025
3583,-0.105,-0.045
3584,-0.105,-0.035
3585,-0.115,-0.015
3586,-0.125,-0.015
3587,-0.125,-0.015
3588,-0.125,-0.045
3589,-0.135,-0.045
3590,-0.165,-0.045
3591,-0.165,-0.045
3592,-0.175,-0.075
3593,-0.155,-0.065
3594,-0.165,-0.055
3595,-0.155,-0.075
3596,-0.175,-0.075
3597,-0.155,-0.065
3598,-0.165,-0.065
3599,-0.165,-0.095
3600,-0.155,-0.095
3601,-0.155,-0.065
3602,-0.155,-0.085
3603,-0.155,-0.045
3604,-0.155,-0.115
3605,-0.155,-0.105
3606,-0.145,-0.105
3607,-0.155,-0.085
3608,-0.145,-0.105
3609,-0.125,-0.065
3610,-0.125,-0.095
3611,-0.135,-0.105
3612,-0.125,-0.085
3613,-0.125,-0.065
3614,-0.115,-0.085
3615,-0.135,-0.095
3616,-0.055,-0.035
3617,0.005,-0.025
3618,-0.065,-0.105
3619,-0.105,-0.185
3620,-0.105,-0.145
3621,-0.115,-0.115
3622,-0.155,-0.115
3623,-0.165,-0.125
3624,-0.155,-0.115
3625,-0.125,-0.125
3626,-0.105,-0.115
3627,-0.135,-0.105
3628,-0.545,-0.015
3629,-0.555,0.155
3630,0.295,0.315
3631,2.195,0.185
3632,3.115,-0.375
3633,3.075,-0.885
3634,1.265,-0.935
3635,0.115,-0.575
3636,-0.255,-0.225
3637,-0.315,-0.065
3638,-0.335,-0.095
3639,-0.335,-0.115
3640,-0.335,-0.095
3641,-0.315,-0.125
3642,-0.305,-0.135
3643,-0.335,-0.155
3644,-0.325,-0.115
3645,-0.315,-0.115
3646,-0.315,-0.125
3647,-0.315,-0.145
3648,-0.305,-0.135
3649,-0.315,-0.125
3650,-0.315,-0.145
3651,-0.315,-0.145
3652,-0.305,-0.135
3653,-0.295,-0.135
3654,-0.275,-0.135
3655,-0.255,-0.195
3656,-0.235,-0.185
3657,-0.205,-0.195
3658,-0.145,-0.215
3659,-0.095,-0.215
3660,-0.045,-0.245
3661,0.005,-0.225
3662,0.025,-0.225
3663,0.055,-0.195
3664,0.075,-0.145
3665,0.095,-0.195
3666,0.055,-0.165
3667,0.045,-0.105
3668,0.005,-0.125
3669,-0.025,-0.065
3670,-0.075,-0.085
3671,-0.105,-0.065
3672,-0.125,-0.075
3673,-0.145,-0.065
3674,-0.135,-0.085
3675,-0.135,-0.085
3676,-0.105,-0.115
3677,-0.105,-0.105
3678,-0.095,-0.075
3679,-0.085,-0.105
3680,-0.075,-0.065
3681,-0.085,-0.075
3682,-0.085,-0.115
3683,-0.095,-0.085
3684,-0.095,-0.065
3685,-0.095,-0.085
3686,-0.105,-0.085
3687,-0.115,-0.085
3688,-0.115,-0.085
3689,-0.125,-0.065
3690,-0.125,-0.075
3691,-0.125,-0.105
3692,-0.135,-0.075
3693,-0.135,-0.085
3694,-0.135,-0.085
3695,-0.155,-0.105
3696,-0.165,-0.105
3697,-0.135,-0.115
3698,-0.135,-0.105
3699,-0.155,-0.125
3700,-0.135,-0.095
3701,-0.135,-0.095
3702,-0.135,-0.135
3703,-0.145,-0.115
3704,-0.155,-0.095
3705,-0.145,-0.085
3706,-0.135,-0.065
3707,-0.155,-0.115
3708,-0.125,-0.105
3709,-0.125,-0.105
3710,-0.075,-0.125
3711,-0.145,-0.125
3712,-0.115,-0.075
3713,-0.135,-0.085
3714,-0.135,-0.075
3715,-0.165,-0.085
3716,-0.085,-0.075
3717,0.035,-0.015
3718,-0.015,-0.095
3719,-0.085,-0.165
3720,-0.105,-0.155
3721,-0.095,-0.095
3722,-0.115,-0.135
3723,-0.155,-0.105
3724,-0.135,-0.115
3725,-0.115,-0.085
3726,-0.115,-0.135
3727,-0.075,-0.115
3728,-0.385,-0.055
3729,-0.605,0.095
3730,-0.115,0.345
3731,1.605,0.375
3732,2.975,0.055
3733,3.365,-0.655
3734,1.515,-0.975
3735,0.135,-0.675
3736,-0.245,-0.275
3737,-0.325,-0.065
3738,-0.335,-0.065
3739,-0.345,-0.065
3740,-0.325,-0.095
3741,-0.315,-0.095
3742,-0.295,-0.085
3743,-0.325,-0.095
3744,-0.325,-0.085
3745,-0.315,-0.085
3746,-0.295,-0.105
3747,-0.325,-0.115
3748,-0.305,-0.065
3749,-0.285,-0.095
3750,-0.305,-0.105
3751,-0.285,-0.085
3752,-0.255,-0.135
3753,-0.255,-0.135
3754,-0.245,-0.115
3755,-0.225,-0.155
3756,-0.195,-0.145
3757,-0.185,-0.155
3758,-0.125,-0.135
3759,-0.075,-0.185
3760,-0.025,-0.195
3761,0.035,-0.175
3762,0.045,-0.195
3763,0.085,-0.165
3764,0.085,-0.165
3765,0.085,-0.135
3766,0.085,-0.105
3767,0.065,-0.095
3768,0.045,-0.055
3769,-0.005,-0.045
3770,-0.055,-0.005
3771,-0.095,0.015
3772,-0.105,0.005
3773,-0.095,0.025
3774,-0.095,0.005
3775,-0.115,-0.025
3776,-0.105,0.025
3777,-0.085,0.015
3778,-0.075,-0.015
3779,-0.085,0.005
3780,-0.065,0.005
3781,-0.065,0.025
3782,-0.075,0.005
3783,-0.065,-0.005
3784,-0.065,0.005
3785,-0.065,-0.005
3786,-0.095,-0.015
3787,-0.085,-0.025
3788,-0.105,0.025
3789,-0.115,0.005
3790,-0.115,0.015
3791,-0.135,-0.055
3792,-0.125,-0.035
3793,-0.155,-0.015
3794,-0.155,-0.015
3795,-0.165,-0.045
3796,-0.135,-0.025
3797,-0.125,-0.035
3798,-0.155,-0.045
3799,-0.155,-0.035
3800,-0.155,-0.055
3801,-0.135,-0.065
3802,-0.155,-0.035
3803,-0.165,-0.075
3804,-0.155,-0.055
3805,-0.155,-0.065
3806,-0.155,-0.065
3807,-0.165,-0.065
3808,-0.155,-0.075
3809,-0.145,-0.065
3810,-0.155,-0.065
3811,-0.165,-0.045
3812,-0.135,-0.035
3813,-0.145,-0.055
3814,-0.155,-0.055
3815,-0.065,0.005
3816,-0.045,-0.015
3817,-0.095,-0.105
3818,-0.155,-0.115
3819,-0.115,-0.095
3820,-0.145,-0.085
3821,-0.185,-0.105
3822,-0.195,-0.075
3823,-0.175,-0.065
3824,-0.145,-0.095
3825,-0.115,-0.065
3826,-0.275,-0.055
3827,-0.705,0.115
3828,-0.495,0.315
3829,0.955,0.295
3830,2.785,-0.085
3831,3.455,-0.785
3832,2.425,-1.115
3833,0.545,-0.825
3834,-0.145,-0.325
3835,-0.355,-0.065
3836,-0.385,-0.025
3837,-0.375,-0.025
3838,-0.385,-0.075
3839,-0.365,-0.075
3840,-0.375,-0.065
3841,-0.375,-0.075
3842,-0.375,-0.045
3843,-0.385,-0.065
3844,-0.375,-0.015
3845,-0.375,-0.065
3846,-0.365,-0.075
3847,-0.375,-0.075
3848,-0.355,-0.055
3849,-0.355,-0.035
3850,-0.345,-0.095
3851,-0.335,-0.095
3852,-0.325,-0.095
3853,-0.305,-0.085
3854,-0.285,-0.095
3855,-0.255,-0.095
3856,-0.205,-0.115
3857,-0.175,-0.075
3858,-0.105,-0.125
3859,-0.075,-0.165
3860,0.005,-0.125
3861,0.015,-0.085
3862,0.035,-0.115
3863,0.055,-0.125
3864,0.065,-0.105
3865,0.025,-0.055
3866,-0.005,-0.025
3867,-0.055,-0.015
3868,-0.105,-0.005
3869,-0.145,0.015
3870,-0.165,0.015
3871,-0.215,0.045
3872,-0.195,-0.035
3873,-0.195,-0.015
3874,-0.185,-0.045
3875,-0.195,-0.035
3876,-0.195,-0.015
3877,-0.175,0.005
3878,-0.155,-0.015
3879,-0.155,-0.015
3880,-0.135,-0.015
3881,-0.125,-0.015
3882,-0.145,-0.025
3883,-0.125,-0.035
3884,-0.145,-0.035
3885,-0.135,0.025
3886,-0.155,-0.025
3887,-0.145,-0.045
3888,-0.165,-0.035
3889,-0.175,-0.025
3890,-0.165,-0.005
3891,-0.175,-0.065
3892,-0.185,-0.025
3893,-0.185,-0.035
3894,-0.205,-0.045
3895,-0.225,-0.035
3896,-0.205,-0.025
3897,-0.195,-0.025
3898,-0.205,-0.075
3899,-0.205,-0.055
3900,-0.195,-0.045
3901,-0.185,-0.065
3902,-0.185,-0.035
3903,-0.195,-0.055
3904,-0.195,-0.075
3905,-0.185,-0.055
3906,-0.195,-0.055
3907,-0.185,-0.035
3908,-0.185,-0.085
3909,-0.165,-0.105
3910,-0.185,-0.055
3911,-0.175,-0.065
3912,-0.185,-0.065
3913,-0.185,-0.065
3914,-0.195,-0.075
3915,-0.155,-0.085
3916,-0.195,-0.025
3917,-0.135,-0.055
3918,-0.035,-0.015
3919,-0.075,-0.085
3920,-0.135,-0.105
3921,-0.135,-0.115
3922,-0.145,-0.095
3923,-0.165,-0.075
3924,-0.205,-0.135
3925,-0.175,-0.075
3926,-0.155,-0.115
3927,-0.145,-0.115
3928,-0.085,-0.065
3929,-0.425,-0.005
3930,-0.675,0.125
3931,-0.275,0.375
3932,1.325,0.255
3933,2.815,-0.165
3934,3.395,-0.805
3935,2.175,-1.055
3936,0.425,-0.755
3937,-0.175,-0.255
3938,-0.355,-0.005
3939,-0.375,-0.035
3940,-0.375,-0.075
3941,-0.375,-0.065
3942,-0.355,-0.035
3943,-0.365,-0.055
3944,-0.365,-0.055
3945,-0.385,-0.025
3946,-0.365,-0.015
3947,-0.365,-0.055
3948,-0.355,-0.065
3949,-0.345,-0.035
3950,-0.355,0.005
3951,-0.335,-0.075
3952,-0.335,-0.055
3953,-0.325,-0.035
3954,-0.315,-0.045
3955,-0.295,-0.075
3956,-0.285,-0.115
3957,-0.245,-0.065
3958,-0.215,-0.085
3959,-0.175,-0.085
3960,-0.125,-0.105
3961,-0.055,-0.125
3962,0.005,-0.125
3963,0.015,-0.105
3964,0.065,-0.105
3965,0.075,-0.115
3966,0.085,-0.075
3967,0.085,-0.055
3968,0.065,-0.035
3969,0.005,-0.015
3970,-0.065,0.035
3971,-0.095,0.005
3972,-0.135,-0.015
3973,-0.175,0.045
3974,-0.185,0.015
3975,-0.175,-0.005
3976,-0.185,0.015
3977,-0.165,-0.015
3978,-0.155,-0.015
3979,-0.125,-0.045
3980,-0.135,-0.045
3981,-0.115,0.005
3982,-0.135,-0.015
3983,-0.105,-0.005
3984,-0.135,-0.045
3985,-0.115,-0.015
3986,-0.085,-0.045
3987,-0.115,-0.035
3988,-0.125,-0.025
3989,-0.135,-0.015
3990,-0.115,0.025
3991,-0.125,-0.025
3992,-0.145,-0.035
3993,-0.155,-0.035
3994,-0.155,-0.055
3995,-0.185,-0.045
3996,-0.165,-0.065
3997,-0.165,-0.045
3998,-0.185,-0.055
3999,-0.195,-0.045
4000,-0.185,-0.055
4001,-0.175,-0.045
4002,-0.175,-0.075
4003,-0.175,-0.035
4004,-0.155,-0.075
4005,-0.145,-0.115
4006,-0.155,-0.045
4007,-0.165,-0.085
4008,-0.165,-0.105
4009,-0.155,-0.055
4010,-0.155,-0.085
4011,-0.155,-0.105
4012,-0.165,-0.065
4013,-0.145,-0.065
4014,-0.145,-0.075
4015,-0.135,-0.085
4016,-0.155,-0.075
4017,-0.145,-0.035
4018,-0.155,-0.085
4019,-0.175,-0.095
4020,-0.145,-0.055
4021,-0.055,-0.015
4022,0.005,-0.025
4023,-0.085,-0.105
4024,-0.125,-0.165
4025,-0.085,-0.115
4026,-0.125,-0.105
4027,-0.175,-0.125
4028,-0.155,-0.095
4029,-0.135,-0.105
4030,-0.135,-0.105
4031,-0.105,-0.065
4032,-0.125,-0.095
4033,-0.545,0.005
4034,-0.555,0.205
4035,0.525,0.395
4036,2.475,0.265
4037,3.365,-0.405
4038,2.665,-0.965
4039,0.635,-0.855
4040,-0.065,-0.435
4041,-0.285,-0.115
4042,-0.325,-0.055
4043,-0.325,-0.095
4044,-0.335,-0.095
4045,-0.325,-0.065
4046,-0.315,-0.085
4047,-0.335,-0.095
4048,-0.305,-0.085
4049,-0.315,-0.095
4050,-0.325,-0.105
4051,-0.305,-0.075
4052,-0.315,-0.105
4053,-0.305,-0.095
4054,-0.295,-0.085
4055,-0.285,-0.105
4056,-0.275,-0.125
4057,-0.265,-0.095
4058,-0.245,-0.105
4059,-0.255,-0.135
4060,-0.235,-0.155
4061,-0.185,-0.105
4062,-0.165,-0.205
4063,-0.095,-0.185
4064,-0.045,-0.185
4065,-0.005,-0.155
4066,0.055,-0.175
4067,0.105,-0.195
4068,0.095,-0.175
4069,0.115,-0.185
4070,0.115,-0.115
4071,0.095,-0.115
4072,0.065,-0.075
4073,0.015,-0.025
4074,-0.045,-0.005
4075,-0.055,0.005
4076,-0.095,-0.025
4077,-0.105,0.005
4078,-0.135,0.015
4079,-0.125,0.005
4080,-0.115,-0.015
4081,-0.095,0.015
4082,-0.095,0.015
4083,-0.085,-0.025
4084,-0.075,-0.015
4085,-0.065,-0.025
4086,-0.065,0.005
4087,-0.065,-0.005
4088,-0.035,0.005
4089,-0.095,0.045
4090,-0.075,-0.015
4091,-0.095,-0.035
4092,-0.065,-0.025
4093,-0.065,-0.025
4094,-0.095,-0.005
4095,-0.115,-0.025
4096,-0.125,-0.025
4097,-0.115,-0.015
4098,-0.115,-0.045
4099,-0.135,-0.035
4100,-0.125,-0.035
4101,-0.115,-0.045
4102,-0.155,-0.025
4103,-0.155,-0.035
4104,-0.145,-0.055
4105,-0.125,-0.055
4106,-0.135,-0.055
4107,-0.145,-0.065
4108,-0.145,-0.065
4109,-0.115,-0.055
4110,-0.135,-0.025
4111,-0.135,-0.075
4112,-0.125,-0.075
4113,-0.095,-0.045
4114,-0.135,-0.075
4115,-0.125,-0.085
4116,-0.115,-0.075
4117,-0.115,-0.015
4118,-0.125,-0.055
4119,-0.095,-0.065
4120,-0.005,-0.015
4121,-0.005,-0.035
4122,-0.095,-0.125
4123,-0.075,-0.105
4124,-0.095,-0.095
4125,-0.135,-0.065
4126,-0.165,-0.085
4127,-0.135,-0.105
4128,-0.105,-0.105
4129,-0.115,-0.065
4130,-0.045,-0.065
4131,-0.375,-0.045
4132,-0.675,0.125
4133,-0.095,0.415
4134,1.815,0.355
4135,3.035,-0.185
4136,3.305,-0.925
4137,1.425,-1.035
4138,0.145,-0.585
4139,-0.255,-0.175
4140,-0.345,-0.035
4141,-0.335,-0.055
4142,-0.355,-0.055
4143,-0.335,-0.055
4144,-0.355,-0.045
4145,-0.345,-0.005
4146,-0.325,-0.045
4147,-0.345,-0.075
4148,-0.335,-0.045
4149,-0.335,-0.025
4150,-0.325,-0.045
4151,-0.325,-0.045
4152,-0.305,-0.045
4153,-0.325,-0.015
4154,-0.305,-0.045
4155,-0.305,-0.055
4156,-0.285,-0.055
4157,-0.275,-0.045
4158,-0.265,-0.085
4159,-0.235,-0.115
4160,-0.215,-0.075
4161,-0.165,-0.085
4162,-0.105,-0.145
4163,-0.035,-0.145
4164,0.015,-0.165
4165,0.045,-0.115
4166,0.045,-0.135
4167,0.085,-0.115
4168,0.095,-0.115
4169,0.075,-0.085
4170,0.065,-0.045
4171,-0.015,-0.025
4172,-0.055,0.005
4173,-0.105,0.005
4174,-0.105,0.025
4175,-0.155,0.005
4176,-0.165,0.015
4177,-0.155,0.015
4178,-0.155,-0.005
4179,-0.145,0.005
4180,-0.145,-0.015
4181,-0.125,-0.005
4182,-0.125,-0.025
4183,-0.105,-0.015
4184,-0.115,-0.015
4185,-0.085,0.015
4186,-0.095,0.005
4187,-0.105,-0.005
4188,-0.115,-0.005
4189,-0.085,0.015
4190,-0.115,-0.045
4191,-0.145,-0.015
4192,-0.145,-0.005
4193,-0.125,0.015
4194,-0.145,0.005
4195,-0.165,-0.045
4196,-0.165,-0.045
4197,-0.165,-0.025
4198,-0.175,-0.045
4199,-0.185,-0.055
4200,-0.175,-0.035
4201,-0.165,-0.015
4202,-0.175,-0.005
4203,-0.185,-0.085
4204,-0.145,-0.035
4205,-0.165,-0.035
4206,-0.175,-0.075
4207,-0.165,-0.055
4208,-0.145,-0.055
4209,-0.145,-0.045
4210,-0.155,-0.065
4211,-0.155,-0.065
4212,-0.145,-0.025
4213,-0.135,-0.035
4214,-0.145,-0.035
4215,-0.135,-0.075
4216,-0.135,-0.035
4217,-0.115,-0.065
4218,-0.115,-0.065
4219,-0.135,-0.065
4220,-0.145,-0.015
4221,-0.135,-0.045
4222,-0.135,-0.025
4223,-0.125,0.005
4224,-0.075,0.025
4225,-0.005,0.005
4226,-0.075,-0.095
4227,-0.095,-0.105
4228,-0.095,-0.075
4229,-0.115,-0.005
4230,-0.155,-0.085
4231,-0.135,-0.065
4232,-0.145,-0.065
4233,-0.125,-0.045
4234,-0.085,-0.075
4235,-0.105,-0.045
4236,-0.535,0.075
4237,-0.605,0.215
4238,0.165,0.385
4239,2.045,0.205
4240,3.095,-0.375
4241,3.235,-0.995
4242,1.315,-0.955
4243,0.135,-0.485
4244,-0.235,-0.095
4245,-0.325,0.015
4246,-0.355,-0.005
4247,-0.345,-0.055
4248,-0.325,-0.015
4249,-0.315,-0.035
4250,-0.315,-0.045
4251,-0.305,-0.035
4252,-0.325,-0.015
4253,-0.325,-0.005
4254,-0.325,-0.015
4255,-0.305,-0.035
4256,-0.295,-0.035
4257,-0.295,-0.015
4258,-0.305,-0.045
4259,-0.285,-0.055
4260,-0.275,-0.065
4261,-0.265,-0.065
4262,-0.265,-0.065
4263,-0.255,-0.075
4264,-0.235,-0.095
4265,-0.135,-0.085
4266,-0.135,-0.095
4267,-0.085,-0.135
4268,-0.015,-0.115
4269,0.035,-0.125
4270,0.105,-0.125
4271,0.135,-0.105
4272,0.145,-0.105
4273,0.145,-0.055
4274,0.145,-0.075
4275,0.075,-0.035
4276,0.035,-0.025
4277,-0.005,0.005
4278,-0.055,-0.005
4279,-0.105,-0.005
4280,-0.095,0.025
4281,-0.135,0.005
4282,-0.125,-0.015
4283,-0.125,0.005
4284,-0.115,-0.015
4285,-0.095,0.035
4286,-0.075,-0.015
4287,-0.075,-0.055
4288,-0.075,-0.015
4289,-0.055,-0.025
4290,-0.085,-0.025
4291,-0.055,-0.005
4292,-0.085,-0.025
4293,-0.065,0.005
4294,-0.065,-0.025
4295,-0.075,-0.015
4296,-0.075,-0.005
4297,-0.095,-0.005
4298,-0.085,-0.015
4299,-0.105,-0.005
4300,-0.105,-0.045
4301,-0.095,-0.015
4302,-0.135,-0.045
4303,-0.145,-0.045
4304,-0.115,-0.035
4305,-0.125,-0.045
4306,-0.135,-0.075
4307,-0.125,-0.045
4308,-0.105,-0.055
4309,-0.095,-0.025
4310,-0.115,-0.035
4311,-0.115,-0.075
4312,-0.125,-0.045
4313,-0.105,-0.035
4314,-0.125,-0.065
4315,-0.105,-0.085
4316,-0.095,-0.045
4317,-0.075,-0.045
4318,-0.075,-0.065
4319,-0.085,-0.085
4320,-0.075,-0.065
4321,-0.095,-0.055
4322,-0.045,-0.025
4323,-0.085,-0.045
4324,-0.095,-0.065
4325,-0.065,-0.035
4326,-0.055,-0.065
4327,-0.135,-0.035
4328,-0.015,-0.015
4329,0.085,0.005
4330,0.015,-0.035
4331,-0.015,-0.105
4332,-0.045,-0.115
4333,-0.065,-0.025
4334,-0.075,-0.055
4335,-0.095,-0.085
4336,-0.075,-0.115
4337,-0.045,-0.075
4338,-0.035,-0.045
4339,0.005,-0.055
4340,-0.435,0.025
4341,-0.475,0.195
4342,0.215,0.415
4343,2.105,0.405
4344,3.145,-0.025
4345,3.185,-0.765
4346,1.165,-0.865
4347,0.115,-0.495
4348,-0.185,-0.125
4349,-0.255,-0.015
4350,-0.235,0.005
4351,-0.285,-0.075
4352,-0.235,-0.035
4353,-0.255,-0.045
4354,-0.285,-0.045
4355,-0.285,-0.025
4356,-0.255,-0.005
4357,-0.225,-0.015
4358,-0.215,-0.055
4359,-0.275,-0.035
4360,-0.265,-0.025
4361,-0.245,-0.005
4362,-0.245,-0.055
4363,-0.245,-0.065
4364,-0.215,-0.045
4365,-0.195,-0.085
4366,-0.195,-0.095
4367,-0.195,-0.115
4368,-0.125,-0.075
4369,-0.095,-0.115
4370,-0.115,-0.155
4371,-0.045,-0.155
4372,0.045,-0.185
4373,0.095,-0.185
4374,0.105,-0.195
4375,0.115,-0.185
4376,0.185,-0.115
4377,0.155,-0.125
4378,0.185,-0.115
4379,0.135,-0.115
4380,0.125,-0.075
4381,0.085,-0.025
4382,-0.005,-0.015
4383,-0.045,-0.005
4384,-0.055,0.005
4385,-0.065,0.005
4386,-0.075,0.015
4387,-0.055,-0.055
4388,-0.035,-0.035
4389,-0.045,-0.005
4390,-0.065,0.005
4391,-0.035,0.005
4392,-0.005,-0.015
4393,-0.035,0.015
4394,-0.025,-0.045
4395,-0.015,0.005
4396,-0.025,-0.025
4397,-0.005,-0.015
4398,-0.025,0.005
4399,-0.055,-0.035
4400,-0.045,-0.025
4401,-0.015,-0.005
4402,-0.055,-0.035
4403,-0.065,-0.015
4404,-0.075,-0.015
4405,-0.075,-0.025
4406,-0.095,-0.025
4407,-0.075,-0.045
4408,-0.085,-0.045
4409,-0.085,-0.025
4410,-0.085,-0.025
4411,-0.085,-0.025
4412,-0.065,-0.035
4413,-0.065,-0.045
4414,-0.065,-0.045
4415,-0.065,-0.035
4416,-0.065,-0.025
4417,-0.065,-0.025
4418,-0.055,-0.035
4419,-0.075,-0.045
4420,-0.055,-0.045
4421,-0.055,-0.025
4422,-0.055,-0.005
4423,-0.065,-0.035
4424,-0.045,-0.015
4425,0.055,0.045
4426,0.095,-0.005
4427,0.025,-0.085
4428,-0.015,-0.085
4429,-0.015,-0.035
4430,-0.025,-0.045
4431,-0.085,-0.025
4432,-0.075,-0.065
4433,-0.045,-0.045
4434,-0.045,-0.035
4435,0.025,-0.035
4436,-0.065,-0.025
4437,-0.465,0.085
4438,-0.465,0.285
4439,0.565,0.485
4440,2.525,0.375
4441,3.325,-0.295
4442,2.915,-0.905
4443,0.925,-0.835
4444,0.115,-0.375
4445,-0.205,-0.085
4446,-0.245,0.005
4447,-0.265,-0.005
4448,-0.225,-0.025
4449,-0.245,0.025
4450,-0.255,-0.015
4451,-0.235,-0.015
4452,-0.225,0.035
4453,-0.275,-0.005
4454,-0.255,-0.025
4455,-0.275,0.015
4456,-0.245,-0.025
4457,-0.235,-0.015
4458,-0.245,-0.035
4459,-0.235,-0.045
4460,-0.235,-0.065
4461,-0.245,-0.025
4462,-0.175,-0.025
4463,-0.205,-0.045
4464,-0.155,-0.035
4465,-0.145,-0.065
4466,-0.125,-0.075
4467,-0.055,-0.105
4468,-0.015,-0.125
4469,0.035,-0.135
4470,0.085,-0.125
4471,0.095,-0.135
4472,0.145,-0.095
4473,0.125,-0.085
4474,0.105,-0.045
4475,0.115,-0.005
4476,0.035,-0.015
4477,-0.005,-0.005
4478,-0.035,0.045
4479,-0.075,0.025
4480,-0.105,0.035
4481,-0.115,0.025
4482,-0.115,0.055
4483,-0.125,0.005
4484,-0.115,0.015
4485,-0.085,0.025
4486,-0.085,0.065
4487,-0.115,-0.015
4488,-0.095,0.015
4489,-0.065,0.005
4490,-0.055,0.025
4491,-0.045,-0.005
4492,-0.065,0.025
4493,-0.055,-0.005
4494,-0.075,0.005
4495,-0.085,0.005
4496,-0.105,0.045
4497,-0.105,-0.015
4498,-0.085,0.005
4499,-0.115,-0.005
4500,-0.135,-0.015
4501,-0.125,0.005
4502,-0.125,-0.015
4503,-0.145,-0.025
4504,-0.145,-0.015
4505,-0.065,-0.005
4506,-0.135,0.035
4507,-0.165,-0.025
4508,-0.145,-0.005
4509,-0.155,-0.015
4510,-0.145,-0.025
4511,-0.125,-0.055
4512,-0.155,-0.055
4513,-0.135,-0.005
4514,-0.135,-0.045
4515,-0.155,-0.065
4516,-0.145,-0.035
4517,-0.095,-0.005
4518,-0.135,-0.025
4519,-0.125,-0.055
4520,-0.135,-0.035
4521,-0.115,-0.065
4522,-0.105,-0.045
4523,-0.145,-0.035
4524,-0.135,-0.055
4525,-0.125,-0.015
4526,-0.155,-0.085
4527,-0.085,-0.045
4528,-0.145,-0.035
4529,-0.055,-0.015
4530,-0.015,-0.005
4531,-0.055,-0.095
4532,-0.125,-0.135
4533,-0.075,-0.105
4534,-0.105,-0.075
4535,-0.145,-0.075
4536,-0.155,-0.055
4537,-0.115,-0.075
4538,-0.105,-0.075
4539,-0.105,-0.085
4540,-0.105,-0.075
4541,-0.605,0.105
4542,-0.595,0.185
4543,0.265,0.365
4544,2.165,0.225
4545,3.155,-0.325
4546,3.115,-0.965
4547,1.325,-0.875
4548,0.205,-0.475
4549,-0.215,-0.135
4550,-0.325,-0.055
4551,-0.325,-0.075
4552,-0.305,-0.055
4553,-0.325,-0.065
4554,-0.365,-0.065
4555,-0.255,-0.065
4556,-0.335,-0.045
4557,-0.345,-0.055
4558,-0.335,-0.035
4559,-0.335,-0.085
4560,-0.325,-0.055
4561,-0.315,-0.075
4562,-0.295,-0.105
4563,-0.295,-0.065
4564,-0.305,-0.085
4565,-0.295,-0.075
4566,-0.255,-0.065
4567,-0.265,-0.055
4568,-0.255,-0.125
4569,-0.225,-0.085
4570,-0.175,-0.145
4571,-0.115,-0.125
4572,-0.065,-0.125
4573,0.025,-0.145
4574,0.055,-0.115
4575,0.045,-0.165
4576,0.105,-0.125
4577,0.125,-0.075
4578,0.145,-0.075
4579,0.085,-0.045
4580,0.035,-0.055
4581,-0.005,-0.035
4582,-0.045,0.015
4583,-0.105,0.025
4584,-0.135,0.005
4585,-0.145,0.045
4586,-0.145,-0.015
4587,-0.145,-0.015
4588,-0.155,-0.015
4589,-0.135,-0.025
4590,-0.135,-0.035
4591,-0.085,-0.055
4592,-0.125,-0.035
4593,-0.135,-0.055
4594,-0.135,-0.015
4595,-0.115,-0.025
4596,-0.115,-0.025
4597,-0.115,-0.055
4598,-0.115,-0.045
4599,-0.125,-0.035
4600,-0.105,-0.055
4601,-0.155,-0.015
4602,-0.155,-0.035
4603,-0.175,-0.055
4604,-0.165,-0.075
4605,-0.135,-0.035
4606,-0.145,-0.045
4607,-0.175,-0.085
4608,-0.175,-0.055
4609,-0.185,-0.065
4610,-0.175,-0.055
4611,-0.175,-0.065
4612,-0.155,-0.085
4613,-0.155,-0.075
4614,-0.165,-0.085
4615,-0.155,-0.105
4616,-0.155,-0.085
4617,-0.175,-0.075
4618,-0.145,-0.095
4619,-0.115,-0.055
4620,-0.125,-0.125
4621,-0.155,-0.095
4622,-0.155,-0.095
4623,-0.155,-0.125
4624,-0.145,-0.095
4625,-0.145,-0.035
4626,-0.125,-0.085
4627,-0.135,-0.105
4628,-0.175,-0.115
4629,-0.145,-0.085
4630,-0.155,-0.055
4631,-0.105,-0.065
4632,-0.035,-0.005
4633,-0.005,-0.075
4634,-0.095,-0.175
4635,-0.125,-0.155
4636,-0.115,-0.105
4637,-0.135,-0.125
4638,-0.135,-0.135
4639,-0.165,-0.115
4640,-0.145,-0.125
4641,-0.105,-0.105
4642,-0.075,-0.095
4643,-0.405,-0.065
4644,-0.635,0.105
4645,-0.205,0.295
4646,1.305,0.385
4647,2.825,0.135
4648,3.415,-0.585
4649,2.165,-0.985
4650,0.445,-0.765
4651,-0.105,-0.375
4652,-0.305,-0.105
4653,-0.325,-0.055
4654,-0.305,-0.105
4655,-0.325,-0.115
4656,-0.295,-0.095
4657,-0.285,-0.095
4658,-0.275,-0.095
4659,-0.285,-0.105
4660,-0.315,-0.055
4661,-0.305,-0.065
4662,-0.295,-0.075
4663,-0.295,-0.125
4664,-0.305,-0.095
4665,-0.275,-0.085
4666,-0.265,-0.105
4667,-0.255,-0.145
4668,-0.265,-0.105
4669,-0.215,-0.115
4670,-0.215,-0.165
4671,-0.205,-0.125
4672,-0.175,-0.145
4673,-0.095,-0.175
4674,-0.065,-0.185
4675,-0.015,-0.225
4676,0.045,-0.215
4677,0.095,-0.205
4678,0.115,-0.185
4679,0.115,-0.175
4680,0.125,-0.175
4681,0.145,-0.115
4682,0.095,-0.115
4683,0.065,-0.095
4684,0.035,-0.025
4685,-0.015,-0.035
4686,-0.065,-0.005
4687,-0.085,-0.005
4688,-0.105,-0.035
4689,-0.105,-0.025
4690,-0.105,-0.025
4691,-0.105,-0.045
4692,-0.085,-0.055
4693,-0.085,-0.055
4694,-0.095,-0.025
4695,-0.095,-0.025
4696,-0.075,-0.015
4697,-0.065,-0.015
4698,-0.075,-0.045
4699,-0.075,-0.045
4700,-0.075,-0.015
4701,-0.025,-0.015
4702,-0.095,-0.035
4703,-0.085,-0.045
4704,-0.105,-0.025
4705,-0.105,-0.025
4706,-0.135,-0.055
4707,-0.145,-0.045
4708,-0.145,-0.015
4709,-0.115,-0.045
4710,-0.135,-0.045
4711,-0.155,-0.075
4712,-0.175,-0.045
4713,-0.145,-0.065
4714,-0.145,-0.075
4715,-0.145,-0.065
4716,-0.145,-0.065
4717,-0.155,-0.065
4718,-0.155,-0.085
4719,-0.145,-0.075
4720,-0.135,-0.075
4721,-0.135,-0.055
4722,-0.125,-0.065
4723,-0.155,-0.055
4724,-0.125,-0.075
4725,-0.135,-0.065
4726,-0.135,-0.055
4727,-0.165,-0.035
4728,-0.105,-0.045
4729,0.005,0.005
4730,0.005,-0.025
4731,-0.065,-0.115
4732,-0.105,-0.105
4733,-0.085,-0.085
4734,-0.125,-0.095
4735,-0.145,-0.115
4736,-0.155,-0.105
4737,-0.135,-0.075
4738,-0.115,-0.075
4739,-0.065,-0.055
4740,-0.275,-0.095
4741,-0.645,0.065
4742,-0.425,0.245
4743,0.795,0.365
4744,2.525,0.165
4745,3.215,-0.365
4746,2.885,-0.985
4747,0.965,-0.925
4748,0.035,-0.465
4749,-0.285,-0.155
4750,-0.345,-0.045
4751,-0.345,-0.065
4752,-0.345,-0.075
4753,-0.325,-0.035
4754,-0.325,-0.055
4755,-0.325,-0.065
4756,-0.325,-0.055
4757,-0.325,-0.045
4758,-0.325,-0.045
4759,-0.335,-0.035
4760,-0.305,-0.055
4761,-0.305,-0.045
4762,-0.325,-0.035
4763,-0.335,-0.055
4764,-0.315,-0.015
4765,-0.295,-0.075
4766,-0.285,-0.075
4767,-0.265,-0.085
4768,-0.265,-0.085
4769,-0.205,-0.095
4770,-0.195,-0.105
4771,-0.155,-0.145
4772,-0.095,-0.135
4773,-0.055,-0.125
4774,-0.005,-0.115
4775,0.045,-0.135
4776,0.085,-0.145
4777,0.085,-0.105
4778,0.075,-0.095
4779,0.045,-0.095
4780,0.015,-0.065
4781,-0.025,-0.025
4782,-0.095,-0.005
4783,-0.145,-0.015
4784,-0.155,0.065
4785,-0.185,0.025
4786,-0.205,-0.005
4787,-0.215,0.025
4788,-0.205,0.045
4789,-0.185,0.005
4790,-0.195,-0.025
4791,-0.185,-0.015
4792,-0.155,-0.005
4793,-0.135,0.005
4794,-0.145,0.005
4795,-0.135,0.005
4796,-0.135,-0.005
4797,-0.125,0.035
4798,-0.165,-0.005
4799,-0.165,-0.015
4800,-0.165,-0.005
4801,-0.185,-0.005
4802,-0.165,-0.015
4803,-0.185,-0.035
4804,-0.195,-0.015
4805,-0.195,0.005
4806,-0.205,-0.015
4807,-0.215,-0.025
4808,-0.205,-0.035
4809,-0.205,-0.055
4810,-0.205,-0.035
4811,-0.225,-0.035
4812,-0.215,-0.025
4813,-0.195,-0.045
4814,-0.205,-0.045
4815,-0.215,-0.095
4816,-0.215,-0.055
4817,-0.195,-0.065
4818,-0.205,-0.055
4819,-0.205,-0.055
4820,-0.185,-0.085
4821,-0.185,-0.085
4822,-0.195,-0.095
4823,-0.205,-0.085
4824,-0.195,-0.085
4825,-0.195,-0.075
4826,-0.195,-0.065
4827,-0.195,-0.095
4828,-0.195,-0.065
4829,-0.205,-0.095
4830,-0.185,-0.085
4831,-0.205,-0.045
4832,-0.145,-0.045
4833,-0.065,-0.005
4834,-0.115,-0.065
4835,-0.155,-0.155
4836,-0.165,-0.155
4837,-0.165,-0.115
4838,-0.195,-0.115
4839,-0.225,-0.115
4840,-0.195,-0.105
4841,-0.185,-0.115
4842,-0.165,-0.125
4843,-0.135,-0.105
4844,-0.375,-0.085
4845,-0.695,0.065
4846,-0.285,0.285
4847,1.285,0.235
4848,2.735,-0.055
4849,3.325,-0.695
4850,2.085,-0.985
4851,0.425,-0.775
4852,-0.155,-0.335
4853,-0.365,-0.075
4854,-0.405,-0.045
4855,-0.385,-0.055
4856,-0.375,-0.095
4857,-0.375,-0.095
4858,-0.375,-0.075
4859,-0.385,-0.045
4860,-0.375,-0.065
4861,-0.375,-0.055
4862,-0.395,-0.055
4863,-0.375,-0.035
4864,-0.365,-0.065
4865,-0.365,-0.035
4866,-0.375,-0.055
4867,-0.365,-0.075
4868,-0.355,-0.075
4869,-0.345,-0.075
4870,-0.335,-0.075
4871,-0.315,-0.065
4872,-0.275,-0.085
4873,-0.255,-0.075
4874,-0.215,-0.075
4875,-0.155,-0.145
4876,-0.085,-0.125
4877,-0.025,-0.125
4878,0.015,-0.135
4879,0.065,-0.125
4880,0.085,-0.125
4881,0.095,-0.085
4882,0.075,-0.045
4883,0.045,-0.075
4884,0.015,-0.035
4885,-0.045,-0.015
4886,-0.105,-0.015
4887,-0.135,0.005
4888,-0.175,-0.035
4889,-0.185,-0.005
4890,-0.205,-0.015
4891,-0.205,-0.025
4892,-0.195,-0.025
4893,-0.175,-0.015
4894,-0.175,-0.035
4895,-0.155,-0.025
4896,-0.175,-0.025
4897,-0.145,-0.025
4898,-0.145,-0.045
4899,-0.175,-0.085
4900,-0.175,-0.015
4901,-0.155,0.005
4902,-0.155,-0.025
4903,-0.165,-0.055
4904,-0.155,-0.035
4905,-0.155,-0.035
4906,-0.175,-0.025
4907,-0.195,-0.055
4908,-0.195,-0.045
4909,-0.195,-0.045
4910,-0.205,-0.055
4911,-0.215,-0.065
4912,-0.215,-0.055
4913,-0.195,-0.055
4914,-0.215,-0.065
4915,-0.235,-0.075
4916,-0.205,-0.065
4917,-0.195,-0.055
4918,-0.215,-0.105
4919,-0.215,-0.075
4920,-0.205,-0.065
4921,-0.205,-0.055
4922,-0.185,-0.025
4923,-0.195,-0.105
4924,-0.195,-0.075
4925,-0.185,-0.075
4926,-0.185,-0.085
4927,-0.195,-0.105
4928,-0.165,-0.105
4929,-0.185,-0.095
4930,-0.205,-0.055
4931,-0.185,-0.095
4932,-0.195,-0.105
4933,-0.195,-0.105
4934,-0.205,-0.055
4935,-0.135,-0.045
4936,-0.025,-0.035
4937,-0.085,-0.045
4938,-0.155,-0.155
4939,-0.165,-0.125
4940,-0.145,-0.105
4941,-0.175,-0.115
4942,-0.205,-0.115
4943,-0.185,-0.105
4944,-0.175,-0.115
4945,-0.165,-0.085
4946,-0.105,-0.095
4947,-0.395,-0.105
4948,-0.675,0.005
4949,-0.295,0.235
4950,1.125,0.345
4951,2.685,0.205
4952,3.345,-0.445
4953,2.035,-0.895
4954,0.365,-0.785
4955,-0.215,-0.375
4956,-0.365,-0.115
4957,-0.375,-0.055
4958,-0.375,-0.075
4959,-0.375,-0.105
4960,-0.355,-0.085
4961,-0.335,-0.095
4962,-0.355,-0.115
4963,-0.375,-0.085
4964,-0.355,-0.065
4965,-0.355,-0.095
4966,-0.345,-0.105
4967,-0.335,-0.085
4968,-0.325,-0.075
4969,-0.345,-0.065
4970,-0.335,-0.105
4971,-0.325,-0.105
4972,-0.305,-0.105
4973,-0.285,-0.135
4974,-0.275,-0.135
4975,-0.255,-0.125
4976,-0.205,-0.135
4977,-0.155,-0.145
4978,-0.105,-0.155
4979,-0.035,-0.205
4980,0.005,-0.165
4981,0.055,-0.195
4982,0.065,-0.195
4983,0.085,-0.165
4984,0.085,-0.145
4985,0.085,-0.105
4986,0.085,-0.095
4987,0.015,-0.115
4988,-0.065,-0.025
4989,-0.085,0.025
4990,-0.105,-0.025
4991,-0.135,-0.015
4992,-0.155,0.005
4993,-0.155,0.015
4994,-0.155,0.015
4995,-0.175,-0.015
4996,-0.175,0.015
4997,-0.145,-0.015
4998,-0.155,-0.025
4999,-0.135,-0.035
5000,-0.125,-0.015
5001,-0.105,-0.025
5002,-0.115,-0.005
5003,-0.115,-0.005
5004,-0.105,-0.015
5005,-0.115,-0.005
5006,-0.125,-0.005
5007,-0.115,-0.005
5008,-0.135,-0.045
5009,-0.145,-0.025
5010,-0.145,-0.015
5011,-0.165,-0.025
5012,-0.165,-0.035
5013,-0.155,-0.045
5014,-0.175,-0.035
5015,-0.165,-0.055
5016,-0.155,-0.025
5017,-0.155,-0.055
5018,-0.165,-0.075
5019,-0.175,-0.085
5020,-0.145,-0.075
5021,-0.145,-0.055
5022,-0.155,-0.065
5023,-0.155,-0.085
5024,-0.145,-0.065
5025,-0.135,-0.055
5026,-0.165,-0.075
5027,-0.135,-0.105
5028,-0.145,-0.085
5029,-0.145,-0.055
5030,-0.165,-0.055
5031,-0.145,-0.045
5032,-0.025,-0.025
5033,0.005,-0.005
5034,-0.095,-0.105
5035,-0.115,-0.145
5036,-0.115,-0.125
5037,-0.135,-0.065
5038,-0.165,-0.085
5039,-0.155,-0.105
5040,-0.125,-0.105
5041,-0.125,-0.105
5042,-0.095,-0.095
5043,-0.175,-0.075
5044,-0.585,0.025
5045,-0.495,0.205
5046,0.535,0.385
5047,2.475,0.305
5048,3.285,-0.255
5049,2.755,-0.905
5050,0.715,-0.915
5051,-0.085,-0.485
5052,-0.305,-0.145
5053,-0.325,-0.025
5054,-0.335,-0.055
5055,-0.305,-0.075
5056,-0.305,-0.065
5057,-0.305,-0.045
5058,-0.305,-0.045
5059,-0.285,-0.055
5060,-0.305,-0.035
5061,-0.295,-0.035
5062,-0.305,-0.045
5063,-0.275,-0.055
5064,-0.275,-0.025
5065,-0.275,-0.055
5066,-0.275,-0.045
5067,-0.255,-0.055
5068,-0.235,-0.065
5069,-0.225,-0.085
5070,-0.195,-0.095
5071,-0.175,-0.085
5072,-0.195,-0.085
5073,-0.115,-0.085
5074,-0.065,-0.135
5075,-0.065,-0.135
5076,0.015,-0.125
5077,0.065,-0.115
5078,0.115,-0.125
5079,0.115,-0.145
5080,0.135,-0.095
5081,0.155,-0.065
5082,0.135,-0.115
5083,0.085,-0.065
5084,0.055,-0.015
5085,0.005,0.025
5086,-0.015,0.025
5087,-0.065,0.005
5088,-0.095,0.045
5089,-0.125,0.065
5090,-0.135,0.065
5091,-0.125,0.045
5092,-0.095,0.025
5093,-0.075,0.045
5094,-0.095,0.035
5095,-0.075,0.045
5096,-0.085,0.045
5097,-0.065,0.045
5098,-0.065,0.035
5099,-0.065,0.025
5100,-0.065,0.025
5101,-0.055,0.025
5102,-0.065,0.035
5103,-0.055,0.025
5104,-0.085,-0.005
5105,-0.075,0.065
5106,-0.085,0.025
5107,-0.095,0.015
5108,-0.105,0.025
5109,-0.105,0.015
5110,-0.115,0.005
5111,-0.125,0.045
5112,-0.125,-0.045
5113,-0.135,-0.015
5114,-0.125,-0.015
5115,-0.135,-0.035
5116,-0.135,-0.025
5117,-0.125,-0.035
5118,-0.145,-0.025
5119,-0.135,-0.045
5120,-0.125,-0.025
5121,-0.105,-0.025
5122,-0.125,-0.005
5123,-0.125,-0.035
5124,-0.115,-0.075
5125,-0.115,-0.035
5126,-0.125,-0.045
5127,-0.115,0.005
5128,-0.105,-0.065
5129,-0.105,-0.075
5130,-0.125,-0.035
5131,-0.105,-0.045
5132,-0.105,-0.025
5133,-0.085,-0.025
5134,-0.025,-0.015
5135,-0.005,-0.035
5136,-0.065,-0.125
5137,-0.085,-0.105
5138,-0.085,-0.095
5139,-0.115,-0.055
5140,-0.155,-0.085
5141,-0.125,-0.075
5142,-0.115,-0.105
5143,-0.115,-0.095
5144,-0.075,-0.075
5145,-0.155,-0.045
5146,-0.585,0.015
5147,-0.525,0.235
5148,0.585,0.325
5149,2.405,0.075
5150,3.175,-0.565
5151,2.905,-1.115
5152,0.985,-0.975
5153,0.075,-0.475
5154,-0.245,-0.085
5155,-0.315,-0.005
5156,-0.335,-0.045
5157,-0.335,-0.055
5158,-0.335,-0.085
5159,-0.335,-0.025
5160,-0.315,-0.065
5161,-0.325,-0.055
5162,-0.335,-0.045
5163,-0.335,-0.045
5164,-0.315,-0.015
5165,-0.315,-0.005
5166,-0.305,-0.045
5167,-0.315,-0.045
5168,-0.305,-0.025
5169,-0.305,-0.025
5170,-0.295,-0.055
5171,-0.285,-0.065
5172,-0.255,-0.055
5173,-0.245,-0.055
5174,-0.215,-0.055
5175,-0.165,-0.065
5176,-0.125,-0.065
5177,-0.055,-0.035
5178,-0.015,-0.095
5179,0.035,-0.115
5180,0.095,-0.085
5181,0.135,-0.075
5182,0.145,-0.075
5183,0.135,-0.055
5184,0.135,-0.045
5185,0.105,-0.015
5186,0.045,0.005
5187,-0.005,0.005
5188,-0.065,0.015
5189,-0.115,0.015
5190,-0.145,0.015
5191,-0.155,0.015
5192,-0.155,-0.005
5193,-0.145,0.025
5194,-0.125,-0.005
5195,-0.125,-0.025
5196,-0.105,0.035
5197,-0.095,-0.015
5198,-0.085,-0.005
5199,-0.105,-0.015
5200,-0.085,-0.015
5201,-0.075,0.005
5202,-0.085,-0.035
5203,-0.095,-0.005
5204,-0.085,-0.005
5205,-0.085,-0.015
5206,-0.095,0.015
5207,-0.105,-0.025
5208,-0.115,-0.015
5209,-0.105,-0.005
5210,-0.135,-0.025
5211,-0.135,-0.055
5212,-0.135,0.005
5213,-0.135,-0.035
5214,-0.155,-0.055
5215,-0.155,-0.065
5216,-0.155,-0.045
5217,-0.145,-0.035
5218,-0.155,-0.055
5219,-0.145,-0.055
5220,-0.145,-0.055
5221,-0.145,-0.065
5222,-0.145,-0.095
5223,-0.125,-0.085
5224,-0.125,-0.085
5225,-0.115,-0.085
5226,-0.135,-0.085
5227,-0.115,-0.115
5228,-0.135,-0.095
5229,-0.125,-0.055
5230,-0.125,-0.085
5231,-0.125,-0.075
5232,-0.135,-0.065
5233,-0.125,-0.085
5234,-0.125,-0.095
5235,-0.125,-0.105
5236,-0.125,-0.065
5237,-0.115,-0.055
5238,-0.005,-0.045
5239,0.005,-0.065
5240,-0.075,-0.145
5241,-0.085,-0.135
5242,-0.095,-0.135
5243,-0.115,-0.085
5244,-0.155,-0.145
5245,-0.125,-0.145
5246,-0.115,-0.135
5247,-0.085,-0.135
5248,-0.055,-0.135
5249,-0.245,-0.105
5250,-0.595,0.045
5251,-0.365,0.235
5252,1.035,0.225
5253,2.615,-0.065
5254,3.345,-0.765
5255,2.595,-1.135
5256,0.705,-0.935
5257,-0.035,-0.455
5258,-0.295,-0.105
5259,-0.345,-0.025
5260,-0.355,-0.085
5261,-0.345,-0.075
5262,-0.325,-0.085
5263,-0.325,-0.075
5264,-0.325,-0.095
5265,-0.315,-0.065
5266,-0.335,-0.085
5267,-0.315,-0.085
5268,-0.325,-0.095
5269,-0.325,-0.095
5270,-0.315,-0.085
5271,-0.315,-0.105
5272,-0.305,-0.095
5273,-0.295,-0.115
5274,-0.295,-0.115
5275,-0.275,-0.115
5276,-0.245,-0.105
5277,-0.215,-0.155
5278,-0.195,-0.145
5279,-0.165,-0.155
5280,-0.125,-0.115
5281,-0.035,-0.135
5282,0.035,-0.155
5283,0.095,-0.155
5284,0.135,-0.145
5285,0.185,-0.125
5286,0.185,-0.125
5287,0.185,-0.115
5288,0.155,-0.075
5289,0.095,-0.045
5290,0.025,-0.015
5291,-0.015,0.005
5292,-0.055,0.025
5293,-0.085,-0.015
5294,-0.125,-0.025
5295,-0.135,-0.025
5296,-0.145,-0.045
5297,-0.135,-0.025
5298,-0.135,-0.035
5299,-0.115,-0.025
5300,-0.115,-0.035
5301,-0.105,-0.005
5302,-0.095,-0.025
5303,-0.085,-0.035
5304,-0.085,-0.075
5305,-0.095,-0.025
5306,-0.095,-0.035
5307,-0.095,-0.045
5308,-0.075,-0.025
5309,-0.075,-0.035
5310,-0.095,-0.025
5311,-0.085,-0.065
5312,-0.095,-0.085
5313,-0.095,-0.045
5314,-0.095,-0.045
5315,-0.115,-0.075
5316,-0.135,-0.045
5317,-0.125,-0.035
5318,-0.145,-0.085
5319,-0.155,-0.085
5320,-0.135,-0.065
5321,-0.135,-0.065
5322,-0.125,-0.065
5323,-0.135,-0.115
5324,-0.115,-0.095
5325,-0.145,-0.075
5326,-0.145,-0.035
5327,-0.115,-0.095
5328,-0.115,-0.105
5329,-0.115,-0.085
5330,-0.115,-0.075
5331,-0.125,-0.125
5332,-0.105,-0.085
5333,-0.085,-0.085
5334,-0.105,-0.105
5335,-0.125,-0.095
5336,-0.105,-0.095
5337,-0.095,-0.105
5338,-0.115,-0.095
5339,-0.135,-0.115
5340,-0.105,-0.115
5341,-0.095,-0.085
5342,-0.015,-0.025
5343,0.025,-0.075
5344,-0.055,-0.115
5345,-0.065,-0.145
5346,-0.085,-0.135
5347,-0.115,-0.135
5348,-0.145,-0.135
5349,-0.125,-0.105
5350,-0.115,-0.145
5351,-0.115,-0.125
5352,-0.085,-0.115
5353,-0.085,-0.085
5354,-0.485,-0.035
5355,-0.535,0.065
5356,0.415,0.355
5357,2.395,0.285
5358,3.235,-0.185
5359,2.975,-0.945
5360,0.995,-0.955
5361,0.055,-0.575
5362,-0.225,-0.215
5363,-0.295,-0.105
5364,-0.305,-0.105
5365,-0.305,-0.075
5366,-0.275,-0.115
5367,-0.285,-0.105
5368,-0.295,-0.115
5369,-0.275,-0.095
5370,-0.265,-0.035
5371,-0.285,-0.135
5372,-0.265,-0.085
5373,-0.245,-0.115
5374,-0.265,-0.105
5375,-0.265,-0.105
5376,-0.255,-0.085
5377,-0.255,-0.075
5378,-0.235,-0.105
5379,-0.215,-0.075
5380,-0.205,-0.175
5381,-0.185,-0.105
5382,-0.155,-0.135
5383,-0.145,-0.125
5384,-0.085,-0.165
5385,-0.025,-0.165
5386,0.045,-0.175
5387,0.085,-0.215
5388,0.135,-0.205
5389,0.175,-0.165
5390,0.175,-0.155
5391,0.185,-0.125
5392,0.175,-0.155
5393,0.165,-0.085
5394,0.125,-0.075
5395,0.055,-0.055
5396,0.035,-0.015
5397,0.015,-0.005
5398,-0.045,-0.045
5399,-0.065,-0.005
5400,-0.075,0.005
5401,-0.045,-0.005
5402,-0.055,-0.025
5403,-0.055,-0.015
5404,-0.045,0.025
5405,-0.015,-0.035
5406,-0.005,-0.035
5407,-0.015,-0.025
5408,-0.015,-0.025
5409,-0.015,0.015
5410,-0.015,-0.005
5411,-0.015,-0.015
5412,-0.015,-0.015
5413,-0.005,-0.015
5414,-0.035,0.005
5415,-0.035,-0.015
5416,-0.045,-0.045
5417,-0.035,-0.035
5418,-0.055,-0.025
5419,-0.065,-0.035
5420,-0.085,-0.025
5421,-0.075,-0.025
5422,-0.095,-0.045
5423,-0.105,-0.035
5424,-0.095,-0.045
5425,-0.075,-0.025
5426,-0.075,-0.055
5427,-0.085,-0.085
5428,-0.085,-0.035
5429,-0.085,-0.065
5430,-0.065,-0.045
5431,-0.085,-0.095
5432,-0.075,-0.065
5433,-0.075,-0.055
5434,-0.075,-0.055
5435,-0.095,-0.055
5436,-0.065,-0.065
5437,-0.075,-0.035
5438,-0.075,-0.075
5439,-0.095,-0.055
5440,-0.035,-0.055
5441,0.065,-0.015
5442,0.025,-0.055
5443,-0.015,-0.115
5444,-0.025,-0.085
5445,-0.035,-0.085
5446,-0.045,-0.085
5447,-0.065,-0.095
5448,-0.075,-0.085
5449,-0.085,-0.105
5450,-0.075,-0.065
5451,-0.025,-0.105
5452,-0.365,-0.055
5453,-0.595,0.085
5454,-0.015,0.335
5455,1.735,0.325
5456,3.025,-0.055
5457,3.465,-0.655
5458,2.115,-1.055
5459,0.445,-0.765
5460,-0.055,-0.335
5461,-0.195,-0.065
5462,-0.245,-0.015
5463,-0.255,-0.045
5464,-0.265,-0.015
5465,-0.255,-0.075
5466,-0.255,-0.045
5467,-0.255,-0.015
5468,-0.255,-0.015
5469,-0.245,-0.015
5470,-0.245,-0.025
5471,-0.255,-0.025
5472,-0.235,-0.035
5473,-0.245,-0.015
5474,-0.245,-0.055
5475,-0.255,-0.025
5476,-0.235,-0.015
5477,-0.205,-0.035
5478,-0.205,-0.065
5479,-0.195,-0.045
5480,-0.175,-0.055
5481,-0.135,-0.045
5482,-0.085,-0.095
5483,-0.055,-0.085
5484,0.005,-0.115
5485,0.065,-0.095
5486,0.115,-0.085
5487,0.145,-0.125
5488,0.155,-0.115
5489,0.175,-0.065
5490,0.175,-0.055
5491,0.145,-0.055
5492,0.105,-0.035
5493,0.075,0.005
5494,0.005,0.025
5495,-0.055,0.025
5496,-0.065,0.045
5497,-0.105,0.005
5498,-0.115,0.005
5499,-0.125,0.005
5500,-0.115,0.065
5501,-0.105,0.005
5502,-0.105,-0.015
5503,-0.105,0.005
5504,-0.085,0.015
5505,-0.065,0.005
5506,-0.075,0.005
5507,-0.055,0.005
5508,-0.055,0.005
5509,-0.065,0.025
5510,-0.085,-0.005
5511,-0.105,-0.005
5512,-0.085,0.015
5513,-0.085,0.045
5514,-0.115,-0.005
5515,-0.115,0.005
5516,-0.115,-0.025
5517,-0.145,-0.055
5518,-0.155,0.025
5519,-0.165,-0.025
5520,-0.155,-0.005
5521,-0.155,-0.005
5522,-0.185,-0.035
5523,-0.175,-0.005
5524,-0.165,-0.015
5525,-0.155,-0.005
5526,-0.155,-0.035
5527,-0.155,-0.055
5528,-0.135,-0.015
5529,-0.155,-0.015
5530,-0.175,-0.055
5531,-0.155,-0.035
5532,-0.125,-0.025
5533,-0.135,-0.045
5534,-0.145,-0.035
5535,-0.155,-0.035
5536,-0.135,-0.055
5537,-0.135,-0.045
5538,-0.125,-0.045
5539,-0.145,-0.045
5540,-0.125,-0.065
5541,-0.135,-0.055
5542,-0.135,-0.065
5543,-0.115,-0.045
5544,-0.135,-0.025
5545,-0.085,-0.015
5546,-0.015,-0.005
5547,-0.045,-0.065
5548,-0.095,-0.095
5549,-0.095,-0.075
5550,-0.115,-0.115
5551,-0.145,-0.045
5552,-0.165,-0.055
5553,-0.155,-0.065
5554,-0.145,-0.085
5555,-0.115,-0.085
5556,-0.085,-0.055
5557,-0.375,-0.005
5558,-0.645,0.085
5559,-0.285,0.325
5560,1.365,0.295
5561,2.855,-0.105
5562,3.395,-0.805
5563,1.965,-0.985
5564,0.375,-0.685
5565,-0.185,-0.235
5566,-0.335,-0.015
5567,-0.365,-0.025
5568,-0.345,-0.025
5569,-0.375,-0.015
5570,-0.345,-0.025
5571,-0.345,0.015
5572,-0.335,-0.025
5573,-0.325,-0.015
5574,-0.315,-0.015
5575,-0.355,-0.015
5576,-0.335,-0.015
5577,-0.325,-0.005
5578,-0.305,-0.015
5579,-0.325,-0.035
5580,-0.305,-0.035
5581,-0.295,-0.015
5582,-0.285,-0.045
5583,-0.295,-0.055
5584,-0.265,-0.045
5585,-0.245,-0.055
5586,-0.215,-0.055
5587,-0.165,-0.055
5588,-0.105,-0.085
5589,-0.045,-0.065
5590,0.005,-0.085
5591,0.055,-0.085
5592,0.115,-0.085
5593,0.135,-0.075
5594,0.135,-0.055
5595,0.135,-0.015
5596,0.105,0.005
5597,0.065,0.005
5598,-0.005,0.045
5599,-0.065,0.045
5600,-0.105,0.025
5601,-0.125,0.015
5602,-0.145,0.045
5603,-0.165,0.025
5604,-0.165,0.005
5605,-0.165,0.015
5606,-0.165,0.005
5607,-0.145,-0.015
5608,-0.135,0.005
5609,-0.125,0.005
5610,-0.135,0.005
5611,-0.125,0.005
5612,-0.115,0.015
5613,-0.125,-0.005
5614,-0.125,0.015
5615,-0.125,0.015
5616,-0.125,0.045
5617,-0.125,-0.005
5618,-0.135,-0.005
5619,-0.155,0.005
5620,-0.155,0.005
5621,-0.165,0.005
5622,-0.185,-0.005
5623,-0.185,0.005
5624,-0.195,-0.015
5625,-0.195,-0.015
5626,-0.195,-0.025
5627,-0.205,-0.025
5628,-0.215,0.005
5629,-0.195,-0.025
5630,-0.195,-0.065
5631,-0.205,-0.055
5632,-0.205,-0.035
5633,-0.205,-0.025
5634,-0.175,-0.045
5635,-0.195,-0.065
5636,-0.195,-0.065
5637,-0.195,-0.065
5638,-0.185,-0.025
5639,-0.195,-0.045
5640,-0.175,-0.035
5641,-0.165,-0.045
5642,-0.165,-0.075
5643,-0.185,-0.085
5644,-0.195,-0.055
5645,-0.175,-0.035
5646,-0.165,-0.085
5647,-0.165,-0.065
5648,-0.165,-0.045
5649,-0.165,-0.035
5650,-0.205,-0.035
5651,-0.125,-0.015
5652,-0.065,0.005
5653,-0.085,-0.045
5654,-0.135,-0.125
5655,-0.165,-0.125
5656,-0.175,-0.055
5657,-0.195,-0.055
5658,-0.215,-0.075
5659,-0.215,-0.105
5660,-0.185,-0.085
5661,-0.175,-0.065
5662,-0.115,-0.095
5663,-0.425,-0.055
5664,-0.665,0.075
5665,-0.335,0.355
5666,1.125,0.325
5667,2.665,0.125
5668,3.325,-0.575
5669,2.235,-0.955
5670,0.455,-0.765
5671,-0.175,-0.335
5672,-0.365,-0.055
5673,-0.385,-0.025
5674,-0.385,-0.085
5675,-0.375,-0.055
5676,-0.365,-0.075
5677,-0.355,-0.065
5678,-0.365,-0.065
5679,-0.365,-0.055
5680,-0.375,-0.045
5681,-0.365,-0.025
5682,-0.365,-0.045
5683,-0.355,-0.085
5684,-0.365,-0.065
5685,-0.345,-0.025
5686,-0.345,-0.045
5687,-0.365,-0.105
5688,-0.335,-0.045
5689,-0.335,-0.065
5690,-0.315,-0.095
5691,-0.285,-0.115
5692,-0.245,-0.085
5693,-0.205,-0.115
5694,-0.175,-0.145
5695,-0.105,-0.125
5696,-0.055,-0.155
5697,0.025,-0.145
5698,0.035,-0.125
5699,0.055,-0.155
5700,0.075,-0.115
5701,0.105,-0.055
5702,0.055,-0.125
5703,0.025,-0.085
5704,-0.005,-0.025
5705,-0.055,-0.025
5706,-0.115,0.015
5707,-0.165,-0.025
5708,-0.165,-0.035
5709,-0.195,-0.025
5710,-0.205,-0.025
5711,-0.215,-0.025
5712,-0.195,-0.035
5713,-0.175,-0.035
5714,-0.185,-0.035
5715,-0.185,-0.055
5716,-0.185,0.005
5717,-0.155,-0.055
5718,-0.165,-0.065
5719,-0.175,-0.045
5720,-0.165,-0.035
5721,-0.165,-0.035
5722,-0.155,-0.065
5723,-0.175,-0.065
5724,-0.185,-0.055
5725,-0.175,-0.045
5726,-0.205,-0.065
5727,-0.215,-0.085
5728,-0.205,-0.035
5729,-0.205,-0.025
5730,-0.205,-0.105
5731,-0.235,-0.055
5732,-0.235,-0.095
5733,-0.225,-0.095
5734,-0.225,-0.105
5735,-0.225,-0.105
5736,-0.225,-0.105
5737,-0.215,-0.085
5738,-0.215,-0.085
5739,-0.205,-0.075
5740,-0.205,-0.085
5741,-0.185,-0.095
5742,-0.185,-0.075
5743,-0.195,-0.125
5744,-0.185,-0.065
5745,-0.185,-0.095
5746,-0.155,-0.105
5747,-0.195,-0.105
5748,-0.185,-0.085
5749,-0.205,-0.085
5750,-0.105,-0.065
5751,-0.025,-0.035
5752,-0.075,-0.055
5753,-0.135,-0.135
5754,-0.135,-0.135
5755,-0.185,-0.105
5756,-0.195,-0.135
5757,-0.185,-0.115
5758,-0.175,-0.135
5759,-0.155,-0.125
5760,-0.135,-0.105
5761,-0.115,-0.085
5762,-0.485,-0.075
5763,-0.645,0.085
5764,0.015,0.365
5765,1.845,0.395
5766,3.065,-0.045
5767,3.225,-0.765
5768,1.335,-0.965
5769,0.115,-0.695
5770,-0.255,-0.255
5771,-0.355,-0.065
5772,-0.355,-0.055
5773,-0.335,-0.065
5774,-0.345,-0.085
5775,-0.335,-0.075
5776,-0.345,-0.055
5777,-0.315,-0.075
5778,-0.325,-0.075
5779,-0.335,-0.075
5780,-0.335,-0.055
5781,-0.325,-0.065
5782,-0.315,-0.045
5783,-0.315,-0.095
5784,-0.295,-0.095
5785,-0.295,-0.095
5786,-0.285,-0.095
5787,-0.295,-0.115
5788,-0.275,-0.095
5789,-0.245,-0.085
5790,-0.235,-0.125
5791,-0.205,-0.145
5792,-0.165,-0.115
5793,-0.105,-0.125
5794,-0.055,-0.165
5795,-0.005,-0.165
5796,0.045,-0.165
5797,0.085,-0.155
5798,0.095,-0.135
5799,0.085,-0.175
5800,0.075,-0.065
5801,0.075,-0.085
5802,0.025,-0.075
5803,-0.025,-0.055
5804,-0.095,-0.065
5805,-0.125,0.015
5806,-0.155,-0.005
5807,-0.165,-0.015
5808,-0.185,-0.005
5809,-0.175,-0.005
5810,-0.175,-0.005
5811,-0.165,-0.055
5812,-0.145,-0.025
5813,-0.135,-0.005
5814,-0.145,-0.015
5815,-0.135,-0.035
5816,-0.115,-0.015
5817,-0.135,-0.005
5818,-0.135,-0.015
5819,-0.155,-0.025
5820,-0.165,-0.025
5821,-0.145,-0.035
5822,-0.165,-0.035
5823,-0.175,-0.055
5824,-0.175,-0.035
5825,-0.195,-0.035
5826,-0.205,-0.035
5827,-0.215,-0.055
5828,-0.225,-0.045
5829,-0.215,-0.025
5830,-0.225,-0.035
5831,-0.235,-0.075
5832,-0.235,-0.055
5833,-0.215,-0.045
5834,-0.225,-0.055
5835,-0.235,-0.075
5836,-0.225,-0.085
5837,-0.215,-0.065
5838,-0.225,-0.065
5839,-0.235,-0.095
5840,-0.245,-0.085
5841,-0.225,-0.055
5842,-0.215,-0.085
5843,-0.225,-0.115
5844,-0.205,-0.065
5845,-0.175,-0.065
5846,-0.185,-0.115
5847,-0.205,-0.085
5848,-0.195,-0.035
5849,-0.195,-0.065
5850,-0.215,-0.095
5851,-0.205,-0.075
5852,-0.205,-0.095
5853,-0.175,-0.005
5854,-0.225,-0.095
5855,-0.155,-0.055
5856,-0.085,-0.015
5857,-0.125,-0.095
5858,-0.185,-0.145
5859,-0.185,-0.135
5860,-0.165,-0.105
5861,-0.225,-0.095
5862,-0.235,-0.115
5863,-0.225,-0.105
5864,-0.195,-0.135
5865,-0.165,-0.095
5866,-0.175,-0.105
5867,-0.575,-0.005
5868,-0.685,0.175
5869,0.065,0.355
5870,1.945,0.145
5871,3.035,-0.405
5872,3.195,-1.045
5873,1.365,-1.005
5874,0.135,-0.585
5875,-0.285,-0.175
5876,-0.395,-0.035
5877,-0.395,-0.045
5878,-0.415,-0.055
5879,-0.395,-0.095
5880,-0.385,-0.055
5881,-0.375,-0.055
5882,-0.405,-0.065
5883,-0.405,-0.055
5884,-0.395,-0.065
5885,-0.355,-0.085
5886,-0.385,-0.105
5887,-0.365,-0.055
5888,-0.365,-0.065
5889,-0.365,-0.065
5890,-0.375,-0.045
5891,-0.365,-0.085
5892,-0.335,-0.035
5893,-0.335,-0.095
5894,-0.295,-0.105
5895,-0.275,-0.105
5896,-0.235,-0.095
5897,-0.195,-0.085
5898,-0.145,-0.085
5899,-0.105,-0.095
5900,-0.035,-0.105
5901,0.025,-0.115
5902,0.055,-0.115
5903,0.075,-0.095
5904,0.095,-0.065
5905,0.105,-0.055
5906,0.075,-0.045
5907,-0.005,-0.015
5908,-0.035,0.005
5909,-0.095,0.015
5910,-0.155,0.005
5911,-0.185,0.035
5912,-0.205,0.045
5913,-0.195,-0.005
5914,-0.195,-0.055
5915,-0.195,-0.045
5916,-0.175,-0.065
5917,-0.155,-0.025
5918,-0.175,-0.015
5919,-0.175,-0.015
5920,-0.165,-0.015
5921,-0.145,-0.015
5922,-0.155,-0.035
5923,-0.155,-0.035
5924,-0.155,-0.025
5925,-0.145,-0.025
5926,-0.155,-0.055
5927,-0.175,-0.025
5928,-0.165,-0.025
5929,-0.165,-0.015
5930,-0.195,-0.035
5931,-0.215,-0.035
5932,-0.215,-0.045
5933,-0.215,-0.065
5934,-0.205,-0.035
5935,-0.235,-0.035
5936,-0.225,-0.075
5937,-0.225,-0.045
5938,-0.225,-0.085
5939,-0.235,-0.085
5940,-0.225,-0.025
5941,-0.215,-0.075
5942,-0.215,-0.075
5943,-0.225,-0.065
5944,-0.225,-0.075
5945,-0.215,-0.055
5946,-0.215,-0.085
5947,-0.215,-0.075
5948,-0.195,-0.075
5949,-0.185,-0.075
5950,-0.195,-0.085
5951,-0.215,-0.085
5952,-0.225,-0.055
5953,-0.205,-0.075
5954,-0.185,-0.055
5955,-0.225,-0.095
5956,-0.205,-0.045
5957,-0.195,-0.085
5958,-0.175,-0.045
5959,-0.205,-0.055
5960,-0.095,-0.015
5961,-0.055,-0.005
5962,-0.135,-0.095
5963,-0.165,-0.085
5964,-0.165,-0.105
5965,-0.195,-0.095
5966,-0.225,-0.105
5967,-0.225,-0.115
5968,-0.195,-0.105
5969,-0.185,-0.085
5970,-0.165,-0.085
5971,-0.265,-0.085
5972,-0.655,0.035
5973,-0.485,0.225
5974,0.775,0.375
5975,2.515,0.085
5976,3.275,-0.575
5977,2.485,-0.965
5978,0.595,-0.845
5979,-0.105,-0.355
5980,-0.355,-0.095
5981,-0.385,-0.025
5982,-0.385,-0.065
5983,-0.395,-0.075
5984,-0.395,-0.055
5985,-0.385,-0.045
5986,-0.405,-0.055
5987,-0.415,-0.035
5988,-0.405,-0.075
5989,-0.385,-0.065
5990,-0.375,-0.055
5991,-0.405,-0.055
5992,-0.385,-0.055
5993,-0.375,-0.045
5994,-0.375,-0.075
5995,-0.375,-0.075
5996,-0.355,-0.075
5997,-0.355,-0.095
5998,-0.325,-0.085
5999,-0.305,-0.105
6000,-0.285,-0.105
6001,-0.215,-0.095
6002,-0.175,-0.145
6003,-0.125,-0.165
6004,-0.055,-0.145
6005,-0.005,-0.145
6006,0.045,-0.135
6007,0.045,-0.135
6008,0.055,-0.095
6009,0.075,-0.095
6010,0.055,-0.085
6011,0.005,-0.035
6012,-0.045,-0.045
6013,-0.095,0.025
6014,-0.155,-0.045
6015,-0.165,-0.025
6016,-0.185,-0.045
6017,-0.215,-0.025
6018,-0.205,-0.005
6019,-0.185,-0.045
6020,-0.185,-0.015
6021,-0.185,-0.025
6022,-0.185,-0.015
6023,-0.175,-0.015
6024,-0.155,-0.035
6025,-0.155,-0.035
6026,-0.165,-0.025
6027,-0.165,-0.025
6028,-0.155,-0.015
6029,-0.165,-0.005
6030,-0.155,-0.025
6031,-0.165,-0.015
6032,-0.175,-0.035
6033,-0.195,-0.035
6034,-0.195,-0.025
6035,-0.205,-0.065
6036,-0.205,-0.055
6037,-0.215,-0.035
6038,-0.235,-0.025
6039,-0.215,-0.045
6040,-0.215,-0.045
6041,-0.215,-0.055
6042,-0.215,-0.055
6043,-0.215,-0.055
6044,-0.225,-0.075
6045,-0.205,-0.035
6046,-0.215,-0.085
6047,-0.235,-0.075
6048,-0.205,-0.055
6049,-0.175,-0.045
6050,-0.195,-0.085
6051,-0.215,-0.075
6052,-0.205,-0.085
6053,-0.185,-0.055
6054,-0.195,-0.095
6055,-0.175,-0.085
6056,-0.185,-0.055
6057,-0.195,-0.075
6058,-0.225,-0.065
6059,-0.175,-0.055
6060,-0.065,0.005
6061,-0.045,-0.035
6062,-0.125,-0.115
6063,-0.155,-0.105
6064,-0.155,-0.125
6065,-0.185,-0.085
6066,-0.195,-0.125
6067,-0.195,-0.135
6068,-0.185,-0.085
6069,-0.195,-0.055
6070,-0.125,-0.065
6071,-0.215,-0.095
6072,-0.625,0.015
6073,-0.475,0.225
6074,0.655,0.445
6075,2.515,0.295
6076,3.315,-0.275
6077,2.605,-0.955
6078,0.655,-0.855
6079,-0.085,-0.515
6080,-0.305,-0.165
6081,-0.345,-0.045
6082,-0.335,-0.045
6083,-0.335,-0.085
6084,-0.315,-0.085
6085,-0.315,-0.075
6086,-0.335,-0.065
6087,-0.325,-0.075
6088,-0.285,-0.065
6089,-0.305,-0.105
6090,-0.305,-0.085
6091,-0.295,-0.095
6092,-0.305,-0.065
6093,-0.265,-0.075
6094,-0.275,-0.105
6095,-0.275,-0.105
6096,-0.255,-0.095
6097,-0.235,-0.115
6098,-0.225,-0.125
6099,-0.195,-0.115
6100,-0.175,-0.125
6101,-0.145,-0.135
6102,-0.085,-0.125
6103,-0.035,-0.215
6104,0.025,-0.195
6105,0.095,-0.185
6106,0.085,-0.195
6107,0.115,-0.165
6108,0.145,-0.155
6109,0.145,-0.135
6110,0.115,-0.115
6111,0.095,-0.085
6112,0.065,-0.055
6113,-0.005,-0.035
6114,-0.065,0.025
6115,-0.105,0.005
6116,-0.095,0.015
6117,-0.115,-0.005
6118,-0.115,0.015
6119,-0.105,0.045
6120,-0.105,-0.015
6121,-0.075,-0.005
6122,-0.085,-0.005
6123,-0.075,0.015
6124,-0.055,0.025
6125,-0.055,0.025
6126,-0.045,0.005
6127,-0.055,0.005
6128,-0.065,0.015
6129,-0.065,0.025
6130,-0.075,0.005
6131,-0.075,0.015
6132,-0.095,-0.005
6133,-0.095,-0.005
6134,-0.115,0.005
6135,-0.125,-0.045
6136,-0.135,0.045
6137,-0.135,-0.015
6138,-0.145,-0.015
6139,-0.155,-0.015
6140,-0.155,0.015
6141,-0.155,0.015
6142,-0.155,-0.005
6143,-0.155,-0.015
6144,-0.155,-0.025
6145,-0.155,-0.025
6146,-0.145,-0.045
6147,-0.155,-0.045
6148,-0.125,-0.015
6149,-0.135,-0.035
6150,-0.125,-0.045
6151,-0.135,-0.045
6152,-0.145,-0.055
6153,-0.145,-0.005
6154,-0.145,-0.015
6155,-0.145,-0.025
6156,-0.125,-0.075
6157,-0.125,-0.015
6158,-0.105,-0.035
6159,-0.145,-0.025
6160,-0.105,-0.015
6161,-0.015,-0.005
6162,-0.015,-0.025
6163,-0.075,-0.115
6164,-0.105,-0.075
6165,-0.095,-0.045
6166,-0.125,-0.055
6167,-0.165,-0.085
6168,-0.155,-0.075
6169,-0.125,-0.065
6170,-0.115,-0.075
6171,-0.065,-0.085
6172,-0.295,-0.075
6173,-0.655,0.135
6174,-0.315,0.325
6175,1.155,0.315
6176,2.705,-0.005
6177,3.355,-0.655
6178,2.575,-1.055
6179,0.625,-0.835
6180,-0.075,-0.365
6181,-0.275,-0.045
6182,-0.335,-0.015
6183,-0.335,-0.055
6184,-0.335,-0.035
6185,-0.315,-0.015
6186,-0.315,-0.045
6187,-0.335,-0.055
6188,-0.315,-0.045
6189,-0.305,-0.005
6190,-0.325,-0.025
6191,-0.315,-0.025
6192,-0.295,-0.075
6193,-0.295,-0.065
6194,-0.305,-0.055
6195,-0.305,-0.045
6196,-0.275,-0.055
6197,-0.265,-0.055
6198,-0.255,-0.055
6199,-0.245,-0.085
6200,-0.225,-0.085
6201,-0.195,-0.065
6202,-0.155,-0.085
6203,-0.095,-0.105
6204,-0.025,-0.135
6205,0.015,-0.095
6206,0.065,-0.065
6207,0.105,-0.115
6208,0.145,-0.125
6209,0.155,-0.095
6210,0.155,-0.095
6211,0.135,-0.065
6212,0.095,-0.045
6213,0.045,-0.015
6214,-0.015,-0.025
6215,-0.085,-0.025
6216,-0.115,-0.015
6217,-0.135,-0.005
6218,-0.135,-0.015
6219,-0.155,-0.025
6220,-0.135,-0.005
6221,-0.135,0.005
6222,-0.115,-0.065
6223,-0.105,-0.065
6224,-0.085,-0.055
6225,-0.075,-0.025
6226,-0.085,-0.025
6227,-0.095,-0.025
6228,-0.085,-0.025
6229,-0.075,-0.035
6230,-0.095,-0.045
6231,-0.085,-0.045
6232,-0.075,-0.035
6233,-0.075,-0.035
6234,-0.095,-0.065
6235,-0.115,-0.055
6236,-0.125,-0.035
6237,-0.105,-0.055
6238,-0.135,-0.045
6239,-0.135,-0.095
6240,-0.135,-0.075
6241,-0.145,-0.035
6242,-0.155,-0.065
6243,-0.135,-0.055
6244,-0.125,-0.045
6245,-0.135,-0.065
6246,-0.135,-0.095
6247,-0.125,-0.075
6248,-0.115,-0.085
6249,-0.115,-0.075
6250,-0.115,-0.065
6251,-0.125,-0.095
6252,-0.115,-0.095
6253,-0.105,-0.065
6254,-0.115,-0.085
6255,-0.105,-0.085
6256,-0.115,-0.095
6257,-0.085,-0.085
6258,-0.105,-0.095
6259,-0.105,-0.075
6260,-0.095,-0.095
6261,-0.095,-0.065
6262,-0.075,-0.065
6263,-0.095,-0.035
6264,-0.025,-0.025
6265,0.035,-0.015
6266,-0.025,-0.075
6267,-0.075,-0.135
6268,-0.055,-0.135
6269,-0.055,-0.025
6270,-0.105,-0.095
6271,-0.125,-0.085
6272,-0.105,-0.095
6273,-0.095,-0.095
6274,-0.055,-0.075
6275,-0.045,-0.075
6276,-0.425,-0.015
6277,-0.535,0.155
6278,0.135,0.375
6279,1.835,0.225
6280,2.925,-0.205
6281,3.275,-0.815
6282,1.765,-0.945
6283,0.335,-0.675
6284,-0.115,-0.255
6285,-0.235,-0.035
6286,-0.295,-0.015
6287,-0.305,-0.055
6288,-0.295,-0.055
6289,-0.285,-0.035
6290,-0.275,-0.075
6291,-0.285,-0.045
6292,-0.275,-0.035
6293,-0.285,-0.045
6294,-0.275,-0.045
6295,-0.275,-0.045
6296,-0.265,-0.045
6297,-0.255,-0.055
6298,-0.255,-0.085
6299,-0.275,-0.075
6300,-0.265,-0.055
6301,-0.245,-0.035
6302,-0.245,-0.085
6303,-0.225,-0.085
6304,-0.185,-0.085
6305,-0.135,-0.125
6306,-0.115,-0.155
6307,-0.075,-0.125
6308,0.005,-0.125
6309,0.065,-0.115
6310,0.115,-0.125
6311,0.155,-0.135
6312,0.175,-0.135
6313,0.185,-0.095
6314,0.185,-0.085
6315,0.155,-0.075
6316,0.115,-0.055
6317,0.055,-0.005
6318,-0.005,-0.005
6319,-0.065,0.005
6320,-0.085,-0.005
6321,-0.095,0.005
6322,-0.115,-0.005
6323,-0.105,-0.005
6324,-0.115,-0.005
6325,-0.095,-0.005
6326,-0.095,-0.015
6327,-0.085,-0.035
6328,-0.075,-0.025
6329,-0.065,-0.015
6330,-0.065,-0.025
6331,-0.085,-0.035
6332,-0.075,-0.025
6333,-0.065,-0.005
6334,-0.075,-0.045
6335,-0.115,-0.045
6336,-0.095,-0.005
6337,-0.085,-0.005
6338,-0.095,-0.045
6339,-0.105,-0.045
6340,-0.095,-0.045
6341,-0.115,-0.045
6342,-0.125,-0.055
6343,-0.125,-0.055
6344,-0.135,-0.075
6345,-0.155,-0.045
6346,-0.155,-0.075
6347,-0.145,-0.075
6348,-0.145,-0.055
6349,-0.145,-0.085
6350,-0.135,-0.085
6351,-0.125,-0.075
6352,-0.145,-0.075
6353,-0.115,-0.055
6354,-0.125,-0.065
6355,-0.125,-0.075
6356,-0.105,-0.075
6357,-0.105,-0.085
6358,-0.105,-0.095
6359,-0.115,-0.095
6360,-0.115,-0.085
6361,-0.095,-0.065
6362,-0.115,-0.035
6363,-0.115,-0.095
6364,-0.105,-0.105
6365,-0.105,-0.065
6366,-0.125,-0.115
6367,-0.135,-0.055
6368,-0.095,-0.045
6369,0.025,-0.025
6370,0.015,-0.055
6371,-0.055,-0.115
6372,-0.075,-0.145
6373,-0.085,-0.105
6374,-0.115,-0.115
6375,-0.135,-0.125
6376,-0.125,-0.095
6377,-0.085,-0.105
6378,-0.085,-0.115
6379,-0.045,-0.045
6380,-0.165,-0.095
6381,-0.545,0.025
6382,-0.415,0.225
6383,0.885,0.355
6384,2.645,0.195
6385,3.395,-0.405
6386,2.485,-0.935
6387,0.605,-0.835
6388,-0.065,-0.435
6389,-0.255,-0.115
6390,-0.275,-0.065
6391,-0.275,-0.095
6392,-0.275,-0.095
6393,-0.285,-0.085
6394,-0.285,-0.095
6395,-0.275,-0.095
6396,-0.285,-0.115
6397,-0.295,-0.035
6398,-0.295,-0.085
6399,-0.285,-0.095
6400,-0.265,-0.095
6401,-0.265,-0.075
6402,-0.255,-0.095
6403,-0.265,-0.095
6404,-0.275,-0.085
6405,-0.235,-0.085
6406,-0.205,-0.125
6407,-0.195,-0.165
6408,-0.185,-0.095
6409,-0.135,-0.105
6410,-0.105,-0.125
6411,-0.065,-0.145
6412,0.005,-0.165
6413,0.055,-0.215
6414,0.095,-0.185
6415,0.155,-0.155
6416,0.165,-0.175
6417,0.185,-0.165
6418,0.175,-0.155
6419,0.165,-0.125
6420,0.145,-0.065
6421,0.115,-0.045
6422,0.035,-0.055
6423,-0.045,-0.035
6424,-0.075,-0.015
6425,-0.085,-0.005
6426,-0.085,-0.045
6427,-0.125,-0.015
6428,-0.105,-0.005
6429,-0.095,-0.045
6430,-0.095,-0.035
6431,-0.095,-0.045
6432,-0.065,-0.045
6433,-0.045,-0.015
6434,-0.055,-0.025
6435,-0.065,-0.025
6436,-0.055,-0.005
6437,-0.045,-0.015
6438,-0.055,-0.025
6439,-0.055,-0.035
6440,-0.065,-0.025
6441,-0.055,-0.015
6442,-0.075,0.015
6443,-0.085,-0.045
6444,-0.075,-0.045
6445,-0.095,-0.035
6446,-0.125,-0.055
6447,-0.115,-0.025
6448,-0.105,-0.075
6449,-0.115,-0.045
6450,-0.135,-0.045
6451,-0.125,-0.045
6452,-0.125,-0.045
6453,-0.115,-0.055
6454,-0.105,-0.065
6455,-0.115,-0.085
6456,-0.095,-0.065
6457,-0.095,-0.025
6458,-0.115,-0.065
6459,-0.105,-0.095
6460,-0.085,-0.055
6461,-0.085,-0.055
