'sample interval','ECG0','ECG1'
'0.0078125 sec','mV','mV'
0,0.060,-0.020
1,0.060,-0.030
2,0.075,-0.040
3,0.080,-0.065
4,0.095,-0.070
5,0.105,-0.095
6,0.115,-0.120
7,0.125,-0.140
8,0.135,-0.160
9,0.140,-0.180
10,0.140,-0.200
11,0.125,-0.210
12,0.115,-0.225
13,0.100,-0.240
14,0.080,-0.230
15,0.055,-0.220
16,0.030,-0.200
17,0.005,-0.170
18,0.000,-0.135
19,-0.010,-0.090
20,-0.040,-0.050
21,-0.055,-0.015
22,-0.055,0.000
23,-0.055,0.000
24,-0.065,0.015
25,-0.080,0.035
26,-0.075,0.045
27,-0.060,0.050
28,-0.055,0.050
29,-0.055,0.055
30,-0.055,0.050
31,-0.050,0.050
32,-0.045,0.065
33,-0.040,0.070
34,-0.050,0.065
35,-0.055,0.065
36,-0.055,0.065
37,-0.055,0.070
38,-0.055,0.060
39,-0.055,0.055
40,-0.055,0.055
41,-0.055,0.050
42,-0.055,0.050
43,-0.060,0.050
44,-0.055,0.050
45,-0.055,0.050
46,-0.065,0.050
47,-0.055,0.050
48,-0.055,0.050
49,-0.055,0.050
50,-0.055,0.050
51,-0.055,0.045
52,-0.055,0.040
53,-0.055,0.040
54,-0.055,0.045
55,-0.055,0.040
56,-0.055,0.040
57,-0.055,0.030
58,-0.055,0.035
59,-0.055,0.040
60,-0.055,0.030
61,-0.045,0.030
62,-0.040,0.035
63,-0.030,0.030
64,-0.020,0.025
65,-0.020,0.020
66,-0.040,0.010
67,-0.050,0.005
68,-0.055,0.000
69,-0.055,0.000
70,-0.055,0.000
71,-0.055,0.000
72,-0.055,0.000
73,-0.065,0.000
74,-0.050,0.000
75,-0.045,0.005
76,-0.055,0.030
77,-0.055,0.045
78,-0.060,0.050
79,-0.065,0.045
80,-0.055,0.045
81,-0.050,0.050
82,-0.035,0.045
83,-0.045,0.035
84,-0.115,0.000
85,-0.050,-0.085
86,0.285,-0.210
87,0.695,-0.330
88,0.975,-0.395
89,0.670,-0.270
90,0.120,-0.035
91,-0.195,0.165
92,-0.235,0.175
93,-0.140,0.125
94,-0.045,0.080
95,-0.005,0.075
96,0.000,0.070
97,0.000,0.055
98,0.000,0.055
99,0.000,0.050
100,0.000,0.050
101,0.000,0.050
102,0.010,0.045
103,0.015,0.040
104,0.020,0.030
105,0.020,0.025
106,0.030,0.015
107,0.040,0.010
108,0.040,0.000
109,0.050,0.000
110,0.055,0.000
111,0.060,-0.010
112,0.070,-0.020
113,0.080,-0.030
114,0.080,-0.040
115,0.095,-0.060
116,0.120,-0.075
117,0.135,-0.090
118,0.140,-0.120
119,0.140,-0.140
120,0.140,-0.160
121,0.135,-0.170
122,0.130,-0.185
123,0.125,-0.210
124,0.120,-0.230
125,0.100,-0.230
126,0.095,-0.230
127,0.070,-0.210
128,0.050,-0.190
129,0.015,-0.145
130,0.000,-0.100
131,0.000,-0.065
132,-0.020,-0.035
133,-0.030,0.000
134,-0.045,0.010
135,-0.050,0.030
136,-0.055,0.045
137,-0.055,0.050
138,-0.055,0.055
139,-0.045,0.070
140,-0.050,0.075
141,-0.055,0.075
142,-0.040,0.075
143,-0.035,0.075
144,-0.035,0.080
145,-0.045,0.075
146,-0.050,0.075
147,-0.040,0.075
148,-0.035,0.080
149,-0.040,0.085
150,-0.050,0.080
151,-0.050,0.070
152,-0.045,0.070
153,-0.050,0.075
154,-0.035,0.075
155,-0.025,0.075
156,-0.030,0.075
157,-0.040,0.075
158,-0.045,0.075
159,-0.045,0.075
160,-0.035,0.070
161,-0.035,0.055
162,-0.035,0.055
163,-0.035,0.065
164,-0.040,0.070
165,-0.045,0.055
166,-0.035,0.070
167,-0.050,0.065
168,-0.040,0.065
169,-0.040,0.060
170,-0.030,0.055
171,-0.030,0.050
172,-0.025,0.065
173,-0.030,0.070
174,-0.020,0.055
175,-0.020,0.050
176,-0.030,0.040
177,-0.035,0.030
178,-0.035,0.020
179,-0.045,0.015
180,-0.050,0.010
181,-0.055,0.005
182,-0.055,0.000
183,-0.055,0.000
184,-0.035,0.005
185,-0.020,0.020
186,-0.015,0.040
187,-0.015,0.055
188,-0.015,0.065
189,-0.025,0.055
190,-0.025,0.060
191,-0.015,0.065
192,-0.015,0.070
193,-0.020,0.065
194,-0.055,0.030
195,-0.050,-0.020
196,0.160,-0.105
197,0.560,-0.210
198,0.930,-0.290
199,0.970,-0.270
200,0.500,-0.110
201,0.000,0.075
202,-0.230,0.200
203,-0.215,0.175
204,-0.100,0.120
205,-0.020,0.095
206,0.000,0.085
207,0.000,0.075
208,0.000,0.075
209,0.000,0.070
210,0.000,0.065
211,0.000,0.060
212,0.005,0.055
213,0.005,0.050
214,0.005,0.050
215,0.015,0.045
216,0.020,0.035
217,0.020,0.035
218,0.025,0.015
219,0.030,0.015
220,0.035,0.015
221,0.050,0.000
222,0.055,0.000
223,0.060,-0.005
224,0.060,-0.015
225,0.070,-0.030
226,0.085,-0.045
227,0.105,-0.065
228,0.115,-0.075
229,0.120,-0.090
230,0.125,-0.115
231,0.130,-0.135
232,0.125,-0.150
233,0.120,-0.170
234,0.105,-0.185
235,0.090,-0.190
236,0.075,-0.195
237,0.065,-0.190
238,0.045,-0.170
239,0.020,-0.140
240,0.000,-0.100
241,-0.010,-0.055
242,-0.035,-0.020
243,-0.045,0.000
244,-0.055,0.020
245,-0.070,0.035
246,-0.080,0.050
247,-0.090,0.055
248,-0.090,0.065
249,-0.080,0.075
250,-0.080,0.075
251,-0.080,0.075
252,-0.080,0.075
253,-0.075,0.070
254,-0.065,0.070
255,-0.065,0.075
256,-0.065,0.075
257,-0.055,0.075
258,-0.055,0.065
259,-0.055,0.065
260,-0.060,0.060
261,-0.075,0.050
262,-0.080,0.055
263,-0.080,0.055
264,-0.080,0.055
265,-0.080,0.055
266,-0.080,0.050
267,-0.080,0.050
268,-0.080,0.050
269,-0.080,0.050
270,-0.080,0.050
271,-0.070,0.050
272,-0.075,0.050
273,-0.070,0.050
274,-0.075,0.050
275,-0.080,0.050
276,-0.080,0.050
277,-0.080,0.050
278,-0.080,0.050
279,-0.075,0.045
280,-0.065,0.045
281,-0.055,0.040
282,-0.055,0.040
283,-0.055,0.035
284,-0.055,0.030
285,-0.050,0.025
286,-0.050,0.020
287,-0.055,0.015
288,-0.070,0.005
289,-0.090,0.000
290,-0.090,0.000
291,-0.085,0.000
292,-0.080,0.000
293,-0.090,0.000
294,-0.085,0.000
295,-0.065,0.000
296,-0.065,0.010
297,-0.080,0.045
298,-0.080,0.045
299,-0.080,0.045
300,-0.070,0.050
301,-0.060,0.050
302,-0.055,0.050
303,-0.055,0.040
304,-0.075,0.015
305,-0.115,-0.020
306,0.085,-0.100
307,0.480,-0.220
308,0.895,-0.335
309,0.910,-0.380
310,0.460,-0.270
311,-0.010,-0.030
312,-0.225,0.115
313,-0.195,0.110
314,-0.085,0.075
315,-0.040,0.065
316,-0.025,0.055
317,-0.015,0.050
318,-0.015,0.050
319,-0.015,0.050
320,-0.005,0.050
321,0.000,0.045
322,0.000,0.035
323,0.000,0.030
324,0.000,0.025
325,0.000,0.020
326,0.005,0.015
327,0.020,0.015
328,0.025,0.010
329,0.040,0.000
330,0.040,0.000
331,0.040,0.000
332,0.045,-0.010
333,0.060,-0.020
334,0.070,-0.035
335,0.080,-0.050
336,0.090,-0.060
337,0.100,-0.075
338,0.125,-0.095
339,0.140,-0.125
340,0.140,-0.140
341,0.140,-0.165
342,0.140,-0.175
343,0.140,-0.195
344,0.125,-0.215
345,0.110,-0.230
346,0.095,-0.235
347,0.075,-0.235
348,0.050,-0.210
349,0.025,-0.180
350,0.000,-0.135
351,-0.010,-0.095
352,-0.030,-0.060
353,-0.045,-0.030
354,-0.060,-0.010
355,-0.065,0.000
356,-0.075,0.005
357,-0.080,0.020
358,-0.080,0.025
359,-0.080,0.035
360,-0.080,0.045
361,-0.065,0.050
362,-0.055,0.050
363,-0.055,0.050
364,-0.055,0.050
365,-0.055,0.050
366,-0.055,0.050
367,-0.055,0.050
368,-0.055,0.050
369,-0.055,0.050
370,-0.055,0.050
371,-0.055,0.045
372,-0.060,0.045
373,-0.060,0.040
374,-0.055,0.040
375,-0.070,0.045
376,-0.075,0.045
377,-0.070,0.045
378,-0.080,0.040
379,-0.080,0.035
380,-0.080,0.035
381,-0.080,0.030
382,-0.080,0.030
383,-0.080,0.040
384,-0.080,0.045
385,-0.080,0.040
386,-0.080,0.040
387,-0.080,0.035
388,-0.080,0.035
389,-0.080,0.035
390,-0.055,0.030
391,-0.055,0.025
392,-0.055,0.035
393,-0.055,0.030
394,-0.045,0.030
395,-0.040,0.025
396,-0.050,0.010
397,-0.055,0.005
398,-0.060,0.000
399,-0.070,0.000
400,-0.080,0.000
401,-0.070,0.000
402,-0.070,-0.005
403,-0.075,-0.010
404,-0.070,0.000
405,-0.055,0.000
406,-0.055,0.010
407,-0.055,0.030
408,-0.055,0.040
409,-0.060,0.045
410,-0.060,0.050
411,-0.055,0.050
412,-0.055,0.050
413,-0.055,0.045
414,-0.070,0.025
415,-0.100,-0.025
416,0.040,-0.115
417,0.405,-0.235
418,0.785,-0.350
419,0.925,-0.395
420,0.505,-0.265
421,0.000,-0.030
422,-0.235,0.155
423,-0.215,0.140
424,-0.095,0.085
425,-0.020,0.070
426,-0.015,0.065
427,-0.015,0.055
428,0.000,0.055
429,0.000,0.050
430,0.000,0.050
431,0.000,0.040
432,0.000,0.040
433,0.000,0.025
434,0.000,0.025
435,0.015,0.025
436,0.020,0.015
437,0.020,0.010
438,0.030,0.000
439,0.035,0.000
440,0.040,0.000
441,0.045,-0.010
442,0.055,-0.025
443,0.060,-0.035
444,0.075,-0.045
445,0.090,-0.060
446,0.095,-0.080
447,0.110,-0.100
448,0.120,-0.120
449,0.130,-0.140
450,0.140,-0.160
451,0.140,-0.190
452,0.140,-0.210
453,0.135,-0.225
454,0.125,-0.235
455,0.110,-0.250
456,0.085,-0.250
457,0.070,-0.240
458,0.050,-0.225
459,0.030,-0.195
460,0.000,-0.160
461,0.000,-0.120
462,-0.015,-0.075
463,-0.040,-0.045
464,-0.055,-0.015
465,-0.055,0.000
466,-0.055,0.005
467,-0.055,0.025
468,-0.055,0.030
469,-0.055,0.040
470,-0.055,0.045
471,-0.055,0.050
472,-0.045,0.050
473,-0.040,0.050
474,-0.035,0.060
475,-0.035,0.065
476,-0.035,0.055
477,-0.035,0.055
478,-0.035,0.070
479,-0.035,0.070
480,-0.040,0.065
481,-0.050,0.065
482,-0.050,0.065
483,-0.050,0.065
484,-0.050,0.055
485,-0.055,0.055
486,-0.055,0.055
487,-0.055,0.055
488,-0.055,0.055
489,-0.055,0.060
490,-0.055,0.055
491,-0.055,0.055
492,-0.055,0.060
493,-0.055,0.060
494,-0.055,0.060
495,-0.045,0.055
496,-0.035,0.050
497,-0.045,0.060
498,-0.050,0.060
499,-0.050,0.045
500,-0.045,0.045
501,-0.035,0.050
502,-0.035,0.050
503,-0.035,0.050
504,-0.030,0.045
505,-0.025,0.040
506,-0.015,0.030
507,-0.020,0.020
508,-0.035,0.015
509,-0.055,0.000
510,-0.055,0.010
511,-0.055,0.005
512,-0.055,0.000
513,-0.055,0.000
514,-0.055,0.000
515,-0.040,0.010
516,-0.035,0.020
517,-0.045,0.050
518,-0.050,0.055
519,-0.050,0.060
520,-0.050,0.060
521,-0.055,0.065
522,-0.035,0.060
523,-0.025,0.060
524,-0.045,0.050
525,-0.105,0.000
526,0.005,-0.075
527,0.340,-0.185
528,0.745,-0.295
529,0.935,-0.330
530,0.655,-0.220
531,0.150,-0.005
532,-0.165,0.160
533,-0.220,0.195
534,-0.135,0.140
535,-0.050,0.090
536,-0.005,0.080
537,0.000,0.080
538,0.000,0.075
539,0.000,0.070
540,0.000,0.070
541,0.000,0.065
542,0.000,0.055
543,0.015,0.050
544,0.020,0.050
545,0.020,0.045
546,0.020,0.030
547,0.020,0.025
548,0.020,0.020
549,0.040,0.010
550,0.055,0.000
551,0.040,0.000
552,0.045,0.000
553,0.060,-0.020
554,0.075,-0.020
555,0.085,-0.030
556,0.105,-0.040
557,0.110,-0.055
558,0.110,-0.080
559,0.125,-0.100
560,0.135,-0.125
561,0.140,-0.155
562,0.140,-0.175
563,0.130,-0.185
564,0.120,-0.205
565,0.120,-0.210
566,0.105,-0.210
567,0.080,-0.210
568,0.060,-0.185
569,0.040,-0.155
570,0.015,-0.115
571,0.000,-0.080
572,-0.005,-0.045
573,-0.020,-0.015
574,-0.030,0.005
575,-0.045,0.030
576,-0.055,0.045
577,-0.055,0.050
578,-0.055,0.055
579,-0.055,0.065
580,-0.050,0.075
581,-0.045,0.075
582,-0.045,0.075
583,-0.050,0.075
584,-0.040,0.075
585,-0.035,0.075
586,-0.035,0.075
587,-0.035,0.075
588,-0.035,0.075
589,-0.035,0.075
590,-0.035,0.075
591,-0.035,0.070
592,-0.035,0.060
593,-0.050,0.060
594,-0.055,0.060
595,-0.055,0.055
596,-0.055,0.055
597,-0.055,0.060
598,-0.055,0.060
599,-0.055,0.055
600,-0.055,0.055
601,-0.055,0.060
602,-0.055,0.060
603,-0.055,0.055
604,-0.055,0.060
605,-0.055,0.060
606,-0.055,0.055
607,-0.055,0.055
608,-0.055,0.050
609,-0.055,0.050
610,-0.055,0.050
611,-0.055,0.050
612,-0.055,0.055
613,-0.055,0.060
614,-0.055,0.050
615,-0.055,0.050
616,-0.055,0.040
617,-0.055,0.035
618,-0.060,0.025
619,-0.070,0.010
620,-0.085,0.010
621,-0.085,0.020
622,-0.080,0.010
623,-0.085,0.000
624,-0.095,0.000
625,-0.085,0.000
626,-0.080,0.015
627,-0.080,0.040
628,-0.080,0.050
629,-0.080,0.060
630,-0.080,0.055
631,-0.080,0.055
632,-0.075,0.060
633,-0.070,0.060
634,-0.080,0.045
635,-0.110,0.015
636,-0.105,-0.035
637,0.195,-0.130
638,0.615,-0.250
639,1.000,-0.345
640,0.820,-0.325
641,0.240,-0.140
642,-0.175,0.105
643,-0.275,0.175
644,-0.195,0.125
645,-0.090,0.090
646,-0.055,0.075
647,-0.045,0.075
648,-0.045,0.070
649,-0.035,0.060
650,-0.035,0.055
651,-0.030,0.050
652,-0.015,0.050
653,-0.010,0.040
654,0.000,0.030
655,0.000,0.030
656,0.000,0.025
657,0.000,0.020
658,0.000,0.015
659,0.000,0.005
660,0.005,0.000
661,0.015,0.000
662,0.025,-0.005
663,0.035,-0.020
664,0.045,-0.025
665,0.055,-0.035
666,0.060,-0.050
667,0.070,-0.070
668,0.085,-0.085
669,0.100,-0.105
670,0.115,-0.135
671,0.125,-0.155
672,0.125,-0.170
673,0.120,-0.190
674,0.115,-0.210
675,0.100,-0.225
676,0.090,-0.235
677,0.075,-0.230
678,0.055,-0.215
679,0.030,-0.185
680,0.005,-0.150
681,0.000,-0.105
682,-0.020,-0.075
683,-0.040,-0.035
684,-0.050,-0.010
685,-0.075,0.000
686,-0.080,0.010
687,-0.080,0.020
688,-0.080,0.035
689,-0.080,0.045
690,-0.070,0.050
691,-0.075,0.050
692,-0.060,0.050
693,-0.060,0.060
694,-0.055,0.055
695,-0.055,0.055
696,-0.055,0.055
697,-0.055,0.055
698,-0.055,0.055
699,-0.055,0.060
700,-0.055,0.055
701,-0.055,0.050
702,-0.055,0.050
703,-0.055,0.050
704,-0.060,0.050
705,-0.065,0.050
706,-0.070,0.050
707,-0.080,0.050
708,-0.080,0.050
709,-0.080,0.050
710,-0.080,0.045
711,-0.080,0.045
712,-0.080,0.050
713,-0.080,0.045
714,-0.080,0.040
715,-0.075,0.050
716,-0.070,0.045
717,-0.065,0.040
718,-0.055,0.040
719,-0.055,0.040
720,-0.055,0.045
721,-0.055,0.045
722,-0.055,0.030
723,-0.055,0.030
724,-0.055,0.040
725,-0.050,0.040
726,-0.050,0.040
727,-0.035,0.035
728,-0.035,0.025
729,-0.040,0.020
730,-0.050,0.015
731,-0.055,0.000
732,-0.055,0.000
733,-0.060,0.000
734,-0.060,0.000
735,-0.055,0.000
736,-0.070,-0.005
737,-0.065,0.000
738,-0.055,0.000
739,-0.055,0.015
740,-0.055,0.035
741,-0.055,0.045
742,-0.055,0.050
743,-0.055,0.050
744,-0.055,0.050
745,-0.055,0.045
746,-0.055,0.040
747,-0.080,0.025
748,-0.095,-0.020
749,0.065,-0.115
750,0.430,-0.240
751,0.800,-0.355
752,0.880,-0.380
753,0.475,-0.255
754,0.000,-0.025
755,-0.225,0.140
756,-0.205,0.135
757,-0.095,0.090
758,-0.030,0.070
759,-0.015,0.065
760,-0.010,0.055
761,-0.005,0.050
762,0.000,0.050
763,0.000,0.050
764,0.000,0.050
765,0.000,0.045
766,0.000,0.035
767,0.015,0.025
768,0.020,0.030
769,0.020,0.020
770,0.020,0.010
771,0.035,0.010
772,0.040,0.000
773,0.055,0.000
774,0.060,0.000
775,0.060,-0.015
776,0.070,-0.020
777,0.080,-0.040
778,0.095,-0.050
779,0.110,-0.065
780,0.125,-0.085
781,0.135,-0.110
782,0.140,-0.135
783,0.140,-0.160
784,0.150,-0.180
785,0.155,-0.200
786,0.150,-0.215
787,0.140,-0.230
788,0.125,-0.235
789,0.105,-0.235
790,0.090,-0.230
791,0.065,-0.210
792,0.035,-0.180
793,0.010,-0.135
794,0.000,-0.100
795,-0.005,-0.065
796,-0.020,-0.030
797,-0.040,-0.005
798,-0.055,0.000
799,-0.055,0.015
800,-0.055,0.025
801,-0.055,0.030
802,-0.050,0.050
803,-0.050,0.050
804,-0.045,0.050
805,-0.030,0.065
806,-0.025,0.060
807,-0.030,0.060
808,-0.035,0.065
809,-0.035,0.070
810,-0.035,0.070
811,-0.035,0.070
812,-0.035,0.070
813,-0.035,0.070
814,-0.035,0.065
815,-0.040,0.065
816,-0.035,0.070
817,-0.035,0.070
818,-0.035,0.060
819,-0.045,0.045
820,-0.035,0.045
821,-0.045,0.045
822,-0.050,0.060
823,-0.055,0.050
824,-0.055,0.050
825,-0.055,0.050
826,-0.055,0.045
827,-0.055,0.045
828,-0.045,0.050
829,-0.035,0.050
830,-0.035,0.050
831,-0.035,0.050
832,-0.035,0.050
833,-0.035,0.050
834,-0.035,0.050
835,-0.035,0.045
836,-0.035,0.040
837,-0.030,0.040
838,-0.020,0.045
839,-0.015,0.040
840,-0.015,0.050
841,-0.010,0.045
842,-0.005,0.035
843,-0.005,0.025
844,-0.005,0.020
845,-0.020,0.010
846,-0.030,0.000
847,-0.035,0.000
848,-0.035,0.000
849,-0.035,0.000
850,-0.045,0.000
851,-0.050,0.000
852,-0.035,0.000
853,-0.035,0.025
854,-0.035,0.035
855,-0.030,0.045
856,-0.040,0.060
857,-0.040,0.055
858,-0.035,0.055
859,-0.030,0.050
860,-0.030,0.050
861,-0.030,0.050
862,-0.090,0.010
863,-0.030,-0.065
864,0.255,-0.185
865,0.650,-0.310
866,0.940,-0.375
867,0.730,-0.275
868,0.235,-0.070
869,-0.125,0.130
870,-0.220,0.180
871,-0.145,0.135
872,-0.045,0.090
873,0.000,0.075
874,0.000,0.075
875,0.000,0.075
876,0.000,0.070
877,0.000,0.060
878,0.005,0.050
879,0.005,0.045
880,0.020,0.045
881,0.030,0.045
882,0.035,0.035
883,0.025,0.030
884,0.040,0.025
885,0.050,0.015
886,0.045,0.000
887,0.055,0.000
888,0.065,0.000
889,0.085,-0.005
890,0.085,-0.020
891,0.100,-0.035
892,0.100,-0.045
893,0.115,-0.055
894,0.130,-0.065
895,0.150,-0.090
896,0.160,-0.115
897,0.170,-0.130
898,0.165,-0.165
899,0.180,-0.180
900,0.165,-0.200
901,0.155,-0.210
902,0.155,-0.225
903,0.140,-0.230
904,0.120,-0.230
905,0.080,-0.205
906,0.055,-0.170
907,0.035,-0.130
908,0.005,-0.090
909,0.000,-0.050
910,0.000,-0.015
911,-0.005,0.000
912,-0.020,0.015
913,-0.030,0.030
914,-0.045,0.045
915,-0.050,0.050
916,-0.040,0.060
917,-0.035,0.070
918,-0.030,0.075
919,-0.025,0.075
920,-0.020,0.075
921,-0.010,0.080
922,-0.005,0.075
923,-0.005,0.075
924,-0.015,0.075
925,-0.015,0.075
926,-0.015,0.075
927,-0.015,0.075
928,-0.015,0.075
929,-0.015,0.070
930,-0.015,0.065
931,-0.015,0.065
932,-0.015,0.065
933,-0.010,0.070
934,-0.010,0.060
935,-0.015,0.055
936,-0.015,0.065
937,-0.025,0.065
938,-0.030,0.065
939,-0.030,0.065
940,-0.015,0.060
941,-0.020,0.060
942,-0.025,0.055
943,-0.020,0.060
944,-0.015,0.065
945,-0.015,0.055
946,-0.015,0.055
947,-0.015,0.060
948,-0.020,0.060
949,-0.025,0.055
950,-0.020,0.050
951,-0.015,0.050
952,-0.015,0.050
953,-0.010,0.050
954,0.000,0.050
955,0.000,0.050
956,0.000,0.050
957,-0.005,0.040
958,-0.020,0.030
959,-0.025,0.010
960,-0.030,0.005
961,-0.035,0.005
962,-0.025,0.000
963,-0.025,0.000
964,-0.040,0.000
965,-0.035,0.005
966,-0.015,0.015
967,-0.015,0.035
968,-0.025,0.055
969,-0.035,0.050
970,-0.035,0.050
971,-0.030,0.065
972,-0.025,0.070
973,-0.020,0.060
974,-0.015,0.055
975,-0.040,0.035
976,-0.080,-0.015
977,0.080,-0.095
978,0.475,-0.215
979,0.890,-0.325
980,1.005,-0.350
981,0.525,-0.205
982,0.000,0.030
983,-0.250,0.190
984,-0.210,0.160
985,-0.100,0.110
986,-0.025,0.080
987,-0.015,0.075
988,-0.005,0.070
989,0.000,0.060
990,0.000,0.060
991,0.000,0.065
992,0.000,0.055
993,0.000,0.050
994,0.000,0.045
995,0.005,0.040
996,0.015,0.030
997,0.020,0.025
998,0.025,0.020
999,0.035,0.010
1000,0.040,0.000
1001,0.050,0.000
1002,0.060,0.000
1003,0.060,-0.005
1004,0.070,-0.020
1005,0.080,-0.030
1006,0.095,-0.040
1007,0.105,-0.055
1008,0.120,-0.075
1009,0.140,-0.095
1010,0.145,-0.115
1011,0.155,-0.140
1012,0.160,-0.165
1013,0.160,-0.185
1014,0.155,-0.200
1015,0.150,-0.215
1016,0.135,-0.230
1017,0.130,-0.230
1018,0.105,-0.220
1019,0.075,-0.195
1020,0.045,-0.165
1021,0.015,-0.125
1022,0.000,-0.080
1023,-0.005,-0.045
1024,-0.030,-0.020
1025,-0.035,0.000
1026,-0.050,0.000
1027,-0.055,0.015
1028,-0.055,0.035
1029,-0.055,0.035
1030,-0.055,0.045
1031,-0.055,0.050
1032,-0.045,0.050
1033,-0.045,0.060
1034,-0.035,0.060
1035,-0.035,0.060
1036,-0.035,0.060
1037,-0.035,0.060
1038,-0.035,0.060
1039,-0.035,0.060
1040,-0.040,0.060
1041,-0.040,0.060
1042,-0.045,0.065
1043,-0.050,0.055
1044,-0.050,0.055
1045,-0.050,0.050
1046,-0.055,0.050
1047,-0.055,0.050
1048,-0.055,0.050
1049,-0.055,0.050
1050,-0.055,0.050
1051,-0.055,0.050
1052,-0.055,0.050
1053,-0.055,0.050
1054,-0.055,0.050
1055,-0.055,0.050
1056,-0.055,0.050
1057,-0.050,0.045
1058,-0.050,0.035
1059,-0.055,0.050
1060,-0.055,0.050
1061,-0.055,0.050
1062,-0.055,0.050
1063,-0.055,0.050
1064,-0.055,0.045
1065,-0.055,0.035
1066,-0.055,0.040
1067,-0.055,0.040
1068,-0.045,0.035
1069,-0.035,0.035
1070,-0.025,0.025
1071,-0.025,0.030
1072,-0.015,0.025
1073,-0.015,0.020
1074,-0.020,0.015
1075,-0.030,0.000
1076,-0.035,0.000
1077,-0.050,0.000
1078,-0.055,0.000
1079,-0.050,0.000
1080,-0.050,0.000
1081,-0.055,0.000
1082,-0.050,0.000
1083,-0.040,0.000
1084,-0.045,0.015
1085,-0.055,0.040
1086,-0.055,0.050
1087,-0.050,0.050
1088,-0.045,0.050
1089,-0.035,0.045
1090,-0.035,0.035
1091,-0.035,0.030
1092,-0.070,0.010
1093,-0.060,-0.045
1094,0.155,-0.145
1095,0.545,-0.270
1096,0.885,-0.375
1097,0.855,-0.370
1098,0.370,-0.210
1099,-0.070,0.010
1100,-0.235,0.150
1101,-0.175,0.125
1102,-0.065,0.075
1103,-0.010,0.050
1104,0.000,0.050
1105,0.000,0.050
1106,0.000,0.045
1107,0.000,0.040
1108,0.000,0.040
1109,0.000,0.025
1110,0.000,0.025
1111,0.000,0.020
1112,0.015,0.020
1113,0.015,0.025
1114,0.015,0.005
1115,0.025,0.000
1116,0.035,0.000
1117,0.045,0.000
1118,0.040,-0.005
1119,0.055,-0.015
1120,0.060,-0.020
1121,0.075,-0.030
1122,0.080,-0.045
1123,0.105,-0.065
1124,0.120,-0.085
1125,0.125,-0.100
1126,0.135,-0.120
1127,0.150,-0.145
1128,0.160,-0.170
1129,0.160,-0.190
1130,0.155,-0.210
1131,0.145,-0.220
1132,0.140,-0.245
1133,0.140,-0.260
1134,0.125,-0.255
1135,0.100,-0.240
1136,0.080,-0.210
1137,0.040,-0.170
1138,0.015,-0.130
1139,0.000,-0.090
1140,-0.010,-0.060
1141,-0.015,-0.025
1142,-0.030,-0.005
1143,-0.050,0.005
1144,-0.055,0.025
1145,-0.055,0.030
1146,-0.050,0.030
1147,-0.035,0.030
1148,-0.030,0.045
1149,-0.025,0.060
1150,-0.040,0.060
1151,-0.050,0.065
1152,-0.045,0.065
1153,-0.035,0.065
1154,-0.030,0.065
1155,-0.015,0.070
1156,-0.030,0.075
1157,-0.035,0.070
1158,-0.045,0.055
1159,-0.035,0.050
1160,-0.035,0.065
1161,-0.040,0.065
1162,-0.040,0.050
1163,-0.050,0.050
1164,-0.045,0.050
1165,-0.040,0.050
1166,-0.040,0.050
1167,-0.045,0.050
1168,-0.040,0.050
1169,-0.045,0.055
1170,-0.050,0.060
1171,-0.050,0.055
1172,-0.040,0.050
1173,-0.035,0.050
1174,-0.045,0.050
1175,-0.045,0.055
1176,-0.035,0.055
1177,-0.030,0.050
1178,-0.030,0.050
1179,-0.035,0.050
1180,-0.040,0.050
1181,-0.030,0.050
1182,-0.025,0.050
1183,-0.035,0.050
1184,-0.035,0.045
1185,-0.005,0.040
1186,-0.010,0.050
1187,-0.015,0.050
1188,-0.020,0.045
1189,-0.015,0.040
1190,-0.005,0.030
1191,0.000,0.020
1192,-0.015,0.015
1193,-0.025,0.000
1194,-0.035,0.000
1195,-0.040,0.000
1196,-0.035,0.010
1197,-0.050,0.000
1198,-0.045,0.000
1199,-0.010,0.000
1200,-0.020,0.020
1201,-0.030,0.050
1202,-0.035,0.060
1203,-0.040,0.055
1204,-0.030,0.050
1205,-0.025,0.050
1206,-0.025,0.060
1207,-0.010,0.055
1208,-0.025,0.050
1209,-0.070,0.020
1210,-0.035,-0.030
1211,0.205,-0.130
1212,0.600,-0.235
1213,0.950,-0.310
1214,0.890,-0.260
1215,0.425,-0.100
1216,-0.020,0.090
1217,-0.200,0.190
1218,-0.180,0.160
1219,-0.085,0.110
1220,-0.015,0.085
1221,0.000,0.070
1222,0.000,0.065
1223,0.000,0.070
1224,0.000,0.070
1225,0.000,0.060
1226,0.005,0.050
1227,0.020,0.050
1228,0.025,0.050
1229,0.020,0.045
1230,0.040,0.035
1231,0.035,0.020
1232,0.035,0.025
1233,0.035,0.020
1234,0.045,0.005
1235,0.060,0.000
1236,0.060,0.000
1237,0.075,0.000
1238,0.090,-0.015
1239,0.100,-0.025
1240,0.130,-0.040
1241,0.135,-0.050
1242,0.140,-0.065
1243,0.155,-0.090
1244,0.170,-0.115
1245,0.195,-0.130
1246,0.195,-0.150
1247,0.185,-0.165
1248,0.185,-0.185
1249,0.175,-0.195
1250,0.155,-0.210
1251,0.145,-0.210
1252,0.130,-0.195
1253,0.095,-0.165
1254,0.065,-0.130
1255,0.035,-0.090
1256,0.010,-0.050
1257,0.000,-0.025
1258,-0.005,-0.005
1259,-0.020,0.010
1260,-0.035,0.025
1261,-0.040,0.030
1262,-0.035,0.045
1263,-0.045,0.055
1264,-0.055,0.055
1265,-0.045,0.060
1266,-0.035,0.055
1267,-0.035,0.060
1268,-0.035,0.065
1269,-0.035,0.055
1270,-0.035,0.065
1271,-0.040,0.065
1272,-0.040,0.060
1273,-0.040,0.055
1274,-0.045,0.065
1275,-0.035,0.060
1276,-0.035,0.065
1277,-0.050,0.065
1278,-0.055,0.055
1279,-0.055,0.055
1280,-0.055,0.055
1281,-0.055,0.055
1282,-0.055,0.050
1283,-0.055,0.050
1284,-0.055,0.050
1285,-0.055,0.060
1286,-0.055,0.050
1287,-0.055,0.050
1288,-0.055,0.055
1289,-0.060,0.055
1290,-0.055,0.055
1291,-0.055,0.060
1292,-0.055,0.050
1293,-0.055,0.050
1294,-0.070,0.050
1295,-0.070,0.055
1296,-0.075,0.060
1297,-0.070,0.055
1298,-0.060,0.050
1299,-0.055,0.050
1300,-0.055,0.050
1301,-0.055,0.050
1302,-0.050,0.050
1303,-0.045,0.050
1304,-0.050,0.040
1305,-0.050,0.030
1306,-0.055,0.025
1307,-0.070,0.015
1308,-0.080,0.005
1309,-0.080,0.005
1310,-0.090,0.010
1311,-0.085,0.005
1312,-0.090,0.005
1313,-0.065,0.005
1314,-0.055,0.025
1315,-0.060,0.040
1316,-0.075,0.055
1317,-0.060,0.055
1318,-0.055,0.050
1319,-0.055,0.050
1320,-0.065,0.050
1321,-0.055,0.050
1322,-0.055,0.045
1323,-0.105,0.015
1324,-0.105,-0.020
1325,0.210,-0.110
1326,0.645,-0.215
1327,1.050,-0.310
1328,0.885,-0.315
1329,0.335,-0.175
1330,-0.115,0.045
1331,-0.265,0.140
1332,-0.200,0.125
1333,-0.095,0.085
1334,-0.050,0.075
1335,-0.045,0.075
1336,-0.035,0.060
1337,-0.035,0.065
1338,-0.030,0.060
1339,-0.020,0.045
1340,-0.015,0.045
1341,-0.010,0.050
1342,0.000,0.040
1343,0.000,0.035
1344,0.000,0.030
1345,0.000,0.025
1346,0.000,0.020
1347,0.000,0.010
1348,0.000,0.005
1349,0.010,0.000
1350,0.020,0.000
1351,0.030,-0.010
1352,0.040,-0.015
1353,0.045,-0.030
1354,0.060,-0.035
1355,0.075,-0.050
1356,0.095,-0.075
1357,0.115,-0.095
1358,0.125,-0.110
1359,0.140,-0.130
1360,0.140,-0.160
1361,0.140,-0.180
1362,0.135,-0.185
1363,0.130,-0.205
1364,0.120,-0.220
1365,0.100,-0.220
1366,0.080,-0.220
1367,0.050,-0.185
1368,0.015,-0.155
1369,0.000,-0.130
1370,-0.015,-0.085
1371,-0.045,-0.045
1372,-0.060,-0.020
1373,-0.075,-0.010
1374,-0.095,0.000
1375,-0.100,0.000
1376,-0.100,0.020
1377,-0.100,0.025
1378,-0.100,0.025
1379,-0.095,0.025
1380,-0.090,0.030
1381,-0.090,0.035
1382,-0.090,0.040
1383,-0.080,0.040
1384,-0.080,0.045
1385,-0.080,0.045
1386,-0.080,0.045
1387,-0.080,0.050
1388,-0.080,0.045
1389,-0.090,0.040
1390,-0.095,0.045
1391,-0.085,0.045
1392,-0.085,0.040
1393,-0.095,0.035
1394,-0.100,0.030
1395,-0.095,0.040
1396,-0.095,0.040
1397,-0.095,0.035
1398,-0.100,0.030
1399,-0.100,0.030
1400,-0.100,0.025
1401,-0.100,0.025
1402,-0.100,0.030
1403,-0.100,0.035
1404,-0.100,0.030
1405,-0.100,0.025
1406,-0.095,0.025
1407,-0.080,0.025
1408,-0.090,0.030
1409,-0.080,0.030
1410,-0.080,0.025
1411,-0.080,0.025
1412,-0.080,0.025
1413,-0.080,0.025
1414,-0.080,0.025
1415,-0.080,0.020
1416,-0.080,0.020
1417,-0.060,0.025
1418,-0.055,0.020
1419,-0.055,0.020
1420,-0.055,0.015
1421,-0.055,0.010
1422,-0.070,0.000
1423,-0.080,0.000
1424,-0.080,0.000
1425,-0.080,-0.005
1426,-0.080,-0.005
1427,-0.085,-0.010
1428,-0.075,-0.005
1429,-0.060,0.000
1430,-0.055,0.000
1431,-0.055,0.020
1432,-0.065,0.035
1433,-0.070,0.030
1434,-0.070,0.030
1435,-0.055,0.030
1436,-0.055,0.030
1437,-0.055,0.025
1438,-0.065,0.020
1439,-0.100,-0.005
1440,-0.035,-0.070
1441,0.285,-0.180
1442,0.685,-0.305
1443,0.955,-0.385
1444,0.680,-0.340
1445,0.140,-0.135
1446,-0.215,0.095
1447,-0.265,0.135
1448,-0.150,0.085
1449,-0.055,0.065
1450,-0.035,0.060
1451,-0.035,0.055
1452,-0.025,0.050
1453,-0.015,0.040
1454,-0.010,0.040
1455,-0.010,0.040
1456,0.000,0.035
1457,0.000,0.030
1458,0.000,0.025
1459,0.000,0.010
1460,0.000,0.015
1461,0.005,0.015
1462,0.015,0.005
1463,0.020,0.000
1464,0.025,0.000
1465,0.035,-0.005
1466,0.050,-0.015
1467,0.060,-0.020
1468,0.065,-0.035
1469,0.075,-0.045
1470,0.090,-0.060
1471,0.100,-0.075
1472,0.110,-0.090
1473,0.125,-0.110
1474,0.140,-0.135
1475,0.140,-0.155
1476,0.140,-0.180
1477,0.140,-0.205
1478,0.140,-0.225
1479,0.135,-0.235
1480,0.125,-0.235
1481,0.110,-0.235
1482,0.080,-0.225
1483,0.055,-0.200
1484,0.020,-0.155
1485,0.000,-0.110
1486,-0.005,-0.075
1487,-0.030,-0.045
1488,-0.050,-0.025
1489,-0.055,0.000
1490,-0.060,0.005
1491,-0.070,0.015
1492,-0.070,0.030
1493,-0.075,0.035
1494,-0.065,0.035
1495,-0.055,0.040
1496,-0.055,0.045
1497,-0.055,0.050
1498,-0.050,0.050
1499,-0.050,0.055
1500,-0.055,0.050
1501,-0.050,0.050
1502,-0.050,0.050
1503,-0.055,0.050
1504,-0.055,0.050
1505,-0.055,0.050
1506,-0.055,0.050
1507,-0.055,0.050
1508,-0.055,0.050
1509,-0.055,0.050
1510,-0.055,0.045
1511,-0.055,0.045
1512,-0.055,0.045
1513,-0.055,0.045
1514,-0.055,0.040
1515,-0.055,0.040
1516,-0.055,0.040
1517,-0.055,0.040
1518,-0.055,0.040
1519,-0.055,0.040
1520,-0.055,0.040
1521,-0.055,0.040
1522,-0.055,0.040
1523,-0.055,0.040
1524,-0.055,0.045
1525,-0.055,0.040
1526,-0.050,0.030
1527,-0.050,0.030
1528,-0.055,0.025
1529,-0.050,0.025
1530,-0.050,0.030
1531,-0.050,0.030
1532,-0.040,0.025
1533,-0.035,0.025
1534,-0.025,0.025
1535,-0.015,0.025
1536,-0.020,0.025
1537,-0.025,0.020
1538,-0.030,0.005
1539,-0.040,0.000
1540,-0.050,0.000
1541,-0.055,0.000
1542,-0.055,-0.005
1543,-0.055,-0.010
1544,-0.050,-0.005
1545,-0.050,-0.005
1546,-0.055,0.000
1547,-0.050,0.000
1548,-0.050,0.015
1549,-0.055,0.035
1550,-0.055,0.030
1551,-0.055,0.040
1552,-0.055,0.045
1553,-0.045,0.035
1554,-0.035,0.030
1555,-0.040,0.030
1556,-0.075,0.015
1557,-0.075,-0.040
1558,0.110,-0.145
1559,0.480,-0.260
1560,0.840,-0.360
1561,0.860,-0.365
1562,0.420,-0.205
1563,-0.035,0.020
1564,-0.235,0.160
1565,-0.205,0.140
1566,-0.100,0.095
1567,-0.025,0.075
1568,0.000,0.070
1569,0.000,0.060
1570,0.000,0.050
1571,0.000,0.050
1572,0.000,0.050
1573,0.000,0.045
1574,0.000,0.030
1575,0.020,0.030
1576,0.020,0.025
1577,0.020,0.020
1578,0.020,0.015
1579,0.020,0.010
1580,0.020,0.005
1581,0.030,0.000
1582,0.055,0.000
1583,0.060,0.000
1584,0.060,-0.015
1585,0.060,-0.025
1586,0.090,-0.030
1587,0.100,-0.040
1588,0.100,-0.060
1589,0.115,-0.080
1590,0.135,-0.100
1591,0.155,-0.125
1592,0.160,-0.145
1593,0.160,-0.170
1594,0.150,-0.180
1595,0.140,-0.200
1596,0.145,-0.215
1597,0.135,-0.230
1598,0.115,-0.235
1599,0.090,-0.220
1600,0.070,-0.200
1601,0.050,-0.165
1602,0.025,-0.125
1603,0.000,-0.085
1604,-0.005,-0.050
1605,-0.020,-0.020
1606,-0.040,0.000
1607,-0.050,0.015
1608,-0.055,0.025
1609,-0.055,0.040
1610,-0.055,0.050
1611,-0.055,0.065
1612,-0.050,0.075
1613,-0.045,0.075
1614,-0.035,0.075
1615,-0.035,0.075
1616,-0.035,0.075
1617,-0.030,0.075
1618,-0.030,0.075
1619,-0.035,0.075
1620,-0.035,0.080
1621,-0.035,0.080
1622,-0.020,0.080
1623,-0.025,0.075
1624,-0.030,0.060
1625,-0.030,0.065
1626,-0.035,0.070
1627,-0.040,0.075
1628,-0.030,0.065
1629,-0.030,0.065
1630,-0.045,0.060
1631,-0.040,0.055
1632,-0.035,0.060
1633,-0.020,0.065
1634,-0.030,0.065
1635,-0.040,0.065
1636,-0.045,0.055
1637,-0.035,0.055
1638,-0.035,0.060
1639,-0.035,0.070
1640,-0.035,0.070
1641,-0.030,0.055
1642,-0.020,0.050
1643,-0.015,0.055
1644,-0.025,0.055
1645,-0.035,0.050
1646,-0.040,0.055
1647,-0.035,0.050
1648,-0.025,0.050
1649,-0.025,0.050
1650,-0.015,0.050
1651,0.000,0.050
1652,0.000,0.045
1653,0.000,0.045
1654,0.000,0.040
1655,0.000,0.030
1656,-0.015,0.020
1657,-0.030,0.010
1658,-0.035,0.005
1659,-0.030,0.010
1660,-0.025,0.005
1661,-0.020,0.000
1662,-0.035,0.000
1663,-0.030,0.010
1664,-0.030,0.025
1665,-0.015,0.040
1666,-0.015,0.050
1667,-0.015,0.055
1668,-0.030,0.055
1669,-0.025,0.055
1670,-0.015,0.050
1671,-0.015,0.060
1672,-0.005,0.050
1673,-0.075,0.010
1674,-0.030,-0.035
1675,0.280,-0.135
1676,0.685,-0.230
1677,1.005,-0.290
1678,0.845,-0.230
1679,0.325,-0.055
1680,-0.110,0.120
1681,-0.250,0.190
1682,-0.180,0.155
1683,-0.070,0.105
1684,-0.010,0.075
1685,0.000,0.075
1686,0.000,0.075
1687,0.000,0.070
1688,0.010,0.055
1689,0.020,0.050
1690,0.020,0.050
1691,0.025,0.050
1692,0.040,0.045
1693,0.040,0.035
1694,0.050,0.025
1695,0.060,0.020
1696,0.060,0.015
1697,0.060,0.010
1698,0.060,0.000
1699,0.080,0.000
1700,0.085,0.000
1701,0.100,-0.005
1702,0.105,-0.020
1703,0.120,-0.030
1704,0.135,-0.045
1705,0.140,-0.055
1706,0.145,-0.070
1707,0.160,-0.095
1708,0.180,-0.120
1709,0.185,-0.130
1710,0.185,-0.155
1711,0.185,-0.175
1712,0.165,-0.180
1713,0.165,-0.200
1714,0.145,-0.205
1715,0.135,-0.210
1716,0.105,-0.195
1717,0.075,-0.165
1718,0.055,-0.135
1719,0.025,-0.105
1720,0.000,-0.065
1721,-0.005,-0.030
1722,-0.020,-0.005
1723,-0.040,0.005
1724,-0.050,0.020
1725,-0.055,0.030
1726,-0.055,0.045
1727,-0.055,0.050
1728,-0.055,0.050
1729,-0.055,0.050
1730,-0.055,0.055
1731,-0.055,0.065
1732,-0.060,0.065
1733,-0.055,0.060
1734,-0.055,0.060
1735,-0.055,0.055
1736,-0.055,0.050
1737,-0.055,0.060
1738,-0.055,0.060
1739,-0.060,0.055
1740,-0.070,0.055
1741,-0.075,0.055
1742,-0.070,0.055
1743,-0.080,0.055
1744,-0.080,0.050
1745,-0.080,0.050
1746,-0.080,0.050
1747,-0.080,0.050
1748,-0.080,0.055
1749,-0.080,0.055
1750,-0.080,0.055
1751,-0.080,0.050
1752,-0.080,0.050
1753,-0.080,0.050
1754,-0.080,0.050
1755,-0.080,0.050
1756,-0.080,0.050
1757,-0.080,0.050
1758,-0.080,0.050
1759,-0.080,0.050
1760,-0.080,0.050
1761,-0.080,0.050
1762,-0.080,0.050
1763,-0.080,0.050
1764,-0.070,0.050
1765,-0.055,0.050
1766,-0.055,0.050
1767,-0.055,0.040
1768,-0.055,0.030
1769,-0.055,0.025
1770,-0.065,0.015
1771,-0.080,0.005
1772,-0.090,0.000
1773,-0.095,0.000
1774,-0.085,0.000
1775,-0.085,0.000
1776,-0.095,0.000
1777,-0.085,0.000
1778,-0.080,0.005
1779,-0.080,0.025
1780,-0.080,0.050
1781,-0.075,0.050
1782,-0.070,0.050
1783,-0.075,0.050
1784,-0.055,0.050
1785,-0.055,0.050
1786,-0.055,0.045
1787,-0.075,0.030
1788,-0.115,-0.010
1789,0.085,-0.090
1790,0.505,-0.210
1791,0.920,-0.320
1792,0.970,-0.375
1793,0.430,-0.265
1794,-0.075,-0.010
1795,-0.275,0.135
1796,-0.215,0.125
1797,-0.095,0.085
1798,-0.045,0.075
1799,-0.035,0.070
1800,-0.030,0.065
1801,-0.025,0.065
1802,-0.015,0.055
1803,-0.015,0.055
1804,-0.005,0.050
1805,0.000,0.050
1806,0.000,0.050
1807,0.000,0.040
1808,0.000,0.030
1809,0.005,0.025
1810,0.015,0.025
1811,0.015,0.020
1812,0.025,0.010
1813,0.035,0.000
1814,0.045,0.000
1815,0.060,0.000
1816,0.060,-0.010
1817,0.065,-0.020
1818,0.075,-0.035
1819,0.085,-0.050
1820,0.100,-0.065
1821,0.120,-0.080
1822,0.130,-0.105
1823,0.140,-0.130
1824,0.140,-0.150
1825,0.145,-0.165
1826,0.140,-0.185
1827,0.135,-0.200
1828,0.125,-0.210
1829,0.115,-0.220
1830,0.085,-0.220
1831,0.065,-0.200
1832,0.035,-0.165
1833,0.005,-0.140
1834,0.000,-0.095
1835,-0.015,-0.060
1836,-0.045,-0.035
1837,-0.050,-0.010
1838,-0.075,0.000
1839,-0.080,0.005
1840,-0.080,0.020
1841,-0.080,0.025
1842,-0.080,0.035
1843,-0.080,0.045
1844,-0.080,0.050
1845,-0.080,0.050
1846,-0.070,0.050
1847,-0.075,0.050
1848,-0.070,0.050
1849,-0.065,0.055
1850,-0.065,0.060
1851,-0.075,0.055
1852,-0.080,0.055
1853,-0.080,0.050
1854,-0.080,0.050
1855,-0.080,0.055
1856,-0.080,0.050
1857,-0.080,0.050
1858,-0.080,0.050
1859,-0.085,0.050
1860,-0.090,0.050
1861,-0.090,0.050
1862,-0.090,0.050
1863,-0.090,0.050
1864,-0.085,0.050
1865,-0.080,0.050
1866,-0.080,0.045
1867,-0.080,0.045
1868,-0.080,0.045
1869,-0.080,0.040
1870,-0.080,0.040
1871,-0.080,0.045
1872,-0.075,0.040
1873,-0.060,0.035
1874,-0.055,0.035
1875,-0.055,0.035
1876,-0.055,0.035
1877,-0.055,0.035
1878,-0.055,0.035
1879,-0.055,0.035
1880,-0.045,0.030
1881,-0.035,0.025
1882,-0.035,0.025
1883,-0.050,0.010
1884,-0.055,0.005
1885,-0.065,0.000
1886,-0.060,0.000
1887,-0.055,0.000
1888,-0.055,0.000
1889,-0.070,-0.005
1890,-0.080,0.000
1891,-0.060,0.000
1892,-0.055,0.005
1893,-0.055,0.020
1894,-0.055,0.040
1895,-0.060,0.045
1896,-0.055,0.045
1897,-0.055,0.050
1898,-0.055,0.050
1899,-0.055,0.050
1900,-0.060,0.040
1901,-0.100,0.005
1902,-0.080,-0.055
1903,0.155,-0.160
1904,0.550,-0.290
1905,0.860,-0.380
1906,0.775,-0.365
1907,0.275,-0.180
1908,-0.140,0.045
1909,-0.270,0.160
1910,-0.185,0.120
1911,-0.080,0.085
1912,-0.030,0.070
1913,-0.020,0.060
1914,-0.015,0.050
1915,-0.010,0.050
1916,0.000,0.050
1917,0.000,0.050
1918,0.000,0.045
1919,0.000,0.035
1920,0.000,0.030
1921,0.000,0.025
1922,0.000,0.025
1923,0.000,0.020
1924,0.015,0.010
1925,0.035,0.000
1926,0.040,0.000
1927,0.050,0.000
1928,0.055,-0.015
1929,0.060,-0.025
1930,0.060,-0.030
1931,0.070,-0.045
1932,0.075,-0.060
1933,0.090,-0.070
1934,0.110,-0.085
1935,0.120,-0.110
1936,0.130,-0.140
1937,0.140,-0.160
1938,0.140,-0.180
1939,0.140,-0.200
1940,0.135,-0.220
1941,0.125,-0.235
1942,0.110,-0.250
1943,0.090,-0.260
1944,0.065,-0.245
1945,0.040,-0.220
1946,0.020,-0.185
1947,0.000,-0.145
1948,0.000,-0.100
1949,-0.015,-0.065
1950,-0.030,-0.030
1951,-0.045,0.000
1952,-0.055,0.010
1953,-0.065,0.025
1954,-0.055,0.030
1955,-0.055,0.040
1956,-0.055,0.055
1957,-0.075,0.055
1958,-0.050,0.050
1959,-0.050,0.050
1960,-0.065,0.055
1961,-0.055,0.055
1962,-0.055,0.065
1963,-0.055,0.070
1964,-0.055,0.075
1965,-0.050,0.065
1966,-0.050,0.075
1967,-0.050,0.075
1968,-0.055,0.070
1969,-0.055,0.070
1970,-0.040,0.055
1971,-0.050,0.050
1972,-0.055,0.060
1973,-0.055,0.065
1974,-0.050,0.050
1975,-0.040,0.050
1976,-0.050,0.065
1977,-0.055,0.060
1978,-0.050,0.050
1979,-0.050,0.050
1980,-0.040,0.060
1981,-0.045,0.055
1982,-0.045,0.050
1983,-0.040,0.050
1984,-0.045,0.050
1985,-0.040,0.050
1986,-0.030,0.050
1987,-0.020,0.045
1988,-0.020,0.055
1989,-0.025,0.075
1990,-0.015,0.075
1991,-0.020,0.055
1992,-0.015,0.030
1993,-0.015,0.035
1994,-0.020,0.015
1995,-0.035,0.000
1996,-0.050,0.000
1997,-0.050,0.015
1998,-0.035,0.000
1999,-0.020,-0.005
2000,-0.055,0.000
2001,-0.055,0.010
2002,-0.045,0.035
2003,-0.025,0.070
2004,-0.050,0.085
2005,-0.050,0.050
2006,-0.040,0.050
2007,-0.040,0.055
2008,-0.030,0.035
2009,-0.020,0.035
2010,-0.045,0.075
2011,-0.060,0.075
2012,-0.115,-0.010
2013,0.080,-0.070
2014,0.470,-0.205
2015,0.860,-0.315
2016,0.950,-0.340
2017,0.550,-0.165
2018,0.035,0.070
2019,-0.230,0.175
2020,-0.235,0.135
2021,-0.125,0.100
2022,-0.045,0.115
2023,-0.015,0.125
2024,-0.005,0.065
2025,0.000,0.045
2026,0.000,0.085
2027,0.000,0.085
2028,0.000,0.035
2029,0.005,0.005
2030,0.015,0.000
2031,0.005,0.005
2032,0.000,0.020
2033,0.005,0.025
2034,0.025,0.000
2035,0.030,0.000
2036,0.020,0.020
2037,0.030,0.045
2038,0.055,0.000
2039,0.050,0.000
2040,0.065,-0.010
2041,0.065,-0.040
2042,0.080,-0.060
2043,0.095,-0.090
2044,0.130,-0.085
2045,0.130,-0.045
2046,0.140,-0.115
2047,0.140,-0.155
2048,0.140,-0.145
2049,0.140,-0.155
2050,0.140,-0.160
2051,0.140,-0.205
2052,0.150,-0.210
2053,0.140,-0.220
2054,0.120,-0.195
2055,0.090,-0.175
2056,0.050,-0.155
2057,0.025,-0.120
2058,0.005,-0.070
2059,0.000,-0.040
2060,0.000,-0.020
2061,-0.010,0.000
2062,-0.020,0.000
2063,-0.040,-0.010
2064,-0.050,0.040
2065,-0.040,0.020
2066,-0.050,0.010
2067,-0.065,0.040
2068,-0.055,0.050
2069,-0.055,0.035
2070,-0.055,0.035
2071,-0.055,0.050
2072,-0.045,0.045
2073,-0.040,0.045
2074,-0.045,0.070
2075,-0.040,0.045
2076,-0.035,0.020
2077,-0.045,0.055
2078,-0.055,0.070
2079,-0.055,0.010
2080,-0.055,-0.030
2081,-0.055,-0.010
2082,-0.060,0.030
2083,-0.080,0.085
2084,-0.075,0.060
2085,-0.050,0.000
2086,-0.055,0.060
2087,-0.055,0.050
2088,-0.075,0.030
2089,-0.060,0.070
2090,-0.060,0.015
2091,-0.060,0.070
2092,-0.055,0.020
2093,-0.055,0.010
2094,-0.055,0.020
2095,-0.055,0.055
2096,-0.055,0.045
2097,-0.050,0.015
2098,-0.050,0.055
2099,-0.035,0.055
2100,-0.035,0.010
2101,-0.040,0.030
2102,-0.030,0.015
2103,-0.030,0.020
2104,-0.045,0.000
2105,-0.060,0.010
2106,-0.055,0.005
2107,-0.060,0.000
2108,-0.070,0.000
2109,-0.080,0.000
2110,-0.065,0.000
2111,-0.055,0.000
2112,-0.055,-0.005
2113,-0.055,0.025
2114,-0.065,0.065
2115,-0.060,0.090
2116,-0.055,0.090
2117,-0.050,0.050
2118,-0.045,0.030
2119,-0.030,0.015
2120,-0.045,-0.005
2121,-0.075,-0.035
2122,0.095,-0.080
2123,0.515,-0.185
2124,0.935,-0.240
2125,1.045,-0.255
2126,0.585,-0.150
2127,0.040,-0.045
2128,-0.240,0.115
2129,-0.225,0.120
2130,-0.110,0.100
2131,-0.025,0.055
2132,-0.015,0.030
2133,-0.015,0.055
2134,-0.015,0.035
2135,-0.010,0.040
2136,0.000,0.020
2137,0.000,0.010
2138,0.000,0.050
2139,0.000,0.055
2140,0.000,0.030
2141,0.000,0.025
2142,0.000,0.000
2143,0.010,0.000
2144,0.025,0.015
2145,0.035,0.000
2146,0.050,0.000
2147,0.055,-0.005
2148,0.060,-0.010
2149,0.080,-0.035
2150,0.095,-0.045
2151,0.100,-0.035
2152,0.110,-0.045
2153,0.130,-0.095
2154,0.140,-0.095
2155,0.155,-0.055
2156,0.175,-0.065
2157,0.185,-0.140
2158,0.180,-0.210
2159,0.160,-0.210
2160,0.160,-0.190
2161,0.155,-0.220
2162,0.150,-0.270
2163,0.130,-0.200
2164,0.095,-0.150
2165,0.060,-0.140
2166,0.025,-0.140
2167,0.000,-0.095
2168,0.000,-0.065
2169,-0.015,-0.040
2170,-0.040,-0.020
2171,-0.055,-0.015
2172,-0.055,0.015
2173,-0.065,0.015
2174,-0.060,0.010
2175,-0.055,0.010
2176,-0.080,0.065
2177,-0.065,0.030
2178,-0.055,0.030
2179,-0.055,0.040
2180,-0.055,0.050
2181,-0.055,0.040
2182,-0.055,0.035
2183,-0.055,0.020
2184,-0.050,0.055
2185,-0.050,0.015
2186,-0.055,0.035
2187,-0.055,0.030
2188,-0.055,0.035
2189,-0.055,0.050
2190,-0.055,0.045
2191,-0.055,0.040
2192,-0.055,0.030
2193,-0.055,0.010
2194,-0.055,0.030
2195,-0.055,0.025
2196,-0.055,0.005
2197,-0.055,0.025
2198,-0.055,0.050
2199,-0.055,0.045
2200,-0.055,0.030
2201,-0.055,0.025
2202,-0.055,0.035
2203,-0.055,0.045
2204,-0.055,0.040
2205,-0.055,0.025
2206,-0.050,0.030
2207,-0.050,0.015
2208,-0.055,0.025
2209,-0.050,0.020
2210,-0.040,-0.005
2211,-0.040,0.005
2212,-0.050,0.015
2213,-0.060,0.005
2214,-0.060,-0.005
2215,-0.080,0.000
2216,-0.075,0.000
2217,-0.070,0.015
2218,-0.075,0.010
2219,-0.065,0.000
2220,-0.055,-0.010
2221,-0.055,-0.020
2222,-0.055,0.025
2223,-0.055,0.005
2224,-0.060,0.010
2225,-0.055,0.010
2226,-0.055,0.020
2227,-0.050,0.065
2228,-0.050,0.070
2229,-0.040,0.040
2230,-0.080,0.000
2231,-0.045,-0.040
2232,0.225,-0.130
2233,0.630,-0.240
2234,0.940,-0.325
2235,0.790,-0.285
2236,0.300,-0.125
2237,-0.100,0.070
2238,-0.225,0.125
2239,-0.155,0.075
2240,-0.070,0.065
2241,-0.030,0.070
2242,-0.020,0.050
2243,-0.015,0.070
2244,-0.010,0.065
2245,-0.010,0.025
2246,0.000,0.035
2247,0.000,0.055
2248,0.000,0.030
2249,0.000,0.010
2250,0.005,0.020
2251,0.015,0.020
2252,0.015,0.050
2253,0.015,0.030
2254,0.040,-0.035
2255,0.040,-0.005
2256,0.045,0.000
2257,0.060,0.000
2258,0.060,0.000
2259,0.065,-0.015
2260,0.080,-0.050
2261,0.100,-0.060
2262,0.100,-0.050
2263,0.120,-0.065
2264,0.135,-0.070
2265,0.140,-0.130
2266,0.140,-0.155
2267,0.140,-0.150
2268,0.140,-0.150
2269,0.145,-0.195
2270,0.140,-0.185
2271,0.135,-0.200
2272,0.120,-0.220
2273,0.080,-0.190
2274,0.055,-0.180
2275,0.025,-0.135
2276,0.005,-0.110
2277,-0.005,-0.075
2278,-0.030,-0.045
2279,-0.050,-0.030
2280,-0.055,0.005
2281,-0.060,0.010
2282,-0.070,0.000
2283,-0.080,0.010
2284,-0.070,0.030
2285,-0.060,0.045
2286,-0.055,0.050
2287,-0.055,0.035
2288,-0.055,0.020
2289,-0.055,0.035
2290,-0.055,0.070
2291,-0.055,0.055
2292,-0.055,0.025
2293,-0.055,0.010
2294,-0.055,0.035
2295,-0.055,0.010
2296,-0.060,0.025
2297,-0.060,0.065
2298,-0.055,0.065
2299,-0.055,0.060
2300,-0.055,0.050
2301,-0.055,0.035
2302,-0.055,0.030
2303,-0.055,0.025
2304,-0.055,0.050
2305,-0.050,0.040
2306,-0.050,0.050
2307,-0.055,0.060
2308,-0.055,0.030
2309,-0.075,0.025
2310,-0.090,0.040
2311,-0.080,0.030
2312,-0.060,0.025
2313,-0.065,0.005
2314,-0.070,0.020
2315,-0.055,0.045
2316,-0.055,0.015
2317,-0.055,0.025
2318,-0.055,0.040
2319,-0.045,0.000
2320,-0.045,0.000
2321,-0.060,0.010
2322,-0.075,0.010
2323,-0.070,-0.015
2324,-0.075,-0.015
2325,-0.070,0.000
2326,-0.070,0.000
2327,-0.070,0.005
2328,-0.055,0.010
2329,-0.045,0.000
2330,-0.045,0.000
2331,-0.055,0.025
2332,-0.055,0.020
2333,-0.055,0.000
2334,-0.055,0.010
2335,-0.050,0.020
2336,-0.040,0.045
2337,-0.040,0.050
2338,-0.065,0.035
2339,-0.090,-0.025
2340,0.115,-0.135
2341,0.530,-0.250
2342,0.905,-0.285
2343,0.950,-0.290
2344,0.435,-0.150
2345,-0.065,0.045
2346,-0.265,0.170
2347,-0.210,0.140
2348,-0.095,0.145
2349,-0.035,0.155
2350,-0.010,0.065
2351,0.000,0.055
2352,0.000,0.050
2353,0.000,0.025
2354,0.000,0.045
2355,0.000,0.005
2356,0.000,0.015
2357,0.005,0.020
2358,0.015,0.025
2359,0.020,0.010
2360,0.020,0.025
2361,0.030,0.030
2362,0.040,0.030
2363,0.040,0.050
2364,0.050,0.045
2365,0.065,-0.015
2366,0.075,-0.055
2367,0.085,-0.040
2368,0.090,-0.040
2369,0.095,-0.045
2370,0.110,-0.045
2371,0.120,-0.040
2372,0.140,-0.070
2373,0.160,-0.125
2374,0.155,-0.110
2375,0.155,-0.095
2376,0.160,-0.105
2377,0.165,-0.130
2378,0.140,-0.160
2379,0.135,-0.175
2380,0.130,-0.240
2381,0.105,-0.230
2382,0.065,-0.165
2383,0.050,-0.140
2384,0.020,-0.100
2385,0.005,-0.040
2386,-0.020,-0.030
2387,-0.050,-0.005
2388,-0.055,0.010
2389,-0.055,0.045
2390,-0.055,0.060
2391,-0.055,0.070
2392,-0.055,0.085
2393,-0.055,0.095
2394,-0.050,0.090
2395,-0.050,0.075
2396,-0.045,0.045
2397,-0.050,0.040
2398,-0.050,0.055
2399,-0.035,0.050
2400,-0.035,0.065
2401,-0.040,0.085
2402,-0.035,0.065
2403,-0.035,0.055
2404,-0.035,0.065
2405,-0.040,0.080
2406,-0.040,0.095
2407,-0.035,0.100
2408,-0.045,0.080
2409,-0.050,0.050
2410,-0.050,0.050
2411,-0.050,0.060
2412,-0.055,0.085
2413,-0.055,0.075
2414,-0.055,0.045
2415,-0.055,0.050
2416,-0.065,0.060
2417,-0.060,0.065
2418,-0.045,0.060
2419,-0.035,0.060
2420,-0.035,0.065
2421,-0.025,0.055
2422,-0.035,0.055
2423,-0.035,0.050
2424,-0.030,0.060
2425,-0.020,0.045
2426,0.000,0.030
2427,-0.010,0.025
2428,-0.015,0.000
2429,-0.030,0.000
2430,-0.060,0.010
2431,-0.055,0.010
2432,-0.025,0.005
2433,-0.015,0.005
2434,-0.020,-0.015
2435,-0.030,-0.005
2436,-0.035,0.010
2437,-0.035,0.050
2438,-0.035,0.055
2439,-0.035,0.055
2440,-0.015,0.070
2441,-0.010,0.065
2442,0.000,0.050
2443,-0.010,0.035
2444,-0.015,0.015
2445,-0.025,0.005
2446,-0.070,-0.020
2447,0.040,-0.080
2448,0.385,-0.165
2449,0.800,-0.240
2450,1.005,-0.260
2451,0.720,-0.170
2452,0.190,0.005
2453,-0.150,0.145
2454,-0.215,0.165
2455,-0.120,0.135
2456,-0.025,0.105
2457,0.000,0.055
2458,-0.005,0.035
2459,-0.005,0.030
2460,0.005,0.025
2461,0.030,0.030
2462,0.055,0.040
2463,0.060,0.060
2464,0.055,0.045
2465,0.050,0.045
2466,0.040,0.050
2467,0.060,0.045
2468,0.060,0.020
2469,0.065,0.000
2470,0.065,0.005
2471,0.080,0.010
2472,0.095,0.000
2473,0.105,-0.020
2474,0.115,-0.020
2475,0.125,-0.020
2476,0.130,-0.030
2477,0.135,-0.040
2478,0.140,-0.065
2479,0.130,-0.070
2480,0.130,-0.115
2481,0.185,-0.110
2482,0.210,-0.120
2483,0.220,-0.145
2484,0.205,-0.180
2485,0.205,-0.205
2486,0.200,-0.200
2487,0.185,-0.190
2488,0.160,-0.200
2489,0.135,-0.185
2490,0.105,-0.150
2491,0.060,-0.110
2492,0.020,-0.075
2493,0.000,-0.030
2494,0.000,0.000
2495,0.000,0.015
2496,-0.005,0.025
2497,-0.020,0.030
2498,-0.030,0.040
2499,-0.030,0.055
2500,-0.030,0.060
2501,-0.025,0.060
2502,-0.010,0.070
2503,-0.025,0.075
2504,-0.030,0.075
2505,-0.010,0.075
2506,0.000,0.065
2507,-0.005,0.050
2508,-0.010,0.055
2509,-0.025,0.055
2510,-0.035,0.050
2511,-0.025,0.060
2512,-0.045,0.055
2513,-0.050,0.050
2514,-0.035,0.055
2515,-0.045,0.075
2516,-0.065,0.075
2517,-0.045,0.025
2518,-0.045,0.025
2519,-0.050,0.025
2520,-0.045,0.030
2521,-0.045,0.035
2522,-0.050,0.045
2523,-0.055,0.050
2524,-0.055,0.055
2525,-0.055,0.050
2526,-0.055,0.045
2527,-0.055,0.060
2528,-0.045,0.050
2529,-0.050,0.040
2530,-0.050,0.050
2531,-0.050,0.065
2532,-0.040,0.060
2533,-0.035,0.050
2534,-0.020,0.040
2535,-0.015,0.040
2536,-0.020,0.035
2537,-0.030,0.030
2538,-0.045,0.020
2539,-0.055,0.020
2540,-0.070,0.025
2541,-0.080,0.030
2542,-0.075,0.035
2543,-0.070,0.025
2544,-0.085,0.020
2545,-0.080,0.015
2546,-0.055,0.025
2547,-0.055,0.040
2548,-0.065,0.075
2549,-0.070,0.085
2550,-0.065,0.080
2551,-0.060,0.080
2552,-0.055,0.085
2553,-0.055,0.075
2554,-0.070,0.080
2555,-0.100,0.080
2556,-0.120,0.005
2557,0.025,-0.065
2558,0.410,-0.170
2559,0.845,-0.285
2560,0.990,-0.380
2561,0.515,-0.270
2562,0.000,-0.010
2563,-0.240,0.165
2564,-0.210,0.150
2565,-0.110,0.130
2566,-0.045,0.120
2567,-0.035,0.100
2568,-0.035,0.080
2569,-0.020,0.095
2570,-0.015,0.080
2571,-0.015,0.065
2572,0.000,0.065
2573,0.000,0.055
2574,0.000,0.060
2575,0.000,0.070
2576,0.000,0.070
2577,0.000,0.055
2578,0.000,0.040
2579,0.010,0.045
2580,0.010,0.065
2581,0.015,0.050
2582,0.020,0.015
2583,0.030,0.000
2584,0.050,-0.005
2585,0.060,-0.015
2586,0.070,-0.020
2587,0.090,-0.020
2588,0.100,-0.030
2589,0.110,-0.060
2590,0.130,-0.075
2591,0.140,-0.095
2592,0.140,-0.115
2593,0.140,-0.135
2594,0.135,-0.155
2595,0.130,-0.175
2596,0.125,-0.185
2597,0.100,-0.185
2598,0.080,-0.180
2599,0.060,-0.155
2600,0.025,-0.130
2601,0.000,-0.090
2602,-0.010,-0.040
2603,-0.040,-0.025
2604,-0.050,0.000
2605,-0.055,0.000
2606,-0.055,0.010
2607,-0.055,0.040
2608,-0.075,0.050
2609,-0.080,0.055
2610,-0.085,0.050
2611,-0.080,0.065
2612,-0.085,0.070
2613,-0.090,0.060
2614,-0.095,0.065
2615,-0.085,0.065
2616,-0.080,0.080
2617,-0.080,0.090
2618,-0.090,0.075
2619,-0.095,0.075
2620,-0.085,0.080
2621,-0.080,0.075
2622,-0.080,0.075
2623,-0.085,0.070
2624,-0.095,0.070
2625,-0.100,0.075
2626,-0.100,0.075
2627,-0.110,0.065
2628,-0.110,0.060
2629,-0.100,0.065
2630,-0.100,0.060
2631,-0.105,0.055
2632,-0.105,0.055
2633,-0.105,0.050
2634,-0.105,0.065
2635,-0.110,0.060
2636,-0.100,0.050
2637,-0.100,0.050
2638,-0.110,0.050
2639,-0.100,0.045
2640,-0.095,0.040
2641,-0.095,0.050
2642,-0.095,0.045
2643,-0.085,0.040
2644,-0.075,0.025
2645,-0.065,0.030
2646,-0.075,0.030
2647,-0.080,0.030
2648,-0.070,0.025
2649,-0.095,0.020
2650,-0.100,0.000
2651,-0.105,0.000
2652,-0.100,0.000
2653,-0.095,0.000
2654,-0.110,0.000
2655,-0.110,0.000
2656,-0.100,0.000
2657,-0.095,0.025
2658,-0.100,0.045
2659,-0.115,0.050
2660,-0.105,0.050
2661,-0.100,0.050
2662,-0.090,0.050
2663,-0.080,0.040
2664,-0.080,0.030
2665,-0.100,0.020
2666,-0.130,-0.015
2667,0.000,-0.095
2668,0.340,-0.215
2669,0.735,-0.325
2670,0.880,-0.345
2671,0.555,-0.230
2672,0.065,-0.025
2673,-0.215,0.140
2674,-0.255,0.160
2675,-0.160,0.110
2676,-0.075,0.075
2677,-0.030,0.075
2678,-0.015,0.075
2679,-0.015,0.075
2680,-0.025,0.070
2681,-0.025,0.055
2682,0.000,0.050
2683,0.000,0.045
2684,0.000,0.040
2685,0.000,0.035
2686,0.000,0.030
2687,0.000,0.025
2688,0.000,0.025
2689,0.000,0.015
2690,0.010,0.015
2691,0.015,0.005
2692,0.030,0.000
2693,0.035,0.000
2694,0.035,-0.015
2695,0.050,-0.020
2696,0.065,-0.035
2697,0.085,-0.045
2698,0.095,-0.065
2699,0.110,-0.080
2700,0.125,-0.100
2701,0.135,-0.125
2702,0.140,-0.150
2703,0.140,-0.165
2704,0.130,-0.175
2705,0.135,-0.200
2706,0.125,-0.210
2707,0.100,-0.210
2708,0.070,-0.200
2709,0.050,-0.175
2710,0.035,-0.145
2711,0.010,-0.105
2712,0.000,-0.070
2713,-0.015,-0.035
2714,-0.045,-0.005
2715,-0.055,0.000
2716,-0.055,0.015
2717,-0.065,0.030
2718,-0.075,0.050
2719,-0.070,0.055
2720,-0.080,0.060
2721,-0.075,0.060
2722,-0.060,0.060
2723,-0.055,0.075
2724,-0.055,0.080
2725,-0.055,0.075
2726,-0.055,0.075
2727,-0.055,0.075
2728,-0.055,0.080
2729,-0.060,0.085
2730,-0.050,0.075
2731,-0.050,0.075
2732,-0.050,0.075
2733,-0.075,0.075
2734,-0.080,0.075
2735,-0.055,0.075
2736,-0.055,0.075
2737,-0.055,0.070
2738,-0.065,0.070
2739,-0.055,0.060
2740,-0.055,0.065
2741,-0.045,0.065
2742,-0.050,0.065
2743,-0.055,0.065
2744,-0.060,0.070
2745,-0.065,0.065
2746,-0.065,0.070
2747,-0.060,0.070
2748,-0.050,0.060
2749,-0.035,0.065
2750,-0.030,0.060
2751,-0.045,0.055
2752,-0.055,0.060
2753,-0.055,0.055
2754,-0.045,0.050
2755,-0.030,0.055
2756,-0.020,0.050
2757,-0.015,0.050
2758,-0.015,0.045
2759,-0.025,0.030
2760,-0.035,0.025
2761,-0.035,0.020
2762,-0.030,0.010
2763,-0.020,0.005
2764,-0.035,0.005
2765,-0.045,0.000
2766,-0.035,0.000
2767,-0.015,0.005
2768,-0.015,0.025
2769,-0.015,0.045
2770,-0.030,0.050
2771,-0.030,0.055
2772,-0.030,0.055
2773,-0.030,0.065
2774,-0.025,0.065
2775,-0.010,0.050
2776,-0.010,0.050
2777,-0.060,0.010
2778,-0.020,-0.035
2779,0.285,-0.130
2780,0.715,-0.220
2781,1.060,-0.280
2782,0.855,-0.210
2783,0.300,-0.060
2784,-0.125,0.120
2785,-0.240,0.170
2786,-0.175,0.135
2787,-0.075,0.095
2788,-0.015,0.085
2789,0.000,0.075
2790,0.000,0.070
2791,0.000,0.070
2792,0.000,0.060
2793,0.000,0.060
2794,0.000,0.055
2795,0.000,0.050
2796,0.005,0.050
2797,0.010,0.050
2798,0.010,0.040
2799,0.020,0.030
2800,0.020,0.025
2801,0.025,0.020
2802,0.040,0.010
2803,0.040,0.000
2804,0.050,0.000
2805,0.060,0.000
2806,0.060,-0.005
2807,0.065,-0.020
2808,0.085,-0.025
2809,0.100,-0.045
2810,0.120,-0.065
2811,0.120,-0.080
2812,0.140,-0.100
2813,0.140,-0.130
2814,0.140,-0.145
2815,0.140,-0.160
2816,0.140,-0.180
2817,0.140,-0.185
2818,0.115,-0.195
2819,0.095,-0.190
2820,0.070,-0.175
2821,0.050,-0.150
2822,0.015,-0.115
2823,0.000,-0.070
2824,-0.010,-0.035
2825,-0.035,-0.010
2826,-0.050,0.005
2827,-0.065,0.020
2828,-0.075,0.035
2829,-0.090,0.045
2830,-0.100,0.050
2831,-0.100,0.055
2832,-0.090,0.055
2833,-0.090,0.065
2834,-0.080,0.070
2835,-0.080,0.075
2836,-0.080,0.070
2837,-0.080,0.065
2838,-0.080,0.060
2839,-0.080,0.060
2840,-0.080,0.065
2841,-0.080,0.065
2842,-0.080,0.065
2843,-0.080,0.060
2844,-0.085,0.055
2845,-0.090,0.060
2846,-0.090,0.055
2847,-0.100,0.050
2848,-0.100,0.050
2849,-0.100,0.050
2850,-0.100,0.050
2851,-0.105,0.050
2852,-0.100,0.050
2853,-0.110,0.050
2854,-0.105,0.050
2855,-0.110,0.050
2856,-0.115,0.050
2857,-0.115,0.050
2858,-0.100,0.045
2859,-0.100,0.045
2860,-0.100,0.045
2861,-0.100,0.050
2862,-0.100,0.050
2863,-0.100,0.040
2864,-0.100,0.040
2865,-0.095,0.045
2866,-0.080,0.050
2867,-0.070,0.050
2868,-0.075,0.045
2869,-0.065,0.035
2870,-0.055,0.025
2871,-0.055,0.025
2872,-0.070,0.020
2873,-0.085,0.005
2874,-0.095,0.000
2875,-0.100,0.000
2876,-0.100,0.000
2877,-0.095,0.000
2878,-0.095,0.000
2879,-0.095,0.000
2880,-0.085,0.000
2881,-0.080,0.005
2882,-0.080,0.030
2883,-0.090,0.045
2884,-0.095,0.050
2885,-0.085,0.050
2886,-0.075,0.050
2887,-0.070,0.050
2888,-0.080,0.050
2889,-0.090,0.035
2890,-0.115,0.000
2891,-0.040,-0.065
2892,0.285,-0.160
2893,0.700,-0.285
2894,0.955,-0.370
2895,0.665,-0.340
2896,0.125,-0.140
2897,-0.230,0.095
2898,-0.270,0.135
2899,-0.150,0.095
2900,-0.055,0.070
2901,-0.035,0.060
2902,-0.035,0.055
2903,-0.035,0.055
2904,-0.015,0.050
2905,-0.010,0.050
2906,-0.010,0.050
2907,0.000,0.045
2908,0.000,0.040
2909,0.000,0.040
2910,0.000,0.025
2911,0.000,0.025
2912,0.005,0.025
2913,0.015,0.010
2914,0.025,0.005
2915,0.030,0.000
2916,0.035,0.000
2917,0.040,-0.005
2918,0.050,-0.010
2919,0.060,-0.015
2920,0.070,-0.035
2921,0.085,-0.050
2922,0.100,-0.065
2923,0.115,-0.085
2924,0.130,-0.115
2925,0.140,-0.135
2926,0.140,-0.155
2927,0.145,-0.180
2928,0.140,-0.200
2929,0.140,-0.215
2930,0.135,-0.225
2931,0.120,-0.235
2932,0.095,-0.230
2933,0.075,-0.210
2934,0.045,-0.190
2935,0.015,-0.155
2936,0.000,-0.115
2937,-0.005,-0.075
2938,-0.035,-0.040
2939,-0.055,-0.015
2940,-0.055,0.000
2941,-0.060,0.000
2942,-0.070,0.010
2943,-0.075,0.025
2944,-0.065,0.025
2945,-0.065,0.025
2946,-0.060,0.030
2947,-0.055,0.040
2948,-0.055,0.045
2949,-0.055,0.050
2950,-0.055,0.050
2951,-0.055,0.050
2952,-0.055,0.050
2953,-0.060,0.050
2954,-0.055,0.050
2955,-0.060,0.050
2956,-0.065,0.050
2957,-0.075,0.050
2958,-0.070,0.050
2959,-0.070,0.045
2960,-0.075,0.045
2961,-0.080,0.045
2962,-0.080,0.040
2963,-0.080,0.035
2964,-0.070,0.035
2965,-0.055,0.040
2966,-0.055,0.040
2967,-0.055,0.030
2968,-0.055,0.030
2969,-0.055,0.025
2970,-0.055,0.030
2971,-0.055,0.030
2972,-0.055,0.030
2973,-0.055,0.040
2974,-0.055,0.035
2975,-0.055,0.030
2976,-0.055,0.025
2977,-0.050,0.030
2978,-0.050,0.025
2979,-0.055,0.025
2980,-0.050,0.025
2981,-0.040,0.025
2982,-0.035,0.025
2983,-0.030,0.025
2984,-0.020,0.020
2985,-0.030,0.010
2986,-0.045,0.000
2987,-0.045,0.000
2988,-0.050,0.000
2989,-0.055,-0.005
2990,-0.055,-0.005
2991,-0.055,-0.010
2992,-0.055,-0.005
2993,-0.055,-0.005
2994,-0.055,-0.005
2995,-0.055,0.005
2996,-0.055,0.025
2997,-0.055,0.035
2998,-0.055,0.035
2999,-0.040,0.040
3000,-0.050,0.040
3001,-0.045,0.030
3002,-0.035,0.025
3003,-0.050,0.015
3004,-0.090,-0.020
3005,0.030,-0.110
3006,0.365,-0.235
3007,0.765,-0.350
3008,0.905,-0.385
3009,0.575,-0.275
3010,0.085,-0.050
3011,-0.195,0.125
3012,-0.220,0.150
3013,-0.115,0.100
3014,-0.025,0.070
3015,0.000,0.065
3016,0.000,0.065
3017,0.000,0.050
3018,0.000,0.050
3019,0.000,0.045
3020,0.000,0.040
3021,0.020,0.040
3022,0.020,0.035
3023,0.020,0.025
3024,0.020,0.020
3025,0.035,0.025
3026,0.040,0.020
3027,0.040,0.000
3028,0.040,0.000
3029,0.055,0.000
3030,0.060,0.000
3031,0.065,-0.005
3032,0.075,-0.015
3033,0.080,-0.035
3034,0.080,-0.050
3035,0.105,-0.060
3036,0.130,-0.075
3037,0.135,-0.090
3038,0.140,-0.120
3039,0.155,-0.145
3040,0.160,-0.170
3041,0.150,-0.185
3042,0.140,-0.200
3043,0.140,-0.215
3044,0.130,-0.235
3045,0.120,-0.240
3046,0.105,-0.220
3047,0.085,-0.205
3048,0.050,-0.175
3049,0.020,-0.135
3050,0.000,-0.095
3051,-0.010,-0.055
3052,-0.025,-0.025
3053,-0.040,-0.005
3054,-0.050,0.005
3055,-0.055,0.020
3056,-0.055,0.035
3057,-0.060,0.045
3058,-0.060,0.050
3059,-0.050,0.055
3060,-0.040,0.055
3061,-0.045,0.060
3062,-0.045,0.065
3063,-0.040,0.070
3064,-0.030,0.070
3065,-0.030,0.070
3066,-0.030,0.075
3067,-0.055,0.070
3068,-0.050,0.065
3069,-0.035,0.075
3070,-0.030,0.070
3071,-0.030,0.070
3072,-0.050,0.070
3073,-0.045,0.060
3074,-0.045,0.060
3075,-0.050,0.065
3076,-0.055,0.060
3077,-0.045,0.060
3078,-0.045,0.060
3079,-0.025,0.060
3080,-0.040,0.065
3081,-0.035,0.060
3082,-0.030,0.055
3083,-0.045,0.060
3084,-0.045,0.050
3085,-0.030,0.050
3086,-0.035,0.065
3087,-0.025,0.055
3088,-0.020,0.050
3089,-0.040,0.050
3090,-0.035,0.050
3091,-0.020,0.050
3092,-0.030,0.050
3093,-0.020,0.050
3094,-0.005,0.050
3095,-0.020,0.060
3096,-0.020,0.050
3097,-0.005,0.045
3098,-0.005,0.040
3099,-0.015,0.030
3100,-0.015,0.020
3101,-0.020,0.015
3102,-0.045,0.015
3103,-0.050,0.015
3104,-0.040,0.005
3105,-0.045,0.000
3106,-0.040,0.000
3107,-0.020,0.005
3108,-0.015,0.025
3109,-0.015,0.045
3110,-0.015,0.050
3111,-0.010,0.050
3112,0.000,0.050
3113,0.000,0.050
3114,0.000,0.050
3115,0.000,0.050
3116,-0.010,0.055
3117,-0.040,0.025
3118,-0.045,-0.030
3119,0.260,-0.130
3120,0.685,-0.215
3121,1.045,-0.280
3122,0.910,-0.225
3123,0.380,-0.075
3124,-0.075,0.115
3125,-0.225,0.180
3126,-0.175,0.145
3127,-0.060,0.090
3128,-0.005,0.075
3129,0.000,0.075
3130,0.000,0.065
3131,0.000,0.065
3132,0.005,0.055
3133,0.015,0.050
3134,0.020,0.050
3135,0.020,0.045
3136,0.020,0.040
3137,0.025,0.030
3138,0.035,0.025
3139,0.040,0.020
3140,0.040,0.015
3141,0.040,0.005
3142,0.050,0.000
3143,0.050,0.000
3144,0.060,0.000
3145,0.065,-0.005
3146,0.080,-0.020
3147,0.080,-0.030
3148,0.095,-0.045
3149,0.110,-0.055
3150,0.115,-0.065
3151,0.140,-0.090
3152,0.140,-0.110
3153,0.145,-0.135
3154,0.150,-0.155
3155,0.145,-0.165
3156,0.140,-0.180
3157,0.135,-0.195
3158,0.125,-0.205
3159,0.100,-0.205
3160,0.080,-0.185
3161,0.055,-0.155
3162,0.030,-0.115
3163,0.005,-0.085
3164,0.000,-0.050
3165,-0.020,-0.015
3166,-0.045,0.000
3167,-0.065,0.015
3168,-0.075,0.035
3169,-0.080,0.045
3170,-0.090,0.050
3171,-0.095,0.060
3172,-0.095,0.065
3173,-0.090,0.065
3174,-0.080,0.065
3175,-0.080,0.070
3176,-0.080,0.070
3177,-0.080,0.060
3178,-0.080,0.060
3179,-0.080,0.060
3180,-0.080,0.055
3181,-0.080,0.055
3182,-0.080,0.060
3183,-0.080,0.065
3184,-0.080,0.060
3185,-0.085,0.060
3186,-0.100,0.055
3187,-0.100,0.050
3188,-0.100,0.050
3189,-0.105,0.055
3190,-0.105,0.050
3191,-0.120,0.050
3192,-0.120,0.050
3193,-0.120,0.050
3194,-0.115,0.050
3195,-0.115,0.050
3196,-0.115,0.050
3197,-0.115,0.050
3198,-0.115,0.050
3199,-0.120,0.050
3200,-0.120,0.050
3201,-0.120,0.050
3202,-0.110,0.050
3203,-0.115,0.050
3204,-0.100,0.050
3205,-0.110,0.050
3206,-0.105,0.040
3207,-0.095,0.040
3208,-0.095,0.045
3209,-0.095,0.045
3210,-0.080,0.045
3211,-0.080,0.035
3212,-0.070,0.030
3213,-0.060,0.025
3214,-0.065,0.025
3215,-0.085,0.015
3216,-0.095,0.005
3217,-0.105,0.000
3218,-0.110,0.000
3219,-0.105,0.000
3220,-0.105,0.000
3221,-0.110,0.000
3222,-0.110,0.000
3223,-0.095,0.000
3224,-0.090,0.015
3225,-0.090,0.035
3226,-0.100,0.050
3227,-0.100,0.050
3228,-0.095,0.050
3229,-0.090,0.045
3230,-0.080,0.045
3231,-0.080,0.045
3232,-0.095,0.025
3233,-0.135,0.000
3234,-0.010,-0.075
3235,0.360,-0.180
3236,0.770,-0.295
3237,0.970,-0.385
3238,0.590,-0.330
3239,0.050,-0.105
3240,-0.250,0.105
3241,-0.245,0.120
3242,-0.120,0.080
3243,-0.050,0.075
3244,-0.040,0.065
3245,-0.035,0.055
3246,-0.035,0.055
3247,-0.020,0.050
3248,-0.020,0.050
3249,-0.015,0.045
3250,0.000,0.035
3251,0.000,0.035
3252,0.000,0.035
3253,0.000,0.025
3254,0.000,0.025
3255,0.000,0.015
3256,0.005,0.015
3257,0.015,0.005
3258,0.025,0.000
3259,0.040,0.000
3260,0.050,-0.005
3261,0.055,-0.015
3262,0.065,-0.025
3263,0.080,-0.035
3264,0.095,-0.050
3265,0.105,-0.065
3266,0.125,-0.085
3267,0.135,-0.105
3268,0.145,-0.130
3269,0.145,-0.155
3270,0.145,-0.170
3271,0.140,-0.195
3272,0.140,-0.210
3273,0.135,-0.225
3274,0.120,-0.235
3275,0.100,-0.230
3276,0.070,-0.210
3277,0.045,-0.180
3278,0.020,-0.150
3279,0.000,-0.115
3280,-0.010,-0.080
3281,-0.035,-0.050
3282,-0.055,-0.020
3283,-0.055,0.000
3284,-0.065,0.000
3285,-0.065,0.010
3286,-0.075,0.010
3287,-0.080,0.020
3288,-0.080,0.025
3289,-0.060,0.025
3290,-0.055,0.035
3291,-0.055,0.045
3292,-0.055,0.050
3293,-0.055,0.050
3294,-0.055,0.050
3295,-0.055,0.050
3296,-0.050,0.050
3297,-0.050,0.050
3298,-0.055,0.050
3299,-0.055,0.045
3300,-0.055,0.045
3301,-0.055,0.045
3302,-0.055,0.045
3303,-0.055,0.050
3304,-0.055,0.050
3305,-0.055,0.040
3306,-0.055,0.030
3307,-0.055,0.030
3308,-0.065,0.035
3309,-0.065,0.040
3310,-0.060,0.035
3311,-0.055,0.035
3312,-0.055,0.035
3313,-0.055,0.030
3314,-0.055,0.030
3315,-0.055,0.040
3316,-0.055,0.040
3317,-0.055,0.035
3318,-0.055,0.030
3319,-0.055,0.025
3320,-0.055,0.030
3321,-0.055,0.025
3322,-0.055,0.025
3323,-0.055,0.025
3324,-0.050,0.025
3325,-0.045,0.025
3326,-0.040,0.025
3327,-0.035,0.025
3328,-0.035,0.025
3329,-0.025,0.025
3330,-0.020,0.020
3331,-0.030,0.010
3332,-0.045,0.000
3333,-0.050,0.000
3334,-0.055,0.000
3335,-0.055,-0.010
3336,-0.055,-0.010
3337,-0.055,-0.010
3338,-0.065,-0.010
3339,-0.055,-0.010
3340,-0.055,0.000
3341,-0.040,0.010
3342,-0.045,0.030
3343,-0.050,0.030
3344,-0.055,0.030
3345,-0.055,0.035
3346,-0.060,0.040
3347,-0.075,0.040
3348,-0.080,0.030
3349,-0.100,0.005
3350,-0.095,-0.035
3351,0.090,-0.140
3352,0.465,-0.270
3353,0.820,-0.370
3354,0.835,-0.375
3355,0.400,-0.230
3356,-0.055,0.000
3357,-0.240,0.145
3358,-0.200,0.125
3359,-0.085,0.080
3360,-0.020,0.060
3361,0.000,0.050
3362,0.000,0.050
3363,0.000,0.050
3364,0.000,0.045
3365,0.000,0.040
3366,0.000,0.040
3367,0.000,0.035
3368,0.000,0.025
3369,0.010,0.025
3370,0.015,0.020
3371,0.015,0.010
3372,0.020,0.000
3373,0.020,0.000
3374,0.040,0.000
3375,0.045,0.000
3376,0.060,-0.010
3377,0.065,-0.015
3378,0.080,-0.020
3379,0.095,-0.040
3380,0.110,-0.050
3381,0.120,-0.070
3382,0.125,-0.080
3383,0.140,-0.105
3384,0.170,-0.135
3385,0.175,-0.160
3386,0.175,-0.175
3387,0.175,-0.190
3388,0.165,-0.210
3389,0.150,-0.230
3390,0.135,-0.235
3391,0.115,-0.235
3392,0.095,-0.230
3393,0.070,-0.205
3394,0.030,-0.175
3395,0.005,-0.140
3396,0.000,-0.105
3397,-0.005,-0.060
3398,-0.030,-0.030
3399,-0.045,-0.010
3400,-0.055,0.000
3401,-0.055,0.010
3402,-0.055,0.025
3403,-0.050,0.040
3404,-0.040,0.050
3405,-0.030,0.050
3406,-0.035,0.050
3407,-0.030,0.050
3408,-0.010,0.055
3409,-0.025,0.060
3410,-0.030,0.065
3411,-0.035,0.070
3412,-0.020,0.070
3413,-0.010,0.065
3414,-0.005,0.070
3415,0.000,0.070
3416,-0.025,0.070
3417,-0.030,0.075
3418,-0.035,0.060
3419,-0.035,0.055
3420,-0.020,0.050
3421,-0.020,0.060
3422,-0.040,0.060
3423,-0.045,0.055
3424,-0.015,0.055
3425,-0.015,0.060
3426,-0.025,0.060
3427,-0.015,0.050
3428,-0.015,0.050
3429,-0.020,0.050
3430,-0.020,0.050
3431,-0.020,0.055
3432,-0.030,0.060
3433,-0.030,0.060
3434,-0.015,0.055
3435,-0.005,0.055
3436,-0.005,0.050
3437,0.000,0.050
3438,-0.015,0.050
3439,-0.025,0.050
3440,-0.015,0.050
3441,0.000,0.050
3442,0.000,0.050
3443,0.000,0.050
3444,0.000,0.045
3445,0.000,0.035
3446,0.000,0.020
3447,0.000,0.005
3448,-0.010,0.005
3449,-0.015,0.005
3450,-0.015,0.000
3451,-0.015,0.000
3452,-0.020,0.000
3453,-0.020,0.015
3454,-0.005,0.015
3455,0.000,0.040
3456,-0.010,0.070
3457,-0.025,0.065
3458,-0.015,0.055
3459,0.000,0.055
3460,0.000,0.060
3461,0.000,0.065
3462,0.000,0.055
3463,-0.030,0.030
3464,-0.045,-0.020
3465,0.165,-0.105
3466,0.550,-0.205
3467,0.950,-0.285
3468,0.975,-0.270
3469,0.525,-0.130
3470,0.025,0.070
3471,-0.210,0.185
3472,-0.200,0.165
3473,-0.090,0.115
3474,-0.015,0.090
3475,0.000,0.080
3476,0.005,0.075
3477,0.015,0.075
3478,0.020,0.070
3479,0.020,0.060
3480,0.020,0.055
3481,0.030,0.050
3482,0.045,0.045
3483,0.055,0.040
3484,0.060,0.030
3485,0.070,0.025
3486,0.080,0.020
3487,0.080,0.015
3488,0.090,0.000
3489,0.100,0.000
3490,0.105,0.000
3491,0.120,-0.010
3492,0.120,-0.020
3493,0.140,-0.020
3494,0.140,-0.035
3495,0.145,-0.050
3496,0.175,-0.070
3497,0.190,-0.095
3498,0.205,-0.110
3499,0.205,-0.125
3500,0.205,-0.145
3501,0.205,-0.165
3502,0.190,-0.180
3503,0.185,-0.195
3504,0.160,-0.205
3505,0.150,-0.210
3506,0.140,-0.200
3507,0.115,-0.175
3508,0.085,-0.150
3509,0.055,-0.110
3510,0.020,-0.070
3511,0.000,-0.035
3512,0.000,-0.005
3513,-0.010,0.000
3514,-0.025,0.015
3515,-0.035,0.030
3516,-0.045,0.045
3517,-0.050,0.050
3518,-0.040,0.050
3519,-0.045,0.060
3520,-0.045,0.060
3521,-0.035,0.055
3522,-0.035,0.065
3523,-0.035,0.065
3524,-0.035,0.065
3525,-0.035,0.065
3526,-0.035,0.065
3527,-0.040,0.060
3528,-0.050,0.060
3529,-0.055,0.060
3530,-0.055,0.060
3531,-0.055,0.055
3532,-0.055,0.050
3533,-0.065,0.055
3534,-0.060,0.060
3535,-0.060,0.055
3536,-0.080,0.055
3537,-0.075,0.055
3538,-0.070,0.050
3539,-0.080,0.050
3540,-0.075,0.055
3541,-0.065,0.055
3542,-0.065,0.060
3543,-0.065,0.055
3544,-0.075,0.050
3545,-0.080,0.050
3546,-0.080,0.050
3547,-0.080,0.055
3548,-0.080,0.050
3549,-0.080,0.050
3550,-0.080,0.050
3551,-0.065,0.050
3552,-0.065,0.045
3553,-0.055,0.045
3554,-0.055,0.045
3555,-0.055,0.045
3556,-0.055,0.045
3557,-0.050,0.040
3558,-0.050,0.030
3559,-0.055,0.020
3560,-0.065,0.010
3561,-0.080,0.000
3562,-0.080,0.000
3563,-0.080,0.000
3564,-0.080,0.000
3565,-0.085,0.000
3566,-0.085,0.000
3567,-0.070,0.000
3568,-0.060,0.005
3569,-0.055,0.025
3570,-0.065,0.045
3571,-0.080,0.050
3572,-0.080,0.050
3573,-0.075,0.050
3574,-0.060,0.045
3575,-0.055,0.040
3576,-0.055,0.040
3577,-0.075,0.030
3578,-0.110,-0.005
3579,0.040,-0.080
3580,0.440,-0.200
3581,0.855,-0.310
3582,0.985,-0.370
3583,0.530,-0.280
3584,-0.010,-0.040
3585,-0.270,0.140
3586,-0.230,0.125
3587,-0.105,0.080
3588,-0.045,0.075
3589,-0.035,0.060
3590,-0.035,0.060
3591,-0.020,0.050
3592,-0.015,0.050
3593,-0.010,0.050
3594,0.000,0.040
3595,0.000,0.040
3596,0.000,0.025
3597,0.000,0.025
3598,0.000,0.025
3599,0.000,0.025
3600,0.010,0.015
3601,0.020,0.005
3602,0.020,0.000
3603,0.030,0.000
3604,0.040,-0.005
3605,0.050,-0.015
3606,0.060,-0.020
3607,0.065,-0.025
3608,0.080,-0.040
3609,0.095,-0.060
3610,0.105,-0.075
3611,0.125,-0.090
3612,0.135,-0.110
3613,0.140,-0.135
3614,0.140,-0.160
3615,0.145,-0.175
3616,0.140,-0.190
3617,0.140,-0.210
3618,0.135,-0.225
3619,0.120,-0.235
3620,0.105,-0.230
3621,0.075,-0.215
3622,0.045,-0.190
3623,0.020,-0.155
3624,0.000,-0.105
3625,-0.010,-0.065
3626,-0.025,-0.045
3627,-0.045,-0.020
3628,-0.050,-0.005
3629,-0.055,0.000
3630,-0.055,0.015
3631,-0.055,0.020
3632,-0.055,0.025
3633,-0.055,0.025
3634,-0.055,0.025
3635,-0.055,0.045
3636,-0.050,0.050
3637,-0.040,0.045
3638,-0.045,0.040
3639,-0.045,0.045
3640,-0.040,0.050
3641,-0.040,0.050
3642,-0.050,0.055
3643,-0.055,0.050
3644,-0.055,0.050
3645,-0.050,0.040
3646,-0.050,0.040
3647,-0.055,0.050
3648,-0.055,0.050
3649,-0.055,0.045
3650,-0.055,0.040
3651,-0.060,0.040
3652,-0.055,0.045
3653,-0.055,0.040
3654,-0.055,0.035
3655,-0.055,0.040
3656,-0.055,0.040
3657,-0.055,0.035
3658,-0.055,0.035
3659,-0.055,0.045
3660,-0.055,0.035
3661,-0.055,0.035
3662,-0.055,0.040
3663,-0.055,0.035
3664,-0.055,0.030
3665,-0.055,0.040
3666,-0.055,0.035
3667,-0.055,0.025
3668,-0.055,0.030
3669,-0.050,0.030
3670,-0.045,0.030
3671,-0.035,0.025
3672,-0.035,0.025
3673,-0.035,0.010
3674,-0.050,0.000
3675,-0.055,0.000
3676,-0.055,0.000
3677,-0.060,0.000
3678,-0.055,0.000
3679,-0.055,-0.015
3680,-0.075,-0.005
3681,-0.060,0.000
3682,-0.055,0.000
3683,-0.055,0.015
3684,-0.055,0.030
3685,-0.060,0.030
3686,-0.055,0.035
3687,-0.055,0.045
3688,-0.040,0.040
3689,-0.035,0.030
3690,-0.035,0.025
3691,-0.070,0.015
3692,-0.065,-0.035
3693,0.135,-0.135
3694,0.500,-0.255
3695,0.830,-0.360
3696,0.840,-0.375
3697,0.395,-0.220
3698,-0.065,0.005
3699,-0.240,0.150
3700,-0.190,0.130
3701,-0.080,0.085
3702,-0.025,0.070
3703,-0.010,0.055
3704,0.000,0.050
3705,0.000,0.045
3706,0.000,0.035
3707,0.000,0.035
3708,0.000,0.040
3709,0.000,0.035
3710,0.005,0.020
3711,0.020,0.020
3712,0.020,0.020
3713,0.020,0.015
3714,0.025,0.005
3715,0.025,0.000
3716,0.035,0.000
3717,0.045,-0.005
3718,0.055,-0.015
3719,0.065,-0.025
3720,0.075,-0.040
3721,0.085,-0.045
3722,0.105,-0.065
3723,0.115,-0.080
3724,0.120,-0.095
3725,0.130,-0.120
3726,0.140,-0.130
3727,0.150,-0.150
3728,0.150,-0.175
3729,0.140,-0.200
3730,0.140,-0.220
3731,0.140,-0.230
3732,0.125,-0.245
3733,0.110,-0.255
3734,0.085,-0.245
3735,0.060,-0.225
3736,0.045,-0.195
3737,0.025,-0.150
3738,0.005,-0.110
3739,0.000,-0.075
3740,-0.005,-0.045
3741,-0.015,-0.020
3742,-0.025,0.000
3743,-0.035,0.010
3744,-0.035,0.025
3745,-0.035,0.025
3746,-0.035,0.040
3747,-0.050,0.050
3748,-0.035,0.050
3749,-0.030,0.050
3750,-0.025,0.065
3751,-0.030,0.060
3752,-0.025,0.055
3753,-0.020,0.060
3754,-0.025,0.055
3755,-0.015,0.070
3756,-0.030,0.060
3757,-0.035,0.060
3758,-0.035,0.060
3759,-0.035,0.060
3760,-0.030,0.050
3761,-0.030,0.050
3762,-0.035,0.055
3763,-0.035,0.050
3764,-0.025,0.050
3765,-0.025,0.050
3766,-0.030,0.050
3767,-0.045,0.050
3768,-0.040,0.050
3769,-0.035,0.050
3770,-0.025,0.050
3771,-0.020,0.050
3772,-0.015,0.050
3773,-0.020,0.050
3774,-0.015,0.050
3775,-0.025,0.055
3776,-0.030,0.050
3777,-0.025,0.050
3778,-0.020,0.050
3779,-0.015,0.050
3780,-0.015,0.050
3781,-0.005,0.045
3782,0.000,0.045
3783,-0.010,0.050
3784,-0.010,0.040
3785,-0.005,0.025
3786,-0.005,0.020
3787,-0.020,0.005
3788,-0.025,0.000
3789,-0.025,0.000
3790,-0.035,0.000
3791,-0.040,0.000
3792,-0.045,0.000
3793,-0.015,0.005
3794,-0.015,0.025
3795,-0.020,0.045
3796,-0.020,0.050
3797,-0.015,0.050
3798,-0.025,0.050
3799,-0.015,0.055
3800,-0.005,0.055
3801,-0.010,0.050
3802,-0.015,0.045
3803,-0.060,0.005
3804,-0.015,-0.055
3805,0.320,-0.160
3806,0.745,-0.260
3807,1.040,-0.315
3808,0.800,-0.220
3809,0.260,-0.030
3810,-0.115,0.140
3811,-0.210,0.185
3812,-0.140,0.140
3813,-0.040,0.095
3814,0.000,0.075
3815,0.000,0.070
3816,0.005,0.065
3817,0.015,0.060
3818,0.020,0.050
3819,0.035,0.050
3820,0.040,0.045
3821,0.025,0.045
3822,0.025,0.040
3823,0.025,0.025
3824,0.035,0.025
3825,0.060,0.020
3826,0.060,0.015
3827,0.060,0.005
3828,0.060,0.000
3829,0.060,0.000
3830,0.065,0.000
3831,0.080,-0.020
3832,0.090,-0.020
3833,0.115,-0.030
3834,0.125,-0.045
3835,0.140,-0.060
3836,0.150,-0.085
3837,0.175,-0.100
3838,0.175,-0.120
3839,0.185,-0.145
3840,0.185,-0.160
3841,0.185,-0.175
3842,0.185,-0.190
3843,0.185,-0.205
3844,0.150,-0.215
3845,0.135,-0.210
3846,0.115,-0.195
3847,0.100,-0.165
3848,0.070,-0.135
3849,0.045,-0.090
3850,0.020,-0.060
3851,0.000,-0.030
3852,0.000,-0.005
3853,-0.005,0.010
3854,-0.015,0.025
3855,-0.020,0.035
3856,-0.025,0.050
3857,-0.030,0.060
3858,-0.025,0.060
3859,-0.030,0.055
3860,-0.020,0.060
3861,-0.020,0.055
3862,-0.025,0.050
3863,-0.030,0.050
3864,-0.030,0.065
3865,-0.030,0.070
3866,-0.030,0.060
3867,-0.030,0.050
3868,-0.035,0.050
3869,-0.035,0.055
3870,-0.035,0.060
3871,-0.040,0.055
3872,-0.050,0.055
3873,-0.045,0.060
3874,-0.045,0.055
3875,-0.050,0.050
3876,-0.055,0.050
3877,-0.055,0.050
3878,-0.055,0.055
3879,-0.055,0.055
3880,-0.055,0.060
3881,-0.055,0.065
3882,-0.055,0.060
3883,-0.055,0.055
3884,-0.055,0.050
3885,-0.055,0.050
3886,-0.055,0.055
3887,-0.055,0.060
3888,-0.055,0.055
3889,-0.055,0.050
3890,-0.055,0.050
3891,-0.055,0.050
3892,-0.055,0.050
3893,-0.045,0.050
3894,-0.035,0.050
3895,-0.040,0.040
3896,-0.050,0.025
3897,-0.060,0.015
3898,-0.075,0.015
3899,-0.080,0.020
3900,-0.080,0.015
3901,-0.080,0.005
3902,-0.085,0.000
3903,-0.085,0.000
3904,-0.075,0.010
3905,-0.065,0.030
3906,-0.070,0.055
3907,-0.080,0.060
3908,-0.080,0.055
3909,-0.080,0.055
3910,-0.075,0.055
3911,-0.060,0.050
3912,-0.055,0.050
3913,-0.080,0.040
3914,-0.110,0.005
3915,-0.005,-0.055
3916,0.360,-0.155
3917,0.785,-0.260
3918,1.015,-0.325
3919,0.665,-0.270
3920,0.095,-0.070
3921,-0.240,0.135
3922,-0.275,0.155
3923,-0.155,0.110
3924,-0.065,0.075
3925,-0.040,0.070
3926,-0.035,0.070
3927,-0.035,0.065
3928,-0.030,0.050
3929,-0.025,0.050
3930,-0.015,0.050
3931,-0.010,0.050
3932,0.000,0.045
3933,0.000,0.030
3934,0.000,0.035
3935,0.000,0.025
3936,0.000,0.020
3937,0.000,0.015
3938,0.015,0.005
3939,0.020,0.000
3940,0.020,0.000
3941,0.030,-0.010
3942,0.040,-0.015
3943,0.050,-0.020
3944,0.060,-0.035
3945,0.070,-0.050
3946,0.085,-0.060
3947,0.100,-0.075
3948,0.110,-0.100
3949,0.120,-0.125
3950,0.125,-0.145
3951,0.120,-0.160
3952,0.120,-0.175
3953,0.110,-0.190
3954,0.100,-0.200
3955,0.090,-0.220
3956,0.075,-0.225
3957,0.060,-0.205
3958,0.030,-0.180
3959,0.010,-0.145
3960,0.000,-0.115
3961,-0.020,-0.075
3962,-0.040,-0.050
3963,-0.055,-0.020
3964,-0.070,0.000
3965,-0.080,0.000
3966,-0.080,0.015
3967,-0.080,0.025
3968,-0.080,0.035
3969,-0.070,0.035
3970,-0.075,0.035
3971,-0.080,0.045
3972,-0.070,0.050
3973,-0.055,0.050
3974,-0.055,0.050
3975,-0.075,0.050
3976,-0.060,0.050
3977,-0.060,0.050
3978,-0.060,0.050
3979,-0.075,0.050
3980,-0.065,0.050
3981,-0.075,0.050
3982,-0.080,0.050
3983,-0.070,0.050
3984,-0.065,0.050
3985,-0.075,0.050
3986,-0.080,0.045
3987,-0.080,0.040
3988,-0.080,0.040
3989,-0.080,0.045
3990,-0.075,0.045
3991,-0.070,0.040
3992,-0.080,0.040
3993,-0.085,0.040
3994,-0.095,0.040
3995,-0.085,0.040
3996,-0.070,0.035
3997,-0.070,0.035
3998,-0.080,0.035
3999,-0.070,0.030
4000,-0.055,0.025
4001,-0.060,0.035
4002,-0.080,0.025
4003,-0.075,0.025
4004,-0.055,0.040
4005,-0.055,0.035
4006,-0.050,0.025
4007,-0.045,0.015
4008,-0.050,0.000
4009,-0.060,0.000
4010,-0.090,0.000
4011,-0.095,0.000
4012,-0.080,0.000
4013,-0.100,0.000
4014,-0.080,0.000
4015,-0.070,0.000
4016,-0.055,0.000
4017,-0.075,0.020
4018,-0.065,0.040
4019,-0.055,0.045
4020,-0.070,0.050
4021,-0.085,0.050
4022,-0.075,0.045
4023,-0.060,0.045
4024,-0.055,0.040
4025,-0.080,0.020
4026,-0.115,-0.015
4027,0.045,-0.100
4028,0.400,-0.225
4029,0.810,-0.335
4030,0.885,-0.370
4031,0.470,-0.250
4032,-0.025,-0.020
4033,-0.260,0.130
4034,-0.240,0.130
4035,-0.120,0.095
4036,-0.050,0.075
4037,-0.035,0.065
4038,-0.025,0.055
4039,-0.015,0.050
4040,-0.015,0.050
4041,-0.015,0.050
4042,-0.010,0.050
4043,0.000,0.045
4044,0.000,0.035
4045,0.000,0.030
4046,0.000,0.025
4047,0.000,0.020
4048,0.000,0.015
4049,0.000,0.010
4050,0.030,0.000
4051,0.030,0.000
4052,0.020,0.000
4053,0.035,-0.010
4054,0.055,-0.015
4055,0.070,-0.020
4056,0.070,-0.040
4057,0.080,-0.055
4058,0.095,-0.070
4059,0.100,-0.090
4060,0.100,-0.105
4061,0.115,-0.130
4062,0.125,-0.150
4063,0.130,-0.175
4064,0.105,-0.190
4065,0.110,-0.210
4066,0.120,-0.230
4067,0.105,-0.235
4068,0.075,-0.225
4069,0.025,-0.205
4070,0.000,-0.170
4071,0.000,-0.145
4072,0.000,-0.120
4073,-0.030,-0.075
4074,-0.065,-0.035
4075,-0.080,-0.015
4076,-0.065,0.000
4077,-0.055,0.005
4078,-0.075,0.020
4079,-0.085,0.035
4080,-0.060,0.045
4081,-0.055,0.050
4082,-0.070,0.050
4083,-0.090,0.055
4084,-0.070,0.060
4085,-0.055,0.050
4086,-0.065,0.055
4087,-0.065,0.065
4088,-0.060,0.065
4089,-0.070,0.065
4090,-0.070,0.065
4091,-0.080,0.065
4092,-0.100,0.065
4093,-0.095,0.050
4094,-0.070,0.050
4095,-0.080,0.050
4096,-0.080,0.065
4097,-0.060,0.050
4098,-0.060,0.050
4099,-0.075,0.050
4100,-0.080,0.050
4101,-0.080,0.050
4102,-0.080,0.050
4103,-0.080,0.050
4104,-0.080,0.050
4105,-0.080,0.050
4106,-0.080,0.050
4107,-0.080,0.050
4108,-0.065,0.050
4109,-0.060,0.050
4110,-0.065,0.050
4111,-0.075,0.050
4112,-0.080,0.050
4113,-0.080,0.045
4114,-0.070,0.045
4115,-0.065,0.050
4116,-0.055,0.045
4117,-0.055,0.045
4118,-0.055,0.045
4119,-0.055,0.035
4120,-0.055,0.025
4121,-0.065,0.015
4122,-0.070,0.005
4123,-0.085,0.000
4124,-0.095,0.000
4125,-0.095,0.000
4126,-0.090,0.000
4127,-0.095,0.000
4128,-0.090,0.000
4129,-0.080,0.000
4130,-0.070,0.010
4131,-0.055,0.030
4132,-0.075,0.045
4133,-0.060,0.050
4134,-0.055,0.050
4135,-0.055,0.045
4136,-0.055,0.030
4137,-0.055,0.035
4138,-0.055,0.020
4139,-0.120,-0.020
4140,0.020,-0.115
4141,0.385,-0.250
4142,0.790,-0.375
4143,0.880,-0.395
4144,0.430,-0.240
4145,-0.050,0.010
4146,-0.265,0.155
4147,-0.235,0.135
4148,-0.125,0.095
4149,-0.050,0.070
4150,-0.025,0.055
4151,-0.015,0.055
4152,-0.005,0.050
4153,0.000,0.050
4154,0.000,0.050
4155,0.000,0.050
4156,0.000,0.045
4157,0.000,0.030
4158,0.000,0.025
4159,0.010,0.020
4160,0.020,0.015
4161,0.015,0.010
4162,0.010,0.005
4163,0.020,0.000
4164,0.025,0.000
4165,0.040,-0.010
4166,0.060,-0.020
4167,0.060,-0.030
4168,0.060,-0.040
4169,0.075,-0.050
4170,0.090,-0.065
4171,0.105,-0.080
4172,0.125,-0.100
4173,0.140,-0.130
4174,0.140,-0.155
4175,0.140,-0.175
4176,0.140,-0.190
4177,0.140,-0.200
4178,0.135,-0.230
4179,0.095,-0.235
4180,0.075,-0.235
4181,0.060,-0.230
4182,0.050,-0.220
4183,0.010,-0.190
4184,0.000,-0.145
4185,0.000,-0.105
4186,-0.010,-0.060
4187,-0.030,-0.025
4188,-0.045,-0.005
4189,-0.050,0.005
4190,-0.055,0.020
4191,-0.055,0.025
4192,-0.055,0.045
4193,-0.040,0.050
4194,-0.045,0.050
4195,-0.050,0.065
4196,-0.040,0.065
4197,-0.040,0.065
4198,-0.050,0.070
4199,-0.040,0.070
4200,-0.020,0.065
4201,-0.020,0.070
4202,-0.030,0.075
4203,-0.035,0.070
4204,-0.035,0.065
4205,-0.040,0.065
4206,-0.045,0.065
4207,-0.045,0.070
4208,-0.045,0.070
4209,-0.040,0.060
4210,-0.045,0.055
4211,-0.045,0.050
4212,-0.045,0.050
4213,-0.040,0.060
4214,-0.050,0.060
4215,-0.050,0.060
4216,-0.055,0.055
4217,-0.055,0.055
4218,-0.050,0.060
4219,-0.045,0.055
4220,-0.050,0.055
4221,-0.050,0.055
4222,-0.045,0.050
4223,-0.055,0.050
4224,-0.055,0.050
4225,-0.055,0.050
4226,-0.050,0.050
4227,-0.035,0.050
4228,-0.030,0.050
4229,-0.030,0.050
4230,-0.035,0.040
4231,-0.035,0.030
4232,-0.035,0.025
4233,-0.045,0.010
4234,-0.065,0.000
4235,-0.055,0.000
4236,-0.055,0.000
4237,-0.055,0.000
4238,-0.055,0.000
4239,-0.045,0.000
4240,-0.035,0.015
4241,-0.035,0.030
4242,-0.035,0.045
4243,-0.045,0.050
4244,-0.040,0.050
4245,-0.040,0.060
4246,-0.050,0.065
4247,-0.045,0.055
4248,-0.035,0.050
4249,-0.045,0.030
4250,-0.065,-0.010
4251,0.060,-0.090
4252,0.415,-0.195
4253,0.805,-0.295
4254,0.965,-0.305
4255,0.610,-0.165
4256,0.090,0.030
4257,-0.205,0.185
4258,-0.235,0.185
4259,-0.130,0.120
4260,-0.045,0.090
4261,-0.025,0.085
4262,0.000,0.070
4263,0.000,0.065
4264,0.000,0.060
4265,0.000,0.045
4266,0.005,0.045
4267,0.005,0.045
4268,0.005,0.050
4269,0.020,0.035
4270,0.040,0.035
4271,0.050,0.025
4272,0.030,0.025
4273,0.025,0.010
4274,0.045,0.000
4275,0.055,0.000
4276,0.060,0.000
4277,0.060,-0.005
4278,0.070,-0.015
4279,0.090,-0.025
4280,0.100,-0.035
4281,0.120,-0.050
4282,0.135,-0.065
4283,0.135,-0.075
4284,0.140,-0.105
4285,0.140,-0.130
4286,0.150,-0.150
4287,0.160,-0.170
4288,0.150,-0.185
4289,0.135,-0.195
4290,0.130,-0.210
4291,0.120,-0.210
4292,0.105,-0.205
4293,0.085,-0.185
4294,0.070,-0.150
4295,0.045,-0.110
4296,0.020,-0.075
4297,0.000,-0.045
4298,-0.005,-0.005
4299,-0.025,0.005
4300,-0.030,0.025
4301,-0.045,0.030
4302,-0.040,0.050
4303,-0.035,0.050
4304,-0.035,0.050
4305,-0.035,0.065
4306,-0.030,0.070
4307,-0.015,0.070
4308,-0.020,0.065
4309,-0.020,0.060
4310,-0.020,0.065
4311,-0.030,0.070
4312,-0.035,0.070
4313,-0.020,0.070
4314,-0.025,0.060
4315,-0.030,0.055
4316,-0.030,0.060
4317,-0.035,0.060
4318,-0.035,0.060
4319,-0.035,0.060
4320,-0.045,0.070
4321,-0.050,0.065
4322,-0.040,0.055
4323,-0.035,0.055
4324,-0.035,0.055
4325,-0.035,0.055
4326,-0.045,0.055
4327,-0.050,0.050
4328,-0.050,0.050
4329,-0.050,0.055
4330,-0.040,0.060
4331,-0.040,0.060
4332,-0.045,0.055
4333,-0.055,0.055
4334,-0.045,0.055
4335,-0.040,0.055
4336,-0.055,0.050
4337,-0.055,0.055
4338,-0.045,0.050
4339,-0.035,0.045
4340,-0.035,0.045
4341,-0.035,0.045
4342,-0.040,0.035
4343,-0.060,0.020
4344,-0.070,0.010
4345,-0.075,0.010
4346,-0.055,0.005
4347,-0.055,0.005
4348,-0.085,0.000
4349,-0.080,0.000
4350,-0.075,0.015
4351,-0.070,0.035
4352,-0.070,0.055
4353,-0.075,0.060
4354,-0.080,0.055
4355,-0.070,0.055
4356,-0.065,0.055
4357,-0.060,0.060
4358,-0.060,0.050
4359,-0.085,0.045
4360,-0.135,0.000
4361,0.040,-0.060
4362,0.430,-0.160
4363,0.870,-0.260
4364,1.000,-0.300
4365,0.610,-0.215
4366,0.070,-0.015
4367,-0.230,0.130
4368,-0.250,0.155
4369,-0.150,0.120
4370,-0.070,0.095
4371,-0.040,0.080
4372,-0.035,0.075
4373,-0.035,0.075
4374,-0.025,0.070
4375,-0.015,0.060
4376,-0.015,0.055
4377,-0.005,0.055
4378,0.000,0.055
4379,0.000,0.050
4380,0.000,0.040
4381,0.000,0.030
4382,0.000,0.025
4383,0.000,0.020
4384,0.000,0.015
4385,0.015,0.005
4386,0.020,0.000
4387,0.025,0.000
4388,0.040,-0.005
4389,0.045,-0.010
4390,0.060,-0.025
4391,0.070,-0.035
4392,0.090,-0.060
4393,0.105,-0.070
4394,0.120,-0.095
4395,0.120,-0.105
4396,0.125,-0.125
4397,0.125,-0.150
4398,0.135,-0.170
4399,0.120,-0.185
4400,0.110,-0.200
4401,0.095,-0.205
4402,0.070,-0.195
4403,0.050,-0.185
4404,0.030,-0.155
4405,0.005,-0.115
4406,0.000,-0.080
4407,-0.025,-0.050
4408,-0.050,-0.025
4409,-0.060,-0.005
4410,-0.070,0.005
4411,-0.080,0.020
4412,-0.080,0.030
4413,-0.085,0.035
4414,-0.080,0.045
4415,-0.080,0.050
4416,-0.080,0.050
4417,-0.080,0.050
4418,-0.080,0.050
4419,-0.080,0.050
4420,-0.075,0.050
4421,-0.070,0.050
4422,-0.065,0.050
4423,-0.070,0.050
4424,-0.080,0.050
4425,-0.080,0.050
4426,-0.080,0.050
4427,-0.080,0.050
4428,-0.080,0.045
4429,-0.080,0.040
4430,-0.080,0.040
4431,-0.095,0.050
4432,-0.090,0.045
4433,-0.090,0.045
4434,-0.090,0.050
4435,-0.085,0.045
4436,-0.080,0.035
4437,-0.085,0.045
4438,-0.080,0.030
4439,-0.095,0.035
4440,-0.100,0.040
4441,-0.090,0.040
4442,-0.090,0.045
4443,-0.090,0.035
4444,-0.090,0.035
4445,-0.080,0.030
4446,-0.080,0.030
4447,-0.080,0.030
4448,-0.070,0.025
4449,-0.060,0.030
4450,-0.055,0.025
4451,-0.055,0.025
4452,-0.055,0.025
4453,-0.055,0.015
4454,-0.060,0.005
4455,-0.070,0.000
4456,-0.080,0.000
4457,-0.080,0.000
4458,-0.080,0.000
4459,-0.080,-0.005
4460,-0.090,0.000
4461,-0.080,0.000
4462,-0.065,0.000
4463,-0.065,0.020
4464,-0.070,0.040
4465,-0.080,0.035
4466,-0.080,0.035
4467,-0.070,0.050
4468,-0.055,0.050
4469,-0.055,0.045
4470,-0.060,0.030
4471,-0.090,0.005
4472,-0.085,-0.035
4473,0.185,-0.140
4474,0.595,-0.265
4475,0.945,-0.365
4476,0.800,-0.375
4477,0.250,-0.205
4478,-0.170,0.050
4479,-0.280,0.145
4480,-0.180,0.105
4481,-0.065,0.065
4482,-0.040,0.065
4483,-0.030,0.065
4484,-0.025,0.055
4485,-0.015,0.050
4486,-0.005,0.050
4487,0.000,0.050
4488,0.000,0.045
4489,0.000,0.035
4490,0.000,0.035
4491,0.000,0.025
4492,0.005,0.025
4493,0.015,0.025
4494,0.015,0.010
4495,0.015,0.000
4496,0.020,0.000
4497,0.030,0.000
4498,0.040,-0.005
4499,0.050,-0.015
4500,0.060,-0.025
4501,0.070,-0.040
4502,0.085,-0.045
4503,0.095,-0.060
4504,0.105,-0.080
4505,0.120,-0.100
4506,0.125,-0.120
4507,0.140,-0.145
4508,0.140,-0.165
4509,0.135,-0.185
4510,0.120,-0.205
4511,0.115,-0.225
4512,0.100,-0.235
4513,0.085,-0.230
4514,0.060,-0.220
4515,0.040,-0.195
4516,0.010,-0.165
4517,0.000,-0.130
4518,-0.005,-0.090
4519,-0.035,-0.055
4520,-0.055,-0.030
4521,-0.055,0.000
4522,-0.065,0.000
4523,-0.075,0.000
4524,-0.080,0.020
4525,-0.080,0.025
4526,-0.080,0.030
4527,-0.080,0.030
4528,-0.060,0.040
4529,-0.055,0.045
4530,-0.055,0.050
4531,-0.055,0.050
4532,-0.055,0.050
4533,-0.055,0.050
4534,-0.055,0.055
4535,-0.055,0.050
4536,-0.055,0.050
4537,-0.055,0.050
4538,-0.055,0.050
4539,-0.060,0.050
4540,-0.065,0.050
4541,-0.070,0.050
4542,-0.080,0.050
4543,-0.070,0.045
4544,-0.060,0.045
4545,-0.055,0.050
4546,-0.055,0.045
4547,-0.055,0.045
4548,-0.055,0.045
4549,-0.055,0.045
4550,-0.055,0.050
4551,-0.055,0.045
4552,-0.055,0.035
4553,-0.055,0.035
4554,-0.055,0.045
4555,-0.055,0.040
4556,-0.055,0.040
4557,-0.055,0.035
4558,-0.055,0.040
4559,-0.050,0.040
4560,-0.035,0.040
4561,-0.035,0.035
4562,-0.035,0.020
4563,-0.040,0.010
4564,-0.055,0.005
4565,-0.070,0.000
4566,-0.075,0.000
4567,-0.070,0.000
4568,-0.060,0.000
4569,-0.065,0.000
4570,-0.065,0.000
4571,-0.055,0.000
4572,-0.055,0.010
4573,-0.055,0.035
4574,-0.055,0.045
4575,-0.055,0.045
4576,-0.055,0.045
4577,-0.055,0.050
4578,-0.050,0.050
4579,-0.050,0.045
4580,-0.060,0.030
4581,-0.100,-0.005
4582,0.000,-0.085
4583,0.315,-0.210
4584,0.715,-0.335
4585,0.885,-0.390
4586,0.585,-0.295
4587,0.100,-0.065
4588,-0.190,0.120
4589,-0.225,0.150
4590,-0.125,0.105
4591,-0.040,0.075
4592,-0.005,0.065
4593,0.000,0.055
4594,0.000,0.050
4595,0.000,0.050
4596,0.000,0.045
4597,0.000,0.045
4598,0.000,0.040
4599,0.020,0.035
4600,0.015,0.030
4601,0.015,0.020
4602,0.025,0.010
4603,0.040,0.005
4604,0.055,0.000
4605,0.045,0.000
4606,0.045,0.000
4607,0.060,-0.010
4608,0.070,-0.020
4609,0.075,-0.020
4610,0.080,-0.040
4611,0.090,-0.045
4612,0.115,-0.065
4613,0.120,-0.080
4614,0.130,-0.105
4615,0.135,-0.125
4616,0.140,-0.150
4617,0.140,-0.165
4618,0.140,-0.190
4619,0.140,-0.205
4620,0.125,-0.225
4621,0.125,-0.240
4622,0.105,-0.250
4623,0.080,-0.240
4624,0.060,-0.225
4625,0.045,-0.195
4626,0.025,-0.160
4627,0.005,-0.120
4628,0.000,-0.075
4629,-0.010,-0.045
4630,-0.020,-0.020
4631,-0.030,0.000
4632,-0.035,0.015
4633,-0.035,0.020
4634,-0.045,0.035
4635,-0.055,0.050
4636,-0.045,0.050
4637,-0.035,0.055
4638,-0.030,0.065
4639,-0.025,0.065
4640,-0.020,0.065
4641,-0.020,0.075
4642,-0.030,0.070
4643,-0.035,0.070
4644,-0.035,0.075
4645,-0.035,0.075
4646,-0.035,0.075
4647,-0.045,0.070
4648,-0.045,0.060
4649,-0.030,0.060
4650,-0.035,0.070
4651,-0.035,0.070
4652,-0.035,0.060
4653,-0.035,0.055
4654,-0.030,0.055
4655,-0.045,0.055
4656,-0.050,0.050
4657,-0.040,0.050
4658,-0.035,0.050
4659,-0.030,0.055
4660,-0.030,0.050
4661,-0.035,0.050
4662,-0.030,0.050
4663,-0.015,0.050
4664,0.000,0.050
4665,-0.005,0.050
4666,-0.015,0.050
4667,-0.020,0.050
4668,-0.015,0.050
4669,-0.010,0.055
4670,-0.005,0.050
4671,0.000,0.045
4672,0.000,0.040
4673,0.000,0.030
4674,-0.010,0.020
4675,-0.030,0.010
4676,-0.035,0.005
4677,-0.025,0.005
4678,-0.020,0.000
4679,-0.025,0.005
4680,-0.035,0.010
4681,-0.030,0.000
4682,-0.015,0.020
4683,-0.015,0.040
4684,-0.035,0.055
4685,-0.050,0.055
4686,-0.030,0.060
4687,-0.020,0.060
4688,0.000,0.060
4689,-0.010,0.055
4690,-0.020,0.045
4691,-0.075,0.010
4692,-0.035,-0.050
4693,0.300,-0.170
4694,0.720,-0.280
4695,1.050,-0.350
4696,0.790,-0.240
4697,0.240,-0.035
4698,-0.140,0.175
4699,-0.240,0.200
4700,-0.150,0.145
4701,-0.040,0.105
4702,-0.005,0.085
4703,0.000,0.080
4704,0.000,0.075
4705,0.010,0.065
4706,0.010,0.065
4707,0.010,0.055
4708,0.005,0.050
4709,0.020,0.050
4710,0.025,0.045
4711,0.020,0.035
4712,0.025,0.025
4713,0.040,0.025
4714,0.055,0.015
4715,0.060,0.010
4716,0.065,0.005
4717,0.060,0.000
4718,0.075,0.000
4719,0.085,-0.005
4720,0.085,-0.020
4721,0.105,-0.030
4722,0.120,-0.040
4723,0.140,-0.060
4724,0.150,-0.080
4725,0.145,-0.095
4726,0.150,-0.115
4727,0.175,-0.140
4728,0.175,-0.160
4729,0.165,-0.180
4730,0.140,-0.190
4731,0.135,-0.200
4732,0.120,-0.205
4733,0.115,-0.205
4734,0.085,-0.190
4735,0.055,-0.165
4736,0.040,-0.125
4737,0.030,-0.075
4738,0.000,-0.040
4739,0.000,-0.010
4740,-0.010,0.005
4741,-0.025,0.020
4742,-0.045,0.040
4743,-0.050,0.050
4744,-0.045,0.060
4745,-0.045,0.070
4746,-0.050,0.075
4747,-0.045,0.075
4748,-0.045,0.075
4749,-0.045,0.075
4750,-0.035,0.075
4751,-0.035,0.075
4752,-0.035,0.075
4753,-0.020,0.075
4754,-0.015,0.075
4755,-0.025,0.075
4756,-0.035,0.070
4757,-0.035,0.070
4758,-0.035,0.075
4759,-0.040,0.075
4760,-0.035,0.070
4761,-0.035,0.065
4762,-0.035,0.065
4763,-0.045,0.075
4764,-0.050,0.065
4765,-0.050,0.060
4766,-0.055,0.065
4767,-0.050,0.065
4768,-0.050,0.065
4769,-0.055,0.060
4770,-0.050,0.060
4771,-0.040,0.065
4772,-0.040,0.060
4773,-0.040,0.055
4774,-0.045,0.060
4775,-0.055,0.055
4776,-0.050,0.050
4777,-0.050,0.050
4778,-0.050,0.065
4779,-0.040,0.065
4780,-0.035,0.050
4781,-0.035,0.050
4782,-0.050,0.040
4783,-0.055,0.035
4784,-0.055,0.025
4785,-0.065,0.025
4786,-0.070,0.020
4787,-0.070,0.020
4788,-0.085,0.020
4789,-0.090,0.010
4790,-0.070,0.010
4791,-0.060,0.030
4792,-0.065,0.050
4793,-0.075,0.060
4794,-0.080,0.065
4795,-0.070,0.075
4796,-0.055,0.075
4797,-0.055,0.070
4798,-0.055,0.065
4799,-0.060,0.055
4800,-0.100,0.030
4801,-0.055,-0.020
4802,0.215,-0.105
4803,0.645,-0.215
4804,0.960,-0.285
4805,0.845,-0.270
4806,0.325,-0.115
4807,-0.120,0.080
4808,-0.280,0.170
4809,-0.210,0.145
4810,-0.105,0.105
4811,-0.050,0.095
4812,-0.035,0.075
4813,-0.035,0.075
4814,-0.030,0.075
4815,-0.015,0.070
4816,-0.010,0.060
4817,-0.005,0.055
4818,0.000,0.050
4819,0.000,0.050
4820,0.000,0.045
4821,0.000,0.040
4822,0.000,0.035
4823,0.000,0.025
4824,0.005,0.025
4825,0.005,0.015
4826,0.010,0.005
4827,0.025,0.000
4828,0.040,0.000
4829,0.045,-0.015
4830,0.055,-0.025
4831,0.060,-0.040
4832,0.075,-0.045
4833,0.090,-0.060
4834,0.110,-0.085
4835,0.115,-0.105
4836,0.130,-0.125
4837,0.140,-0.145
4838,0.140,-0.165
4839,0.130,-0.180
4840,0.115,-0.200
4841,0.100,-0.210
4842,0.080,-0.205
4843,0.065,-0.195
4844,0.045,-0.165
4845,0.015,-0.130
4846,0.000,-0.100
4847,-0.010,-0.060
4848,-0.030,-0.025
4849,-0.050,-0.005
4850,-0.065,0.000
4851,-0.080,0.010
4852,-0.080,0.025
4853,-0.085,0.035
4854,-0.080,0.045
4855,-0.080,0.045
4856,-0.080,0.045
4857,-0.075,0.050
4858,-0.065,0.060
4859,-0.060,0.055
4860,-0.055,0.050
4861,-0.055,0.050
4862,-0.055,0.050
4863,-0.065,0.055
4864,-0.080,0.065
4865,-0.080,0.060
4866,-0.080,0.050
4867,-0.080,0.050
4868,-0.080,0.050
4869,-0.080,0.050
4870,-0.080,0.050
4871,-0.080,0.045
4872,-0.080,0.045
4873,-0.080,0.050
4874,-0.080,0.050
4875,-0.080,0.045
4876,-0.085,0.045
4877,-0.080,0.045
4878,-0.090,0.050
4879,-0.085,0.050
4880,-0.080,0.050
4881,-0.080,0.045
4882,-0.080,0.045
4883,-0.080,0.045
4884,-0.080,0.045
4885,-0.080,0.050
4886,-0.080,0.045
4887,-0.080,0.035
4888,-0.080,0.035
4889,-0.080,0.040
4890,-0.070,0.035
4891,-0.055,0.030
4892,-0.055,0.030
4893,-0.055,0.025
4894,-0.055,0.020
4895,-0.065,0.010
4896,-0.075,0.000
4897,-0.070,0.000
4898,-0.080,0.000
4899,-0.080,0.000
4900,-0.080,0.000
4901,-0.090,0.000
4902,-0.065,0.000
4903,-0.055,0.000
4904,-0.055,0.025
4905,-0.060,0.050
4906,-0.075,0.050
4907,-0.070,0.050
4908,-0.065,0.045
4909,-0.060,0.045
4910,-0.055,0.050
4911,-0.055,0.045
4912,-0.105,0.010
4913,-0.060,-0.050
4914,0.235,-0.160
4915,0.655,-0.285
4916,0.945,-0.380
4917,0.700,-0.355
4918,0.185,-0.160
4919,-0.170,0.065
4920,-0.245,0.130
4921,-0.160,0.105
4922,-0.065,0.080
4923,-0.025,0.075
4924,-0.020,0.070
4925,-0.015,0.065
4926,-0.010,0.055
4927,0.000,0.050
4928,0.000,0.050
4929,0.000,0.050
4930,0.000,0.050
4931,0.000,0.045
4932,0.000,0.035
4933,0.005,0.025
4934,0.010,0.025
4935,0.020,0.015
4936,0.025,0.000
4937,0.040,0.000
4938,0.040,0.000
4939,0.055,0.000
4940,0.060,-0.005
4941,0.065,-0.020
4942,0.080,-0.030
4943,0.085,-0.045
4944,0.100,-0.065
4945,0.105,-0.075
4946,0.125,-0.095
4947,0.140,-0.125
4948,0.140,-0.155
4949,0.140,-0.175
4950,0.140,-0.180
4951,0.140,-0.205
4952,0.120,-0.225
4953,0.110,-0.230
4954,0.090,-0.230
4955,0.060,-0.210
4956,0.035,-0.180
4957,0.010,-0.150
4958,0.000,-0.110
4959,-0.015,-0.070
4960,-0.040,-0.035
4961,-0.050,-0.015
4962,-0.060,0.000
4963,-0.075,0.010
4964,-0.080,0.020
4965,-0.080,0.025
4966,-0.080,0.035
4967,-0.080,0.045
4968,-0.065,0.050
4969,-0.055,0.050
4970,-0.055,0.050
4971,-0.055,0.050
4972,-0.055,0.055
4973,-0.055,0.050
4974,-0.055,0.055
4975,-0.055,0.055
4976,-0.055,0.055
4977,-0.055,0.065
4978,-0.055,0.060
4979,-0.055,0.050
4980,-0.055,0.050
4981,-0.065,0.050
4982,-0.065,0.050
4983,-0.070,0.050
4984,-0.080,0.050
4985,-0.080,0.050
4986,-0.075,0.050
4987,-0.070,0.050
4988,-0.080,0.050
4989,-0.075,0.045
4990,-0.055,0.045
4991,-0.055,0.050
4992,-0.055,0.050
4993,-0.055,0.050
4994,-0.055,0.050
4995,-0.055,0.050
4996,-0.055,0.050
4997,-0.055,0.050
4998,-0.055,0.045
4999,-0.055,0.035
5000,-0.055,0.035
5001,-0.055,0.045
5002,-0.050,0.045
5003,-0.040,0.030
5004,-0.035,0.025
5005,-0.035,0.025
5006,-0.035,0.025
5007,-0.045,0.025
5008,-0.055,0.005
5009,-0.055,0.000
5010,-0.060,0.000
5011,-0.060,0.000
5012,-0.055,0.000
5013,-0.070,0.000
5014,-0.070,0.000
5015,-0.055,0.000
5016,-0.055,0.015
5017,-0.055,0.040
5018,-0.055,0.050
5019,-0.055,0.050
5020,-0.055,0.050
5021,-0.055,0.050
5022,-0.055,0.050
5023,-0.050,0.045
5024,-0.065,0.030
5025,-0.095,-0.015
5026,0.025,-0.095
5027,0.380,-0.230
5028,0.755,-0.355
5029,0.920,-0.405
5030,0.500,-0.275
5031,-0.010,-0.030
5032,-0.245,0.160
5033,-0.220,0.145
5034,-0.095,0.100
5035,-0.025,0.080
5036,-0.015,0.075
5037,0.000,0.060
5038,0.000,0.060
5039,0.000,0.050
5040,0.000,0.050
5041,0.000,0.050
5042,0.000,0.050
5043,0.000,0.040
5044,0.015,0.040
5045,0.020,0.025
5046,0.020,0.025
5047,0.025,0.010
5048,0.035,0.000
5049,0.045,0.000
5050,0.055,0.000
5051,0.060,0.000
5052,0.060,-0.010
5053,0.065,-0.025
5054,0.080,-0.035
5055,0.090,-0.050
5056,0.095,-0.070
5057,0.110,-0.085
5058,0.125,-0.105
5059,0.140,-0.130
5060,0.140,-0.155
5061,0.140,-0.180
5062,0.140,-0.205
5063,0.130,-0.220
5064,0.120,-0.235
5065,0.115,-0.245
5066,0.100,-0.255
5067,0.080,-0.240
5068,0.050,-0.215
5069,0.030,-0.180
5070,0.005,-0.140
5071,0.000,-0.100
5072,-0.025,-0.055
5073,-0.035,-0.025
5074,-0.055,0.000
5075,-0.055,0.000
5076,-0.055,0.015
5077,-0.055,0.030
5078,-0.055,0.040
5079,-0.055,0.045
5080,-0.060,0.050
5081,-0.050,0.050
5082,-0.050,0.060
5083,-0.050,0.065
5084,-0.055,0.070
5085,-0.055,0.065
5086,-0.050,0.070
5087,-0.050,0.075
5088,-0.055,0.075
5089,-0.055,0.070
5090,-0.055,0.070
5091,-0.050,0.065
5092,-0.050,0.060
5093,-0.055,0.060
5094,-0.055,0.065
5095,-0.055,0.065
5096,-0.055,0.055
5097,-0.045,0.055
5098,-0.050,0.060
5099,-0.055,0.060
5100,-0.055,0.055
5101,-0.055,0.050
5102,-0.045,0.050
5103,-0.040,0.050
5104,-0.045,0.050
5105,-0.055,0.050
5106,-0.055,0.055
5107,-0.055,0.055
5108,-0.055,0.055
5109,-0.050,0.055
5110,-0.045,0.055
5111,-0.040,0.050
5112,-0.035,0.050
5113,-0.035,0.050
5114,-0.035,0.050
5115,-0.030,0.050
5116,-0.020,0.050
5117,-0.030,0.050
5118,-0.005,0.040
5119,-0.005,0.025
5120,-0.025,0.025
5121,-0.030,0.015
5122,-0.045,0.005
5123,-0.050,0.005
5124,-0.035,0.000
5125,-0.035,0.000
5126,-0.055,0.000
5127,-0.060,0.000
5128,-0.040,0.010
5129,-0.035,0.030
5130,-0.050,0.045
5131,-0.045,0.050
5132,-0.035,0.055
5133,-0.040,0.060
5134,-0.030,0.055
5135,-0.030,0.055
5136,-0.025,0.055
5137,-0.040,0.040
5138,-0.080,0.000
5139,0.000,-0.070
5140,0.315,-0.180
5141,0.710,-0.285
5142,0.935,-0.330
5143,0.720,-0.240
5144,0.215,-0.030
5145,-0.140,0.145
5146,-0.240,0.185
5147,-0.155,0.130
5148,-0.045,0.095
5149,0.000,0.085
5150,0.000,0.070
5151,0.000,0.070
5152,0.005,0.065
5153,0.000,0.050
5154,0.005,0.050
5155,0.025,0.045
5156,0.030,0.045
5157,0.025,0.040
5158,0.005,0.030
5159,0.035,0.025
5160,0.040,0.020
5161,0.040,0.015
5162,0.040,0.000
5163,0.040,0.000
5164,0.045,0.000
5165,0.065,0.000
5166,0.075,-0.010
5167,0.080,-0.015
5168,0.080,-0.035
5169,0.100,-0.050
5170,0.115,-0.065
5171,0.135,-0.085
5172,0.155,-0.105
5173,0.160,-0.135
5174,0.160,-0.155
5175,0.160,-0.170
5176,0.170,-0.190
5177,0.165,-0.210
5178,0.155,-0.225
5179,0.145,-0.230
5180,0.130,-0.225
5181,0.105,-0.205
5182,0.075,-0.170
5183,0.045,-0.130
5184,0.020,-0.085
5185,0.000,-0.045
5186,0.000,-0.020
5187,-0.015,0.000
5188,-0.030,0.015
5189,-0.040,0.030
5190,-0.055,0.040
5191,-0.055,0.050
5192,-0.045,0.050
5193,-0.035,0.065
5194,-0.035,0.070
5195,-0.030,0.065
5196,-0.020,0.070
5197,-0.015,0.070
5198,-0.035,0.070
5199,-0.035,0.070
5200,-0.035,0.070
5201,-0.035,0.065
5202,-0.035,0.065
5203,-0.035,0.060
5204,-0.035,0.060
5205,-0.040,0.060
5206,-0.045,0.060
5207,-0.050,0.060
5208,-0.050,0.055
5209,-0.050,0.050
5210,-0.055,0.050
5211,-0.055,0.060
5212,-0.055,0.060
5213,-0.035,0.060
5214,-0.035,0.050
5215,-0.050,0.050
5216,-0.055,0.050
5217,-0.055,0.050
5218,-0.055,0.050
5219,-0.055,0.055
5220,-0.055,0.060
5221,-0.055,0.055
5222,-0.055,0.050
5223,-0.055,0.050
5224,-0.055,0.050
5225,-0.055,0.050
5226,-0.055,0.050
5227,-0.055,0.050
5228,-0.055,0.050
5229,-0.055,0.050
5230,-0.050,0.045
5231,-0.045,0.035
5232,-0.045,0.025
5233,-0.055,0.015
5234,-0.065,0.010
5235,-0.075,0.005
5236,-0.065,0.000
5237,-0.060,0.000
5238,-0.065,0.000
5239,-0.080,0.000
5240,-0.055,0.000
5241,-0.050,0.015
5242,-0.050,0.040
5243,-0.055,0.055
5244,-0.055,0.055
5245,-0.055,0.050
5246,-0.055,0.050
5247,-0.055,0.050
5248,-0.055,0.050
5249,-0.040,0.050
5250,-0.095,0.010
5251,-0.070,-0.030
5252,0.230,-0.130
5253,0.650,-0.245
5254,1.000,-0.345
5255,0.815,-0.325
5256,0.270,-0.145
5257,-0.135,0.075
5258,-0.260,0.150
5259,-0.180,0.125
5260,-0.085,0.085
5261,-0.040,0.075
5262,-0.035,0.065
5263,-0.030,0.060
5264,-0.020,0.050
5265,-0.010,0.050
5266,0.000,0.050
5267,0.000,0.040
5268,0.000,0.040
5269,0.000,0.035
5270,0.000,0.030
5271,0.000,0.025
5272,0.000,0.015
5273,0.010,0.005
5274,0.020,0.000
5275,0.025,0.000
5276,0.040,0.000
5277,0.040,0.000
5278,0.045,-0.010
5279,0.060,-0.025
5280,0.070,-0.045
5281,0.080,-0.050
5282,0.085,-0.065
5283,0.105,-0.080
5284,0.120,-0.100
5285,0.140,-0.130
5286,0.140,-0.155
5287,0.140,-0.170
5288,0.140,-0.190
5289,0.140,-0.200
5290,0.135,-0.220
5291,0.120,-0.230
5292,0.090,-0.230
5293,0.075,-0.215
5294,0.040,-0.185
5295,0.010,-0.150
5296,0.000,-0.115
5297,-0.020,-0.075
5298,-0.040,-0.035
5299,-0.060,-0.010
5300,-0.075,0.000
5301,-0.080,0.010
5302,-0.080,0.015
5303,-0.085,0.030
5304,-0.090,0.035
5305,-0.085,0.030
5306,-0.080,0.035
5307,-0.080,0.045
5308,-0.070,0.045
5309,-0.060,0.045
5310,-0.055,0.055
5311,-0.055,0.055
5312,-0.115,0.015
5313,-0.255,-0.085
5314,-0.400,-0.275
5315,-0.460,-0.520
5316,-0.405,-0.685
5317,-0.305,-0.715
5318,-0.270,-0.730
5319,-0.310,-0.775
5320,-0.380,-0.790
5321,-0.490,-0.725
5322,-0.535,-0.580
5323,-0.460,-0.430
5324,-0.425,-0.300
5325,-0.380,-0.180
5326,-0.245,-0.085
5327,-0.095,0.020
5328,0.000,0.125
5329,0.035,0.220
5330,0.080,0.275
5331,0.105,0.300
5332,0.125,0.320
5333,0.140,0.315
5334,0.150,0.315
5335,0.155,0.315
5336,0.190,0.315
5337,0.205,0.315
5338,0.215,0.320
5339,0.240,0.325
5340,0.270,0.335
5341,0.295,0.325
5342,0.310,0.340
5343,0.340,0.335
5344,0.370,0.325
5345,0.400,0.325
5346,0.415,0.315
5347,0.430,0.300
5348,0.465,0.280
5349,0.495,0.265
5350,0.515,0.245
5351,0.535,0.220
5352,0.550,0.195
5353,0.550,0.180
5354,0.535,0.175
5355,0.510,0.175
5356,0.475,0.115
5357,0.425,0.025
5358,0.350,0.000
5359,0.270,-0.005
5360,0.200,-0.020
5361,0.120,-0.020
5362,0.050,-0.015
5363,0.000,0.000
5364,-0.045,0.000
5365,-0.090,0.005
5366,-0.125,0.005
5367,-0.140,0.020
5368,-0.145,0.025
5369,-0.170,0.030
5370,-0.175,0.040
5371,-0.180,0.035
5372,-0.180,0.030
5373,-0.205,-0.005
5374,-0.215,-0.100
5375,0.105,-0.235
5376,0.545,-0.415
5377,0.650,-0.595
5378,0.315,-0.460
5379,-0.080,-0.105
5380,-0.240,0.070
5381,-0.215,0.090
5382,-0.165,0.075
5383,-0.160,0.075
5384,-0.175,0.075
5385,-0.180,0.075
5386,-0.180,0.065
5387,-0.180,0.070
5388,-0.170,0.055
5389,-0.160,0.050
5390,-0.160,0.050
5391,-0.155,0.050
5392,-0.145,0.045
5393,-0.140,0.030
5394,-0.140,0.025
5395,-0.125,0.025
5396,-0.120,0.020
5397,-0.120,0.010
5398,-0.120,0.000
5399,-0.120,0.000
5400,-0.120,-0.005
5401,-0.120,-0.020
5402,-0.130,-0.030
5403,-0.140,-0.050
5404,-0.150,-0.065
5405,-0.165,-0.080
5406,-0.180,-0.105
5407,-0.190,-0.130
5408,-0.200,-0.145
5409,-0.200,-0.165
5410,-0.195,-0.180
5411,-0.180,-0.185
5412,-0.160,-0.185
5413,-0.135,-0.180
5414,-0.110,-0.145
5415,-0.095,-0.110
5416,-0.090,-0.080
5417,-0.075,-0.040
5418,-0.070,-0.005
5419,-0.075,0.000
5420,-0.080,0.010
5421,-0.055,0.025
5422,-0.065,0.035
5423,-0.070,0.040
5424,-0.075,0.045
5425,-0.060,0.045
5426,-0.065,0.045
5427,-0.070,0.050
5428,-0.075,0.050
5429,-0.080,0.050
5430,-0.080,0.050
5431,-0.080,0.040
5432,-0.085,0.040
5433,-0.090,0.040
5434,-0.080,0.040
5435,-0.080,0.045
5436,-0.090,0.050
5437,-0.100,0.040
5438,-0.090,0.035
5439,-0.095,0.035
5440,-0.100,0.040
5441,-0.100,0.040
5442,-0.095,0.030
5443,-0.095,0.030
5444,-0.090,0.045
5445,-0.085,0.050
5446,-0.090,0.045
5447,-0.085,0.040
5448,-0.090,0.040
5449,-0.080,0.035
5450,-0.085,0.035
5451,-0.080,0.030
5452,-0.080,0.035
5453,-0.080,0.045
5454,-0.080,0.035
5455,-0.075,0.030
5456,-0.070,0.035
5457,-0.065,0.025
5458,-0.055,0.025
5459,-0.055,0.040
5460,-0.055,0.030
5461,-0.055,0.020
5462,-0.055,0.020
5463,-0.055,0.015
5464,-0.065,0.000
5465,-0.090,0.000
5466,-0.080,0.000
5467,-0.060,0.000
5468,-0.060,0.000
5469,-0.090,0.000
5470,-0.080,0.000
5471,-0.060,0.000
5472,-0.055,0.020
5473,-0.065,0.040
5474,-0.075,0.050
5475,-0.080,0.050
5476,-0.060,0.045
5477,-0.055,0.045
5478,-0.055,0.045
5479,-0.055,0.035
5480,-0.085,0.015
5481,-0.105,-0.030
5482,0.050,-0.120
5483,0.400,-0.240
5484,0.790,-0.345
5485,0.900,-0.355
5486,0.535,-0.220
5487,0.040,0.000
5488,-0.230,0.160
5489,-0.240,0.155
5490,-0.130,0.105
5491,-0.035,0.075
5492,-0.005,0.075
5493,0.000,0.065
5494,0.000,0.055
5495,0.000,0.055
5496,0.000,0.050
5497,0.000,0.050
5498,0.000,0.045
5499,0.000,0.030
5500,0.000,0.035
5501,0.000,0.025
5502,0.000,0.020
5503,0.000,0.000
5504,0.015,0.000
5505,0.015,0.000
5506,0.030,0.000
5507,0.035,0.000
5508,0.040,-0.005
5509,0.040,-0.025
5510,0.050,-0.030
5511,0.055,-0.040
5512,0.060,-0.050
5513,0.065,-0.065
5514,0.085,-0.080
5515,0.095,-0.095
5516,0.090,-0.125
5517,0.075,-0.135
5518,0.060,-0.150
5519,0.070,-0.165
5520,0.080,-0.180
5521,0.070,-0.195
5522,0.065,-0.200
5523,0.075,-0.205
5524,0.070,-0.200
5525,0.060,-0.180
5526,0.055,-0.150
5527,0.035,-0.115
5528,0.010,-0.080
5529,0.005,-0.050
5530,0.005,-0.015
5531,0.000,0.000
5532,-0.005,0.005
5533,0.000,0.020
5534,-0.010,0.025
5535,-0.010,0.030
5536,-0.010,0.020
5537,-0.005,0.005
5538,-0.015,0.010
5539,-0.015,0.040
5540,-0.010,0.060
5541,0.000,0.060
5542,-0.015,0.065
5543,-0.040,0.075
5544,-0.050,0.075
5545,-0.055,0.075
5546,-0.060,0.075
5547,-0.055,0.075
5548,-0.055,0.075
5549,-0.055,0.080
5550,-0.075,0.075
5551,-0.105,0.055
5552,-0.175,0.005
5553,0.030,-0.085
5554,0.430,-0.195
5555,0.865,-0.280
5556,0.915,-0.260
5557,0.470,-0.120
5558,-0.005,0.105
5559,-0.215,0.205
5560,-0.205,0.180
5561,-0.125,0.135
5562,-0.065,0.110
5563,-0.040,0.095
5564,-0.035,0.090
5565,-0.020,0.080
5566,-0.010,0.080
5567,-0.005,0.070
5568,0.000,0.070
5569,0.000,0.070
5570,0.000,0.055
5571,0.000,0.050
5572,0.000,0.050
5573,0.000,0.045
5574,0.000,0.035
5575,0.020,0.020
5576,0.040,0.015
5577,0.045,0.010
5578,0.060,0.000
5579,0.065,0.000
5580,0.090,-0.005
5581,0.090,-0.020
5582,0.095,-0.030
5583,0.125,-0.050
5584,0.120,-0.080
5585,0.110,-0.095
5586,0.100,-0.100
5587,0.090,-0.130
5588,0.080,-0.150
5589,0.065,-0.150
5590,0.065,-0.150
5591,0.045,-0.145
5592,0.030,-0.135
5593,0.025,-0.105
5594,0.010,-0.070
5595,0.000,-0.035
5596,0.000,-0.005
5597,0.000,0.000
5598,-0.010,0.020
5599,-0.010,0.040
5600,-0.010,0.050
5601,-0.015,0.065
5602,-0.035,0.070
5603,-0.050,0.070
5604,-0.055,0.070
5605,-0.055,0.065
5606,-0.040,0.070
5607,-0.035,0.065
5608,-0.035,0.065
5609,-0.035,0.060
5610,-0.035,0.060
5611,-0.035,0.065
5612,-0.035,0.065
5613,-0.035,0.055
5614,-0.035,0.055
5615,-0.045,0.055
5616,-0.055,0.055
5617,-0.045,0.055
5618,-0.040,0.050
5619,-0.055,0.055
5620,-0.055,0.055
5621,-0.055,0.055
5622,-0.050,0.060
5623,-0.035,0.055
5624,-0.035,0.050
5625,-0.055,0.050
5626,-0.055,0.050
5627,-0.050,0.055
5628,-0.050,0.060
5629,-0.055,0.055
5630,-0.055,0.055
5631,-0.050,0.050
5632,-0.050,0.050
5633,-0.050,0.050
5634,-0.035,0.050
5635,-0.045,0.050
5636,-0.050,0.050
5637,-0.035,0.050
5638,-0.035,0.050
5639,-0.035,0.050
5640,-0.035,0.050
5641,-0.040,0.050
5642,-0.045,0.050
5643,-0.040,0.050
5644,-0.040,0.050
5645,-0.035,0.050
5646,-0.035,0.050
5647,-0.035,0.050
5648,-0.035,0.050
5649,-0.035,0.045
5650,-0.035,0.045
5651,-0.030,0.040
5652,-0.030,0.040
5653,-0.035,0.045
5654,-0.035,0.045
5655,-0.035,0.045
5656,-0.035,0.040
5657,-0.035,0.035
5658,-0.035,0.040
5659,-0.035,0.045
5660,-0.035,0.040
5661,-0.035,0.035
5662,-0.035,0.035
5663,-0.035,0.035
5664,-0.035,0.035
5665,-0.030,0.035
5666,-0.025,0.035
5667,-0.030,0.035
5668,-0.035,0.035
5669,-0.030,0.030
5670,-0.025,0.030
5671,-0.010,0.030
5672,-0.010,0.040
5673,-0.010,0.035
5674,-0.010,0.025
5675,0.000,0.025
5676,-0.005,0.015
5677,-0.010,0.015
5678,-0.025,0.000
5679,-0.035,0.000
5680,-0.050,0.000
5681,-0.035,0.000
5682,-0.040,0.000
5683,-0.050,0.000
5684,-0.035,0.000
5685,-0.025,0.000
5686,-0.025,0.030
5687,-0.030,0.045
5688,-0.035,0.050
5689,-0.035,0.050
5690,-0.035,0.050
5691,-0.025,0.050
5692,-0.020,0.050
5693,-0.030,0.040
5694,-0.060,0.015
5695,0.000,-0.020
5696,0.300,-0.095
5697,0.740,-0.195
5698,1.030,-0.295
5699,0.875,-0.320
5700,0.360,-0.200
5701,-0.065,0.000
5702,-0.200,0.095
5703,-0.125,0.090
5704,-0.035,0.075
5705,-0.015,0.070
5706,-0.015,0.065
5707,-0.015,0.065
5708,-0.010,0.060
5709,0.000,0.055
5710,0.000,0.050
5711,0.000,0.050
5712,0.000,0.050
5713,0.000,0.045
5714,0.000,0.040
5715,0.020,0.040
5716,0.020,0.035
5717,0.020,0.020
5718,0.025,0.020
5719,0.025,0.015
5720,0.035,0.000
5721,0.040,0.000
5722,0.035,-0.020
5723,0.005,0.000
5724,0.020,-0.030
5725,0.045,-0.035
5726,0.070,-0.040
5727,0.080,-0.055
5728,0.095,-0.065
5729,0.105,-0.075
5730,0.130,-0.090
5731,0.140,-0.105
5732,0.140,-0.120
5733,0.140,-0.145
5734,0.130,-0.170
5735,0.115,-0.180
5736,0.100,-0.180
5737,0.090,-0.185
5738,0.070,-0.175
5739,0.050,-0.160
5740,0.030,-0.135
5741,0.010,-0.105
5742,0.000,-0.080
5743,0.000,-0.060
5744,-0.010,-0.040
5745,-0.025,-0.015
5746,-0.040,-0.005
5747,-0.045,0.000
5748,-0.055,0.005
5749,-0.055,0.015
5750,-0.055,0.015
5751,-0.055,0.025
5752,-0.055,0.025
5753,-0.055,0.030
5754,-0.055,0.045
5755,-0.050,0.045
5756,-0.050,0.040
5757,-0.055,0.035
5758,-0.055,0.040
5759,-0.080,0.045
5760,-0.080,0.025
5761,-0.080,0.035
5762,-0.070,0.045
5763,-0.070,0.050
5764,-0.075,0.025
5765,-0.090,0.035
5766,-0.095,0.040
5767,-0.100,0.040
5768,-0.100,0.030
5769,-0.100,0.030
5770,-0.100,0.040
5771,-0.100,0.040
5772,-0.095,0.030
5773,-0.080,0.030
5774,-0.090,0.025
5775,-0.085,0.025
5776,-0.080,0.030
5777,-0.080,0.030
5778,-0.080,0.020
5779,-0.080,0.020
5780,-0.080,0.025
5781,-0.070,0.030
5782,-0.070,0.040
5783,-0.080,0.030
5784,-0.080,0.025
5785,-0.070,0.025
5786,-0.065,0.025
5787,-0.060,0.025
5788,-0.055,0.025
5789,-0.055,0.025
5790,-0.055,0.015
5791,-0.055,0.000
5792,-0.055,0.000
5793,-0.070,-0.005
5794,-0.090,-0.015
5795,-0.105,0.000
5796,-0.100,0.000
5797,-0.100,-0.005
5798,-0.100,-0.010
5799,-0.095,-0.005
5800,-0.075,0.000
5801,-0.070,0.000
5802,-0.080,0.030
5803,-0.080,0.035
5804,-0.090,0.030
5805,-0.080,0.035
5806,-0.065,0.035
5807,-0.055,0.040
5808,-0.055,0.040
5809,-0.075,0.015
5810,-0.130,-0.025
5811,0.030,-0.100
5812,0.405,-0.225
5813,0.820,-0.350
5814,0.885,-0.395
5815,0.480,-0.265
5816,0.000,-0.030
5817,-0.235,0.120
5818,-0.220,0.125
5819,-0.110,0.085
5820,-0.045,0.065
5821,-0.025,0.055
5822,-0.015,0.050
5823,-0.010,0.040
5824,-0.005,0.040
5825,0.000,0.040
5826,0.000,0.035
5827,0.000,0.030
5828,0.000,0.025
5829,0.000,0.020
5830,0.005,0.010
5831,0.020,0.000
5832,0.020,0.000
5833,0.025,0.000
5834,0.025,0.000
5835,0.040,-0.005
5836,0.045,-0.015
5837,0.055,-0.020
5838,0.060,-0.020
5839,0.060,-0.035
5840,0.070,-0.060
5841,0.085,-0.070
5842,0.095,-0.095
5843,0.110,-0.120
5844,0.120,-0.145
5845,0.120,-0.155
5846,0.120,-0.175
5847,0.115,-0.180
5848,0.100,-0.195
5849,0.100,-0.210
5850,0.090,-0.235
5851,0.065,-0.240
5852,0.050,-0.220
5853,0.030,-0.220
5854,0.010,-0.180
5855,0.000,-0.135
5856,0.000,-0.100
5857,-0.020,-0.060
5858,-0.045,-0.030
5859,-0.055,-0.010
5860,-0.055,0.000
5861,-0.060,0.005
5862,-0.060,0.015
5863,-0.060,0.030
5864,-0.055,0.040
5865,-0.055,0.035
5866,-0.055,0.040
5867,-0.055,0.040
5868,-0.055,0.035
5869,-0.055,0.045
5870,-0.055,0.055
5871,-0.050,0.060
5872,-0.050,0.050
5873,-0.055,0.050
5874,-0.055,0.045
5875,-0.055,0.040
5876,-0.060,0.045
5877,-0.065,0.045
5878,-0.065,0.050
5879,-0.060,0.050
5880,-0.060,0.050
5881,-0.065,0.050
5882,-0.065,0.050
5883,-0.065,0.045
5884,-0.070,0.030
5885,-0.075,0.040
5886,-0.070,0.040
5887,-0.065,0.050
5888,-0.055,0.050
5889,-0.055,0.040
5890,-0.055,0.030
5891,-0.060,0.040
5892,-0.060,0.045
5893,-0.055,0.040
5894,-0.055,0.040
5895,-0.055,0.030
5896,-0.060,0.030
5897,-0.055,0.040
5898,-0.055,0.040
5899,-0.055,0.030
5900,-0.055,0.015
5901,-0.055,0.030
5902,-0.050,0.035
5903,-0.050,0.025
5904,-0.040,0.025
5905,-0.035,0.025
5906,-0.040,0.015
5907,-0.050,0.005
5908,-0.055,0.000
5909,-0.055,0.000
5910,-0.055,0.000
5911,-0.060,-0.010
5912,-0.065,-0.015
5913,-0.070,0.000
5914,-0.060,0.000
5915,-0.055,0.000
5916,-0.055,0.015
5917,-0.060,0.045
5918,-0.055,0.045
5919,-0.055,0.050
5920,-0.055,0.045
5921,-0.055,0.035
5922,-0.055,0.045
5923,-0.055,0.035
5924,-0.085,0.005
5925,-0.095,-0.055
5926,0.165,-0.170
5927,0.565,-0.300
5928,0.910,-0.405
5929,0.785,-0.375
5930,0.230,-0.170
5931,-0.160,0.105
5932,-0.265,0.170
5933,-0.175,0.115
5934,-0.065,0.090
5935,-0.025,0.055
5936,-0.015,0.055
5937,-0.010,0.050
5938,-0.010,0.040
5939,0.000,0.040
5940,0.000,0.040
5941,0.000,0.030
5942,0.000,0.030
5943,0.000,0.025
5944,0.000,0.020
5945,0.000,0.010
5946,0.010,0.000
5947,0.025,0.000
5948,0.035,0.000
5949,0.040,-0.005
5950,0.050,-0.015
5951,0.060,-0.025
5952,0.065,-0.035
5953,0.075,-0.050
5954,0.080,-0.065
5955,0.085,-0.085
5956,0.100,-0.095
5957,0.105,-0.110
5958,0.110,-0.135
5959,0.125,-0.165
5960,0.135,-0.190
5961,0.135,-0.205
5962,0.125,-0.225
5963,0.115,-0.250
5964,0.110,-0.275
5965,0.095,-0.270
5966,0.075,-0.270
5967,0.055,-0.260
5968,0.040,-0.230
5969,0.015,-0.195
5970,0.000,-0.150
5971,-0.005,-0.100
5972,-0.035,-0.055
5973,-0.045,-0.040
5974,-0.035,-0.010
5975,-0.035,0.000
5976,-0.040,0.000
5977,-0.055,0.015
5978,-0.055,0.025
5979,-0.055,0.030
5980,-0.055,0.040
5981,-0.055,0.045
5982,-0.050,0.050
5983,-0.050,0.055
5984,-0.035,0.050
5985,-0.035,0.050
5986,-0.035,0.050
5987,-0.040,0.050
5988,-0.035,0.050
5989,-0.045,0.050
5990,-0.045,0.050
5991,-0.030,0.050
5992,-0.030,0.050
5993,-0.045,0.045
5994,-0.055,0.045
5995,-0.055,0.050
5996,-0.055,0.050
5997,-0.055,0.050
5998,-0.050,0.050
5999,-0.050,0.050
6000,-0.055,0.050
6001,-0.050,0.050
6002,-0.045,0.050
6003,-0.040,0.050
6004,-0.055,0.050
6005,-0.055,0.050
6006,-0.050,0.050
6007,-0.040,0.045
6008,-0.035,0.040
6009,-0.045,0.035
6010,-0.030,0.030
6011,-0.025,0.040
6012,-0.015,0.050
6013,-0.030,0.045
6014,-0.015,0.040
6015,0.000,0.035
6016,0.000,0.030
6017,0.000,0.025
6018,-0.015,0.025
6019,-0.040,0.000
6020,-0.050,0.000
6021,-0.040,0.000
6022,-0.035,0.000
6023,-0.040,0.000
6024,-0.045,0.000
6025,-0.030,0.000
6026,-0.010,0.020
6027,-0.020,0.040
6028,-0.025,0.050
6029,-0.025,0.050
6030,-0.030,0.055
6031,-0.025,0.050
6032,-0.005,0.050
6033,-0.010,0.050
6034,-0.025,0.045
6035,-0.055,0.010
6036,-0.005,-0.045
6037,0.265,-0.145
6038,0.670,-0.250
6039,0.965,-0.305
6040,0.845,-0.240
6041,0.335,-0.045
6042,-0.085,0.130
6043,-0.220,0.190
6044,-0.160,0.140
6045,-0.060,0.095
6046,0.000,0.075
6047,0.000,0.070
6048,0.000,0.060
6049,0.005,0.055
6050,0.025,0.050
6051,0.025,0.050
6052,0.035,0.045
6053,0.035,0.040
6054,0.030,0.025
6055,0.040,0.030
6056,0.050,0.025
6057,0.060,0.010
6058,0.060,0.000
6059,0.060,0.000
6060,0.060,0.000
6061,0.075,0.000
6062,0.080,-0.005
6063,0.095,-0.015
6064,0.100,-0.020
6065,0.120,-0.040
6066,0.125,-0.050
6067,0.140,-0.075
6068,0.160,-0.090
6069,0.180,-0.110
6070,0.185,-0.130
6071,0.185,-0.150
6072,0.185,-0.165
6073,0.185,-0.175
6074,0.175,-0.200
6075,0.160,-0.210
6076,0.145,-0.215
6077,0.130,-0.205
6078,0.110,-0.190
6079,0.085,-0.165
6080,0.060,-0.130
6081,0.040,-0.085
6082,0.015,-0.045
6083,0.005,-0.015
6084,0.000,0.000
6085,-0.005,0.010
6086,-0.015,0.030
6087,-0.015,0.040
6088,-0.015,0.040
6089,-0.015,0.050
6090,-0.015,0.050
6091,-0.025,0.050
6092,-0.015,0.055
6093,-0.015,0.055
6094,-0.015,0.050
6095,-0.020,0.055
6096,-0.030,0.050
6097,-0.020,0.050
6098,-0.030,0.050
6099,-0.035,0.055
6100,-0.035,0.050
6101,-0.050,0.050
6102,-0.050,0.050
6103,-0.045,0.050
6104,-0.045,0.050
6105,-0.050,0.050
6106,-0.055,0.050
6107,-0.055,0.055
6108,-0.055,0.050
6109,-0.055,0.050
6110,-0.055,0.050
6111,-0.055,0.050
6112,-0.055,0.050
6113,-0.055,0.050
6114,-0.055,0.050
6115,-0.055,0.055
6116,-0.055,0.050
6117,-0.055,0.050
6118,-0.055,0.050
6119,-0.055,0.050
6120,-0.055,0.050
6121,-0.055,0.050
6122,-0.055,0.050
6123,-0.055,0.050
6124,-0.050,0.050
6125,-0.050,0.050
6126,-0.045,0.050
6127,-0.035,0.045
6128,-0.040,0.030
6129,-0.050,0.025
6130,-0.065,0.015
6131,-0.080,0.005
6132,-0.080,0.005
6133,-0.080,0.000
6134,-0.080,0.000
6135,-0.080,0.000
6136,-0.075,0.000
6137,-0.055,0.015
6138,-0.055,0.030
6139,-0.055,0.050
6140,-0.075,0.050
6141,-0.070,0.050
6142,-0.065,0.050
6143,-0.055,0.050
6144,-0.055,0.050
6145,-0.055,0.045
6146,-0.065,0.040
6147,-0.130,0.000
6148,0.040,-0.075
6149,0.435,-0.185
6150,0.875,-0.290
6151,1.000,-0.350
6152,0.580,-0.265
6153,0.050,-0.050
6154,-0.225,0.115
6155,-0.235,0.135
6156,-0.130,0.095
6157,-0.055,0.070
6158,-0.030,0.055
6159,-0.020,0.055
6160,-0.015,0.055
6161,-0.015,0.050
6162,-0.005,0.040
6163,0.000,0.035
6164,0.000,0.030
6165,0.000,0.035
6166,0.000,0.030
6167,0.000,0.020
6168,0.000,0.015
6169,0.000,0.010
6170,0.010,0.000
6171,0.020,0.000
6172,0.030,0.000
6173,0.040,0.000
6174,0.045,-0.015
6175,0.060,-0.020
6176,0.060,-0.030
6177,0.060,-0.045
6178,0.080,-0.060
6179,0.095,-0.075
6180,0.105,-0.100
6181,0.120,-0.125
6182,0.135,-0.145
6183,0.140,-0.160
6184,0.135,-0.175
6185,0.125,-0.200
6186,0.110,-0.210
6187,0.110,-0.220
6188,0.095,-0.230
6189,0.075,-0.230
6190,0.055,-0.210
6191,0.025,-0.185
6192,0.000,-0.155
6193,0.000,-0.125
6194,-0.010,-0.080
6195,-0.035,-0.050
6196,-0.050,-0.025
6197,-0.055,0.000
6198,-0.055,0.000
6199,-0.055,0.010
6200,-0.065,0.020
6201,-0.065,0.025
6202,-0.065,0.030
6203,-0.055,0.040
6204,-0.055,0.050
6205,-0.055,0.050
6206,-0.055,0.050
6207,-0.055,0.050
6208,-0.055,0.050
6209,-0.055,0.050
6210,-0.055,0.045
6211,-0.055,0.040
6212,-0.055,0.040
6213,-0.055,0.040
6214,-0.055,0.040
6215,-0.055,0.040
6216,-0.055,0.045
6217,-0.055,0.040
6218,-0.060,0.035
6219,-0.060,0.035
6220,-0.065,0.035
6221,-0.055,0.035
6222,-0.055,0.040
6223,-0.055,0.035
6224,-0.055,0.030
6225,-0.055,0.035
6226,-0.055,0.030
6227,-0.055,0.025
6228,-0.055,0.030
6229,-0.055,0.040
6230,-0.055,0.040
6231,-0.055,0.035
6232,-0.055,0.025
6233,-0.055,0.025
6234,-0.055,0.030
6235,-0.055,0.030
6236,-0.055,0.030
6237,-0.050,0.030
6238,-0.035,0.025
6239,-0.040,0.015
6240,-0.050,0.010
6241,-0.055,0.000
6242,-0.065,0.000
6243,-0.075,0.000
6244,-0.070,0.000
6245,-0.055,-0.005
6246,-0.060,-0.005
6247,-0.075,-0.010
6248,-0.065,-0.005
6249,-0.055,0.000
6250,-0.055,0.025
6251,-0.065,0.040
6252,-0.080,0.050
6253,-0.075,0.045
6254,-0.065,0.045
6255,-0.055,0.040
6256,-0.055,0.035
6257,-0.060,0.030
6258,-0.095,0.000
6259,-0.060,-0.055
6260,0.220,-0.160
6261,0.630,-0.295
6262,0.920,-0.385
6263,0.750,-0.365
6264,0.215,-0.170
6265,-0.165,0.070
6266,-0.260,0.145
6267,-0.165,0.110
6268,-0.055,0.070
6269,-0.025,0.055
6270,-0.010,0.050
6271,-0.005,0.050
6272,0.000,0.050
6273,0.000,0.050
6274,0.000,0.040
6275,0.000,0.030
6276,0.000,0.030
6277,0.000,0.025
6278,0.000,0.020
6279,0.005,0.020
6280,0.015,0.015
6281,0.025,0.000
6282,0.035,0.000
6283,0.040,0.000
6284,0.050,-0.005
6285,0.060,-0.015
6286,0.060,-0.030
6287,0.065,-0.040
6288,0.075,-0.050
6289,0.090,-0.065
6290,0.100,-0.080
6291,0.110,-0.095
6292,0.120,-0.120
6293,0.130,-0.145
6294,0.140,-0.170
6295,0.140,-0.185
6296,0.130,-0.200
6297,0.120,-0.220
6298,0.110,-0.235
6299,0.100,-0.245
6300,0.080,-0.245
6301,0.060,-0.235
6302,0.045,-0.210
6303,0.015,-0.175
6304,0.000,-0.135
6305,-0.005,-0.095
6306,-0.020,-0.070
6307,-0.035,-0.030
6308,-0.055,-0.005
6309,-0.060,0.000
6310,-0.080,0.010
6311,-0.080,0.020
6312,-0.080,0.030
6313,-0.080,0.040
6314,-0.080,0.040
6315,-0.080,0.040
6316,-0.080,0.045
6317,-0.080,0.050
6318,-0.065,0.050
6319,-0.065,0.050
6320,-0.065,0.050
6321,-0.075,0.050
6322,-0.080,0.050
6323,-0.080,0.050
6324,-0.080,0.050
6325,-0.080,0.050
6326,-0.080,0.050
6327,-0.080,0.050
6328,-0.085,0.050
6329,-0.080,0.050
6330,-0.080,0.045
6331,-0.080,0.045
6332,-0.080,0.040
6333,-0.080,0.040
6334,-0.080,0.040
6335,-0.080,0.045
6336,-0.080,0.045
6337,-0.080,0.035
6338,-0.080,0.035
6339,-0.080,0.035
6340,-0.080,0.035
6341,-0.075,0.030
6342,-0.070,0.035
6343,-0.080,0.035
6344,-0.080,0.030
6345,-0.080,0.030
6346,-0.070,0.030
6347,-0.055,0.025
6348,-0.055,0.025
6349,-0.055,0.025
6350,-0.050,0.025
6351,-0.050,0.020
6352,-0.050,0.010
6353,-0.065,0.000
6354,-0.065,0.000
6355,-0.070,0.000
6356,-0.080,0.000
6357,-0.080,-0.005
6358,-0.080,-0.015
6359,-0.080,-0.015
6360,-0.070,-0.005
6361,-0.055,0.000
6362,-0.055,0.010
6363,-0.055,0.035
6364,-0.055,0.040
6365,-0.060,0.040
6366,-0.065,0.040
6367,-0.060,0.035
6368,-0.055,0.030
6369,-0.055,0.035
6370,-0.085,0.015
6371,-0.110,-0.030
6372,0.070,-0.130
6373,0.425,-0.260
6374,0.805,-0.375
6375,0.845,-0.380
6376,0.450,-0.220
6377,-0.015,0.010
6378,-0.230,0.155
6379,-0.210,0.150
6380,-0.105,0.095
6381,-0.030,0.060
6382,-0.005,0.055
6383,0.000,0.050
6384,0.000,0.050
6385,0.000,0.045
6386,0.000,0.045
6387,0.000,0.045
6388,0.000,0.040
6389,0.000,0.035
6390,0.005,0.025
6391,0.020,0.020
6392,0.030,0.015
6393,0.035,0.010
6394,0.040,0.000
6395,0.040,0.000
6396,0.040,0.000
6397,0.050,-0.010
6398,0.060,-0.015
6399,0.065,-0.030
6400,0.080,-0.045
6401,0.100,-0.060
6402,0.115,-0.065
6403,0.120,-0.080
6404,0.130,-0.105
6405,0.135,-0.130
6406,0.140,-0.155
6407,0.140,-0.180
6408,0.140,-0.185
6409,0.140,-0.210
6410,0.135,-0.230
6411,0.120,-0.235
6412,0.100,-0.235
6413,0.080,-0.220
6414,0.060,-0.200
6415,0.030,-0.165
6416,0.005,-0.125
6417,0.000,-0.090
6418,0.000,-0.050
6419,-0.010,-0.010
6420,-0.030,0.000
6421,-0.035,0.015
6422,-0.040,0.035
6423,-0.050,0.050
6424,-0.040,0.050
6425,-0.035,0.060
6426,-0.035,0.075
6427,-0.035,0.075
6428,-0.035,0.075
6429,-0.025,0.075
6430,-0.020,0.075
6431,-0.025,0.075
6432,-0.015,0.075
6433,-0.030,0.075
6434,-0.045,0.075
6435,-0.030,0.075
6436,-0.030,0.070
6437,-0.035,0.060
6438,-0.035,0.065
6439,-0.030,0.060
6440,-0.025,0.055
6441,-0.030,0.060
6442,-0.050,0.060
6443,-0.035,0.060
6444,-0.040,0.055
6445,-0.040,0.060
6446,-0.035,0.055
6447,-0.030,0.050
6448,-0.030,0.050
6449,-0.045,0.050
6450,-0.050,0.055
6451,-0.040,0.060
6452,-0.015,0.060
6453,-0.030,0.055
6454,-0.050,0.050
6455,-0.050,0.050
6456,-0.025,0.040
6457,-0.020,0.045
6458,-0.025,0.050
6459,-0.035,0.050
6460,-0.030,0.050
6461,-0.020,0.050
6462,-0.005,0.040
6463,0.000,0.030
6464,-0.015,0.020
6465,-0.030,0.010
6466,-0.040,0.010
6467,-0.055,0.010
6468,-0.045,0.000
6469,-0.025,0.000
6470,-0.025,0.000
6471,-0.035,0.005
6472,-0.025,0.015
6473,-0.015,0.030
6474,-0.010,0.040
6475,-0.025,0.040
6476,-0.035,0.050
6477,-0.030,0.055
6478,-0.005,0.050
6479,0.000,0.050
6480,0.000,0.045
6481,-0.025,0.020
6482,-0.075,-0.025
6483,0.120,-0.095
6484,0.535,-0.215
6485,0.955,-0.310
6486,1.065,-0.310
6487,0.545,-0.150
6488,0.015,0.065
6489,-0.225,0.180
6490,-0.195,0.150
6491,-0.100,0.105
6492,-0.010,0.075
6493,0.000,0.075
6494,0.000,0.070
6495,0.010,0.050
6496,0.015,0.050
6497,0.025,0.050
6498,0.035,0.045
6499,0.050,0.030
6500,0.055,0.030
6501,0.060,0.025
6502,0.060,0.025
6503,0.050,0.015
6504,0.050,0.015
6505,0.065,0.005
6506,0.075,0.000
6507,0.080,0.000
6508,0.080,-0.005
6509,0.085,-0.010
6510,0.100,-0.020
6511,0.110,-0.025
6512,0.125,-0.045
6513,0.135,-0.060
6514,0.145,-0.075
6515,0.160,-0.100
6516,0.160,-0.115
6517,0.160,-0.140
6518,0.160,-0.155
6519,0.160,-0.160
6520,0.155,-0.180
6521,0.150,-0.200
6522,0.135,-0.210
6523,0.115,-0.210
6524,0.100,-0.200
6525,0.070,-0.170
6526,0.050,-0.130
6527,0.020,-0.080
6528,0.000,-0.055
6529,0.000,-0.020
6530,-0.020,0.000
6531,-0.050,0.020
6532,-0.055,0.035
6533,-0.055,0.045
6534,-0.060,0.050
6535,-0.065,0.060
6536,-0.065,0.065
6537,-0.065,0.065
6538,-0.055,0.065
6539,-0.055,0.065
6540,-0.055,0.065
6541,-0.055,0.060
6542,-0.055,0.060
6543,-0.055,0.060
6544,-0.055,0.060
6545,-0.055,0.065
6546,-0.055,0.060
6547,-0.055,0.060
6548,-0.055,0.065
6549,-0.060,0.065
6550,-0.070,0.060
6551,-0.075,0.060
6552,-0.070,0.060
6553,-0.080,0.055
6554,-0.080,0.050
6555,-0.085,0.055
6556,-0.080,0.055
6557,-0.080,0.055
6558,-0.080,0.050
6559,-0.080,0.050
6560,-0.080,0.055
6561,-0.080,0.055
6562,-0.080,0.050
6563,-0.080,0.050
6564,-0.080,0.050
6565,-0.090,0.050
6566,-0.090,0.050
6567,-0.080,0.050
6568,-0.080,0.050
6569,-0.075,0.050
6570,-0.065,0.050
6571,-0.055,0.050
6572,-0.055,0.035
6573,-0.055,0.025
6574,-0.065,0.025
6575,-0.075,0.010
6576,-0.095,0.000
6577,-0.100,0.000
6578,-0.095,0.000
6579,-0.095,0.000
6580,-0.110,0.000
6581,-0.100,0.000
6582,-0.085,0.000
6583,-0.080,0.015
6584,-0.090,0.040
6585,-0.095,0.050
6586,-0.100,0.050
6587,-0.090,0.050
6588,-0.090,0.050
6589,-0.080,0.040
6590,-0.080,0.040
6591,-0.100,0.025
6592,-0.125,-0.005
6593,0.025,-0.075
6594,0.400,-0.180
6595,0.810,-0.290
6596,0.935,-0.345
6597,0.570,-0.275
6598,0.050,-0.080
6599,-0.240,0.100
6600,-0.250,0.130
6601,-0.140,0.090
6602,-0.065,0.065
6603,-0.055,0.060
6604,-0.050,0.050
6605,-0.045,0.050
6606,-0.040,0.050
6607,-0.035,0.050
6608,-0.030,0.050
6609,-0.010,0.045
6610,-0.005,0.035
6611,0.000,0.025
6612,0.000,0.025
6613,0.000,0.020
6614,0.000,0.020
6615,0.000,0.005
6616,0.005,0.005
6617,0.015,0.000
6618,0.020,0.000
6619,0.035,-0.005
6620,0.040,-0.015
6621,0.055,-0.030
6622,0.060,-0.045
6623,0.075,-0.060
6624,0.095,-0.075
6625,0.100,-0.090
6626,0.115,-0.110
6627,0.130,-0.130
6628,0.135,-0.150
6629,0.125,-0.170
6630,0.120,-0.185
6631,0.115,-0.205
6632,0.105,-0.220
6633,0.090,-0.225
6634,0.070,-0.215
6635,0.050,-0.195
6636,0.025,-0.170
6637,0.005,-0.135
6638,-0.005,-0.095
6639,-0.030,-0.055
6640,-0.050,-0.030
6641,-0.060,-0.010
6642,-0.070,0.000
6643,-0.080,0.005
6644,-0.080,0.020
6645,-0.080,0.025
6646,-0.080,0.040
6647,-0.080,0.050
6648,-0.080,0.045
6649,-0.075,0.045
6650,-0.065,0.050
6651,-0.060,0.050
6652,-0.060,0.050
6653,-0.060,0.050
6654,-0.060,0.050
6655,-0.065,0.050
6656,-0.070,0.050
6657,-0.075,0.050
6658,-0.080,0.050
6659,-0.080,0.050
6660,-0.080,0.050
6661,-0.080,0.050
6662,-0.080,0.045
6663,-0.080,0.040
6664,-0.080,0.040
6665,-0.085,0.040
6666,-0.090,0.035
6667,-0.080,0.035
6668,-0.080,0.040
6669,-0.080,0.030
6670,-0.080,0.030
6671,-0.080,0.035
6672,-0.080,0.030
6673,-0.080,0.035
6674,-0.080,0.030
6675,-0.080,0.030
6676,-0.070,0.030
6677,-0.075,0.030
6678,-0.070,0.030
6679,-0.055,0.035
6680,-0.055,0.030
6681,-0.055,0.025
6682,-0.055,0.025
6683,-0.055,0.025
6684,-0.055,0.020
6685,-0.055,0.010
6686,-0.055,0.005
6687,-0.070,0.000
6688,-0.080,0.000
6689,-0.080,0.000
6690,-0.075,0.000
6691,-0.070,0.000
6692,-0.080,0.000
6693,-0.075,0.000
6694,-0.060,0.000
6695,-0.060,0.010
6696,-0.070,0.030
6697,-0.080,0.040
6698,-0.075,0.040
6699,-0.065,0.040
6700,-0.055,0.040
6701,-0.055,0.040
6702,-0.055,0.040
6703,-0.085,0.020
6704,-0.120,-0.025
6705,0.075,-0.110
6706,0.465,-0.245
6707,0.865,-0.360
6708,0.865,-0.385
6709,0.415,-0.250
6710,-0.040,0.000
6711,-0.240,0.125
6712,-0.205,0.125
6713,-0.095,0.085
6714,-0.030,0.070
6715,-0.015,0.060
6716,-0.015,0.050
6717,-0.010,0.050
6718,0.000,0.050
6719,0.000,0.045
6720,0.000,0.040
6721,0.000,0.035
6722,0.000,0.030
6723,0.005,0.025
6724,0.015,0.025
6725,0.020,0.020
6726,0.020,0.005
6727,0.030,0.000
6728,0.040,0.000
6729,0.045,0.000
6730,0.060,-0.010
6731,0.060,-0.020
6732,0.060,-0.025
6733,0.075,-0.045
6734,0.090,-0.070
6735,0.100,-0.070
6736,0.105,-0.085
6737,0.135,-0.105
6738,0.140,-0.135
6739,0.140,-0.160
6740,0.140,-0.180
6741,0.140,-0.200
6742,0.140,-0.205
6743,0.130,-0.225
6744,0.110,-0.230
6745,0.100,-0.235
6746,0.075,-0.220
6747,0.050,-0.190
6748,0.025,-0.165
6749,0.000,-0.130
6750,0.000,-0.085
6751,-0.020,-0.055
6752,-0.035,-0.025
6753,-0.050,-0.005
6754,-0.055,0.010
6755,-0.055,0.020
6756,-0.055,0.030
