'sample interval','ECG0','ECG1'
'0.0078125 sec','mV','mV'
0,0.930,-0.390
1,0.970,-0.350
2,0.880,-0.300
3,0.900,-0.290
4,0.970,-0.170
5,0.770,-0.150
6,0.760,-0.130
7,0.680,0.000
8,0.740,-0.030
9,0.570,0.170
10,0.520,-0.010
11,0.490,0.120
12,0.380,0.070
13,0.520,-0.030
14,0.330,0.060
15,0.240,-0.050
16,0.380,0.070
17,0.340,-0.120
18,0.210,-0.050
19,0.190,-0.020
20,0.030,0.120
21,0.050,-0.060
22,0.480,-0.140
23,0.150,-0.150
24,0.150,-0.100
25,0.260,-0.080
26,0.180,-0.050
27,0.120,-0.100
28,0.120,-0.100
29,0.170,-0.060
30,0.180,-0.110
31,0.040,-0.070
32,0.140,-0.110
33,0.050,-0.110
34,0.110,-0.120
35,0.110,-0.090
36,0.050,-0.080
37,0.080,-0.150
38,0.080,-0.010
39,0.060,-0.220
40,0.070,-0.060
41,-0.030,-0.110
42,0.100,-0.250
43,0.000,-0.080
44,0.100,-0.170
45,0.080,-0.140
46,0.010,-0.140
47,0.020,-0.130
48,0.060,-0.100
49,0.010,-0.240
50,0.000,-0.110
51,0.080,-0.120
52,0.060,-0.110
53,0.040,-0.120
54,0.040,-0.110
55,0.030,-0.230
56,0.070,-0.180
57,-0.010,-0.110
58,-0.030,-0.180
59,0.050,-0.070
60,-0.030,-0.220
61,0.080,-0.140
62,0.020,-0.120
63,-0.070,-0.120
64,0.000,-0.200
65,0.120,-0.120
66,0.010,-0.190
67,-0.020,-0.090
68,0.000,-0.130
69,-0.050,-0.140
70,0.020,-0.110
71,-0.030,-0.060
72,0.060,-0.210
73,0.050,-0.060
74,0.050,-0.120
75,-0.060,-0.080
76,0.030,-0.160
77,-0.040,-0.090
78,0.050,-0.070
79,-0.010,-0.090
80,0.010,-0.110
81,0.040,-0.080
82,0.040,-0.090
83,-0.070,-0.110
84,0.060,-0.070
85,-0.030,-0.160
86,0.020,-0.060
87,-0.020,-0.130
88,-0.030,0.000
89,0.070,-0.150
90,-0.100,-0.040
91,0.090,-0.090
92,0.050,-0.150
93,0.130,-0.110
94,-0.110,-0.090
95,0.040,0.020
96,-0.040,-0.120
97,0.020,-0.070
98,-0.120,-0.060
99,0.010,-0.010
100,-0.010,-0.190
101,0.030,-0.100
102,-0.090,-0.010
103,-0.060,-0.090
104,-0.010,-0.100
105,-0.030,-0.030
106,-0.030,-0.060
107,-0.040,-0.150
108,0.050,-0.090
109,-0.040,-0.030
110,-0.040,-0.070
111,0.120,-0.100
112,0.010,-0.090
113,-0.070,-0.060
114,-0.060,-0.060
115,-0.020,-0.050
116,-0.010,-0.080
117,-0.010,-0.050
118,0.130,0.010
119,0.070,0.040
120,0.050,0.060
121,0.170,0.060
122,0.220,0.170
123,0.270,-0.010
124,0.190,0.000
125,0.140,0.080
126,0.260,-0.040
127,0.140,-0.050
128,0.170,-0.040
129,0.010,-0.030
130,0.070,-0.040
131,-0.080,-0.010
132,-0.070,-0.040
133,-0.010,-0.050
134,-0.210,-0.060
135,-0.050,-0.050
136,0.020,0.030
137,-0.040,-0.100
138,-0.110,-0.010
139,-0.010,-0.040
140,0.130,0.140
141,0.220,0.220
142,0.760,0.240
143,1.090,0.410
144,1.660,-0.330
145,0.640,-1.330
146,-0.330,-1.750
147,-1.760,-1.480
148,-1.710,-1.230
149,-1.630,-1.000
150,-1.190,-0.510
151,-0.720,-0.580
152,-0.370,-0.030
153,-0.250,-0.120
154,-0.300,-0.090
155,-0.250,-0.060
156,-0.180,0.030
157,-0.190,0.050
158,-0.150,-0.030
159,-0.350,0.010
160,-0.210,-0.010
161,-0.250,0.010
162,-0.260,0.030
163,-0.220,0.060
164,-0.220,0.050
165,-0.250,0.200
166,-0.140,0.080
167,-0.260,0.080
168,-0.390,0.170
169,-0.030,0.340
170,-0.240,-0.090
171,-0.110,0.240
172,-0.130,0.090
173,-0.140,0.340
174,-0.090,0.240
175,-0.150,0.300
176,-0.010,0.260
177,0.000,0.300
178,-0.060,0.160
179,-0.100,0.310
180,0.050,0.290
181,-0.100,0.240
182,0.100,0.170
183,-0.050,0.230
184,0.140,0.240
185,0.100,0.220
186,0.030,0.240
187,0.060,0.110
188,0.120,0.240
189,0.060,0.150
190,-0.040,0.140
191,0.120,0.170
192,-0.190,0.250
193,0.010,-0.100
194,0.060,0.100
195,-0.190,0.130
196,-0.170,0.250
197,-0.060,-0.090
198,0.010,0.180
199,-0.100,0.070
200,-0.170,0.120
201,-0.220,0.230
202,-0.050,-0.180
203,-0.090,0.250
204,-0.120,0.160
205,-0.070,-0.060
206,0.020,0.220
207,-0.120,-0.020
208,-0.060,0.120
209,-0.010,0.030
210,0.100,0.120
211,-0.190,0.160
212,0.110,-0.050
213,0.030,-0.010
214,-0.020,0.060
215,-0.170,0.050
216,0.120,-0.080
217,-0.080,0.060
218,-0.220,-0.140
219,-0.100,0.060
220,-0.030,0.050
221,-0.120,0.020
222,-0.200,-0.030
223,-0.110,0.010
224,-0.100,-0.040
225,-0.130,-0.040
226,-0.240,-0.080
227,-0.290,0.080
228,-0.100,-0.020
229,0.150,-0.020
230,-0.310,0.120
231,-0.280,-0.110
232,-0.130,0.110
233,-0.120,-0.050
234,-0.290,0.030
235,0.020,0.040
236,-0.350,0.080
237,-0.320,0.090
238,-0.130,0.040
239,-0.190,-0.020
240,-0.320,0.000
241,-0.040,0.110
242,-0.310,0.000
243,-0.150,0.160
244,-0.210,0.030
245,-0.170,0.190
246,-0.380,0.010
247,-0.070,0.070
248,-0.370,-0.120
249,-0.110,0.150
250,-0.110,0.010
251,-0.310,0.200
252,0.030,0.090
253,-0.200,-0.020
254,-0.180,-0.030
255,-0.290,0.130
256,-0.180,0.060
257,-0.110,0.150
258,-0.080,0.060
259,-0.040,0.130
260,-0.100,0.220
261,-0.090,0.300
262,0.060,0.080
263,0.110,0.280
264,0.130,0.140
265,0.050,0.130
266,0.070,0.140
267,-0.040,0.170
268,0.100,0.130
269,-0.070,-0.030
270,-0.010,0.060
271,-0.130,0.030
272,-0.060,0.090
273,-0.260,-0.120
274,-0.220,0.200
275,-0.190,-0.160
276,-0.190,0.070
277,-0.280,0.040
278,-0.130,-0.090
279,-0.140,0.020
280,-0.180,0.120
281,-0.020,0.240
282,0.130,0.040
283,0.630,0.240
284,0.930,0.290
285,1.480,-0.840
286,0.350,-1.390
287,-0.570,-1.810
288,-1.910,-1.430
289,-1.680,-1.320
290,-1.350,-0.750
291,-1.090,-0.570
292,-0.600,-0.310
293,-0.350,0.060
294,-0.240,0.000
295,-0.120,0.040
296,-0.250,0.050
297,-0.140,0.020
298,-0.200,0.110
299,-0.140,0.130
300,-0.150,0.120
301,-0.210,0.110
302,-0.060,0.160
303,-0.170,0.180
304,-0.160,0.180
305,-0.210,0.200
306,-0.130,0.170
307,-0.140,0.220
308,-0.190,0.330
309,-0.130,0.170
310,-0.120,0.240
311,-0.080,0.300
312,-0.060,0.300
313,-0.060,0.310
314,-0.020,0.360
315,-0.010,0.330
316,0.030,0.380
317,0.090,0.300
318,0.000,0.360
319,0.080,0.290
320,0.180,0.290
321,0.120,0.240
322,0.260,0.230
323,0.210,0.250
324,0.270,0.240
325,0.240,0.230
326,0.260,0.270
327,0.320,0.280
328,0.220,0.250
329,0.210,0.150
330,0.240,0.150
331,0.230,0.190
332,0.160,0.190
333,0.240,0.080
334,0.090,0.110
335,0.130,0.150
336,0.150,0.070
337,0.160,0.120
338,0.080,0.090
339,0.130,0.140
340,0.160,0.080
341,0.170,0.150
342,0.180,0.180
343,0.160,0.140
344,0.110,0.180
345,0.140,0.180
346,0.210,0.210
347,0.100,0.170
348,0.170,0.200
349,0.180,0.200
350,0.160,0.230
351,0.220,0.240
352,0.190,0.200
353,0.140,0.280
354,0.210,0.110
355,0.130,0.170
356,0.150,0.170
357,0.170,0.250
358,0.140,0.080
359,0.200,0.170
360,0.140,0.150
361,0.140,0.190
362,0.130,0.160
363,0.180,0.070
364,0.140,0.140
365,0.100,0.140
366,0.110,0.090
367,0.230,0.200
368,0.080,0.010
369,0.170,-0.010
370,0.160,0.180
371,0.150,0.070
372,0.220,0.030
373,0.070,0.150
374,0.000,-0.040
375,0.150,0.030
376,0.150,0.160
377,0.170,0.100
378,0.130,0.040
379,0.110,0.050
380,0.190,0.040
381,0.170,0.110
382,0.080,0.110
383,0.120,-0.020
384,0.210,0.050
385,0.120,0.040
386,0.060,0.080
387,0.150,0.030
388,0.110,0.060
389,0.120,0.080
390,0.080,0.060
391,0.080,0.070
392,0.060,0.090
393,0.090,0.140
394,0.170,0.220
395,0.170,0.130
396,0.170,0.170
397,0.330,0.230
398,0.300,0.250
399,0.360,0.150
400,0.250,0.130
401,0.230,0.100
402,0.270,0.160
403,0.140,0.050
404,0.210,0.090
405,0.050,0.050
406,0.100,0.090
407,0.090,0.130
408,-0.050,0.040
409,-0.050,0.050
410,-0.050,-0.130
411,-0.050,-0.040
412,0.010,0.010
413,-0.070,-0.020
414,-0.010,0.030
415,-0.020,0.210
416,0.240,0.110
417,0.330,0.200
418,0.740,0.500
419,1.200,0.020
420,1.650,-1.060
421,0.200,-1.490
422,-0.780,-1.840
423,-2.040,-1.520
424,-1.750,-1.380
425,-1.260,-0.760
426,-1.010,-0.520
427,-0.510,-0.330
428,-0.320,-0.050
429,-0.260,0.130
430,-0.180,0.000
431,-0.190,-0.030
432,-0.180,0.050
433,-0.170,0.110
434,-0.190,0.140
435,-0.230,0.090
436,-0.160,0.060
437,-0.180,0.080
438,-0.170,0.110
439,-0.190,0.130
440,-0.200,0.180
441,-0.160,0.100
442,-0.100,0.150
443,-0.080,0.120
444,-0.140,0.210
445,-0.160,0.160
446,-0.090,0.210
447,-0.100,0.230
448,-0.080,0.220
449,-0.080,0.300
450,-0.040,0.270
451,-0.040,0.210
452,-0.020,0.260
453,0.050,0.160
454,0.070,0.280
455,-0.040,0.130
456,0.050,0.110
457,0.070,0.120
458,0.020,0.120
459,0.160,0.150
460,0.140,0.140
461,0.130,0.080
462,0.120,0.120
463,0.140,0.140
464,0.060,0.110
465,0.070,0.170
466,0.050,0.010
467,-0.040,0.060
468,-0.060,0.090
469,0.030,-0.020
470,0.010,0.020
471,0.000,0.120
472,-0.030,0.080
473,-0.120,0.020
474,0.070,0.070
475,-0.040,0.050
476,-0.020,0.110
477,-0.110,0.090
478,0.060,0.170
479,-0.010,0.120
480,0.000,0.070
481,-0.010,0.120
482,0.050,0.180
483,-0.040,0.100
484,-0.020,0.110
485,0.010,0.190
486,-0.030,-0.040
487,-0.040,0.110
488,0.020,0.080
489,-0.020,0.150
490,-0.120,-0.040
491,0.090,0.090
492,-0.080,0.000
493,0.000,0.050
494,-0.140,0.150
495,-0.240,-0.060
496,0.040,-0.070
497,0.000,0.000
498,-0.040,-0.020
499,-0.130,0.010
500,-0.050,-0.050
501,-0.110,-0.020
502,-0.080,-0.010
503,-0.150,-0.060
504,-0.070,-0.030
505,-0.090,-0.100
506,-0.050,-0.050
507,-0.090,-0.030
508,-0.080,-0.030
509,-0.230,-0.050
510,-0.060,-0.090
511,0.090,-0.080
512,-0.270,-0.030
513,-0.200,-0.060
514,-0.060,0.010
515,-0.120,-0.130
516,-0.140,-0.100
517,-0.140,-0.110
518,-0.030,0.000
519,-0.110,-0.070
520,-0.210,0.100
521,-0.090,-0.180
522,-0.260,0.000
523,-0.250,-0.110
524,-0.100,-0.090
525,-0.160,-0.060
526,0.040,-0.180
527,-0.340,0.100
528,0.010,-0.050
529,-0.210,0.010
530,-0.090,0.000
531,0.080,0.070
532,-0.120,0.130
533,0.200,0.140
534,-0.050,0.250
535,0.010,0.050
536,-0.020,0.020
537,0.240,-0.040
538,-0.020,0.090
539,-0.170,-0.030
540,-0.070,-0.020
541,0.070,-0.050
542,-0.040,-0.040
543,-0.370,-0.140
544,-0.100,-0.040
545,-0.120,0.070
546,-0.380,-0.250
547,-0.230,-0.100
548,-0.120,-0.040
549,-0.110,0.090
550,-0.250,-0.220
551,-0.150,0.120
552,0.200,0.010
553,0.270,0.200
554,0.650,0.130
555,1.150,0.390
556,1.830,-0.650
557,0.090,-1.380
558,-0.860,-1.750
559,-1.900,-1.390
560,-1.720,-1.310
561,-1.490,-0.710
562,-1.140,-0.840
563,-0.540,-0.340
564,-0.350,-0.130
565,-0.300,0.000
566,-0.350,0.110
567,-0.120,-0.110
568,-0.280,0.040
569,-0.230,0.040
570,-0.330,0.000
571,0.040,0.040
572,-0.260,0.180
573,-0.270,0.120
574,-0.280,-0.010
575,-0.090,0.140
576,-0.140,0.030
577,-0.190,0.400
578,-0.060,-0.110
579,-0.250,0.150
580,-0.020,0.190
581,-0.090,0.180
582,-0.020,0.370
583,0.050,0.060
584,-0.110,0.250
585,0.150,0.240
586,0.080,0.430
587,0.130,0.110
588,-0.120,0.220
589,0.140,0.250
590,0.200,0.280
591,0.170,0.110
592,0.240,0.210
593,0.240,0.170
594,0.270,0.210
595,0.260,0.140
596,0.360,0.280
597,0.220,0.220
598,0.290,0.070
599,0.290,0.240
600,0.310,0.140
601,0.230,0.100
602,0.190,0.200
603,0.210,0.080
604,0.140,0.130
605,0.110,0.210
606,0.080,0.180
607,0.240,0.170
608,0.000,0.120
609,0.180,0.070
610,0.150,0.030
611,0.190,0.260
612,0.130,0.230
613,0.210,0.100
614,0.160,0.210
615,0.120,0.240
616,0.240,0.200
617,0.290,0.270
618,0.240,0.270
619,0.280,0.280
620,0.230,0.170
621,0.270,0.250
622,0.350,0.220
623,0.290,0.320
624,0.270,0.150
625,0.310,0.230
626,0.280,0.200
627,0.330,0.280
628,0.340,0.060
629,0.280,0.180
630,0.240,0.150
631,0.260,0.180
632,0.300,0.160
633,0.300,0.070
634,0.260,0.140
635,0.320,0.150
636,0.270,0.100
637,0.230,0.050
638,0.260,0.040
639,0.220,0.130
640,0.190,0.080
641,0.420,0.060
642,0.110,0.130
643,0.120,0.140
644,0.130,0.070
645,0.200,0.080
646,0.140,0.160
647,0.160,0.050
648,0.190,0.060
649,0.130,0.090
650,0.130,0.070
651,0.170,0.090
652,0.070,0.090
653,0.110,0.090
654,0.100,0.070
655,0.160,-0.010
656,0.070,0.070
657,0.130,0.100
658,0.110,0.140
659,0.110,0.010
660,0.120,0.080
661,0.070,0.050
662,0.080,0.070
663,0.120,0.050
664,0.120,0.080
665,0.080,0.040
666,0.130,0.140
667,0.140,0.080
668,0.160,0.200
669,0.150,0.110
670,0.190,0.390
671,0.350,0.080
672,0.340,0.170
673,0.370,0.170
674,0.350,0.100
675,0.210,0.120
676,0.260,0.130
677,0.090,-0.060
678,0.190,-0.010
679,0.220,0.070
680,0.070,0.080
681,0.050,-0.050
682,-0.030,-0.100
683,0.000,-0.040
684,-0.030,-0.050
685,-0.010,-0.030
686,0.020,-0.040
687,0.030,-0.050
688,-0.030,-0.010
689,-0.030,0.120
690,0.310,0.080
691,0.550,0.270
692,1.030,0.370
693,1.220,-0.380
694,1.840,-1.230
695,0.300,-1.690
696,-1.150,-1.940
697,-1.930,-1.380
698,-1.730,-1.320
699,-1.170,-0.840
700,-0.800,-0.370
701,-0.460,-0.320
702,-0.190,-0.060
703,-0.120,-0.050
704,-0.140,0.020
705,-0.070,0.020
706,-0.160,0.030
707,-0.080,0.040
708,-0.100,-0.020
709,-0.140,0.050
710,-0.060,0.120
711,-0.150,0.010
712,-0.060,0.080
713,-0.220,-0.080
714,-0.110,0.080
715,-0.090,0.070
716,-0.080,0.100
717,-0.130,0.100
718,-0.050,0.110
719,-0.080,0.150
720,-0.060,0.160
721,0.000,0.200
722,-0.060,0.190
723,-0.050,0.210
724,0.060,0.200
725,-0.020,0.180
726,0.000,0.210
727,0.090,0.250
728,0.130,0.130
729,0.100,0.150
730,0.190,0.180
731,0.230,0.080
732,0.220,0.280
733,0.140,-0.030
734,0.280,0.110
735,0.250,0.100
736,0.220,0.120
737,0.210,0.030
738,0.200,0.140
739,0.180,0.020
740,0.140,0.000
741,0.120,0.020
742,0.080,0.030
743,-0.010,0.060
744,0.070,-0.080
745,0.030,-0.020
746,0.080,-0.010
747,0.000,0.000
748,0.090,-0.030
749,-0.010,0.010
750,0.020,0.020
751,-0.020,0.020
752,-0.010,0.030
753,0.000,0.020
754,0.020,0.020
755,-0.020,0.050
756,0.070,0.030
757,0.030,0.070
758,-0.050,-0.030
759,0.000,0.010
760,0.010,0.000
761,-0.020,0.010
762,-0.060,0.000
763,-0.010,-0.040
764,0.010,0.070
765,0.020,-0.170
766,0.000,-0.080
767,0.000,-0.080
768,0.040,-0.090
769,-0.090,-0.070
770,-0.040,-0.170
771,-0.030,-0.100
772,-0.060,-0.140
773,0.000,-0.110
774,-0.030,-0.110
775,0.020,-0.130
776,0.020,-0.150
777,-0.100,-0.130
778,-0.080,-0.130
779,0.000,-0.150
780,-0.100,-0.170
781,-0.090,-0.180
782,-0.070,-0.170
783,-0.110,-0.210
784,-0.070,-0.160
785,-0.070,-0.140
786,-0.070,-0.190
787,-0.100,-0.180
788,-0.080,-0.190
789,-0.040,-0.150
790,-0.170,-0.180
791,-0.030,-0.200
792,-0.060,-0.190
793,-0.100,-0.200
794,-0.080,-0.180
795,-0.080,-0.170
796,-0.090,-0.230
797,-0.100,-0.190
798,-0.080,-0.190
799,-0.090,-0.180
800,-0.160,-0.230
801,-0.010,-0.030
802,-0.060,-0.270
803,-0.140,-0.130
804,-0.010,0.020
805,-0.010,-0.130
806,0.060,-0.060
807,0.130,0.010
808,0.140,-0.050
809,0.030,-0.140
810,0.160,-0.120
811,0.080,-0.110
812,0.110,-0.090
813,0.030,-0.150
814,0.040,-0.240
815,0.020,-0.190
816,-0.060,-0.190
817,-0.060,-0.220
818,-0.180,-0.230
819,-0.180,-0.240
820,-0.190,-0.220
821,-0.160,-0.220
822,-0.180,-0.200
823,-0.100,-0.120
824,-0.100,-0.250
825,-0.120,-0.090
826,0.090,-0.090
827,0.240,-0.030
828,0.760,0.140
829,1.200,-0.080
830,1.730,-1.170
831,0.210,-1.590
832,-0.920,-1.960
833,-2.120,-1.430
834,-1.870,-1.470
835,-1.390,-0.930
836,-1.120,-0.720
837,-0.600,-0.430
838,-0.420,-0.240
839,-0.300,-0.170
840,-0.340,-0.140
841,-0.270,-0.170
842,-0.310,-0.110
843,-0.280,-0.120
844,-0.270,-0.110
845,-0.280,-0.100
846,-0.280,-0.100
847,-0.220,-0.070
848,-0.250,-0.080
849,-0.250,-0.030
850,-0.220,-0.040
851,-0.260,-0.040
852,-0.240,-0.040
853,-0.230,0.010
854,-0.160,-0.010
855,-0.300,0.070
856,-0.140,0.030
857,-0.160,0.090
858,-0.080,0.070
859,-0.100,0.100
860,-0.080,0.120
861,-0.050,0.130
862,0.020,0.080
863,-0.050,0.090
864,0.040,0.050
865,0.090,0.060
866,0.140,0.040
867,0.100,0.010
868,0.150,0.010
869,0.150,0.000
870,0.200,0.010
871,0.230,0.040
872,0.130,0.000
873,0.160,0.010
874,0.200,0.010
875,0.070,0.000
876,0.080,-0.050
877,0.070,0.000
878,0.020,-0.090
879,-0.040,-0.090
880,0.060,-0.070
881,0.000,-0.050
882,-0.100,-0.090
883,-0.040,-0.030
884,0.020,-0.090
885,-0.010,-0.030
886,0.010,0.000
887,0.090,-0.030
888,-0.130,0.030
889,0.030,-0.030
890,-0.050,0.040
891,0.050,-0.010
892,-0.050,0.060
893,0.090,-0.020
894,0.020,0.020
895,0.050,0.020
896,0.090,0.050
897,0.010,0.060
898,0.030,0.040
899,0.040,0.050
900,0.000,0.010
901,0.050,-0.010
902,0.050,-0.030
903,0.070,-0.060
904,0.040,0.020
905,0.080,-0.060
906,0.010,-0.020
907,-0.040,-0.060
908,-0.020,-0.110
909,0.040,-0.060
910,0.010,-0.140
911,0.080,-0.070
912,0.020,-0.070
913,0.060,-0.100
914,-0.050,-0.100
915,0.050,-0.080
916,0.040,-0.060
917,0.010,-0.150
918,0.000,-0.120
919,-0.040,-0.120
920,0.050,-0.100
921,-0.050,-0.130
922,0.010,-0.110
923,-0.030,-0.110
924,0.020,-0.090
925,-0.030,-0.140
926,-0.020,-0.130
927,-0.150,-0.160
928,-0.050,-0.110
929,-0.040,-0.170
930,-0.070,-0.120
931,-0.020,-0.070
932,-0.030,-0.160
933,-0.160,-0.110
934,-0.040,-0.170
935,-0.150,-0.100
936,-0.140,-0.110
937,-0.100,-0.050
938,-0.070,-0.220
939,0.080,-0.080
940,-0.110,-0.030
941,-0.020,0.050
942,0.040,0.050
943,0.130,0.040
944,0.140,0.010
945,0.090,-0.060
946,0.040,-0.060
947,0.060,0.000
948,0.170,-0.130
949,0.020,-0.100
950,0.060,-0.160
951,-0.010,-0.010
952,-0.020,-0.200
953,-0.070,-0.130
954,-0.210,-0.170
955,-0.250,-0.180
956,-0.070,-0.110
957,-0.200,-0.110
958,-0.100,-0.170
959,-0.140,-0.150
960,-0.100,-0.120
961,-0.050,0.130
962,0.170,0.010
963,0.300,-0.010
964,0.860,0.130
965,1.180,-0.440
966,1.590,-1.270
967,0.190,-1.730
968,-1.310,-1.930
969,-1.910,-1.310
970,-1.790,-1.150
971,-1.160,-0.850
972,-0.950,-0.460
973,-0.510,-0.240
974,-0.380,-0.070
975,-0.320,-0.160
976,-0.280,-0.060
977,-0.220,-0.090
978,-0.270,-0.060
979,-0.270,0.030
980,-0.340,0.040
981,-0.210,-0.080
982,-0.250,0.050
983,-0.300,-0.160
984,-0.220,0.090
985,-0.230,0.030
986,-0.220,0.130
987,-0.180,0.150
988,-0.270,0.020
989,-0.210,0.090
990,-0.340,0.100
991,-0.170,0.210
992,-0.180,0.130
993,-0.190,0.210
994,-0.150,0.230
995,-0.080,0.250
996,-0.050,0.290
997,-0.190,0.230
998,-0.060,0.230
999,-0.070,0.340
1000,-0.060,0.120
1001,0.040,0.170
1002,0.090,0.160
1003,-0.020,0.150
1004,0.180,0.140
1005,0.070,0.100
1006,0.070,0.140
1007,0.210,0.150
1008,0.080,0.110
1009,0.040,0.090
1010,0.100,0.170
1011,0.040,0.040
1012,0.050,0.040
1013,0.000,0.030
1014,-0.020,0.230
1015,-0.080,0.010
1016,-0.030,-0.030
1017,-0.110,0.100
1018,0.010,0.060
1019,-0.120,0.040
1020,-0.110,0.140
1021,0.090,0.070
1022,-0.210,0.080
1023,-0.020,0.000
1024,0.040,0.160
1025,-0.110,0.180
1026,-0.110,-0.070
1027,-0.080,0.120
1028,-0.100,0.090
1029,-0.130,0.080
1030,0.050,0.110
1031,0.000,0.080
1032,-0.180,0.050
1033,0.020,0.150
1034,-0.200,-0.060
1035,-0.080,0.110
1036,-0.210,0.130
1037,-0.030,-0.120
1038,-0.190,-0.010
1039,-0.130,0.010
1040,-0.050,0.020
1041,-0.160,-0.060
1042,-0.130,-0.080
1043,-0.130,-0.010
1044,-0.080,0.000
1045,-0.110,-0.090
1046,-0.170,-0.090
1047,-0.070,0.090
1048,-0.170,-0.250
1049,-0.140,0.110
1050,-0.080,-0.070
1051,-0.230,-0.130
1052,-0.170,-0.010
1053,-0.080,-0.050
1054,-0.090,-0.030
1055,-0.150,0.060
1056,-0.180,-0.150
1057,-0.060,-0.070
1058,-0.160,-0.060
1059,-0.130,-0.030
1060,-0.140,-0.060
1061,-0.120,0.010
1062,-0.060,-0.030
1063,-0.110,-0.080
1064,-0.150,-0.040
1065,-0.120,-0.060
1066,-0.060,-0.030
1067,-0.160,-0.040
1068,-0.100,-0.030
1069,-0.100,-0.030
1070,-0.120,-0.010
1071,-0.080,-0.030
1072,-0.110,-0.050
1073,-0.150,-0.010
1074,-0.070,0.080
1075,0.050,0.220
1076,-0.010,0.050
1077,0.090,0.160
1078,0.120,0.060
1079,0.100,0.100
1080,0.070,0.040
1081,0.030,0.100
1082,0.110,0.110
1083,-0.080,-0.200
1084,0.090,0.010
1085,-0.010,-0.030
1086,-0.040,0.000
1087,-0.120,0.000
1088,-0.060,-0.040
1089,-0.180,-0.040
1090,-0.160,-0.020
1091,-0.150,-0.040
1092,-0.130,-0.030
1093,-0.120,0.010
1094,-0.060,0.060
1095,-0.100,0.050
1096,0.150,0.050
1097,0.280,0.120
1098,0.800,0.110
1099,1.040,-0.540
1100,1.490,-1.200
1101,0.280,-1.590
1102,-1.090,-1.860
1103,-1.820,-1.270
1104,-1.690,-1.080
1105,-1.100,-0.760
1106,-0.900,-0.310
1107,-0.440,-0.060
1108,-0.280,0.020
1109,-0.260,0.070
1110,-0.260,0.070
1111,-0.290,0.050
1112,-0.220,0.060
1113,-0.150,0.100
1114,-0.160,0.090
1115,-0.170,0.070
1116,-0.240,0.160
1117,-0.180,0.070
1118,-0.200,0.150
1119,-0.200,0.190
1120,-0.160,0.070
1121,-0.150,0.190
1122,-0.110,0.200
1123,-0.110,0.150
1124,-0.130,0.220
1125,-0.080,0.260
1126,-0.130,0.210
1127,-0.030,0.310
1128,-0.030,0.310
1129,-0.040,0.310
1130,0.000,0.290
1131,0.030,0.330
1132,0.110,0.320
1133,0.130,0.340
1134,0.160,0.260
1135,0.170,0.300
1136,0.170,0.250
1137,0.260,0.250
1138,0.260,0.270
1139,0.350,0.200
1140,0.430,0.250
1141,0.380,0.310
1142,0.320,0.170
1143,0.330,0.120
1144,0.270,0.200
1145,0.280,0.140
1146,0.220,0.240
1147,0.160,0.110
1148,0.180,0.130
1149,0.260,0.070
1150,0.260,0.020
1151,0.190,0.120
1152,0.130,0.130
1153,0.130,0.160
1154,0.200,0.170
1155,0.120,0.110
1156,0.160,0.220
1157,0.090,0.170
1158,0.150,0.230
1159,0.230,0.170
1160,0.160,0.290
1161,0.210,0.190
1162,0.110,0.260
1163,0.210,0.220
1164,0.240,0.250
1165,0.070,0.330
1166,0.140,0.100
1167,0.140,0.230
1168,0.180,0.260
1169,0.090,0.210
1170,0.290,0.180
1171,0.150,0.190
1172,0.120,0.150
1173,0.080,0.180
1174,0.160,0.220
1175,0.160,0.090
1176,0.070,0.150
1177,0.230,0.220
1178,0.080,0.180
1179,0.090,0.160
1180,0.050,0.210
1181,0.120,0.110
1182,0.170,0.170
1183,0.230,0.140
1184,0.060,0.170
1185,0.160,0.070
1186,0.200,0.110
1187,0.170,0.130
1188,0.180,0.010
1189,0.330,0.150
1190,0.100,0.020
1191,0.350,0.120
1192,0.160,0.080
1193,0.080,0.130
1194,0.180,0.020
1195,0.230,0.010
1196,0.300,0.080
1197,0.320,0.150
1198,0.050,0.120
1199,0.060,0.010
1200,0.290,0.020
1201,0.260,0.000
1202,0.120,0.120
1203,0.280,-0.020
1204,0.420,0.130
1205,-0.070,0.060
1206,0.510,-0.060
1207,0.090,0.000
1208,0.310,-0.030
1209,0.530,0.120
1210,0.080,0.100
1211,0.290,0.140
1212,0.220,0.220
1213,0.310,0.260
1214,0.400,0.280
1215,0.430,0.060
1216,0.610,0.130
1217,0.340,0.160
1218,0.410,0.130
1219,0.460,0.040
1220,0.540,0.160
1221,0.250,0.170
1222,0.270,0.000
1223,0.390,-0.020
1224,0.240,0.130
1225,0.260,0.050
1226,0.130,0.050
1227,0.250,-0.020
1228,0.140,0.140
1229,0.230,0.180
1230,0.220,0.110
1231,0.120,0.100
1232,0.250,0.270
1233,0.490,0.320
1234,0.640,0.250
1235,1.170,0.340
1236,1.890,-0.400
1237,1.580,-1.060
1238,0.300,-1.620
1239,-1.110,-1.880
1240,-1.750,-1.280
1241,-1.530,-0.940
1242,-1.070,-0.670
1243,-0.550,-0.140
1244,-0.260,0.070
1245,-0.050,0.220
1246,-0.050,0.210
1247,0.000,0.280
1248,0.100,0.230
1249,-0.010,0.330
1250,0.070,0.330
1251,0.060,0.150
1252,0.100,0.310
1253,0.110,0.340
1254,0.060,0.360
1255,0.130,0.320
1256,0.300,0.380
1257,0.030,0.420
1258,-0.020,0.380
1259,0.140,0.440
1260,0.060,0.490
1261,0.200,0.330
1262,0.370,0.390
1263,0.240,0.510
1264,0.020,0.560
1265,0.180,0.540
1266,0.180,0.540
1267,0.360,0.600
1268,0.240,0.540
1269,0.370,0.530
1270,0.320,0.510
1271,0.440,0.650
1272,0.470,0.420
1273,0.420,0.550
1274,0.520,0.480
1275,0.550,0.560
1276,0.570,0.500
1277,0.620,0.450
1278,0.680,0.590
1279,0.480,0.510
1280,0.470,0.530
1281,0.570,0.490
1282,0.370,0.380
1283,0.420,0.300
1284,0.410,0.370
1285,0.390,0.380
1286,0.360,0.300
1287,0.350,0.330
1288,0.320,0.360
1289,0.290,0.390
1290,0.390,0.330
1291,0.280,0.290
1292,0.370,0.350
1293,0.280,0.310
1294,0.200,0.320
1295,0.330,0.340
1296,0.400,0.280
1297,0.420,0.310
1298,0.400,0.310
1299,0.320,0.390
1300,0.360,0.400
1301,0.330,0.230
1302,0.460,0.250
1303,0.300,0.260
1304,0.340,0.290
1305,0.320,0.280
1306,0.450,0.350
1307,0.300,0.150
1308,0.410,0.240
1309,0.420,0.270
1310,0.420,0.240
1311,0.330,0.260
1312,0.270,0.200
1313,0.310,0.080
1314,0.300,0.190
1315,0.150,0.200
1316,0.240,0.140
1317,0.250,0.180
1318,0.340,0.120
1319,0.200,0.240
1320,0.240,0.150
1321,0.290,0.040
1322,0.190,0.120
1323,0.300,0.140
1324,0.240,0.080
1325,0.210,0.210
1326,0.330,-0.010
1327,0.180,0.080
1328,0.220,0.060
1329,0.190,0.170
1330,0.260,0.110
1331,0.230,0.080
1332,0.150,0.130
1333,0.110,0.120
1334,0.130,0.000
1335,0.240,0.080
1336,0.230,0.080
1337,0.200,0.070
1338,0.140,0.020
1339,0.180,0.070
1340,0.160,0.120
1341,0.210,0.040
1342,0.200,0.050
1343,0.190,0.120
1344,0.140,0.010
1345,0.240,0.010
1346,0.250,0.010
1347,0.210,0.160
1348,0.100,0.140
1349,0.230,0.120
1350,0.190,0.110
1351,0.240,0.160
1352,0.380,0.140
1353,0.260,0.200
1354,0.370,-0.020
1355,0.270,0.100
1356,0.260,-0.020
1357,0.080,-0.010
1358,0.150,-0.140
1359,0.150,-0.010
1360,0.150,-0.030
1361,-0.060,-0.060
1362,-0.010,-0.070
1363,-0.020,-0.070
1364,-0.090,-0.100
1365,0.000,0.010
1366,-0.050,-0.010
1367,0.010,-0.200
1368,-0.020,-0.070
1369,0.080,0.000
1370,0.380,0.090
1371,0.310,0.170
1372,0.840,0.250
1373,1.200,0.130
1374,1.930,-1.060
1375,0.000,-1.710
1376,-1.210,-1.990
1377,-2.090,-1.450
1378,-1.840,-1.450
1379,-1.360,-0.900
1380,-1.080,-0.690
1381,-0.530,-0.360
1382,-0.360,-0.100
1383,-0.350,-0.150
1384,-0.160,-0.110
1385,-0.200,-0.060
1386,-0.220,0.020
1387,-0.160,-0.020
1388,-0.110,-0.180
1389,-0.230,0.030
1390,-0.150,0.030
1391,-0.140,-0.040
1392,-0.260,-0.030
1393,-0.220,0.030
1394,-0.140,0.030
1395,-0.130,0.010
1396,-0.290,0.100
1397,-0.080,0.020
1398,-0.190,0.040
1399,-0.080,0.120
1400,-0.060,0.150
1401,-0.050,0.100
1402,-0.140,0.160
1403,-0.070,0.110
1404,-0.060,0.190
1405,0.020,0.120
1406,-0.020,0.270
1407,0.080,0.100
1408,0.090,0.110
1409,0.100,0.120
1410,0.200,0.140
1411,0.150,0.120
1412,0.200,0.030
1413,0.200,0.150
1414,0.350,0.040
1415,0.190,0.150
1416,0.330,0.200
1417,0.080,0.030
1418,0.140,0.060
1419,0.220,0.020
1420,0.170,0.050
1421,0.120,0.020
1422,0.100,0.040
1423,-0.040,0.010
1424,0.070,0.000
1425,0.010,0.010
1426,0.040,-0.020
1427,0.040,0.070
1428,-0.090,0.080
1429,0.090,-0.070
1430,0.030,0.000
1431,-0.050,0.030
1432,-0.050,0.050
1433,0.000,-0.020
1434,0.110,0.080
1435,0.120,0.030
1436,-0.050,0.070
1437,0.100,0.060
1438,0.020,0.050
1439,0.100,0.060
1440,0.070,-0.060
1441,0.030,0.110
1442,0.160,0.020
1443,0.100,-0.030
1444,0.080,-0.010
1445,0.120,0.010
1446,-0.020,0.040
1447,-0.060,0.020
1448,0.110,0.040
1449,-0.100,-0.010
1450,0.100,-0.120
1451,-0.010,-0.080
1452,0.030,-0.060
1453,-0.040,0.000
1454,0.060,0.050
1455,-0.030,-0.140
1456,-0.010,0.040
1457,0.000,0.000
1458,0.020,-0.140
1459,0.060,-0.070
1460,-0.010,0.000
1461,-0.010,-0.070
1462,-0.070,-0.040
1463,0.020,-0.010
1464,0.060,-0.050
1465,0.060,-0.110
1466,0.050,-0.070
1467,0.080,-0.030
1468,0.010,-0.100
1469,0.010,-0.060
1470,0.010,-0.110
1471,0.040,0.020
1472,0.110,-0.170
1473,-0.060,-0.060
1474,0.070,-0.100
1475,0.020,-0.070
1476,0.060,-0.100
1477,-0.100,-0.080
1478,0.020,-0.100
1479,0.020,-0.070
1480,0.070,-0.030
1481,0.110,0.080
1482,0.020,-0.030
1483,0.150,0.060
1484,0.150,-0.010
1485,0.190,-0.150
1486,0.180,-0.030
1487,0.120,-0.100
1488,0.210,-0.110
1489,-0.080,-0.180
1490,0.100,-0.090
1491,0.150,-0.220
1492,-0.170,-0.150
1493,-0.110,-0.100
1494,-0.150,-0.260
1495,-0.050,-0.230
1496,-0.190,-0.200
1497,-0.240,-0.240
1498,-0.210,-0.220
1499,-0.070,-0.150
1500,-0.140,-0.180
1501,-0.060,-0.130
1502,0.020,-0.010
1503,0.250,0.040
1504,0.630,0.170
1505,1.010,0.250
1506,1.760,-1.120
1507,0.160,-1.640
1508,-0.950,-1.950
1509,-2.130,-1.490
1510,-1.920,-1.470
1511,-1.430,-0.980
1512,-1.130,-0.740
1513,-0.760,-0.430
1514,-0.320,-0.330
1515,-0.440,-0.170
1516,-0.330,-0.260
1517,-0.240,-0.230
1518,-0.240,-0.130
1519,-0.330,-0.130
1520,-0.270,-0.140
1521,-0.240,-0.150
1522,-0.230,-0.110
1523,-0.370,-0.180
1524,-0.250,-0.110
1525,-0.300,0.000
1526,-0.210,-0.190
1527,-0.240,-0.090
1528,-0.200,0.000
1529,-0.340,-0.010
1530,-0.270,0.010
1531,-0.130,0.050
1532,-0.170,-0.040
1533,-0.220,0.140
1534,-0.120,0.020
1535,-0.100,0.020
1536,-0.190,0.050
1537,0.000,0.060
1538,0.010,0.060
1539,-0.010,0.040
1540,-0.090,0.060
1541,0.030,0.000
1542,0.070,0.030
1543,0.040,-0.040
1544,0.090,-0.020
1545,0.180,0.000
1546,0.260,0.080
1547,0.090,-0.010
1548,0.180,-0.020
1549,0.140,0.000
1550,0.090,-0.040
1551,0.020,0.040
1552,0.060,-0.080
1553,0.120,-0.030
1554,0.020,0.020
1555,0.000,-0.080
1556,-0.060,0.010
1557,0.050,-0.160
1558,-0.110,-0.030
1559,-0.150,-0.050
1560,0.090,-0.160
1561,-0.110,-0.070
1562,-0.050,-0.050
1563,-0.030,-0.010
1564,0.000,-0.090
1565,-0.080,-0.030
1566,0.020,-0.120
1567,-0.070,-0.070
1568,-0.050,0.030
1569,0.000,-0.130
1570,-0.060,-0.120
1571,-0.010,-0.020
1572,0.000,-0.080
1573,-0.030,-0.050
1574,0.020,-0.090
1575,-0.150,-0.020
1576,0.020,-0.180
1577,-0.070,-0.050
1578,-0.060,-0.180
1579,-0.040,-0.140
1580,-0.110,-0.050
1581,-0.080,-0.170
1582,0.010,-0.060
1583,-0.170,-0.090
1584,-0.110,-0.110
1585,-0.030,-0.110
1586,-0.050,-0.200
1587,-0.150,-0.050
1588,-0.060,-0.160
1589,-0.090,-0.090
1590,-0.120,-0.090
1591,-0.030,-0.080
1592,-0.220,-0.030
1593,-0.080,-0.130
1594,-0.070,0.000
1595,-0.150,-0.150
1596,-0.090,-0.060
1597,-0.160,-0.080
1598,-0.060,-0.040
1599,-0.170,-0.020
1600,-0.060,-0.030
1601,-0.100,-0.130
1602,-0.040,-0.130
1603,-0.120,0.110
1604,-0.170,-0.160
1605,-0.010,-0.130
1606,-0.210,-0.110
1607,-0.110,-0.070
1608,-0.100,-0.060
1609,-0.050,-0.030
1610,-0.060,-0.030
1611,0.000,0.160
1612,0.030,0.030
1613,0.170,0.060
1614,0.150,0.170
1615,0.080,0.020
1616,0.100,-0.090
1617,0.010,0.140
1618,0.180,-0.110
1619,0.150,-0.060
1620,0.010,-0.070
1621,0.030,0.100
1622,-0.040,-0.130
1623,0.020,-0.030
1624,-0.120,0.030
1625,-0.200,-0.200
1626,-0.130,-0.150
1627,-0.120,-0.070
1628,-0.050,-0.050
1629,-0.040,-0.070
1630,-0.020,0.040
1631,-0.120,0.020
1632,0.210,-0.020
1633,0.280,0.040
1634,0.930,0.210
1635,0.990,0.020
1636,1.730,-1.240
1637,0.210,-1.590
1638,-0.860,-1.980
1639,-2.120,-1.530
1640,-1.840,-1.310
1641,-1.350,-1.000
1642,-1.030,-0.490
1643,-0.500,-0.510
1644,-0.350,-0.050
1645,-0.290,-0.080
1646,-0.140,0.010
1647,-0.280,-0.050
1648,-0.250,0.020
1649,-0.220,0.000
1650,-0.180,0.080
1651,-0.170,0.170
1652,-0.180,-0.060
1653,-0.210,-0.020
1654,-0.120,0.100
1655,-0.140,0.070
1656,-0.330,0.170
1657,-0.260,0.240
1658,-0.040,-0.060
1659,-0.130,0.190
1660,-0.100,0.160
1661,-0.220,0.170
1662,-0.200,0.140
1663,-0.090,0.230
1664,-0.010,0.230
1665,-0.120,0.460
1666,-0.240,0.090
1667,0.000,0.180
1668,0.020,0.180
1669,0.050,0.200
1670,-0.070,0.190
1671,0.030,0.150
1672,0.120,0.190
1673,0.140,0.200
1674,0.100,0.150
1675,0.080,0.050
1676,0.160,0.150
1677,0.350,0.190
1678,-0.020,0.070
1679,0.130,0.090
1680,0.160,0.080
1681,0.200,0.030
1682,0.110,0.030
1683,0.020,0.140
1684,-0.110,-0.080
1685,0.010,0.050
1686,0.010,0.030
1687,-0.100,0.030
1688,-0.020,-0.080
1689,0.080,0.080
1690,0.020,-0.060
1691,-0.040,0.040
1692,-0.030,0.130
1693,0.210,-0.020
1694,-0.070,0.050
1695,-0.060,0.010
1696,-0.060,0.060
1697,0.010,0.100
1698,0.010,0.110
1699,-0.050,0.160
1700,0.190,-0.100
1701,0.040,0.150
1702,0.000,0.050
1703,-0.010,0.050
1704,0.050,0.280
1705,-0.010,-0.090
1706,-0.070,0.100
1707,0.130,-0.110
1708,-0.110,0.100
1709,-0.040,0.020
1710,-0.010,0.020
1711,-0.140,0.040
1712,0.030,-0.040
1713,-0.110,0.070
1714,-0.020,-0.120
1715,-0.150,-0.040
1716,-0.160,0.020
1717,-0.020,-0.040
1718,-0.190,-0.010
1719,0.010,-0.070
1720,-0.060,-0.100
1721,-0.060,-0.040
1722,-0.120,-0.070
1723,-0.060,-0.120
1724,-0.060,-0.070
1725,-0.050,-0.040
1726,-0.110,-0.130
1727,-0.080,0.060
1728,-0.010,-0.080
1729,-0.090,-0.100
1730,-0.270,-0.020
1731,-0.090,-0.070
1732,-0.110,-0.020
1733,-0.190,-0.170
1734,-0.120,-0.040
1735,-0.130,-0.020
1736,-0.110,-0.130
1737,-0.140,-0.070
1738,-0.160,-0.080
1739,-0.210,0.050
1740,-0.130,-0.160
1741,-0.080,-0.130
1742,-0.190,-0.060
1743,-0.060,-0.090
1744,-0.160,-0.050
1745,-0.010,0.020
1746,-0.100,-0.060
1747,0.030,-0.010
1748,0.010,0.050
1749,0.190,0.080
1750,0.130,0.030
1751,-0.040,0.050
1752,0.060,-0.160
1753,-0.020,0.040
1754,0.110,-0.080
1755,-0.030,-0.160
1756,0.030,-0.110
1757,-0.010,-0.080
1758,-0.110,0.000
1759,-0.100,-0.040
1760,-0.320,-0.210
1761,-0.150,-0.230
1762,-0.190,-0.070
1763,-0.140,-0.060
1764,-0.090,-0.110
1765,-0.200,-0.090
1766,-0.140,-0.030
1767,-0.110,0.110
1768,0.030,-0.010
1769,0.390,0.010
1770,0.610,0.210
1771,1.130,-0.540
1772,1.300,-1.310
1773,0.070,-1.680
1774,-1.340,-1.800
1775,-1.880,-1.390
1776,-1.750,-1.140
1777,-1.170,-0.690
1778,-0.850,-0.380
1779,-0.530,-0.170
1780,-0.370,-0.150
1781,-0.340,-0.080
1782,-0.240,-0.020
1783,-0.330,-0.050
1784,-0.330,0.000
1785,-0.320,0.010
1786,-0.270,-0.180
1787,-0.220,0.100
1788,-0.280,0.010
1789,-0.240,0.060
1790,-0.250,0.050
1791,-0.160,0.050
1792,-0.220,0.060
1793,-0.220,0.260
1794,-0.230,0.060
1795,-0.200,0.010
1796,-0.140,0.230
1797,-0.210,0.300
1798,-0.230,0.140
1799,-0.020,0.320
1800,-0.090,0.130
1801,-0.160,0.500
1802,0.080,0.060
1803,-0.040,0.310
1804,-0.150,0.180
1805,0.060,0.290
1806,0.010,0.340
1807,0.070,0.120
1808,0.140,0.190
1809,0.090,0.210
1810,0.110,0.180
1811,0.110,0.160
1812,0.120,0.160
1813,0.250,0.250
1814,0.040,0.090
1815,0.120,0.180
1816,0.060,-0.010
1817,0.120,0.180
1818,-0.020,0.140
1819,0.060,0.070
1820,-0.030,0.060
1821,0.020,0.180
1822,-0.100,0.080
1823,0.070,-0.020
1824,-0.080,0.170
1825,-0.030,0.110
1826,0.000,0.050
1827,-0.020,0.310
1828,-0.030,0.140
1829,0.100,0.070
1830,-0.010,0.170
1831,-0.040,0.190
1832,0.020,0.240
1833,0.030,0.360
1834,0.040,0.060
1835,-0.020,0.200
1836,0.000,0.130
1837,0.050,0.210
1838,0.000,0.180
1839,0.030,0.220
1840,0.010,0.170
1841,-0.060,0.130
1842,-0.080,0.110
1843,-0.050,0.170
1844,0.020,0.120
1845,-0.050,0.210
1846,0.010,0.130
1847,-0.100,0.160
1848,-0.120,0.080
1849,-0.130,0.150
1850,-0.100,0.110
1851,-0.060,0.090
1852,-0.040,0.120
1853,-0.130,0.150
1854,-0.030,0.070
1855,-0.030,0.040
1856,0.080,0.210
1857,-0.360,0.090
1858,0.200,0.010
1859,-0.220,0.110
1860,-0.160,0.090
1861,0.040,0.010
1862,-0.060,0.090
1863,-0.110,0.110
1864,-0.160,0.160
1865,0.070,0.030
1866,-0.210,-0.020
1867,-0.110,0.030
1868,-0.070,0.090
1869,-0.120,0.120
1870,-0.070,-0.040
1871,-0.070,0.130
1872,-0.030,0.090
1873,-0.200,-0.030
1874,-0.080,0.040
1875,-0.100,0.060
1876,-0.030,0.170
1877,-0.180,0.110
1878,-0.130,-0.030
1879,-0.090,0.060
1880,-0.030,0.110
1881,-0.070,0.140
1882,-0.050,0.000
1883,-0.130,0.040
1884,0.100,0.090
1885,-0.210,0.120
1886,-0.070,0.040
1887,0.030,0.140
1888,-0.060,0.150
1889,0.040,0.160
1890,0.100,0.190
1891,0.180,0.160
1892,0.260,0.110
1893,0.030,0.140
1894,0.010,0.070
1895,0.050,0.160
1896,-0.010,-0.150
1897,0.010,0.000
1898,0.050,-0.020
1899,0.010,-0.040
1900,-0.120,-0.060
1901,-0.110,-0.060
1902,-0.140,-0.020
1903,-0.370,-0.140
1904,-0.250,-0.060
1905,-0.230,-0.120
1906,-0.220,0.030
1907,-0.150,-0.200
1908,-0.050,0.120
1909,0.050,0.020
1910,0.380,0.140
1911,0.760,0.300
1912,1.100,0.400
1913,1.970,-0.920
1914,0.030,-1.480
1915,-1.330,-1.840
1916,-2.030,-1.240
1917,-1.840,-1.300
1918,-1.370,-0.860
1919,-1.070,-0.580
1920,-0.620,-0.250
1921,-0.360,-0.040
1922,-0.280,-0.110
1923,-0.260,-0.080
1924,-0.280,0.010
1925,-0.190,-0.010
1926,-0.180,0.010
1927,-0.130,0.000
1928,-0.310,0.050
1929,-0.180,0.090
1930,-0.330,0.070
1931,-0.140,-0.010
1932,-0.270,0.070
1933,-0.270,0.100
1934,-0.210,0.110
1935,-0.210,0.110
1936,-0.290,0.100
1937,-0.210,0.170
1938,-0.300,0.250
1939,-0.090,0.170
1940,-0.180,0.110
1941,-0.160,0.090
1942,0.150,0.190
1943,-0.230,0.160
1944,-0.020,0.210
1945,0.020,0.220
1946,-0.100,0.220
1947,0.090,0.060
1948,0.020,0.070
1949,0.060,0.100
1950,0.210,0.150
1951,0.120,0.050
1952,0.290,0.100
1953,0.260,0.190
1954,0.210,0.040
1955,0.190,0.150
1956,0.010,0.020
1957,0.140,0.140
1958,0.050,0.090
1959,0.150,0.050
1960,0.060,0.070
1961,0.030,0.120
1962,-0.050,0.060
1963,0.030,0.050
1964,0.000,0.030
1965,-0.020,0.020
1966,-0.090,0.120
1967,0.060,0.200
1968,-0.100,0.050
1969,0.000,0.120
1970,-0.040,0.030
1971,-0.030,0.180
1972,-0.060,0.060
1973,0.080,0.220
1974,0.060,0.070
1975,0.030,0.220
1976,-0.090,0.120
1977,0.110,0.290
1978,0.030,0.140
1979,0.080,0.000
1980,0.030,0.080
1981,0.080,0.100
1982,0.000,0.100
1983,0.040,0.110
1984,-0.030,0.140
1985,0.020,0.120
1986,-0.040,0.100
1987,-0.040,0.130
1988,-0.130,0.010
1989,0.100,0.020
1990,-0.140,0.020
1991,0.070,0.110
1992,-0.100,0.070
1993,-0.090,0.040
1994,-0.090,0.050
1995,0.030,0.020
1996,-0.140,0.110
1997,-0.030,0.050
1998,-0.070,-0.010
1999,-0.040,0.040
2000,-0.070,0.030
2001,-0.010,0.090
2002,0.000,0.050
2003,-0.120,-0.010
2004,0.010,0.050
2005,-0.240,0.030
2006,-0.090,0.060
2007,-0.050,0.060
2008,-0.080,-0.010
2009,-0.040,0.060
2010,-0.100,0.050
2011,-0.010,0.020
2012,-0.030,0.040
2013,-0.060,0.040
2014,0.010,0.060
2015,-0.170,0.080
2016,-0.080,0.060
2017,-0.040,0.080
2018,-0.120,-0.010
2019,-0.060,0.050
2020,-0.090,0.040
2021,-0.070,0.040
2022,-0.050,0.040
2023,-0.080,0.030
2024,-0.110,0.130
2025,-0.060,-0.040
2026,-0.040,0.030
2027,-0.020,0.050
2028,-0.080,0.040
2029,-0.020,0.000
2030,-0.060,0.030
2031,-0.040,0.070
2032,-0.010,0.120
2033,-0.160,-0.030
2034,0.030,0.040
2035,0.030,0.130
2036,0.070,0.120
2037,0.110,0.180
2038,0.290,0.200
2039,0.110,0.150
2040,0.100,0.140
2041,0.070,0.020
2042,0.060,0.110
2043,0.160,0.020
2044,0.090,0.030
2045,0.060,-0.070
2046,0.040,0.020
2047,-0.050,-0.010
2048,-0.100,-0.070
2049,-0.080,-0.110
2050,-0.140,-0.110
2051,-0.130,-0.060
2052,-0.060,-0.060
2053,-0.050,-0.010
2054,-0.120,-0.050
2055,0.080,0.030
2056,-0.010,0.120
2057,0.050,0.150
2058,0.610,0.260
2059,1.010,0.200
2060,1.440,-0.920
2061,0.480,-1.430
2062,-0.450,-1.820
2063,-2.040,-1.700
2064,-1.740,-1.450
2065,-1.390,-0.900
2066,-1.150,-0.690
2067,-0.560,-0.330
2068,-0.390,-0.040
2069,-0.300,-0.070
2070,-0.240,0.030
2071,-0.260,0.090
2072,-0.150,0.010
2073,-0.200,0.030
2074,-0.140,0.040
2075,-0.140,0.090
2076,-0.190,0.200
2077,-0.160,0.020
2078,-0.230,0.050
2079,-0.180,0.180
2080,-0.160,0.160
2081,-0.110,0.120
2082,-0.130,0.140
2083,-0.210,0.200
2084,-0.110,0.260
2085,-0.080,0.200
2086,-0.140,0.230
2087,-0.060,0.230
2088,0.000,0.230
2089,-0.070,0.280
2090,-0.050,0.300
2091,0.010,0.270
2092,0.100,0.260
2093,0.010,0.260
2094,-0.020,0.340
2095,0.110,0.190
2096,0.110,0.240
2097,0.170,0.200
2098,0.370,0.240
2099,0.120,0.330
2100,0.380,0.120
2101,0.410,0.210
2102,0.200,0.350
2103,0.200,0.060
2104,0.270,0.210
2105,0.230,0.220
2106,0.250,0.130
2107,0.070,0.110
2108,0.070,0.200
2109,0.170,0.020
2110,0.080,0.050
2111,0.060,0.140
2112,0.120,0.060
2113,0.030,0.090
2114,0.100,0.070
2115,0.070,0.090
2116,0.100,0.130
2117,0.140,0.120
2118,0.020,0.130
2119,0.090,0.130
2120,0.110,0.140
2121,0.130,0.160
2122,0.080,0.100
2123,0.050,0.170
2124,0.140,0.230
2125,0.000,0.050
2126,0.020,0.080
2127,0.090,0.090
2128,0.070,0.100
2129,-0.010,0.110
2130,0.000,0.070
2131,0.070,0.030
2132,0.010,0.040
2133,0.020,0.070
2134,0.000,0.090
2135,-0.040,0.050
2136,0.010,-0.020
2137,-0.060,0.040
2138,0.020,0.000
2139,-0.060,-0.070
2140,0.000,-0.020
2141,-0.020,0.000
2142,0.000,0.000
2143,0.000,-0.110
2144,-0.030,-0.030
2145,-0.060,-0.020
2146,-0.010,-0.090
2147,-0.010,0.000
2148,-0.090,-0.100
2149,-0.050,-0.080
2150,-0.050,-0.030
2151,-0.030,-0.150
2152,0.000,-0.050
2153,0.070,-0.070
2154,-0.190,-0.030
2155,0.050,-0.170
2156,-0.040,-0.100
2157,-0.070,-0.070
2158,-0.060,-0.130
2159,-0.030,-0.100
2160,0.030,-0.120
2161,0.060,-0.140
2162,-0.110,-0.040
2163,-0.020,-0.050
2164,-0.050,-0.240
2165,0.000,-0.150
2166,0.010,-0.160
2167,0.060,-0.110
2168,-0.060,-0.090
2169,-0.080,-0.150
2170,-0.040,-0.090
2171,-0.050,-0.230
2172,0.050,-0.150
2173,-0.080,-0.080
2174,-0.040,-0.220
2175,0.050,-0.150
2176,-0.120,-0.100
2177,-0.060,-0.170
2178,0.000,-0.140
2179,-0.070,-0.090
2180,-0.070,-0.140
2181,-0.010,-0.170
2182,-0.040,-0.180
2183,-0.070,-0.070
2184,-0.110,-0.080
2185,0.000,-0.080
2186,0.060,0.030
2187,0.020,0.040
2188,0.090,0.050
2189,0.250,0.040
2190,0.140,-0.060
2191,0.110,-0.030
2192,0.130,-0.090
2193,0.150,-0.120
2194,0.060,-0.180
2195,0.040,-0.060
2196,0.080,-0.150
2197,-0.110,-0.150
2198,-0.070,-0.170
2199,-0.180,-0.180
2200,-0.210,-0.180
2201,-0.170,-0.180
2202,-0.110,-0.190
2203,-0.160,-0.100
2204,-0.140,-0.220
2205,-0.130,-0.110
2206,-0.090,0.010
2207,0.090,0.040
2208,0.330,0.050
2209,0.860,0.220
2210,1.140,0.410
2211,1.810,-0.760
2212,-0.080,-1.500
2213,-1.420,-1.840
2214,-1.930,-1.250
2215,-1.790,-1.280
2216,-1.400,-0.860
2217,-1.060,-0.680
2218,-0.620,-0.400
2219,-0.400,-0.140
2220,-0.420,-0.160
2221,-0.310,-0.100
2222,-0.330,-0.050
2223,-0.290,-0.140
2224,-0.340,-0.060
2225,-0.320,-0.070
2226,-0.270,-0.110
2227,-0.350,-0.090
2228,-0.330,0.030
2229,-0.320,-0.130
2230,-0.290,-0.070
2231,-0.340,-0.090
2232,-0.280,0.010
2233,-0.270,-0.080
2234,-0.230,-0.020
2235,-0.270,-0.010
2236,-0.290,0.000
2237,-0.210,0.020
2238,-0.190,0.100
2239,-0.230,0.060
2240,-0.120,0.030
2241,-0.060,0.110
2242,-0.190,0.150
2243,0.010,-0.040
2244,-0.020,0.110
2245,0.020,0.080
2246,0.060,0.030
2247,0.070,0.100
2248,0.090,0.030
2249,0.160,0.040
2250,0.150,0.030
2251,0.190,0.050
2252,0.270,0.070
2253,0.140,0.030
2254,0.210,0.040
2255,0.140,0.060
2256,0.100,0.020
2257,0.100,-0.030
2258,0.090,0.040
2259,0.040,-0.060
2260,0.050,-0.020
2261,0.050,-0.010
2262,0.000,0.010
2263,0.040,-0.110
2264,-0.060,-0.020
2265,-0.020,0.010
2266,-0.020,-0.030
2267,0.020,-0.040
2268,0.000,-0.010
2269,0.050,0.040
2270,0.020,0.020
2271,-0.040,-0.010
2272,0.010,0.020
2273,-0.030,0.080
2274,-0.020,0.010
2275,0.040,-0.040
2276,0.010,0.090
2277,0.050,-0.080
2278,0.060,0.050
2279,0.030,0.050
2280,0.050,0.050
2281,0.100,0.220
2282,0.570,0.160
2283,1.050,0.350
2284,1.410,0.490
2285,0.740,0.150
2286,0.010,-0.170
2287,-0.740,-0.140
2288,-1.500,-0.200
2289,-1.560,-0.240
2290,-1.560,-0.130
2291,-1.770,-0.220
2292,-2.030,0.150
2293,-1.900,0.320
2294,-1.600,0.770
2295,-1.700,0.550
2296,-1.560,0.110
2297,-1.340,-0.030
2298,-1.170,-0.610
2299,-0.900,-0.590
2300,-0.460,-0.450
2301,-0.440,-0.420
2302,-0.310,-0.360
2303,-0.280,-0.380
2304,-0.390,-0.390
2305,-0.310,-0.380
2306,-0.270,-0.460
2307,-0.330,-0.300
2308,-0.120,-0.350
2309,0.050,-0.220
2310,0.030,-0.110
2311,0.290,-0.460
2312,0.210,-0.320
2313,0.340,-0.330
2314,0.450,-0.320
2315,0.430,-0.350
2316,0.650,-0.340
2317,0.670,-0.360
2318,0.700,-0.330
2319,0.830,-0.410
2320,0.880,-0.350
2321,0.980,-0.370
2322,1.040,-0.330
2323,1.030,-0.360
2324,1.020,-0.260
2325,1.040,-0.210
2326,1.000,-0.180
2327,1.050,-0.160
2328,0.870,-0.080
2329,0.920,-0.030
2330,0.800,0.040
2331,0.840,0.120
2332,0.730,0.180
2333,0.600,0.220
2334,0.560,0.200
2335,0.480,0.200
2336,0.460,0.240
2337,0.440,0.220
2338,0.420,0.150
2339,0.390,0.180
2340,0.380,0.290
2341,0.380,0.070
2342,0.280,0.100
2343,0.360,0.090
2344,0.260,0.110
2345,0.320,0.170
2346,0.280,0.040
2347,0.290,0.080
2348,0.290,0.120
2349,0.200,0.130
2350,0.340,0.040
2351,0.280,0.080
2352,0.270,0.080
2353,0.220,0.080
2354,0.160,0.030
2355,0.140,0.110
2356,0.220,-0.030
2357,0.140,0.080
2358,0.170,-0.010
2359,0.140,0.020
2360,0.150,0.000
2361,0.160,0.040
2362,0.080,-0.040
2363,0.100,-0.030
2364,0.110,-0.010
2365,0.140,-0.020
2366,0.050,-0.030
2367,0.080,-0.030
2368,0.090,-0.030
2369,0.000,0.020
2370,0.010,-0.060
2371,0.060,-0.080
2372,0.070,-0.080
2373,0.030,-0.040
2374,0.000,-0.080
2375,0.040,-0.010
2376,0.030,-0.110
2377,0.050,-0.060
2378,-0.010,0.070
2379,0.030,-0.110
2380,0.020,-0.100
2381,0.050,-0.050
2382,-0.030,-0.050
2383,0.110,-0.090
2384,0.010,-0.090
2385,0.030,-0.050
2386,0.050,-0.060
2387,-0.030,-0.040
2388,0.000,-0.080
2389,-0.070,-0.020
2390,0.020,-0.080
2391,-0.050,-0.030
2392,-0.030,-0.060
2393,0.020,-0.020
2394,-0.040,0.050
2395,-0.070,-0.100
2396,0.020,-0.030
2397,-0.010,-0.030
2398,-0.020,-0.120
2399,-0.080,-0.070
2400,-0.040,-0.020
2401,-0.030,-0.030
2402,-0.040,-0.030
2403,0.000,-0.020
2404,-0.040,-0.010
2405,-0.050,0.010
2406,0.010,-0.050
2407,-0.030,0.000
2408,-0.020,-0.010
2409,-0.070,-0.040
2410,0.010,0.010
2411,0.020,-0.040
2412,-0.030,0.030
2413,0.020,0.100
2414,-0.010,-0.010
2415,-0.030,-0.040
2416,0.000,-0.050
2417,-0.040,0.000
2418,0.010,0.020
2419,0.000,0.000
2420,-0.030,0.000
2421,-0.020,0.010
2422,0.050,0.010
2423,-0.030,0.000
2424,-0.030,-0.010
2425,-0.040,0.000
2426,-0.030,0.010
2427,-0.070,-0.010
2428,-0.050,0.030
2429,0.000,-0.010
2430,-0.010,-0.060
2431,-0.010,-0.130
2432,-0.020,0.040
2433,0.020,-0.050
2434,0.000,-0.070
2435,0.040,-0.010
2436,-0.040,0.000
2437,-0.030,-0.040
2438,0.030,-0.040
2439,0.040,-0.040
2440,-0.030,0.010
2441,0.100,-0.010
2442,-0.060,0.010
2443,0.040,0.020
2444,0.050,0.000
2445,-0.040,0.010
2446,0.030,0.010
2447,0.070,0.020
2448,0.080,0.050
2449,0.110,0.100
2450,0.000,-0.060
2451,0.020,0.070
2452,0.090,0.010
2453,0.040,0.010
2454,0.080,0.100
2455,0.140,0.010
2456,0.130,0.040
2457,0.050,0.040
2458,0.120,0.150
2459,0.100,0.090
2460,0.180,0.200
2461,0.150,0.280
2462,0.310,0.190
2463,0.330,0.180
2464,0.380,0.130
2465,0.300,0.160
2466,0.220,0.090
2467,0.290,0.080
2468,0.120,0.020
2469,0.220,0.020
2470,0.090,0.050
2471,0.100,0.020
2472,0.040,-0.010
2473,0.010,-0.020
2474,-0.030,-0.050
2475,-0.060,-0.010
2476,0.010,-0.010
2477,-0.080,0.000
2478,-0.030,-0.050
2479,-0.080,-0.030
2480,0.010,0.080
2481,0.150,0.120
2482,0.350,0.170
2483,0.890,0.390
2484,1.070,-0.160
2485,1.630,-1.090
2486,0.170,-1.560
2487,-1.170,-1.890
2488,-1.970,-1.480
2489,-1.800,-1.400
2490,-1.170,-0.830
2491,-1.010,-0.540
2492,-0.610,-0.330
2493,-0.310,-0.050
2494,-0.350,0.030
2495,-0.240,0.030
2496,-0.250,0.040
2497,-0.200,0.050
2498,-0.240,0.080
2499,-0.300,0.090
2500,-0.280,0.120
2501,-0.230,0.060
2502,-0.260,0.110
2503,-0.180,0.120
2504,-0.240,0.150
2505,-0.210,0.130
2506,-0.260,0.170
2507,-0.200,0.130
2508,-0.230,0.160
2509,-0.070,0.200
2510,-0.130,0.210
2511,-0.160,0.240
2512,-0.040,0.270
2513,-0.020,0.290
2514,0.010,0.320
2515,-0.050,0.250
2516,-0.010,0.320
2517,0.040,0.360
2518,0.160,0.310
2519,0.140,0.310
2520,0.170,0.320
2521,0.190,0.310
2522,0.200,0.310
2523,0.170,0.300
2524,0.120,0.310
2525,0.320,0.320
2526,0.270,0.340
2527,0.230,0.290
2528,0.230,0.240
2529,0.310,0.150
2530,0.190,0.230
2531,0.070,0.180
2532,0.020,0.140
2533,0.090,0.120
2534,0.060,0.110
2535,-0.050,0.110
2536,0.070,0.090
2537,0.010,0.100
2538,0.010,0.070
2539,-0.020,0.120
2540,-0.020,0.140
2541,-0.100,0.000
2542,-0.010,0.130
2543,-0.020,0.080
2544,0.000,0.110
2545,0.050,0.140
2546,-0.060,0.090
2547,-0.020,0.140
2548,-0.050,0.170
2549,-0.010,0.100
2550,-0.060,0.120
2551,-0.040,0.100
2552,-0.070,0.110
2553,0.000,0.100
2554,-0.030,0.100
2555,-0.030,0.020
2556,0.020,0.100
2557,-0.040,0.040
2558,-0.030,0.050
2559,0.030,0.060
2560,-0.030,0.050
2561,-0.090,0.020
2562,-0.040,-0.020
2563,-0.010,0.030
2564,-0.070,-0.010
2565,-0.020,0.000
2566,-0.010,0.010
2567,-0.040,-0.010
2568,-0.030,0.010
2569,-0.060,0.020
2570,-0.020,0.020
2571,-0.040,-0.010
2572,-0.030,-0.010
2573,-0.030,-0.010
2574,0.000,0.030
2575,0.130,0.000
2576,-0.060,0.000
2577,-0.090,-0.020
2578,0.000,-0.080
2579,0.110,-0.030
2580,-0.060,0.070
2581,-0.070,-0.160
2582,0.440,-0.030
2583,-0.320,0.030
2584,-0.180,0.000
2585,-0.080,-0.010
2586,-0.100,-0.020
2587,-0.100,-0.040
2588,-0.040,-0.010
2589,-0.020,-0.040
2590,-0.030,-0.040
2591,-0.010,-0.020
2592,-0.010,-0.020
2593,-0.030,-0.050
2594,-0.060,-0.020
2595,-0.060,-0.040
2596,-0.060,-0.060
2597,-0.060,0.010
2598,-0.030,-0.050
2599,-0.080,-0.040
2600,-0.050,-0.040
2601,-0.030,-0.020
2602,-0.040,0.000
2603,-0.100,-0.050
2604,0.010,-0.010
2605,-0.040,0.010
2606,0.030,0.040
2607,0.030,0.080
2608,0.120,0.120
2609,0.180,0.130
2610,0.280,0.120
2611,0.230,0.070
2612,0.150,0.040
2613,0.100,0.020
2614,0.200,-0.040
2615,0.060,-0.040
2616,0.090,-0.060
2617,0.140,0.020
2618,0.050,-0.060
2619,0.000,-0.080
2620,0.030,-0.050
2621,-0.100,-0.120
2622,-0.050,-0.110
2623,-0.080,-0.070
2624,-0.050,-0.110
2625,0.110,-0.080
2626,-0.100,-0.060
2627,0.080,0.080
2628,0.280,0.090
2629,0.730,0.180
2630,1.040,0.250
2631,1.610,-0.180
2632,1.150,-1.300
2633,-0.110,-1.780
2634,-1.590,-2.050
2635,-1.940,-1.470
2636,-1.740,-1.370
2637,-1.120,-0.960
2638,-0.700,-0.560
2639,-0.440,-0.350
2640,-0.300,-0.150
2641,-0.240,-0.100
2642,-0.160,-0.100
2643,-0.120,-0.040
2644,-0.220,-0.070
2645,-0.130,-0.030
2646,-0.120,-0.040
2647,-0.120,-0.010
2648,-0.150,0.000
2649,-0.140,0.000
2650,-0.170,0.040
2651,-0.150,0.060
2652,-0.140,0.030
2653,-0.090,0.070
2654,-0.080,0.110
2655,-0.080,0.150
2656,-0.060,0.140
2657,-0.050,0.200
2658,-0.060,0.140
2659,0.030,0.220
2660,-0.070,0.150
2661,0.020,0.230
2662,0.020,0.250
2663,0.100,0.230
2664,0.070,0.200
2665,0.140,0.280
2666,0.160,0.220
2667,0.160,0.280
2668,0.190,0.260
2669,0.220,0.210
2670,0.270,0.190
2671,0.360,0.230
2672,0.410,0.250
2673,0.340,0.270
2674,0.290,0.250
2675,0.410,0.230
2676,0.310,0.230
2677,0.260,0.190
2678,0.150,0.210
2679,0.220,0.160
2680,0.200,0.150
2681,0.200,0.100
2682,0.170,0.150
2683,0.060,0.140
2684,0.170,0.120
2685,0.050,0.080
2686,0.140,0.170
2687,0.110,0.130
2688,-0.020,0.120
2689,0.150,0.150
2690,0.160,0.140
2691,0.130,0.200
2692,0.080,0.140
2693,0.160,0.110
2694,0.160,0.140
2695,0.080,0.120
2696,0.160,0.130
2697,0.230,0.180
2698,0.150,0.090
2699,0.140,0.150
2700,0.140,0.100
2701,0.270,0.140
2702,0.200,0.120
2703,0.400,0.250
2704,0.960,0.450
2705,1.460,0.520
2706,1.670,0.540
2707,0.900,0.190
2708,-0.240,-0.050
2709,-0.880,-0.170
2710,-1.410,-0.200
2711,-1.450,-0.190
2712,-1.720,-0.250
2713,-1.900,-0.300
2714,-1.790,0.130
2715,-1.810,0.570
2716,-1.490,0.590
2717,-1.590,0.350
2718,-1.350,-0.060
2719,-1.170,-0.450
2720,-0.940,-0.430
2721,-0.500,-0.490
2722,-0.250,-0.390
2723,-0.250,-0.310
2724,-0.250,-0.290
2725,-0.140,-0.240
2726,-0.180,-0.250
2727,-0.240,-0.370
2728,-0.120,-0.340
2729,-0.030,-0.220
2730,0.230,-0.150
2731,0.340,-0.110
2732,0.210,-0.100
2733,0.290,-0.170
2734,0.450,-0.140
2735,0.580,-0.190
2736,0.610,-0.070
2737,0.740,-0.110
2738,0.740,-0.210
2739,0.690,-0.150
2740,0.970,-0.180
2741,0.950,-0.180
2742,1.100,-0.190
2743,1.100,-0.150
2744,1.140,-0.100
2745,1.140,-0.080
2746,1.140,-0.060
2747,1.120,0.020
2748,1.160,0.070
2749,0.910,0.150
2750,0.860,0.170
2751,0.970,0.250
2752,0.910,0.300
2753,0.600,0.360
2754,0.770,0.330
2755,0.610,0.390
2756,0.600,0.360
2757,0.410,0.330
2758,0.360,0.390
2759,0.420,0.250
2760,0.330,0.400
2761,0.270,0.240
2762,0.290,0.300
2763,0.310,0.260
2764,0.270,0.230
2765,0.200,0.240
2766,0.210,0.230
2767,0.260,0.220
2768,0.260,0.210
2769,0.170,0.280
2770,0.190,0.250
2771,0.170,0.140
2772,0.200,0.130
2773,0.100,0.210
2774,0.130,0.130
2775,0.130,0.240
2776,0.080,0.150
2777,0.080,0.140
2778,0.100,0.130
2779,0.010,0.150
2780,0.060,0.210
2781,0.080,0.070
2782,0.040,0.150
2783,0.030,0.070
2784,-0.020,0.140
2785,0.030,0.070
2786,0.040,0.020
2787,-0.080,0.070
2788,0.140,-0.050
2789,0.000,0.170
2790,0.000,-0.020
2791,0.110,-0.010
2792,0.040,0.070
2793,-0.060,-0.020
2794,-0.010,0.020
2795,-0.040,0.010
2796,0.020,-0.080
2797,-0.090,-0.090
2798,0.000,0.020
2799,-0.080,-0.070
2800,-0.020,-0.040
2801,-0.040,-0.070
2802,-0.090,-0.100
2803,-0.070,-0.070
2804,-0.050,-0.120
2805,-0.030,-0.030
2806,-0.060,-0.130
2807,-0.040,-0.040
2808,-0.030,-0.050
2809,-0.060,-0.060
2810,-0.140,-0.010
2811,-0.070,-0.010
2812,-0.080,-0.030
2813,-0.110,0.030
2814,-0.090,0.010
2815,0.020,0.030
2816,-0.160,-0.010
2817,-0.070,0.050
2818,-0.050,-0.030
2819,-0.060,0.010
2820,0.010,0.090
2821,-0.050,0.040
2822,-0.090,0.090
2823,-0.110,0.030
2824,-0.030,0.050
2825,-0.120,0.070
2826,0.000,0.100
2827,-0.070,0.060
2828,-0.100,0.090
2829,-0.020,0.240
2830,-0.070,-0.030
2831,-0.090,0.100
2832,-0.010,0.110
2833,-0.010,0.080
2834,0.000,0.130
2835,-0.040,0.090
2836,-0.010,0.120
2837,-0.080,0.190
2838,-0.050,0.060
2839,-0.110,0.170
2840,-0.070,0.100
2841,-0.120,0.090
2842,0.030,0.050
2843,-0.060,0.100
2844,-0.080,0.190
2845,-0.020,0.130
2846,-0.100,0.020
2847,0.040,0.060
2848,-0.090,0.140
2849,-0.080,0.040
2850,-0.040,0.110
2851,-0.040,0.090
2852,-0.090,0.100
2853,-0.130,0.160
2854,-0.040,0.070
2855,0.140,0.070
2856,-0.080,0.010
2857,-0.040,0.120
2858,-0.030,0.150
2859,-0.150,0.000
2860,0.070,0.160
2861,0.050,0.090
2862,-0.090,0.320
2863,0.090,0.040
2864,0.150,0.240
2865,0.030,0.160
2866,0.100,0.320
2867,0.210,0.330
2868,0.320,0.300
2869,0.230,0.160
2870,0.180,0.230
2871,0.240,0.250
2872,0.160,0.210
2873,0.130,0.040
2874,0.060,0.060
2875,0.110,0.160
2876,0.040,0.210
2877,-0.030,0.050
2878,-0.090,0.040
2879,-0.060,0.080
2880,-0.020,0.160
2881,-0.070,0.140
2882,-0.110,0.120
2883,-0.080,0.070
2884,-0.090,0.230
2885,0.140,0.370
2886,0.260,0.200
2887,0.820,0.410
2888,0.980,0.660
2889,1.530,-0.340
2890,0.680,-1.250
2891,-0.550,-1.640
2892,-2.130,-1.770
2893,-1.790,-1.390
2894,-1.580,-1.070
2895,-1.170,-0.800
2896,-0.650,-0.260
2897,-0.350,-0.010
2898,-0.320,-0.010
2899,-0.190,0.160
2900,-0.310,0.110
2901,-0.210,0.230
2902,-0.150,0.080
2903,-0.210,0.210
2904,-0.270,0.310
2905,-0.090,0.010
2906,-0.260,0.130
2907,-0.180,0.180
2908,-0.120,0.220
2909,-0.280,0.170
2910,-0.190,0.190
2911,-0.180,0.260
2912,-0.120,0.260
2913,-0.180,0.250
2914,-0.210,0.210
2915,-0.100,0.380
2916,-0.120,0.290
2917,-0.110,0.240
2918,-0.100,0.530
2919,-0.010,0.160
2920,-0.080,0.310
2921,-0.050,0.370
2922,0.030,0.370
2923,0.000,0.380
2924,0.060,0.380
2925,0.110,0.430
2926,0.080,0.410
2927,0.130,0.420
2928,0.110,0.420
2929,0.210,0.430
2930,0.170,0.410
2931,0.260,0.440
2932,0.230,0.360
2933,0.210,0.390
2934,0.270,0.360
2935,0.130,0.280
2936,0.130,0.280
2937,0.090,0.230
2938,0.060,0.260
2939,0.000,0.300
2940,0.040,0.100
2941,0.040,0.080
2942,0.080,0.190
2943,0.000,0.150
2944,0.010,0.160
2945,-0.010,0.180
2946,-0.020,0.190
2947,0.020,0.180
2948,-0.050,0.170
2949,0.090,0.220
2950,0.020,0.210
2951,0.080,0.220
2952,0.060,0.200
2953,0.040,0.200
2954,0.030,0.190
2955,0.050,0.270
2956,0.040,0.160
2957,0.000,0.070
2958,0.100,0.130
2959,0.050,0.150
2960,-0.040,0.060
2961,0.000,0.120
2962,0.000,0.080
2963,0.010,0.110
2964,-0.010,0.010
2965,0.020,0.080
2966,-0.110,0.000
2967,-0.050,0.100
2968,0.030,0.000
2969,-0.080,-0.010
2970,-0.030,0.020
2971,0.000,0.070
2972,-0.100,-0.060
2973,-0.080,0.010
2974,-0.050,0.090
2975,-0.070,-0.030
2976,-0.030,-0.020
2977,-0.050,-0.090
2978,-0.060,0.030
2979,-0.100,-0.050
2980,-0.060,0.050
2981,-0.060,-0.050
2982,-0.110,-0.080
2983,-0.100,-0.010
2984,-0.120,-0.020
2985,-0.050,-0.010
2986,-0.150,-0.050
2987,-0.030,-0.130
2988,-0.170,-0.010
2989,-0.060,-0.070
2990,-0.160,-0.020
2991,-0.100,-0.100
2992,-0.120,-0.090
2993,-0.140,-0.070
2994,-0.060,-0.020
2995,-0.130,-0.110
2996,-0.120,-0.150
2997,-0.120,-0.090
2998,-0.110,-0.040
2999,-0.130,-0.120
3000,-0.140,-0.080
3001,-0.130,0.030
3002,-0.050,-0.050
3003,-0.010,-0.080
3004,-0.050,0.030
3005,0.120,0.040
3006,0.190,0.030
3007,0.060,-0.030
3008,0.030,-0.050
3009,-0.020,-0.060
3010,0.020,-0.130
3011,-0.040,-0.110
3012,-0.030,-0.140
3013,-0.020,-0.040
3014,-0.110,-0.150
3015,-0.140,-0.210
3016,-0.220,-0.160
3017,-0.270,-0.130
3018,-0.200,-0.250
3019,-0.260,-0.160
3020,-0.230,-0.110
3021,-0.220,-0.200
3022,-0.110,-0.130
3023,-0.050,-0.010
3024,0.090,0.040
3025,0.520,0.070
3026,0.870,0.280
3027,1.400,0.250
3028,1.070,-1.160
3029,-0.280,-1.650
3030,-1.810,-1.810
3031,-1.910,-1.320
3032,-1.800,-1.390
3033,-1.240,-0.880
3034,-0.900,-0.670
3035,-0.540,-0.360
3036,-0.340,-0.170
3037,-0.370,-0.160
3038,-0.330,-0.130
3039,-0.290,-0.100
3040,-0.260,-0.120
3041,-0.240,-0.040
3042,-0.260,-0.070
3043,-0.310,-0.040
3044,-0.240,-0.160
3045,-0.260,-0.050
3046,-0.260,-0.100
3047,-0.130,-0.080
3048,-0.270,-0.030
3049,-0.170,-0.060
3050,-0.260,0.030
3051,-0.270,0.010
3052,-0.100,-0.050
3053,-0.270,0.030
3054,-0.120,0.010
3055,-0.130,0.040
3056,-0.040,0.060
3057,-0.240,0.070
3058,-0.090,0.070
3059,-0.050,0.030
3060,0.010,0.050
3061,0.000,-0.020
3062,0.120,-0.010
3063,0.050,0.090
3064,0.020,0.050
3065,-0.090,-0.010
3066,0.150,0.010
3067,0.150,0.020
3068,0.260,0.030
3069,0.210,0.020
3070,0.210,0.050
3071,0.110,0.080
3072,0.050,0.050
3073,0.060,0.030
3074,0.020,-0.030
3075,0.130,0.040
3076,0.040,-0.010
3077,0.170,0.020
3078,-0.160,0.030
3079,0.100,0.000
3080,-0.010,0.000
3081,0.200,-0.010
3082,0.050,0.020
3083,0.000,0.020
3084,0.110,0.060
3085,-0.020,0.080
3086,0.100,0.090
3087,0.010,0.050
3088,0.220,0.060
3089,0.100,0.100
3090,0.090,0.110
3091,0.040,0.090
3092,0.330,0.080
3093,-0.030,0.110
3094,0.150,0.120
3095,0.140,0.090
3096,0.150,0.090
3097,0.350,0.010
3098,0.300,0.100
3099,-0.110,0.140
3100,0.060,0.100
3101,0.160,0.060
3102,0.190,0.080
3103,0.160,0.080
3104,0.140,0.060
3105,0.130,0.070
3106,0.110,0.070
3107,0.100,0.050
3108,0.160,0.070
3109,0.140,0.070
3110,0.120,0.050
3111,0.110,0.060
3112,0.170,0.070
3113,0.140,0.060
3114,0.210,0.020
3115,0.200,0.080
3116,-0.040,0.060
3117,0.120,0.050
3118,0.100,0.040
3119,0.110,0.020
3120,0.160,0.050
3121,0.100,0.040
3122,0.120,0.040
3123,0.120,0.050
3124,0.120,0.030
3125,0.100,0.000
3126,0.270,0.000
3127,0.110,0.090
3128,-0.060,0.050
3129,0.050,0.080
3130,0.100,0.070
3131,0.140,0.070
3132,0.100,0.100
3133,0.150,0.130
3134,0.200,0.160
3135,0.170,0.180
3136,0.270,0.210
3137,0.380,0.210
3138,0.320,0.160
3139,0.260,0.130
3140,0.310,0.120
3141,0.260,0.130
3142,0.170,0.010
3143,0.240,0.060
3144,0.160,0.020
3145,0.100,0.030
3146,0.130,0.010
3147,0.040,-0.020
3148,0.030,-0.010
3149,0.020,-0.020
3150,0.050,-0.030
3151,0.010,-0.020
3152,0.070,-0.020
3153,0.040,-0.050
3154,0.050,-0.010
3155,0.290,0.110
3156,0.370,0.110
3157,0.840,0.160
3158,1.190,0.340
3159,1.780,-0.470
3160,0.140,-1.370
3161,-0.830,-1.760
3162,-1.940,-1.620
3163,-1.620,-1.350
3164,-1.360,-1.010
3165,-0.980,-0.760
3166,-0.500,-0.400
3167,-0.260,-0.180
3168,-0.220,-0.050
3169,-0.120,-0.030
3170,-0.140,-0.020
3171,-0.080,0.010
3172,-0.180,0.000
3173,-0.030,0.060
3174,-0.120,0.000
3175,-0.090,0.050
3176,-0.070,0.060
3177,-0.160,0.040
3178,-0.110,0.070
3179,-0.100,0.080
3180,-0.060,0.120
3181,-0.070,0.060
3182,-0.050,0.120
3183,-0.080,0.110
3184,-0.030,0.130
3185,-0.050,0.150
3186,-0.030,0.170
3187,-0.010,0.180
3188,0.050,0.180
3189,0.060,0.210
3190,0.100,0.220
3191,0.130,0.160
3192,0.150,0.200
3193,0.200,0.180
3194,0.110,0.160
3195,0.180,0.140
3196,0.190,0.120
3197,0.320,0.160
3198,0.260,0.150
3199,0.400,0.110
3200,0.230,0.160
3201,0.350,0.150
3202,0.320,0.140
3203,0.320,0.150
3204,0.270,0.130
3205,0.290,0.130
3206,0.240,0.100
3207,0.130,0.080
3208,0.200,0.020
3209,0.210,0.080
3210,0.170,0.060
3211,0.180,0.090
3212,0.160,0.090
3213,0.190,0.080
3214,0.500,0.090
3215,-0.090,0.090
3216,0.000,0.080
3217,0.080,0.110
3218,0.120,0.110
3219,0.150,0.100
3220,0.190,0.130
3221,0.140,0.130
3222,0.130,0.090
3223,0.130,0.080
3224,0.110,0.090
3225,0.150,0.060
3226,0.160,0.090
3227,0.140,0.050
3228,0.140,0.050
3229,0.140,0.030
3230,0.100,0.020
3231,0.110,0.040
3232,0.130,0.000
3233,0.030,-0.010
3234,-0.010,-0.040
3235,0.090,-0.010
3236,0.070,-0.030
3237,0.070,-0.020
3238,0.090,-0.030
3239,0.080,-0.020
3240,-0.010,-0.080
3241,0.000,-0.020
3242,0.110,-0.030
3243,-0.100,-0.070
3244,0.080,-0.060
3245,0.010,-0.060
3246,-0.010,-0.070
3247,0.050,-0.050
3248,0.010,-0.070
3249,-0.040,-0.050
3250,-0.010,-0.070
3251,0.000,-0.070
3252,0.000,-0.050
3253,-0.050,-0.060
3254,0.020,-0.040
3255,0.020,-0.030
3256,0.000,-0.040
3257,-0.010,-0.020
3258,-0.060,-0.050
3259,0.020,-0.020
3260,-0.020,-0.050
3261,0.090,-0.010
3262,-0.010,-0.030
3263,0.090,0.000
3264,0.100,0.050
3265,0.130,0.080
3266,0.180,0.140
3267,0.290,0.150
3268,0.280,0.090
3269,0.200,0.060
3270,0.150,0.050
3271,0.220,0.040
3272,0.200,-0.020
3273,0.130,-0.030
3274,0.150,-0.040
3275,0.110,-0.020
3276,0.000,-0.010
3277,-0.060,-0.060
3278,-0.050,-0.090
3279,-0.080,-0.070
3280,-0.010,-0.060
3281,-0.080,-0.100
3282,0.020,-0.060
3283,-0.010,-0.050
3284,-0.010,-0.030
3285,0.230,0.110
3286,0.260,0.090
3287,0.740,0.160
3288,1.020,0.370
3289,1.640,-0.230
3290,0.320,-1.330
3291,-0.590,-1.720
3292,-1.900,-1.760
3293,-1.650,-1.330
3294,-1.530,-1.140
3295,-1.110,-0.860
3296,-0.620,-0.490
3297,-0.380,-0.270
3298,-0.210,-0.130
3299,-0.120,-0.080
3300,-0.190,-0.060
3301,-0.110,-0.040
3302,-0.130,-0.040
3303,-0.140,-0.030
3304,-0.120,0.000
3305,-0.140,0.000
3306,-0.070,0.030
3307,-0.170,-0.020
3308,-0.080,0.030
3309,-0.120,0.050
3310,-0.080,0.050
3311,-0.080,0.060
3312,-0.060,0.060
3313,-0.130,0.110
3314,-0.070,0.130
3315,-0.020,0.120
3316,-0.040,0.140
3317,0.020,0.170
3318,0.070,0.200
3319,0.090,0.200
3320,0.080,0.190
3321,0.060,0.160
3322,0.120,0.180
3323,0.100,0.130
3324,0.180,0.150
3325,0.230,0.140
3326,0.230,0.100
3327,0.220,0.130
3328,0.300,0.120
3329,0.360,0.140
3330,0.260,0.120
3331,0.230,0.120
3332,0.350,0.150
3333,0.290,0.090
3334,0.280,0.090
3335,0.210,0.090
3336,0.310,0.070
3337,0.140,0.040
3338,0.120,0.030
3339,0.140,0.050
3340,0.120,0.010
3341,0.210,0.050
3342,0.140,0.000
3343,0.140,0.000
3344,0.150,0.050
3345,0.230,0.050
3346,0.160,0.030
3347,0.130,0.040
3348,0.160,0.050
3349,0.150,0.060
3350,0.140,0.050
3351,0.190,0.090
3352,0.200,0.080
3353,0.200,0.090
3354,0.180,0.100
3355,0.210,0.080
3356,0.140,0.070
3357,0.180,0.070
3358,0.150,0.070
3359,0.230,0.040
3360,0.170,0.040
3361,0.130,0.010
3362,0.170,0.030
3363,0.170,0.030
3364,0.140,0.010
3365,0.140,0.010
3366,0.120,0.000
3367,0.100,-0.010
3368,0.150,-0.010
3369,0.200,0.020
3370,0.130,-0.020
3371,0.140,-0.010
3372,0.150,0.030
3373,0.140,0.000
3374,0.170,0.000
3375,0.140,0.020
3376,0.120,-0.010
3377,0.160,0.010
3378,0.150,0.010
3379,0.110,-0.020
3380,0.150,-0.010
3381,0.130,0.000
3382,0.120,-0.010
3383,0.090,-0.010
3384,0.060,-0.030
3385,0.140,-0.030
3386,0.100,-0.020
3387,0.110,-0.020
3388,0.120,-0.020
3389,0.090,-0.040
3390,0.010,-0.040
3391,0.080,-0.040
3392,0.060,-0.060
3393,0.050,-0.030
3394,0.090,-0.040
3395,0.120,-0.030
3396,0.150,0.000
3397,0.210,0.040
3398,0.160,0.050
3399,0.240,0.120
3400,0.340,0.130
3401,0.360,0.090
3402,0.270,0.040
3403,0.280,0.020
3404,0.290,0.000
3405,0.260,-0.040
3406,0.190,-0.060
3407,0.180,-0.070
3408,0.150,-0.060
3409,0.080,-0.030
3410,0.020,-0.090
3411,-0.030,-0.110
3412,0.020,-0.090
3413,0.010,-0.080
3414,-0.020,-0.080
3415,0.070,-0.040
3416,-0.030,-0.080
3417,0.020,-0.030
3418,0.260,0.120
3419,0.330,0.110
3420,0.800,0.240
3421,1.150,0.380
3422,1.740,-0.260
3423,0.200,-1.300
3424,-0.750,-1.710
3425,-2.000,-1.680
3426,-1.670,-1.340
3427,-1.410,-1.000
3428,-1.060,-0.780
3429,-0.540,-0.390
3430,-0.280,-0.170
3431,-0.160,-0.030
3432,-0.120,0.010
3433,-0.090,0.030
3434,-0.110,0.040
3435,-0.100,0.070
3436,-0.140,0.030
3437,-0.120,0.060
3438,-0.110,0.070
3439,-0.120,0.080
3440,-0.080,0.080
3441,-0.080,0.100
3442,-0.090,0.100
3443,-0.100,0.110
3444,-0.090,0.120
3445,-0.080,0.120
3446,-0.060,0.170
3447,-0.060,0.130
3448,-0.030,0.180
3449,-0.010,0.190
3450,0.040,0.230
3451,0.030,0.210
3452,-0.010,0.230
3453,0.030,0.240
3454,0.060,0.230
3455,0.120,0.220
3456,0.100,0.200
3457,0.140,0.190
3458,0.150,0.180
3459,0.190,0.150
3460,0.170,0.130
3461,0.200,0.150
3462,0.220,0.150
3463,0.240,0.150
3464,0.210,0.160
3465,0.210,0.140
3466,0.160,0.130
3467,0.180,0.110
3468,0.160,0.110
3469,0.130,0.070
3470,0.080,0.050
3471,0.020,0.040
3472,0.080,0.050
3473,0.050,0.040
3474,0.090,0.060
3475,0.070,0.040
3476,-0.020,0.040
3477,0.040,0.070
3478,0.050,0.060
3479,0.060,0.080
3480,0.040,0.100
3481,0.050,0.090
3482,0.010,0.110
3483,0.060,0.120
3484,0.070,0.110
3485,0.110,0.130
3486,0.030,0.110
3487,0.070,0.130
3488,0.010,0.100
3489,0.070,0.120
3490,0.020,0.100
3491,0.060,0.100
3492,0.030,0.080
3493,0.020,0.060
3494,0.030,0.060
3495,0.030,0.060
3496,0.000,0.060
3497,0.010,0.050
3498,-0.050,0.030
3499,-0.040,0.020
3500,-0.010,0.020
3501,-0.070,0.000
3502,-0.010,-0.010
3503,-0.040,0.000
3504,-0.040,-0.010
3505,-0.070,-0.020
3506,-0.050,-0.020
3507,-0.030,-0.020
3508,-0.120,-0.040
3509,-0.100,-0.040
3510,-0.060,-0.060
3511,-0.070,-0.060
3512,-0.060,-0.070
3513,-0.100,-0.080
3514,-0.090,-0.060
3515,-0.090,-0.070
3516,-0.110,-0.100
3517,-0.120,-0.090
3518,-0.100,-0.100
3519,-0.120,-0.110
3520,-0.070,-0.100
3521,-0.070,-0.110
3522,-0.100,-0.110
3523,-0.070,-0.120
3524,-0.100,-0.100
3525,-0.130,-0.120
3526,-0.120,-0.120
3527,-0.130,-0.130
3528,-0.110,-0.120
3529,-0.070,-0.100
3530,-0.030,-0.080
3531,-0.070,-0.080
3532,-0.020,-0.010
3533,-0.020,0.020
3534,0.040,0.060
3535,0.130,0.040
3536,0.070,0.010
3537,0.080,-0.010
3538,0.060,-0.050
3539,0.110,-0.010
3540,-0.030,-0.140
3541,-0.050,-0.100
3542,-0.070,-0.070
3543,-0.080,-0.090
3544,-0.130,-0.080
3545,-0.170,-0.110
3546,-0.180,-0.140
3547,-0.260,-0.150
3548,-0.210,-0.120
3549,-0.190,-0.110
3550,-0.200,-0.130
3551,-0.150,-0.090
3552,-0.200,-0.080
3553,0.040,0.030
3554,0.160,0.070
3555,0.630,0.160
3556,0.930,0.290
3557,1.590,-0.600
3558,-0.160,-1.420
3559,-1.110,-1.760
3560,-2.190,-1.620
3561,-1.840,-1.410
3562,-1.480,-1.020
3563,-1.250,-0.850
3564,-0.710,-0.500
3565,-0.490,-0.250
3566,-0.440,-0.180
3567,-0.340,-0.140
3568,-0.400,-0.130
3569,-0.380,-0.120
3570,-0.420,-0.100
3571,-0.370,-0.080
3572,-0.390,-0.090
3573,-0.340,-0.060
3574,-0.360,-0.060
3575,-0.350,-0.040
3576,-0.320,-0.010
3577,-0.370,-0.010
3578,-0.350,0.020
3579,-0.330,0.040
3580,-0.320,0.040
3581,-0.280,0.050
3582,-0.310,0.080
3583,-0.260,0.080
3584,-0.250,0.130
3585,-0.230,0.130
3586,-0.200,0.120
3587,-0.190,0.140
3588,-0.190,0.140
3589,-0.140,0.140
3590,-0.040,0.120
3591,-0.070,0.110
3592,-0.060,0.100
3593,0.010,0.100
3594,0.020,0.080
3595,0.010,0.080
3596,0.080,0.090
3597,0.060,0.080
3598,0.090,0.110
3599,0.120,0.080
3600,0.100,0.080
3601,0.080,0.100
3602,0.060,0.060
3603,0.020,0.060
3604,0.010,0.040
3605,-0.040,0.030
3606,-0.030,0.020
3607,-0.080,0.030
3608,-0.040,0.010
3609,-0.050,0.000
3610,-0.010,0.020
3611,-0.040,0.000
3612,-0.090,0.030
3613,-0.030,0.020
3614,-0.040,0.040
3615,-0.100,0.020
3616,-0.090,0.040
3617,-0.020,0.040
3618,-0.010,0.060
3619,-0.010,0.050
3620,-0.010,0.050
3621,-0.050,0.060
3622,-0.020,0.050
3623,-0.030,0.050
3624,-0.010,0.050
3625,-0.060,0.040
3626,-0.040,0.030
3627,-0.020,0.010
3628,-0.040,0.010
3629,-0.050,0.020
3630,-0.070,0.010
3631,-0.090,0.000
3632,-0.130,-0.030
3633,-0.100,-0.040
3634,-0.110,-0.020
3635,-0.080,-0.020
3636,-0.120,-0.030
3637,-0.110,-0.020
3638,-0.100,-0.010
3639,-0.110,-0.030
3640,-0.150,-0.040
3641,-0.140,-0.030
3642,-0.100,-0.030
3643,-0.130,-0.030
3644,-0.150,-0.040
3645,-0.130,-0.030
3646,-0.100,-0.010
3647,-0.140,-0.020
3648,-0.180,-0.010
3649,-0.090,0.000
3650,-0.150,0.030
3651,-0.160,0.020
3652,-0.170,0.010
3653,-0.060,-0.070
3654,-0.120,0.120
3655,-0.090,-0.130
3656,-0.140,0.060
3657,-0.150,-0.020
3658,-0.100,-0.010
3659,-0.140,-0.020
3660,-0.140,-0.070
3661,-0.100,0.030
3662,-0.160,-0.010
3663,-0.150,0.010
3664,-0.160,-0.120
3665,-0.180,0.060
3666,-0.060,-0.110
3667,-0.070,0.100
3668,-0.180,-0.070
3669,-0.050,0.120
3670,-0.040,0.090
3671,0.100,0.070
3672,0.130,0.150
3673,-0.010,0.010
3674,-0.070,0.030
3675,-0.010,0.060
3676,-0.080,-0.150
3677,-0.110,-0.040
3678,-0.060,-0.110
3679,-0.110,-0.020
3680,-0.170,-0.010
3681,-0.180,-0.110
3682,-0.270,-0.040
3683,-0.320,-0.110
3684,-0.250,-0.010
3685,-0.150,-0.020
3686,-0.290,-0.090
3687,-0.290,0.000
3688,-0.140,0.010
3689,-0.100,0.090
3690,0.060,0.100
3691,0.440,0.170
3692,0.690,0.400
3693,1.040,-0.150
3694,0.770,-1.170
3695,-0.290,-1.620
3696,-1.840,-1.830
3697,-1.900,-1.320
3698,-1.780,-1.300
3699,-1.250,-0.810
3700,-0.870,-0.460
3701,-0.610,-0.230
3702,-0.400,-0.070
3703,-0.460,-0.050
3704,-0.430,-0.030
3705,-0.420,-0.040
3706,-0.340,0.010
3707,-0.360,-0.030
3708,-0.280,0.000
3709,-0.360,0.050
3710,-0.370,0.060
3711,-0.370,0.000
3712,-0.290,0.050
3713,-0.340,0.080
3714,-0.390,0.030
3715,-0.260,0.060
3716,-0.280,0.050
3717,-0.290,0.120
3718,-0.250,0.120
3719,-0.230,0.160
3720,-0.300,0.160
3721,-0.220,0.290
3722,-0.290,0.120
3723,-0.170,0.210
3724,-0.180,0.120
3725,-0.130,0.220
3726,-0.050,0.210
3727,-0.040,0.150
3728,0.000,0.180
3729,-0.080,0.190
3730,0.060,0.170
3731,0.000,0.110
3732,0.120,0.060
3733,0.090,0.170
3734,0.200,0.300
3735,0.090,0.070
3736,0.060,0.230
3737,0.080,0.110
3738,0.110,0.120
3739,0.010,0.120
3740,-0.030,0.100
3741,-0.010,-0.030
3742,0.070,0.060
3743,-0.030,0.140
3744,-0.060,0.130
3745,-0.050,0.030
3746,-0.060,0.130
3747,-0.040,0.070
3748,-0.150,0.010
3749,-0.010,0.060
3750,-0.070,0.150
3751,-0.140,0.110
3752,0.010,0.130
3753,-0.010,0.100
3754,0.030,0.060
3755,-0.150,0.260
3756,-0.020,0.120
3757,-0.040,0.090
3758,0.010,0.170
3759,-0.120,0.130
3760,-0.030,0.100
3761,0.030,0.050
3762,0.030,0.100
3763,-0.210,0.140
3764,-0.030,0.060
3765,-0.080,0.200
3766,-0.190,0.060
3767,-0.060,-0.030
3768,-0.040,0.060
3769,-0.110,0.050
3770,-0.140,0.120
3771,0.000,-0.010
3772,-0.140,0.070
3773,-0.170,0.040
3774,-0.110,0.070
3775,-0.070,0.060
3776,-0.150,0.110
3777,-0.130,-0.120
3778,-0.130,0.040
3779,-0.180,0.010
3780,-0.070,0.020
3781,-0.160,-0.010
3782,-0.150,-0.010
3783,-0.130,0.090
3784,-0.230,-0.070
3785,-0.210,-0.010
3786,-0.100,0.020
3787,-0.170,-0.050
3788,-0.090,-0.020
3789,-0.190,0.020
3790,-0.140,0.000
3791,-0.120,-0.040
3792,-0.070,0.040
3793,-0.120,0.040
3794,-0.160,-0.030
3795,-0.120,-0.070
3796,-0.040,-0.100
3797,-0.330,0.000
3798,0.060,0.020
3799,-0.070,0.000
3800,-0.060,0.040
3801,-0.130,0.040
3802,0.030,0.060
3803,-0.070,0.110
3804,0.210,0.210
3805,0.140,-0.010
3806,0.110,0.160
3807,0.040,-0.010
3808,0.120,0.070
3809,-0.030,-0.110
3810,-0.010,-0.060
3811,0.000,-0.030
3812,-0.050,0.160
3813,-0.040,-0.230
3814,-0.090,-0.070
3815,-0.060,-0.050
3816,-0.190,-0.120
3817,-0.230,-0.060
3818,-0.050,-0.040
3819,-0.190,-0.090
3820,-0.140,-0.040
3821,-0.160,-0.040
3822,0.060,-0.010
3823,0.140,0.180
3824,0.640,0.040
3825,0.860,0.390
3826,1.240,0.050
3827,1.090,-1.080
3828,-0.210,-1.560
3829,-1.820,-1.750
3830,-1.720,-1.330
3831,-1.790,-1.340
3832,-1.290,-0.830
3833,-0.810,-0.580
3834,-0.440,-0.300
3835,-0.330,-0.150
3836,-0.300,-0.030
3837,-0.260,-0.070
3838,-0.210,0.010
3839,-0.320,-0.140
3840,-0.210,-0.030
3841,-0.140,-0.030
3842,-0.190,-0.070
3843,-0.120,0.030
3844,-0.270,0.130
3845,-0.370,-0.130
3846,-0.210,0.010
3847,-0.200,0.090
3848,-0.290,0.130
3849,-0.160,-0.020
3850,0.040,0.040
3851,-0.190,0.140
3852,-0.200,0.140
3853,-0.140,0.120
3854,-0.100,0.190
3855,-0.190,0.270
3856,-0.080,0.110
3857,-0.120,0.200
3858,0.040,0.220
3859,-0.020,0.270
3860,0.030,0.200
3861,-0.030,0.140
3862,0.040,0.170
3863,0.160,0.220
3864,0.020,0.250
3865,0.130,0.120
3866,0.260,0.040
3867,0.270,0.300
3868,0.200,0.070
3869,0.270,0.220
3870,0.040,0.130
3871,0.160,0.170
3872,0.220,0.150
3873,0.000,0.100
3874,0.170,0.050
3875,0.090,0.120
3876,0.130,0.080
3877,0.080,0.100
3878,0.100,0.100
3879,0.100,0.170
3880,0.040,0.210
3881,0.140,0.050
3882,0.160,0.110
3883,0.080,0.110
3884,0.200,0.160
3885,0.120,0.120
3886,0.200,0.200
3887,0.130,0.140
3888,0.040,0.270
3889,0.220,0.090
3890,0.070,0.280
3891,0.210,0.080
3892,0.040,0.280
3893,0.170,0.010
3894,0.110,0.190
3895,0.130,0.080
3896,0.040,0.260
3897,0.120,0.150
3898,0.070,0.200
3899,0.100,-0.030
3900,0.010,0.160
3901,0.030,0.050
3902,0.130,0.120
3903,0.140,0.200
3904,-0.010,0.110
3905,0.120,0.050
3906,0.100,0.110
3907,0.070,0.060
3908,0.090,0.120
3909,-0.030,0.120
3910,0.050,0.150
3911,0.170,0.080
3912,0.070,0.070
3913,0.100,0.130
3914,0.060,0.100
3915,0.100,0.080
3916,0.070,0.110
3917,0.010,0.090
3918,0.080,0.180
3919,0.050,-0.010
3920,0.120,0.110
3921,0.150,0.120
3922,0.030,0.120
3923,0.050,0.090
3924,0.090,0.100
3925,0.010,0.160
3926,0.070,0.110
3927,0.020,-0.030
3928,0.050,0.130
3929,0.140,0.050
3930,0.120,0.080
3931,-0.010,0.140
3932,0.100,0.090
3933,0.060,0.090
3934,0.060,0.110
3935,0.070,0.000
3936,0.070,0.040
3937,0.030,0.070
3938,0.070,0.070
3939,0.150,0.100
3940,0.140,0.150
3941,0.090,0.260
3942,0.280,0.000
3943,0.240,0.200
3944,0.350,0.190
3945,0.360,0.230
3946,0.170,0.120
3947,0.350,0.110
3948,0.240,0.170
3949,0.240,0.000
3950,0.150,0.110
3951,0.100,0.140
3952,0.230,-0.040
3953,0.150,0.020
3954,-0.010,0.060
3955,-0.040,0.000
3956,-0.090,0.120
3957,0.030,-0.040
3958,-0.020,0.060
3959,0.000,0.200
3960,0.020,-0.020
3961,-0.030,0.110
3962,0.310,0.220
3963,0.300,0.310
3964,0.830,0.400
3965,1.050,0.440
3966,1.580,-0.160
3967,0.250,-1.500
3968,-0.730,-1.660
3969,-2.180,-1.650
3970,-1.660,-1.420
3971,-1.310,-0.910
3972,-1.010,-0.700
3973,-0.530,-0.360
3974,-0.200,-0.040
3975,-0.190,0.170
3976,-0.130,-0.020
3977,-0.010,0.060
3978,-0.160,0.220
3979,-0.100,0.000
3980,-0.080,0.120
3981,-0.210,0.200
3982,-0.150,0.050
3983,0.000,0.300
3984,-0.080,0.090
3985,0.050,0.050
3986,-0.120,0.240
3987,-0.180,0.160
3988,-0.120,0.110
3989,-0.120,0.330
3990,-0.030,0.100
3991,-0.090,0.190
3992,0.020,0.250
3993,-0.100,0.300
3994,0.060,0.150
3995,-0.010,0.290
3996,0.050,0.280
3997,0.130,0.280
3998,0.020,0.220
3999,0.140,0.200
4000,0.140,0.350
4001,0.220,0.220
4002,0.240,0.210
4003,0.280,0.330
4004,0.200,0.250
4005,0.320,0.200
4006,0.200,0.200
4007,0.270,0.360
4008,0.240,0.200
4009,0.350,0.360
4010,0.330,0.280
4011,0.170,0.290
4012,0.410,0.010
4013,0.100,0.180
4014,0.150,0.130
4015,0.110,0.160
4016,0.170,0.170
4017,0.030,0.130
4018,0.110,0.100
4019,-0.010,0.220
4020,0.180,-0.060
4021,0.080,0.080
4022,0.070,0.110
4023,0.150,0.140
4024,0.070,0.190
4025,-0.010,0.080
4026,0.120,0.160
4027,0.110,0.190
4028,0.110,0.170
4029,0.120,0.100
4030,0.220,0.110
4031,0.110,0.210
4032,0.120,0.050
4033,0.210,0.150
4034,0.010,0.160
4035,0.090,0.110
4036,0.170,0.180
4037,0.110,0.160
4038,0.130,0.040
4039,0.020,0.060
4040,0.050,0.080
4041,0.070,0.080
4042,0.080,0.080
4043,0.030,0.080
4044,0.090,0.110
4045,0.080,0.070
4046,-0.030,0.010
4047,0.110,0.070
4048,0.030,0.110
4049,0.060,0.130
4050,0.050,-0.010
4051,-0.020,0.040
4052,0.130,0.050
4053,0.060,0.100
4054,0.020,0.050
4055,0.060,0.110
4056,-0.050,0.010
4057,-0.100,0.200
4058,0.030,0.030
4059,0.050,-0.080
4060,0.050,0.010
4061,-0.010,0.000
4062,-0.030,0.010
4063,0.010,0.080
4064,-0.010,0.030
4065,0.050,0.030
4066,-0.140,0.060
4067,-0.090,0.050
4068,-0.010,0.040
4069,-0.140,0.000
4070,-0.050,0.010
4071,0.060,0.020
4072,0.070,0.020
4073,-0.150,0.050
4074,0.010,0.150
4075,0.050,-0.100
4076,-0.130,-0.030
4077,-0.050,0.030
4078,0.020,-0.040
4079,-0.020,0.050
4080,-0.050,-0.070
4081,0.030,0.000
4082,0.010,-0.040
4083,0.180,-0.030
4084,-0.040,0.040
4085,0.030,0.030
4086,0.090,0.080
4087,-0.030,0.080
4088,0.200,0.180
4089,0.210,0.130
4090,0.240,0.070
4091,0.130,0.140
4092,0.280,0.000
4093,0.110,-0.010
4094,0.130,-0.080
4095,0.030,0.010
4096,0.200,-0.130
4097,-0.010,-0.070
4098,0.110,-0.010
4099,-0.020,-0.020
4100,0.020,-0.150
4101,-0.090,-0.100
4102,-0.050,-0.080
4103,-0.040,-0.130
4104,-0.090,-0.120
4105,0.070,-0.100
4106,-0.040,-0.030
4107,0.140,0.160
4108,0.320,0.050
4109,0.730,0.100
4110,1.170,0.290
4111,1.790,0.130
4112,0.830,-1.310
4113,-0.390,-1.610
4114,-1.860,-1.750
4115,-1.730,-1.290
4116,-1.650,-1.280
4117,-1.200,-0.830
4118,-0.680,-0.530
4119,-0.490,-0.320
4120,-0.280,-0.150
4121,-0.320,-0.090
4122,-0.140,-0.130
4123,-0.270,-0.060
4124,-0.210,0.090
4125,-0.270,-0.150
4126,-0.200,-0.130
4127,-0.230,-0.030
4128,-0.300,-0.040
4129,-0.270,-0.110
4130,-0.190,-0.060
4131,-0.210,-0.010
4132,-0.340,-0.020
4133,-0.170,0.050
4134,-0.290,0.170
4135,-0.050,-0.230
4136,-0.310,-0.050
4137,-0.180,0.040
4138,-0.170,-0.040
4139,-0.190,0.090
4140,-0.170,0.070
4141,-0.100,0.070
4142,-0.080,-0.010
4143,-0.060,0.090
4144,-0.040,0.130
4145,-0.040,-0.010
4146,0.020,0.010
4147,0.030,-0.010
4148,-0.010,0.000
4149,0.020,0.090
4150,0.060,-0.140
4151,0.170,-0.040
4152,0.140,-0.020
4153,0.070,0.100
4154,0.190,-0.090
4155,0.070,0.020
4156,0.020,-0.020
4157,0.070,-0.060
4158,0.040,-0.020
4159,-0.090,-0.050
4160,-0.140,-0.070
4161,-0.060,-0.080
4162,-0.040,-0.010
4163,-0.170,-0.010
4164,-0.020,-0.210
4165,-0.080,-0.080
4166,-0.110,-0.070
4167,-0.120,-0.120
4168,-0.120,-0.080
4169,-0.040,-0.060
4170,-0.070,-0.030
4171,-0.070,-0.120
4172,-0.090,-0.080
4173,-0.080,0.000
4174,-0.110,0.050
4175,0.000,-0.230
4176,-0.050,-0.070
4177,-0.120,-0.120
4178,0.070,-0.040
4179,-0.040,-0.100
4180,0.020,-0.110
4181,-0.020,-0.090
4182,-0.030,-0.070
4183,-0.130,-0.120
4184,-0.030,-0.100
4185,-0.090,-0.150
4186,-0.020,-0.100
4187,-0.090,-0.110
4188,-0.010,-0.080
4189,0.040,0.020
4190,0.390,0.000
4191,0.800,0.180
4192,1.120,0.220
4193,0.480,0.040
4194,-0.140,-0.370
4195,-0.750,-0.370
4196,-1.320,-0.450
4197,-1.510,-0.400
4198,-1.420,-0.230
4199,-1.620,-0.330
4200,-1.800,-0.260
4201,-1.660,0.050
4202,-1.520,0.810
4203,-1.610,0.340
4204,-1.440,0.400
4205,-1.190,-0.060
4206,-1.290,-0.460
4207,-1.100,-0.750
4208,-0.880,-0.720
4209,-0.540,-0.550
4210,-0.490,-0.370
4211,-0.420,-0.500
4212,-0.470,-0.460
4213,-0.430,-0.390
4214,-0.270,-0.550
4215,-0.310,-0.400
4216,-0.340,-0.380
4217,-0.030,-0.420
4218,0.050,-0.340
4219,0.020,-0.330
4220,0.070,-0.380
4221,0.120,-0.400
4222,0.180,-0.420
4223,0.300,-0.410
4224,0.420,-0.450
4225,0.380,-0.440
4226,0.460,-0.440
4227,0.460,-0.420
4228,0.560,-0.330
4229,0.720,-0.630
4230,0.610,-0.500
4231,0.730,-0.480
4232,0.700,-0.460
4233,0.690,-0.370
4234,0.690,-0.350
4235,0.600,-0.310
4236,0.580,-0.250
4237,0.540,-0.170
4238,0.550,-0.140
4239,0.510,-0.060
4240,0.400,0.000
4241,0.430,0.040
4242,0.330,0.080
4243,0.240,0.050
4244,0.270,0.220
4245,0.220,0.020
4246,0.180,0.050
4247,0.190,0.100
4248,0.140,0.060
4249,0.150,0.020
4250,0.090,0.130
4251,0.160,-0.050
4252,0.160,-0.010
4253,0.150,0.010
4254,0.090,0.060
4255,0.130,-0.010
4256,0.160,-0.030
4257,0.090,0.010
4258,0.110,-0.030
4259,0.150,-0.010
4260,0.130,0.030
4261,0.080,-0.010
4262,0.140,0.000
4263,0.100,0.040
4264,0.100,0.010
4265,0.050,-0.010
4266,0.050,0.020
4267,0.140,0.020
4268,0.100,0.070
4269,0.130,-0.020
4270,0.020,-0.020
4271,0.010,-0.010
4272,0.060,0.000
4273,0.000,-0.020
4274,0.060,-0.060
4275,0.080,0.020
4276,0.020,0.030
4277,0.080,-0.060
4278,0.050,-0.030
4279,-0.020,-0.010
4280,0.010,-0.010
4281,-0.020,0.000
4282,-0.090,-0.080
4283,-0.030,-0.030
4284,-0.010,-0.040
4285,0.000,-0.010
4286,-0.040,-0.030
4287,-0.060,-0.030
4288,-0.040,-0.010
4289,-0.090,-0.030
4290,-0.060,0.000
4291,-0.110,0.000
4292,-0.030,-0.040
4293,-0.010,-0.130
4294,-0.030,-0.020
4295,-0.080,-0.060
4296,-0.100,-0.010
4297,-0.070,-0.040
4298,-0.100,-0.030
4299,-0.100,-0.010
4300,-0.050,0.040
4301,-0.090,-0.030
4302,-0.090,-0.060
4303,-0.020,-0.030
4304,-0.100,-0.050
4305,-0.060,0.000
4306,-0.140,-0.060
4307,-0.120,-0.010
4308,-0.110,-0.040
4309,-0.040,0.040
4310,-0.120,-0.070
4311,-0.060,-0.050
4312,-0.060,0.000
4313,-0.090,0.040
4314,-0.090,-0.070
4315,-0.040,0.020
4316,-0.090,-0.140
4317,-0.070,-0.020
4318,-0.020,-0.070
4319,-0.050,-0.010
4320,-0.050,-0.030
4321,-0.020,-0.010
4322,-0.070,-0.040
4323,-0.030,0.040
4324,-0.090,0.020
4325,-0.070,-0.100
4326,-0.100,-0.040
4327,0.030,-0.020
4328,-0.160,-0.010
4329,-0.050,-0.060
4330,-0.040,-0.070
4331,-0.100,-0.010
4332,-0.070,-0.040
4333,-0.040,-0.060
4334,-0.110,0.000
4335,-0.070,-0.040
4336,-0.060,-0.120
4337,-0.050,-0.060
4338,-0.020,-0.030
4339,-0.030,-0.070
4340,-0.030,-0.030
4341,-0.020,-0.050
4342,-0.070,-0.030
4343,-0.040,0.000
4344,-0.090,-0.050
4345,-0.050,0.010
4346,-0.090,-0.050
4347,0.000,-0.070
4348,-0.060,-0.040
4349,-0.030,0.030
4350,-0.100,-0.020
4351,-0.010,-0.110
4352,-0.010,-0.020
4353,0.020,0.020
4354,0.000,0.010
4355,0.090,0.090
4356,0.040,0.090
4357,0.180,0.200
4358,0.200,0.050
4359,0.090,0.080
4360,0.180,0.020
4361,0.040,0.090
4362,0.160,-0.110
4363,0.080,-0.060
4364,0.070,-0.070
4365,0.100,-0.080
4366,0.000,-0.060
4367,-0.020,-0.070
4368,-0.080,-0.090
4369,-0.110,-0.120
4370,-0.160,-0.120
4371,-0.010,-0.090
4372,-0.140,-0.110
4373,-0.050,-0.110
4374,-0.010,0.000
4375,-0.040,0.040
4376,0.170,0.000
4377,0.380,0.100
4378,0.860,0.140
4379,1.070,-0.240
4380,1.600,-1.110
4381,0.220,-1.500
4382,-1.100,-1.770
4383,-1.820,-1.350
4384,-1.660,-1.260
4385,-1.150,-0.780
4386,-0.860,-0.560
4387,-0.410,-0.300
4388,-0.320,-0.090
4389,-0.180,-0.020
4390,-0.220,-0.030
4391,-0.160,-0.010
4392,-0.190,0.060
4393,-0.080,-0.010
4394,-0.160,-0.030
4395,-0.150,0.040
4396,-0.150,0.100
4397,-0.180,-0.020
4398,-0.200,0.070
4399,-0.090,0.100
4400,-0.150,0.100
4401,-0.010,0.050
4402,-0.100,0.150
4403,-0.130,0.150
4404,-0.100,0.180
4405,-0.110,0.220
4406,0.010,0.180
4407,0.000,0.260
4408,-0.010,0.260
4409,0.010,0.330
4410,0.020,0.310
4411,0.050,0.310
4412,0.070,0.320
4413,0.140,0.350
4414,0.090,0.390
4415,0.140,0.300
4416,0.150,0.280
4417,0.170,0.290
4418,0.240,0.300
4419,0.290,0.290
4420,0.220,0.250
4421,0.290,0.280
4422,0.210,0.320
4423,0.320,0.220
4424,0.300,0.180
4425,0.250,0.110
4426,0.240,0.150
4427,0.190,0.210
4428,0.180,0.070
4429,0.170,0.090
4430,0.120,0.090
4431,0.090,0.110
4432,0.090,0.170
4433,0.160,0.040
4434,0.110,0.110
4435,0.170,0.060
4436,0.130,0.100
4437,0.140,0.140
4438,0.150,0.130
4439,0.170,0.160
4440,0.120,0.180
4441,0.170,0.100
4442,0.200,0.150
4443,0.250,0.160
4444,0.180,0.120
4445,0.200,0.200
4446,0.140,0.210
4447,0.180,0.100
4448,0.180,0.170
4449,0.140,0.070
4450,0.200,0.100
4451,0.140,0.140
4452,0.170,0.050
4453,0.120,0.090
4454,0.110,0.110
4455,0.100,0.020
4456,0.140,0.070
4457,0.070,0.110
4458,0.070,-0.040
4459,0.070,0.040
4460,0.130,0.080
4461,0.140,-0.020
4462,0.130,0.020
4463,0.090,0.030
4464,0.080,0.030
4465,0.110,-0.020
4466,0.030,-0.030
4467,0.060,-0.020
4468,0.100,-0.030
4469,0.040,-0.050
4470,0.070,0.070
4471,0.130,-0.060
4472,0.020,-0.070
4473,0.100,-0.020
4474,0.100,0.000
4475,-0.010,-0.040
4476,0.060,-0.040
4477,0.040,0.010
4478,0.060,-0.050
4479,0.070,-0.090
4480,0.070,-0.020
4481,0.010,-0.080
4482,0.000,-0.070
4483,0.100,-0.060
4484,0.060,-0.110
4485,0.000,-0.080
4486,0.050,-0.070
4487,0.040,-0.030
4488,0.030,-0.150
4489,0.050,-0.060
4490,0.010,-0.080
4491,0.020,-0.050
4492,-0.050,-0.110
4493,-0.030,-0.040
4494,0.010,-0.060
4495,0.020,-0.060
4496,0.000,-0.030
4497,0.060,-0.080
4498,0.000,0.070
4499,0.030,-0.110
4500,-0.010,-0.040
4501,0.040,0.020
4502,0.100,0.020
4503,0.130,0.060
4504,0.190,0.140
4505,0.320,0.160
4506,0.310,0.080
4507,0.210,0.130
4508,0.190,0.020
4509,0.190,-0.020
4510,0.130,-0.010
4511,0.190,-0.030
4512,0.080,-0.070
4513,0.190,-0.010
4514,0.040,-0.030
4515,0.000,-0.030
4516,-0.040,-0.030
4517,-0.020,-0.030
4518,-0.090,-0.050
4519,-0.090,-0.060
4520,0.000,-0.110
4521,0.020,-0.060
4522,0.020,-0.010
4523,0.170,0.140
4524,0.210,0.060
4525,0.670,0.130
4526,0.980,0.310
4527,1.360,-0.190
4528,1.340,-1.150
4529,-0.080,-1.600
4530,-1.810,-1.830
4531,-1.690,-1.280
4532,-1.640,-1.180
4533,-1.070,-0.810
4534,-0.650,-0.440
4535,-0.480,-0.260
4536,-0.270,-0.040
4537,-0.160,0.040
4538,-0.140,0.000
4539,-0.110,0.000
4540,-0.160,0.010
4541,-0.110,0.070
4542,-0.130,0.050
4543,-0.130,0.080
4544,-0.100,0.070
4545,-0.130,0.090
4546,-0.140,0.070
4547,-0.110,0.070
4548,-0.070,0.150
4549,-0.080,0.060
4550,-0.120,0.120
4551,-0.110,0.110
4552,-0.020,0.120
4553,-0.020,0.180
4554,-0.070,0.190
4555,0.000,0.120
4556,0.030,0.130
4557,0.040,0.150
4558,0.040,0.300
4559,0.160,0.110
4560,0.100,0.150
4561,0.150,0.170
4562,0.150,0.140
4563,0.150,0.160
4564,0.240,0.130
4565,0.230,0.090
4566,0.300,0.120
4567,0.350,0.120
4568,0.330,0.170
4569,0.310,0.140
4570,0.310,0.130
4571,0.290,0.150
4572,0.210,0.170
4573,0.430,0.110
4574,0.230,0.210
4575,0.290,0.150
4576,0.300,0.150
4577,0.310,0.180
4578,0.350,0.140
4579,0.220,0.130
4580,0.200,-0.040
4581,0.120,0.010
4582,0.090,-0.010
4583,0.040,-0.010
4584,0.060,0.020
4585,0.060,0.030
4586,-0.060,0.040
4587,-0.020,0.020
4588,-0.010,0.010
4589,-0.020,0.050
4590,0.070,0.040
4591,0.070,0.060
4592,0.070,0.060
4593,0.030,0.070
4594,0.120,0.170
4595,0.390,0.280
4596,0.580,0.300
4597,0.930,0.480
4598,1.550,0.470
4599,1.520,-0.810
4600,-0.050,-1.480
4601,-1.720,-1.780
4602,-2.000,-1.270
4603,-1.710,-1.170
4604,-1.070,-0.700
4605,-0.620,-0.460
4606,-0.410,-0.270
4607,-0.210,-0.120
4608,-0.170,-0.070
4609,-0.080,-0.070
4610,-0.130,-0.010
4611,-0.090,-0.050
4612,-0.130,-0.080
4613,-0.130,-0.010
4614,-0.090,-0.040
4615,-0.040,-0.060
4616,-0.160,0.050
4617,-0.080,-0.030
4618,-0.090,0.060
4619,0.000,0.020
4620,-0.100,0.010
4621,-0.050,0.050
4622,-0.050,0.080
4623,-0.060,0.100
4624,-0.020,0.070
4625,0.030,0.090
4626,0.090,0.110
4627,0.070,0.130
4628,0.140,0.110
4629,0.170,0.180
4630,0.200,0.150
4631,0.250,0.130
4632,0.350,0.190
4633,0.400,0.180
4634,0.380,0.140
4635,0.370,0.170
4636,0.370,0.230
4637,0.430,0.200
4638,0.450,0.230
4639,0.460,0.200
4640,0.210,0.100
4641,0.120,0.010
4642,0.060,-0.010
4643,0.030,0.020
4644,0.060,0.020
4645,0.010,0.030
4646,0.070,-0.010
4647,0.000,0.010
4648,0.040,0.030
4649,0.030,-0.010
4650,0.060,0.030
4651,0.110,0.020
4652,0.120,0.080
4653,0.560,0.260
4654,0.470,0.210
4655,0.970,0.260
4656,1.310,0.200
4657,1.880,-0.610
4658,-0.120,-1.650
4659,-1.770,-1.760
4660,-1.920,-1.290
4661,-1.200,-0.770
4662,-0.680,-0.520
4663,-0.370,-0.270
4664,-0.240,-0.140
4665,-0.190,-0.060
4666,-0.130,-0.080
4667,-0.190,-0.060
4668,-0.210,-0.050
4669,-0.100,-0.070
4670,-0.150,-0.090
4671,-0.200,-0.040
4672,-0.180,-0.080
4673,-0.130,-0.020
4674,-0.150,0.040
4675,-0.170,0.010
4676,-0.190,-0.010
4677,-0.080,0.050
4678,-0.070,0.120
4679,-0.050,0.090
4680,0.080,-0.020
4681,0.020,0.070
4682,-0.050,0.170
4683,-0.200,0.130
4684,-0.020,0.160
4685,-0.020,0.150
4686,-0.030,0.100
4687,0.050,0.170
4688,0.090,0.100
4689,0.180,0.140
4690,0.140,0.120
4691,0.250,0.100
4692,0.300,0.130
4693,0.320,0.160
4694,0.290,0.130
4695,0.370,0.190
4696,0.240,0.210
4697,0.310,0.050
4698,0.170,0.100
4699,0.280,0.110
4700,0.320,0.130
4701,0.220,0.130
4702,0.150,0.130
4703,0.190,0.100
4704,0.230,0.140
4705,0.190,0.160
4706,0.130,0.190
4707,0.200,0.180
4708,0.140,0.200
4709,0.170,0.200
4710,0.100,0.170
4711,0.120,0.170
4712,0.250,0.220
4713,0.090,0.140
4714,0.170,0.170
4715,0.140,0.180
4716,0.190,0.150
4717,0.100,0.140
4718,0.090,0.150
4719,0.070,0.150
4720,0.120,0.170
4721,0.070,0.100
4722,0.140,0.050
4723,0.050,0.090
4724,0.070,0.060
4725,0.170,0.110
4726,0.030,0.070
4727,-0.040,0.050
4728,0.010,0.080
4729,-0.030,0.080
4730,-0.030,0.050
4731,0.040,0.050
4732,0.030,0.050
4733,-0.060,0.040
4734,-0.040,0.040
4735,-0.070,0.000
4736,-0.040,0.020
4737,-0.050,0.080
4738,-0.070,0.030
4739,-0.070,0.010
4740,-0.020,0.030
4741,-0.030,0.030
4742,0.050,0.040
4743,-0.140,0.060
4744,-0.080,0.070
4745,-0.060,0.050
4746,-0.050,0.060
4747,-0.070,0.040
4748,0.000,0.050
4749,-0.060,0.070
4750,-0.140,0.030
4751,-0.070,0.090
4752,-0.070,0.060
4753,-0.060,0.060
4754,-0.070,0.060
4755,-0.030,0.040
4756,0.020,0.050
4757,-0.060,0.070
4758,-0.020,0.020
4759,-0.020,0.040
4760,-0.080,0.060
4761,0.010,0.020
4762,-0.060,0.080
4763,0.040,0.070
4764,0.070,0.110
4765,0.130,0.170
4766,0.130,0.200
4767,0.320,0.190
4768,0.220,0.150
4769,0.210,0.090
4770,0.140,0.040
4771,0.120,0.090
4772,0.070,-0.010
4773,0.110,0.000
4774,0.090,0.010
4775,0.060,0.020
4776,0.020,-0.010
4777,-0.070,0.010
4778,-0.160,-0.080
4779,-0.180,-0.050
4780,-0.160,0.020
4781,-0.070,-0.110
4782,-0.060,-0.010
4783,-0.120,-0.030
4784,-0.030,0.050
4785,0.090,0.260
4786,0.250,0.110
4787,0.740,0.390
4788,1.130,0.450
4789,1.310,-0.270
4790,0.570,-1.260
4791,-0.520,-1.670
4792,-2.080,-1.880
4793,-1.860,-1.320
4794,-1.600,-1.110
4795,-1.040,-0.900
4796,-0.750,-0.430
4797,-0.520,-0.080
4798,-0.240,-0.120
4799,-0.330,-0.010
4800,-0.150,-0.030
4801,-0.050,0.070
4802,-0.410,0.160
4803,-0.270,0.030
4804,-0.250,0.100
4805,-0.260,0.140
4806,-0.260,0.120
4807,-0.230,0.150
4808,-0.220,0.140
4809,-0.220,0.180
4810,-0.200,0.170
4811,-0.170,0.200
4812,-0.070,0.200
4813,-0.210,0.220
4814,-0.140,0.250
4815,-0.070,0.200
4816,-0.190,0.240
4817,-0.040,0.260
4818,-0.070,0.360
4819,0.020,0.190
4820,0.060,0.310
4821,0.060,0.440
4822,0.080,0.270
4823,0.160,0.270
4824,0.140,0.290
4825,0.140,0.370
4826,0.250,0.380
4827,0.270,0.270
4828,0.300,0.380
4829,0.490,0.320
4830,0.350,0.330
4831,0.380,0.330
4832,0.270,0.310
4833,0.330,0.250
4834,0.340,0.260
4835,0.210,0.200
4836,0.250,0.290
4837,0.250,0.140
4838,0.170,0.150
4839,0.130,0.180
4840,0.170,0.170
4841,0.190,0.080
4842,0.040,0.130
4843,0.140,0.130
4844,0.120,0.290
4845,0.070,0.020
4846,0.170,0.210
4847,0.130,0.200
4848,0.150,0.280
4849,0.130,0.230
4850,0.150,0.190
4851,0.160,0.260
4852,0.250,0.260
4853,0.090,0.240
4854,0.170,0.250
4855,0.180,0.300
4856,0.110,0.210
4857,0.070,0.250
4858,0.080,0.270
4859,0.140,0.180
4860,0.040,0.180
4861,0.100,0.180
4862,0.050,0.220
4863,0.080,0.140
4864,0.090,0.130
4865,0.030,0.150
4866,-0.020,0.170
4867,0.040,0.130
4868,-0.020,0.110
4869,-0.040,0.250
4870,0.080,0.020
4871,-0.110,0.130
4872,0.010,0.110
4873,0.040,0.040
4874,0.000,0.110
4875,-0.040,0.100
4876,-0.030,0.100
4877,-0.080,0.070
4878,-0.110,0.210
4879,-0.060,-0.080
4880,-0.040,0.090
4881,-0.090,0.080
4882,-0.110,0.050
4883,-0.090,0.090
4884,-0.190,0.050
4885,-0.100,0.070
4886,-0.160,0.080
4887,-0.150,0.060
4888,-0.120,0.060
4889,-0.170,0.050
4890,-0.120,0.050
4891,-0.160,0.050
4892,-0.170,0.030
4893,-0.130,0.060
4894,-0.150,0.040
4895,-0.160,0.010
4896,-0.020,0.050
4897,-0.150,0.050
4898,-0.210,0.060
4899,-0.140,0.070
4900,-0.110,0.050
4901,-0.160,0.040
4902,-0.160,0.010
4903,-0.140,0.020
4904,-0.040,0.050
4905,-0.060,0.080
4906,-0.020,0.110
4907,-0.020,0.110
4908,0.030,0.120
4909,0.140,0.160
4910,0.120,0.130
4911,0.090,0.040
4912,-0.050,-0.020
4913,0.070,-0.090
4914,0.010,-0.060
4915,0.060,-0.110
4916,-0.100,-0.060
4917,-0.170,-0.050
4918,-0.110,-0.190
4919,-0.300,-0.080
4920,-0.200,-0.200
4921,-0.220,-0.220
4922,-0.260,-0.110
4923,-0.190,-0.140
4924,-0.140,-0.090
4925,-0.230,-0.090
4926,-0.200,-0.040
4927,0.040,-0.010
4928,0.100,0.110
4929,0.730,0.090
4930,1.050,0.360
4931,1.780,-0.240
4932,0.130,-1.340
4933,-0.940,-1.700
4934,-2.090,-1.730
4935,-1.850,-1.420
4936,-1.630,-1.120
4937,-1.180,-0.850
4938,-0.700,-0.490
4939,-0.510,-0.280
4940,-0.320,-0.130
4941,-0.340,-0.130
4942,-0.330,-0.150
4943,-0.260,-0.090
4944,-0.350,-0.120
4945,-0.290,-0.050
4946,-0.320,-0.020
4947,-0.300,-0.110
4948,-0.400,0.000
4949,-0.250,-0.080
4950,-0.350,0.070
4951,-0.270,-0.150
4952,-0.270,-0.010
4953,-0.290,-0.030
4954,-0.240,0.050
4955,-0.380,-0.030
4956,-0.220,0.060
4957,-0.170,0.010
4958,-0.170,0.120
4959,-0.240,0.120
4960,-0.210,0.040
4961,-0.130,-0.010
4962,-0.180,0.040
4963,-0.020,0.090
4964,-0.040,0.110
4965,-0.030,0.050
4966,-0.090,0.020
4967,0.090,0.100
4968,0.100,0.150
4969,0.060,0.070
4970,0.110,0.050
4971,0.060,0.260
4972,0.190,-0.020
4973,0.180,0.240
4974,0.210,0.100
4975,0.080,0.140
4976,0.100,0.150
4977,0.110,0.090
4978,-0.070,0.080
4979,0.180,0.040
4980,-0.170,0.150
4981,0.030,0.050
4982,0.050,0.080
4983,-0.090,0.100
4984,0.050,-0.050
4985,-0.140,0.080
4986,0.140,0.040
4987,-0.090,0.100
4988,-0.050,0.100
4989,-0.080,0.080
4990,0.130,0.120
4991,-0.070,0.120
4992,0.150,0.140
4993,-0.040,0.130
4994,-0.040,0.180
4995,0.050,0.090
4996,0.030,0.120
4997,0.110,0.090
4998,0.080,0.090
4999,0.050,0.030
5000,-0.040,0.060
5001,0.110,0.080
5002,0.170,0.030
5003,0.050,0.070
5004,-0.080,0.080
5005,0.010,0.070
5006,-0.050,0.030
5007,0.060,0.020
5008,0.030,0.040
5009,0.000,0.070
5010,-0.110,0.050
5011,0.130,0.010
5012,-0.070,0.070
5013,-0.010,0.020
5014,0.170,0.040
5015,-0.110,0.000
5016,0.160,0.030
5017,-0.220,0.070
5018,0.170,0.040
5019,-0.120,0.020
5020,0.010,0.050
5021,-0.010,0.030
5022,-0.060,0.030
5023,0.170,-0.020
5024,-0.080,0.030
5025,-0.150,0.100
5026,-0.040,0.040
5027,-0.010,0.040
5028,0.000,0.010
5029,0.030,0.030
5030,0.010,0.000
5031,-0.080,-0.020
5032,0.150,-0.020
5033,-0.030,0.050
5034,0.000,0.040
5035,-0.190,0.050
5036,-0.120,-0.090
5037,0.460,-0.010
5038,-0.350,0.120
5039,-0.100,0.010
5040,-0.060,0.030
5041,-0.120,0.000
5042,0.050,-0.020
5043,-0.070,0.010
5044,-0.020,-0.040
5045,0.200,0.000
5046,-0.190,0.110
5047,0.120,0.110
5048,-0.070,0.170
5049,0.070,0.170
5050,0.130,0.130
5051,0.110,0.070
5052,0.150,0.050
5053,0.100,0.050
5054,0.140,0.020
5055,0.040,-0.040
5056,0.070,-0.020
5057,0.010,-0.010
5058,-0.030,-0.020
5059,-0.030,-0.010
5060,-0.110,-0.010
5061,-0.070,-0.020
5062,-0.070,0.000
5063,-0.030,0.030
5064,-0.110,0.000
5065,-0.060,0.050
5066,-0.040,0.040
5067,-0.060,0.120
5068,0.180,0.200
5069,0.300,0.260
5070,0.750,0.330
5071,1.000,0.490
5072,1.670,-0.290
5073,-0.020,-1.220
5074,-1.050,-1.610
5075,-2.050,-1.510
5076,-1.740,-1.230
5077,-1.310,-0.820
5078,-1.020,-0.630
5079,-0.500,-0.270
5080,-0.300,-0.030
5081,-0.230,0.060
5082,-0.150,0.110
5083,-0.140,0.100
5084,-0.170,0.130
5085,-0.170,0.120
5086,-0.180,0.140
5087,-0.170,0.130
5088,-0.130,0.140
5089,-0.160,0.150
5090,-0.120,0.150
5091,-0.140,0.170
5092,-0.210,0.130
5093,-0.140,0.170
5094,-0.230,0.140
5095,-0.100,0.190
5096,-0.110,0.180
5097,-0.080,0.210
5098,-0.090,0.200
5099,-0.070,0.230
5100,-0.020,0.220
5101,-0.070,0.220
5102,0.000,0.230
5103,0.000,0.230
5104,-0.020,0.200
5105,0.060,0.210
5106,0.090,0.200
5107,0.110,0.190
5108,0.090,0.180
5109,0.140,0.180
5110,0.140,0.180
5111,0.140,0.170
5112,0.210,0.210
5113,0.240,0.200
5114,0.250,0.220
5115,0.230,0.220
5116,0.200,0.220
5117,0.240,0.210
5118,0.160,0.170
5119,0.140,0.160
5120,0.140,0.150
5121,0.110,0.150
5122,0.110,0.130
5123,0.100,0.150
5124,0.140,0.130
5125,0.080,0.150
5126,0.080,0.160
5127,0.100,0.170
5128,0.110,0.190
5129,0.130,0.200
5130,0.100,0.200
5131,0.180,0.220
5132,0.160,0.230
5133,0.070,0.220
5134,0.110,0.230
5135,0.070,0.260
5136,0.100,0.230
5137,0.110,0.220
5138,0.070,0.240
5139,0.110,0.200
5140,0.100,0.190
5141,0.130,0.190
5142,0.100,0.150
5143,0.070,0.160
5144,0.060,0.150
5145,0.060,0.120
5146,0.050,0.110
5147,0.000,0.130
5148,0.100,0.110
5149,0.060,0.100
5150,0.040,0.090
5151,0.050,0.100
5152,0.040,0.090
5153,0.030,0.090
5154,0.020,0.090
5155,0.030,0.100
5156,-0.010,0.070
5157,0.040,0.090
5158,0.040,0.090
5159,0.050,0.090
5160,0.020,0.090
5161,0.040,0.070
5162,-0.010,0.060
5163,0.040,0.040
5164,0.010,0.070
5165,0.020,0.050
5166,0.080,0.060
5167,0.030,0.030
5168,0.040,0.070
5169,0.080,0.050
5170,0.010,0.030
5171,0.040,0.030
5172,0.060,0.030
5173,0.020,0.020
5174,0.080,0.010
5175,0.050,0.010
5176,0.060,0.030
5177,0.090,0.030
5178,0.040,0.010
5179,0.090,0.040
5180,0.100,0.070
5181,0.110,0.080
5182,0.150,0.130
5183,0.230,0.190
5184,0.290,0.160
5185,0.310,0.140
5186,0.250,0.110
5187,0.200,0.070
5188,0.160,0.050
5189,0.140,0.000
5190,0.120,-0.020
5191,0.080,-0.040
5192,0.070,-0.030
5193,0.060,-0.030
5194,-0.020,-0.050
5195,-0.100,-0.080
5196,-0.080,-0.060
5197,-0.130,-0.080
5198,-0.050,-0.050
5199,-0.080,-0.070
5200,-0.060,-0.080
5201,-0.030,-0.050
5202,0.170,0.090
5203,0.180,0.060
5204,0.640,0.140
5205,0.850,0.280
5206,1.390,-0.030
5207,0.490,-1.160
5208,-0.530,-1.590
5209,-1.980,-1.760
5210,-1.730,-1.300
5211,-1.570,-1.150
5212,-1.110,-0.800
5213,-0.620,-0.460
5214,-0.400,-0.230
5215,-0.230,-0.080
5216,-0.230,-0.030
5217,-0.180,-0.030
5218,-0.120,0.010
5219,-0.140,0.020
5220,-0.160,0.010
5221,-0.110,0.040
5222,-0.150,0.030
5223,-0.150,0.030
5224,-0.070,0.060
5225,-0.190,0.020
5226,-0.080,0.090
5227,-0.120,0.080
5228,-0.110,0.090
5229,-0.090,0.090
5230,-0.080,0.150
5231,-0.060,0.120
5232,-0.070,0.140
5233,-0.040,0.170
5234,-0.030,0.160
5235,0.040,0.170
5236,0.020,0.170
5237,0.040,0.180
5238,0.060,0.170
5239,0.100,0.180
5240,0.120,0.160
5241,0.110,0.150
5242,0.130,0.130
5243,0.140,0.120
5244,0.190,0.110
5245,0.260,0.120
5246,0.220,0.130
5247,0.240,0.130
5248,0.220,0.140
5249,0.200,0.130
5250,0.170,0.130
5251,0.150,0.100
5252,0.120,0.100
5253,0.130,0.100
5254,0.120,0.090
5255,0.060,0.060
5256,0.090,0.080
5257,0.060,0.060
5258,0.090,0.100
5259,0.090,0.080
5260,0.050,0.080
5261,0.120,0.090
5262,0.110,0.100
5263,0.090,0.100
5264,0.140,0.130
5265,0.120,0.140
5266,0.100,0.130
5267,0.140,0.170
5268,0.040,0.140
5269,0.130,0.170
5270,0.120,0.160
5271,0.140,0.170
5272,0.130,0.170
5273,0.120,0.160
5274,0.120,0.140
5275,0.150,0.180
5276,0.050,0.130
5277,0.110,0.140
5278,0.060,0.130
5279,0.100,0.120
5280,0.090,0.120
5281,0.100,0.130
5282,0.080,0.110
5283,0.100,0.120
5284,0.060,0.100
5285,0.040,0.090
5286,0.070,0.060
5287,0.080,0.070
5288,0.100,0.080
5289,0.070,0.040
5290,0.130,0.050
5291,0.080,0.040
5292,0.100,0.040
5293,0.080,0.040
5294,0.060,0.020
5295,0.090,0.030
5296,0.080,0.020
5297,0.100,0.030
5298,0.090,0.030
5299,0.110,0.050
5300,0.060,0.020
5301,0.060,0.020
5302,0.080,0.020
5303,0.010,0.020
5304,0.080,0.020
5305,0.110,0.020
5306,0.070,0.020
5307,0.070,0.040
5308,0.100,0.010
5309,0.020,0.010
5310,0.090,0.040
5311,0.140,0.050
5312,0.090,0.070
5313,0.160,0.120
5314,0.240,0.140
5315,0.260,0.210
5316,0.360,0.210
5317,0.380,0.190
5318,0.230,0.140
5319,0.270,0.120
5320,0.220,0.120
5321,0.180,0.060
5322,0.150,0.050
5323,0.160,0.050
5324,0.170,0.080
5325,0.070,0.090
5326,0.030,0.060
5327,-0.040,0.030
5328,-0.060,0.030
5329,-0.050,0.030
5330,-0.050,0.040
5331,-0.010,0.020
5332,0.010,0.050
5333,0.040,0.090
5334,0.200,0.210
5335,0.250,0.220
5336,0.770,0.290
5337,0.990,0.450
5338,1.490,0.040
5339,0.550,-1.080
5340,-0.480,-1.520
5341,-2.020,-1.760
5342,-1.720,-1.260
5343,-1.520,-1.070
5344,-1.100,-0.770
5345,-0.620,-0.370
5346,-0.320,-0.150
5347,-0.170,0.000
5348,-0.160,0.010
5349,-0.080,0.060
5350,-0.080,0.080
5351,-0.070,0.100
5352,-0.070,0.100
5353,-0.070,0.100
5354,-0.110,0.090
5355,-0.090,0.100
5356,-0.070,0.110
5357,-0.020,0.150
5358,-0.060,0.130
5359,-0.010,0.160
5360,-0.050,0.180
5361,-0.090,0.160
5362,0.020,0.210
5363,-0.010,0.200
5364,0.000,0.230
5365,0.000,0.230
5366,0.080,0.260
5367,0.060,0.270
5368,0.120,0.310
5369,0.150,0.280
5370,0.070,0.280
5371,0.190,0.310
5372,0.190,0.290
5373,0.160,0.270
5374,0.240,0.310
5375,0.220,0.240
5376,0.340,0.270
5377,0.280,0.240
5378,0.400,0.290
5379,0.340,0.270
5380,0.370,0.260
5381,0.340,0.270
5382,0.280,0.220
5383,0.310,0.220
5384,0.240,0.190
5385,0.290,0.170
5386,0.220,0.160
5387,0.240,0.150
5388,0.130,0.150
5389,0.180,0.130
5390,0.190,0.150
5391,0.120,0.120
5392,0.200,0.140
5393,0.210,0.140
5394,0.170,0.160
5395,0.210,0.160
5396,0.220,0.170
5397,0.150,0.150
5398,0.160,0.150
5399,0.240,0.150
5400,0.120,0.120
5401,0.190,0.120
5402,0.180,0.100
5403,0.210,0.090
5404,0.210,0.090
5405,0.170,0.070
5406,0.180,0.040
5407,0.190,0.040
5408,0.110,0.020
5409,0.170,0.020
5410,0.140,-0.010
5411,0.140,-0.030
5412,0.100,-0.050
5413,0.140,-0.030
5414,0.090,-0.050
5415,0.110,-0.040
5416,0.100,-0.050
5417,0.080,-0.060
5418,0.080,-0.060
5419,0.090,-0.050
5420,0.120,-0.050
5421,0.080,-0.050
5422,0.080,-0.060
5423,0.050,-0.070
5424,0.050,-0.080
5425,0.060,-0.070
5426,0.110,-0.070
5427,0.070,-0.070
5428,0.090,-0.070
5429,0.090,-0.060
5430,0.090,-0.060
5431,0.080,-0.060
5432,0.050,-0.060
5433,0.040,-0.060
5434,0.090,-0.040
5435,0.070,-0.050
5436,0.080,-0.060
5437,0.070,-0.060
5438,0.080,-0.050
5439,0.080,-0.030
5440,0.050,-0.050
5441,0.080,-0.050
5442,0.060,-0.040
5443,0.060,-0.020
5444,0.100,-0.020
5445,0.150,-0.010
5446,0.180,0.050
5447,0.190,0.090
5448,0.270,0.130
5449,0.330,0.120
5450,0.300,0.070
5451,0.250,0.030
5452,0.210,0.010
5453,0.230,-0.010
5454,0.180,-0.070
5455,0.170,-0.060
5456,0.130,-0.070
5457,0.140,-0.050
5458,0.000,-0.050
5459,-0.010,-0.100
5460,-0.060,-0.100
5461,-0.110,-0.110
5462,-0.040,-0.110
5463,-0.020,-0.100
5464,-0.040,-0.090
5465,-0.030,-0.080
5466,-0.030,-0.060
5467,0.190,0.100
5468,0.270,0.100
5469,0.730,0.200
5470,1.040,0.360
5471,1.540,-0.210
5472,0.280,-1.240
5473,-0.700,-1.630
5474,-2.110,-1.800
5475,-1.770,-1.360
5476,-1.530,-1.150
5477,-1.130,-0.850
5478,-0.560,-0.490
5479,-0.390,-0.250
5480,-0.200,-0.120
5481,-0.160,-0.080
5482,-0.150,-0.060
5483,-0.110,-0.040
5484,-0.110,-0.030
5485,-0.120,-0.010
5486,-0.130,-0.020
5487,-0.120,0.010
5488,-0.130,-0.020
5489,-0.090,0.040
5490,-0.120,0.030
5491,-0.060,0.060
5492,-0.100,0.070
5493,-0.070,0.080
5494,-0.100,0.090
5495,-0.040,0.100
5496,-0.100,0.100
5497,-0.020,0.150
5498,-0.020,0.130
5499,-0.030,0.160
5500,0.010,0.160
5501,-0.030,0.160
5502,0.080,0.190
5503,0.030,0.180
5504,0.090,0.170
5505,0.100,0.170
5506,0.140,0.160
5507,0.190,0.180
5508,0.160,0.140
5509,0.240,0.160
5510,0.310,0.190
5511,0.270,0.160
5512,0.270,0.170
5513,0.270,0.180
5514,0.280,0.180
5515,0.230,0.180
5516,0.250,0.170
5517,0.200,0.150
5518,0.150,0.150
5519,0.150,0.150
5520,0.100,0.130
5521,0.170,0.130
5522,0.090,0.140
5523,0.130,0.160
5524,0.130,0.120
5525,0.150,0.160
5526,0.140,0.150
5527,0.090,0.180
5528,0.100,0.160
5529,0.100,0.160
5530,0.130,0.190
5531,0.130,0.180
5532,0.130,0.190
5533,0.150,0.170
5534,0.120,0.170
5535,0.160,0.170
5536,0.120,0.170
5537,0.120,0.130
5538,0.100,0.110
5539,0.050,0.110
5540,0.120,0.090
5541,0.080,0.090
5542,0.100,0.080
5543,0.110,0.090
5544,0.080,0.080
5545,0.080,0.040
5546,0.060,0.040
5547,0.100,0.050
5548,0.040,0.050
5549,0.090,0.030
5550,0.060,0.040
5551,0.090,0.050
5552,0.110,0.040
5553,0.070,0.040
5554,0.070,0.050
5555,0.060,0.030
5556,0.080,0.050
5557,0.080,0.020
5558,0.070,0.010
5559,0.090,0.020
5560,0.070,0.000
5561,0.110,-0.010
5562,0.060,-0.020
5563,0.020,-0.030
5564,0.090,-0.020
5565,0.020,-0.030
5566,0.080,-0.030
5567,0.060,-0.030
5568,0.070,-0.040
5569,0.070,-0.050
5570,0.060,-0.050
5571,0.050,-0.040
5572,0.070,-0.040
5573,0.060,0.000
5574,0.150,0.020
5575,0.160,0.040
5576,0.190,0.110
5577,0.320,0.140
5578,0.340,0.140
5579,0.270,0.110
5580,0.280,0.100
5581,0.210,0.080
5582,0.200,0.070
5583,0.210,0.040
5584,0.170,0.020
5585,0.130,0.070
5586,0.160,0.080
5587,0.050,0.050
5588,-0.020,0.010
5589,0.010,0.010
5590,-0.030,0.020
5591,-0.030,0.030
5592,-0.020,0.010
5593,0.050,0.040
5594,0.040,0.050
5595,0.120,0.170
5596,0.340,0.190
5597,0.530,0.320
5598,1.070,0.450
5599,1.280,0.460
5600,1.700,-0.550
5601,-0.120,-1.300
5602,-1.360,-1.690
5603,-2.050,-1.450
5604,-1.780,-1.290
5605,-1.140,-0.740
5606,-0.860,-0.550
5607,-0.430,-0.270
5608,-0.250,0.010
5609,-0.180,0.040
5610,-0.110,0.090
5611,-0.090,0.110
5612,-0.090,0.100
5613,-0.060,0.130
5614,-0.090,0.140
5615,-0.100,0.130
5616,-0.070,0.140
5617,-0.100,0.140
5618,-0.090,0.130
5619,-0.060,0.160
5620,-0.060,0.160
5621,-0.070,0.170
5622,-0.050,0.180
5623,-0.060,0.180
5624,-0.040,0.200
5625,-0.040,0.190
5626,-0.030,0.210
5627,-0.020,0.210
5628,0.040,0.230
5629,0.040,0.230
5630,0.060,0.230
5631,0.090,0.240
5632,0.080,0.210
5633,0.120,0.210
5634,0.110,0.180
5635,0.160,0.180
5636,0.200,0.150
5637,0.230,0.150
5638,0.220,0.130
5639,0.270,0.140
5640,0.300,0.170
5641,0.290,0.160
5642,0.250,0.140
5643,0.200,0.130
5644,0.180,0.120
5645,0.180,0.090
5646,0.160,0.080
5647,0.110,0.100
5648,0.080,0.090
5649,0.080,0.090
5650,0.050,0.070
5651,0.040,0.080
5652,0.040,0.080
5653,0.020,0.080
5654,0.050,0.070
5655,0.050,0.100
5656,0.060,0.100
5657,0.070,0.120
5658,0.050,0.140
5659,0.050,0.130
5660,0.050,0.140
5661,0.070,0.140
5662,0.050,0.140
5663,0.080,0.130
5664,0.090,0.140
5665,0.110,0.120
5666,0.040,0.090
5667,0.060,0.100
5668,0.050,0.100
5669,0.070,0.080
5670,0.010,0.060
5671,0.060,0.050
5672,0.080,0.050
5673,0.030,0.030
5674,0.030,0.030
5675,0.010,0.020
5676,0.000,0.030
5677,-0.010,0.010
5678,-0.020,0.020
5679,-0.060,0.000
5680,0.010,-0.010
5681,-0.010,0.000
5682,-0.040,0.020
5683,0.000,0.010
5684,-0.020,0.000
5685,-0.050,-0.010
5686,-0.080,0.000
5687,-0.060,0.000
5688,-0.080,-0.010
5689,-0.020,-0.030
5690,-0.050,-0.030
5691,-0.050,-0.020
5692,-0.050,-0.030
5693,-0.040,-0.040
5694,-0.050,-0.050
5695,-0.060,-0.040
5696,-0.090,-0.060
5697,-0.060,-0.060
5698,-0.020,-0.070
5699,-0.020,-0.060
5700,-0.050,-0.070
5701,-0.060,-0.060
5702,-0.060,-0.070
5703,-0.040,-0.070
5704,-0.050,-0.080
5705,-0.060,-0.080
5706,-0.010,-0.060
5707,0.010,-0.050
5708,0.010,-0.010
5709,0.080,0.040
5710,0.070,0.080
5711,0.160,0.090
5712,0.150,0.050
5713,0.090,0.010
5714,0.060,0.010
5715,0.070,-0.030
5716,0.060,-0.040
5717,-0.040,-0.080
5718,0.000,-0.100
5719,0.000,-0.050
5720,-0.120,-0.090
5721,-0.100,-0.080
5722,-0.220,-0.120
5723,-0.240,-0.120
5724,-0.210,-0.120
5725,-0.200,-0.120
5726,-0.180,-0.120
5727,-0.190,-0.090
5728,-0.200,-0.120
5729,-0.130,-0.030
5730,0.100,0.020
5731,0.220,0.060
5732,0.650,0.180
5733,0.980,0.240
5734,1.510,-0.710
5735,-0.180,-1.340
5736,-1.380,-1.720
5737,-2.090,-1.390
5738,-1.880,-1.320
5739,-1.310,-0.850
5740,-1.080,-0.710
5741,-0.580,-0.430
5742,-0.360,-0.210
5743,-0.360,-0.140
5744,-0.310,-0.130
5745,-0.290,-0.110
5746,-0.280,-0.120
5747,-0.270,-0.100
5748,-0.320,-0.110
5749,-0.330,-0.100
5750,-0.250,-0.100
5751,-0.300,-0.100
5752,-0.280,-0.090
5753,-0.290,-0.070
5754,-0.290,-0.060
5755,-0.280,-0.050
5756,-0.260,-0.060
5757,-0.260,-0.030
5758,-0.280,-0.020
5759,-0.220,-0.030
5760,-0.190,0.000
5761,-0.190,0.020
5762,-0.160,0.030
5763,-0.170,0.040
5764,-0.110,0.040
5765,-0.120,0.050
5766,-0.090,0.060
5767,-0.040,0.050
5768,-0.010,0.030
5769,-0.020,0.010
5770,0.000,0.010
5771,0.040,0.000
5772,0.040,0.000
5773,0.040,0.000
5774,0.070,0.000
5775,0.070,0.010
5776,0.110,0.000
5777,0.030,0.020
5778,0.020,0.000
5779,-0.010,-0.010
5780,-0.020,-0.020
5781,-0.080,-0.050
5782,-0.060,-0.060
5783,-0.150,-0.070
5784,-0.100,-0.080
5785,-0.080,-0.080
5786,-0.100,-0.070
5787,-0.090,-0.050
5788,-0.120,-0.030
5789,-0.110,-0.060
5790,-0.080,-0.030
5791,-0.130,-0.010
5792,-0.090,-0.010
5793,-0.060,0.000
5794,-0.050,0.000
5795,-0.020,0.020
5796,-0.030,0.020
5797,-0.040,0.020
5798,-0.050,0.020
5799,-0.040,0.030
5800,-0.050,0.000
5801,-0.060,0.000
5802,-0.060,-0.020
5803,-0.030,-0.030
5804,-0.040,-0.040
5805,-0.050,-0.030
5806,-0.090,-0.030
5807,-0.080,-0.050
5808,-0.060,-0.060
5809,-0.080,-0.060
5810,-0.100,-0.080
5811,-0.060,-0.080
5812,-0.090,-0.080
5813,-0.080,-0.060
5814,-0.070,-0.060
5815,-0.100,-0.060
5816,-0.090,-0.060
5817,-0.110,-0.070
5818,-0.110,-0.060
5819,-0.090,-0.080
5820,-0.070,-0.060
5821,-0.090,-0.060
5822,-0.050,-0.030
5823,-0.110,-0.040
5824,-0.090,-0.040
5825,-0.120,-0.060
5826,-0.070,-0.030
5827,-0.110,-0.050
5828,-0.050,-0.050
5829,-0.070,-0.040
5830,-0.100,-0.030
5831,-0.060,-0.030
5832,-0.100,-0.030
5833,-0.080,-0.040
5834,-0.090,-0.050
5835,-0.090,-0.040
5836,-0.070,-0.060
5837,-0.070,-0.030
5838,-0.020,-0.010
5839,-0.010,0.020
5840,0.000,0.040
5841,0.020,0.060
5842,0.130,0.120
5843,0.140,0.110
5844,0.110,0.040
5845,0.130,0.030
5846,0.090,0.010
5847,0.110,0.000
5848,0.000,-0.040
5849,0.050,-0.060
5850,0.020,-0.040
5851,-0.070,-0.050
5852,-0.070,-0.050
5853,-0.160,-0.080
5854,-0.140,-0.090
5855,-0.160,-0.080
5856,-0.140,-0.090
5857,-0.140,-0.070
5858,-0.120,-0.060
5859,-0.140,-0.080
5860,-0.120,-0.020
5861,0.130,0.060
5862,0.220,0.050
5863,0.630,0.130
5864,0.940,0.210
5865,1.520,-0.700
5866,0.010,-1.250
5867,-1.050,-1.630
5868,-2.020,-1.380
5869,-1.780,-1.240
5870,-1.270,-0.820
5871,-0.960,-0.610
5872,-0.530,-0.350
5873,-0.310,-0.130
5874,-0.310,-0.100
5875,-0.260,-0.070
5876,-0.280,-0.080
5877,-0.230,-0.030
5878,-0.260,-0.030
5879,-0.210,-0.050
5880,-0.230,-0.030
5881,-0.220,-0.020
5882,-0.220,-0.040
5883,-0.230,0.010
5884,-0.240,-0.010
5885,-0.220,0.000
5886,-0.240,0.020
5887,-0.230,0.030
5888,-0.190,0.060
5889,-0.170,0.070
5890,-0.170,0.100
5891,-0.150,0.130
5892,-0.160,0.130
5893,-0.140,0.170
5894,-0.100,0.150
5895,-0.120,0.190
5896,-0.040,0.200
5897,-0.020,0.180
5898,-0.020,0.190
5899,0.030,0.170
5900,0.040,0.150
5901,0.020,0.140
5902,0.050,0.130
5903,0.100,0.120
5904,0.090,0.130
5905,0.140,0.110
5906,0.110,0.130
5907,0.150,0.150
5908,0.110,0.150
5909,0.110,0.140
5910,0.040,0.110
5911,0.070,0.100
5912,0.060,0.090
5913,0.000,0.080
5914,0.040,0.080
5915,0.040,0.090
5916,-0.010,0.070
5917,0.060,0.090
5918,0.020,0.100
5919,-0.010,0.090
5920,0.080,0.100
5921,0.000,0.080
5922,0.010,0.080
5923,0.090,0.100
5924,0.080,0.080
5925,0.040,0.080
5926,0.100,0.090
5927,0.040,0.080
5928,0.060,0.050
5929,0.080,0.110
5930,0.090,0.050
5931,0.080,0.100
5932,0.110,0.110
5933,0.030,0.060
5934,0.090,-0.110
5935,0.000,0.160
5936,0.060,0.020
5937,0.160,-0.180
5938,0.100,0.030
5939,0.070,-0.070
5940,0.040,-0.030
5941,0.120,0.020
5942,0.020,0.020
5943,0.030,-0.050
5944,0.010,0.040
5945,0.030,0.020
5946,0.070,0.080
5947,-0.010,-0.020
5948,0.010,0.090
5949,0.040,-0.010
5950,0.050,0.110
5951,0.010,0.050
5952,0.010,0.020
5953,-0.050,0.060
5954,0.030,0.070
5955,-0.070,0.110
5956,-0.090,0.120
5957,-0.060,0.180
5958,0.010,-0.010
5959,0.010,0.150
5960,-0.040,0.060
5961,-0.070,0.210
5962,-0.090,0.130
5963,-0.040,0.170
5964,-0.060,0.110
5965,-0.070,0.080
5966,-0.100,0.090
5967,-0.060,0.130
5968,-0.030,0.090
5969,-0.050,0.100
5970,-0.080,0.160
5971,-0.010,0.180
5972,-0.030,0.160
5973,-0.020,0.220
5974,0.010,0.210
5975,0.130,0.280
5976,0.160,0.270
5977,0.170,0.210
5978,0.080,0.170
5979,0.050,0.120
5980,0.100,0.180
5981,-0.080,0.050
5982,0.000,0.070
5983,-0.020,0.030
5984,-0.040,0.150
5985,-0.080,-0.030
5986,-0.070,0.140
5987,-0.190,-0.020
5988,-0.180,-0.020
5989,-0.180,0.020
5990,-0.190,0.060
5991,-0.170,0.020
5992,-0.150,-0.050
5993,-0.110,0.040
5994,0.120,0.220
5995,0.160,0.170
5996,0.680,0.300
5997,0.880,0.360
5998,1.380,-0.620
5999,-0.110,-1.280
6000,-1.140,-1.670
6001,-2.110,-1.540
6002,-1.770,-1.320
6003,-1.260,-0.790
6004,-1.010,-0.670
6005,-0.560,-0.300
6006,-0.280,-0.120
6007,-0.280,-0.010
6008,-0.280,-0.010
6009,-0.280,0.000
6010,-0.250,0.080
6011,-0.220,0.030
6012,-0.210,0.110
6013,-0.320,0.000
6014,-0.240,0.060
6015,-0.280,0.100
6016,-0.200,0.070
6017,-0.360,0.070
6018,-0.270,0.210
6019,-0.240,0.100
6020,-0.190,0.030
6021,-0.240,0.160
6022,-0.270,0.120
6023,-0.270,0.140
6024,-0.240,0.170
6025,-0.200,0.210
6026,-0.180,0.200
6027,-0.220,0.160
6028,-0.110,0.130
6029,-0.080,0.200
6030,-0.090,0.170
6031,-0.130,0.160
6032,-0.060,0.130
6033,0.010,0.150
6034,-0.100,0.130
6035,0.020,0.150
6036,0.090,0.130
6037,0.080,0.000
6038,0.110,0.130
6039,0.100,0.100
6040,0.020,0.070
6041,0.050,0.080
6042,-0.050,0.090
6043,0.000,-0.010
6044,0.010,-0.010
6045,-0.030,0.040
6046,-0.030,0.050
6047,-0.080,-0.060
6048,-0.110,-0.020
6049,-0.070,-0.010
6050,-0.150,0.000
6051,-0.090,-0.010
6052,-0.090,-0.060
6053,-0.030,0.050
6054,-0.080,0.010
6055,-0.090,-0.020
6056,-0.060,0.120
6057,-0.060,0.000
6058,-0.230,0.010
6059,-0.160,0.060
6060,-0.120,0.100
6061,0.050,0.100
6062,-0.140,0.070
6063,-0.090,-0.030
6064,-0.140,0.000
6065,-0.130,-0.010
6066,-0.120,-0.070
6067,-0.170,-0.080
6068,-0.230,-0.070
6069,-0.090,-0.070
6070,0.100,0.070
6071,0.230,0.030
6072,0.630,0.110
6073,0.830,0.320
6074,1.650,-0.410
6075,-0.110,-1.190
6076,-1.210,-1.660
6077,-2.260,-1.610
6078,-1.870,-1.320
6079,-1.310,-0.760
6080,-0.940,-0.700
6081,-0.610,-0.390
6082,-0.400,-0.210
6083,-0.350,-0.080
6084,-0.300,-0.110
6085,-0.340,-0.150
6086,-0.320,-0.080
6087,-0.280,-0.050
6088,-0.320,0.000
6089,-0.320,-0.020
6090,-0.300,-0.050
6091,-0.360,-0.010
6092,-0.330,0.080
6093,-0.360,-0.010
6094,-0.260,0.040
6095,-0.280,-0.020
6096,-0.280,0.080
6097,-0.240,0.030
6098,-0.210,0.110
6099,-0.270,0.110
6100,-0.140,0.110
6101,-0.090,0.060
6102,-0.380,0.100
6103,-0.050,0.130
6104,-0.090,0.120
6105,-0.050,0.060
6106,-0.020,0.010
6107,0.110,-0.020
6108,0.270,-0.030
6109,-0.120,0.050
6110,0.090,-0.080
6111,0.050,-0.100
6112,0.160,-0.070
6113,0.270,-0.110
6114,0.020,-0.060
6115,-0.050,-0.080
6116,-0.100,-0.070
6117,0.120,-0.100
6118,-0.030,-0.120
6119,-0.060,-0.150
6120,0.060,-0.150
6121,-0.040,-0.090
6122,-0.080,-0.070
6123,-0.110,-0.110
6124,-0.090,-0.110
6125,0.010,-0.060
6126,-0.090,-0.130
6127,-0.090,-0.050
6128,-0.040,-0.030
6129,-0.080,-0.100
6130,-0.060,-0.080
6131,-0.030,-0.030
6132,-0.030,0.000
6133,-0.010,-0.060
6134,0.000,-0.080
6135,-0.020,0.000
6136,0.000,-0.070
6137,0.080,-0.100
6138,0.050,-0.090
6139,0.030,-0.060
6140,0.170,-0.090
6141,-0.080,-0.140
6142,0.080,-0.070
6143,-0.090,-0.110
6144,-0.020,-0.070
6145,-0.070,-0.060
6146,0.000,-0.100
6147,0.060,-0.180
6148,-0.010,-0.170
6149,0.030,-0.110
6150,-0.060,-0.060
6151,-0.050,-0.080
6152,0.230,-0.240
6153,-0.060,-0.080
6154,-0.220,0.010
6155,-0.100,-0.120
6156,0.120,-0.180
6157,0.170,-0.080
6158,-0.260,-0.050
6159,0.000,-0.070
6160,0.080,-0.010
6161,0.080,-0.280
6162,-0.150,-0.060
6163,-0.070,-0.070
6164,0.010,-0.050
6165,-0.090,-0.200
6166,0.010,-0.110
6167,0.000,-0.060
6168,0.280,-0.090
6169,-0.210,-0.150
6170,-0.070,-0.100
6171,0.010,-0.050
6172,0.070,-0.070
6173,0.420,-0.230
6174,-0.260,-0.100
6175,-0.090,-0.090
6176,-0.030,-0.020
6177,0.050,-0.190
6178,0.020,-0.110
6179,0.030,-0.130
6180,0.070,-0.070
6181,0.070,-0.160
6182,0.040,-0.180
6183,0.060,-0.100
6184,0.140,-0.070
6185,0.040,-0.200
6186,0.110,-0.100
6187,0.170,0.010
6188,-0.040,-0.220
6189,0.120,-0.200
6190,0.400,-0.050
6191,-0.270,-0.080
6192,0.080,-0.080
6193,0.100,-0.020
6194,-0.060,0.030
6195,0.090,-0.180
6196,-0.020,-0.080
6197,0.080,-0.040
6198,0.030,-0.060
6199,0.090,-0.090
6200,0.120,-0.030
6201,0.010,0.100
6202,0.000,-0.090
6203,0.110,-0.120
6204,0.120,0.010
6205,0.160,0.050
6206,0.170,-0.040
6207,0.190,0.060
6208,0.370,0.120
6209,0.430,0.160
6210,0.090,0.030
6211,0.320,0.020
6212,0.230,0.030
6213,0.180,0.020
6214,0.160,-0.030
6215,0.210,-0.010
6216,0.130,0.000
6217,0.180,0.020
6218,0.110,-0.020
6219,-0.020,-0.110
6220,0.050,-0.020
6221,-0.150,0.030
6222,0.060,-0.110
6223,-0.030,-0.080
6224,-0.010,-0.020
6225,0.010,-0.030
6226,0.030,-0.010
6227,0.340,0.100
6228,0.070,0.120
6229,0.680,0.220
6230,1.060,0.330
6231,1.430,0.020
6232,1.210,-1.130
6233,-0.070,-1.510
6234,-1.730,-1.770
6235,-1.700,-1.240
6236,-1.650,-1.190
6237,-1.170,-0.780
6238,-0.670,-0.450
6239,-0.430,-0.260
6240,-0.310,-0.070
6241,-0.230,0.050
6242,-0.170,-0.030
6243,-0.170,0.000
6244,-0.270,0.030
6245,-0.170,0.030
6246,-0.050,0.040
6247,-0.320,0.130
6248,-0.200,-0.030
6249,-0.180,0.050
6250,-0.260,0.190
6251,-0.060,-0.010
6252,-0.170,0.050
6253,-0.210,0.080
6254,-0.140,0.120
6255,-0.190,0.140
6256,-0.140,0.110
6257,-0.220,0.130
6258,-0.080,0.130
6259,-0.040,0.160
6260,-0.130,0.210
6261,-0.060,0.180
6262,0.000,0.200
6263,-0.010,0.260
6264,0.000,0.130
6265,0.080,0.220
6266,0.110,0.170
6267,0.150,0.080
6268,0.140,0.150
6269,0.210,0.180
6270,0.310,0.180
6271,0.240,0.180
6272,0.270,0.230
6273,0.320,0.270
6274,0.180,0.090
6275,0.170,0.190
6276,0.160,0.160
6277,0.220,0.240
6278,0.160,0.100
6279,0.260,0.150
6280,0.130,0.190
6281,0.230,0.140
6282,0.210,0.170
6283,0.130,0.180
6284,0.170,0.100
6285,0.060,-0.060
6286,-0.030,0.050
6287,0.030,-0.060
6288,0.070,-0.060
6289,-0.150,-0.060
6290,0.100,0.000
6291,-0.210,-0.070
6292,-0.130,-0.090
6293,0.000,-0.030
6294,-0.110,-0.060
6295,-0.070,-0.040
6296,0.010,-0.030
6297,-0.120,-0.010
6298,0.020,-0.100
6299,0.030,-0.070
6300,0.170,0.050
6301,0.330,0.050
6302,0.650,-0.130
6303,0.560,-0.170
6304,1.910,0.430
6305,0.420,-0.380
6306,-1.120,-1.420
6307,-1.670,-1.460
6308,-1.370,-1.060
6309,-1.590,-0.910
6310,-1.270,-0.910
6311,-0.690,-0.580
6312,-0.600,-0.470
6313,-0.310,-0.290
6314,-0.300,-0.260
6315,-0.270,-0.190
6316,-0.260,-0.200
6317,-0.290,-0.180
6318,-0.250,-0.160
6319,-0.320,-0.160
6320,-0.210,-0.070
6321,-0.250,-0.160
6322,-0.260,-0.150
6323,-0.300,-0.040
6324,-0.250,-0.110
6325,-0.270,-0.120
6326,-0.260,-0.100
6327,-0.210,-0.090
6328,-0.130,-0.050
6329,-0.140,-0.060
6330,-0.260,-0.060
6331,-0.150,-0.010
6332,-0.090,0.010
6333,-0.140,-0.090
6334,-0.090,-0.010
6335,-0.020,-0.040
6336,-0.040,-0.090
6337,0.060,-0.050
6338,0.050,-0.080
6339,0.080,-0.030
6340,0.090,-0.140
6341,0.090,-0.070
6342,0.130,0.000
6343,0.100,-0.010
6344,0.160,-0.070
6345,0.160,0.030
6346,0.080,0.060
6347,0.100,0.070
6348,0.050,0.050
6349,-0.010,0.040
6350,0.000,0.050
6351,0.020,0.060
6352,-0.040,0.050
6353,0.010,0.050
6354,0.060,0.100
6355,0.030,0.010
6356,0.040,0.090
6357,-0.090,0.050
6358,-0.050,0.100
6359,0.030,0.070
6360,-0.050,0.080
6361,0.060,0.100
6362,-0.070,0.230
6363,0.080,-0.030
6364,0.030,0.080
6365,0.070,0.100
6366,0.010,0.110
6367,0.020,0.070
6368,0.000,0.110
6369,-0.030,0.100
6370,0.010,0.060
6371,0.070,0.090
6372,-0.090,0.080
6373,0.090,0.070
6374,0.040,0.140
6375,-0.120,0.020
6376,-0.080,0.000
6377,0.030,0.040
6378,-0.030,0.090
6379,-0.010,0.000
6380,0.020,0.030
6381,0.050,-0.010
6382,0.050,0.080
6383,-0.110,0.080
6384,0.020,-0.010
6385,-0.040,0.090
6386,-0.040,0.030
6387,0.040,-0.040
6388,-0.040,-0.020
6389,0.040,0.020
6390,0.050,0.040
6391,-0.030,-0.020
6392,-0.020,0.030
6393,-0.010,0.020
6394,0.000,0.070
6395,-0.060,-0.010
6396,-0.030,0.000
6397,0.020,0.050
6398,0.080,0.030
6399,-0.050,-0.050
6400,-0.070,0.010
6401,-0.010,0.060
6402,-0.020,0.000
6403,-0.110,-0.030
6404,-0.060,-0.010
6405,-0.030,0.130
6406,-0.040,-0.110
6407,-0.020,0.030
6408,-0.090,-0.020
6409,-0.050,0.020
6410,-0.070,0.020
6411,-0.120,0.020
6412,-0.130,0.000
6413,-0.120,0.120
6414,-0.070,-0.100
6415,-0.090,-0.010
6416,-0.080,0.020
6417,-0.180,0.050
6418,0.010,-0.070
6419,-0.180,-0.020
6420,-0.180,-0.020
6421,-0.120,0.070
6422,-0.090,-0.090
6423,-0.060,-0.040
6424,-0.070,-0.020
6425,-0.100,-0.010
6426,-0.120,-0.010
6427,-0.060,0.000
6428,-0.030,0.030
6429,-0.020,0.150
6430,0.020,0.030
6431,0.050,0.140
6432,0.100,0.200
6433,0.120,0.050
6434,0.060,0.040
6435,0.080,0.020
6436,-0.190,0.030
6437,-0.110,-0.090
6438,-0.080,-0.130
6439,-0.080,0.010
6440,-0.060,-0.050
6441,-0.100,-0.010
6442,-0.190,-0.050
6443,-0.200,-0.060
6444,-0.210,-0.040
6445,-0.230,-0.010
6446,-0.190,-0.030
6447,-0.210,-0.060
6448,-0.150,0.000
6449,-0.150,-0.030
6450,0.070,0.120
6451,0.100,0.050
6452,0.740,0.240
6453,0.950,0.320
6454,1.300,-0.490
6455,0.600,-1.160
6456,-0.480,-1.610
6457,-2.150,-1.730
6458,-1.790,-1.270
6459,-1.550,-1.030
6460,-1.230,-0.800
6461,-0.670,-0.440
6462,-0.510,-0.200
6463,-0.490,-0.070
6464,-0.440,-0.100
6465,-0.320,-0.050
6466,-0.360,-0.030
6467,-0.310,-0.050
6468,-0.370,-0.010
6469,-0.340,-0.040
6470,-0.340,-0.030
6471,-0.350,0.040
6472,-0.310,-0.050
6473,-0.340,-0.030
6474,-0.410,0.020
6475,-0.300,0.000
6476,-0.270,-0.020
6477,-0.270,0.050
6478,-0.310,0.040
6479,-0.280,0.060
6480,-0.220,0.130
6481,-0.190,0.110
6482,-0.210,0.110
6483,-0.140,0.200
6484,-0.140,0.130
6485,-0.030,0.160
6486,-0.080,0.190
6487,-0.060,0.230
6488,-0.090,0.140
6489,-0.010,0.200
6490,0.020,0.180
6491,0.070,0.200
6492,0.100,0.190
6493,0.200,0.240
6494,0.170,0.210
6495,0.190,0.220
6496,0.210,0.210
6497,0.070,0.200
6498,0.090,0.220
6499,0.090,0.090
6500,0.040,0.100
6501,0.010,0.120
6502,-0.010,0.050
6503,-0.080,0.080
6504,-0.080,0.070
6505,-0.100,0.070
6506,-0.110,0.050
6507,-0.130,0.020
6508,-0.150,0.030
6509,-0.090,0.070
6510,-0.080,0.040
6511,-0.090,0.050
6512,-0.150,0.040
6513,-0.090,0.060
6514,-0.130,0.100
6515,-0.060,0.080
6516,-0.110,0.050
6517,-0.110,0.060
6518,-0.020,0.090
6519,-0.030,0.060
6520,-0.060,0.070
6521,-0.050,0.110
6522,-0.090,0.010
6523,-0.080,-0.010
6524,-0.130,-0.020
6525,-0.040,0.020
6526,-0.180,-0.010
6527,-0.080,-0.040
6528,-0.070,-0.050
6529,-0.070,-0.060
6530,-0.190,-0.040
6531,-0.200,-0.020
6532,-0.130,-0.080
6533,-0.190,-0.020
6534,-0.190,-0.020
6535,-0.110,-0.130
6536,-0.110,-0.070
6537,-0.170,-0.080
6538,-0.110,-0.050
6539,-0.140,-0.060
6540,-0.140,-0.070
6541,-0.150,-0.050
6542,-0.180,-0.050
6543,-0.130,-0.060
6544,-0.130,-0.080
6545,-0.090,-0.030
6546,-0.110,-0.040
6547,-0.100,0.050
6548,-0.120,-0.180
6549,-0.140,-0.080
6550,-0.160,-0.070
6551,-0.080,-0.040
6552,-0.100,-0.070
6553,-0.140,-0.090
6554,-0.090,-0.050
6555,-0.050,-0.070
6556,-0.160,-0.060
6557,-0.110,-0.040
6558,-0.110,-0.080
6559,-0.100,-0.030
6560,-0.190,0.060
6561,-0.100,-0.210
6562,-0.030,-0.070
6563,-0.130,-0.060
6564,-0.020,-0.040
6565,-0.130,-0.060
6566,-0.120,-0.050
6567,-0.160,-0.030
6568,-0.060,0.060
6569,-0.060,-0.030
6570,0.010,0.040
6571,-0.010,0.130
6572,0.150,0.170
6573,0.080,0.010
6574,0.050,0.040
6575,0.010,0.080
6576,0.060,-0.050
6577,-0.020,-0.010
6578,-0.140,-0.110
6579,-0.010,-0.070
6580,-0.070,0.080
6581,-0.090,-0.160
6582,-0.160,-0.100
6583,-0.220,-0.110
6584,-0.250,-0.100
6585,-0.200,-0.060
6586,-0.170,-0.130
6587,-0.220,-0.100
6588,-0.110,-0.020
6589,-0.190,-0.120
6590,-0.070,0.060
6591,0.060,0.070
6592,0.540,0.120
6593,0.860,0.290
6594,1.190,0.350
6595,1.520,-0.920
6596,-0.110,-1.290
6597,-1.490,-1.620
6598,-1.960,-1.150
6599,-1.880,-1.220
6600,-1.300,-0.770
6601,-1.030,-0.590
6602,-0.590,-0.300
6603,-0.470,-0.160
6604,-0.380,-0.100
6605,-0.270,-0.040
6606,-0.300,-0.070
6607,-0.270,-0.020
6608,-0.320,-0.050
6609,-0.300,-0.040
6610,-0.260,-0.040
6611,-0.410,-0.010
6612,-0.280,-0.050
6613,-0.230,-0.020
6614,-0.290,0.030
6615,-0.310,0.010
6616,-0.260,-0.020
6617,-0.270,-0.030
6618,-0.290,0.020
6619,-0.160,0.000
6620,-0.270,0.020
6621,-0.230,0.020
6622,-0.150,0.060
6623,-0.180,0.040
6624,-0.190,0.020
6625,-0.100,0.010
6626,-0.100,0.070
6627,-0.090,0.080
6628,0.030,-0.080
6629,-0.100,0.020
6630,-0.050,-0.050
6631,0.060,-0.030
6632,0.040,-0.030
6633,0.100,-0.050
6634,0.140,-0.030
6635,0.130,-0.040
6636,0.090,-0.030
6637,0.110,0.000
6638,0.050,0.040
6639,0.070,-0.040
6640,0.040,-0.030
6641,0.000,-0.030
6642,0.030,0.010
6643,-0.040,-0.040
6644,-0.060,-0.010
6645,-0.040,-0.040
6646,-0.050,0.000
6647,-0.110,-0.020
6648,-0.040,-0.010
6649,0.000,0.020
6650,-0.060,0.030
6651,-0.030,0.050
6652,-0.030,0.030
6653,-0.010,0.080
6654,0.010,0.060
6655,-0.020,0.130
6656,0.040,0.030
6657,-0.030,0.060
6658,0.030,0.070
6659,0.070,0.110
6660,0.020,0.100
6661,0.070,0.110
6662,0.040,0.060
6663,0.060,0.080
6664,-0.010,0.070
6665,0.090,0.060
6666,0.100,0.130
6667,0.060,0.060
6668,0.080,0.000
6669,-0.070,0.030
6670,0.040,0.030
6671,-0.090,0.030
6672,0.020,0.010
6673,0.080,0.020
6674,-0.080,0.030
6675,-0.020,0.010
6676,0.040,0.010
6677,0.000,0.000
6678,-0.030,0.100
6679,0.080,-0.080
6680,0.360,0.040
6681,0.750,0.200
6682,1.370,0.320
6683,1.460,0.330
6684,0.530,0.120
6685,-0.310,-0.140
6686,-0.860,-0.240
6687,-1.530,-0.240
6688,-1.460,-0.230
6689,-1.470,-0.170
6690,-1.800,-0.360
6691,-1.780,-0.030
6692,-1.710,0.130
6693,-1.540,0.580
6694,-1.540,0.400
6695,-1.420,0.130
6696,-1.140,-0.190
6697,-1.130,-0.390
6698,-0.800,-0.650
6699,-0.470,-0.480
6700,-0.220,-0.410
6701,-0.290,-0.260
6702,-0.240,-0.390
6703,-0.130,-0.310
6704,-0.120,-0.300
6705,-0.350,-0.360
6706,-0.120,-0.350
6707,0.080,-0.230
6708,0.300,-0.190
6709,0.320,-0.260
6710,0.300,-0.180
6711,0.340,-0.270
6712,0.460,-0.230
6713,0.560,-0.270
6714,0.560,-0.260
6715,0.690,-0.270
6716,0.830,-0.250
6717,0.850,-0.260
6718,0.920,-0.190
6719,1.100,-0.380
6720,1.090,-0.300
6721,1.170,-0.220
6722,1.040,-0.230
6723,1.050,-0.190
6724,1.050,-0.130
6725,1.060,-0.120
6726,1.140,0.000
6727,1.060,-0.030
6728,1.020,0.020
6729,0.740,0.190
6730,0.860,0.190
6731,0.830,0.280
6732,0.760,0.310
6733,0.500,0.280
6734,0.640,0.290
6735,0.620,0.390
6736,0.560,0.280
6737,0.530,0.220
6738,0.500,0.250
6739,0.440,0.250
6740,0.540,0.250
6741,0.360,0.320
6742,0.500,0.110
6743,0.460,0.220
6744,0.410,0.200
6745,0.470,0.180
6746,0.440,0.190
6747,0.550,0.210
6748,0.300,0.240
6749,0.480,0.200
6750,0.350,0.210
6751,0.380,0.140
6752,0.410,0.190
6753,0.370,0.260
6754,0.470,0.150
6755,0.390,0.140
6756,0.340,0.180
6757,0.290,0.110
6758,0.400,0.160
6759,0.340,0.120
6760,0.380,0.130
6761,0.220,0.180
6762,0.330,0.140
6763,0.320,0.190
6764,0.330,0.120
6765,0.240,0.080
6766,0.290,0.220
6767,0.240,0.110
6768,0.260,0.150
6769,0.290,0.080
6770,0.260,0.140
6771,0.300,0.180
