'sample interval','ECG0','ECG1'
'0.0078125 sec','mV','mV'
0,-0.050,0.005
1,-0.090,0.015
2,-0.095,0.010
3,-0.140,0.020
4,-0.140,0.015
5,-0.150,0.020
6,-0.145,0.020
7,-0.145,0.020
8,-0.145,0.020
9,-0.145,0.020
10,-0.130,0.015
11,-0.130,0.020
12,-0.115,0.015
13,-0.115,0.015
14,-0.100,0.015
15,-0.095,0.020
16,-0.100,0.020
17,-0.100,0.015
18,-0.100,0.020
19,-0.095,0.025
20,-0.075,0.030
21,-0.050,0.040
22,-0.025,0.060
23,-0.005,0.075
24,0.000,0.050
25,0.000,0.020
26,0.000,0.000
27,0.000,0.005
28,-0.020,0.005
29,-0.060,0.010
30,-0.100,0.005
31,-0.140,0.015
32,-0.140,0.005
33,-0.140,0.015
34,-0.130,0.010
35,-0.135,0.020
36,-0.135,0.065
37,-0.160,0.170
38,-0.045,0.140
39,0.395,-0.060
40,1.215,-0.665
41,1.045,-0.840
42,-0.330,-0.415
43,-0.600,-0.265
44,-0.375,-0.075
45,-0.195,0.010
46,-0.150,0.060
47,-0.140,0.065
48,-0.130,0.080
49,-0.100,0.070
50,-0.110,0.080
51,-0.095,0.075
52,-0.095,0.080
53,-0.075,0.070
54,-0.080,0.075
55,-0.055,0.065
56,-0.045,0.075
57,-0.030,0.060
58,-0.030,0.055
59,-0.010,0.050
60,0.000,0.050
61,0.010,0.040
62,0.025,0.035
63,0.050,0.030
64,0.085,0.025
65,0.115,0.025
66,0.150,0.010
67,0.190,0.005
68,0.235,0.000
69,0.285,0.000
70,0.330,0.000
71,0.355,0.000
72,0.375,0.000
73,0.380,-0.010
74,0.360,-0.005
75,0.345,-0.010
76,0.315,-0.010
77,0.265,-0.010
78,0.195,0.000
79,0.145,0.000
80,0.060,0.000
81,0.025,0.000
82,-0.010,0.005
83,-0.045,0.005
84,-0.090,0.015
85,-0.100,0.005
86,-0.135,0.010
87,-0.140,0.005
88,-0.145,0.015
89,-0.145,0.010
90,-0.145,0.010
91,-0.145,0.010
92,-0.145,0.010
93,-0.130,0.025
94,-0.130,0.010
95,-0.120,0.010
96,-0.105,0.010
97,-0.100,0.015
98,-0.095,0.005
99,-0.095,0.015
100,-0.100,0.015
101,-0.100,0.020
102,-0.090,0.025
103,-0.075,0.035
104,-0.040,0.045
105,-0.015,0.060
106,-0.005,0.060
107,0.000,0.040
108,0.000,0.015
109,0.000,0.000
110,0.000,0.000
111,-0.030,0.000
112,-0.075,0.000
113,-0.105,0.000
114,-0.130,0.005
115,-0.145,0.005
116,-0.140,0.005
117,-0.135,0.005
118,-0.130,0.025
119,-0.150,0.095
120,-0.145,0.165
121,0.045,0.100
122,0.610,-0.220
123,1.300,-0.765
124,0.630,-0.725
125,-0.485,-0.350
126,-0.545,-0.215
127,-0.320,-0.035
128,-0.165,0.015
129,-0.145,0.060
130,-0.120,0.055
131,-0.125,0.080
132,-0.095,0.055
133,-0.095,0.075
134,-0.090,0.070
135,-0.090,0.075
136,-0.070,0.070
137,-0.065,0.070
138,-0.045,0.055
139,-0.045,0.060
140,-0.030,0.050
141,-0.010,0.050
142,0.000,0.050
143,0.000,0.045
144,0.015,0.040
145,0.040,0.030
146,0.065,0.030
147,0.095,0.025
148,0.130,0.020
149,0.170,0.010
150,0.205,0.005
151,0.255,0.005
152,0.300,0.000
153,0.340,0.000
154,0.365,0.000
155,0.370,-0.005
156,0.370,-0.005
157,0.345,0.000
158,0.330,-0.010
159,0.295,0.000
160,0.250,-0.010
161,0.170,0.000
162,0.120,0.000
163,0.055,0.000
164,0.005,0.000
165,-0.025,0.010
166,-0.045,0.010
167,-0.090,0.010
168,-0.115,0.010
169,-0.130,0.010
170,-0.145,0.010
171,-0.145,0.010
172,-0.145,0.015
173,-0.145,0.010
174,-0.140,0.020
175,-0.140,0.010
176,-0.130,0.025
177,-0.115,0.005
178,-0.125,0.015
179,-0.100,0.015
180,-0.100,0.020
181,-0.095,0.005
182,-0.105,0.010
183,-0.100,0.015
184,-0.095,0.025
185,-0.080,0.020
186,-0.065,0.035
187,-0.030,0.045
188,-0.010,0.065
189,0.000,0.060
190,0.000,0.030
191,0.000,0.005
192,0.000,0.000
193,-0.005,0.000
194,-0.035,0.000
195,-0.075,0.005
196,-0.105,0.005
197,-0.125,0.010
198,-0.140,0.005
199,-0.135,0.005
200,-0.125,0.010
201,-0.130,0.025
202,-0.145,0.110
203,-0.110,0.170
204,0.100,0.080
205,0.715,-0.300
206,1.260,-0.785
207,0.425,-0.660
208,-0.520,-0.335
209,-0.505,-0.205
210,-0.290,-0.030
211,-0.150,0.010
212,-0.140,0.055
213,-0.120,0.055
214,-0.120,0.075
215,-0.095,0.065
216,-0.095,0.070
217,-0.075,0.065
218,-0.085,0.065
219,-0.060,0.050
220,-0.050,0.050
221,-0.040,0.050
222,-0.040,0.045
223,-0.025,0.050
224,-0.005,0.040
225,0.000,0.040
226,0.000,0.025
227,0.010,0.030
228,0.035,0.025
229,0.065,0.020
230,0.095,0.010
231,0.120,0.010
232,0.170,0.005
233,0.210,0.000
234,0.255,0.000
235,0.295,0.000
236,0.335,0.000
237,0.365,-0.005
238,0.370,-0.010
239,0.360,-0.020
240,0.345,-0.020
241,0.325,-0.025
242,0.285,-0.020
243,0.230,-0.020
244,0.170,0.000
245,0.115,0.000
246,0.045,0.000
247,0.000,0.000
248,-0.020,0.005
249,-0.050,0.005
250,-0.085,0.005
251,-0.105,0.010
252,-0.125,0.005
253,-0.135,0.010
254,-0.130,0.005
255,-0.140,0.005
256,-0.140,0.000
257,-0.140,0.015
258,-0.120,0.000
259,-0.125,0.015
260,-0.095,0.005
261,-0.110,0.015
262,-0.095,0.005
263,-0.100,0.015
264,-0.095,0.005
265,-0.095,0.010
266,-0.095,0.010
267,-0.095,0.010
268,-0.085,0.005
269,-0.070,0.015
270,-0.045,0.035
271,-0.020,0.055
272,-0.005,0.065
273,0.000,0.040
274,0.000,0.010
275,0.000,0.000
276,0.000,0.000
277,-0.005,0.000
278,-0.035,0.000
279,-0.075,0.000
280,-0.105,0.000
281,-0.120,0.005
282,-0.120,0.000
283,-0.115,0.000
284,-0.105,0.005
285,-0.120,0.055
286,-0.125,0.135
287,-0.040,0.145
288,0.350,-0.050
289,1.010,-0.535
290,1.060,-0.815
291,-0.090,-0.485
292,-0.525,-0.315
293,-0.390,-0.140
294,-0.190,-0.010
295,-0.140,0.030
296,-0.115,0.050
297,-0.110,0.055
298,-0.095,0.065
299,-0.095,0.065
300,-0.090,0.065
301,-0.090,0.065
302,-0.070,0.065
303,-0.045,0.050
304,-0.045,0.065
305,-0.040,0.045
306,-0.035,0.050
307,-0.010,0.040
308,-0.010,0.045
309,0.000,0.030
310,0.000,0.035
311,0.035,0.025
312,0.050,0.030
313,0.080,0.020
314,0.105,0.015
315,0.140,0.010
316,0.175,0.005
317,0.215,0.000
318,0.260,0.000
319,0.305,0.000
320,0.335,-0.005
321,0.345,-0.005
322,0.355,-0.010
323,0.350,-0.015
324,0.330,-0.020
325,0.295,-0.025
326,0.255,-0.020
327,0.205,-0.010
328,0.150,0.000
329,0.090,0.000
330,0.035,0.000
331,-0.005,0.000
332,-0.040,0.005
333,-0.065,0.000
334,-0.095,0.015
335,-0.100,0.000
336,-0.125,0.015
337,-0.125,0.000
338,-0.140,0.015
339,-0.140,0.000
340,-0.140,0.015
341,-0.125,0.000
342,-0.135,0.010
343,-0.105,0.005
344,-0.115,0.010
345,-0.100,0.005
346,-0.100,0.005
347,-0.095,0.005
348,-0.100,0.005
349,-0.100,0.005
350,-0.100,0.005
351,-0.100,0.010
352,-0.090,0.015
353,-0.055,0.025
354,-0.025,0.045
355,-0.010,0.070
356,0.000,0.055
357,0.000,0.025
358,0.000,0.005
359,0.000,0.000
360,-0.005,0.000
361,-0.025,0.000
362,-0.065,0.000
363,-0.100,0.000
364,-0.120,0.000
365,-0.130,0.000
366,-0.130,0.005
367,-0.120,0.000
368,-0.125,0.030
369,-0.135,0.105
370,-0.115,0.170
371,0.125,0.065
372,0.715,-0.290
373,1.160,-0.765
374,0.400,-0.680
375,-0.425,-0.390
376,-0.485,-0.240
377,-0.280,-0.060
378,-0.160,0.015
379,-0.135,0.045
380,-0.120,0.055
381,-0.115,0.070
382,-0.100,0.050
383,-0.095,0.075
384,-0.085,0.065
385,-0.085,0.075
386,-0.070,0.050
387,-0.070,0.065
388,-0.045,0.045
389,-0.045,0.060
390,-0.020,0.040
391,-0.020,0.060
392,0.000,0.040
393,0.000,0.040
394,0.015,0.030
395,0.025,0.030
396,0.060,0.025
397,0.090,0.025
398,0.120,0.010
399,0.145,0.010
400,0.190,0.005
401,0.235,0.000
402,0.270,0.000
403,0.305,0.000
404,0.325,-0.005
405,0.330,-0.005
406,0.330,-0.005
407,0.320,-0.010
408,0.290,-0.015
409,0.250,-0.015
410,0.200,-0.005
411,0.140,0.000
412,0.090,0.000
413,0.035,0.000
414,-0.005,0.000
415,-0.045,0.005
416,-0.070,0.005
417,-0.105,0.015
418,-0.120,0.005
419,-0.145,0.010
420,-0.145,0.005
421,-0.145,0.010
422,-0.145,0.005
423,-0.145,0.010
424,-0.145,0.005
425,-0.140,0.010
426,-0.140,0.010
427,-0.140,0.010
428,-0.120,0.010
429,-0.120,0.010
430,-0.105,0.010
431,-0.105,0.005
432,-0.100,0.010
433,-0.100,0.005
434,-0.100,0.015
435,-0.095,0.010
436,-0.075,0.030
437,-0.050,0.045
438,-0.030,0.070
439,-0.005,0.055
440,-0.010,0.030
441,-0.005,0.005
442,0.000,0.000
443,-0.010,0.000
444,-0.045,0.000
445,-0.080,0.000
446,-0.120,0.005
447,-0.140,0.005
448,-0.145,0.005
449,-0.140,0.005
450,-0.140,0.005
451,-0.145,0.025
452,-0.155,0.095
453,-0.140,0.160
454,0.075,0.085
455,0.670,-0.260
456,1.165,-0.730
457,0.560,-0.705
458,-0.445,-0.365
459,-0.540,-0.215
460,-0.325,-0.045
461,-0.180,0.020
462,-0.150,0.050
463,-0.140,0.050
464,-0.135,0.075
465,-0.115,0.055
466,-0.110,0.075
467,-0.095,0.055
468,-0.095,0.060
469,-0.085,0.045
470,-0.085,0.060
471,-0.050,0.045
472,-0.055,0.050
473,-0.035,0.040
474,-0.035,0.045
475,-0.005,0.035
476,0.000,0.035
477,0.005,0.030
478,0.020,0.030
479,0.055,0.020
480,0.090,0.015
481,0.120,0.010
482,0.150,0.000
483,0.195,0.000
484,0.235,0.000
485,0.280,0.000
486,0.330,-0.005
487,0.350,0.000
488,0.360,-0.005
489,0.355,-0.005
490,0.340,-0.010
491,0.310,-0.015
492,0.275,-0.015
493,0.230,-0.015
494,0.160,0.000
495,0.095,0.000
496,0.035,0.000
497,-0.005,0.000
498,-0.045,0.000
499,-0.070,0.000
500,-0.110,0.005
501,-0.130,0.005
502,-0.145,0.005
503,-0.145,0.005
504,-0.145,0.010
505,-0.145,0.010
506,-0.145,0.010
507,-0.145,0.005
508,-0.140,0.005
509,-0.125,0.005
510,-0.115,0.005
511,-0.110,0.005
512,-0.095,0.000
513,-0.100,0.005
514,-0.095,0.000
515,-0.110,0.010
516,-0.100,0.000
517,-0.110,0.015
518,-0.095,0.005
519,-0.070,0.030
520,-0.030,0.035
521,-0.020,0.060
522,0.000,0.045
523,-0.005,0.025
524,0.000,0.005
525,0.000,0.000
526,-0.010,0.000
527,-0.045,0.000
528,-0.085,0.000
529,-0.120,0.000
530,-0.140,0.000
531,-0.140,0.000
532,-0.145,0.005
533,-0.145,0.000
534,-0.145,0.025
535,-0.155,0.100
536,-0.125,0.160
537,0.140,0.050
538,0.785,-0.345
539,1.160,-0.770
540,0.415,-0.670
541,-0.485,-0.340
542,-0.510,-0.200
543,-0.295,-0.040
544,-0.160,0.015
545,-0.140,0.045
546,-0.125,0.050
547,-0.130,0.065
548,-0.100,0.050
549,-0.115,0.050
550,-0.095,0.045
551,-0.090,0.050
552,-0.070,0.050
553,-0.065,0.045
554,-0.045,0.045
555,-0.045,0.045
556,-0.035,0.045
557,-0.035,0.040
558,0.000,0.035
559,0.000,0.025
560,0.005,0.025
561,0.035,0.020
562,0.060,0.015
563,0.090,0.005
564,0.120,0.010
565,0.165,0.000
566,0.205,0.000
567,0.250,0.000
568,0.290,0.000
569,0.330,-0.005
570,0.350,-0.005
571,0.360,-0.010
572,0.360,-0.015
573,0.340,-0.020
574,0.310,-0.020
575,0.270,-0.025
576,0.220,-0.015
577,0.155,0.000
578,0.085,0.000
579,0.020,0.000
580,-0.005,0.000
581,-0.040,0.000
582,-0.080,0.000
583,-0.110,0.005
584,-0.130,0.000
585,-0.140,0.000
586,-0.145,0.005
587,-0.145,0.005
588,-0.140,0.000
589,-0.140,0.000
590,-0.140,0.000
591,-0.125,0.000
592,-0.125,0.005
593,-0.115,0.000
594,-0.110,0.010
595,-0.095,0.000
596,-0.095,0.005
597,-0.095,0.000
598,-0.095,0.010
599,-0.095,0.000
600,-0.110,0.005
601,-0.095,0.000
602,-0.090,0.020
603,-0.050,0.025
604,-0.025,0.045
605,0.000,0.040
606,-0.005,0.020
607,0.000,0.005
608,0.000,0.000
609,-0.005,0.000
610,-0.030,0.000
611,-0.070,0.000
612,-0.105,0.000
613,-0.135,0.000
614,-0.145,0.005
615,-0.145,0.005
616,-0.145,0.000
617,-0.145,0.010
618,-0.150,0.070
619,-0.155,0.140
620,-0.005,0.120
621,0.500,-0.165
622,1.125,-0.655
623,0.825,-0.765
624,-0.260,-0.440
625,-0.565,-0.245
626,-0.380,-0.080
627,-0.200,0.010
628,-0.150,0.045
629,-0.140,0.050
630,-0.135,0.060
631,-0.120,0.050
632,-0.115,0.055
633,-0.095,0.055
634,-0.090,0.055
635,-0.085,0.050
636,-0.080,0.050
637,-0.065,0.050
638,-0.055,0.045
639,-0.045,0.045
640,-0.035,0.035
641,-0.020,0.035
642,0.000,0.025
643,0.000,0.030
644,0.020,0.010
645,0.035,0.020
646,0.080,0.000
647,0.100,0.010
648,0.145,0.000
649,0.175,0.000
650,0.225,0.000
651,0.265,0.000
652,0.310,-0.005
653,0.330,-0.005
654,0.355,-0.010
655,0.355,-0.015
656,0.350,-0.025
657,0.325,-0.030
658,0.285,-0.030
659,0.235,-0.020
660,0.180,-0.005
661,0.115,0.000
662,0.045,0.000
663,0.000,0.000
664,-0.030,0.000
665,-0.070,0.005
666,-0.100,0.005
667,-0.130,0.000
668,-0.140,0.005
669,-0.145,0.010
670,-0.145,0.005
671,-0.145,0.010
672,-0.145,0.000
673,-0.145,0.010
674,-0.145,0.000
675,-0.140,0.010
676,-0.120,0.000
677,-0.115,0.010
678,-0.100,0.000
679,-0.115,0.005
680,-0.095,0.000
681,-0.110,0.005
682,-0.100,0.000
683,-0.110,0.005
684,-0.100,0.005
685,-0.100,0.005
686,-0.075,0.015
687,-0.045,0.025
688,-0.025,0.050
689,-0.015,0.050
690,-0.010,0.025
691,0.000,0.000
692,0.000,0.000
693,-0.005,0.000
694,-0.035,0.000
695,-0.065,0.000
696,-0.105,0.000
697,-0.130,0.000
698,-0.140,0.005
699,-0.145,0.000
700,-0.145,0.000
701,-0.135,0.000
702,-0.140,0.065
703,-0.140,0.135
704,-0.025,0.125
705,0.440,-0.135
706,1.085,-0.615
707,0.850,-0.750
708,-0.160,-0.465
709,-0.540,-0.260
710,-0.380,-0.110
711,-0.215,0.000
712,-0.145,0.035
713,-0.140,0.055
714,-0.125,0.070
715,-0.110,0.070
716,-0.100,0.075
717,-0.095,0.065
718,-0.090,0.070
719,-0.085,0.050
720,-0.070,0.070
721,-0.045,0.040
722,-0.045,0.050
723,-0.040,0.030
724,-0.035,0.040
725,0.000,0.020
726,0.000,0.035
727,0.000,0.020
728,0.005,0.025
729,0.045,0.005
730,0.055,0.015
731,0.100,0.005
732,0.130,0.000
733,0.175,0.000
734,0.200,0.000
735,0.260,0.000
736,0.295,0.000
737,0.330,-0.005
738,0.335,-0.020
739,0.345,-0.030
740,0.345,-0.030
741,0.330,-0.035
742,0.300,-0.035
743,0.255,-0.020
744,0.200,-0.015
745,0.135,-0.005
746,0.080,0.000
747,0.030,0.000
748,0.000,0.000
749,-0.035,0.000
750,-0.070,0.000
751,-0.095,0.000
752,-0.115,0.005
753,-0.125,0.000
754,-0.140,0.005
755,-0.130,0.000
756,-0.140,0.005
757,-0.130,0.005
758,-0.140,0.010
759,-0.125,0.000
760,-0.120,0.010
761,-0.100,0.010
762,-0.110,0.005
763,-0.095,0.005
764,-0.095,0.005
765,-0.095,0.005
766,-0.095,0.005
767,-0.095,0.005
768,-0.095,0.005
769,-0.095,0.005
770,-0.095,0.005
771,-0.075,0.015
772,-0.045,0.020
773,-0.020,0.060
774,0.000,0.045
775,0.000,0.025
776,0.000,0.000
777,0.000,0.000
778,0.000,0.000
779,-0.030,0.000
780,-0.055,0.000
781,-0.095,0.000
782,-0.120,0.000
783,-0.135,0.000
784,-0.130,0.000
785,-0.130,0.000
786,-0.130,0.005
787,-0.140,0.080
788,-0.135,0.150
789,0.025,0.110
790,0.560,-0.200
791,1.095,-0.670
792,0.685,-0.725
793,-0.255,-0.445
794,-0.500,-0.275
795,-0.335,-0.100
796,-0.190,0.000
797,-0.145,0.040
798,-0.135,0.055
799,-0.120,0.065
800,-0.105,0.060
801,-0.100,0.075
802,-0.095,0.060
803,-0.090,0.075
804,-0.070,0.055
805,-0.070,0.065
806,-0.045,0.045
807,-0.045,0.065
808,-0.035,0.045
809,-0.030,0.045
810,0.000,0.040
811,0.000,0.040
812,0.005,0.030
813,0.020,0.030
814,0.055,0.030
815,0.070,0.020
816,0.110,0.015
817,0.140,0.005
818,0.175,0.005
819,0.215,0.000
820,0.255,0.000
821,0.300,-0.005
822,0.325,0.000
823,0.345,-0.010
824,0.350,-0.005
825,0.340,-0.020
826,0.315,-0.020
827,0.290,-0.020
828,0.245,-0.010
829,0.195,-0.005
830,0.135,0.000
831,0.070,0.000
832,0.025,0.005
833,-0.005,0.005
834,-0.040,0.005
835,-0.075,0.010
836,-0.100,0.005
837,-0.115,0.010
838,-0.125,0.010
839,-0.140,0.010
840,-0.140,0.010
841,-0.140,0.010
842,-0.130,0.005
843,-0.135,0.005
844,-0.125,0.010
845,-0.120,0.005
846,-0.110,0.010
847,-0.100,0.005
848,-0.100,0.010
849,-0.100,0.000
850,-0.100,0.000
851,-0.095,0.000
852,-0.095,0.005
853,-0.095,0.000
854,-0.100,0.010
855,-0.095,0.000
856,-0.090,0.010
857,-0.045,0.015
858,-0.025,0.050
859,0.000,0.050
860,0.000,0.030
861,0.000,0.005
862,0.000,0.000
863,0.000,0.000
864,-0.025,0.000
865,-0.045,0.000
866,-0.085,0.000
867,-0.110,0.000
868,-0.130,0.000
869,-0.130,0.000
870,-0.130,0.000
871,-0.130,0.000
872,-0.135,0.060
873,-0.145,0.145
874,-0.030,0.135
875,0.400,-0.095
876,1.050,-0.570
877,0.880,-0.750
878,-0.090,-0.490
879,-0.510,-0.290
880,-0.390,-0.130
881,-0.210,-0.010
882,-0.145,0.035
883,-0.130,0.055
884,-0.125,0.075
885,-0.100,0.065
886,-0.110,0.070
887,-0.095,0.070
888,-0.090,0.075
889,-0.085,0.070
890,-0.085,0.065
891,-0.055,0.065
892,-0.045,0.065
893,-0.040,0.060
894,-0.035,0.050
895,-0.005,0.045
896,0.000,0.035
897,0.000,0.040
898,0.020,0.025
899,0.045,0.030
900,0.075,0.020
901,0.095,0.025
902,0.140,0.000
903,0.160,0.010
904,0.210,0.000
905,0.240,0.000
906,0.295,0.000
907,0.320,0.000
908,0.350,-0.005
909,0.340,0.000
910,0.345,-0.005
911,0.320,-0.005
912,0.295,-0.010
913,0.240,-0.005
914,0.190,0.000
915,0.140,0.000
916,0.080,0.000
917,0.025,0.005
918,-0.010,0.010
919,-0.045,0.010
920,-0.080,0.010
921,-0.105,0.015
922,-0.130,0.010
923,-0.145,0.010
924,-0.145,0.010
925,-0.145,0.025
926,-0.145,0.015
927,-0.145,0.015
928,-0.145,0.010
929,-0.140,0.025
930,-0.125,0.010
931,-0.130,0.015
932,-0.105,0.000
933,-0.115,0.015
934,-0.095,0.005
935,-0.100,0.010
936,-0.095,0.000
937,-0.110,0.005
938,-0.095,0.005
939,-0.120,0.010
940,-0.105,0.005
941,-0.115,0.010
942,-0.100,0.020
943,-0.075,0.030
944,-0.040,0.040
945,-0.035,0.060
946,-0.010,0.040
947,-0.010,0.005
948,-0.010,0.000
949,0.000,0.000
950,-0.025,0.000
951,-0.055,0.000
952,-0.090,0.000
953,-0.110,0.000
954,-0.135,0.005
955,-0.140,0.005
956,-0.140,0.005
957,-0.130,0.000
958,-0.135,0.040
959,-0.150,0.120
960,-0.095,0.155
961,0.240,0.000
962,0.935,-0.450
963,1.100,-0.780
964,0.200,-0.585
965,-0.520,-0.300
966,-0.470,-0.155
967,-0.265,-0.015
968,-0.155,0.030
969,-0.140,0.060
970,-0.125,0.070
971,-0.120,0.070
972,-0.105,0.075
973,-0.100,0.070
974,-0.095,0.075
975,-0.090,0.070
976,-0.085,0.070
977,-0.065,0.055
978,-0.060,0.070
979,-0.045,0.055
980,-0.040,0.050
981,-0.010,0.040
982,-0.010,0.060
983,0.000,0.035
984,0.000,0.035
985,0.045,0.025
986,0.050,0.030
987,0.100,0.010
988,0.125,0.015
989,0.170,0.005
990,0.205,0.005
991,0.260,0.000
992,0.295,0.000
993,0.340,0.000
994,0.355,0.000
995,0.365,0.000
996,0.365,-0.005
997,0.355,-0.005
998,0.330,-0.005
999,0.295,0.000
1000,0.235,0.000
1001,0.180,0.000
1002,0.115,0.000
1003,0.045,0.000
1004,0.005,0.000
1005,-0.020,0.005
1006,-0.060,0.010
1007,-0.095,0.010
1008,-0.120,0.020
1009,-0.135,0.015
1010,-0.145,0.020
1011,-0.145,0.015
1012,-0.145,0.015
1013,-0.145,0.005
1014,-0.140,0.005
1015,-0.125,0.005
1016,-0.130,0.010
1017,-0.105,0.000
1018,-0.120,0.005
1019,-0.100,0.005
1020,-0.110,0.010
1021,-0.100,0.010
1022,-0.105,0.010
1023,-0.105,0.010
1024,-0.115,0.010
1025,-0.115,0.010
1026,-0.105,0.005
1027,-0.105,0.010
1028,-0.095,0.010
1029,-0.075,0.035
1030,-0.045,0.040
1031,-0.020,0.065
1032,0.000,0.040
1033,-0.005,0.015
1034,0.000,0.000
1035,0.000,0.000
1036,-0.010,0.000
1037,-0.050,0.000
1038,-0.085,0.000
1039,-0.120,0.005
1040,-0.140,0.005
1041,-0.145,0.010
1042,-0.140,0.005
1043,-0.140,0.005
1044,-0.145,0.030
1045,-0.155,0.110
1046,-0.105,0.160
1047,0.185,0.035
1048,0.860,-0.385
1049,1.150,-0.770
1050,0.335,-0.625
1051,-0.480,-0.320
1052,-0.490,-0.165
1053,-0.275,-0.015
1054,-0.155,0.025
1055,-0.130,0.065
1056,-0.120,0.070
1057,-0.115,0.080
1058,-0.100,0.065
1059,-0.100,0.080
1060,-0.090,0.065
1061,-0.085,0.080
1062,-0.070,0.070
1063,-0.065,0.080
1064,-0.045,0.070
1065,-0.040,0.075
1066,-0.020,0.050
1067,-0.020,0.060
1068,0.000,0.045
1069,0.000,0.045
1070,0.030,0.030
1071,0.045,0.030
1072,0.080,0.015
1073,0.095,0.010
1074,0.140,0.010
1075,0.175,0.000
1076,0.220,0.000
1077,0.265,0.000
1078,0.310,0.000
1079,0.350,-0.005
1080,0.370,0.000
1081,0.380,-0.005
1082,0.375,-0.010
1083,0.370,-0.015
1084,0.345,-0.010
1085,0.310,-0.010
1086,0.260,-0.005
1087,0.200,0.000
1088,0.140,0.000
1089,0.075,0.000
1090,0.030,0.000
1091,-0.005,0.000
1092,-0.040,0.005
1093,-0.080,0.010
1094,-0.100,0.005
1095,-0.115,0.005
1096,-0.120,0.005
1097,-0.125,0.010
1098,-0.125,0.010
1099,-0.135,0.015
1100,-0.125,0.010
1101,-0.115,0.010
1102,-0.110,0.005
1103,-0.095,0.005
1104,-0.090,0.010
1105,-0.090,0.005
1106,-0.090,0.015
1107,-0.090,0.000
1108,-0.095,0.015
1109,-0.095,0.005
1110,-0.095,0.015
1111,-0.095,0.000
1112,-0.100,0.015
1113,-0.095,0.000
1114,-0.095,0.015
1115,-0.075,0.015
1116,-0.060,0.035
1117,-0.025,0.045
1118,-0.015,0.065
1119,0.000,0.040
1120,0.000,0.010
1121,0.000,0.000
1122,-0.005,0.000
1123,-0.015,0.000
1124,-0.045,0.000
1125,-0.080,0.000
1126,-0.110,0.000
1127,-0.135,0.005
1128,-0.140,0.005
1129,-0.130,0.005
1130,-0.125,0.005
1131,-0.130,0.045
1132,-0.145,0.125
1133,-0.075,0.145
1134,0.280,-0.025
1135,0.975,-0.480
1136,1.090,-0.780
1137,0.105,-0.550
1138,-0.535,-0.280
1139,-0.435,-0.135
1140,-0.240,0.000
1141,-0.145,0.035
1142,-0.135,0.070
1143,-0.120,0.070
1144,-0.120,0.080
1145,-0.095,0.070
1146,-0.090,0.080
1147,-0.085,0.075
1148,-0.090,0.075
1149,-0.065,0.075
1150,-0.060,0.075
1151,-0.045,0.070
1152,-0.045,0.065
1153,-0.025,0.045
1154,0.000,0.045
1155,0.000,0.045
1156,0.000,0.030
1157,0.015,0.030
1158,0.045,0.020
1159,0.070,0.030
1160,0.105,0.005
1161,0.130,0.015
1162,0.185,0.000
1163,0.210,0.000
1164,0.265,0.000
1165,0.300,0.000
1166,0.345,-0.005
1167,0.365,0.000
1168,0.380,-0.010
1169,0.375,-0.020
1170,0.365,-0.025
1171,0.335,-0.020
1172,0.295,-0.020
1173,0.245,-0.015
1174,0.190,-0.005
1175,0.130,0.000
1176,0.065,0.000
1177,0.020,0.000
1178,-0.005,0.000
1179,-0.035,0.005
1180,-0.075,0.005
1181,-0.095,0.005
1182,-0.105,0.005
1183,-0.120,0.010
1184,-0.125,0.005
1185,-0.135,0.015
1186,-0.125,0.000
1187,-0.125,0.015
1188,-0.115,0.000
1189,-0.110,0.015
1190,-0.095,0.000
1191,-0.095,0.015
1192,-0.090,0.005
1193,-0.090,0.010
1194,-0.075,0.005
1195,-0.090,0.010
1196,-0.095,0.005
1197,-0.100,0.010
1198,-0.095,0.005
1199,-0.095,0.010
1200,-0.095,0.010
1201,-0.095,0.010
1202,-0.090,0.015
1203,-0.075,0.020
1204,-0.050,0.035
1205,-0.025,0.050
1206,-0.010,0.060
1207,0.000,0.040
1208,0.000,0.015
1209,0.000,0.000
1210,0.000,0.000
1211,-0.005,0.000
1212,-0.030,0.000
1213,-0.060,0.000
1214,-0.095,0.010
1215,-0.110,0.005
1216,-0.110,0.005
1217,-0.110,0.005
1218,-0.105,0.000
1219,-0.115,0.045
1220,-0.125,0.130
1221,-0.065,0.155
1222,0.260,-0.005
1223,0.920,-0.430
1224,1.125,-0.785
1225,0.160,-0.565
1226,-0.480,-0.320
1227,-0.435,-0.170
1228,-0.225,-0.020
1229,-0.135,0.035
1230,-0.110,0.065
1231,-0.095,0.070
1232,-0.095,0.075
1233,-0.090,0.070
1234,-0.080,0.075
1235,-0.065,0.070
1236,-0.060,0.075
1237,-0.045,0.070
1238,-0.045,0.075
1239,-0.025,0.045
1240,-0.035,0.060
1241,0.000,0.040
1242,0.000,0.045
1243,0.000,0.035
1244,0.000,0.040
1245,0.030,0.025
1246,0.045,0.030
1247,0.080,0.015
1248,0.100,0.015
1249,0.140,0.005
1250,0.165,0.005
1251,0.210,0.000
1252,0.245,0.000
1253,0.295,0.000
1254,0.340,0.000
1255,0.360,-0.005
1256,0.370,-0.015
1257,0.370,-0.020
1258,0.365,-0.025
1259,0.340,-0.025
1260,0.310,-0.025
1261,0.270,-0.020
1262,0.210,-0.010
1263,0.150,-0.005
1264,0.090,0.000
1265,0.040,0.000
1266,0.000,0.000
1267,-0.015,0.000
1268,-0.060,0.010
1269,-0.075,0.000
1270,-0.100,0.010
1271,-0.100,0.005
1272,-0.115,0.010
1273,-0.115,0.005
1274,-0.120,0.010
1275,-0.115,0.005
1276,-0.115,0.005
1277,-0.100,0.005
1278,-0.100,0.010
1279,-0.095,0.010
1280,-0.095,0.010
1281,-0.085,0.010
1282,-0.085,0.010
1283,-0.090,0.010
1284,-0.090,0.005
1285,-0.090,0.010
1286,-0.085,0.005
1287,-0.090,0.010
1288,-0.090,0.000
1289,-0.090,0.010
1290,-0.075,0.000
1291,-0.075,0.025
1292,-0.045,0.030
1293,-0.020,0.060
1294,0.000,0.050
1295,0.000,0.035
1296,0.000,0.015
1297,0.000,0.000
1298,0.000,0.000
1299,-0.005,0.000
1300,-0.025,0.000
1301,-0.065,0.005
1302,-0.090,0.005
1303,-0.095,0.005
1304,-0.105,0.000
1305,-0.105,0.000
1306,-0.105,0.005
1307,-0.105,0.040
1308,-0.125,0.130
1309,-0.060,0.155
1310,0.275,-0.005
1311,0.940,-0.445
1312,1.130,-0.805
1313,0.115,-0.555
1314,-0.470,-0.340
1315,-0.405,-0.175
1316,-0.210,-0.025
1317,-0.130,0.040
1318,-0.100,0.055
1319,-0.100,0.080
1320,-0.090,0.070
1321,-0.090,0.080
1322,-0.070,0.075
1323,-0.085,0.080
1324,-0.050,0.075
1325,-0.055,0.075
1326,-0.040,0.070
1327,-0.040,0.070
1328,-0.015,0.050
1329,-0.010,0.050
1330,0.000,0.050
1331,0.000,0.045
1332,0.005,0.045
1333,0.025,0.030
1334,0.050,0.030
1335,0.085,0.020
1336,0.110,0.020
1337,0.135,0.010
1338,0.165,0.010
1339,0.210,0.000
1340,0.250,0.000
1341,0.295,0.000
1342,0.330,0.000
1343,0.355,-0.005
1344,0.370,-0.010
1345,0.370,-0.015
1346,0.355,-0.025
1347,0.335,-0.025
1348,0.305,-0.025
1349,0.245,-0.015
1350,0.195,-0.005
1351,0.125,0.000
1352,0.065,0.000
1353,0.010,0.000
1354,-0.010,0.000
1355,-0.055,0.005
1356,-0.080,0.005
1357,-0.115,0.005
1358,-0.120,0.005
1359,-0.140,0.010
1360,-0.130,0.010
1361,-0.140,0.005
1362,-0.140,0.010
1363,-0.140,0.010
1364,-0.135,0.020
1365,-0.120,0.010
1366,-0.115,0.015
1367,-0.095,0.005
1368,-0.100,0.020
1369,-0.095,0.005
1370,-0.095,0.020
1371,-0.090,0.010
1372,-0.095,0.015
1373,-0.095,0.005
1374,-0.110,0.015
1375,-0.095,0.005
1376,-0.100,0.015
1377,-0.095,0.010
1378,-0.100,0.015
1379,-0.090,0.020
1380,-0.070,0.035
1381,-0.035,0.050
1382,-0.010,0.065
1383,0.000,0.060
1384,0.000,0.030
1385,0.000,0.010
1386,0.000,0.000
1387,-0.005,0.000
1388,-0.020,0.005
1389,-0.060,0.000
1390,-0.095,0.005
1391,-0.110,0.010
1392,-0.120,0.010
1393,-0.120,0.005
1394,-0.125,0.010
1395,-0.110,0.025
1396,-0.130,0.105
1397,-0.115,0.170
1398,0.075,0.095
1399,0.670,-0.245
1400,1.255,-0.750
1401,0.590,-0.695
1402,-0.440,-0.345
1403,-0.505,-0.205
1404,-0.300,-0.035
1405,-0.150,0.025
1406,-0.140,0.070
1407,-0.105,0.075
1408,-0.115,0.080
1409,-0.100,0.080
1410,-0.095,0.080
1411,-0.090,0.075
1412,-0.085,0.070
1413,-0.065,0.070
1414,-0.050,0.065
1415,-0.055,0.065
1416,-0.045,0.055
1417,-0.025,0.060
1418,-0.005,0.045
1419,0.000,0.050
1420,0.000,0.040
1421,0.005,0.040
1422,0.035,0.030
1423,0.055,0.030
1424,0.090,0.020
1425,0.125,0.015
1426,0.165,0.010
1427,0.200,0.005
1428,0.245,0.000
1429,0.290,0.000
1430,0.325,0.000
1431,0.360,0.000
1432,0.375,0.000
1433,0.380,-0.005
1434,0.370,-0.005
1435,0.355,-0.005
1436,0.325,-0.010
1437,0.285,-0.010
1438,0.215,-0.005
1439,0.160,0.000
1440,0.095,0.000
1441,0.035,0.005
1442,0.000,0.005
1443,-0.045,0.010
1444,-0.075,0.005
1445,-0.105,0.015
1446,-0.120,0.005
1447,-0.145,0.025
1448,-0.145,0.015
1449,-0.140,0.025
1450,-0.140,0.020
1451,-0.140,0.025
1452,-0.120,0.010
1453,-0.120,0.020
1454,-0.100,0.015
1455,-0.110,0.015
1456,-0.095,0.010
1457,-0.095,0.010
1458,-0.095,0.010
1459,-0.095,0.020
1460,-0.095,0.020
1461,-0.095,0.020
1462,-0.100,0.020
1463,-0.100,0.015
1464,-0.105,0.025
1465,-0.105,0.020
1466,-0.105,0.025
1467,-0.095,0.025
1468,-0.080,0.040
1469,-0.040,0.055
1470,-0.015,0.065
1471,-0.005,0.060
1472,-0.005,0.035
1473,-0.005,0.010
1474,0.000,0.005
1475,0.000,0.005
1476,-0.030,0.005
1477,-0.070,0.010
1478,-0.110,0.010
1479,-0.135,0.015
1480,-0.130,0.010
1481,-0.135,0.015
1482,-0.125,0.005
1483,-0.125,0.030
1484,-0.130,0.095
1485,-0.135,0.175
1486,0.065,0.105
1487,0.645,-0.210
1488,1.345,-0.775
1489,0.660,-0.720
1490,-0.450,-0.345
1491,-0.535,-0.205
1492,-0.310,-0.030
1493,-0.150,0.020
1494,-0.140,0.070
1495,-0.115,0.070
1496,-0.115,0.080
1497,-0.095,0.070
1498,-0.095,0.080
1499,-0.085,0.070
1500,-0.085,0.080
1501,-0.065,0.065
1502,-0.060,0.080
1503,-0.045,0.065
1504,-0.045,0.070
1505,-0.025,0.060
1506,-0.020,0.065
1507,-0.005,0.055
1508,0.000,0.050
1509,0.015,0.040
1510,0.040,0.035
1511,0.065,0.030
1512,0.090,0.030
1513,0.120,0.025
1514,0.155,0.015
1515,0.195,0.015
1516,0.245,0.005
1517,0.295,0.000
1518,0.335,0.000
1519,0.360,0.000
1520,0.375,0.000
1521,0.380,0.000
1522,0.370,0.000
1523,0.355,-0.010
1524,0.320,0.000
1525,0.280,-0.010
1526,0.210,0.000
1527,0.160,0.000
1528,0.080,0.000
1529,0.040,0.000
1530,0.000,0.010
1531,-0.035,0.010
1532,-0.075,0.025
1533,-0.095,0.015
1534,-0.140,0.025
1535,-0.140,0.020
1536,-0.145,0.020
1537,-0.145,0.020
1538,-0.145,0.015
1539,-0.130,0.025
1540,-0.130,0.025
1541,-0.120,0.025
1542,-0.115,0.020
1543,-0.105,0.025
1544,-0.095,0.015
1545,-0.095,0.025
1546,-0.095,0.015
1547,-0.100,0.025
1548,-0.095,0.015
1549,-0.100,0.020
1550,-0.100,0.020
1551,-0.110,0.025
1552,-0.100,0.025
1553,-0.110,0.025
1554,-0.105,0.025
1555,-0.095,0.030
1556,-0.070,0.040
1557,-0.040,0.060
1558,-0.025,0.075
1559,-0.005,0.060
1560,0.000,0.035
1561,0.000,0.010
1562,0.000,0.005
1563,-0.010,0.005
1564,-0.040,0.010
1565,-0.060,0.010
1566,-0.100,0.015
1567,-0.125,0.015
1568,-0.140,0.015
1569,-0.135,0.010
1570,-0.125,0.005
1571,-0.130,0.030
1572,-0.135,0.105
1573,-0.140,0.180
1574,0.065,0.090
1575,0.670,-0.250
1576,1.425,-0.825
1577,0.515,-0.660
1578,-0.510,-0.345
1579,-0.530,-0.195
1580,-0.280,-0.040
1581,-0.155,0.040
1582,-0.125,0.050
1583,-0.125,0.075
1584,-0.100,0.070
1585,-0.100,0.075
1586,-0.095,0.075
1587,-0.095,0.075
1588,-0.075,0.075
1589,-0.080,0.075
1590,-0.065,0.070
1591,-0.045,0.065
1592,-0.040,0.065
1593,-0.030,0.055
1594,-0.015,0.050
1595,0.000,0.045
1596,0.000,0.045
1597,0.020,0.035
1598,0.035,0.030
1599,0.065,0.025
1600,0.095,0.025
1601,0.120,0.015
1602,0.160,0.005
1603,0.200,0.010
1604,0.250,0.000
1605,0.295,0.000
1606,0.335,0.000
1607,0.360,0.000
1608,0.385,-0.005
1609,0.385,0.000
1610,0.385,-0.010
1611,0.355,-0.015
1612,0.325,-0.025
1613,0.275,-0.010
1614,0.225,-0.005
1615,0.165,0.000
1616,0.100,0.000
1617,0.035,0.000
1618,0.000,0.000
1619,-0.025,0.005
1620,-0.070,0.005
1621,-0.095,0.005
1622,-0.115,0.020
1623,-0.125,0.005
1624,-0.140,0.015
1625,-0.140,0.005
1626,-0.140,0.020
1627,-0.130,0.010
1628,-0.130,0.015
1629,-0.105,0.005
1630,-0.110,0.015
1631,-0.095,0.005
1632,-0.095,0.010
1633,-0.090,0.000
1634,-0.090,0.010
1635,-0.085,0.005
1636,-0.090,0.010
1637,-0.090,0.010
1638,-0.090,0.010
1639,-0.095,0.010
1640,-0.095,0.010
1641,-0.095,0.010
1642,-0.095,0.010
1643,-0.090,0.010
1644,-0.070,0.015
1645,-0.035,0.035
1646,-0.010,0.050
1647,0.000,0.055
1648,0.000,0.040
1649,0.000,0.005
1650,0.000,0.005
1651,0.000,0.000
1652,-0.010,0.000
1653,-0.030,0.000
1654,-0.085,0.000
1655,-0.100,0.000
1656,-0.125,0.005
1657,-0.120,0.000
1658,-0.115,0.005
1659,-0.095,0.000
1660,-0.125,0.045
1661,-0.135,0.145
1662,-0.080,0.160
1663,0.305,0.005
1664,1.130,-0.575
1665,1.205,-0.875
1666,-0.110,-0.475
1667,-0.530,-0.310
1668,-0.390,-0.135
1669,-0.200,-0.010
1670,-0.125,0.025
1671,-0.105,0.055
1672,-0.095,0.050
1673,-0.090,0.065
1674,-0.085,0.055
1675,-0.085,0.065
1676,-0.065,0.055
1677,-0.070,0.060
1678,-0.050,0.050
1679,-0.045,0.055
1680,-0.030,0.045
1681,-0.030,0.055
1682,-0.010,0.050
1683,0.000,0.040
1684,0.005,0.030
1685,0.005,0.035
1686,0.030,0.030
1687,0.060,0.025
1688,0.080,0.020
1689,0.115,0.010
1690,0.145,0.005
1691,0.185,0.000
1692,0.215,0.000
1693,0.265,0.000
1694,0.300,0.000
1695,0.335,0.000
1696,0.365,-0.010
1697,0.375,-0.015
1698,0.380,-0.025
1699,0.360,-0.020
1700,0.345,-0.030
1701,0.305,-0.020
1702,0.265,-0.030
1703,0.200,-0.010
1704,0.150,-0.005
1705,0.070,0.000
1706,0.030,0.000
1707,-0.005,0.000
1708,-0.030,0.000
1709,-0.080,0.005
1710,-0.090,0.000
1711,-0.120,0.010
1712,-0.115,0.000
1713,-0.140,0.010
1714,-0.125,0.005
1715,-0.140,0.005
1716,-0.125,0.010
1717,-0.125,0.010
1718,-0.115,0.005
1719,-0.105,0.005
1720,-0.100,0.010
1721,-0.100,0.005
1722,-0.090,0.005
1723,-0.090,0.005
1724,-0.090,0.010
1725,-0.095,0.005
1726,-0.095,0.005
1727,-0.095,0.005
1728,-0.100,0.005
1729,-0.100,0.005
1730,-0.095,0.005
1731,-0.100,0.010
1732,-0.095,0.005
1733,-0.080,0.015
1734,-0.045,0.025
1735,-0.025,0.050
1736,0.000,0.050
1737,0.000,0.040
1738,0.000,0.005
1739,0.000,0.000
1740,0.000,0.000
1741,0.000,0.000
1742,-0.025,0.000
1743,-0.075,0.000
1744,-0.095,0.000
1745,-0.115,0.000
1746,-0.105,0.000
1747,-0.110,0.000
1748,-0.100,0.000
1749,-0.100,0.020
1750,-0.140,0.140
1751,-0.105,0.145
1752,0.180,0.075
1753,0.945,-0.445
1754,1.235,-0.840
1755,0.145,-0.570
1756,-0.460,-0.365
1757,-0.405,-0.200
1758,-0.235,-0.035
1759,-0.140,0.015
1760,-0.120,0.045
1761,-0.100,0.045
1762,-0.095,0.055
1763,-0.080,0.050
1764,-0.085,0.055
1765,-0.070,0.055
1766,-0.065,0.050
1767,-0.055,0.045
1768,-0.045,0.045
1769,-0.035,0.040
1770,-0.025,0.040
1771,-0.015,0.040
1772,-0.005,0.035
1773,0.000,0.030
1774,0.010,0.030
1775,0.025,0.025
1776,0.045,0.020
1777,0.070,0.015
1778,0.100,0.015
1779,0.130,0.005
1780,0.160,0.005
1781,0.205,0.000
1782,0.240,0.000
1783,0.290,0.000
1784,0.320,0.000
1785,0.365,-0.015
1786,0.365,-0.015
1787,0.365,-0.030
1788,0.350,-0.015
1789,0.345,-0.030
1790,0.300,-0.030
1791,0.275,-0.030
1792,0.210,-0.015
1793,0.160,-0.010
1794,0.080,0.000
1795,0.040,0.000
1796,0.000,0.000
1797,-0.035,0.000
1798,-0.060,0.000
1799,-0.090,0.005
1800,-0.110,0.005
1801,-0.115,0.005
1802,-0.125,0.000
1803,-0.140,0.005
1804,-0.140,0.000
1805,-0.140,0.005
1806,-0.125,0.000
1807,-0.125,0.005
1808,-0.110,0.005
1809,-0.105,0.000
1810,-0.100,0.000
1811,-0.105,0.005
1812,-0.100,0.000
1813,-0.105,0.005
1814,-0.105,0.005
1815,-0.095,0.000
1816,-0.095,0.005
1817,-0.095,0.000
1818,-0.095,0.005
1819,-0.095,0.005
1820,-0.095,0.005
1821,-0.090,0.005
1822,-0.080,0.015
1823,-0.050,0.025
1824,-0.030,0.045
1825,-0.005,0.055
1826,0.000,0.020
1827,0.000,0.000
1828,0.000,0.000
1829,0.000,0.000
1830,-0.020,0.000
1831,-0.045,0.000
1832,-0.075,0.000
1833,-0.120,0.000
1834,-0.120,0.000
1835,-0.125,0.000
1836,-0.105,0.000
1837,-0.125,0.000
1838,-0.120,0.045
1839,-0.150,0.165
1840,-0.030,0.125
1841,0.410,-0.070
1842,1.205,-0.655
1843,0.800,-0.745
1844,-0.180,-0.470
1845,-0.510,-0.295
1846,-0.365,-0.125
1847,-0.205,-0.010
1848,-0.140,0.030
1849,-0.130,0.045
1850,-0.110,0.050
1851,-0.100,0.050
1852,-0.100,0.050
1853,-0.095,0.050
1854,-0.090,0.050
1855,-0.075,0.045
1856,-0.065,0.050
1857,-0.055,0.045
1858,-0.045,0.040
1859,-0.035,0.040
1860,-0.025,0.035
1861,-0.020,0.035
1862,0.000,0.030
1863,0.005,0.030
1864,0.015,0.015
1865,0.040,0.015
1866,0.070,0.005
1867,0.095,0.010
1868,0.130,0.000
1869,0.160,0.000
1870,0.210,0.000
1871,0.255,0.000
1872,0.290,-0.005
1873,0.325,-0.010
1874,0.355,-0.010
1875,0.360,-0.020
1876,0.355,-0.020
1877,0.335,-0.035
1878,0.325,-0.035
1879,0.285,-0.035
1880,0.230,-0.015
1881,0.175,-0.015
1882,0.105,0.000
1883,0.055,0.000
1884,0.005,0.000
1885,-0.020,0.000
1886,-0.075,0.000
1887,-0.090,0.000
1888,-0.125,0.005
1889,-0.130,0.000
1890,-0.140,0.010
1891,-0.145,0.000
1892,-0.145,0.005
1893,-0.145,0.005
1894,-0.145,0.005
1895,-0.135,0.005
1896,-0.135,0.005
1897,-0.130,0.000
1898,-0.120,0.000
1899,-0.110,0.000
1900,-0.100,0.000
1901,-0.095,0.000
1902,-0.100,0.000
1903,-0.100,0.005
1904,-0.100,0.005
1905,-0.100,0.000
1906,-0.100,0.005
1907,-0.100,0.000
1908,-0.100,0.010
1909,-0.095,0.005
1910,-0.080,0.020
1911,-0.040,0.030
1912,-0.025,0.060
1913,0.000,0.035
1914,-0.015,0.015
1915,0.000,0.000
1916,0.000,0.000
1917,0.000,0.000
1918,-0.050,0.000
1919,-0.075,0.000
1920,-0.125,0.000
1921,-0.125,0.000
1922,-0.140,0.000
1923,-0.130,0.000
1924,-0.135,0.000
1925,-0.125,0.015
1926,-0.150,0.110
1927,-0.125,0.155
1928,0.140,0.065
1929,0.850,-0.390
1930,1.300,-0.830
1931,0.305,-0.610
1932,-0.455,-0.360
1933,-0.480,-0.170
1934,-0.270,-0.035
1935,-0.170,0.030
1936,-0.130,0.050
1937,-0.125,0.070
1938,-0.105,0.070
1939,-0.100,0.070
1940,-0.095,0.070
1941,-0.095,0.065
1942,-0.080,0.055
1943,-0.075,0.050
1944,-0.065,0.055
1945,-0.045,0.045
1946,-0.035,0.045
1947,-0.025,0.035
1948,-0.020,0.035
1949,0.000,0.030
1950,0.000,0.030
1951,0.010,0.025
1952,0.030,0.025
1953,0.065,0.025
1954,0.100,0.010
1955,0.120,0.005
1956,0.155,0.000
1957,0.190,0.000
1958,0.250,0.000
1959,0.275,0.000
1960,0.325,-0.005
1961,0.355,-0.005
1962,0.380,-0.010
1963,0.370,-0.005
1964,0.365,-0.035
1965,0.325,-0.015
1966,0.325,-0.030
1967,0.260,-0.010
1968,0.210,-0.010
1969,0.140,0.000
1970,0.085,0.000
1971,0.015,0.000
1972,0.000,0.000
1973,-0.050,0.000
1974,-0.085,0.000
1975,-0.115,0.005
1976,-0.135,0.005
1977,-0.140,0.005
1978,-0.145,0.005
1979,-0.145,0.005
1980,-0.145,0.005
1981,-0.145,0.005
1982,-0.140,0.005
1983,-0.130,0.000
1984,-0.130,0.000
1985,-0.115,0.000
1986,-0.100,0.005
1987,-0.100,0.005
1988,-0.095,0.005
1989,-0.100,0.005
1990,-0.100,0.005
1991,-0.110,0.005
1992,-0.105,0.000
1993,-0.110,0.000
1994,-0.095,0.005
1995,-0.090,0.015
1996,-0.060,0.020
1997,-0.035,0.045
1998,-0.010,0.050
1999,-0.010,0.040
2000,0.000,0.010
2001,0.000,0.000
2002,0.000,0.000
2003,-0.025,0.000
2004,-0.045,0.000
2005,-0.095,0.000
2006,-0.115,0.000
2007,-0.135,0.000
2008,-0.140,0.000
2009,-0.145,0.000
2010,-0.140,0.000
2011,-0.130,0.020
2012,-0.160,0.130
2013,-0.110,0.145
2014,0.205,0.030
2015,0.980,-0.490
2016,1.175,-0.815
2017,0.135,-0.565
2018,-0.510,-0.315
2019,-0.445,-0.145
2020,-0.250,-0.020
2021,-0.160,0.030
2022,-0.140,0.060
2023,-0.115,0.070
2024,-0.110,0.070
2025,-0.105,0.070
2026,-0.095,0.070
2027,-0.085,0.075
2028,-0.075,0.075
2029,-0.070,0.075
2030,-0.060,0.070
2031,-0.050,0.065
2032,-0.035,0.055
2033,-0.025,0.040
2034,-0.010,0.040
2035,0.000,0.030
2036,0.000,0.030
2037,0.010,0.025
2038,0.040,0.020
2039,0.075,0.005
2040,0.095,0.015
2041,0.140,0.000
2042,0.170,0.010
2043,0.230,0.000
2044,0.255,0.000
2045,0.315,0.000
2046,0.330,0.000
2047,0.370,-0.010
2048,0.370,-0.015
2049,0.380,-0.025
2050,0.355,-0.020
2051,0.350,-0.025
2052,0.305,-0.020
2053,0.265,-0.020
2054,0.195,-0.005
2055,0.125,0.000
2056,0.065,0.000
2057,0.010,0.000
2058,-0.015,0.000
2059,-0.055,0.000
2060,-0.085,0.005
2061,-0.110,0.005
2062,-0.125,0.000
2063,-0.135,0.005
2064,-0.145,0.000
2065,-0.145,0.005
2066,-0.145,0.005
2067,-0.145,0.010
2068,-0.130,0.005
2069,-0.135,0.010
2070,-0.120,0.010
2071,-0.100,0.005
2072,-0.100,0.010
2073,-0.095,0.005
2074,-0.095,0.010
2075,-0.095,0.005
2076,-0.095,0.010
2077,-0.100,0.005
2078,-0.105,0.005
2079,-0.095,0.005
2080,-0.085,0.010
2081,-0.060,0.025
2082,-0.035,0.045
2083,-0.010,0.060
2084,0.000,0.035
2085,0.000,0.020
2086,0.000,0.000
2087,0.000,0.000
2088,-0.010,0.000
2089,-0.045,0.000
2090,-0.075,0.000
2091,-0.115,0.000
2092,-0.120,0.000
2093,-0.140,0.005
2094,-0.125,0.000
2095,-0.135,0.005
2096,-0.120,0.010
2097,-0.145,0.125
2098,-0.110,0.155
2099,0.155,0.065
2100,0.890,-0.415
2101,1.230,-0.805
2102,0.225,-0.575
2103,-0.475,-0.325
2104,-0.465,-0.155
2105,-0.270,-0.025
2106,-0.160,0.025
2107,-0.130,0.060
2108,-0.115,0.075
2109,-0.105,0.075
2110,-0.095,0.075
2111,-0.095,0.075
2112,-0.090,0.075
2113,-0.075,0.075
2114,-0.065,0.070
2115,-0.055,0.065
2116,-0.045,0.060
2117,-0.035,0.060
2118,-0.020,0.050
2119,-0.015,0.055
2120,0.000,0.040
2121,0.005,0.040
2122,0.030,0.020
2123,0.040,0.025
2124,0.075,0.005
2125,0.095,0.015
2126,0.140,0.005
2127,0.160,0.000
2128,0.215,0.000
2129,0.255,0.000
2130,0.305,0.000
2131,0.325,-0.005
2132,0.365,-0.010
2133,0.375,-0.015
2134,0.380,-0.015
2135,0.360,-0.030
2136,0.340,-0.015
2137,0.310,-0.010
2138,0.260,0.000
2139,0.210,0.000
2140,0.140,0.000
2141,0.085,0.000
2142,0.020,0.000
2143,-0.005,0.000
2144,-0.040,0.015
2145,-0.060,0.005
2146,-0.100,0.005
2147,-0.100,0.000
2148,-0.125,0.005
2149,-0.125,0.000
2150,-0.135,0.005
2151,-0.130,0.005
2152,-0.130,0.005
2153,-0.120,0.005
2154,-0.110,0.005
2155,-0.105,0.005
2156,-0.095,0.005
2157,-0.095,0.005
2158,-0.095,0.005
2159,-0.095,0.005
2160,-0.095,0.005
2161,-0.090,0.005
2162,-0.090,0.005
2163,-0.090,0.005
2164,-0.090,0.005
2165,-0.085,0.005
2166,-0.065,0.020
2167,-0.030,0.030
2168,-0.010,0.060
2169,0.000,0.040
2170,0.000,0.030
2171,0.000,0.000
2172,0.000,0.000
2173,0.000,0.000
2174,-0.020,0.000
2175,-0.040,0.000
2176,-0.100,0.000
2177,-0.095,0.000
2178,-0.125,0.000
2179,-0.105,0.000
2180,-0.110,0.000
2181,-0.100,0.000
2182,-0.120,0.080
2183,-0.135,0.160
2184,0.000,0.120
2185,0.520,-0.160
2186,1.235,-0.700
2187,0.655,-0.695
2188,-0.245,-0.440
2189,-0.495,-0.255
2190,-0.330,-0.095
2191,-0.180,0.005
2192,-0.125,0.040
2193,-0.115,0.065
2194,-0.100,0.070
2195,-0.095,0.075
2196,-0.080,0.070
2197,-0.080,0.075
2198,-0.075,0.070
2199,-0.060,0.065
2200,-0.055,0.070
2201,-0.045,0.060
2202,-0.035,0.065
2203,-0.020,0.055
2204,-0.010,0.055
2205,0.000,0.045
2206,0.005,0.045
2207,0.025,0.040
2208,0.030,0.035
2209,0.060,0.030
2210,0.085,0.025
2211,0.120,0.020
2212,0.150,0.005
2213,0.185,0.000
2214,0.235,0.000
2215,0.270,0.000
2216,0.325,0.000
2217,0.330,0.000
2218,0.370,0.000
2219,0.370,0.000
2220,0.370,-0.015
2221,0.340,-0.010
2222,0.335,-0.015
2223,0.280,-0.005
2224,0.235,-0.010
2225,0.170,0.000
2226,0.115,0.000
2227,0.050,0.005
2228,0.005,0.000
2229,-0.015,0.010
2230,-0.040,0.005
2231,-0.075,0.010
2232,-0.090,0.015
2233,-0.110,0.015
2234,-0.120,0.010
2235,-0.125,0.010
2236,-0.125,0.010
2237,-0.125,0.005
2238,-0.120,0.005
2239,-0.110,0.010
2240,-0.105,0.010
2241,-0.100,0.010
2242,-0.095,0.005
2243,-0.095,0.010
2244,-0.095,0.005
2245,-0.090,0.005
2246,-0.090,0.005
2247,-0.095,0.010
2248,-0.095,0.000
2249,-0.090,0.010
2250,-0.090,0.005
2251,-0.075,0.025
2252,-0.040,0.030
2253,-0.030,0.065
2254,0.000,0.065
2255,0.000,0.045
2256,0.000,0.000
2257,0.000,0.000
2258,0.000,0.000
2259,-0.015,0.000
2260,-0.040,0.000
2261,-0.085,0.000
2262,-0.100,0.000
2263,-0.115,0.000
2264,-0.105,0.000
2265,-0.105,0.000
2266,-0.105,0.000
2267,-0.110,0.035
2268,-0.140,0.160
2269,-0.050,0.145
2270,0.335,-0.020
2271,1.095,-0.580
2272,0.915,-0.765
2273,-0.030,-0.520
2274,-0.470,-0.320
2275,-0.370,-0.160
2276,-0.210,-0.020
2277,-0.140,0.030
2278,-0.120,0.060
2279,-0.105,0.070
2280,-0.095,0.075
2281,-0.080,0.075
2282,-0.085,0.075
2283,-0.075,0.075
2284,-0.060,0.070
2285,-0.055,0.070
2286,-0.045,0.065
2287,-0.040,0.065
2288,-0.025,0.055
2289,-0.010,0.050
2290,0.000,0.050
2291,0.000,0.045
2292,0.010,0.050
2293,0.030,0.040
2294,0.055,0.040
2295,0.080,0.025
2296,0.105,0.030
2297,0.150,0.015
2298,0.170,0.015
2299,0.210,0.000
2300,0.240,0.000
2301,0.300,0.000
2302,0.310,0.000
2303,0.355,-0.010
2304,0.350,0.000
2305,0.365,-0.005
2306,0.330,0.000
2307,0.325,-0.015
2308,0.280,-0.005
2309,0.240,-0.005
2310,0.170,0.000
2311,0.110,0.000
2312,0.045,0.000
2313,0.005,0.005
2314,-0.015,0.010
2315,-0.050,0.010
2316,-0.085,0.010
2317,-0.105,0.015
2318,-0.120,0.010
2319,-0.130,0.015
2320,-0.140,0.010
2321,-0.140,0.010
2322,-0.135,0.005
2323,-0.135,0.010
2324,-0.130,0.005
2325,-0.125,0.010
2326,-0.115,0.010
2327,-0.110,0.005
2328,-0.105,0.010
2329,-0.100,0.005
2330,-0.105,0.010
2331,-0.100,0.005
2332,-0.105,0.010
2333,-0.100,0.005
2334,-0.110,0.010
2335,-0.100,0.010
2336,-0.095,0.020
2337,-0.065,0.025
2338,-0.035,0.050
2339,-0.010,0.065
2340,-0.005,0.055
2341,0.000,0.025
2342,0.000,0.000
2343,0.000,0.000
2344,-0.015,0.000
2345,-0.045,0.000
2346,-0.085,0.000
2347,-0.115,0.010
2348,-0.120,0.000
2349,-0.140,0.010
2350,-0.120,0.000
2351,-0.125,0.010
2352,-0.120,0.010
2353,-0.145,0.120
2354,-0.125,0.160
2355,0.085,0.105
2356,0.755,-0.330
2357,1.250,-0.780
2358,0.370,-0.610
2359,-0.420,-0.355
2360,-0.495,-0.190
2361,-0.305,-0.045
2362,-0.180,0.025
2363,-0.145,0.060
2364,-0.130,0.075
2365,-0.105,0.075
2366,-0.095,0.080
2367,-0.095,0.075
2368,-0.090,0.075
2369,-0.080,0.075
2370,-0.070,0.075
2371,-0.055,0.070
2372,-0.045,0.070
2373,-0.040,0.070
2374,-0.025,0.065
2375,-0.015,0.055
2376,0.000,0.040
2377,0.000,0.040
2378,0.015,0.030
2379,0.035,0.030
2380,0.065,0.020
2381,0.090,0.025
2382,0.140,0.005
2383,0.155,0.010
2384,0.205,0.000
2385,0.220,0.000
2386,0.280,0.000
2387,0.315,0.000
2388,0.355,0.000
2389,0.360,0.000
2390,0.365,-0.005
2391,0.360,-0.010
2392,0.335,-0.010
2393,0.305,-0.015
2394,0.260,-0.010
2395,0.190,-0.005
2396,0.135,0.000
2397,0.070,0.000
2398,0.010,0.000
2399,-0.010,0.000
2400,-0.050,0.010
2401,-0.075,0.000
2402,-0.115,0.010
2403,-0.130,0.005
2404,-0.135,0.010
2405,-0.145,0.010
2406,-0.145,0.010
2407,-0.145,0.010
2408,-0.145,0.010
2409,-0.140,0.010
2410,-0.140,0.005
2411,-0.130,0.005
2412,-0.115,0.005
2413,-0.110,0.010
2414,-0.105,0.005
2415,-0.105,0.005
2416,-0.100,0.005
2417,-0.100,0.010
2418,-0.100,0.010
2419,-0.105,0.010
2420,-0.100,0.010
2421,-0.100,0.010
2422,-0.090,0.025
2423,-0.050,0.040
2424,-0.020,0.065
2425,-0.010,0.060
2426,-0.005,0.035
2427,0.000,0.000
2428,0.000,0.000
2429,0.000,0.000
2430,-0.045,0.000
2431,-0.060,0.000
2432,-0.115,0.015
2433,-0.115,0.000
2434,-0.140,0.015
2435,-0.125,0.005
2436,-0.140,0.005
2437,-0.125,0.000
2438,-0.140,0.075
2439,-0.150,0.160
2440,-0.025,0.135
2441,0.490,-0.145
2442,1.270,-0.710
2443,0.765,-0.735
2444,-0.240,-0.440
2445,-0.530,-0.235
2446,-0.365,-0.080
2447,-0.205,0.010
2448,-0.150,0.045
2449,-0.130,0.070
2450,-0.110,0.070
2451,-0.100,0.075
2452,-0.095,0.075
2453,-0.090,0.075
2454,-0.080,0.075
2455,-0.065,0.075
2456,-0.055,0.075
2457,-0.045,0.065
2458,-0.040,0.060
2459,-0.035,0.045
2460,-0.025,0.045
2461,0.000,0.035
2462,0.000,0.040
2463,0.005,0.030
2464,0.025,0.025
2465,0.055,0.025
2466,0.080,0.025
2467,0.115,0.010
2468,0.155,0.010
2469,0.190,0.005
2470,0.235,0.000
2471,0.270,0.000
2472,0.325,0.000
2473,0.340,0.000
2474,0.370,-0.005
2475,0.370,-0.005
2476,0.365,-0.010
2477,0.350,-0.010
2478,0.330,-0.015
2479,0.265,-0.015
2480,0.230,-0.015
2481,0.160,0.000
2482,0.105,0.000
2483,0.035,0.000
2484,0.000,0.000
2485,-0.035,0.010
2486,-0.065,0.000
2487,-0.105,0.010
2488,-0.120,0.005
2489,-0.135,0.010
2490,-0.145,0.010
2491,-0.145,0.010
2492,-0.140,0.010
2493,-0.140,0.010
2494,-0.135,0.010
2495,-0.130,0.010
2496,-0.125,0.005
2497,-0.115,0.005
2498,-0.110,0.010
2499,-0.105,0.005
2500,-0.105,0.005
2501,-0.100,0.005
2502,-0.105,0.005
2503,-0.110,0.005
2504,-0.105,0.005
2505,-0.115,0.010
2506,-0.105,0.005
2507,-0.105,0.015
2508,-0.070,0.020
2509,-0.050,0.050
2510,-0.015,0.050
2511,-0.020,0.055
2512,-0.010,0.010
2513,-0.010,0.000
2514,0.000,0.000
2515,-0.025,0.000
2516,-0.040,0.000
2517,-0.100,0.000
2518,-0.115,0.000
2519,-0.135,0.000
2520,-0.140,0.005
2521,-0.140,0.000
2522,-0.130,0.000
2523,-0.130,0.015
2524,-0.145,0.110
2525,-0.125,0.150
2526,0.125,0.080
2527,0.820,-0.380
2528,1.255,-0.805
2529,0.310,-0.610
2530,-0.465,-0.345
2531,-0.490,-0.180
2532,-0.295,-0.045
2533,-0.175,0.015
2534,-0.140,0.060
2535,-0.125,0.070
2536,-0.115,0.070
2537,-0.105,0.070
2538,-0.095,0.075
2539,-0.085,0.075
2540,-0.080,0.070
2541,-0.075,0.070
2542,-0.060,0.065
2543,-0.055,0.060
2544,-0.040,0.050
2545,-0.035,0.045
2546,-0.010,0.035
2547,0.000,0.030
2548,0.000,0.025
2549,0.005,0.025
2550,0.040,0.020
2551,0.065,0.005
2552,0.090,0.010
2553,0.125,0.000
2554,0.160,0.000
2555,0.205,0.000
2556,0.250,0.000
2557,0.300,0.000
2558,0.310,0.000
2559,0.360,-0.015
2560,0.370,0.000
2561,0.370,-0.015
2562,0.345,-0.015
2563,0.340,-0.025
2564,0.300,-0.020
2565,0.260,-0.015
2566,0.195,0.000
2567,0.135,0.000
2568,0.065,0.000
2569,0.015,0.000
2570,-0.015,0.000
2571,-0.040,0.000
2572,-0.080,0.005
2573,-0.110,0.005
2574,-0.130,0.005
2575,-0.140,0.010
2576,-0.145,0.005
2577,-0.145,0.005
2578,-0.145,0.005
2579,-0.145,0.010
2580,-0.145,0.005
2581,-0.140,0.005
2582,-0.130,0.005
2583,-0.120,0.005
2584,-0.110,0.005
2585,-0.105,0.005
2586,-0.105,0.010
2587,-0.105,0.005
2588,-0.110,0.010
2589,-0.105,0.005
2590,-0.120,0.010
2591,-0.115,0.005
2592,-0.120,0.010
2593,-0.100,0.005
2594,-0.090,0.015
2595,-0.055,0.020
2596,-0.030,0.045
2597,-0.005,0.050
2598,0.000,0.035
2599,0.000,0.000
2600,0.000,0.000
2601,0.000,0.000
2602,-0.015,0.000
2603,-0.040,0.000
2604,-0.090,0.000
2605,-0.115,0.000
2606,-0.125,0.000
2607,-0.140,0.000
2608,-0.120,0.000
2609,-0.125,0.000
2610,-0.130,0.035
2611,-0.150,0.145
2612,-0.050,0.130
2613,0.365,-0.060
2614,1.145,-0.615
2615,0.915,-0.755
2616,-0.065,-0.500
2617,-0.510,-0.285
2618,-0.390,-0.120
2619,-0.215,-0.010
2620,-0.140,0.025
2621,-0.120,0.050
2622,-0.105,0.065
2623,-0.095,0.065
2624,-0.090,0.065
2625,-0.085,0.070
2626,-0.080,0.060
2627,-0.070,0.055
2628,-0.060,0.060
2629,-0.050,0.060
2630,-0.040,0.045
2631,-0.030,0.045
2632,-0.015,0.035
2633,-0.005,0.040
2634,0.000,0.030
2635,0.005,0.035
2636,0.025,0.025
2637,0.040,0.035
2638,0.075,0.015
2639,0.095,0.015
2640,0.140,0.005
2641,0.160,0.005
2642,0.210,0.000
2643,0.250,0.000
2644,0.305,0.000
2645,0.325,0.000
2646,0.350,-0.005
2647,0.355,-0.010
2648,0.360,-0.025
2649,0.345,-0.030
2650,0.325,-0.030
2651,0.285,-0.030
2652,0.235,-0.015
2653,0.175,-0.005
2654,0.115,0.000
2655,0.060,0.000
2656,0.010,0.000
2657,-0.010,0.000
2658,-0.055,0.010
2659,-0.085,0.000
2660,-0.110,0.005
2661,-0.125,0.005
2662,-0.135,0.005
2663,-0.135,0.000
2664,-0.135,0.010
2665,-0.135,0.010
2666,-0.135,0.010
2667,-0.135,0.010
2668,-0.125,0.005
2669,-0.115,0.010
2670,-0.105,0.005
2671,-0.105,0.010
2672,-0.100,0.005
2673,-0.105,0.005
2674,-0.100,0.000
2675,-0.105,0.000
2676,-0.105,0.000
2677,-0.110,0.000
2678,-0.105,0.000
2679,-0.105,0.000
2680,-0.110,0.005
2681,-0.090,0.005
2682,-0.065,0.020
2683,-0.030,0.025
2684,-0.015,0.050
2685,0.000,0.030
2686,0.000,0.015
2687,0.000,0.000
2688,0.000,0.000
2689,0.000,0.000
2690,-0.040,0.000
2691,-0.065,0.000
2692,-0.110,0.000
2693,-0.115,0.000
2694,-0.140,0.000
2695,-0.120,0.000
2696,-0.125,0.000
2697,-0.115,0.005
2698,-0.140,0.110
2699,-0.115,0.150
2700,0.105,0.080
2701,0.750,-0.325
2702,1.165,-0.755
2703,0.400,-0.635
2704,-0.370,-0.400
2705,-0.465,-0.225
2706,-0.280,-0.070
2707,-0.160,0.015
2708,-0.125,0.040
2709,-0.115,0.055
2710,-0.105,0.060
2711,-0.095,0.065
2712,-0.090,0.065
2713,-0.085,0.060
2714,-0.080,0.070
2715,-0.065,0.065
2716,-0.055,0.060
2717,-0.045,0.050
2718,-0.035,0.060
2719,-0.020,0.045
2720,-0.015,0.050
2721,0.000,0.045
2722,0.000,0.040
2723,0.010,0.035
2724,0.025,0.030
2725,0.055,0.030
2726,0.075,0.025
2727,0.110,0.015
2728,0.150,0.010
2729,0.180,0.005
2730,0.225,0.000
2731,0.260,0.000
2732,0.305,0.000
2733,0.325,0.000
2734,0.335,-0.015
2735,0.340,0.000
2736,0.340,-0.025
2737,0.315,-0.015
2738,0.305,-0.030
2739,0.250,-0.010
2740,0.205,-0.010
2741,0.140,0.000
2742,0.090,0.000
2743,0.035,0.005
2744,0.005,0.000
2745,-0.035,0.005
2746,-0.065,0.005
2747,-0.095,0.010
2748,-0.115,0.010
2749,-0.130,0.010
2750,-0.140,0.010
2751,-0.145,0.010
2752,-0.145,0.010
2753,-0.145,0.010
2754,-0.135,0.010
2755,-0.130,0.015
2756,-0.125,0.010
2757,-0.115,0.010
2758,-0.105,0.005
2759,-0.105,0.010
2760,-0.100,0.005
2761,-0.110,0.010
2762,-0.105,0.005
2763,-0.115,0.015
2764,-0.100,0.000
2765,-0.115,0.015
2766,-0.100,0.000
2767,-0.115,0.015
2768,-0.095,0.005
2769,-0.090,0.025
2770,-0.055,0.025
2771,-0.040,0.045
2772,-0.010,0.050
2773,-0.015,0.045
2774,0.000,0.015
2775,0.000,0.000
2776,0.000,0.000
2777,0.000,0.000
2778,-0.015,0.000
2779,-0.065,0.000
2780,-0.090,0.000
2781,-0.115,0.000
2782,-0.125,0.000
2783,-0.125,0.000
2784,-0.120,0.000
2785,-0.105,0.010
2786,-0.130,0.105
2787,-0.115,0.145
2788,0.085,0.095
2789,0.695,-0.280
2790,1.140,-0.720
2791,0.485,-0.660
2792,-0.330,-0.405
2793,-0.470,-0.235
2794,-0.300,-0.080
2795,-0.175,0.005
2796,-0.130,0.040
2797,-0.120,0.065
2798,-0.110,0.070
2799,-0.110,0.075
2800,-0.095,0.070
2801,-0.090,0.070
2802,-0.085,0.065
2803,-0.080,0.070
2804,-0.065,0.065
2805,-0.055,0.065
2806,-0.045,0.060
2807,-0.040,0.050
2808,-0.020,0.050
2809,-0.010,0.045
2810,-0.005,0.050
2811,0.000,0.035
2812,0.020,0.040
2813,0.050,0.020
2814,0.060,0.030
2815,0.105,0.015
2816,0.135,0.030
2817,0.185,0.000
2818,0.205,0.010
2819,0.260,0.000
2820,0.285,0.000
2821,0.330,0.000
2822,0.330,0.000
2823,0.350,-0.005
2824,0.330,0.000
2825,0.325,-0.005
2826,0.285,-0.005
2827,0.255,-0.005
2828,0.205,-0.005
2829,0.155,0.000
2830,0.085,0.000
2831,0.020,0.005
2832,-0.005,0.005
2833,-0.035,0.010
2834,-0.075,0.010
2835,-0.105,0.020
2836,-0.125,0.015
2837,-0.135,0.020
2838,-0.145,0.025
2839,-0.145,0.020
2840,-0.145,0.020
2841,-0.145,0.020
2842,-0.145,0.025
2843,-0.145,0.010
2844,-0.135,0.015
2845,-0.120,0.010
2846,-0.120,0.020
2847,-0.105,0.015
2848,-0.110,0.020
2849,-0.095,0.005
2850,-0.100,0.020
2851,-0.095,0.010
2852,-0.110,0.010
2853,-0.095,0.005
2854,-0.110,0.010
2855,-0.100,0.010
2856,-0.110,0.015
2857,-0.095,0.015
2858,-0.090,0.020
2859,-0.065,0.035
2860,-0.040,0.040
2861,-0.015,0.065
2862,0.000,0.030
2863,-0.005,0.015
2864,0.000,0.000
2865,0.000,0.000
2866,-0.015,0.000
2867,-0.050,0.000
2868,-0.080,0.000
2869,-0.125,0.010
2870,-0.125,0.000
2871,-0.135,0.010
2872,-0.125,0.000
2873,-0.130,0.005
2874,-0.130,0.045
2875,-0.140,0.135
2876,-0.070,0.155
2877,0.280,-0.010
2878,1.015,-0.490
2879,1.070,-0.770
2880,0.145,-0.560
2881,-0.500,-0.295
2882,-0.435,-0.135
2883,-0.235,-0.005
2884,-0.150,0.045
2885,-0.125,0.070
2886,-0.120,0.075
2887,-0.105,0.075
2888,-0.100,0.075
2889,-0.095,0.080
2890,-0.090,0.070
2891,-0.085,0.080
2892,-0.070,0.065
2893,-0.065,0.075
2894,-0.045,0.055
2895,-0.040,0.070
2896,-0.020,0.050
2897,-0.030,0.060
2898,0.000,0.045
2899,0.000,0.050
2900,0.015,0.040
2901,0.030,0.035
2902,0.060,0.025
2903,0.095,0.020
2904,0.130,0.010
2905,0.150,0.010
2906,0.205,0.005
2907,0.245,0.000
2908,0.295,0.000
2909,0.330,0.000
2910,0.360,-0.005
2911,0.370,-0.005
2912,0.370,0.000
2913,0.355,-0.005
2914,0.330,0.000
2915,0.310,-0.005
2916,0.255,0.000
2917,0.200,0.000
2918,0.140,0.000
2919,0.075,0.000
2920,0.020,0.010
2921,-0.010,0.005
2922,-0.055,0.010
2923,-0.090,0.010
2924,-0.115,0.005
2925,-0.140,0.005
2926,-0.145,0.005
2927,-0.145,0.015
2928,-0.145,0.010
2929,-0.145,0.010
2930,-0.145,0.010
2931,-0.140,0.010
2932,-0.140,0.010
2933,-0.135,0.010
2934,-0.120,0.005
2935,-0.100,0.005
2936,-0.100,0.010
2937,-0.100,0.010
2938,-0.100,0.010
2939,-0.100,0.005
2940,-0.110,0.015
2941,-0.105,0.005
2942,-0.110,0.015
2943,-0.105,0.005
2944,-0.115,0.020
2945,-0.100,0.005
2946,-0.100,0.030
2947,-0.050,0.025
2948,-0.045,0.060
2949,-0.020,0.050
2950,-0.020,0.050
2951,0.000,0.010
2952,0.000,0.000
2953,0.000,0.000
2954,-0.030,0.000
2955,-0.045,0.000
2956,-0.085,0.000
2957,-0.115,0.005
2958,-0.135,0.005
2959,-0.145,0.005
2960,-0.145,0.000
2961,-0.135,0.005
2962,-0.130,0.035
2963,-0.145,0.120
2964,-0.100,0.160
2965,0.210,0.020
2966,0.910,-0.420
2967,1.125,-0.770
2968,0.275,-0.605
2969,-0.485,-0.315
2970,-0.470,-0.155
2971,-0.265,-0.020
2972,-0.165,0.035
2973,-0.140,0.055
2974,-0.130,0.080
2975,-0.115,0.070
2976,-0.110,0.080
2977,-0.095,0.075
2978,-0.095,0.080
2979,-0.090,0.070
2980,-0.080,0.075
2981,-0.050,0.070
2982,-0.060,0.070
2983,-0.045,0.050
2984,-0.040,0.045
2985,-0.005,0.040
2986,0.000,0.035
2987,0.000,0.035
2988,0.005,0.025
2989,0.030,0.025
2990,0.055,0.015
2991,0.085,0.015
2992,0.125,0.000
2993,0.160,0.010
2994,0.200,0.000
2995,0.240,0.000
2996,0.295,0.000
2997,0.325,0.000
2998,0.355,-0.010
2999,0.365,-0.010
3000,0.370,-0.015
3001,0.360,-0.015
3002,0.340,-0.025
3003,0.300,-0.020
3004,0.260,-0.015
3005,0.210,-0.005
3006,0.145,0.000
3007,0.080,0.000
3008,0.020,0.000
3009,-0.010,0.000
3010,-0.045,0.005
3011,-0.080,0.005
3012,-0.105,0.005
3013,-0.125,0.005
3014,-0.140,0.005
3015,-0.145,0.010
3016,-0.145,0.005
3017,-0.145,0.010
3018,-0.140,0.005
3019,-0.135,0.015
3020,-0.125,0.000
3021,-0.120,0.015
3022,-0.100,0.000
3023,-0.100,0.015
3024,-0.095,0.000
3025,-0.110,0.015
3026,-0.095,0.000
3027,-0.115,0.010
3028,-0.100,0.005
3029,-0.115,0.010
3030,-0.115,0.005
3031,-0.120,0.010
3032,-0.115,0.005
3033,-0.115,0.005
3034,-0.090,0.010
3035,-0.070,0.030
3036,-0.040,0.045
3037,-0.025,0.050
3038,-0.005,0.030
3039,0.000,0.005
3040,0.000,0.000
3041,-0.005,0.000
3042,-0.030,0.000
3043,-0.055,0.000
3044,-0.095,0.000
3045,-0.120,0.000
3046,-0.135,0.005
3047,-0.130,0.000
3048,-0.130,0.005
3049,-0.125,0.000
3050,-0.130,0.045
3051,-0.145,0.125
3052,-0.075,0.145
3053,0.285,-0.030
3054,0.985,-0.485
3055,1.085,-0.775
3056,0.125,-0.555
3057,-0.525,-0.290
3058,-0.445,-0.140
3059,-0.250,-0.010
3060,-0.145,0.035
3061,-0.135,0.065
3062,-0.120,0.075
3063,-0.115,0.075
3064,-0.100,0.075
3065,-0.090,0.070
3066,-0.090,0.070
3067,-0.085,0.070
3068,-0.080,0.070
3069,-0.060,0.065
3070,-0.055,0.075
3071,-0.040,0.055
3072,-0.035,0.065
3073,-0.015,0.035
3074,-0.010,0.035
3075,0.000,0.020
3076,0.005,0.035
3077,0.045,0.015
3078,0.050,0.025
3079,0.100,0.005
3080,0.125,0.015
3081,0.165,0.000
3082,0.195,0.000
3083,0.245,0.000
3084,0.290,0.000
3085,0.330,0.000
3086,0.360,-0.005
3087,0.370,-0.010
3088,0.365,-0.010
3089,0.360,-0.015
3090,0.335,-0.025
3091,0.300,-0.020
3092,0.255,-0.020
3093,0.200,-0.005
3094,0.140,0.000
3095,0.080,0.000
3096,0.030,0.000
3097,-0.010,0.000
3098,-0.045,0.000
3099,-0.075,0.000
3100,-0.100,0.005
3101,-0.115,0.000
3102,-0.140,0.010
3103,-0.140,0.000
3104,-0.140,0.010
3105,-0.125,0.005
3106,-0.135,0.010
3107,-0.120,0.005
3108,-0.125,0.010
3109,-0.100,0.005
3110,-0.115,0.005
3111,-0.095,0.005
3112,-0.100,0.005
3113,-0.100,0.005
3114,-0.100,0.005
3115,-0.100,0.005
3116,-0.100,0.010
3117,-0.105,0.010
3118,-0.105,0.000
3119,-0.105,0.010
3120,-0.100,0.000
3121,-0.100,0.010
3122,-0.095,0.005
3123,-0.070,0.030
3124,-0.025,0.040
3125,-0.015,0.060
3126,0.000,0.035
3127,0.000,0.015
3128,0.000,0.000
3129,0.000,0.000
3130,-0.005,0.000
3131,-0.030,0.000
3132,-0.070,0.000
3133,-0.105,0.000
3134,-0.120,0.000
3135,-0.130,0.005
3136,-0.125,0.005
3137,-0.115,0.000
3138,-0.120,0.015
3139,-0.130,0.090
3140,-0.115,0.155
3141,0.095,0.075
3142,0.675,-0.265
3143,1.150,-0.725
3144,0.560,-0.685
3145,-0.365,-0.370
3146,-0.490,-0.230
3147,-0.300,-0.065
3148,-0.155,0.015
3149,-0.130,0.055
3150,-0.100,0.055
3151,-0.100,0.075
3152,-0.095,0.065
3153,-0.090,0.080
3154,-0.075,0.065
3155,-0.085,0.075
3156,-0.045,0.065
3157,-0.060,0.075
3158,-0.045,0.055
3159,-0.045,0.060
3160,-0.015,0.050
3161,-0.015,0.050
3162,0.000,0.045
3163,0.000,0.040
3164,0.010,0.030
3165,0.020,0.025
3166,0.055,0.025
3167,0.090,0.020
3168,0.120,0.015
3169,0.140,0.005
3170,0.175,0.005
3171,0.220,0.000
3172,0.265,0.000
3173,0.310,-0.005
3174,0.330,0.000
3175,0.355,-0.005
3176,0.360,-0.010
3177,0.360,-0.020
3178,0.345,-0.020
3179,0.320,-0.020
3180,0.275,-0.015
3181,0.220,0.000
3182,0.170,0.000
3183,0.105,0.000
3184,0.050,0.000
3185,0.000,0.005
3186,-0.015,0.005
3187,-0.055,0.010
3188,-0.075,0.005
3189,-0.100,0.010
3190,-0.105,0.010
3191,-0.125,0.010
3192,-0.125,0.010
3193,-0.135,0.010
3194,-0.120,0.010
3195,-0.115,0.010
3196,-0.110,0.010
3197,-0.100,0.005
3198,-0.100,0.010
3199,-0.095,0.005
3200,-0.095,0.015
3201,-0.090,0.005
3202,-0.090,0.015
3203,-0.090,0.000
3204,-0.110,0.015
3205,-0.095,0.000
3206,-0.095,0.015
3207,-0.095,0.005
3208,-0.100,0.015
3209,-0.095,0.005
3210,-0.095,0.020
3211,-0.060,0.025
3212,-0.045,0.050
3213,-0.010,0.065
3214,0.000,0.065
3215,0.000,0.030
3216,0.000,0.005
3217,0.000,0.000
3218,-0.005,0.000
3219,-0.015,0.000
3220,-0.050,0.000
3221,-0.085,0.000
3222,-0.105,0.000
3223,-0.120,0.000
3224,-0.120,0.005
3225,-0.115,0.000
3226,-0.115,0.010
3227,-0.125,0.080
3228,-0.115,0.160
3229,0.050,0.105
3230,0.560,-0.170
3231,1.140,-0.675
3232,0.735,-0.740
3233,-0.270,-0.420
3234,-0.495,-0.270
3235,-0.310,-0.100
3236,-0.170,0.010
3237,-0.120,0.040
3238,-0.115,0.070
3239,-0.095,0.070
3240,-0.095,0.075
3241,-0.090,0.075
3242,-0.090,0.075
3243,-0.075,0.075
3244,-0.070,0.075
3245,-0.050,0.075
3246,-0.045,0.070
3247,-0.040,0.070
3248,-0.025,0.045
3249,-0.015,0.050
3250,0.000,0.040
3251,0.000,0.040
3252,0.015,0.025
3253,0.025,0.030
3254,0.050,0.015
3255,0.070,0.020
3256,0.105,0.005
3257,0.130,0.010
3258,0.175,0.005
3259,0.215,0.000
3260,0.255,0.000
3261,0.295,0.000
3262,0.325,-0.005
3263,0.345,-0.010
3264,0.355,-0.015
3265,0.350,-0.015
3266,0.330,-0.020
3267,0.305,-0.030
3268,0.270,-0.030
3269,0.225,-0.020
3270,0.165,0.000
3271,0.110,0.000
3272,0.045,0.000
3273,0.000,0.000
3274,-0.020,0.000
3275,-0.055,0.000
3276,-0.095,0.000
3277,-0.120,0.010
3278,-0.130,0.000
3279,-0.145,0.010
3280,-0.145,0.000
3281,-0.145,0.015
3282,-0.145,0.000
3283,-0.140,0.015
3284,-0.130,0.000
3285,-0.135,0.020
3286,-0.120,0.005
3287,-0.120,0.010
3288,-0.100,0.000
3289,-0.110,0.010
3290,-0.095,0.005
3291,-0.110,0.010
3292,-0.100,0.010
3293,-0.120,0.010
3294,-0.105,0.010
3295,-0.120,0.010
3296,-0.115,0.010
3297,-0.115,0.010
3298,-0.105,0.010
3299,-0.095,0.015
3300,-0.075,0.030
3301,-0.035,0.045
3302,-0.020,0.065
3303,-0.005,0.045
3304,-0.005,0.015
3305,0.000,0.005
3306,-0.005,0.000
3307,-0.015,0.000
3308,-0.050,0.000
3309,-0.090,0.000
3310,-0.115,0.005
3311,-0.135,0.005
3312,-0.135,0.000
3313,-0.135,0.005
3314,-0.125,0.000
3315,-0.140,0.040
3316,-0.140,0.120
3317,-0.095,0.160
3318,0.220,0.015
3319,0.880,-0.415
3320,1.240,-0.820
3321,0.155,-0.550
3322,-0.545,-0.300
3323,-0.465,-0.160
3324,-0.240,-0.005
3325,-0.140,0.030
3326,-0.135,0.075
3327,-0.120,0.070
3328,-0.120,0.080
3329,-0.100,0.070
3330,-0.100,0.080
3331,-0.085,0.065
3332,-0.085,0.080
3333,-0.065,0.065
3334,-0.065,0.075
3335,-0.045,0.055
3336,-0.045,0.060
3337,-0.025,0.045
3338,-0.020,0.045
3339,-0.005,0.035
3340,0.000,0.030
3341,0.015,0.025
3342,0.025,0.025
3343,0.055,0.015
3344,0.090,0.010
3345,0.120,0.005
3346,0.145,0.000
3347,0.180,0.000
3348,0.225,0.000
3349,0.275,0.000
3350,0.310,0.000
3351,0.330,-0.005
3352,0.350,-0.010
3353,0.365,-0.015
3354,0.360,-0.020
3355,0.340,-0.025
3356,0.310,-0.025
3357,0.265,-0.020
3358,0.205,0.000
3359,0.140,-0.010
3360,0.070,0.000
3361,0.020,0.000
3362,-0.015,0.000
3363,-0.040,0.000
3364,-0.090,0.005
3365,-0.105,0.005
3366,-0.140,0.005
3367,-0.140,0.005
3368,-0.145,0.010
3369,-0.145,0.005
3370,-0.145,0.005
3371,-0.145,0.005
3372,-0.145,0.005
3373,-0.130,0.005
3374,-0.130,0.005
3375,-0.120,0.005
3376,-0.120,0.005
3377,-0.105,0.010
3378,-0.105,0.005
3379,-0.115,0.010
3380,-0.115,0.000
3381,-0.115,0.010
3382,-0.105,0.000
3383,-0.120,0.010
3384,-0.115,0.000
3385,-0.130,0.010
3386,-0.115,0.005
3387,-0.105,0.015
3388,-0.075,0.020
3389,-0.050,0.035
3390,-0.030,0.045
3391,-0.025,0.045
3392,-0.015,0.025
3393,0.000,0.000
3394,-0.005,0.000
3395,-0.020,0.000
3396,-0.055,0.000
3397,-0.085,0.000
3398,-0.130,0.000
3399,-0.140,0.000
3400,-0.145,0.005
3401,-0.145,0.005
3402,-0.140,0.000
3403,-0.140,0.010
3404,-0.145,0.080
3405,-0.145,0.165
3406,0.065,0.085
3407,0.635,-0.230
3408,1.345,-0.800
3409,0.630,-0.715
3410,-0.460,-0.370
3411,-0.555,-0.210
3412,-0.300,-0.050
3413,-0.170,0.025
3414,-0.145,0.035
3415,-0.145,0.070
3416,-0.115,0.065
3417,-0.115,0.070
3418,-0.095,0.065
3419,-0.095,0.070
3420,-0.085,0.065
3421,-0.085,0.065
3422,-0.070,0.065
3423,-0.065,0.065
3424,-0.050,0.050
3425,-0.045,0.050
3426,-0.025,0.050
3427,-0.005,0.035
3428,0.000,0.035
3429,0.000,0.030
3430,0.015,0.025
3431,0.050,0.015
3432,0.075,0.010
3433,0.110,0.005
3434,0.150,0.000
3435,0.180,0.000
3436,0.225,0.000
3437,0.275,0.000
3438,0.320,0.000
3439,0.345,-0.005
3440,0.370,-0.010
3441,0.370,-0.010
3442,0.370,-0.020
3443,0.355,-0.015
3444,0.340,-0.020
3445,0.295,-0.010
3446,0.240,-0.010
3447,0.170,0.000
3448,0.120,0.000
3449,0.050,0.000
3450,0.005,0.000
3451,-0.020,0.005
3452,-0.050,0.010
3453,-0.095,0.010
3454,-0.115,0.010
3455,-0.130,0.005
3456,-0.145,0.015
3457,-0.145,0.005
3458,-0.145,0.005
3459,-0.145,0.000
3460,-0.140,0.010
3461,-0.125,0.000
3462,-0.125,0.010
3463,-0.100,0.000
3464,-0.110,0.005
3465,-0.095,0.000
3466,-0.100,0.005
3467,-0.095,0.000
3468,-0.105,0.010
3469,-0.100,0.000
3470,-0.115,0.010
3471,-0.115,0.005
3472,-0.120,0.005
3473,-0.105,0.005
3474,-0.105,0.005
3475,-0.100,0.010
3476,-0.080,0.020
3477,-0.045,0.035
3478,-0.020,0.045
3479,-0.015,0.040
3480,-0.005,0.020
3481,0.000,0.000
3482,0.000,0.000
3483,-0.010,0.000
3484,-0.040,0.000
3485,-0.070,0.000
3486,-0.110,0.000
3487,-0.130,0.000
3488,-0.140,0.000
3489,-0.125,0.000
3490,-0.140,0.000
3491,-0.125,0.010
3492,-0.145,0.075
3493,-0.130,0.155
3494,0.010,0.110
3495,0.565,-0.180
3496,1.350,-0.775
3497,0.765,-0.745
3498,-0.450,-0.365
3499,-0.550,-0.235
3500,-0.330,-0.060
3501,-0.170,0.010
3502,-0.145,0.045
3503,-0.130,0.065
3504,-0.115,0.070
3505,-0.100,0.075
3506,-0.095,0.065
3507,-0.095,0.075
3508,-0.090,0.070
3509,-0.090,0.075
3510,-0.065,0.065
3511,-0.060,0.065
3512,-0.050,0.055
3513,-0.040,0.055
3514,-0.010,0.045
3515,-0.005,0.045
3516,0.000,0.040
3517,0.000,0.035
3518,0.020,0.030
3519,0.045,0.030
3520,0.075,0.020
3521,0.110,0.010
3522,0.145,0.010
3523,0.185,0.000
3524,0.220,0.000
3525,0.265,0.000
3526,0.305,0.000
3527,0.345,0.000
3528,0.365,0.000
3529,0.380,-0.005
3530,0.370,-0.010
3531,0.360,-0.010
3532,0.340,-0.015
3533,0.310,-0.015
3534,0.250,-0.010
3535,0.190,0.000
3536,0.125,0.000
3537,0.055,0.000
3538,0.020,0.000
3539,-0.015,0.015
3540,-0.045,0.000
3541,-0.095,0.015
3542,-0.095,0.000
3543,-0.135,0.015
3544,-0.125,0.005
3545,-0.140,0.030
3546,-0.130,0.010
3547,-0.140,0.025
3548,-0.125,0.015
3549,-0.125,0.015
3550,-0.105,0.005
3551,-0.110,0.005
3552,-0.100,0.010
3553,-0.100,0.010
3554,-0.100,0.010
3555,-0.095,0.005
3556,-0.095,0.005
3557,-0.100,0.005
3558,-0.100,0.010
3559,-0.100,0.005
3560,-0.105,0.010
3561,-0.105,0.005
3562,-0.105,0.005
3563,-0.105,0.005
3564,-0.090,0.005
3565,-0.065,0.020
3566,-0.040,0.045
3567,-0.020,0.060
3568,0.000,0.040
3569,0.000,0.020
3570,0.000,0.000
3571,0.000,0.000
3572,-0.005,0.000
3573,-0.040,0.000
3574,-0.070,0.000
3575,-0.105,0.005
3576,-0.105,0.005
3577,-0.125,0.000
3578,-0.125,0.000
3579,-0.120,0.005
3580,-0.105,0.015
3581,-0.140,0.105
3582,-0.125,0.170
3583,0.105,0.085
3584,0.805,-0.330
3585,1.440,-0.875
3586,0.290,-0.585
3587,-0.475,-0.355
3588,-0.475,-0.185
3589,-0.250,-0.045
3590,-0.150,0.025
3591,-0.105,0.040
3592,-0.110,0.075
3593,-0.095,0.065
3594,-0.090,0.080
3595,-0.075,0.070
3596,-0.080,0.075
3597,-0.055,0.060
3598,-0.055,0.065
3599,-0.050,0.060
3600,-0.045,0.060
3601,-0.030,0.055
3602,-0.020,0.050
3603,-0.005,0.050
3604,0.000,0.045
3605,0.005,0.035
3606,0.015,0.030
3607,0.040,0.030
3608,0.065,0.025
3609,0.090,0.015
3610,0.125,0.005
3611,0.155,0.000
3612,0.190,0.005
3613,0.235,0.000
3614,0.275,0.000
3615,0.325,0.000
3616,0.345,0.000
3617,0.370,-0.010
3618,0.370,-0.005
3619,0.375,-0.025
3620,0.355,-0.010
3621,0.345,-0.030
3622,0.285,-0.015
3623,0.255,-0.010
3624,0.180,0.000
3625,0.135,0.000
3626,0.050,0.000
3627,0.015,0.000
3628,-0.010,0.005
3629,-0.040,0.010
3630,-0.070,0.010
3631,-0.090,0.010
3632,-0.100,0.010
3633,-0.105,0.010
3634,-0.120,0.005
3635,-0.120,0.015
3636,-0.115,0.010
3637,-0.115,0.010
3638,-0.100,0.000
3639,-0.100,0.010
3640,-0.095,0.000
3641,-0.095,0.005
3642,-0.090,0.005
3643,-0.090,0.010
3644,-0.085,0.005
3645,-0.090,0.005
3646,-0.095,0.005
3647,-0.095,0.005
3648,-0.090,0.010
3649,-0.090,0.005
3650,-0.095,0.010
3651,-0.095,0.005
3652,-0.095,0.005
3653,-0.090,0.010
3654,-0.070,0.020
3655,-0.030,0.035
3656,-0.010,0.050
3657,0.000,0.055
3658,0.000,0.025
3659,0.000,0.000
3660,0.000,0.000
3661,0.000,0.000
3662,-0.005,0.000
3663,-0.040,0.000
3664,-0.070,0.000
3665,-0.095,0.000
3666,-0.105,0.000
3667,-0.110,0.000
3668,-0.095,0.000
3669,-0.100,0.000
3670,-0.100,0.060
3671,-0.140,0.180
3672,-0.015,0.120
3673,0.465,-0.085
3674,1.285,-0.695
3675,0.760,-0.735
3676,-0.205,-0.445
3677,-0.480,-0.285
3678,-0.320,-0.105
3679,-0.175,0.000
3680,-0.110,0.030
3681,-0.100,0.060
3682,-0.085,0.070
3683,-0.085,0.070
3684,-0.075,0.070
3685,-0.070,0.070
3686,-0.060,0.070
3687,-0.050,0.065
3688,-0.040,0.065
3689,-0.030,0.055
3690,-0.025,0.055
3691,-0.010,0.055
3692,0.000,0.045
3693,-0.005,0.045
3694,0.000,0.040
3695,0.010,0.035
3696,0.030,0.030
3697,0.050,0.030
3698,0.085,0.020
3699,0.110,0.025
3700,0.140,0.010
3701,0.170,0.010
3702,0.230,0.000
3703,0.260,0.000
3704,0.305,0.000
3705,0.330,0.000
3706,0.365,-0.005
3707,0.370,-0.005
3708,0.370,-0.010
3709,0.355,-0.015
3710,0.340,-0.015
3711,0.300,-0.015
3712,0.255,-0.010
3713,0.205,-0.005
3714,0.150,0.000
3715,0.085,0.000
3716,0.030,0.000
3717,0.000,0.000
3718,-0.030,0.015
3719,-0.055,0.005
3720,-0.085,0.015
3721,-0.095,0.000
3722,-0.110,0.015
3723,-0.120,0.005
3724,-0.135,0.015
3725,-0.125,0.015
3726,-0.135,0.015
3727,-0.115,0.010
3728,-0.110,0.010
3729,-0.100,0.010
3730,-0.095,0.005
3731,-0.085,0.005
3732,-0.085,0.005
3733,-0.085,0.005
3734,-0.085,0.005
3735,-0.085,0.010
3736,-0.085,0.005
3737,-0.090,0.000
3738,-0.090,0.005
3739,-0.095,0.005
3740,-0.090,0.005
3741,-0.090,0.000
3742,-0.090,0.010
3743,-0.075,0.010
3744,-0.055,0.030
3745,-0.030,0.030
3746,-0.015,0.060
3747,0.000,0.040
3748,0.000,0.025
3749,0.000,0.000
3750,0.000,0.000
3751,0.000,0.000
3752,-0.025,0.000
3753,-0.050,0.000
3754,-0.100,0.000
3755,-0.100,0.000
3756,-0.125,0.005
3757,-0.105,0.005
3758,-0.110,0.000
3759,-0.100,0.000
3760,-0.135,0.110
3761,-0.125,0.160
3762,0.070,0.100
3763,0.705,-0.265
3764,1.265,-0.760
3765,0.440,-0.615
3766,-0.355,-0.380
3767,-0.470,-0.210
3768,-0.295,-0.065
3769,-0.175,0.015
3770,-0.130,0.040
3771,-0.115,0.065
3772,-0.100,0.070
3773,-0.100,0.075
3774,-0.095,0.070
3775,-0.090,0.075
3776,-0.080,0.075
3777,-0.070,0.070
3778,-0.065,0.070
3779,-0.045,0.065
3780,-0.035,0.060
3781,-0.025,0.055
3782,-0.015,0.055
3783,-0.005,0.045
3784,0.000,0.045
3785,0.010,0.035
3786,0.020,0.030
3787,0.055,0.025
3788,0.080,0.020
3789,0.110,0.010
3790,0.140,0.000
3791,0.170,0.000
3792,0.215,0.000
3793,0.255,0.000
3794,0.305,0.000
3795,0.325,0.000
3796,0.360,-0.005
3797,0.360,0.000
3798,0.365,-0.010
3799,0.325,-0.010
3800,0.325,-0.025
3801,0.280,-0.005
3802,0.240,-0.010
3803,0.170,0.000
3804,0.120,0.000
3805,0.045,0.000
3806,0.005,0.000
3807,-0.030,0.005
3808,-0.055,0.010
3809,-0.090,0.010
3810,-0.115,0.010
3811,-0.130,0.015
3812,-0.140,0.020
3813,-0.145,0.015
3814,-0.145,0.010
3815,-0.145,0.005
3816,-0.145,0.005
3817,-0.145,0.000
3818,-0.135,0.005
3819,-0.115,0.005
3820,-0.105,0.000
3821,-0.105,0.000
3822,-0.105,0.005
3823,-0.105,0.005
3824,-0.100,0.005
3825,-0.110,0.010
3826,-0.100,0.000
3827,-0.110,0.010
3828,-0.105,0.000
3829,-0.110,0.010
3830,-0.105,0.005
3831,-0.120,0.005
3832,-0.105,0.005
3833,-0.095,0.020
3834,-0.060,0.025
3835,-0.040,0.045
3836,-0.010,0.045
3837,-0.005,0.035
3838,0.000,0.010
3839,0.000,0.000
3840,0.000,0.000
3841,-0.020,0.000
3842,-0.040,0.000
3843,-0.090,0.000
3844,-0.115,0.000
3845,-0.120,0.000
3846,-0.140,0.005
3847,-0.125,0.000
3848,-0.135,0.000
3849,-0.120,0.015
3850,-0.145,0.125
3851,-0.110,0.145
3852,0.170,0.050
3853,0.915,-0.415
3854,1.215,-0.780
3855,0.295,-0.595
3856,-0.455,-0.335
3857,-0.465,-0.170
3858,-0.275,-0.035
3859,-0.160,0.025
3860,-0.130,0.055
3861,-0.110,0.070
3862,-0.100,0.070
3863,-0.095,0.070
3864,-0.095,0.070
3865,-0.090,0.075
3866,-0.080,0.070
3867,-0.070,0.070
3868,-0.055,0.060
3869,-0.040,0.055
3870,-0.035,0.055
3871,-0.025,0.045
3872,-0.015,0.050
3873,0.000,0.040
3874,0.005,0.045
3875,0.025,0.030
3876,0.035,0.035
3877,0.075,0.020
3878,0.085,0.025
3879,0.140,0.005
3880,0.155,0.000
3881,0.210,0.000
3882,0.235,0.000
3883,0.300,0.000
3884,0.320,0.000
3885,0.370,0.000
3886,0.370,0.000
3887,0.395,0.000
3888,0.375,-0.005
3889,0.370,-0.010
3890,0.330,-0.025
3891,0.295,-0.010
3892,0.240,-0.010
3893,0.175,0.000
3894,0.120,0.000
3895,0.055,0.000
3896,0.010,0.000
3897,-0.025,0.010
3898,-0.055,0.010
3899,-0.095,0.010
3900,-0.115,0.010
3901,-0.130,0.010
3902,-0.140,0.005
3903,-0.145,0.010
3904,-0.145,0.015
3905,-0.145,0.010
3906,-0.135,0.010
3907,-0.125,0.000
3908,-0.110,0.005
3909,-0.105,0.005
3910,-0.105,0.005
3911,-0.095,0.005
3912,-0.095,0.005
3913,-0.095,0.000
3914,-0.095,0.005
3915,-0.095,0.005
3916,-0.100,0.005
3917,-0.100,0.005
3918,-0.100,0.005
3919,-0.100,0.005
3920,-0.100,0.005
3921,-0.110,0.010
3922,-0.090,0.005
3923,-0.070,0.025
3924,-0.040,0.025
3925,-0.020,0.060
3926,0.000,0.040
3927,0.000,0.015
3928,0.000,0.000
3929,0.000,0.000
3930,-0.010,0.000
3931,-0.040,0.000
3932,-0.060,0.000
3933,-0.095,0.000
3934,-0.115,0.000
3935,-0.135,0.000
3936,-0.125,0.000
3937,-0.125,0.000
3938,-0.120,0.005
3939,-0.135,0.090
3940,-0.125,0.145
3941,0.080,0.090
3942,0.705,-0.285
3943,1.240,-0.735
3944,0.580,-0.665
3945,-0.340,-0.380
3946,-0.505,-0.200
3947,-0.305,-0.060
3948,-0.170,0.020
3949,-0.130,0.045
3950,-0.120,0.060
3951,-0.110,0.070
3952,-0.095,0.070
3953,-0.095,0.070
3954,-0.090,0.060
3955,-0.080,0.075
3956,-0.065,0.065
3957,-0.060,0.065
3958,-0.045,0.050
3959,-0.040,0.060
3960,-0.020,0.045
3961,-0.015,0.050
3962,0.000,0.040
3963,0.000,0.040
3964,0.015,0.030
3965,0.025,0.025
3966,0.060,0.020
3967,0.085,0.015
3968,0.115,0.010
3969,0.145,0.005
3970,0.185,0.005
3971,0.220,0.000
3972,0.270,0.000
3973,0.315,0.000
3974,0.340,0.000
3975,0.370,-0.010
3976,0.375,-0.005
3977,0.380,-0.015
3978,0.360,-0.015
3979,0.340,-0.030
3980,0.290,-0.015
3981,0.255,-0.010
3982,0.190,0.000
3983,0.130,0.000
3984,0.065,0.000
3985,0.010,0.000
3986,-0.020,0.000
3987,-0.045,0.005
3988,-0.075,0.010
3989,-0.110,0.010
3990,-0.125,0.010
3991,-0.140,0.010
3992,-0.145,0.010
3993,-0.145,0.010
3994,-0.145,0.010
3995,-0.140,0.005
3996,-0.135,0.010
3997,-0.125,0.005
3998,-0.110,0.010
3999,-0.100,0.005
4000,-0.100,0.010
4001,-0.095,0.005
4002,-0.095,0.015
4003,-0.095,0.000
4004,-0.095,0.015
4005,-0.095,0.000
4006,-0.115,0.010
4007,-0.095,0.000
4008,-0.115,0.010
4009,-0.100,0.000
4010,-0.115,0.010
4011,-0.095,0.000
4012,-0.095,0.015
4013,-0.060,0.020
4014,-0.045,0.045
4015,-0.010,0.045
4016,-0.010,0.030
4017,0.000,0.005
4018,0.000,0.000
4019,0.000,0.000
4020,-0.025,0.000
4021,-0.050,0.000
4022,-0.085,0.000
4023,-0.125,0.000
4024,-0.140,0.000
4025,-0.140,0.000
4026,-0.130,0.000
4027,-0.125,0.000
4028,-0.125,0.040
4029,-0.140,0.130
4030,-0.070,0.140
4031,0.290,-0.025
4032,1.010,-0.490
4033,1.070,-0.765
4034,0.145,-0.550
4035,-0.485,-0.300
4036,-0.430,-0.145
4037,-0.235,-0.020
4038,-0.150,0.030
4039,-0.125,0.050
4040,-0.115,0.065
4041,-0.100,0.065
4042,-0.100,0.070
4043,-0.090,0.070
4044,-0.090,0.065
4045,-0.070,0.065
4046,-0.060,0.065
4047,-0.055,0.060
4048,-0.040,0.050
4049,-0.035,0.050
4050,-0.020,0.045
4051,-0.005,0.045
4052,0.000,0.030
4053,0.000,0.030
4054,0.020,0.020
4055,0.030,0.030
4056,0.070,0.005
4057,0.080,0.020
4058,0.130,0.005
4059,0.150,0.010
4060,0.200,0.000
4061,0.230,0.000
4062,0.290,0.000
4063,0.320,0.000
4064,0.355,-0.005
4065,0.365,-0.005
4066,0.380,-0.015
4067,0.365,-0.020
4068,0.350,-0.025
4069,0.320,-0.035
4070,0.290,-0.025
4071,0.235,-0.015
4072,0.170,-0.005
4073,0.110,0.000
4074,0.055,0.000
4075,0.015,0.000
4076,-0.020,0.000
4077,-0.055,0.005
4078,-0.080,0.005
4079,-0.095,0.010
4080,-0.120,0.010
4081,-0.135,0.010
4082,-0.130,0.005
4083,-0.135,0.010
4084,-0.130,0.000
4085,-0.135,0.010
4086,-0.120,0.000
4087,-0.120,0.010
4088,-0.095,0.000
4089,-0.100,0.010
4090,-0.095,0.005
4091,-0.095,0.010
4092,-0.095,0.010
4093,-0.100,0.005
4094,-0.095,0.005
4095,-0.095,0.010
4096,-0.100,0.015
4097,-0.100,0.010
4098,-0.100,0.010
4099,-0.100,0.005
4100,-0.100,0.010
4101,-0.100,0.005
4102,-0.095,0.010
4103,-0.070,0.015
4104,-0.045,0.035
4105,-0.005,0.040
4106,-0.010,0.040
4107,0.000,0.010
4108,0.000,0.000
4109,0.000,0.000
4110,-0.010,0.000
4111,-0.020,0.000
4112,-0.060,0.000
4113,-0.090,0.000
4114,-0.120,0.000
4115,-0.125,0.000
4116,-0.120,0.000
4117,-0.110,0.000
4118,-0.105,0.005
4119,-0.125,0.070
4120,-0.130,0.140
4121,0.020,0.110
4122,0.530,-0.165
4123,1.115,-0.640
4124,0.805,-0.735
4125,-0.215,-0.435
4126,-0.500,-0.270
4127,-0.335,-0.115
4128,-0.175,0.000
4129,-0.125,0.030
4130,-0.110,0.060
4131,-0.095,0.055
4132,-0.095,0.075
4133,-0.095,0.065
4134,-0.090,0.070
4135,-0.070,0.050
4136,-0.065,0.070
4137,-0.045,0.050
4138,-0.055,0.060
4139,-0.035,0.045
4140,-0.040,0.050
4141,-0.010,0.045
4142,-0.010,0.040
4143,0.000,0.030
4144,0.000,0.035
4145,0.025,0.025
4146,0.045,0.025
4147,0.070,0.020
4148,0.095,0.015
4149,0.135,0.010
4150,0.165,0.000
4151,0.200,0.000
4152,0.240,0.000
4153,0.285,0.000
4154,0.320,-0.005
4155,0.345,-0.005
4156,0.360,-0.020
4157,0.360,-0.020
4158,0.345,-0.025
4159,0.330,-0.025
4160,0.315,-0.025
4161,0.265,-0.020
4162,0.205,-0.005
4163,0.150,-0.005
4164,0.090,0.000
4165,0.040,0.000
4166,0.000,0.005
4167,-0.030,0.005
4168,-0.075,0.010
4169,-0.095,0.005
4170,-0.115,0.010
4171,-0.120,0.010
4172,-0.140,0.010
4173,-0.140,0.010
4174,-0.140,0.010
4175,-0.140,0.010
4176,-0.140,0.010
4177,-0.125,0.010
4178,-0.120,0.005
4179,-0.110,0.005
4180,-0.095,0.005
4181,-0.100,0.010
4182,-0.095,0.000
4183,-0.100,0.010
4184,-0.095,0.005
4185,-0.110,0.015
4186,-0.095,0.000
4187,-0.115,0.015
4188,-0.100,0.005
4189,-0.115,0.015
4190,-0.100,0.005
4191,-0.110,0.015
4192,-0.100,0.010
4193,-0.095,0.020
4194,-0.060,0.030
4195,-0.045,0.055
4196,-0.020,0.065
4197,-0.010,0.045
4198,0.000,0.020
4199,0.000,0.000
4200,0.000,0.000
4201,-0.010,0.000
4202,-0.035,0.000
4203,-0.070,0.000
4204,-0.105,0.000
4205,-0.120,0.000
4206,-0.125,0.000
4207,-0.125,0.000
4208,-0.125,0.000
4209,-0.120,0.015
4210,-0.125,0.095
4211,-0.110,0.165
4212,0.120,0.055
4213,0.715,-0.265
4214,1.205,-0.755
4215,0.470,-0.670
4216,-0.390,-0.385
4217,-0.470,-0.235
4218,-0.275,-0.070
4219,-0.160,0.015
4220,-0.120,0.040
4221,-0.115,0.075
4222,-0.095,0.075
4223,-0.095,0.075
4224,-0.095,0.075
4225,-0.090,0.075
4226,-0.085,0.075
4227,-0.075,0.070
4228,-0.065,0.070
4229,-0.045,0.055
4230,-0.040,0.060
4231,-0.025,0.045
4232,-0.015,0.050
4233,0.000,0.040
4234,0.000,0.050
4235,0.005,0.035
4236,0.010,0.035
4237,0.040,0.025
4238,0.070,0.025
4239,0.100,0.015
4240,0.125,0.015
4241,0.165,0.005
4242,0.195,0.000
4243,0.245,0.000
4244,0.290,0.000
4245,0.320,-0.005
4246,0.330,-0.005
4247,0.345,-0.005
4248,0.350,-0.010
4249,0.330,-0.010
4250,0.310,-0.015
4251,0.275,-0.010
4252,0.230,-0.005
4253,0.180,0.000
4254,0.120,0.000
4255,0.055,0.000
4256,0.000,0.005
4257,-0.020,0.005
4258,-0.055,0.015
4259,-0.090,0.010
4260,-0.120,0.015
4261,-0.130,0.010
4262,-0.145,0.025
4263,-0.145,0.015
4264,-0.145,0.030
4265,-0.145,0.010
4266,-0.140,0.035
4267,-0.125,0.020
4268,-0.140,0.030
4269,-0.120,0.005
4270,-0.125,0.020
4271,-0.100,0.015
4272,-0.115,0.025
4273,-0.105,0.020
4274,-0.110,0.025
4275,-0.115,0.025
4276,-0.115,0.025
4277,-0.115,0.025
4278,-0.125,0.025
4279,-0.120,0.025
4280,-0.120,0.025
4281,-0.125,0.025
4282,-0.125,0.010
4283,-0.120,0.015
4284,-0.105,0.015
4285,-0.080,0.025
4286,-0.055,0.040
4287,-0.040,0.060
4288,-0.020,0.055
4289,-0.010,0.030
4290,-0.010,0.010
4291,-0.005,0.000
4292,-0.015,0.000
4293,-0.035,0.005
4294,-0.070,0.005
4295,-0.105,0.005
4296,-0.140,0.010
4297,-0.140,0.005
4298,-0.140,0.010
4299,-0.130,0.005
4300,-0.135,0.025
4301,-0.135,0.085
4302,-0.150,0.165
4303,0.000,0.125
4304,0.530,-0.130
4305,1.290,-0.715
4306,0.830,-0.770
4307,-0.365,-0.365
4308,-0.570,-0.235
4309,-0.340,-0.050
4310,-0.175,0.010
4311,-0.145,0.070
4312,-0.125,0.070
4313,-0.125,0.080
4314,-0.100,0.080
4315,-0.100,0.080
4316,-0.095,0.085
4317,-0.095,0.085
4318,-0.075,0.075
4319,-0.080,0.080
4320,-0.055,0.070
4321,-0.045,0.075
4322,-0.030,0.060
4323,-0.025,0.065
4324,-0.005,0.055
4325,0.000,0.050
4326,0.005,0.035
4327,0.020,0.030
4328,0.050,0.030
4329,0.070,0.025
4330,0.095,0.020
4331,0.130,0.015
4332,0.165,0.010
4333,0.210,0.005
4334,0.255,0.000
4335,0.295,0.000
4336,0.335,0.000
4337,0.360,-0.005
4338,0.370,-0.010
4339,0.370,-0.005
4340,0.375,-0.010
4341,0.350,0.000
4342,0.330,-0.015
4343,0.280,-0.015
4344,0.235,-0.010
4345,0.155,0.000
4346,0.095,0.000
4347,0.020,0.000
4348,0.000,0.000
4349,-0.040,0.010
4350,-0.075,0.005
4351,-0.115,0.010
4352,-0.115,0.005
4353,-0.125,0.010
4354,-0.130,0.015
4355,-0.140,0.015
4356,-0.140,0.015
4357,-0.140,0.010
4358,-0.130,0.010
4359,-0.125,0.005
4360,-0.120,0.005
4361,-0.100,0.005
4362,-0.100,0.010
4363,-0.100,0.000
4364,-0.110,0.010
4365,-0.100,0.005
4366,-0.110,0.015
4367,-0.105,0.005
4368,-0.110,0.010
4369,-0.105,0.005
4370,-0.110,0.010
4371,-0.120,0.010
4372,-0.125,0.015
4373,-0.110,0.015
4374,-0.100,0.020
4375,-0.075,0.030
4376,-0.045,0.050
4377,-0.030,0.060
4378,-0.010,0.045
4379,-0.010,0.025
4380,0.000,0.005
4381,0.000,0.000
4382,-0.010,0.000
4383,-0.045,0.000
4384,-0.070,0.005
4385,-0.105,0.005
4386,-0.130,0.005
4387,-0.140,0.005
4388,-0.140,0.005
4389,-0.125,0.005
4390,-0.130,0.025
4391,-0.130,0.085
4392,-0.150,0.180
4393,0.040,0.105
4394,0.650,-0.210
4395,1.500,-0.840
4396,0.550,-0.675
4397,-0.445,-0.365
4398,-0.530,-0.200
4399,-0.300,-0.045
4400,-0.170,0.035
4401,-0.125,0.060
4402,-0.125,0.075
4403,-0.100,0.075
4404,-0.100,0.080
4405,-0.090,0.085
4406,-0.090,0.080
4407,-0.085,0.080
4408,-0.075,0.075
4409,-0.065,0.070
4410,-0.050,0.055
4411,-0.040,0.055
4412,-0.025,0.050
4413,-0.020,0.050
4414,-0.005,0.045
4415,0.000,0.045
4416,0.010,0.035
4417,0.025,0.030
4418,0.050,0.025
4419,0.075,0.015
4420,0.105,0.015
4421,0.145,0.010
4422,0.170,0.010
4423,0.225,0.000
4424,0.270,0.000
4425,0.310,0.000
4426,0.340,0.000
4427,0.370,-0.005
4428,0.370,-0.010
4429,0.380,-0.015
4430,0.360,-0.015
4431,0.350,-0.020
4432,0.305,-0.025
4433,0.255,-0.010
4434,0.200,-0.005
4435,0.135,0.000
4436,0.075,0.000
4437,0.005,0.000
4438,-0.010,0.000
4439,-0.055,0.005
4440,-0.080,0.005
4441,-0.110,0.010
4442,-0.115,0.000
4443,-0.140,0.015
4444,-0.145,0.000
4445,-0.145,0.015
4446,-0.145,0.005
4447,-0.145,0.015
4448,-0.130,0.005
4449,-0.125,0.010
4450,-0.105,0.005
4451,-0.110,0.010
4452,-0.105,0.005
4453,-0.105,0.005
4454,-0.100,0.005
4455,-0.100,0.005
4456,-0.100,0.010
4457,-0.100,0.010
4458,-0.105,0.010
4459,-0.105,0.010
4460,-0.110,0.010
4461,-0.110,0.010
4462,-0.115,0.010
4463,-0.105,0.015
4464,-0.080,0.025
4465,-0.055,0.045
4466,-0.040,0.055
4467,-0.025,0.055
4468,0.000,0.020
4469,-0.005,0.010
4470,0.000,0.000
4471,0.000,0.000
4472,-0.025,0.000
4473,-0.070,0.000
4474,-0.100,0.000
4475,-0.135,0.005
4476,-0.125,0.000
4477,-0.135,0.010
4478,-0.120,0.005
4479,-0.135,0.015
4480,-0.130,0.075
4481,-0.150,0.175
4482,-0.005,0.140
4483,0.540,-0.140
4484,1.375,-0.755
4485,0.705,-0.715
4486,-0.325,-0.390
4487,-0.525,-0.230
4488,-0.335,-0.055
4489,-0.175,0.015
4490,-0.140,0.060
4491,-0.120,0.070
4492,-0.115,0.080
4493,-0.100,0.070
4494,-0.095,0.075
4495,-0.075,0.070
4496,-0.075,0.075
4497,-0.065,0.060
4498,-0.060,0.060
4499,-0.050,0.055
4500,-0.045,0.055
4501,-0.030,0.050
4502,-0.020,0.045
4503,-0.010,0.045
4504,0.000,0.040
4505,0.010,0.035
4506,0.030,0.030
4507,0.050,0.025
4508,0.085,0.025
4509,0.110,0.020
4510,0.140,0.005
4511,0.170,0.000
4512,0.215,0.000
4513,0.260,0.000
4514,0.305,0.000
4515,0.340,-0.005
4516,0.370,0.000
4517,0.385,-0.010
4518,0.375,-0.010
4519,0.380,-0.030
4520,0.345,-0.015
4521,0.335,-0.035
4522,0.260,-0.015
4523,0.230,-0.015
4524,0.150,0.000
4525,0.100,0.000
4526,0.030,0.000
4527,0.000,0.000
4528,-0.040,0.005
4529,-0.060,0.005
4530,-0.095,0.005
4531,-0.100,0.000
4532,-0.115,0.005
4533,-0.125,0.005
4534,-0.125,0.005
4535,-0.125,0.005
4536,-0.125,0.005
4537,-0.110,0.005
4538,-0.100,0.005
4539,-0.100,0.005
4540,-0.095,0.000
4541,-0.095,0.005
4542,-0.095,0.000
4543,-0.095,0.005
4544,-0.095,0.005
4545,-0.095,0.005
4546,-0.095,0.005
4547,-0.095,0.000
4548,-0.095,0.005
4549,-0.095,0.005
4550,-0.095,0.005
4551,-0.095,0.005
4552,-0.095,0.015
4553,-0.080,0.010
4554,-0.055,0.035
4555,-0.020,0.045
4556,-0.010,0.055
4557,0.000,0.030
4558,0.000,0.005
4559,0.000,0.000
4560,0.000,0.000
4561,0.000,0.000
4562,-0.040,0.000
4563,-0.075,0.000
4564,-0.115,0.000
4565,-0.120,0.000
4566,-0.120,0.000
4567,-0.120,0.005
4568,-0.105,0.000
4569,-0.115,0.045
4570,-0.135,0.140
4571,-0.080,0.155
4572,0.295,0.010
4573,1.075,-0.530
4574,1.065,-0.790
4575,0.020,-0.500
4576,-0.465,-0.315
4577,-0.390,-0.140
4578,-0.215,-0.020
4579,-0.145,0.035
4580,-0.110,0.055
4581,-0.100,0.065
4582,-0.090,0.070
4583,-0.090,0.070
4584,-0.080,0.070
4585,-0.075,0.070
4586,-0.065,0.060
4587,-0.050,0.055
4588,-0.045,0.050
4589,-0.040,0.045
4590,-0.025,0.045
4591,-0.010,0.045
4592,0.000,0.040
4593,0.000,0.035
4594,0.000,0.025
4595,0.020,0.030
4596,0.050,0.020
4597,0.065,0.020
4598,0.100,0.010
4599,0.120,0.015
4600,0.160,0.000
4601,0.190,0.000
4602,0.240,0.000
4603,0.270,0.000
4604,0.330,-0.005
4605,0.350,-0.005
4606,0.370,-0.030
4607,0.370,-0.020
4608,0.375,-0.035
4609,0.355,-0.030
4610,0.340,-0.030
4611,0.275,-0.030
4612,0.240,-0.020
4613,0.170,-0.005
4614,0.115,0.000
4615,0.055,0.000
4616,0.005,0.000
4617,-0.015,0.000
4618,-0.050,0.000
4619,-0.080,0.000
4620,-0.105,0.010
4621,-0.105,0.000
4622,-0.120,0.010
4623,-0.125,0.005
4624,-0.125,0.010
4625,-0.120,0.005
4626,-0.115,0.010
4627,-0.105,0.005
4628,-0.105,0.005
4629,-0.100,0.000
4630,-0.095,0.005
4631,-0.095,0.005
4632,-0.095,0.005
4633,-0.090,0.010
4634,-0.085,0.005
4635,-0.095,0.005
4636,-0.095,0.005
4637,-0.095,0.005
4638,-0.095,0.005
4639,-0.100,0.005
4640,-0.095,0.005
4641,-0.090,0.005
4642,-0.065,0.015
4643,-0.040,0.020
4644,-0.020,0.050
4645,0.000,0.050
4646,0.000,0.045
4647,0.000,0.000
4648,0.000,0.000
4649,0.000,0.000
4650,0.000,0.000
4651,-0.015,0.000
4652,-0.080,0.000
4653,-0.090,0.000
4654,-0.120,0.000
4655,-0.115,0.000
4656,-0.120,0.000
4657,-0.100,0.000
4658,-0.110,0.030
4659,-0.135,0.130
4660,-0.100,0.155
4661,0.205,0.045
4662,0.925,-0.430
4663,1.115,-0.780
4664,0.220,-0.585
4665,-0.405,-0.365
4666,-0.405,-0.200
4667,-0.240,-0.050
4668,-0.145,0.020
4669,-0.115,0.050
4670,-0.100,0.065
4671,-0.095,0.070
4672,-0.090,0.075
4673,-0.085,0.075
4674,-0.075,0.075
4675,-0.065,0.070
4676,-0.055,0.065
4677,-0.045,0.060
4678,-0.035,0.065
4679,-0.020,0.050
4680,-0.015,0.060
4681,0.000,0.045
4682,0.000,0.045
4683,0.000,0.025
4684,0.010,0.030
4685,0.040,0.020
4686,0.055,0.020
4687,0.090,0.010
4688,0.110,0.005
4689,0.155,0.000
4690,0.180,0.000
4691,0.230,0.000
4692,0.275,0.000
4693,0.315,-0.005
4694,0.345,-0.010
4695,0.355,-0.010
4696,0.365,-0.025
4697,0.365,-0.020
4698,0.345,-0.030
4699,0.325,-0.015
4700,0.290,-0.030
4701,0.220,-0.010
4702,0.185,-0.005
4703,0.115,0.000
4704,0.065,0.000
4705,0.015,0.005
4706,-0.010,0.000
4707,-0.055,0.010
4708,-0.075,0.010
4709,-0.100,0.010
4710,-0.105,0.005
4711,-0.125,0.005
4712,-0.130,0.005
4713,-0.135,0.005
4714,-0.135,0.005
4715,-0.130,0.005
4716,-0.130,0.005
4717,-0.120,0.005
4718,-0.110,0.010
4719,-0.100,0.005
4720,-0.095,0.005
4721,-0.095,0.010
4722,-0.095,0.005
4723,-0.095,0.010
4724,-0.100,0.005
4725,-0.100,0.010
4726,-0.095,0.000
4727,-0.100,0.015
4728,-0.095,0.000
4729,-0.110,0.015
4730,-0.095,0.000
4731,-0.095,0.015
4732,-0.060,0.015
4733,-0.040,0.050
4734,0.000,0.050
4735,-0.005,0.050
4736,0.000,0.015
4737,0.000,0.000
4738,0.000,0.000
4739,-0.010,0.000
4740,-0.015,0.000
4741,-0.065,0.000
4742,-0.090,0.000
4743,-0.110,0.000
4744,-0.120,0.005
4745,-0.125,0.005
4746,-0.115,0.005
4747,-0.105,0.015
4748,-0.130,0.095
4749,-0.125,0.150
4750,0.060,0.110
4751,0.655,-0.250
4752,1.210,-0.715
4753,0.570,-0.665
4754,-0.320,-0.390
4755,-0.490,-0.215
4756,-0.315,-0.070
4757,-0.175,0.015
4758,-0.130,0.050
4759,-0.120,0.070
4760,-0.105,0.070
4761,-0.105,0.075
4762,-0.095,0.075
4763,-0.085,0.080
4764,-0.075,0.075
4765,-0.075,0.075
4766,-0.060,0.070
4767,-0.050,0.070
4768,-0.040,0.065
4769,-0.040,0.060
4770,-0.015,0.045
4771,0.000,0.045
4772,0.000,0.045
4773,0.000,0.020
4774,0.020,0.030
4775,0.050,0.020
4776,0.065,0.020
4777,0.100,0.000
4778,0.135,0.010
4779,0.180,0.000
4780,0.210,0.000
4781,0.260,0.000
4782,0.300,0.000
4783,0.340,-0.005
4784,0.355,0.000
4785,0.370,-0.015
4786,0.355,-0.015
4787,0.360,-0.030
4788,0.330,-0.015
4789,0.315,-0.010
4790,0.265,-0.005
4791,0.205,0.000
4792,0.135,0.000
4793,0.070,0.000
4794,0.015,0.000
4795,-0.020,0.005
4796,-0.055,0.010
4797,-0.085,0.010
4798,-0.110,0.005
4799,-0.135,0.010
4800,-0.145,0.010
4801,-0.145,0.005
4802,-0.145,0.010
4803,-0.145,0.005
4804,-0.145,0.010
4805,-0.145,0.005
4806,-0.135,0.005
4807,-0.125,0.005
4808,-0.125,0.010
4809,-0.100,0.000
4810,-0.105,0.010
4811,-0.095,0.005
4812,-0.110,0.010
4813,-0.095,0.005
4814,-0.115,0.010
4815,-0.100,0.010
4816,-0.120,0.010
4817,-0.105,0.010
4818,-0.115,0.010
4819,-0.105,0.010
4820,-0.100,0.015
4821,-0.070,0.030
4822,-0.045,0.040
4823,-0.025,0.060
4824,-0.020,0.045
4825,-0.015,0.025
4826,0.000,0.000
4827,0.000,0.000
4828,-0.010,0.000
4829,-0.035,0.000
4830,-0.065,0.000
4831,-0.105,0.005
4832,-0.120,0.000
4833,-0.135,0.010
4834,-0.130,0.005
4835,-0.135,0.005
4836,-0.125,0.005
4837,-0.140,0.080
4838,-0.145,0.150
4839,0.015,0.120
4840,0.580,-0.195
4841,1.215,-0.680
4842,0.745,-0.715
4843,-0.250,-0.415
4844,-0.525,-0.225
4845,-0.350,-0.080
4846,-0.195,0.015
4847,-0.145,0.050
4848,-0.130,0.075
4849,-0.115,0.080
4850,-0.105,0.075
4851,-0.100,0.080
4852,-0.090,0.075
4853,-0.090,0.080
4854,-0.090,0.070
4855,-0.080,0.075
4856,-0.045,0.070
4857,-0.055,0.075
4858,-0.040,0.050
4859,-0.035,0.060
4860,0.000,0.035
4861,0.000,0.050
4862,0.000,0.030
4863,0.005,0.035
4864,0.050,0.025
4865,0.060,0.030
4866,0.105,0.015
4867,0.125,0.015
4868,0.175,0.005
4869,0.205,0.000
4870,0.255,0.000
4871,0.295,0.000
4872,0.335,0.000
4873,0.360,0.000
4874,0.380,-0.005
4875,0.375,-0.010
4876,0.365,-0.005
4877,0.340,-0.010
4878,0.305,-0.015
4879,0.265,-0.015
4880,0.200,-0.005
4881,0.135,0.000
4882,0.075,0.000
4883,0.025,0.000
4884,-0.015,0.005
4885,-0.050,0.000
4886,-0.085,0.005
4887,-0.115,0.005
4888,-0.130,0.005
4889,-0.145,0.010
4890,-0.145,0.005
4891,-0.145,0.010
4892,-0.145,0.005
4893,-0.145,0.010
4894,-0.140,0.010
4895,-0.125,0.010
4896,-0.115,0.010
4897,-0.110,0.010
4898,-0.100,0.010
4899,-0.095,0.010
4900,-0.095,0.010
4901,-0.100,0.010
4902,-0.100,0.010
4903,-0.100,0.005
4904,-0.110,0.010
4905,-0.100,0.005
4906,-0.110,0.015
4907,-0.105,0.010
4908,-0.110,0.015
4909,-0.100,0.010
4910,-0.090,0.030
4911,-0.045,0.035
4912,-0.040,0.070
4913,-0.010,0.045
4914,-0.015,0.025
4915,0.000,0.000
4916,0.000,0.000
4917,-0.005,0.000
4918,-0.035,0.000
4919,-0.070,0.000
4920,-0.110,0.005
4921,-0.125,0.005
4922,-0.135,0.005
4923,-0.130,0.005
4924,-0.125,0.000
4925,-0.130,0.010
4926,-0.140,0.090
4927,-0.135,0.155
4928,0.055,0.100
4929,0.630,-0.230
4930,1.190,-0.695
4931,0.705,-0.710
4932,-0.310,-0.390
4933,-0.520,-0.220
4934,-0.325,-0.065
4935,-0.170,0.020
4936,-0.135,0.060
4937,-0.120,0.060
4938,-0.110,0.080
4939,-0.095,0.070
4940,-0.090,0.080
4941,-0.090,0.075
4942,-0.085,0.080
4943,-0.065,0.075
4944,-0.065,0.070
4945,-0.045,0.050
4946,-0.040,0.050
4947,-0.030,0.050
4948,-0.015,0.045
4949,0.000,0.040
4950,0.000,0.030
4951,0.000,0.030
4952,0.020,0.025
4953,0.050,0.020
4954,0.085,0.010
4955,0.110,0.010
4956,0.140,0.000
4957,0.175,0.005
4958,0.225,0.000
4959,0.255,0.000
4960,0.310,0.000
4961,0.335,0.000
4962,0.365,-0.010
4963,0.370,-0.005
4964,0.375,-0.020
4965,0.365,-0.020
4966,0.340,-0.025
4967,0.295,-0.025
4968,0.260,-0.020
4969,0.200,-0.005
4970,0.135,0.000
4971,0.075,0.000
4972,0.020,0.000
4973,-0.015,0.000
4974,-0.045,0.005
4975,-0.080,0.005
4976,-0.110,0.005
4977,-0.125,0.005
4978,-0.140,0.005
4979,-0.145,0.010
4980,-0.145,0.010
4981,-0.145,0.015
4982,-0.140,0.005
4983,-0.130,0.015
4984,-0.115,0.005
4985,-0.115,0.015
4986,-0.095,0.000
4987,-0.095,0.015
4988,-0.095,0.000
4989,-0.095,0.015
4990,-0.095,0.000
4991,-0.110,0.015
4992,-0.095,0.005
4993,-0.110,0.010
4994,-0.095,0.005
4995,-0.110,0.010
4996,-0.095,0.005
4997,-0.095,0.010
4998,-0.085,0.015
4999,-0.065,0.030
5000,-0.025,0.050
5001,-0.010,0.065
5002,0.000,0.050
5003,0.000,0.015
5004,0.000,0.005
5005,0.000,0.000
5006,-0.010,0.000
5007,-0.035,0.000
5008,-0.075,0.000
5009,-0.100,0.000
5010,-0.125,0.005
5011,-0.125,0.005
5012,-0.125,0.005
5013,-0.115,0.000
5014,-0.120,0.035
5015,-0.145,0.115
5016,-0.095,0.155
5017,0.180,0.035
5018,0.840,-0.365
5019,1.160,-0.755
5020,0.375,-0.625
5021,-0.450,-0.325
5022,-0.470,-0.190
5023,-0.270,-0.035
5024,-0.150,0.025
5025,-0.130,0.070
5026,-0.100,0.070
5027,-0.095,0.075
5028,-0.095,0.075
5029,-0.090,0.075
5030,-0.080,0.075
5031,-0.070,0.065
5032,-0.060,0.070
5033,-0.050,0.045
5034,-0.045,0.050
5035,-0.025,0.040
5036,-0.025,0.050
5037,0.000,0.035
5038,0.000,0.040
5039,0.000,0.025
5040,0.005,0.035
5041,0.040,0.020
5042,0.050,0.020
5043,0.095,0.005
5044,0.120,0.005
5045,0.160,0.000
5046,0.185,0.000
5047,0.225,0.000
5048,0.265,0.000
5049,0.315,0.000
5050,0.345,0.000
5051,0.370,-0.005
5052,0.375,-0.015
5053,0.370,-0.020
5054,0.350,-0.025
5055,0.325,-0.020
5056,0.295,-0.025
5057,0.245,-0.020
5058,0.185,-0.010
5059,0.125,-0.005
5060,0.065,0.000
5061,0.015,0.000
5062,-0.005,0.000
5063,-0.040,0.000
5064,-0.075,0.000
5065,-0.095,0.000
5066,-0.120,0.005
5067,-0.125,0.000
5068,-0.135,0.010
5069,-0.120,0.000
5070,-0.135,0.010
5071,-0.120,0.005
5072,-0.135,0.010
5073,-0.120,0.005
5074,-0.115,0.010
5075,-0.095,0.005
5076,-0.095,0.010
5077,-0.095,0.010
5078,-0.095,0.010
5079,-0.095,0.010
5080,-0.095,0.005
5081,-0.095,0.005
5082,-0.095,0.005
5083,-0.100,0.010
5084,-0.100,0.005
5085,-0.095,0.010
5086,-0.095,0.005
5087,-0.090,0.020
5088,-0.055,0.025
5089,-0.035,0.050
5090,-0.010,0.055
5091,0.000,0.045
5092,0.000,0.015
5093,0.000,0.000
5094,0.000,0.000
5095,-0.005,0.000
5096,-0.025,0.000
5097,-0.060,0.000
5098,-0.090,0.000
5099,-0.105,0.000
5100,-0.110,0.005
5101,-0.105,0.005
5102,-0.105,0.005
5103,-0.100,0.035
5104,-0.125,0.120
5105,-0.095,0.165
5106,0.170,0.040
5107,0.805,-0.330
5108,1.180,-0.770
5109,0.360,-0.630
5110,-0.415,-0.345
5111,-0.435,-0.205
5112,-0.245,-0.040
5113,-0.140,0.025
5114,-0.110,0.045
5115,-0.100,0.075
5116,-0.095,0.070
5117,-0.090,0.080
5118,-0.070,0.065
5119,-0.070,0.080
5120,-0.060,0.065
5121,-0.060,0.080
5122,-0.040,0.055
5123,-0.040,0.065
5124,-0.010,0.045
5125,-0.015,0.050
5126,0.000,0.050
5127,0.000,0.050
5128,0.005,0.045
5129,0.010,0.040
5130,0.040,0.030
5131,0.050,0.030
5132,0.080,0.030
5133,0.110,0.015
5134,0.145,0.010
5135,0.185,0.005
5136,0.230,0.000
5137,0.270,0.000
5138,0.300,0.000
5139,0.335,-0.005
5140,0.355,0.000
5141,0.360,-0.005
5142,0.355,-0.010
5143,0.340,-0.015
5144,0.320,-0.020
5145,0.290,-0.015
5146,0.250,-0.010
5147,0.185,0.000
5148,0.130,0.000
5149,0.070,0.000
5150,0.025,0.000
5151,-0.005,0.005
5152,-0.035,0.005
5153,-0.075,0.015
5154,-0.095,0.015
5155,-0.115,0.015
5156,-0.115,0.010
5157,-0.130,0.010
5158,-0.130,0.010
5159,-0.135,0.010
5160,-0.130,0.020
5161,-0.125,0.010
5162,-0.115,0.015
5163,-0.100,0.010
5164,-0.110,0.020
5165,-0.095,0.005
5166,-0.095,0.015
5167,-0.100,0.005
5168,-0.100,0.020
5169,-0.095,0.010
5170,-0.100,0.015
5171,-0.095,0.005
5172,-0.095,0.020
5173,-0.095,0.005
5174,-0.100,0.015
5175,-0.095,0.010
5176,-0.095,0.020
5177,-0.060,0.030
5178,-0.035,0.050
5179,-0.010,0.070
5180,0.000,0.065
5181,0.000,0.035
5182,0.000,0.005
5183,0.000,0.000
5184,-0.005,0.000
5185,-0.020,0.000
5186,-0.050,0.005
5187,-0.080,0.005
5188,-0.100,0.010
5189,-0.115,0.005
5190,-0.115,0.005
5191,-0.105,0.005
5192,-0.110,0.025
5193,-0.115,0.085
5194,-0.115,0.170
5195,0.065,0.095
5196,0.600,-0.190
5197,1.205,-0.725
5198,0.630,-0.715
5199,-0.360,-0.385
5200,-0.515,-0.240
5201,-0.300,-0.060
5202,-0.170,0.030
5203,-0.120,0.045
5204,-0.115,0.080
5205,-0.100,0.075
5206,-0.100,0.075
5207,-0.095,0.075
5208,-0.095,0.075
5209,-0.085,0.075
5210,-0.075,0.070
5211,-0.060,0.070
5212,-0.045,0.055
5213,-0.040,0.070
5214,-0.025,0.050
5215,-0.020,0.050
5216,-0.005,0.040
5217,0.000,0.040
5218,0.000,0.030
5219,0.015,0.035
5220,0.045,0.025
5221,0.070,0.025
5222,0.105,0.015
5223,0.130,0.010
5224,0.165,0.005
5225,0.200,0.000
5226,0.245,0.000
5227,0.290,0.000
5228,0.320,0.000
5229,0.340,0.000
5230,0.345,-0.005
5231,0.355,-0.010
5232,0.335,-0.020
5233,0.320,-0.025
5234,0.290,-0.015
5235,0.240,-0.010
5236,0.190,-0.005
5237,0.130,0.000
5238,0.070,0.000
5239,0.020,0.000
5240,-0.020,0.000
5241,-0.045,0.010
5242,-0.075,0.005
5243,-0.120,0.015
5244,-0.125,0.010
5245,-0.145,0.020
5246,-0.145,0.010
5247,-0.145,0.015
5248,-0.145,0.015
5249,-0.145,0.020
5250,-0.145,0.005
5251,-0.145,0.020
5252,-0.120,0.005
5253,-0.135,0.015
5254,-0.115,0.015
5255,-0.115,0.015
5256,-0.100,0.010
5257,-0.110,0.010
5258,-0.095,0.015
5259,-0.100,0.015
5260,-0.105,0.010
5261,-0.105,0.010
5262,-0.110,0.025
5263,-0.105,0.020
5264,-0.110,0.025
5265,-0.105,0.020
5266,-0.090,0.025
5267,-0.065,0.040
5268,-0.040,0.060
5269,-0.015,0.065
5270,-0.005,0.055
5271,-0.005,0.025
5272,0.000,0.005
5273,0.000,0.005
5274,-0.015,0.000
5275,-0.050,0.000
5276,-0.080,0.005
5277,-0.115,0.010
5278,-0.125,0.005
5279,-0.135,0.010
5280,-0.130,0.005
5281,-0.135,0.010
5282,-0.110,0.030
5283,-0.140,0.120
5284,-0.115,0.170
5285,0.140,0.065
5286,0.825,-0.340
5287,1.415,-0.860
5288,0.295,-0.605
5289,-0.550,-0.320
5290,-0.475,-0.160
5291,-0.250,-0.015
5292,-0.145,0.035
5293,-0.125,0.045
5294,-0.125,0.080
5295,-0.095,0.065
5296,-0.100,0.080
5297,-0.095,0.070
5298,-0.090,0.080
5299,-0.070,0.070
5300,-0.080,0.080
5301,-0.050,0.065
5302,-0.045,0.070
5303,-0.030,0.055
5304,-0.030,0.060
5305,-0.010,0.050
5306,0.000,0.050
5307,0.005,0.045
5308,0.015,0.040
5309,0.040,0.030
5310,0.065,0.025
5311,0.095,0.025
5312,0.130,0.020
5313,0.160,0.015
5314,0.195,0.010
5315,0.230,0.005
5316,0.275,0.000
5317,0.320,0.000
5318,0.350,0.000
5319,0.370,0.000
5320,0.370,0.000
5321,0.370,-0.010
5322,0.355,-0.005
5323,0.335,-0.015
5324,0.295,-0.005
5325,0.260,-0.010
5326,0.190,0.000
5327,0.135,0.000
5328,0.060,0.000
5329,0.020,0.000
5330,-0.015,0.005
5331,-0.045,0.005
5332,-0.090,0.005
5333,-0.100,0.005
5334,-0.135,0.010
5335,-0.140,0.015
5336,-0.145,0.015
5337,-0.145,0.015
5338,-0.145,0.010
5339,-0.140,0.015
5340,-0.140,0.010
5341,-0.130,0.010
5342,-0.120,0.005
5343,-0.120,0.010
5344,-0.105,0.005
5345,-0.100,0.015
5346,-0.100,0.005
5347,-0.110,0.015
5348,-0.105,0.010
5349,-0.110,0.010
5350,-0.105,0.010
5351,-0.110,0.015
5352,-0.110,0.015
5353,-0.115,0.020
5354,-0.110,0.020
5355,-0.100,0.020
5356,-0.085,0.030
5357,-0.055,0.045
5358,-0.025,0.060
5359,-0.005,0.055
5360,-0.005,0.040
5361,0.000,0.010
5362,0.000,0.005
5363,-0.005,0.005
5364,-0.030,0.000
5365,-0.055,0.005
5366,-0.100,0.005
5367,-0.120,0.010
5368,-0.130,0.005
5369,-0.125,0.010
5370,-0.125,0.005
5371,-0.125,0.010
5372,-0.120,0.055
5373,-0.145,0.175
5374,-0.040,0.135
5375,0.425,-0.055
5376,1.335,-0.715
5377,1.000,-0.810
5378,-0.290,-0.425
5379,-0.565,-0.245
5380,-0.350,-0.085
5381,-0.190,0.010
5382,-0.130,0.040
5383,-0.120,0.070
5384,-0.105,0.070
5385,-0.110,0.075
5386,-0.095,0.075
5387,-0.095,0.075
5388,-0.085,0.075
5389,-0.085,0.070
5390,-0.070,0.070
5391,-0.050,0.060
5392,-0.045,0.060
5393,-0.040,0.050
5394,-0.030,0.050
5395,-0.010,0.045
5396,0.000,0.045
5397,0.005,0.035
5398,0.015,0.030
5399,0.040,0.030
5400,0.070,0.020
5401,0.100,0.020
5402,0.140,0.010
5403,0.170,0.010
5404,0.210,0.000
5405,0.245,0.000
5406,0.295,0.000
5407,0.325,0.000
5408,0.365,0.000
5409,0.370,0.000
5410,0.365,-0.010
5411,0.355,-0.005
5412,0.340,-0.010
5413,0.310,-0.010
5414,0.280,-0.005
5415,0.220,0.000
5416,0.155,0.000
5417,0.085,0.000
5418,0.030,0.000
5419,0.000,0.000
5420,-0.040,0.005
5421,-0.065,0.005
5422,-0.100,0.010
5423,-0.115,0.000
5424,-0.140,0.015
5425,-0.145,0.005
5426,-0.145,0.015
5427,-0.145,0.000
5428,-0.145,0.015
5429,-0.130,0.005
5430,-0.140,0.015
5431,-0.115,0.005
5432,-0.115,0.010
5433,-0.105,0.005
5434,-0.110,0.010
5435,-0.105,0.010
5436,-0.105,0.005
5437,-0.105,0.010
5438,-0.100,0.010
5439,-0.105,0.010
5440,-0.110,0.010
5441,-0.115,0.010
5442,-0.115,0.010
5443,-0.110,0.010
5444,-0.105,0.010
5445,-0.100,0.010
5446,-0.075,0.025
5447,-0.040,0.040
5448,-0.025,0.060
5449,-0.010,0.045
5450,-0.010,0.025
5451,0.000,0.000
5452,0.000,0.000
5453,-0.005,0.000
5454,-0.045,0.000
5455,-0.065,0.000
5456,-0.105,0.005
5457,-0.120,0.000
5458,-0.140,0.010
5459,-0.120,0.000
5460,-0.135,0.005
5461,-0.105,0.005
5462,-0.135,0.085
5463,-0.140,0.170
5464,0.000,0.125
5465,0.575,-0.180
5466,1.385,-0.770
5467,0.685,-0.710
5468,-0.335,-0.405
5469,-0.505,-0.235
5470,-0.315,-0.070
5471,-0.170,0.010
5472,-0.125,0.040
5473,-0.120,0.060
5474,-0.100,0.055
5475,-0.095,0.070
5476,-0.090,0.070
5477,-0.090,0.070
5478,-0.070,0.070
5479,-0.060,0.070
5480,-0.050,0.055
5481,-0.045,0.055
5482,-0.030,0.050
5483,-0.020,0.045
5484,-0.010,0.045
5485,0.000,0.040
5486,0.000,0.030
5487,0.010,0.025
5488,0.030,0.030
5489,0.060,0.025
5490,0.075,0.020
5491,0.110,0.010
5492,0.135,0.010
5493,0.180,0.005
5494,0.210,0.000
5495,0.260,0.000
5496,0.305,0.000
5497,0.340,0.000
5498,0.370,-0.005
5499,0.375,0.000
5500,0.370,-0.015
5501,0.355,-0.005
5502,0.350,-0.030
5503,0.310,-0.015
5504,0.290,-0.035
5505,0.215,0.000
5506,0.175,-0.010
5507,0.095,0.000
5508,0.050,0.000
5509,0.005,0.000
5510,-0.010,0.000
5511,-0.060,0.000
5512,-0.085,0.000
5513,-0.105,0.005
5514,-0.115,0.005
5515,-0.130,0.005
5516,-0.125,0.010
5517,-0.135,0.010
5518,-0.125,0.010
5519,-0.125,0.010
5520,-0.115,0.010
5521,-0.105,0.005
5522,-0.105,0.005
5523,-0.100,0.005
5524,-0.100,0.010
5525,-0.100,0.005
5526,-0.100,0.005
5527,-0.100,0.005
5528,-0.095,0.005
5529,-0.095,0.010
5530,-0.100,0.005
5531,-0.105,0.010
5532,-0.100,0.005
5533,-0.105,0.010
5534,-0.095,0.000
5535,-0.095,0.010
5536,-0.065,0.015
5537,-0.040,0.035
5538,-0.015,0.045
5539,-0.010,0.050
5540,0.000,0.025
5541,0.000,0.000
5542,0.000,0.000
5543,0.000,0.000
5544,0.000,0.000
5545,-0.045,0.000
5546,-0.095,0.000
5547,-0.110,0.000
5548,-0.120,0.000
5549,-0.125,0.000
5550,-0.115,0.000
5551,-0.100,0.000
5552,-0.115,0.060
5553,-0.140,0.140
5554,-0.040,0.130
5555,0.425,-0.090
5556,1.190,-0.645
5557,0.840,-0.760
5558,-0.120,-0.480
5559,-0.475,-0.310
5560,-0.355,-0.135
5561,-0.195,-0.020
5562,-0.135,0.020
5563,-0.105,0.035
5564,-0.100,0.045
5565,-0.095,0.045
5566,-0.090,0.050
5567,-0.080,0.050
5568,-0.075,0.050
5569,-0.065,0.050
5570,-0.060,0.045
5571,-0.050,0.045
5572,-0.035,0.045
5573,-0.025,0.040
5574,-0.010,0.035
5575,0.000,0.030
5576,-0.005,0.030
5577,0.000,0.025
5578,0.020,0.030
5579,0.050,0.020
5580,0.060,0.015
5581,0.100,0.000
5582,0.110,0.010
5583,0.155,0.000
5584,0.180,0.000
5585,0.240,0.000
5586,0.255,0.000
5587,0.315,-0.010
5588,0.325,-0.010
5589,0.360,-0.015
5590,0.355,-0.015
5591,0.355,-0.030
5592,0.330,-0.030
5593,0.325,-0.030
5594,0.270,-0.030
5595,0.230,-0.015
5596,0.170,-0.010
5597,0.110,0.000
5598,0.045,0.000
5599,0.005,0.000
5600,-0.015,0.000
5601,-0.050,0.010
5602,-0.075,0.005
5603,-0.095,0.010
5604,-0.100,0.005
5605,-0.120,0.010
5606,-0.125,0.005
5607,-0.130,0.010
5608,-0.125,0.005
5609,-0.130,0.010
5610,-0.115,0.005
5611,-0.105,0.005
5612,-0.105,0.010
5613,-0.100,0.005
5614,-0.105,0.010
5615,-0.095,0.005
5616,-0.095,0.010
5617,-0.100,0.010
5618,-0.110,0.010
5619,-0.100,0.010
5620,-0.100,0.010
5621,-0.095,0.010
5622,-0.095,0.010
5623,-0.095,0.010
5624,-0.090,0.010
5625,-0.085,0.015
5626,-0.065,0.015
5627,-0.035,0.040
5628,0.000,0.050
5629,0.000,0.075
5630,0.000,0.035
5631,0.000,0.010
5632,0.000,0.000
5633,0.000,0.000
5634,0.000,0.000
5635,-0.035,0.000
5636,-0.060,0.000
5637,-0.100,0.005
5638,-0.100,0.000
5639,-0.125,0.005
5640,-0.105,0.000
5641,-0.110,0.000
5642,-0.100,0.040
5643,-0.135,0.140
5644,-0.065,0.140
5645,0.295,-0.015
5646,1.040,-0.520
5647,0.980,-0.770
5648,0.080,-0.565
5649,-0.445,-0.355
5650,-0.385,-0.185
5651,-0.210,-0.040
5652,-0.130,0.020
5653,-0.105,0.045
5654,-0.100,0.050
5655,-0.100,0.055
5656,-0.090,0.055
5657,-0.080,0.060
5658,-0.075,0.055
5659,-0.070,0.055
5660,-0.045,0.055
5661,-0.045,0.060
5662,-0.040,0.050
5663,-0.035,0.055
5664,-0.015,0.045
5665,-0.015,0.045
5666,0.000,0.030
5667,0.000,0.035
5668,0.015,0.030
5669,0.025,0.025
5670,0.060,0.020
5671,0.080,0.015
5672,0.115,0.010
5673,0.150,0.005
5674,0.180,0.000
5675,0.210,0.000
5676,0.255,0.000
5677,0.295,0.000
5678,0.320,-0.005
5679,0.345,-0.010
5680,0.335,-0.010
5681,0.335,-0.030
5682,0.325,-0.020
5683,0.305,-0.030
5684,0.260,-0.015
5685,0.215,-0.025
5686,0.150,-0.005
5687,0.110,0.000
5688,0.045,0.000
5689,0.005,0.000
5690,-0.035,0.000
5691,-0.065,0.000
5692,-0.090,0.005
5693,-0.110,0.005
5694,-0.130,0.005
5695,-0.145,0.005
5696,-0.145,0.005
5697,-0.145,0.005
5698,-0.145,0.005
5699,-0.140,0.005
5700,-0.140,0.005
5701,-0.135,0.005
5702,-0.130,0.010
5703,-0.125,0.005
5704,-0.120,0.010
5705,-0.120,0.005
5706,-0.120,0.010
5707,-0.120,0.005
5708,-0.125,0.015
5709,-0.120,0.000
5710,-0.120,0.015
5711,-0.110,0.000
5712,-0.135,0.015
5713,-0.105,0.000
5714,-0.125,0.015
5715,-0.105,0.005
5716,-0.115,0.020
5717,-0.080,0.020
5718,-0.065,0.040
5719,-0.025,0.040
5720,-0.025,0.060
5721,0.000,0.025
5722,0.000,0.005
5723,0.000,0.005
5724,-0.005,0.000
5725,-0.030,0.000
5726,-0.055,0.000
5727,-0.085,0.000
5728,-0.115,0.005
5729,-0.125,0.005
5730,-0.125,0.000
5731,-0.125,0.005
5732,-0.115,0.005
5733,-0.130,0.065
5734,-0.140,0.145
5735,-0.045,0.145
5736,0.385,-0.075
5737,1.100,-0.565
5738,0.960,-0.760
5739,0.000,-0.505
5740,-0.495,-0.270
5741,-0.385,-0.120
5742,-0.215,0.000
5743,-0.135,0.040
5744,-0.115,0.070
5745,-0.105,0.070
5746,-0.110,0.075
5747,-0.095,0.075
5748,-0.090,0.075
5749,-0.085,0.075
5750,-0.080,0.075
5751,-0.060,0.070
5752,-0.055,0.065
5753,-0.045,0.065
5754,-0.030,0.050
5755,-0.015,0.060
5756,0.000,0.045
5757,0.000,0.050
5758,0.000,0.035
5759,0.010,0.035
5760,0.050,0.020
5761,0.050,0.030
5762,0.095,0.010
5763,0.110,0.020
5764,0.160,0.005
5765,0.185,0.010
5766,0.240,0.000
5767,0.270,0.000
5768,0.320,0.000
5769,0.345,0.000
5770,0.365,-0.005
5771,0.365,-0.005
5772,0.360,-0.010
5773,0.335,-0.015
5774,0.325,-0.015
5775,0.280,-0.020
5776,0.230,-0.015
5777,0.175,-0.005
5778,0.115,0.000
5779,0.055,0.000
5780,0.010,0.000
5781,-0.020,0.000
5782,-0.065,0.000
5783,-0.100,0.005
5784,-0.125,0.010
5785,-0.140,0.010
5786,-0.140,0.010
5787,-0.145,0.010
5788,-0.145,0.005
5789,-0.145,0.015
5790,-0.145,0.005
5791,-0.135,0.010
5792,-0.130,0.000
5793,-0.135,0.010
5794,-0.115,0.005
5795,-0.115,0.010
5796,-0.100,0.005
5797,-0.115,0.010
5798,-0.100,0.005
5799,-0.110,0.010
5800,-0.100,0.010
5801,-0.115,0.010
5802,-0.105,0.010
5803,-0.120,0.010
5804,-0.125,0.010
5805,-0.125,0.005
5806,-0.120,0.015
5807,-0.095,0.015
5808,-0.075,0.035
5809,-0.045,0.045
5810,-0.040,0.070
5811,-0.015,0.030
5812,-0.020,0.010
5813,-0.005,0.000
5814,-0.010,0.000
5815,-0.030,0.000
5816,-0.060,0.000
5817,-0.090,0.000
5818,-0.125,0.005
5819,-0.145,0.005
5820,-0.145,0.005
5821,-0.135,0.005
5822,-0.135,0.005
5823,-0.140,0.040
5824,-0.155,0.125
5825,-0.100,0.155
5826,0.230,0.005
5827,0.935,-0.440
5828,1.145,-0.785
5829,0.240,-0.600
5830,-0.500,-0.315
5831,-0.460,-0.155
5832,-0.250,-0.015
5833,-0.150,0.025
5834,-0.135,0.050
5835,-0.125,0.055
5836,-0.120,0.075
5837,-0.100,0.065
5838,-0.110,0.070
5839,-0.095,0.050
5840,-0.090,0.075
5841,-0.070,0.050
5842,-0.080,0.060
5843,-0.050,0.045
5844,-0.045,0.060
5845,-0.025,0.045
5846,-0.035,0.045
5847,0.000,0.035
5848,0.000,0.040
5849,0.010,0.025
5850,0.020,0.025
5851,0.055,0.020
5852,0.075,0.015
5853,0.105,0.010
5854,0.140,0.005
5855,0.185,0.005
5856,0.235,0.000
5857,0.275,0.000
5858,0.310,0.000
5859,0.335,0.000
5860,0.355,-0.005
5861,0.370,-0.005
5862,0.370,-0.020
5863,0.345,-0.020
5864,0.320,-0.025
5865,0.285,-0.020
5866,0.240,-0.015
5867,0.190,-0.010
5868,0.125,0.000
5869,0.065,0.000
5870,0.010,0.000
5871,-0.015,0.000
5872,-0.050,0.005
5873,-0.085,0.005
5874,-0.120,0.010
5875,-0.125,0.005
5876,-0.145,0.010
5877,-0.145,0.010
5878,-0.145,0.010
5879,-0.145,0.010
5880,-0.140,0.010
5881,-0.125,0.010
5882,-0.115,0.010
5883,-0.100,0.010
5884,-0.100,0.010
5885,-0.095,0.010
5886,-0.095,0.010
5887,-0.100,0.015
5888,-0.100,0.010
5889,-0.110,0.015
5890,-0.100,0.010
5891,-0.115,0.015
5892,-0.100,0.005
5893,-0.120,0.015
5894,-0.115,0.015
5895,-0.120,0.015
5896,-0.105,0.005
5897,-0.115,0.020
5898,-0.080,0.020
5899,-0.055,0.045
5900,-0.020,0.060
5901,-0.015,0.065
5902,-0.005,0.030
5903,0.000,0.005
5904,0.000,0.005
5905,-0.005,0.000
5906,-0.025,0.000
5907,-0.055,0.000
5908,-0.095,0.005
5909,-0.125,0.005
5910,-0.140,0.005
5911,-0.135,0.005
5912,-0.130,0.000
5913,-0.125,0.010
5914,-0.130,0.055
5915,-0.135,0.140
5916,-0.035,0.135
5917,0.395,-0.070
5918,1.090,-0.575
5919,1.055,-0.805
5920,-0.110,-0.480
5921,-0.560,-0.260
5922,-0.390,-0.115
5923,-0.205,0.000
5924,-0.130,0.025
5925,-0.135,0.055
5926,-0.100,0.055
5927,-0.110,0.065
5928,-0.095,0.065
5929,-0.090,0.065
5930,-0.085,0.060
5931,-0.085,0.055
5932,-0.070,0.070
5933,-0.065,0.050
5934,-0.050,0.050
5935,-0.045,0.045
5936,-0.040,0.045
5937,-0.010,0.035
5938,-0.010,0.040
5939,0.000,0.020
5940,0.005,0.025
5941,0.040,0.010
5942,0.050,0.015
5943,0.085,0.005
5944,0.115,0.010
5945,0.150,0.005
5946,0.185,0.000
5947,0.235,0.000
5948,0.270,0.000
5949,0.310,-0.005
5950,0.345,0.000
5951,0.360,-0.005
5952,0.365,-0.010
5953,0.360,-0.015
5954,0.345,-0.020
5955,0.320,-0.020
5956,0.290,-0.020
5957,0.235,-0.015
5958,0.175,-0.010
5959,0.115,0.000
5960,0.060,0.000
5961,0.010,0.000
5962,-0.015,0.000
5963,-0.055,0.000
5964,-0.095,0.010
5965,-0.110,0.000
5966,-0.140,0.010
5967,-0.140,0.000
5968,-0.145,0.015
5969,-0.145,0.000
5970,-0.140,0.015
5971,-0.120,0.000
5972,-0.135,0.015
5973,-0.120,0.000
5974,-0.120,0.010
5975,-0.095,0.005
5976,-0.115,0.010
5977,-0.100,0.005
5978,-0.110,0.005
5979,-0.105,0.005
5980,-0.110,0.005
5981,-0.115,0.010
5982,-0.120,0.010
5983,-0.115,0.010
5984,-0.125,0.005
5985,-0.120,0.005
5986,-0.120,0.000
5987,-0.120,0.005
5988,-0.105,0.005
5989,-0.095,0.010
5990,-0.060,0.020
5991,-0.035,0.045
5992,-0.020,0.050
5993,-0.015,0.030
5994,-0.005,0.010
5995,0.000,0.000
5996,0.000,0.000
5997,-0.020,0.000
5998,-0.050,0.000
5999,-0.080,0.000
6000,-0.110,0.000
6001,-0.125,0.000
6002,-0.140,0.000
6003,-0.130,0.000
6004,-0.120,0.000
6005,-0.115,0.030
6006,-0.140,0.120
6007,-0.085,0.155
6008,0.200,0.020
6009,0.885,-0.405
6010,1.265,-0.845
6011,0.165,-0.575
6012,-0.510,-0.335
6013,-0.440,-0.180
6014,-0.235,-0.035
6015,-0.135,0.030
6016,-0.120,0.045
6017,-0.105,0.060
6018,-0.095,0.050
6019,-0.100,0.065
6020,-0.085,0.050
6021,-0.090,0.065
6022,-0.070,0.045
6023,-0.070,0.065
6024,-0.045,0.050
6025,-0.045,0.050
6026,-0.030,0.045
6027,-0.030,0.045
6028,-0.005,0.035
6029,0.000,0.035
6030,0.000,0.025
6031,0.000,0.025
6032,0.025,0.020
6033,0.045,0.020
6034,0.080,0.010
6035,0.115,0.010
6036,0.145,0.005
6037,0.180,0.000
6038,0.210,0.000
6039,0.250,0.000
6040,0.290,0.000
6041,0.325,-0.005
6042,0.350,-0.010
6043,0.360,-0.015
6044,0.355,-0.020
6045,0.350,-0.020
6046,0.340,-0.030
6047,0.305,-0.020
6048,0.260,-0.030
6049,0.195,-0.010
6050,0.145,-0.010
6051,0.080,0.000
6052,0.030,0.000
6053,0.000,0.000
6054,-0.030,0.000
6055,-0.075,0.000
6056,-0.090,0.000
6057,-0.105,0.005
6058,-0.115,0.005
6059,-0.125,0.005
6060,-0.130,0.005
6061,-0.130,0.010
6062,-0.120,0.010
6063,-0.120,0.005
6064,-0.105,0.005
6065,-0.100,0.005
6066,-0.100,0.010
6067,-0.095,0.000
6068,-0.100,0.010
6069,-0.095,0.005
6070,-0.100,0.010
6071,-0.095,0.000
6072,-0.100,0.010
6073,-0.095,0.005
6074,-0.105,0.005
6075,-0.100,0.005
6076,-0.105,0.005
6077,-0.100,0.005
6078,-0.100,0.005
6079,-0.095,0.005
6080,-0.090,0.015
6081,-0.060,0.025
6082,-0.025,0.045
6083,-0.010,0.055
6084,0.000,0.040
6085,0.000,0.020
6086,0.000,0.000
6087,0.000,0.000
6088,0.000,0.000
6089,-0.020,0.000
6090,-0.055,0.000
6091,-0.095,0.000
6092,-0.120,0.000
6093,-0.120,0.000
6094,-0.125,0.000
6095,-0.105,0.000
6096,-0.115,0.020
6097,-0.120,0.095
6098,-0.130,0.175
6099,0.075,0.085
6100,0.670,-0.225
6101,1.415,-0.830
6102,0.455,-0.665
6103,-0.400,-0.400
6104,-0.465,-0.240
6105,-0.250,-0.060
6106,-0.150,0.020
6107,-0.110,0.060
6108,-0.110,0.075
6109,-0.090,0.075
6110,-0.090,0.075
6111,-0.085,0.065
6112,-0.085,0.065
6113,-0.065,0.065
6114,-0.060,0.065
6115,-0.045,0.065
6116,-0.040,0.050
6117,-0.035,0.050
6118,-0.010,0.045
6119,0.000,0.050
6120,0.000,0.045
6121,0.000,0.040
6122,0.020,0.025
6123,0.035,0.025
6124,0.050,0.030
6125,0.075,0.020
6126,0.105,0.010
6127,0.140,0.010
6128,0.170,0.010
6129,0.210,0.000
6130,0.245,0.000
6131,0.295,0.000
6132,0.325,0.000
6133,0.355,-0.005
6134,0.365,-0.005
6135,0.365,-0.015
6136,0.355,-0.015
6137,0.340,-0.030
6138,0.305,-0.025
6139,0.265,-0.015
6140,0.205,-0.010
6141,0.155,0.000
6142,0.105,0.000
6143,0.035,0.000
6144,0.005,0.000
6145,-0.015,0.010
6146,-0.040,0.000
6147,-0.090,0.010
6148,-0.095,0.000
6149,-0.125,0.015
6150,-0.125,0.000
6151,-0.140,0.015
6152,-0.125,0.005
6153,-0.140,0.015
6154,-0.125,0.005
6155,-0.125,0.015
6156,-0.110,0.005
6157,-0.115,0.010
6158,-0.100,0.005
6159,-0.100,0.010
6160,-0.100,0.010
6161,-0.100,0.010
6162,-0.105,0.015
6163,-0.110,0.010
6164,-0.105,0.010
6165,-0.110,0.015
6166,-0.115,0.015
6167,-0.115,0.010
6168,-0.120,0.010
6169,-0.115,0.015
6170,-0.115,0.010
6171,-0.110,0.020
6172,-0.085,0.030
6173,-0.055,0.045
6174,-0.025,0.055
6175,-0.025,0.065
6176,0.000,0.025
6177,-0.010,0.010
6178,0.000,0.000
6179,-0.015,0.000
6180,-0.030,0.000
6181,-0.070,0.000
6182,-0.095,0.000
6183,-0.135,0.005
6184,-0.130,0.000
6185,-0.140,0.005
6186,-0.130,0.005
6187,-0.135,0.005
6188,-0.140,0.070
6189,-0.165,0.165
6190,-0.045,0.145
6191,0.430,-0.080
6192,1.255,-0.670
6193,0.810,-0.745
6194,-0.225,-0.430
6195,-0.520,-0.260
6196,-0.375,-0.085
6197,-0.200,0.000
6198,-0.150,0.055
6199,-0.130,0.060
6200,-0.125,0.070
6201,-0.105,0.070
6202,-0.105,0.075
6203,-0.100,0.070
6204,-0.095,0.070
6205,-0.080,0.070
6206,-0.070,0.065
6207,-0.060,0.055
6208,-0.045,0.050
6209,-0.040,0.050
6210,-0.035,0.045
6211,-0.015,0.040
6212,0.000,0.035
6213,0.000,0.035
6214,0.015,0.025
6215,0.035,0.020
6216,0.060,0.020
6217,0.085,0.015
6218,0.115,0.010
6219,0.145,0.005
6220,0.185,0.000
6221,0.230,0.000
6222,0.270,0.000
6223,0.310,0.000
6224,0.335,0.000
6225,0.365,-0.010
6226,0.365,-0.010
6227,0.365,-0.030
6228,0.345,-0.015
6229,0.330,-0.030
6230,0.285,-0.015
6231,0.255,-0.030
6232,0.180,-0.005
6233,0.125,0.000
6234,0.045,0.000
6235,0.005,0.000
6236,-0.030,0.000
6237,-0.055,0.000
6238,-0.095,0.005
6239,-0.110,0.005
6240,-0.130,0.005
6241,-0.140,0.010
6242,-0.140,0.010
6243,-0.145,0.010
6244,-0.145,0.005
6245,-0.140,0.010
6246,-0.130,0.005
6247,-0.125,0.005
6248,-0.120,0.000
6249,-0.115,0.000
6250,-0.105,0.000
6251,-0.105,0.005
6252,-0.105,0.005
6253,-0.105,0.005
6254,-0.110,0.005
6255,-0.105,0.005
6256,-0.120,0.010
6257,-0.115,0.005
6258,-0.120,0.015
6259,-0.125,0.005
6260,-0.130,0.010
6261,-0.115,0.005
6262,-0.110,0.020
6263,-0.080,0.020
6264,-0.055,0.040
6265,-0.025,0.050
6266,-0.020,0.050
6267,0.000,0.020
6268,-0.010,0.000
6269,0.000,0.000
6270,-0.015,0.000
6271,-0.045,0.000
6272,-0.085,0.000
6273,-0.120,0.000
6274,-0.135,0.000
6275,-0.140,0.000
6276,-0.145,0.000
6277,-0.145,0.000
6278,-0.125,0.000
6279,-0.145,0.080
6280,-0.150,0.140
6281,0.005,0.115
6282,0.600,-0.225
6283,1.310,-0.755
6284,0.645,-0.720
6285,-0.305,-0.425
6286,-0.515,-0.235
6287,-0.340,-0.075
6288,-0.190,0.005
6289,-0.145,0.040
6290,-0.130,0.055
6291,-0.125,0.060
6292,-0.110,0.070
6293,-0.105,0.060
6294,-0.100,0.055
6295,-0.095,0.055
6296,-0.090,0.050
6297,-0.075,0.050
6298,-0.060,0.045
6299,-0.050,0.045
6300,-0.040,0.040
6301,-0.030,0.040
6302,-0.015,0.030
6303,-0.005,0.030
6304,0.000,0.020
6305,0.015,0.025
6306,0.050,0.010
6307,0.055,0.015
6308,0.100,0.005
6309,0.115,0.010
6310,0.160,0.000
6311,0.190,0.000
6312,0.250,0.000
6313,0.280,0.000
6314,0.335,-0.005
6315,0.345,-0.005
6316,0.380,-0.015
6317,0.375,-0.020
6318,0.370,-0.025
6319,0.345,-0.030
6320,0.325,-0.030
6321,0.290,-0.030
6322,0.235,-0.015
6323,0.170,-0.010
6324,0.105,0.000
6325,0.045,0.000
6326,0.005,0.000
6327,-0.015,0.000
6328,-0.065,0.000
6329,-0.095,0.000
6330,-0.115,0.005
6331,-0.125,0.000
6332,-0.135,0.005
6333,-0.140,0.005
6334,-0.140,0.005
6335,-0.130,0.000
6336,-0.125,0.005
6337,-0.125,0.005
6338,-0.125,0.000
6339,-0.110,0.005
6340,-0.105,0.005
6341,-0.105,0.005
6342,-0.105,0.005
6343,-0.110,0.010
6344,-0.105,0.010
6345,-0.115,0.010
6346,-0.120,0.005
6347,-0.120,0.005
6348,-0.120,0.005
6349,-0.125,0.005
6350,-0.120,0.005
6351,-0.120,0.005
6352,-0.120,0.015
6353,-0.085,0.010
6354,-0.060,0.045
6355,-0.035,0.045
6356,-0.035,0.050
6357,-0.015,0.005
6358,-0.015,0.005
6359,0.000,0.000
6360,-0.035,0.000
6361,-0.040,0.000
6362,-0.090,0.000
6363,-0.115,0.000
6364,-0.140,0.005
6365,-0.145,0.005
6366,-0.145,0.005
6367,-0.130,0.000
6368,-0.140,0.010
6369,-0.145,0.085
6370,-0.150,0.150
6371,0.025,0.115
6372,0.605,-0.235
6373,1.240,-0.725
6374,0.635,-0.685
6375,-0.305,-0.400
6376,-0.520,-0.220
6377,-0.345,-0.070
6378,-0.195,0.015
6379,-0.145,0.045
6380,-0.130,0.065
6381,-0.120,0.070
6382,-0.115,0.075
6383,-0.105,0.070
6384,-0.105,0.075
6385,-0.095,0.070
6386,-0.085,0.080
6387,-0.070,0.070
6388,-0.060,0.075
6389,-0.045,0.065
6390,-0.035,0.060
6391,-0.010,0.045
6392,-0.010,0.045
6393,0.000,0.030
6394,0.000,0.030
6395,0.015,0.025
6396,0.040,0.025
6397,0.065,0.020
6398,0.100,0.010
6399,0.130,0.010
6400,0.175,0.000
6401,0.200,0.000
6402,0.245,0.000
6403,0.280,0.000
6404,0.330,0.000
6405,0.350,0.000
6406,0.380,-0.010
6407,0.370,-0.005
6408,0.370,-0.025
6409,0.335,-0.015
6410,0.325,-0.030
6411,0.275,-0.020
6412,0.235,-0.015
6413,0.170,-0.005
6414,0.105,0.000
6415,0.040,0.000
6416,0.005,0.000
6417,-0.025,0.000
6418,-0.060,0.000
6419,-0.090,0.000
6420,-0.110,0.005
6421,-0.130,0.005
6422,-0.140,0.010
6423,-0.140,0.005
6424,-0.140,0.005
6425,-0.140,0.010
6426,-0.135,0.005
6427,-0.125,0.010
6428,-0.125,0.005
6429,-0.120,0.005
6430,-0.105,0.000
6431,-0.110,0.010
6432,-0.105,0.005
6433,-0.115,0.015
6434,-0.105,0.000
6435,-0.120,0.010
6436,-0.115,0.000
6437,-0.120,0.005
6438,-0.115,0.000
6439,-0.125,0.005
6440,-0.115,0.000
6441,-0.135,0.005
6442,-0.105,0.005
6443,-0.110,0.015
6444,-0.065,0.020
6445,-0.045,0.035
6446,-0.015,0.045
6447,-0.015,0.040
6448,0.000,0.005
6449,0.000,0.000
6450,0.000,0.000
6451,-0.020,0.000
6452,-0.040,0.000
6453,-0.080,0.000
6454,-0.110,0.000
6455,-0.125,0.000
6456,-0.135,0.000
6457,-0.130,0.000
6458,-0.130,0.000
6459,-0.125,0.015
6460,-0.145,0.110
6461,-0.110,0.140
6462,0.160,0.030
6463,0.835,-0.380
6464,1.135,-0.760
6465,0.375,-0.630
6466,-0.420,-0.350
6467,-0.470,-0.190
6468,-0.275,-0.050
6469,-0.160,0.020
6470,-0.125,0.045
6471,-0.115,0.055
6472,-0.105,0.055
6473,-0.100,0.065
6474,-0.090,0.065
6475,-0.085,0.065
6476,-0.080,0.065
6477,-0.070,0.055
6478,-0.065,0.060
6479,-0.050,0.045
6480,-0.045,0.050
6481,-0.035,0.040
6482,-0.030,0.045
6483,0.000,0.035
6484,0.000,0.040
6485,0.010,0.020
6486,0.010,0.035
6487,0.050,0.015
6488,0.060,0.015
6489,0.105,0.005
6490,0.130,0.010
6491,0.175,0.000
6492,0.200,0.000
6493,0.250,0.000
6494,0.280,0.000
6495,0.325,0.000
6496,0.345,-0.005
6497,0.360,-0.015
6498,0.360,-0.020
6499,0.360,-0.025
6500,0.340,-0.030
6501,0.310,-0.030
6502,0.270,-0.030
6503,0.220,-0.010
6504,0.160,0.000
6505,0.100,0.000
6506,0.045,0.000
6507,0.005,0.000
6508,-0.020,0.000
6509,-0.055,0.000
6510,-0.090,0.005
6511,-0.100,0.005
6512,-0.110,0.010
6513,-0.110,0.005
6514,-0.130,0.015
6515,-0.125,0.005
6516,-0.135,0.015
6517,-0.115,0.005
6518,-0.115,0.010
6519,-0.100,0.010
6520,-0.110,0.010
6521,-0.095,0.010
6522,-0.100,0.005
6523,-0.095,0.005
6524,-0.100,0.005
6525,-0.100,0.005
6526,-0.105,0.005
6527,-0.105,0.005
6528,-0.105,0.000
6529,-0.105,0.005
6530,-0.100,0.000
6531,-0.100,0.010
6532,-0.100,0.000
6533,-0.100,0.005
6534,-0.095,0.000
6535,-0.075,0.025
6536,-0.030,0.025
6537,-0.020,0.055
6538,0.000,0.030
6539,0.000,0.010
6540,0.000,0.000
6541,0.000,0.000
6542,-0.005,0.000
6543,-0.030,0.000
6544,-0.060,0.000
6545,-0.100,0.000
6546,-0.120,0.000
6547,-0.125,0.000
6548,-0.115,0.000
6549,-0.110,0.000
6550,-0.115,0.015
6551,-0.125,0.095
6552,-0.105,0.150
6553,0.120,0.065
6554,0.725,-0.290
6555,1.130,-0.720
6556,0.510,-0.675
6557,-0.350,-0.380
6558,-0.460,-0.240
6559,-0.275,-0.065
6560,-0.145,0.010
6561,-0.120,0.050
6562,-0.095,0.055
6563,-0.095,0.070
6564,-0.090,0.065
6565,-0.090,0.070
6566,-0.070,0.065
6567,-0.080,0.070
6568,-0.050,0.065
6569,-0.060,0.070
6570,-0.045,0.050
6571,-0.045,0.050
6572,-0.015,0.045
6573,-0.015,0.050
6574,0.000,0.040
6575,0.000,0.040
6576,0.005,0.030
6577,0.025,0.030
6578,0.050,0.030
6579,0.075,0.020
6580,0.105,0.020
6581,0.140,0.005
6582,0.160,0.005
6583,0.200,0.000
6584,0.235,0.000
6585,0.285,0.000
6586,0.320,0.000
6587,0.345,-0.005
6588,0.360,-0.005
6589,0.365,-0.015
6590,0.350,-0.020
6591,0.335,-0.025
6592,0.310,-0.025
6593,0.270,-0.015
6594,0.225,-0.010
6595,0.165,0.000
6596,0.110,0.000
6597,0.060,0.000
6598,0.025,0.000
6599,-0.005,0.005
6600,-0.035,0.005
6601,-0.065,0.005
6602,-0.080,0.010
6603,-0.100,0.010
6604,-0.105,0.010
6605,-0.115,0.010
6606,-0.115,0.015
6607,-0.115,0.010
6608,-0.110,0.010
6609,-0.100,0.005
6610,-0.100,0.020
6611,-0.095,0.005
6612,-0.095,0.015
6613,-0.095,0.000
6614,-0.095,0.015
6615,-0.075,0.010
6616,-0.090,0.015
6617,-0.090,0.005
6618,-0.090,0.020
6619,-0.090,0.005
6620,-0.095,0.020
6621,-0.095,0.010
6622,-0.095,0.010
6623,-0.075,0.005
6624,-0.060,0.020
6625,-0.025,0.035
6626,-0.010,0.055
6627,0.000,0.050
6628,0.000,0.025
6629,0.000,0.005
6630,0.000,0.000
6631,0.000,0.000
6632,-0.010,0.000
6633,-0.045,0.000
6634,-0.080,0.000
6635,-0.100,0.005
6636,-0.115,0.005
6637,-0.115,0.000
6638,-0.105,0.000
6639,-0.100,0.015
6640,-0.125,0.080
6641,-0.125,0.150
6642,0.020,0.110
6643,0.530,-0.155
6644,1.120,-0.640
6645,0.805,-0.740
6646,-0.260,-0.405
6647,-0.515,-0.260
6648,-0.345,-0.090
6649,-0.170,0.010
6650,-0.140,0.050
6651,-0.115,0.055
6652,-0.115,0.075
6653,-0.095,0.075
6654,-0.090,0.075
6655,-0.085,0.075
6656,-0.085,0.075
6657,-0.075,0.075
6658,-0.065,0.070
6659,-0.050,0.075
6660,-0.045,0.065
6661,-0.040,0.070
6662,-0.020,0.050
6663,-0.015,0.060
6664,0.000,0.040
6665,0.000,0.045
6666,0.025,0.030
6667,0.035,0.035
6668,0.070,0.025
6669,0.085,0.030
6670,0.120,0.015
6671,0.145,0.015
6672,0.190,0.005
6673,0.235,0.000
6674,0.280,0.000
6675,0.315,0.000
6676,0.340,0.000
6677,0.355,0.000
6678,0.355,0.000
6679,0.355,-0.005
6680,0.335,-0.005
6681,0.305,-0.010
6682,0.265,-0.010
6683,0.215,0.000
6684,0.155,0.000
6685,0.090,0.000
6686,0.040,0.000
6687,0.000,0.000
6688,-0.025,0.005
6689,-0.065,0.015
6690,-0.090,0.005
6691,-0.120,0.020
6692,-0.120,0.015
6693,-0.145,0.025
6694,-0.145,0.010
6695,-0.140,0.020
6696,-0.140,0.005
6697,-0.140,0.015
6698,-0.125,0.005
6699,-0.125,0.010
6700,-0.100,0.005
6701,-0.110,0.005
6702,-0.095,0.005
6703,-0.100,0.005
6704,-0.095,0.005
6705,-0.100,0.005
6706,-0.100,0.010
6707,-0.110,0.010
6708,-0.105,0.010
6709,-0.110,0.005
6710,-0.115,0.010
6711,-0.100,0.010
6712,-0.080,0.025
6713,-0.055,0.035
6714,-0.035,0.050
6715,-0.010,0.045
6716,-0.005,0.025
6717,-0.005,0.005
6718,-0.005,0.000
6719,-0.015,0.000
6720,-0.035,0.000
6721,-0.065,0.000
6722,-0.105,0.005
6723,-0.130,0.005
6724,-0.140,0.000
6725,-0.135,0.005
6726,-0.135,0.005
6727,-0.135,0.010
6728,-0.130,0.065
6729,-0.145,0.155
6730,-0.005,0.125
6731,0.465,-0.120
6732,1.155,-0.645
6733,0.975,-0.805
6734,-0.265,-0.425
6735,-0.570,-0.255
6736,-0.370,-0.080
6737,-0.185,0.010
6738,-0.140,0.050
6739,-0.125,0.050
6740,-0.120,0.080
6741,-0.095,0.070
6742,-0.110,0.080
6743,-0.090,0.070
6744,-0.090,0.080
6745,-0.070,0.065
6746,-0.070,0.080
6747,-0.045,0.055
6748,-0.045,0.070
6749,-0.025,0.050
6750,-0.025,0.050
6751,-0.005,0.045
6752,0.000,0.045
6753,0.005,0.035
6754,0.020,0.030
6755,0.045,0.025
6756,0.065,0.015
6757,0.100,0.010
6758,0.135,0.005
6759,0.170,0.005
6760,0.210,0.000
6761,0.250,0.000
6762,0.295,0.000
6763,0.335,0.000
6764,0.360,-0.005
6765,0.370,-0.010
6766,0.375,-0.015
6767,0.375,-0.020
6768,0.350,-0.015
6769,0.330,-0.010
6770,0.290,0.000
6771,0.235,-0.010
6772,0.165,0.000
6773,0.110,0.000
6774,0.045,0.000
6775,0.005,0.000
6776,-0.025,0.005
6777,-0.055,0.005
6778,-0.090,0.010
6779,-0.095,0.005
6780,-0.130,0.005
6781,-0.130,0.005
6782,-0.135,0.005
6783,-0.130,0.005
6784,-0.130,0.005
6785,-0.130,0.005
6786,-0.120,0.005
6787,-0.105,0.005
6788,-0.100,0.000
6789,-0.100,0.010
6790,-0.095,0.000
6791,-0.095,0.010
6792,-0.095,0.000
6793,-0.095,0.015
6794,-0.095,0.000
6795,-0.100,0.010
6796,-0.095,0.005
6797,-0.095,0.010
