'sample interval','ECG0','ECG1'
'0.0078125 sec','mV','mV'
0,-0.070,0.040
1,-0.070,0.040
2,-0.090,0.020
3,-0.050,0.040
4,-0.040,0.060
5,-0.040,0.040
6,-0.030,0.030
7,-0.030,0.040
8,-0.040,0.020
9,-0.030,0.010
10,-0.040,0.020
11,-0.040,0.030
12,0.000,0.020
13,-0.020,0.040
14,-0.070,0.120
15,-0.050,0.190
16,-0.050,0.180
17,-0.070,0.190
18,0.010,0.140
19,0.040,0.040
20,0.050,0.040
21,0.070,-0.020
22,0.060,-0.040
23,0.060,-0.020
24,0.060,-0.010
25,0.040,-0.060
26,-0.030,-0.030
27,-0.020,-0.010
28,-0.020,-0.020
29,-0.030,-0.060
30,0.000,-0.060
31,0.000,-0.040
32,-0.020,-0.030
33,0.000,-0.060
34,-0.040,-0.060
35,-0.060,-0.040
36,-0.040,-0.040
37,-0.010,-0.050
38,-0.040,-0.060
39,0.000,-0.050
40,0.030,-0.030
41,0.000,-0.050
42,0.000,-0.060
43,0.010,-0.040
44,0.000,-0.020
45,0.040,-0.030
46,0.170,0.000
47,0.520,0.150
48,0.860,0.010
49,1.850,-1.150
50,2.330,-2.940
51,1.720,-3.630
52,0.850,-3.810
53,0.350,-3.030
54,-0.040,-2.280
55,-0.380,-1.670
56,-0.640,-1.210
57,-0.610,-0.780
58,-0.550,-0.550
59,-0.410,-0.300
60,-0.250,0.010
61,-0.160,0.190
62,-0.200,0.240
63,-0.150,0.260
64,-0.140,0.290
65,-0.170,0.290
66,-0.170,0.310
67,-0.160,0.330
68,-0.210,0.350
69,-0.230,0.370
70,-0.260,0.400
71,-0.280,0.430
72,-0.300,0.440
73,-0.310,0.470
74,-0.370,0.520
75,-0.380,0.550
76,-0.400,0.580
77,-0.510,0.630
78,-0.560,0.660
79,-0.590,0.730
80,-0.630,0.750
81,-0.690,0.790
82,-0.710,0.840
83,-0.740,0.890
84,-0.740,0.880
85,-0.700,0.870
86,-0.700,0.850
87,-0.570,0.790
88,-0.440,0.730
89,-0.300,0.650
90,-0.130,0.540
91,-0.010,0.450
92,0.030,0.340
93,0.060,0.250
94,0.060,0.170
95,0.030,0.130
96,0.020,0.100
97,0.060,0.070
98,0.030,0.080
99,0.040,0.070
100,0.050,0.070
101,0.020,0.060
102,0.010,0.040
103,0.000,0.050
104,-0.030,0.050
105,-0.010,0.060
106,-0.020,0.060
107,0.000,0.070
108,0.020,0.070
109,0.020,0.070
110,0.000,0.070
111,-0.020,0.060
112,0.000,0.070
113,0.000,0.060
114,0.020,0.040
115,0.050,0.050
116,0.040,0.050
117,0.060,0.020
118,0.070,0.010
119,0.060,0.010
120,0.040,0.010
121,0.050,0.040
122,0.000,0.120
123,0.020,0.160
124,0.060,0.160
125,0.060,0.170
126,0.130,0.090
127,0.150,0.020
128,0.120,0.010
129,0.130,-0.030
130,0.140,-0.050
131,0.150,-0.040
132,0.130,-0.040
133,0.130,-0.030
134,0.080,0.010
135,0.100,0.010
136,0.070,-0.010
137,0.030,-0.030
138,0.030,-0.020
139,0.070,-0.010
140,0.040,-0.020
141,0.070,-0.010
142,0.080,-0.020
143,0.050,0.000
144,0.070,0.010
145,0.040,-0.010
146,0.040,0.010
147,0.060,0.030
148,0.090,0.020
149,0.060,0.020
150,0.090,0.040
151,0.100,0.040
152,0.080,0.040
153,0.130,0.050
154,0.280,0.080
155,0.630,0.220
156,1.110,-0.060
157,2.180,-1.590
158,2.300,-3.170
159,1.490,-3.850
160,0.640,-3.610
161,0.310,-2.640
162,-0.180,-2.070
163,-0.550,-1.470
164,-0.650,-0.980
165,-0.540,-0.670
166,-0.440,-0.470
167,-0.290,-0.190
168,-0.150,0.110
169,-0.110,0.240
170,-0.150,0.230
171,-0.180,0.250
172,-0.150,0.290
173,-0.200,0.300
174,-0.190,0.320
175,-0.190,0.340
176,-0.230,0.370
177,-0.230,0.380
178,-0.230,0.410
179,-0.310,0.430
180,-0.310,0.470
181,-0.330,0.500
182,-0.380,0.540
183,-0.380,0.570
184,-0.390,0.630
185,-0.470,0.670
186,-0.520,0.720
187,-0.540,0.770
188,-0.650,0.830
189,-0.680,0.850
190,-0.720,0.890
191,-0.720,0.920
192,-0.650,0.930
193,-0.600,0.910
194,-0.530,0.850
195,-0.380,0.770
196,-0.280,0.700
197,-0.150,0.570
198,-0.020,0.460
199,0.100,0.390
200,0.090,0.290
201,0.120,0.200
202,0.120,0.120
203,0.110,0.110
204,0.080,0.070
205,0.080,0.050
206,0.060,0.030
207,0.060,0.030
208,0.060,0.030
209,0.070,0.020
210,0.050,0.010
211,0.070,0.040
212,0.050,0.040
213,0.000,0.020
214,0.020,0.030
215,0.010,0.050
216,0.040,0.060
217,0.050,0.050
218,0.050,0.050
219,0.060,0.070
220,0.060,0.050
221,0.030,0.030
222,0.030,0.030
223,0.050,0.030
224,0.050,0.030
225,0.050,0.020
226,0.090,0.010
227,0.070,0.040
228,0.080,0.040
229,0.070,0.080
230,-0.010,0.160
231,0.040,0.170
232,0.060,0.190
233,0.100,0.190
234,0.140,0.080
235,0.200,0.060
236,0.190,0.020
237,0.190,-0.010
238,0.210,-0.030
239,0.170,-0.030
240,0.140,-0.050
241,0.170,-0.030
242,0.130,-0.010
243,0.150,-0.020
244,0.150,-0.010
245,0.130,-0.030
246,0.110,-0.030
247,0.090,-0.050
248,0.080,-0.030
249,0.090,-0.030
250,0.100,-0.010
251,0.090,-0.020
252,0.120,-0.020
253,0.100,-0.020
254,0.070,-0.020
255,0.090,-0.020
256,0.090,-0.020
257,0.050,-0.010
258,0.070,-0.020
259,0.110,-0.020
260,0.090,-0.020
261,0.190,0.000
262,0.440,0.090
263,0.680,0.130
264,1.510,-0.530
265,2.390,-2.380
266,2.120,-3.420
267,1.280,-3.910
268,0.580,-3.480
269,0.330,-2.500
270,-0.130,-2.010
271,-0.510,-1.450
272,-0.560,-0.970
273,-0.520,-0.680
274,-0.380,-0.450
275,-0.240,-0.190
276,-0.140,0.100
277,-0.090,0.230
278,-0.130,0.250
279,-0.120,0.280
280,-0.130,0.300
281,-0.130,0.310
282,-0.160,0.340
283,-0.160,0.360
284,-0.180,0.380
285,-0.180,0.400
286,-0.180,0.420
287,-0.210,0.450
288,-0.260,0.480
289,-0.250,0.520
290,-0.310,0.540
291,-0.360,0.560
292,-0.390,0.610
293,-0.430,0.660
294,-0.480,0.700
295,-0.520,0.740
296,-0.560,0.780
297,-0.630,0.830
298,-0.620,0.850
299,-0.700,0.880
300,-0.690,0.880
301,-0.590,0.870
302,-0.510,0.830
303,-0.410,0.750
304,-0.270,0.690
305,-0.130,0.590
306,0.010,0.480
307,0.050,0.380
308,0.100,0.300
309,0.130,0.230
310,0.150,0.170
311,0.120,0.130
312,0.110,0.100
313,0.150,0.090
314,0.130,0.090
315,0.080,0.070
316,0.060,0.060
317,0.060,0.060
318,0.060,0.060
319,0.050,0.050
320,0.040,0.040
321,0.040,0.060
322,0.060,0.050
323,0.020,0.040
324,-0.020,0.060
325,0.030,0.060
326,0.030,0.060
327,0.010,0.050
328,0.050,0.040
329,0.070,0.070
330,0.050,0.050
331,0.090,0.030
332,0.070,0.040
333,0.050,0.040
334,0.080,0.050
335,0.080,0.040
336,0.060,0.040
337,0.090,0.110
338,0.080,0.190
339,0.050,0.150
340,0.090,0.190
341,0.110,0.170
342,0.140,0.060
343,0.170,0.020
344,0.180,0.000
345,0.170,-0.020
346,0.220,-0.040
347,0.210,-0.030
348,0.150,-0.060
349,0.160,0.010
350,0.100,-0.010
351,0.080,-0.030
352,0.110,-0.020
353,0.120,-0.020
354,0.100,-0.030
355,0.090,-0.040
356,0.120,-0.020
357,0.090,-0.020
358,0.110,-0.050
359,0.080,-0.040
360,0.080,-0.030
361,0.120,-0.040
362,0.110,-0.050
363,0.090,-0.060
364,0.120,-0.030
365,0.120,-0.040
366,0.090,-0.050
367,0.070,-0.070
368,0.100,-0.050
369,0.160,-0.030
370,0.370,0.040
371,0.660,0.120
372,1.430,-0.430
373,2.370,-2.270
374,2.120,-3.410
375,1.240,-3.940
376,0.510,-3.450
377,0.290,-2.440
378,-0.200,-1.970
379,-0.540,-1.430
380,-0.590,-0.910
381,-0.490,-0.630
382,-0.350,-0.430
383,-0.210,-0.160
384,-0.150,0.130
385,-0.120,0.260
386,-0.120,0.250
387,-0.130,0.260
388,-0.100,0.300
389,-0.110,0.320
390,-0.130,0.340
391,-0.120,0.340
392,-0.120,0.370
393,-0.200,0.390
394,-0.210,0.390
395,-0.200,0.410
396,-0.240,0.450
397,-0.240,0.480
398,-0.260,0.510
399,-0.300,0.540
400,-0.340,0.600
401,-0.390,0.630
402,-0.490,0.660
403,-0.520,0.710
404,-0.540,0.770
405,-0.580,0.820
406,-0.600,0.820
407,-0.620,0.850
408,-0.610,0.850
409,-0.540,0.830
410,-0.490,0.780
411,-0.380,0.710
412,-0.230,0.640
413,-0.100,0.560
414,0.010,0.440
415,0.100,0.360
416,0.140,0.270
417,0.130,0.200
418,0.120,0.110
419,0.110,0.080
420,0.110,0.070
421,0.120,0.050
422,0.120,0.040
423,0.100,0.030
424,0.120,0.040
425,0.140,0.040
426,0.070,0.020
427,0.020,0.020
428,0.060,0.030
429,0.030,0.040
430,0.060,0.050
431,0.080,0.060
432,0.080,0.080
433,0.090,0.060
434,0.070,0.040
435,0.060,0.040
436,0.080,0.050
437,0.100,0.050
438,0.090,0.040
439,0.110,0.020
440,0.110,0.030
441,0.120,0.030
442,0.120,0.010
443,0.110,-0.010
444,0.080,0.020
445,0.090,0.070
446,0.080,0.120
447,0.070,0.100
448,0.110,0.140
449,0.210,0.110
450,0.180,-0.030
451,0.210,-0.030
452,0.190,-0.070
453,0.180,-0.070
454,0.200,-0.090
455,0.180,-0.090
456,0.170,-0.090
457,0.160,-0.020
458,0.150,-0.030
459,0.140,-0.070
460,0.140,-0.060
461,0.100,-0.070
462,0.100,-0.060
463,0.110,-0.070
464,0.130,-0.060
465,0.110,-0.050
466,0.130,-0.060
467,0.130,-0.070
468,0.120,-0.050
469,0.120,-0.060
470,0.110,-0.070
471,0.100,-0.070
472,0.130,-0.050
473,0.150,-0.040
474,0.140,-0.060
475,0.180,-0.050
476,0.210,-0.040
477,0.290,-0.020
478,0.560,0.070
479,0.770,0.020
480,1.720,-0.820
481,2.430,-2.730
482,1.910,-3.620
483,1.050,-3.930
484,0.530,-3.190
485,0.210,-2.350
486,-0.190,-1.800
487,-0.470,-1.320
488,-0.490,-0.870
489,-0.410,-0.610
490,-0.270,-0.390
491,-0.110,-0.100
492,-0.040,0.140
493,-0.050,0.210
494,-0.040,0.220
495,-0.090,0.240
496,-0.100,0.260
497,-0.090,0.290
498,-0.130,0.290
499,-0.120,0.330
500,-0.120,0.360
501,-0.130,0.380
502,-0.170,0.400
503,-0.180,0.410
504,-0.260,0.440
505,-0.250,0.470
506,-0.280,0.520
507,-0.350,0.540
508,-0.330,0.590
509,-0.370,0.640
510,-0.450,0.660
511,-0.490,0.700
512,-0.520,0.740
513,-0.610,0.780
514,-0.600,0.800
515,-0.590,0.810
516,-0.570,0.810
517,-0.490,0.780
518,-0.370,0.730
519,-0.270,0.650
520,-0.140,0.570
521,-0.040,0.470
522,0.050,0.370
523,0.130,0.280
524,0.180,0.210
525,0.160,0.150
526,0.170,0.100
527,0.200,0.060
528,0.150,0.060
529,0.120,0.030
530,0.130,0.020
531,0.110,0.020
532,0.090,0.040
533,0.110,0.050
534,0.090,0.050
535,0.090,0.050
536,0.080,0.050
537,0.050,0.050
538,0.040,0.040
539,0.070,0.050
540,0.050,0.050
541,0.040,0.050
542,0.090,0.030
543,0.050,0.040
544,0.080,0.030
545,0.100,0.020
546,0.070,0.020
547,0.060,0.020
548,0.080,0.020
549,0.080,0.010
550,0.090,0.010
551,0.130,0.010
552,0.080,0.060
553,0.080,0.130
554,0.080,0.150
555,0.050,0.150
556,0.090,0.170
557,0.170,0.080
558,0.170,0.020
559,0.200,-0.010
560,0.190,-0.020
561,0.200,-0.050
562,0.200,-0.050
563,0.170,-0.070
564,0.130,-0.060
565,0.110,-0.010
566,0.140,-0.030
567,0.110,-0.040
568,0.120,-0.040
569,0.130,-0.030
570,0.110,-0.040
571,0.130,-0.040
572,0.100,-0.050
573,0.090,-0.030
574,0.100,-0.040
575,0.130,-0.030
576,0.120,-0.040
577,0.100,-0.020
578,0.130,-0.010
579,0.110,-0.010
580,0.100,0.000
581,0.080,-0.010
582,0.090,-0.020
583,0.100,-0.010
584,0.190,0.020
585,0.350,0.070
586,0.660,0.200
587,1.360,-0.290
588,2.260,-2.070
589,2.150,-3.290
590,1.360,-3.910
591,0.580,-3.540
592,0.330,-2.540
593,-0.130,-2.080
594,-0.490,-1.430
595,-0.570,-0.960
596,-0.470,-0.650
597,-0.410,-0.420
598,-0.280,-0.150
599,-0.130,0.180
600,-0.140,0.290
601,-0.140,0.290
602,-0.090,0.330
603,-0.100,0.350
604,-0.120,0.360
605,-0.120,0.360
606,-0.120,0.390
607,-0.210,0.380
608,-0.180,0.410
609,-0.190,0.440
610,-0.220,0.490
611,-0.220,0.510
612,-0.250,0.550
613,-0.290,0.600
614,-0.280,0.650
615,-0.340,0.690
616,-0.430,0.730
617,-0.440,0.800
618,-0.470,0.870
619,-0.530,0.900
620,-0.560,0.950
621,-0.590,0.980
622,-0.610,0.990
623,-0.590,0.980
624,-0.620,0.940
625,-0.540,0.910
626,-0.410,0.850
627,-0.300,0.760
628,-0.180,0.650
629,-0.040,0.560
630,0.060,0.460
631,0.070,0.340
632,0.080,0.230
633,0.090,0.190
634,0.080,0.120
635,0.080,0.090
636,0.060,0.060
637,0.080,0.070
638,0.080,0.060
639,0.050,0.040
640,0.010,0.030
641,0.020,0.050
642,0.000,0.060
643,-0.020,0.050
644,-0.010,0.050
645,0.000,0.050
646,0.000,0.070
647,0.010,0.060
648,0.000,0.070
649,-0.020,0.070
650,0.000,0.070
651,-0.010,0.060
652,-0.010,0.060
653,0.010,0.060
654,0.020,0.080
655,0.020,0.060
656,0.030,0.050
657,0.030,0.060
658,0.000,0.040
659,0.020,0.040
660,0.010,0.080
661,-0.010,0.170
662,0.010,0.190
663,0.040,0.200
664,0.020,0.200
665,0.110,0.130
666,0.120,0.030
667,0.080,0.020
668,0.110,0.000
669,0.130,-0.020
670,0.110,-0.010
671,0.090,-0.040
672,0.100,-0.010
673,0.070,0.040
674,0.040,0.020
675,0.050,0.000
676,0.020,0.010
677,0.030,0.010
678,0.070,0.000
679,0.030,0.000
680,0.050,-0.010
681,0.070,0.000
682,0.040,0.000
683,0.040,-0.020
684,0.040,-0.040
685,0.010,-0.020
686,0.010,-0.030
687,0.070,-0.030
688,0.060,-0.010
689,0.050,-0.020
690,0.090,-0.030
691,0.060,-0.030
692,0.090,-0.040
693,0.240,0.000
694,0.580,0.140
695,0.830,-0.070
696,1.850,-1.270
697,2.300,-3.030
698,1.560,-3.800
699,0.740,-3.810
700,0.330,-2.930
701,-0.120,-2.260
702,-0.450,-1.610
703,-0.600,-1.140
704,-0.570,-0.750
705,-0.450,-0.540
706,-0.350,-0.270
707,-0.190,0.090
708,-0.110,0.240
709,-0.140,0.240
710,-0.200,0.280
711,-0.160,0.290
712,-0.180,0.330
713,-0.190,0.350
714,-0.200,0.360
715,-0.210,0.400
716,-0.220,0.420
717,-0.230,0.440
718,-0.290,0.450
719,-0.300,0.480
720,-0.290,0.520
721,-0.330,0.530
722,-0.350,0.570
723,-0.340,0.610
724,-0.410,0.660
725,-0.440,0.700
726,-0.480,0.740
727,-0.560,0.770
728,-0.580,0.800
729,-0.620,0.830
730,-0.670,0.870
731,-0.640,0.860
732,-0.560,0.870
733,-0.520,0.840
734,-0.470,0.770
735,-0.320,0.700
736,-0.230,0.610
737,-0.110,0.510
738,0.000,0.410
739,0.060,0.330
740,0.080,0.230
741,0.100,0.170
742,0.070,0.120
743,0.050,0.090
744,0.040,0.060
745,0.020,0.050
746,0.030,0.060
747,0.040,0.050
748,0.050,0.040
749,0.010,0.030
750,0.010,0.040
751,0.000,0.040
752,-0.020,0.040
753,-0.030,0.030
754,-0.040,0.050
755,-0.040,0.060
756,0.000,0.060
757,-0.010,0.070
758,-0.030,0.080
759,0.020,0.070
760,-0.010,0.080
761,-0.040,0.060
762,0.000,0.070
763,0.000,0.070
764,0.000,0.060
765,0.030,0.060
766,0.020,0.070
767,0.020,0.090
768,0.000,0.130
769,-0.030,0.200
770,-0.060,0.210
771,-0.010,0.250
772,0.050,0.230
773,0.050,0.110
774,0.100,0.110
775,0.110,0.080
776,0.080,0.050
777,0.100,0.020
778,0.080,0.040
779,0.040,0.020
780,0.050,0.060
781,0.030,0.050
782,0.020,0.030
783,0.050,0.030
784,0.030,0.010
785,0.020,0.000
786,0.030,0.000
787,0.020,0.000
788,0.000,0.000
789,0.020,-0.020
790,0.020,0.000
791,0.020,0.010
792,0.020,0.020
793,0.040,-0.010
794,0.020,0.000
795,0.020,0.010
796,0.040,0.000
797,0.020,0.000
798,0.050,0.010
799,0.060,0.010
800,0.110,0.000
801,0.290,0.050
802,0.630,0.200
803,1.160,-0.210
804,2.160,-1.880
805,2.190,-3.250
806,1.340,-3.910
807,0.570,-3.550
808,0.330,-2.580
809,-0.180,-2.080
810,-0.510,-1.430
811,-0.590,-0.950
812,-0.530,-0.640
813,-0.460,-0.430
814,-0.310,-0.130
815,-0.200,0.180
816,-0.160,0.310
817,-0.140,0.310
818,-0.170,0.370
819,-0.160,0.380
820,-0.170,0.390
821,-0.220,0.400
822,-0.220,0.440
823,-0.210,0.460
824,-0.250,0.460
825,-0.260,0.480
826,-0.250,0.500
827,-0.290,0.520
828,-0.320,0.530
829,-0.330,0.550
830,-0.390,0.580
831,-0.410,0.620
832,-0.440,0.640
833,-0.520,0.680
834,-0.520,0.710
835,-0.550,0.770
836,-0.600,0.780
837,-0.610,0.780
838,-0.630,0.800
839,-0.670,0.810
840,-0.600,0.790
841,-0.500,0.740
842,-0.390,0.680
843,-0.250,0.610
844,-0.130,0.500
845,-0.020,0.400
846,0.070,0.320
847,0.090,0.210
848,0.080,0.150
849,0.100,0.100
850,0.120,0.070
851,0.100,0.040
852,0.100,0.040
853,0.120,0.040
854,0.080,0.040
855,0.050,0.040
856,0.050,0.030
857,0.030,0.040
858,0.050,0.040
859,0.050,0.040
860,0.030,0.040
861,0.050,0.040
862,0.060,0.060
863,0.020,0.050
864,0.010,0.040
865,0.040,0.050
866,0.020,0.040
867,0.040,0.040
868,0.070,0.010
869,0.070,0.030
870,0.080,0.020
871,0.090,0.010
872,0.040,0.000
873,0.050,-0.010
874,0.070,0.010
875,0.060,-0.010
876,0.060,0.020
877,0.090,0.080
878,0.060,0.140
879,0.040,0.120
880,0.080,0.160
881,0.110,0.120
882,0.110,0.000
883,0.160,0.000
884,0.160,-0.040
885,0.150,-0.070
886,0.180,-0.060
887,0.140,-0.060
888,0.130,-0.100
889,0.130,-0.040
890,0.070,-0.040
891,0.080,-0.060
892,0.080,-0.060
893,0.090,-0.070
894,0.090,-0.060
895,0.110,-0.060
896,0.100,-0.070
897,0.100,-0.070
898,0.070,-0.070
899,0.060,-0.050
900,0.060,-0.050
901,0.100,-0.050
902,0.090,-0.050
903,0.080,-0.040
904,0.110,-0.040
905,0.110,-0.040
906,0.090,-0.050
907,0.090,-0.040
908,0.110,-0.030
909,0.200,-0.010
910,0.460,0.090
911,0.650,0.090
912,1.550,-0.620
913,2.360,-2.550
914,1.940,-3.540
915,1.130,-3.960
916,0.510,-3.370
917,0.240,-2.420
918,-0.190,-1.960
919,-0.510,-1.380
920,-0.550,-0.870
921,-0.460,-0.600
922,-0.340,-0.390
923,-0.190,-0.070
924,-0.100,0.200
925,-0.120,0.270
926,-0.120,0.270
927,-0.120,0.310
928,-0.110,0.340
929,-0.120,0.340
930,-0.140,0.340
931,-0.120,0.370
932,-0.150,0.400
933,-0.200,0.390
934,-0.220,0.400
935,-0.200,0.430
936,-0.230,0.470
937,-0.240,0.470
938,-0.250,0.500
939,-0.280,0.550
940,-0.320,0.570
941,-0.350,0.600
942,-0.450,0.640
943,-0.470,0.700
944,-0.490,0.720
945,-0.560,0.750
946,-0.580,0.780
947,-0.550,0.820
948,-0.570,0.820
949,-0.520,0.780
950,-0.460,0.750
951,-0.380,0.700
952,-0.240,0.620
953,-0.100,0.550
954,0.000,0.440
955,0.110,0.370
956,0.190,0.280
957,0.180,0.200
958,0.170,0.120
959,0.180,0.110
960,0.150,0.080
961,0.170,0.050
962,0.170,0.060
963,0.150,0.050
964,0.150,0.060
965,0.150,0.050
966,0.100,0.040
967,0.110,0.040
968,0.100,0.030
969,0.070,0.040
970,0.090,0.060
971,0.110,0.060
972,0.080,0.060
973,0.090,0.080
974,0.120,0.060
975,0.090,0.060
976,0.070,0.040
977,0.110,0.050
978,0.090,0.060
979,0.120,0.040
980,0.140,0.030
981,0.120,0.040
982,0.140,0.030
983,0.150,0.030
984,0.110,0.020
985,0.100,0.050
986,0.120,0.130
987,0.090,0.180
988,0.070,0.170
989,0.150,0.180
990,0.210,0.160
991,0.180,0.030
992,0.220,0.040
993,0.210,-0.010
994,0.200,-0.030
995,0.230,-0.040
996,0.200,-0.030
997,0.200,-0.050
998,0.210,0.010
999,0.170,0.000
1000,0.140,-0.040
1001,0.170,-0.050
1002,0.110,-0.050
1003,0.100,-0.060
1004,0.120,-0.070
1005,0.140,-0.050
1006,0.120,-0.070
1007,0.130,-0.070
1008,0.130,-0.060
1009,0.140,-0.060
1010,0.140,-0.060
1011,0.100,-0.080
1012,0.140,-0.050
1013,0.160,-0.050
1014,0.150,-0.050
1015,0.160,-0.070
1016,0.200,-0.060
1017,0.210,-0.040
1018,0.310,-0.030
1019,0.630,0.100
1020,0.790,0.000
1021,1.830,-1.050
1022,2.410,-2.940
1023,1.790,-3.760
1024,0.960,-3.900
1025,0.500,-3.090
1026,0.100,-2.320
1027,-0.290,-1.700
1028,-0.480,-1.230
1029,-0.500,-0.760
1030,-0.410,-0.570
1031,-0.260,-0.310
1032,-0.130,0.010
1033,-0.050,0.200
1034,-0.030,0.210
1035,-0.060,0.240
1036,-0.080,0.250
1037,-0.060,0.280
1038,-0.070,0.290
1039,-0.100,0.290
1040,-0.080,0.310
1041,-0.080,0.350
1042,-0.100,0.360
1043,-0.110,0.370
1044,-0.140,0.400
1045,-0.210,0.420
1046,-0.190,0.460
1047,-0.240,0.490
1048,-0.270,0.550
1049,-0.250,0.580
1050,-0.290,0.640
1051,-0.350,0.670
1052,-0.410,0.710
1053,-0.430,0.750
1054,-0.520,0.780
1055,-0.530,0.790
1056,-0.530,0.810
1057,-0.510,0.810
1058,-0.430,0.780
1059,-0.350,0.740
1060,-0.240,0.680
1061,-0.090,0.610
1062,-0.020,0.500
1063,0.060,0.410
1064,0.150,0.310
1065,0.180,0.240
1066,0.160,0.160
1067,0.160,0.110
1068,0.170,0.090
1069,0.140,0.070
1070,0.140,0.040
1071,0.100,0.030
1072,0.080,0.030
1073,0.090,0.040
1074,0.110,0.020
1075,0.080,0.020
1076,0.090,0.050
1077,0.070,0.050
1078,0.050,0.030
1079,0.040,0.020
1080,0.070,0.050
1081,0.070,0.050
1082,0.070,0.050
1083,0.090,0.040
1084,0.090,0.050
1085,0.110,0.050
1086,0.130,0.030
1087,0.110,0.020
1088,0.100,0.010
1089,0.130,0.040
1090,0.100,0.000
1091,0.130,0.000
1092,0.160,0.010
1093,0.140,0.050
1094,0.130,0.090
1095,0.120,0.170
1096,0.100,0.150
1097,0.110,0.180
1098,0.180,0.130
1099,0.180,0.010
1100,0.210,0.040
1101,0.230,0.000
1102,0.200,-0.030
1103,0.220,-0.040
1104,0.240,-0.020
1105,0.160,-0.060
1106,0.160,0.000
1107,0.170,0.020
1108,0.130,0.000
1109,0.130,-0.010
1110,0.140,-0.010
1111,0.130,0.000
1112,0.140,-0.010
1113,0.120,-0.010
1114,0.080,-0.010
1115,0.100,-0.010
1116,0.140,-0.010
1117,0.110,-0.010
1118,0.140,-0.020
1119,0.150,-0.020
1120,0.140,-0.010
1121,0.140,-0.010
1122,0.120,-0.020
1123,0.110,-0.030
1124,0.160,-0.020
1125,0.210,0.000
1126,0.280,0.010
1127,0.630,0.150
1128,0.890,0.010
1129,1.870,-1.150
1130,2.430,-3.010
1131,1.770,-3.730
1132,0.940,-3.800
1133,0.500,-3.010
1134,0.130,-2.260
1135,-0.230,-1.650
1136,-0.420,-1.190
1137,-0.430,-0.750
1138,-0.390,-0.540
1139,-0.250,-0.290
1140,-0.120,0.030
1141,-0.040,0.220
1142,-0.060,0.260
1143,-0.020,0.280
1144,-0.040,0.310
1145,-0.030,0.330
1146,-0.050,0.330
1147,-0.080,0.340
1148,-0.110,0.350
1149,-0.080,0.390
1150,-0.120,0.390
1151,-0.120,0.420
1152,-0.120,0.450
1153,-0.170,0.480
1154,-0.180,0.500
1155,-0.190,0.550
1156,-0.240,0.590
1157,-0.310,0.630
1158,-0.310,0.670
1159,-0.350,0.730
1160,-0.390,0.770
1161,-0.430,0.810
1162,-0.460,0.850
1163,-0.470,0.860
1164,-0.470,0.860
1165,-0.490,0.860
1166,-0.430,0.810
1167,-0.330,0.770
1168,-0.220,0.710
1169,-0.110,0.600
1170,0.040,0.520
1171,0.160,0.420
1172,0.190,0.330
1173,0.230,0.220
1174,0.200,0.150
1175,0.210,0.100
1176,0.220,0.060
1177,0.190,0.040
1178,0.210,0.030
1179,0.220,0.030
1180,0.180,0.030
1181,0.160,0.020
1182,0.150,0.010
1183,0.140,0.040
1184,0.100,0.020
1185,0.110,0.040
1186,0.110,0.050
1187,0.080,0.060
1188,0.100,0.050
1189,0.090,0.060
1190,0.120,0.070
1191,0.090,0.060
1192,0.090,0.070
1193,0.070,0.060
1194,0.130,0.040
1195,0.130,0.050
1196,0.100,0.040
1197,0.150,0.030
1198,0.130,0.040
1199,0.110,0.030
1200,0.090,0.030
1201,0.090,0.060
1202,0.090,0.130
1203,0.080,0.200
1204,0.070,0.170
1205,0.090,0.220
1206,0.170,0.200
1207,0.200,0.070
1208,0.160,0.040
1209,0.180,0.030
1210,0.200,0.000
1211,0.200,-0.020
1212,0.210,-0.010
1213,0.200,-0.040
1214,0.200,0.040
1215,0.180,0.020
1216,0.170,-0.010
1217,0.130,0.000
1218,0.150,0.000
1219,0.150,-0.020
1220,0.130,-0.020
1221,0.150,0.000
1222,0.150,0.020
1223,0.130,0.000
1224,0.130,0.000
1225,0.150,-0.010
1226,0.100,0.000
1227,0.130,-0.010
1228,0.130,-0.010
1229,0.140,-0.010
1230,0.140,0.000
1231,0.160,0.000
1232,0.120,-0.020
1233,0.140,-0.020
1234,0.230,0.010
1235,0.420,0.090
1236,0.640,0.120
1237,1.510,-0.520
1238,2.350,-2.450
1239,2.050,-3.510
1240,1.280,-4.040
1241,0.540,-3.500
1242,0.270,-2.490
1243,-0.180,-2.040
1244,-0.540,-1.440
1245,-0.580,-0.950
1246,-0.470,-0.640
1247,-0.400,-0.430
1248,-0.250,-0.160
1249,-0.110,0.150
1250,-0.160,0.270
1251,-0.130,0.240
1252,-0.170,0.280
1253,-0.180,0.300
1254,-0.160,0.330
1255,-0.170,0.340
1256,-0.200,0.330
1257,-0.160,0.380
1258,-0.200,0.370
1259,-0.210,0.390
1260,-0.230,0.410
1261,-0.280,0.430
1262,-0.300,0.460
1263,-0.320,0.520
1264,-0.330,0.550
1265,-0.370,0.600
1266,-0.420,0.650
1267,-0.410,0.690
1268,-0.460,0.730
1269,-0.570,0.780
1270,-0.580,0.810
1271,-0.650,0.840
1272,-0.630,0.870
1273,-0.620,0.880
1274,-0.590,0.870
1275,-0.490,0.850
1276,-0.380,0.770
1277,-0.300,0.690
1278,-0.200,0.590
1279,-0.020,0.510
1280,0.040,0.400
1281,0.100,0.310
1282,0.110,0.230
1283,0.120,0.170
1284,0.110,0.130
1285,0.110,0.090
1286,0.030,0.060
1287,0.040,0.070
1288,0.060,0.060
1289,0.030,0.050
1290,0.020,0.050
1291,0.020,0.060
1292,0.020,0.080
1293,-0.010,0.080
1294,-0.030,0.080
1295,-0.060,0.090
1296,-0.040,0.100
1297,-0.020,0.110
1298,-0.040,0.130
1299,-0.030,0.140
1300,0.010,0.150
1301,-0.020,0.140
1302,-0.030,0.140
1303,-0.020,0.120
1304,0.000,0.130
1305,-0.010,0.130
1306,0.000,0.120
1307,0.010,0.120
1308,0.010,0.110
1309,0.030,0.090
1310,-0.010,0.090
1311,-0.020,0.140
1312,-0.020,0.220
1313,-0.050,0.190
1314,-0.030,0.220
1315,0.050,0.190
1316,0.070,0.060
1317,0.070,0.060
1318,0.110,0.020
1319,0.110,0.010
1320,0.080,-0.020
1321,0.100,-0.030
1322,0.050,-0.040
1323,0.050,0.020
1324,0.060,0.020
1325,0.040,0.000
1326,0.020,0.010
1327,0.040,0.000
1328,0.020,0.000
1329,-0.030,-0.010
1330,-0.010,0.010
1331,0.000,0.020
1332,0.020,0.010
1333,0.030,0.000
1334,0.020,0.010
1335,0.010,0.010
1336,0.030,0.000
1337,0.000,-0.010
1338,-0.030,0.000
1339,0.000,0.010
1340,0.010,0.000
1341,-0.020,0.000
1342,0.020,0.000
1343,0.130,0.050
1344,0.350,0.130
1345,0.560,0.140
1346,1.440,-0.560
1347,2.340,-2.470
1348,1.940,-3.510
1349,1.120,-3.930
1350,0.420,-3.320
1351,0.170,-2.340
1352,-0.280,-1.820
1353,-0.660,-1.340
1354,-0.700,-0.850
1355,-0.600,-0.570
1356,-0.500,-0.350
1357,-0.340,-0.080
1358,-0.230,0.190
1359,-0.250,0.270
1360,-0.220,0.280
1361,-0.230,0.280
1362,-0.250,0.310
1363,-0.260,0.330
1364,-0.270,0.340
1365,-0.300,0.340
1366,-0.270,0.380
1367,-0.310,0.410
1368,-0.330,0.420
1369,-0.330,0.430
1370,-0.360,0.490
1371,-0.390,0.510
1372,-0.450,0.550
1373,-0.470,0.570
1374,-0.520,0.630
1375,-0.520,0.670
1376,-0.570,0.700
1377,-0.620,0.750
1378,-0.640,0.800
1379,-0.690,0.820
1380,-0.760,0.830
1381,-0.780,0.850
1382,-0.750,0.860
1383,-0.700,0.840
1384,-0.590,0.780
1385,-0.480,0.710
1386,-0.360,0.670
1387,-0.190,0.570
1388,-0.090,0.440
1389,-0.080,0.340
1390,0.010,0.270
1391,0.010,0.200
1392,0.010,0.130
1393,0.010,0.100
1394,0.000,0.090
1395,-0.010,0.100
1396,-0.010,0.080
1397,-0.050,0.060
1398,-0.060,0.080
1399,-0.050,0.080
1400,-0.060,0.090
1401,-0.100,0.080
1402,-0.050,0.100
1403,-0.050,0.120
1404,-0.100,0.100
1405,-0.070,0.090
1406,-0.090,0.100
1407,-0.090,0.120
1408,-0.080,0.100
1409,-0.060,0.090
1410,-0.070,0.100
1411,-0.040,0.100
1412,-0.040,0.080
1413,-0.060,0.050
1414,-0.040,0.050
1415,-0.030,0.060
1416,-0.050,0.050
1417,-0.030,0.040
1418,-0.030,0.050
1419,-0.060,0.130
1420,-0.050,0.200
1421,-0.060,0.190
1422,-0.040,0.210
1423,0.020,0.170
1424,0.030,0.050
1425,0.030,0.030
1426,0.050,-0.020
1427,0.050,-0.010
1428,0.040,-0.020
1429,0.060,-0.030
1430,0.020,-0.040
1431,-0.020,0.040
1432,-0.040,0.010
1433,-0.050,-0.020
1434,-0.050,0.010
1435,-0.030,0.010
1436,-0.020,-0.020
1437,-0.030,-0.010
1438,-0.020,0.000
1439,-0.020,0.000
1440,-0.070,-0.020
1441,-0.040,-0.020
1442,-0.030,-0.010
1443,-0.020,-0.010
1444,0.000,-0.020
1445,-0.020,-0.040
1446,-0.020,-0.010
1447,0.020,-0.020
1448,0.000,-0.030
1449,-0.050,-0.040
1450,0.000,-0.020
1451,0.090,0.030
1452,0.420,0.140
1453,0.650,0.050
1454,1.630,-1.010
1455,2.280,-2.850
1456,1.700,-3.660
1457,0.830,-3.840
1458,0.290,-3.140
1459,0.040,-2.310
1460,-0.330,-1.730
1461,-0.680,-1.290
1462,-0.700,-0.790
1463,-0.600,-0.530
1464,-0.490,-0.320
1465,-0.340,-0.050
1466,-0.260,0.190
1467,-0.280,0.280
1468,-0.290,0.290
1469,-0.260,0.300
1470,-0.280,0.330
1471,-0.260,0.350
1472,-0.270,0.360
1473,-0.290,0.360
1474,-0.300,0.380
1475,-0.340,0.400
1476,-0.370,0.410
1477,-0.390,0.430
1478,-0.390,0.460
1479,-0.430,0.520
1480,-0.440,0.560
1481,-0.480,0.600
1482,-0.550,0.640
1483,-0.590,0.670
1484,-0.610,0.710
1485,-0.710,0.770
1486,-0.750,0.810
1487,-0.760,0.870
1488,-0.800,0.870
1489,-0.790,0.880
1490,-0.780,0.880
1491,-0.780,0.860
1492,-0.670,0.810
1493,-0.550,0.730
1494,-0.440,0.670
1495,-0.290,0.580
1496,-0.150,0.480
1497,-0.090,0.390
1498,-0.030,0.290
1499,0.000,0.220
1500,-0.090,0.150
1501,-0.070,0.100
1502,-0.040,0.090
1503,-0.070,0.090
1504,-0.040,0.070
1505,-0.020,0.060
1506,-0.080,0.060
1507,-0.060,0.050
1508,-0.080,0.040
1509,-0.140,0.040
1510,-0.110,0.050
1511,-0.120,0.080
1512,-0.120,0.060
1513,-0.080,0.060
1514,-0.080,0.080
1515,-0.120,0.070
1516,-0.080,0.050
1517,-0.100,0.060
1518,-0.100,0.050
1519,-0.090,0.040
1520,-0.070,0.070
1521,-0.070,0.050
1522,-0.050,0.050
1523,-0.040,0.050
1524,-0.050,0.020
1525,-0.040,0.030
1526,-0.060,0.040
1527,-0.070,0.090
1528,-0.090,0.170
1529,-0.070,0.140
1530,-0.050,0.210
1531,-0.020,0.170
1532,0.030,0.060
1533,0.060,0.040
1534,0.020,0.000
1535,-0.010,-0.030
1536,0.010,-0.040
1537,0.030,-0.040
1538,0.030,-0.090
1539,0.020,-0.010
1540,-0.020,-0.010
1541,0.000,-0.040
1542,-0.020,-0.040
1543,-0.040,-0.050
1544,-0.020,-0.050
1545,-0.020,-0.030
1546,-0.030,-0.040
1547,-0.010,-0.060
1548,-0.020,-0.050
1549,0.010,-0.050
1550,0.000,-0.060
1551,-0.020,-0.060
1552,-0.030,-0.060
1553,0.010,-0.060
1554,-0.010,-0.050
1555,-0.010,-0.050
1556,0.030,-0.030
1557,0.030,-0.030
1558,0.040,-0.020
1559,0.160,-0.010
1560,0.420,0.100
1561,0.640,0.040
1562,1.750,-0.980
1563,2.370,-2.960
1564,1.800,-3.790
1565,1.000,-4.010
1566,0.400,-3.250
1567,0.020,-2.350
1568,-0.320,-1.800
1569,-0.640,-1.310
1570,-0.720,-0.820
1571,-0.610,-0.570
1572,-0.460,-0.340
1573,-0.300,-0.020
1574,-0.180,0.170
1575,-0.230,0.210
1576,-0.210,0.230
1577,-0.220,0.260
1578,-0.260,0.260
1579,-0.280,0.290
1580,-0.250,0.300
1581,-0.260,0.320
1582,-0.270,0.340
1583,-0.280,0.370
1584,-0.320,0.390
1585,-0.320,0.400
1586,-0.380,0.430
1587,-0.420,0.460
1588,-0.440,0.520
1589,-0.440,0.570
1590,-0.490,0.600
1591,-0.530,0.650
1592,-0.550,0.700
1593,-0.600,0.740
1594,-0.680,0.760
1595,-0.730,0.800
1596,-0.750,0.830
1597,-0.760,0.840
1598,-0.720,0.820
1599,-0.680,0.810
1600,-0.580,0.770
1601,-0.420,0.700
1602,-0.310,0.590
1603,-0.230,0.490
1604,-0.060,0.400
1605,0.020,0.290
1606,0.040,0.200
1607,0.090,0.140
1608,0.080,0.120
1609,0.060,0.080
1610,0.080,0.050
1611,0.030,0.040
1612,0.020,0.030
1613,0.050,0.050
1614,0.020,0.030
1615,0.000,0.050
1616,0.030,0.070
1617,0.010,0.070
1618,-0.020,0.060
1619,0.000,0.060
1620,-0.030,0.080
1621,-0.040,0.090
1622,-0.030,0.080
1623,-0.020,0.090
1624,-0.010,0.090
1625,0.030,0.100
1626,0.000,0.080
1627,-0.010,0.090
1628,0.010,0.090
1629,0.000,0.080
1630,-0.020,0.060
1631,0.020,0.070
1632,0.020,0.060
1633,0.040,0.080
1634,0.030,0.120
1635,0.000,0.200
1636,0.010,0.190
1637,-0.020,0.200
1638,0.020,0.180
1639,0.050,0.060
1640,0.120,0.040
1641,0.120,-0.010
1642,0.080,-0.030
1643,0.110,-0.060
1644,0.100,-0.040
1645,0.040,-0.090
1646,0.040,-0.030
1647,0.000,-0.020
1648,-0.010,-0.030
1649,0.010,-0.050
1650,-0.010,-0.050
1651,-0.030,-0.030
1652,0.010,-0.040
1653,0.000,-0.040
1654,-0.050,-0.050
1655,-0.020,-0.030
1656,-0.020,-0.030
1657,-0.020,-0.010
1658,0.000,-0.030
1659,0.000,-0.010
1660,-0.010,-0.010
1661,0.030,-0.010
1662,0.020,-0.010
1663,-0.030,-0.020
1664,0.020,-0.010
1665,0.040,0.000
1666,0.100,0.030
1667,0.360,0.130
1668,0.630,0.150
1669,1.540,-0.640
1670,2.430,-2.570
1671,2.030,-3.470
1672,1.140,-3.780
1673,0.540,-3.150
1674,0.210,-2.300
1675,-0.260,-1.710
1676,-0.590,-1.220
1677,-0.650,-0.790
1678,-0.560,-0.530
1679,-0.400,-0.300
1680,-0.290,-0.010
1681,-0.190,0.190
1682,-0.200,0.260
1683,-0.230,0.260
1684,-0.190,0.290
1685,-0.190,0.320
1686,-0.240,0.340
1687,-0.270,0.350
1688,-0.280,0.360
1689,-0.310,0.390
1690,-0.340,0.400
1691,-0.320,0.430
1692,-0.350,0.450
1693,-0.370,0.490
1694,-0.380,0.500
1695,-0.420,0.540
1696,-0.460,0.570
1697,-0.490,0.620
1698,-0.550,0.660
1699,-0.600,0.700
1700,-0.620,0.740
1701,-0.660,0.780
1702,-0.700,0.810
1703,-0.720,0.850
1704,-0.730,0.850
1705,-0.710,0.820
1706,-0.640,0.790
1707,-0.560,0.740
1708,-0.430,0.670
1709,-0.250,0.590
1710,-0.120,0.520
1711,0.000,0.410
1712,0.080,0.330
1713,0.070,0.220
1714,0.070,0.150
1715,0.070,0.100
1716,0.090,0.080
1717,0.090,0.060
1718,0.110,0.060
1719,0.100,0.050
1720,0.080,0.030
1721,0.090,0.010
1722,0.010,0.020
1723,0.000,0.010
1724,0.030,0.010
1725,0.020,0.020
1726,0.030,0.010
1727,0.020,0.020
1728,0.020,0.030
1729,0.020,0.020
1730,0.020,0.030
1731,-0.020,0.040
1732,0.020,0.020
1733,0.040,0.010
1734,0.030,0.020
1735,0.040,0.010
1736,0.080,0.000
1737,0.090,0.000
1738,0.070,0.010
1739,0.030,-0.030
1740,0.030,0.000
1741,0.060,0.040
1742,0.040,0.140
1743,0.060,0.100
1744,0.040,0.170
1745,0.120,0.130
1746,0.170,0.040
1747,0.120,-0.010
1748,0.160,-0.030
1749,0.170,-0.050
1750,0.170,-0.060
1751,0.160,-0.070
1752,0.130,-0.110
1753,0.140,-0.030
1754,0.130,-0.040
1755,0.080,-0.050
1756,0.060,-0.070
1757,0.100,-0.060
1758,0.040,-0.060
1759,0.050,-0.100
1760,0.100,-0.060
1761,0.090,-0.070
1762,0.070,-0.070
1763,0.120,-0.070
1764,0.090,-0.090
1765,0.070,-0.060
1766,0.090,-0.070
1767,0.110,-0.080
1768,0.090,-0.060
1769,0.170,-0.060
1770,0.110,-0.040
1771,0.100,-0.040
1772,0.150,-0.050
1773,0.200,-0.040
1774,0.450,0.050
1775,0.720,0.040
1776,1.740,-0.880
1777,2.510,-2.920
1778,2.010,-3.750
1779,1.120,-4.100
1780,0.440,-3.380
1781,0.190,-2.440
1782,-0.230,-1.890
1783,-0.520,-1.350
1784,-0.570,-0.880
1785,-0.460,-0.590
1786,-0.340,-0.370
1787,-0.150,-0.090
1788,-0.040,0.160
1789,-0.070,0.260
1790,-0.100,0.240
1791,-0.100,0.260
1792,-0.100,0.280
1793,-0.080,0.310
1794,-0.100,0.340
1795,-0.120,0.350
1796,-0.080,0.390
1797,-0.090,0.420
1798,-0.180,0.420
1799,-0.180,0.450
1800,-0.210,0.500
1801,-0.230,0.510
1802,-0.220,0.550
1803,-0.280,0.610
1804,-0.310,0.650
1805,-0.330,0.700
1806,-0.420,0.710
1807,-0.470,0.750
1808,-0.480,0.820
1809,-0.560,0.840
1810,-0.620,0.840
1811,-0.580,0.890
1812,-0.550,0.870
1813,-0.470,0.840
1814,-0.380,0.810
1815,-0.310,0.710
1816,-0.150,0.620
1817,-0.040,0.510
1818,0.030,0.400
1819,0.120,0.320
1820,0.210,0.220
1821,0.210,0.170
1822,0.190,0.080
1823,0.200,0.040
1824,0.170,0.030
1825,0.160,0.030
1826,0.180,0.030
1827,0.150,0.000
1828,0.160,0.000
1829,0.190,0.030
1830,0.150,0.020
1831,0.150,0.020
1832,0.180,0.020
1833,0.080,0.030
1834,0.090,0.000
1835,0.100,0.030
1836,0.140,0.040
1837,0.120,0.040
1838,0.100,0.030
1839,0.120,0.040
1840,0.100,0.030
1841,0.120,0.010
1842,0.100,0.020
1843,0.080,0.010
1844,0.110,0.000
1845,0.100,0.000
1846,0.120,-0.030
1847,0.140,0.010
1848,0.090,0.020
1849,0.050,0.110
1850,0.070,0.110
1851,0.040,0.120
1852,0.090,0.140
1853,0.170,0.040
1854,0.150,-0.020
1855,0.190,0.000
1856,0.210,-0.060
1857,0.210,-0.080
1858,0.200,-0.110
1859,0.160,-0.120
1860,0.160,-0.080
1861,0.120,-0.050
1862,0.120,-0.070
1863,0.110,-0.060
1864,0.140,-0.060
1865,0.120,-0.070
1866,0.120,-0.080
1867,0.100,-0.070
1868,0.110,-0.060
1869,0.120,-0.070
1870,0.110,-0.090
1871,0.150,-0.080
1872,0.150,-0.060
1873,0.140,-0.070
1874,0.140,-0.080
1875,0.140,-0.050
1876,0.090,-0.050
1877,0.100,-0.060
1878,0.130,-0.070
1879,0.110,-0.050
1880,0.200,-0.040
1881,0.350,0.000
1882,0.650,0.120
1883,1.210,-0.240
1884,2.330,-1.910
1885,2.400,-3.470
1886,1.600,-4.190
1887,0.720,-3.850
1888,0.380,-2.800
1889,-0.100,-2.280
1890,-0.450,-1.580
1891,-0.550,-1.100
1892,-0.480,-0.690
1893,-0.440,-0.470
1894,-0.320,-0.250
1895,-0.150,0.100
1896,-0.120,0.270
1897,-0.140,0.220
1898,-0.110,0.260
1899,-0.100,0.300
1900,-0.150,0.310
1901,-0.160,0.300
1902,-0.190,0.320
1903,-0.190,0.370
1904,-0.200,0.380
1905,-0.200,0.400
1906,-0.230,0.410
1907,-0.240,0.460
1908,-0.230,0.470
1909,-0.310,0.490
1910,-0.360,0.510
1911,-0.400,0.570
1912,-0.440,0.630
1913,-0.480,0.660
1914,-0.510,0.690
1915,-0.550,0.740
1916,-0.630,0.780
1917,-0.600,0.820
1918,-0.670,0.820
1919,-0.700,0.830
1920,-0.650,0.840
1921,-0.610,0.790
1922,-0.480,0.730
1923,-0.320,0.690
1924,-0.220,0.600
1925,-0.070,0.500
1926,0.050,0.400
1927,0.090,0.310
1928,0.090,0.220
1929,0.120,0.160
1930,0.110,0.110
1931,0.110,0.110
1932,0.140,0.090
1933,0.090,0.090
1934,0.080,0.070
1935,0.080,0.080
1936,0.030,0.080
1937,0.020,0.070
1938,0.030,0.070
1939,0.000,0.100
1940,0.000,0.100
1941,0.020,0.120
1942,-0.010,0.110
1943,0.010,0.130
1944,-0.010,0.120
1945,-0.030,0.120
1946,0.000,0.130
1947,0.020,0.150
1948,0.000,0.160
1949,0.030,0.170
1950,0.060,0.150
1951,0.020,0.180
1952,0.040,0.170
1953,0.010,0.160
1954,0.000,0.160
1955,0.000,0.200
1956,-0.010,0.290
1957,-0.010,0.300
1958,0.000,0.300
1959,0.030,0.320
1960,0.050,0.210
1961,0.060,0.110
1962,0.080,0.090
1963,0.070,0.070
1964,0.090,0.040
1965,0.080,0.030
1966,0.040,0.020
1967,0.050,0.040
1968,0.030,0.060
1969,0.000,0.040
1970,-0.030,0.040
1971,-0.020,0.040
1972,-0.020,0.040
1973,-0.010,0.000
1974,-0.010,0.020
1975,-0.010,0.040
1976,0.050,0.000
1977,0.000,0.000
1978,-0.090,-0.020
1979,-0.040,0.030
1980,0.070,0.010
1981,-0.060,0.030
1982,0.060,-0.030
1983,0.090,-0.050
1984,0.080,0.010
1985,0.060,0.000
1986,0.040,-0.020
1987,0.090,-0.020
1988,0.250,0.180
1989,0.630,0.250
1990,1.210,-0.160
1991,2.240,-1.860
1992,2.450,-3.240
1993,1.690,-3.890
1994,0.770,-3.570
1995,0.530,-2.680
1996,-0.110,-2.050
1997,-0.440,-1.450
1998,-0.550,-0.940
1999,-0.420,-0.580
2000,-0.340,-0.460
2001,-0.180,-0.100
2002,-0.140,0.250
2003,-0.020,0.270
2004,-0.070,0.290
2005,-0.110,0.330
2006,-0.070,0.370
2007,-0.040,0.400
2008,-0.100,0.400
2009,-0.120,0.420
2010,-0.120,0.450
2011,-0.130,0.470
2012,-0.170,0.510
2013,-0.220,0.510
2014,-0.240,0.550
2015,-0.280,0.580
2016,-0.260,0.610
2017,-0.340,0.630
2018,-0.390,0.700
2019,-0.390,0.730
2020,-0.420,0.780
2021,-0.570,0.800
2022,-0.600,0.870
2023,-0.690,0.900
2024,-0.750,0.930
2025,-0.700,0.930
2026,-0.700,0.960
2027,-0.660,0.950
2028,-0.580,0.890
2029,-0.510,0.800
2030,-0.400,0.730
2031,-0.200,0.640
2032,-0.050,0.530
2033,0.000,0.420
2034,0.100,0.310
2035,0.070,0.260
2036,0.140,0.190
2037,0.120,0.140
2038,0.030,0.100
2039,0.050,0.100
2040,0.080,0.100
2041,0.040,0.080
2042,0.020,0.060
2043,0.100,0.090
2044,0.010,0.080
2045,0.030,0.080
2046,0.000,0.070
2047,-0.060,0.080
2048,-0.030,0.070
2049,-0.020,0.060
2050,-0.040,0.070
2051,-0.030,0.100
2052,-0.030,0.100
2053,-0.030,0.090
2054,0.000,0.090
2055,-0.070,0.060
2056,-0.040,0.070
2057,-0.020,0.060
2058,-0.010,0.060
2059,-0.030,0.060
2060,0.020,0.060
2061,0.010,0.060
2062,-0.010,0.120
2063,-0.050,0.190
2064,-0.080,0.180
2065,-0.050,0.210
2066,0.060,0.180
2067,0.050,0.080
2068,0.100,0.050
2069,0.090,0.000
2070,0.100,-0.020
2071,0.150,-0.020
2072,0.080,-0.030
2073,0.070,-0.070
2074,0.090,0.010
2075,0.020,0.030
2076,0.020,0.000
2077,0.040,0.000
2078,0.060,0.000
2079,0.060,0.030
2080,0.040,0.020
2081,0.020,-0.010
2082,0.020,0.030
2083,0.030,0.040
2084,0.030,0.040
2085,0.060,0.020
2086,0.060,0.040
2087,0.040,0.040
2088,0.050,0.030
2089,0.120,0.020
2090,0.010,0.000
2091,0.060,0.070
2092,0.080,-0.010
2093,0.040,0.020
2094,0.240,0.010
2095,0.480,0.140
2096,0.690,0.080
2097,1.800,-0.900
2098,2.470,-2.910
2099,1.800,-3.840
2100,0.950,-4.080
2101,0.450,-3.230
2102,-0.020,-2.300
2103,-0.330,-1.780
2104,-0.580,-1.260
2105,-0.690,-0.810
2106,-0.620,-0.540
2107,-0.490,-0.320
2108,-0.360,-0.050
2109,-0.210,0.200
2110,-0.210,0.250
2111,-0.220,0.250
2112,-0.250,0.300
2113,-0.290,0.330
2114,-0.250,0.340
2115,-0.320,0.310
2116,-0.270,0.340
2117,-0.290,0.400
2118,-0.320,0.410
2119,-0.340,0.420
2120,-0.380,0.500
2121,-0.390,0.510
2122,-0.410,0.530
2123,-0.470,0.560
2124,-0.520,0.600
2125,-0.500,0.670
2126,-0.600,0.680
2127,-0.610,0.730
2128,-0.700,0.800
2129,-0.730,0.870
2130,-0.750,0.900
2131,-0.870,0.910
2132,-0.910,0.910
2133,-0.830,0.930
2134,-0.830,0.900
2135,-0.710,0.900
2136,-0.550,0.800
2137,-0.410,0.750
2138,-0.270,0.630
2139,-0.160,0.510
2140,-0.090,0.400
2141,-0.050,0.310
2142,-0.020,0.240
2143,-0.020,0.170
2144,-0.040,0.140
2145,-0.010,0.130
2146,-0.050,0.110
2147,-0.070,0.100
2148,-0.070,0.090
2149,-0.090,0.090
2150,-0.110,0.100
2151,-0.120,0.090
2152,-0.110,0.090
2153,-0.110,0.100
2154,-0.160,0.100
2155,-0.100,0.110
2156,-0.150,0.100
2157,-0.110,0.110
2158,-0.140,0.100
2159,-0.170,0.100
2160,-0.100,0.110
2161,-0.100,0.130
2162,-0.100,0.100
2163,-0.080,0.110
2164,-0.050,0.110
2165,-0.090,0.100
2166,-0.080,0.080
2167,-0.080,0.090
2168,-0.090,0.120
2169,-0.050,0.190
2170,-0.090,0.250
2171,-0.110,0.230
2172,-0.090,0.270
2173,-0.020,0.220
2174,-0.020,0.090
2175,-0.010,0.100
2176,0.030,0.060
2177,0.000,0.030
2178,0.030,0.010
2179,0.040,0.020
2180,-0.020,0.000
2181,0.000,0.060
2182,-0.030,0.050
2183,-0.110,0.020
2184,-0.100,0.040
2185,-0.080,0.030
2186,-0.100,0.010
2187,-0.080,0.020
2188,-0.040,0.040
2189,-0.080,0.040
2190,-0.060,0.030
2191,-0.060,0.010
2192,-0.110,0.030
2193,-0.100,0.040
2194,-0.080,0.020
2195,-0.080,0.040
2196,-0.090,0.030
2197,-0.070,0.050
2198,-0.070,0.030
2199,-0.060,0.030
2200,-0.050,0.050
2201,0.040,0.080
2202,0.380,0.210
2203,0.600,0.130
2204,1.780,-0.890
2205,2.510,-2.720
2206,1.970,-3.590
2207,1.090,-3.700
2208,0.500,-2.870
2209,0.060,-2.090
2210,-0.490,-1.510
2211,-0.800,-1.070
2212,-0.840,-0.650
2213,-0.780,-0.430
2214,-0.610,-0.210
2215,-0.450,0.100
2216,-0.390,0.250
2217,-0.430,0.290
2218,-0.420,0.300
2219,-0.420,0.320
2220,-0.440,0.340
2221,-0.440,0.350
2222,-0.470,0.360
2223,-0.490,0.400
2224,-0.480,0.420
2225,-0.530,0.440
2226,-0.560,0.470
2227,-0.590,0.510
2228,-0.640,0.540
2229,-0.660,0.580
2230,-0.670,0.630
2231,-0.710,0.670
2232,-0.770,0.730
2233,-0.780,0.760
2234,-0.870,0.800
2235,-0.960,0.840
2236,-1.010,0.870
2237,-1.070,0.910
2238,-1.080,0.940
2239,-1.070,0.950
2240,-1.060,0.940
2241,-0.990,0.900
2242,-0.860,0.850
2243,-0.750,0.770
2244,-0.620,0.680
2245,-0.440,0.580
2246,-0.300,0.480
2247,-0.200,0.390
2248,-0.140,0.310
2249,-0.130,0.230
2250,-0.130,0.180
2251,-0.110,0.140
2252,-0.170,0.120
2253,-0.170,0.110
2254,-0.160,0.100
2255,-0.170,0.100
2256,-0.200,0.090
2257,-0.180,0.110
2258,-0.190,0.110
2259,-0.220,0.110
2260,-0.240,0.100
2261,-0.280,0.100
2262,-0.280,0.110
2263,-0.250,0.110
2264,-0.270,0.120
2265,-0.270,0.120
2266,-0.230,0.130
2267,-0.240,0.120
2268,-0.260,0.100
2269,-0.270,0.100
2270,-0.250,0.100
2271,-0.240,0.100
2272,-0.210,0.090
2273,-0.210,0.070
2274,-0.210,0.100
2275,-0.220,0.160
2276,-0.240,0.220
2277,-0.280,0.210
2278,-0.220,0.250
2279,-0.180,0.220
2280,-0.150,0.100
2281,-0.140,0.090
2282,-0.110,0.050
2283,-0.130,0.030
2284,-0.100,0.020
2285,-0.120,0.030
2286,-0.200,0.010
2287,-0.160,0.050
2288,-0.230,0.060
2289,-0.230,0.050
2290,-0.180,0.030
2291,-0.200,0.070
2292,-0.220,0.050
2293,-0.180,0.040
2294,-0.210,0.020
2295,-0.210,0.040
2296,-0.230,0.010
2297,-0.210,0.020
2298,-0.190,0.000
2299,-0.160,0.010
2300,-0.170,-0.020
2301,-0.220,0.000
2302,-0.170,0.000
2303,-0.190,-0.020
2304,-0.190,-0.020
2305,-0.160,0.000
2306,-0.120,-0.010
2307,-0.040,0.020
2308,0.260,0.150
2309,0.580,0.030
2310,1.620,-1.080
2311,2.400,-2.930
2312,2.040,-3.630
2313,1.040,-3.830
2314,0.440,-3.160
2315,0.080,-2.310
2316,-0.390,-1.750
2317,-0.880,-1.270
2318,-0.880,-0.790
2319,-0.800,-0.540
2320,-0.660,-0.350
2321,-0.580,-0.050
2322,-0.460,0.200
2323,-0.400,0.260
2324,-0.450,0.250
2325,-0.390,0.300
2326,-0.450,0.320
2327,-0.400,0.330
2328,-0.450,0.310
2329,-0.460,0.330
2330,-0.500,0.390
2331,-0.510,0.390
2332,-0.520,0.420
2333,-0.550,0.450
2334,-0.560,0.480
2335,-0.570,0.510
2336,-0.640,0.560
2337,-0.690,0.610
2338,-0.750,0.640
2339,-0.800,0.710
2340,-0.830,0.740
2341,-0.910,0.770
2342,-0.950,0.840
2343,-1.060,0.880
2344,-1.020,0.920
2345,-1.030,0.900
2346,-1.110,0.890
2347,-0.940,0.850
2348,-0.860,0.780
2349,-0.740,0.720
2350,-0.470,0.620
2351,-0.340,0.530
2352,-0.180,0.390
2353,-0.190,0.310
2354,-0.070,0.230
2355,-0.080,0.160
2356,-0.020,0.090
2357,-0.060,0.070
2358,-0.060,0.050
2359,-0.030,0.070
2360,-0.060,0.030
2361,-0.060,0.050
2362,-0.050,0.050
2363,-0.140,0.020
2364,-0.140,0.020
2365,-0.090,0.010
2366,-0.070,0.050
2367,-0.180,0.050
2368,-0.070,0.060
2369,-0.110,0.080
2370,-0.160,0.060
2371,-0.110,0.070
2372,-0.200,0.070
2373,-0.130,0.030
2374,-0.130,0.050
2375,-0.130,0.060
2376,-0.120,0.050
2377,-0.090,0.050
2378,-0.080,0.030
2379,-0.130,0.030
2380,-0.090,0.000
2381,-0.110,0.040
2382,-0.080,0.100
2383,-0.110,0.150
2384,-0.100,0.120
2385,-0.080,0.190
2386,0.000,0.120
2387,-0.020,0.000
2388,0.020,0.000
2389,-0.010,0.000
2390,0.080,-0.030
2391,0.050,-0.100
2392,0.030,-0.090
2393,0.030,-0.100
2394,-0.010,-0.010
2395,-0.040,-0.030
2396,-0.020,-0.090
2397,-0.100,-0.040
2398,-0.010,-0.070
2399,-0.030,-0.070
2400,-0.070,-0.070
2401,-0.060,-0.060
2402,0.040,-0.020
2403,-0.080,-0.060
2404,0.010,-0.080
2405,-0.080,-0.060
2406,-0.050,-0.030
2407,-0.010,-0.050
2408,-0.030,-0.060
2409,0.000,-0.040
2410,0.010,-0.060
2411,0.010,-0.060
2412,-0.010,-0.080
2413,0.120,-0.060
2414,0.180,-0.010
2415,0.590,0.120
2416,1.130,-0.250
2417,2.400,-1.900
2418,2.550,-3.220
2419,1.830,-3.930
2420,0.840,-3.560
2421,0.420,-2.540
2422,-0.100,-2.000
2423,-0.630,-1.360
2424,-0.730,-0.940
2425,-0.640,-0.620
2426,-0.550,-0.400
2427,-0.460,-0.220
2428,-0.270,0.090
2429,-0.240,0.240
2430,-0.220,0.230
2431,-0.300,0.240
2432,-0.260,0.280
2433,-0.280,0.300
2434,-0.260,0.320
2435,-0.300,0.320
2436,-0.310,0.360
2437,-0.320,0.380
2438,-0.290,0.390
2439,-0.390,0.390
2440,-0.400,0.420
2441,-0.400,0.470
2442,-0.520,0.480
2443,-0.500,0.530
2444,-0.530,0.580
2445,-0.580,0.630
2446,-0.650,0.680
2447,-0.650,0.690
2448,-0.760,0.740
2449,-0.870,0.790
2450,-0.870,0.840
2451,-0.910,0.880
2452,-0.950,0.890
2453,-0.870,0.880
2454,-0.820,0.860
2455,-0.670,0.780
2456,-0.510,0.720
2457,-0.380,0.600
2458,-0.250,0.490
2459,-0.020,0.390
2460,0.020,0.290
2461,0.090,0.210
2462,0.090,0.130
2463,0.070,0.110
2464,0.110,0.080
2465,0.090,0.040
2466,0.020,0.040
2467,0.060,0.040
2468,0.060,0.030
2469,0.060,0.010
2470,0.020,0.020
2471,0.070,0.040
2472,0.060,0.040
2473,-0.020,0.040
2474,-0.020,0.030
2475,0.000,0.040
2476,-0.020,0.040
2477,0.020,0.040
2478,0.020,0.040
2479,0.030,0.070
2480,0.060,0.060
2481,0.050,0.050
2482,0.020,0.030
2483,0.030,0.060
2484,0.060,0.050
2485,0.050,0.040
2486,0.080,0.030
2487,0.080,0.060
2488,0.070,0.100
2489,0.040,0.190
2490,0.060,0.160
2491,0.030,0.170
2492,0.070,0.170
2493,0.110,0.040
2494,0.110,0.050
2495,0.180,-0.010
2496,0.160,0.010
2497,0.140,-0.030
2498,0.170,-0.020
2499,0.140,-0.040
2500,0.080,-0.020
2501,0.090,0.000
2502,0.090,-0.010
2503,0.070,0.010
2504,0.060,-0.010
2505,0.090,-0.010
2506,0.080,0.000
2507,0.080,0.020
2508,0.070,-0.010
2509,0.020,0.000
2510,0.070,0.000
2511,0.080,0.010
2512,0.040,0.010
2513,0.080,0.000
2514,0.080,0.010
2515,0.070,0.020
2516,0.070,-0.010
2517,0.050,-0.030
2518,0.050,0.000
2519,0.080,0.010
2520,0.180,0.020
2521,0.370,0.110
2522,0.700,0.180
2523,1.640,-0.500
2524,2.670,-2.370
2525,2.670,-3.180
2526,1.960,-3.540
2527,0.960,-2.990
2528,0.750,-2.140
2529,0.060,-1.640
2530,-0.600,-1.160
2531,-0.650,-0.750
2532,-0.540,-0.510
2533,-0.470,-0.340
2534,-0.330,-0.080
2535,-0.240,0.170
2536,-0.230,0.280
2537,-0.210,0.260
2538,-0.210,0.290
2539,-0.250,0.330
2540,-0.230,0.330
2541,-0.240,0.330
2542,-0.280,0.370
2543,-0.340,0.370
2544,-0.340,0.390
2545,-0.390,0.430
2546,-0.400,0.460
2547,-0.400,0.500
2548,-0.450,0.530
2549,-0.500,0.550
2550,-0.510,0.610
2551,-0.590,0.640
2552,-0.670,0.660
2553,-0.710,0.720
2554,-0.780,0.770
2555,-0.830,0.820
2556,-0.850,0.850
2557,-0.920,0.890
2558,-0.930,0.900
2559,-0.890,0.880
2560,-0.890,0.840
2561,-0.770,0.800
2562,-0.580,0.740
2563,-0.440,0.670
2564,-0.250,0.550
2565,-0.090,0.480
2566,0.030,0.380
2567,0.080,0.300
2568,0.090,0.230
2569,0.070,0.190
2570,0.090,0.160
2571,0.100,0.140
2572,0.080,0.120
2573,0.090,0.110
2574,0.110,0.110
2575,0.080,0.100
2576,0.060,0.070
2577,0.040,0.080
2578,0.000,0.080
2579,-0.020,0.090
2580,0.020,0.080
2581,0.020,0.080
2582,-0.020,0.110
2583,0.010,0.080
2584,0.010,0.090
2585,-0.010,0.080
2586,0.010,0.080
2587,-0.010,0.080
2588,0.010,0.080
2589,0.050,0.070
2590,0.030,0.080
2591,0.040,0.080
2592,0.090,0.060
2593,0.070,0.110
2594,-0.030,0.190
2595,0.060,0.210
2596,0.050,0.190
2597,0.070,0.190
2598,0.160,0.090
2599,0.160,0.040
2600,0.190,0.010
2601,0.210,0.000
2602,0.220,-0.040
2603,0.130,-0.050
2604,0.180,-0.030
2605,0.130,-0.030
2606,0.170,0.000
2607,0.150,0.000
2608,0.120,-0.040
2609,0.120,-0.010
2610,0.140,-0.040
2611,0.080,-0.050
2612,0.110,-0.050
2613,0.150,-0.040
2614,0.140,-0.030
2615,0.150,-0.060
2616,0.190,-0.030
2617,0.150,-0.040
2618,0.160,-0.040
2619,0.170,-0.040
2620,0.140,-0.030
2621,0.160,-0.070
2622,0.170,-0.040
2623,0.160,-0.060
2624,0.240,-0.070
2625,0.230,-0.030
2626,0.420,0.030
2627,0.740,0.120
2628,1.490,-0.500
2629,2.520,-2.310
2630,2.610,-3.370
2631,1.900,-3.890
2632,0.930,-3.530
2633,0.600,-2.570
2634,0.030,-2.030
2635,-0.370,-1.450
2636,-0.510,-1.000
2637,-0.520,-0.690
2638,-0.420,-0.520
2639,-0.280,-0.210
2640,-0.120,0.050
2641,-0.020,0.220
2642,-0.070,0.190
2643,-0.070,0.250
2644,-0.040,0.280
2645,-0.130,0.270
2646,-0.130,0.280
2647,-0.160,0.310
2648,-0.120,0.340
2649,-0.090,0.310
2650,-0.230,0.400
2651,-0.220,0.430
2652,-0.190,0.460
2653,-0.220,0.490
2654,-0.380,0.530
2655,-0.330,0.560
2656,-0.370,0.640
2657,-0.420,0.690
2658,-0.560,0.720
2659,-0.550,0.830
2660,-0.670,0.830
2661,-0.560,0.860
2662,-0.730,0.890
2663,-0.810,0.920
2664,-0.760,0.930
2665,-0.680,0.910
2666,-0.650,0.850
2667,-0.380,0.800
2668,-0.290,0.700
2669,-0.140,0.620
2670,-0.010,0.510
2671,0.120,0.370
2672,0.150,0.300
2673,0.250,0.220
2674,0.180,0.170
2675,0.170,0.130
2676,0.230,0.090
2677,0.160,0.080
2678,0.140,0.070
2679,0.170,0.050
2680,0.170,0.030
2681,0.090,0.050
2682,0.230,0.020
2683,0.080,0.040
2684,0.140,0.060
2685,0.130,0.060
2686,0.160,0.030
2687,0.030,0.050
2688,0.120,0.050
2689,0.060,0.070
2690,0.060,0.050
2691,0.140,0.070
2692,0.080,0.070
2693,0.150,0.060
2694,0.180,0.070
2695,0.130,0.040
2696,0.070,0.040
2697,0.210,0.050
2698,0.100,0.050
2699,0.200,0.070
2700,0.200,0.160
2701,0.140,0.160
2702,0.160,0.140
2703,0.200,0.220
2704,0.220,0.110
2705,0.260,0.010
2706,0.260,-0.010
2707,0.240,0.000
2708,0.220,-0.060
2709,0.290,-0.050
2710,0.300,-0.040
2711,0.260,-0.070
2712,0.220,-0.010
2713,0.260,-0.040
2714,0.170,-0.070
2715,0.140,-0.060
2716,0.230,-0.030
2717,0.170,-0.050
2718,0.200,-0.060
2719,0.240,-0.030
2720,0.180,-0.040
2721,0.220,-0.060
2722,0.180,-0.060
2723,0.170,-0.050
2724,0.250,-0.020
2725,0.220,-0.080
2726,0.190,-0.070
2727,0.190,-0.060
2728,0.220,-0.040
2729,0.220,-0.070
2730,0.230,-0.080
2731,0.250,-0.040
2732,0.440,0.030
2733,0.830,0.140
2734,1.560,-0.330
2735,2.630,-2.020
2736,2.780,-3.090
2737,2.130,-3.700
2738,1.130,-3.310
2739,0.720,-2.330
2740,0.150,-1.820
2741,-0.380,-1.270
2742,-0.460,-0.900
2743,-0.400,-0.590
2744,-0.310,-0.400
2745,-0.210,-0.220
2746,-0.100,0.060
2747,0.000,0.200
2748,-0.040,0.180
2749,-0.060,0.210
2750,-0.090,0.210
2751,-0.060,0.240
2752,-0.040,0.250
2753,-0.120,0.280
2754,-0.120,0.290
2755,-0.130,0.330
2756,-0.120,0.340
2757,-0.200,0.370
2758,-0.250,0.400
2759,-0.290,0.450
2760,-0.300,0.490
2761,-0.310,0.520
2762,-0.370,0.560
2763,-0.370,0.620
2764,-0.440,0.660
2765,-0.580,0.690
2766,-0.640,0.730
2767,-0.630,0.770
2768,-0.720,0.800
2769,-0.740,0.790
2770,-0.710,0.820
2771,-0.680,0.820
2772,-0.590,0.770
2773,-0.500,0.720
2774,-0.350,0.630
2775,-0.160,0.560
2776,0.010,0.460
2777,0.120,0.350
2778,0.240,0.260
2779,0.260,0.200
2780,0.270,0.130
2781,0.270,0.090
2782,0.260,0.060
2783,0.220,0.050
2784,0.250,0.040
2785,0.260,0.030
2786,0.220,0.010
2787,0.230,0.040
2788,0.210,0.030
2789,0.210,0.010
2790,0.160,0.020
2791,0.190,0.030
2792,0.130,0.030
2793,0.150,0.040
2794,0.140,0.040
2795,0.150,0.050
2796,0.150,0.050
2797,0.170,0.040
2798,0.170,0.040
2799,0.100,0.050
2800,0.170,0.040
2801,0.150,0.040
2802,0.170,0.020
2803,0.200,0.030
2804,0.170,0.040
2805,0.180,0.080
2806,0.160,0.150
2807,0.140,0.150
2808,0.150,0.170
2809,0.200,0.150
2810,0.230,0.040
2811,0.230,0.020
2812,0.270,0.000
2813,0.240,-0.010
2814,0.290,-0.030
2815,0.280,-0.020
2816,0.190,-0.070
2817,0.220,-0.020
2818,0.210,0.000
2819,0.180,-0.020
2820,0.170,-0.010
2821,0.200,0.010
2822,0.170,0.000
2823,0.190,0.010
2824,0.180,0.010
2825,0.160,0.010
2826,0.170,0.020
2827,0.210,0.010
2828,0.170,0.020
2829,0.180,0.010
2830,0.200,0.010
2831,0.180,0.030
2832,0.200,0.010
2833,0.190,0.010
2834,0.190,0.010
2835,0.200,0.010
2836,0.210,0.000
2837,0.280,0.010
2838,0.600,0.150
2839,0.910,0.100
2840,1.860,-0.810
2841,2.810,-2.540
2842,2.800,-3.230
2843,2.060,-3.480
2844,1.120,-2.960
2845,0.920,-2.140
2846,0.200,-1.620
2847,-0.500,-1.180
2848,-0.520,-0.780
2849,-0.440,-0.540
2850,-0.360,-0.320
2851,-0.180,-0.050
2852,-0.130,0.160
2853,-0.110,0.250
2854,-0.090,0.260
2855,-0.120,0.280
2856,-0.140,0.290
2857,-0.100,0.320
2858,-0.120,0.330
2859,-0.200,0.330
2860,-0.210,0.350
2861,-0.200,0.380
2862,-0.240,0.410
2863,-0.220,0.430
2864,-0.310,0.470
2865,-0.320,0.510
2866,-0.330,0.540
2867,-0.420,0.580
2868,-0.490,0.620
2869,-0.510,0.660
2870,-0.600,0.710
2871,-0.630,0.760
2872,-0.650,0.800
2873,-0.730,0.830
2874,-0.780,0.840
2875,-0.740,0.840
2876,-0.770,0.820
2877,-0.690,0.790
2878,-0.540,0.760
2879,-0.440,0.680
2880,-0.260,0.600
2881,-0.060,0.490
2882,0.050,0.410
2883,0.130,0.300
2884,0.150,0.210
2885,0.160,0.140
2886,0.170,0.120
2887,0.190,0.090
2888,0.150,0.040
2889,0.180,0.070
2890,0.170,0.050
2891,0.140,0.040
2892,0.140,0.020
2893,0.140,0.040
2894,0.090,0.030
2895,0.080,0.020
2896,0.130,0.050
2897,0.080,0.040
2898,0.100,0.050
2899,0.120,0.060
2900,0.090,0.060
2901,0.070,0.040
2902,0.080,0.030
2903,0.070,0.050
2904,0.110,0.060
2905,0.160,0.020
2906,0.160,0.060
2907,0.090,0.000
2908,0.130,0.030
2909,0.160,0.010
2910,0.040,0.060
2911,0.110,0.140
2912,0.090,0.130
2913,0.140,0.170
2914,0.150,0.140
2915,0.220,0.050
2916,0.180,0.010
2917,0.240,-0.010
2918,0.170,-0.050
2919,0.230,-0.060
2920,0.220,-0.030
2921,0.200,-0.070
2922,0.200,-0.030
2923,0.160,0.000
2924,0.180,-0.040
2925,0.120,-0.050
2926,0.120,-0.060
2927,0.120,-0.040
2928,0.150,-0.070
2929,0.140,-0.050
2930,0.160,-0.060
2931,0.130,-0.070
2932,0.210,-0.070
2933,0.110,-0.060
2934,0.150,-0.050
2935,0.170,-0.070
2936,0.130,-0.080
2937,0.130,-0.080
2938,0.140,-0.080
2939,0.210,-0.090
2940,0.120,-0.100
2941,0.220,-0.080
2942,0.240,-0.070
2943,0.640,0.090
2944,0.870,-0.080
2945,2.050,-1.180
2946,2.690,-3.030
2947,2.090,-3.760
2948,1.160,-3.710
2949,0.650,-2.840
2950,0.090,-2.110
2951,-0.320,-1.500
2952,-0.550,-1.040
2953,-0.430,-0.740
2954,-0.470,-0.530
2955,-0.340,-0.290
2956,-0.240,-0.010
2957,-0.060,0.180
2958,-0.170,0.180
2959,0.000,0.220
2960,-0.150,0.240
2961,-0.160,0.240
2962,-0.160,0.260
2963,-0.220,0.290
2964,-0.230,0.290
2965,-0.120,0.320
2966,-0.290,0.360
2967,-0.260,0.380
2968,-0.240,0.400
2969,-0.330,0.450
2970,-0.370,0.470
2971,-0.420,0.510
2972,-0.470,0.560
2973,-0.570,0.610
2974,-0.520,0.660
2975,-0.510,0.690
2976,-0.680,0.740
2977,-0.740,0.780
2978,-0.780,0.820
2979,-0.890,0.830
2980,-0.820,0.840
2981,-0.740,0.810
2982,-0.730,0.810
2983,-0.540,0.700
2984,-0.410,0.670
2985,-0.260,0.540
2986,-0.130,0.430
2987,-0.010,0.350
2988,0.090,0.250
2989,0.100,0.160
2990,0.150,0.130
2991,0.080,0.080
2992,0.180,0.030
2993,0.150,0.060
2994,0.070,0.010
2995,0.100,0.010
2996,0.060,0.010
2997,0.100,0.000
2998,0.080,-0.010
2999,0.020,0.030
3000,0.030,0.020
3001,0.080,0.040
3002,0.000,-0.010
3003,-0.050,0.040
3004,0.000,0.020
3005,-0.040,0.020
3006,0.020,0.030
3007,0.060,0.040
3008,0.010,0.010
3009,0.020,0.010
3010,0.090,0.020
3011,0.030,-0.010
3012,0.040,-0.010
3013,0.060,-0.010
3014,0.080,0.000
3015,0.060,0.050
3016,0.050,0.120
3017,0.000,0.100
3018,0.070,0.120
3019,0.130,0.130
3020,0.130,0.000
3021,0.110,-0.020
3022,0.120,-0.030
3023,0.160,-0.040
3024,0.120,-0.080
3025,0.140,-0.040
3026,0.180,-0.090
3027,0.140,-0.040
3028,0.110,-0.050
3029,0.090,-0.090
3030,0.090,-0.080
3031,0.060,-0.090
3032,0.070,-0.100
3033,0.100,-0.110
3034,0.140,-0.060
3035,0.110,-0.080
3036,0.110,-0.090
3037,0.100,-0.090
3038,0.080,-0.070
3039,0.080,-0.080
3040,0.090,-0.070
3041,0.110,-0.080
3042,0.130,-0.070
3043,0.110,-0.070
3044,0.100,-0.070
3045,0.120,-0.070
3046,0.150,-0.070
3047,0.190,-0.050
3048,0.470,0.060
3049,0.820,0.070
3050,1.880,-0.790
3051,2.770,-2.580
3052,2.470,-3.320
3053,1.680,-3.500
3054,0.900,-2.860
3055,0.620,-2.050
3056,-0.050,-1.530
3057,-0.540,-1.130
3058,-0.620,-0.750
3059,-0.490,-0.530
3060,-0.400,-0.340
3061,-0.230,-0.080
3062,-0.150,0.110
3063,-0.220,0.190
3064,-0.220,0.200
3065,-0.190,0.210
3066,-0.220,0.220
3067,-0.250,0.250
3068,-0.240,0.260
3069,-0.280,0.280
3070,-0.250,0.300
3071,-0.300,0.300
3072,-0.370,0.330
3073,-0.370,0.370
3074,-0.410,0.390
3075,-0.430,0.420
3076,-0.450,0.460
3077,-0.450,0.520
3078,-0.530,0.570
3079,-0.560,0.590
3080,-0.650,0.640
3081,-0.740,0.660
3082,-0.800,0.720
3083,-0.870,0.750
3084,-0.910,0.780
3085,-0.870,0.800
3086,-0.870,0.800
3087,-0.840,0.780
3088,-0.660,0.710
3089,-0.570,0.640
3090,-0.430,0.570
3091,-0.250,0.470
3092,-0.060,0.390
3093,0.010,0.310
3094,0.080,0.240
3095,0.090,0.150
3096,0.080,0.120
3097,0.090,0.090
3098,0.070,0.070
3099,0.030,0.060
3100,0.060,0.060
3101,0.050,0.070
3102,0.040,0.070
3103,0.050,0.070
3104,0.010,0.070
3105,0.020,0.090
3106,-0.060,0.060
3107,-0.050,0.070
3108,-0.070,0.090
3109,-0.050,0.100
3110,-0.030,0.080
3111,-0.060,0.080
3112,-0.030,0.080
3113,-0.030,0.080
3114,-0.040,0.060
3115,-0.040,0.050
3116,-0.040,0.050
3117,-0.030,0.050
3118,0.010,0.030
3119,0.010,0.030
3120,-0.020,0.050
3121,0.000,0.150
3122,-0.020,0.160
3123,-0.060,0.140
3124,0.000,0.140
3125,0.050,0.080
3126,0.050,-0.020
3127,0.090,-0.040
3128,0.100,-0.030
3129,0.120,-0.070
3130,0.110,-0.060
3131,0.060,-0.070
3132,0.030,-0.070
3133,0.040,-0.020
3134,0.030,-0.030
3135,0.010,-0.050
3136,0.020,-0.050
3137,0.040,-0.030
3138,0.020,-0.050
3139,0.020,-0.040
3140,0.000,-0.060
3141,0.000,-0.030
3142,0.030,-0.040
3143,0.030,-0.050
3144,0.000,-0.030
3145,0.050,-0.020
3146,0.030,-0.030
3147,0.020,-0.030
3148,0.040,-0.030
3149,0.020,-0.020
3150,0.000,-0.040
3151,0.030,-0.040
3152,0.090,-0.010
3153,0.250,0.080
3154,0.620,0.170
3155,1.350,-0.360
3156,2.370,-2.040
3157,2.710,-3.000
3158,2.110,-3.480
3159,1.090,-3.120
3160,0.860,-2.280
3161,0.160,-1.730
3162,-0.560,-1.290
3163,-0.650,-0.880
3164,-0.580,-0.590
3165,-0.500,-0.430
3166,-0.390,-0.170
3167,-0.260,0.070
3168,-0.220,0.230
3169,-0.250,0.230
3170,-0.220,0.230
3171,-0.260,0.260
3172,-0.250,0.290
3173,-0.240,0.300
3174,-0.300,0.320
3175,-0.330,0.310
3176,-0.350,0.350
3177,-0.370,0.390
3178,-0.390,0.400
3179,-0.380,0.430
3180,-0.430,0.510
3181,-0.450,0.550
3182,-0.450,0.560
3183,-0.560,0.590
3184,-0.600,0.670
3185,-0.640,0.710
3186,-0.720,0.760
3187,-0.790,0.800
3188,-0.850,0.850
3189,-0.840,0.870
3190,-0.870,0.880
3191,-0.850,0.860
3192,-0.820,0.850
3193,-0.720,0.800
3194,-0.560,0.730
3195,-0.430,0.650
3196,-0.220,0.570
3197,-0.100,0.470
3198,-0.010,0.380
3199,0.070,0.240
3200,0.090,0.190
3201,0.020,0.150
3202,0.080,0.100
3203,0.050,0.060
3204,0.020,0.040
3205,0.070,0.080
3206,0.030,0.020
3207,0.020,0.030
3208,-0.010,0.030
3209,0.000,0.030
3210,-0.080,0.030
3211,-0.040,0.040
3212,-0.040,0.050
3213,-0.050,0.080
3214,-0.080,0.050
3215,-0.030,0.030
3216,-0.050,0.060
3217,-0.040,0.040
3218,-0.040,0.070
3219,-0.080,0.040
3220,-0.060,0.060
3221,0.030,0.030
3222,-0.020,0.060
3223,0.070,0.020
3224,0.040,0.050
3225,-0.030,0.030
3226,-0.010,0.060
3227,-0.020,0.120
3228,-0.040,0.170
3229,0.000,0.170
3230,0.020,0.180
3231,0.040,0.130
3232,0.100,0.070
3233,0.120,0.060
3234,0.090,-0.010
3235,0.010,-0.020
3236,0.100,0.010
3237,0.080,0.000
3238,0.090,-0.070
3239,0.140,0.040
3240,0.040,-0.010
3241,0.020,0.020
3242,0.010,-0.020
3243,0.060,-0.030
3244,-0.030,-0.020
3245,0.130,-0.010
3246,-0.010,-0.040
3247,0.060,-0.040
3248,0.070,-0.010
3249,0.020,0.010
3250,0.090,-0.060
3251,-0.010,-0.030
3252,0.000,-0.050
3253,0.060,-0.040
3254,0.040,-0.070
3255,-0.030,-0.060
3256,0.130,-0.030
3257,0.040,-0.030
3258,0.120,-0.040
3259,0.270,0.010
3260,0.620,0.170
3261,1.280,-0.250
3262,2.440,-1.920
3263,2.520,-3.160
3264,1.970,-3.750
3265,0.900,-3.340
3266,0.580,-2.460
3267,-0.080,-1.910
3268,-0.530,-1.280
3269,-0.640,-0.920
3270,-0.590,-0.600
3271,-0.500,-0.460
3272,-0.360,-0.220
3273,-0.230,0.120
3274,-0.220,0.210
3275,-0.200,0.210
3276,-0.260,0.250
3277,-0.280,0.270
3278,-0.210,0.250
3279,-0.370,0.250
3280,-0.290,0.300
3281,-0.270,0.320
3282,-0.360,0.340
3283,-0.310,0.380
3284,-0.410,0.400
3285,-0.500,0.400
3286,-0.370,0.440
3287,-0.440,0.450
3288,-0.570,0.540
3289,-0.580,0.570
3290,-0.610,0.610
3291,-0.640,0.620
3292,-0.720,0.690
3293,-0.750,0.730
3294,-0.850,0.750
3295,-0.910,0.780
3296,-0.910,0.820
3297,-0.960,0.820
3298,-0.900,0.800
3299,-0.790,0.770
3300,-0.680,0.740
3301,-0.510,0.640
3302,-0.340,0.540
3303,-0.150,0.450
3304,-0.090,0.360
3305,0.050,0.260
3306,0.090,0.170
3307,0.080,0.130
3308,0.100,0.100
3309,0.060,0.070
3310,0.070,0.050
3311,0.130,0.050
3312,0.000,0.050
3313,0.040,0.070
3314,0.050,0.040
3315,0.010,0.040
3316,0.050,0.080
3317,0.000,0.070
3318,0.020,0.080
3319,-0.050,0.060
3320,-0.050,0.100
3321,-0.020,0.110
3322,-0.040,0.090
3323,-0.010,0.110
3324,-0.020,0.100
3325,0.000,0.100
3326,0.020,0.080
3327,-0.030,0.080
3328,0.000,0.060
3329,0.030,0.060
3330,0.020,0.050
3331,0.040,0.030
3332,0.080,0.080
3333,0.020,0.180
3334,0.060,0.150
3335,0.040,0.160
3336,0.080,0.150
3337,0.150,0.060
3338,0.120,0.020
3339,0.120,0.010
3340,0.160,-0.020
3341,0.230,-0.030
3342,0.190,-0.030
3343,0.150,-0.070
3344,0.180,-0.030
3345,0.080,-0.010
3346,0.080,-0.030
3347,0.130,-0.020
3348,0.100,-0.040
3349,0.060,-0.030
3350,0.130,-0.030
3351,0.100,-0.040
3352,0.110,-0.050
3353,0.110,-0.050
3354,0.060,-0.060
3355,0.100,-0.040
3356,0.120,-0.050
3357,0.080,-0.050
3358,0.100,-0.040
3359,0.140,-0.040
3360,0.110,-0.030
3361,0.100,-0.040
3362,0.090,-0.040
3363,0.100,-0.020
3364,0.110,-0.020
3365,0.330,0.040
3366,0.740,0.210
3367,1.340,-0.190
3368,2.450,-1.770
3369,2.720,-2.950
3370,2.210,-3.490
3371,1.160,-3.190
3372,0.850,-2.330
3373,0.160,-1.780
3374,-0.430,-1.230
3375,-0.540,-0.850
3376,-0.510,-0.570
3377,-0.410,-0.400
3378,-0.320,-0.150
3379,-0.210,0.110
3380,-0.160,0.230
3381,-0.200,0.240
3382,-0.230,0.270
3383,-0.190,0.270
3384,-0.210,0.290
3385,-0.230,0.330
3386,-0.210,0.330
3387,-0.250,0.350
3388,-0.340,0.340
3389,-0.330,0.390
3390,-0.360,0.420
3391,-0.360,0.450
3392,-0.400,0.460
3393,-0.430,0.520
3394,-0.490,0.560
3395,-0.520,0.580
3396,-0.580,0.620
3397,-0.690,0.670
3398,-0.710,0.720
3399,-0.760,0.750
3400,-0.850,0.780
3401,-0.860,0.820
3402,-0.880,0.860
3403,-0.880,0.850
3404,-0.840,0.810
3405,-0.760,0.790
3406,-0.620,0.740
3407,-0.420,0.660
3408,-0.260,0.560
3409,-0.090,0.490
3410,0.050,0.400
3411,0.100,0.320
3412,0.120,0.220
3413,0.130,0.170
3414,0.100,0.160
3415,0.110,0.130
3416,0.110,0.090
3417,0.120,0.090
3418,0.110,0.100
3419,0.120,0.080
3420,0.100,0.050
3421,0.060,0.050
3422,0.050,0.050
3423,0.030,0.040
3424,0.010,0.020
3425,0.050,0.040
3426,0.040,0.060
3427,0.000,0.050
3428,0.030,0.040
3429,0.050,0.070
3430,0.030,0.050
3431,0.020,0.050
3432,0.050,0.050
3433,0.040,0.050
3434,0.070,0.050
3435,0.090,0.050
3436,0.060,0.030
3437,0.110,0.050
3438,0.100,0.080
3439,0.010,0.150
3440,0.050,0.170
3441,0.070,0.200
3442,0.100,0.180
3443,0.170,0.090
3444,0.170,0.020
3445,0.180,0.020
3446,0.210,-0.010
3447,0.200,-0.030
3448,0.160,-0.040
3449,0.150,-0.030
3450,0.180,-0.020
3451,0.130,0.010
3452,0.130,-0.020
3453,0.140,-0.010
3454,0.120,-0.020
3455,0.140,-0.030
3456,0.100,-0.050
3457,0.080,0.000
3458,0.110,-0.020
3459,0.130,-0.020
3460,0.090,-0.030
3461,0.120,-0.020
3462,0.120,0.010
3463,0.110,-0.010
3464,0.130,-0.030
3465,0.120,-0.010
3466,0.140,-0.030
3467,0.130,-0.060
3468,0.140,-0.040
3469,0.120,-0.020
3470,0.200,0.030
3471,0.460,0.090
3472,0.730,0.130
3473,1.650,-0.600
3474,2.630,-2.420
3475,2.660,-3.250
3476,1.840,-3.560
3477,0.930,-3.120
3478,0.660,-2.290
3479,0.080,-1.740
3480,-0.510,-1.320
3481,-0.520,-0.880
3482,-0.490,-0.630
3483,-0.360,-0.440
3484,-0.300,-0.190
3485,-0.100,0.060
3486,-0.100,0.220
3487,-0.100,0.200
3488,-0.100,0.240
3489,-0.110,0.270
3490,-0.080,0.270
3491,-0.180,0.260
3492,-0.140,0.270
3493,-0.210,0.320
3494,-0.170,0.340
3495,-0.200,0.340
3496,-0.250,0.380
3497,-0.260,0.440
3498,-0.280,0.460
3499,-0.360,0.460
3500,-0.340,0.520
3501,-0.420,0.580
3502,-0.460,0.630
3503,-0.570,0.690
3504,-0.530,0.700
3505,-0.620,0.770
3506,-0.640,0.800
3507,-0.720,0.820
3508,-0.760,0.820
3509,-0.810,0.850
3510,-0.670,0.810
3511,-0.570,0.740
3512,-0.460,0.690
3513,-0.300,0.640
3514,-0.120,0.520
3515,-0.010,0.430
3516,0.110,0.340
3517,0.140,0.240
3518,0.160,0.180
3519,0.180,0.110
3520,0.160,0.080
3521,0.200,0.070
3522,0.180,0.040
3523,0.110,0.010
3524,0.200,0.010
3525,0.080,0.020
3526,0.090,-0.010
3527,0.080,-0.010
3528,0.110,-0.010
3529,0.090,0.010
3530,0.100,0.010
3531,0.000,0.030
3532,0.070,-0.010
3533,0.000,0.020
3534,0.080,0.020
3535,0.060,0.010
3536,0.020,0.000
3537,0.060,0.040
3538,0.070,0.000
3539,0.060,0.000
3540,0.120,-0.020
3541,0.050,-0.010
3542,0.110,-0.020
3543,0.050,0.020
3544,0.150,-0.010
3545,0.080,0.040
3546,0.080,0.120
3547,0.040,0.120
3548,0.140,0.140
3549,0.170,0.100
3550,0.130,0.000
3551,0.170,-0.020
3552,0.250,-0.070
3553,0.220,-0.050
3554,0.170,-0.090
3555,0.250,-0.080
3556,0.210,-0.130
3557,0.190,-0.070
3558,0.130,-0.080
3559,0.100,-0.100
3560,0.130,-0.070
3561,0.140,-0.120
3562,0.110,-0.090
3563,0.180,-0.120
3564,0.120,-0.090
3565,0.160,-0.090
3566,0.130,-0.140
3567,0.210,-0.100
3568,0.010,-0.100
3569,0.180,-0.070
3570,0.100,-0.110
3571,0.140,-0.090
3572,0.200,-0.080
3573,0.080,-0.080
3574,0.180,-0.110
3575,0.120,-0.070
3576,0.140,-0.080
3577,0.330,-0.050
3578,0.690,0.090
3579,1.160,-0.090
3580,2.350,-1.450
3581,2.670,-2.970
3582,2.160,-3.590
3583,1.190,-3.430
3584,0.780,-2.580
3585,0.220,-1.960
3586,-0.290,-1.400
3587,-0.490,-1.040
3588,-0.530,-0.710
3589,-0.430,-0.540
3590,-0.360,-0.290
3591,-0.180,-0.030
3592,-0.080,0.140
3593,-0.190,0.150
3594,-0.140,0.190
3595,-0.170,0.210
3596,-0.210,0.220
3597,-0.190,0.250
3598,-0.210,0.280
3599,-0.230,0.290
3600,-0.230,0.310
3601,-0.260,0.310
3602,-0.380,0.320
3603,-0.290,0.360
3604,-0.360,0.380
3605,-0.380,0.430
3606,-0.470,0.450
3607,-0.440,0.510
3608,-0.510,0.540
3609,-0.550,0.580
3610,-0.630,0.610
3611,-0.730,0.660
3612,-0.740,0.720
3613,-0.850,0.740
3614,-0.860,0.780
3615,-0.850,0.780
3616,-0.840,0.790
3617,-0.740,0.750
3618,-0.620,0.690
3619,-0.520,0.630
3620,-0.320,0.540
3621,-0.140,0.450
3622,-0.040,0.340
3623,0.100,0.260
3624,0.120,0.190
3625,0.110,0.130
3626,0.120,0.070
3627,0.110,0.050
3628,0.090,0.060
3629,0.070,0.050
3630,0.100,0.040
3631,0.090,0.070
3632,0.050,0.050
3633,0.060,0.040
3634,0.040,0.050
3635,0.000,0.040
3636,0.010,0.040
3637,-0.040,0.050
3638,-0.030,0.050
3639,0.020,0.060
3640,0.020,0.060
3641,-0.030,0.050
3642,0.020,0.050
3643,0.040,0.030
3644,0.000,0.030
3645,0.020,0.020
3646,0.020,0.010
3647,0.040,0.020
3648,0.050,0.020
3649,0.080,0.010
3650,0.080,0.020
3651,0.100,0.060
3652,0.070,0.090
3653,0.010,0.140
3654,0.060,0.140
3655,0.080,0.160
3656,0.120,0.110
3657,0.140,-0.020
3658,0.160,0.020
3659,0.200,-0.020
3660,0.180,-0.050
3661,0.180,-0.050
3662,0.150,-0.030
3663,0.140,-0.050
3664,0.110,-0.010
3665,0.090,-0.010
3666,0.120,-0.020
3667,0.090,-0.010
3668,0.110,-0.020
3669,0.110,-0.040
3670,0.090,-0.010
3671,0.060,-0.020
3672,0.060,-0.010
3673,0.090,-0.010
3674,0.070,0.000
3675,0.090,-0.020
3676,0.100,0.000
3677,0.080,0.000
3678,0.080,-0.010
3679,0.060,-0.010
3680,0.050,-0.010
3681,0.080,-0.010
3682,0.110,0.010
3683,0.110,0.020
3684,0.230,0.050
3685,0.650,0.200
3686,1.090,-0.020
3687,2.190,-1.330
3688,2.750,-2.780
3689,2.410,-3.410
3690,1.460,-3.340
3691,0.930,-2.630
3692,0.510,-1.990
3693,-0.060,-1.440
3694,-0.520,-1.080
3695,-0.600,-0.760
3696,-0.540,-0.540
3697,-0.390,-0.310
3698,-0.260,-0.040
3699,-0.200,0.130
3700,-0.190,0.220
3701,-0.170,0.230
3702,-0.190,0.270
3703,-0.210,0.280
3704,-0.220,0.290
3705,-0.270,0.300
3706,-0.260,0.330
3707,-0.330,0.350
3708,-0.320,0.390
3709,-0.310,0.400
3710,-0.360,0.450
3711,-0.410,0.470
3712,-0.390,0.500
3713,-0.460,0.540
3714,-0.540,0.580
3715,-0.560,0.620
3716,-0.610,0.660
3717,-0.680,0.700
3718,-0.710,0.750
3719,-0.780,0.800
3720,-0.830,0.830
3721,-0.850,0.860
3722,-0.890,0.870
3723,-0.860,0.870
3724,-0.740,0.840
3725,-0.650,0.790
3726,-0.490,0.730
3727,-0.320,0.670
3728,-0.160,0.600
3729,-0.040,0.490
3730,0.070,0.390
3731,0.060,0.300
3732,0.090,0.220
3733,0.120,0.170
3734,0.100,0.130
3735,0.110,0.110
3736,0.110,0.100
3737,0.120,0.100
3738,0.060,0.060
3739,0.050,0.070
3740,0.040,0.080
3741,0.030,0.090
3742,0.030,0.070
3743,0.000,0.070
3744,0.020,0.090
3745,0.010,0.080
3746,0.000,0.080
3747,-0.020,0.080
3748,0.020,0.090
3749,-0.010,0.080
3750,0.000,0.070
3751,0.030,0.060
3752,0.050,0.060
3753,0.040,0.060
3754,0.060,0.040
3755,0.060,0.050
3756,0.040,0.050
3757,0.060,0.050
3758,0.050,0.040
3759,0.030,0.150
3760,0.070,0.210
3761,0.060,0.160
3762,0.080,0.170
3763,0.130,0.110
3764,0.160,0.010
3765,0.130,0.010
3766,0.140,-0.020
3767,0.160,-0.030
3768,0.170,-0.010
3769,0.170,-0.040
3770,0.120,-0.040
3771,0.090,0.030
3772,0.110,0.010
3773,0.060,-0.020
3774,0.060,-0.030
3775,0.030,-0.020
3776,0.080,-0.010
3777,0.050,-0.020
3778,0.060,-0.040
3779,0.130,-0.010
3780,0.130,-0.010
3781,0.090,-0.020
3782,0.030,-0.040
3783,0.080,-0.020
3784,0.060,-0.020
3785,0.090,-0.010
3786,0.050,-0.050
3787,0.090,-0.020
3788,0.120,-0.030
3789,0.080,-0.050
3790,0.120,-0.030
3791,0.310,0.010
3792,0.590,0.170
3793,1.300,-0.280
3794,2.340,-1.970
3795,2.500,-3.210
3796,1.730,-3.770
3797,0.790,-3.510
3798,0.450,-2.600
3799,-0.110,-1.980
3800,-0.550,-1.400
3801,-0.660,-0.990
3802,-0.580,-0.660
3803,-0.460,-0.450
3804,-0.340,-0.180
3805,-0.180,0.110
3806,-0.190,0.260
3807,-0.190,0.270
3808,-0.230,0.290
3809,-0.190,0.320
3810,-0.240,0.310
3811,-0.200,0.350
3812,-0.300,0.350
3813,-0.300,0.380
3814,-0.200,0.390
3815,-0.320,0.400
3816,-0.350,0.430
3817,-0.380,0.450
3818,-0.420,0.470
3819,-0.510,0.530
3820,-0.440,0.540
3821,-0.450,0.590
3822,-0.550,0.650
3823,-0.550,0.660
3824,-0.660,0.730
3825,-0.720,0.750
3826,-0.780,0.760
3827,-0.790,0.840
3828,-0.910,0.800
3829,-0.810,0.840
3830,-0.830,0.820
3831,-0.750,0.820
3832,-0.630,0.750
3833,-0.420,0.630
3834,-0.370,0.590
3835,-0.190,0.470
3836,-0.050,0.370
3837,0.040,0.250
3838,-0.010,0.170
3839,0.170,0.120
3840,0.010,0.080
3841,0.040,0.060
3842,0.030,0.060
3843,0.020,0.020
3844,-0.020,0.020
3845,0.060,0.020
3846,0.040,0.040
3847,0.020,0.010
3848,0.010,0.020
3849,-0.020,0.020
3850,-0.090,0.020
3851,0.000,0.050
3852,-0.050,0.050
3853,-0.020,0.010
3854,-0.010,0.030
3855,-0.030,0.020
3856,-0.050,0.040
3857,0.040,0.030
3858,-0.020,0.010
3859,-0.070,0.020
3860,0.000,0.020
3861,-0.040,-0.010
3862,0.060,0.020
3863,0.010,0.010
3864,0.020,0.010
3865,0.000,0.060
3866,0.000,0.130
3867,-0.030,0.140
3868,-0.010,0.120
3869,0.030,0.130
3870,0.050,0.020
3871,0.070,0.030
3872,0.080,-0.060
3873,0.050,-0.010
3874,0.140,-0.070
3875,0.100,-0.040
3876,0.000,-0.090
3877,0.030,-0.050
3878,0.070,-0.010
3879,0.030,-0.070
3880,-0.030,-0.060
3881,0.060,-0.040
3882,0.030,-0.050
3883,0.020,-0.050
3884,0.000,-0.070
3885,-0.040,-0.070
3886,0.030,-0.030
3887,0.050,-0.030
3888,0.030,-0.040
3889,0.060,-0.020
3890,0.070,-0.030
3891,0.030,-0.030
3892,0.050,-0.030
3893,0.030,-0.030
3894,0.000,-0.040
3895,0.040,-0.030
3896,0.090,-0.040
3897,0.170,-0.010
3898,0.500,0.080
3899,0.740,0.100
3900,1.830,-0.650
3901,2.650,-2.530
3902,2.250,-3.320
3903,1.430,-3.550
3904,0.700,-2.940
3905,0.380,-2.100
3906,-0.200,-1.590
3907,-0.580,-1.140
3908,-0.700,-0.770
3909,-0.570,-0.530
3910,-0.480,-0.360
3911,-0.350,-0.110
3912,-0.260,0.130
3913,-0.270,0.250
3914,-0.280,0.220
3915,-0.290,0.250
3916,-0.300,0.290
3917,-0.270,0.310
3918,-0.280,0.320
3919,-0.360,0.330
3920,-0.330,0.360
3921,-0.350,0.400
3922,-0.390,0.400
3923,-0.420,0.410
3924,-0.400,0.460
3925,-0.450,0.510
3926,-0.460,0.520
3927,-0.520,0.530
3928,-0.620,0.600
3929,-0.610,0.650
3930,-0.690,0.690
3931,-0.750,0.700
3932,-0.810,0.780
3933,-0.830,0.820
3934,-0.920,0.830
3935,-0.890,0.850
3936,-0.910,0.850
3937,-0.890,0.840
3938,-0.730,0.790
3939,-0.580,0.720
3940,-0.430,0.660
3941,-0.250,0.560
3942,-0.110,0.470
3943,-0.010,0.360
3944,0.040,0.270
3945,0.050,0.190
3946,0.010,0.130
3947,0.040,0.110
3948,0.050,0.080
3949,0.020,0.080
3950,0.040,0.060
3951,0.040,0.070
3952,0.010,0.050
3953,0.000,0.040
3954,-0.050,0.020
3955,-0.080,0.040
3956,-0.070,0.040
3957,-0.040,0.050
3958,-0.090,0.050
3959,-0.030,0.080
3960,-0.030,0.080
3961,-0.050,0.090
3962,-0.050,0.090
3963,-0.050,0.090
3964,-0.040,0.090
3965,-0.020,0.090
3966,0.010,0.080
3967,0.010,0.100
3968,0.020,0.090
3969,0.040,0.090
3970,0.010,0.090
3971,-0.020,0.130
3972,-0.030,0.220
3973,-0.020,0.210
3974,0.000,0.210
3975,0.080,0.180
3976,0.090,0.090
3977,0.110,0.060
3978,0.130,0.000
3979,0.120,-0.010
3980,0.110,-0.030
3981,0.110,-0.030
3982,0.090,-0.040
3983,0.080,-0.010
3984,0.080,0.020
3985,0.040,0.010
3986,0.050,-0.010
3987,0.070,-0.010
3988,0.010,-0.020
3989,0.010,-0.020
3990,0.040,-0.020
3991,0.040,-0.010
3992,0.030,-0.010
3993,0.060,-0.020
3994,0.060,-0.020
3995,0.070,-0.040
3996,0.050,-0.030
3997,0.040,-0.040
3998,0.020,-0.020
3999,0.060,-0.030
4000,0.040,-0.050
4001,0.040,-0.040
4002,0.080,-0.020
4003,0.150,0.000
4004,0.380,0.080
4005,0.680,0.150
4006,1.620,-0.470
4007,2.630,-2.230
4008,2.690,-3.110
4009,1.970,-3.500
4010,1.070,-3.070
4011,0.840,-2.240
4012,0.130,-1.730
4013,-0.560,-1.290
4014,-0.570,-0.880
4015,-0.560,-0.620
4016,-0.460,-0.450
4017,-0.280,-0.160
4018,-0.190,0.110
4019,-0.180,0.220
4020,-0.160,0.210
4021,-0.210,0.250
4022,-0.210,0.270
4023,-0.260,0.280
4024,-0.240,0.280
4025,-0.260,0.330
4026,-0.270,0.340
4027,-0.300,0.350
4028,-0.320,0.380
4029,-0.330,0.410
4030,-0.360,0.460
4031,-0.440,0.470
4032,-0.460,0.480
4033,-0.480,0.560
4034,-0.560,0.580
4035,-0.570,0.640
4036,-0.610,0.680
4037,-0.650,0.760
4038,-0.700,0.790
4039,-0.770,0.810
4040,-0.830,0.820
4041,-0.870,0.850
4042,-0.810,0.840
4043,-0.780,0.820
4044,-0.670,0.760
4045,-0.530,0.710
4046,-0.370,0.660
4047,-0.200,0.520
4048,-0.060,0.410
4049,0.020,0.340
4050,0.090,0.240
4051,0.120,0.160
4052,0.090,0.110
4053,0.150,0.070
4054,0.140,0.070
4055,0.080,0.000
4056,0.140,0.030
4057,0.080,0.020
4058,0.050,0.040
4059,0.050,0.010
4060,0.070,0.000
4061,0.030,0.020
4062,0.060,0.030
4063,0.050,0.030
4064,0.010,0.010
4065,0.060,0.040
4066,-0.010,0.020
4067,0.010,0.030
4068,0.020,0.040
4069,0.080,0.050
4070,0.050,0.050
4071,0.050,0.050
4072,0.100,0.050
4073,0.050,0.040
4074,0.040,0.030
4075,0.040,0.020
4076,0.020,0.070
4077,0.080,0.030
4078,0.070,0.050
4079,0.020,0.160
4080,0.060,0.170
4081,0.040,0.170
4082,0.130,0.140
4083,0.060,0.060
4084,0.070,-0.010
4085,0.160,-0.020
4086,0.110,-0.040
4087,0.200,-0.070
4088,0.180,-0.050
4089,0.190,-0.090
4090,0.110,-0.100
4091,0.040,-0.010
4092,0.070,-0.070
4093,0.090,-0.060
4094,0.080,-0.100
4095,0.090,-0.090
4096,0.090,-0.110
4097,0.130,-0.080
4098,0.030,-0.090
4099,0.100,-0.080
4100,0.080,-0.100
4101,0.100,-0.070
4102,0.110,-0.080
4103,0.090,-0.100
4104,0.110,-0.060
4105,0.080,-0.080
4106,0.100,-0.070
4107,0.160,-0.050
4108,0.090,-0.080
4109,0.100,-0.080
4110,0.230,-0.050
4111,0.480,0.050
4112,0.790,0.070
4113,1.960,-0.750
4114,2.600,-2.690
4115,2.110,-3.540
4116,1.290,-3.820
4117,0.530,-3.170
4118,0.180,-2.230
4119,-0.210,-1.710
4120,-0.470,-1.270
4121,-0.660,-0.850
4122,-0.490,-0.590
4123,-0.370,-0.370
4124,-0.210,-0.090
4125,-0.170,0.090
4126,-0.140,0.160
4127,-0.160,0.200
4128,-0.150,0.220
4129,-0.140,0.250
4130,-0.230,0.250
4131,-0.150,0.280
4132,-0.120,0.300
4133,-0.190,0.310
4134,-0.250,0.320
4135,-0.300,0.340
4136,-0.280,0.360
4137,-0.310,0.390
4138,-0.320,0.450
4139,-0.330,0.460
4140,-0.370,0.540
4141,-0.400,0.530
4142,-0.450,0.580
4143,-0.580,0.640
4144,-0.570,0.690
4145,-0.670,0.710
4146,-0.740,0.770
4147,-0.730,0.820
4148,-0.730,0.840
4149,-0.760,0.810
4150,-0.650,0.820
4151,-0.590,0.760
4152,-0.430,0.690
4153,-0.300,0.600
4154,-0.100,0.510
4155,0.010,0.410
4156,0.140,0.310
4157,0.140,0.230
4158,0.160,0.180
4159,0.170,0.120
4160,0.130,0.080
4161,0.090,0.060
4162,0.120,0.060
4163,0.130,0.050
4164,0.100,0.040
4165,0.100,0.040
4166,0.100,0.040
4167,0.120,0.050
4168,0.050,0.040
4169,0.040,0.030
4170,0.050,0.040
4171,0.070,0.040
4172,0.100,0.040
4173,0.060,0.030
4174,0.130,0.050
4175,0.130,0.030
4176,0.120,0.030
4177,0.110,0.020
4178,0.120,0.010
4179,0.110,0.030
4180,0.160,0.010
4181,0.140,0.010
4182,0.140,0.020
4183,0.190,0.040
4184,0.140,0.070
4185,0.090,0.160
4186,0.110,0.170
4187,0.120,0.210
4188,0.160,0.200
4189,0.220,0.090
4190,0.220,0.080
4191,0.240,0.060
4192,0.260,0.040
4193,0.260,-0.010
4194,0.210,0.010
4195,0.220,0.000
4196,0.210,0.010
4197,0.180,0.000
4198,0.180,0.010
4199,0.210,0.010
4200,0.160,-0.010
4201,0.200,-0.040
4202,0.140,-0.050
4203,0.140,-0.040
4204,0.150,-0.070
4205,0.150,-0.070
4206,0.120,-0.070
4207,0.160,-0.060
4208,0.150,-0.060
4209,0.130,-0.070
4210,0.150,-0.060
4211,0.130,-0.060
4212,0.140,-0.060
4213,0.140,-0.070
4214,0.160,-0.030
4215,0.150,-0.020
4216,0.250,-0.010
4217,0.460,0.060
4218,0.740,0.170
4219,1.600,-0.320
4220,2.620,-1.970
4221,2.700,-3.050
4222,2.090,-3.600
4223,1.120,-3.240
4224,0.830,-2.340
4225,0.150,-1.840
4226,-0.490,-1.290
4227,-0.570,-0.880
4228,-0.490,-0.610
4229,-0.390,-0.420
4230,-0.240,-0.130
4231,-0.110,0.140
4232,-0.140,0.230
4233,-0.150,0.220
4234,-0.140,0.270
4235,-0.150,0.270
4236,-0.190,0.280
4237,-0.220,0.290
4238,-0.240,0.320
4239,-0.250,0.330
4240,-0.250,0.350
4241,-0.290,0.360
4242,-0.300,0.410
4243,-0.310,0.460
4244,-0.340,0.460
4245,-0.420,0.490
4246,-0.460,0.540
4247,-0.500,0.580
4248,-0.540,0.620
4249,-0.600,0.650
4250,-0.620,0.710
4251,-0.710,0.760
4252,-0.760,0.760
4253,-0.780,0.780
4254,-0.850,0.800
4255,-0.790,0.820
4256,-0.730,0.770
4257,-0.610,0.730
4258,-0.430,0.670
4259,-0.260,0.620
4260,-0.120,0.510
4261,0.030,0.390
4262,0.080,0.320
4263,0.120,0.230
4264,0.150,0.140
4265,0.140,0.100
4266,0.120,0.060
4267,0.150,0.060
4268,0.140,0.030
4269,0.100,0.020
4270,0.100,0.030
4271,0.070,0.030
4272,0.040,0.020
4273,0.040,0.010
4274,0.050,0.030
4275,0.040,0.040
4276,0.030,0.040
4277,0.040,0.040
4278,0.020,0.050
4279,0.000,0.070
4280,0.020,0.060
4281,-0.010,0.070
4282,0.040,0.080
4283,0.050,0.080
4284,0.030,0.060
4285,0.050,0.060
4286,0.080,0.060
4287,0.070,0.050
4288,0.040,0.030
4289,0.060,0.040
4290,0.040,0.090
4291,0.050,0.170
4292,0.060,0.150
4293,0.050,0.180
4294,0.140,0.140
4295,0.180,0.020
4296,0.130,-0.020
4297,0.140,-0.040
4298,0.160,-0.050
4299,0.170,-0.070
4300,0.170,-0.050
4301,0.150,-0.080
4302,0.110,-0.030
4303,0.100,-0.030
4304,0.100,-0.070
4305,0.050,-0.060
4306,0.080,-0.090
4307,0.080,-0.070
4308,0.070,-0.060
4309,0.080,-0.070
4310,0.120,-0.060
4311,0.080,-0.070
4312,0.070,-0.090
4313,0.110,-0.070
4314,0.050,-0.050
4315,0.080,-0.080
4316,0.100,-0.070
4317,0.090,-0.070
4318,0.110,-0.060
4319,0.130,-0.060
4320,0.110,-0.080
4321,0.130,-0.070
4322,0.210,-0.040
4323,0.520,0.080
4324,0.860,0.000
4325,1.990,-0.940
4326,2.620,-2.770
4327,2.240,-3.480
4328,1.310,-3.660
4329,0.690,-3.080
4330,0.330,-2.250
4331,-0.110,-1.720
4332,-0.550,-1.290
4333,-0.560,-0.860
4334,-0.440,-0.620
4335,-0.350,-0.380
4336,-0.150,-0.100
4337,-0.080,0.110
4338,-0.090,0.220
4339,-0.100,0.190
4340,-0.100,0.240
4341,-0.130,0.250
4342,-0.130,0.270
4343,-0.160,0.290
4344,-0.170,0.310
4345,-0.160,0.370
4346,-0.200,0.370
4347,-0.210,0.400
4348,-0.290,0.400
4349,-0.270,0.480
4350,-0.360,0.470
4351,-0.370,0.530
4352,-0.370,0.570
4353,-0.400,0.610
4354,-0.460,0.660
4355,-0.560,0.700
4356,-0.600,0.750
4357,-0.700,0.790
4358,-0.720,0.820
4359,-0.790,0.850
4360,-0.780,0.860
4361,-0.740,0.860
4362,-0.660,0.830
4363,-0.570,0.760
4364,-0.420,0.700
4365,-0.310,0.620
4366,-0.130,0.500
4367,-0.010,0.400
4368,0.100,0.330
4369,0.160,0.200
4370,0.150,0.180
4371,0.140,0.100
4372,0.190,0.060
4373,0.160,0.040
4374,0.100,0.010
4375,0.110,0.020
4376,0.140,0.010
4377,0.080,0.020
4378,0.100,0.020
4379,0.090,0.040
4380,0.090,0.030
4381,0.070,0.010
4382,-0.010,0.040
4383,0.050,0.060
4384,0.000,0.050
4385,0.060,0.080
4386,0.070,0.040
4387,0.010,0.070
4388,0.040,0.070
4389,0.070,0.050
4390,0.060,0.030
4391,0.070,0.050
4392,0.040,0.030
4393,0.060,0.040
4394,0.120,0.030
4395,0.040,0.030
4396,0.060,0.090
4397,0.100,0.170
4398,0.040,0.170
4399,0.040,0.170
4400,0.120,0.150
4401,0.150,0.040
4402,0.170,0.050
4403,0.180,0.010
4404,0.180,0.010
4405,0.230,-0.050
4406,0.210,-0.040
4407,0.130,-0.080
4408,0.160,-0.050
4409,0.130,0.000
4410,0.100,-0.040
4411,0.110,-0.060
4412,0.120,-0.030
4413,0.100,-0.050
4414,0.150,-0.030
4415,0.140,-0.020
4416,0.070,-0.040
4417,0.060,-0.030
4418,0.150,-0.030
4419,0.100,-0.040
4420,0.140,-0.030
4421,0.130,-0.020
4422,0.140,-0.010
4423,0.130,-0.010
4424,0.150,-0.020
4425,0.120,-0.040
4426,0.120,-0.030
4427,0.200,-0.020
4428,0.290,0.000
4429,0.660,0.130
4430,1.020,0.030
4431,2.180,-1.120
4432,2.630,-2.920
4433,2.040,-3.640
4434,1.120,-3.720
4435,0.620,-2.930
4436,0.200,-2.160
4437,-0.250,-1.620
4438,-0.500,-1.170
4439,-0.550,-0.760
4440,-0.480,-0.530
4441,-0.350,-0.330
4442,-0.230,-0.020
4443,-0.130,0.180
4444,-0.150,0.220
4445,-0.130,0.240
4446,-0.160,0.240
4447,-0.170,0.290
4448,-0.160,0.290
4449,-0.160,0.310
4450,-0.220,0.320
4451,-0.240,0.330
4452,-0.270,0.350
4453,-0.270,0.400
4454,-0.280,0.410
4455,-0.330,0.460
4456,-0.330,0.490
4457,-0.350,0.520
4458,-0.410,0.560
4459,-0.510,0.610
4460,-0.530,0.640
4461,-0.570,0.690
4462,-0.660,0.720
4463,-0.680,0.750
4464,-0.760,0.780
4465,-0.770,0.810
4466,-0.750,0.810
4467,-0.770,0.810
4468,-0.690,0.790
4469,-0.540,0.730
4470,-0.420,0.660
4471,-0.250,0.570
4472,-0.080,0.480
4473,0.040,0.410
4474,0.080,0.290
4475,0.120,0.210
4476,0.080,0.160
4477,0.080,0.120
4478,0.090,0.080
4479,0.060,0.070
4480,0.070,0.060
4481,0.060,0.080
4482,0.020,0.060
4483,0.010,0.060
4484,-0.020,0.050
4485,-0.060,0.060
4486,-0.060,0.050
4487,-0.020,0.070
4488,-0.040,0.070
4489,-0.030,0.080
4490,0.000,0.080
4491,-0.040,0.080
4492,-0.020,0.070
4493,-0.020,0.080
4494,-0.020,0.090
4495,-0.020,0.080
4496,0.020,0.090
4497,0.000,0.060
4498,0.020,0.080
4499,0.040,0.070
4500,0.020,0.060
4501,0.000,0.050
4502,0.020,0.070
4503,-0.040,0.140
4504,-0.010,0.200
4505,0.020,0.210
4506,0.020,0.220
4507,0.080,0.170
4508,0.090,0.060
4509,0.090,0.060
4510,0.070,0.030
4511,0.080,-0.010
4512,0.090,0.000
4513,0.080,0.010
4514,0.090,-0.020
4515,0.030,0.020
4516,0.010,0.010
4517,0.040,-0.010
4518,-0.030,-0.010
4519,-0.030,-0.020
4520,0.010,-0.010
4521,-0.010,-0.010
4522,-0.010,-0.020
4523,0.010,-0.010
4524,0.000,-0.010
4525,0.000,-0.030
4526,0.020,-0.030
4527,-0.050,-0.020
4528,-0.030,-0.020
4529,-0.010,-0.020
4530,-0.030,-0.030
4531,-0.030,-0.020
4532,0.000,-0.010
4533,0.000,0.000
4534,0.030,0.000
4535,0.160,0.040
4536,0.550,0.190
4537,1.250,-0.180
4538,2.320,-1.690
4539,2.590,-2.980
4540,1.900,-3.560
4541,0.980,-3.310
4542,0.650,-2.470
4543,-0.020,-1.940
4544,-0.580,-1.410
4545,-0.730,-0.990
4546,-0.690,-0.690
4547,-0.600,-0.510
4548,-0.450,-0.220
4549,-0.330,0.080
4550,-0.250,0.210
4551,-0.290,0.220
4552,-0.300,0.270
4553,-0.320,0.270
4554,-0.350,0.290
4555,-0.370,0.310
4556,-0.350,0.350
4557,-0.370,0.370
4558,-0.410,0.390
4559,-0.400,0.420
4560,-0.420,0.450
4561,-0.500,0.470
4562,-0.510,0.480
4563,-0.540,0.530
4564,-0.570,0.570
4565,-0.570,0.610
4566,-0.650,0.640
4567,-0.710,0.700
4568,-0.740,0.740
4569,-0.820,0.770
4570,-0.900,0.810
4571,-0.940,0.820
4572,-0.990,0.860
4573,-0.960,0.860
4574,-0.910,0.840
4575,-0.830,0.820
4576,-0.720,0.780
4577,-0.540,0.680
4578,-0.420,0.580
4579,-0.300,0.520
4580,-0.150,0.410
4581,-0.090,0.310
4582,-0.090,0.230
4583,-0.040,0.180
4584,-0.030,0.140
4585,-0.070,0.080
4586,-0.070,0.060
4587,-0.110,0.060
4588,-0.110,0.080
4589,-0.120,0.050
4590,-0.120,0.040
4591,-0.150,0.060
4592,-0.120,0.070
4593,-0.140,0.050
4594,-0.170,0.040
4595,-0.180,0.070
4596,-0.150,0.070
4597,-0.180,0.070
4598,-0.160,0.040
4599,-0.150,0.080
4600,-0.150,0.070
4601,-0.150,0.080
4602,-0.150,0.050
4603,-0.170,0.050
4604,-0.140,0.060
4605,-0.150,0.030
4606,-0.170,0.030
4607,-0.140,0.030
4608,-0.090,0.050
4609,-0.110,0.060
4610,-0.160,0.110
4611,-0.140,0.180
4612,-0.170,0.150
4613,-0.120,0.170
4614,-0.060,0.100
4615,-0.060,0.000
4616,-0.020,0.030
4617,-0.010,-0.020
4618,0.010,-0.050
4619,-0.020,-0.050
4620,-0.050,-0.030
4621,-0.100,-0.080
4622,-0.100,-0.020
4623,-0.080,-0.010
4624,-0.140,-0.030
4625,-0.090,-0.030
4626,-0.140,-0.030
4627,-0.140,-0.010
4628,-0.120,-0.030
4629,-0.130,-0.060
4630,-0.170,-0.060
4631,-0.100,-0.030
4632,-0.140,-0.050
4633,-0.110,-0.040
4634,-0.120,-0.060
4635,-0.140,-0.050
4636,-0.080,-0.040
4637,-0.150,-0.050
4638,-0.170,-0.070
4639,-0.090,-0.050
4640,-0.110,-0.040
4641,-0.090,-0.060
4642,0.080,-0.030
4643,0.480,0.130
4644,0.850,-0.090
4645,2.020,-1.390
4646,2.330,-3.110
4647,1.660,-3.800
4648,0.650,-3.690
4649,0.280,-2.830
4650,-0.280,-2.160
4651,-0.690,-1.530
4652,-0.810,-1.110
4653,-0.780,-0.760
4654,-0.670,-0.520
4655,-0.570,-0.300
4656,-0.430,0.020
4657,-0.370,0.210
4658,-0.370,0.180
4659,-0.330,0.250
4660,-0.370,0.240
4661,-0.310,0.270
4662,-0.350,0.280
4663,-0.390,0.320
4664,-0.410,0.320
4665,-0.450,0.340
4666,-0.450,0.350
4667,-0.500,0.380
4668,-0.480,0.420
4669,-0.550,0.450
4670,-0.540,0.470
4671,-0.570,0.530
4672,-0.660,0.540
4673,-0.720,0.590
4674,-0.770,0.660
4675,-0.800,0.700
4676,-0.860,0.740
4677,-0.900,0.770
4678,-0.970,0.810
4679,-0.980,0.850
4680,-0.970,0.830
4681,-0.990,0.840
4682,-0.860,0.820
4683,-0.730,0.750
4684,-0.650,0.680
4685,-0.410,0.580
4686,-0.240,0.510
4687,-0.140,0.400
4688,-0.050,0.290
4689,-0.060,0.220
4690,-0.070,0.150
4691,-0.070,0.100
4692,-0.030,0.090
4693,-0.080,0.060
4694,-0.070,0.070
4695,-0.050,0.070
4696,-0.110,0.040
4697,-0.150,0.040
4698,-0.150,0.050
4699,-0.150,0.070
4700,-0.190,0.050
4701,-0.160,0.050
4702,-0.190,0.070
4703,-0.160,0.060
4704,-0.170,0.070
4705,-0.160,0.040
4706,-0.170,0.060
4707,-0.150,0.080
4708,-0.170,0.050
4709,-0.150,0.050
4710,-0.090,0.040
4711,-0.140,0.050
4712,-0.110,0.070
4713,-0.080,0.060
4714,-0.130,0.050
4715,-0.120,0.060
4716,-0.160,0.110
4717,-0.130,0.180
4718,-0.120,0.170
4719,-0.110,0.200
4720,-0.070,0.180
4721,-0.010,0.060
4722,-0.010,0.030
4723,-0.010,0.010
4724,-0.010,-0.010
4725,0.030,-0.020
4726,0.020,0.000
4727,0.020,-0.010
4728,0.010,0.020
4729,-0.030,0.030
4730,-0.060,0.000
4731,-0.040,0.020
4732,-0.080,0.000
4733,-0.070,0.010
4734,-0.050,0.010
4735,-0.060,0.020
4736,-0.050,0.030
4737,-0.040,0.020
4738,-0.060,0.020
4739,-0.060,0.020
4740,-0.070,0.020
4741,-0.090,0.010
4742,-0.090,0.020
4743,-0.050,0.030
4744,-0.070,0.030
4745,-0.060,0.060
4746,-0.040,0.040
4747,-0.040,0.050
4748,0.010,0.040
4749,0.330,0.150
4750,0.570,0.200
4751,1.670,-0.490
4752,2.540,-2.450
4753,2.090,-3.330
4754,1.240,-3.690
4755,0.570,-3.020
4756,0.150,-2.160
4757,-0.330,-1.650
4758,-0.730,-1.190
4759,-0.830,-0.780
4760,-0.730,-0.540
4761,-0.560,-0.330
4762,-0.420,-0.050
4763,-0.330,0.190
4764,-0.350,0.240
4765,-0.390,0.260
4766,-0.390,0.280
4767,-0.380,0.270
4768,-0.430,0.290
4769,-0.420,0.330
4770,-0.390,0.350
4771,-0.450,0.360
4772,-0.510,0.380
4773,-0.510,0.410
4774,-0.570,0.430
4775,-0.610,0.450
4776,-0.630,0.480
4777,-0.670,0.500
4778,-0.700,0.570
4779,-0.730,0.630
4780,-0.820,0.660
4781,-0.860,0.700
4782,-0.930,0.740
4783,-1.010,0.790
4784,-1.070,0.810
4785,-1.050,0.850
4786,-1.070,0.870
4787,-1.010,0.870
4788,-0.910,0.850
4789,-0.790,0.790
4790,-0.640,0.720
4791,-0.480,0.630
4792,-0.350,0.520
4793,-0.200,0.440
4794,-0.110,0.340
4795,-0.090,0.270
4796,-0.090,0.200
4797,-0.070,0.150
4798,-0.090,0.110
4799,-0.140,0.090
4800,-0.130,0.080
4801,-0.150,0.080
4802,-0.160,0.080
4803,-0.150,0.070
4804,-0.190,0.080
4805,-0.210,0.080
4806,-0.190,0.070
4807,-0.240,0.070
4808,-0.250,0.070
4809,-0.220,0.060
4810,-0.220,0.080
4811,-0.230,0.080
4812,-0.200,0.080
4813,-0.200,0.090
4814,-0.180,0.090
4815,-0.170,0.070
4816,-0.240,0.060
4817,-0.220,0.070
4818,-0.190,0.060
4819,-0.210,0.060
4820,-0.200,0.060
4821,-0.150,0.080
4822,-0.190,0.120
4823,-0.210,0.190
4824,-0.190,0.200
4825,-0.230,0.210
4826,-0.160,0.210
4827,-0.090,0.120
4828,-0.090,0.060
4829,-0.060,0.040
4830,-0.050,0.030
4831,-0.070,-0.010
4832,-0.070,0.000
4833,-0.100,-0.010
4834,-0.120,0.010
4835,-0.160,0.050
4836,-0.160,0.030
4837,-0.160,0.040
4838,-0.160,0.030
4839,-0.140,0.030
4840,-0.190,0.020
4841,-0.200,0.020
4842,-0.180,0.020
4843,-0.200,0.020
4844,-0.200,0.010
4845,-0.190,0.010
4846,-0.180,0.020
4847,-0.170,0.030
4848,-0.160,0.020
4849,-0.160,0.020
4850,-0.200,0.020
4851,-0.170,0.020
4852,-0.190,0.030
4853,-0.150,0.020
4854,-0.040,0.050
4855,0.170,0.140
4856,0.480,0.210
4857,1.430,-0.390
4858,2.380,-2.140
4859,2.290,-3.140
4860,1.470,-3.620
4861,0.630,-3.240
4862,0.400,-2.370
4863,-0.230,-1.870
4864,-0.800,-1.320
4865,-0.870,-0.890
4866,-0.750,-0.590
4867,-0.680,-0.420
4868,-0.550,-0.140
4869,-0.410,0.180
4870,-0.400,0.320
4871,-0.430,0.290
4872,-0.390,0.340
4873,-0.410,0.380
4874,-0.410,0.380
4875,-0.420,0.380
4876,-0.490,0.400
4877,-0.470,0.400
4878,-0.490,0.420
4879,-0.510,0.440
4880,-0.520,0.460
4881,-0.530,0.500
4882,-0.570,0.520
4883,-0.620,0.530
4884,-0.650,0.560
4885,-0.700,0.620
4886,-0.750,0.660
4887,-0.790,0.720
4888,-0.860,0.770
4889,-0.920,0.810
4890,-0.940,0.860
4891,-1.010,0.880
4892,-1.040,0.910
4893,-1.010,0.910
4894,-0.940,0.890
4895,-0.880,0.840
4896,-0.720,0.800
4897,-0.560,0.730
4898,-0.400,0.640
4899,-0.250,0.560
4900,-0.140,0.470
4901,-0.140,0.370
4902,-0.080,0.280
4903,-0.090,0.220
4904,-0.080,0.220
4905,-0.050,0.200
4906,-0.060,0.210
4907,-0.070,0.190
4908,-0.080,0.180
4909,-0.110,0.230
4910,-0.130,0.210
4911,-0.140,0.220
4912,-0.130,0.220
4913,-0.180,0.270
4914,-0.120,0.240
4915,-0.140,0.240
4916,-0.160,0.230
4917,-0.140,0.230
4918,-0.140,0.220
4919,-0.180,0.200
4920,-0.090,0.200
4921,-0.100,0.210
4922,-0.110,0.150
4923,-0.080,0.150
4924,-0.050,0.150
4925,-0.080,0.150
4926,-0.040,0.120
4927,-0.110,0.080
4928,-0.090,0.110
4929,-0.050,0.130
4930,-0.120,0.210
4931,-0.090,0.210
4932,-0.050,0.250
4933,-0.010,0.240
4934,0.030,0.140
4935,0.010,0.030
4936,0.030,0.040
4937,0.030,0.030
4938,0.050,-0.020
4939,0.090,-0.010
4940,0.010,-0.020
4941,0.060,-0.010
4942,0.010,0.020
4943,-0.030,0.000
4944,-0.030,0.020
4945,-0.010,0.020
4946,-0.060,0.000
4947,-0.040,0.010
4948,0.020,0.010
4949,-0.010,0.060
4950,0.020,0.020
4951,0.010,0.030
4952,-0.040,0.040
4953,-0.010,0.040
4954,-0.010,0.030
4955,0.000,0.030
4956,0.020,0.030
4957,0.080,0.060
4958,0.040,0.010
4959,0.060,0.010
4960,0.100,0.010
4961,0.090,0.010
4962,0.320,0.050
4963,0.630,0.170
4964,1.440,-0.270
4965,2.500,-2.010
4966,2.270,-3.310
4967,1.420,-3.960
4968,0.600,-3.520
4969,0.330,-2.520
4970,-0.220,-2.010
4971,-0.640,-1.400
4972,-0.680,-0.910
4973,-0.590,-0.600
4974,-0.460,-0.410
4975,-0.310,-0.130
4976,-0.190,0.180
4977,-0.170,0.310
4978,-0.210,0.280
4979,-0.260,0.300
4980,-0.200,0.340
4981,-0.220,0.360
4982,-0.250,0.370
4983,-0.220,0.390
4984,-0.230,0.410
4985,-0.260,0.420
4986,-0.290,0.430
4987,-0.330,0.440
4988,-0.350,0.500
4989,-0.360,0.520
4990,-0.380,0.560
4991,-0.440,0.580
4992,-0.460,0.660
4993,-0.480,0.690
4994,-0.570,0.730
4995,-0.650,0.770
4996,-0.680,0.820
4997,-0.750,0.840
4998,-0.790,0.870
4999,-0.780,0.880
5000,-0.770,0.890
5001,-0.680,0.860
5002,-0.590,0.830
5003,-0.490,0.760
5004,-0.360,0.670
5005,-0.180,0.580
5006,-0.080,0.460
5007,0.030,0.350
5008,0.100,0.250
5009,0.090,0.210
5010,0.110,0.130
5011,0.110,0.070
5012,0.060,0.050
5013,0.080,0.050
5014,0.070,0.040
5015,0.060,0.040
5016,0.060,0.040
5017,0.080,0.040
5018,0.050,0.040
5019,0.040,0.050
5020,0.040,0.060
5021,0.000,0.050
5022,0.010,0.070
5023,0.040,0.070
5024,0.020,0.070
5025,0.040,0.080
5026,0.060,0.080
5027,0.060,0.070
5028,0.070,0.080
5029,0.050,0.070
5030,0.040,0.050
5031,0.070,0.060
5032,0.080,0.050
5033,0.070,0.050
5034,0.110,0.060
5035,0.110,0.070
5036,0.080,0.130
5037,0.040,0.210
5038,0.060,0.220
5039,0.060,0.250
5040,0.140,0.230
5041,0.210,0.150
5042,0.190,0.090
5043,0.220,0.070
5044,0.240,0.050
5045,0.230,0.010
5046,0.210,0.020
5047,0.200,-0.010
5048,0.180,0.040
5049,0.150,0.040
5050,0.170,0.000
5051,0.160,0.010
5052,0.160,0.000
5053,0.170,-0.010
5054,0.130,-0.020
5055,0.120,-0.020
5056,0.130,-0.020
5057,0.130,-0.040
5058,0.140,-0.030
5059,0.170,-0.030
5060,0.150,-0.020
5061,0.160,-0.020
5062,0.150,-0.040
5063,0.110,-0.040
5064,0.140,-0.040
5065,0.160,-0.050
5066,0.150,-0.050
5067,0.170,-0.040
5068,0.260,-0.030
5069,0.430,0.050
5070,0.740,0.150
5071,1.580,-0.330
5072,2.560,-1.990
5073,2.510,-3.170
5074,1.670,-3.740
5075,0.850,-3.370
5076,0.600,-2.460
5077,0.020,-1.930
5078,-0.500,-1.360
5079,-0.560,-0.910
5080,-0.470,-0.630
5081,-0.400,-0.440
5082,-0.250,-0.170
5083,-0.110,0.130
5084,-0.120,0.250
5085,-0.120,0.250
5086,-0.100,0.300
5087,-0.110,0.310
5088,-0.150,0.320
5089,-0.170,0.330
5090,-0.180,0.350
5091,-0.180,0.360
5092,-0.180,0.380
5093,-0.240,0.400
5094,-0.230,0.430
5095,-0.250,0.450
5096,-0.280,0.450
5097,-0.350,0.500
5098,-0.370,0.540
5099,-0.410,0.590
5100,-0.470,0.630
5101,-0.520,0.690
5102,-0.550,0.730
5103,-0.610,0.800
5104,-0.640,0.810
5105,-0.690,0.840
5106,-0.720,0.870
5107,-0.690,0.870
5108,-0.640,0.840
5109,-0.550,0.800
5110,-0.370,0.730
5111,-0.230,0.660
5112,-0.070,0.570
5113,0.050,0.460
5114,0.100,0.370
5115,0.160,0.260
5116,0.180,0.200
5117,0.180,0.140
5118,0.150,0.110
5119,0.190,0.090
5120,0.160,0.060
5121,0.140,0.050
5122,0.150,0.040
5123,0.100,0.020
5124,0.060,0.010
5125,0.090,0.020
5126,0.080,0.030
5127,0.060,0.020
5128,0.070,0.030
5129,0.050,0.050
5130,0.080,0.050
5131,0.070,0.050
5132,0.040,0.030
5133,0.040,0.040
5134,0.090,0.050
5135,0.100,0.020
5136,0.070,0.030
5137,0.120,0.030
5138,0.130,0.030
5139,0.110,0.000
5140,0.080,0.000
5141,0.090,0.000
5142,0.060,0.030
5143,0.100,0.120
5144,0.090,0.150
5145,0.070,0.160
5146,0.160,0.180
5147,0.220,0.080
5148,0.160,-0.030
5149,0.200,-0.010
5150,0.210,-0.030
5151,0.210,-0.080
5152,0.230,-0.080
5153,0.200,-0.080
5154,0.190,-0.070
5155,0.210,-0.040
5156,0.150,-0.070
5157,0.120,-0.060
5158,0.140,-0.050
5159,0.150,-0.070
5160,0.130,-0.070
5161,0.160,-0.060
5162,0.180,-0.050
5163,0.160,-0.060
5164,0.180,-0.060
5165,0.140,-0.060
5166,0.140,-0.060
5167,0.150,-0.050
5168,0.140,-0.070
5169,0.140,-0.060
5170,0.180,-0.040
5171,0.180,-0.060
5172,0.130,-0.050
5173,0.190,-0.040
5174,0.220,-0.040
5175,0.360,-0.010
5176,0.720,0.130
5177,1.340,-0.150
5178,2.340,-1.670
5179,2.510,-3.220
5180,1.710,-3.880
5181,0.820,-3.710
5182,0.510,-2.810
5183,0.030,-2.210
5184,-0.420,-1.590
5185,-0.500,-1.130
5186,-0.430,-0.770
5187,-0.400,-0.550
5188,-0.220,-0.290
5189,-0.090,0.030
5190,-0.030,0.220
5191,-0.060,0.210
5192,-0.090,0.240
5193,-0.090,0.260
5194,-0.090,0.270
5195,-0.070,0.290
5196,-0.100,0.290
5197,-0.100,0.340
5198,-0.110,0.340
5199,-0.150,0.360
5200,-0.210,0.380
5201,-0.190,0.410
5202,-0.220,0.440
5203,-0.240,0.470
5204,-0.270,0.500
5205,-0.280,0.550
5206,-0.320,0.590
5207,-0.360,0.640
5208,-0.470,0.690
5209,-0.520,0.730
5210,-0.560,0.770
5211,-0.600,0.810
5212,-0.590,0.820
5213,-0.610,0.840
5214,-0.550,0.840
5215,-0.470,0.810
5216,-0.330,0.740
5217,-0.280,0.680
5218,-0.130,0.590
5219,0.030,0.490
5220,0.150,0.400
5221,0.220,0.300
5222,0.240,0.220
5223,0.240,0.140
5224,0.270,0.120
5225,0.260,0.060
5226,0.210,0.070
5227,0.210,0.050
5228,0.220,0.070
5229,0.220,0.040
5230,0.190,0.050
5231,0.210,0.050
5232,0.170,0.050
5233,0.180,0.040
5234,0.130,0.040
5235,0.160,0.040
5236,0.120,0.050
5237,0.170,0.050
5238,0.120,0.050
5239,0.160,0.080
5240,0.200,0.070
5241,0.190,0.060
5242,0.170,0.050
5243,0.170,0.050
5244,0.170,0.040
5245,0.160,0.030
5246,0.210,0.020
5247,0.190,0.020
5248,0.210,0.020
5249,0.190,0.050
5250,0.160,0.140
5251,0.140,0.140
5252,0.170,0.140
5253,0.180,0.160
5254,0.260,0.070
5255,0.290,-0.010
5256,0.300,-0.020
5257,0.280,-0.060
5258,0.310,-0.070
5259,0.300,-0.060
5260,0.220,-0.090
5261,0.260,-0.090
5262,0.210,-0.040
5263,0.190,-0.050
5264,0.200,-0.060
5265,0.190,-0.060
5266,0.190,-0.030
5267,0.230,-0.030
5268,0.210,-0.040
5269,0.160,-0.060
5270,0.200,-0.030
5271,0.190,-0.020
5272,0.200,-0.030
5273,0.220,-0.050
5274,0.210,-0.020
5275,0.210,-0.020
5276,0.210,-0.040
5277,0.190,-0.040
5278,0.170,-0.040
5279,0.210,-0.020
5280,0.220,-0.030
5281,0.240,-0.040
5282,0.460,0.010
5283,0.780,0.170
5284,1.350,-0.150
5285,2.340,-1.610
5286,2.520,-3.130
5287,1.750,-3.840
5288,0.880,-3.720
5289,0.570,-2.830
5290,0.040,-2.220
5291,-0.330,-1.560
5292,-0.460,-1.130
5293,-0.440,-0.760
5294,-0.340,-0.540
5295,-0.240,-0.270
5296,-0.110,0.050
5297,-0.060,0.220
5298,-0.060,0.250
5299,-0.060,0.290
5300,-0.060,0.310
5301,-0.060,0.320
5302,-0.090,0.350
5303,-0.110,0.370
5304,-0.130,0.370
5305,-0.160,0.400
5306,-0.140,0.430
5307,-0.150,0.440
5308,-0.210,0.460
5309,-0.220,0.490
5310,-0.220,0.530
5311,-0.280,0.560
5312,-0.350,0.590
5313,-0.390,0.630
5314,-0.440,0.700
5315,-0.470,0.730
5316,-0.520,0.760
5317,-0.570,0.810
5318,-0.590,0.850
5319,-0.580,0.860
5320,-0.630,0.840
5321,-0.570,0.830
5322,-0.460,0.810
5323,-0.370,0.730
5324,-0.220,0.660
5325,-0.060,0.560
5326,0.060,0.470
5327,0.150,0.370
5328,0.180,0.250
5329,0.150,0.170
5330,0.180,0.130
5331,0.200,0.080
5332,0.170,0.060
5333,0.170,0.040
5334,0.180,0.050
5335,0.160,0.030
5336,0.160,0.020
5337,0.130,0.020
5338,0.100,0.040
5339,0.110,0.040
5340,0.100,0.040
5341,0.110,0.030
5342,0.120,0.050
5343,0.140,0.060
5344,0.120,0.070
5345,0.130,0.060
5346,0.110,0.070
5347,0.100,0.080
5348,0.120,0.070
5349,0.160,0.070
5350,0.130,0.080
5351,0.140,0.100
5352,0.160,0.080
5353,0.170,0.090
5354,0.150,0.060
5355,0.150,0.080
5356,0.100,0.120
5357,0.110,0.220
5358,0.130,0.230
5359,0.100,0.230
5360,0.170,0.230
5361,0.230,0.150
5362,0.210,0.070
5363,0.200,0.040
5364,0.200,0.030
5365,0.200,0.000
5366,0.200,0.020
5367,0.170,-0.010
5368,0.160,0.010
5369,0.150,0.050
5370,0.170,0.010
5371,0.120,-0.010
5372,0.120,-0.020
5373,0.130,-0.010
5374,0.130,-0.010
5375,0.130,-0.030
5376,0.170,-0.040
5377,0.150,-0.030
5378,0.150,-0.030
5379,0.170,-0.040
5380,0.110,-0.060
5381,0.140,-0.040
5382,0.170,-0.050
5383,0.160,-0.040
5384,0.160,-0.050
5385,0.180,-0.040
5386,0.160,-0.040
5387,0.170,-0.040
5388,0.240,-0.030
5389,0.450,0.040
5390,0.720,0.140
5391,1.570,-0.410
5392,2.500,-2.130
5393,2.350,-3.300
5394,1.450,-3.870
5395,0.660,-3.470
5396,0.430,-2.530
5397,-0.040,-2.000
5398,-0.510,-1.440
5399,-0.560,-0.970
5400,-0.430,-0.660
5401,-0.330,-0.460
5402,-0.180,-0.180
5403,-0.040,0.100
5404,-0.070,0.250
5405,-0.050,0.220
5406,-0.090,0.250
5407,-0.130,0.270
5408,-0.110,0.290
5409,-0.070,0.320
5410,-0.120,0.310
5411,-0.150,0.340
5412,-0.140,0.360
5413,-0.150,0.380
5414,-0.210,0.390
5415,-0.220,0.430
5416,-0.260,0.470
5417,-0.270,0.510
5418,-0.290,0.530
5419,-0.340,0.590
5420,-0.370,0.660
5421,-0.400,0.700
5422,-0.470,0.740
5423,-0.560,0.780
5424,-0.570,0.810
5425,-0.610,0.840
5426,-0.630,0.850
5427,-0.600,0.850
5428,-0.540,0.840
5429,-0.430,0.800
5430,-0.300,0.710
5431,-0.210,0.610
5432,-0.080,0.530
5433,0.080,0.420
5434,0.130,0.330
5435,0.150,0.230
5436,0.210,0.170
5437,0.180,0.110
5438,0.180,0.070
5439,0.170,0.050
5440,0.130,0.040
5441,0.110,0.040
5442,0.150,0.010
5443,0.120,0.040
5444,0.100,0.020
5445,0.100,0.040
5446,0.090,0.030
5447,0.080,0.050
5448,0.080,0.050
5449,0.050,0.050
5450,0.040,0.050
5451,0.070,0.070
5452,0.060,0.060
5453,0.080,0.060
5454,0.090,0.050
5455,0.070,0.060
5456,0.090,0.070
5457,0.080,0.040
5458,0.060,0.020
5459,0.060,0.020
5460,0.110,0.040
5461,0.090,0.010
5462,0.080,0.010
5463,0.100,0.050
5464,0.060,0.140
5465,0.040,0.170
5466,0.040,0.160
5467,0.070,0.200
5468,0.150,0.150
5469,0.160,0.010
5470,0.170,0.010
5471,0.160,-0.010
5472,0.190,-0.040
5473,0.180,-0.040
5474,0.120,-0.060
5475,0.110,-0.060
5476,0.110,-0.010
5477,0.080,-0.020
5478,0.080,-0.050
5479,0.100,-0.030
5480,0.080,-0.020
5481,0.100,-0.050
5482,0.060,-0.070
5483,0.040,-0.040
5484,0.070,-0.030
5485,0.070,-0.030
5486,0.040,-0.040
5487,0.100,-0.030
5488,0.080,-0.010
5489,0.040,-0.030
5490,0.080,-0.040
5491,0.060,-0.020
5492,0.050,-0.010
5493,0.070,-0.040
5494,0.080,-0.020
5495,0.110,-0.020
5496,0.270,0.010
5497,0.650,0.160
5498,1.050,-0.070
5499,2.100,-1.380
5500,2.350,-3.090
5501,1.590,-3.780
5502,0.740,-3.740
5503,0.420,-2.940
5504,-0.070,-2.240
5505,-0.430,-1.630
5506,-0.560,-1.210
5507,-0.560,-0.790
5508,-0.460,-0.580
5509,-0.360,-0.340
5510,-0.230,-0.030
5511,-0.140,0.170
5512,-0.120,0.200
5513,-0.160,0.220
5514,-0.160,0.250
5515,-0.150,0.280
5516,-0.160,0.260
5517,-0.190,0.290
5518,-0.220,0.320
5519,-0.230,0.340
5520,-0.250,0.350
5521,-0.250,0.380
5522,-0.270,0.390
5523,-0.270,0.450
5524,-0.300,0.480
5525,-0.360,0.510
5526,-0.440,0.540
5527,-0.440,0.610
5528,-0.490,0.630
5529,-0.540,0.680
5530,-0.560,0.740
5531,-0.600,0.750
5532,-0.660,0.770
5533,-0.660,0.810
5534,-0.680,0.810
5535,-0.690,0.820
5536,-0.620,0.780
5537,-0.500,0.740
5538,-0.360,0.670
5539,-0.230,0.570
5540,-0.100,0.490
5541,-0.010,0.390
5542,0.070,0.290
5543,0.060,0.210
5544,0.050,0.140
5545,0.090,0.100
5546,0.070,0.090
5547,0.080,0.040
5548,0.070,0.050
5549,0.060,0.040
5550,0.050,0.040
5551,0.050,0.010
5552,-0.010,0.010
5553,-0.020,0.040
5554,0.020,0.030
5555,-0.010,0.010
5556,-0.020,0.030
5557,0.030,0.050
5558,0.010,0.050
5559,-0.010,0.050
5560,-0.040,0.050
5561,-0.020,0.070
5562,0.010,0.060
5563,0.020,0.070
5564,-0.020,0.050
5565,0.000,0.080
5566,0.040,0.080
5567,0.030,0.070
5568,0.020,0.050
5569,-0.010,0.080
5570,0.000,0.090
5571,-0.020,0.170
5572,-0.010,0.230
5573,-0.010,0.220
5574,0.000,0.260
5575,0.100,0.200
5576,0.070,0.090
5577,0.070,0.080
5578,0.100,0.050
5579,0.090,0.010
5580,0.090,0.020
5581,0.090,0.010
5582,0.070,-0.010
5583,0.050,0.040
5584,0.030,0.020
5585,0.020,0.000
5586,0.000,-0.020
5587,0.020,-0.020
5588,0.000,-0.030
5589,0.010,-0.010
5590,0.030,-0.030
5591,0.030,-0.030
5592,0.020,-0.030
5593,0.040,-0.020
5594,0.020,-0.030
5595,-0.010,-0.030
5596,0.020,-0.030
5597,0.030,-0.010
5598,0.020,-0.030
5599,0.040,-0.050
5600,0.040,-0.020
5601,0.040,-0.030
5602,0.080,-0.040
5603,0.170,-0.030
5604,0.530,0.110
5605,0.890,-0.020
5606,1.930,-1.100
5607,2.350,-2.960
5608,1.600,-3.720
5609,0.740,-3.750
5610,0.400,-2.930
5611,-0.110,-2.250
5612,-0.510,-1.610
5613,-0.620,-1.130
5614,-0.560,-0.750
5615,-0.510,-0.550
5616,-0.360,-0.280
5617,-0.190,0.070
5618,-0.160,0.210
5619,-0.200,0.220
5620,-0.210,0.250
5621,-0.200,0.270
5622,-0.220,0.290
5623,-0.200,0.290
5624,-0.250,0.310
5625,-0.230,0.350
5626,-0.210,0.370
5627,-0.280,0.380
5628,-0.300,0.400
5629,-0.320,0.430
5630,-0.350,0.460
5631,-0.370,0.480
5632,-0.390,0.540
5633,-0.420,0.610
5634,-0.460,0.650
5635,-0.470,0.690
5636,-0.530,0.740
5637,-0.640,0.790
5638,-0.640,0.810
5639,-0.680,0.850
5640,-0.720,0.870
5641,-0.660,0.900
5642,-0.590,0.880
5643,-0.530,0.830
5644,-0.420,0.790
5645,-0.300,0.710
5646,-0.180,0.610
5647,-0.030,0.500
5648,0.010,0.410
5649,0.060,0.320
5650,0.110,0.230
5651,0.090,0.160
5652,0.060,0.130
5653,0.090,0.110
5654,0.020,0.080
5655,0.030,0.060
5656,0.020,0.060
5657,0.020,0.070
5658,0.010,0.060
5659,0.030,0.060
5660,0.000,0.060
5661,-0.010,0.080
5662,0.010,0.050
5663,-0.050,0.040
5664,-0.030,0.080
5665,-0.010,0.090
5666,-0.010,0.070
5667,-0.010,0.070
5668,0.020,0.090
5669,0.020,0.090
5670,0.030,0.090
5671,0.000,0.060
5672,0.000,0.100
5673,0.030,0.110
5674,0.060,0.120
5675,0.020,0.100
5676,0.040,0.130
5677,0.040,0.210
5678,0.030,0.270
5679,0.020,0.230
5680,0.010,0.250
5681,0.100,0.230
5682,0.090,0.100
5683,0.130,0.080
5684,0.110,0.050
5685,0.110,0.040
5686,0.150,0.010
5687,0.100,0.000
5688,0.050,-0.020
5689,0.070,0.050
5690,0.070,0.030
5691,0.050,0.010
5692,0.060,0.010
5693,0.060,0.020
5694,0.060,0.020
5695,0.060,0.000
5696,0.040,0.010
5697,0.020,0.020
5698,0.040,0.030
5699,0.040,0.020
5700,0.030,0.010
5701,0.060,0.030
5702,0.050,0.030
5703,0.050,0.020
5704,0.060,0.010
5705,0.040,0.020
5706,0.030,0.010
5707,0.060,0.000
5708,0.070,0.010
5709,0.230,0.040
5710,0.620,0.200
5711,1.110,-0.070
5712,2.050,-1.460
5713,2.290,-3.100
5714,1.470,-3.760
5715,0.620,-3.690
5716,0.370,-2.840
5717,-0.140,-2.190
5718,-0.490,-1.570
5719,-0.560,-1.110
5720,-0.530,-0.740
5721,-0.450,-0.510
5722,-0.330,-0.250
5723,-0.220,0.080
5724,-0.170,0.240
5725,-0.150,0.250
5726,-0.150,0.280
5727,-0.170,0.290
5728,-0.180,0.320
5729,-0.160,0.350
5730,-0.170,0.360
5731,-0.210,0.350
5732,-0.230,0.390
5733,-0.210,0.420
5734,-0.240,0.440
5735,-0.260,0.460
5736,-0.280,0.500
5737,-0.280,0.540
5738,-0.330,0.580
5739,-0.380,0.610
5740,-0.410,0.660
5741,-0.470,0.710
5742,-0.500,0.760
5743,-0.520,0.780
5744,-0.570,0.830
5745,-0.610,0.870
5746,-0.590,0.890
5747,-0.610,0.890
5748,-0.610,0.860
5749,-0.490,0.840
5750,-0.390,0.770
5751,-0.290,0.690
5752,-0.130,0.610
5753,-0.010,0.520
5754,0.070,0.400
5755,0.120,0.290
5756,0.080,0.220
5757,0.090,0.150
5758,0.110,0.110
5759,0.100,0.070
5760,0.080,0.070
5761,0.100,0.060
5762,0.090,0.050
5763,0.070,0.050
5764,0.070,0.040
5765,0.020,0.040
5766,0.010,0.050
5767,0.030,0.060
5768,0.000,0.060
5769,0.030,0.080
5770,0.050,0.090
5771,0.030,0.080
5772,0.000,0.080
5773,0.030,0.070
5774,0.020,0.090
5775,0.030,0.080
5776,0.050,0.080
5777,0.050,0.080
5778,0.050,0.060
5779,0.080,0.050
5780,0.060,0.060
5781,0.060,0.060
5782,0.040,0.050
5783,0.030,0.090
5784,0.000,0.160
5785,0.060,0.220
5786,0.040,0.190
5787,0.050,0.220
5788,0.160,0.160
5789,0.150,0.050
5790,0.150,0.030
5791,0.160,-0.020
5792,0.150,-0.030
5793,0.170,-0.020
5794,0.160,-0.040
5795,0.130,-0.050
5796,0.090,0.020
5797,0.120,0.010
5798,0.090,-0.020
5799,0.040,-0.030
5800,0.060,-0.020
5801,0.090,-0.010
5802,0.070,-0.010
5803,0.080,-0.030
5804,0.090,0.000
5805,0.090,0.020
5806,0.100,-0.010
5807,0.090,-0.020
5808,0.050,-0.010
5809,0.100,0.010
5810,0.090,-0.010
5811,0.080,-0.020
5812,0.110,-0.010
5813,0.110,0.000
5814,0.100,-0.010
5815,0.140,-0.010
5816,0.240,0.040
5817,0.600,0.200
5818,1.010,0.000
5819,2.010,-1.240
5820,2.290,-2.980
5821,1.520,-3.730
5822,0.660,-3.750
5823,0.370,-2.870
5824,-0.110,-2.210
5825,-0.490,-1.550
5826,-0.580,-1.090
5827,-0.480,-0.720
5828,-0.430,-0.500
5829,-0.270,-0.240
5830,-0.130,0.100
5831,-0.100,0.230
5832,-0.120,0.240
5833,-0.110,0.270
5834,-0.120,0.270
5835,-0.150,0.280
5836,-0.140,0.310
5837,-0.140,0.330
5838,-0.140,0.330
5839,-0.170,0.370
5840,-0.170,0.390
5841,-0.190,0.410
5842,-0.220,0.400
5843,-0.270,0.450
5844,-0.290,0.490
5845,-0.280,0.550
5846,-0.310,0.580
5847,-0.370,0.640
5848,-0.400,0.690
5849,-0.410,0.740
5850,-0.500,0.770
5851,-0.570,0.810
5852,-0.580,0.850
5853,-0.590,0.880
5854,-0.570,0.860
5855,-0.520,0.850
5856,-0.460,0.840
5857,-0.340,0.780
5858,-0.210,0.690
5859,-0.150,0.590
5860,-0.010,0.520
5861,0.090,0.410
5862,0.110,0.310
5863,0.140,0.230
5864,0.170,0.190
5865,0.170,0.150
5866,0.160,0.100
5867,0.140,0.090
5868,0.120,0.080
5869,0.130,0.080
5870,0.120,0.050
5871,0.070,0.060
5872,0.090,0.050
5873,0.100,0.060
5874,0.060,0.050
5875,0.070,0.050
5876,0.050,0.070
5877,0.130,0.110
5878,0.400,0.260
5879,0.460,0.530
5880,0.660,0.680
5881,1.090,0.990
5882,1.340,1.380
5883,1.740,1.640
5884,2.050,2.020
5885,2.180,2.160
5886,2.560,2.180
5887,2.220,1.860
5888,0.800,1.280
5889,0.240,0.730
5890,-0.110,0.410
5891,-0.350,0.080
5892,-0.220,0.010
5893,-0.260,-0.060
5894,-0.220,-0.120
5895,-0.220,-0.250
5896,-0.210,-0.340
5897,-0.220,-0.370
5898,-0.250,-0.440
5899,-0.260,-0.490
5900,-0.290,-0.500
5901,-0.390,-0.550
5902,-0.450,-0.590
5903,-0.520,-0.590
5904,-0.590,-0.650
5905,-0.610,-0.730
5906,-0.680,-0.820
5907,-0.810,-0.910
5908,-0.860,-1.000
5909,-0.930,-1.090
5910,-1.100,-1.190
5911,-1.190,-1.260
5912,-1.270,-1.320
5913,-1.350,-1.360
5914,-1.390,-1.380
5915,-1.430,-1.340
5916,-1.440,-1.270
5917,-1.390,-1.170
5918,-1.370,-1.050
5919,-1.360,-0.900
5920,-1.230,-0.720
5921,-1.090,-0.550
5922,-0.980,-0.430
5923,-0.810,-0.310
5924,-0.640,-0.180
5925,-0.510,-0.130
5926,-0.400,-0.090
5927,-0.330,-0.080
5928,-0.260,-0.020
5929,-0.150,0.000
5930,-0.090,0.000
5931,-0.070,0.000
5932,0.000,0.030
5933,0.030,0.040
5934,0.020,0.020
5935,0.040,0.020
5936,0.030,0.030
5937,0.070,0.040
5938,0.070,0.030
5939,0.100,0.020
5940,0.090,0.020
5941,0.140,0.040
5942,0.130,0.030
5943,0.120,0.020
5944,0.120,0.020
5945,0.130,0.040
5946,0.120,0.030
5947,0.140,0.030
5948,0.150,0.030
5949,0.170,0.040
5950,0.180,0.040
5951,0.160,0.030
5952,0.140,0.030
5953,0.140,0.020
5954,0.150,0.020
5955,0.150,0.010
5956,0.170,0.020
5957,0.180,0.010
5958,0.160,0.000
5959,0.160,-0.010
5960,0.170,-0.010
5961,0.140,-0.010
5962,0.170,-0.020
5963,0.150,-0.020
5964,0.150,-0.020
5965,0.180,-0.020
5966,0.170,-0.020
5967,0.150,-0.020
5968,0.170,0.000
5969,0.170,0.000
5970,0.120,-0.010
5971,0.140,-0.010
5972,0.150,0.020
5973,0.150,0.010
5974,0.180,0.010
5975,0.180,0.010
5976,0.170,0.010
5977,0.200,0.000
5978,0.170,-0.010
5979,0.140,-0.010
5980,0.160,0.010
5981,0.180,0.020
5982,0.170,0.010
5983,0.170,0.010
5984,0.190,0.020
5985,0.160,0.020
5986,0.170,0.000
5987,0.150,-0.010
5988,0.140,0.010
5989,0.180,0.000
5990,0.190,-0.010
5991,0.180,-0.040
5992,0.190,0.000
5993,0.200,-0.020
5994,0.180,-0.020
5995,0.150,-0.020
5996,0.140,0.050
5997,0.140,0.140
5998,0.150,0.120
5999,0.140,0.170
6000,0.200,0.170
6001,0.240,0.060
6002,0.240,0.030
6003,0.220,-0.020
6004,0.220,-0.040
6005,0.240,-0.050
6006,0.220,-0.050
6007,0.210,-0.080
6008,0.210,-0.010
6009,0.190,0.000
6010,0.200,-0.040
6011,0.190,-0.040
6012,0.150,-0.040
6013,0.180,-0.040
6014,0.180,-0.040
6015,0.160,-0.050
6016,0.200,-0.040
6017,0.210,-0.020
6018,0.200,-0.030
6019,0.200,-0.050
6020,0.170,-0.040
6021,0.170,-0.050
6022,0.190,-0.040
6023,0.180,-0.050
6024,0.160,-0.030
6025,0.210,-0.030
6026,0.220,-0.040
6027,0.260,-0.020
6028,0.480,0.020
6029,0.700,0.160
6030,1.470,-0.310
6031,2.350,-1.960
6032,2.070,-3.300
6033,1.280,-3.980
6034,0.650,-3.550
6035,0.420,-2.530
6036,-0.040,-2.090
6037,-0.390,-1.460
6038,-0.490,-1.010
6039,-0.420,-0.710
6040,-0.290,-0.470
6041,-0.150,-0.180
6042,-0.050,0.120
6043,-0.050,0.250
6044,-0.050,0.230
6045,-0.060,0.260
6046,-0.050,0.260
6047,-0.090,0.260
6048,-0.120,0.300
6049,-0.090,0.320
6050,-0.110,0.310
6051,-0.120,0.330
6052,-0.120,0.380
6053,-0.110,0.400
6054,-0.150,0.410
6055,-0.180,0.440
6056,-0.200,0.480
6057,-0.210,0.500
6058,-0.220,0.530
6059,-0.230,0.570
6060,-0.270,0.620
6061,-0.270,0.660
6062,-0.290,0.670
6063,-0.370,0.710
6064,-0.370,0.740
6065,-0.380,0.770
6066,-0.390,0.780
6067,-0.370,0.770
6068,-0.290,0.800
6069,-0.260,0.760
6070,-0.170,0.720
6071,-0.110,0.630
6072,-0.050,0.570
6073,0.040,0.500
6074,0.110,0.400
6075,0.140,0.320
6076,0.180,0.250
6077,0.200,0.210
6078,0.170,0.160
6079,0.170,0.120
6080,0.160,0.090
6081,0.130,0.090
6082,0.140,0.070
6083,0.130,0.060
6084,0.100,0.080
6085,0.160,0.060
6086,0.130,0.070
6087,0.100,0.050
6088,0.130,0.070
6089,0.110,0.070
6090,0.090,0.070
6091,0.100,0.090
6092,0.120,0.090
6093,0.130,0.080
6094,0.150,0.090
6095,0.140,0.070
6096,0.120,0.080
6097,0.140,0.070
6098,0.120,0.050
6099,0.100,0.050
6100,0.150,0.040
6101,0.160,0.050
6102,0.140,0.040
6103,0.120,0.090
6104,0.130,0.170
6105,0.120,0.180
6106,0.100,0.180
6107,0.120,0.200
6108,0.190,0.130
6109,0.220,0.050
6110,0.240,0.030
6111,0.220,-0.010
6112,0.270,-0.030
6113,0.290,-0.020
6114,0.210,-0.060
6115,0.200,-0.050
6116,0.180,0.000
6117,0.190,-0.030
6118,0.170,-0.040
6119,0.190,-0.050
6120,0.170,-0.040
6121,0.190,-0.060
6122,0.180,-0.040
6123,0.130,-0.050
6124,0.140,-0.070
6125,0.150,-0.060
6126,0.150,-0.060
6127,0.120,-0.060
6128,0.170,-0.070
6129,0.160,-0.040
6130,0.150,-0.050
6131,0.150,-0.050
6132,0.130,-0.050
6133,0.130,-0.040
6134,0.160,-0.030
6135,0.200,-0.010
6136,0.370,0.020
6137,0.700,0.170
6138,1.100,-0.070
6139,2.060,-1.390
6140,2.270,-3.100
6141,1.460,-3.850
6142,0.680,-3.800
6143,0.420,-2.870
6144,-0.030,-2.280
6145,-0.370,-1.630
6146,-0.450,-1.130
6147,-0.410,-0.740
6148,-0.300,-0.520
6149,-0.200,-0.270
6150,-0.090,0.100
6151,-0.060,0.250
6152,-0.040,0.230
6153,-0.050,0.260
6154,-0.070,0.290
6155,-0.050,0.300
6156,-0.050,0.310
6157,-0.080,0.330
6158,-0.100,0.350
6159,-0.130,0.370
6160,-0.130,0.380
6161,-0.130,0.420
6162,-0.160,0.450
6163,-0.190,0.490
6164,-0.170,0.510
6165,-0.210,0.560
6166,-0.280,0.600
6167,-0.290,0.630
6168,-0.340,0.670
6169,-0.380,0.710
6170,-0.410,0.770
6171,-0.460,0.800
6172,-0.480,0.820
6173,-0.480,0.840
6174,-0.480,0.860
6175,-0.460,0.830
6176,-0.370,0.800
6177,-0.280,0.750
6178,-0.160,0.670
6179,-0.020,0.580
6180,0.070,0.470
6181,0.140,0.380
6182,0.170,0.270
6183,0.140,0.180
6184,0.130,0.120
6185,0.150,0.090
6186,0.130,0.080
6187,0.110,0.060
6188,0.140,0.030
6189,0.100,0.050
6190,0.090,0.030
6191,0.100,0.040
6192,0.050,0.020
6193,0.030,0.050
6194,0.080,0.070
6195,0.070,0.050
6196,0.060,0.050
6197,0.090,0.070
6198,0.090,0.080
6199,0.080,0.070
6200,0.090,0.050
6201,0.060,0.060
6202,0.080,0.060
6203,0.110,0.040
6204,0.080,0.040
6205,0.100,0.050
6206,0.110,0.050
6207,0.110,0.030
6208,0.090,0.020
6209,0.080,0.020
6210,0.090,0.020
6211,0.070,0.040
6212,0.060,0.110
6213,0.060,0.190
6214,0.070,0.190
6215,0.110,0.210
6216,0.150,0.130
6217,0.130,0.050
6218,0.180,0.050
6219,0.180,0.000
6220,0.170,-0.030
6221,0.190,-0.020
6222,0.160,-0.020
6223,0.140,-0.030
6224,0.130,0.010
6225,0.110,0.000
6226,0.050,-0.010
6227,0.090,-0.030
6228,0.070,-0.020
6229,0.070,-0.020
6230,0.090,-0.010
6231,0.080,-0.020
6232,0.090,-0.010
6233,0.100,-0.010
6234,0.090,0.000
6235,0.060,-0.010
6236,0.080,-0.020
6237,0.090,-0.010
6238,0.090,0.000
6239,0.120,-0.010
6240,0.100,0.010
6241,0.100,0.010
6242,0.100,0.010
6243,0.100,0.020
6244,0.220,0.030
6245,0.620,0.200
6246,0.940,0.010
6247,1.930,-1.170
6248,2.260,-3.000
6249,1.470,-3.800
6250,0.670,-3.820
6251,0.360,-2.940
6252,-0.100,-2.280
6253,-0.460,-1.600
6254,-0.540,-1.140
6255,-0.510,-0.750
6256,-0.460,-0.540
6257,-0.280,-0.250
6258,-0.160,0.100
6259,-0.120,0.250
6260,-0.120,0.240
6261,-0.150,0.280
6262,-0.160,0.320
6263,-0.140,0.320
6264,-0.160,0.340
6265,-0.140,0.360
6266,-0.150,0.410
6267,-0.170,0.410
6268,-0.200,0.410
6269,-0.230,0.450
6270,-0.240,0.490
6271,-0.270,0.500
6272,-0.260,0.530
6273,-0.300,0.570
6274,-0.350,0.610
6275,-0.330,0.630
6276,-0.410,0.680
6277,-0.470,0.720
6278,-0.510,0.760
6279,-0.550,0.790
6280,-0.600,0.820
6281,-0.590,0.850
6282,-0.570,0.860
6283,-0.540,0.860
6284,-0.430,0.810
6285,-0.350,0.770
6286,-0.280,0.680
6287,-0.140,0.590
6288,-0.030,0.490
6289,0.050,0.400
6290,0.120,0.310
6291,0.120,0.240
6292,0.100,0.150
6293,0.090,0.130
6294,0.080,0.100
6295,0.040,0.080
6296,0.040,0.060
6297,0.030,0.070
6298,0.030,0.080
6299,0.060,0.060
6300,0.010,0.060
6301,-0.010,0.070
6302,0.000,0.090
6303,-0.030,0.080
6304,-0.050,0.070
6305,-0.030,0.080
6306,-0.020,0.100
6307,-0.020,0.090
6308,-0.010,0.080
6309,0.000,0.110
6310,0.020,0.100
6311,0.000,0.070
6312,0.000,0.070
6313,-0.020,0.090
6314,0.010,0.080
6315,0.030,0.060
6316,0.020,0.040
6317,0.030,0.060
6318,0.030,0.060
6319,-0.020,0.080
6320,-0.050,0.150
6321,-0.050,0.170
6322,-0.040,0.220
6323,0.040,0.190
6324,0.070,0.080
6325,0.070,0.060
6326,0.100,0.030
6327,0.090,-0.010
6328,0.070,-0.040
6329,0.080,-0.010
6330,0.040,-0.040
6331,0.030,-0.010
6332,0.000,-0.010
6333,0.010,-0.020
6334,0.020,-0.010
6335,0.020,-0.020
6336,0.010,-0.030
6337,-0.040,-0.020
6338,-0.020,-0.010
6339,-0.020,-0.010
6340,-0.030,-0.030
6341,0.010,0.000
6342,0.010,0.000
6343,0.010,-0.020
6344,0.000,-0.020
6345,0.010,-0.010
6346,-0.020,-0.020
6347,0.010,-0.020
6348,-0.010,-0.020
6349,-0.010,-0.010
6350,0.040,-0.010
6351,0.140,0.000
6352,0.390,0.080
6353,0.590,0.120
6354,1.540,-0.620
6355,2.240,-2.560
6356,1.720,-3.560
6357,0.880,-4.000
6358,0.340,-3.410
6359,0.100,-2.450
6360,-0.310,-1.970
6361,-0.640,-1.410
6362,-0.660,-0.900
6363,-0.590,-0.630
6364,-0.490,-0.400
6365,-0.300,-0.090
6366,-0.200,0.190
6367,-0.230,0.270
6368,-0.200,0.280
6369,-0.210,0.320
6370,-0.220,0.340
6371,-0.230,0.350
6372,-0.280,0.360
6373,-0.300,0.410
6374,-0.290,0.420
6375,-0.300,0.450
6376,-0.320,0.440
6377,-0.330,0.500
6378,-0.340,0.520
6379,-0.380,0.530
6380,-0.420,0.550
6381,-0.450,0.590
6382,-0.500,0.640
6383,-0.520,0.670
6384,-0.570,0.710
6385,-0.620,0.750
6386,-0.620,0.800
6387,-0.660,0.810
6388,-0.710,0.840
6389,-0.730,0.870
6390,-0.690,0.880
6391,-0.670,0.850
6392,-0.560,0.810
6393,-0.410,0.760
6394,-0.310,0.690
6395,-0.170,0.570
6396,-0.070,0.470
6397,-0.050,0.380
6398,0.020,0.290
6399,0.020,0.210
6400,-0.010,0.150
6401,0.020,0.120
6402,0.030,0.110
6403,-0.010,0.100
6404,-0.010,0.060
6405,-0.020,0.070
6406,-0.060,0.070
6407,-0.060,0.070
6408,-0.060,0.060
6409,-0.080,0.070
6410,-0.060,0.060
6411,-0.070,0.070
6412,-0.090,0.070
6413,-0.040,0.080
6414,-0.040,0.080
6415,-0.110,0.080
6416,-0.100,0.100
6417,-0.050,0.100
6418,-0.040,0.100
6419,-0.030,0.090
6420,-0.040,0.100
6421,-0.040,0.080
6422,-0.010,0.070
6423,-0.050,0.060
6424,-0.080,0.060
6425,-0.030,0.080
6426,0.000,0.090
6427,-0.060,0.160
6428,-0.050,0.230
6429,-0.010,0.220
6430,-0.020,0.230
6431,0.030,0.190
6432,0.040,0.070
6433,0.030,0.080
6434,0.070,0.020
6435,0.070,0.000
6436,0.070,-0.010
6437,0.050,0.000
6438,0.080,-0.030
6439,0.010,0.040
6440,-0.030,0.030
6441,0.000,0.000
6442,-0.030,0.010
6443,-0.030,0.010
6444,-0.010,0.010
6445,0.000,0.010
6446,-0.030,0.020
6447,0.010,0.010
6448,-0.020,0.010
6449,-0.040,-0.020
6450,-0.020,0.000
6451,-0.020,0.030
6452,-0.010,0.000
6453,0.020,-0.010
6454,0.020,0.000
6455,0.030,0.020
6456,0.030,-0.010
6457,-0.010,-0.020
6458,0.000,-0.010
6459,0.110,0.000
6460,0.390,0.100
6461,0.590,0.100
6462,1.530,-0.580
6463,2.280,-2.490
6464,1.760,-3.530
6465,0.900,-4.000
6466,0.340,-3.430
6467,0.060,-2.450
6468,-0.350,-1.950
6469,-0.670,-1.410
6470,-0.710,-0.890
6471,-0.590,-0.610
6472,-0.460,-0.380
6473,-0.320,-0.100
6474,-0.210,0.190
6475,-0.270,0.270
6476,-0.250,0.280
6477,-0.250,0.300
6478,-0.260,0.330
6479,-0.260,0.370
6480,-0.270,0.370
6481,-0.290,0.390
6482,-0.300,0.410
6483,-0.310,0.410
6484,-0.330,0.440
6485,-0.370,0.460
6486,-0.360,0.490
6487,-0.380,0.540
6488,-0.410,0.570
6489,-0.420,0.620
6490,-0.470,0.670
6491,-0.500,0.720
6492,-0.580,0.730
6493,-0.630,0.780
6494,-0.680,0.820
6495,-0.700,0.860
6496,-0.720,0.880
6497,-0.730,0.890
6498,-0.690,0.900
6499,-0.610,0.880
6500,-0.560,0.790
6501,-0.470,0.740
6502,-0.340,0.670
6503,-0.190,0.580
6504,-0.080,0.450
6505,0.000,0.350
6506,0.010,0.280
6507,0.060,0.200
6508,0.050,0.130
6509,-0.010,0.080
6510,0.000,0.080
6511,0.020,0.070
6512,-0.020,0.060
6513,-0.020,0.060
6514,0.000,0.070
6515,-0.020,0.070
6516,-0.020,0.070
6517,-0.020,0.080
6518,-0.090,0.060
6519,-0.070,0.080
6520,-0.050,0.080
6521,-0.070,0.090
6522,-0.060,0.100
6523,-0.040,0.100
6524,-0.070,0.110
6525,-0.050,0.090
6526,-0.040,0.080
6527,-0.070,0.080
6528,-0.060,0.070
6529,-0.020,0.070
6530,-0.030,0.060
6531,0.020,0.050
6532,0.020,0.050
6533,0.000,0.050
6534,0.010,0.060
6535,-0.020,0.120
6536,-0.050,0.200
6537,-0.050,0.180
6538,0.010,0.210
6539,0.060,0.160
6540,0.060,0.050
6541,0.080,0.070
6542,0.090,0.020
6543,0.070,-0.010
6544,0.070,-0.010
6545,0.010,0.000
6546,0.040,-0.020
6547,0.050,0.050
6548,0.000,0.030
6549,0.000,0.050
6550,0.020,0.020
6551,-0.010,0.030
6552,-0.040,0.020
6553,-0.030,0.020
6554,-0.030,0.020
6555,0.000,0.030
6556,0.000,0.040
6557,-0.020,0.020
6558,0.010,0.030
6559,0.030,0.010
6560,-0.030,0.000
6561,-0.030,0.010
6562,0.000,0.010
6563,0.000,0.000
6564,0.010,-0.020
6565,0.040,-0.010
6566,0.070,-0.010
6567,0.240,0.020
6568,0.570,0.150
6569,0.910,-0.040
6570,1.950,-1.310
6571,2.220,-3.090
6572,1.410,-3.850
6573,0.610,-3.840
6574,0.310,-2.970
6575,-0.160,-2.300
6576,-0.510,-1.670
6577,-0.600,-1.200
6578,-0.610,-0.810
6579,-0.550,-0.580
6580,-0.370,-0.330
6581,-0.240,-0.010
6582,-0.180,0.160
6583,-0.150,0.220
6584,-0.190,0.250
6585,-0.180,0.260
6586,-0.190,0.270
6587,-0.220,0.310
6588,-0.230,0.330
6589,-0.200,0.350
6590,-0.220,0.360
6591,-0.210,0.380
6592,-0.220,0.430
6593,-0.230,0.440
6594,-0.250,0.480
6595,-0.280,0.500
6596,-0.340,0.530
6597,-0.360,0.580
6598,-0.360,0.620
6599,-0.400,0.690
6600,-0.470,0.740
6601,-0.490,0.780
6602,-0.540,0.800
6603,-0.580,0.850
6604,-0.630,0.870
6605,-0.630,0.880
6606,-0.570,0.870
6607,-0.480,0.850
6608,-0.400,0.810
6609,-0.290,0.730
6610,-0.120,0.630
6611,-0.020,0.530
6612,0.040,0.430
6613,0.100,0.330
6614,0.110,0.230
6615,0.100,0.170
6616,0.130,0.120
6617,0.120,0.090
6618,0.110,0.080
6619,0.110,0.060
6620,0.060,0.060
6621,0.050,0.050
6622,0.050,0.050
6623,0.050,0.050
6624,0.030,0.060
6625,0.060,0.060
6626,0.030,0.060
6627,0.030,0.070
6628,0.030,0.080
6629,0.000,0.080
6630,0.020,0.080
6631,0.040,0.090
6632,0.040,0.100
6633,0.030,0.090
6634,0.070,0.090
6635,0.060,0.100
6636,0.060,0.080
6637,0.070,0.070
6638,0.050,0.060
6639,0.040,0.080
6640,0.080,0.080
6641,0.070,0.080
6642,0.040,0.140
6643,0.060,0.220
6644,0.050,0.240
6645,0.050,0.240
6646,0.090,0.200
6647,0.100,0.120
6648,0.110,0.100
6649,0.150,0.050
6650,0.130,0.010
6651,0.140,0.020
6652,0.150,0.030
6653,0.110,-0.020
6654,0.090,0.010
6655,0.050,0.040
6656,0.040,0.030
6657,0.070,0.010
6658,0.060,0.000
6659,0.060,0.000
6660,0.050,0.000
6661,0.080,0.000
6662,0.060,-0.030
6663,0.040,-0.010
6664,0.040,-0.020
6665,0.040,-0.020
6666,0.030,-0.020
6667,0.070,-0.020
6668,0.080,-0.010
6669,0.060,-0.020
6670,0.080,-0.020
6671,0.080,-0.020
6672,0.060,-0.030
6673,0.080,-0.030
6674,0.160,-0.010
6675,0.430,0.070
6676,0.690,0.150
6677,1.600,-0.490
6678,2.370,-2.380
6679,1.920,-3.480
6680,1.100,-3.970
6681,0.460,-3.510
6682,0.220,-2.530
6683,-0.180,-1.990
6684,-0.540,-1.430
6685,-0.560,-0.940
6686,-0.490,-0.640
6687,-0.360,-0.420
6688,-0.190,-0.130
6689,-0.100,0.150
6690,-0.170,0.250
6691,-0.130,0.270
6692,-0.140,0.300
6693,-0.160,0.310
6694,-0.140,0.310
6695,-0.160,0.350
6696,-0.160,0.360
6697,-0.160,0.370
6698,-0.220,0.360
6699,-0.230,0.390
6700,-0.230,0.420
6701,-0.240,0.440
6702,-0.290,0.470
6703,-0.280,0.520
6704,-0.300,0.550
6705,-0.350,0.590
6706,-0.410,0.620
6707,-0.460,0.680
6708,-0.520,0.720
6709,-0.560,0.770
6710,-0.570,0.810
6711,-0.620,0.830
6712,-0.600,0.860
6713,-0.580,0.860
6714,-0.550,0.850
6715,-0.460,0.810
6716,-0.350,0.740
6717,-0.260,0.670
6718,-0.130,0.570
6719,0.020,0.470
6720,0.120,0.370
6721,0.140,0.290
6722,0.170,0.200
6723,0.140,0.120
6724,0.120,0.090
6725,0.130,0.060
6726,0.110,0.050
6727,0.130,0.040
6728,0.150,0.030
6729,0.110,0.050
6730,0.120,0.040
6731,0.120,0.020
6732,0.080,0.030
6733,0.060,0.020
6734,0.060,0.040
6735,0.090,0.030
6736,0.070,0.040
6737,0.100,0.070
6738,0.070,0.060
6739,0.090,0.060
6740,0.110,0.060
6741,0.070,0.060
6742,0.080,0.050
6743,0.120,0.050
6744,0.100,0.050
6745,0.110,0.060
6746,0.150,0.050
6747,0.140,0.040
6748,0.140,0.030
6749,0.120,0.040
6750,0.100,0.050
6751,0.060,0.130
6752,0.100,0.180
6753,0.080,0.170
6754,0.120,0.210
6755,0.200,0.150
6756,0.190,0.050
6757,0.190,0.060
6758,0.160,0.000
6759,0.170,-0.030
6760,0.160,0.000
6761,0.160,0.000
6762,0.140,-0.030
6763,0.110,0.020
6764,0.110,0.030
6765,0.100,0.020
6766,0.060,-0.010
6767,0.040,0.000
6768,0.070,0.010
6769,0.050,0.020
6770,0.070,-0.010
6771,0.070,0.000
6772,0.080,0.020
6773,0.110,0.010
6774,0.100,-0.010
6775,0.070,-0.020
6776,0.080,-0.010
6777,0.110,-0.020
6778,0.100,-0.030
6779,0.100,-0.040
6780,0.150,-0.040
6781,0.130,-0.040
6782,0.160,-0.060
6783,0.290,-0.030
6784,0.590,0.100
6785,0.910,-0.020
6786,1.900,-1.070
6787,2.310,-2.940
6788,1.660,-3.740
6789,0.810,-3.940
6790,0.390,-3.160
6791,-0.010,-2.370
6792,-0.350,-1.770
6793,-0.570,-1.290
6794,-0.560,-0.840
6795,-0.460,-0.600
6796,-0.360,-0.330
6797,-0.160,0.010
6798,-0.100,0.200
6799,-0.150,0.260
6800,-0.130,0.260
6801,-0.130,0.280
6802,-0.190,0.290
6803,-0.190,0.320
6804,-0.160,0.340
6805,-0.170,0.360
6806,-0.180,0.380
6807,-0.190,0.420
6808,-0.210,0.430
6809,-0.210,0.450
6810,-0.280,0.490
6811,-0.330,0.510
6812,-0.310,0.560
6813,-0.310,0.600
6814,-0.390,0.650
6815,-0.440,0.700
6816,-0.450,0.730
6817,-0.510,0.770
