'sample interval','ECG0','ECG1'
'0.0078125 sec','mV','mV'
0,0.325,0.305
1,0.215,0.165
2,0.105,0.055
3,0.015,-0.005
4,-0.125,-0.095
5,-0.195,-0.125
6,-0.205,-0.145
7,-0.235,-0.155
8,-0.265,-0.185
9,-0.275,-0.155
10,-0.275,-0.185
11,-0.295,-0.205
12,-0.295,-0.185
13,-0.285,-0.145
14,-0.285,-0.135
15,-0.265,-0.215
16,-0.335,-0.255
17,-0.285,-0.195
18,-0.245,-0.185
19,-0.285,-0.145
20,-0.155,-0.165
21,-0.135,-0.205
22,-0.125,-0.155
23,-0.175,-0.185
24,-0.165,-0.175
25,-0.155,-0.165
26,-0.145,-0.155
27,-0.175,-0.155
28,-0.165,-0.155
29,-0.125,-0.135
30,-0.085,-0.105
31,-0.105,-0.085
32,-0.065,-0.105
33,0.015,-0.075
34,-0.035,-0.055
35,-0.065,-0.165
36,-0.045,-0.195
37,-0.045,-0.065
38,-0.135,-0.125
39,-0.245,-0.195
40,-0.205,-0.385
41,-0.205,-0.295
42,-0.235,-0.255
43,-0.215,-0.245
44,-0.205,-0.235
45,-0.225,-0.205
46,-0.225,-0.215
47,-0.185,-0.185
48,-0.255,-0.175
49,-0.205,-0.165
50,-0.205,-0.155
51,-0.175,-0.275
52,-0.385,-0.215
53,-0.485,-0.035
54,0.105,0.145
55,1.395,0.125
56,2.025,-0.035
57,0.635,-0.615
58,-0.995,-1.535
59,-1.285,-1.965
60,-1.085,-1.705
61,-0.535,-1.175
62,-0.305,-0.505
63,-0.195,-0.115
64,-0.145,-0.045
65,-0.135,-0.005
66,-0.135,0.055
67,-0.155,0.105
68,-0.145,0.035
69,-0.105,0.075
70,-0.015,0.085
71,0.015,0.125
72,0.055,0.125
73,0.065,0.125
74,0.065,0.195
75,0.145,0.265
76,0.205,0.185
77,0.225,0.155
78,0.285,0.255
79,0.335,0.335
80,0.405,0.365
81,0.495,0.455
82,0.575,0.485
83,0.635,0.515
84,0.685,0.525
85,0.695,0.525
86,0.695,0.505
87,0.625,0.455
88,0.525,0.375
89,0.355,0.285
90,0.205,0.165
91,0.045,0.075
92,-0.045,-0.125
93,-0.065,-0.135
94,-0.125,-0.135
95,-0.165,-0.165
96,-0.185,-0.185
97,-0.185,-0.185
98,-0.195,-0.165
99,-0.195,-0.165
100,-0.195,-0.185
101,-0.205,-0.135
102,-0.175,-0.155
103,-0.205,-0.155
104,-0.235,-0.195
105,-0.235,-0.185
106,-0.185,-0.155
107,-0.165,-0.175
108,-0.185,-0.155
109,-0.145,-0.155
110,-0.125,-0.115
111,-0.135,-0.125
112,-0.095,-0.125
113,-0.095,-0.095
114,-0.135,-0.115
115,-0.115,-0.135
116,-0.085,-0.115
117,-0.045,-0.125
118,0.005,-0.075
119,-0.035,-0.035
120,0.025,-0.055
121,0.075,-0.025
122,0.055,-0.025
123,0.025,-0.125
124,0.055,-0.145
125,0.025,-0.085
126,-0.095,-0.095
127,-0.165,-0.155
128,-0.155,-0.195
129,-0.175,-0.225
130,-0.205,-0.215
131,-0.225,-0.205
132,-0.215,-0.215
133,-0.185,-0.195
134,-0.175,-0.165
135,-0.185,-0.175
136,-0.195,-0.165
137,-0.175,-0.145
138,-0.175,-0.125
139,-0.195,-0.135
140,-0.415,-0.075
141,-0.385,0.065
142,0.435,0.155
143,1.865,0.135
144,2.025,0.085
145,0.125,-0.695
146,-1.145,-1.635
147,-1.275,-1.985
148,-0.805,-1.615
149,-0.365,-1.005
150,-0.165,-0.365
151,-0.135,-0.135
152,-0.075,-0.035
153,-0.055,0.025
154,-0.025,0.045
155,-0.005,0.065
156,-0.005,0.095
157,0.025,0.025
158,0.075,0.035
159,0.075,0.085
160,0.095,0.095
161,0.135,0.125
162,0.145,0.165
163,0.185,0.185
164,0.225,0.225
165,0.285,0.265
166,0.295,0.315
167,0.395,0.365
168,0.455,0.435
169,0.585,0.505
170,0.635,0.555
171,0.655,0.545
172,0.695,0.575
173,0.705,0.645
174,0.755,0.545
175,0.695,0.445
176,0.585,0.405
177,0.425,0.305
178,0.265,0.175
179,0.175,0.095
180,0.055,0.005
181,-0.015,-0.055
182,-0.085,-0.075
183,-0.135,-0.115
184,-0.165,-0.135
185,-0.155,-0.155
186,-0.175,-0.145
187,-0.165,-0.105
188,-0.135,-0.085
189,-0.125,-0.175
190,-0.135,-0.225
191,-0.145,-0.175
192,-0.145,-0.215
193,-0.135,-0.225
194,-0.175,-0.175
195,-0.165,-0.155
196,-0.145,-0.185
197,-0.105,-0.135
198,-0.125,-0.145
199,-0.125,-0.155
200,-0.135,-0.135
201,-0.125,-0.075
202,-0.135,-0.145
203,-0.135,-0.185
204,-0.125,-0.095
205,-0.075,-0.155
206,-0.045,-0.115
207,-0.065,-0.075
208,-0.055,-0.065
209,-0.005,-0.045
210,0.045,-0.005
211,-0.015,-0.055
212,0.005,-0.155
213,0.035,-0.075
214,-0.045,-0.065
215,-0.185,-0.075
216,-0.205,-0.125
217,-0.205,-0.255
218,-0.225,-0.275
219,-0.235,-0.105
220,-0.225,-0.225
221,-0.225,-0.275
222,-0.215,-0.225
223,-0.245,-0.225
224,-0.255,-0.225
225,-0.235,-0.215
226,-0.215,-0.145
227,-0.215,-0.165
228,-0.285,-0.125
229,-0.525,-0.085
230,-0.355,0.125
231,0.745,0.245
232,2.055,0.125
233,1.605,-0.115
234,-0.525,-1.075
235,-1.345,-1.815
236,-1.245,-1.855
237,-0.595,-1.215
238,-0.315,-0.665
239,-0.215,-0.285
240,-0.175,-0.145
241,-0.155,-0.015
242,-0.125,0.045
243,-0.115,0.035
244,-0.145,0.105
245,-0.075,0.055
246,-0.105,0.175
247,-0.055,0.165
248,-0.015,0.045
249,0.045,0.135
250,0.025,0.275
251,-0.025,0.145
252,0.055,0.215
253,0.085,0.275
254,0.125,0.295
255,0.165,0.325
256,0.325,0.245
257,0.415,0.365
258,0.465,0.445
259,0.545,0.495
260,0.555,0.595
261,0.585,0.605
262,0.615,0.625
263,0.585,0.545
264,0.475,0.515
265,0.405,0.375
266,0.245,0.245
267,0.085,0.095
268,-0.065,0.025
269,-0.125,-0.015
270,-0.215,-0.075
271,-0.205,-0.075
272,-0.235,-0.085
273,-0.265,-0.185
274,-0.255,-0.175
275,-0.225,-0.185
276,-0.285,-0.195
277,-0.295,-0.175
278,-0.245,-0.155
279,-0.275,-0.185
280,-0.285,-0.145
281,-0.275,-0.155
282,-0.285,-0.135
283,-0.255,-0.115
284,-0.245,-0.195
285,-0.275,-0.145
286,-0.255,-0.145
287,-0.245,-0.185
288,-0.245,-0.155
289,-0.255,-0.125
290,-0.225,-0.125
291,-0.185,-0.115
292,-0.275,-0.115
293,-0.215,-0.095
294,-0.135,-0.045
295,-0.135,-0.015
296,-0.125,-0.015
297,-0.075,-0.015
298,-0.025,0.035
299,-0.085,-0.095
300,-0.145,-0.165
301,-0.205,-0.105
302,-0.215,-0.135
303,-0.355,-0.175
304,-0.585,-0.215
305,-0.475,-0.235
306,-0.445,-0.175
307,-0.505,-0.225
308,-0.495,-0.235
309,-0.335,-0.185
310,-0.215,-0.165
311,-0.385,-0.165
312,-0.345,-0.225
313,-0.205,-0.255
314,-0.235,-0.135
315,-0.195,-0.235
316,-0.175,-0.175
317,-0.285,-0.165
318,-0.485,-0.055
319,-0.085,0.145
320,1.025,0.175
321,2.085,0.095
322,1.355,-0.465
323,-0.505,-1.545
324,-1.175,-2.095
325,-0.905,-1.995
326,-0.365,-1.325
327,-0.235,-0.445
328,-0.175,-0.075
329,-0.205,0.045
330,-0.165,0.125
331,-0.185,0.115
332,-0.095,0.105
333,-0.145,0.145
334,-0.235,0.135
335,-0.375,0.125
336,-0.355,0.105
337,-0.035,0.125
338,0.105,0.145
339,0.275,0.205
340,0.215,0.215
341,0.195,0.255
342,0.245,0.285
343,0.235,0.385
344,0.285,0.425
345,0.325,0.535
346,0.395,0.585
347,0.495,0.655
348,0.535,0.715
349,0.615,0.745
350,0.615,0.725
351,0.635,0.705
352,0.545,0.665
353,0.505,0.575
354,0.425,0.445
355,0.275,0.325
356,0.115,0.205
357,-0.025,0.095
358,-0.105,-0.025
359,-0.135,-0.055
360,-0.145,-0.065
361,-0.155,-0.065
362,-0.225,-0.085
363,-0.215,-0.115
364,-0.255,-0.115
365,-0.245,-0.105
366,-0.225,-0.105
367,-0.205,-0.095
368,-0.185,-0.095
369,-0.245,-0.095
370,-0.205,-0.095
371,-0.305,-0.095
372,-0.245,-0.085
373,-0.245,-0.115
374,-0.155,-0.075
375,-0.205,-0.145
376,-0.215,-0.165
377,-0.105,-0.125
378,-0.195,-0.125
379,-0.245,-0.125
380,-0.205,-0.125
381,-0.145,-0.125
382,-0.095,-0.105
383,-0.165,-0.085
384,-0.135,-0.065
385,-0.115,-0.045
386,-0.035,-0.035
387,0.035,-0.005
388,-0.035,0.005
389,-0.045,-0.095
390,-0.025,-0.155
391,-0.145,-0.165
392,-0.245,-0.145
393,-0.355,-0.205
394,-0.275,-0.185
395,-0.235,-0.235
396,-0.295,-0.245
397,-0.455,-0.235
398,-0.335,-0.225
399,-0.445,-0.205
400,-0.455,-0.215
401,-0.315,-0.205
402,-0.235,-0.215
403,-0.245,-0.235
404,-0.185,-0.235
405,-0.355,-0.205
406,-0.525,-0.165
407,-0.285,-0.025
408,0.605,-0.005
409,1.515,0.105
410,0.825,-0.195
411,-0.465,-1.305
412,-0.995,-1.985
413,-0.995,-2.185
414,-0.555,-1.825
415,-0.345,-1.125
416,-0.245,-0.495
417,-0.155,-0.225
418,-0.185,-0.025
419,-0.195,-0.005
420,-0.185,-0.025
421,-0.105,0.035
422,-0.165,0.045
423,-0.225,0.095
424,-0.135,0.115
425,-0.065,0.105
426,-0.085,0.165
427,-0.155,0.185
428,0.115,0.245
429,0.145,0.145
430,0.115,0.285
431,0.135,0.285
432,0.175,0.225
433,0.225,0.325
434,0.295,0.445
435,0.375,0.495
436,0.435,0.525
437,0.475,0.575
438,0.475,0.565
439,0.505,0.535
440,0.525,0.685
441,0.425,0.465
442,0.305,0.305
443,0.165,0.305
444,0.075,0.135
445,-0.015,0.065
446,-0.125,0.025
447,-0.145,-0.045
448,-0.305,-0.085
449,-0.355,-0.085
450,-0.235,-0.045
451,-0.305,-0.055
452,-0.245,-0.055
453,-0.265,-0.055
454,-0.225,-0.115
455,-0.335,-0.165
456,-0.325,-0.115
457,-0.335,-0.115
458,-0.365,-0.065
459,-0.255,-0.045
460,-0.225,-0.065
461,-0.275,-0.045
462,-0.355,-0.065
463,-0.535,-0.055
464,-0.205,-0.025
465,-0.175,-0.005
466,-0.305,-0.035
467,-0.195,-0.145
468,-0.165,-0.135
469,-0.125,-0.135
470,-0.105,-0.085
471,-0.135,-0.145
472,-0.065,-0.115
473,-0.035,-0.085
474,-0.055,-0.045
475,-0.005,-0.005
476,0.045,-0.005
477,0.045,-0.005
478,-0.015,-0.195
479,0.045,-0.135
480,-0.055,-0.105
481,-0.175,-0.175
482,-0.195,-0.185
483,-0.275,-0.145
484,-0.245,-0.245
485,-0.275,-0.215
486,-0.315,-0.145
487,-0.335,-0.125
488,-0.305,-0.195
489,-0.235,-0.185
490,-0.275,-0.195
491,-0.305,-0.195
492,-0.385,-0.165
493,-0.295,-0.135
494,-0.525,-0.125
495,-0.835,-0.075
496,-0.215,0.075
497,0.995,0.165
498,1.585,0.105
499,0.295,-0.295
500,-0.925,-1.345
501,-1.075,-1.935
502,-0.915,-2.005
503,-0.355,-1.575
504,-0.095,-0.805
505,-0.195,-0.225
506,-0.095,-0.075
507,-0.115,-0.025
508,-0.035,-0.025
509,-0.055,-0.015
510,-0.105,0.005
511,-0.015,0.105
512,-0.095,0.025
513,-0.075,0.075
514,-0.015,0.115
515,0.015,0.055
516,0.025,0.065
517,-0.025,0.175
518,0.075,0.215
519,0.045,0.235
520,0.155,0.245
521,0.165,0.375
522,0.145,0.375
523,0.205,0.485
524,0.305,0.445
525,0.255,0.475
526,0.335,0.565
527,0.455,0.545
528,0.355,0.535
529,0.215,0.495
530,0.095,0.415
531,0.105,0.245
532,-0.005,0.195
533,-0.085,0.125
534,-0.165,-0.035
535,-0.175,-0.105
536,-0.175,-0.145
537,-0.165,-0.155
538,-0.195,-0.195
539,-0.155,-0.225
540,-0.125,-0.215
541,-0.145,-0.225
542,-0.195,-0.255
543,-0.185,-0.285
544,-0.215,-0.265
545,-0.185,-0.295
546,-0.135,-0.255
547,-0.175,-0.295
548,-0.175,-0.285
549,-0.125,-0.325
550,-0.135,-0.275
551,-0.175,-0.275
552,-0.185,-0.285
553,-0.195,-0.275
554,-0.155,-0.235
555,-0.145,-0.245
556,-0.195,-0.245
557,-0.195,-0.205
558,-0.135,-0.185
559,-0.175,-0.135
560,-0.185,-0.115
561,-0.145,-0.085
562,-0.055,-0.035
563,-0.105,-0.005
564,-0.215,-0.035
565,-0.195,-0.145
566,-0.015,-0.135
567,-0.205,-0.105
568,-0.225,-0.185
569,-0.255,-0.245
570,-0.465,-0.225
571,-0.305,-0.255
572,-0.215,-0.245
573,-0.105,-0.225
574,-0.215,-0.275
575,-0.215,-0.205
576,-0.215,-0.245
577,-0.215,-0.305
578,-0.205,-0.315
579,-0.175,-0.335
580,-0.235,-0.305
581,-0.365,-0.305
582,-0.505,-0.215
583,0.005,-0.045
584,1.115,-0.025
585,1.535,-0.005
586,0.355,-0.545
587,-0.695,-1.615
588,-1.025,-2.095
589,-0.925,-2.065
590,-0.415,-1.595
591,-0.305,-0.765
592,-0.225,-0.305
593,-0.225,-0.095
594,-0.195,-0.005
595,-0.195,0.035
596,-0.205,0.055
597,-0.155,0.085
598,-0.035,0.125
599,-0.125,0.085
600,-0.145,0.145
601,-0.085,0.185
602,-0.025,0.205
603,0.005,0.225
604,0.025,0.255
605,0.075,0.285
606,0.125,0.315
607,0.135,0.425
608,0.195,0.425
609,0.265,0.465
610,0.355,0.545
611,0.445,0.475
612,0.485,0.495
613,0.515,0.525
614,0.535,0.545
615,0.565,0.495
616,0.485,0.465
617,0.365,0.395
618,0.265,0.335
619,0.115,0.245
620,-0.015,0.145
621,-0.115,0.075
622,-0.175,-0.025
623,-0.215,-0.055
624,-0.265,-0.075
625,-0.195,-0.135
626,-0.205,-0.125
627,-0.295,-0.115
628,-0.275,-0.115
629,-0.265,-0.125
630,-0.275,-0.105
631,-0.275,-0.115
632,-0.275,-0.115
633,-0.225,-0.115
634,-0.245,-0.115
635,-0.255,-0.125
636,-0.265,-0.115
637,-0.295,-0.085
638,-0.245,-0.065
639,-0.185,-0.095
640,-0.245,-0.105
641,-0.205,-0.075
642,-0.175,-0.085
643,-0.185,-0.045
644,-0.115,-0.055
645,-0.105,-0.015
646,-0.085,-0.015
647,0.005,-0.005
648,0.015,0.035
649,-0.055,0.035
650,-0.095,-0.065
651,0.005,-0.155
652,-0.105,-0.105
653,-0.185,-0.105
654,-0.285,-0.115
655,-0.275,-0.165
656,-0.265,-0.165
657,-0.265,-0.175
658,-0.275,-0.155
659,-0.265,-0.175
660,-0.295,-0.175
661,-0.305,-0.175
662,-0.285,-0.155
663,-0.265,-0.155
664,-0.285,-0.165
665,-0.265,-0.165
666,-0.185,-0.165
667,-0.495,-0.115
668,-0.525,-0.005
669,0.245,0.075
670,1.445,0.145
671,1.295,0.005
672,-0.245,-0.985
673,-1.015,-1.765
674,-1.175,-2.095
675,-0.805,-1.875
676,-0.335,-1.205
677,-0.195,-0.445
678,-0.155,-0.105
679,-0.165,-0.005
680,-0.175,0.065
681,-0.125,0.115
682,-0.085,0.135
683,-0.105,0.145
684,-0.095,0.135
685,-0.065,0.205
686,-0.025,0.225
687,-0.035,0.235
688,0.005,0.225
689,0.035,0.255
690,0.085,0.295
691,0.115,0.325
692,0.145,0.345
693,0.195,0.405
694,0.275,0.445
695,0.345,0.515
696,0.415,0.535
697,0.505,0.555
698,0.595,0.575
699,0.625,0.585
700,0.605,0.535
701,0.595,0.545
702,0.525,0.445
703,0.375,0.355
704,0.215,0.245
705,0.125,0.165
706,-0.005,0.095
707,-0.055,-0.005
708,-0.105,-0.035
709,-0.135,-0.065
710,-0.155,-0.085
711,-0.175,-0.075
712,-0.155,-0.105
713,-0.175,-0.115
714,-0.175,-0.105
715,-0.185,-0.145
716,-0.185,-0.145
717,-0.115,-0.095
718,-0.155,-0.105
719,-0.175,-0.125
720,-0.185,-0.105
721,-0.165,-0.095
722,-0.155,-0.105
723,-0.105,-0.105
724,-0.155,-0.095
725,-0.125,-0.085
726,-0.115,-0.085
727,-0.125,-0.085
728,-0.095,-0.095
729,-0.035,-0.045
730,-0.025,0.025
731,-0.025,0.015
732,0.045,-0.005
733,0.055,0.025
734,0.025,-0.025
735,0.005,-0.105
736,0.045,-0.115
737,0.045,-0.075
738,-0.095,-0.085
739,-0.195,-0.135
740,-0.185,-0.175
741,-0.175,-0.155
742,-0.175,-0.165
743,-0.195,-0.155
744,-0.195,-0.185
745,-0.135,-0.165
746,-0.155,-0.135
747,-0.215,-0.145
748,-0.195,-0.155
749,-0.175,-0.165
750,-0.155,-0.135
751,-0.215,-0.135
752,-0.415,-0.085
753,-0.145,0.145
754,0.895,0.195
755,1.955,0.055
756,1.435,-0.225
757,-0.615,-1.055
758,-1.365,-1.665
759,-1.305,-1.845
760,-0.715,-1.485
761,-0.345,-0.805
762,-0.185,-0.235
763,-0.135,-0.035
764,-0.125,0.015
765,-0.095,0.055
766,-0.075,0.065
767,-0.055,0.095
768,-0.055,0.085
769,-0.025,0.105
770,-0.005,0.115
771,0.015,0.105
772,0.045,0.125
773,0.035,0.215
774,0.085,0.165
775,0.135,0.175
776,0.175,0.265
777,0.215,0.225
778,0.255,0.285
779,0.345,0.355
780,0.455,0.395
781,0.485,0.435
782,0.585,0.505
783,0.635,0.505
784,0.635,0.505
785,0.645,0.495
786,0.615,0.455
787,0.505,0.385
788,0.395,0.285
789,0.275,0.195
790,0.085,0.115
791,-0.085,0.025
792,-0.135,-0.045
793,-0.165,-0.085
794,-0.205,-0.115
795,-0.225,-0.125
796,-0.165,-0.145
797,-0.205,-0.135
798,-0.235,-0.145
799,-0.205,-0.095
800,-0.235,-0.175
801,-0.225,-0.155
802,-0.185,-0.145
803,-0.255,-0.125
804,-0.175,-0.135
805,-0.245,-0.135
806,-0.195,-0.135
807,-0.215,-0.115
808,-0.205,-0.135
809,-0.205,-0.125
810,-0.175,-0.105
811,-0.205,-0.105
812,-0.075,-0.105
813,-0.065,-0.025
814,-0.095,-0.035
815,-0.025,0.025
816,0.045,0.025
817,0.015,0.005
818,-0.075,-0.055
819,0.005,-0.125
820,0.045,-0.125
821,-0.035,-0.105
822,-0.195,-0.105
823,-0.265,-0.135
824,-0.255,-0.145
825,-0.215,-0.125
826,-0.265,-0.175
827,-0.295,-0.195
828,-0.235,-0.175
829,-0.235,-0.175
830,-0.235,-0.145
831,-0.255,-0.165
832,-0.235,-0.205
833,-0.245,-0.155
834,-0.195,-0.135
835,-0.265,-0.135
836,-0.515,-0.055
837,-0.245,0.185
838,0.775,0.245
839,1.985,0.085
840,1.755,-0.175
841,-0.275,-1.085
842,-1.335,-1.695
843,-1.455,-1.925
844,-0.745,-1.495
845,-0.345,-0.695
846,-0.235,-0.165
847,-0.205,-0.015
848,-0.185,0.005
849,-0.125,0.025
850,-0.105,0.035
851,-0.085,0.085
852,-0.115,0.065
853,0.025,0.085
854,-0.015,0.095
855,-0.075,0.085
856,-0.045,0.125
857,0.035,0.145
858,0.045,0.175
859,0.075,0.195
860,0.115,0.275
861,0.185,0.255
862,0.255,0.345
863,0.295,0.375
864,0.355,0.435
865,0.435,0.465
866,0.605,0.515
867,0.495,0.535
868,0.635,0.555
869,0.615,0.525
870,0.605,0.505
871,0.495,0.415
872,0.365,0.325
873,0.395,0.195
874,0.065,0.085
875,-0.095,0.045
876,-0.145,-0.045
877,-0.095,-0.085
878,-0.215,-0.115
879,-0.245,-0.135
880,-0.235,-0.105
881,-0.245,-0.165
882,-0.235,-0.155
883,-0.235,-0.165
884,-0.245,-0.165
885,-0.215,-0.155
886,-0.225,-0.145
887,-0.235,-0.155
888,-0.215,-0.165
889,-0.225,-0.135
890,-0.225,-0.135
891,-0.225,-0.135
892,-0.235,-0.135
893,-0.215,-0.145
894,-0.225,-0.135
895,-0.205,-0.125
896,-0.175,-0.145
897,-0.155,-0.115
898,-0.085,-0.065
899,-0.125,-0.035
900,-0.105,-0.015
901,0.005,-0.015
902,0.015,0.005
903,-0.055,-0.035
904,-0.075,-0.165
905,-0.035,-0.165
906,-0.085,-0.115
907,-0.145,-0.135
908,-0.245,-0.115
909,-0.245,-0.225
910,-0.235,-0.185
911,-0.235,-0.215
912,-0.285,-0.215
913,-0.275,-0.175
914,-0.245,-0.185
915,-0.245,-0.215
916,-0.265,-0.215
917,-0.215,-0.175
918,-0.295,-0.195
919,-0.205,-0.185
920,-0.225,-0.175
921,-0.455,-0.115
922,-0.465,0.035
923,0.225,0.215
924,1.545,0.165
925,1.975,-0.095
926,0.465,-0.835
927,-1.155,-1.615
928,-1.435,-2.005
929,-0.975,-1.665
930,-0.455,-0.985
931,-0.265,-0.315
932,-0.215,-0.075
933,-0.175,0.005
934,-0.115,0.025
935,-0.125,0.035
936,-0.115,0.045
937,-0.105,0.065
938,-0.065,0.075
939,-0.055,0.135
940,-0.055,0.095
941,-0.015,0.065
942,0.015,0.155
943,0.025,0.145
944,0.085,0.145
945,0.095,0.185
946,0.145,0.265
947,0.215,0.305
948,0.255,0.345
949,0.335,0.425
950,0.445,0.485
951,0.505,0.515
952,0.525,0.525
953,0.585,0.535
954,0.625,0.565
955,0.595,0.515
956,0.545,0.415
957,0.445,0.365
958,0.275,0.275
959,0.115,0.145
960,0.025,0.015
961,-0.125,-0.015
962,-0.165,-0.085
963,-0.175,-0.105
964,-0.225,-0.135
965,-0.235,-0.185
966,-0.225,-0.145
967,-0.215,-0.205
968,-0.215,-0.195
969,-0.225,-0.165
970,-0.225,-0.155
971,-0.205,-0.175
972,-0.225,-0.175
973,-0.215,-0.155
974,-0.215,-0.155
975,-0.205,-0.165
976,-0.235,-0.135
977,-0.195,-0.155
978,-0.215,-0.125
979,-0.215,-0.165
980,-0.215,-0.185
981,-0.185,-0.165
982,-0.195,-0.135
983,-0.185,-0.145
984,-0.195,-0.125
985,-0.135,-0.135
986,-0.115,-0.095
987,-0.085,-0.065
988,-0.095,-0.045
989,-0.015,-0.065
990,-0.005,-0.055
991,-0.065,-0.115
992,-0.055,-0.135
993,-0.025,-0.165
994,-0.105,-0.175
995,-0.225,-0.195
996,-0.265,-0.225
997,-0.255,-0.215
998,-0.245,-0.225
999,-0.265,-0.215
1000,-0.255,-0.225
1001,-0.245,-0.205
1002,-0.245,-0.205
1003,-0.255,-0.195
1004,-0.255,-0.205
1005,-0.235,-0.185
1006,-0.235,-0.195
1007,-0.215,-0.205
1008,-0.245,-0.185
1009,-0.475,-0.145
1010,-0.325,0.095
1011,0.595,0.185
1012,1.855,0.095
1013,1.855,-0.165
1014,-0.095,-1.065
1015,-1.265,-1.825
1016,-1.345,-2.015
1017,-0.705,-1.495
1018,-0.345,-0.755
1019,-0.195,-0.225
1020,-0.145,-0.095
1021,-0.115,-0.015
1022,-0.105,0.025
1023,-0.085,0.035
1024,-0.085,0.015
1025,-0.035,0.025
1026,-0.035,0.065
1027,-0.025,0.075
1028,0.005,0.105
1029,0.035,0.105
1030,0.045,0.135
1031,0.085,0.155
1032,0.115,0.165
1033,0.145,0.205
1034,0.205,0.255
1035,0.265,0.305
1036,0.325,0.395
1037,0.405,0.415
1038,0.495,0.475
1039,0.565,0.515
1040,0.605,0.555
1041,0.645,0.535
1042,0.655,0.535
1043,0.645,0.475
1044,0.555,0.425
1045,0.445,0.305
1046,0.285,0.205
1047,0.155,0.085
1048,0.015,0.005
1049,-0.055,-0.085
1050,-0.105,-0.105
1051,-0.125,-0.155
1052,-0.155,-0.155
1053,-0.175,-0.165
1054,-0.175,-0.165
1055,-0.185,-0.175
1056,-0.185,-0.195
1057,-0.185,-0.205
1058,-0.185,-0.175
1059,-0.155,-0.175
1060,-0.175,-0.195
1061,-0.175,-0.155
1062,-0.145,-0.145
1063,-0.155,-0.185
1064,-0.155,-0.195
1065,-0.165,-0.165
1066,-0.155,-0.155
1067,-0.155,-0.155
1068,-0.155,-0.165
1069,-0.125,-0.135
1070,-0.145,-0.115
1071,-0.135,-0.155
1072,-0.155,-0.165
1073,-0.155,-0.185
1074,-0.125,-0.175
1075,-0.135,-0.165
1076,-0.145,-0.185
1077,-0.115,-0.185
1078,-0.105,-0.165
1079,-0.075,-0.145
1080,-0.055,-0.085
1081,-0.005,-0.075
1082,0.035,-0.095
1083,0.045,-0.105
1084,-0.015,-0.145
1085,0.035,-0.195
1086,0.035,-0.155
1087,-0.025,-0.155
1088,-0.165,-0.195
1089,-0.165,-0.225
1090,-0.205,-0.205
1091,-0.205,-0.205
1092,-0.195,-0.255
1093,-0.165,-0.185
1094,-0.175,-0.235
1095,-0.195,-0.235
1096,-0.185,-0.245
1097,-0.185,-0.225
1098,-0.175,-0.205
1099,-0.165,-0.215
1100,-0.175,-0.205
1101,-0.325,-0.165
1102,-0.415,-0.025
1103,0.145,0.205
1104,1.445,0.165
1105,2.065,-0.055
1106,0.925,-0.795
1107,-0.885,-1.585
1108,-1.395,-2.065
1109,-0.965,-1.845
1110,-0.385,-1.155
1111,-0.185,-0.345
1112,-0.145,-0.065
1113,-0.095,-0.035
1114,-0.075,-0.015
1115,-0.065,0.045
1116,-0.065,0.055
1117,-0.025,0.055
1118,-0.025,0.065
1119,0.005,0.105
1120,0.015,0.115
1121,0.035,0.125
1122,0.075,0.165
1123,0.065,0.155
1124,0.105,0.165
1125,0.145,0.205
1126,0.195,0.285
1127,0.235,0.285
1128,0.305,0.345
1129,0.395,0.405
1130,0.435,0.475
1131,0.495,0.505
1132,0.585,0.555
1133,0.645,0.575
1134,0.665,0.585
1135,0.665,0.535
1136,0.635,0.485
1137,0.515,0.425
1138,0.405,0.305
1139,0.245,0.185
1140,0.105,0.065
1141,0.035,0.025
1142,-0.035,-0.085
1143,-0.105,-0.115
1144,-0.145,-0.135
1145,-0.145,-0.145
1146,-0.165,-0.135
1147,-0.165,-0.165
1148,-0.155,-0.155
1149,-0.155,-0.165
1150,-0.165,-0.135
1151,-0.165,-0.165
1152,-0.165,-0.175
1153,-0.175,-0.135
1154,-0.175,-0.145
1155,-0.175,-0.145
1156,-0.155,-0.135
1157,-0.165,-0.105
1158,-0.155,-0.115
1159,-0.175,-0.125
1160,-0.165,-0.115
1161,-0.145,-0.115
1162,-0.145,-0.135
1163,-0.155,-0.135
1164,-0.175,-0.125
1165,-0.165,-0.145
1166,-0.155,-0.135
1167,-0.165,-0.125
1168,-0.175,-0.145
1169,-0.145,-0.145
1170,-0.155,-0.145
1171,-0.175,-0.155
1172,-0.115,-0.135
1173,-0.065,-0.095
1174,-0.075,-0.075
1175,-0.035,-0.075
1176,-0.005,-0.025
1177,-0.015,-0.055
1178,-0.025,-0.145
1179,0.025,-0.165
1180,-0.065,-0.095
1181,-0.175,-0.145
1182,-0.215,-0.185
1183,-0.265,-0.195
1184,-0.235,-0.205
1185,-0.235,-0.195
1186,-0.245,-0.185
1187,-0.235,-0.185
1188,-0.255,-0.215
1189,-0.235,-0.205
1190,-0.205,-0.185
1191,-0.225,-0.185
1192,-0.205,-0.185
1193,-0.215,-0.165
1194,-0.335,-0.155
1195,-0.505,-0.065
1196,-0.135,0.185
1197,0.955,0.205
1198,1.945,0.075
1199,1.355,-0.405
1200,-0.655,-1.385
1201,-1.395,-1.995
1202,-1.175,-1.945
1203,-0.505,-1.405
1204,-0.265,-0.535
1205,-0.195,-0.105
1206,-0.165,0.005
1207,-0.135,0.075
1208,-0.095,0.055
1209,-0.105,0.105
1210,-0.095,0.115
1211,-0.055,0.105
1212,-0.045,0.125
1213,-0.045,0.145
1214,-0.005,0.165
1215,-0.005,0.165
1216,0.025,0.185
1217,0.055,0.205
1218,0.085,0.255
1219,0.115,0.285
1220,0.155,0.305
1221,0.175,0.365
1222,0.275,0.405
1223,0.335,0.485
1224,0.365,0.525
1225,0.465,0.555
1226,0.535,0.615
1227,0.585,0.635
1228,0.615,0.585
1229,0.605,0.575
1230,0.555,0.545
1231,0.435,0.445
1232,0.285,0.325
1233,0.155,0.185
1234,0.025,0.085
1235,-0.085,0.005
1236,-0.165,-0.055
1237,-0.175,-0.095
1238,-0.205,-0.105
1239,-0.215,-0.125
1240,-0.235,-0.125
1241,-0.235,-0.135
1242,-0.225,-0.125
1243,-0.245,-0.135
1244,-0.255,-0.135
1245,-0.235,-0.145
1246,-0.225,-0.125
1247,-0.235,-0.095
1248,-0.215,-0.125
1249,-0.205,-0.115
1250,-0.225,-0.085
1251,-0.235,-0.105
1252,-0.215,-0.125
1253,-0.215,-0.095
1254,-0.205,-0.125
1255,-0.235,-0.115
1256,-0.195,-0.125
1257,-0.195,-0.145
1258,-0.205,-0.135
1259,-0.215,-0.125
1260,-0.215,-0.135
1261,-0.225,-0.135
1262,-0.205,-0.125
1263,-0.185,-0.155
1264,-0.225,-0.125
1265,-0.175,-0.135
1266,-0.135,-0.095
1267,-0.125,-0.085
1268,-0.105,-0.065
1269,-0.025,-0.045
1270,-0.025,-0.065
1271,-0.075,-0.085
1272,-0.015,-0.185
1273,-0.055,-0.125
1274,-0.115,-0.125
1275,-0.265,-0.165
1276,-0.275,-0.215
1277,-0.265,-0.185
1278,-0.265,-0.215
1279,-0.245,-0.225
1280,-0.265,-0.225
1281,-0.265,-0.195
1282,-0.255,-0.175
1283,-0.255,-0.165
1284,-0.255,-0.195
1285,-0.225,-0.185
1286,-0.205,-0.175
1287,-0.225,-0.195
1288,-0.375,-0.155
1289,-0.495,-0.035
1290,0.115,0.175
1291,1.335,0.125
1292,1.875,-0.005
1293,0.405,-0.545
1294,-1.155,-1.475
1295,-1.365,-1.905
1296,-0.985,-1.655
1297,-0.445,-1.105
1298,-0.245,-0.415
1299,-0.145,-0.145
1300,-0.105,-0.045
1301,-0.105,0.015
1302,-0.085,0.005
1303,-0.055,0.025
1304,-0.045,0.015
1305,-0.055,0.045
1306,-0.015,0.085
1307,0.005,0.065
1308,0.025,0.105
1309,0.045,0.085
1310,0.075,0.125
1311,0.145,0.145
1312,0.145,0.205
1313,0.205,0.185
1314,0.265,0.225
1315,0.315,0.295
1316,0.395,0.345
1317,0.495,0.435
1318,0.555,0.435
1319,0.635,0.435
1320,0.665,0.495
1321,0.675,0.495
1322,0.665,0.475
1323,0.595,0.405
1324,0.435,0.315
1325,0.575,0.175
1326,0.215,0.105
1327,0.015,0.025
1328,0.005,-0.065
1329,-0.075,-0.085
1330,-0.125,-0.155
1331,-0.135,-0.185
1332,-0.135,-0.165
1333,-0.175,-0.135
1334,-0.165,-0.215
1335,-0.165,-0.215
1336,-0.155,-0.195
1337,-0.155,-0.195
1338,-0.155,-0.175
1339,-0.165,-0.155
1340,-0.155,-0.205
1341,-0.135,-0.205
1342,-0.175,-0.145
1343,-0.125,-0.155
1344,-0.085,-0.135
1345,-0.085,-0.175
1346,-0.125,-0.165
1347,-0.125,-0.165
1348,-0.095,-0.195
1349,-0.115,-0.175
1350,-0.105,-0.125
1351,-0.105,-0.175
1352,-0.105,-0.215
1353,-0.105,-0.175
1354,-0.095,-0.155
1355,-0.115,-0.185
1356,-0.065,-0.195
1357,-0.025,-0.155
1358,-0.035,-0.115
1359,0.015,-0.115
1360,0.075,-0.075
1361,0.035,-0.065
1362,0.015,-0.135
1363,0.055,-0.155
1364,0.045,-0.155
1365,-0.025,-0.205
1366,-0.185,-0.205
1367,-0.165,-0.275
1368,-0.175,-0.245
1369,-0.165,-0.245
1370,-0.195,-0.245
1371,-0.195,-0.225
1372,-0.165,-0.245
1373,-0.185,-0.215
1374,-0.185,-0.205
1375,-0.155,-0.175
1376,-0.145,-0.195
1377,-0.115,-0.225
1378,-0.155,-0.165
1379,-0.315,-0.175
1380,-0.425,-0.095
1381,0.145,0.135
1382,1.445,0.135
1383,2.005,0.015
1384,0.715,-0.615
1385,-0.905,-1.505
1386,-1.245,-1.965
1387,-0.745,-1.665
1388,-0.285,-0.955
1389,-0.125,-0.295
1390,-0.085,-0.115
1391,-0.045,0.015
1392,-0.045,-0.005
1393,-0.025,0.025
1394,-0.005,0.045
1395,-0.005,0.075
1396,0.025,0.085
1397,0.045,0.135
1398,0.065,0.125
1399,0.115,0.185
1400,0.095,0.145
1401,0.115,0.175
1402,0.125,0.255
1403,0.175,0.235
1404,0.235,0.275
1405,0.275,0.285
1406,0.325,0.365
1407,0.385,0.445
1408,0.475,0.505
1409,0.515,0.545
1410,0.585,0.585
1411,0.625,0.575
1412,0.645,0.575
1413,0.645,0.575
1414,0.585,0.555
1415,0.485,0.425
1416,0.335,0.285
1417,0.195,0.215
1418,0.115,0.125
1419,0.015,0.025
1420,-0.055,-0.045
1421,-0.125,-0.075
1422,-0.145,-0.085
1423,-0.145,-0.075
1424,-0.175,-0.145
1425,-0.165,-0.115
1426,-0.165,-0.095
1427,-0.165,-0.125
1428,-0.175,-0.135
1429,-0.175,-0.095
1430,-0.175,-0.105
1431,-0.165,-0.105
1432,-0.165,-0.045
1433,-0.155,-0.095
1434,-0.195,-0.085
1435,-0.175,-0.085
1436,-0.155,-0.085
1437,-0.165,-0.055
1438,-0.155,-0.075
1439,-0.155,-0.115
1440,-0.175,-0.105
1441,-0.155,-0.095
1442,-0.175,-0.095
1443,-0.165,-0.065
1444,-0.175,-0.105
1445,-0.175,-0.085
1446,-0.155,-0.075
1447,-0.105,-0.085
1448,-0.095,-0.005
1449,-0.085,0.005
1450,-0.035,0.005
1451,-0.005,-0.065
1452,-0.055,-0.095
1453,-0.055,-0.125
1454,-0.045,-0.095
1455,-0.095,-0.065
1456,-0.205,-0.095
1457,-0.265,-0.155
1458,-0.255,-0.145
1459,-0.295,-0.155
1460,-0.305,-0.175
1461,-0.275,-0.165
1462,-0.285,-0.185
1463,-0.285,-0.105
1464,-0.285,-0.135
1465,-0.285,-0.155
1466,-0.265,-0.155
1467,-0.275,-0.125
1468,-0.265,-0.155
1469,-0.275,-0.145
1470,-0.495,-0.075
1471,-0.465,0.115
1472,0.225,0.245
1473,1.515,0.145
1474,1.755,-0.005
1475,0.125,-0.815
1476,-1.205,-1.655
1477,-1.345,-1.995
1478,-0.715,-1.605
1479,-0.375,-0.795
1480,-0.265,-0.215
1481,-0.215,-0.025
1482,-0.185,0.075
1483,-0.175,0.095
1484,-0.125,0.105
1485,-0.145,0.125
1486,-0.115,0.125
1487,-0.115,0.155
1488,-0.085,0.185
1489,-0.055,0.195
1490,-0.055,0.265
1491,-0.015,0.185
1492,0.005,0.225
1493,0.055,0.295
1494,0.055,0.255
1495,0.115,0.315
1496,0.185,0.385
1497,0.245,0.455
1498,0.305,0.485
1499,0.365,0.545
1500,0.435,0.595
1501,0.495,0.635
1502,0.535,0.685
1503,0.545,0.655
1504,0.515,0.605
1505,0.455,0.535
1506,0.345,0.425
1507,0.225,0.385
1508,0.105,0.215
1509,-0.035,0.105
1510,-0.105,0.025
1511,-0.175,-0.015
1512,-0.215,-0.065
1513,-0.235,-0.045
1514,-0.235,-0.065
1515,-0.275,-0.075
1516,-0.265,-0.075
1517,-0.265,-0.055
1518,-0.275,-0.045
1519,-0.265,-0.115
1520,-0.285,-0.085
1521,-0.265,-0.085
1522,-0.265,-0.045
1523,-0.265,-0.025
1524,-0.255,-0.065
1525,-0.265,-0.065
1526,-0.265,-0.045
1527,-0.245,-0.045
1528,-0.255,-0.035
1529,-0.255,-0.015
1530,-0.265,-0.045
1531,-0.265,-0.075
1532,-0.265,-0.025
1533,-0.245,-0.075
1534,-0.255,-0.085
1535,-0.255,-0.055
1536,-0.245,-0.045
1537,-0.165,-0.035
1538,-0.185,0.005
1539,-0.165,0.025
1540,-0.105,0.015
1541,-0.095,0.035
1542,-0.135,0.005
1543,-0.105,-0.075
1544,-0.115,-0.055
1545,-0.175,-0.005
1546,-0.295,-0.065
1547,-0.305,-0.155
1548,-0.345,-0.135
1549,-0.355,-0.165
1550,-0.345,-0.135
1551,-0.365,-0.135
1552,-0.345,-0.155
1553,-0.355,-0.145
1554,-0.345,-0.135
1555,-0.345,-0.125
1556,-0.365,-0.125
1557,-0.325,-0.055
1558,-0.305,-0.155
1559,-0.395,-0.155
1560,-0.625,-0.045
1561,-0.395,0.195
1562,0.565,0.265
1563,1.735,0.155
1564,1.175,-0.185
1565,-0.705,-1.265
1566,-1.405,-1.965
1567,-1.175,-1.965
1568,-0.595,-1.345
1569,-0.365,-0.425
1570,-0.295,-0.065
1571,-0.275,0.015
1572,-0.255,0.085
1573,-0.225,0.105
1574,-0.185,0.115
1575,-0.185,0.145
1576,-0.185,0.125
1577,-0.155,0.125
1578,-0.125,0.165
1579,-0.105,0.195
1580,-0.085,0.205
1581,-0.065,0.235
1582,-0.055,0.275
1583,-0.025,0.295
1584,0.045,0.285
1585,0.105,0.375
1586,0.105,0.405
1587,0.195,0.485
1588,0.265,0.505
1589,0.335,0.505
1590,0.415,0.555
1591,0.475,0.615
1592,0.455,0.615
1593,0.455,0.605
1594,0.445,0.565
1595,0.345,0.465
1596,0.225,0.385
1597,0.075,0.265
1598,-0.055,0.165
1599,-0.145,0.015
1600,-0.195,-0.025
1601,-0.255,-0.045
1602,-0.275,-0.065
1603,-0.325,-0.105
1604,-0.325,-0.135
1605,-0.305,-0.115
1606,-0.305,-0.075
1607,-0.305,-0.115
1608,-0.315,-0.115
1609,-0.335,-0.085
1610,-0.305,-0.085
1611,-0.325,-0.135
1612,-0.325,-0.115
1613,-0.315,-0.095
1614,-0.305,-0.095
1615,-0.285,-0.105
1616,-0.295,-0.125
1617,-0.285,-0.105
1618,-0.285,-0.105
1619,-0.315,-0.095
1620,-0.275,-0.105
1621,-0.305,-0.085
1622,-0.315,-0.115
1623,-0.295,-0.085
1624,-0.285,-0.135
1625,-0.315,-0.145
1626,-0.255,-0.145
1627,-0.215,-0.085
1628,-0.225,-0.035
1629,-0.185,-0.035
1630,-0.125,-0.035
1631,-0.135,-0.015
1632,-0.175,-0.105
1633,-0.105,-0.115
1634,-0.165,-0.075
1635,-0.215,-0.125
1636,-0.335,-0.135
1637,-0.355,-0.185
1638,-0.365,-0.215
1639,-0.335,-0.205
1640,-0.335,-0.215
1641,-0.355,-0.215
1642,-0.375,-0.195
1643,-0.375,-0.195
1644,-0.355,-0.175
1645,-0.355,-0.145
1646,-0.335,-0.175
1647,-0.335,-0.185
1648,-0.335,-0.175
1649,-0.515,-0.145
1650,-0.535,0.015
1651,0.115,0.225
1652,1.395,0.135
1653,1.695,-0.005
1654,0.145,-0.605
1655,-1.285,-1.485
1656,-1.465,-1.905
1657,-1.005,-1.655
1658,-0.495,-1.025
1659,-0.325,-0.335
1660,-0.295,-0.115
1661,-0.245,-0.035
1662,-0.215,0.015
1663,-0.195,0.025
1664,-0.185,0.035
1665,-0.195,0.065
1666,-0.135,0.055
1667,-0.115,0.035
1668,-0.115,0.045
1669,-0.085,0.105
1670,-0.045,0.105
1671,-0.045,0.125
1672,-0.015,0.165
1673,0.035,0.175
1674,0.075,0.245
1675,0.135,0.275
1676,0.175,0.275
1677,0.225,0.395
1678,0.325,0.425
1679,0.395,0.455
1680,0.445,0.475
1681,0.505,0.515
1682,0.505,0.475
1683,0.475,0.465
1684,0.445,0.425
1685,0.335,0.345
1686,0.195,0.235
1687,0.065,0.135
1688,-0.045,0.055
1689,-0.115,-0.025
1690,-0.185,-0.065
1691,-0.235,-0.095
1692,-0.245,-0.175
1693,-0.245,-0.135
1694,-0.275,-0.175
1695,-0.255,-0.175
1696,-0.275,-0.165
1697,-0.235,-0.165
1698,-0.255,-0.135
1699,-0.245,-0.145
1700,-0.245,-0.165
1701,-0.225,-0.135
1702,-0.215,-0.145
1703,-0.225,-0.145
1704,-0.175,-0.145
1705,-0.205,-0.155
1706,-0.205,-0.145
1707,-0.205,-0.125
1708,-0.215,-0.135
1709,-0.185,-0.145
1710,-0.185,-0.125
1711,-0.205,-0.135
1712,-0.185,-0.145
1713,-0.175,-0.125
1714,-0.135,-0.105
1715,-0.105,-0.135
1716,-0.085,-0.095
1717,-0.105,-0.075
1718,-0.035,-0.055
1719,0.025,-0.025
1720,-0.015,-0.065
1721,-0.035,-0.115
1722,0.015,-0.145
1723,-0.035,-0.095
1724,-0.165,-0.125
1725,-0.235,-0.175
1726,-0.215,-0.205
1727,-0.225,-0.165
1728,-0.235,-0.215
1729,-0.235,-0.215
1730,-0.235,-0.185
1731,-0.215,-0.215
1732,-0.235,-0.205
1733,-0.215,-0.195
1734,-0.185,-0.205
1735,-0.195,-0.175
1736,-0.195,-0.185
1737,-0.335,-0.165
1738,-0.475,-0.045
1739,-0.095,0.185
1740,0.955,0.185
1741,1.925,0.095
1742,1.105,-0.175
1743,-0.755,-1.265
1744,-1.315,-1.925
1745,-1.015,-1.915
1746,-0.415,-1.315
1747,-0.205,-0.515
1748,-0.135,-0.135
1749,-0.095,-0.015
1750,-0.085,0.025
1751,-0.045,0.035
1752,-0.065,0.045
1753,-0.015,0.065
1754,-0.005,0.085
1755,0.005,0.085
1756,0.035,0.095
1757,0.055,0.115
1758,0.075,0.145
1759,0.105,0.105
1760,0.125,0.135
1761,0.155,0.175
1762,0.215,0.255
1763,0.235,0.275
1764,0.305,0.295
1765,0.375,0.365
1766,0.445,0.445
1767,0.505,0.475
1768,0.575,0.515
1769,0.585,0.555
1770,0.635,0.605
1771,0.625,0.525
1772,0.615,0.425
1773,0.545,0.395
1774,0.425,0.335
1775,0.275,0.215
1776,0.145,0.095
1777,0.065,0.025
1778,-0.025,-0.035
1779,-0.055,-0.085
1780,-0.115,-0.115
1781,-0.145,-0.135
1782,-0.135,-0.135
1783,-0.125,-0.145
1784,-0.135,-0.135
1785,-0.135,-0.135
1786,-0.125,-0.135
1787,-0.135,-0.155
1788,-0.125,-0.155
1789,-0.125,-0.135
1790,-0.125,-0.145
1791,-0.105,-0.155
1792,-0.115,-0.135
1793,-0.095,-0.115
1794,-0.115,-0.115
1795,-0.105,-0.125
1796,-0.095,-0.115
1797,-0.105,-0.115
1798,-0.135,-0.095
1799,-0.095,-0.115
1800,-0.135,-0.155
1801,-0.095,-0.125
1802,-0.025,-0.105
1803,-0.005,-0.085
1804,-0.015,-0.075
1805,0.005,-0.055
1806,0.065,-0.005
1807,0.045,-0.055
1808,0.015,-0.115
1809,0.055,-0.145
1810,0.005,-0.105
1811,-0.095,-0.115
1812,-0.185,-0.135
1813,-0.175,-0.185
1814,-0.205,-0.185
1815,-0.185,-0.165
1816,-0.185,-0.195
1817,-0.175,-0.205
1818,-0.185,-0.175
1819,-0.215,-0.195
1820,-0.205,-0.205
1821,-0.195,-0.185
1822,-0.185,-0.155
1823,-0.155,-0.155
1824,-0.205,-0.165
1825,-0.355,-0.145
1826,-0.455,0.005
1827,0.215,0.215
1828,1.475,0.185
1829,1.705,0.095
1830,0.175,-0.665
1831,-0.955,-1.655
1832,-1.135,-2.035
1833,-0.685,-1.725
1834,-0.265,-0.985
1835,-0.135,-0.315
1836,-0.115,-0.065
1837,-0.125,0.045
1838,-0.115,0.065
1839,-0.105,0.075
1840,-0.085,0.085
1841,-0.065,0.125
1842,-0.085,0.135
1843,-0.025,0.145
1844,0.015,0.195
1845,0.035,0.095
1846,0.045,0.175
1847,0.045,0.195
1848,0.075,0.235
1849,0.125,0.385
1850,0.205,0.315
1851,0.245,0.315
1852,0.265,0.345
1853,0.345,0.435
1854,0.405,0.515
1855,0.455,0.495
1856,0.535,0.605
1857,0.535,0.695
1858,0.575,0.675
1859,0.555,0.515
1860,0.525,0.415
1861,0.415,0.415
1862,0.305,0.275
1863,0.155,0.165
1864,0.045,0.105
1865,-0.045,0.005
1866,-0.085,-0.065
1867,-0.145,-0.145
1868,-0.175,-0.155
1869,-0.195,-0.175
1870,-0.185,-0.125
1871,-0.175,-0.125
1872,-0.165,-0.175
1873,-0.225,-0.165
1874,-0.165,-0.145
1875,-0.155,-0.065
1876,-0.195,-0.225
1877,-0.195,-0.165
1878,-0.135,-0.195
1879,-0.095,-0.195
1880,-0.115,-0.125
1881,-0.135,-0.185
1882,-0.145,-0.165
1883,-0.165,-0.065
1884,-0.135,-0.145
1885,-0.135,-0.195
1886,-0.135,-0.165
1887,-0.155,-0.165
1888,-0.125,-0.185
1889,-0.095,-0.165
1890,-0.065,-0.075
1891,-0.075,-0.085
1892,-0.025,-0.135
1893,0.035,-0.085
1894,0.005,-0.035
1895,-0.025,-0.145
1896,-0.025,-0.205
1897,-0.045,-0.125
1898,-0.155,-0.125
1899,-0.265,-0.175
1900,-0.235,-0.265
1901,-0.265,-0.255
1902,-0.235,-0.235
1903,-0.255,-0.245
1904,-0.265,-0.275
1905,-0.275,-0.285
1906,-0.255,-0.265
1907,-0.285,-0.245
1908,-0.275,-0.235
1909,-0.265,-0.205
1910,-0.215,-0.155
1911,-0.265,-0.165
1912,-0.495,-0.185
1913,-0.375,0.025
1914,0.535,0.105
1915,1.685,0.065
1916,1.285,-0.125
1917,-0.315,-1.025
1918,-1.105,-1.755
1919,-1.035,-2.005
1920,-0.545,-1.565
1921,-0.305,-0.775
1922,-0.185,-0.225
1923,-0.165,-0.065
1924,-0.105,-0.165
1925,-0.045,0.035
1926,-0.055,-0.045
1927,-0.075,-0.145
1928,0.025,-0.045
1929,-0.015,-0.005
1930,-0.035,0.015
1931,-0.025,0.035
1932,0.025,0.075
1933,0.105,0.135
1934,0.115,0.085
1935,0.105,0.125
1936,0.165,0.155
1937,0.225,0.205
1938,0.255,0.255
1939,0.335,0.205
1940,0.495,0.385
1941,0.525,0.305
1942,0.525,0.375
1943,0.535,0.415
1944,0.595,0.465
1945,0.595,0.505
1946,0.545,0.385
1947,0.535,0.395
1948,0.415,0.215
1949,0.275,0.075
1950,0.125,-0.015
1951,0.005,-0.065
1952,-0.005,-0.115
1953,-0.055,-0.185
1954,-0.165,-0.195
1955,-0.115,-0.185
1956,-0.115,-0.185
1957,-0.105,-0.215
1958,-0.145,-0.245
1959,-0.195,-0.305
1960,-0.145,-0.275
1961,-0.095,-0.275
1962,-0.035,-0.275
1963,-0.225,-0.245
1964,-0.175,-0.195
1965,-0.155,-0.185
1966,-0.125,-0.165
1967,-0.125,-0.245
1968,-0.115,-0.285
1969,-0.125,-0.245
1970,-0.135,-0.205
1971,-0.115,-0.215
1972,-0.105,-0.195
1973,-0.135,-0.205
1974,-0.125,-0.205
1975,-0.085,-0.125
1976,-0.025,-0.055
1977,0.005,-0.065
1978,0.015,-0.175
1979,0.075,-0.135
1980,0.045,-0.225
1981,0.005,-0.235
1982,0.035,-0.225
1983,-0.015,-0.155
1984,-0.095,-0.195
1985,-0.235,-0.225
1986,-0.225,-0.245
1987,-0.245,-0.215
1988,-0.245,-0.235
1989,-0.235,-0.235
1990,-0.245,-0.265
1991,-0.245,-0.225
1992,-0.245,-0.275
1993,-0.265,-0.235
1994,-0.245,-0.215
1995,-0.265,-0.265
1996,-0.235,-0.225
1997,-0.325,-0.205
1998,-0.525,-0.115
1999,-0.285,0.095
2000,0.705,0.085
2001,1.775,0.025
2002,1.015,-0.105
2003,-0.765,-1.005
2004,-1.225,-1.745
2005,-1.055,-1.745
2006,-0.555,-1.305
2007,-0.325,-0.705
2008,-0.195,-0.225
2009,-0.135,-0.065
2010,-0.135,-0.045
2011,-0.105,-0.025
2012,-0.085,0.005
2013,-0.095,0.055
2014,-0.045,0.065
2015,-0.035,0.085
2016,-0.025,0.025
2017,0.005,0.075
2018,0.015,0.195
2019,0.055,0.085
2020,0.085,0.085
2021,0.105,0.175
2022,0.165,0.245
2023,0.205,0.235
2024,0.255,0.335
2025,0.325,0.345
2026,0.385,0.315
2027,0.445,0.375
2028,0.485,0.435
2029,0.545,0.485
2030,0.555,0.475
2031,0.555,0.435
2032,0.535,0.405
2033,0.455,0.375
2034,0.335,0.325
2035,0.195,0.215
2036,0.065,0.085
2037,-0.005,0.045
2038,-0.055,0.005
2039,-0.105,-0.055
2040,-0.115,-0.095
2041,-0.145,-0.115
2042,-0.155,-0.165
2043,-0.155,-0.165
2044,-0.155,-0.115
2045,-0.145,-0.105
2046,-0.155,-0.115
2047,-0.175,-0.145
2048,-0.155,-0.175
2049,-0.135,-0.115
2050,-0.135,-0.135
2051,-0.105,-0.105
2052,-0.115,-0.105
2053,-0.145,-0.075
2054,-0.135,-0.125
2055,-0.095,-0.135
2056,-0.125,-0.195
2057,-0.125,-0.145
2058,-0.125,-0.105
2059,-0.115,-0.045
2060,-0.075,-0.085
2061,-0.025,-0.045
2062,-0.045,-0.015
2063,-0.015,-0.025
2064,0.055,-0.015
2065,0.035,0.015
2066,0.005,-0.075
2067,0.015,-0.045
2068,-0.005,-0.155
2069,-0.075,-0.125
2070,-0.195,-0.125
2071,-0.205,-0.225
2072,-0.215,-0.125
2073,-0.195,-0.155
2074,-0.205,-0.175
2075,-0.205,-0.145
2076,-0.225,-0.195
2077,-0.225,-0.135
2078,-0.225,-0.155
2079,-0.215,-0.175
2080,-0.215,-0.185
2081,-0.185,-0.125
2082,-0.185,-0.125
2083,-0.415,-0.055
2084,-0.425,0.045
2085,0.375,0.245
2086,1.705,0.195
2087,1.565,0.025
2088,-0.195,-0.885
2089,-1.105,-1.685
2090,-1.105,-1.805
2091,-0.605,-1.485
2092,-0.315,-0.755
2093,-0.175,-0.165
2094,-0.165,-0.065
2095,-0.165,0.025
2096,-0.115,0.045
2097,-0.085,0.045
2098,-0.115,0.125
2099,-0.065,0.135
2100,-0.065,0.135
2101,-0.055,0.135
2102,-0.005,0.195
2103,0.045,0.265
2104,0.015,0.025
2105,0.065,0.135
2106,0.115,0.215
2107,0.105,0.295
2108,0.195,0.305
2109,0.255,0.345
2110,0.255,0.445
2111,0.355,0.565
2112,0.455,0.445
2113,0.525,0.485
2114,0.535,0.595
2115,0.515,0.505
2116,0.565,0.485
2117,0.525,0.535
2118,0.475,0.485
2119,0.365,0.395
2120,0.195,0.255
2121,0.075,0.045
2122,-0.025,0.045
2123,-0.095,-0.025
2124,-0.165,-0.095
2125,-0.185,-0.115
2126,-0.205,-0.105
2127,-0.205,-0.155
2128,-0.245,-0.165
2129,-0.255,-0.135
2130,-0.245,-0.105
2131,-0.225,-0.085
2132,-0.215,-0.165
2133,-0.235,-0.195
2134,-0.185,-0.125
2135,-0.195,-0.165
2136,-0.225,-0.165
2137,-0.185,-0.075
2138,-0.205,-0.085
2139,-0.215,-0.145
2140,-0.215,-0.055
2141,-0.225,-0.185
2142,-0.165,-0.135
2143,-0.155,-0.165
2144,-0.165,-0.105
2145,-0.135,-0.125
2146,-0.065,-0.085
2147,-0.105,0.035
2148,-0.115,0.015
2149,-0.025,-0.085
2150,-0.005,-0.035
2151,-0.055,-0.045
2152,-0.045,-0.125
2153,-0.025,-0.145
2154,-0.135,-0.135
2155,-0.225,-0.095
2156,-0.265,-0.165
2157,-0.265,-0.175
2158,-0.255,-0.105
2159,-0.265,-0.135
2160,-0.295,-0.215
2161,-0.295,-0.225
2162,-0.265,-0.185
2163,-0.265,-0.105
2164,-0.275,-0.255
2165,-0.275,-0.215
2166,-0.265,-0.105
2167,-0.275,-0.055
2168,-0.505,-0.135
2169,-0.585,-0.025
2170,0.245,0.165
2171,1.605,0.125
2172,1.655,0.045
2173,-0.045,-0.795
2174,-1.045,-1.685
2175,-1.105,-1.935
2176,-0.885,-1.675
2177,-0.415,-1.035
2178,-0.225,-0.275
2179,-0.245,-0.085
2180,-0.205,-0.005
2181,-0.195,0.075
2182,-0.225,0.135
2183,-0.215,0.065
2184,-0.185,0.065
2185,-0.105,0.115
2186,-0.105,0.155
2187,-0.115,0.125
2188,-0.125,0.205
2189,-0.035,0.265
2190,-0.025,0.195
2191,-0.015,0.215
2192,0.025,0.285
2193,0.075,0.235
2194,0.105,0.365
2195,0.195,0.435
2196,0.285,0.505
2197,0.315,0.495
2198,0.375,0.605
2199,0.445,0.685
2200,0.465,0.525
2201,0.465,0.575
2202,0.445,0.575
2203,0.345,0.505
2204,0.195,0.365
2205,0.085,0.275
2206,0.005,0.145
2207,-0.105,0.085
2208,-0.195,-0.075
2209,-0.265,-0.035
2210,-0.285,0.015
2211,-0.285,-0.045
2212,-0.285,-0.115
2213,-0.305,-0.175
2214,-0.305,-0.095
2215,-0.345,-0.165
2216,-0.325,-0.105
2217,-0.305,-0.145
2218,-0.295,-0.075
2219,-0.315,-0.095
2220,-0.295,-0.125
2221,-0.295,-0.095
2222,-0.275,-0.065
2223,-0.275,-0.005
2224,-0.285,-0.125
2225,-0.295,-0.125
2226,-0.275,-0.095
2227,-0.265,-0.055
2228,-0.265,-0.115
2229,-0.235,-0.095
2230,-0.205,-0.005
2231,-0.165,-0.085
2232,-0.155,-0.045
2233,-0.165,0.015
2234,-0.095,0.015
2235,-0.075,0.065
2236,-0.125,0.085
2237,-0.125,-0.005
2238,-0.085,-0.145
2239,-0.105,-0.145
2240,-0.175,-0.065
2241,-0.285,-0.165
2242,-0.275,-0.135
2243,-0.315,-0.125
2244,-0.305,-0.205
2245,-0.315,-0.175
2246,-0.295,-0.145
2247,-0.325,-0.145
2248,-0.335,-0.145
2249,-0.325,-0.155
2250,-0.305,-0.095
2251,-0.305,-0.105
2252,-0.305,-0.185
2253,-0.335,-0.145
2254,-0.585,-0.065
2255,-0.535,0.065
2256,0.285,0.185
2257,1.515,0.185
2258,1.375,-0.045
2259,-0.145,-0.915
2260,-1.025,-1.745
2261,-1.105,-1.965
2262,-0.835,-1.595
2263,-0.515,-0.985
2264,-0.345,-0.355
2265,-0.295,-0.065
2266,-0.265,0.045
2267,-0.245,0.085
2268,-0.245,0.045
2269,-0.225,0.055
2270,-0.195,0.105
2271,-0.185,0.205
2272,-0.165,0.165
2273,-0.135,0.115
2274,-0.105,0.145
2275,-0.105,0.105
2276,-0.075,0.165
2277,-0.015,0.235
2278,0.015,0.245
2279,0.045,0.305
2280,0.105,0.345
2281,0.175,0.425
2282,0.265,0.505
2283,0.335,0.555
2284,0.395,0.485
2285,0.475,0.535
2286,0.475,0.595
2287,0.465,0.555
2288,0.455,0.465
2289,0.375,0.475
2290,0.265,0.365
2291,0.115,0.265
2292,0.005,0.165
2293,-0.085,0.015
2294,-0.185,-0.075
2295,-0.215,-0.105
2296,-0.255,-0.105
2297,-0.255,-0.105
2298,-0.285,-0.105
2299,-0.305,-0.125
2300,-0.295,-0.105
2301,-0.265,-0.105
2302,-0.265,-0.145
2303,-0.275,-0.165
2304,-0.315,-0.165
2305,-0.285,-0.075
2306,-0.275,-0.105
2307,-0.265,-0.145
2308,-0.255,-0.185
2309,-0.245,-0.135
2310,-0.235,-0.115
2311,-0.245,-0.125
2312,-0.235,-0.115
2313,-0.215,-0.105
2314,-0.195,-0.105
2315,-0.215,-0.095
2316,-0.235,-0.145
2317,-0.205,-0.115
2318,-0.155,-0.055
2319,-0.125,-0.085
2320,-0.155,-0.035
2321,-0.105,-0.095
2322,-0.035,0.005
2323,-0.045,-0.095
2324,-0.105,-0.155
2325,-0.065,-0.165
2326,-0.065,-0.115
2327,-0.125,-0.115
2328,-0.255,-0.135
2329,-0.275,-0.175
2330,-0.275,-0.185
2331,-0.285,-0.195
2332,-0.305,-0.195
2333,-0.285,-0.145
2334,-0.275,-0.145
2335,-0.295,-0.185
2336,-0.295,-0.215
2337,-0.275,-0.185
2338,-0.245,-0.155
2339,-0.255,-0.235
2340,-0.265,-0.215
2341,-0.425,-0.155
2342,-0.595,-0.035
2343,-0.155,0.175
2344,0.995,0.125
2345,1.875,0.105
2346,0.885,-0.255
2347,-0.725,-1.355
2348,-1.125,-1.945
2349,-1.055,-1.745
2350,-0.585,-1.295
2351,-0.315,-0.655
2352,-0.225,-0.155
2353,-0.185,-0.075
2354,-0.155,-0.025
2355,-0.125,0.015
2356,-0.135,0.055
2357,-0.105,0.065
2358,-0.065,0.115
2359,-0.075,0.125
2360,-0.055,0.145
2361,-0.005,0.175
2362,0.005,0.175
2363,0.035,0.155
2364,0.055,0.205
2365,0.085,0.295
2366,0.125,0.215
2367,0.195,0.265
2368,0.255,0.315
2369,0.335,0.365
2370,0.405,0.435
2371,0.455,0.455
2372,0.525,0.505
2373,0.585,0.535
2374,0.625,0.535
2375,0.615,0.505
2376,0.565,0.465
2377,0.485,0.425
2378,0.365,0.375
2379,0.195,0.145
2380,0.065,0.065
2381,-0.045,0.015
2382,-0.085,-0.085
2383,-0.165,-0.075
2384,-0.185,-0.125
2385,-0.175,-0.125
2386,-0.185,-0.085
2387,-0.185,-0.195
2388,-0.195,-0.185
2389,-0.185,-0.175
2390,-0.185,-0.165
2391,-0.205,-0.185
2392,-0.205,-0.175
2393,-0.195,-0.155
2394,-0.175,-0.125
2395,-0.185,-0.125
2396,-0.185,-0.115
2397,-0.205,-0.115
2398,-0.155,-0.085
2399,-0.165,-0.075
2400,-0.155,-0.155
2401,-0.135,-0.095
2402,-0.145,-0.085
2403,-0.145,-0.135
2404,-0.155,-0.165
2405,-0.155,-0.135
2406,-0.155,-0.125
2407,-0.095,-0.115
2408,-0.045,-0.095
2409,-0.085,-0.045
2410,-0.075,-0.045
2411,0.015,-0.045
2412,0.035,-0.005
2413,-0.025,-0.065
2414,0.005,-0.115
2415,0.015,-0.115
2416,-0.045,-0.085
2417,-0.125,-0.175
2418,-0.195,-0.255
2419,-0.185,-0.235
2420,-0.205,-0.225
2421,-0.185,-0.195
2422,-0.215,-0.215
2423,-0.215,-0.195
2424,-0.245,-0.215
2425,-0.205,-0.185
2426,-0.205,-0.185
2427,-0.215,-0.125
2428,-0.195,-0.185
2429,-0.185,-0.215
2430,-0.205,-0.195
2431,-0.415,-0.115
2432,-0.475,-0.025
2433,0.125,0.155
2434,1.475,0.135
2435,1.935,0.025
2436,0.425,-0.735
2437,-0.855,-1.695
2438,-1.135,-1.995
2439,-0.855,-1.555
2440,-0.435,-0.935
2441,-0.255,-0.345
2442,-0.175,-0.085
2443,-0.145,0.025
2444,-0.135,0.035
2445,-0.095,0.025
2446,-0.075,0.055
2447,-0.055,0.035
2448,-0.045,0.085
2449,-0.025,0.105
2450,-0.005,0.135
2451,-0.005,0.145
2452,0.025,0.225
2453,0.055,0.215
2454,0.115,0.245
2455,0.125,0.185
2456,0.175,0.225
2457,0.225,0.295
2458,0.305,0.375
2459,0.375,0.445
2460,0.435,0.505
2461,0.515,0.565
2462,0.575,0.585
2463,0.615,0.595
2464,0.635,0.575
2465,0.615,0.435
2466,0.535,0.455
2467,0.375,0.295
2468,0.225,0.215
2469,0.085,0.085
2470,-0.005,0.025
2471,-0.065,-0.075
2472,-0.125,-0.055
2473,-0.145,-0.175
2474,-0.185,-0.115
2475,-0.165,-0.125
2476,-0.205,-0.235
2477,-0.215,-0.235
2478,-0.175,-0.195
2479,-0.155,-0.165
2480,-0.235,-0.175
2481,-0.265,-0.215
2482,-0.215,-0.105
2483,-0.195,-0.165
2484,-0.175,-0.235
2485,-0.225,-0.215
2486,-0.225,-0.145
2487,-0.205,-0.195
2488,-0.215,-0.135
2489,-0.225,-0.075
2490,-0.195,-0.125
2491,-0.155,-0.095
2492,-0.185,-0.165
2493,-0.165,-0.215
2494,-0.215,-0.175
2495,-0.235,-0.175
2496,-0.185,-0.125
2497,-0.195,-0.135
2498,-0.205,-0.155
2499,-0.245,-0.155
2500,-0.155,-0.165
2501,-0.145,-0.115
2502,-0.045,-0.095
2503,-0.155,-0.145
2504,-0.015,-0.115
2505,-0.035,-0.095
2506,-0.185,-0.105
2507,0.055,-0.225
2508,0.065,-0.185
2509,-0.095,-0.155
2510,-0.285,-0.185
2511,-0.275,-0.205
2512,-0.295,-0.205
2513,-0.265,-0.235
2514,-0.255,-0.255
2515,-0.235,-0.245
2516,-0.235,-0.245
2517,-0.225,-0.235
2518,-0.255,-0.225
2519,-0.245,-0.235
2520,-0.235,-0.235
2521,-0.235,-0.215
2522,-0.205,-0.235
2523,-0.405,-0.195
2524,-0.525,-0.045
2525,0.165,0.115
2526,1.405,0.105
2527,2.005,0.035
2528,0.715,-0.685
2529,-0.765,-1.645
2530,-1.105,-2.125
2531,-0.885,-1.805
2532,-0.455,-1.225
2533,-0.305,-0.495
2534,-0.225,-0.165
2535,-0.165,-0.025
2536,-0.125,0.005
2537,-0.115,0.055
2538,-0.105,0.105
2539,-0.145,0.105
2540,0.015,0.125
2541,-0.035,-0.055
2542,-0.005,0.045
2543,0.025,0.125
2544,-0.045,0.085
2545,0.005,0.135
2546,0.015,0.225
2547,0.085,0.235
2548,0.135,0.265
2549,0.165,0.315
2550,0.225,0.315
2551,0.295,0.405
2552,0.375,0.485
2553,0.425,0.495
2554,0.475,0.505
2555,0.655,0.565
2556,0.605,0.605
2557,0.605,0.545
2558,0.525,0.535
2559,0.455,0.425
2560,0.315,0.245
2561,0.175,0.155
2562,-0.025,0.085
2563,-0.095,-0.025
2564,-0.105,-0.085
2565,-0.155,-0.125
2566,-0.175,-0.115
2567,-0.205,-0.125
2568,-0.195,-0.145
2569,-0.215,-0.205
2570,-0.235,-0.145
2571,-0.175,-0.195
2572,-0.165,-0.175
2573,-0.245,-0.185
2574,-0.245,-0.175
2575,-0.205,-0.165
2576,-0.195,-0.125
2577,-0.215,-0.135
2578,-0.225,-0.115
2579,-0.225,-0.065
2580,-0.215,-0.125
2581,-0.045,-0.085
2582,-0.125,-0.225
2583,-0.235,-0.245
2584,-0.235,-0.165
2585,-0.175,-0.135
2586,-0.175,-0.115
2587,-0.125,-0.105
2588,-0.175,-0.115
2589,-0.165,-0.115
2590,-0.195,-0.145
2591,-0.175,-0.105
2592,-0.185,-0.115
2593,-0.195,-0.155
2594,-0.175,-0.195
2595,-0.165,-0.065
2596,-0.035,-0.165
2597,-0.055,-0.155
2598,-0.055,-0.085
2599,-0.015,-0.025
2600,-0.035,-0.095
2601,-0.045,-0.145
2602,0.005,-0.105
2603,-0.045,-0.115
2604,-0.155,-0.145
2605,-0.235,-0.165
2606,-0.315,-0.115
2607,-0.105,-0.155
2608,-0.105,-0.265
2609,-0.265,-0.235
2610,-0.335,-0.215
2611,-0.305,-0.235
2612,-0.315,-0.215
2613,-0.245,-0.185
2614,-0.265,-0.165
2615,-0.265,-0.155
2616,-0.215,-0.155
2617,-0.245,-0.095
2618,-0.485,-0.035
2619,-0.475,0.105
2620,0.335,0.185
2621,1.775,0.205
2622,1.815,-0.085
2623,-0.055,-1.305
2624,-1.065,-2.025
2625,-1.145,-1.945
2626,-0.575,-1.345
2627,-0.315,-0.625
2628,-0.215,-0.145
2629,-0.155,0.035
2630,-0.145,0.115
2631,-0.115,0.105
2632,-0.095,0.165
2633,-0.075,0.185
2634,-0.075,0.115
2635,-0.025,0.135
2636,-0.015,0.125
2637,-0.025,0.095
2638,0.025,0.195
2639,0.045,0.195
2640,0.045,0.235
2641,0.115,0.275
2642,0.145,0.315
2643,0.165,0.345
2644,0.215,0.425
2645,0.275,0.495
2646,0.315,0.495
2647,0.405,0.575
2648,0.535,0.675
2649,0.585,0.625
2650,0.585,0.595
2651,0.635,0.685
2652,0.685,0.565
2653,0.485,0.475
2654,0.405,0.445
2655,0.305,0.315
2656,0.115,0.205
2657,0.015,0.095
2658,-0.085,-0.015
2659,-0.145,-0.045
2660,-0.185,-0.065
2661,-0.185,-0.045
2662,-0.155,-0.155
2663,-0.185,-0.125
2664,-0.215,-0.155
2665,-0.215,-0.145
2666,-0.195,-0.115
2667,-0.215,-0.095
2668,-0.195,-0.135
2669,-0.185,-0.125
2670,-0.225,-0.075
2671,-0.185,-0.085
2672,-0.195,-0.135
2673,-0.185,-0.125
2674,-0.195,-0.085
2675,-0.225,-0.085
2676,-0.185,-0.085
2677,-0.155,-0.085
2678,-0.185,-0.095
2679,-0.185,-0.135
2680,-0.155,-0.085
2681,-0.145,-0.075
2682,-0.175,-0.095
2683,-0.185,-0.025
2684,-0.175,-0.115
2685,-0.175,-0.205
2686,-0.205,-0.165
2687,-0.185,-0.115
2688,-0.155,-0.175
2689,-0.185,-0.205
2690,-0.205,-0.155
2691,-0.185,-0.155
2692,-0.205,-0.105
2693,-0.205,-0.065
2694,-0.145,-0.095
2695,-0.105,-0.105
2696,-0.085,-0.055
2697,-0.065,-0.085
2698,0.045,-0.075
2699,0.005,-0.065
2700,-0.065,-0.095
2701,0.025,-0.115
2702,-0.015,-0.085
2703,-0.105,-0.105
2704,-0.215,-0.145
2705,-0.185,-0.145
2706,-0.215,-0.185
2707,-0.215,-0.235
2708,-0.185,-0.225
2709,-0.215,-0.195
2710,-0.215,-0.145
2711,-0.225,-0.205
2712,-0.205,-0.185
2713,-0.175,-0.175
2714,-0.205,-0.155
2715,-0.195,-0.155
2716,-0.225,-0.085
2717,-0.405,-0.115
2718,-0.465,0.045
2719,0.085,0.215
2720,1.295,0.165
2721,2.035,0.075
2722,1.015,-0.845
2723,-0.655,-1.775
2724,-1.145,-2.135
2725,-0.985,-1.805
2726,-0.455,-1.175
2727,-0.255,-0.335
2728,-0.175,-0.055
2729,-0.115,-0.025
2730,-0.115,0.075
2731,-0.105,0.105
2732,-0.065,0.195
2733,-0.055,0.105
2734,-0.045,0.145
2735,-0.035,0.205
2736,-0.035,0.205
2737,0.035,0.185
2738,0.055,0.295
2739,0.065,0.225
2740,0.065,0.255
2741,0.105,0.385
2742,0.185,0.315
2743,0.225,0.395
2744,0.275,0.475
2745,0.365,0.565
2746,0.425,0.625
2747,0.515,0.605
2748,0.565,0.675
2749,0.645,0.755
2750,0.675,0.695
2751,0.655,0.625
2752,0.625,0.635
2753,0.525,0.565
2754,0.405,0.415
2755,0.235,0.275
2756,0.085,0.135
2757,0.025,0.085
2758,-0.005,-0.035
2759,-0.075,-0.085
2760,-0.355,-0.135
2761,0.265,-0.105
2762,-0.335,-0.115
2763,0.015,-0.115
2764,0.165,-0.185
2765,-0.355,-0.175
2766,-0.385,-0.045
2767,-0.275,-0.125
2768,-0.205,-0.125
2769,-0.185,-0.085
2770,-0.155,-0.055
2771,-0.155,-0.105
2772,-0.195,-0.135
2773,-0.185,-0.105
2774,-0.165,-0.065
2775,-0.155,-0.055
2776,-0.145,-0.065
2777,-0.145,-0.065
2778,-0.135,-0.155
2779,-0.155,-0.115
2780,-0.155,-0.025
2781,-0.135,-0.095
2782,-0.135,-0.165
2783,-0.145,-0.055
2784,-0.165,-0.115
2785,-0.165,-0.105
2786,-0.165,-0.145
2787,-0.165,-0.115
2788,-0.185,-0.095
2789,-0.115,-0.135
2790,-0.185,-0.145
2791,-0.195,-0.105
2792,-0.145,-0.115
2793,-0.195,-0.195
2794,-0.115,-0.145
2795,-0.105,-0.105
2796,-0.065,-0.015
2797,-0.055,0.005
2798,-0.025,-0.035
2799,0.025,-0.085
2800,0.025,-0.065
2801,-0.025,-0.105
2802,0.035,-0.105
2803,0.025,-0.065
2804,-0.105,-0.095
2805,-0.175,-0.235
2806,-0.205,-0.145
2807,-0.185,-0.155
2808,-0.185,-0.155
2809,-0.155,-0.125
2810,-0.155,-0.255
2811,-0.185,-0.215
2812,-0.195,-0.175
2813,-0.195,-0.155
2814,-0.215,-0.175
2815,-0.185,-0.165
2816,-0.115,-0.105
2817,-0.285,-0.185
2818,-0.465,0.005
2819,-0.195,0.195
2820,0.725,0.165
2821,1.835,0.155
2822,1.685,-0.185
2823,-0.035,-1.305
2824,-1.005,-2.085
2825,-1.115,-2.105
2826,-0.545,-1.495
2827,-0.225,-0.755
2828,-0.175,-0.225
2829,-0.135,-0.035
2830,-0.095,0.055
2831,-0.085,0.095
2832,-0.015,0.115
2833,-0.025,0.155
2834,-0.005,0.135
2835,-0.015,0.105
2836,0.045,0.185
2837,0.055,0.215
2838,0.075,0.215
2839,0.115,0.265
2840,0.105,0.275
2841,0.135,0.325
2842,0.185,0.355
2843,0.235,0.445
2844,0.245,0.355
2845,0.295,0.405
2846,0.435,0.575
2847,0.505,0.655
2848,0.565,0.615
2849,0.655,0.675
2850,0.695,0.695
2851,0.705,0.645
2852,0.695,0.665
2853,0.605,0.595
2854,0.555,0.505
2855,0.365,0.405
2856,0.235,0.225
2857,0.095,0.105
2858,0.005,0.015
2859,-0.065,-0.015
2860,-0.095,-0.105
2861,-0.135,-0.095
2862,-0.155,-0.095
2863,-0.135,-0.045
2864,-0.095,-0.135
2865,-0.145,-0.185
2866,-0.155,-0.165
2867,-0.145,-0.145
2868,-0.175,-0.115
2869,-0.145,-0.095
2870,-0.145,-0.125
2871,-0.135,-0.155
2872,-0.155,-0.145
2873,-0.135,-0.165
2874,-0.115,-0.155
2875,-0.125,-0.125
2876,-0.125,-0.105
2877,-0.125,-0.105
2878,-0.095,-0.095
2879,-0.125,-0.105
2880,-0.155,-0.095
2881,-0.115,0.005
2882,-0.115,-0.165
2883,-0.115,-0.195
2884,-0.095,-0.175
2885,-0.135,-0.185
2886,-0.125,-0.165
2887,-0.135,-0.165
2888,-0.145,-0.165
2889,-0.155,-0.155
2890,-0.145,-0.025
2891,-0.125,-0.115
2892,-0.165,-0.295
2893,-0.145,-0.235
2894,-0.135,-0.145
2895,-0.155,-0.175
2896,-0.125,-0.165
2897,-0.045,-0.055
2898,-0.025,-0.025
2899,-0.005,-0.165
2900,0.055,-0.195
2901,0.085,-0.095
2902,0.015,-0.105
2903,0.035,-0.175
2904,0.055,-0.115
2905,0.015,-0.095
2906,-0.165,-0.105
2907,-0.175,-0.245
2908,-0.185,-0.145
2909,-0.175,-0.135
2910,-0.185,-0.295
2911,-0.165,-0.225
2912,-0.155,-0.225
2913,-0.195,-0.285
2914,-0.205,-0.225
2915,-0.155,-0.215
2916,-0.175,-0.145
2917,-0.185,-0.185
2918,-0.195,-0.175
2919,-0.295,-0.125
2920,-0.485,0.015
2921,-0.195,0.125
2922,0.855,0.075
2923,1.905,0.065
2924,1.055,-0.505
2925,-0.535,-1.665
2926,-1.045,-2.225
2927,-0.865,-1.955
2928,-0.365,-1.395
2929,-0.225,-0.535
2930,-0.135,-0.145
2931,-0.105,-0.045
2932,-0.065,0.055
2933,-0.065,0.065
2934,-0.085,0.085
2935,-0.015,0.175
2936,0.005,0.165
2937,0.025,0.065
2938,0.025,0.145
2939,0.045,0.185
2940,0.065,0.235
2941,0.065,0.205
2942,0.115,0.245
2943,0.145,0.415
2944,0.165,0.245
2945,0.245,0.305
2946,0.305,0.465
2947,0.345,0.415
2948,0.425,0.475
2949,0.495,0.585
2950,0.575,0.635
2951,0.605,0.655
2952,0.635,0.645
2953,0.655,0.695
2954,0.685,0.775
2955,0.605,0.605
2956,0.475,0.435
2957,0.325,0.245
2958,0.155,0.135
2959,0.115,0.055
2960,-0.025,-0.035
2961,-0.075,-0.045
2962,-0.135,-0.075
2963,-0.145,-0.125
2964,-0.165,-0.125
2965,-0.145,-0.095
2966,-0.155,-0.105
2967,-0.175,-0.115
2968,-0.175,-0.175
2969,-0.155,-0.165
2970,-0.185,-0.125
2971,-0.175,-0.195
2972,-0.155,-0.145
2973,-0.165,-0.185
2974,-0.165,-0.165
2975,-0.135,-0.125
2976,-0.165,-0.125
2977,-0.175,-0.135
2978,-0.185,-0.085
2979,-0.165,-0.105
2980,-0.155,-0.105
2981,-0.165,-0.105
2982,-0.115,-0.185
2983,-0.135,-0.225
2984,-0.165,-0.215
2985,-0.175,-0.185
2986,-0.135,-0.155
2987,-0.165,-0.155
2988,-0.175,-0.155
2989,-0.155,-0.115
2990,-0.135,-0.095
2991,-0.205,-0.255
2992,-0.175,-0.215
2993,-0.205,-0.255
2994,-0.165,-0.245
2995,-0.155,-0.205
2996,-0.165,-0.175
2997,-0.085,-0.165
2998,-0.085,-0.125
2999,-0.075,-0.065
3000,0.025,-0.045
3001,0.035,-0.115
3002,-0.005,-0.145
3003,0.035,-0.185
3004,-0.005,-0.195
3005,-0.115,-0.175
3006,-0.225,-0.175
3007,-0.195,-0.225
3008,-0.205,-0.205
3009,-0.225,-0.175
3010,-0.225,-0.235
3011,-0.215,-0.235
3012,-0.215,-0.265
3013,-0.225,-0.245
3014,-0.255,-0.235
3015,-0.195,-0.175
3016,-0.225,-0.225
3017,-0.215,-0.165
3018,-0.225,-0.215
3019,-0.275,-0.175
3020,-0.475,-0.135
3021,-0.365,0.045
3022,0.355,0.125
3023,1.565,0.255
3024,1.495,-0.055
3025,-0.005,-1.175
3026,-0.865,-2.065
3027,-0.995,-2.215
3028,-0.675,-1.885
3029,-0.305,-1.205
3030,-0.195,-0.415
3031,-0.185,-0.145
3032,-0.135,-0.005
3033,-0.155,0.015
3034,-0.105,0.135
3035,-0.055,0.125
3036,-0.055,0.165
3037,-0.035,0.075
3038,-0.015,0.135
3039,-0.035,0.185
3040,0.005,0.185
3041,0.085,0.215
3042,0.065,0.225
3043,0.095,0.235
3044,0.115,0.345
3045,0.165,0.335
3046,0.265,0.365
3047,0.315,0.525
3048,0.405,0.565
3049,0.435,0.535
3050,0.515,0.605
3051,0.575,0.735
3052,0.595,0.605
3053,0.625,0.645
3054,0.625,0.635
3055,0.545,0.565
3056,0.385,0.495
3057,0.275,0.245
3058,0.125,0.145
3059,0.025,0.075
3060,-0.055,-0.005
3061,-0.155,-0.065
3062,-0.165,-0.065
3063,-0.165,-0.035
3064,-0.185,-0.175
3065,-0.185,-0.145
3066,-0.205,-0.125
3067,-0.205,-0.115
3068,-0.205,-0.125
3069,-0.225,-0.135
3070,-0.215,-0.125
3071,-0.205,-0.135
3072,-0.205,-0.095
3073,-0.185,-0.075
3074,-0.175,-0.135
3075,-0.175,-0.125
3076,-0.195,-0.135
3077,-0.195,-0.075
3078,-0.175,-0.045
3079,-0.175,-0.135
3080,-0.185,-0.135
3081,-0.205,-0.115
3082,-0.195,-0.055
3083,-0.195,-0.175
3084,-0.195,-0.175
3085,-0.195,-0.155
3086,-0.205,-0.145
3087,-0.215,-0.145
3088,-0.235,-0.145
3089,-0.195,-0.075
3090,-0.195,-0.125
3091,-0.225,-0.195
3092,-0.235,-0.185
3093,-0.205,-0.175
3094,-0.165,-0.155
3095,-0.135,-0.185
3096,-0.135,-0.125
3097,-0.115,-0.065
3098,-0.045,-0.095
3099,0.005,-0.005
3100,-0.065,-0.085
3101,-0.035,-0.155
3102,-0.055,-0.065
3103,-0.125,-0.095
3104,-0.235,-0.105
3105,-0.235,-0.285
3106,-0.265,-0.265
3107,-0.265,-0.225
3108,-0.255,-0.195
3109,-0.265,-0.205
3110,-0.265,-0.205
3111,-0.265,-0.165
3112,-0.285,-0.205
3113,-0.255,-0.145
3114,-0.255,-0.125
3115,-0.235,-0.295
3116,-0.245,-0.205
3117,-0.415,-0.065
3118,-0.535,-0.105
3119,0.035,0.105
3120,1.175,0.115
3121,1.615,0.095
3122,0.335,-0.605
3123,-0.785,-1.725
3124,-1.025,-2.135
3125,-0.795,-1.865
3126,-0.395,-1.305
3127,-0.255,-0.565
3128,-0.195,-0.195
3129,-0.155,-0.015
3130,-0.135,0.025
3131,-0.125,0.065
3132,-0.125,0.065
3133,-0.095,0.045
3134,-0.085,0.105
3135,-0.045,0.165
3136,-0.055,0.135
3137,-0.025,0.165
3138,0.005,0.195
3139,0.025,0.265
3140,0.045,0.235
3141,0.085,0.295
3142,0.145,0.295
3143,0.165,0.345
3144,0.225,0.375
3145,0.305,0.435
3146,0.375,0.575
3147,0.445,0.615
3148,0.515,0.605
3149,0.585,0.575
3150,0.585,0.595
3151,0.565,0.575
3152,0.565,0.535
3153,0.495,0.555
3154,0.345,0.425
3155,0.185,0.215
3156,0.025,0.085
3157,-0.045,0.035
3158,-0.105,-0.025
3159,-0.145,-0.075
3160,-0.185,-0.135
3161,-0.185,-0.145
3162,-0.195,-0.135
3163,-0.185,-0.095
3164,-0.235,-0.145
3165,-0.215,-0.175
3166,-0.215,-0.095
3167,-0.195,-0.165
3168,-0.225,-0.175
3169,-0.195,-0.125
3170,-0.205,-0.135
3171,-0.225,-0.075
3172,-0.205,-0.105
3173,-0.185,-0.155
3174,-0.185,-0.135
3175,-0.185,-0.115
3176,-0.185,-0.105
3177,-0.185,-0.115
3178,-0.185,-0.045
3179,-0.185,-0.095
3180,-0.185,-0.195
3181,-0.185,-0.135
3182,-0.175,-0.095
3183,-0.175,-0.185
3184,-0.195,-0.155
3185,-0.225,-0.125
3186,-0.175,-0.205
3187,-0.155,-0.175
3188,-0.125,-0.115
3189,-0.155,-0.085
3190,-0.095,-0.035
3191,-0.035,-0.065
3192,-0.045,-0.085
3193,-0.075,-0.075
3194,-0.045,-0.185
3195,-0.055,-0.075
3196,-0.105,-0.155
3197,-0.255,-0.185
3198,-0.235,-0.135
3199,-0.255,-0.205
3200,-0.315,-0.225
3201,-0.275,-0.215
3202,-0.255,-0.195
3203,-0.315,-0.205
3204,-0.305,-0.215
3205,-0.275,-0.185
3206,-0.305,-0.145
3207,-0.265,-0.105
3208,-0.245,-0.185
3209,-0.235,-0.215
3210,-0.415,-0.175
3211,-0.545,-0.015
3212,-0.055,0.185
3213,1.145,0.135
3214,1.785,0.125
3215,0.675,-0.235
3216,-0.835,-1.355
3217,-1.175,-1.925
3218,-0.975,-1.765
3219,-0.525,-1.305
3220,-0.305,-0.585
3221,-0.175,-0.165
3222,-0.125,-0.055
3223,-0.115,-0.055
3224,-0.115,0.035
3225,-0.105,0.025
3226,-0.095,0.075
3227,-0.075,0.075
3228,-0.055,0.115
3229,-0.035,0.145
3230,0.005,0.115
3231,0.015,0.135
3232,0.025,0.175
3233,0.065,0.245
3234,0.115,0.265
3235,0.165,0.215
3236,0.185,0.265
3237,0.235,0.325
3238,0.315,0.395
3239,0.405,0.485
3240,0.465,0.535
3241,0.545,0.525
3242,0.585,0.565
3243,0.615,0.595
3244,0.605,0.535
3245,0.575,0.475
3246,0.465,0.415
3247,0.335,0.395
3248,0.195,0.295
3249,0.095,0.115
3250,-0.025,-0.025
3251,-0.105,-0.055
3252,-0.145,-0.055
3253,-0.195,-0.115
3254,-0.205,-0.135
3255,-0.225,-0.115
3256,-0.235,-0.125
3257,-0.225,-0.135
3258,-0.225,-0.115
3259,-0.215,-0.115
3260,-0.225,-0.155
3261,-0.235,-0.125
3262,-0.215,-0.115
3263,-0.205,-0.065
3264,-0.245,-0.125
3265,-0.205,-0.085
3266,-0.195,-0.125
3267,-0.185,-0.095
3268,-0.195,-0.125
3269,-0.175,-0.085
3270,-0.165,-0.095
3271,-0.165,-0.165
3272,-0.165,-0.135
3273,-0.165,-0.105
3274,-0.175,-0.105
3275,-0.175,-0.115
3276,-0.205,-0.135
3277,-0.215,-0.125
3278,-0.175,-0.105
3279,-0.125,-0.105
3280,-0.105,-0.085
3281,-0.105,0.035
3282,-0.085,-0.065
3283,-0.045,-0.035
3284,-0.005,-0.045
3285,-0.075,-0.165
3286,-0.055,-0.195
3287,-0.055,-0.135
3288,-0.165,-0.075
3289,-0.285,-0.165
3290,-0.275,-0.205
3291,-0.325,-0.185
3292,-0.325,-0.205
3293,-0.315,-0.185
3294,-0.325,-0.185
3295,-0.305,-0.195
3296,-0.315,-0.175
3297,-0.315,-0.175
3298,-0.315,-0.165
3299,-0.305,-0.185
3300,-0.305,-0.165
3301,-0.365,-0.155
3302,-0.555,-0.085
3303,-0.435,0.065
3304,0.455,0.215
3305,1.695,0.205
3306,1.565,0.065
3307,-0.195,-0.835
3308,-1.325,-1.705
3309,-1.415,-1.985
3310,-0.955,-1.675
3311,-0.505,-1.035
3312,-0.325,-0.355
3313,-0.235,-0.075
3314,-0.245,-0.005
3315,-0.255,0.025
3316,-0.255,0.005
3317,-0.215,0.085
3318,-0.155,0.155
3319,-0.135,0.105
3320,-0.075,-0.005
3321,-0.095,0.035
3322,-0.075,0.085
3323,-0.085,0.115
3324,-0.075,0.105
3325,-0.005,0.165
3326,0.055,0.205
3327,0.075,0.225
3328,0.105,0.245
3329,0.155,0.295
3330,0.255,0.345
3331,0.315,0.425
3332,0.395,0.445
3333,0.505,0.465
3334,0.525,0.505
3335,0.625,0.495
3336,0.645,0.425
3337,0.585,0.445
3338,0.565,0.415
3339,0.405,0.315
3340,0.235,0.245
3341,0.125,0.145
3342,-0.035,0.065
3343,-0.145,-0.005
3344,-0.145,-0.055
3345,-0.195,-0.105
3346,-0.285,-0.075
3347,-0.275,-0.135
3348,-0.215,-0.105
3349,-0.205,-0.185
3350,-0.285,-0.145
3351,-0.255,-0.135
3352,-0.265,-0.135
3353,-0.255,-0.125
3354,-0.205,-0.115
3355,-0.265,-0.115
3356,-0.245,-0.095
3357,-0.235,-0.105
3358,-0.255,-0.125
3359,-0.225,-0.095
3360,-0.195,-0.045
3361,-0.195,-0.105
3362,-0.265,-0.115
3363,-0.165,-0.125
3364,-0.155,-0.095
3365,-0.205,-0.085
3366,-0.265,-0.105
3367,-0.155,-0.095
3368,-0.165,-0.095
3369,-0.115,-0.055
3370,-0.215,0.005
3371,-0.075,-0.055
3372,-0.055,-0.065
3373,-0.055,0.005
3374,-0.085,-0.055
3375,-0.085,-0.105
3376,-0.035,-0.085
3377,-0.225,-0.085
3378,-0.265,-0.125
3379,-0.265,-0.135
3380,-0.325,-0.185
3381,-0.295,-0.195
3382,-0.345,-0.195
3383,-0.265,-0.185
3384,-0.265,-0.205
3385,-0.335,-0.165
3386,-0.295,-0.155
3387,-0.275,-0.155
3388,-0.335,-0.185
3389,-0.255,-0.125
3390,-0.305,-0.175
3391,-0.495,-0.125
3392,-0.465,0.025
3393,0.105,0.195
3394,1.345,0.125
3395,1.775,-0.045
3396,-0.175,-0.345
3397,-1.545,-1.085
3398,-1.535,-1.535
3399,-1.225,-1.365
3400,-0.645,-0.855
3401,-0.295,-0.365
3402,-0.285,-0.105
3403,-0.235,0.055
3404,-0.215,-0.065
3405,-0.105,-0.115
3406,-0.085,0.025
3407,-0.125,-0.065
3408,-0.085,-0.035
3409,-0.085,-0.035
3410,0.025,-0.005
3411,-0.055,0.025
3412,-0.005,0.045
3413,0.025,0.085
3414,0.165,0.065
3415,0.095,0.065
3416,0.195,0.115
3417,0.235,0.045
3418,0.295,0.135
3419,0.425,0.185
3420,0.435,0.175
3421,0.595,0.315
3422,0.655,0.335
3423,0.705,0.345
3424,0.705,0.285
3425,0.705,0.285
3426,0.725,0.195
3427,0.535,0.175
3428,0.395,0.095
3429,0.205,0.115
3430,0.075,0.005
3431,-0.025,-0.145
3432,-0.035,-0.095
3433,-0.125,-0.125
3434,-0.175,-0.215
3435,-0.185,-0.185
3436,-0.195,-0.205
3437,-0.135,-0.175
3438,-0.145,-0.115
3439,-0.225,-0.165
3440,-0.185,-0.255
3441,-0.165,-0.215
3442,-0.175,-0.265
3443,-0.185,-0.205
3444,-0.125,-0.155
3445,-0.215,-0.155
3446,-0.145,-0.165
3447,-0.145,-0.195
3448,-0.265,-0.135
3449,-0.225,-0.275
3450,-0.105,-0.135
3451,-0.175,-0.205
3452,-0.235,-0.245
3453,-0.155,-0.215
3454,-0.185,-0.165
3455,-0.055,-0.125
3456,-0.145,-0.195
3457,-0.105,-0.185
3458,-0.035,-0.135
3459,-0.045,-0.125
3460,-0.005,-0.085
3461,0.055,-0.105
3462,-0.015,-0.105
3463,0.015,-0.165
3464,0.005,-0.175
3465,0.075,-0.125
3466,-0.105,-0.225
3467,-0.175,-0.305
3468,-0.175,-0.315
3469,-0.195,-0.225
3470,-0.215,-0.265
3471,-0.185,-0.215
3472,-0.185,-0.255
3473,-0.165,-0.265
3474,-0.225,-0.245
3475,-0.185,-0.215
3476,-0.185,-0.215
3477,-0.125,-0.215
3478,-0.105,-0.275
3479,-0.195,-0.295
3480,-0.305,-0.185
3481,-0.205,0.045
3482,0.545,0.045
3483,1.825,0.035
3484,1.465,-0.145
3485,-0.745,-0.575
3486,-1.455,-1.245
3487,-1.215,-1.525
3488,-0.715,-1.145
3489,-0.345,-0.625
3490,-0.095,-0.335
3491,-0.045,-0.135
3492,-0.025,-0.105
3493,0.025,-0.165
3494,0.055,-0.045
3495,0.075,-0.185
3496,0.075,-0.025
3497,0.075,-0.075
3498,0.105,-0.095
3499,0.105,-0.075
3500,0.165,-0.035
3501,0.175,-0.025
3502,0.195,-0.055
3503,0.185,-0.055
3504,0.275,0.145
3505,0.335,0.085
3506,0.355,0.105
3507,0.415,0.095
3508,0.515,0.135
3509,0.575,0.235
3510,0.665,0.185
3511,0.685,0.285
3512,0.705,0.365
3513,0.715,0.305
3514,0.755,0.225
3515,0.665,0.225
3516,0.475,0.085
3517,0.295,0.055
3518,0.195,-0.045
3519,0.115,-0.105
3520,-0.005,-0.055
3521,-0.005,-0.175
3522,-0.055,-0.265
3523,-0.075,-0.165
3524,-0.085,-0.315
3525,-0.095,-0.275
3526,-0.085,-0.215
3527,-0.115,-0.165
3528,-0.125,-0.215
3529,-0.085,-0.175
3530,-0.095,-0.235
3531,-0.075,-0.215
3532,-0.085,-0.255
3533,0.005,-0.205
3534,-0.055,-0.195
3535,-0.055,-0.175
3536,-0.005,-0.225
3537,-0.045,-0.185
3538,-0.015,-0.205
3539,-0.025,-0.165
3540,-0.045,-0.175
3541,-0.055,-0.145
3542,-0.015,-0.215
3543,-0.035,-0.185
3544,-0.045,-0.155
3545,-0.055,-0.225
3546,-0.055,-0.165
3547,-0.015,-0.225
3548,-0.025,-0.195
3549,0.025,-0.195
3550,0.065,-0.185
3551,0.015,-0.085
3552,0.055,-0.115
3553,0.125,0.025
3554,0.115,-0.085
3555,0.115,-0.175
3556,0.145,-0.215
3557,0.115,-0.195
3558,-0.025,-0.125
3559,-0.115,-0.195
3560,-0.105,-0.245
3561,-0.105,-0.255
3562,-0.075,-0.215
3563,-0.085,-0.195
3564,-0.125,-0.205
3565,-0.105,-0.185
3566,-0.085,-0.195
3567,-0.075,-0.155
3568,-0.085,-0.185
3569,-0.105,-0.245
3570,-0.045,-0.165
3571,-0.135,-0.145
3572,-0.305,-0.075
3573,-0.045,0.165
3574,1.005,0.225
3575,2.205,0.035
3576,1.395,-0.265
3577,-0.855,-0.885
3578,-1.365,-1.465
3579,-1.165,-1.515
3580,-0.585,-1.065
3581,-0.205,-0.535
3582,-0.035,-0.165
3583,0.055,-0.085
3584,0.085,-0.005
3585,0.125,0.035
3586,0.125,0.015
3587,0.155,0.025
3588,0.175,0.005
3589,0.235,0.035
3590,0.265,0.035
3591,0.245,0.045
3592,0.295,0.045
3593,0.285,0.105
3594,0.335,0.125
3595,0.365,0.165
3596,0.385,0.195
3597,0.455,0.255
3598,0.515,0.245
3599,0.615,0.275
3600,0.645,0.365
3601,0.725,0.415
3602,0.815,0.405
3603,0.875,0.445
3604,0.915,0.395
3605,0.885,0.365
3606,0.845,0.385
3607,0.745,0.345
3608,0.605,0.255
3609,0.445,0.165
3610,0.335,0.115
3611,0.215,0.045
3612,0.155,-0.035
3613,0.125,-0.025
3614,0.105,-0.075
3615,0.085,-0.065
3616,0.055,-0.085
3617,0.055,-0.055
3618,0.075,-0.175
3619,0.045,-0.155
3620,0.055,-0.095
3621,0.075,-0.125
3622,0.075,-0.145
3623,0.075,-0.125
3624,0.075,-0.105
3625,0.075,-0.075
3626,0.075,-0.075
3627,0.055,-0.075
3628,0.055,-0.035
3629,0.085,-0.015
3630,0.115,-0.035
3631,0.105,-0.155
3632,0.065,-0.065
3633,0.085,-0.095
3634,0.085,-0.065
3635,0.105,-0.085
3636,0.085,-0.105
3637,0.085,-0.065
3638,0.115,-0.055
3639,0.155,-0.015
3640,0.135,0.005
3641,0.165,0.005
3642,0.215,0.045
3643,0.205,0.045
3644,0.165,-0.015
3645,0.215,-0.045
3646,0.185,-0.085
3647,0.105,-0.105
3648,-0.055,-0.155
3649,-0.035,-0.155
3650,-0.045,-0.085
3651,-0.055,-0.155
3652,-0.075,-0.165
3653,-0.065,-0.135
3654,-0.055,-0.085
3655,-0.085,-0.085
3656,-0.075,-0.095
3657,-0.075,-0.115
3658,-0.035,-0.145
3659,-0.055,-0.185
3660,-0.105,-0.165
3661,-0.285,-0.075
3662,-0.185,0.175
3663,0.645,0.265
3664,1.915,0.175
3665,2.105,-0.005
3666,-0.045,-0.625
3667,-1.255,-1.285
3668,-1.275,-1.605
3669,-0.765,-1.285
3670,-0.285,-0.715
3671,-0.085,-0.255
3672,-0.055,-0.075
3673,-0.015,0.025
3674,0.015,0.075
3675,0.015,0.085
3676,0.015,0.105
3677,0.025,0.135
3678,0.035,0.085
3679,0.075,0.095
3680,0.105,0.075
3681,0.125,0.145
3682,0.105,0.125
3683,0.105,0.135
3684,0.185,0.165
3685,0.225,0.245
3686,0.265,0.295
3687,0.275,0.225
3688,0.365,0.275
3689,0.415,0.445
3690,0.495,0.455
3691,0.565,0.405
3692,0.655,0.505
3693,0.665,0.485
3694,0.685,0.475
3695,0.625,0.475
3696,0.505,0.365
3697,0.355,0.255
3698,0.235,0.185
3699,0.055,0.105
3700,-0.055,0.055
3701,-0.135,-0.065
3702,-0.185,-0.085
3703,-0.215,-0.135
3704,-0.275,-0.115
3705,-0.265,-0.055
3706,-0.255,-0.145
3707,-0.265,-0.195
3708,-0.255,-0.195
3709,-0.275,-0.175
3710,-0.285,-0.135
3711,-0.305,-0.145
3712,-0.295,-0.095
3713,-0.285,-0.215
3714,-0.275,-0.235
3715,-0.255,-0.175
3716,-0.285,-0.185
3717,-0.275,-0.075
3718,-0.285,-0.195
3719,-0.245,-0.195
3720,-0.245,-0.155
3721,-0.215,-0.055
3722,-0.225,-0.145
3723,-0.225,-0.205
3724,-0.205,-0.105
3725,-0.155,-0.125
3726,-0.135,-0.115
3727,-0.125,-0.095
3728,-0.115,-0.065
3729,-0.045,-0.055
3730,-0.045,-0.065
3731,-0.115,-0.155
3732,-0.085,-0.195
3733,-0.105,-0.115
3734,-0.115,-0.125
3735,-0.225,-0.055
3736,-0.315,-0.205
3737,-0.325,-0.265
3738,-0.305,-0.195
3739,-0.305,-0.205
3740,-0.335,-0.285
3741,-0.315,-0.215
3742,-0.295,-0.195
3743,-0.305,-0.145
3744,-0.315,-0.325
3745,-0.315,-0.175
3746,-0.305,-0.205
3747,-0.295,-0.225
3748,-0.455,-0.185
3749,-0.595,-0.035
3750,-0.065,0.135
3751,1.165,0.165
3752,2.055,0.045
3753,0.915,-0.435
3754,-1.025,-1.445
3755,-1.445,-1.825
3756,-1.275,-1.625
3757,-0.705,-1.095
3758,-0.405,-0.415
3759,-0.295,-0.125
3760,-0.295,-0.045
3761,-0.255,0.025
3762,-0.225,-0.045
3763,-0.215,-0.055
3764,-0.225,-0.015
3765,-0.205,-0.005
3766,-0.165,0.055
3767,-0.145,0.085
3768,-0.155,0.075
3769,-0.145,0.115
3770,-0.115,0.225
3771,-0.065,0.095
3772,-0.055,0.115
3773,-0.005,0.155
3774,0.085,0.215
3775,0.105,0.295
3776,0.155,0.305
3777,0.265,0.415
3778,0.315,0.445
3779,0.405,0.485
3780,0.435,0.515
3781,0.455,0.495
3782,0.465,0.485
3783,0.405,0.445
3784,0.275,0.415
3785,0.155,0.315
3786,-0.005,0.105
3787,-0.145,-0.045
3788,-0.215,-0.075
3789,-0.285,-0.125
3790,-0.335,-0.135
3791,-0.375,-0.165
3792,-0.365,-0.165
3793,-0.365,-0.165
3794,-0.365,-0.155
3795,-0.355,-0.145
3796,-0.365,-0.135
3797,-0.355,-0.185
3798,-0.355,-0.185
3799,-0.355,-0.155
3800,-0.355,-0.125
3801,-0.355,-0.165
3802,-0.375,-0.185
3803,-0.355,-0.155
3804,-0.365,-0.145
3805,-0.365,-0.135
3806,-0.355,-0.115
3807,-0.355,-0.115
3808,-0.355,-0.115
3809,-0.335,-0.095
3810,-0.335,-0.105
3811,-0.335,-0.105
3812,-0.295,-0.085
3813,-0.265,-0.045
3814,-0.235,0.025
3815,-0.205,0.095
3816,-0.155,-0.065
3817,-0.145,-0.025
3818,-0.215,-0.045
3819,-0.195,-0.175
3820,-0.175,-0.215
3821,-0.215,-0.125
3822,-0.285,-0.115
3823,-0.395,-0.135
3824,-0.405,-0.175
3825,-0.415,-0.155
3826,-0.415,-0.145
3827,-0.385,-0.145
3828,-0.405,-0.205
3829,-0.425,-0.155
3830,-0.425,-0.155
3831,-0.405,-0.155
3832,-0.415,-0.115
3833,-0.405,-0.135
3834,-0.385,-0.105
3835,-0.455,-0.175
3836,-0.685,-0.095
3837,-0.515,0.115
3838,0.445,0.215
3839,1.845,0.155
3840,1.715,-0.135
3841,-0.445,-1.035
3842,-1.535,-1.745
3843,-1.505,-1.895
3844,-0.855,-1.385
3845,-0.515,-0.575
3846,-0.395,-0.065
3847,-0.335,0.075
3848,-0.295,-0.035
3849,-0.245,0.055
3850,-0.255,0.045
3851,-0.275,0.025
3852,-0.225,0.065
3853,-0.195,0.115
3854,-0.205,0.155
3855,-0.165,0.165
3856,-0.165,0.165
3857,-0.125,0.255
3858,-0.095,0.245
3859,-0.045,0.255
3860,-0.025,0.255
3861,0.035,0.285
3862,0.085,0.355
3863,0.125,0.395
3864,0.205,0.475
3865,0.315,0.505
3866,0.395,0.545
3867,0.455,0.605
3868,0.435,0.605
3869,0.565,0.605
3870,0.515,0.575
3871,0.405,0.495
3872,0.225,0.405
3873,0.095,0.305
3874,-0.015,0.225
3875,-0.145,0.175
3876,-0.215,0.035
3877,-0.285,-0.075
3878,-0.325,-0.105
3879,-0.335,-0.095
3880,-0.395,-0.085
3881,-0.345,-0.105
3882,-0.385,-0.095
3883,-0.385,-0.095
3884,-0.385,-0.085
3885,-0.315,-0.125
3886,-0.375,-0.105
3887,-0.385,-0.085
3888,-0.335,-0.055
3889,-0.335,-0.055
3890,-0.345,-0.175
3891,-0.375,-0.125
3892,-0.365,-0.105
3893,-0.295,-0.135
3894,-0.325,-0.115
3895,-0.305,-0.085
3896,-0.335,-0.065
3897,-0.295,-0.085
3898,-0.265,-0.065
3899,-0.245,-0.035
3900,-0.205,-0.045
3901,-0.155,0.025
3902,-0.165,0.015
3903,-0.115,0.005
3904,-0.075,0.005
3905,-0.105,0.025
3906,-0.125,-0.055
3907,-0.095,-0.125
3908,-0.125,-0.095
3909,-0.175,-0.065
3910,-0.315,-0.085
3911,-0.305,-0.135
3912,-0.335,-0.115
3913,-0.305,-0.055
3914,-0.305,-0.095
3915,-0.315,-0.165
3916,-0.325,-0.205
3917,-0.315,-0.175
3918,-0.295,-0.145
3919,-0.315,-0.135
3920,-0.305,-0.135
3921,-0.295,-0.105
3922,-0.435,-0.085
3923,-0.635,0.005
3924,-0.195,0.225
3925,1.045,0.265
3926,2.115,0.215
3927,1.405,-0.215
3928,-0.705,-1.085
3929,-1.315,-1.845
3930,-1.245,-1.685
3931,-0.675,-1.245
3932,-0.435,-0.525
3933,-0.325,-0.145
3934,-0.215,-0.015
3935,-0.255,0.035
3936,-0.185,0.035
3937,-0.185,0.065
3938,-0.205,0.135
3939,-0.165,0.175
3940,-0.115,0.185
3941,-0.085,0.085
3942,-0.095,0.205
3943,-0.015,0.175
3944,-0.075,0.075
3945,0.035,0.205
3946,0.045,0.295
3947,0.085,0.235
3948,0.105,0.285
3949,0.175,0.365
3950,0.255,0.425
3951,0.335,0.545
3952,0.425,0.555
3953,0.505,0.505
3954,0.565,0.655
3955,0.555,0.585
3956,0.575,0.555
3957,0.525,0.605
3958,0.485,0.475
3959,0.305,0.285
3960,0.115,0.205
3961,-0.015,0.125
3962,-0.115,0.035
3963,-0.185,-0.035
3964,-0.235,-0.075
3965,-0.255,-0.105
3966,-0.275,-0.105
3967,-0.285,-0.055
3968,-0.275,-0.135
3969,-0.275,-0.125
3970,-0.265,-0.155
3971,-0.275,-0.195
3972,-0.325,-0.155
3973,-0.285,-0.195
3974,-0.285,-0.185
3975,-0.285,-0.165
3976,-0.285,-0.145
3977,-0.275,-0.125
3978,-0.285,-0.105
3979,-0.285,-0.155
3980,-0.285,-0.105
3981,-0.285,-0.105
3982,-0.295,-0.085
3983,-0.265,-0.155
3984,-0.175,-0.125
3985,-0.125,-0.135
3986,-0.205,-0.055
3987,-0.175,-0.025
3988,-0.135,-0.055
3989,-0.115,0.005
3990,-0.155,-0.095
3991,-0.095,-0.155
3992,-0.105,-0.175
3993,-0.225,-0.125
3994,-0.305,-0.135
3995,-0.285,-0.175
3996,-0.385,-0.205
3997,-0.395,-0.215
3998,-0.385,-0.185
3999,-0.405,-0.225
4000,-0.365,-0.225
4001,-0.335,-0.215
4002,-0.315,-0.175
4003,-0.375,-0.125
4004,-0.365,-0.165
4005,-0.275,-0.255
4006,-0.315,-0.235
4007,-0.535,-0.075
4008,-0.645,-0.085
4009,0.035,0.135
4010,1.465,0.145
4011,1.965,0.005
4012,0.575,-0.695
4013,-1.005,-1.565
4014,-1.325,-2.025
4015,-1.125,-1.755
4016,-0.625,-1.215
4017,-0.445,-0.505
4018,-0.305,-0.145
4019,-0.275,-0.055
4020,-0.275,-0.005
4021,-0.235,0.045
4022,-0.215,0.045
4023,-0.225,0.035
4024,-0.215,0.045
4025,-0.205,0.055
4026,-0.165,0.045
4027,-0.165,0.065
4028,-0.135,0.145
4029,-0.075,0.125
4030,-0.075,0.185
4031,-0.035,0.245
4032,0.015,0.225
4033,0.065,0.205
4034,0.135,0.245
4035,0.185,0.345
4036,0.255,0.405
4037,0.355,0.465
4038,0.405,0.505
4039,0.445,0.535
4040,0.485,0.545
4041,0.515,0.495
4042,0.455,0.475
4043,0.315,0.425
4044,0.195,0.275
4045,0.045,0.185
4046,-0.075,0.075
4047,-0.165,-0.105
4048,-0.225,-0.125
4049,-0.305,-0.135
4050,-0.275,-0.115
4051,-0.265,-0.205
4052,-0.295,-0.185
4053,-0.295,-0.185
4054,-0.305,-0.165
4055,-0.315,-0.215
4056,-0.305,-0.235
4057,-0.315,-0.215
4058,-0.295,-0.205
4059,-0.305,-0.195
4060,-0.305,-0.205
4061,-0.295,-0.185
4062,-0.295,-0.185
4063,-0.285,-0.165
4064,-0.285,-0.185
4065,-0.275,-0.175
4066,-0.295,-0.155
4067,-0.275,-0.145
4068,-0.275,-0.175
4069,-0.225,-0.185
4070,-0.175,-0.165
4071,-0.165,-0.095
4072,-0.175,-0.075
4073,-0.105,-0.125
4074,-0.075,-0.065
4075,-0.115,-0.105
4076,-0.155,-0.175
4077,-0.115,-0.185
4078,-0.135,-0.145
4079,-0.215,-0.195
4080,-0.315,-0.265
4081,-0.335,-0.265
4082,-0.335,-0.245
4083,-0.335,-0.245
4084,-0.345,-0.255
4085,-0.335,-0.205
4086,-0.355,-0.205
4087,-0.335,-0.255
4088,-0.305,-0.215
4089,-0.325,-0.275
4090,-0.305,-0.255
4091,-0.305,-0.255
4092,-0.505,-0.225
4093,-0.595,-0.045
4094,-0.035,0.155
4095,1.295,0.085
4096,2.025,0.045
4097,0.705,-0.515
4098,-0.905,-1.495
4099,-1.375,-2.095
4100,-1.025,-1.825
4101,-0.505,-1.125
4102,-0.345,-0.575
4103,-0.275,-0.255
4104,-0.235,-0.105
4105,-0.205,-0.035
4106,-0.205,0.005
4107,-0.195,0.005
4108,-0.165,0.025
4109,-0.155,0.045
4110,-0.125,0.065
4111,-0.105,0.035
4112,-0.085,0.055
4113,-0.045,0.085
4114,-0.035,0.105
4115,-0.015,0.145
4116,0.025,0.155
4117,0.105,0.215
4118,0.135,0.225
4119,0.205,0.315
4120,0.285,0.405
4121,0.345,0.365
4122,0.435,0.425
4123,0.505,0.495
4124,0.545,0.545
4125,0.575,0.515
4126,0.575,0.525
4127,0.535,0.475
4128,0.425,0.345
4129,0.265,0.275
4130,0.125,0.145
4131,0.005,0.045
4132,-0.085,-0.085
4133,-0.135,-0.105
4134,-0.205,-0.165
4135,-0.225,-0.235
4136,-0.245,-0.215
4137,-0.245,-0.215
4138,-0.235,-0.205
4139,-0.235,-0.215
4140,-0.235,-0.175
4141,-0.225,-0.215
4142,-0.215,-0.205
4143,-0.215,-0.255
4144,-0.235,-0.245
4145,-0.215,-0.205
4146,-0.225,-0.195
4147,-0.235,-0.225
4148,-0.235,-0.195
4149,-0.225,-0.185
4150,-0.195,-0.155
4151,-0.215,-0.215
4152,-0.205,-0.235
4153,-0.195,-0.165
4154,-0.195,-0.235
4155,-0.195,-0.215
4156,-0.185,-0.205
4157,-0.135,-0.185
4158,-0.095,-0.125
4159,-0.105,-0.095
4160,-0.085,-0.115
4161,-0.015,-0.125
4162,-0.005,-0.065
4163,-0.055,-0.175
4164,-0.055,-0.225
4165,-0.035,-0.215
4166,-0.095,-0.195
4167,-0.225,-0.185
4168,-0.255,-0.255
4169,-0.245,-0.275
4170,-0.255,-0.245
4171,-0.255,-0.285
4172,-0.275,-0.275
4173,-0.265,-0.245
4174,-0.245,-0.205
4175,-0.245,-0.235
4176,-0.235,-0.265
4177,-0.225,-0.245
4178,-0.195,-0.265
4179,-0.245,-0.295
4180,-0.415,-0.215
4181,-0.495,-0.065
4182,0.135,0.145
4183,1.475,0.095
4184,2.085,-0.005
4185,0.535,-0.525
4186,-1.075,-1.515
4187,-1.305,-1.995
4188,-0.885,-1.675
4189,-0.445,-1.035
4190,-0.245,-0.455
4191,-0.185,-0.175
4192,-0.145,-0.105
4193,-0.115,-0.045
4194,-0.115,-0.055
4195,-0.075,-0.005
4196,-0.065,0.025
4197,-0.065,0.045
4198,-0.025,0.075
4199,-0.005,0.155
4200,0.015,0.105
4201,0.055,0.005
4202,0.075,0.095
4203,0.125,0.125
4204,0.145,0.165
4205,0.165,0.165
4206,0.235,0.245
4207,0.295,0.305
4208,0.385,0.375
4209,0.485,0.455
4210,0.555,0.495
4211,0.625,0.555
4212,0.655,0.545
4213,0.665,0.505
4214,0.635,0.435
4215,0.555,0.365
4216,0.435,0.365
4217,0.295,0.185
4218,0.145,0.085
4219,0.015,0.025
4220,-0.085,-0.055
4221,-0.135,-0.065
4222,-0.145,-0.085
4223,-0.175,-0.155
4224,-0.195,-0.155
4225,-0.185,-0.135
4226,-0.195,-0.175
4227,-0.185,-0.145
4228,-0.185,-0.215
4229,-0.215,-0.205
4230,-0.175,-0.185
4231,-0.195,-0.135
4232,-0.205,-0.145
4233,-0.175,-0.175
4234,-0.185,-0.145
4235,-0.185,-0.125
4236,-0.195,-0.115
4237,-0.175,-0.115
4238,-0.165,-0.085
4239,-0.185,-0.115
4240,-0.175,-0.135
4241,-0.165,-0.135
4242,-0.135,-0.145
4243,-0.155,-0.125
4244,-0.145,-0.125
4245,-0.165,-0.195
4246,-0.165,-0.145
4247,-0.165,-0.115
4248,-0.165,-0.135
4249,-0.165,-0.105
4250,-0.125,-0.105
4251,-0.085,-0.085
4252,-0.075,-0.125
4253,-0.015,-0.065
4254,0.035,-0.055
4255,-0.005,-0.075
4256,-0.005,-0.135
4257,0.025,-0.125
4258,-0.055,-0.095
4259,-0.175,-0.095
4260,-0.205,-0.165
4261,-0.225,-0.155
4262,-0.225,-0.175
4263,-0.215,-0.205
4264,-0.235,-0.245
4265,-0.235,-0.185
4266,-0.225,-0.235
4267,-0.225,-0.195
4268,-0.225,-0.185
4269,-0.235,-0.165
4270,-0.215,-0.145
4271,-0.195,-0.135
4272,-0.325,-0.145
4273,-0.505,-0.065
4274,-0.155,0.235
4275,1.045,0.165
4276,2.135,0.025
4277,1.255,-0.225
4278,-0.735,-1.255
4279,-1.265,-1.935
4280,-1.145,-1.845
4281,-0.545,-1.275
4282,-0.285,-0.505
4283,-0.195,-0.095
4284,-0.175,-0.025
4285,-0.145,0.025
4286,-0.095,0.025
4287,-0.085,0.055
4288,-0.085,0.075
4289,-0.055,0.085
4290,-0.025,0.125
4291,-0.035,0.125
4292,-0.005,0.185
4293,0.005,0.165
4294,0.035,0.145
4295,0.065,0.195
4296,0.095,0.255
4297,0.115,0.305
4298,0.165,0.305
4299,0.235,0.365
4300,0.265,0.415
4301,0.375,0.505
4302,0.515,0.535
4303,0.525,0.575
4304,0.615,0.565
4305,0.665,0.585
4306,0.645,0.575
4307,0.595,0.525
4308,0.475,0.445
4309,0.325,0.345
4310,0.205,0.225
4311,0.095,0.125
4312,0.005,0.025
4313,-0.075,-0.015
4314,-0.145,-0.055
4315,-0.175,-0.065
4316,-0.185,-0.115
4317,-0.195,-0.165
4318,-0.175,-0.125
4319,-0.165,-0.195
4320,-0.175,-0.185
4321,-0.185,-0.145
4322,-0.165,-0.135
4323,-0.135,-0.145
4324,-0.175,-0.135
4325,-0.155,-0.145
4326,-0.185,-0.145
4327,-0.185,-0.115
4328,-0.165,-0.105
4329,-0.155,-0.105
4330,-0.155,-0.115
4331,-0.155,-0.125
4332,-0.165,-0.125
4333,-0.165,-0.115
4334,-0.145,-0.125
4335,-0.165,-0.115
4336,-0.165,-0.135
4337,-0.145,-0.125
4338,-0.155,-0.105
4339,-0.165,-0.135
4340,-0.175,-0.165
4341,-0.155,-0.155
4342,-0.075,-0.125
4343,-0.055,-0.075
4344,-0.065,-0.075
4345,-0.025,-0.055
4346,0.025,-0.025
4347,-0.015,-0.005
4348,-0.035,-0.105
4349,0.045,-0.145
4350,0.005,-0.115
4351,-0.125,-0.125
4352,-0.205,-0.185
4353,-0.205,-0.215
4354,-0.185,-0.205
4355,-0.245,-0.205
4356,-0.235,-0.215
4357,-0.225,-0.225
4358,-0.255,-0.175
4359,-0.225,-0.195
4360,-0.225,-0.195
4361,-0.195,-0.185
4362,-0.185,-0.185
4363,-0.215,-0.175
4364,-0.265,-0.215
4365,-0.495,-0.115
4366,-0.355,0.105
4367,0.695,0.225
4368,2.005,0.125
4369,1.835,-0.065
4370,-0.195,-1.035
4371,-1.225,-1.835
4372,-1.255,-2.045
4373,-0.635,-1.505
4374,-0.305,-0.775
4375,-0.205,-0.225
4376,-0.145,-0.065
4377,-0.105,0.035
4378,-0.115,0.045
4379,-0.105,0.025
4380,-0.095,0.055
4381,-0.075,0.075
4382,-0.045,0.125
4383,-0.005,0.135
4384,0.025,0.145
4385,0.015,0.145
4386,0.035,0.115
4387,0.065,0.155
4388,0.105,0.215
4389,0.145,0.255
4390,0.175,0.295
4391,0.245,0.355
4392,0.315,0.395
4393,0.415,0.455
4394,0.465,0.525
4395,0.515,0.575
4396,0.585,0.605
4397,0.615,0.635
4398,0.635,0.645
4399,0.605,0.585
4400,0.535,0.485
4401,0.405,0.365
4402,0.245,0.265
4403,0.095,0.155
4404,-0.005,0.025
4405,-0.105,-0.035
4406,-0.145,-0.085
4407,-0.175,-0.115
4408,-0.195,-0.135
4409,-0.195,-0.135
4410,-0.195,-0.145
4411,-0.205,-0.165
4412,-0.205,-0.155
4413,-0.235,-0.165
4414,-0.215,-0.165
4415,-0.215,-0.165
4416,-0.195,-0.155
4417,-0.205,-0.125
4418,-0.225,-0.135
4419,-0.195,-0.165
4420,-0.205,-0.145
4421,-0.185,-0.145
4422,-0.205,-0.125
4423,-0.195,-0.135
4424,-0.195,-0.145
4425,-0.155,-0.125
4426,-0.155,-0.115
4427,-0.185,-0.135
4428,-0.205,-0.145
4429,-0.165,-0.145
4430,-0.175,-0.135
4431,-0.195,-0.145
4432,-0.185,-0.135
4433,-0.165,-0.165
4434,-0.165,-0.225
4435,-0.125,-0.195
4436,-0.075,-0.125
4437,-0.065,-0.085
4438,-0.025,-0.085
4439,0.025,-0.075
4440,0.005,-0.055
4441,-0.025,-0.095
4442,0.015,-0.145
4443,-0.005,-0.145
4444,-0.105,-0.135
4445,-0.215,-0.175
4446,-0.245,-0.225
4447,-0.245,-0.215
4448,-0.265,-0.245
4449,-0.255,-0.225
4450,-0.235,-0.225
4451,-0.255,-0.205
4452,-0.245,-0.215
4453,-0.245,-0.255
4454,-0.235,-0.225
4455,-0.235,-0.235
4456,-0.225,-0.225
4457,-0.255,-0.215
4458,-0.505,-0.155
4459,-0.395,0.055
4460,0.535,0.185
4461,1.895,0.165
4462,1.845,-0.045
4463,-0.025,-0.975
4464,-1.265,-1.845
4465,-1.335,-2.185
4466,-0.645,-1.695
4467,-0.325,-0.875
4468,-0.225,-0.265
4469,-0.165,-0.045
4470,-0.115,-0.015
4471,-0.105,-0.015
4472,-0.085,0.025
4473,-0.065,0.045
4474,-0.045,0.085
4475,-0.045,0.095
4476,-0.015,0.105
4477,0.015,0.135
4478,0.035,0.125
4479,0.035,0.125
4480,0.065,0.175
4481,0.125,0.215
4482,0.135,0.255
4483,0.185,0.285
4484,0.225,0.335
4485,0.285,0.395
4486,0.385,0.455
4487,0.475,0.515
4488,0.525,0.565
4489,0.575,0.605
4490,0.645,0.635
4491,0.675,0.655
4492,0.645,0.635
4493,0.615,0.565
4494,0.465,0.445
4495,0.295,0.295
4496,0.135,0.155
4497,0.035,0.045
4498,-0.025,-0.035
4499,-0.095,-0.095
4500,-0.185,-0.125
4501,-0.165,-0.145
4502,-0.155,-0.165
4503,-0.185,-0.155
4504,-0.195,-0.185
4505,-0.225,-0.175
4506,-0.205,-0.185
4507,-0.215,-0.185
4508,-0.225,-0.185
4509,-0.185,-0.155
4510,-0.185,-0.145
4511,-0.225,-0.195
4512,-0.225,-0.205
4513,-0.165,-0.175
4514,-0.185,-0.155
4515,-0.175,-0.155
4516,-0.175,-0.165
4517,-0.175,-0.145
4518,-0.195,-0.135
4519,-0.165,-0.165
4520,-0.205,-0.155
4521,-0.215,-0.145
4522,-0.175,-0.185
4523,-0.185,-0.195
4524,-0.155,-0.185
4525,-0.155,-0.175
4526,-0.185,-0.185
4527,-0.185,-0.235
4528,-0.185,-0.195
4529,-0.095,-0.185
4530,-0.055,-0.125
4531,-0.075,-0.095
4532,-0.015,-0.095
4533,0.015,-0.065
4534,0.015,-0.055
4535,-0.015,-0.145
4536,0.035,-0.195
4537,-0.005,-0.155
4538,-0.175,-0.155
4539,-0.225,-0.215
4540,-0.255,-0.235
4541,-0.215,-0.245
4542,-0.245,-0.235
4543,-0.235,-0.225
4544,-0.255,-0.265
4545,-0.225,-0.245
4546,-0.275,-0.235
4547,-0.255,-0.245
4548,-0.235,-0.245
4549,-0.245,-0.255
4550,-0.205,-0.225
4551,-0.355,-0.225
4552,-0.545,-0.125
4553,-0.075,0.125
4554,1.415,0.165
4555,1.975,0.015
4556,0.545,-0.755
4557,-1.055,-1.715
4558,-1.325,-2.215
4559,-0.825,-1.935
4560,-0.335,-1.255
4561,-0.165,-0.445
4562,-0.135,-0.125
4563,-0.105,-0.065
4564,-0.135,-0.015
4565,-0.115,0.035
4566,-0.055,0.055
4567,-0.075,0.085
4568,-0.045,0.095
4569,-0.035,0.105
4570,-0.005,0.125
4571,0.025,0.155
4572,0.005,0.175
4573,0.075,0.205
4574,0.095,0.215
4575,0.125,0.245
4576,0.155,0.275
4577,0.195,0.335
4578,0.265,0.365
4579,0.325,0.425
4580,0.415,0.505
4581,0.505,0.565
4582,0.545,0.625
4583,0.555,0.655
4584,0.585,0.675
4585,0.645,0.665
4586,0.645,0.635
4587,0.565,0.555
4588,0.405,0.445
4589,0.255,0.355
4590,0.155,0.205
4591,0.065,0.065
4592,-0.035,-0.025
4593,-0.105,-0.075
4594,-0.175,-0.105
4595,-0.205,-0.125
4596,-0.195,-0.155
4597,-0.165,-0.115
4598,-0.215,-0.115
4599,-0.205,-0.165
4600,-0.185,-0.155
4601,-0.205,-0.145
4602,-0.195,-0.185
4603,-0.195,-0.165
4604,-0.195,-0.165
4605,-0.205,-0.135
4606,-0.185,-0.135
4607,-0.195,-0.125
4608,-0.205,-0.115
4609,-0.185,-0.115
4610,-0.175,-0.125
4611,-0.185,-0.115
4612,-0.185,-0.145
4613,-0.185,-0.165
4614,-0.205,-0.135
4615,-0.205,-0.135
4616,-0.205,-0.115
4617,-0.185,-0.135
4618,-0.225,-0.135
4619,-0.205,-0.175
4620,-0.215,-0.185
4621,-0.215,-0.155
4622,-0.195,-0.175
4623,-0.195,-0.185
4624,-0.235,-0.235
4625,-0.145,-0.185
4626,-0.065,-0.135
4627,-0.105,-0.065
4628,-0.095,-0.085
4629,-0.015,-0.075
4630,0.015,-0.005
4631,-0.025,-0.065
4632,-0.035,-0.145
4633,-0.045,-0.085
4634,-0.125,-0.155
4635,-0.265,-0.195
4636,-0.265,-0.235
4637,-0.295,-0.235
4638,-0.265,-0.205
4639,-0.245,-0.225
4640,-0.265,-0.195
4641,-0.255,-0.245
4642,-0.255,-0.195
4643,-0.235,-0.205
4644,-0.275,-0.215
4645,-0.235,-0.195
4646,-0.225,-0.155
4647,-0.275,-0.225
4648,-0.485,-0.175
4649,-0.545,-0.015
4650,0.165,0.175
4651,1.535,0.115
4652,1.685,-0.065
4653,0.155,-0.975
4654,-1.045,-1.895
4655,-1.195,-2.185
4656,-0.645,-1.805
4657,-0.315,-1.005
4658,-0.185,-0.275
4659,-0.155,-0.025
4660,-0.165,-0.045
4661,-0.115,0.015
4662,-0.105,0.045
4663,-0.115,0.105
4664,-0.075,0.085
4665,-0.075,0.165
4666,-0.075,0.105
4667,-0.015,0.105
4668,0.005,0.175
4669,-0.015,0.205
4670,0.075,0.235
4671,0.115,0.275
4672,0.095,0.275
4673,0.155,0.315
4674,0.165,0.445
4675,0.245,0.435
4676,0.365,0.455
4677,0.445,0.515
4678,0.495,0.545
4679,0.545,0.655
4680,0.565,0.615
4681,0.585,0.745
4682,0.605,0.625
4683,0.515,0.625
4684,0.465,0.485
4685,0.265,0.265
4686,0.115,0.215
4687,0.005,0.115
4688,-0.095,0.095
4689,-0.115,0.055
4690,-0.125,-0.085
4691,-0.165,-0.275
4692,-0.215,-0.165
4693,-0.225,-0.105
4694,-0.255,-0.205
4695,-0.265,-0.125
4696,-0.305,-0.155
4697,-0.305,-0.135
4698,-0.285,-0.085
4699,-0.265,-0.115
4700,-0.275,-0.135
4701,-0.245,-0.185
4702,-0.245,-0.155
4703,-0.245,-0.145
4704,-0.275,-0.145
4705,-0.295,-0.055
4706,-0.235,-0.095
4707,-0.235,-0.155
4708,-0.285,-0.155
4709,-0.265,-0.035
4710,-0.225,-0.155
4711,-0.215,-0.145
4712,-0.245,-0.205
4713,-0.255,-0.135
4714,-0.295,-0.145
4715,-0.285,-0.255
4716,-0.225,-0.165
4717,-0.195,-0.225
4718,-0.215,-0.195
4719,-0.265,-0.205
4720,-0.225,-0.195
4721,-0.195,-0.185
4722,-0.095,-0.135
4723,-0.105,-0.035
4724,-0.075,-0.105
4725,-0.035,-0.105
4726,-0.035,-0.025
4727,-0.025,-0.085
4728,-0.035,-0.195
4729,-0.055,-0.115
4730,-0.215,-0.145
4731,-0.275,-0.235
4732,-0.275,-0.205
4733,-0.275,-0.285
4734,-0.275,-0.285
4735,-0.295,-0.245
4736,-0.335,-0.205
4737,-0.295,-0.225
4738,-0.225,-0.215
4739,-0.325,-0.185
4740,-0.285,-0.245
4741,-0.275,-0.245
4742,-0.255,-0.255
4743,-0.435,-0.195
4744,-0.595,-0.115
4745,-0.215,0.155
4746,0.915,0.095
4747,1.615,0.065
4748,0.455,-0.475
4749,-0.875,-1.665
4750,-1.195,-2.105
4751,-1.025,-1.945
4752,-0.515,-1.415
4753,-0.305,-0.615
4754,-0.185,-0.125
4755,-0.135,-0.035
4756,-0.135,-0.045
4757,-0.165,0.025
4758,-0.115,0.045
4759,-0.125,0.105
4760,-0.105,0.095
4761,-0.065,0.085
4762,-0.035,0.175
4763,-0.015,0.115
4764,0.015,0.145
4765,0.035,0.165
4766,0.055,0.235
4767,0.085,0.265
4768,0.145,0.235
4769,0.215,0.325
4770,0.255,0.285
4771,0.285,0.365
4772,0.375,0.485
4773,0.425,0.565
4774,0.535,0.555
4775,0.535,0.545
4776,0.565,0.575
4777,0.595,0.615
4778,0.575,0.515
4779,0.505,0.415
4780,0.345,0.355
4781,0.235,0.265
4782,0.135,0.235
4783,0.025,0.045
4784,-0.055,-0.055
4785,-0.075,-0.105
4786,-0.135,-0.095
4787,-0.165,-0.175
4788,-0.155,-0.135
4789,-0.145,-0.125
4790,-0.145,-0.205
4791,-0.155,-0.195
4792,-0.165,-0.185
4793,-0.145,-0.145
4794,-0.135,-0.135
4795,-0.145,-0.125
4796,-0.125,-0.125
4797,-0.155,-0.125
4798,-0.125,-0.125
4799,-0.145,-0.085
4800,-0.115,-0.145
4801,-0.085,-0.105
4802,-0.165,-0.085
4803,-0.165,-0.125
4804,-0.075,-0.095
4805,-0.085,-0.205
4806,-0.095,-0.135
4807,-0.085,-0.165
4808,-0.135,-0.205
4809,-0.075,-0.065
4810,-0.075,-0.165
4811,-0.015,-0.185
4812,0.005,-0.115
4813,0.015,-0.095
4814,0.055,-0.025
4815,0.095,-0.055
4816,0.125,-0.055
4817,0.085,-0.125
4818,0.125,-0.195
4819,0.025,-0.125
4820,-0.075,-0.125
4821,-0.115,-0.145
4822,-0.105,-0.235
4823,-0.105,-0.265
4824,-0.135,-0.225
4825,-0.095,-0.175
4826,-0.105,-0.255
4827,-0.135,-0.215
4828,-0.125,-0.235
4829,-0.135,-0.255
4830,-0.105,-0.215
4831,-0.125,-0.195
4832,-0.085,-0.185
4833,-0.165,-0.165
4834,-0.385,-0.115
4835,-0.235,0.125
4836,0.495,0.155
4837,1.595,0.085
4838,1.415,-0.025
4839,-0.075,-1.105
4840,-0.835,-2.065
4841,-0.855,-2.205
4842,-0.385,-1.715
4843,-0.135,-0.925
4844,-0.055,-0.265
4845,-0.035,-0.065
4846,0.025,0.025
4847,0.025,0.045
4848,0.025,0.115
4849,0.055,0.075
4850,0.085,0.075
4851,0.125,0.145
4852,0.105,0.105
4853,0.135,0.125
4854,0.165,0.265
4855,0.205,0.145
4856,0.225,0.175
4857,0.245,0.245
4858,0.285,0.295
4859,0.345,0.325
4860,0.405,0.395
4861,0.475,0.445
4862,0.515,0.495
4863,0.595,0.565
4864,0.655,0.585
4865,0.725,0.685
4866,0.725,0.595
4867,0.735,0.585
4868,0.735,0.605
4869,0.705,0.545
4870,0.595,0.475
4871,0.455,0.335
4872,0.335,0.175
4873,0.255,0.085
4874,0.135,0.025
4875,0.075,-0.005
4876,0.025,-0.015
4877,0.025,-0.175
4878,0.005,-0.175
4879,0.005,-0.145
4880,-0.015,-0.175
4881,-0.005,-0.065
4882,-0.005,-0.195
4883,-0.065,-0.195
4884,-0.035,-0.165
4885,0.005,-0.055
4886,0.025,-0.145
4887,-0.005,-0.105
4888,-0.005,-0.185
4889,-0.005,-0.175
4890,0.015,-0.125
4891,0.005,-0.175
4892,-0.025,-0.165
4893,0.025,-0.145
4894,-0.015,-0.125
4895,-0.055,-0.175
4896,0.005,-0.185
4897,0.015,-0.105
4898,0.005,-0.175
4899,-0.015,-0.205
4900,-0.045,-0.175
4901,0.005,-0.145
4902,0.085,-0.065
4903,0.045,-0.055
4904,0.125,-0.095
4905,0.155,-0.035
4906,0.145,-0.145
4907,0.155,-0.185
4908,0.115,-0.145
4909,0.085,-0.105
4910,-0.095,-0.115
4911,-0.045,-0.195
4912,-0.035,-0.165
4913,-0.065,-0.255
4914,-0.045,-0.255
4915,-0.075,-0.235
4916,-0.125,-0.215
4917,-0.105,-0.215
4918,-0.095,-0.185
4919,-0.105,-0.165
4920,-0.125,-0.145
4921,-0.055,-0.285
4922,-0.075,-0.255
4923,-0.195,-0.215
4924,-0.395,-0.105
4925,0.035,0.125
4926,1.095,0.125
4927,1.675,0.225
4928,0.645,-0.275
4929,-0.365,-1.545
4930,-0.645,-2.105
4931,-0.615,-1.975
4932,-0.285,-1.415
4933,-0.125,-0.705
4934,-0.035,-0.265
4935,-0.035,-0.045
4936,-0.015,-0.005
4937,0.005,0.035
4938,0.025,0.045
4939,0.035,0.095
4940,0.045,0.085
4941,0.015,0.145
4942,0.045,0.135
4943,0.055,0.125
4944,0.125,0.115
4945,0.205,0.195
4946,0.205,0.145
4947,0.215,0.185
4948,0.195,0.245
4949,0.225,0.335
4950,0.315,0.425
4951,0.335,0.415
4952,0.455,0.455
4953,0.505,0.635
4954,0.565,0.655
4955,0.555,0.595
4956,0.505,0.535
4957,0.625,0.535
4958,0.615,0.605
4959,0.595,0.465
4960,0.455,0.375
4961,0.315,0.305
4962,0.215,0.065
4963,0.105,-0.015
4964,0.015,-0.055
4965,-0.085,-0.095
4966,-0.125,-0.115
4967,-0.055,-0.155
4968,-0.105,-0.125
4969,-0.105,-0.195
4970,-0.125,-0.195
4971,-0.105,-0.155
4972,-0.145,-0.255
4973,-0.135,-0.225
4974,-0.145,-0.085
4975,-0.065,-0.185
4976,-0.105,-0.215
4977,-0.105,-0.155
4978,-0.095,-0.215
4979,-0.065,-0.185
4980,-0.055,-0.165
4981,-0.085,-0.185
4982,-0.135,-0.175
4983,-0.105,-0.105
4984,-0.125,-0.155
4985,-0.125,-0.135
4986,-0.125,-0.195
4987,-0.115,-0.165
4988,-0.115,-0.275
4989,-0.085,-0.215
4990,-0.035,-0.095
4991,-0.065,-0.095
4992,-0.085,-0.145
4993,0.055,-0.085
4994,0.065,-0.025
4995,0.035,-0.045
4996,0.015,-0.235
4997,-0.025,-0.095
4998,-0.105,-0.165
4999,-0.235,-0.265
5000,-0.215,-0.265
5001,-0.215,-0.235
5002,-0.285,-0.255
5003,-0.245,-0.215
5004,-0.245,-0.185
5005,-0.245,-0.155
5006,-0.215,-0.285
5007,-0.245,-0.245
5008,-0.245,-0.215
5009,-0.235,-0.245
5010,-0.195,-0.225
5011,-0.295,-0.225
5012,-0.515,-0.155
5013,-0.385,0.025
5014,0.515,0.125
5015,1.465,0.215
5016,0.955,0.005
5017,-0.245,-1.105
5018,-0.805,-1.975
5019,-0.865,-2.135
5020,-0.585,-1.825
5021,-0.285,-1.155
5022,-0.165,-0.455
5023,-0.135,-0.135
5024,-0.115,-0.005
5025,-0.085,0.035
5026,-0.085,0.125
5027,-0.065,0.135
5028,-0.055,0.145
5029,-0.005,0.105
5030,0.015,0.075
5031,0.025,0.085
5032,0.035,0.135
5033,0.045,0.165
5034,0.045,0.175
5035,0.115,0.325
5036,0.105,0.265
5037,0.215,0.295
5038,0.255,0.405
5039,0.295,0.405
5040,0.375,0.485
5041,0.415,0.555
5042,0.485,0.555
5043,0.505,0.595
5044,0.535,0.635
5045,0.535,0.585
5046,0.545,0.565
5047,0.475,0.495
5048,0.375,0.425
5049,0.265,0.345
5050,0.145,0.195
5051,0.015,0.035
5052,-0.055,-0.045
5053,-0.105,-0.065
5054,-0.155,-0.165
5055,-0.145,-0.145
5056,-0.175,-0.155
5057,-0.165,-0.185
5058,-0.235,-0.155
5059,-0.165,-0.165
5060,-0.165,-0.155
5061,-0.165,-0.195
5062,-0.175,-0.155
5063,-0.195,-0.145
5064,-0.165,-0.135
5065,-0.125,-0.145
5066,-0.155,-0.125
5067,-0.175,-0.145
5068,-0.155,-0.135
5069,-0.155,-0.135
5070,-0.175,-0.115
5071,-0.185,-0.175
5072,-0.175,-0.185
5073,-0.195,-0.165
5074,-0.195,-0.135
5075,-0.135,-0.145
5076,-0.115,-0.115
5077,-0.105,-0.075
5078,-0.075,-0.065
5079,-0.015,-0.065
5080,-0.015,-0.025
5081,-0.075,-0.105
5082,-0.035,-0.175
5083,-0.095,-0.135
5084,-0.185,-0.165
5085,-0.275,-0.155
5086,-0.265,-0.225
5087,-0.295,-0.195
5088,-0.305,-0.265
5089,-0.295,-0.245
5090,-0.315,-0.255
5091,-0.345,-0.255
5092,-0.335,-0.195
5093,-0.365,-0.175
5094,-0.345,-0.255
5095,-0.315,-0.265
5096,-0.225,-0.195
5097,-0.195,-0.185
5098,-0.565,-0.245
5099,-0.595,-0.095
5100,0.075,0.075
5101,1.295,0.065
5102,1.405,0.055
5103,0.145,-0.595
5104,-0.845,-1.715
5105,-0.975,-2.035
5106,-0.745,-1.785
5107,-0.385,-1.155
5108,-0.215,-0.565
5109,-0.155,-0.205
5110,-0.125,-0.075
5111,-0.145,-0.075
5112,-0.135,-0.045
5113,-0.115,-0.005
5114,-0.095,0.025
5115,-0.085,0.055
5116,-0.075,0.055
5117,-0.065,0.065
5118,-0.025,0.105
5119,0.005,0.195
5120,-0.005,0.125
5121,0.025,0.145
5122,0.065,0.205
5123,0.175,0.255
5124,0.205,0.305
5125,0.255,0.425
5126,0.325,0.485
5127,0.435,0.455
5128,0.325,0.435
5129,0.485,0.455
5130,0.535,0.595
5131,0.505,0.535
5132,0.465,0.395
5133,0.485,0.385
5134,0.385,0.385
5135,0.225,0.295
5136,0.155,0.185
5137,0.055,0.075
5138,-0.065,-0.015
5139,-0.135,-0.045
5140,-0.195,-0.105
5141,-0.185,-0.125
5142,-0.205,-0.195
5143,-0.225,-0.165
5144,-0.205,-0.185
5145,-0.215,-0.145
5146,-0.235,-0.135
5147,-0.195,-0.235
5148,-0.235,-0.245
5149,-0.225,-0.185
5150,-0.245,-0.175
5151,-0.205,-0.125
5152,-0.245,-0.125
5153,-0.205,-0.075
5154,-0.225,-0.095
5155,-0.225,-0.225
5156,-0.225,-0.005
5157,-0.225,-0.155
5158,-0.225,-0.225
5159,-0.185,-0.135
5160,-0.165,-0.115
5161,-0.165,-0.055
5162,-0.135,-0.025
5163,-0.075,-0.015
5164,-0.085,-0.005
5165,-0.085,-0.035
5166,-0.115,-0.135
5167,-0.075,-0.045
5168,-0.105,-0.025
5169,-0.205,-0.235
5170,-0.305,-0.195
5171,-0.285,-0.155
5172,-0.275,-0.175
5173,-0.295,-0.255
5174,-0.325,-0.185
5175,-0.345,-0.065
5176,-0.305,-0.155
5177,-0.295,-0.185
5178,-0.275,-0.225
5179,-0.255,-0.145
5180,-0.265,-0.265
5181,-0.215,-0.165
5182,-0.365,-0.135
5183,-0.565,-0.055
5184,-0.255,0.105
5185,0.835,0.185
5186,1.715,0.145
5187,0.735,-0.235
5188,-0.655,-1.505
5189,-1.065,-2.135
5190,-0.935,-1.945
5191,-0.425,-1.325
5192,-0.295,-0.565
5193,-0.215,-0.195
5194,-0.205,0.025
5195,-0.135,-0.005
5196,-0.165,0.055
5197,-0.155,0.065
5198,-0.185,0.185
5199,-0.105,0.255
5200,-0.125,0.065
5201,-0.085,0.105
5202,-0.045,0.235
5203,0.005,0.185
5204,-0.005,0.225
5205,-0.005,0.245
5206,0.055,0.285
5207,0.055,0.315
5208,0.145,0.395
5209,0.175,0.405
5210,0.305,0.475
5211,0.315,0.555
5212,0.375,0.615
5213,0.485,0.565
5214,0.515,0.635
5215,0.515,0.685
5216,0.475,0.645
5217,0.485,0.625
5218,0.375,0.555
5219,0.295,0.355
5220,0.175,0.295
5221,0.075,0.155
5222,-0.045,0.065
5223,-0.165,-0.085
5224,-0.185,-0.075
5225,-0.205,-0.085
5226,-0.235,-0.105
5227,-0.235,-0.155
5228,-0.245,-0.175
5229,-0.245,-0.115
5230,-0.255,-0.115
5231,-0.245,-0.115
5232,-0.165,-0.195
5233,-0.225,-0.185
5234,-0.215,-0.135
5235,-0.235,-0.185
5236,-0.195,-0.155
5237,-0.195,-0.135
5238,-0.195,-0.185
5239,-0.205,-0.115
5240,-0.165,-0.005
5241,-0.215,-0.215
5242,-0.125,-0.085
5243,-0.095,-0.065
5244,-0.075,-0.085
5245,-0.095,-0.065
5246,-0.015,-0.015
5247,-0.005,0.095
5248,-0.045,-0.085
5249,-0.025,-0.175
5250,-0.015,-0.145
5251,-0.095,-0.135
5252,-0.215,-0.095
5253,-0.275,-0.115
5254,-0.295,-0.165
5255,-0.255,-0.165
5256,-0.275,-0.255
5257,-0.275,-0.215
5258,-0.295,-0.155
5259,-0.305,-0.225
5260,-0.265,-0.185
5261,-0.255,-0.165
5262,-0.285,-0.135
5263,-0.255,-0.165
5264,-0.245,-0.215
5265,-0.395,-0.135
5266,-0.625,-0.025
5267,-0.195,0.085
5268,0.955,0.115
5269,1.735,0.145
5270,0.615,-0.475
5271,-0.645,-1.745
5272,-0.995,-2.205
5273,-0.795,-1.925
5274,-0.385,-1.255
5275,-0.235,-0.525
5276,-0.175,-0.155
5277,-0.135,-0.035
5278,-0.135,0.055
5279,-0.155,0.115
5280,-0.135,0.125
5281,-0.085,0.135
5282,-0.095,0.145
5283,-0.095,0.115
5284,-0.025,0.135
5285,-0.025,0.225
5286,-0.015,0.195
5287,0.035,0.225
5288,0.025,0.265
5289,0.095,0.265
5290,0.145,0.435
5291,0.185,0.395
5292,0.185,0.425
5293,0.295,0.555
5294,0.385,0.575
5295,0.445,0.555
5296,0.475,0.595
5297,0.455,0.675
5298,0.535,0.675
5299,0.505,0.625
5300,0.455,0.555
5301,0.345,0.455
5302,0.215,0.385
5303,0.095,0.265
5304,-0.015,0.105
5305,-0.065,-0.025
5306,-0.115,-0.105
5307,-0.195,-0.075
5308,-0.205,-0.115
5309,-0.225,-0.165
5310,-0.215,-0.155
5311,-0.225,-0.155
5312,-0.185,-0.135
5313,-0.165,-0.135
5314,-0.215,-0.155
5315,-0.235,-0.165
5316,-0.205,-0.105
5317,-0.165,-0.145
5318,-0.175,-0.175
5319,-0.185,-0.115
5320,-0.165,-0.125
5321,-0.185,-0.125
5322,-0.215,-0.125
5323,-0.165,-0.105
5324,-0.185,-0.085
5325,-0.155,-0.115
5326,-0.035,-0.105
5327,-0.065,-0.075
5328,-0.025,-0.065
5329,0.025,-0.005
5330,0.065,-0.005
5331,0.015,-0.055
5332,-0.035,-0.135
5333,-0.025,-0.125
5334,-0.035,-0.065
5335,-0.135,-0.115
5336,-0.245,-0.195
5337,-0.265,-0.195
5338,-0.235,-0.185
5339,-0.245,-0.185
5340,-0.305,-0.205
5341,-0.305,-0.205
5342,-0.255,-0.225
5343,-0.245,-0.265
5344,-0.285,-0.245
5345,-0.255,-0.215
5346,-0.245,-0.195
5347,-0.265,-0.215
5348,-0.335,-0.175
5349,-0.575,-0.095
5350,-0.345,0.065
5351,0.605,0.105
5352,1.595,0.165
5353,1.035,-0.265
5354,-0.345,-1.575
5355,-0.925,-2.165
5356,-0.905,-2.085
5357,-0.435,-1.555
5358,-0.255,-0.615
5359,-0.205,-0.265
5360,-0.195,-0.015
5361,-0.135,0.045
5362,-0.125,0.065
5363,-0.125,0.035
5364,-0.115,0.075
5365,-0.095,0.185
5366,-0.045,0.125
5367,-0.105,0.135
5368,-0.045,0.195
5369,-0.025,0.335
5370,0.005,0.185
5371,0.055,0.175
5372,0.095,0.285
5373,0.035,0.345
5374,0.125,0.465
5375,0.205,0.455
5376,0.255,0.445
5377,0.295,0.525
5378,0.385,0.595
5379,0.445,0.605
5380,0.495,0.695
5381,0.515,0.635
5382,0.515,0.665
5383,0.425,0.525
5384,0.395,0.455
5385,0.295,0.375
5386,0.145,0.275
5387,0.035,0.135
5388,-0.065,0.025
5389,-0.135,-0.005
5390,-0.145,0.005
5391,-0.195,-0.115
5392,-0.225,-0.215
5393,-0.235,-0.105
5394,-0.185,-0.175
5395,-0.165,-0.215
5396,-0.205,-0.235
5397,-0.225,-0.265
5398,-0.175,-0.145
5399,-0.195,-0.205
5400,-0.165,-0.185
5401,-0.195,-0.145
5402,-0.205,-0.145
5403,-0.165,-0.225
5404,-0.195,-0.155
5405,-0.155,-0.105
5406,-0.195,-0.175
5407,-0.225,-0.205
5408,-0.155,-0.115
5409,-0.055,-0.155
5410,-0.085,-0.125
5411,-0.075,-0.025
5412,-0.005,-0.045
5413,0.045,-0.035
5414,0.005,-0.085
5415,-0.045,-0.125
5416,-0.015,-0.245
5417,-0.035,-0.125
5418,-0.135,-0.145
5419,-0.275,-0.145
5420,-0.245,-0.205
5421,-0.235,-0.255
5422,-0.265,-0.185
5423,-0.285,-0.225
5424,-0.285,-0.275
5425,-0.245,-0.205
5426,-0.205,-0.245
5427,-0.235,-0.225
5428,-0.265,-0.245
5429,-0.245,-0.175
5430,-0.225,-0.225
5431,-0.275,-0.255
5432,-0.605,-0.155
5433,-0.515,0.025
5434,0.125,0.045
5435,1.255,0.105
5436,1.525,0.125
5437,0.365,-0.905
5438,-0.535,-1.955
5439,-0.795,-2.255
5440,-0.715,-1.955
5441,-0.375,-1.365
5442,-0.205,-0.525
5443,-0.185,-0.145
5444,-0.165,-0.055
5445,-0.165,0.025
5446,-0.145,0.055
5447,-0.175,0.105
5448,-0.145,0.065
5449,-0.095,0.105
5450,-0.055,0.125
5451,-0.095,0.155
5452,-0.025,0.145
5453,-0.015,0.135
5454,-0.015,0.205
5455,0.035,0.215
5456,0.085,0.345
5457,0.085,0.275
5458,0.175,0.415
5459,0.205,0.405
5460,0.275,0.485
5461,0.315,0.565
5462,0.385,0.635
5463,0.455,0.645
5464,0.495,0.685
5465,0.475,0.705
5466,0.495,0.535
5467,0.405,0.535
5468,0.325,0.345
5469,0.235,0.335
5470,0.095,0.185
5471,-0.015,0.025
5472,-0.085,-0.005
5473,-0.165,-0.105
5474,-0.195,-0.155
5475,-0.235,-0.165
5476,-0.205,-0.175
5477,-0.245,-0.205
5478,-0.265,-0.225
5479,-0.235,-0.205
5480,-0.225,-0.245
5481,-0.245,-0.185
5482,-0.205,-0.185
5483,-0.255,-0.255
5484,-0.255,-0.235
5485,-0.205,-0.245
5486,-0.225,-0.175
5487,-0.205,-0.235
5488,-0.235,-0.205
5489,-0.185,-0.215
5490,-0.185,-0.205
5491,-0.215,-0.175
5492,-0.215,-0.165
5493,-0.145,-0.045
5494,-0.135,-0.165
5495,-0.085,-0.155
5496,-0.055,-0.135
5497,-0.005,-0.125
5498,-0.035,-0.055
5499,-0.115,-0.115
5500,-0.025,-0.185
5501,-0.025,-0.215
5502,-0.175,-0.175
5503,-0.285,-0.165
5504,-0.295,-0.295
5505,-0.225,-0.325
5506,-0.295,-0.295
5507,-0.315,-0.245
5508,-0.295,-0.215
5509,-0.255,-0.205
5510,-0.305,-0.265
5511,-0.315,-0.315
5512,-0.295,-0.245
5513,-0.265,-0.225
5514,-0.255,-0.235
5515,-0.365,-0.285
5516,-0.575,-0.155
5517,-0.345,-0.005
5518,0.685,0.045
5519,1.515,0.085
5520,0.685,-0.375
5521,-0.445,-1.725
5522,-0.795,-2.255
5523,-0.805,-2.195
5524,-0.375,-1.685
5525,-0.265,-0.785
5526,-0.215,-0.315
5527,-0.205,-0.115
5528,-0.185,-0.035
5529,-0.145,-0.005
5530,-0.125,0.045
5531,-0.135,0.145
5532,-0.125,0.115
5533,-0.075,0.075
5534,-0.045,0.075
5535,-0.065,0.145
5536,-0.055,0.155
5537,-0.005,0.225
5538,0.045,0.275
5539,-0.005,0.205
5540,0.135,0.325
5541,0.135,0.315
5542,0.215,0.405
5543,0.285,0.475
5544,0.345,0.535
5545,0.395,0.615
5546,0.445,0.625
5547,0.495,0.625
5548,0.495,0.665
5549,0.495,0.565
5550,0.435,0.525
5551,0.365,0.445
5552,0.315,0.345
5553,0.135,0.215
5554,0.025,0.105
5555,-0.055,0.045
5556,-0.145,-0.115
5557,-0.145,-0.135
5558,-0.205,-0.215
5559,-0.215,-0.185
5560,-0.185,-0.175
5561,-0.205,-0.105
5562,-0.245,-0.155
5563,-0.235,-0.185
5564,-0.195,-0.195
5565,-0.185,-0.225
5566,-0.205,-0.265
5567,-0.205,-0.215
5568,-0.215,-0.195
5569,-0.215,-0.195
5570,-0.205,-0.165
5571,-0.185,-0.125
5572,-0.185,-0.115
5573,-0.155,-0.175
5574,-0.145,-0.225
5575,-0.165,-0.245
5576,-0.185,-0.185
5577,-0.185,-0.185
5578,-0.135,-0.165
5579,-0.105,-0.125
5580,-0.115,-0.025
5581,-0.035,-0.065
5582,0.015,-0.035
5583,0.025,-0.075
5584,-0.035,-0.195
5585,-0.055,-0.205
5586,-0.045,-0.195
5587,-0.115,-0.135
5588,-0.215,-0.215
5589,-0.275,-0.245
5590,-0.265,-0.185
5591,-0.275,-0.215
5592,-0.285,-0.275
5593,-0.285,-0.235
5594,-0.275,-0.215
5595,-0.265,-0.285
5596,-0.285,-0.185
5597,-0.275,-0.245
5598,-0.285,-0.235
5599,-0.255,-0.245
5600,-0.325,-0.175
5601,-0.525,-0.145
5602,-0.495,-0.045
5603,0.165,-0.005
5604,1.345,0.145
5605,1.395,-0.125
5606,0.125,-1.315
5607,-0.615,-2.055
5608,-0.865,-2.235
5609,-0.575,-1.845
5610,-0.295,-1.125
5611,-0.185,-0.435
5612,-0.195,-0.185
5613,-0.185,-0.025
5614,-0.145,0.075
5615,-0.125,0.025
5616,-0.145,-0.015
5617,-0.125,0.075
5618,-0.105,0.105
5619,-0.075,0.135
5620,-0.065,0.175
5621,-0.025,0.205
5622,0.025,0.225
5623,0.025,0.185
5624,0.045,0.215
5625,0.095,0.305
5626,0.155,0.345
5627,0.225,0.345
5628,0.245,0.375
5629,0.305,0.475
5630,0.395,0.515
5631,0.455,0.605
5632,0.525,0.635
5633,0.545,0.575
5634,0.545,0.615
5635,0.515,0.535
5636,0.465,0.425
5637,0.315,0.355
5638,0.205,0.235
5639,0.085,0.135
5640,-0.055,0.035
5641,-0.095,0.025
5642,-0.135,-0.055
5643,-0.175,-0.125
5644,-0.195,-0.105
5645,-0.215,-0.215
5646,-0.215,-0.195
5647,-0.215,-0.195
5648,-0.225,-0.155
5649,-0.205,-0.185
5650,-0.245,-0.165
5651,-0.225,-0.205
5652,-0.215,-0.115
5653,-0.215,-0.175
5654,-0.175,-0.145
5655,-0.195,-0.185
5656,-0.195,-0.135
5657,-0.185,-0.135
5658,-0.145,-0.175
5659,-0.165,-0.175
5660,-0.175,-0.175
5661,-0.155,-0.135
5662,-0.135,-0.105
5663,-0.145,-0.225
5664,-0.155,-0.205
5665,-0.175,-0.155
5666,-0.165,-0.185
5667,-0.175,-0.165
5668,-0.145,-0.165
5669,-0.085,-0.105
5670,-0.105,-0.125
5671,-0.085,-0.045
5672,-0.025,-0.045
5673,-0.005,-0.065
5674,-0.035,-0.115
5675,0.015,-0.235
5676,0.085,-0.145
5677,0.005,-0.175
5678,-0.195,-0.215
5679,-0.225,-0.235
5680,-0.305,-0.245
5681,-0.225,-0.215
5682,-0.155,-0.195
5683,-0.185,-0.175
5684,-0.245,-0.245
5685,-0.185,-0.245
5686,-0.195,-0.115
5687,-0.245,-0.355
5688,-0.205,-0.265
5689,-0.185,-0.305
5690,-0.185,-0.265
5691,-0.445,-0.145
5692,-0.365,0.045
5693,0.505,0.175
5694,1.805,0.095
5695,1.665,-0.065
5696,-0.115,-0.985
5697,-1.085,-1.865
5698,-1.165,-2.085
5699,-0.645,-1.525
5700,-0.335,-0.785
5701,-0.195,-0.295
5702,-0.145,-0.095
5703,-0.175,0.025
5704,-0.135,0.045
5705,-0.075,0.095
5706,-0.075,-0.045
5707,-0.015,-0.005
5708,0.005,0.005
5709,0.015,0.085
5710,0.025,0.105
5711,0.025,0.065
5712,0.065,0.125
5713,0.085,0.175
5714,0.145,0.175
5715,0.185,0.315
5716,0.215,0.215
5717,0.275,0.305
5718,0.375,0.365
5719,0.495,0.505
5720,0.545,0.405
5721,0.595,0.445
5722,0.655,0.535
5723,0.655,0.515
5724,0.645,0.475
5725,0.555,0.475
5726,0.435,0.395
5727,0.285,0.405
5728,0.185,0.185
5729,0.055,-0.055
5730,-0.045,-0.085
5731,-0.125,-0.065
5732,-0.165,-0.095
5733,-0.195,-0.135
5734,-0.205,-0.145
5735,-0.185,-0.175
5736,-0.185,-0.135
5737,-0.185,-0.115
5738,-0.185,-0.155
5739,-0.195,-0.165
5740,-0.205,-0.165
5741,-0.205,-0.175
5742,-0.205,-0.155
5743,-0.185,-0.075
5744,-0.215,-0.155
5745,-0.175,-0.195
5746,-0.175,-0.125
5747,-0.195,-0.085
5748,-0.165,-0.135
5749,-0.195,-0.105
5750,-0.185,-0.095
5751,-0.175,-0.105
5752,-0.125,-0.045
5753,-0.115,-0.195
5754,-0.115,-0.155
5755,-0.145,-0.165
5756,-0.145,-0.105
5757,-0.145,-0.125
5758,-0.125,-0.105
5759,-0.055,-0.075
5760,-0.055,-0.015
5761,-0.045,-0.045
5762,0.045,-0.035
5763,0.085,-0.065
5764,0.005,-0.095
5765,0.025,-0.155
5766,0.015,-0.155
5767,-0.055,-0.095
5768,-0.185,-0.105
5769,-0.235,-0.185
5770,-0.195,-0.175
5771,-0.205,-0.225
5772,-0.215,-0.225
5773,-0.215,-0.245
5774,-0.245,-0.145
5775,-0.225,-0.225
5776,-0.225,-0.185
5777,-0.215,-0.255
5778,-0.225,-0.205
5779,-0.185,-0.155
5780,-0.185,-0.195
5781,-0.495,-0.095
5782,-0.395,0.115
5783,0.525,0.215
5784,1.895,0.125
5785,1.855,-0.105
5786,-0.035,-1.145
5787,-1.125,-2.015
5788,-1.145,-2.115
5789,-0.505,-1.445
5790,-0.245,-0.485
5791,-0.175,-0.095
5792,-0.135,-0.075
5793,-0.125,0.085
5794,-0.055,0.105
5795,-0.045,-0.055
5796,-0.075,-0.005
5797,-0.025,0.125
5798,0.015,0.125
5799,0.015,0.145
5800,-0.005,0.145
5801,0.075,0.255
5802,0.095,0.195
5803,0.145,0.245
5804,0.165,0.235
5805,0.195,0.335
5806,0.255,0.365
5807,0.295,0.355
5808,0.415,0.445
5809,0.495,0.545
5810,0.545,0.565
5811,0.655,0.635
5812,0.685,0.605
5813,0.715,0.675
5814,0.705,0.665
5815,0.675,0.615
5816,0.575,0.465
5817,0.415,0.365
5818,0.265,0.265
5819,0.125,0.105
5820,0.005,0.045
5821,-0.025,0.045
5822,-0.085,-0.035
5823,-0.105,-0.105
5824,-0.125,-0.155
5825,-0.135,-0.085
5826,-0.165,-0.165
5827,-0.155,-0.215
5828,-0.185,-0.155
5829,-0.185,-0.125
5830,-0.165,-0.125
5831,-0.165,-0.095
5832,-0.175,-0.135
5833,-0.205,-0.125
5834,-0.165,-0.055
5835,-0.135,-0.015
5836,-0.185,-0.175
5837,-0.165,-0.125
5838,-0.145,-0.135
5839,-0.145,-0.175
5840,-0.155,-0.065
5841,-0.135,-0.105
5842,-0.115,-0.155
5843,-0.115,-0.125
5844,-0.105,-0.115
5845,-0.135,-0.145
5846,-0.165,-0.155
5847,-0.135,-0.085
5848,-0.115,-0.115
5849,-0.115,-0.125
5850,-0.125,-0.115
5851,-0.125,-0.125
5852,-0.125,-0.155
5853,-0.045,-0.095
5854,-0.015,-0.055
5855,-0.035,-0.065
5856,0.005,-0.085
5857,0.075,0.025
5858,0.095,-0.065
5859,0.055,-0.145
5860,0.045,-0.155
5861,0.035,-0.085
5862,-0.045,-0.105
5863,-0.135,-0.205
5864,-0.175,-0.195
5865,-0.195,-0.145
5866,-0.205,-0.235
5867,-0.175,-0.195
5868,-0.205,-0.185
5869,-0.185,-0.235
5870,-0.175,-0.155
5871,-0.185,-0.185
5872,-0.155,-0.215
5873,-0.175,-0.225
5874,-0.185,-0.175
5875,-0.265,-0.205
5876,-0.505,-0.065
5877,-0.225,0.145
5878,0.935,0.215
5879,2.005,0.115
5880,1.455,-0.505
5881,-0.385,-1.385
5882,-1.095,-2.165
5883,-0.925,-2.005
5884,-0.365,-1.285
5885,-0.155,-0.385
5886,-0.105,-0.075
5887,-0.065,0.035
5888,-0.065,0.125
5889,-0.025,0.055
5890,-0.015,0.065
5891,-0.025,0.075
5892,0.015,0.105
5893,0.035,0.165
5894,0.045,0.165
5895,0.045,0.215
5896,0.085,0.245
5897,0.155,0.245
5898,0.155,0.255
5899,0.175,0.375
5900,0.225,0.365
5901,0.295,0.375
5902,0.345,0.425
5903,0.425,0.555
5904,0.495,0.505
5905,0.585,0.605
5906,0.685,0.685
5907,0.725,0.675
5908,0.695,0.685
5909,0.685,0.635
5910,0.625,0.675
5911,0.465,0.415
5912,0.295,0.225
5913,0.145,0.125
5914,0.045,0.035
5915,-0.075,-0.025
5916,-0.105,-0.075
5917,-0.105,-0.065
5918,-0.165,-0.115
5919,-0.175,-0.125
5920,-0.155,-0.165
5921,-0.155,-0.175
5922,-0.185,-0.145
5923,-0.195,-0.215
5924,-0.165,-0.165
5925,-0.165,-0.165
5926,-0.175,-0.165
5927,-0.205,-0.145
5928,-0.175,-0.155
5929,-0.155,-0.125
5930,-0.215,-0.075
5931,-0.175,-0.035
5932,-0.175,-0.125
5933,-0.185,-0.165
5934,-0.185,-0.085
5935,-0.155,-0.105
5936,-0.125,-0.165
5937,-0.125,-0.175
5938,-0.135,-0.155
5939,-0.125,-0.125
5940,-0.125,-0.145
5941,-0.175,-0.135
5942,-0.155,-0.105
5943,-0.145,-0.105
5944,-0.205,-0.165
5945,-0.165,-0.135
5946,-0.135,-0.095
5947,-0.205,-0.175
5948,-0.175,-0.185
5949,-0.155,-0.215
5950,-0.185,-0.195
5951,-0.175,-0.125
5952,-0.175,-0.185
5953,-0.185,-0.265
5954,-0.105,-0.175
5955,-0.095,-0.135
5956,-0.155,-0.095
5957,-0.045,-0.105
5958,0.005,-0.055
5959,0.025,-0.075
5960,-0.035,-0.055
5961,0.025,-0.165
5962,0.005,-0.205
5963,-0.135,-0.155
5964,-0.225,-0.205
5965,-0.235,-0.205
5966,-0.215,-0.225
5967,-0.265,-0.225
5968,-0.255,-0.275
5969,-0.235,-0.225
5970,-0.265,-0.225
5971,-0.235,-0.205
5972,-0.255,-0.185
5973,-0.255,-0.175
5974,-0.225,-0.225
5975,-0.245,-0.175
5976,-0.335,-0.165
5977,-0.545,-0.005
5978,-0.305,0.035
5979,0.615,0.055
5980,1.735,0.065
5981,1.455,-0.145
5982,-0.315,-1.205
5983,-1.065,-1.995
5984,-1.055,-1.945
5985,-0.495,-1.505
5986,-0.285,-0.705
5987,-0.205,-0.255
5988,-0.165,-0.125
5989,-0.125,-0.015
5990,-0.125,0.065
5991,-0.075,0.095
5992,-0.075,0.185
5993,-0.065,0.105
5994,-0.045,0.045
5995,-0.015,0.125
5996,0.005,0.135
5997,0.045,0.225
5998,0.065,0.215
5999,0.095,0.185
6000,0.135,0.265
6001,0.175,0.335
6002,0.205,0.345
6003,0.275,0.385
6004,0.345,0.475
6005,0.415,0.535
6006,0.505,0.575
6007,0.575,0.545
6008,0.625,0.645
6009,0.635,0.615
6010,0.625,0.565
6011,0.585,0.545
6012,0.475,0.465
6013,0.285,0.325
6014,0.185,0.255
6015,0.035,0.205
6016,-0.035,0.015
6017,-0.085,-0.005
6018,-0.185,-0.115
6019,-0.205,-0.155
6020,-0.195,-0.135
6021,-0.205,-0.145
6022,-0.205,-0.125
6023,-0.195,-0.145
6024,-0.235,-0.115
6025,-0.195,-0.145
6026,-0.245,-0.125
6027,-0.245,-0.155
6028,-0.185,-0.125
6029,-0.235,-0.095
6030,-0.185,-0.125
6031,-0.195,-0.165
6032,-0.225,-0.155
6033,-0.215,-0.115
6034,-0.195,-0.065
6035,-0.215,-0.125
6036,-0.215,-0.065
6037,-0.235,-0.065
6038,-0.195,-0.035
6039,-0.205,-0.165
6040,-0.215,-0.065
6041,-0.195,-0.185
6042,-0.165,-0.095
6043,-0.205,-0.195
6044,-0.195,-0.145
6045,-0.195,-0.155
6046,-0.215,-0.155
6047,-0.235,-0.175
6048,-0.255,-0.115
6049,-0.205,-0.155
6050,-0.245,-0.105
6051,-0.265,-0.205
6052,-0.225,-0.155
6053,-0.205,-0.095
6054,-0.245,-0.185
6055,-0.225,-0.185
6056,-0.195,-0.115
6057,-0.195,-0.165
6058,-0.195,-0.215
6059,-0.145,-0.135
6060,-0.125,-0.125
6061,-0.105,-0.095
6062,-0.005,-0.075
6063,0.025,-0.035
6064,-0.045,-0.045
6065,-0.055,-0.125
6066,-0.015,-0.085
6067,-0.075,-0.065
6068,-0.215,-0.145
6069,-0.235,-0.145
6070,-0.215,-0.185
6071,-0.255,-0.225
6072,-0.255,-0.115
6073,-0.185,-0.225
6074,-0.225,-0.245
6075,-0.245,-0.175
6076,-0.255,-0.205
6077,-0.225,-0.155
6078,-0.225,-0.145
6079,-0.265,-0.165
6080,-0.215,-0.165
6081,-0.425,-0.115
6082,-0.565,-0.045
6083,0.165,0.195
6084,1.465,0.095
6085,1.665,-0.075
6086,0.145,-0.915
6087,-0.805,-1.805
6088,-1.005,-2.085
6089,-0.655,-1.635
6090,-0.315,-1.005
6091,-0.225,-0.355
6092,-0.175,-0.035
6093,-0.125,0.005
6094,-0.105,0.065
6095,-0.085,0.005
6096,-0.075,0.085
6097,-0.075,0.105
6098,-0.075,0.175
6099,-0.015,0.165
6100,-0.005,0.215
6101,0.035,0.185
6102,0.045,0.235
6103,0.055,0.205
6104,0.115,0.265
6105,0.175,0.265
6106,0.185,0.325
6107,0.225,0.415
6108,0.345,0.475
6109,0.395,0.565
6110,0.445,0.545
6111,0.495,0.595
6112,0.555,0.615
6113,0.635,0.735
6114,0.685,0.665
6115,0.655,0.585
6116,0.555,0.545
6117,0.505,0.435
6118,0.355,0.375
6119,0.175,0.245
6120,0.085,0.125
6121,0.005,0.045
6122,-0.075,-0.005
6123,-0.105,-0.055
6124,-0.125,-0.095
6125,-0.135,-0.065
6126,-0.165,-0.095
6127,-0.165,-0.095
6128,-0.165,-0.045
6129,-0.155,-0.095
6130,-0.155,-0.175
6131,-0.155,-0.175
6132,-0.205,-0.165
6133,-0.155,-0.065
6134,-0.155,-0.165
6135,-0.165,-0.165
6136,-0.135,-0.105
6137,-0.145,-0.105
6138,-0.135,-0.075
6139,-0.175,-0.095
6140,-0.135,-0.115
6141,-0.105,-0.085
6142,-0.125,-0.035
6143,-0.095,-0.105
6144,-0.115,-0.125
6145,-0.125,-0.085
6146,-0.115,0.025
6147,-0.115,-0.085
6148,-0.095,-0.155
6149,-0.105,-0.235
6150,-0.125,-0.205
6151,-0.135,-0.165
6152,-0.165,-0.155
6153,-0.125,-0.135
6154,-0.145,-0.125
6155,-0.155,-0.145
6156,-0.145,-0.155
6157,-0.145,-0.145
6158,-0.115,-0.155
6159,-0.115,-0.135
6160,-0.145,-0.135
6161,-0.065,-0.135
6162,-0.005,-0.085
6163,-0.025,-0.045
6164,-0.015,-0.055
6165,0.075,-0.005
6166,0.125,-0.015
6167,0.055,0.045
6168,0.095,-0.155
6169,0.085,-0.165
6170,-0.045,-0.105
6171,-0.115,-0.175
6172,-0.125,-0.235
6173,-0.155,-0.185
6174,-0.135,-0.195
6175,-0.135,-0.195
6176,-0.155,-0.175
6177,-0.155,-0.155
6178,-0.135,-0.175
6179,-0.125,-0.195
6180,-0.125,-0.165
6181,-0.135,-0.145
6182,-0.095,-0.195
6183,-0.165,-0.125
6184,-0.405,-0.025
6185,-0.115,0.185
6186,0.835,0.115
6187,1.835,0.095
6188,1.235,-0.155
6189,-0.375,-1.155
6190,-1.025,-1.835
6191,-1.045,-1.915
6192,-0.565,-1.485
6193,-0.225,-0.845
6194,-0.065,-0.265
6195,-0.015,-0.005
6196,-0.015,0.045
6197,0.005,0.045
6198,0.065,0.085
6199,0.045,0.035
6200,0.095,0.085
6201,0.095,0.085
6202,0.115,0.155
6203,0.135,0.175
6204,0.165,0.155
6205,0.195,0.185
6206,0.225,0.145
6207,0.275,0.145
6208,0.295,0.225
6209,0.355,0.285
6210,0.405,0.345
6211,0.475,0.405
6212,0.545,0.475
6213,0.665,0.495
6214,0.755,0.525
6215,0.805,0.525
6216,0.825,0.495
6217,0.885,0.545
6218,0.855,0.435
6219,0.745,0.425
6220,0.585,0.425
6221,0.415,0.215
6222,0.285,0.155
6223,0.185,0.095
6224,0.075,0.025
6225,0.015,-0.005
6226,-0.035,-0.085
6227,-0.065,-0.135
6228,-0.075,-0.015
6229,-0.075,-0.135
6230,-0.075,-0.065
6231,-0.105,-0.075
6232,-0.105,-0.145
6233,-0.095,-0.055
6234,-0.105,-0.095
6235,-0.125,-0.125
6236,-0.115,-0.095
6237,-0.105,-0.085
6238,-0.115,-0.155
6239,-0.125,-0.095
6240,-0.105,-0.075
6241,-0.095,-0.085
6242,-0.095,-0.115
6243,-0.085,-0.095
6244,-0.105,-0.085
6245,-0.105,-0.095
6246,-0.075,-0.005
6247,-0.105,-0.085
6248,-0.125,-0.085
6249,-0.095,-0.085
6250,-0.105,-0.165
6251,-0.125,-0.165
6252,-0.125,-0.125
6253,-0.135,-0.095
6254,-0.145,-0.065
6255,-0.155,-0.125
6256,-0.155,-0.195
6257,-0.165,-0.195
6258,-0.105,-0.155
6259,-0.075,-0.105
6260,-0.075,-0.135
6261,-0.065,-0.055
6262,-0.015,0.025
6263,0.025,-0.055
6264,-0.025,-0.135
6265,-0.005,0.085
6266,0.035,-0.135
6267,0.015,-0.145
6268,-0.115,-0.175
6269,-0.215,-0.175
6270,-0.235,-0.215
6271,-0.215,-0.175
6272,-0.225,-0.205
6273,-0.195,-0.175
6274,-0.185,-0.195
6275,-0.185,-0.215
6276,-0.215,-0.195
6277,-0.215,-0.165
6278,-0.175,-0.105
6279,-0.195,-0.205
6280,-0.215,-0.195
6281,-0.275,-0.105
6282,-0.505,-0.075
6283,-0.335,0.055
6284,0.675,0.165
6285,1.885,0.125
6286,1.475,-0.105
6287,-0.485,-1.005
6288,-1.215,-1.725
6289,-1.175,-1.805
6290,-0.655,-1.385
6291,-0.385,-0.715
6292,-0.215,-0.255
6293,-0.195,-0.055
6294,-0.145,-0.005
6295,-0.085,0.095
6296,-0.085,-0.045
6297,-0.065,0.105
6298,-0.015,0.135
6299,-0.035,0.005
6300,-0.035,0.105
6301,-0.015,0.085
6302,0.025,0.125
6303,0.065,0.195
6304,0.105,0.185
6305,0.135,0.145
6306,0.165,0.155
6307,0.165,0.315
6308,0.255,0.285
6309,0.345,0.395
6310,0.445,0.395
6311,0.495,0.435
6312,0.585,0.525
6313,0.645,0.595
6314,0.665,0.595
6315,0.665,0.515
6316,0.635,0.445
6317,0.535,0.405
6318,0.355,0.325
6319,0.225,0.255
6320,0.095,0.215
6321,0.015,0.025
6322,-0.105,-0.005
6323,-0.145,-0.095
6324,-0.185,-0.115
6325,-0.225,-0.185
6326,-0.245,-0.105
6327,-0.225,-0.085
6328,-0.225,-0.135
6329,-0.245,-0.165
6330,-0.185,-0.225
6331,-0.225,-0.105
6332,-0.315,-0.125
6333,-0.215,-0.135
6334,-0.225,-0.105
6335,-0.255,-0.055
6336,-0.185,-0.195
6337,-0.195,-0.095
6338,-0.215,-0.155
6339,-0.175,-0.145
6340,-0.215,-0.075
6341,-0.275,-0.215
6342,-0.225,-0.065
6343,-0.155,-0.165
6344,-0.175,-0.205
6345,-0.185,-0.175
6346,-0.235,-0.115
6347,-0.255,-0.125
6348,-0.245,-0.125
6349,-0.245,-0.125
6350,-0.245,-0.055
6351,-0.235,-0.195
6352,-0.225,-0.225
6353,-0.255,-0.145
6354,-0.245,-0.095
6355,-0.245,-0.215
6356,-0.205,-0.165
6357,-0.215,-0.105
6358,-0.155,-0.115
6359,-0.075,-0.145
6360,-0.065,-0.065
6361,-0.115,-0.135
6362,-0.105,-0.195
6363,-0.085,-0.155
6364,-0.145,-0.035
6365,-0.245,-0.155
6366,-0.275,-0.145
6367,-0.335,-0.275
6368,-0.325,-0.245
6369,-0.285,-0.305
6370,-0.285,-0.235
6371,-0.325,-0.175
6372,-0.305,-0.265
6373,-0.265,-0.275
6374,-0.295,-0.155
6375,-0.305,-0.185
6376,-0.245,-0.225
6377,-0.245,-0.225
6378,-0.425,-0.165
6379,-0.565,0.045
6380,-0.055,0.205
6381,1.225,0.165
6382,1.935,-0.055
6383,0.815,-0.615
6384,-0.785,-1.535
6385,-1.245,-1.985
6386,-1.015,-1.685
6387,-0.545,-1.065
6388,-0.345,-0.365
6389,-0.235,-0.035
6390,-0.185,0.005
6391,-0.155,0.055
6392,-0.145,0.005
6393,-0.125,0.035
6394,-0.085,0.095
6395,-0.105,0.105
6396,-0.125,0.125
6397,-0.065,0.145
6398,-0.065,0.275
6399,-0.035,0.145
6400,0.015,0.185
6401,0.035,0.205
6402,0.055,0.205
6403,0.105,0.335
6404,0.175,0.385
6405,0.215,0.285
6406,0.365,0.485
6407,0.385,0.525
6408,0.455,0.495
6409,0.545,0.545
6410,0.545,0.635
6411,0.635,0.585
6412,0.625,0.485
6413,0.535,0.535
6414,0.445,0.405
6415,0.305,0.285
6416,0.135,0.185
6417,-0.015,0.095
6418,-0.065,0.005
6419,-0.195,-0.005
6420,-0.245,-0.045
6421,-0.235,-0.045
6422,-0.245,-0.055
6423,-0.265,-0.145
6424,-0.265,-0.015
6425,-0.295,-0.165
6426,-0.295,-0.195
6427,-0.275,-0.105
6428,-0.295,-0.135
6429,-0.295,-0.085
6430,-0.245,-0.085
6431,-0.295,-0.055
6432,-0.285,-0.195
6433,-0.245,-0.015
6434,-0.255,-0.135
6435,-0.265,-0.165
6436,-0.255,-0.185
6437,-0.245,-0.105
6438,-0.265,-0.095
6439,-0.245,-0.065
6440,-0.265,-0.075
6441,-0.225,-0.085
6442,-0.245,-0.095
6443,-0.215,-0.155
6444,-0.255,-0.135
6445,-0.215,-0.145
6446,-0.215,-0.125
6447,-0.195,-0.125
6448,-0.155,-0.115
6449,-0.125,-0.065
6450,-0.145,-0.035
6451,-0.115,-0.025
6452,-0.055,-0.025
6453,-0.075,-0.045
6454,-0.075,-0.105
6455,-0.075,-0.155
6456,-0.075,-0.125
6457,-0.185,-0.095
6458,-0.265,-0.085
6459,-0.265,-0.165
6460,-0.295,-0.195
6461,-0.245,-0.195
6462,-0.245,-0.245
6463,-0.285,-0.205
6464,-0.285,-0.255
6465,-0.265,-0.245
6466,-0.255,-0.205
6467,-0.225,-0.215
6468,-0.215,-0.105
6469,-0.185,-0.185
6470,-0.365,-0.175
6471,-0.525,-0.005
6472,-0.015,0.225
6473,1.395,0.175
6474,2.035,0.105
6475,1.045,-0.625
6476,-0.745,-1.485
6477,-1.295,-2.125
6478,-1.085,-1.895
6479,-0.535,-1.245
6480,-0.275,-0.495
6481,-0.185,-0.155
6482,-0.165,-0.015
6483,-0.135,0.035
6484,-0.105,0.045
6485,-0.085,0.085
6486,-0.085,0.125
6487,-0.055,0.125
6488,-0.055,0.145
6489,-0.055,0.135
6490,-0.015,0.125
6491,0.005,0.145
6492,0.055,0.265
6493,0.065,0.265
6494,0.125,0.215
6495,0.155,0.245
6496,0.205,0.315
6497,0.265,0.365
6498,0.335,0.465
6499,0.395,0.525
6500,0.495,0.595
6501,0.575,0.635
6502,0.605,0.665
6503,0.665,0.745
6504,0.675,0.625
6505,0.655,0.575
6506,0.575,0.485
6507,0.455,0.465
6508,0.265,0.175
6509,0.105,0.085
6510,0.005,0.035
6511,-0.095,0.025
6512,-0.125,-0.045
6513,-0.155,-0.165
6514,-0.195,-0.105
6515,-0.215,-0.015
6516,-0.255,-0.185
6517,-0.255,-0.175
6518,-0.235,-0.145
6519,-0.225,-0.185
6520,-0.215,-0.125
6521,-0.235,-0.225
6522,-0.245,-0.165
6523,-0.215,-0.125
6524,-0.195,-0.145
6525,-0.205,-0.145
6526,-0.195,-0.155
6527,-0.235,-0.115
6528,-0.215,-0.145
6529,-0.205,-0.125
6530,-0.195,-0.115
6531,-0.205,-0.075
6532,-0.215,-0.145
6533,-0.205,-0.115
6534,-0.205,-0.075
6535,-0.185,-0.115
6536,-0.165,-0.195
6537,-0.125,0.035
6538,-0.165,-0.205
6539,-0.125,-0.145
6540,-0.065,-0.075
6541,-0.075,-0.145
6542,-0.015,0.045
6543,-0.025,-0.145
6544,-0.035,-0.145
6545,-0.035,-0.135
6546,-0.025,-0.175
6547,-0.025,-0.125
6548,-0.085,-0.125
6549,-0.245,-0.145
6550,-0.235,-0.205
6551,-0.255,-0.195
6552,-0.245,-0.175
6553,-0.235,-0.135
6554,-0.235,-0.135
6555,-0.235,-0.185
6556,-0.235,-0.235
6557,-0.255,-0.235
6558,-0.235,-0.205
6559,-0.225,-0.115
6560,-0.215,-0.245
6561,-0.225,-0.195
6562,-0.465,-0.105
6563,-0.505,0.105
6564,0.215,0.225
6565,1.545,0.205
6566,1.915,0.005
6567,0.445,-0.765
6568,-0.955,-1.765
6569,-1.215,-1.985
6570,-0.875,-1.765
6571,-0.445,-1.165
6572,-0.205,-0.365
6573,-0.155,-0.085
6574,-0.145,0.065
6575,-0.125,0.125
6576,-0.105,0.065
6577,-0.075,0.065
6578,-0.045,0.115
6579,-0.045,0.005
6580,-0.035,0.125
6581,-0.025,0.155
6582,-0.005,0.185
6583,0.025,0.185
6584,0.065,0.265
6585,0.105,0.205
6586,0.125,0.225
