'sample interval','ECG0','ECG1'
'0.0078125 sec','mV','mV'
0,0.035,0.050
1,0.035,0.050
2,0.035,0.050
3,0.035,0.050
4,0.035,0.050
5,0.035,0.055
6,0.040,0.060
7,0.035,0.055
8,0.030,0.050
9,0.020,0.040
10,0.015,0.030
11,0.010,0.030
12,0.000,0.025
13,0.000,0.025
14,0.000,0.025
15,-0.005,0.040
16,-0.010,0.065
17,-0.015,0.095
18,-0.015,0.110
19,-0.020,0.115
20,-0.030,0.115
21,-0.030,0.105
22,-0.025,0.100
23,-0.025,0.085
24,-0.025,0.070
25,-0.025,0.065
26,-0.010,0.065
27,0.005,0.045
28,0.015,0.020
29,0.020,0.000
30,0.025,-0.010
31,0.025,-0.015
32,0.030,-0.015
33,0.025,-0.015
34,0.025,-0.015
35,0.020,-0.005
36,0.000,0.050
37,-0.065,0.170
38,-0.170,0.285
39,-0.235,0.320
40,-0.230,0.250
41,-0.160,0.110
42,-0.060,-0.010
43,0.010,-0.105
44,0.050,-0.160
45,0.055,-0.165
46,0.055,-0.130
47,0.055,-0.085
48,0.055,-0.060
49,0.060,-0.055
50,0.065,-0.050
51,0.065,-0.050
52,0.055,-0.050
53,0.050,-0.055
54,0.045,-0.065
55,0.040,-0.070
56,0.035,-0.070
57,0.030,-0.070
58,0.025,-0.060
59,0.025,-0.050
60,0.020,-0.040
61,0.020,-0.030
62,0.025,-0.030
63,0.030,-0.030
64,0.030,-0.030
65,0.035,-0.035
66,0.040,-0.030
67,0.050,-0.025
68,0.060,-0.025
69,0.055,-0.040
70,0.040,-0.050
71,0.030,-0.060
72,0.020,-0.070
73,0.015,-0.070
74,0.015,-0.065
75,0.010,-0.065
76,0.010,-0.060
77,0.005,-0.055
78,0.000,-0.045
79,0.000,-0.040
80,0.000,-0.030
81,0.000,-0.025
82,-0.005,-0.020
83,-0.005,-0.015
84,-0.005,-0.015
85,-0.015,-0.025
86,-0.020,-0.030
87,-0.030,-0.040
88,-0.035,-0.040
89,-0.035,-0.025
90,-0.025,-0.010
91,-0.015,0.000
92,-0.015,0.000
93,-0.015,0.000
94,-0.025,-0.010
95,-0.040,-0.020
96,-0.045,-0.025
97,-0.035,-0.015
98,-0.025,0.000
99,-0.015,0.000
100,-0.005,0.005
101,0.000,0.005
102,0.000,0.005
103,0.000,0.015
104,0.000,0.020
105,0.005,0.025
106,0.005,0.025
107,0.010,0.030
108,0.015,0.035
109,0.010,0.040
110,0.005,0.055
111,0.000,0.075
112,0.000,0.100
113,0.000,0.110
114,-0.010,0.120
115,-0.020,0.115
116,-0.025,0.105
117,-0.025,0.090
118,-0.020,0.085
119,-0.010,0.090
120,0.000,0.090
121,0.015,0.080
122,0.035,0.070
123,0.055,0.050
124,0.070,0.025
125,0.070,0.010
126,0.065,0.005
127,0.065,0.005
128,0.065,0.010
129,0.075,0.020
130,0.080,0.045
131,0.045,0.095
132,-0.050,0.185
133,-0.175,0.285
134,-0.235,0.320
135,-0.215,0.245
136,-0.150,0.120
137,-0.060,-0.005
138,0.005,-0.110
139,0.045,-0.170
140,0.050,-0.175
141,0.040,-0.145
142,0.035,-0.110
143,0.035,-0.085
144,0.035,-0.070
145,0.035,-0.060
146,0.035,-0.050
147,0.035,-0.040
148,0.040,-0.025
149,0.045,-0.020
150,0.050,-0.015
151,0.055,-0.010
152,0.055,-0.010
153,0.055,-0.005
154,0.065,0.000
155,0.085,0.025
156,0.125,0.065
157,0.155,0.070
158,0.140,0.030
159,0.105,-0.010
160,0.075,-0.030
161,0.055,-0.030
162,0.055,-0.030
163,0.050,-0.035
164,0.045,-0.045
165,0.045,-0.050
166,0.040,-0.050
167,0.040,-0.050
168,0.040,-0.050
169,0.045,-0.045
170,0.040,-0.045
171,0.035,-0.045
172,0.020,-0.050
173,0.005,-0.055
174,0.000,-0.050
175,0.000,-0.030
176,0.000,-0.010
177,0.010,0.000
178,0.015,0.000
179,0.020,0.005
180,0.020,0.005
181,0.010,0.000
182,0.005,0.000
183,0.005,0.000
184,0.005,0.005
185,0.005,0.015
186,0.010,0.020
187,0.010,0.015
188,0.005,0.010
189,0.000,0.010
190,0.000,0.005
191,0.000,0.005
192,-0.005,0.010
193,-0.005,0.010
194,-0.005,0.010
195,-0.005,0.010
196,-0.005,0.015
197,0.000,0.020
198,0.000,0.025
199,0.000,0.025
200,0.000,0.025
201,0.000,0.025
202,0.000,0.025
203,0.000,0.030
204,0.000,0.030
205,-0.005,0.045
206,-0.020,0.070
207,-0.035,0.085
208,-0.045,0.090
209,-0.050,0.100
210,-0.055,0.105
211,-0.050,0.095
212,-0.050,0.075
213,-0.055,0.050
214,-0.065,0.030
215,-0.075,0.000
216,-0.080,-0.010
217,-0.075,-0.015
218,-0.055,-0.020
219,-0.035,-0.030
220,-0.020,-0.035
221,-0.015,-0.040
222,-0.005,-0.030
223,0.000,-0.015
224,0.010,-0.005
225,0.010,0.010
226,-0.030,0.070
227,-0.125,0.175
228,-0.215,0.290
229,-0.245,0.325
230,-0.210,0.245
231,-0.135,0.105
232,-0.050,-0.015
233,0.005,-0.110
234,0.035,-0.160
235,0.045,-0.155
236,0.045,-0.120
237,0.045,-0.085
238,0.040,-0.060
239,0.040,-0.050
240,0.040,-0.040
241,0.045,-0.030
242,0.045,-0.020
243,0.045,-0.020
244,0.050,-0.020
245,0.050,-0.015
246,0.050,-0.015
247,0.050,-0.015
248,0.050,-0.015
249,0.045,-0.015
250,0.045,-0.015
251,0.045,-0.015
252,0.045,-0.015
253,0.045,-0.015
254,0.040,-0.015
255,0.040,-0.010
256,0.040,-0.010
257,0.045,-0.010
258,0.050,-0.010
259,0.055,-0.010
260,0.060,-0.010
261,0.060,-0.010
262,0.055,-0.015
263,0.050,-0.020
264,0.050,-0.015
265,0.050,-0.005
266,0.050,0.000
267,0.045,0.000
268,0.045,0.000
269,0.040,0.000
270,0.035,0.000
271,0.035,0.000
272,0.030,0.005
273,0.030,0.010
274,0.030,0.010
275,0.030,0.010
276,0.030,0.010
277,0.030,0.010
278,0.030,0.010
279,0.030,0.015
280,0.025,0.020
281,0.025,0.020
282,0.020,0.015
283,0.020,0.015
284,0.015,0.015
285,0.010,0.020
286,0.010,0.025
287,0.010,0.025
288,0.010,0.025
289,0.005,0.025
290,0.005,0.030
291,0.005,0.030
292,0.010,0.030
293,0.010,0.035
294,0.010,0.040
295,0.010,0.045
296,0.015,0.045
297,0.015,0.045
298,0.010,0.055
299,0.010,0.060
300,0.005,0.080
301,0.000,0.100
302,0.000,0.115
303,0.000,0.125
304,-0.010,0.130
305,-0.020,0.130
306,-0.025,0.115
307,-0.015,0.105
308,-0.010,0.105
309,-0.005,0.095
310,0.000,0.080
311,0.000,0.065
312,0.010,0.045
313,0.020,0.015
314,0.025,0.000
315,0.025,-0.015
316,0.025,-0.025
317,0.025,-0.030
318,0.030,-0.025
319,0.040,-0.005
320,0.030,0.020
321,-0.015,0.100
322,-0.105,0.230
323,-0.200,0.320
324,-0.235,0.310
325,-0.200,0.200
326,-0.120,0.055
327,-0.030,-0.055
328,0.025,-0.130
329,0.055,-0.160
330,0.060,-0.140
331,0.060,-0.105
332,0.060,-0.075
333,0.060,-0.060
334,0.060,-0.050
335,0.055,-0.045
336,0.050,-0.040
337,0.045,-0.040
338,0.040,-0.040
339,0.035,-0.040
340,0.030,-0.045
341,0.030,-0.040
342,0.030,-0.035
343,0.040,-0.025
344,0.045,-0.015
345,0.045,-0.015
346,0.040,-0.020
347,0.040,-0.020
348,0.040,-0.020
349,0.040,-0.025
350,0.040,-0.025
351,0.045,-0.025
352,0.050,-0.025
353,0.050,-0.025
354,0.055,-0.020
355,0.065,-0.020
356,0.070,-0.020
357,0.070,-0.020
358,0.060,-0.025
359,0.055,-0.020
360,0.055,-0.010
361,0.055,0.000
362,0.055,0.000
363,0.055,0.000
364,0.045,0.000
365,0.035,0.000
366,0.025,0.000
367,0.020,0.000
368,0.020,0.000
369,0.015,0.000
370,0.015,0.000
371,0.020,0.000
372,0.025,0.010
373,0.025,0.015
374,0.025,0.015
375,0.020,0.010
376,0.015,0.010
377,0.010,0.010
378,0.005,0.010
379,0.000,0.015
380,0.000,0.020
381,-0.005,0.025
382,-0.005,0.030
383,-0.005,0.035
384,-0.005,0.035
385,-0.005,0.035
386,-0.005,0.035
387,-0.005,0.035
388,-0.005,0.035
389,-0.010,0.030
390,-0.010,0.025
391,-0.020,0.015
392,-0.025,0.015
393,-0.030,0.015
394,-0.035,0.025
395,-0.045,0.045
396,-0.050,0.065
397,-0.055,0.070
398,-0.060,0.075
399,-0.065,0.075
400,-0.070,0.065
401,-0.060,0.050
402,-0.060,0.040
403,-0.055,0.035
404,-0.045,0.030
405,-0.035,0.020
406,-0.025,0.005
407,-0.015,-0.015
408,-0.005,-0.040
409,0.000,-0.055
410,0.000,-0.065
411,0.000,-0.065
412,0.000,-0.065
413,0.000,-0.060
414,0.000,-0.045
415,-0.020,0.000
416,-0.085,0.090
417,-0.185,0.215
418,-0.260,0.280
419,-0.265,0.240
420,-0.200,0.110
421,-0.105,-0.010
422,-0.025,-0.115
423,0.015,-0.175
424,0.020,-0.175
425,0.015,-0.125
426,0.005,-0.070
427,0.005,-0.035
428,0.005,-0.015
429,0.005,0.000
430,0.000,0.040
431,0.000,0.065
432,0.000,0.070
433,0.000,0.070
434,0.000,0.055
435,0.005,0.030
436,0.015,0.005
437,0.030,-0.005
438,0.045,-0.015
439,0.050,-0.015
440,0.055,-0.015
441,0.055,-0.020
442,0.055,-0.015
443,0.055,-0.015
444,0.055,-0.015
445,0.055,-0.020
446,0.055,-0.025
447,0.050,-0.020
448,0.045,-0.015
449,0.035,-0.005
450,0.030,0.005
451,0.025,0.020
452,0.015,0.030
453,0.010,0.035
454,0.005,0.050
455,0.000,0.070
456,-0.005,0.110
457,-0.020,0.140
458,-0.020,0.130
459,-0.010,0.070
460,0.000,-0.010
461,0.000,-0.080
462,-0.005,-0.100
463,-0.010,-0.075
464,-0.005,-0.050
465,0.000,-0.025
466,0.005,0.000
467,0.010,0.005
468,0.015,0.010
469,0.020,0.015
470,0.020,0.015
471,0.015,0.015
472,0.015,0.015
473,0.020,0.020
474,0.015,0.020
475,0.015,0.015
476,0.010,0.010
477,0.010,0.010
478,0.005,0.010
479,0.005,0.010
480,0.000,0.015
481,0.000,0.015
482,0.000,0.015
483,-0.005,0.010
484,-0.005,0.005
485,-0.005,0.000
486,-0.005,0.000
487,0.000,0.005
488,0.000,0.005
489,0.000,0.015
490,-0.005,0.040
491,-0.010,0.060
492,-0.015,0.075
493,-0.020,0.080
494,-0.030,0.085
495,-0.030,0.080
496,-0.025,0.070
497,-0.015,0.070
498,-0.010,0.070
499,-0.005,0.065
500,0.000,0.050
501,0.005,0.030
502,0.010,0.010
503,0.015,0.000
504,0.020,-0.020
505,0.020,-0.025
506,0.015,-0.030
507,0.015,-0.025
508,0.015,-0.020
509,0.010,-0.010
510,0.000,0.045
511,-0.070,0.160
512,-0.170,0.305
513,-0.230,0.365
514,-0.230,0.310
515,-0.160,0.175
516,-0.075,0.035
517,-0.005,-0.070
518,0.030,-0.140
519,0.040,-0.150
520,0.040,-0.130
521,0.040,-0.100
522,0.035,-0.080
523,0.035,-0.070
524,0.030,-0.065
525,0.030,-0.060
526,0.030,-0.050
527,0.030,-0.040
528,0.030,-0.030
529,0.030,-0.025
530,0.030,-0.025
531,0.035,-0.025
532,0.035,-0.025
533,0.035,-0.025
534,0.035,-0.025
535,0.035,-0.030
536,0.035,-0.030
537,0.035,-0.030
538,0.035,-0.030
539,0.040,-0.030
540,0.045,-0.030
541,0.045,-0.035
542,0.050,-0.040
543,0.050,-0.040
544,0.050,-0.045
545,0.045,-0.045
546,0.045,-0.045
547,0.045,-0.045
548,0.045,-0.045
549,0.040,-0.040
550,0.035,-0.035
551,0.030,-0.025
552,0.025,-0.020
553,0.020,-0.015
554,0.015,-0.010
555,0.010,-0.005
556,0.010,0.000
557,0.010,0.000
558,0.005,0.000
559,0.005,0.000
560,0.005,0.000
561,0.000,0.005
562,0.000,0.005
563,0.000,0.010
564,0.000,0.015
565,0.000,0.020
566,0.000,0.025
567,-0.005,0.030
568,0.000,0.030
569,0.000,0.030
570,0.000,0.030
571,0.000,0.030
572,0.000,0.030
573,0.000,0.030
574,0.000,0.030
575,0.000,0.025
576,0.000,0.025
577,0.000,0.025
578,0.000,0.025
579,0.000,0.025
580,0.000,0.025
581,0.000,0.025
582,0.000,0.025
583,0.000,0.025
584,0.000,0.040
585,-0.010,0.065
586,-0.015,0.090
587,-0.015,0.105
588,-0.025,0.110
589,-0.035,0.115
590,-0.035,0.110
591,-0.030,0.095
592,-0.025,0.090
593,-0.025,0.085
594,-0.020,0.080
595,-0.010,0.065
596,0.000,0.045
597,0.005,0.025
598,0.005,0.010
599,0.010,0.000
600,0.015,0.000
601,0.015,-0.005
602,0.020,-0.005
603,0.020,0.000
604,0.025,0.005
605,0.000,0.055
606,-0.070,0.160
607,-0.170,0.275
608,-0.235,0.335
609,-0.235,0.285
610,-0.170,0.155
611,-0.080,0.030
612,0.000,-0.075
613,0.035,-0.135
614,0.050,-0.145
615,0.050,-0.120
616,0.045,-0.085
617,0.045,-0.055
618,0.045,-0.040
619,0.045,-0.040
620,0.040,-0.035
621,0.040,-0.025
622,0.040,-0.025
623,0.040,-0.025
624,0.040,-0.020
625,0.040,-0.020
626,0.040,-0.020
627,0.035,-0.020
628,0.035,-0.020
629,0.035,-0.015
630,0.040,-0.015
631,0.040,-0.015
632,0.045,-0.015
633,0.050,-0.015
634,0.050,-0.015
635,0.050,-0.020
636,0.055,-0.025
637,0.055,-0.025
638,0.055,-0.030
639,0.055,-0.035
640,0.055,-0.035
641,0.050,-0.035
642,0.045,-0.030
643,0.040,-0.030
644,0.035,-0.030
645,0.035,-0.025
646,0.030,-0.015
647,0.025,-0.010
648,0.020,-0.005
649,0.010,0.000
650,0.010,0.000
651,0.005,0.000
652,0.005,0.000
653,0.005,0.005
654,0.005,0.010
655,0.005,0.015
656,0.000,0.020
657,0.000,0.020
658,0.000,0.025
659,0.000,0.025
660,0.000,0.030
661,0.000,0.025
662,0.000,0.025
663,0.000,0.030
664,0.000,0.030
665,0.000,0.030
666,0.000,0.030
667,0.000,0.035
668,0.000,0.035
669,0.000,0.030
670,0.000,0.030
671,0.000,0.030
672,0.000,0.030
673,0.000,0.030
674,0.000,0.030
675,0.000,0.035
676,0.000,0.035
677,0.000,0.035
678,0.000,0.040
679,0.000,0.055
680,-0.010,0.080
681,-0.015,0.105
682,-0.020,0.120
683,-0.025,0.120
684,-0.035,0.125
685,-0.040,0.120
686,-0.035,0.105
687,-0.030,0.100
688,-0.030,0.100
689,-0.020,0.090
690,-0.005,0.070
691,0.000,0.050
692,0.000,0.030
693,0.005,0.005
694,0.010,0.000
695,0.015,0.000
696,0.015,0.000
697,0.015,0.000
698,0.015,0.000
699,0.020,0.015
700,-0.005,0.065
701,-0.080,0.170
702,-0.175,0.280
703,-0.240,0.330
704,-0.240,0.275
705,-0.175,0.150
706,-0.085,0.020
707,-0.005,-0.075
708,0.035,-0.140
709,0.050,-0.150
710,0.045,-0.125
711,0.045,-0.085
712,0.045,-0.060
713,0.040,-0.045
714,0.040,-0.045
715,0.035,-0.040
716,0.035,-0.030
717,0.035,-0.025
718,0.035,-0.020
719,0.035,-0.015
720,0.035,-0.015
721,0.035,-0.015
722,0.035,-0.015
723,0.035,-0.010
724,0.035,-0.010
725,0.035,-0.010
726,0.035,-0.010
727,0.035,-0.015
728,0.035,-0.015
729,0.040,-0.015
730,0.040,-0.020
731,0.045,-0.020
732,0.050,-0.020
733,0.050,-0.020
734,0.050,-0.020
735,0.050,-0.025
736,0.050,-0.025
737,0.045,-0.025
738,0.040,-0.025
739,0.040,-0.020
740,0.035,-0.010
741,0.030,-0.005
742,0.020,-0.005
743,0.015,0.000
744,0.010,0.000
745,0.010,0.005
746,0.005,0.005
747,0.005,0.005
748,0.005,0.015
749,0.005,0.020
750,0.000,0.020
751,0.000,0.020
752,0.000,0.025
753,0.005,0.030
754,0.000,0.030
755,0.000,0.030
756,0.000,0.030
757,0.000,0.030
758,0.000,0.030
759,0.000,0.025
760,0.000,0.025
761,0.000,0.030
762,0.000,0.030
763,0.000,0.030
764,0.000,0.030
765,0.000,0.030
766,0.000,0.025
767,0.000,0.020
768,0.000,0.020
769,0.000,0.020
770,0.000,0.025
771,0.000,0.025
772,0.000,0.030
773,0.000,0.030
774,0.000,0.045
775,-0.005,0.075
776,-0.010,0.100
777,-0.015,0.105
778,-0.030,0.110
779,-0.040,0.115
780,-0.040,0.105
781,-0.040,0.095
782,-0.035,0.090
783,-0.030,0.090
784,-0.020,0.080
785,-0.010,0.065
786,0.000,0.045
787,0.000,0.020
788,0.005,0.000
789,0.010,0.000
790,0.015,-0.005
791,0.015,-0.010
792,0.015,-0.010
793,0.015,-0.005
794,0.015,0.010
795,-0.005,0.060
796,-0.080,0.160
797,-0.175,0.275
798,-0.240,0.325
799,-0.235,0.280
800,-0.175,0.150
801,-0.080,0.020
802,0.000,-0.080
803,0.035,-0.140
804,0.050,-0.155
805,0.050,-0.120
806,0.045,-0.085
807,0.045,-0.055
808,0.045,-0.045
809,0.040,-0.040
810,0.035,-0.030
811,0.035,-0.030
812,0.035,-0.030
813,0.035,-0.030
814,0.035,-0.030
815,0.035,-0.030
816,0.035,-0.030
817,0.035,-0.025
818,0.035,-0.020
819,0.035,-0.020
820,0.035,-0.020
821,0.040,-0.020
822,0.040,-0.020
823,0.045,-0.020
824,0.045,-0.020
825,0.050,-0.020
826,0.050,-0.025
827,0.055,-0.025
828,0.055,-0.030
829,0.055,-0.035
830,0.055,-0.035
831,0.050,-0.035
832,0.050,-0.035
833,0.045,-0.030
834,0.040,-0.025
835,0.035,-0.020
836,0.030,-0.015
837,0.025,-0.010
838,0.020,0.000
839,0.015,0.000
840,0.010,0.000
841,0.010,0.005
842,0.005,0.010
843,0.005,0.015
844,0.005,0.020
845,0.005,0.020
846,0.005,0.025
847,0.000,0.030
848,0.000,0.025
849,0.000,0.025
850,0.000,0.025
851,0.000,0.025
852,0.000,0.030
853,0.000,0.030
854,0.000,0.030
855,0.000,0.030
856,0.000,0.025
857,0.000,0.025
858,0.000,0.030
859,0.000,0.025
860,0.000,0.025
861,0.000,0.020
862,0.000,0.020
863,0.000,0.020
864,0.000,0.020
865,0.000,0.015
866,0.000,0.015
867,0.000,0.020
868,0.000,0.030
869,-0.005,0.050
870,-0.015,0.075
871,-0.020,0.095
872,-0.020,0.105
873,-0.030,0.115
874,-0.040,0.120
875,-0.040,0.110
876,-0.035,0.100
877,-0.030,0.090
878,-0.025,0.085
879,-0.020,0.075
880,-0.005,0.055
881,0.000,0.035
882,0.005,0.015
883,0.010,0.000
884,0.010,-0.010
885,0.015,-0.010
886,0.015,-0.010
887,0.015,-0.010
888,0.020,-0.005
889,0.015,0.005
890,-0.010,0.065
891,-0.090,0.180
892,-0.195,0.295
893,-0.255,0.340
894,-0.240,0.265
895,-0.165,0.135
896,-0.070,0.005
897,0.000,-0.085
898,0.040,-0.145
899,0.050,-0.150
900,0.050,-0.115
901,0.045,-0.080
902,0.045,-0.055
903,0.045,-0.050
904,0.045,-0.045
905,0.040,-0.040
906,0.040,-0.035
907,0.040,-0.035
908,0.040,-0.030
909,0.040,-0.030
910,0.040,-0.030
911,0.040,-0.025
912,0.045,-0.020
913,0.045,-0.020
914,0.045,-0.020
915,0.050,-0.015
916,0.050,-0.015
917,0.055,-0.020
918,0.055,-0.025
919,0.050,-0.030
920,0.050,-0.030
921,0.050,-0.030
922,0.050,-0.040
923,0.050,-0.045
924,0.050,-0.040
925,0.045,-0.040
926,0.045,-0.045
927,0.040,-0.040
928,0.040,-0.040
929,0.035,-0.035
930,0.035,-0.035
931,0.030,-0.030
932,0.025,-0.020
933,0.020,-0.005
934,0.015,-0.005
935,0.010,0.000
936,0.010,0.000
937,0.005,0.005
938,0.005,0.010
939,0.005,0.010
940,0.005,0.015
941,0.005,0.020
942,0.005,0.020
943,0.005,0.025
944,0.005,0.030
945,0.005,0.030
946,0.005,0.030
947,0.005,0.030
948,0.005,0.030
949,0.005,0.030
950,0.005,0.025
951,0.005,0.025
952,0.005,0.025
953,0.005,0.025
954,0.010,0.020
955,0.010,0.015
956,0.010,0.015
957,0.010,0.015
958,0.010,0.010
959,0.010,0.010
960,0.010,0.010
961,0.010,0.010
962,0.010,0.010
963,0.005,0.020
964,0.000,0.040
965,0.000,0.060
966,0.000,0.080
967,0.000,0.090
968,-0.010,0.095
969,-0.025,0.095
970,-0.020,0.090
971,-0.020,0.080
972,-0.015,0.080
973,-0.010,0.075
974,-0.005,0.065
975,0.000,0.045
976,0.010,0.025
977,0.020,0.005
978,0.030,-0.005
979,0.030,-0.015
980,0.030,-0.020
981,0.030,-0.015
982,0.030,-0.015
983,0.030,-0.010
984,0.025,0.005
985,-0.015,0.080
986,-0.110,0.205
987,-0.210,0.310
988,-0.250,0.325
989,-0.220,0.230
990,-0.140,0.100
991,-0.045,-0.010
992,0.020,-0.095
993,0.050,-0.140
994,0.060,-0.135
995,0.060,-0.110
996,0.060,-0.075
997,0.060,-0.055
998,0.055,-0.040
999,0.045,-0.040
1000,0.035,-0.035
1001,0.025,-0.030
1002,0.015,-0.025
1003,0.015,-0.025
1004,0.025,-0.025
1005,0.045,-0.035
1006,0.050,-0.050
1007,0.030,-0.060
1008,0.010,-0.065
1009,0.010,-0.065
1010,0.010,-0.060
1011,0.010,-0.040
1012,0.015,-0.015
1013,0.025,0.000
1014,0.005,0.025
1015,-0.050,0.065
1016,-0.100,0.080
1017,-0.070,0.045
1018,-0.010,-0.010
1019,0.040,-0.055
1020,0.085,-0.110
1021,0.130,-0.170
1022,0.160,-0.170
1023,0.160,-0.125
1024,0.160,-0.085
1025,0.155,-0.045
1026,0.155,-0.015
1027,0.155,0.000
1028,0.155,0.010
1029,0.155,0.030
1030,0.165,0.050
1031,0.190,0.075
1032,0.215,0.100
1033,0.215,0.110
1034,0.180,0.100
1035,0.130,0.085
1036,0.070,0.070
1037,0.020,0.060
1038,-0.020,0.060
1039,-0.050,0.060
1040,-0.055,0.065
1041,-0.035,0.055
1042,-0.015,0.050
1043,0.000,0.035
1044,0.005,0.015
1045,-0.015,0.000
1046,-0.105,0.000
1047,-0.275,0.015
1048,-0.435,0.025
1049,-0.500,0.000
1050,-0.475,-0.075
1051,-0.415,-0.170
1052,-0.345,-0.245
1053,-0.290,-0.270
1054,-0.250,-0.250
1055,-0.235,-0.200
1056,-0.230,-0.155
1057,-0.235,-0.120
1058,-0.260,-0.095
1059,-0.280,-0.055
1060,-0.290,0.000
1061,-0.275,0.055
1062,-0.270,0.090
1063,-0.300,0.120
1064,-0.325,0.130
1065,-0.305,0.105
1066,-0.230,0.055
1067,-0.135,0.030
1068,-0.040,-0.010
1069,0.030,-0.080
1070,0.095,-0.125
1071,0.150,-0.155
1072,0.195,-0.170
1073,0.215,-0.175
1074,0.220,-0.155
1075,0.210,-0.130
1076,0.195,-0.110
1077,0.185,-0.085
1078,0.175,-0.050
1079,0.155,0.005
1080,0.085,0.100
1081,-0.030,0.220
1082,-0.165,0.320
1083,-0.250,0.330
1084,-0.250,0.255
1085,-0.175,0.135
1086,-0.070,0.000
1087,0.010,-0.105
1088,0.085,-0.180
1089,0.155,-0.205
1090,0.220,-0.195
1091,0.275,-0.175
1092,0.310,-0.155
1093,0.320,-0.130
1094,0.315,-0.100
1095,0.320,-0.055
1096,0.335,-0.015
1097,0.365,0.010
1098,0.370,0.030
1099,0.340,0.040
1100,0.250,0.045
1101,0.110,0.040
1102,-0.035,0.025
1103,-0.190,0.010
1104,-0.300,0.000
1105,-0.365,-0.015
1106,-0.380,-0.030
1107,-0.370,-0.035
1108,-0.345,-0.040
1109,-0.320,-0.050
1110,-0.295,-0.050
1111,-0.255,-0.055
1112,-0.205,-0.050
1113,-0.160,-0.035
1114,-0.110,-0.015
1115,-0.060,0.000
1116,-0.020,0.010
1117,0.005,0.015
1118,0.035,0.020
1119,0.060,0.020
1120,0.080,0.020
1121,0.090,0.025
1122,0.095,0.015
1123,0.100,0.015
1124,0.090,0.015
1125,0.075,0.020
1126,0.060,0.025
1127,0.045,0.030
1128,0.035,0.030
1129,0.020,0.035
1130,0.005,0.040
1131,0.000,0.040
1132,-0.005,0.040
1133,-0.020,0.045
1134,-0.040,0.050
1135,-0.055,0.055
1136,-0.075,0.065
1137,-0.090,0.075
1138,-0.105,0.085
1139,-0.125,0.090
1140,-0.150,0.090
1141,-0.190,0.085
1142,-0.240,0.075
1143,-0.290,0.070
1144,-0.330,0.065
1145,-0.355,0.065
1146,-0.380,0.065
1147,-0.405,0.065
1148,-0.400,0.060
1149,-0.375,0.050
1150,-0.335,0.030
1151,-0.290,0.010
1152,-0.245,0.000
1153,-0.195,0.005
1154,-0.155,0.035
1155,-0.120,0.060
1156,-0.075,0.070
1157,-0.035,0.085
1158,0.000,0.095
1159,0.015,0.090
1160,0.030,0.080
1161,0.045,0.080
1162,0.055,0.090
1163,0.070,0.095
1164,0.105,0.085
1165,0.145,0.065
1166,0.195,0.040
1167,0.235,0.025
1168,0.275,0.020
1169,0.305,0.030
1170,0.330,0.045
1171,0.350,0.060
1172,0.370,0.070
1173,0.385,0.095
1174,0.375,0.155
1175,0.305,0.260
1176,0.215,0.375
1177,0.155,0.430
1178,0.175,0.375
1179,0.260,0.245
1180,0.375,0.115
1181,0.465,0.015
1182,0.515,-0.030
1183,0.530,-0.035
1184,0.530,0.000
1185,0.530,0.045
1186,0.530,0.075
1187,0.530,0.075
1188,0.530,0.070
1189,0.530,0.075
1190,0.530,0.080
1191,0.530,0.075
1192,0.530,0.070
1193,0.525,0.070
1194,0.520,0.075
1195,0.480,0.075
1196,0.430,0.065
1197,0.390,0.055
1198,0.385,0.060
1199,0.385,0.070
1200,0.380,0.075
1201,0.350,0.065
1202,0.305,0.050
1203,0.260,0.055
1204,0.215,0.080
1205,0.175,0.090
1206,0.130,0.065
1207,0.080,0.030
1208,0.045,0.005
1209,0.020,0.000
1210,0.005,-0.010
1211,0.000,-0.020
1212,0.015,-0.020
1213,0.030,-0.015
1214,0.035,-0.015
1215,0.035,-0.010
1216,0.040,0.000
1217,0.040,0.015
1218,0.030,0.035
1219,0.020,0.050
1220,0.020,0.065
1221,0.025,0.075
1222,0.020,0.075
1223,0.015,0.075
1224,0.010,0.085
1225,0.000,0.095
1226,-0.010,0.095
1227,-0.025,0.095
1228,-0.030,0.090
1229,-0.035,0.075
1230,-0.040,0.060
1231,-0.040,0.050
1232,-0.040,0.030
1233,-0.045,0.000
1234,-0.055,-0.010
1235,-0.055,-0.020
1236,-0.055,-0.025
1237,-0.055,-0.035
1238,-0.055,-0.035
1239,-0.050,-0.035
1240,-0.040,-0.025
1241,-0.035,-0.010
1242,-0.030,0.000
1243,-0.030,0.000
1244,-0.045,0.005
1245,-0.055,0.015
1246,-0.065,0.025
1247,-0.085,0.035
1248,-0.110,0.045
1249,-0.145,0.060
1250,-0.180,0.065
1251,-0.220,0.070
1252,-0.250,0.070
1253,-0.275,0.070
1254,-0.285,0.065
1255,-0.285,0.050
1256,-0.285,0.045
1257,-0.280,0.045
1258,-0.265,0.035
1259,-0.240,0.020
1260,-0.215,0.000
1261,-0.200,-0.025
1262,-0.195,-0.040
1263,-0.190,-0.050
1264,-0.190,-0.055
1265,-0.195,-0.060
1266,-0.205,-0.065
1267,-0.205,-0.065
1268,-0.210,-0.055
1269,-0.250,0.000
1270,-0.330,0.100
1271,-0.425,0.215
1272,-0.475,0.255
1273,-0.445,0.185
1274,-0.350,0.040
1275,-0.225,-0.090
1276,-0.115,-0.195
1277,-0.045,-0.255
1278,-0.010,-0.260
1279,0.010,-0.235
1280,0.050,-0.210
1281,0.090,-0.190
1282,0.135,-0.180
1283,0.155,-0.185
1284,0.145,-0.195
1285,0.105,-0.195
1286,0.040,-0.185
1287,-0.030,-0.170
1288,-0.145,-0.145
1289,-0.290,-0.125
1290,-0.445,-0.105
1291,-0.515,-0.080
1292,-0.530,-0.055
1293,-0.530,-0.035
1294,-0.530,-0.015
1295,-0.530,0.000
1296,-0.530,0.000
1297,-0.465,0.005
1298,-0.345,0.010
1299,-0.225,0.010
1300,-0.125,0.005
1301,-0.050,0.000
1302,0.000,0.000
1303,0.045,0.000
1304,0.085,-0.005
1305,0.110,-0.015
1306,0.125,-0.020
1307,0.135,-0.020
1308,0.145,-0.020
1309,0.155,-0.020
1310,0.150,-0.015
1311,0.150,-0.015
1312,0.150,-0.010
1313,0.145,0.000
1314,0.140,0.000
1315,0.135,0.000
1316,0.130,0.000
1317,0.125,0.005
1318,0.120,0.000
1319,0.110,0.000
1320,0.100,0.000
1321,0.100,0.005
1322,0.095,0.005
1323,0.095,0.005
1324,0.095,0.005
1325,0.095,0.010
1326,0.095,0.015
1327,0.100,0.015
1328,0.105,0.015
1329,0.105,0.015
1330,0.095,0.020
1331,0.090,0.020
1332,0.085,0.025
1333,0.085,0.030
1334,0.085,0.035
1335,0.080,0.030
1336,0.075,0.030
1337,0.070,0.030
1338,0.070,0.030
1339,0.065,0.030
1340,0.060,0.030
1341,0.060,0.030
1342,0.055,0.045
1343,0.045,0.065
1344,0.040,0.090
1345,0.035,0.100
1346,0.030,0.110
1347,0.020,0.115
1348,0.015,0.105
1349,0.015,0.090
1350,0.020,0.080
1351,0.020,0.075
1352,0.020,0.080
1353,0.025,0.070
1354,0.035,0.050
1355,0.045,0.030
1356,0.055,0.005
1357,0.060,-0.005
1358,0.065,-0.010
1359,0.065,-0.010
1360,0.065,-0.015
1361,0.065,-0.010
1362,0.065,0.000
1363,0.055,0.020
1364,0.000,0.105
1365,-0.090,0.235
1366,-0.185,0.325
1367,-0.210,0.310
1368,-0.170,0.185
1369,-0.085,0.045
1370,-0.005,-0.060
1371,0.045,-0.140
1372,0.075,-0.175
1373,0.080,-0.160
1374,0.075,-0.125
1375,0.070,-0.095
1376,0.070,-0.075
1377,0.065,-0.070
1378,0.055,-0.070
1379,0.050,-0.065
1380,0.050,-0.060
1381,0.050,-0.050
1382,0.045,-0.050
1383,0.045,-0.050
1384,0.040,-0.050
1385,0.040,-0.045
1386,0.040,-0.040
1387,0.035,-0.040
1388,0.035,-0.040
1389,0.030,-0.040
1390,0.030,-0.035
1391,0.030,-0.030
1392,0.030,-0.030
1393,0.035,-0.030
1394,0.040,-0.030
1395,0.040,-0.030
1396,0.035,-0.030
1397,0.035,-0.030
1398,0.035,-0.035
1399,0.035,-0.040
1400,0.035,-0.045
1401,0.035,-0.045
1402,0.030,-0.040
1403,0.030,-0.035
1404,0.025,-0.025
1405,0.020,-0.020
1406,0.020,-0.015
1407,0.015,-0.005
1408,0.015,-0.005
1409,0.010,0.000
1410,0.000,0.000
1411,0.000,0.000
1412,0.000,0.000
1413,0.000,0.005
1414,0.000,0.005
1415,0.000,0.010
1416,0.000,0.010
1417,0.000,0.015
1418,0.000,0.015
1419,0.005,0.020
1420,0.005,0.015
1421,0.005,0.010
1422,0.005,0.010
1423,0.000,0.005
1424,0.000,0.000
1425,0.000,0.000
1426,0.000,0.000
1427,0.000,0.005
1428,0.000,0.000
1429,0.000,0.000
1430,0.000,0.000
1431,0.000,0.000
1432,0.000,0.000
1433,0.000,0.000
1434,0.000,0.000
1435,0.000,0.000
1436,0.000,0.010
1437,0.000,0.025
1438,-0.010,0.055
1439,-0.005,0.070
1440,-0.005,0.080
1441,-0.020,0.085
1442,-0.035,0.085
1443,-0.040,0.075
1444,-0.040,0.060
1445,-0.040,0.055
1446,-0.035,0.050
1447,-0.025,0.040
1448,-0.015,0.025
1449,-0.010,0.010
1450,0.000,0.000
1451,0.000,-0.010
1452,0.000,-0.020
1453,0.000,-0.025
1454,0.000,-0.025
1455,0.000,-0.020
1456,0.000,-0.010
1457,0.000,0.010
1458,-0.045,0.080
1459,-0.135,0.190
1460,-0.230,0.285
1461,-0.270,0.305
1462,-0.245,0.220
1463,-0.165,0.095
1464,-0.075,-0.020
1465,-0.010,-0.110
1466,0.015,-0.155
1467,0.025,-0.145
1468,0.015,-0.115
1469,0.015,-0.080
1470,0.015,-0.060
1471,0.020,-0.055
1472,0.020,-0.050
1473,0.015,-0.045
1474,0.015,-0.040
1475,0.015,-0.035
1476,0.015,-0.035
1477,0.010,-0.030
1478,0.010,-0.030
1479,0.010,-0.030
1480,0.010,-0.030
1481,0.010,-0.030
1482,0.010,-0.025
1483,0.010,-0.020
1484,0.010,-0.020
1485,0.010,-0.020
1486,0.010,-0.020
1487,0.005,-0.020
1488,0.005,-0.020
1489,0.010,-0.025
1490,0.015,-0.030
1491,0.015,-0.040
1492,0.015,-0.045
1493,0.020,-0.050
1494,0.020,-0.050
1495,0.025,-0.055
1496,0.030,-0.060
1497,0.030,-0.060
1498,0.025,-0.060
1499,0.025,-0.055
1500,0.025,-0.050
1501,0.015,-0.045
1502,0.010,-0.045
1503,0.010,-0.040
1504,0.005,-0.035
1505,0.005,-0.030
1506,0.005,-0.025
1507,0.005,-0.025
1508,0.005,-0.025
1509,0.000,-0.025
1510,0.000,-0.025
1511,0.000,-0.025
1512,-0.005,-0.025
1513,-0.005,-0.025
1514,0.000,-0.030
1515,0.000,-0.025
1516,0.000,-0.025
1517,0.005,-0.025
1518,0.005,-0.025
1519,0.000,-0.025
1520,0.000,-0.030
1521,0.000,-0.025
1522,0.000,-0.020
1523,0.000,-0.015
1524,0.000,-0.010
1525,0.005,-0.005
1526,0.010,0.000
1527,0.010,0.000
1528,0.005,0.000
1529,0.000,0.005
1530,0.000,0.015
1531,-0.015,0.035
1532,-0.020,0.065
1533,-0.025,0.095
1534,-0.030,0.115
1535,-0.040,0.120
1536,-0.045,0.125
1537,-0.035,0.115
1538,-0.035,0.095
1539,-0.035,0.085
1540,-0.040,0.075
1541,-0.035,0.065
1542,-0.025,0.045
1543,-0.015,0.025
1544,-0.005,0.005
1545,0.000,-0.005
1546,0.005,-0.015
1547,0.015,-0.025
1548,0.020,-0.035
1549,0.025,-0.040
1550,0.030,-0.040
1551,0.025,-0.020
1552,-0.005,0.040
1553,-0.090,0.150
1554,-0.175,0.240
1555,-0.215,0.250
1556,-0.190,0.150
1557,-0.115,0.010
1558,-0.035,-0.100
1559,0.025,-0.175
1560,0.060,-0.205
1561,0.075,-0.190
1562,0.080,-0.150
1563,0.085,-0.120
1564,0.080,-0.095
1565,0.075,-0.085
1566,0.070,-0.075
1567,0.055,-0.065
1568,0.050,-0.050
1569,0.045,-0.040
1570,0.040,-0.030
1571,0.030,-0.020
1572,0.025,-0.015
1573,0.020,-0.015
1574,0.020,-0.015
1575,0.015,-0.015
1576,0.005,-0.010
1577,0.000,-0.005
1578,-0.005,-0.005
1579,-0.005,-0.005
1580,0.000,-0.005
1581,0.000,-0.005
1582,0.005,-0.010
1583,0.020,-0.015
1584,0.035,-0.015
1585,0.050,-0.015
1586,0.055,-0.015
1587,0.060,-0.020
1588,0.060,-0.025
1589,0.055,-0.030
1590,0.045,-0.035
1591,0.035,-0.035
1592,0.035,-0.030
1593,0.035,-0.025
1594,0.035,-0.015
1595,0.035,-0.010
1596,0.030,-0.010
1597,0.030,-0.005
1598,0.020,0.000
1599,0.015,0.000
1600,0.010,0.010
1601,0.005,0.015
1602,0.000,0.030
1603,0.000,0.040
1604,0.000,0.050
1605,0.000,0.060
1606,0.000,0.070
1607,-0.005,0.075
1608,-0.010,0.075
1609,-0.015,0.080
1610,-0.025,0.080
1611,-0.030,0.085
1612,-0.030,0.080
1613,-0.025,0.080
1614,-0.020,0.080
1615,-0.015,0.075
1616,-0.010,0.075
1617,-0.010,0.070
1618,-0.010,0.065
1619,-0.010,0.065
1620,-0.015,0.060
1621,-0.015,0.050
1622,-0.015,0.050
1623,-0.010,0.050
1624,-0.010,0.060
1625,-0.010,0.080
1626,-0.015,0.105
1627,-0.025,0.120
1628,-0.040,0.125
1629,-0.060,0.130
1630,-0.070,0.135
1631,-0.070,0.115
1632,-0.065,0.095
1633,-0.060,0.090
1634,-0.050,0.090
1635,-0.040,0.075
1636,-0.035,0.060
1637,-0.030,0.035
1638,-0.020,0.010
1639,-0.005,0.000
1640,0.000,-0.010
1641,0.005,-0.015
1642,0.010,-0.005
1643,0.010,-0.005
1644,0.005,0.000
1645,-0.005,0.025
1646,-0.060,0.110
1647,-0.150,0.230
1648,-0.240,0.325
1649,-0.270,0.330
1650,-0.235,0.235
1651,-0.155,0.090
1652,-0.075,-0.025
1653,-0.015,-0.110
1654,0.005,-0.145
1655,0.010,-0.135
1656,0.010,-0.095
1657,0.015,-0.065
1658,0.020,-0.040
1659,0.025,-0.030
1660,0.030,-0.025
1661,0.035,-0.020
1662,0.030,-0.010
1663,0.030,-0.005
1664,0.030,0.000
1665,0.035,0.000
1666,0.040,0.000
1667,0.035,0.000
1668,0.035,0.000
1669,0.030,0.000
1670,0.030,0.000
1671,0.030,0.005
1672,0.025,0.005
1673,0.025,0.000
1674,0.025,0.000
1675,0.030,0.000
1676,0.035,0.000
1677,0.040,0.000
1678,0.045,0.000
1679,0.050,-0.005
1680,0.050,-0.010
1681,0.045,-0.010
1682,0.045,-0.010
1683,0.040,-0.010
1684,0.040,-0.005
1685,0.035,0.000
1686,0.030,0.000
1687,0.025,0.000
1688,0.020,0.005
1689,0.015,0.010
1690,0.010,0.010
1691,0.000,0.010
1692,0.000,0.010
1693,0.000,0.010
1694,0.000,0.010
1695,0.000,0.010
1696,0.000,0.015
1697,0.000,0.015
1698,0.005,0.020
1699,0.010,0.025
1700,0.010,0.030
1701,0.010,0.030
1702,0.005,0.030
1703,0.005,0.025
1704,0.000,0.020
1705,0.000,0.020
1706,0.000,0.025
1707,0.000,0.030
1708,0.000,0.035
1709,0.000,0.030
1710,0.000,0.025
1711,0.000,0.020
1712,0.000,0.020
1713,0.000,0.020
1714,0.000,0.025
1715,0.000,0.030
1716,0.000,0.035
1717,0.000,0.035
1718,0.000,0.045
1719,0.000,0.065
1720,0.000,0.095
1721,-0.010,0.110
1722,-0.020,0.115
1723,-0.035,0.125
1724,-0.040,0.125
1725,-0.040,0.110
1726,-0.040,0.095
1727,-0.035,0.095
1728,-0.030,0.095
1729,-0.015,0.090
1730,-0.005,0.075
1731,0.000,0.050
1732,0.010,0.025
1733,0.015,0.005
1734,0.015,0.000
1735,0.015,-0.010
1736,0.015,-0.010
1737,0.015,-0.005
1738,0.020,0.000
1739,0.010,0.020
1740,-0.020,0.100
1741,-0.115,0.220
1742,-0.205,0.315
1743,-0.245,0.325
1744,-0.205,0.230
1745,-0.125,0.085
1746,-0.040,-0.030
1747,0.015,-0.120
1748,0.045,-0.150
1749,0.055,-0.135
1750,0.055,-0.100
1751,0.055,-0.060
1752,0.060,-0.045
1753,0.055,-0.045
1754,0.055,-0.040
1755,0.050,-0.040
1756,0.045,-0.030
1757,0.045,-0.025
1758,0.035,-0.025
1759,0.020,-0.025
1760,0.020,-0.030
1761,0.020,-0.030
1762,0.020,-0.030
1763,0.015,-0.025
1764,0.015,-0.020
1765,0.015,-0.015
1766,0.015,-0.015
1767,0.015,-0.020
1768,0.020,-0.020
1769,0.030,-0.020
1770,0.035,-0.015
1771,0.040,-0.015
1772,0.045,-0.020
1773,0.050,-0.020
1774,0.055,-0.025
1775,0.050,-0.025
1776,0.045,-0.025
1777,0.040,-0.025
1778,0.040,-0.030
1779,0.040,-0.025
1780,0.040,-0.015
1781,0.035,-0.010
1782,0.030,-0.005
1783,0.020,-0.005
1784,0.010,0.000
1785,0.005,0.000
1786,0.000,0.010
1787,0.000,0.020
1788,0.000,0.020
1789,0.000,0.010
1790,0.000,0.010
1791,0.000,0.015
1792,0.000,0.020
1793,0.000,0.020
1794,0.000,0.025
1795,0.000,0.025
1796,0.000,0.025
1797,0.000,0.020
1798,0.000,0.015
1799,0.000,0.010
1800,0.000,0.005
1801,-0.005,0.000
1802,-0.005,0.000
1803,0.000,0.000
1804,0.000,0.000
1805,0.005,0.000
1806,0.005,-0.005
1807,0.005,-0.010
1808,0.005,-0.015
1809,0.005,-0.020
1810,0.005,-0.020
1811,0.005,-0.015
1812,0.005,-0.005
1813,0.000,0.010
1814,0.000,0.030
1815,-0.005,0.045
1816,-0.015,0.055
1817,-0.025,0.060
1818,-0.035,0.055
1819,-0.045,0.045
1820,-0.045,0.030
1821,-0.040,0.025
1822,-0.035,0.025
1823,-0.025,0.015
1824,-0.020,0.000
1825,-0.010,-0.010
1826,-0.005,-0.030
1827,0.000,-0.050
1828,0.000,-0.065
1829,0.000,-0.060
1830,0.005,-0.060
1831,0.005,-0.055
1832,0.010,-0.045
1833,0.005,-0.010
1834,-0.040,0.070
1835,-0.135,0.200
1836,-0.225,0.285
1837,-0.245,0.260
1838,-0.200,0.135
1839,-0.115,-0.005
1840,-0.030,-0.115
1841,0.015,-0.180
1842,0.030,-0.195
1843,0.030,-0.175
1844,0.030,-0.130
1845,0.035,-0.105
1846,0.040,-0.100
1847,0.040,-0.095
1848,0.045,-0.085
1849,0.045,-0.075
1850,0.050,-0.060
1851,0.050,-0.055
1852,0.055,-0.050
1853,0.060,-0.045
1854,0.065,-0.040
1855,0.070,-0.040
1856,0.070,-0.040
1857,0.070,-0.035
1858,0.070,-0.030
1859,0.075,-0.025
1860,0.075,-0.025
1861,0.075,-0.025
1862,0.080,-0.020
1863,0.085,-0.025
1864,0.075,-0.035
1865,0.075,-0.035
1866,0.080,-0.030
1867,0.085,-0.020
1868,0.085,-0.020
1869,0.085,-0.015
1870,0.080,-0.010
1871,0.075,-0.005
1872,0.075,0.000
1873,0.070,0.000
1874,0.060,0.005
1875,0.055,0.005
1876,0.050,0.010
1877,0.045,0.020
1878,0.045,0.025
1879,0.040,0.030
1880,0.030,0.030
1881,0.030,0.030
1882,0.030,0.030
1883,0.030,0.030
1884,0.025,0.035
1885,0.020,0.040
1886,0.020,0.040
1887,0.020,0.040
1888,0.020,0.045
1889,0.025,0.055
1890,0.020,0.055
1891,0.015,0.045
1892,0.015,0.040
1893,0.015,0.040
1894,0.020,0.040
1895,0.025,0.040
1896,0.025,0.030
1897,0.020,0.025
1898,0.015,0.015
1899,0.015,0.010
1900,0.015,0.010
1901,0.010,0.010
1902,0.010,0.010
1903,0.010,0.015
1904,0.005,0.015
1905,0.000,0.025
1906,0.000,0.040
1907,-0.005,0.065
1908,-0.015,0.090
1909,-0.020,0.105
1910,-0.025,0.110
1911,-0.030,0.110
1912,-0.025,0.100
1913,-0.020,0.090
1914,-0.020,0.095
1915,-0.015,0.090
1916,-0.010,0.085
1917,0.000,0.070
1918,0.000,0.045
1919,0.005,0.020
1920,0.010,0.005
1921,0.010,0.000
1922,0.010,0.000
1923,0.015,0.000
1924,0.015,0.000
1925,0.015,0.000
1926,0.015,0.035
1927,-0.030,0.125
1928,-0.125,0.250
1929,-0.220,0.350
1930,-0.260,0.350
1931,-0.220,0.245
1932,-0.145,0.105
1933,-0.055,-0.010
1934,0.000,-0.095
1935,0.030,-0.135
1936,0.040,-0.125
1937,0.035,-0.095
1938,0.035,-0.060
1939,0.035,-0.040
1940,0.040,-0.030
1941,0.045,-0.015
1942,0.045,-0.015
1943,0.045,-0.015
1944,0.050,-0.015
1945,0.055,-0.015
1946,0.055,-0.010
1947,0.055,-0.010
1948,0.060,-0.005
1949,0.060,0.000
1950,0.060,0.000
1951,0.060,-0.005
1952,0.060,-0.005
1953,0.060,-0.005
1954,0.060,0.000
1955,0.060,0.000
1956,0.065,0.000
1957,0.070,0.000
1958,0.075,0.000
1959,0.080,-0.005
1960,0.075,-0.015
1961,0.070,-0.010
1962,0.065,-0.010
1963,0.065,-0.010
1964,0.060,-0.015
1965,0.050,-0.020
1966,0.045,-0.020
1967,0.045,-0.015
1968,0.035,-0.015
1969,0.030,-0.010
1970,0.025,0.000
1971,0.020,0.000
1972,0.020,0.005
1973,0.020,0.005
1974,0.020,0.005
1975,0.010,0.005
1976,0.010,0.005
1977,0.005,0.000
1978,0.005,0.000
1979,0.005,0.000
1980,0.000,0.000
1981,0.000,0.005
1982,0.000,0.010
1983,0.000,0.015
1984,-0.005,0.015
1985,-0.005,0.015
1986,-0.005,0.020
1987,0.000,0.030
1988,0.000,0.030
1989,0.000,0.030
1990,0.000,0.030
1991,-0.010,0.035
1992,-0.010,0.030
1993,-0.010,0.030
1994,-0.015,0.030
1995,-0.015,0.035
1996,-0.020,0.035
1997,-0.020,0.035
1998,-0.020,0.045
1999,-0.025,0.060
2000,-0.040,0.075
2001,-0.050,0.095
2002,-0.050,0.110
2003,-0.060,0.115
2004,-0.075,0.120
2005,-0.075,0.110
2006,-0.075,0.090
2007,-0.070,0.080
2008,-0.070,0.080
2009,-0.060,0.085
2010,-0.050,0.065
2011,-0.040,0.040
2012,-0.030,0.015
2013,-0.020,0.000
2014,-0.015,-0.005
2015,-0.015,-0.010
2016,-0.015,-0.015
2017,-0.015,-0.020
2018,-0.010,-0.015
2019,-0.010,0.000
2020,-0.035,0.050
2021,-0.110,0.150
2022,-0.210,0.270
2023,-0.280,0.330
2024,-0.285,0.285
2025,-0.220,0.160
2026,-0.125,0.025
2027,-0.045,-0.075
2028,0.000,-0.140
2029,0.015,-0.155
2030,0.015,-0.130
2031,0.015,-0.090
2032,0.015,-0.070
2033,0.015,-0.060
2034,0.020,-0.050
2035,0.015,-0.040
2036,0.015,-0.040
2037,0.015,-0.040
2038,0.020,-0.040
2039,0.025,-0.040
2040,0.020,-0.040
2041,0.020,-0.040
2042,0.020,-0.035
2043,0.025,-0.030
2044,0.025,-0.030
2045,0.025,-0.030
2046,0.025,-0.025
2047,0.025,-0.025
2048,0.025,-0.025
2049,0.025,-0.025
2050,0.030,-0.030
2051,0.030,-0.025
2052,0.030,-0.025
2053,0.030,-0.035
2054,0.035,-0.045
2055,0.035,-0.050
2056,0.035,-0.050
2057,0.030,-0.050
2058,0.025,-0.050
2059,0.025,-0.050
2060,0.025,-0.050
2061,0.015,-0.050
2062,0.010,-0.045
2063,0.005,-0.035
2064,0.000,-0.030
2065,0.000,-0.025
2066,0.000,-0.020
2067,0.000,-0.010
2068,-0.005,-0.005
2069,-0.005,-0.005
2070,-0.010,-0.005
2071,-0.005,0.000
2072,-0.005,0.000
2073,-0.005,-0.005
2074,-0.005,0.000
2075,-0.005,0.005
2076,-0.005,0.005
2077,-0.005,0.005
2078,-0.005,0.005
2079,-0.005,0.000
2080,-0.005,0.000
2081,0.000,0.000
2082,0.000,0.005
2083,0.000,0.005
2084,0.000,0.005
2085,0.000,0.005
2086,-0.005,0.000
2087,-0.005,0.000
2088,-0.010,0.005
2089,-0.010,0.005
2090,-0.015,0.010
2091,-0.015,0.010
2092,-0.015,0.020
2093,-0.020,0.045
2094,-0.025,0.070
2095,-0.030,0.085
2096,-0.040,0.090
2097,-0.050,0.090
2098,-0.055,0.085
2099,-0.055,0.075
2100,-0.050,0.070
2101,-0.045,0.060
2102,-0.035,0.045
2103,-0.025,0.030
2104,-0.015,0.015
2105,-0.005,-0.005
2106,0.005,-0.040
2107,0.010,-0.065
2108,0.015,-0.070
2109,0.020,-0.065
2110,0.025,-0.060
2111,0.035,-0.055
2112,0.040,-0.045
2113,0.025,-0.005
2114,-0.025,0.075
2115,-0.120,0.190
2116,-0.200,0.270
2117,-0.220,0.250
2118,-0.170,0.135
2119,-0.085,0.000
2120,0.000,-0.110
2121,0.045,-0.180
2122,0.065,-0.195
2123,0.060,-0.175
2124,0.060,-0.145
2125,0.060,-0.115
2126,0.060,-0.090
2127,0.060,-0.085
2128,0.055,-0.080
2129,0.055,-0.075
2130,0.055,-0.075
2131,0.055,-0.070
2132,0.055,-0.060
2133,0.055,-0.055
2134,0.055,-0.055
2135,0.055,-0.055
2136,0.050,-0.050
2137,0.050,-0.045
2138,0.050,-0.045
2139,0.050,-0.045
2140,0.045,-0.040
2141,0.045,-0.035
2142,0.050,-0.030
2143,0.050,-0.030
2144,0.055,-0.035
2145,0.060,-0.040
2146,0.060,-0.040
2147,0.060,-0.040
2148,0.060,-0.050
2149,0.060,-0.060
2150,0.060,-0.055
2151,0.055,-0.050
2152,0.055,-0.045
2153,0.055,-0.035
2154,0.050,-0.030
2155,0.045,-0.025
2156,0.040,-0.020
2157,0.030,-0.015
2158,0.030,-0.010
2159,0.030,-0.010
2160,0.030,-0.015
2161,0.025,-0.015
2162,0.025,-0.015
2163,0.025,-0.015
2164,0.025,-0.010
2165,0.020,-0.005
2166,0.020,0.000
2167,0.020,0.000
2168,0.020,0.010
2169,0.020,0.010
2170,0.020,0.010
2171,0.020,0.015
2172,0.020,0.020
2173,0.020,0.025
2174,0.020,0.020
2175,0.015,0.020
2176,0.015,0.020
2177,0.015,0.020
2178,0.010,0.025
2179,0.010,0.015
2180,0.010,0.010
2181,0.010,0.010
2182,0.010,0.015
2183,0.010,0.010
2184,0.010,0.010
2185,0.005,0.030
2186,0.000,0.060
2187,0.000,0.080
2188,0.000,0.095
2189,-0.010,0.105
2190,-0.020,0.110
2191,-0.025,0.105
2192,-0.020,0.090
2193,-0.015,0.090
2194,-0.015,0.090
2195,-0.010,0.090
2196,0.000,0.075
2197,0.000,0.055
2198,0.000,0.030
2199,0.010,0.010
2200,0.015,0.000
2201,0.015,0.000
2202,0.020,0.000
2203,0.015,-0.005
2204,0.015,0.000
2205,0.015,0.010
2206,-0.005,0.065
2207,-0.070,0.160
2208,-0.165,0.275
2209,-0.225,0.330
2210,-0.225,0.275
2211,-0.165,0.130
2212,-0.075,-0.005
2213,0.000,-0.095
2214,0.030,-0.155
2215,0.045,-0.165
2216,0.045,-0.135
2217,0.045,-0.105
2218,0.045,-0.075
2219,0.045,-0.055
2220,0.045,-0.040
2221,0.040,-0.040
2222,0.040,-0.035
2223,0.040,-0.035
2224,0.040,-0.035
2225,0.040,-0.035
2226,0.040,-0.030
2227,0.040,-0.020
2228,0.035,-0.020
2229,0.030,-0.025
2230,0.030,-0.025
2231,0.035,-0.025
2232,0.035,-0.025
2233,0.035,-0.020
2234,0.035,-0.010
2235,0.040,-0.010
2236,0.040,-0.015
2237,0.040,-0.020
2238,0.045,-0.020
2239,0.045,-0.025
2240,0.045,-0.025
2241,0.040,-0.020
2242,0.040,-0.020
2243,0.040,-0.025
2244,0.035,-0.025
2245,0.030,-0.020
2246,0.030,-0.015
2247,0.025,-0.010
2248,0.020,-0.010
2249,0.015,-0.005
2250,0.010,0.000
2251,0.010,0.000
2252,0.005,0.005
2253,0.000,0.005
2254,0.000,0.010
2255,0.000,0.005
2256,0.000,0.005
2257,0.000,0.005
2258,0.000,0.010
2259,0.000,0.015
2260,0.000,0.020
2261,0.000,0.020
2262,0.000,0.020
2263,0.000,0.020
2264,0.000,0.020
2265,0.000,0.020
2266,0.000,0.020
2267,-0.005,0.030
2268,-0.005,0.025
2269,0.000,0.015
2270,0.000,0.015
2271,-0.005,0.015
2272,-0.005,0.025
2273,-0.005,0.030
2274,-0.005,0.030
2275,-0.010,0.020
2276,-0.010,0.020
2277,-0.015,0.030
2278,-0.015,0.060
2279,-0.020,0.085
2280,-0.025,0.105
2281,-0.030,0.110
2282,-0.045,0.115
2283,-0.050,0.120
2284,-0.045,0.105
2285,-0.040,0.090
2286,-0.035,0.085
2287,-0.030,0.080
2288,-0.025,0.070
2289,-0.015,0.050
2290,-0.005,0.035
2291,0.000,0.010
2292,0.005,0.000
2293,0.010,-0.015
2294,0.010,-0.015
2295,0.010,-0.015
2296,0.010,-0.015
2297,0.015,-0.010
2298,0.010,0.000
2299,-0.015,0.065
2300,-0.105,0.185
2301,-0.205,0.290
2302,-0.260,0.330
2303,-0.245,0.255
2304,-0.170,0.105
2305,-0.070,-0.025
2306,0.000,-0.125
2307,0.030,-0.175
2308,0.035,-0.170
2309,0.035,-0.130
2310,0.035,-0.095
2311,0.035,-0.075
2312,0.035,-0.060
2313,0.030,-0.045
2314,0.030,-0.045
2315,0.025,-0.040
2316,0.025,-0.035
2317,0.025,-0.030
2318,0.020,-0.020
2319,0.020,-0.020
2320,0.025,-0.020
2321,0.025,-0.015
2322,0.025,-0.015
2323,0.030,-0.020
2324,0.025,-0.020
2325,0.025,-0.015
2326,0.025,-0.015
2327,0.030,-0.015
2328,0.035,-0.015
2329,0.035,-0.015
2330,0.040,-0.015
2331,0.040,-0.025
2332,0.045,-0.030
2333,0.040,-0.020
2334,0.040,-0.020
2335,0.040,-0.030
2336,0.040,-0.040
2337,0.035,-0.035
2338,0.030,-0.030
2339,0.025,-0.025
2340,0.015,-0.020
2341,0.010,-0.015
2342,0.010,-0.015
2343,0.005,-0.010
2344,0.005,-0.005
2345,0.000,0.000
2346,0.000,0.000
2347,0.000,0.000
2348,0.000,0.000
2349,0.000,0.000
2350,0.000,0.005
2351,0.000,0.005
2352,0.000,0.000
2353,0.000,0.000
2354,0.000,0.000
2355,0.000,0.010
2356,0.000,0.015
2357,0.000,0.020
2358,0.000,0.015
2359,-0.005,0.015
2360,-0.010,0.020
2361,-0.010,0.025
2362,-0.010,0.025
2363,-0.010,0.025
2364,-0.010,0.025
2365,-0.010,0.025
2366,-0.010,0.015
2367,-0.005,0.010
2368,-0.005,0.010
2369,-0.005,0.020
2370,-0.005,0.035
2371,-0.010,0.060
2372,-0.020,0.085
2373,-0.025,0.100
2374,-0.030,0.100
2375,-0.040,0.110
2376,-0.045,0.105
2377,-0.040,0.090
2378,-0.030,0.075
2379,-0.025,0.065
2380,-0.020,0.060
2381,-0.010,0.045
2382,0.000,0.020
2383,0.005,0.000
2384,0.015,-0.015
2385,0.025,-0.025
2386,0.035,-0.035
2387,0.035,-0.035
2388,0.035,-0.035
2389,0.035,-0.030
2390,0.035,-0.025
2391,0.035,0.000
2392,-0.010,0.075
2393,-0.110,0.190
2394,-0.195,0.280
2395,-0.215,0.250
2396,-0.165,0.125
2397,-0.075,-0.010
2398,0.000,-0.120
2399,0.060,-0.185
2400,0.090,-0.205
2401,0.095,-0.185
2402,0.090,-0.155
2403,0.085,-0.120
2404,0.080,-0.105
2405,0.075,-0.090
2406,0.070,-0.085
2407,0.070,-0.075
2408,0.065,-0.075
2409,0.065,-0.065
2410,0.055,-0.055
2411,0.055,-0.050
2412,0.050,-0.040
2413,0.050,-0.040
2414,0.045,-0.040
2415,0.045,-0.040
2416,0.045,-0.040
2417,0.045,-0.035
2418,0.040,-0.025
2419,0.040,-0.010
2420,0.040,-0.010
2421,0.045,-0.015
2422,0.045,-0.025
2423,0.050,-0.025
2424,0.050,-0.020
2425,0.055,-0.015
2426,0.055,-0.015
2427,0.050,-0.025
2428,0.045,-0.030
2429,0.040,-0.030
2430,0.035,-0.025
2431,0.030,-0.015
2432,0.030,-0.015
2433,0.020,-0.005
2434,0.015,0.000
2435,0.010,0.005
2436,0.005,0.010
2437,0.005,0.010
2438,0.000,0.010
2439,0.000,0.020
2440,0.000,0.030
2441,0.000,0.035
2442,0.000,0.040
2443,0.000,0.040
2444,0.000,0.040
2445,0.000,0.040
2446,0.000,0.040
2447,0.000,0.050
2448,0.000,0.065
2449,0.000,0.070
2450,0.000,0.065
2451,0.000,0.060
2452,0.000,0.060
2453,0.000,0.065
2454,-0.005,0.070
2455,0.000,0.070
2456,0.000,0.065
2457,0.000,0.060
2458,0.000,0.055
2459,0.000,0.050
2460,0.000,0.045
2461,0.000,0.045
2462,0.000,0.045
2463,-0.005,0.055
2464,-0.015,0.075
2465,-0.020,0.100
2466,-0.025,0.115
2467,-0.035,0.115
2468,-0.045,0.115
2469,-0.045,0.110
2470,-0.040,0.090
2471,-0.040,0.080
2472,-0.035,0.075
2473,-0.025,0.065
2474,-0.010,0.050
2475,-0.005,0.030
2476,0.000,0.005
2477,0.000,-0.005
2478,0.005,-0.015
2479,0.005,-0.020
2480,0.005,-0.025
2481,0.005,-0.020
2482,0.010,-0.010
2483,0.015,0.005
2484,-0.010,0.070
2485,-0.095,0.180
2486,-0.195,0.290
2487,-0.245,0.330
2488,-0.230,0.255
2489,-0.160,0.125
2490,-0.070,0.000
2491,0.000,-0.090
2492,0.030,-0.135
2493,0.045,-0.140
2494,0.035,-0.115
2495,0.035,-0.075
2496,0.035,-0.035
2497,0.035,-0.015
2498,0.035,-0.010
2499,0.035,-0.010
2500,0.035,-0.005
2501,0.035,0.000
2502,0.035,0.000
2503,0.035,0.000
2504,0.035,0.005
2505,0.035,0.000
2506,0.035,0.000
2507,0.035,-0.005
2508,0.035,0.000
2509,0.035,0.000
2510,0.035,0.000
2511,0.040,0.000
2512,0.045,0.000
2513,0.040,0.000
2514,0.040,-0.010
2515,0.045,-0.015
2516,0.050,-0.020
2517,0.050,-0.025
2518,0.050,-0.025
2519,0.050,-0.020
2520,0.050,-0.020
2521,0.050,-0.020
2522,0.050,-0.025
2523,0.040,-0.020
2524,0.035,-0.010
2525,0.030,0.000
2526,0.025,0.000
2527,0.020,0.010
2528,0.015,0.015
2529,0.010,0.020
2530,0.005,0.025
2531,0.005,0.030
2532,0.000,0.030
2533,0.000,0.035
2534,0.000,0.040
2535,0.005,0.040
2536,0.005,0.035
2537,0.005,0.035
2538,0.005,0.040
2539,0.010,0.035
2540,0.010,0.030
2541,0.010,0.035
2542,0.010,0.045
2543,0.010,0.045
2544,0.005,0.040
2545,0.000,0.040
2546,0.000,0.035
2547,0.000,0.035
2548,0.000,0.040
2549,0.000,0.045
2550,0.000,0.040
2551,0.000,0.035
2552,0.000,0.030
2553,0.000,0.030
2554,0.000,0.040
2555,0.000,0.050
2556,0.000,0.070
2557,0.000,0.095
2558,-0.005,0.105
2559,-0.010,0.115
2560,-0.020,0.120
2561,-0.020,0.120
2562,-0.025,0.105
2563,-0.020,0.090
2564,-0.020,0.080
2565,-0.015,0.075
2566,-0.005,0.060
2567,0.000,0.040
2568,0.005,0.015
2569,0.015,0.000
2570,0.020,-0.010
2571,0.025,-0.020
2572,0.030,-0.025
2573,0.030,-0.020
2574,0.030,-0.010
2575,0.040,0.000
2576,0.030,0.025
2577,-0.020,0.110
2578,-0.115,0.235
2579,-0.205,0.320
2580,-0.230,0.310
2581,-0.190,0.210
2582,-0.110,0.075
2583,-0.025,-0.035
2584,0.025,-0.110
2585,0.050,-0.145
2586,0.055,-0.130
2587,0.045,-0.095
2588,0.045,-0.055
2589,0.045,-0.035
2590,0.045,-0.025
2591,0.050,-0.025
2592,0.050,-0.020
2593,0.055,-0.020
2594,0.055,-0.015
2595,0.060,-0.010
2596,0.065,-0.015
2597,0.065,-0.015
2598,0.070,-0.010
2599,0.070,-0.010
2600,0.070,-0.005
2601,0.070,-0.005
2602,0.070,-0.005
2603,0.070,-0.005
2604,0.070,-0.005
2605,0.070,-0.005
2606,0.070,-0.010
2607,0.065,-0.015
2608,0.065,-0.015
2609,0.060,-0.020
2610,0.060,-0.025
2611,0.060,-0.025
2612,0.055,-0.025
2613,0.055,-0.025
2614,0.050,-0.020
2615,0.050,-0.015
2616,0.045,-0.010
2617,0.035,-0.005
2618,0.030,0.000
2619,0.025,0.000
2620,0.020,0.005
2621,0.015,0.015
2622,0.010,0.020
2623,0.005,0.020
2624,0.000,0.020
2625,0.000,0.020
2626,0.000,0.020
2627,-0.005,0.020
2628,-0.005,0.020
2629,0.000,0.020
2630,0.000,0.020
2631,0.000,0.020
2632,0.000,0.020
2633,0.000,0.015
2634,0.000,0.015
2635,0.000,0.015
2636,0.000,0.020
2637,0.000,0.020
2638,0.000,0.020
2639,0.000,0.025
2640,0.000,0.030
2641,0.000,0.025
2642,0.000,0.025
2643,0.000,0.025
2644,0.000,0.025
2645,0.000,0.025
2646,0.000,0.025
2647,0.000,0.030
2648,-0.005,0.045
2649,-0.010,0.065
2650,-0.015,0.075
2651,-0.015,0.080
2652,-0.020,0.085
2653,-0.025,0.090
2654,-0.020,0.080
2655,-0.015,0.065
2656,-0.010,0.060
2657,-0.005,0.055
2658,0.000,0.040
2659,0.005,0.020
2660,0.015,0.005
2661,0.030,-0.015
2662,0.035,-0.035
2663,0.035,-0.045
2664,0.040,-0.050
2665,0.045,-0.055
2666,0.045,-0.055
2667,0.050,-0.050
2668,0.045,-0.025
2669,0.010,0.030
2670,-0.060,0.130
2671,-0.155,0.230
2672,-0.210,0.265
2673,-0.190,0.190
2674,-0.120,0.055
2675,-0.030,-0.065
2676,0.035,-0.145
2677,0.075,-0.185
2678,0.090,-0.180
2679,0.090,-0.150
2680,0.090,-0.115
2681,0.090,-0.090
2682,0.090,-0.075
2683,0.090,-0.065
2684,0.085,-0.050
2685,0.085,-0.045
2686,0.080,-0.040
2687,0.080,-0.030
2688,0.080,-0.025
2689,0.075,-0.020
2690,0.075,-0.015
2691,0.070,-0.015
2692,0.070,-0.010
2693,0.070,-0.010
2694,0.075,-0.010
2695,0.075,-0.015
2696,0.075,-0.015
2697,0.075,-0.015
2698,0.075,-0.020
2699,0.080,-0.025
2700,0.085,-0.030
2701,0.090,-0.035
2702,0.095,-0.035
2703,0.090,-0.035
2704,0.090,-0.040
2705,0.085,-0.035
2706,0.080,-0.030
2707,0.080,-0.025
2708,0.075,-0.020
2709,0.070,-0.010
2710,0.065,-0.005
2711,0.060,0.000
2712,0.055,0.000
2713,0.050,0.000
2714,0.045,0.005
2715,0.040,0.015
2716,0.035,0.020
2717,0.035,0.025
2718,0.030,0.030
2719,0.030,0.035
2720,0.030,0.040
2721,0.025,0.040
2722,0.025,0.045
2723,0.020,0.045
2724,0.020,0.045
2725,0.015,0.050
2726,0.015,0.050
2727,0.010,0.055
2728,0.005,0.060
2729,0.005,0.070
2730,0.000,0.070
2731,0.000,0.070
2732,0.000,0.075
2733,-0.005,0.080
2734,-0.010,0.085
2735,-0.010,0.090
2736,-0.015,0.090
2737,-0.015,0.090
2738,-0.015,0.090
2739,-0.015,0.095
2740,-0.020,0.115
2741,-0.025,0.135
2742,-0.030,0.150
2743,-0.035,0.155
2744,-0.045,0.160
2745,-0.050,0.155
2746,-0.040,0.145
2747,-0.040,0.135
2748,-0.040,0.130
2749,-0.035,0.125
2750,-0.025,0.110
2751,-0.010,0.090
2752,-0.005,0.070
2753,0.000,0.040
2754,0.005,0.015
2755,0.010,0.000
2756,0.010,0.000
2757,0.015,-0.010
2758,0.015,-0.010
2759,0.020,-0.005
2760,0.015,0.015
2761,-0.020,0.085
2762,-0.105,0.205
2763,-0.200,0.305
2764,-0.245,0.315
2765,-0.215,0.215
2766,-0.135,0.070
2767,-0.045,-0.045
2768,0.010,-0.135
2769,0.045,-0.170
2770,0.045,-0.160
2771,0.045,-0.130
2772,0.045,-0.090
2773,0.040,-0.060
2774,0.040,-0.050
2775,0.035,-0.035
2776,0.035,-0.025
2777,0.035,-0.020
2778,0.030,-0.010
2779,0.030,-0.005
2780,0.025,-0.005
2781,0.025,0.000
2782,0.030,0.000
2783,0.025,0.000
2784,0.025,0.010
2785,0.025,0.015
2786,0.030,0.015
2787,0.030,0.020
2788,0.030,0.015
2789,0.030,0.015
2790,0.030,0.015
2791,0.035,0.010
2792,0.040,0.005
2793,0.040,0.000
2794,0.040,0.000
2795,0.040,0.000
2796,0.040,0.000
2797,0.045,-0.005
2798,0.050,-0.005
2799,0.050,-0.005
2800,0.050,0.000
2801,0.045,0.000
2802,0.035,0.000
2803,0.025,0.005
2804,0.015,0.005
2805,0.010,0.000
2806,0.005,0.000
2807,0.000,0.000
2808,0.000,0.005
2809,0.000,0.005
2810,0.000,0.000
2811,0.000,0.000
2812,0.000,0.005
2813,0.005,0.015
2814,0.005,0.015
2815,0.010,0.015
2816,0.010,0.015
2817,0.010,0.010
2818,0.005,0.010
2819,0.000,0.010
2820,0.000,0.015
2821,0.000,0.015
2822,0.000,0.020
2823,-0.005,0.025
2824,-0.005,0.020
2825,-0.010,0.020
2826,-0.005,0.020
2827,-0.005,0.020
2828,-0.005,0.020
2829,-0.010,0.025
2830,-0.005,0.035
2831,-0.005,0.045
2832,-0.005,0.060
2833,-0.010,0.085
2834,-0.015,0.100
2835,-0.025,0.105
2836,-0.035,0.115
2837,-0.045,0.120
2838,-0.050,0.115
2839,-0.050,0.100
2840,-0.045,0.095
2841,-0.040,0.090
2842,-0.035,0.085
2843,-0.025,0.070
2844,-0.015,0.055
2845,-0.005,0.030
2846,0.000,0.010
2847,0.005,0.000
2848,0.005,-0.005
2849,0.005,-0.005
2850,0.005,0.000
2851,0.005,0.000
2852,0.000,0.015
2853,-0.025,0.080
2854,-0.105,0.190
2855,-0.210,0.310
2856,-0.265,0.355
2857,-0.250,0.270
2858,-0.175,0.120
2859,-0.085,-0.005
2860,-0.005,-0.105
2861,0.025,-0.155
2862,0.030,-0.160
2863,0.035,-0.130
2864,0.035,-0.095
2865,0.030,-0.065
2866,0.030,-0.055
2867,0.030,-0.055
2868,0.025,-0.050
2869,0.020,-0.040
2870,0.020,-0.035
2871,0.020,-0.035
2872,0.020,-0.035
2873,0.020,-0.025
2874,0.020,-0.025
2875,0.020,-0.020
2876,0.020,-0.015
2877,0.020,-0.015
2878,0.020,-0.015
2879,0.020,-0.015
2880,0.020,-0.015
2881,0.020,-0.015
2882,0.020,-0.015
2883,0.025,-0.015
2884,0.030,-0.020
2885,0.030,-0.015
2886,0.030,-0.015
2887,0.030,-0.020
2888,0.030,-0.025
2889,0.030,-0.035
2890,0.030,-0.030
2891,0.030,-0.025
2892,0.025,-0.020
2893,0.020,-0.015
2894,0.015,-0.010
2895,0.010,0.000
2896,0.005,0.000
2897,0.005,0.000
2898,0.000,0.000
2899,0.000,0.000
2900,0.000,0.000
2901,0.000,0.005
2902,0.000,0.005
2903,-0.005,0.005
2904,-0.005,0.010
2905,0.000,0.010
2906,0.000,0.010
2907,0.000,0.015
2908,0.000,0.015
2909,0.000,0.020
2910,0.000,0.020
2911,0.000,0.015
2912,0.000,0.010
2913,0.000,0.010
2914,0.000,0.015
2915,0.000,0.015
2916,0.000,0.010
2917,0.000,0.010
2918,-0.005,0.015
2919,-0.005,0.020
2920,-0.005,0.020
2921,-0.005,0.020
2922,-0.005,0.020
2923,-0.005,0.025
2924,-0.010,0.040
2925,-0.015,0.065
2926,-0.020,0.090
2927,-0.025,0.100
2928,-0.030,0.105
2929,-0.040,0.110
2930,-0.050,0.105
2931,-0.045,0.095
2932,-0.045,0.090
2933,-0.040,0.085
2934,-0.035,0.080
2935,-0.025,0.065
2936,-0.015,0.050
2937,-0.005,0.035
2938,0.000,0.015
2939,0.000,0.000
2940,0.005,0.000
2941,0.005,0.000
2942,0.005,0.000
2943,0.005,0.000
2944,0.010,0.020
2945,0.000,0.065
2946,-0.080,0.170
2947,-0.185,0.295
2948,-0.250,0.350
2949,-0.245,0.280
2950,-0.180,0.150
2951,-0.085,0.020
2952,-0.010,-0.080
2953,0.030,-0.145
2954,0.045,-0.160
2955,0.040,-0.130
2956,0.035,-0.095
2957,0.035,-0.075
2958,0.035,-0.055
2959,0.035,-0.045
2960,0.035,-0.045
2961,0.035,-0.045
2962,0.035,-0.045
2963,0.035,-0.040
2964,0.035,-0.035
2965,0.035,-0.035
2966,0.035,-0.035
2967,0.035,-0.035
2968,0.035,-0.040
2969,0.035,-0.035
2970,0.035,-0.030
2971,0.035,-0.025
2972,0.035,-0.025
2973,0.040,-0.030
2974,0.035,-0.025
2975,0.035,-0.025
2976,0.035,-0.025
2977,0.040,-0.025
2978,0.040,-0.025
2979,0.045,-0.030
2980,0.045,-0.035
2981,0.040,-0.040
2982,0.040,-0.035
2983,0.035,-0.025
2984,0.030,-0.020
2985,0.025,-0.015
2986,0.015,-0.010
2987,0.015,-0.005
2988,0.010,0.000
2989,0.010,0.000
2990,0.005,0.000
2991,0.005,0.005
2992,0.005,0.010
2993,0.000,0.015
2994,0.000,0.015
2995,0.000,0.015
2996,0.000,0.015
2997,0.000,0.015
2998,0.000,0.020
2999,0.000,0.015
3000,0.000,0.010
3001,0.000,0.010
3002,0.000,0.015
3003,0.000,0.020
3004,0.005,0.015
3005,0.000,0.010
3006,0.000,0.005
3007,0.000,0.005
3008,0.000,0.005
3009,0.000,0.010
3010,0.000,0.005
3011,0.000,0.005
3012,0.000,0.005
3013,0.000,0.010
3014,0.000,0.015
3015,0.000,0.020
3016,-0.005,0.035
3017,-0.010,0.060
3018,-0.015,0.080
3019,-0.020,0.095
3020,-0.035,0.105
3021,-0.045,0.105
3022,-0.045,0.100
3023,-0.045,0.085
3024,-0.040,0.080
3025,-0.035,0.075
3026,-0.025,0.070
3027,-0.015,0.060
3028,-0.005,0.045
3029,0.000,0.020
3030,0.000,0.000
3031,0.000,-0.005
3032,0.005,-0.015
3033,0.005,-0.015
3034,0.010,-0.015
3035,0.010,-0.005
3036,0.015,0.000
3037,-0.005,0.050
3038,-0.080,0.160
3039,-0.185,0.275
3040,-0.250,0.325
3041,-0.245,0.265
3042,-0.180,0.130
3043,-0.090,0.005
3044,-0.015,-0.085
3045,0.025,-0.140
3046,0.040,-0.150
3047,0.040,-0.125
3048,0.040,-0.095
3049,0.035,-0.070
3050,0.035,-0.055
3051,0.030,-0.055
3052,0.030,-0.050
3053,0.030,-0.045
3054,0.030,-0.035
3055,0.030,-0.035
3056,0.030,-0.035
3057,0.030,-0.040
3058,0.035,-0.035
3059,0.035,-0.035
3060,0.035,-0.035
3061,0.035,-0.045
3062,0.035,-0.040
3063,0.035,-0.035
3064,0.035,-0.035
3065,0.035,-0.030
3066,0.035,-0.025
3067,0.040,-0.020
3068,0.045,-0.020
3069,0.045,-0.030
3070,0.045,-0.035
3071,0.050,-0.035
3072,0.050,-0.040
3073,0.045,-0.040
3074,0.045,-0.045
3075,0.040,-0.045
3076,0.040,-0.040
3077,0.035,-0.035
3078,0.035,-0.030
3079,0.030,-0.025
3080,0.020,-0.010
3081,0.015,0.000
3082,0.010,0.000
3083,0.010,0.000
3084,0.005,0.000
3085,0.000,0.005
3086,0.000,0.010
3087,0.000,0.005
3088,0.000,0.005
3089,0.000,0.010
3090,0.005,0.015
3091,0.000,0.020
3092,0.000,0.015
3093,0.000,0.015
3094,0.000,0.015
3095,0.000,0.010
3096,0.000,0.005
3097,0.005,0.005
3098,0.000,0.010
3099,0.000,0.015
3100,0.000,0.010
3101,0.000,0.005
3102,0.000,0.005
3103,0.000,0.005
3104,0.000,0.005
3105,0.000,0.005
3106,0.000,0.005
3107,0.000,0.010
3108,-0.005,0.025
3109,-0.010,0.055
3110,-0.015,0.075
3111,-0.015,0.085
3112,-0.025,0.090
3113,-0.035,0.095
3114,-0.035,0.085
3115,-0.035,0.080
3116,-0.030,0.075
3117,-0.025,0.070
3118,-0.020,0.065
3119,-0.005,0.040
3120,0.000,0.015
3121,0.000,0.000
3122,0.005,-0.005
3123,0.010,-0.015
3124,0.015,-0.020
3125,0.015,-0.025
3126,0.015,-0.030
3127,0.015,-0.025
3128,0.020,0.000
3129,-0.005,0.055
3130,-0.080,0.165
3131,-0.180,0.270
3132,-0.240,0.310
3133,-0.230,0.240
3134,-0.165,0.115
3135,-0.075,-0.010
3136,0.000,-0.100
3137,0.030,-0.150
3138,0.045,-0.155
3139,0.045,-0.130
3140,0.045,-0.100
3141,0.045,-0.080
3142,0.045,-0.070
3143,0.045,-0.060
3144,0.045,-0.050
3145,0.045,-0.045
3146,0.045,-0.045
3147,0.040,-0.050
3148,0.040,-0.050
3149,0.040,-0.050
3150,0.040,-0.045
3151,0.040,-0.040
3152,0.040,-0.040
3153,0.040,-0.040
3154,0.040,-0.040
3155,0.040,-0.035
3156,0.040,-0.030
3157,0.040,-0.025
3158,0.040,-0.025
3159,0.040,-0.025
3160,0.040,-0.040
3161,0.045,-0.045
3162,0.045,-0.045
3163,0.045,-0.045
3164,0.045,-0.045
3165,0.045,-0.045
3166,0.045,-0.040
3167,0.040,-0.040
3168,0.040,-0.045
3169,0.035,-0.040
3170,0.030,-0.025
3171,0.025,-0.010
3172,0.015,-0.005
3173,0.010,-0.005
3174,0.005,0.000
3175,0.005,0.000
3176,0.000,0.005
3177,0.000,0.005
3178,0.000,0.010
3179,0.000,0.010
3180,0.000,0.010
3181,0.000,0.010
3182,0.000,0.015
3183,0.000,0.020
3184,0.000,0.015
3185,0.000,0.015
3186,0.000,0.015
3187,0.000,0.010
3188,0.000,0.010
3189,0.000,0.010
3190,0.000,0.005
3191,0.000,0.005
3192,0.000,0.005
3193,0.000,0.005
3194,0.000,0.005
3195,0.000,0.005
3196,0.005,0.005
3197,0.005,0.005
3198,0.000,0.005
3199,0.000,0.015
3200,-0.005,0.035
3201,-0.005,0.055
3202,-0.015,0.075
3203,-0.020,0.085
3204,-0.030,0.095
3205,-0.035,0.100
3206,-0.040,0.085
3207,-0.035,0.070
3208,-0.030,0.065
3209,-0.025,0.060
3210,-0.015,0.060
3211,-0.010,0.050
3212,0.000,0.025
3213,0.000,0.005
3214,0.005,-0.010
3215,0.010,-0.020
3216,0.015,-0.020
3217,0.015,-0.020
3218,0.015,-0.015
3219,0.020,-0.005
3220,0.015,0.005
3221,-0.010,0.060
3222,-0.085,0.160
3223,-0.185,0.270
3224,-0.240,0.315
3225,-0.230,0.250
3226,-0.165,0.125
3227,-0.075,0.000
3228,0.000,-0.095
3229,0.035,-0.150
3230,0.050,-0.155
3231,0.050,-0.130
3232,0.045,-0.095
3233,0.045,-0.075
3234,0.045,-0.065
3235,0.040,-0.050
3236,0.040,-0.045
3237,0.040,-0.045
3238,0.045,-0.045
3239,0.040,-0.040
3240,0.040,-0.030
3241,0.040,-0.030
3242,0.045,-0.035
3243,0.045,-0.035
3244,0.040,-0.035
3245,0.035,-0.020
3246,0.035,-0.020
3247,0.040,-0.020
3248,0.040,-0.025
3249,0.035,-0.020
3250,0.035,-0.020
3251,0.040,-0.020
3252,0.045,-0.025
3253,0.045,-0.025
3254,0.045,-0.030
3255,0.045,-0.035
3256,0.045,-0.030
3257,0.045,-0.030
3258,0.040,-0.035
3259,0.035,-0.025
3260,0.035,-0.020
3261,0.035,-0.020
3262,0.030,-0.015
3263,0.025,-0.005
3264,0.020,0.000
3265,0.015,0.000
3266,0.010,0.000
3267,0.010,0.005
3268,0.005,0.005
3269,0.000,0.015
3270,0.000,0.025
3271,0.000,0.030
3272,0.000,0.035
3273,0.000,0.035
3274,0.000,0.035
3275,0.000,0.035
3276,0.005,0.040
3277,0.005,0.040
3278,0.005,0.035
3279,0.005,0.025
3280,0.005,0.020
3281,0.005,0.025
3282,0.005,0.035
3283,0.000,0.030
3284,0.000,0.025
3285,0.000,0.025
3286,0.000,0.025
3287,0.000,0.025
3288,0.000,0.025
3289,0.000,0.030
3290,0.000,0.030
3291,0.000,0.030
3292,0.000,0.045
3293,-0.005,0.070
3294,-0.010,0.090
3295,-0.010,0.095
3296,-0.020,0.100
3297,-0.030,0.100
3298,-0.035,0.105
3299,-0.035,0.095
3300,-0.030,0.090
3301,-0.030,0.080
3302,-0.020,0.070
3303,-0.010,0.055
3304,0.000,0.040
3305,0.000,0.020
3306,0.005,0.000
3307,0.010,-0.010
3308,0.010,-0.010
3309,0.010,-0.005
3310,0.010,0.000
3311,0.010,0.000
3312,0.010,0.010
3313,-0.005,0.055
3314,-0.070,0.150
3315,-0.170,0.265
3316,-0.245,0.330
3317,-0.250,0.295
3318,-0.190,0.170
3319,-0.100,0.035
3320,-0.015,-0.065
3321,0.025,-0.130
3322,0.045,-0.145
3323,0.040,-0.130
3324,0.040,-0.090
3325,0.040,-0.055
3326,0.040,-0.045
3327,0.040,-0.040
3328,0.040,-0.035
3329,0.040,-0.025
3330,0.035,-0.025
3331,0.035,-0.025
3332,0.040,-0.025
3333,0.040,-0.025
3334,0.040,-0.025
3335,0.040,-0.030
3336,0.040,-0.025
3337,0.040,-0.020
3338,0.035,-0.015
3339,0.035,-0.015
3340,0.035,-0.015
3341,0.035,-0.010
3342,0.040,-0.010
3343,0.040,-0.010
3344,0.040,-0.015
3345,0.045,-0.020
3346,0.050,-0.020
3347,0.050,-0.025
3348,0.055,-0.030
3349,0.055,-0.035
3350,0.050,-0.035
3351,0.050,-0.030
3352,0.045,-0.025
3353,0.040,-0.020
3354,0.035,-0.010
3355,0.030,-0.005
3356,0.025,0.000
3357,0.020,0.000
3358,0.015,0.000
3359,0.010,0.000
3360,0.005,0.010
3361,0.005,0.015
3362,0.005,0.025
3363,0.005,0.025
3364,0.005,0.020
3365,0.010,0.020
3366,0.010,0.015
3367,0.010,0.015
3368,0.010,0.015
3369,0.015,0.010
3370,0.015,0.005
3371,0.015,0.005
3372,0.015,0.000
3373,0.020,0.000
3374,0.020,-0.005
3375,0.025,-0.005
3376,0.025,-0.015
3377,0.025,-0.020
3378,0.025,-0.010
3379,0.025,-0.010
3380,0.025,-0.020
3381,0.025,-0.025
3382,0.030,-0.025
3383,0.025,-0.020
3384,0.020,-0.005
3385,0.010,0.000
3386,0.010,0.020
3387,0.000,0.035
3388,0.000,0.050
3389,-0.010,0.060
3390,-0.015,0.055
3391,-0.010,0.045
3392,-0.010,0.035
3393,-0.005,0.035
3394,0.000,0.040
3395,0.000,0.035
3396,0.010,0.015
3397,0.020,0.000
3398,0.030,-0.010
3399,0.040,-0.020
3400,0.040,-0.025
3401,0.040,-0.025
3402,0.040,-0.025
3403,0.040,-0.020
3404,0.040,-0.010
3405,0.030,0.020
3406,-0.015,0.105
3407,-0.105,0.235
3408,-0.195,0.325
3409,-0.225,0.310
3410,-0.180,0.185
3411,-0.100,0.035
3412,-0.010,-0.065
3413,0.040,-0.135
3414,0.060,-0.150
3415,0.065,-0.130
3416,0.070,-0.100
3417,0.070,-0.080
3418,0.070,-0.075
3419,0.075,-0.070
3420,0.075,-0.065
3421,0.080,-0.060
3422,0.080,-0.050
3423,0.080,-0.045
3424,0.085,-0.045
3425,0.090,-0.045
3426,0.090,-0.045
3427,0.085,-0.045
3428,0.085,-0.045
3429,0.085,-0.050
3430,0.085,-0.050
3431,0.075,-0.050
3432,0.070,-0.045
3433,0.060,-0.045
3434,0.055,-0.045
3435,0.050,-0.045
3436,0.050,-0.045
3437,0.050,-0.045
3438,0.045,-0.045
3439,0.045,-0.045
3440,0.045,-0.040
3441,0.050,-0.040
3442,0.060,-0.045
3443,0.065,-0.040
3444,0.070,-0.035
3445,0.070,-0.030
3446,0.070,-0.020
3447,0.070,-0.015
3448,0.065,-0.010
3449,0.060,-0.010
3450,0.050,-0.005
3451,0.040,0.000
3452,0.030,0.000
3453,0.030,0.000
3454,0.025,0.000
3455,0.020,0.005
3456,0.020,0.010
3457,0.015,0.010
3458,0.015,0.010
3459,0.015,0.010
3460,0.020,0.010
3461,0.025,0.005
3462,0.030,0.005
3463,0.030,0.010
3464,0.030,0.015
3465,0.030,0.015
3466,0.025,0.020
3467,0.020,0.020
3468,0.015,0.015
3469,0.015,0.015
3470,0.010,0.010
3471,0.010,0.010
3472,0.010,0.015
3473,0.010,0.020
3474,0.010,0.020
3475,0.010,0.030
3476,0.005,0.045
3477,0.000,0.065
3478,0.000,0.085
3479,0.000,0.095
3480,0.000,0.100
3481,-0.010,0.110
3482,-0.020,0.105
3483,-0.015,0.095
3484,-0.015,0.090
3485,-0.015,0.090
3486,-0.010,0.085
3487,-0.005,0.075
3488,0.000,0.060
3489,0.000,0.040
3490,0.005,0.020
3491,0.010,0.000
3492,0.010,0.000
3493,0.010,0.000
3494,0.010,0.000
3495,0.010,0.010
3496,0.010,0.020
3497,0.005,0.055
3498,-0.045,0.145
3499,-0.145,0.280
3500,-0.235,0.375
3501,-0.255,0.355
3502,-0.205,0.225
3503,-0.120,0.080
3504,-0.035,-0.030
3505,0.015,-0.105
3506,0.035,-0.135
3507,0.040,-0.115
3508,0.040,-0.075
3509,0.035,-0.045
3510,0.035,-0.030
3511,0.030,-0.030
3512,0.025,-0.030
3513,0.020,-0.020
3514,0.015,-0.005
3515,0.010,-0.005
3516,0.010,-0.005
3517,0.010,-0.005
3518,0.015,-0.010
3519,0.020,-0.015
3520,0.025,-0.015
3521,0.025,-0.015
3522,0.030,-0.010
3523,0.030,-0.010
3524,0.030,-0.005
3525,0.030,-0.005
3526,0.030,-0.005
3527,0.030,-0.015
3528,0.030,-0.020
3529,0.030,-0.020
3530,0.030,-0.015
3531,0.030,-0.015
3532,0.030,-0.020
3533,0.035,-0.025
3534,0.035,-0.025
3535,0.030,-0.020
3536,0.025,-0.010
3537,0.020,0.000
3538,0.010,0.005
3539,0.005,0.010
3540,0.000,0.010
3541,0.000,0.020
3542,0.000,0.030
3543,0.000,0.035
3544,0.000,0.035
3545,-0.005,0.035
3546,-0.005,0.040
3547,-0.005,0.040
3548,-0.010,0.040
3549,-0.015,0.045
3550,-0.015,0.045
3551,-0.015,0.040
3552,-0.010,0.040
3553,-0.010,0.040
3554,-0.010,0.040
3555,-0.005,0.040
3556,-0.005,0.040
3557,-0.005,0.040
3558,-0.005,0.035
3559,-0.005,0.030
3560,-0.005,0.025
3561,0.000,0.025
3562,0.000,0.025
3563,0.000,0.030
3564,-0.005,0.030
3565,0.000,0.025
3566,0.000,0.020
3567,0.000,0.020
3568,-0.005,0.035
3569,-0.010,0.050
3570,-0.015,0.075
3571,-0.020,0.090
3572,-0.025,0.100
3573,-0.035,0.105
3574,-0.050,0.115
3575,-0.045,0.105
3576,-0.045,0.085
3577,-0.040,0.085
3578,-0.035,0.085
3579,-0.030,0.075
3580,-0.020,0.055
3581,-0.005,0.035
3582,0.000,0.010
3583,0.005,0.000
3584,0.005,-0.010
3585,0.005,-0.010
3586,0.005,-0.010
3587,0.005,-0.010
3588,0.005,-0.005
3589,0.010,0.005
3590,-0.015,0.070
3591,-0.095,0.185
3592,-0.195,0.295
3593,-0.250,0.330
3594,-0.235,0.250
3595,-0.160,0.115
3596,-0.075,0.000
3597,-0.005,-0.090
3598,0.030,-0.140
3599,0.040,-0.140
3600,0.035,-0.110
3601,0.035,-0.075
3602,0.035,-0.050
3603,0.035,-0.040
3604,0.035,-0.035
3605,0.035,-0.035
3606,0.035,-0.035
3607,0.030,-0.035
3608,0.030,-0.040
3609,0.030,-0.030
3610,0.030,-0.020
3611,0.030,-0.020
3612,0.035,-0.030
3613,0.035,-0.035
3614,0.035,-0.035
3615,0.040,-0.040
3616,0.045,-0.040
3617,0.050,-0.040
3618,0.055,-0.040
3619,0.055,-0.035
3620,0.055,-0.035
3621,0.050,-0.040
3622,0.050,-0.045
3623,0.050,-0.040
3624,0.050,-0.035
3625,0.045,-0.035
3626,0.045,-0.035
3627,0.045,-0.035
3628,0.040,-0.030
3629,0.035,-0.030
3630,0.030,-0.030
3631,0.025,-0.025
3632,0.020,-0.015
3633,0.015,-0.015
3634,0.010,-0.005
3635,0.005,0.000
3636,0.005,0.005
3637,0.000,0.010
3638,0.000,0.010
3639,0.000,0.010
3640,0.000,0.015
3641,0.000,0.015
3642,0.000,0.015
3643,0.000,0.020
3644,0.000,0.025
3645,0.000,0.020
3646,0.000,0.015
3647,0.000,0.015
3648,0.000,0.015
3649,0.000,0.010
3650,0.000,0.005
3651,0.000,0.005
3652,0.000,0.005
3653,0.000,0.015
3654,0.000,0.015
3655,0.000,0.015
3656,0.000,0.015
3657,0.005,0.010
3658,0.000,0.010
3659,0.000,0.010
3660,0.005,0.015
3661,0.000,0.030
3662,0.000,0.045
3663,0.000,0.070
3664,-0.005,0.085
3665,-0.010,0.090
3666,-0.020,0.095
3667,-0.030,0.100
3668,-0.025,0.090
3669,-0.020,0.080
3670,-0.020,0.080
3671,-0.015,0.075
3672,-0.010,0.065
3673,0.000,0.040
3674,0.000,0.020
3675,0.005,0.010
3676,0.010,0.000
3677,0.015,0.000
3678,0.015,-0.005
3679,0.015,-0.005
3680,0.015,-0.005
3681,0.020,0.000
3682,0.015,0.025
3683,-0.025,0.100
3684,-0.115,0.215
3685,-0.205,0.310
3686,-0.245,0.315
3687,-0.210,0.225
3688,-0.135,0.090
3689,-0.045,-0.025
3690,0.010,-0.110
3691,0.040,-0.155
3692,0.055,-0.155
3693,0.050,-0.115
3694,0.045,-0.080
3695,0.045,-0.065
3696,0.045,-0.055
3697,0.045,-0.050
3698,0.045,-0.050
3699,0.040,-0.045
3700,0.040,-0.040
3701,0.035,-0.030
3702,0.035,-0.030
3703,0.035,-0.035
3704,0.040,-0.030
3705,0.040,-0.025
3706,0.035,-0.025
3707,0.035,-0.025
3708,0.035,-0.025
3709,0.040,-0.025
3710,0.040,-0.025
3711,0.040,-0.030
3712,0.040,-0.030
3713,0.040,-0.030
3714,0.045,-0.025
3715,0.050,-0.025
3716,0.050,-0.030
3717,0.050,-0.035
3718,0.050,-0.040
3719,0.050,-0.045
3720,0.050,-0.045
3721,0.045,-0.035
3722,0.040,-0.030
3723,0.035,-0.025
3724,0.030,-0.025
3725,0.020,-0.020
3726,0.015,-0.010
3727,0.010,0.000
3728,0.005,0.000
3729,0.005,0.000
3730,0.005,0.000
3731,0.000,0.005
3732,0.000,0.015
3733,0.000,0.020
3734,0.000,0.015
3735,0.000,0.010
3736,0.000,0.010
3737,0.000,0.020
3738,0.000,0.020
3739,0.000,0.015
3740,0.005,0.010
3741,0.005,0.010
3742,0.000,0.015
3743,0.000,0.025
3744,0.000,0.020
3745,0.000,0.015
3746,0.000,0.015
3747,0.000,0.025
3748,0.000,0.025
3749,0.000,0.020
3750,0.000,0.020
3751,0.000,0.020
3752,0.000,0.020
3753,0.000,0.025
3754,0.000,0.040
3755,0.000,0.055
3756,-0.005,0.075
3757,-0.010,0.090
3758,-0.020,0.100
3759,-0.025,0.105
3760,-0.030,0.095
3761,-0.030,0.080
3762,-0.025,0.075
3763,-0.025,0.075
3764,-0.020,0.075
3765,-0.005,0.055
3766,0.000,0.035
3767,0.000,0.015
3768,0.010,0.000
3769,0.015,-0.010
3770,0.020,-0.015
3771,0.025,-0.020
3772,0.025,-0.025
3773,0.030,-0.030
3774,0.030,-0.020
3775,0.015,0.010
3776,-0.030,0.085
3777,-0.120,0.200
3778,-0.210,0.290
3779,-0.245,0.290
3780,-0.205,0.195
3781,-0.125,0.060
3782,-0.035,-0.055
3783,0.020,-0.135
3784,0.045,-0.175
3785,0.050,-0.160
3786,0.045,-0.120
3787,0.045,-0.085
3788,0.045,-0.065
3789,0.040,-0.065
3790,0.040,-0.060
3791,0.040,-0.055
3792,0.040,-0.040
3793,0.040,-0.030
3794,0.040,-0.030
3795,0.040,-0.030
3796,0.040,-0.030
3797,0.040,-0.035
3798,0.040,-0.035
3799,0.040,-0.030
3800,0.040,-0.030
3801,0.040,-0.030
3802,0.045,-0.025
3803,0.045,-0.020
3804,0.045,-0.020
3805,0.050,-0.020
3806,0.050,-0.025
3807,0.050,-0.025
3808,0.050,-0.030
3809,0.055,-0.035
3810,0.055,-0.040
3811,0.050,-0.040
3812,0.050,-0.040
3813,0.050,-0.050
3814,0.050,-0.050
3815,0.045,-0.045
3816,0.040,-0.035
3817,0.035,-0.025
3818,0.030,-0.020
3819,0.025,-0.015
3820,0.025,-0.015
3821,0.020,-0.010
3822,0.010,-0.005
3823,0.010,0.000
3824,0.010,0.000
3825,0.005,0.005
3826,0.005,0.005
3827,0.005,0.005
3828,0.005,0.010
3829,0.005,0.010
3830,0.005,0.015
3831,0.005,0.015
3832,0.005,0.015
3833,0.005,0.015
3834,0.005,0.015
3835,0.005,0.015
3836,0.005,0.015
3837,0.005,0.020
3838,0.005,0.020
3839,0.005,0.020
3840,0.005,0.020
3841,0.000,0.020
3842,0.000,0.020
3843,0.000,0.020
3844,0.000,0.020
3845,0.005,0.020
3846,0.000,0.020
3847,0.000,0.035
3848,0.000,0.060
3849,-0.005,0.085
3850,-0.010,0.095
3851,-0.025,0.100
3852,-0.035,0.105
3853,-0.040,0.095
3854,-0.035,0.085
3855,-0.035,0.075
3856,-0.025,0.070
3857,-0.015,0.065
3858,-0.005,0.050
3859,0.000,0.030
3860,0.005,0.010
3861,0.010,-0.005
3862,0.015,-0.015
3863,0.015,-0.025
3864,0.015,-0.025
3865,0.015,-0.020
3866,0.015,-0.015
3867,0.015,-0.005
3868,0.000,0.025
3869,-0.045,0.110
3870,-0.140,0.225
3871,-0.225,0.305
3872,-0.250,0.290
3873,-0.200,0.180
3874,-0.115,0.045
3875,-0.030,-0.065
3876,0.015,-0.140
3877,0.040,-0.165
3878,0.045,-0.140
3879,0.045,-0.105
3880,0.045,-0.080
3881,0.045,-0.060
3882,0.045,-0.050
3883,0.045,-0.050
3884,0.040,-0.040
3885,0.040,-0.040
3886,0.040,-0.040
3887,0.040,-0.040
3888,0.035,-0.025
3889,0.035,-0.020
3890,0.035,-0.020
3891,0.035,-0.025
3892,0.035,-0.025
3893,0.035,-0.025
3894,0.040,-0.025
3895,0.035,-0.025
3896,0.035,-0.020
3897,0.035,-0.015
3898,0.040,-0.015
3899,0.045,-0.020
3900,0.050,-0.025
3901,0.050,-0.030
3902,0.050,-0.035
3903,0.055,-0.035
3904,0.050,-0.035
3905,0.045,-0.035
3906,0.040,-0.035
3907,0.040,-0.040
3908,0.035,-0.035
3909,0.035,-0.025
3910,0.030,-0.020
3911,0.030,-0.010
3912,0.025,0.000
3913,0.020,0.000
3914,0.015,0.000
3915,0.010,0.005
3916,0.005,0.005
3917,0.005,0.015
3918,0.000,0.020
3919,0.000,0.030
3920,0.000,0.030
3921,0.000,0.030
3922,0.000,0.030
3923,0.005,0.035
3924,0.005,0.035
3925,0.005,0.035
3926,0.005,0.035
3927,0.005,0.035
3928,0.005,0.030
3929,0.005,0.030
3930,0.005,0.030
3931,0.000,0.040
3932,0.000,0.045
3933,0.000,0.045
3934,0.000,0.040
3935,0.000,0.040
3936,0.000,0.035
3937,0.000,0.035
3938,0.000,0.035
3939,0.000,0.035
3940,-0.005,0.050
3941,-0.010,0.075
3942,-0.015,0.095
3943,-0.015,0.110
3944,-0.025,0.115
3945,-0.035,0.115
3946,-0.040,0.105
3947,-0.035,0.100
3948,-0.025,0.100
3949,-0.020,0.095
3950,-0.010,0.085
3951,0.000,0.065
3952,0.000,0.045
3953,0.000,0.020
3954,0.010,0.005
3955,0.010,-0.005
3956,0.015,-0.015
3957,0.015,-0.025
3958,0.015,-0.020
3959,0.020,-0.010
3960,0.020,0.005
3961,0.005,0.045
3962,-0.045,0.140
3963,-0.150,0.260
3964,-0.230,0.330
3965,-0.235,0.280
3966,-0.180,0.150
3967,-0.090,0.020
3968,-0.010,-0.075
3969,0.030,-0.140
3970,0.050,-0.155
3971,0.055,-0.135
3972,0.055,-0.100
3973,0.055,-0.070
3974,0.050,-0.055
3975,0.050,-0.050
3976,0.045,-0.045
3977,0.040,-0.040
3978,0.040,-0.030
3979,0.040,-0.025
3980,0.035,-0.015
3981,0.035,-0.010
3982,0.035,-0.005
3983,0.035,-0.005
3984,0.035,0.000
3985,0.035,0.000
3986,0.035,0.000
3987,0.035,0.000
3988,0.035,0.000
3989,0.035,-0.005
3990,0.040,-0.005
3991,0.045,-0.010
3992,0.055,-0.015
3993,0.060,-0.020
3994,0.065,-0.030
3995,0.075,-0.040
3996,0.075,-0.040
3997,0.075,-0.045
3998,0.080,-0.050
3999,0.075,-0.055
4000,0.075,-0.055
4001,0.070,-0.050
4002,0.060,-0.050
4003,0.055,-0.050
4004,0.055,-0.045
4005,0.050,-0.040
4006,0.045,-0.035
4007,0.040,-0.030
4008,0.035,-0.030
4009,0.035,-0.025
4010,0.030,-0.020
4011,0.030,-0.015
4012,0.030,-0.010
4013,0.030,-0.005
4014,0.030,-0.005
4015,0.030,0.000
4016,0.025,0.000
4017,0.025,0.000
4018,0.025,0.000
4019,0.025,0.000
4020,0.030,0.000
4021,0.030,0.005
4022,0.025,0.005
4023,0.025,0.010
4024,0.020,0.010
4025,0.020,0.010
4026,0.020,0.010
4027,0.020,0.010
4028,0.025,0.010
4029,0.025,0.010
4030,0.030,0.010
4031,0.030,0.010
4032,0.025,0.015
4033,0.015,0.025
4034,0.010,0.045
4035,0.005,0.065
4036,0.000,0.075
4037,0.000,0.075
4038,-0.010,0.080
4039,-0.010,0.075
4040,-0.010,0.065
4041,-0.005,0.060
4042,0.000,0.055
4043,0.000,0.045
4044,0.015,0.020
4045,0.025,0.000
4046,0.030,-0.005
4047,0.035,-0.025
4048,0.035,-0.035
4049,0.030,-0.040
4050,0.030,-0.040
4051,0.030,-0.035
4052,0.030,-0.030
4053,0.030,-0.015
4054,0.020,0.020
4055,-0.040,0.130
4056,-0.140,0.260
4057,-0.210,0.320
4058,-0.215,0.260
4059,-0.145,0.110
4060,-0.055,-0.030
4061,0.015,-0.135
4062,0.060,-0.190
4063,0.080,-0.200
4064,0.080,-0.170
4065,0.075,-0.135
4066,0.075,-0.115
4067,0.070,-0.100
4068,0.070,-0.090
4069,0.065,-0.080
4070,0.060,-0.070
4071,0.060,-0.065
4072,0.055,-0.060
4073,0.055,-0.055
4074,0.055,-0.055
4075,0.055,-0.050
4076,0.055,-0.045
4077,0.055,-0.045
4078,0.055,-0.045
4079,0.055,-0.045
4080,0.060,-0.045
4081,0.060,-0.045
4082,0.060,-0.050
4083,0.060,-0.045
4084,0.060,-0.045
4085,0.060,-0.045
4086,0.060,-0.055
4087,0.065,-0.060
4088,0.070,-0.060
4089,0.070,-0.065
4090,0.070,-0.070
4091,0.065,-0.065
4092,0.060,-0.060
4093,0.055,-0.055
4094,0.050,-0.050
4095,0.045,-0.040
4096,0.045,-0.035
4097,0.040,-0.025
4098,0.030,-0.015
4099,0.025,-0.005
4100,0.020,0.000
4101,0.010,0.000
4102,0.010,0.000
4103,0.005,0.010
4104,0.005,0.015
4105,0.000,0.015
4106,0.000,0.030
4107,0.000,0.035
4108,0.000,0.035
4109,0.000,0.035
4110,0.000,0.040
4111,0.000,0.040
4112,0.000,0.035
4113,0.000,0.035
4114,0.000,0.035
4115,0.000,0.035
4116,0.000,0.035
4117,0.000,0.035
4118,-0.005,0.035
4119,-0.005,0.035
4120,-0.005,0.035
4121,-0.005,0.030
4122,-0.005,0.030
4123,-0.005,0.035
4124,-0.005,0.040
4125,-0.005,0.040
4126,-0.010,0.055
4127,-0.015,0.075
4128,-0.020,0.090
4129,-0.025,0.100
4130,-0.030,0.110
4131,-0.045,0.105
4132,-0.045,0.100
4133,-0.040,0.080
4134,-0.035,0.070
4135,-0.025,0.070
4136,-0.020,0.065
4137,-0.010,0.055
4138,-0.005,0.035
4139,0.000,0.015
4140,0.000,-0.005
4141,0.000,-0.015
4142,0.005,-0.020
4143,0.005,-0.020
4144,0.005,-0.020
4145,0.005,-0.015
4146,0.005,0.000
4147,0.000,0.035
4148,-0.060,0.130
4149,-0.160,0.260
4150,-0.245,0.345
4151,-0.265,0.315
4152,-0.215,0.200
4153,-0.125,0.055
4154,-0.040,-0.050
4155,0.005,-0.125
4156,0.025,-0.150
4157,0.025,-0.130
4158,0.020,-0.095
4159,0.020,-0.065
4160,0.025,-0.050
4161,0.025,-0.040
4162,0.025,-0.035
4163,0.025,-0.035
4164,0.020,-0.030
4165,0.020,-0.020
4166,0.020,-0.015
4167,0.020,-0.020
4168,0.025,-0.025
4169,0.025,-0.025
4170,0.025,-0.020
4171,0.025,-0.020
4172,0.025,-0.020
4173,0.025,-0.025
4174,0.030,-0.025
4175,0.030,-0.025
4176,0.030,-0.020
4177,0.030,-0.020
4178,0.030,-0.020
4179,0.035,-0.020
4180,0.035,-0.025
4181,0.035,-0.025
4182,0.035,-0.025
4183,0.035,-0.025
4184,0.035,-0.030
4185,0.030,-0.030
4186,0.030,-0.025
4187,0.025,-0.020
4188,0.020,-0.020
4189,0.015,-0.020
4190,0.010,-0.005
4191,0.005,0.000
4192,0.005,0.000
4193,0.000,0.000
4194,0.000,0.000
4195,0.000,0.000
4196,0.000,0.005
4197,0.000,0.010
4198,0.000,0.010
4199,0.000,0.010
4200,0.000,0.015
4201,0.000,0.015
4202,0.000,0.010
4203,0.000,0.010
4204,0.000,0.015
4205,0.000,0.020
4206,0.000,0.015
4207,0.000,0.015
4208,0.000,0.015
4209,-0.005,0.015
4210,-0.005,0.020
4211,-0.005,0.025
4212,-0.005,0.030
4213,-0.010,0.030
4214,-0.010,0.030
4215,-0.010,0.030
4216,-0.010,0.030
4217,-0.010,0.030
4218,-0.010,0.030
4219,-0.010,0.040
4220,-0.015,0.060
4221,-0.020,0.085
4222,-0.025,0.105
4223,-0.035,0.115
4224,-0.045,0.125
4225,-0.050,0.120
4226,-0.050,0.100
4227,-0.045,0.080
4228,-0.040,0.075
4229,-0.035,0.065
4230,-0.020,0.055
4231,-0.010,0.040
4232,0.000,0.015
4233,0.000,0.000
4234,0.005,-0.010
4235,0.010,-0.020
4236,0.010,-0.030
4237,0.015,-0.035
4238,0.015,-0.035
4239,0.015,-0.025
4240,0.005,0.000
4241,-0.030,0.075
4242,-0.115,0.190
4243,-0.205,0.285
4244,-0.245,0.295
4245,-0.215,0.210
4246,-0.135,0.070
4247,-0.050,-0.045
4248,0.005,-0.120
4249,0.030,-0.155
4250,0.040,-0.150
4251,0.035,-0.120
4252,0.030,-0.085
4253,0.030,-0.065
4254,0.035,-0.065
4255,0.035,-0.060
4256,0.030,-0.050
4257,0.030,-0.035
4258,0.030,-0.035
4259,0.025,-0.035
4260,0.025,-0.030
4261,0.025,-0.030
4262,0.030,-0.035
4263,0.030,-0.035
4264,0.030,-0.035
4265,0.030,-0.035
4266,0.030,-0.035
4267,0.030,-0.035
4268,0.030,-0.040
4269,0.030,-0.040
4270,0.030,-0.040
4271,0.030,-0.040
4272,0.035,-0.045
4273,0.040,-0.045
4274,0.040,-0.045
4275,0.040,-0.050
4276,0.040,-0.055
4277,0.040,-0.060
4278,0.040,-0.050
4279,0.035,-0.045
4280,0.030,-0.040
4281,0.025,-0.040
4282,0.015,-0.035
4283,0.015,-0.025
4284,0.010,-0.020
4285,0.005,-0.010
4286,0.005,0.000
4287,0.005,0.000
4288,0.000,0.000
4289,0.000,0.000
4290,0.000,0.000
4291,0.000,0.010
4292,0.000,0.015
4293,0.000,0.010
4294,0.000,0.010
4295,0.000,0.005
4296,0.000,0.005
4297,0.000,0.010
4298,0.000,0.015
4299,0.000,0.015
4300,0.000,0.015
4301,0.000,0.010
4302,0.000,0.010
4303,0.000,0.015
4304,0.000,0.020
4305,0.000,0.020
4306,-0.005,0.015
4307,-0.005,0.010
4308,-0.005,0.010
4309,0.000,0.015
4310,0.000,0.015
4311,0.000,0.020
4312,0.000,0.025
4313,-0.005,0.030
4314,-0.010,0.055
4315,-0.015,0.085
4316,-0.025,0.095
4317,-0.035,0.100
4318,-0.045,0.105
4319,-0.045,0.090
4320,-0.040,0.075
4321,-0.035,0.070
4322,-0.030,0.070
4323,-0.020,0.060
4324,-0.010,0.045
4325,0.000,0.020
4326,0.000,0.000
4327,0.005,-0.020
4328,0.005,-0.030
4329,0.005,-0.035
4330,0.005,-0.035
4331,0.010,-0.035
4332,0.015,-0.030
4333,0.010,-0.010
4334,-0.005,0.030
4335,-0.070,0.125
4336,-0.170,0.240
4337,-0.240,0.295
4338,-0.245,0.250
4339,-0.185,0.135
4340,-0.090,0.000
4341,-0.015,-0.095
4342,0.020,-0.160
4343,0.035,-0.175
4344,0.035,-0.150
4345,0.035,-0.115
4346,0.035,-0.085
4347,0.035,-0.065
4348,0.030,-0.055
4349,0.025,-0.045
4350,0.020,-0.040
4351,0.020,-0.040
4352,0.020,-0.040
4353,0.020,-0.040
4354,0.020,-0.035
4355,0.020,-0.035
4356,0.020,-0.040
4357,0.020,-0.035
4358,0.020,-0.025
4359,0.020,-0.015
4360,0.020,-0.015
4361,0.020,-0.010
4362,0.015,-0.005
4363,0.015,-0.005
4364,0.020,-0.010
4365,0.020,-0.015
4366,0.020,-0.015
4367,0.025,-0.025
4368,0.030,-0.030
4369,0.030,-0.035
4370,0.030,-0.040
4371,0.035,-0.045
4372,0.030,-0.045
4373,0.030,-0.040
4374,0.025,-0.030
4375,0.020,-0.025
4376,0.010,-0.025
4377,0.005,-0.025
4378,0.000,-0.020
4379,0.000,-0.010
4380,0.000,0.000
4381,-0.005,0.000
4382,-0.010,0.000
4383,-0.010,0.000
4384,-0.015,0.000
4385,-0.015,0.005
4386,-0.015,0.010
4387,-0.015,0.015
4388,-0.015,0.015
4389,-0.015,0.020
4390,-0.015,0.020
4391,-0.015,0.015
4392,-0.015,0.015
4393,-0.015,0.020
4394,-0.015,0.030
4395,-0.015,0.030
4396,-0.020,0.025
4397,-0.020,0.025
4398,-0.020,0.030
4399,-0.020,0.030
4400,-0.020,0.030
4401,-0.020,0.025
4402,-0.020,0.020
4403,-0.020,0.020
4404,-0.020,0.020
4405,-0.020,0.020
4406,-0.020,0.030
4407,-0.025,0.045
4408,-0.030,0.070
4409,-0.035,0.085
4410,-0.035,0.095
4411,-0.045,0.100
4412,-0.055,0.090
4413,-0.055,0.080
4414,-0.055,0.065
4415,-0.050,0.065
4416,-0.045,0.060
4417,-0.035,0.050
4418,-0.020,0.035
4419,-0.010,0.015
4420,0.000,-0.005
4421,0.000,-0.025
4422,0.005,-0.035
4423,0.005,-0.035
4424,0.000,-0.030
4425,0.000,-0.025
4426,0.000,-0.015
4427,0.000,0.000
4428,-0.030,0.055
4429,-0.110,0.165
4430,-0.215,0.280
4431,-0.265,0.320
4432,-0.255,0.245
4433,-0.175,0.110
4434,-0.075,-0.020
4435,-0.005,-0.120
4436,0.025,-0.170
4437,0.030,-0.170
4438,0.030,-0.140
4439,0.030,-0.100
4440,0.030,-0.075
4441,0.035,-0.065
4442,0.030,-0.060
4443,0.030,-0.055
4444,0.025,-0.045
4445,0.025,-0.040
4446,0.025,-0.035
4447,0.020,-0.030
4448,0.020,-0.025
4449,0.020,-0.025
4450,0.020,-0.025
4451,0.025,-0.025
4452,0.025,-0.025
4453,0.025,-0.025
4454,0.025,-0.025
4455,0.025,-0.015
4456,0.025,-0.010
4457,0.025,-0.010
4458,0.030,-0.015
4459,0.030,-0.015
4460,0.035,-0.020
4461,0.035,-0.030
4462,0.040,-0.035
4463,0.040,-0.035
4464,0.035,-0.040
4465,0.035,-0.045
4466,0.035,-0.040
4467,0.030,-0.030
4468,0.025,-0.020
4469,0.015,-0.010
4470,0.010,-0.010
4471,0.005,-0.005
4472,0.005,-0.005
4473,0.005,0.000
4474,0.005,0.000
4475,0.000,0.000
4476,0.000,0.000
4477,0.000,0.000
4478,0.000,0.000
4479,0.000,0.000
4480,0.000,0.005
4481,0.000,0.005
4482,0.000,0.010
4483,0.000,0.015
4484,0.000,0.015
4485,0.000,0.015
4486,0.000,0.020
4487,0.000,0.020
4488,0.000,0.020
4489,0.000,0.020
4490,-0.005,0.025
4491,-0.005,0.030
4492,-0.005,0.030
4493,-0.005,0.035
4494,-0.005,0.040
4495,-0.005,0.040
4496,-0.005,0.035
4497,-0.005,0.035
4498,-0.005,0.035
4499,-0.010,0.035
4500,-0.010,0.050
4501,-0.020,0.075
4502,-0.025,0.090
4503,-0.030,0.100
4504,-0.030,0.105
4505,-0.040,0.110
4506,-0.045,0.110
4507,-0.040,0.095
4508,-0.035,0.085
4509,-0.030,0.075
4510,-0.025,0.070
4511,-0.020,0.050
4512,-0.010,0.030
4513,0.000,0.005
4514,0.000,-0.005
4515,0.005,-0.020
4516,0.010,-0.025
4517,0.010,-0.025
4518,0.010,-0.025
4519,0.015,-0.020
4520,0.015,-0.015
4521,0.010,0.005
4522,-0.030,0.090
4523,-0.135,0.210
4524,-0.235,0.305
4525,-0.265,0.310
4526,-0.220,0.205
4527,-0.130,0.065
4528,-0.040,-0.050
4529,0.015,-0.130
4530,0.040,-0.165
4531,0.045,-0.150
4532,0.040,-0.120
4533,0.040,-0.095
4534,0.035,-0.075
4535,0.035,-0.060
4536,0.035,-0.045
4537,0.035,-0.035
4538,0.040,-0.035
4539,0.040,-0.035
4540,0.040,-0.035
4541,0.040,-0.040
4542,0.035,-0.035
4543,0.035,-0.030
4544,0.035,-0.030
4545,0.035,-0.035
4546,0.035,-0.030
4547,0.035,-0.025
4548,0.035,-0.025
4549,0.035,-0.025
4550,0.035,-0.025
4551,0.035,-0.025
4552,0.035,-0.030
4553,0.040,-0.035
4554,0.040,-0.035
4555,0.040,-0.035
4556,0.045,-0.045
4557,0.045,-0.045
4558,0.045,-0.040
4559,0.045,-0.040
4560,0.040,-0.035
4561,0.035,-0.035
4562,0.030,-0.030
4563,0.025,-0.020
4564,0.020,-0.015
4565,0.010,-0.010
4566,0.010,-0.010
4567,0.010,-0.005
4568,0.005,0.000
4569,0.005,0.000
4570,0.000,0.000
4571,0.000,0.000
4572,0.000,0.010
4573,0.000,0.015
4574,0.005,0.015
4575,0.005,0.015
4576,0.005,0.015
4577,0.005,0.015
4578,0.005,0.015
4579,0.005,0.015
4580,0.005,0.015
4581,0.005,0.010
4582,0.005,0.010
4583,0.005,0.015
4584,0.005,0.015
4585,0.005,0.010
4586,0.005,0.010
4587,0.005,0.015
4588,0.005,0.015
4589,0.005,0.015
4590,0.005,0.015
4591,0.005,0.015
4592,0.005,0.020
4593,0.005,0.020
4594,0.000,0.025
4595,0.000,0.045
4596,0.000,0.065
4597,0.000,0.080
4598,0.000,0.080
4599,-0.010,0.075
4600,-0.010,0.070
4601,-0.005,0.055
4602,0.000,0.045
4603,0.000,0.040
4604,0.000,0.030
4605,0.010,0.005
4606,0.020,-0.005
4607,0.030,-0.030
4608,0.040,-0.050
4609,0.040,-0.065
4610,0.045,-0.075
4611,0.050,-0.075
4612,0.050,-0.070
4613,0.050,-0.070
4614,0.050,-0.060
4615,0.040,-0.020
4616,-0.005,0.065
4617,-0.105,0.190
4618,-0.195,0.275
4619,-0.215,0.260
4620,-0.170,0.150
4621,-0.085,0.020
4622,-0.010,-0.075
4623,0.035,-0.135
4624,0.055,-0.155
4625,0.060,-0.130
4626,0.055,-0.095
4627,0.055,-0.065
4628,0.055,-0.045
4629,0.060,-0.040
4630,0.060,-0.035
4631,0.060,-0.030
4632,0.060,-0.025
4633,0.060,-0.025
4634,0.060,-0.025
4635,0.060,-0.025
4636,0.055,-0.030
4637,0.055,-0.030
4638,0.055,-0.030
4639,0.055,-0.030
4640,0.060,-0.035
4641,0.060,-0.040
4642,0.060,-0.045
4643,0.060,-0.050
4644,0.065,-0.050
4645,0.070,-0.050
4646,0.070,-0.055
4647,0.070,-0.050
4648,0.070,-0.050
4649,0.075,-0.050
4650,0.075,-0.050
4651,0.075,-0.050
4652,0.075,-0.055
4653,0.075,-0.050
4654,0.070,-0.045
4655,0.065,-0.040
4656,0.060,-0.030
4657,0.055,-0.015
4658,0.045,-0.005
4659,0.040,0.000
4660,0.030,0.000
4661,0.030,0.000
4662,0.025,0.005
4663,0.025,0.010
4664,0.020,0.015
4665,0.015,0.020
4666,0.015,0.020
4667,0.015,0.025
4668,0.015,0.030
4669,0.015,0.035
4670,0.010,0.040
4671,0.010,0.045
4672,0.010,0.050
4673,0.010,0.050
4674,0.010,0.050
4675,0.005,0.050
4676,0.005,0.050
4677,0.005,0.050
4678,0.000,0.055
4679,0.000,0.055
4680,0.000,0.055
4681,0.000,0.055
4682,0.000,0.060
4683,0.000,0.060
4684,0.000,0.065
4685,-0.005,0.065
4686,-0.005,0.065
4687,-0.005,0.070
4688,-0.015,0.085
4689,-0.020,0.110
4690,-0.025,0.135
4691,-0.030,0.140
4692,-0.035,0.140
4693,-0.045,0.140
4694,-0.045,0.135
4695,-0.040,0.120
4696,-0.035,0.110
4697,-0.030,0.110
4698,-0.020,0.100
4699,-0.010,0.080
4700,0.000,0.055
4701,0.000,0.030
4702,0.005,0.010
4703,0.010,0.000
4704,0.015,-0.005
4705,0.015,-0.010
4706,0.015,-0.010
4707,0.015,0.000
4708,0.020,0.010
4709,0.000,0.065
4710,-0.075,0.170
4711,-0.175,0.285
4712,-0.240,0.340
4713,-0.235,0.280
4714,-0.170,0.145
4715,-0.085,0.005
4716,-0.010,-0.090
4717,0.030,-0.150
4718,0.050,-0.160
4719,0.050,-0.130
4720,0.045,-0.080
4721,0.040,-0.045
4722,0.035,-0.030
4723,0.035,-0.020
4724,0.035,-0.015
4725,0.030,-0.010
4726,0.025,0.000
4727,0.025,0.000
4728,0.025,0.000
4729,0.025,0.000
4730,0.020,0.000
4731,0.015,0.005
4732,0.015,0.015
4733,0.020,0.015
4734,0.020,0.015
4735,0.020,0.020
4736,0.020,0.020
4737,0.025,0.020
4738,0.030,0.020
4739,0.030,0.020
4740,0.035,0.015
4741,0.035,0.010
4742,0.035,0.010
4743,0.030,0.005
4744,0.030,0.000
4745,0.025,0.000
4746,0.025,0.000
4747,0.030,0.000
4748,0.030,0.000
4749,0.025,0.000
4750,0.025,0.000
4751,0.025,0.005
4752,0.020,0.005
4753,0.015,0.010
4754,0.005,0.015
4755,0.000,0.020
4756,0.000,0.015
4757,0.000,0.015
4758,0.000,0.015
4759,-0.005,0.020
4760,-0.005,0.020
4761,0.000,0.015
4762,0.000,0.015
4763,0.000,0.015
4764,0.000,0.025
4765,0.000,0.030
4766,0.000,0.030
4767,0.000,0.030
4768,0.000,0.025
4769,0.000,0.025
4770,0.000,0.025
4771,0.000,0.030
4772,0.000,0.035
4773,0.000,0.035
4774,-0.005,0.035
4775,-0.010,0.035
4776,-0.010,0.025
4777,-0.010,0.025
4778,-0.010,0.025
4779,-0.010,0.030
4780,-0.010,0.035
4781,-0.015,0.035
4782,-0.015,0.045
4783,-0.020,0.075
4784,-0.025,0.100
4785,-0.030,0.110
4786,-0.040,0.115
4787,-0.045,0.120
4788,-0.050,0.115
4789,-0.045,0.100
4790,-0.040,0.095
4791,-0.035,0.095
4792,-0.030,0.090
4793,-0.020,0.075
4794,-0.010,0.055
4795,0.000,0.035
4796,0.000,0.015
4797,0.005,0.000
4798,0.010,0.000
4799,0.010,0.000
4800,0.010,-0.005
4801,0.015,0.000
4802,0.015,0.000
4803,0.000,0.040
4804,-0.060,0.135
4805,-0.160,0.255
4806,-0.235,0.330
4807,-0.250,0.300
4808,-0.195,0.180
4809,-0.105,0.035
4810,-0.025,-0.070
4811,0.020,-0.140
4812,0.040,-0.160
4813,0.040,-0.135
4814,0.035,-0.095
4815,0.035,-0.070
4816,0.035,-0.055
4817,0.035,-0.050
4818,0.035,-0.045
4819,0.035,-0.035
4820,0.030,-0.030
4821,0.030,-0.030
4822,0.030,-0.030
4823,0.030,-0.030
4824,0.030,-0.025
4825,0.030,-0.020
4826,0.030,-0.020
4827,0.030,-0.020
4828,0.030,-0.015
4829,0.030,-0.015
4830,0.030,-0.015
4831,0.030,-0.015
4832,0.030,-0.015
4833,0.030,-0.015
4834,0.030,-0.015
4835,0.030,-0.015
4836,0.030,-0.015
4837,0.035,-0.015
4838,0.035,-0.015
4839,0.035,-0.020
4840,0.035,-0.025
4841,0.035,-0.030
4842,0.030,-0.030
4843,0.030,-0.025
4844,0.025,-0.015
4845,0.015,-0.010
4846,0.010,-0.010
4847,0.010,-0.010
4848,0.010,-0.010
4849,0.005,-0.015
4850,0.005,-0.010
4851,0.000,0.000
4852,0.000,0.005
4853,0.000,0.005
4854,0.000,0.000
4855,0.000,0.000
4856,0.000,0.000
4857,0.000,0.000
4858,0.005,0.000
4859,0.005,0.000
4860,0.000,0.000
4861,0.000,0.000
4862,0.000,0.000
4863,0.000,0.000
4864,0.000,0.000
4865,0.000,0.000
4866,0.000,0.000
4867,0.000,0.005
4868,0.000,0.010
4869,0.000,0.015
4870,0.000,0.020
4871,0.000,0.015
4872,0.000,0.015
4873,0.000,0.015
4874,0.000,0.025
4875,0.000,0.030
4876,-0.005,0.040
4877,-0.005,0.060
4878,-0.010,0.085
4879,-0.015,0.100
4880,-0.025,0.110
4881,-0.035,0.115
4882,-0.040,0.115
4883,-0.040,0.105
4884,-0.035,0.095
4885,-0.030,0.090
4886,-0.025,0.085
4887,-0.020,0.070
4888,-0.005,0.050
4889,0.000,0.030
4890,0.005,0.010
4891,0.010,-0.005
4892,0.015,-0.015
4893,0.015,-0.010
4894,0.010,-0.005
4895,0.010,-0.005
4896,0.015,0.000
4897,0.005,0.015
4898,-0.025,0.085
4899,-0.115,0.205
4900,-0.210,0.300
4901,-0.250,0.310
4902,-0.215,0.210
4903,-0.130,0.070
4904,-0.040,-0.045
4905,0.025,-0.130
4906,0.055,-0.170
4907,0.055,-0.170
4908,0.050,-0.140
4909,0.045,-0.115
4910,0.045,-0.090
4911,0.045,-0.075
4912,0.040,-0.060
4913,0.035,-0.055
4914,0.035,-0.055
4915,0.035,-0.055
4916,0.035,-0.050
4917,0.035,-0.040
4918,0.040,-0.035
4919,0.040,-0.035
4920,0.040,-0.035
4921,0.040,-0.030
4922,0.040,-0.025
4923,0.040,-0.025
4924,0.035,-0.030
4925,0.035,-0.035
4926,0.040,-0.030
4927,0.040,-0.030
4928,0.045,-0.035
4929,0.045,-0.035
4930,0.045,-0.040
4931,0.050,-0.040
4932,0.050,-0.035
4933,0.050,-0.035
4934,0.055,-0.040
4935,0.050,-0.050
4936,0.045,-0.050
4937,0.045,-0.040
4938,0.040,-0.030
4939,0.035,-0.020
4940,0.025,-0.015
4941,0.020,-0.010
4942,0.015,-0.005
4943,0.010,-0.005
4944,0.010,0.000
4945,0.005,0.000
4946,0.005,0.000
4947,0.005,0.000
4948,0.005,0.000
4949,0.005,0.005
4950,0.005,0.005
4951,0.005,0.005
4952,0.010,0.000
4953,0.010,0.000
4954,0.010,0.000
4955,0.010,0.000
4956,0.010,0.000
4957,0.010,0.000
4958,0.010,0.000
4959,0.010,0.000
4960,0.010,0.005
4961,0.010,0.005
4962,0.005,0.005
4963,0.005,0.010
4964,0.005,0.015
4965,0.005,0.020
4966,0.005,0.015
4967,0.005,0.015
4968,0.000,0.015
4969,0.000,0.020
4970,0.000,0.030
4971,0.000,0.045
4972,0.000,0.070
4973,-0.010,0.085
4974,-0.015,0.095
4975,-0.025,0.095
4976,-0.035,0.100
4977,-0.030,0.095
4978,-0.030,0.085
4979,-0.030,0.085
4980,-0.025,0.080
4981,-0.020,0.065
4982,-0.010,0.050
4983,0.000,0.030
4984,0.000,0.010
4985,0.005,-0.005
4986,0.010,-0.020
4987,0.010,-0.025
4988,0.010,-0.025
4989,0.015,-0.025
4990,0.015,-0.020
4991,0.015,-0.010
4992,0.000,0.040
4993,-0.070,0.145
4994,-0.180,0.265
4995,-0.250,0.315
4996,-0.245,0.260
4997,-0.175,0.130
4998,-0.075,0.000
4999,-0.005,-0.100
5000,0.035,-0.165
5001,0.050,-0.180
5002,0.055,-0.160
5003,0.050,-0.125
5004,0.050,-0.090
5005,0.050,-0.075
5006,0.045,-0.070
5007,0.045,-0.060
5008,0.045,-0.055
5009,0.040,-0.055
5010,0.040,-0.055
5011,0.040,-0.050
5012,0.040,-0.045
5013,0.040,-0.035
5014,0.040,-0.030
5015,0.040,-0.030
5016,0.035,-0.030
5017,0.035,-0.035
5018,0.035,-0.035
5019,0.035,-0.030
5020,0.040,-0.025
5021,0.040,-0.025
5022,0.040,-0.025
5023,0.045,-0.025
5024,0.045,-0.025
5025,0.050,-0.030
5026,0.055,-0.040
5027,0.055,-0.040
5028,0.050,-0.040
5029,0.050,-0.040
5030,0.045,-0.035
5031,0.040,-0.030
5032,0.040,-0.030
5033,0.035,-0.025
5034,0.030,-0.020
5035,0.030,-0.010
5036,0.025,-0.005
5037,0.015,-0.005
5038,0.010,-0.005
5039,0.010,0.000
5040,0.010,0.000
5041,0.005,0.000
5042,0.005,0.000
5043,0.005,0.010
5044,0.005,0.015
5045,0.005,0.010
5046,0.005,0.010
5047,0.005,0.010
5048,0.005,0.010
5049,0.005,0.010
5050,0.005,0.010
5051,0.005,0.005
5052,0.005,0.000
5053,0.010,0.000
5054,0.010,0.000
5055,0.005,0.005
5056,0.005,0.010
5057,0.005,0.010
5058,0.005,0.010
5059,0.005,0.010
5060,0.005,0.010
5061,0.005,0.010
5062,0.005,0.010
5063,0.005,0.010
5064,0.000,0.020
5065,0.000,0.030
5066,0.000,0.050
5067,-0.005,0.070
5068,-0.010,0.090
5069,-0.020,0.105
5070,-0.030,0.110
5071,-0.035,0.105
5072,-0.030,0.090
5073,-0.030,0.080
5074,-0.025,0.080
5075,-0.020,0.075
5076,-0.010,0.060
5077,0.000,0.040
5078,0.000,0.030
5079,0.005,0.005
5080,0.010,-0.005
5081,0.015,-0.010
5082,0.015,-0.015
5083,0.015,-0.015
5084,0.015,-0.020
5085,0.020,-0.010
5086,0.010,0.020
5087,-0.040,0.115
5088,-0.135,0.230
5089,-0.220,0.310
5090,-0.245,0.290
5091,-0.200,0.185
5092,-0.115,0.045
5093,-0.030,-0.065
5094,0.025,-0.140
5095,0.050,-0.175
5096,0.060,-0.170
5097,0.060,-0.135
5098,0.060,-0.100
5099,0.060,-0.080
5100,0.060,-0.065
5101,0.055,-0.055
5102,0.055,-0.045
5103,0.055,-0.045
5104,0.050,-0.050
5105,0.050,-0.045
5106,0.050,-0.045
5107,0.045,-0.040
5108,0.040,-0.030
5109,0.040,-0.030
5110,0.040,-0.030
5111,0.040,-0.030
5112,0.040,-0.030
5113,0.040,-0.025
5114,0.045,-0.020
5115,0.045,-0.015
5116,0.045,-0.015
5117,0.045,-0.015
5118,0.050,-0.020
5119,0.050,-0.025
5120,0.055,-0.025
5121,0.055,-0.025
5122,0.055,-0.030
5123,0.055,-0.035
5124,0.050,-0.035
5125,0.050,-0.030
5126,0.045,-0.030
5127,0.040,-0.025
5128,0.035,-0.020
5129,0.030,-0.015
5130,0.020,-0.005
5131,0.015,0.000
5132,0.015,0.000
5133,0.010,0.000
5134,0.010,0.000
5135,0.010,0.000
5136,0.005,0.005
5137,0.005,0.010
5138,0.005,0.015
5139,0.005,0.015
5140,0.005,0.020
5141,0.005,0.015
5142,0.005,0.015
5143,0.010,0.015
5144,0.010,0.010
5145,0.010,0.010
5146,0.010,0.005
5147,0.010,0.005
5148,0.010,0.005
5149,0.010,0.005
5150,0.005,0.010
5151,0.005,0.015
5152,0.005,0.010
5153,0.005,0.010
5154,0.005,0.010
5155,0.005,0.015
5156,0.005,0.015
5157,0.005,0.015
5158,0.010,0.015
5159,0.005,0.020
5160,0.000,0.040
5161,0.000,0.065
5162,0.000,0.080
5163,0.000,0.080
5164,-0.005,0.085
5165,-0.015,0.090
5166,-0.015,0.080
5167,-0.010,0.065
5168,-0.005,0.060
5169,0.000,0.055
5170,0.000,0.040
5171,0.010,0.020
5172,0.020,0.000
5173,0.030,-0.020
5174,0.040,-0.040
5175,0.045,-0.055
5176,0.040,-0.060
5177,0.040,-0.065
5178,0.045,-0.065
5179,0.045,-0.055
5180,0.045,-0.040
5181,0.015,0.010
5182,-0.055,0.115
5183,-0.150,0.225
5184,-0.210,0.265
5185,-0.195,0.190
5186,-0.125,0.050
5187,-0.040,-0.075
5188,0.025,-0.155
5189,0.065,-0.195
5190,0.080,-0.195
5191,0.075,-0.160
5192,0.075,-0.125
5193,0.075,-0.100
5194,0.075,-0.085
5195,0.070,-0.080
5196,0.070,-0.065
5197,0.065,-0.050
5198,0.065,-0.045
5199,0.065,-0.040
5200,0.065,-0.030
5201,0.065,-0.030
5202,0.060,-0.025
5203,0.060,-0.020
5204,0.060,-0.015
5205,0.060,-0.015
5206,0.060,-0.015
5207,0.060,-0.015
5208,0.060,-0.015
5209,0.060,-0.015
5210,0.060,-0.015
5211,0.060,-0.015
5212,0.065,-0.015
5213,0.070,-0.020
5214,0.070,-0.020
5215,0.070,-0.025
5216,0.070,-0.025
5217,0.070,-0.025
5218,0.065,-0.030
5219,0.065,-0.030
5220,0.065,-0.020
5221,0.060,-0.015
5222,0.055,-0.010
5223,0.050,0.000
5224,0.045,0.000
5225,0.040,0.000
5226,0.035,0.000
5227,0.035,0.000
5228,0.030,0.005
5229,0.030,0.010
5230,0.030,0.005
5231,0.025,0.005
5232,0.025,0.005
5233,0.025,0.005
5234,0.030,0.005
5235,0.030,0.005
5236,0.030,0.010
5237,0.030,0.005
5238,0.030,0.000
5239,0.030,0.000
5240,0.030,0.005
5241,0.030,0.005
5242,0.030,0.005
5243,0.030,0.005
5244,0.025,0.010
5245,0.020,0.015
5246,0.020,0.015
5247,0.020,0.015
5248,0.020,0.015
5249,0.020,0.015
5250,0.015,0.020
5251,0.015,0.025
5252,0.015,0.025
5253,0.015,0.035
5254,0.010,0.060
5255,0.005,0.090
5256,0.000,0.100
5257,0.000,0.110
5258,-0.005,0.115
5259,-0.010,0.120
5260,-0.010,0.115
5261,-0.005,0.100
5262,-0.005,0.100
5263,-0.005,0.090
5264,0.000,0.080
5265,0.005,0.065
5266,0.010,0.050
5267,0.020,0.035
5268,0.025,0.010
5269,0.030,0.000
5270,0.030,0.000
5271,0.030,0.000
5272,0.030,0.000
5273,0.030,0.000
5274,0.020,0.020
5275,-0.005,0.090
5276,-0.075,0.205
5277,-0.175,0.320
5278,-0.230,0.365
5279,-0.220,0.300
5280,-0.160,0.155
5281,-0.075,0.020
5282,0.000,-0.060
5283,0.030,-0.105
5284,0.040,-0.100
5285,0.035,-0.065
5286,0.035,-0.030
5287,0.035,-0.005
5288,0.035,0.000
5289,0.035,0.000
5290,0.030,0.010
5291,0.030,0.010
5292,0.030,0.015
5293,0.025,0.020
5294,0.025,0.020
5295,0.020,0.020
5296,0.020,0.015
5297,0.020,0.015
5298,0.020,0.020
5299,0.020,0.025
5300,0.025,0.020
5301,0.025,0.015
5302,0.025,0.015
5303,0.020,0.015
5304,0.020,0.015
5305,0.025,0.010
5306,0.030,0.005
5307,0.030,0.000
5308,0.035,0.000
5309,0.040,-0.005
5310,0.040,-0.005
5311,0.045,-0.005
5312,0.045,-0.010
5313,0.040,-0.015
5314,0.040,-0.015
5315,0.035,-0.010
5316,0.030,-0.005
5317,0.020,-0.005
5318,0.015,0.000
5319,0.010,0.000
5320,0.005,0.005
5321,0.000,0.015
5322,0.000,0.020
5323,0.000,0.025
5324,0.000,0.020
5325,0.000,0.020
5326,0.000,0.025
5327,0.000,0.030
5328,0.000,0.035
5329,0.000,0.040
5330,0.000,0.040
5331,0.000,0.040
5332,0.000,0.040
5333,0.000,0.040
5334,0.000,0.040
5335,0.000,0.040
5336,0.000,0.045
5337,0.000,0.045
5338,0.000,0.045
5339,-0.005,0.045
5340,-0.010,0.050
5341,-0.010,0.050
5342,-0.015,0.050
5343,-0.015,0.055
5344,-0.015,0.055
5345,-0.015,0.055
5346,-0.015,0.060
5347,-0.015,0.065
5348,-0.015,0.075
5349,-0.025,0.095
5350,-0.030,0.115
5351,-0.035,0.130
5352,-0.045,0.140
5353,-0.050,0.145
5354,-0.055,0.135
5355,-0.050,0.125
5356,-0.040,0.115
5357,-0.035,0.105
5358,-0.030,0.100
5359,-0.020,0.095
5360,-0.015,0.080
5361,-0.005,0.050
5362,0.000,0.025
5363,0.000,0.010
5364,0.000,0.005
5365,0.005,0.005
5366,0.005,0.005
5367,0.005,0.005
5368,0.005,0.015
5369,0.000,0.045
5370,-0.035,0.120
5371,-0.135,0.245
5372,-0.230,0.350
5373,-0.265,0.345
5374,-0.230,0.230
5375,-0.140,0.080
5376,-0.050,-0.040
5377,0.005,-0.120
5378,0.030,-0.155
5379,0.035,-0.145
5380,0.035,-0.110
5381,0.030,-0.075
5382,0.030,-0.050
5383,0.030,-0.045
5384,0.030,-0.045
5385,0.030,-0.040
5386,0.025,-0.040
5387,0.025,-0.035
5388,0.025,-0.025
5389,0.025,-0.025
5390,0.025,-0.025
5391,0.025,-0.030
5392,0.020,-0.025
5393,0.020,-0.020
5394,0.020,-0.020
5395,0.025,-0.020
5396,0.025,-0.020
5397,0.025,-0.020
5398,0.030,-0.020
5399,0.030,-0.020
5400,0.030,-0.020
5401,0.035,-0.015
5402,0.035,-0.015
5403,0.035,-0.015
5404,0.035,-0.020
5405,0.035,-0.025
5406,0.035,-0.020
5407,0.030,-0.020
5408,0.025,-0.015
5409,0.020,-0.010
5410,0.015,-0.005
5411,0.010,0.000
5412,0.010,0.000
5413,0.005,0.005
5414,0.005,0.015
5415,0.000,0.020
5416,0.000,0.025
5417,0.000,0.030
5418,0.000,0.035
5419,0.000,0.035
5420,0.000,0.035
5421,0.000,0.035
5422,0.000,0.035
5423,0.000,0.040
5424,0.000,0.035
5425,0.000,0.030
5426,0.000,0.025
5427,0.000,0.020
5428,0.000,0.020
5429,0.000,0.020
5430,0.000,0.020
5431,0.000,0.020
5432,0.000,0.020
5433,0.000,0.020
5434,0.000,0.020
5435,0.000,0.020
5436,0.000,0.020
5437,0.000,0.020
5438,0.000,0.020
5439,0.000,0.025
5440,0.000,0.030
5441,0.000,0.030
5442,0.000,0.030
5443,0.000,0.045
5444,-0.010,0.070
5445,-0.015,0.095
5446,-0.020,0.105
5447,-0.030,0.110
5448,-0.040,0.115
5449,-0.040,0.115
5450,-0.035,0.100
5451,-0.035,0.090
5452,-0.030,0.090
5453,-0.020,0.085
5454,-0.010,0.070
5455,0.000,0.050
5456,0.000,0.030
5457,0.005,0.010
5458,0.005,0.000
5459,0.005,0.000
5460,0.010,0.000
5461,0.010,0.000
5462,0.010,0.000
5463,0.010,0.010
5464,0.000,0.055
5465,-0.065,0.160
5466,-0.170,0.285
5467,-0.250,0.350
5468,-0.255,0.305
5469,-0.195,0.180
5470,-0.105,0.040
5471,-0.015,-0.060
5472,0.025,-0.130
5473,0.045,-0.150
5474,0.045,-0.130
5475,0.040,-0.095
5476,0.040,-0.065
5477,0.040,-0.050
5478,0.040,-0.040
5479,0.035,-0.040
5480,0.035,-0.035
5481,0.035,-0.030
5482,0.035,-0.025
5483,0.035,-0.020
5484,0.035,-0.020
5485,0.035,-0.025
5486,0.035,-0.025
5487,0.030,-0.025
5488,0.030,-0.025
5489,0.030,-0.020
5490,0.030,-0.020
5491,0.030,-0.020
5492,0.035,-0.020
5493,0.035,-0.025
5494,0.040,-0.025
5495,0.045,-0.025
5496,0.045,-0.025
5497,0.050,-0.025
5498,0.050,-0.030
5499,0.045,-0.030
5500,0.045,-0.025
5501,0.040,-0.020
5502,0.035,-0.020
5503,0.030,-0.015
5504,0.030,-0.015
5505,0.025,-0.010
5506,0.020,-0.005
5507,0.015,0.000
5508,0.010,0.000
5509,0.010,0.005
5510,0.005,0.005
5511,0.005,0.010
5512,0.005,0.015
5513,0.005,0.020
5514,0.000,0.025
5515,0.000,0.030
5516,0.000,0.025
5517,0.000,0.025
5518,0.000,0.030
5519,0.005,0.030
5520,0.005,0.030
5521,0.005,0.020
5522,0.005,0.020
5523,0.005,0.020
5524,0.005,0.020
5525,0.005,0.020
5526,0.005,0.020
5527,0.005,0.020
5528,0.000,0.020
5529,0.000,0.020
5530,0.000,0.020
5531,0.000,0.020
5532,0.000,0.015
5533,0.000,0.015
5534,0.000,0.020
5535,0.000,0.025
5536,0.000,0.025
5537,0.000,0.030
5538,-0.005,0.050
5539,-0.010,0.070
5540,-0.015,0.090
5541,-0.020,0.100
5542,-0.025,0.105
5543,-0.035,0.105
5544,-0.035,0.095
5545,-0.035,0.085
5546,-0.030,0.085
5547,-0.030,0.085
5548,-0.020,0.080
5549,-0.010,0.065
5550,0.000,0.045
5551,0.000,0.020
5552,0.005,0.000
5553,0.010,0.000
5554,0.010,-0.005
5555,0.015,-0.005
5556,0.015,-0.005
5557,0.015,0.000
5558,0.015,0.010
5559,-0.005,0.060
5560,-0.080,0.170
5561,-0.175,0.290
5562,-0.245,0.335
5563,-0.240,0.280
5564,-0.175,0.150
5565,-0.090,0.020
5566,-0.010,-0.075
5567,0.030,-0.135
5568,0.045,-0.150
5569,0.045,-0.125
5570,0.040,-0.090
5571,0.040,-0.065
5572,0.040,-0.055
5573,0.035,-0.045
5574,0.035,-0.035
5575,0.035,-0.035
5576,0.035,-0.040
5577,0.035,-0.040
5578,0.035,-0.040
5579,0.035,-0.035
5580,0.035,-0.035
5581,0.035,-0.030
5582,0.035,-0.030
5583,0.035,-0.030
5584,0.035,-0.030
5585,0.035,-0.030
5586,0.035,-0.030
5587,0.040,-0.030
5588,0.045,-0.030
5589,0.045,-0.030
5590,0.045,-0.030
5591,0.045,-0.030
5592,0.050,-0.035
5593,0.050,-0.035
5594,0.050,-0.040
5595,0.055,-0.045
5596,0.050,-0.045
5597,0.045,-0.040
5598,0.040,-0.035
5599,0.040,-0.030
5600,0.035,-0.020
5601,0.030,-0.015
5602,0.020,-0.005
5603,0.015,-0.005
5604,0.010,0.000
5605,0.005,0.005
5606,0.005,0.010
5607,0.005,0.010
5608,0.000,0.015
5609,0.000,0.020
5610,0.000,0.020
5611,0.000,0.025
5612,0.000,0.025
5613,0.000,0.025
5614,0.000,0.020
5615,0.000,0.020
5616,0.000,0.020
5617,0.000,0.015
5618,0.005,0.010
5619,0.005,0.010
5620,0.005,0.010
5621,0.005,0.010
5622,0.005,0.010
5623,0.005,0.015
5624,0.005,0.010
5625,0.005,0.010
5626,0.000,0.010
5627,0.000,0.010
5628,0.000,0.010
5629,0.000,0.010
5630,0.000,0.015
5631,0.000,0.015
5632,0.000,0.020
5633,0.000,0.035
5634,0.000,0.060
5635,-0.005,0.080
5636,-0.010,0.090
5637,-0.025,0.095
5638,-0.030,0.100
5639,-0.035,0.090
5640,-0.030,0.085
5641,-0.030,0.080
5642,-0.025,0.080
5643,-0.015,0.065
5644,-0.005,0.045
5645,0.000,0.030
5646,0.000,0.010
5647,0.005,0.000
5648,0.010,-0.010
5649,0.015,-0.015
5650,0.020,-0.010
5651,0.020,-0.010
5652,0.020,-0.005
5653,0.020,0.005
5654,0.000,0.060
5655,-0.075,0.160
5656,-0.175,0.275
5657,-0.245,0.325
5658,-0.240,0.265
5659,-0.175,0.135
5660,-0.080,0.005
5661,0.000,-0.090
5662,0.040,-0.150
5663,0.055,-0.165
5664,0.055,-0.140
5665,0.055,-0.100
5666,0.055,-0.075
5667,0.050,-0.065
5668,0.050,-0.060
5669,0.045,-0.055
5670,0.045,-0.050
5671,0.040,-0.040
5672,0.040,-0.035
5673,0.045,-0.040
5674,0.045,-0.040
5675,0.045,-0.040
5676,0.045,-0.035
5677,0.045,-0.035
5678,0.045,-0.040
5679,0.045,-0.035
5680,0.045,-0.035
5681,0.045,-0.035
5682,0.045,-0.035
5683,0.045,-0.040
5684,0.050,-0.045
5685,0.050,-0.035
5686,0.050,-0.030
5687,0.055,-0.030
5688,0.055,-0.040
5689,0.055,-0.045
5690,0.055,-0.045
5691,0.050,-0.040
5692,0.050,-0.040
5693,0.045,-0.035
5694,0.040,-0.035
5695,0.035,-0.030
5696,0.030,-0.020
5697,0.025,-0.010
5698,0.015,0.000
5699,0.015,0.000
5700,0.010,0.000
5701,0.005,0.000
5702,0.005,0.000
5703,0.005,0.005
5704,0.005,0.010
5705,0.005,0.005
5706,0.005,0.005
5707,0.005,0.010
5708,0.005,0.005
5709,0.005,0.005
5710,0.005,0.010
5711,0.005,0.015
5712,0.005,0.015
5713,0.005,0.010
5714,0.005,0.005
5715,0.005,0.005
5716,0.005,0.005
5717,0.005,0.010
5718,0.005,0.010
5719,0.005,0.010
5720,0.005,0.010
5721,0.005,0.010
5722,0.005,0.005
5723,0.005,0.005
5724,0.005,0.005
5725,0.000,0.010
5726,0.000,0.010
5727,0.000,0.020
5728,0.000,0.040
5729,0.000,0.060
5730,-0.005,0.080
5731,-0.010,0.085
5732,-0.020,0.090
5733,-0.030,0.095
5734,-0.030,0.090
5735,-0.030,0.080
5736,-0.030,0.080
5737,-0.025,0.075
5738,-0.015,0.065
5739,-0.005,0.050
5740,0.000,0.030
5741,0.005,0.010
5742,0.010,-0.005
5743,0.015,-0.015
5744,0.015,-0.015
5745,0.015,-0.015
5746,0.015,-0.020
5747,0.015,-0.015
5748,0.015,0.000
5749,-0.005,0.055
5750,-0.080,0.160
5751,-0.185,0.275
5752,-0.250,0.325
5753,-0.240,0.265
5754,-0.175,0.130
5755,-0.075,0.000
5756,0.000,-0.100
5757,0.040,-0.160
5758,0.050,-0.170
5759,0.050,-0.140
5760,0.050,-0.105
5761,0.050,-0.075
5762,0.050,-0.065
5763,0.050,-0.060
5764,0.045,-0.050
5765,0.045,-0.045
5766,0.040,-0.040
5767,0.035,-0.040
5768,0.035,-0.035
5769,0.035,-0.035
5770,0.040,-0.030
5771,0.035,-0.030
5772,0.035,-0.030
5773,0.040,-0.025
5774,0.040,-0.020
5775,0.040,-0.020
5776,0.040,-0.015
5777,0.040,-0.010
5778,0.040,-0.010
5779,0.040,-0.010
5780,0.040,-0.010
5781,0.045,-0.015
5782,0.045,-0.015
5783,0.050,-0.015
5784,0.055,-0.015
5785,0.055,-0.015
5786,0.055,-0.020
5787,0.050,-0.020
5788,0.045,-0.015
5789,0.040,-0.010
5790,0.030,0.000
5791,0.030,0.000
5792,0.025,0.000
5793,0.020,0.005
5794,0.015,0.005
5795,0.010,0.010
5796,0.010,0.010
5797,0.010,0.010
5798,0.010,0.015
5799,0.005,0.015
5800,0.005,0.015
5801,0.010,0.020
5802,0.010,0.020
5803,0.010,0.020
5804,0.010,0.020
5805,0.010,0.015
5806,0.010,0.015
5807,0.010,0.015
5808,0.010,0.015
5809,0.010,0.015
5810,0.010,0.015
5811,0.010,0.015
5812,0.010,0.015
5813,0.010,0.015
5814,0.010,0.020
5815,0.010,0.020
5816,0.010,0.020
5817,0.005,0.020
5818,0.005,0.025
5819,0.005,0.025
5820,0.005,0.025
5821,0.005,0.025
5822,0.005,0.030
5823,0.000,0.045
5824,0.000,0.065
5825,0.000,0.080
5826,-0.005,0.090
5827,-0.010,0.100
5828,-0.020,0.105
5829,-0.020,0.100
5830,-0.015,0.085
5831,-0.015,0.075
5832,-0.010,0.075
5833,-0.005,0.070
5834,0.000,0.055
5835,0.005,0.040
5836,0.010,0.015
5837,0.015,0.000
5838,0.020,-0.010
5839,0.025,-0.020
5840,0.030,-0.015
5841,0.030,-0.010
5842,0.030,-0.005
5843,0.025,0.000
5844,0.010,0.045
5845,-0.050,0.155
5846,-0.155,0.285
5847,-0.235,0.355
5848,-0.235,0.305
5849,-0.170,0.160
5850,-0.080,0.015
5851,0.000,-0.085
5852,0.040,-0.150
5853,0.060,-0.160
5854,0.060,-0.135
5855,0.055,-0.100
5856,0.055,-0.075
5857,0.055,-0.055
5858,0.055,-0.045
5859,0.050,-0.040
5860,0.050,-0.035
5861,0.045,-0.030
5862,0.045,-0.030
5863,0.045,-0.030
5864,0.045,-0.030
5865,0.045,-0.025
5866,0.045,-0.025
5867,0.045,-0.020
5868,0.045,-0.015
5869,0.045,-0.015
5870,0.045,-0.015
5871,0.045,-0.010
5872,0.045,-0.010
5873,0.045,-0.005
5874,0.045,-0.005
5875,0.050,-0.010
5876,0.055,-0.010
5877,0.065,-0.015
5878,0.065,-0.015
5879,0.065,-0.020
5880,0.065,-0.025
5881,0.060,-0.025
5882,0.055,-0.025
5883,0.050,-0.020
5884,0.045,-0.015
5885,0.040,-0.015
5886,0.035,-0.015
5887,0.030,-0.010
5888,0.030,-0.005
5889,0.025,0.000
5890,0.020,0.000
5891,0.020,0.000
5892,0.015,0.000
5893,0.015,0.000
5894,0.010,0.000
5895,0.010,0.005
5896,0.010,0.010
5897,0.010,0.010
5898,0.010,0.015
5899,0.005,0.020
5900,0.005,0.020
5901,0.005,0.020
5902,0.005,0.020
5903,0.005,0.015
5904,0.005,0.015
5905,0.005,0.020
5906,0.005,0.020
5907,0.005,0.020
5908,0.005,0.025
5909,0.005,0.020
5910,0.000,0.020
5911,0.000,0.025
5912,0.000,0.025
5913,0.000,0.030
5914,0.005,0.030
5915,0.000,0.030
5916,0.000,0.030
5917,0.000,0.030
5918,0.000,0.035
5919,0.000,0.055
5920,-0.010,0.070
5921,-0.015,0.085
5922,-0.020,0.095
5923,-0.030,0.100
5924,-0.030,0.095
5925,-0.025,0.080
5926,-0.025,0.070
5927,-0.020,0.060
5928,-0.015,0.055
5929,-0.005,0.045
5930,0.000,0.035
5931,0.000,0.020
5932,0.005,0.000
5933,0.010,-0.015
5934,0.015,-0.020
5935,0.015,-0.025
5936,0.015,-0.030
5937,0.015,-0.030
5938,0.020,-0.020
5939,0.015,0.005
5940,-0.020,0.085
5941,-0.115,0.205
5942,-0.210,0.305
5943,-0.245,0.310
5944,-0.210,0.210
5945,-0.135,0.070
5946,-0.045,-0.050
5947,0.015,-0.135
5948,0.045,-0.170
5949,0.050,-0.165
5950,0.045,-0.130
5951,0.040,-0.090
5952,0.040,-0.075
5953,0.040,-0.065
5954,0.035,-0.060
5955,0.035,-0.050
5956,0.035,-0.045
5957,0.035,-0.045
5958,0.035,-0.040
5959,0.035,-0.035
5960,0.035,-0.035
5961,0.035,-0.035
5962,0.035,-0.035
5963,0.035,-0.030
5964,0.035,-0.025
5965,0.035,-0.025
5966,0.035,-0.025
5967,0.035,-0.025
5968,0.035,-0.025
5969,0.040,-0.025
5970,0.040,-0.025
5971,0.045,-0.025
5972,0.045,-0.030
5973,0.050,-0.030
5974,0.050,-0.030
5975,0.050,-0.035
5976,0.050,-0.040
5977,0.050,-0.045
5978,0.045,-0.045
5979,0.040,-0.040
5980,0.035,-0.035
5981,0.035,-0.035
5982,0.030,-0.030
5983,0.025,-0.025
5984,0.020,-0.020
5985,0.015,-0.015
5986,0.010,-0.010
5987,0.005,-0.005
5988,0.005,0.000
5989,0.005,0.000
5990,0.005,0.000
5991,0.005,0.000
5992,0.005,0.000
5993,0.005,0.005
5994,0.005,0.010
5995,0.005,0.015
5996,0.005,0.015
5997,0.005,0.015
5998,0.005,0.015
5999,0.005,0.015
6000,0.005,0.010
6001,0.005,0.010
6002,0.005,0.010
6003,0.005,0.015
6004,0.005,0.015
6005,0.000,0.010
6006,0.000,0.010
6007,0.000,0.015
6008,0.000,0.015
6009,0.000,0.015
6010,0.000,0.020
6011,0.000,0.020
6012,0.000,0.020
6013,0.000,0.025
6014,0.000,0.040
6015,-0.005,0.065
6016,-0.010,0.085
6017,-0.010,0.090
6018,-0.025,0.095
6019,-0.030,0.100
6020,-0.035,0.095
6021,-0.030,0.075
6022,-0.025,0.065
6023,-0.020,0.065
6024,-0.015,0.060
6025,-0.005,0.040
6026,0.000,0.020
6027,0.005,0.000
6028,0.010,-0.015
6029,0.015,-0.035
6030,0.020,-0.040
6031,0.020,-0.040
6032,0.020,-0.040
6033,0.020,-0.030
6034,0.020,-0.015
6035,0.010,0.025
6036,-0.050,0.120
6037,-0.145,0.245
6038,-0.220,0.315
6039,-0.235,0.285
6040,-0.185,0.165
6041,-0.100,0.025
6042,-0.020,-0.080
6043,0.025,-0.150
6044,0.045,-0.170
6045,0.050,-0.150
6046,0.050,-0.115
6047,0.050,-0.085
6048,0.050,-0.070
6049,0.050,-0.060
6050,0.050,-0.055
6051,0.045,-0.050
6052,0.045,-0.050
6053,0.045,-0.045
6054,0.045,-0.040
6055,0.045,-0.040
6056,0.045,-0.035
6057,0.045,-0.030
6058,0.045,-0.030
6059,0.045,-0.030
6060,0.045,-0.030
6061,0.045,-0.030
6062,0.040,-0.025
6063,0.040,-0.020
6064,0.040,-0.020
6065,0.040,-0.025
6066,0.045,-0.030
6067,0.050,-0.035
6068,0.050,-0.035
6069,0.055,-0.035
6070,0.055,-0.035
6071,0.055,-0.040
6072,0.055,-0.045
6073,0.050,-0.045
6074,0.050,-0.040
6075,0.045,-0.040
6076,0.040,-0.040
6077,0.035,-0.030
6078,0.035,-0.020
6079,0.030,-0.015
6080,0.025,-0.015
6081,0.020,-0.010
6082,0.015,-0.005
6083,0.010,-0.005
6084,0.010,0.000
6085,0.005,0.000
6086,0.005,0.000
6087,0.010,0.005
6088,0.010,0.005
6089,0.010,0.005
6090,0.010,0.010
6091,0.010,0.015
6092,0.010,0.010
6093,0.010,0.010
6094,0.005,0.010
6095,0.005,0.015
6096,0.005,0.010
6097,0.005,0.010
6098,0.005,0.010
6099,0.005,0.010
6100,0.005,0.015
6101,0.005,0.015
6102,0.005,0.015
6103,0.005,0.015
6104,0.005,0.015
6105,0.005,0.020
6106,0.005,0.020
6107,0.000,0.020
6108,0.000,0.020
6109,0.000,0.030
6110,0.000,0.055
6111,-0.005,0.080
6112,-0.010,0.095
6113,-0.015,0.100
6114,-0.025,0.105
6115,-0.030,0.100
6116,-0.030,0.090
6117,-0.025,0.075
6118,-0.025,0.070
6119,-0.015,0.065
6120,-0.005,0.055
6121,0.000,0.035
6122,0.005,0.010
6123,0.010,-0.005
6124,0.020,-0.020
6125,0.025,-0.030
6126,0.025,-0.035
6127,0.020,-0.035
6128,0.020,-0.030
6129,0.025,-0.025
6130,0.020,0.000
6131,-0.010,0.065
6132,-0.090,0.180
6133,-0.185,0.295
6134,-0.245,0.325
6135,-0.225,0.245
6136,-0.150,0.105
6137,-0.055,-0.020
6138,0.010,-0.120
6139,0.045,-0.170
6140,0.050,-0.170
6141,0.050,-0.135
6142,0.050,-0.100
6143,0.050,-0.070
6144,0.050,-0.065
6145,0.050,-0.060
6146,0.050,-0.050
6147,0.045,-0.045
6148,0.040,-0.040
6149,0.035,-0.040
6150,0.035,-0.035
6151,0.035,-0.030
6152,0.035,-0.025
6153,0.035,-0.025
6154,0.035,-0.020
6155,0.035,-0.020
6156,0.035,-0.020
6157,0.035,-0.020
6158,0.035,-0.020
6159,0.035,-0.020
6160,0.040,-0.025
6161,0.040,-0.025
6162,0.045,-0.025
6163,0.045,-0.025
6164,0.050,-0.025
6165,0.050,-0.035
6166,0.055,-0.040
6167,0.055,-0.040
6168,0.050,-0.040
6169,0.050,-0.040
6170,0.045,-0.035
6171,0.040,-0.025
6172,0.035,-0.020
6173,0.030,-0.015
6174,0.025,-0.010
6175,0.020,-0.005
6176,0.015,0.000
6177,0.010,0.000
6178,0.010,0.000
6179,0.005,0.010
6180,0.005,0.015
6181,0.005,0.015
6182,0.005,0.015
6183,0.005,0.015
6184,0.010,0.020
6185,0.010,0.025
6186,0.010,0.025
6187,0.010,0.025
6188,0.010,0.025
6189,0.010,0.025
6190,0.010,0.020
6191,0.005,0.015
6192,0.005,0.015
6193,0.005,0.020
6194,0.000,0.020
6195,0.000,0.020
6196,0.005,0.020
6197,0.005,0.020
6198,0.000,0.020
6199,0.000,0.020
6200,0.000,0.020
6201,0.000,0.020
6202,0.000,0.025
6203,0.000,0.030
6204,0.000,0.030
6205,0.000,0.040
6206,-0.005,0.060
6207,-0.010,0.085
6208,-0.015,0.100
6209,-0.020,0.105
6210,-0.030,0.110
6211,-0.035,0.105
6212,-0.035,0.090
6213,-0.030,0.080
6214,-0.025,0.075
6215,-0.020,0.070
6216,-0.010,0.055
6217,0.000,0.035
6218,0.005,0.015
6219,0.010,0.000
6220,0.015,-0.015
6221,0.020,-0.025
6222,0.020,-0.025
6223,0.020,-0.025
6224,0.020,-0.020
6225,0.020,-0.015
6226,0.015,0.010
6227,-0.025,0.095
6228,-0.125,0.220
6229,-0.225,0.325
6230,-0.255,0.325
6231,-0.215,0.210
6232,-0.130,0.065
6233,-0.035,-0.045
6234,0.015,-0.135
6235,0.045,-0.170
6236,0.050,-0.155
6237,0.050,-0.120
6238,0.050,-0.090
6239,0.050,-0.065
6240,0.050,-0.055
6241,0.045,-0.050
6242,0.040,-0.045
6243,0.040,-0.040
6244,0.035,-0.035
6245,0.035,-0.035
6246,0.035,-0.030
6247,0.035,-0.030
6248,0.040,-0.030
6249,0.040,-0.025
6250,0.040,-0.020
6251,0.040,-0.020
6252,0.040,-0.015
6253,0.035,-0.015
6254,0.035,-0.015
6255,0.040,-0.015
6256,0.040,-0.015
6257,0.045,-0.015
6258,0.045,-0.015
6259,0.045,-0.020
6260,0.045,-0.025
6261,0.045,-0.025
6262,0.045,-0.025
6263,0.045,-0.030
6264,0.040,-0.030
6265,0.040,-0.030
6266,0.035,-0.025
6267,0.030,-0.020
6268,0.030,-0.015
6269,0.025,-0.010
6270,0.020,-0.005
6271,0.015,0.000
6272,0.015,0.000
6273,0.010,0.000
6274,0.010,0.005
6275,0.005,0.005
6276,0.005,0.005
6277,0.005,0.005
6278,0.005,0.010
6279,0.005,0.015
6280,0.005,0.015
6281,0.005,0.020
6282,0.005,0.025
6283,0.005,0.025
6284,0.005,0.025
6285,0.005,0.025
6286,0.005,0.020
6287,0.000,0.020
6288,0.000,0.025
6289,0.000,0.030
6290,0.000,0.030
6291,0.000,0.030
6292,0.000,0.035
6293,0.000,0.035
6294,0.000,0.035
6295,0.000,0.035
6296,0.000,0.035
6297,0.000,0.040
6298,0.000,0.040
6299,0.000,0.040
6300,0.000,0.040
6301,-0.005,0.050
6302,-0.010,0.070
6303,-0.020,0.095
6304,-0.020,0.110
6305,-0.025,0.115
6306,-0.040,0.120
6307,-0.040,0.115
6308,-0.035,0.100
6309,-0.030,0.085
6310,-0.025,0.075
6311,-0.020,0.070
6312,-0.010,0.055
6313,0.000,0.035
6314,0.005,0.010
6315,0.005,0.000
6316,0.010,-0.015
6317,0.015,-0.020
6318,0.015,-0.025
6319,0.015,-0.025
6320,0.015,-0.020
6321,0.015,-0.010
6322,0.010,0.020
6323,-0.040,0.110
6324,-0.140,0.235
6325,-0.230,0.320
6326,-0.250,0.310
6327,-0.205,0.200
6328,-0.120,0.060
6329,-0.030,-0.050
6330,0.020,-0.130
6331,0.045,-0.160
6332,0.050,-0.145
6333,0.045,-0.115
6334,0.045,-0.085
6335,0.045,-0.060
6336,0.045,-0.050
6337,0.040,-0.045
6338,0.040,-0.040
6339,0.035,-0.035
6340,0.035,-0.035
6341,0.035,-0.035
6342,0.035,-0.030
6343,0.040,-0.030
6344,0.035,-0.030
6345,0.035,-0.025
6346,0.035,-0.025
6347,0.035,-0.025
6348,0.035,-0.025
6349,0.035,-0.020
6350,0.035,-0.015
6351,0.040,-0.015
6352,0.045,-0.020
6353,0.045,-0.020
6354,0.045,-0.020
6355,0.050,-0.025
6356,0.045,-0.025
6357,0.045,-0.030
6358,0.045,-0.030
6359,0.045,-0.030
6360,0.045,-0.030
6361,0.040,-0.030
6362,0.040,-0.025
6363,0.035,-0.025
6364,0.030,-0.020
6365,0.025,-0.015
6366,0.025,-0.005
6367,0.020,0.000
6368,0.015,0.000
6369,0.010,0.000
6370,0.005,0.000
6371,0.005,0.000
6372,0.005,0.005
6373,0.005,0.005
6374,0.005,0.010
6375,0.005,0.015
6376,0.005,0.015
6377,0.005,0.015
6378,0.005,0.015
6379,0.005,0.020
6380,0.005,0.020
6381,0.005,0.015
6382,0.005,0.015
6383,0.005,0.015
6384,0.005,0.015
6385,0.005,0.015
6386,0.005,0.015
6387,0.010,0.010
6388,0.005,0.010
6389,0.005,0.015
6390,0.005,0.010
6391,0.005,0.010
6392,0.010,0.010
6393,0.010,0.010
6394,0.010,0.005
6395,0.010,0.005
6396,0.010,0.005
6397,0.005,0.020
6398,0.000,0.045
6399,0.000,0.065
6400,0.000,0.070
6401,0.000,0.070
6402,-0.010,0.075
6403,-0.015,0.070
6404,-0.010,0.050
6405,-0.005,0.040
6406,-0.005,0.035
6407,0.000,0.025
6408,0.000,0.010
6409,0.015,0.000
6410,0.025,-0.020
6411,0.030,-0.045
6412,0.030,-0.055
6413,0.035,-0.060
6414,0.035,-0.060
6415,0.035,-0.060
6416,0.035,-0.050
6417,0.040,-0.035
6418,0.025,0.000
6419,-0.025,0.095
6420,-0.120,0.220
6421,-0.200,0.295
6422,-0.215,0.265
6423,-0.165,0.140
6424,-0.080,0.005
6425,0.000,-0.090
6426,0.045,-0.150
6427,0.065,-0.165
6428,0.075,-0.140
6429,0.070,-0.110
6430,0.070,-0.085
6431,0.070,-0.070
6432,0.070,-0.060
6433,0.070,-0.050
6434,0.070,-0.045
6435,0.070,-0.045
6436,0.070,-0.045
6437,0.070,-0.040
6438,0.070,-0.030
6439,0.065,-0.030
6440,0.065,-0.030
6441,0.065,-0.030
6442,0.065,-0.030
6443,0.065,-0.030
6444,0.065,-0.025
6445,0.065,-0.025
6446,0.065,-0.025
6447,0.065,-0.025
6448,0.065,-0.025
6449,0.065,-0.025
6450,0.065,-0.025
6451,0.065,-0.025
6452,0.060,-0.020
6453,0.060,-0.015
6454,0.055,-0.015
6455,0.055,-0.015
6456,0.050,-0.015
6457,0.040,-0.005
6458,0.035,0.000
6459,0.030,0.000
6460,0.025,0.010
6461,0.020,0.020
6462,0.015,0.030
6463,0.010,0.035
6464,0.005,0.040
6465,0.000,0.045
6466,0.000,0.050
6467,0.000,0.050
6468,0.000,0.055
6469,0.000,0.055
6470,0.000,0.060
6471,0.000,0.060
6472,0.000,0.060
6473,0.000,0.060
6474,0.000,0.060
6475,0.000,0.060
6476,0.000,0.055
6477,0.000,0.050
6478,0.000,0.045
6479,0.000,0.040
6480,0.000,0.035
6481,0.000,0.030
6482,0.000,0.030
6483,0.000,0.025
6484,0.000,0.020
6485,0.000,0.015
6486,0.000,0.015
6487,0.000,0.015
6488,0.005,0.015
6489,0.000,0.020
6490,0.000,0.025
6491,0.000,0.025
6492,0.000,0.030
6493,0.000,0.040
6494,0.000,0.065
6495,-0.005,0.090
6496,-0.010,0.100
6497,-0.020,0.105
6498,-0.030,0.115
6499,-0.035,0.115
6500,-0.030,0.105
6501,-0.025,0.100
6502,-0.025,0.100
6503,-0.015,0.095
6504,-0.005,0.085
6505,0.000,0.065
6506,0.000,0.045
6507,0.005,0.030
6508,0.010,0.020
6509,0.010,0.015
6510,0.015,0.015
6511,0.015,0.015
6512,0.015,0.020
6513,0.010,0.040
6514,-0.005,0.095
6515,-0.070,0.200
6516,-0.170,0.325
6517,-0.245,0.385
6518,-0.245,0.335
6519,-0.180,0.195
6520,-0.090,0.045
6521,-0.010,-0.060
6522,0.030,-0.130
6523,0.050,-0.145
6524,0.050,-0.115
6525,0.045,-0.075
6526,0.045,-0.050
6527,0.045,-0.035
6528,0.045,-0.030
6529,0.040,-0.025
6530,0.040,-0.020
6531,0.035,-0.015
6532,0.035,-0.010
6533,0.035,-0.005
6534,0.035,-0.005
6535,0.035,-0.005
6536,0.040,0.000
6537,0.035,0.000
6538,0.035,0.000
6539,0.035,0.000
6540,0.035,0.000
6541,0.030,0.000
6542,0.030,0.000
6543,0.030,0.000
6544,0.030,0.000
6545,0.035,-0.005
6546,0.035,-0.005
6547,0.040,-0.005
6548,0.045,-0.005
6549,0.045,-0.010
6550,0.050,-0.010
6551,0.050,-0.015
6552,0.045,-0.015
6553,0.040,-0.015
6554,0.035,-0.015
6555,0.030,-0.010
6556,0.025,-0.005
6557,0.020,-0.005
6558,0.015,-0.005
6559,0.015,-0.005
6560,0.010,-0.005
6561,0.010,-0.005
6562,0.010,-0.010
6563,0.005,-0.005
6564,0.005,-0.005
6565,0.005,-0.005
6566,0.005,-0.005
6567,0.005,0.000
6568,0.005,0.000
6569,0.005,0.000
6570,0.005,0.000
6571,0.005,0.000
6572,0.005,0.005
6573,0.005,0.010
6574,0.005,0.015
6575,0.005,0.015
6576,0.000,0.015
6577,0.000,0.020
6578,0.000,0.020
6579,0.000,0.025
6580,0.000,0.025
6581,-0.005,0.030
6582,-0.010,0.030
6583,-0.010,0.030
6584,-0.010,0.035
6585,-0.015,0.040
6586,-0.015,0.040
6587,-0.015,0.045
6588,-0.015,0.055
6589,-0.020,0.065
6590,-0.025,0.085
6591,-0.030,0.105
6592,-0.035,0.115
6593,-0.040,0.120
6594,-0.050,0.125
6595,-0.060,0.125
6596,-0.055,0.110
6597,-0.050,0.100
6598,-0.045,0.095
6599,-0.035,0.090
6600,-0.025,0.075
6601,-0.015,0.055
6602,-0.010,0.035
6603,-0.005,0.015
6604,-0.005,0.000
6605,-0.005,0.000
6606,-0.005,-0.005
6607,-0.010,-0.010
6608,-0.010,-0.005
6609,-0.010,0.000
6610,-0.030,0.050
6611,-0.095,0.150
6612,-0.195,0.285
6613,-0.280,0.370
6614,-0.290,0.355
6615,-0.240,0.230
6616,-0.150,0.075
6617,-0.055,-0.040
6618,0.000,-0.110
6619,0.020,-0.135
6620,0.025,-0.110
6621,0.020,-0.075
6622,0.020,-0.050
6623,0.020,-0.040
6624,0.015,-0.030
6625,0.015,-0.025
6626,0.015,-0.020
6627,0.015,-0.015
6628,0.010,-0.015
6629,0.010,-0.015
6630,0.010,-0.010
6631,0.010,-0.010
6632,0.010,-0.010
6633,0.010,-0.005
6634,0.010,0.000
6635,0.010,0.000
6636,0.010,0.000
6637,0.010,0.005
6638,0.010,0.000
6639,0.015,0.000
6640,0.015,0.000
6641,0.015,0.000
6642,0.020,-0.005
6643,0.025,-0.010
6644,0.025,-0.015
6645,0.030,-0.020
6646,0.030,-0.020
6647,0.030,-0.025
6648,0.025,-0.025
6649,0.025,-0.025
6650,0.020,-0.020
6651,0.015,-0.015
6652,0.010,-0.010
6653,0.005,-0.005
6654,0.000,0.000
6655,0.000,0.000
6656,0.000,0.000
6657,0.000,0.000
6658,0.000,0.000
6659,0.000,0.000
6660,0.000,0.005
6661,0.000,0.005
6662,0.000,0.010
6663,0.000,0.010
6664,0.000,0.005
6665,0.005,0.005
6666,0.005,0.000
6667,0.005,0.000
6668,0.005,0.005
6669,0.005,0.005
6670,0.005,0.010
6671,0.010,0.015
6672,0.005,0.015
6673,0.005,0.015
6674,0.005,0.020
6675,0.000,0.020
6676,0.000,0.025
6677,0.000,0.025
6678,0.000,0.020
6679,0.000,0.020
6680,0.000,0.025
6681,0.000,0.020
6682,0.000,0.020
6683,0.000,0.020
6684,0.000,0.025
6685,0.000,0.035
6686,0.000,0.055
6687,-0.010,0.075
6688,-0.015,0.085
6689,-0.020,0.090
6690,-0.035,0.090
6691,-0.030,0.085
6692,-0.025,0.065
6693,-0.020,0.055
6694,-0.015,0.050
6695,-0.010,0.040
6696,0.000,0.025
6697,0.005,0.005
6698,0.010,-0.005
6699,0.015,-0.025
6700,0.020,-0.040
6701,0.025,-0.045
6702,0.025,-0.045
6703,0.025,-0.045
6704,0.030,-0.040
6705,0.030,-0.020
6706,0.010,0.030
6707,-0.060,0.145
6708,-0.165,0.260
6709,-0.235,0.315
6710,-0.235,0.260
6711,-0.170,0.130
6712,-0.080,0.000
6713,-0.005,-0.105
6714,0.035,-0.165
6715,0.050,-0.175
6716,0.055,-0.150
6717,0.050,-0.115
6718,0.050,-0.085
6719,0.045,-0.070
6720,0.045,-0.065
6721,0.045,-0.060
6722,0.045,-0.060
6723,0.045,-0.055
6724,0.045,-0.055
6725,0.045,-0.055
6726,0.045,-0.050
6727,0.045,-0.045
6728,0.045,-0.045
6729,0.045,-0.040
6730,0.050,-0.040
6731,0.045,-0.040
6732,0.045,-0.035
6733,0.045,-0.035
6734,0.045,-0.035
6735,0.045,-0.035
6736,0.050,-0.035
6737,0.050,-0.035
6738,0.055,-0.035
6739,0.055,-0.040
6740,0.060,-0.040
6741,0.060,-0.045
6742,0.060,-0.045
6743,0.060,-0.045
6744,0.055,-0.050
6745,0.050,-0.050
6746,0.050,-0.045
6747,0.040,-0.040
6748,0.035,-0.035
6749,0.035,-0.030
6750,0.030,-0.025
6751,0.025,-0.020
6752,0.025,-0.015
6753,0.020,-0.015
6754,0.015,-0.015
6755,0.010,-0.005
6756,0.010,0.000
6757,0.010,0.000
6758,0.010,0.000
6759,0.010,0.000
6760,0.010,0.000
6761,0.010,0.000
6762,0.010,0.000
6763,0.015,0.000
6764,0.015,0.000
6765,0.015,0.000
6766,0.010,0.000
6767,0.010,0.000
6768,0.010,0.000
6769,0.010,0.000
6770,0.005,0.000
6771,0.005,0.000
6772,0.005,0.005
6773,0.005,0.010
6774,0.005,0.015
6775,0.005,0.015
6776,0.000,0.015
6777,0.000,0.015
6778,0.000,0.020
6779,0.000,0.020
6780,0.000,0.025
6781,0.000,0.040
6782,-0.005,0.070
6783,-0.010,0.090
6784,-0.015,0.100
6785,-0.020,0.105
6786,-0.030,0.110
6787,-0.035,0.105
6788,-0.030,0.095
6789,-0.025,0.085
6790,-0.025,0.080
6791,-0.015,0.065
6792,-0.005,0.050
6793,0.000,0.030
6794,0.005,0.010
6795,0.010,-0.005
6796,0.015,-0.015
6797,0.020,-0.020
6798,0.025,-0.025
6799,0.025,-0.025
6800,0.025,-0.020
6801,0.025,-0.005
6802,0.000,0.040
6803,-0.065,0.145
6804,-0.165,0.260
6805,-0.235,0.315
6806,-0.235,0.265
6807,-0.170,0.135
6808,-0.080,0.000
6809,-0.005,-0.100
6810,0.035,-0.160
6811,0.055,-0.175
6812,0.055,-0.155
6813,0.050,-0.120
6814,0.050,-0.090
6815,0.050,-0.070
6816,0.050,-0.055
6817,0.050,-0.050
6818,0.050,-0.045
6819,0.050,-0.045
6820,0.050,-0.040
6821,0.050,-0.040
6822,0.045,-0.035
6823,0.045,-0.030
6824,0.045,-0.030
6825,0.045,-0.030
6826,0.045,-0.030
6827,0.045,-0.030
6828,0.045,-0.025
6829,0.045,-0.025
6830,0.045,-0.020
6831,0.045,-0.020
6832,0.045,-0.020
6833,0.045,-0.020
6834,0.050,-0.020
6835,0.050,-0.020
6836,0.050,-0.025
6837,0.055,-0.025
6838,0.055,-0.030
6839,0.050,-0.030
6840,0.050,-0.030
6841,0.045,-0.030
6842,0.040,-0.025
6843,0.035,-0.025
6844,0.030,-0.020
6845,0.030,-0.020
