'sample interval','ECG0','ECG1'
'0.0078125 sec','mV','mV'
0,-0.050,0.160
1,-0.110,0.090
2,0.020,0.160
3,0.020,0.100
4,-0.050,0.150
5,-0.050,0.100
6,-0.100,0.190
7,-0.090,0.150
8,-0.020,0.160
9,-0.070,0.130
10,-0.080,0.140
11,-0.030,0.130
12,-0.020,0.160
13,-0.050,0.180
14,-0.010,0.160
15,0.060,0.140
16,0.020,0.120
17,-0.020,0.090
18,-0.060,0.220
19,-0.060,0.230
20,-0.060,0.240
21,0.030,0.260
22,0.050,0.240
23,0.100,0.140
24,0.130,0.130
25,0.010,0.010
26,0.120,0.080
27,0.100,-0.020
28,0.050,0.070
29,0.060,0.000
30,0.070,0.040
31,-0.010,0.090
32,0.030,0.080
33,0.030,0.040
34,0.060,0.010
35,0.070,-0.010
36,-0.050,0.000
37,-0.010,0.030
38,-0.040,-0.030
39,0.000,0.040
40,-0.030,0.040
41,0.030,-0.010
42,-0.030,0.020
43,0.000,0.000
44,0.010,-0.010
45,-0.010,0.000
46,-0.080,0.000
47,0.040,0.000
48,-0.010,0.030
49,0.080,0.050
50,0.280,0.020
51,0.640,0.160
52,1.520,-0.370
53,2.460,-2.200
54,2.540,-3.370
55,1.910,-3.990
56,0.970,-3.570
57,0.600,-2.600
58,-0.090,-2.140
59,-0.580,-1.370
60,-0.660,-0.960
61,-0.610,-0.590
62,-0.590,-0.380
63,-0.400,-0.140
64,-0.350,0.180
65,-0.300,0.250
66,-0.290,0.280
67,-0.290,0.300
68,-0.350,0.310
69,-0.340,0.340
70,-0.390,0.380
71,-0.320,0.370
72,-0.410,0.370
73,-0.420,0.450
74,-0.460,0.430
75,-0.450,0.500
76,-0.540,0.450
77,-0.500,0.510
78,-0.500,0.610
79,-0.640,0.540
80,-0.690,0.650
81,-0.670,0.710
82,-0.710,0.720
83,-0.810,0.760
84,-0.930,0.770
85,-0.900,0.880
86,-0.960,0.860
87,-1.000,0.890
88,-0.940,0.930
89,-0.980,0.930
90,-0.950,0.880
91,-0.870,0.850
92,-0.730,0.810
93,-0.500,0.660
94,-0.380,0.620
95,-0.310,0.510
96,-0.170,0.390
97,-0.120,0.340
98,-0.110,0.200
99,-0.120,0.220
100,-0.190,0.180
101,-0.090,0.160
102,-0.120,0.140
103,-0.110,0.090
104,-0.100,0.200
105,-0.130,0.120
106,-0.080,0.150
107,-0.120,0.130
108,-0.170,0.140
109,-0.170,0.110
110,-0.180,0.130
111,-0.150,0.110
112,-0.200,0.110
113,-0.180,0.130
114,-0.150,0.080
115,-0.200,0.140
116,-0.100,0.060
117,-0.170,0.050
118,-0.200,0.130
119,-0.200,0.080
120,-0.160,0.060
121,-0.140,0.150
122,-0.110,0.050
123,-0.120,0.120
124,-0.120,0.100
125,-0.110,0.120
126,-0.150,0.180
127,-0.210,0.190
128,-0.150,0.210
129,-0.090,0.190
130,-0.050,0.030
131,-0.020,0.090
132,0.050,0.030
133,-0.090,0.030
134,-0.020,-0.030
135,-0.010,-0.020
136,-0.120,-0.010
137,-0.060,-0.010
138,-0.080,0.060
139,-0.150,-0.010
140,-0.130,-0.030
141,-0.070,0.000
142,-0.120,-0.020
143,-0.120,0.000
144,-0.080,0.000
145,-0.140,0.000
146,-0.140,-0.020
147,-0.160,0.040
148,-0.120,-0.030
149,-0.110,-0.050
150,-0.110,-0.030
151,-0.120,0.010
152,-0.040,0.010
153,-0.080,-0.010
154,-0.080,-0.020
155,-0.150,-0.010
156,0.000,0.020
157,0.300,0.100
158,0.530,0.110
159,1.660,-0.620
160,2.490,-2.560
161,2.480,-3.460
162,1.730,-3.900
163,0.900,-3.320
164,0.430,-2.380
165,-0.130,-1.870
166,-0.700,-1.320
167,-0.860,-0.880
168,-0.690,-0.490
169,-0.560,-0.340
170,-0.480,-0.080
171,-0.390,0.190
172,-0.350,0.260
173,-0.430,0.250
174,-0.410,0.270
175,-0.410,0.300
176,-0.400,0.340
177,-0.430,0.280
178,-0.400,0.300
179,-0.470,0.390
180,-0.430,0.380
181,-0.440,0.350
182,-0.560,0.410
183,-0.520,0.460
184,-0.570,0.470
185,-0.630,0.550
186,-0.650,0.540
187,-0.670,0.590
188,-0.810,0.630
189,-0.770,0.690
190,-0.900,0.700
191,-0.880,0.760
192,-1.020,0.800
193,-1.050,0.820
194,-1.140,0.840
195,-1.080,0.900
196,-0.980,0.870
197,-0.980,0.860
198,-0.850,0.820
199,-0.690,0.690
200,-0.590,0.660
201,-0.440,0.520
202,-0.250,0.450
203,-0.230,0.330
204,-0.160,0.300
205,-0.110,0.230
206,-0.090,0.150
207,-0.150,0.110
208,-0.060,0.090
209,-0.230,0.100
210,-0.210,0.080
211,-0.150,0.100
212,-0.150,0.090
213,-0.140,0.040
214,-0.110,0.080
215,-0.160,0.110
216,-0.180,0.050
217,-0.120,0.080
218,-0.210,0.060
219,-0.220,0.070
220,-0.150,0.090
221,-0.180,0.050
222,-0.190,0.070
223,-0.170,0.080
224,-0.210,0.070
225,-0.160,0.090
226,-0.120,0.060
227,-0.170,0.060
228,-0.170,0.090
229,-0.140,0.070
230,-0.150,0.070
231,-0.130,0.080
232,-0.130,0.160
233,-0.190,0.230
234,-0.080,0.200
235,-0.130,0.210
236,-0.040,0.150
237,-0.020,0.000
238,-0.030,0.020
239,-0.020,0.030
240,0.010,0.000
241,0.030,-0.020
242,-0.030,-0.010
243,0.020,-0.040
244,0.000,0.020
245,-0.080,-0.020
246,-0.130,0.020
247,-0.080,0.010
248,-0.040,-0.010
249,-0.040,0.000
250,-0.160,-0.050
251,-0.050,0.020
252,-0.050,-0.010
253,-0.040,-0.010
254,-0.050,0.000
255,-0.090,-0.050
256,0.000,-0.030
257,-0.060,-0.040
258,-0.030,-0.020
259,-0.030,-0.010
260,0.010,-0.050
261,0.010,-0.030
262,0.020,-0.030
263,0.140,0.010
264,0.560,0.140
265,1.150,-0.160
266,2.280,-1.650
267,2.650,-3.280
268,2.290,-3.880
269,1.270,-3.790
270,0.850,-2.780
271,0.080,-2.240
272,-0.490,-1.570
273,-0.620,-1.080
274,-0.610,-0.670
275,-0.540,-0.480
276,-0.380,-0.200
277,-0.310,0.080
278,-0.240,0.230
279,-0.280,0.230
280,-0.220,0.270
281,-0.220,0.250
282,-0.320,0.290
283,-0.290,0.290
284,-0.350,0.360
285,-0.320,0.360
286,-0.300,0.350
287,-0.320,0.420
288,-0.350,0.450
289,-0.340,0.460
290,-0.410,0.440
291,-0.390,0.480
292,-0.470,0.540
293,-0.550,0.540
294,-0.570,0.590
295,-0.580,0.630
296,-0.650,0.740
297,-0.700,0.700
298,-0.740,0.810
299,-0.820,0.820
300,-0.780,0.850
301,-0.870,0.850
302,-0.870,0.880
303,-0.790,0.870
304,-0.710,0.820
305,-0.550,0.750
306,-0.360,0.690
307,-0.180,0.590
308,-0.030,0.480
309,0.070,0.380
310,0.070,0.240
311,0.120,0.230
312,0.160,0.150
313,0.140,0.100
314,0.150,0.090
315,0.170,0.050
316,0.210,0.050
317,0.170,0.050
318,0.180,0.020
319,0.130,0.020
320,0.150,0.040
321,0.170,0.000
322,0.130,0.010
323,0.110,-0.010
324,0.150,0.020
325,0.160,0.070
326,0.060,0.030
327,0.100,0.060
328,0.130,0.040
329,0.100,0.040
330,0.100,0.040
331,0.150,0.050
332,0.130,0.060
333,0.100,0.060
334,0.140,0.000
335,0.120,0.060
336,0.200,0.040
337,0.170,0.000
338,0.090,0.000
339,0.100,0.100
340,0.080,0.150
341,0.110,0.170
342,0.180,0.170
343,0.230,0.150
344,0.240,0.010
345,0.250,0.010
346,0.280,-0.060
347,0.180,-0.030
348,0.290,-0.060
349,0.250,-0.030
350,0.220,-0.090
351,0.230,-0.020
352,0.240,-0.020
353,0.160,-0.070
354,0.160,-0.030
355,0.220,-0.050
356,0.190,-0.090
357,0.160,-0.040
358,0.170,-0.080
359,0.220,-0.030
360,0.140,-0.040
361,0.250,-0.050
362,0.230,-0.050
363,0.170,-0.080
364,0.290,-0.040
365,0.160,-0.090
366,0.130,-0.040
367,0.240,-0.040
368,0.170,-0.070
369,0.320,-0.090
370,0.230,-0.050
371,0.450,0.010
372,0.750,0.110
373,1.780,-0.560
374,2.620,-2.610
375,2.620,-3.650
376,1.960,-4.100
377,1.270,-3.390
378,0.820,-2.550
379,0.230,-2.020
380,-0.400,-1.470
381,-0.530,-0.930
382,-0.420,-0.610
383,-0.230,-0.450
384,-0.180,-0.070
385,-0.110,0.180
386,-0.120,0.200
387,-0.110,0.210
388,-0.020,0.220
389,-0.090,0.220
390,-0.170,0.290
391,-0.070,0.280
392,-0.190,0.290
393,-0.140,0.330
394,-0.250,0.310
395,-0.250,0.410
396,-0.280,0.410
397,-0.300,0.420
398,-0.260,0.440
399,-0.270,0.490
400,-0.360,0.540
401,-0.380,0.550
402,-0.520,0.670
403,-0.540,0.650
404,-0.660,0.750
405,-0.600,0.790
406,-0.730,0.820
407,-0.790,0.860
408,-0.820,0.910
409,-0.710,0.910
410,-0.740,0.870
411,-0.650,0.860
412,-0.660,0.840
413,-0.460,0.740
414,-0.230,0.670
415,-0.150,0.560
416,-0.050,0.480
417,0.110,0.380
418,0.140,0.300
419,0.140,0.200
420,0.080,0.190
421,0.190,0.080
422,0.100,0.120
423,0.130,0.080
424,0.280,0.040
425,0.220,0.050
426,0.220,0.090
427,0.100,0.030
428,0.170,0.080
429,0.120,0.050
430,0.090,0.040
431,0.090,0.070
432,0.120,-0.010
433,0.100,0.070
434,0.130,0.030
435,0.120,0.090
436,0.150,0.080
437,0.140,0.090
438,0.150,0.000
439,0.100,0.040
440,0.070,0.060
441,0.240,0.040
442,0.100,0.050
443,0.170,0.030
444,0.220,0.050
445,0.230,0.050
446,0.190,0.100
447,0.160,0.110
448,0.170,0.240
449,0.200,0.220
450,0.210,0.130
451,0.230,0.090
452,0.330,0.040
453,0.310,-0.030
454,0.340,0.000
455,0.310,-0.060
456,0.360,-0.060
457,0.350,-0.080
458,0.250,-0.090
459,0.200,-0.020
460,0.220,0.000
461,0.270,-0.070
462,0.280,-0.110
463,0.280,-0.110
464,0.270,-0.050
465,0.210,-0.010
466,0.280,-0.030
467,0.240,-0.060
468,0.240,-0.080
469,0.270,-0.060
470,0.240,-0.040
471,0.300,-0.110
472,0.260,-0.080
473,0.290,-0.020
474,0.220,-0.030
475,0.210,-0.060
476,0.330,-0.110
477,0.150,-0.010
478,0.450,-0.010
479,0.860,0.050
480,1.580,-0.420
481,2.660,-2.320
482,2.720,-3.700
483,2.120,-4.280
484,1.230,-3.940
485,0.990,-2.920
486,0.300,-2.380
487,-0.180,-1.840
488,-0.470,-1.300
489,-0.350,-0.780
490,-0.280,-0.560
491,-0.080,-0.200
492,-0.140,0.060
493,0.030,0.270
494,0.070,0.240
495,-0.080,0.290
496,-0.140,0.300
497,0.020,0.380
498,-0.040,0.310
499,-0.030,0.310
500,-0.060,0.400
501,-0.090,0.470
502,-0.180,0.420
503,-0.090,0.460
504,-0.180,0.550
505,-0.100,0.510
506,-0.210,0.580
507,-0.340,0.630
508,-0.220,0.690
509,-0.350,0.750
510,-0.290,0.830
511,-0.420,0.830
512,-0.560,0.940
513,-0.500,0.960
514,-0.600,1.030
515,-0.560,1.060
516,-0.720,1.030
517,-0.550,1.120
518,-0.470,1.050
519,-0.600,1.020
520,-0.420,0.910
521,-0.030,0.910
522,-0.020,0.720
523,-0.090,0.710
524,0.200,0.560
525,0.250,0.410
526,0.250,0.370
527,0.360,0.260
528,0.260,0.260
529,0.290,0.140
530,0.250,0.140
531,0.200,0.100
532,0.210,0.170
533,0.250,0.090
534,0.210,0.120
535,0.040,0.100
536,0.330,0.040
537,0.320,0.020
538,0.090,0.150
539,0.360,0.090
540,0.240,-0.040
541,0.150,0.060
542,0.030,0.080
543,0.280,0.060
544,0.230,0.030
545,0.280,0.090
546,0.090,-0.010
547,0.280,0.150
548,0.270,0.050
549,0.220,0.040
550,0.110,0.080
551,0.190,0.070
552,0.320,0.060
553,0.280,0.000
554,0.200,0.090
555,0.290,0.210
556,0.250,0.210
557,0.310,0.170
558,0.320,0.180
559,0.380,0.010
560,0.420,-0.010
561,0.290,-0.020
562,0.400,-0.040
563,0.370,-0.070
564,0.330,-0.030
565,0.490,-0.200
566,0.350,-0.020
567,0.300,-0.060
568,0.290,-0.090
569,0.410,-0.130
570,0.230,-0.090
571,0.300,-0.110
572,0.270,-0.040
573,0.200,-0.080
574,0.180,-0.090
575,0.370,-0.060
576,0.260,-0.110
577,0.180,-0.040
578,0.110,-0.130
579,0.170,-0.040
580,0.320,-0.110
581,0.180,-0.150
582,0.140,0.000
583,0.260,-0.090
584,0.310,-0.090
585,0.230,-0.050
586,0.620,0.030
587,0.910,-0.060
588,2.150,-1.160
589,2.760,-3.460
590,2.280,-4.170
591,1.470,-4.370
592,0.980,-3.580
593,0.420,-2.640
594,-0.170,-2.030
595,-0.360,-1.390
596,-0.430,-0.980
597,-0.310,-0.580
598,-0.220,-0.330
599,0.030,-0.030
600,-0.030,0.170
601,-0.030,0.220
602,0.080,0.270
603,0.110,0.180
604,0.000,0.260
605,-0.020,0.230
606,-0.040,0.290
607,-0.120,0.360
608,0.030,0.350
609,-0.070,0.260
610,-0.100,0.390
611,-0.010,0.410
612,-0.090,0.370
613,-0.150,0.430
614,-0.210,0.490
615,-0.230,0.520
616,-0.350,0.600
617,-0.280,0.610
618,-0.350,0.630
619,-0.270,0.670
620,-0.410,0.790
621,-0.550,0.790
622,-0.410,0.830
623,-0.600,0.900
624,-0.680,0.880
625,-0.380,0.800
626,-0.450,0.660
627,-0.510,0.850
628,-0.270,0.690
629,-0.020,0.510
630,0.020,0.430
631,0.050,0.320
632,0.140,0.300
633,0.370,0.080
634,0.290,0.050
635,0.100,0.000
636,0.140,0.060
637,0.040,-0.070
638,0.220,0.030
639,0.270,-0.080
640,0.290,-0.100
641,0.040,-0.030
642,0.080,-0.020
643,0.290,-0.120
644,-0.030,0.010
645,-0.040,-0.050
646,0.130,0.130
647,0.250,-0.200
648,0.080,0.030
649,0.090,0.080
650,0.290,-0.160
651,0.150,-0.060
652,0.060,0.000
653,0.080,-0.090
654,0.090,-0.070
655,0.190,0.040
656,0.200,-0.120
657,0.210,-0.100
658,0.090,0.040
659,0.200,-0.180
660,0.190,0.040
661,0.110,-0.040
662,0.030,-0.020
663,0.150,0.100
664,0.270,0.020
665,0.220,0.090
666,0.220,0.050
667,0.020,-0.180
668,0.340,0.020
669,0.360,-0.130
670,0.270,-0.250
671,0.300,-0.080
672,0.080,-0.130
673,0.300,-0.200
674,0.240,-0.070
675,0.100,-0.050
676,0.180,-0.110
677,0.200,-0.170
678,0.110,-0.180
679,0.070,0.000
680,0.150,-0.160
681,0.160,-0.140
682,0.020,-0.030
683,0.090,-0.140
684,0.220,-0.090
685,0.260,-0.110
686,0.180,-0.060
687,0.240,-0.060
688,0.070,-0.120
689,-0.010,0.000
690,0.170,-0.060
691,0.230,-0.250
692,0.290,-0.050
693,0.260,0.010
694,0.600,0.050
695,0.860,0.050
696,1.650,-1.040
697,2.370,-2.980
698,2.070,-3.710
699,1.460,-4.030
700,0.990,-3.210
701,0.390,-2.480
702,-0.120,-1.940
703,-0.420,-1.490
704,-0.500,-0.850
705,-0.390,-0.570
706,-0.230,-0.430
707,-0.120,-0.130
708,-0.050,0.110
709,-0.040,0.190
710,-0.030,0.170
711,-0.020,0.160
712,-0.150,0.220
713,-0.050,0.310
714,-0.060,0.230
715,-0.190,0.310
716,0.030,0.230
717,-0.030,0.320
718,-0.250,0.340
719,-0.170,0.380
720,-0.200,0.350
721,-0.310,0.430
722,-0.460,0.530
723,-0.320,0.540
724,-0.140,0.530
725,-0.380,0.550
726,-0.470,0.630
727,-0.540,0.720
728,-0.600,0.720
729,-0.600,0.810
730,-0.680,0.780
731,-0.800,0.890
732,-0.760,0.880
733,-0.760,0.860
734,-0.730,0.950
735,-0.780,0.750
736,-0.240,0.810
737,-0.190,0.590
738,-0.140,0.520
739,-0.150,0.430
740,0.110,0.310
741,0.040,0.210
742,0.070,0.170
743,0.020,0.120
744,-0.040,0.050
745,0.060,0.120
746,0.000,-0.010
747,0.110,0.070
748,0.180,-0.010
749,0.010,-0.020
750,-0.030,0.090
751,0.040,0.050
752,0.080,-0.030
753,0.060,0.010
754,-0.040,0.000
755,-0.180,0.060
756,-0.060,0.060
757,0.150,0.100
758,-0.150,0.020
759,0.010,0.100
760,-0.050,0.090
761,-0.020,0.120
762,0.010,0.060
763,-0.130,-0.010
764,-0.040,0.220
765,0.060,0.000
766,-0.200,0.080
767,-0.050,0.150
768,0.190,-0.010
769,-0.020,0.090
770,-0.160,0.210
771,-0.210,0.180
772,0.020,0.240
773,-0.010,0.230
774,-0.020,0.280
775,0.040,0.170
776,0.020,-0.010
777,0.170,0.120
778,0.130,0.000
779,0.050,-0.010
780,0.110,0.010
781,-0.080,-0.060
782,0.070,-0.020
783,0.150,0.000
784,0.020,-0.040
785,-0.050,0.050
786,-0.020,-0.030
787,0.070,-0.050
788,-0.030,-0.040
789,-0.060,0.040
790,-0.010,-0.010
791,0.060,-0.060
792,0.020,-0.020
793,0.020,-0.030
794,0.040,-0.020
795,0.080,-0.050
796,0.090,0.000
797,0.010,-0.030
798,0.070,-0.070
799,0.000,-0.040
800,0.040,-0.050
801,0.050,-0.020
802,0.180,-0.030
803,0.620,0.130
804,1.040,-0.160
805,2.110,-1.710
806,2.340,-3.480
807,1.710,-4.160
808,0.880,-3.920
809,0.440,-2.800
810,-0.070,-2.390
811,-0.640,-1.670
812,-0.680,-1.160
813,-0.560,-0.730
814,-0.540,-0.450
815,-0.380,-0.160
816,-0.270,0.120
817,-0.310,0.270
818,-0.320,0.270
819,-0.240,0.300
820,-0.410,0.320
821,-0.420,0.360
822,-0.320,0.370
823,-0.280,0.370
824,-0.350,0.380
825,-0.380,0.430
826,-0.450,0.430
827,-0.580,0.490
828,-0.510,0.510
829,-0.470,0.530
830,-0.460,0.560
831,-0.620,0.600
832,-0.650,0.670
833,-0.690,0.680
834,-0.650,0.760
835,-0.730,0.780
836,-0.860,0.850
837,-0.960,0.870
838,-0.880,0.930
839,-0.990,0.940
840,-0.980,0.950
841,-0.900,0.990
842,-1.000,0.960
843,-0.840,0.960
844,-0.750,0.880
845,-0.630,0.780
846,-0.460,0.680
847,-0.400,0.610
848,-0.300,0.460
849,-0.320,0.380
850,-0.170,0.280
851,-0.110,0.250
852,-0.150,0.210
853,-0.180,0.150
854,-0.200,0.150
855,-0.250,0.140
856,-0.350,0.160
857,-0.270,0.140
858,-0.250,0.140
859,-0.330,0.160
860,-0.220,0.160
861,-0.300,0.110
862,-0.290,0.140
863,-0.420,0.140
864,-0.420,0.160
865,-0.360,0.160
866,-0.370,0.160
867,-0.340,0.180
868,-0.440,0.150
869,-0.310,0.170
870,-0.300,0.130
871,-0.410,0.160
872,-0.330,0.170
873,-0.390,0.110
874,-0.360,0.150
875,-0.420,0.090
876,-0.340,0.150
877,-0.240,0.120
878,-0.550,0.160
879,-0.210,0.280
880,-0.350,0.210
881,-0.380,0.260
882,-0.340,0.270
883,-0.230,0.150
884,-0.250,0.140
885,-0.230,0.100
886,-0.220,0.060
887,-0.170,0.050
888,-0.200,0.060
889,-0.240,0.020
890,-0.280,0.060
891,-0.370,0.110
892,-0.450,0.120
893,-0.270,0.100
894,-0.200,0.020
895,-0.300,0.080
896,-0.300,0.050
897,-0.230,0.070
898,-0.310,0.050
899,-0.380,0.020
900,-0.360,0.090
901,-0.330,0.070
902,-0.330,0.080
903,-0.330,0.080
904,-0.190,0.040
905,-0.360,0.060
906,-0.230,0.050
907,-0.280,0.050
908,-0.290,0.050
909,-0.260,0.050
910,-0.100,0.120
911,0.330,0.260
912,1.100,-0.220
913,2.030,-1.950
914,2.060,-3.200
915,1.620,-3.780
916,0.710,-3.210
917,0.230,-2.180
918,-0.360,-1.780
919,-0.940,-1.220
920,-0.920,-0.710
921,-0.930,-0.430
922,-0.850,-0.220
923,-0.800,0.130
924,-0.410,0.240
925,-0.560,0.370
926,-0.550,0.380
927,-0.550,0.390
928,-0.590,0.380
929,-0.610,0.410
930,-0.600,0.440
931,-0.570,0.450
932,-0.650,0.470
933,-0.740,0.500
934,-0.690,0.570
935,-0.640,0.530
936,-0.660,0.590
937,-0.840,0.600
938,-0.800,0.610
939,-0.840,0.660
940,-0.980,0.730
941,-0.920,0.740
942,-0.980,0.770
943,-0.970,0.820
944,-1.120,0.880
945,-1.140,0.880
946,-1.210,0.890
947,-1.310,0.960
948,-1.220,0.950
949,-1.190,0.940
950,-1.160,0.920
951,-0.940,0.880
952,-0.820,0.760
953,-0.770,0.730
954,-0.470,0.570
955,-0.460,0.500
956,-0.410,0.410
957,-0.370,0.300
958,-0.290,0.290
959,-0.190,0.200
960,-0.260,0.150
961,-0.200,0.180
962,-0.320,0.180
963,-0.230,0.140
964,-0.250,0.130
965,-0.240,0.130
966,-0.330,0.120
967,-0.340,0.190
968,-0.180,0.140
969,-0.330,0.160
970,-0.310,0.190
971,-0.380,0.190
972,-0.330,0.190
973,-0.200,0.180
974,-0.340,0.150
975,-0.290,0.180
976,-0.300,0.200
977,-0.260,0.180
978,-0.320,0.180
979,-0.240,0.240
980,-0.300,0.200
981,-0.160,0.140
982,-0.190,0.120
983,-0.140,0.160
984,-0.270,0.150
985,-0.300,0.280
986,-0.310,0.260
987,-0.220,0.240
988,-0.090,0.240
989,-0.090,0.130
990,-0.130,0.080
991,-0.150,0.070
992,-0.180,0.030
993,-0.170,0.050
994,-0.070,0.060
995,-0.260,0.020
996,-0.030,0.010
997,-0.240,0.120
998,-0.220,0.050
999,-0.210,0.050
1000,-0.170,0.040
1001,-0.330,0.080
1002,-0.190,0.090
1003,-0.280,0.030
1004,-0.170,0.080
1005,-0.150,0.010
1006,-0.230,0.070
1007,-0.050,0.040
1008,-0.240,0.070
1009,-0.190,0.050
1010,-0.150,0.030
1011,-0.140,0.040
1012,-0.200,0.050
1013,-0.220,0.040
1014,-0.120,0.030
1015,0.080,0.000
1016,-0.080,0.090
1017,0.410,0.240
1018,0.880,-0.060
1019,2.020,-1.340
1020,2.540,-2.830
1021,2.390,-3.490
1022,1.450,-3.290
1023,1.180,-2.470
1024,0.480,-2.000
1025,-0.420,-1.410
1026,-0.550,-1.070
1027,-0.750,-0.690
1028,-0.580,-0.510
1029,-0.490,-0.150
1030,-0.330,0.110
1031,-0.450,0.220
1032,-0.300,0.270
1033,-0.400,0.300
1034,-0.350,0.260
1035,-0.380,0.310
1036,-0.420,0.350
1037,-0.410,0.360
1038,-0.320,0.330
1039,-0.420,0.370
1040,-0.460,0.370
1041,-0.490,0.420
1042,-0.560,0.470
1043,-0.420,0.460
1044,-0.680,0.520
1045,-0.510,0.550
1046,-0.710,0.560
1047,-0.670,0.600
1048,-0.650,0.650
1049,-0.770,0.730
1050,-0.810,0.730
1051,-0.850,0.810
1052,-0.970,0.880
1053,-0.970,0.880
1054,-0.890,0.890
1055,-0.870,0.890
1056,-0.980,0.860
1057,-0.810,0.860
1058,-0.610,0.780
1059,-0.530,0.670
1060,-0.280,0.590
1061,-0.170,0.510
1062,-0.250,0.440
1063,0.040,0.250
1064,0.020,0.220
1065,0.020,0.180
1066,-0.020,0.100
1067,-0.030,0.100
1068,0.030,0.080
1069,-0.130,0.110
1070,-0.030,0.060
1071,-0.050,0.050
1072,0.080,0.080
1073,-0.060,0.060
1074,-0.010,-0.010
1075,-0.120,0.010
1076,-0.180,0.070
1077,-0.120,0.080
1078,-0.110,0.000
1079,-0.180,0.030
1080,-0.110,0.070
1081,-0.070,0.090
1082,-0.030,0.050
1083,-0.060,0.080
1084,-0.080,0.060
1085,-0.050,0.080
1086,-0.050,0.090
1087,-0.130,0.060
1088,-0.100,0.140
1089,0.090,-0.020
1090,-0.070,0.130
1091,-0.140,0.150
1092,-0.030,0.200
1093,-0.030,0.130
1094,-0.070,0.210
1095,0.100,0.090
1096,0.140,0.050
1097,0.060,0.040
1098,0.090,-0.010
1099,0.120,-0.020
1100,0.090,-0.010
1101,-0.090,0.000
1102,0.020,0.020
1103,0.080,-0.020
1104,-0.020,0.040
1105,0.010,0.010
1106,0.000,0.000
1107,-0.050,-0.010
1108,0.080,0.020
1109,-0.020,-0.030
1110,0.000,-0.050
1111,-0.010,-0.030
1112,0.020,-0.040
1113,-0.020,-0.040
1114,-0.040,-0.030
1115,0.050,-0.030
1116,0.000,-0.020
1117,-0.070,0.010
1118,0.120,-0.040
1119,-0.010,-0.020
1120,0.090,-0.080
1121,-0.020,0.020
1122,0.150,-0.040
1123,0.540,0.140
1124,0.980,-0.100
1125,2.110,-1.520
1126,2.590,-3.060
1127,2.400,-3.650
1128,1.470,-3.550
1129,1.180,-2.730
1130,0.630,-2.260
1131,-0.160,-1.630
1132,-0.520,-1.250
1133,-0.620,-0.770
1134,-0.550,-0.550
1135,-0.320,-0.270
1136,-0.220,0.060
1137,-0.270,0.180
1138,-0.250,0.260
1139,-0.150,0.220
1140,-0.160,0.220
1141,-0.220,0.270
1142,-0.310,0.250
1143,-0.210,0.290
1144,-0.280,0.300
1145,-0.250,0.380
1146,-0.260,0.370
1147,-0.350,0.420
1148,-0.310,0.390
1149,-0.370,0.470
1150,-0.360,0.490
1151,-0.440,0.520
1152,-0.500,0.570
1153,-0.440,0.630
1154,-0.530,0.680
1155,-0.610,0.740
1156,-0.670,0.770
1157,-0.520,0.840
1158,-0.700,0.800
1159,-0.820,0.900
1160,-0.760,0.890
1161,-0.920,0.920
1162,-0.660,0.890
1163,-0.650,0.770
1164,-0.470,0.790
1165,-0.380,0.690
1166,-0.230,0.600
1167,-0.100,0.500
1168,-0.020,0.430
1169,0.080,0.320
1170,0.040,0.220
1171,0.200,0.130
1172,0.090,0.120
1173,0.180,0.090
1174,0.150,0.040
1175,0.130,0.080
1176,0.000,0.020
1177,0.090,0.050
1178,0.120,-0.010
1179,0.070,0.030
1180,0.000,0.030
1181,0.010,0.060
1182,0.080,-0.010
1183,-0.090,0.050
1184,0.040,0.010
1185,0.090,0.030
1186,-0.110,0.050
1187,-0.040,0.060
1188,0.070,0.010
1189,-0.030,0.060
1190,-0.110,0.100
1191,0.040,0.090
1192,0.110,0.000
1193,0.070,0.120
1194,0.000,0.040
1195,0.060,0.110
1196,0.020,0.040
1197,0.060,0.110
1198,0.000,0.100
1199,-0.050,0.280
1200,0.070,0.160
1201,0.110,0.220
1202,0.100,0.200
1203,0.140,0.040
1204,0.290,0.060
1205,0.190,-0.060
1206,0.120,-0.020
1207,0.200,-0.040
1208,0.250,-0.040
1209,0.130,-0.070
1210,0.200,-0.020
1211,0.100,0.010
1212,0.080,-0.040
1213,0.130,-0.010
1214,0.110,-0.060
1215,0.070,-0.050
1216,0.000,-0.020
1217,0.100,-0.010
1218,0.160,-0.070
1219,0.160,-0.050
1220,0.070,-0.040
1221,0.030,-0.050
1222,0.130,-0.070
1223,0.110,-0.070
1224,0.020,-0.060
1225,0.150,-0.050
1226,0.160,-0.050
1227,0.100,-0.070
1228,-0.020,-0.040
1229,0.370,-0.010
1230,0.440,0.050
1231,0.750,0.020
1232,1.810,-0.970
1233,2.520,-2.990
1234,2.620,-3.800
1235,1.720,-4.060
1236,0.950,-3.510
1237,0.500,-2.480
1238,-0.010,-1.980
1239,-0.540,-1.430
1240,-0.540,-0.900
1241,-0.490,-0.550
1242,-0.290,-0.340
1243,-0.220,0.010
1244,-0.100,0.200
1245,-0.090,0.240
1246,-0.070,0.310
1247,-0.160,0.330
1248,-0.110,0.300
1249,-0.210,0.330
1250,-0.230,0.360
1251,-0.170,0.360
1252,-0.160,0.390
1253,-0.220,0.420
1254,-0.220,0.440
1255,-0.250,0.490
1256,-0.230,0.440
1257,-0.310,0.550
1258,-0.200,0.510
1259,-0.370,0.570
1260,-0.410,0.600
1261,-0.510,0.680
1262,-0.430,0.700
1263,-0.550,0.740
1264,-0.660,0.770
1265,-0.720,0.890
1266,-0.610,0.890
1267,-0.660,0.850
1268,-0.780,0.870
1269,-0.740,0.850
1270,-0.680,0.780
1271,-0.580,0.760
1272,-0.450,0.670
1273,-0.150,0.530
1274,-0.070,0.470
1275,-0.040,0.350
1276,0.060,0.270
1277,0.190,0.130
1278,0.100,0.080
1279,0.160,0.050
1280,0.120,0.030
1281,0.100,0.020
1282,0.150,0.000
1283,0.140,0.010
1284,0.110,-0.070
1285,0.100,0.000
1286,0.130,-0.020
1287,0.050,0.010
1288,0.120,-0.020
1289,0.140,-0.020
1290,0.050,0.010
1291,0.170,0.010
1292,0.120,0.020
1293,0.110,0.030
1294,0.050,-0.010
1295,0.160,0.050
1296,0.100,0.000
1297,0.150,-0.010
1298,0.080,0.020
1299,0.170,0.000
1300,0.220,-0.060
1301,0.150,0.010
1302,0.100,0.010
1303,0.190,-0.010
1304,0.170,0.010
1305,0.120,0.010
1306,0.150,0.020
1307,0.150,0.050
1308,0.100,0.130
1309,0.150,0.130
1310,0.190,0.140
1311,0.240,0.090
1312,0.230,0.000
1313,0.210,0.000
1314,0.250,-0.070
1315,0.210,-0.120
1316,0.310,-0.050
1317,0.220,-0.100
1318,0.260,-0.110
1319,0.180,-0.030
1320,0.180,-0.080
1321,0.180,-0.060
1322,0.140,-0.040
1323,0.110,-0.030
1324,0.150,-0.040
1325,0.190,-0.100
1326,0.140,-0.060
1327,0.190,-0.060
1328,0.170,-0.060
1329,0.100,-0.100
1330,0.230,0.050
1331,0.150,-0.050
1332,0.180,-0.060
1333,0.180,-0.060
1334,0.180,-0.050
1335,0.180,-0.040
1336,0.140,-0.090
1337,0.170,0.040
1338,0.360,-0.070
1339,0.520,0.130
1340,0.850,0.030
1341,1.800,-0.970
1342,2.490,-2.790
1343,2.310,-3.660
1344,1.480,-3.780
1345,1.200,-2.900
1346,0.620,-2.350
1347,-0.020,-1.750
1348,-0.350,-1.280
1349,-0.460,-0.840
1350,-0.300,-0.550
1351,-0.310,-0.380
1352,-0.140,0.000
1353,-0.030,0.140
1354,-0.120,0.210
1355,-0.030,0.170
1356,-0.100,0.240
1357,-0.050,0.230
1358,-0.080,0.260
1359,-0.090,0.270
1360,-0.180,0.280
1361,-0.120,0.320
1362,-0.160,0.360
1363,-0.250,0.350
1364,-0.140,0.430
1365,-0.210,0.380
1366,-0.240,0.450
1367,-0.230,0.470
1368,-0.210,0.540
1369,-0.310,0.470
1370,-0.340,0.570
1371,-0.410,0.620
1372,-0.480,0.680
1373,-0.490,0.720
1374,-0.510,0.720
1375,-0.450,0.770
1376,-0.530,0.800
1377,-0.500,0.770
1378,-0.550,0.790
1379,-0.520,0.800
1380,-0.390,0.760
1381,-0.240,0.660
1382,-0.090,0.550
1383,0.050,0.510
1384,0.080,0.350
1385,0.160,0.310
1386,0.170,0.140
1387,0.180,0.140
1388,0.170,0.070
1389,0.090,0.120
1390,0.130,0.040
1391,0.120,0.070
1392,0.190,0.020
1393,0.130,0.040
1394,0.100,0.040
1395,0.120,0.010
1396,0.080,0.060
1397,0.070,0.000
1398,0.040,0.040
1399,0.100,0.050
1400,0.160,0.020
1401,0.100,0.050
1402,0.040,0.080
1403,0.170,0.050
1404,0.090,0.050
1405,0.020,0.070
1406,0.110,0.100
1407,0.110,0.010
1408,0.090,0.100
1409,0.100,0.080
1410,0.110,0.040
1411,0.070,0.090
1412,0.200,0.040
1413,0.030,0.070
1414,0.110,0.070
1415,0.080,0.130
1416,0.000,0.200
1417,0.120,0.130
1418,0.090,0.220
1419,0.200,0.070
1420,0.140,0.060
1421,0.180,0.020
1422,0.270,-0.100
1423,0.110,-0.080
1424,0.240,-0.050
1425,0.160,-0.070
1426,0.080,-0.060
1427,0.100,0.000
1428,0.120,-0.010
1429,0.130,-0.030
1430,0.070,0.000
1431,0.090,0.000
1432,0.150,-0.060
1433,0.100,-0.050
1434,0.040,-0.030
1435,0.180,-0.050
1436,0.110,-0.010
1437,0.150,-0.110
1438,0.090,-0.010
1439,0.160,-0.060
1440,0.070,-0.050
1441,0.090,-0.030
1442,0.110,-0.070
1443,0.150,-0.050
1444,0.180,-0.040
1445,0.140,-0.040
1446,0.270,-0.030
1447,0.590,0.170
1448,0.910,-0.020
1449,1.790,-1.290
1450,2.410,-2.980
1451,1.940,-3.720
1452,1.170,-3.630
1453,0.930,-2.740
1454,0.320,-2.270
1455,-0.240,-1.630
1456,-0.350,-1.240
1457,-0.430,-0.750
1458,-0.350,-0.510
1459,-0.260,-0.320
1460,-0.030,0.120
1461,-0.180,0.140
1462,0.010,0.200
1463,-0.040,0.190
1464,-0.060,0.230
1465,-0.160,0.250
1466,0.000,0.290
1467,-0.070,0.300
1468,-0.110,0.340
1469,-0.070,0.300
1470,-0.330,0.360
1471,-0.150,0.400
1472,-0.100,0.380
1473,-0.230,0.390
1474,-0.250,0.460
1475,-0.210,0.520
1476,-0.310,0.550
1477,-0.300,0.590
1478,-0.340,0.650
1479,-0.360,0.680
1480,-0.440,0.670
1481,-0.500,0.760
1482,-0.510,0.750
1483,-0.520,0.810
1484,-0.530,0.840
1485,-0.480,0.830
1486,-0.480,0.810
1487,-0.350,0.740
1488,-0.380,0.710
1489,-0.240,0.590
1490,-0.070,0.570
1491,0.120,0.350
1492,0.090,0.340
1493,0.180,0.250
1494,0.170,0.090
1495,0.140,0.080
1496,0.160,0.080
1497,0.120,0.060
1498,0.030,-0.010
1499,0.220,0.000
1500,0.050,0.010
1501,0.090,0.000
1502,0.080,-0.020
1503,0.080,0.040
1504,0.020,0.010
1505,0.120,-0.020
1506,-0.050,0.020
1507,-0.010,0.030
1508,0.050,0.050
1509,0.010,0.010
1510,0.080,0.030
1511,0.060,0.010
1512,-0.010,0.090
1513,0.090,0.080
1514,0.160,0.000
1515,0.020,0.080
1516,0.100,0.020
1517,0.070,0.050
1518,-0.040,0.060
1519,0.130,0.030
1520,0.030,0.050
1521,0.110,0.050
1522,0.050,0.140
1523,0.100,0.150
1524,0.020,0.160
1525,0.050,0.190
1526,0.120,0.060
1527,0.120,0.010
1528,0.180,0.020
1529,0.180,-0.020
1530,0.160,-0.050
1531,0.130,-0.030
1532,0.130,-0.030
1533,0.130,-0.080
1534,-0.010,0.000
1535,0.070,0.020
1536,0.080,-0.030
1537,0.060,-0.030
1538,0.120,-0.060
1539,0.070,0.020
1540,0.060,-0.010
1541,0.130,-0.040
1542,0.100,-0.040
1543,0.080,-0.030
1544,0.050,-0.040
1545,0.060,-0.040
1546,0.080,-0.030
1547,0.100,-0.050
1548,0.070,-0.040
1549,0.070,-0.010
1550,0.140,-0.060
1551,0.120,-0.050
1552,0.010,-0.030
1553,0.260,-0.030
1554,0.430,0.100
1555,0.740,0.040
1556,1.690,-1.000
1557,2.350,-2.820
1558,2.020,-3.680
1559,1.300,-3.790
1560,0.960,-2.930
1561,0.390,-2.370
1562,-0.140,-1.770
1563,-0.470,-1.300
1564,-0.500,-0.790
1565,-0.350,-0.550
1566,-0.160,-0.360
1567,-0.100,0.060
1568,-0.090,0.240
1569,-0.190,0.240
1570,0.040,0.210
1571,-0.080,0.240
1572,-0.130,0.260
1573,-0.130,0.290
1574,-0.070,0.300
1575,-0.180,0.330
1576,-0.140,0.350
1577,-0.160,0.360
1578,-0.220,0.380
1579,-0.140,0.390
1580,-0.230,0.420
1581,-0.270,0.440
1582,-0.310,0.490
1583,-0.270,0.530
1584,-0.330,0.580
1585,-0.290,0.600
1586,-0.360,0.610
1587,-0.510,0.730
1588,-0.490,0.740
1589,-0.440,0.740
1590,-0.550,0.780
1591,-0.550,0.820
1592,-0.600,0.870
1593,-0.540,0.840
1594,-0.370,0.810
1595,-0.300,0.760
1596,-0.220,0.700
1597,-0.120,0.600
1598,-0.060,0.520
1599,-0.010,0.440
1600,0.200,0.330
1601,0.140,0.260
1602,0.050,0.190
1603,0.120,0.200
1604,0.150,0.100
1605,0.200,0.130
1606,0.100,0.090
1607,0.100,0.090
1608,0.000,0.100
1609,0.080,0.120
1610,0.040,0.080
1611,0.020,0.090
1612,-0.010,0.110
1613,0.030,0.090
1614,-0.040,0.050
1615,0.040,0.080
1616,0.080,0.060
1617,-0.060,0.080
1618,0.030,0.100
1619,0.080,0.050
1620,-0.010,0.100
1621,0.090,0.030
1622,0.070,0.070
1623,0.100,0.100
1624,0.040,0.060
1625,0.130,0.110
1626,0.030,0.040
1627,0.110,0.110
1628,0.060,0.060
1629,0.010,0.160
1630,0.080,0.210
1631,0.070,0.200
1632,0.110,0.210
1633,0.080,0.170
1634,0.150,0.130
1635,0.030,0.020
1636,0.090,0.040
1637,0.110,0.020
1638,0.180,-0.060
1639,0.190,-0.050
1640,0.150,-0.040
1641,0.140,-0.010
1642,0.010,0.020
1643,0.060,0.020
1644,-0.010,-0.040
1645,0.000,0.000
1646,0.060,-0.010
1647,0.020,-0.010
1648,0.080,-0.040
1649,0.100,-0.010
1650,0.050,0.000
1651,0.100,-0.030
1652,0.070,-0.040
1653,0.020,-0.040
1654,0.030,-0.010
1655,0.040,-0.010
1656,0.040,-0.050
1657,0.110,-0.080
1658,0.050,-0.030
1659,0.060,-0.030
1660,0.120,-0.020
1661,0.230,0.000
1662,0.530,0.130
1663,0.770,-0.040
1664,1.740,-1.260
1665,2.170,-2.990
1666,1.900,-3.780
1667,1.150,-3.730
1668,0.930,-2.830
1669,0.190,-2.350
1670,-0.130,-1.690
1671,-0.530,-1.280
1672,-0.480,-0.780
1673,-0.440,-0.630
1674,-0.290,-0.300
1675,-0.150,0.020
1676,-0.090,0.160
1677,-0.110,0.190
1678,-0.170,0.230
1679,-0.200,0.280
1680,-0.120,0.260
1681,-0.160,0.280
1682,-0.210,0.310
1683,-0.200,0.320
1684,-0.160,0.280
1685,-0.170,0.350
1686,-0.260,0.390
1687,-0.300,0.410
1688,-0.240,0.440
1689,-0.200,0.440
1690,-0.290,0.480
1691,-0.380,0.500
1692,-0.410,0.590
1693,-0.400,0.620
1694,-0.420,0.640
1695,-0.540,0.680
1696,-0.460,0.760
1697,-0.610,0.820
1698,-0.600,0.800
1699,-0.560,0.850
1700,-0.650,0.830
1701,-0.580,0.810
1702,-0.480,0.820
1703,-0.450,0.770
1704,-0.300,0.630
1705,-0.240,0.640
1706,-0.070,0.480
1707,0.080,0.360
1708,-0.010,0.310
1709,0.180,0.190
1710,0.080,0.140
1711,-0.010,0.120
1712,0.090,0.050
1713,0.100,0.090
1714,0.060,0.050
1715,0.130,0.050
1716,0.100,0.000
1717,-0.010,0.080
1718,-0.020,0.030
1719,0.000,0.050
1720,-0.020,0.030
1721,0.000,0.070
1722,0.020,0.050
1723,-0.020,0.080
1724,0.000,0.070
1725,-0.050,0.080
1726,0.080,0.090
1727,-0.030,0.060
1728,-0.090,0.060
1729,-0.030,0.160
1730,0.090,0.050
1731,-0.050,0.070
1732,0.000,0.080
1733,0.020,0.120
1734,0.090,0.040
1735,0.000,0.020
1736,0.010,0.110
1737,-0.090,0.140
1738,0.050,0.160
1739,0.010,0.150
1740,-0.050,0.200
1741,0.010,0.180
1742,0.200,-0.030
1743,0.120,0.010
1744,0.080,-0.010
1745,0.110,-0.050
1746,0.140,-0.090
1747,0.070,-0.060
1748,0.040,-0.070
1749,0.050,-0.010
1750,0.030,-0.090
1751,0.030,-0.060
1752,0.010,-0.070
1753,0.060,-0.030
1754,0.120,-0.120
1755,0.010,-0.080
1756,-0.040,-0.100
1757,0.080,-0.060
1758,0.000,-0.060
1759,-0.020,-0.080
1760,0.110,-0.050
1761,0.050,-0.080
1762,0.040,-0.030
1763,0.150,-0.080
1764,0.060,-0.070
1765,-0.020,-0.040
1766,0.060,-0.070
1767,0.040,-0.020
1768,0.230,-0.090
1769,0.480,0.070
1770,0.750,0.090
1771,1.700,-1.120
1772,2.330,-2.910
1773,2.030,-3.810
1774,1.330,-3.960
1775,0.870,-2.990
1776,0.290,-2.400
1777,-0.280,-1.780
1778,-0.370,-1.300
1779,-0.550,-0.810
1780,-0.500,-0.600
1781,-0.310,-0.300
1782,-0.210,0.000
1783,-0.130,0.120
1784,-0.190,0.160
1785,-0.160,0.210
1786,-0.170,0.220
1787,-0.160,0.250
1788,-0.130,0.200
1789,-0.220,0.340
1790,-0.200,0.310
1791,-0.200,0.290
1792,-0.240,0.320
1793,-0.260,0.360
1794,-0.330,0.400
1795,-0.230,0.360
1796,-0.270,0.440
1797,-0.270,0.520
1798,-0.310,0.510
1799,-0.410,0.570
1800,-0.370,0.630
1801,-0.430,0.600
1802,-0.510,0.680
1803,-0.630,0.740
1804,-0.510,0.780
1805,-0.600,0.760
1806,-0.630,0.820
1807,-0.740,0.840
1808,-0.610,0.820
1809,-0.460,0.770
1810,-0.530,0.740
1811,-0.370,0.620
1812,-0.180,0.580
1813,-0.110,0.390
1814,0.000,0.380
1815,0.030,0.230
1816,0.120,0.200
1817,0.080,0.090
1818,0.120,0.070
1819,-0.050,0.050
1820,0.120,0.020
1821,0.060,0.040
1822,0.060,0.030
1823,0.050,-0.010
1824,0.030,0.040
1825,0.020,0.030
1826,0.090,0.010
1827,-0.020,0.020
1828,0.030,0.020
1829,-0.070,0.010
1830,-0.030,0.090
1831,-0.080,0.050
1832,-0.110,0.080
1833,-0.020,0.060
1834,0.060,0.040
1835,0.000,0.050
1836,-0.060,0.050
1837,-0.010,0.080
1838,-0.080,0.020
1839,0.000,0.090
1840,-0.050,0.000
1841,0.020,0.050
1842,-0.020,0.040
1843,-0.040,0.110
1844,0.010,0.180
1845,0.040,0.140
1846,0.010,0.150
1847,0.010,0.160
1848,0.110,0.040
1849,0.090,0.040
1850,0.120,-0.030
1851,0.070,0.010
1852,0.140,-0.040
1853,0.080,-0.030
1854,0.100,-0.080
1855,0.020,0.010
1856,0.030,0.010
1857,-0.010,-0.030
1858,0.050,-0.040
1859,0.020,-0.050
1860,0.050,-0.050
1861,0.060,-0.020
1862,0.010,0.010
1863,0.040,-0.030
1864,0.030,-0.030
1865,0.010,-0.020
1866,0.000,-0.010
1867,0.010,0.010
1868,0.070,-0.020
1869,0.070,0.000
1870,0.050,0.030
1871,0.030,-0.020
1872,0.090,-0.010
1873,0.070,-0.010
1874,0.040,0.010
1875,0.160,0.030
1876,0.500,0.210
1877,0.930,-0.050
1878,1.950,-1.490
1879,2.330,-3.060
1880,1.980,-3.850
1881,1.190,-3.650
1882,0.890,-2.700
1883,0.250,-2.230
1884,-0.330,-1.590
1885,-0.500,-1.140
1886,-0.560,-0.690
1887,-0.480,-0.500
1888,-0.230,-0.190
1889,-0.130,0.160
1890,-0.130,0.200
1891,-0.160,0.230
1892,-0.130,0.260
1893,-0.160,0.260
1894,-0.180,0.300
1895,-0.200,0.310
1896,-0.220,0.370
1897,-0.190,0.350
1898,-0.150,0.340
1899,-0.300,0.390
1900,-0.200,0.430
1901,-0.230,0.430
1902,-0.350,0.460
1903,-0.260,0.490
1904,-0.330,0.500
1905,-0.370,0.570
1906,-0.390,0.580
1907,-0.420,0.620
1908,-0.470,0.710
1909,-0.550,0.730
1910,-0.530,0.710
1911,-0.620,0.790
1912,-0.670,0.800
1913,-0.700,0.830
1914,-0.600,0.810
1915,-0.610,0.840
1916,-0.490,0.780
1917,-0.340,0.710
1918,-0.300,0.630
1919,-0.180,0.510
1920,-0.070,0.440
1921,0.050,0.340
1922,0.040,0.220
1923,0.070,0.170
1924,0.050,0.120
1925,0.110,0.060
1926,0.070,0.080
1927,0.020,0.070
1928,0.060,0.020
1929,0.090,0.020
1930,-0.020,0.040
1931,0.050,0.060
1932,0.030,0.010
1933,-0.020,0.050
1934,0.010,0.020
1935,0.050,0.060
1936,0.000,0.060
1937,-0.020,0.060
1938,0.000,0.060
1939,-0.150,0.110
1940,-0.090,0.110
1941,0.050,0.180
1942,-0.020,0.060
1943,0.000,0.140
1944,-0.010,0.120
1945,0.020,0.130
1946,0.000,0.100
1947,-0.030,0.130
1948,-0.010,0.100
1949,-0.010,0.120
1950,0.020,0.110
1951,-0.040,0.210
1952,-0.100,0.180
1953,-0.100,0.240
1954,0.140,0.160
1955,0.080,0.100
1956,0.170,0.020
1957,0.040,0.030
1958,0.070,-0.080
1959,0.140,-0.010
1960,0.020,-0.040
1961,0.070,-0.050
1962,0.080,-0.010
1963,0.040,0.050
1964,0.020,-0.040
1965,0.030,0.000
1966,0.090,-0.100
1967,-0.110,0.010
1968,-0.010,-0.070
1969,0.010,-0.020
1970,0.030,-0.040
1971,0.040,-0.050
1972,0.060,-0.040
1973,0.010,-0.040
1974,0.090,-0.040
1975,0.050,-0.070
1976,0.020,-0.050
1977,0.070,-0.050
1978,0.060,-0.050
1979,0.020,-0.060
1980,0.050,-0.030
1981,0.070,-0.040
1982,0.150,0.000
1983,0.470,0.150
1984,0.680,0.010
1985,1.660,-1.100
1986,2.350,-2.950
1987,2.030,-3.730
1988,1.220,-3.840
1989,0.930,-2.910
1990,0.330,-2.330
1991,-0.260,-1.740
1992,-0.510,-1.260
1993,-0.600,-0.820
1994,-0.480,-0.580
1995,-0.350,-0.360
1996,-0.340,0.050
1997,-0.270,0.290
1998,-0.120,0.180
1999,-0.160,0.220
2000,-0.210,0.270
2001,-0.220,0.270
2002,-0.210,0.310
2003,-0.240,0.310
2004,-0.220,0.310
2005,-0.280,0.360
2006,-0.300,0.380
2007,-0.300,0.390
2008,-0.330,0.430
2009,-0.360,0.480
2010,-0.370,0.480
2011,-0.350,0.560
2012,-0.430,0.540
2013,-0.470,0.590
2014,-0.460,0.650
2015,-0.570,0.660
2016,-0.570,0.700
2017,-0.650,0.750
2018,-0.720,0.830
2019,-0.650,0.800
2020,-0.670,0.820
2021,-0.730,0.830
2022,-0.780,0.860
2023,-0.560,0.780
2024,-0.590,0.740
2025,-0.390,0.630
2026,-0.240,0.590
2027,-0.200,0.450
2028,-0.050,0.340
2029,0.040,0.260
2030,0.050,0.200
2031,-0.020,0.110
2032,0.030,0.070
2033,-0.040,0.070
2034,-0.070,0.120
2035,0.090,0.020
2036,0.020,0.030
2037,0.020,0.070
2038,0.010,0.030
2039,-0.010,0.030
2040,-0.080,0.050
2041,-0.020,0.020
2042,-0.150,0.090
2043,-0.080,0.050
2044,-0.040,0.040
2045,-0.070,0.060
2046,-0.110,0.100
2047,-0.060,0.080
2048,-0.090,0.070
2049,-0.120,0.090
2050,-0.020,0.070
2051,-0.040,0.080
2052,-0.060,0.040
2053,-0.040,0.100
2054,-0.060,0.070
2055,-0.020,0.070
2056,-0.030,0.050
2057,-0.060,0.130
2058,-0.040,0.120
2059,-0.050,0.200
2060,-0.090,0.140
2061,-0.070,0.250
2062,0.070,0.070
2063,0.090,0.050
2064,0.110,0.010
2065,0.070,0.000
2066,0.160,-0.070
2067,0.080,-0.050
2068,0.080,-0.080
2069,0.010,-0.010
2070,0.060,-0.010
2071,0.120,-0.020
2072,0.010,0.000
2073,0.000,-0.020
2074,-0.010,-0.020
2075,0.070,-0.020
2076,0.050,-0.060
2077,0.010,-0.010
2078,0.010,-0.040
2079,0.020,-0.030
2080,0.000,-0.060
2081,0.060,-0.030
2082,0.010,-0.040
2083,0.080,-0.030
2084,0.040,-0.060
2085,0.030,-0.040
2086,0.010,-0.100
2087,0.020,-0.040
2088,-0.010,-0.050
2089,0.010,-0.010
2090,0.170,0.020
2091,0.590,0.150
2092,1.060,-0.220
2093,1.970,-1.820
2094,2.260,-3.270
2095,1.810,-3.960
2096,0.970,-3.600
2097,0.690,-2.610
2098,0.090,-2.220
2099,-0.480,-1.590
2100,-0.670,-1.070
2101,-0.420,-0.710
2102,-0.420,-0.540
2103,-0.260,-0.120
2104,-0.140,0.100
2105,-0.170,0.220
2106,-0.230,0.250
2107,-0.210,0.240
2108,-0.170,0.290
2109,-0.180,0.300
2110,-0.230,0.320
2111,-0.230,0.380
2112,-0.140,0.310
2113,-0.210,0.420
2114,-0.240,0.290
2115,-0.290,0.390
2116,-0.310,0.520
2117,-0.360,0.480
2118,-0.360,0.520
2119,-0.360,0.550
2120,-0.400,0.590
2121,-0.490,0.660
2122,-0.400,0.660
2123,-0.490,0.680
2124,-0.610,0.750
2125,-0.630,0.780
2126,-0.680,0.860
2127,-0.610,0.820
2128,-0.680,0.860
2129,-0.660,0.860
2130,-0.670,0.850
2131,-0.470,0.790
2132,-0.430,0.700
2133,-0.370,0.660
2134,-0.270,0.550
2135,-0.140,0.500
2136,0.040,0.350
2137,-0.010,0.240
2138,0.100,0.270
2139,0.090,0.120
2140,0.080,0.100
2141,0.020,0.090
2142,0.050,0.050
2143,-0.010,0.050
2144,-0.070,0.070
2145,-0.070,0.060
2146,0.150,-0.010
2147,-0.010,0.030
2148,-0.020,0.100
2149,-0.020,0.020
2150,-0.040,0.080
2151,-0.080,0.070
2152,-0.070,0.060
2153,-0.130,0.080
2154,-0.130,0.080
2155,-0.070,0.110
2156,0.020,0.100
2157,-0.080,0.040
2158,-0.090,0.140
2159,0.000,0.090
2160,-0.040,0.090
2161,-0.050,0.080
2162,-0.110,0.110
2163,-0.030,0.070
2164,0.010,0.050
2165,-0.030,0.150
2166,-0.060,0.220
2167,0.060,0.160
2168,-0.030,0.190
2169,0.020,0.170
2170,0.130,0.070
2171,0.080,0.030
2172,0.100,0.010
2173,0.080,-0.020
2174,0.120,-0.060
2175,0.110,0.020
2176,0.060,-0.080
2177,0.050,0.030
2178,0.030,0.010
2179,-0.010,-0.010
2180,0.000,-0.010
2181,-0.030,-0.050
2182,-0.020,0.030
2183,0.020,-0.020
2184,-0.020,0.010
2185,0.040,-0.020
2186,0.020,0.020
2187,0.030,0.020
2188,-0.040,0.000
2189,-0.030,-0.010
2190,-0.020,0.010
2191,0.010,0.020
2192,0.090,0.020
2193,-0.020,0.040
2194,0.020,0.020
2195,-0.010,0.050
2196,0.070,0.020
2197,0.090,0.090
2198,0.340,0.200
2199,0.560,0.200
2200,1.680,-0.920
2201,2.290,-2.780
2202,1.970,-3.550
2203,1.330,-3.880
2204,0.930,-3.190
2205,0.490,-2.300
2206,-0.050,-1.880
2207,-0.630,-1.320
2208,-0.680,-0.730
2209,-0.490,-0.500
2210,-0.350,-0.270
2211,-0.340,0.180
2212,-0.180,0.310
2213,-0.220,0.410
2214,-0.230,0.380
2215,-0.140,0.420
2216,-0.230,0.370
2217,-0.240,0.410
2218,-0.280,0.420
2219,-0.260,0.450
2220,-0.220,0.410
2221,-0.270,0.450
2222,-0.310,0.500
2223,-0.230,0.460
2224,-0.320,0.510
2225,-0.360,0.510
2226,-0.310,0.510
2227,-0.420,0.560
2228,-0.430,0.660
2229,-0.450,0.610
2230,-0.470,0.700
2231,-0.520,0.720
2232,-0.570,0.790
2233,-0.600,0.750
2234,-0.690,0.780
2235,-0.790,0.860
2236,-0.680,0.870
2237,-0.690,0.840
2238,-0.630,0.830
2239,-0.550,0.760
2240,-0.410,0.690
2241,-0.340,0.580
2242,-0.120,0.520
2243,-0.100,0.420
2244,-0.030,0.290
2245,0.020,0.160
2246,0.010,0.180
2247,0.080,0.120
2248,0.020,0.040
2249,0.000,0.100
2250,-0.060,0.120
2251,0.150,0.030
2252,-0.040,0.050
2253,0.000,0.040
2254,0.040,-0.040
2255,-0.050,0.050
2256,0.000,0.030
2257,-0.010,0.020
2258,-0.060,0.030
2259,-0.120,0.060
2260,-0.020,0.040
2261,0.020,0.080
2262,-0.080,0.060
2263,-0.090,0.030
2264,-0.060,0.100
2265,-0.050,0.070
2266,-0.060,0.040
2267,-0.010,0.050
2268,-0.050,0.070
2269,-0.070,0.070
2270,0.030,0.070
2271,-0.040,0.010
2272,-0.110,0.100
2273,0.020,0.160
2274,-0.090,0.180
2275,-0.040,0.160
2276,-0.010,0.190
2277,0.060,0.150
2278,0.040,0.050
2279,0.050,0.030
2280,0.030,-0.010
2281,0.110,-0.060
2282,0.100,-0.070
2283,0.010,0.020
2284,-0.020,-0.010
2285,0.110,-0.030
2286,0.040,0.010
2287,0.010,-0.010
2288,-0.050,0.040
2289,0.020,-0.030
2290,-0.040,-0.010
2291,-0.070,0.030
2292,0.010,-0.030
2293,0.030,0.020
2294,-0.040,-0.010
2295,0.010,0.010
2296,0.010,0.000
2297,-0.060,0.040
2298,0.070,-0.020
2299,-0.060,-0.070
2300,-0.010,0.020
2301,-0.030,-0.020
2302,0.070,-0.010
2303,0.050,-0.030
2304,0.010,0.020
2305,0.240,0.060
2306,0.570,0.140
2307,1.190,-0.340
2308,2.150,-2.200
2309,2.270,-3.380
2310,1.790,-4.050
2311,0.810,-3.540
2312,0.490,-2.520
2313,0.020,-2.100
2314,-0.530,-1.470
2315,-0.600,-0.860
2316,-0.570,-0.590
2317,-0.470,-0.340
2318,-0.310,-0.110
2319,-0.260,0.170
2320,-0.240,0.300
2321,-0.250,0.300
2322,-0.220,0.260
2323,-0.270,0.370
2324,-0.210,0.340
2325,-0.230,0.360
2326,-0.320,0.380
2327,-0.300,0.390
2328,-0.280,0.410
2329,-0.360,0.420
2330,-0.300,0.470
2331,-0.260,0.490
2332,-0.400,0.530
2333,-0.460,0.540
2334,-0.410,0.620
2335,-0.440,0.600
2336,-0.580,0.670
2337,-0.470,0.710
2338,-0.580,0.730
2339,-0.730,0.800
2340,-0.680,0.840
2341,-0.690,0.850
2342,-0.750,0.850
2343,-0.770,0.930
2344,-0.790,0.910
2345,-0.710,0.880
2346,-0.580,0.810
2347,-0.530,0.780
2348,-0.410,0.730
2349,-0.160,0.580
2350,-0.160,0.470
2351,-0.010,0.410
2352,0.050,0.320
2353,0.000,0.280
2354,-0.050,0.200
2355,0.050,0.160
2356,-0.010,0.170
2357,-0.030,0.170
2358,-0.010,0.150
2359,-0.010,0.130
2360,0.070,0.140
2361,-0.060,0.170
2362,-0.020,0.160
2363,-0.030,0.160
2364,-0.040,0.170
2365,-0.050,0.090
2366,-0.090,0.230
2367,-0.050,0.220
2368,-0.080,0.210
2369,-0.100,0.240
2370,-0.170,0.280
2371,-0.060,0.290
2372,-0.020,0.210
2373,-0.080,0.220
2374,-0.080,0.260
2375,-0.070,0.300
2376,-0.050,0.240
2377,-0.030,0.250
2378,-0.060,0.270
2379,0.000,0.280
2380,-0.030,0.330
2381,-0.070,0.350
2382,-0.050,0.340
2383,-0.050,0.350
2384,-0.040,0.350
2385,-0.020,0.260
2386,0.060,0.250
2387,0.180,0.140
2388,0.150,0.150
2389,0.090,0.150
2390,0.080,0.140
2391,0.120,0.100
2392,0.040,0.150
2393,0.060,0.170
2394,0.050,0.080
2395,0.040,0.110
2396,0.080,0.100
2397,0.090,0.090
2398,0.030,0.060
2399,0.090,0.080
2400,0.040,0.040
2401,0.060,0.080
2402,0.030,0.030
2403,0.070,0.040
2404,0.080,0.070
2405,0.100,0.020
2406,0.080,0.070
2407,0.090,0.020
2408,0.070,0.030
2409,0.060,0.010
2410,0.160,0.020
2411,0.070,0.030
2412,0.210,0.030
2413,0.580,0.210
2414,1.130,-0.120
2415,2.150,-1.600
2416,2.530,-2.990
2417,2.250,-3.750
2418,1.320,-3.490
2419,1.120,-2.520
2420,0.400,-2.140
2421,-0.310,-1.530
2422,-0.530,-1.070
2423,-0.510,-0.670
2424,-0.430,-0.460
2425,-0.260,-0.190
2426,-0.210,0.120
2427,-0.170,0.210
2428,-0.140,0.210
2429,-0.250,0.260
2430,-0.180,0.220
2431,-0.180,0.290
2432,-0.170,0.260
2433,-0.240,0.320
2434,-0.250,0.330
2435,-0.240,0.340
2436,-0.290,0.390
2437,-0.270,0.440
2438,-0.320,0.390
2439,-0.430,0.440
2440,-0.360,0.480
2441,-0.390,0.480
2442,-0.460,0.540
2443,-0.440,0.620
2444,-0.480,0.630
2445,-0.530,0.650
2446,-0.630,0.710
2447,-0.620,0.740
2448,-0.660,0.760
2449,-0.780,0.830
2450,-0.680,0.810
2451,-0.640,0.820
2452,-0.590,0.760
2453,-0.550,0.770
2454,-0.390,0.680
2455,-0.280,0.600
2456,-0.130,0.480
2457,0.040,0.390
2458,0.010,0.340
2459,0.150,0.180
2460,0.120,0.180
2461,0.190,0.090
2462,0.130,0.070
2463,0.200,0.060
2464,0.140,0.050
2465,0.090,0.010
2466,0.150,0.010
2467,0.180,0.000
2468,0.110,0.010
2469,0.120,0.020
2470,0.110,-0.020
2471,0.090,0.030
2472,0.150,0.030
2473,0.030,0.020
2474,-0.010,0.000
2475,0.020,0.050
2476,0.040,0.030
2477,0.040,0.050
2478,-0.010,0.070
2479,0.030,0.060
2480,0.000,0.140
2481,0.100,0.070
2482,0.060,0.070
2483,0.020,0.060
2484,0.060,0.060
2485,0.000,0.080
2486,0.050,0.080
2487,0.040,0.160
2488,0.010,0.240
2489,0.050,0.180
2490,0.040,0.250
2491,0.160,0.120
2492,0.120,0.080
2493,0.150,0.060
2494,0.130,0.010
2495,0.130,-0.030
2496,0.180,0.000
2497,0.150,0.000
2498,0.100,-0.040
2499,0.140,0.040
2500,0.080,-0.020
2501,0.070,0.020
2502,0.020,-0.030
2503,0.050,-0.020
2504,0.070,0.000
2505,0.080,-0.060
2506,0.080,-0.010
2507,0.070,0.020
2508,0.120,0.000
2509,0.090,0.000
2510,0.030,-0.010
2511,0.040,0.020
2512,0.120,0.010
2513,0.060,-0.010
2514,0.080,0.010
2515,0.130,-0.010
2516,0.080,-0.010
2517,0.110,0.040
2518,0.150,-0.040
2519,0.250,0.040
2520,0.550,0.230
2521,1.140,-0.140
2522,2.170,-1.800
2523,2.490,-3.080
2524,2.220,-3.700
2525,1.350,-3.380
2526,1.180,-2.500
2527,0.460,-2.110
2528,-0.270,-1.520
2529,-0.490,-1.110
2530,-0.500,-0.680
2531,-0.340,-0.550
2532,-0.210,-0.230
2533,-0.120,0.120
2534,-0.140,0.160
2535,-0.110,0.180
2536,-0.090,0.240
2537,-0.110,0.220
2538,-0.120,0.230
2539,-0.210,0.320
2540,-0.160,0.270
2541,-0.210,0.330
2542,-0.190,0.290
2543,-0.210,0.370
2544,-0.140,0.410
2545,-0.190,0.380
2546,-0.270,0.440
2547,-0.300,0.470
2548,-0.350,0.480
2549,-0.380,0.530
2550,-0.380,0.580
2551,-0.400,0.640
2552,-0.460,0.650
2553,-0.480,0.720
2554,-0.580,0.770
2555,-0.640,0.800
2556,-0.610,0.800
2557,-0.630,0.810
2558,-0.620,0.770
2559,-0.540,0.840
2560,-0.500,0.730
2561,-0.400,0.680
2562,-0.220,0.600
2563,-0.090,0.510
2564,0.000,0.380
2565,0.110,0.260
2566,0.060,0.180
2567,0.160,0.120
2568,0.110,0.110
2569,0.210,0.030
2570,0.200,0.000
2571,0.220,0.030
2572,0.200,0.000
2573,0.120,-0.010
2574,0.160,0.020
2575,0.060,-0.020
2576,0.120,-0.020
2577,0.060,0.000
2578,0.140,-0.010
2579,0.060,-0.020
2580,0.150,0.000
2581,0.090,0.010
2582,0.030,0.000
2583,0.080,0.030
2584,0.050,0.020
2585,0.010,0.000
2586,0.020,0.020
2587,-0.010,0.050
2588,0.020,0.040
2589,0.100,-0.010
2590,0.070,0.030
2591,0.050,0.030
2592,0.030,-0.010
2593,0.060,0.070
2594,0.020,0.030
2595,0.050,0.150
2596,0.050,0.150
2597,0.040,0.160
2598,0.150,0.140
2599,0.160,0.030
2600,0.130,0.040
2601,0.210,-0.030
2602,0.220,-0.090
2603,0.150,-0.070
2604,0.130,-0.070
2605,0.100,-0.060
2606,0.250,-0.070
2607,0.130,-0.060
2608,0.150,-0.040
2609,0.110,-0.060
2610,0.110,-0.060
2611,0.090,-0.040
2612,0.120,-0.090
2613,0.070,-0.030
2614,0.050,-0.060
2615,0.110,-0.070
2616,0.120,-0.010
2617,0.060,-0.040
2618,0.160,0.000
2619,0.140,-0.040
2620,0.160,-0.050
2621,0.100,0.020
2622,0.080,-0.040
2623,0.090,-0.010
2624,0.040,-0.010
2625,0.150,-0.020
2626,0.240,0.000
2627,0.470,0.150
2628,0.720,0.040
2629,1.630,-0.780
2630,2.500,-2.740
2631,2.290,-3.480
2632,1.690,-3.770
2633,1.140,-3.120
2634,0.750,-2.360
2635,0.060,-1.830
2636,-0.440,-1.380
2637,-0.460,-0.890
2638,-0.380,-0.610
2639,-0.290,-0.440
2640,-0.160,-0.050
2641,-0.150,0.140
2642,-0.110,0.210
2643,-0.120,0.220
2644,-0.070,0.250
2645,-0.100,0.210
2646,-0.130,0.220
2647,-0.170,0.360
2648,-0.150,0.280
2649,-0.150,0.340
2650,-0.180,0.340
2651,-0.240,0.350
2652,-0.240,0.400
2653,-0.210,0.390
2654,-0.340,0.460
2655,-0.360,0.510
2656,-0.220,0.520
2657,-0.340,0.570
2658,-0.440,0.610
2659,-0.510,0.680
2660,-0.490,0.670
2661,-0.510,0.740
2662,-0.530,0.750
2663,-0.660,0.830
2664,-0.670,0.870
2665,-0.620,0.850
2666,-0.630,0.810
2667,-0.520,0.800
2668,-0.560,0.730
2669,-0.340,0.660
2670,-0.240,0.550
2671,-0.090,0.480
2672,-0.030,0.360
2673,0.120,0.280
2674,0.140,0.180
2675,0.120,0.120
2676,0.080,0.090
2677,0.210,0.050
2678,0.100,0.040
2679,0.130,0.040
2680,0.100,0.000
2681,0.120,0.050
2682,0.110,0.040
2683,0.080,0.010
2684,0.080,0.030
2685,0.130,-0.010
2686,0.040,0.020
2687,0.040,0.000
2688,0.060,0.040
2689,0.010,0.040
2690,0.020,0.030
2691,0.060,0.050
2692,0.020,0.100
2693,0.060,0.050
2694,-0.010,0.090
2695,0.040,0.060
2696,-0.040,0.100
2697,0.020,0.080
2698,0.070,0.040
2699,0.050,0.060
2700,0.100,0.030
2701,0.050,0.090
2702,0.000,0.140
2703,0.070,0.120
2704,0.020,0.150
2705,0.050,0.190
2706,0.140,0.080
2707,0.160,0.020
2708,0.120,-0.020
2709,0.180,-0.040
2710,0.210,-0.010
2711,0.170,-0.070
2712,0.180,-0.070
2713,0.090,-0.040
2714,0.120,-0.010
2715,0.080,-0.040
2716,0.090,-0.050
2717,0.100,-0.040
2718,0.090,-0.060
2719,0.090,-0.020
2720,0.160,-0.030
2721,0.100,-0.070
2722,0.100,-0.060
2723,0.040,-0.080
2724,0.140,-0.110
2725,0.120,-0.050
2726,0.070,-0.040
2727,0.130,-0.060
2728,0.140,-0.050
2729,0.160,-0.070
2730,0.140,-0.110
2731,0.120,-0.100
2732,0.120,-0.100
2733,0.140,-0.030
2734,0.320,0.060
2735,0.710,0.080
2736,1.570,-0.720
2737,2.390,-2.640
2738,2.290,-3.580
2739,1.630,-3.980
2740,1.070,-3.280
2741,0.620,-2.460
2742,0.050,-2.010
2743,-0.470,-1.410
2744,-0.520,-1.000
2745,-0.320,-0.610
2746,-0.150,-0.390
2747,-0.160,-0.070
2748,-0.080,0.120
2749,-0.070,0.290
2750,-0.070,0.160
2751,-0.110,0.360
2752,-0.060,0.240
2753,-0.020,0.320
2754,-0.030,0.330
2755,-0.130,0.370
2756,-0.090,0.280
2757,-0.100,0.440
2758,-0.080,0.400
2759,-0.180,0.370
2760,-0.190,0.520
2761,-0.220,0.450
2762,-0.200,0.490
2763,-0.210,0.550
2764,-0.400,0.620
2765,-0.180,0.760
2766,-0.340,0.610
2767,-0.360,0.720
2768,-0.430,0.830
2769,-0.470,0.690
2770,-0.620,0.980
2771,-0.670,0.750
2772,-0.590,0.970
2773,-0.600,0.890
2774,-0.530,0.780
2775,-0.430,0.810
2776,-0.220,0.660
2777,-0.170,0.530
2778,-0.100,0.420
2779,0.110,0.490
2780,0.010,0.210
2781,0.110,0.140
2782,0.190,0.130
2783,0.120,0.080
2784,0.180,-0.020
2785,0.250,0.020
2786,0.080,0.040
2787,0.020,0.010
2788,0.120,0.150
2789,-0.010,-0.090
2790,0.220,0.070
2791,0.060,0.010
2792,0.130,0.130
2793,0.110,-0.050
2794,0.110,0.080
2795,0.150,0.170
2796,0.020,-0.020
2797,0.030,0.110
2798,0.080,0.060
2799,0.080,0.060
2800,0.050,0.090
2801,-0.020,0.140
2802,0.070,0.030
2803,0.130,0.000
2804,-0.020,0.120
2805,0.130,0.110
2806,0.180,-0.090
2807,0.120,0.100
2808,0.120,-0.070
2809,0.090,0.110
2810,0.050,0.250
2811,0.070,0.190
2812,0.120,0.230
2813,0.150,0.160
2814,0.180,-0.020
2815,0.120,0.030
2816,0.180,-0.050
2817,0.260,-0.020
2818,0.240,-0.070
2819,0.180,-0.090
2820,0.200,-0.030
2821,0.290,0.010
2822,0.160,-0.030
2823,0.190,-0.100
2824,0.160,-0.020
2825,0.080,-0.110
2826,0.160,-0.090
2827,0.100,-0.030
2828,0.150,-0.130
2829,0.150,-0.020
2830,0.110,-0.120
2831,0.050,0.100
2832,0.200,-0.030
2833,0.130,0.020
2834,0.030,-0.070
2835,0.200,0.030
2836,0.170,-0.050
2837,0.200,0.050
2838,0.080,0.040
2839,0.130,0.060
2840,0.240,0.030
2841,0.330,0.150
2842,0.690,0.130
2843,1.590,-0.460
2844,2.650,-2.390
2845,2.570,-3.300
2846,2.120,-3.860
2847,1.530,-3.350
2848,1.060,-2.440
2849,0.280,-1.920
2850,-0.360,-1.440
2851,-0.500,-0.980
2852,-0.490,-0.650
2853,-0.360,-0.450
2854,-0.220,-0.060
2855,-0.230,0.110
2856,-0.150,0.230
2857,-0.090,0.210
2858,-0.230,0.200
2859,-0.110,0.250
2860,-0.220,0.220
2861,-0.210,0.350
2862,-0.140,0.320
2863,-0.160,0.320
2864,-0.280,0.350
2865,-0.330,0.360
2866,-0.270,0.500
2867,-0.190,0.440
2868,-0.250,0.420
2869,-0.320,0.640
2870,-0.370,0.520
2871,-0.430,0.680
2872,-0.330,0.560
2873,-0.530,0.750
2874,-0.490,0.800
2875,-0.530,0.830
2876,-0.520,0.800
2877,-0.560,0.910
2878,-0.630,0.930
2879,-0.600,0.890
2880,-0.610,0.940
2881,-0.590,0.870
2882,-0.400,0.840
2883,-0.360,0.730
2884,-0.180,0.710
2885,0.070,0.500
2886,-0.020,0.490
2887,0.200,0.260
2888,0.150,0.300
2889,0.170,0.170
2890,0.090,0.080
2891,0.200,0.070
2892,0.070,0.110
2893,0.150,0.050
2894,0.170,0.050
2895,0.060,0.060
2896,0.130,0.000
2897,-0.030,0.050
2898,0.070,0.080
2899,-0.070,0.060
2900,-0.030,0.060
2901,0.040,0.080
2902,0.010,0.080
2903,0.010,0.100
2904,-0.080,0.070
2905,-0.030,0.090
2906,0.000,0.080
2907,-0.050,0.010
2908,-0.050,0.180
2909,-0.070,0.010
2910,-0.010,0.070
2911,-0.030,0.070
2912,0.020,0.020
2913,-0.060,0.020
2914,-0.020,0.040
2915,0.050,0.090
2916,0.000,0.030
2917,-0.100,0.160
2918,-0.080,0.130
2919,-0.010,0.150
2920,-0.020,0.170
2921,0.090,0.050
2922,0.040,0.040
2923,0.060,0.020
2924,0.030,-0.010
2925,0.130,-0.020
2926,0.060,-0.040
2927,0.100,0.030
2928,0.040,-0.080
2929,0.030,0.050
2930,0.050,-0.030
2931,0.070,0.000
2932,0.100,0.000
2933,0.000,0.010
2934,0.000,-0.040
2935,0.020,-0.020
2936,0.000,-0.030
2937,0.000,0.010
2938,-0.030,-0.030
2939,0.030,-0.010
2940,0.000,0.070
2941,0.050,-0.080
2942,0.040,0.040
2943,0.060,0.010
2944,-0.030,0.020
2945,-0.060,0.030
2946,-0.040,0.060
2947,0.100,0.020
2948,0.080,0.060
2949,0.300,0.140
2950,0.550,0.220
2951,1.560,-0.370
2952,2.500,-2.140
2953,2.610,-3.000
2954,2.130,-3.500
2955,1.520,-2.810
2956,1.130,-2.040
2957,0.320,-1.590
2958,-0.560,-1.110
2959,-0.650,-0.670
2960,-0.610,-0.410
2961,-0.470,-0.220
2962,-0.400,0.110
2963,-0.340,0.260
2964,-0.400,0.320
2965,-0.350,0.350
2966,-0.340,0.350
2967,-0.440,0.430
2968,-0.380,0.400
2969,-0.420,0.440
2970,-0.500,0.410
2971,-0.490,0.450
2972,-0.540,0.460
2973,-0.520,0.440
2974,-0.520,0.520
2975,-0.610,0.510
2976,-0.620,0.570
2977,-0.620,0.560
2978,-0.640,0.590
2979,-0.630,0.630
2980,-0.750,0.670
2981,-0.850,0.760
2982,-0.880,0.740
2983,-0.950,0.790
2984,-0.960,0.820
2985,-1.020,0.830
2986,-0.970,0.860
2987,-1.030,0.850
2988,-0.990,0.880
2989,-0.930,0.830
2990,-0.780,0.760
2991,-0.610,0.670
2992,-0.440,0.540
2993,-0.280,0.520
2994,-0.190,0.440
2995,-0.130,0.320
2996,-0.020,0.230
2997,-0.050,0.190
2998,-0.010,0.170
2999,-0.100,0.090
3000,-0.050,0.140
3001,-0.130,0.090
3002,-0.050,0.090
3003,-0.060,0.090
3004,-0.030,0.080
3005,-0.030,0.080
3006,-0.110,0.090
3007,-0.140,0.070
3008,-0.090,0.050
3009,-0.210,0.080
3010,-0.110,0.110
3011,-0.210,0.090
3012,-0.150,0.020
3013,-0.100,0.090
3014,-0.140,0.180
3015,-0.190,0.160
3016,-0.160,0.130
3017,-0.110,0.090
3018,-0.200,0.070
3019,-0.130,0.100
3020,-0.160,0.090
3021,-0.170,0.080
3022,-0.090,0.130
3023,-0.180,0.220
3024,-0.200,0.280
3025,-0.110,0.240
3026,-0.050,0.190
3027,-0.040,0.110
3028,-0.030,0.100
3029,-0.030,0.090
3030,-0.020,0.040
3031,-0.010,0.050
3032,0.000,0.070
3033,-0.030,0.030
3034,-0.030,0.080
3035,-0.090,0.040
3036,-0.120,0.120
3037,-0.060,0.030
3038,-0.040,0.040
3039,-0.080,0.040
3040,-0.080,0.000
3041,-0.070,0.010
3042,-0.070,0.030
3043,-0.050,0.040
3044,-0.030,0.000
3045,-0.090,-0.010
3046,-0.090,0.010
3047,-0.060,0.030
3048,-0.070,0.000
3049,-0.050,0.020
3050,-0.050,-0.010
3051,-0.090,-0.020
3052,0.000,0.020
3053,-0.050,0.050
3054,-0.070,0.010
3055,0.360,0.180
3056,0.730,0.080
3057,1.930,-1.130
3058,2.570,-2.580
3059,2.720,-3.230
3060,2.040,-3.260
3061,1.510,-2.620
3062,1.030,-2.010
3063,0.310,-1.500
3064,-0.650,-1.110
3065,-0.730,-0.690
3066,-0.590,-0.440
3067,-0.460,-0.270
3068,-0.410,0.080
3069,-0.330,0.190
3070,-0.310,0.220
3071,-0.350,0.270
3072,-0.310,0.280
3073,-0.460,0.320
3074,-0.400,0.290
3075,-0.400,0.330
3076,-0.410,0.380
3077,-0.440,0.390
3078,-0.470,0.420
3079,-0.480,0.440
3080,-0.520,0.450
3081,-0.580,0.490
3082,-0.570,0.540
3083,-0.690,0.560
3084,-0.730,0.740
3085,-0.770,0.720
3086,-0.830,0.780
3087,-0.860,0.780
3088,-0.900,0.850
3089,-0.950,0.900
3090,-1.010,0.920
3091,-1.080,0.950
3092,-1.060,0.930
3093,-1.110,0.920
3094,-0.990,0.930
3095,-0.930,0.830
3096,-0.780,0.780
3097,-0.570,0.700
3098,-0.410,0.560
3099,-0.240,0.470
3100,-0.160,0.340
3101,-0.130,0.290
3102,-0.080,0.220
3103,0.020,0.140
3104,-0.040,0.060
3105,0.020,0.110
3106,0.100,0.060
3107,-0.080,0.090
3108,-0.020,0.090
3109,-0.060,0.030
3110,-0.080,0.060
3111,-0.030,0.040
3112,-0.020,0.120
3113,-0.110,0.040
3114,-0.120,0.090
3115,-0.050,0.040
3116,-0.160,0.120
3117,-0.120,0.130
3118,-0.090,0.030
3119,-0.110,0.110
3120,-0.200,0.130
3121,-0.110,0.100
3122,-0.060,0.120
3123,-0.180,0.090
3124,-0.100,0.070
3125,-0.130,0.130
3126,-0.100,0.100
3127,-0.060,0.050
3128,-0.080,0.060
3129,-0.100,0.140
3130,-0.120,0.230
3131,-0.100,0.180
3132,-0.110,0.190
3133,0.030,0.170
3134,0.070,0.000
3135,0.050,0.060
3136,0.090,-0.020
3137,0.010,-0.020
3138,0.040,0.000
3139,0.040,-0.030
3140,0.020,-0.050
3141,-0.030,0.010
3142,-0.020,0.020
3143,0.020,-0.030
3144,-0.130,0.000
3145,-0.030,0.000
3146,-0.030,-0.030
3147,-0.090,0.030
3148,-0.050,-0.060
3149,-0.080,0.010
3150,0.000,-0.020
3151,0.010,0.000
3152,-0.050,0.000
3153,-0.060,0.010
3154,-0.010,0.010
3155,-0.010,-0.020
3156,-0.070,0.050
3157,0.000,0.000
3158,-0.010,0.050
3159,-0.050,0.040
3160,0.140,0.030
3161,0.190,0.120
3162,0.600,0.140
3163,1.610,-0.750
3164,2.410,-2.530
3165,2.730,-3.210
3166,2.240,-3.480
3167,1.360,-3.040
3168,1.120,-2.250
3169,0.440,-1.800
3170,-0.570,-1.310
3171,-0.620,-0.880
3172,-0.560,-0.620
3173,-0.530,-0.370
3174,-0.410,-0.100
3175,-0.380,0.120
3176,-0.270,0.240
3177,-0.270,0.230
3178,-0.330,0.250
3179,-0.310,0.270
3180,-0.320,0.310
3181,-0.300,0.320
3182,-0.330,0.340
3183,-0.470,0.380
3184,-0.410,0.380
3185,-0.380,0.370
3186,-0.470,0.450
3187,-0.450,0.490
3188,-0.440,0.490
3189,-0.560,0.590
3190,-0.620,0.590
3191,-0.600,0.620
3192,-0.690,0.680
3193,-0.760,0.700
3194,-0.760,0.720
3195,-0.910,0.850
3196,-0.880,0.840
3197,-0.930,0.880
3198,-1.000,0.900
3199,-0.990,0.890
3200,-0.960,0.900
3201,-0.870,0.820
3202,-0.900,0.760
3203,-0.690,0.680
3204,-0.500,0.600
3205,-0.320,0.510
3206,-0.140,0.380
3207,-0.040,0.340
3208,-0.030,0.250
3209,0.040,0.160
3210,-0.010,0.120
3211,-0.010,0.050
3212,-0.050,0.040
3213,-0.060,0.080
3214,-0.040,0.040
3215,0.040,0.000
3216,0.080,0.020
3217,-0.010,0.000
3218,-0.030,0.050
3219,-0.080,0.040
3220,-0.030,0.000
3221,-0.110,0.020
3222,-0.160,0.060
3223,-0.030,0.060
3224,-0.070,0.010
3225,-0.070,0.040
3226,-0.060,0.000
3227,-0.030,0.090
3228,-0.020,0.040
3229,-0.080,0.040
3230,-0.040,0.020
3231,-0.080,0.050
3232,0.000,0.000
3233,0.020,0.070
3234,-0.040,0.060
3235,-0.020,0.010
3236,-0.010,0.140
3237,-0.040,0.180
3238,-0.060,0.180
3239,-0.040,0.190
3240,-0.010,0.130
3241,0.170,0.060
3242,0.120,0.000
3243,0.120,0.030
3244,0.120,-0.050
3245,0.160,-0.040
3246,0.080,-0.010
3247,0.080,-0.010
3248,0.090,0.050
3249,0.080,0.040
3250,0.020,0.040
3251,0.020,0.030
3252,0.070,0.030
3253,0.060,0.020
3254,0.120,0.050
3255,0.020,0.040
3256,-0.010,0.010
3257,0.020,0.010
3258,0.020,0.000
3259,-0.020,-0.010
3260,0.040,0.010
3261,0.100,-0.020
3262,0.090,0.020
3263,0.110,-0.010
3264,0.030,-0.050
3265,0.030,-0.010
3266,0.080,-0.020
3267,0.110,-0.050
3268,0.210,0.040
3269,0.660,0.160
3270,1.620,-0.690
3271,2.520,-2.630
3272,2.700,-3.620
3273,2.010,-4.070
3274,1.000,-3.720
3275,0.720,-2.730
3276,0.030,-2.140
3277,-0.590,-1.580
3278,-0.640,-0.960
3279,-0.490,-0.640
3280,-0.450,-0.490
3281,-0.220,-0.120
3282,-0.180,0.070
3283,-0.210,0.240
3284,-0.130,0.220
3285,-0.130,0.290
3286,-0.220,0.310
3287,-0.260,0.300
3288,-0.220,0.320
3289,-0.210,0.340
3290,-0.260,0.400
3291,-0.330,0.350
3292,-0.320,0.430
3293,-0.230,0.440
3294,-0.330,0.430
3295,-0.430,0.520
3296,-0.480,0.520
3297,-0.500,0.570
3298,-0.560,0.600
3299,-0.590,0.670
3300,-0.530,0.690
3301,-0.720,0.740
3302,-0.770,0.800
3303,-0.840,0.830
3304,-0.890,0.860
3305,-0.840,0.890
3306,-0.990,0.890
3307,-0.920,0.880
3308,-0.780,0.850
3309,-0.750,0.800
3310,-0.600,0.700
3311,-0.380,0.600
3312,-0.300,0.500
3313,-0.190,0.420
3314,0.000,0.330
3315,0.050,0.220
3316,0.000,0.120
3317,0.060,0.070
3318,0.080,0.040
3319,0.010,0.090
3320,0.130,0.030
3321,-0.030,-0.030
3322,0.010,-0.010
3323,0.020,0.010
3324,0.010,-0.010
3325,-0.010,-0.020
3326,0.000,-0.020
3327,-0.030,-0.010
3328,-0.060,0.030
3329,-0.050,0.000
3330,-0.110,-0.020
3331,-0.080,0.040
3332,-0.070,-0.010
3333,-0.070,0.010
3334,-0.070,0.020
3335,-0.010,0.040
3336,-0.050,-0.010
3337,-0.030,-0.030
3338,-0.010,0.010
3339,-0.070,-0.010
3340,-0.060,0.030
3341,-0.040,-0.050
3342,-0.020,-0.010
3343,-0.030,0.020
3344,0.010,-0.010
3345,-0.040,0.020
3346,0.000,0.150
3347,0.010,0.090
3348,0.010,0.110
3349,-0.040,0.150
3350,0.040,0.030
3351,0.050,0.000
3352,0.100,-0.070
3353,0.110,-0.060
3354,0.100,-0.090
3355,0.080,-0.100
3356,0.010,-0.090
3357,0.030,-0.110
3358,-0.040,-0.060
3359,-0.040,-0.050
3360,-0.080,-0.040
3361,-0.060,-0.080
3362,-0.060,-0.060
3363,-0.030,-0.080
3364,0.020,-0.050
3365,0.000,-0.080
3366,-0.080,-0.060
3367,-0.050,-0.080
3368,-0.030,-0.070
3369,-0.020,-0.040
3370,-0.020,-0.070
3371,-0.020,-0.060
3372,0.000,-0.070
3373,-0.020,-0.040
3374,-0.010,-0.050
3375,0.020,-0.060
3376,0.000,-0.090
3377,0.070,-0.010
3378,0.400,0.100
3379,0.660,0.010
3380,1.840,-1.050
3381,2.530,-2.880
3382,2.310,-3.700
3383,1.510,-3.850
3384,0.950,-3.000
3385,0.330,-2.310
3386,-0.210,-1.700
3387,-0.620,-1.230
3388,-0.670,-0.760
3389,-0.560,-0.500
3390,-0.410,-0.270
3391,-0.340,0.080
3392,-0.240,0.200
3393,-0.230,0.230
3394,-0.290,0.260
3395,-0.270,0.260
3396,-0.300,0.300
3397,-0.350,0.320
3398,-0.330,0.330
3399,-0.360,0.330
3400,-0.380,0.370
3401,-0.380,0.400
3402,-0.390,0.400
3403,-0.440,0.440
3404,-0.490,0.420
3405,-0.510,0.470
3406,-0.540,0.520
3407,-0.600,0.570
3408,-0.620,0.580
3409,-0.670,0.620
3410,-0.660,0.680
3411,-0.720,0.720
3412,-0.820,0.760
3413,-0.810,0.760
3414,-0.880,0.810
3415,-0.940,0.860
3416,-0.880,0.810
3417,-0.810,0.820
3418,-0.750,0.800
3419,-0.640,0.760
3420,-0.460,0.650
3421,-0.370,0.570
3422,-0.220,0.450
3423,-0.070,0.360
3424,-0.050,0.250
3425,-0.050,0.180
3426,0.000,0.130
3427,-0.010,0.090
3428,0.000,0.080
3429,0.000,0.050
3430,0.010,0.060
3431,-0.010,0.040
3432,-0.040,0.050
3433,-0.050,0.050
3434,-0.050,0.060
3435,-0.010,0.080
3436,-0.040,0.070
3437,-0.070,0.110
3438,-0.070,0.090
3439,-0.110,0.140
3440,-0.060,0.110
3441,-0.060,0.150
3442,-0.080,0.150
3443,-0.050,0.130
3444,-0.060,0.120
3445,-0.050,0.130
3446,-0.030,0.110
3447,-0.010,0.110
3448,-0.050,0.110
3449,-0.020,0.080
3450,-0.050,0.090
3451,-0.050,0.100
3452,-0.030,0.070
3453,-0.080,0.090
3454,-0.080,0.140
3455,-0.030,0.220
3456,-0.030,0.220
3457,-0.060,0.210
3458,0.060,0.200
3459,0.080,0.050
3460,0.050,0.060
3461,0.080,0.010
3462,0.090,-0.020
3463,0.100,0.010
3464,0.080,-0.020
3465,0.050,-0.020
3466,0.050,0.030
3467,0.020,0.020
3468,-0.020,-0.010
3469,-0.030,0.010
3470,0.010,0.000
3471,-0.030,-0.010
3472,-0.010,-0.020
3473,0.020,0.000
3474,0.020,-0.010
3475,0.000,-0.010
3476,0.010,-0.020
3477,0.040,0.010
3478,-0.020,-0.030
3479,0.000,-0.010
3480,0.030,-0.020
3481,0.040,0.010
3482,0.020,-0.020
3483,0.050,0.010
3484,0.060,-0.010
3485,0.060,-0.030
3486,0.220,0.050
3487,0.550,0.190
3488,1.000,-0.090
3489,2.000,-1.520
3490,2.410,-3.140
3491,2.070,-3.870
3492,1.230,-3.680
3493,0.950,-2.720
3494,0.180,-2.280
3495,-0.260,-1.570
3496,-0.530,-1.200
3497,-0.550,-0.700
3498,-0.510,-0.520
3499,-0.320,-0.220
3500,-0.160,0.030
3501,-0.100,0.240
3502,-0.170,0.210
3503,-0.150,0.260
3504,-0.120,0.290
3505,-0.170,0.290
3506,-0.190,0.300
3507,-0.160,0.320
3508,-0.210,0.330
3509,-0.200,0.350
3510,-0.220,0.350
3511,-0.210,0.410
3512,-0.260,0.430
3513,-0.300,0.440
3514,-0.300,0.430
3515,-0.350,0.480
3516,-0.380,0.530
3517,-0.450,0.550
3518,-0.500,0.630
3519,-0.520,0.620
3520,-0.510,0.700
3521,-0.570,0.720
3522,-0.620,0.730
3523,-0.660,0.810
3524,-0.710,0.790
3525,-0.720,0.810
3526,-0.650,0.760
3527,-0.620,0.780
3528,-0.490,0.680
3529,-0.360,0.660
3530,-0.210,0.530
3531,-0.090,0.460
3532,0.080,0.310
3533,0.040,0.260
3534,0.100,0.180
3535,0.080,0.140
3536,0.120,0.060
3537,0.100,0.070
3538,0.130,0.070
3539,0.110,0.040
3540,0.120,0.060
3541,0.160,-0.020
3542,0.010,0.040
3543,-0.030,0.040
3544,0.130,0.060
3545,-0.030,0.020
3546,0.040,0.040
3547,0.070,0.030
3548,0.020,0.040
3549,0.040,0.030
3550,0.050,0.060
3551,0.080,0.020
3552,-0.060,0.030
3553,0.040,0.040
3554,0.020,0.020
3555,0.020,0.030
3556,0.090,0.000
3557,0.130,0.010
3558,0.110,-0.010
3559,0.070,0.000
3560,0.050,-0.020
3561,0.060,-0.010
3562,0.080,0.020
3563,0.070,0.110
3564,0.030,0.120
3565,0.060,0.110
3566,0.070,0.120
3567,0.160,0.040
3568,0.220,-0.020
3569,0.100,-0.010
3570,0.120,-0.040
3571,0.230,-0.090
3572,0.130,-0.060
3573,0.140,-0.080
3574,0.190,-0.060
3575,0.190,-0.050
3576,0.170,-0.050
3577,0.110,-0.070
3578,0.130,-0.060
3579,0.120,-0.090
3580,0.100,-0.100
3581,0.120,-0.050
3582,0.130,-0.100
3583,0.100,-0.100
3584,0.110,-0.100
3585,0.130,-0.090
3586,0.180,-0.080
3587,0.160,-0.090
3588,0.070,-0.130
3589,0.110,-0.070
3590,0.140,-0.090
3591,0.060,-0.080
3592,0.140,-0.080
3593,0.050,-0.110
3594,0.290,-0.060
3595,0.600,0.040
3596,0.820,-0.030
3597,1.870,-1.040
3598,2.600,-2.700
3599,2.430,-3.460
3600,1.530,-3.610
3601,1.020,-2.930
3602,0.560,-2.130
3603,-0.140,-1.620
3604,-0.360,-1.150
3605,-0.620,-0.740
3606,-0.420,-0.520
3607,-0.450,-0.300
3608,-0.210,-0.060
3609,-0.150,0.110
3610,-0.090,0.110
3611,-0.190,0.180
3612,-0.180,0.140
3613,-0.160,0.200
3614,-0.140,0.200
3615,-0.220,0.230
3616,-0.180,0.200
3617,-0.250,0.240
3618,-0.300,0.290
3619,-0.260,0.280
3620,-0.340,0.300
3621,-0.270,0.330
3622,-0.340,0.370
3623,-0.430,0.400
3624,-0.410,0.450
3625,-0.420,0.480
3626,-0.570,0.520
3627,-0.610,0.550
3628,-0.620,0.630
3629,-0.680,0.630
3630,-0.740,0.690
3631,-0.740,0.730
3632,-0.800,0.740
3633,-0.800,0.740
3634,-0.710,0.740
3635,-0.720,0.710
3636,-0.570,0.670
3637,-0.410,0.590
3638,-0.290,0.510
3639,-0.140,0.430
3640,0.020,0.320
3641,0.050,0.240
3642,0.050,0.180
3643,0.040,0.100
3644,0.030,0.080
3645,0.060,0.040
3646,0.050,0.000
3647,0.010,0.030
3648,0.000,0.020
3649,0.040,-0.010
3650,0.000,-0.010
3651,-0.020,-0.020
3652,-0.020,-0.020
3653,-0.030,0.000
3654,-0.100,-0.020
3655,-0.080,0.010
3656,-0.100,0.020
3657,-0.110,0.010
3658,-0.120,0.020
3659,-0.070,0.060
3660,-0.090,0.030
3661,-0.080,0.060
3662,-0.090,0.040
3663,-0.110,0.030
3664,-0.100,0.020
3665,-0.130,0.050
3666,-0.030,0.030
3667,-0.060,0.020
3668,-0.050,0.010
3669,-0.080,0.070
3670,-0.050,0.120
3671,-0.080,0.110
3672,-0.130,0.130
3673,-0.050,0.130
3674,-0.040,0.040
3675,-0.010,0.000
3676,0.020,0.000
3677,0.060,-0.040
3678,-0.040,-0.030
3679,0.000,-0.040
3680,-0.030,-0.050
3681,-0.040,-0.030
3682,-0.110,-0.010
3683,-0.100,-0.030
3684,-0.120,-0.030
3685,-0.070,-0.020
3686,-0.110,-0.010
3687,-0.130,-0.030
3688,-0.080,-0.030
3689,-0.130,-0.020
3690,-0.120,-0.040
3691,-0.130,-0.030
3692,-0.070,-0.020
3693,-0.100,-0.030
3694,-0.060,-0.020
3695,-0.050,-0.030
3696,-0.090,-0.030
3697,-0.030,-0.030
3698,-0.060,-0.040
3699,-0.090,-0.040
3700,-0.040,-0.040
3701,0.070,-0.010
3702,0.460,0.120
3703,0.750,-0.020
3704,1.830,-1.010
3705,2.450,-2.640
3706,2.310,-3.410
3707,1.400,-3.440
3708,1.100,-2.620
3709,0.580,-2.030
3710,-0.240,-1.480
3711,-0.660,-1.080
3712,-0.700,-0.690
3713,-0.620,-0.460
3714,-0.560,-0.260
3715,-0.360,0.050
3716,-0.290,0.200
3717,-0.350,0.240
3718,-0.380,0.270
3719,-0.400,0.270
3720,-0.410,0.300
3721,-0.360,0.330
3722,-0.390,0.330
3723,-0.450,0.370
3724,-0.430,0.390
3725,-0.470,0.420
3726,-0.570,0.410
3727,-0.490,0.450
3728,-0.580,0.480
3729,-0.580,0.520
3730,-0.590,0.570
3731,-0.740,0.580
3732,-0.700,0.650
3733,-0.620,0.670
3734,-0.800,0.690
3735,-0.800,0.740
3736,-0.920,0.740
3737,-0.950,0.790
3738,-1.000,0.810
3739,-0.900,0.820
3740,-1.030,0.810
3741,-0.950,0.840
3742,-0.790,0.780
3743,-0.650,0.720
3744,-0.510,0.660
3745,-0.370,0.540
3746,-0.270,0.460
3747,-0.100,0.380
3748,-0.040,0.290
3749,-0.100,0.200
3750,-0.040,0.170
3751,0.040,0.100
3752,0.000,0.070
3753,-0.050,0.090
3754,-0.020,0.040
3755,0.020,0.050
3756,-0.080,0.050
3757,-0.070,0.060
3758,-0.020,0.050
3759,0.010,0.050
3760,-0.070,0.030
3761,-0.060,0.050
3762,-0.060,0.030
3763,-0.150,0.050
3764,-0.160,0.080
3765,-0.010,0.040
3766,-0.090,0.080
3767,-0.110,0.040
3768,-0.080,0.080
3769,-0.090,0.100
3770,-0.030,0.060
3771,-0.030,0.090
3772,-0.040,0.100
3773,-0.100,0.040
3774,-0.100,0.040
3775,0.050,0.090
3776,-0.060,0.100
3777,-0.030,0.200
3778,-0.040,0.170
3779,-0.060,0.190
3780,0.010,0.190
3781,0.100,0.040
3782,0.090,0.080
3783,0.090,0.010
3784,0.040,0.020
3785,0.130,-0.020
3786,0.030,-0.030
3787,0.130,-0.010
3788,0.080,-0.030
3789,0.060,0.010
3790,-0.010,-0.010
3791,-0.070,-0.010
3792,0.060,-0.060
3793,0.010,0.000
3794,0.070,0.000
3795,0.010,0.000
3796,0.010,-0.010
3797,0.080,0.010
3798,0.000,0.020
3799,0.050,0.000
3800,-0.110,0.040
3801,0.050,0.030
3802,0.020,-0.020
3803,0.040,0.010
3804,0.010,-0.010
3805,0.140,-0.010
3806,0.040,0.000
3807,0.020,0.030
3808,0.300,0.040
3809,0.660,0.170
3810,1.170,-0.090
3811,2.320,-1.600
3812,2.640,-2.830
3813,2.310,-3.480
3814,1.320,-3.200
3815,0.980,-2.380
3816,0.420,-1.920
3817,-0.360,-1.330
3818,-0.530,-0.930
3819,-0.650,-0.600
3820,-0.470,-0.370
3821,-0.320,-0.200
3822,-0.310,0.080
3823,-0.230,0.220
3824,-0.180,0.220
3825,-0.270,0.270
3826,-0.210,0.260
3827,-0.190,0.260
3828,-0.290,0.260
3829,-0.280,0.300
3830,-0.280,0.320
3831,-0.270,0.330
3832,-0.370,0.340
3833,-0.310,0.390
3834,-0.290,0.400
3835,-0.410,0.410
3836,-0.360,0.470
3837,-0.480,0.490
3838,-0.550,0.530
3839,-0.540,0.570
3840,-0.640,0.620
3841,-0.650,0.640
3842,-0.720,0.710
3843,-0.740,0.760
3844,-0.840,0.750
3845,-0.810,0.780
3846,-0.890,0.770
3847,-0.860,0.790
3848,-0.870,0.780
3849,-0.770,0.750
3850,-0.560,0.680
3851,-0.430,0.590
3852,-0.320,0.540
3853,-0.130,0.450
3854,0.000,0.350
3855,0.050,0.250
3856,0.040,0.180
3857,0.090,0.140
3858,0.040,0.100
3859,0.090,0.090
3860,0.090,0.070
3861,0.070,0.070
3862,0.050,0.070
3863,0.110,0.080
3864,0.030,0.050
3865,-0.020,0.040
3866,0.040,0.060
3867,0.020,0.060
3868,-0.050,0.080
3869,0.020,0.060
3870,-0.020,0.060
3871,0.000,0.070
3872,0.000,0.060
3873,-0.070,0.050
3874,-0.040,0.060
3875,-0.090,0.080
3876,-0.030,0.030
3877,-0.070,0.070
3878,0.000,0.060
3879,-0.030,0.020
3880,-0.030,0.100
3881,-0.030,0.030
3882,-0.050,0.100
3883,-0.110,0.140
3884,-0.060,0.210
3885,-0.090,0.210
3886,-0.060,0.200
3887,0.020,0.130
3888,-0.010,0.040
3889,0.000,0.070
3890,0.020,0.030
3891,0.050,0.030
3892,-0.020,0.040
3893,-0.030,0.030
3894,-0.030,0.040
3895,-0.070,0.060
3896,-0.080,0.040
3897,-0.070,0.040
3898,-0.070,0.040
3899,-0.100,0.040
3900,-0.080,0.020
3901,-0.150,0.020
3902,-0.110,0.020
3903,-0.120,0.020
3904,-0.120,0.050
3905,-0.090,0.040
3906,-0.100,0.040
3907,-0.060,0.050
3908,-0.090,0.050
3909,-0.110,0.030
3910,-0.100,0.050
3911,-0.100,0.040
3912,-0.080,0.050
3913,-0.080,0.060
3914,0.030,0.080
3915,0.360,0.200
3916,0.730,0.130
3917,1.870,-0.830
3918,2.600,-2.320
3919,2.670,-2.940
3920,1.860,-3.080
3921,1.480,-2.440
3922,1.010,-1.780
3923,0.310,-1.370
3924,-0.630,-1.020
3925,-0.700,-0.620
3926,-0.580,-0.400
3927,-0.550,-0.220
3928,-0.370,0.080
3929,-0.400,0.210
3930,-0.390,0.250
3931,-0.390,0.290
3932,-0.350,0.270
3933,-0.420,0.330
3934,-0.400,0.320
3935,-0.380,0.380
3936,-0.410,0.320
3937,-0.460,0.390
3938,-0.490,0.380
3939,-0.510,0.440
3940,-0.580,0.430
3941,-0.590,0.460
3942,-0.600,0.490
3943,-0.650,0.540
3944,-0.680,0.600
3945,-0.760,0.620
3946,-0.780,0.680
3947,-0.850,0.690
3948,-0.940,0.740
3949,-1.020,0.770
3950,-1.020,0.810
3951,-1.070,0.810
3952,-1.080,0.830
3953,-1.060,0.840
3954,-0.970,0.850
3955,-0.870,0.780
3956,-0.770,0.710
3957,-0.620,0.650
3958,-0.410,0.590
3959,-0.240,0.500
3960,-0.090,0.410
3961,-0.050,0.310
3962,0.030,0.240
3963,0.010,0.180
3964,0.030,0.120
3965,0.030,0.100
3966,-0.010,0.080
3967,-0.010,0.080
3968,0.030,0.070
3969,-0.020,0.070
3970,-0.030,0.070
3971,0.040,0.060
3972,-0.040,0.060
3973,-0.050,0.050
3974,-0.040,0.060
3975,-0.120,0.050
3976,-0.100,0.080
3977,-0.100,0.070
3978,-0.100,0.080
3979,-0.090,0.090
3980,-0.070,0.090
3981,-0.020,0.110
3982,-0.070,0.100
3983,-0.040,0.090
3984,-0.050,0.080
3985,-0.040,0.070
3986,-0.030,0.090
3987,0.030,0.100
3988,-0.060,0.140
3989,-0.010,0.240
3990,0.040,0.200
3991,-0.020,0.210
3992,0.100,0.160
3993,0.060,0.050
3994,0.080,0.070
3995,0.090,0.020
3996,0.100,0.000
3997,0.090,0.030
3998,0.150,0.030
3999,0.060,0.000
4000,0.070,0.040
4001,0.120,0.030
4002,0.040,0.000
4003,0.020,0.000
4004,0.000,0.020
4005,-0.050,-0.020
4006,0.050,0.010
4007,0.050,-0.030
4008,0.060,0.000
4009,0.040,-0.010
4010,0.070,-0.020
4011,-0.030,-0.020
4012,0.010,-0.010
4013,0.040,0.020
4014,0.050,-0.010
4015,0.040,-0.010
4016,0.080,-0.020
4017,0.030,-0.020
4018,0.060,-0.020
4019,0.160,0.000
4020,0.460,0.130
4021,0.790,0.040
4022,1.900,-1.000
4023,2.540,-2.720
4024,2.530,-3.390
4025,1.690,-3.550
4026,0.970,-2.980
4027,0.610,-2.160
4028,-0.030,-1.630
4029,-0.540,-1.170
4030,-0.650,-0.750
4031,-0.510,-0.490
4032,-0.410,-0.310
4033,-0.280,-0.010
4034,-0.180,0.160
4035,-0.200,0.280
4036,-0.200,0.270
4037,-0.190,0.300
4038,-0.210,0.320
4039,-0.290,0.320
4040,-0.270,0.350
4041,-0.300,0.360
4042,-0.330,0.380
4043,-0.300,0.380
4044,-0.380,0.400
4045,-0.370,0.430
4046,-0.400,0.460
4047,-0.390,0.480
4048,-0.500,0.510
4049,-0.540,0.550
4050,-0.560,0.580
4051,-0.630,0.630
4052,-0.640,0.690
4053,-0.710,0.740
4054,-0.790,0.790
4055,-0.780,0.810
4056,-0.850,0.850
4057,-0.880,0.880
4058,-0.900,0.860
4059,-0.850,0.860
4060,-0.780,0.830
4061,-0.610,0.770
4062,-0.490,0.680
4063,-0.270,0.620
4064,-0.110,0.490
4065,-0.060,0.400
4066,0.080,0.310
4067,0.040,0.220
4068,0.100,0.160
4069,0.070,0.120
4070,0.070,0.080
4071,0.100,0.080
4072,0.080,0.080
4073,0.070,0.050
4074,0.100,0.030
4075,0.040,0.050
4076,0.050,-0.010
4077,-0.010,0.040
4078,0.030,0.020
4079,0.030,0.010
4080,-0.010,0.020
4081,-0.020,0.010
4082,0.010,0.040
4083,-0.010,0.030
4084,0.010,0.020
4085,-0.070,0.010
4086,-0.030,0.020
4087,0.020,0.040
4088,-0.040,0.030
4089,0.010,0.030
4090,0.020,0.010
4091,0.070,0.040
4092,-0.020,0.020
4093,0.050,0.020
4094,0.050,0.040
4095,0.000,0.100
4096,-0.020,0.170
4097,0.080,0.150
4098,0.000,0.170
4099,0.090,0.130
4100,0.190,0.010
4101,0.160,0.060
4102,0.180,-0.020
4103,0.100,-0.010
4104,0.190,-0.020
4105,0.050,-0.030
4106,0.090,-0.010
4107,0.200,-0.010
4108,-0.060,-0.010
4109,0.140,-0.020
4110,0.070,-0.010
4111,0.100,-0.040
4112,0.100,-0.070
4113,0.030,-0.040
4114,-0.030,-0.080
4115,0.090,-0.060
4116,0.090,-0.090
4117,0.070,-0.070
4118,0.110,-0.090
4119,0.080,-0.090
4120,0.100,-0.100
4121,0.010,-0.100
4122,0.120,-0.110
4123,0.110,-0.100
4124,-0.030,-0.110
4125,0.150,-0.080
4126,0.160,-0.090
4127,0.300,-0.060
4128,0.660,0.060
4129,1.340,-0.290
4130,2.280,-1.790
4131,2.510,-3.050
4132,2.150,-3.710
4133,1.130,-3.350
4134,0.880,-2.510
4135,0.110,-2.020
4136,-0.450,-1.420
4137,-0.500,-0.960
4138,-0.420,-0.650
4139,-0.440,-0.510
4140,-0.220,-0.240
4141,-0.210,0.010
4142,-0.200,0.120
4143,-0.160,0.130
4144,-0.230,0.170
4145,-0.130,0.170
4146,-0.160,0.160
4147,-0.170,0.200
4148,-0.040,0.200
4149,-0.220,0.200
4150,-0.140,0.230
4151,-0.200,0.210
4152,-0.220,0.250
4153,-0.280,0.310
4154,-0.230,0.340
4155,-0.280,0.370
4156,-0.350,0.400
4157,-0.300,0.470
4158,-0.410,0.460
4159,-0.460,0.530
4160,-0.520,0.540
4161,-0.590,0.580
4162,-0.660,0.620
4163,-0.680,0.650
4164,-0.660,0.700
4165,-0.720,0.690
4166,-0.680,0.710
4167,-0.610,0.620
4168,-0.560,0.580
4169,-0.450,0.560
4170,-0.270,0.480
4171,-0.170,0.410
4172,0.010,0.300
4173,0.070,0.210
4174,0.000,0.180
4175,0.150,0.100
4176,0.210,0.030
4177,0.050,-0.090
4178,0.090,-0.090
4179,0.090,-0.010
4180,0.080,-0.070
4181,0.090,-0.080
4182,0.010,-0.040
4183,0.080,-0.050
4184,0.020,-0.070
4185,0.070,-0.060
4186,0.010,-0.070
4187,-0.090,-0.100
4188,0.000,-0.080
4189,-0.040,-0.040
4190,-0.020,-0.110
4191,-0.010,-0.030
4192,-0.070,-0.040
4193,0.030,0.030
4194,-0.030,-0.050
4195,0.040,-0.030
4196,0.040,-0.030
4197,0.020,-0.100
4198,0.020,-0.050
4199,-0.040,0.030
4200,0.000,-0.010
4201,0.130,-0.020
4202,0.060,0.060
4203,0.120,0.090
4204,0.080,0.060
4205,-0.010,0.090
4206,0.120,0.080
4207,0.080,-0.060
4208,0.190,-0.080
4209,0.110,-0.010
4210,0.170,-0.110
4211,0.250,-0.070
4212,0.090,-0.120
4213,0.030,-0.060
4214,0.180,-0.030
4215,0.110,-0.080
4216,0.060,-0.130
4217,0.080,-0.170
4218,0.180,-0.050
4219,0.110,-0.180
4220,0.100,-0.040
4221,0.260,-0.120
4222,0.070,-0.180
4223,0.140,-0.150
4224,0.080,-0.030
4225,0.080,-0.110
4226,0.240,-0.050
4227,0.160,-0.160
4228,0.150,-0.100
4229,0.210,-0.120
4230,0.150,-0.090
4231,0.220,-0.100
4232,0.200,-0.120
4233,0.270,-0.050
4234,0.450,0.040
4235,0.900,0.150
4236,2.040,-0.820
4237,2.650,-2.380
4238,2.660,-3.180
4239,2.110,-3.450
4240,1.640,-2.880
4241,1.080,-2.130
4242,0.210,-1.570
4243,-0.350,-1.270
4244,-0.460,-0.850
4245,-0.310,-0.560
4246,-0.280,-0.410
4247,-0.270,-0.080
4248,-0.040,0.150
4249,-0.040,0.180
4250,-0.080,0.100
4251,-0.160,0.220
4252,-0.220,0.250
4253,-0.130,0.230
4254,-0.210,0.220
4255,-0.220,0.240
4256,-0.220,0.340
4257,-0.170,0.270
4258,-0.300,0.400
4259,-0.450,0.340
4260,-0.330,0.430
4261,-0.400,0.390
4262,-0.430,0.380
4263,-0.380,0.440
4264,-0.580,0.520
4265,-0.500,0.530
4266,-0.570,0.530
4267,-0.490,0.630
4268,-0.760,0.630
4269,-0.650,0.680
4270,-0.870,0.760
4271,-0.830,0.690
4272,-0.810,0.760
4273,-0.960,0.690
4274,-0.620,0.670
4275,-0.580,0.580
4276,-0.300,0.450
4277,-0.100,0.580
4278,0.060,0.280
4279,0.030,0.230
4280,0.170,0.160
4281,0.190,0.140
4282,0.060,-0.010
4283,0.340,-0.240
4284,0.230,0.180
4285,0.170,-0.240
4286,0.500,0.030
4287,0.340,0.110
4288,0.020,-0.110
4289,0.290,-0.040
4290,-0.020,-0.120
4291,0.110,-0.100
4292,0.230,0.000
4293,0.070,-0.070
4294,0.290,-0.170
4295,0.110,-0.060
4296,0.320,-0.100
4297,0.070,-0.040
4298,0.040,-0.130
4299,0.070,0.050
4300,0.280,-0.150
4301,0.120,-0.120
4302,0.120,-0.050
4303,0.520,-0.060
4304,0.270,-0.220
4305,0.240,-0.010
4306,0.240,-0.250
4307,0.230,0.050
4308,0.210,0.020
4309,0.220,0.070
4310,0.400,0.030
4311,0.570,-0.070
4312,0.300,-0.060
4313,0.400,-0.090
4314,0.460,-0.140
4315,0.400,-0.120
4316,0.360,-0.170
4317,0.390,-0.090
4318,0.300,-0.120
4319,0.430,-0.130
4320,0.380,-0.140
4321,0.420,-0.120
4322,0.360,-0.200
4323,0.360,-0.120
4324,0.300,-0.140
4325,0.280,-0.140
4326,0.280,-0.130
4327,0.340,-0.110
4328,0.290,-0.140
4329,0.350,-0.120
4330,0.330,-0.130
4331,0.390,-0.120
4332,0.330,-0.120
4333,0.330,-0.140
4334,0.360,-0.140
4335,0.320,-0.180
4336,0.450,-0.120
4337,0.240,-0.160
4338,0.340,-0.120
4339,0.600,-0.050
4340,0.990,0.030
4341,1.880,-0.420
4342,2.650,-1.940
4343,3.030,-2.840
4344,2.690,-3.270
4345,1.820,-2.910
4346,1.440,-2.220
4347,0.880,-1.800
4348,-0.150,-1.380
4349,-0.320,-0.880
4350,-0.240,-0.660
4351,-0.180,-0.490
4352,-0.050,-0.170
4353,-0.040,0.010
4354,-0.030,0.210
4355,0.000,0.120
4356,-0.070,0.170
4357,-0.090,0.200
4358,0.020,0.260
4359,-0.070,0.280
4360,-0.080,0.250
4361,-0.120,0.300
4362,-0.110,0.370
4363,-0.140,0.340
4364,-0.210,0.410
4365,-0.250,0.400
4366,-0.220,0.510
4367,-0.290,0.490
4368,-0.270,0.580
4369,-0.340,0.600
4370,-0.510,0.650
4371,-0.490,0.700
4372,-0.410,0.730
4373,-0.600,0.770
4374,-0.630,0.810
4375,-0.730,0.820
4376,-0.740,0.880
4377,-0.760,0.870
4378,-0.770,0.830
4379,-0.640,0.830
4380,-0.560,0.800
4381,-0.410,0.710
4382,-0.310,0.610
4383,-0.060,0.530
4384,0.050,0.450
4385,0.220,0.320
4386,0.180,0.230
4387,0.260,0.160
4388,0.270,0.100
4389,0.260,0.060
4390,0.300,0.060
4391,0.260,0.020
4392,0.270,0.060
4393,0.250,0.020
4394,0.250,0.000
4395,0.250,0.000
4396,0.260,0.040
4397,0.190,0.000
4398,0.190,-0.030
4399,0.190,0.020
4400,0.180,0.070
4401,0.240,0.040
4402,0.140,0.020
4403,0.180,0.040
4404,0.220,0.040
4405,0.120,0.060
4406,0.170,0.000
4407,0.270,0.040
4408,0.220,0.010
4409,0.160,0.050
4410,0.100,0.060
4411,0.280,0.050
4412,0.190,0.040
4413,0.200,0.050
4414,0.170,0.190
4415,0.200,0.130
4416,0.200,0.160
4417,0.260,0.080
4418,0.330,0.050
4419,0.240,0.030
4420,0.310,0.000
4421,0.320,-0.010
4422,0.320,-0.050
4423,0.360,0.040
4424,0.260,0.000
4425,0.170,0.000
4426,0.130,0.060
4427,0.230,0.070
4428,0.200,0.060
4429,0.130,0.000
4430,0.240,0.080
4431,0.200,0.010
4432,0.210,0.090
4433,0.230,0.020
4434,0.210,0.010
4435,0.200,0.040
4436,0.090,-0.010
4437,0.260,0.030
4438,0.110,0.020
4439,0.210,0.040
4440,0.200,-0.010
4441,0.170,0.020
4442,0.280,-0.020
4443,0.250,-0.020
4444,0.220,0.020
4445,0.290,0.030
4446,0.630,0.180
4447,1.410,-0.140
4448,2.470,-1.620
4449,2.890,-2.850
4450,2.790,-3.380
4451,1.770,-3.260
4452,1.440,-2.570
4453,0.620,-1.860
4454,-0.170,-1.420
4455,-0.390,-0.970
4456,-0.400,-0.610
4457,-0.340,-0.430
4458,-0.190,-0.140
4459,-0.150,0.180
4460,-0.110,0.150
4461,-0.060,0.310
4462,-0.110,0.280
4463,-0.250,0.270
4464,-0.040,0.200
4465,-0.110,0.570
4466,-0.140,0.280
4467,-0.140,0.340
4468,-0.170,0.380
4469,-0.210,0.360
4470,-0.190,0.460
4471,-0.230,0.490
4472,-0.260,0.510
4473,-0.300,0.570
4474,-0.360,0.580
4475,-0.440,0.630
4476,-0.480,0.280
4477,-0.480,0.960
4478,-0.540,0.920
4479,-0.510,0.890
4480,-0.600,0.670
4481,-0.700,0.860
4482,-0.730,0.880
4483,-0.710,0.900
4484,-0.750,0.910
4485,-0.710,0.840
4486,-0.540,0.810
4487,-0.450,0.530
4488,-0.190,0.780
4489,-0.110,0.920
4490,0.070,0.150
4491,0.210,0.430
4492,0.120,0.340
4493,0.230,0.230
4494,0.280,0.110
4495,0.220,0.170
4496,0.270,0.120
4497,0.180,0.090
4498,0.200,-0.090
4499,0.190,0.150
4500,0.170,0.190
4501,0.200,0.100
4502,0.160,0.050
4503,0.120,0.090
4504,0.110,0.060
4505,0.130,0.070
4506,0.070,0.170
4507,0.100,0.080
4508,0.040,0.130
4509,0.030,0.080
4510,0.090,0.120
4511,0.060,0.130
4512,0.090,0.070
4513,0.060,0.100
4514,0.090,0.170
4515,0.130,0.120
4516,0.180,0.090
4517,0.130,0.040
4518,0.100,0.050
4519,0.150,0.090
4520,-0.010,0.240
4521,0.160,0.290
4522,0.200,0.250
4523,0.170,0.240
4524,0.310,0.130
4525,0.220,0.110
4526,0.260,0.000
4527,0.200,0.010
4528,0.200,-0.010
4529,0.250,-0.010
4530,0.170,0.040
4531,0.250,0.040
4532,0.120,0.090
4533,0.150,0.050
4534,0.180,0.040
4535,0.130,0.040
4536,0.080,0.000
4537,0.140,0.010
4538,0.070,0.060
4539,0.190,0.010
4540,0.130,0.030
4541,0.100,0.000
4542,0.090,0.010
4543,0.130,0.050
4544,0.160,-0.010
4545,0.130,0.030
4546,0.100,0.010
4547,0.110,0.040
4548,0.090,-0.010
4549,0.090,0.050
4550,0.120,0.040
4551,0.350,0.150
4552,0.720,0.170
4553,1.670,-0.540
4554,2.380,-2.350
4555,2.730,-3.240
4556,2.120,-3.710
4557,1.080,-3.390
4558,0.780,-2.550
4559,0.110,-1.990
4560,-0.480,-1.400
4561,-0.470,-0.970
4562,-0.460,-0.620
4563,-0.410,-0.380
4564,-0.210,-0.100
4565,-0.200,0.100
4566,-0.090,0.300
4567,-0.090,0.320
4568,-0.110,0.340
4569,-0.080,0.360
4570,-0.120,0.400
4571,-0.140,0.390
4572,-0.110,0.440
4573,-0.120,0.440
4574,-0.250,0.470
4575,-0.150,0.490
4576,-0.200,0.510
4577,-0.260,0.520
4578,-0.220,0.560
4579,-0.380,0.600
4580,-0.360,0.640
4581,-0.360,0.680
4582,-0.450,0.730
4583,-0.610,0.790
4584,-0.610,0.820
4585,-0.650,0.880
4586,-0.790,0.920
4587,-0.860,1.000
4588,-0.770,0.970
4589,-0.860,1.000
4590,-0.810,0.980
4591,-0.830,0.930
4592,-0.680,0.880
4593,-0.520,0.810
4594,-0.350,0.690
4595,-0.260,0.610
4596,-0.120,0.510
4597,-0.020,0.430
4598,0.010,0.320
4599,0.060,0.240
4600,-0.010,0.200
4601,-0.100,0.150
4602,0.070,0.150
4603,0.060,0.130
4604,0.010,0.110
4605,0.080,0.120
4606,-0.030,0.090
4607,-0.040,0.140
4608,-0.040,0.100
4609,-0.060,0.110
4610,0.020,0.070
4611,-0.040,0.120
4612,-0.040,0.080
4613,-0.130,0.110
4614,-0.040,0.110
4615,-0.030,0.090
4616,-0.100,0.100
4617,-0.050,0.110
4618,0.000,0.100
4619,-0.020,0.100
4620,-0.070,0.080
4621,-0.010,0.080
4622,-0.090,0.070
4623,-0.040,0.090
4624,0.040,0.080
4625,-0.060,0.080
4626,-0.120,0.160
4627,-0.010,0.260
4628,-0.080,0.180
4629,0.020,0.230
4630,0.000,0.190
4631,0.040,0.050
4632,0.030,0.060
4633,0.090,-0.030
4634,0.050,0.000
4635,0.100,0.010
4636,0.020,-0.030
4637,-0.060,-0.070
4638,-0.040,0.010
4639,0.080,0.000
4640,0.030,-0.020
4641,-0.040,-0.050
4642,-0.040,0.000
4643,-0.080,-0.030
4644,-0.020,0.000
4645,0.000,-0.040
4646,0.030,-0.030
4647,-0.100,-0.030
4648,-0.080,-0.030
4649,-0.030,-0.060
4650,-0.010,-0.020
4651,-0.010,-0.030
4652,-0.110,-0.040
4653,-0.050,-0.070
4654,-0.070,-0.040
4655,-0.080,0.000
4656,0.000,-0.020
4657,0.090,0.000
4658,0.340,0.060
4659,0.780,0.050
4660,1.790,-0.760
4661,2.460,-2.610
4662,2.160,-3.390
4663,1.260,-3.660
4664,0.720,-2.950
4665,0.150,-2.140
4666,-0.400,-1.620
4667,-0.660,-1.150
4668,-0.760,-0.760
4669,-0.600,-0.520
4670,-0.470,-0.280
4671,-0.380,-0.050
4672,-0.260,0.130
4673,-0.240,0.200
4674,-0.310,0.210
4675,-0.310,0.230
4676,-0.400,0.260
4677,-0.380,0.250
4678,-0.260,0.270
4679,-0.470,0.280
4680,-0.280,0.310
4681,-0.370,0.310
4682,-0.430,0.330
4683,-0.440,0.340
4684,-0.460,0.380
4685,-0.420,0.380
4686,-0.480,0.440
4687,-0.520,0.470
4688,-0.520,0.470
4689,-0.650,0.530
4690,-0.630,0.590
4691,-0.790,0.580
4692,-0.730,0.680
4693,-0.750,0.670
4694,-0.950,0.670
4695,-0.870,0.750
4696,-0.860,0.740
4697,-0.820,0.710
4698,-0.780,0.720
4699,-0.680,0.680
4700,-0.540,0.620
4701,-0.370,0.530
4702,-0.200,0.420
4703,-0.170,0.300
4704,-0.110,0.220
4705,-0.060,0.170
4706,-0.020,0.050
4707,-0.090,0.010
4708,-0.030,0.040
4709,0.010,0.010
4710,-0.120,-0.020
4711,-0.020,0.000
4712,-0.120,-0.020
4713,-0.100,-0.020
4714,-0.180,-0.010
4715,-0.130,0.010
4716,-0.160,0.010
4717,-0.120,0.000
4718,-0.160,-0.010
4719,-0.100,-0.030
4720,-0.130,0.000
4721,-0.120,0.020
4722,-0.150,0.010
4723,-0.100,0.020
4724,-0.050,-0.030
4725,-0.100,-0.020
4726,-0.030,-0.010
4727,-0.050,-0.010
4728,0.010,-0.020
4729,-0.070,-0.030
4730,-0.050,-0.030
4731,-0.060,-0.040
4732,-0.010,-0.050
4733,-0.070,-0.050
4734,-0.120,0.020
4735,-0.060,0.070
4736,-0.050,0.080
4737,-0.010,0.080
4738,0.010,0.000
4739,-0.060,-0.050
4740,0.020,-0.060
4741,0.010,-0.060
4742,0.000,-0.100
4743,0.060,-0.110
4744,-0.030,-0.100
4745,-0.030,-0.080
4746,-0.030,-0.060
4747,-0.080,-0.050
4748,-0.110,-0.070
4749,-0.110,-0.090
4750,-0.120,-0.100
4751,-0.070,-0.090
4752,-0.090,-0.090
4753,-0.200,-0.100
4754,-0.050,-0.070
4755,-0.120,-0.090
4756,-0.130,-0.050
4757,-0.090,-0.090
4758,-0.180,-0.100
4759,-0.170,-0.070
4760,-0.130,-0.100
4761,-0.150,-0.100
4762,-0.080,-0.140
4763,-0.090,-0.080
4764,-0.120,-0.070
4765,-0.010,-0.060
4766,0.270,0.000
4767,0.480,0.050
4768,1.580,-0.500
4769,2.420,-2.170
4770,2.430,-3.030
4771,1.720,-3.470
4772,1.280,-2.820
4773,0.730,-2.050
4774,-0.160,-1.670
4775,-0.680,-1.230
4776,-0.700,-0.820
4777,-0.700,-0.620
4778,-0.480,-0.440
4779,-0.460,-0.140
4780,-0.370,0.020
4781,-0.340,0.100
4782,-0.360,0.110
4783,-0.340,0.140
4784,-0.330,0.170
4785,-0.410,0.160
4786,-0.430,0.140
4787,-0.410,0.230
4788,-0.440,0.220
4789,-0.420,0.250
4790,-0.430,0.250
4791,-0.470,0.280
4792,-0.450,0.290
4793,-0.530,0.320
4794,-0.530,0.370
4795,-0.640,0.430
4796,-0.620,0.450
4797,-0.710,0.470
4798,-0.720,0.520
4799,-0.790,0.520
4800,-0.880,0.710
4801,-0.860,0.700
4802,-0.870,0.650
4803,-0.980,0.710
4804,-1.000,0.730
4805,-0.950,0.770
4806,-0.920,0.670
4807,-0.810,0.730
4808,-0.570,0.610
4809,-0.430,0.550
4810,-0.260,0.430
4811,-0.160,0.350
4812,-0.050,0.320
4813,-0.030,0.150
4814,-0.040,0.120
4815,-0.050,0.130
4816,-0.040,-0.020
4817,0.000,0.020
4818,0.040,0.040
4819,-0.030,0.050
4820,0.050,-0.020
4821,-0.050,0.040
4822,-0.050,-0.060
4823,-0.060,-0.070
4824,-0.130,0.040
4825,-0.020,-0.040
4826,-0.090,-0.040
4827,-0.120,0.020
4828,-0.130,0.070
4829,-0.050,0.050
4830,-0.080,-0.020
4831,-0.100,0.030
4832,-0.110,-0.010
4833,-0.120,0.050
4834,-0.070,0.020
4835,-0.100,0.010
4836,-0.120,-0.020
4837,0.000,-0.010
4838,-0.010,-0.010
4839,-0.040,-0.070
4840,-0.090,0.140
4841,-0.080,0.090
4842,-0.020,0.030
4843,-0.040,0.150
4844,0.080,0.020
4845,-0.050,0.000
4846,0.030,-0.060
4847,0.070,-0.050
4848,0.070,-0.020
4849,0.140,-0.150
4850,0.070,-0.080
4851,0.040,-0.170
4852,0.090,-0.030
4853,0.050,-0.040
4854,0.070,-0.090
4855,0.060,-0.100
4856,0.050,-0.040
4857,0.060,-0.060
4858,-0.010,-0.080
4859,0.000,-0.030
4860,0.020,-0.010
4861,0.100,-0.100
4862,-0.010,-0.070
4863,0.020,-0.020
4864,0.060,0.040
4865,0.040,0.000
4866,0.030,-0.030
4867,0.030,-0.030
4868,0.050,-0.050
4869,0.030,-0.010
4870,0.020,-0.080
4871,0.170,-0.040
4872,0.330,0.060
4873,0.630,0.110
4874,1.710,-0.340
4875,2.680,-2.120
4876,2.870,-2.950
4877,2.320,-3.410
4878,1.430,-3.120
4879,1.010,-2.080
4880,0.350,-1.730
4881,-0.480,-1.280
4882,-0.490,-0.790
4883,-0.440,-0.580
4884,-0.330,-0.400
4885,-0.190,-0.100
4886,-0.130,0.160
4887,-0.260,0.140
4888,-0.230,0.210
4889,-0.230,0.260
4890,-0.180,0.300
4891,-0.270,0.280
4892,-0.280,0.260
4893,-0.270,0.320
4894,-0.330,0.270
4895,-0.300,0.360
4896,-0.350,0.360
4897,-0.420,0.320
4898,-0.450,0.410
4899,-0.490,0.430
4900,-0.550,0.470
4901,-0.500,0.480
4902,-0.580,0.530
4903,-0.690,0.570
4904,-0.600,0.630
4905,-0.710,0.660
4906,-0.800,0.670
4907,-0.870,0.690
4908,-0.910,0.780
4909,-0.940,0.750
4910,-0.870,0.760
4911,-0.810,0.840
4912,-0.770,0.720
4913,-0.640,0.710
4914,-0.440,0.640
4915,-0.370,0.590
4916,-0.170,0.470
4917,-0.020,0.360
4918,0.050,0.320
4919,0.130,0.130
4920,0.050,0.140
4921,0.030,0.140
4922,0.150,0.090
4923,0.210,0.070
4924,0.070,0.010
4925,0.100,0.080
4926,0.100,0.030
4927,0.110,0.030
4928,0.020,0.010
4929,0.090,0.030
4930,0.050,0.050
4931,0.020,0.080
4932,0.010,0.040
4933,0.080,0.060
4934,0.040,0.050
4935,0.010,0.080
4936,0.040,0.040
4937,0.080,0.060
4938,0.100,0.010
4939,0.040,0.050
4940,0.120,0.110
4941,0.080,0.080
4942,0.060,0.030
4943,0.060,0.040
4944,0.020,0.020
4945,0.040,0.140
4946,0.020,0.210
4947,0.070,0.180
4948,0.040,0.160
4949,0.110,0.180
4950,0.120,0.060
4951,0.050,0.090
4952,0.070,0.030
4953,0.100,0.000
4954,0.070,-0.040
4955,0.130,0.010
4956,0.040,-0.040
4957,0.060,0.010
4958,0.060,0.030
4959,0.100,0.000
4960,0.020,-0.030
4961,0.100,-0.030
4962,0.030,-0.040
4963,-0.010,-0.060
4964,-0.030,-0.030
4965,-0.020,0.000
4966,0.060,-0.080
4967,0.020,-0.070
4968,0.010,0.010
4969,-0.010,-0.040
4970,0.070,-0.020
4971,0.040,-0.090
4972,-0.010,-0.050
4973,0.020,-0.020
4974,0.080,-0.020
4975,0.030,-0.050
4976,0.100,0.010
4977,0.250,0.050
4978,0.580,0.150
4979,1.560,-0.220
4980,2.560,-1.950
4981,2.880,-2.940
4982,2.490,-3.460
4983,1.480,-3.240
4984,1.150,-2.520
4985,0.450,-1.910
4986,-0.480,-1.350
4987,-0.600,-0.940
4988,-0.570,-0.640
4989,-0.440,-0.430
4990,-0.340,-0.200
4991,-0.320,0.120
4992,-0.220,0.300
4993,-0.230,0.180
4994,-0.190,0.290
4995,-0.230,0.250
4996,-0.300,0.320
4997,-0.230,0.370
4998,-0.260,0.350
4999,-0.390,0.390
5000,-0.380,0.380
5001,-0.330,0.480
5002,-0.430,0.410
5003,-0.350,0.510
5004,-0.420,0.470
5005,-0.500,0.590
5006,-0.510,0.580
5007,-0.550,0.580
5008,-0.670,0.600
5009,-0.710,0.720
5010,-0.850,0.730
5011,-0.830,0.760
5012,-0.980,0.880
5013,-0.960,0.890
5014,-1.070,0.900
5015,-0.990,1.040
5016,-0.920,0.860
5017,-0.990,0.890
5018,-0.800,0.890
5019,-0.650,0.760
5020,-0.470,0.700
5021,-0.330,0.610
5022,-0.200,0.450
5023,-0.070,0.450
5024,-0.050,0.270
5025,0.120,0.280
5026,0.010,0.100
5027,0.030,0.100
5028,0.090,-0.020
5029,0.010,0.110
5030,0.000,0.040
5031,0.040,0.080
5032,0.040,0.030
5033,-0.020,0.090
5034,-0.040,0.020
5035,-0.090,0.040
5036,0.000,0.040
5037,-0.080,-0.010
5038,-0.080,0.090
5039,-0.120,0.050
5040,-0.020,0.040
5041,-0.100,0.040
5042,-0.070,0.100
5043,-0.030,-0.010
5044,-0.070,0.090
5045,-0.070,0.110
5046,0.000,0.040
5047,0.040,0.040
5048,0.000,0.100
5049,0.070,0.060
5050,0.040,0.120
5051,-0.010,0.230
5052,0.050,0.250
5053,0.000,0.230
5054,-0.010,0.260
5055,0.110,0.190
5056,0.100,0.030
5057,0.150,0.110
5058,0.140,0.020
5059,0.090,0.030
5060,0.080,0.000
5061,0.120,0.050
5062,0.070,-0.030
5063,-0.010,0.070
5064,0.030,0.020
5065,-0.010,0.000
5066,-0.060,0.030
5067,-0.050,0.030
5068,-0.030,0.030
5069,-0.060,-0.060
5070,0.010,0.080
5071,0.030,-0.070
5072,0.030,-0.010
5073,-0.070,0.080
5074,-0.030,0.040
5075,0.000,0.060
5076,-0.030,0.000
5077,0.020,-0.030
5078,0.010,0.080
5079,0.080,0.090
5080,0.010,0.050
5081,0.000,0.030
5082,0.140,0.100
5083,0.540,0.180
5084,1.040,-0.020
5085,2.150,-1.160
5086,2.730,-2.940
5087,2.560,-3.610
5088,1.700,-3.580
5089,1.050,-3.100
5090,0.410,-2.280
5091,-0.190,-1.700
5092,-0.670,-1.310
5093,-0.660,-0.730
5094,-0.580,-0.480
5095,-0.430,-0.290
5096,-0.270,0.020
5097,-0.260,0.140
5098,-0.220,0.290
5099,-0.320,0.270
5100,-0.290,0.310
5101,-0.260,0.350
5102,-0.310,0.290
5103,-0.360,0.330
5104,-0.340,0.340
5105,-0.340,0.450
5106,-0.400,0.450
5107,-0.310,0.440
5108,-0.360,0.430
5109,-0.390,0.530
5110,-0.480,0.540
5111,-0.530,0.590
5112,-0.540,0.630
5113,-0.580,0.650
5114,-0.660,0.730
5115,-0.680,0.820
5116,-0.800,0.860
5117,-0.840,0.880
5118,-0.910,1.000
5119,-1.020,0.960
5120,-1.130,0.980
5121,-1.020,1.070
5122,-0.870,1.010
5123,-0.800,0.930
5124,-0.720,0.850
5125,-0.490,0.850
5126,-0.370,0.700
5127,-0.210,0.570
5128,-0.050,0.490
5129,0.040,0.290
5130,0.020,0.250
5131,0.040,0.190
5132,0.040,0.160
5133,-0.010,0.160
5134,0.080,0.150
5135,-0.040,0.140
5136,0.090,0.110
5137,0.010,0.080
5138,-0.060,0.100
5139,-0.060,0.160
5140,0.020,0.070
5141,-0.010,0.100
5142,-0.020,0.070
5143,-0.010,0.130
5144,0.010,0.090
5145,-0.050,0.090
5146,-0.060,0.200
5147,-0.020,0.110
5148,-0.090,0.090
5149,-0.070,0.170
5150,-0.160,0.130
5151,0.000,0.120
5152,0.110,0.140
5153,-0.020,0.100
5154,0.130,0.130
5155,0.090,0.070
5156,0.030,0.150
5157,0.040,0.180
5158,0.100,0.290
5159,0.040,0.210
5160,0.170,0.210
5161,0.170,0.170
5162,0.210,0.080
5163,0.230,0.050
5164,0.240,0.000
5165,0.130,-0.060
5166,0.140,0.020
5167,0.130,-0.010
5168,0.160,0.010
5169,0.060,0.040
5170,0.090,-0.020
5171,0.030,0.050
5172,0.110,0.080
5173,0.200,-0.100
5174,0.020,-0.030
5175,0.080,-0.030
5176,0.070,0.030
5177,0.160,-0.070
5178,0.060,-0.060
5179,0.160,0.020
5180,0.230,-0.020
5181,0.170,-0.050
5182,0.130,-0.080
5183,0.190,0.110
5184,0.180,-0.020
5185,0.210,0.010
5186,0.200,-0.010
5187,0.300,0.080
5188,0.560,0.040
5189,0.910,0.210
5190,1.920,-0.590
5191,2.770,-2.530
5192,2.840,-3.610
5193,1.940,-4.220
5194,1.070,-3.700
5195,0.600,-2.770
5196,0.080,-2.210
5197,-0.300,-1.630
5198,-0.390,-1.050
5199,-0.260,-0.670
5200,-0.160,-0.480
5201,-0.070,-0.080
5202,-0.040,0.080
5203,0.090,0.290
5204,0.020,0.270
5205,0.020,0.360
5206,0.080,0.240
5207,0.070,0.430
5208,-0.020,0.370
5209,0.010,0.450
5210,0.050,0.440
5211,-0.020,0.470
5212,0.010,0.490
5213,-0.050,0.470
5214,-0.090,0.570
5215,-0.090,0.630
5216,-0.110,0.650
5217,-0.160,0.680
5218,-0.220,0.730
5219,-0.230,0.890
5220,-0.370,0.850
5221,-0.420,0.930
5222,-0.490,0.990
5223,-0.540,0.990
5224,-0.510,1.060
5225,-0.660,1.110
5226,-0.610,1.090
5227,-0.520,1.150
5228,-0.480,1.010
5229,-0.400,0.990
5230,-0.280,0.870
5231,-0.100,0.850
5232,0.080,0.660
5233,0.180,0.600
5234,0.350,0.430
5235,0.330,0.400
5236,0.350,0.260
5237,0.340,0.230
5238,0.280,0.190
5239,0.300,0.170
5240,0.330,0.170
5241,0.300,0.170
5242,0.310,0.130
5243,0.290,0.140
5244,0.270,0.170
5245,0.280,0.140
5246,0.300,0.130
5247,0.300,0.130
5248,0.260,0.170
5249,0.240,0.140
5250,0.290,0.190
5251,0.310,0.150
5252,0.310,0.130
5253,0.290,0.100
5254,0.310,0.140
5255,0.320,0.160
5256,0.320,0.120
5257,0.310,0.070
5258,0.320,0.120
5259,0.380,0.070
5260,0.370,0.080
5261,0.310,0.090
5262,0.300,0.130
5263,0.340,0.190
5264,0.320,0.240
5265,0.240,0.210
5266,0.330,0.280
5267,0.400,0.170
5268,0.450,0.040
5269,0.530,0.000
5270,0.460,0.040
5271,0.410,0.000
5272,0.490,0.030
5273,0.440,0.000
5274,0.370,-0.030
5275,0.320,0.110
5276,0.310,0.030
5277,0.380,0.000
5278,0.390,-0.010
5279,0.380,0.040
5280,0.440,0.010
5281,0.400,0.050
5282,0.280,0.010
5283,0.430,0.000
5284,0.350,0.070
5285,0.280,0.000
5286,0.310,0.030
5287,0.420,0.010
5288,0.440,0.040
5289,0.400,-0.030
5290,0.350,0.010
5291,0.340,0.040
5292,0.390,-0.040
5293,0.400,0.040
5294,0.620,0.060
5295,0.980,0.160
5296,2.150,-0.590
5297,2.930,-2.910
5298,2.640,-3.830
5299,1.780,-4.480
5300,0.960,-3.920
5301,0.410,-2.850
5302,0.070,-2.320
5303,-0.340,-1.600
5304,-0.350,-1.060
5305,-0.320,-0.620
5306,-0.210,-0.350
5307,0.020,-0.120
5308,0.000,0.170
5309,0.070,0.290
5310,0.040,0.390
5311,0.110,0.330
5312,0.030,0.370
5313,-0.090,0.360
5314,0.040,0.400
5315,0.000,0.400
5316,-0.040,0.410
5317,-0.020,0.460
5318,-0.010,0.450
5319,-0.170,0.470
5320,-0.050,0.610
5321,-0.200,0.460
5322,-0.330,0.630
5323,-0.270,0.600
5324,-0.270,0.690
5325,-0.360,0.670
5326,-0.370,0.790
5327,-0.550,0.860
5328,-0.600,0.850
5329,-0.530,0.930
5330,-0.790,1.020
5331,-0.790,0.970
5332,-0.710,1.050
5333,-0.680,0.920
5334,-0.640,0.890
5335,-0.550,0.980
5336,-0.410,0.830
5337,-0.280,0.780
5338,-0.100,0.530
5339,0.070,0.530
5340,0.010,0.330
5341,-0.020,0.180
5342,0.140,0.250
5343,-0.020,0.140
5344,0.080,0.060
5345,-0.050,0.080
5346,-0.050,0.080
5347,0.100,0.080
5348,-0.080,0.070
5349,-0.050,0.020
5350,-0.040,0.080
5351,-0.020,0.020
5352,-0.030,0.180
5353,-0.050,-0.030
5354,-0.020,0.040
5355,-0.100,0.120
5356,-0.030,0.130
5357,0.020,0.030
5358,-0.090,0.050
5359,-0.090,0.050
5360,-0.030,0.090
5361,-0.090,0.030
5362,0.060,0.050
5363,-0.040,0.020
5364,0.020,0.030
5365,0.050,0.110
5366,0.060,0.000
5367,-0.080,-0.020
5368,-0.110,0.110
5369,0.090,0.020
5370,-0.060,0.120
5371,-0.050,0.100
5372,-0.030,0.190
5373,-0.080,0.160
5374,0.110,0.070
5375,0.060,-0.050
5376,0.000,0.000
5377,0.120,-0.040
5378,0.040,-0.100
5379,-0.020,-0.030
5380,-0.010,-0.070
5381,-0.010,-0.040
5382,0.060,-0.090
5383,-0.020,-0.070
5384,-0.070,-0.060
5385,-0.080,-0.060
5386,-0.020,-0.070
5387,0.020,-0.100
5388,-0.100,-0.080
5389,-0.120,-0.100
5390,-0.050,-0.060
5391,-0.110,0.000
5392,0.000,-0.080
5393,0.000,-0.090
5394,-0.060,-0.100
5395,-0.050,-0.070
5396,-0.050,-0.080
5397,-0.120,-0.080
5398,0.020,-0.020
5399,0.040,-0.110
5400,0.070,-0.060
5401,0.320,-0.030
5402,0.670,0.170
5403,1.490,-0.310
5404,2.330,-1.860
5405,2.350,-3.040
5406,1.640,-3.530
5407,1.180,-3.010
5408,0.700,-2.080
5409,-0.100,-1.830
5410,-0.530,-1.210
5411,-0.590,-0.840
5412,-0.530,-0.540
5413,-0.430,-0.360
5414,-0.360,-0.170
5415,-0.270,0.010
5416,-0.410,0.190
5417,-0.150,0.190
5418,-0.270,0.120
5419,-0.300,0.220
5420,-0.240,0.160
5421,-0.260,0.180
5422,-0.340,0.270
5423,-0.330,0.230
5424,-0.300,0.260
5425,-0.300,0.290
5426,-0.460,0.310
5427,-0.420,0.310
5428,-0.390,0.430
5429,-0.480,0.280
5430,-0.470,0.540
5431,-0.530,0.440
5432,-0.590,0.470
5433,-0.650,0.530
5434,-0.690,0.600
5435,-0.750,0.630
5436,-0.820,0.640
5437,-0.870,0.670
5438,-0.850,0.810
5439,-0.900,0.720
5440,-0.870,0.690
5441,-0.820,0.750
5442,-0.560,0.680
5443,-0.430,0.510
5444,-0.330,0.470
5445,-0.210,0.400
5446,-0.070,0.400
5447,-0.020,0.220
5448,-0.040,0.140
5449,-0.080,0.220
5450,-0.060,0.050
5451,-0.060,0.030
5452,0.000,0.010
5453,-0.070,0.060
5454,-0.030,-0.020
5455,0.010,-0.030
5456,-0.030,0.130
5457,-0.080,0.090
5458,-0.020,0.040
5459,-0.010,0.010
5460,-0.070,0.040
5461,-0.020,0.020
5462,-0.050,0.060
5463,-0.030,0.080
5464,-0.010,-0.050
5465,0.030,0.040
5466,0.000,0.000
5467,0.030,-0.010
5468,0.000,0.010
5469,0.000,0.070
5470,0.000,0.040
5471,0.000,-0.090
5472,0.000,0.030
5473,0.010,0.000
5474,0.010,0.090
5475,-0.040,0.030
5476,-0.010,0.090
5477,0.050,0.070
5478,0.000,0.070
5479,0.000,0.000
5480,0.080,-0.020
5481,0.100,-0.080
5482,0.050,-0.070
5483,0.060,-0.020
5484,0.020,0.010
5485,0.070,-0.060
5486,0.050,-0.060
5487,-0.030,-0.050
5488,-0.010,-0.090
5489,-0.040,0.000
5490,-0.030,-0.030
5491,-0.020,-0.080
5492,0.010,-0.080
5493,0.030,-0.040
5494,-0.070,-0.020
5495,-0.040,-0.020
5496,-0.060,-0.060
5497,-0.020,-0.060
5498,-0.070,-0.050
5499,-0.020,-0.020
5500,-0.040,-0.020
5501,0.030,-0.100
5502,0.000,-0.070
5503,0.020,0.060
5504,0.050,-0.050
5505,0.040,-0.030
5506,0.270,0.030
5507,0.580,0.170
5508,1.610,-0.240
5509,2.630,-1.740
5510,2.760,-2.940
5511,2.170,-3.400
5512,1.530,-2.960
5513,1.020,-1.990
5514,0.180,-1.590
5515,-0.510,-1.170
5516,-0.610,-0.790
5517,-0.510,-0.510
5518,-0.420,-0.380
5519,-0.290,-0.070
5520,-0.240,0.090
5521,-0.260,0.210
5522,-0.230,0.200
5523,-0.360,0.170
5524,-0.380,0.280
5525,-0.370,0.260
5526,-0.310,0.240
5527,-0.410,0.310
5528,-0.300,0.260
5529,-0.370,0.310
5530,-0.410,0.320
5531,-0.430,0.290
5532,-0.450,0.400
5533,-0.570,0.440
5534,-0.570,0.430
5535,-0.590,0.480
5536,-0.590,0.510
5537,-0.670,0.480
5538,-0.770,0.580
5539,-0.810,0.650
5540,-0.830,0.690
5541,-0.930,0.730
5542,-0.980,0.670
5543,-1.000,0.790
5544,-0.990,0.760
5545,-0.950,0.790
5546,-0.820,0.700
5547,-0.720,0.710
5548,-0.520,0.660
5549,-0.380,0.590
5550,-0.240,0.470
5551,-0.150,0.350
5552,-0.140,0.280
5553,-0.110,0.240
5554,-0.060,0.200
5555,0.000,0.110
5556,-0.050,0.040
5557,-0.030,0.150
5558,0.020,0.060
5559,-0.020,0.080
5560,-0.040,0.050
5561,-0.050,0.080
5562,-0.080,0.050
5563,-0.100,0.030
5564,-0.090,0.070
5565,-0.090,0.080
5566,-0.070,0.100
5567,-0.080,0.040
5568,-0.100,0.070
5569,-0.120,0.000
5570,-0.120,0.090
5571,-0.110,0.010
5572,-0.110,0.110
5573,-0.120,-0.010
5574,-0.140,0.020
5575,-0.110,0.070
5576,-0.130,0.060
5577,-0.170,0.140
5578,-0.180,0.150
5579,-0.180,0.220
5580,-0.220,0.200
5581,-0.150,0.170
5582,-0.070,0.090
5583,-0.150,-0.010
5584,-0.040,0.100
5585,0.000,0.000
5586,-0.060,0.010
5587,-0.100,-0.030
5588,-0.120,-0.050
5589,-0.090,-0.060
5590,-0.160,0.010
5591,-0.110,-0.020
5592,-0.190,-0.050
5593,-0.160,-0.010
5594,-0.100,-0.060
5595,-0.160,-0.010
5596,-0.130,-0.070
5597,-0.160,-0.050
5598,-0.190,-0.040
5599,-0.190,-0.030
5600,-0.130,0.050
5601,-0.180,-0.020
5602,-0.170,-0.070
5603,-0.170,0.070
5604,-0.170,0.050
5605,-0.120,0.050
5606,-0.080,-0.010
5607,-0.140,-0.010
5608,-0.080,0.070
5609,0.090,0.090
5610,0.360,0.180
5611,1.290,-0.090
5612,2.320,-1.580
5613,2.800,-2.710
5614,2.520,-3.310
5615,1.460,-3.050
5616,1.160,-2.340
5617,0.410,-1.820
5618,-0.610,-1.350
5619,-0.830,-0.960
5620,-0.790,-0.580
5621,-0.710,-0.390
5622,-0.610,-0.170
5623,-0.500,0.140
5624,-0.350,0.170
5625,-0.470,0.250
5626,-0.510,0.210
5627,-0.510,0.260
5628,-0.560,0.280
5629,-0.510,0.290
5630,-0.510,0.280
5631,-0.480,0.300
5632,-0.570,0.380
5633,-0.570,0.340
5634,-0.670,0.360
5635,-0.670,0.380
5636,-0.730,0.460
5637,-0.760,0.440
5638,-0.770,0.510
5639,-0.860,0.540
5640,-0.910,0.580
5641,-0.920,0.660
5642,-0.990,0.680
5643,-1.070,0.750
5644,-1.160,0.720
5645,-1.180,0.770
5646,-1.240,0.860
5647,-1.270,0.810
5648,-1.190,0.880
5649,-1.080,0.880
5650,-0.980,0.850
5651,-0.760,0.740
5652,-0.670,0.640
5653,-0.490,0.580
5654,-0.380,0.440
5655,-0.250,0.380
5656,-0.280,0.310
5657,-0.100,0.230
5658,-0.110,0.140
5659,-0.180,0.120
5660,-0.170,0.120
5661,-0.160,0.100
5662,-0.230,0.020
5663,-0.130,0.070
5664,-0.150,0.060
5665,-0.200,0.060
5666,-0.190,0.020
5667,-0.130,0.050
5668,-0.200,0.070
5669,-0.170,0.050
5670,-0.240,0.060
5671,-0.280,-0.010
5672,-0.250,0.080
5673,-0.230,0.060
5674,-0.220,0.040
5675,-0.200,0.070
5676,-0.190,0.100
5677,-0.190,0.080
5678,-0.200,0.080
5679,-0.260,0.090
5680,-0.220,0.100
5681,-0.220,0.110
5682,-0.170,0.080
5683,-0.160,0.200
5684,-0.170,0.180
5685,-0.180,0.170
5686,-0.110,0.210
5687,-0.110,0.090
5688,-0.010,0.000
5689,-0.110,0.020
5690,-0.120,-0.060
5691,-0.020,-0.010
5692,-0.140,-0.050
5693,-0.080,-0.070
5694,-0.060,-0.070
5695,-0.150,0.020
5696,-0.080,-0.050
5697,-0.110,-0.060
5698,-0.120,-0.030
5699,-0.100,-0.020
5700,-0.090,-0.120
5701,-0.140,-0.020
5702,-0.080,-0.050
5703,-0.110,-0.010
5704,-0.130,-0.010
5705,-0.090,0.000
5706,-0.030,-0.030
5707,-0.110,-0.010
5708,-0.060,-0.050
5709,-0.090,-0.030
5710,-0.010,-0.030
5711,-0.050,-0.040
5712,-0.010,-0.050
5713,0.010,-0.010
5714,0.320,0.090
5715,0.700,0.070
5716,1.770,-0.740
5717,2.550,-2.460
5718,2.800,-3.140
5719,2.050,-3.530
5720,1.200,-3.110
5721,0.870,-2.340
5722,0.120,-1.760
5723,-0.680,-1.400
5724,-0.630,-0.850
5725,-0.570,-0.610
5726,-0.470,-0.410
5727,-0.370,-0.170
5728,-0.320,0.080
5729,-0.350,0.240
5730,-0.280,0.170
5731,-0.340,0.290
5732,-0.390,0.280
5733,-0.320,0.290
5734,-0.330,0.280
5735,-0.370,0.380
5736,-0.490,0.340
5737,-0.540,0.370
5738,-0.400,0.380
5739,-0.420,0.370
5740,-0.460,0.470
5741,-0.560,0.440
5742,-0.560,0.480
5743,-0.540,0.560
5744,-0.630,0.580
5745,-0.730,0.670
5746,-0.780,0.720
5747,-0.790,0.760
5748,-0.850,0.840
5749,-0.920,0.900
5750,-0.950,0.880
5751,-0.930,0.980
5752,-1.000,0.920
5753,-0.890,0.950
5754,-0.850,0.900
5755,-0.750,0.830
5756,-0.560,0.740
5757,-0.410,0.660
5758,-0.270,0.580
5759,-0.080,0.410
5760,-0.080,0.360
5761,-0.070,0.310
5762,0.020,0.170
5763,-0.050,0.130
5764,-0.050,0.070
5765,0.010,0.080
5766,-0.020,0.030
5767,-0.030,-0.010
5768,-0.050,0.030
5769,-0.020,0.020
5770,-0.040,0.020
5771,-0.020,-0.010
5772,-0.060,0.020
5773,-0.120,-0.030
5774,-0.080,0.020
5775,-0.150,0.060
5776,-0.010,0.030
5777,-0.100,0.050
5778,-0.030,0.060
5779,-0.070,0.050
5780,-0.020,0.010
5781,-0.060,0.060
5782,-0.060,0.060
5783,-0.010,0.030
5784,0.040,0.050
5785,-0.010,0.020
5786,-0.040,0.030
5787,-0.040,0.110
5788,0.020,0.230
5789,0.010,0.220
5790,0.010,0.140
5791,0.090,0.130
5792,0.160,0.020
5793,0.120,-0.040
5794,0.110,-0.060
5795,0.160,-0.070
5796,0.240,-0.100
5797,0.120,-0.080
5798,0.170,-0.120
5799,0.140,-0.050
5800,0.020,-0.090
5801,0.050,-0.040
5802,0.010,-0.050
5803,0.060,-0.110
5804,0.090,-0.100
5805,0.110,-0.030
5806,0.080,-0.100
5807,0.100,-0.090
5808,0.120,-0.080
5809,0.020,-0.100
5810,0.070,-0.110
5811,0.070,-0.030
5812,0.100,-0.030
5813,0.100,-0.050
5814,0.110,-0.090
5815,0.090,-0.030
5816,0.130,-0.070
5817,0.180,-0.040
5818,0.220,-0.040
5819,0.720,0.120
5820,1.230,-0.180
5821,2.240,-1.560
5822,2.600,-3.200
5823,2.320,-3.750
5824,1.320,-3.750
5825,1.000,-2.930
5826,0.290,-2.290
5827,-0.260,-1.680
5828,-0.450,-1.280
5829,-0.500,-0.810
5830,-0.400,-0.570
5831,-0.120,-0.290
5832,-0.080,0.020
5833,-0.090,0.170
5834,-0.080,0.190
5835,-0.090,0.240
5836,-0.160,0.230
5837,-0.150,0.240
5838,-0.110,0.300
5839,-0.190,0.290
5840,-0.130,0.330
5841,-0.140,0.310
5842,-0.240,0.380
5843,-0.230,0.370
5844,-0.250,0.450
5845,-0.320,0.400
5846,-0.320,0.510
5847,-0.320,0.490
5848,-0.450,0.560
5849,-0.350,0.570
5850,-0.490,0.640
5851,-0.610,0.780
5852,-0.620,0.790
5853,-0.600,0.860
5854,-0.790,0.800
5855,-0.670,0.930
5856,-0.840,0.890
5857,-0.770,0.880
5858,-0.650,0.880
5859,-0.470,0.770
5860,-0.330,0.780
5861,-0.260,0.650
5862,-0.010,0.550
5863,0.000,0.460
5864,0.110,0.350
5865,0.140,0.290
5866,0.140,0.160
5867,0.170,0.120
5868,0.170,0.060
5869,0.200,0.100
5870,0.150,0.030
5871,0.200,0.050
5872,0.170,0.040
5873,0.170,0.030
5874,0.100,-0.010
5875,0.100,0.000
5876,0.130,0.040
5877,0.100,0.010
5878,0.110,0.030
5879,0.150,0.070
5880,0.110,0.030
5881,0.150,0.040
5882,0.090,0.020
5883,0.100,0.030
5884,0.140,0.020
5885,0.160,0.040
5886,0.180,0.030
5887,0.190,0.030
5888,0.200,0.030
5889,0.170,0.030
5890,0.160,0.010
5891,0.120,0.000
5892,0.120,0.150
5893,0.060,0.150
5894,0.170,0.200
5895,0.240,0.150
5896,0.180,0.070
5897,0.300,0.010
5898,0.350,-0.050
5899,0.230,-0.090
5900,0.250,-0.060
5901,0.240,-0.050
5902,0.160,-0.080
5903,0.260,-0.110
5904,0.310,0.000
5905,0.200,-0.040
5906,0.200,-0.060
5907,0.210,-0.050
5908,0.210,-0.070
5909,0.210,-0.070
5910,0.130,-0.060
5911,0.240,-0.070
5912,0.150,-0.070
5913,0.290,-0.060
5914,0.190,-0.100
5915,0.250,-0.070
5916,0.220,-0.080
5917,0.180,-0.080
5918,0.240,-0.070
5919,0.220,-0.090
5920,0.220,-0.070
5921,0.200,-0.120
5922,0.250,-0.080
5923,0.470,0.040
5924,0.780,0.070
5925,1.800,-0.570
5926,2.540,-2.530
5927,2.540,-3.780
5928,1.800,-4.190
5929,1.090,-3.850
5930,0.690,-2.790
5931,0.120,-2.320
5932,-0.340,-1.680
5933,-0.430,-1.190
5934,-0.290,-0.740
5935,-0.230,-0.480
5936,-0.030,-0.190
5937,0.040,0.060
5938,-0.050,0.260
5939,0.010,0.200
5940,-0.030,0.250
5941,0.050,0.310
5942,-0.040,0.290
5943,0.040,0.270
5944,-0.010,0.350
5945,-0.010,0.400
5946,-0.070,0.410
5947,-0.090,0.400
5948,-0.010,0.440
5949,-0.090,0.440
5950,-0.050,0.530
5951,-0.150,0.520
5952,-0.100,0.580
5953,-0.190,0.700
5954,-0.190,0.670
5955,-0.200,0.750
5956,-0.290,0.790
5957,-0.400,0.840
5958,-0.330,0.880
5959,-0.420,0.920
5960,-0.490,1.010
5961,-0.510,0.990
5962,-0.500,1.030
5963,-0.350,0.940
5964,-0.320,0.910
5965,-0.140,0.820
5966,-0.010,0.700
5967,0.110,0.620
5968,0.110,0.460
5969,0.210,0.350
5970,0.240,0.300
5971,0.260,0.210
5972,0.210,0.140
5973,0.250,0.070
5974,0.190,0.100
5975,0.210,0.040
5976,0.240,0.080
5977,0.180,0.000
5978,0.210,0.070
5979,0.230,0.060
5980,0.110,0.050
5981,0.110,0.070
5982,0.200,0.060
5983,0.140,0.050
5984,0.140,0.050
5985,0.140,0.090
5986,0.080,0.050
5987,0.220,0.030
5988,0.160,0.080
5989,0.170,0.080
5990,0.260,0.060
5991,0.160,0.030
5992,0.150,0.060
5993,0.110,0.050
5994,0.200,0.020
5995,0.170,0.030
5996,0.150,0.080
5997,0.130,0.110
5998,0.130,0.190
5999,0.140,0.210
6000,0.150,0.210
6001,0.210,0.190
6002,0.250,0.090
6003,0.100,0.110
6004,0.190,0.050
6005,0.290,0.020
6006,0.180,-0.010
6007,0.240,0.030
6008,0.080,-0.020
6009,0.260,0.040
6010,0.120,0.040
6011,0.090,0.040
6012,0.060,-0.030
6013,0.130,0.000
6014,0.110,-0.020
6015,0.070,-0.020
6016,0.160,0.010
6017,0.090,-0.030
6018,0.190,-0.030
6019,0.040,-0.040
6020,0.100,-0.040
6021,0.080,-0.040
6022,0.020,-0.010
6023,0.080,-0.040
6024,0.070,-0.020
6025,0.040,-0.020
6026,0.040,-0.020
6027,0.130,-0.010
6028,0.300,0.000
6029,0.510,0.070
6030,0.820,0.060
6031,1.700,-0.580
6032,2.500,-2.370
6033,2.240,-3.340
6034,1.450,-3.620
6035,0.720,-2.910
6036,0.060,-2.070
6037,-0.340,-1.520
6038,-0.600,-1.060
6039,-0.730,-0.660
6040,-0.620,-0.390
6041,-0.450,-0.210
6042,-0.350,0.070
6043,-0.230,0.240
6044,-0.320,0.270
6045,-0.290,0.310
6046,-0.290,0.330
6047,-0.270,0.340
6048,-0.400,0.340
6049,-0.330,0.370
6050,-0.390,0.390
6051,-0.370,0.400
6052,-0.380,0.470
6053,-0.420,0.460
6054,-0.400,0.520
6055,-0.430,0.540
6056,-0.450,0.570
6057,-0.470,0.600
6058,-0.550,0.600
6059,-0.560,0.650
6060,-0.600,0.680
6061,-0.660,0.730
6062,-0.720,0.730
6063,-0.760,0.800
6064,-0.790,0.810
6065,-0.820,0.840
6066,-0.870,0.850
6067,-0.870,0.860
6068,-0.800,0.860
6069,-0.720,0.810
6070,-0.600,0.760
6071,-0.460,0.660
6072,-0.310,0.560
6073,-0.190,0.490
6074,-0.130,0.390
6075,-0.100,0.290
6076,-0.130,0.240
6077,-0.140,0.170
6078,-0.150,0.120
6079,-0.150,0.110
6080,-0.160,0.110
6081,-0.140,0.100
6082,-0.170,0.090
6083,-0.210,0.080
6084,-0.190,0.080
6085,-0.250,0.090
6086,-0.260,0.090
6087,-0.240,0.080
6088,-0.210,0.110
6089,-0.250,0.120
6090,-0.200,0.100
6091,-0.200,0.120
6092,-0.190,0.100
6093,-0.190,0.120
6094,-0.190,0.110
6095,-0.220,0.130
6096,-0.180,0.110
6097,-0.180,0.100
6098,-0.180,0.100
6099,-0.180,0.100
6100,-0.160,0.120
6101,-0.140,0.110
6102,-0.200,0.100
6103,-0.220,0.170
6104,-0.220,0.230
6105,-0.190,0.220
6106,-0.130,0.260
6107,-0.140,0.160
6108,-0.110,0.100
6109,-0.060,0.130
6110,-0.110,0.050
6111,-0.060,0.040
6112,-0.090,0.080
6113,-0.140,0.050
6114,-0.110,0.040
6115,-0.140,0.070
6116,-0.170,0.080
6117,-0.150,0.020
6118,-0.140,0.050
6119,-0.160,0.040
6120,-0.160,0.040
6121,-0.150,0.040
6122,-0.190,0.010
6123,-0.170,0.040
6124,-0.160,0.030
6125,-0.170,0.000
6126,-0.140,0.020
6127,-0.130,0.000
6128,-0.150,0.000
6129,-0.120,0.000
6130,-0.100,0.020
6131,-0.130,-0.020
6132,-0.130,0.000
6133,-0.060,0.030
6134,0.020,-0.010
6135,0.380,0.160
6136,0.710,0.120
6137,1.750,-0.580
6138,2.580,-2.200
6139,2.680,-2.900
6140,1.720,-3.070
6141,1.390,-2.390
6142,0.720,-1.820
6143,-0.260,-1.340
6144,-0.630,-1.000
6145,-0.650,-0.640
6146,-0.570,-0.410
6147,-0.460,-0.220
6148,-0.380,0.080
6149,-0.360,0.170
6150,-0.400,0.200
6151,-0.350,0.230
6152,-0.400,0.230
6153,-0.380,0.260
6154,-0.390,0.280
6155,-0.420,0.280
6156,-0.430,0.290
6157,-0.430,0.310
6158,-0.490,0.330
6159,-0.560,0.330
6160,-0.550,0.370
6161,-0.580,0.390
6162,-0.620,0.450
6163,-0.630,0.470
6164,-0.670,0.520
6165,-0.710,0.550
6166,-0.730,0.570
6167,-0.820,0.640
6168,-0.910,0.630
6169,-0.920,0.690
6170,-1.000,0.750
6171,-1.010,0.780
6172,-0.980,0.790
6173,-0.980,0.810
6174,-0.920,0.810
6175,-0.800,0.770
6176,-0.710,0.710
6177,-0.560,0.660
6178,-0.390,0.560
6179,-0.270,0.470
6180,-0.170,0.390
6181,-0.100,0.290
6182,-0.060,0.210
6183,-0.070,0.150
6184,-0.040,0.100
6185,-0.080,0.090
6186,-0.100,0.090
6187,-0.070,0.080
6188,-0.100,0.060
6189,-0.110,0.070
6190,-0.080,0.080
6191,-0.100,0.070
6192,-0.150,0.070
6193,-0.120,0.060
6194,-0.130,0.060
6195,-0.150,0.070
6196,-0.150,0.060
6197,-0.140,0.080
6198,-0.140,0.060
6199,-0.100,0.090
6200,-0.120,0.050
6201,-0.100,0.070
6202,-0.080,0.070
6203,-0.070,0.050
6204,-0.130,0.050
6205,-0.110,0.040
6206,-0.110,0.040
6207,-0.130,0.060
6208,-0.100,0.130
6209,-0.110,0.160
6210,-0.090,0.180
6211,-0.040,0.170
6212,-0.010,0.110
6213,-0.040,0.030
6214,-0.010,0.020
6215,-0.010,0.000
6216,-0.010,-0.030
6217,0.020,-0.040
6218,-0.010,-0.010
6219,-0.010,-0.030
6220,-0.030,0.000
6221,-0.030,0.010
6222,-0.040,-0.050
6223,-0.070,-0.030
6224,-0.060,-0.060
6225,-0.070,-0.030
6226,-0.040,-0.040
6227,-0.050,-0.040
6228,-0.070,-0.020
6229,-0.040,-0.020
6230,-0.040,-0.020
6231,-0.050,-0.020
6232,-0.050,-0.060
6233,-0.060,-0.030
6234,-0.060,-0.030
6235,-0.040,-0.050
6236,-0.010,-0.040
6237,-0.030,-0.060
6238,0.020,-0.040
6239,0.120,-0.040
6240,0.500,0.100
6241,0.790,0.020
6242,1.680,-0.860
6243,2.460,-2.500
6244,2.360,-3.210
6245,1.490,-3.350
6246,1.000,-2.790
6247,0.440,-2.070
6248,-0.180,-1.590
6249,-0.570,-1.190
6250,-0.600,-0.760
6251,-0.560,-0.520
6252,-0.450,-0.300
6253,-0.300,-0.020
6254,-0.270,0.150
6255,-0.300,0.210
6256,-0.270,0.240
6257,-0.260,0.240
6258,-0.300,0.290
6259,-0.280,0.320
6260,-0.290,0.310
6261,-0.380,0.330
6262,-0.360,0.310
6263,-0.350,0.350
6264,-0.390,0.380
6265,-0.380,0.400
6266,-0.410,0.430
6267,-0.440,0.450
6268,-0.470,0.460
6269,-0.490,0.530
6270,-0.580,0.540
6271,-0.620,0.590
6272,-0.620,0.630
6273,-0.700,0.690
6274,-0.760,0.740
6275,-0.760,0.760
6276,-0.820,0.830
6277,-0.810,0.820
6278,-0.770,0.810
6279,-0.780,0.850
6280,-0.690,0.780
6281,-0.530,0.750
6282,-0.410,0.670
6283,-0.270,0.600
6284,-0.090,0.500
6285,-0.050,0.410
6286,0.000,0.320
6287,0.040,0.250
6288,-0.030,0.170
6289,-0.010,0.160
6290,0.010,0.110
6291,-0.020,0.110
6292,-0.010,0.090
6293,0.030,0.090
6294,-0.030,0.070
6295,-0.010,0.070
6296,-0.030,0.060
6297,-0.070,0.030
6298,-0.070,0.040
6299,-0.050,0.030
6300,-0.080,0.060
6301,-0.060,0.020
6302,-0.030,0.020
6303,-0.050,0.060
6304,-0.030,0.030
6305,-0.030,0.030
6306,-0.050,0.050
6307,-0.070,0.010
6308,-0.030,0.040
6309,-0.020,0.010
6310,-0.040,0.010
6311,0.000,0.020
6312,-0.010,0.020
6313,-0.030,0.050
6314,-0.030,0.110
6315,-0.030,0.140
6316,-0.050,0.120
6317,0.020,0.150
6318,0.010,0.060
6319,0.050,0.010
6320,0.090,0.010
6321,0.060,-0.020
6322,0.060,-0.030
6323,0.090,-0.030
6324,0.050,-0.040
6325,0.030,-0.050
6326,0.010,-0.010
6327,0.010,-0.020
6328,0.000,-0.050
6329,-0.010,-0.020
6330,0.030,-0.050
6331,0.000,-0.040
6332,0.060,-0.030
6333,0.000,-0.050
6334,-0.010,-0.040
6335,0.010,-0.060
6336,-0.030,-0.040
6337,0.010,-0.020
6338,-0.010,-0.010
6339,0.040,-0.020
6340,0.010,-0.020
6341,0.030,-0.030
6342,0.050,-0.030
6343,0.010,-0.020
6344,0.060,-0.040
6345,0.190,0.000
6346,0.570,0.120
6347,0.970,-0.070
6348,1.960,-1.140
6349,2.430,-2.860
6350,2.030,-3.630
6351,1.090,-3.630
6352,0.660,-2.820
6353,0.060,-2.190
6354,-0.440,-1.590
6355,-0.600,-1.120
6356,-0.540,-0.710
6357,-0.470,-0.510
6358,-0.300,-0.250
6359,-0.200,0.070
6360,-0.150,0.180
6361,-0.220,0.180
6362,-0.210,0.210
6363,-0.230,0.220
6364,-0.250,0.240
6365,-0.240,0.280
6366,-0.270,0.300
6367,-0.260,0.320
6368,-0.270,0.330
6369,-0.310,0.370
6370,-0.320,0.360
6371,-0.350,0.430
6372,-0.410,0.410
6373,-0.440,0.460
6374,-0.450,0.490
6375,-0.460,0.540
6376,-0.530,0.560
6377,-0.520,0.600
6378,-0.590,0.670
6379,-0.640,0.700
6380,-0.670,0.710
6381,-0.750,0.750
6382,-0.760,0.780
6383,-0.730,0.800
6384,-0.670,0.800
6385,-0.660,0.770
6386,-0.500,0.760
6387,-0.400,0.700
6388,-0.290,0.620
6389,-0.160,0.510
6390,-0.050,0.400
6391,-0.010,0.320
6392,0.040,0.220
6393,0.020,0.160
6394,0.020,0.120
6395,0.060,0.090
6396,0.030,0.060
6397,0.030,0.050
6398,0.030,0.050
6399,-0.020,0.040
6400,-0.040,0.020
6401,0.000,0.040
6402,-0.060,0.030
6403,-0.060,0.040
6404,-0.020,0.040
6405,-0.030,0.050
6406,-0.050,0.050
6407,-0.030,0.080
6408,-0.050,0.050
6409,-0.050,0.050
6410,-0.040,0.050
6411,-0.010,0.070
6412,0.000,0.040
6413,-0.020,0.030
6414,0.020,0.030
6415,0.040,0.010
6416,0.020,-0.010
6417,-0.040,-0.020
6418,-0.050,0.090
6419,0.000,0.140
6420,0.050,0.160
6421,0.020,0.130
6422,0.090,0.150
6423,0.090,0.110
6424,0.130,0.010
6425,0.100,-0.010
6426,0.090,-0.030
6427,0.090,-0.070
6428,0.120,-0.040
6429,0.100,-0.060
6430,0.100,-0.060
6431,0.120,-0.040
6432,0.020,-0.030
6433,0.060,-0.060
6434,0.080,-0.050
6435,0.070,-0.070
6436,0.030,-0.090
6437,0.060,-0.090
6438,0.060,-0.100
6439,0.070,-0.100
6440,0.090,-0.120
6441,0.120,-0.070
6442,0.100,-0.100
6443,0.140,-0.090
6444,0.120,-0.100
6445,0.090,-0.110
6446,0.110,-0.110
6447,0.120,-0.100
6448,0.130,-0.100
6449,0.200,-0.090
6450,0.380,-0.080
6451,0.670,0.090
6452,1.350,-0.350
6453,2.240,-1.870
6454,2.300,-3.350
6455,1.690,-4.180
6456,0.780,-3.790
6457,0.370,-2.800
6458,-0.040,-2.330
6459,-0.450,-1.580
6460,-0.570,-1.110
6461,-0.390,-0.690
6462,-0.290,-0.500
6463,-0.200,-0.290
6464,-0.130,0.050
6465,-0.120,0.170
6466,-0.140,0.180
6467,-0.120,0.210
6468,-0.120,0.240
6469,-0.150,0.260
6470,-0.130,0.290
6471,-0.140,0.280
6472,-0.170,0.320
6473,-0.210,0.300
6474,-0.220,0.370
6475,-0.240,0.370
6476,-0.230,0.390
6477,-0.270,0.440
6478,-0.300,0.460
6479,-0.290,0.520
6480,-0.330,0.510
6481,-0.390,0.570
6482,-0.430,0.610
6483,-0.480,0.650
6484,-0.550,0.690
6485,-0.560,0.740
6486,-0.590,0.760
6487,-0.620,0.800
6488,-0.620,0.840
6489,-0.590,0.830
6490,-0.570,0.820
6491,-0.480,0.790
6492,-0.370,0.700
6493,-0.270,0.620
6494,-0.150,0.540
6495,-0.010,0.420
6496,0.020,0.320
6497,0.040,0.240
6498,0.040,0.160
6499,0.030,0.110
6500,0.010,0.070
6501,0.010,0.050
6502,-0.020,0.060
6503,-0.010,0.050
6504,0.000,0.060
6505,-0.030,0.050
6506,-0.030,0.050
6507,-0.020,0.050
6508,-0.050,0.060
6509,-0.050,0.040
6510,-0.070,0.020
6511,-0.100,0.060
6512,-0.060,0.050
6513,-0.050,0.060
6514,-0.050,0.060
6515,-0.040,0.050
6516,-0.020,0.060
6517,-0.030,0.040
6518,-0.030,0.030
6519,-0.020,0.040
6520,-0.050,0.020
6521,-0.020,0.020
6522,-0.020,0.020
6523,-0.030,0.020
6524,-0.030,0.090
6525,-0.010,0.190
6526,-0.030,0.130
6527,-0.020,0.180
6528,0.030,0.120
6529,0.020,0.030
6530,0.040,0.020
6531,0.080,-0.010
6532,0.060,-0.030
6533,0.080,-0.030
6534,0.090,0.010
6535,0.050,-0.070
6536,0.020,0.040
6537,-0.010,0.040
6538,-0.010,-0.020
6539,-0.060,-0.010
6540,-0.010,0.000
6541,-0.020,-0.020
6542,-0.040,-0.020
6543,0.000,0.010
6544,-0.020,0.010
6545,0.000,0.010
6546,0.000,-0.020
6547,-0.030,-0.010
6548,-0.020,-0.010
6549,0.010,-0.020
6550,-0.010,0.000
6551,0.010,-0.020
6552,0.040,-0.030
6553,0.030,-0.040
6554,0.000,0.010
6555,0.090,-0.060
6556,0.200,0.020
6557,0.500,0.180
6558,1.190,-0.210
6559,2.080,-1.670
6560,2.260,-3.000
6561,1.820,-3.700
6562,1.170,-3.310
6563,0.810,-2.370
6564,0.100,-1.990
6565,-0.530,-1.400
6566,-0.670,-0.970
6567,-0.560,-0.650
6568,-0.440,-0.420
6569,-0.330,-0.140
6570,-0.230,0.120
6571,-0.240,0.260
6572,-0.240,0.230
6573,-0.230,0.280
6574,-0.260,0.260
6575,-0.300,0.290
6576,-0.290,0.300
6577,-0.310,0.330
6578,-0.340,0.340
6579,-0.310,0.380
6580,-0.330,0.390
6581,-0.360,0.420
6582,-0.400,0.430
6583,-0.400,0.450
6584,-0.480,0.480
6585,-0.480,0.500
6586,-0.520,0.540
6587,-0.550,0.570
6588,-0.560,0.630
6589,-0.590,0.670
6590,-0.660,0.700
6591,-0.680,0.750
6592,-0.700,0.790
6593,-0.760,0.800
6594,-0.770,0.820
6595,-0.730,0.840
6596,-0.670,0.830
6597,-0.560,0.770
6598,-0.440,0.710
6599,-0.320,0.650
6600,-0.180,0.530
6601,-0.070,0.430
6602,-0.040,0.330
6603,-0.010,0.260
6604,0.020,0.180
6605,-0.010,0.120
6606,0.000,0.080
6607,0.040,0.050
6608,0.020,0.080
6609,0.020,0.040
6610,0.020,0.030
6611,-0.060,0.040
6612,-0.050,0.020
6613,-0.050,0.030
6614,-0.090,0.020
6615,-0.060,0.020
6616,-0.060,0.020
6617,-0.090,0.040
6618,-0.100,0.040
6619,-0.070,0.050
6620,-0.080,0.040
6621,-0.070,0.020
6622,-0.090,0.050
6623,-0.080,0.060
6624,-0.040,0.040
6625,-0.060,0.070
6626,-0.080,0.020
6627,-0.040,0.070
6628,-0.060,0.060
6629,-0.130,0.140
6630,-0.130,0.190
6631,-0.110,0.190
6632,-0.060,0.200
6633,0.040,0.110
6634,0.060,0.010
6635,0.070,0.010
6636,0.060,0.010
6637,0.070,-0.060
6638,0.040,-0.030
6639,-0.010,-0.040
6640,0.020,-0.030
6641,0.010,-0.020
6642,-0.010,0.020
6643,-0.010,-0.050
6644,-0.060,-0.030
6645,0.010,0.030
6646,-0.020,0.000
6647,-0.010,0.030
6648,-0.060,-0.110
6649,-0.060,0.050
6650,-0.030,0.010
6651,-0.020,0.020
6652,-0.010,-0.040
6653,-0.020,-0.050
6654,0.000,0.000
6655,0.010,-0.020
6656,0.040,-0.040
6657,-0.010,-0.070
6658,-0.030,-0.030
6659,0.000,-0.050
6660,0.140,-0.010
6661,0.390,0.140
6662,0.630,0.070
6663,1.530,-0.690
6664,2.210,-2.540
6665,1.940,-3.350
6666,1.240,-3.710
6667,1.000,-2.970
6668,0.350,-2.340
6669,-0.210,-1.700
6670,-0.570,-1.320
6671,-0.590,-0.750
6672,-0.460,-0.610
6673,-0.350,-0.280
6674,-0.280,0.040
6675,-0.220,0.240
6676,-0.240,0.290
6677,-0.250,0.210
6678,-0.190,0.310
6679,-0.150,0.350
6680,-0.220,0.280
6681,-0.300,0.340
6682,-0.290,0.450
6683,-0.250,0.410
6684,-0.230,0.370
6685,-0.350,0.440
6686,-0.300,0.400
6687,-0.320,0.420
6688,-0.310,0.400
6689,-0.390,0.520
6690,-0.410,0.540
6691,-0.470,0.660
6692,-0.590,0.620
6693,-0.620,0.700
6694,-0.570,0.760
6695,-0.610,0.770
6696,-0.640,0.740
6697,-0.730,0.790
6698,-0.790,0.890
6699,-0.590,0.800
6700,-0.600,0.840
6701,-0.480,0.830
6702,-0.390,0.740
6703,-0.250,0.630
6704,-0.230,0.550
6705,-0.020,0.510
6706,0.040,0.400
6707,0.050,0.290
6708,0.140,0.190
6709,0.070,0.240
6710,0.070,0.010
6711,0.040,0.120
6712,0.090,0.110
6713,0.070,-0.020
6714,0.120,0.110
6715,0.040,-0.030
6716,0.030,0.090
6717,0.060,-0.030
6718,0.000,0.050
6719,-0.010,0.040
6720,0.040,0.080
6721,0.030,-0.020
6722,-0.120,0.110
6723,0.010,0.140
6724,0.090,-0.050
6725,-0.040,0.050
6726,-0.060,0.090
6727,0.070,0.090
6728,0.030,0.060
6729,-0.120,0.100
6730,0.120,0.070
6731,-0.020,0.030
6732,-0.060,0.120
6733,0.020,0.160
6734,0.040,0.180
6735,-0.010,0.160
6736,0.150,0.230
6737,0.080,0.050
6738,0.170,0.170
6739,0.150,-0.030
6740,0.090,-0.050
6741,0.070,-0.150
6742,0.170,0.140
6743,0.210,-0.100
6744,-0.050,-0.060
6745,0.100,0.100
6746,0.190,-0.100
6747,0.100,0.040
6748,0.190,-0.140
6749,-0.030,0.050
6750,0.030,-0.040
6751,0.060,-0.040
6752,0.000,-0.060
6753,0.050,-0.050
6754,0.170,-0.080
6755,-0.010,0.020
6756,0.070,-0.200
6757,0.080,0.040
6758,0.290,-0.070
6759,-0.010,-0.070
6760,0.090,-0.060
6761,0.020,-0.090
6762,0.080,-0.030
6763,0.200,-0.050
6764,0.280,0.020
6765,0.740,0.080
6766,0.960,-0.010
6767,1.800,-1.200
6768,2.300,-2.800
6769,1.980,-3.730
6770,1.150,-3.730
6771,0.810,-2.820
6772,0.280,-2.140
6773,-0.060,-1.780
6774,-0.500,-1.230
6775,-0.370,-0.860
