'sample interval','ECG0','ECG1'
'0.0078125 sec','mV','mV'
0,-0.115,0.010
1,-0.110,0.010
2,-0.115,0.010
3,-0.115,0.010
4,-0.110,0.000
5,-0.110,0.000
6,-0.110,0.005
7,-0.115,0.010
8,-0.125,0.010
9,-0.125,0.005
10,-0.140,0.005
11,-0.145,0.000
12,-0.145,0.000
13,-0.155,0.000
14,-0.160,0.000
15,-0.180,0.000
16,-0.200,0.000
17,-0.210,-0.005
18,-0.215,-0.010
19,-0.215,-0.015
20,-0.200,-0.015
21,-0.195,-0.025
22,-0.185,-0.030
23,-0.180,-0.030
24,-0.185,-0.030
25,-0.160,-0.030
26,-0.135,-0.030
27,-0.120,-0.030
28,-0.110,-0.030
29,-0.080,-0.025
30,-0.035,-0.015
31,-0.025,-0.005
32,-0.015,0.000
33,0.000,0.000
34,0.015,0.000
35,0.025,0.000
36,0.040,0.005
37,0.050,0.010
38,0.050,0.010
39,0.050,0.010
40,0.055,0.010
41,0.045,0.015
42,0.055,0.010
43,0.055,0.010
44,0.055,0.010
45,0.035,0.010
46,0.040,0.005
47,0.040,0.005
48,0.040,0.005
49,0.030,0.010
50,0.030,0.005
51,0.035,0.000
52,0.035,0.000
53,0.020,0.000
54,0.030,0.000
55,0.040,0.000
56,0.015,0.000
57,0.005,0.000
58,0.010,0.000
59,0.020,0.000
60,0.015,0.000
61,0.010,0.000
62,0.015,0.000
63,0.020,0.000
64,0.020,0.000
65,0.020,0.000
66,0.010,0.000
67,0.000,0.000
68,0.000,0.000
69,0.005,0.000
70,0.005,0.000
71,0.000,0.000
72,0.000,0.000
73,0.005,0.000
74,0.000,0.000
75,0.000,0.000
76,0.000,0.000
77,0.000,0.000
78,0.000,0.000
79,0.000,0.000
80,0.000,0.000
81,0.000,0.000
82,0.000,0.000
83,-0.005,0.000
84,0.000,0.000
85,0.000,0.000
86,0.000,0.000
87,-0.005,0.000
88,0.000,0.000
89,0.000,0.000
90,0.000,0.000
91,0.000,0.000
92,-0.005,0.000
93,-0.010,0.000
94,-0.010,0.000
95,-0.010,0.000
96,0.000,0.000
97,0.000,0.000
98,0.000,0.000
99,-0.010,0.000
100,-0.015,0.000
101,-0.005,0.000
102,0.000,0.000
103,0.005,0.000
104,0.025,0.000
105,0.040,0.010
106,0.035,0.010
107,0.015,0.005
108,-0.005,0.000
109,-0.015,0.000
110,-0.020,0.000
111,-0.015,0.000
112,-0.010,0.000
113,-0.010,0.000
114,-0.020,0.000
115,-0.025,0.000
116,-0.030,0.000
117,-0.020,0.000
118,-0.020,0.000
119,-0.015,0.000
120,0.005,0.000
121,0.080,0.000
122,0.070,0.020
123,0.105,0.105
124,0.160,0.250
125,0.200,0.280
126,0.130,0.060
127,0.175,-0.055
128,0.300,-0.055
129,0.465,-0.055
130,0.620,-0.075
131,0.745,-0.160
132,0.770,-0.230
133,0.825,-0.250
134,0.480,-0.190
135,0.110,-0.100
136,-0.040,-0.035
137,-0.100,-0.005
138,-0.125,0.000
139,-0.130,0.000
140,-0.135,0.000
141,-0.135,0.000
142,-0.140,0.005
143,-0.145,0.005
144,-0.145,0.005
145,-0.135,0.000
146,-0.135,0.000
147,-0.140,0.000
148,-0.135,0.005
149,-0.135,0.000
150,-0.135,0.000
151,-0.130,0.000
152,-0.130,0.000
153,-0.135,0.000
154,-0.145,0.000
155,-0.135,0.005
156,-0.130,0.005
157,-0.130,0.005
158,-0.125,0.010
159,-0.125,0.010
160,-0.130,0.010
161,-0.130,0.010
162,-0.130,0.010
163,-0.135,0.005
164,-0.135,0.005
165,-0.145,0.010
166,-0.145,0.010
167,-0.160,0.005
168,-0.160,0.000
169,-0.160,0.000
170,-0.185,0.000
171,-0.210,0.000
172,-0.205,0.000
173,-0.205,0.000
174,-0.205,0.000
175,-0.220,0.000
176,-0.220,-0.005
177,-0.220,-0.010
178,-0.220,-0.015
179,-0.220,-0.020
180,-0.215,-0.025
181,-0.205,-0.025
182,-0.185,-0.030
183,-0.155,-0.030
184,-0.130,-0.030
185,-0.115,-0.030
186,-0.105,-0.020
187,-0.070,-0.010
188,-0.035,-0.010
189,-0.015,-0.005
190,-0.005,0.000
191,0.000,0.000
192,0.005,0.000
193,0.010,0.000
194,0.020,0.000
195,0.035,0.010
196,0.045,0.010
197,0.045,0.010
198,0.040,0.010
199,0.045,0.010
200,0.045,0.010
201,0.045,0.010
202,0.030,0.010
203,0.030,0.010
204,0.035,0.005
205,0.035,0.000
206,0.025,0.000
207,0.015,0.000
208,0.020,0.000
209,0.025,0.000
210,0.020,0.000
211,0.020,0.000
212,0.020,0.000
213,0.015,0.000
214,0.015,0.000
215,0.020,0.000
216,0.020,0.000
217,0.015,0.000
218,0.000,0.000
219,0.000,0.000
220,0.010,0.000
221,0.005,0.000
222,0.005,0.000
223,0.005,0.000
224,0.005,0.000
225,0.015,0.000
226,0.005,0.000
227,0.000,0.000
228,0.005,0.000
229,0.010,0.000
230,0.000,0.000
231,0.000,0.000
232,0.010,0.000
233,0.005,0.000
234,0.010,0.000
235,0.005,0.000
236,0.000,0.000
237,0.000,0.000
238,0.000,0.000
239,0.000,0.000
240,0.005,0.000
241,0.005,0.000
242,0.000,0.000
243,0.000,0.000
244,0.000,0.000
245,0.000,0.000
246,-0.005,0.000
247,0.000,0.000
248,0.000,0.000
249,0.000,0.000
250,0.000,0.000
251,0.000,0.000
252,0.000,0.000
253,0.000,0.000
254,0.000,0.000
255,0.000,0.000
256,-0.010,0.000
257,0.000,0.000
258,0.000,0.000
259,0.000,0.000
260,0.005,0.000
261,0.025,0.000
262,0.030,0.000
263,0.045,0.005
264,0.035,0.010
265,0.005,0.010
266,-0.005,0.000
267,-0.020,0.000
268,-0.015,0.000
269,0.000,0.000
270,0.000,0.000
271,-0.010,0.000
272,-0.015,0.000
273,-0.015,0.000
274,-0.015,0.000
275,-0.020,0.000
276,-0.020,0.000
277,-0.020,0.000
278,0.005,0.000
279,0.040,0.000
280,0.060,0.040
281,0.110,0.145
282,0.165,0.255
283,0.150,0.230
284,0.115,0.060
285,0.170,-0.050
286,0.310,-0.055
287,0.460,-0.060
288,0.600,-0.100
289,0.710,-0.160
290,0.765,-0.230
291,0.765,-0.240
292,0.450,-0.185
293,0.095,-0.090
294,-0.065,-0.020
295,-0.120,0.000
296,-0.135,0.000
297,-0.145,0.010
298,-0.155,0.010
299,-0.145,0.010
300,-0.145,0.010
301,-0.150,0.010
302,-0.145,0.010
303,-0.145,0.010
304,-0.145,0.010
305,-0.145,0.010
306,-0.160,0.010
307,-0.145,0.010
308,-0.145,0.010
309,-0.145,0.010
310,-0.145,0.010
311,-0.145,0.010
312,-0.150,0.010
313,-0.160,0.010
314,-0.150,0.010
315,-0.145,0.010
316,-0.150,0.010
317,-0.155,0.015
318,-0.155,0.015
319,-0.155,0.015
320,-0.160,0.015
321,-0.160,0.010
322,-0.150,0.015
323,-0.150,0.010
324,-0.165,0.010
325,-0.170,0.010
326,-0.170,0.010
327,-0.185,0.010
328,-0.195,0.000
329,-0.220,0.000
330,-0.225,0.000
331,-0.225,0.000
332,-0.225,0.000
333,-0.235,-0.005
334,-0.245,-0.005
335,-0.235,-0.005
336,-0.245,-0.020
337,-0.235,-0.025
338,-0.220,-0.025
339,-0.215,-0.020
340,-0.210,-0.015
341,-0.175,-0.015
342,-0.180,-0.025
343,-0.145,-0.030
344,-0.120,-0.030
345,-0.105,-0.015
346,-0.080,-0.010
347,-0.045,-0.005
348,-0.030,0.000
349,-0.015,0.000
350,0.000,0.000
351,0.000,0.000
352,0.005,0.005
353,0.010,0.010
354,0.010,0.010
355,0.025,0.015
356,0.025,0.020
357,0.025,0.025
358,0.025,0.020
359,0.020,0.020
360,0.020,0.025
361,0.020,0.030
362,0.010,0.015
363,0.005,0.010
364,0.005,0.015
365,0.000,0.010
366,0.000,0.010
367,0.005,0.010
368,0.010,0.005
369,0.010,0.005
370,0.005,0.010
371,0.000,0.010
372,0.000,0.010
373,0.000,0.010
374,0.000,0.005
375,0.000,0.005
376,-0.010,0.005
377,-0.010,0.005
378,0.000,0.000
379,0.000,0.000
380,-0.005,0.000
381,-0.005,0.000
382,0.000,0.000
383,0.000,0.000
384,0.000,0.000
385,0.000,0.000
386,0.000,0.005
387,0.000,0.005
388,0.000,0.000
389,-0.010,0.000
390,-0.005,0.000
391,0.010,0.000
392,0.005,0.005
393,-0.005,0.000
394,-0.005,0.000
395,0.000,0.000
396,0.000,0.005
397,0.000,0.000
398,-0.005,0.000
399,0.000,0.000
400,0.000,0.000
401,0.000,0.000
402,-0.005,0.005
403,0.000,0.005
404,0.000,0.000
405,0.000,0.000
406,0.000,0.000
407,0.000,0.000
408,-0.005,0.000
409,0.000,0.000
410,0.000,0.000
411,0.000,0.000
412,0.000,0.000
413,0.000,0.000
414,-0.010,0.000
415,0.000,0.000
416,0.000,0.000
417,0.005,0.000
418,-0.005,0.000
419,0.000,0.000
420,0.000,0.000
421,0.025,0.000
422,0.025,0.005
423,0.030,0.010
424,0.015,0.010
425,0.000,0.010
426,-0.010,0.010
427,-0.010,0.010
428,-0.010,0.000
429,-0.010,0.005
430,0.000,0.010
431,0.000,0.000
432,-0.010,0.000
433,-0.010,0.000
434,0.000,0.000
435,-0.020,0.000
436,-0.005,0.000
437,0.015,0.000
438,0.055,0.005
439,0.060,0.010
440,0.080,0.080
441,0.145,0.205
442,0.180,0.270
443,0.155,0.110
444,0.185,-0.040
445,0.305,-0.065
446,0.445,-0.070
447,0.585,-0.095
448,0.715,-0.155
449,0.785,-0.220
450,0.795,-0.250
451,0.600,-0.220
452,0.235,-0.130
453,0.015,-0.045
454,-0.055,0.000
455,-0.100,0.000
456,-0.120,0.000
457,-0.120,0.000
458,-0.130,0.005
459,-0.135,0.005
460,-0.120,0.000
461,-0.115,0.000
462,-0.115,0.010
463,-0.115,0.010
464,-0.105,0.005
465,-0.105,0.000
466,-0.125,0.005
467,-0.125,0.010
468,-0.105,0.005
469,-0.120,0.000
470,-0.100,0.005
471,-0.100,0.010
472,-0.120,0.005
473,-0.115,0.005
474,-0.110,0.010
475,-0.115,0.010
476,-0.115,0.010
477,-0.115,0.010
478,-0.115,0.010
479,-0.115,0.010
480,-0.115,0.015
481,-0.125,0.010
482,-0.120,0.010
483,-0.120,0.010
484,-0.130,0.005
485,-0.130,0.005
486,-0.135,0.005
487,-0.145,0.000
488,-0.155,0.000
489,-0.160,0.000
490,-0.160,0.000
491,-0.170,-0.005
492,-0.200,-0.005
493,-0.205,-0.005
494,-0.195,-0.010
495,-0.200,-0.015
496,-0.195,-0.015
497,-0.185,-0.025
498,-0.155,-0.030
499,-0.160,-0.030
500,-0.150,-0.030
501,-0.125,-0.030
502,-0.110,-0.025
503,-0.070,-0.020
504,-0.045,-0.015
505,-0.035,-0.010
506,-0.020,-0.005
507,0.000,0.000
508,0.005,0.000
509,0.025,0.000
510,0.025,0.000
511,0.055,0.010
512,0.060,0.010
513,0.060,0.010
514,0.090,0.010
515,0.105,0.020
516,0.105,0.015
517,0.105,0.015
518,0.065,0.015
519,0.080,0.015
520,0.060,0.010
521,0.060,0.010
522,0.060,0.005
523,0.050,0.005
524,0.045,0.000
525,0.045,0.000
526,0.045,0.000
527,0.050,0.005
528,0.045,0.000
529,0.040,0.000
530,0.030,0.000
531,0.035,0.000
532,0.040,0.000
533,0.040,0.000
534,0.040,0.000
535,0.040,0.000
536,0.035,0.000
537,0.035,0.000
538,0.035,0.000
539,0.030,0.000
540,0.025,0.000
541,0.030,0.000
542,0.025,0.000
543,0.030,0.000
544,0.025,0.000
545,0.020,0.000
546,0.030,0.000
547,0.035,0.000
548,0.030,0.000
549,0.025,0.000
550,0.025,0.000
551,0.035,0.000
552,0.040,0.000
553,0.035,0.000
554,0.020,0.000
555,0.020,0.000
556,0.030,0.000
557,0.035,0.000
558,0.030,0.000
559,0.020,0.000
560,0.025,0.000
561,0.020,0.000
562,0.020,0.000
563,0.025,0.000
564,0.030,0.000
565,0.025,0.000
566,0.020,0.000
567,0.015,0.000
568,0.025,0.000
569,0.025,0.000
570,0.020,0.000
571,0.020,0.000
572,0.025,0.000
573,0.025,0.000
574,0.030,0.000
575,0.025,0.000
576,0.025,0.000
577,0.030,0.000
578,0.050,0.000
579,0.065,0.000
580,0.065,0.000
581,0.050,0.005
582,0.030,0.005
583,0.015,0.000
584,0.010,0.000
585,0.010,0.000
586,0.020,0.000
587,0.025,0.000
588,0.015,0.000
589,0.005,0.000
590,0.005,0.000
591,0.000,0.000
592,0.010,-0.005
593,0.000,0.000
594,0.015,0.000
595,0.075,0.000
596,0.120,0.000
597,0.115,0.030
598,0.185,0.155
599,0.225,0.275
600,0.190,0.210
601,0.170,-0.005
602,0.265,-0.060
603,0.410,-0.050
604,0.570,-0.070
605,0.725,-0.115
606,0.810,-0.180
607,0.870,-0.235
608,0.795,-0.240
609,0.445,-0.170
610,0.120,-0.075
611,-0.005,-0.015
612,-0.045,0.000
613,-0.070,0.000
614,-0.095,0.000
615,-0.105,0.000
616,-0.105,0.000
617,-0.100,0.000
618,-0.100,0.000
619,-0.100,0.000
620,-0.100,0.000
621,-0.080,0.000
622,-0.080,0.000
623,-0.105,0.000
624,-0.085,0.000
625,-0.060,0.005
626,-0.065,0.000
627,-0.070,0.000
628,-0.100,0.000
629,-0.105,0.000
630,-0.105,0.000
631,-0.090,0.000
632,-0.100,0.005
633,-0.095,0.005
634,-0.090,0.000
635,-0.100,0.000
636,-0.110,0.010
637,-0.105,0.010
638,-0.105,0.005
639,-0.105,0.005
640,-0.130,0.010
641,-0.120,0.000
642,-0.125,0.000
643,-0.140,0.000
644,-0.155,0.000
645,-0.160,0.000
646,-0.180,0.000
647,-0.200,0.000
648,-0.200,-0.005
649,-0.195,-0.005
650,-0.195,-0.005
651,-0.205,-0.010
652,-0.210,-0.010
653,-0.205,-0.020
654,-0.205,-0.025
655,-0.185,-0.030
656,-0.165,-0.030
657,-0.150,-0.030
658,-0.130,-0.030
659,-0.110,-0.030
660,-0.095,-0.025
661,-0.060,-0.020
662,-0.020,-0.015
663,0.000,-0.005
664,0.000,0.000
665,0.005,0.000
666,0.020,0.000
667,0.030,0.000
668,0.035,0.000
669,0.055,0.005
670,0.060,0.010
671,0.070,0.010
672,0.075,0.010
673,0.095,0.010
674,0.070,0.010
675,0.070,0.015
676,0.075,0.015
677,0.095,0.010
678,0.060,0.010
679,0.055,0.010
680,0.045,0.005
681,0.050,0.005
682,0.045,0.005
683,0.040,0.005
684,0.045,0.005
685,0.040,0.000
686,0.040,0.000
687,0.040,0.000
688,0.040,0.000
689,0.035,0.000
690,0.035,0.000
691,0.030,0.000
692,0.025,0.000
693,0.020,0.000
694,0.015,0.000
695,0.025,0.000
696,0.020,0.000
697,0.020,0.000
698,0.020,0.000
699,0.020,0.000
700,0.015,0.000
701,0.020,0.000
702,0.020,0.000
703,0.020,0.000
704,0.015,0.000
705,0.015,0.000
706,0.015,0.000
707,0.015,0.000
708,0.030,0.000
709,0.040,0.000
710,0.030,0.000
711,0.000,0.000
712,-0.010,0.000
713,-0.005,0.000
714,-0.005,0.000
715,-0.005,0.000
716,-0.005,0.000
717,-0.030,0.000
718,-0.065,0.000
719,-0.025,0.000
720,-0.005,0.005
721,-0.040,0.005
722,-0.050,0.000
723,-0.110,0.000
724,-0.120,0.000
725,-0.115,0.000
726,-0.105,0.005
727,-0.085,0.000
728,-0.040,0.005
729,-0.055,0.010
730,-0.060,0.010
731,-0.030,0.025
732,-0.020,0.030
733,-0.045,0.025
734,-0.090,0.015
735,-0.100,0.015
736,-0.085,0.020
737,-0.100,0.015
738,-0.100,0.015
739,-0.085,0.010
740,-0.105,0.005
741,-0.120,0.000
742,-0.115,0.000
743,-0.085,0.005
744,-0.085,0.000
745,-0.085,0.005
746,-0.050,0.005
747,-0.015,0.005
748,0.000,0.035
749,0.040,0.125
750,0.090,0.245
751,0.090,0.265
752,0.065,0.115
753,0.100,-0.035
754,0.225,-0.045
755,0.385,-0.045
756,0.555,-0.070
757,0.695,-0.130
758,0.755,-0.195
759,0.765,-0.220
760,0.530,-0.190
761,0.125,-0.105
762,-0.060,-0.030
763,-0.130,0.000
764,-0.135,0.010
765,-0.145,0.005
766,-0.160,0.005
767,-0.175,0.010
768,-0.185,0.010
769,-0.145,0.010
770,-0.135,0.010
771,-0.140,0.010
772,-0.130,0.010
773,-0.125,0.010
774,-0.120,0.010
775,-0.120,0.005
776,-0.120,0.005
777,-0.120,0.005
778,-0.110,0.000
779,-0.110,0.005
780,-0.100,0.010
781,-0.110,0.010
782,-0.110,0.010
783,-0.100,0.010
784,-0.085,0.010
785,-0.080,0.010
786,-0.090,0.010
787,-0.085,0.005
788,-0.090,0.005
789,-0.085,0.010
790,-0.075,0.010
791,-0.090,0.010
792,-0.105,0.005
793,-0.100,0.005
794,-0.100,0.005
795,-0.110,0.000
796,-0.120,0.000
797,-0.120,0.000
798,-0.120,0.000
799,-0.135,-0.005
800,-0.160,-0.005
801,-0.150,-0.005
802,-0.145,-0.010
803,-0.160,-0.010
804,-0.160,-0.025
805,-0.155,-0.020
806,-0.125,-0.030
807,-0.125,-0.025
808,-0.120,-0.025
809,-0.105,-0.025
810,-0.095,-0.025
811,-0.060,-0.025
812,-0.055,-0.030
813,-0.025,-0.025
814,0.000,-0.010
815,0.010,-0.005
816,0.025,-0.005
817,0.030,0.000
818,0.050,0.000
819,0.085,0.000
820,0.085,0.000
821,0.085,0.005
822,0.090,0.010
823,0.105,0.010
824,0.090,0.000
825,0.065,0.005
826,0.065,0.010
827,0.085,0.010
828,0.070,0.010
829,0.065,0.010
830,0.070,0.005
831,0.060,0.005
832,0.050,0.005
833,0.040,0.000
834,0.040,0.000
835,0.045,0.000
836,0.045,0.000
837,0.045,0.000
838,0.040,0.000
839,0.040,0.000
840,0.035,0.000
841,0.025,0.000
842,0.020,0.000
843,0.020,0.000
844,0.020,0.000
845,0.020,0.000
846,0.025,0.000
847,0.020,0.000
848,0.015,0.000
849,0.015,0.000
850,0.020,0.000
851,0.015,0.000
852,0.015,0.000
853,0.015,0.000
854,0.015,0.000
855,0.010,0.000
856,0.020,0.000
857,0.010,0.000
858,0.000,0.000
859,0.000,0.000
860,0.005,0.000
861,0.010,0.000
862,0.015,0.000
863,0.010,0.000
864,0.000,0.000
865,0.000,0.000
866,0.005,0.000
867,0.020,0.000
868,0.020,0.000
869,0.015,0.000
870,0.005,0.000
871,0.005,0.000
872,0.005,0.000
873,0.010,0.000
874,0.000,0.000
875,0.000,0.000
876,0.000,0.000
877,0.005,0.000
878,0.005,0.000
879,0.000,0.000
880,0.000,0.000
881,0.000,0.000
882,0.000,0.000
883,0.010,0.000
884,0.005,0.000
885,0.005,0.000
886,0.010,0.000
887,0.020,0.000
888,0.035,0.000
889,0.035,0.000
890,0.035,0.005
891,0.015,0.005
892,-0.010,0.005
893,-0.010,0.000
894,0.000,0.000
895,0.000,0.000
896,-0.005,0.005
897,0.000,0.000
898,-0.010,0.000
899,-0.015,0.000
900,-0.015,0.000
901,-0.005,-0.005
902,-0.010,0.000
903,-0.005,0.000
904,0.060,0.000
905,0.080,0.000
906,0.085,0.040
907,0.145,0.160
908,0.200,0.270
909,0.180,0.210
910,0.160,0.020
911,0.240,-0.055
912,0.380,-0.055
913,0.530,-0.060
914,0.675,-0.100
915,0.770,-0.175
916,0.845,-0.230
917,0.760,-0.225
918,0.415,-0.165
919,0.095,-0.080
920,-0.030,-0.020
921,-0.070,0.000
922,-0.100,0.000
923,-0.120,0.000
924,-0.120,0.000
925,-0.120,0.005
926,-0.125,0.005
927,-0.125,0.000
928,-0.120,0.000
929,-0.115,0.005
930,-0.125,0.005
931,-0.125,0.000
932,-0.125,0.005
933,-0.120,0.010
934,-0.120,0.005
935,-0.130,0.000
936,-0.125,0.000
937,-0.125,0.005
938,-0.125,0.005
939,-0.125,0.005
940,-0.120,0.005
941,-0.115,0.010
942,-0.120,0.010
943,-0.130,0.010
944,-0.130,0.010
945,-0.130,0.010
946,-0.125,0.010
947,-0.130,0.010
948,-0.135,0.010
949,-0.125,0.010
950,-0.130,0.010
951,-0.150,0.000
952,-0.160,0.005
953,-0.170,0.000
954,-0.185,0.000
955,-0.195,0.000
956,-0.200,0.000
957,-0.215,0.000
958,-0.220,0.000
959,-0.225,-0.005
960,-0.225,-0.010
961,-0.220,-0.015
962,-0.225,-0.015
963,-0.215,-0.015
964,-0.205,-0.025
965,-0.190,-0.030
966,-0.170,-0.030
967,-0.160,-0.030
968,-0.135,-0.030
969,-0.115,-0.025
970,-0.095,-0.020
971,-0.065,-0.015
972,-0.050,-0.010
973,-0.025,0.000
974,-0.005,0.000
975,0.000,0.000
976,0.015,0.000
977,0.015,0.000
978,0.020,0.000
979,0.050,0.010
980,0.050,0.010
981,0.045,0.020
982,0.045,0.020
983,0.035,0.020
984,0.050,0.015
985,0.035,0.015
986,0.040,0.020
987,0.045,0.020
988,0.040,0.010
989,0.030,0.010
990,0.030,0.010
991,0.020,0.010
992,0.020,0.005
993,0.020,0.005
994,0.020,0.005
995,0.030,0.010
996,0.025,0.000
997,0.010,0.000
998,0.000,0.000
999,0.005,0.000
1000,0.015,0.000
1001,0.020,0.000
1002,0.005,0.000
1003,0.000,0.000
1004,0.000,0.005
1005,0.005,0.000
1006,0.015,0.000
1007,0.010,0.000
1008,0.005,0.000
1009,0.000,0.000
1010,0.005,0.005
1011,0.010,0.000
1012,0.000,0.000
1013,0.000,0.000
1014,0.000,0.000
1015,0.000,0.005
1016,0.005,0.000
1017,0.000,0.000
1018,0.005,0.005
1019,0.000,0.000
1020,0.000,0.000
1021,0.000,0.000
1022,0.000,0.005
1023,0.000,0.000
1024,0.000,0.000
1025,0.000,0.000
1026,0.000,0.000
1027,0.000,0.000
1028,0.000,0.000
1029,0.000,0.000
1030,-0.005,0.000
1031,0.000,0.005
1032,0.000,0.000
1033,0.000,0.000
1034,0.000,0.000
1035,0.000,0.005
1036,0.000,0.000
1037,0.000,0.000
1038,0.000,0.000
1039,0.000,0.000
1040,-0.005,0.000
1041,-0.015,0.000
1042,-0.010,0.000
1043,0.000,0.000
1044,0.000,0.000
1045,0.000,0.000
1046,0.005,0.000
1047,0.015,0.005
1048,0.020,0.015
1049,0.020,0.005
1050,0.000,0.000
1051,-0.020,0.010
1052,-0.025,0.010
1053,-0.015,0.010
1054,-0.010,0.010
1055,0.000,0.005
1056,-0.010,0.000
1057,-0.010,0.000
1058,-0.015,0.000
1059,-0.020,0.000
1060,-0.015,0.000
1061,-0.010,0.000
1062,0.000,0.000
1063,0.040,0.000
1064,0.050,0.010
1065,0.045,0.045
1066,0.110,0.175
1067,0.160,0.290
1068,0.145,0.195
1069,0.120,-0.025
1070,0.240,-0.065
1071,0.410,-0.050
1072,0.555,-0.075
1073,0.700,-0.125
1074,0.795,-0.210
1075,0.860,-0.245
1076,0.710,-0.215
1077,0.340,-0.145
1078,0.070,-0.055
1079,-0.050,-0.010
1080,-0.095,0.000
1081,-0.115,0.000
1082,-0.135,0.005
1083,-0.145,0.005
1084,-0.130,0.000
1085,-0.120,0.000
1086,-0.120,0.010
1087,-0.120,0.010
1088,-0.120,0.005
1089,-0.110,0.005
1090,-0.115,0.005
1091,-0.125,0.005
1092,-0.120,0.000
1093,-0.115,0.000
1094,-0.110,0.005
1095,-0.110,0.005
1096,-0.115,0.005
1097,-0.115,0.010
1098,-0.110,0.010
1099,-0.105,0.010
1100,-0.105,0.005
1101,-0.115,0.005
1102,-0.115,0.010
1103,-0.115,0.010
1104,-0.115,0.010
1105,-0.120,0.010
1106,-0.120,0.010
1107,-0.120,0.010
1108,-0.125,0.005
1109,-0.130,0.000
1110,-0.130,0.000
1111,-0.155,0.000
1112,-0.145,0.000
1113,-0.155,0.000
1114,-0.160,0.000
1115,-0.200,0.000
1116,-0.210,0.000
1117,-0.215,-0.005
1118,-0.210,-0.005
1119,-0.205,-0.015
1120,-0.210,-0.025
1121,-0.215,-0.030
1122,-0.215,-0.030
1123,-0.205,-0.030
1124,-0.190,-0.030
1125,-0.165,-0.030
1126,-0.150,-0.030
1127,-0.130,-0.030
1128,-0.115,-0.030
1129,-0.075,-0.030
1130,-0.050,-0.020
1131,-0.035,-0.005
1132,-0.010,0.000
1133,0.000,0.000
1134,0.010,0.000
1135,0.025,0.000
1136,0.035,0.005
1137,0.035,0.010
1138,0.050,0.020
1139,0.060,0.015
1140,0.065,0.010
1141,0.090,0.015
1142,0.105,0.025
1143,0.100,0.020
1144,0.060,0.015
1145,0.065,0.010
1146,0.055,0.010
1147,0.050,0.005
1148,0.045,0.000
1149,0.040,0.000
1150,0.040,0.000
1151,0.045,0.005
1152,0.045,0.000
1153,0.040,0.000
1154,0.045,0.000
1155,0.045,0.000
1156,0.035,0.000
1157,0.030,0.000
1158,0.040,0.000
1159,0.050,0.000
1160,0.045,0.000
1161,0.035,0.000
1162,0.035,0.000
1163,0.040,0.000
1164,0.040,0.000
1165,0.035,0.000
1166,0.030,0.000
1167,0.025,0.000
1168,0.015,0.000
1169,0.010,0.000
1170,0.015,0.000
1171,0.015,0.000
1172,0.020,0.000
1173,0.025,0.000
1174,0.020,0.000
1175,0.020,0.000
1176,0.035,0.000
1177,0.030,0.000
1178,0.020,0.000
1179,0.025,0.000
1180,0.040,0.000
1181,0.040,0.000
1182,0.015,0.000
1183,-0.005,0.000
1184,0.000,0.000
1185,0.020,0.000
1186,0.005,0.000
1187,0.000,0.000
1188,0.000,0.000
1189,0.000,0.000
1190,-0.025,0.000
1191,0.000,0.000
1192,-0.015,0.000
1193,-0.015,0.000
1194,-0.010,0.000
1195,-0.005,0.000
1196,-0.005,0.000
1197,-0.025,0.000
1198,-0.035,0.000
1199,-0.040,0.000
1200,-0.040,0.000
1201,-0.020,0.000
1202,0.000,0.000
1203,-0.010,0.005
1204,-0.010,0.000
1205,-0.020,0.000
1206,-0.010,0.010
1207,0.000,0.020
1208,0.000,0.015
1209,-0.060,0.015
1210,-0.100,0.005
1211,-0.075,0.005
1212,-0.075,0.005
1213,-0.095,0.005
1214,-0.085,0.010
1215,-0.065,0.000
1216,-0.075,0.000
1217,-0.100,0.000
1218,-0.115,0.000
1219,-0.120,0.000
1220,-0.125,0.000
1221,-0.095,0.005
1222,-0.030,0.010
1223,-0.020,0.030
1224,-0.005,0.115
1225,0.035,0.245
1226,0.035,0.280
1227,0.000,0.120
1228,0.030,-0.035
1229,0.175,-0.035
1230,0.345,-0.035
1231,0.480,-0.055
1232,0.605,-0.120
1233,0.680,-0.190
1234,0.705,-0.220
1235,0.450,-0.190
1236,0.120,-0.100
1237,-0.105,-0.020
1238,-0.215,0.000
1239,-0.255,0.005
1240,-0.305,0.010
1241,-0.265,0.025
1242,-0.295,0.015
1243,-0.280,0.010
1244,-0.280,0.010
1245,-0.255,0.030
1246,-0.255,0.025
1247,-0.310,0.010
1248,-0.310,0.015
1249,-0.275,0.020
1250,-0.265,0.025
1251,-0.275,0.030
1252,-0.305,0.020
1253,-0.325,0.010
1254,-0.305,0.015
1255,-0.250,0.025
1256,-0.240,0.030
1257,-0.285,0.025
1258,-0.305,0.025
1259,-0.280,0.025
1260,-0.260,0.030
1261,-0.260,0.030
1262,-0.245,0.030
1263,-0.240,0.030
1264,-0.255,0.030
1265,-0.240,0.030
1266,-0.200,0.025
1267,-0.240,0.025
1268,-0.295,0.025
1269,-0.280,0.025
1270,-0.270,0.020
1271,-0.270,0.015
1272,-0.280,0.000
1273,-0.325,0.005
1274,-0.320,0.000
1275,-0.350,0.000
1276,-0.340,0.000
1277,-0.315,0.000
1278,-0.335,0.000
1279,-0.330,-0.005
1280,-0.300,-0.005
1281,-0.290,-0.005
1282,-0.310,-0.010
1283,-0.270,-0.015
1284,-0.220,-0.005
1285,-0.220,-0.005
1286,-0.215,-0.005
1287,-0.205,-0.005
1288,-0.205,-0.005
1289,-0.145,0.000
1290,-0.130,0.000
1291,-0.105,0.000
1292,-0.105,0.005
1293,-0.095,0.010
1294,-0.065,0.010
1295,-0.035,0.015
1296,-0.040,0.015
1297,-0.020,0.025
1298,0.005,0.035
1299,-0.005,0.030
1300,-0.015,0.030
1301,-0.005,0.030
1302,-0.005,0.030
1303,-0.025,0.030
1304,-0.025,0.030
1305,-0.010,0.025
1306,-0.020,0.015
1307,-0.020,0.010
1308,-0.010,0.010
1309,-0.010,0.010
1310,-0.015,0.010
1311,-0.005,0.010
1312,-0.015,0.010
1313,-0.050,0.010
1314,-0.020,0.010
1315,-0.015,0.010
1316,-0.010,0.005
1317,-0.010,0.005
1318,-0.020,0.000
1319,-0.035,0.000
1320,-0.030,0.010
1321,-0.050,0.005
1322,-0.015,0.000
1323,-0.005,0.000
1324,-0.015,0.000
1325,-0.015,0.005
1326,-0.020,0.005
1327,-0.025,0.000
1328,-0.025,0.000
1329,-0.015,0.000
1330,-0.035,0.000
1331,-0.015,0.000
1332,0.000,0.005
1333,-0.020,0.005
1334,-0.040,0.000
1335,-0.050,0.000
1336,-0.040,0.000
1337,-0.020,0.000
1338,-0.020,0.005
1339,-0.035,0.000
1340,-0.025,0.005
1341,-0.005,0.010
1342,-0.010,0.000
1343,-0.020,0.000
1344,-0.010,0.000
1345,0.000,0.000
1346,-0.015,0.005
1347,-0.035,0.000
1348,-0.045,0.000
1349,-0.025,0.000
1350,-0.005,0.000
1351,-0.005,0.005
1352,-0.015,0.000
1353,-0.025,0.000
1354,-0.040,0.000
1355,-0.050,0.005
1356,-0.045,0.000
1357,-0.035,0.000
1358,-0.025,0.000
1359,-0.020,0.000
1360,-0.005,0.000
1361,0.000,0.000
1362,-0.020,0.000
1363,-0.005,0.000
1364,0.010,0.010
1365,-0.015,0.010
1366,-0.015,0.010
1367,-0.065,0.010
1368,-0.040,0.010
1369,-0.030,0.005
1370,-0.010,0.005
1371,-0.010,0.010
1372,-0.015,0.000
1373,-0.025,0.000
1374,-0.020,0.000
1375,-0.025,0.000
1376,-0.020,0.000
1377,-0.025,0.000
1378,-0.015,0.000
1379,0.020,0.000
1380,0.065,0.000
1381,0.075,0.030
1382,0.110,0.125
1383,0.160,0.245
1384,0.155,0.250
1385,0.135,0.085
1386,0.200,-0.040
1387,0.330,-0.050
1388,0.480,-0.055
1389,0.640,-0.095
1390,0.770,-0.155
1391,0.860,-0.225
1392,0.840,-0.245
1393,0.590,-0.200
1394,0.235,-0.110
1395,0.035,-0.035
1396,-0.005,0.000
1397,-0.025,0.000
1398,-0.040,0.000
1399,-0.045,0.000
1400,-0.040,0.000
1401,-0.035,0.000
1402,-0.020,0.000
1403,-0.015,0.000
1404,-0.015,0.005
1405,-0.010,0.000
1406,0.000,-0.005
1407,0.000,0.000
1408,0.000,0.000
1409,0.000,0.000
1410,0.015,0.000
1411,0.015,0.000
1412,0.015,0.000
1413,0.025,0.000
1414,0.020,0.000
1415,0.020,0.000
1416,0.020,0.000
1417,0.015,0.000
1418,0.015,0.000
1419,0.015,0.000
1420,0.015,0.000
1421,0.030,0.000
1422,0.035,0.000
1423,0.025,0.000
1424,0.010,0.000
1425,0.005,0.000
1426,0.000,0.000
1427,0.005,0.000
1428,0.000,-0.005
1429,-0.015,-0.005
1430,-0.025,-0.005
1431,-0.030,-0.005
1432,-0.040,-0.010
1433,-0.050,-0.010
1434,-0.060,-0.010
1435,-0.060,-0.015
1436,-0.050,-0.030
1437,-0.055,-0.030
1438,-0.060,-0.035
1439,-0.040,-0.035
1440,-0.040,-0.035
1441,-0.030,-0.045
1442,-0.005,-0.040
1443,0.005,-0.035
1444,0.005,-0.035
1445,0.020,-0.035
1446,0.030,-0.030
1447,0.065,-0.030
1448,0.100,-0.025
1449,0.070,-0.010
1450,0.125,-0.005
1451,0.130,-0.005
1452,0.135,0.000
1453,0.140,0.000
1454,0.150,0.000
1455,0.160,0.000
1456,0.150,0.000
1457,0.160,0.005
1458,0.155,0.010
1459,0.145,0.010
1460,0.150,0.005
1461,0.145,0.000
1462,0.145,0.000
1463,0.130,0.000
1464,0.125,0.000
1465,0.125,0.000
1466,0.125,0.000
1467,0.115,0.000
1468,0.120,0.000
1469,0.125,0.000
1470,0.120,0.000
1471,0.105,0.000
1472,0.095,0.000
1473,0.105,0.000
1474,0.110,0.000
1475,0.100,0.000
1476,0.095,0.000
1477,0.100,0.000
1478,0.085,0.000
1479,0.065,0.000
1480,0.070,0.000
1481,0.100,0.000
1482,0.085,0.000
1483,0.060,0.000
1484,0.055,0.000
1485,0.050,0.000
1486,0.050,0.000
1487,0.055,0.000
1488,0.055,-0.005
1489,0.055,0.000
1490,0.050,0.000
1491,0.055,0.000
1492,0.045,0.000
1493,0.050,0.000
1494,0.050,0.000
1495,0.050,0.000
1496,0.050,0.000
1497,0.045,0.000
1498,0.045,0.000
1499,0.040,0.000
1500,0.040,0.000
1501,0.025,0.000
1502,0.025,0.000
1503,0.035,0.000
1504,0.040,0.000
1505,0.035,0.000
1506,0.040,0.000
1507,0.045,0.000
1508,0.025,0.000
1509,0.030,0.000
1510,0.040,0.000
1511,0.040,0.000
1512,0.035,0.000
1513,0.030,0.000
1514,0.025,0.000
1515,0.030,0.000
1516,0.040,0.000
1517,0.025,0.000
1518,0.015,0.000
1519,0.030,0.000
1520,0.040,0.000
1521,0.040,0.000
1522,0.060,0.010
1523,0.075,0.010
1524,0.030,0.005
1525,0.020,0.005
1526,0.025,0.005
1527,0.005,0.005
1528,0.005,0.010
1529,0.015,0.005
1530,0.010,0.000
1531,0.000,0.000
1532,-0.035,0.000
1533,-0.025,0.000
1534,-0.040,0.000
1535,-0.095,0.000
1536,-0.040,0.000
1537,0.005,0.000
1538,0.020,0.010
1539,0.045,0.075
1540,0.130,0.205
1541,0.190,0.300
1542,0.125,0.165
1543,0.085,-0.005
1544,0.160,-0.050
1545,0.310,-0.050
1546,0.485,-0.060
1547,0.650,-0.110
1548,0.725,-0.180
1549,0.795,-0.225
1550,0.605,-0.210
1551,0.200,-0.140
1552,-0.055,-0.055
1553,-0.130,-0.005
1554,-0.155,0.005
1555,-0.155,0.015
1556,-0.175,0.015
1557,-0.215,0.010
1558,-0.235,0.015
1559,-0.225,0.015
1560,-0.225,0.020
1561,-0.225,0.015
1562,-0.220,0.015
1563,-0.235,0.015
1564,-0.250,0.010
1565,-0.250,0.015
1566,-0.250,0.020
1567,-0.235,0.020
1568,-0.245,0.030
1569,-0.240,0.025
1570,-0.250,0.010
1571,-0.245,0.020
1572,-0.220,0.025
1573,-0.195,0.025
1574,-0.210,0.030
1575,-0.225,0.025
1576,-0.215,0.025
1577,-0.220,0.025
1578,-0.215,0.025
1579,-0.245,0.025
1580,-0.295,0.025
1581,-0.280,0.025
1582,-0.280,0.030
1583,-0.285,0.025
1584,-0.295,0.020
1585,-0.315,0.015
1586,-0.275,0.020
1587,-0.270,0.020
1588,-0.295,0.010
1589,-0.320,0.005
1590,-0.340,0.000
1591,-0.350,0.000
1592,-0.340,0.000
1593,-0.335,0.000
1594,-0.315,0.000
1595,-0.305,-0.005
1596,-0.310,-0.005
1597,-0.315,-0.005
1598,-0.315,-0.010
1599,-0.280,-0.005
1600,-0.240,-0.010
1601,-0.230,-0.010
1602,-0.205,-0.005
1603,-0.170,0.000
1604,-0.160,0.000
1605,-0.140,0.000
1606,-0.100,0.000
1607,-0.070,0.000
1608,-0.060,0.010
1609,-0.030,0.010
1610,-0.030,0.010
1611,-0.030,0.020
1612,-0.035,0.020
1613,-0.020,0.030
1614,-0.025,0.040
1615,-0.015,0.030
1616,0.000,0.030
1617,0.000,0.035
1618,0.005,0.035
1619,-0.015,0.025
1620,-0.010,0.020
1621,-0.010,0.020
1622,-0.010,0.020
1623,-0.015,0.020
1624,0.000,0.015
1625,0.000,0.015
1626,0.000,0.015
1627,0.005,0.010
1628,0.010,0.010
1629,0.015,0.010
1630,0.010,0.000
1631,0.010,0.000
1632,0.030,0.005
1633,0.040,0.000
1634,0.040,0.000
1635,0.040,0.000
1636,0.050,0.000
1637,0.065,0.005
1638,0.075,0.000
1639,0.070,0.000
1640,0.075,0.000
1641,0.095,0.000
1642,0.105,0.000
1643,0.105,0.000
1644,0.095,0.000
1645,0.095,0.000
1646,0.115,0.000
1647,0.120,0.000
1648,0.110,0.000
1649,0.105,0.000
1650,0.105,0.000
1651,0.115,0.000
1652,0.110,0.000
1653,0.105,0.000
1654,0.105,0.000
1655,0.105,0.000
1656,0.105,0.000
1657,0.100,0.000
1658,0.095,0.000
1659,0.110,-0.005
1660,0.110,0.000
1661,0.110,0.000
1662,0.110,0.000
1663,0.110,0.000
1664,0.105,0.000
1665,0.105,0.000
1666,0.105,0.000
1667,0.110,0.000
1668,0.095,0.000
1669,0.095,0.000
1670,0.095,0.000
1671,0.095,0.000
1672,0.085,0.000
1673,0.070,0.000
1674,0.080,0.000
1675,0.105,0.000
1676,0.115,0.000
1677,0.120,0.000
1678,0.125,0.000
1679,0.105,0.000
1680,0.055,0.005
1681,0.035,0.000
1682,0.030,0.000
1683,0.035,0.000
1684,0.045,0.000
1685,0.045,0.000
1686,0.040,0.000
1687,0.035,0.000
1688,0.030,0.000
1689,0.025,-0.005
1690,0.030,0.000
1691,0.050,0.000
1692,0.080,0.000
1693,0.125,0.000
1694,0.135,0.010
1695,0.150,0.080
1696,0.195,0.215
1697,0.215,0.250
1698,0.215,0.085
1699,0.245,-0.065
1700,0.340,-0.070
1701,0.500,-0.070
1702,0.650,-0.105
1703,0.790,-0.170
1704,0.840,-0.235
1705,0.900,-0.255
1706,0.555,-0.205
1707,0.180,-0.110
1708,0.005,-0.025
1709,-0.050,0.000
1710,-0.095,0.000
1711,-0.110,0.000
1712,-0.110,0.005
1713,-0.115,0.005
1714,-0.050,0.010
1715,-0.040,0.010
1716,-0.100,0.010
1717,-0.130,0.005
1718,-0.175,0.005
1719,-0.215,0.005
1720,-0.210,0.010
1721,-0.190,0.005
1722,-0.200,0.005
1723,-0.190,0.005
1724,-0.185,0.010
1725,-0.205,0.010
1726,-0.220,0.010
1727,-0.210,0.015
1728,-0.200,0.020
1729,-0.195,0.010
1730,-0.195,0.010
1731,-0.205,0.010
1732,-0.200,0.015
1733,-0.175,0.020
1734,-0.150,0.020
1735,-0.175,0.010
1736,-0.195,0.010
1737,-0.170,0.025
1738,-0.165,0.025
1739,-0.170,0.010
1740,-0.160,0.005
1741,-0.200,0.005
1742,-0.255,0.000
1743,-0.250,0.000
1744,-0.255,0.000
1745,-0.265,0.000
1746,-0.260,0.000
1747,-0.255,0.000
1748,-0.250,-0.005
1749,-0.270,-0.020
1750,-0.270,-0.015
1751,-0.230,-0.010
1752,-0.230,-0.020
1753,-0.210,-0.025
1754,-0.165,-0.030
1755,-0.195,-0.025
1756,-0.140,-0.010
1757,-0.125,-0.010
1758,-0.140,-0.015
1759,-0.125,-0.010
1760,-0.125,-0.005
1761,-0.145,-0.005
1762,-0.105,0.000
1763,-0.085,0.000
1764,-0.065,0.000
1765,-0.045,0.010
1766,-0.030,0.015
1767,-0.020,0.025
1768,0.005,0.030
1769,0.010,0.030
1770,0.010,0.030
1771,0.010,0.030
1772,-0.005,0.030
1773,-0.015,0.025
1774,-0.010,0.020
1775,-0.010,0.020
1776,-0.025,0.020
1777,-0.015,0.020
1778,-0.010,0.020
1779,-0.020,0.010
1780,-0.015,0.010
1781,-0.005,0.010
1782,-0.020,0.005
1783,-0.075,0.000
1784,-0.090,0.005
1785,-0.055,0.005
1786,-0.025,0.000
1787,-0.020,0.000
1788,-0.030,0.005
1789,-0.040,0.000
1790,-0.035,0.000
1791,-0.015,0.000
1792,-0.010,0.000
1793,-0.010,0.005
1794,-0.050,0.000
1795,-0.025,0.000
1796,0.000,0.005
1797,-0.020,0.005
1798,-0.070,0.000
1799,-0.070,0.000
1800,-0.055,0.000
1801,-0.015,0.000
1802,-0.015,0.000
1803,-0.030,0.000
1804,-0.045,0.000
1805,-0.050,0.000
1806,-0.040,0.000
1807,-0.025,0.000
1808,-0.005,0.000
1809,-0.015,0.000
1810,-0.015,0.000
1811,-0.025,0.000
1812,-0.040,0.000
1813,-0.015,0.000
1814,-0.005,0.000
1815,-0.020,0.000
1816,-0.015,0.000
1817,-0.025,0.000
1818,-0.030,0.000
1819,-0.015,0.000
1820,0.000,0.000
1821,0.000,0.000
1822,-0.020,0.000
1823,-0.010,0.000
1824,-0.010,0.000
1825,-0.015,0.000
1826,-0.015,0.000
1827,-0.015,0.000
1828,-0.010,0.000
1829,0.000,0.000
1830,0.005,0.000
1831,0.010,0.000
1832,0.005,0.005
1833,0.035,0.005
1834,0.020,0.000
1835,0.035,0.005
1836,0.030,0.010
1837,0.010,0.010
1838,0.005,0.000
1839,0.015,0.000
1840,0.015,0.000
1841,0.005,0.000
1842,0.010,0.000
1843,0.015,0.000
1844,0.015,0.000
1845,0.010,0.000
1846,0.010,0.000
1847,0.015,0.000
1848,0.015,0.000
1849,0.040,0.000
1850,0.105,0.000
1851,0.135,0.005
1852,0.175,0.065
1853,0.230,0.190
1854,0.245,0.260
1855,0.230,0.130
1856,0.245,-0.030
1857,0.350,-0.065
1858,0.505,-0.060
1859,0.660,-0.085
1860,0.810,-0.140
1861,0.890,-0.205
1862,0.915,-0.245
1863,0.770,-0.220
1864,0.380,-0.145
1865,0.125,-0.070
1866,0.040,-0.015
1867,0.005,0.000
1868,-0.010,0.000
1869,-0.005,0.000
1870,0.000,0.000
1871,-0.010,0.000
1872,-0.005,0.000
1873,-0.010,0.000
1874,0.000,0.000
1875,0.000,0.000
1876,0.000,0.000
1877,0.000,0.000
1878,0.000,0.000
1879,0.000,0.000
1880,0.000,0.000
1881,0.000,0.000
1882,0.000,0.000
1883,0.000,0.000
1884,0.000,0.000
1885,0.000,0.000
1886,-0.005,0.000
1887,-0.010,0.000
1888,-0.010,0.000
1889,0.000,0.000
1890,-0.010,0.000
1891,0.000,0.000
1892,-0.005,0.000
1893,-0.010,0.000
1894,-0.020,0.000
1895,-0.025,0.000
1896,-0.030,0.000
1897,-0.040,0.000
1898,-0.040,0.000
1899,-0.045,0.000
1900,-0.070,0.000
1901,-0.090,0.000
1902,-0.100,0.000
1903,-0.110,-0.010
1904,-0.115,-0.020
1905,-0.115,-0.015
1906,-0.120,-0.015
1907,-0.120,-0.030
1908,-0.110,-0.030
1909,-0.095,-0.030
1910,-0.075,-0.030
1911,-0.065,-0.035
1912,-0.050,-0.030
1913,-0.030,-0.030
1914,-0.025,-0.030
1915,-0.005,-0.030
1916,0.015,-0.025
1917,0.015,-0.015
1918,0.015,-0.005
1919,0.040,0.000
1920,0.075,0.000
1921,0.080,0.000
1922,0.085,0.000
1923,0.115,0.000
1924,0.120,0.005
1925,0.125,0.010
1926,0.120,0.010
1927,0.120,0.010
1928,0.115,0.010
1929,0.120,0.010
1930,0.110,0.015
1931,0.120,0.010
1932,0.120,0.010
1933,0.110,0.005
1934,0.110,0.005
1935,0.110,0.000
1936,0.085,0.000
1937,0.060,0.005
1938,0.065,0.010
1939,0.070,0.000
1940,0.060,0.000
1941,0.060,0.000
1942,0.060,0.000
1943,0.060,0.000
1944,0.050,0.000
1945,0.035,0.000
1946,0.025,0.000
1947,0.030,0.000
1948,0.040,0.000
1949,0.035,0.000
1950,0.030,0.000
1951,0.020,0.000
1952,0.025,0.000
1953,0.025,0.000
1954,0.015,0.000
1955,0.010,0.000
1956,0.000,0.000
1957,0.005,0.000
1958,0.005,0.000
1959,0.005,0.000
1960,0.000,0.000
1961,0.000,0.000
1962,0.000,0.000
1963,0.000,0.000
1964,0.000,0.000
1965,0.000,0.000
1966,0.000,0.000
1967,0.000,0.000
1968,0.000,0.000
1969,0.000,0.000
1970,-0.010,0.000
1971,-0.015,0.000
1972,-0.015,0.000
1973,-0.005,0.000
1974,0.000,0.000
1975,-0.005,0.000
1976,-0.010,0.000
1977,-0.010,0.000
1978,-0.015,0.000
1979,-0.005,0.000
1980,-0.010,0.000
1981,-0.015,0.000
1982,-0.005,0.000
1983,-0.005,0.000
1984,-0.015,0.000
1985,-0.020,0.000
1986,-0.015,0.000
1987,0.000,0.000
1988,0.030,0.000
1989,0.085,0.000
1990,0.065,0.000
1991,0.020,0.000
1992,-0.020,0.010
1993,-0.080,0.010
1994,-0.140,0.015
1995,-0.175,0.010
1996,-0.155,0.005
1997,-0.200,0.010
1998,-0.170,0.015
1999,-0.155,0.015
2000,-0.180,0.000
2001,-0.170,0.000
2002,-0.145,0.005
2003,-0.180,0.005
2004,-0.225,0.000
2005,-0.200,0.000
2006,-0.135,0.005
2007,-0.055,0.020
2008,-0.040,0.030
2009,-0.025,0.110
2010,-0.035,0.240
2011,-0.040,0.300
2012,-0.050,0.135
2013,-0.040,-0.015
2014,0.075,-0.040
2015,0.255,-0.040
2016,0.445,-0.055
2017,0.550,-0.105
2018,0.585,-0.175
2019,0.645,-0.210
2020,0.440,-0.185
2021,0.115,-0.105
2022,-0.120,-0.030
2023,-0.230,0.000
2024,-0.250,0.010
2025,-0.260,0.015
2026,-0.275,0.020
2027,-0.285,0.020
2028,-0.320,0.025
2029,-0.345,0.020
2030,-0.335,0.015
2031,-0.310,0.020
2032,-0.295,0.030
2033,-0.300,0.025
2034,-0.275,0.020
2035,-0.265,0.020
2036,-0.255,0.025
2037,-0.255,0.020
2038,-0.260,0.015
2039,-0.235,0.025
2040,-0.200,0.030
2041,-0.225,0.030
2042,-0.250,0.025
2043,-0.255,0.020
2044,-0.245,0.015
2045,-0.225,0.020
2046,-0.220,0.025
2047,-0.220,0.025
2048,-0.225,0.025
2049,-0.210,0.025
2050,-0.175,0.030
2051,-0.200,0.025
2052,-0.235,0.025
2053,-0.210,0.030
2054,-0.245,0.015
2055,-0.240,0.010
2056,-0.245,0.010
2057,-0.255,0.010
2058,-0.265,0.010
2059,-0.305,0.000
2060,-0.340,0.000
2061,-0.330,0.000
2062,-0.305,0.000
2063,-0.280,-0.005
2064,-0.275,-0.005
2065,-0.245,-0.005
2066,-0.230,-0.005
2067,-0.220,-0.010
2068,-0.220,-0.015
2069,-0.215,-0.010
2070,-0.190,-0.005
2071,-0.145,0.000
2072,-0.110,0.000
2073,-0.095,-0.005
2074,-0.085,-0.010
2075,-0.055,0.000
2076,-0.020,0.000
2077,-0.020,0.000
2078,0.000,0.000
2079,0.005,0.010
2080,0.030,0.020
2081,0.035,0.025
2082,0.030,0.015
2083,0.040,0.015
2084,0.045,0.030
2085,0.045,0.020
2086,0.050,0.015
2087,0.085,0.025
2088,0.085,0.025
2089,0.080,0.020
2090,0.060,0.010
2091,0.090,0.010
2092,0.070,0.010
2093,0.100,0.005
2094,0.095,0.005
2095,0.115,0.005
2096,0.120,0.005
2097,0.125,0.000
2098,0.125,0.000
2099,0.120,0.000
2100,0.125,0.000
2101,0.135,0.000
2102,0.140,0.000
2103,0.145,0.000
2104,0.150,0.000
2105,0.140,0.000
2106,0.140,0.000
2107,0.130,0.000
2108,0.135,0.000
2109,0.135,0.000
2110,0.130,0.000
2111,0.130,0.000
2112,0.140,-0.005
2113,0.140,0.000
2114,0.135,0.000
2115,0.140,0.000
2116,0.135,-0.005
2117,0.135,-0.005
2118,0.125,-0.005
2119,0.135,-0.005
2120,0.135,0.000
2121,0.140,0.000
2122,0.130,-0.005
2123,0.120,-0.005
2124,0.135,-0.005
2125,0.140,-0.005
2126,0.130,0.000
2127,0.125,0.000
2128,0.125,-0.005
2129,0.130,0.000
2130,0.130,0.000
2131,0.115,-0.005
2132,0.125,-0.005
2133,0.135,-0.005
2134,0.135,-0.005
2135,0.125,-0.005
2136,0.105,-0.005
2137,0.105,-0.005
2138,0.115,-0.005
2139,0.125,0.000
2140,0.130,0.000
2141,0.110,0.000
2142,0.110,0.000
2143,0.120,0.000
2144,0.125,-0.005
2145,0.125,-0.005
2146,0.130,-0.005
2147,0.140,-0.005
2148,0.140,0.000
2149,0.145,0.005
2150,0.155,0.000
2151,0.140,0.000
2152,0.100,0.000
2153,0.075,0.000
2154,0.090,0.000
2155,0.105,0.000
2156,0.105,0.000
2157,0.095,0.000
2158,0.070,0.000
2159,0.050,-0.005
2160,0.070,-0.005
2161,0.095,-0.005
2162,0.080,0.000
2163,0.070,0.000
2164,0.110,0.000
2165,0.155,0.000
2166,0.160,0.015
2167,0.185,0.100
2168,0.240,0.230
2169,0.225,0.260
2170,0.225,0.085
2171,0.255,-0.060
2172,0.380,-0.055
2173,0.575,-0.055
2174,0.720,-0.080
2175,0.850,-0.145
2176,0.890,-0.225
2177,0.955,-0.250
2178,0.640,-0.200
2179,0.240,-0.110
2180,0.035,-0.035
2181,-0.015,-0.005
2182,-0.025,0.000
2183,-0.045,0.000
2184,-0.055,0.000
2185,-0.075,0.000
2186,-0.100,0.000
2187,-0.095,0.000
2188,-0.080,0.000
2189,-0.080,0.000
2190,-0.090,0.005
2191,-0.100,0.000
2192,-0.085,0.000
2193,-0.065,0.000
2194,-0.080,0.000
2195,-0.075,0.000
2196,-0.050,0.005
2197,-0.055,0.005
2198,-0.075,0.000
2199,-0.090,0.000
2200,-0.080,0.010
2201,-0.080,0.005
2202,-0.070,0.005
2203,-0.060,0.005
2204,-0.070,0.005
2205,-0.085,0.010
2206,-0.110,0.005
2207,-0.130,0.005
2208,-0.130,0.000
2209,-0.115,0.000
2210,-0.135,0.005
2211,-0.155,0.005
2212,-0.175,0.010
2213,-0.185,0.005
2214,-0.190,0.000
2215,-0.190,0.000
2216,-0.235,0.000
2217,-0.225,0.000
2218,-0.230,0.000
2219,-0.255,0.000
2220,-0.265,-0.005
2221,-0.265,-0.010
2222,-0.255,-0.005
2223,-0.240,-0.015
2224,-0.220,-0.010
2225,-0.220,-0.015
2226,-0.215,-0.025
2227,-0.190,-0.030
2228,-0.205,-0.025
2229,-0.185,-0.010
2230,-0.165,-0.010
2231,-0.145,-0.005
2232,-0.130,0.000
2233,-0.120,0.000
2234,-0.110,0.000
2235,-0.090,0.005
2236,-0.060,0.005
2237,-0.040,0.005
2238,-0.025,0.020
2239,-0.020,0.020
2240,-0.010,0.025
2241,-0.005,0.030
2242,-0.015,0.030
2243,-0.015,0.030
2244,-0.015,0.030
2245,-0.010,0.030
2246,-0.010,0.030
2247,-0.020,0.030
2248,-0.025,0.030
2249,-0.035,0.030
2250,-0.035,0.030
2251,0.000,0.025
2252,-0.020,0.015
2253,-0.080,0.010
2254,-0.095,0.010
2255,-0.060,0.025
2256,-0.035,0.020
2257,-0.035,0.010
2258,-0.085,0.010
2259,-0.095,0.010
2260,-0.070,0.010
2261,-0.095,0.010
2262,-0.060,0.010
2263,-0.055,0.010
2264,-0.040,0.015
2265,-0.110,0.010
2266,-0.075,0.010
2267,-0.105,0.010
2268,-0.090,0.010
2269,-0.095,0.010
2270,-0.110,0.010
2271,-0.135,0.000
2272,-0.130,0.005
2273,-0.125,0.010
2274,-0.120,0.010
2275,-0.130,0.015
2276,-0.140,0.005
2277,-0.125,0.005
2278,-0.120,0.005
2279,-0.115,0.010
2280,-0.120,0.010
2281,-0.140,0.010
2282,-0.120,0.010
2283,-0.090,0.010
2284,-0.080,0.010
2285,-0.100,0.010
2286,-0.120,0.010
2287,-0.115,0.005
2288,-0.120,0.005
2289,-0.155,0.005
2290,-0.165,0.010
2291,-0.155,0.010
2292,-0.100,0.010
2293,-0.100,0.010
2294,-0.115,0.010
2295,-0.135,0.010
2296,-0.145,0.005
2297,-0.145,0.000
2298,-0.160,0.005
2299,-0.145,0.010
2300,-0.095,0.005
2301,-0.095,0.005
2302,-0.060,0.005
2303,-0.105,0.005
2304,-0.095,0.010
2305,-0.065,0.010
2306,-0.025,0.020
2307,-0.025,0.025
2308,-0.050,0.030
2309,-0.055,0.025
2310,-0.085,0.025
2311,-0.090,0.025
2312,-0.065,0.020
2313,-0.075,0.020
2314,-0.085,0.010
2315,-0.100,0.010
2316,-0.115,0.000
2317,-0.120,0.000
2318,-0.110,0.000
2319,-0.095,0.005
2320,-0.065,0.000
2321,-0.020,0.000
2322,0.015,0.010
2323,0.020,0.030
2324,0.035,0.110
2325,0.095,0.240
2326,0.110,0.260
2327,0.070,0.095
2328,0.120,-0.040
2329,0.270,-0.045
2330,0.430,-0.050
2331,0.575,-0.095
2332,0.680,-0.160
2333,0.745,-0.230
2334,0.740,-0.240
2335,0.490,-0.195
2336,0.135,-0.100
2337,-0.040,-0.030
2338,-0.115,0.000
2339,-0.125,0.010
2340,-0.130,0.010
2341,-0.145,0.010
2342,-0.170,0.010
2343,-0.140,0.010
2344,-0.130,0.020
2345,-0.130,0.010
2346,-0.140,0.010
2347,-0.125,0.010
2348,-0.140,0.010
2349,-0.130,0.010
2350,-0.120,0.010
2351,-0.100,0.005
2352,-0.100,0.005
2353,-0.090,0.010
2354,-0.100,0.005
2355,-0.080,0.005
2356,-0.080,0.010
2357,-0.045,0.000
2358,-0.030,0.005
2359,-0.015,0.010
2360,-0.030,0.000
2361,-0.030,0.005
2362,-0.020,0.005
2363,-0.010,0.000
2364,0.000,0.000
2365,-0.015,0.000
2366,-0.020,0.005
2367,-0.010,0.000
2368,-0.010,0.000
2369,-0.020,0.000
2370,-0.030,0.000
2371,-0.025,0.000
2372,-0.025,0.000
2373,-0.035,-0.005
2374,-0.055,-0.010
2375,-0.050,-0.025
2376,-0.060,-0.025
2377,-0.065,-0.020
2378,-0.060,-0.030
2379,-0.060,-0.035
2380,-0.055,-0.050
2381,-0.035,-0.050
2382,-0.020,-0.045
2383,-0.015,-0.040
2384,-0.005,-0.040
2385,0.000,-0.055
2386,0.015,-0.040
2387,0.030,-0.035
2388,0.050,-0.030
2389,0.100,-0.030
2390,0.105,-0.030
2391,0.130,-0.015
2392,0.140,-0.005
2393,0.145,0.000
2394,0.165,0.000
2395,0.210,0.000
2396,0.190,0.000
2397,0.165,0.000
2398,0.200,0.015
2399,0.210,0.010
2400,0.210,0.010
2401,0.200,0.005
2402,0.200,0.005
2403,0.175,0.005
2404,0.160,0.005
2405,0.160,0.000
2406,0.160,0.000
2407,0.155,0.000
2408,0.140,0.000
2409,0.140,0.000
2410,0.140,0.000
2411,0.135,0.000
2412,0.135,0.000
2413,0.120,0.000
2414,0.110,0.000
2415,0.110,0.000
2416,0.125,0.000
2417,0.115,0.000
2418,0.100,0.000
2419,0.105,0.000
2420,0.105,0.000
2421,0.105,0.000
2422,0.105,-0.005
2423,0.105,0.000
2424,0.100,0.000
2425,0.080,0.000
2426,0.055,0.000
2427,0.060,0.000
2428,0.060,0.000
2429,0.060,0.000
2430,0.065,0.000
2431,0.045,0.000
2432,0.060,0.000
2433,0.045,0.000
2434,0.045,0.000
2435,0.040,0.000
2436,0.030,0.000
2437,0.040,0.000
2438,0.025,0.000
2439,0.035,0.000
2440,0.040,0.000
2441,0.035,-0.010
2442,0.015,-0.005
2443,0.025,0.000
2444,0.035,0.000
2445,0.025,0.000
2446,0.025,0.000
2447,0.020,0.000
2448,0.010,0.000
2449,0.015,0.000
2450,0.020,0.000
2451,0.025,0.000
2452,0.035,0.000
2453,0.025,0.000
2454,0.010,0.000
2455,0.010,0.000
2456,0.030,0.000
2457,0.040,0.000
2458,0.020,0.000
2459,0.000,0.000
2460,0.005,0.000
2461,0.035,0.000
2462,0.060,0.000
2463,0.055,0.005
2464,0.040,0.005
2465,0.005,0.005
2466,-0.010,0.005
2467,-0.020,0.000
2468,-0.025,0.005
2469,-0.035,0.005
2470,-0.095,0.000
2471,-0.065,0.000
2472,-0.060,0.000
2473,-0.085,0.000
2474,-0.125,0.000
2475,-0.105,0.000
2476,-0.090,0.000
2477,-0.075,0.000
2478,-0.005,0.000
2479,0.025,0.015
2480,0.020,0.080
2481,0.065,0.215
2482,0.080,0.290
2483,0.060,0.140
2484,0.075,-0.015
2485,0.190,-0.045
2486,0.350,-0.045
2487,0.520,-0.055
2488,0.660,-0.120
2489,0.725,-0.185
2490,0.790,-0.225
2491,0.610,-0.205
2492,0.245,-0.125
2493,-0.020,-0.040
2494,-0.135,0.000
2495,-0.175,0.000
2496,-0.195,0.000
2497,-0.205,0.000
2498,-0.210,0.000
2499,-0.190,0.010
2500,-0.185,0.010
2501,-0.210,0.005
2502,-0.210,0.010
2503,-0.220,0.010
2504,-0.240,0.010
2505,-0.240,0.005
2506,-0.205,0.005
2507,-0.175,0.015
2508,-0.210,0.015
2509,-0.210,0.010
2510,-0.195,0.010
2511,-0.175,0.005
2512,-0.195,0.010
2513,-0.205,0.015
2514,-0.220,0.020
2515,-0.220,0.010
2516,-0.215,0.005
2517,-0.210,0.015
2518,-0.195,0.010
2519,-0.200,0.020
2520,-0.195,0.020
2521,-0.195,0.020
2522,-0.185,0.010
2523,-0.215,0.010
2524,-0.215,0.010
2525,-0.215,0.010
2526,-0.230,0.010
2527,-0.265,0.010
2528,-0.305,0.000
2529,-0.320,0.000
2530,-0.310,0.000
2531,-0.295,0.000
2532,-0.270,0.000
2533,-0.280,-0.010
2534,-0.295,-0.015
2535,-0.290,-0.005
2536,-0.280,-0.005
2537,-0.260,-0.015
2538,-0.240,-0.020
2539,-0.240,-0.020
2540,-0.225,-0.025
2541,-0.195,-0.025
2542,-0.165,-0.020
2543,-0.145,-0.015
2544,-0.145,-0.010
2545,-0.140,-0.005
2546,-0.100,0.000
2547,-0.055,0.000
2548,-0.025,0.000
2549,-0.015,0.000
2550,-0.010,0.005
2551,0.010,0.005
2552,0.030,0.005
2553,0.040,0.005
2554,0.050,0.035
2555,0.025,0.030
2556,0.035,0.025
2557,0.020,0.020
2558,0.030,0.020
2559,0.040,0.025
2560,0.045,0.025
2561,0.040,0.005
2562,0.040,0.010
2563,0.040,0.015
2564,0.035,0.000
2565,0.065,0.005
2566,0.070,0.000
2567,0.040,0.000
2568,0.050,0.000
2569,0.055,0.000
2570,0.065,0.005
2571,0.095,0.000
2572,0.105,0.000
2573,0.110,0.000
2574,0.115,0.000
2575,0.110,0.000
2576,0.110,0.000
2577,0.115,0.000
2578,0.120,0.000
2579,0.120,0.000
2580,0.125,0.000
2581,0.130,0.000
2582,0.125,-0.005
2583,0.120,0.000
2584,0.105,0.000
2585,0.095,0.000
2586,0.115,0.000
2587,0.115,0.000
2588,0.110,-0.005
2589,0.110,0.000
2590,0.110,0.000
2591,0.115,0.000
2592,0.120,-0.010
2593,0.120,-0.005
2594,0.120,0.000
2595,0.125,-0.005
2596,0.120,0.000
2597,0.115,0.000
2598,0.100,-0.010
2599,0.105,-0.005
2600,0.120,-0.005
2601,0.105,0.000
2602,0.105,0.000
2603,0.105,0.000
2604,0.120,-0.005
2605,0.110,-0.005
2606,0.105,-0.005
2607,0.095,-0.005
2608,0.095,0.000
2609,0.095,0.000
2610,0.085,-0.005
2611,0.105,-0.005
2612,0.075,-0.005
2613,0.060,0.000
2614,0.050,-0.005
2615,0.050,-0.005
2616,0.085,0.000
2617,0.100,0.000
2618,0.105,0.000
2619,0.105,0.000
2620,0.080,0.000
2621,0.045,0.000
2622,0.020,0.000
2623,0.020,0.000
2624,0.020,0.000
2625,0.015,0.005
2626,0.010,0.000
2627,0.005,0.000
2628,0.005,0.000
2629,0.010,0.000
2630,0.000,0.000
2631,0.000,0.000
2632,0.005,0.000
2633,0.035,0.000
2634,0.085,0.000
2635,0.105,0.020
2636,0.105,0.080
2637,0.195,0.205
2638,0.210,0.275
2639,0.140,0.170
2640,0.175,-0.030
2641,0.245,-0.045
2642,0.345,-0.045
2643,0.495,-0.075
2644,0.630,-0.120
2645,0.735,-0.195
2646,0.800,-0.240
2647,0.675,-0.210
2648,0.220,-0.130
2649,-0.025,-0.040
2650,-0.115,0.000
2651,-0.155,0.005
2652,-0.195,0.005
2653,-0.195,0.010
2654,-0.175,0.010
2655,-0.190,0.020
2656,-0.205,0.025
2657,-0.205,0.015
2658,-0.195,0.015
2659,-0.205,0.015
2660,-0.220,0.020
2661,-0.225,0.025
2662,-0.220,0.020
2663,-0.215,0.020
2664,-0.200,0.025
2665,-0.200,0.020
2666,-0.205,0.015
2667,-0.210,0.015
2668,-0.200,0.020
2669,-0.185,0.020
2670,-0.205,0.010
2671,-0.220,0.015
2672,-0.205,0.025
2673,-0.200,0.025
2674,-0.215,0.025
2675,-0.225,0.020
2676,-0.220,0.010
2677,-0.210,0.025
2678,-0.220,0.025
2679,-0.230,0.020
2680,-0.240,0.020
2681,-0.280,0.025
2682,-0.305,0.010
2683,-0.290,0.005
2684,-0.275,0.005
2685,-0.325,0.005
2686,-0.315,0.005
2687,-0.345,0.005
2688,-0.345,0.000
2689,-0.360,0.000
2690,-0.335,0.000
2691,-0.340,0.000
2692,-0.345,-0.005
2693,-0.315,-0.005
2694,-0.280,-0.005
2695,-0.265,-0.005
2696,-0.230,0.000
2697,-0.240,0.000
2698,-0.240,-0.005
2699,-0.225,-0.005
2700,-0.190,-0.005
2701,-0.135,0.000
2702,-0.100,0.005
2703,-0.095,0.000
2704,-0.105,0.000
2705,-0.115,0.005
2706,-0.090,0.020
2707,-0.060,0.030
2708,-0.060,0.030
2709,-0.035,0.030
2710,-0.010,0.030
2711,-0.005,0.030
2712,-0.005,0.040
2713,-0.020,0.040
2714,-0.025,0.045
2715,-0.030,0.040
2716,-0.055,0.030
2717,-0.060,0.030
2718,-0.040,0.025
2719,-0.045,0.020
2720,-0.055,0.025
2721,-0.040,0.020
2722,-0.020,0.020
2723,-0.025,0.020
2724,-0.070,0.025
2725,-0.095,0.015
2726,-0.085,0.015
2727,-0.045,0.015
2728,-0.040,0.025
2729,-0.060,0.015
2730,-0.055,0.010
2731,-0.040,0.010
2732,-0.040,0.010
2733,-0.095,0.005
2734,-0.115,0.010
2735,-0.075,0.015
2736,-0.060,0.010
2737,-0.030,0.010
2738,-0.035,0.010
2739,-0.040,0.005
2740,-0.005,0.005
2741,-0.055,0.010
2742,-0.100,0.010
2743,-0.065,0.005
2744,-0.065,0.005
2745,-0.060,0.010
2746,-0.065,0.010
2747,-0.065,0.010
2748,-0.035,0.010
2749,-0.030,0.000
2750,-0.065,0.000
2751,-0.060,0.005
2752,-0.020,0.010
2753,-0.015,0.005
2754,-0.030,0.000
2755,-0.035,0.000
2756,-0.055,0.010
2757,-0.060,0.015
2758,-0.055,0.010
2759,-0.030,0.005
2760,-0.020,0.000
2761,-0.035,0.000
2762,-0.070,0.005
2763,-0.035,0.000
2764,0.005,0.005
2765,-0.025,0.005
2766,-0.080,0.010
2767,-0.035,0.010
2768,-0.030,0.005
2769,-0.030,0.000
2770,-0.040,0.000
2771,-0.035,0.000
2772,-0.010,0.005
2773,-0.005,0.015
2774,-0.005,0.015
2775,0.030,0.025
2776,0.035,0.025
2777,0.020,0.010
2778,-0.010,0.010
2779,-0.020,0.010
2780,-0.035,0.010
2781,-0.030,0.005
2782,-0.015,0.005
2783,0.000,0.005
2784,0.000,0.000
2785,-0.010,0.000
2786,0.000,0.000
2787,-0.035,0.000
2788,-0.035,0.000
2789,-0.010,0.000
2790,0.035,0.000
2791,0.090,0.005
2792,0.105,0.055
2793,0.120,0.170
2794,0.145,0.275
2795,0.155,0.200
2796,0.160,0.015
2797,0.245,-0.055
2798,0.385,-0.050
2799,0.520,-0.060
2800,0.670,-0.100
2801,0.795,-0.170
2802,0.840,-0.235
2803,0.770,-0.235
2804,0.440,-0.175
2805,0.140,-0.085
2806,0.010,-0.025
2807,-0.030,0.000
2808,-0.040,0.000
2809,-0.040,0.000
2810,-0.060,0.000
2811,-0.085,0.000
2812,-0.050,0.000
2813,-0.050,0.000
2814,-0.055,0.000
2815,-0.060,0.000
2816,-0.060,0.000
2817,-0.040,0.000
2818,-0.025,0.000
2819,-0.020,0.000
2820,-0.010,0.000
2821,0.000,0.000
2822,0.000,0.000
2823,-0.010,0.000
2824,0.000,0.000
2825,0.000,0.000
2826,0.015,0.000
2827,0.010,0.000
2828,0.000,0.000
2829,0.000,0.000
2830,0.005,0.000
2831,0.010,0.000
2832,0.015,0.000
2833,0.025,0.000
2834,0.015,0.000
2835,0.010,0.000
2836,0.000,0.000
2837,0.000,0.000
2838,0.000,0.000
2839,0.005,0.000
2840,0.000,0.000
2841,-0.005,-0.010
2842,0.000,-0.015
2843,0.000,-0.020
2844,-0.020,-0.035
2845,-0.025,-0.030
2846,-0.030,-0.035
2847,-0.010,-0.045
2848,-0.025,-0.035
2849,-0.020,-0.040
2850,-0.005,-0.055
2851,-0.005,-0.050
2852,0.000,-0.045
2853,0.010,-0.040
2854,0.015,-0.050
2855,0.040,-0.045
2856,0.045,-0.050
2857,0.085,-0.045
2858,0.115,-0.025
2859,0.120,-0.025
2860,0.145,-0.020
2861,0.135,-0.005
2862,0.145,0.000
2863,0.165,0.000
2864,0.170,-0.005
2865,0.195,0.000
2866,0.220,0.000
2867,0.200,0.000
2868,0.180,0.005
2869,0.175,0.005
2870,0.190,0.000
2871,0.175,0.000
2872,0.165,0.000
2873,0.165,0.000
2874,0.150,0.000
2875,0.125,0.000
2876,0.130,0.000
2877,0.130,0.000
2878,0.115,0.000
2879,0.105,0.000
2880,0.110,0.000
2881,0.110,0.000
2882,0.110,0.000
2883,0.115,0.000
2884,0.100,-0.005
2885,0.090,0.000
2886,0.085,0.000
2887,0.095,0.000
2888,0.100,0.000
2889,0.080,0.000
2890,0.105,0.000
2891,0.100,0.000
2892,0.085,0.000
2893,0.050,0.000
2894,0.055,0.000
2895,0.060,0.000
2896,0.080,0.000
2897,0.065,-0.005
2898,0.060,-0.005
2899,0.060,0.000
2900,0.060,0.000
2901,0.060,0.000
2902,0.060,0.000
2903,0.080,0.000
2904,0.045,0.000
2905,0.055,0.000
2906,0.060,0.000
2907,0.045,0.000
2908,0.050,-0.005
2909,0.055,-0.005
2910,0.055,0.000
2911,0.055,0.000
2912,0.045,0.000
2913,0.060,0.000
2914,0.050,0.000
2915,0.035,0.000
2916,0.045,0.000
2917,0.055,0.000
2918,0.050,0.000
2919,0.040,0.000
2920,0.040,0.000
2921,0.050,0.000
2922,0.060,-0.005
2923,0.055,-0.005
2924,0.040,0.000
2925,0.035,-0.005
2926,0.045,0.000
2927,0.055,0.000
2928,0.050,0.000
2929,0.070,0.000
2930,0.105,0.000
2931,0.110,0.005
2932,0.120,0.000
2933,0.100,0.000
2934,0.050,0.000
2935,0.045,0.000
2936,0.040,0.000
2937,0.045,0.000
2938,0.045,0.000
2939,0.050,0.000
2940,0.050,0.000
2941,0.045,0.000
2942,0.035,-0.005
2943,0.035,-0.005
2944,0.040,-0.005
2945,0.035,-0.005
2946,0.065,0.000
2947,0.130,0.000
2948,0.140,0.000
2949,0.150,0.060
2950,0.215,0.190
2951,0.220,0.260
2952,0.210,0.100
2953,0.240,-0.040
2954,0.345,-0.055
2955,0.485,-0.055
2956,0.640,-0.080
2957,0.775,-0.120
2958,0.840,-0.190
2959,0.890,-0.230
2960,0.700,-0.210
2961,0.355,-0.135
2962,0.100,-0.050
2963,0.000,-0.005
2964,-0.025,0.000
2965,-0.030,0.000
2966,-0.040,0.000
2967,-0.060,0.000
2968,-0.060,0.000
2969,-0.060,0.005
2970,-0.065,0.000
2971,-0.065,0.000
2972,-0.055,0.010
2973,-0.080,0.010
2974,-0.090,0.000
2975,-0.055,0.000
2976,-0.050,0.005
2977,-0.050,0.000
2978,-0.060,0.000
2979,-0.095,0.000
2980,-0.095,0.000
2981,-0.045,0.005
2982,-0.040,0.000
2983,-0.065,0.000
2984,-0.095,0.000
2985,-0.080,0.005
2986,-0.085,0.005
2987,-0.060,0.005
2988,-0.085,0.005
2989,-0.105,0.005
2990,-0.100,0.005
2991,-0.100,0.005
2992,-0.105,0.015
2993,-0.110,0.005
2994,-0.115,0.000
2995,-0.120,0.000
2996,-0.140,0.000
2997,-0.145,0.000
2998,-0.145,0.000
2999,-0.155,0.000
3000,-0.165,0.000
3001,-0.165,-0.005
3002,-0.190,-0.015
3003,-0.200,-0.020
3004,-0.210,-0.020
3005,-0.200,-0.025
3006,-0.175,-0.035
3007,-0.170,-0.040
3008,-0.165,-0.035
3009,-0.150,-0.025
3010,-0.130,-0.025
3011,-0.095,-0.035
3012,-0.070,-0.035
3013,-0.050,-0.020
3014,-0.030,-0.010
3015,-0.005,-0.020
3016,0.000,-0.005
3017,0.010,0.000
3018,0.020,0.000
3019,0.025,0.000
3020,0.045,0.000
3021,0.055,0.005
3022,0.055,0.010
3023,0.060,0.015
3024,0.085,0.010
3025,0.105,0.010
3026,0.060,0.010
3027,0.080,0.010
3028,0.065,0.010
3029,0.055,0.010
3030,0.055,0.010
3031,0.055,0.010
3032,0.055,0.010
3033,0.055,0.000
3034,0.055,0.000
3035,0.045,0.000
3036,0.040,0.000
3037,0.040,0.000
3038,0.030,0.000
3039,0.030,0.000
3040,0.035,0.000
3041,0.045,0.000
3042,0.035,0.005
3043,0.025,0.000
3044,0.040,0.000
3045,0.050,0.000
3046,0.050,0.000
3047,0.040,0.000
3048,0.020,0.000
3049,0.020,0.000
3050,0.030,0.000
3051,0.025,0.000
3052,0.015,0.000
3053,0.010,0.000
3054,0.020,0.000
3055,0.035,0.000
3056,0.035,0.000
3057,0.025,0.000
3058,0.020,0.005
3059,0.025,0.000
3060,0.020,0.000
3061,0.010,0.000
3062,0.000,0.000
3063,0.005,0.000
3064,0.010,0.000
3065,0.015,0.000
3066,0.015,0.000
3067,0.005,0.000
3068,0.000,0.000
3069,0.000,0.000
3070,0.000,0.000
3071,0.000,0.005
3072,0.000,0.010
3073,-0.005,0.000
3074,-0.005,0.000
3075,-0.010,0.000
3076,-0.005,0.000
3077,-0.005,0.000
3078,-0.005,0.000
3079,0.000,0.005
3080,-0.005,0.000
3081,-0.030,0.000
3082,-0.015,0.000
3083,-0.005,0.000
3084,0.000,0.000
3085,0.000,0.005
3086,0.005,0.010
3087,0.015,0.010
3088,0.025,0.015
3089,0.045,0.025
3090,0.025,0.020
3091,-0.015,0.010
3092,-0.040,0.010
3093,-0.035,0.010
3094,-0.020,0.005
3095,-0.030,0.005
3096,-0.020,0.000
3097,-0.015,0.000
3098,-0.035,0.000
3099,-0.060,0.000
3100,-0.065,0.000
3101,-0.050,0.000
3102,-0.025,0.000
3103,0.030,0.000
3104,0.065,0.015
3105,0.050,0.055
3106,0.060,0.170
3107,0.075,0.270
3108,0.100,0.225
3109,0.070,0.005
3110,0.175,-0.050
3111,0.305,-0.050
3112,0.460,-0.060
3113,0.630,-0.095
3114,0.755,-0.175
3115,0.815,-0.210
3116,0.790,-0.225
3117,0.350,-0.155
3118,0.005,-0.065
3119,-0.105,-0.010
3120,-0.130,0.000
3121,-0.165,0.010
3122,-0.205,0.005
3123,-0.215,0.005
3124,-0.195,0.010
3125,-0.170,0.010
3126,-0.195,0.010
3127,-0.205,0.015
3128,-0.195,0.020
3129,-0.185,0.015
3130,-0.195,0.010
3131,-0.220,0.010
3132,-0.200,0.015
3133,-0.180,0.020
3134,-0.205,0.020
3135,-0.225,0.015
3136,-0.220,0.015
3137,-0.195,0.015
3138,-0.190,0.010
3139,-0.210,0.010
3140,-0.215,0.020
3141,-0.210,0.025
3142,-0.190,0.020
3143,-0.175,0.020
3144,-0.205,0.020
3145,-0.215,0.025
3146,-0.225,0.030
3147,-0.210,0.030
3148,-0.210,0.025
3149,-0.235,0.015
3150,-0.230,0.015
3151,-0.215,0.025
3152,-0.260,0.015
3153,-0.300,0.010
3154,-0.305,0.005
3155,-0.270,0.000
3156,-0.310,0.000
3157,-0.315,0.000
3158,-0.315,0.000
3159,-0.290,0.000
3160,-0.295,0.000
3161,-0.300,0.000
3162,-0.280,-0.005
3163,-0.285,-0.005
3164,-0.265,-0.005
3165,-0.240,-0.005
3166,-0.215,-0.005
3167,-0.205,-0.005
3168,-0.175,-0.005
3169,-0.135,-0.005
3170,-0.120,-0.005
3171,-0.120,0.000
3172,-0.085,0.000
3173,-0.060,0.000
3174,-0.050,0.000
3175,-0.050,0.005
3176,-0.030,0.010
3177,-0.005,0.015
3178,0.000,0.020
3179,0.000,0.025
3180,0.015,0.030
3181,0.010,0.030
3182,0.010,0.030
3183,0.005,0.030
3184,-0.005,0.025
3185,-0.020,0.025
3186,-0.025,0.025
3187,-0.025,0.025
3188,-0.035,0.020
3189,-0.030,0.015
3190,-0.030,0.010
3191,-0.030,0.010
3192,-0.015,0.010
3193,-0.020,0.010
3194,-0.035,0.015
3195,-0.030,0.010
3196,-0.065,0.010
3197,-0.035,0.010
3198,-0.030,0.010
3199,-0.105,0.005
3200,-0.040,0.005
3201,-0.030,0.005
3202,-0.030,0.005
3203,-0.015,0.000
3204,-0.025,0.000
3205,-0.030,0.000
3206,-0.030,0.005
3207,-0.030,0.005
3208,-0.015,0.005
3209,-0.010,0.000
3210,-0.010,0.000
3211,-0.015,0.000
3212,-0.020,0.005
3213,-0.020,0.010
3214,-0.055,0.000
3215,-0.035,0.000
3216,-0.015,0.000
3217,-0.005,0.000
3218,-0.005,0.005
3219,-0.025,0.000
3220,-0.025,0.000
3221,-0.015,0.005
3222,-0.025,0.010
3223,-0.035,0.010
3224,-0.030,0.005
3225,-0.030,0.000
3226,-0.030,0.000
3227,-0.030,0.000
3228,-0.020,0.000
3229,-0.025,0.000
3230,-0.020,0.010
3231,-0.025,0.010
3232,-0.040,0.010
3233,-0.060,0.010
3234,0.000,0.010
3235,-0.005,0.000
3236,-0.050,0.005
3237,-0.055,0.005
3238,-0.035,0.000
3239,-0.015,0.000
3240,-0.045,0.000
3241,0.000,0.010
3242,0.000,0.010
3243,0.010,0.015
3244,0.015,0.025
3245,0.000,0.025
3246,-0.045,0.020
3247,-0.065,0.010
3248,-0.035,0.010
3249,0.000,0.015
3250,-0.030,0.020
3251,-0.050,0.005
3252,-0.055,0.000
3253,-0.040,0.000
3254,-0.030,0.000
3255,-0.025,0.000
3256,-0.035,0.000
3257,-0.045,0.000
3258,0.005,0.000
3259,0.050,0.010
3260,0.040,0.040
3261,0.040,0.130
3262,0.095,0.255
3263,0.100,0.265
3264,0.060,0.105
3265,0.130,-0.030
3266,0.305,-0.040
3267,0.460,-0.050
3268,0.570,-0.085
3269,0.675,-0.145
3270,0.770,-0.210
3271,0.780,-0.225
3272,0.570,-0.190
3273,0.180,-0.105
3274,-0.055,-0.025
3275,-0.145,0.000
3276,-0.155,0.005
3277,-0.155,0.010
3278,-0.180,0.010
3279,-0.200,0.010
3280,-0.195,0.015
3281,-0.210,0.015
3282,-0.175,0.010
3283,-0.135,0.015
3284,-0.195,0.015
3285,-0.190,0.015
3286,-0.145,0.015
3287,-0.135,0.015
3288,-0.190,0.015
3289,-0.145,0.010
3290,-0.105,0.015
3291,-0.135,0.015
3292,-0.160,0.015
3293,-0.165,0.015
3294,-0.155,0.015
3295,-0.145,0.015
3296,-0.130,0.025
3297,-0.135,0.020
3298,-0.115,0.020
3299,-0.105,0.020
3300,-0.135,0.025
3301,-0.180,0.020
3302,-0.170,0.020
3303,-0.155,0.020
3304,-0.155,0.020
3305,-0.155,0.020
3306,-0.150,0.020
3307,-0.180,0.010
3308,-0.225,0.000
3309,-0.210,0.000
3310,-0.200,0.000
3311,-0.230,0.000
3312,-0.255,0.000
3313,-0.245,0.000
3314,-0.240,0.000
3315,-0.225,-0.005
3316,-0.200,-0.005
3317,-0.210,-0.005
3318,-0.240,-0.015
3319,-0.240,-0.015
3320,-0.180,-0.015
3321,-0.170,-0.015
3322,-0.140,-0.015
3323,-0.110,-0.010
3324,-0.060,-0.005
3325,-0.065,-0.005
3326,-0.055,0.000
3327,-0.035,0.000
3328,0.000,0.000
3329,0.000,0.000
3330,0.045,0.005
3331,0.010,0.010
3332,-0.005,0.010
3333,0.005,0.025
3334,0.060,0.030
3335,0.040,0.030
3336,0.005,0.025
3337,0.000,0.025
3338,0.050,0.030
3339,0.045,0.040
3340,0.015,0.030
3341,0.000,0.020
3342,0.005,0.020
3343,0.015,0.015
3344,0.020,0.015
3345,0.005,0.015
3346,0.000,0.015
3347,0.010,0.020
3348,0.010,0.015
3349,0.010,0.015
3350,0.015,0.015
3351,0.030,0.010
3352,0.025,0.010
3353,0.000,0.010
3354,-0.015,0.010
3355,0.000,0.010
3356,0.025,0.010
3357,0.020,0.010
3358,0.015,0.010
3359,0.015,0.010
3360,0.005,0.010
3361,0.010,0.010
3362,0.000,0.010
3363,0.010,0.010
3364,0.010,0.005
3365,0.020,0.005
3366,0.015,0.005
3367,0.025,0.005
3368,0.040,0.010
3369,0.045,0.005
3370,-0.020,0.005
3371,-0.020,0.005
3372,0.000,0.000
3373,0.040,0.005
3374,0.035,0.010
3375,0.020,0.010
3376,0.030,0.010
3377,0.025,0.005
3378,0.000,0.005
3379,0.015,0.005
3380,0.005,0.005
3381,-0.025,0.005
3382,-0.025,0.000
3383,0.020,0.005
3384,0.010,0.010
3385,-0.010,0.010
3386,-0.010,0.000
3387,0.005,0.000
3388,0.015,0.000
3389,0.015,0.005
3390,-0.010,0.010
3391,-0.030,0.005
3392,0.000,0.005
3393,0.010,0.005
3394,-0.005,0.005
3395,0.005,0.005
3396,0.010,0.005
3397,0.020,0.005
3398,0.070,0.020
3399,0.090,0.025
3400,0.050,0.020
3401,0.000,0.020
3402,-0.015,0.020
3403,-0.020,0.020
3404,0.000,0.015
3405,-0.005,0.010
3406,0.000,0.010
3407,0.010,0.005
3408,-0.035,0.000
3409,-0.025,0.000
3410,0.000,0.000
3411,-0.010,0.000
3412,-0.035,0.000
3413,0.010,0.000
3414,0.095,0.000
3415,0.115,0.015
3416,0.060,0.065
3417,0.140,0.195
3418,0.135,0.305
3419,0.045,0.205
3420,0.105,0.000
3421,0.265,-0.045
3422,0.400,-0.050
3423,0.555,-0.060
3424,0.680,-0.110
3425,0.745,-0.190
3426,0.835,-0.235
3427,0.755,-0.220
3428,0.415,-0.150
3429,0.125,-0.065
3430,-0.005,-0.010
3431,-0.040,0.005
3432,-0.040,0.010
3433,-0.075,0.010
3434,-0.135,0.010
3435,-0.170,0.010
3436,-0.140,0.010
3437,-0.110,0.010
3438,-0.115,0.015
3439,-0.110,0.020
3440,-0.110,0.015
3441,-0.115,0.005
3442,-0.125,0.005
3443,-0.115,0.015
3444,-0.095,0.010
3445,-0.065,0.010
3446,-0.045,0.010
3447,-0.090,0.010
3448,-0.140,0.010
3449,-0.125,0.010
3450,-0.115,0.010
3451,-0.130,0.010
3452,-0.115,0.010
3453,-0.110,0.010
3454,-0.075,0.010
3455,-0.055,0.015
3456,-0.115,0.015
3457,-0.120,0.015
3458,-0.110,0.010
3459,-0.085,0.015
3460,-0.115,0.010
3461,-0.140,0.010
3462,-0.150,0.005
3463,-0.130,0.005
3464,-0.130,0.000
3465,-0.150,0.000
3466,-0.155,0.000
3467,-0.165,0.000
3468,-0.205,0.000
3469,-0.215,-0.005
3470,-0.190,-0.005
3471,-0.170,-0.005
3472,-0.160,-0.010
3473,-0.140,-0.015
3474,-0.110,-0.015
3475,-0.095,-0.025
3476,-0.075,-0.030
3477,-0.045,-0.025
3478,-0.040,-0.025
3479,-0.050,-0.020
3480,-0.045,-0.015
3481,-0.030,-0.010
3482,-0.005,-0.005
3483,0.020,0.000
3484,0.040,0.000
3485,0.070,0.000
3486,0.075,0.005
3487,0.070,0.010
3488,0.110,0.010
3489,0.120,0.010
3490,0.125,0.015
3491,0.125,0.015
3492,0.115,0.020
3493,0.130,0.025
3494,0.130,0.020
3495,0.125,0.015
3496,0.125,0.015
3497,0.130,0.020
3498,0.125,0.015
3499,0.125,0.010
3500,0.120,0.010
3501,0.120,0.005
3502,0.135,0.000
3503,0.140,0.000
3504,0.135,0.005
3505,0.135,0.000
3506,0.135,0.000
3507,0.140,0.000
3508,0.150,0.000
3509,0.155,0.000
3510,0.145,0.000
3511,0.135,0.000
3512,0.145,0.000
3513,0.150,0.000
3514,0.140,0.000
3515,0.140,0.000
3516,0.155,0.000
3517,0.175,0.000
3518,0.180,0.000
3519,0.165,0.000
3520,0.180,0.000
3521,0.200,0.000
3522,0.200,0.000
3523,0.190,0.000
3524,0.175,0.000
3525,0.165,-0.005
3526,0.170,-0.005
3527,0.175,0.000
3528,0.160,0.000
3529,0.165,0.000
3530,0.165,0.000
3531,0.165,0.000
3532,0.160,-0.005
3533,0.200,-0.005
3534,0.205,-0.005
3535,0.170,-0.005
3536,0.160,-0.005
3537,0.200,-0.005
3538,0.200,-0.005
3539,0.205,-0.005
3540,0.190,-0.005
3541,0.205,-0.005
3542,0.175,-0.005
3543,0.165,-0.005
3544,0.195,-0.005
3545,0.165,-0.005
3546,0.185,-0.005
3547,0.210,-0.005
3548,0.215,-0.005
3549,0.225,0.000
3550,0.230,0.000
3551,0.205,0.000
3552,0.160,0.000
3553,0.145,0.000
3554,0.145,0.000
3555,0.155,0.000
3556,0.160,0.000
3557,0.155,0.000
3558,0.150,0.000
3559,0.145,-0.005
3560,0.140,-0.005
3561,0.130,-0.005
3562,0.135,-0.005
3563,0.140,-0.005
3564,0.175,-0.005
3565,0.220,0.000
3566,0.230,0.010
3567,0.235,0.075
3568,0.265,0.205
3569,0.280,0.245
3570,0.270,0.110
3571,0.310,-0.055
3572,0.445,-0.075
3573,0.610,-0.075
3574,0.750,-0.105
3575,0.890,-0.160
3576,0.955,-0.240
3577,0.970,-0.260
3578,0.775,-0.225
3579,0.385,-0.130
3580,0.120,-0.050
3581,0.035,-0.005
3582,0.010,0.000
3583,0.000,0.000
3584,-0.005,0.000
3585,-0.010,0.000
3586,-0.015,0.005
3587,-0.020,0.005
3588,-0.025,0.000
3589,-0.025,0.000
3590,-0.025,0.000
3591,-0.035,0.005
3592,-0.020,0.005
3593,-0.015,0.000
3594,-0.015,0.000
3595,-0.020,0.000
3596,-0.020,0.000
3597,-0.025,0.005
3598,-0.025,0.000
3599,-0.030,0.000
3600,-0.030,0.000
3601,-0.035,0.005
3602,-0.040,0.005
3603,-0.030,0.005
3604,-0.030,0.010
3605,-0.045,0.005
3606,-0.045,0.005
3607,-0.040,0.005
3608,-0.045,0.005
3609,-0.070,0.010
3610,-0.095,0.005
3611,-0.080,0.005
3612,-0.080,0.005
3613,-0.110,0.000
3614,-0.115,0.000
3615,-0.120,0.000
3616,-0.125,0.000
3617,-0.145,-0.005
3618,-0.160,-0.005
3619,-0.165,-0.010
3620,-0.165,-0.020
3621,-0.190,-0.030
3622,-0.160,-0.030
3623,-0.155,-0.035
3624,-0.150,-0.035
3625,-0.140,-0.035
3626,-0.130,-0.035
3627,-0.105,-0.035
3628,-0.100,-0.040
3629,-0.100,-0.040
3630,-0.055,-0.030
3631,-0.030,-0.020
3632,-0.010,-0.020
3633,0.005,-0.025
3634,0.020,-0.010
3635,0.025,-0.005
3636,0.030,-0.005
3637,0.060,0.000
3638,0.060,0.000
3639,0.080,0.000
3640,0.100,0.005
3641,0.105,0.010
3642,0.105,0.010
3643,0.110,0.010
3644,0.110,0.010
3645,0.110,0.010
3646,0.110,0.010
3647,0.105,0.015
3648,0.105,0.010
3649,0.100,0.005
3650,0.075,0.005
3651,0.060,0.000
3652,0.060,0.000
3653,0.060,0.000
3654,0.060,0.000
3655,0.060,0.000
3656,0.060,0.000
3657,0.055,0.000
3658,0.050,0.000
3659,0.045,0.000
3660,0.045,0.000
3661,0.055,0.000
3662,0.045,0.000
3663,0.045,0.000
3664,0.050,0.000
3665,0.080,-0.010
3666,0.060,-0.005
3667,0.060,0.000
3668,0.055,0.000
3669,0.040,0.000
3670,0.040,0.000
3671,0.030,0.000
3672,0.035,0.000
3673,0.050,0.000
3674,0.055,0.000
3675,0.065,-0.005
3676,0.035,-0.005
3677,0.030,-0.005
3678,0.010,0.000
3679,0.025,0.000
3680,0.030,-0.010
3681,0.035,-0.010
3682,0.040,0.000
3683,0.040,0.000
3684,0.035,0.000
3685,0.025,-0.005
3686,0.020,0.000
3687,0.025,0.000
3688,0.025,0.000
3689,0.020,0.000
3690,0.025,0.000
3691,0.030,0.000
3692,0.020,-0.005
3693,0.015,0.000
3694,0.015,0.000
3695,0.030,-0.005
3696,0.030,-0.005
3697,0.020,-0.005
3698,0.015,-0.005
3699,0.015,-0.005
3700,0.020,0.000
3701,0.025,0.000
3702,0.020,-0.005
3703,0.030,0.000
3704,0.045,0.000
3705,0.045,0.000
3706,0.055,0.000
3707,0.095,0.000
3708,0.040,0.000
3709,0.015,0.000
3710,0.000,0.000
3711,0.000,0.000
3712,0.000,-0.005
3713,0.010,0.000
3714,0.030,0.000
3715,0.005,-0.005
3716,0.010,-0.005
3717,0.000,-0.005
3718,0.010,-0.005
3719,0.005,-0.005
3720,0.025,-0.005
3721,0.100,0.000
3722,0.120,0.000
3723,0.115,0.045
3724,0.145,0.175
3725,0.160,0.265
3726,0.150,0.150
3727,0.170,-0.015
3728,0.280,-0.070
3729,0.420,-0.065
3730,0.575,-0.075
3731,0.725,-0.130
3732,0.810,-0.210
3733,0.875,-0.255
3734,0.745,-0.235
3735,0.380,-0.160
3736,0.090,-0.070
3737,-0.015,-0.025
3738,-0.055,-0.010
3739,-0.080,0.000
3740,-0.095,0.000
3741,-0.110,0.000
3742,-0.100,0.000
3743,-0.080,0.000
3744,-0.095,0.000
3745,-0.115,0.000
3746,-0.110,0.000
3747,-0.105,0.000
3748,-0.100,0.000
3749,-0.105,0.000
3750,-0.085,0.000
3751,-0.070,0.000
3752,-0.080,0.000
3753,-0.115,0.000
3754,-0.095,0.000
3755,-0.080,0.000
3756,-0.080,0.000
3757,-0.050,0.005
3758,-0.075,0.000
3759,-0.105,0.000
3760,-0.110,0.000
3761,-0.080,0.000
3762,-0.105,0.000
3763,-0.115,0.000
3764,-0.120,0.000
3765,-0.110,0.000
3766,-0.125,0.000
3767,-0.125,0.000
3768,-0.115,0.000
3769,-0.130,0.000
3770,-0.150,0.000
3771,-0.180,-0.005
3772,-0.195,0.000
3773,-0.175,-0.005
3774,-0.175,-0.015
3775,-0.200,-0.015
3776,-0.205,-0.015
3777,-0.205,-0.015
3778,-0.210,-0.025
3779,-0.205,-0.030
3780,-0.220,-0.030
3781,-0.220,-0.030
3782,-0.180,-0.035
3783,-0.145,-0.030
3784,-0.135,-0.030
3785,-0.115,-0.030
3786,-0.095,-0.030
3787,-0.075,-0.025
3788,-0.055,-0.010
3789,-0.015,-0.005
3790,0.000,-0.005
3791,0.010,-0.005
3792,0.020,0.000
3793,0.020,0.000
3794,0.025,0.000
3795,0.025,0.005
3796,0.045,0.005
3797,0.065,0.010
3798,0.100,0.010
3799,0.070,0.020
3800,0.030,0.010
3801,0.030,0.010
3802,0.035,0.010
3803,0.035,0.010
3804,0.035,0.010
3805,0.025,0.010
3806,0.010,0.010
3807,0.005,0.005
3808,0.020,0.005
3809,0.030,0.000
3810,0.015,0.000
3811,0.010,0.000
3812,0.015,0.000
3813,0.010,0.000
3814,0.010,0.005
3815,0.000,0.000
3816,0.000,0.000
3817,0.000,0.000
3818,0.000,0.000
3819,0.000,0.000
3820,0.000,0.000
3821,0.005,0.000
3822,0.005,0.000
3823,0.000,0.000
3824,0.000,0.000
3825,0.000,0.000
3826,-0.005,0.000
3827,0.000,0.000
3828,0.000,0.000
3829,0.000,0.000
3830,0.000,0.000
3831,-0.005,0.000
3832,0.010,0.000
3833,0.015,0.000
3834,0.005,0.000
3835,0.005,0.000
3836,0.000,0.000
3837,0.005,0.000
3838,0.015,0.000
3839,0.000,0.000
3840,0.000,0.000
3841,0.000,0.000
3842,0.005,0.000
3843,0.000,0.000
3844,0.015,0.000
3845,0.020,0.000
3846,0.010,0.000
3847,0.000,0.000
3848,0.000,0.000
3849,0.010,0.000
3850,0.000,0.000
3851,-0.005,0.000
3852,-0.010,0.000
3853,0.000,0.000
3854,0.010,0.000
3855,0.005,0.000
3856,0.000,0.000
3857,0.000,0.000
3858,0.000,0.000
3859,0.005,0.000
3860,0.005,0.005
3861,0.025,0.005
3862,0.040,0.015
3863,0.015,0.020
3864,0.000,0.005
3865,0.000,0.000
3866,-0.010,0.005
3867,-0.030,0.000
3868,-0.040,0.000
3869,-0.045,0.000
3870,-0.020,0.000
3871,-0.010,0.000
3872,-0.015,0.000
3873,-0.025,0.000
3874,-0.015,0.000
3875,0.015,0.000
3876,0.045,0.000
3877,0.050,0.010
3878,0.055,0.060
3879,0.120,0.190
3880,0.125,0.285
3881,0.120,0.185
3882,0.145,-0.040
3883,0.230,-0.060
3884,0.380,-0.050
3885,0.540,-0.065
3886,0.685,-0.110
3887,0.780,-0.190
3888,0.875,-0.235
3889,0.730,-0.225
3890,0.320,-0.145
3891,0.045,-0.060
3892,-0.050,-0.010
3893,-0.105,0.000
3894,-0.135,0.000
3895,-0.135,0.000
3896,-0.140,0.000
3897,-0.125,0.010
3898,-0.110,0.010
3899,-0.125,0.000
3900,-0.140,0.000
3901,-0.120,0.005
3902,-0.110,0.010
3903,-0.120,0.010
3904,-0.115,0.010
3905,-0.105,0.010
3906,-0.110,0.010
3907,-0.115,0.005
3908,-0.100,0.005
3909,-0.100,0.005
3910,-0.120,0.005
3911,-0.115,0.005
3912,-0.110,0.010
3913,-0.110,0.010
3914,-0.110,0.010
3915,-0.095,0.010
3916,-0.090,0.010
3917,-0.090,0.010
3918,-0.105,0.010
3919,-0.105,0.015
3920,-0.120,0.015
3921,-0.120,0.005
3922,-0.130,0.010
3923,-0.135,0.010
3924,-0.145,0.005
3925,-0.145,0.000
3926,-0.145,0.000
3927,-0.155,0.000
3928,-0.180,0.000
3929,-0.190,0.000
3930,-0.200,0.000
3931,-0.205,0.000
3932,-0.185,-0.005
3933,-0.190,-0.005
3934,-0.205,-0.020
3935,-0.190,-0.025
3936,-0.160,-0.015
3937,-0.145,-0.020
3938,-0.120,-0.025
3939,-0.100,-0.025
3940,-0.090,-0.020
3941,-0.065,-0.015
3942,-0.035,-0.005
3943,-0.020,-0.005
3944,-0.005,-0.005
3945,0.000,0.000
3946,0.010,0.000
3947,0.030,0.000
3948,0.040,0.000
3949,0.045,0.000
3950,0.060,0.015
3951,0.075,0.020
3952,0.075,0.020
3953,0.090,0.020
3954,0.085,0.020
3955,0.085,0.025
3956,0.060,0.025
3957,0.055,0.030
3958,0.050,0.025
3959,0.050,0.015
3960,0.055,0.010
3961,0.040,0.010
3962,0.040,0.010
3963,0.040,0.020
3964,0.035,0.010
3965,0.035,0.005
3966,0.025,0.000
3967,0.025,0.000
3968,0.035,0.010
3969,0.040,0.010
3970,0.040,0.005
3971,0.015,0.005
3972,0.015,0.010
3973,0.025,0.000
3974,0.030,0.000
3975,0.030,0.000
3976,0.030,0.000
3977,0.035,0.000
3978,0.035,0.005
3979,0.010,0.000
3980,0.010,0.000
3981,0.025,0.000
3982,0.020,0.000
3983,0.030,0.000
3984,0.045,0.005
3985,0.025,0.005
3986,-0.010,0.000
3987,-0.035,0.000
3988,-0.010,0.005
3989,0.015,0.005
3990,-0.020,0.000
3991,-0.065,0.000
3992,-0.055,0.000
3993,-0.025,0.005
3994,-0.010,0.005
3995,-0.025,0.005
3996,-0.035,0.010
3997,-0.040,0.010
3998,-0.075,0.005
3999,-0.100,0.005
4000,-0.100,0.010
4001,-0.095,0.010
4002,-0.100,0.010
4003,-0.105,0.010
4004,-0.120,0.010
4005,-0.140,0.010
4006,-0.130,0.010
4007,-0.130,0.010
4008,-0.140,0.010
4009,-0.115,0.010
4010,-0.115,0.015
4011,-0.125,0.015
4012,-0.120,0.015
4013,-0.100,0.010
4014,-0.100,0.015
4015,-0.090,0.025
4016,-0.095,0.035
4017,-0.100,0.030
4018,-0.105,0.030
4019,-0.125,0.025
4020,-0.145,0.025
4021,-0.145,0.030
4022,-0.120,0.030
4023,-0.125,0.015
4024,-0.130,0.010
4025,-0.110,0.010
4026,-0.110,0.010
4027,-0.155,0.000
4028,-0.200,0.000
4029,-0.215,0.005
4030,-0.165,0.010
4031,-0.095,0.010
4032,-0.060,0.020
4033,-0.040,0.080
4034,0.000,0.210
4035,0.025,0.300
4036,0.025,0.200
4037,0.020,0.005
4038,0.090,-0.050
4039,0.255,-0.050
4040,0.435,-0.070
4041,0.560,-0.125
4042,0.640,-0.200
4043,0.685,-0.235
4044,0.605,-0.220
4045,0.215,-0.130
4046,-0.030,-0.045
4047,-0.160,0.000
4048,-0.210,0.005
4049,-0.200,0.010
4050,-0.195,0.020
4051,-0.240,0.020
4052,-0.295,0.015
4053,-0.255,0.010
4054,-0.260,0.010
4055,-0.260,0.015
4056,-0.250,0.010
4057,-0.240,0.010
4058,-0.220,0.010
4059,-0.195,0.025
4060,-0.225,0.020
4061,-0.255,0.015
4062,-0.215,0.020
4063,-0.205,0.020
4064,-0.230,0.020
4065,-0.255,0.010
4066,-0.235,0.015
4067,-0.200,0.025
4068,-0.210,0.015
4069,-0.215,0.010
4070,-0.205,0.015
4071,-0.205,0.015
4072,-0.205,0.020
4073,-0.205,0.025
4074,-0.215,0.030
4075,-0.220,0.025
4076,-0.225,0.015
4077,-0.250,0.010
4078,-0.260,0.010
4079,-0.240,0.010
4080,-0.225,0.005
4081,-0.225,0.000
4082,-0.225,0.005
4083,-0.255,0.005
4084,-0.300,0.000
4085,-0.315,0.000
4086,-0.300,0.000
4087,-0.305,-0.005
4088,-0.270,-0.010
4089,-0.250,-0.005
4090,-0.245,0.000
4091,-0.220,-0.020
4092,-0.260,-0.025
4093,-0.245,-0.020
4094,-0.215,-0.015
4095,-0.165,-0.015
4096,-0.155,-0.015
4097,-0.145,-0.015
4098,-0.135,-0.015
4099,-0.085,-0.005
4100,-0.050,0.000
4101,-0.020,0.000
4102,-0.010,0.000
4103,-0.045,0.005
4104,-0.065,0.005
4105,-0.025,0.005
4106,-0.010,0.015
4107,-0.010,0.025
4108,0.005,0.030
4109,0.000,0.025
4110,0.000,0.025
4111,-0.005,0.030
4112,-0.020,0.030
4113,-0.020,0.025
4114,0.000,0.020
4115,0.000,0.020
4116,-0.020,0.010
4117,-0.040,0.010
4118,-0.045,0.015
4119,-0.025,0.015
4120,-0.010,0.015
4121,-0.025,0.010
4122,-0.055,0.010
4123,-0.080,0.010
4124,-0.045,0.010
4125,-0.020,0.010
4126,-0.020,0.010
4127,-0.025,0.010
4128,-0.035,0.010
4129,-0.025,0.005
4130,-0.055,0.005
4131,-0.065,0.005
4132,-0.040,0.010
4133,-0.055,0.005
4134,-0.065,0.005
4135,-0.045,0.010
4136,-0.040,0.010
4137,-0.055,0.005
4138,-0.050,0.005
4139,-0.040,0.005
4140,-0.015,0.005
4141,-0.010,0.010
4142,-0.060,0.000
4143,-0.040,0.000
4144,-0.015,0.005
4145,0.000,0.010
4146,-0.060,0.005
4147,-0.085,0.000
4148,-0.050,0.005
4149,-0.045,0.005
4150,-0.025,0.005
4151,-0.005,0.005
4152,0.000,0.010
4153,0.005,0.010
4154,0.000,0.010
4155,-0.015,0.010
4156,-0.035,0.005
4157,-0.035,0.005
4158,-0.035,0.010
4159,-0.020,0.010
4160,-0.010,0.005
4161,-0.015,0.005
4162,-0.020,0.005
4163,-0.025,0.005
4164,-0.015,0.010
4165,-0.015,0.010
4166,-0.015,0.005
4167,-0.015,0.000
4168,-0.015,0.000
4169,0.000,0.010
4170,0.025,0.020
4171,0.035,0.020
4172,0.025,0.020
4173,0.000,0.020
4174,0.000,0.020
4175,-0.025,0.010
4176,-0.045,0.010
4177,-0.025,0.015
4178,-0.025,0.015
4179,-0.045,0.005
4180,-0.035,0.000
4181,0.015,0.000
4182,0.000,0.000
4183,0.000,0.000
4184,-0.015,0.000
4185,0.000,0.000
4186,0.040,0.000
4187,0.070,0.000
4188,0.045,0.055
4189,0.065,0.200
4190,0.115,0.295
4191,0.105,0.185
4192,0.120,0.000
4193,0.240,-0.055
4194,0.390,-0.060
4195,0.505,-0.070
4196,0.630,-0.120
4197,0.720,-0.195
4198,0.780,-0.245
4199,0.680,-0.235
4200,0.355,-0.160
4201,0.070,-0.065
4202,-0.045,-0.010
4203,-0.095,0.000
4204,-0.110,0.000
4205,-0.120,0.010
4206,-0.160,0.020
4207,-0.205,0.015
4208,-0.185,0.010
4209,-0.155,0.010
4210,-0.155,0.010
4211,-0.150,0.010
4212,-0.175,0.010
4213,-0.200,0.015
4214,-0.175,0.015
4215,-0.105,0.010
4216,-0.100,0.010
4217,-0.115,0.020
4218,-0.145,0.015
4219,-0.155,0.010
4220,-0.135,0.010
4221,-0.135,0.010
4222,-0.160,0.010
4223,-0.140,0.010
4224,-0.130,0.010
4225,-0.100,0.025
4226,-0.105,0.015
4227,-0.105,0.025
4228,-0.110,0.020
4229,-0.115,0.020
4230,-0.120,0.010
4231,-0.090,0.015
4232,-0.120,0.015
4233,-0.145,0.010
4234,-0.170,0.000
4235,-0.160,0.000
4236,-0.145,0.000
4237,-0.160,0.000
4238,-0.200,0.000
4239,-0.215,0.000
4240,-0.200,0.000
4241,-0.210,-0.005
4242,-0.220,-0.015
4243,-0.195,-0.025
4244,-0.165,-0.020
4245,-0.185,-0.030
4246,-0.180,-0.035
4247,-0.145,-0.030
4248,-0.135,-0.030
4249,-0.125,-0.030
4250,-0.155,-0.030
4251,-0.170,-0.035
4252,-0.090,-0.020
4253,-0.015,-0.015
4254,-0.005,-0.015
4255,-0.010,-0.010
4256,0.005,0.000
4257,0.035,0.000
4258,0.035,0.000
4259,0.000,0.000
4260,0.020,0.010
4261,0.020,0.010
4262,0.035,0.010
4263,0.040,0.010
4264,0.110,0.030
4265,0.115,0.030
4266,0.070,0.025
4267,0.030,0.025
4268,0.020,0.025
4269,0.000,0.020
4270,0.030,0.025
4271,0.050,0.025
4272,0.025,0.015
4273,0.015,0.010
4274,0.015,0.010
4275,0.040,0.010
4276,0.045,0.010
4277,0.085,0.010
4278,0.035,0.010
4279,0.000,0.010
4280,0.000,0.005
4281,0.000,0.000
4282,0.000,0.000
4283,0.030,0.005
4284,0.040,0.000
4285,0.000,0.000
4286,-0.010,0.000
4287,0.030,0.000
4288,0.025,0.000
4289,0.000,0.000
4290,0.025,0.000
4291,0.035,0.000
4292,0.010,0.000
4293,0.010,0.005
4294,0.000,0.000
4295,0.000,0.000
4296,0.005,0.000
4297,0.000,0.000
4298,0.000,0.000
4299,0.005,0.000
4300,0.005,0.000
4301,0.010,0.000
4302,0.025,0.000
4303,0.040,0.000
4304,0.000,0.000
4305,-0.055,0.000
4306,-0.030,0.000
4307,0.040,0.000
4308,0.025,0.000
4309,0.000,0.000
4310,0.005,0.000
4311,0.035,0.000
4312,0.010,0.000
4313,0.010,0.000
4314,-0.005,0.000
4315,0.000,0.000
4316,-0.005,0.000
4317,0.000,0.000
4318,0.060,0.000
4319,0.015,0.000
4320,-0.015,0.000
4321,0.020,0.000
4322,0.040,0.000
4323,0.020,0.000
4324,0.000,0.000
4325,0.000,0.000
4326,0.010,0.000
4327,0.030,0.005
4328,0.045,0.010
4329,0.030,0.010
4330,0.005,0.010
4331,-0.010,0.005
4332,-0.005,0.000
4333,-0.005,0.000
4334,-0.005,0.000
4335,0.000,0.000
4336,0.005,0.000
4337,0.000,0.000
4338,0.005,0.000
4339,-0.010,0.000
4340,-0.030,0.000
4341,0.000,0.000
4342,0.020,0.000
4343,0.105,0.000
4344,0.125,0.015
4345,0.120,0.095
4346,0.090,0.225
4347,0.045,0.270
4348,0.050,0.100
4349,0.180,-0.055
4350,0.360,-0.055
4351,0.470,-0.055
4352,0.615,-0.090
4353,0.720,-0.150
4354,0.740,-0.235
4355,0.850,-0.250
4356,0.630,-0.210
4357,0.230,-0.130
4358,0.010,-0.050
4359,-0.020,-0.005
4360,-0.055,0.000
4361,-0.155,0.000
4362,-0.215,0.000
4363,-0.180,0.000
4364,-0.150,0.000
4365,-0.150,0.000
4366,-0.145,0.005
4367,-0.125,0.005
4368,-0.115,0.005
4369,-0.130,0.005
4370,-0.130,0.000
4371,-0.155,0.000
4372,-0.180,0.000
4373,-0.160,0.000
4374,-0.150,0.000
4375,-0.135,0.000
4376,-0.110,0.005
4377,-0.085,0.005
4378,-0.060,0.010
4379,-0.110,0.005
4380,-0.150,0.000
4381,-0.160,0.000
4382,-0.160,0.010
4383,-0.115,0.010
4384,-0.095,0.010
4385,-0.115,0.010
4386,-0.130,0.010
4387,-0.105,0.005
4388,-0.080,0.005
4389,-0.115,0.005
4390,-0.190,0.000
4391,-0.235,0.000
4392,-0.205,0.000
4393,-0.180,0.000
4394,-0.120,0.000
4395,-0.155,0.000
4396,-0.200,-0.005
4397,-0.235,-0.005
4398,-0.210,-0.005
4399,-0.205,-0.025
4400,-0.150,-0.030
4401,-0.160,-0.030
4402,-0.235,-0.030
4403,-0.235,-0.035
4404,-0.170,-0.030
4405,-0.090,-0.030
4406,-0.110,-0.030
4407,-0.120,-0.030
4408,-0.045,-0.025
4409,-0.015,-0.020
4410,-0.030,-0.015
4411,-0.015,-0.005
4412,-0.050,0.000
4413,-0.035,0.000
4414,0.045,0.000
4415,0.050,0.000
4416,0.015,0.000
4417,0.030,0.000
4418,0.080,0.010
4419,0.105,0.020
4420,0.060,0.015
4421,0.015,0.010
4422,0.015,0.010
4423,0.020,0.020
4424,0.010,0.025
4425,0.020,0.010
4426,0.075,0.010
4427,0.040,0.010
4428,0.020,0.005
4429,0.005,0.000
4430,-0.005,0.000
4431,0.010,0.000
4432,0.030,0.000
4433,0.035,0.005
4434,0.065,0.005
4435,0.040,0.000
4436,0.000,0.000
4437,0.000,0.000
4438,0.000,0.000
4439,0.005,0.000
4440,0.000,0.000
4441,0.000,0.000
4442,0.010,0.000
4443,0.075,0.000
4444,0.030,0.000
4445,0.010,0.000
4446,0.020,0.000
4447,0.005,0.000
4448,-0.020,0.000
4449,-0.015,0.000
4450,-0.005,0.000
4451,0.015,0.000
4452,0.045,0.000
4453,0.025,0.000
4454,0.005,0.000
4455,0.005,0.000
4456,0.010,0.000
4457,0.000,0.000
4458,-0.005,0.000
4459,0.000,0.000
4460,0.000,0.000
4461,-0.010,0.000
4462,0.000,0.000
4463,0.010,0.000
4464,0.015,0.000
4465,0.005,0.000
4466,-0.030,0.000
4467,0.000,0.000
4468,0.005,0.000
4469,0.010,0.000
4470,0.000,0.000
4471,-0.010,0.000
4472,-0.020,0.000
4473,0.000,0.000
4474,-0.005,0.000
4475,0.020,0.000
4476,0.000,0.000
4477,0.000,0.000
4478,0.015,0.000
4479,0.045,0.000
4480,0.010,0.000
4481,-0.010,0.000
4482,0.010,0.005
4483,0.035,0.010
4484,0.015,0.010
4485,0.025,0.010
4486,-0.005,0.005
4487,-0.015,0.000
4488,-0.020,0.000
4489,-0.010,0.000
4490,-0.010,0.000
4491,0.000,0.000
4492,0.005,0.000
4493,-0.025,0.000
4494,-0.025,0.000
4495,-0.025,0.000
4496,0.010,0.000
4497,0.085,0.000
4498,0.105,0.030
4499,0.060,0.105
4500,0.090,0.225
4501,0.155,0.270
4502,0.145,0.125
4503,0.150,-0.030
4504,0.235,-0.060
4505,0.365,-0.070
4506,0.550,-0.100
4507,0.745,-0.150
4508,0.845,-0.210
4509,0.805,-0.245
4510,0.615,-0.215
4511,0.250,-0.125
4512,0.000,-0.035
4513,-0.120,0.000
4514,-0.150,0.000
4515,-0.145,0.000
4516,-0.165,0.005
4517,-0.170,0.010
4518,-0.140,0.010
4519,-0.105,0.010
4520,-0.075,0.010
4521,-0.135,0.010
4522,-0.160,0.010
4523,-0.125,0.005
4524,-0.100,0.005
4525,-0.140,0.005
4526,-0.135,0.000
4527,-0.090,0.005
4528,-0.095,0.010
4529,-0.100,0.000
4530,-0.115,0.005
4531,-0.145,0.010
4532,-0.155,0.010
4533,-0.155,0.005
4534,-0.135,0.005
4535,-0.115,0.010
4536,-0.120,0.010
4537,-0.120,0.010
4538,-0.105,0.010
4539,-0.100,0.015
4540,-0.090,0.010
4541,-0.095,0.010
4542,-0.130,0.010
4543,-0.130,0.010
4544,-0.150,0.005
4545,-0.190,0.000
4546,-0.195,0.000
4547,-0.165,0.000
4548,-0.145,0.000
4549,-0.160,0.000
4550,-0.190,0.000
4551,-0.210,-0.005
4552,-0.195,-0.005
4553,-0.195,-0.005
4554,-0.210,-0.005
4555,-0.175,-0.020
4556,-0.160,-0.030
4557,-0.165,-0.030
4558,-0.170,-0.030
4559,-0.150,-0.030
4560,-0.115,-0.030
4561,-0.110,-0.025
4562,-0.105,-0.020
4563,-0.075,-0.020
4564,0.000,-0.020
4565,0.060,0.000
4566,0.025,0.000
4567,0.015,0.000
4568,0.005,0.000
4569,0.045,0.000
4570,0.010,0.000
4571,0.030,0.005
4572,0.040,0.010
4573,0.040,0.010
4574,0.040,0.010
4575,0.040,0.010
4576,0.055,0.010
4577,0.050,0.010
4578,0.050,0.010
4579,0.050,0.010
4580,0.040,0.010
4581,0.030,0.010
4582,0.010,0.005
4583,0.015,0.005
4584,0.020,0.000
4585,0.040,0.000
4586,0.080,0.005
4587,0.080,0.005
4588,0.035,0.000
4589,0.020,0.000
4590,0.020,0.000
4591,-0.005,0.000
4592,-0.015,0.000
4593,0.000,0.000
4594,0.000,0.000
4595,0.000,0.000
4596,0.025,0.000
4597,0.055,0.000
4598,0.040,0.000
4599,0.005,0.000
4600,0.010,0.000
4601,0.030,0.000
4602,0.000,0.000
4603,0.000,0.000
4604,-0.005,0.000
4605,-0.005,0.000
4606,0.000,0.000
4607,0.030,0.000
4608,0.020,0.000
4609,0.000,0.000
4610,0.000,0.000
4611,0.020,0.000
4612,0.015,0.000
4613,0.000,0.000
4614,-0.010,0.000
4615,0.000,0.000
4616,0.000,0.000
4617,0.015,0.000
4618,0.015,0.000
4619,-0.010,0.000
4620,-0.025,-0.005
4621,-0.020,0.000
4622,0.000,0.000
4623,0.010,0.000
4624,0.025,0.000
4625,0.015,0.000
4626,0.040,0.000
4627,0.025,0.000
4628,-0.045,0.000
4629,-0.080,0.000
4630,-0.040,0.000
4631,0.005,0.000
4632,-0.010,0.000
4633,-0.020,0.000
4634,0.000,0.000
4635,0.005,0.000
4636,0.015,0.000
4637,0.060,0.005
4638,0.065,0.010
4639,0.005,0.010
4640,-0.025,0.005
4641,-0.015,0.000
4642,0.000,0.000
4643,0.010,0.000
4644,-0.010,0.000
4645,-0.015,0.000
4646,-0.015,0.000
4647,-0.015,0.000
4648,-0.040,0.000
4649,-0.035,0.000
4650,-0.005,0.000
4651,-0.035,0.000
4652,0.020,0.000
4653,0.045,0.000
4654,0.055,0.015
4655,0.090,0.130
4656,0.125,0.260
4657,0.145,0.265
4658,0.125,0.045
4659,0.215,-0.060
4660,0.370,-0.055
4661,0.495,-0.070
4662,0.625,-0.105
4663,0.725,-0.180
4664,0.765,-0.245
4665,0.740,-0.265
4666,0.455,-0.205
4667,0.145,-0.110
4668,0.015,-0.035
4669,-0.035,-0.005
4670,-0.085,0.000
4671,-0.115,0.000
4672,-0.105,0.000
4673,-0.085,0.005
4674,-0.135,0.005
4675,-0.205,0.000
4676,-0.185,0.000
4677,-0.135,0.005
4678,-0.120,0.000
4679,-0.115,0.000
4680,-0.110,0.010
4681,-0.115,0.005
4682,-0.120,0.000
4683,-0.105,0.010
4684,-0.095,0.005
4685,-0.125,0.000
4686,-0.090,0.005
4687,-0.135,0.005
4688,-0.155,0.005
4689,-0.165,0.000
4690,-0.125,0.000
4691,-0.125,0.005
4692,-0.115,0.010
4693,-0.125,0.005
4694,-0.140,0.000
4695,-0.135,0.005
4696,-0.140,0.010
4697,-0.145,0.005
4698,-0.130,0.005
4699,-0.140,0.000
4700,-0.160,0.000
4701,-0.145,0.005
4702,-0.155,0.000
4703,-0.165,0.000
4704,-0.230,0.000
4705,-0.270,0.000
4706,-0.255,-0.005
4707,-0.230,-0.020
4708,-0.240,-0.025
4709,-0.260,-0.025
4710,-0.245,-0.030
4711,-0.205,-0.025
4712,-0.190,-0.025
4713,-0.180,-0.030
4714,-0.155,-0.030
4715,-0.135,-0.030
4716,-0.140,-0.025
4717,-0.130,-0.025
4718,-0.090,-0.030
4719,-0.085,-0.030
4720,-0.080,-0.020
4721,-0.025,-0.010
4722,-0.005,0.000
4723,-0.050,0.000
4724,-0.050,0.000
4725,-0.010,0.000
4726,0.020,0.005
4727,-0.005,0.010
4728,-0.005,0.010
4729,0.030,0.010
4730,0.005,0.015
4731,0.000,0.010
4732,0.000,0.010
4733,0.015,0.010
4734,0.000,0.010
4735,0.020,0.010
4736,0.015,0.015
4737,0.000,0.010
4738,-0.015,0.000
4739,-0.045,0.000
4740,-0.015,0.000
4741,-0.015,0.000
4742,0.010,0.000
4743,0.035,0.005
4744,-0.045,0.000
4745,-0.075,0.000
4746,-0.030,0.000
4747,-0.050,0.000
4748,-0.065,0.000
4749,-0.065,0.000
4750,-0.045,0.000
4751,-0.040,0.000
4752,-0.040,0.000
4753,-0.045,0.000
4754,-0.025,0.000
4755,-0.025,0.000
4756,-0.045,0.000
4757,-0.065,0.000
4758,-0.075,0.000
4759,-0.100,0.000
4760,-0.085,0.000
4761,-0.050,0.000
4762,-0.080,0.000
4763,-0.065,0.000
4764,-0.085,0.000
4765,-0.090,0.000
4766,-0.040,0.000
4767,-0.020,0.000
4768,-0.025,0.000
4769,-0.055,0.000
4770,-0.095,0.000
4771,-0.115,0.000
4772,-0.105,0.000
4773,-0.060,0.000
4774,-0.110,0.000
4775,-0.130,0.000
4776,-0.100,0.000
4777,-0.055,0.000
4778,-0.050,0.000
4779,-0.030,0.000
4780,-0.035,0.000
4781,-0.115,0.000
4782,-0.110,0.000
4783,-0.070,0.000
4784,-0.040,0.000
4785,-0.065,0.000
4786,-0.095,0.000
4787,-0.105,0.000
4788,-0.085,0.000
4789,-0.060,0.000
4790,-0.030,0.000
4791,0.000,0.000
4792,-0.010,0.000
4793,-0.075,0.000
4794,-0.070,0.005
4795,-0.085,0.010
4796,-0.105,0.010
4797,-0.100,0.005
4798,-0.105,0.000
4799,-0.120,0.000
4800,-0.075,0.005
4801,-0.030,0.005
4802,-0.085,0.000
4803,-0.145,0.000
4804,-0.120,0.000
4805,-0.085,0.000
4806,-0.080,0.000
4807,-0.065,0.000
4808,-0.035,0.000
4809,-0.040,0.000
4810,-0.060,0.010
4811,0.000,0.085
4812,0.015,0.225
4813,0.025,0.270
4814,0.015,0.100
4815,0.085,-0.060
4816,0.220,-0.065
4817,0.360,-0.070
4818,0.540,-0.100
4819,0.610,-0.170
4820,0.640,-0.250
4821,0.680,-0.275
4822,0.470,-0.225
4823,0.115,-0.120
4824,-0.070,-0.040
4825,-0.175,0.000
4826,-0.215,0.000
4827,-0.180,0.000
4828,-0.210,0.000
4829,-0.245,0.000
4830,-0.230,0.005
4831,-0.225,0.005
4832,-0.215,0.005
4833,-0.200,0.010
4834,-0.205,0.010
4835,-0.200,0.010
4836,-0.160,0.010
4837,-0.115,0.010
4838,-0.160,0.000
4839,-0.220,0.000
4840,-0.200,0.005
4841,-0.160,0.010
4842,-0.170,0.000
4843,-0.210,0.000
4844,-0.225,0.010
4845,-0.195,0.010
4846,-0.170,0.010
4847,-0.190,0.010
4848,-0.230,0.005
4849,-0.220,0.005
4850,-0.190,0.010
4851,-0.165,0.010
4852,-0.190,0.005
4853,-0.220,0.010
4854,-0.210,0.010
4855,-0.210,0.010
4856,-0.185,0.005
4857,-0.205,0.000
4858,-0.240,0.000
4859,-0.255,0.000
4860,-0.230,0.000
4861,-0.275,0.000
4862,-0.320,0.000
4863,-0.295,-0.010
4864,-0.290,-0.030
4865,-0.250,-0.025
4866,-0.240,-0.025
4867,-0.250,-0.025
4868,-0.270,-0.035
4869,-0.275,-0.040
4870,-0.215,-0.030
4871,-0.205,-0.030
4872,-0.185,-0.030
4873,-0.145,-0.030
4874,-0.140,-0.030
4875,-0.145,-0.030
4876,-0.130,-0.030
4877,-0.115,-0.015
4878,-0.060,-0.005
4879,-0.030,0.000
4880,-0.025,0.000
4881,-0.015,0.000
4882,-0.020,0.000
4883,-0.015,0.005
4884,-0.005,0.010
4885,-0.020,0.010
4886,-0.005,0.015
4887,0.015,0.030
4888,0.000,0.025
4889,-0.020,0.020
4890,-0.030,0.020
4891,-0.030,0.010
4892,-0.010,0.015
4893,0.000,0.020
4894,0.020,0.010
4895,0.000,0.010
4896,-0.030,0.010
4897,-0.005,0.010
4898,-0.020,0.010
4899,-0.055,0.005
4900,-0.035,0.000
4901,-0.010,0.000
4902,0.000,0.000
4903,0.000,0.005
4904,-0.010,0.005
4905,-0.055,0.000
4906,-0.020,0.000
4907,-0.010,0.000
4908,-0.010,0.005
4909,-0.010,0.000
4910,-0.015,0.000
4911,-0.045,0.000
4912,-0.020,0.000
4913,-0.010,0.000
4914,-0.005,0.000
4915,0.005,0.000
4916,-0.040,0.000
4917,-0.055,0.000
4918,-0.060,0.000
4919,-0.045,0.000
4920,-0.015,0.000
4921,0.000,0.000
4922,-0.030,0.000
4923,-0.030,0.000
4924,-0.020,0.000
4925,-0.025,0.000
4926,-0.025,0.000
4927,-0.010,0.000
4928,-0.015,0.000
4929,-0.030,0.000
4930,-0.020,0.000
4931,-0.020,0.000
4932,-0.040,0.000
4933,-0.045,0.000
4934,-0.015,0.000
4935,-0.030,0.000
4936,-0.040,0.000
4937,-0.005,0.000
4938,0.020,0.000
4939,-0.010,0.000
4940,-0.035,0.000
4941,-0.025,0.000
4942,-0.030,0.000
4943,-0.035,0.000
4944,-0.015,0.000
4945,-0.035,0.000
4946,-0.020,0.000
4947,0.000,0.000
4948,0.000,0.000
4949,0.010,0.000
4950,0.010,0.000
4951,0.025,0.010
4952,0.000,0.010
4953,-0.035,0.005
4954,-0.005,0.005
4955,0.015,0.005
4956,-0.015,0.000
4957,-0.060,0.000
4958,-0.045,0.000
4959,-0.020,0.000
4960,-0.025,0.000
4961,-0.015,0.000
4962,-0.015,0.000
4963,-0.040,0.000
4964,-0.035,0.000
4965,0.020,0.000
4966,0.050,0.000
4967,0.060,0.020
4968,0.100,0.125
4969,0.125,0.250
4970,0.115,0.240
4971,0.130,0.065
4972,0.195,-0.060
4973,0.290,-0.080
4974,0.440,-0.090
4975,0.585,-0.125
4976,0.665,-0.190
4977,0.735,-0.245
4978,0.755,-0.255
4979,0.525,-0.205
4980,0.180,-0.110
4981,-0.005,-0.030
4982,-0.045,0.000
4983,-0.085,0.000
4984,-0.145,0.000
4985,-0.145,0.000
4986,-0.155,0.000
4987,-0.145,0.005
4988,-0.155,0.005
4989,-0.140,0.000
4990,-0.100,0.000
4991,-0.105,0.000
4992,-0.125,0.005
4993,-0.105,0.005
4994,-0.130,0.000
4995,-0.140,0.000
4996,-0.130,0.000
4997,-0.115,0.005
4998,-0.100,0.000
4999,-0.100,0.000
5000,-0.065,0.005
5001,-0.100,0.010
5002,-0.130,0.010
5003,-0.125,0.010
5004,-0.105,0.005
5005,-0.100,0.000
5006,-0.110,0.005
5007,-0.145,0.010
5008,-0.140,0.005
5009,-0.085,0.005
5010,-0.080,0.010
5011,-0.110,0.005
5012,-0.140,0.000
5013,-0.155,0.000
5014,-0.170,0.000
5015,-0.195,0.000
5016,-0.200,0.000
5017,-0.210,0.000
5018,-0.210,0.000
5019,-0.190,-0.005
5020,-0.185,-0.005
5021,-0.215,-0.005
5022,-0.210,-0.015
5023,-0.170,-0.025
5024,-0.195,-0.030
5025,-0.175,-0.030
5026,-0.145,-0.030
5027,-0.150,-0.030
5028,-0.140,-0.030
5029,-0.110,-0.030
5030,-0.085,-0.030
5031,-0.110,-0.025
5032,-0.060,-0.015
5033,-0.005,-0.010
5034,-0.005,-0.005
5035,-0.005,-0.005
5036,0.010,0.000
5037,0.025,0.000
5038,0.040,0.000
5039,0.030,0.005
5040,0.025,0.000
5041,0.020,0.000
5042,0.040,0.005
5043,0.030,0.010
5044,0.020,0.010
5045,0.020,0.010
5046,0.030,0.010
5047,0.025,0.010
5048,0.025,0.010
5049,0.030,0.010
5050,0.025,0.005
5051,0.040,0.005
5052,0.045,0.005
5053,0.030,0.010
5054,0.020,0.000
5055,0.010,0.000
5056,0.005,0.000
5057,0.010,0.000
5058,0.005,0.000
5059,-0.015,0.000
5060,-0.015,0.000
5061,0.010,0.000
5062,0.035,0.000
5063,0.015,0.000
5064,0.005,0.005
5065,-0.015,0.000
5066,-0.010,0.000
5067,0.000,0.000
5068,0.010,0.000
5069,0.005,0.000
5070,0.000,0.000
5071,0.000,0.000
5072,0.000,0.000
5073,0.000,0.000
5074,0.000,0.000
5075,0.005,0.000
5076,-0.005,0.000
5077,-0.025,0.000
5078,-0.025,0.000
5079,-0.015,0.000
5080,0.000,0.000
5081,0.000,0.000
5082,-0.010,0.000
5083,0.000,0.000
5084,-0.020,0.000
5085,0.000,0.000
5086,0.000,0.000
5087,-0.015,0.000
5088,-0.010,0.000
5089,0.015,0.000
5090,0.000,0.000
5091,-0.005,0.000
5092,-0.005,0.000
5093,-0.010,0.000
5094,-0.020,0.000
5095,-0.005,0.000
5096,-0.005,0.000
5097,-0.020,0.000
5098,-0.030,0.000
5099,-0.020,0.000
5100,-0.005,0.000
5101,-0.015,0.000
5102,-0.005,0.000
5103,0.010,0.000
5104,0.020,0.000
5105,0.010,0.000
5106,0.020,0.010
5107,0.010,0.010
5108,-0.015,0.005
5109,-0.015,0.005
5110,-0.010,0.005
5111,-0.005,0.000
5112,-0.025,0.000
5113,-0.040,0.000
5114,-0.035,0.000
5115,-0.025,0.000
5116,-0.010,0.000
5117,-0.015,0.000
5118,-0.015,0.000
5119,-0.035,0.000
5120,-0.030,0.000
5121,0.030,0.000
5122,0.045,0.000
5123,0.080,0.040
5124,0.110,0.165
5125,0.120,0.290
5126,0.125,0.220
5127,0.125,0.005
5128,0.200,-0.065
5129,0.380,-0.075
5130,0.505,-0.090
5131,0.595,-0.135
5132,0.665,-0.215
5133,0.750,-0.255
5134,0.655,-0.240
5135,0.320,-0.170
5136,0.065,-0.080
5137,-0.050,-0.015
5138,-0.095,0.000
5139,-0.090,0.000
5140,-0.095,0.000
5141,-0.110,0.005
5142,-0.150,0.005
5143,-0.175,0.005
5144,-0.155,0.005
5145,-0.135,0.010
5146,-0.130,0.010
5147,-0.130,0.005
5148,-0.120,0.000
5149,-0.115,0.000
5150,-0.135,0.000
5151,-0.125,0.010
5152,-0.130,0.010
5153,-0.125,0.010
5154,-0.110,0.010
5155,-0.110,0.010
5156,-0.120,0.005
5157,-0.145,0.005
5158,-0.145,0.010
5159,-0.140,0.010
5160,-0.130,0.010
5161,-0.080,0.010
5162,-0.040,0.020
5163,-0.120,0.015
5164,-0.150,0.010
5165,-0.130,0.010
5166,-0.155,0.010
5167,-0.170,0.005
5168,-0.160,0.005
5169,-0.145,0.005
5170,-0.165,0.000
5171,-0.175,0.000
5172,-0.155,0.000
5173,-0.175,0.000
5174,-0.165,0.000
5175,-0.160,-0.005
5176,-0.190,-0.005
5177,-0.185,-0.005
5178,-0.180,-0.010
5179,-0.205,-0.020
5180,-0.190,-0.030
5181,-0.165,-0.030
5182,-0.145,-0.025
5183,-0.145,-0.025
5184,-0.140,-0.030
5185,-0.095,-0.025
5186,-0.070,-0.025
5187,-0.050,-0.020
5188,-0.015,-0.010
5189,-0.010,-0.005
5190,-0.005,-0.005
5191,0.010,0.000
5192,0.015,0.000
5193,0.015,0.000
5194,0.030,0.000
5195,0.055,0.000
5196,0.045,0.010
5197,0.030,0.010
5198,0.035,0.020
5199,0.085,0.020
5200,0.080,0.030
5201,0.065,0.025
5202,0.020,0.015
5203,0.015,0.010
5204,0.040,0.015
5205,0.030,0.010
5206,0.020,0.010
5207,0.025,0.010
5208,0.055,0.010
5209,0.040,0.005
5210,0.025,0.000
5211,0.020,0.000
5212,0.020,0.000
5213,0.020,0.005
5214,0.020,0.000
5215,0.035,0.000
5216,0.040,0.000
5217,0.025,0.000
5218,0.020,0.000
5219,0.010,0.000
5220,0.010,0.000
5221,0.025,0.000
5222,0.035,0.000
5223,0.015,0.000
5224,0.005,0.000
5225,0.015,0.000
5226,0.025,0.000
5227,0.015,0.000
5228,0.005,0.000
5229,0.005,0.000
5230,0.005,0.000
5231,0.020,0.000
5232,0.020,0.000
5233,0.025,0.000
5234,0.015,0.000
5235,0.000,0.000
5236,0.010,0.000
5237,0.025,0.000
5238,0.040,0.000
5239,0.035,0.000
5240,0.020,0.000
5241,0.025,0.000
5242,0.000,0.000
5243,0.025,0.000
5244,0.015,0.000
5245,-0.005,0.000
5246,-0.015,0.000
5247,0.010,0.000
5248,0.030,0.000
5249,0.035,0.000
5250,0.025,0.000
5251,0.025,0.000
5252,0.000,0.000
5253,0.020,0.000
5254,0.035,0.000
5255,0.015,0.000
5256,0.025,0.000
5257,0.045,0.000
5258,0.025,0.000
5259,0.035,0.000
5260,0.050,0.000
5261,0.045,0.000
5262,0.070,0.005
5263,0.085,0.010
5264,0.050,0.010
5265,0.025,0.010
5266,0.025,0.000
5267,0.030,0.000
5268,0.035,0.000
5269,0.030,0.005
5270,0.025,0.000
5271,0.020,0.000
5272,0.005,0.000
5273,0.000,0.000
5274,0.005,0.000
5275,0.015,0.000
5276,0.030,0.000
5277,0.085,0.000
5278,0.130,0.000
5279,0.125,0.020
5280,0.145,0.105
5281,0.210,0.245
5282,0.215,0.280
5283,0.170,0.105
5284,0.220,-0.055
5285,0.370,-0.065
5286,0.515,-0.075
5287,0.645,-0.110
5288,0.765,-0.175
5289,0.805,-0.250
5290,0.910,-0.270
5291,0.595,-0.215
5292,0.220,-0.105
5293,0.030,-0.030
5294,0.010,0.000
5295,-0.005,0.000
5296,0.000,0.005
5297,-0.015,0.005
5298,-0.040,0.005
5299,-0.030,0.010
5300,-0.015,0.010
5301,-0.010,0.010
5302,0.000,0.010
5303,-0.010,0.010
5304,-0.005,0.010
5305,0.010,0.005
5306,0.010,0.000
5307,0.010,0.005
5308,0.015,0.010
5309,0.010,0.010
5310,0.015,0.005
5311,0.020,0.005
5312,0.030,0.005
5313,0.040,0.000
5314,0.040,0.000
5315,0.050,0.005
5316,0.050,0.010
5317,0.050,0.005
5318,0.050,0.000
5319,0.045,0.000
5320,0.040,0.005
5321,0.030,0.000
5322,0.025,0.000
5323,0.020,0.000
5324,0.020,0.000
5325,0.020,0.000
5326,0.020,0.000
5327,0.005,0.000
5328,0.000,0.000
5329,0.005,-0.005
5330,0.000,-0.005
5331,0.000,-0.010
5332,-0.010,-0.010
5333,0.000,-0.010
5334,-0.005,-0.010
5335,0.005,-0.020
5336,0.020,-0.025
5337,0.000,-0.030
5338,-0.025,-0.035
5339,-0.010,-0.030
5340,0.005,-0.040
5341,0.030,-0.035
5342,0.050,-0.030
5343,0.085,-0.030
5344,0.110,-0.030
5345,0.120,-0.020
5346,0.135,-0.005
5347,0.155,-0.005
5348,0.160,0.000
5349,0.180,0.000
5350,0.210,0.000
5351,0.225,0.000
5352,0.230,0.005
5353,0.230,0.010
5354,0.215,0.010
5355,0.210,0.010
5356,0.220,0.010
5357,0.225,0.020
5358,0.215,0.015
5359,0.210,0.010
5360,0.210,0.010
5361,0.190,0.010
5362,0.170,0.010
5363,0.165,0.010
5364,0.155,0.005
5365,0.170,0.000
5366,0.190,0.000
5367,0.210,0.000
5368,0.205,0.000
5369,0.170,0.000
5370,0.175,0.000
5371,0.185,0.000
5372,0.175,0.000
5373,0.170,0.000
5374,0.150,0.000
5375,0.160,0.000
5376,0.160,0.000
5377,0.185,0.000
5378,0.155,0.000
5379,0.155,0.000
5380,0.150,0.000
5381,0.160,0.000
5382,0.155,0.000
5383,0.160,0.000
5384,0.165,0.000
5385,0.160,0.000
5386,0.155,0.000
5387,0.160,0.000
5388,0.160,0.000
5389,0.150,0.000
5390,0.145,0.000
5391,0.150,0.000
5392,0.155,0.000
5393,0.145,0.000
5394,0.145,0.000
5395,0.150,0.000
5396,0.150,0.000
5397,0.150,0.000
5398,0.155,0.000
5399,0.145,0.000
5400,0.135,0.000
5401,0.135,0.000
5402,0.145,0.000
5403,0.155,0.000
5404,0.150,0.000
5405,0.145,0.000
5406,0.145,0.000
5407,0.150,0.000
5408,0.160,0.000
5409,0.155,0.000
5410,0.140,0.000
5411,0.140,0.000
5412,0.140,0.000
5413,0.140,0.000
5414,0.145,0.000
5415,0.145,0.000
5416,0.145,0.000
5417,0.150,0.000
5418,0.165,0.010
5419,0.170,0.010
5420,0.185,0.010
5421,0.160,0.015
5422,0.135,0.015
5423,0.125,0.010
5424,0.130,0.010
5425,0.125,0.010
5426,0.125,0.010
5427,0.105,0.010
5428,0.110,0.000
5429,0.115,0.000
5430,0.120,0.000
5431,0.120,0.000
5432,0.120,0.000
5433,0.125,0.000
5434,0.185,0.000
5435,0.225,0.005
5436,0.230,0.050
5437,0.255,0.165
5438,0.285,0.275
5439,0.275,0.220
5440,0.270,0.030
5441,0.350,-0.065
5442,0.490,-0.075
5443,0.635,-0.095
5444,0.765,-0.135
5445,0.840,-0.200
5446,0.860,-0.250
5447,0.785,-0.240
5448,0.485,-0.170
5449,0.190,-0.075
5450,0.045,-0.010
5451,0.015,0.000
5452,0.000,0.015
5453,-0.005,0.010
5454,0.000,0.010
5455,-0.010,0.015
5456,-0.005,0.025
5457,-0.005,0.010
5458,-0.015,0.010
5459,-0.010,0.015
5460,0.000,0.020
5461,-0.015,0.015
5462,-0.010,0.015
5463,0.000,0.020
5464,0.000,0.015
5465,-0.010,0.020
5466,-0.015,0.020
5467,-0.015,0.020
5468,-0.010,0.020
5469,0.000,0.020
5470,0.000,0.015
5471,0.000,0.020
5472,0.000,0.025
5473,0.000,0.025
5474,-0.010,0.020
5475,-0.015,0.025
5476,-0.020,0.030
5477,-0.015,0.020
5478,-0.015,0.020
5479,-0.030,0.020
5480,-0.030,0.025
5481,-0.020,0.025
5482,-0.030,0.015
5483,-0.040,0.010
5484,-0.050,0.010
5485,-0.070,0.005
5486,-0.075,0.000
5487,-0.080,0.000
5488,-0.100,0.000
5489,-0.110,0.000
5490,-0.120,-0.005
5491,-0.120,-0.005
5492,-0.120,-0.005
5493,-0.115,-0.015
5494,-0.100,-0.015
5495,-0.070,-0.020
5496,-0.060,-0.015
5497,-0.035,-0.015
5498,-0.015,-0.020
5499,0.000,-0.015
5500,0.005,-0.010
5501,0.020,-0.005
5502,0.040,0.000
5503,0.050,0.000
5504,0.085,0.000
5505,0.090,0.000
5506,0.100,0.000
5507,0.110,0.005
5508,0.110,0.015
5509,0.115,0.020
5510,0.135,0.025
5511,0.140,0.030
5512,0.130,0.030
5513,0.130,0.030
5514,0.125,0.030
5515,0.125,0.030
5516,0.125,0.030
5517,0.125,0.030
5518,0.110,0.035
5519,0.105,0.030
5520,0.105,0.030
5521,0.115,0.030
5522,0.110,0.025
5523,0.105,0.025
5524,0.080,0.020
5525,0.070,0.015
5526,0.090,0.020
5527,0.100,0.020
5528,0.095,0.015
5529,0.075,0.020
5530,0.055,0.015
5531,0.065,0.015
5532,0.060,0.015
5533,0.065,0.015
5534,0.065,0.015
5535,0.075,0.010
5536,0.055,0.010
5537,0.055,0.010
5538,0.055,0.010
5539,0.070,0.010
5540,0.080,0.010
5541,0.050,0.010
5542,0.050,0.010
5543,0.055,0.015
5544,0.065,0.010
5545,0.060,0.010
5546,0.065,0.010
5547,0.060,0.010
5548,0.055,0.010
5549,0.055,0.010
5550,0.060,0.010
5551,0.060,0.010
5552,0.055,0.010
5553,0.055,0.010
5554,0.060,0.010
5555,0.050,0.010
5556,0.055,0.010
5557,0.060,0.000
5558,0.055,0.005
5559,0.050,0.010
5560,0.055,0.010
5561,0.045,0.010
5562,0.045,0.010
5563,0.050,0.010
5564,0.050,0.010
5565,0.045,0.010
5566,0.040,0.000
5567,0.045,0.000
5568,0.055,0.005
5569,0.055,0.005
5570,0.045,0.000
5571,0.040,0.000
5572,0.040,0.000
5573,0.065,0.010
5574,0.095,0.010
5575,0.105,0.010
5576,0.105,0.020
5577,0.110,0.020
5578,0.080,0.015
5579,0.040,0.015
5580,0.035,0.010
5581,0.030,0.010
5582,0.040,0.010
5583,0.035,0.010
5584,0.035,0.005
5585,0.040,0.000
5586,0.055,0.000
5587,0.035,0.000
5588,0.020,0.000
5589,0.020,0.000
5590,0.060,0.000
5591,0.120,0.000
5592,0.140,0.000
5593,0.130,0.050
5594,0.180,0.200
5595,0.235,0.305
5596,0.230,0.170
5597,0.235,-0.025
5598,0.320,-0.075
5599,0.450,-0.085
5600,0.585,-0.105
5601,0.720,-0.165
5602,0.765,-0.235
5603,0.805,-0.270
5604,0.630,-0.230
5605,0.305,-0.140
5606,0.075,-0.055
5607,0.000,-0.010
5608,-0.015,0.000
5609,-0.030,0.005
5610,-0.050,0.010
5611,-0.050,0.010
5612,-0.045,0.010
5613,-0.055,0.010
5614,-0.055,0.010
5615,-0.055,0.010
5616,-0.060,0.010
5617,-0.055,0.010
5618,-0.045,0.010
5619,-0.040,0.015
5620,-0.040,0.020
5621,-0.035,0.010
5622,-0.025,0.010
5623,-0.030,0.010
5624,-0.040,0.010
5625,-0.055,0.010
5626,-0.040,0.010
5627,-0.040,0.015
5628,-0.050,0.020
5629,-0.050,0.020
5630,-0.050,0.015
5631,-0.040,0.015
5632,-0.050,0.025
5633,-0.040,0.015
5634,-0.050,0.010
5635,-0.055,0.010
5636,-0.075,0.010
5637,-0.100,0.015
5638,-0.100,0.015
5639,-0.100,0.010
5640,-0.115,0.000
5641,-0.120,0.000
5642,-0.120,0.000
5643,-0.125,0.000
5644,-0.140,0.000
5645,-0.135,0.000
5646,-0.140,0.000
5647,-0.145,-0.005
5648,-0.145,-0.010
5649,-0.145,-0.020
5650,-0.145,-0.025
5651,-0.130,-0.025
5652,-0.120,-0.025
5653,-0.115,-0.025
5654,-0.090,-0.025
5655,-0.070,-0.025
5656,-0.055,-0.020
5657,-0.025,-0.015
5658,0.000,-0.015
5659,0.010,-0.010
5660,0.010,0.000
5661,0.030,0.000
5662,0.045,0.000
5663,0.040,0.000
5664,0.040,0.005
5665,0.065,0.010
5666,0.065,0.010
5667,0.105,0.020
5668,0.105,0.025
5669,0.100,0.030
5670,0.090,0.025
5671,0.080,0.020
5672,0.050,0.020
5673,0.065,0.020
5674,0.060,0.020
5675,0.060,0.020
5676,0.060,0.015
5677,0.050,0.010
5678,0.055,0.010
5679,0.040,0.010
5680,0.045,0.010
5681,0.045,0.010
5682,0.035,0.005
5683,0.035,0.005
5684,0.035,0.010
5685,0.035,0.010
5686,0.040,0.010
5687,0.040,0.010
5688,0.040,0.000
5689,0.040,0.000
5690,0.040,0.005
5691,0.025,0.005
5692,0.025,0.005
5693,0.025,0.000
5694,0.020,0.000
5695,0.025,0.005
5696,0.025,0.005
5697,0.015,0.005
5698,0.025,0.000
5699,0.025,0.000
5700,0.020,0.000
5701,0.020,0.000
5702,0.025,0.000
5703,0.020,0.000
5704,0.010,0.000
5705,0.000,0.000
5706,0.000,0.000
5707,0.015,0.000
5708,0.015,0.000
5709,0.020,0.000
5710,0.020,0.000
5711,0.015,0.000
5712,0.015,0.000
5713,0.015,0.000
5714,0.005,0.000
5715,0.000,0.000
5716,0.015,0.000
5717,0.025,0.000
5718,0.030,0.000
5719,0.020,0.000
5720,0.005,0.000
5721,0.015,0.000
5722,0.005,0.000
5723,0.015,0.000
5724,0.020,0.000
5725,0.015,0.000
5726,0.005,0.000
5727,0.005,0.000
5728,0.015,0.000
5729,0.035,0.005
5730,0.040,0.005
5731,0.040,0.010
5732,0.045,0.010
5733,0.040,0.010
5734,0.015,0.010
5735,0.005,0.010
5736,0.005,0.010
5737,0.010,0.010
5738,0.005,0.005
5739,0.005,0.000
5740,0.005,0.000
5741,0.000,0.000
5742,0.000,0.000
5743,0.000,0.000
5744,0.000,0.000
5745,0.000,0.000
5746,0.030,0.000
5747,0.095,0.000
5748,0.105,0.010
5749,0.130,0.085
5750,0.185,0.225
5751,0.200,0.290
5752,0.175,0.150
5753,0.180,-0.050
5754,0.300,-0.080
5755,0.440,-0.090
5756,0.565,-0.125
5757,0.685,-0.180
5758,0.745,-0.255
5759,0.795,-0.275
5760,0.600,-0.230
5761,0.195,-0.125
5762,0.000,-0.035
5763,-0.035,0.000
5764,-0.065,0.000
5765,-0.100,0.000
5766,-0.110,0.005
5767,-0.100,0.010
5768,-0.100,0.010
5769,-0.110,0.010
5770,-0.110,0.010
5771,-0.105,0.010
5772,-0.105,0.010
5773,-0.105,0.010
5774,-0.105,0.010
5775,-0.095,0.010
5776,-0.095,0.010
5777,-0.100,0.010
5778,-0.105,0.010
5779,-0.095,0.010
5780,-0.095,0.010
5781,-0.085,0.010
5782,-0.085,0.010
5783,-0.100,0.010
5784,-0.095,0.010
5785,-0.095,0.010
5786,-0.100,0.010
5787,-0.100,0.010
5788,-0.090,0.015
5789,-0.085,0.010
5790,-0.090,0.010
5791,-0.070,0.010
5792,-0.090,0.010
5793,-0.120,0.010
5794,-0.120,0.010
5795,-0.120,0.005
5796,-0.120,0.000
5797,-0.130,0.000
5798,-0.155,0.000
5799,-0.155,0.000
5800,-0.190,-0.005
5801,-0.165,-0.005
5802,-0.165,-0.005
5803,-0.165,-0.005
5804,-0.165,-0.005
5805,-0.170,-0.020
5806,-0.145,-0.025
5807,-0.125,-0.025
5808,-0.125,-0.030
5809,-0.125,-0.030
5810,-0.100,-0.030
5811,-0.080,-0.030
5812,-0.045,-0.025
5813,-0.040,-0.025
5814,-0.020,-0.015
5815,0.000,-0.005
5816,0.010,-0.005
5817,0.020,0.000
5818,0.025,0.000
5819,0.030,0.000
5820,0.035,0.000
5821,0.040,0.000
5822,0.045,0.005
5823,0.055,0.015
5824,0.060,0.020
5825,0.055,0.020
5826,0.055,0.015
5827,0.055,0.015
5828,0.050,0.015
5829,0.050,0.015
5830,0.050,0.015
5831,0.035,0.010
5832,0.030,0.010
5833,0.035,0.010
5834,0.025,0.010
5835,0.025,0.005
5836,0.040,0.005
5837,0.040,0.005
5838,0.030,0.005
5839,0.030,0.000
5840,0.030,0.000
5841,0.015,0.000
5842,0.010,0.000
5843,0.010,0.000
5844,0.020,0.000
5845,0.020,0.000
5846,0.020,0.000
5847,0.015,0.000
5848,0.015,0.000
5849,0.015,0.000
5850,0.000,0.000
5851,0.010,0.000
5852,0.015,0.000
5853,0.015,0.000
5854,0.020,0.000
5855,0.015,0.000
5856,0.015,0.000
5857,0.005,0.000
5858,0.005,0.000
5859,0.015,0.000
5860,0.010,0.000
5861,0.005,0.000
5862,0.010,0.000
5863,0.010,0.000
5864,0.005,0.000
5865,0.010,0.000
5866,0.015,0.000
5867,0.015,0.000
5868,0.005,0.000
5869,0.000,0.000
5870,0.000,0.000
5871,0.005,0.000
5872,0.010,0.000
5873,0.000,0.000
5874,0.000,0.000
5875,0.000,0.000
5876,0.000,0.000
5877,0.000,0.000
5878,0.000,0.000
5879,0.000,0.000
5880,0.005,0.000
5881,0.000,0.000
5882,0.005,0.000
5883,0.005,0.000
5884,0.015,0.000
5885,0.015,0.000
5886,0.015,0.000
5887,0.020,0.000
5888,0.030,0.005
5889,0.040,0.005
5890,0.025,0.010
5891,0.005,0.010
5892,0.000,0.000
5893,0.000,0.000
5894,0.000,0.005
5895,0.000,0.010
5896,0.010,0.000
5897,0.000,0.000
5898,0.000,0.000
5899,-0.005,0.000
5900,0.000,0.000
5901,0.000,0.000
5902,0.000,0.000
5903,0.010,0.000
5904,0.045,0.000
5905,0.075,0.005
5906,0.115,0.075
5907,0.180,0.210
5908,0.205,0.290
5909,0.170,0.160
5910,0.175,-0.025
5911,0.270,-0.080
5912,0.400,-0.090
5913,0.540,-0.120
5914,0.670,-0.170
5915,0.740,-0.240
5916,0.730,-0.275
5917,0.585,-0.245
5918,0.240,-0.140
5919,0.045,-0.045
5920,-0.030,0.000
5921,-0.080,0.000
5922,-0.095,0.005
5923,-0.085,0.010
5924,-0.110,0.010
5925,-0.115,0.010
5926,-0.105,0.010
5927,-0.110,0.010
5928,-0.110,0.010
5929,-0.090,0.010
5930,-0.090,0.010
5931,-0.090,0.010
5932,-0.070,0.010
5933,-0.100,0.010
5934,-0.115,0.010
5935,-0.110,0.010
5936,-0.100,0.010
5937,-0.115,0.010
5938,-0.100,0.010
5939,-0.100,0.010
5940,-0.100,0.010
5941,-0.080,0.010
5942,-0.065,0.015
5943,-0.085,0.015
5944,-0.085,0.010
5945,-0.095,0.010
5946,-0.105,0.010
5947,-0.120,0.015
5948,-0.130,0.015
5949,-0.125,0.010
5950,-0.115,0.010
5951,-0.125,0.010
5952,-0.135,0.010
5953,-0.135,0.005
5954,-0.135,0.000
5955,-0.140,0.000
5956,-0.160,0.000
5957,-0.175,0.000
5958,-0.195,-0.005
5959,-0.205,-0.005
5960,-0.195,-0.005
5961,-0.185,-0.005
5962,-0.190,-0.020
5963,-0.175,-0.025
5964,-0.140,-0.030
5965,-0.130,-0.030
5966,-0.120,-0.030
5967,-0.115,-0.030
5968,-0.110,-0.030
5969,-0.070,-0.025
5970,-0.025,-0.020
5971,-0.015,-0.010
5972,-0.005,-0.005
5973,0.000,-0.005
5974,0.010,-0.005
5975,0.015,0.000
5976,0.025,0.000
5977,0.030,0.000
5978,0.035,0.005
5979,0.045,0.010
5980,0.075,0.015
5981,0.055,0.020
5982,0.050,0.020
5983,0.050,0.020
5984,0.035,0.015
5985,0.035,0.015
5986,0.030,0.015
5987,0.035,0.010
5988,0.040,0.010
5989,0.030,0.010
5990,0.035,0.010
5991,0.025,0.010
5992,0.020,0.010
5993,0.035,0.010
5994,0.030,0.000
5995,0.020,0.000
5996,0.010,0.005
5997,0.005,0.000
5998,0.010,0.000
5999,0.015,0.000
6000,0.020,0.000
6001,0.015,0.000
6002,0.010,0.000
6003,0.010,0.000
6004,0.020,0.000
6005,0.010,0.000
6006,0.005,0.000
6007,0.000,0.000
6008,0.000,0.000
6009,0.015,0.000
6010,0.005,0.000
6011,0.000,0.000
6012,0.000,0.000
6013,0.000,0.000
6014,0.000,0.000
6015,0.000,0.000
6016,0.005,0.000
6017,0.000,0.000
6018,0.000,0.000
6019,0.015,0.000
6020,0.010,0.000
6021,0.000,0.000
6022,0.000,0.000
6023,0.000,0.000
6024,0.010,0.000
6025,0.000,0.000
6026,0.000,0.000
6027,0.000,0.000
6028,0.000,0.000
6029,0.005,0.000
6030,0.000,0.000
6031,0.005,0.000
6032,0.000,0.000
6033,-0.005,0.000
6034,0.000,0.000
6035,0.000,0.000
6036,0.000,0.000
6037,0.000,0.000
6038,0.000,0.000
6039,0.000,0.000
6040,0.000,0.000
6041,-0.010,0.000
6042,0.000,0.000
6043,0.010,0.000
6044,0.020,0.000
6045,0.015,0.005
6046,0.015,0.005
6047,0.025,0.010
6048,0.010,0.010
6049,0.000,0.010
6050,-0.010,0.010
6051,-0.010,0.010
6052,-0.010,0.010
6053,-0.010,0.010
6054,-0.005,0.005
6055,0.000,0.000
6056,-0.010,0.000
6057,-0.020,0.000
6058,-0.015,0.000
6059,-0.020,0.000
6060,-0.025,0.000
6061,0.025,0.000
6062,0.080,0.000
6063,0.055,0.020
6064,0.100,0.125
6065,0.150,0.265
6066,0.140,0.290
6067,0.115,0.055
6068,0.170,-0.065
6069,0.310,-0.080
6070,0.455,-0.090
6071,0.580,-0.130
6072,0.680,-0.200
6073,0.710,-0.255
6074,0.695,-0.265
6075,0.440,-0.200
6076,0.130,-0.100
6077,-0.025,-0.025
6078,-0.075,0.000
6079,-0.100,0.005
6080,-0.115,0.005
6081,-0.120,0.010
6082,-0.120,0.010
6083,-0.120,0.010
6084,-0.130,0.015
6085,-0.140,0.010
6086,-0.125,0.010
6087,-0.115,0.015
6088,-0.120,0.020
6089,-0.125,0.020
6090,-0.120,0.020
6091,-0.125,0.020
6092,-0.105,0.010
6093,-0.105,0.010
6094,-0.110,0.015
6095,-0.120,0.010
6096,-0.120,0.010
6097,-0.120,0.015
6098,-0.120,0.020
6099,-0.120,0.020
6100,-0.120,0.015
6101,-0.115,0.020
6102,-0.110,0.020
6103,-0.115,0.020
6104,-0.115,0.020
6105,-0.110,0.020
6106,-0.110,0.025
6107,-0.140,0.015
6108,-0.150,0.010
6109,-0.145,0.010
6110,-0.155,0.005
6111,-0.160,0.000
6112,-0.165,0.000
6113,-0.170,0.000
6114,-0.195,0.000
6115,-0.205,0.000
6116,-0.205,0.000
6117,-0.210,-0.005
6118,-0.215,-0.010
6119,-0.205,-0.015
6120,-0.195,-0.020
6121,-0.175,-0.030
6122,-0.165,-0.030
6123,-0.155,-0.030
6124,-0.135,-0.030
6125,-0.120,-0.035
6126,-0.095,-0.030
6127,-0.070,-0.030
6128,-0.050,-0.030
6129,-0.040,-0.020
6130,-0.020,-0.005
6131,0.000,0.000
6132,0.005,0.000
6133,0.005,0.000
6134,0.000,0.000
6135,0.020,0.000
6136,0.025,0.010
6137,0.035,0.010
6138,0.045,0.020
6139,0.035,0.030
6140,0.035,0.030
6141,0.025,0.030
6142,0.020,0.030
6143,0.030,0.030
6144,0.040,0.030
6145,0.025,0.030
6146,0.010,0.025
6147,0.010,0.020
6148,0.015,0.020
6149,0.025,0.020
6150,0.020,0.010
6151,0.015,0.010
6152,0.015,0.010
6153,0.020,0.010
6154,0.010,0.010
6155,0.010,0.010
6156,0.000,0.005
6157,0.000,0.005
6158,0.010,0.010
6159,0.020,0.010
6160,0.020,0.010
6161,0.010,0.010
6162,0.000,0.010
6163,0.005,0.005
6164,0.005,0.005
6165,0.000,0.005
6166,0.000,0.005
6167,0.005,0.005
6168,0.005,0.005
6169,0.000,0.005
6170,0.000,0.010
6171,0.000,0.005
6172,0.005,0.000
6173,0.010,0.000
6174,0.000,0.000
6175,0.000,0.005
6176,0.000,0.005
6177,0.000,0.005
6178,0.005,0.000
6179,0.005,0.000
6180,0.005,0.005
6181,0.000,0.000
6182,0.000,0.000
6183,0.000,0.000
6184,0.000,0.000
6185,0.005,0.000
6186,0.000,0.000
6187,0.000,0.000
6188,0.000,0.000
6189,0.000,0.000
6190,0.000,0.000
6191,0.010,0.005
6192,0.000,0.000
6193,0.005,0.000
6194,0.015,0.000
6195,0.015,0.000
6196,0.000,0.000
6197,0.000,0.000
6198,0.005,0.000
6199,0.000,0.000
6200,0.000,0.000
6201,0.000,0.000
6202,0.000,0.000
6203,0.010,0.000
6204,0.025,0.000
6205,0.045,0.005
6206,0.050,0.010
6207,0.025,0.010
6208,0.005,0.005
6209,0.000,0.005
6210,0.000,0.005
6211,-0.005,0.005
6212,0.000,0.000
6213,0.000,0.000
6214,0.000,0.000
6215,0.000,0.000
6216,0.000,0.000
6217,0.000,0.000
6218,0.000,0.000
6219,0.005,0.000
6220,0.035,0.000
6221,0.080,0.000
6222,0.065,0.020
6223,0.120,0.125
6224,0.150,0.270
6225,0.170,0.265
6226,0.135,0.015
6227,0.195,-0.095
6228,0.345,-0.090
6229,0.490,-0.115
6230,0.625,-0.140
6231,0.705,-0.225
6232,0.720,-0.275
6233,0.710,-0.280
6234,0.375,-0.190
6235,0.085,-0.085
6236,-0.010,-0.020
6237,-0.060,0.000
6238,-0.090,0.000
6239,-0.110,0.005
6240,-0.100,0.010
6241,-0.105,0.010
6242,-0.115,0.010
6243,-0.120,0.010
6244,-0.120,0.010
6245,-0.115,0.010
6246,-0.115,0.010
6247,-0.115,0.005
6248,-0.100,0.005
6249,-0.085,0.010
6250,-0.090,0.010
6251,-0.095,0.010
6252,-0.095,0.010
6253,-0.095,0.010
6254,-0.100,0.010
6255,-0.100,0.010
6256,-0.095,0.010
6257,-0.090,0.010
6258,-0.100,0.010
6259,-0.095,0.010
6260,-0.090,0.010
6261,-0.100,0.010
6262,-0.100,0.010
6263,-0.110,0.010
6264,-0.105,0.010
6265,-0.105,0.010
6266,-0.100,0.010
6267,-0.115,0.005
6268,-0.125,0.005
6269,-0.130,0.000
6270,-0.130,0.000
6271,-0.155,0.000
6272,-0.195,0.000
6273,-0.195,0.000
6274,-0.195,0.000
6275,-0.200,-0.005
6276,-0.205,-0.010
6277,-0.195,-0.020
6278,-0.185,-0.025
6279,-0.185,-0.025
6280,-0.160,-0.030
6281,-0.145,-0.030
6282,-0.150,-0.030
6283,-0.125,-0.030
6284,-0.105,-0.030
6285,-0.100,-0.030
6286,-0.085,-0.030
6287,-0.060,-0.025
6288,-0.030,-0.015
6289,-0.015,-0.005
6290,-0.005,-0.005
6291,0.015,0.000
6292,0.020,0.000
6293,0.015,0.000
6294,0.010,0.005
6295,0.010,0.005
6296,0.015,0.015
6297,0.015,0.020
6298,0.025,0.025
6299,0.025,0.025
6300,0.030,0.030
6301,0.025,0.030
6302,0.015,0.025
6303,0.010,0.020
6304,0.010,0.015
6305,0.015,0.010
6306,0.010,0.015
6307,0.000,0.010
6308,0.000,0.010
6309,0.000,0.010
6310,0.000,0.010
6311,0.005,0.010
6312,0.000,0.010
6313,0.000,0.010
6314,0.000,0.010
6315,0.000,0.010
6316,0.000,0.010
6317,-0.005,0.000
6318,-0.010,0.005
6319,0.000,0.010
6320,0.000,0.010
6321,0.000,0.010
6322,0.000,0.010
6323,-0.010,0.005
6324,-0.010,0.005
6325,-0.005,0.005
6326,0.000,0.005
6327,-0.010,0.000
6328,-0.015,0.000
6329,-0.015,0.000
6330,-0.015,0.000
6331,-0.010,0.000
6332,-0.010,0.000
6333,-0.015,0.000
6334,-0.005,0.000
6335,0.000,0.000
6336,-0.005,0.000
6337,-0.015,0.000
6338,-0.010,0.000
6339,0.000,0.000
6340,0.000,0.000
6341,-0.010,0.000
6342,-0.010,0.000
6343,-0.005,0.000
6344,-0.005,0.000
6345,-0.005,0.000
6346,-0.010,0.000
6347,-0.010,0.000
6348,-0.010,0.000
6349,0.000,0.000
6350,0.000,0.000
6351,-0.005,0.000
6352,0.000,0.000
6353,0.000,0.000
6354,-0.005,0.000
6355,-0.010,0.000
6356,-0.010,0.000
6357,0.000,0.000
6358,0.005,0.000
6359,0.010,0.000
6360,0.015,0.000
6361,0.030,0.000
6362,0.035,0.005
6363,0.025,0.010
6364,0.005,0.010
6365,0.005,0.010
6366,0.000,0.010
6367,0.000,0.010
6368,0.010,0.010
6369,0.000,0.005
6370,0.000,0.005
6371,0.005,0.000
6372,0.005,0.000
6373,0.000,0.000
6374,0.000,0.000
6375,0.000,0.000
6376,-0.005,0.000
6377,0.035,0.000
6378,0.085,0.000
6379,0.100,0.030
6380,0.140,0.135
6381,0.195,0.265
6382,0.200,0.270
6383,0.160,0.085
6384,0.200,-0.070
6385,0.335,-0.090
6386,0.470,-0.105
6387,0.580,-0.145
6388,0.680,-0.205
6389,0.710,-0.265
6390,0.695,-0.270
6391,0.420,-0.200
6392,0.100,-0.090
6393,-0.015,-0.020
6394,-0.035,0.000
6395,-0.080,0.000
6396,-0.100,0.010
6397,-0.100,0.010
6398,-0.100,0.010
6399,-0.105,0.010
6400,-0.120,0.010
6401,-0.120,0.010
6402,-0.115,0.010
6403,-0.105,0.010
6404,-0.110,0.010
6405,-0.100,0.010
6406,-0.100,0.010
6407,-0.090,0.010
6408,-0.105,0.010
6409,-0.105,0.015
6410,-0.105,0.010
6411,-0.100,0.010
6412,-0.100,0.010
6413,-0.105,0.015
6414,-0.115,0.010
6415,-0.105,0.010
6416,-0.100,0.010
6417,-0.100,0.015
6418,-0.100,0.010
6419,-0.100,0.015
6420,-0.100,0.020
6421,-0.090,0.020
6422,-0.090,0.015
6423,-0.110,0.010
6424,-0.120,0.010
6425,-0.130,0.010
6426,-0.130,0.010
6427,-0.135,0.005
6428,-0.150,0.000
6429,-0.155,0.000
6430,-0.155,0.000
6431,-0.155,0.000
6432,-0.160,0.000
6433,-0.160,-0.005
6434,-0.170,-0.005
6435,-0.165,-0.010
6436,-0.180,-0.025
6437,-0.170,-0.030
6438,-0.140,-0.030
6439,-0.130,-0.030
6440,-0.115,-0.030
6441,-0.095,-0.030
6442,-0.085,-0.025
6443,-0.050,-0.025
6444,-0.020,-0.020
6445,-0.015,-0.015
6446,0.000,-0.010
6447,0.005,0.000
6448,0.010,0.000
6449,0.025,0.000
6450,0.030,0.000
6451,0.035,0.005
6452,0.040,0.010
6453,0.055,0.010
6454,0.060,0.015
6455,0.045,0.025
6456,0.045,0.020
6457,0.040,0.015
6458,0.035,0.015
6459,0.045,0.020
6460,0.045,0.015
6461,0.045,0.015
6462,0.045,0.010
6463,0.040,0.010
6464,0.030,0.010
6465,0.020,0.010
6466,0.020,0.010
6467,0.030,0.010
6468,0.030,0.010
6469,0.025,0.005
6470,0.020,0.000
6471,0.020,0.000
6472,0.020,0.000
6473,0.020,0.000
6474,0.020,0.005
6475,0.020,0.000
6476,0.015,0.000
6477,0.025,0.000
6478,0.020,0.000
6479,0.010,0.000
6480,0.005,0.000
6481,0.015,0.000
6482,0.015,0.000
6483,0.010,0.000
6484,0.000,0.000
6485,0.005,0.000
6486,0.005,0.000
6487,0.015,0.000
6488,0.020,0.000
6489,0.015,0.000
6490,0.020,0.000
6491,0.020,0.000
6492,0.015,0.000
6493,0.000,0.000
6494,0.010,0.000
6495,0.005,0.000
6496,0.010,0.000
6497,0.000,0.000
6498,0.000,0.000
6499,0.000,0.000
6500,0.010,0.000
6501,0.010,0.000
6502,0.005,0.000
6503,0.010,0.000
6504,0.010,0.000
6505,0.005,0.000
6506,0.000,0.000
6507,0.010,0.000
6508,0.010,0.000
6509,0.000,0.000
6510,0.000,0.000
6511,0.000,0.000
6512,0.000,0.000
6513,0.005,0.000
6514,0.015,0.000
6515,0.005,0.000
6516,0.005,0.000
6517,0.015,0.000
6518,0.025,0.000
6519,0.045,0.010
6520,0.040,0.010
6521,0.015,0.015
6522,0.000,0.010
6523,0.000,0.010
6524,0.000,0.010
6525,0.000,0.010
6526,0.000,0.005
6527,0.000,0.000
6528,0.000,0.000
6529,0.000,0.000
6530,0.000,0.000
6531,0.000,0.000
6532,0.000,0.000
6533,0.000,0.000
6534,0.035,0.000
6535,0.065,0.000
6536,0.090,0.040
6537,0.155,0.175
6538,0.210,0.300
6539,0.195,0.245
6540,0.160,0.025
6541,0.240,-0.070
6542,0.355,-0.090
6543,0.485,-0.110
6544,0.615,-0.155
6545,0.670,-0.220
6546,0.700,-0.265
6547,0.620,-0.255
6548,0.340,-0.170
6549,0.075,-0.070
6550,-0.030,-0.015
6551,-0.075,0.000
6552,-0.100,0.005
6553,-0.115,0.010
6554,-0.115,0.010
6555,-0.115,0.010
6556,-0.110,0.010
6557,-0.120,0.010
6558,-0.115,0.010
6559,-0.115,0.010
6560,-0.110,0.010
6561,-0.100,0.015
6562,-0.105,0.010
6563,-0.110,0.010
6564,-0.115,0.010
6565,-0.115,0.010
6566,-0.110,0.010
6567,-0.105,0.010
6568,-0.110,0.010
6569,-0.100,0.015
6570,-0.120,0.015
6571,-0.120,0.015
6572,-0.110,0.015
6573,-0.100,0.015
6574,-0.100,0.015
6575,-0.115,0.020
6576,-0.120,0.015
6577,-0.115,0.020
6578,-0.115,0.020
6579,-0.115,0.020
6580,-0.120,0.015
6581,-0.125,0.010
6582,-0.125,0.010
6583,-0.140,0.010
6584,-0.145,0.010
6585,-0.150,0.000
6586,-0.165,0.000
6587,-0.185,0.000
6588,-0.200,0.000
6589,-0.205,0.000
6590,-0.190,-0.005
6591,-0.190,-0.005
6592,-0.195,-0.010
6593,-0.165,-0.020
6594,-0.145,-0.025
6595,-0.145,-0.030
6596,-0.145,-0.030
6597,-0.120,-0.030
6598,-0.095,-0.030
6599,-0.075,-0.030
6600,-0.060,-0.025
6601,-0.030,-0.010
6602,-0.010,-0.010
6603,0.000,-0.005
6604,0.005,0.000
6605,0.020,0.000
6606,0.020,0.000
6607,0.025,0.000
6608,0.025,0.005
6609,0.040,0.010
6610,0.040,0.010
6611,0.050,0.015
6612,0.045,0.015
6613,0.040,0.025
6614,0.040,0.025
6615,0.045,0.020
6616,0.035,0.015
6617,0.035,0.010
6618,0.030,0.010
6619,0.020,0.010
6620,0.035,0.010
6621,0.035,0.010
6622,0.030,0.010
6623,0.015,0.010
6624,0.015,0.010
6625,0.020,0.010
6626,0.025,0.005
6627,0.020,0.000
6628,0.010,0.000
6629,0.010,0.000
6630,0.010,0.000
6631,0.015,0.000
6632,0.020,0.000
6633,0.015,0.000
6634,0.005,0.000
6635,0.005,0.000
6636,0.015,0.000
6637,0.015,0.000
6638,0.005,0.000
6639,0.000,0.000
6640,0.005,0.000
6641,0.000,0.000
6642,0.000,0.000
6643,0.000,0.000
6644,0.000,0.000
6645,0.000,0.000
6646,0.000,0.000
6647,-0.005,0.000
6648,0.000,0.000
6649,0.010,0.000
6650,0.005,0.000
6651,0.000,0.000
6652,0.005,0.000
6653,0.005,0.000
6654,0.000,0.000
6655,0.000,0.000
6656,-0.005,0.000
6657,0.000,0.000
6658,0.010,0.000
6659,0.010,0.000
6660,0.000,0.000
6661,-0.005,0.000
6662,0.000,0.000
6663,0.000,0.000
6664,0.000,0.000
6665,0.010,0.000
6666,0.000,0.000
6667,0.000,0.000
6668,-0.005,0.000
6669,0.000,0.000
6670,0.010,0.000
6671,0.010,0.000
6672,0.015,0.005
6673,0.025,0.010
6674,0.030,0.010
6675,0.030,0.015
6676,0.015,0.020
6677,0.000,0.015
6678,-0.005,0.005
6679,0.000,0.005
6680,0.000,0.010
6681,-0.005,0.010
6682,0.000,0.005
6683,-0.010,0.000
6684,-0.030,0.000
6685,-0.030,0.000
6686,-0.020,0.000
6687,-0.025,0.000
6688,-0.020,0.000
6689,0.015,0.000
6690,0.055,0.000
6691,0.070,0.030
6692,0.125,0.150
6693,0.160,0.290
6694,0.150,0.285
6695,0.110,0.030
6696,0.170,-0.080
6697,0.305,-0.080
6698,0.435,-0.105
6699,0.585,-0.130
6700,0.675,-0.215
6701,0.680,-0.270
6702,0.690,-0.275
6703,0.370,-0.190
6704,0.070,-0.075
6705,-0.035,-0.015
6706,-0.095,0.000
6707,-0.125,0.005
6708,-0.140,0.010
6709,-0.145,0.015
6710,-0.135,0.020
6711,-0.135,0.020
6712,-0.140,0.020
6713,-0.145,0.010
6714,-0.145,0.015
6715,-0.150,0.020
6716,-0.145,0.010
6717,-0.145,0.010
6718,-0.145,0.015
6719,-0.145,0.020
6720,-0.145,0.020
6721,-0.135,0.015
6722,-0.120,0.015
6723,-0.125,0.020
6724,-0.145,0.020
6725,-0.140,0.020
6726,-0.130,0.020
6727,-0.130,0.020
6728,-0.145,0.015
6729,-0.150,0.015
6730,-0.140,0.020
6731,-0.135,0.020
6732,-0.145,0.015
6733,-0.145,0.020
6734,-0.145,0.015
6735,-0.145,0.015
6736,-0.160,0.010
6737,-0.160,0.010
6738,-0.160,0.010
6739,-0.185,0.000
6740,-0.195,0.000
6741,-0.205,0.000
6742,-0.210,0.000
6743,-0.220,0.000
6744,-0.220,0.000
6745,-0.225,0.000
6746,-0.220,-0.005
6747,-0.215,-0.010
6748,-0.210,-0.020
6749,-0.220,-0.025
6750,-0.180,-0.030
6751,-0.165,-0.030
6752,-0.155,-0.030
6753,-0.130,-0.030
6754,-0.120,-0.030
6755,-0.095,-0.030
6756,-0.070,-0.020
6757,-0.045,-0.010
6758,-0.025,-0.005
6759,-0.015,-0.005
6760,-0.005,0.000
6761,0.000,0.000
6762,0.005,0.000
6763,0.010,0.005
6764,0.010,0.010
6765,0.010,0.015
6766,0.020,0.020
6767,0.020,0.020
6768,0.025,0.030
6769,0.020,0.030
6770,0.020,0.030
6771,0.015,0.030
6772,0.005,0.030
6773,0.020,0.030
6774,0.015,0.025
6775,0.005,0.025
6776,0.000,0.025
6777,0.000,0.020
6778,0.000,0.020
6779,-0.005,0.015
6780,0.000,0.010
6781,0.000,0.010
6782,0.000,0.010
6783,0.000,0.010
6784,0.005,0.010
6785,0.000,0.010
6786,0.000,0.010
6787,0.000,0.010
6788,0.000,0.010
6789,-0.005,0.010
6790,-0.010,0.010
6791,-0.010,0.010
6792,0.000,0.010
6793,0.000,0.010
6794,-0.005,0.010
6795,0.000,0.010
6796,0.000,0.000
6797,0.000,0.005
6798,0.000,0.010
6799,0.000,0.010
6800,0.000,0.010
6801,0.000,0.010
6802,-0.010,0.010
6803,-0.010,0.010
6804,-0.010,0.005
6805,-0.010,0.005
6806,-0.005,0.010
6807,0.000,0.010
6808,-0.005,0.005
6809,-0.010,0.005
6810,-0.010,0.010
6811,-0.010,0.010
6812,-0.005,0.010
6813,-0.010,0.010
6814,-0.010,0.005
6815,-0.005,0.005
6816,-0.010,0.005
6817,-0.010,0.005
6818,0.000,0.005
6819,-0.010,0.005
6820,-0.010,0.005
6821,0.000,0.005
6822,0.000,0.010
6823,-0.005,0.005
6824,-0.010,0.005
6825,-0.010,0.005
6826,-0.010,0.010
6827,-0.010,0.010
6828,-0.010,0.000
6829,-0.010,0.000
6830,-0.005,0.000
6831,0.000,0.005
6832,0.005,0.005
6833,0.025,0.005
6834,0.020,0.010
6835,0.005,0.015
6836,0.000,0.015
6837,-0.010,0.010
6838,-0.010,0.015
6839,-0.010,0.010
6840,-0.010,0.010
6841,-0.010,0.010
6842,-0.010,0.005
6843,-0.015,0.000
6844,-0.015,0.000
6845,-0.020,0.000
6846,-0.020,0.000
6847,-0.015,0.000
6848,0.010,0.000
6849,0.045,0.000
6850,0.060,0.015
6851,0.085,0.100
6852,0.135,0.235
6853,0.150,0.280
6854,0.135,0.120
