'sample interval','ECG0','ECG1'
'0.0078125 sec','mV','mV'
0,0.150,0.040
1,0.140,0.020
2,0.140,0.020
3,0.130,0.010
4,0.150,0.010
5,0.160,0.020
6,0.120,0.010
7,0.150,0.010
8,0.130,0.020
9,0.110,0.030
10,0.110,0.020
11,0.090,0.020
12,0.050,0.010
13,0.100,0.030
14,0.040,0.030
15,0.040,0.010
16,0.060,0.040
17,0.040,0.040
18,0.060,0.040
19,0.050,0.040
20,0.010,0.050
21,0.050,0.050
22,0.060,0.060
23,0.040,0.070
24,0.070,0.060
25,0.050,0.070
26,0.030,0.060
27,0.070,0.050
28,0.040,0.060
29,0.030,0.060
30,0.050,0.060
31,0.020,0.060
32,0.020,0.040
33,0.030,0.050
34,-0.010,0.030
35,0.030,0.030
36,0.010,0.010
37,-0.020,0.020
38,0.000,0.010
39,0.000,0.010
40,-0.030,0.000
41,0.000,0.000
42,-0.020,-0.020
43,-0.030,-0.030
44,-0.020,-0.020
45,-0.030,-0.030
46,-0.040,-0.040
47,-0.020,-0.030
48,-0.060,-0.050
49,-0.020,-0.060
50,-0.040,-0.070
51,-0.070,-0.070
52,-0.040,-0.080
53,-0.050,-0.090
54,-0.070,-0.090
55,-0.060,-0.100
56,-0.070,-0.100
57,-0.090,-0.090
58,-0.040,-0.100
59,-0.080,-0.090
60,-0.090,-0.100
61,-0.060,-0.090
62,-0.080,-0.120
63,-0.070,-0.100
64,-0.060,-0.100
65,-0.090,-0.090
66,-0.060,-0.100
67,-0.070,-0.080
68,-0.100,-0.100
69,-0.050,-0.100
70,-0.070,-0.080
71,-0.090,-0.080
72,-0.070,-0.090
73,-0.090,-0.080
74,-0.090,-0.090
75,-0.050,-0.090
76,-0.080,-0.080
77,-0.080,-0.070
78,-0.060,-0.080
79,-0.080,-0.080
80,-0.060,-0.080
81,-0.070,-0.080
82,-0.100,-0.080
83,-0.070,-0.080
84,-0.070,-0.070
85,-0.090,-0.080
86,-0.060,-0.080
87,-0.080,-0.080
88,-0.080,-0.080
89,-0.060,-0.060
90,-0.090,-0.060
91,-0.100,-0.060
92,-0.050,-0.060
93,-0.070,-0.060
94,-0.080,-0.060
95,-0.070,-0.040
96,-0.100,-0.060
97,-0.050,-0.040
98,-0.070,-0.050
99,-0.100,-0.040
100,-0.050,-0.040
101,-0.060,-0.040
102,-0.090,-0.050
103,-0.060,-0.050
104,-0.080,-0.040
105,-0.080,-0.040
106,-0.050,-0.040
107,-0.090,-0.040
108,-0.090,-0.060
109,-0.070,-0.050
110,-0.040,-0.020
111,-0.010,-0.010
112,0.000,0.010
113,-0.010,0.060
114,0.110,0.060
115,0.090,0.080
116,0.060,0.070
117,0.070,0.020
118,0.000,0.010
119,0.060,0.020
120,-0.030,-0.010
121,-0.080,-0.040
122,-0.090,-0.050
123,-0.060,0.010
124,-0.090,-0.030
125,-0.170,-0.040
126,-0.180,-0.070
127,-0.170,-0.080
128,-0.170,-0.060
129,-0.140,-0.070
130,-0.190,-0.070
131,-0.130,-0.070
132,-0.130,-0.060
133,-0.010,-0.010
134,0.030,0.050
135,0.160,0.040
136,0.200,-0.120
137,0.480,0.000
138,-0.300,-0.310
139,-0.870,-1.180
140,-1.800,-1.350
141,-1.560,-1.260
142,-1.650,-0.920
143,-1.240,-0.930
144,-0.890,-0.500
145,-0.450,-0.330
146,-0.310,-0.170
147,-0.260,-0.090
148,-0.210,-0.070
149,-0.170,-0.030
150,-0.200,-0.040
151,-0.150,-0.030
152,-0.170,-0.020
153,-0.170,-0.020
154,-0.140,-0.020
155,-0.160,-0.010
156,-0.180,-0.010
157,-0.120,-0.010
158,-0.150,0.000
159,-0.140,0.010
160,-0.130,0.000
161,-0.120,0.010
162,-0.100,0.020
163,-0.080,0.020
164,-0.100,0.040
165,-0.050,0.020
166,-0.030,0.040
167,-0.040,0.030
168,0.010,0.040
169,0.020,0.040
170,0.020,0.050
171,0.060,0.050
172,0.050,0.040
173,0.040,0.040
174,0.090,0.030
175,0.030,0.020
176,0.030,-0.010
177,0.030,-0.050
178,-0.020,-0.040
179,0.010,-0.070
180,-0.010,-0.090
181,-0.020,-0.090
182,0.020,-0.100
183,0.030,-0.070
184,-0.010,-0.080
185,0.010,-0.070
186,-0.020,-0.060
187,0.000,-0.050
188,0.010,-0.050
189,-0.020,-0.030
190,-0.040,-0.050
191,-0.020,-0.040
192,-0.020,-0.020
193,-0.030,-0.020
194,-0.030,-0.020
195,-0.040,-0.020
196,0.000,0.000
197,0.010,0.010
198,-0.020,0.020
199,0.000,0.010
200,0.030,0.040
201,0.020,0.040
202,0.030,0.040
203,0.010,0.060
204,0.010,0.060
205,0.060,0.070
206,0.010,0.070
207,0.010,0.090
208,0.030,0.070
209,0.020,0.090
210,0.020,0.090
211,0.030,0.090
212,-0.010,0.080
213,0.010,0.080
214,0.000,0.090
215,-0.030,0.070
216,0.010,0.070
217,-0.010,0.070
218,-0.050,0.060
219,-0.010,0.040
220,-0.040,0.050
221,-0.070,0.050
222,-0.030,0.030
223,-0.070,0.030
224,-0.090,0.010
225,-0.050,0.020
226,-0.070,0.020
227,-0.100,0.010
228,-0.060,0.010
229,-0.070,0.020
230,-0.080,0.000
231,-0.070,0.010
232,-0.100,0.000
233,-0.070,0.010
234,-0.070,-0.010
235,-0.100,-0.010
236,-0.090,-0.020
237,-0.080,-0.020
238,-0.110,-0.010
239,-0.080,-0.030
240,-0.100,-0.020
241,-0.110,-0.030
242,-0.070,-0.030
243,-0.080,-0.030
244,-0.110,-0.030
245,-0.090,-0.030
246,-0.090,-0.040
247,-0.100,-0.030
248,-0.080,-0.030
249,-0.090,-0.030
250,-0.090,-0.040
251,-0.070,-0.030
252,-0.100,-0.040
253,-0.090,-0.040
254,-0.080,-0.050
255,-0.110,-0.040
256,-0.080,-0.050
257,-0.110,-0.050
258,-0.120,-0.050
259,-0.080,-0.050
260,-0.090,-0.050
261,-0.120,-0.030
262,-0.090,-0.050
263,-0.090,-0.020
264,-0.110,-0.020
265,-0.060,-0.030
266,-0.090,-0.020
267,-0.080,-0.010
268,-0.040,-0.010
269,-0.060,0.000
270,-0.050,0.000
271,-0.030,0.010
272,-0.030,0.010
273,0.000,0.020
274,0.000,0.020
275,-0.020,0.020
276,0.030,0.020
277,0.020,0.020
278,-0.010,0.030
279,0.030,0.030
280,0.020,0.040
281,0.020,0.040
282,0.050,0.030
283,0.010,0.040
284,0.030,0.040
285,0.050,0.040
286,0.050,0.060
287,0.090,0.080
288,0.120,0.120
289,0.160,0.140
290,0.180,0.170
291,0.250,0.210
292,0.220,0.200
293,0.210,0.160
294,0.190,0.130
295,0.130,0.110
296,0.210,0.140
297,0.060,0.070
298,0.060,0.050
299,0.100,0.050
300,0.010,0.100
301,0.000,0.080
302,0.000,0.050
303,-0.080,0.050
304,-0.060,0.040
305,-0.020,0.040
306,-0.040,0.060
307,-0.030,0.050
308,-0.010,0.060
309,-0.030,0.050
310,0.200,0.150
311,0.180,0.160
312,0.230,0.070
313,0.420,0.090
314,0.640,0.140
315,-0.660,-0.710
316,-1.140,-1.150
317,-1.940,-1.450
318,-1.510,-0.970
319,-1.310,-0.930
320,-0.950,-0.580
321,-0.480,-0.340
322,-0.220,-0.100
323,-0.110,-0.010
324,-0.070,0.030
325,-0.020,0.050
326,-0.050,0.060
327,-0.010,0.050
328,0.010,0.080
329,-0.020,0.070
330,0.010,0.070
331,-0.010,0.100
332,0.000,0.100
333,0.050,0.100
334,0.020,0.130
335,0.010,0.110
336,0.050,0.130
337,0.030,0.130
338,0.070,0.140
339,0.060,0.150
340,0.060,0.160
341,0.100,0.180
342,0.110,0.180
343,0.100,0.190
344,0.140,0.190
345,0.150,0.210
346,0.160,0.200
347,0.200,0.220
348,0.170,0.220
349,0.180,0.210
350,0.200,0.200
351,0.190,0.190
352,0.150,0.160
353,0.160,0.140
354,0.120,0.120
355,0.130,0.100
356,0.130,0.070
357,0.110,0.050
358,0.140,0.060
359,0.160,0.070
360,0.130,0.070
361,0.160,0.050
362,0.130,0.080
363,0.110,0.090
364,0.130,0.070
365,0.100,0.090
366,0.080,0.090
367,0.100,0.080
368,0.090,0.080
369,0.080,0.090
370,0.120,0.090
371,0.090,0.110
372,0.100,0.110
373,0.140,0.110
374,0.100,0.120
375,0.140,0.110
376,0.160,0.130
377,0.160,0.160
378,0.160,0.150
379,0.180,0.170
380,0.160,0.170
381,0.200,0.160
382,0.170,0.170
383,0.150,0.160
384,0.190,0.160
385,0.160,0.160
386,0.130,0.160
387,0.150,0.160
388,0.120,0.160
389,0.130,0.150
390,0.130,0.140
391,0.090,0.150
392,0.100,0.130
393,0.110,0.130
394,0.090,0.110
395,0.090,0.120
396,0.080,0.110
397,0.060,0.110
398,0.090,0.090
399,0.080,0.090
400,0.050,0.090
401,0.100,0.090
402,0.080,0.080
403,0.060,0.070
404,0.080,0.060
405,0.070,0.080
406,0.070,0.070
407,0.090,0.080
408,0.050,0.070
409,0.080,0.060
410,0.070,0.070
411,0.050,0.060
412,0.070,0.060
413,0.050,0.070
414,0.030,0.060
415,0.070,0.050
416,0.040,0.060
417,0.020,0.050
418,0.060,0.060
419,0.040,0.060
420,0.030,0.070
421,0.050,0.060
422,0.020,0.070
423,0.020,0.080
424,0.060,0.080
425,0.030,0.080
426,0.030,0.060
427,0.050,0.080
428,0.020,0.080
429,0.050,0.060
430,0.030,0.070
431,0.020,0.090
432,0.060,0.060
433,0.050,0.080
434,0.010,0.080
435,0.070,0.070
436,0.040,0.080
437,0.020,0.080
438,0.050,0.080
439,0.030,0.070
440,0.030,0.070
441,0.060,0.060
442,0.030,0.060
443,0.020,0.060
444,0.050,0.060
445,0.020,0.050
446,0.020,0.040
447,0.030,0.050
448,0.000,0.040
449,0.030,0.030
450,0.040,0.030
451,-0.010,0.010
452,0.020,0.020
453,0.020,0.020
454,0.000,0.000
455,0.010,0.010
456,-0.010,0.010
457,0.000,0.000
458,0.030,-0.010
459,0.010,0.000
460,-0.010,0.000
461,0.030,-0.010
462,-0.010,0.010
463,-0.010,-0.010
464,0.000,0.010
465,0.020,0.030
466,0.060,0.040
467,0.070,0.070
468,0.080,0.100
469,0.140,0.120
470,0.230,0.180
471,0.180,0.150
472,0.160,0.130
473,0.130,0.100
474,0.090,0.080
475,0.190,0.090
476,0.020,0.040
477,0.030,0.030
478,0.050,0.020
479,-0.020,0.080
480,-0.020,0.040
481,-0.060,0.020
482,-0.110,0.010
483,-0.060,0.020
484,-0.060,0.030
485,-0.090,0.040
486,-0.070,0.030
487,-0.040,0.030
488,-0.050,0.050
489,0.190,0.130
490,0.130,0.160
491,0.230,0.100
492,0.400,0.070
493,0.600,0.150
494,-0.570,-0.590
495,-0.940,-1.140
496,-1.970,-1.460
497,-1.520,-1.130
498,-1.490,-0.930
499,-1.080,-0.730
500,-0.660,-0.380
501,-0.320,-0.150
502,-0.210,-0.040
503,-0.170,0.010
504,-0.120,0.030
505,-0.130,0.050
506,-0.100,0.050
507,-0.110,0.070
508,-0.120,0.060
509,-0.090,0.060
510,-0.120,0.080
511,-0.130,0.080
512,-0.090,0.080
513,-0.100,0.090
514,-0.110,0.080
515,-0.090,0.090
516,-0.090,0.110
517,-0.060,0.100
518,-0.030,0.110
519,-0.050,0.120
520,-0.020,0.120
521,0.020,0.140
522,0.010,0.140
523,0.050,0.140
524,0.060,0.170
525,0.060,0.170
526,0.130,0.170
527,0.100,0.170
528,0.110,0.160
529,0.140,0.150
530,0.130,0.140
531,0.100,0.130
532,0.100,0.120
533,0.070,0.090
534,0.060,0.060
535,0.080,0.060
536,0.050,0.040
537,0.070,0.040
538,0.090,0.030
539,0.070,0.040
540,0.070,0.040
541,0.080,0.060
542,0.060,0.060
543,0.100,0.050
544,0.060,0.060
545,0.040,0.050
546,0.070,0.050
547,0.060,0.050
548,0.030,0.050
549,0.060,0.030
550,0.060,0.040
551,0.050,0.030
552,0.090,0.040
553,0.070,0.060
554,0.090,0.050
555,0.120,0.050
556,0.110,0.050
557,0.130,0.060
558,0.140,0.060
559,0.130,0.070
560,0.170,0.060
561,0.150,0.070
562,0.120,0.070
563,0.170,0.070
564,0.160,0.070
565,0.140,0.060
566,0.150,0.070
567,0.140,0.060
568,0.120,0.060
569,0.160,0.050
570,0.110,0.050
571,0.110,0.060
572,0.120,0.050
573,0.100,0.050
574,0.100,0.040
575,0.100,0.060
576,0.070,0.050
577,0.100,0.050
578,0.090,0.050
579,0.050,0.050
580,0.070,0.040
581,0.060,0.040
582,0.040,0.030
583,0.070,0.030
584,0.060,0.040
585,0.040,0.020
586,0.090,0.020
587,0.050,0.030
588,0.040,0.020
589,0.060,0.020
590,0.050,0.020
591,0.050,0.000
592,0.050,0.010
593,0.030,0.010
594,0.060,-0.010
595,0.050,0.010
596,0.010,0.000
597,0.050,-0.010
598,0.030,-0.010
599,0.010,-0.010
600,0.040,-0.020
601,0.010,0.000
602,0.020,-0.030
603,0.040,-0.030
604,0.000,-0.030
605,0.010,-0.040
606,0.020,-0.050
607,0.030,-0.040
608,0.040,-0.020
609,0.020,-0.050
610,0.010,-0.030
611,0.020,-0.050
612,0.030,-0.030
613,-0.010,-0.030
614,0.020,-0.040
615,-0.020,-0.030
616,-0.020,-0.040
617,0.000,-0.050
618,-0.020,-0.040
619,-0.030,-0.030
620,0.010,-0.050
621,-0.020,-0.040
622,-0.020,-0.050
623,-0.010,-0.040
624,-0.040,-0.050
625,0.010,-0.050
626,-0.010,-0.040
627,-0.030,-0.040
628,-0.030,-0.050
629,-0.020,-0.050
630,-0.040,-0.050
631,0.010,-0.050
632,-0.030,-0.050
633,-0.030,-0.060
634,0.020,-0.060
635,-0.030,-0.060
636,-0.030,-0.060
637,0.000,-0.060
638,-0.020,-0.060
639,-0.020,-0.080
640,-0.020,-0.080
641,-0.040,-0.080
642,0.020,-0.090
643,0.030,-0.060
644,0.030,-0.030
645,0.070,-0.020
646,0.080,0.010
647,0.150,0.040
648,0.170,0.010
649,0.080,0.000
650,0.070,-0.040
651,0.080,-0.060
652,0.090,-0.040
653,-0.010,-0.110
654,0.000,-0.120
655,0.000,-0.100
656,-0.060,-0.080
657,-0.060,-0.080
658,-0.130,-0.120
659,-0.130,-0.130
660,-0.120,-0.110
661,-0.110,-0.110
662,-0.080,-0.120
663,-0.110,-0.100
664,-0.100,-0.100
665,0.020,-0.090
666,0.090,0.020
667,0.200,0.000
668,0.200,-0.130
669,0.350,-0.040
670,0.340,-0.120
671,-0.760,-1.060
672,-1.560,-1.290
673,-1.790,-1.500
674,-1.550,-0.980
675,-1.350,-1.020
676,-0.920,-0.690
677,-0.490,-0.450
678,-0.290,-0.240
679,-0.130,-0.160
680,-0.140,-0.130
681,-0.110,-0.110
682,-0.050,-0.110
683,-0.060,-0.080
684,-0.050,-0.090
685,-0.050,-0.080
686,-0.060,-0.080
687,-0.020,-0.090
688,-0.030,-0.070
689,-0.060,-0.070
690,0.000,-0.060
691,0.000,-0.060
692,-0.020,-0.050
693,0.020,-0.050
694,-0.010,-0.020
695,0.010,-0.020
696,0.060,-0.010
697,0.050,-0.010
698,0.060,0.000
699,0.100,0.010
700,0.090,0.030
701,0.140,0.020
702,0.150,0.030
703,0.150,0.050
704,0.200,0.040
705,0.200,0.050
706,0.140,0.020
707,0.170,0.010
708,0.170,-0.010
709,0.110,-0.020
710,0.140,-0.040
711,0.100,-0.060
712,0.080,-0.070
713,0.130,-0.060
714,0.110,-0.080
715,0.110,-0.050
716,0.140,-0.050
717,0.100,-0.060
718,0.130,-0.060
719,0.110,-0.040
720,0.080,-0.050
721,0.110,-0.060
722,0.090,-0.050
723,0.060,-0.060
724,0.080,-0.060
725,0.070,-0.040
726,0.060,-0.070
727,0.100,-0.080
728,0.070,-0.050
729,0.050,-0.050
730,0.120,-0.060
731,0.090,-0.050
732,0.110,-0.030
733,0.120,-0.030
734,0.130,-0.030
735,0.150,-0.030
736,0.150,0.000
737,0.120,-0.010
738,0.160,-0.010
739,0.140,0.000
740,0.110,0.010
741,0.170,-0.010
742,0.100,0.010
743,0.120,0.010
744,0.150,0.010
745,0.090,0.020
746,0.090,0.020
747,0.100,0.010
748,0.070,0.010
749,0.080,0.010
750,0.070,0.000
751,0.030,-0.010
752,0.090,-0.010
753,0.070,-0.010
754,0.030,-0.040
755,0.040,-0.030
756,0.070,-0.040
757,0.020,-0.030
758,0.030,-0.060
759,0.030,-0.030
760,0.010,-0.050
761,0.060,-0.060
762,0.020,-0.060
763,0.010,-0.070
764,0.020,-0.070
765,0.000,-0.060
766,0.020,-0.090
767,0.030,-0.070
768,-0.030,-0.080
769,0.000,-0.090
770,0.020,-0.090
771,-0.020,-0.080
772,0.010,-0.080
773,-0.010,-0.080
774,-0.040,-0.080
775,0.010,-0.090
776,-0.050,-0.080
777,-0.050,-0.100
778,-0.020,-0.090
779,-0.040,-0.090
780,-0.040,-0.100
781,-0.030,-0.090
782,-0.070,-0.090
783,-0.030,-0.100
784,-0.020,-0.100
785,-0.050,-0.090
786,-0.030,-0.090
787,-0.030,-0.080
788,-0.040,-0.070
789,-0.010,-0.090
790,-0.020,-0.070
791,-0.050,-0.080
792,0.030,-0.080
793,-0.030,-0.080
794,-0.030,-0.070
795,0.010,-0.080
796,0.000,-0.060
797,0.010,-0.050
798,0.010,-0.050
799,-0.030,-0.030
800,0.010,-0.050
801,0.020,-0.040
802,-0.020,-0.030
803,0.000,-0.020
804,-0.020,-0.010
805,-0.040,-0.020
806,-0.010,-0.020
807,-0.040,0.000
808,-0.070,-0.010
809,0.000,-0.010
810,-0.030,-0.010
811,-0.030,-0.010
812,-0.020,-0.010
813,-0.050,-0.010
814,-0.030,-0.010
815,-0.020,-0.010
816,-0.050,-0.010
817,-0.040,-0.020
818,-0.010,0.000
819,-0.040,-0.010
820,-0.010,0.000
821,-0.020,0.000
822,-0.020,0.000
823,0.010,-0.010
824,0.020,0.000
825,0.030,0.020
826,0.100,0.040
827,0.110,0.080
828,0.150,0.100
829,0.240,0.150
830,0.200,0.110
831,0.150,0.080
832,0.170,0.050
833,0.110,0.040
834,0.140,0.040
835,0.070,-0.010
836,0.040,-0.030
837,0.070,-0.010
838,-0.010,0.010
839,-0.030,0.000
840,-0.030,-0.030
841,-0.060,-0.040
842,-0.070,-0.030
843,-0.020,-0.030
844,-0.020,0.000
845,-0.030,-0.010
846,0.020,0.000
847,0.020,0.010
848,0.230,0.120
849,0.280,0.120
850,0.280,0.010
851,0.460,0.080
852,0.560,0.020
853,-0.680,-0.880
854,-1.340,-1.190
855,-1.920,-1.440
856,-1.520,-0.940
857,-1.340,-0.930
858,-0.970,-0.590
859,-0.550,-0.330
860,-0.260,-0.110
861,-0.140,-0.010
862,-0.110,0.010
863,-0.050,0.030
864,-0.080,0.030
865,-0.040,0.040
866,-0.030,0.050
867,-0.040,0.060
868,-0.020,0.050
869,-0.040,0.060
870,-0.040,0.050
871,0.000,0.060
872,-0.020,0.080
873,-0.040,0.060
874,0.000,0.060
875,0.000,0.060
876,0.010,0.080
877,0.040,0.070
878,0.020,0.090
879,0.060,0.100
880,0.100,0.100
881,0.080,0.110
882,0.130,0.120
883,0.130,0.130
884,0.160,0.140
885,0.190,0.140
886,0.180,0.130
887,0.160,0.130
888,0.210,0.120
889,0.180,0.100
890,0.150,0.090
891,0.160,0.070
892,0.110,0.040
893,0.130,0.020
894,0.130,0.020
895,0.120,0.020
896,0.120,0.020
897,0.160,0.030
898,0.120,0.030
899,0.130,0.050
900,0.120,0.050
901,0.110,0.060
902,0.130,0.070
903,0.110,0.090
904,0.070,0.070
905,0.100,0.080
906,0.110,0.090
907,0.080,0.080
908,0.110,0.090
909,0.080,0.110
910,0.100,0.090
911,0.120,0.100
912,0.100,0.110
913,0.120,0.120
914,0.140,0.120
915,0.120,0.130
916,0.150,0.130
917,0.140,0.150
918,0.140,0.150
919,0.180,0.150
920,0.170,0.170
921,0.150,0.160
922,0.170,0.150
923,0.160,0.170
924,0.150,0.170
925,0.170,0.160
926,0.120,0.160
927,0.140,0.170
928,0.130,0.140
929,0.120,0.150
930,0.130,0.140
931,0.100,0.140
932,0.070,0.140
933,0.110,0.120
934,0.070,0.130
935,0.060,0.120
936,0.070,0.120
937,0.060,0.120
938,0.050,0.130
939,0.080,0.120
940,0.040,0.120
941,0.060,0.110
942,0.070,0.110
943,0.020,0.100
944,0.060,0.110
945,0.030,0.110
946,0.030,0.100
947,0.060,0.100
948,0.060,0.100
949,0.020,0.110
950,0.060,0.090
951,0.050,0.090
952,0.050,0.090
953,0.060,0.090
954,0.040,0.080
955,0.060,0.090
956,0.070,0.080
957,0.030,0.090
958,0.050,0.070
959,0.060,0.060
960,0.040,0.060
961,0.070,0.050
962,0.040,0.050
963,0.010,0.040
964,0.060,0.030
965,0.050,0.030
966,0.020,0.030
967,0.050,0.010
968,0.030,0.020
969,0.040,-0.010
970,0.050,0.010
971,0.020,0.000
972,0.040,0.000
973,0.040,-0.010
974,0.020,-0.010
975,0.040,-0.030
976,0.040,-0.020
977,0.010,-0.030
978,0.060,-0.030
979,0.020,-0.040
980,0.010,-0.040
981,0.030,-0.060
982,0.030,-0.060
983,0.010,-0.050
984,0.030,-0.080
985,0.010,-0.060
986,0.020,-0.070
987,0.030,-0.080
988,0.000,-0.080
989,0.010,-0.080
990,0.010,-0.080
991,0.010,-0.090
992,0.020,-0.110
993,-0.010,-0.090
994,-0.030,-0.110
995,0.020,-0.110
996,-0.010,-0.120
997,0.010,-0.110
998,0.060,-0.090
999,0.050,-0.080
1000,0.100,-0.050
1001,0.130,-0.020
1002,0.180,0.040
1003,0.190,-0.010
1004,0.170,-0.020
1005,0.110,-0.050
1006,0.110,-0.060
1007,0.140,-0.040
1008,0.000,-0.100
1009,0.060,-0.120
1010,0.010,-0.110
1011,-0.050,-0.060
1012,-0.010,-0.090
1013,-0.070,-0.100
1014,-0.100,-0.110
1015,-0.080,-0.100
1016,-0.110,-0.100
1017,-0.080,-0.090
1018,-0.070,-0.080
1019,-0.090,-0.060
1020,-0.010,-0.050
1021,0.150,0.060
1022,0.160,0.060
1023,0.270,-0.030
1024,0.380,0.030
1025,0.500,0.000
1026,-0.700,-0.870
1027,-1.360,-1.230
1028,-2.030,-1.520
1029,-1.520,-1.030
1030,-1.410,-0.960
1031,-1.020,-0.630
1032,-0.560,-0.360
1033,-0.340,-0.130
1034,-0.210,-0.040
1035,-0.140,0.010
1036,-0.140,0.020
1037,-0.100,0.040
1038,-0.100,0.060
1039,-0.130,0.060
1040,-0.070,0.060
1041,-0.080,0.070
1042,-0.110,0.060
1043,-0.050,0.080
1044,-0.060,0.100
1045,-0.060,0.100
1046,-0.050,0.100
1047,-0.060,0.120
1048,-0.030,0.130
1049,0.000,0.140
1050,-0.010,0.150
1051,0.000,0.160
1052,0.020,0.170
1053,0.040,0.180
1054,0.080,0.190
1055,0.070,0.210
1056,0.060,0.220
1057,0.130,0.220
1058,0.110,0.220
1059,0.120,0.230
1060,0.120,0.210
1061,0.120,0.220
1062,0.120,0.210
1063,0.100,0.180
1064,0.060,0.160
1065,0.070,0.120
1066,0.050,0.100
1067,0.020,0.080
1068,0.050,0.070
1069,0.040,0.080
1070,0.020,0.090
1071,0.060,0.090
1072,0.010,0.120
1073,-0.010,0.110
1074,0.040,0.120
1075,-0.010,0.110
1076,-0.010,0.120
1077,-0.020,0.120
1078,-0.050,0.100
1079,-0.020,0.110
1080,-0.030,0.090
1081,-0.070,0.120
1082,-0.040,0.090
1083,-0.020,0.100
1084,-0.050,0.100
1085,0.000,0.120
1086,-0.030,0.110
1087,-0.030,0.120
1088,0.020,0.120
1089,0.030,0.140
1090,0.000,0.130
1091,0.050,0.140
1092,0.040,0.160
1093,0.060,0.140
1094,0.050,0.160
1095,0.040,0.140
1096,0.080,0.160
1097,0.080,0.160
1098,0.050,0.170
1099,0.060,0.150
1100,0.070,0.140
1101,0.040,0.150
1102,0.060,0.130
1103,0.040,0.140
1104,0.010,0.140
1105,0.060,0.120
1106,0.020,0.110
1107,0.020,0.120
1108,0.020,0.100
1109,0.030,0.120
1110,0.020,0.100
1111,0.010,0.120
1112,-0.020,0.100
1113,0.020,0.090
1114,0.010,0.110
1115,0.000,0.120
1116,0.000,0.090
1117,0.000,0.100
1118,-0.030,0.100
1119,0.010,0.100
1120,-0.020,0.100
1121,-0.050,0.080
1122,-0.010,0.080
1123,-0.040,0.080
1124,-0.040,0.070
1125,-0.040,0.070
1126,-0.050,0.060
1127,-0.040,0.070
1128,-0.030,0.070
1129,-0.070,0.060
1130,-0.030,0.050
1131,-0.050,0.050
1132,-0.060,0.040
1133,-0.050,0.040
1134,-0.070,0.030
1135,-0.070,0.030
1136,-0.040,0.010
1137,-0.060,0.020
1138,-0.060,0.000
1139,-0.040,0.000
1140,-0.080,-0.010
1141,-0.050,-0.010
1142,-0.060,-0.020
1143,-0.090,-0.020
1144,-0.050,-0.030
1145,-0.030,-0.020
1146,-0.090,-0.030
1147,-0.070,-0.030
1148,-0.070,-0.030
1149,-0.090,-0.050
1150,-0.050,-0.040
1151,-0.080,-0.040
1152,-0.090,-0.040
1153,-0.070,-0.040
1154,-0.090,-0.040
1155,-0.100,-0.030
1156,-0.060,-0.040
1157,-0.100,-0.040
1158,-0.080,-0.030
1159,-0.070,-0.020
1160,-0.100,-0.020
1161,-0.080,-0.010
1162,-0.060,0.000
1163,-0.090,0.000
1164,-0.060,0.000
1165,-0.070,0.010
1166,-0.100,0.020
1167,-0.050,0.030
1168,-0.070,0.030
1169,-0.090,0.030
1170,-0.050,0.030
1171,-0.050,0.050
1172,-0.060,0.040
1173,-0.050,0.050
1174,-0.070,0.050
1175,-0.040,0.050
1176,-0.030,0.060
1177,-0.070,0.060
1178,-0.030,0.060
1179,0.020,0.080
1180,0.000,0.110
1181,0.050,0.110
1182,0.050,0.170
1183,0.100,0.190
1184,0.140,0.200
1185,0.120,0.170
1186,0.060,0.120
1187,0.020,0.090
1188,0.100,0.110
1189,-0.020,0.080
1190,0.000,0.030
1191,-0.060,0.040
1192,-0.060,0.070
1193,-0.060,0.040
1194,-0.130,0.030
1195,-0.130,0.000
1196,-0.140,0.010
1197,-0.130,0.020
1198,-0.090,0.010
1199,-0.120,0.020
1200,-0.130,0.010
1201,-0.050,0.020
1202,0.100,0.110
1203,0.070,0.140
1204,0.140,0.060
1205,0.220,0.010
1206,0.510,0.100
1207,-0.640,-0.530
1208,-1.050,-1.110
1209,-1.910,-1.390
1210,-1.490,-1.000
1211,-1.570,-0.870
1212,-1.090,-0.760
1213,-0.740,-0.380
1214,-0.410,-0.170
1215,-0.240,-0.100
1216,-0.210,-0.020
1217,-0.190,-0.020
1218,-0.150,-0.010
1219,-0.170,0.010
1220,-0.140,-0.010
1221,-0.130,0.010
1222,-0.140,0.000
1223,-0.120,-0.010
1224,-0.120,0.000
1225,-0.130,0.000
1226,-0.100,-0.010
1227,-0.090,0.030
1228,-0.090,0.020
1229,-0.040,0.020
1230,-0.040,0.030
1231,-0.040,0.050
1232,0.010,0.070
1233,0.000,0.090
1234,0.050,0.080
1235,0.070,0.100
1236,0.050,0.130
1237,0.120,0.130
1238,0.150,0.140
1239,0.120,0.140
1240,0.160,0.140
1241,0.170,0.150
1242,0.140,0.120
1243,0.190,0.110
1244,0.160,0.100
1245,0.120,0.070
1246,0.130,0.050
1247,0.110,0.030
1248,0.100,0.020
1249,0.120,0.000
1250,0.090,0.010
1251,0.130,0.010
1252,0.140,0.020
1253,0.080,0.030
1254,0.110,0.030
1255,0.080,0.020
1256,0.060,0.020
1257,0.080,0.010
1258,0.040,0.020
1259,0.020,0.010
1260,0.050,0.000
1261,0.020,0.010
1262,0.030,0.010
1263,0.050,0.020
1264,0.020,0.010
1265,0.050,0.020
1266,0.060,0.020
1267,0.040,0.040
1268,0.070,0.030
1269,0.080,0.050
1270,0.070,0.050
1271,0.090,0.050
1272,0.070,0.060
1273,0.080,0.070
1274,0.110,0.060
1275,0.090,0.080
1276,0.080,0.060
1277,0.110,0.060
1278,0.070,0.060
1279,0.100,0.050
1280,0.090,0.070
1281,0.050,0.060
1282,0.090,0.060
1283,0.070,0.040
1284,0.040,0.050
1285,0.080,0.040
1286,0.060,0.040
1287,0.030,0.040
1288,0.080,0.040
1289,0.030,0.020
1290,0.030,0.040
1291,0.070,0.030
1292,0.040,0.020
1293,0.050,0.020
1294,0.050,0.020
1295,0.030,0.010
1296,0.060,0.010
1297,0.070,0.030
1298,0.040,0.010
1299,0.070,0.000
1300,0.050,0.000
1301,0.050,0.010
1302,0.070,0.000
1303,0.060,-0.010
1304,0.030,0.000
1305,0.070,0.000
1306,0.040,-0.010
1307,0.040,-0.010
1308,0.040,-0.020
1309,0.040,-0.020
1310,0.050,-0.020
1311,0.040,-0.020
1312,0.010,-0.020
1313,0.050,-0.030
1314,0.040,-0.010
1315,0.020,-0.020
1316,0.040,-0.010
1317,0.020,-0.020
1318,0.020,-0.020
1319,0.050,-0.020
1320,0.030,0.000
1321,0.030,-0.010
1322,0.060,0.000
1323,0.040,-0.010
1324,0.050,-0.020
1325,0.030,-0.020
1326,0.020,-0.020
1327,0.050,-0.030
1328,0.040,-0.030
1329,0.010,-0.040
1330,0.040,-0.040
1331,0.020,-0.040
1332,0.030,-0.050
1333,0.050,-0.050
1334,0.020,-0.040
1335,0.040,-0.050
1336,0.070,-0.050
1337,0.040,-0.060
1338,0.030,-0.050
1339,0.060,-0.050
1340,0.030,-0.060
1341,0.060,-0.050
1342,0.050,-0.060
1343,0.010,-0.060
1344,0.050,-0.070
1345,0.040,-0.050
1346,0.010,-0.060
1347,0.040,-0.060
1348,0.030,-0.050
1349,0.010,-0.060
1350,0.060,-0.060
1351,0.030,-0.050
1352,0.030,-0.070
1353,0.070,-0.060
1354,0.070,-0.060
1355,0.080,-0.030
1356,0.130,-0.020
1357,0.140,0.020
1358,0.220,0.030
1359,0.250,0.070
1360,0.220,0.020
1361,0.180,-0.020
1362,0.160,-0.040
1363,0.160,-0.060
1364,0.180,-0.040
1365,0.070,-0.110
1366,0.070,-0.130
1367,0.110,-0.130
1368,0.020,-0.090
1369,-0.010,-0.110
1370,0.000,-0.140
1371,-0.040,-0.150
1372,-0.020,-0.150
1373,0.000,-0.130
1374,-0.020,-0.130
1375,0.010,-0.120
1376,0.020,-0.100
1377,0.070,-0.090
1378,0.210,0.000
1379,0.320,0.000
1380,0.330,-0.130
1381,0.530,-0.010
1382,0.460,-0.170
1383,-0.650,-1.070
1384,-1.510,-1.340
1385,-1.840,-1.540
1386,-1.570,-0.990
1387,-1.190,-1.030
1388,-0.880,-0.580
1389,-0.420,-0.360
1390,-0.230,-0.180
1391,-0.170,-0.100
1392,-0.090,-0.070
1393,-0.080,-0.060
1394,-0.110,-0.060
1395,-0.070,-0.040
1396,-0.080,-0.030
1397,-0.090,-0.030
1398,-0.050,-0.020
1399,-0.070,-0.020
1400,-0.070,-0.020
1401,-0.030,-0.020
1402,-0.040,-0.010
1403,-0.030,-0.020
1404,0.000,0.000
1405,-0.020,0.010
1406,0.020,0.010
1407,0.020,0.020
1408,0.020,0.030
1409,0.070,0.030
1410,0.080,0.050
1411,0.070,0.060
1412,0.120,0.060
1413,0.110,0.090
1414,0.130,0.100
1415,0.170,0.110
1416,0.140,0.120
1417,0.150,0.110
1418,0.170,0.090
1419,0.150,0.080
1420,0.140,0.050
1421,0.150,0.050
1422,0.090,0.020
1423,0.120,-0.020
1424,0.110,-0.030
1425,0.100,-0.030
1426,0.140,-0.020
1427,0.140,-0.020
1428,0.130,-0.010
1429,0.150,0.000
1430,0.130,0.010
1431,0.110,0.010
1432,0.160,0.010
1433,0.110,0.030
1434,0.090,0.020
1435,0.120,0.010
1436,0.090,0.020
1437,0.090,0.010
1438,0.110,0.010
1439,0.080,0.010
1440,0.110,0.010
1441,0.110,0.020
1442,0.080,0.010
1443,0.110,0.010
1444,0.110,0.020
1445,0.110,0.030
1446,0.130,0.030
1447,0.120,0.040
1448,0.120,0.040
1449,0.180,0.040
1450,0.140,0.030
1451,0.140,0.050
1452,0.170,0.060
1453,0.160,0.060
1454,0.150,0.050
1455,0.170,0.050
1456,0.130,0.060
1457,0.140,0.050
1458,0.140,0.060
1459,0.110,0.050
1460,0.130,0.040
1461,0.110,0.050
1462,0.100,0.050
1463,0.120,0.040
1464,0.080,0.050
1465,0.060,0.050
1466,0.100,0.050
1467,0.080,0.060
1468,0.050,0.050
1469,0.080,0.050
1470,0.070,0.050
1471,0.060,0.070
1472,0.060,0.050
1473,0.030,0.070
1474,0.050,0.060
1475,0.060,0.070
1476,0.020,0.070
1477,0.040,0.060
1478,0.020,0.070
1479,0.010,0.080
1480,0.040,0.060
1481,0.000,0.070
1482,-0.010,0.060
1483,0.030,0.050
1484,-0.010,0.070
1485,-0.010,0.060
1486,0.000,0.050
1487,-0.010,0.050
1488,-0.020,0.050
1489,0.010,0.050
1490,-0.040,0.040
1491,-0.020,0.030
1492,0.000,0.040
1493,-0.040,0.050
1494,-0.020,0.040
1495,-0.050,0.040
1496,-0.050,0.040
1497,-0.020,0.040
1498,-0.040,0.040
1499,-0.070,0.050
1500,-0.020,0.030
1501,-0.040,0.060
1502,-0.040,0.030
1503,0.000,0.040
1504,-0.030,0.040
1505,0.010,0.040
1506,0.030,0.030
1507,-0.010,0.030
1508,0.010,0.040
1509,0.020,0.030
1510,0.000,0.050
1511,0.030,0.030
1512,0.010,0.020
1513,0.010,0.040
1514,0.030,0.030
1515,0.010,0.040
1516,0.000,0.040
1517,0.040,0.040
1518,0.000,0.050
1519,0.020,0.050
1520,0.040,0.050
1521,-0.010,0.050
1522,0.030,0.040
1523,0.040,0.050
1524,0.010,0.040
1525,0.030,0.030
1526,0.010,0.050
1527,0.010,0.050
1528,0.090,0.060
1529,0.080,0.100
1530,0.090,0.110
1531,0.140,0.150
1532,0.200,0.170
1533,0.200,0.200
1534,0.210,0.160
1535,0.130,0.130
1536,0.100,0.100
1537,0.160,0.080
1538,0.050,0.100
1539,0.020,0.030
1540,0.020,0.020
1541,0.020,0.050
1542,-0.030,0.040
1543,-0.080,0.050
1544,-0.120,0.010
1545,-0.090,0.010
1546,-0.110,0.030
1547,-0.120,0.040
1548,-0.070,0.040
1549,-0.090,0.050
1550,-0.070,0.060
1551,0.140,0.130
1552,0.060,0.180
1553,0.280,0.150
1554,0.390,0.050
1555,0.540,0.160
1556,-0.400,-0.440
1557,-0.860,-1.110
1558,-2.010,-1.400
1559,-1.490,-1.160
1560,-1.540,-0.890
1561,-1.130,-0.710
1562,-0.680,-0.350
1563,-0.360,-0.090
1564,-0.240,0.010
1565,-0.170,0.060
1566,-0.170,0.080
1567,-0.120,0.090
1568,-0.100,0.100
1569,-0.120,0.120
1570,-0.100,0.110
1571,-0.070,0.110
1572,-0.110,0.100
1573,-0.060,0.110
1574,-0.080,0.120
1575,-0.080,0.120
1576,-0.040,0.110
1577,-0.040,0.110
1578,-0.070,0.120
1579,-0.010,0.120
1580,0.010,0.140
1581,0.010,0.150
1582,0.040,0.140
1583,0.010,0.160
1584,0.060,0.160
1585,0.090,0.170
1586,0.080,0.170
1587,0.110,0.170
1588,0.110,0.180
1589,0.100,0.190
1590,0.130,0.160
1591,0.100,0.160
1592,0.080,0.140
1593,0.100,0.110
1594,0.070,0.100
1595,0.030,0.080
1596,0.030,0.040
1597,0.000,0.030
1598,0.020,0.010
1599,0.050,0.010
1600,0.010,0.020
1601,0.050,0.030
1602,0.040,0.030
1603,0.030,0.050
1604,0.050,0.060
1605,0.040,0.060
1606,0.020,0.060
1607,0.060,0.060
1608,0.010,0.060
1609,0.000,0.070
1610,0.030,0.060
1611,0.010,0.070
1612,0.030,0.080
1613,0.020,0.090
1614,0.010,0.090
1615,0.040,0.110
1616,0.060,0.130
1617,0.030,0.130
1618,0.060,0.130
1619,0.050,0.150
1620,0.040,0.160
1621,0.080,0.170
1622,0.070,0.190
1623,0.070,0.180
1624,0.110,0.180
1625,0.090,0.200
1626,0.090,0.180
1627,0.110,0.190
1628,0.100,0.190
1629,0.120,0.190
1630,0.100,0.170
1631,0.080,0.180
1632,0.090,0.160
1633,0.100,0.160
1634,0.050,0.150
1635,0.090,0.130
1636,0.050,0.140
1637,0.040,0.120
1638,0.060,0.110
1639,0.020,0.120
1640,0.010,0.110
1641,0.050,0.090
1642,0.010,0.090
1643,-0.020,0.100
1644,0.010,0.090
1645,-0.010,0.080
1646,0.000,0.090
1647,-0.010,0.090
1648,-0.050,0.080
1649,-0.030,0.080
1650,-0.020,0.080
1651,-0.040,0.080
1652,-0.010,0.070
1653,-0.030,0.080
1654,-0.050,0.060
1655,0.000,0.060
1656,-0.020,0.060
1657,-0.050,0.040
1658,0.010,0.050
1659,-0.020,0.040
1660,-0.030,0.030
1661,-0.020,0.030
1662,-0.040,0.030
1663,-0.020,0.030
1664,-0.010,0.020
1665,-0.050,0.010
1666,-0.020,0.010
1667,-0.010,0.020
1668,-0.040,0.000
1669,-0.030,-0.010
1670,-0.030,0.010
1671,-0.030,0.010
1672,-0.010,-0.010
1673,-0.040,0.010
1674,-0.050,-0.010
1675,-0.010,-0.010
1676,-0.020,0.000
1677,-0.040,0.000
1678,-0.010,0.000
1679,-0.030,0.000
1680,0.000,-0.010
1681,0.000,0.000
1682,-0.030,0.000
1683,0.000,0.000
1684,-0.010,0.000
1685,-0.040,0.000
1686,-0.020,-0.010
1687,-0.030,0.010
1688,-0.050,0.000
1689,-0.010,0.000
1690,-0.060,-0.010
1691,-0.060,-0.010
1692,-0.020,0.000
1693,-0.040,0.000
1694,-0.040,0.010
1695,-0.020,0.000
1696,-0.050,-0.010
1697,-0.010,0.000
1698,0.010,-0.010
1699,-0.040,0.010
1700,0.000,0.000
1701,-0.010,0.000
1702,-0.020,0.010
1703,0.000,0.000
1704,-0.020,0.010
1705,-0.030,0.010
1706,0.000,-0.010
1707,-0.020,0.010
1708,-0.050,0.000
1709,0.010,0.010
1710,-0.010,0.010
1711,-0.030,0.020
1712,-0.010,0.020
1713,0.020,0.030
1714,0.060,0.040
1715,0.100,0.090
1716,0.060,0.110
1717,0.160,0.120
1718,0.180,0.150
1719,0.160,0.110
1720,0.140,0.060
1721,0.070,0.050
1722,0.120,0.060
1723,0.070,0.040
1724,0.000,-0.020
1725,-0.040,-0.030
1726,0.030,0.000
1727,-0.050,-0.030
1728,-0.100,-0.020
1729,-0.100,-0.060
1730,-0.130,-0.070
1731,-0.100,-0.070
1732,-0.080,-0.070
1733,-0.110,-0.050
1734,-0.060,-0.070
1735,-0.060,-0.050
1736,0.040,-0.020
1737,0.130,0.070
1738,0.250,0.050
1739,0.250,-0.110
1740,0.480,0.020
1741,0.060,-0.190
1742,-0.750,-1.110
1743,-1.700,-1.290
1744,-1.650,-1.340
1745,-1.600,-0.900
1746,-1.210,-0.930
1747,-0.860,-0.500
1748,-0.420,-0.350
1749,-0.230,-0.160
1750,-0.190,-0.080
1751,-0.110,-0.060
1752,-0.090,-0.040
1753,-0.090,-0.040
1754,-0.070,-0.030
1755,-0.070,-0.040
1756,-0.060,-0.050
1757,-0.050,-0.040
1758,-0.070,-0.040
1759,-0.070,-0.050
1760,-0.040,-0.050
1761,-0.060,-0.040
1762,-0.040,-0.050
1763,-0.040,-0.050
1764,-0.030,-0.040
1765,0.010,-0.040
1766,-0.020,-0.040
1767,-0.020,-0.020
1768,0.020,-0.030
1769,0.050,-0.010
1770,0.040,0.000
1771,0.100,0.000
1772,0.080,0.010
1773,0.100,0.010
1774,0.150,0.010
1775,0.130,0.030
1776,0.160,0.010
1777,0.160,0.010
1778,0.140,-0.010
1779,0.130,-0.030
1780,0.130,-0.030
1781,0.070,-0.060
1782,0.110,-0.070
1783,0.070,-0.090
1784,0.060,-0.110
1785,0.080,-0.110
1786,0.090,-0.100
1787,0.050,-0.100
1788,0.070,-0.090
1789,0.040,-0.080
1790,0.020,-0.090
1791,0.050,-0.090
1792,-0.020,-0.090
1793,0.000,-0.080
1794,0.000,-0.110
1795,-0.040,-0.100
1796,-0.020,-0.130
1797,-0.020,-0.120
1798,-0.040,-0.120
1799,0.000,-0.140
1800,-0.030,-0.120
1801,-0.030,-0.130
1802,0.000,-0.150
1803,-0.010,-0.140
1804,-0.010,-0.140
1805,0.020,-0.140
1806,0.010,-0.120
1807,0.020,-0.120
1808,0.040,-0.130
1809,0.010,-0.120
1810,0.030,-0.120
1811,0.050,-0.110
1812,0.020,-0.120
1813,0.050,-0.110
1814,0.030,-0.120
1815,0.020,-0.120
1816,0.040,-0.130
1817,0.030,-0.110
1818,-0.020,-0.140
1819,0.030,-0.130
1820,0.000,-0.140
1821,-0.010,-0.150
1822,0.000,-0.150
1823,-0.010,-0.140
1824,-0.020,-0.160
1825,0.000,-0.150
1826,-0.040,-0.160
1827,-0.030,-0.170
1828,-0.020,-0.150
1829,-0.050,-0.160
1830,-0.040,-0.170
1831,-0.050,-0.150
1832,-0.060,-0.170
1833,-0.030,-0.160
1834,-0.050,-0.150
1835,-0.080,-0.150
1836,-0.030,-0.150
1837,-0.060,-0.150
1838,-0.060,-0.160
1839,-0.040,-0.150
1840,-0.050,-0.150
1841,-0.040,-0.150
1842,-0.060,-0.160
1843,-0.080,-0.130
1844,-0.050,-0.160
1845,-0.050,-0.140
1846,-0.080,-0.150
1847,-0.040,-0.140
1848,-0.090,-0.150
1849,-0.080,-0.150
1850,-0.050,-0.160
1851,-0.090,-0.140
1852,-0.090,-0.140
1853,-0.060,-0.140
1854,-0.090,-0.140
1855,-0.060,-0.140
1856,-0.090,-0.140
1857,-0.100,-0.140
1858,-0.070,-0.140
1859,-0.080,-0.130
1860,-0.100,-0.120
1861,-0.070,-0.140
1862,-0.080,-0.120
1863,-0.100,-0.120
1864,-0.040,-0.120
1865,-0.080,-0.110
1866,-0.070,-0.110
1867,-0.030,-0.120
1868,-0.050,-0.100
1869,-0.050,-0.120
1870,-0.010,-0.110
1871,-0.030,-0.100
1872,-0.010,-0.110
1873,-0.010,-0.090
1874,-0.040,-0.100
1875,0.010,-0.110
1876,0.000,-0.080
1877,-0.020,-0.090
1878,0.020,-0.100
1879,0.020,-0.090
1880,0.000,-0.100
1881,0.040,-0.100
1882,-0.010,-0.100
1883,0.010,-0.100
1884,0.040,-0.100
1885,0.000,-0.110
1886,0.010,-0.110
1887,0.030,-0.100
1888,0.010,-0.090
1889,0.030,-0.100
1890,0.030,-0.090
1891,0.010,-0.080
1892,0.080,-0.070
1893,0.080,-0.040
1894,0.080,0.000
1895,0.170,0.010
1896,0.200,0.040
1897,0.180,0.000
1898,0.140,-0.030
1899,0.080,-0.040
1900,0.110,-0.060
1901,0.140,-0.020
1902,-0.010,-0.100
1903,0.020,-0.110
1904,0.030,-0.100
1905,-0.060,-0.070
1906,-0.060,-0.080
1907,-0.090,-0.090
1908,-0.140,-0.100
1909,-0.080,-0.100
1910,-0.080,-0.090
1911,-0.090,-0.070
1912,-0.050,-0.070
1913,-0.040,-0.060
1914,0.060,-0.040
1915,0.160,0.060
1916,0.260,0.050
1917,0.310,-0.090
1918,0.520,0.040
1919,0.250,-0.200
1920,-0.630,-1.130
1921,-1.660,-1.340
1922,-1.790,-1.460
1923,-1.560,-0.970
1924,-1.180,-0.980
1925,-0.880,-0.530
1926,-0.410,-0.360
1927,-0.230,-0.170
1928,-0.150,-0.090
1929,-0.110,-0.060
1930,-0.100,-0.040
1931,-0.050,-0.020
1932,-0.050,-0.030
1933,-0.080,-0.020
1934,-0.050,-0.020
1935,-0.050,0.000
1936,-0.060,0.000
1937,-0.020,0.010
1938,-0.050,0.010
1939,-0.040,0.030
1940,0.000,0.020
1941,-0.030,0.040
1942,-0.030,0.060
1943,0.010,0.060
1944,0.000,0.070
1945,0.010,0.080
1946,0.030,0.100
1947,0.030,0.120
1948,0.080,0.120
1949,0.080,0.140
1950,0.070,0.140
1951,0.110,0.140
1952,0.130,0.150
1953,0.110,0.140
1954,0.140,0.140
1955,0.100,0.130
1956,0.090,0.120
1957,0.130,0.090
1958,0.090,0.070
1959,0.070,0.060
1960,0.080,0.040
1961,0.070,0.010
1962,0.070,0.000
1963,0.090,0.010
1964,0.080,0.020
1965,0.130,0.020
1966,0.100,0.040
1967,0.080,0.040
1968,0.100,0.040
1969,0.090,0.040
1970,0.070,0.060
1971,0.100,0.040
1972,0.090,0.050
1973,0.070,0.040
1974,0.110,0.040
1975,0.080,0.050
1976,0.070,0.070
1977,0.110,0.070
1978,0.100,0.080
1979,0.120,0.090
1980,0.130,0.090
1981,0.110,0.100
1982,0.160,0.100
1983,0.170,0.120
1984,0.130,0.110
1985,0.180,0.120
1986,0.170,0.130
1987,0.170,0.140
1988,0.190,0.130
1989,0.180,0.140
1990,0.170,0.140
1991,0.200,0.140
1992,0.160,0.140
1993,0.170,0.130
1994,0.160,0.130
1995,0.150,0.130
1996,0.150,0.120
1997,0.130,0.110
1998,0.100,0.100
1999,0.130,0.100
2000,0.130,0.110
2001,0.090,0.090
2002,0.110,0.080
2003,0.090,0.080
2004,0.100,0.090
2005,0.120,0.080
2006,0.090,0.090
2007,0.080,0.080
2008,0.120,0.080
2009,0.080,0.070
2010,0.100,0.070
2011,0.110,0.070
2012,0.070,0.070
2013,0.110,0.080
2014,0.090,0.070
2015,0.060,0.070
2016,0.110,0.070
2017,0.100,0.090
2018,0.050,0.080
2019,0.110,0.080
2020,0.060,0.080
2021,0.060,0.060
2022,0.090,0.060
2023,0.050,0.050
2024,0.060,0.050
2025,0.090,0.030
2026,0.040,0.040
2027,0.050,0.010
2028,0.060,0.020
2029,0.040,0.010
2030,0.070,0.000
2031,0.040,-0.010
2032,0.020,-0.030
2033,0.070,-0.030
2034,0.050,-0.040
2035,0.010,-0.040
2036,0.060,-0.060
2037,0.040,-0.060
2038,0.040,-0.070
2039,0.050,-0.070
2040,0.030,-0.070
2041,0.050,-0.070
2042,0.060,-0.090
2043,0.040,-0.070
2044,0.040,-0.090
2045,0.050,-0.090
2046,0.030,-0.070
2047,0.060,-0.070
2048,0.040,-0.060
2049,0.020,-0.060
2050,0.050,-0.060
2051,0.040,-0.050
2052,0.040,-0.040
2053,0.050,-0.030
2054,0.030,-0.030
2055,0.040,-0.020
2056,0.040,-0.020
2057,0.010,-0.010
2058,0.040,-0.020
2059,0.050,0.010
2060,0.020,0.010
2061,0.030,0.010
2062,0.030,0.030
2063,0.010,0.020
2064,0.050,0.030
2065,0.020,0.040
2066,-0.010,0.030
2067,0.040,0.040
2068,0.010,0.040
2069,0.020,0.050
2070,0.040,0.060
2071,0.080,0.090
2072,0.090,0.110
2073,0.140,0.140
2074,0.120,0.180
2075,0.230,0.230
2076,0.240,0.220
2077,0.210,0.190
2078,0.190,0.160
2079,0.130,0.120
2080,0.200,0.150
2081,0.130,0.110
2082,0.070,0.070
2083,0.050,0.050
2084,0.100,0.080
2085,0.030,0.050
2086,-0.020,0.030
2087,-0.030,0.020
2088,-0.060,-0.010
2089,-0.010,0.020
2090,-0.010,0.020
2091,-0.040,0.020
2092,0.000,0.010
2093,0.010,0.020
2094,0.150,0.080
2095,0.170,0.120
2096,0.310,0.110
2097,0.410,-0.010
2098,0.620,0.110
2099,-0.110,-0.360
2100,-0.700,-1.150
2101,-1.810,-1.400
2102,-1.610,-1.320
2103,-1.560,-0.910
2104,-1.090,-0.850
2105,-0.760,-0.410
2106,-0.340,-0.180
2107,-0.180,-0.050
2108,-0.150,0.020
2109,-0.090,0.040
2110,-0.070,0.070
2111,-0.070,0.080
2112,-0.030,0.090
2113,-0.050,0.110
2114,-0.040,0.100
2115,-0.010,0.110
2116,-0.030,0.110
2117,-0.020,0.110
2118,-0.010,0.130
2119,-0.020,0.120
2120,0.000,0.120
2121,-0.010,0.140
2122,-0.010,0.130
2123,0.050,0.150
2124,0.040,0.150
2125,0.020,0.150
2126,0.070,0.160
2127,0.080,0.160
2128,0.080,0.190
2129,0.140,0.200
2130,0.120,0.200
2131,0.160,0.210
2132,0.190,0.200
2133,0.170,0.200
2134,0.180,0.180
2135,0.190,0.170
2136,0.160,0.160
2137,0.170,0.130
2138,0.130,0.110
2139,0.100,0.080
2140,0.140,0.060
2141,0.120,0.050
2142,0.110,0.050
2143,0.130,0.080
2144,0.140,0.070
2145,0.130,0.090
2146,0.150,0.100
2147,0.110,0.110
2148,0.120,0.100
2149,0.110,0.110
2150,0.080,0.110
2151,0.110,0.100
2152,0.070,0.110
2153,0.060,0.110
2154,0.090,0.100
2155,0.070,0.120
2156,0.050,0.100
2157,0.090,0.110
2158,0.080,0.120
2159,0.100,0.110
2160,0.110,0.120
2161,0.080,0.130
2162,0.100,0.130
2163,0.130,0.130
2164,0.100,0.130
2165,0.120,0.130
2166,0.130,0.140
2167,0.110,0.140
2168,0.160,0.150
2169,0.110,0.150
2170,0.100,0.160
2171,0.140,0.140
2172,0.120,0.150
2173,0.100,0.140
2174,0.110,0.150
2175,0.080,0.130
2176,0.110,0.150
2177,0.100,0.130
2178,0.050,0.120
2179,0.060,0.120
2180,0.070,0.110
2181,0.030,0.110
2182,0.060,0.090
2183,0.040,0.090
2184,0.010,0.090
2185,0.050,0.090
2186,0.020,0.090
2187,0.010,0.090
2188,0.030,0.080
2189,0.030,0.090
2190,0.030,0.080
2191,0.040,0.080
2192,-0.010,0.070
2193,0.030,0.070
2194,0.020,0.080
2195,0.000,0.070
2196,0.020,0.070
2197,0.000,0.080
2198,-0.010,0.070
2199,0.010,0.060
2200,-0.010,0.070
2201,-0.010,0.070
2202,0.010,0.070
2203,0.000,0.070
2204,0.010,0.060
2205,0.000,0.060
2206,-0.010,0.070
2207,0.020,0.050
2208,0.000,0.050
2209,-0.030,0.060
2210,0.010,0.050
2211,0.000,0.060
2212,-0.020,0.060
2213,0.000,0.050
2214,-0.030,0.060
2215,0.000,0.050
2216,-0.010,0.040
2217,-0.020,0.050
2218,-0.030,0.050
2219,0.000,0.050
2220,-0.030,0.050
2221,0.000,0.050
2222,-0.040,0.050
2223,-0.050,0.050
2224,0.000,0.050
2225,-0.030,0.040
2226,-0.060,0.050
2227,-0.030,0.040
2228,-0.050,0.050
2229,-0.060,0.020
2230,-0.040,0.050
2231,-0.090,0.040
2232,-0.070,0.040
2233,-0.070,0.050
2234,-0.090,0.050
2235,-0.090,0.050
2236,-0.060,0.050
2237,-0.100,0.060
2238,-0.050,0.050
2239,-0.090,0.060
2240,-0.100,0.050
2241,-0.040,0.040
2242,-0.070,0.050
2243,-0.060,0.050
2244,-0.050,0.050
2245,-0.060,0.060
2246,-0.050,0.050
2247,-0.030,0.060
2248,-0.040,0.070
2249,0.010,0.080
2250,0.040,0.120
2251,0.020,0.140
2252,0.150,0.170
2253,0.110,0.170
2254,0.110,0.140
2255,0.100,0.090
2256,0.020,0.070
2257,0.080,0.080
2258,0.000,0.060
2259,-0.030,0.010
2260,-0.040,0.000
2261,-0.020,0.050
2262,-0.070,0.020
2263,-0.110,-0.010
2264,-0.120,-0.030
2265,-0.150,-0.030
2266,-0.120,-0.020
2267,-0.120,0.000
2268,-0.110,-0.010
2269,-0.070,-0.010
2270,-0.110,0.000
2271,0.090,0.070
2272,0.070,0.110
2273,0.220,0.090
2274,0.250,-0.020
2275,0.530,0.110
2276,-0.390,-0.420
2277,-0.810,-1.130
2278,-1.900,-1.380
2279,-1.600,-1.180
2280,-1.630,-0.900
2281,-1.190,-0.830
2282,-0.870,-0.410
2283,-0.450,-0.220
2284,-0.320,-0.080
2285,-0.260,-0.020
2286,-0.220,-0.010
2287,-0.220,0.010
2288,-0.190,0.020
2289,-0.170,0.020
2290,-0.170,0.020
2291,-0.180,0.030
2292,-0.160,0.030
2293,-0.190,0.030
2294,-0.130,0.040
2295,-0.130,0.050
2296,-0.170,0.060
2297,-0.120,0.050
2298,-0.120,0.050
2299,-0.130,0.060
2300,-0.070,0.080
2301,-0.070,0.100
2302,-0.080,0.080
2303,-0.010,0.110
2304,-0.040,0.100
2305,0.000,0.120
2306,0.040,0.130
2307,0.030,0.140
2308,0.070,0.130
2309,0.060,0.140
2310,0.040,0.130
2311,0.090,0.120
2312,0.070,0.110
2313,0.040,0.100
2314,0.040,0.080
2315,0.020,0.050
2316,0.010,0.040
2317,0.010,0.020
2318,-0.030,0.020
2319,-0.010,0.010
2320,0.030,0.020
2321,0.000,0.020
2322,0.010,0.030
2323,-0.010,0.040
2324,-0.010,0.030
2325,0.010,0.030
2326,-0.040,0.030
2327,-0.070,0.040
2328,-0.020,0.020
2329,-0.050,0.030
2330,-0.080,0.020
2331,-0.040,0.020
2332,-0.080,0.020
2333,-0.060,0.020
2334,-0.050,0.030
2335,-0.070,0.040
2336,-0.080,0.040
2337,-0.040,0.050
2338,-0.080,0.050
2339,-0.050,0.050
2340,-0.040,0.070
2341,-0.060,0.070
2342,0.000,0.070
2343,-0.030,0.080
2344,-0.050,0.080
2345,-0.010,0.090
2346,-0.030,0.100
2347,-0.040,0.090
2348,-0.020,0.100
2349,-0.050,0.100
2350,-0.020,0.090
2351,-0.030,0.100
2352,-0.070,0.080
2353,-0.060,0.090
2354,-0.020,0.080
2355,-0.070,0.080
2356,-0.070,0.080
2357,-0.070,0.080
2358,-0.090,0.050
2359,-0.060,0.050
2360,-0.080,0.060
2361,-0.100,0.050
2362,-0.070,0.040
2363,-0.080,0.050
2364,-0.090,0.020
2365,-0.080,0.030
2366,-0.120,0.010
2367,-0.080,0.010
2368,-0.090,0.010
2369,-0.120,0.010
2370,-0.100,0.000
2371,-0.120,0.000
2372,-0.140,0.000
2373,-0.110,-0.010
2374,-0.140,0.000
2375,-0.170,-0.010
2376,-0.140,-0.010
2377,-0.160,0.000
2378,-0.170,0.000
2379,-0.150,-0.010
2380,-0.170,-0.010
2381,-0.170,-0.020
2382,-0.150,-0.020
2383,-0.180,-0.010
2384,-0.160,-0.010
2385,-0.140,-0.010
2386,-0.150,-0.030
2387,-0.130,-0.010
2388,-0.140,-0.020
2389,-0.130,-0.010
2390,-0.100,-0.010
2391,-0.110,0.000
2392,-0.130,-0.010
2393,-0.070,0.000
2394,-0.100,0.010
2395,-0.100,0.000
2396,-0.080,0.020
2397,-0.100,0.000
2398,-0.070,0.010
2399,-0.080,0.010
2400,-0.100,0.010
2401,-0.080,0.000
2402,-0.090,0.030
2403,-0.090,0.010
2404,-0.070,0.010
2405,-0.100,0.020
2406,-0.110,0.030
2407,-0.060,0.020
2408,-0.090,0.030
2409,-0.100,0.020
2410,-0.060,0.020
2411,-0.080,0.030
2412,-0.060,0.030
2413,-0.060,0.030
2414,-0.080,0.030
2415,-0.030,0.030
2416,-0.050,0.020
2417,-0.060,0.030
2418,-0.030,0.020
2419,-0.040,0.050
2420,-0.060,0.020
2421,-0.010,0.040
2422,-0.060,0.040
2423,-0.060,0.030
2424,-0.010,0.030
2425,-0.040,0.040
2426,-0.040,0.030
2427,0.020,0.040
2428,0.010,0.060
2429,0.050,0.080
2430,0.080,0.130
2431,0.100,0.140
2432,0.180,0.180
2433,0.180,0.140
2434,0.090,0.100
2435,0.090,0.080
2436,0.110,0.070
2437,0.070,0.090
2438,0.050,0.020
2439,0.000,0.010
2440,0.020,0.020
2441,-0.020,0.030
2442,-0.060,0.040
2443,-0.080,0.000
2444,-0.090,-0.020
2445,-0.090,0.000
2446,-0.050,-0.010
2447,-0.050,0.000
2448,-0.070,0.000
2449,-0.020,0.010
2450,0.090,0.050
2451,0.120,0.120
2452,0.320,0.110
2453,0.330,-0.040
2454,0.550,0.090
2455,-0.020,-0.330
2456,-0.680,-1.160
2457,-1.810,-1.410
2458,-1.630,-1.340
2459,-1.610,-0.930
2460,-1.100,-0.880
2461,-0.760,-0.430
2462,-0.410,-0.210
2463,-0.200,-0.100
2464,-0.150,-0.030
2465,-0.120,-0.010
2466,-0.070,0.010
2467,-0.100,0.030
2468,-0.050,0.030
2469,-0.040,0.040
2470,-0.060,0.050
2471,-0.030,0.050
2472,-0.030,0.070
2473,-0.060,0.060
2474,0.000,0.050
2475,-0.040,0.080
2476,-0.050,0.070
2477,0.010,0.090
2478,-0.010,0.110
2479,0.010,0.110
2480,0.030,0.120
2481,0.030,0.140
2482,0.070,0.140
2483,0.090,0.160
2484,0.070,0.180
2485,0.120,0.170
2486,0.140,0.190
2487,0.130,0.190
2488,0.160,0.200
2489,0.150,0.190
2490,0.130,0.190
2491,0.190,0.170
2492,0.120,0.170
2493,0.110,0.140
2494,0.130,0.110
2495,0.090,0.100
2496,0.110,0.070
2497,0.100,0.070
2498,0.100,0.070
2499,0.130,0.060
2500,0.150,0.080
2501,0.110,0.080
2502,0.140,0.080
2503,0.120,0.080
2504,0.110,0.070
2505,0.130,0.070
2506,0.100,0.070
2507,0.080,0.080
2508,0.110,0.070
2509,0.080,0.080
2510,0.080,0.070
2511,0.100,0.080
2512,0.080,0.070
2513,0.110,0.100
2514,0.100,0.100
2515,0.090,0.110
2516,0.120,0.100
2517,0.130,0.120
2518,0.120,0.120
2519,0.150,0.130
2520,0.130,0.140
2521,0.150,0.130
2522,0.160,0.150
2523,0.140,0.150
2524,0.150,0.150
2525,0.160,0.160
2526,0.150,0.160
2527,0.170,0.140
2528,0.140,0.150
2529,0.100,0.130
2530,0.150,0.140
2531,0.130,0.120
2532,0.110,0.120
2533,0.120,0.120
2534,0.100,0.110
2535,0.100,0.100
2536,0.120,0.090
2537,0.080,0.100
2538,0.100,0.070
2539,0.110,0.090
2540,0.070,0.080
2541,0.090,0.080
2542,0.060,0.070
2543,0.050,0.060
2544,0.070,0.050
2545,0.050,0.050
2546,0.010,0.050
2547,0.060,0.060
2548,0.020,0.050
2549,0.050,0.030
2550,0.040,0.040
2551,0.020,0.040
2552,0.040,0.030
2553,0.050,0.040
2554,0.030,0.040
2555,0.060,0.030
2556,0.060,0.040
2557,0.050,0.040
2558,0.080,0.050
2559,0.050,0.050
2560,0.050,0.050
2561,0.080,0.050
2562,0.060,0.060
2563,0.050,0.060
2564,0.070,0.060
2565,0.040,0.060
2566,0.060,0.050
2567,0.060,0.070
2568,0.030,0.060
2569,0.070,0.080
2570,0.070,0.090
2571,0.040,0.080
2572,0.070,0.070
2573,0.050,0.070
2574,0.040,0.090
2575,0.090,0.080
2576,0.040,0.070
2577,0.040,0.070
2578,0.060,0.080
2579,0.050,0.080
2580,0.060,0.070
2581,0.050,0.080
2582,0.030,0.070
2583,0.080,0.070
2584,0.070,0.070
2585,0.030,0.060
2586,0.090,0.060
2587,0.070,0.060
2588,0.060,0.070
2589,0.080,0.060
2590,0.080,0.070
2591,0.070,0.060
2592,0.110,0.060
2593,0.070,0.060
2594,0.080,0.050
2595,0.090,0.050
2596,0.090,0.050
2597,0.100,0.030
2598,0.080,0.040
2599,0.070,0.040
2600,0.160,0.050
2601,0.150,0.070
2602,0.150,0.100
2603,0.200,0.110
2604,0.270,0.140
2605,0.300,0.160
2606,0.280,0.120
2607,0.210,0.070
2608,0.190,0.050
2609,0.260,0.050
2610,0.140,0.040
2611,0.120,-0.020
2612,0.100,-0.020
2613,0.110,0.020
2614,0.090,-0.010
2615,0.010,-0.010
2616,-0.020,-0.010
2617,0.010,-0.050
2618,0.000,-0.020
2619,0.000,-0.010
2620,0.060,-0.020
2621,0.010,-0.010
2622,0.070,-0.020
2623,0.240,0.050
2624,0.190,0.090
2625,0.430,0.070
2626,0.520,-0.020
2627,0.680,0.080
2628,-0.070,-0.470
2629,-0.640,-1.210
2630,-1.840,-1.490
2631,-1.490,-1.360
2632,-1.480,-0.970
2633,-1.040,-0.900
2634,-0.660,-0.500
2635,-0.260,-0.270
2636,-0.100,-0.140
2637,-0.040,-0.060
2638,-0.030,-0.050
2639,0.020,-0.050
2640,0.020,-0.040
2641,-0.010,-0.040
2642,0.020,-0.050
2643,0.020,-0.030
2644,0.000,-0.040
2645,0.020,-0.050
2646,0.020,-0.040
2647,0.000,-0.050
2648,0.050,-0.040
2649,0.020,-0.040
2650,0.040,-0.030
2651,0.040,-0.030
2652,0.060,-0.020
2653,0.070,-0.020
2654,0.090,-0.010
2655,0.080,0.010
2656,0.140,-0.010
2657,0.150,0.020
2658,0.140,0.010
2659,0.200,0.030
2660,0.180,0.030
2661,0.210,0.020
2662,0.230,0.030
2663,0.210,0.010
2664,0.210,0.000
2665,0.240,-0.020
2666,0.180,-0.040
2667,0.180,-0.060
2668,0.170,-0.090
2669,0.150,-0.120
2670,0.180,-0.130
2671,0.190,-0.130
2672,0.160,-0.130
2673,0.200,-0.120
2674,0.180,-0.120
2675,0.170,-0.110
2676,0.180,-0.090
2677,0.150,-0.080
2678,0.150,-0.090
2679,0.170,-0.080
2680,0.120,-0.090
2681,0.120,-0.100
2682,0.140,-0.090
2683,0.110,-0.080
2684,0.130,-0.100
2685,0.120,-0.080
2686,0.090,-0.090
2687,0.140,-0.090
2688,0.120,-0.090
2689,0.110,-0.060
2690,0.150,-0.080
2691,0.160,-0.060
2692,0.130,-0.070
2693,0.190,-0.060
2694,0.160,-0.060
2695,0.200,-0.050
2696,0.220,-0.050
2697,0.180,-0.030
2698,0.190,-0.040
2699,0.220,-0.040
2700,0.180,-0.040
2701,0.200,-0.040
2702,0.170,-0.040
2703,0.140,-0.040
2704,0.170,-0.040
2705,0.130,-0.060
2706,0.100,-0.050
2707,0.130,-0.070
2708,0.100,-0.060
2709,0.100,-0.070
2710,0.090,-0.070
2711,0.040,-0.080
2712,0.060,-0.110
2713,0.070,-0.100
2714,0.030,-0.090
2715,0.050,-0.110
2716,0.040,-0.120
2717,0.020,-0.120
2718,0.040,-0.130
2719,0.030,-0.120
2720,0.000,-0.130
2721,0.050,-0.140
2722,0.020,-0.130
2723,0.030,-0.140
2724,0.020,-0.140
2725,0.010,-0.140
2726,0.030,-0.130
2727,0.020,-0.130
2728,-0.010,-0.140
2729,0.030,-0.170
2730,0.010,-0.140
2731,-0.010,-0.160
2732,0.020,-0.150
2733,-0.010,-0.160
2734,0.000,-0.160
2735,0.020,-0.170
2736,-0.010,-0.160
2737,-0.020,-0.170
2738,0.030,-0.170
2739,0.000,-0.170
2740,0.020,-0.180
2741,0.010,-0.170
2742,-0.020,-0.170
2743,0.040,-0.170
2744,0.030,-0.160
2745,-0.030,-0.160
2746,0.010,-0.170
2747,0.000,-0.170
2748,-0.010,-0.170
2749,0.020,-0.170
2750,-0.020,-0.170
2751,-0.010,-0.170
2752,0.020,-0.170
2753,-0.020,-0.170
2754,-0.020,-0.170
2755,-0.010,-0.160
2756,-0.030,-0.150
2757,0.010,-0.160
2758,-0.040,-0.150
2759,-0.050,-0.160
2760,0.010,-0.160
2761,-0.020,-0.140
2762,-0.030,-0.140
2763,-0.010,-0.150
2764,-0.020,-0.140
2765,-0.020,-0.150
2766,0.000,-0.140
2767,-0.060,-0.140
2768,-0.020,-0.140
2769,-0.020,-0.140
2770,-0.040,-0.140
2771,-0.020,-0.160
2772,-0.050,-0.140
2773,-0.070,-0.140
2774,-0.030,-0.150
2775,-0.070,-0.140
2776,-0.080,-0.140
2777,-0.020,-0.120
2778,-0.040,-0.100
2779,-0.010,-0.070
2780,0.010,-0.060
2781,0.030,-0.020
2782,0.080,-0.010
2783,0.080,-0.020
2784,-0.010,-0.070
2785,-0.010,-0.090
2786,-0.010,-0.090
2787,-0.050,-0.080
2788,-0.080,-0.170
2789,-0.110,-0.160
2790,-0.100,-0.130
2791,-0.120,-0.150
2792,-0.170,-0.140
2793,-0.190,-0.190
2794,-0.200,-0.200
2795,-0.190,-0.180
2796,-0.150,-0.200
2797,-0.140,-0.180
2798,-0.150,-0.170
2799,-0.110,-0.180
2800,0.010,-0.130
2801,0.050,-0.060
2802,0.240,-0.070
2803,0.190,-0.220
2804,0.440,-0.090
2805,-0.080,-0.410
2806,-0.780,-1.250
2807,-1.840,-1.470
2808,-1.630,-1.360
2809,-1.650,-0.990
2810,-1.210,-1.010
2811,-0.900,-0.570
2812,-0.490,-0.390
2813,-0.270,-0.260
2814,-0.230,-0.160
2815,-0.220,-0.150
2816,-0.160,-0.150
2817,-0.150,-0.120
2818,-0.150,-0.120
2819,-0.110,-0.110
2820,-0.150,-0.120
2821,-0.130,-0.110
2822,-0.100,-0.110
2823,-0.120,-0.100
2824,-0.100,-0.090
2825,-0.100,-0.100
2826,-0.100,-0.080
2827,-0.060,-0.070
2828,-0.070,-0.070
2829,-0.090,-0.060
2830,-0.020,-0.050
2831,-0.030,-0.030
2832,-0.020,-0.020
2833,0.010,-0.010
2834,0.020,0.000
2835,0.050,0.010
2836,0.090,0.020
2837,0.060,0.040
2838,0.110,0.030
2839,0.120,0.020
2840,0.090,0.030
2841,0.120,0.000
2842,0.080,0.010
2843,0.060,-0.010
2844,0.080,-0.040
2845,0.040,-0.060
2846,0.010,-0.080
2847,0.050,-0.100
2848,0.040,-0.090
2849,0.080,-0.070
2850,0.040,-0.060
2851,0.030,-0.060
2852,0.040,-0.050
2853,0.030,-0.040
2854,-0.020,-0.030
2855,0.000,-0.040
2856,-0.020,-0.030
2857,-0.030,-0.030
2858,0.000,-0.040
2859,-0.060,-0.030
2860,-0.050,-0.030
2861,-0.020,-0.020
2862,-0.050,-0.010
2863,-0.020,0.000
2864,-0.020,0.000
2865,-0.040,-0.010
2866,0.000,0.000
2867,-0.010,0.010
2868,-0.020,0.010
2869,0.010,0.010
2870,0.010,0.030
2871,0.000,0.010
2872,0.030,0.010
2873,0.030,0.030
2874,0.020,0.020
2875,0.050,0.050
2876,0.020,0.030
2877,0.010,0.030
2878,0.020,0.040
2879,0.000,0.030
2880,0.010,0.040
2881,-0.010,0.030
2882,-0.040,0.030
2883,-0.010,0.020
2884,-0.040,0.030
2885,-0.080,0.020
2886,-0.040,0.020
2887,-0.090,0.010
2888,-0.080,0.020
2889,-0.090,-0.010
2890,-0.100,0.010
2891,-0.100,0.000
2892,-0.070,0.000
2893,-0.110,-0.010
2894,-0.110,-0.020
2895,-0.070,-0.010
2896,-0.090,-0.020
2897,-0.060,-0.020
2898,-0.080,-0.030
2899,-0.110,-0.020
2900,-0.060,-0.040
2901,-0.070,-0.030
2902,-0.120,-0.020
2903,-0.070,-0.030
2904,-0.080,-0.020
2905,-0.080,-0.020
2906,-0.060,-0.020
2907,-0.100,-0.020
2908,-0.080,-0.020
2909,-0.060,-0.010
2910,-0.090,-0.020
2911,-0.090,-0.020
2912,-0.060,-0.010
2913,-0.080,-0.020
2914,-0.050,-0.010
2915,-0.080,0.000
2916,-0.090,-0.010
2917,-0.040,0.000
2918,-0.070,0.010
2919,-0.090,0.000
2920,-0.050,0.000
2921,-0.060,0.010
2922,-0.060,0.000
2923,-0.060,0.000
2924,-0.080,0.010
2925,-0.050,0.000
2926,-0.040,0.000
2927,-0.060,0.010
2928,-0.050,-0.010
2929,-0.070,0.010
2930,-0.070,0.010
2931,-0.020,0.010
2932,-0.060,0.010
2933,-0.050,0.020
2934,-0.040,0.020
2935,-0.050,0.020
2936,-0.060,0.030
2937,-0.040,0.040
2938,-0.060,0.040
2939,-0.030,0.030
2940,-0.040,0.040
2941,-0.070,0.030
2942,-0.030,0.020
2943,-0.030,0.030
2944,-0.050,0.020
2945,-0.020,0.020
2946,-0.030,0.020
2947,-0.030,0.010
2948,0.000,0.020
2949,-0.030,0.020
2950,-0.030,0.010
2951,0.020,0.020
2952,0.040,0.040
2953,0.050,0.050
2954,0.090,0.080
2955,0.100,0.120
2956,0.210,0.130
2957,0.180,0.140
2958,0.140,0.110
2959,0.150,0.070
2960,0.080,0.050
2961,0.130,0.070
2962,0.040,0.050
2963,0.020,0.010
2964,-0.010,0.000
2965,0.030,0.050
2966,-0.050,0.020
2967,-0.100,0.010
2968,-0.080,0.010
2969,-0.110,0.010
2970,-0.090,0.020
2971,-0.080,0.030
2972,-0.090,0.040
2973,-0.040,0.050
2974,-0.040,0.060
2975,0.090,0.140
2976,0.130,0.190
2977,0.290,0.180
2978,0.350,0.080
2979,0.630,0.210
2980,-0.310,-0.430
2981,-0.730,-1.090
2982,-1.840,-1.370
2983,-1.620,-1.180
2984,-1.620,-0.850
2985,-1.130,-0.780
2986,-0.830,-0.350
2987,-0.390,-0.140
2988,-0.210,0.000
2989,-0.160,0.070
2990,-0.100,0.080
2991,-0.090,0.120
2992,-0.090,0.110
2993,-0.050,0.120
2994,-0.050,0.130
2995,-0.070,0.130
2996,-0.040,0.140
2997,-0.030,0.160
2998,0.000,0.160
2999,0.000,0.160
3000,-0.030,0.160
3001,0.010,0.140
3002,0.040,0.170
3003,0.020,0.170
3004,0.040,0.170
3005,0.060,0.190
3006,0.050,0.190
3007,0.110,0.190
3008,0.090,0.210
3009,0.120,0.230
3010,0.160,0.230
3011,0.170,0.230
3012,0.160,0.240
3013,0.200,0.230
3014,0.180,0.230
3015,0.220,0.220
3016,0.210,0.190
3017,0.150,0.170
3018,0.180,0.140
3019,0.170,0.120
3020,0.130,0.090
3021,0.150,0.050
3022,0.130,0.040
3023,0.130,0.030
3024,0.170,0.030
3025,0.160,0.040
3026,0.150,0.060
3027,0.190,0.060
3028,0.170,0.070
3029,0.170,0.070
3030,0.160,0.050
3031,0.140,0.080
3032,0.160,0.070
3033,0.140,0.070
3034,0.110,0.060
3035,0.130,0.060
3036,0.130,0.070
3037,0.120,0.070
3038,0.140,0.080
3039,0.130,0.100
3040,0.130,0.090
3041,0.200,0.090
3042,0.140,0.100
3043,0.160,0.110
3044,0.210,0.120
3045,0.190,0.130
3046,0.210,0.120
3047,0.210,0.120
3048,0.190,0.130
3049,0.230,0.140
3050,0.210,0.140
3051,0.170,0.130
3052,0.210,0.120
3053,0.190,0.120
3054,0.170,0.110
3055,0.190,0.110
3056,0.170,0.100
3057,0.170,0.100
3058,0.190,0.080
3059,0.130,0.080
3060,0.140,0.080
3061,0.160,0.080
3062,0.120,0.070
3063,0.150,0.050
3064,0.120,0.050
3065,0.090,0.050
3066,0.130,0.040
3067,0.110,0.050
3068,0.080,0.040
3069,0.100,0.050
3070,0.090,0.040
3071,0.100,0.040
3072,0.100,0.040
3073,0.070,0.040
3074,0.100,0.040
3075,0.110,0.040
3076,0.080,0.050
3077,0.100,0.030
3078,0.080,0.040
3079,0.080,0.040
3080,0.110,0.040
3081,0.070,0.030
3082,0.070,0.030
3083,0.100,0.030
3084,0.090,0.020
3085,0.070,0.020
3086,0.090,0.030
3087,0.060,0.030
3088,0.100,0.010
3089,0.090,0.020
3090,0.050,0.020
3091,0.090,0.020
3092,0.080,0.010
3093,0.070,0.020
3094,0.090,0.010
3095,0.070,0.000
3096,0.060,-0.010
3097,0.110,0.000
3098,0.070,-0.010
3099,0.070,-0.020
3100,0.090,-0.020
3101,0.080,-0.030
3102,0.080,-0.030
3103,0.080,-0.020
3104,0.050,-0.020
3105,0.110,-0.030
3106,0.080,-0.020
3107,0.050,-0.030
3108,0.080,-0.010
3109,0.070,-0.020
3110,0.080,-0.020
3111,0.090,-0.020
3112,0.050,-0.020
3113,0.050,-0.030
3114,0.090,-0.010
3115,0.040,-0.030
3116,0.080,-0.020
3117,0.060,-0.020
3118,0.050,-0.020
3119,0.080,-0.010
3120,0.060,-0.010
3121,0.030,0.010
3122,0.070,-0.010
3123,0.080,0.010
3124,0.040,0.000
3125,0.080,0.020
3126,0.080,0.020
3127,0.140,0.050
3128,0.170,0.070
3129,0.150,0.110
3130,0.210,0.130
3131,0.290,0.170
3132,0.260,0.130
3133,0.210,0.090
3134,0.170,0.090
3135,0.180,0.060
3136,0.220,0.080
3137,0.090,0.020
3138,0.080,0.000
3139,0.110,0.000
3140,0.060,0.040
3141,0.010,0.030
3142,0.000,-0.030
3143,-0.050,0.000
3144,-0.020,-0.020
3145,0.000,0.010
3146,-0.020,-0.010
3147,0.000,0.000
3148,0.010,-0.010
3149,0.110,0.040
3150,0.210,0.120
3151,0.330,0.130
3152,0.340,-0.050
3153,0.550,0.090
3154,0.430,-0.160
3155,-0.650,-1.060
3156,-1.500,-1.290
3157,-1.920,-1.460
3158,-1.540,-0.920
3159,-1.250,-0.940
3160,-0.940,-0.500
3161,-0.430,-0.310
3162,-0.210,-0.090
3163,-0.150,-0.010
3164,-0.090,0.000
3165,-0.070,0.030
3166,-0.070,0.030
3167,-0.040,0.030
3168,-0.050,0.030
3169,-0.060,0.040
3170,0.020,0.040
3171,-0.020,0.040
3172,-0.040,0.040
3173,0.000,0.030
3174,-0.020,0.050
3175,0.010,0.050
3176,0.010,0.050
3177,-0.010,0.050
3178,0.040,0.050
3179,0.050,0.070
3180,0.020,0.080
3181,0.070,0.090
3182,0.080,0.090
3183,0.080,0.120
3184,0.120,0.120
3185,0.120,0.140
3186,0.120,0.140
3187,0.190,0.130
3188,0.150,0.140
3189,0.160,0.130
3190,0.180,0.120
3191,0.150,0.100
3192,0.160,0.080
3193,0.130,0.060
3194,0.090,0.030
3195,0.090,0.000
3196,0.100,0.000
3197,0.060,-0.020
3198,0.100,-0.030
3199,0.110,-0.010
3200,0.090,-0.020
3201,0.110,-0.010
3202,0.070,-0.010
3203,0.060,0.010
3204,0.090,-0.010
3205,0.060,0.000
3206,0.030,-0.010
3207,0.050,-0.020
3208,0.020,-0.010
3209,0.040,-0.010
3210,0.020,-0.010
3211,0.000,0.000
3212,0.030,0.000
3213,0.030,0.000
3214,0.000,0.030
3215,0.030,0.020
3216,0.040,0.030
3217,0.030,0.030
3218,0.070,0.040
3219,0.050,0.060
3220,0.060,0.060
3221,0.100,0.070
3222,0.090,0.080
3223,0.080,0.070
3224,0.110,0.080
3225,0.110,0.070
3226,0.100,0.070
3227,0.100,0.080
3228,0.070,0.080
3229,0.100,0.080
3230,0.080,0.070
3231,0.060,0.080
3232,0.090,0.050
3233,0.070,0.080
3234,0.040,0.060
3235,0.070,0.060
3236,0.030,0.060
3237,0.030,0.050
3238,0.060,0.050
3239,0.020,0.050
3240,0.020,0.050
3241,0.040,0.050
3242,0.020,0.050
3243,0.010,0.040
3244,0.010,0.030
3245,-0.020,0.030
3246,0.040,0.030
3247,0.010,0.040
3248,-0.020,0.050
3249,0.010,0.040
3250,0.010,0.030
3251,-0.020,0.040
3252,0.020,0.040
3253,-0.020,0.040
3254,-0.030,0.030
3255,0.040,0.030
3256,-0.030,0.050
3257,-0.030,0.050
3258,0.010,0.040
3259,-0.010,0.060
3260,-0.030,0.050
3261,0.000,0.060
3262,-0.040,0.060
3263,0.010,0.060
3264,-0.010,0.080
3265,-0.050,0.070
3266,-0.040,0.070
3267,-0.010,0.060
3268,-0.040,0.060
3269,-0.010,0.050
3270,-0.030,0.080
3271,-0.050,0.050
3272,-0.020,0.060
3273,-0.060,0.080
3274,-0.050,0.060
3275,-0.030,0.070
3276,-0.060,0.070
3277,-0.070,0.070
3278,-0.070,0.060
3279,-0.060,0.070
3280,-0.050,0.060
3281,-0.050,0.070
3282,-0.100,0.050
3283,-0.050,0.060
3284,-0.060,0.050
3285,-0.060,0.060
3286,-0.040,0.050
3287,-0.050,0.080
3288,-0.070,0.060
3289,-0.030,0.070
3290,-0.080,0.070
3291,-0.060,0.060
3292,-0.020,0.070
3293,-0.050,0.080
3294,-0.060,0.080
3295,-0.050,0.060
3296,-0.060,0.070
3297,-0.030,0.070
3298,-0.050,0.070
3299,-0.080,0.070
3300,-0.030,0.070
3301,-0.030,0.090
3302,-0.040,0.070
3303,0.010,0.100
3304,0.020,0.130
3305,0.030,0.160
3306,0.120,0.170
3307,0.130,0.200
3308,0.110,0.140
3309,0.100,0.110
3310,0.040,0.100
3311,0.080,0.100
3312,0.060,0.080
3313,-0.010,0.030
3314,-0.020,-0.010
3315,0.000,0.040
3316,-0.090,0.020
3317,-0.070,0.020
3318,-0.120,-0.010
3319,-0.160,-0.010
3320,-0.110,-0.010
3321,-0.130,0.000
3322,-0.110,0.010
3323,-0.090,0.010
3324,-0.110,0.040
3325,-0.010,0.040
3326,0.160,0.140
3327,0.180,0.130
3328,0.180,-0.040
3329,0.380,0.090
3330,0.290,-0.060
3331,-0.760,-1.010
3332,-1.580,-1.210
3333,-1.820,-1.300
3334,-1.590,-0.830
3335,-1.330,-0.850
3336,-1.000,-0.450
3337,-0.520,-0.270
3338,-0.340,-0.070
3339,-0.210,0.010
3340,-0.170,0.030
3341,-0.180,0.050
3342,-0.150,0.040
3343,-0.120,0.070
3344,-0.130,0.070
3345,-0.100,0.060
3346,-0.100,0.080
3347,-0.120,0.070
3348,-0.080,0.060
3349,-0.110,0.070
3350,-0.100,0.070
3351,-0.050,0.070
3352,-0.060,0.090
3353,-0.070,0.080
3354,-0.020,0.090
3355,-0.030,0.100
3356,0.010,0.090
3357,0.030,0.100
3358,0.020,0.110
3359,0.060,0.130
3360,0.080,0.120
3361,0.090,0.150
3362,0.110,0.140
3363,0.130,0.150
3364,0.100,0.150
3365,0.170,0.140
3366,0.130,0.140
3367,0.080,0.120
3368,0.140,0.100
3369,0.090,0.090
3370,0.060,0.070
3371,0.060,0.040
3372,0.010,0.030
3373,0.040,0.020
3374,0.050,0.030
3375,0.010,0.040
3376,0.050,0.030
3377,0.040,0.050
3378,0.010,0.040
3379,0.020,0.040
3380,0.020,0.070
3381,0.000,0.060
3382,0.050,0.060
3383,-0.010,0.050
3384,-0.020,0.040
3385,0.010,0.060
3386,0.010,0.060
3387,0.000,0.060
3388,0.040,0.060
3389,0.010,0.060
3390,0.040,0.070
3391,0.050,0.070
3392,0.020,0.080
3393,0.060,0.080
3394,0.060,0.090
3395,0.060,0.100
3396,0.080,0.090
3397,0.060,0.110
3398,0.070,0.120
3399,0.110,0.110
3400,0.060,0.120
3401,0.060,0.110
3402,0.100,0.110
3403,0.070,0.130
3404,0.080,0.110
3405,0.070,0.120
3406,0.020,0.120
3407,0.050,0.100
3408,0.030,0.110
3409,-0.020,0.100
3410,0.030,0.090
3411,0.010,0.090
3412,0.000,0.090
3413,0.020,0.080
3414,-0.020,0.070
3415,-0.010,0.070
3416,0.020,0.070
3417,0.000,0.070
3418,-0.010,0.070
3419,0.000,0.060
3420,-0.020,0.040
3421,0.010,0.050
3422,-0.010,0.050
3423,-0.030,0.060
3424,0.010,0.040
3425,0.000,0.060
3426,-0.030,0.040
3427,0.000,0.040
3428,-0.020,0.050
3429,-0.030,0.020
3430,0.020,0.040
3431,-0.030,0.040
3432,-0.020,0.040
3433,0.020,0.030
3434,-0.020,0.040
3435,-0.010,0.020
3436,0.020,0.040
3437,-0.010,0.030
3438,0.030,0.020
3439,0.010,0.020
3440,-0.010,0.020
3441,0.040,0.020
3442,0.020,0.020
3443,0.010,0.020
3444,0.030,0.000
3445,0.010,0.020
3446,0.010,0.010
3447,0.050,0.020
3448,0.000,0.010
3449,0.010,0.010
3450,0.030,0.020
3451,0.010,0.020
3452,0.030,0.010
3453,0.020,0.020
3454,-0.020,0.010
3455,0.030,-0.010
3456,0.010,0.020
3457,-0.020,0.010
3458,0.010,0.020
3459,0.010,0.010
3460,-0.030,0.010
3461,0.000,0.010
3462,-0.020,0.010
3463,-0.020,0.000
3464,0.010,0.020
3465,-0.030,0.010
3466,-0.020,0.000
3467,-0.010,0.010
3468,-0.010,0.020
3469,0.000,0.000
3470,0.000,0.010
3471,-0.010,0.000
3472,0.040,-0.010
3473,0.020,0.000
3474,0.010,0.000
3475,0.050,0.000
3476,0.040,0.020
3477,0.050,0.010
3478,0.080,0.030
3479,0.080,0.060
3480,0.130,0.090
3481,0.160,0.100
3482,0.220,0.150
3483,0.210,0.110
3484,0.180,0.080
3485,0.150,0.040
3486,0.130,0.020
3487,0.170,0.050
3488,0.030,-0.030
3489,0.070,-0.050
3490,0.050,-0.040
3491,0.020,0.000
3492,0.030,-0.020
3493,-0.040,-0.050
3494,-0.060,-0.060
3495,-0.040,-0.060
3496,-0.050,-0.070
3497,-0.040,-0.060
3498,0.000,-0.080
3499,-0.020,-0.050
3500,0.020,-0.060
3501,0.230,0.040
3502,0.150,0.040
3503,0.350,-0.020
3504,0.420,-0.010
3505,0.640,0.040
3506,-0.360,-0.700
3507,-0.800,-1.210
3508,-1.940,-1.510
3509,-1.450,-1.180
3510,-1.500,-1.010
3511,-1.020,-0.740
3512,-0.610,-0.440
3513,-0.300,-0.210
3514,-0.160,-0.120
3515,-0.080,-0.060
3516,-0.090,-0.040
3517,-0.060,-0.030
3518,-0.030,-0.010
3519,-0.040,0.000
3520,0.000,-0.010
3521,-0.030,0.020
3522,-0.040,0.010
3523,0.000,0.020
3524,0.010,0.030
3525,-0.010,0.030
3526,0.020,0.030
3527,0.010,0.040
3528,0.030,0.040
3529,0.050,0.060
3530,0.030,0.060
3531,0.060,0.070
3532,0.090,0.060
3533,0.090,0.090
3534,0.120,0.090
3535,0.130,0.110
3536,0.120,0.120
3537,0.180,0.120
3538,0.160,0.130
3539,0.150,0.130
3540,0.200,0.130
3541,0.200,0.110
3542,0.180,0.090
3543,0.180,0.080
3544,0.140,0.070
3545,0.140,0.030
3546,0.150,0.030
3547,0.090,-0.010
3548,0.120,-0.020
3549,0.120,-0.010
3550,0.130,-0.010
3551,0.130,-0.010
3552,0.130,0.010
3553,0.100,0.010
3554,0.130,0.010
3555,0.100,0.020
3556,0.060,0.010
3557,0.100,0.020
3558,0.080,0.010
3559,0.080,0.010
3560,0.070,0.010
3561,0.060,0.030
3562,0.070,0.010
3563,0.110,0.020
3564,0.070,0.040
3565,0.100,0.030
3566,0.110,0.030
3567,0.090,0.050
3568,0.140,0.030
3569,0.120,0.050
3570,0.120,0.060
3571,0.180,0.060
3572,0.150,0.060
3573,0.140,0.060
3574,0.190,0.060
3575,0.160,0.070
3576,0.180,0.080
3577,0.180,0.060
3578,0.150,0.060
3579,0.170,0.070
3580,0.180,0.070
3581,0.120,0.070
3582,0.150,0.060
3583,0.140,0.060
3584,0.110,0.050
3585,0.130,0.050
3586,0.090,0.060
3587,0.080,0.070
3588,0.100,0.060
3589,0.100,0.070
3590,0.060,0.060
3591,0.070,0.070
3592,0.060,0.060
3593,0.060,0.060
3594,0.070,0.070
3595,0.020,0.060
3596,0.050,0.060
3597,0.060,0.050
3598,0.020,0.050
3599,0.060,0.040
3600,0.040,0.060
3601,0.040,0.030
3602,0.070,0.040
3603,0.040,0.030
3604,0.040,0.040
3605,0.070,0.030
3606,0.060,0.040
3607,0.030,0.040
3608,0.050,0.020
3609,0.040,0.030
3610,0.060,0.020
3611,0.050,0.020
3612,0.020,0.010
3613,0.050,0.000
3614,0.030,-0.010
3615,0.010,0.000
3616,0.030,-0.020
3617,0.020,0.000
3618,0.000,-0.020
3619,0.040,-0.020
3620,0.000,-0.030
3621,-0.010,-0.040
3622,0.030,-0.040
3623,0.010,-0.030
3624,0.000,-0.030
3625,0.020,-0.040
3626,0.010,-0.050
3627,0.040,-0.060
3628,0.020,-0.040
3629,-0.010,-0.060
3630,0.040,-0.070
3631,0.020,-0.060
3632,-0.010,-0.070
3633,0.010,-0.070
3634,0.000,-0.070
3635,-0.010,-0.080
3636,0.010,-0.090
3637,-0.020,-0.090
3638,-0.030,-0.100
3639,0.010,-0.100
3640,-0.020,-0.100
3641,0.000,-0.110
3642,-0.010,-0.100
3643,-0.010,-0.100
3644,0.020,-0.130
3645,0.010,-0.100
3646,-0.030,-0.110
3647,0.020,-0.110
3648,0.010,-0.110
3649,0.000,-0.100
3650,0.030,-0.100
3651,0.040,-0.090
3652,0.050,-0.060
3653,0.130,-0.030
3654,0.110,0.020
3655,0.170,0.040
3656,0.230,0.070
3657,0.200,0.030
3658,0.150,-0.010
3659,0.110,-0.020
3660,0.120,-0.030
3661,0.140,-0.010
3662,0.040,-0.080
3663,0.000,-0.090
3664,0.060,-0.060
3665,-0.030,-0.050
3666,-0.060,-0.060
3667,-0.070,-0.100
3668,-0.130,-0.110
3669,-0.110,-0.100
3670,-0.050,-0.100
3671,-0.090,-0.100
3672,-0.090,-0.100
3673,-0.050,-0.090
3674,0.020,-0.060
3675,0.160,0.020
3676,0.240,0.000
3677,0.260,-0.140
3678,0.480,-0.040
3679,0.370,-0.300
3680,-0.710,-1.200
3681,-1.570,-1.440
3682,-1.920,-1.540
3683,-1.590,-1.050
3684,-1.230,-1.070
3685,-0.940,-0.610
3686,-0.470,-0.430
3687,-0.240,-0.240
3688,-0.180,-0.140
3689,-0.120,-0.140
3690,-0.110,-0.100
3691,-0.110,-0.090
3692,-0.060,-0.070
3693,-0.080,-0.040
3694,-0.090,-0.030
3695,-0.070,-0.030
3696,-0.080,-0.010
3697,-0.070,0.000
3698,-0.060,0.000
3699,-0.090,0.040
3700,-0.060,0.030
3701,-0.040,0.050
3702,-0.070,0.060
3703,-0.030,0.080
3704,-0.030,0.080
3705,-0.030,0.110
3706,0.020,0.100
3707,0.000,0.130
3708,0.000,0.140
3709,0.080,0.150
3710,0.060,0.150
3711,0.070,0.180
3712,0.110,0.170
3713,0.090,0.180
3714,0.110,0.160
3715,0.130,0.160
3716,0.070,0.140
3717,0.090,0.120
3718,0.090,0.110
3719,0.040,0.070
3720,0.080,0.050
3721,0.050,0.040
3722,0.070,0.040
3723,0.100,0.050
3724,0.090,0.070
3725,0.080,0.060
3726,0.100,0.080
3727,0.100,0.100
3728,0.090,0.090
3729,0.070,0.110
3730,0.050,0.120
3731,0.080,0.110
3732,0.050,0.100
3733,0.020,0.110
3734,0.060,0.100
3735,0.030,0.130
3736,0.020,0.120
3737,0.060,0.130
3738,0.010,0.120
3739,0.030,0.140
3740,0.050,0.140
3741,0.050,0.160
3742,0.060,0.160
3743,0.060,0.170
3744,0.040,0.180
3745,0.100,0.170
3746,0.080,0.180
3747,0.060,0.180
3748,0.100,0.190
3749,0.090,0.200
3750,0.080,0.180
3751,0.080,0.190
3752,0.060,0.170
3753,0.060,0.170
3754,0.100,0.170
3755,0.050,0.170
3756,0.050,0.140
3757,0.060,0.160
3758,0.030,0.150
3759,0.050,0.140
3760,0.040,0.130
3761,-0.010,0.130
3762,0.040,0.120
3763,0.010,0.130
3764,-0.010,0.100
3765,0.020,0.120
3766,-0.020,0.100
3767,-0.010,0.090
3768,0.010,0.090
3769,-0.020,0.090
3770,-0.040,0.080
3771,-0.010,0.090
3772,-0.040,0.080
3773,0.000,0.080
3774,-0.050,0.080
3775,-0.050,0.060
3776,0.000,0.050
3777,-0.050,0.070
3778,-0.060,0.050
3779,-0.040,0.030
3780,-0.040,0.050
3781,-0.060,0.020
3782,-0.030,0.020
3783,-0.060,0.030
3784,-0.050,0.010
3785,-0.030,0.000
3786,-0.080,0.010
3787,-0.080,-0.010
3788,-0.080,-0.010
3789,-0.110,-0.010
3790,-0.080,-0.010
3791,-0.110,-0.020
3792,-0.160,-0.030
3793,-0.120,-0.030
3794,-0.120,-0.020
3795,-0.140,-0.040
3796,-0.140,-0.040
3797,-0.160,-0.040
3798,-0.140,-0.050
3799,-0.120,-0.040
3800,-0.150,-0.050
3801,-0.130,-0.060
3802,-0.120,-0.060
3803,-0.120,-0.040
3804,-0.100,-0.060
3805,-0.120,-0.050
3806,-0.100,-0.060
3807,-0.080,-0.060
3808,-0.090,-0.050
3809,-0.100,-0.070
3810,-0.070,-0.050
3811,-0.100,-0.050
3812,-0.080,-0.050
3813,-0.070,-0.040
3814,-0.090,-0.030
3815,-0.070,-0.040
3816,-0.050,-0.020
3817,-0.090,0.000
3818,-0.070,-0.010
3819,-0.070,0.010
3820,-0.080,-0.010
3821,-0.060,0.010
3822,-0.090,0.000
3823,-0.070,0.020
3824,0.020,0.050
3825,0.010,0.090
3826,0.010,0.090
3827,0.060,0.120
3828,0.110,0.160
3829,0.130,0.140
3830,0.090,0.100
3831,0.040,0.080
3832,0.030,0.060
3833,0.100,0.070
3834,-0.070,0.010
3835,-0.020,-0.020
3836,-0.040,0.010
3837,-0.140,0.000
3838,-0.080,0.000
3839,-0.160,-0.020
3840,-0.210,-0.040
3841,-0.130,-0.040
3842,-0.130,-0.030
3843,-0.140,-0.040
3844,-0.120,-0.030
3845,-0.140,-0.030
3846,-0.080,-0.030
3847,0.110,0.090
3848,0.050,0.080
3849,0.100,-0.050
3850,0.240,0.020
3851,0.430,0.040
3852,-0.800,-0.910
3853,-1.290,-1.140
3854,-1.930,-1.350
3855,-1.510,-0.880
3856,-1.510,-0.880
3857,-1.070,-0.600
3858,-0.670,-0.360
3859,-0.350,-0.120
3860,-0.220,-0.040
3861,-0.180,0.020
3862,-0.180,0.030
3863,-0.120,0.030
3864,-0.110,0.050
3865,-0.130,0.060
3866,-0.090,0.060
3867,-0.100,0.070
3868,-0.110,0.080
3869,-0.070,0.090
3870,-0.120,0.100
3871,-0.090,0.100
3872,-0.040,0.100
3873,-0.080,0.090
3874,-0.060,0.100
3875,-0.030,0.110
3876,-0.060,0.130
3877,0.000,0.120
3878,0.010,0.140
3879,-0.020,0.160
3880,0.050,0.160
3881,0.060,0.170
3882,0.060,0.180
3883,0.090,0.170
3884,0.090,0.190
3885,0.130,0.190
3886,0.140,0.170
3887,0.140,0.180
3888,0.130,0.150
3889,0.130,0.140
3890,0.100,0.120
3891,0.110,0.090
3892,0.070,0.080
3893,0.050,0.050
3894,0.090,0.040
3895,0.100,0.050
3896,0.060,0.070
3897,0.080,0.060
3898,0.060,0.080
3899,0.050,0.070
3900,0.060,0.080
3901,0.020,0.070
3902,-0.010,0.050
3903,0.020,0.050
3904,-0.020,0.050
3905,-0.010,0.060
3906,0.000,0.050
3907,0.010,0.070
3908,0.030,0.030
3909,0.000,0.040
3910,-0.010,0.040
3911,0.020,0.040
3912,0.040,0.030
3913,0.010,0.040
3914,0.050,0.020
3915,0.060,0.050
3916,0.060,0.050
3917,0.100,0.070
3918,0.060,0.070
3919,0.080,0.070
3920,0.090,0.080
3921,0.070,0.070
3922,0.070,0.060
3923,0.050,0.070
3924,0.040,0.070
3925,0.060,0.060
3926,0.040,0.060
3927,-0.010,0.050
3928,0.030,0.050
3929,0.010,0.040
3930,0.000,0.040
3931,0.010,0.030
3932,-0.020,0.040
3933,-0.020,0.020
3934,0.010,0.030
3935,-0.030,0.020
3936,-0.010,0.000
3937,-0.020,0.020
3938,-0.030,0.010
3939,-0.010,-0.010
3940,-0.040,0.000
3941,-0.050,-0.010
3942,-0.010,-0.020
3943,-0.030,-0.010
3944,-0.050,-0.020
3945,-0.010,-0.030
3946,-0.050,-0.040
3947,-0.020,-0.040
3948,-0.030,-0.060
3949,-0.050,-0.060
3950,-0.040,-0.070
3951,-0.020,-0.070
3952,-0.050,-0.080
3953,-0.010,-0.080
3954,-0.040,-0.090
3955,-0.050,-0.100
3956,0.000,-0.110
3957,-0.030,-0.110
3958,-0.060,-0.110
3959,-0.020,-0.120
3960,-0.030,-0.120
3961,-0.030,-0.130
3962,-0.030,-0.140
3963,-0.060,-0.140
3964,-0.030,-0.140
3965,-0.020,-0.140
3966,-0.050,-0.140
3967,-0.020,-0.140
3968,-0.020,-0.140
3969,-0.050,-0.160
3970,-0.020,-0.150
3971,-0.040,-0.140
3972,-0.050,-0.150
3973,0.000,-0.150
3974,-0.030,-0.150
3975,-0.030,-0.150
3976,-0.010,-0.150
3977,-0.010,-0.130
3978,-0.010,-0.140
3979,0.000,-0.140
3980,-0.040,-0.130
3981,0.000,-0.130
3982,0.010,-0.120
3983,-0.020,-0.120
3984,-0.020,-0.130
3985,-0.010,-0.120
3986,-0.020,-0.110
3987,0.010,-0.120
3988,-0.020,-0.100
3989,-0.020,-0.100
3990,0.010,-0.100
3991,-0.010,-0.110
3992,0.000,-0.110
3993,-0.020,-0.100
3994,-0.030,-0.100
3995,0.000,-0.100
3996,0.000,-0.100
3997,-0.030,-0.080
3998,0.050,-0.070
3999,0.050,-0.050
4000,0.080,-0.030
4001,0.120,0.010
4002,0.180,0.040
4003,0.170,0.000
4004,0.150,-0.020
4005,0.130,-0.050
4006,0.070,-0.090
4007,0.140,-0.030
4008,-0.010,-0.130
4009,0.040,-0.140
4010,0.000,-0.130
4011,-0.060,-0.090
4012,-0.040,-0.110
4013,-0.100,-0.130
4014,-0.130,-0.150
4015,-0.100,-0.140
4016,-0.130,-0.140
4017,-0.060,-0.130
4018,-0.080,-0.130
4019,-0.080,-0.120
4020,-0.020,-0.110
4021,0.140,-0.010
4022,0.180,-0.030
4023,0.290,-0.170
4024,0.440,-0.030
4025,0.470,-0.250
4026,-0.630,-1.160
4027,-1.430,-1.380
4028,-1.960,-1.560
4029,-1.530,-1.030
4030,-1.290,-1.060
4031,-0.920,-0.620
4032,-0.440,-0.430
4033,-0.260,-0.250
4034,-0.140,-0.170
4035,-0.100,-0.140
4036,-0.100,-0.120
4037,-0.040,-0.120
4038,-0.060,-0.110
4039,-0.070,-0.100
4040,-0.020,-0.110
4041,-0.030,-0.090
4042,-0.040,-0.080
4043,-0.010,-0.060
4044,-0.040,-0.070
4045,0.000,-0.050
4046,-0.010,-0.060
4047,-0.040,-0.050
4048,0.010,-0.040
4049,0.030,-0.050
4050,0.000,-0.040
4051,0.040,-0.020
4052,0.050,-0.010
4053,0.070,-0.010
4054,0.110,0.020
4055,0.080,0.020
4056,0.110,0.020
4057,0.140,0.040
4058,0.140,0.040
4059,0.150,0.040
4060,0.150,0.040
4061,0.130,0.010
4062,0.150,0.000
4063,0.120,-0.010
4064,0.070,-0.030
4065,0.080,-0.050
4066,0.080,-0.070
4067,0.070,-0.090
4068,0.100,-0.080
4069,0.070,-0.080
4070,0.110,-0.070
4071,0.120,-0.060
4072,0.100,-0.050
4073,0.100,-0.050
4074,0.060,-0.050
4075,0.070,-0.060
4076,0.070,-0.070
4077,0.070,-0.030
4078,0.030,-0.050
4079,0.090,-0.050
4080,0.060,-0.030
4081,0.040,-0.040
4082,0.070,-0.040
4083,0.060,-0.030
4084,0.090,-0.020
4085,0.100,-0.020
4086,0.070,-0.010
4087,0.100,-0.010
4088,0.120,0.010
4089,0.100,0.020
4090,0.140,0.040
4091,0.090,0.040
4092,0.110,0.040
4093,0.130,0.040
4094,0.120,0.050
4095,0.100,0.050
4096,0.120,0.060
4097,0.080,0.060
4098,0.110,0.030
4099,0.080,0.050
4100,0.070,0.030
4101,0.100,0.040
4102,0.090,0.030
4103,0.060,0.030
4104,0.070,0.000
4105,0.050,0.010
4106,0.050,0.000
4107,0.090,0.000
4108,0.050,-0.010
4109,0.040,-0.010
4110,0.070,-0.020
4111,0.060,-0.010
4112,0.060,-0.010
4113,0.050,-0.020
4114,0.030,-0.010
4115,0.080,-0.020
4116,0.050,-0.020
4117,0.010,-0.030
4118,0.040,-0.030
4119,0.050,-0.020
4120,0.010,-0.020
4121,0.020,-0.030
4122,0.020,-0.040
4123,0.000,-0.030
4124,0.050,-0.010
4125,0.000,-0.020
4126,-0.010,-0.010
4127,0.020,-0.010
4128,0.000,-0.010
4129,0.010,-0.010
4130,0.000,0.010
4131,-0.010,0.010
4132,0.010,0.000
4133,0.020,0.010
4134,-0.040,0.010
4135,0.010,0.020
4136,-0.010,0.020
4137,0.000,0.020
4138,0.000,0.020
4139,-0.020,0.020
4140,-0.030,0.020
4141,0.020,0.030
4142,-0.020,0.030
4143,0.000,0.030
4144,0.000,0.030
4145,-0.010,0.020
4146,0.010,0.030
4147,-0.010,0.030
4148,-0.020,0.040
4149,0.010,0.030
4150,0.020,0.040
4151,-0.020,0.040
4152,0.030,0.030
4153,-0.010,0.040
4154,0.020,0.040
4155,0.030,0.040
4156,-0.010,0.030
4157,0.000,0.030
4158,0.030,0.030
4159,0.010,0.040
4160,0.020,0.040
4161,0.010,0.030
4162,-0.020,0.010
4163,0.030,0.030
4164,0.000,0.020
4165,-0.020,0.030
4166,0.030,0.020
4167,0.020,0.050
4168,-0.010,0.020
4169,0.020,0.040
4170,0.010,0.040
4171,0.030,0.040
4172,0.090,0.070
4173,0.080,0.090
4174,0.120,0.110
4175,0.150,0.160
4176,0.210,0.200
4177,0.230,0.180
4178,0.220,0.160
4179,0.120,0.110
4180,0.150,0.100
4181,0.170,0.090
4182,0.050,0.080
4183,0.060,0.030
4184,0.040,0.040
4185,0.050,0.070
4186,0.020,0.040
4187,-0.060,0.050
4188,-0.060,0.010
4189,-0.030,0.020
4190,-0.080,0.030
4191,-0.050,0.040
4192,-0.040,0.040
4193,-0.040,0.050
4194,-0.010,0.030
4195,0.130,0.120
4196,0.090,0.150
4197,0.340,0.120
4198,0.390,0.050
4199,0.580,0.150
4200,-0.190,-0.530
4201,-0.730,-1.140
4202,-1.890,-1.470
4203,-1.550,-1.170
4204,-1.570,-0.930
4205,-1.100,-0.750
4206,-0.690,-0.380
4207,-0.360,-0.160
4208,-0.190,-0.060
4209,-0.150,0.000
4210,-0.120,0.010
4211,-0.080,0.020
4212,-0.070,0.040
4213,-0.090,0.040
4214,-0.040,0.040
4215,-0.040,0.050
4216,-0.070,0.050
4217,-0.030,0.060
4218,-0.040,0.060
4219,-0.030,0.080
4220,0.000,0.070
4221,-0.020,0.080
4222,0.000,0.080
4223,0.040,0.090
4224,0.020,0.080
4225,0.050,0.100
4226,0.040,0.100
4227,0.070,0.100
4228,0.090,0.110
4229,0.100,0.110
4230,0.100,0.130
4231,0.140,0.120
4232,0.150,0.120
4233,0.150,0.120
4234,0.170,0.120
4235,0.140,0.110
4236,0.190,0.080
4237,0.170,0.070
4238,0.120,0.050
4239,0.120,0.010
4240,0.110,0.000
4241,0.070,-0.020
4242,0.120,-0.040
4243,0.090,-0.040
4244,0.090,-0.020
4245,0.150,-0.010
4246,0.130,0.000
4247,0.110,0.000
4248,0.150,0.000
4249,0.130,0.010
4250,0.130,0.010
4251,0.140,0.010
4252,0.090,0.010
4253,0.120,0.020
4254,0.140,0.020
4255,0.100,0.020
4256,0.110,0.020
4257,0.120,0.030
4258,0.100,0.030
4259,0.140,0.040
4260,0.110,0.060
4261,0.100,0.050
4262,0.150,0.060
4263,0.140,0.060
4264,0.160,0.070
4265,0.150,0.070
4266,0.140,0.090
4267,0.150,0.070
4268,0.120,0.080
4269,0.020,0.040
4270,0.020,0.000
4271,0.000,-0.010
4272,-0.070,-0.020
4273,-0.020,0.000
4274,-0.050,0.000
4275,-0.100,-0.020
4276,0.050,0.030
4277,-0.020,0.050
4278,0.080,0.110
4279,0.120,0.090
4280,0.030,0.020
4281,0.050,0.020
4282,0.050,0.020
4283,0.070,0.030
4284,0.310,0.140
4285,0.340,0.120
4286,0.330,0.000
4287,0.540,0.070
4288,0.410,-0.160
4289,-0.780,-0.960
4290,-1.670,-1.280
4291,-2.060,-1.400
4292,-1.650,-0.910
4293,-1.100,-0.880
4294,-0.810,-0.410
4295,-0.360,-0.220
4296,-0.160,-0.110
4297,-0.120,-0.050
4298,-0.080,-0.040
4299,-0.060,-0.020
4300,-0.060,-0.010
4301,-0.010,-0.010
4302,-0.010,0.010
4303,0.000,0.000
4304,0.010,0.010
4305,-0.010,0.030
4306,0.040,0.020
4307,0.040,0.040
4308,0.040,0.040
4309,0.050,0.030
4310,0.060,0.040
4311,0.080,0.050
4312,0.100,0.040
4313,0.090,0.050
4314,0.090,0.070
4315,0.140,0.070
4316,0.130,0.070
4317,0.150,0.060
4318,0.170,0.070
4319,0.170,0.070
4320,0.200,0.060
4321,0.200,0.070
4322,0.150,0.030
4323,0.180,0.030
4324,0.180,-0.010
4325,0.120,-0.030
4326,0.130,-0.050
4327,0.100,-0.070
4328,0.100,-0.090
4329,0.150,-0.080
4330,0.130,-0.070
4331,0.120,-0.060
4332,0.170,-0.050
4333,0.110,-0.040
4334,0.110,-0.040
4335,0.100,-0.030
4336,0.070,-0.040
4337,0.080,-0.040
4338,0.080,-0.010
4339,0.010,-0.020
4340,0.060,-0.020
4341,0.030,-0.010
4342,0.020,-0.010
4343,0.050,0.000
4344,0.000,0.000
4345,0.020,0.000
4346,0.040,0.010
4347,0.010,0.030
4348,0.030,0.010
4349,0.040,0.050
4350,0.020,0.030
4351,0.070,0.040
4352,0.060,0.050
4353,0.060,0.050
4354,0.070,0.030
4355,0.090,0.050
4356,0.060,0.040
4357,0.090,0.040
4358,0.070,0.030
4359,0.070,0.030
4360,0.100,0.040
4361,0.050,0.030
4362,0.090,0.010
4363,0.070,0.020
4364,0.050,0.000
4365,0.060,0.000
4366,0.040,-0.010
4367,0.040,-0.010
4368,0.070,-0.020
4369,0.030,-0.020
4370,-0.010,-0.030
4371,0.040,-0.020
4372,0.020,-0.040
4373,0.020,-0.040
4374,0.010,-0.040
4375,-0.030,-0.030
4376,0.000,-0.050
4377,0.010,-0.040
4378,-0.040,-0.060
4379,-0.020,-0.050
4380,-0.030,-0.040
4381,-0.020,-0.030
4382,-0.020,-0.040
4383,-0.050,-0.020
4384,-0.050,-0.030
4385,-0.010,-0.020
4386,-0.040,-0.030
4387,-0.030,-0.030
4388,-0.020,-0.030
4389,-0.050,-0.030
4390,-0.040,-0.030
4391,-0.040,-0.020
4392,-0.080,-0.010
4393,-0.040,-0.040
4394,-0.040,-0.030
4395,-0.090,-0.030
4396,-0.040,-0.030
4397,-0.070,-0.030
4398,-0.080,-0.040
4399,-0.040,-0.040
4400,-0.080,-0.040
4401,-0.090,-0.040
4402,-0.040,-0.040
4403,-0.050,-0.030
4404,-0.070,-0.050
4405,-0.060,-0.020
4406,-0.090,-0.030
4407,-0.050,-0.030
4408,-0.060,-0.020
4409,-0.080,-0.010
4410,-0.060,-0.020
4411,-0.040,-0.010
4412,-0.080,-0.010
4413,-0.040,-0.010
4414,-0.060,0.000
4415,-0.070,-0.020
4416,-0.030,0.000
4417,-0.070,-0.010
4418,-0.080,-0.010
4419,-0.070,-0.010
4420,-0.070,-0.010
4421,-0.060,-0.020
4422,-0.060,-0.010
4423,-0.090,-0.020
4424,-0.040,-0.020
4425,-0.050,-0.020
4426,-0.080,-0.020
4427,-0.040,-0.030
4428,-0.060,-0.030
4429,-0.060,-0.030
4430,-0.020,-0.040
4431,-0.050,-0.030
4432,-0.060,-0.040
4433,-0.010,-0.040
4434,-0.050,-0.040
4435,-0.040,-0.030
4436,-0.040,-0.040
4437,-0.050,-0.030
4438,-0.030,-0.040
4439,-0.030,-0.020
4440,-0.070,-0.040
4441,-0.020,-0.030
4442,-0.050,-0.010
4443,-0.050,-0.010
4444,-0.020,-0.010
4445,-0.060,0.000
4446,-0.050,0.010
4447,-0.030,0.020
4448,-0.060,0.010
4449,-0.060,0.020
4450,-0.020,0.020
4451,-0.060,0.020
4452,-0.050,0.020
4453,-0.060,0.040
4454,-0.070,0.040
4455,-0.030,0.050
4456,-0.060,0.060
4457,-0.080,0.060
4458,-0.030,0.060
4459,-0.050,0.070
4460,-0.050,0.060
4461,-0.030,0.070
4462,-0.050,0.080
4463,-0.030,0.070
4464,0.000,0.080
4465,-0.040,0.070
4466,-0.030,0.080
4467,0.020,0.090
4468,0.020,0.100
4469,0.090,0.130
4470,0.090,0.160
4471,0.100,0.190
4472,0.210,0.200
4473,0.160,0.180
4474,0.170,0.180
4475,0.130,0.110
4476,0.090,0.120
4477,0.100,0.090
4478,0.020,0.060
4479,-0.030,0.010
4480,0.030,0.050
4481,0.100,0.100
4482,-0.030,0.060
4483,-0.050,0.050
4484,-0.050,0.040
4485,-0.090,0.030
4486,-0.040,0.040
4487,-0.050,0.050
4488,-0.080,0.050
4489,-0.010,0.060
4490,-0.010,0.060
4491,0.100,0.140
4492,0.140,0.180
4493,0.340,0.160
4494,0.400,0.060
4495,0.600,0.180
4496,-0.010,-0.400
4497,-0.630,-1.110
4498,-1.770,-1.370
4499,-1.600,-1.170
4500,-1.580,-0.880
4501,-1.070,-0.710
4502,-0.740,-0.330
4503,-0.330,-0.110
4504,-0.180,0.000
4505,-0.150,0.060
4506,-0.070,0.070
4507,-0.060,0.090
4508,-0.060,0.110
4509,-0.030,0.110
4510,-0.030,0.130
4511,-0.030,0.120
4512,0.000,0.140
4513,-0.030,0.140
4514,-0.010,0.140
4515,0.010,0.160
4516,-0.010,0.150
4517,0.010,0.160
4518,0.010,0.170
4519,0.020,0.190
4520,0.040,0.190
4521,0.050,0.200
4522,0.040,0.200
4523,0.120,0.210
4524,0.100,0.220
4525,0.100,0.220
4526,0.170,0.240
4527,0.170,0.240
4528,0.160,0.250
4529,0.190,0.230
4530,0.200,0.240
4531,0.200,0.240
4532,0.260,0.220
4533,0.200,0.210
4534,0.200,0.200
4535,0.190,0.170
4536,0.170,0.150
4537,0.160,0.120
4538,0.150,0.110
4539,0.130,0.100
4540,0.170,0.080
4541,0.160,0.100
4542,0.110,0.080
4543,0.180,0.100
4544,0.160,0.110
4545,0.140,0.100
4546,0.150,0.100
4547,0.120,0.100
4548,0.110,0.100
4549,0.150,0.100
4550,0.100,0.090
4551,0.110,0.100
4552,0.130,0.110
4553,0.110,0.110
4554,0.150,0.120
4555,0.150,0.140
4556,0.140,0.140
4557,0.180,0.140
4558,0.190,0.140
4559,0.170,0.150
4560,0.210,0.170
4561,0.200,0.180
4562,0.210,0.200
4563,0.230,0.190
4564,0.210,0.210
4565,0.190,0.190
4566,0.230,0.200
4567,0.190,0.200
4568,0.190,0.190
4569,0.190,0.210
4570,0.160,0.190
4571,0.170,0.200
4572,0.150,0.180
4573,0.110,0.190
4574,0.140,0.170
4575,0.130,0.180
4576,0.080,0.160
4577,0.100,0.150
4578,0.080,0.160
4579,0.090,0.140
4580,0.100,0.140
4581,0.050,0.120
4582,0.060,0.120
4583,0.080,0.130
4584,0.060,0.110
4585,0.050,0.120
4586,0.060,0.120
4587,0.030,0.110
4588,0.080,0.110
4589,0.030,0.100
4590,0.000,0.090
4591,0.050,0.100
4592,0.020,0.090
4593,0.000,0.090
4594,0.020,0.080
4595,0.000,0.070
4596,0.020,0.060
4597,0.030,0.080
4598,0.000,0.070
4599,0.000,0.070
4600,0.020,0.060
4601,-0.010,0.070
4602,0.010,0.050
4603,0.000,0.060
4604,-0.030,0.060
4605,0.020,0.050
4606,-0.020,0.050
4607,-0.030,0.080
4608,0.010,0.060
4609,0.000,0.060
4610,-0.020,0.070
4611,0.010,0.070
4612,-0.010,0.080
4613,-0.010,0.070
4614,0.010,0.090
4615,-0.010,0.080
4616,0.010,0.100
4617,0.000,0.090
4618,-0.010,0.100
4619,0.040,0.090
4620,0.020,0.100
4621,-0.010,0.100
4622,0.030,0.110
4623,0.020,0.110
4624,-0.010,0.110
4625,0.020,0.110
4626,0.010,0.110
4627,0.020,0.100
4628,0.030,0.120
4629,0.000,0.110
4630,0.020,0.110
4631,0.020,0.110
4632,0.000,0.100
4633,0.020,0.110
4634,-0.010,0.100
4635,-0.020,0.100
4636,0.010,0.090
4637,-0.010,0.100
4638,-0.030,0.100
4639,0.010,0.100
4640,-0.020,0.090
4641,0.000,0.090
4642,0.000,0.100
4643,-0.010,0.100
4644,0.050,0.100
4645,0.080,0.150
4646,0.090,0.170
4647,0.140,0.170
4648,0.220,0.210
4649,0.190,0.180
4650,0.190,0.130
4651,0.120,0.110
4652,0.100,0.080
4653,0.180,0.090
4654,0.030,0.030
4655,0.050,0.000
4656,0.050,0.010
4657,-0.020,0.050
4658,0.000,0.020
4659,-0.040,0.000
4660,-0.110,-0.020
4661,-0.050,0.000
4662,-0.030,0.000
4663,-0.050,0.010
4664,-0.020,0.010
4665,-0.030,0.020
4666,-0.020,0.020
4667,0.240,0.140
4668,0.180,0.140
4669,0.250,0.010
4670,0.450,0.110
4671,0.590,0.030
4672,-0.640,-0.890
4673,-1.170,-1.200
4674,-2.030,-1.490
4675,-1.480,-0.960
4676,-1.390,-0.920
4677,-1.050,-0.550
4678,-0.590,-0.310
4679,-0.290,-0.080
4680,-0.200,0.010
4681,-0.140,0.040
4682,-0.130,0.060
4683,-0.120,0.080
4684,-0.070,0.080
4685,-0.080,0.090
4686,-0.080,0.100
4687,-0.060,0.100
4688,-0.060,0.100
4689,-0.050,0.110
4690,-0.050,0.110
4691,-0.050,0.120
4692,-0.030,0.100
4693,0.000,0.130
4694,-0.050,0.130
4695,0.000,0.140
4696,0.010,0.150
4697,0.010,0.160
4698,0.060,0.160
4699,0.040,0.170
4700,0.050,0.180
4701,0.100,0.180
4702,0.100,0.200
4703,0.100,0.200
4704,0.140,0.220
4705,0.120,0.210
4706,0.150,0.200
4707,0.150,0.190
4708,0.120,0.180
4709,0.160,0.160
4710,0.130,0.140
4711,0.090,0.110
4712,0.110,0.080
4713,0.100,0.070
4714,0.100,0.060
4715,0.130,0.060
4716,0.120,0.070
4717,0.130,0.080
4718,0.150,0.080
4719,0.140,0.100
4720,0.120,0.080
4721,0.140,0.100
4722,0.100,0.090
4723,0.130,0.080
4724,0.100,0.080
4725,0.070,0.090
4726,0.110,0.080
4727,0.100,0.090
4728,0.080,0.080
4729,0.090,0.070
4730,0.080,0.080
4731,0.070,0.070
4732,0.120,0.060
4733,0.070,0.060
4734,0.080,0.070
4735,0.130,0.060
4736,0.100,0.060
4737,0.110,0.060
4738,0.150,0.070
4739,0.130,0.060
4740,0.160,0.050
4741,0.160,0.060
4742,0.110,0.040
4743,0.150,0.030
4744,0.140,0.040
4745,0.110,0.040
4746,0.120,0.030
4747,0.110,0.020
4748,0.090,0.010
4749,0.130,0.010
4750,0.080,0.010
4751,0.070,0.000
4752,0.090,-0.010
4753,0.070,0.000
4754,0.050,0.010
4755,0.070,0.010
4756,0.040,0.010
4757,0.050,0.000
4758,0.040,0.010
4759,0.000,0.010
4760,0.050,0.010
4761,0.030,0.020
4762,0.020,0.030
4763,0.030,0.030
4764,0.010,0.020
4765,-0.010,0.000
4766,0.000,0.020
4767,-0.040,0.030
4768,-0.030,0.010
4769,0.000,0.010
4770,-0.040,0.010
4771,-0.020,0.010
4772,-0.050,0.000
4773,-0.050,0.020
4774,-0.030,0.000
4775,-0.040,0.020
4776,-0.070,0.000
4777,-0.020,0.000
4778,-0.050,0.000
4779,-0.060,0.000
4780,-0.040,0.000
4781,-0.060,0.010
4782,-0.060,-0.010
4783,-0.030,0.000
4784,-0.060,0.000
4785,-0.070,-0.010
4786,-0.040,-0.010
4787,-0.070,-0.010
4788,-0.070,-0.020
4789,-0.060,-0.010
4790,-0.070,-0.010
4791,-0.050,-0.020
4792,-0.060,-0.020
4793,-0.090,-0.020
4794,-0.060,-0.030
4795,-0.060,-0.020
4796,-0.080,-0.040
4797,-0.050,-0.020
4798,-0.070,-0.030
4799,-0.050,-0.040
4800,-0.040,-0.040
4801,-0.060,-0.040
4802,-0.060,-0.050
4803,-0.020,-0.040
4804,-0.050,-0.040
4805,-0.040,-0.050
4806,-0.030,-0.040
4807,-0.040,-0.040
4808,0.010,-0.030
4809,-0.020,-0.030
4810,-0.050,-0.040
4811,-0.020,-0.030
4812,-0.020,-0.020
4813,-0.040,-0.030
4814,-0.010,-0.030
4815,-0.050,-0.040
4816,-0.040,-0.040
4817,0.000,-0.040
4818,-0.070,-0.040
4819,-0.050,-0.040
4820,-0.030,-0.050
4821,-0.060,-0.040
4822,-0.040,-0.050
4823,-0.010,-0.020
4824,-0.030,-0.020
4825,0.030,0.000
4826,0.060,0.040
4827,0.050,0.070
4828,0.150,0.080
4829,0.150,0.060
4830,0.060,0.020
4831,0.080,-0.010
4832,0.050,-0.010
4833,0.110,0.000
4834,-0.010,-0.070
4835,-0.020,-0.090
4836,-0.020,-0.080
4837,-0.060,-0.060
4838,-0.070,-0.070
4839,-0.130,-0.110
4840,-0.140,-0.100
4841,-0.120,-0.100
4842,-0.080,-0.100
4843,-0.080,-0.100
4844,-0.110,-0.090
4845,-0.050,-0.080
4846,-0.030,-0.060
4847,0.140,0.050
4848,0.120,0.030
4849,0.160,-0.080
4850,0.300,-0.010
4851,0.560,0.010
4852,-0.730,-0.910
4853,-1.200,-1.200
4854,-1.930,-1.470
4855,-1.500,-0.940
4856,-1.490,-0.960
4857,-1.060,-0.650
4858,-0.690,-0.410
4859,-0.300,-0.180
4860,-0.210,-0.080
4861,-0.190,-0.050
4862,-0.120,-0.040
4863,-0.110,-0.030
4864,-0.110,-0.010
4865,-0.070,0.000
4866,-0.080,0.000
4867,-0.080,0.000
4868,-0.030,0.010
4869,-0.080,0.000
4870,-0.060,0.010
4871,-0.020,0.010
4872,-0.050,0.000
4873,-0.030,0.010
4874,-0.030,0.010
4875,-0.050,0.010
4876,0.010,0.010
4877,0.000,0.020
4878,-0.020,0.020
4879,0.040,0.040
4880,0.060,0.040
4881,0.050,0.050
4882,0.090,0.050
4883,0.090,0.060
4884,0.100,0.050
4885,0.160,0.060
4886,0.110,0.050
4887,0.130,0.030
4888,0.140,0.020
4889,0.110,-0.010
4890,0.120,-0.040
4891,0.090,-0.060
4892,0.070,-0.070
4893,0.110,-0.090
4894,0.080,-0.100
4895,0.040,-0.110
4896,0.080,-0.110
4897,0.070,-0.100
4898,0.040,-0.100
4899,0.060,-0.090
4900,0.020,-0.100
4901,0.040,-0.090
4902,0.030,-0.100
4903,-0.020,-0.090
4904,0.000,-0.100
4905,0.010,-0.080
4906,-0.020,-0.100
4907,0.000,-0.100
4908,-0.010,-0.080
4909,0.000,-0.080
4910,0.050,-0.080
4911,0.040,-0.060
4912,0.010,-0.070
4913,0.060,-0.070
4914,0.030,-0.060
4915,0.090,-0.050
4916,0.070,-0.060
4917,0.070,-0.050
4918,0.080,-0.070
4919,0.090,-0.060
4920,0.060,-0.060
4921,0.090,-0.060
4922,0.080,-0.040
4923,0.050,-0.060
4924,0.080,-0.070
4925,0.040,-0.080
4926,0.040,-0.070
4927,0.040,-0.090
4928,0.040,-0.070
4929,0.010,-0.100
4930,0.000,-0.100
4931,-0.030,-0.090
4932,0.020,-0.100
4933,-0.020,-0.090
4934,-0.060,-0.100
4935,-0.020,-0.110
4936,-0.040,-0.110
4937,-0.050,-0.110
4938,-0.050,-0.120
4939,-0.070,-0.110
4940,-0.090,-0.120
4941,-0.040,-0.130
4942,-0.090,-0.130
4943,-0.080,-0.140
4944,-0.080,-0.150
4945,-0.090,-0.150
4946,-0.070,-0.170
4947,-0.070,-0.160
4948,-0.100,-0.160
4949,-0.050,-0.160
4950,-0.060,-0.170
4951,-0.100,-0.160
4952,-0.060,-0.160
4953,-0.090,-0.170
4954,-0.090,-0.160
4955,-0.050,-0.160
4956,-0.090,-0.160
4957,-0.080,-0.160
4958,-0.050,-0.150
4959,-0.080,-0.160
4960,-0.060,-0.170
4961,-0.080,-0.150
4962,-0.080,-0.150
4963,-0.050,-0.160
4964,-0.050,-0.150
4965,-0.090,-0.150
4966,-0.050,-0.170
4967,-0.060,-0.130
4968,-0.070,-0.150
4969,-0.050,-0.140
4970,-0.070,-0.140
4971,-0.070,-0.140
4972,-0.050,-0.130
4973,-0.050,-0.130
4974,-0.070,-0.150
4975,-0.040,-0.120
4976,-0.060,-0.120
4977,-0.020,-0.140
4978,-0.070,-0.130
4979,-0.070,-0.130
4980,-0.030,-0.130
4981,-0.040,-0.130
4982,-0.070,-0.120
4983,-0.040,-0.130
4984,-0.070,-0.130
4985,-0.050,-0.130
4986,-0.030,-0.130
4987,-0.080,-0.140
4988,-0.040,-0.120
4989,-0.030,-0.120
4990,-0.060,-0.130
4991,-0.040,-0.130
4992,-0.040,-0.110
4993,-0.060,-0.120
4994,0.000,-0.130
4995,-0.030,-0.110
4996,-0.060,-0.120
4997,-0.010,-0.120
4998,-0.030,-0.120
4999,-0.040,-0.110
5000,-0.020,-0.120
5001,-0.030,-0.120
5002,0.000,-0.130
5003,0.060,-0.080
5004,0.020,-0.070
5005,0.100,-0.040
5006,0.120,0.010
5007,0.190,0.020
5008,0.200,-0.010
5009,0.130,-0.020
5010,0.120,-0.050
5011,0.130,-0.070
5012,0.160,-0.040
5013,0.010,-0.120
5014,0.050,-0.130
5015,0.020,-0.120
5016,-0.010,-0.100
5017,-0.010,-0.100
5018,-0.090,-0.140
5019,-0.090,-0.160
5020,-0.050,-0.150
5021,-0.100,-0.140
5022,-0.060,-0.150
5023,-0.080,-0.140
5024,-0.070,-0.130
5025,0.000,-0.120
5026,0.160,-0.040
5027,0.150,-0.030
5028,0.250,-0.160
5029,0.390,-0.060
5030,0.550,-0.150
5031,-0.660,-1.050
5032,-1.220,-1.320
5033,-2.000,-1.590
5034,-1.490,-1.050
5035,-1.440,-1.080
5036,-1.010,-0.690
5037,-0.570,-0.450
5038,-0.350,-0.250
5039,-0.180,-0.160
5040,-0.160,-0.120
5041,-0.150,-0.120
5042,-0.110,-0.090
5043,-0.130,-0.080
5044,-0.120,-0.080
5045,-0.090,-0.060
5046,-0.080,-0.050
5047,-0.090,-0.040
5048,-0.080,-0.040
5049,-0.080,-0.010
5050,-0.050,-0.020
5051,-0.040,-0.010
5052,-0.060,0.010
5053,-0.030,0.010
5054,-0.020,0.020
5055,-0.020,0.020
5056,0.020,0.020
5057,0.000,0.060
5058,0.030,0.060
5059,0.080,0.070
5060,0.050,0.070
5061,0.080,0.080
5062,0.120,0.080
5063,0.120,0.090
5064,0.150,0.080
5065,0.130,0.080
5066,0.110,0.060
5067,0.150,0.060
5068,0.120,0.040
5069,0.080,0.010
5070,0.090,-0.010
5071,0.060,-0.040
5072,0.060,-0.060
5073,0.060,-0.050
5074,0.050,-0.060
5075,0.070,-0.030
5076,0.110,-0.030
5077,0.070,-0.020
5078,0.100,-0.010
5079,0.090,-0.010
5080,0.050,0.000
5081,0.100,-0.010
5082,0.070,0.000
5083,0.030,0.000
5084,0.080,0.000
5085,0.060,0.000
5086,0.030,0.010
5087,0.070,0.020
5088,0.060,0.020
5089,0.070,0.020
5090,0.090,0.030
5091,0.070,0.050
5092,0.090,0.050
5093,0.130,0.070
5094,0.100,0.070
5095,0.130,0.070
5096,0.140,0.080
5097,0.130,0.090
5098,0.160,0.090
5099,0.140,0.100
5100,0.110,0.110
5101,0.140,0.090
5102,0.130,0.100
5103,0.100,0.090
5104,0.130,0.090
5105,0.110,0.090
5106,0.100,0.080
5107,0.120,0.090
5108,0.070,0.080
5109,0.080,0.070
5110,0.090,0.070
5111,0.060,0.070
5112,0.060,0.050
5113,0.050,0.060
5114,0.020,0.040
5115,0.070,0.040
5116,0.030,0.050
5117,0.000,0.040
5118,0.040,0.040
5119,0.020,0.040
5120,-0.010,0.030
5121,0.030,0.030
5122,-0.010,0.020
5123,0.010,0.020
5124,0.020,0.030
5125,-0.020,0.020
5126,0.010,0.020
5127,0.010,0.020
5128,0.000,0.020
5129,0.020,0.030
5130,0.020,0.030
5131,-0.010,0.020
5132,0.030,0.020
5133,0.010,0.020
5134,-0.010,0.040
5135,0.030,0.040
5136,0.020,0.030
5137,0.020,0.030
5138,0.020,0.040
5139,0.000,0.040
5140,0.020,0.030
5141,0.040,0.050
5142,-0.010,0.030
5143,0.020,0.040
5144,0.020,0.020
5145,0.010,0.040
5146,0.030,0.020
5147,0.020,0.030
5148,-0.010,0.030
5149,0.030,0.010
5150,0.010,0.030
5151,-0.030,0.020
5152,0.030,0.020
5153,0.010,0.010
5154,0.000,0.020
5155,0.010,0.020
5156,-0.010,0.010
5157,0.000,0.010
5158,0.020,0.030
5159,-0.040,0.030
5160,-0.010,0.030
5161,-0.020,0.030
5162,-0.020,0.030
5163,0.000,0.040
5164,-0.030,0.050
5165,-0.060,0.030
5166,-0.010,0.040
5167,-0.030,0.040
5168,-0.040,0.050
5169,-0.020,0.060
5170,-0.040,0.050
5171,-0.030,0.040
5172,-0.030,0.050
5173,-0.040,0.050
5174,-0.030,0.040
5175,0.000,0.060
5176,-0.040,0.040
5177,0.000,0.050
5178,-0.020,0.050
5179,-0.030,0.050
5180,0.010,0.040
5181,-0.010,0.050
5182,-0.010,0.040
5183,0.050,0.050
5184,0.060,0.070
5185,0.080,0.090
5186,0.100,0.120
5187,0.170,0.160
5188,0.210,0.150
5189,0.200,0.120
5190,0.120,0.080
5191,0.110,0.050
5192,0.160,0.050
5193,0.070,0.050
5194,0.050,-0.020
5195,0.010,-0.030
5196,0.030,0.000
5197,0.000,-0.020
5198,-0.090,-0.040
5199,-0.100,-0.060
5200,-0.080,-0.090
5201,-0.090,-0.070
5202,-0.080,-0.080
5203,-0.070,-0.070
5204,-0.100,-0.060
5205,-0.020,-0.060
5206,0.140,0.020
5207,0.100,0.050
5208,0.300,0.040
5209,0.370,-0.020
5210,0.570,0.070
5211,-0.220,-0.590
5212,-0.740,-1.190
5213,-1.910,-1.490
5214,-1.610,-1.240
5215,-1.600,-0.940
5216,-1.150,-0.790
5217,-0.790,-0.400
5218,-0.410,-0.150
5219,-0.230,-0.050
5220,-0.200,0.030
5221,-0.200,0.040
5222,-0.120,0.050
5223,-0.120,0.080
5224,-0.120,0.080
5225,-0.090,0.080
5226,-0.100,0.100
5227,-0.080,0.100
5228,-0.040,0.110
5229,-0.060,0.130
5230,-0.040,0.120
5231,-0.020,0.140
5232,-0.050,0.130
5233,0.010,0.170
5234,-0.020,0.170
5235,-0.030,0.180
5236,0.030,0.180
5237,0.040,0.200
5238,0.020,0.200
5239,0.070,0.210
5240,0.060,0.220
5241,0.080,0.230
5242,0.120,0.240
5243,0.090,0.250
5244,0.110,0.250
5245,0.130,0.240
5246,0.110,0.240
5247,0.110,0.210
5248,0.090,0.200
5249,0.050,0.180
5250,0.060,0.150
5251,0.030,0.140
5252,0.020,0.110
5253,0.040,0.100
5254,0.040,0.100
5255,0.050,0.120
5256,0.080,0.120
5257,0.050,0.120
5258,0.090,0.140
5259,0.090,0.150
5260,0.050,0.150
5261,0.080,0.140
5262,0.060,0.140
5263,0.050,0.130
5264,0.080,0.130
5265,0.060,0.140
5266,0.030,0.130
5267,0.090,0.140
5268,0.050,0.140
5269,0.090,0.140
5270,0.060,0.140
5271,0.070,0.150
5272,0.120,0.150
5273,0.100,0.150
5274,0.070,0.150
5275,0.130,0.160
5276,0.110,0.170
5277,0.110,0.170
5278,0.140,0.170
5279,0.110,0.170
5280,0.100,0.160
5281,0.140,0.170
5282,0.110,0.170
5283,0.110,0.140
5284,0.110,0.150
5285,0.070,0.130
5286,0.110,0.120
5287,0.070,0.120
5288,0.030,0.110
5289,0.080,0.110
5290,0.050,0.090
5291,0.000,0.090
5292,0.030,0.080
5293,0.000,0.080
5294,0.010,0.070
5295,0.030,0.070
5296,-0.010,0.060
5297,0.000,0.050
5298,0.010,0.050
5299,-0.010,0.080
5300,0.030,0.050
5301,0.000,0.080
5302,-0.030,0.060
5303,0.030,0.060
5304,0.010,0.080
5305,0.000,0.070
5306,0.000,0.050
5307,0.000,0.060
5308,0.000,0.060
5309,0.010,0.050
5310,-0.030,0.060
5311,0.010,0.050
5312,0.010,0.060
5313,-0.020,0.050
5314,0.010,0.040
5315,-0.020,0.050
5316,-0.020,0.040
5317,0.020,0.030
5318,0.000,0.040
5319,-0.030,0.050
5320,0.020,0.030
5321,0.000,0.030
5322,0.000,0.040
5323,0.010,0.030
5324,-0.020,0.030
5325,-0.010,0.020
5326,0.020,0.020
5327,-0.010,0.010
5328,0.010,0.020
5329,0.000,0.020
5330,-0.020,0.030
5331,0.030,0.040
5332,-0.030,0.030
5333,-0.010,0.030
5334,0.020,0.030
5335,0.010,0.040
5336,-0.020,0.020
5337,0.000,0.040
5338,-0.030,0.040
5339,-0.010,0.020
5340,-0.020,0.030
5341,-0.030,0.030
5342,-0.010,0.010
5343,-0.020,0.010
5344,-0.020,0.010
5345,-0.010,0.000
5346,-0.020,0.010
5347,-0.020,0.000
5348,0.030,0.000
5349,-0.020,0.000
5350,-0.020,-0.020
5351,0.000,-0.020
5352,-0.020,-0.010
5353,0.000,-0.020
5354,-0.030,-0.010
5355,-0.050,-0.030
5356,-0.010,-0.030
5357,-0.010,-0.020
5358,-0.040,-0.020
5359,-0.020,-0.040
5360,-0.040,-0.030
5361,-0.030,-0.020
5362,0.020,-0.030
5363,0.010,0.020
5364,0.010,0.030
5365,0.110,0.080
5366,0.090,0.090
5367,0.150,0.120
5368,0.140,0.080
5369,0.060,0.040
5370,0.070,0.030
5371,0.090,0.030
5372,0.040,0.050
5373,-0.020,-0.040
5374,-0.020,-0.040
5375,-0.030,0.000
5376,-0.060,-0.010
5377,-0.120,-0.010
5378,-0.140,-0.040
5379,-0.150,-0.050
5380,-0.150,-0.030
5381,-0.140,-0.040
5382,-0.090,-0.020
5383,-0.140,-0.020
5384,-0.090,-0.020
5385,-0.060,0.040
5386,0.030,0.110
5387,0.170,0.110
5388,0.100,-0.060
5389,0.290,0.080
5390,0.230,-0.130
5391,-0.840,-1.060
5392,-1.650,-1.250
5393,-1.800,-1.260
5394,-1.620,-0.810
5395,-1.400,-0.870
5396,-0.970,-0.460
5397,-0.570,-0.280
5398,-0.330,-0.100
5399,-0.210,-0.010
5400,-0.170,0.020
5401,-0.130,0.010
5402,-0.130,0.020
5403,-0.130,0.020
5404,-0.080,0.020
5405,-0.100,0.020
5406,-0.100,0.030
5407,-0.070,0.030
5408,-0.090,0.030
5409,-0.070,0.040
5410,-0.060,0.040
5411,-0.080,0.040
5412,-0.050,0.040
5413,-0.040,0.040
5414,-0.040,0.040
5415,-0.020,0.050
5416,-0.020,0.060
5417,0.010,0.080
5418,0.070,0.060
5419,0.050,0.090
5420,0.060,0.090
5421,0.110,0.090
5422,0.110,0.090
5423,0.150,0.110
5424,0.140,0.100
5425,0.140,0.090
5426,0.170,0.070
5427,0.170,0.080
5428,0.100,0.050
5429,0.130,0.040
5430,0.100,0.010
5431,0.090,0.000
5432,0.100,-0.030
5433,0.060,-0.020
5434,0.080,0.000
5435,0.110,0.000
5436,0.050,0.020
5437,0.040,0.010
5438,0.080,0.020
5439,0.040,0.030
5440,0.040,0.040
5441,0.020,0.030
5442,0.000,0.040
5443,0.010,0.030
5444,0.020,0.030
5445,-0.030,0.050
5446,0.010,0.040
5447,0.030,0.050
5448,-0.010,0.050
5449,0.040,0.060
5450,0.020,0.050
5451,0.020,0.060
5452,0.070,0.060
5453,0.060,0.080
5454,0.040,0.080
5455,0.060,0.080
5456,0.060,0.080
5457,0.070,0.080
5458,0.080,0.080
5459,0.030,0.090
5460,0.070,0.080
5461,0.060,0.080
5462,0.030,0.080
5463,0.050,0.070
5464,0.040,0.080
5465,0.030,0.080
5466,0.060,0.090
5467,0.020,0.080
5468,0.020,0.090
5469,0.040,0.090
5470,0.020,0.090
5471,0.020,0.090
5472,0.000,0.080
5473,-0.020,0.080
5474,0.010,0.080
5475,0.000,0.070
5476,-0.040,0.090
5477,0.010,0.080
5478,-0.010,0.070
5479,-0.030,0.080
5480,0.000,0.060
5481,-0.010,0.060
5482,-0.020,0.050
5483,0.030,0.060
5484,-0.020,0.050
5485,-0.010,0.050
5486,0.000,0.050
5487,-0.010,0.050
5488,0.030,0.050
5489,0.010,0.050
5490,-0.020,0.030
5491,0.020,0.040
5492,0.010,0.040
5493,-0.010,0.040
5494,0.030,0.040
5495,0.000,0.020
5496,0.030,0.020
5497,0.040,0.030
5498,0.010,0.030
5499,0.010,0.020
5500,0.060,0.020
5501,0.020,0.020
5502,0.040,0.010
5503,0.050,0.020
5504,0.020,0.030
5505,0.070,0.030
5506,0.050,0.020
5507,0.020,0.030
5508,0.060,0.020
5509,0.060,0.040
5510,0.040,0.020
5511,0.070,0.040
5512,0.050,0.040
5513,0.080,0.030
5514,0.080,0.030
5515,0.050,0.040
5516,0.060,0.040
5517,0.070,0.050
5518,0.050,0.050
5519,0.070,0.040
5520,0.050,0.050
5521,0.040,0.040
5522,0.060,0.050
5523,0.040,0.050
5524,0.010,0.060
5525,0.030,0.060
5526,0.020,0.060
5527,0.020,0.050
5528,0.020,0.070
5529,-0.010,0.070
5530,0.020,0.070
5531,0.020,0.080
5532,0.000,0.060
5533,0.020,0.080
5534,0.010,0.080
5535,0.010,0.080
5536,0.060,0.090
5537,0.030,0.100
5538,0.070,0.090
5539,0.120,0.140
5540,0.130,0.150
5541,0.180,0.190
5542,0.220,0.220
5543,0.240,0.230
5544,0.260,0.190
5545,0.190,0.160
5546,0.120,0.130
5547,0.210,0.140
5548,0.160,0.130
5549,0.090,0.070
5550,0.100,0.070
5551,0.090,0.100
5552,0.050,0.070
5553,0.020,0.060
5554,-0.040,0.050
5555,-0.010,0.020
5556,-0.020,0.050
5557,-0.020,0.040
5558,0.050,0.040
5559,0.010,0.050
5560,0.010,0.040
5561,0.190,0.110
5562,0.190,0.140
5563,0.380,0.130
5564,0.450,0.030
5565,0.640,0.140
5566,0.040,-0.450
5567,-0.600,-1.150
5568,-1.830,-1.430
5569,-1.540,-1.180
5570,-1.510,-0.930
5571,-1.050,-0.740
5572,-0.660,-0.420
5573,-0.300,-0.170
5574,-0.170,-0.080
5575,-0.060,-0.020
5576,-0.040,0.000
5577,-0.030,0.010
5578,-0.010,0.010
5579,-0.020,0.020
5580,-0.020,0.010
5581,0.000,0.040
5582,-0.030,0.030
5583,0.000,0.040
5584,0.010,0.060
5585,-0.020,0.050
5586,0.000,0.060
5587,0.000,0.070
5588,0.010,0.090
5589,0.040,0.100
5590,0.030,0.110
5591,0.040,0.120
5592,0.080,0.140
5593,0.090,0.150
5594,0.110,0.170
5595,0.120,0.180
5596,0.130,0.190
5597,0.180,0.210
5598,0.180,0.210
5599,0.150,0.230
5600,0.200,0.210
5601,0.180,0.220
5602,0.180,0.170
5603,0.190,0.180
5604,0.120,0.140
5605,0.130,0.130
5606,0.130,0.100
5607,0.100,0.090
5608,0.110,0.060
5609,0.130,0.070
5610,0.110,0.080
5611,0.150,0.080
5612,0.130,0.100
5613,0.130,0.100
5614,0.150,0.100
5615,0.130,0.110
5616,0.100,0.100
5617,0.120,0.100
5618,0.100,0.100
5619,0.120,0.100
5620,0.110,0.110
5621,0.090,0.100
5622,0.130,0.110
5623,0.110,0.110
5624,0.130,0.120
5625,0.140,0.130
5626,0.120,0.130
5627,0.140,0.130
5628,0.190,0.130
5629,0.150,0.150
5630,0.170,0.140
5631,0.210,0.150
5632,0.180,0.150
5633,0.220,0.150
5634,0.200,0.160
5635,0.170,0.150
5636,0.210,0.150
5637,0.200,0.160
5638,0.160,0.150
5639,0.190,0.140
5640,0.170,0.140
5641,0.160,0.150
5642,0.180,0.140
5643,0.130,0.130
5644,0.130,0.120
5645,0.170,0.110
5646,0.120,0.120
5647,0.120,0.120
5648,0.140,0.120
5649,0.120,0.120
5650,0.150,0.110
5651,0.110,0.110
5652,0.100,0.110
5653,0.130,0.100
5654,0.120,0.100
5655,0.070,0.100
5656,0.090,0.090
5657,0.090,0.090
5658,0.090,0.100
5659,0.100,0.090
5660,0.070,0.070
5661,0.080,0.070
5662,0.090,0.070
5663,0.070,0.070
5664,0.060,0.060
5665,0.070,0.070
5666,0.050,0.070
5667,0.080,0.050
5668,0.060,0.060
5669,0.060,0.060
5670,0.070,0.060
5671,0.080,0.060
5672,0.060,0.070
5673,0.090,0.050
5674,0.070,0.060
5675,0.090,0.060
5676,0.130,0.070
5677,0.080,0.060
5678,0.100,0.060
5679,0.110,0.060
5680,0.100,0.060
5681,0.090,0.060
5682,0.100,0.060
5683,0.080,0.050
5684,0.120,0.060
5685,0.080,0.060
5686,0.060,0.050
5687,0.110,0.070
5688,0.080,0.050
5689,0.090,0.060
5690,0.090,0.060
5691,0.070,0.070
5692,0.090,0.060
5693,0.090,0.070
5694,0.050,0.060
5695,0.070,0.050
5696,0.070,0.050
5697,0.070,0.050
5698,0.070,0.050
5699,0.050,0.060
5700,0.040,0.040
5701,0.090,0.040
5702,0.050,0.040
5703,0.040,0.020
5704,0.070,0.030
5705,0.050,0.030
5706,0.070,0.020
5707,0.060,0.030
5708,0.040,0.040
5709,0.070,0.010
5710,0.070,0.030
5711,0.050,0.020
5712,0.070,0.000
5713,0.060,0.020
5714,0.050,0.010
5715,0.070,0.000
5716,0.040,0.000
5717,0.060,0.010
5718,0.130,0.030
5719,0.110,0.060
5720,0.120,0.080
5721,0.210,0.100
5722,0.250,0.110
5723,0.250,0.100
5724,0.190,0.050
5725,0.160,0.020
5726,0.190,0.010
5727,0.200,0.010
5728,0.070,-0.070
5729,0.110,-0.070
5730,0.110,-0.050
5731,0.040,-0.070
5732,0.050,-0.090
5733,-0.010,-0.120
5734,-0.030,-0.130
5735,0.010,-0.110
5736,0.020,-0.100
5737,0.000,-0.110
5738,0.050,-0.080
5739,0.040,-0.080
5740,0.160,-0.050
5741,0.270,0.050
5742,0.350,0.030
5743,0.430,-0.110
5744,0.590,0.030
5745,0.490,-0.270
5746,-0.590,-1.160
5747,-1.480,-1.360
5748,-1.900,-1.480
5749,-1.450,-0.950
5750,-1.240,-0.950
5751,-0.900,-0.530
5752,-0.400,-0.320
5753,-0.160,-0.120
5754,-0.070,-0.010
5755,-0.030,0.000
5756,-0.020,0.040
5757,0.030,0.040
5758,0.030,0.050
5759,-0.010,0.060
5760,0.040,0.060
5761,0.020,0.070
5762,0.010,0.070
5763,0.030,0.070
5764,0.020,0.070
5765,0.010,0.080
5766,0.060,0.080
5767,0.010,0.070
5768,0.010,0.070
5769,0.070,0.090
5770,0.060,0.080
5771,0.070,0.090
5772,0.090,0.090
5773,0.100,0.100
5774,0.130,0.100
5775,0.140,0.120
5776,0.120,0.110
5777,0.190,0.120
5778,0.200,0.120
5779,0.190,0.120
5780,0.200,0.100
5781,0.210,0.090
5782,0.180,0.080
5783,0.210,0.070
5784,0.160,0.040
5785,0.150,0.020
5786,0.170,-0.010
5787,0.140,-0.040
5788,0.150,-0.040
5789,0.160,-0.040
5790,0.160,-0.030
5791,0.190,-0.030
5792,0.200,-0.010
5793,0.150,-0.010
5794,0.180,-0.010
5795,0.150,-0.010
5796,0.140,-0.010
5797,0.150,-0.010
5798,0.110,-0.020
5799,0.100,-0.020
5800,0.160,-0.020
5801,0.100,-0.010
5802,0.110,-0.020
5803,0.120,-0.020
5804,0.100,-0.020
5805,0.110,-0.030
5806,0.110,-0.020
5807,0.100,-0.020
5808,0.130,-0.030
5809,0.130,-0.010
5810,0.080,-0.020
5811,0.130,-0.020
5812,0.120,-0.010
5813,0.110,-0.030
5814,0.140,-0.020
5815,0.120,-0.030
5816,0.140,-0.030
5817,0.150,-0.040
5818,0.130,-0.030
5819,0.130,-0.060
5820,0.140,-0.050
5821,0.110,-0.060
5822,0.120,-0.070
5823,0.110,-0.080
5824,0.090,-0.080
5825,0.110,-0.080
5826,0.080,-0.080
5827,0.060,-0.090
5828,0.070,-0.100
5829,0.070,-0.100
5830,0.040,-0.120
5831,0.060,-0.110
5832,0.040,-0.110
5833,0.030,-0.120
5834,0.050,-0.110
5835,0.030,-0.120
5836,0.030,-0.130
5837,0.030,-0.110
5838,-0.010,-0.140
5839,0.040,-0.140
5840,0.000,-0.130
5841,-0.020,-0.130
5842,0.030,-0.140
5843,0.000,-0.140
5844,0.010,-0.140
5845,0.010,-0.150
5846,-0.010,-0.150
5847,-0.010,-0.160
5848,0.030,-0.160
5849,-0.020,-0.160
5850,-0.020,-0.170
5851,0.010,-0.160
5852,-0.010,-0.150
5853,0.000,-0.170
5854,0.000,-0.150
5855,-0.030,-0.160
5856,0.020,-0.170
5857,-0.010,-0.160
5858,-0.030,-0.180
5859,0.000,-0.160
5860,-0.020,-0.160
5861,-0.020,-0.170
5862,-0.010,-0.160
5863,-0.040,-0.170
5864,-0.030,-0.180
5865,-0.010,-0.160
5866,-0.060,-0.170
5867,-0.020,-0.160
5868,-0.040,-0.160
5869,-0.060,-0.160
5870,-0.020,-0.170
5871,-0.060,-0.170
5872,-0.090,-0.160
5873,-0.040,-0.150
5874,-0.060,-0.140
5875,-0.070,-0.170
5876,-0.060,-0.140
5877,-0.060,-0.150
5878,-0.040,-0.150
5879,-0.030,-0.150
5880,-0.070,-0.150
5881,-0.030,-0.160
5882,-0.040,-0.170
5883,-0.050,-0.150
5884,0.000,-0.170
5885,-0.050,-0.160
5886,-0.050,-0.150
5887,-0.010,-0.150
5888,-0.040,-0.140
5889,-0.050,-0.140
5890,-0.030,-0.140
5891,-0.060,-0.140
5892,-0.050,-0.150
5893,-0.030,-0.140
5894,-0.060,-0.140
5895,0.010,-0.120
5896,0.030,-0.090
5897,0.010,-0.070
5898,0.080,-0.040
5899,0.120,-0.030
5900,0.110,-0.070
5901,0.090,-0.100
5902,0.010,-0.110
5903,0.070,-0.110
5904,0.040,-0.130
5905,-0.060,-0.170
5906,-0.050,-0.200
5907,-0.040,-0.150
5908,-0.100,-0.170
5909,-0.130,-0.180
5910,-0.150,-0.190
5911,-0.200,-0.210
5912,-0.140,-0.200
5913,-0.160,-0.190
5914,-0.160,-0.190
5915,-0.150,-0.190
5916,-0.170,-0.190
5917,-0.040,-0.110
5918,0.050,-0.080
5919,0.140,-0.080
5920,0.130,-0.240
5921,0.400,-0.100
5922,-0.020,-0.440
5923,-0.840,-1.270
5924,-1.840,-1.490
5925,-1.730,-1.310
5926,-1.670,-1.040
5927,-1.310,-0.990
5928,-1.010,-0.590
5929,-0.530,-0.420
5930,-0.360,-0.280
5931,-0.280,-0.190
5932,-0.210,-0.190
5933,-0.240,-0.180
5934,-0.210,-0.170
5935,-0.170,-0.160
5936,-0.190,-0.160
5937,-0.180,-0.160
5938,-0.190,-0.140
5939,-0.200,-0.140
5940,-0.160,-0.150
5941,-0.190,-0.130
5942,-0.190,-0.120
5943,-0.140,-0.120
5944,-0.150,-0.110
5945,-0.160,-0.120
5946,-0.110,-0.110
5947,-0.120,-0.080
5948,-0.100,-0.100
5949,-0.040,-0.060
5950,-0.080,-0.070
5951,-0.020,-0.070
5952,0.000,-0.040
5953,0.010,-0.040
5954,0.040,-0.030
5955,0.070,-0.030
5956,0.050,-0.030
5957,0.100,-0.040
5958,0.070,-0.050
5959,0.050,-0.060
5960,0.080,-0.070
5961,0.050,-0.090
5962,0.010,-0.110
5963,0.040,-0.140
5964,0.010,-0.150
5965,0.010,-0.160
5966,0.020,-0.140
5967,-0.010,-0.140
5968,0.020,-0.130
5969,0.020,-0.130
5970,-0.010,-0.110
5971,-0.010,-0.100
5972,-0.030,-0.100
5973,-0.060,-0.100
5974,-0.020,-0.110
5975,-0.070,-0.100
5976,-0.090,-0.120
5977,-0.030,-0.100
5978,-0.060,-0.110
5979,-0.060,-0.100
5980,-0.050,-0.100
5981,-0.060,-0.100
5982,-0.040,-0.110
5983,-0.010,-0.080
5984,-0.060,-0.080
5985,-0.020,-0.070
5986,0.000,-0.050
5987,-0.040,-0.050
5988,0.000,-0.040
5989,0.000,-0.020
5990,-0.010,-0.010
5991,0.030,-0.010
5992,-0.010,0.010
5993,-0.030,0.000
5994,0.020,0.010
5995,-0.020,0.010
5996,-0.020,0.000
5997,-0.030,0.010
5998,-0.040,0.000
5999,-0.030,0.010
6000,-0.040,0.000
6001,-0.080,0.000
6002,-0.070,-0.020
6003,-0.050,0.000
6004,-0.100,-0.010
6005,-0.070,-0.030
6006,-0.090,-0.020
6007,-0.110,-0.020
6008,-0.080,-0.020
6009,-0.100,-0.020
6010,-0.130,-0.020
6011,-0.070,-0.030
6012,-0.100,-0.030
6013,-0.110,-0.030
6014,-0.080,-0.020
6015,-0.080,-0.020
6016,-0.090,-0.020
6017,-0.080,-0.020
6018,-0.090,-0.030
6019,-0.080,-0.020
6020,-0.060,-0.010
6021,-0.110,-0.010
6022,-0.070,-0.020
6023,-0.090,-0.010
6024,-0.090,-0.010
6025,-0.080,-0.010
6026,-0.100,0.010
6027,-0.100,0.000
6028,-0.070,-0.010
6029,-0.090,0.010
6030,-0.100,-0.010
6031,-0.070,0.010
6032,-0.070,0.000
6033,-0.070,0.000
6034,-0.070,0.000
6035,-0.100,0.010
6036,-0.070,-0.010
6037,-0.060,0.000
6038,-0.110,0.010
6039,-0.090,-0.010
6040,-0.080,0.010
6041,-0.100,0.010
6042,-0.070,0.020
6043,-0.100,0.020
6044,-0.110,0.020
6045,-0.060,0.010
6046,-0.080,0.030
6047,-0.100,0.030
6048,-0.070,0.020
6049,-0.090,0.020
6050,-0.080,0.020
6051,-0.080,0.040
6052,-0.110,0.030
6053,-0.080,0.030
6054,-0.070,0.040
6055,-0.110,0.050
6056,-0.100,0.010
6057,-0.090,0.030
6058,-0.130,0.020
6059,-0.100,0.020
6060,-0.120,0.030
6061,-0.110,0.020
6062,-0.080,0.020
6063,-0.110,0.030
6064,-0.120,0.030
6065,-0.080,0.020
6066,-0.080,0.030
6067,-0.090,0.030
6068,-0.080,0.050
6069,-0.060,0.050
6070,-0.030,0.080
6071,0.010,0.120
6072,0.000,0.160
6073,0.060,0.170
6074,0.140,0.220
6075,0.100,0.160
6076,0.070,0.120
6077,0.030,0.110
6078,0.030,0.090
6079,0.080,0.110
6080,-0.050,0.040
6081,-0.050,0.040
6082,-0.030,0.040
6083,-0.090,0.060
6084,-0.120,0.050
6085,-0.130,0.030
6086,-0.180,0.010
6087,-0.130,0.030
6088,-0.130,0.040
6089,-0.150,0.040
6090,-0.120,0.040
6091,-0.100,0.050
6092,-0.070,0.080
6093,0.100,0.170
6094,0.120,0.170
6095,0.150,0.010
6096,0.370,0.150
6097,0.440,-0.020
6098,-0.790,-1.000
6099,-1.460,-1.240
6100,-2.010,-1.400
6101,-1.620,-0.880
6102,-1.380,-0.900
6103,-1.070,-0.450
6104,-0.600,-0.270
6105,-0.360,-0.070
6106,-0.280,0.010
6107,-0.210,0.030
6108,-0.190,0.040
6109,-0.180,0.060
6110,-0.160,0.060
6111,-0.160,0.070
6112,-0.180,0.070
6113,-0.130,0.070
6114,-0.160,0.080
6115,-0.160,0.080
6116,-0.120,0.080
6117,-0.140,0.080
6118,-0.120,0.090
6119,-0.120,0.090
6120,-0.120,0.110
6121,-0.070,0.110
6122,-0.060,0.120
6123,-0.090,0.120
6124,-0.030,0.140
6125,-0.030,0.150
6126,-0.030,0.170
6127,0.020,0.180
6128,0.020,0.180
6129,0.020,0.200
6130,0.090,0.200
6131,0.060,0.210
6132,0.060,0.200
6133,0.090,0.200
6134,0.070,0.170
6135,0.070,0.150
6136,0.050,0.130
6137,0.000,0.110
6138,0.030,0.080
6139,0.030,0.070
6140,-0.010,0.050
6141,0.020,0.050
6142,0.050,0.060
6143,0.030,0.070
6144,0.040,0.080
6145,0.020,0.090
6146,0.000,0.080
6147,0.030,0.090
6148,0.010,0.090
6149,0.000,0.090
6150,-0.010,0.090
6151,-0.020,0.070
6152,0.010,0.080
6153,0.000,0.090
6154,-0.020,0.100
6155,0.020,0.090
6156,0.020,0.120
6157,0.000,0.120
6158,0.020,0.120
6159,0.010,0.130
6160,0.040,0.150
6161,0.060,0.160
6162,0.040,0.160
6163,0.050,0.170
6164,0.080,0.170
6165,0.080,0.180
6166,0.070,0.180
6167,0.070,0.210
6168,0.050,0.190
6169,0.100,0.180
6170,0.070,0.190
6171,0.050,0.190
6172,0.080,0.180
6173,0.070,0.180
6174,0.040,0.170
6175,0.060,0.160
6176,0.030,0.160
6177,0.020,0.150
6178,0.060,0.160
6179,0.010,0.140
6180,0.030,0.140
6181,0.020,0.140
6182,0.020,0.120
6183,0.020,0.110
6184,0.020,0.120
6185,-0.020,0.110
6186,0.030,0.100
6187,0.010,0.110
6188,-0.020,0.090
6189,0.010,0.090
6190,-0.010,0.090
6191,-0.010,0.090
6192,0.000,0.080
6193,-0.040,0.090
6194,-0.020,0.080
6195,0.010,0.100
6196,-0.030,0.100
6197,-0.020,0.090
6198,-0.020,0.090
6199,-0.030,0.090
6200,-0.020,0.080
6201,-0.030,0.090
6202,-0.060,0.090
6203,-0.010,0.080
6204,-0.020,0.090
6205,-0.050,0.090
6206,-0.020,0.080
6207,-0.040,0.090
6208,-0.050,0.090
6209,-0.020,0.090
6210,-0.050,0.090
6211,-0.050,0.080
6212,-0.040,0.090
6213,-0.080,0.090
6214,-0.060,0.080
6215,-0.080,0.090
6216,-0.090,0.080
6217,-0.060,0.080
6218,-0.090,0.070
6219,-0.110,0.070
6220,-0.070,0.060
6221,-0.080,0.070
6222,-0.110,0.050
6223,-0.080,0.060
6224,-0.110,0.050
6225,-0.080,0.050
6226,-0.090,0.050
6227,-0.100,0.060
6228,-0.090,0.050
6229,-0.070,0.060
6230,-0.090,0.060
6231,-0.080,0.060
6232,-0.090,0.080
6233,-0.090,0.060
6234,-0.060,0.070
6235,-0.080,0.070
6236,-0.080,0.060
6237,-0.050,0.070
6238,-0.050,0.080
6239,-0.070,0.070
6240,-0.040,0.060
6241,-0.060,0.070
6242,0.000,0.090
6243,0.030,0.100
6244,0.020,0.150
6245,0.070,0.160
6246,0.140,0.190
6247,0.150,0.200
6248,0.180,0.150
6249,0.090,0.110
6250,0.050,0.100
6251,0.140,0.090
6252,0.050,0.080
6253,-0.040,0.020
6254,0.020,0.020
6255,0.010,0.050
6256,-0.080,0.030
6257,-0.090,0.030
6258,-0.130,0.000
6259,-0.140,-0.010
6260,-0.100,0.010
6261,-0.140,0.010
6262,-0.110,0.020
6263,-0.110,0.020
6264,-0.110,0.020
6265,0.010,0.080
6266,0.100,0.150
6267,0.220,0.150
6268,0.280,-0.010
6269,0.430,0.130
6270,0.360,-0.160
6271,-0.720,-1.090
6272,-1.550,-1.300
6273,-1.960,-1.400
6274,-1.570,-0.880
6275,-1.320,-0.880
6276,-0.980,-0.460
6277,-0.500,-0.240
6278,-0.320,-0.060
6279,-0.180,0.040
6280,-0.140,0.060
6281,-0.130,0.080
6282,-0.110,0.080
6283,-0.110,0.090
6284,-0.120,0.110
6285,-0.070,0.100
6286,-0.090,0.110
6287,-0.110,0.110
6288,-0.050,0.120
6289,-0.060,0.120
6290,-0.070,0.130
6291,-0.030,0.140
6292,-0.050,0.160
6293,-0.020,0.150
6294,-0.010,0.170
6295,-0.030,0.190
6296,0.020,0.180
6297,0.030,0.190
6298,0.020,0.200
6299,0.070,0.200
6300,0.060,0.200
6301,0.080,0.210
6302,0.120,0.230
6303,0.120,0.230
6304,0.100,0.210
6305,0.160,0.210
6306,0.130,0.190
6307,0.120,0.180
6308,0.130,0.160
6309,0.100,0.150
6310,0.100,0.120
6311,0.100,0.120
6312,0.050,0.090
6313,0.090,0.080
6314,0.110,0.100
6315,0.090,0.100
6316,0.120,0.100
6317,0.110,0.120
6318,0.090,0.120
6319,0.110,0.110
6320,0.080,0.130
6321,0.070,0.130
6322,0.110,0.120
6323,0.070,0.120
6324,0.060,0.100
6325,0.070,0.110
6326,0.070,0.100
6327,0.080,0.120
6328,0.080,0.110
6329,0.050,0.120
6330,0.070,0.110
6331,0.110,0.120
6332,0.060,0.120
6333,0.110,0.130
6334,0.100,0.130
6335,0.090,0.140
6336,0.150,0.140
6337,0.120,0.140
6338,0.110,0.150
6339,0.150,0.140
6340,0.140,0.150
6341,0.110,0.150
6342,0.140,0.150
6343,0.110,0.140
6344,0.110,0.150
6345,0.120,0.140
6346,0.090,0.130
6347,0.110,0.110
6348,0.100,0.140
6349,0.090,0.130
6350,0.100,0.110
6351,0.080,0.120
6352,0.080,0.100
6353,0.090,0.100
6354,0.070,0.100
6355,0.060,0.090
6356,0.080,0.090
6357,0.070,0.110
6358,0.050,0.080
6359,0.060,0.080
6360,0.020,0.070
6361,0.060,0.070
6362,0.030,0.070
6363,0.000,0.050
6364,0.040,0.040
6365,0.020,0.050
6366,-0.010,0.050
6367,0.010,0.040
6368,-0.020,0.050
6369,-0.040,0.030
6370,0.000,0.040
6371,-0.050,0.030
6372,-0.050,0.030
6373,0.000,0.020
6374,-0.020,0.030
6375,-0.040,0.020
6376,-0.030,0.010
6377,-0.050,0.010
6378,-0.010,0.020
6379,-0.010,0.040
6380,-0.040,0.020
6381,-0.010,0.030
6382,-0.010,0.020
6383,-0.050,0.030
6384,-0.010,0.030
6385,-0.040,0.040
6386,-0.030,0.050
6387,0.020,0.050
6388,-0.030,0.050
6389,-0.040,0.040
6390,0.010,0.050
6391,0.010,0.060
6392,0.010,0.060
6393,0.000,0.060
6394,-0.020,0.060
6395,0.020,0.040
6396,0.010,0.050
6397,0.000,0.070
6398,0.020,0.040
6399,0.020,0.070
6400,0.000,0.050
6401,0.010,0.040
6402,0.000,0.060
6403,0.000,0.040
6404,0.030,0.060
6405,0.000,0.060
6406,-0.010,0.040
6407,0.000,0.060
6408,-0.010,0.050
6409,0.010,0.050
6410,-0.010,0.050
6411,-0.040,0.050
6412,-0.010,0.030
6413,0.000,0.050
6414,-0.040,0.030
6415,0.000,0.050
6416,0.000,0.050
6417,0.030,0.080
6418,0.060,0.090
6419,0.070,0.130
6420,0.090,0.150
6421,0.230,0.190
6422,0.180,0.150
6423,0.090,0.100
6424,0.120,0.080
6425,0.090,0.070
6426,0.130,0.080
6427,0.000,0.000
6428,-0.010,0.000
6429,0.030,0.010
6430,-0.030,0.030
6431,-0.070,0.020
6432,-0.080,-0.020
6433,-0.100,-0.020
6434,-0.110,-0.020
6435,-0.060,0.000
6436,-0.080,-0.010
6437,-0.080,0.000
6438,-0.030,0.000
6439,0.000,0.060
6440,0.180,0.130
6441,0.210,0.130
6442,0.220,-0.010
6443,0.380,0.070
6444,0.530,0.000
6445,-0.730,-0.960
6446,-1.340,-1.210
6447,-1.830,-1.340
6448,-1.540,-0.830
6449,-1.340,-0.880
6450,-0.950,-0.480
6451,-0.510,-0.290
6452,-0.230,-0.080
6453,-0.160,-0.020
6454,-0.120,0.010
6455,-0.050,0.040
6456,-0.050,0.050
6457,-0.030,0.030
6458,-0.040,0.050
6459,-0.070,0.030
6460,0.000,0.040
6461,-0.050,0.040
6462,-0.060,0.050
6463,-0.020,0.050
6464,-0.020,0.040
6465,-0.040,0.040
6466,0.000,0.050
6467,-0.020,0.050
6468,0.000,0.050
6469,0.030,0.080
6470,0.000,0.060
6471,0.040,0.060
6472,0.040,0.080
6473,0.070,0.090
6474,0.110,0.090
6475,0.110,0.110
6476,0.120,0.100
6477,0.170,0.100
6478,0.150,0.100
6479,0.160,0.080
6480,0.180,0.090
6481,0.160,0.070
6482,0.170,0.040
6483,0.140,0.020
6484,0.110,0.010
6485,0.120,-0.030
6486,0.130,-0.010
6487,0.110,-0.020
6488,0.120,-0.040
6489,0.100,-0.010
6490,0.120,-0.010
6491,0.130,0.000
6492,0.090,0.020
6493,0.080,0.020
6494,0.100,0.010
6495,0.050,0.010
6496,0.090,0.020
6497,0.040,0.020
6498,0.010,0.000
6499,0.090,0.020
6500,0.050,0.020
6501,0.040,0.030
6502,0.060,0.020
6503,0.060,0.030
6504,0.060,0.030
6505,0.090,0.040
6506,0.060,0.030
6507,0.080,0.030
6508,0.130,0.040
6509,0.090,0.040
6510,0.110,0.050
6511,0.120,0.040
6512,0.100,0.040
6513,0.140,0.040
6514,0.120,0.050
6515,0.080,0.030
6516,0.130,0.040
6517,0.110,0.020
6518,0.100,0.010
6519,0.090,0.010
6520,0.090,0.000
6521,0.070,-0.010
6522,0.100,-0.020
6523,0.040,-0.030
6524,0.050,-0.050
6525,0.030,-0.050
6526,0.020,-0.050
6527,0.040,-0.040
6528,0.010,-0.040
6529,-0.010,-0.050
6530,0.010,-0.060
6531,0.000,-0.060
6532,0.000,-0.050
6533,0.000,-0.060
6534,-0.010,-0.060
6535,0.010,-0.050
6536,-0.010,-0.050
6537,-0.020,-0.050
6538,0.000,-0.070
6539,0.020,-0.050
6540,-0.040,-0.060
6541,0.000,-0.060
6542,-0.020,-0.070
6543,-0.040,-0.060
6544,0.000,-0.060
6545,-0.020,-0.060
6546,-0.050,-0.060
6547,-0.030,-0.060
6548,-0.040,-0.060
6549,-0.050,-0.080
6550,-0.030,-0.060
6551,-0.060,-0.060
6552,-0.040,-0.080
6553,-0.040,-0.060
6554,-0.050,-0.070
6555,-0.060,-0.090
6556,-0.050,-0.070
6557,-0.070,-0.080
6558,-0.050,-0.080
6559,-0.080,-0.080
6560,-0.100,-0.090
6561,-0.040,-0.080
6562,-0.080,-0.080
6563,-0.060,-0.080
6564,-0.080,-0.090
6565,-0.070,-0.080
6566,-0.060,-0.090
6567,-0.050,-0.100
6568,-0.110,-0.090
6569,-0.040,-0.090
6570,-0.060,-0.100
6571,-0.070,-0.090
6572,-0.050,-0.100
6573,-0.080,-0.100
6574,-0.070,-0.090
6575,-0.030,-0.100
6576,-0.060,-0.100
6577,-0.080,-0.090
6578,-0.010,-0.090
6579,-0.080,-0.110
6580,-0.060,-0.100
6581,-0.050,-0.100
6582,-0.070,-0.100
6583,-0.050,-0.100
6584,-0.040,-0.090
6585,-0.110,-0.090
6586,-0.060,-0.090
6587,-0.060,-0.100
6588,-0.100,-0.110
6589,-0.090,-0.090
6590,-0.100,-0.110
6591,-0.110,-0.100
6592,-0.070,-0.100
6593,-0.090,-0.100
6594,-0.090,-0.100
6595,-0.020,-0.080
6596,-0.040,-0.050
6597,0.010,-0.040
6598,0.020,0.000
6599,0.100,0.050
6600,0.110,0.020
6601,0.080,-0.020
6602,0.020,-0.040
6603,0.030,-0.060
6604,0.070,-0.040
6605,-0.040,-0.090
6606,-0.040,-0.130
6607,-0.030,-0.090
6608,-0.090,-0.110
6609,-0.080,-0.100
6610,-0.130,-0.110
6611,-0.160,-0.140
6612,-0.140,-0.140
6613,-0.160,-0.120
6614,-0.130,-0.130
6615,-0.110,-0.110
6616,-0.150,-0.120
6617,-0.070,-0.100
6618,0.080,-0.010
6619,0.010,-0.010
6620,0.070,-0.140
6621,0.180,-0.090
6622,0.440,-0.040
6623,-0.720,-0.810
6624,-1.070,-1.180
6625,-1.890,-1.390
6626,-1.470,-0.930
6627,-1.580,-0.900
6628,-1.160,-0.770
6629,-0.800,-0.480
6630,-0.450,-0.280
6631,-0.270,-0.210
6632,-0.240,-0.140
6633,-0.250,-0.140
6634,-0.140,-0.120
6635,-0.180,-0.120
6636,-0.160,-0.120
6637,-0.190,-0.110
6638,-0.160,-0.110
6639,-0.160,-0.100
6640,-0.130,-0.090
6641,-0.180,-0.100
6642,-0.130,-0.080
6643,-0.120,-0.090
6644,-0.140,-0.080
6645,-0.090,-0.070
6646,-0.100,-0.070
6647,-0.110,-0.060
6648,-0.050,-0.070
6649,-0.040,-0.030
6650,-0.050,-0.020
6651,0.000,-0.040
6652,0.020,0.010
6653,0.020,-0.010
6654,0.040,0.000
6655,0.060,0.030
6656,0.070,0.000
6657,0.130,0.000
6658,0.080,0.000
6659,0.090,-0.020
6660,0.060,-0.040
6661,0.030,-0.060
6662,0.010,-0.120
6663,-0.020,-0.070
6664,-0.020,-0.110
6665,-0.020,-0.110
6666,-0.050,-0.100
6667,-0.060,-0.110
6668,-0.060,-0.090
6669,-0.070,-0.100
6670,-0.100,-0.100
6671,-0.100,-0.080
6672,-0.160,-0.080
6673,-0.100,-0.090
6674,-0.160,-0.090
6675,-0.150,-0.090
6676,-0.170,-0.100
6677,-0.170,-0.090
6678,-0.150,-0.090
6679,-0.140,-0.080
6680,-0.150,-0.070
6681,-0.160,-0.060
6682,-0.120,-0.080
6683,-0.150,-0.060
6684,-0.140,-0.080
6685,-0.120,-0.060
6686,-0.130,-0.050
6687,-0.100,-0.060
6688,-0.110,-0.030
6689,-0.160,-0.060
6690,-0.100,-0.060
6691,-0.100,-0.020
6692,-0.080,-0.040
6693,-0.120,-0.040
6694,-0.130,-0.040
6695,-0.110,-0.040
6696,-0.100,-0.050
6697,-0.160,-0.010
6698,-0.120,-0.040
6699,-0.100,0.000
6700,-0.120,-0.040
6701,-0.160,-0.030
6702,-0.150,-0.050
6703,-0.160,-0.050
6704,-0.090,-0.050
6705,-0.150,-0.050
6706,-0.200,-0.050
6707,-0.140,-0.060
6708,-0.190,-0.060
6709,-0.210,-0.060
6710,-0.150,-0.070
6711,-0.200,-0.060
6712,-0.190,-0.060
6713,-0.140,-0.060
6714,-0.180,-0.070
6715,-0.190,-0.070
6716,-0.160,-0.060
6717,-0.170,-0.080
6718,-0.180,-0.080
6719,-0.180,-0.080
6720,-0.190,-0.090
6721,-0.160,-0.080
6722,-0.130,-0.070
6723,-0.140,-0.070
6724,-0.120,-0.070
6725,-0.070,-0.040
6726,-0.020,-0.020
6727,0.000,0.010
6728,-0.020,0.020
6729,-0.040,-0.010
6730,-0.060,-0.030
6731,-0.020,0.010
6732,-0.050,-0.090
6733,-0.060,-0.090
6734,-0.090,-0.050
6735,-0.130,-0.100
6736,-0.210,-0.130
6737,-0.220,-0.150
6738,-0.160,-0.130
6739,-0.140,-0.130
6740,-0.160,-0.130
6741,-0.120,-0.120
6742,-0.140,-0.130
6743,-0.100,-0.130
6744,0.080,-0.040
6745,0.010,-0.030
6746,0.130,-0.090
6747,0.210,-0.180
6748,0.420,-0.070
6749,-0.480,-0.680
6750,-0.800,-1.170
6751,-1.810,-1.360
6752,-1.460,-1.030
6753,-1.590,-0.890
6754,-1.160,-0.820
6755,-0.750,-0.440
6756,-0.350,-0.240
6757,-0.190,-0.170
6758,-0.130,-0.090
6759,-0.130,-0.100
6760,-0.070,-0.070
6761,-0.070,-0.070
6762,-0.070,-0.060
6763,-0.040,-0.060
6764,-0.050,-0.060
6765,-0.040,-0.050
6766,-0.010,-0.050
6767,-0.020,-0.040
6768,-0.020,-0.060
6769,0.040,-0.040
6770,0.010,-0.040
6771,0.060,-0.030
6772,0.040,-0.030
6773,0.050,-0.010
6774,0.110,-0.020
6775,0.120,-0.010
6776,0.100,0.000
6777,0.160,0.000
6778,0.160,0.010
6779,0.170,0.000
6780,0.220,0.010
6781,0.190,0.000
6782,0.220,0.000
6783,0.240,-0.010
6784,0.180,-0.030
6785,0.200,-0.060
6786,0.170,-0.080
6787,0.130,-0.090
6788,0.160,-0.130
6789,0.140,-0.150
6790,0.110,-0.150
6791,0.140,-0.140
6792,0.170,-0.140
6793,0.160,-0.130
6794,0.170,-0.120
6795,0.160,-0.110
6796,0.180,-0.120
6797,0.180,-0.100
6798,0.150,-0.100
6799,0.170,-0.110
6800,0.140,-0.110
6801,0.150,-0.110
6802,0.160,-0.130
6803,0.150,-0.110
