'sample interval','ECG0','ECG1'
'0.0078125 sec','mV','mV'
0,-0.305,-0.015
1,-0.305,-0.025
2,-0.345,-0.005
3,-0.285,-0.035
4,-0.255,-0.015
5,-0.235,-0.015
6,-0.245,-0.025
7,-0.215,-0.025
8,-0.235,-0.035
9,-0.205,-0.045
10,-0.185,-0.055
11,-0.175,-0.055
12,-0.145,-0.065
13,-0.105,-0.055
14,-0.095,-0.055
15,-0.055,-0.065
16,-0.045,-0.075
17,0.005,-0.075
18,0.035,-0.065
19,0.065,-0.085
20,0.085,-0.115
21,0.125,-0.095
22,0.135,-0.095
23,0.195,-0.125
24,0.215,-0.125
25,0.225,-0.115
26,0.105,-0.115
27,0.075,-0.135
28,0.025,-0.125
29,-0.045,-0.095
30,-0.075,-0.085
31,-0.115,-0.085
32,-0.165,-0.075
33,-0.175,-0.065
34,-0.215,-0.045
35,-0.195,-0.065
36,-0.215,-0.075
37,-0.195,-0.055
38,-0.175,-0.035
39,-0.215,-0.055
40,-0.225,-0.065
41,-0.205,-0.055
42,-0.235,-0.065
43,-0.175,-0.065
44,-0.185,-0.055
45,-0.205,-0.055
46,-0.175,-0.065
47,-0.235,-0.055
48,-0.195,-0.065
49,-0.195,-0.055
50,-0.225,-0.055
51,-0.215,-0.055
52,-0.225,-0.085
53,-0.195,-0.065
54,-0.185,-0.055
55,-0.255,-0.065
56,-0.235,-0.095
57,-0.215,-0.065
58,-0.165,-0.055
59,-0.215,-0.065
60,-0.215,-0.075
61,-0.205,-0.075
62,-0.185,-0.065
63,-0.225,-0.065
64,-0.215,-0.085
65,-0.205,-0.085
66,-0.165,-0.055
67,-0.205,-0.075
68,-0.205,-0.095
69,-0.145,-0.065
70,-0.195,-0.045
71,-0.205,-0.075
72,-0.225,-0.075
73,-0.215,-0.095
74,-0.175,-0.065
75,-0.195,-0.065
76,-0.185,-0.075
77,-0.175,-0.065
78,-0.145,-0.065
79,-0.075,-0.055
80,-0.175,-0.065
81,-0.215,-0.075
82,-0.145,-0.055
83,-0.155,-0.045
84,-0.025,-0.085
85,-0.075,-0.085
86,-0.125,-0.105
87,-0.165,-0.125
88,-0.145,-0.065
89,-0.215,-0.135
90,-0.215,-0.105
91,-0.185,0.045
92,-0.105,0.025
93,-0.125,-0.065
94,-0.185,-0.085
95,-0.195,-0.095
96,-0.195,-0.075
97,-0.185,-0.095
98,-0.145,0.015
99,-0.215,0.005
100,-0.895,0.175
101,-0.935,0.255
102,0.185,0.085
103,2.145,-0.085
104,3.095,-0.415
105,3.165,-0.385
106,2.775,-0.135
107,0.765,-0.595
108,-0.405,-0.735
109,-0.305,-0.325
110,-0.115,0.105
111,-0.275,0.035
112,-0.355,0.005
113,-0.355,0.075
114,-0.275,0.035
115,-0.325,-0.065
116,-0.295,0.035
117,-0.285,0.055
118,-0.335,0.025
119,-0.325,-0.025
120,-0.275,0.085
121,-0.245,0.035
122,-0.285,0.035
123,-0.255,0.055
124,-0.165,0.155
125,-0.175,0.045
126,-0.165,-0.045
127,-0.175,0.115
128,-0.085,0.015
129,-0.035,-0.045
130,-0.015,-0.035
131,0.015,0.015
132,-0.075,-0.005
133,-0.015,-0.015
134,0.095,-0.005
135,0.115,0.015
136,0.105,-0.025
137,0.155,-0.005
138,0.215,-0.045
139,0.205,-0.055
140,0.225,0.025
141,0.235,-0.045
142,0.145,-0.115
143,0.115,-0.105
144,0.075,-0.045
145,0.085,-0.125
146,-0.035,-0.105
147,-0.135,-0.095
148,-0.175,-0.085
149,-0.195,-0.075
150,-0.185,-0.045
151,-0.175,-0.065
152,-0.245,-0.105
153,-0.155,0.025
154,-0.145,-0.055
155,-0.185,-0.075
156,-0.195,-0.095
157,-0.185,0.005
158,-0.155,-0.015
159,-0.165,-0.095
160,-0.215,-0.045
161,-0.185,-0.045
162,-0.145,-0.075
163,-0.185,-0.085
164,-0.195,-0.075
165,-0.185,-0.055
166,-0.145,-0.045
167,-0.205,-0.075
168,-0.225,-0.115
169,-0.205,0.005
170,-0.165,-0.085
171,-0.205,-0.065
172,-0.205,-0.085
173,-0.205,-0.085
174,-0.165,-0.065
175,-0.185,-0.075
176,-0.215,-0.085
177,-0.155,-0.115
178,-0.225,-0.075
179,-0.215,-0.065
180,-0.175,-0.035
181,-0.145,-0.125
182,-0.215,-0.105
183,-0.175,-0.025
184,-0.165,-0.065
185,-0.155,-0.125
186,-0.185,-0.105
187,-0.215,-0.095
188,-0.135,-0.085
189,-0.135,-0.085
190,-0.185,-0.085
191,-0.175,-0.045
192,-0.135,-0.105
193,-0.175,-0.105
194,-0.175,-0.085
195,-0.175,-0.055
196,-0.155,-0.065
197,-0.165,-0.105
198,-0.135,-0.095
199,-0.145,-0.075
200,-0.165,-0.095
201,-0.165,-0.095
202,-0.155,-0.065
203,-0.105,-0.055
204,-0.175,-0.055
205,-0.125,-0.095
206,-0.015,-0.105
207,-0.145,-0.085
208,-0.225,-0.095
209,-0.185,-0.085
210,-0.105,-0.095
211,-0.045,-0.055
212,-0.095,-0.015
213,-0.025,-0.105
214,-0.055,-0.095
215,-0.065,-0.085
216,-0.065,-0.125
217,-0.155,-0.125
218,-0.065,-0.095
219,-0.125,-0.055
220,-0.095,-0.075
221,-0.085,-0.105
222,-0.155,-0.085
223,-0.175,-0.075
224,-0.135,-0.075
225,-0.155,-0.095
226,-0.145,-0.085
227,-0.075,-0.085
228,-0.195,-0.035
229,-0.825,0.155
230,-0.865,0.255
231,0.175,0.135
232,2.085,-0.095
233,3.055,-0.445
234,3.205,-0.355
235,2.725,-0.175
236,0.525,-0.685
237,-0.455,-0.705
238,-0.125,0.085
239,-0.015,0.055
240,-0.285,-0.155
241,-0.375,0.075
242,-0.345,0.045
243,-0.245,0.015
244,-0.335,0.315
245,-0.385,0.405
246,-0.375,-0.165
247,-0.175,0.135
248,-0.285,0.115
249,-0.215,-0.205
250,-0.235,-0.135
251,-0.255,-0.085
252,-0.145,0.075
253,-0.145,-0.065
254,-0.265,0.055
255,-0.225,0.045
256,-0.045,0.235
257,-0.165,-0.055
258,-0.055,0.185
259,0.035,-0.035
260,0.035,-0.285
261,0.025,-0.135
262,0.065,0.055
263,0.065,-0.145
264,0.045,-0.075
265,0.235,0.235
266,0.255,-0.145
267,0.235,-0.175
268,0.245,-0.165
269,0.235,-0.205
270,0.175,-0.185
271,0.165,0.005
272,0.045,-0.085
273,0.015,-0.195
274,0.095,0.145
275,-0.005,-0.275
276,-0.095,-0.215
277,-0.125,-0.065
278,-0.145,-0.085
279,-0.205,-0.085
280,-0.145,0.095
281,-0.075,-0.015
282,-0.145,-0.205
283,-0.165,0.135
284,-0.125,0.055
285,-0.175,-0.405
286,-0.075,-0.215
287,-0.115,-0.105
288,-0.185,-0.085
289,-0.205,-0.045
290,-0.125,-0.065
291,-0.155,-0.065
292,-0.155,-0.075
293,-0.165,-0.085
294,-0.125,-0.005
295,-0.105,-0.045
296,-0.165,-0.185
297,-0.145,-0.135
298,-0.115,0.035
299,-0.155,-0.205
300,-0.175,-0.195
301,-0.155,-0.095
302,-0.155,-0.075
303,-0.125,-0.075
304,-0.125,-0.135
305,-0.135,-0.095
306,-0.155,-0.075
307,-0.135,-0.065
308,-0.115,-0.125
309,-0.165,-0.135
310,-0.065,-0.045
311,-0.115,-0.135
312,-0.095,-0.175
313,-0.105,-0.145
314,-0.135,-0.125
315,-0.135,-0.105
316,-0.125,-0.105
317,-0.115,-0.095
318,-0.145,-0.095
319,-0.135,-0.115
320,-0.165,-0.115
321,-0.135,-0.115
322,-0.115,-0.135
323,-0.105,-0.135
324,-0.095,-0.165
325,-0.145,-0.085
326,-0.155,-0.045
327,-0.105,-0.145
328,-0.185,-0.125
329,-0.165,-0.055
330,-0.125,-0.095
331,-0.125,-0.105
332,-0.115,-0.115
333,-0.155,-0.105
334,-0.095,-0.105
335,-0.125,-0.125
336,-0.125,-0.135
337,-0.085,-0.095
338,0.025,-0.075
339,-0.065,-0.105
340,-0.035,-0.095
341,-0.035,-0.125
342,-0.075,-0.125
343,-0.095,-0.095
344,-0.075,-0.125
345,-0.105,-0.125
346,-0.135,-0.105
347,-0.125,-0.085
348,-0.145,-0.085
349,-0.135,-0.125
350,-0.115,-0.105
351,-0.175,-0.105
352,0.025,-0.185
353,-0.085,-0.155
354,-0.235,-0.005
355,-0.775,0.135
356,-1.055,0.145
357,-0.275,0.025
358,1.715,-0.215
359,2.985,-0.345
360,3.045,-0.295
361,2.725,0.005
362,0.815,-0.025
363,-0.355,-0.675
364,-0.345,-0.405
365,-0.185,-0.155
366,-0.235,-0.025
367,-0.315,-0.065
368,-0.335,-0.095
369,-0.305,-0.075
370,-0.295,-0.065
371,-0.315,-0.065
372,-0.295,-0.055
373,-0.275,-0.055
374,-0.255,-0.035
375,-0.265,-0.075
376,-0.235,-0.095
377,-0.245,-0.065
378,-0.215,-0.075
379,-0.205,-0.085
380,-0.195,-0.095
381,-0.175,-0.135
382,-0.155,-0.105
383,-0.135,-0.055
384,-0.155,-0.095
385,-0.045,-0.135
386,-0.035,-0.075
387,-0.025,-0.115
388,0.015,-0.115
389,0.035,-0.125
390,0.095,-0.105
391,0.115,-0.135
392,0.125,-0.175
393,0.125,-0.155
394,0.205,-0.165
395,0.165,-0.135
396,0.165,-0.145
397,0.125,-0.115
398,0.085,-0.135
399,0.025,-0.135
400,-0.045,-0.135
401,-0.075,-0.095
402,-0.165,-0.055
403,-0.175,-0.075
404,-0.245,-0.085
405,-0.275,-0.055
406,-0.235,-0.065
407,-0.235,-0.075
408,-0.255,-0.055
409,-0.245,-0.065
410,-0.265,-0.075
411,-0.225,-0.065
412,-0.265,-0.065
413,-0.235,-0.065
414,-0.225,-0.055
415,-0.265,-0.035
416,-0.275,-0.065
417,-0.215,-0.055
418,-0.215,-0.075
419,-0.235,-0.045
420,-0.265,-0.065
421,-0.215,-0.075
422,-0.235,-0.065
423,-0.265,-0.065
424,-0.255,-0.065
425,-0.245,-0.065
426,-0.245,-0.075
427,-0.245,-0.075
428,-0.255,-0.085
429,-0.275,-0.075
430,-0.215,-0.075
431,-0.225,-0.085
432,-0.245,-0.085
433,-0.265,-0.075
434,-0.255,-0.075
435,-0.235,-0.065
436,-0.255,-0.075
437,-0.245,-0.085
438,-0.245,-0.085
439,-0.225,-0.075
440,-0.245,-0.085
441,-0.205,-0.085
442,-0.215,-0.075
443,-0.215,-0.095
444,-0.225,-0.085
445,-0.235,-0.085
446,-0.225,-0.055
447,-0.175,-0.095
448,-0.145,-0.075
449,-0.155,-0.045
450,-0.085,-0.095
451,-0.115,-0.085
452,-0.125,-0.095
453,-0.185,-0.125
454,-0.165,-0.095
455,-0.185,-0.105
456,-0.165,-0.085
457,-0.195,-0.085
458,-0.225,-0.075
459,-0.235,-0.085
460,-0.225,-0.095
461,-0.225,-0.065
462,-0.215,-0.075
463,-0.185,-0.085
464,-0.155,-0.055
465,-0.445,-0.005
466,-1.125,0.175
467,-0.845,0.185
468,0.675,0.035
469,2.565,-0.105
470,3.195,-0.335
471,3.045,-0.355
472,2.305,-0.055
473,0.185,-0.325
474,-0.485,-0.545
475,-0.305,-0.245
476,-0.225,-0.055
477,-0.325,-0.005
478,-0.345,-0.025
479,-0.345,-0.025
480,-0.355,-0.015
481,-0.355,-0.005
482,-0.315,-0.015
483,-0.335,-0.015
484,-0.305,-0.005
485,-0.295,-0.005
486,-0.285,0.005
487,-0.285,-0.015
488,-0.225,-0.015
489,-0.225,-0.005
490,-0.205,0.005
491,-0.185,-0.025
492,-0.195,-0.025
493,-0.145,-0.005
494,-0.125,0.005
495,-0.095,-0.005
496,-0.055,-0.005
497,-0.015,-0.025
498,0.035,-0.015
499,0.095,-0.015
500,0.105,-0.025
501,0.155,-0.055
502,0.225,-0.065
503,0.225,-0.055
504,0.245,-0.075
505,0.235,-0.075
506,0.215,-0.085
507,0.205,-0.095
508,0.115,-0.095
509,0.015,-0.085
510,-0.015,-0.075
511,-0.135,-0.065
512,-0.185,-0.095
513,-0.235,-0.065
514,-0.255,-0.055
515,-0.285,-0.045
516,-0.295,-0.055
517,-0.285,-0.045
518,-0.285,-0.035
519,-0.315,-0.045
520,-0.295,-0.065
521,-0.275,-0.045
522,-0.265,-0.045
523,-0.265,-0.045
524,-0.265,-0.055
525,-0.235,-0.045
526,-0.255,-0.035
527,-0.255,-0.045
528,-0.235,-0.045
529,-0.235,-0.055
530,-0.235,-0.045
531,-0.235,-0.055
532,-0.265,-0.065
533,-0.235,-0.055
534,-0.245,-0.045
535,-0.255,-0.035
536,-0.255,-0.055
537,-0.255,-0.045
538,-0.235,-0.045
539,-0.235,-0.035
540,-0.255,-0.065
541,-0.225,-0.065
542,-0.215,-0.055
543,-0.225,-0.045
544,-0.235,-0.055
545,-0.225,-0.055
546,-0.195,-0.045
547,-0.155,-0.025
548,-0.145,-0.015
549,-0.125,-0.015
550,-0.105,-0.065
551,-0.105,-0.065
552,-0.155,-0.075
553,-0.165,-0.095
554,-0.195,-0.075
555,-0.185,-0.065
556,-0.185,-0.055
557,-0.195,-0.045
558,-0.215,-0.045
559,-0.225,-0.055
560,-0.235,-0.045
561,-0.225,-0.055
562,-0.215,-0.035
563,-0.195,-0.025
564,-0.185,-0.045
565,-0.425,0.015
566,-1.045,0.245
567,-0.775,0.245
568,0.715,0.125
569,2.615,-0.015
570,3.235,-0.365
571,3.215,-0.365
572,2.205,-0.255
573,0.095,-0.665
574,-0.415,-0.435
575,-0.185,-0.085
576,-0.235,0.035
577,-0.325,0.025
578,-0.365,-0.005
579,-0.385,0.015
580,-0.365,0.035
581,-0.335,0.045
582,-0.355,0.045
583,-0.315,0.025
584,-0.325,0.035
585,-0.315,0.045
586,-0.275,0.065
587,-0.255,0.045
588,-0.245,0.045
589,-0.235,0.065
590,-0.195,0.065
591,-0.175,0.065
592,-0.175,0.055
593,-0.155,0.065
594,-0.125,0.055
595,-0.105,0.045
596,-0.045,0.065
597,-0.005,0.065
598,0.035,0.065
599,0.065,0.065
600,0.135,0.065
601,0.165,0.055
602,0.245,0.045
603,0.245,0.035
604,0.275,0.005
605,0.265,-0.005
606,0.265,-0.015
607,0.205,-0.035
608,0.105,-0.055
609,0.045,-0.055
610,-0.035,-0.045
611,-0.135,-0.065
612,-0.185,-0.075
613,-0.205,-0.055
614,-0.225,-0.055
615,-0.265,-0.055
616,-0.235,-0.065
617,-0.255,-0.055
618,-0.245,-0.045
619,-0.265,-0.045
620,-0.265,-0.055
621,-0.265,-0.035
622,-0.235,-0.035
623,-0.255,-0.055
624,-0.245,-0.055
625,-0.265,-0.055
626,-0.235,-0.045
627,-0.225,-0.045
628,-0.255,-0.035
629,-0.225,-0.055
630,-0.225,-0.065
631,-0.255,-0.055
632,-0.235,-0.065
633,-0.235,-0.065
634,-0.225,-0.065
635,-0.245,-0.055
636,-0.255,-0.065
637,-0.225,-0.065
638,-0.225,-0.055
639,-0.235,-0.055
640,-0.225,-0.065
641,-0.225,-0.055
642,-0.225,-0.055
643,-0.225,-0.065
644,-0.235,-0.075
645,-0.215,-0.065
646,-0.165,-0.055
647,-0.145,-0.025
648,-0.135,-0.025
649,-0.125,-0.035
650,-0.095,-0.075
651,-0.095,-0.065
652,-0.155,-0.075
653,-0.175,-0.095
654,-0.175,-0.085
655,-0.175,-0.085
656,-0.175,-0.075
657,-0.185,-0.075
658,-0.205,-0.065
659,-0.245,-0.075
660,-0.215,-0.065
661,-0.225,-0.065
662,-0.215,-0.055
663,-0.205,-0.055
664,-0.165,-0.055
665,-0.225,-0.035
666,-0.845,0.175
667,-1.025,0.255
668,0.235,0.135
669,2.335,0.015
670,3.175,-0.375
671,3.195,-0.335
672,2.575,-0.255
673,0.405,-0.675
674,-0.335,-0.505
675,-0.165,-0.125
676,-0.175,0.005
677,-0.285,0.005
678,-0.355,0.005
679,-0.335,0.015
680,-0.365,0.025
681,-0.345,0.015
682,-0.325,0.025
683,-0.335,0.025
684,-0.285,0.025
685,-0.305,0.045
686,-0.265,0.045
687,-0.255,0.055
688,-0.225,0.025
689,-0.215,0.025
690,-0.215,0.045
691,-0.175,0.055
692,-0.175,0.045
693,-0.125,0.055
694,-0.095,0.065
695,-0.105,0.065
696,-0.075,0.045
697,-0.025,0.075
698,0.025,0.045
699,0.045,0.055
700,0.085,0.045
701,0.145,0.045
702,0.175,0.045
703,0.215,0.025
704,0.225,0.005
705,0.255,-0.015
706,0.265,-0.025
707,0.215,-0.045
708,0.155,-0.065
709,0.075,-0.075
710,-0.025,-0.065
711,-0.065,-0.075
712,-0.125,-0.095
713,-0.175,-0.085
714,-0.205,-0.075
715,-0.225,-0.065
716,-0.235,-0.075
717,-0.245,-0.075
718,-0.205,-0.065
719,-0.235,-0.075
720,-0.235,-0.075
721,-0.205,-0.085
722,-0.235,-0.045
723,-0.245,-0.075
724,-0.245,-0.085
725,-0.225,-0.065
726,-0.245,-0.065
727,-0.235,-0.065
728,-0.245,-0.055
729,-0.225,-0.085
730,-0.245,-0.085
731,-0.225,-0.085
732,-0.235,-0.085
733,-0.215,-0.075
734,-0.225,-0.065
735,-0.245,-0.085
736,-0.245,-0.095
737,-0.215,-0.085
738,-0.215,-0.065
739,-0.205,-0.085
740,-0.225,-0.105
741,-0.235,-0.105
742,-0.205,-0.085
743,-0.205,-0.095
744,-0.215,-0.085
745,-0.215,-0.085
746,-0.185,-0.085
747,-0.205,-0.085
748,-0.205,-0.085
749,-0.185,-0.095
750,-0.195,-0.075
751,-0.205,-0.075
752,-0.195,-0.085
753,-0.185,-0.115
754,-0.145,-0.075
755,-0.115,-0.075
756,-0.095,-0.065
757,-0.145,-0.055
758,-0.065,-0.105
759,-0.075,-0.095
760,-0.095,-0.105
761,-0.125,-0.115
762,-0.165,-0.085
763,-0.135,-0.095
764,-0.155,-0.095
765,-0.145,-0.085
766,-0.175,-0.075
767,-0.205,-0.105
768,-0.165,-0.095
769,-0.165,-0.075
770,-0.155,-0.065
771,-0.155,-0.085
772,-0.125,-0.095
773,-0.205,-0.055
774,-0.765,0.175
775,-0.985,0.215
776,-0.085,0.095
777,1.945,-0.005
778,3.075,-0.345
779,3.205,-0.415
780,2.775,-0.285
781,0.745,-0.615
782,-0.285,-0.625
783,-0.185,-0.225
784,-0.125,-0.035
785,-0.225,-0.015
786,-0.305,-0.015
787,-0.325,-0.015
788,-0.325,-0.015
789,-0.295,-0.005
790,-0.305,0.005
791,-0.275,0.005
792,-0.285,-0.005
793,-0.265,-0.005
794,-0.255,0.005
795,-0.235,0.005
796,-0.235,0.005
797,-0.205,0.005
798,-0.175,0.025
799,-0.175,0.015
800,-0.155,0.005
801,-0.135,0.005
802,-0.105,0.005
803,-0.085,0.005
804,-0.065,0.005
805,-0.065,0.005
806,0.025,0.005
807,0.055,-0.005
808,0.095,-0.015
809,0.125,-0.005
810,0.185,-0.005
811,0.205,-0.025
812,0.215,-0.045
813,0.245,-0.045
814,0.255,-0.055
815,0.235,-0.085
816,0.185,-0.095
817,0.125,-0.105
818,0.045,-0.115
819,-0.005,-0.115
820,-0.065,-0.115
821,-0.115,-0.115
822,-0.155,-0.095
823,-0.175,-0.095
824,-0.215,-0.105
825,-0.185,-0.095
826,-0.205,-0.095
827,-0.205,-0.095
828,-0.205,-0.105
829,-0.185,-0.095
830,-0.195,-0.085
831,-0.215,-0.095
832,-0.195,-0.095
833,-0.205,-0.085
834,-0.225,-0.085
835,-0.195,-0.085
836,-0.205,-0.095
837,-0.215,-0.095
838,-0.225,-0.095
839,-0.205,-0.085
840,-0.215,-0.105
841,-0.205,-0.115
842,-0.195,-0.105
843,-0.225,-0.105
844,-0.205,-0.115
845,-0.205,-0.115
846,-0.205,-0.095
847,-0.205,-0.115
848,-0.205,-0.115
849,-0.205,-0.105
850,-0.205,-0.105
851,-0.205,-0.105
852,-0.205,-0.105
853,-0.205,-0.115
854,-0.195,-0.115
855,-0.175,-0.115
856,-0.195,-0.115
857,-0.195,-0.115
858,-0.175,-0.105
859,-0.185,-0.105
860,-0.185,-0.125
861,-0.185,-0.115
862,-0.215,-0.095
863,-0.155,-0.115
864,-0.185,-0.115
865,-0.195,-0.115
866,-0.155,-0.105
867,-0.185,-0.125
868,-0.185,-0.115
869,-0.145,-0.115
870,-0.105,-0.085
871,-0.105,-0.085
872,-0.115,-0.085
873,-0.025,-0.145
874,-0.055,-0.125
875,-0.105,-0.135
876,-0.155,-0.135
877,-0.155,-0.125
878,-0.145,-0.115
879,-0.125,-0.105
880,-0.185,-0.115
881,-0.165,-0.105
882,-0.205,-0.095
883,-0.155,-0.115
884,-0.175,-0.115
885,-0.165,-0.105
886,-0.145,-0.095
887,-0.125,-0.095
888,-0.285,-0.045
889,-0.925,0.165
890,-0.785,0.185
891,0.485,0.005
892,2.425,-0.135
893,3.175,-0.465
894,3.165,-0.385
895,2.365,-0.255
896,0.215,-0.715
897,-0.365,-0.515
898,-0.155,-0.155
899,-0.155,-0.025
900,-0.305,-0.035
901,-0.305,-0.035
902,-0.325,-0.035
903,-0.345,-0.025
904,-0.295,-0.015
905,-0.295,-0.015
906,-0.295,-0.005
907,-0.255,-0.005
908,-0.255,-0.005
909,-0.255,-0.005
910,-0.225,0.005
911,-0.205,-0.005
912,-0.215,-0.005
913,-0.165,-0.005
914,-0.165,0.005
915,-0.155,-0.015
916,-0.155,-0.015
917,-0.105,-0.005
918,-0.085,-0.015
919,-0.055,-0.005
920,-0.035,-0.005
921,-0.025,-0.015
922,0.025,-0.015
923,0.035,-0.025
924,0.095,-0.025
925,0.135,-0.035
926,0.165,-0.035
927,0.185,-0.055
928,0.205,-0.075
929,0.185,-0.085
930,0.205,-0.085
931,0.125,-0.105
932,0.075,-0.125
933,0.015,-0.125
934,-0.035,-0.105
935,-0.115,-0.105
936,-0.145,-0.105
937,-0.175,-0.085
938,-0.225,-0.085
939,-0.185,-0.095
940,-0.215,-0.095
941,-0.215,-0.095
942,-0.195,-0.085
943,-0.235,-0.075
944,-0.195,-0.095
945,-0.215,-0.085
946,-0.225,-0.085
947,-0.215,-0.075
948,-0.235,-0.075
949,-0.215,-0.075
950,-0.205,-0.065
951,-0.235,-0.075
952,-0.235,-0.085
953,-0.255,-0.075
954,-0.225,-0.075
955,-0.245,-0.095
956,-0.235,-0.095
957,-0.235,-0.075
958,-0.235,-0.065
959,-0.235,-0.095
960,-0.235,-0.105
961,-0.235,-0.085
962,-0.245,-0.085
963,-0.255,-0.095
964,-0.225,-0.085
965,-0.225,-0.085
966,-0.235,-0.085
967,-0.225,-0.085
968,-0.225,-0.085
969,-0.245,-0.095
970,-0.215,-0.085
971,-0.245,-0.085
972,-0.235,-0.095
973,-0.225,-0.085
974,-0.215,-0.085
975,-0.205,-0.085
976,-0.215,-0.085
977,-0.215,-0.095
978,-0.205,-0.085
979,-0.235,-0.095
980,-0.205,-0.095
981,-0.205,-0.085
982,-0.215,-0.085
983,-0.215,-0.085
984,-0.205,-0.095
985,-0.195,-0.085
986,-0.195,-0.075
987,-0.215,-0.095
988,-0.195,-0.095
989,-0.215,-0.085
990,-0.155,-0.075
991,-0.145,-0.085
992,-0.105,-0.055
993,-0.145,-0.035
994,-0.065,-0.085
995,-0.085,-0.105
996,-0.115,-0.095
997,-0.165,-0.105
998,-0.165,-0.105
999,-0.155,-0.095
1000,-0.165,-0.085
1001,-0.185,-0.075
1002,-0.185,-0.065
1003,-0.205,-0.085
1004,-0.205,-0.085
1005,-0.195,-0.075
1006,-0.195,-0.065
1007,-0.185,-0.075
1008,-0.155,-0.085
1009,-0.205,-0.065
1010,-0.675,0.135
1011,-1.045,0.205
1012,-0.225,0.085
1013,1.615,-0.035
1014,2.925,-0.285
1015,3.135,-0.405
1016,2.885,-0.215
1017,1.165,-0.335
1018,-0.255,-0.655
1019,-0.305,-0.285
1020,-0.185,-0.075
1021,-0.255,-0.005
1022,-0.335,-0.005
1023,-0.345,-0.005
1024,-0.375,-0.015
1025,-0.355,-0.005
1026,-0.345,0.005
1027,-0.345,0.005
1028,-0.335,0.005
1029,-0.315,0.025
1030,-0.305,0.025
1031,-0.285,0.025
1032,-0.275,0.025
1033,-0.245,0.005
1034,-0.245,0.035
1035,-0.215,0.025
1036,-0.225,0.015
1037,-0.195,0.015
1038,-0.185,0.025
1039,-0.175,0.025
1040,-0.155,0.015
1041,-0.115,0.005
1042,-0.095,0.005
1043,-0.035,0.015
1044,-0.035,0.005
1045,0.005,-0.005
1046,0.065,0.005
1047,0.065,-0.045
1048,0.075,-0.045
1049,0.095,-0.045
1050,0.115,-0.055
1051,0.095,-0.075
1052,0.075,-0.105
1053,0.015,-0.095
1054,-0.015,-0.085
1055,-0.095,-0.075
1056,-0.115,-0.105
1057,-0.195,-0.095
1058,-0.215,-0.055
1059,-0.225,-0.075
1060,-0.255,-0.075
1061,-0.295,-0.085
1062,-0.215,-0.065
1063,-0.265,-0.055
1064,-0.275,-0.075
1065,-0.265,-0.065
1066,-0.255,-0.045
1067,-0.265,-0.065
1068,-0.265,-0.065
1069,-0.265,-0.055
1070,-0.275,-0.055
1071,-0.275,-0.065
1072,-0.285,-0.065
1073,-0.255,-0.075
1074,-0.275,-0.045
1075,-0.265,-0.055
1076,-0.275,-0.065
1077,-0.265,-0.065
1078,-0.275,-0.055
1079,-0.275,-0.065
1080,-0.275,-0.075
1081,-0.275,-0.075
1082,-0.255,-0.055
1083,-0.275,-0.065
1084,-0.285,-0.075
1085,-0.275,-0.085
1086,-0.265,-0.065
1087,-0.265,-0.075
1088,-0.265,-0.085
1089,-0.255,-0.065
1090,-0.245,-0.065
1091,-0.245,-0.075
1092,-0.265,-0.085
1093,-0.265,-0.065
1094,-0.255,-0.065
1095,-0.255,-0.075
1096,-0.235,-0.085
1097,-0.235,-0.075
1098,-0.235,-0.065
1099,-0.235,-0.075
1100,-0.245,-0.085
1101,-0.225,-0.075
1102,-0.215,-0.065
1103,-0.215,-0.075
1104,-0.215,-0.065
1105,-0.225,-0.065
1106,-0.215,-0.085
1107,-0.225,-0.075
1108,-0.205,-0.075
1109,-0.135,-0.055
1110,-0.145,-0.025
1111,-0.125,-0.065
1112,-0.075,-0.095
1113,-0.125,-0.085
1114,-0.165,-0.085
1115,-0.195,-0.115
1116,-0.185,-0.105
1117,-0.185,-0.075
1118,-0.185,-0.055
1119,-0.225,-0.065
1120,-0.215,-0.085
1121,-0.225,-0.065
1122,-0.195,-0.065
1123,-0.195,-0.055
1124,-0.185,-0.055
1125,-0.155,-0.065
1126,-0.205,-0.045
1127,-0.745,0.155
1128,-1.025,0.215
1129,-0.185,0.075
1130,1.705,-0.045
1131,2.975,-0.335
1132,3.095,-0.365
1133,2.655,-0.185
1134,0.665,-0.545
1135,-0.365,-0.595
1136,-0.245,-0.195
1137,-0.175,-0.035
1138,-0.255,-0.005
1139,-0.325,-0.015
1140,-0.325,-0.005
1141,-0.335,0.015
1142,-0.335,0.005
1143,-0.325,0.005
1144,-0.315,0.005
1145,-0.295,0.005
1146,-0.275,0.015
1147,-0.255,0.025
1148,-0.255,0.025
1149,-0.225,0.025
1150,-0.215,0.035
1151,-0.205,0.025
1152,-0.175,0.015
1153,-0.155,0.025
1154,-0.135,0.025
1155,-0.145,0.015
1156,-0.085,0.005
1157,-0.065,0.025
1158,-0.045,0.025
1159,-0.015,-0.005
1160,0.015,-0.005
1161,0.065,-0.005
1162,0.095,0.005
1163,0.105,-0.005
1164,0.145,-0.025
1165,0.155,-0.035
1166,0.185,-0.035
1167,0.185,-0.085
1168,0.155,-0.095
1169,0.085,-0.085
1170,0.085,-0.075
1171,0.015,-0.075
1172,-0.055,-0.075
1173,-0.105,-0.075
1174,-0.125,-0.065
1175,-0.165,-0.065
1176,-0.185,-0.055
1177,-0.195,-0.045
1178,-0.205,-0.035
1179,-0.205,-0.055
1180,-0.205,-0.055
1181,-0.215,-0.045
1182,-0.195,-0.035
1183,-0.215,-0.025
1184,-0.225,-0.045
1185,-0.215,-0.055
1186,-0.215,-0.045
1187,-0.205,-0.045
1188,-0.205,-0.055
1189,-0.205,-0.045
1190,-0.195,-0.025
1191,-0.185,-0.045
1192,-0.205,-0.025
1193,-0.205,-0.055
1194,-0.205,-0.065
1195,-0.185,-0.065
1196,-0.205,-0.065
1197,-0.175,-0.055
1198,-0.195,-0.045
1199,-0.195,-0.055
1200,-0.195,-0.055
1201,-0.185,-0.055
1202,-0.185,-0.055
1203,-0.185,-0.055
1204,-0.185,-0.075
1205,-0.175,-0.065
1206,-0.185,-0.055
1207,-0.175,-0.055
1208,-0.185,-0.065
1209,-0.165,-0.065
1210,-0.165,-0.035
1211,-0.165,-0.055
1212,-0.165,-0.085
1213,-0.165,-0.075
1214,-0.145,-0.055
1215,-0.145,-0.055
1216,-0.155,-0.065
1217,-0.155,-0.065
1218,-0.145,-0.055
1219,-0.145,-0.055
1220,-0.145,-0.055
1221,-0.135,-0.055
1222,-0.135,-0.065
1223,-0.135,-0.065
1224,-0.135,-0.075
1225,-0.135,-0.075
1226,-0.075,-0.045
1227,-0.045,-0.045
1228,-0.075,-0.025
1229,-0.035,-0.035
1230,0.005,-0.075
1231,-0.055,-0.095
1232,-0.105,-0.105
1233,-0.105,-0.085
1234,-0.085,-0.075
1235,-0.095,-0.065
1236,-0.125,-0.065
1237,-0.125,-0.065
1238,-0.125,-0.055
1239,-0.125,-0.055
1240,-0.145,-0.065
1241,-0.125,-0.055
1242,-0.115,-0.035
1243,-0.095,-0.055
1244,-0.245,0.015
1245,-0.895,0.205
1246,-0.735,0.175
1247,0.625,-0.035
1248,2.475,-0.165
1249,3.175,-0.375
1250,2.985,-0.225
1251,2.145,-0.095
1252,0.225,-0.655
1253,-0.335,-0.485
1254,-0.145,-0.125
1255,-0.165,-0.015
1256,-0.255,-0.005
1257,-0.285,-0.005
1258,-0.285,-0.005
1259,-0.265,-0.005
1260,-0.245,-0.005
1261,-0.235,0.015
1262,-0.235,0.005
1263,-0.225,0.015
1264,-0.205,0.005
1265,-0.205,0.015
1266,-0.195,0.015
1267,-0.175,-0.005
1268,-0.155,-0.015
1269,-0.125,-0.015
1270,-0.115,-0.005
1271,-0.105,-0.015
1272,-0.075,-0.015
1273,-0.055,-0.015
1274,-0.035,-0.025
1275,-0.025,-0.035
1276,0.025,-0.045
1277,0.055,-0.045
1278,0.085,-0.035
1279,0.115,-0.045
1280,0.155,-0.075
1281,0.185,-0.075
1282,0.205,-0.085
1283,0.225,-0.095
1284,0.235,-0.105
1285,0.235,-0.115
1286,0.215,-0.105
1287,0.165,-0.125
1288,0.115,-0.115
1289,0.035,-0.105
1290,0.015,-0.085
1291,-0.065,-0.075
1292,-0.095,-0.075
1293,-0.125,-0.075
1294,-0.135,-0.055
1295,-0.145,-0.055
1296,-0.145,-0.065
1297,-0.155,-0.045
1298,-0.155,-0.045
1299,-0.165,-0.055
1300,-0.155,-0.065
1301,-0.175,-0.055
1302,-0.145,-0.045
1303,-0.165,-0.045
1304,-0.165,-0.055
1305,-0.165,-0.055
1306,-0.155,-0.055
1307,-0.155,-0.055
1308,-0.155,-0.045
1309,-0.155,-0.055
1310,-0.165,-0.055
1311,-0.165,-0.065
1312,-0.175,-0.075
1313,-0.165,-0.065
1314,-0.185,-0.045
1315,-0.155,-0.055
1316,-0.185,-0.065
1317,-0.185,-0.065
1318,-0.155,-0.055
1319,-0.155,-0.065
1320,-0.165,-0.085
1321,-0.155,-0.075
1322,-0.165,-0.045
1323,-0.165,-0.065
1324,-0.175,-0.075
1325,-0.165,-0.065
1326,-0.125,-0.065
1327,-0.155,-0.065
1328,-0.145,-0.075
1329,-0.145,-0.065
1330,-0.145,-0.065
1331,-0.135,-0.075
1332,-0.155,-0.065
1333,-0.155,-0.075
1334,-0.145,-0.065
1335,-0.145,-0.075
1336,-0.165,-0.085
1337,-0.125,-0.075
1338,-0.115,-0.065
1339,-0.115,-0.065
1340,-0.135,-0.075
1341,-0.115,-0.075
1342,-0.105,-0.065
1343,-0.125,-0.075
1344,-0.125,-0.095
1345,-0.115,-0.085
1346,-0.065,-0.055
1347,-0.035,-0.035
1348,-0.045,-0.065
1349,0.045,-0.105
1350,-0.015,-0.095
1351,-0.075,-0.115
1352,-0.105,-0.105
1353,-0.085,-0.095
1354,-0.085,-0.065
1355,-0.095,-0.075
1356,-0.135,-0.085
1357,-0.135,-0.075
1358,-0.115,-0.065
1359,-0.135,-0.075
1360,-0.135,-0.095
1361,-0.095,-0.065
1362,-0.075,-0.055
1363,-0.145,-0.055
1364,-0.785,0.155
1365,-0.905,0.135
1366,0.275,-0.095
1367,2.225,-0.245
1368,3.115,-0.275
1369,2.995,-0.155
1370,2.515,0.075
1371,0.525,-0.485
1372,-0.355,-0.635
1373,-0.225,-0.265
1374,-0.145,-0.085
1375,-0.225,-0.045
1376,-0.305,-0.055
1377,-0.265,-0.035
1378,-0.265,-0.025
1379,-0.255,-0.045
1380,-0.245,-0.045
1381,-0.235,-0.035
1382,-0.235,-0.025
1383,-0.225,-0.035
1384,-0.215,-0.045
1385,-0.165,-0.045
1386,-0.175,-0.045
1387,-0.165,-0.055
1388,-0.155,-0.065
1389,-0.135,-0.065
1390,-0.145,-0.065
1391,-0.085,-0.075
1392,-0.065,-0.095
1393,-0.045,-0.095
1394,-0.035,-0.105
1395,-0.005,-0.115
1396,0.035,-0.135
1397,0.055,-0.135
1398,0.135,-0.135
1399,0.145,-0.145
1400,0.185,-0.175
1401,0.215,-0.175
1402,0.225,-0.165
1403,0.245,-0.175
1404,0.245,-0.195
1405,0.205,-0.185
1406,0.185,-0.175
1407,0.125,-0.155
1408,0.065,-0.145
1409,0.025,-0.125
1410,-0.025,-0.105
1411,-0.115,-0.105
1412,-0.135,-0.095
1413,-0.145,-0.085
1414,-0.155,-0.065
1415,-0.185,-0.075
1416,-0.155,-0.085
1417,-0.175,-0.075
1418,-0.195,-0.055
1419,-0.165,-0.065
1420,-0.185,-0.075
1421,-0.165,-0.065
1422,-0.205,-0.065
1423,-0.155,-0.065
1424,-0.185,-0.065
1425,-0.205,-0.075
1426,-0.175,-0.055
1427,-0.185,-0.055
1428,-0.175,-0.085
1429,-0.175,-0.075
1430,-0.175,-0.065
1431,-0.175,-0.055
1432,-0.185,-0.085
1433,-0.195,-0.075
1434,-0.175,-0.055
1435,-0.185,-0.065
1436,-0.185,-0.085
1437,-0.185,-0.085
1438,-0.175,-0.055
1439,-0.185,-0.065
1440,-0.165,-0.085
1441,-0.185,-0.085
1442,-0.175,-0.085
1443,-0.195,-0.075
1444,-0.165,-0.085
1445,-0.145,-0.085
1446,-0.185,-0.075
1447,-0.175,-0.075
1448,-0.195,-0.085
1449,-0.165,-0.085
1450,-0.165,-0.075
1451,-0.185,-0.075
1452,-0.155,-0.085
1453,-0.135,-0.085
1454,-0.185,-0.075
1455,-0.125,-0.075
1456,-0.155,-0.085
1457,-0.155,-0.085
1458,-0.165,-0.095
1459,-0.155,-0.095
1460,-0.165,-0.095
1461,-0.155,-0.085
1462,-0.155,-0.075
1463,-0.025,-0.075
1464,-0.085,-0.045
1465,-0.045,-0.105
1466,-0.025,-0.075
1467,-0.075,-0.115
1468,-0.125,-0.145
1469,-0.105,-0.095
1470,-0.085,-0.095
1471,-0.085,-0.075
1472,-0.145,-0.075
1473,-0.155,-0.075
1474,-0.155,-0.095
1475,-0.165,-0.085
1476,-0.145,-0.075
1477,-0.135,-0.075
1478,-0.125,-0.065
1479,-0.135,-0.075
1480,-0.295,-0.025
1481,-0.985,0.165
1482,-0.855,0.085
1483,0.515,-0.155
1484,2.515,-0.285
1485,3.185,-0.245
1486,2.885,-0.095
1487,2.115,0.125
1488,0.205,-0.505
1489,-0.455,-0.565
1490,-0.245,-0.225
1491,-0.165,-0.075
1492,-0.245,-0.055
1493,-0.315,-0.065
1494,-0.285,-0.045
1495,-0.305,-0.045
1496,-0.285,-0.075
1497,-0.275,-0.045
1498,-0.255,-0.025
1499,-0.255,-0.035
1500,-0.255,-0.065
1501,-0.245,-0.035
1502,-0.225,-0.035
1503,-0.205,-0.055
1504,-0.175,-0.065
1505,-0.165,-0.065
1506,-0.145,-0.065
1507,-0.135,-0.065
1508,-0.125,-0.085
1509,-0.075,-0.105
1510,-0.055,-0.085
1511,-0.035,-0.105
1512,0.005,-0.125
1513,0.015,-0.125
1514,0.095,-0.115
1515,0.125,-0.125
1516,0.155,-0.145
1517,0.195,-0.145
1518,0.195,-0.145
1519,0.215,-0.165
1520,0.245,-0.175
1521,0.215,-0.175
1522,0.185,-0.155
1523,0.135,-0.155
1524,0.065,-0.145
1525,-0.015,-0.095
1526,-0.065,-0.085
1527,-0.115,-0.095
1528,-0.165,-0.075
1529,-0.195,-0.065
1530,-0.225,-0.055
1531,-0.195,-0.065
1532,-0.225,-0.065
1533,-0.225,-0.065
1534,-0.215,-0.045
1535,-0.205,-0.045
1536,-0.205,-0.055
1537,-0.205,-0.035
1538,-0.205,-0.045
1539,-0.205,-0.055
1540,-0.205,-0.065
1541,-0.215,-0.065
1542,-0.185,-0.045
1543,-0.195,-0.055
1544,-0.195,-0.065
1545,-0.195,-0.055
1546,-0.195,-0.055
1547,-0.195,-0.055
1548,-0.215,-0.055
1549,-0.205,-0.055
1550,-0.195,-0.065
1551,-0.225,-0.065
1552,-0.195,-0.065
1553,-0.195,-0.055
1554,-0.205,-0.045
1555,-0.195,-0.065
1556,-0.195,-0.065
1557,-0.195,-0.055
1558,-0.185,-0.055
1559,-0.185,-0.065
1560,-0.195,-0.075
1561,-0.185,-0.055
1562,-0.185,-0.045
1563,-0.185,-0.055
1564,-0.185,-0.065
1565,-0.175,-0.055
1566,-0.155,-0.055
1567,-0.185,-0.065
1568,-0.175,-0.055
1569,-0.195,-0.055
1570,-0.175,-0.045
1571,-0.125,-0.045
1572,-0.095,-0.045
1573,-0.105,-0.035
1574,-0.025,-0.065
1575,-0.045,-0.065
1576,-0.095,-0.085
1577,-0.155,-0.085
1578,-0.145,-0.075
1579,-0.125,-0.065
1580,-0.145,-0.045
1581,-0.165,-0.045
1582,-0.165,-0.055
1583,-0.205,-0.075
1584,-0.165,-0.055
1585,-0.175,-0.045
1586,-0.165,-0.045
1587,-0.135,-0.055
1588,-0.115,-0.045
1589,-0.215,0.005
1590,-0.845,0.235
1591,-0.985,0.215
1592,0.105,0.025
1593,2.155,-0.115
1594,3.145,-0.345
1595,3.135,-0.295
1596,2.525,-0.085
1597,0.415,-0.625
1598,-0.415,-0.565
1599,-0.245,-0.175
1600,-0.165,-0.005
1601,-0.245,0.025
1602,-0.295,0.015
1603,-0.315,0.015
1604,-0.305,0.005
1605,-0.295,0.025
1606,-0.285,0.045
1607,-0.285,0.045
1608,-0.275,0.035
1609,-0.275,0.045
1610,-0.225,0.045
1611,-0.245,0.025
1612,-0.215,0.025
1613,-0.185,0.025
1614,-0.185,0.035
1615,-0.175,0.045
1616,-0.145,0.015
1617,-0.115,0.025
1618,-0.095,0.015
1619,-0.065,0.005
1620,-0.065,0.005
1621,-0.015,0.025
1622,0.035,0.025
1623,0.055,0.005
1624,0.095,-0.005
1625,0.145,0.005
1626,0.205,-0.015
1627,0.245,-0.025
1628,0.255,-0.035
1629,0.275,-0.035
1630,0.285,-0.065
1631,0.265,-0.065
1632,0.215,-0.075
1633,0.145,-0.075
1634,0.055,-0.055
1635,-0.045,-0.045
1636,-0.075,-0.035
1637,-0.125,-0.045
1638,-0.155,-0.035
1639,-0.185,-0.025
1640,-0.205,-0.045
1641,-0.215,-0.035
1642,-0.195,-0.025
1643,-0.205,-0.025
1644,-0.215,-0.035
1645,-0.195,-0.025
1646,-0.205,-0.015
1647,-0.215,-0.045
1648,-0.215,-0.045
1649,-0.195,-0.025
1650,-0.205,-0.015
1651,-0.175,-0.025
1652,-0.185,-0.025
1653,-0.185,-0.035
1654,-0.175,-0.025
1655,-0.185,-0.015
1656,-0.205,-0.035
1657,-0.185,-0.035
1658,-0.185,-0.025
1659,-0.185,-0.035
1660,-0.185,-0.035
1661,-0.195,-0.025
1662,-0.175,-0.035
1663,-0.205,-0.025
1664,-0.195,-0.035
1665,-0.195,-0.035
1666,-0.185,-0.035
1667,-0.195,-0.035
1668,-0.185,-0.045
1669,-0.195,-0.035
1670,-0.195,-0.035
1671,-0.195,-0.045
1672,-0.185,-0.035
1673,-0.185,-0.015
1674,-0.175,-0.035
1675,-0.165,-0.035
1676,-0.175,-0.035
1677,-0.175,-0.035
1678,-0.165,-0.035
1679,-0.155,-0.035
1680,-0.155,-0.035
1681,-0.155,-0.045
1682,-0.165,-0.035
1683,-0.175,-0.045
1684,-0.145,-0.045
1685,-0.105,-0.015
1686,-0.055,0.005
1687,-0.135,0.005
1688,-0.005,-0.025
1689,-0.035,-0.045
1690,-0.105,-0.075
1691,-0.135,-0.075
1692,-0.135,-0.055
1693,-0.125,-0.045
1694,-0.145,-0.035
1695,-0.165,-0.025
1696,-0.165,-0.035
1697,-0.175,-0.025
1698,-0.175,-0.025
1699,-0.175,-0.025
1700,-0.175,-0.025
1701,-0.165,-0.025
1702,-0.135,-0.025
1703,-0.185,-0.015
1704,-0.745,0.205
1705,-0.955,0.245
1706,0.045,0.085
1707,2.015,-0.065
1708,3.045,-0.315
1709,3.165,-0.225
1710,2.785,-0.135
1711,0.905,-0.615
1712,-0.255,-0.645
1713,-0.165,-0.185
1714,-0.155,0.035
1715,-0.225,0.025
1716,-0.335,0.025
1717,-0.325,0.025
1718,-0.335,0.035
1719,-0.335,0.025
1720,-0.325,0.025
1721,-0.305,0.025
1722,-0.285,0.025
1723,-0.285,0.035
1724,-0.265,0.035
1725,-0.255,0.045
1726,-0.225,0.065
1727,-0.225,0.055
1728,-0.205,0.045
1729,-0.175,0.045
1730,-0.155,0.065
1731,-0.125,0.045
1732,-0.135,0.025
1733,-0.085,0.035
1734,-0.065,0.045
1735,-0.055,0.025
1736,-0.015,0.015
1737,0.005,0.015
1738,0.035,0.025
1739,0.095,-0.005
1740,0.145,-0.015
1741,0.175,-0.025
1742,0.215,-0.025
1743,0.225,-0.045
1744,0.225,-0.065
1745,0.215,-0.065
1746,0.195,-0.065
1747,0.125,-0.065
1748,0.025,-0.085
1749,-0.025,-0.075
1750,-0.065,-0.045
1751,-0.155,-0.055
1752,-0.185,-0.055
1753,-0.205,-0.065
1754,-0.205,-0.045
1755,-0.215,-0.045
1756,-0.225,-0.045
1757,-0.225,-0.025
1758,-0.205,-0.015
1759,-0.215,-0.035
1760,-0.215,-0.025
1761,-0.205,-0.035
1762,-0.205,-0.045
1763,-0.225,-0.035
1764,-0.185,-0.055
1765,-0.205,-0.035
1766,-0.205,-0.025
1767,-0.215,-0.035
1768,-0.205,-0.045
1769,-0.215,-0.035
1770,-0.205,-0.025
1771,-0.225,-0.045
1772,-0.195,-0.055
1773,-0.205,-0.055
1774,-0.205,-0.055
1775,-0.205,-0.045
1776,-0.265,-0.055
1777,-0.155,-0.085
1778,-0.205,-0.065
1779,-0.225,-0.045
1780,-0.235,-0.065
1781,-0.205,-0.045
1782,-0.235,-0.045
1783,-0.195,-0.065
1784,-0.215,-0.085
1785,-0.195,-0.065
1786,-0.205,-0.065
1787,-0.195,-0.065
1788,-0.195,-0.075
1789,-0.205,-0.075
1790,-0.205,-0.065
1791,-0.185,-0.065
1792,-0.185,-0.075
1793,-0.185,-0.075
1794,-0.215,-0.075
1795,-0.165,-0.085
1796,-0.175,-0.095
1797,-0.185,-0.075
1798,-0.195,-0.065
1799,-0.165,-0.095
1800,-0.145,-0.095
1801,-0.175,-0.075
1802,-0.185,-0.055
1803,-0.195,-0.065
1804,-0.185,-0.085
1805,-0.155,-0.075
1806,-0.155,-0.075
1807,-0.155,-0.095
1808,-0.185,-0.085
1809,-0.145,-0.075
1810,-0.095,-0.055
1811,-0.075,-0.075
1812,-0.045,-0.095
1813,-0.105,-0.085
1814,-0.065,-0.105
1815,-0.125,-0.095
1816,-0.145,-0.105
1817,-0.135,-0.095
1818,-0.145,-0.065
1819,-0.165,-0.065
1820,-0.185,-0.095
1821,-0.215,-0.085
1822,-0.205,-0.075
1823,-0.145,-0.065
1824,-0.215,-0.085
1825,-0.185,-0.075
1826,-0.135,-0.075
1827,-0.155,-0.045
1828,-0.785,0.185
1829,-0.965,0.185
1830,0.105,-0.015
1831,1.965,-0.175
1832,2.985,-0.375
1833,3.045,-0.335
1834,2.655,-0.115
1835,0.775,-0.575
1836,-0.345,-0.715
1837,-0.255,-0.255
1838,-0.185,-0.025
1839,-0.275,-0.015
1840,-0.355,-0.045
1841,-0.325,-0.055
1842,-0.285,-0.045
1843,-0.315,-0.005
1844,-0.355,0.005
1845,-0.305,0.015
1846,-0.305,0.015
1847,-0.295,0.005
1848,-0.265,-0.015
1849,-0.245,-0.025
1850,-0.205,-0.015
1851,-0.235,-0.025
1852,-0.225,-0.015
1853,-0.195,-0.025
1854,-0.175,-0.015
1855,-0.155,-0.005
1856,-0.175,-0.035
1857,-0.145,-0.065
1858,-0.075,-0.045
1859,-0.075,-0.055
1860,-0.065,-0.085
1861,-0.005,-0.075
1862,0.045,-0.075
1863,0.085,-0.085
1864,0.115,-0.105
1865,0.155,-0.105
1866,0.185,-0.105
1867,0.195,-0.125
1868,0.195,-0.135
1869,0.195,-0.145
1870,0.175,-0.145
1871,0.125,-0.135
1872,0.045,-0.125
1873,-0.005,-0.125
1874,-0.055,-0.085
1875,-0.135,-0.085
1876,-0.175,-0.095
1877,-0.185,-0.085
1878,-0.185,-0.055
1879,-0.225,-0.065
1880,-0.225,-0.075
1881,-0.215,-0.085
1882,-0.215,-0.035
1883,-0.215,-0.085
1884,-0.215,-0.085
1885,-0.225,-0.065
1886,-0.205,-0.055
1887,-0.225,-0.055
1888,-0.235,-0.075
1889,-0.215,-0.065
1890,-0.205,-0.045
1891,-0.235,-0.045
1892,-0.235,-0.065
1893,-0.225,-0.055
1894,-0.205,-0.055
1895,-0.215,-0.085
1896,-0.215,-0.085
1897,-0.205,-0.065
1898,-0.225,-0.065
1899,-0.215,-0.065
1900,-0.235,-0.075
1901,-0.225,-0.075
1902,-0.215,-0.065
1903,-0.215,-0.065
1904,-0.225,-0.085
1905,-0.205,-0.075
1906,-0.205,-0.065
1907,-0.215,-0.085
1908,-0.205,-0.085
1909,-0.205,-0.085
1910,-0.195,-0.075
1911,-0.205,-0.085
1912,-0.185,-0.095
1913,-0.185,-0.085
1914,-0.195,-0.065
1915,-0.195,-0.095
1916,-0.205,-0.085
1917,-0.175,-0.075
1918,-0.175,-0.075
1919,-0.185,-0.095
1920,-0.175,-0.105
1921,-0.175,-0.075
1922,-0.185,-0.075
1923,-0.175,-0.095
1924,-0.165,-0.095
1925,-0.155,-0.095
1926,-0.165,-0.075
1927,-0.165,-0.095
1928,-0.165,-0.095
1929,-0.165,-0.095
1930,-0.165,-0.075
1931,-0.155,-0.095
1932,-0.155,-0.105
1933,-0.175,-0.085
1934,-0.125,-0.075
1935,-0.085,-0.075
1936,-0.085,-0.065
1937,-0.075,-0.095
1938,0.015,-0.105
1939,-0.065,-0.105
1940,-0.125,-0.135
1941,-0.135,-0.115
1942,-0.115,-0.105
1943,-0.095,-0.095
1944,-0.135,-0.085
1945,-0.155,-0.085
1946,-0.165,-0.085
1947,-0.155,-0.095
1948,-0.155,-0.095
1949,-0.155,-0.085
1950,-0.155,-0.075
1951,-0.125,-0.075
1952,-0.135,-0.085
1953,-0.655,0.085
1954,-1.115,0.145
1955,-0.445,-0.005
1956,1.305,-0.255
1957,2.855,-0.345
1958,3.125,-0.235
1959,2.805,0.055
1960,1.295,0.035
1961,-0.165,-0.715
1962,-0.385,-0.475
1963,-0.175,-0.185
1964,-0.205,-0.075
1965,-0.275,-0.055
1966,-0.295,-0.045
1967,-0.305,-0.055
1968,-0.295,-0.055
1969,-0.295,-0.055
1970,-0.265,-0.065
1971,-0.265,-0.055
1972,-0.255,-0.055
1973,-0.245,-0.045
1974,-0.215,-0.065
1975,-0.215,-0.075
1976,-0.195,-0.085
1977,-0.195,-0.075
1978,-0.185,-0.075
1979,-0.155,-0.105
1980,-0.145,-0.105
1981,-0.115,-0.115
1982,-0.085,-0.105
1983,-0.055,-0.125
1984,-0.025,-0.135
1985,-0.005,-0.145
1986,0.055,-0.145
1987,0.075,-0.165
1988,0.105,-0.175
1989,0.155,-0.155
1990,0.185,-0.175
1991,0.225,-0.195
1992,0.205,-0.205
1993,0.215,-0.205
1994,0.225,-0.195
1995,0.185,-0.195
1996,0.115,-0.185
1997,0.065,-0.145
1998,0.005,-0.125
1999,-0.075,-0.125
2000,-0.125,-0.105
2001,-0.165,-0.075
2002,-0.185,-0.075
2003,-0.195,-0.075
2004,-0.215,-0.065
2005,-0.215,-0.075
2006,-0.215,-0.065
2007,-0.205,-0.085
2008,-0.205,-0.075
2009,-0.225,-0.055
2010,-0.205,-0.035
2011,-0.205,-0.065
2012,-0.195,-0.075
2013,-0.215,-0.075
2014,-0.185,-0.075
2015,-0.195,-0.075
2016,-0.185,-0.065
2017,-0.195,-0.065
2018,-0.185,-0.055
2019,-0.205,-0.055
2020,-0.185,-0.065
2021,-0.205,-0.085
2022,-0.195,-0.085
2023,-0.205,-0.065
2024,-0.195,-0.075
2025,-0.195,-0.075
2026,-0.185,-0.075
2027,-0.205,-0.075
2028,-0.185,-0.075
2029,-0.185,-0.075
2030,-0.205,-0.065
2031,-0.215,-0.085
2032,-0.215,-0.085
2033,-0.175,-0.095
2034,-0.205,-0.085
2035,-0.185,-0.095
2036,-0.175,-0.105
2037,-0.185,-0.065
2038,-0.205,-0.075
2039,-0.175,-0.085
2040,-0.185,-0.075
2041,-0.185,-0.075
2042,-0.145,-0.075
2043,-0.185,-0.095
2044,-0.165,-0.095
2045,-0.175,-0.095
2046,-0.175,-0.095
2047,-0.105,-0.075
2048,-0.095,-0.065
2049,-0.135,-0.055
2050,-0.005,-0.105
2051,-0.055,-0.095
2052,-0.075,-0.115
2053,-0.135,-0.115
2054,-0.145,-0.085
2055,-0.115,-0.105
2056,-0.135,-0.095
2057,-0.145,-0.085
2058,-0.185,-0.085
2059,-0.165,-0.095
2060,-0.185,-0.105
2061,-0.165,-0.085
2062,-0.145,-0.075
2063,-0.135,-0.085
2064,-0.125,-0.075
2065,-0.365,-0.015
2066,-1.015,0.185
2067,-0.835,0.115
2068,0.555,-0.075
2069,2.505,-0.215
2070,3.245,-0.345
2071,2.975,-0.205
2072,2.085,0.035
2073,0.125,-0.515
2074,-0.435,-0.575
2075,-0.225,-0.245
2076,-0.225,-0.075
2077,-0.265,-0.035
2078,-0.315,-0.055
2079,-0.305,-0.055
2080,-0.305,-0.045
2081,-0.325,-0.035
2082,-0.255,-0.035
2083,-0.255,-0.045
2084,-0.265,-0.045
2085,-0.255,-0.015
2086,-0.235,-0.025
2087,-0.225,-0.055
2088,-0.225,-0.065
2089,-0.175,-0.025
2090,-0.175,-0.035
2091,-0.165,-0.075
2092,-0.115,-0.065
2093,-0.115,-0.065
2094,-0.085,-0.065
2095,-0.035,-0.075
2096,-0.025,-0.105
2097,0.025,-0.095
2098,0.085,-0.075
2099,0.095,-0.095
2100,0.145,-0.115
2101,0.185,-0.125
2102,0.215,-0.115
2103,0.275,-0.135
2104,0.255,-0.145
2105,0.275,-0.165
2106,0.235,-0.155
2107,0.185,-0.155
2108,0.135,-0.145
2109,0.025,-0.125
2110,-0.045,-0.085
2111,-0.085,-0.105
2112,-0.165,-0.095
2113,-0.185,-0.085
2114,-0.215,-0.075
2115,-0.255,-0.085
2116,-0.235,-0.095
2117,-0.265,-0.075
2118,-0.245,-0.075
2119,-0.265,-0.075
2120,-0.225,-0.075
2121,-0.235,-0.075
2122,-0.235,-0.055
2123,-0.245,-0.075
2124,-0.235,-0.085
2125,-0.255,-0.075
2126,-0.215,-0.065
2127,-0.215,-0.085
2128,-0.215,-0.075
2129,-0.205,-0.075
2130,-0.225,-0.065
2131,-0.215,-0.075
2132,-0.215,-0.075
2133,-0.195,-0.075
2134,-0.205,-0.085
2135,-0.215,-0.095
2136,-0.225,-0.085
2137,-0.235,-0.075
2138,-0.215,-0.085
2139,-0.225,-0.075
2140,-0.215,-0.085
2141,-0.255,-0.085
2142,-0.205,-0.085
2143,-0.225,-0.085
2144,-0.215,-0.085
2145,-0.235,-0.095
2146,-0.195,-0.075
2147,-0.225,-0.075
2148,-0.225,-0.095
2149,-0.225,-0.095
2150,-0.195,-0.085
2151,-0.145,-0.055
2152,-0.145,-0.065
2153,-0.175,-0.035
2154,-0.065,-0.105
2155,-0.085,-0.095
2156,-0.155,-0.105
2157,-0.155,-0.105
2158,-0.185,-0.095
2159,-0.195,-0.105
2160,-0.165,-0.105
2161,-0.195,-0.075
2162,-0.205,-0.075
2163,-0.235,-0.085
2164,-0.225,-0.095
2165,-0.235,-0.065
2166,-0.205,-0.075
2167,-0.225,-0.065
2168,-0.195,-0.085
2169,-0.195,-0.075
2170,-0.485,0.045
2171,-1.085,0.245
2172,-0.725,0.145
2173,0.915,-0.045
2174,2.725,-0.215
2175,3.165,-0.405
2176,2.985,-0.225
2177,1.925,-0.195
2178,-0.055,-0.765
2179,-0.475,-0.465
2180,-0.245,-0.145
2181,-0.275,-0.035
2182,-0.355,-0.005
2183,-0.365,-0.025
2184,-0.375,-0.035
2185,-0.385,-0.015
2186,-0.385,-0.005
2187,-0.375,-0.005
2188,-0.345,-0.015
2189,-0.315,-0.015
2190,-0.315,-0.005
2191,-0.315,-0.005
2192,-0.285,-0.015
2193,-0.255,-0.015
2194,-0.245,-0.005
2195,-0.235,-0.015
2196,-0.235,-0.035
2197,-0.195,-0.015
2198,-0.175,-0.025
2199,-0.135,-0.035
2200,-0.095,-0.025
2201,-0.085,-0.045
2202,-0.005,-0.035
2203,0.025,-0.045
2204,0.095,-0.055
2205,0.095,-0.055
2206,0.195,-0.065
2207,0.195,-0.105
2208,0.235,-0.095
2209,0.235,-0.095
2210,0.195,-0.115
2211,0.195,-0.105
2212,0.105,-0.115
2213,0.025,-0.115
2214,-0.085,-0.095
2215,-0.125,-0.085
2216,-0.205,-0.095
2217,-0.245,-0.085
2218,-0.295,-0.075
2219,-0.255,-0.075
2220,-0.285,-0.075
2221,-0.275,-0.075
2222,-0.285,-0.055
2223,-0.305,-0.075
2224,-0.285,-0.075
2225,-0.275,-0.065
2226,-0.285,-0.055
2227,-0.265,-0.055
2228,-0.295,-0.055
2229,-0.245,-0.055
2230,-0.255,-0.045
2231,-0.255,-0.065
2232,-0.255,-0.055
2233,-0.255,-0.055
2234,-0.225,-0.055
2235,-0.255,-0.065
2236,-0.265,-0.075
2237,-0.255,-0.065
2238,-0.245,-0.065
2239,-0.245,-0.065
2240,-0.255,-0.065
2241,-0.245,-0.075
2242,-0.265,-0.055
2243,-0.245,-0.065
2244,-0.255,-0.065
2245,-0.265,-0.075
2246,-0.245,-0.065
2247,-0.255,-0.075
2248,-0.225,-0.075
2249,-0.235,-0.075
2250,-0.225,-0.055
2251,-0.235,-0.075
2252,-0.235,-0.085
2253,-0.235,-0.085
2254,-0.205,-0.065
2255,-0.205,-0.075
2256,-0.215,-0.065
2257,-0.235,-0.075
2258,-0.215,-0.075
2259,-0.155,-0.065
2260,-0.145,-0.045
2261,-0.155,-0.025
2262,-0.075,-0.095
2263,-0.085,-0.085
2264,-0.155,-0.085
2265,-0.185,-0.095
2266,-0.195,-0.095
2267,-0.195,-0.085
2268,-0.165,-0.085
2269,-0.195,-0.065
2270,-0.215,-0.065
2271,-0.215,-0.075
2272,-0.225,-0.065
2273,-0.185,-0.075
2274,-0.205,-0.055
2275,-0.205,-0.065
2276,-0.175,-0.055
2277,-0.195,-0.045
2278,-0.525,0.115
2279,-1.045,0.255
2280,-0.575,0.125
2281,1.135,-0.075
2282,2.795,-0.225
2283,3.175,-0.355
2284,3.015,-0.175
2285,1.725,-0.345
2286,-0.025,-0.835
2287,-0.385,-0.435
2288,-0.215,-0.085
2289,-0.265,0.005
2290,-0.315,0.005
2291,-0.365,-0.015
2292,-0.375,-0.005
2293,-0.365,0.005
2294,-0.335,0.015
2295,-0.345,-0.005
2296,-0.325,-0.005
2297,-0.335,-0.005
2298,-0.295,0.025
2299,-0.305,0.015
2300,-0.295,0.005
2301,-0.265,-0.005
2302,-0.255,0.005
2303,-0.205,0.005
2304,-0.225,-0.005
2305,-0.185,-0.025
2306,-0.185,-0.015
2307,-0.135,-0.025
2308,-0.115,-0.035
2309,-0.085,-0.035
2310,-0.035,-0.035
2311,-0.005,-0.045
2312,0.045,-0.055
2313,0.095,-0.065
2314,0.135,-0.075
2315,0.175,-0.085
2316,0.215,-0.105
2317,0.215,-0.115
2318,0.245,-0.105
2319,0.205,-0.115
2320,0.155,-0.135
2321,0.095,-0.125
2322,-0.005,-0.095
2323,-0.035,-0.095
2324,-0.115,-0.095
2325,-0.165,-0.075
2326,-0.185,-0.065
2327,-0.235,-0.055
2328,-0.215,-0.065
2329,-0.235,-0.065
2330,-0.235,-0.055
2331,-0.225,-0.065
2332,-0.235,-0.075
2333,-0.245,-0.055
2334,-0.215,-0.045
2335,-0.235,-0.055
2336,-0.235,-0.055
2337,-0.215,-0.055
2338,-0.225,-0.035
2339,-0.225,-0.035
2340,-0.215,-0.045
2341,-0.215,-0.045
2342,-0.215,-0.035
2343,-0.225,-0.035
2344,-0.235,-0.045
2345,-0.215,-0.055
2346,-0.195,-0.025
2347,-0.215,-0.045
2348,-0.225,-0.065
2349,-0.225,-0.065
2350,-0.195,-0.055
2351,-0.205,-0.055
2352,-0.215,-0.045
2353,-0.225,-0.045
2354,-0.215,-0.055
2355,-0.195,-0.065
2356,-0.225,-0.085
2357,-0.215,-0.065
2358,-0.205,-0.055
2359,-0.215,-0.065
2360,-0.195,-0.065
2361,-0.195,-0.055
2362,-0.185,-0.055
2363,-0.195,-0.045
2364,-0.205,-0.065
2365,-0.185,-0.085
2366,-0.175,-0.065
2367,-0.185,-0.075
2368,-0.195,-0.065
2369,-0.165,-0.065
2370,-0.175,-0.065
2371,-0.195,-0.065
2372,-0.185,-0.075
2373,-0.175,-0.075
2374,-0.125,-0.045
2375,-0.075,-0.025
2376,-0.135,-0.045
2377,-0.045,-0.095
2378,-0.025,-0.085
2379,-0.105,-0.095
2380,-0.125,-0.105
2381,-0.145,-0.095
2382,-0.135,-0.075
2383,-0.115,-0.075
2384,-0.185,-0.065
2385,-0.165,-0.065
2386,-0.195,-0.055
2387,-0.185,-0.085
2388,-0.185,-0.085
2389,-0.175,-0.055
2390,-0.155,-0.045
2391,-0.135,-0.065
2392,-0.135,-0.065
2393,-0.455,0.085
2394,-0.975,0.235
2395,-0.525,0.075
2396,1.095,-0.195
2397,2.745,-0.265
2398,3.135,-0.255
2399,2.885,-0.045
2400,1.445,-0.335
2401,-0.115,-0.835
2402,-0.305,-0.385
2403,-0.155,-0.075
2404,-0.235,-0.025
2405,-0.275,-0.035
2406,-0.325,-0.035
2407,-0.325,-0.025
2408,-0.325,-0.025
2409,-0.315,-0.015
2410,-0.285,-0.015
2411,-0.285,-0.025
2412,-0.275,-0.035
2413,-0.275,-0.035
2414,-0.235,-0.025
2415,-0.235,-0.035
2416,-0.215,-0.055
2417,-0.195,-0.045
2418,-0.195,-0.025
2419,-0.155,-0.055
2420,-0.155,-0.065
2421,-0.125,-0.075
2422,-0.105,-0.085
2423,-0.075,-0.095
2424,-0.045,-0.105
2425,-0.005,-0.115
2426,0.025,-0.115
2427,0.065,-0.135
2428,0.105,-0.145
2429,0.145,-0.155
2430,0.185,-0.155
2431,0.195,-0.165
2432,0.215,-0.185
2433,0.225,-0.175
2434,0.225,-0.165
2435,0.165,-0.165
2436,0.095,-0.165
2437,0.035,-0.135
2438,-0.025,-0.105
2439,-0.065,-0.085
2440,-0.115,-0.085
2441,-0.165,-0.075
2442,-0.175,-0.065
2443,-0.195,-0.065
2444,-0.195,-0.075
2445,-0.175,-0.065
2446,-0.185,-0.065
2447,-0.195,-0.055
2448,-0.195,-0.075
2449,-0.215,-0.075
2450,-0.175,-0.045
2451,-0.185,-0.065
2452,-0.185,-0.065
2453,-0.185,-0.055
2454,-0.205,-0.045
2455,-0.175,-0.055
2456,-0.195,-0.065
2457,-0.185,-0.065
2458,-0.175,-0.045
2459,-0.205,-0.045
2460,-0.165,-0.065
2461,-0.195,-0.065
2462,-0.185,-0.055
2463,-0.185,-0.065
2464,-0.185,-0.065
2465,-0.195,-0.065
2466,-0.175,-0.055
2467,-0.175,-0.075
2468,-0.185,-0.075
2469,-0.195,-0.075
2470,-0.185,-0.075
2471,-0.165,-0.065
2472,-0.185,-0.085
2473,-0.175,-0.075
2474,-0.155,-0.065
2475,-0.185,-0.075
2476,-0.145,-0.095
2477,-0.165,-0.085
2478,-0.185,-0.075
2479,-0.155,-0.085
2480,-0.155,-0.095
2481,-0.155,-0.085
2482,-0.155,-0.085
2483,-0.165,-0.085
2484,-0.165,-0.085
2485,-0.175,-0.085
2486,-0.135,-0.075
2487,-0.165,-0.075
2488,-0.165,-0.095
2489,-0.175,-0.095
2490,-0.135,-0.075
2491,-0.155,-0.085
2492,-0.155,-0.095
2493,-0.145,-0.095
2494,-0.135,-0.095
2495,-0.155,-0.105
2496,-0.135,-0.095
2497,-0.135,-0.095
2498,-0.135,-0.095
2499,-0.165,-0.105
2500,-0.085,-0.095
2501,-0.065,-0.065
2502,-0.085,-0.045
2503,-0.005,-0.115
2504,-0.005,-0.115
2505,-0.095,-0.125
2506,-0.095,-0.115
2507,-0.125,-0.125
2508,-0.105,-0.125
2509,-0.135,-0.095
2510,-0.135,-0.075
2511,-0.155,-0.105
2512,-0.165,-0.105
2513,-0.145,-0.095
2514,-0.165,-0.075
2515,-0.125,-0.085
2516,-0.145,-0.085
2517,-0.115,-0.085
2518,-0.145,-0.055
2519,-0.715,0.145
2520,-0.965,0.115
2521,-0.005,-0.155
2522,1.975,-0.315
2523,2.985,-0.275
2524,2.995,-0.105
2525,2.445,0.095
2526,0.425,-0.645
2527,-0.405,-0.625
2528,-0.225,-0.235
2529,-0.175,-0.075
2530,-0.275,-0.065
2531,-0.305,-0.075
2532,-0.335,-0.065
2533,-0.315,-0.065
2534,-0.315,-0.055
2535,-0.305,-0.075
2536,-0.325,-0.075
2537,-0.265,-0.055
2538,-0.265,-0.045
2539,-0.265,-0.065
2540,-0.255,-0.095
2541,-0.245,-0.075
2542,-0.225,-0.075
2543,-0.215,-0.095
2544,-0.215,-0.105
2545,-0.185,-0.115
2546,-0.185,-0.125
2547,-0.145,-0.125
2548,-0.135,-0.135
2549,-0.105,-0.145
2550,-0.075,-0.135
2551,-0.045,-0.165
2552,0.015,-0.185
2553,0.045,-0.175
2554,0.095,-0.195
2555,0.125,-0.205
2556,0.155,-0.215
2557,0.155,-0.215
2558,0.225,-0.205
2559,0.185,-0.225
2560,0.185,-0.215
2561,0.175,-0.215
2562,0.105,-0.185
2563,0.025,-0.165
2564,-0.025,-0.145
2565,-0.095,-0.105
2566,-0.135,-0.105
2567,-0.185,-0.085
2568,-0.215,-0.095
2569,-0.225,-0.075
2570,-0.225,-0.075
2571,-0.235,-0.075
2572,-0.235,-0.085
2573,-0.215,-0.075
2574,-0.225,-0.065
2575,-0.225,-0.075
2576,-0.235,-0.075
2577,-0.225,-0.075
2578,-0.225,-0.055
2579,-0.225,-0.065
2580,-0.245,-0.045
2581,-0.235,-0.065
2582,-0.225,-0.055
2583,-0.235,-0.075
2584,-0.225,-0.075
2585,-0.215,-0.075
2586,-0.215,-0.055
2587,-0.225,-0.065
2588,-0.255,-0.065
2589,-0.215,-0.065
2590,-0.225,-0.065
2591,-0.235,-0.065
2592,-0.215,-0.075
2593,-0.245,-0.065
2594,-0.225,-0.065
2595,-0.245,-0.085
2596,-0.245,-0.095
2597,-0.225,-0.085
2598,-0.225,-0.065
2599,-0.205,-0.065
2600,-0.235,-0.085
2601,-0.215,-0.075
2602,-0.215,-0.075
2603,-0.215,-0.085
2604,-0.215,-0.085
2605,-0.205,-0.085
2606,-0.225,-0.075
2607,-0.205,-0.075
2608,-0.195,-0.095
2609,-0.205,-0.085
2610,-0.195,-0.075
2611,-0.195,-0.075
2612,-0.195,-0.095
2613,-0.215,-0.095
2614,-0.185,-0.075
2615,-0.215,-0.075
2616,-0.205,-0.095
2617,-0.185,-0.095
2618,-0.185,-0.085
2619,-0.175,-0.085
2620,-0.185,-0.075
2621,-0.175,-0.095
2622,-0.175,-0.105
2623,-0.195,-0.095
2624,-0.195,-0.085
2625,-0.125,-0.075
2626,-0.085,-0.055
2627,-0.125,-0.085
2628,-0.015,-0.105
2629,-0.105,-0.095
2630,-0.135,-0.105
2631,-0.165,-0.115
2632,-0.155,-0.105
2633,-0.145,-0.095
2634,-0.165,-0.065
2635,-0.165,-0.075
2636,-0.195,-0.095
2637,-0.165,-0.085
2638,-0.155,-0.085
2639,-0.155,-0.095
2640,-0.175,-0.085
2641,-0.155,-0.065
2642,-0.145,-0.075
2643,-0.415,0.015
2644,-1.065,0.185
2645,-0.745,0.055
2646,0.665,-0.165
2647,2.465,-0.275
2648,3.135,-0.285
2649,2.935,-0.175
2650,2.405,0.085
2651,0.445,-0.445
2652,-0.475,-0.635
2653,-0.295,-0.265
2654,-0.175,-0.065
2655,-0.275,-0.045
2656,-0.335,-0.065
2657,-0.335,-0.035
2658,-0.315,-0.025
2659,-0.295,-0.045
2660,-0.295,-0.055
2661,-0.285,-0.045
2662,-0.295,-0.035
2663,-0.245,-0.035
2664,-0.265,-0.045
2665,-0.225,-0.055
2666,-0.255,-0.045
2667,-0.225,-0.065
2668,-0.215,-0.075
2669,-0.195,-0.055
2670,-0.175,-0.075
2671,-0.125,-0.085
2672,-0.135,-0.085
2673,-0.085,-0.085
2674,-0.075,-0.105
2675,-0.045,-0.095
2676,0.005,-0.095
2677,0.055,-0.105
2678,0.115,-0.115
2679,0.115,-0.135
2680,0.175,-0.145
2681,0.205,-0.145
2682,0.185,-0.155
2683,0.245,-0.145
2684,0.235,-0.195
2685,0.195,-0.165
2686,0.145,-0.135
2687,0.075,-0.125
2688,0.035,-0.125
2689,-0.065,-0.095
2690,-0.105,-0.085
2691,-0.125,-0.085
2692,-0.205,-0.075
2693,-0.195,-0.055
2694,-0.225,-0.055
2695,-0.195,-0.065
2696,-0.245,-0.075
2697,-0.215,-0.055
2698,-0.215,-0.045
2699,-0.225,-0.035
2700,-0.205,-0.055
2701,-0.215,-0.055
2702,-0.185,-0.065
2703,-0.205,-0.065
2704,-0.185,-0.055
2705,-0.215,-0.045
2706,-0.175,-0.035
2707,-0.185,-0.045
2708,-0.175,-0.065
2709,-0.195,-0.065
2710,-0.195,-0.035
2711,-0.185,-0.055
2712,-0.195,-0.055
2713,-0.195,-0.055
2714,-0.195,-0.055
2715,-0.205,-0.065
2716,-0.195,-0.055
2717,-0.155,-0.065
2718,-0.185,-0.075
2719,-0.185,-0.065
2720,-0.205,-0.065
2721,-0.205,-0.065
2722,-0.225,-0.065
2723,-0.165,-0.065
2724,-0.165,-0.075
2725,-0.195,-0.065
2726,-0.185,-0.055
2727,-0.175,-0.085
2728,-0.175,-0.075
2729,-0.175,-0.055
2730,-0.175,-0.055
2731,-0.165,-0.065
2732,-0.165,-0.075
2733,-0.155,-0.065
2734,-0.185,-0.045
2735,-0.155,-0.075
2736,-0.155,-0.065
2737,-0.165,-0.065
2738,-0.145,-0.065
2739,-0.175,-0.075
2740,-0.175,-0.075
2741,-0.095,-0.055
2742,-0.065,-0.025
2743,-0.125,-0.025
2744,-0.025,-0.075
2745,-0.045,-0.065
2746,-0.085,-0.085
2747,-0.135,-0.085
2748,-0.135,-0.085
2749,-0.115,-0.075
2750,-0.105,-0.055
2751,-0.155,-0.055
2752,-0.165,-0.075
2753,-0.145,-0.065
2754,-0.175,-0.055
2755,-0.125,-0.055
2756,-0.155,-0.055
2757,-0.155,-0.055
2758,-0.095,-0.045
2759,-0.255,0.015
2760,-0.985,0.245
2761,-0.835,0.225
2762,0.735,0.055
2763,2.625,-0.125
2764,3.255,-0.435
2765,3.175,-0.285
2766,2.115,-0.155
2767,0.055,-0.685
2768,-0.425,-0.455
2769,-0.175,-0.125
2770,-0.155,0.025
2771,-0.255,0.005
2772,-0.325,-0.005
2773,-0.325,0.025
2774,-0.285,0.035
2775,-0.285,0.045
2776,-0.325,0.015
2777,-0.285,0.025
2778,-0.265,0.045
2779,-0.245,0.025
2780,-0.245,0.015
2781,-0.235,0.035
2782,-0.215,0.055
2783,-0.195,0.045
2784,-0.185,0.035
2785,-0.165,0.035
2786,-0.145,0.055
2787,-0.115,0.045
2788,-0.115,0.035
2789,-0.065,0.035
2790,-0.055,0.035
2791,0.025,0.035
2792,0.025,0.025
2793,0.055,0.035
2794,0.115,0.035
2795,0.155,0.005
2796,0.185,0.005
2797,0.235,-0.005
2798,0.285,-0.015
2799,0.305,-0.035
2800,0.285,-0.055
2801,0.255,-0.075
2802,0.195,-0.075
2803,0.115,-0.075
2804,-0.015,-0.085
2805,-0.045,-0.075
2806,-0.125,-0.065
2807,-0.175,-0.075
2808,-0.185,-0.075
2809,-0.225,-0.075
2810,-0.265,-0.065
2811,-0.215,-0.065
2812,-0.225,-0.065
2813,-0.215,-0.065
2814,-0.215,-0.045
2815,-0.225,-0.055
2816,-0.225,-0.045
2817,-0.235,-0.045
2818,-0.225,-0.035
2819,-0.195,-0.035
2820,-0.215,-0.055
2821,-0.225,-0.045
2822,-0.205,-0.045
2823,-0.195,-0.065
2824,-0.195,-0.055
2825,-0.205,-0.045
2826,-0.195,-0.035
2827,-0.205,-0.045
2828,-0.215,-0.055
2829,-0.215,-0.065
2830,-0.205,-0.055
2831,-0.215,-0.055
2832,-0.215,-0.075
2833,-0.195,-0.075
2834,-0.195,-0.065
2835,-0.215,-0.075
2836,-0.225,-0.075
2837,-0.205,-0.065
2838,-0.205,-0.055
2839,-0.215,-0.075
2840,-0.195,-0.085
2841,-0.195,-0.075
2842,-0.195,-0.055
2843,-0.195,-0.065
2844,-0.195,-0.085
2845,-0.195,-0.085
2846,-0.185,-0.065
2847,-0.195,-0.065
2848,-0.155,-0.075
2849,-0.185,-0.065
2850,-0.195,-0.065
2851,-0.185,-0.075
2852,-0.175,-0.085
2853,-0.165,-0.085
2854,-0.175,-0.055
2855,-0.105,-0.065
2856,-0.075,-0.055
2857,-0.115,-0.045
2858,-0.025,-0.085
2859,-0.085,-0.085
2860,-0.135,-0.115
2861,-0.145,-0.095
2862,-0.135,-0.075
2863,-0.135,-0.085
2864,-0.145,-0.065
2865,-0.165,-0.065
2866,-0.185,-0.085
2867,-0.175,-0.085
2868,-0.185,-0.085
2869,-0.185,-0.075
2870,-0.165,-0.065
2871,-0.145,-0.065
2872,-0.105,-0.065
2873,-0.425,0.065
2874,-1.035,0.275
2875,-0.625,0.205
2876,1.005,0.085
2877,2.765,-0.185
2878,3.235,-0.485
2879,3.165,-0.365
2880,2.285,-0.465
2881,0.205,-0.785
2882,-0.275,-0.385
2883,-0.115,-0.035
2884,-0.225,0.015
2885,-0.295,-0.005
2886,-0.345,0.005
2887,-0.365,0.005
2888,-0.325,0.025
2889,-0.315,0.025
2890,-0.335,0.015
2891,-0.295,0.005
2892,-0.285,0.015
2893,-0.275,0.025
2894,-0.265,0.035
2895,-0.235,0.035
2896,-0.215,0.045
2897,-0.215,0.045
2898,-0.195,0.045
2899,-0.165,0.055
2900,-0.145,0.035
2901,-0.135,0.055
2902,-0.105,0.065
2903,-0.095,0.045
2904,-0.065,0.055
2905,-0.005,0.065
2906,0.045,0.065
2907,0.065,0.065
2908,0.125,0.045
2909,0.175,0.045
2910,0.205,0.045
2911,0.255,0.025
2912,0.275,-0.005
2913,0.315,-0.015
2914,0.325,-0.035
2915,0.285,-0.065
2916,0.205,-0.085
2917,0.135,-0.075
2918,0.055,-0.085
2919,-0.025,-0.085
2920,-0.095,-0.095
2921,-0.155,-0.095
2922,-0.185,-0.095
2923,-0.215,-0.095
2924,-0.215,-0.095
2925,-0.225,-0.095
2926,-0.205,-0.085
2927,-0.215,-0.095
2928,-0.225,-0.085
2929,-0.215,-0.085
2930,-0.235,-0.075
2931,-0.225,-0.085
2932,-0.225,-0.085
2933,-0.225,-0.085
2934,-0.225,-0.075
2935,-0.245,-0.085
2936,-0.235,-0.085
2937,-0.235,-0.075
2938,-0.225,-0.085
2939,-0.235,-0.085
2940,-0.215,-0.085
2941,-0.215,-0.095
2942,-0.235,-0.085
2943,-0.225,-0.095
2944,-0.225,-0.105
2945,-0.225,-0.105
2946,-0.215,-0.095
2947,-0.215,-0.105
2948,-0.225,-0.105
2949,-0.215,-0.095
2950,-0.215,-0.095
2951,-0.245,-0.105
2952,-0.205,-0.115
2953,-0.215,-0.105
2954,-0.205,-0.095
2955,-0.215,-0.105
2956,-0.225,-0.115
2957,-0.205,-0.115
2958,-0.185,-0.095
2959,-0.225,-0.105
2960,-0.195,-0.115
2961,-0.195,-0.115
2962,-0.195,-0.115
2963,-0.175,-0.115
2964,-0.195,-0.115
2965,-0.185,-0.115
2966,-0.195,-0.105
2967,-0.195,-0.115
2968,-0.185,-0.105
2969,-0.185,-0.115
2970,-0.175,-0.095
2971,-0.195,-0.115
2972,-0.175,-0.115
2973,-0.175,-0.105
2974,-0.195,-0.105
2975,-0.185,-0.115
2976,-0.135,-0.105
2977,-0.055,-0.075
2978,-0.095,-0.085
2979,-0.035,-0.125
2980,-0.065,-0.115
2981,-0.145,-0.135
2982,-0.145,-0.115
2983,-0.145,-0.115
2984,-0.155,-0.115
2985,-0.155,-0.105
2986,-0.165,-0.085
2987,-0.165,-0.105
2988,-0.165,-0.115
2989,-0.175,-0.095
2990,-0.175,-0.095
2991,-0.165,-0.095
2992,-0.155,-0.105
2993,-0.115,-0.085
2994,-0.415,0.045
2995,-0.975,0.215
2996,-0.625,0.125
2997,0.935,-0.055
2998,2.625,-0.215
2999,3.185,-0.465
3000,3.095,-0.325
3001,2.325,-0.295
3002,0.305,-0.795
3003,-0.385,-0.535
3004,-0.185,-0.165
3005,-0.195,-0.045
3006,-0.285,-0.035
3007,-0.325,-0.025
3008,-0.345,-0.045
3009,-0.345,-0.015
3010,-0.305,-0.005
3011,-0.335,-0.015
3012,-0.285,-0.035
3013,-0.285,-0.025
3014,-0.255,-0.005
3015,-0.295,-0.005
3016,-0.245,-0.025
3017,-0.235,-0.025
3018,-0.225,-0.015
3019,-0.205,-0.025
3020,-0.215,-0.035
3021,-0.155,-0.025
3022,-0.145,-0.035
3023,-0.125,-0.035
3024,-0.115,-0.035
3025,-0.075,-0.045
3026,-0.055,-0.035
3027,0.005,-0.045
3028,0.035,-0.065
3029,0.095,-0.065
3030,0.115,-0.065
3031,0.185,-0.075
3032,0.205,-0.095
3033,0.245,-0.105
3034,0.245,-0.105
3035,0.225,-0.135
3036,0.235,-0.145
3037,0.175,-0.135
3038,0.085,-0.135
3039,0.015,-0.135
3040,-0.055,-0.135
3041,-0.145,-0.125
3042,-0.135,-0.095
3043,-0.185,-0.105
3044,-0.195,-0.105
3045,-0.215,-0.095
3046,-0.225,-0.085
3047,-0.195,-0.095
3048,-0.225,-0.105
3049,-0.225,-0.085
3050,-0.215,-0.085
3051,-0.215,-0.075
3052,-0.205,-0.085
3053,-0.205,-0.095
3054,-0.215,-0.085
3055,-0.205,-0.085
3056,-0.215,-0.085
3057,-0.205,-0.085
3058,-0.205,-0.085
3059,-0.205,-0.085
3060,-0.205,-0.085
3061,-0.225,-0.075
3062,-0.205,-0.075
3063,-0.195,-0.095
3064,-0.225,-0.105
3065,-0.215,-0.085
3066,-0.205,-0.085
3067,-0.205,-0.085
3068,-0.215,-0.105
3069,-0.215,-0.095
3070,-0.195,-0.085
3071,-0.175,-0.085
3072,-0.205,-0.095
3073,-0.195,-0.095
3074,-0.185,-0.095
3075,-0.205,-0.095
3076,-0.195,-0.095
3077,-0.195,-0.105
3078,-0.185,-0.095
3079,-0.175,-0.095
3080,-0.195,-0.095
3081,-0.165,-0.095
3082,-0.185,-0.105
3083,-0.175,-0.095
3084,-0.185,-0.095
3085,-0.175,-0.095
3086,-0.155,-0.095
3087,-0.155,-0.095
3088,-0.165,-0.095
3089,-0.155,-0.085
3090,-0.155,-0.085
3091,-0.185,-0.105
3092,-0.165,-0.105
3093,-0.165,-0.115
3094,-0.135,-0.095
3095,-0.135,-0.105
3096,-0.155,-0.105
3097,-0.155,-0.125
3098,-0.155,-0.085
3099,-0.125,-0.105
3100,-0.035,-0.095
3101,-0.055,-0.055
3102,-0.045,-0.095
3103,0.005,-0.125
3104,-0.105,-0.145
3105,-0.115,-0.125
3106,-0.125,-0.105
3107,-0.105,-0.115
3108,-0.085,-0.105
3109,-0.145,-0.085
3110,-0.155,-0.095
3111,-0.145,-0.105
3112,-0.155,-0.115
3113,-0.145,-0.075
3114,-0.135,-0.065
3115,-0.125,-0.095
3116,-0.105,-0.095
3117,-0.205,-0.055
3118,-0.835,0.175
3119,-0.905,0.155
3120,0.165,-0.045
3121,2.145,-0.165
3122,3.095,-0.365
3123,3.105,-0.355
3124,2.755,-0.125
3125,0.815,-0.455
3126,-0.375,-0.705
3127,-0.315,-0.295
3128,-0.165,-0.075
3129,-0.245,-0.025
3130,-0.265,-0.035
3131,-0.315,-0.035
3132,-0.305,-0.025
3133,-0.275,-0.015
3134,-0.305,-0.015
3135,-0.255,-0.015
3136,-0.295,-0.015
3137,-0.285,-0.015
3138,-0.235,-0.015
3139,-0.245,-0.015
3140,-0.195,-0.025
3141,-0.185,-0.035
3142,-0.195,-0.005
3143,-0.155,-0.025
3144,-0.135,-0.035
3145,-0.125,-0.025
3146,-0.075,-0.025
3147,-0.055,-0.025
3148,-0.065,-0.035
3149,0.005,-0.045
3150,0.045,-0.015
3151,0.075,-0.035
3152,0.125,-0.045
3153,0.195,-0.055
3154,0.235,-0.025
3155,0.245,-0.065
3156,0.295,-0.075
3157,0.305,-0.065
3158,0.315,-0.085
3159,0.275,-0.095
3160,0.215,-0.105
3161,0.145,-0.105
3162,0.075,-0.095
3163,-0.025,-0.115
3164,-0.055,-0.115
3165,-0.125,-0.095
3166,-0.175,-0.075
3167,-0.205,-0.105
3168,-0.205,-0.105
3169,-0.215,-0.075
3170,-0.225,-0.075
3171,-0.225,-0.095
3172,-0.245,-0.095
3173,-0.215,-0.085
3174,-0.205,-0.075
3175,-0.215,-0.075
3176,-0.215,-0.075
3177,-0.205,-0.075
3178,-0.215,-0.065
3179,-0.225,-0.075
3180,-0.215,-0.075
3181,-0.225,-0.085
3182,-0.195,-0.065
3183,-0.215,-0.065
3184,-0.225,-0.075
3185,-0.195,-0.075
3186,-0.225,-0.065
3187,-0.205,-0.075
3188,-0.225,-0.095
3189,-0.215,-0.085
3190,-0.215,-0.075
3191,-0.215,-0.095
3192,-0.225,-0.095
3193,-0.215,-0.085
3194,-0.235,-0.065
3195,-0.205,-0.075
3196,-0.225,-0.085
3197,-0.205,-0.095
3198,-0.205,-0.085
3199,-0.215,-0.095
3200,-0.215,-0.085
3201,-0.205,-0.095
3202,-0.185,-0.105
3203,-0.235,-0.095
3204,-0.195,-0.105
3205,-0.195,-0.095
3206,-0.185,-0.095
3207,-0.175,-0.085
3208,-0.195,-0.095
3209,-0.175,-0.095
3210,-0.115,-0.075
3211,-0.105,-0.055
3212,-0.115,-0.085
3213,-0.045,-0.115
3214,-0.085,-0.105
3215,-0.115,-0.135
3216,-0.195,-0.125
3217,-0.135,-0.105
3218,-0.145,-0.105
3219,-0.165,-0.095
3220,-0.175,-0.105
3221,-0.195,-0.075
3222,-0.215,-0.075
3223,-0.185,-0.115
3224,-0.195,-0.105
3225,-0.175,-0.085
3226,-0.155,-0.075
3227,-0.145,-0.075
3228,-0.205,-0.055
3229,-0.785,0.155
3230,-1.025,0.255
3231,-0.035,0.125
3232,1.965,0.015
3233,3.075,-0.365
3234,3.205,-0.455
3235,2.985,-0.265
3236,0.915,-0.545
3237,-0.295,-0.605
3238,-0.245,-0.195
3239,-0.135,-0.025
3240,-0.245,-0.005
3241,-0.315,-0.015
3242,-0.325,-0.005
3243,-0.345,0.015
3244,-0.315,0.005
3245,-0.325,0.005
3246,-0.345,0.015
3247,-0.265,0.015
3248,-0.275,0.055
3249,-0.265,0.015
3250,-0.285,0.025
3251,-0.155,-0.005
3252,-0.205,0.045
3253,-0.225,0.055
3254,-0.185,0.055
3255,-0.185,0.045
3256,-0.155,0.045
3257,-0.135,0.045
3258,-0.055,0.055
3259,-0.075,0.035
3260,-0.005,0.015
3261,0.025,0.025
3262,0.045,0.065
3263,0.135,0.035
3264,0.155,0.015
3265,0.185,0.035
3266,0.225,0.015
3267,0.215,-0.005
3268,0.265,-0.045
3269,0.245,-0.035
3270,0.225,-0.065
3271,0.215,-0.115
3272,0.055,-0.105
3273,-0.095,-0.065
3274,-0.065,-0.095
3275,-0.105,-0.095
3276,-0.245,-0.095
3277,-0.205,-0.075
3278,-0.235,-0.075
3279,-0.225,-0.085
3280,-0.215,-0.095
3281,-0.275,-0.085
3282,-0.255,-0.065
3283,-0.225,-0.075
3284,-0.185,-0.075
3285,-0.265,-0.095
3286,-0.245,-0.065
3287,-0.185,-0.085
3288,-0.285,-0.055
3289,-0.195,-0.085
3290,-0.235,-0.065
3291,-0.245,-0.075
3292,-0.235,-0.065
3293,-0.245,-0.085
3294,-0.225,-0.095
3295,-0.215,-0.075
3296,-0.215,-0.075
3297,-0.225,-0.075
3298,-0.215,-0.085
3299,-0.245,-0.085
3300,-0.265,-0.075
3301,-0.215,-0.085
3302,-0.215,-0.075
3303,-0.225,-0.085
3304,-0.225,-0.085
3305,-0.235,-0.085
3306,-0.235,-0.075
3307,-0.205,-0.075
3308,-0.215,-0.085
3309,-0.215,-0.085
3310,-0.195,-0.075
3311,-0.205,-0.095
3312,-0.185,-0.115
3313,-0.195,-0.085
3314,-0.235,-0.035
3315,-0.205,-0.065
3316,-0.215,-0.085
3317,-0.195,-0.085
3318,-0.185,-0.075
3319,-0.175,-0.055
3320,-0.085,-0.045
3321,-0.135,-0.045
3322,-0.095,-0.075
3323,-0.055,-0.095
3324,-0.075,-0.085
3325,-0.155,-0.125
3326,-0.175,-0.095
3327,-0.175,-0.075
3328,-0.155,-0.085
3329,-0.185,-0.055
3330,-0.205,-0.065
3331,-0.185,-0.075
3332,-0.175,-0.065
3333,-0.215,-0.075
3334,-0.165,-0.065
3335,-0.175,-0.055
3336,-0.195,-0.055
3337,-0.145,-0.055
3338,-0.695,0.175
3339,-0.955,0.255
3340,-0.015,0.145
3341,1.985,-0.005
3342,3.025,-0.395
3343,3.145,-0.375
3344,2.775,-0.255
3345,0.865,-0.625
3346,-0.275,-0.575
3347,-0.185,-0.155
3348,-0.165,0.005
3349,-0.265,0.015
3350,-0.345,0.015
3351,-0.355,0.005
3352,-0.315,-0.005
3353,-0.365,0.025
3354,-0.315,0.045
3355,-0.305,0.045
3356,-0.325,0.025
3357,-0.285,0.025
3358,-0.255,0.055
3359,-0.275,0.045
3360,-0.235,0.035
3361,-0.235,0.025
3362,-0.205,0.055
3363,-0.195,0.055
3364,-0.205,0.045
3365,-0.145,0.025
3366,-0.155,0.055
3367,-0.105,0.045
3368,-0.075,0.045
3369,-0.045,0.025
3370,-0.035,0.045
3371,0.035,0.045
3372,0.085,0.035
3373,0.085,0.025
3374,0.165,0.035
3375,0.175,0.015
3376,0.225,-0.005
3377,0.225,-0.015
3378,0.225,-0.035
3379,0.175,-0.065
3380,0.125,-0.095
3381,0.085,-0.075
3382,-0.015,-0.065
3383,-0.095,-0.065
3384,-0.155,-0.075
3385,-0.165,-0.065
3386,-0.195,-0.055
3387,-0.215,-0.065
3388,-0.205,-0.065
3389,-0.235,-0.055
3390,-0.195,-0.055
3391,-0.215,-0.055
3392,-0.215,-0.065
3393,-0.215,-0.055
3394,-0.225,-0.045
3395,-0.215,-0.055
3396,-0.215,-0.065
3397,-0.245,-0.045
3398,-0.205,-0.045
3399,-0.225,-0.055
3400,-0.235,-0.065
3401,-0.235,-0.045
3402,-0.205,-0.045
3403,-0.255,-0.065
3404,-0.235,-0.065
3405,-0.195,-0.065
3406,-0.215,-0.065
3407,-0.215,-0.075
3408,-0.235,-0.075
3409,-0.215,-0.075
3410,-0.215,-0.055
3411,-0.225,-0.065
3412,-0.215,-0.075
3413,-0.225,-0.085
3414,-0.225,-0.075
3415,-0.245,-0.075
3416,-0.215,-0.095
3417,-0.215,-0.075
3418,-0.205,-0.075
3419,-0.215,-0.075
3420,-0.215,-0.085
3421,-0.235,-0.085
3422,-0.185,-0.065
3423,-0.205,-0.075
3424,-0.245,-0.085
3425,-0.195,-0.075
3426,-0.195,-0.085
3427,-0.205,-0.075
3428,-0.185,-0.085
3429,-0.195,-0.085
3430,-0.185,-0.075
3431,-0.215,-0.075
3432,-0.155,-0.075
3433,-0.085,-0.055
3434,-0.115,-0.035
3435,-0.065,-0.085
3436,-0.085,-0.095
3437,-0.105,-0.105
3438,-0.185,-0.105
3439,-0.155,-0.095
3440,-0.145,-0.095
3441,-0.175,-0.075
3442,-0.175,-0.065
3443,-0.225,-0.075
3444,-0.175,-0.095
3445,-0.195,-0.085
3446,-0.205,-0.075
3447,-0.185,-0.075
3448,-0.175,-0.065
3449,-0.155,-0.065
3450,-0.165,-0.045
3451,-0.675,0.125
3452,-1.045,0.215
3453,-0.375,0.105
3454,1.425,-0.015
3455,2.865,-0.285
3456,3.145,-0.455
3457,2.925,-0.245
3458,1.145,-0.365
3459,-0.265,-0.685
3460,-0.305,-0.315
3461,-0.175,-0.045
3462,-0.245,0.005
3463,-0.315,-0.005
3464,-0.355,-0.015
3465,-0.345,-0.015
3466,-0.315,-0.005
3467,-0.325,0.005
3468,-0.315,-0.005
3469,-0.315,0.015
3470,-0.295,0.025
3471,-0.275,0.005
3472,-0.265,-0.005
3473,-0.255,0.025
3474,-0.245,0.035
3475,-0.205,0.025
3476,-0.205,0.005
3477,-0.195,0.015
3478,-0.155,0.015
3479,-0.145,0.015
3480,-0.135,-0.005
3481,-0.095,0.005
3482,-0.065,0.015
3483,-0.045,0.005
3484,-0.035,-0.015
3485,0.035,-0.005
3486,0.065,0.015
3487,0.075,-0.005
3488,0.125,-0.035
3489,0.145,-0.025
3490,0.185,-0.045
3491,0.205,-0.065
3492,0.185,-0.085
3493,0.155,-0.095
3494,0.065,-0.095
3495,0.035,-0.105
3496,-0.045,-0.115
3497,-0.095,-0.105
3498,-0.145,-0.085
3499,-0.155,-0.095
3500,-0.175,-0.095
3501,-0.215,-0.095
3502,-0.195,-0.075
3503,-0.205,-0.075
3504,-0.205,-0.085
3505,-0.205,-0.085
3506,-0.205,-0.075
3507,-0.235,-0.085
3508,-0.185,-0.085
3509,-0.225,-0.075
3510,-0.225,-0.065
3511,-0.225,-0.095
3512,-0.215,-0.085
3513,-0.235,-0.075
3514,-0.195,-0.075
3515,-0.225,-0.075
3516,-0.225,-0.095
3517,-0.245,-0.085
3518,-0.205,-0.085
3519,-0.235,-0.095
3520,-0.225,-0.095
3521,-0.215,-0.085
3522,-0.225,-0.095
3523,-0.225,-0.095
3524,-0.235,-0.095
3525,-0.195,-0.095
3526,-0.215,-0.085
3527,-0.225,-0.105
3528,-0.235,-0.105
3529,-0.215,-0.095
3530,-0.215,-0.095
3531,-0.225,-0.095
3532,-0.215,-0.105
3533,-0.225,-0.115
3534,-0.205,-0.095
3535,-0.205,-0.105
3536,-0.205,-0.105
3537,-0.195,-0.105
3538,-0.215,-0.095
3539,-0.165,-0.105
3540,-0.195,-0.115
3541,-0.195,-0.105
3542,-0.185,-0.095
3543,-0.195,-0.105
3544,-0.215,-0.105
3545,-0.165,-0.115
3546,-0.175,-0.115
3547,-0.175,-0.115
3548,-0.185,-0.115
3549,-0.185,-0.105
3550,-0.165,-0.105
3551,-0.175,-0.105
3552,-0.175,-0.125
3553,-0.155,-0.115
3554,-0.075,-0.095
3555,-0.095,-0.075
3556,-0.085,-0.095
3557,-0.045,-0.125
3558,-0.095,-0.135
3559,-0.135,-0.145
3560,-0.155,-0.135
3561,-0.145,-0.125
3562,-0.135,-0.105
3563,-0.165,-0.105
3564,-0.175,-0.115
3565,-0.195,-0.115
3566,-0.185,-0.105
3567,-0.165,-0.105
3568,-0.175,-0.115
3569,-0.165,-0.095
3570,-0.125,-0.095
3571,-0.185,-0.095
3572,-0.705,0.085
3573,-0.965,0.185
3574,-0.055,0.065
3575,1.825,-0.065
3576,2.945,-0.385
3577,3.045,-0.445
3578,2.675,-0.245
3579,0.735,-0.535
3580,-0.305,-0.665
3581,-0.225,-0.255
3582,-0.155,-0.055
3583,-0.255,-0.055
3584,-0.325,-0.065
3585,-0.335,-0.055
3586,-0.335,-0.035
3587,-0.335,-0.035
3588,-0.325,-0.035
3589,-0.315,-0.025
3590,-0.285,-0.025
3591,-0.285,-0.035
3592,-0.275,-0.025
3593,-0.265,-0.025
3594,-0.225,-0.015
3595,-0.235,-0.015
3596,-0.225,-0.035
3597,-0.195,-0.035
3598,-0.185,-0.015
3599,-0.165,-0.035
3600,-0.175,-0.035
3601,-0.145,-0.035
3602,-0.115,-0.015
3603,-0.085,-0.025
3604,-0.105,-0.035
3605,-0.065,-0.045
3606,-0.005,-0.015
3607,0.005,-0.025
3608,0.035,-0.065
3609,0.065,-0.065
3610,0.095,-0.065
3611,0.115,-0.075
3612,0.115,-0.095
3613,0.125,-0.115
3614,0.115,-0.115
3615,0.085,-0.115
3616,0.035,-0.135
3617,-0.025,-0.135
3618,-0.065,-0.125
3619,-0.115,-0.125
3620,-0.145,-0.125
3621,-0.205,-0.105
3622,-0.185,-0.115
3623,-0.225,-0.105
3624,-0.205,-0.105
3625,-0.235,-0.095
3626,-0.215,-0.095
3627,-0.225,-0.095
3628,-0.235,-0.095
3629,-0.215,-0.105
3630,-0.235,-0.085
3631,-0.235,-0.095
3632,-0.245,-0.095
3633,-0.235,-0.095
3634,-0.235,-0.085
3635,-0.245,-0.085
3636,-0.235,-0.095
3637,-0.235,-0.095
3638,-0.235,-0.105
3639,-0.245,-0.105
3640,-0.235,-0.105
3641,-0.235,-0.105
3642,-0.245,-0.105
3643,-0.245,-0.105
3644,-0.255,-0.105
3645,-0.235,-0.105
3646,-0.255,-0.105
3647,-0.245,-0.105
3648,-0.245,-0.105
3649,-0.235,-0.115
3650,-0.235,-0.115
3651,-0.235,-0.105
3652,-0.235,-0.105
3653,-0.225,-0.105
3654,-0.225,-0.105
3655,-0.225,-0.115
3656,-0.225,-0.115
3657,-0.215,-0.115
3658,-0.215,-0.105
3659,-0.225,-0.115
3660,-0.225,-0.115
3661,-0.215,-0.115
3662,-0.215,-0.105
3663,-0.215,-0.115
3664,-0.215,-0.125
3665,-0.225,-0.115
3666,-0.225,-0.105
3667,-0.195,-0.125
3668,-0.195,-0.115
3669,-0.205,-0.105
3670,-0.215,-0.105
3671,-0.195,-0.105
3672,-0.195,-0.115
3673,-0.195,-0.115
3674,-0.185,-0.105
3675,-0.185,-0.115
3676,-0.165,-0.115
3677,-0.105,-0.095
3678,-0.115,-0.075
3679,-0.075,-0.115
3680,-0.065,-0.125
3681,-0.125,-0.125
3682,-0.155,-0.125
3683,-0.155,-0.125
3684,-0.145,-0.115
3685,-0.155,-0.095
3686,-0.175,-0.095
3687,-0.185,-0.105
3688,-0.195,-0.105
3689,-0.175,-0.095
3690,-0.185,-0.085
3691,-0.185,-0.085
3692,-0.155,-0.085
3693,-0.135,-0.085
3694,-0.415,0.025
3695,-0.975,0.185
3696,-0.505,0.085
3697,1.145,-0.075
3698,2.745,-0.245
3699,3.095,-0.385
3700,2.805,-0.195
3701,1.145,-0.365
3702,-0.215,-0.745
3703,-0.235,-0.345
3704,-0.145,-0.085
3705,-0.205,-0.015
3706,-0.265,-0.035
3707,-0.315,-0.045
3708,-0.345,-0.035
3709,-0.305,-0.015
3710,-0.315,-0.025
3711,-0.295,-0.025
3712,-0.285,-0.025
3713,-0.265,-0.025
3714,-0.255,-0.005
3715,-0.245,-0.005
3716,-0.215,-0.015
3717,-0.215,-0.015
3718,-0.205,-0.015
3719,-0.185,-0.005
3720,-0.175,-0.015
3721,-0.145,0.005
3722,-0.135,0.005
3723,-0.125,-0.015
3724,-0.085,-0.025
3725,-0.085,-0.025
3726,-0.045,-0.025
3727,-0.025,-0.015
3728,-0.005,-0.035
3729,0.045,-0.045
3730,0.075,-0.035
3731,0.105,-0.055
3732,0.125,-0.075
3733,0.135,-0.095
3734,0.155,-0.075
3735,0.155,-0.085
3736,0.155,-0.125
3737,0.115,-0.125
3738,0.065,-0.115
3739,0.015,-0.115
3740,-0.045,-0.105
3741,-0.075,-0.095
3742,-0.105,-0.075
3743,-0.135,-0.085
3744,-0.165,-0.095
3745,-0.165,-0.085
3746,-0.175,-0.065
3747,-0.165,-0.065
3748,-0.175,-0.085
3749,-0.175,-0.075
3750,-0.185,-0.065
3751,-0.185,-0.065
3752,-0.185,-0.075
3753,-0.195,-0.065
3754,-0.185,-0.065
3755,-0.185,-0.065
3756,-0.185,-0.065
3757,-0.185,-0.065
3758,-0.185,-0.065
3759,-0.185,-0.065
3760,-0.185,-0.055
3761,-0.175,-0.075
3762,-0.185,-0.075
3763,-0.175,-0.075
3764,-0.175,-0.075
3765,-0.195,-0.065
3766,-0.165,-0.055
3767,-0.175,-0.075
3768,-0.185,-0.085
3769,-0.175,-0.075
3770,-0.175,-0.055
3771,-0.185,-0.075
3772,-0.165,-0.085
3773,-0.165,-0.075
3774,-0.165,-0.075
3775,-0.165,-0.075
3776,-0.165,-0.075
3777,-0.175,-0.075
3778,-0.145,-0.065
3779,-0.155,-0.065
3780,-0.155,-0.075
3781,-0.145,-0.065
3782,-0.135,-0.075
3783,-0.135,-0.075
3784,-0.135,-0.075
3785,-0.145,-0.075
3786,-0.135,-0.075
3787,-0.125,-0.075
3788,-0.155,-0.075
3789,-0.125,-0.075
3790,-0.125,-0.075
3791,-0.135,-0.065
3792,-0.135,-0.075
3793,-0.125,-0.065
3794,-0.125,-0.075
3795,-0.125,-0.075
3796,-0.135,-0.095
3797,-0.105,-0.085
3798,-0.025,-0.055
3799,-0.035,-0.025
3800,-0.025,-0.075
3801,0.015,-0.095
3802,-0.035,-0.085
3803,-0.095,-0.095
3804,-0.095,-0.085
3805,-0.085,-0.085
3806,-0.085,-0.055
3807,-0.125,-0.055
3808,-0.135,-0.085
3809,-0.135,-0.065
3810,-0.125,-0.065
3811,-0.125,-0.065
3812,-0.125,-0.065
3813,-0.105,-0.055
3814,-0.075,-0.035
3815,-0.115,-0.035
3816,-0.605,0.115
3817,-0.835,0.175
3818,-0.025,0.045
3819,1.785,-0.105
3820,2.945,-0.305
3821,3.025,-0.305
3822,2.515,-0.105
3823,0.585,-0.495
3824,-0.285,-0.645
3825,-0.115,-0.215
3826,-0.075,-0.015
3827,-0.185,-0.015
3828,-0.255,-0.025
3829,-0.265,-0.005
3830,-0.255,0.005
3831,-0.255,-0.005
3832,-0.245,-0.015
3833,-0.235,-0.005
3834,-0.215,-0.005
3835,-0.215,-0.005
3836,-0.195,0.025
3837,-0.175,0.005
3838,-0.165,-0.005
3839,-0.145,0.005
3840,-0.145,0.005
3841,-0.125,0.005
3842,-0.095,0.015
3843,-0.085,0.005
3844,-0.075,-0.005
3845,-0.055,-0.015
3846,-0.025,0.005
3847,-0.015,-0.005
3848,-0.005,-0.025
3849,0.045,-0.015
3850,0.065,-0.025
3851,0.085,-0.035
3852,0.115,-0.035
3853,0.135,-0.045
3854,0.165,-0.055
3855,0.175,-0.085
3856,0.175,-0.095
3857,0.175,-0.095
3858,0.165,-0.095
3859,0.105,-0.105
3860,0.045,-0.105
3861,0.015,-0.095
3862,-0.035,-0.065
3863,-0.075,-0.065
3864,-0.115,-0.065
3865,-0.125,-0.065
3866,-0.135,-0.045
3867,-0.145,-0.055
3868,-0.145,-0.055
3869,-0.155,-0.045
3870,-0.165,-0.035
3871,-0.155,-0.055
3872,-0.155,-0.045
3873,-0.175,-0.045
3874,-0.165,-0.045
3875,-0.165,-0.045
3876,-0.175,-0.055
3877,-0.175,-0.045
3878,-0.175,-0.035
3879,-0.175,-0.055
3880,-0.175,-0.065
3881,-0.165,-0.045
3882,-0.165,-0.035
3883,-0.165,-0.045
3884,-0.165,-0.055
3885,-0.175,-0.055
3886,-0.185,-0.055
3887,-0.165,-0.055
3888,-0.185,-0.055
3889,-0.175,-0.075
3890,-0.175,-0.055
3891,-0.175,-0.055
3892,-0.175,-0.055
3893,-0.165,-0.055
3894,-0.175,-0.055
3895,-0.165,-0.055
3896,-0.155,-0.055
3897,-0.165,-0.065
3898,-0.145,-0.055
3899,-0.175,-0.055
3900,-0.135,-0.055
3901,-0.145,-0.035
3902,-0.145,-0.055
3903,-0.145,-0.075
3904,-0.155,-0.075
3905,-0.155,-0.065
3906,-0.145,-0.055
3907,-0.145,-0.055
3908,-0.145,-0.075
3909,-0.135,-0.055
3910,-0.155,-0.055
3911,-0.125,-0.055
3912,-0.135,-0.065
3913,-0.135,-0.055
3914,-0.115,-0.055
3915,-0.135,-0.075
3916,-0.135,-0.085
3917,-0.135,-0.085
3918,-0.115,-0.065
3919,-0.055,-0.065
3920,-0.065,-0.035
3921,-0.035,-0.045
3922,0.005,-0.075
3923,-0.045,-0.095
3924,-0.105,-0.095
3925,-0.115,-0.075
3926,-0.085,-0.035
3927,-0.115,-0.075
3928,-0.135,-0.075
3929,-0.155,-0.075
3930,-0.145,-0.065
3931,-0.155,-0.055
3932,-0.155,-0.065
3933,-0.165,-0.055
3934,-0.105,-0.045
3935,-0.105,-0.045
3936,-0.125,-0.045
3937,-0.555,0.075
3938,-0.855,0.185
3939,-0.235,0.015
3940,1.425,-0.185
3941,2.795,-0.265
3942,2.925,-0.225
3943,2.495,-0.015
3944,0.655,-0.325
3945,-0.305,-0.685
3946,-0.175,-0.265
3947,-0.135,-0.045
3948,-0.215,-0.025
3949,-0.265,-0.035
3950,-0.275,-0.035
3951,-0.285,-0.035
3952,-0.275,-0.025
3953,-0.265,-0.015
3954,-0.255,-0.015
3955,-0.255,-0.015
3956,-0.235,-0.015
3957,-0.215,-0.005
3958,-0.205,-0.015
3959,-0.195,-0.015
3960,-0.185,-0.035
3961,-0.155,-0.025
3962,-0.135,-0.015
3963,-0.155,-0.015
3964,-0.115,-0.035
3965,-0.095,-0.035
3966,-0.075,-0.035
3967,-0.065,-0.045
3968,-0.035,-0.055
3969,-0.015,-0.055
3970,0.015,-0.065
3971,0.045,-0.075
3972,0.065,-0.085
3973,0.085,-0.085
3974,0.115,-0.095
3975,0.135,-0.115
3976,0.145,-0.125
3977,0.135,-0.115
3978,0.145,-0.115
3979,0.105,-0.115
3980,0.065,-0.125
3981,0.025,-0.115
3982,-0.015,-0.085
3983,-0.065,-0.085
3984,-0.105,-0.085
3985,-0.125,-0.065
3986,-0.145,-0.045
3987,-0.165,-0.045
3988,-0.175,-0.055
3989,-0.175,-0.045
3990,-0.175,-0.035
3991,-0.185,-0.045
3992,-0.175,-0.055
3993,-0.175,-0.045
3994,-0.195,-0.035
3995,-0.175,-0.045
3996,-0.195,-0.045
3997,-0.195,-0.045
3998,-0.195,-0.045
3999,-0.185,-0.045
4000,-0.205,-0.045
4001,-0.195,-0.055
4002,-0.185,-0.045
4003,-0.195,-0.045
4004,-0.185,-0.065
4005,-0.195,-0.055
4006,-0.185,-0.055
4007,-0.205,-0.055
4008,-0.185,-0.055
4009,-0.185,-0.055
4010,-0.185,-0.045
4011,-0.195,-0.055
4012,-0.185,-0.065
4013,-0.185,-0.055
4014,-0.175,-0.045
4015,-0.175,-0.055
4016,-0.185,-0.055
4017,-0.185,-0.065
4018,-0.165,-0.055
4019,-0.175,-0.055
4020,-0.175,-0.065
4021,-0.165,-0.055
4022,-0.155,-0.045
4023,-0.175,-0.055
4024,-0.165,-0.075
4025,-0.155,-0.065
4026,-0.165,-0.055
4027,-0.155,-0.075
4028,-0.155,-0.065
4029,-0.155,-0.065
4030,-0.145,-0.055
4031,-0.155,-0.065
4032,-0.165,-0.075
4033,-0.145,-0.065
4034,-0.145,-0.065
4035,-0.145,-0.065
4036,-0.135,-0.075
4037,-0.135,-0.065
4038,-0.135,-0.055
4039,-0.145,-0.085
4040,-0.125,-0.075
4041,-0.055,-0.065
4042,-0.045,-0.015
4043,-0.035,-0.065
4044,-0.025,-0.095
4045,-0.065,-0.105
4046,-0.105,-0.095
4047,-0.115,-0.085
4048,-0.115,-0.095
4049,-0.125,-0.065
4050,-0.145,-0.055
4051,-0.155,-0.085
4052,-0.165,-0.075
4053,-0.155,-0.075
4054,-0.145,-0.065
4055,-0.145,-0.065
4056,-0.135,-0.065
4057,-0.115,-0.055
4058,-0.165,-0.045
4059,-0.725,0.135
4060,-0.835,0.105
4061,0.045,-0.085
4062,1.885,-0.245
4063,2.895,-0.285
4064,2.805,-0.175
4065,2.245,0.055
4066,0.345,-0.475
4067,-0.345,-0.625
4068,-0.195,-0.245
4069,-0.125,-0.065
4070,-0.215,-0.045
4071,-0.275,-0.055
4072,-0.295,-0.065
4073,-0.285,-0.055
4074,-0.275,-0.045
4075,-0.275,-0.035
4076,-0.255,-0.045
4077,-0.235,-0.045
4078,-0.225,-0.035
4079,-0.225,-0.045
4080,-0.195,-0.045
4081,-0.175,-0.045
4082,-0.165,-0.045
4083,-0.155,-0.045
4084,-0.145,-0.065
4085,-0.135,-0.065
4086,-0.125,-0.055
4087,-0.095,-0.075
4088,-0.085,-0.095
4089,-0.065,-0.095
4090,-0.045,-0.105
4091,-0.015,-0.105
4092,0.015,-0.125
4093,0.055,-0.125
4094,0.075,-0.125
4095,0.105,-0.155
4096,0.125,-0.165
4097,0.125,-0.165
4098,0.165,-0.155
4099,0.135,-0.175
4100,0.115,-0.175
4101,0.075,-0.155
4102,0.025,-0.135
4103,-0.015,-0.125
4104,-0.065,-0.105
4105,-0.105,-0.085
4106,-0.115,-0.085
4107,-0.155,-0.075
4108,-0.175,-0.085
4109,-0.165,-0.065
4110,-0.165,-0.055
4111,-0.185,-0.065
4112,-0.185,-0.075
4113,-0.185,-0.065
4114,-0.175,-0.055
4115,-0.175,-0.065
4116,-0.185,-0.065
4117,-0.185,-0.055
4118,-0.165,-0.055
4119,-0.175,-0.065
4120,-0.185,-0.065
4121,-0.175,-0.065
4122,-0.175,-0.055
4123,-0.175,-0.055
4124,-0.185,-0.065
4125,-0.185,-0.065
4126,-0.175,-0.055
4127,-0.175,-0.075
4128,-0.175,-0.065
4129,-0.175,-0.055
4130,-0.175,-0.065
4131,-0.175,-0.075
4132,-0.175,-0.075
4133,-0.175,-0.075
4134,-0.165,-0.065
4135,-0.165,-0.055
4136,-0.165,-0.065
4137,-0.175,-0.065
4138,-0.155,-0.055
4139,-0.165,-0.085
4140,-0.165,-0.075
4141,-0.155,-0.065
4142,-0.145,-0.065
4143,-0.145,-0.075
4144,-0.155,-0.075
4145,-0.145,-0.075
4146,-0.135,-0.065
4147,-0.145,-0.075
4148,-0.145,-0.085
4149,-0.145,-0.065
4150,-0.135,-0.065
4151,-0.135,-0.065
4152,-0.145,-0.075
4153,-0.135,-0.075
4154,-0.135,-0.065
4155,-0.115,-0.065
4156,-0.135,-0.085
4157,-0.125,-0.075
4158,-0.115,-0.065
4159,-0.135,-0.075
4160,-0.105,-0.075
4161,-0.055,-0.075
4162,-0.045,-0.055
4163,-0.035,-0.065
4164,0.005,-0.095
4165,-0.045,-0.115
4166,-0.085,-0.105
4167,-0.095,-0.085
4168,-0.085,-0.095
4169,-0.095,-0.055
4170,-0.125,-0.065
4171,-0.135,-0.075
4172,-0.155,-0.075
4173,-0.135,-0.065
4174,-0.125,-0.055
4175,-0.125,-0.065
4176,-0.115,-0.065
4177,-0.085,-0.065
4178,-0.105,-0.065
4179,-0.635,0.115
4180,-0.875,0.095
4181,-0.055,-0.105
4182,1.725,-0.285
4183,2.865,-0.295
4184,2.845,-0.155
4185,2.485,0.115
4186,0.555,-0.345
4187,-0.325,-0.675
4188,-0.195,-0.285
4189,-0.125,-0.065
4190,-0.195,-0.045
4191,-0.255,-0.075
4192,-0.265,-0.075
4193,-0.265,-0.055
4194,-0.265,-0.035
4195,-0.245,-0.045
4196,-0.235,-0.065
4197,-0.215,-0.055
4198,-0.195,-0.045
4199,-0.205,-0.045
4200,-0.165,-0.055
4201,-0.165,-0.055
4202,-0.155,-0.055
4203,-0.135,-0.065
4204,-0.135,-0.085
4205,-0.105,-0.095
4206,-0.095,-0.075
4207,-0.075,-0.075
4208,-0.065,-0.115
4209,-0.055,-0.125
4210,-0.005,-0.115
4211,0.005,-0.125
4212,0.045,-0.155
4213,0.065,-0.145
4214,0.095,-0.145
4215,0.115,-0.175
4216,0.135,-0.185
4217,0.165,-0.185
4218,0.175,-0.185
4219,0.185,-0.185
4220,0.165,-0.185
4221,0.135,-0.175
4222,0.095,-0.145
4223,0.035,-0.125
4224,-0.005,-0.125
4225,-0.045,-0.095
4226,-0.085,-0.065
4227,-0.115,-0.075
4228,-0.145,-0.065
4229,-0.155,-0.075
4230,-0.145,-0.055
4231,-0.155,-0.065
4232,-0.155,-0.055
4233,-0.165,-0.065
4234,-0.155,-0.045
4235,-0.165,-0.055
4236,-0.175,-0.065
4237,-0.165,-0.055
4238,-0.155,-0.045
4239,-0.165,-0.055
4240,-0.175,-0.065
4241,-0.155,-0.035
4242,-0.135,-0.055
4243,-0.155,-0.055
4244,-0.185,-0.055
4245,-0.155,-0.055
4246,-0.145,-0.055
4247,-0.145,-0.075
4248,-0.165,-0.055
4249,-0.165,-0.065
4250,-0.135,-0.055
4251,-0.165,-0.075
4252,-0.175,-0.065
4253,-0.145,-0.065
4254,-0.135,-0.075
4255,-0.145,-0.075
4256,-0.145,-0.075
4257,-0.145,-0.065
4258,-0.165,-0.075
4259,-0.145,-0.075
4260,-0.155,-0.085
4261,-0.145,-0.075
4262,-0.125,-0.095
4263,-0.135,-0.065
4264,-0.145,-0.075
4265,-0.135,-0.075
4266,-0.145,-0.075
4267,-0.135,-0.055
4268,-0.155,-0.085
4269,-0.135,-0.085
4270,-0.115,-0.065
4271,-0.135,-0.085
4272,-0.125,-0.125
4273,-0.125,-0.095
4274,-0.115,-0.045
4275,-0.125,-0.085
4276,-0.125,-0.105
4277,-0.095,-0.105
4278,-0.135,-0.095
4279,-0.115,-0.095
4280,-0.065,-0.075
4281,-0.055,-0.075
4282,-0.045,-0.075
4283,0.025,-0.105
4284,0.005,-0.125
4285,-0.055,-0.125
4286,-0.085,-0.095
4287,-0.045,-0.115
4288,-0.075,-0.105
4289,-0.095,-0.115
4290,-0.105,-0.095
4291,-0.145,-0.095
4292,-0.135,-0.085
4293,-0.105,-0.095
4294,-0.095,-0.085
4295,-0.115,-0.085
4296,-0.085,-0.095
4297,-0.085,-0.075
4298,-0.465,0.035
4299,-1.015,0.125
4300,-0.385,0.005
4301,1.155,-0.205
4302,2.735,-0.345
4303,3.075,-0.335
4304,2.615,-0.125
4305,1.505,0.185
4306,-0.115,-0.425
4307,-0.415,-0.525
4308,-0.205,-0.265
4309,-0.135,-0.085
4310,-0.195,-0.075
4311,-0.285,-0.055
4312,-0.265,-0.075
4313,-0.245,-0.075
4314,-0.245,-0.035
4315,-0.225,-0.055
4316,-0.215,-0.085
4317,-0.205,-0.065
4318,-0.195,-0.045
4319,-0.185,-0.075
4320,-0.165,-0.085
4321,-0.165,-0.065
4322,-0.155,-0.055
4323,-0.125,-0.075
4324,-0.095,-0.095
4325,-0.085,-0.105
4326,-0.065,-0.095
4327,-0.045,-0.095
4328,-0.025,-0.125
4329,-0.005,-0.105
4330,0.035,-0.105
4331,0.065,-0.125
4332,0.095,-0.125
4333,0.115,-0.115
4334,0.165,-0.135
4335,0.185,-0.175
4336,0.185,-0.175
4337,0.205,-0.165
4338,0.215,-0.175
4339,0.195,-0.175
4340,0.145,-0.165
4341,0.105,-0.175
4342,0.045,-0.155
4343,-0.015,-0.135
4344,-0.075,-0.125
4345,-0.105,-0.095
4346,-0.165,-0.075
4347,-0.175,-0.075
4348,-0.205,-0.085
4349,-0.195,-0.075
4350,-0.215,-0.045
4351,-0.225,-0.075
4352,-0.205,-0.095
4353,-0.195,-0.085
4354,-0.185,-0.075
4355,-0.205,-0.075
4356,-0.205,-0.075
4357,-0.205,-0.075
4358,-0.195,-0.085
4359,-0.195,-0.085
4360,-0.195,-0.085
4361,-0.195,-0.075
4362,-0.195,-0.065
4363,-0.205,-0.075
4364,-0.215,-0.085
4365,-0.205,-0.095
4366,-0.205,-0.075
4367,-0.205,-0.075
4368,-0.195,-0.095
4369,-0.215,-0.085
4370,-0.205,-0.075
4371,-0.195,-0.075
4372,-0.205,-0.075
4373,-0.215,-0.075
4374,-0.195,-0.065
4375,-0.205,-0.075
4376,-0.195,-0.085
4377,-0.195,-0.065
4378,-0.195,-0.065
4379,-0.195,-0.075
4380,-0.205,-0.075
4381,-0.195,-0.065
4382,-0.175,-0.055
4383,-0.195,-0.095
4384,-0.155,-0.095
4385,-0.175,-0.085
4386,-0.175,-0.075
4387,-0.185,-0.075
4388,-0.125,-0.075
4389,-0.085,-0.045
4390,-0.095,-0.045
4391,-0.045,-0.095
4392,-0.075,-0.085
4393,-0.125,-0.095
4394,-0.165,-0.085
4395,-0.145,-0.095
4396,-0.135,-0.105
4397,-0.145,-0.075
4398,-0.165,-0.065
4399,-0.165,-0.065
4400,-0.185,-0.075
4401,-0.175,-0.075
4402,-0.195,-0.045
4403,-0.135,-0.045
4404,-0.145,-0.065
4405,-0.125,-0.055
4406,-0.415,0.075
4407,-1.045,0.235
4408,-0.605,0.155
4409,1.015,-0.005
4410,2.725,-0.195
4411,3.175,-0.445
4412,2.965,-0.275
4413,1.745,-0.185
4414,-0.065,-0.675
4415,-0.355,-0.415
4416,-0.195,-0.095
4417,-0.245,0.005
4418,-0.305,-0.005
4419,-0.335,-0.005
4420,-0.335,-0.015
4421,-0.325,0.015
4422,-0.305,0.025
4423,-0.295,0.025
4424,-0.285,0.015
4425,-0.265,0.025
4426,-0.255,0.055
4427,-0.235,0.035
4428,-0.225,0.005
4429,-0.195,0.025
4430,-0.185,0.045
4431,-0.165,0.025
4432,-0.155,0.035
4433,-0.135,0.035
4434,-0.105,0.035
4435,-0.085,0.025
4436,-0.065,0.025
4437,-0.035,0.045
4438,-0.005,0.035
4439,0.035,0.005
4440,0.065,0.005
4441,0.125,0.005
4442,0.165,0.005
4443,0.195,-0.005
4444,0.215,-0.025
4445,0.235,-0.025
4446,0.225,-0.055
4447,0.205,-0.065
4448,0.155,-0.085
4449,0.085,-0.075
4450,0.015,-0.075
4451,-0.035,-0.085
4452,-0.115,-0.095
4453,-0.155,-0.065
4454,-0.205,-0.065
4455,-0.215,-0.075
4456,-0.215,-0.065
4457,-0.205,-0.065
4458,-0.215,-0.055
4459,-0.225,-0.065
4460,-0.235,-0.075
4461,-0.225,-0.075
4462,-0.205,-0.045
4463,-0.225,-0.055
4464,-0.225,-0.055
4465,-0.225,-0.045
4466,-0.195,-0.035
4467,-0.205,-0.055
4468,-0.205,-0.045
4469,-0.205,-0.045
4470,-0.185,-0.045
4471,-0.195,-0.055
4472,-0.205,-0.055
4473,-0.205,-0.065
4474,-0.195,-0.055
4475,-0.215,-0.045
4476,-0.225,-0.055
4477,-0.205,-0.055
4478,-0.205,-0.045
4479,-0.215,-0.065
4480,-0.225,-0.085
4481,-0.205,-0.065
4482,-0.195,-0.055
4483,-0.205,-0.065
4484,-0.215,-0.065
4485,-0.205,-0.075
4486,-0.205,-0.055
4487,-0.215,-0.065
4488,-0.215,-0.065
4489,-0.205,-0.065
4490,-0.195,-0.055
4491,-0.205,-0.065
4492,-0.205,-0.055
4493,-0.175,-0.065
4494,-0.155,-0.065
4495,-0.205,-0.065
4496,-0.205,-0.095
4497,-0.155,-0.065
4498,-0.085,-0.035
4499,-0.125,-0.015
4500,-0.105,-0.065
4501,-0.065,-0.075
4502,-0.105,-0.085
4503,-0.155,-0.085
4504,-0.165,-0.085
4505,-0.155,-0.085
4506,-0.145,-0.055
4507,-0.175,-0.065
4508,-0.195,-0.075
4509,-0.195,-0.065
4510,-0.185,-0.045
4511,-0.185,-0.055
4512,-0.195,-0.055
4513,-0.165,-0.055
4514,-0.115,-0.055
4515,-0.225,-0.025
4516,-0.885,0.205
4517,-0.795,0.225
4518,0.395,0.065
4519,2.295,-0.075
4520,3.045,-0.435
4521,3.055,-0.365
4522,2.505,-0.255
4523,0.445,-0.675
4524,-0.375,-0.545
4525,-0.165,-0.125
4526,-0.195,0.015
4527,-0.285,-0.005
4528,-0.325,-0.005
4529,-0.345,0.005
4530,-0.355,0.015
4531,-0.325,0.005
4532,-0.335,0.005
4533,-0.315,0.025
4534,-0.295,0.025
4535,-0.285,0.005
4536,-0.265,0.015
4537,-0.245,0.025
4538,-0.235,0.045
4539,-0.215,0.035
4540,-0.205,0.035
4541,-0.185,0.045
4542,-0.165,0.055
4543,-0.155,0.035
4544,-0.125,0.045
4545,-0.105,0.055
4546,-0.085,0.025
4547,-0.055,0.015
4548,-0.035,0.015
4549,0.035,0.005
4550,0.035,0.015
4551,0.095,-0.005
4552,0.145,-0.005
4553,0.165,-0.005
4554,0.205,-0.025
4555,0.215,-0.035
4556,0.215,-0.055
4557,0.175,-0.085
4558,0.145,-0.085
4559,0.055,-0.085
4560,0.005,-0.095
4561,-0.055,-0.085
4562,-0.115,-0.075
4563,-0.165,-0.085
4564,-0.195,-0.085
4565,-0.205,-0.075
4566,-0.225,-0.065
4567,-0.225,-0.085
4568,-0.225,-0.085
4569,-0.225,-0.075
4570,-0.215,-0.075
4571,-0.215,-0.065
4572,-0.225,-0.065
4573,-0.225,-0.075
4574,-0.225,-0.065
4575,-0.215,-0.085
4576,-0.235,-0.075
4577,-0.215,-0.065
4578,-0.215,-0.065
4579,-0.225,-0.065
4580,-0.215,-0.085
4581,-0.215,-0.075
4582,-0.215,-0.065
4583,-0.215,-0.065
4584,-0.225,-0.065
4585,-0.215,-0.075
4586,-0.215,-0.085
4587,-0.225,-0.085
4588,-0.235,-0.085
4589,-0.215,-0.095
4590,-0.205,-0.085
4591,-0.215,-0.085
4592,-0.225,-0.085
4593,-0.215,-0.095
4594,-0.205,-0.095
4595,-0.215,-0.085
4596,-0.215,-0.085
4597,-0.205,-0.095
4598,-0.205,-0.085
4599,-0.205,-0.105
4600,-0.205,-0.085
4601,-0.205,-0.085
4602,-0.205,-0.095
4603,-0.195,-0.095
4604,-0.195,-0.095
4605,-0.205,-0.105
4606,-0.195,-0.085
4607,-0.195,-0.095
4608,-0.205,-0.095
4609,-0.185,-0.095
4610,-0.185,-0.085
4611,-0.185,-0.095
4612,-0.195,-0.115
4613,-0.175,-0.115
4614,-0.165,-0.085
4615,-0.185,-0.095
4616,-0.185,-0.095
4617,-0.155,-0.095
4618,-0.085,-0.085
4619,-0.105,-0.065
4620,-0.075,-0.115
4621,-0.045,-0.115
4622,-0.105,-0.125
4623,-0.165,-0.105
4624,-0.155,-0.115
4625,-0.125,-0.125
4626,-0.165,-0.075
4627,-0.185,-0.085
4628,-0.205,-0.105
4629,-0.195,-0.115
4630,-0.195,-0.085
4631,-0.185,-0.095
4632,-0.175,-0.095
4633,-0.175,-0.085
4634,-0.145,-0.065
4635,-0.195,-0.055
4636,-0.845,0.175
4637,-0.855,0.155
4638,0.445,-0.075
4639,2.325,-0.205
4640,3.035,-0.405
4641,2.895,-0.265
4642,2.125,-0.195
4643,0.185,-0.785
4644,-0.385,-0.535
4645,-0.195,-0.145
4646,-0.195,-0.035
4647,-0.295,-0.045
4648,-0.345,-0.055
4649,-0.345,-0.045
4650,-0.335,-0.025
4651,-0.325,-0.035
4652,-0.325,-0.025
4653,-0.305,-0.025
4654,-0.295,-0.015
4655,-0.295,-0.025
4656,-0.275,-0.035
4657,-0.255,-0.035
4658,-0.245,-0.025
4659,-0.235,-0.025
4660,-0.235,-0.055
4661,-0.205,-0.045
4662,-0.185,-0.035
4663,-0.175,-0.045
4664,-0.165,-0.065
4665,-0.145,-0.075
4666,-0.115,-0.055
4667,-0.095,-0.075
4668,-0.075,-0.095
4669,-0.035,-0.095
4670,0.005,-0.095
4671,0.035,-0.105
4672,0.065,-0.115
4673,0.095,-0.135
4674,0.115,-0.125
4675,0.125,-0.135
4676,0.125,-0.145
4677,0.115,-0.145
4678,0.095,-0.155
4679,0.035,-0.155
4680,-0.025,-0.145
4681,-0.085,-0.135
4682,-0.115,-0.105
4683,-0.155,-0.095
4684,-0.205,-0.095
4685,-0.215,-0.105
4686,-0.215,-0.085
4687,-0.225,-0.095
4688,-0.225,-0.085
4689,-0.215,-0.075
4690,-0.215,-0.075
4691,-0.215,-0.075
4692,-0.235,-0.085
4693,-0.225,-0.075
4694,-0.215,-0.055
4695,-0.235,-0.065
4696,-0.225,-0.105
4697,-0.225,-0.095
4698,-0.225,-0.065
4699,-0.225,-0.065
4700,-0.235,-0.075
4701,-0.215,-0.075
4702,-0.205,-0.065
4703,-0.225,-0.075
4704,-0.215,-0.075
4705,-0.215,-0.075
4706,-0.215,-0.065
4707,-0.225,-0.065
4708,-0.235,-0.085
4709,-0.225,-0.095
4710,-0.215,-0.075
4711,-0.225,-0.085
4712,-0.225,-0.085
4713,-0.215,-0.095
4714,-0.225,-0.085
4715,-0.215,-0.085
4716,-0.205,-0.095
4717,-0.215,-0.085
4718,-0.195,-0.075
4719,-0.215,-0.085
4720,-0.205,-0.085
4721,-0.205,-0.085
4722,-0.195,-0.075
4723,-0.185,-0.095
4724,-0.195,-0.105
4725,-0.185,-0.095
4726,-0.185,-0.085
4727,-0.185,-0.095
4728,-0.185,-0.095
4729,-0.185,-0.095
4730,-0.175,-0.085
4731,-0.165,-0.095
4732,-0.185,-0.095
4733,-0.165,-0.085
4734,-0.165,-0.085
4735,-0.175,-0.105
4736,-0.165,-0.105
4737,-0.165,-0.095
4738,-0.165,-0.095
4739,-0.165,-0.105
4740,-0.135,-0.115
4741,-0.145,-0.085
4742,-0.145,-0.085
4743,-0.155,-0.095
4744,-0.155,-0.085
4745,-0.135,-0.105
4746,-0.125,-0.095
4747,-0.155,-0.105
4748,-0.145,-0.105
4749,-0.085,-0.085
4750,-0.065,-0.065
4751,-0.075,-0.075
4752,-0.005,-0.115
4753,-0.035,-0.125
4754,-0.095,-0.115
4755,-0.115,-0.115
4756,-0.105,-0.115
4757,-0.105,-0.085
4758,-0.145,-0.085
4759,-0.155,-0.105
4760,-0.125,-0.105
4761,-0.155,-0.075
4762,-0.145,-0.065
4763,-0.155,-0.095
4764,-0.155,-0.095
4765,-0.125,-0.075
4766,-0.085,-0.065
4767,-0.235,-0.015
4768,-0.915,0.155
4769,-0.895,0.075
4770,0.355,-0.155
4771,2.315,-0.305
4772,3.095,-0.245
4773,2.885,-0.125
4774,2.535,0.135
4775,0.595,-0.395
4776,-0.405,-0.685
4777,-0.295,-0.315
4778,-0.165,-0.075
4779,-0.215,-0.045
4780,-0.295,-0.075
4781,-0.315,-0.075
4782,-0.295,-0.035
4783,-0.305,-0.035
4784,-0.295,-0.055
4785,-0.285,-0.055
4786,-0.275,-0.025
4787,-0.275,-0.045
4788,-0.255,-0.065
4789,-0.225,-0.085
4790,-0.245,-0.055
4791,-0.235,-0.065
4792,-0.215,-0.075
4793,-0.185,-0.085
4794,-0.185,-0.085
4795,-0.135,-0.115
4796,-0.135,-0.105
4797,-0.095,-0.105
4798,-0.085,-0.115
4799,-0.055,-0.125
4800,-0.015,-0.135
4801,0.015,-0.135
4802,0.045,-0.135
4803,0.085,-0.155
4804,0.135,-0.185
4805,0.185,-0.185
4806,0.185,-0.165
4807,0.185,-0.185
4808,0.175,-0.185
4809,0.195,-0.195
4810,0.175,-0.165
4811,0.105,-0.155
4812,0.045,-0.165
4813,-0.005,-0.125
4814,-0.025,-0.085
4815,-0.075,-0.095
4816,-0.115,-0.095
4817,-0.155,-0.095
4818,-0.155,-0.065
4819,-0.165,-0.065
4820,-0.195,-0.055
4821,-0.195,-0.045
4822,-0.175,-0.055
4823,-0.195,-0.075
4824,-0.185,-0.055
4825,-0.175,-0.055
4826,-0.175,-0.035
4827,-0.175,-0.065
4828,-0.175,-0.045
4829,-0.195,-0.055
4830,-0.175,-0.045
4831,-0.155,-0.065
4832,-0.165,-0.055
4833,-0.185,-0.045
4834,-0.145,-0.055
4835,-0.165,-0.065
4836,-0.175,-0.055
4837,-0.165,-0.065
4838,-0.165,-0.055
4839,-0.175,-0.045
4840,-0.155,-0.065
4841,-0.155,-0.065
4842,-0.175,-0.055
4843,-0.165,-0.055
4844,-0.175,-0.075
4845,-0.175,-0.065
4846,-0.155,-0.055
4847,-0.165,-0.065
4848,-0.155,-0.075
4849,-0.155,-0.045
4850,-0.135,-0.065
4851,-0.145,-0.065
4852,-0.155,-0.075
4853,-0.145,-0.075
4854,-0.155,-0.065
4855,-0.145,-0.055
4856,-0.135,-0.075
4857,-0.125,-0.075
4858,-0.145,-0.055
4859,-0.135,-0.075
4860,-0.155,-0.065
4861,-0.135,-0.065
4862,-0.115,-0.065
4863,-0.125,-0.075
4864,-0.125,-0.075
4865,-0.135,-0.055
4866,-0.105,-0.055
4867,-0.105,-0.085
4868,-0.105,-0.075
4869,-0.115,-0.055
4870,-0.115,-0.055
4871,-0.115,-0.085
4872,-0.115,-0.085
4873,-0.045,-0.065
4874,-0.035,-0.025
4875,-0.035,-0.045
4876,0.005,-0.075
4877,-0.015,-0.075
4878,-0.075,-0.085
4879,-0.095,-0.075
4880,-0.065,-0.075
4881,-0.065,-0.055
4882,-0.095,-0.045
4883,-0.095,-0.055
4884,-0.115,-0.055
4885,-0.105,-0.045
4886,-0.105,-0.045
4887,-0.095,-0.055
4888,-0.095,-0.045
4889,-0.055,-0.045
4890,-0.055,-0.045
4891,-0.395,0.055
4892,-1.075,0.225
4893,-0.595,0.175
4894,1.035,0.005
4895,2.845,-0.215
4896,3.295,-0.375
4897,3.065,-0.185
4898,1.885,0.005
4899,0.065,-0.545
4900,-0.345,-0.445
4901,-0.155,-0.155
4902,-0.125,-0.005
4903,-0.215,0.015
4904,-0.255,0.005
4905,-0.255,0.015
4906,-0.235,0.035
4907,-0.235,0.025
4908,-0.225,0.015
4909,-0.205,0.035
4910,-0.195,0.055
4911,-0.185,0.045
4912,-0.185,0.025
4913,-0.155,0.035
4914,-0.135,0.055
4915,-0.105,0.045
4916,-0.105,0.025
4917,-0.095,0.035
4918,-0.085,0.035
4919,-0.055,0.025
4920,-0.045,0.025
4921,0.005,0.025
4922,0.005,0.025
4923,0.075,0.015
4924,0.085,0.015
4925,0.135,0.015
4926,0.185,0.015
4927,0.215,0.015
4928,0.265,-0.015
4929,0.305,-0.015
4930,0.335,-0.025
4931,0.345,-0.045
4932,0.345,-0.065
4933,0.305,-0.075
4934,0.255,-0.075
4935,0.165,-0.065
4936,0.105,-0.065
4937,0.035,-0.065
4938,-0.025,-0.055
4939,-0.075,-0.055
4940,-0.125,-0.055
4941,-0.145,-0.045
4942,-0.145,-0.035
4943,-0.155,-0.035
4944,-0.165,-0.045
4945,-0.175,-0.035
4946,-0.165,-0.025
4947,-0.155,-0.035
4948,-0.165,-0.035
4949,-0.165,-0.025
4950,-0.145,-0.025
4951,-0.175,-0.035
4952,-0.155,-0.035
4953,-0.155,-0.055
4954,-0.145,-0.035
4955,-0.165,-0.045
4956,-0.155,-0.035
4957,-0.145,-0.035
4958,-0.165,-0.025
4959,-0.155,-0.035
4960,-0.165,-0.045
4961,-0.165,-0.035
4962,-0.155,-0.035
4963,-0.155,-0.055
4964,-0.155,-0.055
4965,-0.135,-0.045
4966,-0.145,-0.035
4967,-0.155,-0.035
4968,-0.165,-0.055
4969,-0.155,-0.055
4970,-0.145,-0.055
4971,-0.135,-0.055
4972,-0.165,-0.055
4973,-0.155,-0.065
4974,-0.125,-0.045
4975,-0.145,-0.045
4976,-0.145,-0.055
4977,-0.135,-0.055
4978,-0.135,-0.045
4979,-0.145,-0.045
4980,-0.145,-0.055
4981,-0.125,-0.065
4982,-0.125,-0.045
4983,-0.145,-0.045
4984,-0.125,-0.045
4985,-0.115,-0.055
4986,-0.115,-0.045
4987,-0.115,-0.055
4988,-0.135,-0.075
4989,-0.115,-0.065
4990,-0.045,-0.035
4991,-0.025,-0.015
4992,-0.055,-0.035
4993,0.005,-0.065
4994,-0.015,-0.045
4995,-0.075,-0.075
4996,-0.105,-0.075
4997,-0.095,-0.065
4998,-0.065,-0.055
4999,-0.105,-0.035
5000,-0.125,-0.045
5001,-0.135,-0.045
5002,-0.115,-0.045
5003,-0.115,-0.045
5004,-0.125,-0.045
5005,-0.115,-0.045
5006,-0.075,-0.025
5007,-0.085,-0.035
5008,-0.415,0.135
5009,-0.965,0.285
5010,-0.465,0.185
5011,1.265,-0.005
5012,2.875,-0.265
5013,3.235,-0.455
5014,3.065,-0.195
5015,1.545,-0.355
5016,-0.095,-0.745
5017,-0.295,-0.325
5018,-0.085,-0.035
5019,-0.155,0.035
5020,-0.245,0.005
5021,-0.275,0.015
5022,-0.275,0.035
5023,-0.265,0.035
5024,-0.265,0.025
5025,-0.255,0.035
5026,-0.225,0.065
5027,-0.225,0.055
5028,-0.205,0.035
5029,-0.205,0.045
5030,-0.185,0.045
5031,-0.185,0.045
5032,-0.165,0.035
5033,-0.155,0.045
5034,-0.135,0.045
5035,-0.115,0.035
5036,-0.085,0.035
5037,-0.065,0.035
5038,-0.045,0.025
5039,-0.005,0.015
5040,0.015,0.015
5041,0.035,0.025
5042,0.105,0.025
5043,0.125,0.015
5044,0.175,-0.005
5045,0.215,-0.015
5046,0.265,-0.015
5047,0.295,-0.045
5048,0.295,-0.055
5049,0.285,-0.075
5050,0.225,-0.075
5051,0.175,-0.085
5052,0.085,-0.095
5053,0.015,-0.075
5054,-0.045,-0.065
5055,-0.115,-0.075
5056,-0.145,-0.065
5057,-0.165,-0.055
5058,-0.165,-0.055
5059,-0.185,-0.055
5060,-0.185,-0.055
5061,-0.185,-0.065
5062,-0.175,-0.065
5063,-0.195,-0.055
5064,-0.175,-0.065
5065,-0.185,-0.055
5066,-0.175,-0.035
5067,-0.185,-0.045
5068,-0.185,-0.065
5069,-0.175,-0.045
5070,-0.185,-0.035
5071,-0.185,-0.045
5072,-0.175,-0.055
5073,-0.185,-0.055
5074,-0.175,-0.055
5075,-0.185,-0.055
5076,-0.175,-0.055
5077,-0.185,-0.065
5078,-0.185,-0.065
5079,-0.185,-0.065
5080,-0.185,-0.075
5081,-0.175,-0.065
5082,-0.185,-0.055
5083,-0.185,-0.065
5084,-0.175,-0.075
5085,-0.185,-0.075
5086,-0.165,-0.055
5087,-0.175,-0.065
5088,-0.175,-0.085
5089,-0.165,-0.075
5090,-0.165,-0.075
5091,-0.155,-0.085
5092,-0.165,-0.095
5093,-0.155,-0.075
5094,-0.155,-0.065
5095,-0.165,-0.075
5096,-0.135,-0.095
5097,-0.135,-0.085
5098,-0.135,-0.075
5099,-0.155,-0.075
5100,-0.155,-0.075
5101,-0.155,-0.085
5102,-0.135,-0.075
5103,-0.135,-0.085
5104,-0.145,-0.085
5105,-0.135,-0.095
5106,-0.135,-0.075
5107,-0.135,-0.085
5108,-0.135,-0.095
5109,-0.135,-0.075
5110,-0.125,-0.085
5111,-0.135,-0.095
5112,-0.085,-0.095
5113,-0.035,-0.055
5114,-0.055,-0.065
5115,-0.015,-0.115
5116,-0.025,-0.095
5117,-0.075,-0.115
5118,-0.105,-0.115
5119,-0.105,-0.105
5120,-0.105,-0.095
5121,-0.115,-0.085
5122,-0.135,-0.055
5123,-0.135,-0.075
5124,-0.145,-0.115
5125,-0.145,-0.095
5126,-0.125,-0.075
5127,-0.125,-0.075
5128,-0.115,-0.085
5129,-0.095,-0.075
5130,-0.235,0.015
5131,-0.865,0.215
5132,-0.815,0.155
5133,0.575,-0.065
5134,2.545,-0.215
5135,3.175,-0.415
5136,3.055,-0.275
5137,2.165,-0.215
5138,0.185,-0.795
5139,-0.355,-0.495
5140,-0.145,-0.145
5141,-0.155,-0.035
5142,-0.235,-0.025
5143,-0.285,-0.035
5144,-0.295,-0.045
5145,-0.285,-0.025
5146,-0.275,-0.005
5147,-0.265,-0.015
5148,-0.255,-0.025
5149,-0.245,-0.015
5150,-0.235,-0.015
5151,-0.225,-0.015
5152,-0.215,-0.025
5153,-0.205,-0.015
5154,-0.175,-0.005
5155,-0.175,-0.015
5156,-0.155,-0.025
5157,-0.145,-0.035
5158,-0.125,-0.045
5159,-0.105,-0.045
5160,-0.075,-0.035
5161,-0.045,-0.055
5162,-0.025,-0.045
5163,-0.005,-0.065
5164,0.055,-0.075
5165,0.095,-0.085
5166,0.135,-0.085
5167,0.175,-0.095
5168,0.195,-0.105
5169,0.225,-0.115
5170,0.225,-0.105
5171,0.225,-0.135
5172,0.205,-0.145
5173,0.155,-0.145
5174,0.095,-0.125
5175,0.055,-0.135
5176,-0.015,-0.145
5177,-0.105,-0.105
5178,-0.085,-0.085
5179,-0.125,-0.105
5180,-0.165,-0.115
5181,-0.165,-0.095
5182,-0.165,-0.085
5183,-0.175,-0.095
5184,-0.175,-0.105
5185,-0.175,-0.095
5186,-0.175,-0.075
5187,-0.175,-0.065
5188,-0.175,-0.095
5189,-0.175,-0.085
5190,-0.175,-0.085
5191,-0.185,-0.075
5192,-0.155,-0.085
5193,-0.175,-0.075
5194,-0.175,-0.075
5195,-0.175,-0.075
5196,-0.175,-0.085
5197,-0.165,-0.075
5198,-0.175,-0.055
5199,-0.185,-0.085
5200,-0.165,-0.085
5201,-0.165,-0.085
5202,-0.185,-0.095
5203,-0.175,-0.085
5204,-0.175,-0.095
5205,-0.165,-0.095
5206,-0.155,-0.085
5207,-0.165,-0.085
5208,-0.175,-0.095
5209,-0.165,-0.095
5210,-0.155,-0.085
5211,-0.165,-0.095
5212,-0.175,-0.095
5213,-0.145,-0.095
5214,-0.145,-0.085
5215,-0.145,-0.095
5216,-0.165,-0.105
5217,-0.145,-0.095
5218,-0.145,-0.095
5219,-0.145,-0.105
5220,-0.145,-0.095
5221,-0.135,-0.105
5222,-0.135,-0.085
5223,-0.145,-0.095
5224,-0.145,-0.105
5225,-0.125,-0.105
5226,-0.125,-0.105
5227,-0.115,-0.115
5228,-0.135,-0.105
5229,-0.125,-0.115
5230,-0.115,-0.095
5231,-0.135,-0.095
5232,-0.135,-0.105
5233,-0.105,-0.105
5234,-0.115,-0.095
5235,-0.125,-0.095
5236,-0.135,-0.115
5237,-0.125,-0.115
5238,-0.115,-0.115
5239,-0.075,-0.115
5240,-0.025,-0.105
5241,-0.045,-0.085
5242,-0.015,-0.125
5243,-0.005,-0.095
5244,-0.065,-0.135
5245,-0.095,-0.135
5246,-0.085,-0.115
5247,-0.075,-0.115
5248,-0.095,-0.105
5249,-0.115,-0.105
5250,-0.125,-0.105
5251,-0.135,-0.125
5252,-0.145,-0.105
5253,-0.115,-0.075
5254,-0.115,-0.105
5255,-0.105,-0.095
5256,-0.085,-0.075
5257,-0.155,-0.045
5258,-0.755,0.195
5259,-0.855,0.145
5260,0.255,-0.095
5261,2.165,-0.225
5262,3.085,-0.415
5263,3.075,-0.305
5264,2.485,-0.205
5265,0.455,-0.785
5266,-0.325,-0.595
5267,-0.155,-0.175
5268,-0.125,-0.045
5269,-0.235,-0.025
5270,-0.275,-0.035
5271,-0.295,-0.035
5272,-0.285,-0.025
5273,-0.285,-0.015
5274,-0.265,0.005
5275,-0.255,-0.025
5276,-0.255,-0.025
5277,-0.235,-0.005
5278,-0.215,-0.005
5279,-0.215,-0.015
5280,-0.215,-0.005
5281,-0.175,0.005
5282,-0.175,0.005
5283,-0.155,-0.005
5284,-0.155,-0.025
5285,-0.125,-0.015
5286,-0.105,-0.015
5287,-0.095,-0.015
5288,-0.095,-0.025
5289,-0.035,-0.035
5290,0.005,-0.035
5291,0.025,-0.045
5292,0.055,-0.055
5293,0.085,-0.075
5294,0.165,-0.055
5295,0.145,-0.075
5296,0.195,-0.105
5297,0.245,-0.115
5298,0.225,-0.105
5299,0.225,-0.125
5300,0.185,-0.135
5301,0.125,-0.135
5302,0.065,-0.115
5303,-0.005,-0.125
5304,-0.065,-0.115
5305,-0.135,-0.095
5306,-0.155,-0.085
5307,-0.175,-0.085
5308,-0.195,-0.085
5309,-0.185,-0.085
5310,-0.195,-0.065
5311,-0.195,-0.085
5312,-0.185,-0.075
5313,-0.195,-0.065
5314,-0.205,-0.065
5315,-0.195,-0.075
5316,-0.185,-0.075
5317,-0.195,-0.085
5318,-0.215,-0.055
5319,-0.185,-0.065
5320,-0.185,-0.065
5321,-0.195,-0.065
5322,-0.195,-0.065
5323,-0.205,-0.075
5324,-0.195,-0.075
5325,-0.205,-0.075
5326,-0.205,-0.065
5327,-0.205,-0.085
5328,-0.195,-0.085
5329,-0.195,-0.075
5330,-0.185,-0.065
5331,-0.215,-0.085
5332,-0.215,-0.085
5333,-0.225,-0.065
5334,-0.195,-0.065
5335,-0.185,-0.075
5336,-0.195,-0.075
5337,-0.185,-0.075
5338,-0.195,-0.095
5339,-0.195,-0.085
5340,-0.195,-0.095
5341,-0.205,-0.095
5342,-0.185,-0.085
5343,-0.175,-0.115
5344,-0.195,-0.085
5345,-0.185,-0.075
5346,-0.175,-0.065
5347,-0.155,-0.095
5348,-0.175,-0.095
5349,-0.215,-0.085
5350,-0.195,-0.085
5351,-0.185,-0.095
5352,-0.175,-0.105
5353,-0.165,-0.095
5354,-0.165,-0.085
5355,-0.165,-0.085
5356,-0.205,-0.095
5357,-0.175,-0.095
5358,-0.175,-0.085
5359,-0.155,-0.095
5360,-0.175,-0.095
5361,-0.155,-0.085
5362,-0.075,-0.065
5363,-0.105,-0.055
5364,-0.095,-0.095
5365,-0.055,-0.095
5366,-0.085,-0.125
5367,-0.145,-0.125
5368,-0.145,-0.125
5369,-0.125,-0.095
5370,-0.135,-0.065
5371,-0.175,-0.075
5372,-0.215,-0.085
5373,-0.165,-0.095
5374,-0.165,-0.095
5375,-0.175,-0.095
5376,-0.185,-0.095
5377,-0.175,-0.085
5378,-0.125,-0.065
5379,-0.215,-0.025
5380,-0.815,0.205
5381,-0.935,0.145
5382,0.075,-0.085
5383,2.025,-0.225
5384,3.015,-0.395
5385,3.025,-0.265
5386,2.625,-0.055
5387,0.585,-0.615
5388,-0.395,-0.685
5389,-0.265,-0.235
5390,-0.195,-0.045
5391,-0.285,-0.035
5392,-0.345,-0.075
5393,-0.345,-0.035
5394,-0.355,-0.015
5395,-0.345,-0.015
5396,-0.335,-0.015
5397,-0.325,-0.025
5398,-0.335,-0.035
5399,-0.295,-0.045
5400,-0.295,-0.035
5401,-0.265,-0.025
5402,-0.265,-0.035
5403,-0.245,-0.045
5404,-0.245,-0.055
5405,-0.225,-0.045
5406,-0.215,-0.055
5407,-0.165,-0.055
5408,-0.185,-0.055
5409,-0.155,-0.035
5410,-0.115,-0.025
5411,-0.085,-0.105
5412,-0.085,-0.145
5413,-0.035,-0.135
5414,-0.005,-0.115
5415,0.065,-0.115
5416,0.125,-0.165
5417,0.115,-0.155
5418,0.155,-0.155
5419,0.175,-0.155
5420,0.155,-0.165
5421,0.145,-0.185
5422,0.145,-0.185
5423,0.065,-0.165
5424,-0.005,-0.155
5425,-0.075,-0.155
5426,-0.105,-0.135
5427,-0.185,-0.115
5428,-0.205,-0.095
5429,-0.255,-0.085
5430,-0.225,-0.085
5431,-0.255,-0.075
5432,-0.245,-0.085
5433,-0.245,-0.085
5434,-0.245,-0.085
5435,-0.255,-0.075
5436,-0.245,-0.075
5437,-0.255,-0.085
5438,-0.285,-0.085
5439,-0.275,-0.065
5440,-0.275,-0.025
5441,-0.215,-0.075
5442,-0.235,-0.105
5443,-0.205,-0.075
5444,-0.245,-0.075
5445,-0.245,-0.075
5446,-0.245,-0.065
5447,-0.225,-0.065
5448,-0.275,-0.085
5449,-0.235,-0.075
5450,-0.235,-0.055
5451,-0.225,-0.065
5452,-0.235,-0.075
5453,-0.265,-0.065
5454,-0.235,-0.085
5455,-0.235,-0.095
5456,-0.205,-0.095
5457,-0.225,-0.075
5458,-0.235,-0.065
5459,-0.235,-0.085
5460,-0.235,-0.095
5461,-0.235,-0.085
5462,-0.205,-0.065
5463,-0.215,-0.075
5464,-0.215,-0.085
5465,-0.245,-0.085
5466,-0.205,-0.075
5467,-0.215,-0.095
5468,-0.255,-0.085
5469,-0.185,-0.085
5470,-0.175,-0.085
5471,-0.185,-0.095
5472,-0.195,-0.095
5473,-0.215,-0.085
5474,-0.185,-0.075
5475,-0.185,-0.095
5476,-0.225,-0.105
5477,-0.185,-0.085
5478,-0.165,-0.065
5479,-0.115,-0.085
5480,-0.105,-0.085
5481,-0.075,-0.115
5482,-0.065,-0.105
5483,-0.105,-0.125
5484,-0.165,-0.105
5485,-0.175,-0.105
5486,-0.145,-0.105
5487,-0.165,-0.075
5488,-0.175,-0.075
5489,-0.195,-0.075
5490,-0.185,-0.075
5491,-0.185,-0.095
5492,-0.205,-0.095
5493,-0.185,-0.075
5494,-0.175,-0.055
5495,-0.145,-0.065
5496,-0.225,-0.045
5497,-0.865,0.175
5498,-1.045,0.135
5499,0.005,-0.115
5500,1.995,-0.315
5501,3.015,-0.275
5502,2.915,-0.145
5503,2.565,0.145
5504,0.625,-0.345
5505,-0.425,-0.705
5506,-0.325,-0.315
5507,-0.195,-0.125
5508,-0.265,-0.055
5509,-0.355,-0.045
5510,-0.345,-0.065
5511,-0.345,-0.045
5512,-0.325,-0.025
5513,-0.335,-0.045
5514,-0.305,-0.045
5515,-0.285,-0.065
5516,-0.285,-0.075
5517,-0.285,-0.025
5518,-0.275,-0.045
5519,-0.225,-0.095
5520,-0.245,-0.045
5521,-0.215,-0.055
5522,-0.185,-0.065
5523,-0.185,-0.095
5524,-0.175,-0.095
5525,-0.135,-0.105
5526,-0.115,-0.095
5527,-0.065,-0.135
5528,-0.035,-0.145
5529,0.005,-0.125
5530,0.075,-0.155
5531,0.115,-0.145
5532,0.095,-0.185
5533,0.135,-0.175
5534,0.115,-0.165
5535,0.195,-0.185
5536,0.215,-0.185
5537,0.165,-0.165
5538,0.165,-0.125
5539,0.185,-0.235
5540,0.215,-0.205
5541,0.065,-0.145
5542,-0.095,-0.135
5543,-0.095,-0.135
5544,-0.175,-0.095
5545,-0.225,-0.065
5546,-0.225,-0.005
5547,-0.245,-0.025
5548,-0.285,-0.025
5549,-0.245,-0.015
5550,-0.255,-0.105
5551,-0.285,-0.095
5552,-0.205,0.045
5553,-0.205,-0.065
5554,-0.185,-0.035
5555,-0.315,-0.065
5556,-0.285,-0.055
5557,-0.195,-0.045
5558,-0.245,-0.045
5559,-0.275,0.015
5560,-0.205,-0.015
5561,-0.185,-0.055
5562,-0.265,-0.075
5563,-0.225,-0.035
5564,-0.245,-0.045
5565,-0.195,0.005
5566,-0.285,-0.035
5567,-0.225,-0.015
5568,-0.155,-0.025
5569,-0.265,-0.115
5570,-0.245,0.015
5571,-0.225,-0.055
5572,-0.235,-0.095
5573,-0.215,0.025
5574,-0.245,-0.065
5575,-0.285,-0.015
5576,-0.225,0.005
5577,-0.205,-0.085
5578,-0.185,-0.085
5579,-0.205,-0.055
5580,-0.245,-0.045
5581,-0.125,-0.025
5582,-0.185,-0.045
5583,-0.315,-0.075
5584,-0.205,-0.015
5585,-0.135,0.025
5586,-0.125,-0.005
5587,-0.105,-0.125
5588,-0.095,-0.055
5589,-0.145,0.005
5590,-0.155,-0.125
5591,-0.115,-0.075
5592,-0.225,-0.025
5593,-0.235,-0.025
5594,-0.225,-0.025
5595,-0.205,-0.035
5596,-0.235,-0.055
5597,-0.215,-0.045
5598,-0.135,-0.025
5599,-0.235,-0.045
5600,-0.225,-0.055
5601,-0.135,-0.045
5602,-0.255,0.065
5603,-1.065,0.205
5604,-1.045,0.135
5605,0.275,-0.055
5606,2.245,-0.165
5607,3.135,-0.205
5608,2.985,-0.155
5609,2.415,0.185
5610,0.465,-0.225
5611,-0.425,-0.615
5612,-0.265,-0.285
5613,-0.175,-0.045
5614,-0.335,-0.015
5615,-0.365,-0.055
5616,-0.295,-0.025
5617,-0.355,-0.035
5618,-0.335,-0.015
5619,-0.285,-0.025
5620,-0.305,-0.035
5621,-0.315,-0.025
5622,-0.255,-0.015
5623,-0.195,-0.035
5624,-0.205,-0.025
5625,-0.275,-0.025
5626,-0.215,-0.075
5627,-0.235,-0.065
5628,-0.205,-0.055
5629,-0.095,-0.015
5630,-0.125,-0.125
5631,-0.085,-0.115
5632,-0.055,-0.085
5633,0.015,-0.105
5634,0.095,-0.095
5635,-0.005,-0.115
5636,0.055,-0.135
5637,0.175,-0.105
5638,0.225,-0.115
5639,0.185,-0.145
5640,0.235,-0.165
5641,0.275,-0.155
5642,0.275,-0.175
5643,0.255,-0.165
5644,0.235,-0.205
5645,0.155,-0.165
5646,0.135,-0.135
5647,-0.005,-0.135
5648,-0.105,-0.125
5649,-0.185,-0.055
5650,-0.205,-0.035
5651,-0.245,-0.045
5652,-0.255,-0.065
5653,-0.265,-0.065
5654,-0.235,-0.055
5655,-0.235,-0.035
5656,-0.255,-0.015
5657,-0.235,-0.075
5658,-0.145,-0.065
5659,-0.285,-0.035
5660,-0.275,-0.035
5661,-0.265,-0.035
5662,-0.215,-0.025
5663,-0.235,-0.075
5664,-0.225,-0.065
5665,-0.215,-0.065
5666,-0.225,-0.055
5667,-0.185,-0.055
5668,-0.165,-0.045
5669,-0.255,-0.075
5670,-0.215,-0.065
5671,-0.215,-0.035
5672,-0.225,-0.075
5673,-0.245,-0.015
5674,-0.205,-0.045
5675,-0.205,-0.125
5676,-0.225,-0.105
5677,-0.205,-0.065
5678,-0.165,-0.065
5679,-0.215,-0.075
5680,-0.205,-0.095
5681,-0.215,-0.065
5682,-0.225,-0.025
5683,-0.165,-0.065
5684,-0.105,-0.055
5685,-0.145,-0.065
5686,-0.045,-0.105
5687,-0.075,-0.115
5688,-0.155,-0.105
5689,-0.185,-0.125
5690,-0.165,-0.095
5691,-0.185,-0.075
5692,-0.175,-0.065
5693,-0.195,-0.065
5694,-0.225,-0.095
5695,-0.225,-0.075
5696,-0.225,-0.095
5697,-0.215,-0.045
5698,-0.205,-0.085
5699,-0.185,-0.055
5700,-0.165,-0.095
5701,-0.245,-0.045
5702,-0.785,0.145
5703,-1.145,0.165
5704,-0.255,0.025
5705,1.895,-0.115
5706,3.105,-0.275
5707,3.165,-0.275
5708,2.755,-0.025
5709,0.655,-0.545
5710,-0.405,-0.675
5711,-0.275,-0.255
5712,-0.215,-0.035
5713,-0.275,-0.075
5714,-0.315,-0.045
5715,-0.375,0.005
5716,-0.355,-0.075
5717,-0.335,-0.025
5718,-0.315,-0.015
5719,-0.285,-0.065
5720,-0.285,-0.065
5721,-0.305,-0.045
5722,-0.275,-0.025
5723,-0.225,-0.025
5724,-0.245,-0.045
5725,-0.225,-0.025
5726,-0.245,-0.015
5727,-0.195,-0.025
5728,-0.165,-0.055
5729,-0.135,-0.085
5730,-0.085,-0.045
5731,-0.065,-0.035
5732,-0.035,-0.095
5733,-0.005,-0.115
5734,0.075,-0.085
5735,0.105,-0.095
5736,0.135,-0.125
5737,0.195,-0.115
5738,0.265,-0.125
5739,0.305,-0.125
5740,0.315,-0.135
5741,0.315,-0.165
5742,0.285,-0.135
5743,0.215,-0.125
5744,0.175,-0.155
5745,0.075,-0.165
5746,-0.075,-0.125
5747,-0.135,-0.115
5748,-0.165,-0.105
5749,-0.225,-0.095
5750,-0.225,-0.095
5751,-0.225,-0.075
5752,-0.235,-0.105
5753,-0.275,-0.095
5754,-0.225,-0.095
5755,-0.275,-0.105
5756,-0.265,-0.105
5757,-0.245,-0.125
5758,-0.245,-0.085
5759,-0.245,-0.065
5760,-0.285,-0.055
5761,-0.195,-0.055
5762,-0.225,-0.105
5763,-0.255,-0.075
5764,-0.215,-0.085
5765,-0.215,-0.125
5766,-0.235,-0.095
5767,-0.235,-0.075
5768,-0.245,-0.085
5769,-0.235,-0.085
5770,-0.185,-0.115
5771,-0.235,-0.095
5772,-0.235,-0.085
5773,-0.215,-0.095
5774,-0.165,-0.085
5775,-0.205,-0.105
5776,-0.265,-0.095
5777,-0.225,-0.085
5778,-0.215,-0.095
5779,-0.225,-0.115
5780,-0.205,-0.115
5781,-0.145,-0.085
5782,-0.125,-0.025
5783,-0.165,-0.085
5784,-0.065,-0.125
5785,-0.055,-0.135
5786,-0.135,-0.105
5787,-0.135,-0.125
5788,-0.225,-0.125
5789,-0.195,-0.135
5790,-0.175,-0.105
5791,-0.215,-0.075
5792,-0.225,-0.105
5793,-0.205,-0.085
5794,-0.225,-0.085
5795,-0.225,-0.075
5796,-0.225,-0.095
5797,-0.175,-0.105
5798,-0.145,-0.085
5799,-0.245,-0.065
5800,-0.685,0.105
5801,-1.125,0.185
5802,-0.435,0.055
5803,1.545,-0.085
5804,2.975,-0.285
5805,3.185,-0.345
5806,3.015,-0.115
5807,1.095,-0.445
5808,-0.355,-0.785
5809,-0.335,-0.355
5810,-0.185,-0.055
5811,-0.285,-0.025
5812,-0.355,-0.065
5813,-0.415,-0.035
5814,-0.325,0.045
5815,-0.375,-0.015
5816,-0.365,-0.015
5817,-0.325,-0.035
5818,-0.345,-0.045
5819,-0.305,-0.025
5820,-0.295,-0.025
5821,-0.305,-0.005
5822,-0.265,-0.005
5823,-0.255,-0.005
5824,-0.195,-0.005
5825,-0.185,-0.005
5826,-0.225,-0.035
5827,-0.155,-0.035
5828,-0.165,-0.035
5829,-0.135,-0.025
5830,-0.065,-0.045
5831,-0.035,-0.045
5832,-0.015,-0.035
5833,0.045,-0.045
5834,0.095,-0.045
5835,0.175,-0.075
5836,0.175,-0.105
5837,0.205,-0.095
5838,0.245,-0.075
5839,0.295,-0.125
5840,0.225,-0.145
5841,0.165,-0.115
5842,0.115,-0.075
5843,0.055,-0.125
5844,-0.065,-0.105
5845,-0.115,-0.105
5846,-0.165,-0.085
5847,-0.185,-0.095
5848,-0.255,-0.105
5849,-0.275,-0.075
5850,-0.235,-0.075
5851,-0.225,-0.065
5852,-0.295,-0.065
5853,-0.275,-0.065
5854,-0.245,-0.085
5855,-0.245,-0.095
5856,-0.255,-0.095
5857,-0.255,-0.075
5858,-0.245,-0.075
5859,-0.255,-0.065
5860,-0.255,-0.055
5861,-0.205,-0.055
5862,-0.235,-0.055
5863,-0.295,-0.075
5864,-0.265,-0.055
5865,-0.225,-0.035
5866,-0.245,-0.075
5867,-0.235,-0.095
5868,-0.225,-0.115
5869,-0.215,-0.055
5870,-0.265,-0.065
5871,-0.265,-0.065
5872,-0.245,-0.065
5873,-0.245,-0.065
5874,-0.225,-0.065
5875,-0.225,-0.115
5876,-0.215,-0.115
5877,-0.205,-0.095
5878,-0.235,-0.065
5879,-0.215,-0.065
5880,-0.245,-0.055
5881,-0.255,-0.055
5882,-0.225,-0.075
5883,-0.205,-0.065
5884,-0.175,-0.105
5885,-0.215,-0.075
5886,-0.225,-0.075
5887,-0.185,-0.085
5888,-0.165,-0.095
5889,-0.145,-0.055
5890,-0.135,-0.015
5891,-0.095,-0.075
5892,-0.085,-0.115
5893,-0.135,-0.095
5894,-0.155,-0.095
5895,-0.175,-0.075
5896,-0.175,-0.075
5897,-0.155,-0.105
5898,-0.145,-0.035
5899,-0.235,-0.095
5900,-0.215,-0.125
5901,-0.205,-0.075
5902,-0.235,-0.065
5903,-0.205,-0.055
5904,-0.235,-0.085
5905,-0.215,-0.065
5906,-0.175,-0.055
5907,-0.235,-0.025
5908,-0.825,0.155
5909,-0.995,0.175
5910,0.095,0.015
5911,2.135,-0.095
5912,3.095,-0.325
5913,3.115,-0.215
5914,2.345,-0.205
5915,0.245,-0.765
5916,-0.365,-0.525
5917,-0.165,-0.115
5918,-0.145,0.005
5919,-0.325,-0.025
5920,-0.415,-0.055
5921,-0.375,-0.015
5922,-0.345,-0.015
5923,-0.365,-0.005
5924,-0.325,0.015
5925,-0.285,-0.045
5926,-0.295,-0.045
5927,-0.285,-0.025
5928,-0.235,-0.045
5929,-0.295,0.005
5930,-0.265,0.005
5931,-0.225,0.005
5932,-0.205,-0.015
5933,-0.195,-0.005
5934,-0.165,-0.005
5935,-0.155,-0.005
5936,-0.135,0.005
5937,-0.085,-0.005
5938,-0.045,-0.065
5939,-0.045,-0.055
5940,0.005,-0.055
5941,0.035,-0.055
5942,0.085,-0.075
5943,0.145,-0.065
5944,0.185,-0.085
5945,0.225,-0.095
5946,0.255,-0.095
5947,0.245,-0.115
5948,0.225,-0.135
5949,0.205,-0.135
5950,0.115,-0.105
5951,0.055,-0.115
5952,0.015,-0.105
5953,-0.045,-0.075
5954,-0.115,-0.085
5955,-0.195,-0.085
5956,-0.165,-0.105
5957,-0.185,-0.055
5958,-0.185,-0.035
5959,-0.245,-0.075
5960,-0.185,-0.115
5961,-0.175,-0.025
5962,-0.205,-0.065
5963,-0.235,-0.095
5964,-0.145,-0.095
5965,-0.185,-0.055
5966,-0.175,-0.045
5967,-0.185,-0.075
5968,-0.235,-0.055
5969,-0.205,-0.045
5970,-0.185,-0.035
5971,-0.195,-0.065
5972,-0.265,-0.075
5973,-0.215,-0.055
5974,-0.135,-0.095
5975,-0.235,-0.085
5976,-0.305,-0.065
5977,-0.165,-0.045
5978,-0.075,-0.065
5979,-0.165,-0.095
5980,-0.305,-0.075
5981,-0.255,-0.105
5982,-0.195,-0.055
5983,-0.155,-0.045
5984,-0.215,-0.135
5985,-0.235,-0.135
5986,-0.105,-0.055
5987,-0.165,-0.065
5988,-0.185,-0.095
5989,-0.125,-0.095
5990,-0.205,-0.065
5991,-0.155,-0.105
5992,-0.295,-0.095
5993,-0.105,-0.065
5994,-0.145,-0.045
5995,-0.125,-0.105
5996,-0.145,-0.115
5997,-0.195,-0.075
5998,-0.115,-0.085
5999,-0.085,-0.115
6000,-0.205,-0.095
6001,-0.195,-0.105
6002,-0.115,-0.095
6003,-0.115,-0.085
6004,-0.175,-0.085
6005,-0.075,-0.075
6006,-0.125,-0.055
6007,-0.145,-0.095
6008,-0.165,-0.105
6009,-0.015,-0.105
6010,-0.155,-0.045
6011,-0.135,-0.065
6012,-0.075,-0.095
6013,-0.165,-0.125
6014,-0.045,-0.085
6015,0.035,-0.065
6016,-0.065,-0.095
6017,0.055,-0.115
6018,-0.005,-0.075
6019,0.005,-0.115
6020,-0.015,-0.105
6021,-0.175,-0.105
6022,-0.055,-0.115
6023,0.005,-0.095
6024,-0.095,-0.105
6025,-0.125,-0.095
6026,-0.155,-0.085
6027,-0.085,-0.055
6028,-0.005,-0.075
6029,-0.065,-0.105
6030,-0.075,-0.105
6031,-0.035,-0.085
6032,-0.075,-0.085
6033,-0.465,0.105
6034,-0.915,0.215
6035,-0.245,0.015
6036,1.545,-0.215
6037,2.925,-0.385
6038,3.095,-0.375
6039,2.875,-0.095
6040,1.075,-0.355
6041,-0.205,-0.775
6042,-0.285,-0.365
6043,-0.145,-0.085
6044,-0.195,-0.055
6045,-0.205,-0.055
6046,-0.225,-0.035
6047,-0.245,-0.035
6048,-0.255,-0.025
6049,-0.265,-0.015
6050,-0.235,-0.015
6051,-0.265,-0.045
6052,-0.215,-0.045
6053,-0.215,-0.065
6054,-0.125,-0.035
6055,-0.165,-0.055
6056,-0.185,-0.035
6057,-0.155,-0.055
6058,-0.125,-0.065
6059,-0.095,-0.055
6060,-0.105,-0.065
6061,-0.155,-0.045
6062,-0.045,-0.065
6063,0.025,-0.075
6064,0.045,-0.085
6065,0.075,-0.075
6066,0.095,-0.075
6067,0.135,-0.065
6068,0.165,-0.105
6069,0.195,-0.105
6070,0.255,-0.095
6071,0.275,-0.105
6072,0.285,-0.135
6073,0.305,-0.115
6074,0.285,-0.115
6075,0.255,-0.135
6076,0.205,-0.145
6077,0.135,-0.135
6078,0.085,-0.105
6079,0.015,-0.105
6080,-0.025,-0.115
6081,-0.095,-0.095
6082,-0.115,-0.065
6083,-0.155,-0.075
6084,-0.175,-0.085
6085,-0.195,-0.085
6086,-0.175,-0.065
6087,-0.185,-0.055
6088,-0.165,-0.085
6089,-0.185,-0.065
6090,-0.175,-0.065
6091,-0.175,-0.065
6092,-0.185,-0.075
6093,-0.185,-0.075
6094,-0.185,-0.055
6095,-0.175,-0.065
6096,-0.175,-0.075
6097,-0.165,-0.065
6098,-0.175,-0.055
6099,-0.175,-0.065
6100,-0.185,-0.075
6101,-0.195,-0.065
6102,-0.185,-0.065
6103,-0.185,-0.065
6104,-0.195,-0.075
6105,-0.175,-0.075
6106,-0.175,-0.075
6107,-0.185,-0.075
6108,-0.185,-0.085
6109,-0.175,-0.075
6110,-0.185,-0.065
6111,-0.205,-0.075
6112,-0.205,-0.085
6113,-0.155,-0.075
6114,-0.165,-0.065
6115,-0.175,-0.075
6116,-0.175,-0.095
6117,-0.175,-0.075
6118,-0.145,-0.075
6119,-0.165,-0.075
6120,-0.195,-0.095
6121,-0.175,-0.085
6122,-0.155,-0.065
6123,-0.155,-0.075
6124,-0.155,-0.085
6125,-0.155,-0.075
6126,-0.165,-0.075
6127,-0.155,-0.085
6128,-0.175,-0.095
6129,-0.145,-0.085
6130,-0.095,-0.065
6131,-0.075,-0.055
6132,-0.085,-0.065
6133,-0.005,-0.095
6134,-0.045,-0.085
6135,-0.105,-0.115
6136,-0.145,-0.115
6137,-0.105,-0.095
6138,-0.105,-0.095
6139,-0.135,-0.085
6140,-0.155,-0.095
6141,-0.165,-0.085
6142,-0.145,-0.085
6143,-0.155,-0.075
6144,-0.165,-0.095
6145,-0.155,-0.085
6146,-0.125,-0.075
6147,-0.095,-0.085
6148,-0.315,-0.015
6149,-1.015,0.205
6150,-0.765,0.185
6151,0.765,-0.005
6152,2.645,-0.165
6153,3.245,-0.435
6154,3.155,-0.325
6155,2.085,-0.155
6156,0.035,-0.685
6157,-0.375,-0.455
6158,-0.165,-0.145
6159,-0.185,-0.035
6160,-0.285,-0.045
6161,-0.305,-0.035
6162,-0.315,-0.015
6163,-0.295,-0.015
6164,-0.295,-0.015
6165,-0.275,-0.015
6166,-0.275,-0.005
6167,-0.265,-0.015
6168,-0.265,-0.025
6169,-0.225,-0.015
6170,-0.205,-0.005
6171,-0.215,-0.005
6172,-0.165,-0.015
6173,-0.155,-0.015
6174,-0.135,-0.005
6175,-0.125,-0.025
6176,-0.115,-0.035
6177,-0.075,-0.025
6178,-0.035,-0.015
6179,-0.005,-0.015
6180,0.015,-0.025
6181,0.055,-0.025
6182,0.135,-0.015
6183,0.165,-0.025
6184,0.205,-0.045
6185,0.245,-0.045
6186,0.285,-0.055
6187,0.285,-0.055
6188,0.305,-0.085
6189,0.295,-0.095
6190,0.275,-0.115
6191,0.205,-0.125
6192,0.125,-0.125
6193,0.035,-0.105
6194,-0.035,-0.105
6195,-0.115,-0.115
6196,-0.155,-0.105
6197,-0.195,-0.095
6198,-0.215,-0.085
6199,-0.245,-0.095
6200,-0.215,-0.095
6201,-0.225,-0.085
6202,-0.205,-0.075
6203,-0.215,-0.085
6204,-0.225,-0.095
6205,-0.225,-0.085
6206,-0.225,-0.075
6207,-0.225,-0.095
6208,-0.245,-0.085
6209,-0.235,-0.085
6210,-0.235,-0.075
6211,-0.235,-0.095
6212,-0.235,-0.105
6213,-0.225,-0.105
6214,-0.235,-0.085
6215,-0.235,-0.095
6216,-0.235,-0.105
6217,-0.235,-0.115
6218,-0.245,-0.095
6219,-0.235,-0.095
6220,-0.235,-0.105
6221,-0.255,-0.105
6222,-0.235,-0.095
6223,-0.235,-0.105
6224,-0.245,-0.115
6225,-0.235,-0.105
6226,-0.225,-0.095
6227,-0.225,-0.115
6228,-0.245,-0.115
6229,-0.215,-0.105
6230,-0.215,-0.095
6231,-0.205,-0.115
6232,-0.235,-0.115
6233,-0.215,-0.095
6234,-0.205,-0.105
6235,-0.215,-0.105
6236,-0.215,-0.115
6237,-0.205,-0.115
6238,-0.195,-0.105
6239,-0.205,-0.115
6240,-0.205,-0.115
6241,-0.185,-0.105
6242,-0.185,-0.105
6243,-0.195,-0.105
6244,-0.195,-0.125
6245,-0.185,-0.115
6246,-0.125,-0.095
6247,-0.085,-0.075
6248,-0.115,-0.085
6249,-0.035,-0.125
6250,-0.075,-0.105
6251,-0.115,-0.135
6252,-0.165,-0.135
6253,-0.165,-0.135
6254,-0.145,-0.115
6255,-0.145,-0.095
6256,-0.185,-0.115
6257,-0.175,-0.115
6258,-0.175,-0.105
6259,-0.175,-0.095
6260,-0.185,-0.095
6261,-0.155,-0.105
6262,-0.145,-0.085
6263,-0.115,-0.085
6264,-0.245,-0.045
6265,-0.925,0.175
6266,-0.815,0.165
6267,0.625,-0.035
6268,2.525,-0.195
6269,3.185,-0.435
6270,3.105,-0.285
6271,2.325,-0.165
6272,0.235,-0.725
6273,-0.415,-0.555
6274,-0.175,-0.185
6275,-0.155,-0.055
6276,-0.255,-0.055
6277,-0.315,-0.045
6278,-0.305,-0.035
6279,-0.305,-0.035
6280,-0.315,-0.035
6281,-0.295,-0.025
6282,-0.285,-0.015
6283,-0.275,-0.025
6284,-0.255,-0.035
6285,-0.245,-0.015
6286,-0.215,-0.015
6287,-0.215,-0.025
6288,-0.195,-0.035
6289,-0.195,-0.035
6290,-0.175,-0.025
6291,-0.155,-0.035
6292,-0.135,-0.045
6293,-0.095,-0.045
6294,-0.055,-0.045
6295,-0.035,-0.065
6296,-0.005,-0.065
6297,0.035,-0.065
6298,0.095,-0.055
6299,0.115,-0.085
6300,0.145,-0.085
6301,0.205,-0.085
6302,0.245,-0.105
6303,0.255,-0.125
6304,0.285,-0.145
6305,0.255,-0.145
6306,0.235,-0.145
6307,0.165,-0.145
6308,0.085,-0.145
6309,0.025,-0.135
6310,-0.055,-0.115
6311,-0.125,-0.115
6312,-0.165,-0.105
6313,-0.175,-0.085
6314,-0.205,-0.095
6315,-0.215,-0.095
6316,-0.195,-0.085
6317,-0.185,-0.085
6318,-0.195,-0.075
6319,-0.205,-0.085
6320,-0.205,-0.095
6321,-0.185,-0.085
6322,-0.205,-0.075
6323,-0.195,-0.075
6324,-0.195,-0.085
6325,-0.205,-0.075
6326,-0.215,-0.075
6327,-0.205,-0.085
6328,-0.205,-0.075
6329,-0.195,-0.085
6330,-0.205,-0.085
6331,-0.205,-0.075
6332,-0.215,-0.085
6333,-0.205,-0.085
6334,-0.215,-0.075
6335,-0.215,-0.085
6336,-0.205,-0.085
6337,-0.205,-0.075
6338,-0.185,-0.075
6339,-0.215,-0.075
6340,-0.205,-0.085
6341,-0.205,-0.085
6342,-0.195,-0.095
6343,-0.205,-0.085
6344,-0.195,-0.095
6345,-0.185,-0.085
6346,-0.185,-0.085
6347,-0.175,-0.085
6348,-0.185,-0.095
6349,-0.185,-0.085
6350,-0.185,-0.075
6351,-0.175,-0.085
6352,-0.185,-0.095
6353,-0.175,-0.095
6354,-0.165,-0.085
6355,-0.165,-0.085
6356,-0.175,-0.105
6357,-0.175,-0.095
6358,-0.155,-0.075
6359,-0.165,-0.085
6360,-0.165,-0.105
6361,-0.165,-0.095
6362,-0.105,-0.075
6363,-0.075,-0.055
6364,-0.115,-0.075
6365,-0.025,-0.115
6366,-0.045,-0.085
6367,-0.105,-0.115
6368,-0.135,-0.115
6369,-0.135,-0.105
6370,-0.115,-0.095
6371,-0.135,-0.075
6372,-0.165,-0.095
6373,-0.165,-0.085
6374,-0.155,-0.085
6375,-0.145,-0.085
6376,-0.145,-0.085
6377,-0.145,-0.085
6378,-0.115,-0.065
6379,-0.105,-0.075
6380,-0.415,0.045
6381,-1.035,0.235
6382,-0.565,0.105
6383,1.115,-0.145
6384,2.775,-0.315
6385,3.205,-0.365
6386,3.045,-0.105
6387,1.615,-0.195
6388,-0.095,-0.825
6389,-0.355,-0.415
6390,-0.165,-0.105
6391,-0.205,-0.035
6392,-0.285,-0.035
6393,-0.305,-0.035
6394,-0.315,-0.025
6395,-0.305,-0.025
6396,-0.305,-0.015
6397,-0.305,-0.015
6398,-0.275,-0.005
6399,-0.265,-0.015
6400,-0.255,-0.025
6401,-0.235,-0.025
6402,-0.215,-0.015
6403,-0.195,-0.025
6404,-0.185,-0.045
6405,-0.175,-0.035
6406,-0.165,-0.035
6407,-0.135,-0.045
6408,-0.115,-0.055
6409,-0.095,-0.055
6410,-0.055,-0.075
6411,-0.025,-0.085
6412,0.015,-0.095
6413,0.055,-0.085
6414,0.075,-0.095
6415,0.105,-0.115
6416,0.155,-0.125
6417,0.185,-0.115
6418,0.205,-0.125
6419,0.205,-0.145
6420,0.205,-0.145
6421,0.225,-0.145
6422,0.215,-0.145
6423,0.135,-0.145
6424,0.085,-0.145
6425,0.005,-0.125
6426,-0.055,-0.095
6427,-0.105,-0.085
6428,-0.155,-0.095
6429,-0.185,-0.075
6430,-0.185,-0.065
6431,-0.195,-0.065
6432,-0.215,-0.065
6433,-0.205,-0.065
6434,-0.205,-0.055
6435,-0.215,-0.055
6436,-0.205,-0.065
6437,-0.215,-0.065
6438,-0.205,-0.055
6439,-0.195,-0.045
6440,-0.185,-0.055
6441,-0.235,-0.055
6442,-0.225,-0.055
6443,-0.215,-0.055
6444,-0.195,-0.065
6445,-0.205,-0.055
6446,-0.225,-0.045
6447,-0.195,-0.055
6448,-0.235,-0.065
6449,-0.225,-0.065
6450,-0.205,-0.055
6451,-0.225,-0.045
6452,-0.255,-0.085
6453,-0.225,-0.085
6454,-0.235,-0.065
6455,-0.245,-0.045
6456,-0.245,-0.055
6457,-0.215,-0.075
6458,-0.195,-0.075
